2013-07-13 17:19:47
64.0
-0.0
-0.0
-0.0
-0.0
-0.0
-0.0
-0.0
-0.0
-0.0
-0.0
0.0
0.01
0.01
-0.0
-0.03
-0.05
-0.05
0.0
0.13
0.36
0.66
1.01
1.37
1.72
2.06
2.4
2.79
3.25
3.81
4.43
5.09
5.72
6.33
6.92
7.55
8.27
9.11
10.14
11.28
12.41
13.45
14.38
15.28
16.31
17.67
19.46
21.88
24.72
27.74
30.66
33.39
36.03
38.9
42.39
46.76
52.31
58.68
65.4
71.98
78.22
84.27
90.63
97.89
106.39
116.5
127.65
139.13
150.31
160.94
171.27
181.95
194.08
205.98
219.54
235.18
253.17
272.74
291.54
305.62
310.4
302.12
279.25
243.56
198.6
148.91
98.28
48.99
1.83
-43.21
-86.22
-127.13
-165.74
-202.77
-239.46
-276.97
-315.27
-352.37
-384.36
-406.5
-415.16
-409.15
-390.5
-363.63
-333.58
-304.27
-277.53
-253.33
-230.8
-209.29
-188.78
-169.79
-152.74
-137.5
-123.45
-109.88
-96.39
-83.17
-70.82
-60.0
-51.02
-43.72
-37.53
-31.74
-25.81
-19.61
-13.33
-7.42
-2.27
1.9
5.16
7.73
9.98
12.17
14.44
16.73
18.86
20.58
21.72
22.24
22.28
22.1
22.0
22.2
22.78
23.63
24.5
25.11
25.21
24.74
23.8
22.6
21.38
20.33
19.53
18.97
18.6
18.33
18.09
17.76
17.3
16.67
15.94
15.24
14.7
14.38
14.21
14.05
13.76
13.28
12.69
12.09
11.59
11.21
10.89
10.55
10.14
9.69
9.28
9.0
8.85
8.78
8.68
8.48
8.17
7.8
7.48
7.28
7.18
7.13
7.02
6.78
6.41
5.99
5.63
5.42
5.38
5.46
5.54
5.52
5.3
4.87
4.23
3.49
2.74
2.1
1.65
1.39
1.26
1.12
0.86
0.44
-0.12
-0.74
-1.34
-1.88
-2.32
-2.67
-2.93
-3.1
-3.22
-3.35
-3.56
-3.92
-4.45
-5.08
-5.74
-6.32
-6.75
-7.0
-7.1
-7.04
-6.86
-6.54
-6.13
-5.64
-5.13
-4.65
-4.2
-3.77
-3.33
-2.82
-2.22
-1.57
-0.92
-0.33
0.15
0.58
1.0
1.49
2.07
2.73
3.41
4.06
4.65
5.21
5.77
6.35
6.92
7.39
7.71
7.86
7.89
7.93
8.09
8.46
9.04
9.81
10.69
11.59
12.44
13.16
13.7
14.04
14.14
13.91
13.18
11.76
9.56
6.62
3.19
-0.36
-3.65
-6.36
-8.27
-9.2
-9.08
-8.0
-6.33
-4.61
-3.47
-3.24
-3.87
-4.86
-5.62
-5.72
-5.16
-4.3
-3.58
-3.23
-3.18
-3.09
-2.67
-1.81
-0.67
0.44
1.28
1.76
2.02
2.27
2.68
3.29
3.92
4.39
4.54
4.41
4.17
4.03
4.13
4.51
5.05
5.58
5.88
5.78
5.19
4.14
2.79
1.38
0.2
-0.58
-0.94
-1.0
-0.95
-0.99
-1.22
-1.68
-2.32
-3.07
-3.84
-4.52
-5.06
-5.44
-5.72
-5.99
-6.34
-6.76
-7.16
-7.46
-7.61
-7.68
-7.77
-7.97
-8.25
-8.56
-8.79
-8.89
-8.83
-8.59
-8.16
-7.5
-6.6
-5.51
-4.3
-3.06
-1.84
-0.61
0.67
1.98
3.19
4.1
4.5
4.39
3.95
3.55
3.55
4.11
5.09
6.07
6.57
6.26
5.14
3.57
2.06
1.07
0.85
1.34
2.27
3.31
4.21
4.81
5.08
5.07
4.89
4.65
4.48
4.42
4.44
4.44
4.23
3.66
2.64
1.22
-0.43
-2.06
-3.39
-4.17
-4.26
-3.67
-2.55
-1.15
0.28
1.57
2.65
3.54
4.28
4.87
5.26
5.45
5.5
5.54
5.73
6.15
6.8
7.56
8.23
8.69
8.83
8.65
8.2
7.61
7.04
6.6
6.37
6.28
6.21
6.02
5.62
5.05
4.4
3.78
3.23
2.7
2.12
1.39
0.53
-0.4
-1.27
-2.0
-2.51
-2.85
-3.11
-3.37
-3.71
-4.11
-4.48
-4.71
-4.69
-4.39
-3.86
-3.24
-2.7
-2.35
-2.19
-2.15
-2.1
-1.93
-1.62
-1.26
-0.97
-0.86
-0.92
-1.06
-1.13
-1.03
-0.72
-0.3
0.09
0.37
0.47
0.42
0.27
0.08
-0.12
-0.29
-0.38
-0.35
-0.18
0.11
0.4
0.58
0.55
0.32
-0.01
-0.33
-0.54
-0.64
-0.71
-0.82
-0.98
-1.09
-1.02
-0.68
-0.1
0.6
1.25
1.73
1.99
2.05
1.96
1.75
1.47
1.13
0.78
0.47
0.26
0.21
0.35
0.65
1.06
1.47
1.78
1.93
1.91
1.75
1.53
1.3
1.11
0.98
0.92
0.9
0.91
0.88
0.76
0.48
0.06
-0.4
-0.75
-0.89
-0.79
-0.55
-0.33
-0.26
-0.38
-0.6
-0.77
-0.75
-0.51
-0.13
0.2
0.36
0.28
0.03
-0.28
-0.52
-0.64
-0.69
-0.76
-0.9
-1.07
-1.15
-1.01
-0.63
-0.08
0.44
0.74
0.75
0.55
0.32
0.23
0.37
0.65
0.89
0.93
0.72
0.33
-0.04
-0.22
-0.11
0.22
0.63
0.9
0.95
0.77
0.48
0.25
0.15
0.2
0.3
0.35
0.3
0.2
0.11
0.08
0.08
-0.0
-0.24
-0.62
-0.99
-1.18
-1.04
-0.6
-0.03
0.44
0.59
0.38
-0.09
-0.62
-0.99
-1.07
-0.84
-0.41
0.07
0.47
0.7
0.74
0.61
0.36
0.05
-0.28
-0.54
-0.68
-0.67
-0.51
-0.3
-0.12
-0.07
-0.17
-0.34
-0.49
-0.5
-0.32
0.02
0.41
0.73
0.86
0.77
0.53
0.26
0.13
0.24
0.6
1.1
1.58
1.87
1.89
1.64
1.18
0.6
0.0
-0.55
-0.98
-1.2
-1.19
-0.96
-0.62
-0.28
-0.03
0.1
0.15
0.15
0.13
0.06
-0.09
-0.29
-0.44
-0.43
-0.17
0.3
0.81
1.16
1.17
0.8
0.19
-0.43
-0.84
-0.92
-0.71
-0.38
-0.12
-0.05
-0.14
-0.26
-0.3
-0.23
-0.11
-0.04
-0.07
-0.16
-0.21
-0.16
0.03
0.28
0.51
0.63
0.65
0.64
0.68
0.85
1.18
1.58
1.92
2.03
1.8
1.21
0.41
-0.38
-0.91
-1.05
-0.82
-0.4
-0.01
0.21
0.23
0.13
0.01
-0.07
-0.14
-0.24
-0.41
-0.64
-0.82
-0.84
-0.65
-0.3
0.06
0.24
0.12
-0.27
-0.81
-1.27
-1.47
-1.35
-1.02
-0.64
-0.39
-0.34
-0.39
-0.35
-0.08
0.48
1.21
1.86
2.22
2.17
1.72
1.04
0.32
-0.28
-0.71
-0.97
-1.1
-1.12
-1.02
-0.79
-0.44
-0.05
0.29
0.49
0.5
0.36
0.12
-0.13
-0.32
-0.41
-0.37
-0.2
0.11
0.51
0.93
1.22
1.27
1.02
0.54
0.01
-0.4
-0.56
-0.47
-0.21
0.08
0.28
0.35
0.31
0.22
0.19
0.27
0.5
0.79
1.02
1.05
0.83
0.41
-0.09
-0.51
-0.76
-0.83
-0.79
-0.69
-0.57
-0.42
-0.23
-0.02
0.15
0.22
0.16
-0.01
-0.25
-0.48
-0.65
-0.75
-0.77
-0.76
-0.74
-0.72
-0.69
-0.61
-0.49
-0.34
-0.21
-0.14
-0.13
-0.12
-0.03
0.18
0.5
0.82
1.04
1.09
0.97
0.77
0.58
0.51
0.58
0.75
0.92
0.96
0.81
0.48
0.06
-0.32
-0.56
-0.65
-0.65
-0.66
-0.74
-0.87
-0.93
-0.85
-0.59
-0.23
0.11
0.29
0.28
0.13
-0.03
-0.12
-0.09
-0.0
0.1
0.19
0.26
0.34
0.45
0.54
0.55
0.42
0.17
-0.11
-0.27
-0.24
-0.04
0.2
0.32
0.23
-0.03
-0.31
-0.45
-0.38
-0.13
0.18
0.43
0.57
0.64
0.69
0.71
0.69
0.58
0.37
0.12
-0.09
-0.2
-0.2
-0.13
-0.07
-0.04
-0.06
-0.09
-0.1
-0.07
-0.01
0.08
0.17
0.24
0.27
0.24
0.13
-0.03
-0.2
-0.32
-0.34
-0.29
-0.23
-0.21
-0.24
-0.28
-0.26
-0.15
0.03
0.22
0.33
0.29
0.12
-0.1
-0.28
-0.34
-0.27
-0.11
0.09
0.27
0.38
0.45
0.48
0.51
0.54
0.56
0.54
0.45
0.29
0.08
-0.13
-0.28
-0.37
-0.41
-0.43
-0.43
-0.4
-0.31
-0.19
-0.08
-0.05
-0.12
-0.27
-0.42
-0.47
-0.39
-0.21
-0.02
0.1
0.11
0.02
-0.09
-0.19
-0.26
-0.32
-0.39
-0.49
-0.59
-0.62
-0.55
-0.36
-0.09
0.19
0.41
0.48
0.41
0.21
-0.03
-0.25
-0.38
-0.43
-0.42
-0.39
-0.37
-0.39
-0.43
-0.46
-0.45
-0.39
-0.28
-0.2
-0.21
-0.34
-0.59
-0.86
-1.04
-1.05
-0.89
-0.65
-0.45
-0.34
-0.35
-0.41
-0.45
-0.46
-0.45
-0.44
-0.45
-0.46
-0.45
-0.42
-0.38
-0.36
-0.33
-0.25
-0.09
0.14
0.39
0.6
0.72
0.77
0.78
0.81
0.86
0.91
0.94
0.94
0.96
1.03
1.2
1.44
1.7
1.94
2.08
2.09
1.93
1.64
1.27
0.87
0.53
0.3
0.2
0.2
0.24
0.26
0.23
0.15
0.04
-0.06
-0.11
-0.09
0.0
0.13
0.24
0.29
0.23
0.05
-0.22
-0.5
-0.72
-0.84
-0.88
-0.86
-0.84
-0.83
-0.81
-0.79
-0.74
-0.67
-0.62
-0.56
-0.52
-0.47
-0.43
-0.37
-0.31
-0.26
-0.21
-0.17
-0.14
-0.13
-0.15
-0.17
-0.16
-0.13
-0.07
-0.01
0.0
-0.03
-0.11
-0.21
-0.32
-0.45
-0.61
-0.8
-1.01
-1.2
-1.32
-1.35
-1.28
-1.17
-1.09
-1.1
-1.25
-1.51
-1.84
-2.17
-2.43
-2.54
-2.46
-2.15
-1.6
-0.85
0.0
0.88
1.7
2.42
3.0
3.45
3.74
3.87
3.83
3.67
3.45
3.22
3.0
2.78
2.52
2.22
1.87
1.51
1.17
0.85
0.55
0.26
-0.02
-0.27
-0.47
-0.58
-0.61
-0.56
-0.44
-0.29
-0.12
0.08
0.35
0.67
1.04
1.38
1.59
1.59
1.36
0.97
0.54
0.22
0.08
0.12
0.29
0.51
0.74
0.94
1.13
1.28
1.36
1.31
1.12
0.81
0.45
0.13
-0.14
-0.35
-0.57
-0.83
-1.15
-1.47
-1.72
-1.81
-1.7
-1.41
-1.0
-0.57
-0.21
0.02
0.1
0.07
-0.01
-0.08
-0.12
-0.13
-0.13
-0.16
-0.2
-0.23
-0.21
-0.1
0.05
0.18
0.18
-0.0
-0.33
-0.67
-0.89
-0.89
-0.68
-0.35
-0.02
0.22
0.38
0.46
0.51
0.47
0.27
-0.13
-0.68
-1.2
-1.47
-1.37
-0.94
-0.37
0.07
0.2
-0.03
-0.48
-0.99
-1.39
-1.61
-1.68
-1.64
-1.52
-1.31
-1.01
-0.62
-0.21
0.13
0.36
0.44
0.42
0.32
0.17
-0.02
-0.23
-0.42
-0.55
-0.57
-0.48
-0.31
-0.11
0.07
0.18
0.21
0.14
0.0
-0.16
-0.3
-0.37
-0.38
-0.33
-0.26
-0.19
-0.11
-0.01
0.1
0.23
0.34
0.43
0.52
0.63
0.78
0.94
1.07
1.14
1.12
1.03
0.9
0.76
0.66
0.66
0.76
0.95
1.19
1.39
1.48
1.43
1.22
0.88
0.46
0.07
-0.23
-0.34
-0.27
-0.08
0.09
0.1
-0.14
-0.56
-1.03
-1.38
-1.49
-1.34
-1.01
-0.59
-0.22
0.06
0.23
0.28
0.25
0.15
0.05
-0.01
0.02
0.15
0.31
0.42
0.39
0.19
-0.16
-0.56
-0.9
-1.12
-1.21
-1.2
-1.14
-1.07
-1.02
-0.98
-0.98
-1.05
-1.22
-1.45
-1.66
-1.73
-1.59
-1.26
-0.86
-0.56
-0.49
-0.68
-1.03
-1.35
-1.48
-1.36
-0.99
-0.48
0.04
0.48
0.78
0.95
1.03
1.09
1.14
1.18
1.16
1.06
0.91
0.77
0.73
0.8
0.94
1.02
0.95
0.71
0.37
0.06
-0.12
-0.17
-0.17
-0.2
-0.25
-0.27
-0.14
0.18
0.65
1.13
1.44
1.46
1.2
0.73
0.22
-0.19
-0.39
-0.38
-0.24
-0.04
0.11
0.2
0.24
0.31
0.45
0.66
0.86
0.97
0.93
0.76
0.52
0.28
0.11
0.02
0.01
0.02
0.01
-0.03
-0.11
-0.23
-0.38
-0.54
-0.69
-0.78
-0.76
-0.61
-0.35
-0.04
0.2
0.3
0.19
-0.06
-0.37
-0.62
-0.75
-0.77
-0.74
-0.7
-0.62
-0.46
-0.2
0.12
0.39
0.49
0.38
0.1
-0.22
-0.45
-0.5
-0.37
-0.15
0.06
0.19
0.21
0.14
0.05
-0.01
-0.01
0.08
0.22
0.39
0.54
0.62
0.59
0.47
0.29
0.1
-0.08
-0.2
-0.28
-0.31
-0.28
-0.18
0.01
0.29
0.64
1.0
1.33
1.59
1.74
1.73
1.49
1.01
0.32
-0.46
-1.14
-1.58
-1.7
-1.54
-1.23
-0.94
-0.75
-0.72
-0.8
-0.91
-0.97
-0.9
-0.66
-0.22
0.37
1.05
1.67
2.12
2.3
2.2
1.88
1.43
0.97
0.58
0.27
0.01
-0.23
-0.47
-0.71
-0.92
-1.05
-1.09
-1.06
-1.02
-1.0
-1.04
-1.12
-1.22
-1.26
-1.19
-0.97
-0.61
-0.2
0.17
0.37
0.37
0.2
-0.07
-0.31
-0.48
-0.52
-0.44
-0.25
0.03
0.37
0.68
0.84
0.74
0.37
-0.16
-0.66
-0.91
-0.83
-0.48
-0.03
0.32
0.47
0.43
0.32
0.25
0.26
0.33
0.35
0.28
0.13
-0.01
-0.02
0.18
0.56
0.98
1.27
1.33
1.14
0.81
0.5
0.33
0.36
0.53
0.74
0.88
0.9
0.81
0.68
0.58
0.55
0.58
0.6
0.56
0.46
0.32
0.2
0.1
-0.08
-0.46
-1.07
-1.8
-2.42
-2.68
-2.5
-2.02
-1.46
-1.07
-0.88
-0.75
-0.49
-0.01
0.59
1.06
1.2
0.92
0.35
-0.26
-0.68
-0.8
-0.6
-0.22
0.23
0.62
0.88
0.98
0.96
0.87
0.73
0.57
0.39
0.21
0.06
0.01
0.08
0.26
0.46
0.58
0.56
0.44
0.33
0.35
0.56
0.91
1.25
1.45
1.44
1.26
0.99
0.73
0.54
0.41
0.33
0.27
0.21
0.13
-0.02
-0.29
-0.71
-1.23
-1.73
-2.04
-2.04
-1.76
-1.34
-1.0
-0.9
-1.03
-1.26
-1.41
-1.36
-1.11
-0.75
-0.42
-0.17
0.0
0.11
0.12
-0.03
-0.38
-0.87
-1.36
-1.62
-1.5
-1.0
-0.32
0.28
0.55
0.42
0.02
-0.4
-0.61
-0.48
-0.08
0.41
0.84
1.11
1.25
1.3
1.31
1.23
1.03
0.69
0.27
-0.08
-0.26
-0.25
-0.11
0.05
0.13
0.12
0.03
-0.09
-0.24
-0.41
-0.58
-0.71
-0.74
-0.64
-0.49
-0.37
-0.38
-0.54
-0.75
-0.9
-0.92
-0.81
-0.62
-0.44
-0.31
-0.24
-0.2
-0.21
-0.24
-0.33
-0.45
-0.55
-0.59
-0.55
-0.45
-0.35
-0.32
-0.41
-0.57
-0.75
-0.87
-0.94
-1.0
-1.11
-1.31
-1.55
-1.73
-1.72
-1.48
-1.08
-0.7
-0.5
-0.53
-0.68
-0.76
-0.6
-0.17
0.43
1.03
1.48
1.76
1.9
1.97
2.03
2.07
2.06
1.96
1.75
1.41
0.93
0.33
-0.35
-0.99
-1.47
-1.7
-1.67
-1.48
-1.24
-1.07
-1.0
-1.01
-1.03
-0.91
-0.56
0.13
1.12
2.3
3.44
4.29
4.64
4.44
3.78
2.86
1.96
1.3
1.03
1.16
1.56
2.02
2.34
2.36
2.08
1.59
1.08
0.73
0.67
0.95
1.52
2.28
3.09
3.77
4.22
4.39
4.38
4.39
4.66
5.39
6.63
8.27
10.07
11.76
13.17
14.3
15.33
16.52
18.08
20.05
22.31
24.69
27.09
29.52
32.07
34.78
37.57
40.41
43.44
47.1
51.82
57.53
63.29
67.46
68.35
65.25
58.99
51.78
46.24
44.31
46.54
52.18
59.88
68.57
77.77
87.55
98.08
109.37
121.43
134.74
150.48
170.34
195.57
226.04
259.57
292.38
320.28
340.23
351.43
355.37
354.86
352.66
350.26
347.69
344.0
338.12
329.58
318.55
305.51
290.82
274.6
256.79
237.59
217.54
197.51
178.47
161.07
145.45
131.24
117.82
104.64
91.46
78.48
66.1
54.71
44.36
34.67
24.98
14.6
3.12
-9.48
-22.9
-36.81
-51.13
-66.18
-82.57
-100.88
-121.27
-143.37
-166.24
-188.88
-210.61
-231.4
-251.76
-272.49
-294.18
-317.02
-340.99
-366.12
-392.52
-419.99
-447.51
-473.11
-494.42
-509.78
-519.18
-524.36
-527.63
-530.49
-532.71
-532.7
-529.06
-522.13
-514.49
-509.79
-510.57
-516.22
-522.67
-523.89
-514.55
-492.27
-458.45
-417.38
-374.13
-332.54
-293.94
-257.38
-220.66
-181.69
-139.51
-94.51
-48.02
-1.31
44.82
90.44
136.2
182.99
231.62
282.99
338.44
399.69
467.84
541.84
617.15
685.9
738.83
768.53
772.27
752.99
717.85
675.16
631.36
589.62
550.26
512.34
475.17
438.73
403.25
368.51
333.67
297.76
260.4
222.22
184.54
148.85
115.96
85.62
56.69
27.74
-2.22
-33.36
-64.97
-95.9
-125.18
-152.51
-178.5
-204.5
-232.28
-263.23
-297.59
-333.79
-368.42
-396.92
-415.07
-420.45
-413.33
-396.44
-373.76
-348.92
-324.15
-300.11
-276.58
-253.41
-230.96
-210.05
-191.36
-174.91
-159.88
-144.93
-128.74
-110.55
-90.5
-69.73
-50.08
-33.61
-21.95
-15.76
-14.52
-16.62
-20.08
-23.23
-25.35
-26.67
-27.99
-29.91
-32.37
-34.57
-35.37
-34.05
-30.77
-26.55
-22.69
-20.06
-18.56
-17.24
-14.86
-10.69
-5.05
0.76
4.96
6.08
3.63
-1.81
-8.92
-16.16
-22.34
-26.78
-29.34
-30.14
-29.52
-27.84
-25.49
-22.79
-19.89
-16.79
-13.41
-9.75
-6.07
-2.83
-0.5
0.66
0.72
0.06
-0.81
-1.52
-1.84
-1.76
-1.37
-0.87
-0.52
-0.52
-0.97
-1.76
-2.64
-3.33
-3.69
-3.74
-3.58
-3.23
-2.65
-1.71
-0.44
0.96
2.16
2.87
2.98
2.58
1.89
1.09
0.32
-0.39
-1.05
-1.65
-2.23
-2.84
-3.63
-4.64
-5.83
-6.95
-7.7
-7.87
-7.48
-6.8
-6.2
-5.95
-6.14
-6.66
-7.35
-8.13
-9.0
-10.01
-11.11
-12.19
-13.09
-13.74
-14.26
-14.87
-15.77
-17.0
-18.48
-20.08
-21.8
-23.72
-25.96
-28.5
-31.16
-33.65
-35.74
-37.4
-38.71
-39.83
-40.8
-41.62
-42.35
-43.26
-44.83
-47.64
-52.07
-58.24
-65.97
-74.95
-84.9
-95.68
-107.16
-119.22
-131.65
-144.2
-156.6
-168.7
-180.51
-192.36
-204.92
-219.17
-236.07
-256.0
-278.18
-300.44
-319.61
-332.55
-337.21
-333.48
-323.07
-308.74
-293.13
-277.87
-263.32
-249.03
-234.42
-219.22
-203.61
-187.84
-171.89
-155.23
-137.08
-116.81
-94.28
-70.02
-44.97
-20.17
3.75
26.83
49.67
73.24
98.33
125.33
154.01
183.78
213.92
243.98
273.93
304.05
334.87
367.06
401.43
438.9
480.23
525.39
573.0
620.19
663.13
698.05
722.27
734.7
735.69
726.41
708.3
682.86
651.9
617.6
582.43
548.5
516.95
487.65
459.47
430.96
401.14
369.85
337.65
305.48
274.2
244.31
215.82
188.35
161.38
134.55
107.83
81.58
56.37
32.7
10.71
-9.97
-30.08
-50.47
-71.72
-93.94
-116.74
-139.43
-161.34
-182.15
-201.98
-221.38
-241.27
-262.79
-287.12
-315.02
-346.1
-378.28
-407.74
-429.75
-440.24
-437.32
-422.1
-398.23
-370.38
-342.55
-316.97
-294.16
-273.73
-255.2
-238.28
-222.64
-207.53
-191.84
-174.57
-155.5
-135.4
-115.66
-97.69
-82.33
-69.78
-59.85
-52.29
-46.86
-43.17
-40.51
-37.94
-34.64
-30.37
-25.51
-20.86
-17.13
-14.62
-13.08
-11.91
-10.49
-8.41
-5.6
-2.28
1.08
3.99
6.03
7.05
7.2
6.89
6.66
7.0
8.18
10.24
13.01
16.15
19.34
22.37
25.21
28.01
30.88
33.68
35.9
36.71
35.16
30.58
22.83
12.38
0.14
-12.83
-25.54
-37.17
-47.05
-54.59
-59.33
-61.03
-59.89
-56.49
-51.67
-46.21
-40.47
-34.45
-27.93
-20.79
-13.31
-6.18
-0.21
4.01
6.35
7.11
6.81
5.9
4.69
3.33
1.97
0.84
0.17
0.11
0.59
1.37
2.12
2.61
2.77
2.73
2.7
2.85
3.19
3.58
3.84
3.86
3.67
3.47
3.49
3.87
4.53
5.21
5.56
5.34
4.49
3.21
1.79
0.52
-0.38
-0.76
-0.5
0.57
2.6
5.75
9.99
15.04
20.36
25.23
29.02
31.35
32.3
32.28
31.91
31.78
32.41
34.24
37.6
42.42
47.82
51.98
52.53
47.5
36.44
20.89
3.94
-11.1
-22.21
-29.32
-33.89
-37.75
-41.8
-45.65
-48.11
-48.22
-45.98
-42.35
-38.66
-35.83
-34.0
-32.65
-31.09
-28.96
-26.4
-23.87
-21.84
-20.47
-19.56
-18.63
-17.24
-15.14
-12.45
-9.59
-7.07
-5.28
-4.27
-3.79
-3.38
-2.61
-1.26
0.6
2.67
4.63
6.22
7.36
8.06
8.41
8.42
8.12
7.55
6.8
6.01
5.34
4.85
4.54
4.32
4.11
3.88
3.68
3.58
3.61
3.72
3.74
3.56
3.13
2.52
1.9
1.4
1.11
0.98
0.91
0.81
0.63
0.39
0.15
-0.06
-0.23
-0.36
-0.46
-0.53
-0.54
-0.49
-0.36
-0.16
0.07
0.33
0.56
0.75
0.87
0.92
0.91
0.84
0.69
0.44
0.12
-0.23
-0.52
-0.67
-0.69
-0.64
-0.65
-0.8
-1.09
-1.41
-1.6
-1.57
-1.35
-1.07
-0.87
-0.84
-0.98
-1.2
-1.4
-1.55
-1.66
-1.75
-1.81
-1.81
-1.71
-1.56
-1.41
-1.34
-1.35
-1.41
-1.37
-1.16
-0.77
-0.31
0.11
0.37
0.46
0.44
0.39
0.35
0.3
0.18
-0.04
-0.31
-0.53
-0.58
-0.38
0.08
0.73
1.48
2.22
2.84
3.22
3.3
3.03
2.49
1.84
1.32
1.12
1.32
1.81
2.37
2.74
2.75
2.38
1.79
1.15
0.61
0.25
0.05
-0.03
0.01
0.19
0.51
0.9
1.2
1.29
1.09
0.69
0.32
0.19
0.4
0.88
1.41
1.72
1.64
1.18
0.47
-0.29
-0.87
-1.15
-1.09
-0.72
-0.17
0.37
0.74
0.82
0.63
0.27
-0.07
-0.26
-0.28
-0.2
-0.2
-0.34
-0.64
-0.97
-1.19
-1.23
-1.09
-0.87
-0.66
-0.51
-0.39
-0.25
-0.07
0.1
0.17
0.07
-0.2
-0.55
-0.83
-0.9
-0.74
-0.4
-0.01
0.29
0.44
0.48
0.48
0.5
0.54
0.55
0.48
0.33
0.18
0.15
0.31
0.62
0.93
1.09
1.0
0.71
0.36
0.11
0.05
0.15
0.28
0.34
0.23
-0.02
-0.37
-0.73
-1.04
-1.23
-1.24
-1.07
-0.79
-0.52
-0.37
-0.39
-0.56
-0.76
-0.88
-0.86
-0.7
-0.49
-0.28
-0.13
-0.0
0.1
0.17
0.15
-0.03
-0.39
-0.89
-1.42
-1.88
-2.17
-2.28
-2.27
-2.23
-2.24
-2.34
-2.53
-2.8
-3.13
-3.53
-4.01
-4.54
-5.06
-5.48
-5.74
-5.83
-5.88
-6.02
-6.43
-7.12
-8.0
-8.88
-9.56
-9.97
-10.21
-10.47
-10.94
-11.65
-12.52
-13.35
-13.89
-13.85
-12.85
-10.5
-6.55
-1.1
5.27
11.62
17.02
20.91
23.33
24.78
25.86
26.87
27.63
27.62
26.38
23.78
20.19
16.33
12.93
10.48
9.03
8.25
7.57
6.47
4.67
2.2
-0.56
-3.09
-4.87
-5.53
-4.96
-3.36
-1.13
1.19
3.13
4.39
4.92
4.87
4.38
3.55
2.3
0.54
-1.65
-3.92
-5.72
-6.57
-6.36
-5.48
-4.65
-4.58
-5.65
-7.74
-10.37
-12.99
-15.12
-16.53
-17.16
-17.02
-16.16
-14.65
-12.61
-10.25
-7.81
-5.58
-3.8
-2.66
-2.28
-2.65
-3.66
-5.06
-6.49
-7.57
-7.99
-7.61
-6.64
-5.59
-5.14
-5.8
-7.53
-9.65
-11.01
-10.49
-7.56
-2.54
3.45
9.03
12.98
14.7
14.26
12.31
9.8
7.62
6.45
6.59
7.92
10.01
12.3
14.23
15.43
15.78
15.43
14.77
14.31
14.55
15.66
17.34
18.88
19.45
18.54
16.26
13.34
10.69
8.96
8.22
8.04
7.81
7.17
6.07
4.68
3.05
0.97
-1.94
-5.86
-10.53
-15.2
-18.94
-21.05
-21.36
-20.22
-18.27
-16.15
-14.28
-12.89
-12.0
-11.58
-11.44
-11.27
-10.68
-9.4
-7.39
-4.89
-2.37
-0.22
1.28
2.15
2.63
3.05
3.75
4.91
6.57
8.49
10.32
11.67
12.24
11.98
11.0
9.54
7.87
6.23
4.87
4.03
3.98
4.81
6.4
8.34
10.07
11.02
10.78
9.31
6.88
4.06
1.49
-0.34
-1.25
-1.43
-1.37
-1.55
-2.21
-3.18
-4.05
-4.37
-3.97
-3.03
-2.04
-1.46
-1.56
-2.24
-3.14
-3.84
-4.1
-3.85
-3.22
-2.33
-1.24
0.05
1.48
2.88
4.0
4.62
4.74
4.64
4.7
5.22
6.16
7.12
7.54
6.99
5.42
3.15
0.68
-1.5
-3.12
-4.16
-4.68
-4.79
-4.54
-3.99
-3.27
-2.53
-1.96
-1.65
-1.57
-1.59
-1.54
-1.31
-0.93
-0.52
-0.22
-0.13
-0.29
-0.63
-1.01
-1.33
-1.52
-1.6
-1.64
-1.66
-1.59
-1.31
-0.7
0.24
1.38
2.46
3.22
3.5
3.33
2.89
2.43
2.12
2.02
2.04
2.07
2.02
1.91
1.81
1.8
1.9
2.07
2.17
2.11
1.84
1.39
0.85
0.34
-0.06
-0.34
-0.57
-0.79
-1.06
-1.32
-1.44
-1.33
-0.96
-0.41
0.15
0.55
0.71
0.64
0.46
0.25
0.06
-0.13
-0.37
-0.63
-0.87
-1.01
-1.07
-1.09
-1.13
-1.23
-1.36
-1.45
-1.44
-1.32
-1.13
-0.93
-0.79
-0.73
-0.75
-0.8
-0.83
-0.79
-0.64
-0.4
-0.1
0.17
0.36
0.45
0.47
0.44
0.42
0.4
0.39
0.43
0.56
0.78
1.06
1.31
1.42
1.33
1.08
0.78
0.52
0.35
0.22
0.08
-0.1
-0.29
-0.4
-0.4
-0.3
-0.18
-0.12
-0.14
-0.17
-0.15
-0.04
0.13
0.29
0.41
0.48
0.53
0.58
0.64
0.66
0.6
0.46
0.3
0.21
0.24
0.46
0.82
1.25
1.64
1.85
1.8
1.49
1.0
0.47
0.06
-0.17
-0.23
-0.23
-0.26
-0.4
-0.65
-0.92
-1.14
-1.23
-1.17
-1.01
-0.8
-0.56
-0.32
-0.08
0.17
0.37
0.47
0.45
0.34
0.21
0.18
0.31
0.59
0.9
1.13
1.18
1.06
0.84
0.62
0.46
0.42
0.46
0.57
0.69
0.75
0.69
0.48
0.14
-0.27
-0.64
-0.88
-0.97
-0.95
-0.88
-0.8
-0.69
-0.52
-0.27
0.0
0.21
0.26
0.14
-0.06
-0.23
-0.23
-0.04
0.27
0.59
0.79
0.88
0.91
0.95
1.05
1.13
1.11
0.92
0.55
0.1
-0.26
-0.4
-0.26
0.13
0.65
1.15
1.51
1.64
1.55
1.28
0.94
0.62
0.39
0.3
0.31
0.34
0.31
0.17
-0.06
-0.32
-0.54
-0.68
-0.73
-0.7
-0.61
-0.47
-0.26
-0.0
0.23
0.35
0.29
0.06
-0.24
-0.47
-0.53
-0.43
-0.24
-0.09
-0.01
0.0
0.06
0.24
0.55
0.91
1.15
1.11
0.74
0.12
-0.54
-1.03
-1.2
-1.06
-0.73
-0.38
-0.17
-0.15
-0.27
-0.42
-0.51
-0.49
-0.35
-0.16
0.06
0.24
0.37
0.47
0.55
0.62
0.7
0.76
0.8
0.82
0.84
0.88
0.95
0.98
0.92
0.71
0.4
0.1
-0.03
0.07
0.37
0.68
0.84
0.71
0.33
-0.14
-0.52
-0.65
-0.52
-0.23
0.09
0.33
0.45
0.43
0.33
0.19
0.04
-0.08
-0.17
-0.26
-0.36
-0.49
-0.61
-0.72
-0.78
-0.81
-0.81
-0.8
-0.77
-0.66
-0.45
-0.13
0.24
0.64
0.99
1.28
1.48
1.56
1.5
1.26
0.88
0.47
0.18
0.12
0.29
0.58
0.82
0.86
0.68
0.35
0.04
-0.13
-0.1
0.08
0.3
0.48
0.56
0.54
0.42
0.25
0.04
-0.17
-0.31
-0.36
-0.3
-0.19
-0.08
0.02
0.13
0.27
0.48
0.72
0.92
1.01
0.95
0.82
0.69
0.62
0.63
0.69
0.77
0.84
0.92
1.02
1.13
1.21
1.23
1.18
1.06
0.9
0.72
0.5
0.21
-0.13
-0.46
-0.68
-0.77
-0.74
-0.65
-0.56
-0.47
-0.28
0.1
0.66
1.28
1.71
1.7
1.12
0.05
-1.25
-2.47
-3.29
-3.55
-3.22
-2.36
-1.1
0.43
2.05
3.59
4.87
5.7
6.01
5.8
5.17
4.3
3.36
2.5
1.82
1.35
1.1
1.01
0.98
0.93
0.76
0.45
-0.01
-0.54
-1.04
-1.41
-1.56
-1.46
-1.17
-0.85
-0.68
-0.8
-1.21
-1.74
-2.16
-2.3
-2.12
-1.77
-1.46
-1.35
-1.49
-1.84
-2.28
-2.78
-3.3
-3.82
-4.28
-4.59
-4.66
-4.47
-4.08
-3.58
-3.02
-2.37
-1.6
-0.72
0.16
0.92
1.5
1.96
2.42
2.98
3.64
4.26
4.61
4.57
4.15
3.51
2.86
2.33
1.94
1.6
1.22
0.78
0.37
0.14
0.19
0.47
0.86
1.12
1.11
0.83
0.45
0.2
0.24
0.59
1.03
1.34
1.36
1.13
0.81
0.58
0.48
0.46
0.38
0.13
-0.25
-0.7
-1.06
-1.24
-1.2
-0.98
-0.69
-0.45
-0.34
-0.39
-0.55
-0.73
-0.83
-0.8
-0.65
-0.42
-0.17
0.04
0.18
0.22
0.13
-0.08
-0.39
-0.69
-0.88
-0.9
-0.75
-0.51
-0.3
-0.21
-0.24
-0.36
-0.45
-0.4
-0.18
0.17
0.52
0.72
0.7
0.48
0.21
0.06
0.14
0.42
0.76
1.0
1.03
0.88
0.63
0.4
0.27
0.26
0.35
0.51
0.71
0.91
1.08
1.19
1.21
1.13
0.97
0.71
0.35
-0.04
-0.39
-0.55
-0.46
-0.11
0.33
0.64
0.63
0.26
-0.38
-1.08
-1.64
-1.94
-2.02
-1.97
-1.94
-2.01
-2.18
-2.41
-2.62
-2.78
-2.91
-3.03
-3.16
-3.33
-3.5
-3.68
-3.91
-4.28
-4.85
-5.62
-6.46
-7.21
-7.74
-8.08
-8.39
-8.91
-9.85
-11.23
-12.89
-14.51
-15.79
-16.55
-16.82
-16.83
-16.9
-17.36
-18.33
-19.77
-21.42
-22.97
-24.15
-24.89
-25.39
-26.01
-27.16
-29.04
-31.6
-34.54
-37.52
-40.37
-43.16
-46.11
-49.43
-53.04
-56.55
-59.41
-61.18
-61.71
-61.12
-59.62
-57.36
-54.5
-51.48
-49.13
-48.48
-50.18
-53.98
-58.79
-63.31
-67.1
-71.24
-78.04
-89.82
-107.26
-128.33
-148.38
-161.62
-163.26
-151.26
-126.95
-94.17
-57.64
-21.08
13.98
48.3
84.4
125.49
174.39
232.25
297.52
365.36
428.13
477.12
505.13
508.85
489.94
454.02
408.21
358.44
307.85
256.83
204.27
149.21
91.92
34.37
-20.06
-67.3
-103.73
-127.32
-138.49
-140.04
-136.05
-130.17
-124.38
-118.67
-111.85
-103.06
-92.64
-82.25
-73.85
-68.55
-66.09
-65.06
-63.85
-61.6
-58.5
-55.59
-53.98
-54.13
-55.41
-56.36
-55.39
-51.66
-45.5
-38.29
-31.82
-27.46
-25.53
-25.38
-25.75
-25.47
-24.06
-21.77
-19.42
-17.84
-17.44
-18.07
-19.08
-19.75
-19.6
-18.56
-16.9
-15.01
-13.15
-11.44
-9.81
-8.14
-6.37
-4.46
-2.44
-0.4
1.51
3.1
4.19
4.66
4.49
3.85
2.98
2.18
1.66
1.55
1.8
2.27
2.78
3.22
3.56
3.87
4.19
4.52
4.78
4.88
4.75
4.39
3.85
3.23
2.59
2.04
1.7
1.68
2.08
2.89
3.95
5.05
5.91
6.32
6.21
5.63
4.78
3.92
3.33
3.19
3.58
4.41
5.49
6.63
7.66
8.49
9.09
9.44
9.51
9.21
8.48
7.27
5.59
3.53
1.23
-1.16
-3.51
-5.72
-7.72
-9.48
-10.87
-11.75
-11.96
-11.47
-10.39
-8.96
-7.48
-6.19
-5.14
-4.26
-3.48
-2.77
-2.24
-2.05
-2.22
-2.61
-2.9
-2.75
-1.99
-0.72
0.78
2.13
3.07
3.48
3.41
2.94
2.14
1.05
-0.28
-1.73
-3.09
-4.11
-4.62
-4.59
-4.15
-3.53
-2.92
-2.43
-1.99
-1.48
-0.73
0.32
1.56
2.8
3.77
4.24
4.15
3.57
2.65
1.55
0.42
-0.63
-1.52
-2.16
-2.49
-2.47
-2.15
-1.64
-1.08
-0.61
-0.27
-0.06
0.11
0.27
0.44
0.6
0.72
0.79
0.84
0.89
0.98
1.12
1.3
1.5
1.69
1.85
1.97
2.01
1.95
1.74
1.38
0.87
0.31
-0.23
-0.64
-0.85
-0.85
-0.71
-0.57
-0.61
-0.94
-1.52
-2.18
-2.63
-2.59
-1.9
-0.6
1.09
2.89
4.49
5.73
6.48
6.75
6.59
6.12
5.55
5.07
4.84
4.9
5.15
5.4
5.46
5.19
4.54
3.53
2.24
0.77
-0.72
-2.09
-3.21
-4.02
-4.56
-4.94
-5.28
-5.65
-6.1
-6.6
-7.11
-7.59
-7.98
-8.2
-8.18
-7.87
-7.21
-6.23
-4.97
-3.53
-2.05
-0.71
0.32
0.89
1.0
0.71
0.23
-0.25
-0.57
-0.67
-0.6
-0.47
-0.32
-0.16
0.05
0.36
0.73
1.06
1.23
1.18
0.93
0.61
0.37
0.33
0.55
0.98
1.57
2.16
2.62
2.81
2.64
2.11
1.28
0.27
-0.79
-1.8
-2.66
-3.33
-3.73
-3.85
-3.66
-3.14
-2.27
-1.05
0.49
2.24
3.94
5.15
5.4
4.32
1.84
-1.71
-5.62
-8.9
-10.64
-10.22
-7.56
-3.21
1.89
6.6
10.0
11.59
11.33
9.58
6.9
3.87
1.0
-1.32
-2.84
-3.46
-3.32
-2.72
-2.12
-1.9
-2.22
-2.95
-3.76
-4.31
-4.44
-4.25
-3.96
-3.76
-3.62
-3.29
-2.48
-1.01
1.05
3.45
5.75
7.5
8.29
7.87
6.2
3.58
0.67
-1.69
-2.79
-2.36
-0.67
1.55
3.42
4.36
4.2
3.19
1.77
0.31
-0.99
-2.12
-3.14
-3.97
-4.48
-4.52
-4.08
-3.42
-2.93
-2.98
-3.73
-5.0
-6.44
-7.7
-8.71
-9.66
-10.93
-12.78
-15.19
-17.83
-20.27
-22.16
-23.5
-24.55
-25.77
-27.51
-29.95
-32.97
-36.26
-39.47
-42.38
-45.0
-47.63
-50.67
-54.4
-58.79
-63.48
-67.97
-72.05
-76.03
-80.57
-86.18
-92.74
-99.25
-104.18
-106.23
-104.77
-99.67
-90.7
-76.83
-56.4
-28.2
7.11
46.1
83.26
112.75
130.6
135.92
130.72
118.53
102.71
85.73
69.07
53.92
41.46
32.75
28.04
26.21
24.91
21.3
13.44
1.62
-10.98
-18.92
-16.5
-0.36
28.39
63.68
96.13
116.58
119.61
105.59
80.1
51.2
26.0
8.25
-1.83
-6.08
-6.44
-3.75
1.87
10.02
19.06
26.32
29.3
27.08
21.07
14.47
10.67
11.52
16.57
23.34
28.69
30.19
27.14
20.6
12.64
5.48
0.6
-1.5
-1.29
0.3
2.28
3.95
4.93
5.13
4.56
3.39
1.91
0.6
-0.05
0.22
1.24
2.41
3.01
2.58
1.17
-0.64
-2.08
-2.67
-2.39
-1.62
-0.88
-0.44
-0.27
-0.13
0.17
0.62
1.02
1.13
0.84
0.32
-0.12
-0.1
0.58
1.87
3.48
5.04
6.19
6.77
6.8
6.42
5.85
5.2
4.5
3.69
2.72
1.63
0.5
-0.56
-1.48
-2.25
-2.94
-3.59
-4.16
-4.53
-4.53
-4.05
-3.1
-1.85
-0.55
0.6
1.48
2.11
2.57
2.99
3.36
3.6
3.59
3.28
2.77
2.28
2.12
2.51
3.5
4.92
6.5
7.96
9.2
10.32
11.5
12.94
14.58
16.09
16.9
16.43
14.43
11.16
7.41
4.19
2.34
2.08
2.96
4.23
5.34
6.2
7.1
8.12
8.73
7.77
4.07
-2.86
-12.54
-23.89
-36.03
-48.8
-62.66
-78.06
-94.78
-111.84
-127.92
-142.03
-153.81
-163.16
-169.73
-172.79
-171.74
-167.02
-160.5
-154.86
-152.06
-151.89
-151.41
-145.86
-130.7
-103.37
-64.12
-15.74
37.62
91.48
141.51
183.75
215.18
234.77
244.47
249.26
255.37
267.32
285.34
304.82
318.64
321.05
311.07
293.11
274.47
261.15
254.59
251.17
244.57
229.39
203.78
169.57
130.25
88.46
44.72
-1.7
-50.72
-99.69
-143.24
-175.25
-191.71
-192.69
-182.42
-167.31
-153.08
-142.69
-135.96
-130.8
-125.14
-118.22
-110.71
-103.9
-98.65
-94.86
-91.69
-88.09
-83.33
-77.2
-70.04
-62.37
-54.77
-47.66
-41.25
-35.45
-29.8
-23.67
-16.58
-8.54
-0.28
6.98
12.02
14.13
13.47
10.91
7.58
4.38
1.67
-0.59
-2.63
-4.51
-6.03
-6.85
-6.8
-6.04
-5.11
-4.58
-4.83
-5.83
-7.23
-8.53
-9.36
-9.65
-9.57
-9.34
-9.04
-8.56
-7.66
-6.21
-4.31
-2.3
-0.56
0.71
1.65
2.67
4.16
6.26
8.73
11.04
12.66
13.37
13.41
13.4
14.09
15.95
18.89
22.26
24.9
25.52
23.17
17.58
9.38
-0.11
-9.22
-16.53
-21.28
-23.55
-24.02
-23.57
-22.87
-22.12
-21.16
-19.71
-17.59
-14.98
-12.28
-9.97
-8.36
-7.44
-6.9
-6.33
-5.46
-4.32
-3.28
-2.77
-2.98
-3.69
-4.31
-4.26
-3.31
-1.73
-0.18
0.68
0.58
-0.22
-1.09
-1.45
-0.98
0.14
1.48
2.61
3.29
3.61
3.79
4.06
4.58
5.33
6.21
7.05
7.62
7.72
7.22
6.18
4.8
3.41
2.28
1.57
1.28
1.25
1.29
1.15
0.58
-0.66
-2.77
-5.74
-9.3
-12.87
-15.74
-17.22
-16.95
-14.95
-11.72
-7.98
-4.52
-1.94
-0.49
-0.07
-0.34
-0.88
-1.39
-1.74
-1.94
-2.05
-2.12
-2.1
-1.94
-1.6
-1.13
-0.67
-0.36
-0.35
-0.65
-1.21
-1.83
-2.31
-2.51
-2.44
-2.2
-1.97
-1.88
-1.92
-1.98
-1.89
-1.56
-1.02
-0.42
0.08
0.37
0.45
0.37
0.18
-0.09
-0.45
-0.86
-1.26
-1.52
-1.58
-1.48
-1.35
-1.32
-1.44
-1.62
-1.66
-1.38
-0.72
0.25
1.33
2.34
3.16
3.73
4.04
4.11
3.96
3.65
3.35
3.26
3.6
4.4
5.49
6.54
7.21
7.26
6.64
5.5
4.05
2.48
0.89
-0.68
-2.16
-3.47
-4.47
-5.05
-5.2
-5.01
-4.68
-4.41
-4.31
-4.4
-4.54
-4.6
-4.44
-4.05
-3.5
-2.92
-2.46
-2.18
-2.05
-2.0
-1.96
-1.83
-1.57
-1.18
-0.7
-0.22
0.16
0.31
0.21
-0.1
-0.49
-0.81
-0.94
-0.88
-0.68
-0.44
-0.19
0.13
0.58
1.22
1.95
2.62
3.01
3.05
2.76
2.33
1.96
1.79
1.81
1.9
1.9
1.69
1.26
0.71
0.18
-0.18
-0.3
-0.19
0.05
0.3
0.42
0.38
0.21
-0.04
-0.28
-0.5
-0.7
-0.9
-1.08
-1.2
-1.18
-1.0
-0.65
-0.24
0.09
0.17
-0.12
-0.75
-1.6
-2.4
-2.88
-2.84
-2.24
-1.24
-0.12
0.85
1.47
1.7
1.61
1.32
1.0
0.76
0.67
0.75
0.96
1.2
1.41
1.53
1.57
1.59
1.63
1.72
1.84
1.94
1.96
1.85
1.58
1.18
0.7
0.27
0.02
0.01
0.22
0.52
0.76
0.78
0.54
0.07
-0.49
-0.97
-1.24
-1.25
-1.03
-0.77
-0.62
-0.72
-1.04
-1.45
-1.81
-2.05
-2.22
-2.41
-2.66
-2.85
-2.8
-2.33
-1.47
-0.43
0.49
1.06
1.3
1.42
1.68
2.18
2.81
3.28
3.33
2.88
2.07
1.18
0.51
0.18
0.17
0.35
0.54
0.65
0.59
0.37
0.04
-0.34
-0.68
-0.93
-1.05
-1.11
-1.17
-1.34
-1.64
-2.03
-2.41
-2.67
-2.74
-2.57
-2.18
-1.58
-0.84
-0.04
0.71
1.26
1.55
1.58
1.43
1.22
1.07
1.05
1.15
1.3
1.42
1.47
1.49
1.52
1.61
1.75
1.85
1.76
1.37
0.65
-0.32
-1.35
-2.23
-2.81
-3.05
-3.04
-2.94
-2.88
-2.93
-3.1
-3.36
-3.64
-3.85
-3.92
-3.77
-3.39
-2.8
-2.11
-1.42
-0.85
-0.44
-0.15
0.11
0.48
1.03
1.77
2.63
3.48
4.24
4.91
5.56
6.3
7.22
8.26
9.19
9.73
9.55
8.5
6.64
4.28
1.92
0.14
-0.68
-0.42
0.64
1.87
2.54
2.12
0.52
-1.81
-4.05
-5.36
-5.3
-4.05
-2.34
-1.12
-1.09
-2.36
-4.48
-6.65
-8.18
-8.76
-8.55
-7.92
-7.24
-6.69
-6.23
-5.7
-4.95
-3.83
-2.22
0.02
2.96
6.55
10.54
14.52
18.0
20.53
21.79
21.55
19.71
16.37
11.93
7.06
2.57
-0.87
-2.97
-3.93
-4.31
-4.71
-5.51
-6.77
-8.25
-9.59
-10.47
-10.72
-10.31
-9.35
-8.04
-6.6
-5.21
-3.9
-2.58
-1.11
0.55
2.23
3.65
4.56
4.88
4.83
4.74
4.87
5.24
5.6
5.61
5.05
3.98
2.7
1.62
1.05
1.07
1.54
2.17
2.7
3.0
3.11
3.19
3.41
3.83
4.34
4.71
4.66
4.03
2.81
1.15
-0.67
-2.34
-3.62
-4.39
-4.69
-4.7
-4.67
-4.77
-5.06
-5.4
-5.61
-5.54
-5.23
-4.88
-4.72
-4.89
-5.32
-5.75
-5.85
-5.46
-4.61
-3.54
-2.57
-1.92
-1.65
-1.63
-1.61
-1.36
-0.77
0.14
1.23
2.3
3.18
3.75
3.94
3.78
3.33
2.72
2.12
1.69
1.49
1.53
1.72
1.98
2.24
2.53
2.82
3.1
3.24
3.13
2.72
2.13
1.58
1.29
1.4
1.8
2.22
2.33
1.91
0.95
-0.3
-1.44
-2.04
-1.85
-0.9
0.5
1.95
3.04
3.58
3.59
3.24
2.74
2.26
1.79
1.3
0.71
-0.01
-0.81
-1.6
-2.33
-2.97
-3.5
-3.92
-4.19
-4.27
-4.13
-3.8
-3.35
-2.92
-2.61
-2.51
-2.64
-2.96
-3.38
-3.78
-3.98
-3.88
-3.44
-2.76
-2.04
-1.55
-1.44
-1.73
-2.29
-2.95
-3.61
-4.31
-5.15
-6.24
-7.6
-9.15
-10.75
-12.35
-14.0
-15.82
-17.98
-20.63
-23.84
-27.56
-31.65
-35.78
-39.58
-42.78
-45.36
-47.66
-50.27
-53.78
-58.43
-63.92
-69.48
-74.22
-77.59
-79.63
-81.0
-82.62
-85.44
-90.08
-96.49
-103.6
-109.14
-109.63
-101.07
-80.13
-45.66
0.14
51.87
102.23
144.22
173.13
187.51
188.85
180.34
165.56
147.62
129.04
111.84
97.58
87.16
80.54
76.76
74.22
71.43
67.52
62.5
56.96
51.63
47.07
43.43
40.52
37.91
35.16
31.93
28.16
24.18
20.74
18.72
18.68
20.45
22.99
24.7
24.1
20.6
14.73
7.99
2.21
-1.15
-1.36
1.69
7.62
15.56
23.85
29.87
30.53
23.47
8.36
-12.32
-33.93
-51.45
-61.55
-63.78
-60.29
-54.4
-48.79
-44.56
-41.35
-38.29
-34.97
-31.71
-29.27
-28.15
-28.21
-28.68
-28.63
-27.37
-24.88
-21.77
-19.02
-17.48
-17.52
-18.81
-20.45
-21.47
-21.25
-19.82
-17.86
-16.31
-15.94
-17.04
-19.36
-22.28
-25.13
-27.5
-29.35
-30.98
-32.85
-35.37
-38.77
-43.03
-47.9
-53.02
-58.08
-62.91
-67.53
-72.12
-76.9
-82.14
-88.04
-94.74
-102.2
-110.1
-117.82
-124.65
-130.15
-134.72
-139.77
-147.4
-159.33
-175.69
-194.09
-209.91
-217.81
-213.69
-196.44
-168.11
-132.77
-94.55
-56.19
-18.84
17.04
50.89
81.85
109.5
134.52
158.58
183.07
207.7
229.88
245.7
251.9
247.77
235.59
219.49
203.42
189.53
177.82
167.01
155.95
144.34
132.7
121.66
111.51
102.02
92.79
83.72
75.16
67.8
62.25
58.66
56.6
55.24
53.67
51.23
47.71
43.3
38.44
33.54
28.74
23.84
18.3
11.5
3.11
-6.51
-16.28
-24.65
-30.24
-32.42
-31.59
-28.93
-25.84
-23.3
-21.64
-20.61
-19.73
-18.67
-17.32
-15.7
-13.79
-11.49
-8.81
-6.0
-3.56
-2.01
-1.59
-2.04
-2.79
-3.21
-3.0
-2.28
-1.45
-0.88
-0.64
-0.58
-0.49
-0.27
-0.03
0.07
0.0
-0.07
0.15
0.85
1.99
3.29
4.37
4.96
5.02
4.75
4.47
4.41
4.69
5.28
6.04
6.84
7.57
8.18
8.68
9.07
9.41
9.75
10.13
10.62
11.26
12.04
12.98
14.04
15.19
16.41
17.7
19.12
20.66
22.31
24.01
25.69
27.26
28.73
30.17
31.68
33.35
35.21
37.27
39.61
42.42
46.02
50.7
56.49
63.09
69.89
76.29
81.97
87.02
91.95
97.39
103.79
111.33
120.07
129.98
140.95
152.31
162.49
169.05
169.14
160.48
142.2
115.02
80.67
41.09
-2.15
-47.51
-92.76
-134.51
-168.53
-191.16
-200.79
-198.74
-188.77
-175.52
-162.75
-152.22
-143.84
-136.48
-129.19
-121.69
-114.38
-107.71
-101.8
-96.29
-90.54
-84.11
-76.95
-69.5
-62.47
-56.45
-51.72
-48.07
-45.0
-41.92
-38.44
-34.55
-30.54
-26.86
-23.9
-21.79
-20.37
-19.3
-18.22
-16.93
-15.45
-14.0
-12.88
-12.29
-12.28
-12.67
-13.18
-13.57
-13.75
-13.85
-14.17
-15.03
-16.57
-18.66
-20.97
-23.07
-24.71
-25.93
-27.06
-28.58
-30.87
-34.05
-37.87
-41.85
-45.49
-48.63
-51.68
-55.59
-61.61
-70.66
-82.67
-96.14
-108.25
-115.62
-115.25
-105.36
-85.87
-58.29
-25.43
8.93
40.45
64.87
78.96
81.64
74.77
62.83
51.56
45.78
47.59
55.76
66.77
76.8
83.53
86.79
87.96
88.58
89.39
90.11
90.08
89.07
87.58
86.37
85.75
85.15
83.41
79.64
74.1
68.29
64.27
63.53
66.16
70.86
75.87
80.02
83.24
86.36
90.29
95.29
100.84
105.77
108.57
107.37
99.86
83.73
57.68
22.7
-17.29
-56.11
-87.36
-106.86
-114.11
-112.0
-105.04
-97.12
-90.12
-84.07
-78.16
-71.99
-65.92
-60.74
-56.96
-54.29
-51.74
-48.24
-43.25
-37.08
-30.82
-25.84
-23.14
-22.92
-24.48
-26.58
-28.01
-28.1
-26.94
-25.2
-23.66
-22.81
-22.59
-22.58
-22.32
-21.57
-20.47
-19.4
-18.78
-18.75
-19.13
-19.4
-18.95
-17.28
-14.25
-10.2
-5.85
-2.0
0.73
2.2
2.7
2.8
2.97
3.36
3.79
3.93
3.56
2.76
1.84
1.18
0.97
1.12
1.31
1.22
0.76
0.1
-0.42
-0.54
-0.24
0.23
0.52
0.4
-0.12
-0.81
-1.37
-1.62
-1.56
-1.35
-1.17
-1.17
-1.34
-1.61
-1.83
-1.85
-1.61
-1.06
-0.31
0.52
1.23
1.69
1.85
1.71
1.35
0.84
0.25
-0.31
-0.68
-0.68
-0.18
0.81
2.08
3.33
4.23
4.62
4.5
4.04
3.47
3.0
2.7
2.54
2.41
2.17
1.76
1.18
0.54
-0.04
-0.44
-0.61
-0.58
-0.41
-0.18
0.09
0.42
0.83
1.27
1.66
1.9
1.89
1.66
1.28
0.91
0.66
0.62
0.72
0.84
0.83
0.55
0.02
-0.67
-1.3
-1.65
-1.57
-1.09
-0.36
0.34
0.77
0.81
0.49
0.0
-0.43
-0.65
-0.6
-0.35
-0.01
0.28
0.46
0.51
0.48
0.41
0.31
0.18
0.02
-0.17
-0.36
-0.49
-0.51
-0.38
-0.15
0.1
0.29
0.34
0.29
0.17
0.04
-0.05
-0.11
-0.16
-0.21
-0.24
-0.22
-0.16
-0.1
-0.09
-0.21
-0.51
-0.97
-1.49
-1.93
-2.17
-2.13
-1.83
-1.38
-0.91
-0.56
-0.39
-0.39
-0.48
-0.57
-0.63
-0.66
-0.69
-0.73
-0.77
-0.77
-0.7
-0.56
-0.39
-0.22
-0.05
0.13
0.36
0.64
0.96
1.27
1.53
1.69
1.76
1.74
1.66
1.55
1.45
1.4
1.39
1.4
1.4
1.33
1.21
1.07
0.98
1.0
1.14
1.33
1.48
1.48
1.28
0.91
0.45
0.01
-0.33
-0.54
-0.63
-0.64
-0.59
-0.51
-0.46
-0.47
-0.57
-0.77
-1.04
-1.32
-1.58
-1.8
-1.97
-2.11
-2.19
-2.2
-2.09
-1.85
-1.53
-1.22
-1.0
-0.93
-0.99
-1.14
-1.27
-1.31
-1.23
-1.04
-0.78
-0.47
-0.11
0.27
0.65
0.97
1.2
1.38
1.58
1.85
2.19
2.49
2.61
2.47
2.07
1.57
1.11
0.82
0.68
0.62
0.57
0.5
0.46
0.49
0.61
0.79
0.95
1.07
1.09
1.06
1.01
0.95
0.91
0.86
0.74
0.56
0.32
0.09
-0.07
-0.12
-0.09
-0.05
-0.08
-0.24
-0.49
-0.75
-0.94
-1.04
-1.07
-1.06
-1.01
-0.88
-0.64
-0.31
0.0
0.22
0.26
0.17
0.04
-0.05
-0.04
0.04
0.12
0.17
0.23
0.35
0.58
0.89
1.16
1.29
1.2
0.95
0.64
0.39
0.25
0.22
0.23
0.25
0.22
0.18
0.14
0.14
0.19
0.27
0.38
0.44
0.44
0.32
0.09
-0.21
-0.48
-0.65
-0.68
-0.55
-0.31
0.01
0.38
0.77
1.13
1.41
1.55
1.52
1.36
1.12
0.87
0.67
0.49
0.3
0.07
-0.18
-0.4
-0.49
-0.42
-0.23
-0.04
0.02
-0.11
-0.38
-0.64
-0.78
-0.71
-0.49
-0.23
-0.04
0.03
0.01
-0.03
-0.02
0.07
0.21
0.35
0.45
0.49
0.45
0.35
0.19
-0.01
-0.22
-0.42
-0.59
-0.75
-0.89
-0.98
-1.01
-0.94
-0.78
-0.55
-0.31
-0.1
0.06
0.2
0.36
0.59
0.91
1.29
1.67
1.98
2.15
2.15
2.0
1.76
1.5
1.27
1.1
0.95
0.81
0.64
0.44
0.2
-0.07
-0.36
-0.66
-0.95
-1.19
-1.36
-1.43
-1.41
-1.33
-1.21
-1.1
-1.01
-0.97
-0.99
-1.06
-1.13
-1.15
-1.03
-0.74
-0.3
0.22
0.69
0.99
1.09
1.02
0.87
0.72
0.62
0.56
0.51
0.44
0.34
0.24
0.16
0.08
0.01
-0.07
-0.1
-0.03
0.19
0.51
0.82
0.99
0.94
0.74
0.54
0.49
0.6
0.79
0.88
0.75
0.43
0.07
-0.2
-0.27
-0.2
-0.11
-0.11
-0.2
-0.33
-0.42
-0.46
-0.49
-0.56
-0.7
-0.84
-0.92
-0.9
-0.77
-0.58
-0.39
-0.22
-0.05
0.1
0.23
0.28
0.22
0.05
-0.18
-0.4
-0.58
-0.7
-0.79
-0.84
-0.84
-0.72
-0.46
-0.05
0.42
0.8
0.98
0.94
0.71
0.43
0.25
0.26
0.48
0.82
1.12
1.27
1.22
1.02
0.8
0.68
0.74
0.94
1.21
1.43
1.53
1.47
1.28
0.98
0.64
0.28
-0.07
-0.37
-0.58
-0.66
-0.59
-0.41
-0.18
0.01
0.08
-0.02
-0.3
-0.69
-1.12
-1.47
-1.66
-1.65
-1.43
-1.05
-0.63
-0.26
-0.06
-0.04
-0.15
-0.3
-0.37
-0.31
-0.1
0.17
0.44
0.6
0.65
0.6
0.49
0.39
0.31
0.28
0.3
0.35
0.44
0.54
0.64
0.69
0.7
0.68
0.66
0.66
0.64
0.56
0.36
0.09
-0.17
-0.29
-0.2
0.07
0.39
0.59
0.6
0.44
0.23
0.11
0.12
0.21
0.28
0.24
0.08
-0.13
-0.28
-0.32
-0.25
-0.12
-0.01
0.04
0.07
0.12
0.21
0.32
0.41
0.45
0.49
0.61
0.91
1.45
2.24
3.23
4.33
5.42
6.34
6.95
7.11
6.81
6.14
5.3
4.54
4.07
4.01
4.36
5.02
5.83
6.61
7.2
7.5
7.45
7.12
6.61
6.03
5.42
4.72
3.82
2.67
1.32
-0.03
-1.14
-1.86
-2.19
-2.32
-2.49
-2.9
-3.56
-4.35
-5.09
-5.64
-5.92
-5.98
-5.89
-5.73
-5.57
-5.5
-5.58
-5.89
-6.46
-7.21
-7.99
-8.56
-8.71
-8.3
-7.34
-6.0
-4.51
-3.12
-1.99
-1.17
-0.62
-0.23
0.09
0.4
0.69
0.89
0.98
0.95
0.86
0.78
0.73
0.73
0.76
0.78
0.8
0.85
0.95
1.12
1.33
1.52
1.64
1.7
1.7
1.66
1.58
1.45
1.31
1.24
1.35
1.73
2.34
3.07
3.68
3.97
3.87
3.45
2.92
2.53
2.51
2.96
3.84
4.96
5.95
6.34
5.74
3.96
1.13
-2.28
-5.64
-8.34
-10.02
-10.61
-10.28
-9.38
-8.23
-7.13
-6.25
-5.65
-5.27
-4.98
-4.68
-4.31
-3.87
-3.42
-2.94
-2.41
-1.76
-1.04
-0.37
0.05
0.09
-0.23
-0.76
-1.32
-1.75
-1.99
-2.07
-2.05
-1.95
-1.8
-1.6
-1.35
-1.05
-0.68
-0.21
0.37
1.01
1.64
2.16
2.53
2.75
2.9
3.03
3.14
3.17
3.02
2.62
1.99
1.23
0.56
0.18
0.21
0.57
1.04
1.29
1.08
0.32
-0.85
-2.13
-3.17
-3.73
-3.79
-3.61
-3.62
-4.22
-5.55
-7.36
-9.06
-9.92
-9.47
-7.74
-5.23
-2.8
-1.18
-0.83
-1.88
-4.15
-7.26
-10.39
-12.28
-11.46
-6.86
1.48
12.12
22.61
30.47
34.22
33.95
31.0
27.15
23.69
20.97
18.58
15.98
13.0
9.99
7.57
6.19
5.79
5.87
5.66
4.52
2.26
-0.73
-3.63
-5.56
-6.03
-5.14
-3.56
-2.19
-1.77
-2.51
-4.1
-5.91
-7.33
-8.04
-8.06
-7.72
-7.37
-7.22
-7.22
-7.13
-6.73
-5.94
-4.96
-4.11
-3.68
-3.76
-4.16
-4.51
-4.47
-3.9
-2.91
-1.79
-0.87
-0.34
-0.25
-0.49
-0.93
-1.44
-1.91
-2.25
-2.37
-2.23
-1.84
-1.32
-0.82
-0.48
-0.35
-0.35
-0.38
-0.35
-0.27
-0.19
-0.2
-0.33
-0.53
-0.7
-0.77
-0.73
-0.62
-0.53
-0.52
-0.6
-0.73
-0.83
-0.84
-0.72
-0.52
-0.3
-0.15
-0.13
-0.24
-0.43
-0.61
-0.68
-0.61
-0.39
-0.09
0.23
0.48
0.6
0.56
0.39
0.15
-0.08
-0.21
-0.25
-0.21
-0.17
-0.19
-0.3
-0.48
-0.65
-0.75
-0.7
-0.51
-0.18
0.24
0.67
1.05
1.32
1.45
1.42
1.3
1.15
1.05
1.09
1.26
1.5
1.72
1.82
1.75
1.54
1.24
0.93
0.63
0.32
-0.01
-0.32
-0.54
-0.56
-0.37
-0.01
0.36
0.6
0.62
0.43
0.14
-0.13
-0.28
-0.28
-0.13
0.12
0.42
0.69
0.85
0.79
0.46
-0.09
-0.72
-1.2
-1.37
-1.18
-0.71
-0.14
0.34
0.63
0.72
0.67
0.59
0.49
0.37
0.2
-0.05
-0.34
-0.64
-0.86
-0.97
-0.97
-0.89
-0.78
-0.7
-0.67
-0.65
-0.6
-0.48
-0.3
-0.1
0.09
0.24
0.37
0.49
0.62
0.73
0.75
0.64
0.43
0.17
-0.01
-0.08
-0.07
-0.03
-0.02
-0.01
0.07
0.29
0.59
0.85
0.94
0.78
0.48
0.24
0.24
0.53
0.99
1.4
1.55
1.4
1.03
0.64
0.4
0.36
0.51
0.75
0.95
1.03
0.96
0.76
0.5
0.25
0.08
-0.03
-0.11
-0.23
-0.4
-0.6
-0.75
-0.78
-0.67
-0.49
-0.37
-0.42
-0.68
-1.05
-1.35
-1.39
-1.08
-0.51
0.13
0.64
0.91
0.95
0.88
0.81
0.76
0.69
0.54
0.29
-0.0
-0.22
-0.26
-0.07
0.29
0.72
1.09
1.32
1.39
1.31
1.18
1.09
1.13
1.28
1.49
1.62
1.57
1.31
0.9
0.48
0.17
0.04
0.09
0.2
0.3
0.34
0.32
0.29
0.3
0.31
0.25
0.01
-0.44
-1.03
-1.66
-2.21
-2.61
-2.89
-3.1
-3.33
-3.6
-3.94
-4.3
-4.64
-4.88
-4.93
-4.71
-4.23
-3.54
-2.8
-2.2
-1.86
-1.8
-1.93
-2.12
-2.27
-2.31
-2.25
-2.06
-1.7
-1.18
-0.57
-0.05
0.16
-0.11
-0.87
-1.92
-2.91
-3.52
-3.55
-3.03
-2.13
-1.11
-0.18
0.54
0.99
1.17
1.09
0.79
0.33
-0.17
-0.62
-0.97
-1.15
-1.14
-0.95
-0.58
-0.1
0.39
0.79
1.09
1.36
1.78
2.53
3.71
5.22
6.82
8.18
9.03
9.26
8.89
8.07
6.97
5.75
4.56
3.56
2.92
2.77
3.15
3.95
4.93
5.78
6.22
6.14
5.6
4.8
3.94
3.09
2.19
1.09
-0.28
-1.86
-3.39
-4.54
-5.06
-4.91
-4.25
-3.42
-2.76
-2.48
-2.62
-3.03
-3.53
-3.91
-4.07
-3.97
-3.68
-3.29
-2.9
-2.6
-2.39
-2.26
-2.15
-2.0
-1.8
-1.58
-1.41
-1.35
-1.44
-1.72
-2.16
-2.75
-3.39
-3.97
-4.33
-4.34
-3.97
-3.37
-2.82
-2.63
-2.95
-3.72
-4.66
-5.47
-6.0
-6.33
-6.64
-7.04
-7.47
-7.65
-7.27
-6.16
-4.43
-2.5
-0.97
-0.37
-1.07
-3.03
-5.85
-8.79
-11.05
-11.94
-11.22
-9.13
-6.29
-3.43
-1.07
0.68
2.08
3.53
5.33
7.44
9.48
10.84
10.83
8.82
4.42
-2.24
-10.22
-17.76
-22.68
-23.13
-18.47
-9.65
1.1
11.17
18.61
22.77
24.23
24.16
23.56
22.85
21.93
20.62
18.9
17.05
15.38
14.05
12.93
11.74
10.23
8.35
6.31
4.48
3.23
2.79
3.15
4.0
4.85
5.22
4.76
3.51
1.8
0.15
-0.94
-1.26
-0.94
-0.32
0.17
0.29
0.05
-0.35
-0.67
-0.74
-0.56
-0.23
0.09
0.33
0.43
0.4
0.27
0.07
-0.13
-0.3
-0.42
-0.52
-0.69
-0.99
-1.45
-1.97
-2.43
-2.68
-2.68
-2.47
-2.2
-2.01
-2.0
-2.16
-2.38
-2.55
-2.6
-2.5
-2.29
-2.03
-1.7
-1.29
-0.75
-0.1
0.52
0.96
1.11
0.96
0.66
0.43
0.47
0.8
1.29
1.7
1.83
1.58
1.02
0.33
-0.33
-0.84
-1.2
-1.43
-1.58
-1.65
-1.59
-1.38
-1.0
-0.55
-0.12
0.15
0.25
0.22
0.2
0.28
0.49
0.78
1.05
1.27
1.47
1.76
2.2
2.74
3.2
3.37
3.11
2.44
1.56
0.7
0.07
-0.29
-0.49
-0.68
-0.91
-1.11
-1.12
-0.84
-0.31
0.28
0.7
0.82
0.72
0.58
0.61
0.82
1.04
1.05
0.72
0.14
-0.49
-0.94
-1.18
-1.28
-1.39
-1.58
-1.76
-1.76
-1.42
-0.72
0.22
1.23
2.17
2.98
3.65
4.12
4.34
4.18
3.61
2.65
1.48
0.33
-0.55
-0.96
-0.82
-0.2
0.7
1.61
2.28
2.57
2.47
2.09
1.51
0.82
0.05
-0.76
-1.47
-1.92
-1.95
-1.53
-0.82
-0.05
0.56
0.9
0.96
0.76
0.31
-0.41
-1.4
-2.56
-3.67
-4.51
-4.89
-4.77
-4.25
-3.43
-2.46
-1.46
-0.58
0.01
0.15
-0.2
-0.89
-1.6
-1.99
-1.9
-1.4
-0.8
-0.42
-0.44
-0.75
-1.09
-1.22
-1.08
-0.81
-0.59
-0.51
-0.5
-0.38
-0.03
0.5
1.02
1.3
1.24
0.89
0.44
0.05
-0.18
-0.24
-0.21
-0.13
-0.03
0.07
0.19
0.29
0.38
0.44
0.5
0.54
0.56
0.52
0.4
0.22
0.04
-0.05
-0.01
0.17
0.44
0.72
0.95
1.14
1.31
1.47
1.58
1.55
1.34
0.95
0.45
-0.01
-0.34
-0.48
-0.46
-0.34
-0.18
0.01
0.21
0.38
0.42
0.29
0.01
-0.29
-0.45
-0.35
0.01
0.46
0.79
0.83
0.58
0.18
-0.17
-0.31
-0.24
-0.05
0.09
0.06
-0.13
-0.34
-0.46
-0.39
-0.18
0.07
0.24
0.25
0.13
-0.03
-0.11
-0.03
0.19
0.49
0.76
0.89
0.86
0.7
0.49
0.28
0.16
0.12
0.11
0.08
-0.01
-0.12
-0.2
-0.2
-0.13
-0.05
-0.03
-0.1
-0.26
-0.45
-0.6
-0.69
-0.74
-0.78
-0.82
-0.84
-0.77
-0.58
-0.22
0.28
0.85
1.41
1.87
2.13
2.11
1.83
1.37
0.9
0.58
0.5
0.59
0.72
0.75
0.62
0.36
0.11
-0.05
-0.08
-0.02
0.06
0.15
0.25
0.4
0.58
0.75
0.85
0.83
0.67
0.4
0.06
-0.32
-0.7
-1.03
-1.21
-1.22
-1.06
-0.81
-0.63
-0.6
-0.73
-0.92
-1.06
-1.09
-1.01
-0.9
-0.8
-0.75
-0.67
-0.53
-0.33
-0.12
-0.0
-0.03
-0.16
-0.29
-0.31
-0.15
0.17
0.56
0.87
0.98
0.83
0.43
-0.08
-0.52
-0.73
-0.64
-0.3
0.16
0.58
0.89
1.06
1.11
1.1
1.05
0.96
0.82
0.65
0.5
0.41
0.41
0.48
0.56
0.58
0.48
0.23
-0.12
-0.47
-0.72
-0.83
-0.79
-0.67
-0.52
-0.39
-0.28
-0.14
0.03
0.22
0.36
0.4
0.33
0.2
0.04
-0.09
-0.21
-0.35
-0.53
-0.7
-0.8
-0.78
-0.64
-0.44
-0.26
-0.15
-0.06
0.13
0.51
1.06
1.65
2.11
2.27
2.12
1.77
1.39
1.15
1.11
1.25
1.47
1.64
1.68
1.54
1.27
0.91
0.54
0.21
-0.06
-0.27
-0.45
-0.61
-0.74
-0.84
-0.9
-0.9
-0.86
-0.77
-0.67
-0.58
-0.55
-0.62
-0.79
-1.0
-1.14
-1.1
-0.76
-0.11
0.74
1.59
2.19
2.34
1.97
1.18
0.21
-0.68
-1.3
-1.57
-1.52
-1.26
-0.89
-0.48
-0.1
0.21
0.39
0.42
0.33
0.22
0.18
0.27
0.47
0.68
0.79
0.72
0.46
0.07
-0.34
-0.68
-0.87
-0.88
-0.72
-0.38
0.09
0.62
1.1
1.37
1.31
0.88
0.14
-0.74
-1.56
-2.15
-2.42
-2.4
-2.17
-1.83
-1.46
-1.08
-0.7
-0.32
0.01
0.29
0.51
0.73
0.99
1.31
1.66
1.97
2.15
2.17
2.07
1.91
1.76
1.61
1.46
1.28
1.09
0.96
0.93
1.0
1.07
1.03
0.8
0.39
-0.08
-0.46
-0.64
-0.6
-0.41
-0.18
0.01
0.12
0.14
0.09
-0.03
-0.19
-0.34
-0.38
-0.25
0.06
0.44
0.75
0.86
0.74
0.44
0.07
-0.23
-0.42
-0.5
-0.53
-0.55
-0.59
-0.63
-0.63
-0.59
-0.53
-0.5
-0.56
-0.7
-0.89
-1.04
-1.09
-1.0
-0.78
-0.49
-0.2
0.05
0.22
0.32
0.37
0.4
0.44
0.52
0.63
0.75
0.82
0.81
0.7
0.53
0.33
0.14
-0.04
-0.17
-0.26
-0.28
-0.24
-0.13
0.01
0.15
0.26
0.31
0.31
0.25
0.16
0.04
-0.08
-0.17
-0.22
-0.26
-0.33
-0.48
-0.76
-1.13
-1.52
-1.84
-2.04
-2.08
-1.96
-1.68
-1.29
-0.85
-0.46
-0.26
-0.37
-0.77
-1.3
-1.7
-1.71
-1.26
-0.5
0.19
0.43
0.02
-0.95
-2.13
-3.08
-3.39
-2.84
-1.38
0.82
3.4
5.85
7.64
8.37
7.99
6.79
5.35
4.19
3.57
3.26
2.72
1.39
-1.0
-4.18
-7.4
-9.64
-10.07
-8.36
-4.87
-0.6
3.13
5.23
5.21
3.39
0.78
-1.34
-2.0
-0.83
1.85
5.26
8.52
10.99
12.33
12.45
11.36
9.14
6.03
2.58
-0.41
-2.05
-1.74
0.52
4.15
8.11
11.43
13.42
13.95
13.28
11.97
10.61
9.78
9.88
11.11
13.28
15.78
17.56
17.38
14.24
7.86
-1.0
-10.59
-18.66
-23.27
-23.61
-20.33
-15.25
-10.47
-7.45
-6.44
-6.66
-6.94
-6.55
-5.5
-4.35
-3.57
-3.18
-2.62
-1.21
1.37
4.81
8.34
11.18
12.84
13.32
12.86
11.75
10.14
8.13
5.86
3.61
1.65
0.13
-1.1
-2.33
-3.85
-5.66
-7.51
-8.97
-9.75
-9.88
-9.75
-10.01
-11.26
-13.8
-17.41
-21.39
-24.77
-26.67
-26.73
-25.37
-23.69
-23.1
-24.67
-28.53
-33.57
-37.85
-39.39
-37.17
-31.78
-25.38
-20.9
-21.06
-27.27
-39.1
-54.18
-68.43
-76.58
-73.0
-53.27
-16.18
34.56
90.04
138.26
168.0
172.88
153.71
117.75
75.53
36.67
6.99
-12.1
-22.13
-25.56
-24.43
-20.15
-14.05
-7.85
-3.39
-1.86
-3.17
-5.96
-8.26
-8.44
-5.99
-1.71
2.69
5.42
5.4
2.67
-1.69
-6.08
-9.09
-10.02
-9.08
-7.18
-5.46
-4.77
-5.29
-6.51
-7.53
-7.46
-5.87
-2.97
0.47
3.42
5.09
5.28
4.52
3.81
4.18
6.18
9.65
13.75
17.43
19.89
20.91
20.89
20.53
20.46
20.87
21.51
21.86
21.51
20.22
18.07
15.25
11.91
8.13
3.95
-0.58
-5.24
-9.72
-13.58
-16.46
-18.16
-18.71
-18.35
-17.38
-16.1
-14.68
-13.21
-11.74
-10.35
-9.21
-8.51
-8.39
-8.86
-9.75
-10.67
-11.21
-11.02
-9.96
-8.16
-6.02
-4.03
-2.66
-2.17
-2.53
-3.48
-4.6
-5.49
-5.87
-5.75
-5.34
-5.0
-5.01
-5.46
-6.22
-7.03
-7.64
-7.99
-8.21
-8.55
-9.22
-10.21
-11.37
-12.41
-13.11
-13.43
-13.52
-13.62
-13.96
-14.7
-15.8
-17.19
-18.74
-20.3
-21.69
-22.76
-23.39
-23.63
-23.72
-24.08
-25.15
-27.21
-30.28
-34.11
-38.38
-42.87
-47.66
-53.08
-59.54
-67.31
-76.32
-86.0
-95.47
-103.78
-110.35
-115.22
-119.18
-123.63
-130.29
-140.68
-155.58
-174.49
-195.31
-214.51
-227.96
-232.13
-225.33
-208.26
-183.71
-155.48
-126.91
-99.89
-74.64
-50.07
-24.38
4.21
36.77
72.97
110.52
145.24
172.02
186.64
187.65
177.17
160.09
141.92
126.47
114.45
103.88
91.63
75.1
53.29
26.78
-2.72
-32.8
-60.5
-82.54
-95.88
-98.47
-90.06
-72.18
-47.34
-17.89
15.18
52.74
97.19
151.38
216.81
292.05
371.88
448.03
511.35
554.78
575.56
575.8
561.03
537.52
510.05
481.05
451.29
421.17
391.53
363.32
336.68
310.34
282.02
249.65
212.79
173.06
133.48
97.18
65.85
38.99
14.31
-11.28
-40.61
-75.43
-115.99
-160.65
-205.61
-245.3
-273.76
-286.91
-284.72
-271.79
-255.69
-243.71
-239.52
-241.91
-246.17
-247.29
-242.78
-233.63
-222.9
-213.26
-205.16
-196.86
-185.94
-171.22
-153.65
-135.68
-119.96
-107.94
-99.26
-92.35
-85.37
-77.18
-67.7
-57.66
-48.07
-39.71
-32.97
-27.85
-24.2
-21.73
-19.97
-18.31
-16.09
-13.02
-9.31
-5.72
-3.15
-2.18
-2.72
-4.08
-5.38
-5.97
-5.81
-5.28
-4.86
-4.74
-4.73
-4.47
-3.7
-2.57
-1.59
-1.33
-2.12
-3.83
-5.97
-8.0
-9.5
-10.39
-10.81
-11.03
-11.24
-11.46
-11.6
-11.49
-11.04
-10.28
-9.39
-8.59
-8.04
-7.81
-7.81
-7.94
-8.11
-8.3
-8.51
-8.73
-8.91
-8.95
-8.85
-8.65
-8.46
-8.26
-7.93
-7.18
-5.78
-3.7
-1.15
1.52
4.05
6.35
8.54
10.7
12.73
14.38
15.31
15.39
14.75
13.78
12.89
12.3
12.0
11.76
11.32
10.51
9.27
7.65
5.77
3.83
2.06
0.74
0.03
-0.09
0.21
0.71
1.2
1.64
2.06
2.49
2.84
2.96
2.69
2.0
1.03
0.05
-0.65
-0.95
-0.91
-0.74
-0.63
-0.71
-0.94
-1.23
-1.5
-1.71
-1.9
-2.05
-2.12
-1.99
-1.61
-1.01
-0.35
0.15
0.38
0.36
0.27
0.28
0.45
0.67
0.77
0.64
0.3
-0.09
-0.38
-0.48
-0.48
-0.49
-0.62
-0.87
-1.16
-1.38
-1.49
-1.49
-1.44
-1.38
-1.3
-1.18
-1.03
-0.88
-0.79
-0.77
-0.79
-0.79
-0.69
-0.44
-0.08
0.32
0.61
0.69
0.56
0.23
-0.18
-0.57
-0.87
-1.04
-1.13
-1.17
-1.16
-1.09
-0.95
-0.75
-0.55
-0.42
-0.44
-0.6
-0.82
-0.96
-0.9
-0.63
-0.21
0.25
0.64
0.93
1.13
1.3
1.45
1.53
1.49
1.3
1.02
0.72
0.5
0.37
0.29
0.2
0.07
-0.05
-0.07
0.07
0.35
0.62
0.77
0.7
0.47
0.2
-0.01
-0.06
0.0
0.12
0.23
0.33
0.4
0.45
0.42
0.26
-0.06
-0.51
-0.99
-1.33
-1.42
-1.26
-0.92
-0.59
-0.41
-0.46
-0.67
-0.88
-0.96
-0.85
-0.63
-0.46
-0.46
-0.64
-0.92
-1.15
-1.23
-1.17
-1.07
-1.02
-1.05
-1.11
-1.11
-1.0
-0.81
-0.64
-0.57
-0.66
-0.83
-0.96
-0.93
-0.69
-0.33
0.02
0.22
0.15
-0.18
-0.73
-1.42
-2.17
-2.91
-3.55
-3.94
-3.97
-3.57
-2.83
-1.97
-1.25
-0.89
-0.9
-1.14
-1.37
-1.39
-1.1
-0.51
0.3
1.32
2.56
4.02
5.58
7.02
8.07
8.55
8.49
8.08
7.55
7.07
6.67
6.29
5.9
5.57
5.44
5.56
5.79
5.86
5.42
4.34
2.78
1.15
-0.08
-0.64
-0.57
-0.2
0.08
0.01
-0.43
-1.09
-1.79
-2.37
-2.8
-3.06
-3.14
-3.01
-2.66
-2.16
-1.63
-1.2
-0.94
-0.84
-0.81
-0.75
-0.63
-0.46
-0.29
-0.16
-0.1
-0.15
-0.31
-0.55
-0.82
-1.0
-0.97
-0.75
-0.43
-0.16
-0.08
-0.2
-0.42
-0.56
-0.51
-0.27
0.04
0.28
0.35
0.25
0.03
-0.24
-0.55
-0.89
-1.26
-1.61
-1.86
-1.96
-1.9
-1.7
-1.44
-1.18
-0.91
-0.63
-0.32
0.0
0.27
0.41
0.39
0.23
0.0
-0.23
-0.41
-0.53
-0.6
-0.6
-0.48
-0.19
0.26
0.82
1.35
1.74
1.9
1.84
1.62
1.32
0.99
0.65
0.33
0.03
-0.22
-0.38
-0.47
-0.52
-0.56
-0.62
-0.72
-0.86
-1.0
-1.12
-1.14
-1.02
-0.73
-0.33
0.06
0.29
0.27
0.0
-0.4
-0.82
-1.14
-1.33
-1.36
-1.19
-0.77
-0.06
0.88
1.84
2.52
2.71
2.36
1.66
0.91
0.37
0.16
0.18
0.23
0.18
-0.01
-0.25
-0.4
-0.41
-0.33
-0.26
-0.29
-0.46
-0.7
-0.92
-1.05
-1.0
-0.77
-0.41
-0.0
0.32
0.46
0.39
0.2
0.03
0.02
0.2
0.49
0.72
0.71
0.44
-0.01
-0.47
-0.79
-0.9
-0.82
-0.63
-0.41
-0.2
-0.03
0.08
0.12
0.13
0.18
0.32
0.57
0.87
1.14
1.24
1.12
0.81
0.39
0.0
-0.22
-0.21
0.07
0.55
1.08
1.52
1.71
1.6
1.25
0.76
0.28
-0.12
-0.39
-0.54
-0.55
-0.43
-0.2
0.07
0.26
0.29
0.12
-0.2
-0.56
-0.82
-0.88
-0.74
-0.42
-0.0
0.41
0.7
0.78
0.62
0.28
-0.12
-0.4
-0.46
-0.27
0.04
0.34
0.48
0.44
0.3
0.19
0.19
0.32
0.48
0.59
0.59
0.55
0.54
0.63
0.78
0.87
0.75
0.39
-0.14
-0.67
-1.05
-1.21
-1.25
-1.29
-1.44
-1.68
-1.9
-1.96
-1.74
-1.26
-0.65
-0.09
0.29
0.41
0.35
0.21
0.14
0.18
0.31
0.44
0.49
0.43
0.3
0.17
0.1
0.11
0.15
0.18
0.21
0.23
0.3
0.4
0.51
0.58
0.54
0.41
0.24
0.12
0.11
0.25
0.49
0.78
1.02
1.17
1.17
1.04
0.77
0.42
0.03
-0.33
-0.61
-0.78
-0.88
-0.94
-1.0
-1.04
-1.06
-1.05
-1.02
-1.01
-1.03
-1.06
-1.05
-0.93
-0.66
-0.28
0.18
0.64
1.05
1.38
1.59
1.66
1.58
1.39
1.15
0.95
0.85
0.88
1.01
1.18
1.36
1.51
1.6
1.59
1.43
1.09
0.59
0.08
-0.31
-0.45
-0.34
-0.07
0.17
0.26
0.16
-0.08
-0.33
-0.46
-0.43
-0.3
-0.17
-0.14
-0.21
-0.35
-0.45
-0.41
-0.2
0.11
0.39
0.51
0.36
-0.03
-0.53
-0.95
-1.17
-1.13
-0.94
-0.74
-0.65
-0.66
-0.68
-0.57
-0.27
0.17
0.6
0.9
1.01
1.0
0.97
0.99
1.07
1.11
1.01
0.73
0.33
-0.05
-0.28
-0.26
-0.03
0.31
0.57
0.62
0.38
-0.08
-0.59
-0.96
-1.07
-0.93
-0.64
-0.37
-0.21
-0.21
-0.28
-0.33
-0.3
-0.15
0.05
0.2
0.22
0.05
-0.27
-0.66
-0.96
-1.05
-0.88
-0.47
0.11
0.75
1.34
1.81
2.08
2.07
1.76
1.2
0.53
-0.03
-0.29
-0.18
0.21
0.69
1.01
1.06
0.83
0.45
0.09
-0.11
-0.07
0.22
0.69
1.28
1.89
2.41
2.73
2.82
2.71
2.52
2.36
2.34
2.47
2.69
2.91
3.07
3.16
3.26
3.5
3.95
4.66
5.59
6.57
7.31
7.44
6.62
4.71
1.87
-1.45
-4.67
-7.28
-9.03
-9.9
-10.03
-9.57
-8.63
-7.29
-5.74
-4.24
-3.07
-2.38
-2.11
-2.01
-1.81
-1.37
-0.72
-0.01
0.58
0.98
1.18
1.26
1.25
1.22
1.2
1.23
1.36
1.58
1.81
1.94
1.86
1.52
0.97
0.32
-0.31
-0.79
-1.06
-1.12
-1.02
-0.85
-0.7
-0.64
-0.71
-0.88
-1.09
-1.25
-1.32
-1.3
-1.23
-1.2
-1.26
-1.44
-1.68
-1.91
-2.02
-1.98
-1.83
-1.68
-1.63
-1.72
-1.88
-2.01
-2.01
-1.88
-1.7
-1.59
-1.64
-1.82
-2.06
-2.22
-2.26
-2.17
-2.01
-1.87
-1.83
-1.91
-2.07
-2.25
-2.37
-2.4
-2.4
-2.52
-2.95
-3.81
-5.03
-6.37
-7.44
-7.95
-7.85
-7.43
-7.27
-7.92
-9.7
-12.43
-15.47
-17.99
-19.33
-19.42
-18.81
-18.55
-19.54
-22.19
-26.08
-30.14
-33.18
-34.44
-33.79
-31.63
-28.6
-25.33
-22.55
-21.11
-21.84
-24.75
-28.53
-30.53
-27.66
-17.78
-0.95
20.18
41.22
57.73
67.03
69.07
66.11
61.29
57.12
54.59
53.32
52.33
50.79
48.41
45.34
41.73
37.43
32.15
25.71
18.4
11.08
4.95
0.93
-0.7
-0.3
1.37
3.55
5.54
6.89
7.24
6.46
4.65
2.1
-0.7
-3.25
-5.19
-6.37
-6.85
-6.84
-6.56
-6.16
-5.69
-5.17
-4.7
-4.45
-4.61
-5.18
-5.86
-6.24
-5.91
-4.7
-2.75
-0.48
1.6
2.97
3.35
2.63
0.97
-1.28
-3.66
-5.77
-7.41
-8.63
-9.73
-11.02
-12.73
-14.81
-17.05
-19.18
-21.05
-22.7
-24.39
-26.42
-29.07
-32.43
-36.4
-40.77
-45.21
-49.54
-53.79
-58.29
-63.57
-69.91
-77.09
-84.2
-90.06
-93.86
-95.72
-96.91
-99.23
-104.37
-113.29
-126.12
-142.46
-161.57
-182.32
-202.89
-220.6
-232.47
-236.22
-231.34
-219.46
-203.82
-187.91
-174.3
-164.08
-157.19
-153.18
-151.75
-152.93
-156.67
-162.48
-169.31
-175.77
-180.6
-182.96
-182.63
-179.85
-174.99
-168.23
-159.44
-148.27
-134.35
-117.67
-98.77
-78.69
-58.58
-39.37
-21.37
-4.22
12.95
31.03
50.54
71.34
92.77
113.96
134.35
154.0
173.56
193.97
215.91
239.61
265.07
292.39
322.08
354.6
389.53
424.81
456.86
481.62
496.2
499.84
493.58
478.92
456.39
425.36
385.61
339.36
292.2
251.71
224.5
213.32
216.12
227.67
242.41
256.85
270.04
282.43
294.13
304.05
310.37
311.85
308.62
302.1
294.1
285.72
276.91
266.85
254.61
239.78
222.67
204.1
185.06
166.37
148.38
130.95
113.71
96.24
78.4
60.44
42.79
25.85
9.69
-6.03
-21.95
-38.67
-56.45
-75.02
-93.77
-111.99
-129.24
-145.54
-161.42
-177.74
-195.57
-216.05
-239.98
-267.29
-296.46
-324.31
-346.57
-359.18
-359.78
-348.69
-328.79
-304.24
-278.91
-255.09
-233.4
-213.48
-194.97
-178.03
-163.25
-151.07
-141.33
-133.23
-125.82
-118.46
-111.06
-103.97
-97.59
-92.05
-87.05
-82.05
-76.53
-70.23
-63.25
-56.01
-49.06
-42.9
-37.88
-34.03
-31.14
-28.82
-26.63
-24.19
-21.34
-18.18
-15.1
-12.54
-10.82
-10.0
-9.81
-9.82
-9.64
-9.06
-8.12
-7.0
-5.92
-5.04
-4.42
-4.01
-3.73
-3.44
-3.05
-2.49
-1.75
-0.9
-0.01
0.86
1.67
2.47
3.24
3.94
4.46
4.67
4.48
3.91
3.08
2.17
1.38
0.8
0.4
0.06
-0.4
-1.09
-2.02
-3.04
-3.95
-4.53
-4.67
-4.4
-3.86
-3.25
-2.76
-2.45
-2.27
-2.09
-1.75
-1.21
-0.53
0.12
0.58
0.78
0.73
0.5
0.12
-0.43
-1.23
-2.25
-3.39
-4.4
-5.04
-5.09
-4.54
-3.54
-2.33
-1.19
-0.29
0.29
0.55
0.55
0.36
0.09
-0.21
-0.45
-0.59
-0.63
-0.57
-0.46
-0.34
-0.22
-0.13
-0.07
-0.08
-0.12
-0.16
-0.13
0.03
0.31
0.63
0.91
1.04
1.01
0.87
0.69
0.57
0.54
0.62
0.75
0.89
0.95
0.91
0.76
0.57
0.42
0.33
0.29
0.2
-0.02
-0.4
-0.87
-1.31
-1.57
-1.59
-1.37
-1.01
-0.59
-0.21
0.11
0.38
0.61
0.82
1.0
1.1
1.07
0.86
0.45
-0.07
-0.61
-1.05
-1.32
-1.38
-1.27
-1.04
-0.81
-0.69
-0.81
-1.23
-1.92
-2.74
-3.48
-3.96
-4.1
-3.96
-3.68
-3.42
-3.28
-3.3
-3.51
-3.87
-4.38
-4.95
-5.43
-5.61
-5.35
-4.63
-3.62
-2.61
-1.87
-1.52
-1.51
-1.64
-1.71
-1.53
-1.06
-0.31
0.65
1.73
2.76
3.51
3.8
3.52
2.81
2.05
1.69
2.06
3.2
4.82
6.4
7.43
7.63
7.04
5.97
4.83
3.95
3.45
3.27
3.24
3.21
3.08
2.88
2.64
2.4
2.17
1.92
1.65
1.38
1.19
1.17
1.33
1.61
1.81
1.74
1.28
0.45
-0.53
-1.36
-1.8
-1.81
-1.49
-1.09
-0.81
-0.72
-0.8
-0.95
-1.09
-1.2
-1.24
-1.21
-1.09
-0.85
-0.52
-0.15
0.18
0.43
0.54
0.52
0.36
0.05
-0.39
-0.96
-1.64
-2.38
-3.07
-3.62
-3.87
-3.71
-3.14
-2.23
-1.19
-0.26
0.38
0.68
0.74
0.72
0.78
0.96
1.14
1.18
0.99
0.56
0.04
-0.37
-0.53
-0.43
-0.21
-0.04
-0.02
-0.1
-0.11
0.1
0.58
1.21
1.79
2.15
2.24
2.17
2.07
2.04
2.02
1.93
1.68
1.3
0.9
0.62
0.52
0.57
0.67
0.7
0.6
0.41
0.14
-0.13
-0.4
-0.67
-0.89
-1.05
-1.09
-1.0
-0.8
-0.55
-0.29
-0.07
0.11
0.23
0.26
0.2
0.02
-0.23
-0.46
-0.57
-0.48
-0.17
0.31
0.84
1.33
1.71
1.94
2.04
2.02
1.88
1.64
1.31
0.91
0.5
0.12
-0.19
-0.44
-0.64
-0.8
-0.92
-0.98
-0.95
-0.8
-0.54
-0.22
0.08
0.28
0.34
0.28
0.18
0.11
0.1
0.17
0.28
0.39
0.47
0.53
0.63
0.8
1.07
1.36
1.59
1.64
1.49
1.2
0.91
0.73
0.71
0.75
0.7
0.43
-0.05
-0.59
-0.94
-0.96
-0.65
-0.18
0.26
0.51
0.55
0.45
0.29
0.07
-0.24
-0.64
-1.03
-1.23
-1.1
-0.64
-0.0
0.52
0.73
0.55
0.08
-0.46
-0.93
-1.26
-1.47
-1.56
-1.54
-1.38
-1.07
-0.62
-0.12
0.33
0.63
0.75
0.71
0.54
0.34
0.16
0.09
0.13
0.28
0.45
0.56
0.59
0.55
0.52
0.55
0.63
0.67
0.55
0.2
-0.37
-1.0
-1.52
-1.74
-1.62
-1.22
-0.68
-0.15
0.27
0.52
0.61
0.58
0.43
0.22
-0.01
-0.19
-0.26
-0.17
0.08
0.4
0.66
0.76
0.65
0.36
0.05
-0.14
-0.08
0.2
0.59
0.9
1.0
0.82
0.44
0.02
-0.29
-0.38
-0.21
0.14
0.53
0.83
0.91
0.73
0.36
-0.1
-0.51
-0.78
-0.93
-1.03
-1.15
-1.29
-1.42
-1.44
-1.29
-1.0
-0.66
-0.41
-0.34
-0.42
-0.55
-0.56
-0.35
0.08
0.58
0.98
1.16
1.13
0.98
0.86
0.84
0.89
0.89
0.74
0.39
-0.09
-0.54
-0.82
-0.88
-0.73
-0.49
-0.23
-0.03
0.1
0.15
0.14
0.09
0.03
-0.01
0.0
0.08
0.21
0.38
0.55
0.66
0.71
0.7
0.64
0.54
0.4
0.21
-0.03
-0.29
-0.55
-0.75
-0.86
-0.85
-0.71
-0.48
-0.19
0.12
0.41
0.62
0.74
0.74
0.62
0.42
0.18
-0.01
-0.1
-0.06
0.1
0.32
0.56
0.76
0.91
1.01
1.09
1.15
1.19
1.16
1.06
0.91
0.76
0.64
0.54
0.46
0.33
0.14
-0.08
-0.25
-0.31
-0.25
-0.11
0.01
0.02
-0.13
-0.4
-0.69
-0.92
-1.0
-0.91
-0.68
-0.37
-0.06
0.21
0.42
0.58
0.7
0.75
0.73
0.62
0.43
0.21
0.06
0.04
0.17
0.39
0.56
0.57
0.32
-0.14
-0.68
-1.1
-1.26
-1.1
-0.72
-0.31
-0.05
0.02
-0.02
-0.03
0.12
0.4
0.71
0.88
0.8
0.51
0.12
-0.22
-0.42
-0.49
-0.5
-0.52
-0.6
-0.66
-0.62
-0.42
-0.07
0.33
0.6
0.63
0.41
0.03
-0.28
-0.36
-0.11
0.38
0.94
1.38
1.57
1.51
1.29
1.05
0.9
0.86
0.94
1.05
1.14
1.15
1.06
0.89
0.66
0.41
0.16
-0.05
-0.2
-0.23
-0.15
0.05
0.33
0.59
0.72
0.65
0.35
-0.09
-0.54
-0.86
-0.94
-0.81
-0.58
-0.38
-0.29
-0.29
-0.29
-0.22
-0.09
-0.01
-0.1
-0.43
-0.93
-1.45
-1.8
-1.88
-1.73
-1.45
-1.13
-0.83
-0.53
-0.2
0.14
0.44
0.61
0.64
0.56
0.47
0.44
0.48
0.53
0.5
0.37
0.11
-0.2
-0.5
-0.72
-0.84
-0.88
-0.89
-0.89
-0.9
-0.91
-0.88
-0.77
-0.55
-0.24
0.11
0.44
0.69
0.84
0.93
1.0
1.1
1.23
1.36
1.42
1.39
1.27
1.08
0.88
0.71
0.62
0.59
0.63
0.7
0.73
0.69
0.55
0.33
0.11
-0.01
0.02
0.18
0.38
0.48
0.4
0.17
-0.13
-0.39
-0.58
-0.74
-0.93
-1.18
-1.45
-1.62
-1.58
-1.31
-0.93
-0.56
-0.37
-0.39
-0.6
-0.88
-1.11
-1.21
-1.13
-0.88
-0.49
-0.02
0.43
0.78
0.96
0.95
0.78
0.53
0.28
0.09
-0.02
-0.04
0.02
0.17
0.4
0.64
0.82
0.89
0.82
0.66
0.54
0.57
0.79
1.16
1.55
1.8
1.85
1.69
1.42
1.11
0.83
0.59
0.37
0.14
-0.1
-0.26
-0.28
-0.09
0.26
0.64
0.86
0.77
0.35
-0.29
-0.93
-1.39
-1.57
-1.47
-1.17
-0.78
-0.39
-0.05
0.18
0.26
0.14
-0.13
-0.45
-0.7
-0.77
-0.63
-0.34
-0.03
0.17
0.21
0.1
-0.09
-0.28
-0.41
-0.46
-0.46
-0.43
-0.4
-0.34
-0.23
-0.06
0.14
0.33
0.48
0.58
0.66
0.77
0.94
1.16
1.37
1.48
1.42
1.19
0.85
0.49
0.22
0.1
0.11
0.23
0.39
0.56
0.7
0.79
0.81
0.72
0.53
0.27
0.04
-0.09
-0.07
0.08
0.33
0.62
0.9
1.1
1.18
1.09
0.8
0.36
-0.13
-0.54
-0.78
-0.82
-0.68
-0.47
-0.29
-0.2
-0.26
-0.43
-0.68
-0.92
-1.07
-1.08
-0.95
-0.79
-0.69
-0.7
-0.82
-0.94
-0.99
-0.94
-0.86
-0.86
-0.98
-1.21
-1.42
-1.48
-1.31
-0.94
-0.51
-0.18
-0.05
-0.11
-0.23
-0.29
-0.21
0.01
0.29
0.54
0.71
0.83
0.98
1.19
1.48
1.75
1.96
2.05
2.06
2.06
2.06
2.04
1.89
1.54
0.97
0.3
-0.29
-0.66
-0.75
-0.65
-0.49
-0.44
-0.57
-0.87
-1.24
-1.56
-1.71
-1.63
-1.3
-0.81
-0.29
0.12
0.32
0.33
0.22
0.12
0.11
0.18
0.29
0.36
0.37
0.35
0.3
0.24
0.15
0.04
-0.04
-0.01
0.24
0.71
1.32
1.9
2.26
2.29
1.98
1.44
0.8
0.2
-0.3
-0.61
-0.72
-0.56
-0.17
0.34
0.78
0.92
0.68
0.1
-0.58
-1.1
-1.26
-1.1
-0.81
-0.67
-0.83
-1.26
-1.73
-2.01
-1.92
-1.51
-0.93
-0.4
-0.06
0.06
0.04
-0.03
-0.1
-0.16
-0.19
-0.09
0.2
0.71
1.41
2.14
2.74
3.09
3.15
2.96
2.59
2.13
1.66
1.27
1.05
1.05
1.27
1.6
1.9
2.09
2.17
2.24
2.4
2.68
2.99
3.21
3.26
3.19
3.12
3.18
3.38
3.54
3.44
2.9
1.92
0.66
-0.61
-1.64
-2.23
-2.36
-2.08
-1.57
-1.07
-0.85
-1.11
-1.94
-3.27
-4.9
-6.58
-8.06
-9.22
-10.01
-10.55
-11.03
-11.62
-12.4
-13.23
-13.74
-13.44
-11.93
-9.02
-4.81
0.32
5.85
11.22
15.83
19.17
20.87
20.86
19.41
17.18
14.97
13.53
13.2
13.91
15.19
16.46
17.21
17.09
15.93
13.69
10.51
6.76
2.99
-0.2
-2.38
-3.5
-3.98
-4.56
-5.96
-8.6
-12.4
-16.88
-21.35
-25.22
-28.1
-29.77
-30.14
-29.12
-26.64
-22.8
-17.96
-12.84
-8.4
-5.58
-4.87
-5.99
-7.98
-9.49
-9.45
-7.56
-4.43
-1.23
0.98
1.73
1.3
0.41
-0.3
-0.61
-0.66
-0.67
-0.66
-0.4
0.36
1.63
2.99
3.84
3.69
2.45
0.47
-1.62
-3.19
-3.88
-3.57
-2.4
-0.63
1.41
3.34
4.74
5.2
4.39
2.07
-1.68
-6.49
-11.71
-16.52
-20.18
-22.33
-23.13
-23.3
-23.9
-25.94
-29.72
-34.52
-38.47
-39.12
-34.39
-23.56
-7.83
9.98
26.37
38.46
44.9
46.07
43.61
39.45
35.16
31.54
28.74
26.61
24.93
23.52
22.18
20.69
18.78
16.29
13.2
9.78
6.48
3.86
2.31
1.98
2.61
3.7
4.64
4.98
4.6
3.72
2.74
2.03
1.79
1.95
2.23
2.31
1.98
1.25
0.28
-0.62
-1.2
-1.32
-0.98
-0.38
0.24
0.67
0.77
0.56
0.12
-0.45
-1.07
-1.7
-2.32
-2.86
-3.22
-3.28
-2.94
-2.17
-1.03
0.33
1.74
2.99
3.92
4.43
4.5
4.2
3.64
2.96
2.29
1.78
1.5
1.5
1.74
2.08
2.29
2.22
1.83
1.25
0.69
0.31
0.14
0.06
-0.07
-0.33
-0.65
-0.87
-0.85
-0.57
-0.14
0.29
0.6
0.77
0.89
1.02
1.18
1.3
1.3
1.09
0.69
0.15
-0.41
-0.86
-1.14
-1.19
-1.04
-0.8
-0.58
-0.49
-0.58
-0.79
-0.98
-0.97
-0.63
0.04
0.9
1.71
2.21
2.29
2.0
1.6
1.4
1.66
2.43
3.53
4.62
5.39
5.63
5.41
4.97
4.66
4.77
5.38
6.34
7.34
8.0
8.14
7.77
7.17
6.72
6.77
7.61
9.45
12.27
15.67
18.66
19.87
17.99
12.48
3.96
-5.87
-14.95
-21.79
-25.97
-28.16
-29.39
-30.36
-31.01
-30.79
-29.22
-26.41
-23.11
-20.29
-18.58
-18.02
-18.07
-18.04
-17.4
-15.96
-13.81
-11.09
-7.91
-4.43
-0.94
2.06
4.06
4.74
4.32
3.43
2.89
3.27
4.59
6.32
7.78
8.52
8.56
8.37
8.58
9.55
11.07
12.36
12.37
10.23
5.79
-0.26
-6.68
-12.24
-16.16
-18.26
-18.82
-18.05
-16.03
-12.85
-8.88
-4.98
-2.32
-1.77
-3.52
-7.08
-11.62
-16.37
-20.45
-22.61
-21.15
-14.42
-1.88
15.02
32.91
47.71
56.35
58.13
54.72
48.86
42.87
37.65
32.83
27.62
21.74
15.63
10.12
5.81
2.78
0.72
-0.71
-1.77
-2.52
-3.12
-3.9
-5.27
-7.39
-9.97
-12.21
-13.21
-12.32
-9.51
-5.38
-0.88
3.03
5.73
7.03
7.08
6.19
4.67
2.83
0.99
-0.53
-1.5
-1.85
-1.73
-1.41
-1.18
-1.14
-1.22
-1.26
-1.07
-0.56
0.27
1.35
2.53
3.6
4.3
4.4
3.84
2.79
1.6
0.65
0.15
0.04
0.05
-0.1
-0.51
-1.0
-1.27
-1.0
-0.04
1.53
3.48
5.43
7.02
7.93
7.98
7.1
5.39
3.08
0.47
-2.17
-4.62
-6.73
-8.43
-9.71
-10.59
-11.09
-11.31
-11.31
-11.2
-11.04
-10.9
-10.79
-10.67
-10.49
-10.19
-9.78
-9.36
-9.01
-8.8
-8.67
-8.45
-7.92
-6.89
-5.31
-3.33
-1.23
0.61
1.86
2.38
2.21
1.6
0.83
0.16
-0.31
-0.54
-0.59
-0.5
-0.28
0.05
0.43
0.77
1.01
1.08
0.99
0.79
0.57
0.39
0.31
0.38
0.59
0.95
1.39
1.84
2.24
2.59
2.9
3.24
3.68
4.16
4.58
4.75
4.53
3.9
2.95
1.9
0.95
0.25
-0.2
-0.43
-0.54
-0.61
-0.71
-0.9
-1.21
-1.62
-2.02
-2.26
-2.23
-1.93
-1.44
-0.93
-0.57
-0.41
-0.45
-0.59
-0.73
-0.75
-0.61
-0.32
0.06
0.4
0.57
0.51
0.21
-0.23
-0.69
-1.04
-1.21
-1.16
-0.92
-0.52
-0.02
0.49
0.88
1.07
1.04
0.85
0.63
0.5
0.52
0.64
0.77
0.84
0.85
0.85
0.89
1.0
1.12
1.18
1.13
1.01
0.85
0.68
0.46
0.11
-0.38
-0.97
-1.5
-1.83
-1.89
-1.73
-1.51
-1.32
-1.2
-1.1
-0.96
-0.75
-0.52
-0.35
-0.28
-0.28
-0.28
-0.21
-0.06
0.15
0.35
0.5
0.59
0.62
0.62
0.61
0.57
0.48
0.33
0.14
-0.06
-0.19
-0.22
-0.12
0.04
0.14
0.09
-0.16
-0.57
-0.98
-1.23
-1.2
-0.9
-0.44
0.04
0.38
0.47
0.32
0.01
-0.32
-0.58
-0.74
-0.85
-0.98
-1.17
-1.38
-1.53
-1.5
-1.29
-0.97
-0.68
-0.58
-0.74
-1.16
-1.67
-2.12
-2.34
-2.25
-1.88
-1.32
-0.71
-0.19
0.17
0.35
0.43
0.46
0.52
0.68
0.98
1.51
2.36
3.48
4.72
5.78
6.37
6.36
5.84
5.11
4.46
4.0
3.56
2.86
1.66
0.04
-1.64
-2.88
-3.32
-2.96
-2.13
-1.35
-0.99
-1.16
-1.67
-2.19
-2.47
-2.41
-2.11
-1.75
-1.49
-1.36
-1.37
-1.46
-1.58
-1.71
-1.78
-1.74
-1.49
-1.0
-0.2
0.89
2.2
3.52
4.53
4.92
4.57
3.64
2.54
1.77
1.58
1.85
2.16
2.03
1.24
-0.01
-1.24
-1.97
-1.99
-1.45
-0.7
-0.11
0.18
0.24
0.19
0.16
0.13
0.04
-0.19
-0.51
-0.84
-1.06
-1.11
-1.0
-0.82
-0.66
-0.61
-0.69
-0.89
-1.14
-1.33
-1.35
-1.13
-0.7
-0.18
0.24
0.43
0.37
0.17
-0.02
-0.11
-0.05
0.08
0.26
0.44
0.65
0.9
1.18
1.44
1.66
1.8
1.87
1.88
1.79
1.57
1.16
0.57
-0.15
-0.88
-1.49
-1.88
-2.0
-1.86
-1.55
-1.18
-0.85
-0.61
-0.46
-0.37
-0.3
-0.24
-0.21
-0.22
-0.25
-0.27
-0.23
-0.07
0.18
0.47
0.71
0.8
0.72
0.51
0.26
0.03
-0.11
-0.21
-0.33
-0.52
-0.79
-1.04
-1.16
-1.03
-0.64
-0.08
0.47
0.82
0.8
0.31
-0.58
-1.67
-2.59
-2.92
-2.35
-0.79
1.58
4.36
7.08
9.3
10.76
11.33
11.05
10.06
8.61
7.06
5.77
4.95
4.62
4.53
4.38
3.97
3.33
2.78
2.65
3.18
4.3
5.7
6.95
7.71
7.85
7.46
6.76
6.01
5.32
4.71
4.09
3.39
2.58
1.75
1.09
0.79
0.98
1.63
2.53
3.38
3.93
4.05
3.87
3.69
3.8
4.44
5.65
7.37
9.48
11.86
14.28
16.3
17.25
16.51
13.84
9.62
4.83
0.63
-2.3
-4.19
-6.18
-9.95
-17.26
-29.49
-47.31
-70.43
-97.47
-126.14
-153.74
-178.03
-198.25
-215.49
-232.3
-251.4
-274.23
-300.11
-326.32
-349.18
-365.46
-373.39
-372.87
-364.77
-350.17
-329.48
-302.28
-267.47
-223.58
-168.96
-101.82
-20.55
75.34
183.65
298.45
410.37
508.62
584.2
632.66
655.19
657.29
645.94
626.84
603.13
575.78
544.95
511.16
475.4
438.59
400.82
361.43
319.58
275.19
229.35
183.93
140.99
101.64
65.55
30.91
-5.03
-44.78
-89.46
-137.76
-185.78
-227.97
-258.74
-274.35
-274.22
-261.13
-240.26
-217.43
-197.35
-182.55
-173.15
-167.57
-163.57
-159.15
-153.07
-144.94
-134.97
-123.7
-111.8
-99.97
-88.91
-79.3
-71.6
-65.83
-61.48
-57.67
-53.43
-48.23
-42.18
-36.05
-31.11
-28.65
-29.32
-32.61
-36.52
-38.05
-34.41
-24.35
-9.1
7.95
22.64
31.88
34.85
33.03
28.93
24.66
20.98
17.44
13.34
8.61
4.13
1.14
0.39
1.59
3.61
5.12
5.3
4.02
1.77
-0.89
-3.68
-6.62
-9.91
-13.59
-17.4
-20.85
-23.39
-24.75
-24.95
-24.32
-23.45
-23.18
-24.69
-29.51
-39.28
-55.11
-76.92
-102.88
-129.68
-153.42
-170.98
-181.07
-184.61
-184.1
-182.28
-181.04
-180.77
-180.72
-179.79
-177.39
-173.78
-169.81
-166.36
-163.95
-162.57
-161.99
-162.09
-163.09
-165.43
-169.55
-175.58
-183.15
-191.4
-199.21
-205.53
-209.62
-211.25
-210.67
-208.43
-205.12
-201.14
-196.5
-190.95
-184.04
-175.44
-165.11
-153.43
-141.18
-129.27
-118.54
-109.39
-101.58
-94.39
-86.82
-78.09
-67.99
-57.07
-46.4
-37.12
-29.87
-24.37
-19.49
-13.63
-5.44
5.58
18.8
32.94
46.6
59.11
71.0
83.93
100.52
123.97
157.8
205.25
268.09
345.12
431.26
517.99
595.51
655.97
696.01
717.52
725.94
727.33
725.61
721.61
713.94
700.92
682.03
658.24
631.1
601.7
570.15
535.96
498.92
459.73
419.97
381.8
346.95
316.2
289.16
264.58
241.01
217.44
193.66
170.22
148.05
127.94
110.19
94.52
80.3
66.87
53.77
40.87
28.23
15.98
4.17
-7.24
-18.23
-28.72
-38.51
-47.46
-55.71
-63.71
-72.16
-81.72
-92.67
-104.67
-116.87
-128.37
-138.65
-148.06
-157.68
-168.96
-182.97
-200.04
-219.68
-241.11
-263.7
-287.0
-310.43
-332.77
-352.17
-366.61
-375.0
-377.76
-376.49
-372.51
-365.28
-351.85
-328.32
-292.54
-246.54
-196.84
-152.13
-119.33
-100.55
-92.48
-88.81
-83.87
-75.38
-64.74
-55.15
-48.92
-46.0
-44.38
-41.74
-37.25
-31.8
-27.13
-24.2
-22.24
-19.09
-12.6
-2.46
8.84
16.42
14.77
0.19
-27.49
-64.6
-105.0
-142.63
-173.88
-198.61
-219.55
-240.39
-263.78
-290.2
-318.04
-344.66
-367.62
-385.47
-397.75
-404.48
-405.65
-401.06
-390.59
-374.62
-354.3
-331.39
-307.88
-285.36
-264.6
-245.46
-227.16
-208.75
-189.63
-169.81
-149.9
-130.83
-113.48
-98.34
-85.31
-73.81
-63.02
-52.22
-41.09
-29.78
-18.91
-9.26
-1.47
4.3
8.48
11.98
15.85
20.84
27.02
33.68
39.58
43.44
44.53
43.09
40.32
37.92
37.4
39.44
43.63
48.89
53.97
58.3
62.46
68.06
77.64
94.29
121.44
162.28
218.64
289.48
369.95
451.84
525.75
584.18
624.11
647.61
660.18
667.7
673.79
678.84
680.97
677.98
668.9
654.34
635.53
613.32
587.67
558.03
524.23
487.11
448.53
410.91
376.27
345.52
318.33
293.4
269.21
244.73
219.88
195.42
172.6
152.46
135.43
121.1
108.54
96.7
84.84
72.85
61.12
50.3
40.93
33.12
26.54
20.58
14.62
8.33
1.75
-4.71
-10.58
-15.52
-19.56
-23.04
-26.44
-30.14
-34.16
-38.18
-41.6
-43.95
-45.11
-45.56
-46.21
-48.11
-51.95
-57.75
-64.8
-71.92
-78.02
-82.68
-86.43
-90.59
-96.75
-106.03
-118.51
-133.13
-148.17
-161.9
-173.38
-182.9
-191.82
-202.3
-216.71
-237.01
-263.94
-296.1
-329.38
-357.38
-373.12
-371.57
-352.2
-319.89
-283.79
-254.08
-238.11
-237.77
-249.06
-264.0
-273.82
-271.92
-255.53
-225.81
-186.89
-144.47
-104.55
-72.4
-51.68
-43.82
-47.76
-59.95
-75.12
-87.43
-91.95
-85.89
-69.29
-44.91
-17.38
8.11
27.27
37.75
39.64
35.14
27.77
21.28
18.55
21.08
28.83
40.62
54.59
68.86
81.84
92.46
100.02
104.06
104.63
102.45
99.1
96.77
97.5
102.46
111.56
123.92
138.65
155.4
174.05
193.89
212.75
227.11
233.33
229.43
216.33
197.69
178.23
161.56
148.73
138.34
127.71
114.62
98.41
80.02
61.16
43.19
26.22
9.03
-10.3
-33.47
-60.96
-91.9
-124.62
-157.67
-190.53
-223.29
-255.81
-286.63
-312.69
-330.39
-337.08
-332.05
-316.42
-291.9
-260.08
-222.36
-181.21
-141.0
-107.7
-87.13
-81.83
-88.94
-99.95
-103.65
-90.84
-59.05
-14.32
30.78
62.67
72.6
59.57
29.97
-6.04
-38.62
-61.04
-70.57
-67.91
-56.28
-40.38
-25.61
-16.76
-17.26
-28.77
-51.57
-85.0
-127.37
-174.9
-220.36
-253.85
-265.35
-248.92
-205.9
-144.55
-76.9
-14.1
36.42
71.33
89.76
92.72
83.14
66.78
51.74
45.23
49.82
60.77
67.51
58.89
29.75
-15.27
-63.26
-99.22
-113.68
-106.77
-86.94
-65.62
-50.93
-44.46
-42.76
-41.55
-39.87
-41.29
-51.77
-75.71
-112.76
-157.13
-199.87
-232.56
-250.6
-254.42
-248.79
-239.94
-232.65
-228.18
-224.04
-215.79
-199.56
-174.28
-142.34
-108.48
-77.4
-51.58
-30.12
-9.32
15.21
46.34
84.24
126.64
170.43
213.41
254.83
294.35
330.65
360.75
380.99
389.11
385.4
372.35
352.38
326.04
292.18
250.37
203.95
161.17
133.1
128.89
150.96
193.05
242.42
284.93
310.27
314.76
300.91
274.46
241.19
204.71
166.14
124.99
80.52
32.79
-16.76
-65.21
-108.66
-143.47
-166.94
-178.0
-177.19
-165.92
-145.95
-118.63
-85.12
-46.86
-6.17
33.47
68.06
94.17
110.11
116.5
116.0
112.22
108.46
106.83
107.92
111.07
115.18
119.42
123.76
128.76
134.89
141.88
148.57
153.25
154.51
152.02
146.76
140.6
135.47
132.5
131.66
131.93
131.96
130.89
128.89
127.04
126.73
128.74
132.57
136.25
137.04
132.39
121.04
103.44
81.36
56.98
31.74
5.52
-23.34
-57.64
-100.51
-154.52
-220.62
-297.14
-378.91
-457.7
-523.83
-568.83
-588.23
-582.84
-557.82
-520.1
-475.49
-426.93
-374.73
-318.19
-257.86
-196.7
-139.84
-93.16
-61.11
-44.85
-41.35
-43.94
-44.24
-34.85
-11.87
23.79
66.9
109.79
145.03
167.53
175.63
170.95
157.47
140.35
124.78
114.83
112.66
118.35
130.29
145.88
162.38
177.0
186.88
188.96
180.59
160.6
130.27
93.46
55.5
21.15
-7.42
-31.59
-55.51
-84.06
-120.57
-165.61
-216.94
-270.82
-323.58
-372.75
-417.24
-456.71
-490.89
-518.97
-539.6
-551.39
-553.61
-546.69
-532.29
-512.95
-491.4
-469.85
-449.5
-430.4
-411.75
-392.55
-372.14
-350.68
-329.12
-308.87
-291.19
-276.55
-264.43
-253.43
-241.89
-228.49
-212.8
-195.36
-177.08
-158.57
-139.39
-117.72
-90.61
-54.55
-5.93
58.49
140.99
241.78
357.67
481.36
602.11
708.16
789.99
843.08
868.67
872.16
860.17
837.8
807.62
770.35
726.57
677.79
626.47
574.99
524.61
475.26
426.31
377.76
330.97
288.5
253.31
227.3
210.42
200.53
194.25
188.29
180.92
172.51
165.18
161.59
163.4
170.3
179.87
188.57
193.24
192.49
186.98
179.02
171.06
164.2
157.24
146.64
127.41
94.27
43.51
-25.28
-107.84
-195.06
-274.25
-332.06
-358.28
-349.3
-309.79
-251.77
-191.24
-143.31
-117.58
-115.49
-130.58
-151.8
-168.39
-174.06
-168.84
-157.96
-148.39
-145.62
-152.18
-168.6
-195.46
-234.04
-284.97
-345.54
-407.97
-460.56
-491.5
-493.92
-468.95
-425.06
-374.17
-326.76
-288.06
-257.41
-229.9
-199.35
-160.7
-111.45
-52.01
14.89
84.58
151.22
208.4
250.08
271.8
272.84
257.61
235.47
218.22
215.88
232.6
264.92
303.32
336.48
356.08
359.39
348.95
329.91
306.82
282.23
256.88
231.29
206.62
184.54
166.3
151.76
139.19
125.97
109.83
89.79
66.37
41.08
15.55
-9.28
-33.62
-58.7
-86.08
-116.75
-150.62
-186.46
-223.05
-259.43
-295.43
-331.72
-369.4
-409.39
-451.79
-495.83
-540.43
-585.28
-630.83
-678.22
-728.98
-784.66
-846.4
-914.51
-987.8
-1063.08
-1136.16
-1201.69
-1254.82
-1293.1
-1317.42
-1331.15
-1338.13
-1340.25
-1328.88
-1293.96
-1225.17
-1114.79
-959.81
-762.61
-530.05
-272.13
-0.54
272.3
533.17
770.05
973.31
1136.74
1257.83
1338.11
1382.19
1396.67
1388.71
1364.02
1326.87
1279.88
1224.57
1162.16
1094.4
1023.79
953.53
886.64
824.96
768.96
717.73
669.53
622.69
576.55
531.58
489.36
451.36
418.38
389.84
363.86
337.86
309.23
275.74
235.7
189.6
137.99
83.94
32.89
-8.9
-36.78
-49.99
-51.76
-48.95
-48.76
-55.56
-69.15
-85.93
-101.49
-112.89
-119.57
-122.65
-123.44
-122.3
-118.8
-112.27
-102.86
-91.91
-81.4
-73.23
-68.24
-66.02
-65.26
-64.52
-62.73
-59.75
-56.42
-54.1
-53.97
-57.16
-63.33
-71.52
-80.7
-90.17
-99.77
-110.04
-121.8
-135.78
-152.35
-171.32
-192.23
-214.42
-237.25
-260.09
-282.38
-303.54
-322.76
-338.81
-350.18
-355.25
-352.64
-341.9
-322.6
-294.83
-259.39
-217.66
-171.54
-123.12
-74.61
-28.09
14.62
52.26
83.89
109.07
127.79
140.48
147.84
150.71
149.83
145.92
139.52
131.06
120.91
109.46
97.11
84.34
71.61
59.36
47.67
36.49
25.53
14.39
2.76
-9.42
-21.95
-34.51
-46.92
-59.18
-71.68
-85.03
-99.73
-115.84
-132.94
-149.95
-165.55
-178.46
-188.13
-194.75
-199.19
-202.33
-204.7
-205.94
-204.95
-200.28
-190.85
-176.39
-157.59
-135.36
-110.23
-81.57
-47.42
-4.74
49.99
120.17
208.7
316.24
440.14
574.47
709.21
831.47
928.24
990.01
1013.51
1002.21
964.08
908.2
841.47
767.36
686.99
601.12
511.76
422.1
335.4
253.64
177.19
105.58
38.37
-23.91
-79.83
-127.48
-165.63
-194.27
-214.81
-229.48
-240.56
-249.64
-257.22
-262.85
-265.61
-264.82
-260.46
-253.32
-244.65
-235.68
-227.25
-219.51
-212.04
-204.18
-195.42
-185.63
-175.11
-164.45
-154.2
-144.76
-136.14
-128.12
-120.34
-112.54
-104.62
-96.7
-89.01
-81.77
-75.17
-69.2
-63.74
-58.65
-53.79
-49.16
-44.81
-40.91
-37.34
-34.3
-31.74
-29.46
-27.24
-24.88
-22.38
-19.91
-17.8
-16.34
-15.64
-15.49
-15.48
-15.11
-14.05
-12.36
-10.39
-8.78
-8.06
-8.41
-9.53
-10.72
-11.23
-10.57
-8.95
-6.84
-5.07
-4.23
-4.47
-5.58
-7.27
-9.3
-11.2
-11.99
-10.25
-4.9
3.9
14.17
22.61
26.13
23.37
15.54
5.81
-2.4
-7.06
-8.28
-7.68
-7.05
-7.16
-7.63
-7.52
-6.27
-4.23
-2.32
-1.47
-1.97
-3.57
-5.3
-6.31
-6.13
-4.86
-3.11
-1.63
-1.0
-1.36
-2.42
-3.56
-4.23
-4.13
-3.35
-2.26
-1.34
-0.89
-1.03
-1.57
-2.16
-2.51
-2.47
-2.09
-1.55
-1.09
-0.85
-0.88
-1.08
-1.3
-1.44
-1.42
-1.28
-1.09
-0.92
-0.81
-0.77
-0.77
-0.78
-0.77
-0.77
-0.78
-0.82
-0.89
-0.98
-1.05
-1.08
-1.07
-1.04
-1.01
-1.02
-1.06
-1.14
-1.24
-1.32
-1.36
-1.34
-1.3
-1.3
-1.37
-1.56
-1.83
-2.09
-2.28
-2.31
-2.18
-1.99
-1.86
-1.94
-2.3
-2.9
-3.56
-4.06
-4.28
-4.14
-3.84
-3.68
-3.94
-4.77
-6.06
-7.47
-8.59
-9.09
-8.92
-8.41
-8.08
-8.46
-9.78
-11.85
-14.13
-15.9
-16.72
-16.47
-15.58
-14.66
-14.33
-14.96
-16.7
-19.45
-22.83
-25.98
-27.42
-25.53
-19.04
-7.93
6.3
20.86
32.94
40.75
44.15
44.56
43.76
43.13
43.08
43.23
42.99
42.42
42.31
43.88
48.42
56.0
65.74
75.7
83.28
86.06
82.64
73.1
58.63
42.26
26.46
13.0
2.42
-5.71
-12.23
-17.81
-22.54
-25.98
-27.26
-25.9
-21.86
-15.89
-9.39
-4.01
-0.84
-0.28
-1.63
-3.33
-3.9
-2.17
2.46
9.89
19.18
28.19
33.51
31.35
19.02
-3.56
-32.98
-63.13
-87.67
-102.53
-107.53
-106.03
-103.05
-102.79
-106.68
-112.63
-116.01
-111.69
-96.43
-70.57
-38.32
-6.21
19.32
34.6
40.23
40.02
38.77
39.61
42.53
45.08
44.43
39.5
31.64
24.01
19.66
19.8
23.72
29.51
35.13
39.55
41.99
40.89
33.47
16.79
-9.79
-42.42
-73.05
-92.2
-93.43
-76.71
-48.48
-18.51
4.87
18.07
22.63
22.68
21.66
20.61
18.41
13.86
7.26
0.63
-3.46
-3.43
0.22
5.22
8.85
9.01
5.39
-0.61
-6.69
-10.73
-11.72
-10.14
-7.54
-5.81
-6.34
-9.38
-14.13
-19.17
-23.19
-25.55
-26.51
-26.93
-27.84
-30.07
-33.8
-38.63
-43.78
-48.44
-52.05
-54.42
-55.56
-55.49
-54.38
-52.26
-49.15
-45.05
-40.18
-34.88
-29.53
-24.37
-19.27
-14.19
-8.63
-2.05
6.09
16.05
27.88
41.29
55.18
69.12
82.11
93.56
102.95
110.08
114.86
117.47
118.14
117.07
115.4
112.04
106.6
98.67
87.95
74.27
57.7
38.52
16.54
-6.62
-30.14
-52.94
-74.1
-92.8
-108.3
-120.0
-127.53
-130.5
-128.56
-121.96
-110.94
-96.09
-78.16
-58.13
-37.13
-16.77
1.91
18.23
31.44
41.32
47.86
51.44
52.6
51.9
49.94
47.29
44.43
41.51
39.01
36.66
34.44
32.36
30.3
28.27
26.32
24.5
22.76
21.12
19.49
17.92
16.42
14.96
13.55
12.22
11.01
9.88
8.84
7.84
6.91
6.04
5.22
4.44
3.72
3.08
2.49
1.98
1.51
1.11
0.77
0.5
0.26
0.09
-0.04
-0.12
-0.18
-0.24
-0.25
-0.19
0.04
0.44
1.13
2.23
3.86
6.1
8.99
12.51
16.4
20.56
24.04
26.13
26.08
23.34
17.63
9.21
-1.25
-12.72
-23.82
-33.37
-40.2
-43.44
-42.55
-37.46
-28.38
-15.9
-0.97
15.31
31.3
45.37
56.1
62.51
64.33
61.99
56.59
48.47
39.91
31.87
24.63
18.06
11.89
6.18
1.34
-1.78
-2.39
0.03
4.9
10.94
16.69
20.99
23.37
24.23
24.62
25.59
28.16
32.79
39.64
48.42
57.56
63.95
63.61
53.32
32.08
2.64
-29.36
-57.39
-76.53
-85.58
-86.92
-84.65
-82.35
-81.64
-82.28
-83.28
-84.46
-85.69
-87.4
-89.56
-91.08
-90.18
-85.03
-74.6
-58.48
-38.92
-18.05
2.02
19.84
34.82
46.75
56.2
63.28
67.64
68.49
65.46
58.35
47.59
34.37
20.03
6.0
-6.75
-17.79
-27.38
-35.81
-43.51
-50.78
-57.57
-64.15
-69.48
-72.74
-73.28
-70.75
-65.02
-56.27
-45.1
-32.29
-18.33
-4.73
7.52
17.82
25.98
32.09
36.52
39.71
42.24
44.44
46.96
50.35
54.87
60.43
66.32
71.46
74.44
73.95
69.13
59.9
47.18
32.43
17.49
3.5
-9.08
-20.47
-31.22
-41.66
-51.68
-60.49
-67.3
-71.17
-72.08
-70.88
-69.01
-67.8
-68.23
-70.82
-75.78
-82.87
-90.68
-96.49
-96.44
-86.82
-66.07
-36.08
-2.07
29.28
52.49
65.36
69.11
67.07
62.63
57.84
53.25
48.92
45.22
43.1
43.36
45.78
48.9
50.75
49.99
46.58
42.12
38.95
38.88
42.31
47.81
52.89
55.34
54.22
50.31
45.89
43.58
44.98
50.6
59.52
69.59
77.51
79.62
73.1
57.3
34.71
11.0
-6.62
-12.23
-4.23
13.27
31.66
41.4
36.25
15.86
-14.39
-46.33
-72.68
-90.0
-99.1
-103.25
-105.57
-107.5
-108.66
-107.92
-105.21
-102.1
-101.25
-104.64
-112.71
-123.72
-134.9
-143.48
-147.98
-149.11
-147.58
-144.37
-139.76
-132.98
-122.4
-106.41
-84.24
-55.86
-24.23
7.37
35.76
58.8
75.74
87.12
94.2
98.41
100.57
100.69
98.68
94.39
88.1
80.63
73.19
66.91
62.34
59.19
56.26
52.4
46.84
39.67
31.93
25.17
20.75
19.01
19.03
18.79
16.28
10.38
1.55
-8.14
-15.82
-19.33
-18.09
-13.75
-9.47
-8.41
-12.43
-21.47
-33.62
-45.77
-54.36
-55.97
-48.32
-30.84
-5.59
23.06
49.73
70.22
83.45
91.78
99.68
110.32
122.71
131.08
127.34
105.26
64.56
12.44
-38.49
-74.83
-87.45
-74.65
-42.4
-1.97
34.11
56.06
59.44
45.71
21.29
-4.59
-23.21
-28.99
-21.58
-5.89
9.9
18.41
16.04
4.79
-9.8
-22.23
-30.09
-35.62
-43.21
-56.25
-73.97
-91.01
-99.34
-92.38
-68.85
-34.44
-0.29
21.71
24.43
9.3
-14.11
-32.4
-35.23
-20.43
5.55
31.16
46.67
49.31
43.6
37.87
38.67
46.97
57.95
64.26
60.34
45.87
25.81
7.87
-0.77
2.94
16.78
34.43
48.24
53.04
48.2
37.1
24.75
14.87
8.27
3.19
-2.96
-11.48
-21.48
-30.42
-35.55
-35.38
-30.1
-21.73
-12.72
-4.95
0.81
4.96
8.56
12.47
16.77
20.73
23.16
23.12
20.5
16.01
10.79
6.11
2.71
0.69
-0.31
-0.99
-1.67
-2.19
-1.81
0.25
4.8
12.26
21.94
31.69
38.68
40.12
34.34
21.66
4.12
-14.4
-30.15
-40.89
-46.93
-51.04
-56.88
-67.76
-84.86
-107.16
-131.04
-151.32
-162.77
-161.11
-144.16
-112.68
-70.63
-22.72
21.62
53.36
67.38
63.85
47.63
25.46
3.16
-15.84
-30.07
-39.36
-43.01
-39.88
-29.39
-11.97
10.8
36.86
63.53
87.21
102.83
105.43
92.36
65.1
29.9
-4.09
-28.11
-36.74
-29.11
-8.58
19.54
49.49
75.97
95.04
104.93
107.2
106.88
111.0
125.44
151.67
184.77
214.29
228.37
219.29
187.9
143.96
102.09
75.35
69.92
83.24
106.49
129.54
145.58
153.02
153.69
149.58
140.28
123.0
94.77
55.16
7.3
-43.29
-90.96
-132.31
-167.31
-198.45
-229.19
-262.16
-298.22
-336.58
-374.72
-408.59
-433.05
-443.22
-435.58
-408.66
-363.03
-301.02
-227.25
-147.94
-70.19
-1.47
51.06
82.75
93.55
88.59
76.07
62.35
50.92
43.91
44.14
55.4
81.15
121.78
172.07
220.83
252.08
252.67
219.01
158.76
85.35
11.42
-55.28
-112.6
-148.88
-154.62
-132.3
-95.18
-54.68
-16.04
19.05
49.38
73.83
92.01
102.79
106.22
103.61
99.24
95.76
93.07
89.03
81.2
68.04
47.96
24.3
0.35
-20.0
-34.55
-43.15
-47.2
-48.45
-48.04
-47.38
-47.36
-48.31
-49.04
-47.95
-43.61
-35.37
-23.74
-10.78
0.04
5.57
4.35
-2.08
-10.34
-17.02
-20.2
-20.1
-18.42
-17.18
-17.46
-19.07
-20.85
-21.68
-21.3
-20.29
-19.68
-20.3
-22.6
-26.22
-30.37
-34.21
-36.98
-38.36
-38.62
-38.63
-39.51
-42.16
-46.89
-53.09
-59.89
-66.05
-70.79
-73.83
-75.68
-77.2
-79.02
-82.13
-85.52
-88.78
-91.26
-91.49
-86.81
-73.61
-48.8
-11.78
34.08
82.09
123.55
151.58
163.27
160.17
146.6
127.27
105.4
81.7
57.58
33.88
12.21
-5.51
-17.91
-25.11
-28.39
-29.55
-30.25
-30.79
-30.78
-29.1
-24.59
-16.72
-5.92
6.64
19.66
32.15
43.85
53.93
63.06
71.85
80.52
88.59
95.26
99.75
101.69
101.18
99.67
96.96
93.34
89.18
84.33
78.52
71.54
63.28
53.84
43.44
32.33
20.0
7.69
-4.17
-15.32
-25.56
-34.68
-42.49
-48.83
-53.71
-57.19
-59.29
-60.4
-60.81
-60.84
-60.6
-60.18
-59.52
-58.66
-57.66
-56.53
-55.56
-54.89
-54.71
-55.0
-55.52
-56.03
-56.33
-56.25
-55.6
-54.35
-52.21
-48.72
-43.17
-34.78
-23.07
-8.19
9.05
27.26
44.29
58.86
70.21
78.46
84.45
89.22
93.49
97.39
100.44
101.96
101.94
100.16
97.27
94.38
92.55
92.62
95.25
100.65
108.15
115.49
119.03
113.93
96.87
67.71
30.37
-8.39
-41.53
-64.5
-76.69
-80.84
-80.95
-79.97
-78.91
-77.25
-74.36
-70.42
-66.42
-63.13
-60.48
-57.42
-52.79
-46.33
-38.87
-32.09
-27.53
-25.67
-25.64
-25.78
-24.5
-20.97
-15.57
-9.08
-2.49
3.36
7.88
10.67
11.44
10.16
7.12
2.47
-3.08
-8.8
-14.22
-19.17
-23.7
-27.96
-32.05
-35.83
-39.47
-42.54
-44.49
-44.97
-43.85
-41.22
-37.41
-32.72
-24.27
-13.22
-0.71
12.46
25.81
39.08
52.12
64.5
75.92
86.23
94.92
102.0
107.65
112.1
115.7
118.94
121.63
123.72
125.36
126.33
126.73
126.7
126.31
125.76
125.39
124.54
123.0
120.76
117.61
113.33
107.68
100.59
92.37
83.85
74.7
65.25
55.91
46.72
36.46
23.24
4.75
-22.0
-50.58
-78.72
-104.62
-127.11
-145.81
-162.47
-179.05
-196.55
-214.24
-230.53
-245.66
-260.3
-275.89
-293.46
-315.07
-340.2
-364.77
-382.13
-386.08
-374.31
-347.16
-307.1
-256.85
-202.39
-149.7
-104.19
-70.56
-52.99
-54.65
-74.28
-106.06
-121.83
-101.28
-41.72
40.22
122.3
189.09
234.95
262.28
275.14
280.37
277.8
264.9
239.87
203.21
156.47
100.31
41.81
-12.53
-56.92
-89.92
-110.17
-115.02
-101.55
-70.09
-25.99
21.92
63.77
93.45
108.22
110.03
103.65
94.49
86.43
81.15
78.37
75.1
67.64
51.62
25.17
-10.11
-48.85
-84.81
-113.47
-133.67
-147.22
-155.49
-157.78
-150.48
-129.36
-92.96
-45.11
5.67
49.56
79.15
92.9
94.5
90.8
88.7
93.17
106.65
129.82
162.34
199.74
236.4
264.78
276.77
266.44
232.54
180.17
119.83
63.93
22.32
-1.01
-9.7
-13.27
-22.92
-46.73
-86.4
-136.46
-186.55
-225.5
-244.84
-241.13
-215.35
-171.02
-112.52
-45.25
23.59
84.85
128.65
147.39
138.14
103.9
53.06
-3.45
-55.22
-94.76
-118.17
-125.12
-118.24
-102.03
-81.3
-58.58
-33.62
-5.16
26.16
55.78
76.01
79.69
64.15
33.74
-0.76
-26.9
-36.15
-26.99
-4.18
24.7
53.14
77.56
93.11
95.88
84.7
62.25
33.36
2.25
-28.33
-56.67
-81.56
-102.24
-117.78
-127.85
-133.02
-134.27
-133.05
-130.86
-127.57
-122.7
-115.77
-106.27
-93.94
-79.09
-62.18
-44.18
-26.04
-8.5
7.83
22.82
37.34
53.52
70.77
89.81
111.06
134.44
159.37
184.9
209.67
231.53
247.05
251.89
243.07
220.7
189.36
157.02
131.64
117.33
112.78
112.61
110.74
103.83
91.37
74.12
52.11
24.59
-7.79
-40.36
-64.27
-70.1
-53.21
-18.1
22.39
52.11
58.55
37.71
-5.33
-59.03
-109.53
-143.7
-151.56
-128.03
-74.58
-0.09
80.18
148.48
190.51
200.81
185.27
158.11
135.98
130.6
143.99
168.18
189.52
195.19
178.45
140.74
88.99
31.75
-25.1
-80.43
-137.03
-199.02
-268.18
-342.12
-413.94
-474.71
-514.83
-526.21
-504.6
-451.17
-372.87
-281.06
-188.98
-108.34
-48.02
-11.65
2.14
-2.15
-19.05
-43.34
-70.42
-96.35
-111.09
-107.94
-86.01
-51.03
-12.64
20.32
42.63
53.42
53.16
45.58
32.62
15.31
-5.24
-27.13
-47.55
-63.5
-70.13
-63.11
-44.24
-22.2
-6.96
-4.33
-14.21
-32.45
-53.84
-73.51
-88.35
-95.37
-92.46
-78.62
-54.94
-24.53
8.71
39.97
67.07
90.49
112.94
137.74
167.86
204.52
245.81
285.89
316.12
327.94
316.11
282.84
238.85
200.7
184.54
198.8
240.41
296.05
347.89
379.86
384.34
363.35
325.22
279.43
231.82
184.15
136.11
87.78
39.43
-6.34
-46.44
-79.48
-106.95
-133.64
-164.83
-203.65
-250.74
-305.59
-363.99
-418.45
-460.1
-481.29
-479.64
-457.9
-421.99
-370.12
-308.51
-247.51
-195.62
-158.62
-130.94
-108.15
-88.41
-69.19
-49.07
-28.67
-8.08
13.58
37.58
65.09
95.36
127.9
165.52
210.99
263.55
319.47
372.33
414.44
439.02
441.63
409.72
344.04
258.53
173.03
103.21
54.34
23.66
5.85
-3.81
-8.01
-6.12
1.56
12.21
22.11
28.38
30.72
30.83
30.84
32.21
37.01
45.51
55.65
64.67
70.12
71.56
70.16
67.6
65.37
65.28
68.07
73.24
79.8
86.42
92.91
99.91
108.18
117.94
129.05
140.34
149.26
157.15
163.19
166.65
167.15
164.46
158.41
148.96
136.12
120.01
100.96
78.92
54.44
28.41
1.72
-24.76
-50.39
-74.53
-96.48
-115.38
-130.75
-141.88
-148.06
-148.82
-144.16
-134.55
-120.83
-104.08
-85.22
-65.36
-45.33
-25.9
-8.02
7.0
17.64
22.5
20.76
12.53
-1.2
-18.73
-38.19
-58.32
-78.86
-100.47
-124.28
-151.02
-180.44
-211.25
-241.66
-270.09
-296.03
-320.23
-344.34
-370.25
-399.62
-433.64
-472.82
-516.53
-562.14
-604.53
-636.48
-650.54
-641.58
-608.81
-556.28
-491.3
-421.95
-354.61
-293.06
-238.95
-192.93
-155.37
-126.03
-103.23
-83.0
-59.52
-26.87
18.44
74.94
135.73
189.62
224.61
231.89
208.76
159.84
95.45
28.14
-31.17
-75.64
-102.96
-113.9
-110.39
-94.19
-66.77
-30.13
12.2
55.03
92.61
120.56
137.68
146.91
153.95
165.22
185.57
216.68
256.68
300.81
342.52
375.19
394.08
397.08
386.22
367.87
350.99
343.89
350.29
367.43
386.75
397.01
387.33
352.34
295.22
227.38
164.2
118.8
96.88
95.17
103.64
108.26
98.15
70.09
29.16
-15.15
-54.35
-84.3
-104.66
-116.92
-125.06
-132.62
-142.06
-155.2
-175.15
-207.04
-256.12
-323.91
-389.03
-425.04
-413.68
-357.06
-273.32
-184.46
-108.07
-53.9
-22.75
-8.44
-4.71
-6.86
-12.26
-19.01
-25.31
-29.74
-31.33
-29.95
-24.44
-16.58
-9.1
-4.06
-1.36
0.63
3.37
7.32
12.58
19.09
25.38
30.33
34.11
38.66
46.82
61.23
80.27
102.53
126.58
150.56
173.48
196.01
220.59
250.5
287.54
330.13
372.88
407.02
421.97
409.39
367.03
300.38
221.16
142.85
75.96
25.33
-10.06
-35.64
-57.62
-79.9
-103.18
-125.37
-143.27
-153.62
-153.42
-140.39
-114.92
-80.67
-44.12
-13.11
6.13
10.8
2.41
-16.37
-37.9
-53.36
-57.71
-51.35
-38.03
-20.56
-0.66
19.84
38.09
51.05
56.03
52.21
42.33
28.78
14.62
1.44
-11.32
-26.05
-45.61
-73.05
-110.75
-155.27
-202.07
-244.37
-274.08
-283.84
-269.95
-234.5
-185.92
-136.08
-95.91
-71.74
-63.0
-64.01
-67.53
-68.23
-64.42
-58.22
-51.37
-44.93
-39.05
-32.9
-25.39
-15.58
-2.7
14.06
35.36
60.87
88.01
111.17
122.61
114.84
83.8
31.15
-35.34
-103.81
-162.06
-201.54
-217.54
-212.0
-192.32
-167.88
-146.67
-133.12
-127.88
-129.21
-134.7
-142.39
-151.14
-159.77
-166.33
-168.53
-164.58
-154.14
-138.69
-120.93
-103.93
-89.94
-79.37
-70.68
-61.1
-48.0
-30.01
-7.78
16.28
38.96
57.56
71.17
81.27
91.07
104.09
122.49
145.99
171.93
196.56
216.8
231.63
242.47
252.1
263.06
276.34
291.25
306.33
320.16
331.82
340.36
344.07
340.56
328.06
307.33
282.37
258.91
240.89
227.56
213.16
190.09
153.86
106.63
56.92
15.46
-10.53
-21.27
-24.19
-29.7
-45.61
-73.04
-105.73
-133.0
-144.54
-134.91
-105.87
-65.68
-25.88
3.15
15.75
12.12
-2.69
-21.61
-38.59
-50.43
-57.07
-60.07
-60.53
-57.27
-46.83
-25.09
9.93
55.83
105.46
148.81
176.64
183.94
171.9
147.24
119.72
98.65
90.03
95.03
110.21
129.08
144.52
151.24
147.2
133.43
112.18
84.84
50.96
8.79
-42.84
-102.91
-167.68
-231.61
-288.96
-335.27
-368.39
-388.74
-399.02
-403.29
-405.24
-406.51
-405.67
-398.95
-382.37
-354.37
-317.13
-275.88
-236.41
-202.25
-173.29
-146.4
-117.78
-85.24
-49.31
-12.59
21.86
52.25
78.94
103.96
129.94
159.01
192.46
230.94
274.61
322.73
372.72
419.49
455.99
475.23
473.12
450.71
414.17
372.58
334.5
305.26
286.3
276.17
272.31
272.08
272.76
271.14
263.51
246.69
219.23
182.27
139.0
93.23
47.99
4.68
-36.57
-76.25
-114.64
-151.77
-187.74
-222.94
-258.22
-294.8
-334.32
-378.49
-428.14
-482.07
-535.99
-582.78
-614.24
-624.0
-610.08
-575.79
-528.44
-476.39
-426.23
-381.25
-341.81
-306.88
-275.43
-246.97
-221.14
-196.98
-172.78
-146.67
-117.47
-85.37
-51.8
-18.78
12.04
40.09
66.17
92.08
119.77
150.36
183.58
217.35
248.29
272.74
287.95
293.05
289.33
279.76
267.89
256.85
248.33
242.41
237.93
233.37
227.66
220.44
211.95
202.37
191.68
179.36
164.79
147.78
129.11
110.53
94.06
81.41
73.02
68.78
67.51
67.42
66.95
65.55
64.22
64.71
69.16
78.51
93.7
114.07
137.43
160.53
179.88
192.74
197.1
193.29
183.0
171.72
165.07
166.79
177.39
194.09
212.7
228.41
239.49
246.16
253.82
268.37
293.84
330.46
374.6
420.66
461.63
493.86
492.98
445.08
351.76
232.22
112.87
13.09
-52.08
-91.99
-116.62
-132.72
-140.6
-139.79
-132.38
-122.48
-115.58
-116.0
-126.58
-145.51
-169.55
-192.89
-211.14
-222.49
-228.24
-231.61
-235.66
-242.87
-252.46
-262.63
-269.77
-270.78
-264.07
-250.04
-230.79
-208.91
-187.23
-166.78
-147.74
-128.96
-109.0
-86.99
-63.34
-39.99
-19.98
-6.79
-2.64
-8.0
-21.02
-38.08
-55.17
-69.27
-79.54
-87.4
-95.69
-107.41
-124.62
-148.27
-178.04
-212.25
-247.45
-278.32
-298.8
-304.01
-292.68
-267.85
-235.52
-201.47
-168.07
-133.02
-90.83
-36.52
30.58
105.08
176.83
234.47
269.55
279.15
266.01
236.92
199.71
161.0
124.56
91.48
61.07
32.44
5.89
-16.96
-33.64
-42.2
-42.49
-36.77
-29.25
-24.62
-26.41
-35.6
-50.81
-69.57
-90.19
-113.01
-140.09
-173.52
-213.21
-255.59
-294.41
-323.15
-337.81
-338.61
-329.53
-316.23
-303.36
-292.79
-283.4
-272.59
-258.21
-239.78
-218.68
-197.17
-177.12
-159.29
-143.41
-128.66
-114.27
-99.73
-84.59
-68.23
-49.56
-27.01
1.24
36.55
78.94
126.1
173.09
213.15
239.39
247.04
235.12
206.85
168.44
126.93
87.87
53.9
24.83
-1.44
-27.06
-53.12
-79.06
-102.97
-122.39
-135.08
-139.54
-135.56
-124.99
-111.8
-101.63
-100.1
-110.46
-131.56
-157.59
-179.68
-189.33
-181.9
-157.89
-121.81
-79.49
-35.62
7.31
48.33
86.89
122.09
152.37
177.33
199.3
223.34
255.15
297.49
347.71
397.42
435.07
449.61
435.49
395.73
340.99
284.82
238.39
206.8
188.91
179.73
172.18
159.8
138.07
104.34
57.1
-3.71
-75.47
-151.55
-216.93
-256.75
-266.12
-252.87
-230.76
-211.34
-199.88
-195.76
-196.4
-197.44
-197.28
-196.23
-194.49
-190.99
-184.12
-172.92
-157.63
-140.33
-123.1
-108.25
-96.89
-88.36
-80.72
-72.03
-61.58
-49.82
-37.87
-26.41
-15.88
-5.9
5.21
20.1
41.97
72.86
112.13
155.24
194.54
221.38
230.14
221.18
200.94
178.82
162.61
155.27
154.69
156.61
157.89
158.72
162.26
172.5
191.66
218.92
250.28
279.5
299.1
301.31
279.31
229.18
151.55
52.51
-57.17
-164.08
-255.13
-320.68
-356.3
-363.23
-347.26
-316.51
-279.24
-242.07
-209.24
-182.82
-163.2
-149.6
-140.07
-131.76
-121.6
-107.24
-88.04
-65.31
-41.89
-20.56
-3.25
9.94
20.48
30.79
43.37
60.39
83.83
115.4
155.78
203.35
252.87
295.26
319.57
316.88
284.42
227.59
158.11
89.32
30.98
-13.56
-46.51
-72.11
-92.78
-107.69
-113.77
-108.64
-92.5
-68.18
-38.96
-6.54
29.47
69.87
112.62
151.47
177.98
186.39
178.12
162.44
152.47
157.96
179.53
207.28
225.56
220.49
186.3
127.93
58.36
-6.32
-52.13
-70.98
-62.4
-33.4
3.32
32.93
43.36
29.38
-5.34
-50.02
-91.33
-118.81
-127.88
-119.99
-100.1
-73.22
-42.48
-8.92
27.32
66.09
106.87
149.33
193.42
238.93
284.54
326.86
360.75
380.92
384.28
371.98
349.41
323.97
302.38
288.62
283.48
285.13
290.38
295.4
296.36
289.81
272.84
243.81
203.03
152.72
96.38
37.81
-19.93
-74.83
-125.73
-172.44
-215.08
-253.52
-287.06
-314.59
-335.14
-348.3
-355.32
-355.83
-349.21
-335.57
-316.33
-293.63
-269.3
-244.46
-219.42
-193.74
-166.79
-138.86
-111.2
-85.71
-64.33
-48.4
-37.91
-32.74
-31.95
-34.47
-39.87
-48.71
-62.16
-81.26
-104.7
-130.89
-158.55
-186.34
-212.05
-232.09
-241.5
-235.27
-210.7
-169.53
-118.56
-67.51
-25.22
3.47
18.74
24.39
25.21
24.51
23.43
21.47
18.14
14.1
10.93
9.98
11.48
14.3
16.71
17.06
14.68
10.12
4.88
0.57
-1.81
-2.26
-1.7
-1.45
-2.63
-5.66
-10.19
-15.21
-19.72
-23.11
-25.38
-27.1
-29.05
-31.88
-35.86
-40.78
-46.03
-51.02
-55.27
-58.54
-60.73
-61.79
-61.59
-59.84
-56.48
-50.99
-43.19
-33.2
-21.49
-8.76
4.18
16.51
27.53
36.71
43.79
48.65
51.42
52.35
51.85
50.36
48.33
46.11
43.99
42.13
40.56
39.22
38.06
36.99
35.99
35.1
34.36
33.78
33.39
33.12
32.97
32.99
33.32
34.09
35.36
37.06
38.95
40.78
42.37
43.81
45.56
48.29
52.43
57.88
63.91
69.37
73.4
76.18
79.19
84.58
93.73
105.79
117.41
123.74
120.23
104.56
77.41
42.34
4.6
-30.05
-56.32
-69.95
-68.24
-50.8
-19.8
19.04
57.35
86.92
103.04
106.72
104.19
103.49
109.9
122.79
135.35
137.83
122.29
86.41
34.64
-23.57
-77.36
-117.93
-140.52
-144.81
-133.86
-112.75
-87.59
-64.56
-48.98
-44.32
-51.41
-68.15
-89.99
-111.04
-125.84
-131.03
-126.29
-114.21
-99.02
-84.84
-74.26
-67.97
-65.05
-63.85
-62.8
-60.74
-56.98
-51.22
-43.46
-34.13
-24.14
-14.75
-7.28
-2.86
-2.22
-5.68
-13.05
-23.44
-35.17
-45.92
-53.59
-57.36
-58.53
-60.41
-67.03
-81.22
-103.09
-129.66
-155.96
-177.05
-189.59
-192.53
-186.73
-174.06
-156.57
-136.3
-115.31
-95.7
-79.11
-66.08
-55.2
-43.21
-26.09
-1.25
30.72
65.57
97.1
120.25
133.74
140.49
145.5
152.41
160.98
167.4
167.2
158.73
144.85
131.57
124.52
125.78
133.03
141.37
146.51
146.76
142.95
136.48
127.41
113.68
92.16
60.33
17.52
-34.98
-94.53
-157.49
-219.14
-273.3
-312.8
-331.09
-324.65
-294.91
-248.25
-194.11
-141.71
-97.21
-62.59
-36.14
-13.99
8.21
34.43
67.34
107.48
152.47
196.51
231.11
247.28
238.63
204.53
151.28
90.71
36.31
-1.39
-18.16
-16.61
-3.81
12.42
26.89
38.44
49.17
62.33
80.28
103.34
129.7
156.32
179.8
197.32
207.38
210.37
208.52
205.22
203.44
204.44
207.2
208.81
206.01
196.69
180.77
160.0
136.96
114.1
93.03
74.54
58.69
44.91
32.06
18.46
2.13
-18.71
-45.0
-76.14
-109.81
-142.43
-170.38
-191.52
-206.34
-217.98
-230.86
-248.36
-270.76
-294.5
-313.68
-322.63
-318.7
-303.25
-280.39
-254.55
-228.28
-201.82
-174.16
-144.65
-113.78
-82.89
-53.14
-24.83
2.18
27.24
47.86
59.78
58.57
41.94
11.63
-26.08
-62.18
-88.18
-99.37
-96.75
-86.4
-76.46
-73.21
-78.22
-88.1
-96.89
-99.77
-95.7
-87.6
-80.27
-77.32
-79.4
-84.31
-88.75
-90.09
-87.23
-80.08
-68.64
-52.64
-31.81
-6.67
20.98
48.47
73.5
95.45
115.87
137.74
163.68
194.11
226.27
254.47
271.6
271.36
250.44
209.88
155.01
94.23
37.21
-7.16
-32.45
-36.2
-20.73
7.11
37.77
62.01
74.18
74.0
66.19
57.73
54.54
58.73
68.27
78.7
85.86
87.88
85.54
80.78
75.0
68.17
59.13
46.56
29.98
10.08
-11.46
-32.17
-49.16
-59.56
-61.29
-53.91
-38.86
-19.25
0.9
17.72
28.08
29.88
22.09
5.07
-19.18
-46.79
-72.64
-91.84
-101.42
-101.34
-93.78
-81.29
-65.12
-44.86
-19.6
10.2
41.88
71.37
94.95
110.84
119.32
121.42
117.23
105.46
84.71
55.61
22.31
-8.36
-29.67
-38.28
-35.96
-28.7
-23.62
-25.52
-34.86
-48.08
-60.13
-67.27
-68.83
-67.11
-65.54
-66.5
-69.85
-72.9
-71.89
-64.02
-49.11
-29.91
-11.04
3.08
9.93
9.69
4.62
-2.33
-8.69
-12.84
-13.7
-10.29
-1.67
12.31
30.3
49.2
64.97
74.14
75.06
68.34
56.31
42.15
28.99
19.53
15.66
18.23
26.58
38.43
50.35
58.82
61.49
58.0
49.96
40.47
33.16
31.11
35.92
46.96
61.28
74.38
81.78
80.64
70.67
53.64
32.22
8.67
-15.37
-38.21
-57.34
-69.31
-70.81
-60.32
-39.33
-12.19
15.31
38.03
53.14
60.67
62.92
62.99
63.41
65.03
66.51
64.81
56.5
39.49
14.48
-14.76
-42.62
-63.7
-74.9
-76.14
-69.58
-57.98
-43.3
-26.43
-7.93
10.86
27.4
38.62
42.07
37.11
25.04
8.37
-10.18
-28.29
-44.22
-56.62
-64.5
-67.37
-65.36
-59.18
-49.68
-37.46
-22.89
-6.6
10.05
24.62
34.0
35.27
26.82
9.12
-14.87
-40.08
-60.32
-69.97
-65.74
-48.02
-21.03
8.35
32.93
47.57
50.63
43.88
31.14
16.5
3.0
-7.76
-15.15
-18.83
-18.29
-12.82
-2.09
13.15
30.55
46.37
56.48
57.81
49.73
34.44
16.09
-1.06
-14.33
-23.36
-29.51
-34.37
-38.47
-41.01
-40.64
-36.64
-29.7
-21.78
-15.21
-11.73
-11.81
-14.82
-19.52
-24.71
-29.56
-33.69
-36.97
-39.26
-40.44
-40.46
-39.42
-37.49
-34.7
-30.72
-24.93
-16.85
-6.75
3.87
12.56
16.69
14.55
6.06
-7.2
-22.68
-37.84
-50.76
-60.39
-66.31
-68.59
-67.62
-64.18
-59.21
-53.47
-47.36
-40.74
-33.34
-25.13
-16.63
-8.61
-1.59
4.59
10.85
18.36
27.98
39.81
53.2
66.97
79.76
90.29
97.62
101.3
101.72
100.18
98.66
99.27
103.63
112.21
124.13
136.96
147.12
150.59
144.0
125.87
97.41
62.5
26.53
-5.21
-29.22
-44.59
-52.74
-56.34
-58.11
-59.87
-62.33
-65.49
-69.11
-72.96
-76.88
-80.43
-82.82
-83.03
-80.23
-74.53
-67.18
-60.21
-55.22
-52.02
-48.25
-40.44
-26.19
-6.1
15.86
34.04
43.99
44.8
39.41
32.78
28.77
27.99
27.53
22.88
10.68
-9.4
-34.51
-60.31
-83.15
-101.75
-117.1
-131.19
-145.36
-159.2
-170.69
-177.46
-178.24
-173.48
-164.95
-154.57
-143.65
-132.95
-123.43
-116.71
-114.74
-118.4
-126.11
-133.66
-135.46
-126.85
-105.81
-73.57
-33.73
9.07
50.26
85.99
113.65
132.26
142.74
147.28
147.93
145.17
137.55
122.87
100.51
72.99
45.78
25.0
14.37
13.59
18.83
25.24
29.56
31.25
31.71
32.42
33.53
33.72
31.28
25.52
17.43
9.42
4.2
3.56
7.6
14.83
22.9
29.71
34.2
36.56
37.83
39.09
40.89
42.97
44.61
45.09
44.17
42.11
39.53
37.16
35.57
35.15
35.97
37.72
39.75
41.11
40.87
38.5
33.98
27.74
20.34
12.23
3.73
-4.84
-12.95
-19.99
-25.59
-29.97
-34.02
-38.98
-45.79
-54.46
-63.96
-72.55
-78.42
-80.49
-78.7
-74.0
-67.9
-61.92
-57.2
-54.33
-53.17
-52.88
-51.9
-48.04
-38.75
-21.76
4.11
38.11
77.31
116.99
151.67
176.47
188.19
185.85
170.51
144.78
112.15
76.49
41.78
11.83
-10.25
-22.8
-26.21
-22.9
-16.45
-10.07
-5.33
-1.69
2.7
9.51
18.8
28.66
36.02
38.27
34.63
26.61
17.21
9.37
4.66
2.89
2.59
2.2
0.9
-0.99
-2.58
-3.15
-2.8
-2.5
-3.63
-7.35
-13.97
-22.92
-32.87
-42.24
-49.59
-54.0
-55.23
-53.79
-50.66
-46.79
-42.57
-37.58
-30.78
-21.17
-8.57
5.95
20.28
32.08
39.76
42.99
42.64
40.12
36.56
32.42
27.55
21.7
14.99
7.95
1.32
-4.4
-9.23
-13.6
-17.98
-22.44
-26.48
-29.24
-29.93
-28.23
-24.4
-19.12
-13.17
-7.12
-1.23
4.47
9.99
15.26
20.06
24.14
27.36
29.74
31.42
32.55
33.22
33.38
33.04
32.26
31.27
30.29
29.45
28.64
27.59
25.92
23.41
20.07
16.1
11.83
7.66
3.87
0.61
-2.12
-4.48
-6.69
-8.96
-11.4
-13.97
-16.45
-18.58
-20.09
-20.79
-20.56
-19.32
-17.07
-13.93
-10.15
-6.08
-2.13
1.38
4.31
6.61
8.34
9.52
10.14
10.14
9.54
8.51
7.33
6.33
5.7
5.46
5.35
4.99
4.02
2.3
0.06
-2.2
-3.92
-4.78
-4.91
-4.8
-5.15
-6.53
-9.14
-12.76
-16.84
-20.78
-24.08
-26.42
-27.62
-27.55
-26.06
-23.1
-18.75
-13.3
-7.25
-1.2
4.29
8.83
12.28
14.73
16.39
17.46
18.02
18.02
17.35
15.98
14.05
11.92
10.0
8.62
7.81
7.4
7.03
6.45
5.56
4.5
3.47
2.6
1.89
1.2
0.37
-0.68
-1.97
-3.53
-5.38
-7.6
-10.18
-12.94
-15.53
-17.41
-18.12
-17.42
-15.35
-12.2
-8.4
-4.32
-0.25
3.61
7.07
9.93
11.98
13.15
13.51
13.35
13.03
12.84
12.87
13.03
13.09
12.85
12.21
11.22
10.06
8.93
7.98
7.29
6.78
6.26
5.52
4.39
2.79
0.81
-1.36
-3.54
-5.66
-7.8
-10.18
-13.05
-16.45
-20.19
-23.81
-26.72
-28.42
-28.77
-27.98
-26.54
-25.01
-23.82
-23.08
-22.62
-22.12
-21.17
-19.5
-16.99
-13.74
-10.02
-6.28
-3.02
-0.56
1.15
2.61
4.64
7.98
12.89
18.88
24.9
29.66
32.15
31.98
29.4
25.13
19.97
14.64
9.69
5.6
2.72
1.24
1.03
1.52
1.8
0.98
-1.54
-5.75
-11.11
-16.81
-22.12
-26.63
-30.25
-32.97
-34.64
-34.84
-33.04
-28.91
-22.54
-14.47
-5.55
3.35
11.41
17.92
22.29
24.18
23.64
21.32
18.23
15.52
13.95
13.64
14.1
14.6
14.64
14.18
13.67
13.74
14.86
17.05
19.85
22.41
23.9
23.85
22.29
19.81
17.22
15.07
13.49
12.16
10.66
8.84
7.01
5.8
5.74
6.85
8.57
9.87
9.73
7.46
2.95
-3.33
-10.5
-17.5
-23.3
-27.11
-28.53
-27.6
-24.82
-20.93
-16.69
-12.65
-8.98
-5.51
-1.87
2.23
6.7
11.06
14.55
16.4
16.13
13.71
9.53
4.32
-0.95
-5.11
-6.88
-5.24
0.2
8.78
18.73
27.56
32.92
33.34
28.79
20.54
10.78
1.88
-4.18
-6.24
-4.14
1.28
8.42
15.35
20.41
22.63
21.98
19.17
15.22
11.01
7.08
3.6
0.61
-1.87
-3.77
-5.15
-6.2
-7.2
-8.39
-9.75
-10.98
-11.56
-11.0
-9.13
-6.15
-2.63
0.76
3.46
5.25
6.22
6.71
7.04
7.33
7.44
7.06
5.89
3.85
1.14
-1.83
-4.61
-6.88
-8.55
-9.69
-10.44
-10.95
-11.27
-11.47
-11.66
-11.99
-12.59
-13.48
-14.52
-15.45
-16.02
-16.09
-15.67
-14.91
-14.04
-13.28
-12.84
-12.93
-13.79
-15.53
-18.1
-21.17
-24.2
-26.52
-27.67
-27.53
-26.36
-24.73
-23.18
-22.09
-21.44
-20.96
-20.29
-19.18
-17.56
-15.53
-13.24
-10.86
-8.43
-5.88
-2.89
1.12
6.95
15.3
26.2
38.73
50.99
60.65
65.85
65.97
61.76
54.91
47.11
39.26
31.3
22.62
12.74
1.8
-9.42
-19.93
-28.93
-36.19
-41.93
-46.58
-50.42
-53.51
-55.69
-56.79
-56.77
-55.73
-53.88
-51.41
-48.36
-44.68
-40.3
-35.25
-29.73
-24.04
-18.48
-13.19
-8.21
-3.54
0.78
4.65
8.04
11.13
14.24
17.68
21.55
25.55
29.12
31.65
32.71
32.24
30.56
28.25
25.91
24.0
22.7
21.84
21.03
19.82
17.98
15.58
12.98
10.5
8.21
5.79
2.74
-1.32
-6.29
-11.48
-15.78
-18.14
-17.98
-15.34
-10.84
-5.17
1.18
8.03
15.33
22.71
29.33
33.91
35.31
33.0
27.56
20.45
13.52
8.39
5.95
6.35
9.23
13.91
19.6
25.45
30.63
34.47
36.6
37.07
36.28
34.85
33.22
31.47
29.18
25.61
20.11
12.51
3.51
-5.47
-12.67
-16.83
-17.77
-16.51
-14.85
-14.59
-16.72
-21.21
-27.3
-34.03
-40.68
-46.86
-52.26
-56.55
-59.36
-60.53
-60.36
-59.51
-58.65
-58.0
-57.17
-55.37
-52.07
-47.53
-42.89
-39.61
-38.46
-38.81
-38.6
-35.22
-26.79
-13.21
3.64
20.63
34.5
42.87
44.75
40.42
31.02
18.19
3.83
-10.09
-21.88
-30.43
-35.47
-37.42
-37.0
-34.86
-31.46
-27.18
-22.55
-18.16
-14.5
-11.63
-9.16
-6.46
-3.15
0.6
4.19
6.98
8.73
9.74
10.67
12.08
14.31
17.37
21.21
25.74
30.78
35.86
40.2
42.92
43.54
42.24
39.88
37.51
35.87
35.0
34.33
33.16
31.12
28.38
25.5
23.01
21.14
19.78
18.57
17.25
15.75
14.22
12.81
11.51
10.09
8.2
5.52
1.92
-2.49
-7.38
-12.38
-17.13
-21.39
-25.04
-28.06
-30.46
-32.24
-33.43
-34.08
-34.26
-33.96
-33.15
-31.63
-29.11
-25.33
-20.18
-13.85
-6.89
-0.11
5.72
10.11
13.09
15.04
16.48
17.75
18.79
19.25
18.74
17.14
14.76
12.21
10.13
8.9
8.5
8.56
8.5
7.74
5.91
2.99
-0.5
-3.51
-4.75
-3.07
1.94
9.65
18.53
26.61
32.22
34.51
33.6
30.35
25.91
21.25
17.02
13.42
10.36
7.58
4.72
1.43
-2.58
-7.49
-13.31
-19.84
-26.65
-33.14
-38.65
-42.56
-44.55
-44.64
-43.19
-40.82
-38.15
-35.57
-33.21
-30.92
-28.37
-25.3
-21.64
-17.53
-13.31
-9.33
-5.92
-3.25
-1.39
-0.39
-0.27
-1.05
-2.64
-4.78
-7.06
-8.98
-10.12
-10.32
-9.72
-8.78
-8.15
-8.45
-10.03
-12.76
-15.99
-18.78
-20.22
-19.89
-18.08
-15.72
-13.98
-13.8
-15.42
-18.39
-21.85
-25.0
-27.46
-29.39
-31.3
-33.74
-37.0
-40.9
-44.75
-47.43
-47.56
-43.68
-34.41
-18.78
3.36
30.87
61.18
90.53
114.84
130.78
136.71
133.08
121.87
105.66
86.52
65.71
43.97
22.23
2.09
-14.5
-26.03
-32.22
-34.28
-34.24
-33.95
-34.26
-34.84
-34.66
-32.92
-29.61
-25.61
-22.16
-20.26
-20.18
-21.54
-23.58
-25.61
-27.28
-28.63
-29.98
-31.62
-33.64
-35.78
-37.53
-38.27
-37.55
-35.29
-31.75
-27.4
-22.66
-17.73
-12.54
-6.87
-0.56
6.32
13.42
20.14
25.85
30.13
32.95
34.64
35.7
36.63
37.58
38.34
38.42
37.33
34.81
30.97
26.19
20.93
15.52
10.04
4.49
-1.02
-6.15
-10.33
-12.99
-13.76
-12.74
-10.48
-7.84
-5.68
-4.53
-4.51
-5.42
-6.89
-8.59
-10.29
-11.72
-12.54
-12.37
-10.94
-8.23
-4.56
-0.49
3.42
6.82
9.58
11.79
13.55
14.87
15.67
15.89
15.6
15.11
14.81
15.09
16.09
17.61
19.15
20.1
20.0
18.76
16.67
14.19
11.81
9.79
8.19
6.92
5.85
4.84
3.77
2.51
0.91
-1.16
-3.72
-6.72
-10.03
-13.5
-17.01
-20.39
-23.49
-26.22
-28.64
-30.96
-33.52
-36.55
-40.1
-43.93
-47.57
-50.39
-51.82
-51.39
-48.93
-44.75
-39.58
-34.47
-30.36
-27.75
-26.45
-25.75
-24.89
-23.43
-21.48
-19.45
-17.71
-16.27
-14.8
-12.86
-10.13
-6.54
-2.11
3.19
9.54
17.1
25.77
35.07
44.21
52.39
59.08
64.19
67.8
70.04
70.82
69.93
67.29
63.07
57.7
51.65
45.23
38.45
31.2
23.5
15.63
8.16
1.63
-3.62
-7.52
-10.24
-11.92
-12.6
-12.25
-10.92
-8.86
-6.46
-4.16
-2.25
-0.79
0.39
1.58
3.01
4.75
6.63
8.34
9.58
10.31
10.83
11.68
13.38
16.13
19.71
23.54
26.95
29.46
30.87
31.29
30.93
30.06
28.84
27.39
25.74
23.86
21.67
19.0
15.71
11.69
6.96
1.61
-4.1
-9.81
-15.07
-19.37
-22.26
-23.47
-22.96
-20.92
-17.78
-13.99
-9.96
-6.02
-2.4
0.72
3.2
4.98
6.06
6.5
6.42
5.91
5.09
4.08
3.08
2.26
1.76
1.66
1.87
2.2
2.44
2.42
2.06
1.41
0.57
-0.33
-1.25
-2.2
-3.25
-4.53
-6.16
-8.22
-10.68
-13.45
-16.3
-18.92
-20.92
-21.9
-21.53
-19.71
-16.61
-12.65
-8.37
-4.28
-0.7
2.25
4.6
6.45
7.88
8.98
9.92
10.97
12.44
14.61
17.52
20.97
24.51
27.56
29.64
30.43
29.88
28.15
25.52
22.27
18.56
14.5
10.17
5.77
1.63
-1.81
-4.23
-5.55
-6.02
-6.13
-6.44
-7.34
-8.97
-11.22
-13.83
-16.46
-18.77
-20.43
-21.16
-20.73
-19.07
-16.3
-12.71
-8.67
-4.58
-0.8
2.45
5.01
6.83
7.96
8.49
8.5
8.1
7.4
6.56
5.79
5.26
5.09
5.22
5.45
5.51
5.19
4.47
3.45
2.38
1.42
0.59
-0.22
-1.24
-2.57
-4.21
-5.98
-7.63
-8.96
-9.93
-10.67
-11.42
-12.42
-13.8
-15.53
-17.46
-19.4
-21.13
-22.42
-22.99
-22.56
-20.94
-18.15
-14.47
-10.37
-6.41
-3.0
-0.31
1.73
3.37
4.84
6.28
7.72
9.08
10.28
11.25
12.01
12.59
13.04
13.34
13.48
13.39
13.05
12.48
11.76
11.02
10.36
9.8
9.34
8.89
8.37
7.67
6.67
5.31
3.62
1.71
-0.24
-2.03
-3.56
-4.81
-5.83
-6.75
-7.68
-8.73
-10.01
-11.59
-13.4
-15.24
-16.73
-17.39
-16.84
-14.88
-11.63
-7.46
-2.9
1.5
5.3
8.23
10.22
11.38
11.88
11.94
11.68
11.21
10.61
10.02
9.58
9.39
9.46
9.67
9.85
9.85
9.63
9.28
8.91
8.61
8.37
8.08
7.59
6.83
5.76
4.46
3.03
1.59
0.19
-1.16
-2.56
-4.12
-5.96
-8.12
-10.58
-13.23
-15.95
-18.54
-20.8
-22.43
-23.12
-22.53
-20.43
-16.86
-12.13
-6.85
-1.69
2.73
6.08
8.3
9.52
9.95
9.75
9.06
8.03
6.84
5.7
4.76
4.01
3.33
2.57
1.65
0.62
-0.36
-1.2
-1.89
-2.49
-3.14
-3.92
-4.89
-6.05
-7.45
-9.1
-10.95
-12.9
-14.75
-16.39
-17.81
-19.1
-20.36
-21.58
-22.56
-22.99
-22.54
-21.0
-18.32
-14.62
-10.13
-5.19
-0.2
4.42
8.32
11.34
13.58
15.24
16.58
17.72
18.62
19.18
19.36
19.23
18.93
18.6
18.29
18.0
17.75
17.56
17.45
17.38
17.22
16.74
15.81
14.39
12.56
10.48
8.23
5.84
3.32
0.71
-1.88
-4.31
-6.56
-8.77
-11.19
-14.05
-17.34
-20.71
-23.57
-25.28
-25.42
-23.93
-21.14
-17.61
-13.92
-10.5
-7.58
-5.2
-3.33
-1.95
-1.11
-0.93
-1.54
-2.97
-5.13
-7.73
-10.42
-12.96
-15.22
-17.27
-19.21
-21.13
-23.04
-24.94
-26.86
-28.91
-31.23
-33.74
-36.07
-37.54
-37.41
-35.12
-30.51
-23.65
-14.74
-3.88
8.7
22.49
36.38
48.77
58.02
63.0
63.52
60.41
55.2
49.59
44.89
41.82
40.48
40.53
41.39
42.46
43.29
43.59
43.24
42.15
40.24
37.5
33.98
29.97
25.79
21.72
17.82
13.96
9.91
5.64
1.36
-2.53
-5.7
-8.03
-9.57
-10.47
-10.84
-10.75
-10.26
-9.59
-9.11
-9.22
-10.17
-11.89
-14.05
-16.16
-17.83
-18.98
-19.87
-20.96
-22.67
-25.13
-28.03
-30.71
-32.37
-32.43
-30.7
-27.46
-23.24
-18.55
-13.8
-9.18
-4.82
-0.86
2.5
5.06
6.66
7.31
7.18
6.53
5.69
4.87
4.14
3.45
2.66
1.63
0.33
-1.13
-2.59
-3.93
-5.19
-6.62
-8.55
-11.2
-14.61
-18.54
-22.63
-26.54
-30.0
-32.84
-34.9
-35.96
-35.79
-34.29
-31.59
-28.06
-24.16
-20.24
-16.43
-12.65
-8.68
-4.39
0.2
4.88
9.38
13.49
17.24
20.84
24.58
28.67
33.02
37.24
40.82
43.3
44.56
44.84
44.56
44.06
43.42
42.38
40.56
37.76
34.07
29.96
26.06
22.95
20.92
19.94
19.71
19.8
19.82
19.42
18.4
16.62
14.11
11.02
7.66
4.48
1.9
0.21
-0.47
-0.26
0.71
2.34
4.69
7.97
12.38
18.02
24.77
32.09
39.03
44.28
46.45
44.52
38.21
28.24
16.21
4.22
-5.87
-13.03
-17.39
-20.18
-23.02
-27.2
-32.96
-39.34
-44.54
-46.74
-44.84
-38.9
-30.11
-20.36
-11.71
-6.05
-4.68
-8.07
-15.65
-25.75
-35.97
-43.81
-47.48
-46.5
-41.73
-34.91
-27.84
-21.85
-17.42
-14.34
-11.89
-9.19
-5.43
-0.15
6.5
13.58
19.61
23.02
22.9
19.42
13.87
8.14
3.95
2.17
2.55
3.97
5.03
4.55
1.97
-2.58
-8.39
-14.41
-19.49
-22.64
-23.15
-20.82
-16.01
-9.67
-3.24
1.57
3.16
0.6
-5.96
-15.07
-24.38
-31.48
-34.8
-34.23
-31.04
-27.26
-24.78
-24.64
-26.91
-30.9
-35.48
-39.23
-40.59
-38.01
-30.39
-17.68
-1.17
16.71
33.13
45.94
54.36
58.97
61.16
62.23
62.77
62.59
61.13
57.97
53.22
47.48
41.54
36.14
31.73
28.44
26.16
24.66
23.53
22.31
20.48
17.57
13.34
7.86
1.58
-4.83
-10.63
-15.21
-18.19
-19.46
-19.17
-17.75
-15.78
-13.96
-12.8
-12.53
-12.95
-13.58
-13.94
-13.76
-13.09
-12.21
-11.45
-11.0
-10.91
-11.12
-11.56
-12.14
-12.73
-13.19
-13.41
-13.45
-13.58
-14.19
-15.59
-17.84
-20.71
-23.81
-26.79
-29.46
-31.77
-33.68
-35.07
-35.8
-35.81
-35.36
-34.95
-35.1
-36.1
-37.79
-39.61
-40.92
-41.4
-41.3
-41.47
-43.0
-46.68
-52.62
-59.99
-67.36
-73.05
-75.5
-73.52
-66.4
-54.0
-36.91
-16.57
4.88
25.06
42.0
54.75
63.53
69.31
73.07
75.18
75.36
73.18
68.72
62.95
57.44
53.62
52.16
52.78
54.62
56.77
58.66
59.96
60.23
58.59
53.89
45.22
32.61
17.27
1.37
-12.61
-22.6
-27.45
-26.98
-21.89
-13.49
-3.46
6.45
14.77
20.65
24.04
25.49
25.79
25.6
25.26
24.84
24.36
23.91
23.61
23.54
23.59
23.54
23.21
22.69
22.25
22.25
22.86
23.92
24.97
25.5
25.16
23.93
22.11
20.22
18.74
17.96
17.88
18.23
18.71
19.19
19.78
20.69
21.94
23.19
23.75
22.98
20.65
17.28
13.85
11.22
9.54
8.03
5.4
0.55
-6.77
-15.76
-25.01
-33.15
-39.51
-44.17
-47.84
-51.21
-54.69
-58.19
-61.18
-62.94
-62.89
-60.89
-57.29
-52.72
-47.66
-42.12
-35.62
-27.64
-18.14
-7.77
2.3
11.01
17.9
23.33
28.0
32.41
36.41
39.15
39.61
37.08
31.55
23.75
14.85
6.14
-1.3
-6.86
-10.47
-12.52
-13.64
-14.29
-14.59
-14.29
-13.02
-10.44
-6.35
-0.66
6.68
15.58
25.54
35.56
44.23
50.09
52.22
50.57
45.99
39.9
33.68
28.28
24.03
20.76
18.11
15.82
13.82
12.22
11.22
10.97
11.43
12.4
13.53
14.46
14.9
14.65
13.65
11.84
9.1
5.26
0.15
-6.24
-13.57
-21.21
-28.34
-34.31
-38.89
-42.33
-45.15
-47.79
-50.39
-52.65
-54.01
-53.93
-52.09
-48.54
-43.52
-37.52
-31.12
-24.98
-19.72
-15.76
-13.18
-11.68
-10.78
-10.06
-9.41
-9.03
-9.38
-10.87
-13.67
-17.52
-21.8
-25.6
-28.05
-28.55
-26.97
-23.62
-19.13
-14.11
-9.09
-4.39
-0.23
3.21
5.73
7.25
7.88
7.94
7.89
8.06
8.63
9.47
10.35
10.98
11.16
10.85
10.14
9.24
8.39
7.79
7.45
7.22
6.83
6.04
4.72
2.95
0.94
-1.09
-2.97
-4.65
-6.22
-7.76
-9.4
-11.23
-13.35
-15.72
-18.19
-20.41
-21.94
-22.4
-21.58
-19.5
-16.44
-12.81
-8.97
-5.18
-1.56
1.87
5.21
8.51
11.76
14.85
17.62
19.94
21.88
23.6
25.36
27.31
29.41
31.35
32.77
33.38
33.15
32.36
31.41
30.67
30.28
30.12
29.85
29.09
27.57
25.24
22.26
18.86
15.27
11.61
7.88
4.13
0.45
-3.0
-6.0
-8.47
-10.49
-12.32
-14.24
-16.4
-18.7
-20.73
-21.96
-21.95
-20.51
-17.77
-14.1
-9.98
-5.84
-2.03
1.25
3.87
5.77
6.95
7.53
7.67
7.56
7.35
7.06
6.61
5.96
5.11
4.19
3.4
2.95
2.96
3.37
4.01
4.61
4.96
4.94
4.55
3.89
3.13
2.39
1.7
0.95
-0.03
-1.39
-3.16
-5.2
-7.22
-8.89
-9.97
-10.38
-10.26
-9.87
-9.48
-9.3
-9.41
-9.72
-10.0
-9.92
-9.16
-7.62
-5.59
-3.81
-3.23
-4.62
-8.11
-12.95
-17.65
-20.47
-20.16
-16.39
-9.88
-1.99
5.88
12.79
18.39
22.73
25.85
27.56
27.53
25.54
21.82
17.07
12.28
8.33
5.76
4.58
4.51
5.19
6.29
7.59
8.86
9.88
10.47
10.6
10.34
9.9
9.4
8.82
8.08
7.07
5.78
4.35
2.93
1.6
0.27
-1.28
-3.3
-5.94
-9.23
-12.94
-16.67
-19.85
-21.86
-22.23
-20.82
-18.01
-14.61
-11.55
-9.54
-8.77
-8.93
-9.45
-9.88
-10.06
-10.08
-10.05
-9.95
-9.53
-8.61
-7.21
-5.67
-4.48
-3.97
-4.16
-4.74
-5.36
-5.82
-6.19
-6.65
-7.32
-8.08
-8.66
-8.84
-8.64
-8.36
-8.4
-9.09
-10.56
-12.73
-15.44
-18.37
-21.0
-22.6
-22.34
-19.57
-14.23
-6.93
1.11
8.53
14.3
17.96
19.67
19.94
19.34
18.32
17.21
16.25
15.64
15.58
16.16
17.37
19.01
20.83
22.54
23.91
24.83
25.37
25.66
25.84
25.99
26.04
25.88
25.36
24.43
23.09
21.44
19.5
17.25
14.5
11.12
7.02
2.33
-2.62
-7.34
-11.34
-14.24
-15.93
-16.56
-16.51
-16.18
-15.91
-15.82
-15.88
-15.9
-15.68
-14.99
-13.74
-11.93
-9.68
-7.18
-4.64
-2.21
0.0
1.99
3.82
5.56
7.2
8.63
9.61
9.94
9.42
8.03
5.88
3.22
0.34
-2.48
-4.98
-6.99
-8.44
-9.37
-9.95
-10.41
-10.92
-11.53
-12.12
-12.51
-12.57
-12.31
-11.84
-11.3
-10.73
-10.07
-9.13
-7.79
-6.09
-4.2
-2.4
-0.92
0.08
0.51
0.39
-0.1
-0.65
-0.74
0.22
2.74
6.93
12.41
18.29
23.39
26.59
27.08
24.59
19.37
12.09
3.68
-4.87
-12.7
-19.19
-24.06
-27.37
-29.4
-30.62
-31.45
-32.22
-33.04
-33.87
-34.53
-34.77
-34.42
-33.42
-31.9
-30.13
-28.42
-27.05
-26.13
-25.57
-25.17
-24.64
-23.74
-22.35
-20.52
-18.46
-16.45
-14.71
-13.31
-12.13
-10.87
-9.27
-7.11
-4.38
-1.17
2.28
5.7
8.82
11.4
13.22
14.14
14.08
13.03
11.18
8.84
6.52
4.76
3.93
4.05
4.8
5.61
5.93
5.53
4.49
3.17
1.95
1.07
0.63
0.64
1.11
2.05
3.37
4.88
6.34
7.59
8.6
9.49
10.38
11.28
12.11
12.75
13.18
13.53
13.96
14.56
15.24
15.78
15.99
15.86
15.6
15.54
15.94
16.86
18.12
19.37
20.25
20.53
20.13
19.15
17.78
16.26
14.87
13.83
13.26
13.1
13.1
12.77
11.54
8.96
4.86
-0.49
-6.39
-12.0
-16.74
-20.54
-23.99
-28.07
-33.74
-41.37
-50.6
-60.38
-69.43
-76.59
-80.94
-81.89
-79.1
-72.61
-62.99
-51.43
-39.45
-28.42
-19.08
-11.35
-4.56
1.96
8.41
14.35
19.02
21.83
22.8
22.5
21.68
20.92
20.36
19.84
19.17
18.41
17.85
17.82
18.46
19.48
20.32
20.39
19.43
17.64
15.52
13.63
12.23
11.19
10.15
8.77
6.99
5.03
3.24
1.84
0.74
-0.4
-1.93
-4.01
-6.49
-9.0
-11.16
-12.73
-13.6
-13.79
-13.34
-12.26
-10.58
-8.42
-6.0
-3.54
-1.25
0.74
2.36
3.55
4.27
4.55
4.48
4.24
4.0
3.89
3.89
3.9
3.71
3.18
2.28
1.14
-0.01
-0.88
-1.29
-1.17
-0.65
0.02
0.58
0.79
0.57
-0.08
-1.03
-2.1
-3.17
-4.11
-4.93
-5.75
-6.72
-7.99
-9.61
-11.45
-13.22
-14.57
-15.17
-14.84
-13.58
-11.6
-9.18
-6.66
-4.33
-2.38
-0.86
0.29
1.17
1.87
2.38
2.63
2.54
2.08
1.27
0.22
-0.94
-2.01
-2.74
-2.81
-1.96
-0.13
2.42
5.16
7.48
8.91
9.36
9.07
8.43
7.74
7.19
6.77
6.51
6.46
6.71
7.18
7.62
7.57
6.59
4.47
1.34
-2.35
-5.92
-8.72
-10.22
-10.16
-8.56
-5.74
-2.28
1.09
3.69
5.1
5.24
4.44
3.23
2.16
1.71
2.17
3.62
5.99
8.98
12.08
14.67
16.13
16.15
14.83
12.68
10.33
8.3
6.76
5.58
4.55
3.57
2.73
2.24
2.2
2.46
2.67
2.46
1.65
0.33
-1.22
-2.67
-3.89
-4.96
-6.07
-7.37
-8.88
-10.44
-11.79
-12.73
-13.19
-13.27
-13.14
-12.95
-12.76
-12.51
-12.1
-11.38
-10.32
-8.96
-7.48
-6.04
-4.78
-3.72
-2.81
-1.9
-0.89
0.31
1.65
3.06
4.41
5.59
6.52
7.21
7.64
7.9
8.02
8.08
8.17
8.3
8.43
8.46
8.24
7.65
6.72
5.54
4.29
3.09
1.99
0.87
-0.43
-2.07
-4.11
-6.49
-9.04
-11.52
-13.67
-15.21
-15.92
-15.62
-14.28
-12.06
-9.24
-6.18
-3.17
-0.42
1.98
4.04
5.76
7.11
8.04
8.5
8.55
8.34
8.1
8.04
8.3
8.84
9.51
10.09
10.37
10.24
9.7
8.79
7.61
6.24
4.75
3.22
1.74
0.36
-0.9
-2.17
-3.64
-5.56
-8.06
-11.1
-14.42
-17.56
-20.02
-21.37
-21.41
-20.15
-17.81
-14.64
-10.85
-6.64
-2.16
2.47
7.05
11.3
14.92
17.65
19.35
20.08
20.11
19.81
19.55
19.53
19.69
19.76
19.35
18.12
15.94
12.92
9.42
5.93
2.99
0.97
-0.01
-0.17
-0.07
-0.33
-1.51
-3.75
-6.78
-9.98
-12.74
-14.69
-15.98
-17.14
-18.85
-21.6
-25.41
-29.88
-34.23
-37.68
-39.57
-39.55
-37.71
-34.49
-30.56
-26.6
-23.09
-20.17
-17.66
-15.15
-12.11
-7.93
-1.99
6.11
16.37
28.16
40.19
50.88
58.87
63.54
65.22
64.98
64.05
63.24
62.66
61.83
60.08
56.98
52.45
46.75
40.2
33.02
25.32
17.25
9.11
1.45
-5.16
-10.37
-14.25
-17.27
-20.11
-23.33
-27.05
-30.88
-34.08
-35.82
-35.49
-32.95
-28.57
-23.17
-17.74
-13.11
-9.64
-7.19
-5.26
-3.29
-1.03
1.42
3.62
5.13
5.76
5.64
5.13
4.64
4.39
4.48
4.86
5.48
6.27
7.11
7.81
8.11
7.8
6.84
5.38
3.67
1.96
0.34
-1.24
-2.92
-4.86
-7.05
-9.38
-11.6
-13.37
-14.34
-14.22
-12.87
-10.35
-6.94
-3.08
0.74
4.12
6.83
8.83
10.23
11.21
11.87
12.3
12.48
12.37
11.95
11.23
10.26
9.15
8.05
7.1
6.48
6.27
6.48
6.97
7.48
7.66
7.24
6.1
4.33
2.18
0.01
-1.87
-3.34
-4.47
-5.48
-6.67
-8.26
-10.29
-12.55
-14.6
-15.93
-16.09
-14.84
-12.18
-8.37
-3.85
0.84
5.14
8.57
10.83
11.84
11.81
11.13
10.29
9.68
9.44
9.44
9.34
8.86
7.84
6.4
4.79
3.27
2.0
0.99
0.16
-0.52
-1.0
-1.27
-1.31
-1.22
-1.07
-0.85
-0.43
0.38
1.65
3.16
4.45
4.89
4.05
1.82
-1.43
-5.02
-8.1
-10.02
-10.38
-9.19
-6.74
-3.51
-0.04
3.23
6.01
8.16
9.72
10.75
11.36
11.67
11.78
11.82
11.89
12.04
12.26
12.48
12.59
12.49
12.19
11.84
11.64
11.76
12.26
12.97
13.53
13.51
12.55
10.49
7.41
3.6
-0.58
-4.78
-8.76
-12.37
-15.48
-18.01
-19.92
-21.2
-21.89
-22.01
-21.52
-20.34
-18.37
-15.64
-12.34
-8.81
-5.44
-2.48
0.0
2.08
3.86
5.36
6.49
7.09
7.05
6.4
5.32
4.03
2.74
1.6
0.7
0.04
-0.41
-0.73
-1.03
-1.44
-2.07
-2.96
-4.08
-5.38
-6.8
-8.34
-9.96
-11.6
-13.21
-14.76
-16.32
-17.98
-19.79
-21.62
-23.09
-23.64
-22.79
-20.33
-16.38
-11.38
-5.9
-0.42
4.74
9.44
13.56
16.95
19.41
20.8
21.04
20.26
18.76
16.93
15.13
13.63
12.57
11.92
11.63
11.6
11.75
11.99
12.24
12.42
12.41
12.14
11.54
10.51
8.97
6.79
3.92
0.42
-3.47
-7.36
-10.74
-13.15
-14.22
-13.79
-11.89
-8.75
-4.76
-0.43
3.69
7.14
9.61
11.02
11.44
11.13
10.3
9.12
7.73
6.2
4.68
3.35
2.34
1.69
1.3
0.99
0.56
-0.05
-0.78
-1.56
-2.28
-2.99
-3.74
-4.58
-5.49
-6.41
-7.32
-8.32
-9.6
-11.35
-13.57
-16.03
-18.29
-19.88
-20.41
-19.67
-17.67
-14.61
-10.81
-6.63
-2.44
1.42
4.72
7.3
9.12
10.13
10.37
9.87
8.74
7.14
5.27
3.33
1.52
0.01
-1.06
-1.58
-1.56
-1.09
-0.39
0.25
0.58
0.43
-0.2
-1.2
-2.37
-3.49
-4.44
-5.23
-6.0
-6.9
-8.04
-9.27
-10.31
-10.69
-10.04
-8.17
-5.17
-1.43
2.57
6.34
9.55
12.07
13.95
15.3
16.27
16.96
17.39
17.53
17.33
16.82
16.07
15.21
14.33
13.42
12.44
11.32
10.06
8.76
7.53
6.46
5.53
4.61
3.58
2.35
0.94
-0.65
-2.44
-4.52
-6.96
-9.68
-12.43
-14.85
-16.56
-17.31
-17.0
-15.65
-13.47
-10.73
-7.82
-5.11
-2.83
-0.96
0.76
2.66
4.88
7.23
9.15
10.05
9.58
7.95
5.83
4.07
3.29
3.62
4.75
6.04
6.88
6.88
5.95
4.2
1.9
-0.7
-3.35
-5.87
-8.12
-10.05
-11.69
-13.14
-14.58
-16.16
-18.0
-20.04
-22.14
-24.11
-25.74
-26.9
-27.48
-27.34
-26.27
-24.01
-20.31
-15.15
-8.81
-1.92
4.69
10.22
14.17
16.47
17.46
17.63
17.34
16.69
15.44
13.26
9.96
5.69
1.01
-3.34
-6.64
-8.53
-9.1
-8.84
-8.44
-8.5
-9.35
-10.95
-12.94
-14.86
-16.35
-17.31
-17.98
-18.81
-20.26
-22.64
-25.93
-29.8
-33.69
-36.95
-38.91
-39.11
-37.36
-33.9
-29.29
-24.25
-19.28
-14.45
-9.3
-3.09
4.68
13.94
23.91
33.39
41.18
46.54
49.27
49.55
47.78
44.31
39.52
33.92
28.23
23.37
20.2
19.27
20.59
23.57
27.22
30.37
32.12
31.98
30.06
26.91
23.35
20.1
17.58
15.76
14.29
12.7
10.68
8.22
5.57
2.98
0.6
-1.59
-3.63
-5.4
-6.5
-6.51
-5.18
-2.7
0.32
3.15
5.21
6.27
6.41
5.85
4.76
3.3
1.7
0.26
-0.72
-1.13
-1.13
-1.13
-1.51
-2.39
-3.59
-4.74
-5.54
-5.88
-5.86
-5.64
-5.32
-4.9
-4.36
-3.8
-3.39
-3.38
-3.9
-4.92
-6.22
-7.56
-8.76
-9.82
-10.87
-12.09
-13.57
-15.2
-16.72
-17.74
-17.91
-17.03
-15.17
-12.57
-9.59
-6.56
-3.69
-1.12
1.08
2.88
4.23
5.11
5.57
5.73
5.69
5.59
5.49
5.4
5.33
5.27
5.23
5.19
5.1
4.89
4.5
3.96
3.33
2.71
2.15
1.59
0.9
-0.06
-1.37
-2.99
-4.8
-6.63
-8.37
-9.93
-11.32
-12.63
-13.96
-15.45
-17.17
-19.09
-20.98
-22.42
-22.92
-22.1
-19.82
-16.32
-12.06
-7.61
-3.47
0.07
2.9
5.06
6.66
7.84
8.75
9.53
10.26
10.93
11.46
11.74
11.74
11.55
11.36
11.39
11.73
12.38
13.22
14.09
14.92
15.7
16.51
17.42
18.46
19.53
20.49
21.16
21.34
20.86
19.54
17.27
14.05
10.12
5.89
1.88
-1.4
-3.69
-5.04
-5.78
-6.37
-7.27
-8.79
-11.01
-13.81
-16.94
-20.07
-22.96
-25.48
-27.64
-29.42
-30.76
-31.42
-31.11
-29.56
-26.76
-23.02
-18.88
-14.95
-11.63
-8.97
-6.72
-4.41
-1.61
1.85
5.91
10.24
14.45
18.2
21.3
23.73
25.5
26.65
27.21
27.21
26.74
25.93
24.96
23.95
22.97
22.01
20.98
19.79
18.33
16.45
13.95
10.71
6.72
2.17
-2.56
-7.02
-10.87
-14.01
-16.62
-19.05
-21.64
-24.55
-27.67
-30.65
-33.01
-34.31
-34.18
-32.49
-29.31
-24.95
-19.82
-14.36
-8.98
-3.99
0.42
4.12
7.06
9.26
10.8
11.8
12.38
12.66
12.73
12.66
12.55
12.48
12.53
12.72
13.02
13.34
13.63
13.83
13.89
13.74
13.3
12.5
11.34
9.88
8.26
6.63
5.08
3.61
2.18
0.72
-0.79
-2.33
-3.86
-5.38
-6.91
-8.53
-10.26
-12.06
-13.75
-15.03
-15.52
-14.92
-13.05
-9.99
-6.07
-1.75
2.49
6.27
9.39
11.82
13.61
14.83
15.49
15.63
15.32
14.64
13.7
12.62
11.52
10.49
9.6
8.88
8.32
7.88
7.53
7.23
6.98
6.77
6.55
6.21
5.66
4.81
3.69
2.43
1.13
-0.13
-1.42
-2.82
-4.4
-6.18
-8.09
-10.1
-12.22
-14.46
-16.78
-18.95
-20.56
-21.12
-20.25
-17.88
-14.29
-10.06
-5.8
-2.06
0.86
2.9
4.13
4.69
4.71
4.3
3.52
2.43
1.13
-0.27
-1.57
-2.57
-3.15
-3.26
-3.03
-2.63
-2.25
-1.99
-1.93
-2.04
-2.31
-2.73
-3.34
-4.11
-5.03
-6.05
-7.14
-8.36
-9.78
-11.49
-13.52
-15.81
-18.12
-20.11
-21.37
-21.55
-20.47
-18.13
-14.79
-10.84
-6.69
-2.76
0.7
3.5
5.58
6.96
7.73
8.03
8.04
7.99
8.09
8.53
9.38
10.58
11.93
13.2
14.18
14.88
15.51
16.39
17.77
19.65
21.67
23.23
23.78
23.07
21.19
18.55
15.54
12.41
9.15
5.6
1.69
-2.46
-6.49
-9.95
-12.42
-13.63
-13.5
-12.16
-9.86
-6.97
-3.95
-1.18
1.06
2.69
3.76
4.38
4.6
4.38
3.64
2.38
0.73
-1.07
-2.75
-4.08
-4.99
-5.52
-5.72
-5.59
-5.05
-4.06
-2.7
-1.28
-0.19
0.17
-0.34
-1.6
-3.26
-4.91
-6.27
-7.27
-8.02
-8.76
-9.72
-11.03
-12.71
-14.59
-16.35
-17.57
-17.8
-16.73
-14.32
-10.8
-6.62
-2.32
1.64
4.98
7.54
9.38
10.57
11.21
11.38
11.18
10.74
10.22
9.81
9.62
9.62
9.69
9.61
9.25
8.63
7.89
7.26
6.87
6.67
6.46
5.97
5.06
3.76
2.28
0.82
-0.45
-1.57
-2.62
-3.74
-4.95
-6.23
-7.58
-9.03
-10.69
-12.64
-14.77
-16.76
-18.12
-18.36
-17.19
-14.65
-11.13
-7.16
-3.27
0.19
3.07
5.39
7.24
8.68
9.72
10.32
10.5
10.29
9.79
9.13
8.43
7.74
7.12
6.56
6.08
5.69
5.4
5.24
5.22
5.31
5.38
5.24
4.67
3.57
1.99
0.16
-1.58
-2.99
-4.01
-4.81
-5.67
-6.9
-8.68
-11.02
-13.7
-16.37
-18.55
-19.77
-19.62
-17.92
-14.78
-10.58
-5.93
-1.44
2.41
5.35
7.36
8.57
9.19
9.42
9.39
9.19
8.85
8.41
7.95
7.51
7.12
6.76
6.41
6.03
5.62
5.22
4.91
4.72
4.63
4.56
4.38
3.97
3.22
2.1
0.67
-0.93
-2.52
-3.97
-5.27
-6.55
-8.0
-9.83
-12.1
-14.7
-17.42
-19.88
-21.69
-22.45
-21.9
-19.92
-16.67
-12.5
-7.94
-3.5
0.42
3.68
6.29
8.35
9.93
10.98
11.38
11.08
10.2
8.99
7.83
7.02
6.67
6.68
6.83
6.87
6.69
6.33
5.89
5.5
5.14
4.72
4.06
2.99
1.46
-0.45
-2.56
-4.64
-6.5
-8.11
-9.55
-10.97
-12.51
-14.23
-16.09
-17.96
-19.69
-21.08
-21.96
-22.12
-21.36
-19.52
-16.52
-12.38
-7.23
-1.25
5.46
12.8
20.68
28.86
36.84
43.96
49.5
53.0
54.36
53.92
52.23
49.76
46.72
42.96
38.16
32.1
24.83
16.7
8.3
0.2
-7.15
-13.5
-18.77
-22.99
-26.23
-28.61
-30.29
-31.49
-32.44
-33.33
-34.31
-35.41
-36.6
-37.83
-39.08
-40.33
-41.57
-42.74
-43.7
-44.19
-43.9
-42.45
-39.5
-34.85
-28.51
-20.84
-12.5
-4.35
2.76
8.21
11.83
13.88
15.0
15.92
17.23
19.2
21.66
24.11
25.86
26.33
25.29
23.05
20.44
18.51
18.11
19.51
22.24
25.34
27.78
28.88
28.51
26.98
24.69
21.88
18.5
14.38
9.41
3.77
-2.13
-7.81
-12.94
-17.45
-21.48
-25.19
-28.62
-31.59
-33.76
-34.77
-34.39
-32.54
-29.26
-24.68
-19.02
-12.74
-6.56
-1.5
1.4
1.4
-1.58
-6.85
-13.05
-18.56
-22.1
-23.19
-22.34
-20.81
-20.05
-20.95
-23.48
-26.67
-29.18
-30.14
-29.71
-29.14
-30.04
-33.38
-38.91
-45.06
-49.74
-51.41
-49.8
-45.98
-41.66
-38.19
-35.76
-33.31
-29.09
-21.76
-11.14
1.54
14.27
25.13
33.04
38.1
41.18
43.34
45.36
47.67
50.56
54.32
59.23
65.25
71.73
77.58
81.63
83.24
82.56
80.32
77.36
74.17
70.79
67.0
62.77
58.53
55.12
53.49
54.31
57.63
62.67
67.82
70.82
69.18
60.9
45.2
22.99
-3.29
-30.33
-54.93
-74.9
-89.38
-98.52
-102.96
-103.31
-100.08
-93.88
-85.54
-76.16
-66.72
-57.73
-49.05
-40.13
-30.42
-19.83
-8.92
1.32
9.74
15.46
18.08
17.79
15.37
12.06
9.22
8.05
9.16
12.45
17.19
22.21
26.36
28.66
28.56
25.99
21.36
15.52
9.5
4.15
-0.18
-3.73
-7.17
-11.13
-15.81
-20.8
-25.3
-28.52
-29.94
-29.31
-26.55
-21.55
-14.34
-5.31
4.52
13.63
20.52
24.36
25.36
24.7
23.99
24.59
27.11
31.39
36.77
42.38
47.4
51.03
52.48
51.2
47.15
41.03
34.21
28.27
24.24
22.1
20.73
18.46
13.86
6.41
-3.33
-14.14
-24.83
-34.74
-43.85
-52.43
-60.57
-67.81
-73.27
-75.84
-74.62
-69.19
-59.81
-47.44
-33.64
-20.22
-8.81
-0.39
4.98
8.0
9.68
10.84
11.77
12.28
12.03
10.9
9.12
7.17
5.47
4.14
3.06
1.96
0.6
-1.1
-3.05
-5.01
-6.69
-7.86
-8.42
-8.54
-8.6
-9.1
-10.38
-12.51
-15.24
-18.13
-20.84
-23.22
-25.29
-27.02
-28.15
-28.08
-26.04
-21.48
-14.4
-5.52
3.87
12.43
19.13
23.6
26.0
26.7
25.93
23.6
19.51
13.8
7.18
0.92
-3.61
-5.57
-5.05
-3.0
-0.71
0.8
1.24
0.99
0.7
0.84
1.44
2.25
3.08
3.95
5.14
6.89
9.03
10.97
11.8
10.73
7.47
2.35
-3.72
-9.52
-13.98
-16.4
-16.62
-14.93
-11.88
-8.02
-3.79
0.57
4.89
8.96
12.47
15.13
16.75
17.39
17.35
17.01
16.69
16.51
16.38
16.11
15.57
14.79
13.93
13.24
12.88
12.87
13.06
13.19
13.01
12.4
11.4
10.13
8.75
7.3
5.71
3.79
1.42
-1.47
-4.74
-8.22
-11.71
-15.11
-18.37
-21.42
-24.01
-25.72
-26.07
-24.71
-21.62
-17.16
-11.97
-6.66
-1.69
2.8
6.77
10.23
13.06
15.09
16.25
16.65
16.56
16.3
16.11
16.07
16.17
16.38
16.67
16.99
17.24
17.23
16.8
15.91
14.75
13.61
12.78
12.32
12.03
11.55
10.54
8.83
6.46
3.66
0.65
-2.37
-5.29
-8.06
-10.71
-13.33
-16.01
-18.89
-22.02
-25.29
-28.35
-30.67
-31.74
-31.12
-28.7
-24.65
-19.39
-13.44
-7.36
-1.59
3.52
7.75
11.0
13.32
14.83
15.77
16.34
16.67
16.8
16.69
16.26
15.57
14.7
13.84
13.17
12.79
12.71
12.79
12.85
12.69
12.19
11.32
10.16
8.85
7.5
6.14
4.71
3.09
1.18
-1.03
-3.49
-6.06
-8.62
-11.06
-13.34
-15.48
-17.59
-19.86
-22.56
-25.89
-29.88
-34.22
-38.26
-41.1
-41.88
-40.08
-35.72
-29.37
-21.97
-14.45
-7.52
-1.46
3.75
8.24
12.05
15.08
17.19
18.33
18.72
18.7
18.66
18.79
19.05
19.3
19.36
19.17
18.81
18.33
17.78
17.13
16.36
15.52
14.76
14.17
13.76
13.38
12.83
11.9
10.51
8.72
6.6
4.19
1.51
-1.46
-4.69
-8.11
-11.59
-14.97
-18.0
-20.35
-21.63
-21.46
-19.66
-16.32
-11.85
-6.83
-1.87
2.62
6.43
9.49
11.78
13.31
14.07
14.12
13.59
12.63
11.45
10.2
8.98
7.85
6.85
6.03
5.38
4.94
4.65
4.44
4.19
3.76
3.09
2.13
0.97
-0.32
-1.64
-3.02
-4.49
-6.15
-8.04
-10.17
-12.52
-15.1
-17.82
-20.47
-22.69
-23.98
-23.85
-22.02
-18.51
-13.69
-8.17
-2.59
2.58
7.06
10.79
13.77
16.02
17.54
18.35
18.52
18.18
17.49
16.58
15.45
14.08
12.45
10.67
8.95
7.52
6.59
6.16
6.04
5.9
5.4
4.3
2.53
0.28
-2.17
-4.47
-6.42
-8.0
-9.43
-11.06
-13.31
-16.46
-20.56
-25.29
-29.94
-33.46
-34.72
-32.86
-27.59
-19.33
-9.09
1.86
12.37
21.58
28.89
33.76
35.65
34.03
28.73
20.3
10.16
0.29
-7.32
-11.42
-11.91
-9.89
-7.14
-5.44
-5.91
-8.75
-13.31
-18.42
-22.77
-25.14
-24.52
-20.25
-12.32
-1.56
10.21
20.59
27.28
28.96
25.69
18.87
10.59
2.72
-3.65
-8.44
-12.19
-15.6
-19.12
-22.81
-26.46
-29.73
-32.42
-34.36
-35.42
-35.42
-34.03
-30.9
-25.86
-19.18
-11.7
-4.76
0.31
2.82
3.18
2.92
4.14
8.66
17.12
28.58
40.84
51.2
57.45
58.62
55.24
48.96
41.96
36.32
33.53
34.34
38.64
45.51
53.27
59.76
62.76
60.6
52.67
39.73
23.77
7.48
-6.52
-16.42
-21.61
-22.75
-21.38
-19.41
-18.49
-19.64
-23.02
-28.03
-33.6
-38.5
-41.66
-42.37
-40.37
-35.94
-29.83
-23.01
-16.47
-10.9
-6.59
-3.53
-1.58
-0.7
-1.02
-2.77
-6.09
-10.83
-16.46
-22.15
-26.96
-30.0
-30.66
-28.67
-24.13
-17.43
-9.18
-0.07
9.21
17.98
25.62
31.59
35.44
36.93
36.08
33.2
28.92
24.11
19.8
17.06
16.88
19.8
25.72
33.67
41.92
48.4
51.41
50.14
44.94
37.02
27.95
19.12
11.52
5.72
2.17
1.26
3.19
7.69
13.77
19.7
23.54
23.68
19.47
11.46
1.17
-9.46
-18.74
-25.6
-29.79
-31.56
-31.46
-29.98
-27.52
-24.4
-20.99
-17.66
-14.78
-12.59
-11.13
-10.28
-9.73
-9.22
-8.6
-7.88
-7.29
-7.12
-7.63
-8.86
-10.62
-12.54
-14.26
-15.6
-16.56
-17.39
-18.41
-19.93
-22.13
-25.01
-28.38
-31.77
-34.53
-35.89
-35.13
-31.76
-25.72
-17.34
-7.3
3.53
14.3
24.3
33.02
40.14
45.49
48.99
50.66
50.57
48.88
45.83
41.71
36.85
31.61
26.37
21.49
17.24
13.8
11.13
9.05
7.25
5.39
3.18
0.48
-2.7
-6.13
-9.41
-11.97
-13.24
-12.8
-10.65
-7.28
-3.58
-0.6
0.81
0.26
-2.06
-5.52
-9.34
-12.87
-15.79
-18.06
-19.81
-21.12
-21.93
-21.99
-21.07
-19.09
-16.24
-12.98
-9.78
-6.97
-4.63
-2.63
-0.82
0.87
2.35
3.45
4.08
4.29
4.28
4.25
4.34
4.58
4.88
5.19
5.5
5.86
6.32
6.96
7.78
8.8
9.98
11.25
12.47
13.48
14.11
14.23
13.86
13.06
11.92
10.44
8.51
6.06
3.09
-0.18
-3.41
-6.22
-8.41
-9.99
-11.18
-12.32
-13.78
-15.8
-18.49
-21.78
-25.39
-28.87
-31.71
-33.4
-33.71
-32.65
-30.52
-27.67
-24.38
-20.79
-16.88
-12.6
-8.03
-3.37
1.08
5.03
8.39
11.19
13.62
15.8
17.74
19.31
20.31
20.58
20.13
19.13
17.84
16.49
