2013-02-25 15:03:39
64.0
-0.0
-0.0
-0.0
-0.0
-0.0
-0.0
-0.0
-0.0
-0.0
-0.0
0.0
0.01
0.01
-0.0
-0.03
-0.05
-0.05
0.0
0.13
0.36
0.66
1.01
1.37
1.72
2.06
2.4
2.79
3.24
3.8
4.42
5.06
5.66
6.2
6.68
7.15
7.68
8.31
9.14
10.09
11.04
11.88
12.56
13.14
13.76
14.65
15.96
17.91
20.32
22.9
25.38
27.58
29.57
31.68
34.32
37.81
42.54
48.15
54.1
59.83
64.97
69.58
74.14
79.34
85.71
93.76
103.0
112.62
121.73
129.77
136.75
143.3
150.75
157.77
166.64
177.95
191.79
206.97
220.57
228.25
225.36
208.53
176.87
132.76
80.05
23.07
-34.94
-92.44
-149.16
-205.23
-260.37
-313.74
-363.87
-409.83
-450.91
-486.5
-515.74
-537.23
-549.22
-549.96
-538.37
-514.21
-478.67
-433.88
-382.45
-327.02
-269.84
-212.63
-156.66
-102.95
-52.37
-5.9
35.58
71.43
101.35
125.5
144.38
158.69
169.15
176.37
180.75
182.57
182.07
179.51
175.23
169.65
163.18
156.15
148.81
141.3
133.69
126.02
118.33
110.69
103.16
95.8
88.68
81.83
75.25
68.95
62.95
57.25
51.86
46.78
42.03
37.59
33.45
29.61
26.07
22.81
19.83
17.11
14.67
12.48
10.54
8.83
7.35
6.07
4.97
4.05
3.27
2.62
2.09
1.65
1.3
1.01
0.79
0.61
0.47
0.37
0.29
0.24
0.2
0.17
0.16
0.17
0.18
0.2
0.22
0.26
0.29
0.33
0.38
0.42
0.47
0.52
0.56
0.61
0.67
0.73
0.79
0.85
0.93
1.01
1.09
1.19
1.3
1.43
1.56
1.72
1.89
2.08
2.3
2.53
2.79
3.08
3.39
3.75
4.15
4.58
5.05
5.53
6.0
6.48
6.98
7.51
8.1
8.77
9.53
10.35
11.21
12.09
12.97
13.89
14.87
15.94
17.12
18.39
19.69
20.92
21.97
22.74
23.13
23.09
22.59
21.56
19.93
17.54
14.31
10.15
5.18
-0.32
-5.96
-11.3
-15.98
-19.85
-22.96
-25.53
-27.79
-29.87
-31.72
-33.1
-33.76
-33.56
-32.63
-31.38
-30.37
-30.06
-30.62
-31.84
-33.2
-34.18
-34.35
-33.7
-32.59
-31.52
-31.06
-31.72
-33.93
-37.78
-42.72
-47.31
-49.39
-46.76
-38.12
-23.8
-5.85
12.59
28.57
40.27
47.34
50.53
50.89
49.22
45.9
41.15
35.26
29.03
23.47
19.45
17.27
16.58
16.55
16.01
13.95
9.54
2.72
-5.7
-14.16
-20.67
-23.42
-21.23
-13.95
-1.21
15.7
34.65
53.27
69.4
81.27
87.66
88.07
82.9
73.47
61.63
49.52
38.93
30.8
25.16
21.48
19.08
17.54
16.64
16.09
15.59
14.89
13.78
12.26
10.41
8.23
5.5
1.77
-3.43
-10.22
-18.2
-26.58
-34.52
-41.57
-47.78
-53.72
-60.07
-67.32
-75.41
-83.68
-90.91
-95.64
-96.49
-92.43
-83.13
-69.05
-51.43
-31.97
-12.37
6.08
22.67
37.19
49.58
59.64
66.93
70.97
71.56
69.07
64.44
58.87
53.33
48.21
43.36
38.3
32.73
26.6
20.14
13.52
6.66
-0.69
-8.81
-17.57
-26.44
-34.62
-41.32
-46.13
-49.07
-50.52
-51.01
-51.08
-51.23
-51.91
-53.43
-55.72
-58.2
-59.78
-59.14
-55.28
-47.99
-37.97
-26.66
-15.65
-6.12
1.35
6.68
9.8
10.45
8.11
2.52
-5.83
-15.52
-24.46
-30.6
-32.64
-30.44
-24.67
-16.41
-6.61
3.81
13.82
22.15
27.67
29.92
29.58
28.05
26.48
24.73
21.13
13.54
0.98
-15.03
-30.81
-42.29
-47.4
-47.61
-47.31
-51.66
-63.72
-82.87
-105.09
-124.86
-137.68
-141.64
-137.63
-128.24
-116.11
-102.85
-88.8
-73.63
-57.21
-40.13
-23.58
-8.76
3.73
14.22
23.69
33.17
43.18
53.39
62.84
70.36
75.07
76.69
75.55
72.55
68.9
65.81
64.15
64.15
65.26
66.37
66.2
63.82
59.03
52.28
44.44
36.27
28.18
20.16
11.93
3.32
-5.56
-14.23
-21.92
-27.7
-30.63
-29.98
-25.33
-16.79
-5.02
8.76
23.01
36.1
46.66
53.7
56.74
55.75
51.14
43.69
34.58
25.25
17.17
11.53
8.97
9.37
12.06
16.0
20.2
24.04
27.33
30.23
32.97
35.58
37.79
39.11
39.06
37.37
34.12
29.65
24.38
18.66
12.64
6.28
-0.59
-8.2
-16.72
-26.16
-36.25
-46.33
-55.36
-62.02
-65.08
-63.72
-57.88
-48.34
-36.54
-24.22
-12.95
-3.9
2.47
6.24
7.93
8.34
8.31
8.57
9.76
12.34
16.61
22.72
30.6
39.77
49.33
58.08
64.76
68.42
68.74
66.12
61.43
55.63
49.44
43.08
36.48
29.49
22.1
14.6
7.39
0.8
-5.05
-10.35
-15.5
-20.99
-27.22
-34.45
-42.62
-51.34
-59.86
-67.07
-71.75
-72.76
-69.42
-61.7
-50.25
-36.25
-21.02
-5.7
8.93
22.44
34.55
44.99
53.41
59.42
62.72
63.24
61.18
56.98
51.28
44.76
37.97
31.31
24.92
18.83
13.04
7.72
3.18
-0.27
-2.51
-3.7
-4.24
-4.56
-4.87
-5.08
-4.91
-4.13
-2.83
-1.44
-0.67
-1.27
-3.8
-8.46
-15.09
-23.14
-31.74
-39.77
-45.94
-48.99
-48.04
-42.85
-33.92
-22.42
-9.86
2.29
12.92
21.38
27.44
31.11
32.57
32.12
30.17
27.25
24.02
21.2
19.41
19.14
20.51
23.3
26.91
30.52
33.28
34.58
34.19
32.21
28.95
24.69
19.63
13.77
7.13
-0.12
-7.65
-15.02
-21.88
-28.13
-33.86
-39.23
-44.24
-48.74
-52.47
-55.33
-57.3
-58.33
-58.13
-56.13
-51.66
-44.45
-34.94
-24.28
-13.98
-5.24
1.46
6.44
10.41
14.04
17.47
20.4
22.37
23.13
22.93
22.41
22.33
23.22
25.15
27.78
30.56
33.09
35.21
36.97
38.42
39.37
39.46
38.23
35.41
31.0
25.25
18.5
11.06
3.16
-4.82
-12.27
-18.42
-22.6
-24.62
-24.98
-24.9
-25.74
-28.53
-33.45
-39.77
-46.25
-51.59
-54.99
-56.17
-55.28
-52.51
-48.01
-41.8
-34.09
-25.41
-16.7
-9.13
-3.78
-1.24
-1.4
-3.54
-6.52
-9.28
-11.13
-11.95
-11.99
-11.55
-10.63
-8.74
-5.1
1.02
9.86
21.0
33.45
45.95
57.34
66.73
73.58
77.65
78.92
77.53
73.76
68.0
60.67
52.2
42.99
33.31
23.48
13.82
4.82
-2.92
-8.83
-12.54
-14.06
-13.83
-12.58
-11.11
-10.08
-9.9
-10.82
-13.05
-16.8
-22.2
-29.18
-37.28
-45.76
-53.72
-60.42
-65.4
-68.6
-70.15
-70.2
-68.78
-65.8
-61.19
-55.05
-47.67
-39.52
-31.06
-22.62
-14.46
-6.72
0.46
6.84
12.16
16.17
18.64
19.39
18.32
15.41
10.93
5.49
0.04
-4.28
-6.43
-5.78
-2.3
3.52
10.79
18.5
25.8
32.03
36.82
39.99
41.53
41.54
40.23
37.92
34.97
31.69
28.39
25.28
22.56
20.33
18.59
17.26
16.15
15.07
13.89
12.55
11.06
9.32
7.21
4.49
0.97
-3.36
-8.42
-14.02
-20.03
-26.44
-33.35
-40.83
-48.85
-57.18
-65.34
-72.71
-78.48
-81.81
-81.88
-78.17
-70.56
-59.43
-45.63
-30.25
-14.42
0.96
15.23
28.0
38.97
47.87
54.48
58.72
60.75
61.03
60.2
58.86
57.4
55.87
54.04
51.56
48.15
43.79
38.69
33.24
27.83
22.69
17.78
12.86
7.62
1.9
-4.15
-9.98
-14.86
-18.07
-19.26
-18.52
-16.44
-13.9
-11.85
-10.97
-11.5
-13.06
-14.79
-15.55
-14.31
-10.51
-4.25
3.72
12.26
20.07
26.02
29.26
29.29
25.99
19.64
10.99
1.16
-8.44
-16.43
-21.73
-23.73
-22.46
-18.41
-12.36
-5.21
2.24
9.3
15.44
20.26
23.59
25.39
25.74
24.8
22.68
19.51
15.47
10.9
6.3
2.23
-0.87
-2.82
-3.76
-4.14
-4.58
-5.67
-7.85
-11.25
-15.62
-20.35
-24.54
-27.26
-27.76
-25.79
-21.64
-15.96
-9.59
-3.23
2.63
7.72
11.87
14.9
16.64
17.09
16.41
15.0
13.32
11.76
10.53
9.58
8.65
7.39
5.47
2.77
-0.59
-4.29
-7.98
-11.44
-14.7
-17.99
-21.49
-25.13
-28.45
-30.77
-31.43
-30.1
-26.89
-22.31
-17.08
-11.88
-7.24
-3.45
-0.64
1.34
2.74
3.95
5.35
7.26
9.84
13.14
17.15
21.81
27.08
32.77
38.45
43.32
46.33
46.43
42.96
35.94
26.16
14.94
3.76
-6.2
-14.32
-20.53
-25.18
-28.81
-31.87
-34.67
-37.27
-39.55
-41.2
-41.81
-40.98
-38.41
-34.0
-27.95
-20.9
-13.87
-8.12
-4.7
-4.1
-6.09
-9.81
-14.3
-19.01
-23.97
-29.53
-35.84
-42.45
-48.35
-52.45
-54.15
-53.65
-51.65
-48.75
-44.69
-38.4
-28.35
-13.58
5.7
27.75
49.82
69.02
83.17
91.34
93.86
92.01
87.45
81.73
76.04
70.97
66.61
62.67
58.55
53.51
46.92
38.4
28.1
16.73
5.53
-4.09
-10.99
-14.7
-15.69
-15.23
-14.97
-16.41
-20.45
-27.18
-36.02
-46.05
-56.28
-65.85
-73.97
-79.92
-83.02
-82.77
-79.08
-72.42
-63.83
-54.62
-46.02
-38.86
-33.47
-29.79
-27.73
-27.3
-28.64
-31.81
-36.39
-41.52
-46.0
-48.76
-49.22
-47.35
-43.53
-38.1
-31.18
-22.59
-12.08
0.34
14.21
28.58
42.36
54.48
64.26
71.39
75.94
78.14
78.21
76.25
72.2
65.97
57.59
47.34
35.86
24.1
13.22
4.35
-1.6
-4.15
-3.39
0.07
5.21
10.9
16.1
20.05
22.42
23.28
23.11
22.61
22.49
23.19
24.68
26.51
28.11
29.04
29.33
29.34
29.52
30.11
30.91
31.49
31.4
30.45
28.75
26.55
24.01
21.06
17.53
13.3
8.55
3.79
-0.25
-2.9
-3.74
-2.79
-0.53
2.21
4.47
5.36
4.37
1.43
-3.0
-8.08
-12.78
-16.15
-17.53
-16.71
-13.93
-9.84
-5.29
-1.12
2.09
4.02
4.71
4.45
3.56
2.36
1.05
-0.23
-1.36
-2.24
-2.8
-3.06
-3.08
-2.99
-2.91
-2.88
-2.88
-2.86
-2.87
-3.03
-3.5
-4.31
-5.26
-5.97
-6.0
-5.16
-3.63
-1.99
-1.03
-1.42
-3.53
-7.33
-12.35
-17.82
-22.77
-26.17
-27.21
-25.51
-21.24
-15.12
-8.15
-1.29
4.83
9.9
13.83
16.55
17.91
17.82
16.35
13.91
11.13
8.73
7.24
6.89
7.59
8.98
10.63
12.07
12.94
12.99
12.11
10.38
8.0
5.25
2.39
-0.4
-3.08
-5.59
-7.93
-9.97
-11.54
-12.5
-12.79
-12.53
-12.07
-11.92
-12.55
-14.2
-16.67
-19.23
-20.9
-20.76
-18.42
-14.25
-9.25
-4.66
-1.4
0.3
0.94
1.4
2.51
4.65
7.66
10.95
13.87
15.91
16.95
17.3
17.65
18.94
22.02
27.28
34.42
42.47
50.22
56.69
61.62
65.45
68.9
72.3
75.2
76.37
74.55
69.2
61.15
52.46
45.51
41.96
41.9
43.57
43.77
38.71
24.72
-1.26
-41.18
-95.13
-160.42
-230.99
-297.86
-350.96
-382.11
-387.33
-367.89
-329.17
-277.85
-219.2
-155.77
-88.27
-17.79
52.28
116.02
166.88
200.66
217.71
222.89
223.44
225.76
232.93
244.01
255.53
263.86
267.14
265.64
260.79
253.79
244.72
232.97
218.21
201.38
184.55
170.09
159.18
150.89
142.3
129.75
110.62
84.65
54.28
23.87
-1.7
-18.64
-25.39
-23.11
-15.62
-8.7
-8.82
-21.39
-48.68
-88.44
-133.8
-175.09
-202.99
-211.82
-201.37
-176.55
-144.94
-113.79
-87.7
-68.17
-54.5
-45.29
-39.7
-37.54
-38.66
-42.5
-47.68
-52.36
-54.76
-53.77
-49.35
-42.9
-36.6
-32.71
-32.38
-34.89
-37.8
-38.11
-33.92
-25.48
-14.8
-4.28
4.82
12.74
20.13
26.47
29.27
25.02
11.55
-9.96
-34.56
-55.56
-67.43
-68.07
-59.41
-45.72
-31.31
-18.86
-9.28
-2.69
0.69
0.27
-4.18
-11.95
-21.01
-28.66
-32.49
-31.35
-25.65
-17.07
-7.9
-0.31
4.15
4.91
2.32
-2.41
-7.65
-11.7
-13.33
-12.02
-8.04
-2.35
3.7
8.51
10.56
8.76
2.89
-6.16
-16.54
-25.97
-32.62
-35.8
-36.21
-35.39
-34.89
-35.46
-37.0
-39.01
-41.13
-43.14
-44.34
-42.98
-36.57
-23.44
-4.42
16.47
33.24
40.94
38.5
29.57
20.45
16.82
21.06
31.98
46.58
62.13
77.08
90.29
99.94
103.25
97.9
83.91
64.5
44.85
29.48
20.03
14.74
10.04
3.22
-5.9
-15.08
-21.35
-23.08
-20.91
-17.17
-14.5
-14.35
-16.24
-18.42
-19.22
-18.17
-16.17
-14.8
-15.18
-17.4
-20.62
-24.05
-27.64
-31.98
-37.56
-43.7
-48.28
-48.35
-41.5
-27.15
-6.74
16.9
40.86
63.19
83.17
100.88
116.62
130.58
142.81
153.21
161.54
167.08
168.51
163.97
151.55
129.89
98.91
60.27
17.38
-25.01
-61.83
-88.81
-103.46
-105.48
-96.55
-79.81
-58.78
-37.03
-17.99
-4.87
-0.47
-6.79
-24.41
-51.95
-86.12
-122.78
-158.55
-191.95
-223.49
-254.33
-283.93
-308.79
-322.61
-318.49
-291.99
-243.49
-178.95
-108.45
-43.39
6.9
37.55
49.25
47.49
40.4
35.69
37.86
46.79
58.07
65.99
66.58
59.68
48.78
38.88
34.0
35.55
42.63
53.35
66.04
79.42
92.12
101.9
105.49
99.9
83.88
59.11
30.27
3.47
-16.49
-28.49
-35.74
-44.4
-60.26
-85.62
-117.98
-151.26
-178.36
-193.93
-196.01
-186.1
-168.48
-148.63
-131.97
-122.32
-120.68
-124.65
-129.12
-128.51
-119.48
-103.03
-84.1
-68.91
-61.6
-62.02
-66.29
-69.17
-66.97
-59.2
-48.04
-36.64
-27.68
-22.7
-22.32
-26.84
-36.3
-49.76
-64.49
-75.87
-78.1
-66.02
-37.12
6.95
60.02
112.75
154.99
178.53
179.2
157.6
118.11
67.16
11.49
-42.91
-90.83
-127.7
-149.75
-154.6
-141.99
-113.98
-74.42
-28.29
18.9
61.7
95.74
119.17
133.56
143.12
152.15
162.04
169.84
170.07
158.82
137.56
113.69
96.8
93.06
101.31
113.7
120.48
116.03
101.89
85.21
73.68
70.67
73.36
75.15
70.1
56.86
39.39
24.33
16.62
16.13
17.43
12.86
-2.84
-29.06
-59.17
-83.83
-95.85
-93.94
-82.94
-70.83
-64.17
-64.87
-70.02
-74.59
-75.02
-71.47
-67.35
-66.73
-71.35
-79.15
-85.09
-83.55
-70.83
-46.43
-12.64
26.73
67.48
105.31
135.76
154.37
157.52
143.83
115.31
77.5
38.21
5.53
-14.36
-18.52
-7.58
14.89
43.49
72.24
95.88
110.97
116.56
114.1
106.59
97.19
87.96
79.44
70.98
61.72
51.33
40.29
29.23
18.25
6.64
-6.64
-21.99
-38.33
-53.16
-63.5
-67.33
-64.55
-57.03
-47.74
-39.34
-33.3
-29.56
-27.12
-24.88
-22.23
-19.43
-17.47
-17.58
-20.6
-26.31
-33.13
-38.31
-38.78
-32.37
-18.74
0.25
21.2
40.28
54.52
62.42
63.92
60.06
52.44
42.96
33.69
26.57
22.98
23.16
26.01
29.4
31.07
29.58
24.86
18.17
11.46
6.43
3.98
3.99
5.59
7.52
8.59
7.95
5.35
1.27
-3.13
-6.42
-7.49
-6.12
-2.99
0.76
4.2
7.07
9.55
11.77
13.45
14.13
13.77
13.33
14.52
18.9
26.83
36.95
46.84
54.18
57.98
58.87
58.57
58.72
60.17
62.8
65.92
68.82
70.98
72.18
72.42
71.9
71.04
70.4
70.58
71.93
74.65
78.68
83.78
89.29
93.8
94.98
89.8
75.48
50.56
15.96
-24.93
-66.9
-104.35
-132.85
-150.13
-156.28
-153.18
-143.43
-129.28
-112.05
-92.44
-71.59
-52.16
-38.32
-34.37
-42.16
-59.12
-78.35
-91.45
-92.52
-81.32
-63.32
-46.39
-36.27
-33.44
-33.46
-30.27
-20.1
-3.46
15.85
33.46
46.87
55.87
61.25
63.1
60.2
50.99
35.03
14.1
-8.32
-28.33
-43.07
-51.35
-53.44
-50.48
-44.0
-35.89
-28.31
-23.31
-22.15
-24.59
-28.74
-31.63
-30.35
-23.17
-10.36
5.95
22.43
35.77
43.72
45.77
43.12
38.17
33.76
32.45
36.03
45.12
58.92
75.03
89.61
98.05
96.11
81.47
54.73
19.62
-17.83
-51.08
-74.99
-87.41
-89.72
-86.23
-82.51
-83.15
-90.15
-102.22
-115.81
-126.95
-132.93
-133.12
-128.4
-120.07
-108.71
-94.12
-75.87
-53.89
-28.56
-0.6
28.91
58.1
84.02
102.93
111.55
108.81
96.59
79.52
63.56
54.08
54.42
65.06
83.65
105.45
124.52
135.37
134.86
123.57
105.68
87.25
73.38
65.76
62.19
58.16
49.5
34.31
13.24
-11.76
-38.95
-67.3
-95.79
-122.23
-142.96
-153.92
-152.74
-140.55
-122.13
-103.95
-91.28
-86.02
-86.52
-89.36
-91.92
-93.77
-96.44
-101.64
-109.45
-117.92
-124.2
-126.1
-123.24
-116.54
-106.55
-91.79
-68.78
-34.14
12.06
64.21
111.97
143.97
152.93
139.29
110.79
78.63
52.48
37.2
32.86
36.97
46.94
60.95
77.16
92.59
103.4
106.67
102.4
93.97
86.35
83.09
84.42
87.36
87.81
83.27
74.02
62.33
50.52
39.34
27.9
14.89
0.04
-15.19
-28.16
-36.5
-39.44
-38.02
-34.5
-31.11
-29.08
-28.35
-27.92
-26.69
-24.25
-21.42
-19.98
-22.04
-29.0
-40.65
-54.84
-68.18
-77.32
-80.34
-77.33
-69.85
-59.64
-47.63
-33.77
-18.01
-1.46
13.18
22.44
23.72
16.7
3.64
-11.73
-25.88
-36.76
-44.02
-48.26
-50.19
-50.4
-49.63
-49.26
-51.18
-56.82
-66.11
-76.92
-85.74
-89.19
-85.68
-76.09
-63.37
-51.31
-43.18
-40.81
-44.22
-51.87
-60.87
-67.57
-68.3
-60.18
-42.17
-15.57
16.19
48.46
77.03
99.45
115.55
126.97
135.75
143.09
148.59
150.68
147.75
139.3
126.45
111.37
96.22
82.02
68.43
54.58
40.57
28.49
22.22
25.84
41.29
66.74
96.53
123.12
140.14
144.89
139.05
127.27
114.48
103.52
94.38
85.15
73.92
60.09
44.34
27.63
10.07
-9.16
-30.85
-54.29
-76.61
-93.37
-100.37
-95.35
-78.9
-53.91
-24.26
6.49
35.66
61.38
82.27
97.39
106.26
109.0
106.0
97.66
84.2
66.04
44.57
22.4
2.95
-10.86
-17.86
-19.04
-16.66
-12.72
-7.97
-2.1
4.94
11.66
14.94
11.5
-0.0
-17.49
-35.92
-49.31
-53.38
-47.32
-33.71
-17.03
-1.53
10.18
17.5
21.35
23.1
23.89
24.12
23.35
20.47
13.86
1.75
-17.23
-43.59
-76.5
-113.68
-151.57
-185.88
-212.43
-228.09
-231.43
-223.18
-205.77
-182.55
-156.66
-130.15
-103.89
-78.21
-53.75
-32.08
-15.23
-4.66
-0.03
1.25
3.12
9.03
20.19
34.94
49.67
60.64
65.53
64.02
57.33
47.09
34.78
21.72
9.36
-0.6
-6.53
-7.43
-3.22
5.12
15.7
25.9
32.69
32.75
23.22
2.27
-30.54
-74.27
-126.67
-184.22
-242.27
-295.57
-339.34
-370.47
-388.47
-395.17
-393.52
-385.85
-372.96
-354.36
-329.7
-300.0
-267.72
-235.77
-205.89
-177.79
-149.49
-118.62
-83.79
-45.22
-4.28
37.25
77.84
116.79
154.35
191.46
229.67
270.84
316.6
367.33
421.24
474.19
520.49
554.73
573.45
576.06
564.54
542.4
513.48
481.42
449.41
420.06
395.05
374.51
356.92
339.62
319.91
296.17
268.22
236.86
203.07
167.43
130.41
92.8
55.82
20.64
-12.5
-44.69
-78.06
-114.58
-155.02
-198.47
-242.72
-284.93
-322.14
-351.36
-369.54
-374.21
-364.58
-342.77
-313.9
-284.65
-260.68
-244.3
-233.97
-225.72
-215.81
-202.98
-188.78
-176.27
-167.86
-164.05
-163.78
-165.89
-170.43
-178.98
-193.58
-214.96
-241.31
-268.16
-289.47
-299.67
-295.87
-279.36
-255.58
-232.48
-217.38
-213.88
-220.23
-230.01
-235.11
-229.44
-211.5
-184.62
-154.72
-127.0
-103.48
-82.47
-60.22
-33.48
-1.35
34.25
69.74
101.86
129.25
153.09
176.45
202.7
233.98
270.57
311.13
353.7
396.16
435.75
468.54
489.55
494.1
479.84
448.48
405.88
360.26
319.01
285.76
259.6
236.57
212.69
186.37
158.59
131.17
104.04
73.85
34.8
-18.15
-85.68
-162.15
-236.63
-296.9
-334.19
-346.53
-338.72
-319.02
-294.58
-268.29
-238.04
-198.62
-145.55
-78.66
-3.96
67.1
120.73
145.06
133.92
89.44
21.84
-53.33
-119.48
-163.78
-179.99
-169.09
-137.56
-94.19
-47.23
-2.45
37.19
71.2
100.44
125.81
147.03
161.87
166.37
156.03
127.94
82.89
26.39
-32.16
-82.12
-114.53
-124.38
-111.23
-78.61
-32.81
18.43
67.2
106.61
132.52
144.62
146.52
144.2
143.6
148.43
159.17
173.78
189.56
204.74
219.17
233.38
247.46
260.16
269.19
272.24
268.03
256.75
239.89
219.75
199.48
183.11
175.3
180.01
198.68
228.5
262.42
291.0
305.66
301.6
279.01
241.96
195.87
145.12
91.98
36.99
-19.79
-77.59
-134.35
-187.03
-232.32
-267.32
-289.92
-298.72
-292.74
-271.68
-236.58
-190.79
-140.38
-93.29
-57.38
-38.31
-38.19
-55.56
-86.33
-124.71
-163.47
-194.1
-207.67
-197.36
-161.74
-106.77
-44.62
10.7
48.92
67.28
70.29
66.0
61.06
57.41
51.95
39.11
14.39
-22.65
-67.78
-113.36
-150.88
-173.75
-179.23
-168.94
-148.0
-123.22
-100.85
-85.23
-78.17
-79.4
-87.41
-99.81
-113.22
-123.06
-123.9
-110.78
-81.32
-37.34
14.56
64.3
101.07
116.43
106.31
71.36
15.83
-53.69
-129.14
-201.69
-262.29
-303.18
-320.1
-313.65
-288.98
-253.69
-215.22
-179.28
-149.56
-128.29
-116.56
-113.45
-114.8
-112.89
-98.51
-64.86
-11.78
52.52
113.46
155.28
166.99
146.48
100.74
42.52
-14.53
-60.06
-88.74
-99.43
-93.21
-71.59
-35.93
11.71
67.55
126.3
181.99
229.59
265.95
289.56
299.54
294.63
273.12
234.06
178.87
112.28
41.91
-23.55
-76.77
-113.53
-133.2
-137.79
-130.32
-113.31
-88.42
-56.61
-18.97
22.81
66.24
108.45
146.59
178.33
202.48
219.17
229.95
237.28
243.53
250.12
256.91
262.49
264.83
262.24
253.49
237.71
213.93
180.94
137.83
84.56
22.46
-45.76
-116.34
-184.86
-246.26
-295.32
-327.08
-337.81
-326.02
-292.72
-240.76
-173.41
-93.54
-4.05
90.57
182.87
262.7
319.75
347.22
344.62
318.12
277.83
233.79
192.67
156.52
123.99
92.6
60.53
27.31
-6.52
-40.04
-72.08
-101.15
-125.46
-143.33
-153.98
-157.69
-155.94
-150.69
-143.81
-136.58
-129.63
-123.09
-116.82
-110.45
-103.58
-95.73
-86.52
-75.83
-63.93
-51.56
-39.94
-30.54
-24.81
-23.77
-27.53
-35.09
-44.49
-53.3
-59.53
-62.19
-61.62
-59.12
-56.26
-54.33
-53.95
-55.14
-57.58
-60.71
-63.6
-64.87
-62.84
-56.11
-44.27
-28.47
-11.34
3.87
14.44
19.16
18.6
14.45
8.56
2.06
-4.78
-12.14
-19.87
-27.19
-32.82
-35.61
-35.17
-32.02
-27.31
-22.1
-16.91
-11.59
-5.65
1.16
8.5
15.44
20.84
23.83
24.18
22.42
19.57
16.76
14.93
14.68
16.3
19.86
25.36
32.58
41.03
49.8
57.58
62.89
64.51
61.69
54.4
43.27
29.35
13.81
-2.27
-17.94
-32.32
-44.45
-53.25
-57.79
-57.59
-53.06
-45.44
-36.66
-28.83
-23.65
-22.06
-24.06
-28.98
-35.66
-42.85
-49.38
-54.22
-56.58
-55.96
-52.38
-46.68
-40.64
-36.79
-37.59
-44.38
-56.47
-71.02
-83.78
-90.66
-89.08
-78.9
-62.07
-41.74
-21.01
-2.2
13.32
24.91
32.19
35.14
34.09
29.9
23.92
17.69
12.7
9.98
10.01
12.67
17.37
23.31
29.64
35.6
40.6
44.17
45.92
45.5
42.67
37.42
30.08
21.45
12.7
5.18
0.07
-1.88
-0.58
3.44
9.2
15.56
21.56
26.57
30.29
32.62
33.65
33.62
32.94
32.12
31.61
31.57
31.8
31.79
31.07
29.35
26.73
23.54
20.19
17.19
15.05
14.38
15.75
19.4
24.98
31.49
37.45
41.44
42.46
40.16
34.8
27.04
17.81
8.12
-0.96
-8.4
-13.36
-15.43
-14.76
-11.96
-8.02
-3.95
-0.56
1.72
2.88
3.18
2.98
2.51
1.79
0.73
-0.77
-2.56
-4.3
-5.54
-5.88
-5.23
-3.84
-2.24
-1.04
-0.65
-1.15
-2.19
-3.16
-3.44
-2.68
-1.08
0.66
1.49
0.51
-2.79
-8.33
-15.66
-24.21
-33.45
-42.9
-52.02
-59.94
-65.65
-68.17
-66.86
-61.8
-53.76
-44.06
-34.24
-25.68
-19.38
-15.81
-14.88
-16.07
-18.52
-21.29
-23.49
-24.54
-24.2
-22.51
-19.75
-16.25
-12.46
-9.01
-6.73
-6.63
-9.58
-15.92
-25.09
-35.57
-45.25
-51.97
-54.22
-51.44
-43.98
-32.9
-19.61
-5.63
7.58
18.76
27.2
32.87
36.59
39.65
43.22
47.63
52.04
54.69
53.59
47.56
36.8
23.0
8.69
-3.62
-12.23
-16.68
-17.47
-15.65
-12.23
-7.86
-2.91
2.39
7.66
12.27
15.44
16.4
14.68
10.16
3.14
-5.85
-16.08
-26.68
-36.79
-45.58
-52.5
-57.44
-60.75
-63.26
-65.95
-69.69
-74.96
-81.67
-89.2
-96.54
-102.58
-106.44
-107.74
-106.7
-104.04
-100.67
-97.38
-94.34
-90.99
-85.79
-76.63
-61.28
-38.26
-7.58
28.85
67.62
104.69
136.54
161.04
177.46
186.0
187.02
180.53
166.34
144.69
116.84
85.4
53.94
26.13
4.88
-8.47
-14.21
-13.9
-9.55
-2.95
4.83
13.41
22.66
32.29
41.7
50.06
56.76
61.61
64.88
66.95
67.93
67.45
64.83
59.31
50.43
38.27
23.37
6.72
-10.4
-26.53
-40.26
-50.43
-56.47
-58.52
-57.37
-54.24
-50.38
-46.83
-44.22
-42.83
-42.58
-43.16
-44.01
-44.32
-43.22
-39.89
-33.87
-25.17
-14.28
-2.11
10.27
21.78
31.5
38.73
43.12
44.62
43.5
40.28
35.64
30.26
24.79
19.78
15.7
12.91
11.62
11.77
13.05
14.94
16.89
18.45
19.37
19.57
18.99
17.51
14.98
11.3
6.56
1.09
-4.67
-10.39
-16.01
-21.76
-28.07
-35.26
-43.34
-51.91
-60.19
-67.21
-72.12
-74.43
-74.26
-72.27
-69.49
-66.94
-65.25
-64.4
-63.82
-62.71
-60.57
-57.57
-54.46
-52.07
-50.56
-48.92
-45.0
-36.31
-21.12
0.63
26.99
54.73
80.39
101.34
116.24
124.9
127.63
124.82
116.84
104.29
88.26
70.36
52.34
35.59
20.77
7.78
-4.02
-15.18
-25.92
-35.85
-44.05
-49.4
-50.94
-48.11
-41.04
-30.55
-17.96
-4.78
7.64
18.47
27.44
34.78
40.92
46.14
50.36
53.22
54.18
52.93
49.55
44.49
38.52
32.43
26.87
22.3
18.91
16.65
15.26
14.28
13.08
11.06
7.76
3.03
-2.88
-9.46
-16.21
-22.86
-29.52
-36.6
-44.51
-53.27
-62.31
-70.39
-75.96
-77.59
-74.55
-66.97
-55.89
-42.85
-29.43
-16.72
-5.15
5.4
15.27
24.61
33.16
40.41
45.84
49.2
50.62
50.44
49.0
46.65
43.69
40.56
37.77
35.73
34.38
33.17
31.19
27.61
22.12
15.11
7.44
-0.05
-6.99
-13.69
-21.06
-30.23
-42.09
-56.93
-74.2
-92.5
-109.73
-123.47
-131.47
-132.14
-125.04
-110.96
-91.8
-70.02
-48.07
-27.96
-10.99
2.19
11.33
16.47
17.89
16.14
12.13
7.07
2.17
-1.62
-3.83
-4.51
-3.92
-2.22
0.69
5.14
11.36
19.2
28.0
36.75
44.43
50.35
54.21
56.03
55.92
53.93
50.07
44.33
36.72
27.26
15.83
2.32
-13.19
-29.98
-46.47
-60.27
-68.7
-69.64
-62.3
-47.65
-28.17
-7.13
12.37
28.13
39.19
45.72
48.68
49.3
48.79
48.02
47.41
46.87
45.91
43.94
40.61
36.08
31.01
26.27
22.57
20.22
19.09
18.83
19.04
19.33
19.34
18.68
17.03
14.29
10.81
7.26
4.45
2.94
2.62
2.67
1.65
-1.98
-9.42
-20.94
-35.62
-51.34
-65.14
-74.01
-75.75
-69.6
-56.45
-38.46
-18.24
1.94
20.72
37.7
53.03
66.9
79.09
88.94
95.67
98.79
98.46
95.57
91.35
87.05
83.52
81.0
79.31
78.06
76.88
75.53
73.94
72.09
69.97
67.44
64.12
59.5
53.05
44.42
33.77
21.8
9.54
-1.98
-12.26
-21.46
-30.35
-39.96
-51.11
-64.17
-78.82
-94.04
-108.2
-119.29
-125.27
-124.62
-116.74
-102.22
-82.67
-60.23
-37.15
-15.26
4.14
20.18
32.38
40.45
44.33
44.37
41.32
36.38
30.98
26.49
23.79
23.11
24.01
25.68
27.38
28.72
29.78
30.79
31.77
32.34
31.76
29.3
24.65
18.09
10.39
2.46
-5.01
-11.78
-17.99
-24.0
-30.21
-36.95
-44.53
-53.13
-62.66
-72.47
-81.3
-87.38
-89.04
-85.19
-75.88
-62.17
-45.81
-28.59
-11.86
3.58
17.34
29.09
38.44
45.04
48.83
50.23
50.13
49.56
49.31
49.68
50.5
51.29
51.67
51.5
50.93
50.1
48.85
46.62
42.51
35.69
25.72
12.91
-1.81
-17.13
-31.83
-45.08
-56.76
-67.32
-77.68
-88.89
-101.61
-115.71
-129.96
-142.15
-149.6
-150.11
-142.64
-127.68
-106.95
-82.7
-57.06
-31.67
-7.6
14.37
33.6
49.63
62.26
71.63
78.07
82.0
83.78
83.76
82.42
80.41
78.46
77.04
76.16
75.25
73.34
69.44
62.8
53.15
40.69
25.98
9.8
-6.94
-23.35
-38.67
-52.37
-64.24
-74.3
-82.61
-88.99
-92.79
-92.82
-87.52
-75.52
-56.24
-30.39
-0.13
31.44
61.09
86.28
105.72
119.34
127.86
132.11
132.63
129.61
123.16
113.69
102.13
89.79
78.09
68.17
60.72
56.0
54.0
54.58
57.53
62.36
68.25
73.87
77.68
78.3
75.06
68.22
58.89
48.55
38.48
29.25
20.63
11.93
2.45
-8.26
-20.27
-33.45
-47.58
-62.44
-77.58
-92.29
-105.59
-116.35
-123.55
-126.49
-124.7
-118.05
-106.8
-91.84
-74.92
-58.5
-45.32
-37.58
-36.42
-41.67
-52.17
-66.19
-81.59
-95.8
-105.67
-107.91
-99.94
-81.1
-53.36
-21.01
10.67
37.31
56.65
68.92
75.84
79.33
80.52
79.48
75.7
68.83
59.14
47.51
35.17
23.25
12.52
3.39
-4.01
-9.73
-13.9
-16.72
-18.49
-19.55
-20.09
-19.95
-18.45
-14.39
-6.54
5.97
23.04
43.54
65.58
87.04
106.22
122.13
134.31
142.51
146.3
144.99
137.94
124.97
106.82
85.38
63.67
45.51
34.78
34.46
45.65
67.0
94.78
123.78
148.55
164.74
169.78
163.11
145.79
119.96
88.42
54.35
20.84
-9.56
-35.33
-56.28
-73.29
-87.64
-100.38
-111.94
-122.3
-131.35
-139.26
-146.45
-153.38
-160.12
-166.2
-170.74
-172.66
-170.98
-164.97
-154.23
-138.65
-118.59
-94.91
-69.03
-42.77
-18.0
3.7
21.31
34.45
43.31
48.48
50.77
51.03
50.03
48.36
46.38
44.19
41.7
38.78
35.37
31.61
27.81
24.35
21.52
19.3
17.41
15.27
12.27
7.94
2.12
-4.98
-12.77
-20.56
-27.63
-33.52
-38.11
-41.72
-45.02
-48.86
-54.13
-61.4
-70.74
-81.47
-92.21
-101.07
-106.04
-105.53
-98.78
-86.06
-68.62
-48.36
-27.39
-7.54
9.93
24.43
35.9
44.58
50.77
54.75
56.79
57.23
56.52
55.19
53.72
52.42
51.43
50.83
50.7
51.06
51.83
52.63
52.86
51.81
48.93
43.93
36.92
28.3
18.6
8.4
-1.82
-11.72
-21.13
-30.06
-38.62
-46.91
-54.96
-62.65
-69.86
-76.61
-83.14
-89.81
-96.82
-103.87
-109.96
-113.54
-112.91
-106.84
-95.03
-78.28
-58.3
-37.24
-17.13
0.59
15.35
27.35
37.26
45.83
53.44
59.94
64.77
67.36
67.57
65.88
63.27
60.77
59.02
58.04
57.4
56.55
55.19
53.36
51.27
49.08
46.7
43.83
40.15
35.53
30.13
24.3
18.39
12.55
6.72
0.64
-5.94
-13.21
-21.2
-29.85
-39.03
-48.68
-58.83
-69.55
-80.79
-92.25
-103.21
-112.55
-118.92
-121.03
-118.0
-109.67
-96.56
-79.89
-61.2
-42.05
-23.81
-7.44
6.44
17.54
25.72
30.99
33.58
34.01
33.12
31.85
30.93
30.6
30.63
30.6
30.27
29.92
30.27
32.04
35.47
40.08
44.63
47.69
48.12
45.44
39.93
32.47
24.22
16.27
9.49
4.29
0.64
-1.89
-3.98
-6.44
-10.03
-15.28
-22.29
-30.54
-38.85
-45.55
-48.91
-47.78
-41.99
-32.53
-21.1
-9.56
0.66
8.85
14.86
18.81
20.82
20.95
19.35
16.45
12.96
9.71
7.35
6.22
6.29
7.34
9.12
11.48
14.33
17.51
20.78
23.74
25.93
26.9
26.24
23.66
19.01
12.36
4.03
-5.29
-14.66
-23.01
-29.38
-33.29
-34.83
-34.73
-34.15
-34.26
-35.86
-39.04
-43.11
-46.8
-48.56
-47.02
-41.36
-31.46
-17.93
-1.84
15.45
32.7
48.83
62.97
74.46
82.75
87.5
88.63
86.46
81.61
74.88
66.96
58.28
48.99
39.08
28.66
18.09
7.99
-0.83
-7.58
-11.63
-12.57
-10.34
-5.41
1.17
7.62
11.87
12.02
7.12
-2.42
-14.93
-28.16
-40.26
-50.59
-59.87
-69.65
-81.28
-95.17
-110.49
-125.65
-138.88
-148.74
-154.22
-154.39
-148.27
-134.89
-113.87
-86.04
-53.61
-19.85
11.82
38.74
59.48
73.82
82.29
85.82
85.52
82.7
79.01
76.12
75.33
77.11
80.85
85.13
88.32
89.3
87.82
84.48
80.24
75.87
71.51
66.68
60.55
52.41
42.03
29.82
16.61
3.38
-9.22
-21.0
-32.31
-43.86
-56.45
-70.63
-86.57
-103.9
-121.7
-138.49
-152.35
-161.09
-162.63
-155.53
-139.49
-115.72
-86.86
-56.47
-28.16
-4.75
12.34
23.23
29.09
31.54
31.91
30.83
28.29
23.95
17.62
9.66
1.32
-5.25
-7.26
-1.78
13.36
38.71
72.45
110.24
146.12
174.08
189.81
191.89
181.88
163.34
140.29
115.99
92.42
70.44
50.26
31.73
14.38
-2.54
-19.84
-37.81
-55.73
-71.74
-83.42
-88.79
-87.12
-79.27
-67.29
-53.58
-40.14
-28.11
-17.84
-9.16
-1.74
4.77
10.61
15.88
20.37
23.59
24.82
23.49
19.49
13.4
6.36
-0.34
-5.86
-10.07
-13.63
-17.55
-22.67
-29.27
-36.94
-44.69
-51.32
-55.81
-57.44
-55.99
-51.7
-45.27
-37.85
-30.76
-25.06
-21.14
-18.39
-15.37
-10.42
-2.36
8.94
22.56
37.01
50.84
63.1
73.4
81.62
87.55
90.71
90.63
87.06
80.31
71.19
60.79
50.18
40.14
31.22
23.71
17.74
13.26
9.98
7.36
4.64
1.06
-3.98
-10.72
-18.95
-28.06
-37.27
-45.81
-53.16
-59.21
-64.23
-68.74
-73.34
-78.35
-83.61
-88.37
-91.39
-91.25
-86.82
-77.68
-64.28
-47.87
-30.17
-12.88
2.73
15.93
26.56
34.82
41.1
45.82
49.35
51.87
53.34
53.52
52.09
48.88
44.07
38.31
32.57
27.83
24.72
23.31
23.07
23.08
22.36
20.13
15.99
10.11
3.03
-4.33
-11.08
-16.58
-20.72
-24.11
-27.84
-33.28
-41.49
-52.83
-66.73
-81.61
-95.19
-104.95
-108.7
-105.15
-94.32
-77.65
-57.6
-37.09
-18.68
-4.0
6.49
13.27
17.19
19.03
19.16
17.69
14.77
10.87
6.72
3.11
0.54
-0.91
-1.36
-0.89
0.78
4.16
9.73
17.4
26.44
35.54
43.27
48.54
50.85
50.32
47.36
42.52
36.39
29.61
22.93
17.11
12.72
9.79
7.64
4.9
-0.05
-8.52
-20.85
-36.08
-52.04
-65.86
-74.9
-77.47
-73.35
-63.75
-50.85
-36.97
-23.88
-12.41
-2.43
6.76
15.77
24.7
32.86
39.08
42.22
41.79
38.21
32.83
27.28
22.82
19.75
17.37
14.35
9.29
1.32
-9.82
-23.81
-39.66
-55.5
-68.19
-73.65
-67.94
-49.02
-18.14
19.83
57.9
89.29
109.86
119.0
118.9
112.71
102.74
89.78
73.64
54.43
33.45
13.29
-2.99
-13.02
-15.9
-12.43
-4.69
4.78
13.76
20.97
26.06
29.36
31.36
32.23
31.68
29.17
24.33
17.49
9.76
2.82
-1.66
-2.64
-0.08
5.15
11.73
18.51
24.9
30.82
36.35
41.25
44.7
45.49
42.59
35.71
25.55
13.52
1.22
-10.3
-20.73
-30.46
-40.11
-50.09
-60.36
-70.49
-79.76
-87.35
-92.3
-93.56
-90.12
-81.46
-67.78
-50.33
-31.17
-12.59
3.52
16.25
25.76
32.93
38.73
43.72
47.86
50.69
51.81
51.21
49.36
47.0
44.68
42.48
40.01
36.69
32.15
26.52
20.36
14.37
9.0
4.22
-0.37
-5.26
-10.71
-16.54
-22.29
-27.44
-31.7
-35.16
-38.23
-41.41
-45.07
-49.34
-54.04
-58.72
-62.74
-65.42
-66.22
-64.93
-61.72
-57.13
-51.78
-46.2
-40.61
-34.92
-28.8
-21.89
-13.88
-4.67
5.66
16.83
28.35
39.53
49.61
57.9
63.93
67.55
68.89
68.33
66.35
63.39
59.76
55.61
50.97
45.83
40.26
34.42
28.53
22.82
17.35
11.94
6.1
-0.93
-9.93
-21.43
-35.39
-51.1
-67.22
-82.01
-93.7
-100.85
-102.67
-99.21
-91.32
-80.45
-68.24
-56.09
-44.81
-34.62
-25.21
-16.31
-7.89
-0.39
5.49
9.11
10.19
8.87
5.75
1.65
-2.45
-5.54
-6.66
-5.01
-0.2
7.56
17.43
28.05
38.04
46.29
52.28
56.02
57.76
57.78
56.16
52.83
47.85
41.47
34.23
26.8
19.75
13.35
7.59
2.25
-3.0
-8.47
-14.43
-21.06
-28.28
-35.69
-42.46
-47.39
-49.27
-47.18
-40.93
-31.1
-19.01
-6.35
5.23
14.49
20.88
24.54
26.08
26.3
25.9
25.28
24.49
23.34
21.5
18.65
14.57
9.22
2.81
-4.13
-10.83
-16.36
-19.99
-21.37
-20.65
-18.41
-15.37
-12.17
-9.23
-6.83
-5.15
-4.31
-4.38
-5.31
-6.88
-8.74
-10.54
-12.06
-13.25
-14.28
-15.37
-16.75
-18.36
-19.85
-20.58
-19.76
-16.81
-11.6
-4.67
2.9
9.85
15.09
18.11
18.98
18.21
16.33
13.77
10.71
7.27
3.65
0.16
-2.83
-5.09
-6.59
-7.47
-7.88
-7.9
-7.57
-7.06
-6.78
-7.32
-9.24
-12.79
-17.8
-23.61
-29.25
-33.65
-35.87
-35.29
-31.81
-25.95
-18.76
-11.6
-5.78
-2.29
-1.54
-3.39
-7.18
-11.83
-16.03
-18.48
-18.17
-14.69
-8.38
-0.21
8.55
16.82
23.89
29.57
33.97
37.22
39.31
40.05
39.16
36.49
32.13
26.47
20.17
14.0
8.72
4.91
2.82
2.33
2.99
4.13
5.05
5.18
4.23
2.2
-0.7
-4.13
-7.79
-11.51
-15.25
-19.19
-23.62
-28.93
-35.45
-43.33
-52.35
-61.85
-70.8
-77.94
-82.05
-82.35
-78.81
-72.26
-64.12
-55.92
-48.78
-43.14
-38.79
-35.17
-31.66
-27.77
-23.09
-17.3
-10.21
-1.94
7.01
15.76
23.44
29.44
33.68
36.51
38.32
39.29
39.21
37.52
33.59
26.88
17.12
4.43
-10.68
-27.25
-44.01
-59.68
-73.38
-84.91
-94.84
-104.06
-113.05
-121.12
-126.03
-124.45
-113.01
-89.63
-54.42
-9.87
39.87
89.97
136.08
175.01
205.26
226.97
241.61
251.39
258.32
263.52
267.06
268.3
266.74
262.42
255.7
246.23
232.25
210.85
179.44
137.71
88.61
37.86
-8.06
-44.06
-67.8
-79.54
-81.07
-74.76
-63.35
-50.35
-40.0
-36.26
-41.19
-53.45
-68.32
-79.36
-81.1
-71.45
-52.59
-30.0
-10.28
1.42
3.0
-4.31
-16.9
-30.52
-41.66
-48.51
-50.92
-49.98
-47.2
-44.02
-41.58
-40.81
-42.73
-48.54
-59.41
-75.89
-97.2
-120.94
-143.45
-160.92
-170.64
-172.2
-167.64
-160.71
-155.44
-154.62
-158.71
-165.65
-171.66
-172.51
-165.02
-147.92
-122.12
-90.19
-55.44
-21.05
10.52
37.53
58.8
73.46
81.19
82.37
78.32
70.91
62.11
53.58
46.4
41.36
38.94
39.19
41.26
43.32
43.1
38.83
30.25
18.85
7.34
-1.41
-5.04
-1.73
10.16
32.09
64.47
105.29
149.17
188.11
213.85
221.02
209.42
183.79
151.67
120.08
93.08
71.05
51.83
32.47
10.83
-13.88
-41.14
-69.5
-96.84
-120.65
-138.54
-148.99
-151.86
-148.68
-142.04
-134.66
-128.44
-123.81
-119.93
-115.33
-108.86
-100.32
-90.51
-80.46
-70.38
-58.96
-43.67
-21.78
8.16
45.27
86.07
125.27
156.95
175.8
177.65
159.77
121.51
65.54
-1.25
-68.19
-123.75
-159.58
-173.86
-171.56
-161.1
-149.48
-138.77
-126.28
-108.13
-83.76
-58.09
-39.53
-35.22
-46.84
-70.02
-97.44
-123.43
-146.43
-167.97
-189.16
-207.51
-216.58
-208.7
-179.25
-129.77
-68.18
-6.08
45.48
79.59
95.28
97.16
93.26
92.12
100.14
119.98
150.19
186.5
223.88
258.21
287.06
309.47
325.13
333.66
334.49
327.32
312.54
291.3
265.31
236.25
205.32
173.27
140.68
108.37
77.71
50.36
27.75
10.41
-2.35
-12.25
-21.37
-31.39
-43.09
-56.26
-70.08
-83.62
-96.31
-108.05
-119.18
-130.11
-141.04
-151.76
-161.57
-169.4
-174.03
-174.37
-169.83
-160.5
-147.26
-131.58
-115.08
-99.04
-84.05
-69.97
-56.15
-41.94
-27.17
-12.23
2.04
14.75
25.31
33.56
39.72
44.2
47.49
50.12
52.61
55.39
58.67
62.45
66.47
70.39
73.85
76.52
78.18
78.63
77.7
75.29
71.33
65.81
58.62
49.67
39.11
27.57
16.46
7.63
2.97
3.68
9.82
20.34
33.41
47.13
59.92
70.73
79.04
84.69
87.75
88.56
87.61
85.42
82.42
78.85
74.7
69.7
63.19
54.11
41.18
23.42
0.93
-24.69
-50.31
-72.22
-87.44
-94.82
-95.38
-91.75
-86.9
-82.94
-80.51
-78.99
-77.33
-75.0
-72.58
-71.69
-74.43
-82.5
-96.42
-115.07
-135.78
-154.92
-168.58
-173.46
-167.61
-150.8
-124.67
-92.19
-56.84
-21.63
11.6
42.19
70.21
95.76
118.41
137.12
150.61
157.94
158.91
154.22
145.23
133.48
120.44
107.16
94.28
82.05
70.47
59.52
49.31
40.15
32.47
26.57
22.42
19.6
17.4
15.05
11.99
7.98
3.05
-2.57
-8.59
-14.67
-20.44
-25.49
-29.54
-32.66
-35.35
-38.46
-42.85
-48.93
-56.26
-63.59
-69.12
-71.16
-68.66
-61.53
-50.64
-37.4
-23.3
-9.44
3.55
15.41
26.05
35.32
43.06
49.22
54.08
58.16
62.09
66.27
70.69
74.93
78.35
80.38
80.74
79.49
76.9
73.32
69.03
64.25
59.16
53.92
48.69
43.47
38.14
32.45
26.08
18.84
10.73
2.0
-6.92
-15.56
-23.59
-31.01
-38.21
-45.79
-54.26
-63.56
-72.89
-80.7
-85.15
-84.75
-78.88
-68.04
-53.68
-37.71
-22.01
-8.02
3.36
11.8
17.37
20.49
21.84
22.17
22.15
22.25
22.68
23.51
24.73
26.36
28.43
30.88
33.5
35.93
37.81
38.93
39.38
39.35
39.02
38.31
36.89
34.27
30.04
24.16
16.97
9.11
1.23
-6.28
-13.42
-20.57
-28.33
-37.27
-47.73
-59.64
-72.29
-84.38
-94.01
-99.11
-97.89
-89.46
-74.16
-53.55
-30.05
-6.24
15.65
34.15
48.57
58.77
64.94
67.35
66.34
62.29
55.78
47.63
38.88
30.61
23.77
18.91
16.11
15.03
15.08
15.76
16.77
17.99
19.44
21.04
22.63
23.98
24.84
25.01
24.29
22.45
19.16
14.11
7.06
-2.02
-12.86
-25.05
-38.13
-51.77
-65.78
-80.06
-94.32
-107.9
-119.65
-128.06
-131.55
-128.81
-119.19
-102.88
-80.89
-54.96
-27.29
-0.18
24.31
44.63
59.94
70.05
75.19
75.75
72.04
64.36
53.23
39.64
25.1
11.44
0.32
-7.1
-10.47
-10.05
-6.49
-0.52
7.11
15.6
24.12
31.83
38.11
42.7
45.68
47.34
47.97
47.66
46.22
43.32
38.51
31.43
21.97
10.44
-2.41
-15.51
-27.79
-38.62
-48.02
-56.51
-64.62
-72.32
-78.72
-82.23
-81.24
-74.74
-62.88
-46.83
-28.41
-9.5
8.42
24.39
37.89
48.65
56.5
61.44
63.68
63.67
62.04
59.44
56.39
53.27
50.24
47.31
44.36
41.19
37.53
33.11
27.86
21.94
15.74
9.86
4.75
0.62
-2.72
-5.74
-8.94
-12.69
-17.0
-21.59
-26.04
-29.9
-32.88
-34.93
-36.31
-37.59
-39.62
-43.3
-49.32
-57.67
-67.43
-76.83
-83.67
-85.98
-82.67
-73.78
-60.4
-44.15
-26.65
-9.23
7.2
22.0
34.6
44.53
51.46
55.45
56.97
56.89
56.27
55.97
56.53
58.03
60.2
62.53
64.48
65.59
65.52
64.09
61.15
56.6
50.36
42.42
32.88
21.95
9.87
-3.14
-16.88
-31.05
-45.08
-58.08
-68.94
-76.69
-80.88
-81.9
-80.83
-79.17
-78.16
-78.32
-79.3
-80.01
-79.22
-76.06
-70.41
-62.76
-53.89
-44.45
-34.73
-24.8
-14.77
-4.98
4.09
12.04
18.9
25.06
31.04
37.06
42.79
47.38
49.89
49.73
46.96
42.27
36.62
30.84
25.41
20.4
15.6
10.77
5.89
1.27
-2.59
-5.07
-5.8
-4.91
-3.07
-1.45
-1.36
-3.94
-9.75
-18.7
-30.05
-42.69
-55.48
-67.43
-77.91
-86.46
-92.66
-95.95
-95.57
-90.73
-80.89
-66.09
-47.05
-25.15
-2.18
20.08
40.15
57.03
70.19
79.46
84.88
86.67
85.24
81.23
75.58
69.45
64.06
60.42
58.99
59.62
61.57
63.8
65.37
65.67
64.47
61.79
57.76
52.5
46.17
39.08
31.68
24.45
17.66
11.35
5.3
-0.66
-6.56
-12.3
-17.83
-23.44
-29.76
-37.71
-48.08
-61.15
-76.39
-92.52
-107.76
-120.16
-128.0
-130.17
-126.27
-116.68
-102.45
-85.05
-66.07
-46.92
-28.69
-12.05
2.65
15.24
25.53
33.3
38.32
40.49
40.03
37.52
33.83
29.94
26.64
24.46
23.52
23.67
24.56
25.87
27.32
28.73
29.92
30.67
30.66
29.46
26.69
22.12
15.87
8.32
0.01
-8.65
-17.53
-26.85
-36.99
-48.23
-60.54
-73.43
-86.06
-97.24
-105.67
-110.05
-109.38
-103.26
-92.05
-76.96
-59.7
-42.17
-25.9
-11.89
-0.52
8.26
14.75
19.28
22.2
23.86
24.66
25.0
25.3
25.87
26.85
28.14
29.37
29.93
29.24
27.05
23.82
20.69
19.26
20.97
26.4
34.94
44.87
53.93
60.14
62.49
61.11
57.09
51.77
46.17
40.65
34.88
28.11
19.59
8.85
-4.07
-18.54
-33.31
-46.66
-56.62
-61.38
-59.68
-51.26
-37.02
-18.8
1.05
20.29
37.2
50.77
60.59
66.63
69.02
67.99
63.9
57.31
49.04
39.99
31.17
23.39
17.18
12.72
9.79
8.0
6.86
6.08
5.5
5.07
4.6
3.64
1.65
-1.9
-7.2
-14.05
-21.96
-30.35
-38.73
-46.78
-54.22
-60.88
-66.61
-71.44
-75.64
-79.73
-84.31
-89.77
-95.95
-102.02
-106.54
-107.77
-104.13
-94.69
-79.41
-59.2
-35.65
-10.77
13.38
35.08
53.07
66.73
76.02
81.42
83.68
83.57
81.75
78.61
74.43
69.45
64.0
58.52
53.46
49.19
45.82
43.14
40.65
37.76
34.03
29.35
23.98
18.4
13.07
8.16
3.52
-1.18
-6.26
-11.86
-17.86
-24.1
-30.54
-37.34
-44.85
-53.42
-63.28
-74.39
-86.4
-98.58
-109.68
-117.94
-121.3
-117.95
-106.94
-88.7
-65.11
-38.93
-13.05
10.3
29.98
45.79
58.14
67.53
74.4
78.97
81.52
82.43
82.22
81.38
80.23
78.76
76.63
73.41
68.84
63.07
56.62
50.21
44.3
38.89
33.49
27.39
20.04
11.21
1.06
-10.0
-21.38
-32.45
-42.56
-51.12
-57.89
-63.07
-67.47
-72.14
-78.1
-85.76
-94.67
-103.5
-110.32
-113.1
-110.29
-101.17
-86.15
-66.58
-44.42
-21.68
-0.03
19.49
36.47
50.98
63.33
73.75
82.32
88.93
93.37
95.5
95.44
93.56
90.5
86.92
83.34
79.98
76.77
73.53
70.08
66.39
62.52
58.59
54.61
50.43
45.8
40.35
33.79
25.88
16.64
6.26
-4.92
-16.52
-28.3
-40.27
-52.66
-65.78
-79.8
-94.61
-109.71
-124.25
-137.08
-146.82
-152.05
-151.57
-144.69
-131.61
-113.42
-91.85
-68.72
-45.4
-22.52
-0.06
22.22
44.39
66.02
86.3
104.2
118.81
129.49
135.88
137.86
135.48
128.89
118.54
105.12
89.7
73.55
57.97
43.98
32.14
22.54
14.93
8.89
4.1
0.41
-2.08
-3.17
-2.6
-0.29
3.61
8.65
14.14
19.19
22.86
24.16
22.2
16.18
5.57
-9.68
-28.91
-50.5
-71.85
-89.63
-100.51
-101.94
-92.97
-74.71
-50.07
-23.06
2.43
23.51
38.9
48.78
54.25
56.67
57.14
56.28
54.38
51.42
47.25
41.56
34.01
24.45
13.24
1.42
-9.36
-17.36
-21.34
-21.2
-17.97
-13.51
-9.74
-8.04
-8.99
-12.45
-18.0
-25.17
-33.48
-42.34
-50.86
-58.04
-62.99
-65.45
-65.93
-65.66
-66.19
-68.73
-73.63
-80.16
-86.6
-90.79
-90.83
-85.58
-74.94
-59.78
-41.67
-22.45
-3.98
12.19
25.02
34.05
39.49
42.0
42.49
41.85
40.8
39.85
39.33
39.5
40.46
42.09
44.06
45.92
47.33
48.13
48.5
48.8
49.28
49.92
50.27
49.57
46.97
41.89
34.28
24.83
14.7
5.15
-2.9
-9.3
-14.65
-20.13
-26.98
-36.04
-47.44
-60.49
-73.7
-85.06
-92.38
-93.73
-87.92
-74.9
-55.84
-32.89
-8.63
14.64
35.36
52.75
66.71
77.31
84.58
88.49
89.07
86.69
82.04
75.96
69.16
61.99
54.5
46.62
38.47
30.48
23.28
17.44
13.17
10.23
8.07
6.11
4.01
1.75
-0.48
-2.4
-3.9
-5.03
-6.09
-7.55
-10.1
-14.53
-21.61
-32.01
-46.03
-63.48
-83.46
-104.26
-123.39
-138.0
-145.46
-144.11
-133.76
-115.72
-92.38
-66.43
-40.12
-14.98
8.18
28.83
46.54
60.87
71.51
78.49
82.15
83.06
81.82
79.05
75.41
71.53
67.97
65.0
62.35
59.17
54.23
46.37
35.0
20.45
3.88
-13.14
-29.23
-43.59
-56.05
-66.67
-75.41
-81.9
-85.64
-86.38
-84.48
-80.93
-76.94
-73.57
-71.37
-70.4
-70.36
-70.7
-70.54
-68.67
-63.7
-54.59
-41.18
-24.48
-6.36
11.12
26.45
39.01
48.92
56.63
62.45
66.52
68.88
69.69
69.3
68.18
66.84
65.77
65.4
66.06
67.88
70.64
73.79
76.69
78.86
80.02
80.16
79.17
76.74
72.34
65.42
55.77
43.66
29.73
14.79
-0.54
-15.93
-31.35
-46.78
-62.1
-76.99
-91.05
-103.97
-115.52
-125.4
-132.94
-136.87
-135.56
-127.44
-111.77
-89.1
-61.44
-31.61
-2.5
23.73
46.04
64.35
79.01
90.3
98.17
102.34
102.67
99.47
93.71
86.82
80.29
75.29
72.35
71.31
71.44
71.92
71.95
71.13
69.44
67.12
64.47
61.59
58.29
54.19
48.8
41.78
32.95
22.35
10.12
-3.58
-18.54
-34.52
-51.25
-68.55
-86.52
-105.48
-125.69
-146.87
-167.6
-185.31
-196.73
-198.91
-190.23
-171.1
-143.81
-111.83
-78.84
-47.73
-20.23
3.12
22.49
38.39
51.23
61.25
68.56
73.33
75.88
76.75
76.45
75.31
73.36
70.42
66.31
61.12
55.31
49.48
44.12
39.38
35.05
30.75
26.17
21.29
16.36
11.84
8.23
5.81
4.54
3.91
2.98
0.46
-4.9
-13.89
-26.49
-41.57
-57.01
-70.12
-78.26
-79.57
-73.43
-60.64
-43.17
-23.57
-4.34
12.66
26.41
36.72
43.88
48.38
50.65
51.06
49.96
47.78
45.08
42.46
40.45
39.33
39.12
39.48
39.99
40.27
40.15
39.71
39.11
38.38
37.26
35.19
31.52
25.8
18.03
8.81
-0.97
-10.43
-19.03
-26.8
-34.17
-41.79
-50.21
-59.62
-69.68
-79.48
-87.6
-92.35
-92.19
-86.22
-74.55
-58.34
-39.4
-19.75
-0.99
15.9
30.45
42.48
51.71
57.81
60.43
59.58
55.79
50.18
44.2
39.22
36.11
35.0
35.34
36.19
36.7
36.38
35.27
33.69
31.95
30.01
27.41
23.51
17.73
9.92
0.41
-10.05
-20.55
-30.23
-38.48
-45.04
-50.09
-54.22
-58.45
-63.93
-71.64
-81.85
-93.78
-105.52
-114.39
-117.62
-113.18
-100.36
-79.99
-54.15
-25.6
2.87
28.93
51.03
68.37
80.85
88.85
93.13
94.62
94.21
92.64
90.45
88.0
85.54
83.26
81.23
79.45
77.75
75.86
73.51
70.46
66.54
61.56
55.32
47.55
37.99
26.49
13.18
-1.45
-16.56
-31.12
-44.11
-54.92
-63.46
-70.22
-76.08
-81.89
-88.09
-94.52
-100.25
-103.75
-103.23
-97.05
-84.23
-64.86
-40.28
-12.89
14.35
38.59
57.56
69.94
75.4
74.44
68.17
58.12
45.95
33.24
21.15
10.14
0.04
-9.8
-19.89
-30.18
-39.82
-47.43
-51.69
-51.8
-47.77
-40.23
-30.06
-18.13
-5.38
7.01
17.42
24.05
25.48
21.19
11.69
-1.91
-18.53
-37.69
-59.39
-83.58
-109.52
-135.38
-158.45
-175.81
-185.22
-185.67
-177.44
-161.93
-140.9
-116.29
-89.81
-62.98
-37.26
-13.86
6.38
23.15
36.61
47.19
55.29
61.12
64.87
66.92
67.75
67.7
66.51
63.38
57.47
48.93
39.54
32.29
30.14
34.33
43.44
53.73
60.86
61.78
56.01
45.62
33.77
23.22
15.17
9.21
4.13
-1.26
-7.6
-15.05
-23.57
-33.12
-43.57
-54.19
-63.4
-68.86
-68.05
-59.19
-42.01
-18.18
9.16
36.24
59.78
77.86
90.09
97.4
101.25
103.02
103.54
103.11
101.83
99.87
97.61
95.5
93.75
92.22
90.41
87.78
84.0
79.13
73.5
67.49
61.24
54.6
47.17
38.52
28.57
17.63
6.43
-4.21
-13.73
-22.09
-29.83
-37.78
-46.74
-57.19
-69.11
-82.0
-94.93
-106.55
-115.22
-119.26
-117.29
-108.78
-94.32
-75.6
-54.9
-34.51
-16.11
-0.52
12.08
21.87
29.16
34.27
37.62
39.73
41.13
42.27
43.44
44.8
46.48
48.49
50.74
52.86
54.31
54.59
53.49
51.25
48.32
45.11
41.55
37.23
31.63
24.52
16.24
7.51
-0.9
-8.61
-15.68
-22.53
-29.66
-37.52
-46.39
-56.33
-67.03
-77.65
-86.62
-91.87
-91.31
-83.51
-68.33
-47.17
-22.73
1.59
22.37
36.92
43.71
42.58
34.6
21.67
5.96
-10.65
-26.87
-41.98
-55.63
-67.56
-77.43
-84.9
-89.76
-92.09
-92.25
-90.74
-88.07
-84.64
-80.78
-76.79
-72.98
-69.53
-66.28
-62.44
-56.55
-46.68
-31.08
-8.93
19.11
50.69
82.31
110.14
130.88
142.45
144.24
137.06
122.93
104.78
85.98
69.83
58.86
54.3
55.89
62.12
70.82
79.74
87.03
91.35
91.87
88.12
80.1
68.39
54.15
39.0
24.68
12.58
3.49
-2.49
-5.69
-6.65
-5.84
-3.73
-0.98
1.56
2.81
1.89
-1.65
-7.64
-15.44
-24.32
-33.68
-43.22
-52.86
-62.56
-72.26
-82.02
-92.15
-103.1
-115.0
-127.09
-137.4
-143.01
-140.94
-129.34
-108.33
-80.0
-47.8
-15.27
14.81
40.85
62.11
78.24
88.92
93.85
93.23
87.99
79.77
70.53
61.88
54.63
48.66
43.29
37.69
31.41
24.45
17.17
9.98
3.02
-3.94
-11.36
-19.67
-28.96
-38.86
-48.52
-56.89
-63.04
-66.51
-67.51
-66.89
-65.97
-66.12
-68.33
-72.81
-78.76
-84.46
-87.75
-86.6
-79.77
-67.21
-50.14
-30.69
-11.29
6.01
19.94
30.15
37.04
41.38
44.04
45.77
47.19
48.71
50.53
52.54
54.33
55.26
54.69
52.2
47.73
41.55
34.07
25.76
16.96
7.87
-1.38
-10.71
-20.03
-29.1
-37.54
-44.9
-50.8
-55.12
-58.18
-60.88
-64.46
-70.23
-79.01
-90.62
-103.53
-114.99
-121.67
-120.63
-110.29
-91.06
-65.2
-36.11
-7.23
18.82
40.66
57.98
71.08
80.47
86.6
89.95
91.08
90.77
89.79
88.69
87.69
86.57
84.91
82.38
78.96
74.95
70.78
66.77
62.92
58.83
53.95
47.77
40.03
30.79
20.49
9.76
-0.7
-10.23
-18.52
-25.68
-32.32
-39.46
-48.15
-59.1
-72.21
-86.31
-99.25
-108.41
-111.39
-106.79
-94.62
-76.35
-54.44
-31.55
-9.86
9.34
25.63
39.05
49.65
57.25
61.53
62.45
60.63
57.35
54.21
52.49
52.68
54.25
56.15
57.39
57.6
57.11
56.6
56.56
56.8
56.54
54.67
50.23
42.87
32.88
21.07
8.43
-4.2
-16.37
-28.07
-39.58
-51.37
-63.93
-77.47
-91.82
-106.2
-119.23
-129.11
-134.0
-132.56
-124.24
-109.54
-89.8
-67.02
-43.48
-21.32
-2.21
12.94
24.04
31.59
36.41
39.19
40.38
40.14
38.69
36.48
34.28
32.83
32.6
33.56
35.3
37.3
39.17
40.58
41.26
40.77
38.62
34.5
28.53
21.27
13.5
5.99
-0.76
-6.47
-11.09
-14.7
-17.77
-21.06
-25.45
-31.29
-37.75
-42.66
-43.16
-36.92
-23.42
-4.4
16.76
36.41
52.13
63.39
71.22
77.24
82.63
87.7
92.1
95.31
97.15
97.79
97.52
96.33
93.83
89.49
83.04
74.71
65.27
55.7
46.67
38.25
29.91
20.8
10.18
-2.19
-16.02
-30.59
-45.03
-58.66
-71.21
-82.86
-94.1
-105.47
-117.08
-128.2
-137.19
-141.65
-139.19
-128.26
-108.83
-82.6
-52.62
-22.45
4.78
27.0
43.46
54.49
60.95
63.84
63.88
61.59
57.36
51.68
45.18
38.58
32.49
27.23
22.78
18.86
15.13
11.51
8.19
5.57
3.97
3.35
3.16
2.45
0.06
-4.95
-13.1
-24.34
-38.01
-52.95
-67.52
-79.75
-87.55
-89.12
-83.37
-70.31
-51.2
-28.25
-4.16
18.61
38.24
53.85
65.33
73.05
77.67
79.88
80.4
79.78
78.38
76.23
73.07
68.5
62.26
54.35
45.19
35.39
25.54
15.95
6.59
-2.8
-12.45
-22.3
-31.87
-40.23
-46.31
-49.28
-48.92
-45.94
-41.9
-38.84
-38.73
-42.76
-50.89
-61.66
-72.39
-79.88
-81.24
-74.74
-60.33
-39.61
-15.33
9.4
31.91
50.51
64.5
73.94
79.34
81.28
80.34
77.16
72.4
66.83
61.16
55.93
51.3
47.16
43.17
39.04
34.77
30.68
27.27
24.95
23.7
22.96
21.73
18.9
13.68
5.92
-3.8
-14.41
-24.72
-33.95
-41.93
-49.18
-56.64
-65.28
-75.6
-87.26
-98.98
-108.66
-113.86
-112.44
-103.21
-86.41
-63.61
-37.45
-10.81
13.78
34.63
51.04
63.02
70.99
75.48
76.96
75.84
72.6
67.96
62.82
58.23
55.0
53.54
53.69
54.72
55.71
55.84
54.66
52.14
48.52
44.04
38.76
32.5
24.97
15.98
5.56
-5.95
-18.08
-30.28
-42.01
-52.82
-62.36
-70.53
-77.55
-84.01
-90.75
-98.57
-107.72
-117.63
-126.96
-133.82
-136.47
-133.74
-125.41
-112.2
-95.49
-76.85
-57.72
-39.15
-21.87
-6.41
6.71
17.06
24.5
29.37
32.6
35.46
39.1
44.13
50.4
57.18
63.58
69.04
73.56
77.56
81.47
85.39
88.84
90.88
90.45
86.75
79.57
69.35
56.99
43.49
29.65
15.93
2.4
-11.03
-24.42
-37.78
-51.1
-64.34
-77.37
-89.67
-100.17
-107.26
-109.31
-105.26
-95.19
-80.33
-62.69
-44.35
-26.83
-10.98
2.88
14.6
23.91
30.46
34.1
35.03
33.99
31.99
30.14
29.25
29.76
31.57
34.25
37.25
40.11
42.72
45.17
47.61
49.93
51.57
51.7
49.51
44.68
37.53
28.99
20.23
12.1
4.87
-1.81
-8.7
-16.53
-25.78
-36.54
-48.53
-61.1
-73.23
-83.47
-90.06
-91.24
-85.81
-73.61
-55.79
-34.6
-12.74
7.35
24.14
37.04
46.24
52.21
55.39
56.13
54.78
51.92
48.36
44.94
42.26
40.47
39.27
38.24
37.02
35.63
34.28
33.25
32.56
31.83
30.4
27.51
22.72
16.08
8.2
0.08
-7.24
-13.04
-17.13
-19.99
-22.56
-26.02
-31.36
-39.09
-48.9
-59.72
-69.82
-77.29
-80.51
-78.58
-71.54
-60.16
-45.66
-29.36
-12.38
4.29
19.77
33.12
43.4
49.92
52.32
50.8
46.03
39.0
30.83
22.57
15.12
9.22
5.4
3.92
4.66
7.1
10.31
13.27
15.0
14.89
12.76
8.75
3.2
-3.49
-10.92
-18.64
-26.17
-33.0
-38.79
-43.58
-47.97
-52.87
-59.1
-66.69
-74.47
-80.21
-81.28
-75.71
-63.13
-45.0
-24.14
-3.69
14.04
28.08
38.7
46.7
52.67
56.69
58.48
57.96
55.51
52.19
49.3
47.92
48.48
50.62
53.43
55.91
57.3
57.25
55.71
52.68
48.08
41.65
32.98
21.8
8.22
-7.07
-22.81
-37.41
-49.51
-58.51
-64.81
-69.72
-74.89
-81.67
-90.53
-100.89
-111.33
-119.94
-124.87
-124.58
-118.09
-105.14
-86.21
-62.6
-36.29
-9.64
15.16
36.47
53.6
66.74
76.68
84.27
89.99
93.71
94.83
92.71
87.05
78.22
67.12
54.92
42.66
31.09
20.59
11.44
3.89
-1.7
-5.0
-5.85
-4.5
-1.6
1.84
4.84
6.75
7.37
6.91
5.56
3.18
-0.81
-7.29
-16.95
-29.8
-44.98
-60.73
-74.89
-85.42
-91.0
-91.3
-86.94
-79.16
-69.26
-58.22
-46.51
-34.3
-21.84
-9.75
0.96
9.22
14.41
16.7
17.08
17.06
18.29
22.11
29.33
40.13
53.99
69.77
85.85
100.37
111.67
118.7
121.2
119.65
114.84
107.45
97.72
85.39
70.07
51.67
30.78
8.78
-12.48
-31.27
-46.5
-58.11
-66.96
-74.42
-81.64
-89.01
-95.93
-100.9
-102.11
-97.98
-87.76
-71.77
-51.29
-28.24
-4.71
17.41
36.64
51.93
62.56
68.09
68.35
63.52
54.31
41.9
27.82
13.7
0.89
-9.65
-17.45
-22.45
-24.91
-25.37
-24.5
-22.96
-21.25
-19.54
-17.75
-15.68
-13.27
-10.77
-8.65
-7.37
-7.1
-7.72
-8.88
-10.21
-11.6
-13.27
-15.7
-19.59
-25.6
-34.09
-44.79
-56.61
-67.6
-75.35
-77.73
-73.61
-63.34
-48.55
-31.6
-14.74
0.43
13.13
23.15
30.55
35.51
38.24
39.09
38.61
37.51
36.61
36.64
38.16
41.29
45.67
50.41
54.4
56.69
56.88
55.21
52.33
48.8
44.77
39.86
33.46
25.22
15.29
4.32
-6.8
-17.33
-26.87
-35.4
-43.14
-50.36
-57.22
-63.78
-69.92
-75.23
-79.07
-80.59
-78.95
-73.61
-64.55
-52.4
-38.34
-23.72
-9.79
2.6
13.08
21.67
28.5
33.71
37.23
38.97
38.87
37.05
33.88
29.91
25.73
21.91
18.83
16.71
15.5
15.02
14.92
14.8
14.32
13.24
11.54
9.37
6.98
4.65
2.63
1.06
-0.07
-1.0
-2.23
-4.47
-8.52
-15.11
-24.59
-36.73
-50.59
-64.62
-76.98
-85.98
-90.45
-90.02
-85.1
-76.57
-65.54
-52.99
-39.65
-25.88
-11.85
2.34
16.46
30.05
42.51
53.21
61.89
68.71
74.33
79.53
84.84
90.24
95.1
98.52
99.68
98.18
94.16
88.21
81.09
73.48
65.81
58.26
50.77
43.28
35.87
28.78
22.34
16.72
11.77
7.02
1.83
-4.3
-11.62
-20.0
-29.03
-38.05
-46.17
-52.39
-55.71
-55.42
-51.38
-44.13
-34.75
-24.47
-14.32
-4.82
4.01
12.35
20.29
27.57
33.58
37.57
38.95
37.62
34.1
29.39
24.71
20.99
18.66
17.57
17.36
17.76
18.9
21.15
24.87
29.96
35.72
41.02
44.7
45.99
44.71
41.24
36.24
30.33
23.92
17.06
9.38
0.1
-11.9
-27.73
-48.01
-72.19
-98.28
-122.97
-142.34
-153.07
-153.39
-143.53
-125.42
-101.87
-75.72
-49.18
-23.73
-0.3
20.47
38.06
52.04
62.16
68.42
71.11
70.85
68.53
65.17
61.62
58.37
55.21
51.34
45.75
37.67
27.02
14.49
1.3
-11.39
-22.84
-32.95
-42.1
-50.73
-58.97
-66.5
-72.74
-77.18
-79.71
-80.64
-80.49
-79.68
-78.3
-76.13
-72.81
-67.98
-61.42
-52.99
-42.65
-30.46
-16.68
-1.82
13.38
28.12
41.65
53.38
62.84
69.62
73.5
74.48
72.89
69.35
64.65
59.47
54.36
49.67
45.62
42.37
39.95
38.26
37.03
35.97
34.94
34.01
33.47
33.57
34.27
35.09
35.23
33.88
30.53
25.22
18.48
11.07
3.65
-3.55
-10.79
-18.72
-28.08
-39.32
-52.29
-66.12
-79.28
-89.98
-96.56
-97.98
-94.03
-85.35
-73.19
-59.09
-44.58
-30.9
-18.88
-8.94
-1.17
4.53
8.35
10.53
11.47
11.68
11.82
12.53
14.24
17.09
21.02
25.87
31.52
37.83
44.54
51.08
56.59
60.22
61.35
59.94
56.48
51.86
46.99
42.58
38.83
35.54
32.12
27.79
21.85
13.71
3.11
-9.76
-24.15
-38.69
-51.52
-60.62
-64.39
-62.1
-54.16
-42.04
-27.73
-13.19
0.06
11.1
19.37
24.45
25.85
23.17
16.43
6.33
-5.72
-17.87
-28.24
-35.38
-38.59
-37.99
-34.38
-28.97
-23.07
-17.68
-13.4
-10.25
-7.85
-5.75
-3.68
-1.78
-0.55
-0.54
-2.02
-4.81
-8.35
-12.03
-15.51
-18.96
-22.98
-28.32
-35.57
-44.91
-55.94
-67.73
-78.9
-87.87
-93.12
-93.53
-88.69
-78.99
-65.57
-49.97
-33.69
-17.86
-3.13
10.24
22.14
32.48
41.18
48.16
53.44
57.1
59.27
60.03
59.43
57.58
54.68
51.07
47.23
43.65
40.8
38.99
38.21
38.11
37.98
36.99
34.52
30.41
25.06
19.19
13.55
8.59
4.36
0.67
-2.69
-5.85
-8.85
-11.75
-14.73
-17.97
-21.49
-24.94
-27.62
-28.64
-27.23
-22.96
-15.92
-6.64
4.05
15.15
25.64
34.64
41.44
45.58
46.89
45.41
41.44
35.53
28.46
21.14
14.41
8.83
4.49
1.07
-1.98
-5.12
-8.54
-12.07
-15.28
-17.68
-18.96
-19.14
-18.59
-17.93
-17.76
-18.41
-19.83
-21.68
-23.68
-25.88
-28.88
-33.64
-41.12
-51.7
-64.79
-78.87
-91.78
-101.34
-105.8
-104.25
-96.55
-83.37
-65.98
-46.03
-25.43
-5.97
10.93
24.55
34.81
42.23
47.51
51.28
53.96
55.78
56.91
57.53
57.83
57.87
57.56
56.64
54.82
51.9
47.88
42.87
37.1
30.77
24.04
17.06
10.01
3.1
-3.33
-8.94
-13.46
-16.85
-19.33
-21.36
-23.45
-26.07
-29.41
-33.41
-37.64
-41.44
-43.92
-44.15
-41.36
-35.18
-25.77
-13.86
-0.63
12.64
24.77
34.93
42.65
47.84
50.65
51.32
50.18
47.59
43.95
39.76
35.59
31.95
29.19
27.43
26.5
26.07
25.87
25.84
26.12
27.02
28.7
31.01
33.44
35.34
36.19
35.83
34.57
32.96
31.36
29.69
27.27
23.13
16.39
6.68
-5.66
-19.67
-33.97
-46.98
-57.1
-62.9
-63.29
-57.72
-46.42
-30.42
-11.4
8.65
27.84
44.65
58.03
67.41
72.6
73.76
71.48
66.66
60.48
54.13
48.45
43.73
39.7
35.63
30.74
24.48
16.79
8.11
-0.83
-9.23
-16.49
-22.35
-26.89
-30.45
-33.43
-36.12
-38.7
-41.21
-43.59
-45.83
-48.02
-50.39
-53.13
-56.37
-59.99
-63.69
-67.06
-69.64
-70.95
-70.4
-67.35
-61.14
-51.46
-38.55
-23.39
-7.46
7.67
20.79
31.29
39.12
44.53
47.74
48.82
47.84
45.08
41.13
36.85
33.06
30.28
28.56
27.59
26.96
26.43
25.93
25.54
25.28
25.02
24.51
23.48
21.77
19.39
16.49
13.22
9.69
5.89
1.62
-3.38
-9.44
-16.82
-25.64
-35.75
-46.78
-58.1
-68.84
-78.03
-84.61
-87.61
-86.42
-80.87
-71.43
-59.09
-45.07
-30.56
-16.46
-3.36
8.4
18.54
26.77
32.9
36.95
39.26
40.5
41.4
42.48
43.78
44.92
45.29
44.4
42.13
38.73
34.61
30.13
25.51
20.79
16.0
11.25
6.68
2.47
-1.34
-4.81
-8.06
-11.2
-14.29
-17.39
-20.74
-24.73
-29.85
-36.39
-44.07
-51.88
-58.12
-60.95
-59.01
-52.0
-40.82
-27.14
-12.91
0.32
11.57
20.36
26.49
29.94
30.81
29.51
26.7
23.16
19.53
16.16
13.12
10.38
7.96
5.98
4.61
3.97
4.06
4.78
5.98
7.44
8.87
9.94
10.4
10.14
9.28
8.08
6.72
5.09
2.78
-0.83
-6.28
-13.8
-23.23
-33.92
-44.76
-54.19
-60.51
-62.13
-58.11
-48.51
-34.47
-17.93
-1.01
14.57
27.85
38.56
46.87
53.04
57.17
59.33
59.74
58.81
57.21
55.62
54.41
53.6
52.82
51.59
49.51
46.5
42.77
38.64
34.33
29.74
24.48
18.05
10.15
0.93
-9.03
-18.87
-27.89
-35.84
-42.95
-49.74
-56.67
-63.92
-71.28
-78.24
-84.14
-88.24
-89.71
-87.7
-81.52
-70.95
-56.49
-39.35
-21.2
-3.71
11.84
24.77
34.9
42.31
47.18
49.68
50.04
48.68
46.21
43.4
40.95
39.34
38.62
38.45
38.3
37.69
36.44
34.69
32.75
30.95
29.39
27.94
26.38
24.58
22.61
20.76
19.36
18.6
18.37
18.31
17.85
16.4
13.45
8.68
1.99
-6.44
-15.94
-25.38
-33.22
-37.8
-37.82
-32.51
-21.79
-6.03
14.07
37.44
62.49
87.0
108.29
123.81
131.91
132.43
126.79
117.43
107.08
97.97
91.31
87.14
84.42
81.28
75.54
65.4
50.09
30.36
8.4
-12.75
-30.13
-41.64
-46.53
-45.51
-40.43
-33.81
-28.25
-25.8
-27.39
-32.61
-39.92
-47.21
-52.58
-55.05
-54.85
-53.25
-52.07
-53.01
-57.01
-63.96
-72.5
-80.34
-84.73
-83.27
-74.8
-60.07
-41.88
-24.44
-12.26
-8.8
-15.49
-31.58
-54.55
-81.05
-107.85
-132.28
-152.38
-166.72
-174.16
-173.91
-165.64
-149.49
-125.95
-95.59
-59.1
-17.57
26.92
70.86
109.65
138.49
153.98
155.32
144.79
126.92
106.81
88.34
73.12
60.56
48.93
36.57
22.74
7.62
-8.05
-23.45
-37.58
-49.01
-55.71
-55.39
-46.39
-28.72
-4.58
22.1
46.77
65.82
77.46
81.99
81.06
76.69
70.54
63.6
56.41
49.32
42.79
37.26
33.02
30.0
27.79
25.81
23.54
20.63
16.93
12.39
6.84
0.03
-8.32
-18.36
-29.89
-42.43
-55.25
-67.69
-79.39
-90.43
-101.32
-112.58
-124.5
-136.75
-148.44
-158.25
-164.77
-166.67
-162.89
-152.67
-135.67
-112.29
-83.72
-52.03
-19.73
10.7
37.37
59.26
76.05
87.89
94.94
97.34
95.24
89.05
79.56
67.85
55.18
42.69
31.31
21.65
14.1
8.8
5.73
4.69
5.33
7.22
9.89
12.96
16.11
19.11
21.7
23.51
24.06
22.77
19.18
13.14
5.06
-4.06
-12.79
-19.64
-23.48
-23.94
-21.37
-16.75
-11.23
-5.84
-1.25
2.26
4.67
6.12
6.78
6.86
6.58
6.18
5.92
6.11
7.02
8.83
11.49
14.67
17.7
19.72
19.92
17.77
13.2
6.57
-1.36
-9.66
-17.42
-23.91
-28.68
-31.62
-32.92
-33.0
-32.42
-31.83
-31.8
-32.77
-34.8
-37.57
-40.25
-41.61
-40.36
-35.53
-26.86
-14.93
-1.07
13.09
26.06
36.75
44.72
49.94
52.6
52.9
50.97
46.96
41.23
34.35
27.15
20.42
14.79
10.51
7.58
5.83
5.09
5.27
6.2
7.58
8.89
9.41
8.5
5.81
1.54
-3.72
-9.2
-14.34
-19.11
-23.96
-29.66
-36.89
-45.94
-56.45
-67.39
-77.21
-84.16
-86.7
-83.94
-75.93
-63.58
-48.4
-32.0
-15.65
0.02
14.8
28.71
41.56
52.82
61.76
67.76
70.63
70.76
68.97
66.17
63.08
60.09
57.33
54.81
52.58
50.67
49.01
47.24
44.77
40.96
35.33
27.85
18.83
8.93
-1.2
-10.98
-20.01
-28.13
-35.38
-42.01
-48.39
-54.9
-61.73
-68.69
-75.03
-79.51
-80.66
-77.26
-68.69
-55.36
-38.57
-20.3
-2.74
12.27
23.53
30.64
33.89
34.01
31.84
28.21
23.84
19.37
15.41
12.47
10.8
10.48
11.31
13.16
15.97
19.82
24.69
30.15
35.32
39.02
40.26
38.6
34.42
28.66
22.45
16.6
11.42
6.68
1.89
-3.48
-9.78
-17.14
-25.51
-34.64
-44.08
-52.97
-60.19
-64.41
-64.55
-60.15
-51.53
-39.78
-26.38
-12.74
0.08
11.48
21.09
28.62
33.84
36.6
37.02
35.53
32.79
29.54
26.39
23.71
21.58
19.88
18.32
16.55
14.25
11.13
7.0
1.84
-4.26
-11.06
-18.24
-25.35
-31.9
-37.36
-41.22
-43.22
-43.44
-42.43
-41.08
-40.33
-40.69
-41.92
-42.89
-41.95
-37.53
-28.89
-16.37
-1.43
13.96
27.99
39.45
47.9
53.38
56.08
56.14
53.68
48.94
42.42
34.84
26.94
19.26
12.09
5.52
-0.35
-5.36
-9.33
-12.21
-14.18
-15.63
-17.1
-19.04
-21.73
-25.27
-29.54
-34.34
-39.44
-44.71
-50.19
-56.07
-62.6
-69.82
-77.31
-84.06
-88.55
-89.24
-85.17
-76.43
-64.15
-50.17
-36.24
-23.45
-11.89
-0.9
10.43
22.64
35.62
48.66
60.78
71.07
78.91
84.02
86.46
86.55
84.86
82.12
79.03
76.11
73.47
70.83
67.62
63.16
56.98
48.87
39.0
27.8
15.93
4.07
-7.25
-17.83
-27.92
-38.25
-49.66
-62.72
-77.19
-91.74
-104.13
-111.76
-112.49
-105.42
-91.11
-71.46
-48.98
-26.15
-4.79
13.98
29.51
41.35
49.05
52.39
51.69
48.02
42.97
38.18
34.68
32.63
31.51
30.51
29.2
27.68
26.41
25.81
25.77
25.65
24.46
21.42
16.24
9.35
1.67
-5.75
-12.02
-16.66
-19.65
-21.31
-22.26
-23.25
-25.07
-28.32
-33.1
-38.78
-43.97
-46.82
-45.62
-39.47
-28.67
-14.65
0.45
14.51
25.99
34.14
38.96
40.95
40.77
39.08
36.45
33.4
30.37
27.75
25.85
24.84
24.7
25.26
26.28
27.54
28.86
30.17
31.39
32.37
32.74
31.94
29.37
24.58
17.5
8.52
-1.59
-11.9
-21.62
-30.28
-37.78
-44.36
-50.37
-56.09
-61.44
-65.85
-68.19
-67.01
-61.02
-49.64
-33.41
-13.99
6.33
25.24
41.15
53.29
61.57
66.11
67.05
64.57
59.17
51.87
44.08
37.18
31.97
28.43
25.89
23.52
20.8
17.77
14.78
12.19
9.99
7.79
5.05
1.4
-3.15
-8.26
-13.48
-18.51
-23.18
-27.49
-31.46
-35.06
-38.36
-41.56
-44.93
-48.63
-52.42
-55.57
-56.91
-55.17
-49.47
-39.76
-26.98
-12.8
0.79
12.11
20.26
25.15
27.43
27.99
27.66
26.98
26.22
25.56
25.24
25.61
26.94
29.31
32.44
35.81
38.83
41.04
42.25
42.43
41.6
39.61
36.2
31.12
24.36
16.36
7.92
-0.05
-6.96
-12.75
-18.0
-23.67
-30.74
-39.92
-51.27
-64.11
-76.96
-87.84
-94.63
-95.77
-90.8
-80.65
-67.28
-52.89
-39.06
-26.1
-13.33
0.22
14.9
29.92
43.65
54.38
61.14
64.15
64.49
63.47
61.99
60.21
57.77
54.27
49.58
44.0
38.04
32.19
26.66
21.41
16.32
11.42
7.0
3.55
1.45
0.74
0.96
1.19
0.5
-1.7
-5.37
-9.98
-14.93
-19.85
-24.91
-30.46
-36.59
-42.67
-47.23
-48.38
-44.46
-34.8
-20.05
-2.03
16.73
33.8
47.29
56.17
60.21
59.8
55.65
48.73
40.09
30.92
22.35
15.41
10.71
8.33
7.8
8.24
8.64
8.3
7.04
5.31
3.85
3.47
4.49
6.67
9.21
11.03
11.16
8.91
3.96
-3.73
-13.93
-26.11
-39.3
-52.16
-63.14
-71.04
-75.49
-77.08
-77.03
-76.41
-75.44
-73.31
-68.52
-59.79
-46.82
-30.55
-12.83
4.39
19.69
32.53
43.12
51.95
59.38
65.42
69.8
72.29
72.98
72.35
71.21
70.38
70.31
70.89
71.44
71.0
68.72
64.24
57.75
49.88
41.42
33.02
25.03
17.4
9.89
2.19
-5.79
-13.8
-21.38
-27.99
-33.22
-37.05
-39.81
-42.08
-44.55
-47.9
-52.58
-58.76
-66.11
-73.77
-80.4
-84.4
-84.33
-79.26
-69.13
-54.73
-37.55
-19.43
-2.03
13.41
26.3
36.6
44.6
50.59
54.83
57.45
58.75
59.22
59.58
60.5
62.27
64.58
66.68
67.74
67.21
65.17
62.18
59.04
56.38
54.24
52.06
48.81
43.35
34.86
23.07
8.34
-8.53
-26.47
-44.49
-61.69
-77.39
-91.15
-102.74
-112.25
-119.9
-125.89
-130.1
-131.9
-130.25
-124.01
-112.45
-95.69
-74.75
-51.4
-27.7
-5.59
13.41
28.37
38.95
45.44
48.55
49.3
48.76
47.87
47.26
47.28
48.03
49.48
51.47
53.78
56.03
57.83
58.83
58.78
57.63
55.43
52.23
48.04
42.78
36.36
28.79
20.24
11.14
2.1
-6.27
-13.62
-19.95
-25.83
-32.29
-40.44
-51.1
-64.23
-78.77
-92.68
-103.49
-109.07
-108.24
-101.14
-88.99
-73.66
-57.02
-40.55
-25.24
-11.71
-0.42
8.22
13.98
16.99
17.74
17.04
15.73
14.34
13.02
11.58
9.72
7.22
4.03
0.3
-3.73
-7.72
-11.28
-13.94
-15.27
-14.94
-12.94
-9.6
-5.49
-1.35
2.15
4.48
5.32
4.58
2.31
-1.41
-6.6
-13.44
-22.24
-33.15
-45.75
-58.79
-70.34
-78.31
-81.22
-78.86
-72.4
-63.98
-55.96
-50.16
-47.53
-47.95
-50.24
-52.2
-50.74
-42.42
-24.45
4.16
41.75
84.12
125.67
161.14
187.23
203.15
210.12
210.27
205.59
197.41
186.77
174.73
162.55
151.35
141.57
132.64
123.34
112.41
99.36
84.82
70.19
56.92
45.71
36.17
26.85
15.94
1.97
-15.42
-35.12
-54.65
-70.8
-80.6
-82.26
-75.83
-63.12
-46.97
-30.37
-15.48
-3.3
6.19
13.59
19.5
24.25
27.85
30.22
31.4
31.65
31.37
30.92
30.44
29.8
28.72
26.94
24.36
21.09
17.38
13.49
9.6
5.77
1.85
-2.38
-7.23
-12.99
-19.78
-27.46
-35.6
-43.63
-51.0
-57.4
-62.87
-67.77
-72.6
-77.92
-84.19
-91.67
-100.23
-109.26
-117.51
-123.26
-124.62
-120.13
-109.23
-92.59
-71.93
-49.62
-28.02
-8.9
6.75
18.79
27.6
33.88
38.41
41.96
45.11
48.22
51.32
54.13
56.2
57.0
56.25
53.97
50.49
46.2
41.39
36.08
30.06
23.04
14.91
5.81
-3.91
-13.74
-23.25
-32.02
-39.71
-46.03
-50.77
-54.09
-56.46
-58.68
-61.52
-65.3
-69.65
-73.45
-75.24
-73.68
-68.05
-58.48
-45.89
-31.68
-17.34
-4.16
7.0
15.78
22.19
26.58
29.42
31.19
32.27
32.88
33.11
32.99
32.54
31.82
30.89
29.81
28.62
27.35
26.04
24.77
23.5
22.08
20.22
17.55
13.84
9.07
3.49
-2.48
-8.54
-14.57
-20.77
-27.53
-35.22
-44.0
-53.62
-63.32
-71.95
-78.11
-80.51
-78.35
-71.62
-61.15
-48.4
-34.95
-22.08
-10.49
-0.43
8.11
15.12
20.54
24.31
26.69
28.14
29.28
30.52
31.85
32.84
32.82
31.26
27.94
22.99
16.77
9.67
2.08
-5.69
-13.26
-20.21
-26.07
-30.44
-33.13
-34.24
-34.13
-33.38
-32.74
-32.94
-34.68
-38.35
-43.93
-50.68
-57.16
-61.52
-61.94
-57.38
-47.9
-34.75
-19.92
-5.43
7.23
17.42
25.23
31.1
35.47
38.61
40.73
42.13
43.31
44.8
47.0
49.89
53.03
55.71
57.24
57.3
55.97
53.64
50.82
47.82
44.76
41.52
37.89
33.67
28.69
22.85
16.12
8.6
0.6
-7.48
-15.2
-22.33
-28.97
-35.47
-42.26
-49.55
-57.13
-64.25
-69.78
-72.45
-71.16
-65.37
-55.22
-41.57
-25.77
-9.32
6.49
20.77
33.05
43.17
50.99
56.39
59.34
60.03
58.99
56.94
54.59
52.38
50.38
48.38
46.05
43.13
39.54
35.34
30.8
26.22
21.97
18.31
15.23
12.44
9.4
5.6
0.84
-4.62
-10.15
-15.1
-19.1
-22.27
-25.11
-28.27
-32.28
-37.43
-43.78
-51.27
-59.61
-68.22
-76.03
-81.51
-83.07
-79.52
-70.66
-57.46
-41.84
-25.99
-11.62
0.45
10.4
18.95
26.87
34.58
42.04
48.92
54.82
59.49
62.79
64.72
65.31
64.69
63.09
60.78
58.11
55.32
52.46
49.4
45.83
41.33
35.56
28.4
20.04
11.09
2.39
-5.18
-10.99
-14.93
-17.41
-19.21
-21.19
-23.99
-27.86
-32.74
-38.28
-43.97
-49.05
-52.59
-53.58
-51.15
-45.0
-35.53
-23.86
-11.5
0.1
9.9
17.34
22.21
24.42
23.83
20.42
14.55
7.11
-0.47
-6.58
-9.83
-9.45
-5.46
1.41
9.95
18.83
26.85
33.15
37.35
39.44
39.76
38.71
36.56
33.35
28.88
23.0
15.79
7.74
-0.4
-7.84
-14.03
-18.88
-22.74
-26.23
-30.05
-34.67
-40.26
-46.57
-52.95
-58.39
-61.66
-61.53
-57.07
-48.01
-34.92
-19.19
-2.74
12.51
25.17
34.63
41.13
45.33
47.97
49.44
49.81
48.99
47.0
44.09
40.73
37.4
34.43
31.83
29.41
26.87
23.91
20.33
16.04
11.1
5.67
0.08
-5.25
-9.86
-13.37
-15.61
-16.71
-17.05
-17.21
-17.79
-19.26
-21.77
-25.1
-28.72
-32.05
-34.73
-36.85
-38.99
-41.91
-46.17
-51.65
-57.34
-61.49
-62.22
-58.3
-49.6
-37.29
-23.33
-9.83
1.7
10.65
17.32
22.48
26.92
31.13
35.2
38.92
42.02
44.36
45.99
47.03
47.56
47.6
47.07
46.01
44.55
42.91
41.27
39.59
37.58
34.85
31.05
26.11
20.24
13.92
7.59
1.62
-3.85
-8.84
-13.45
-17.8
-22.07
-26.39
-30.91
-35.72
-40.88
-46.45
-52.44
-58.83
-65.41
-71.65
-76.61
-79.01
-77.62
-71.61
-61.05
-46.94
-31.05
-15.33
-1.36
9.98
18.53
24.56
28.46
30.51
30.86
29.71
27.47
24.82
22.46
20.95
20.42
20.64
21.17
21.68
22.15
22.85
24.04
25.77
27.67
29.11
29.46
28.38
25.95
22.54
18.56
14.19
9.33
3.8
-2.54
-9.54
-16.87
-24.14
-31.18
-38.11
-45.22
-52.68
-60.27
-67.2
-72.34
-74.53
-73.02
-67.71
-59.16
-48.36
-36.44
-24.42
-13.11
-3.06
5.4
12.14
17.13
20.43
22.23
22.8
22.55
21.97
21.59
21.81
22.78
24.35
26.08
27.48
28.11
27.76
26.47
24.45
21.97
19.24
16.26
12.95
9.14
4.78
-0.06
-5.14
-10.24
-15.19
-20.07
-25.2
-30.99
-37.8
-45.69
-54.25
-62.62
-69.59
-73.83
-74.29
-70.36
-62.07
-50.13
-35.72
-20.36
-5.55
7.49
18.02
25.83
31.15
34.46
36.22
36.77
36.25
34.66
32.04
28.56
24.54
20.35
16.31
12.52
8.97
5.53
2.19
-0.85
-3.19
-4.38
-4.13
-2.5
0.06
2.87
5.33
7.05
7.93
8.12
7.84
7.25
6.46
5.42
3.99
1.89
-1.29
-5.97
-12.39
-20.36
-29.09
-37.3
-43.5
-46.44
-45.42
-40.44
-32.15
-21.61
-10.04
1.42
11.83
20.54
27.17
31.63
34.02
34.68
34.07
32.78
31.43
30.5
30.24
30.58
31.18
31.66
31.74
31.4
30.77
30.06
29.31
28.41
27.07
24.92
21.66
17.11
11.29
4.49
-2.83
-10.1
-16.83
-22.78
-28.01
-32.87
-37.77
-43.06
-48.78
-54.67
-60.21
-64.69
-67.34
-67.35
-64.05
-57.03
-46.3
-32.43
-16.52
-0.06
15.49
28.96
39.69
47.6
52.96
56.22
57.83
58.19
57.65
56.48
54.87
52.95
50.82
48.61
46.54
44.91
43.99
43.73
43.77
43.38
41.81
38.59
33.78
27.88
21.65
15.66
10.09
4.72
-0.85
-6.9
-13.43
-20.08
-26.34
-31.79
-36.31
-40.1
-43.67
-47.67
-52.73
-59.31
-67.44
-76.64
-85.79
-93.32
-97.43
-96.58
-89.96
-77.7
-60.84
-41.15
-20.53
-0.68
17.27
32.71
45.43
55.43
62.79
67.64
70.19
70.8
69.94
68.15
65.96
63.73
61.71
59.97
58.45
56.96
55.2
52.82
49.43
44.67
38.34
30.45
21.29
11.35
1.19
-8.73
-18.2
-27.3
-36.34
-45.65
-55.44
-65.64
-75.91
-85.8
-94.8
-102.35
-107.81
-110.39
-109.21
-103.52
-93.02
-78.08
-59.83
-39.86
-19.93
-1.53
14.34
27.22
37.04
43.9
47.91
49.05
47.33
42.88
36.16
28.1
19.95
13.02
8.32
6.35
6.96
9.56
13.42
17.93
22.64
27.34
31.76
35.61
38.51
40.14
40.51
39.99
39.32
39.29
40.36
42.39
44.66
46.1
45.67
42.66
36.78
28.01
16.63
3.24
-11.01
-24.31
-34.5
-39.63
-38.61
-31.7
-20.48
-7.17
6.07
17.74
27.15
34.2
38.97
41.54
41.91
40.29
37.17
33.33
29.66
26.9
25.5
25.57
26.87
28.96
31.21
33.06
34.05
34.01
32.99
31.12
28.42
24.67
19.44
12.31
3.17
-7.57
-19.02
-30.01
-39.47
-46.73
-51.76
-55.21
-58.3
-62.58
-69.59
-80.43
-95.22
-112.74
-130.31
-144.26
-150.93
-147.84
-134.62
-113.21
-87.18
-60.48
-36.24
-16.08
-0.19
12.03
21.29
28.01
32.39
34.7
35.54
35.83
36.59
38.58
42.06
46.81
52.14
57.18
61.09
63.19
63.12
60.83
56.54
50.62
43.48
35.48
26.89
18.05
9.31
1.14
-6.05
-12.04
-16.99
-21.46
-26.25
-32.2
-39.92
-49.49
-60.46
-71.72
-81.68
-88.55
-90.66
-86.9
-76.98
-61.52
-41.85
-19.68
3.29
25.63
46.25
64.31
79.15
90.26
97.4
100.79
101.15
99.55
97.1
94.54
92.05
89.3
85.76
81.08
75.33
68.89
62.26
55.7
49.23
42.66
35.8
28.63
21.21
13.59
5.76
-2.29
-10.45
-18.41
-25.71
-32.0
-37.13
-41.34
-45.08
-48.82
-53.01
-57.95
-63.87
-70.82
-78.51
-86.08
-92.02
-94.43
-91.51
-82.3
-67.0
-47.09
-24.91
-3.05
16.34
31.87
43.03
50.04
53.47
54.02
52.33
49.09
44.98
40.9
37.8
36.62
37.95
41.81
47.63
54.26
60.41
64.98
67.3
67.25
65.11
61.36
56.34
50.18
42.77
33.94
23.71
12.38
0.6
-10.8
-21.05
-29.69
-36.75
-42.72
-48.43
-54.87
-62.81
-72.59
-83.81
-95.33
-105.32
-111.6
-112.19
-105.88
-92.66
-73.86
-51.79
-29.12
-8.15
9.76
24.22
35.56
44.29
50.76
55.14
57.61
58.63
58.91
59.26
60.13
61.36
62.24
61.82
59.46
55.05
49.09
42.39
35.68
29.36
23.44
17.67
11.76
5.55
-0.91
-7.49
-14.03
-20.46
-26.8
-33.12
-39.51
-46.02
-52.8
-60.04
-67.96
-76.58
-85.37
-93.16
-98.12
-98.28
-92.15
-79.41
-61.08
-39.37
-17.11
3.13
19.49
31.2
38.38
41.88
42.81
42.28
41.19
40.13
39.37
39.04
39.18
39.8
40.85
42.12
43.34
44.22
44.67
44.73
44.55
44.1
42.97
40.54
36.15
29.45
20.65
10.33
-0.69
-11.88
-23.06
-34.52
-46.75
-60.12
-74.48
-88.93
-101.79
-110.95
-114.32
-110.51
-99.25
-81.45
-58.97
-34.11
-9.13
14.12
34.37
50.87
63.41
72.22
77.87
81.15
82.85
83.56
83.5
82.57
80.5
76.98
71.92
65.53
58.26
50.76
43.61
37.2
31.58
26.46
21.28
15.45
8.59
0.72
-7.65
-15.85
-23.28
-29.82
-35.86
-42.24
-49.86
-59.26
-70.34
-82.22
-93.37
-101.91
-105.96
-104.11
-95.76
-81.32
-62.17
-40.41
-18.35
1.92
18.96
32.1
41.41
47.46
51.07
53.07
54.2
54.98
55.71
56.51
57.28
57.81
57.9
57.48
56.65
55.7
54.92
54.43
54.08
53.44
51.92
49.01
44.44
38.38
31.34
24.15
17.72
12.86
9.98
9.01
9.23
9.35
7.65
2.42
-7.53
-22.41
-41.1
-61.3
-79.99
-94.26
-102.21
-103.35
-98.69
-90.07
-79.43
-68.18
-57.01
-46.2
-36.01
-26.88
-19.28
-13.29
-8.29
-3.02
3.91
13.42
25.53
39.38
53.57
66.65
77.34
84.68
87.95
86.74
81.08
71.48
58.95
44.63
29.47
14.0
-1.51
-16.74
-31.08
-43.72
-54.06
-62.13
-68.78
-75.16
-81.93
-88.45
-92.63
-91.61
-82.98
-66.09
-42.54
-15.8
9.94
31.11
45.7
53.41
55.19
52.39
46.18
37.32
26.27
13.62
0.23
-12.78
-24.39
-33.87
-40.97
-45.84
-48.75
-49.96
-49.56
-47.51
-43.66
-37.8
-29.69
-19.11
-6.06
9.18
26.01
43.5
60.57
75.94
88.24
96.12
98.5
94.88
85.58
71.72
54.87
36.57
17.99
-0.12
-17.09
-32.11
-44.0
-51.47
-53.59
-50.3
-42.49
-31.86
-20.3
-9.25
0.59
9.19
16.8
23.41
28.66
31.92
32.74
31.18
27.87
23.73
19.55
15.68
12.0
8.06
3.38
-2.39
-9.37
-17.41
-26.21
-35.2
-43.62
-50.41
-54.23
-53.7
-47.67
-35.78
-18.82
1.14
21.16
38.21
50.03
55.74
55.88
51.99
45.95
39.46
33.86
30.17
29.21
31.47
37.0
45.18
54.75
64.08
71.64
76.39
78.04
76.92
73.69
68.97
63.1
56.13
48.09
39.29
30.38
22.22
15.55
10.67
7.38
5.21
3.66
2.5
1.69
1.21
0.74
-0.29
-2.61
-6.79
-13.13
-21.56
-31.73
-43.15
-55.24
-67.28
-78.42
-87.76
-94.47
-97.94
-98.01
-94.96
-89.4
-82.07
-73.43
-63.52
-51.99
-38.45
-22.93
-6.16
10.39
24.96
36.06
42.87
45.48
44.65
41.47
37.13
32.52
28.1
23.72
18.69
12.02
2.86
-8.95
-22.69
-36.74
-49.08
-57.85
-61.87
-60.93
-55.76
-47.74
-38.51
-29.57
-21.95
-16.1
-12.03
-9.51
-8.27
-8.28
-9.65
-12.62
-17.36
-23.89
-32.02
-41.27
-50.77
-59.19
-64.9
-66.38
-62.74
-54.11
-41.73
-27.5
-13.43
-1.0
9.11
16.92
22.79
27.21
30.66
33.53
36.21
38.93
41.65
43.94
45.06
44.3
41.21
35.87
28.82
20.84
12.65
4.66
-3.06
-10.59
-17.92
-24.78
-30.54
-34.48
-36.09
-35.34
-32.75
-29.23
-25.84
-23.48
-22.64
-23.42
-25.44
-27.95
-29.85
-29.91
-27.15
-21.18
-12.51
-2.44
7.26
15.0
19.79
21.51
20.69
18.0
13.8
7.99
0.15
-9.96
-21.9
-34.52
-46.18
-55.45
-61.57
-64.72
-65.71
-65.45
-64.5
-62.89
-60.35
-56.7
-52.07
-46.81
-41.08
-34.51
-26.18
-15.04
-0.64
16.45
34.64
51.96
66.87
78.66
87.18
92.18
92.82
87.91
76.8
60.25
40.72
21.67
6.28
-3.53
-7.42
-6.21
-1.07
6.87
16.59
26.91
36.6
44.52
50.18
53.78
55.92
57.02
56.83
54.5
49.06
39.91
27.22
11.91
-4.61
-20.82
-35.4
-47.56
-57.12
-64.35
-69.72
-73.55
-75.72
-75.63
-72.4
-65.29
-54.09
-39.26
-22.07
-4.31
11.97
24.83
32.88
35.48
32.95
26.24
16.65
5.36
-6.72
-18.88
-30.32
-39.9
-46.15
-47.68
-43.77
-34.82
-22.53
-9.5
1.55
8.61
10.98
9.33
5.15
0.06
-4.86
-9.33
-13.62
-18.07
-22.74
-27.25
-31.03
-33.56
-34.55
-33.75
-30.78
-25.12
-16.33
-4.56
9.05
22.53
33.63
40.74
43.7
43.92
43.68
44.91
48.19
52.42
55.58
56.01
53.35
48.76
44.1
40.84
39.27
38.58
37.7
36.14
34.43
33.73
34.94
37.99
41.71
44.35
44.46
41.48
35.92
28.94
21.64
14.56
7.53
-0.05
-8.58
-17.72
-26.28
-32.47
-34.64
-31.7
-23.37
-9.92
8.03
29.74
54.11
79.41
103.08
122.03
133.25
134.73
126.22
109.47
87.79
65.24
45.49
31.06
22.79
19.82
19.93
20.25
18.04
11.5
0.19
-14.97
-32.06
-48.85
-63.51
-75.08
-83.54
-89.61
-94.4
-98.97
-104.15
-110.36
-117.7
-125.98
-134.94
-144.25
-153.62
-162.56
-170.25
-175.61
-177.57
-175.54
-169.78
-161.26
-151.27
-140.8
-130.18
-119.17
-107.42
-95.06
-82.95
-72.37
-64.45
-59.52
-56.89
-55.08
-52.38
-47.54
-40.12
-30.59
-19.98
-9.54
-0.29
7.27
13.07
17.53
21.36
25.42
30.65
37.75
46.91
57.52
68.15
76.89
81.96
82.38
78.19
70.34
60.21
48.98
37.32
25.39
12.98
-0.18
-14.31
-29.39
-45.01
-60.15
-73.12
-81.83
-84.39
-79.82
-68.55
-52.39
-33.85
-15.36
1.52
16.32
29.39
41.23
51.97
61.2
68.2
72.4
73.87
73.31
71.81
70.4
69.63
69.47
69.52
69.3
68.63
67.64
66.75
66.33
66.43
66.64
66.22
64.34
60.45
54.51
47.0
38.73
30.56
23.11
16.6
10.89
5.56
-0.04
-6.78
-15.7
-27.78
-43.58
-62.73
-83.59
-103.29
-118.34
-125.55
-123.01
-110.74
-90.5
-65.28
-38.28
-12.19
11.19
30.93
46.68
58.44
66.33
70.64
71.85
70.68
68.04
64.9
62.13
60.29
59.48
59.38
59.43
59.13
58.25
56.89
55.32
53.7
51.86
49.31
45.46
39.92
32.76
24.53
16.08
8.3
1.84
-3.12
-6.79
-9.73
-12.59
-15.98
-20.47
-26.45
-34.07
-43.1
-52.77
-61.76
-68.41
-71.2
-69.11
-62.06
-50.84
-36.87
-21.77
-7.0
6.36
17.68
26.73
33.67
38.88
42.88
46.17
49.08
51.72
54.03
55.87
57.16
57.9
58.15
58.03
57.64
57.11
56.47
55.63
54.31
52.07
48.49
43.23
36.19
27.43
17.06
5.26
-7.75
-21.56
-35.53
-48.8
-60.52
-69.96
-76.75
-80.85
-82.55
-82.34
-80.78
-78.21
-74.53
-69.17
-61.18
-49.75
-34.73
-16.9
2.22
20.81
37.45
51.46
62.9
72.21
79.78
85.68
89.7
91.54
91.0
88.1
83.06
76.19
67.86
58.54
48.82
39.52
31.57
25.89
23.17
23.64
26.97
32.27
38.29
43.57
46.83
47.16
44.16
38.05
29.48
19.36
8.61
-2.09
-12.4
-22.28
-31.81
-40.98
-49.62
-57.48
-64.43
-70.44
-75.46
-79.01
-79.93
-76.6
-67.55
-52.11
-30.98
-6.06
20.07
44.97
66.87
84.8
98.38
107.53
112.33
113.05
110.38
105.38
99.24
92.9
86.52
79.44
70.38
58.12
42.35
24.28
6.51
-7.71
-15.74
-16.78
-12.19
-5.03
1.18
3.8
1.81
-4.09
-12.23
-20.83
-28.71
-35.56
-41.71
-47.75
-54.06
-60.78
-67.7
-74.52
-80.8
-86.01
-89.4
-90.04
-87.05
-79.9
-68.78
-54.7
-39.3
-24.43
-11.63
-1.77
5.01
9.14
11.26
12.02
11.94
11.49
11.19
11.56
13.03
15.76
19.57
23.99
28.46
32.42
35.41
37.11
37.21
35.53
32.04
26.96
20.77
14.06
7.4
1.13
-4.7
-10.34
-16.34
-23.32
-31.78
-41.81
-52.77
-63.29
-71.47
-75.4
-73.8
-66.46
-54.31
-39.16
-23.13
-8.05
4.81
14.85
22.0
26.47
28.66
28.96
27.8
25.57
22.66
19.47
16.37
13.58
11.18
9.01
6.8
4.27
1.31
-1.99
-5.34
-8.37
-10.85
-12.64
-13.74
-14.29
-14.47
-14.58
-15.07
-16.47
-19.28
-23.85
-30.12
-37.55
-45.1
-51.32
-54.72
-54.18
-49.31
-40.58
-29.24
-16.79
-4.62
6.31
15.49
22.81
28.23
31.85
33.83
34.45
34.1
33.13
31.72
29.9
27.66
25.06
22.33
19.72
17.37
15.19
12.86
10.04
6.54
2.39
-2.25
-7.23
-12.49
-18.06
-23.93
-30.0
-36.15
-42.41
-49.06
-56.52
-65.03
-74.21
-82.87
-89.17
-91.14
-87.37
-77.53
-62.49
-44.02
-24.25
-5.1
12.11
26.71
38.6
47.9
54.83
59.54
62.2
63.07
62.62
61.45
60.24
59.47
59.27
59.41
59.4
58.8
57.41
55.41
53.07
50.58
47.8
44.34
39.83
34.24
27.92
21.53
15.67
10.55
5.95
1.31
-3.96
-10.26
-17.69
-26.06
-34.92
-43.55
-50.97
-56.05
-57.68
-55.17
-48.45
-38.28
-26.08
-13.51
-2.02
7.61
15.37
21.8
27.58
33.15
38.48
43.3
47.28
50.33
52.6
54.32
55.62
56.41
56.52
55.87
54.61
53.1
51.57
49.93
47.7
44.11
38.48
30.49
20.39
8.92
-2.84
-13.81
-23.19
-30.64
-36.31
-40.83
-45.01
-49.58
-54.77
-60.19
-64.84
-67.44
-66.78
-62.21
-53.9
-42.74
-30.11
-17.43
-5.86
3.96
11.85
17.84
22.02
24.33
24.69
23.12
19.92
15.72
11.35
7.64
5.25
4.55
5.68
8.54
12.86
18.15
23.77
29.05
33.32
36.09
37.04
36.0
32.92
27.87
21.08
12.96
4.11
-4.89
-13.61
-21.93
-30.1
-38.56
-47.65
-57.22
-66.48
-74.06
-78.41
-78.29
-73.17
-63.43
-50.26
-35.28
-20.16
-6.25
5.66
15.31
22.85
28.62
32.88
35.67
36.91
36.51
34.57
31.5
27.89
24.25
20.85
17.6
14.21
10.41
6.11
1.48
-3.13
-7.5
-11.52
-15.28
-18.98
-22.62
-25.96
-28.56
-29.89
-29.65
-28.07
-25.91
-24.28
-24.2
-26.1
-29.51
-33.07
-35.06
-33.95
-29.12
-21.0
-10.94
-0.66
8.3
14.97
19.0
20.5
19.83
17.41
13.83
9.77
6.1
3.69
3.16
4.7
7.97
12.17
16.36
19.79
22.11
23.41
24.09
24.5
24.68
24.3
22.87
19.92
15.38
9.59
3.29
-2.77
-8.01
-12.32
-16.02
-19.66
-23.72
-28.36
-33.25
-37.68
-40.79
-41.87
-40.57
-36.97
-31.39
-24.31
-16.19
-7.5
1.27
9.61
17.03
23.2
28.02
31.59
34.09
35.7
36.49
36.57
36.12
35.5
35.12
35.28
35.9
36.48
36.2
34.28
30.31
24.4
17.12
9.23
1.36
-6.08
-12.92
-19.15
-24.66
-29.34
-33.05
-35.69
-37.26
-37.86
-37.61
-36.68
-35.31
-33.83
-32.63
-32.19
-32.95
-35.25
-39.14
-44.22
-49.57
-53.81
-55.46
-53.35
-47.13
-37.41
-25.6
-13.49
-2.69
5.7
11.3
14.42
15.91
16.99
18.86
22.42
27.91
34.88
42.41
49.47
55.35
59.77
62.78
64.52
65.04
64.36
62.57
60.0
57.01
53.81
50.28
46.05
40.72
34.11
26.37
17.92
9.23
0.72
-7.3
-14.52
-20.65
-25.51
-29.11
-31.83
-34.26
-37.08
-40.75
-45.3
-50.25
-54.68
-57.46
-57.6
-54.54
-48.39
-39.87
-30.03
-20.02
-10.67
-2.52
4.21
9.52
13.5
16.31
18.15
19.24
19.64
19.27
17.94
15.5
12.14
8.37
4.95
2.58
1.63
2.07
3.53
5.55
7.78
9.94
11.84
13.15
13.52
12.62
10.4
7.04
2.94
-1.54
-6.19
-11.09
-16.47
-22.6
-29.56
-37.24
-45.18
-52.69
-58.89
-62.91
-64.06
-61.96
-56.74
-48.91
-39.29
-28.86
-18.48
-8.89
-0.59
6.22
11.6
15.86
19.36
22.44
25.21
27.53
29.11
29.61
28.77
26.54
23.12
18.97
14.73
11.1
8.61
7.49
7.54
8.18
8.76
8.73
7.94
6.6
5.09
3.73
2.57
1.34
-0.43
-3.31
-7.7
-13.72
-20.99
-28.69
-35.59
-40.37
-41.95
-39.83
-34.23
-26.04
-16.58
-7.18
1.07
7.51
12.01
14.81
16.33
17.05
17.29
17.2
16.82
16.2
15.48
14.84
14.45
14.28
14.14
13.78
13.04
12.02
10.98
10.12
9.36
8.23
6.15
2.68
-2.13
-7.76
-13.47
-18.67
-23.23
-27.51
-32.07
-37.38
-43.56
-50.24
-56.71
-61.95
-64.93
-64.74
-60.77
-52.93
-41.79
-28.46
-14.42
-1.11
10.37
19.47
26.2
30.94
34.24
36.56
38.22
39.35
39.99
40.14
39.83
39.05
37.84
36.2
34.1
31.56
28.62
25.39
22.03
18.71
15.51
12.44
9.35
6.09
2.43
-1.75
-6.42
-11.36
-16.23
-20.69
-24.57
-28.06
-31.64
-35.93
-41.38
-48.03
-55.27
-62.01
-66.96
-69.05
-67.74
-63.14
-55.94
-47.09
-37.45
-27.64
-17.92
-8.39
0.9
9.74
17.8
24.84
30.79
35.87
40.35
44.41
47.91
50.46
51.65
51.31
49.67
47.28
44.82
42.75
41.11
39.54
37.49
34.43
30.14
24.63
18.19
11.14
3.83
-3.49
-10.69
-17.78
-24.89
-32.22
-39.96
-48.11
-56.33
-63.9
-69.78
-72.86
-72.31
-67.81
-59.72
-48.91
-36.58
-23.94
-11.97
-1.38
7.41
14.19
18.91
21.7
22.85
22.78
21.91
20.6
19.05
17.42
15.94
14.95
14.91
16.17
18.84
22.67
27.14
31.57
35.31
37.87
38.92
38.31
36.09
32.5
27.91
22.75
17.37
11.91
6.22
-0.04
-7.19
-15.22
-23.67
-31.6
-37.82
-41.21
-41.08
-37.37
-30.65
-22.06
-12.88
-4.24
3.14
9.05
13.63
17.2
19.95
21.93
23.19
23.85
24.29
24.99
26.36
28.49
31.19
34.13
37.08
39.94
42.7
45.17
46.83
46.9
44.67
39.84
32.68
24.04
15.02
6.62
-0.59
-6.65
-12.17
-18.07
-25.19
-33.99
-44.21
-54.98
-64.96
-72.77
-77.29
-77.9
-74.4
-67.04
-56.36
-43.17
-28.45
-13.25
1.49
14.99
26.72
36.22
43.1
47.04
47.95
46.16
42.38
37.57
32.62
28.09
24.13
20.66
17.57
14.9
12.79
11.43
10.85
10.88
11.17
11.26
10.72
9.25
6.77
3.35
-0.85
-5.64
-10.9
-16.58
-22.74
-29.49
-36.85
-44.63
-52.33
-59.07
-63.8
-65.48
-63.52
-57.98
-49.57
-39.46
-28.84
-18.61
-9.2
-0.62
7.27
14.56
21.18
26.9
31.54
35.1
37.79
40.01
42.07
44.01
45.6
46.33
45.74
43.66
40.25
35.99
31.44
26.9
22.32
17.37
11.65
4.94
-2.73
-11.06
-19.72
-28.47
-37.14
-45.65
-53.77
-61.01
-66.62
-69.68
-69.4
-65.38
-57.82
-47.51
-35.64
-23.49
-12.13
-2.12
6.33
13.26
18.75
22.76
25.22
26.15
25.78
24.52
22.79
20.91
19.03
17.18
15.42
13.92
12.93
12.7
13.29
14.55
16.09
17.47
18.31
18.4
17.71
16.28
14.15
11.28
7.52
2.69
-3.27
-10.18
-17.6
-24.71
-30.52
-34.05
-34.55
-31.7
-25.68
-17.19
-7.31
2.77
11.96
19.46
24.89
28.27
29.87
30.08
29.3
27.84
25.95
23.89
21.85
19.99
18.35
16.87
15.47
14.08
12.71
11.41
10.18
8.86
7.2
4.87
1.71
-2.3
-6.96
-11.95
-17.08
-22.26
-27.6
-33.24
-39.2
-45.21
-50.6
-54.4
-55.51
-53.0
-46.41
-35.94
-22.52
-7.63
7.07
20.1
30.55
38.18
43.27
46.41
48.15
48.88
48.76
47.77
45.83
42.95
39.24
34.95
30.47
26.16
22.24
18.76
15.51
12.13
8.38
4.19
-0.28
-4.75
-8.97
-12.81
-16.26
-19.42
-22.49
-25.74
-29.54
-34.19
-39.71
-45.69
-51.19
-54.97
-55.82
-53.0
-46.5
-37.06
-25.96
-14.6
-4.25
4.27
10.69
15.18
18.25
20.48
22.37
24.21
26.11
28.05
29.99
31.92
33.88
35.78
37.51
38.83
39.54
39.56
38.95
37.81
36.22
34.06
31.17
27.48
23.06
18.21
13.33
8.69
4.28
-0.23
-5.32
-11.49
-18.89
-27.29
-35.86
-43.45
-48.76
-50.73
-48.78
-42.99
-34.09
-23.22
-11.74
-0.87
8.44
15.62
20.47
23.1
23.84
23.15
21.53
19.49
17.46
15.8
14.7
14.16
14.02
13.99
13.82
13.32
12.41
11.05
9.19
6.78
3.81
0.44
-3.03
-6.2
-8.76
-10.61
-11.93
-13.15
-14.73
-17.09
-20.41
-24.54
-28.93
-32.72
-34.85
-34.32
-30.54
-23.51
-13.94
-2.99
8.04
18.13
26.76
33.86
39.57
44.01
47.1
48.69
48.76
47.46
45.29
42.82
40.61
39.01
38.11
37.84
37.97
38.19
38.14
37.42
35.68
32.74
28.69
23.88
18.79
13.9
9.41
5.24
1.08
-3.46
-8.66
-14.64
-21.33
-28.53
-36.01
-43.33
-49.91
-54.95
-57.59
-57.19
-53.61
-47.33
-39.39
-31.06
-23.41
-17.15
-12.47
-9.25
-7.25
-6.3
-6.28
-7.09
-8.64
-10.7
-13.0
-15.2
-16.89
-17.7
-17.29
-15.53
-12.62
-9.04
-5.46
-2.5
-0.51
0.54
0.93
1.05
1.21
1.48
1.71
1.55
0.59
-1.55
-4.95
-9.36
-14.07
-18.05
-20.29
-20.11
-17.42
-12.78
-7.12
-1.32
3.97
8.45
12.07
14.66
16.06
16.16
15.21
13.57
11.2
7.12
-0.5
-13.12
-30.4
-49.09
-63.68
-68.52
-60.59
-41.18
-15.45
9.8
28.84
38.57
38.2
27.63
6.34
-26.31
-69.28
-118.26
-165.85
-204.1
-227.97
-237.42
-236.92
-232.18
-226.24
-217.54
-200.47
-168.63
-118.26
-50.42
29.15
111.64
187.76
249.86
293.14
316.2
320.64
310.21
289.27
261.47
229.11
193.41
155.47
117.14
80.96
49.31
23.38
2.7
-14.26
-29.14
-42.76
-55.06
-65.68
-74.59
-82.37
-89.59
-95.93
-99.47
-96.79
-84.0
-58.56
-20.9
24.85
71.58
111.52
139.02
152.74
155.9
154.47
154.08
157.12
161.6
162.33
153.45
131.29
95.89
51.07
3.0
-41.56
-76.91
-99.61
-109.03
-107.75
-101.18
-96.07
-98.3
-110.16
-128.45
-144.47
-146.77
-125.75
-78.25
-9.65
67.61
138.89
193.1
226.58
243.03
250.09
254.45
258.84
262.11
261.89
257.59
251.46
246.84
245.21
243.93
236.65
216.11
178.01
123.33
57.8
-10.72
-75.65
-133.53
-183.77
-226.8
-262.21
-288.3
-303.1
-306.08
-299.11
-286.08
-271.28
-257.74
-246.45
-236.8
-227.72
-218.68
-209.82
-201.36
-192.89
-183.25
-170.8
-154.31
-133.47
-109.21
-83.38
-58.11
-35.2
-15.77
-0.12
11.99
21.05
27.33
30.61
30.21
25.36
15.81
2.28
-13.35
-28.53
-40.89
-49.04
-53.13
-54.52
-55.05
-56.18
-58.38
-61.11
-63.29
-63.93
-62.56
-59.4
-55.16
-50.63
-46.5
-43.26
-41.25
-40.65
-41.09
-41.23
-38.66
-30.41
-14.33
9.51
38.1
66.05
87.47
98.32
98.08
89.62
77.73
66.76
58.9
53.72
49.1
42.84
33.77
22.16
9.34
-2.86
-12.4
-17.36
-16.12
-8.26
4.59
18.2
26.5
23.95
8.27
-17.62
-45.95
-67.02
-73.12
-61.65
-35.89
-3.13
28.49
52.53
65.28
65.16
51.94
26.67
-7.56
-44.93
-77.16
-95.35
-92.89
-68.14
-25.6
25.04
71.49
102.55
111.58
98.16
67.98
30.28
-5.58
-33.3
-51.11
-60.95
-66.51
-71.09
-76.66
-84.03
-93.48
-104.65
-116.04
-124.29
-124.44
-111.38
-81.92
-36.57
20.0
80.02
134.95
177.56
203.6
212.3
205.9
188.48
164.58
138.18
112.06
87.98
67.22
51.09
41.01
37.82
40.92
47.67
53.68
53.92
44.47
24.05
-5.25
-38.33
-68.51
-89.26
-96.07
-87.57
-65.8
-35.58
-3.07
25.9
47.3
59.41
62.65
58.85
50.35
39.51
28.57
19.76
15.17
16.45
24.14
37.4
53.82
69.62
80.12
80.7
68.18
42.2
6.39
-31.8
-62.85
-78.22
-73.34
-49.53
-13.49
25.09
56.68
74.55
75.97
61.89
35.84
2.71
-32.05
-63.02
-85.48
-96.11
-93.62
-78.95
-55.11
-26.59
1.5
24.22
37.55
39.04
28.65
9.2
-13.79
-33.12
-41.85
-35.67
-14.42
17.66
53.05
83.26
101.27
103.08
88.29
59.8
22.5
-17.77
-54.85
-82.96
-97.12
-94.25
-74.54
-42.2
-4.96
27.64
46.99
48.1
31.02
0.91
-33.54
-62.37
-76.82
-71.38
-44.98
-1.24
52.17
105.2
147.79
172.02
173.84
153.58
115.22
65.34
12.05
-36.18
-72.03
-90.88
-92.48
-81.32
-65.1
-51.85
-46.52
-49.09
-54.97
-57.66
-52.0
-36.48
-13.48
12.36
36.1
53.93
63.48
63.71
54.98
39.48
21.45
6.45
-0.5
3.27
16.89
36.27
55.82
70.29
75.99
70.95
54.72
28.39
-5.08
-40.29
-69.98
-86.89
-86.43
-68.76
-39.28
-6.75
19.78
34.06
34.38
23.34
6.15
-11.63
-25.84
-34.52
-37.54
-35.77
-30.25
-21.83
-11.58
-1.5
5.04
4.13
-6.73
-26.58
-50.01
-68.6
-74.26
-62.99
-37.07
-4.1
26.32
46.65
54.12
50.64
40.7
28.57
16.59
5.16
-5.91
-16.04
-23.33
-25.04
-18.95
-4.66
15.68
37.58
55.4
64.04
60.62
45.62
22.95
-0.98
-19.23
-26.4
-20.33
-2.61
22.08
47.58
68.11
79.76
81.07
72.84
57.32
37.54
16.67
-2.06
-15.48
-20.84
-16.57
-3.07
16.78
37.51
52.32
55.1
42.7
16.45
-17.8
-51.5
-76.11
-85.86
-79.3
-59.11
-30.76
-0.46
26.35
45.83
55.81
55.6
45.98
29.1
8.39
-11.9
-27.57
-35.52
-34.39
-24.79
-9.2
8.61
24.14
32.9
31.22
17.39
-7.28
-38.07
-67.82
-88.67
-94.59
-83.47
-57.63
-23.12
12.17
40.5
55.96
55.62
40.07
13.24
-18.51
-48.14
-70.0
-81.36
-82.45
-75.41
-62.97
-47.61
-31.87
-19.19
-13.97
-20.05
-38.3
-64.69
-90.56
-105.54
-102.0
-78.65
-41.22
0.07
34.83
56.48
63.93
60.45
51.15
40.42
30.61
22.36
15.72
11.22
10.3
14.62
24.97
40.21
56.99
70.49
75.94
70.47
54.29
31.0
6.73
-11.85
-19.67
-14.86
0.88
23.17
46.59
66.23
78.68
82.26
76.56
62.24
41.01
15.89
-8.62
-27.09
-34.75
-29.09
-11.09
14.72
41.35
61.19
68.11
58.99
34.59
-0.67
-39.65
-74.14
-96.81
-103.07
-92.23
-67.51
-35.14
-2.71
22.73
36.2
35.8
22.89
1.65
-22.07
-42.09
-53.31
-52.72
-39.97
-17.59
9.51
34.95
52.36
56.97
46.93
24.03
-6.49
-37.19
-60.4
-70.47
-65.38
-47.27
-21.59
4.81
25.86
37.97
40.41
34.74
23.64
9.91
-3.89
-15.26
-21.69
-21.09
-12.75
1.56
17.55
29.45
31.89
22.04
0.51
-29.28
-62.54
-94.64
-122.0
-141.98
-152.39
-151.45
-138.39
-114.44
-83.2
-50.05
-20.41
2.17
17.07
26.29
33.18
40.76
50.62
62.69
75.51
86.88
94.34
95.61
89.1
74.52
53.47
29.38
6.74
-10.15
-18.58
-18.16
-10.66
0.9
13.41
24.54
32.95
37.97
39.19
36.46
30.12
21.38
12.55
6.5
5.87
11.96
24.1
39.54
54.03
63.0
62.84
51.9
30.82
2.43
-28.74
-57.34
-78.38
-88.4
-86.26
-73.45
-53.35
-30.12
-7.46
11.93
26.29
34.24
34.61
26.88
12.04
-6.86
-24.99
-37.07
-39.12
-29.98
-11.75
10.71
30.93
42.34
39.92
21.58
-10.96
-52.19
-93.93
-127.33
-145.14
-143.64
-123.4
-88.98
-47.66
-7.75
23.36
40.78
43.13
32.55
13.61
-8.25
-28.06
-42.17
-48.08
-44.14
-30.0
-7.37
19.42
43.67
58.2
58.04
42.78
17.29
-10.0
-30.39
-38.26
-32.9
-17.99
0.68
17.96
31.05
39.54
44.06
45.0
41.72
33.19
19.32
2.17
-14.06
-24.16
-24.03
-12.73
6.86
28.94
46.61
54.31
49.72
34.1
11.77
-11.45
-30.04
-40.21
-40.67
-32.58
-18.79
-2.87
11.92
23.15
29.4
30.04
25.17
15.55
2.93
-9.9
-19.51
-22.56
-16.9
-2.53
18.29
41.46
61.97
75.14
77.54
67.73
46.76
18.33
-11.84
-37.31
-52.78
-55.85
-47.72
-32.48
-15.28
-0.28
10.51
17.07
20.2
20.3
16.86
9.13
-2.74
-16.83
-29.52
-36.75
-35.52
-25.02
-6.85
15.64
38.19
56.61
67.31
67.79
57.23
36.94
10.57
-16.53
-38.61
-51.19
-52.41
-43.51
-28.12
-10.84
4.26
14.67
19.68
19.81
16.17
9.94
2.19
-5.97
-13.14
-17.52
-17.28
-10.99
1.83
20.26
41.9
63.18
79.93
88.3
85.59
71.16
46.63
15.86
-15.9
-43.15
-61.47
-68.64
-64.95
-52.98
-36.62
-19.84
-5.77
3.82
8.28
7.53
1.64
-9.16
-24.11
-41.49
-58.4
-71.08
-75.91
-70.57
-54.88
-31.24
-4.16
20.64
37.57
42.68
34.74
15.78
-9.2
-33.48
-50.7
-56.69
-50.8
-35.66
-15.8
4.09
20.73
32.71
39.81
42.01
38.75
29.25
13.4
-7.45
-30.28
-50.76
-64.32
-67.42
-58.61
-39.1
-13.01
13.07
31.77
37.16
27.0
4.02
-24.66
-49.81
-63.28
-60.79
-43.08
-15.11
16.05
43.63
62.77
71.04
68.05
54.7
32.77
5.11
-24.1
-49.75
-66.75
-71.55
-63.25
-43.86
-17.61
10.37
35.2
52.88
60.71
57.71
45.26
27.3
9.74
-1.47
-2.67
5.85
19.98
33.88
42.79
45.08
42.31
37.63
33.67
31.06
28.73
25.08
19.52
13.18
8.45
7.73
12.42
22.38
36.2
51.66
66.16
76.86
81.02
76.64
63.22
42.07
16.15
-10.71
-34.75
-52.87
-62.86
-63.34
-54.01
-36.08
-12.72
11.09
29.56
37.8
33.54
17.82
-5.61
-31.7
-55.5
-72.95
-81.18
-78.45
-64.46
-40.86
-11.56
17.72
40.46
51.24
47.59
30.85
6.0
-19.96
-39.99
-49.08
-45.31
-29.91
-6.54
19.81
43.75
60.26
65.33
56.84
35.3
4.35
-29.81
-59.69
-78.63
-82.71
-71.83
-49.7
-22.73
1.65
17.14
20.52
12.88
-0.77
-13.43
-19.07
-15.49
-5.0
7.18
16.12
20.06
20.83
21.84
24.87
28.25
27.55
18.74
1.56
-19.48
-36.86
-43.92
-38.12
-22.19
-2.32
14.75
24.53
25.82
20.24
10.77
0.61
-7.45
-11.24
-9.28
-1.21
11.95
27.83
43.3
55.33
61.74
61.75
55.82
45.35
32.14
18.03
4.72
-6.19
-13.12
-14.71
-10.27
-0.37
12.73
25.29
32.99
32.41
22.07
2.94
-21.96
-48.44
-72.08
-88.87
-95.63
-90.46
-73.37
-46.7
-15.01
15.88
40.44
54.9
58.15
51.5
37.85
20.53
2.7
-12.86
-23.6
-27.35
-22.86
-10.58
6.73
24.35
36.8
39.84
32.18
16.06
-3.6
-21.06
-31.74
-33.58
-27.2
-15.08
-0.27
14.59
27.78
38.34
45.75
49.55
49.23
44.68
36.42
25.82
14.69
4.57
-3.9
-11.03
-17.53
-23.71
-29.28
-33.8
-37.66
-42.54
-50.82
-63.97
-81.01
-98.1
-109.74
-110.97
-99.5
-76.47
-45.72
-12.07
20.19
48.04
69.64
83.77
89.52
86.44
74.98
56.84
34.84
12.31
-7.65
-22.76
-31.55
-33.5
-28.96
-19.5
-8.13
1.15
4.42
-0.41
-12.38
-27.48
-40.09
-45.25
-40.56
-26.81
-7.19
14.32
34.42
51.09
63.24
70.1
70.9
65.07
52.96
36.4
18.68
3.97
-3.79
-2.01
9.73
29.55
53.27
75.21
89.37
90.98
78.03
52.25
18.84
-14.96
-42.25
-58.47
-62.43
-55.9
-42.54
-26.61
-12.13
-2.45
0.18
-4.8
-16.1
-30.74
-45.12
-56.4
-63.36
-66.15
-65.03
-59.18
-46.69
-26.1
1.53
31.48
56.14
67.98
62.88
42.26
12.58
-17.29
-39.71
-50.92
-51.54
-45.23
-36.38
-28.27
-22.28
-18.25
-15.45
-13.38
-12.08
-12.03
-13.52
-15.77
-16.56
-12.59
-0.63
20.59
48.95
78.75
102.27
112.65
106.76
86.72
58.97
31.83
12.37
4.04
6.1
14.45
23.52
28.18
25.57
15.64
0.94
-14.63
-27.45
-35.36
-38.33
-38.21
-37.9
-40.33
-47.32
-58.71
-72.2
-83.99
-90.29
-89.15
-81.38
-70.06
-58.73
-49.3
-41.07
-31.64
-18.99
-3.14
13.7
28.45
38.88
44.3
44.97
41.03
32.26
18.84
2.29
-14.7
-29.74
-42.3
-54.11
-67.44
-82.68
-96.97
-105.64
-105.32
-96.53
-83.88
-73.08
-67.07
-63.76
-57.35
-42.26
-17.21
13.43
41.81
60.89
68.01
65.76
59.77
55.29
54.63
56.58
58.27
57.38
53.64
48.81
45.33
44.47
45.3
44.77
38.99
25.01
2.21
-26.92
-57.11
-81.52
-93.82
-90.18
-70.83
-40.04
-4.68
28.31
54.26
71.73
81.84
86.39
86.38
81.6
71.61
57.25
41.04
26.39
15.85
9.76
6.29
2.69
-3.32
-12.79
-25.65
-41.27
-58.4
-74.76
-86.58
-89.42
-79.94
-57.92
-27.03
6.24
35.25
55.94
67.92
73.53
75.57
75.45
72.65
65.75
53.88
37.53
18.51
-0.96
-18.83
-33.46
-43.73
-49.3
-51.01
-50.88
-51.3
-53.54
-56.68
-57.85
-54.06
-44.7
-32.82
-24.16
-24.02
-33.83
-49.61
-63.51
-67.67
-58.38
-38.03
-14.06
4.7
11.97
6.51
-7.84
-24.17
-35.47
-37.23
-28.97
-14.08
1.87
13.58
18.48
17.78
15.57
16.36
22.05
30.41
36.01
33.49
21.26
3.4
-11.57
-14.97
-2.68
22.23
50.42
70.56
74.37
60.06
32.5
0.53
-26.96
-43.92
-48.12
-40.54
-24.26
-3.62
16.42
30.94
36.55
32.82
22.93
12.44
6.62
7.71
14.03
21.39
26.24
28.24
30.48
37.17
50.01
66.04
78.36
79.48
65.42
38.17
5.26
-23.54
-40.48
-42.93
-34.0
-20.45
-9.37
-5.15
-8.14
-15.23
-21.87
-24.37
-21.29
-13.69
-4.17
4.42
10.17
12.74
13.31
13.88
16.52
22.6
32.34
44.59
56.87
65.95
68.43
61.8
45.8
23.16
-1.1
-21.44
-34.31
-39.7
-40.75
-41.63
-44.93
-50.5
-56.48
-62.08
-69.68
-84.37
-110.49
-147.44
-187.73
-219.24
-230.89
-218.38
-186.8
-148.2
-115.63
-96.99
-91.89
-92.67
-88.61
-70.88
-36.05
13.23
69.68
123.79
166.57
191.66
196.43
182.2
153.36
116.1
77.07
42.4
17.15
4.85
7.17
23.32
49.87
81.23
110.65
131.99
141.19
137.14
121.69
99.0
74.45
53.41
40.37
38.21
47.56
66.53
90.54
112.87
125.88
123.15
101.77
63.94
16.87
-29.15
-64.07
-81.15
-78.9
-61.04
-34.76
-8.07
12.51
23.4
24.39
17.95
7.96
-1.69
-8.37
-11.51
-12.77
-15.53
-23.69
-39.9
-63.79
-91.36
-115.92
-130.68
-131.69
-119.51
-98.8
-75.75
-55.03
-37.95
-22.75
-6.57
12.3
33.2
53.55
70.35
81.49
86.43
85.92
81.48
74.85
67.76
61.59
57.13
54.32
52.21
49.31
44.03
35.22
22.82
8.16
-6.1
-16.59
-20.26
-15.6
-3.36
13.56
31.07
45.4
54.31
57.79
57.65
56.55
56.76
59.14
62.98
66.51
67.9
66.15
61.36
54.24
45.49
35.25
23.29
9.68
-4.63
-17.62
-26.75
-29.79
-25.53
-14.03
3.66
25.87
50.45
74.75
95.58
109.37
112.9
104.26
83.75
54.32
21.2
-9.43
-32.11
-43.84
-44.88
-38.31
-28.54
-19.43
-13.05
-9.77
-9.21
-11.67
-18.67
-32.29
-53.39
-80.59
-110.13
-137.31
-158.29
-171.13
-175.17
-169.59
-152.56
-121.98
-77.95
-25.11
27.24
67.91
88.54
87.65
71.65
51.89
39.35
39.88
52.43
70.65
86.72
94.93
93.2
82.47
64.89
42.35
16.4
-10.72
-35.23
-51.76
-54.62
-40.33
-9.54
32.3
76.28
112.88
135.07
140.18
129.89
108.62
81.08
50.65
19.1
-12.52
-42.61
-68.45
-86.86
-95.39
-93.52
-83.01
-67.23
-49.97
-34.43
-22.54
-14.64
-9.54
-4.72
3.02
16.43
36.74
62.89
91.51
118.09
138.21
148.57
147.29
133.55
107.28
69.2
21.47
-31.73
-84.2
-128.77
-159.01
-171.05
-164.57
-142.7
-111.08
-76.69
-46.74
-27.62
-23.73
-36.01
-60.89
-90.44
-114.18
-122.14
-108.2
-72.08
-19.31
40.75
97.61
142.18
167.97
171.38
151.62
110.76
53.81
-11.37
-74.99
-126.93
-158.97
-166.58
-150.12
-114.66
-68.75
-22.39
15.47
39.14
47.55
44.4
36.8
32.77
38.39
55.72
82.21
112.11
138.89
157.56
165.98
164.47
154.41
136.75
111.26
76.62
31.26
-25.6
-92.87
-166.7
-240.22
-304.36
-349.82
-369.72
-361.82
-329.32
-279.77
-222.6
-166.21
-115.92
-73.29
-36.71
-2.88
31.58
68.53
107.42
145.07
176.53
196.42
200.57
187.21
157.14
113.48
60.99
5.48
-46.72
-89.51
-117.69
-127.91
-119.19
-93.38
-54.99
-10.66
31.84
65.16
84.09
86.96
76.16
57.28
37.26
22.1
15.31
17.41
26.48
39.2
51.86
60.75
62.51
54.49
35.62
7.03
-27.68
-63.09
-93.39
-114.03
-122.82
-120.07
-107.74
-88.33
-64.17
-37.5
-10.84
12.45
28.48
33.83
26.82
8.54
-17.1
-44.17
-66.38
-78.67
-78.42
-65.94
-44.22
-17.91
7.76
28.04
39.59
40.95
32.63
16.98
-2.14
-20.1
-32.4
-35.77
-29.07
-13.57
7.49
29.98
50.06
64.96
73.16
74.14
68.12
56.16
40.42
24.15
11.18
4.82
6.72
16.26
30.83
46.88
61.12
71.35
76.38
75.8
69.46
57.32
39.87
18.57
-3.9
-23.91
-37.7
-42.52
-37.52
-24.05
-5.4
14.16
30.36
39.8
40.57
32.37
16.65
-3.42
-23.22
-37.46
-41.44
-32.67
-12.05
15.94
44.38
65.97
75.42
70.88
54.23
29.98
3.38
-21.16
-40.82
-54.32
-61.2
-61.23
-54.4
-41.32
-23.93
-5.59
9.4
17.12
15.44
5.0
-10.74
-26.51
-36.82
-37.5
-26.78
-5.46
23.43
55.48
85.7
109.28
122.25
122.13
108.47
83.13
50.15
14.91
-17.01
-41.14
-55.1
-58.88
-54.49
-44.93
-33.23
-21.66
-11.68
-4.57
-1.94
-5.76
-17.4
-36.29
-58.95
-79.49
-91.41
-90.05
-74.35
-46.92
-12.72
22.73
54.54
78.7
91.87
91.56
77.2
51.32
19.78
-9.59
-29.9
-37.88
-34.99
-26.16
-16.93
-10.65
-7.34
-4.51
0.55
8.82
18.94
28.07
33.64
34.66
32.0
27.63
23.58
21.35
21.86
25.7
33.08
43.4
54.82
64.3
68.39
64.46
51.79
31.88
8.05
-15.68
-35.56
-48.73
-53.24
-48.01
-32.82
-8.71
21.25
51.68
75.1
83.24
69.44
31.33
-27.3
-96.29
-161.15
-206.93
-222.47
-203.85
-155.64
-89.6
-21.29
34.51
67.86
75.94
62.92
37.67
10.32
-10.83
-21.04
-19.29
-7.33
11.56
33.56
54.87
72.03
82.43
84.69
78.91
66.63
50.36
33.2
18.33
8.62
5.96
10.64
20.92
33.35
43.74
48.66
46.44
37.57
23.85
7.26
-11.05
-30.87
-52.39
-75.13
-97.24
-115.56
-126.38
-126.83
-116.01
-95.57
-69.32
-42.05
-18.09
-0.31
10.34
14.4
13.31
8.77
2.55
-3.49
-7.37
-7.15
-1.41
10.24
26.91
46.44
65.92
82.29
92.93
96.0
90.4
75.7
51.96
19.9
-18.71
-60.69
-101.44
-135.69
-158.83
-168.26
-164.15
-149.18
-127.4
-102.91
-78.92
-57.61
-40.37
-28.17
-21.57
-20.39
-23.37
-28.15
-31.7
-30.91
-23.34
-7.78
15.22
43.05
71.09
93.44
104.38
100.18
80.77
50.26
15.83
-14.5
-34.54
-41.82
-37.78
-26.47
-12.51
0.71
11.78
20.84
28.62
35.53
41.49
46.34
50.48
55.06
61.65
71.46
84.61
99.65
113.9
124.28
128.39
125.38
115.89
101.26
82.23
58.22
27.73
-10.17
-54.28
-100.52
-142.75
-174.73
-192.3
-194.47
-183.12
-161.55
-133.15
-100.8
-67.24
-35.73
-10.1
6.11
10.93
5.07
-7.88
-22.37
-32.49
-33.82
-24.78
-7.07
14.89
35.26
48.39
50.28
39.28
16.55
-14.14
-46.92
-74.83
-91.3
-91.9
-75.85
-46.43
-10.11
25.69
54.91
74.42
84.21
86.18
82.76
75.88
67.01
57.62
49.71
45.58
46.98
54.01
64.7
75.32
81.8
81.08
72.16
56.12
35.26
12.12
-11.1
-32.55
-50.35
-62.45
-67.05
-63.32
-52.02
-35.45
-16.75
1.02
15.45
24.93
28.43
25.62
17.17
5.12
-7.07
-15.22
-15.74
-6.94
10.34
32.94
56.28
75.68
87.28
88.55
78.31
56.57
24.7
-14.34
-55.79
-93.5
-121.03
-133.35
-128.39
-107.88
-76.82
-41.84
-9.16
16.95
34.83
45.08
49.59
50.71
50.63
51.11
53.26
57.36
62.8
68.2
71.87
72.11
67.71
57.99
42.74
22.2
-3.0
-31.5
-61.09
-88.79
-111.45
-126.56
-132.93
-131.03
-122.71
-110.57
-97.24
-84.92
-75.02
-68.13
-63.9
-61.04
-57.61
-51.37
-40.43
-23.87
-2.06
23.22
49.23
72.83
91.18
102.11
104.45
97.96
83.29
61.75
35.29
6.19
-23.19
-50.61
-74.11
-91.97
-102.79
-105.6
-100.15
-87.29
-69.01
-48.15
-27.76
-10.34
2.54
10.26
12.69
10.05
2.8
-7.98
-20.47
-32.34
-41.33
-45.88
-45.47
-40.47
-31.81
-20.63
-8.34
3.42
12.89
18.78
20.96
20.85
20.86
23.37
29.37
38.04
47.07
53.96
57.18
56.72
53.56
48.76
42.74
35.25
26.07
15.88
6.59
0.82
0.71
6.79
17.54
29.85
40.15
45.71
45.32
39.28
28.91
15.76
1.36
-12.79
-25.11
-33.83
-37.45
-35.23
-27.69
-16.47
-3.9
7.87
17.48
24.29
27.98
27.93
23.13
12.64
-3.39
-22.97
-42.0
-55.16
-57.44
-45.76
-20.29
15.44
55.28
92.2
120.03
134.91
135.7
123.66
101.6
72.92
40.97
8.86
-20.5
-44.45
-60.75
-68.03
-66.39
-57.64
-45.2
-33.28
-25.78
-24.98
-30.67
-39.9
-47.7
-48.52
-38.03
-14.59
20.2
61.75
103.87
140.25
165.99
178.35
176.98
163.43
140.4
111.03
78.38
45.15
13.46
-15.2
-39.92
-60.3
-76.17
-87.43
-94.04
-96.08
-93.9
-88.17
-79.71
-69.35
-57.83
-45.97
-34.83
-25.68
-19.71
-17.42
-18.23
-20.4
-21.52
-19.28
-12.36
-0.82
13.79
28.9
41.64
49.46
50.71
44.82
32.34
14.78
-5.74
-26.79
-45.91
-60.86
-70.02
-72.7
-69.28
-61.04
-49.81
-37.45
-25.54
-15.31
-7.71
-3.73
-4.4
-10.45
-21.57
-36.1
-51.27
-64.2
-73.19
-78.17
-80.73
-83.07
-86.49
-90.14
-91.36
-87.0
-75.48
-58.16
-38.64
-21.34
-9.76
-5.22
-6.96
-13.21
-21.68
-29.3
-31.62
-22.87
1.69
42.76
95.63
151.4
200.22
234.97
253.72
257.39
250.1
238.31
227.75
221.06
218.59
220.19
225.3
233.06
241.39
247.5
248.36
241.43
225.18
200.41
169.77
136.51
103.34
71.62
41.72
13.14
-15.08
-43.79
-73.25
-103.51
-134.85
-167.89
-202.97
-238.94
-272.75
-299.87
-315.63
-316.89
-303.62
-279.16
-248.9
-218.32
-191.02
-168.14
-149.01
-132.35
-117.19
-103.22
-90.67
-79.87
-71.22
-65.27
-62.99
-65.53
-73.52
-86.37
-101.66
-115.51
-123.57
-122.57
-111.55
-92.33
-68.87
-45.75
-26.5
-12.53
-3.08
3.92
10.47
17.52
24.79
31.19
35.81
38.42
39.51
39.79
39.65
39.03
37.8
36.28
35.51
36.79
40.86
47.08
53.23
56.26
53.56
44.22
29.49
12.32
-3.73
-15.92
-23.06
-25.66
-25.23
-23.46
-21.5
-19.83
-18.45
-17.34
-16.73
-17.09
-18.75
-21.55
-24.57
-26.37
-25.36
-20.41
-11.22
1.55
16.32
30.93
43.22
51.5
55.07
54.35
50.69
45.81
41.14
37.31
34.02
30.32
25.16
17.94
8.79
-1.31
-10.91
-18.35
-22.23
-21.77
-17.05
-9.05
0.52
9.61
16.28
19.09
17.46
11.8
3.49
-5.44
-12.83
-16.97
-17.14
-13.69
-7.86
-1.35
4.19
7.5
7.85
5.13
-0.15
-6.92
-13.72
-19.0
-21.62
-21.16
-18.19
-13.95
-9.99
-7.5
-6.98
-8.14
-10.12
-11.89
-12.7
-12.25
-10.78
-8.93
-7.54
-7.4
-9.04
-12.61
-17.86
-24.14
-30.43
-35.39
-37.59
-35.7
-28.89
-17.17
-1.6
15.76
32.24
45.13
52.35
52.88
46.91
35.82
21.77
7.33
-5.01
-13.36
-16.85
-15.88
-12.05
-7.57
-4.57
-4.36
-7.07
-11.66
-16.52
-20.02
-21.08
-19.29
-14.76
-7.91
0.77
10.6
20.61
29.49
35.82
38.58
37.63
33.88
29.1
25.13
23.24
23.62
25.31
26.63
25.78
21.47
13.37
2.33
-9.82
-20.63
-27.69
-29.39
-25.31
-16.37
-4.46
8.15
19.45
28.13
33.78
36.64
37.33
36.52
34.74
32.35
29.74
27.31
25.44
24.27
23.35
21.63
17.81
10.89
0.95
-10.52
-20.84
-27.02
-26.88
-19.81
-7.21
8.08
22.58
33.31
38.48
37.7
31.86
22.59
11.78
1.25
-7.45
-13.15
-15.28
-13.95
-10.16
-5.72
-2.84
-3.44
-8.35
-16.85
-26.71
-34.81
-38.17
-34.91
-24.81
-9.32
9.06
27.53
43.69
56.01
63.84
67.42
67.52
65.28
61.8
57.9
53.78
48.98
42.46
33.0
19.82
2.93
-16.38
-35.72
-52.04
-62.37
-64.64
-58.32
-44.52
-25.71
-4.96
14.79
31.33
43.32
50.19
51.91
48.9
42.06
32.81
22.92
14.06
7.27
2.63
-0.57
-3.43
-6.8
-10.92
-15.32
-19.05
-21.0
-20.22
-16.16
-8.82
1.07
12.16
22.69
30.99
35.96
37.32
35.56
31.53
26.08
19.76
12.96
5.98
-0.8
-6.87
-11.77
-15.32
-17.74
-19.7
-22.06
-25.58
-30.48
-36.04
-40.74
-42.65
-40.09
-32.42
-20.43
-6.15
7.83
19.25
26.83
30.5
31.08
29.78
27.67
25.41
23.24
21.02
18.34
14.53
8.87
0.84
-9.47
-20.99
-31.78
-39.44
-41.93
-38.34
-29.31
-16.71
-2.92
10.05
21.14
30.17
37.28
42.32
44.59
43.2
37.69
28.63
17.54
6.41
-3.24
-10.95
-17.37
-23.6
-30.36
-37.31
-42.96
-45.22
-42.25
-33.25
-18.92
-1.34
16.58
31.91
42.4
46.98
45.77
39.87
30.87
20.39
9.88
0.48
-6.96
-11.95
-14.38
-14.56
-13.2
-11.21
-9.34
-7.9
-6.65
-4.92
-1.92
2.86
9.41
17.17
25.25
32.57
38.21
41.53
42.33
40.92
38.07
34.86
32.31
31.15
31.48
32.84
34.31
34.73
32.86
27.65
18.42
5.26
-10.71
-27.31
-41.74
-51.33
-54.26
-50.09
-39.65
-24.62
-6.95
11.44
28.82
43.72
55.03
62.15
65.17
64.74
61.77
57.01
50.81
43.09
33.45
21.45
6.93
-9.61
-26.78
-42.24
-53.1
-56.74
-51.8
-38.87
-20.49
-0.39
17.84
31.75
40.43
44.25
44.13
41.01
35.67
28.89
21.47
14.14
7.24
0.57
-6.52
-14.71
-24.24
-34.61
-44.61
-52.62
-57.04
-56.76
-51.48
-41.9
-29.52
-16.13
-3.3
8.05
17.6
25.21
30.54
32.9
31.55
26.32
17.99
8.26
-0.82
-7.54
-11.04
-11.55
-10.07
-8.08
-7.12
-8.41
-12.51
-19.1
-26.97
-34.21
-38.82
-39.18
-34.62
-25.49
-13.17
0.32
12.85
22.62
28.66
30.85
29.91
26.91
22.94
18.71
14.5
10.27
5.83
1.06
-4.15
-9.88
-16.21
-23.14
-30.3
-36.88
-41.57
-42.93
-39.87
-32.11
-20.49
-6.81
6.68
17.89
25.42
28.77
28.19
24.41
18.24
10.46
1.76
-7.19
-15.65
-23.02
-28.9
-33.3
-36.55
-38.92
-40.33
-40.07
-37.09
-30.51
-20.25
-7.36
6.12
17.86
26.02
29.78
29.46
26.16
21.22
15.78
10.55
5.83
1.66
-2.06
-5.47
-8.64
-11.64
-14.54
-17.47
-20.55
-23.81
-26.95
-29.36
-30.24
-28.87
-24.99
-18.84
-11.08
-2.55
5.99
13.9
20.61
25.56
28.23
28.34
25.99
21.76
16.43
10.66
4.79
-1.27
-7.89
-15.41
-23.9
-33.02
-42.04
-49.99
-55.82
-58.64
-57.9
-53.47
-45.64
-35.08
-22.63
-9.33
3.77
15.6
25.2
31.86
35.24
35.48
33.14
29.03
24.1
19.23
15.14
12.22
10.49
9.6
8.96
8.06
6.85
5.87
6.16
8.71
13.91
21.2
29.08
35.68
39.41
39.53
36.34
30.85
24.33
17.83
11.95
6.84
2.48
-1.2
-4.15
-6.26
-7.53
-8.19
-8.65
-9.43
-10.93
-13.18
-15.8
-18.13
-19.46
-19.33
-17.66
-14.75
-11.09
-7.16
-3.27
0.41
3.77
6.68
8.96
10.44
10.96
10.47
8.87
6.05
1.83
-3.87
-10.92
-18.91
-27.21
-35.06
-41.75
-46.66
-49.35
-49.41
-46.62
-40.96
-32.73
-22.59
-11.47
-0.44
9.51
17.52
22.98
25.52
25.14
22.21
17.53
12.19
7.26
3.43
0.78
-1.25
-3.61
-6.92
-11.13
-15.2
-17.43
-16.11
-10.33
-0.41
12.05
24.69
35.23
42.1
44.77
43.63
39.64
33.91
27.41
20.92
14.94
9.81
5.69
2.6
0.39
-1.23
-2.64
-4.28
-6.48
-9.32
-12.51
-15.39
-17.11
-16.92
-14.53
-10.28
-5.02
0.12
4.13
6.41
6.82
5.65
3.34
0.42
-2.59
-5.18
-6.9
-7.52
-7.24
-6.74
-7.06
-9.18
-13.53
-19.72
-26.55
-32.43
-35.84
-35.86
-32.36
-25.87
-17.42
-8.16
0.8
8.57
14.51
18.31
19.91
19.47
17.31
13.79
9.31
4.28
-0.87
-5.85
-10.47
-14.77
-18.96
-23.23
-27.57
-31.64
-34.71
-35.86
-34.2
-29.23
-21.06
-10.45
1.37
12.9
22.73
29.81
33.55
33.91
31.45
27.11
22.01
17.17
13.2
10.29
8.22
6.72
5.55
4.6
3.73
2.76
1.45
-0.3
-2.19
-3.49
-3.28
-0.91
3.64
9.62
15.86
21.13
24.67
26.26
26.09
24.55
21.95
18.6
14.88
11.34
8.54
6.91
6.53
7.04
7.8
8.04
7.24
5.21
2.28
-0.73
-2.69
-2.54
0.28
5.41
11.57
16.97
20.04
20.03
17.31
13.03
8.57
4.83
2.1
0.15
-1.38
-2.71
-3.95
-5.24
-6.99
-9.81
-14.29
-20.6
-28.29
-36.28
-43.17
-47.68
-48.97
-46.85
-41.67
-34.05
-24.68
-14.13
-2.93
8.31
18.72
27.3
33.2
35.89
35.48
32.54
27.92
22.41
16.53
10.44
4.0
-3.01
-10.78
-19.12
-27.35
-34.3
-38.53
-38.82
-34.7
-26.69
-16.21
-5.1
4.98
12.87
18.04
20.41
20.11
17.37
12.61
6.5
-0.07
-6.2
-11.31
-15.22
-18.09
-20.22
-21.76
-22.63
-22.64
-21.58
-19.33
-15.9
-11.26
-5.39
1.65
9.59
17.79
25.39
31.51
35.52
37.2
36.64
34.15
30.03
24.61
18.24
11.39
4.63
-1.65
-7.28
-12.47
-17.64
-23.08
-28.76
-34.17
-38.45
-40.68
-40.18
-36.63
-30.15
-21.33
-11.08
-0.56
9.01
16.61
21.66
24.14
24.46
23.2
20.86
17.75
14.07
10.08
6.15
2.66
-0.2
-2.57
-5.0
-8.14
-12.45
-17.88
-23.8
-29.07
-32.43
-32.87
-29.96
-23.97
-15.83
-6.82
1.74
8.69
13.22
14.9
13.74
10.19
5.04
-0.68
-6.01
-10.33
-13.49
-15.7
-17.35
-18.76
-20.07
-21.31
-22.39
-23.2
-23.43
-22.54
-19.88
-14.95
-7.8
0.81
9.43
16.48
20.77
21.97
20.65
17.86
14.7
11.85
9.49
7.5
5.72
4.08
2.63
1.28
-0.3
-2.74
-6.69
-12.35
-19.17
-25.83
-30.58
-31.95
-29.31
-23.16
-14.81
-5.96
2.01
8.31
12.6
14.86
15.08
13.31
9.74
4.89
-0.49
-5.65
-10.1
-13.76
-16.92
-19.96
-23.12
-26.39
-29.46
-31.79
-32.75
-31.77
-28.44
-22.68
-14.83
-5.53
4.49
14.62
24.45
33.62
41.61
47.61
50.61
49.79
44.98
36.87
26.93
16.84
7.98
1.02
-4.12
-8.04
-11.44
-14.91
-18.69
-22.65
-26.33
-29.03
-29.98
-28.65
-24.99
-19.49
-13.07
-6.83
-1.78
1.45
2.57
1.58
-1.23
-5.39
-10.29
-15.2
-19.49
-22.8
-25.2
-27.24
-29.82
-33.82
-39.73
-47.36
-55.69
-63.09
-67.72
-68.07
-63.45
-54.17
-41.44
-26.93
-12.29
1.14
12.56
21.57
28.04
31.98
33.51
32.87
30.45
26.8
22.36
17.4
11.89
5.6
-1.72
-10.13
-19.38
-28.81
-37.33
-43.63
-46.28
-44.14
-36.77
-24.66
-9.26
7.35
22.98
35.91
45.17
50.63
52.67
51.97
49.21
44.94
39.72
33.97
28.12
22.43
17.02
11.86
6.79
1.59
-3.94
-9.93
-16.32
-22.69
-28.2
-31.78
-32.32
-29.13
-22.21
-12.38
-1.07
10.08
19.62
26.59
30.66
32.03
31.3
29.29
26.93
25.01
24.1
24.36
25.55
27.02
27.87
27.09
23.84
17.62
8.53
-2.69
-14.61
-25.38
-33.11
-36.29
-34.21
-27.07
-15.96
-2.57
11.24
23.72
33.57
39.99
42.64
41.68
37.63
31.36
23.84
15.94
8.16
0.58
-7.11
-15.38
-24.6
-34.86
-45.82
-56.67
-66.11
-72.45
-73.96
-69.34
-58.19
-41.39
-20.91
0.66
20.73
37.32
49.21
55.87
57.33
54.01
46.73
36.77
25.65
14.84
5.4
-2.32
-8.66
-14.43
-20.59
-27.82
-36.21
-45.07
-52.87
-57.66
-57.63
-51.75
-40.31
-24.9
-7.85
8.49
22.5
33.43
41.21
45.96
47.68
46.24
41.73
34.76
26.56
18.62
12.16
7.73
4.95
2.65
-0.68
-6.32
-14.86
-25.8
-37.59
-47.9
-54.23
-54.59
-48.07
-35.14
-17.4
2.79
22.98
41.01
55.26
64.73
68.99
68.22
63.21
55.32
46.26
37.74
30.97
26.28
23.01
19.69
14.61
6.41
-5.32
-19.8
-35.03
-48.28
-56.76
-58.39
-52.39
-39.49
-21.72
-1.74
17.76
34.62
47.39
55.3
58.09
56.02
49.88
40.95
30.8
20.87
12.08
4.55
-2.27
-9.28
-17.26
-26.62
-37.26
-48.47
-58.99
-67.1
-70.87
-68.71
-59.87
-44.79
-25.08
-3.02
18.98
38.84
54.92
66.05
71.43
70.8
64.63
54.32
41.97
29.95
20.12
13.31
9.14
6.23
2.75
-2.95
-11.81
-23.64
-36.95
-49.12
-56.93
-57.56
-49.53
-33.43
-11.8
11.55
32.82
49.29
59.91
65.02
65.72
63.18
58.28
51.7
44.15
36.54
29.79
24.52
20.73
17.78
14.64
10.27
4.03
-4.29
-14.31
-25.19
-35.57
-43.72
-47.78
-46.2
-38.3
-24.6
-6.8
12.68
31.24
46.74
57.78
63.81
64.97
61.96
55.84
47.91
39.47
31.55
24.73
18.93
13.5
7.39
-0.67
-11.65
-25.97
-43.03
-61.04
-77.21
-88.36
-91.86
-86.42
-72.64
-52.77
-29.99
-7.42
12.59
28.72
40.4
47.44
49.77
47.5
41.13
31.8
21.13
10.77
1.9
-5.12
-10.82
-16.3
-22.77
-30.95
-40.76
-51.02
-59.64
-64.07
-61.99
-52.21
-35.07
-12.54
12.34
36.3
56.54
71.16
79.17
80.27
74.63
62.97
46.62
27.57
8.23
-9.05
-22.6
-31.83
-37.25
-40.26
-42.56
-45.71
-50.66
-57.37
-64.78
-70.93
-73.44
-70.37
-60.84
-45.52
-26.43
-6.32
12.15
27.02
37.18
42.16
41.92
36.7
27.23
14.81
1.19
-11.72
-22.48
-30.46
-36.02
-40.37
-45.08
-51.47
-59.88
-69.4
-77.79
-82.23
-80.19
-70.42
-53.44
-31.36
-7.04
16.72
37.91
55.32
68.36
76.66
80.01
78.56
73.03
64.84
55.73
47.27
40.3
34.68
29.36
22.85
13.75
1.28
-14.26
-31.34
-47.31
-58.88
-62.98
-57.72
-43.06
-20.95
5.21
31.61
54.99
73.26
85.49
91.56
91.72
86.42
76.37
62.73
47.15
31.39
16.98
4.66
-5.7
-15.04
-24.67
-35.62
-48.13
-61.22
-72.77
-79.98
-80.28
-72.18
-55.96
-33.59
-8.21
16.91
39.1
56.7
68.99
75.67
76.59
71.72
61.49
47.22
31.05
15.68
3.38
-4.69
-8.97
-11.2
-13.74
-18.58
-26.51
-36.69
-46.79
-53.68
-54.29
-46.65
-30.44
-7.23
19.95
47.48
71.99
91.09
103.56
109.16
108.15
101.18
89.21
73.79
57.04
41.36
28.77
20.27
15.52
13.06
10.92
7.31
1.1
-7.96
-19.36
-31.81
-43.43
-51.92
-55.0
-51.13
-40.12
-23.34
-3.41
16.68
34.46
48.56
58.66
65.09
68.2
68.08
64.69
58.31
49.79
40.66
32.6
26.86
23.7
22.25
20.81
17.46
10.67
-0.21
-14.61
-30.78
-46.01
-57.25
-61.83
-58.31
-46.99
-29.83
-9.88
9.74
26.65
39.57
48.1
52.3
52.31
48.33
40.83
30.82
19.78
9.26
0.39
-6.5
-11.89
-16.8
-22.46
-29.91
-39.76
-51.98
-65.56
-78.44
-87.76
-90.57
-84.83
-70.23
-48.51
-22.84
3.11
26.33
44.88
57.88
65.04
66.29
61.74
51.98
38.43
23.21
8.73
-3.1
-11.43
-16.72
-20.31
-23.83
-28.58
-35.11
-43.17
-51.79
-59.43
-64.2
-64.25
-58.29
-46.08
-28.79
-8.75
11.21
28.58
41.77
50.2
53.9
53.09
47.93
38.74
26.41
12.56
-0.67
-11.29
-18.14
-21.32
-22.07
-22.26
-23.8
-27.94
-35.05
-44.34
-54.03
-61.71
-64.95
-62.07
-52.69
-37.92
-19.94
-1.31
15.81
30.02
40.53
46.91
48.76
45.8
38.25
27.14
14.36
2.25
-7.13
-12.72
-14.78
-14.8
-14.95
-17.38
-23.48
-33.43
-46.05
-58.96
-69.21
-74.09
-71.92
-62.61
-47.66
-29.57
-11.07
5.74
19.84
31.12
39.95
46.58
50.81
52.25
50.61
46.22
39.95
33.0
26.36
20.42
14.79
8.59
0.77
-9.37
-21.82
-35.63
-48.85
-58.93
-63.25
-59.99
-48.75
-30.85
-8.96
13.64
34.03
50.14
61.0
66.45
66.79
62.57
54.58
43.88
31.91
20.3
10.53
3.63
-0.15
-1.29
-0.82
0.03
0.11
-1.3
-4.34
-8.43
-12.32
-14.4
-13.19
-7.92
1.06
12.39
24.19
34.77
43.2
49.39
53.7
56.38
57.29
55.92
51.85
45.24
37.03
28.69
21.72
16.98
14.41
13.09
11.54
8.23
2.0
-7.69
-20.63
-35.74
-51.15
-64.43
-73.15
-75.55
-71.2
-61.2
-47.75
-33.4
-20.15
-9.0
-0.09
6.84
11.87
14.79
15.32
13.48
9.88
5.53
1.41
-1.98
-4.85
-7.94
-12.14
-18.07
-25.86
-35.13
-45.06
-54.52
-62.15
-66.52
-66.48
-61.51
-51.88
-38.69
-23.52
-7.95
6.78
19.8
30.61
38.73
43.65
44.9
42.34
36.41
28.14
18.96
10.12
2.29
-4.67
-11.61
-19.59
-29.37
-40.94
-53.4
-65.06
-73.87
-77.8
-75.47
-66.49
-51.71
-33.08
-13.2
5.42
20.86
32.11
39.01
41.75
40.75
36.52
29.89
22.02
14.31
7.97
3.6
0.99
-0.73
-2.7
-5.88
-10.91
-17.96
-26.66
-36.03
-44.45
-49.86
-50.37
-44.88
-33.68
-18.51
-2.0
13.21
25.23
33.34
37.73
39.12
38.2
35.43
31.14
25.68
19.64
13.81
8.92
5.37
3.0
1.11
-1.38
-5.5
-11.91
-20.5
-30.34
-39.85
-47.14
-50.59
-49.25
-43.04
-32.71
-19.47
-4.63
10.65
25.38
38.64
49.4
56.63
59.5
57.78
52.05
43.61
34.15
25.19
17.7
11.83
7.01
2.16
-3.97
-12.38
-23.48
-36.75
-50.53
-62.31
-69.27
-69.25
-61.49
-47.0
-28.15
-7.93
11.1
27.32
40.09
49.36
55.17
57.42
55.98
50.98
43.12
33.63
23.91
15.18
8.07
2.59
-1.76
-5.78
-10.23
-15.67
-22.28
-29.68
-36.88
-42.46
-44.85
-42.87
-36.13
-25.14
-11.28
3.7
18.04
30.38
39.78
45.61
47.5
45.32
39.35
30.38
19.8
9.3
0.46
-5.81
-9.5
-11.46
-13.08
-15.7
-20.18
-26.65
-34.55
-42.69
-49.57
-53.66
-53.74
-49.24
-40.46
-28.54
-15.0
-1.37
11.32
22.53
31.98
39.32
43.93
45.05
42.23
35.75
26.72
16.83
7.79
0.63
-4.54
-8.54
-12.72
-18.34
-26.05
-35.57
-45.62
-54.32
-59.64
-60.09
-55.17
-45.5
-32.6
-18.33
-4.31
8.39
19.25
27.94
34.02
36.85
35.91
31.18
23.47
14.3
5.4
-1.93
-7.31
-11.38
-15.48
-21.09
-29.15
-39.67
-51.52
-62.62
-70.39
-72.52
-67.59
-55.55
-37.75
-16.53
5.43
25.76
42.82
55.77
64.4
68.82
69.44
66.84
61.87
55.42
48.35
41.08
33.56
25.28
15.59
3.95
-9.79
-25.26
-41.53
-57.17
-70.36
-79.11
-81.73
-77.31
-66.09
-49.59
-30.14
-10.32
7.64
22.31
32.98
39.52
42.13
41.25
37.56
31.95
25.47
19.06
13.28
8.17
3.18
-2.65
-10.36
-20.61
-33.18
-46.63
-58.3
-65.03
-64.15
-54.65
-37.63
-15.97
6.72
27.43
44.62
58.18
68.82
77.18
83.29
86.58
86.43
82.66
75.79
66.89
57.16
47.55
38.5
29.85
21.01
11.22
-0.16
-13.27
-27.44
-41.12
-52.19
-58.46
-58.5
-52.06
-40.25
-25.17
-9.16
5.77
18.32
27.85
34.11
36.95
36.26
32.17
25.21
16.47
7.34
-0.82
-7.14
-11.46
-14.43
-17.27
-21.44
-28.07
-37.59
-49.25
-61.16
-70.62
-74.92
-72.19
-62.12
-45.99
-26.25
-5.64
13.59
30.02
42.95
52.03
57.04
57.88
54.83
48.86
41.55
34.67
29.58
26.65
25.13
23.47
19.92
13.16
2.87
-10.09
-23.81
-35.71
-43.16
-44.13
-37.86
-25.02
-7.6
11.68
30.17
45.84
57.55
64.95
68.15
67.39
62.96
55.41
45.62
34.81
24.27
14.93
7.01
-0.07
-7.42
-16.25
-27.32
-40.6
-55.05
-68.61
-78.66
-82.56
-78.5
-66.04
-46.48
-22.47
2.67
25.91
45.13
59.26
68.08
71.8
70.82
65.74
57.57
47.69
37.79
29.38
23.28
19.43
16.85
14.01
9.33
1.72
-9.04
-22.11
-35.69
-47.34
-54.53
-55.35
-49.09
-36.48
-19.6
-1.24
15.84
29.62
39.11
44.22
45.38
43.15
38.06
30.68
21.72
12.16
3.06
-4.71
-10.81
-15.56
-19.81
-24.73
-31.31
-39.96
-50.18
-60.47
-68.61
-72.21
-69.56
-60.13
-44.96
-26.22
-6.53
11.81
27.35
39.47
48.11
53.28
54.88
52.9
47.68
40.17
31.85
24.27
18.55
14.97
12.9
11.13
8.28
3.28
-4.26
-13.93
-24.48
-34.14
-40.99
-43.52
-41.04
-33.95
-23.49
-11.41
0.54
11.0
19.17
24.73
27.67
28.11
26.3
22.61
17.7
12.37
7.49
3.7
1.21
-0.34
-1.8
-4.23
-8.6
-15.38
-24.4
-34.69
-44.62
-52.24
-55.81
-54.22
-47.47
-36.61
-23.42
-9.83
2.66
13.21
21.57
27.75
31.7
33.26
32.39
29.38
24.98
20.24
16.09
13.01
10.83
8.86
6.31
2.58
-2.49
-8.56
-14.94
-20.66
-24.56
-25.5
-22.57
-15.47
-4.74
8.27
21.77
34.08
44.0
50.95
54.82
55.67
53.58
48.77
41.77
33.48
25.14
17.83
12.2
8.2
5.17
2.17
-1.68
-6.89
-13.47
-20.99
-28.58
-35.04
-39.0
-39.26
-35.18
-26.99
-15.86
-3.56
8.03
17.48
24.08
27.73
28.63
26.97
22.95
16.92
9.67
2.34
-3.81
-7.92
-9.86
-10.24
-10.15
-10.72
-12.76
-16.62
-22.15
-28.71
-35.24
-40.27
-42.21
-39.8
-32.64
-21.38
-7.62
6.59
19.42
29.66
36.77
40.72
41.55
39.35
34.32
27.03
18.49
9.98
2.69
-2.83
-6.77
-10.04
-13.83
-19.14
-26.37
-35.11
-44.3
-52.41
-57.89
-59.56
-56.84
-49.96
-39.75
-27.51
-14.66
-2.49
7.94
15.84
20.69
22.31
20.82
16.75
10.92
4.31
-2.14
-7.76
-12.25
-15.62
-18.22
-20.56
-23.26
-26.85
-31.5
-36.78
-41.54
-44.13
-42.93
-36.95
-26.33
-12.33
3.08
17.92
30.68
40.58
47.29
50.69
50.66
47.24
40.82
32.34
23.19
14.71
7.77
2.46
-1.88
-6.3
-11.8
-18.96
-27.73
-37.44
-46.85
-54.39
-58.48
-57.98
-52.53
-42.78
-30.17
-16.51
-3.47
7.81
16.7
22.97
26.51
27.22
25.2
20.9
15.28
9.48
4.59
1.11
-1.17
-3.05
-5.6
-9.62
-15.35
-22.21
-28.97
-34.01
-35.78
-33.19
-25.99
-14.79
-0.94
13.84
27.88
39.84
48.84
54.43
56.4
54.75
49.73
41.97
32.48
22.59
13.53
6.22
0.9
-2.88
-6.06
-9.84
-15.31
-23.14
-33.21
-44.46
-54.97
-62.36
-64.59
-60.74
-51.35
-38.32
-24.07
-10.68
0.73
10.03
17.54
23.47
27.56
29.28
28.33
25.0
20.23
15.25
10.95
7.61
4.85
1.94
-1.84
-6.93
-13.42
-20.95
-28.69
-35.37
-39.36
-39.13
-33.74
-23.35
-9.28
6.34
21.3
33.94
43.57
50.3
54.59
56.83
57.12
55.34
51.5
46.0
39.62
33.25
27.55
22.55
17.74
12.25
5.3
-3.46
-13.78
-24.92
-35.74
-44.88
-50.91
-52.57
-49.1
-40.47
-27.58
-12.1
4.01
19.0
31.68
41.47
48.2
51.82
52.28
49.66
44.23
36.74
28.31
20.28
13.76
9.35
6.9
5.51
3.86
0.66
-4.79
-12.4
-21.1
-29.19
-34.81
-36.44
-33.36
-25.78
-14.75
-1.82
11.35
23.31
32.94
39.41
42.11
40.64
35.02
25.84
14.4
2.36
-8.63
-17.46
-23.88
-28.38
-31.95
-35.62
-40.19
-45.97
-52.79
-59.94
-66.2
-70.03
-69.93
-64.95
-55.11
-41.51
-26.08
-10.94
2.21
12.54
19.99
24.99
28.01
29.32
28.98
27.08
23.89
19.95
15.85
12.08
8.82
5.96
3.19
0.09
-3.74
-8.52
-14.13
-19.96
-24.83
-27.3
-26.15
-20.96
-12.39
-2.09
7.98
16.23
21.99
25.47
27.32
28.02
27.6
25.71
22.02
16.68
10.41
4.28
-0.7
-4.02
-5.73
-6.4
-6.88
-8.04
-10.62
-14.98
-20.93
-27.58
-33.42
-36.71
-35.99
-30.67
-21.33
-9.45
3.04
14.45
23.77
30.7
35.35
37.9
38.36
36.71
33.17
28.44
23.64
20.07
18.63
19.45
21.78
24.22
25.08
22.86
16.7
6.55
-6.64
-21.02
-34.25
-43.97
-48.48
-47.21
-40.8
-30.79
-19.04
-7.24
3.45
12.36
19.2
23.92
26.58
27.48
27.08
25.96
24.6
23.32
22.16
20.96
19.46
17.37
14.44
10.48
5.35
-0.9
-7.92
-14.93
-20.72
-23.93
-23.47
-18.94
-10.86
-0.51
10.49
20.72
29.32
35.96
40.63
43.33
43.86
41.86
37.06
29.54
19.82
8.85
-2.26
-12.53
-21.44
-29.11
-36.26
-43.91
-52.83
-63.1
-73.74
-82.9
-88.39
-88.41
-82.16
-70.16
-53.91
-35.43
-16.6
1.1
16.66
29.3
38.33
43.14
43.36
39.16
31.32
21.17
10.29
0.11
-8.42
-15.0
-19.87
-23.73
-27.4
-31.64
-36.84
-42.88
-48.99
-53.78
-55.63
-53.1
-45.53
-33.36
-18.16
-2.18
12.32
23.75
31.43
35.59
36.91
36.07
33.51
29.35
23.74
17.04
9.93
3.3
-2.1
-5.92
-8.41
-10.23
-12.25
-15.12
-19.05
-23.62
-27.8
-30.22
-29.49
-24.76
-16.07
-4.47
8.2
19.85
28.92
34.76
37.66
38.44
37.82
36.16
33.4
29.46
24.55
19.35
14.77
11.62
10.13
9.93
10.09
9.42
6.76
1.26
-7.34
-18.45
-30.54
-41.3
-48.27
-49.58
-44.7
-34.54
-21.07
-6.49
7.5
20.03
30.85
39.91
46.96
51.54
53.37
52.55
49.77
46.03
42.23
38.72
35.09
30.34
23.21
12.69
-1.54
-18.85
-37.62
-55.42
-69.52
-77.43
-77.55
-69.6
-54.82
-35.7
-15.37
3.32
18.53
29.93
38.47
45.83
53.45
61.96
70.87
78.92
84.64
86.94
85.39
80.21
71.94
61.25
48.83
35.32
21.42
7.84
-4.55
-14.82
-21.92
-24.81
-22.69
-15.22
-2.86
13.09
30.65
47.55
61.77
71.84
77.03
77.28
73.09
65.35
55.18
43.79
32.27
21.43
11.6
2.7
-5.71
-14.2
-23.27
-33.29
-44.4
-56.45
-68.91
-80.79
-90.74
-97.27
-99.27
-96.36
-89.1
-78.84
-67.2
-55.63
-45.09
-36.0
-28.49
-22.64
-18.52
-16.08
-14.96
-14.45
-13.6
-11.62
-8.19
-3.71
0.82
4.14
5.16
3.27
-1.46
-8.38
-16.43
-24.25
-30.47
-33.83
-33.46
-29.1
-21.17
-10.64
1.16
12.95
23.73
32.86
39.95
44.66
46.67
45.89
42.68
37.97
33.12
29.49
27.89
28.22
29.43
29.85
27.69
21.56
11.0
-3.38
-19.78
-35.61
-48.05
-54.87
-55.05
-49.07
-38.56
-25.7
-12.42
-0.14
10.25
18.18
23.17
25.03
23.99
20.85
16.71
12.59
9.03
5.98
3.06
-0.15
-3.85
-7.92
-12.08
-15.95
-19.02
-20.64
-20.1
-16.8
-10.52
-1.59
9.19
20.84
32.51
43.64
53.86
62.66
69.28
72.63
71.7
65.92
55.56
41.72
26.08
10.46
-3.66
-15.46
-24.85
-32.34
-38.77
-44.98
-51.27
-57.19
-61.35
-61.91
-57.15
-46.35
-30.16
-10.5
10.09
29.24
45.36
57.74
66.15
70.54
70.77
66.81
59.03
48.37
36.22
24.01
12.77
2.87
-5.83
-13.79
-21.48
-29.23
-37.3
-45.64
-53.83
-60.81
-65.02
-64.82
-59.2
-48.53
-34.66
-20.55
-9.26
-2.95
-2.32
-6.7
-14.51
-23.94
-33.31
-41.29
-46.9
-49.64
-49.7
-48.06
-46.19
-45.47
-46.59
-49.27
-52.4
-54.75
-55.45
-54.14
-50.64
-44.52
-34.94
-20.96
-2.26
20.36
44.94
68.93
90.0
106.73
118.73
126.3
129.96
130.04
126.82
120.71
112.66
104.26
97.41
93.79
94.21
98.12
103.66
108.2
109.19
105.0
95.36
81.26
64.5
47.14
31.09
17.91
8.73
4.03
3.56
6.22
10.25
13.75
15.16
13.77
9.69
3.64
-3.56
-11.36
-19.54
-28.11
-37.04
-46.18
-55.24
-63.91
-72.0
-79.44
-86.25
-92.52
-98.42
-104.15
-109.83
-115.24
-119.64
-121.74
-120.07
-113.48
-101.7
-85.54
-66.69
-47.24
-29.11
-13.77
-2.1
5.42
8.68
7.96
3.93
-2.34
-9.57
-16.61
-22.61
-27.11
-30.02
-31.42
-31.5
-30.56
-28.89
-26.69
-23.84
-19.84
-13.78
-4.81
7.49
22.66
39.29
55.33
68.74
77.94
82.17
81.56
76.8
68.94
59.02
47.99
36.67
25.76
15.88
7.55
1.08
-3.51
-6.6
-8.93
-11.46
-15.12
-20.33
-26.8
-33.37
-38.32
-39.93
-37.06
-29.7
-18.96
-6.68
5.16
15.12
22.51
27.31
29.77
30.13
28.5
25.12
20.43
15.23
10.45
6.79
4.51
3.3
2.49
1.33
-0.75
-4.02
-8.37
-13.3
-17.96
-21.22
-21.9
-19.02
-12.21
-1.85
10.89
24.41
37.06
47.55
55.07
59.24
59.96
57.3
51.63
43.67
34.61
25.92
18.89
14.29
11.99
11.13
10.41
8.49
4.45
-2.13
-11.07
-21.66
-32.63
-42.41
-49.32
-52.05
-49.96
-43.39
-33.51
-22.02
-10.63
-0.66
7.17
12.68
15.97
17.25
16.66
14.37
10.65
5.93
0.79
-4.32
-9.12
-13.69
-18.35
-23.56
-29.75
-37.16
-45.61
-54.4
-62.25
-67.38
-68.05
-63.08
-52.33
-36.96
-19.03
-0.92
15.35
28.44
37.71
42.94
44.12
41.43
35.42
27.11
17.83
9.0
1.52
-4.36
-9.08
-13.33
-17.71
-22.35
-26.97
-31.01
-33.82
-34.83
-33.52
-29.59
-23.05
-14.41
-4.69
4.77
12.66
18.18
21.12
21.8
20.71
18.18
14.28
8.93
2.2
-5.53
-13.45
-20.58
-26.0
-29.22
-30.35
-30.15
-29.72
-30.12
-31.9
-34.85
-38.02
-40.08
-39.84
-36.63
-30.51
-22.13
-12.47
-2.52
6.8
14.75
20.71
24.25
25.18
23.6
19.98
15.1
9.93
5.4
2.19
0.62
0.47
1.05
1.34
0.23
-3.13
-8.96
-16.57
-24.48
-30.7
-33.39
-31.43
-24.84
-14.69
-2.76
9.13
19.59
27.87
33.84
37.61
39.37
39.35
37.86
35.46
32.91
30.9
29.79
29.32
28.64
26.51
21.73
13.58
2.12
-11.71
-26.18
-39.17
-48.66
-53.2
-52.16
-45.92
-35.58
-22.69
-8.91
4.36
16.05
25.57
32.76
37.76
40.94
42.66
43.22
42.78
41.43
39.26
36.43
33.17
29.62
25.71
21.12
15.36
7.95
-1.36
-12.3
-24.02
-35.11
-43.91
-48.97
-49.39
-45.14
-36.88
-25.87
-13.55
-1.31
9.65
18.42
24.45
27.48
27.66
25.44
21.47
16.48
11.2
6.22
1.99
-1.22
-3.43
-4.82
-5.72
-6.46
-7.27
-8.15
-8.87
-8.79
-7.03
-2.63
5.05
15.99
29.24
43.15
55.79
65.55
71.54
73.6
72.0
67.17
59.47
49.26
37.07
23.6
9.69
-3.88
-16.41
-27.35
-36.2
-42.6
-46.5
-48.26
-48.61
-48.33
-47.81
-46.74
-44.2
-39.16
-31.1
-20.4
-8.28
3.69
14.13
22.19
27.56
30.22
30.18
27.46
22.2
14.91
6.5
-1.86
-9.07
-14.41
-17.66
-19.08
-19.2
-18.64
-17.98
-17.66
-17.88
-18.59
-19.39
-19.62
-18.53
-15.52
-10.4
-3.47
4.52
12.61
19.93
25.95
30.48
33.55
35.22
35.43
34.04
31.0
26.56
21.32
16.13
11.84
9.0
7.59
6.93
5.89
3.17
-2.24
-10.66
-21.4
-32.83
-42.8
-49.25
-50.97
-47.97
-41.39
-33.0
-24.43
-16.58
-9.46
-2.59
4.53
11.87
18.85
24.55
28.25
29.74
29.3
27.67
25.74
24.45
24.57
26.53
30.07
34.07
36.69
35.95
30.44
20.01
6.03
-9.04
-22.42
-31.91
-36.41
-36.12
-32.11
-25.81
-18.47
-11.0
-4.05
1.77
5.66
6.77
4.49
-1.06
-8.97
-17.79
-26.09
-33.12
-38.93
-44.05
-48.91
-53.41
-56.87
-58.41
-57.37
-53.56
-47.05
-37.97
-26.31
-12.07
4.4
22.24
40.1
56.55
70.55
81.73
90.24
96.47
100.58
102.39
101.57
97.89
91.58
83.36
74.24
65.14
56.64
48.9
41.68
34.54
27.1
19.17
10.82
2.44
-5.29
-11.57
-15.64
-17.11
-16.17
-13.61
-10.6
-8.37
-7.79
-9.29
-12.9
-18.46
-25.71
-34.23
-43.23
-51.52
-57.7
-60.54
-59.46
-54.71
-47.32
-38.74
-30.51
-23.97
-20.09
-19.45
-21.99
-27.0
-33.05
-38.38
-41.31
-40.88
-37.12
-30.96
-23.84
-17.15
-11.8
-8.16
-6.19
-5.66
-6.29
-7.78
-9.67
-11.29
-11.92
-11.04
-8.61
-5.23
-1.93
0.17
0.19
-2.29
-7.17
-13.98
-21.82
-29.52
-35.67
-38.98
-38.58
-34.38
-27.11
-18.0
-8.33
1.02
9.74
17.86
25.38
31.94
36.84
39.33
38.98
35.98
31.04
25.18
19.36
14.13
9.63
5.58
1.55
-2.88
-7.91
-13.41
-18.83
-23.31
-25.9
-25.95
-23.34
-18.54
-12.4
-5.78
0.79
7.09
13.12
18.8
23.83
27.66
29.72
29.64
27.42
23.44
18.3
12.6
6.78
1.0
-4.78
-10.66
-16.65
-22.55
-27.99
-32.53
-35.66
-36.83
-35.42
-30.83
-22.7
-11.22
2.71
17.52
31.32
42.51
50.11
53.97
54.61
52.87
49.68
45.82
41.82
37.94
34.07
29.74
24.24
16.79
6.84
-5.69
-20.29
-35.92
-51.2
-64.74
-75.4
-82.46
-85.55
-84.7
-80.22
-72.81
-63.39
-53.13
-43.19
-34.35
-26.86
-20.35
-14.17
-7.77
-1.11
5.37
11.12
15.88
19.95
24.06
29.0
35.03
41.78
48.2
53.02
55.01
53.28
47.52
38.12
26.29
14.04
3.75
-2.46
-3.56
0.0
6.44
13.37
18.79
21.67
22.09
20.87
18.89
16.73
14.53
12.13
9.4
6.32
3.04
-0.28
-3.61
-7.12
-11.23
-16.52
-23.6
-32.8
-43.92
-56.0
-67.41
-76.26
-81.05
-81.18
-77.28
-70.89
-63.82
-57.41
-51.99
-46.92
-41.05
-33.32
-23.3
-11.34
1.73
14.89
27.36
38.63
48.35
56.28
62.19
65.99
67.77
67.9
66.77
64.65
61.53
57.2
51.56
44.86
37.83
31.51
26.85
24.39
24.01
24.95
26.02
25.96
23.69
18.54
10.34
-0.51
-13.25
-26.92
-40.64
-53.78
-65.92
-76.8
-86.15
-93.61
-98.84
-101.63
-101.94
-99.86
-95.59
-89.36
-81.31
-71.43
-59.38
-44.56
-26.37
-4.69
19.68
44.91
68.48
87.97
101.67
108.92
109.88
105.02
94.9
80.32
62.7
44.29
27.84
15.87
9.81
9.8
14.92
23.86
35.43
48.75
63.07
77.55
91.15
102.79
111.53
116.75
118.23
116.23
111.51
105.29
98.99
93.72
89.79
86.42
82.11
75.32
65.32
52.45
37.95
23.25
9.25
-3.94
-16.8
-29.78
-42.88
-55.51
-66.82
-76.26
-83.88
-90.27
-96.13
-101.79
-106.87
-110.46
-111.57
-109.61
-104.75
-97.86
-90.21
-82.96
-76.81
-71.93
-68.12
-65.14
-62.88
-61.38
-60.61
-60.32
-60.04
-59.25
-57.68
-55.48
-53.09
-51.1
-49.97
-49.85
-50.55
-51.68
-52.6
-52.57
-50.67
-46.05
-38.16
-27.08
-13.66
0.6
14.02
25.18
33.33
38.44
40.97
41.53
40.62
38.59
35.76
32.6
29.74
27.82
27.22
27.84
29.12
30.19
30.09
28.0
23.44
16.38
7.4
-2.28
-10.98
-16.97
-19.01
-16.71
-10.64
-2.07
7.54
16.78
24.56
30.04
32.63
32.04
28.33
21.98
13.89
5.15
-3.15
-10.15
-15.4
-18.84
-20.83
-21.96
-22.93
-24.3
-26.3
-28.71
-30.79
-31.53
-29.88
-25.12
-17.24
-6.99
4.23
14.83
23.54
29.77
33.63
35.68
36.45
36.21
35.0
32.76
29.62
25.95
22.2
18.75
15.71
12.97
10.32
7.62
4.82
1.98
-0.93
-3.98
-7.25
-10.67
-13.86
-16.18
-16.82
-15.15
-11.0
-4.83
2.39
9.54
15.77
20.73
24.57
27.64
30.14
31.93
32.69
32.14
30.4
28.05
25.89
24.59
24.35
24.83
25.27
24.79
22.71
18.69
12.89
6.04
-0.76
-6.14
-8.89
-8.34
-4.66
1.15
7.49
12.63
15.18
14.52
10.94
5.48
-0.42
-5.43
-8.67
-9.94
-9.54
-8.01
-5.95
-3.79
-1.93
-0.87
-1.11
-3.08
-6.87
-12.12
-18.14
-24.21
-29.84
-34.76
-38.87
-41.86
-43.19
-42.16
-38.17
-31.04
-21.21
-9.71
2.07
12.73
21.2
26.97
30.12
31.22
30.97
30.05
28.9
27.72
26.49
25.08
23.28
20.78
17.24
12.32
5.87
-2.03
-10.89
-19.94
-28.17
-34.51
-37.99
-37.81
-33.49
-24.95
-12.68
2.26
18.29
33.58
46.34
55.22
59.52
59.28
55.21
48.38
39.92
30.8
21.63
12.71
4.17
-3.97
-11.52
-18.1
-23.18
-26.25
-27.03
-25.67
-22.67
-18.74
-14.43
-9.92
-4.94
0.99
8.19
16.45
24.87
32.14
37.03
38.85
37.67
34.19
29.41
24.19
19.16
14.65
10.9
8.14
6.44
5.76
5.77
6.04
6.21
6.1
5.7
4.96
3.64
1.27
-2.58
-7.98
-14.41
-20.83
-26.05
-29.21
-30.12
-29.31
-27.7
-26.19
-25.37
-25.37
-25.94
-26.64
-27.02
-26.69
-25.42
-23.21
-20.25
-16.94
-13.73
-11.01
-9.1
-8.27
-8.79
-10.97
-15.01
-20.77
-27.62
-34.34
-39.35
-41.19
-39.01
-32.89
-23.98
-14.08
-5.13
1.42
4.99
5.89
4.97
3.11
0.94
-1.31
-3.57
-5.7
-7.42
-8.45
-8.68
-8.36
-8.06
-8.5
-10.24
-13.64
-18.71
-25.26
-32.89
-40.97
-48.6
-54.61
-57.85
-57.44
-53.13
-45.43
-35.44
-24.57
-14.11
-4.97
2.34
7.65
11.02
12.68
13.06
12.7
12.21
12.11
12.68
13.86
15.35
16.58
16.95
15.83
12.79
7.75
1.02
-6.71
-14.46
-21.17
-25.87
-27.81
-26.67
-22.52
-15.93
-7.77
0.89
9.0
15.75
20.55
23.12
23.38
21.5
17.92
13.37
8.86
5.55
4.52
6.45
11.41
18.79
27.41
35.69
42.13
45.68
46.04
43.67
39.62
35.21
31.73
30.18
31.09
34.46
39.74
45.9
51.72
55.94
57.61
56.25
51.83
44.74
35.67
25.32
14.41
3.53
-6.82
-16.16
-24.2
-30.89
-36.48
-41.5
-46.52
-51.86
-57.4
-62.51
-66.19
-67.38
-65.26
-59.49
-50.33
-38.59
-25.44
-12.21
-0.08
10.13
17.97
23.31
26.17
26.62
24.83
21.18
16.41
11.57
7.8
5.89
6.08
7.96
10.64
13.15
14.71
14.88
13.53
10.73
6.74
2.04
-2.55
-6.01
-7.24
-5.54
-0.93
5.74
13.11
19.67
24.36
26.85
27.49
27.02
26.19
25.49
25.0
24.59
24.04
23.35
22.72
22.47
22.77
23.46
23.9
23.2
20.45
15.09
7.24
-2.33
-12.26
-20.95
-26.87
-28.96
-26.82
-20.8
-11.9
-1.49
9.01
18.41
25.9
31.07
33.82
34.24
32.57
29.15
24.42
18.87
13.11
7.73
3.34
0.37
-1.09
-1.3
-0.95
-0.95
-2.18
-5.13
-9.73
-15.3
-20.74
-24.81
-26.53
-25.4
-21.46
-15.27
-7.64
0.54
8.5
15.62
21.32
25.06
26.3
24.62
19.92
12.61
3.56
-6.0
-14.85
-22.08
-27.31
-30.73
-32.93
-34.65
-36.51
-38.86
-41.65
-44.41
-46.31
-46.33
-43.59
-37.68
-28.86
-18.05
-6.54
4.44
14.04
21.88
28.03
32.7
36.08
38.17
38.93
38.29
36.33
33.29
29.5
25.36
21.22
17.23
13.38
9.4
4.94
-0.28
-6.24
-12.55
-18.45
-23.05
-25.59
-25.7
-23.52
-19.61
-14.72
-9.59
-4.72
-0.45
3.05
5.52
6.68
6.27
4.24
0.86
