2013-02-24 11:47:55
64.0
-0.0
-0.0
-0.0
-0.0
-0.0
-0.0
-0.0
-0.0
-0.0
-0.0
0.0
0.01
0.01
-0.0
-0.03
-0.05
-0.05
0.0
0.13
0.36
0.66
1.01
1.37
1.72
2.06
2.4
2.79
3.24
3.8
4.42
5.06
5.66
6.2
6.68
7.15
7.68
8.31
9.14
10.09
11.04
11.88
12.56
13.14
13.76
14.65
15.96
17.91
20.32
22.9
25.38
27.58
29.57
31.68
34.32
37.81
42.54
48.15
54.1
59.83
64.97
69.58
74.14
79.34
85.71
93.76
103.0
112.62
121.73
129.77
136.75
143.3
150.75
157.77
166.64
177.95
191.79
206.97
220.57
228.25
225.36
208.53
176.87
132.76
80.05
23.07
-34.94
-92.44
-149.16
-205.23
-260.37
-313.74
-363.87
-409.83
-450.91
-486.5
-515.74
-537.23
-549.22
-549.96
-538.37
-514.21
-478.67
-433.88
-382.45
-327.02
-269.84
-212.63
-156.66
-102.95
-52.37
-5.9
35.58
71.43
101.35
125.5
144.38
158.69
169.15
176.37
180.75
182.57
182.07
179.51
175.23
169.65
163.18
156.15
148.81
141.3
133.69
126.02
118.33
110.69
103.16
95.8
88.68
81.83
75.25
68.95
62.95
57.25
51.86
46.78
42.03
37.59
33.45
29.61
26.07
22.81
19.83
17.11
14.67
12.48
10.54
8.83
7.35
6.07
4.97
4.05
3.27
2.62
2.09
1.65
1.3
1.01
0.79
0.61
0.47
0.37
0.29
0.23
0.2
0.17
0.16
0.16
0.18
0.19
0.22
0.25
0.29
0.33
0.37
0.41
0.46
0.51
0.56
0.61
0.66
0.72
0.78
0.84
0.91
0.99
1.08
1.18
1.28
1.41
1.54
1.69
1.86
2.05
2.26
2.5
2.76
3.04
3.36
3.7
4.08
4.49
4.94
5.43
5.95
6.51
7.11
7.76
8.45
9.18
9.96
10.79
11.66
12.57
13.53
14.55
15.64
16.79
17.99
19.26
20.55
21.82
23.01
24.03
24.76
25.08
24.88
24.02
22.47
20.17
17.18
13.54
9.4
4.94
0.37
-4.1
-8.24
-11.88
-14.88
-17.14
-18.64
-19.38
-19.45
-18.93
-17.93
-16.56
-14.91
-13.1
-11.19
-9.26
-7.33
-5.46
-3.67
-1.93
-0.21
1.55
3.38
5.28
7.28
9.42
11.57
13.74
15.94
18.22
20.62
23.17
25.86
28.72
31.79
34.89
37.97
41.11
44.43
48.02
51.91
56.03
60.29
64.72
68.89
72.76
76.48
80.34
84.51
89.0
93.63
98.06
102.08
104.99
106.61
107.08
106.64
105.25
102.33
96.52
85.53
71.48
54.69
35.75
15.51
-5.05
-25.17
-44.56
-63.36
-82.05
-101.23
-122.19
-145.89
-172.58
-201.41
-230.07
-254.96
-272.06
-278.22
-272.3
-256.18
-233.47
-208.3
-183.92
-161.99
-142.72
-125.58
-110.18
-96.51
-85.12
-76.21
-69.33
-63.42
-57.27
-49.98
-41.27
-31.48
-21.29
-11.45
-2.32
6.11
14.02
21.52
28.52
34.72
39.78
43.54
46.03
47.58
48.6
49.46
50.4
51.43
52.41
53.09
53.29
52.89
51.94
50.61
49.17
47.91
47.03
46.51
46.02
44.96
42.62
38.39
32.07
23.96
14.83
5.61
-2.91
-10.37
-16.82
-22.52
-27.64
-32.05
-35.37
-37.22
-37.6
-36.89
-35.73
-34.6
-33.44
-31.59
-28.1
-22.27
-14.12
-4.52
5.15
13.55
19.86
23.95
26.22
27.2
27.24
26.51
25.08
23.14
21.04
19.26
18.06
17.51
17.34
17.17
16.75
16.03
15.17
14.38
13.73
13.14
12.42
11.42
10.12
8.63
7.09
5.58
4.12
2.73
1.41
0.19
-0.93
-2.01
-3.11
-4.33
-5.68
-7.11
-8.58
-10.09
-11.75
-13.73
-16.19
-19.23
-22.71
-26.28
-29.32
-31.16
-31.27
-29.44
-25.96
-21.42
-16.59
-12.08
-8.18
-4.91
-2.09
0.48
2.93
5.31
7.57
9.58
11.16
12.09
12.23
11.55
10.25
8.66
7.08
5.61
4.04
1.95
-1.08
-5.29
-10.47
-16.2
-21.98
-27.55
-33.04
-38.82
-45.29
-52.61
-60.64
-69.01
-77.29
-85.12
-92.18
-98.18
-102.93
-106.67
-110.19
-114.97
-122.69
-134.5
-150.14
-167.42
-182.51
-190.88
-188.88
-175.07
-150.85
-119.96
-86.95
-55.55
-27.49
-2.47
20.89
43.78
66.45
88.34
108.89
128.35
147.8
168.32
189.94
211.14
229.28
241.91
248.09
248.78
246.31
242.96
239.75
236.06
230.28
220.98
207.92
192.26
175.95
160.71
147.11
134.36
120.79
104.83
85.88
64.86
43.85
25.32
11.07
1.5
-4.39
-8.45
-12.66
-18.32
-25.87
-35.16
-45.79
-57.32
-68.98
-79.27
-85.95
-86.5
-79.18
-63.87
-42.24
-17.09
8.65
32.58
52.93
68.24
77.08
78.24
71.26
56.99
37.52
15.56
-6.62
-27.53
-46.16
-61.26
-71.26
-75.06
-73.21
-68.59
-65.76
-69.0
-79.81
-95.39
-109.32
-114.41
-105.92
-83.49
-50.9
-14.19
20.31
48.11
67.77
80.87
90.69
100.81
114.07
131.97
154.18
177.45
196.73
207.55
207.89
198.08
179.76
155.05
126.19
95.47
63.54
30.76
-0.97
-27.13
-42.84
-44.99
-33.6
-12.15
13.01
31.34
31.41
5.32
-48.13
-124.8
-217.0
-315.04
-408.33
-472.56
-485.0
-440.5
-357.69
-264.81
-183.77
-123.4
-82.02
-52.9
-28.69
-6.58
13.26
30.08
47.31
67.65
90.59
111.88
125.74
128.12
116.82
93.47
62.2
33.7
16.41
12.6
19.17
31.01
44.22
54.9
59.65
55.56
42.64
22.22
-1.75
-22.72
-33.34
-27.7
-5.32
29.35
67.99
102.51
126.05
134.39
126.47
101.04
60.41
8.38
-49.53
-108.14
-158.44
-191.1
-201.96
-194.3
-175.94
-153.29
-134.22
-116.93
-99.21
-80.14
-60.96
-43.95
-28.93
-14.98
0.81
21.21
47.76
78.08
107.54
130.95
144.91
149.49
147.65
143.65
140.26
138.13
135.11
128.66
116.95
99.55
77.41
52.3
26.78
3.58
-14.3
-24.84
-27.06
-21.76
-11.39
0.8
11.85
20.47
27.24
34.32
44.07
58.24
77.1
99.32
122.24
142.48
156.74
162.5
158.63
145.63
125.46
100.82
74.02
46.16
17.01
-14.23
-47.72
-82.2
-114.97
-142.81
-163.31
-175.76
-181.16
-181.39
-178.22
-172.82
-165.9
-158.25
-151.1
-145.81
-143.19
-142.82
-142.99
-141.31
-135.71
-125.18
-110.05
-91.67
-71.83
-52.15
-33.79
-17.4
-3.18
8.97
19.33
28.31
36.31
43.62
50.37
56.49
61.65
65.44
67.4
67.27
65.18
61.66
57.52
53.5
49.98
46.84
43.65
39.86
35.18
29.62
23.44
17.0
10.58
4.35
-1.48
-6.71
-11.13
-14.64
-17.32
-19.43
-21.26
-22.96
-24.44
-25.39
-25.45
-24.44
-22.46
-19.88
-17.18
-14.79
-12.89
-11.38
-10.0
-8.55
-6.95
-5.35
-3.89
-2.68
-1.66
-0.68
0.41
1.55
2.47
2.82
2.4
1.29
-0.15
-1.44
-2.22
-2.42
-2.26
-2.16
-2.47
-3.34
-4.67
-6.15
-7.47
-8.42
-9.07
-9.63
-10.48
-11.93
-14.13
-16.99
-20.15
-23.1
-25.29
-26.33
-26.04
-24.46
-21.82
-18.43
-14.59
-10.54
-6.47
-2.54
1.12
4.47
7.55
10.47
13.35
16.19
18.84
20.96
22.23
22.46
21.75
20.45
19.02
17.85
17.04
16.47
15.91
15.21
14.38
13.57
12.83
12.12
11.21
9.86
8.0
5.78
3.51
1.48
-0.26
-1.83
-3.61
-5.93
-8.98
-12.61
-16.43
-19.82
-22.2
-23.17
-22.66
-20.92
-18.35
-15.33
-12.04
-8.45
-4.42
0.15
5.13
10.26
15.12
19.36
22.73
25.13
26.55
27.06
26.74
25.71
24.08
22.0
19.65
17.24
14.97
13.0
11.41
10.19
9.2
8.3
7.41
6.5
5.63
4.92
4.39
4.04
3.74
3.26
2.34
0.65
-2.03
-5.74
-10.2
-14.89
-19.02
-21.89
-22.97
-22.15
-19.67
-16.05
-11.87
-7.64
-3.7
-0.21
2.82
5.4
7.54
9.23
10.42
11.04
11.07
10.56
9.67
8.61
7.57
6.71
6.1
5.76
5.71
6.0
6.62
7.54
8.55
9.38
9.74
9.41
8.34
6.63
4.48
2.08
-0.4
-2.91
-5.46
-8.09
-10.95
-14.17
-17.89
-22.12
-26.67
-31.12
-34.86
-37.29
-37.94
-36.66
-33.69
-29.52
-24.79
-20.1
-15.82
-12.09
-8.84
-5.89
-3.11
-0.51
1.78
3.53
4.54
4.78
4.43
3.81
3.37
3.49
4.39
6.04
8.31
10.87
13.42
15.69
17.52
18.87
19.77
20.29
20.42
20.14
19.41
18.19
16.51
14.45
12.13
9.66
7.09
4.46
1.75
-1.02
-3.88
-6.81
-9.82
-12.89
-15.88
-18.51
-20.43
-21.27
-20.8
-18.98
-16.05
-12.43
-8.57
-4.84
-1.49
1.44
3.95
6.15
8.08
9.79
11.24
12.4
13.23
13.74
13.99
14.1
14.17
14.31
14.53
14.84
15.26
15.79
16.44
17.15
17.74
17.97
17.55
16.31
14.25
11.55
8.55
5.59
2.9
0.58
-1.44
-3.35
-5.31
-7.4
-9.54
-11.54
-13.13
-14.01
-13.93
-12.78
-10.59
-7.58
-4.1
-0.51
2.89
5.96
8.69
11.1
13.18
14.85
15.93
16.34
16.11
15.42
14.54
13.69
12.99
12.48
12.11
11.9
11.85
11.93
12.1
12.28
12.37
12.29
12.04
11.57
10.87
9.92
8.78
7.57
6.42
5.35
4.29
3.0
1.22
-1.21
-4.26
-7.75
-11.45
-15.11
-18.54
-21.52
-23.79
-25.05
-25.05
-23.72
-21.23
-17.92
-14.23
-10.52
-7.0
-3.73
-0.69
2.17
4.87
7.34
9.49
11.19
12.36
12.96
13.07
12.8
12.22
11.39
10.29
8.96
7.44
5.93
4.64
3.73
3.23
3.01
2.83
2.45
1.72
0.63
-0.7
-2.11
-3.53
-4.98
-6.62
-8.64
-11.2
-14.33
-17.89
-21.62
-25.14
-28.13
-30.24
-31.19
-30.8
-28.98
-25.88
-21.81
-17.28
-12.81
-8.76
-5.29
-2.3
0.41
3.01
5.52
7.85
9.89
11.57
12.9
13.95
14.79
15.4
15.79
15.89
15.72
15.32
14.8
14.25
13.74
13.26
12.75
12.13
11.36
10.4
9.23
7.78
6.03
3.91
1.49
-1.08
-3.61
-5.95
-8.14
-10.35
-12.86
-15.78
-19.0
-22.16
-24.76
-26.31
-26.56
-25.5
-23.33
-20.41
-17.05
-13.55
-10.07
-6.7
-3.47
-0.35
2.58
5.26
7.61
9.58
11.2
12.55
13.76
14.91
16.01
17.0
17.82
18.41
18.79
19.01
19.19
19.39
19.64
19.86
19.93
19.65
18.87
17.51
15.58
13.19
10.48
7.57
4.53
1.35
-2.04
-5.71
-9.64
-13.65
-17.38
-20.33
-22.02
-22.19
-20.84
-18.29
-14.93
-11.16
-7.19
-3.15
0.84
4.55
7.68
9.95
11.26
11.74
11.67
11.36
10.99
10.61
10.18
9.66
9.03
8.38
7.74
7.15
6.62
6.14
5.68
5.21
4.64
3.83
2.68
1.16
-0.61
-2.45
-4.15
-5.62
-6.94
-8.4
-10.31
-12.91
-16.18
-19.82
-23.25
-25.82
-26.98
-26.5
-24.47
-21.24
-17.29
-13.07
-8.87
-4.85
-1.09
2.43
5.7
8.68
11.31
13.42
14.81
15.32
14.95
13.91
12.61
11.43
10.65
10.28
10.12
9.91
9.51
8.9
8.19
7.45
6.69
5.82
4.74
3.44
2.0
0.58
-0.7
-1.76
-2.6
-3.32
-4.08
-5.07
-6.51
-8.59
-11.36
-14.71
-18.28
-21.55
-23.93
-24.9
-24.16
-21.72
-17.9
-13.2
-8.2
-3.36
1.03
4.9
8.3
11.35
14.11
16.6
18.82
20.71
22.23
23.29
23.81
23.73
23.02
21.72
19.98
18.0
16.0
14.17
12.64
11.47
10.62
10.01
9.47
8.76
7.68
6.13
4.14
1.92
-0.26
-2.17
-3.7
-4.91
-5.98
-7.16
-8.63
-10.48
-12.67
-15.15
-17.77
-20.31
-22.51
-23.99
-24.44
-23.67
-21.72
-18.89
-15.6
-12.31
-9.29
-6.64
-4.24
-1.96
0.31
2.52
4.51
6.07
7.07
7.5
7.52
7.37
7.24
7.27
7.39
7.5
7.45
7.24
6.95
6.75
6.75
6.92
7.03
6.76
5.78
3.92
1.31
-1.76
-4.88
-7.74
-10.25
-12.57
-15.01
-17.84
-21.14
-24.74
-28.2
-30.97
-32.54
-32.62
-31.14
-28.27
-24.36
-19.79
-14.91
-9.99
-5.27
-0.98
2.66
5.43
7.27
8.27
8.67
8.78
8.85
8.96
9.03
8.92
8.55
7.99
7.38
6.94
6.78
6.91
7.17
7.39
7.34
6.92
6.05
4.72
2.96
0.81
-1.61
-4.16
-6.64
-8.89
-10.87
-12.64
-14.4
-16.43
-18.9
-21.79
-24.87
-27.65
-29.54
-30.08
-29.04
-26.52
-22.89
-18.7
-14.43
-10.44
-6.87
-3.76
-1.01
1.46
3.66
5.57
7.14
8.34
9.18
9.76
10.18
10.5
10.72
10.81
10.7
10.47
10.25
10.24
10.58
11.23
11.93
12.33
12.12
11.11
9.34
6.98
4.33
1.65
-0.86
-3.11
-5.09
-6.89
-8.68
-10.61
-12.76
-15.15
-17.65
-19.98
-21.74
-22.52
-21.96
-19.96
-16.63
-12.38
-7.74
-3.18
0.93
4.47
7.43
9.9
11.91
13.49
14.62
15.36
15.81
16.06
16.24
16.35
16.36
16.19
15.78
15.13
14.32
13.51
12.87
12.5
12.33
12.15
11.67
10.67
9.1
7.12
5.03
3.08
1.36
-0.27
-2.15
-4.67
-8.18
-12.76
-18.22
-24.07
-29.59
-33.95
-36.45
-36.62
-34.47
-30.37
-24.99
-19.09
-13.3
-8.0
-3.31
0.85
4.62
8.17
11.55
14.68
17.33
19.28
20.31
20.41
19.73
18.61
17.39
16.35
15.62
15.09
14.62
14.04
13.32
12.52
11.76
11.08
10.46
9.79
8.92
7.82
6.49
5.0
3.39
1.6
-0.5
-3.08
-6.2
-9.83
-13.89
-18.22
-22.74
-27.37
-31.99
-36.36
-40.07
-42.68
-43.78
-43.16
-40.88
-37.29
-32.88
-28.18
-23.63
-19.49
-15.83
-12.62
-9.85
-7.54
-5.8
-4.72
-4.3
-4.39
-4.72
-5.02
-5.11
-5.01
-4.8
-4.59
-4.39
-4.1
-3.62
-2.83
-1.71
-0.22
1.64
3.95
6.77
10.11
13.93
18.09
22.39
26.52
30.11
32.75
34.16
34.31
33.53
32.44
31.67
31.56
32.06
32.68
32.78
31.79
29.46
25.84
21.26
16.15
11.0
6.35
2.78
0.93
1.4
4.5
10.16
17.78
26.33
34.61
41.61
46.81
50.27
52.52
54.17
55.59
56.74
57.24
56.67
54.84
51.95
48.48
44.94
41.69
38.77
35.97
33.02
29.69
25.95
21.92
17.92
14.2
10.94
8.07
5.34
2.45
-0.73
-4.06
-7.23
-9.91
-12.01
-13.73
-15.53
-17.87
-20.97
-24.8
-29.08
-33.48
-37.68
-41.43
-44.47
-46.5
-47.21
-46.41
-44.11
-40.54
-36.16
-31.42
-26.71
-22.26
-18.1
-14.17
-10.38
-6.67
-3.12
0.14
2.96
5.19
6.8
7.82
8.37
8.62
8.74
8.88
9.16
9.61
10.21
10.86
11.41
11.73
11.73
11.36
10.62
9.52
8.11
6.45
4.65
2.78
0.81
-1.32
-3.76
-6.53
-9.54
-12.57
-15.34
-17.73
-19.8
-21.84
-24.17
-27.02
-30.4
-34.03
-37.46
-40.1
-41.44
-41.11
-39.03
-35.44
-30.82
-25.78
-20.9
-16.55
-12.92
-9.96
-7.52
-5.4
-3.39
-1.42
0.54
2.4
4.08
5.5
6.68
7.67
8.57
9.47
10.5
11.81
13.58
15.91
18.74
21.81
24.73
27.08
28.6
29.31
29.39
29.14
28.74
28.19
27.35
26.03
24.2
21.97
19.67
17.62
16.04
14.87
13.89
12.75
11.25
9.34
7.11
4.7
2.13
-0.59
-3.36
-5.89
-7.72
-8.31
-7.31
-4.64
-0.46
4.89
11.07
17.78
24.75
31.64
38.07
43.67
48.23
51.69
54.13
55.72
56.65
57.08
57.07
56.55
55.2
52.63
48.6
43.37
37.78
33.1
30.42
30.2
31.99
34.6
36.67
37.2
35.71
32.26
27.21
21.02
14.26
7.63
1.84
-2.61
-5.77
-8.2
-10.8
-14.31
-18.94
-24.24
-29.26
-33.02
-34.84
-34.54
-32.36
-28.71
-24.0
-18.53
-12.64
-6.79
-1.6
2.13
3.66
2.42
-1.88
-9.2
-19.11
-30.92
-43.6
-55.98
-66.83
-75.04
-79.79
-80.67
-77.65
-71.13
-61.89
-50.97
-39.56
-28.74
-19.26
-11.42
-5.12
-0.08
4.0
7.22
9.6
11.08
11.64
11.3
10.01
7.66
4.09
-0.86
-7.19
-14.66
-22.76
-30.83
-38.08
-43.84
-47.65
-49.35
-49.13
-47.41
-44.69
-41.41
-37.79
-33.88
-29.63
-25.1
-20.46
-16.08
-12.36
-9.61
-7.86
-6.86
-6.21
-5.46
-4.36
-2.92
-1.44
-0.3
0.2
0.06
-0.47
-1.0
-1.3
-1.38
-1.48
-1.92
-2.86
-4.16
-5.51
-6.55
-7.12
-7.33
-7.47
-7.89
-8.82
-10.34
-12.39
-14.83
-17.38
-19.64
-21.2
-21.7
-20.96
-19.04
-16.15
-12.59
-8.61
-4.46
-0.38
3.34
6.42
8.67
10.07
10.78
11.04
11.03
10.82
10.39
9.66
8.62
7.37
6.05
4.88
3.98
3.4
3.06
2.8
2.41
1.77
0.85
-0.27
-1.5
-2.85
-4.39
-6.27
-8.62
-11.41
-14.55
-17.93
-21.46
-24.99
-28.33
-31.1
-32.79
-32.93
-31.23
-27.71
-22.75
-16.92
-10.84
-5.04
0.13
4.5
8.08
10.96
13.25
15.03
16.34
17.17
17.51
17.41
16.98
16.38
15.79
15.31
14.98
14.75
14.52
14.19
13.62
12.73
11.41
9.62
7.34
4.62
1.65
-1.38
-4.28
-6.95
-9.42
-11.84
-14.42
-17.32
-20.56
-23.98
-27.26
-29.95
-31.57
-31.68
-30.11
-26.88
-22.35
-17.05
-11.55
-6.29
-1.51
2.75
6.59
10.07
13.18
15.85
18.0
19.59
20.62
21.15
21.2
20.83
20.05
18.96
17.65
16.23
14.75
13.25
11.74
10.25
8.8
7.38
5.92
4.29
2.36
0.13
-2.34
-4.93
-7.52
-10.07
-12.66
-15.38
-18.35
-21.71
-25.57
-30.04
-35.03
-40.27
-45.28
-49.48
-52.37
-53.66
-53.35
-51.63
-48.84
-45.34
-41.48
-37.59
-33.97
-30.88
-28.5
-26.93
-26.25
-26.41
-27.29
-28.66
-30.19
-31.52
-32.27
-32.12
-30.79
-28.01
-23.6
-17.5
-9.78
-0.69
9.47
20.34
31.62
43.05
54.41
65.53
76.27
86.54
96.21
105.04
112.62
118.37
121.65
121.98
119.06
112.91
103.76
91.99
78.14
62.96
47.41
32.66
19.84
9.82
2.96
-0.93
-2.47
-2.51
-1.77
-0.74
0.35
1.45
2.53
3.54
4.38
5.03
5.51
5.91
6.31
6.71
7.04
7.15
6.93
6.39
5.61
4.75
3.93
3.2
2.49
1.68
0.65
-0.66
-2.23
-4.04
-6.08
-8.37
-10.95
-13.84
-16.93
-20.0
-22.75
-24.87
-26.2
-26.8
-27.03
-27.41
-28.4
-30.19
-32.61
-35.09
-36.9
-37.41
-36.32
-33.63
-29.63
-24.72
-19.22
-13.43
-7.63
-2.16
2.67
6.64
9.75
12.2
14.26
16.16
17.94
19.5
20.69
21.41
21.7
21.64
21.28
20.6
19.58
18.19
16.5
14.62
12.67
10.68
8.58
6.27
3.68
0.82
-2.2
-5.25
-8.17
-10.89
-13.39
-15.72
-17.93
-20.13
-22.47
-25.07
-28.02
-31.3
-34.65
-37.64
-39.67
-40.16
-38.76
-35.45
-30.59
-24.83
-18.84
-13.1
-7.85
-3.11
1.19
5.12
8.62
11.66
14.17
16.14
17.58
18.45
18.75
18.52
17.9
17.11
16.36
15.78
15.31
14.85
14.3
13.6
12.8
11.91
10.9
9.66
8.06
6.01
3.43
0.32
-3.32
-7.47
-12.0
-16.62
-20.88
-24.22
-26.22
-26.71
-26.04
-25.06
-24.75
-25.93
-28.66
-32.2
-35.15
-35.99
-33.68
-27.95
-19.38
-8.95
2.31
13.59
24.39
34.29
42.91
49.89
55.06
58.54
60.71
62.01
62.79
63.18
63.1
62.37
60.82
58.31
54.78
50.3
45.09
39.64
34.52
30.26
27.03
24.58
22.34
19.67
16.17
11.87
7.07
2.13
-2.75
-7.66
-12.87
-18.6
-24.91
-31.56
-38.1
-43.99
-48.78
-52.22
-54.24
-54.96
-54.62
-53.45
-51.66
-49.46
-47.01
-44.53
-42.27
-40.48
-39.36
-38.97
-39.25
-39.94
-40.66
-40.98
-40.49
-38.98
-36.42
-32.98
-28.9
-24.47
-19.93
-15.54
-11.63
-8.57
-6.68
-6.08
-6.63
-7.91
-9.44
-10.81
-11.79
-12.25
-12.11
-11.16
-9.1
-5.67
-0.78
5.42
12.62
20.47
28.73
37.27
45.94
54.45
62.33
68.94
73.7
76.16
76.27
74.25
70.53
65.51
59.44
52.44
44.58
36.13
27.59
19.69
13.14
8.5
5.91
5.19
5.86
7.38
9.31
11.35
13.33
15.14
16.67
17.75
18.25
18.04
17.06
15.36
13.06
10.35
7.47
4.7
2.41
0.92
0.54
1.41
3.47
6.43
9.85
13.21
16.05
17.98
18.8
18.47
17.11
14.97
12.39
9.66
6.99
4.44
1.94
-0.65
-3.42
-6.36
-9.31
-12.05
-14.34
-16.03
-17.07
-17.53
-17.58
-17.45
-17.35
-17.5
-18.08
-19.25
-21.04
-23.4
-26.16
-29.08
-31.86
-34.23
-35.93
-36.73
-36.38
-34.71
-31.59
-27.07
-21.35
-14.85
-8.14
-1.86
3.45
7.46
10.22
12.1
13.6
15.12
16.75
18.25
19.25
19.45
18.82
17.58
16.02
14.37
12.71
11.04
9.41
7.96
6.89
6.39
6.53
7.19
8.21
9.37
10.5
11.41
11.88
11.72
10.71
8.74
5.84
2.17
-1.95
-6.07
-9.63
-12.12
-13.07
-12.27
-9.71
-5.7
-0.7
4.72
9.97
14.55
18.04
20.13
20.63
19.52
17.03
13.58
9.8
6.28
3.41
1.17
-0.86
-3.25
-6.37
-10.09
-13.81
-16.69
-18.1
-17.9
-16.48
-14.49
-12.48
-10.82
-9.62
-9.0
-9.12
-10.23
-12.42
-15.5
-19.0
-22.28
-24.7
-25.73
-24.96
-22.11
-17.15
-10.26
-1.93
7.17
16.31
24.88
32.46
38.82
43.93
47.76
50.28
51.4
51.05
49.21
46.0
41.71
36.66
31.19
25.55
19.89
14.39
9.26
4.81
1.32
-1.02
-2.21
-2.4
-1.85
-0.85
0.29
1.18
1.42
0.73
-0.96
-3.46
-6.37
-9.37
-12.28
-15.1
-17.89
-20.57
-22.85
-24.36
-24.79
-23.98
-21.95
-18.81
-14.69
-9.73
-4.2
1.47
6.71
10.97
13.91
15.5
15.99
15.74
15.03
14.05
12.83
11.42
9.89
8.38
7.02
5.81
4.64
3.33
1.77
-0.05
-1.92
-3.61
-4.95
-5.97
-6.82
-7.75
-8.92
-10.47
-12.46
-15.02
-18.36
-22.62
-27.78
-33.43
-38.89
-43.28
-45.88
-46.36
-44.87
-41.98
-38.42
-34.86
-31.67
-28.93
-26.47
-24.08
-21.59
-19.01
-16.47
-14.16
-12.22
-10.72
-9.63
-8.87
-8.4
-8.14
-8.05
-8.09
-8.14
-8.12
-7.97
-7.71
-7.45
-7.34
-7.56
-8.22
-9.33
-10.77
-12.39
-14.02
-15.62
-17.31
-19.38
-22.06
-25.32
-28.76
-31.62
-33.04
-32.29
-29.17
-23.95
-17.34
-10.16
-3.15
3.22
8.78
13.55
17.68
21.31
24.61
27.69
30.61
33.39
36.03
38.48
40.72
42.72
44.47
45.93
46.99
47.59
47.66
47.24
46.39
45.16
43.57
41.56
39.15
36.4
33.48
30.59
27.79
24.84
21.29
16.6
10.5
3.1
-5.06
-13.19
-20.56
-26.6
-31.0
-33.59
-34.33
-33.22
-30.4
-26.14
-20.88
-15.09
-9.28
-3.84
0.97
5.05
8.42
11.2
13.53
15.51
17.14
18.4
19.26
19.77
19.98
19.83
19.07
17.38
14.5
10.51
5.82
1.1
-2.98
-6.05
-8.09
-9.37
-10.29
-11.19
-12.26
-13.54
-14.98
-16.54
-18.28
-20.29
-22.8
-25.96
-29.82
-34.2
-38.77
-43.13
-46.89
-49.73
-51.32
-51.36
-49.59
-45.89
-40.41
-33.61
-26.16
-18.73
-11.84
-5.75
-0.51
3.98
7.81
11.03
13.66
15.69
17.13
18.02
18.43
18.47
18.27
17.94
17.6
17.36
17.26
17.3
17.39
17.36
16.98
16.08
14.55
12.43
9.9
7.16
4.47
2.04
-0.02
-1.71
-3.14
-4.56
-6.3
-8.68
-11.86
-15.78
-19.97
-23.71
-26.21
-26.88
-25.51
-22.32
-17.86
-12.7
-7.28
-1.77
3.82
9.51
15.18
20.59
25.4
29.34
32.27
34.21
35.26
35.45
34.83
33.4
31.16
28.24
24.85
21.27
17.76
14.63
12.1
10.32
9.32
8.95
8.89
8.74
8.16
7.01
5.35
3.44
1.52
-0.24
-1.83
-3.28
-4.7
-6.18
-7.81
-9.69
-11.89
-14.33
-16.68
-18.43
-19.04
-18.13
-15.71
-12.23
-8.33
-4.62
-1.41
1.32
3.83
6.35
8.89
11.18
12.79
13.38
12.84
11.44
9.68
8.07
6.99
6.52
6.49
6.65
6.71
6.49
5.87
4.84
3.4
1.64
-0.28
-2.21
-4.0
-5.59
-7.02
-8.41
-9.82
-11.3
-12.85
-14.52
-16.38
-18.59
-21.27
-24.38
-27.64
-30.61
-32.78
-33.69
-33.08
-30.95
-27.37
-22.58
-16.84
-10.46
-3.8
2.72
8.72
13.85
17.9
20.81
22.63
23.51
23.62
23.18
22.38
21.34
20.16
18.85
17.41
15.82
14.1
12.27
10.39
8.52
6.68
4.79
2.77
0.5
-2.06
-4.84
-7.69
-10.4
-12.87
-15.1
-17.3
-19.75
-22.67
-26.09
-29.73
-33.04
-35.3
-35.86
-34.36
-30.84
-25.77
-19.91
-14.08
-8.95
-4.91
-2.14
-0.6
-0.25
-0.98
-2.61
-4.89
-7.5
-10.23
-13.01
-16.0
-19.43
-23.51
-28.23
-33.36
-38.52
-43.39
-47.9
-52.26
-56.9
-62.28
-68.67
-76.09
-84.32
-93.01
-101.92
-110.99
-120.33
-130.2
-140.71
-151.79
-163.13
-174.22
-184.47
-193.3
-200.18
-204.65
-206.34
-205.12
-201.2
-195.17
-187.8
-179.8
-171.5
-162.68
-152.73
-140.96
-127.0
-111.06
-93.81
-76.12
-58.56
-40.96
-22.45
-1.79
21.94
48.81
77.92
107.85
137.38
165.96
193.75
221.08
247.75
272.76
294.57
311.87
324.23
332.19
336.75
338.57
337.54
332.85
323.77
310.38
293.92
276.42
259.83
245.23
232.42
220.16
207.01
192.1
175.56
158.36
141.66
126.26
112.26
99.12
85.99
72.1
57.06
41.16
25.57
12.3
3.73
1.64
6.31
15.92
26.82
34.85
36.93
32.33
22.87
11.98
3.2
-1.31
-1.39
1.39
4.66
6.33
5.32
1.73
-3.63
-9.81
-16.31
-23.16
-30.7
-39.03
-47.8
-56.17
-63.17
-68.12
-70.88
-71.77
-71.24
-69.62
-66.96
-63.16
-58.31
-52.76
-47.08
-41.57
-35.93
-29.08
-19.49
-5.93
11.83
32.67
54.31
74.09
89.87
100.65
106.69
109.17
109.54
109.05
108.51
108.26
108.21
107.74
105.67
100.44
90.7
76.2
58.36
40.17
25.17
16.06
13.73
17.09
23.89
31.76
38.87
43.96
46.01
44.1
37.77
27.55
15.15
3.01
-6.77
-13.36
-17.43
-20.51
-24.09
-28.96
-35.18
-42.55
-50.98
-60.58
-71.43
-83.26
-95.31
-106.56
-116.05
-123.23
-128.06
-130.99
-132.67
-133.73
-134.61
-135.39
-135.93
-135.98
-135.34
-134.03
-132.22
-130.17
-128.1
-126.07
-124.03
-121.87
-119.58
-117.29
-115.24
-113.6
-112.39
-111.29
-109.71
-106.95
-102.5
-96.21
-88.33
-79.34
-69.83
-60.21
-50.73
-41.53
-32.68
-24.36
-16.8
-10.25
-4.93
-0.95
1.76
3.42
4.44
5.24
6.17
7.37
8.73
9.99
10.88
11.31
11.34
11.15
10.9
10.65
10.32
9.77
8.88
7.54
5.65
3.12
-0.12
-3.99
-8.21
-12.28
-15.55
-17.41
-17.46
-15.62
-12.14
-7.47
-2.18
3.24
8.41
13.04
16.94
19.96
21.98
22.93
22.88
21.96
20.4
18.44
16.24
13.91
11.46
8.93
6.34
3.76
1.27
-1.07
-3.26
-5.34
-7.38
-9.45
-11.62
-13.91
-16.34
-18.93
-21.71
-24.77
-28.23
-32.19
-36.61
-41.21
-45.43
-48.49
-49.63
-48.32
-44.5
-38.64
-31.54
-24.15
-17.21
-11.1
-5.8
-1.1
3.22
7.21
10.68
13.35
14.96
15.47
15.07
14.18
13.22
12.47
11.98
11.62
11.19
10.56
9.76
8.85
7.94
7.0
5.98
4.85
3.66
2.55
1.69
1.09
0.63
0.08
-0.74
-1.94
-3.48
-5.35
-7.66
-10.55
-14.04
-17.84
-21.24
-23.32
-23.2
-20.36
-14.89
-7.42
1.06
9.44
16.83
22.62
26.62
29.01
30.21
30.7
30.85
30.79
30.36
29.29
27.37
24.53
20.96
16.93
12.73
8.62
4.85
1.73
-0.34
-0.97
0.03
2.53
6.05
9.92
13.55
16.65
19.27
21.71
24.29
27.06
29.76
31.91
33.02
32.77
31.15
28.42
25.05
21.6
18.68
16.79
16.27
17.12
19.01
21.33
23.37
24.6
24.77
23.96
22.38
20.27
17.74
14.83
11.57
8.09
4.63
1.42
-1.31
-3.43
-4.84
-5.57
-5.65
-5.24
-4.53
-3.79
-3.23
-2.95
-2.99
-3.31
-3.88
-4.68
-5.79
-7.32
-9.38
-12.11
-15.59
-19.89
-25.0
-30.77
-36.89
-42.91
-48.36
-52.9
-56.4
-58.91
-60.5
-61.08
-60.29
-57.58
-52.41
-44.63
-34.56
-23.1
-11.4
-0.61
8.47
15.48
20.49
23.79
25.75
26.68
26.73
25.96
24.41
22.12
19.3
16.22
13.17
10.4
7.93
5.5
2.7
-0.94
-5.73
-11.66
-18.43
-25.58
-32.62
-39.17
-44.99
-49.99
-54.17
-57.68
-60.72
-63.52
-66.14
-68.38
-69.72
-69.45
-66.79
-61.18
-52.4
-40.6
-26.26
-10.05
7.25
24.77
41.53
56.6
69.23
79.11
86.58
92.48
97.91
103.6
109.57
114.94
118.34
118.49
114.83
107.71
98.19
87.36
75.8
63.37
49.56
33.95
16.72
-1.29
-18.55
-33.18
-43.12
-46.64
-43.06
-33.47
-21.05
-10.63
-7.28
-14.56
-33.03
-59.78
-89.45
-116.04
-134.92
-144.24
-145.27
-141.71
-138.06
-137.61
-140.9
-145.18
-145.47
-136.75
-116.35
-85.29
-47.67
-8.9
26.73
57.4
83.67
107.43
130.68
154.93
181.23
210.09
241.14
272.55
300.83
321.56
330.76
326.13
307.56
276.81
236.71
190.58
142.04
95.0
53.41
20.35
-2.91
-17.38
-25.86
-31.7
-37.43
-43.96
-50.84
-57.09
-61.96
-65.5
-68.27
-70.91
-73.66
-76.19
-77.78
-77.77
-75.85
-72.15
-67.21
-61.72
-56.24
-51.09
-46.3
-41.77
-37.45
-33.47
-30.16
-27.92
-27.02
-27.45
-28.82
-30.57
-32.11
-32.96
-32.8
-31.52
-29.14
-25.79
-21.79
-17.51
-13.38
-9.8
-6.99
-5.0
-3.71
-2.85
-2.03
-0.88
0.77
2.87
5.14
7.35
9.43
11.64
14.24
17.32
20.54
23.34
25.32
26.64
28.1
30.75
35.33
41.7
48.93
55.62
60.66
63.59
64.7
64.71
64.26
63.56
62.37
60.18
56.55
51.42
45.16
38.51
32.29
27.2
23.64
21.69
21.09
21.33
21.72
21.57
20.43
18.33
15.85
13.97
13.62
15.26
18.66
23.11
27.88
32.67
37.7
43.36
49.86
56.88
63.72
69.69
74.49
78.07
80.37
80.85
78.62
72.97
64.05
53.26
42.81
34.8
30.03
27.74
26.06
22.95
17.13
8.51
-1.97
-13.02
-23.66
-33.81
-43.91
-54.23
-64.31
-72.89
-78.27
-79.12
-75.32
-68.22
-60.71
-55.9
-55.75
-60.41
-68.38
-77.29
-84.86
-89.51
-90.43
-88.4
-84.05
-77.12
-66.71
-52.17
-33.96
-13.51
7.44
27.63
43.83
53.34
54.81
48.81
37.38
23.17
8.65
-4.81
-17.16
-33.55
-58.25
-91.16
-127.05
-158.74
-181.63
-195.89
-205.76
-215.8
-233.66
-262.9
-301.94
-345.7
-389.34
-430.43
-467.87
-500.41
-497.67
-441.96
-337.2
-209.49
-89.31
5.3
71.52
115.63
141.47
156.81
159.67
145.91
114.1
68.08
15.2
-37.11
-79.67
-107.01
-116.51
-113.19
-103.78
-93.45
-84.07
-75.15
-65.66
-54.71
-42.15
-27.26
-12.24
0.58
9.44
13.35
11.61
3.5
-10.88
-30.18
-50.9
-69.64
-82.55
-85.94
-77.08
-55.25
-21.95
19.66
65.76
113.42
160.6
207.02
253.77
302.44
353.72
406.47
457.5
502.17
535.93
555.52
559.89
550.29
529.41
500.4
466.09
428.51
388.92
347.87
305.44
261.44
215.48
167.1
115.84
61.75
6.1
-48.17
-96.65
-135.04
-161.14
-176.36
-185.58
-195.17
-210.12
-231.93
-258.46
-285.89
-311.22
-333.89
-355.3
-376.84
-398.06
-416.15
-427.27
-428.58
-419.47
-401.45
-376.95
-347.89
-315.12
-278.71
-238.72
-195.68
-150.47
-103.8
-55.69
-5.63
46.94
101.77
157.3
210.83
259.51
301.63
337.36
368.57
397.32
424.25
447.46
462.98
466.61
456.17
432.9
400.96
365.51
330.38
296.81
263.94
230.38
195.77
161.19
128.42
98.84
72.61
48.9
26.57
4.92
-15.98
-35.41
-52.61
-67.26
-79.85
-91.64
-104.42
-119.92
-139.17
-162.03
-186.85
-210.76
-230.23
-242.01
-243.91
-235.29
-217.14
-191.72
-162.02
-131.05
-101.46
-75.08
-52.91
-35.09
-21.09
-9.93
-0.46
8.5
18.01
28.91
41.86
57.32
75.46
96.06
118.24
140.4
160.33
175.82
185.27
188.5
187.02
183.46
180.58
180.03
181.61
183.47
183.07
178.2
167.73
151.65
130.62
105.62
77.88
48.96
20.82
-4.55
-25.7
-42.28
-55.05
-65.37
-74.38
-82.45
-89.27
-94.28
-97.27
-98.57
-98.91
-98.94
-98.94
-98.82
-98.36
-97.56
-96.67
-96.02
-95.76
-95.66
-95.18
-93.75
-91.04
-87.26
-83.0
-79.1
-76.24
-74.75
-74.54
-75.22
-76.4
-77.88
-79.77
-82.36
-85.85
-90.21
-95.12
-100.17
-105.04
-109.65
-114.26
-119.19
-124.7
-130.87
-137.48
-144.01
-149.54
-152.83
-152.42
-147.1
-136.19
-119.89
-99.14
-75.37
-50.06
-24.51
0.25
23.31
43.74
60.65
73.25
81.3
85.25
86.18
85.61
84.99
85.39
87.4
91.2
96.84
104.39
113.86
124.92
136.66
147.64
156.21
161.1
161.75
158.35
151.5
141.74
129.29
114.01
95.47
73.06
46.09
14.08
-23.05
-64.66
-109.06
-153.59
-194.84
-229.23
-253.66
-266.23
-266.67
-256.48
-238.76
-217.33
-195.97
-177.37
-162.63
-151.11
-140.79
-128.86
-112.23
-88.19
-54.99
-12.64
36.49
87.59
134.29
170.18
190.55
193.8
181.61
157.95
127.15
92.25
54.23
12.8
-32.11
-78.89
-123.84
-162.08
-189.32
-203.42
-205.05
-197.11
-183.3
-166.67
-148.85
-130.02
-109.49
-86.35
-60.1
-31.03
-0.43
29.56
56.34
77.61
92.12
99.85
101.83
99.54
94.28
87.06
78.69
70.14
62.65
57.44
55.27
56.16
59.46
64.16
69.28
74.07
78.0
80.73
82.06
82.04
80.99
79.5
78.08
77.06
76.34
75.67
74.85
74.11
74.26
76.72
83.08
94.53
111.3
132.4
155.63
178.15
196.9
209.12
212.71
206.69
191.79
170.88
148.62
130.25
119.52
116.98
119.44
121.35
117.19
104.01
82.46
56.03
28.96
4.33
-16.88
-35.38
-52.27
-68.12
-82.75
-95.76
-107.16
-117.5
-127.49
-137.31
-146.17
-152.43
-154.43
-151.3
-143.42
-132.42
-120.39
-109.19
-99.8
-92.31
-86.16
-80.64
-75.22
-69.68
-64.05
-58.55
-53.44
-48.99
-45.32
-42.41
-40.09
-38.1
-36.18
-34.26
-32.4
-30.75
-29.43
-28.41
-27.53
-26.68
-25.86
-25.41
-25.81
-27.59
-31.07
-36.16
-42.27
-48.46
-53.64
-56.81
-57.32
-54.91
-49.64
-41.81
-31.82
-20.18
-7.52
5.35
17.6
28.43
37.24
43.7
47.66
49.2
48.74
47.15
46.04
47.62
54.1
66.84
85.61
108.36
131.72
152.11
166.86
174.82
176.43
173.2
166.99
159.59
152.45
146.72
143.2
142.21
143.34
145.72
148.27
150.02
150.17
148.16
143.69
136.67
127.05
114.48
98.57
79.22
56.87
32.61
8.11
-14.77
-34.41
-49.84
-61.47
-70.25
-77.04
-82.5
-87.14
-91.43
-95.72
-100.07
-104.2
-109.08
-115.2
-122.08
-128.57
-133.71
-137.17
-139.21
-140.37
-141.31
-145.46
-154.75
-168.16
-182.64
-195.31
-205.11
-212.7
-219.25
-225.5
-235.92
-252.4
-272.77
-292.68
-308.56
-319.63
-327.05
-332.53
-337.62
-349.68
-373.38
-407.51
-446.13
-481.87
-509.54
-527.05
-535.28
-498.7
-405.19
-271.53
-132.89
-17.93
64.37
118.47
152.99
175.48
191.04
196.78
189.35
173.02
154.86
141.43
135.72
137.55
145.21
156.8
166.3
170.54
171.84
172.55
176.3
184.84
198.18
215.55
236.06
255.78
271.54
282.14
287.4
287.62
282.62
272.48
258.36
242.33
225.16
207.46
189.89
172.84
156.76
141.71
127.73
114.95
103.35
92.12
80.35
67.6
54.0
40.41
27.93
17.44
9.42
3.76
-0.25
-3.52
-6.92
-11.08
-16.12
-21.74
-27.48
-33.07
-38.6
-44.51
-51.16
-58.67
-66.71
-74.48
-80.86
-84.7
-85.13
-81.73
-74.62
-64.1
-50.85
-35.89
-20.44
-5.56
8.02
19.93
30.01
38.14
45.09
51.47
57.37
62.4
66.13
68.62
70.23
71.46
72.52
75.11
80.28
87.81
96.27
104.05
110.34
114.99
118.05
119.43
121.41
125.58
131.58
137.46
141.6
144.33
147.74
154.46
166.23
186.48
216.32
253.07
291.14
324.92
351.32
370.09
382.77
367.64
313.33
225.08
122.83
27.6
-49.67
-107.78
-150.09
-180.56
-200.37
-210.45
-212.06
-209.58
-210.06
-219.78
-240.53
-268.96
-298.64
-318.82
-319.0
-293.39
-243.34
-176.66
-104.64
-38.97
9.94
34.47
31.55
5.05
-35.35
-77.83
-112.64
-135.09
-146.1
-150.59
-153.87
-158.21
-161.42
-158.61
-145.8
-122.78
-93.17
-62.4
-35.07
-13.12
4.48
20.36
36.96
55.17
74.51
94.34
114.96
137.38
162.17
188.06
211.3
226.9
230.58
220.59
198.46
168.27
134.98
102.81
74.23
49.84
28.93
9.93
-8.98
-29.68
-53.97
-83.52
-119.55
-162.37
-210.5
-260.05
-305.0
-338.6
-355.65
-354.46
-337.31
-309.22
-275.51
-239.82
-203.71
-167.83
-133.79
-104.86
-84.99
-76.57
-78.55
-86.25
-93.31
-94.56
-88.19
-76.06
-62.29
-50.79
-43.47
-39.82
-37.67
-34.51
-28.6
-19.28
-6.78
8.05
23.95
39.23
51.94
60.26
63.17
60.76
54.21
45.2
35.29
25.55
16.66
9.16
3.49
-0.31
-2.91
-5.77
-10.53
-18.1
-27.92
-38.04
-46.08
-50.41
-51.04
-49.42
-47.7
-47.46
-49.13
-51.83
-53.86
-53.23
-48.06
-36.85
-18.96
4.78
31.55
56.61
74.44
80.64
73.83
56.62
34.92
15.82
4.99
4.66
13.3
27.0
41.71
55.27
68.06
82.06
99.07
119.15
140.34
159.55
174.23
183.45
187.96
189.17
187.94
183.78
175.38
161.57
142.45
119.77
96.44
75.54
59.39
49.12
44.65
45.05
48.86
54.59
60.92
66.95
72.18
76.28
78.83
79.13
76.35
69.81
59.41
45.85
30.56
15.25
1.36
-10.31
-19.82
-27.74
-34.78
-41.28
-47.02
-51.4
-53.76
-53.83
-51.97
-49.09
-46.23
-44.26
-43.51
-43.83
-44.76
-45.85
-46.82
-47.64
-48.43
-49.27
-50.28
-51.56
-53.28
-55.61
-58.52
-61.57
-63.9
-64.39
-62.1
-56.69
-48.56
-38.72
-28.29
-18.07
-8.39
0.76
9.46
17.54
24.61
30.31
34.48
37.21
38.76
39.28
38.8
37.26
34.7
31.38
27.8
24.52
22.12
21.0
21.31
22.83
25.0
26.98
27.85
27.01
24.31
20.22
15.47
10.76
6.44
2.47
-1.51
-5.83
-10.71
-16.16
-22.15
-28.57
-35.25
-41.78
-47.44
-51.27
-52.12
-49.33
-42.95
-33.95
-23.76
-13.77
-4.69
3.38
10.67
17.49
23.74
28.84
32.1
33.19
32.4
30.66
28.98
27.85
27.45
27.39
26.93
25.38
22.52
18.64
14.9
12.69
13.06
17.58
26.82
39.79
54.0
66.53
74.63
77.78
76.64
72.33
68.21
66.83
68.69
72.13
74.65
73.49
69.11
63.01
56.77
55.33
62.64
79.49
102.91
127.84
148.02
162.19
171.5
178.54
191.16
215.98
254.59
302.69
353.1
397.42
434.21
464.49
459.42
400.33
287.38
142.56
-3.42
-112.26
-184.46
-226.08
-244.32
-246.92
-239.2
-224.18
-205.71
-189.09
-179.02
-180.05
-189.99
-204.72
-220.61
-231.99
-235.24
-230.11
-219.9
-208.4
-199.28
-191.51
-184.0
-177.41
-171.18
-164.23
-155.36
-145.1
-133.35
-122.06
-112.29
-105.2
-101.55
-99.87
-97.65
-92.83
-84.89
-74.56
-62.9
-51.11
-40.47
-32.12
-26.33
-22.74
-20.7
-19.63
-18.92
-18.43
-18.06
-17.73
-17.49
-17.36
-17.25
-17.13
-17.02
-16.95
-17.15
-17.98
-19.66
-22.23
-25.52
-29.28
-33.23
-37.25
-41.34
-45.57
-50.03
-54.48
-58.33
-60.68
-60.67
-57.68
-51.6
-42.9
-32.51
-21.63
-11.32
-2.22
5.6
12.44
18.73
24.73
30.35
35.24
39.0
41.48
42.85
43.48
43.66
43.42
42.53
40.76
38.03
34.64
31.09
27.79
24.93
22.32
19.6
16.42
12.66
8.51
4.31
0.38
-3.11
-6.23
-9.18
-12.23
-15.63
-19.52
-23.99
-29.02
-34.39
-39.68
-44.21
-47.25
-48.1
-46.39
-42.19
-35.93
-28.29
-19.96
-11.54
-3.42
4.13
10.95
16.94
22.06
26.33
29.78
32.43
34.27
35.3
35.66
35.59
35.43
35.45
35.81
36.48
37.28
38.05
38.63
38.86
38.63
37.77
36.18
33.86
30.93
27.64
24.23
20.81
17.26
13.25
8.39
2.48
-4.25
-10.99
-16.56
-19.69
-19.53
-15.94
-9.53
-1.4
7.24
15.5
22.86
29.17
34.39
38.45
41.32
43.01
43.73
43.76
43.4
42.74
41.7
40.09
37.79
34.84
31.48
28.11
25.02
22.36
20.1
18.02
15.89
13.45
10.58
7.21
3.36
-0.86
-5.29
-9.81
-14.34
-18.96
-23.87
-29.26
-35.16
-41.28
-46.96
-51.28
-53.37
-52.67
-49.21
-43.55
-36.54
-29.06
-21.69
-14.64
-7.88
-1.29
5.11
11.23
16.87
21.85
26.04
29.33
31.62
32.82
32.94
32.12
30.67
29.08
27.81
27.2
27.38
28.19
29.28
30.22
30.63
30.23
29.02
27.18
25.0
22.82
20.85
19.12
17.53
15.88
13.99
11.75
9.11
6.06
2.59
-1.36
-5.81
-10.75
-16.09
-21.7
-27.46
-33.18
-38.6
-43.24
-46.48
-47.61
-46.14
-41.97
-35.54
-27.66
-19.23
-10.96
-3.2
3.97
10.63
16.74
22.14
26.6
29.96
32.25
33.64
34.39
34.7
34.69
34.35
33.68
32.73
31.64
30.58
29.69
28.99
28.39
27.71
26.78
25.42
23.54
21.03
17.82
13.92
9.44
4.64
-0.1
-4.42
-8.1
-11.14
-13.76
-16.34
-19.25
-22.82
-27.26
-32.54
-38.37
-44.12
-48.88
-51.67
-51.79
-49.01
-43.76
-36.9
-29.43
-22.19
-15.64
-9.89
-4.84
-0.34
3.7
7.29
10.39
12.95
14.97
16.45
17.45
18.05
18.37
18.54
18.69
18.88
19.12
19.34
19.46
19.38
19.08
18.53
17.78
16.9
15.93
14.96
14.05
13.26
12.6
11.96
11.14
9.89
8.05
5.6
2.72
-0.3
-3.19
-5.81
-8.13
-10.32
-12.55
-15.01
-17.82
-21.06
-24.66
-28.38
-31.78
-34.26
-35.26
-34.41
-31.67
-27.37
-22.11
-16.51
-11.12
-6.21
-1.81
2.22
6.05
9.74
13.16
16.09
18.26
19.55
20.07
20.09
19.95
19.89
20.0
20.24
20.53
20.81
21.14
21.58
22.16
22.8
23.34
23.53
23.2
22.24
20.66
18.65
16.44
14.25
12.26
10.47
8.85
7.33
5.85
4.45
3.16
1.99
0.87
-0.31
-1.76
-3.67
-6.23
-9.55
-13.57
-17.99
-22.32
-25.89
-28.04
-28.3
-26.51
-22.84
-17.81
-12.05
-6.18
-0.69
4.18
8.36
11.92
14.88
17.22
18.82
19.57
19.48
18.69
17.51
16.27
15.23
14.53
14.19
14.16
14.36
14.67
14.91
14.82
14.18
12.8
10.7
8.02
5.03
2.01
-0.82
-3.39
-5.65
-7.68
-9.53
-11.32
-13.15
-15.13
-17.36
-19.88
-22.65
-25.61
-28.67
-31.67
-34.4
-36.61
-37.99
-38.28
-37.33
-35.13
-31.83
-27.73
-23.19
-18.56
-14.12
-10.07
-6.48
-3.35
-0.64
1.7
3.71
5.38
6.72
7.74
8.45
8.87
9.04
9.01
8.83
8.55
8.18
7.75
7.27
6.72
6.13
5.43
4.51
3.24
1.53
-0.61
-3.02
-5.41
-7.58
-9.43
-11.04
-12.59
-14.2
-15.82
-17.18
-17.94
-17.92
-17.14
-15.89
-14.54
-13.39
-12.53
-11.89
-11.29
-10.62
-9.94
-9.39
-9.17
-9.42
-10.1
-11.01
-11.84
-12.22
-11.77
-10.25
-7.54
-3.79
0.67
5.39
9.92
13.94
17.28
19.88
21.73
22.88
23.42
23.56
23.56
23.7
24.06
24.53
24.86
24.78
24.22
23.29
22.27
21.35
20.61
19.96
19.27
18.48
17.68
16.98
16.46
16.03
15.52
14.68
13.37
11.56
9.31
6.82
4.26
1.74
-0.69
-3.07
-5.52
-8.22
-11.28
-14.75
-18.56
-22.54
-26.45
-29.97
-32.81
-34.66
-35.25
-34.43
-32.18
-28.75
-24.55
-20.07
-15.78
-11.96
-8.71
-5.94
-3.55
-1.46
0.39
1.97
3.26
4.24
4.9
5.24
5.27
5.0
4.54
4.04
3.66
3.49
3.5
3.58
3.54
3.24
2.64
1.76
0.74
-0.34
-1.43
-2.5
-3.57
-4.64
-5.72
-6.79
-7.85
-8.92
-10.0
-11.12
-12.35
-13.78
-15.55
-17.69
-20.14
-22.59
-24.6
-25.67
-25.39
-23.64
-20.61
-16.76
-12.68
-8.89
-5.69
-3.09
-0.93
1.0
2.88
4.72
6.46
7.98
9.18
10.05
10.64
10.98
11.1
10.97
10.62
10.09
9.52
9.07
8.86
8.93
9.21
9.55
9.77
9.65
9.1
8.07
6.68
5.17
3.82
2.86
2.36
2.17
2.01
1.56
0.71
-0.47
-1.72
-2.74
-3.38
-3.69
-3.89
-4.22
-4.88
-6.0
-7.62
-9.75
-12.28
-14.96
-17.34
-18.81
-18.83
-17.11
-13.76
-9.3
-4.45
0.08
3.79
6.53
8.42
9.7
10.68
11.53
12.32
13.07
13.74
14.38
15.06
15.85
16.73
17.59
18.29
18.74
18.99
19.23
19.65
20.31
21.08
21.6
21.48
20.45
18.5
15.86
12.9
9.98
7.33
5.06
3.15
1.5
-0.02
-1.52
-3.05
-4.66
-6.3
-7.93
-9.51
-11.07
-12.71
-14.6
-16.83
-19.43
-22.27
-25.08
-27.48
-29.01
-29.29
-28.03
-25.22
-21.08
-16.12
-10.98
-6.21
-2.19
0.95
3.29
4.99
6.16
6.89
7.21
7.17
6.86
6.41
5.92
5.46
5.06
4.71
4.4
4.11
3.81
3.54
3.35
3.29
3.35
3.45
3.4
2.98
2.08
0.72
-0.9
-2.54
-3.99
-5.18
-6.14
-7.0
-7.9
-8.99
-10.39
-12.21
-14.41
-16.83
-19.07
-20.62
-21.01
-19.94
-17.45
-13.9
-9.79
-5.61
-1.69
1.88
5.22
8.46
11.66
14.68
17.28
19.19
20.29
20.64
20.41
19.77
18.79
17.41
15.66
13.66
11.7
10.01
8.58
7.02
4.72
1.14
-3.81
-9.72
-15.8
-21.37
-26.14
-30.39
-34.71
-39.59
-45.19
-51.26
-57.36
-63.15
-68.54
-73.6
-78.28
-82.25
-84.82
-85.22
-82.86
-77.63
-69.96
-60.55
-50.14
-39.31
-28.36
-17.38
-6.44
4.37
14.87
24.8
33.85
41.78
48.38
53.62
57.56
60.38
62.32
63.53
64.15
64.28
63.98
63.39
62.54
61.38
59.72
57.32
54.1
50.17
45.87
41.61
37.64
33.97
30.39
26.67
22.61
18.18
13.29
7.92
2.15
-3.64
-8.72
-12.17
-13.34
-12.18
-9.31
-5.78
-2.53
-0.08
1.63
2.9
4.02
5.03
5.74
6.03
6.02
6.12
6.8
8.33
10.59
13.1
15.22
16.48
16.77
16.36
15.71
15.21
14.87
14.34
13.04
10.48
6.51
1.32
-4.71
-11.27
-18.19
-25.49
-33.23
-41.34
-49.62
-57.8
-65.65
-72.94
-79.56
-85.31
-89.98
-93.35
-95.31
-95.88
-95.26
-93.69
-91.29
-87.98
-83.43
-77.25
-69.19
-59.28
-47.93
-35.78
-23.54
-11.83
-1.11
8.29
16.12
22.24
26.78
30.25
33.46
37.35
42.57
49.2
56.71
64.16
70.61
75.36
78.17
79.1
78.31
75.91
71.88
66.25
59.23
51.28
43.03
35.09
27.87
21.56
16.17
11.73
8.39
6.39
5.95
7.14
9.71
13.23
17.17
21.15
24.88
28.25
31.18
33.62
35.5
36.76
37.37
37.28
36.49
35.04
33.01
30.53
27.73
24.76
21.65
18.44
15.08
11.59
8.02
4.46
1.02
-2.18
-5.14
-7.89
-10.57
-13.4
-16.6
-20.33
-24.56
-29.09
-33.52
-37.36
-40.1
-41.34
-40.85
-38.61
-34.85
-30.02
-24.63
-19.22
-14.19
-9.81
-6.2
-3.37
-1.3
0.1
0.94
1.38
1.56
1.57
1.47
1.27
0.97
0.63
0.3
0.03
-0.16
-0.36
-0.72
-1.4
-2.49
-4.03
-5.94
-8.07
-10.25
-12.32
-14.21
-15.97
-17.73
-19.64
-21.86
-24.49
-27.47
-30.58
-33.35
-35.1
-35.21
-33.24
-29.2
-23.54
-17.03
-10.45
-4.43
0.8
5.31
9.27
12.88
16.13
18.97
21.26
22.91
23.94
24.43
24.46
24.13
23.51
22.65
21.61
20.52
19.55
18.82
18.37
18.08
17.72
17.08
16.04
14.64
13.01
11.25
9.42
7.43
5.24
2.81
0.25
-2.24
-4.47
-6.33
-7.84
-9.18
-10.59
-12.31
-14.49
-17.22
-20.33
-23.48
-26.15
-27.75
-27.75
-25.86
-22.14
-16.96
-10.94
-4.7
1.23
6.56
11.18
15.13
18.5
21.37
23.81
25.83
27.38
28.41
28.9
28.86
28.38
27.64
26.81
26.03
25.31
24.62
23.85
22.93
21.82
20.56
19.2
17.83
16.53
15.29
14.08
12.77
11.27
9.55
7.7
5.87
4.18
2.63
1.05
-0.77
-3.03
-5.74
-8.69
-11.52
-13.82
-15.27
-15.66
-14.87
-12.87
-9.69
-5.43
-0.27
5.49
11.53
17.47
22.94
27.65
31.36
33.87
34.93
34.35
31.95
27.73
21.99
15.26
8.25
1.43
-5.12
-11.82
-19.28
-27.83
-37.14
-46.17
-53.6
-58.45
-60.55
-60.46
-59.14
-57.31
-55.22
-52.71
-49.71
-46.56
-44.12
-43.41
-45.04
-48.96
-54.42
-60.29
-65.51
-69.34
-71.43
-71.65
-70.01
-66.53
-61.25
-54.33
-45.95
-36.3
-25.54
-13.79
-1.26
11.63
24.22
35.65
45.13
52.09
56.29
57.78
56.91
54.33
51.12
48.65
48.4
51.26
57.19
64.93
72.5
77.9
79.88
78.3
73.98
68.09
61.62
55.04
48.46
41.89
35.54
29.76
24.87
20.95
17.75
14.83
11.72
8.19
4.29
0.29
-3.46
-6.72
-9.45
-11.76
-13.89
-16.09
-18.52
-21.23
-24.16
-27.06
-29.57
-31.26
-31.76
-30.85
-28.49
-24.9
-20.42
-15.44
-10.35
-5.54
-1.3
2.17
4.76
6.54
7.7
8.46
9.04
9.51
9.86
10.0
9.84
9.3
8.42
7.35
6.35
5.68
5.52
5.85
6.46
7.01
7.19
6.82
5.92
4.7
3.41
2.2
1.14
0.11
-1.03
-2.37
-3.91
-5.59
-7.29
-8.94
-10.51
-12.09
-13.77
-15.63
-17.69
-19.95
-22.36
-24.83
-27.17
-29.09
-30.19
-30.06
-28.48
-25.49
-21.43
-16.84
-12.26
-8.17
-4.81
-2.29
-0.51
0.72
1.61
2.33
2.97
3.48
3.8
3.84
3.63
3.25
2.83
2.49
2.28
2.16
2.09
2.03
1.96
1.83
1.62
1.28
0.82
0.26
-0.35
-0.98
-1.6
-2.18
-2.68
-3.11
-3.5
-3.93
-4.48
-5.31
-6.49
-8.07
-10.04
-12.26
-14.48
-16.32
-17.3
-17.06
-15.43
-12.52
-8.69
-4.41
-0.16
3.76
7.17
10.01
12.31
14.11
15.44
16.34
16.86
17.0
16.83
16.35
15.62
14.73
13.79
12.9
12.12
11.5
11.02
10.61
10.19
9.65
8.96
8.08
7.1
6.06
4.98
3.8
2.47
0.97
-0.69
-2.47
-4.35
-6.31
-8.39
-10.53
-12.64
-14.63
-16.41
-18.08
-19.77
-21.7
-24.0
-26.66
-29.42
-31.86
-33.47
-33.77
-32.51
-29.71
-25.68
-20.93
-15.97
-11.2
-6.86
-3.03
0.3
3.16
5.6
7.7
9.55
11.16
12.51
13.52
14.09
14.22
14.02
13.66
13.33
13.11
13.0
12.97
12.94
12.86
12.71
12.41
11.91
11.19
10.25
9.15
8.02
6.9
5.78
4.53
2.93
0.84
-1.79
-4.85
-8.05
-11.1
-13.77
-16.0
-17.86
-19.52
-21.15
-22.84
-24.64
-26.51
-28.38
-30.06
-31.25
-31.53
-30.53
-28.05
-24.22
-19.47
-14.4
-9.51
-5.18
-1.45
1.76
4.61
7.19
9.5
11.46
12.97
13.98
14.53
14.76
14.85
14.99
15.25
15.62
15.98
16.22
16.3
16.27
16.17
15.92
15.38
14.36
12.76
10.66
8.3
5.96
3.84
1.94
0.14
-1.76
-3.87
-6.19
-8.61
-10.97
-13.2
-15.38
-17.63
-20.15
-22.98
-25.98
-28.77
-30.86
-31.75
-31.13
-28.94
-25.36
-20.74
-15.54
-10.2
-5.13
-0.65
3.07
6.01
8.24
9.88
11.09
11.94
12.5
12.82
12.96
12.95
12.82
12.59
12.27
11.92
11.66
11.56
11.65
11.9
12.17
12.3
12.13
11.6
10.7
9.53
8.2
6.79
5.32
3.77
2.11
0.31
-1.63
-3.69
-5.86
-8.12
-10.45
-12.81
-15.2
-17.69
-20.41
-23.51
-26.99
-30.61
-33.82
-35.87
-36.12
-34.26
-30.46
-25.34
-19.67
-14.14
-9.13
-4.72
-0.83
2.67
5.8
8.53
10.82
12.73
14.34
15.74
16.99
18.0
18.66
18.89
18.73
18.34
17.91
17.59
17.42
17.31
17.12
16.76
16.2
15.52
14.8
14.13
13.5
12.83
12.04
11.04
9.8
8.31
6.54
4.43
1.97
-0.83
-3.85
-6.96
-9.98
-12.84
-15.59
-18.42
-21.55
-25.11
-28.97
-32.74
-35.81
-37.54
-37.45
-35.36
-31.42
-26.07
-19.85
-13.31
-6.94
-1.07
4.07
8.38
11.88
14.64
16.8
18.5
19.87
20.98
21.9
22.61
23.09
23.29
23.22
22.91
22.5
22.1
21.74
21.38
20.85
19.99
18.74
17.15
15.38
13.64
12.07
10.66
9.35
7.98
6.41
4.55
2.36
-0.15
-2.87
-5.66
-8.34
-10.73
-12.8
-14.67
-16.65
-19.04
-22.08
-25.74
-29.6
-33.06
-35.4
-36.12
-35.0
-32.14
-27.89
-22.67
-16.9
-10.97
-5.2
0.15
4.88
8.96
12.4
15.28
17.64
19.47
20.72
21.44
21.75
21.83
21.82
21.78
21.7
21.56
21.38
21.21
21.05
20.83
20.4
19.64
18.47
16.95
15.26
13.56
11.94
10.4
8.89
7.25
5.37
3.15
0.55
-2.37
-5.48
-8.53
-11.35
-13.84
-16.07
-18.21
-20.53
-23.23
-26.39
-29.93
-33.52
-36.71
-38.95
-39.75
-38.75
-35.91
-31.43
-25.79
-19.55
-13.3
-7.43
-2.16
2.48
6.6
10.31
13.68
16.7
19.28
21.33
22.8
23.71
24.16
24.28
24.25
24.14
24.02
23.86
23.6
23.2
22.69
22.09
21.45
20.78
19.99
18.97
17.62
15.96
14.14
12.36
10.81
9.48
8.28
6.96
5.3
3.23
0.76
-1.95
-4.75
-7.51
-10.19
-12.81
-15.42
-18.08
-20.88
-23.9
-27.09
-30.31
-33.22
-35.33
-36.14
-35.21
-32.43
-27.93
-22.21
-15.88
-9.52
-3.56
1.81
6.56
10.68
14.14
16.88
18.87
20.16
20.93
21.39
21.72
21.98
22.14
22.2
22.21
22.34
22.7
23.34
24.15
24.89
25.32
25.23
24.57
23.35
21.65
19.56
17.23
14.81
12.45
10.23
8.12
5.99
3.71
1.25
-1.31
-3.8
-6.05
-8.01
-9.84
-11.78
-14.14
-17.11
-20.75
-24.89
-29.23
-33.33
-36.7
-38.81
-39.26
-37.76
-34.3
-29.13
-22.76
-15.85
-9.05
-2.86
2.44
6.8
10.36
13.31
15.77
17.81
19.41
20.53
21.16
21.37
21.3
21.11
20.92
20.81
20.76
20.73
20.63
20.45
20.15
19.75
19.25
18.6
17.76
16.69
15.41
14.0
12.57
11.18
9.77
8.2
6.29
3.9
1.09
-1.97
-4.98
-7.73
-10.12
-12.26
-14.36
-16.66
-19.33
-22.46
-26.06
-30.07
-34.3
-38.46
-42.05
-44.51
-45.26
-43.93
-40.51
-35.36
-29.09
-22.43
-15.97
-10.08
-4.84
-0.16
4.15
8.2
11.98
15.43
18.39
20.77
22.56
23.86
24.81
25.5
26.03
26.42
26.7
26.92
27.13
27.33
27.48
27.44
27.06
26.23
24.94
23.3
21.54
19.88
18.5
17.43
16.56
15.66
14.49
12.87
10.83
8.52
6.19
4.06
2.24
0.63
-0.93
-2.68
-4.76
-7.21
-9.95
-12.8
-15.59
-18.21
-20.67
-23.12
-25.8
-28.89
-32.44
-36.26
-39.93
-42.86
-44.45
-44.21
-41.92
-37.62
-31.64
-24.54
-17.01
-9.67
-3.04
2.59
7.15
10.74
13.56
15.79
17.55
18.92
19.88
20.42
20.58
20.45
20.18
19.93
19.81
19.86
20.03
20.23
20.4
20.46
20.35
19.99
19.28
18.11
16.46
14.38
12.08
9.82
7.83
6.28
5.1
4.11
2.99
1.47
-0.57
-3.08
-5.84
-8.61
-11.19
-13.53
-15.72
-17.91
-20.31
-23.09
-26.36
-30.03
-33.81
-37.19
-39.54
-40.27
-39.03
-35.81
-30.92
-24.91
-18.37
-11.84
-5.77
-0.44
3.99
7.5
10.17
12.18
13.71
14.84
15.6
15.96
15.96
15.73
15.48
15.41
15.6
16.01
16.48
16.8
16.82
16.5
15.85
14.95
13.88
12.72
11.54
10.35
9.12
7.77
6.13
4.08
1.51
-1.56
-4.99
-8.52
-11.88
-14.86
-17.43
-19.79
-22.25
-25.15
-28.68
-32.74
-36.86
-40.31
-42.28
-42.11
-39.53
-34.75
-28.36
-21.18
-14.02
-7.51
-1.96
2.55
6.12
8.97
11.37
13.55
15.69
17.82
19.79
21.42
22.51
23.06
23.18
23.09
22.98
22.92
22.89
22.77
22.51
22.13
21.66
21.13
20.53
19.8
18.89
17.77
16.44
14.94
13.32
11.64
9.96
8.28
6.63
4.97
3.26
1.43
-0.57
-2.8
-5.29
-7.99
-10.81
-13.59
-16.18
-18.56
-20.87
-23.4
-26.49
-30.35
-34.96
-40.05
-45.09
-49.46
-52.45
-53.52
-52.27
-48.68
-43.04
-35.95
-28.12
-20.27
-12.92
-6.41
-0.84
3.84
7.8
11.24
14.39
17.35
20.09
22.43
24.18
25.23
25.64
25.61
25.42
25.3
25.36
25.6
25.96
26.35
26.69
26.92
26.94
26.67
26.04
25.04
23.69
22.04
20.14
18.07
15.87
13.61
11.3
9.0
6.73
4.51
2.38
0.27
-1.89
-4.2
-6.69
-9.38
-12.23
-15.14
-18.04
-20.89
-23.72
-26.66
-29.86
-33.53
-37.73
-42.28
-46.7
-50.25
-52.11
-51.61
-48.53
-43.08
-35.91
-27.89
-19.83
-12.33
-5.71
-0.02
4.79
8.86
12.27
15.1
17.4
19.25
20.78
22.1
23.3
24.35
25.17
25.67
25.85
25.79
25.66
25.6
25.68
25.85
25.96
25.85
25.39
24.52
23.23
21.54
19.49
17.13
14.57
11.93
9.3
6.73
4.15
1.45
-1.5
-4.76
-8.26
-11.85
-15.33
-18.54
-21.44
-24.13
-26.89
-30.05
-33.92
-38.61
-43.9
-49.17
-53.5
-55.9
-55.59
-52.34
-46.46
-38.79
-30.31
-21.92
-14.17
-7.26
-1.14
4.32
9.25
13.76
17.89
21.67
25.12
28.16
30.73
32.76
34.25
35.29
36.05
36.67
37.26
37.86
38.5
39.16
39.85
40.5
41.03
41.27
41.04
40.28
38.97
37.28
35.43
33.63
32.02
30.67
29.54
28.55
27.65
26.78
25.87
24.8
23.44
21.65
19.44
16.93
14.42
12.23
10.52
9.25
8.19
7.06
5.65
3.94
2.01
0.02
-1.93
-3.79
-5.59
-7.34
-9.11
-10.96
-13.01
-15.34
-17.97
-20.84
-23.75
-26.5
-28.94
-31.11
-33.19
-35.58
-38.68
-42.74
-47.7
-53.06
-57.95
-61.36
-62.43
-60.68
-56.16
-49.33
-40.91
-31.71
-22.49
-13.83
-6.15
0.4
5.84
10.39
14.28
17.69
20.69
23.24
25.3
26.88
28.03
28.9
29.61
30.26
30.93
31.63
32.36
33.11
33.78
34.25
34.42
34.25
33.81
33.18
32.49
31.69
30.7
29.38
27.69
25.7
23.59
21.56
19.72
18.03
16.35
14.57
12.59
10.44
8.19
5.91
3.68
1.49
-0.64
-2.74
-4.86
-7.04
-9.33
-11.74
-14.25
-16.78
-19.27
-21.67
-23.99
-26.31
-28.78
-31.64
-35.14
-39.4
-44.21
-48.99
-52.77
-54.43
-53.16
-48.7
-41.5
-32.63
-23.35
-14.72
-7.36
-1.35
3.53
7.61
11.15
14.26
16.97
19.21
20.98
22.29
23.21
23.82
24.23
24.53
24.78
24.99
25.15
25.26
25.34
25.41
25.47
25.41
25.1
24.35
22.99
21.0
18.54
15.88
13.31
11.0
8.93
6.91
4.7
2.09
-0.96
-4.32
-7.81
-11.24
-14.49
-17.47
-20.15
-22.51
-24.65
-26.81
-29.32
-32.5
-36.44
-40.88
-45.18
-48.49
-49.98
-49.1
-45.69
-40.06
-32.87
-24.91
-17.0
-9.73
-3.44
1.81
6.18
9.95
13.4
16.7
19.89
22.85
25.35
27.21
28.3
28.72
28.69
28.53
28.52
28.77
29.26
29.84
30.29
30.43
30.15
29.37
28.14
26.54
24.68
22.69
20.71
18.81
17.03
15.32
13.59
11.67
9.44
6.91
4.2
1.56
-0.79
-2.76
-4.49
-6.22
-8.21
-10.58
-13.29
-16.2
-19.12
-21.95
-24.68
-27.4
-30.26
-33.44
-37.17
-41.51
-46.26
-50.84
-54.35
-55.79
-54.4
-49.93
-42.82
-33.97
-24.54
-15.55
-7.71
-1.33
3.68
7.61
10.83
13.64
16.26
18.7
20.92
22.81
24.29
25.39
26.16
26.71
27.14
27.5
27.82
28.07
28.23
28.26
28.1
27.7
27.0
25.98
24.62
22.98
21.18
19.34
17.55
15.83
14.13
12.35
10.44
8.37
6.13
3.72
1.08
-1.88
-5.18
-8.75
-12.44
-16.0
-19.22
-22.02
-24.48
-26.82
-29.36
-32.36
-35.96
-40.08
-44.42
-48.43
-51.39
-52.54
-51.3
-47.46
-41.27
-33.41
-24.81
-16.39
-8.82
-2.42
2.87
7.29
11.15
14.6
17.68
20.32
22.45
24.04
25.15
25.9
26.48
27.03
27.73
28.65
29.77
30.99
32.17
33.16
33.89
34.34
34.54
34.5
34.18
33.5
32.43
31.02
29.41
27.73
26.09
24.44
22.7
20.78
18.67
16.49
14.42
12.61
11.16
10.01
9.06
8.13
7.1
5.86
4.39
2.71
0.88
-1.0
-2.8
-4.46
-5.96
-7.4
-8.95
-10.82
-13.22
-16.21
-19.7
-23.44
-27.12
-30.46
-33.28
-35.59
-37.56
-39.53
-41.89
-44.98
-48.95
-53.53
-58.08
-61.61
-63.05
-61.66
-57.2
-50.1
-41.25
-31.73
-22.49
-14.22
-7.17
-1.34
3.52
7.72
11.55
15.22
18.75
22.11
25.08
27.53
29.32
30.46
31.04
31.23
31.26
31.31
31.48
31.78
32.13
32.42
32.52
32.38
31.99
31.39
30.6
29.64
28.57
27.44
26.34
25.36
24.53
23.82
23.12
22.3
21.3
20.11
18.81
17.49
16.23
15.0
13.74
12.33
10.7
8.84
6.85
4.83
2.86
0.97
-0.89
-2.78
-4.75
-6.78
-8.86
-11.0
-13.26
-15.69
-18.35
-21.18
-24.09
-26.98
-29.76
-32.46
-35.18
-38.08
-41.4
-45.27
-49.73
-54.49
-59.03
-62.64
-64.62
-64.45
-61.96
-57.28
-50.73
-42.73
-33.81
-24.58
-15.77
-8.18
-2.45
1.13
2.75
2.97
2.61
2.4
2.88
4.28
6.47
9.04
11.39
12.87
12.97
11.48
8.55
4.7
0.58
-3.13
-5.95
-7.67
-8.35
-8.29
-7.94
-7.81
-8.35
-9.83
-12.26
-15.41
-18.91
-22.44
-25.86
-29.26
-32.79
-36.68
-41.11
-46.21
-52.03
-58.69
-66.48
-75.6
-86.02
-97.19
-108.28
-118.43
-126.96
-133.47
-137.87
-140.33
-141.01
-140.08
-137.54
-133.52
-128.29
-122.06
-114.77
-106.22
-96.25
-84.74
-71.59
-56.33
-38.93
-19.94
-0.22
19.5
38.44
55.86
71.73
87.09
104.83
127.44
156.37
192.0
234.28
281.78
331.39
379.27
421.7
457.15
483.93
500.63
507.01
505.43
499.02
490.14
480.23
469.53
458.51
444.1
420.39
380.96
322.76
245.95
153.87
53.37
-56.78
-163.74
-249.6
-301.86
-327.83
-338.65
-341.19
-339.6
-335.48
-328.75
-317.35
-301.68
-284.38
-268.33
-253.6
-238.95
-223.42
-206.52
-188.47
-168.88
-149.15
-131.68
-118.32
-108.28
-99.77
-91.32
-82.06
-71.85
-60.42
-48.83
-38.84
-31.84
-27.44
-24.5
-21.99
-19.2
-15.91
-11.96
-7.91
-4.73
-3.18
-3.17
-4.12
-5.53
-6.95
-8.15
-8.96
-9.6
-10.53
-12.24
-14.98
-18.75
-23.4
-28.48
-33.27
-36.86
-38.37
-37.25
-33.43
-27.41
-20.05
-12.34
-5.08
1.27
6.63
11.16
15.09
18.58
21.68
24.36
26.53
28.13
29.15
29.65
29.76
29.64
29.43
29.21
28.97
28.66
28.2
27.56
26.74
25.73
24.49
22.9
20.78
17.95
14.34
10.03
5.28
0.49
-3.9
-7.53
-10.26
-12.24
-13.9
-15.85
-18.67
-22.74
-28.03
-34.05
-39.88
-44.42
-46.61
-45.73
-41.65
-34.81
-26.19
-16.97
-8.21
-0.68
5.3
9.85
13.32
16.16
18.7
21.11
23.37
25.36
26.94
28.0
28.52
28.47
27.85
26.71
25.19
23.47
21.82
20.45
19.42
18.58
17.63
16.25
14.19
11.45
8.14
4.56
0.99
-2.34
-5.32
-8.02
-10.66
-13.62
-17.3
-21.97
-27.57
-33.63
-39.28
-43.47
-45.26
-44.12
-40.16
-33.99
-26.58
-18.85
-11.47
-4.72
1.38
6.94
12.1
16.87
21.26
25.22
28.68
31.56
33.72
35.06
35.57
35.37
34.71
33.88
33.13
32.61
32.33
32.23
32.21
32.07
31.62
30.66
29.05
26.8
24.0
20.88
17.63
14.45
11.4
8.47
5.61
2.74
-0.21
-3.28
-6.48
-9.83
-13.29
-16.79
-20.24
-23.52
-26.61
-29.62
-32.82
-36.52
-40.95
-46.02
-51.19
-55.62
-58.29
-58.43
-55.7
-50.33
-42.94
-34.41
-25.56
-16.99
-9.06
-1.91
4.51
10.32
15.67
20.64
25.22
29.26
32.55
34.86
36.13
36.43
36.03
35.27
34.51
33.96
33.77
33.98
34.53
35.32
36.17
36.88
37.32
37.39
37.08
36.42
35.46
34.19
32.67
30.96
29.15
27.34
25.61
23.95
22.33
20.75
19.22
17.83
16.63
15.58
14.59
13.5
12.18
10.61
8.85
6.98
5.07
3.15
1.26
-0.58
-2.35
-4.07
-5.87
-7.9
-10.28
-13.05
-16.09
-19.22
-22.25
-25.07
-27.73
-30.38
-33.27
-36.64
-40.6
-45.03
-49.48
-53.18
-55.28
-55.06
-52.22
-47.01
-40.15
-32.52
-25.0
-18.18
-12.34
-7.49
-3.44
0.02
3.08
5.82
8.26
10.31
11.87
12.92
13.47
13.59
13.41
13.03
12.54
12.01
11.48
11.03
10.73
10.64
10.82
11.25
11.85
12.45
12.89
13.06
12.96
12.67
12.36
12.14
12.02
11.9
11.58
10.8
9.42
7.39
4.86
2.05
-0.81
-3.58
-6.27
-9.03
-11.99
-15.23
-18.71
-22.32
-25.95
-29.46
-32.57
-34.86
-35.76
-34.75
-31.69
-26.86
-21.01
-15.01
-9.56
-4.95
-1.02
2.57
6.19
9.95
13.7
17.15
19.95
21.9
22.98
23.3
23.09
22.57
21.89
21.11
20.25
19.36
18.47
17.71
17.15
16.79
16.55
16.28
15.83
15.11
14.11
12.79
11.11
9.04
6.52
3.63
0.55
-2.47
-5.14
-7.32
-9.03
-10.52
-12.1
-14.11
-16.7
-19.85
-23.31
-26.67
-29.46
-31.23
-31.63
-30.45
-27.71
-23.63
-18.62
-13.2
-7.86
-2.91
1.49
5.41
8.99
12.36
15.56
18.54
21.17
23.32
24.85
25.69
25.87
25.44
24.51
23.2
21.65
20.03
18.52
17.26
16.35
15.75
15.22
14.45
13.16
11.16
8.57
5.63
2.66
-0.14
-2.77
-5.33
-7.99
-10.8
-13.64
-16.3
-18.54
-20.24
-21.42
-22.31
-23.22
-24.53
-26.48
-29.15
-32.33
-35.52
-38.08
-39.36
-38.87
-36.48
-32.42
-27.19
-21.43
-15.73
-10.5
-5.94
-2.04
1.3
4.23
6.83
9.08
11.0
12.57
13.83
14.84
15.64
16.23
16.59
16.69
16.51
16.09
15.47
14.73
13.92
13.05
12.11
11.1
10.0
8.82
7.56
6.19
4.62
2.77
0.59
-1.88
-4.47
-6.91
-9.01
-10.69
-12.11
-13.6
-15.48
-17.93
-20.82
-23.75
-26.09
-27.22
-26.67
-24.3
-20.34
-15.32
-9.95
-4.88
-0.53
2.99
5.79
8.13
10.2
12.08
13.73
15.09
16.11
16.8
17.2
17.31
17.13
16.59
15.7
14.51
13.19
11.97
11.05
10.6
10.56
10.73
10.8
10.5
9.7
8.48
7.01
5.41
3.72
1.82
-0.43
-3.09
-6.06
-9.13
-12.07
-14.76
-17.21
-19.51
-21.81
-24.22
-26.83
-29.69
-32.8
-36.02
-39.06
-41.46
-42.67
-42.19
-39.83
-35.73
-30.4
-24.56
-18.88
-13.74
-9.13
-4.76
-0.2
4.82
10.3
15.89
21.09
25.46
28.75
30.93
32.16
32.63
32.5
31.85
30.76
29.34
27.77
26.28
25.05
24.16
23.53
22.95
22.18
21.08
19.68
18.12
16.6
15.23
13.97
12.66
11.16
9.42
7.5
5.55
3.7
1.98
0.39
-1.14
-2.65
-4.13
-5.61
-7.13
-8.73
-10.48
-12.34
-14.23
-16.04
-17.68
-19.11
-20.39
-21.6
-22.85
-24.27
-25.95
-27.92
-30.02
-31.9
-33.03
-32.84
-30.97
-27.42
-22.62
-17.27
-12.14
-7.71
-4.13
-1.24
1.28
3.63
5.9
7.99
9.77
11.12
12.01
12.42
12.4
12.06
11.54
11.03
10.71
10.64
10.79
11.03
11.25
11.4
11.5
11.57
11.53
11.28
10.74
9.93
9.0
8.17
7.55
7.14
6.78
6.31
5.61
4.73
3.76
2.82
1.93
1.01
-0.04
-1.32
-2.82
-4.5
-6.2
-7.76
-9.08
-10.17
-11.13
-12.11
-13.28
-14.7
-16.37
-18.17
-19.97
-21.6
-22.8
-23.29
-22.79
-21.06
-18.08
-14.06
-9.38
-4.53
0.04
4.02
7.24
9.74
11.59
12.94
13.91
14.61
15.05
15.26
15.25
15.06
14.75
14.4
14.02
13.63
13.18
12.67
12.12
11.58
11.16
10.85
10.6
10.25
9.64
8.64
7.28
5.6
3.79
1.96
0.24
-1.38
-2.9
-4.39
-5.95
-7.71
-9.84
-12.49
-15.73
-19.47
-23.44
-27.24
-30.43
-32.61
-33.51
-32.99
-31.06
-27.85
-23.58
-18.6
-13.38
-8.4
-4.08
-0.6
2.11
4.34
6.42
8.6
10.87
13.02
14.75
15.84
16.26
16.15
15.77
15.32
14.98
14.8
14.79
14.91
15.11
15.26
15.16
14.62
13.5
11.79
9.62
7.23
4.88
2.76
0.95
-0.61
-2.05
-3.52
-5.12
-6.91
-8.86
-10.92
-13.03
-15.15
-17.3
-19.57
-22.05
-24.77
-27.67
-30.52
-32.93
-34.5
-34.86
-33.81
-31.38
-27.83
-23.56
-19.1
-14.9
-11.32
-8.49
-6.39
-4.84
-3.61
-2.53
-1.51
-0.55
0.29
0.86
1.01
0.64
-0.26
-1.5
-2.76
-3.67
-3.99
-3.66
-2.89
-1.92
-1.01
-0.25
0.4
1.07
1.9
3.0
4.49
6.43
8.83
11.63
14.67
17.73
20.56
22.97
24.82
26.03
26.62
26.67
26.33
25.73
24.96
24.0
22.7
20.86
18.27
14.83
10.57
5.76
0.78
-3.81
-7.53
-10.04
-11.28
-11.46
-10.96
-10.16
-9.33
-8.53
-7.66
-6.59
-5.17
-3.37
-1.22
1.19
3.77
6.48
9.2
11.87
14.31
16.4
18.03
19.19
20.02
20.73
21.49
22.38
23.29
24.03
24.34
24.0
22.91
21.02
18.38
15.07
11.24
6.98
2.38
-2.6
-8.02
-13.96
-20.4
-27.17
-33.97
-40.42
-46.19
-51.08
-55.02
-57.99
-59.97
-60.86
-60.53
-58.82
-55.67
-51.2
-45.66
-39.44
-33.03
-26.86
-21.25
-16.38
-12.26
-8.79
-5.78
-3.03
-0.36
2.3
4.91
7.26
9.08
10.11
10.27
9.72
8.92
8.48
9.0
10.86
14.06
18.29
22.97
27.51
31.41
34.37
36.26
37.14
37.08
36.13
34.31
31.62
28.03
23.62
18.56
13.07
7.35
1.52
-4.48
-10.83
-17.7
-25.05
-32.5
-39.32
-44.61
-47.52
-47.53
-44.55
-38.89
-31.1
-21.86
-11.84
-1.74
7.76
15.96
22.33
26.57
28.73
29.2
28.55
27.41
26.2
25.17
24.32
23.56
22.71
21.7
20.5
19.13
17.66
16.11
14.55
13.13
12.06
11.51
11.48
11.7
11.66
10.85
8.99
6.22
3.07
0.15
-2.22
-4.17
-6.25
-9.17
-13.36
-18.9
-25.44
-32.54
-39.82
-47.04
-54.06
-60.63
-66.28
-70.36
-72.28
-71.66
-68.59
-63.6
-57.47
-50.99
-44.65
-38.59
-32.64
-26.51
-20.05
-13.34
-6.64
-0.28
5.57
10.88
15.76
20.34
24.7
28.85
32.79
36.59
40.38
44.23
48.12
51.89
55.31
58.11
60.2
61.5
62.03
61.66
60.07
56.91
51.88
44.98
36.51
27.06
17.25
7.59
-1.64
-10.3
-18.35
-25.73
-32.41
-38.48
-44.16
-49.69
-55.22
-60.63
-65.43
-68.87
-70.11
-68.43
-63.41
-54.99
-43.52
-29.72
-14.59
0.7
14.99
27.26
36.75
43.08
46.19
46.42
44.34
40.69
36.24
31.7
27.59
24.25
21.8
20.17
19.11
18.34
17.61
16.68
15.4
13.75
11.74
9.54
7.38
5.59
4.46
4.09
4.35
4.85
5.12
4.77
3.63
1.74
-0.8
-3.91
-7.7
-12.31
-17.8
-23.92
-30.04
-35.23
-38.51
-39.12
-36.78
-31.81
-24.95
-17.12
-9.19
-1.74
4.94
10.74
15.64
19.57
22.47
24.31
25.1
24.91
23.8
21.9
19.36
16.5
13.78
11.63
10.45
10.38
11.36
13.12
15.31
17.58
19.66
21.38
22.74
23.88
25.0
26.27
27.67
28.89
29.51
29.09
27.43
24.65
21.14
17.4
13.84
10.63
7.57
4.15
-0.35
-6.6
-14.85
-24.75
-35.26
-44.92
-52.34
-56.71
-57.97
-56.76
-53.95
-50.3
-46.24
-41.89
-37.26
-32.35
-27.23
-21.84
-16.0
-9.39
-1.75
6.94
16.3
25.61
33.96
40.55
44.88
46.85
46.77
45.19
42.73
39.93
37.18
34.72
32.67
31.02
29.65
28.25
26.4
23.72
20.01
15.48
10.73
6.51
3.47
1.85
1.42
1.67
2.02
2.11
1.83
1.24
0.37
-0.91
-2.93
-6.02
-10.4
-15.95
-22.28
-28.71
-34.53
-39.08
-41.87
-42.6
-41.17
-37.62
-32.2
-25.4
-17.93
-10.7
-4.55
-0.1
2.5
3.51
3.52
3.13
2.73
2.38
1.97
1.39
0.73
0.33
0.73
2.38
5.5
9.9
15.04
20.2
24.68
28.07
30.27
31.44
31.78
31.41
30.34
28.5
25.94
22.94
19.96
17.45
15.71
14.66
13.96
13.07
11.57
9.26
6.25
2.87
-0.51
-3.57
-6.23
-8.59
-10.87
-13.31
-16.06
-19.18
-22.64
-26.3
-29.9
-33.02
-35.14
-35.76
-34.52
-31.35
-26.55
-20.65
-14.27
-7.99
-2.19
2.91
7.23
10.82
13.84
16.41
18.69
20.74
22.63
24.38
26.04
27.7
29.5
31.53
33.81
36.26
38.73
41.0
42.91
44.26
44.93
44.8
43.82
41.97
39.29
35.85
31.82
27.41
22.91
18.67
14.97
11.96
9.59
7.63
5.64
3.13
-0.33
-5.01
-10.87
-17.6
-24.66
-31.35
-37.04
-41.29
-43.9
-44.93
-44.64
-43.33
-41.25
-38.56
-35.28
-31.28
-26.32
-20.23
-12.93
-4.62
4.26
13.1
21.31
28.47
34.39
39.08
42.67
45.33
47.22
48.54
49.53
50.45
51.45
52.53
53.46
53.85
53.31
51.5
48.25
43.49
37.24
29.67
21.08
11.97
2.97
-5.29
-12.35
-18.08
-22.66
-26.42
-29.73
-32.76
-35.55
-38.08
-40.38
-42.64
-45.02
-47.57
-50.06
-51.98
-52.73
-51.86
-49.29
-45.36
-40.64
-35.77
-31.19
-27.06
-23.27
-19.6
-15.83
-11.81
-7.53
-3.13
1.19
5.19
8.67
11.49
13.58
14.92
15.52
15.42
14.77
13.81
12.87
12.23
12.0
11.99
11.79
10.95
9.15
6.36
2.81
-1.08
-4.92
-8.42
-11.44
-13.92
-15.84
-17.22
-18.1
-18.58
-18.83
-19.03
-19.28
-19.62
-20.02
-20.43
-20.86
-21.4
-22.18
-23.28
-24.67
-26.13
-27.33
-27.87
-27.4
-25.7
-22.7
-18.58
-13.7
-8.57
-3.71
0.47
3.77
6.26
8.16
9.74
11.21
12.59
13.82
14.82
15.5
15.86
15.96
15.86
15.66
15.43
15.25
15.13
15.08
15.03
14.88
14.56
14.06
13.4
12.64
11.8
10.87
9.82
8.57
7.03
5.19
3.04
0.64
-1.9
-4.45
-6.87
-9.08
-11.05
-12.82
-14.46
-16.07
-17.81
-19.77
-22.04
-24.58
-27.22
-29.63
-31.43
-32.3
-32.05
-30.71
-28.47
-25.66
-22.61
-19.59
-16.75
-14.12
-11.67
-9.34
-7.08
-4.88
-2.74
-0.62
1.48
3.53
5.46
7.15
8.5
9.47
10.1
10.49
10.76
10.94
11.02
10.94
10.66
10.19
9.55
8.79
7.93
6.96
5.9
4.78
3.64
2.6
1.73
1.13
0.78
0.57
0.33
-0.08
-0.71
-1.48
-2.13
-2.37
-1.92
-0.53
1.87
5.27
9.49
14.26
19.2
23.97
28.35
32.23
35.63
38.55
40.91
42.54
43.26
42.98
41.78
39.81
37.21
34.04
30.34
26.15
21.59
16.92
12.37
8.17
4.41
1.03
-2.09
-5.12
-8.23
-11.49
-14.82
-17.98
-20.64
-22.49
-23.43
-23.68
-23.7
-24.01
-25.03
-26.82
-29.13
-31.46
-33.23
-33.91
-33.1
-30.62
-26.54
-21.23
-15.32
-9.62
-4.97
-2.02
-1.08
-2.08
-4.67
-8.3
-12.46
-16.63
-20.34
-23.08
-24.26
-23.33
-20.04
-14.63
-7.94
-1.25
4.08
7.0
7.08
4.51
-0.09
-5.92
-12.22
-18.39
-23.89
-28.27
-31.05
-31.8
-30.29
-26.65
-21.47
-15.78
-10.79
-7.53
-6.51
-7.56
-10.01
-13.02
-15.93
-18.43
-20.47
-21.95
-22.65
-22.19
-20.27
-16.88
-12.36
-7.18
-1.81
3.52
8.73
13.77
18.43
22.36
25.18
26.73
27.19
27.09
27.12
27.93
29.89
32.96
36.75
40.63
43.93
46.15
47.05
46.67
45.26
43.11
40.5
37.63
34.59
31.45
28.25
25.08
21.96
18.9
15.81
12.55
9.03
5.24
1.31
-2.51
-5.98
-8.95
-11.47
-13.75
-16.12
-18.97
-22.66
-27.38
-33.13
-39.5
-45.78
-51.05
-54.43
-55.43
-54.11
-51.02
-46.98
-42.71
-38.63
-34.85
-31.21
-27.53
-23.66
-19.54
-15.11
-10.32
-5.15
0.33
5.88
11.09
15.54
18.86
20.91
21.82
21.88
21.51
21.06
20.73
20.53
20.28
19.75
18.76
17.25
15.31
13.09
10.81
8.6
6.56
4.69
2.83
0.77
-1.75
-4.9
-8.64
-12.6
-16.18
-18.68
-19.5
-18.38
-15.47
-11.27
-6.48
-1.72
2.52
6.02
8.76
10.87
12.47
13.7
14.62
15.25
15.62
15.76
15.7
15.47
15.1
14.6
14.03
13.44
12.91
12.5
12.27
12.24
12.35
12.43
12.24
11.53
10.14
8.09
5.61
3.02
0.62
-1.43
-3.22
-4.94
-6.87
-9.19
-12.0
-15.25
-18.85
-22.61
-26.21
-29.19
-31.03
-31.27
-29.66
-26.33
-21.7
-16.39
-10.97
-5.87
-1.27
2.75
6.18
8.96
11.08
12.54
13.44
14.01
14.51
15.2
16.23
17.58
19.03
20.1
20.22
18.91
16.01
11.86
7.18
2.96
-0.02
-1.42
-1.44
-0.76
-0.17
-0.34
-1.57
-3.78
-6.65
-9.76
-12.73
-15.21
-16.92
-17.64
-17.3
-16.1
-14.47
-13.05
-12.42
-12.82
-14.02
-15.32
-15.88
-15.02
-12.52
-8.66
-4.12
0.34
4.1
6.87
8.7
9.87
10.7
11.44
12.29
13.28
14.43
15.7
16.99
18.15
19.03
19.46
19.37
18.78
17.85
16.74
15.64
14.63
13.78
13.07
12.43
11.73
10.78
9.41
7.53
5.18
2.56
-0.11
-2.61
-4.87
-6.92
-8.86
-10.76
-12.64
-14.49
-16.33
-18.22
-20.21
-22.27
-24.16
-25.46
-25.66
-24.31
-21.15
-16.18
-9.66
-1.99
6.36
14.98
23.49
31.57
38.85
44.95
49.42
51.85
51.93
49.62
45.18
39.2
32.46
25.76
19.81
15.07
11.76
9.84
9.12
9.31
10.13
11.3
12.64
14.03
15.31
16.35
16.94
17.0
16.55
15.83
15.15
14.75
14.63
14.55
14.12
13.02
11.16
8.68
5.82
2.73
-0.57
-4.05
-7.56
-10.71
-13.02
-14.16
-14.21
-13.65
-13.16
-13.27
-14.1
-15.4
-16.8
-18.11
-19.49
-21.36
-24.13
-27.94
-32.53
-37.41
-42.04
-46.08
-49.35
-51.78
-53.23
-53.47
-52.22
-49.33
-44.91
-39.4
-33.34
-27.29
-21.53
-16.09
-10.83
-5.63
-0.59
4.01
7.74
10.28
11.55
11.75
11.31
10.62
9.98
9.39
8.64
7.38
5.23
1.91
-2.61
-7.92
-13.15
-17.0
-18.07
-15.33
-8.56
1.51
13.41
25.36
35.79
43.75
48.91
51.41
51.65
50.08
47.19
43.46
39.43
35.59
32.3
29.76
27.92
26.63
25.63
24.67
23.54
22.14
20.47
18.66
16.87
15.23
13.81
12.58
11.46
10.32
9.1
7.75
6.27
4.61
2.78
0.73
-1.56
-4.02
-6.51
-8.81
-10.8
-12.48
-14.04
-15.8
-18.08
-21.01
-24.36
-27.56
-29.87
-30.58
-29.24
-25.81
-20.65
-14.38
-7.72
-1.35
4.29
8.96
12.66
15.52
17.75
19.55
21.04
22.15
22.71
22.54
21.54
19.81
17.61
15.29
13.15
11.36
9.93
8.77
7.72
6.66
5.47
4.08
2.43
0.56
-1.48
-3.6
-5.64
-7.51
-9.12
-10.45
-11.51
-12.39
-13.29
-14.44
-16.04
-18.08
-20.35
-22.44
-23.94
-24.54
-24.15
-22.87
-20.87
-18.35
-15.46
-12.36
-9.23
-6.31
-3.84
-2.02
-0.91
-0.48
-0.56
-0.94
-1.45
-1.97
-2.43
-2.83
-3.16
-3.39
-3.46
-3.32
-2.99
-2.55
-2.07
-1.67
-1.36
-1.2
-1.22
-1.48
-2.02
-2.82
-3.8
-4.81
-5.73
-6.53
-7.32
-8.24
-9.46
-11.06
-13.09
-15.51
-18.16
-20.68
-22.59
-23.31
-22.42
-19.83
-15.87
-11.19
-6.49
-2.32
1.06
3.69
5.77
7.5
8.99
10.25
11.22
11.79
11.87
11.44
10.59
9.5
8.43
7.57
7.05
6.85
6.87
6.96
6.98
6.84
6.48
5.81
4.78
3.39
1.67
-0.24
-2.19
-4.02
-5.67
-7.13
-8.49
-9.82
-11.15
-12.48
-13.76
-15.04
-16.38
-17.84
-19.31
-20.49
-20.92
-20.12
-17.89
-14.36
-10.04
-5.58
-1.48
2.0
4.91
7.44
9.73
11.77
13.46
14.68
15.37
15.6
15.54
15.32
15.06
14.78
14.43
13.97
13.39
12.76
12.16
11.66
11.23
10.76
10.08
9.14
7.96
6.64
5.29
3.87
2.24
0.26
-2.08
-4.66
-7.22
-9.6
-11.81
-14.06
-16.59
-19.56
-22.86
-26.16
-28.97
-30.8
-31.36
-30.57
-28.63
-25.89
-22.77
-19.57
-16.45
-13.44
-10.53
-7.76
-5.29
-3.3
-1.99
-1.39
-1.44
-1.96
-2.71
-3.58
-4.53
-5.65
-7.08
-8.82
-10.73
-12.43
-13.46
-13.43
-12.13
-9.62
-6.16
-2.13
2.11
6.23
9.9
12.9
15.21
17.12
19.22
22.22
26.63
32.47
39.14
45.68
51.11
54.94
57.34
59.11
61.25
64.43
68.57
72.88
76.11
77.22
75.77
72.14
67.2
61.79
56.13
49.67
41.32
30.14
15.89
-0.71
-18.12
-34.54
-48.5
-59.21
-66.58
-71.0
-73.03
-73.26
-72.23
-70.55
-68.97
-68.21
-68.74
-70.55
-72.99
-74.99
-75.44
-73.66
-69.66
-64.13
-58.17
-52.83
-48.95
-46.92
-46.75
-48.16
-50.62
-53.27
-55.13
-55.28
-53.15
-48.78
-42.72
-35.84
-28.85
-22.16
-15.77
-9.55
-3.42
2.51
7.99
12.79
16.83
20.14
22.82
24.94
26.5
27.49
27.92
27.9
27.57
27.03
26.3
25.33
24.08
22.58
20.9
19.14
17.23
14.96
11.95
7.95
3.04
-2.29
-7.24
-11.1
-13.56
-14.89
-15.7
-16.48
-17.22
-17.36
-15.95
-12.22
-5.96
2.38
11.86
21.43
30.16
37.36
42.56
45.49
46.09
44.53
41.26
36.81
31.72
26.35
20.85
15.28
9.78
4.56
-0.02
-3.53
-5.54
-5.6
-3.34
1.44
8.62
17.7
27.76
37.71
46.55
53.66
58.93
62.6
65.08
66.6
67.22
66.82
65.35
63.05
60.36
57.82
55.79
54.36
53.31
52.25
50.85
48.94
46.46
43.49
40.06
36.15
31.68
26.64
21.11
15.34
9.61
4.13
-1.01
-5.83
-10.34
-14.47
-17.97
-20.55
-22.0
-22.37
-21.98
-21.3
-20.75
-20.58
-20.8
-21.27
-21.9
-22.65
-23.61
-24.89
-26.53
-28.51
-30.75
-33.17
-35.69
-38.2
-40.46
-42.16
-42.93
-42.5
-40.8
-38.04
-34.64
-31.09
-27.73
-24.68
-21.88
-19.17
-16.5
-13.99
-11.87
-10.39
-9.62
-9.41
-9.42
-9.27
-8.65
-7.48
-5.85
-3.99
-2.2
-0.84
-0.32
-1.06
-3.39
-7.44
-13.0
-19.57
-26.45
-33.01
-38.84
-43.75
-47.58
-50.05
-50.55
-48.23
-42.44
-33.01
-20.62
-6.73
6.77
18.07
25.96
30.08
30.87
29.23
26.21
22.59
18.83
15.11
11.46
7.99
4.91
2.5
0.91
0.1
-0.19
-0.38
-0.77
-1.5
-2.48
-3.54
-4.63
-5.96
-7.9
-10.88
-15.12
-20.45
-26.26
-31.65
-35.63
-37.34
-36.2
-32.02
-25.16
-16.46
-7.14
1.47
8.25
12.65
14.76
15.18
14.69
13.88
12.9
11.55
9.43
6.32
2.43
-1.52
-4.44
-5.22
-3.16
1.68
8.38
15.39
21.11
24.41
24.92
23.06
19.63
15.37
10.75
5.94
1.0
-3.77
-7.93
-10.95
-12.51
-12.67
-11.87
-10.66
-9.47
-8.4
-7.26
-5.73
-3.6
-0.93
1.98
4.74
7.01
8.67
9.85
10.78
11.63
12.46
13.17
13.49
13.22
12.24
10.6
8.53
6.35
4.29
2.48
0.88
-0.64
-2.17
-3.72
-5.22
-6.53
-7.59
-8.43
-9.16
-9.95
-10.95
-12.25
-13.9
-15.84
-17.89
-19.76
-21.08
-21.48
-20.73
-18.81
-15.89
-12.3
-8.41
-4.51
-0.85
2.43
5.25
7.53
9.24
10.37
10.91
10.83
10.14
8.88
7.21
5.38
3.72
2.53
1.96
2.0
2.44
2.99
3.33
3.22
2.61
1.57
0.26
-1.17
-2.68
-4.38
-6.47
-9.08
-12.28
-15.95
-19.85
-23.58
-26.71
-28.78
-29.4
-28.29
-25.41
-20.94
-15.37
-9.33
-3.51
1.5
5.34
7.9
9.29
9.72
9.47
8.78
7.77
6.5
4.92
3.05
1.07
-0.53
-0.87
1.05
6.08
14.45
25.45
37.37
47.95
54.97
56.94
53.53
45.53
34.57
22.5
10.92
0.87
-7.17
-13.17
-17.28
-19.67
-20.54
-20.09
-18.66
-16.61
-14.29
-11.96
-9.68
-7.49
-5.49
-3.85
-2.72
-1.95
-0.9
1.47
6.22
13.8
23.63
34.1
43.06
48.61
49.74
46.63
40.35
32.39
24.07
16.28
9.45
3.69
-0.97
-4.6
-7.37
-9.62
-11.87
-14.64
-18.33
-22.94
-28.03
-32.71
-35.96
-36.96
-35.35
-31.38
-25.83
-19.7
-13.89
-8.92
-4.86
-1.43
1.7
4.69
7.43
9.61
10.94
11.38
11.14
10.61
10.16
9.98
9.99
9.97
9.73
9.22
8.59
8.04
7.67
7.37
6.84
5.75
3.85
1.2
-1.93
-5.07
-7.82
-9.95
-11.41
-12.34
-12.89
-13.15
-13.09
-12.68
-11.88
-10.68
-9.07
-7.04
-4.56
-1.68
1.48
4.72
7.81
10.59
12.96
14.93
16.48
17.63
18.4
18.82
18.97
18.9
18.67
18.28
17.77
17.25
16.86
16.72
16.83
17.04
17.08
16.69
15.78
14.48
13.07
11.83
10.93
10.29
9.73
8.99
7.91
6.45
4.69
2.73
0.65
-1.56
-3.99
-6.67
-9.53
-12.4
-15.05
-17.38
-19.47
-21.59
-24.09
-27.21
-30.89
-34.71
-37.99
-39.95
-40.01
-37.97
-34.01
-28.63
-22.47
-16.09
-9.96
-4.34
0.64
4.91
8.45
11.32
13.63
15.48
16.96
18.03
18.6
18.57
17.95
16.93
15.89
15.2
15.18
15.91
17.24
18.91
20.61
22.12
23.29
24.05
24.29
23.89
22.78
20.92
18.4
15.38
12.07
8.65
5.26
2.0
-1.1
-4.06
-6.93
-9.85
-12.96
-16.39
-20.12
-23.96
-27.48
-30.11
-31.27
-30.57
-27.96
-23.78
-18.62
-13.15
-7.95
-3.33
0.58
3.82
6.51
8.71
10.45
11.76
12.66
13.2
13.4
13.32
13.02
12.63
12.26
12.08
12.14
12.41
12.75
12.94
12.81
12.28
11.4
10.35
9.29
8.26
7.17
5.85
4.22
2.34
0.37
-1.52
-3.3
-5.1
-7.11
-9.46
-12.14
-14.99
-17.87
-20.7
-23.42
-25.92
-27.88
-28.82
-28.25
-25.89
-21.87
-16.68
-11.02
-5.52
-0.6
3.55
6.97
9.78
12.07
13.91
15.35
16.39
16.99
17.14
16.86
16.19
15.24
14.14
13.07
12.15
11.46
11.01
10.76
10.66
10.64
10.67
10.72
10.74
10.65
10.39
9.91
9.19
8.22
6.98
5.38
3.37
0.93
-1.79
-4.58
-7.21
-9.61
-11.9
-14.36
-17.26
-20.63
-24.18
-27.3
-29.27
-29.53
-27.87
-24.45
-19.81
-14.64
-9.62
-5.18
-1.46
1.6
4.25
6.66
8.86
10.76
12.21
13.1
13.45
13.44
13.29
13.2
13.25
13.37
13.43
13.3
12.94
12.36
11.68
11.0
10.34
9.62
8.75
7.66
6.37
4.91
3.38
1.82
0.25
-1.34
-2.91
-4.45
-5.93
-7.4
-9.03
-11.01
-13.57
-16.77
-20.45
-24.2
-27.39
-29.36
-29.59
-27.87
-24.36
-19.56
-14.09
-8.57
-3.43
1.1
5.01
8.36
11.25
13.72
15.74
17.25
18.23
18.67
18.63
18.25
17.7
17.13
16.66
16.33
16.15
16.14
16.26
16.5
16.72
16.71
16.24
15.16
13.46
11.34
9.11
7.07
5.37
3.99
2.72
1.31
-0.44
-2.6
-5.03
-7.49
-9.74
-11.64
-13.27
-14.79
-16.44
-18.35
-20.56
-22.99
-25.52
-28.03
-30.33
-32.11
-32.93
-32.32
-29.96
-25.86
-20.4
-14.28
-8.24
-2.84
1.67
5.36
8.45
11.13
13.46
15.38
16.74
17.46
17.68
17.64
17.63
17.83
18.21
18.58
18.69
18.5
18.12
17.81
17.75
17.94
18.15
18.05
17.43
16.23
14.62
12.84
11.09
9.46
7.92
6.4
4.88
3.34
1.83
0.38
-1.04
-2.45
-3.92
-5.49
-7.1
-8.7
-10.19
-11.55
-12.87
-14.31
-16.05
-18.25
-20.98
-24.13
-27.5
-30.67
-33.13
-34.36
-33.94
-31.74
-27.94
-23.01
-17.59
-12.21
-7.21
-2.72
1.26
4.72
7.61
9.9
11.61
12.87
13.84
14.63
15.24
15.54
15.43
14.9
14.08
13.29
12.77
12.66
12.88
13.19
13.36
13.21
12.74
12.04
11.22
10.3
9.26
7.98
6.42
4.58
2.52
0.34
-1.92
-4.27
-6.72
-9.32
-12.06
-14.95
-17.98
-21.15
-24.46
-27.81
-30.94
-33.46
-34.85
-34.64
-32.58
-28.74
-23.49
-17.4
-11.13
-5.23
0.0
4.45
8.25
11.58
14.61
17.39
19.8
21.67
22.86
23.3
23.07
22.38
21.44
20.51
19.74
19.19
18.86
18.67
18.53
18.35
18.06
17.57
16.83
15.76
14.34
12.61
10.67
8.66
6.73
4.93
3.19
1.36
-0.72
-3.1
-5.68
-8.29
-10.71
-12.82
-14.67
-16.42
-18.3
-20.54
-23.27
-26.51
-30.13
-33.82
-37.14
-39.57
-40.55
-39.7
-36.86
-32.24
-26.34
-19.8
-13.27
-7.24
-1.96
2.55
6.38
9.66
12.4
14.66
16.44
17.82
18.88
19.7
20.3
20.65
20.69
20.41
19.88
19.26
18.69
18.27
18.0
17.85
17.76
17.66
17.46
17.09
16.41
15.35
13.9
12.1
10.09
8.03
6.03
4.14
2.3
0.37
-1.79
-4.26
-6.98
-9.77
-12.46
-14.91
-17.14
-19.3
-21.61
-24.28
-27.4
-30.93
-34.64
-38.15
-40.9
-42.29
-41.79
-39.17
-34.63
-28.69
-22.1
-15.53
-9.42
-3.94
0.89
5.07
8.57
11.36
13.44
14.89
15.89
16.62
17.25
17.86
18.47
19.02
19.46
19.71
19.71
19.44
18.91
18.23
17.5
16.77
16.08
15.32
14.43
13.34
12.07
10.74
9.42
8.16
6.89
5.45
3.71
1.67
-0.57
-2.84
-4.97
-6.95
-8.85
-10.83
-12.99
-15.38
-17.99
-20.83
-23.9
-27.2
-30.62
-33.82
-36.26
-37.3
-36.47
-33.56
-28.76
-22.62
-15.87
-9.19
-3.12
2.1
6.48
10.18
13.36
16.13
18.45
20.21
21.3
21.68
21.47
20.9
20.2
19.57
19.11
18.87
18.84
19.0
19.26
19.49
19.48
19.03
18.03
16.52
14.6
12.44
10.13
7.67
5.01
2.09
-1.06
-4.29
-7.4
-10.25
-12.8
-15.19
-17.68
-20.57
-24.07
-28.26
-32.98
-37.83
-42.2
-45.39
-46.74
-45.74
-42.23
-36.47
-29.12
-21.07
-13.23
-6.26
-0.46
4.21
8.0
11.23
14.16
16.92
19.57
22.06
24.32
26.22
27.62
28.43
28.65
28.36
27.74
27.0
26.33
25.84
25.56
25.42
25.22
24.73
23.73
22.12
19.93
17.35
14.63
12.01
9.61
7.41
5.28
3.01
0.41
-2.61
-5.99
-9.54
-12.99
-16.11
-18.84
-21.29
-23.77
-26.67
-30.33
-34.88
-40.09
-45.34
-49.75
-52.29
-52.22
-49.22
-43.58
-36.09
-27.74
-19.44
-11.81
-5.11
0.67
5.7
10.13
14.06
17.57
20.67
23.33
25.54
27.24
28.42
29.09
29.33
29.29
29.14
29.06
29.13
29.37
29.63
29.73
29.49
28.82
27.73
26.33
24.83
23.37
22.06
20.93
19.91
18.94
17.93
16.85
15.73
14.65
13.67
12.75
11.67
10.07
7.6
4.07
-0.41
-5.41
-10.36
-14.72
-18.19
-20.72
-22.48
-23.75
-24.84
-26.06
-27.76
-30.24
-33.61
-37.59
-41.51
-44.38
-45.23
-43.5
-39.27
-33.22
-26.35
-19.6
-13.49
-8.12
-3.26
1.31
5.68
9.72
13.21
16.02
18.14
19.74
20.99
22.04
22.98
23.83
24.6
25.3
25.96
26.57
27.07
27.4
27.46
27.13
26.31
24.9
22.89
20.35
17.51
14.66
12.07
9.89
8.09
6.43
4.6
2.34
-0.47
-3.67
-6.96
-10.04
-12.75
-15.2
-17.69
-20.59
-24.16
-28.43
-33.2
-38.04
-42.36
-45.47
-46.72
-45.59
-41.89
-35.87
-28.16
-19.67
-11.27
-3.54
3.26
9.21
14.48
19.2
23.39
26.97
29.85
31.99
33.42
34.25
34.61
34.6
34.37
33.99
33.53
33.0
32.38
31.64
30.78
29.83
28.76
27.56
26.11
24.27
22.0
19.37
16.62
14.0
11.69
9.63
7.61
5.3
2.53
-0.67
-4.03
-7.24
-10.07
-12.52
-14.75
-17.0
-19.44
-22.17
-25.27
-28.82
-32.91
-37.48
-42.16
-46.24
-48.8
-49.01
-46.43
-41.19
-33.93
-25.55
-16.95
-8.84
-1.7
4.27
9.03
12.66
15.39
17.51
19.33
21.08
22.81
24.45
25.81
26.72
27.11
27.05
26.67
26.19
25.74
25.4
25.17
24.99
24.79
24.51
24.05
23.28
22.1
20.47
18.5
16.35
14.21
12.16
10.16
8.02
5.53
2.58
-0.77
-4.33
-7.83
-11.09
-14.04
-16.74
-19.39
-22.23
-25.52
-29.44
-34.0
-38.93
-43.66
-47.42
-49.37
-48.91
-45.85
-40.42
-33.3
-25.3
-17.24
-9.73
-3.13
2.49
7.25
11.39
15.15
18.63
21.78
24.39
26.24
27.21
27.37
26.96
26.28
25.57
24.92
24.34
23.8
23.3
22.9
22.59
22.25
21.68
20.62
18.96
16.76
14.31
11.89
9.74
7.84
6.01
3.95
1.45
-1.52
-4.85
-8.26
-11.52
-14.47
-17.14
-19.74
-22.55
-25.85
-29.69
-33.81
-37.6
-40.23
-40.91
-39.16
-35.01
-29.01
-22.0
-14.87
-8.24
-2.4
2.7
7.24
11.32
14.93
17.94
20.24
21.81
22.77
23.27
23.45
23.37
23.04
22.46
21.74
21.01
20.43
20.04
19.77
19.43
18.85
17.92
16.69
15.29
13.87
12.57
11.48
10.58
9.73
8.67
7.05
4.6
1.17
-3.12
-7.96
-12.92
-17.54
-21.48
-24.53
-26.59
-27.71
-28.06
-27.91
-27.63
-27.63
-28.24
-29.56
-31.48
-33.57
-35.28
-36.06
-35.46
-33.19
-29.18
-23.4
-15.88
-6.72
3.93
15.67
27.91
39.89
50.76
59.68
65.9
68.88
68.36
64.51
58.0
49.84
41.27
33.39
26.97
22.28
19.21
17.35
16.27
15.59
15.04
14.5
13.92
13.23
12.43
11.5
10.42
9.22
7.94
6.61
5.22
3.71
2.0
0.03
-2.21
-4.6
-6.96
-9.12
-11.0
-12.62
-14.16
-15.83
-17.73
-19.89
-22.18
-24.39
-26.38
-28.18
-29.97
-32.07
-34.74
-38.01
-41.63
-45.0
-47.37
-48.05
-46.58
-42.88
-37.25
-30.33
-22.86
-15.54
-8.84
-3.0
2.01
6.32
10.08
13.4
16.28
18.68
20.58
22.01
23.02
23.69
24.04
24.08
23.77
23.15
22.3
21.41
20.69
20.27
20.17
20.17
19.97
19.26
17.88
15.89
13.54
11.16
9.01
7.23
5.75
4.42
3.03
1.43
-0.46
-2.62
-4.98
-7.42
-9.82
-12.12
-14.28
-16.4
-18.6
-21.08
-24.02
-27.56
-31.69
-36.14
-40.37
-43.61
-45.06
-44.16
-40.8
-35.38
-28.64
-21.45
-14.54
-8.35
-3.02
1.58
5.67
9.53
13.35
17.19
20.9
24.11
26.36
27.27
26.72
24.93
22.44
19.9
17.92
16.87
16.85
17.73
19.24
21.12
23.08
24.87
26.24
26.95
26.78
25.6
23.42
20.35
16.58
12.3
7.7
2.88
-2.04
-6.9
-11.5
-15.63
-19.15
-22.05
-24.55
-26.96
-29.62
-32.71
-36.16
-39.56
-42.27
-43.59
-42.99
-40.22
-35.42
-29.07
-21.84
-14.45
-7.52
-1.46
3.56
7.61
10.92
13.75
16.31
18.65
20.72
22.4
23.58
24.24
24.44
24.3
23.99
23.62
23.33
23.16
23.13
23.14
23.05
22.67
21.93
20.85
19.54
18.19
16.9
15.7
14.53
13.24
11.76
10.04
8.11
6.04
3.91
1.78
-0.31
-2.38
-4.5
-6.74
-9.2
-11.86
-14.72
-17.64
-20.51
-23.24
-25.87
-28.58
-31.67
-35.33
-39.45
-43.51
-46.64
-47.9
-46.65
-42.82
-36.93
-29.87
-22.59
-15.76
-9.71
-4.49
-0.04
3.74
6.94
9.62
11.91
13.93
15.73
17.28
18.52
19.36
19.76
19.81
19.58
19.24
18.96
18.84
18.93
19.13
19.27
19.1
18.5
17.5
16.27
15.03
13.92
12.91
11.83
10.48
8.79
6.8
4.69
2.67
0.82
-0.86
-2.51
-4.27
-6.26
-8.48
-10.86
-13.29
-15.65
-17.88
-19.99
-22.05
-24.21
-26.56
-29.18
-32.09
-35.15
-38.07
-40.46
-41.79
-41.54
-39.34
-35.09
-29.07
-21.88
-14.33
-7.17
-0.97
4.07
8.02
11.12
13.59
15.57
17.08
18.13
18.76
19.12
19.34
19.55
19.73
19.83
19.78
19.6
19.4
19.27
19.24
19.24
19.07
18.52
17.51
16.09
14.44
12.77
11.23
9.83
8.46
6.93
5.1
2.89
0.36
-2.35
-5.07
-7.66
-10.02
-12.19
-14.35
-16.75
-19.67
-23.17
-27.08
-30.88
-33.87
-35.31
-34.69
-31.87
-27.1
-20.94
-14.14
-7.42
-1.31
3.9
8.16
11.57
14.28
16.44
18.08
19.28
20.11
20.71
21.22
21.67
21.98
21.97
21.52
20.64
19.52
18.45
17.68
17.28
17.08
16.82
16.21
15.08
13.38
11.24
8.82
6.31
3.86
1.58
-0.54
-2.53
-4.46
-6.4
-8.42
-10.5
-12.6
-14.64
-16.61
-18.52
-20.53
-22.82
-25.62
-29.02
-32.94
-37.07
-40.88
-43.72
-44.99
-44.27
-41.46
-36.86
-31.02
-24.63
-18.31
-12.45
-7.19
-2.44
1.93
6.0
9.74
13.03
15.77
17.9
19.44
20.46
21.05
21.3
21.28
21.07
20.79
20.53
20.41
20.48
20.69
20.95
21.1
21.0
20.52
19.58
18.17
16.34
14.21
11.91
9.61
7.44
5.43
3.53
1.57
-0.59
-3.01
-5.57
-8.09
-10.36
-12.39
-14.32
-16.47
-19.14
-22.48
-26.42
-30.65
-34.67
-37.84
-39.57
-39.38
-37.07
-32.82
-27.14
-20.72
-14.27
-8.27
-2.97
1.65
5.66
9.15
12.15
14.66
16.69
18.25
19.42
20.28
20.9
21.34
21.63
21.78
21.81
21.76
21.65
21.48
21.25
20.89
20.33
19.5
18.41
17.11
15.65
14.08
12.41
10.63
8.74
6.76
4.71
2.6
0.38
-1.96
-4.43
-6.94
-9.38
-11.66
-13.8
-15.95
-18.35
-21.19
-24.45
-27.86
-30.82
-32.66
-32.79
-30.87
-27.02
-21.68
-15.5
-9.16
-3.22
1.96
6.24
9.64
12.32
14.51
16.38
18.01
19.34
20.27
20.7
20.66
20.28
19.77
19.25
18.74
18.17
17.44
16.55
15.65
14.92
14.46
14.26
14.13
13.84
13.22
12.2
10.84
9.24
7.46
5.52
3.45
1.28
-0.96
-3.18
-5.33
-7.37
-9.33
-11.21
-13.03
-14.78
-16.45
-18.1
-19.83
-21.77
-24.11
-26.98
-30.45
-34.39
-38.47
-42.13
-44.67
-45.47
-44.12
-40.62
-35.36
-29.03
-22.38
-16.01
-10.25
-5.16
-0.62
3.51
7.29
10.69
13.59
15.84
17.36
18.16
18.37
18.23
18.0
17.85
17.86
18.0
18.19
18.35
18.47
18.53
18.5
18.29
17.79
16.93
15.77
14.45
13.12
11.88
10.74
9.66
8.55
7.39
6.15
4.79
3.24
1.42
-0.78
-3.33
-6.14
-9.03
-11.87
-14.56
-17.15
-19.79
-22.6
-25.67
-28.88
-31.9
-34.2
-35.25
-34.63
-32.18
-28.04
-22.61
-16.49
-10.25
-4.36
0.86
5.29
8.95
11.94
14.34
16.24
17.71
18.79
19.5
19.9
20.04
20.0
19.81
19.53
19.16
18.76
18.34
17.96
17.61
17.25
16.8
16.14
15.2
13.93
12.34
10.47
8.32
5.91
3.26
0.42
-2.47
-5.25
-7.78
-10.03
-12.08
-14.08
-16.25
-18.73
-21.64
-24.92
-28.35
-31.49
-33.74
-34.48
-33.28
-30.06
-25.13
-19.11
-12.73
-6.62
-1.22
3.32
7.03
10.02
12.46
14.48
16.14
17.48
18.48
19.14
19.44
19.4
19.03
18.33
17.39
16.28
15.22
14.33
13.72
13.3
12.94
12.47
11.82
11.07
10.33
9.66
8.95
8.0
6.55
4.49
1.92
-0.92
-3.69
-6.18
-8.29
-10.11
-11.83
-13.69
-15.9
-18.58
-21.73
-25.17
-28.61
-31.6
-33.68
-34.43
-33.6
-31.15
-27.34
-22.62
-17.55
-12.65
-8.21
-4.3
-0.8
2.48
5.61
8.56
11.23
13.54
15.54
17.43
19.41
21.6
23.96
26.32
28.47
30.26
31.64
32.64
33.29
33.55
33.27
32.28
30.44
27.75
24.36
20.56
16.66
12.94
9.51
6.35
3.29
0.14
-3.26
-6.92
-10.68
-14.32
-17.65
-20.61
-23.26
-25.8
-28.45
-31.31
-34.41
-37.61
-40.67
-43.26
-44.96
-45.34
-44.04
-40.9
-36.09
-30.08
-23.54
-17.17
-11.49
-6.75
-2.95
0.08
2.56
4.69
6.62
8.41
10.07
11.55
12.75
13.55
13.85
13.66
13.11
12.44
11.96
11.94
12.42
13.22
14.0
14.42
14.28
13.61
12.6
11.42
10.22
8.99
7.72
6.35
4.89
3.33
1.65
-0.22
-2.33
-4.68
-7.22
-9.88
-12.62
-15.47
-18.49
-21.75
-25.22
-28.79
-32.19
-35.08
-36.99
-37.45
-36.13
-32.93
-28.11
-22.18
-15.85
-9.74
-4.28
0.39
4.33
7.69
10.57
13.01
14.97
16.39
17.29
17.73
17.84
17.79
17.67
17.54
17.4
17.19
16.84
16.33
15.63
14.75
13.69
12.47
11.11
9.69
8.27
6.88
5.45
3.86
1.94
-0.43
-3.24
-6.39
-9.68
-13.0
-16.3
-19.68
-23.27
-27.06
-30.79
-33.94
-35.85
-35.91
-33.83
-29.71
-24.02
-17.45
-10.7
-4.31
1.34
6.08
9.87
12.78
14.99
16.64
17.9
18.83
19.47
19.87
20.07
20.17
20.26
20.32
20.28
20.05
19.57
18.9
18.14
17.4
16.68
15.84
14.75
13.33
11.66
9.95
8.39
7.03
5.75
4.25
2.3
-0.19
-3.11
-6.18
-9.14
-11.84
-14.32
-16.77
-19.45
-22.58
-26.21
-30.24
-34.31
-37.89
-40.35
-41.13
-39.85
-36.47
-31.28
-24.87
-17.99
-11.31
-5.31
-0.21
4.01
7.5
10.5
13.19
15.67
17.89
19.76
21.11
21.89
22.12
21.93
21.5
20.95
20.34
19.69
19.07
18.55
18.26
18.18
18.21
18.07
17.45
16.2
14.36
12.19
9.99
7.98
6.16
4.36
2.34
-0.01
-2.68
-5.49
-8.23
-10.71
-12.87
-14.79
-16.59
-18.49
-20.71
-23.47
-26.86
-30.75
-34.7
-37.98
-39.75
-39.39
-36.68
-31.92
-25.78
-19.09
-12.51
-6.46
-1.09
3.65
7.86
11.61
14.94
17.84
20.29
22.23
23.66
24.59
25.09
25.22
25.02
24.55
23.88
23.16
22.6
22.32
22.37
22.63
22.83
22.73
22.14
21.03
19.5
17.72
15.86
14.0
12.15
10.28
8.33
6.25
4.02
1.67
-0.71
-3.04
-5.24
-7.31
-9.3
-11.34
-13.6
-16.22
-19.31
-22.81
-26.49
-29.87
-32.42
-33.54
-32.84
-30.2
-25.85
-20.27
-14.06
-7.8
-1.91
3.39
8.09
12.23
15.88
19.0
21.56
23.5
24.83
25.73
26.42
27.09
27.78
28.29
28.25
27.33
25.35
22.49
19.21
16.1
13.63
11.95
10.95
10.31
9.75
9.13
8.48
7.92
7.54
7.28
6.95
6.25
4.89
2.79
0.07
-2.99
-6.0
-8.68
-10.97
-12.99
-15.06
-17.51
-20.56
-24.24
-28.34
-32.46
-36.03
-38.42
-39.09
-37.71
-34.29
-29.18
-23.0
-16.41
-9.96
-4.0
1.34
6.04
10.07
13.41
16.05
18.02
19.42
20.41
21.11
21.59
21.83
21.88
21.79
21.66
21.55
21.44
21.24
20.87
20.32
19.63
18.92
18.19
17.41
16.44
15.16
13.53
11.63
9.62
7.66
5.86
4.19
2.55
0.76
-1.34
-3.82
-6.58
-9.41
-12.05
-14.37
-16.41
-18.42
-20.66
-23.31
-26.36
-29.63
-32.82
-35.62
-37.65
-38.55
-37.96
-35.65
-31.64
-26.25
-20.08
-13.8
-8.01
-3.03
1.08
4.45
7.28
9.77
12.0
13.98
15.63
16.85
17.6
17.89
17.8
17.5
17.11
16.71
16.31
15.89
15.43
14.9
14.27
13.5
12.58
11.52
10.39
9.24
8.06
6.78
5.24
3.38
1.26
-0.92
-2.82
-4.16
-4.78
-4.78
-4.46
-4.31
-4.87
-6.5
-9.3
-13.08
-17.36
-21.59
-25.31
-28.26
-30.32
-31.43
-31.41
-29.95
-26.66
-21.27
-13.75
-4.41
6.12
17.02
27.37
36.3
43.14
47.51
49.33
48.83
46.43
42.63
37.93
32.78
27.58
22.69
18.43
15.02
12.52
10.8
9.56
8.44
7.11
5.47
3.64
1.9
0.54
-0.35
-0.94
-1.58
-2.61
-4.21
-6.31
-8.63
-10.88
-12.88
-14.62
-16.2
-17.75
-19.39
-21.25
-23.42
-26.01
-28.98
-32.13
-34.98
-36.96
-37.44
-36.05
-32.76
-27.88
-22.01
-15.83
-9.89
-4.56
0.03
3.89
7.06
9.55
11.39
12.65
13.42
13.87
14.11
14.23
14.21
14.0
13.56
12.93
12.21
11.59
11.21
11.19
11.48
11.88
12.1
11.85
10.95
9.41
7.44
5.37
3.49
1.94
0.77
-0.11
-0.77
-1.21
-1.35
-1.14
-0.62
0.05
0.54
0.45
-0.62
-2.93
-6.55
-11.28
-16.65
-21.96
-26.43
-29.39
-30.44
-29.52
-26.91
-23.15
-18.85
-14.52
-10.52
-6.92
-3.67
-0.61
2.31
5.07
7.56
9.62
11.17
12.22
12.81
13.04
12.97
12.66
12.2
11.69
11.22
10.88
10.7
10.67
10.74
10.8
10.68
10.22
9.31
7.96
6.34
4.7
3.27
2.12
1.09
-0.1
-1.75
-3.94
-6.57
-9.33
-11.91
-14.08
-15.84
-17.39
-19.05
-21.15
-23.87
-27.18
-30.76
-34.06
-36.42
-37.2
-35.99
-32.68
-27.55
-21.16
-14.23
-7.45
-1.38
3.69
7.68
10.72
12.99
14.7
15.97
16.85
17.32
17.35
17.0
16.41
15.81
15.4
15.25
15.3
15.34
15.21
14.85
14.37
13.91
13.55
13.18
12.56
11.4
9.57
7.17
4.47
1.81
-0.54
-2.53
-4.28
-6.01
-8.0
-10.45
-13.48
-17.02
-20.84
-24.49
-27.42
-29.06
-28.96
-26.95
-23.13
-17.9
-11.88
-5.73
0.0
4.98
9.1
12.44
15.14
17.3
18.95
20.1
20.73
20.9
20.76
20.5
20.27
20.15
20.09
20.02
19.83
19.53
19.21
18.98
18.93
18.95
18.81
18.23
17.04
15.28
13.18
11.05
9.08
7.27
5.47
3.5
1.27
-1.15
-3.63
-6.07
-8.44
-10.78
-13.13
-15.47
-17.72
-19.83
-21.91
-24.18
-26.89
-30.18
-33.89
-37.55
-40.45
-41.82
-41.13
-38.23
-33.4
-27.33
-20.77
-14.45
-8.8
-3.98
0.06
3.51
6.51
9.17
11.48
13.43
14.99
16.15
16.95
17.4
17.51
17.29
16.83
16.24
15.7
15.35
15.2
15.18
15.11
14.84
14.32
13.61
12.78
11.86
10.81
9.54
7.99
6.17
4.14
1.99
-0.22
-2.51
-4.88
-7.32
-9.75
-12.07
-14.19
-16.06
-17.67
-19.07
-20.29
-21.42
-22.48
-23.45
-24.18
-24.47
-24.07
-22.65
-19.98
-15.89
-10.39
-3.66
3.95
12.04
20.21
28.12
35.52
42.16
47.91
52.78
56.93
60.64
64.19
67.62
70.67
72.91
73.95
73.75
72.67
71.31
70.19
69.5
68.98
68.13
66.54
64.1
61.09
57.98
55.17
52.76
50.54
48.12
45.15
41.51
37.34
32.88
28.28
23.44
18.06
11.77
4.39
-4.01
-13.1
-22.5
-31.88
-41.09
-50.0
-58.4
-65.89
-71.91
-75.92
-77.58
-76.99
-74.6
-71.12
-67.26
-63.57
-60.22
-57.13
-54.07
-50.92
-47.77
-44.93
-42.79
-41.59
-41.28
-41.6
-42.18
-42.73
-43.15
-43.51
-43.89
-44.31
-44.74
-45.17
-45.77
-46.9
-48.97
-52.25
-56.63
-61.6
-66.32
-69.94
-71.83
-71.82
-70.23
-67.7
-64.91
-62.34
-60.09
-57.95
-55.54
-52.64
-49.28
-45.83
-42.82
-40.7
-39.67
-39.51
-39.68
-39.48
-38.33
-35.92
-32.3
-27.81
-22.99
-18.38
-14.4
-11.26
-8.88
-6.89
-4.8
-2.06
1.64
6.26
11.4
16.42
20.68
23.78
25.66
26.6
27.07
27.67
28.98
31.43
35.15
39.8
44.64
48.77
51.5
52.78
53.19
53.81
55.63
59.15
64.17
69.93
75.49
80.13
83.47
85.4
85.89
84.91
82.41
78.46
73.35
67.57
61.67
56.06
50.85
45.88
40.84
35.54
30.07
24.86
20.6
17.98
17.43
18.92
21.97
25.74
29.31
31.95
33.33
33.52
32.93
32.08
31.39
31.03
30.92
30.8
30.43
29.71
28.8
28.07
27.94
28.66
30.23
32.38
34.66
36.76
38.56
40.24
42.14
44.52
47.37
50.36
53.0
54.76
55.36
54.78
53.17
50.71
47.41
43.15
37.72
31.09
23.44
15.11
6.47
-2.28
-11.05
-19.78
-28.13
-35.54
-41.23
-44.62
-45.55
-44.4
-41.95
-39.08
-36.49
-34.52
-33.17
-32.25
-31.55
-30.96
-30.46
-30.06
-29.81
-29.74
-29.84
-30.02
-30.15
-30.06
-29.58
-28.67
-27.38
-25.89
-24.37
-23.02
-22.02
-21.51
-21.63
-22.44
-23.91
-25.84
-27.92
-29.8
-31.24
-32.21
-32.95
-33.88
-35.43
-37.95
-41.54
-46.04
-51.08
-56.19
-60.89
-64.75
-67.38
-68.47
-67.72
-65.03
-60.55
-54.73
-48.28
-41.97
-36.3
-31.46
-27.29
-23.52
-20.02
-16.87
-14.27
-12.33
-10.86
-9.29
-6.88
-2.98
2.69
9.96
18.35
27.21
35.94
44.0
51.0
56.59
60.47
62.46
62.48
60.63
57.11
52.22
46.33
39.82
33.09
26.42
19.93
13.52
6.94
-0.11
-7.8
-16.06
-24.62
-33.13
-41.28
-48.93
-56.1
-62.8
-68.93
-74.17
-78.04
-80.12
-80.18
-78.33
-74.99
-70.69
-65.78
-60.41
-54.39
-47.54
-39.77
-31.28
-22.54
-14.07
-6.27
0.77
7.29
13.69
20.35
27.39
34.6
41.49
47.44
51.97
54.81
55.99
55.75
54.3
51.82
48.36
43.93
38.62
32.72
26.64
20.83
15.66
11.23
7.4
3.85
0.27
-3.47
-7.29
-10.96
-14.2
-16.91
-19.19
-21.42
-24.07
-27.54
-31.97
-37.06
-42.08
-46.04
-47.98
-47.24
-43.75
-38.05
-31.08
-23.88
-17.28
-11.71
-7.2
-3.51
-0.4
2.24
4.33
5.71
6.28
6.16
5.72
5.45
5.79
6.92
8.65
10.53
12.04
12.77
12.61
11.67
10.17
8.31
6.18
3.78
1.08
-1.91
-5.1
-8.34
-11.51
-14.57
-17.52
-20.31
-22.8
-24.75
-25.97
-26.41
-26.35
-26.22
-26.52
-27.45
-28.77
-29.86
-29.96
-28.43
-25.03
-19.9
-13.46
-6.18
1.57
9.49
17.35
24.94
31.97
38.17
43.33
47.38
50.37
52.39
53.56
53.98
53.7
52.82
51.45
49.78
48.05
46.5
45.29
44.47
43.93
43.41
42.64
41.33
39.33
36.6
33.23
29.33
24.98
20.27
15.34
10.42
5.81
1.74
-1.71
-4.74
-7.71
-10.99
-14.85
-19.26
-24.03
-28.86
-33.54
-38.03
-42.49
-47.11
-51.98
-56.95
-61.48
-64.76
-65.9
-64.18
-59.33
-51.6
-41.71
-30.52
-18.89
-7.46
3.29
12.96
21.23
27.92
33.03
36.83
39.74
42.13
44.19
45.9
47.08
47.63
47.57
47.07
46.35
45.57
44.81
44.05
43.22
42.23
40.98
39.42
37.5
35.27
32.81
30.17
27.41
24.46
21.28
17.88
14.34
10.82
7.46
4.32
1.36
-1.57
-4.58
-7.75
-11.07
-14.47
-17.86
-21.22
-24.54
-27.92
-31.49
-35.43
-39.85
-44.71
-49.74
-54.42
-58.09
-60.07
-59.91
-57.49
-53.06
-47.15
-40.38
-33.33
-26.42
-19.89
-13.84
-8.37
-3.53
0.6
3.99
6.7
8.79
10.38
11.56
12.4
12.98
13.38
13.68
13.95
14.18
14.35
14.42
14.4
14.35
14.34
14.43
14.54
14.53
14.24
13.56
12.51
11.22
9.83
8.45
7.06
5.57
3.81
1.72
-0.67
-3.21
-5.71
-8.08
-10.41
-12.86
-15.59
-18.63
-21.89
-25.2
-28.51
-31.94
-35.67
-39.8
-44.11
-48.01
-50.64
-51.21
-49.26
-44.79
-38.31
-30.59
-22.42
-14.49
-7.21
-0.77
4.83
9.68
13.92
17.62
20.79
23.39
25.33
26.56
27.1
27.08
26.65
26.01
25.29
24.57
23.9
23.29
22.76
22.33
21.93
21.45
20.65
19.34
17.44
15.01
12.25
9.42
6.69
4.14
1.74
-0.55
-2.76
-4.9
-6.97
-8.92
-10.7
-12.2
-13.29
-13.89
-14.0
-13.75
-13.41
-13.3
-13.7
-14.76
-16.45
-18.53
-20.45
-21.55
-21.11
-18.6
-13.88
-7.24
0.64
8.88
16.65
23.29
28.49
32.22
34.68
36.14
36.88
37.06
36.8
36.16
35.22
34.06
32.76
31.39
30.03
28.7
27.5
26.48
25.68
25.1
24.68
24.35
23.98
23.43
22.55
21.21
19.31
16.85
13.98
10.93
7.98
5.34
3.09
1.18
-0.51
-2.13
-3.79
-5.55
-7.43
-9.43
-11.51
-13.69
-16.0
-18.5
-21.31
-24.54
-28.17
-31.94
-35.35
-37.73
-38.38
-36.83
-32.96
-27.08
-19.8
-11.89
-4.07
3.11
9.31
14.42
18.5
21.74
24.38
26.6
28.54
30.26
31.69
32.69
33.04
32.58
31.22
29.01
26.17
23.06
20.09
17.56
15.62
14.2
12.99
11.62
9.79
7.39
4.5
1.31
-1.96
-5.2
-8.42
-11.64
-14.78
-17.66
-20.05
-21.82
-22.99
-23.69
-24.16
-24.58
-25.11
-25.83
-26.77
-27.84
-28.77
-29.09
-28.25
-25.77
-21.5
-15.63
-8.68
-1.39
5.45
11.18
15.33
17.69
18.31
17.44
15.42
12.57
9.12
5.22
0.97
-3.48
-7.9
-12.04
-15.65
-18.56
-20.62
-21.74
-21.9
-21.2
-19.91
-18.42
-17.12
-16.26
-15.85
-15.71
-15.57
-15.28
-14.87
-14.5
-14.35
-14.46
-14.75
-15.11
-15.57
-16.35
-17.82
-20.29
-23.75
-27.74
-31.44
-33.89
-34.42
-32.79
-29.34
-24.68
-19.49
-14.25
-9.12
-4.07
1.03
6.23
11.45
16.49
21.06
24.94
28.0
30.26
31.79
32.71
33.12
33.05
32.54
31.68
30.61
29.49
28.41
27.39
26.28
24.92
23.18
20.98
18.26
15.01
11.2
6.85
2.13
-2.66
-7.13
-11.0
-14.14
-16.7
-19.01
-21.52
-24.62
-28.62
-33.62
-39.41
-45.47
-50.95
-54.88
-56.44
-55.19
-51.21
-45.05
-37.45
-29.17
-20.83
-12.88
-5.65
0.65
5.9
10.11
13.43
16.05
18.15
19.76
20.8
21.16
20.82
19.94
18.85
17.94
17.54
17.78
18.52
19.43
20.13
20.28
19.71
18.41
16.53
14.23
11.65
8.91
6.09
3.23
0.37
-2.5
-5.37
-8.27
-11.24
-14.32
-17.58
-21.08
-24.85
-28.97
-33.47
-38.29
-43.2
-47.73
-51.21
-52.92
-52.29
-49.08
-43.47
-36.04
-27.55
-18.72
-10.08
-1.91
5.7
12.68
18.96
24.37
28.77
32.08
34.31
35.64
36.3
36.55
36.56
36.42
36.14
35.76
35.32
34.89
34.5
34.13
33.63
32.84
31.59
29.86
27.78
25.54
23.35
21.19
18.92
16.26
12.94
8.91
4.35
-0.38
-4.93
-9.13
-13.02
-16.85
-20.92
-25.4
-30.25
-35.2
-39.81
-43.48
-45.58
-45.61
-43.27
-38.66
-32.22
-24.71
-16.91
-9.46
-2.7
3.27
8.45
12.83
16.32
18.88
20.6
21.71
22.5
23.22
23.95
24.62
25.11
25.35
25.37
25.27
25.15
25.06
24.95
24.71
24.15
23.07
21.28
18.69
15.35
11.48
7.39
3.4
-0.31
-3.75
-7.19
-10.93
-15.24
-20.21
-25.69
-31.27
-36.31
-40.09
-41.92
-41.34
-38.22
-32.86
-25.86
-18.04
-10.16
-2.83
3.6
9.01
13.38
16.8
19.3
20.97
21.92
22.33
22.44
22.49
22.66
22.96
23.27
23.38
23.09
22.37
21.34
20.26
19.4
18.86
18.53
18.13
17.31
15.83
13.66
10.92
7.85
4.7
1.63
-1.24
-3.88
-6.32
-8.69
-11.24
-14.34
-18.33
-23.36
-29.19
-35.11
-40.13
-43.2
-43.54
-40.94
-35.7
-28.5
-20.19
-11.51
-3.02
4.95
12.22
18.67
24.25
28.88
32.57
35.28
37.1
38.16
38.66
38.79
38.72
38.52
38.18
37.67
36.94
36.09
35.22
34.47
33.87
33.33
32.64
31.64
30.27
28.67
27.1
25.78
24.83
24.17
23.58
22.86
21.93
20.86
19.8
18.91
18.2
17.59
16.99
16.29
15.47
14.55
13.53
12.43
11.18
9.69
7.88
5.75
3.39
0.92
-1.48
-3.78
-6.05
-8.5
-11.35
-14.83
-19.04
-24.06
-29.87
-36.43
-43.55
-50.79
-57.43
-62.52
-65.1
-64.57
-60.87
-54.57
-46.68
-38.33
-30.37
-23.24
-16.91
-11.13
-5.64
-0.36
4.61
9.07
12.86
16.0
18.59
20.76
22.55
23.91
24.77
25.1
25.02
24.76
24.64
24.9
25.65
26.76
27.89
28.67
28.71
27.86
26.2
24.05
21.8
19.75
17.97
16.29
14.48
12.35
9.88
7.23
4.62
2.23
0.12
-1.73
-3.39
-4.89
-6.23
-7.4
-8.4
-9.26
-10.03
-10.77
-11.56
-12.58
-14.06
-16.26
-19.29
-23.05
-27.08
-30.62
-32.74
-32.59
-29.67
-23.97
-15.96
-6.5
3.44
12.96
21.47
28.63
34.33
38.61
41.54
43.25
43.85
43.44
42.15
40.12
37.49
34.45
31.22
27.97
24.84
21.91
19.23
16.8
14.66
12.8
11.13
9.5
7.71
5.6
3.12
0.38
-2.41
-5.01
-7.26
-9.11
-10.6
-11.9
-13.09
-14.28
-15.49
-16.72
-17.94
-19.13
-20.23
-21.26
-22.3
-23.49
-25.15
-27.48
-30.58
-34.2
-37.82
-40.71
-42.12
-41.55
-38.82
-34.2
-28.22
-21.6
-15.04
-9.06
-3.99
0.13
3.45
6.27
8.86
11.38
13.85
16.12
17.97
19.22
19.75
19.62
18.99
18.12
17.25
16.58
16.23
16.23
16.58
17.21
18.01
18.8
19.37
19.49
18.95
17.69
15.76
13.33
10.57
7.65
4.66
1.6
-1.48
-4.55
-7.52
-10.29
-12.81
-15.11
-17.31
-19.61
-22.23
-25.31
-28.81
-32.5
-35.88
-38.31
-39.19
-38.14
-35.21
-30.79
-25.48
-19.94
-14.58
-9.65
-5.17
-1.14
2.45
5.58
8.24
10.46
12.3
13.79
14.98
15.81
16.25
16.24
15.81
15.0
13.95
12.8
11.71
10.8
10.15
9.76
9.61
9.58
9.61
9.59
9.44
9.03
8.23
6.88
4.91
2.33
-0.65
-3.75
-6.67
-9.28
-11.57
-13.7
-15.79
-17.91
-20.1
-22.4
-24.85
-27.52
-30.24
-32.56
-33.8
-33.26
-30.58
-25.96
-20.12
-14.01
-8.48
-4.01
-0.65
1.85
3.79
5.39
6.69
7.61
8.02
7.89
7.25
6.26
5.09
3.85
2.55
1.12
-0.47
-2.19
-3.83
-5.13
-5.91
-6.2
-6.22
-6.31
-6.78
-7.8
-9.35
-11.23
-13.2
-15.02
-16.55
-17.73
-18.62
-19.29
-19.83
-20.29
-20.63
-20.71
-20.33
-19.25
-17.32
-14.47
-10.78
-6.46
-1.74
3.14
7.92
12.41
16.35
19.49
21.67
22.85
23.18
22.96
22.46
21.87
21.18
20.32
19.2
17.88
16.49
15.22
14.22
13.51
13.02
12.62
12.19
11.64
10.95
10.06
8.96
7.57
5.87
3.85
1.58
-0.87
-3.43
-6.11
-8.95
-11.98
-15.13
-18.26
-21.18
-23.76
-25.99
-28.02
-30.05
-32.3
-34.92
-38.0
-41.48
-45.12
-48.46
-50.81
-51.47
-49.91
-46.04
-40.26
-33.29
-25.97
-18.97
-12.68
-7.15
-2.24
2.28
6.6
10.84
15.01
19.0
22.56
25.46
27.5
28.68
29.11
29.04
28.77
28.52
28.43
28.49
28.64
28.77
28.75
28.43
27.71
26.59
25.14
23.53
21.96
20.63
19.62
18.91
18.35
17.76
16.94
15.78
14.23
12.32
10.06
7.54
4.8
1.92
-0.99
-3.83
-6.57
-9.26
-12.02
-15.05
-18.54
-22.57
-27.13
-31.96
-36.61
-40.49
-42.96
-43.52
-41.94
-38.36
-33.2
-27.11
-20.7
-14.5
-8.88
-3.99
0.15
3.64
6.65
9.32
11.68
13.67
15.19
16.18
16.75
17.08
17.38
17.79
18.29
18.77
19.11
19.18
18.96
18.44
17.68
16.75
15.71
14.6
13.42
12.14
10.77
9.39
8.1
6.97
6.02
5.15
4.24
3.21
2.03
0.76
-0.63
-2.25
-4.23
-6.62
-9.3
-12.0
-14.44
-16.53
-18.38
-20.31
-22.65
-25.62
-29.17
-32.96
-36.42
-38.83
-39.53
-38.1
-34.49
-29.02
-22.32
-15.13
-8.14
-1.85
3.49
7.8
11.18
13.79
15.85
17.5
18.82
19.8
20.36
20.48
20.22
19.68
18.97
18.13
17.12
15.9
14.49
12.93
11.29
9.6
7.85
5.98
3.99
1.87
-0.31
-2.49
-4.67
-6.89
-9.21
-11.7
-14.37
-17.16
-19.91
-22.5
-24.87
-27.11
-29.42
-31.97
-34.7
-37.22
-38.83
-38.8
-36.69
-32.54
-26.88
-20.46
-13.97
-7.84
-2.22
2.98
7.81
12.28
16.31
19.76
22.59
24.81
26.55
27.94
29.0
29.71
29.91
29.49
28.49
27.12
25.67
24.42
23.47
22.7
21.82
20.55
18.74
16.46
13.96
11.51
9.3
7.32
5.41
3.37
1.08
-1.46
-4.09
-6.6
-8.88
-10.95
-12.97
-15.14
-17.64
-20.58
-24.0
-27.86
-31.99
-36.03
-39.38
-41.32
-41.18
-38.64
-33.82
-27.36
-20.13
-13.03
-6.67
-1.31
3.13
6.9
10.27
13.41
16.28
18.8
20.82
22.27
23.19
23.7
24.01
24.21
24.34
24.35
24.17
23.79
23.3
22.74
22.14
21.41
20.42
19.02
17.18
14.99
12.67
10.42
8.36
6.5
4.72
2.83
0.68
-1.83
-4.63
-7.58
-10.47
-13.17
-15.77
-18.54
-21.85
-25.95
-30.74
-35.7
-40.03
-42.79
-43.3
-41.31
-37.08
-31.26
-24.69
-18.09
-11.96
-6.48
-1.63
2.76
6.84
10.66
14.17
17.24
19.68
21.38
22.32
22.61
22.5
22.25
22.08
22.1
22.22
22.34
22.3
22.08
21.66
21.06
20.26
19.16
17.68
15.86
13.82
11.75
9.79
7.95
6.14
4.22
2.09
-0.27
-2.83
-5.54
-8.44
-11.61
-15.22
-19.38
-24.07
-29.0
-33.57
-37.04
-38.61
-37.76
-34.42
-28.95
-22.11
-14.74
-7.62
-1.27
4.07
8.39
11.83
14.62
17.01
19.18
21.21
22.99
24.34
25.03
25.0
24.34
23.34
22.34
21.59
21.17
20.98
20.83
20.53
19.95
19.03
17.74
16.03
13.87
11.25
8.26
5.06
1.87
-1.12
-3.89
-6.55
-9.34
-12.56
-16.4
-20.9
-25.95
-31.25
-36.37
-40.84
-44.09
-45.63
-45.07
-42.28
-37.45
-31.06
-23.82
-16.4
-9.38
-3.06
2.47
7.26
11.43
15.08
18.25
20.94
23.11
24.73
25.78
26.33
26.51
26.47
26.36
26.26
26.21
26.24
26.35
26.54
26.73
26.75
26.43
25.58
24.18
22.3
20.1
17.71
15.19
12.49
9.52
6.22
2.59
-1.29
-5.27
-9.23
-13.08
-16.84
-20.61
-24.56
-28.88
-33.58
-38.5
-43.17
-46.92
-49.07
-49.05
-46.62
-41.93
-35.47
-27.96
-20.14
-12.57
-5.57
0.8
6.61
11.91
16.64
20.64
23.78
26.0
27.4
28.13
28.39
28.35
28.13
27.87
27.66
27.59
27.66
27.82
27.96
27.97
27.73
27.18
26.3
25.11
23.68
22.11
20.47
18.75
16.88
14.76
12.24
9.28
5.91
2.25
-1.52
-5.21
-8.65
-11.73
-14.5
-17.14
-19.89
-23.05
-26.79
-31.12
-35.83
-40.54
-44.71
-47.71
-48.97
-48.0
-44.64
-39.08
-31.83
-23.66
-15.39
-7.67
-0.86
4.93
9.81
13.94
17.46
20.38
22.67
24.27
25.15
25.4
25.15
24.56
23.78
22.9
22.04
21.33
20.88
20.8
21.04
21.4
21.58
21.29
20.39
18.92
17.06
14.98
12.73
10.23
7.38
4.18
0.75
-2.66
-5.85
-8.71
-11.35
-14.01
-16.97
-20.48
-24.62
-29.27
-34.04
-38.33
-41.4
-42.59
-41.43
-37.87
-32.24
-25.14
-17.33
-9.46
-2.08
4.52
10.16
14.8
18.44
21.12
22.92
23.98
24.43
24.41
23.99
23.24
22.23
21.05
19.88
18.86
18.08
17.51
17.06
16.65
16.19
15.68
15.06
14.21
13.0
11.34
9.27
6.95
4.58
2.27
-0.04
-2.54
-5.4
-8.66
-12.17
-15.68
-19.01
-22.1
-25.12
-28.31
-31.93
-36.07
-40.58
-45.03
-48.73
-50.86
-50.73
-47.99
-42.72
-35.5
-27.23
-18.83
-11.03
-4.26
1.46
6.3
10.53
14.37
17.89
21.06
23.73
25.77
27.17
28.0
28.4
28.54
28.51
28.33
28.0
27.5
26.84
26.01
24.97
23.67
22.08
20.23
18.18
16.03
13.8
11.51
9.09
6.56
3.95
1.3
-1.35
-4.02
-6.8
-9.81
-13.18
-17.03
-21.45
-26.48
-32.0
-37.65
-42.77
-46.56
-48.22
-47.24
-43.56
-37.66
-30.29
-22.34
-14.5
-7.18
-0.5
5.55
10.98
15.77
19.86
23.24
25.96
28.1
29.69
30.68
31.0
30.67
29.81
28.67
27.52
26.49
25.53
24.46
23.07
21.21
18.87
16.19
13.35
10.5
7.71
4.96
2.16
-0.81
-4.01
-7.41
-10.91
-14.34
-17.57
-20.61
-23.61
-26.85
-30.63
-35.05
-39.95
-44.8
-48.79
-51.06
-51.01
-48.41
-43.51
-36.86
-29.17
-21.08
-13.07
-5.48
1.47
7.63
12.89
17.23
20.68
23.32
25.21
26.4
26.92
26.82
26.25
25.43
24.57
23.87
23.41
23.16
22.97
22.66
22.1
21.19
19.93
18.32
16.29
13.77
10.69
7.05
3.05
-0.99
-4.75
-8.01
-10.8
-13.36
-16.1
-19.4
-23.48
-28.34
-33.73
-39.14
-43.85
-47.09
-48.13
-46.5
-42.18
-35.55
-27.36
-18.48
-9.72
-1.69
5.25
11.03
15.77
19.7
23.04
25.93
28.33
30.15
31.28
31.72
31.57
30.98
30.1
29.02
27.82
26.6
25.48
24.54
23.79
23.05
22.07
20.63
18.71
16.43
14.02
11.67
9.47
7.37
5.23
2.95
0.48
-2.13
-4.81
-7.55
-10.43
-13.62
-17.27
-21.45
-26.15
-31.24
-36.56
-41.94
-47.12
-51.67
-54.99
-56.39
-55.3
-51.56
-45.48
-37.78
-29.39
-21.08
-13.34
-6.29
0.15
6.16
11.78
16.97
21.59
25.47
28.5
30.71
32.17
33.02
33.39
33.38
33.1
32.67
32.23
31.86
31.63
31.42
31.06
30.32
29.05
27.24
25.02
22.61
20.22
17.98
15.84
13.63
11.11
8.08
4.45
0.34
-3.98
-8.25
-12.27
-15.98
-19.5
-23.01
-26.76
-31.01
-35.89
-41.33
-46.92
-51.88
-55.2
-55.94
-53.57
-48.16
-40.39
-31.31
-21.94
-13.05
-4.98
2.25
8.79
14.74
20.08
24.67
28.32
30.89
32.41
33.05
33.06
32.68
32.14
31.57
31.03
30.61
30.29
30.08
29.89
29.57
28.93
27.73
25.8
23.01
19.42
15.22
10.72
6.24
1.98
-2.06
-6.05
-10.23
-14.85
-20.05
-25.92
-32.41
-39.31
-46.21
-52.4
-57.07
-59.44
-59.08
-55.96
-50.57
-43.64
-36.03
-28.46
-21.41
-15.1
-9.51
-4.45
0.28
4.82
9.16
13.16
16.67
19.57
21.81
23.43
24.44
24.84
24.66
23.98
22.97
21.88
20.94
20.26
19.84
19.59
19.33
18.93
18.23
17.1
15.5
13.47
11.17
8.78
6.46
4.21
1.94
-0.49
-3.22
-6.29
-9.78
-13.79
-18.43
-23.71
-29.38
-34.84
-39.2
-41.52
-41.09
-37.75
-31.9
-24.39
-16.28
-8.5
-1.67
3.99
8.56
12.29
15.39
18.02
20.26
22.16
23.73
24.99
25.85
26.22
26.04
25.34
24.26
23.04
21.94
21.14
20.71
20.59
20.58
20.39
19.7
18.28
16.02
13.05
9.6
5.92
2.18
-1.57
-5.33
-9.07
-12.68
-16.04
-19.14
-22.1
-25.18
-28.68
-32.83
-37.68
-43.0
-48.29
-52.81
-55.73
-56.34
-54.31
-49.78
-43.32
-35.74
-27.84
-20.23
-13.23
-6.96
-1.4
3.51
7.85
11.66
15.0
17.85
20.23
22.15
23.64
24.81
25.79
26.73
27.77
28.98
30.39
31.97
33.68
35.43
37.11
38.58
39.67
40.18
39.88
38.53
35.97
32.23
27.54
22.31
17.01
11.99
7.4
3.13
-1.15
-5.78
-11.09
-17.17
-23.88
-30.71
-36.91
-41.57
-43.83
-43.16
-39.47
-33.2
-25.1
-16.12
-7.09
1.34
8.83
15.22
20.5
24.71
27.89
30.07
31.25
31.44
30.64
28.94
26.51
23.64
20.64
17.89
15.64
14.01
12.92
12.16
11.39
10.31
8.7
6.5
3.74
0.58
-2.84
-6.41
-10.04
-13.73
-17.55
-21.7
-26.38
-31.72
-37.58
-43.51
-48.7
-52.18
-53.15
-51.2
-46.52
-39.71
-31.66
-23.22
-15.01
-7.39
-0.56
5.36
10.25
14.0
16.61
18.15
18.79
18.78
18.33
17.61
16.68
15.59
14.36
13.07
11.85
10.87
10.19
9.76
9.34
8.61
7.31
5.34
2.78
-0.15
-3.21
-6.28
-9.4
-12.71
-16.47
-20.94
-26.29
-32.52
-39.36
-46.19
-52.13
-56.21
-57.66
-56.1
-51.68
-45.02
-36.98
-28.42
-20.02
-12.2
-5.18
0.93
6.0
9.92
12.56
13.91
14.05
13.19
11.63
9.64
7.44
5.17
2.94
0.87
-0.97
-2.54
-3.92
-5.27
-6.89
-9.03
-11.86
-15.37
-19.39
-23.6
-27.6
-31.03
-33.61
-35.26
-36.09
-36.33
-36.28
-36.15
-36.05
-35.89
-35.46
-34.34
-31.98
-27.71
-20.89
-11.09
1.71
16.98
33.75
50.82
67.13
81.95
94.9
105.88
114.79
121.56
126.01
128.04
127.6
124.81
119.89
113.14
104.98
95.84
86.17
76.4
66.81
57.61
48.94
40.9
33.6
27.03
21.09
15.53
10.09
4.67
-0.61
-5.42
-9.41
-12.41
-14.59
-16.39
-18.32
-20.74
-23.73
-27.12
-30.61
-33.99
-37.22
-40.45
-43.92
-47.87
-52.38
-57.3
-62.17
-66.31
-68.88
-69.13
-66.63
-61.37
-53.84
-44.83
-35.21
-25.73
-16.89
-8.98
-2.12
3.68
8.43
12.19
15.0
16.88
17.87
18.04
17.51
16.49
15.22
13.92
12.72
11.63
10.61
9.5
8.18
6.5
4.35
1.69
-1.48
-5.06
-8.87
-12.67
-16.23
-19.37
-21.98
-23.94
-25.18
-25.68
-25.49
-24.79
-23.96
-23.51
-23.92
-25.51
-28.25
-31.72
-35.18
-37.74
-38.51
-36.81
-32.2
-24.67
-14.58
-2.74
9.79
21.89
32.79
42.19
50.34
57.74
64.84
71.68
77.91
82.95
86.33
87.89
87.74
86.1
83.05
78.45
72.08
63.84
54.0
43.14
32.07
21.45
11.57
2.32
-6.67
-15.79
-25.19
-34.71
-43.96
-52.46
-59.84
-65.83
-70.23
-72.9
-73.66
-72.49
-69.53
-65.18
-59.99
-54.49
-48.97
-43.41
-37.47
-30.63
-22.37
-12.37
-0.62
12.5
26.31
39.92
52.48
63.34
72.17
78.97
83.98
87.57
90.08
91.72
92.5
92.34
91.05
88.51
84.7
79.65
73.5
66.41
58.61
50.39
42.03
33.79
25.75
17.86
9.92
1.72
-6.8
-15.49
-24.02
-31.99
-39.11
-45.28
-50.6
-55.31
-59.72
-64.03
-68.37
-72.73
-77.01
-81.11
-85.0
-88.79
-92.64
-96.53
-100.17
-102.89
-103.73
-101.66
-95.93
-86.31
-73.25
-57.76
-41.17
-24.8
-9.6
3.96
15.84
26.14
34.96
42.25
47.82
51.58
53.58
54.12
53.55
52.17
50.15
47.53
44.36
40.81
37.14
33.62
30.45
27.68
25.2
22.84
20.46
17.99
15.48
13.0
10.64
8.47
6.42
4.35
2.05
-0.69
-4.02
-8.03
-12.73
-18.06
-23.9
-30.04
-36.19
-42.01
-47.25
-51.83
-55.87
-59.64
-63.33
-66.93
-70.01
-71.73
-71.09
-67.15
-59.44
-48.14
-34.1
-18.62
-3.08
11.38
24.11
34.93
43.89
51.12
56.67
60.55
62.8
63.64
63.38
62.39
60.96
59.21
57.13
54.7
51.93
48.91
45.8
42.64
39.34
35.72
31.59
26.94
21.96
17.02
12.55
8.82
5.9
3.69
1.99
0.61
-0.62
-1.84
-3.22
-4.93
-7.1
-9.76
-12.9
-16.52
-20.73
-25.71
-31.59
-38.29
-45.28
-51.73
-56.71
-59.44
-59.54
-57.12
-52.64
-46.75
-40.18
-33.54
-27.31
-21.77
-16.92
-12.56
-8.38
-4.08
0.39
4.82
8.76
11.76
13.6
14.39
14.51
14.42
14.42
14.54
14.6
14.32
13.55
12.28
10.67
8.87
7.01
5.09
3.07
0.87
-1.57
-4.24
-7.12
-10.05
-12.89
-15.47
-17.72
-19.79
-21.92
-24.39
-27.31
-30.61
-33.99
-37.15
-39.81
-41.79
-42.91
-42.92
-41.49
-38.32
-33.36
-26.89
-19.53
-12.09
-5.29
0.37
4.69
7.7
9.59
10.56
10.76
10.3
9.27
7.79
6.03
4.27
2.79
1.85
1.55
1.87
2.66
3.76
5.04
6.42
7.77
8.94
9.72
9.96
9.64
8.89
7.89
6.81
5.67
4.35
2.71
0.67
-1.69
-4.19
-6.64
-8.92
-11.04
-13.15
-15.46
-18.17
-21.36
-24.97
-28.77
-32.36
-35.29
-37.1
-37.44
-36.1
-33.04
-28.43
-22.66
-16.23
-9.76
-3.78
1.3
5.3
8.24
10.34
11.91
13.25
14.56
15.84
16.99
17.83
18.29
18.4
18.32
18.26
18.36
18.64
18.99
19.31
19.55
19.72
19.84
19.88
19.77
19.36
18.54
17.31
15.7
13.82
11.76
9.57
7.32
5.07
2.9
0.86
-1.08
-3.06
-5.33
-8.11
-11.51
-15.4
-19.39
-22.85
-25.07
-25.41
-23.56
-19.52
-13.69
-6.73
0.6
7.56
13.59
18.36
21.81
24.1
25.54
26.42
27.01
27.47
27.87
28.24
28.58
28.87
29.06
29.12
29.0
28.7
28.29
27.83
27.36
26.82
26.01
24.67
22.53
19.51
15.75
11.57
7.4
3.55
0.15
-2.91
-5.89
-9.12
-12.85
-17.21
-22.2
-27.73
-33.61
-39.55
-45.1
-49.73
-52.85
-53.98
-52.89
-49.71
-44.85
-38.93
-32.57
-26.23
-20.22
-14.67
-9.69
-5.42
-1.99
0.59
2.4
3.66
4.62
5.43
6.14
6.7
7.1
7.38
7.63
7.87
8.02
7.85
7.15
5.86
4.09
2.05
-0.05
-2.12
-4.27
-6.63
-9.33
-12.43
-15.98
-19.97
-24.39
-29.05
-33.56
-37.34
-39.69
-40.07
-38.23
-34.37
-28.96
-22.69
-16.17
-9.88
-4.09
1.06
5.5
9.16
12.02
14.09
15.46
16.34
16.96
17.56
18.33
19.34
20.56
21.81
22.87
23.49
23.54
23.04
22.15
21.11
20.08
19.05
17.85
16.25
14.09
11.37
8.2
4.8
1.35
-2.04
-5.35
-8.66
-12.18
-16.16
-20.78
-26.07
-31.73
-37.1
-41.36
-43.69
-43.55
-40.82
-35.79
-29.09
-21.53
-13.94
-7.03
-1.19
3.46
7.1
10.01
12.51
14.78
16.9
18.87
20.72
22.44
24.03
25.45
26.67
27.74
28.76
29.86
31.11
32.41
33.54
34.28
34.47
34.09
33.28
32.21
31.05
29.92
28.85
27.82
26.77
25.56
24.08
22.26
20.03
17.42
14.53
11.46
8.32
5.17
1.93
-1.58
-5.65
-10.53
-16.3
-22.7
-29.08
-34.52
-38.06
-38.97
-36.96
-32.3
-25.73
-18.16
-10.44
-3.15
3.44
9.31
14.49
19.02
22.89
26.1
28.71
30.81
32.52
33.91
34.98
35.68
35.94
35.65
34.72
33.13
30.98
28.54
26.19
24.29
23.02
22.32
21.88
21.35
20.47
19.18
17.52
15.57
13.31
10.64
7.52
4.02
0.44
-2.9
-5.73
-7.98
-9.78
-11.4
-13.12
-15.2
-17.79
-20.99
-24.77
-29.01
-33.35
-37.29
-40.22
-41.56
-40.94
-38.31
-33.93
-28.25
-21.8
-15.08
-8.5
-2.42
2.9
7.27
10.63
13.08
14.77
15.87
16.5
16.67
16.37
15.66
14.7
13.69
12.8
12.1
11.59
11.19
10.85
10.55
10.19
9.64
8.69
7.24
5.32
3.13
0.93
-1.15
-3.14
-5.22
-7.55
-10.13
-12.81
-15.43
-17.92
-20.46
-23.27
-26.4
-29.53
-31.98
-32.89
-31.54
-27.69
-21.61
-13.93
-5.34
3.56
12.35
20.69
28.2
34.41
38.88
41.34
41.81
40.6
38.24
35.28
32.18
29.21
26.48
24.04
21.88
20.01
18.44
17.08
15.8
14.37
12.57
10.22
7.28
3.81
0.02
-3.84
-7.58
-11.03
-14.18
-17.08
-19.86
-22.72
-25.9
-29.58
-33.92
-38.89
-44.29
-49.74
-54.75
-58.73
-61.15
-61.59
-59.82
-55.88
-50.05
-42.81
-34.75
-26.37
-18.1
-10.2
-2.87
3.72
9.39
14.03
17.59
20.22
22.12
23.55
24.65
25.47
25.93
26.0
25.7
25.19
24.66
24.27
24.08
24.08
24.13
24.09
23.83
23.27
22.41
21.26
19.88
18.35
16.73
15.1
13.52
12.07
10.78
9.72
8.85
8.15
7.49
6.73
5.67
4.12
1.88
-1.1
-4.7
-8.55
-12.07
-14.64
-15.81
-15.42
-13.65
-10.93
-7.77
-4.55
-1.52
1.27
3.83
6.15
8.17
9.81
11.01
11.77
12.2
12.44
12.67
12.98
13.43
13.99
14.65
15.36
16.13
17.02
18.05
19.26
20.61
21.97
23.18
24.02
24.29
23.9
22.82
21.11
18.84
16.1
12.96
9.53
5.98
2.5
-0.66
-3.4
-5.7
-7.68
-9.51
-11.32
-13.12
-14.84
-16.36
-17.62
-18.66
-19.63
-20.73
-22.14
-23.92
-25.87
-27.6
-28.53
-28.05
-25.82
-21.79
-16.36
-10.17
-3.87
2.09
7.49
12.32
16.64
20.35
23.35
25.46
26.7
27.25
27.38
27.28
26.97
26.22
24.76
22.38
19.15
15.36
11.5
7.97
5.02
2.61
0.57
-1.33
-3.24
-5.16
-6.99
-8.56
-9.73
-10.36
-10.38
-9.76
-8.53
-6.82
-4.92
-3.13
-1.79
-1.13
-1.25
-2.19
-3.9
-6.35
-9.55
-13.46
-17.99
-22.92
-27.93
-32.67
-36.68
-39.54
-40.77
-40.01
-37.15
-32.4
-26.35
-19.78
-13.48
-7.93
-3.26
0.69
4.18
7.42
10.44
13.13
15.41
17.2
18.5
19.31
19.59
19.3
18.44
17.18
15.81
14.66
13.97
13.83
14.08
14.47
14.7
14.54
13.86
12.64
10.91
8.81
6.5
4.23
2.21
0.56
-0.79
-2.02
-3.43
-5.27
-7.73
-10.79
-14.28
-17.83
-20.92
-22.97
-23.53
-22.4
-19.73
-15.98
-11.77
-7.64
-3.92
-0.66
2.25
4.95
7.47
9.71
11.52
12.75
13.35
13.4
13.08
12.62
12.22
11.91
11.61
11.17
10.52
9.68
8.77
7.93
7.21
6.51
5.71
4.71
3.54
2.32
1.2
0.19
-0.83
-2.1
-3.87
-6.28
-9.33
-12.88
-16.67
-20.36
-23.58
-25.93
-27.05
-26.73
-24.93
-21.85
-17.89
-13.56
-9.33
-5.53
-2.27
0.5
2.88
4.94
6.66
7.9
8.46
8.25
7.31
5.83
4.19
2.75
1.77
1.34
1.37
1.65
2.06
2.52
3.11
3.85
4.66
5.32
5.55
5.13
4.01
2.38
0.51
-1.36
-3.1
-4.72
-6.28
-7.85
-9.47
-11.18
-13.01
-15.04
-17.31
-19.78
-22.28
-24.54
-26.24
-27.07
-26.76
-25.14
-22.2
-18.1
-13.22
-8.13
-3.36
0.7
3.9
6.34
8.18
9.49
10.24
10.35
9.78
8.69
7.35
6.08
5.06
4.27
3.56
2.73
1.68
0.5
-0.61
-1.46
-1.97
-2.26
-2.6
-3.28
-4.43
-5.98
-7.69
-9.26
-10.55
-11.6
-12.58
-13.76
-15.31
-17.28
-19.6
-22.13
-24.67
-27.07
-29.15
-30.76
-31.86
-32.46
-32.73
-32.88
-33.11
-33.47
-33.79
-33.66
-32.59
-30.21
-26.39
-21.33
-15.46
-9.29
-3.18
2.67
8.23
13.48
18.37
22.82
26.73
30.12
33.08
35.72
38.07
40.07
41.6
42.6
43.14
43.4
43.63
44.02
44.65
45.47
46.35
47.1
47.61
47.78
47.58
46.97
45.85
44.1
41.66
38.6
35.09
31.38
27.62
23.85
19.99
15.93
11.68
7.4
3.34
-0.32
-3.61
-6.73
-9.97
-13.55
-17.53
-21.76
-25.99
-29.89
-33.14
-35.46
-36.61
-36.47
-35.0
-32.3
-28.62
-24.31
-19.78
-15.43
-11.6
-8.43
-5.91
-3.86
-2.1
-0.54
0.81
1.87
2.57
2.94
3.07
3.07
3.01
2.94
2.87
2.83
2.88
3.01
3.13
3.06
2.58
1.52
-0.14
-2.28
-4.67
-7.07
-9.4
-11.66
-13.97
-16.46
-19.16
-22.05
-25.05
-28.13
-31.32
-34.64
-37.96
-40.88
-42.8
-43.11
-41.43
-37.78
-32.62
-26.64
-20.52
-14.79
-9.72
-5.42
-1.86
1.04
3.31
5.01
6.22
6.98
7.38
7.51
7.48
7.38
7.3
7.29
7.39
7.54
7.7
7.81
7.85
7.78
7.58
7.25
6.75
6.02
5.09
4.02
2.96
2.14
1.77
1.95
2.6
3.51
4.38
4.82
4.52
3.26
0.99
-2.16
-5.87
-9.68
-13.06
-15.52
-16.71
-16.41
-14.65
-11.68
-7.9
-3.82
0.06
3.33
5.79
7.39
8.3
8.74
8.99
9.15
9.19
8.89
7.96
6.24
3.86
1.21
-1.19
-2.94
-3.96
-4.55
-5.12
-6.05
-7.41
-9.07
-10.76
-12.26
-13.48
-14.39
-14.99
-15.26
-15.18
-14.8
-14.25
-13.73
-13.42
-13.51
-14.19
-15.66
-17.98
-21.01
-24.32
-27.31
-29.28
-29.77
-28.58
-25.87
-21.98
-17.25
-12.0
-6.41
-0.65
5.11
10.62
15.59
19.77
23.0
25.32
26.97
28.27
29.57
31.02
32.57
34.0
34.99
35.22
34.53
32.88
30.36
27.18
23.55
19.71
15.83
12.04
8.34
4.68
0.96
-2.81
-6.56
-10.16
-13.41
-16.27
-18.83
-21.37
-24.16
-27.33
-30.65
-33.59
-35.44
-35.61
-33.85
-30.33
-25.48
-19.78
-13.57
-7.01
-0.27
6.37
12.45
17.42
20.91
22.85
23.58
23.68
23.72
24.09
24.88
25.85
26.67
27.01
26.74
25.93
24.74
23.28
21.56
19.41
16.66
13.23
9.23
4.94
0.73
-3.12
-6.46
-9.32
-11.87
-14.35
-17.06
-20.23
-23.96
-28.1
-32.18
-35.49
-37.23
-36.82
-34.06
-29.24
-23.06
-16.39
-9.98
-4.35
0.33
4.05
6.89
8.88
9.99
10.19
9.56
8.3
6.73
5.17
3.87
2.98
2.54
2.58
3.15
4.25
5.87
7.87
10.0
11.97
13.42
14.09
13.84
12.75
11.13
9.47
8.32
8.06
8.81
10.34
12.13
13.54
13.97
13.03
10.63
7.01
2.7
-1.59
-5.06
-7.13
-7.48
-6.25
-3.91
-1.1
1.6
3.83
5.55
6.91
8.14
9.41
10.68
11.79
12.5
12.63
12.14
11.15
9.93
8.78
8.0
7.84
8.49
9.99
12.29
15.12
18.04
20.54
22.16
22.55
21.67
19.65
16.79
13.43
9.82
6.14
2.43
-1.26
-4.89
-8.38
-11.65
-14.66
-17.45
-20.19
-23.1
-26.28
-29.66
-32.88
-35.36
-36.47
-35.74
-33.02
-28.6
-23.06
-17.09
-11.25
-5.77
-0.63
4.44
9.63
15.01
20.42
25.56
30.12
33.87
36.74
38.73
39.92
40.36
40.07
39.1
37.47
35.3
32.66
29.74
26.66
23.57
20.49
17.34
14.01
10.4
6.58
2.76
-0.7
-3.53
-5.61
-7.01
-7.92
-8.53
-8.99
-9.46
-10.11
-11.2
-12.94
-15.38
-18.32
-21.25
-23.53
-24.54
-23.95
-21.75
-18.26
-14.03
-9.61
-5.38
-1.51
2.07
5.47
8.73
11.75
14.32
16.2
17.29
17.57
17.15
16.22
14.99
13.66
12.41
11.37
10.61
10.12
9.82
9.54
9.11
8.43
7.42
6.15
4.7
3.21
1.76
0.38
-1.0
-2.49
-4.17
-6.09
-8.25
-10.61
-13.09
-15.56
-17.89
-19.98
-21.84
-23.6
-25.44
-27.45
-29.51
-31.25
-32.15
-31.73
-29.72
-26.2
-21.53
-16.23
-10.84
-5.77
-1.22
2.73
6.18
9.19
11.83
14.09
15.9
17.23
18.09
18.58
18.8
18.88
18.88
18.85
18.77
18.61
18.31
17.82
17.11
16.2
15.13
13.93
12.6
11.09
9.39
7.53
5.61
3.78
2.11
0.56
-0.97
-2.6
-4.36
-6.15
-7.8
-9.19
-10.28
-11.15
-12.01
-13.1
-14.61
-16.6
-18.96
-21.35
-23.27
-24.23
-23.82
-22.0
-19.02
-15.36
-11.51
-7.81
-4.32
-1.0
2.2
5.22
7.83
9.8
11.0
11.48
11.46
11.22
11.02
11.0
11.2
11.53
11.87
12.1
12.14
12.02
11.81
11.67
11.65
11.74
11.89
11.98
12.07
12.23
12.58
13.11
13.63
13.78
13.23
11.85
9.76
7.28
4.74
2.38
0.2
-1.95
-4.19
-6.55
-8.99
-11.46
-13.98
-16.65
-19.49
-22.34
-24.81
-26.38
-26.6
-25.24
-22.39
-18.34
-13.52
-8.32
-3.1
1.84
6.29
10.08
13.11
15.35
16.79
17.43
17.3
16.51
15.25
13.76
12.22
10.73
9.19
7.48
5.5
3.29
1.0
-1.21
-3.19
-4.92
-6.45
-7.87
-9.22
-10.46
-11.49
-12.19
-12.44
-12.23
-11.62
-10.78
-9.95
-9.36
-9.2
-9.54
-10.33
-11.42
-12.62
-13.64
-14.23
-14.15
-13.25
-11.55
-9.22
-6.56
-3.94
-1.69
-0.02
1.03
1.54
1.72
1.77
1.84
1.97
2.12
2.2
2.19
2.14
2.18
2.44
2.99
3.82
4.8
5.79
6.69
7.44
8.03
8.41
8.53
8.27
7.54
6.27
4.52
2.43
0.21
-1.94
-3.88
-5.57
-7.07
-8.39
-9.59
-10.65
-11.58
-12.41
-13.25
-14.25
-15.53
-17.16
-19.07
-21.13
-23.08
-24.63
-25.44
-25.18
-23.62
-20.74
-16.77
-12.08
-7.11
-2.31
2.02
5.68
8.61
10.85
12.52
13.76
14.68
15.3
15.56
15.36
14.7
13.63
12.34
11.05
9.93
9.13
8.65
8.49
8.58
8.84
9.11
9.19
8.91
8.2
7.08
5.66
4.14
2.62
1.19
-0.17
-1.54
-2.99
-4.57
-6.27
-8.06
-9.86
-11.57
-13.1
-14.39
-15.49
-16.53
-17.69
-19.12
-20.78
-22.43
-23.69
-24.13
-23.53
-21.85
-19.32
-16.29
-13.15
-10.16
-7.5
-5.21
-3.25
-1.57
-0.12
1.05
1.88
2.27
2.22
1.86
1.44
1.19
1.28
1.71
2.34
3.01
3.64
4.24
4.86
5.54
6.23
6.84
7.24
7.34
7.12
6.58
5.79
4.8
3.71
2.58
1.51
0.49
-0.51
-1.59
-2.84
-4.37
-6.29
-8.67
-11.53
-14.7
-17.79
-20.25
-21.46
-21.05
-18.98
-15.69
-11.83
-8.1
-4.9
-2.32
-0.16
1.85
3.89
5.96
7.92
9.63
10.97
11.94
12.59
12.96
13.1
13.04
12.82
12.51
12.15
11.79
11.44
11.07
10.67
10.23
9.7
9.03
8.11
6.85
5.23
3.36
1.41
-0.4
-1.98
-3.37
-4.72
-6.25
-8.14
-10.47
-13.23
-16.25
-19.24
-21.77
-23.41
-23.82
-22.86
-20.63
-17.5
-13.9
-10.25
-6.85
-3.81
-1.15
1.17
3.17
4.86
6.25
7.41
8.37
9.18
9.83
10.29
10.53
10.6
10.59
10.65
10.88
11.28
11.75
12.13
12.24
12.01
11.37
10.29
8.75
6.76
4.42
1.89
-0.55
-2.68
-4.39
-5.76
-7.06
-8.65
-10.85
-13.74
-17.21
-20.86
-24.2
-26.72
-28.02
-27.9
-26.35
-23.5
-19.64
-15.11
-10.3
-5.56
-1.19
2.68
6.03
8.94
11.5
13.72
15.57
16.98
17.92
18.43
18.61
18.59
18.46
18.22
17.8
17.11
16.13
14.9
13.52
12.14
10.84
9.61
8.33
6.83
4.97
2.75
0.34
-2.04
-4.17
-6.04
-7.74
-9.54
-11.68
-14.28
-17.33
-20.62
-23.84
-26.63
-28.6
-29.43
-28.89
-26.94
-23.7
-19.49
-14.7
-9.67
-4.69
0.04
4.35
8.08
11.11
13.36
14.83
15.61
15.89
15.84
15.64
15.38
15.13
14.88
14.58
14.16
13.58
12.89
12.21
11.66
11.31
11.08
10.8
10.27
9.4
8.21
6.84
5.41
4.02
2.62
1.17
-0.44
-2.26
-4.35
-6.73
-9.45
-12.52
-15.83
-19.17
-22.16
-24.33
-25.25
-24.67
-22.63
-19.4
-15.46
-11.3
-7.3
-3.59
-0.21
2.91
5.72
8.16
10.12
11.56
12.53
13.1
13.34
13.28
12.96
12.49
12.03
11.8
11.91
12.33
12.89
13.31
13.39
12.99
12.13
10.88
9.38
7.71
5.98
4.24
2.54
0.86
-0.86
-2.7
-4.75
-7.02
-9.48
-12.02
-14.54
-16.9
-18.91
-20.36
-20.99
-20.53
-18.76
-15.66
-11.43
-6.45
-1.27
3.65
8.01
11.7
14.71
17.1
18.82
19.87
20.24
20.08
19.58
19.01
18.55
18.24
17.98
17.64
17.09
16.31
15.32
14.24
13.15
12.07
10.94
9.66
8.08
6.15
3.88
1.42
-1.08
-3.43
-5.53
-7.36
-8.99
-10.55
-12.22
-14.14
-16.38
-18.88
-21.39
-23.53
-24.84
-24.9
-23.46
-20.53
-16.35
-11.4
-6.23
-1.34
2.95
6.58
9.64
12.31
14.66
16.65
18.14
18.98
19.13
18.67
17.78
16.66
15.46
14.3
13.22
12.29
11.51
10.88
10.31
9.62
8.62
7.18
5.33
3.24
1.21
-0.52
-1.83
-2.83
-3.76
-4.88
-6.41
-8.41
-10.82
-13.41
-15.9
-17.88
-18.91
-18.6
-16.74
-13.43
-9.05
-4.17
0.59
4.8
8.26
10.95
12.96
14.4
15.33
15.75
15.72
15.29
14.52
13.51
12.35
11.12
9.91
8.77
7.72
6.75
5.81
4.81
3.69
2.36
0.8
-1.0
-2.95
-4.97
-6.97
-8.89
-10.67
-12.27
-13.63
-14.76
-15.72
-16.65
-17.69
-18.91
-20.19
-21.25
-21.73
-21.21
-19.45
-16.33
-11.99
-6.72
-0.96
4.77
10.0
14.38
17.8
20.35
22.18
23.49
24.4
24.97
25.24
25.22
24.96
24.43
23.57
22.35
20.8
19.05
17.32
15.82
14.61
13.6
12.61
11.38
9.75
7.68
5.21
2.47
-0.38
-3.22
-5.9
-8.35
-10.55
-12.58
-14.59
-16.75
-19.13
-21.62
-23.86
-25.4
-25.76
-24.66
-22.09
-18.3
-13.71
-8.81
-4.0
0.4
4.19
7.28
9.64
11.34
12.48
13.18
13.49
13.42
13.01
12.32
11.53
10.79
10.23
9.82
9.45
8.97
8.33
7.52
6.62
5.68
4.68
3.52
2.1
0.33
-1.78
-4.14
-6.6
-9.04
-11.34
-13.5
-15.65
-17.95
-20.53
-23.28
-25.85
-27.68
-28.23
-27.16
-24.52
-20.71
-16.38
-12.18
-8.64
-6.02
-4.37
-3.64
-3.71
-4.37
-5.29
-5.97
-5.89
-4.75
-2.65
-0.21
1.74
2.57
2.18
1.02
-0.18
-0.91
-1.1
-1.15
-1.49
-2.28
-3.26
-3.93
-3.92
-3.25
-2.4
-2.0
-2.65
-4.68
-8.12
-12.83
-18.58
-25.13
-32.19
-39.46
-46.52
-52.93
-58.2
-61.95
-63.99
-64.49
-63.9
-62.85
-61.97
-61.62
-61.83
-62.39
-62.95
-63.26
-63.13
-62.45
-61.02
-58.56
-54.66
-48.88
-40.84
-30.38
-17.53
-2.56
14.07
31.92
50.62
69.96
89.76
109.67
129.11
147.27
163.29
176.56
186.74
193.84
197.95
199.09
197.18
192.1
183.67
171.86
156.74
138.52
117.83
95.77
73.89
53.94
37.53
25.67
18.57
15.58
15.47
16.49
16.84
14.95
9.88
1.56
-9.18
-20.89
-32.02
-41.39
-48.47
-53.28
-56.22
-57.67
-57.93
-57.18
-55.61
-53.49
-51.16
-48.9
-46.89
-45.13
-43.47
-41.7
-39.75
-37.66
-35.65
-33.99
-32.87
-32.35
-32.28
-32.47
-32.78
-33.16
-33.71
-34.54
-35.62
-36.73
-37.46
-37.38
-36.09
-33.48
-29.69
-25.11
-20.22
-15.45
-11.06
-7.18
-3.78
-0.86
1.58
3.53
4.99
6.04
6.78
7.3
7.66
7.87
7.91
7.82
7.68
7.54
7.45
7.35
7.14
6.7
6.02
5.1
3.99
2.76
1.47
0.14
-1.2
-2.55
-3.92
-5.39
-7.06
-9.02
-11.32
-13.92
-16.64
-19.2
-21.25
-22.44
-22.5
-21.41
-19.29
-16.4
-13.03
-9.41
-5.71
-2.03
1.49
4.64
7.17
8.9
9.77
9.91
9.58
9.06
8.56
8.15
7.77
7.31
6.71
6.03
5.38
4.91
4.65
4.5
4.23
3.59
2.44
0.76
-1.28
-3.44
-5.52
-7.37
-8.95
-10.35
-11.69
-13.14
-14.83
-16.88
-19.23
-21.75
-24.1
-25.88
-26.68
-26.17
-24.27
-21.06
-16.87
-12.17
-7.45
-3.12
0.58
3.56
5.95
7.91
9.59
11.07
12.29
13.14
13.52
13.44
13.03
12.47
11.88
11.31
10.73
10.12
9.51
9.02
8.75
8.66
8.56
8.16
7.24
5.77
3.92
1.98
0.2
-1.33
-2.68
-4.02
-5.51
-7.24
-9.26
-11.59
-14.18
-16.89
-19.43
-21.42
-22.48
-22.41
-21.19
-19.06
-16.31
-13.24
-10.0
-6.64
-3.17
0.36
3.77
6.81
9.18
10.72
11.45
11.56
11.34
11.07
10.88
10.75
10.59
10.27
9.82
9.28
8.75
8.24
7.65
6.87
5.8
4.49
3.06
1.67
0.43
-0.65
-1.64
-2.64
-3.71
-4.88
-6.31
-8.15
-10.61
-13.68
-17.09
-20.22
-22.39
-23.02
-21.96
-19.43
-15.87
-11.76
-7.41
-3.0
1.32
5.3
8.67
11.18
12.8
13.68
14.11
14.28
14.19
13.73
12.7
10.99
8.67
5.93
3.1
0.47
-1.74
-3.43
-4.67
-5.64
-6.57
-7.64
-8.93
-10.42
-11.99
-13.54
-15.04
-16.55
-18.17
-19.99
-22.04
-24.23
-26.33
-28.08
-29.16
-29.31
-28.37
-26.3
-23.13
-18.99
-14.08
-8.68
-3.16
2.12
6.8
10.65
13.55
15.54
16.75
17.34
17.42
17.06
16.26
15.01
13.4
11.62
9.94
8.59
7.71
7.29
7.13
6.97
6.57
5.83
4.78
3.54
2.27
1.05
-0.13
-1.35
-2.74
-4.44
-6.53
-9.04
-11.94
-15.1
-18.3
-21.15
-23.14
-23.81
-22.84
-20.3
-16.54
-12.17
-7.76
-3.7
-0.09
3.14
6.06
8.64
10.72
12.16
12.89
13.04
12.88
12.66
12.54
12.52
12.51
12.41
12.21
11.97
11.82
11.81
11.9
11.97
11.8
11.25
10.2
8.65
6.65
4.36
1.92
-0.55
-3.0
-5.47
-8.05
-10.78
-13.6
-16.24
-18.28
-19.32
-19.03
-17.33
-14.34
-10.37
-5.79
-0.97
3.81
8.34
12.53
16.31
19.61
22.29
24.17
25.04
24.76
23.41
21.15
18.26
14.99
11.55
8.14
5.01
2.48
0.77
-0.05
-0.22
-0.2
-0.51
-1.45
-3.02
-4.85
-6.37
-7.12
-6.87
-5.76
-4.24
-2.87
-2.23
-2.77
-4.7
-7.99
-12.31
-17.02
-21.27
-24.18
-25.04
-23.61
-20.18
-15.5
-10.45
-5.82
-2.02
0.87
2.98
4.47
5.43
5.89
5.97
5.82
5.66
5.69
6.02
6.66
7.63
8.94
10.68
12.9
15.53
18.37
21.19
23.72
25.76
27.17
27.8
27.51
26.23
23.99
20.92
17.24
13.12
8.58
3.49
-2.27
-8.66
-15.36
-21.78
-27.19
-30.97
-32.81
-32.79
-31.27
-28.76
-25.72
-22.44
-19.1
-15.76
-12.5
-9.38
-6.5
-3.89
-1.53
0.62
2.58
4.32
5.73
6.7
7.22
7.37
7.39
7.57
8.13
9.11
10.3
11.39
12.04
12.14
11.84
11.5
11.55
12.3
13.87
16.19
18.97
21.78
23.97
24.76
23.41
19.46
12.94
4.48
-4.79
-13.58
-20.68
-25.25
-26.98
-25.97
-22.66
-17.74
-11.98
-6.11
-0.69
3.96
7.83
11.07
13.89
16.47
18.89
21.2
23.39
25.48
27.51
29.48
31.38
33.17
34.81
36.24
37.39
38.16
38.42
38.06
37.01
35.33
33.13
30.5
27.43
23.82
19.54
14.53
8.95
3.09
-2.69
-8.19
-13.41
-18.6
-24.03
-29.79
-35.72
-41.36
-46.16
-49.6
-51.33
-51.24
-49.38
-45.96
-41.28
-35.74
-29.72
-23.6
-17.61
-11.83
-6.24
-0.81
4.35
9.01
12.83
15.44
16.66
16.53
15.33
13.52
11.57
9.88
8.61
7.79
7.27
6.95
6.67
6.32
5.74
4.73
3.12
0.85
-1.93
-4.91
-7.65
-9.78
-11.08
-11.63
-11.7
-11.72
-12.05
-12.9
-14.22
-15.71
-16.89
-17.27
-16.56
-14.69
-11.83
-8.27
-4.31
-0.19
3.82
7.45
10.41
12.43
13.35
13.2
12.18
10.63
8.93
7.41
6.31
5.67
5.38
5.19
4.86
4.24
3.37
2.43
1.63
1.1
0.86
0.78
0.72
0.54
0.16
-0.46
-1.31
-2.36
-3.5
-4.7
-5.93
-7.3
-8.9
-10.75
-12.7
-14.45
-15.61
-15.86
-15.05
-13.25
-10.63
-7.41
-3.87
-0.26
3.14
6.07
8.37
9.98
10.99
11.49
11.55
11.16
10.3
8.99
7.37
5.74
4.45
3.79
3.89
4.64
5.75
6.85
7.66
8.02
7.89
7.41
6.68
5.8
4.79
3.67
2.47
1.27
0.16
-0.8
-1.65
-2.56
-3.74
-5.34
-7.29
-9.29
-10.86
-11.51
-10.95
-9.19
-6.57
-3.57
-0.66
1.92
4.15
6.15
8.1
10.02
11.83
13.37
14.47
15.02
15.0
14.46
13.48
12.12
10.45
8.51
6.31
3.92
1.48
-0.84
-2.77
-4.19
-5.06
-5.56
-5.9
-6.28
-6.75
-7.18
-7.4
-7.34
-7.07
-6.86
-7.04
-7.87
-9.56
-12.15
-15.55
-19.5
-23.48
-26.79
-28.62
-28.34
-25.66
-20.81
-14.45
-7.48
-0.78
4.99
9.54
12.9
15.28
16.93
18.07
18.76
19.03
18.89
18.44
17.79
17.11
16.5
16.0
15.62
15.32
15.1
14.92
14.74
14.45
13.89
12.91
11.39
9.31
6.78
4.02
1.33
-1.03
-2.94
-4.52
-6.11
-8.09
-10.74
-13.95
-17.34
-20.26
-22.12
-22.52
-21.41
-19.03
-15.76
-12.06
-8.27
-4.66
-1.42
1.3
3.4
4.83
5.67
6.06
6.2
6.23
6.27
6.33
6.37
6.32
6.17
5.89
5.54
5.13
4.7
4.26
3.8
3.28
2.64
1.81
0.7
-0.72
-2.44
-4.33
-6.24
-7.98
-9.42
-10.57
-11.49
-12.41
-13.55
-15.13
-17.25
-19.81
-22.53
-24.93
-26.48
-26.7
-25.33
-22.4
-18.26
-13.43
-8.47
-3.81
0.35
3.96
7.08
9.74
11.97
13.76
15.14
16.19
17.01
17.66
18.12
18.32
18.16
17.61
16.75
15.72
14.72
13.87
13.25
12.82
12.48
12.13
11.6
10.77
9.57
8.03
6.22
4.26
2.25
0.24
-1.75
-3.71
-5.65
-7.59
-9.62
-11.8
-14.16
-16.54
-18.64
-20.0
-20.22
-19.08
-16.64
-13.2
-9.22
-5.14
-1.26
2.24
5.3
7.95
10.26
12.27
13.99
15.42
16.49
17.14
17.31
17.04
16.4
15.5
14.51
13.55
12.75
12.18
11.85
11.68
11.48
11.05
10.16
8.75
6.92
4.92
3.05
1.48
0.21
-0.96
-2.31
-4.07
-6.28
-8.85
-11.57
-14.23
-16.6
-18.5
-19.76
-20.2
-19.66
-18.05
-15.42
-11.97
-8.01
-3.92
-0.02
3.5
6.58
9.23
11.48
13.29
14.57
15.22
15.23
14.73
13.95
13.17
12.55
12.13
11.81
11.48
11.04
10.48
9.82
9.07
8.24
7.3
6.2
4.96
3.56
2.08
0.56
-0.93
-2.38
-3.79
-5.24
-6.77
-8.45
-10.3
-12.35
-14.6
-17.05
-19.59
-22.06
-24.15
-25.54
-25.92
-25.1
-23.08
-20.03
-16.23
-12.05
-7.85
-3.94
-0.55
2.25
4.49
6.3
7.8
9.06
10.03
10.68
10.95
10.89
10.56
10.07
9.5
8.91
8.38
7.98
7.77
7.73
7.78
7.77
7.55
7.08
6.36
5.52
4.63
3.71
2.7
1.49
-0.0
-1.73
-3.55
-5.25
-6.67
-7.77
-8.67
-9.63
-10.87
-12.51
-14.54
-16.81
-19.11
-21.16
-22.65
-23.2
-22.52
-20.48
-17.24
-13.26
-9.12
-5.37
-2.3
0.08
1.99
3.66
5.24
6.68
7.83
8.53
8.71
8.43
7.86
7.19
6.55
5.98
5.46
4.97
4.55
4.28
4.27
4.52
4.91
5.23
5.28
4.96
4.32
3.47
2.55
1.61
0.66
-0.31
-1.3
-2.27
-3.25
-4.3
-5.52
-7.03
-8.91
-11.1
-13.45
-15.74
-17.66
-18.93
-19.33
-18.74
-17.2
-14.82
-11.82
-8.42
-4.83
-1.3
1.93
4.65
6.76
8.3
9.38
10.14
10.6
10.75
10.5
9.87
9.01
8.11
7.34
6.73
6.22
5.69
5.12
4.52
3.93
3.34
2.62
1.59
0.16
-1.63
-3.52
-5.23
-6.56
-7.54
-8.41
-9.54
-11.19
-13.42
-16.0
-18.49
-20.4
-21.3
-21.02
-19.61
-17.33
-14.48
-11.35
-8.1
-4.81
-1.54
1.62
4.49
6.9
8.7
9.88
10.53
10.83
10.91
10.82
10.53
10.02
9.33
8.56
7.85
7.28
6.82
6.39
5.84
5.1
4.17
3.13
2.04
0.92
-0.3
-1.67
-3.26
-5.06
-6.99
-8.98
-10.92
-12.85
-14.82
-16.93
-19.2
-21.51
-23.62
-25.14
-25.72
-25.14
-23.34
-20.46
-16.82
-12.74
-8.55
-4.49
-0.71
2.74
5.85
8.59
10.91
12.67
13.79
14.26
14.15
13.65
12.93
12.1
11.21
10.31
9.49
8.88
8.52
8.38
8.25
7.83
6.91
5.42
3.53
1.53
-0.25
-1.65
-2.7
-3.63
-4.75
-6.35
-8.65
-11.58
-14.95
-18.39
-21.46
-23.76
-24.98
-24.88
-23.4
-20.61
-16.79
-12.37
-7.83
-3.61
0.05
3.08
5.58
7.68
9.45
10.86
11.81
12.23
12.09
11.49
10.57
9.5
8.43
7.47
6.7
6.18
5.94
5.96
6.11
6.22
6.07
5.47
4.38
2.9
1.25
-0.34
-1.75
-3.04
-4.42
-6.15
-8.43
-11.25
-14.41
-17.54
-20.17
-21.85
-22.21
-21.1
-18.55
-14.88
-10.54
-6.06
-1.89
1.68
4.6
6.96
8.96
10.76
12.44
13.9
14.97
15.49
15.38
14.68
13.55
12.23
10.92
9.75
8.76
7.91
7.07
6.11
4.9
3.37
1.52
-0.55
-2.7
-4.74
-6.58
-8.22
-9.86
-11.76
-14.12
-16.97
-20.01
-22.74
-24.56
-25.02
-23.94
-21.42
-17.78
-13.35
-8.48
-3.47
1.35
5.68
9.27
11.99
13.89
15.14
15.93
16.39
16.53
16.34
15.81
15.0
14.01
12.99
12.03
11.13
10.23
9.23
8.07
6.74
5.32
3.92
2.56
1.19
-0.3
-2.05
-4.15
-6.61
-9.4
-12.48
-15.84
-19.35
-22.77
-25.68
-27.59
-28.09
-26.97
-24.32
-20.46
-15.8
-10.74
-5.61
-0.63
4.04
8.32
12.14
15.44
18.19
20.33
21.79
22.55
22.65
22.12
21.05
19.58
17.87
16.15
14.6
13.36
12.39
11.52
10.51
9.2
7.62
5.87
4.14
2.5
0.94
-0.63
-2.27
-4.02
-5.89
-7.94
-10.29
-13.06
-16.22
-19.52
-22.46
-24.41
-24.84
-23.5
-20.49
-16.23
-11.3
-6.27
-1.54
2.71
6.44
9.65
12.29
14.29
15.57
16.18
16.2
15.77
15.04
14.09
13.01
11.88
10.8
9.85
9.02
8.21
7.27
6.0
4.29
2.11
-0.5
-3.4
-6.4
-9.28
-11.83
-13.97
-15.74
-17.36
-19.08
-21.03
-23.12
-24.98
-26.04
-25.65
-23.32
-18.84
-12.35
-4.36
4.38
13.05
20.9
27.48
32.63
36.43
39.03
40.54
40.96
40.3
38.63
36.15
33.17
30.03
26.99
24.17
21.59
19.2
16.93
14.74
12.62
10.53
8.43
6.28
4.04
1.73
-0.62
-2.99
-5.37
-7.8
-10.35
-13.06
-15.94
-18.93
-21.82
-24.32
-26.08
-26.73
-25.99
-23.83
-20.42
-16.17
-11.59
-7.09
-2.94
0.76
4.05
6.94
9.35
11.19
12.36
12.85
12.78
12.29
11.51
10.47
9.17
7.59
5.75
3.75
1.73
-0.22
-2.08
-3.92
-5.84
-7.95
-10.32
-12.94
-15.77
-18.77
-21.89
-25.12
-28.37
-31.51
-34.34
-36.58
-37.92
-38.1
-37.0
-34.72
-31.44
-27.43
-22.89
-17.89
-12.36
-6.22
0.58
7.98
15.76
23.62
31.19
38.13
44.12
48.96
52.56
54.96
56.25
56.58
56.07
54.79
52.78
50.14
46.95
43.34
39.44
35.3
30.97
26.54
22.14
17.95
14.1
10.56
7.18
3.69
-0.05
-3.95
-7.63
-10.6
-12.37
-12.68
-11.58
-9.31
-6.26
-2.81
0.71
4.0
6.85
9.1
10.68
11.63
12.07
12.13
11.93
11.49
10.8
9.85
8.68
7.44
6.31
5.42
4.79
4.32
3.86
3.25
2.43
1.37
0.1
-1.33
-2.86
-4.42
-5.95
-7.47
-9.05
-10.81
-12.87
-15.25
-17.82
-20.3
-22.33
-23.57
-23.79
-22.9
-20.95
-18.12
-14.69
-10.95
-7.16
-3.55
-0.2
2.83
5.55
7.94
9.98
11.62
12.85
13.63
13.93
13.76
13.17
12.25
11.19
10.15
9.27
8.56
7.94
7.27
6.45
5.43
4.24
2.96
1.63
0.24
-1.22
-2.78
-4.44
-6.15
-7.84
-9.45
-10.99
-12.49
-14.04
-15.64
-17.15
-18.3
-18.76
-18.26
-16.7
-14.21
-11.06
-7.59
-4.08
-0.71
2.45
5.32
7.82
9.83
11.25
12.03
12.23
12.0
11.53
11.0
10.52
10.09
9.63
9.07
8.39
7.64
6.93
6.36
5.95
5.63
5.25
4.65
3.76
2.56
1.14
-0.37
-1.84
-3.21
-4.53
-5.93
-7.59
-9.59
-11.92
-14.45
-16.97
-19.26
-21.15
-22.52
-23.24
-23.18
-22.2
-20.25
-17.41
-13.9
-10.08
-6.32
-2.88
0.08
2.55
4.59
6.28
7.65
8.67
9.34
9.68
9.74
9.61
9.34
8.94
8.33
7.51
6.53
5.52
4.67
4.08
3.7
3.34
2.8
1.9
0.64
-0.84
-2.32
-3.6
-4.58
-5.29
-5.89
-6.6
-7.64
-9.15
-11.1
-13.31
-15.48
-17.28
-18.39
-18.6
-17.83
-16.11
-13.63
-10.66
-7.57
-4.67
-2.13
0.05
1.97
3.78
5.51
7.1
8.37
9.2
9.53
9.41
8.94
8.23
7.41
6.59
5.92
5.47
5.19
4.93
4.48
3.65
2.41
0.89
-0.71
-2.2
-3.48
-4.55
-5.52
-6.47
-7.51
-8.73
-10.19
-11.89
-13.74
-15.51
-16.9
-17.58
-17.22
-15.72
-13.13
-9.74
-6.02
-2.45
0.6
2.97
4.73
6.09
7.23
8.22
9.01
9.5
9.62
9.4
8.93
8.35
7.73
7.1
6.45
5.75
4.97
4.08
3.11
2.05
0.93
-0.26
-1.51
-2.84
-4.26
-5.73
-7.17
-8.55
-9.86
-11.21
-12.76
-14.62
-16.71
-18.76
-20.31
-20.9
-20.24
