2013-02-24 17:43:32
64.0
-0.0
-0.0
-0.0
-0.0
-0.0
-0.0
-0.0
-0.0
-0.0
-0.0
0.0
0.01
0.01
-0.0
-0.03
-0.05
-0.05
0.0
0.13
0.36
0.66
1.01
1.37
1.72
2.06
2.4
2.79
3.24
3.8
4.42
5.06
5.66
6.2
6.68
7.15
7.68
8.31
9.14
10.09
11.04
11.88
12.56
13.14
13.76
14.65
15.96
17.91
20.32
22.9
25.38
27.58
29.57
31.68
34.32
37.81
42.54
48.15
54.1
59.83
64.97
69.58
74.14
79.34
85.71
93.76
103.0
112.62
121.73
129.77
136.75
143.3
150.75
157.77
166.64
177.95
191.79
206.97
220.57
228.25
225.36
208.53
176.87
132.76
80.05
23.07
-34.94
-92.44
-149.16
-205.23
-260.37
-313.74
-363.87
-409.83
-450.91
-486.5
-515.74
-537.23
-549.22
-549.96
-538.37
-514.21
-478.67
-433.88
-382.45
-327.02
-269.84
-212.63
-156.66
-102.95
-52.37
-5.9
35.58
71.43
101.35
125.5
144.38
158.69
169.15
176.37
180.75
182.57
182.07
179.51
175.23
169.65
163.18
156.15
148.81
141.3
133.69
126.02
118.33
110.69
103.16
95.8
88.68
81.83
75.25
68.95
62.95
57.25
51.85
46.78
42.03
37.59
33.47
29.64
26.09
22.8
19.77
16.98
14.46
12.22
10.25
8.54
7.08
5.8
4.69
3.7
2.83
2.08
1.47
1.0
0.66
0.4
0.19
-0.05
-0.32
-0.63
-0.91
-1.11
-1.2
-1.16
-1.09
-1.08
-1.24
-1.61
-2.14
-2.68
-3.08
-3.21
-3.09
-2.88
-2.81
-3.1
-3.85
-4.94
-6.08
-6.95
-7.31
-7.18
-6.81
-6.65
-7.08
-8.26
-10.01
-11.87
-13.33
-14.03
-13.96
-13.44
-12.98
-13.05
-13.99
-15.93
-18.77
-22.09
-25.02
-26.25
-24.43
-18.77
-9.56
1.65
12.6
21.08
25.91
27.32
26.65
25.62
25.47
26.6
28.63
30.97
33.11
34.92
36.48
37.86
38.93
39.35
38.7
36.78
33.73
30.02
26.32
23.16
20.71
18.66
16.51
13.54
9.46
4.47
-0.8
-5.57
-9.24
-11.67
-13.08
-14.06
-15.14
-16.68
-18.68
-20.83
-22.63
-23.44
-22.8
-20.47
-16.64
-11.94
-7.25
-3.49
-1.21
-0.5
-0.93
-1.89
-2.85
-3.59
-4.25
-4.99
-5.92
-6.88
-7.57
-7.72
-7.35
-6.71
-6.21
-6.2
-6.71
-7.52
-8.25
-8.54
-8.23
-7.42
-6.41
-5.6
-5.35
-5.8
-6.88
-8.35
-9.76
-10.53
-10.14
-8.25
-4.82
-0.25
4.82
9.58
13.38
15.93
17.35
17.99
18.27
18.48
18.29
17.57
16.27
14.49
12.41
10.22
8.1
6.1
4.28
2.71
1.53
0.76
0.38
0.27
0.28
0.26
0.14
-0.12
-0.57
-1.23
-2.18
-3.57
-5.54
-8.06
-10.85
-13.33
-14.72
-14.31
-11.71
-7.07
-1.1
5.31
11.35
16.58
20.86
24.2
26.58
27.87
27.9
26.61
24.14
20.84
17.12
13.36
9.82
6.63
3.84
1.38
-0.91
-3.19
-5.59
-8.09
-10.59
-12.97
-15.19
-17.38
-19.71
-22.31
-25.11
-27.9
-30.36
-32.2
-33.18
-33.12
-31.84
-29.14
-24.94
-19.34
-12.73
-5.73
0.92
6.63
11.04
14.08
15.88
16.63
16.51
15.64
14.18
12.33
10.38
8.64
7.34
6.61
6.36
6.42
6.59
6.79
7.04
7.43
8.01
8.69
9.24
9.35
8.72
7.16
4.64
1.25
-2.72
-6.84
-10.54
-13.22
-14.39
-13.86
-11.77
-8.48
-4.48
-0.15
4.28
8.64
12.71
16.11
18.4
19.18
18.31
15.93
12.46
8.44
4.37
0.6
-2.74
-5.65
-8.27
-10.67
-12.87
-14.73
-16.05
-16.67
-16.58
-15.94
-15.06
-14.28
-13.87
-14.01
-14.72
-15.9
-17.27
-18.4
-18.77
-17.85
-15.33
-11.21
-5.89
0.04
5.91
11.19
15.58
18.94
21.29
22.71
23.31
23.27
22.81
22.09
21.23
20.2
18.9
17.26
15.23
12.85
10.23
7.46
4.67
2.01
-0.37
-2.32
-3.81
-4.99
-6.22
-7.87
-10.15
-12.89
-15.55
-17.36
-17.62
-15.97
-12.49
-7.63
-2.08
3.43
8.27
11.99
14.38
15.47
15.43
14.51
12.94
10.89
8.55
6.11
3.75
1.66
-0.09
-1.51
-2.66
-3.52
-4.0
-4.0
-3.55
-2.82
-2.13
-1.84
-2.22
-3.39
-5.31
-7.73
-10.24
-12.28
-13.22
-12.59
-10.23
-6.42
-1.74
3.08
7.39
10.74
12.92
13.87
13.65
12.39
10.31
7.73
4.98
2.4
0.2
-1.49
-2.7
-3.52
-4.12
-4.67
-5.35
-6.23
-7.34
-8.66
-10.17
-11.9
-13.88
-16.1
-18.39
-20.4
-21.69
-21.8
-20.45
-17.65
-13.68
-9.08
-4.47
-0.37
2.85
5.09
6.42
7.04
7.11
6.72
5.91
4.7
3.2
1.62
0.2
-0.95
-1.87
-2.72
-3.69
-4.82
-5.98
-6.91
-7.31
-7.01
-6.08
-4.76
-3.5
-2.76
-2.9
-4.0
-5.79
-7.62
-8.69
-8.31
-6.18
-2.5
2.09
6.75
10.76
13.73
15.63
16.66
17.03
16.82
15.95
14.29
11.77
8.52
4.77
0.72
-3.5
-7.87
-12.34
-16.72
-20.71
-24.0
-26.48
-28.4
-30.28
-32.73
-36.19
-40.71
-46.08
-51.85
-57.56
-62.73
-66.84
-69.41
-70.03
-68.51
-65.03
-60.08
-54.4
-48.76
-43.75
-39.64
-36.51
-34.19
-32.56
-31.48
-30.89
-30.7
-30.71
-30.61
-29.94
-28.28
-25.29
-20.83
-14.95
-7.88
0.04
8.33
16.39
23.52
29.04
32.52
33.84
33.25
31.22
28.29
25.0
21.86
19.37
18.02
18.23
20.13
23.67
28.6
34.58
41.22
48.11
54.69
60.33
64.43
66.62
66.87
65.39
62.49
58.41
53.32
47.44
41.12
34.92
29.38
24.89
21.46
18.79
16.44
13.93
10.93
7.29
3.03
-1.71
-6.65
-11.39
-15.39
-18.15
-19.25
-18.59
-16.35
-13.09
-9.51
-6.24
-3.69
-1.96
-0.9
-0.3
-0.04
-0.13
-0.66
-1.7
-3.19
-4.99
-6.85
-8.58
-9.98
-10.93
-11.3
-11.07
-10.29
-9.09
-7.69
-6.34
-5.32
-4.84
-5.0
-5.73
-6.64
-7.15
-6.64
-4.61
-1.0
3.83
9.22
14.43
18.95
22.53
25.18
27.0
28.12
28.58
28.44
27.73
26.5
24.79
22.6
19.97
17.0
13.81
10.6
7.52
4.68
2.13
-0.13
-2.15
-4.06
-6.02
-8.25
-10.8
-13.54
-16.03
-17.63
-17.66
-15.64
-11.51
-5.74
0.83
7.15
12.43
16.3
18.9
20.66
22.03
23.19
24.04
24.35
24.02
23.2
22.19
21.25
20.41
19.44
17.96
15.76
12.89
9.69
6.58
3.9
1.74
-0.06
-1.78
-3.74
-6.19
-9.29
-13.07
-17.47
-22.3
-27.17
-31.48
-34.49
-35.5
-34.01
-29.99
-23.93
-16.7
-9.31
-2.6
2.92
7.18
10.37
12.78
14.59
15.85
16.52
16.52
15.91
14.92
13.87
13.11
12.87
13.11
13.54
13.73
13.32
12.17
10.41
8.34
6.18
3.99
1.67
-0.89
-3.66
-6.5
-9.26
-11.9
-14.51
-17.24
-20.05
-22.55
-24.08
-23.95
-21.77
-17.67
-12.22
-6.26
-0.56
4.39
8.4
11.5
13.79
15.42
16.4
16.71
16.28
15.1
13.21
10.81
8.21
5.75
3.72
2.26
1.39
1.01
0.99
1.28
1.84
2.62
3.52
4.32
4.78
4.7
3.99
2.71
1.0
-1.05
-3.32
-5.77
-8.21
-10.25
-11.28
-10.68
-8.05
-3.5
2.29
8.3
13.55
17.42
19.84
21.2
22.02
22.68
23.29
23.68
23.57
22.78
21.23
19.03
16.39
13.58
10.86
8.44
6.39
4.69
3.27
2.07
1.07
0.29
-0.29
-0.79
-1.43
-2.42
-3.92
-5.88
-8.1
-10.31
-12.21
-13.57
-14.23
-14.06
-12.97
-10.88
-7.9
-4.25
-0.35
3.36
6.48
8.84
10.45
11.43
11.9
11.91
11.41
10.37
8.82
6.95
5.02
3.33
2.13
1.54
1.49
1.76
2.0
1.86
1.13
-0.18
-1.88
-3.67
-5.34
-6.86
-8.37
-10.04
-11.94
-13.91
-15.58
-16.54
-16.43
-15.11
-12.6
-9.13
-4.99
-0.54
3.84
7.8
10.97
13.12
14.15
14.17
13.47
12.4
11.24
10.1
8.95
7.66
6.18
4.52
2.8
1.18
-0.2
-1.26
-1.95
-2.24
-2.17
-1.86
-1.51
-1.34
-1.57
-2.3
-3.48
-4.99
-6.57
-7.95
-8.83
-8.95
-8.12
-6.27
-3.48
0.04
3.99
8.07
12.07
15.78
19.01
21.52
23.06
23.41
22.48
20.4
17.46
14.15
10.94
8.25
6.32
5.18
4.72
4.75
5.13
5.75
6.52
7.25
7.62
7.26
5.86
3.32
-0.15
-4.09
-7.89
-11.03
-13.11
-13.97
-13.64
-12.26
-10.1
-7.46
-4.67
-2.02
0.2
1.75
2.43
2.12
0.77
-1.55
-4.75
-8.67
-13.17
-18.02
-22.92
-27.45
-31.2
-33.86
-35.33
-35.73
-35.4
-34.68
-33.9
-33.31
-33.07
-33.31
-34.08
-35.32
-36.81
-38.14
-38.84
-38.42
-36.58
-33.27
-28.77
-23.57
-18.26
-13.3
-9.0
-5.49
-2.81
-0.94
0.21
0.84
1.17
1.4
1.53
1.31
0.43
-1.32
-3.76
-6.4
-8.61
-9.93
-10.25
-9.78
-8.8
-7.51
-5.91
-3.99
-1.93
-0.16
0.74
0.4
-1.05
-2.94
-4.18
-3.8
-1.31
3.09
8.6
14.11
18.76
22.2
24.62
26.5
28.18
29.58
30.21
29.52
27.26
23.72
19.74
16.27
13.98
12.93
12.63
12.23
10.99
8.48
4.81
0.43
-3.93
-7.53
-9.79
-10.45
-9.6
-7.6
-4.86
-1.62
2.07
6.29
11.04
16.08
20.93
25.06
28.05
29.73
30.16
29.49
27.87
25.45
22.38
18.87
15.22
11.78
8.85
6.61
5.1
4.21
3.67
3.23
2.64
1.74
0.51
-1.07
-2.99
-5.33
-8.15
-11.44
-15.01
-18.53
-21.52
-23.54
-24.3
-23.7
-21.85
-19.01
-15.53
-11.79
-8.16
-4.99
-2.53
-1.03
-0.59
-1.2
-2.65
-4.57
-6.5
-8.04
-8.95
-9.22
-9.04
-8.67
-8.33
-8.16
-8.14
-8.18
-8.2
-8.15
-8.13
-8.37
-9.22
-11.03
-13.91
-17.58
-21.3
-24.03
-24.82
-23.16
-19.19
-13.61
-7.38
-1.39
3.77
7.81
10.71
12.6
13.74
14.35
14.66
14.69
14.25
12.96
10.48
6.76
2.15
-2.48
-6.08
-7.76
-7.18
-4.72
-1.36
1.71
3.58
3.91
2.96
1.29
-0.63
-2.69
-5.09
-8.16
-12.08
-16.8
-22.05
-27.47
-32.67
-37.2
-40.46
-41.73
-40.37
-36.26
-29.94
-22.56
-15.52
-10.0
-6.55
-5.06
-4.95
-5.46
-5.92
-5.97
-5.53
-4.72
-3.77
-2.93
-2.49
-2.68
-3.64
-5.32
-7.44
-9.59
-11.32
-12.34
-12.52
-11.8
-10.11
-7.32
-3.39
1.31
5.87
9.14
10.11
8.48
4.79
0.15
-4.36
-8.24
-11.44
-14.15
-16.29
-17.41
-16.87
-14.45
-10.52
-5.92
-1.56
2.16
5.36
8.53
12.08
16.01
19.89
23.04
24.92
25.42
24.84
23.75
22.7
21.97
21.52
21.07
20.32
19.1
17.38
15.27
12.85
10.21
7.46
4.76
2.27
0.07
-1.87
-3.76
-5.81
-8.25
-11.18
-14.5
-17.92
-20.9
-22.74
-22.71
-20.28
-15.42
-8.65
-0.82
7.16
14.72
21.66
28.05
33.92
39.09
43.15
45.72
46.75
46.6
45.88
45.04
44.09
42.49
39.46
34.34
26.97
17.8
7.63
-2.75
-12.68
-21.91
-30.36
-37.94
-44.46
-49.66
-53.31
-55.4
-56.08
-55.56
-53.94
-51.11
-46.84
-40.92
-33.44
-24.79
-15.67
-6.84
1.12
8.01
13.9
19.07
23.78
28.05
31.7
34.49
36.35
37.44
38.09
38.63
39.09
39.14
38.26
36.09
32.68
28.63
24.73
21.67
19.57
18.04
16.29
13.57
9.42
3.79
-3.05
-10.57
-18.06
-24.67
-29.41
-31.43
-30.21
-25.78
-18.78
-10.28
-1.49
6.57
13.19
18.04
21.1
22.47
22.33
20.89
18.45
15.42
12.38
9.81
8.02
6.95
6.22
5.35
4.05
2.39
0.68
-0.72
-1.7
-2.51
-3.61
-5.4
-7.91
-10.73
-13.15
-14.41
-14.04
-12.07
-8.93
-5.36
-2.01
0.73
2.81
4.49
6.1
7.85
9.65
11.21
12.09
11.94
10.69
8.48
5.73
2.94
0.49
-1.37
-2.62
-3.41
-3.98
-4.56
-5.29
-6.3
-7.7
-9.6
-12.13
-15.31
-18.95
-22.52
-25.3
-26.52
-25.61
-22.39
-17.09
-10.32
-2.82
4.72
11.84
18.18
23.53
27.79
30.89
32.9
34.01
34.41
34.24
33.41
31.67
28.73
24.57
19.61
14.6
10.39
7.43
5.6
4.23
2.58
0.24
-2.7
-5.83
-8.8
-11.66
-14.72
-18.28
-22.17
-25.62
-27.57
-27.19
-24.24
-19.18
-12.98
-6.63
-0.81
4.21
8.44
11.96
14.74
16.56
17.18
16.46
14.52
11.84
9.12
6.94
5.61
4.96
4.52
3.85
2.88
2.01
1.78
2.43
3.51
3.97
2.55
-1.47
-7.93
-15.68
-23.16
-28.85
-31.81
-31.77
-28.94
-23.9
-17.41
-10.34
-3.54
2.32
6.93
10.43
13.18
15.62
17.83
19.57
20.51
20.41
19.33
17.62
15.72
13.97
12.51
11.33
10.31
9.35
8.34
7.24
6.14
5.12
4.29
3.64
2.95
2.02
0.64
-1.2
-3.31
-5.53
-7.86
-10.49
-13.45
-16.42
-18.6
-19.07
-17.26
-13.18
-7.6
-1.57
3.98
8.66
12.53
15.81
18.67
20.98
22.56
23.29
23.32
22.94
22.42
21.74
20.75
19.23
17.12
14.59
11.94
9.47
7.3
5.35
3.43
1.49
-0.38
-2.04
-3.52
-5.24
-7.88
-12.08
-18.0
-25.11
-32.2
-37.85
-40.89
-40.68
-37.22
-31.07
-23.1
-14.4
-6.19
0.35
4.35
5.61
4.76
2.81
0.8
-0.77
-2.03
-3.51
-5.57
-8.05
-10.31
-11.58
-11.42
-9.87
-7.35
-4.41
-1.46
1.24
3.46
5.04
5.91
6.16
6.16
6.31
7.01
8.37
10.2
12.07
13.58
14.56
15.43
17.15
21.08
28.39
39.6
53.98
69.76
84.59
96.39
104.02
107.51
107.75
105.83
102.41
97.46
90.47
80.79
68.02
52.29
34.31
15.19
-3.7
-20.96
-35.5
-46.79
-54.98
-60.77
-64.99
-68.29
-70.93
-72.94
-74.52
-76.22
-78.89
-83.27
-89.49
-96.71
-103.41
-107.95
-109.19
-106.88
-101.62
-94.38
-86.08
-77.2
-67.89
-58.18
-48.25
-38.67
-30.28
-23.95
-20.18
-18.88
-19.36
-20.55
-21.45
-21.4
-20.29
-18.52
-16.71
-15.45
-15.14
-15.85
-17.34
-19.04
-20.3
-20.55
-19.65
-18.03
-16.58
-16.24
-17.46
-19.96
-22.65
-24.23
-23.69
-20.7
-15.6
-9.1
-1.95
5.31
12.23
18.33
23.01
25.76
26.37
25.23
23.16
21.14
19.89
19.59
19.82
19.82
18.93
16.83
13.82
10.72
8.52
8.04
9.43
12.05
14.76
16.41
16.34
14.57
11.78
8.71
5.93
3.74
2.37
2.29
4.11
8.24
14.34
21.19
27.0
30.25
30.35
27.91
24.33
20.96
18.53
16.9
15.44
13.51
10.82
7.45
3.72
-0.06
-3.72
-7.17
-10.36
-13.24
-15.77
-17.98
-19.97
-21.98
-24.18
-26.68
-29.29
-31.56
-32.82
-32.42
-29.98
-25.63
-19.98
-13.93
-8.31
-3.54
0.29
3.31
5.65
7.31
8.2
8.23
7.51
6.28
4.84
3.48
2.34
1.5
0.97
0.77
0.97
1.58
2.56
3.73
4.84
5.57
5.62
4.82
3.28
1.42
-0.07
-0.35
1.25
5.04
10.89
18.23
26.3
34.29
41.59
47.71
52.26
54.92
55.43
53.79
50.3
45.6
40.41
35.3
30.58
26.23
22.07
17.88
13.58
9.14
4.62
0.12
-4.17
-8.02
-11.21
-13.67
-15.74
-18.02
-21.13
-25.34
-30.27
-34.99
-38.27
-39.14
-37.17
-32.61
-26.22
-18.93
-11.61
-4.85
1.02
5.86
9.64
12.36
14.04
14.69
14.38
13.29
11.75
10.13
8.78
7.83
7.15
6.47
5.52
4.21
2.64
1.1
-0.14
-0.97
-1.53
-2.17
-3.38
-5.62
-9.09
-13.67
-18.83
-23.6
-26.94
-27.93
-26.19
-21.96
-16.09
-9.69
-3.71
1.25
5.08
7.9
9.86
10.96
11.13
10.4
9.02
7.46
6.22
5.68
5.9
6.71
7.75
8.68
9.26
9.4
9.08
8.4
7.44
6.34
5.2
4.1
3.02
1.84
0.37
-1.65
-4.43
-7.98
-12.07
-16.19
-19.57
-21.43
-21.19
-18.75
-14.48
-9.23
-3.99
0.4
3.43
5.01
5.36
4.84
3.71
2.07
-0.07
-2.69
-5.71
-8.99
-12.42
-16.01
-19.79
-23.75
-27.84
-31.87
-35.65
-38.98
-41.78
-43.97
-45.43
-45.9
-45.0
-42.34
-37.69
-31.2
-23.45
-15.36
-7.96
-2.19
1.51
3.26
3.8
4.21
5.6
8.71
13.76
20.42
27.98
35.69
42.94
49.38
54.82
59.1
62.01
63.27
62.67
60.25
56.34
51.51
46.32
41.18
36.25
31.56
27.05
22.76
18.81
15.34
12.5
10.32
8.8
7.79
7.09
6.36
5.25
3.45
0.86
-2.35
-5.84
-9.15
-11.84
-13.49
-13.75
-12.27
-8.88
-3.76
2.54
9.13
15.04
19.61
22.59
24.18
24.79
24.75
24.2
23.16
21.61
19.7
17.71
15.95
14.57
13.47
12.39
11.05
9.43
7.76
6.4
5.65
5.49
5.63
5.63
5.1
3.92
2.17
0.0
-2.44
-5.03
-7.53
-9.51
-10.36
-9.56
-6.91
-2.66
2.57
8.07
13.26
17.82
21.64
24.75
27.11
28.63
29.19
28.75
27.38
25.33
22.93
20.53
18.45
16.81
15.54
14.38
12.97
11.09
8.63
5.7
2.47
-0.88
-4.27
-7.65
-10.99
-14.27
-17.51
-20.81
-24.27
-27.96
-31.7
-35.09
-37.51
-38.33
-37.14
-33.91
-29.06
-23.28
-17.25
-11.45
-6.09
-1.14
3.42
7.51
10.9
13.32
14.59
14.85
14.42
13.69
12.92
12.09
11.02
9.54
7.7
5.86
4.5
4.01
4.47
5.58
6.78
7.56
7.6
6.99
6.02
5.01
4.12
3.21
2.01
0.17
-2.5
-5.92
-9.79
-13.63
-16.93
-19.19
-20.04
-19.28
-16.99
-13.46
-9.24
-5.0
-1.3
1.54
3.58
5.11
6.48
7.87
9.23
10.35
11.02
11.2
11.01
10.64
10.21
9.69
8.97
7.96
6.65
5.19
3.79
2.59
1.61
0.64
-0.63
-2.54
-5.23
-8.66
-12.53
-16.41
-19.91
-22.73
-24.77
-26.07
-26.82
-27.29
-27.79
-28.64
-29.94
-31.47
-32.62
-32.52
-30.4
-25.95
-19.51
-11.98
-4.45
2.2
7.52
11.56
14.58
16.86
18.57
19.68
20.17
20.03
19.34
18.23
16.8
15.15
13.42
11.71
10.19
8.95
8.02
7.38
6.9
6.47
5.92
5.11
3.86
2.09
-0.26
-3.14
-6.38
-9.82
-13.32
-16.77
-20.1
-23.15
-25.64
-27.05
-26.93
-24.93
-21.1
-15.9
-10.0
-4.1
1.34
6.07
9.97
12.9
14.69
15.22
14.57
13.02
10.95
8.67
6.33
3.98
1.65
-0.52
-2.43
-4.02
-5.45
-6.95
-8.7
-10.69
-12.73
-14.57
-16.03
-17.08
-17.78
-18.29
-18.78
-19.56
-20.94
-23.13
-26.04
-29.04
-31.13
-31.27
-28.81
-23.79
-16.94
-9.35
-2.1
4.09
8.98
12.66
15.37
17.37
18.81
19.79
20.42
20.79
21.01
21.12
21.12
20.96
20.5
19.59
18.16
16.28
14.22
12.4
11.34
11.24
12.01
13.17
14.05
14.18
13.42
12.05
10.54
9.19
8.0
6.66
4.87
2.68
0.55
-0.69
-0.31
2.02
6.07
11.17
16.54
21.58
25.92
29.32
31.51
32.03
30.51
26.77
21.2
14.69
8.33
3.07
-0.66
-2.98
-4.4
-5.6
-7.23
-9.8
-13.6
-18.75
-25.1
-32.29
-39.78
-46.98
-53.38
-58.55
-62.27
-64.34
-64.75
-63.58
-61.1
-57.64
-53.45
-48.66
-43.2
-37.04
-30.25
-23.18
-16.31
-10.15
-5.06
-1.23
1.33
2.75
3.24
3.06
2.58
2.11
1.94
2.14
2.68
3.41
4.24
5.08
5.95
6.81
7.55
7.98
7.78
6.61
4.15
0.18
-5.2
-11.37
-17.06
-20.44
-19.66
-13.52
-2.17
12.78
28.72
42.99
53.74
60.39
63.38
63.61
61.8
58.3
53.28
47.11
40.47
34.3
29.3
25.63
22.9
20.35
17.36
13.75
9.76
5.86
2.5
-0.21
-2.37
-4.25
-6.09
-7.96
-9.9
-11.92
-14.15
-16.7
-19.51
-22.2
-24.08
-24.34
-22.49
-18.58
-13.28
-7.58
-2.3
2.09
5.69
8.87
11.91
14.75
16.99
18.09
17.75
16.09
13.58
10.88
8.51
6.68
5.35
4.33
3.35
2.21
0.79
-0.96
-3.0
-5.27
-7.75
-10.56
-13.91
-18.03
-22.87
-28.05
-32.82
-36.25
-37.56
-36.36
-32.77
-27.34
-20.81
-13.87
-7.02
-0.55
5.37
10.58
14.83
17.91
19.69
20.2
19.68
18.48
16.94
15.3
13.7
12.17
10.72
9.33
7.89
6.29
4.4
2.2
-0.19
-2.55
-4.69
-6.56
-8.3
-10.13
-12.32
-15.06
-18.38
-22.15
-26.07
-29.63
-32.12
-32.84
-31.25
-27.18
-20.99
-13.47
-5.6
1.67
7.72
12.3
15.45
17.36
18.23
18.2
17.36
15.81
13.72
11.39
9.18
7.37
6.18
5.57
5.36
5.31
5.25
5.13
5.03
5.04
5.1
5.04
4.53
3.33
1.31
-1.46
-4.83
-8.6
-12.51
-16.25
-19.41
-21.54
-22.21
-21.12
-18.21
-13.66
-7.92
-1.66
4.33
9.3
12.63
14.1
13.84
12.31
10.15
7.97
6.17
4.88
4.03
3.46
3.01
2.53
1.96
1.29
0.58
-0.07
-0.52
-0.74
-0.87
-1.29
-2.51
-4.96
-8.77
-13.62
-18.73
-23.16
-26.07
-26.95
-25.75
-22.73
-18.37
-13.12
-7.43
-1.81
3.22
7.18
9.76
10.96
11.03
10.4
9.51
8.7
8.17
7.95
7.93
7.84
7.34
6.16
4.19
1.67
-0.94
-3.16
-4.81
-6.09
-7.6
-9.95
-13.55
-18.35
-23.86
-29.27
-33.64
-36.07
-36.01
-33.35
-28.59
-22.73
-16.94
-12.18
-8.9
-7.0
-6.0
-5.48
-5.3
-5.67
-6.94
-9.36
-12.75
-16.41
-19.07
-18.95
-14.19
-3.25
14.39
37.92
65.22
93.29
119.11
140.39
156.1
166.46
172.5
175.62
177.08
177.9
178.92
180.81
184.08
188.77
194.01
197.9
197.69
190.55
174.58
149.6
117.46
81.57
46.23
15.84
-5.52
-14.28
-7.68
15.42
53.47
101.54
151.58
194.22
221.32
228.31
215.35
186.58
148.22
106.34
65.44
28.07
-4.7
-32.56
-55.47
-73.67
-87.77
-98.81
-107.99
-116.31
-124.26
-131.76
-138.27
-143.03
-145.36
-145.02
-142.39
-138.4
-134.33
-131.32
-129.95
-130.1
-131.18
-132.61
-134.37
-137.17
-142.08
-150.03
-161.07
-174.14
-187.37
-198.84
-207.19
-212.17
-214.31
-214.29
-212.19
-206.95
-196.55
-178.91
-153.12
-120.34
-83.88
-48.17
-17.15
7.19
25.23
38.94
50.31
59.99
66.88
68.96
64.69
54.01
38.41
19.97
0.2
-20.47
-42.34
-65.37
-88.45
-109.42
-126.04
-137.18
-143.45
-146.8
-149.52
-153.09
-157.7
-162.68
-167.14
-170.6
-172.94
-173.94
-172.75
-167.95
-158.03
-142.4
-121.92
-98.94
-76.64
-57.87
-44.34
-36.2
-32.32
-30.85
-29.98
-28.38
-25.29
-20.27
-12.94
-2.93
9.94
25.45
42.7
60.33
76.95
91.56
103.75
113.73
121.91
128.62
133.87
137.4
138.79
137.69
133.95
127.71
119.45
109.91
100.04
90.71
82.53
75.63
69.71
64.17
58.47
52.37
45.89
39.3
32.79
26.37
19.83
12.98
5.78
-1.47
-8.11
-13.46
-16.96
-18.48
-18.37
-17.34
-16.12
-15.27
-15.0
-15.26
-15.95
-17.13
-19.09
-22.08
-26.03
-30.29
-33.67
-34.82
-32.83
-27.46
-19.25
-9.08
2.25
14.19
26.33
38.05
48.41
56.34
61.04
62.49
61.47
59.28
57.04
55.29
53.82
52.02
49.38
45.82
41.72
37.58
33.77
30.32
26.94
23.23
18.91
13.84
8.05
1.61
-5.36
-12.61
-19.64
-25.69
-29.88
-31.44
-30.09
-26.05
-20.01
-12.87
-5.48
1.56
7.84
13.03
16.85
18.96
19.23
17.82
15.24
12.27
9.62
7.73
6.66
6.18
5.95
5.75
5.55
5.37
5.25
5.13
4.85
4.19
2.99
1.09
-1.58
-4.95
-8.7
-12.24
-14.78
-15.48
-13.72
-9.27
-2.41
6.2
15.62
24.83
32.88
38.98
42.68
43.9
42.93
40.31
36.68
32.61
28.51
24.65
21.08
17.83
14.85
12.18
9.88
8.03
6.68
5.7
4.85
3.79
2.2
-0.14
-3.23
-6.82
-10.37
-13.1
-14.17
-12.86
-8.87
-2.49
5.47
13.93
21.89
28.69
34.03
37.87
40.24
41.09
40.38
38.11
34.48
29.82
24.66
19.57
15.16
11.89
10.03
9.55
10.14
11.32
12.66
13.82
14.68
15.12
14.99
13.98
11.82
8.5
4.54
0.87
-1.39
-1.4
1.05
5.44
10.77
15.95
20.25
23.41
25.63
27.2
28.17
28.33
27.22
24.5
20.09
14.34
7.9
1.49
-4.27
-9.04
-12.74
-15.44
-17.27
-18.36
-18.9
-19.2
-19.71
-20.86
-22.89
-25.66
-28.47
-30.3
-30.04
-26.96
-20.98
-12.75
-3.42
5.78
13.88
20.42
25.43
29.2
32.07
34.26
35.81
36.7
36.88
36.35
35.19
33.46
31.22
28.47
25.24
21.55
17.56
13.58
10.01
7.22
5.31
4.03
2.76
0.84
-2.13
-5.95
-9.83
-12.68
-13.51
-11.92
-8.19
-3.19
2.0
6.5
9.79
11.87
13.02
13.62
13.93
14.05
13.92
13.51
12.82
11.94
10.88
9.57
7.75
5.22
1.95
-1.83
-5.66
-9.09
-11.82
-13.9
-15.63
-17.39
-19.45
-21.93
-24.72
-27.48
-29.75
-30.95
-30.55
-28.25
-24.11
-18.56
-12.29
-6.04
-0.35
4.45
8.28
11.19
13.25
14.58
15.33
15.67
15.79
15.83
15.81
15.67
15.26
14.41
13.04
11.17
9.06
7.02
5.42
4.4
3.93
3.74
3.51
3.0
2.09
0.9
-0.38
-1.46
-2.04
-1.83
-0.6
1.74
5.06
8.96
12.9
16.29
18.64
19.68
19.38
17.9
15.58
12.91
10.42
8.51
7.27
6.54
5.91
5.0
3.61
1.83
-0.09
-1.85
-3.29
-4.43
-5.42
-6.52
-7.96
-9.95
-12.55
-15.65
-18.91
-21.74
-23.47
-23.53
-21.66
-18.06
-13.42
-8.78
-5.23
-3.49
-3.66
-5.14
-6.92
-8.11
-8.41
-8.26
-8.52
-9.93
-12.62
-16.01
-19.17
-21.29
-22.09
-21.84
-20.99
-19.83
-18.3
-16.13
-13.14
-9.59
-6.19
-3.91
-3.57
-5.51
-9.37
-14.14
-18.48
-21.11
-21.29
-19.04
-15.16
-10.88
-7.46
-5.71
-5.82
-7.42
-9.79
-12.28
-14.39
-15.85
-16.6
-16.65
-16.12
-15.19
-14.13
-13.28
-12.89
-13.08
-13.76
-14.71
-15.58
-16.08
-16.05
-15.47
-14.45
-13.16
-11.72
-10.07
-8.06
-5.48
-2.23
1.67
6.09
10.81
15.71
20.64
25.43
29.76
33.16
35.15
35.4
33.89
30.98
27.18
23.04
18.88
14.79
10.69
6.44
2.05
-2.3
-6.3
-9.55
-11.79
-12.96
-13.22
-12.96
-12.65
-12.69
-13.26
-14.13
-14.65
-13.9
-10.94
-5.29
2.83
12.41
21.97
29.99
35.46
38.12
38.43
37.24
35.41
33.53
31.79
30.1
28.29
26.21
23.81
21.13
18.29
15.45
12.75
10.24
7.82
5.32
2.53
-0.68
-4.32
-8.28
-12.38
-16.41
-20.07
-22.96
-24.58
-24.45
-22.27
-18.12
-12.47
-6.09
0.22
5.86
10.51
14.12
16.76
18.52
19.45
19.65
19.29
18.61
17.87
17.27
17.0
17.15
17.81
18.99
20.51
22.04
23.07
23.09
21.72
18.85
14.63
9.38
3.54
-2.38
-7.77
-11.97
-14.43
-14.81
-13.2
-10.06
-6.1
-2.04
1.57
4.44
6.44
7.51
7.6
6.62
4.49
1.29
-2.78
-7.3
-11.78
-15.78
-19.01
-21.41
-23.05
-24.07
-24.51
-24.35
-23.53
-22.09
-20.28
-18.49
-17.08
-16.17
-15.49
-14.46
-12.38
-8.81
-3.76
2.24
8.33
13.6
17.39
19.47
20.01
19.4
18.09
16.42
14.56
12.58
10.46
8.2
5.85
3.51
1.25
-0.91
-2.99
-5.07
-7.15
-9.1
-10.65
-11.53
-11.62
-11.12
-10.49
-10.31
-10.94
-12.31
-13.91
-14.99
-14.85
-13.18
-10.11
-6.1
-1.79
2.24
5.55
7.91
9.23
9.59
9.24
8.46
7.53
6.54
5.4
3.89
1.87
-0.57
-3.1
-5.26
-6.75
-7.53
-7.85
-8.12
-8.62
-9.49
-10.74
-12.39
-14.48
-16.97
-19.53
-21.43
-21.8
-20.01
-16.05
-10.68
-5.12
-0.45
2.77
4.71
6.0
7.23
8.66
10.1
11.19
11.64
11.43
10.73
9.76
8.62
7.28
5.68
3.77
1.68
-0.4
-2.27
-3.86
-5.25
-6.68
-8.43
-10.67
-13.39
-16.32
-19.05
-21.09
-22.06
-21.7
-19.95
-16.91
-12.83
-8.07
-3.1
1.56
5.48
8.4
10.35
11.54
12.23
12.54
12.48
11.95
10.89
9.41
7.67
5.89
4.18
2.58
1.07
-0.38
-1.74
-3.02
-4.23
-5.45
-6.75
-8.16
-9.68
-11.21
-12.59
-13.53
-13.59
-12.27
-9.25
-4.56
1.31
7.56
13.36
18.2
21.95
24.76
26.75
27.89
27.96
26.74
24.23
20.75
16.87
13.16
10.07
7.73
5.99
4.56
3.12
1.43
-0.56
-2.84
-5.33
-8.01
-10.82
-13.77
-16.73
-19.54
-21.93
-23.56
-24.11
-23.32
-21.11
-17.66
-13.4
-8.92
-4.77
-1.28
1.55
3.98
6.32
8.71
10.95
12.61
13.2
12.43
10.4
7.55
4.49
1.79
-0.18
-1.37
-1.91
-2.13
-2.36
-2.92
-4.0
-5.68
-7.86
-10.31
-12.68
-14.56
-15.49
-15.12
-13.21
-9.7
-4.83
0.92
6.87
12.35
16.87
20.31
22.78
24.53
25.64
25.9
24.94
22.42
18.35
13.24
7.96
3.39
0.07
-2.03
-3.45
-4.94
-7.1
-10.08
-13.57
-16.98
-19.81
-21.79
-23.01
-23.72
-24.15
-24.31
-23.91
-22.51
-19.66
-15.2
-9.31
-2.4
5.11
12.98
21.18
29.68
38.15
45.82
51.63
54.54
54.1
50.63
45.1
38.81
32.87
27.85
23.8
20.4
17.27
14.11
10.77
7.25
3.63
0.07
-3.27
-6.3
-9.11
-11.89
-14.85
-17.94
-20.7
-22.19
-21.32
-17.27
-10.04
-0.67
8.74
15.53
17.05
11.15
-3.37
-26.53
-56.97
-92.07
-128.37
-162.3
-191.13
-213.51
-229.54
-240.16
-246.24
-247.94
-244.47
-234.5
-216.86
-191.11
-157.88
-118.75
-76.06
-32.63
8.65
45.25
75.44
98.66
115.52
127.34
135.69
141.86
146.59
150.2
152.74
154.24
154.73
154.23
152.7
150.05
146.26
141.41
135.72
129.51
123.09
116.7
110.52
104.78
99.73
95.78
93.4
92.99
94.68
98.19
102.87
107.76
111.96
114.86
116.35
116.74
116.69
116.88
117.96
120.43
124.63
130.74
138.61
147.65
156.62
163.74
166.88
164.1
154.14
136.85
113.27
85.27
55.13
24.93
-3.62
-29.17
-50.51
-66.4
-75.73
-77.91
-73.23
-62.96
-49.06
-33.58
-17.98
-2.84
12.05
27.35
43.69
61.32
80.18
99.99
120.3
140.41
159.07
174.21
183.06
182.74
171.1
147.53
113.44
71.88
26.7
-18.56
-61.51
-101.28
-138.31
-173.9
-209.79
-247.92
-290.05
-337.11
-388.08
-439.34
-484.77
-517.3
-531.24
-524.54
-499.73
-462.96
-421.72
-382.08
-347.09
-316.76
-289.24
-262.47
-235.22
-207.34
-179.3
-151.74
-125.01
-99.4
-75.14
-52.59
-32.35
-15.06
-1.16
9.35
16.97
22.68
27.57
32.44
37.45
42.1
45.55
47.11
46.72
44.95
42.75
40.87
39.57
38.49
36.99
34.54
31.15
27.4
24.31
22.92
23.95
27.5
33.07
39.64
46.11
51.54
55.4
57.58
58.29
57.87
56.61
54.69
52.19
49.11
45.41
41.07
36.17
31.03
26.14
22.14
19.58
18.66
19.21
20.63
22.15
23.08
22.93
21.42
18.54
14.61
10.3
6.72
5.16
6.8
12.16
20.85
31.58
42.58
52.24
59.5
64.18
66.76
67.95
68.3
68.02
67.04
65.22
62.57
59.32
55.74
51.97
47.95
43.48
38.43
32.91
27.3
22.17
17.99
14.96
12.84
11.15
9.4
7.31
4.92
2.5
0.4
-1.19
-2.35
-3.49
-5.15
-7.7
-11.06
-14.48
-16.73
-16.45
-12.81
-5.84
3.41
13.24
21.93
28.29
31.98
33.48
33.78
33.89
34.51
35.76
37.24
38.18
37.82
35.82
32.51
28.79
25.97
25.26
27.5
32.92
40.91
49.82
56.88
58.68
52.14
35.97
11.64
-16.67
-43.48
-64.0
-75.87
-79.52
-77.25
-71.59
-63.98
-54.49
-42.55
-28.0
-11.69
4.72
19.55
31.88
41.96
50.9
60.05
70.3
81.76
93.65
104.75
113.96
120.69
125.12
128.06
130.55
133.4
137.03
141.39
145.95
149.88
152.05
151.11
145.66
134.66
117.81
95.82
70.41
43.91
18.63
-3.63
-21.95
-36.29
-47.2
-55.52
-62.07
-67.54
-72.47
-77.28
-82.21
-87.24
-92.07
-96.12
-98.74
-99.51
-98.41
-95.87
-92.54
-89.0
-85.53
-82.05
-78.4
-74.54
-70.74
-67.4
-64.77
-62.68
-60.46
-57.12
-51.62
-43.27
-31.95
-18.27
-3.5
10.68
22.56
30.98
35.58
37.03
36.7
36.17
36.77
39.22
43.66
49.65
56.33
62.3
65.8
64.81
57.81
44.33
25.4
3.45
-18.43
-37.39
-51.49
-59.94
-62.84
-60.69
-54.22
-44.32
-32.13
-19.05
-6.44
4.76
14.32
22.7
30.72
39.03
47.63
55.76
61.91
64.35
61.51
52.45
37.13
16.47
-7.76
-33.17
-57.07
-76.85
-90.46
-96.76
-95.89
-89.12
-78.64
-66.95
-56.34
-48.39
-43.79
-42.5
-43.9
-47.19
-51.55
-56.36
-61.23
-65.95
-70.37
-74.31
-77.54
-79.92
-81.47
-82.38
-82.9
-83.12
-82.91
-81.95
-79.96
-76.89
-72.98
-68.62
-64.12
-59.51
-54.51
-48.68
-41.72
-33.64
-24.84
-15.97
-7.8
-0.97
4.14
7.49
9.35
10.16
10.43
10.59
10.94
11.68
12.88
14.56
16.6
18.71
20.43
21.24
20.76
18.9
15.93
12.29
8.4
4.43
0.28
-4.21
-8.94
-13.42
-16.75
-18.0
-16.6
-12.59
-6.67
0.13
6.86
12.88
17.92
21.96
24.94
26.68
27.05
26.13
24.28
22.13
20.24
18.92
18.04
17.26
16.21
14.76
13.08
11.5
10.31
9.61
9.12
8.35
6.78
4.04
0.13
-4.56
-9.35
-13.36
-15.84
-16.3
-14.57
-10.8
-5.42
0.99
7.75
14.25
20.01
24.74
28.27
30.42
30.97
29.67
26.4
21.42
15.41
9.36
4.27
0.8
-0.89
-1.13
-0.5
0.41
1.2
1.61
1.6
1.17
0.39
-0.71
-2.1
-3.87
-6.22
-9.3
-13.09
-17.13
-20.45
-21.75
-19.82
-13.99
-4.58
7.09
19.06
29.24
36.14
39.26
39.17
37.22
34.9
33.32
32.82
33.0
33.0
32.06
29.86
26.77
23.67
21.82
22.39
26.19
33.22
42.37
51.05
55.36
51.01
34.97
7.21
-28.39
-64.78
-93.96
-109.85
-110.35
-97.58
-76.27
-51.27
-25.54
0.19
26.48
53.53
80.14
103.95
122.58
135.0
142.14
146.48
150.9
157.5
166.94
178.3
189.72
199.08
204.58
205.08
200.1
189.8
174.85
156.31
135.56
114.16
93.8
75.92
61.64
51.43
45.02
41.53
39.72
38.5
37.24
35.98
35.22
35.44
36.68
38.34
39.26
38.23
34.47
27.98
19.52
10.32
1.65
-5.58
-10.82
-13.83
-14.67
-13.95
-13.23
-15.13
-22.87
-39.09
-64.6
-97.66
-134.47
-170.55
-202.49
-228.89
-250.17
-267.41
-280.97
-289.94
-292.57
-287.45
-274.5
-255.23
-232.13
-207.72
-183.75
-161.01
-139.66
-119.68
-101.21
-84.62
-70.29
-58.41
-48.8
-40.98
-34.33
-28.31
-22.6
-17.19
-12.41
-8.7
-6.42
-5.63
-6.02
-6.94
-7.7
-7.79
-7.04
-5.6
-3.73
-1.59
0.85
3.85
7.64
12.28
17.53
22.9
27.8
31.76
34.61
36.46
37.61
38.35
38.88
39.19
39.18
38.71
37.74
36.3
34.49
32.41
30.16
27.86
25.66
23.72
22.15
20.97
20.0
18.9
17.3
14.96
11.98
8.93
6.76
6.56
9.11
14.57
22.41
31.65
41.31
50.74
59.85
68.84
77.89
86.85
95.23
102.38
107.96
112.1
115.42
118.89
123.4
129.52
137.27
146.28
155.9
165.58
175.2
185.19
196.46
209.97
226.0
243.54
260.0
271.57
274.17
264.76
242.4
208.55
166.47
120.08
72.67
26.06
-19.38
-64.44
-110.49
-158.97
-210.79
-265.51
-320.64
-371.44
-411.84
-436.26
-441.77
-429.31
-403.43
-370.37
-335.84
-303.32
-273.81
-246.94
-222.18
-199.7
-180.13
-163.88
-150.6
-139.19
-128.48
-117.83
-107.33
-97.52
-88.86
-81.12
-73.38
-64.29
-52.72
-38.3
-21.6
-4.04
12.66
26.95
37.95
45.59
50.43
53.4
55.31
56.63
57.4
57.4
56.34
54.11
50.89
47.11
43.31
40.05
37.73
36.55
36.38
36.79
37.13
36.67
34.81
31.37
26.6
21.28
16.52
13.47
13.0
15.45
20.45
27.05
34.03
40.23
44.89
47.74
48.99
49.05
48.33
47.06
45.23
42.67
39.11
34.42
28.71
22.4
16.11
10.55
6.24
3.33
1.56
0.34
-1.01
-3.04
-5.98
-9.7
-13.72
-17.26
-19.46
-19.5
-16.88
-11.56
-4.11
4.4
12.65
19.43
23.94
25.91
25.57
23.38
19.92
15.71
11.21
6.74
2.59
-1.12
-4.38
-7.26
-9.89
-12.41
-14.92
-17.58
-20.58
-24.16
-28.49
-33.59
-39.18
-44.62
-48.97
-51.26
-50.74
-47.28
-41.4
-34.14
-26.71
-20.12
-14.93
-11.25
-8.92
-7.62
-6.96
-6.63
-6.44
-6.48
-7.08
-8.54
-10.65
-12.34
-11.78
-7.0
3.29
18.99
38.72
60.36
81.81
101.56
118.63
132.28
141.79
146.5
146.23
141.53
133.77
124.68
115.85
108.28
102.34
97.89
94.56
91.96
89.77
87.89
86.36
85.4
85.34
86.49
88.91
92.36
96.25
99.77
102.13
102.72
101.31
97.99
93.13
87.15
80.41
73.17
65.57
57.6
49.19
40.14
30.23
19.17
6.72
-7.21
-22.56
-39.03
-56.1
-73.01
-88.85
-102.72
-113.97
-122.44
-128.52
-132.94
-136.35
-138.98
-140.57
-140.49
-138.26
-133.85
-127.79
-121.03
-114.51
-108.95
-104.6
-101.46
-99.35
-98.04
-97.24
-96.44
-94.83
-91.47
-85.53
-76.64
-65.04
-51.59
-37.46
-23.76
-11.24
-0.22
9.3
17.37
23.98
28.93
32.03
33.24
32.85
31.45
29.74
28.23
27.11
26.14
24.91
23.03
20.41
17.21
13.79
10.48
7.44
4.67
2.07
-0.51
-3.22
-6.21
-9.58
-13.24
-16.77
-19.49
-20.55
-19.32
-15.65
-9.94
-3.06
4.06
10.76
16.75
22.06
26.81
31.0
34.42
36.7
37.57
36.95
35.02
32.13
28.65
24.85
20.83
16.61
12.26
7.97
4.15
1.33
-0.07
0.12
1.67
3.97
6.22
7.68
7.93
6.94
5.05
2.83
0.91
-0.09
0.31
2.4
6.08
10.89
15.97
20.3
23.09
24.11
23.81
23.1
22.85
23.52
24.87
26.22
26.84
26.33
24.76
22.48
19.81
16.87
13.54
9.72
5.54
1.4
-2.19
-4.96
-7.03
-8.89
-11.18
-14.38
-18.65
-23.67
-28.68
-32.64
-34.45
-33.26
-28.77
-21.42
-12.24
-2.64
6.15
13.3
18.55
22.07
24.14
24.98
24.67
23.26
20.89
17.85
14.57
11.48
8.94
7.16
6.16
5.8
5.82
5.9
5.75
5.19
4.19
2.81
1.2
-0.51
-2.24
-3.97
-5.68
-7.42
-9.21
-11.12
-13.24
-15.7
-18.64
-22.08
-25.87
-29.52
-32.3
-33.34
-31.91
-27.74
-21.15
-13.05
-4.6
3.06
9.19
13.51
16.13
17.39
17.63
17.09
15.94
14.33
12.44
10.51
8.86
7.77
7.48
8.06
9.45
11.46
13.85
16.37
18.83
21.13
23.11
24.62
25.49
25.55
24.75
23.12
20.8
17.94
14.63
10.84
6.49
1.56
-3.83
-9.29
-14.36
-18.55
-21.5
-23.08
-23.25
-21.95
-19.1
-14.55
-8.29
-0.54
8.13
16.98
25.17
32.02
37.09
40.26
41.67
41.71
40.85
39.52
38.0
36.42
34.82
33.19
31.55
29.9
28.18
26.18
23.63
20.27
16.04
11.07
5.62
-0.12
-6.14
-12.56
-19.56
-27.09
-34.9
-42.54
-49.5
-55.4
-59.95
-62.98
-64.26
-63.54
-60.57
-55.28
-47.91
-39.06
-29.56
-20.27
-11.85
-4.66
1.29
6.26
10.66
14.9
19.2
23.53
27.57
30.89
33.06
33.93
33.57
32.21
30.14
27.49
24.26
20.41
15.98
11.16
6.3
1.82
-1.91
-4.73
-6.64
-7.78
-8.39
-8.65
-8.65
-8.38
-7.68
-6.35
-4.1
-0.69
4.01
9.89
16.52
23.13
28.8
32.75
34.59
34.48
33.03
31.0
29.02
27.43
26.22
25.21
24.15
22.9
21.37
19.5
17.19
14.3
10.73
6.49
1.73
-3.23
-7.99
-12.18
-15.63
-18.44
-20.93
-23.53
-26.57
-30.14
-34.03
-37.71
-40.49
-41.66
-40.66
-37.25
-31.65
-24.48
-16.68
-9.21
-2.82
2.1
5.54
7.7
8.8
8.94
8.16
6.45
3.97
1.06
-1.86
-4.37
-6.26
-7.55
-8.46
-9.29
-10.3
-11.56
-12.96
-14.23
-15.13
-15.53
-15.51
-15.28
-15.09
-15.06
-15.16
-15.14
-14.75
-13.76
-12.05
-9.71
-6.94
-4.07
-1.45
0.64
2.03
2.77
3.09
3.27
3.5
3.82
4.06
3.98
3.42
2.33
0.87
-0.73
-2.22
-3.45
-4.37
-5.08
-5.76
-6.58
-7.62
-8.78
-9.86
-10.62
-10.91
-10.78
-10.56
-10.68
-11.54
-13.24
-15.45
-17.47
-18.45
-17.68
-14.89
-10.32
-4.59
1.49
7.26
12.24
16.18
18.94
20.4
20.49
19.26
16.99
14.15
11.27
8.8
6.95
5.67
4.74
3.92
3.04
2.12
1.32
0.84
0.81
1.12
1.51
1.58
1.01
-0.4
-2.6
-5.3
-8.03
-10.16
-11.02
-10.08
-7.11
-2.36
3.48
9.43
14.54
18.14
20.03
20.41
19.71
18.38
16.84
15.39
14.29
13.72
13.84
14.63
16.0
17.77
19.7
21.61
23.4
25.04
26.62
28.29
30.22
32.52
35.06
37.56
39.64
40.96
41.46
41.45
41.6
42.84
46.13
52.32
61.77
74.18
88.45
102.72
114.76
122.44
124.3
119.73
108.95
92.79
72.33
48.75
23.2
-3.24
-29.69
-55.5
-80.33
-103.96
-126.11
-146.17
-163.25
-176.28
-184.48
-187.56
-185.87
-180.32
-172.07
-162.2
-151.51
-140.43
-129.02
-117.14
-104.65
-91.51
-77.9
-64.18
-50.79
-38.21
-26.86
-17.09
-9.19
-3.27
0.73
3.11
4.4
5.22
6.15
7.59
9.64
12.09
14.59
16.79
18.52
19.83
20.91
21.96
23.0
23.85
24.15
23.55
21.82
19.03
15.52
11.9
8.96
7.47
8.08
11.05
16.14
22.57
29.2
34.82
38.54
39.97
39.29
37.01
33.76
30.12
26.51
23.18
20.25
17.76
15.56
13.42
11.08
8.4
5.4
2.31
-0.57
-3.01
-4.91
-6.41
-7.79
-9.36
-11.36
-13.84
-16.63
-19.36
-21.52
-22.54
-21.96
-19.58
-15.56
-10.45
-5.14
-0.6
2.35
3.3
2.31
-0.16
-3.45
-6.98
-10.4
-13.52
-16.29
-18.67
-20.61
-22.08
-23.16
-23.94
-24.52
-24.9
-25.01
-24.78
-24.22
-23.48
-22.8
-22.34
-22.06
-21.6
-20.44
-18.05
-14.12
-8.71
-2.27
4.46
10.78
16.08
20.06
22.7
24.15
24.68
24.58
24.09
23.43
22.73
22.05
21.41
20.8
20.21
19.72
19.36
19.08
18.77
18.18
17.07
15.26
12.71
9.56
6.09
2.71
-0.08
-1.8
-2.09
-0.85
1.65
4.81
7.83
10.05
11.1
10.97
9.98
8.52
6.95
5.52
4.41
3.73
3.58
3.94
4.68
5.57
6.35
6.93
7.35
7.75
8.3
8.99
9.67
10.07
9.92
9.03
7.36
4.99
2.05
-1.28
-4.72
-7.93
-10.43
-11.75
-11.53
-9.73
-6.67
-2.94
0.77
3.97
6.49
8.41
9.89
11.02
11.73
11.88
11.44
10.61
9.76
9.32
9.53
10.36
11.51
12.51
13.01
12.87
12.19
11.23
10.22
9.23
8.15
6.75
4.84
2.39
-0.52
-3.69
-6.94
-10.09
-12.93
-15.17
-16.41
-16.33
-14.83
-12.07
-8.48
-4.55
-0.67
2.93
6.19
9.06
11.48
13.35
14.59
15.25
15.44
15.3
14.94
14.35
13.5
12.38
11.06
9.71
8.47
7.45
6.51
5.4
3.76
1.31
-1.98
-5.89
-10.01
-13.97
-17.62
-21.14
-24.97
-29.59
-35.24
-41.82
-48.84
-55.6
-61.33
-65.37
-67.21
-66.5
-63.22
-57.64
-50.39
-42.26
-33.99
-25.97
-18.2
-10.43
-2.41
5.85
14.03
21.67
28.37
33.95
38.4
41.83
44.34
46.0
46.9
47.15
46.87
46.11
44.84
42.94
40.36
37.14
33.45
29.46
25.35
21.18
16.99
12.83
8.8
5.02
1.62
-1.36
-3.89
-5.85
-7.05
-7.21
-6.02
-3.36
0.63
5.52
10.69
15.48
19.48
22.49
24.5
25.62
25.87
25.19
23.6
21.26
18.57
16.0
13.91
12.3
10.84
9.03
6.56
3.42
-0.06
-3.4
-6.32
-8.77
-10.94
-13.06
-15.24
-17.5
-19.77
-22.04
-24.3
-26.39
-27.89
-28.19
-26.73
-23.25
-17.98
-11.63
-5.1
0.84
5.77
9.6
12.46
14.52
15.81
16.36
16.22
15.58
14.73
14.01
13.65
13.65
13.77
13.58
12.7
10.9
8.28
5.17
2.07
-0.69
-2.94
-4.82
-6.6
-8.56
-10.81
-13.29
-15.73
-17.75
-18.93
-18.91
-17.46
-14.56
-10.45
-5.56
-0.46
4.31
8.34
11.4
13.43
14.47
14.6
13.89
12.48
10.56
8.4
6.25
4.33
2.72
1.32
-0.06
-1.64
-3.57
-5.84
-8.29
-10.69
-12.77
-14.33
-15.33
-15.91
-16.34
-16.91
-17.77
-18.75
-19.41
-19.15
-17.42
-14.03
-9.21
-3.56
2.16
7.27
11.41
14.54
16.83
18.52
19.73
20.46
20.65
20.31
19.57
18.72
18.02
17.56
17.21
16.63
15.41
13.25
10.07
6.07
1.6
-2.95
-7.27
-11.23
-14.83
-18.2
-21.51
-24.97
-28.72
-32.82
-37.14
-41.29
-44.65
-46.47
-46.07
-43.12
-37.83
-30.97
-23.77
-17.51
-13.21
-11.34
-11.75
-13.77
-16.51
-19.18
-21.27
-22.58
-23.04
-22.61
-21.12
-18.45
-14.67
-10.2
-5.77
-2.17
0.11
1.09
1.2
1.06
1.12
1.5
2.04
2.48
2.74
2.99
3.5
4.53
6.18
8.42
11.12
14.17
17.47
20.94
24.47
27.88
31.03
33.82
36.16
37.96
39.07
39.28
38.46
36.62
33.96
30.84
27.61
24.44
21.28
17.98
14.37
10.46
6.46
2.72
-0.41
-2.69
-4.12
-4.86
-5.24
-5.66
-6.49
-8.01
-10.3
-13.24
-16.43
-19.26
-21.1
-21.43
-19.97
-16.74
-12.1
-6.59
-0.89
4.41
8.85
12.24
14.59
16.0
16.59
16.41
15.43
13.71
11.43
8.91
6.54
4.57
3.05
1.8
0.51
-1.05
-2.99
-5.22
-7.58
-9.88
-12.02
-13.98
-15.83
-17.75
-19.96
-22.66
-25.93
-29.67
-33.48
-36.76
-38.82
-39.03
-37.02
-32.81
-26.76
-19.48
-11.72
-4.17
2.61
8.27
12.62
15.64
17.42
18.09
17.84
16.91
15.56
14.11
12.82
11.88
11.3
10.89
10.38
9.53
8.27
6.77
5.35
4.35
3.87
3.75
3.62
3.05
1.74
-0.37
-3.15
-6.35
-9.74
-13.05
-15.97
-18.09
-18.93
-18.09
-15.4
-11.02
-5.44
0.61
6.41
11.38
15.18
17.73
19.18
19.8
19.93
19.87
19.82
19.87
19.95
19.92
19.65
19.02
18.03
16.8
15.59
14.66
14.2
14.19
14.33
14.16
13.21
11.24
8.39
5.23
2.48
0.77
0.3
0.67
0.93
0.11
-2.39
-6.2
-9.88
-11.32
-8.29
0.56
15.09
33.21
51.21
64.29
67.67
57.72
33.02
-5.04
-52.43
-103.32
-151.37
-191.08
-218.69
-232.52
-232.66
-220.39
-197.59
-166.47
-129.52
-89.54
-49.56
-12.54
19.17
44.32
62.94
76.18
85.81
93.56
100.6
107.25
113.18
117.79
120.73
122.1
122.53
122.96
124.25
126.78
130.34
134.17
137.32
139.06
139.25
138.35
137.29
137.11
138.66
142.36
148.02
154.83
161.18
164.87
163.46
154.75
137.56
112.16
80.4
45.14
9.53
-23.85
-53.41
-78.57
-99.35
-116.0
-128.72
-137.7
-143.35
-146.36
-147.63
-148.0
-147.98
-147.58
-146.4
-143.95
-139.83
-133.94
-126.41
-117.53
-107.61
-97.03
-86.22
-75.63
-65.76
-57.04
-49.7
-43.75
-39.1
-35.58
-33.03
-31.27
-30.02
-28.96
-27.71
-26.05
-24.0
-21.82
-19.91
-18.57
-17.84
-17.41
-16.81
-15.65
-13.85
-11.75
-10.04
-9.51
-10.75
-14.01
-18.99
-24.79
-30.06
-33.29
-33.26
-29.46
-22.33
-13.05
-3.1
6.31
14.55
21.37
26.68
30.21
31.65
30.85
28.25
24.8
21.65
19.67
19.02
19.14
19.26
18.83
17.71
16.14
14.44
12.86
11.38
9.88
8.22
6.26
3.83
0.66
-3.51
-8.85
-15.21
-22.02
-28.4
-33.29
-35.8
-35.37
-31.83
-25.52
-17.11
-7.48
2.38
11.34
18.4
22.67
23.8
22.22
19.1
15.95
14.14
14.2
15.79
18.01
19.88
20.84
20.8
19.82
18.01
15.35
12.02
8.58
5.98
4.98
5.53
6.58
6.35
3.31
-3.09
-12.06
-21.78
-30.2
-35.76
-37.84
-36.58
-32.61
-26.73
-19.78
-12.55
-5.78
-0.04
4.39
7.79
10.74
13.82
17.29
20.63
22.69
22.32
19.05
13.42
7.12
2.2
0.02
0.86
3.66
6.85
9.21
10.08
9.34
6.8
2.18
-4.73
-13.43
-22.57
-30.38
-35.5
-37.43
-36.71
-34.27
-30.82
-26.54
-21.32
-15.4
-9.42
-4.24
-0.39
2.51
5.53
9.57
14.75
20.35
25.01
27.82
28.79
28.62
28.34
28.55
28.92
28.72
27.23
24.56
21.58
19.69
19.9
22.31
26.08
29.58
30.84
28.11
20.43
8.1
-7.01
-21.89
-32.96
-37.61
-35.03
-26.6
-15.24
-4.01
5.0
11.26
15.45
18.61
21.26
23.39
24.76
25.48
25.95
26.96
28.81
31.2
33.39
34.46
33.79
31.2
26.83
20.83
13.42
5.06
-3.37
-10.75
-16.23
-19.63
-21.46
-22.52
-23.29
-23.67
-23.31
-22.11
-20.49
-18.95
-17.41
-14.92
-9.9
-1.15
11.32
26.18
41.41
55.41
67.28
76.98
84.5
89.28
90.37
87.05
79.67
69.64
59.13
49.97
42.89
37.29
31.51
23.82
13.25
0.29
-13.43
-25.59
-34.34
-38.96
-39.99
-38.71
-36.47
-34.1
-31.75
-29.4
-27.07
-25.1
-23.88
-23.51
-23.53
-23.03
-21.13
-17.31
-11.78
-5.27
1.23
7.01
11.86
16.08
20.09
24.06
27.63
30.16
31.13
30.43
28.47
26.06
23.95
22.59
22.05
22.07
22.32
22.5
22.44
21.88
20.68
18.82
16.57
14.38
12.69
11.69
11.16
10.78
10.24
9.51
8.82
8.44
8.54
9.11
9.91
10.64
10.98
10.56
9.08
6.46
3.02
-0.54
-3.34
-4.84
-5.2
-5.24
-6.05
-8.19
-11.37
-14.65
-17.0
-18.09
-18.44
-18.93
-20.01
-21.38
-22.17
-21.7
-20.13
-18.51
-18.14
-19.64
-22.48
-25.29
-26.66
-25.95
-23.64
-20.88
-18.55
-16.92
-15.53
-13.87
-11.81
-9.84
-8.57
-8.39
-9.06
-10.03
-10.85
-11.6
-12.8
-14.94
-18.07
-21.39
-23.73
-24.15
-22.49
-19.49
-16.3
-14.08
-13.0
-12.67
-12.24
-10.96
-8.57
-5.37
-2.13
0.3
1.14
0.05
-2.9
-7.13
-11.72
-15.63
-18.09
-18.87
-18.18
-16.64
-14.69
-12.51
-10.02
-7.14
-4.18
-1.75
-0.63
-1.11
-2.95
-5.35
-7.44
-8.73
-9.3
-9.79
-10.76
-12.53
-14.85
-17.27
-19.34
-20.72
-21.34
-21.13
-20.08
-18.23
-15.97
-13.75
-12.08
-10.96
-10.09
-8.97
-7.34
-5.51
-4.17
-4.03
-5.41
-8.02
-11.18
-14.22
-16.8
-18.88
-20.54
-21.76
-22.3
-21.72
-19.47
-15.02
-8.1
1.07
11.46
21.31
28.58
31.87
31.16
27.86
24.22
22.07
22.0
23.4
25.04
26.07
26.29
25.95
25.04
23.02
19.11
13.04
5.78
-0.65
-4.26
-4.22
-1.57
1.22
1.64
-1.49
-7.65
-14.92
-21.41
-26.1
-29.19
-31.41
-33.37
-34.94
-35.61
-34.96
-33.09
-30.76
-28.9
-28.04
-28.06
-28.47
-28.54
-27.82
-26.52
-25.28
-25.15
-27.24
-31.88
-38.22
-44.29
-47.31
-44.76
-35.67
-21.05
-4.01
11.52
22.43
27.44
27.25
23.61
18.06
11.2
3.3
-5.11
-12.51
-17.14
-18.32
-17.33
-17.18
-20.99
-29.72
-41.18
-51.09
-55.08
-50.97
-40.02
-25.78
-11.98
-0.85
7.31
13.46
18.49
22.43
24.9
25.42
24.18
22.07
20.13
19.22
19.76
21.54
23.94
26.33
27.93
28.25
27.08
24.19
19.42
12.93
5.39
-2.11
-7.92
-10.39
-8.69
-3.46
2.75
6.49
4.9
-2.91
-15.27
-28.4
-38.43
-43.02
-41.7
-35.82
-26.91
-15.98
-3.49
10.08
23.35
34.02
40.19
41.13
37.94
33.25
29.45
27.65
27.45
27.43
25.93
22.14
16.22
8.92
1.47
-5.07
-9.82
-12.2
-12.29
-11.03
-10.07
-11.05
-15.08
-21.77
-29.64
-36.82
-41.69
-43.6
-42.52
-38.79
-32.92
-25.43
-17.09
-8.87
-1.73
3.81
7.69
10.64
13.61
17.22
21.41
25.43
28.09
28.44
25.93
20.8
14.35
8.33
4.67
4.52
7.83
13.48
19.95
26.11
31.17
34.63
35.7
33.59
27.77
18.95
8.94
0.18
-5.38
-7.12
-5.81
-2.85
0.52
4.01
7.93
12.46
17.29
21.39
23.81
24.12
22.82
21.01
19.92
20.2
21.7
23.41
24.08
22.88
19.85
15.69
11.46
7.85
5.07
2.86
1.03
-0.35
-1.3
-2.07
-3.53
-6.71
-12.14
-19.17
-26.12
-30.82
-31.81
-29.06
-23.72
-17.45
-11.45
-6.11
-1.1
3.82
8.32
11.44
12.17
9.99
5.15
-1.53
-8.95
-16.15
-22.35
-26.96
-29.52
-29.92
-28.42
-25.88
-23.49
-22.56
-24.02
-28.17
-34.48
-41.54
-47.32
-49.61
-46.72
-38.27
-25.58
-11.44
0.83
8.84
12.3
13.15
14.91
21.21
34.42
54.83
80.52
107.86
132.38
149.73
156.74
152.21
137.27
115.22
90.51
67.39
48.74
35.4
26.42
20.03
14.5
8.77
2.66
-3.5
-9.18
-13.96
-17.52
-20.02
-21.81
-23.45
-25.57
-28.54
-32.36
-36.3
-39.24
-39.91
-37.49
-31.9
-23.98
-15.13
-6.91
-0.41
3.98
6.45
7.54
7.71
7.21
6.13
4.74
3.46
2.66
2.46
2.56
2.33
1.23
-0.87
-3.55
-6.1
-7.71
-8.02
-7.08
-5.33
-3.29
-1.36
0.18
1.3
1.95
2.09
1.6
0.39
-1.67
-4.42
-7.5
-10.29
-12.01
-12.04
-10.06
-6.14
-0.79
5.23
11.03
15.82
19.05
20.52
20.3
18.72
16.17
13.04
9.64
6.2
2.89
-0.19
-2.99
-5.6
-8.21
-11.1
-14.42
-18.07
-21.65
-24.6
-26.39
-26.81
-26.05
-24.64
-23.22
-22.28
-21.94
-22.02
-22.06
-21.6
-20.35
-18.25
-15.38
-11.94
-8.15
-4.19
-0.23
3.68
7.6
11.62
15.8
20.05
23.97
27.0
28.57
28.39
26.6
23.79
20.76
18.29
16.84
16.52
17.12
18.32
19.76
21.17
22.36
23.21
23.66
23.63
23.07
21.93
20.19
17.92
15.23
12.21
8.86
5.13
1.01
-3.27
-7.1
-9.67
-10.21
-8.37
-4.46
0.62
5.67
9.62
11.85
12.22
10.96
8.38
4.84
0.65
-3.75
-7.81
-10.94
-12.77
-13.25
-12.75
-11.85
-11.02
-10.44
-9.9
-9.02
-7.51
-5.48
-3.45
-1.94
-1.35
-1.6
-2.2
-2.57
-2.49
-2.18
-2.09
-2.57
-3.68
-5.29
-7.24
-9.51
-12.1
-14.8
-17.08
-18.3
-17.97
-16.25
-13.76
-11.24
-9.14
-7.46
-5.96
-4.43
-2.93
-1.7
-0.98
-0.91
-1.5
-2.8
-4.79
-6.9
-8.09
-7.18
-3.55
2.15
8.14
12.29
13.27
11.43
8.55
6.79
7.47
10.52
14.66
18.32
20.46
20.61
18.99
15.9
11.53
6.07
-0.1
-6.38
-12.0
-16.18
-18.28
-17.92
-15.19
-10.71
-5.6
-1.19
1.4
1.73
0.17
-2.38
-4.75
-5.93
-5.34
-3.04
0.18
3.12
4.52
3.75
1.07
-2.4
-5.32
-6.88
-7.21
-7.25
-7.99
-9.78
-11.99
-13.62
-13.92
-12.96
-11.51
-10.46
-10.17
-10.33
-10.23
-9.22
-7.12
-4.19
-1.13
1.44
3.19
4.16
4.7
5.29
6.44
8.47
11.41
14.89
18.39
21.47
24.0
26.16
28.31
30.64
32.94
34.54
34.57
32.35
27.76
21.49
14.78
9.05
5.28
3.73
3.81
4.49
4.77
4.21
2.94
1.54
0.38
-0.56
-1.7
-3.44
-5.72
-7.88
-9.12
-9.04
-7.99
-6.93
-6.83
-7.99
-9.84
-11.21
-11.09
-9.04
-5.44
-1.1
3.26
7.29
10.81
13.53
14.85
13.94
10.47
4.86
-1.61
-7.42
-11.62
-14.22
-16.01
-17.83
-19.93
-21.79
-22.55
-21.63
-19.18
-15.93
-12.63
-9.65
-6.97
-4.65
-3.02
-2.78
-4.5
-8.03
-12.43
-16.19
-18.12
-17.72
-15.36
-11.79
-7.65
-3.14
1.82
7.19
12.58
17.11
19.71
19.61
16.57
11.08
4.12
-3.06
-9.18
-13.26
-14.82
-13.89
-11.05
-7.17
-3.26
-0.34
0.85
-0.17
-3.37
-8.15
-13.55
-18.39
-21.72
-23.06
-22.53
-20.63
-18.02
-15.15
-12.23
-9.23
-6.14
-3.13
-0.49
1.55
2.96
3.94
4.8
5.83
7.11
8.48
9.56
9.93
9.24
7.47
4.86
1.92
-0.71
-2.59
-3.54
-3.75
-3.56
-3.27
-2.94
-2.33
-1.09
0.97
3.61
6.15
7.63
7.23
4.53
-0.22
-6.22
-12.34
-17.43
-20.7
-21.82
-20.96
-18.59
-15.28
-11.47
-7.4
-3.21
0.91
4.6
7.42
8.95
9.06
7.92
5.96
3.74
1.71
0.21
-0.53
-0.4
0.6
2.17
3.7
4.42
3.77
1.74
-1.01
-3.45
-4.72
-4.61
-3.68
-2.88
-2.87
-3.7
-4.73
-5.18
-4.59
-3.15
-1.5
-0.24
0.43
0.79
1.32
2.29
3.61
4.95
5.9
6.3
6.28
6.19
6.33
6.88
7.76
8.76
9.58
10.02
10.09
9.99
10.07
10.57
11.52
12.59
13.26
12.98
11.38
8.34
3.98
-1.3
-6.89
-12.0
-15.83
-17.83
-17.96
-16.7
-14.83
-13.04
-11.62
-10.53
-9.55
-8.65
-8.02
-7.93
-8.5
-9.53
-10.69
-11.75
-12.75
-13.9
-15.3
-16.8
-17.94
-18.28
-17.62
-16.09
-14.05
-11.81
-9.55
-7.31
-5.2
-3.32
-1.81
-0.58
0.7
2.49
5.21
9.0
13.73
19.02
24.52
29.96
35.29
40.56
45.88
51.31
56.65
61.43
64.93
66.31
64.91
60.55
53.57
44.75
35.04
25.28
16.11
7.91
0.94
-4.69
-8.94
-11.93
-13.92
-15.24
-16.26
-17.34
-18.85
-21.2
-24.67
-29.22
-34.42
-39.4
-43.14
-44.86
-44.3
-41.71
-37.72
-32.93
-27.71
-22.25
-16.74
-11.57
-7.22
-4.13
-2.34
-1.45
-0.77
0.31
2.04
4.19
6.28
7.8
8.48
8.47
8.1
7.79
7.74
7.94
8.22
8.39
8.35
8.07
7.55
6.69
5.34
3.45
1.22
-0.75
-1.58
-0.45
3.01
8.54
15.29
22.17
28.3
33.14
36.57
38.63
39.38
38.78
36.85
33.77
30.0
26.16
22.88
20.63
19.52
19.34
19.62
19.82
19.45
18.2
16.02
13.08
9.69
6.14
2.53
-1.22
-5.32
-9.99
-15.36
-21.32
-27.65
-33.89
-39.38
-43.23
-44.55
-42.74
-37.82
-30.56
-22.31
-14.47
-8.13
-3.64
-0.82
0.79
1.6
1.85
1.56
0.78
-0.3
-1.41
-2.27
-2.72
-2.84
-2.92
-3.27
-3.96
-4.76
-5.24
-5.0
-3.97
-2.55
-1.36
-0.96
-1.52
-2.72
-3.95
-4.69
-4.76
-4.37
-4.02
-4.26
-5.58
-8.19
-11.79
-15.52
-18.17
-18.51
-15.84
-10.39
-3.18
4.47
11.49
17.41
22.29
26.23
29.1
30.41
29.54
26.33
21.22
15.1
8.93
3.24
-1.97
-6.95
-11.75
-16.14
-19.36
-20.69
-19.88
-17.33
-13.97
-10.84
-8.61
-7.41
-7.03
-7.26
-8.29
-10.56
-14.3
-19.03
-23.36
-25.44
-23.92
-18.89
-11.86
-5.05
-0.11
2.92
5.33
8.74
13.6
18.74
21.96
21.58
17.68
12.28
8.36
7.99
11.52
17.25
22.77
26.17
26.9
25.66
23.71
22.08
21.07
20.29
19.08
16.95
13.91
10.54
7.53
5.35
3.98
2.79
1.07
-1.44
-4.4
-6.92
-8.12
-7.67
-6.08
-4.32
-3.3
-3.36
-4.22
-5.33
-6.28
-7.22
-8.58
-10.77
-13.78
-16.91
-19.01
-19.07
-16.64
-12.13
-6.66
-1.63
1.86
3.36
3.04
1.49
-0.67
-2.99
-5.26
-7.41
-9.15
-9.98
-9.38
-7.37
-4.63
-2.52
-2.45
-5.12
-10.07
-15.7
-19.94
-21.2
-18.94
-14.01
-7.93
-2.22
2.05
4.48
5.17
4.67
3.86
3.92
5.84
9.92
15.36
20.52
23.67
23.83
21.19
16.84
12.19
8.26
5.57
4.38
4.88
7.26
11.41
16.58
21.44
24.54
24.84
22.01
16.47
9.01
0.69
-7.44
-14.51
-19.93
-23.72
-26.57
-29.63
-33.83
-39.39
-45.51
-50.72
-53.54
-53.08
-49.43
-43.4
-36.13
-28.5
-20.86
-13.27
-5.61
1.95
8.93
14.59
18.37
20.09
20.06
18.9
17.29
15.71
14.31
12.95
11.42
9.59
7.56
5.56
3.88
2.76
2.32
2.49
3.2
4.37
5.94
7.68
9.05
9.35
8.02
5.02
0.91
-3.34
-6.71
-8.86
-9.97
-10.65
-11.29
-11.9
-12.04
-11.18
-8.98
-5.52
-1.12
3.81
8.9
13.93
18.63
22.79
26.23
28.82
30.33
30.42
28.7
24.94
19.42
12.87
6.32
0.64
-3.94
-7.74
-11.24
-14.63
-17.6
-19.56
-20.15
-19.51
-18.16
-16.63
-15.08
-13.26
-10.92
-8.23
-5.84
-4.64
-5.12
-7.02
-9.35
-10.91
-10.87
-9.14
-6.31
-3.28
-0.77
0.92
2.03
2.99
4.34
6.44
9.3
12.57
15.62
17.67
18.12
16.68
13.5
9.14
4.34
-0.23
-4.09
-7.03
-9.07
-10.34
-10.92
-10.94
-10.51
-9.81
-9.04
-8.28
-7.43
-6.4
-5.16
-3.91
-2.97
-2.46
-2.25
-1.9
-1.04
0.35
1.82
2.68
2.53
1.49
0.33
0.01
1.2
4.09
8.28
13.04
17.56
20.99
22.6
22.17
19.96
16.82
13.8
11.49
9.68
7.57
4.35
-0.01
-4.56
-7.92
-9.26
-8.92
-8.34
-9.07
-11.72
-15.46
-18.53
-19.25
-17.05
-12.74
-7.98
-4.48
-3.22
-4.21
-6.83
-10.22
-13.63
-16.62
-18.84
-20.13
-20.33
-19.2
-16.63
-12.63
-7.57
-2.3
2.08
4.61
4.86
3.1
0.15
-3.07
-5.96
-8.34
-10.32
-11.79
-12.39
-11.52
-8.78
-4.29
1.15
6.35
10.3
12.41
12.75
11.88
10.48
9.04
7.81
6.96
6.47
6.27
6.09
5.51
3.97
1.2
-2.46
-6.08
-8.38
-8.42
-6.07
-2.14
1.94
4.8
5.68
4.7
2.39
-0.56
-3.6
-6.33
-8.35
-9.07
-7.91
-4.63
0.29
5.73
10.2
12.52
12.32
10.09
6.64
2.78
-1.21
-5.47
-9.98
-14.4
-18.07
-20.41
-21.47
-22.0
-22.87
-24.25
-25.14
-23.82
-18.98
-10.76
-1.01
7.7
13.34
15.55
15.64
15.6
16.82
19.28
21.84
23.21
22.66
20.61
18.12
16.12
14.78
13.76
12.34
10.26
7.85
5.8
4.98
5.73
7.77
10.32
12.47
13.5
13.09
11.28
8.23
4.14
-0.8
-6.18
-11.35
-15.45
-17.64
-17.46
-14.95
-10.71
-5.62
-0.49
4.16
8.15
11.51
14.21
16.04
16.67
15.68
13.02
9.04
4.53
0.34
-2.92
-4.92
-5.92
-6.3
-6.43
-6.55
-6.87
-7.46
-8.1
-8.13
-6.6
-2.85
2.87
9.17
13.89
15.1
12.13
5.96
-1.3
-7.43
-11.12
-12.19
-11.25
-9.01
-5.79
-1.71
2.98
7.55
11.01
12.48
11.73
9.2
5.69
2.25
-0.44
-2.04
-2.58
-2.4
-1.93
-1.62
-1.7
-2.15
-2.58
-2.52
-1.64
-0.03
1.84
3.2
3.5
2.61
0.91
-0.89
-2.21
-2.88
-3.24
-3.97
-5.71
-8.64
-12.38
-16.05
-18.68
-19.56
-18.47
-15.67
-11.72
-7.18
-2.56
1.74
5.36
7.9
9.03
8.66
7.04
4.71
2.31
0.32
-1.02
-1.7
-1.79
-1.39
-0.55
0.58
1.83
2.97
3.87
4.51
5.0
5.47
5.93
6.26
6.29
5.84
4.83
3.33
1.56
-0.14
-1.4
-1.86
-1.27
0.42
3.02
6.18
9.41
12.29
14.52
16.05
17.04
17.78
18.53
19.31
19.84
19.62
18.18
15.28
11.17
6.5
2.07
-1.48
-3.9
-5.35
-6.26
-7.02
-7.9
-8.91
-9.9
-10.72
-11.28
-11.55
-11.59
-11.49
-11.35
-11.27
-11.4
-11.95
-13.09
-14.79
-16.81
-18.67
-19.78
-19.7
-18.29
-15.74
-12.5
-8.98
-5.55
-2.46
0.13
2.07
3.25
3.68
3.58
3.32
3.29
3.69
4.54
5.69
6.94
8.15
9.26
10.23
11.02
11.76
12.69
14.25
16.81
20.43
24.6
28.37
30.67
30.61
27.82
22.51
15.38
7.38
-0.52
-7.34
-12.36
-15.12
-15.51
-13.79
-10.53
-6.44
-2.3
1.22
3.69
4.91
5.02
4.38
3.47
2.64
2.06
1.71
1.57
1.71
2.23
3.16
4.28
5.16
5.29
4.34
2.39
-0.24
-3.07
-5.77
-8.14
-10.11
-11.6
-12.53
-12.84
-12.59
-12.08
-11.7
-11.84
-12.6
-13.7
-14.53
-14.31
-12.41
-8.62
-3.17
3.31
10.07
16.49
22.16
26.88
30.54
33.0
34.09
33.73
32.03
29.25
25.75
21.82
17.64
13.3
8.79
4.14
-0.61
-5.36
-9.91
-14.03
-17.44
-19.98
-21.63
-22.63
-23.38
-24.25
-25.47
-27.0
-28.47
-29.46
-29.56
-28.6
-26.65
-23.95
-20.83
-17.6
-14.41
-11.27
-8.11
-4.83
-1.51
1.6
4.14
5.72
6.11
5.4
3.89
2.07
0.38
-0.92
-1.79
-2.41
-2.91
-3.4
-3.9
-4.39
-4.97
-5.74
-6.84
-8.3
-10.04
-11.87
-13.64
-15.32
-17.08
-19.13
-21.59
-24.25
-26.53
-27.6
-26.78
-23.79
-18.96
-13.06
-6.95
-1.2
3.99
8.7
13.06
16.84
19.56
20.67
19.86
17.3
13.67
9.91
6.96
5.4
5.33
6.37
7.86
9.0
9.23
8.4
6.84
5.2
4.16
4.1
4.82
5.79
6.15
5.19
2.63
-1.4
-6.34
-11.27
-14.96
-16.05
-13.49
-7.09
2.18
12.27
20.79
25.9
27.13
25.38
22.25
19.27
17.22
15.97
14.85
13.1
10.3
6.55
2.33
-1.68
-4.74
-6.33
-6.16
-4.31
-1.39
2.01
5.18
7.54
8.53
7.58
4.16
-1.85
-9.81
-18.26
-25.24
-29.15
-29.29
-26.15
-21.11
-15.95
-12.03
-9.83
-8.93
-8.26
-6.69
-3.5
1.25
6.94
12.57
17.29
20.67
22.71
23.58
23.25
21.34
17.61
12.41
6.97
2.98
1.76
3.42
6.66
9.35
9.78
7.47
3.41
-0.6
-3.05
-3.54
-2.77
-2.07
-2.53
-4.47
-7.32
-10.07
-11.77
-11.94
-10.59
-8.18
-5.21
-2.16
0.77
3.43
5.64
7.17
7.72
6.97
4.86
1.77
-1.57
-4.18
-5.34
-4.94
-3.58
-2.35
-2.28
-3.76
-6.37
-9.12
-10.89
-11.09
-9.83
-7.69
-5.37
-3.35
-1.81
-0.9
-0.88
-2.13
-4.82
-8.57
-12.38
-15.01
-15.38
-13.14
-8.81
-3.5
1.59
5.57
8.23
9.87
10.98
12.0
13.02
13.88
14.23
13.83
12.5
10.43
7.97
5.51
3.43
1.85
0.71
-0.18
-0.97
-1.7
-2.26
-2.56
-2.68
-2.95
-3.8
-5.49
-7.89
-10.49
-12.64
-13.74
-13.56
-12.36
-10.67
-9.06
-7.77
-6.65
-5.22
-2.95
0.37
4.5
8.81
12.6
15.28
16.8
17.45
17.75
18.09
18.48
18.58
17.89
16.08
13.22
9.73
6.24
3.3
1.11
-0.41
-1.56
-2.59
-3.57
-4.46
-5.18
-5.78
-6.51
-7.68
-9.55
-12.06
-14.9
-17.53
-19.39
-20.05
-19.29
-17.04
-13.4
-8.63
-3.14
2.51
7.73
12.09
15.45
17.96
19.87
21.31
22.13
21.87
20.08
16.59
11.78
6.55
2.02
-0.9
-1.95
-1.51
-0.41
0.54
0.83
0.46
-0.3
-1.12
-1.82
-2.43
-2.98
-3.38
-3.46
-3.03
-1.98
-0.33
1.9
4.79
8.35
12.39
16.42
19.77
21.85
22.44
21.84
20.54
18.96
17.1
14.75
11.71
8.16
4.77
2.35
1.53
2.29
4.06
5.9
6.97
6.94
5.98
4.8
4.15
4.47
5.69
7.11
7.76
6.8
3.98
-0.29
-4.98
-9.09
-12.0
-13.71
-14.62
-15.19
-15.57
-15.55
-14.82
-13.24
-11.05
-8.68
-6.46
-4.43
-2.43
-0.36
1.6
2.92
3.15
2.22
0.55
-1.06
-1.96
-2.01
-1.67
-1.77
-2.99
-5.48
-8.81
-12.13
-14.68
-16.13
-16.66
-16.68
-16.55
-16.46
-16.42
-16.57
-17.21
-18.62
-20.76
-22.93
-23.97
-22.74
-18.82
-12.73
-5.73
0.76
5.87
9.44
11.85
13.52
14.56
14.83
14.1
12.41
10.08
7.59
5.36
3.64
2.4
1.51
0.76
0.01
-0.76
-1.51
-2.11
-2.54
-2.93
-3.59
-4.94
-7.36
-10.94
-15.28
-19.58
-22.77
-23.95
-22.76
-19.49
-14.98
-10.24
-5.98
-2.44
0.55
3.24
5.67
7.56
8.52
8.38
7.4
6.04
4.68
3.33
1.73
-0.33
-2.62
-4.4
-4.75
-3.05
0.45
4.66
8.08
9.47
8.4
5.37
1.45
-2.39
-5.62
-8.14
-10.11
-11.54
-12.24
-11.94
-10.47
-7.86
-4.39
-0.3
4.18
8.81
13.34
17.3
20.23
21.74
21.74
20.44
18.32
15.97
13.94
12.56
11.89
11.69
11.43
10.59
8.87
6.44
3.87
1.81
0.7
0.43
0.43
-0.12
-1.84
-4.9
-8.97
-13.35
-17.32
-20.31
-22.06
-22.5
-21.6
-19.36
-15.79
-11.07
-5.64
-0.17
4.64
8.33
10.73
11.99
12.38
12.21
11.74
11.27
11.1
11.51
12.58
14.14
15.86
17.36
18.51
19.38
20.09
20.61
20.64
19.7
17.38
13.59
8.69
3.25
-2.03
-6.61
-10.11
-12.34
-13.21
-12.82
-11.41
-9.39
-7.22
-5.33
-3.98
-3.22
-2.89
-2.68
-2.29
-1.54
-0.41
0.91
2.1
2.92
3.23
3.08
2.66
2.19
1.85
1.79
2.13
2.96
4.28
5.92
7.42
8.16
7.47
4.98
0.85
-4.23
-9.21
-13.04
-15.02
-15.02
-13.41
-10.93
-8.37
-6.34
-5.04
-4.28
-3.61
-2.56
-0.8
1.66
4.57
7.53
10.19
12.33
13.91
15.01
15.77
16.45
17.4
19.04
21.79
25.84
31.14
37.42
44.42
52.1
60.78
70.96
83.09
97.34
113.51
131.24
150.27
170.72
192.9
216.9
242.0
266.37
287.11
300.97
305.14
298.07
279.81
251.74
216.09
175.14
130.89
84.72
37.41
-10.74
-59.93
-110.67
-163.37
-217.63
-271.58
-321.8
-363.94
-394.04
-409.83
-411.55
-401.61
-383.53
-360.52
-334.7
-307.04
-278.06
-248.49
-219.57
-192.73
-168.95
-148.4
-130.43
-114.1
-98.73
-84.23
-71.08
-59.85
-50.88
-43.93
-38.27
-33.05
-27.77
-22.44
-17.5
-13.45
-10.47
-8.25
-6.2
-3.8
-0.91
2.14
4.72
6.21
6.25
4.85
2.36
-0.49
-2.67
-2.89
0.13
7.32
18.9
34.19
51.74
69.82
86.81
101.53
113.38
122.2
128.15
131.47
132.55
131.77
129.6
126.54
123.11
119.84
117.17
115.3
114.1
113.07
111.61
109.2
105.7
101.33
96.51
91.62
86.76
81.79
76.39
70.37
63.69
56.5
49.07
41.78
35.1
29.59
25.81
24.09
24.34
25.94
27.86
29.07
28.91
27.26
24.51
21.17
17.55
13.64
9.14
3.83
-2.28
-8.81
-15.15
-20.61
-24.6
-26.72
-26.84
-25.05
-21.71
-17.43
-12.87
-8.65
-5.1
-2.41
-0.76
-0.46
-2.06
-6.09
-12.81
-22.04
-33.04
-44.76
-56.08
-66.15
-74.56
-81.42
-87.36
-93.31
-100.4
-109.52
-121.09
-134.88
-149.9
-164.68
-177.61
-187.17
-192.3
-192.41
-187.49
-178.05
-164.95
-149.27
-131.98
-113.92
-95.72
-77.92
-61.03
-45.57
-31.86
-20.04
-10.05
-1.79
4.69
9.22
11.73
12.55
12.55
12.96
14.9
18.82
24.25
30.09
35.09
38.43
40.05
40.55
40.78
41.47
42.89
44.81
46.72
47.94
48.04
46.9
44.71
41.9
38.89
36.01
33.39
31.07
29.04
27.3
25.86
24.64
23.47
22.11
20.34
18.07
15.32
12.19
8.82
5.41
2.25
-0.17
-1.29
-0.65
1.87
5.95
10.94
16.0
20.4
23.65
25.5
25.88
24.93
22.86
20.08
17.1
14.43
12.38
10.94
9.75
8.35
6.43
4.0
1.47
-0.57
-1.64
-1.58
-0.63
0.66
1.6
1.62
0.42
-2.0
-5.39
-9.35
-13.42
-17.14
-20.04
-21.67
-21.68
-19.87
-16.33
-11.39
-5.61
0.4
6.16
11.5
16.44
21.04
25.26
28.74
30.97
31.5
30.23
27.51
24.18
21.2
19.38
19.05
19.99
21.63
23.3
24.52
25.09
25.05
24.54
23.63
22.27
20.3
17.54
13.89
9.44
4.45
-0.63
-5.21
-8.7
-10.61
-10.7
-9.08
-6.15
-2.5
1.28
4.74
7.59
9.67
10.86
11.07
10.23
8.42
5.83
2.75
-0.51
-3.73
-6.8
-9.69
-12.33
-14.63
-16.43
-17.59
-18.06
-17.92
-17.32
-16.47
-15.57
-14.77
-14.22
-14.02
-14.23
-14.77
-15.38
-15.58
-14.77
-12.4
-8.24
-2.45
4.4
11.6
18.55
24.91
30.56
35.45
39.42
42.19
43.5
43.33
41.91
39.7
37.17
34.62
32.08
29.39
26.31
22.59
18.16
13.07
7.53
1.9
-3.47
-8.31
-12.63
-16.72
-21.0
-25.8
-31.08
-36.33
-40.71
-43.31
-43.49
-41.11
-36.48
-30.32
-23.48
-16.79
-10.91
-6.27
-3.06
-1.24
-0.6
-0.82
-1.52
-2.36
-3.08
-3.5
-3.53
-3.17
-2.48
-1.58
-0.57
0.57
1.94
3.74
6.01
8.58
11.02
12.71
13.1
11.99
9.66
6.92
4.82
4.31
5.89
9.38
14.04
18.86
22.95
25.9
27.81
29.12
30.33
31.8
33.69
35.95
38.28
40.05
40.4
38.45
33.72
26.53
18.05
9.9
3.46
-0.65
-2.83
-4.06
-5.4
-7.47
-10.37
-13.85
-17.63
-21.51
-25.27
-28.46
-30.42
-30.4
-28.01
-23.31
-17.01
-10.16
-3.82
1.32
5.01
7.44
8.98
9.96
10.62
11.0
11.11
10.91
10.4
9.63
8.62
7.45
6.23
5.09
4.17
3.54
3.18
2.98
2.77
2.42
1.89
1.15
0.18
-1.11
-2.85
-5.02
-7.37
-9.34
-10.31
-9.77
-7.65
-4.31
-0.42
3.36
6.64
9.37
11.69
13.76
15.58
17.04
18.01
18.49
18.57
18.42
18.15
17.75
17.19
16.43
15.5
14.42
13.2
11.78
10.05
7.9
5.27
2.22
-1.21
-4.92
-8.81
-12.63
-16.04
-18.58
-19.8
-19.43
-17.51
-14.41
-10.77
-7.27
-4.49
-2.71
-1.91
-1.81
-2.02
-2.26
-2.42
-2.56
-2.89
-3.57
-4.7
-6.26
-8.1
-10.09
-12.06
-13.87
-15.43
-16.65
-17.47
-17.84
-17.79
-17.47
-17.08
-16.85
-16.85
-16.95
-16.79
-15.93
-14.07
-11.19
-7.54
-3.58
0.3
3.87
7.03
9.68
11.69
12.86
13.01
12.18
10.62
8.75
7.04
5.78
5.07
4.84
4.91
5.07
5.18
5.15
4.98
4.71
4.36
3.88
3.11
1.88
0.13
-1.96
-3.95
-5.32
-5.67
-4.87
-3.12
-0.84
1.54
3.74
5.63
7.23
8.53
9.5
10.07
10.17
9.79
9.0
7.94
6.82
5.83
5.08
4.54
4.04
3.34
2.3
1.0
-0.32
-1.39
-2.13
-2.72
-3.52
-4.86
-6.78
-8.96
-10.84
-11.88
-11.71
-10.21
-7.45
-3.6
1.09
6.28
11.45
16.0
19.35
21.23
21.71
21.2
20.23
19.24
18.37
17.56
16.64
15.48
14.1
12.56
10.85
8.76
5.9
1.89
-3.47
-9.95
-16.94
-23.61
-29.09
-32.71
-34.04
-32.96
-29.6
-24.36
-17.92
-11.17
-5.02
-0.18
3.03
4.74
5.36
5.4
5.22
5.0
4.74
4.4
3.95
3.43
2.92
2.42
1.96
1.54
1.18
0.96
0.96
1.25
1.75
2.26
2.49
2.18
1.25
-0.11
-1.45
-2.22
-1.98
-0.61
1.67
4.34
6.88
8.91
10.34
11.35
12.21
13.14
14.16
15.12
15.8
15.99
15.53
14.34
12.43
9.83
6.68
3.21
-0.23
-3.28
-5.65
-7.24
-8.21
-8.91
-9.76
-11.05
-12.83
-14.82
-16.54
-17.44
-17.13
-15.46
-12.57
-8.84
-4.77
-0.87
2.47
4.96
6.45
6.92
6.47
5.25
3.53
1.59
-0.29
-1.94
-3.24
-4.25
-5.06
-5.8
-6.52
-7.2
-7.75
-8.12
-8.34
-8.56
-9.04
-10.01
-11.65
-13.88
-16.41
-18.72
-20.16
-20.18
-18.46
-15.09
-10.53
-5.48
-0.66
3.4
6.47
8.58
9.87
10.53
10.63
10.19
9.27
7.96
6.41
4.83
3.34
2.03
0.91
-0.08
-0.94
-1.69
-2.31
-2.8
-3.27
-3.89
-4.92
-6.49
-8.49
-10.43
-11.6
-11.29
-9.09
-5.05
0.29
6.24
12.15
17.61
22.41
26.44
29.5
31.37
31.86
30.99
29.05
26.46
23.6
20.67
17.66
14.46
11.0
7.35
3.71
0.37
-2.42
-4.57
-6.11
-7.26
-8.3
-9.51
-11.05
-12.92
-14.87
-16.51
-17.36
-16.99
-15.19
-12.01
-7.8
-3.13
1.4
5.23
8.04
9.76
10.51
10.56
10.11
9.28
8.06
6.42
4.38
2.04
-0.44
-2.93
-5.35
-7.69
-9.97
-12.16
-14.15
-15.81
-17.05
-17.86
-18.43
-19.02
-19.92
-21.29
-23.09
-24.96
-26.35
-26.64
-25.38
-22.47
-18.18
-13.04
-7.66
-2.59
1.85
5.47
8.18
9.96
10.86
11.03
10.71
10.16
9.62
9.26
9.09
9.09
9.18
9.32
9.51
9.75
10.09
10.56
11.2
11.99
12.79
13.38
13.41
12.57
10.66
7.73
4.17
0.62
-2.19
-3.67
-3.59
-2.14
0.16
2.69
4.92
6.62
7.75
8.4
8.6
8.35
7.61
6.45
5.04
3.63
2.4
1.37
0.44
-0.51
-1.55
-2.61
-3.6
-4.45
-5.19
-5.94
-6.82
-7.96
-9.4
-11.14
-13.06
-14.84
-16.0
-15.94
-14.25
-10.89
-6.3
-1.25
3.46
7.26
10.04
11.98
13.41
14.53
15.33
15.62
15.22
14.11
12.45
10.51
8.58
6.78
5.07
3.32
1.44
-0.52
-2.38
-3.91
-4.99
-5.72
-6.39
-7.37
-8.92
-11.08
-13.64
-16.23
-18.42
-19.75
-19.91
-18.71
-16.19
-12.69
-8.69
-4.75
-1.28
1.57
3.87
5.75
7.3
8.47
9.16
9.32
9.06
8.6
8.15
7.84
7.68
7.62
7.6
7.59
7.55
7.35
6.8
5.75
4.18
2.27
0.31
-1.48
-3.03
-4.47
-5.98
-7.73
-9.66
-11.53
-12.97
-13.55
-12.99
-11.23
-8.47
-5.15
-1.78
1.2
3.5
5.03
5.82
5.93
5.35
4.09
2.21
-0.07
-2.37
-4.3
-5.53
-5.96
-5.68
-4.93
-3.99
-3.15
-2.62
-2.47
-2.62
-2.88
-3.0
-2.81
-2.32
-1.67
-1.14
-0.96
-1.3
-2.19
-3.58
-5.36
-7.31
-9.08
-10.13
-9.81
-7.61
-3.37
2.49
9.13
15.5
20.77
24.6
27.13
28.79
30.03
30.96
31.46
31.26
30.2
28.37
26.02
23.5
21.0
18.58
16.21
13.9
11.73
9.9
8.58
7.88
7.76
8.04
8.52
8.97
9.27
9.35
9.23
8.92
8.42
7.66
6.48
4.75
2.46
-0.16
-2.6
-4.22
-4.49
-3.23
-0.73
2.44
5.64
8.49
10.91
13.06
15.07
16.84
18.03
18.22
17.1
14.68
11.3
7.46
3.69
0.34
-2.48
-4.9
-7.18
-9.57
-12.17
-14.89
-17.44
-19.56
-21.06
-22.0
-22.64
-23.31
-24.29
-25.65
-27.23
-28.73
-29.73
-29.86
-28.83
-26.49
-22.96
-18.55
-13.79
-9.23
-5.34
-2.37
-0.31
0.97
1.63
1.77
1.43
0.65
-0.42
-1.5
-2.31
-2.64
-2.51
-2.14
-1.83
-1.84
-2.24
-2.91
-3.59
-4.07
-4.29
-4.4
-4.66
-5.34
-6.57
-8.25
-10.07
-11.62
-12.51
-12.52
-11.64
-10.02
-7.92
-5.56
-3.08
-0.57
1.88
4.12
5.92
7.06
7.41
6.99
5.99
4.63
3.12
1.57
0.01
-1.54
-3.02
-4.34
-5.45
-6.38
-7.23
-8.15
-9.2
-10.37
-11.57
-12.76
-13.99
-15.39
-17.04
-18.84
-20.37
-20.99
-20.06
-17.25
-12.73
-7.13
-1.31
3.95
8.19
11.33
13.48
14.81
15.42
15.31
14.5
13.11
11.36
9.53
7.87
6.53
5.54
4.8
4.11
3.3
2.28
1.06
-0.23
-1.41
-2.35
-3.04
-3.56
-4.07
-4.79
-5.86
-7.33
-9.09
-10.79
-11.88
-11.8
-10.14
-6.9
-2.52
2.25
6.62
10.06
12.4
13.79
14.48
14.62
14.24
13.26
11.66
9.58
7.27
5.04
3.11
1.51
0.14
-1.18
-2.54
-3.92
-5.21
-6.28
-7.11
-7.77
-8.43
-9.22
-10.2
-11.32
-12.45
-13.47
-14.21
-14.52
-14.21
-13.12
-11.13
-8.28
-4.78
-0.98
2.76
6.15
9.01
11.25
12.76
13.45
13.25
12.18
10.39
8.14
5.72
3.38
1.32
-0.36
-1.61
-2.43
-2.86
-3.03
-3.08
-3.18
-3.46
-4.03
-4.94
-6.25
-7.96
-10.06
-12.45
-14.96
-17.33
-19.24
-20.38
-20.49
-19.4
-17.13
-13.83
-9.81
-5.46
-1.18
2.68
5.82
8.04
9.18
9.19
8.12
6.15
3.6
0.83
-1.86
-4.24
-6.24
-7.89
-9.29
-10.5
-11.52
-12.28
-12.74
-12.85
-12.67
-12.32
-12.02
-12.08
-12.81
-14.44
-16.94
-19.97
-22.87
-24.83
-25.13
-23.41
-19.78
-14.74
-9.05
-3.43
1.58
5.71
8.92
11.27
12.84
13.72
14.01
13.86
13.49
13.1
12.81
12.64
12.46
12.16
11.66
11.01
10.3
9.59
8.91
8.16
7.22
5.96
4.28
2.1
-0.57
-3.62
-6.78
-9.6
-11.51
-12.07
-10.99
-8.35
-4.47
0.13
4.91
9.41
13.34
16.6
19.23
21.34
22.98
24.1
24.55
24.19
23.05
21.35
19.45
17.68
16.16
14.78
13.31
11.62
9.72
7.8
6.07
4.62
3.33
1.94
0.22
-2.02
-4.78
-7.93
-11.19
-14.18
-16.39
-17.42
-17.03
-15.25
-12.38
-8.88
-5.21
-1.75
1.29
3.79
5.7
6.98
7.61
7.6
6.99
5.88
4.41
2.81
1.32
0.17
-0.51
-0.75
-0.71
-0.57
-0.44
-0.33
-0.18
0.09
0.47
0.86
1.08
0.92
0.23
-1.02
-2.79
-4.93
-7.22
-9.34
-10.93
-11.62
-11.12
-9.32
-6.32
-2.45
1.86
6.16
10.1
13.47
16.17
18.18
19.53
20.22
20.32
19.9
19.07
17.98
16.81
15.66
14.61
13.72
12.97
12.32
11.71
11.03
10.18
9.09
7.75
6.21
4.5
2.61
0.5
-1.89
-4.64
-7.68
-10.89
-13.97
-16.57
-18.28
-18.78
-17.89
-15.64
-12.34
-8.45
-4.52
-0.98
1.95
4.2
5.77
6.67
6.82
6.2
4.93
3.3
1.71
0.48
-0.29
-0.75
-1.22
-1.97
-3.1
-4.48
-5.86
-6.98
-7.69
-8.01
-8.07
-8.08
-8.27
-8.85
-9.93
-11.49
-13.31
-15.0
-16.12
-16.27
-15.28
-13.22
-10.37
-7.12
-3.85
-0.85
1.74
3.86
5.53
6.81
7.76
8.41
8.78
8.9
8.82
8.59
8.27
7.89
7.45
6.92
6.28
5.58
4.9
4.36
4.03
3.93
3.99
4.01
3.74
2.9
1.28
-1.16
-4.19
-7.34
-9.96
-11.47
-11.47
-9.9
-6.99
-3.2
0.93
4.92
8.36
11.03
12.8
13.66
13.74
13.26
12.48
11.69
11.08
10.8
10.85
11.16
11.56
11.9
12.0
11.81
11.32
10.58
9.64
8.49
7.05
5.29
3.17
0.76
-1.83
-4.51
-7.22
-9.95
-12.62
-15.05
-16.93
-17.9
-17.72
-16.31
-13.89
-10.82
-7.48
-4.16
-0.97
2.02
4.77
7.14
8.91
9.89
10.03
9.48
8.58
7.7
7.12
6.87
6.81
6.7
6.39
5.87
5.27
4.68
4.12
3.43
2.44
1.02
-0.82
-2.94
-5.15
-7.25
-9.13
-10.68
-11.76
-12.15
-11.67
-10.2
-7.81
-4.74
-1.3
2.15
5.35
8.04
9.98
10.97
10.85
9.67
7.69
5.41
3.38
1.99
1.43
1.53
1.97
2.4
2.54
2.29
1.66
0.75
-0.32
-1.42
-2.45
-3.34
-4.08
-4.75
-5.51
-6.51
-7.87
-9.63
-11.68
-13.79
-15.64
-16.87
-17.11
-16.15
-13.96
-10.79
-7.07
-3.33
0.01
2.72
4.8
6.34
7.44
8.12
8.34
8.14
7.64
7.07
6.65
6.49
6.57
6.72
6.77
6.59
6.16
5.55
4.81
4.04
3.22
2.3
1.11
-0.51
-2.73
-5.57
-8.85
-12.22
-15.19
-17.29
-18.16
-17.69
-16.01
-13.49
-10.61
-7.85
-5.6
-4.01
-3.07
-2.57
-2.34
-2.2
-2.15
-2.24
-2.59
-3.29
-4.36
-5.71
-7.22
-8.75
-10.22
-11.69
-13.31
-15.21
-17.39
-19.65
-21.69
-23.26
-24.35
-25.28
-26.57
-28.65
-31.59
-35.02
-38.21
-40.42
-41.14
-40.26
-38.01
-34.82
-31.06
-26.96
-22.53
-17.69
-12.34
-6.45
-0.12
6.39
12.77
18.75
24.15
28.96
33.22
36.98
40.2
42.74
44.46
45.25
45.14
44.26
42.76
40.74
38.26
35.34
31.96
28.06
23.59
18.5
12.85
6.9
1.15
-3.73
-7.1
-8.52
-7.96
-5.79
-2.64
0.71
3.53
5.19
5.22
3.35
-0.41
-5.72
-11.9
-18.04
-23.2
-26.59
-27.76
-26.73
-23.96
-20.22
-16.4
-13.2
-10.99
-9.74
-9.15
-8.75
-8.14
-7.04
-5.37
-3.24
-0.96
1.02
2.31
2.72
2.48
2.2
2.73
4.81
8.7
14.05
19.92
25.2
28.91
30.59
30.33
28.69
26.42
24.15
22.16
20.44
18.77
16.92
14.81
12.55
10.35
8.43
6.89
5.77
4.98
4.4
3.87
3.26
2.41
1.25
-0.23
-1.96
-3.78
-5.51
-6.98
-7.97
-8.28
-7.65
-5.79
-2.49
2.38
8.73
16.32
24.68
33.22
41.23
48.0
52.88
55.37
55.19
52.39
47.31
40.59
33.03
25.4
18.34
12.15
6.84
2.19
-2.05
-6.04
-9.76
-13.09
-15.93
-18.28
-20.27
-22.09
-23.89
-25.73
-27.6
-29.43
-31.14
-32.6
-33.58
-33.82
-33.04
-31.1
-28.08
-24.21
-19.87
-15.42
-11.21
-7.5
-4.49
-2.36
-1.15
-0.77
-0.95
-1.38
-1.78
-2.05
-2.22
-2.41
-2.76
-3.25
-3.78
-4.13
-4.1
-3.56
-2.53
-1.19
0.15
1.07
1.22
0.39
-1.36
-3.65
-5.83
-7.18
-7.11
-5.34
-2.06
2.15
6.43
9.93
12.04
12.58
11.74
9.97
7.78
5.51
3.36
1.39
-0.32
-1.67
-2.54
-2.94
-3.03
-3.06
-3.28
-3.74
-4.32
-4.8
-5.09
-5.32
-5.86
-7.1
-9.26
-12.2
-15.43
-18.26
-20.01
-20.3
-19.08
-16.6
-13.29
-9.59
-5.82
-2.17
1.17
3.99
6.07
7.23
7.5
7.1
6.37
5.67
5.18
4.87
4.58
4.13
3.43
2.47
1.31
0.04
-1.28
-2.53
-3.61
-4.45
-5.07
-5.62
-6.28
-7.12
-7.98
-8.51
-8.28
-6.98
-4.56
-1.19
2.76
6.93
10.97
14.64
17.69
19.94
21.31
21.84
21.73
21.3
20.82
20.47
20.23
19.88
19.14
17.76
15.62
12.83
9.62
6.34
3.27
0.57
-1.78
-3.88
-5.91
-8.03
-10.29
-12.64
-14.89
-16.72
-17.77
-17.72
-16.46
-14.12
-11.06
-7.67
-4.27
-1.01
2.02
4.73
6.97
8.58
9.45
9.67
9.45
9.01
8.47
7.82
6.9
5.64
4.06
2.33
0.68
-0.69
-1.72
-2.47
-3.09
-3.81
-4.81
-6.21
-8.01
-10.04
-11.97
-13.44
-14.08
-13.63
-11.99
-9.24
-5.63
-1.5
2.73
6.65
9.95
12.45
14.16
15.19
15.72
15.91
15.83
15.48
14.81
13.74
12.26
10.44
8.41
6.34
4.4
2.68
1.2
-0.08
-1.26
-2.42
-3.63
-4.99
-6.64
-8.71
-11.23
-14.0
-16.61
-18.47
-19.02
-17.99
-15.46
-11.87
-7.81
-3.77
-0.03
3.34
6.4
9.14
11.53
13.45
14.83
15.63
15.83
15.34
14.07
11.93
8.98
5.48
1.84
-1.51
-4.26
-6.24
-7.49
-8.11
-8.24
-8.03
-7.62
-7.19
-6.92
-6.92
-7.18
-7.53
-7.68
-7.34
-6.28
-4.44
-1.96
0.84
3.55
5.79
7.35
8.19
8.47
8.39
8.08
7.55
6.69
5.4
3.68
1.67
-0.41
-2.37
-4.13
-5.72
-7.24
-8.72
-10.08
-11.16
-11.86
-12.17
-12.3
-12.6
-13.47
-15.11
-17.44
-20.02
-22.18
-23.23
-22.67
-20.41
-16.68
-11.98
-6.85
-1.8
2.8
6.69
9.7
11.75
12.84
13.04
12.5
11.43
10.13
8.86
7.82
7.04
6.34
5.38
3.91
1.92
-0.28
-2.17
-3.32
-3.6
-3.3
-2.97
-3.13
-4.07
-5.78
-8.02
-10.44
-12.64
-14.25
-14.93
-14.4
-12.62
-9.74
-6.17
-2.36
1.27
4.46
7.11
9.21
10.71
11.54
11.62
10.92
9.54
7.74
5.87
4.31
3.29
2.87
2.86
2.96
2.85
2.38
1.53
0.46
-0.61
-1.49
-2.11
-2.52
-2.87
-3.42
-4.41
-6.03
-8.26
-10.78
-13.02
-14.34
-14.2
-12.42
-9.23
-5.13
-0.73
3.43
7.06
10.03
12.31
13.89
14.72
14.79
14.21
13.18
11.94
10.76
9.75
8.91
8.13
7.28
6.26
5.03
3.6
2.09
0.62
-0.68
-1.74
-2.51
-3.06
-3.51
-4.03
-4.78
-5.85
-7.21
-8.71
-10.02
-10.76
-10.65
-9.6
-7.77
-5.49
-3.1
-0.79
1.44
3.65
5.9
8.04
9.8
10.87
11.13
10.69
9.86
9.02
8.39
8.0
7.65
7.04
5.96
4.36
2.42
0.37
-1.55
-3.26
-4.79
-6.26
-7.73
-9.16
-10.48
-11.62
-12.54
-13.21
-13.5
-13.19
-12.02
-9.86
-6.79
-3.17
0.51
3.85
6.69
9.09
11.22
13.18
14.85
15.95
16.18
15.42
13.78
11.6
9.22
6.94
4.88
3.07
1.49
0.11
-1.01
-1.8
-2.24
-2.39
-2.38
-2.45
-2.77
-3.51
-4.69
-6.23
-7.95
-9.66
-11.14
-12.19
-12.65
-12.41
-11.47
-9.93
-8.01
-5.99
-4.09
-2.42
-0.97
0.32
1.41
2.18
2.41
1.97
0.85
-0.71
-2.36
-3.71
-4.51
-4.68
-4.32
-3.66
-2.91
-2.27
-1.88
-1.86
-2.34
-3.42
-5.11
-7.28
-9.61
-11.63
-12.84
-12.9
-11.76
-9.6
-6.84
-3.87
-0.95
1.78
4.27
6.42
8.01
8.75
8.43
7.1
5.0
2.57
0.21
-1.84
-3.58
-5.09
-6.39
-7.4
-7.9
-7.73
-6.94
-5.81
-4.79
-4.28
-4.51
-5.41
-6.67
-7.9
-8.7
-8.79
-8.03
-6.35
-3.82
-0.61
2.98
6.62
9.98
12.87
15.25
17.18
18.72
19.82
20.39
20.3
19.53
18.22
16.55
14.73
12.89
11.07
9.25
7.47
5.75
4.1
2.46
0.75
-1.13
-3.19
-5.39
-7.6
-9.76
-11.83
-13.76
-15.44
-16.65
-17.1
-16.51
-14.73
-11.79
-7.9
-3.4
1.28
5.78
9.78
13.1
15.55
16.96
17.17
16.09
13.81
10.65
7.12
3.74
0.86
-1.37
-2.99
-4.11
-4.8
-5.1
-5.05
-4.76
-4.45
-4.38
-4.75
-5.68
-7.16
-9.03
-10.99
-12.6
-13.35
-12.83
-10.86
-7.61
-3.5
0.94
5.24
9.1
12.33
14.8
16.37
16.96
16.63
15.62
14.3
13.04
12.01
11.17
10.22
8.83
6.81
4.24
1.43
-1.21
-3.34
-4.89
-6.05
-7.21
-8.76
-10.99
-13.92
-17.37
-20.95
-24.17
-26.52
-27.54
-26.97
-24.78
-21.26
-16.85
-12.09
-7.41
-3.0
1.06
4.8
8.06
10.61
12.19
12.69
12.34
11.61
11.05
11.02
11.59
12.52
13.49
14.27
14.81
15.18
15.49
15.76
15.95
16.01
15.91
15.65
15.21
14.51
13.48
12.13
10.68
9.46
8.8
8.93
9.81
11.24
12.9
14.55
16.05
17.34
18.36
18.96
18.94
18.02
16.03
13.02
9.27
5.28
1.57
-1.49
-3.81
-5.64
-7.35
-9.22
-11.34
-13.53
-15.53
-17.13
-18.35
-19.39
-20.51
-21.87
-23.5
-25.24
-26.8
-27.86
-28.08
-27.18
-25.08
-21.86
-17.85
-13.47
-9.08
-4.9
-0.97
2.71
6.09
8.98
11.12
12.28
12.4
11.63
10.25
8.62
7.04
5.67
4.56
3.66
2.91
2.32
1.99
2.02
2.46
3.24
4.05
4.55
4.4
3.45
1.82
-0.1
-1.83
-2.88
-2.92
-1.86
0.19
3.0
6.3
9.83
13.32
16.53
19.22
21.18
22.23
22.25
21.27
19.34
16.68
13.55
10.33
7.36
4.9
2.98
1.42
-0.09
-1.83
-3.9
-6.17
-8.36
-10.19
-11.53
-12.46
-13.2
-13.99
-15.03
-16.4
-18.06
-19.83
-21.38
-22.23
-21.91
-20.08
-16.74
-12.27
-7.35
-2.68
1.2
4.1
6.05
7.22
7.69
7.46
6.49
4.82
2.64
0.28
-1.93
-3.74
-5.05
-5.93
-6.58
-7.21
-8.0
-9.06
-10.4
-11.95
-13.61
-15.31
-17.1
-19.04
-21.25
-23.72
-26.3
-28.63
-30.26
-30.73
-29.75
-27.25
-23.48
-18.93
-14.14
-9.65
-5.84
-2.9
-0.93
0.01
-0.03
-0.74
-1.66
-2.29
-2.37
-2.0
-1.54
-1.13
-0.41
1.42
5.14
10.91
17.79
24.07
27.97
28.58
26.25
22.32
18.52
16.22
16.09
18.15
21.89
26.53
31.14
34.74
36.63
36.69
35.42
33.79
32.74
32.77
33.61
34.59
34.99
34.5
33.23
31.54
29.7
27.76
25.54
22.8
19.39
15.33
10.67
5.5
-0.25
-6.78
-14.29
-22.75
-31.66
-40.11
-47.08
-51.81
-54.1
-54.41
-53.45
-51.84
-49.84
-47.26
-43.9
-39.81
-35.58
-31.92
-29.37
-27.97
-27.29
-26.69
-25.76
-24.42
-22.89
-21.42
-20.19
-19.34
-18.8
-18.32
-17.35
-15.16
-11.14
-5.19
2.04
9.2
14.78
17.67
17.68
15.57
12.65
10.26
9.26
9.91
11.95
14.86
18.03
20.85
22.79
23.49
22.85
21.06
18.5
15.66
13.01
10.9
9.58
9.17
9.74
11.28
13.68
16.74
20.1
23.36
26.09
28.06
29.32
30.22
31.24
32.61
34.14
35.2
34.93
32.7
28.38
22.33
15.27
7.93
0.92
-5.35
-10.55
-14.35
-16.6
-17.34
-16.94
-15.98
-15.01
-14.38
-14.15
-14.22
-14.38
-14.48
-14.42
-14.21
-13.89
-13.56
-13.31
-13.17
-13.07
-12.89
-12.56
-12.14
-11.93
-12.26
-13.37
-15.14
-17.06
-18.36
-18.24
-16.21
-12.14
-6.38
0.42
7.45
13.94
19.37
23.49
26.33
28.08
29.05
29.61
30.12
30.83
31.83
32.97
33.86
34.03
33.05
30.7
27.05
22.44
17.4
12.47
8.07
4.42
1.54
-0.72
-2.58
-4.22
-5.76
-7.1
-7.99
-8.15
-7.36
-5.6
-3.15
-0.5
1.78
3.2
3.5
2.74
1.23
-0.63
-2.47
-4.08
-5.49
-6.87
-8.46
-10.45
-12.79
-15.21
-17.32
-18.73
-19.29
-19.16
-18.72
-18.35
-18.29
-18.66
-19.42
-20.39
-21.21
-21.27
-19.8
-16.2
-10.5
-3.5
3.44
8.95
12.35
13.9
14.53
15.25
16.49
17.88
18.6
17.86
15.5
12.04
8.37
5.33
3.35
2.33
1.88
1.52
1.01
0.34
-0.36
-1.02
-1.7
-2.77
-4.6
-7.29
-10.56
-13.73
-16.02
-16.83
-16.12
-14.37
-12.27
-10.42
-9.0
-7.79
-6.41
-4.62
-2.51
-0.42
1.17
1.96
1.89
1.17
0.15
-0.82
-1.49
-1.74
-1.57
-1.14
-0.68
-0.43
-0.5
-0.83
-1.23
-1.51
-1.66
-1.85
-2.37
-3.39
-4.86
-6.4
-7.47
-7.54
-6.3
-3.77
-0.3
3.61
7.52
11.09
14.28
17.12
19.71
22.06
24.11
25.78
27.0
27.64
27.42
25.86
22.4
16.69
8.92
-0.02
-8.7
-15.68
-19.98
-21.39
-20.41
-17.83
-14.31
-10.12
-5.3
0.05
5.4
9.83
12.43
12.78
11.34
9.28
8.04
8.6
11.11
14.95
19.17
22.98
26.06
28.44
30.12
30.75
29.54
25.6
18.37
8.1
-4.19
-16.89
-28.34
-37.35
-43.49
-47.09
-48.93
-49.85
-50.34
-50.45
-50.04
-48.98
-47.46
-45.87
-44.54
-43.52
-42.48
-40.86
-38.23
-34.53
-30.14
-25.65
-21.48
-17.7
-14.03
-10.09
-5.71
-1.09
3.23
6.64
8.64
9.06
8.11
6.33
4.46
3.27
3.38
5.01
7.96
11.63
15.25
18.18
20.05
20.85
20.85
20.48
20.06
19.72
19.27
18.38
16.73
14.22
11.06
7.65
4.38
1.4
-1.42
-4.29
-7.26
-10.1
-12.42
-13.96
-14.81
-15.48
-16.59
-18.48
-20.96
-23.32
-24.78
-24.81
-23.34
-20.83
-17.95
-15.29
-13.19
-11.63
-10.45
-9.52
-8.85
-8.53
-8.58
-8.81
-8.75
-7.88
-5.82
-2.58
1.5
5.84
9.97
13.64
16.82
19.59
21.9
23.49
24.05
23.39
21.63
19.22
16.77
14.8
13.58
12.94
12.43
11.5
9.66
6.65
2.57
-2.09
-6.41
-9.33
-10.03
-8.38
-5.11
-1.55
0.97
1.8
1.26
0.4
0.34
1.62
3.96
6.6
8.78
10.2
11.0
11.46
11.66
11.36
10.24
8.18
5.45
2.62
0.35
-0.97
-1.31
-0.92
-0.21
0.46
0.92
1.15
1.22
1.18
0.94
0.33
-0.83
-2.53
-4.5
-6.25
-7.26
-7.23
-6.16
-4.33
-2.1
0.3
2.81
5.45
8.21
10.89
13.17
14.66
15.18
14.67
13.28
11.18
8.53
5.42
1.97
-1.68
-5.31
-8.76
-11.91
-14.71
-17.16
-19.24
-20.96
-22.38
-23.57
-24.52
-25.08
-24.92
-23.64
-20.98
-16.98
-12.08
-6.9
-2.03
2.23
5.83
8.87
11.36
13.08
13.66
12.88
10.77
7.82
4.85
2.67
1.79
2.28
3.66
5.16
6.08
5.97
4.81
2.91
0.67
-1.71
-4.17
-6.68
-8.92
-10.38
-10.53
-9.07
-6.16
-2.29
2.05
6.56
11.15
15.75
20.06
23.58
25.83
26.65
26.37
25.57
24.73
23.93
22.83
21.01
18.33
15.03
11.64
8.56
6.05
3.96
2.0
-0.15
-2.73
-5.82
-9.47
-13.58
-17.94
-22.12
-25.57
-27.71
-28.13
-26.72
-23.68
-19.46
-14.54
-9.25
-3.73
2.07
8.32
15.08
22.21
29.3
35.66
40.54
43.33
43.72
41.81
38.09
33.34
28.41
24.01
20.64
18.44
17.14
16.23
15.0
12.81
9.31
4.58
-0.86
-6.12
-10.26
-12.53
-12.53
-10.4
-6.66
-2.14
2.3
5.96
8.48
9.84
10.34
10.33
10.11
9.76
9.13
8.03
6.37
4.36
2.53
1.57
2.05
4.19
7.68
11.76
15.34
17.41
17.25
14.82
10.74
6.29
2.86
1.59
2.9
6.41
11.11
15.83
19.44
21.07
20.02
15.95
9.16
1.01
-6.19
-9.71
-7.58
0.42
12.41
25.14
35.39
41.4
43.48
43.49
43.55
44.93
47.4
49.66
50.15
47.92
42.88
35.72
27.48
19.21
11.73
5.63
1.34
-0.94
-1.23
0.24
3.17
7.32
12.58
18.84
25.8
32.78
38.79
42.76
43.88
41.87
36.96
29.74
20.98
11.57
2.51
-5.16
-10.57
-13.38
-13.98
-13.37
-12.58
-11.94
-10.56
-6.56
2.15
16.65
36.16
57.94
78.16
93.25
101.06
101.23
94.82
83.51
68.78
51.68
32.94
13.22
-6.68
-25.88
-43.53
-58.94
-71.47
-80.49
-85.4
-85.81
-81.98
-75.08
-67.08
-60.2
-56.4
-56.73
-61.18
-68.85
-78.26
-87.79
-95.95
-101.65
-104.35
-104.18
-101.88
-98.7
-95.99
-94.59
-94.31
-93.82
-91.07
-84.26
-72.88
-58.37
-43.71
-32.39
-26.91
-27.72
-33.01
-39.28
-42.5
-39.14
-26.98
-5.42
24.82
62.17
104.8
150.93
198.81
246.21
290.02
326.08
349.8
357.31
346.79
319.36
278.79
230.37
179.23
129.02
81.54
37.22
-3.87
-41.15
-73.2
-98.21
-114.78
-122.72
-123.33
-119.04
-112.53
-105.9
-100.1
-95.04
-90.11
-84.87
-79.34
-74.03
-69.39
-65.42
-61.58
-57.1
-51.54
-45.15
-38.81
-33.54
-29.95
-27.82
-26.35
-24.66
-22.45
-20.28
-19.35
-20.93
-25.79
-33.86
-44.05
-54.63
-63.62
-69.33
-70.65
-67.41
-60.33
-50.91
-41.02
-32.4
-26.27
-22.92
-21.67
-21.08
-19.59
-16.19
-10.83
-4.45
1.51
5.72
7.58
7.3
5.77
4.04
2.96
2.84
3.39
3.84
3.16
0.44
-4.73
-12.02
-20.45
-28.52
-34.58
-37.08
-34.96
-27.92
-16.69
-3.12
10.11
20.16
25.05
24.25
18.81
10.68
1.77
-6.9
-15.21
-23.49
-31.75
-39.34
-45.13
-48.11
-48.03
-45.43
-41.31
-36.69
-32.32
-28.63
-25.95
-24.74
-25.58
-28.84
-34.63
-42.54
-51.76
-61.18
-69.63
-76.07
-79.83
-80.78
-79.32
-76.23
-72.14
-67.2
-60.9
-52.35
-40.8
-26.16
-9.22
8.68
26.15
42.39
57.19
70.84
83.36
93.96
100.82
101.48
93.8
76.94
51.93
21.63
-10.01
-38.85
-61.53
-76.08
-82.16
-81.02
-75.15
-67.58
-61.07
-57.33
-56.44
-57.07
-57.0
-54.06
-46.97
-35.66
-21.16
-5.17
10.47
24.17
35.02
43.04
49.13
54.74
61.12
68.62
76.24
81.88
83.11
78.26
67.18
51.43
33.61
16.31
1.16
-11.55
-22.48
-32.61
-42.43
-51.7
-59.63
-65.49
-69.15
-71.27
-72.95
-75.16
-78.14
-81.4
-83.94
-84.97
-84.25
-82.34
-80.21
-78.65
-77.86
-77.24
-75.79
-72.76
-68.19
-63.03
-58.61
-55.94
-55.11
-55.23
-54.82
-52.52
-47.59
-40.14
-30.73
-20.12
-8.9
2.38
13.0
21.85
27.55
28.84
25.16
17.01
5.97
-5.6
-15.19
-20.95
-21.99
-18.59
-11.96
-3.75
4.37
11.11
15.67
17.98
18.67
18.92
20.07
23.2
28.52
35.3
42.07
47.19
49.64
49.37
47.31
44.94
43.62
44.07
46.01
48.27
49.15
46.99
40.86
30.86
18.14
4.5
-8.32
-19.12
-27.52
-33.69
-37.95
-40.59
-41.66
-40.95
-38.09
-32.39
-23.0
-9.31
8.37
28.35
47.66
62.9
71.53
72.76
67.7
58.45
47.0
34.54
21.55
8.48
-3.64
-13.33
-19.39
-21.67
-21.36
-20.63
-21.6
-25.51
-32.3
-40.73
-48.84
-54.46
-55.57
-50.77
-39.5
-22.25
-0.52
23.55
47.73
70.14
89.65
105.71
118.26
127.6
134.16
138.5
140.97
141.52
139.44
133.6
122.95
107.23
87.54
66.12
45.62
28.19
14.64
4.39
-4.01
-11.9
-19.77
-27.1
-32.67
-35.17
-33.8
-28.46
-19.71
-8.54
3.72
15.71
26.19
34.19
39.14
40.89
39.58
35.6
29.53
22.11
14.17
6.4
-0.88
-7.85
-14.99
-22.84
-31.53
-40.55
-48.77
-54.83
-57.51
-56.24
-51.28
-43.71
-35.13
-27.19
-21.1
-17.35
-15.68
-15.26
-14.91
-13.29
-9.14
-1.54
9.66
23.58
38.33
51.58
61.36
66.83
68.49
67.78
66.31
65.16
64.62
64.28
63.53
61.86
58.86
54.25
47.75
39.05
27.92
14.35
-1.42
-18.72
-36.32
-52.56
-65.7
-74.4
-78.37
-78.38
-76.01
-72.72
-69.23
-65.28
-60.02
-52.81
-43.75
-33.71
-23.88
-15.12
-7.72
-1.59
3.37
6.98
8.98
9.45
9.05
8.92
9.95
12.12
14.21
14.05
9.54
-0.35
-15.2
-33.14
-51.56
-67.92
-80.32
-87.65
-89.52
-86.0
-77.5
-64.67
-48.4
-29.67
-9.48
11.29
31.98
51.99
70.86
88.1
103.29
116.01
125.92
132.79
136.53
137.17
134.87
129.81
122.13
111.93
99.39
84.91
69.21
53.3
38.28
25.21
15.06
8.71
6.97
10.47
19.36
33.07
50.15
68.51
85.79
99.87
109.15
112.63
109.78
100.24
83.7
59.93
29.12
-7.73
-48.43
-89.49
-126.56
-155.28
-172.52
-177.28
-171.11
-157.68
-141.7
-127.5
-117.86
-113.55
-113.65
-116.42
-120.26
-124.31
-128.38
-132.37
-135.68
-137.02
-134.92
-128.47
-117.94
-104.8
-91.14
-78.7
-68.21
-59.37
-51.45
-43.98
-37.16
-31.59
-27.87
-26.14
-25.94
-26.4
-26.67
-26.03
-24.19
-21.37
-18.34
-16.3
-16.58
-20.03
-26.43
-34.49
-42.2
-47.76
-50.12
-49.08
-44.92
-37.72
-27.13
-12.65
5.52
26.3
47.41
66.07
79.77
87.04
87.71
82.63
73.08
60.44
46.12
31.68
18.91
9.64
5.13
5.64
10.0
15.85
20.26
20.73
15.91
5.89
-7.96
-23.65
-39.0
-52.12
-61.43
-65.53
-63.48
-54.96
-40.5
-21.54
-0.34
20.76
39.92
56.22
69.62
80.6
89.62
96.92
102.55
106.65
109.57
111.82
113.62
114.69
114.17
110.91
103.94
92.97
78.6
62.21
45.75
31.08
19.66
12.19
8.61
8.34
11.02
16.53
25.14
37.23
52.76
71.06
90.72
109.93
126.8
139.72
147.71
150.62
149.19
144.71
138.64
131.93
124.47
115.19
102.56
85.67
65.03
42.6
20.82
1.41
-15.64
-32.12
-50.39
-72.14
-97.18
-123.25
-146.78
-164.39
-173.72
-174.17
-166.69
-153.0
-134.95
-114.1
-91.73
-69.08
-47.6
-29.01
-14.97
-6.56
-3.82
-5.88
-11.36
-19.04
-28.19
-38.42
-49.03
-58.55
-64.81
-65.71
-60.3
-49.46
-35.79
-22.6
-12.66
-7.33
-6.38
-8.44
-11.65
-14.19
-14.39
-10.81
-2.5
10.49
26.69
43.08
55.69
60.57
55.13
38.98
14.09
-15.66
-45.64
-71.49
-89.99
-99.33
-99.06
-89.94
-73.91
-53.89
-33.63
-17.09
-7.51
-6.52
-13.63
-26.35
-41.04
-54.08
-62.86
-66.27
-64.58
-58.93
-50.74
-41.21
-31.13
-20.74
-9.83
2.09
15.54
30.78
47.56
65.05
81.95
96.76
108.11
115.01
116.92
113.85
106.19
94.64
80.02
63.2
45.0
26.17
7.44
-10.53
-27.23
-42.25
-55.39
-66.46
-75.17
-80.77
-82.12
-77.82
-66.85
-49.14
-26.03
-0.15
25.32
47.42
64.26
75.18
80.49
80.88
76.76
68.19
55.2
38.49
19.67
1.12
-14.89
-27.32
-36.85
-45.67
-55.99
-68.83
-83.09
-95.78
-103.47
-103.79
-96.46
-83.08
-66.06
-47.47
-28.44
-9.31
9.72
28.08
44.8
58.78
69.38
76.55
80.62
81.87
80.15
75.01
66.02
53.43
38.37
22.95
9.75
1.15
-1.44
1.86
9.36
18.08
24.81
27.02
23.7
15.64
5.0
-5.6
-14.09
-19.65
-22.78
-24.84
-27.33
-31.3
-37.28
-45.4
-55.67
-67.9
-81.4
-94.68
-105.5
-111.58
-111.49
-105.32
-94.72
-82.1
-69.5
-57.93
-47.32
-37.19
-27.46
-18.88
-12.72
-10.17
-11.71
-17.08
-25.49
-36.02
-47.9
-60.38
-72.65
-83.65
-92.1
-96.63
-95.99
-89.23
-76.02
-56.91
-33.47
-8.08
16.56
38.11
55.18
67.34
74.89
78.4
78.32
74.99
68.7
59.96
49.48
38.01
26.12
14.11
2.22
-9.15
-19.13
-26.6
-30.47
-30.2
-26.1
-19.3
-11.39
-3.88
2.25
6.74
9.98
12.74
15.89
20.16
25.96
33.23
41.37
49.39
55.99
59.93
60.32
56.84
49.9
40.69
31.08
23.34
19.58
21.23
28.55
40.47
54.87
69.15
80.87
88.26
90.36
86.96
78.35
65.14
48.26
28.91
8.6
-10.97
-28.31
-42.49
-53.26
-60.79
-65.04
-65.33
-60.29
-48.59
-29.9
-5.67
21.01
46.33
67.03
81.36
89.22
91.63
89.95
85.37
78.89
71.48
64.15
57.71
52.39
47.63
42.33
35.24
25.64
13.74
0.67
-11.89
-22.18
-28.97
-31.85
-31.17
-27.7
-22.1
-14.6
-5.04
6.71
20.23
34.41
47.7
58.62
66.24
70.29
70.85
67.85
60.92
49.59
33.89
14.87
-5.3
-23.71
-37.4
-44.19
-43.1
-34.51
-20.08
-2.37
15.72
31.42
42.74
48.72
49.46
45.82
39.16
30.99
22.96
16.73
13.68
14.56
19.02
25.69
32.68
38.45
42.52
45.67
49.4
55.0
62.73
71.51
79.3
83.89
83.72
78.24
67.99
54.31
38.93
23.76
10.5
0.42
-5.99
-9.37
-11.5
-14.89
-21.88
-33.52
-48.74
-64.33
-75.81
-79.01
-71.59
-53.94
-28.98
-1.11
25.37
47.53
64.39
76.65
85.87
93.38
99.59
103.87
104.87
101.16
92.06
78.13
61.28
44.41
30.74
22.79
21.7
26.81
35.79
45.15
51.17
50.88
42.97
28.41
10.35
-6.72
-18.34
-21.7
-16.69
-6.03
5.74
14.08
16.15
11.54
1.98
-9.94
-22.05
-33.25
-43.27
-51.86
-58.31
-61.4
-60.13
-54.6
-46.23
-37.5
-30.88
-27.89
-28.66
-32.09
-36.68
-41.16
-45.04
-48.6
-52.61
-57.94
-65.12
-74.06
-83.8
-92.64
-98.33
-98.71
-92.26
-78.58
-58.43
-33.39
-5.4
23.64
51.95
77.88
99.88
116.58
126.94
130.61
128.03
120.33
109.03
95.68
81.54
67.37
53.4
39.52
25.44
10.9
-4.14
-19.45
-34.54
-48.78
-61.54
-72.25
-80.48
-85.84
-88.1
-87.17
-83.2
-76.49
-67.44
-56.54
-44.32
-31.42
-18.64
-6.87
3.12
10.9
16.56
20.67
24.11
27.75
32.13
37.22
42.47
46.9
49.4
48.95
44.88
36.97
25.44
10.93
-5.58
-22.69
-38.67
-51.64
-60.04
-63.27
-61.93
-57.77
-52.89
-48.7
-45.26
-41.19
-34.49
-23.63
-8.51
9.42
27.72
43.95
56.53
64.98
69.71
71.49
70.91
68.27
63.56
56.63
47.3
35.32
20.44
2.54
-18.08
-40.52
-63.1
-83.74
-100.4
-111.67
-117.09
-117.2
-113.16
-106.38
-98.18
-89.6
-81.31
-73.55
-66.04
-58.17
-49.27
-39.18
-28.51
-18.71
-11.55
-8.38
-9.45
-13.71
-19.23
-23.97
-26.41
-25.92
-22.58
-16.95
-9.83
-2.15
4.96
10.31
13.08
13.2
11.64
10.13
10.54
14.1
20.86
29.69
38.81
46.52
51.87
54.83
56.29
57.47
59.47
62.87
67.58
72.91
77.76
81.0
81.82
80.07
76.31
71.67
67.48
64.7
63.69
64.0
64.62
64.39
62.44
58.53
53.11
47.29
42.57
40.72
43.4
51.94
67.01
88.34
114.49
143.09
171.34
196.7
217.81
234.66
248.27
259.66
268.94
274.8
275.03
267.63
251.84
228.7
200.52
169.88
138.58
107.07
74.51
39.35
0.1
-43.8
-91.09
-138.19
-179.68
-209.55
-223.46
-220.45
-203.64
-179.06
-153.27
-130.87
-113.21
-98.67
-84.29
-67.52
-47.12
-23.19
3.42
31.49
59.41
84.87
104.88
116.42
117.26
106.86
86.42
58.21
24.42
-13.6
-55.19
-99.4
-143.81
-184.09
-214.73
-230.9
-230.34
-214.33
-187.1
-154.01
-119.49
-85.68
-52.56
-19.06
15.28
49.4
80.7
105.87
121.97
127.18
121.21
105.16
81.33
52.79
22.87
-5.42
-29.78
-48.95
-62.74
-71.85
-77.74
-82.45
-88.27
-97.18
-110.12
-126.37
-143.47
-157.75
-165.59
-164.74
-155.08
-138.57
-118.36
-97.52
-78.05
-60.48
-44.04
-27.35
-9.03
11.89
35.74
62.29
90.77
119.86
147.62
171.88
190.43
201.68
205.06
201.19
191.64
178.42
163.37
147.84
132.76
118.85
106.82
97.14
89.54
82.87
75.3
65.22
52.31
38.0
24.76
14.65
7.87
2.23
-5.86
-19.48
-39.5
-64.0
-89.36
-112.06
-130.33
-144.59
-156.82
-169.11
-182.64
-197.41
-212.72
-227.87
-242.57
-256.7
-269.88
-281.01
-288.52
-290.76
-286.84
-277.01
-262.66
-245.84
-228.65
-212.55
-198.16
-185.2
-172.77
-159.72
-145.17
-128.95
-111.76
-95.01
-80.15
-67.9
-57.83
-48.51
-38.16
-25.71
-11.3
3.57
16.62
25.51
28.64
25.59
17.18
5.28
-7.71
-19.44
-28.16
-33.05
-34.03
-31.35
-25.26
-16.06
-4.42
8.16
19.53
27.5
30.97
30.43
27.77
24.95
22.71
19.98
14.48
4.17
-11.31
-30.19
-49.3
-65.66
-77.89
-86.67
-94.09
-102.3
-112.4
-124.02
-135.64
-145.37
-151.53
-152.91
-148.61
-137.89
-120.42
-96.55
-67.81
-36.89
-7.06
18.65
38.28
51.19
57.93
59.88
58.85
56.71
55.08
54.91
56.1
57.36
56.72
52.46
44.16
33.3
22.75
15.44
12.88
14.4
17.49
19.09
17.2
11.56
3.51
-4.99
-12.5
-18.56
-23.63
-28.26
-32.68
-36.8
-40.71
-45.21
-51.78
-61.72
-75.2
-90.46
-103.84
-111.02
-108.57
-95.3
-72.8
-44.8
-15.68
11.03
33.58
51.95
67.18
80.38
91.95
101.55
108.28
110.98
108.58
100.29
86.03
67.04
46.19
27.69
16.18
14.95
24.58
42.51
63.75
82.73
95.17
99.23
95.52
86.29
74.26
61.85
50.95
42.96
38.78
38.62
41.61
45.78
48.55
47.54
41.71
31.94
21.02
12.65
10.12
15.06
26.86
43.05
60.38
75.92
87.95
96.04
100.7
102.71
102.58
100.43
96.06
89.29
80.1
68.79
55.94
42.44
29.53
18.69
11.5
9.07
11.65
18.37
27.35
36.24
42.98
46.56
47.31
46.6
45.98
46.34
47.38
47.73
45.71
40.21
31.4
20.63
9.99
1.57
-3.25
-3.96
-0.89
5.12
12.96
21.41
29.26
35.35
38.71
38.8
35.53
29.16
20.25
9.36
-3.12
-17.14
-32.8
-49.99
-67.9
-84.66
-97.5
-103.42
-100.27
-87.57
-66.78
-40.96
-13.73
11.7
33.23
49.98
62.02
69.9
74.23
75.45
73.83
69.36
61.77
50.58
35.34
16.1
-6.11
-29.02
-49.19
-62.81
-66.7
-59.48
-42.26
-18.37
7.59
31.29
50.0
63.12
71.66
77.1
80.17
80.41
76.49
67.22
52.55
33.83
13.73
-4.9
-19.66
-29.21
-33.08
-31.41
-24.72
-13.99
-0.97
11.76
21.23
24.86
21.37
11.19
-3.77
-20.92
-38.02
-53.75
-67.99
-81.46
-95.17
-109.8
-125.11
-139.77
-151.42
-157.22
-154.86
-143.51
-124.41
-100.53
-75.68
-53.53
-36.61
-26.15
-22.07
-23.43
-28.61
-35.46
-41.58
-44.86
-44.17
-39.89
-33.88
-28.91
-27.45
-30.61
-37.58
-45.91
-52.44
-54.44
-50.48
-40.67
-26.37
-9.4
8.55
26.26
42.94
57.99
70.88
81.06
88.12
91.79
91.98
88.65
81.89
71.99
59.84
47.06
35.86
28.53
26.58
30.13
37.75
46.98
55.28
60.83
62.89
61.5
56.91
49.26
38.61
25.34
10.37
-4.89
-19.14
-31.65
-42.5
-52.11
-60.61
-67.41
-71.22
-70.64
-64.8
-53.75
-38.39
-20.15
-0.71
18.05
34.14
45.55
50.67
48.84
40.65
27.83
12.75
-2.35
-16.08
-28.04
-38.49
-47.75
-55.71
-61.71
-65.01
-65.32
-63.31
-60.38
-58.01
-56.97
-56.88
-56.51
-54.54
-50.38
-44.47
-38.0
-32.31
-28.35
-26.6
-27.2
-30.17
-35.21
-41.46
-47.2
-50.2
-48.32
-40.33
-26.45
-8.18
12.29
32.77
51.8
68.73
83.55
96.37
106.89
114.19
116.82
113.22
102.31
84.02
59.43
30.7
0.75
-27.14
-49.65
-63.83
-67.64
-60.46
-43.5
-19.63
7.27
33.4
56.09
74.13
87.57
97.03
103.08
105.96
105.73
102.39
95.97
86.41
73.7
58.11
40.62
23.32
9.11
1.07
1.43
10.76
27.59
48.63
69.68
86.63
96.45
97.68
90.55
76.56
57.83
36.41
13.85
-9.03
-31.79
-53.97
-74.51
-91.5
-102.24
-104.05
-95.27
-76.19
-49.27
-18.5
11.97
39.13
61.74
79.98
94.34
104.74
110.37
110.31
104.48
94.16
81.54
68.7
56.7
45.27
33.39
20.36
6.57
-6.36
-16.23
-21.25
-20.77
-15.55
-7.32
1.78
9.79
15.09
16.46
12.99
4.27
-9.38
-26.89
-46.54
-66.35
-84.53
-99.57
-110.21
-115.23
-113.51
-104.34
-88.01
-66.11
-41.37
-16.9
4.74
22.3
35.95
46.82
56.19
64.81
72.57
78.65
81.88
81.21
75.93
65.82
51.09
32.38
10.88
-11.55
-32.43
-48.89
-58.27
-58.99
-51.14
-36.73
-19.18
-2.38
10.34
16.98
17.19
12.05
3.43
-6.51
-16.01
-24.04
-30.33
-35.14
-38.66
-40.67
-40.38
-36.91
-29.8
-19.42
-6.94
6.13
18.55
29.7
39.62
48.67
57.07
64.58
70.21
72.61
70.52
63.62
52.99
41.14
31.41
27.0
29.83
39.94
55.61
73.83
91.02
103.93
110.43
110.31
105.54
99.99
98.13
103.37
116.77
136.74
159.75
181.75
199.11
208.99
209.24
198.13
174.65
138.98
92.77
38.69
-20.41
-82.02
-143.77
-202.64
-254.39
-294.07
-317.56
-323.29
-313.37
-292.71
-267.31
-242.09
-219.73
-201.01
-185.97
-175.03
-169.07
-168.42
-171.63
-175.01
-173.51
-162.62
-140.41
-108.4
-71.15
-34.4
-2.96
20.9
37.66
49.57
59.04
67.35
74.28
78.7
79.59
76.8
71.23
64.35
57.58
51.87
47.63
45.23
45.11
47.83
53.61
61.87
71.16
79.47
84.92
86.22
83.1
76.0
65.81
53.47
39.69
24.91
9.15
-7.83
-26.44
-46.78
-68.27
-89.39
-107.75
-120.62
-125.7
-121.87
-109.79
-92.0
-72.41
-55.35
-44.33
-40.94
-44.56
-52.74
-62.44
-71.19
-77.95
-83.02
-87.55
-92.78
-99.32
-106.98
-114.64
-120.31
-121.43
-115.37
-100.39
-76.2
-44.36
-7.75
29.96
65.18
94.59
115.28
124.71
121.06
103.73
73.85
34.43
-10.22
-55.09
-95.43
-127.12
-147.0
-153.06
-144.74
-123.27
-91.75
-54.75
-17.48
15.21
39.63
53.84
57.67
52.42
40.39
24.33
6.87
-9.99
-25.12
-38.29
-49.81
-60.07
-68.93
-75.52
-78.31
-75.75
-66.9
-52.08
-32.83
-11.56
9.26
27.83
43.32
55.74
65.44
72.66
77.26
78.97
77.62
73.3
66.47
57.78
48.09
38.46
30.17
24.61
22.86
25.34
31.52
40.1
49.35
57.61
63.62
66.63
66.32
62.86
56.87
49.49
42.14
36.1
32.06
29.73
27.93
25.07
19.95
12.42
3.64
-4.19
-8.63
-7.86
-1.35
9.99
24.1
38.44
50.71
59.37
63.87
64.55
62.36
58.42
53.74
48.86
43.89
38.46
32.19
25.01
17.53
11.02
7.1
7.3
12.27
21.4
32.66
43.19
50.03
51.23
46.67
38.12
28.68
21.59
19.16
21.95
28.69
36.85
43.54
46.41
44.35
37.7
28.08
17.87
9.51
4.81
4.56
8.35
15.04
23.07
30.96
37.54
41.98
43.78
42.72
39.09
33.67
27.65
22.02
17.42
13.58
9.76
5.24
0.07
-4.64
-7.02
-5.24
1.45
12.24
24.88
36.55
44.85
48.54
47.79
43.62
37.47
30.56
23.79
17.72
12.66
8.72
5.75
3.32
0.85
-2.04
-5.18
-7.74
-8.39
-5.91
0.24
9.39
19.82
29.13
35.26
37.08
34.71
29.26
22.11
14.39
6.56
-1.37
-9.55
-17.91
-26.05
-33.38
-39.11
-42.59
-43.19
-40.53
-34.55
-25.71
-14.95
-3.69
6.66
15.01
20.86
24.34
25.93
26.2
25.53
24.08
21.8
18.62
14.46
9.24
2.93
-4.36
-12.22
-19.85
-26.08
-29.72
-29.93
-26.61
-20.45
-12.77
-5.06
1.43
6.03
8.64
9.62
9.59
9.11
8.63
8.38
8.35
8.31
7.9
6.68
4.37
0.95
-3.23
-7.53
-11.11
-13.27
-13.64
-12.37
-10.01
-7.32
-4.9
-3.12
-2.11
-1.91
-2.63
-4.38
-7.16
-10.73
-14.56
-18.05
-20.81
-22.77
-24.12
-25.13
-25.73
-25.55
-23.97
-20.48
-15.14
-8.67
-2.22
3.06
6.47
7.92
7.71
6.21
3.63
0.04
-4.49
-9.62
-14.75
-19.31
-22.98
-25.82
-28.1
-29.88
-30.71
-29.74
-26.15
-19.67
-10.89
-1.11
8.13
15.51
20.35
22.52
22.46
20.73
17.86
14.2
9.97
5.38
0.69
-3.79
-7.8
-11.22
-14.08
-16.44
-18.19
-18.9
-17.97
-14.91
-9.71
-3.03
3.96
9.99
14.12
15.93
15.54
13.44
10.26
6.7
3.4
0.82
-0.95
-2.29
-4.04
-7.15
-12.27
-19.34
-27.49
-35.3
-41.21
-44.15
-43.82
-40.67
-35.73
-30.11
-24.71
-20.07
-16.4
-13.69
-11.95
-11.14
-11.19
-11.9
-12.97
-14.1
-15.17
-16.37
-18.02
-20.31
-23.07
-25.67
-27.23
-27.12
-25.27
-22.31
-19.35
-17.46
-17.25
-18.62
-20.83
-22.83
-23.59
-22.41
-18.98
-13.43
-6.16
2.18
10.78
18.81
25.48
30.32
33.3
35.04
36.57
38.99
43.08
48.88
55.68
62.28
67.52
70.63
71.47
70.43
68.09
65.07
61.78
58.45
55.09
51.52
47.32
41.98
35.15
26.79
17.45
8.17
0.3
-4.88
-6.51
-4.45
0.7
7.72
15.17
21.68
26.32
28.65
28.62
26.48
22.54
17.23
11.08
4.81
-0.83
-5.2
-8.09
-9.8
-10.97
-12.17
-13.55
-14.67
-14.75
-13.03
-9.21
-3.56
3.09
9.73
15.43
19.62
22.14
23.11
22.76
21.19
18.33
13.97
7.94
0.27
-8.67
-18.22
-27.66
-36.43
-44.18
-50.69
-55.69
-58.66
-59.05
-56.44
-50.93
-43.27
-34.69
-26.57
-20.01
-15.56
-13.15
-12.3
-12.32
-12.67
-13.08
-13.62
-14.64
-16.39
-19.03
-22.38
-25.97
-29.29
-31.8
-33.05
-32.65
-30.25
-25.71
-19.29
-11.79
-4.4
1.62
5.4
6.76
6.19
4.48
2.4
0.44
-1.21
-2.55
-3.58
-4.36
-4.98
-5.65
-6.56
-7.77
-9.11
-10.09
-10.21
-9.14
-6.8
-3.51
0.21
3.75
6.47
7.81
7.37
5.08
1.38
-2.79
-6.28
-8.07
-7.76
-5.72
-3.0
-0.79
-0.02
-0.93
-3.01
-5.22
-6.44
-5.81
-3.08
1.39
6.77
12.0
16.17
18.68
19.31
18.27
15.89
12.59
8.82
5.02
1.64
-1.03
-2.83
-3.91
-4.58
-5.33
-6.55
-8.44
-10.82
-13.03
-14.11
-13.07
-9.34
-3.07
4.74
12.55
18.93
22.89
24.35
23.77
21.87
19.15
15.75
11.52
6.31
0.18
-6.57
-13.51
-20.28
-26.55
-32.0
-36.13
-38.21
-37.57
-33.81
-27.18
-18.63
-9.51
-1.2
5.31
9.67
12.12
13.24
13.58
13.52
13.18
12.48
11.31
9.47
6.66
2.56
-3.06
-10.04
-17.61
-24.38
-28.7
-29.19
-25.35
-17.81
-8.0
2.33
11.7
19.26
24.68
27.9
28.99
28.19
26.02
23.42
21.37
20.57
21.02
21.94
22.11
20.4
16.2
9.66
1.66
-6.54
-13.53
-18.23
-20.01
-18.96
-15.95
-12.35
-9.6
-8.7
-9.95
-12.89
-16.58
-20.04
-22.54
-23.74
-23.7
-22.75
-21.3
-19.75
-18.38
-17.42
-17.11
-17.59
-18.78
-20.14
-20.74
-19.57
-15.93
-9.85
-2.24
5.47
11.78
15.71
17.03
16.13
13.69
10.32
6.52
2.6
-1.17
-4.56
-7.46
-9.91
-12.11
-14.36
-16.9
-19.88
-23.2
-26.42
-28.74
-29.26
-27.21
-22.31
-14.96
-6.05
3.19
11.67
18.64
23.65
26.51
27.22
25.9
22.89
18.75
14.18
9.8
6.01
2.78
-0.22
-3.49
-7.46
-12.25
-17.5
-22.33
-25.55
-25.98
-22.87
-16.19
-6.75
4.06
14.73
24.01
31.24
36.27
39.29
40.61
40.46
39.01
36.48
33.19
29.58
26.01
22.67
19.42
15.9
11.66
6.51
0.76
-4.75
-8.84
-10.44
-8.95
-4.58
1.8
8.95
15.66
21.1
24.86
26.89
27.28
26.24
24.04
21.09
17.91
14.97
12.49
10.38
8.27
5.69
2.29
-2.01
-6.99
-12.15
-16.78
-20.07
-21.36
-20.35
-17.21
-12.61
-7.46
-2.6
1.41
4.36
6.25
7.16
7.09
6.1
4.29
1.91
-0.74
-3.42
-6.0
-8.46
-10.88
-13.36
-15.92
-18.48
-20.76
-22.27
-22.36
-20.47
-16.51
-10.99
-4.94
0.43
4.3
6.47
7.4
7.81
8.33
9.15
10.09
10.8
11.01
10.65
9.82
8.56
6.84
4.5
1.48
-1.96
-5.14
-7.14
-7.1
-4.64
-0.07
5.59
11.02
15.05
16.94
16.57
14.29
10.67
6.24
1.44
-3.43
-8.15
-12.5
-16.3
-19.41
-21.79
-23.62
-25.26
-27.24
-29.93
-33.2
-36.11
-37.18
-34.93
-28.54
-18.37
-5.84
7.16
18.95
28.54
35.66
40.42
42.92
43.09
40.89
36.53
30.75
24.61
19.18
15.16
12.66
11.2
10.02
8.36
5.95
3.03
0.34
-1.35
-1.55
-0.32
1.8
4.09
5.98
7.34
8.37
9.37
10.52
11.68
12.42
12.24
10.78
8.01
4.2
-0.19
-4.74
-9.2
-13.44
-17.37
-20.68
-22.77
-23.02
-20.97
-16.67
-10.77
-4.31
1.61
6.17
9.01
10.22
10.07
8.96
7.2
4.97
2.36
-0.61
-3.98
-7.79
-12.09
-16.98
-22.47
-28.42
-34.26
-39.01
-41.46
-40.68
-36.6
-30.19
-23.18
-17.25
-13.37
-11.36
-10.24
-8.94
-6.92
-4.39
-2.09
-0.71
-0.52
-1.34
-2.69
-4.16
-5.68
-7.42
-9.62
-12.3
-15.06
-17.13
-17.63
-15.91
-11.88
-6.15
0.13
5.72
9.73
11.91
12.61
12.49
12.17
11.93
11.73
11.33
10.41
8.88
6.84
4.61
2.49
0.6
-1.21
-3.31
-5.97
-9.22
-12.57
-15.19
-16.2
-15.04
-11.75
-7.04
-1.98
2.4
5.39
6.86
7.18
7.04
7.15
8.12
10.23
13.5
17.68
22.29
26.73
30.28
32.35
32.58
31.05
28.32
25.34
23.24
22.98
25.04
29.19
34.58
39.92
43.91
45.62
44.74
41.52
36.58
30.64
24.36
18.21
12.61
7.87
4.28
1.9
0.47
-0.65
-2.26
-5.08
-9.31
-14.56
-19.95
-24.45
-27.36
-28.46
-28.11
-26.93
-25.55
-24.41
-23.72
-23.59
-24.06
-25.16
-26.88
-29.09
-31.53
-33.9
-35.85
-37.14
-37.64
-37.42
-36.65
-35.49
-33.93
-31.81
-28.8
-24.7
-19.52
-13.65
-7.64
-2.03
2.87
7.01
10.45
13.15
14.88
15.3
14.14
11.43
7.46
2.74
-2.31
-7.49
-12.83
-18.37
-23.98
-29.17
-33.11
-34.94
-34.03
-30.32
-24.39
-17.27
-10.11
-3.79
1.26
5.09
7.95
10.1
11.63
12.49
12.66
12.22
11.36
10.18
8.6
6.3
2.91
-1.71
-7.21
-12.65
-16.8
-18.5
-17.15
-12.91
-6.7
0.18
6.55
11.61
15.2
17.62
19.27
20.38
20.95
20.98
20.56
19.98
19.47
18.98
18.12
16.33
13.38
9.64
6.14
4.05
4.16
6.34
9.62
12.67
14.48
14.69
13.59
11.66
9.13
5.89
1.69
-3.48
-9.24
-14.83
-19.28
-21.91
-22.51
-21.43
-19.45
-17.54
-16.53
-16.91
-18.52
-20.61
-22.07
-21.77
-19.13
-14.31
-8.16
-1.85
3.53
7.18
8.79
8.33
6.14
2.72
-1.44
-5.92
-10.55
-15.12
-19.47
-23.31
-26.36
-28.52
-30.0
-31.22
-32.48
-33.59
-33.78
-32.02
-27.52
-20.24
-11.06
-1.37
7.38
14.24
18.8
21.16
21.7
20.92
19.31
17.3
15.25
13.37
11.78
10.5
9.46
8.49
7.33
5.75
3.7
1.5
-0.07
-0.05
2.38
7.48
14.78
23.17
31.3
37.95
42.35
44.22
43.79
41.56
38.25
34.62
31.27
28.49
26.17
23.8
20.7
16.29
10.3
2.93
-5.1
-12.67
-18.54
-21.65
-21.44
-18.07
-12.4
-5.75
0.46
5.04
7.29
7.03
4.59
0.67
-3.86
-8.09
-11.39
-13.5
-14.7
-15.59
-16.92
-19.25
-22.76
-27.17
-31.75
-35.53
-37.44
-36.63
-32.65
-25.7
-16.56
-6.45
3.42
12.11
19.18
24.66
28.81
31.88
34.01
35.26
35.68
35.39
34.54
33.21
31.33
28.62
24.75
19.54
13.17
6.26
-0.28
-5.49
-8.63
-9.54
-8.52
-6.29
-3.71
-1.45
0.11
0.98
1.41
1.66
1.87
2.04
2.04
1.74
1.05
-0.05
-1.48
-3.09
-4.6
-5.64
-5.73
-4.44
-1.5
3.05
8.88
15.38
21.78
27.33
31.34
33.33
33.04
30.52
26.07
20.26
13.72
7.0
0.51
-5.48
-10.78
-15.23
-18.69
-21.21
-22.97
-24.36
-25.71
-27.13
-28.33
-28.63
-27.27
-23.72
-17.99
-10.71
-2.96
4.08
9.45
12.49
12.97
11.04
7.23
2.32
-2.68
-6.84
-9.56
-10.66
-10.48
-9.67
-9.07
-9.42
-11.15
-14.13
-17.59
-20.23
-20.56
-17.52
-10.94
-1.79
8.05
16.39
21.53
22.83
20.81
16.83
12.51
9.08
7.1
6.42
6.39
6.23
5.26
3.04
-0.59
-5.64
-11.86
-18.6
-24.89
-29.51
-31.45
-30.29
-26.44
-20.96
-15.14
-10.03
-6.13
-3.52
-1.96
-1.18
-0.93
-0.91
-0.79
-0.26
0.8
2.2
3.45
3.95
3.22
1.07
-2.24
-6.02
-9.37
-11.37
-11.44
-9.5
-6.1
-2.16
1.33
3.7
4.84
5.14
5.18
5.4
5.94
6.63
7.16
7.3
6.97
6.15
4.8
2.87
0.36
-2.5
-5.22
-7.06
-7.32
-5.58
-1.91
3.19
8.95
14.55
19.28
22.61
24.18
23.86
21.78
18.35
14.19
9.98
6.28
3.39
1.33
-0.06
-1.09
-2.09
-3.36
-5.13
-7.41
-9.88
-11.93
-12.74
-11.57
-8.04
-2.32
4.84
12.29
18.77
23.24
25.06
24.19
21.03
16.24
10.57
4.63
-1.17
-6.53
-11.18
-14.93
-17.74
-19.83
-21.65
-23.6
-25.77
-27.79
-28.89
-28.26
-25.51
-20.87
-15.14
-9.37
-4.4
-0.6
2.05
3.81
4.9
5.43
5.39
4.79
3.67
2.16
0.33
-1.84
-4.46
-7.63
-11.26
-14.91
-17.86
-19.4
-19.06
-16.83
-13.14
-8.55
-3.61
1.31
5.91
9.77
12.44
13.55
13.07
11.44
9.41
7.73
6.75
6.39
6.25
5.91
5.14
3.96
2.55
1.15
0.06
-0.45
-0.09
1.32
3.78
7.0
10.5
13.75
16.33
17.97
18.54
17.98
16.29
13.54
9.95
5.88
1.77
-2.02
-5.32
-8.22
-11.07
-14.25
-17.96
-22.03
-25.83
-28.48
-29.04
-26.84
-21.69
-14.03
-4.81
4.69
13.21
19.77
23.87
25.52
25.05
23.05
20.07
16.66
13.21
10.0
7.19
4.76
2.54
0.13
-2.85
-6.6
-10.95
-15.18
-18.32
-19.33
-17.67
-13.45
-7.49
-0.97
4.97
9.63
12.85
14.85
16.04
16.73
17.08
17.15
17.01
16.72
16.34
15.74
14.66
12.75
9.68
5.31
-0.09
-5.9
-11.19
-14.96
-16.47
-15.54
-12.63
-8.71
-4.89
-2.03
-0.51
-0.25
-0.84
-1.88
-3.15
-4.61
-6.3
-8.12
-9.88
-11.4
-12.66
-13.87
-15.3
-17.06
-18.84
-19.94
-19.52
-16.99
-12.32
-6.11
0.6
6.7
11.34
14.13
15.09
14.46
12.58
9.8
6.48
2.97
-0.42
-3.46
-6.12
-8.52
-10.89
-13.38
-15.93
-18.14
-19.41
-19.14
-16.93
-12.81
-7.24
-1.03
4.92
9.8
13.11
14.74
14.97
14.35
13.41
12.5
11.7
10.85
9.66
7.85
5.18
1.49
-3.36
-9.3
-15.91
-22.26
-27.05
-28.97
-27.25
-22.1
-14.69
-6.71
0.21
5.0
7.31
7.33
5.56
2.59
-0.94
-4.4
-7.19
-8.97
-9.76
-10.04
-10.52
-11.78
-14.0
-16.72
-19.03
-19.85
-18.4
-14.54
-8.75
-2.07
4.3
9.25
12.11
12.62
10.87
7.19
2.07
-4.0
-10.41
-16.49
-21.6
-25.26
-27.32
-28.03
-27.91
-27.56
-27.35
-27.2
-26.54
-24.52
-20.43
-14.03
-5.75
3.4
12.19
19.63
25.2
28.93
31.12
32.12
32.06
30.89
28.6
25.36
21.62
17.92
14.57
11.48
8.23
4.39
-0.09
-4.69
-8.4
-10.16
-9.29
-5.78
-0.26
6.23
12.56
17.79
21.38
23.23
23.59
22.95
21.77
20.39
18.92
17.24
15.15
12.48
9.12
5.07
0.47
-4.28
-8.55
-11.44
-12.02
-9.73
-4.75
1.88
8.51
13.49
15.71
14.99
12.07
8.2
4.64
2.29
1.47
1.95
3.23
4.71
5.87
6.33
5.87
4.42
2.14
-0.58
-3.02
-4.27
-3.49
-0.2
5.38
12.3
19.04
24.11
26.47
25.88
22.9
18.53
13.82
9.54
6.0
3.11
0.57
-1.94
-4.66
-7.72
-11.25
-15.28
-19.76
-24.28
-28.06
-29.98
-28.92
-24.28
-16.32
-6.28
4.03
12.82
18.9
21.95
22.42
21.12
18.83
16.16
13.42
10.8
8.36
6.04
3.64
0.85
-2.62
-6.92
-11.76
-16.46
-20.03
-21.5
-20.29
-16.5
-10.88
-4.46
1.78
7.28
11.9
15.7
18.65
20.54
21.02
19.87
17.31
14.0
10.84
8.58
7.6
7.81
8.65
9.29
8.84
6.73
2.98
-1.71
-6.0
-8.47
-8.13
-4.91
0.35
6.19
11.12
14.14
15.0
14.0
11.73
8.73
5.35
1.8
-1.8
-5.33
-8.72
-11.9
-14.88
-17.67
-20.23
-22.39
-23.75
-23.77
-21.95
-17.96
-11.88
-4.26
4.0
11.88
18.47
23.17
25.7
26.13
24.71
21.8
17.86
13.34
8.76
4.49
0.81
-2.27
-4.94
-7.51
-10.29
-13.37
-16.48
-18.94
-19.8
-18.16
-13.61
-6.51
2.02
10.43
17.31
21.85
24.02
24.29
23.29
21.45
18.83
15.28
10.68
5.18
-0.85
-6.93
-12.71
-18.11
-23.23
-28.16
-32.78
-36.68
-39.16
-39.55
-37.51
-33.24
-27.45
-21.13
-15.1
-9.85
-5.41
-1.68
1.36
3.52
4.54
4.22
2.75
0.65
-1.4
-2.84
-3.47
-3.53
-3.51
-3.95
-5.11
-6.83
-8.59
-9.69
-9.51
-7.72
-4.48
-0.35
3.86
7.35
9.65
10.68
10.82
10.59
10.46
10.54
10.67
10.54
9.98
9.11
8.27
7.72
7.38
6.69
4.93
1.72
-2.59
-6.85
-9.65
-9.9
-7.42
-3.03
1.8
5.59
7.4
7.08
5.2
2.64
0.18
-1.74
-3.14
-4.29
-5.53
-7.03
-8.71
-10.41
-11.95
-13.44
-15.18
-17.4
-19.94
-22.09
-22.72
-20.77
-15.83
-8.43
0.07
8.02
14.03
17.49
18.52
17.73
15.81
13.19
10.11
6.67
3.05
-0.43
-3.46
-5.94
-8.09
-10.31
-12.97
-16.03
-18.92
-20.67
-20.26
-17.03
-10.98
-2.77
6.4
15.15
22.26
26.88
28.66
27.8
24.91
20.85
16.52
12.55
9.17
6.2
3.28
0.02
-3.74
-8.04
-12.67
-17.33
-21.54
-24.65
-25.88
-24.63
-20.8
-15.04
-8.65
-3.01
0.97
3.26
4.56
5.76
7.33
9.02
10.1
9.95
8.48
6.2
3.83
1.8
-0.05
-2.31
-5.52
-9.67
-14.04
-17.41
-18.58
-16.96
-12.75
-7.01
-1.13
3.7
6.9
8.68
9.73
10.82
12.41
14.46
16.5
18.01
18.61
18.27
17.18
15.58
13.66
11.41
8.72
5.41
1.43
-2.97
-7.24
-10.61
-12.34
-12.03
-9.85
-6.49
-2.91
0.01
1.78
2.3
1.75
0.37
-1.66
-4.2
-7.0
-9.67
-11.79
-13.05
-13.38
-13.06
-12.6
-12.48
-12.97
-13.94
-14.84
-14.81
-13.06
-9.13
-3.19
4.02
11.36
17.69
22.2
24.58
24.93
23.58
20.83
16.91
12.1
6.74
1.29
-3.82
-8.46
-12.81
-17.43
-22.77
-28.76
-34.52
-38.56
-39.3
-35.85
-28.43
-18.37
-7.55
2.27
10.01
15.47
18.97
21.0
21.87
21.72
20.72
19.17
17.42
15.66
13.76
11.29
7.75
2.89
-3.09
-9.54
-15.51
-19.96
-22.07
-21.33
-17.64
-11.45
-3.62
4.67
12.23
18.16
22.13
24.29
25.12
25.06
24.36
23.08
21.2
18.77
15.87
12.5
8.51
3.67
-2.08
-8.36
-14.26
-18.59
-20.26
-18.75
-14.38
-8.16
-1.5
4.38
8.63
10.96
11.53
10.77
9.15
7.03
4.63
2.02
-0.73
-3.5
-6.06
-8.19
-9.69
-10.53
-10.86
-10.93
-10.94
-10.85
-10.37
-9.02
-6.3
-2.01
3.61
9.9
15.97
21.02
24.57
26.5
26.93
26.09
24.13
21.15
17.28
12.87
8.38
4.39
1.38
-0.53
-1.61
-2.45
-3.65
-5.57
-8.08
-10.66
-12.55
-13.06
-11.81
-8.87
-4.64
0.3
5.31
9.82
13.34
15.48
16.01
15.01
12.81
9.9
6.86
3.99
1.33
-1.42
-4.66
-8.67
-13.41
-18.33
-22.76
-26.05
-27.82
-28.04
-26.85
-24.34
-20.48
-15.26
-8.92
-2.07
4.31
9.35
12.57
14.07
14.35
13.98
13.2
11.96
10.11
7.69
5.06
2.68
0.76
-1.02
-3.34
-6.84
-11.63
-17.06
-21.85
-24.61
-24.45
-21.26
-15.8
-9.3
-2.99
2.24
6.12
8.77
10.44
11.3
11.32
10.41
8.64
6.41
4.38
3.17
3.08
3.82
4.7
4.97
4.3
3.01
1.88
1.79
3.19
5.84
8.95
11.54
12.89
12.81
11.62
9.85
7.98
6.21
4.51
2.75
0.89
-0.98
-2.66
-3.95
-4.84
-5.48
-6.2
-7.33
-8.96
-10.87
-12.5
-13.16
-12.32
-9.81
-5.94
-1.44
2.84
6.14
7.97
8.18
6.9
4.46
1.27
-2.32
-6.04
-9.72
-13.22
-16.36
-18.9
-20.68
-21.77
-22.53
-23.48
-24.99
-26.91
-28.54
-28.8
-26.78
-22.21
-15.66
-8.33
-1.52
3.84
7.39
9.27
9.83
9.37
8.04
5.93
3.2
0.12
-2.97
-5.79
-8.2
-10.29
-12.33
-14.66
-17.54
-20.88
-24.2
-26.61
-27.19
-25.21
-20.55
-13.72
-5.69
2.45
9.87
16.06
20.86
24.29
26.42
27.4
27.5
27.12
26.7
26.5
26.5
26.35
25.54
23.62
20.35
15.83
10.48
4.95
-0.01
-3.62
-5.35
-5.0
-2.78
0.82
5.14
9.6
13.75
17.3
19.99
21.55
21.75
20.45
17.78
14.11
9.97
5.88
2.13
-1.19
-4.29
-7.45
-10.89
-14.57
-18.17
-20.99
-22.29
-21.49
-18.43
-13.49
-7.42
-1.14
4.55
9.18
12.54
14.65
15.55
15.31
14.03
11.94
9.41
6.92
4.91
3.66
3.15
3.09
3.02
2.52
1.38
-0.27
-1.93
-2.9
-2.51
-0.37
3.46
8.48
13.88
18.8
22.55
24.8
25.57
25.18
24.06
22.6
21.03
19.36
17.53
15.35
12.63
9.16
4.81
-0.53
-6.87
-14.02
-21.57
-28.84
-34.91
-38.87
-40.0
-38.12
-33.63
-27.43
-20.77
-14.79
-10.29
-7.62
-6.71
-7.35
-9.36
-12.66
-17.21
-22.78
-28.95
-35.08
-40.56
-44.98
-48.28
-50.69
-52.37
-53.23
-52.67
-49.71
-43.33
-32.83
-18.17
-0.04
20.31
41.4
61.72
79.96
95.11
106.49
113.86
117.41
117.82
116.03
113.0
109.41
105.4
100.63
94.5
86.5
76.49
64.83
52.28
39.81
28.33
18.64
11.32
6.66
4.71
5.11
7.11
9.67
11.64
12.07
10.46
6.8
1.56
-4.54
-10.75
-16.46
-21.28
-25.09
-28.03
-30.42
-32.7
-35.27
-38.37
-41.97
-45.75
-49.12
-51.41
-52.04
-50.68
-47.3
-42.2
-35.88
-28.95
-22.03
-15.7
-10.47
-6.75
-4.78
-4.55
-5.91
-8.44
-11.62
-14.84
-17.48
-19.04
-19.26
-18.18
-16.17
-13.84
-11.79
-10.43
-9.77
-9.4
-8.72
-7.15
-4.38
-0.55
3.91
8.36
12.21
15.11
17.01
18.09
18.61
18.86
18.96
18.89
18.5
17.52
15.72
12.99
9.42
5.26
0.88
-3.44
-7.53
-11.31
-14.67
-17.39
-19.07
-19.32
-17.86
-14.78
-10.46
-5.58
-0.87
3.05
5.76
7.1
7.14
6.13
4.41
2.31
0.08
-2.22
-4.67
-7.38
-10.45
-13.88
-17.53
-21.26
-24.79
-27.7
-29.36
-29.08
-26.32
-21.03
-13.81
-5.78
1.8
7.98
12.38
15.18
16.81
17.64
17.85
17.43
16.44
15.05
13.55
12.16
10.97
9.84
8.59
7.11
5.44
3.88
2.84
2.7
3.74
5.9
8.82
11.91
14.61
16.59
17.82
18.54
19.05
19.38
19.22
18.12
15.6
11.53
6.25
0.37
-5.49
-10.88
-15.77
-20.4
-25.17
-30.5
-36.58
-43.31
-50.17
-56.38
-61.09
-63.67
-64.01
-62.55
-60.05
-57.28
-54.63
-52.14
-49.68
-47.28
-45.39
-44.78
-46.14
-49.69
-55.02
-61.21
-67.34
-72.81
-77.59
-82.11
-86.93
-92.37
-98.32
-104.07
-108.58
-110.59
-108.94
-102.74
-91.52
-75.43
-55.18
-31.95
-7.2
17.81
42.29
66.04
89.28
112.27
134.64
155.17
171.63
181.47
182.55
174.13
157.15
133.99
107.67
80.93
55.84
33.78
15.96
3.74
-1.47
1.22
11.41
26.96
44.3
59.49
69.32
72.24
68.5
59.61
47.6
34.3
21.08
8.87
-1.64
-9.99
-15.94
-19.58
-21.52
-22.64
-23.98
-26.28
-29.71
-33.77
-37.53
-39.98
-40.54
-39.31
-36.92
-34.31
-32.13
-30.49
-28.93
-26.72
-23.33
-18.74
-13.52
-8.53
-4.52
-1.88
-0.53
-0.05
0.12
0.39
1.01
2.01
3.26
4.4
5.0
4.54
2.76
-0.17
-3.57
-6.42
-7.74
-7.07
-4.62
-1.26
1.91
3.91
4.29
3.08
0.7
-2.34
-5.61
-8.86
-12.03
-15.16
-18.32
-21.49
-24.45
-26.83
-28.16
-28.01
-26.13
-22.52
-17.39
-11.18
-4.51
1.88
7.24
11.0
12.84
12.82
11.3
8.82
5.89
2.91
0.09
-2.53
-5.01
-7.5
-10.15
-13.1
-16.39
-19.79
-22.84
-24.86
-25.2
-23.4
-19.47
-13.81
-7.19
-0.49
5.53
10.34
13.72
15.67
16.37
16.1
15.13
13.76
12.24
10.72
9.25
7.75
5.99
3.68
0.51
-3.66
-8.59
-13.6
-17.59
-19.33
-17.9
-12.95
-4.99
4.9
15.34
25.06
33.15
39.27
43.4
45.8
46.88
47.1
46.99
47.08
47.7
48.73
49.29
47.8
42.49
32.19
17.05
-1.17
-19.55
-35.0
-45.22
-49.31
-47.81
-42.0
-33.39
-23.31
-12.97
-3.6
3.33
6.54
5.41
0.68
-5.4
-9.68
-9.19
-2.29
10.43
26.27
41.08
50.55
51.67
43.55
27.65
7.32
-13.26
-30.26
-41.2
-45.48
-44.27
-39.85
-34.63
-30.36
-27.8
-26.95
-27.48
-28.82
-30.13
-30.21
-27.61
-21.29
-11.15
1.65
14.89
26.13
33.65
36.94
36.59
33.86
29.93
25.84
22.41
20.44
20.72
23.87
30.0
38.41
47.52
55.08
58.82
57.21
50.2
39.4
27.52
17.33
10.43
6.87
5.28
3.93
1.71
-1.43
-4.75
-7.5
-9.41
-10.78
-12.07
-13.48
-14.71
-15.3
-14.92
-13.55
-11.65
-9.87
-8.83
-8.98
-10.59
-13.75
-18.46
-24.5
-31.38
-38.3
-44.07
-47.33
-46.99
-42.64
-34.92
-25.5
-16.64
-10.18
-6.98
-6.54
-7.37
-7.79
-6.7
-3.85
0.3
5.06
9.95
14.8
19.53
23.83
27.07
28.46
27.34
23.65
18.04
11.73
6.13
2.36
0.84
1.29
2.8
4.26
4.79
4.11
2.58
1.09
0.7
2.17
5.7
10.85
16.71
22.34
27.08
30.63
33.01
34.24
34.15
32.5
29.14
24.32
18.64
12.93
7.83
3.54
-0.2
-3.94
-8.23
-13.35
-19.31
-25.75
-32.07
-37.41
-40.86
-41.71
-39.74
-35.37
-29.5
-23.21
-17.32
-12.1
-7.38
-2.79
1.89
6.58
10.95
14.59
17.24
18.86
19.61
19.67
19.14
18.0
16.08
13.15
9.09
4.1
-1.18
-5.73
-8.43
-8.53
-5.96
-1.41
3.98
9.02
12.92
15.45
16.7
16.94
16.32
14.95
12.95
10.58
8.23
6.2
4.58
3.21
1.73
-0.21
-2.82
-6.1
-9.83
-13.63
-17.02
-19.51
-20.69
-20.4
-18.81
-16.42
-13.95
-12.15
-11.55
-12.29
-14.13
-16.56
-18.94
-20.75
-21.71
-21.77
-20.98
-19.43
-17.31
-14.91
-12.77
-11.52
-11.57
-12.78
-14.35
-15.0
-13.54
-9.33
-2.6
5.68
14.23
21.84
27.67
31.35
32.89
32.58
30.96
28.66
26.3
24.35
23.02
22.27
21.86
21.46
20.76
19.48
17.4
14.42
10.76
6.94
3.71
1.89
2.0
4.09
7.74
12.09
16.18
19.16
20.48
19.98
17.87
14.56
10.47
5.99
1.32
-3.36
-7.9
-12.04
-15.53
-18.25
-20.33
-22.16
-24.2
-26.61
-29.08
-30.83
-30.92
-28.66
-23.9
-17.13
-9.23
-1.14
6.38
12.89
18.18
22.19
24.89
26.27
26.38
25.34
23.4
20.85
17.95
14.82
11.36
7.28
2.27
-3.67
-10.06
-15.85
-19.72
-20.57
-17.95
-12.29
-4.73
3.32
10.6
16.31
20.17
22.26
22.86
22.26
20.75
18.59
16.04
13.36
10.77
8.35
6.01
3.43
0.19
-4.07
-9.35
-15.17
-20.59
-24.52
-26.08
-25.0
-21.7
-17.11
-12.33
-8.32
-5.69
-4.63
-5.03
-6.52
-8.6
-10.73
-12.42
-13.32
-13.26
-12.3
-10.69
-8.84
-7.24
-6.35
-6.46
-7.51
-9.04
-10.21
-10.1
-8.08
-4.08
1.25
6.81
11.4
14.16
14.86
13.84
11.78
9.3
6.79
4.36
1.97
-0.38
-2.55
-4.39
-5.84
-7.03
-8.31
-10.04
-12.39
-15.08
-17.42
-18.5
-17.57
-14.35
-9.22
-3.07
3.09
8.51
12.89
16.33
19.09
21.23
22.51
22.46
20.68
17.09
12.04
6.21
0.33
-5.01
-9.63
-13.6
-17.21
-20.63
-23.73
-26.05
-26.97
-26.0
-22.97
-18.2
-12.33
-6.16
-0.4
4.53
8.44
11.42
13.65
15.31
16.46
17.07
17.0
16.12
14.44
12.09
9.26
6.16
2.8
-0.87
-4.98
-9.45
-13.96
-17.96
-20.88
-22.38
-22.51
-21.64
-20.25
-18.63
-16.71
-14.22
-10.94
-6.96
-2.78
0.91
3.53
4.98
5.54
5.74
5.95
6.25
6.39
6.03
4.94
3.12
0.79
-1.72
-3.99
-5.56
-5.89
-4.5
-1.14
4.02
10.31
16.72
22.27
26.22
28.34
28.71
27.63
25.39
22.26
18.53
14.57
10.79
7.52
4.85
2.63
0.49
-1.96
-4.99
-8.62
-12.54
-16.19
-18.83
-19.73
-18.37
-14.69
-9.18
-2.73
3.61
9.03
13.06
15.64
16.93
17.11
16.31
14.63
12.26
9.51
6.75
4.27
2.16
0.3
-1.6
-3.82
-6.5
-9.58
-12.76
-15.59
-17.48
-17.88
-16.46
-13.24
-8.62
-3.31
1.96
6.57
10.24
12.92
14.73
15.75
15.95
15.3
13.84
11.82
9.62
7.66
6.17
5.14
4.33
3.36
1.88
-0.38
-3.48
-7.27
-11.35
-15.19
-18.13
-19.65
-19.52
-17.86
-15.11
-11.84
-8.63
-5.87
-3.82
-2.57
-2.15
-2.48
-3.36
-4.47
-5.44
-5.98
-5.95
-5.4
-4.55
-3.74
-3.36
-3.71
-4.95
-6.95
-9.24
-11.13
-11.87
-10.91
-8.16
-3.96
1.02
6.05
10.58
14.37
17.38
19.6
20.96
21.29
20.53
18.9
16.84
14.93
13.51
12.58
11.75
10.53
8.51
5.57
1.91
-2.06
-5.81
-8.79
-10.48
-10.49
-8.73
-5.54
-1.64
2.04
4.66
5.65
4.77
2.02
-2.41
-8.25
-15.02
-22.07
-28.68
-34.19
-38.28
-40.96
-42.62
-43.75
-44.77
-45.87
-46.9
-47.39
-46.67
-43.99
-38.87
-31.23
-21.55
-10.72
0.19
10.26
18.86
25.74
30.84
34.17
35.7
35.49
33.7
30.68
26.86
22.65
18.33
13.94
9.45
4.75
-0.19
-5.32
-10.46
-15.27
-19.24
-21.77
-22.41
-20.99
-17.78
-13.36
-8.44
-3.63
0.68
4.23
6.79
8.15
8.14
6.81
4.61
2.21
0.4
-0.27
0.37
2.03
4.08
5.7
6.08
4.67
1.43
-3.11
-7.89
-11.63
-13.27
-12.29
-8.8
-3.44
2.93
9.58
15.93
21.55
26.07
29.15
30.46
29.94
27.85
24.72
21.29
18.22
15.93
14.43
13.34
12.06
9.98
6.75
2.44
-2.44
-7.09
-10.58
-12.16
-11.42
-8.43
-3.74
1.76
7.1
11.52
14.68
16.68
17.89
18.67
19.21
19.41
19.03
17.9
16.1
13.88
11.61
9.56
7.74
5.96
3.89
1.25
-2.11
-6.03
-10.09
-13.68
-16.14
-17.02
-16.18
-13.92
-10.74
-7.23
-3.83
-0.81
1.7
3.52
4.47
4.38
3.28
1.49
-0.44
-1.98
-2.84
-3.08
-3.03
-3.14
-3.8
-5.2
-7.32
-9.92
-12.62
-14.9
-16.26
-16.31
-14.97
-12.46
-9.22
-5.75
-2.46
0.4
2.67
4.25
5.07
5.16
4.69
3.95
3.27
2.86
2.72
2.72
2.58
2.05
0.85
-1.19
-4.07
-7.51
-10.88
-13.27
-13.75
-11.81
-7.52
-1.59
4.9
10.86
15.53
18.52
19.82
19.58
17.99
15.29
11.81
7.93
4.07
0.59
-2.35
-4.82
-7.02
-9.2
-11.6
-14.25
-16.98
-19.4
-20.94
-21.01
-19.21
-15.42
-9.94
-3.4
3.43
9.8
15.13
19.08
21.54
22.5
22.04
20.28
17.43
13.8
9.82
5.91
2.37
-0.73
-3.53
-6.36
-9.47
-12.87
-16.25
-18.98
-20.37
-19.95
-17.66
-13.9
-9.3
-4.56
-0.21
3.56
6.81
9.67
12.19
14.2
15.33
15.22
13.79
11.32
8.35
5.47
2.97
0.78
-1.51
-4.35
-7.94
-12.12
-16.42
-20.14
-22.62
-23.35
-22.08
-18.94
-14.43
-9.32
-4.45
-0.37
2.74
5.06
6.89
8.46
9.78
10.72
11.22
11.33
11.26
11.15
10.91
10.2
8.6
5.8
1.8
-3.06
-8.17
-12.83
-16.39
-18.31
-18.25
-16.15
-12.27
-7.11
-1.39
4.14
8.85
12.29
14.22
14.56
13.35
10.79
7.26
3.28
-0.56
-3.81
-6.23
-7.94
-9.32
-10.92
-13.19
-16.38
-20.35
-24.56
-28.16
-30.27
-30.27
-28.02
-23.96
-18.92
-13.85
-9.53
-6.38
-4.42
-3.39
-2.89
-2.48
-1.79
-0.61
1.13
3.3
5.67
7.94
9.8
10.99
11.28
10.51
8.79
6.56
4.56
3.61
4.26
6.56
9.97
13.69
16.99
19.51
21.29
22.48
23.19
23.25
22.39
20.41
17.46
13.96
10.47
7.48
5.18
3.4
1.78
-0.1
-2.44
-5.07
-7.49
-8.99
-8.98
-7.17
-3.75
0.72
5.49
9.85
13.32
15.61
16.61
16.35
14.93
12.55
9.51
6.09
2.59
-0.87
-4.23
-7.53
-10.84
-14.23
-17.76
-21.36
-24.8
-27.61
-29.09
-28.56
-25.57
-20.16
-12.85
-4.54
3.78
11.28
17.35
21.63
23.94
24.25
22.79
19.99
16.51
12.94
9.67
6.74
3.88
0.73
-2.95
-7.17
-11.73
-16.23
-20.15
-22.92
-23.96
-22.9
-19.68
-14.68
-8.62
-2.35
3.39
8.15
11.74
14.14
15.4
15.61
14.86
13.34
11.28
8.9
6.4
3.88
1.4
-1.07
-3.73
-6.88
-10.82
-15.63
-20.89
-25.71
-28.98
-29.82
-28.06
-24.29
-19.64
-15.28
-11.92
-9.66
-8.19
-7.08
-6.08
-5.21
-4.63
-4.42
-4.46
-4.49
-4.29
-3.8
-3.24
-2.97
-3.41
-4.86
-7.38
-10.8
-14.69
-18.47
-21.44
-22.95
-22.51
-20.02
-15.82
-10.64
-5.3
-0.43
3.68
7.16
10.28
13.21
15.88
18.09
19.65
20.64
21.33
22.08
23.0
23.89
24.33
23.84
22.18
19.4
15.8
11.79
7.86
4.51
2.25
1.48
2.37
4.76
8.14
11.81
15.14
17.65
19.13
19.49
18.7
16.73
13.67
9.79
5.62
1.78
-1.18
-3.02
-3.93
-4.45
-5.23
-6.85
-9.53
-13.09
-16.93
-20.19
-21.99
-21.66
-18.97
-14.12
-7.77
-0.73
6.17
12.23
17.01
20.24
21.77
21.61
19.9
16.97
13.39
9.82
6.9
5.06
4.41
4.69
5.37
5.82
5.51
4.23
2.12
-0.27
-2.21
-2.92
-1.84
1.16
5.82
11.54
17.59
23.23
27.92
31.25
32.98
32.96
31.22
27.94
23.51
18.51
13.56
9.15
5.5
2.54
-0.06
-2.72
-5.82
-9.54
-13.85
-18.44
-22.78
-26.19
-27.97
-27.67
-25.15
-20.65
-14.72
-8.0
-1.11
5.44
11.27
16.05
19.48
21.33
21.53
20.34
18.26
15.91
13.79
12.09
10.6
8.88
6.47
3.11
-1.14
-5.88
-10.5
-14.33
-16.73
-17.24
-15.68
-12.18
-7.2
-1.47
4.17
8.97
12.41
14.23
14.51
13.56
11.83
9.82
7.95
6.47
5.4
4.61
3.83
2.86
1.53
-0.26
-2.57
-5.47
-8.9
-12.58
-15.91
-18.08
-18.33
-16.26
-12.07
-6.47
-0.53
4.72
8.62
10.93
11.8
11.51
10.34
8.48
6.09
3.41
0.83
-1.21
-2.44
-2.83
-2.7
-2.58
-3.02
-4.33
-6.49
-9.16
-11.76
-13.66
-14.34
-13.53
-11.28
-7.91
-3.97
-0.02
3.55
6.58
9.13
11.26
12.88
13.7
13.37
11.74
9.02
5.79
2.76
0.46
-0.93
-1.61
-1.99
-2.47
-3.35
-4.83
-6.95
-9.57
-12.31
-14.55
-15.58
-14.9
-12.46
-8.76
-4.63
-0.93
1.64
2.74
2.31
0.43
-2.67
-6.62
-10.82
-14.46
-16.73
-16.92
-14.72
-10.23
-4.07
2.78
9.15
13.99
16.73
17.48
16.99
16.34
16.47
17.71
19.79
21.95
23.38
23.56
22.35
19.88
16.35
11.92
6.71
0.96
-4.84
-10.07
-14.14
-16.72
-17.91
-18.16
-18.16
-18.57
-19.8
-21.93
-24.64
-27.33
-29.24
-29.69
-28.28
-25.0
-20.14
-14.27
-7.96
-1.76
3.88
8.58
12.01
13.96
14.45
13.74
12.32
10.75
9.42
8.49
7.87
7.27
6.39
4.98
2.87
0.14
-2.87
-5.56
-7.19
-7.15
-5.22
-1.66
2.84
7.44
11.46
14.53
16.56
17.59
17.63
16.56
14.3
10.89
6.6
1.92
-2.64
-6.74
-10.29
-13.48
-16.57
-19.76
-23.01
-26.02
-28.33
-29.48
-29.1
-27.05
-23.45
-18.68
-13.31
-8.08
-3.64
-0.42
1.51
2.46
2.9
3.22
3.55
3.78
3.69
3.15
2.29
1.33
0.52
-0.1
-0.77
-1.82
-3.5
-5.77
-8.25
-10.36
-11.54
-11.46
-10.12
-7.82
-5.0
-2.08
0.64
2.98
4.84
6.12
6.73
6.66
5.97
4.92
3.87
3.14
2.88
2.93
2.87
2.13
0.26
-2.89
-7.02
-11.54
-15.68
-18.67
-19.97
-19.34
-16.85
-12.9
-8.03
-2.79
2.39
7.28
11.77
15.81
19.24
21.82
23.36
23.9
23.76
23.47
23.49
23.99
24.77
25.33
25.18
24.0
21.74
18.71
15.49
12.8
11.33
11.56
13.51
16.7
20.22
23.05
24.37
23.75
21.28
17.32
12.4
7.05
1.79
-2.92
-6.7
-9.48
-11.64
-13.94
-17.39
-22.75
-30.26
-39.49
-49.43
-58.76
-66.16
-70.53
-71.1
-67.64
-60.54
-50.85
-40.07
-29.8
-21.24
-14.86
-10.39
-7.18
-4.65
-2.57
-1.15
-0.66
-1.16
-2.34
-3.57
-4.18
-3.82
-2.54
-0.83
0.59
1.08
0.34
-1.29
-2.98
-3.61
-2.27
1.31
6.69
12.91
18.98
24.3
28.85
32.92
36.81
40.48
43.49
45.24
45.31
43.68
40.77
37.23
33.65
30.37
27.4
24.42
21.0
16.82
11.86
6.6
1.88
-1.41
-2.69
-1.96
0.19
2.88
5.23
6.78
7.45
7.44
6.89
5.77
3.88
1.1
-2.43
-6.27
-9.96
-13.19
-15.96
-18.49
-20.97
-23.45
-25.83
-27.91
-29.58
-30.81
-31.54
-31.5
-30.2
-27.13
-22.09
-15.43
-7.93
-0.53
6.1
11.76
16.64
20.93
24.59
27.21
28.26
27.44
24.93
21.35
17.45
13.76
10.34
6.9
3.04
-1.48
-6.58
-11.89
-16.81
-20.68
-23.01
-23.56
-22.5
-20.3
-17.63
-15.06
-12.93
-11.27
-10.01
-9.14
-8.81
-9.24
-10.49
-12.25
-13.93
-14.88
-14.71
-13.59
-12.16
-11.29
-11.79
-14.06
-18.05
-23.24
-28.91
-34.22
-38.35
-40.51
-40.11
-36.85
-30.88
-22.88
-13.9
-5.14
2.44
8.3
12.37
14.95
16.45
17.24
17.61
17.68
17.48
16.93
15.8
13.73
10.36
5.49
-0.78
-7.96
-15.14
-21.23
-25.2
-26.41
-24.78
-20.84
-15.47
-9.64
-4.13
0.61
4.38
7.13
8.87
9.58
9.28
8.06
6.16
3.86
1.47
-0.84
-3.18
-5.86
-9.28
-13.76
-19.34
-25.61
-31.83
-36.97
-40.06
-40.31
-37.29
-30.94
-21.64
-10.07
2.84
16.04
28.56
39.6
48.6
55.27
59.51
61.47
61.53
60.22
58.2
56.01
53.91
51.84
49.47
46.41
42.39
37.42
31.76
25.85
20.15
15.16
11.31
8.98
8.35
9.36
11.61
14.38
16.88
18.39
18.5
17.15
14.62
11.44
8.22
5.47
3.49
2.26
1.51
0.81
-0.29
-2.11
-4.83
-8.39
-12.5
-16.56
-19.8
-21.46
-21.09
-18.73
-14.98
-10.73
-6.76
-3.46
-0.77
1.65
4.01
6.24
7.99
8.93
8.95
8.34
7.63
7.29
7.48
8.03
8.5
8.45
7.61
6.01
3.97
2.03
0.89
1.16
3.17
6.82
11.53
16.41
20.62
23.59
25.2
25.63
25.25
24.35
23.04
21.36
19.3
16.99
14.65
12.59
11.06
10.18
9.86
9.83
9.77
9.4
8.66
7.75
7.15
7.41
9.01
12.21
17.02
23.2
30.25
37.49
44.04
48.94
51.32
50.53
46.32
38.81
28.49
16.14
2.74
-10.72
-23.33
-34.44
-43.73
-51.29
-57.52
-62.95
-68.01
-72.91
-77.46
-81.18
-83.4
-83.48
-81.08
-76.25
-69.5
-61.59
-53.36
-45.44
-38.19
-31.81
-26.38
-22.02
-18.85
-16.98
-16.3
-16.54
-17.25
-17.96
-18.31
-18.13
-17.54
-16.85
-16.5
-16.84
-17.91
-19.31
-20.22
-19.66
-16.83
-11.47
-4.01
4.62
13.27
21.0
27.24
31.8
34.71
36.08
35.95
34.52
32.14
29.31
26.53
24.08
21.86
19.54
16.73
13.29
9.42
5.56
2.19
-0.36
-1.9
-2.42
-1.93
-0.52
1.63
4.2
6.75
8.92
10.51
11.57
12.24
12.69
12.97
13.05
12.93
12.67
12.37
12.12
11.9
11.54
10.81
9.47
7.26
4.0
-0.34
-5.61
-11.33
-16.73
-20.86
-22.88
-22.28
-19.08
-13.78
-7.21
-0.26
6.24
11.69
15.67
17.95
18.55
17.72
15.92
13.72
11.62
9.78
7.98
5.69
2.35
-2.29
-7.97
-13.97
-19.33
-23.22
-25.04
-24.56
-21.8
-17.0
-10.63
-3.37
3.93
10.52
15.9
20.01
23.07
25.31
26.72
26.96
25.52
22.13
16.92
10.47
3.5
-3.42
-10.07
-16.56
-23.13
-29.93
-36.81
-43.39
-49.08
-53.27
-55.45
-55.25
-52.57
-47.53
-40.53
-32.15
-23.14
-14.27
-6.17
0.73
6.29
10.67
14.26
17.56
21.01
24.79
28.7
32.15
34.36
34.69
32.95
29.66
26.09
23.92
24.78
29.86
39.56
53.49
70.52
89.1
107.48
123.96
137.0
145.34
147.99
144.24
133.81
116.88
94.29
67.46
38.34
9.1
-18.03
-40.99
-58.27
-69.09
-73.78
-73.89
-71.84
-70.25
-70.93
-74.04
-77.72
-78.59
-72.78
-57.24
-30.71
5.97
50.2
98.17
145.55
187.78
220.46
239.77
243.08
229.6
200.67
159.23
108.73
52.12
-8.39
-70.52
-130.84
-184.19
-224.47
-246.67
-249.07
-234.13
-207.65
-176.47
-146.07
-119.15
-95.96
-75.56
-57.26
-41.24
-28.23
-18.66
-12.18
-7.64
-3.79
0.14
4.12
7.42
9.15
8.81
6.65
3.55
0.74
-0.65
0.05
2.98
7.79
13.92
20.85
28.19
35.81
43.71
52.09
61.19
71.25
82.37
94.39
106.92
119.22
130.41
139.43
145.27
147.18
144.93
139.19
131.71
125.31
123.16
127.66
139.03
154.56
168.95
175.95
170.56
150.83
118.4
77.41
32.65
-12.35
-56.07
-98.91
-142.19
-187.14
-234.19
-282.67
-330.76
-375.62
-413.84
-442.16
-458.27
-461.6
-453.22
-435.34
-410.5
-380.87
-348.19
-313.98
-279.79
-247.1
-216.94
-189.48
-164.03
-139.45
-114.91
-90.4
-66.76
-45.42
-27.68
-14.2
-4.75
1.57
5.89
9.18
11.88
13.92
15.0
14.87
13.59
11.63
9.57
7.88
6.72
6.05
5.84
6.45
8.55
12.92
20.0
29.56
40.77
52.43
63.44
73.02
80.74
86.31
89.49
90.11
88.26
84.41
79.43
74.18
69.29
64.84
60.51
55.84
50.46
44.22
37.24
29.91
22.96
17.49
14.77
15.84
20.97
29.38
39.39
49.06
56.93
62.47
65.94
67.99
69.04
69.05
67.76
64.99
61.02
56.4
51.72
47.26
42.8
37.82
31.83
24.57
16.29
7.64
-0.37
-6.68
-10.36
-10.91
-8.35
-3.21
3.71
11.5
19.33
26.5
32.43
36.56
38.45
37.95
35.36
31.34
26.79
22.49
18.85
15.83
13.07
10.08
6.5
2.26
-2.35
-6.62
-9.69
-10.72
-9.28
-5.42
0.31
7.1
14.17
20.96
27.12
32.41
36.62
39.45
40.72
40.37
38.66
36.08
33.28
30.9
29.37
28.82
28.98
29.18
28.59
26.48
22.68
17.72
12.8
9.37
8.64
11.11
16.37
23.28
30.39
36.49
40.85
43.34
44.23
43.92
42.71
40.79
38.32
35.55
32.88
30.69
29.17
28.13
27.06
25.26
22.21
17.88
12.79
7.99
4.67
3.78
5.73
10.24
16.51
23.54
30.41
36.51
41.47
44.97
46.57
45.6
41.35
33.38
21.87
7.72
-7.56
-22.25
-34.91
-44.75
-51.74
-56.48
-59.87
-62.83
-65.92
-69.2
-72.12
-73.65
-72.55
-67.84
-59.26
-47.47
-33.96
-20.47
-8.44
1.41
9.04
14.69
18.48
20.23
19.65
16.76
12.18
7.11
2.85
0.28
-0.5
-0.2
-0.02
-1.15
-4.24
-9.23
-15.28
-21.08
-25.21
-26.65
-25.09
-20.94
-15.15
-8.73
-2.43
3.44
8.86
13.79
17.99
21.02
22.51
22.37
21.0
19.11
17.46
16.54
16.36
16.51
16.3
15.01
12.11
7.45
1.34
-5.44
-11.79
-16.56
-18.87
-18.3
-15.06
-9.78
-3.34
3.36
9.6
14.81
18.62
20.77
21.13
19.83
17.28
14.12
11.13
8.95
7.93
8.03
8.82
9.74
10.18
9.73
8.2
5.69
2.65
-0.17
-1.87
-1.73
0.58
4.73
9.87
15.0
19.39
22.88
25.79
28.61
31.49
34.07
35.59
35.31
33.0
29.05
24.31
19.63
15.45
11.67
7.81
3.32
-2.13
-8.56
-15.66
-22.86
-29.41
-34.5
-37.36
-37.5
-34.9
-29.99
-23.53
-16.36
-9.22
-2.6
3.12
7.62
10.68
12.18
12.28
11.44
10.26
9.28
8.75
8.56
8.3
7.45
5.57
2.45
-1.87
-7.04
-12.54
-17.61
-21.43
-23.28
-22.7
-19.7
-14.74
-8.67
-2.39
3.34
8.12
11.81
14.36
15.7
15.64
14.09
11.23
7.68
4.33
2.04
1.25
1.79
2.96
3.86
3.69
2.07
-0.94
-4.98
-9.42
-13.48
-16.32
-17.15
-15.49
-11.38
-5.39
1.51
8.29
14.24
18.98
22.49
24.83
26.02
26.03
24.8
22.33
18.73
14.23
9.17
3.98
-0.91
-5.19
-8.76
-11.83
-14.8
-18.11
-21.92
-26.0
-29.76
-32.32
-32.91
-31.05
-26.78
-20.6
-13.32
-5.85
1.07
6.94
11.54
14.78
16.66
17.17
16.4
14.64
12.36
10.15
8.44
7.4
6.85
6.43
5.76
4.67
3.19
1.4
-0.63
-2.93
-5.4
-7.79
-9.51
-9.94
-8.67
-5.76
-1.8
2.39
6.05
8.8
10.62
11.62
11.82
11.01
8.9
5.36
0.62
-4.69
-9.77
-13.94
-16.88
-18.73
-19.99
-21.27
-23.03
-25.42
-28.25
-31.03
-33.14
-34.0
-33.17
-30.43
-25.88
-19.87
-12.99
-5.94
0.62
6.2
10.53
13.53
15.24
15.71
15.1
13.7
11.93
10.31
9.23
8.83
8.87
8.91
8.49
7.37
5.6
3.51
1.59
0.36
0.32
1.89
5.27
10.37
16.71
23.44
29.58
34.35
37.36
38.72
38.82
38.07
36.63
34.42
31.23
26.95
21.75
16.02
10.27
4.89
0.01
-4.44
-8.69
-12.99
-17.56
-22.61
-28.2
-34.2
-40.02
-44.78
-47.43
-47.11
-43.6
-37.34
-29.35
-20.86
-12.88
-6.06
-0.64
3.32
5.83
6.88
6.54
5.04
2.82
0.49
-1.45
-2.72
-3.38
-3.76
-4.3
-5.34
-6.98
-9.14
-11.53
-13.82
-15.59
-16.36
-15.7
-13.3
-9.24
-3.99
1.65
6.86
11.05
13.99
15.73
16.44
16.22
15.13
13.26
10.83
8.19
5.69
3.52
1.65
-0.12
-2.09
-4.51
-7.53
-11.16
-15.23
-19.28
-22.66
-24.59
-24.43
-21.95
-17.39
-11.45
-5.05
0.98
6.02
9.78
12.19
13.32
13.28
12.21
10.24
7.55
4.37
1.0
-2.31
-5.36
-8.09
-10.6
-13.07
-15.66
-18.33
-20.76
-22.44
-22.78
-21.41
-18.33
-13.91
-8.72
-3.36
1.79
6.53
10.74
14.29
16.91
18.31
18.29
16.92
14.57
11.78
9.06
6.66
4.54
2.42
-0.08
-3.21
-7.01
-11.24
-15.39
-18.82
-20.88
-21.06
-19.17
-15.37
-10.22
-4.53
0.86
5.34
8.64
10.86
12.23
12.95
13.06
12.54
11.37
9.77
8.07
6.68
5.78
5.21
4.52
3.16
0.68
-3.01
-7.59
-12.41
-16.58
-19.26
-19.86
-18.2
-14.59
-9.67
-4.26
0.97
5.6
9.47
12.58
14.87
16.26
16.67
16.12
14.86
13.23
11.56
10.02
8.62
7.29
5.86
4.18
2.09
-0.52
-3.61
-6.85
-9.65
-11.29
-11.25
-9.43
-6.2
-2.22
1.88
5.73
9.18
12.16
14.53
15.95
16.13
14.92
12.54
9.44
6.23
3.43
1.42
0.32
0.07
0.39
0.88
1.1
0.74
-0.24
-1.42
-2.09
-1.44
1.09
5.6
11.68
18.57
25.49
31.87
37.55
42.75
47.88
53.35
59.43
66.13
73.16
79.83
85.13
87.88
87.06
82.17
73.5
62.11
49.42
36.82
25.2
14.97
6.21
-0.99
-6.4
-9.72
-10.86
-10.12
-8.18
-5.94
-4.21
-3.56
-4.26
-6.42
-10.03
-14.99
-21.06
-27.81
-34.72
-41.29
-47.28
-52.73
-57.99
-63.49
-69.58
-76.33
-83.47
-90.38
-96.23
-100.13
-101.31
-99.38
-94.38
-86.86
-77.74
-68.04
-58.71
-50.31
-43.1
-37.05
-32.05
-27.99
-24.77
-22.26
-20.25
-18.44
-16.54
-14.42
-12.09
-9.76
-7.7
-6.25
-5.64
-5.99
-7.17
-8.73
-9.99
-10.13
-8.5
-4.79
0.87
7.95
15.7
23.37
30.23
35.73
39.55
41.56
41.89
40.91
39.02
36.61
33.94
31.08
27.94
24.36
20.15
15.19
9.47
3.08
-3.71
-10.42
-16.45
-21.09
-23.73
-23.99
-21.95
-18.11
-13.37
-8.67
-4.73
-1.87
0.04
1.36
2.39
3.29
4.01
4.48
4.76
5.07
5.66
6.72
8.15
9.65
10.76
11.02
10.08
7.84
4.5
0.67
-2.7
-4.44
-3.51
0.56
7.44
16.02
24.79
32.4
38.06
41.7
43.75
44.83
45.36
45.51
45.19
44.16
42.14
38.86
34.06
27.66
19.77
10.81
1.42
-7.73
-16.15
-23.65
-30.24
-36.02
-40.97
-44.87
-47.39
-48.24
-47.4
-45.1
-41.83
-38.1
-34.32
-30.69
-27.34
-24.44
-22.24
-21.0
-20.81
-21.4
-22.22
-22.58
-22.05
-20.63
-18.81
-17.36
-17.01
-18.17
-20.82
-24.55
-28.64
-32.22
-34.36
-34.24
-31.35
-25.66
-17.72
-8.54
0.68
8.94
15.66
20.82
24.75
27.85
30.36
32.27
33.39
33.54
32.67
30.93
28.63
26.09
23.58
21.24
19.07
16.96
14.69
11.98
8.59
4.42
-0.35
-5.15
-9.14
-11.44
-11.49
-9.26
-5.33
-0.66
3.83
7.58
10.53
12.87
14.85
16.43
17.42
17.57
16.85
15.48
13.85
12.24
10.73
9.22
7.6
5.91
4.32
2.99
1.96
1.05
0.07
-1.0
-1.87
-1.98
-0.77
2.09
6.53
12.12
18.23
24.15
29.29
33.2
35.62
36.46
35.81
33.89
31.04
27.59
23.87
20.16
16.68
13.53
10.77
8.34
6.06
3.7
0.97
-2.35
-6.33
-10.75
-15.15
-18.86
-21.23
-21.84
-20.72
-18.29
-15.15
-11.87
-8.77
-5.99
-3.57
-1.63
-0.41
-0.14
-0.85
-2.28
-3.99
-5.53
-6.67
-7.46
-8.2
-9.2
-10.7
-12.74
-15.23
-17.96
-20.67
-22.98
-24.49
-24.88
-23.98
-21.9
-18.94
-15.51
-11.95
-8.46
-5.1
-1.88
1.14
3.75
5.69
6.79
7.03
6.58
5.78
4.92
4.19
3.62
3.08
2.45
1.62
0.5
-0.92
-2.65
-4.61
-6.58
-8.14
-8.73
-7.81
-5.02
-0.39
5.8
13.0
20.58
27.93
34.45
39.61
42.98
44.31
43.66
41.42
38.16
34.48
30.78
27.17
23.43
19.23
14.27
8.44
1.92
-4.83
-11.11
-16.22
-19.59
-20.99
-20.63
-18.99
-16.58
-13.73
-10.55
-7.08
-3.44
-0.02
2.61
3.94
3.7
1.94
-1.12
-5.22
-10.15
-15.63
-21.24
-26.38
-30.5
-33.26
-34.73
-35.32
-35.59
-35.93
-36.44
-36.9
-36.86
-35.85
-33.54
-29.92
-25.36
-20.52
-16.13
-12.73
-10.41
-8.86
-7.55
-6.14
-4.6
-3.18
-2.21
-1.77
-1.65
-1.48
-0.99
-0.22
0.49
0.67
-0.05
-1.77
-4.32
-7.45
-10.85
-14.21
-17.11
-19.02
-19.35
-17.64
-13.77
-8.07
-1.29
5.66
11.94
17.06
20.87
23.53
25.28
26.28
26.6
26.21
25.12
23.42
21.3
19.0
16.76
14.72
12.92
11.26
9.62
7.83
5.71
3.15
0.09
-3.37
-6.87
-9.88
-11.72
-11.78
-9.77
-5.86
-0.64
4.98
10.13
14.23
17.09
18.9
19.99
20.62
20.9
20.81
20.27
19.31
18.04
16.68
15.39
14.23
13.18
12.09
10.82
9.25
7.24
4.76
1.95
-0.87
-3.08
-4.05
-3.32
-0.84
2.91
7.19
11.2
14.46
16.9
18.66
19.96
20.85
21.21
20.89
19.8
18.03
15.78
13.27
10.68
8.06
5.4
2.65
-0.29
-3.53
-7.23
-11.49
-16.26
-21.25
-25.94
-29.66
-31.75
-31.74
-29.54
-25.53
-20.42
-15.11
-10.37
-6.7
-4.27
-2.98
-2.64
-3.05
-3.98
-5.2
-6.37
-7.16
-7.36
-6.99
-6.33
-5.85
-6.02
-7.14
