2013-03-06 17:04:13
64.0
-0.0
-0.0
-0.0
-0.0
-0.0
-0.0
-0.0
-0.0
-0.0
-0.0
0.0
0.01
0.01
-0.0
-0.03
-0.05
-0.05
0.0
0.13
0.36
0.66
1.01
1.37
1.72
2.06
2.4
2.79
3.24
3.8
4.42
5.06
5.66
6.2
6.68
7.15
7.68
8.31
9.14
10.09
11.04
11.88
12.56
13.14
13.76
14.65
15.96
17.91
20.32
22.9
25.38
27.58
29.57
31.68
34.32
37.81
42.54
48.15
54.1
59.83
64.97
69.58
74.14
79.34
85.71
93.76
103.0
112.62
121.73
129.77
136.75
143.3
150.75
157.77
166.64
177.95
191.79
206.97
220.57
228.25
225.36
208.53
176.87
132.76
80.05
23.07
-34.94
-92.44
-149.16
-205.23
-260.37
-313.74
-363.87
-409.82
-450.88
-486.45
-515.67
-537.13
-549.08
-549.78
-538.14
-513.93
-478.34
-433.48
-381.99
-326.49
-269.25
-211.97
-155.92
-102.14
-51.49
-4.94
36.63
72.57
102.6
126.86
145.86
160.32
170.93
178.32
182.89
184.93
184.67
182.37
178.39
173.14
167.02
160.4
153.52
146.52
139.47
132.37
125.26
118.19
111.22
104.47
98.03
91.98
86.35
81.11
76.24
71.66
67.36
63.35
59.7
56.49
53.8
51.61
49.86
48.42
47.12
45.81
44.44
43.0
41.52
39.96
38.17
35.86
32.65
28.21
22.43
15.43
7.67
-0.18
-7.53
-14.03
-19.73
-24.99
-30.25
-35.72
-41.19
-45.99
-49.28
-50.45
-49.48
-47.16
-44.75
-43.59
-44.43
-47.08
-50.47
-53.16
-53.98
-52.64
-49.94
-47.29
-46.23
-47.84
-52.34
-59.22
-67.09
-73.8
-76.66
-73.03
-61.31
-41.69
-16.78
9.06
30.86
45.01
50.62
49.73
46.21
43.71
43.99
46.25
47.9
46.39
40.74
32.32
24.05
18.78
17.63
19.43
21.49
21.32
18.12
13.09
8.52
6.16
6.27
7.25
6.85
3.46
-2.82
-10.03
-15.55
-17.09
-14.1
-7.57
0.3
7.1
11.06
11.52
9.07
4.97
0.81
-2.29
-4.01
-5.03
-6.7
-10.41
-16.77
-25.06
-33.51
-39.99
-43.23
-43.5
-42.68
-43.45
-48.03
-57.14
-69.52
-82.72
-94.03
-101.73
-105.82
-108.01
-111.14
-117.95
-129.87
-146.8
-167.26
-189.01
-209.62
-226.99
-239.34
-245.51
-244.73
-236.3
-220.23
-197.08
-167.79
-133.22
-93.7
-49.08
0.26
51.74
100.56
139.57
161.74
163.92
149.37
127.41
110.15
107.42
122.84
154.63
197.41
246.32
300.09
361.01
432.35
515.49
608.61
698.48
771.7
816.41
824.28
791.2
717.51
607.84
470.89
318.95
165.98
26.13
-90.33
-178.69
-239.41
-276.22
-293.98
-297.41
-291.03
-279.83
-268.11
-259.48
-255.72
-256.13
-258.01
-257.81
-252.36
-240.6
-223.99
-205.55
-189.14
-177.66
-171.84
-170.15
-169.77
-167.8
-162.35
-152.33
-136.69
-114.07
-83.32
-44.65
-0.32
45.7
89.27
126.73
155.09
171.3
172.15
155.03
119.91
71.77
17.94
-31.84
-68.92
-88.13
-89.09
-75.35
-53.21
-29.99
-13.14
-6.51
-8.58
-13.68
-15.25
-10.15
-1.09
5.06
1.27
-14.65
-38.28
-60.32
-72.15
-70.04
-57.43
-42.05
-31.04
-27.58
-30.03
-33.92
-34.55
-28.94
-16.48
1.22
21.38
40.94
57.55
70.25
79.81
87.38
92.18
90.48
76.52
45.8
-1.52
-59.14
-115.71
-158.59
-178.38
-172.19
-144.09
-103.08
-59.71
-22.47
4.14
19.84
27.37
30.21
30.89
30.28
28.02
23.83
18.6
14.11
12.16
13.43
17.03
20.94
23.22
22.82
20.16
16.73
14.13
13.31
14.19
15.93
17.47
18.13
17.91
17.35
17.14
17.56
18.37
18.97
18.83
17.95
16.89
16.56
17.6
20.04
23.09
25.62
26.52
25.37
22.61
19.28
16.67
16.04
18.59
24.85
33.89
42.56
45.7
37.6
14.45
-23.3
-70.35
-117.8
-156.36
-179.61
-185.84
-177.56
-159.4
-135.69
-108.56
-79.69
-50.41
-22.61
1.34
19.43
30.96
36.9
39.32
40.63
42.26
44.55
46.81
47.87
46.87
43.7
39.12
34.38
30.7
28.59
27.97
28.12
28.12
27.25
25.28
22.48
19.48
16.9
15.08
14.05
13.56
13.21
12.63
11.65
10.28
8.68
7.07
5.65
4.58
3.97
3.83
4.02
4.3
4.32
3.78
2.6
0.95
-0.69
-1.71
-1.69
-0.6
1.06
2.45
2.71
1.48
-0.92
-3.49
-4.97
-4.48
-1.99
1.57
4.62
5.68
4.12
0.52
-3.46
-5.78
-5.14
-1.63
3.33
7.67
9.48
7.84
2.89
-4.71
-13.91
-22.94
-28.73
-27.28
-15.49
6.59
34.24
58.93
71.9
68.67
51.65
28.44
8.19
-2.97
-4.37
0.05
5.11
7.78
8.36
9.26
12.53
18.15
23.9
26.83
24.96
18.2
8.3
-1.96
-10.56
-17.02
-22.44
-28.59
-36.41
-45.33
-53.23
-57.49
-56.4
-50.07
-40.26
-29.47
-19.91
-12.18
-6.51
-2.42
0.66
3.02
4.47
4.78
3.39
-0.52
-7.57
-18.56
-33.88
-53.29
-75.68
-98.63
-117.86
-127.35
-123.86
-105.22
-73.77
-35.55
1.8
32.09
52.87
65.44
73.24
79.27
84.94
89.88
93.56
96.46
99.77
104.38
109.64
113.39
113.2
108.5
100.93
94.21
92.28
97.43
109.9
128.08
149.18
169.46
184.76
190.68
184.03
164.35
134.42
100.4
69.53
47.46
36.24
34.34
38.51
45.69
54.55
64.48
75.25
85.71
93.77
97.0
93.94
84.66
70.02
55.46
43.83
36.08
30.99
25.93
17.59
2.81
-20.16
-50.24
-82.5
-109.26
-121.05
-109.7
-71.28
-7.95
72.3
157.86
236.67
299.35
340.35
358.78
357.3
340.49
313.4
280.62
245.85
211.74
180.12
151.79
126.96
105.17
85.04
64.62
42.02
16.42
-12.04
-42.1
-72.18
-101.16
-128.87
-156.15
-184.32
-214.31
-245.96
-277.81
-307.15
-330.75
-345.97
-351.61
-348.39
-338.73
-325.91
-312.97
-302.11
-293.66
-286.29
-278.1
-267.65
-255.02
-242.09
-232.1
-228.83
-236.89
-259.95
-299.96
-356.39
-425.38
-499.23
-567.1
-617.42
-641.51
-638.43
-612.92
-573.08
-527.32
-481.96
-440.14
-402.01
-366.1
-330.7
-297.72
-268.08
-240.9
-214.22
-186.7
-158.84
-132.49
-109.81
-92.29
-83.77
-83.95
-87.7
-86.78
-74.07
-46.57
-6.84
37.93
103.02
187.66
279.83
364.34
433.05
485.53
524.16
549.87
562.6
563.61
552.68
532.65
507.89
482.31
456.25
427.92
396.2
360.72
323.35
284.29
243.94
202.4
159.61
113.58
65.15
15.34
-33.91
-79.75
-120.04
-151.52
-174.48
-183.73
-177.33
-158.19
-134.32
-115.41
-108.22
-112.48
-120.55
-121.2
-104.76
-69.11
-19.38
35.21
85.77
125.17
152.41
170.15
181.42
187.73
188.23
182.25
170.75
157.13
146.36
145.19
157.52
182.55
215.56
249.84
279.69
301.65
314.65
306.71
272.44
215.23
145.92
76.22
13.45
-39.78
-83.4
-117.88
-143.56
-158.92
-163.47
-158.99
-149.25
-138.27
-128.98
-122.7
-119.61
-118.25
-115.41
-108.56
-97.1
-82.43
-66.47
-51.17
-37.85
-27.15
-19.15
-12.84
-7.28
-2.78
-4.12
-14.04
-33.11
-59.63
-90.11
-120.1
-144.89
-160.24
-164.85
-160.26
-149.25
-134.86
-119.1
-102.16
-82.59
-58.26
-26.8
11.86
54.72
94.74
125.25
142.27
145.85
139.75
129.7
123.13
126.0
141.01
168.37
205.18
245.55
281.34
304.04
298.11
257.78
191.51
119.54
64.5
37.28
32.04
32.09
20.53
-11.25
-59.3
-109.17
-151.25
-178.29
-186.82
-176.31
-147.86
-103.65
-46.29
22.03
98.56
169.98
222.73
245.42
232.64
187.24
119.94
46.02
-18.8
-63.53
-85.53
-88.33
-79.97
-69.03
-61.42
-59.01
-60.14
-61.71
-61.03
-57.8
-51.9
-44.0
-33.87
-20.31
-3.03
14.96
26.12
21.88
-3.15
-46.24
-96.56
-138.79
-159.75
-154.21
-123.07
-79.66
-40.0
-14.18
-2.9
-0.96
-2.27
-3.98
-6.86
-13.03
-23.58
-36.15
-46.06
-49.5
-45.92
-38.32
-31.77
-30.82
-37.25
-49.83
-64.02
-74.49
-77.43
-71.54
-58.33
-40.91
-23.74
-11.49
-7.98
-13.62
-24.47
-32.81
-30.43
-11.52
23.16
65.99
106.3
135.13
149.33
152.05
149.44
146.85
146.61
148.11
149.39
148.69
144.64
135.93
121.15
99.67
72.35
41.81
11.9
-13.81
-33.2
-45.82
-52.48
-54.39
-52.62
-48.21
-42.27
-36.1
-30.89
-27.32
-25.32
-24.34
-23.76
-23.15
-22.08
-20.12
-16.94
-12.23
-6.3
-0.09
4.95
7.32
6.14
1.52
-5.23
-12.33
-18.23
-22.58
-26.47
-31.97
-41.37
-55.68
-75.19
-98.23
-121.26
-139.46
-147.57
-141.31
-119.09
-83.69
-41.86
-4.08
18.77
19.59
-1.52
-36.38
-71.25
-92.03
-90.02
-65.03
-25.12
17.77
53.13
75.65
85.81
87.77
86.07
83.14
79.31
73.79
66.13
56.91
47.54
39.46
33.48
29.81
28.33
28.97
32.12
38.63
49.15
63.17
77.8
87.64
86.27
69.53
38.85
2.16
-28.55
-42.55
-35.81
-13.41
12.87
30.42
31.36
16.97
-4.27
-22.4
-31.5
-31.69
-27.15
-22.15
-18.27
-14.26
-7.67
2.14
13.34
22.57
27.17
26.54
22.56
18.52
17.18
19.48
23.88
27.2
26.25
19.21
6.44
-10.02
-27.32
-43.21
-56.07
-66.5
-75.94
-86.14
-98.51
-113.26
-128.7
-140.98
-145.03
-136.41
-113.78
-80.12
-42.17
-8.1
15.85
27.54
29.14
25.24
20.31
16.6
14.08
11.63
8.32
4.35
0.67
-1.78
-2.68
-2.36
-1.4
-0.41
0.54
1.7
3.34
5.8
9.28
13.97
20.06
27.6
36.34
45.59
54.23
60.98
65.03
66.53
66.47
66.44
67.8
71.08
75.88
81.47
87.21
92.53
96.46
97.01
91.57
78.23
57.49
33.25
11.58
-1.99
-5.45
-1.54
3.82
4.97
-0.03
-8.59
-15.43
-16.21
-10.7
-3.02
0.71
-3.37
-14.18
-26.17
-32.48
-28.83
-16.24
-0.43
11.48
14.51
8.61
-1.59
-9.59
-10.67
-3.94
7.35
17.79
22.4
18.44
7.08
-7.25
-18.82
-23.38
-20.05
-12.36
-7.14
-9.26
-23.09
-49.7
-86.96
-131.06
-177.67
-222.16
-259.15
-282.48
-287.02
-272.11
-243.22
-211.37
-188.81
-183.07
-192.65
-207.69
-215.11
-205.37
-177.56
-138.76
-100.0
-70.62
-54.6
-50.15
-52.13
-55.11
-55.16
-50.46
-40.01
-23.16
0.82
31.99
69.48
111.4
155.26
198.89
241.29
283.48
328.05
377.72
433.08
490.7
542.97
580.09
593.57
579.59
540.53
483.68
418.22
351.9
289.3
231.85
179.08
130.03
83.93
40.27
-1.46
-41.69
-80.35
-116.67
-149.24
-176.81
-198.88
-216.39
-231.88
-249.07
-272.36
-305.59
-350.49
-405.05
-462.93
-514.49
-549.97
-563.02
-553.41
-527.14
-493.86
-462.86
-439.7
-425.1
-416.2
-409.21
-401.57
-392.49
-382.2
-370.62
-356.59
-338.14
-313.41
-281.67
-243.72
-201.88
-159.05
-117.78
-79.46
-43.96
-9.86
24.8
61.72
101.61
143.98
187.38
230.21
271.35
310.61
348.68
386.78
426.12
467.81
512.98
562.72
617.26
674.6
729.6
774.28
800.03
800.72
775.43
729.24
671.44
612.1
558.71
514.67
479.7
451.67
428.41
408.43
390.68
373.92
356.3
335.64
310.14
278.8
241.65
199.75
154.66
108.09
61.6
16.4
-26.82
-67.95
-107.33
-145.7
-183.97
-223.08
-263.78
-306.15
-348.93
-388.95
-420.9
-437.8
-433.29
-404.28
-353.27
-288.58
-221.86
-163.76
-120.01
-89.68
-66.66
-43.34
-14.38
20.79
58.35
91.75
114.26
120.79
108.75
77.83
29.59
-32.78
-104.5
-179.13
-248.89
-305.87
-343.91
-360.61
-358.64
-344.94
-328.22
-315.74
-310.97
-313.23
-319.74
-328.3
-338.6
-351.48
-366.74
-381.23
-389.05
-383.62
-360.82
-321.25
-270.16
-215.5
-164.57
-121.51
-86.06
-54.96
-24.11
9.0
43.84
76.7
102.44
116.76
118.34
109.49
94.96
79.76
66.84
56.54
47.82
40.6
36.97
40.31
52.23
69.73
85.01
89.39
78.14
53.35
23.33
-1.82
-14.57
-12.64
0.66
19.42
39.12
58.53
79.41
104.93
136.88
175.53
219.91
266.74
310.98
347.33
371.78
382.34
379.76
365.37
341.02
308.17
265.95
211.98
145.14
67.81
-14.22
-92.48
-160.65
-214.99
-247.78
-252.96
-232.32
-196.37
-157.24
-127.32
-103.49
-81.95
-61.18
-42.07
-27.37
-22.28
-31.44
-57.24
-99.27
-153.25
-213.0
-269.62
-313.23
-337.33
-341.15
-328.86
-307.21
-282.44
-257.37
-232.18
-204.44
-170.85
-129.92
-82.54
-31.17
21.17
70.45
111.25
136.46
140.19
121.1
83.87
38.67
-2.06
-28.48
-37.0
-30.84
-17.86
-6.18
-0.7
-2.27
-8.67
-16.34
-21.58
-21.11
-12.32
6.37
34.84
70.11
106.15
135.17
149.8
145.7
123.13
87.11
45.94
7.81
-21.8
-41.39
-52.57
-58.1
-60.19
-59.8
-57.3
-53.02
-47.17
-39.15
-27.24
-9.96
11.66
32.7
45.6
44.05
27.38
2.4
-19.02
-25.68
-12.9
15.59
50.39
82.02
105.27
120.07
128.96
133.9
134.73
130.16
120.06
106.64
93.59
84.06
79.26
78.3
79.22
80.18
80.06
78.24
74.83
70.77
68.68
72.42
85.57
109.15
140.23
172.29
197.9
212.04
214.18
208.27
200.77
197.82
203.08
216.79
236.0
255.86
271.32
278.38
275.01
261.0
237.52
207.02
173.05
140.47
114.7
100.15
98.33
106.4
117.76
124.45
120.24
102.46
72.42
33.94
-8.04
-47.84
-78.75
-93.65
-86.95
-57.75
-11.94
38.65
80.39
103.13
103.86
86.94
60.71
32.88
7.4
-15.68
-38.13
-61.12
-83.94
-104.83
-122.91
-139.56
-157.89
-180.52
-207.23
-234.17
-255.56
-266.31
-264.37
-251.16
-229.72
-202.29
-169.03
-129.24
-83.62
-36.0
7.58
41.74
64.49
77.8
85.66
91.21
94.56
93.34
84.49
67.72
46.08
24.13
4.83
-12.55
-31.33
-55.39
-86.59
-125.05
-167.87
-209.99
-245.9
-270.68
-280.67
-273.77
-251.03
-217.57
-184.0
-160.41
-151.38
-154.45
-162.47
-167.91
-167.05
-162.77
-163.03
-179.07
-215.95
-268.55
-323.75
-366.82
-387.5
-383.0
-358.5
-307.5
-237.19
-165.3
-108.88
-73.61
-54.84
-46.88
-44.49
-46.34
-51.75
-60.98
-71.14
-77.1
-74.78
-63.77
-47.15
-29.07
-12.78
0.95
11.61
20.83
31.71
46.89
66.89
90.34
115.51
141.18
167.29
192.98
217.81
241.79
264.71
285.81
304.23
319.78
333.38
347.31
364.28
387.41
418.99
458.6
501.92
541.63
569.68
580.61
573.81
553.23
525.44
496.45
469.17
442.56
414.16
381.49
344.09
303.3
260.92
217.62
172.47
123.81
70.09
12.92
-44.74
-98.82
-146.09
-185.45
-218.32
-247.85
-277.27
-309.41
-343.48
-378.67
-413.87
-448.1
-479.93
-506.51
-523.36
-525.03
-508.24
-470.3
-414.17
-346.58
-275.98
-209.95
-152.69
-104.65
-56.13
-14.11
24.85
60.54
91.95
119.33
145.11
172.65
203.2
233.56
255.11
261.56
250.28
227.13
204.28
193.9
200.86
219.19
234.66
231.45
203.13
153.5
95.26
43.0
6.11
-14.77
-26.42
-37.71
-55.09
-78.43
-103.85
-126.81
-145.95
-164.84
-190.16
-227.87
-278.66
-335.46
-384.14
-409.05
-399.42
-354.58
-285.08
-209.24
-146.74
-111.65
-108.63
-132.47
-171.55
-212.07
-241.82
-252.24
-238.93
-200.88
-139.67
-59.2
34.21
131.38
220.64
289.77
329.42
337.15
318.81
286.75
254.24
229.72
213.86
201.56
187.25
170.03
154.45
146.86
150.16
160.31
168.09
163.76
142.29
105.46
60.03
13.41
-30.14
-70.39
-109.57
-149.55
-190.28
-230.3
-268.45
-305.3
-342.54
-380.96
-417.78
-446.1
-457.66
-446.89
-414.45
-368.06
-319.56
-279.47
-252.66
-237.42
-228.06
-219.38
-209.42
-198.95
-189.91
-183.22
-177.31
-168.87
-154.82
-134.16
-108.41
-80.49
-51.64
-22.11
8.33
39.96
72.88
106.42
139.32
169.93
196.9
221.77
246.44
272.19
299.9
330.68
365.9
406.12
449.8
492.91
532.37
563.91
583.14
587.18
575.63
550.48
514.75
471.44
408.5
325.66
234.62
153.46
95.39
62.8
50.18
49.59
54.29
60.17
68.04
78.3
89.85
100.86
110.19
118.03
125.53
133.12
139.88
145.3
148.1
145.37
134.18
113.23
83.59
47.81
8.4
-33.03
-74.6
-115.5
-155.36
-193.03
-226.15
-251.15
-264.7
-265.49
-254.82
-235.96
-214.14
-195.5
-185.14
-185.34
-194.15
-205.34
-209.95
-198.78
-165.59
-110.38
-40.26
32.22
92.94
130.83
141.0
125.33
90.76
46.17
-0.69
-44.6
-82.52
-112.76
-133.76
-144.35
-144.58
-136.36
-123.94
-113.31
-110.66
-120.62
-144.73
-179.95
-218.71
-251.13
-267.97
-264.36
-241.93
-208.34
-174.73
-152.25
-148.95
-168.57
-210.29
-269.24
-337.05
-402.99
-455.81
-486.47
-490.54
-468.8
-426.59
-372.16
-314.95
-264.85
-230.38
-216.61
-222.87
-241.93
-261.88
-270.79
-261.72
-235.63
-200.64
-167.59
-144.77
-135.03
-135.93
-142.17
-148.49
-151.22
-148.26
-138.24
-119.92
-92.52
-56.47
-14.39
29.44
70.19
104.32
130.83
151.43
169.38
187.55
207.12
227.17
245.59
260.34
270.63
277.16
281.75
286.57
293.46
303.76
317.96
335.38
353.65
369.03
377.37
375.48
362.41
339.64
310.48
278.7
247.3
218.15
192.33
170.88
155.03
145.74
142.92
145.04
149.3
152.78
153.57
151.43
147.56
143.75
141.21
139.97
138.99
136.87
132.82
127.25
121.74
118.38
118.71
122.89
129.46
135.97
140.08
140.66
138.2
134.51
131.9
132.07
135.51
141.34
147.73
152.32
152.88
147.9
137.18
122.35
106.66
93.98
87.18
86.66
89.72
91.46
86.6
71.59
46.02
12.7
-23.51
-57.35
-84.68
-103.35
-113.01
-114.65
-109.94
-100.63
-88.15
-73.42
-56.81
-38.16
-17.05
7.0
34.06
63.6
94.5
125.28
154.74
182.31
207.92
231.33
251.04
264.54
269.01
262.65
245.65
220.48
191.54
163.43
139.81
122.29
111.01
105.58
105.79
111.59
122.55
137.43
153.67
167.91
176.07
175.36
165.27
147.52
124.94
100.17
75.25
50.87
27.04
0.98
-29.2
-62.88
-97.09
-128.42
-154.87
-175.73
-192.58
-207.42
-227.18
-256.56
-295.1
-337.46
-377.02
-409.51
-432.53
-447.87
-457.85
-472.96
-500.89
-542.18
-590.16
-636.77
-677.37
-709.14
-733.77
-751.4
-771.2
-798.72
-832.5
-865.27
-890.87
-908.86
-920.89
-932.98
-879.45
-723.81
-478.9
-201.41
52.79
257.07
395.62
491.77
558.91
602.97
615.72
591.12
531.72
449.54
362.91
291.24
251.28
245.33
265.54
290.0
299.6
286.81
257.12
222.11
191.44
170.23
155.25
142.33
124.16
97.94
66.81
37.97
16.84
6.01
4.37
6.67
9.27
8.91
5.39
1.15
-0.38
2.67
9.86
18.62
25.22
27.84
26.24
22.64
20.76
25.0
34.81
50.22
69.96
90.57
106.9
112.98
104.04
78.67
39.88
-5.56
-48.89
-83.19
-104.99
-114.13
-112.17
-100.61
-80.21
-51.38
-15.58
24.35
63.77
97.62
122.21
136.46
141.92
141.89
140.08
139.27
140.58
143.35
146.13
147.76
147.97
147.34
146.48
145.5
143.87
140.78
135.46
127.74
117.93
106.82
95.35
84.26
74.04
64.78
56.4
48.77
41.87
35.78
30.59
26.28
22.65
19.35
15.97
12.11
7.53
2.25
-3.45
-9.06
-13.98
-17.71
-19.84
-20.29
-19.3
-17.4
-15.3
-13.67
-12.95
-13.29
-14.6
-16.63
-19.08
-21.62
-23.71
-24.75
-24.11
-21.48
-17.08
-11.68
-6.36
-2.09
0.63
1.97
2.5
2.84
3.28
3.8
4.08
3.9
3.28
2.49
1.96
1.9
2.22
2.41
1.87
0.19
-2.54
-5.71
-8.48
-10.25
-10.93
-11.03
-11.28
-12.28
-14.2
-16.75
-19.52
-22.22
-24.79
-27.23
-29.45
-31.17
-32.02
-31.88
-30.9
-29.47
-27.9
-26.12
-23.69
-20.12
-15.25
-9.6
-4.18
0.04
2.63
3.91
4.7
5.6
6.62
7.13
6.32
3.83
0.14
-3.66
-6.44
-7.59
-7.35
-6.57
-6.11
-6.47
-7.63
-9.21
-10.72
-11.87
-12.43
-12.28
-11.37
-9.7
-7.42
-4.84
-2.34
-0.24
1.19
1.9
2.06
2.06
2.47
3.83
6.44
10.16
14.44
18.5
21.63
23.47
24.06
23.68
22.72
21.45
20.0
18.49
17.05
15.88
15.27
15.41
16.31
17.78
19.4
20.73
21.52
21.7
21.38
20.6
19.18
16.77
13.15
8.36
2.94
-2.33
-6.76
-10.02
-12.12
-13.24
-13.45
-12.69
-10.9
-8.24
-5.13
-2.2
0.08
1.52
2.16
2.11
1.43
-0.01
-2.29
-5.34
-8.88
-12.47
-15.76
-18.63
-21.12
-23.36
-25.39
-27.06
-28.11
-28.26
-27.35
-25.36
-22.43
-18.79
-14.75
-10.69
-7.07
-4.32
-2.68
-2.14
-2.4
-3.03
-3.7
-4.35
-5.22
-6.63
-8.81
-11.61
-14.56
-17.07
-18.65
-19.2
-18.88
-17.99
-16.6
-14.48
-11.27
-6.69
-0.93
5.26
10.89
15.05
17.29
17.81
17.22
16.15
14.96
13.58
11.72
9.18
6.04
2.68
-0.42
-2.99
-4.98
-6.63
-8.13
-9.5
-10.54
-10.98
-10.64
-9.61
-8.21
-6.88
-5.95
-5.6
-5.84
-6.56
-7.64
-8.94
-10.35
-11.83
-13.39
-15.05
-16.89
-18.85
-20.66
-21.86
-21.99
-20.7
-17.98
-14.22
-10.02
-5.98
-2.51
0.29
2.53
4.38
5.92
7.14
7.98
8.46
8.73
9.01
9.51
10.37
11.59
13.05
14.52
15.83
16.85
17.64
18.34
19.11
20.0
20.8
21.14
20.56
18.78
15.85
12.2
8.42
5.09
2.5
0.62
-0.8
-2.07
-3.42
-4.97
-6.73
-8.69
-10.74
-12.71
-14.36
-15.34
-15.4
-14.45
-12.62
-10.16
-7.43
-4.71
-2.15
0.16
2.23
4.09
5.75
7.26
8.67
10.01
11.22
12.15
12.58
12.33
11.41
10.05
8.6
7.42
6.6
6.1
5.66
5.11
4.31
3.28
2.07
0.7
-0.78
-2.25
-3.47
-4.25
-4.56
-4.66
-4.98
-5.98
-7.87
-10.52
-13.57
-16.49
-18.92
-20.65
-21.72
-22.3
-22.53
-22.49
-22.05
-21.0
-19.15
-16.55
-13.5
-10.46
-7.81
-5.58
-3.62
-1.67
0.27
1.98
3.13
3.61
3.72
3.95
4.71
6.02
7.45
8.4
8.51
7.87
6.95
6.29
6.07
6.21
6.37
6.38
6.31
6.31
6.45
6.61
6.49
5.86
4.75
3.42
2.16
1.06
-0.01
-1.39
-3.24
-5.42
-7.55
-9.2
-10.17
-10.69
-11.07
-11.55
-12.04
-12.16
-11.6
-10.29
-8.58
-7.01
-6.01
-5.64
-5.59
-5.41
-4.87
-4.04
-3.21
-2.58
-2.07
-1.41
-0.35
1.12
2.7
4.08
5.02
5.54
5.84
6.03
6.01
5.65
4.85
3.73
2.59
1.66
1.06
0.71
0.44
0.23
0.09
0.04
-0.01
-0.28
-0.99
-2.2
-3.71
-5.18
-6.28
-6.83
-6.85
-6.53
-6.03
-5.44
-4.74
-3.85
-2.76
-1.54
-0.34
0.68
1.39
1.82
2.12
2.46
2.94
3.57
4.24
4.8
5.16
5.32
5.29
5.06
4.58
3.87
3.08
2.48
2.32
2.61
3.13
3.48
3.32
2.57
1.37
0.01
-1.36
-2.7
-4.1
-5.63
-7.22
-8.71
-10.0
-11.09
-12.06
-12.96
-13.66
-13.93
-13.6
-12.6
-11.11
-9.44
-7.81
-6.39
-5.17
-4.13
-3.25
-2.59
-2.17
-1.93
-1.73
-1.37
-0.77
0.08
0.98
1.72
2.15
2.27
2.19
2.04
1.94
1.86
1.81
1.82
1.99
2.41
3.08
3.84
4.39
4.47
3.89
2.77
1.37
0.03
-1.04
-1.79
-2.33
-2.78
-3.16
-3.49
-3.72
-3.97
-4.41
-5.16
-6.18
-7.19
-7.79
-7.65
-6.76
-5.44
-4.17
-3.33
-2.89
-2.58
-1.93
-0.71
1.0
2.86
4.46
5.62
6.38
6.9
7.27
7.41
7.06
6.06
4.39
2.35
0.38
-1.11
-1.92
-2.15
-2.17
-2.37
-2.98
-4.04
-5.32
-6.55
-7.53
-8.18
-8.54
-8.71
-8.76
-8.71
-8.57
-8.39
-8.29
-8.38
-8.73
-9.22
-9.66
-9.84
-9.61
-9.0
-8.1
-7.08
-6.03
-4.97
-3.82
-2.5
-0.97
0.69
2.31
3.76
4.87
5.57
5.83
5.71
5.31
4.8
4.33
3.98
3.81
3.76
3.77
3.78
3.75
3.7
3.62
3.52
3.36
3.14
2.86
2.52
2.15
1.78
1.43
1.13
0.85
0.47
-0.1
-1.0
-2.22
-3.61
-4.96
-6.05
-6.77
-7.16
-7.27
-7.12
-6.68
-5.9
-4.79
-3.48
-2.12
-0.88
0.17
1.07
1.92
2.71
3.42
3.9
4.03
3.73
3.03
2.05
0.97
0.0
-0.7
-0.99
-0.82
-0.25
0.6
1.51
2.24
2.61
2.49
1.91
0.99
-0.06
-1.07
-1.92
-2.59
-3.17
-3.77
-4.44
-5.17
-5.85
-6.35
-6.61
-6.66
-6.68
-6.89
-7.37
-8.05
-8.7
-9.01
-8.77
-7.89
-6.44
-4.6
-2.57
-0.55
1.26
2.77
3.97
4.94
5.79
6.63
7.45
8.08
8.36
8.17
7.54
6.65
5.76
5.03
4.6
4.5
4.64
4.93
5.2
5.23
4.84
3.98
2.71
1.29
-0.03
-1.05
-1.7
-2.04
-2.24
-2.45
-2.79
-3.35
-4.16
-5.2
-6.37
-7.5
-8.41
-8.92
-8.94
-8.45
-7.5
-6.23
-4.78
-3.28
-1.83
-0.47
0.8
2.06
3.37
4.71
6.0
7.1
7.89
8.32
8.41
8.22
7.79
7.13
6.29
5.37
4.56
3.98
3.71
3.63
3.54
3.3
2.9
2.46
2.15
2.08
2.15
2.19
2.01
1.5
0.69
-0.29
-1.33
-2.33
-3.26
-4.16
-5.03
-5.95
-6.89
-7.85
-8.79
-9.58
-10.14
-10.39
-10.31
-9.88
-9.12
-8.0
-6.49
-4.56
-2.18
0.59
3.59
6.59
9.31
11.51
12.95
13.52
13.23
12.21
10.76
9.21
7.83
6.86
6.37
6.29
6.48
6.76
7.04
7.29
7.57
7.98
8.54
9.15
9.62
9.71
9.22
8.15
6.71
5.21
4.01
3.28
2.95
2.74
2.36
1.56
0.36
-1.08
-2.54
-3.87
-5.04
-6.11
-7.18
-8.25
-9.33
-10.39
-11.4
-12.39
-13.37
-14.34
-15.17
-15.73
-15.89
-15.54
-14.66
-13.23
-11.27
-8.78
-5.85
-2.64
0.63
3.72
6.46
8.77
10.67
12.14
13.2
13.78
13.88
13.54
12.89
12.12
11.34
10.65
10.02
9.41
8.81
8.3
8.0
8.07
8.55
9.35
10.25
10.95
11.17
10.83
10.02
9.01
8.08
7.44
7.05
6.77
6.4
5.82
5.06
4.21
3.35
2.52
1.68
0.74
-0.28
-1.37
-2.42
-3.33
-4.11
-4.8
-5.47
-6.18
-6.98
-7.84
-8.74
-9.59
-10.23
-10.47
-10.11
-9.11
-7.56
-5.68
-3.69
-1.8
-0.09
1.4
2.63
3.59
4.25
4.66
4.87
4.97
5.03
5.05
5.07
5.13
5.33
5.73
6.35
7.1
7.83
8.39
8.65
8.6
8.3
7.87
7.43
7.06
6.79
6.61
6.46
6.24
5.81
5.08
3.99
2.64
1.2
-0.1
-1.1
-1.75
-2.13
-2.41
-2.76
-3.28
-3.95
-4.7
-5.49
-6.26
-7.04
-7.82
-8.45
-8.83
-8.83
-8.39
-7.58
-6.49
-5.23
-3.84
-2.33
-0.66
1.13
2.94
4.64
6.03
6.98
7.44
7.44
7.05
6.46
5.78
5.18
4.7
4.42
4.32
4.38
4.55
4.84
5.2
5.59
5.98
6.33
6.56
6.61
6.4
5.83
4.91
3.66
2.18
0.57
-1.05
-2.58
-3.91
-4.92
-5.5
-5.62
-5.38
-5.03
-4.9
-5.22
-6.09
-7.32
-8.63
-9.69
-10.35
-10.64
-10.72
-10.75
-10.79
-10.71
-10.31
-9.41
-7.97
-6.07
-3.88
-1.52
0.88
3.24
5.39
7.14
8.28
8.74
8.6
8.11
7.58
7.2
7.02
6.9
6.66
6.19
5.54
4.87
4.35
4.05
3.9
3.77
3.54
3.17
2.71
2.29
1.99
1.8
1.68
1.5
1.22
0.9
0.57
0.2
-0.27
-1.0
-2.06
-3.32
-4.57
-5.48
-5.9
-5.84
-5.6
-5.52
-5.87
-6.68
-7.76
-8.8
-9.44
-9.46
-8.78
-7.45
-5.64
-3.53
-1.28
1.04
3.47
6.12
9.05
12.21
15.34
18.03
19.85
20.57
20.3
19.48
18.8
18.9
20.05
22.1
24.52
26.67
28.11
28.82
29.14
29.57
30.65
32.78
36.2
40.7
45.51
48.89
48.5
42.29
29.62
12.07
-6.96
-23.67
-35.51
-42.08
-44.85
-46.1
-47.52
-49.64
-51.75
-52.28
-49.39
-41.37
-27.29
-7.66
15.11
37.1
54.04
62.77
62.19
53.2
37.85
18.24
-3.47
-24.74
-42.36
-53.0
-54.44
-46.9
-33.16
-17.43
-3.65
6.05
11.65
14.46
15.99
17.18
18.3
19.35
20.39
21.62
23.28
25.37
27.6
29.61
31.13
32.14
32.86
33.54
34.25
34.75
34.5
32.8
29.15
23.43
16.22
8.63
2.05
-2.3
-3.87
-2.89
-0.28
2.76
5.24
6.75
7.55
8.32
9.81
12.37
15.65
18.61
19.76
17.66
11.51
1.55
-10.93
-23.94
-35.54
-44.61
-51.44
-57.61
-65.4
-76.64
-91.73
-109.27
-126.63
-141.27
-151.94
-159.17
-164.7
-170.19
-175.9
-180.13
-180.08
-173.33
-159.45
-140.61
-120.61
-102.85
-88.33
-75.22
-60.4
-42.01
-21.01
-0.88
14.81
24.95
31.81
39.47
50.82
65.12
78.07
84.37
81.08
69.41
54.11
40.58
32.19
29.06
28.99
29.52
29.32
28.38
27.3
26.35
25.14
22.97
19.36
14.51
9.33
4.94
2.24
1.46
2.17
3.48
4.58
5.01
4.87
4.68
5.05
6.43
8.92
12.26
15.87
19.05
21.13
21.72
20.91
19.33
17.98
18.0
20.13
24.5
30.46
36.87
42.54
46.6
48.75
49.08
47.95
45.75
42.81
39.41
35.85
32.41
29.31
26.68
24.5
22.65
20.97
19.3
17.55
15.66
13.58
11.32
8.94
6.6
4.48
2.69
1.23
0.0
-1.19
-2.46
-3.75
-4.86
-5.5
-5.37
-4.36
-2.53
-0.19
2.31
4.64
6.6
8.18
9.48
10.68
11.85
12.94
13.82
14.36
14.5
14.32
13.98
13.59
13.2
12.72
12.04
11.07
9.85
8.52
7.29
6.3
5.6
5.12
4.77
4.46
4.12
3.72
3.2
2.44
1.31
-0.28
-2.28
-4.56
-6.88
-9.05
-10.95
-12.57
-13.99
-15.28
-16.46
-17.44
-18.16
-18.65
-19.09
-19.65
-20.41
-21.22
-21.73
-21.57
-20.51
-18.56
-15.95
-12.98
-9.86
-6.66
-3.42
-0.17
2.88
5.48
7.35
8.35
8.51
8.05
7.27
6.51
6.01
5.79
5.82
6.01
6.35
6.9
7.68
8.66
9.65
10.4
10.69
10.45
9.73
8.68
7.38
5.85
4.14
2.33
0.53
-1.19
-2.81
-4.38
-5.91
-7.32
-8.48
-9.32
-9.97
-10.68
-11.69
-13.03
-14.36
-15.17
-14.91
-13.28
-10.37
-6.55
-2.38
1.65
5.13
7.83
9.68
10.77
11.22
11.2
10.81
10.1
9.14
8.08
7.1
6.4
6.05
5.95
5.87
5.6
5.04
4.28
3.5
2.84
2.31
1.79
1.06
-0.04
-1.57
-3.49
-5.64
-7.88
-10.1
-12.27
-14.34
-16.22
-17.78
-18.92
-19.57
-19.84
-19.9
-19.93
-19.93
-19.72
-19.01
-17.52
-15.12
-11.89
-8.12
-4.21
-0.61
2.32
4.44
5.81
6.7
7.41
8.16
8.91
9.49
9.72
9.53
9.13
8.88
9.12
10.03
11.51
13.27
14.97
16.33
17.17
17.4
16.99
15.95
14.39
12.48
10.38
8.22
5.98
3.62
1.11
-1.51
-4.11
-6.52
-8.67
-10.58
-12.33
-13.97
-15.5
-16.82
-18.01
-19.17
-20.42
-21.79
-23.0
-23.51
-22.76
-20.41
-16.46
-11.28
-5.37
0.76
6.7
12.12
16.6
19.72
21.05
20.51
18.5
15.95
14.0
13.55
14.95
17.82
21.38
24.85
27.83
30.38
32.79
35.18
37.29
38.53
38.14
35.61
30.85
24.24
16.39
8.03
-0.17
-7.64
-13.82
-18.28
-20.71
-21.15
-20.0
-18.0
-16.05
-14.97
-15.28
-17.06
-20.04
-23.77
-27.8
-31.78
-35.58
-39.09
-42.2
-44.6
-45.84
-45.42
-42.93
-38.18
-31.32
-22.83
-13.43
-3.92
4.99
12.7
18.82
23.09
25.43
25.9
24.76
22.49
19.68
16.99
14.99
13.99
14.07
15.06
16.58
18.27
19.88
21.32
22.67
24.03
25.37
26.52
27.11
26.84
25.55
23.34
20.47
17.26
13.98
10.71
7.4
3.96
0.39
-3.19
-6.53
-9.35
-11.42
-12.66
-13.19
-13.25
-13.18
-13.33
-14.02
-15.45
-17.7
-20.63
-23.8
-26.56
-28.07
-27.61
-24.86
-20.05
-13.83
-7.0
-0.29
5.9
11.38
16.02
19.63
21.92
22.67
21.92
20.02
17.51
14.96
12.73
10.97
9.66
8.8
8.49
8.88
10.04
11.87
14.07
16.2
17.86
18.78
18.84
18.09
16.67
14.72
12.34
9.58
6.47
3.03
-0.54
-4.02
-7.08
-9.45
-11.03
-11.91
-12.3
-12.53
-12.92
-13.81
-15.48
-18.08
-21.5
-25.32
-28.81
-31.14
-31.58
-29.78
-25.86
-20.25
-13.57
-6.41
0.71
7.4
13.31
18.15
21.69
23.78
24.44
23.85
22.37
20.39
18.39
16.76
15.78
15.58
16.1
17.12
18.27
19.13
19.31
18.52
16.74
14.16
11.1
7.95
4.98
2.37
0.19
-1.55
-2.9
-3.92
-4.74
-5.51
-6.41
-7.61
-9.25
-11.4
-14.07
-17.22
-20.77
-24.56
-28.23
-31.33
-33.28
-33.57
-31.88
-28.18
-22.75
-16.1
-8.86
-1.66
4.96
10.5
14.69
17.47
19.0
19.61
19.7
19.59
19.46
19.34
19.17
18.93
18.65
18.39
18.18
17.97
17.67
17.23
16.58
15.71
14.6
13.22
11.55
9.56
7.33
5.0
2.76
0.79
-0.84
-2.18
-3.38
-4.54
-5.73
-6.95
-8.22
-9.64
-11.32
-13.39
-15.9
-18.84
-22.14
-25.66
-29.17
-32.31
-34.54
-35.26
-34.03
-30.68
-25.46
-18.9
-11.67
-4.45
2.27
8.12
12.91
16.56
19.14
20.74
21.52
21.68
21.39
20.84
20.16
19.51
18.95
18.52
18.24
18.06
18.05
18.2
18.56
19.05
19.51
19.64
19.17
17.88
15.68
12.71
9.23
5.63
2.26
-0.67
-3.15
-5.34
-7.51
-9.92
-12.76
-16.09
-19.8
-23.73
-27.64
-31.32
-34.61
-37.42
-39.76
-41.67
-43.19
-44.28
-44.71
-44.08
-41.83
-37.44
-30.59
-21.34
-10.21
1.93
14.05
25.18
34.6
41.89
46.82
49.36
49.6
47.79
44.3
39.74
34.76
30.0
25.89
22.56
19.97
17.95
16.36
15.17
14.38
14.02
14.01
14.24
14.44
14.39
13.91
12.96
11.62
10.03
8.38
6.73
5.11
3.37
1.4
-0.87
-3.45
-6.23
-9.07
-11.89
-14.61
-17.22
-19.75
-22.19
-24.53
-26.8
-29.07
-31.38
-33.67
-35.67
-36.92
-36.91
-35.28
-31.95
-27.17
-21.41
-15.21
-9.05
-3.35
1.65
5.76
8.91
11.14
12.61
13.52
14.02
14.24
14.28
14.31
14.59
15.38
16.81
18.75
20.87
22.73
23.95
24.31
23.79
22.46
20.42
17.74
14.48
10.76
6.71
2.54
-1.58
-5.5
-9.14
-12.53
-15.78
-18.97
-22.05
-24.87
-27.11
-28.5
-28.91
-28.55
-27.9
-27.55
-27.87
-28.74
-29.55
-29.49
-27.9
-24.57
-19.84
-14.31
-8.66
-3.31
1.56
5.85
9.49
12.38
14.45
15.79
16.6
17.12
17.53
17.87
18.05
18.0
17.75
17.39
17.05
16.78
16.6
16.45
16.28
16.07
15.75
15.27
14.55
13.52
12.23
10.71
9.1
7.45
5.76
3.97
2.02
-0.18
-2.65
-5.35
-8.26
-11.27
-14.34
-17.38
-20.35
-23.2
-25.91
-28.47
-30.76
-32.56
-33.47
-33.06
-30.97
-27.13
-21.78
-15.43
-8.73
-2.26
3.56
8.51
12.48
15.39
17.21
17.93
17.72
16.91
15.98
15.32
15.17
15.49
16.01
16.39
16.37
15.91
15.11
14.16
13.18
12.12
10.9
9.42
7.7
5.89
4.2
2.73
1.47
0.3
-0.95
-2.38
-3.97
-5.65
-7.28
-8.8
-10.18
-11.5
-12.88
-14.49
-16.57
-19.29
-22.75
-26.76
-30.92
-34.54
-36.89
-37.32
-35.46
-31.25
-25.0
-17.35
-9.11
-1.13
5.91
11.65
16.02
19.12
21.14
22.17
22.24
21.41
19.94
18.3
16.99
16.38
16.48
16.99
17.52
17.78
17.76
17.63
17.56
17.52
17.28
16.45
14.76
12.18
8.99
5.66
2.63
0.13
-1.84
-3.53
-5.27
-7.33
-9.79
-12.5
-15.18
-17.46
-19.06
-19.81
-19.79
-19.23
-18.56
-18.23
-18.6
-19.77
-21.49
-23.2
-24.27
-24.09
-22.32
-18.91
-14.08
-8.28
-2.04
4.12
9.75
14.57
18.41
21.25
23.09
23.96
23.9
23.01
21.56
19.9
18.45
17.53
17.29
17.69
18.59
19.82
21.19
22.52
23.62
24.21
24.08
23.06
21.15
18.49
15.35
12.03
8.79
5.81
3.14
0.75
-1.44
-3.48
-5.43
-7.3
-9.11
-10.83
-12.48
-14.04
-15.53
-17.03
-18.57
-20.23
-21.98
-23.84
-25.89
-28.32
-31.24
-34.6
-38.0
-40.68
-41.78
-40.62
-37.0
-31.19
-23.94
-16.03
-8.2
-0.98
5.25
10.22
13.76
15.86
16.74
16.74
16.32
15.84
15.53
15.47
15.65
16.05
16.65
17.49
18.54
19.72
20.83
21.59
21.77
21.2
19.89
17.99
15.7
13.23
10.69
8.06
5.29
2.42
-0.44
-3.11
-5.43
-7.35
-8.93
-10.28
-11.59
-12.98
-14.5
-16.26
-18.32
-20.77
-23.62
-26.67
-29.49
-31.45
-31.98
-30.69
-27.57
-22.94
-17.33
-11.37
-5.6
-0.41
3.96
7.43
10.07
11.97
13.25
14.0
14.3
14.22
13.89
13.53
13.39
13.72
14.59
15.97
17.66
19.4
20.95
22.04
22.44
21.98
20.59
18.33
15.4
12.02
8.43
4.81
1.29
-2.01
-5.03
-7.71
-10.04
-12.07
-13.91
-15.62
-17.25
-18.78
-20.18
-21.53
-22.99
-24.74
-26.85
-29.14
-31.12
-32.11
-31.5
-28.98
-24.66
-19.02
-12.72
-6.38
-0.44
4.87
9.39
13.05
15.77
17.59
18.68
19.38
20.04
20.95
22.25
23.84
25.52
27.03
28.15
28.76
28.76
28.04
26.49
24.02
20.65
16.58
12.1
7.52
3.04
-1.19
-5.09
-8.44
-10.99
-12.52
-12.99
-12.65
-11.97
-11.39
-11.18
-11.34
-11.68
-12.06
-12.51
-13.24
-14.51
-16.48
-19.16
-22.34
-25.68
-28.7
-30.86
-31.62
-30.56
-27.52
-22.74
-16.71
-10.1
-3.58
2.39
7.59
11.9
15.33
17.85
19.47
20.26
20.44
20.29
20.11
20.1
20.33
20.7
21.02
21.09
20.87
20.36
19.66
18.78
17.71
16.35
14.69
12.81
10.81
8.79
6.8
4.83
2.83
0.8
-1.24
-3.27
-5.29
-7.3
-9.26
-11.13
-12.81
-14.24
-15.44
-16.48
-17.45
-18.45
-19.58
-20.94
-22.6
-24.52
-26.47
-27.99
-28.52
-27.56
-24.89
-20.71
-15.49
-9.84
-4.27
0.94
5.57
9.5
12.56
14.67
15.83
16.26
16.25
16.12
16.08
16.23
16.58
17.1
17.83
18.79
19.98
21.25
22.37
23.02
22.92
21.94
20.15
17.75
15.03
12.24
9.53
6.98
4.55
2.16
-0.24
-2.61
-4.84
-6.83
-8.53
-9.94
-11.13
-12.22
-13.31
-14.51
-15.92
-17.68
-19.86
-22.43
-25.13
-27.44
-28.72
-28.47
-26.44
-22.73
-17.75
-12.03
-6.08
-0.32
4.97
9.6
13.45
16.46
18.58
19.83
20.25
19.96
19.15
18.11
17.16
16.58
16.5
16.88
17.55
18.31
18.97
19.42
19.53
19.22
18.36
16.87
14.73
12.1
9.26
6.5
4.09
2.13
0.59
-0.71
-1.98
-3.45
-5.23
-7.34
-9.71
-12.18
-14.57
-16.71
-18.51
-19.99
-21.33
-22.73
-24.44
-26.55
-28.99
-31.44
-33.42
-34.37
-33.79
-31.38
-27.1
-21.2
-14.17
-6.67
0.65
7.2
12.6
16.61
19.14
20.19
19.83
18.2
15.58
12.36
9.01
5.98
3.63
2.2
1.76
2.29
3.7
5.77
8.16
10.42
12.02
12.52
11.69
9.55
6.35
2.53
-1.34
-4.74
-7.25
-8.71
-9.24
-9.34
-9.69
-11.01
-13.64
-17.52
-22.15
-26.78
-30.74
-33.62
-35.32
-35.98
-35.76
-34.78
-33.15
-30.92
-28.11
-24.76
-20.78
-16.01
-10.24
-3.33
4.59
13.09
21.5
29.09
35.22
39.53
41.92
42.53
41.64
39.57
36.66
33.31
29.83
26.49
23.52
21.1
19.31
18.18
17.66
17.64
17.99
18.58
19.26
19.92
20.44
20.62
20.25
19.13
17.22
14.65
11.72
8.82
6.21
4.01
2.16
0.47
-1.21
-2.92
-4.63
-6.26
-7.75
-9.15
-10.52
-11.88
-13.23
-14.6
-16.04
-17.72
-19.77
-22.22
-24.8
-26.96
-27.98
-27.31
-24.73
-20.45
-15.09
-9.36
-3.91
0.88
4.91
8.24
10.95
13.01
14.3
14.64
14.02
12.62
10.87
9.28
8.24
7.94
8.31
9.11
10.05
10.93
11.63
12.07
12.14
11.76
10.86
9.47
7.75
5.92
4.23
2.87
1.9
1.28
0.88
0.53
0.05
-0.7
-1.74
-2.99
-4.34
-5.7
-7.07
-8.48
-10.02
-11.78
-13.77
-15.95
-18.19
-20.3
-21.96
-22.8
-22.39
-20.45
-16.96
-12.23
-6.88
-1.65
2.86
6.31
8.68
10.17
10.94
11.11
10.7
9.69
8.2
6.51
4.95
3.85
3.3
3.19
3.32
3.52
3.72
3.97
4.39
4.96
5.55
5.93
5.83
5.1
3.71
1.74
-0.66
-3.28
-5.92
-8.4
-10.5
-12.15
-13.34
-14.16
-14.76
-15.25
-15.7
-16.19
-16.77
-17.49
-18.36
-19.29
-20.03
-20.26
-19.72
-18.25
-15.95
-13.01
-9.68
-6.18
-2.66
0.75
3.87
6.48
8.35
9.31
9.36
8.68
7.54
6.31
5.35
4.91
5.06
5.7
6.57
7.42
8.08
8.49
8.69
8.7
8.44
7.72
6.38
4.37
1.81
-1.0
-3.77
-6.24
-8.33
-10.08
-11.58
-12.93
-14.17
-15.35
-16.54
-17.84
-19.25
-20.66
-21.77
-22.11
-21.28
-19.09
-15.62
-11.22
-6.34
-1.41
3.24
7.36
10.72
13.12
14.4
14.57
13.85
12.59
11.22
10.01
9.14
8.62
8.4
8.41
8.57
8.78
8.94
8.95
8.71
8.16
7.27
6.03
4.48
2.72
0.82
-1.15
-3.14
-5.11
-7.03
-8.83
-10.43
-11.81
-13.0
-14.17
-15.46
-16.99
-18.72
-20.45
-21.85
-22.56
-22.3
-20.89
-18.35
-14.8
-10.5
-5.75
-0.93
3.61
7.53
10.58
12.7
13.97
14.61
14.85
14.9
14.9
14.91
14.98
15.16
15.5
15.95
16.44
16.8
16.87
16.57
15.9
14.85
13.46
11.73
9.64
7.18
4.4
1.42
-1.52
-4.18
-6.39
-8.06
-9.26
-10.13
-10.91
-11.83
-13.09
-14.75
-16.73
-18.77
-20.44
-21.31
-21.01
-19.37
-16.5
-12.69
-8.33
-3.79
0.62
4.65
8.05
10.66
12.36
13.18
13.3
12.96
12.45
12.01
11.79
11.88
12.34
13.19
14.37
15.71
16.93
17.7
17.77
17.05
15.66
13.83
11.87
9.98
8.24
6.59
4.92
3.14
1.22
-0.81
-2.87
-4.84
-6.59
-8.05
-9.22
-10.17
-11.05
-12.06
-13.36
-14.97
-16.77
-18.43
-19.56
-19.78
-18.85
-16.68
-13.41
-9.28
-4.65
0.1
4.6
8.53
11.65
13.79
14.93
15.14
14.66
13.75
12.72
11.81
11.14
10.72
10.47
10.31
10.19
10.08
9.96
9.76
9.41
8.81
7.96
6.97
5.96
5.04
4.22
3.41
2.54
1.6
0.62
-0.29
-1.11
-1.9
-2.78
-3.86
-5.19
-6.72
-8.3
-9.85
-11.26
-12.53
-13.71
-14.88
-16.06
-17.18
-18.05
-18.4
-17.96
-16.59
-14.31
-11.25
-7.64
-3.71
0.27
4.05
7.32
9.78
11.23
11.63
11.19
10.27
9.3
8.63
8.45
8.78
9.46
10.24
10.89
11.2
11.11
10.67
9.95
9.11
8.24
7.42
6.66
5.97
5.34
4.67
3.88
2.86
1.56
0.0
-1.68
-3.39
-5.04
-6.63
-8.17
-9.66
-11.14
-12.63
-14.23
-16.0
-17.88
-19.64
-20.93
-21.3
-20.4
-18.16
-14.78
-10.64
-6.17
-1.7
2.55
6.45
9.9
12.8
15.02
16.47
17.14
17.14
16.59
15.69
14.62
13.53
12.61
11.97
11.68
11.7
11.91
12.14
12.15
11.79
11.0
9.83
8.37
6.79
5.18
3.6
2.08
0.6
-0.86
-2.3
-3.73
-5.09
-6.29
-7.28
-8.04
-8.6
-9.06
-9.54
-10.26
-11.4
-13.09
-15.32
-17.84
-20.23
-21.94
-22.5
-21.63
-19.39
-16.03
-11.95
-7.54
-3.18
0.84
4.31
7.04
9.03
10.36
11.24
11.87
12.37
12.67
12.69
12.38
11.77
11.06
10.47
10.14
10.09
10.21
10.36
10.41
10.28
9.9
9.25
8.24
6.88
5.21
3.39
1.63
0.1
-1.19
-2.36
-3.63
-5.24
-7.26
-9.53
-11.76
-13.6
-14.88
-15.69
-16.34
-17.19
-18.5
-20.24
-22.16
-23.8
-24.75
-24.67
-23.42
-20.97
-17.43
-13.06
-8.2
-3.25
1.4
5.47
8.72
10.98
12.18
12.31
11.5
10.08
8.47
7.07
6.15
5.75
5.73
5.85
5.94
5.89
5.73
5.51
5.22
4.86
4.37
3.67
2.77
1.66
0.35
-1.12
-2.73
-4.39
-5.98
-7.38
-8.5
-9.3
-9.83
-10.21
-10.64
-11.33
-12.4
-13.89
-15.58
-17.17
-18.23
-18.4
-17.47
-15.43
-12.5
-8.99
-5.25
-1.63
1.54
4.03
5.68
6.53
6.8
6.74
6.6
6.45
6.24
5.86
5.29
4.59
3.99
3.61
3.43
3.25
2.81
1.93
0.67
-0.82
-2.35
-3.86
-5.33
-6.81
-8.29
-9.68
-10.88
-11.82
-12.42
-12.67
-12.57
-12.17
-11.63
-11.22
-11.26
-11.87
-12.9
-13.86
-14.16
-13.36
-11.34
-8.27
-4.44
-0.13
4.43
9.02
13.35
17.02
19.68
21.08
21.25
20.49
19.26
17.98
16.86
15.87
14.73
13.2
11.16
8.64
5.82
2.76
-0.63
-4.47
-8.66
-12.76
-15.99
-17.52
-16.94
-14.44
-10.71
-6.63
-2.89
0.31
3.03
5.5
7.8
9.79
11.15
11.56
10.77
8.72
5.55
1.54
-2.82
-6.95
-10.22
-12.09
-12.22
-10.52
-7.24
-2.78
2.27
7.33
11.87
15.54
18.22
20.02
21.15
21.85
22.34
22.72
23.04
23.27
23.33
23.16
22.69
21.89
20.76
19.4
17.97
16.66
15.6
14.83
14.21
13.59
12.83
11.94
11.11
10.64
10.77
11.5
12.52
13.21
12.9
11.12
7.76
3.19
-2.06
-7.41
-12.5
-17.12
-21.11
-24.2
-26.08
-26.57
-25.82
-24.37
-22.96
-22.21
-22.25
-22.85
-23.47
-23.75
-23.65
-23.47
-23.61
-24.23
-25.08
-25.57
-25.02
-22.95
-19.26
-14.29
-8.53
-2.58
3.17
8.43
13.03
16.78
19.46
20.87
20.92
19.79
17.73
15.14
12.25
9.13
5.7
1.85
-2.36
-6.65
-10.45
-13.16
-14.36
-14.05
-12.75
-11.25
-10.28
-10.11
-10.43
-10.49
-9.51
-7.13
-3.61
0.36
4.08
7.13
9.55
11.5
13.07
14.08
14.34
13.79
12.74
11.82
11.58
12.28
13.8
15.8
17.98
20.27
22.77
25.46
28.06
30.01
30.71
29.79
27.17
23.12
18.04
12.34
6.37
0.43
-5.25
-10.57
-15.5
-20.2
-24.82
-29.39
-33.8
-37.69
-40.63
-42.27
-42.39
-40.95
-38.08
-34.0
-29.04
-23.59
-18.01
-12.6
-7.56
-2.91
1.27
4.85
7.47
8.73
8.27
6.15
2.83
-0.89
-4.11
-6.25
-7.07
-6.73
-5.56
-3.89
-1.92
0.27
2.61
5.01
7.28
9.23
10.67
11.45
11.46
10.65
9.01
6.67
3.82
0.64
-2.72
-6.15
-9.61
-12.95
-15.92
-18.18
-19.41
-19.3
-17.69
-14.54
-10.03
-4.57
1.27
6.89
11.86
16.0
19.44
22.44
25.15
27.49
29.17
29.89
29.51
28.15
26.14
23.78
21.3
18.76
16.19
13.68
11.44
9.71
8.77
8.71
9.55
11.17
13.35
15.77
18.0
19.59
20.15
19.59
18.05
15.9
13.51
11.07
8.59
5.91
2.94
-0.37
-3.85
-7.29
-10.44
-13.08
-14.97
-15.87
-15.64
-14.27
-11.96
-9.13
-6.18
-3.51
-1.37
0.11
0.85
0.81
0.04
-1.28
-2.89
-4.48
-5.85
-6.94
-7.75
-8.31
-8.62
-8.65
-8.38
-7.92
-7.5
-7.35
-7.66
-8.45
-9.58
-10.88
-12.18
-13.4
-14.55
-15.67
-16.76
-17.83
-18.85
-19.84
-20.85
-21.87
-22.78
-23.27
-22.92
-21.31
-18.24
-13.78
-8.35
-2.46
3.34
8.71
13.53
17.88
21.95
25.86
29.6
32.93
35.48
36.89
36.91
35.54
32.98
29.61
25.82
21.94
18.21
14.72
11.49
8.47
5.64
3.0
0.59
-1.53
-3.35
-4.9
-6.31
-7.63
-8.86
-9.91
-10.76
-11.51
-12.42
-13.71
-15.42
-17.25
-18.58
-18.73
-17.2
-13.9
-9.11
-3.43
2.46
7.96
12.57
16.0
18.1
18.84
18.32
16.72
14.35
11.56
8.73
6.17
4.12
2.64
1.66
1.08
0.76
0.62
0.68
0.93
1.38
1.93
2.4
2.61
2.39
1.63
0.29
-1.52
-3.63
-5.86
-8.06
-10.18
-12.29
-14.47
-16.7
-18.78
-20.34
-20.99
-20.42
-18.52
-15.52
-11.71
-7.5
-3.24
0.82
4.46
7.49
9.81
11.42
12.35
12.76
12.74
12.34
11.53
10.36
8.88
7.24
5.67
4.26
3.12
2.32
1.87
1.79
1.97
2.16
2.08
1.47
0.19
-1.68
-3.91
-6.26
-8.46
-10.41
-12.1
-13.58
-14.96
-16.37
-17.83
-19.26
-20.45
-21.01
-20.66
-19.17
-16.58
-13.08
-9.03
-4.79
-0.62
3.22
6.57
9.31
11.36
12.73
13.42
13.48
12.96
11.86
10.21
8.11
5.79
3.52
1.62
0.33
-0.29
-0.31
-0.03
0.23
0.18
-0.32
-1.23
-2.39
-3.62
-4.79
-5.92
-7.08
-8.41
-9.97
-11.7
-13.46
-15.04
-16.19
-16.73
-16.5
-15.39
-13.36
-10.38
-6.59
-2.15
2.68
7.55
12.08
15.88
18.69
20.34
20.85
20.34
19.01
17.09
14.79
12.34
9.99
7.92
6.25
4.94
3.89
2.96
2.08
1.21
0.34
-0.59
-1.72
-3.17
-4.97
-6.97
-8.91
-10.51
-11.67
-12.45
-13.09
-13.89
-15.04
-16.53
-18.15
-19.56
-20.42
-20.45
-19.47
-17.45
-14.48
-10.75
-6.55
-2.2
1.92
5.47
8.22
10.07
11.11
11.53
11.59
11.43
11.12
10.63
9.89
8.9
7.8
6.72
5.82
5.14
4.59
4.03
3.37
2.66
1.97
1.39
0.9
0.38
-0.33
-1.3
-2.48
-3.77
-5.09
-6.49
-8.05
-9.78
-11.56
-13.1
-14.1
-14.35
-13.82
-12.66
-10.98
-8.81
-6.09
-2.77
1.03
4.98
8.67
11.74
14.0
15.45
16.19
16.28
15.67
14.36
12.47
10.35
8.44
7.14
6.57
6.56
6.8
6.96
6.91
6.63
6.25
5.81
5.35
4.81
4.14
3.29
2.18
0.75
-1.05
-3.15
-5.34
-7.38
-9.11
-10.52
-11.75
-12.94
-14.2
-15.49
-16.71
-17.74
-18.5
-18.9
-18.77
-17.88
-15.99
-13.02
-9.11
-4.66
-0.16
3.96
7.44
10.19
12.23
13.56
14.18
14.13
13.52
12.52
11.38
10.28
9.33
8.54
7.9
7.39
6.99
6.69
6.42
6.11
5.71
5.25
4.79
4.36
3.88
3.15
2.0
0.34
-1.66
-3.75
-5.66
-7.27
-8.68
-10.13
-11.76
-13.54
-15.26
-16.59
-17.32
-17.42
-17.02
-16.31
-15.4
-14.19
-12.46
-9.94
-6.51
-2.3
2.28
6.72
10.49
13.32
15.17
16.2
16.65
16.68
16.37
15.74
14.89
14.04
13.46
13.32
13.6
14.01
14.22
13.96
13.16
12.01
10.74
9.57
8.55
7.61
6.64
5.56
4.41
3.21
2.05
0.88
-0.36
-1.78
-3.46
-5.36
-7.35
-9.2
-10.74
-11.98
-13.14
-14.53
-16.34
-18.5
-20.63
-22.18
-22.62
-21.68
-19.42
-16.22
-12.52
-8.78
-5.33
-2.44
-0.31
0.93
1.3
0.99
0.37
-0.12
-0.14
0.35
1.07
1.68
1.96
1.99
2.06
2.48
3.3
4.24
4.93
4.96
4.2
2.62
0.28
-2.84
-6.69
-10.99
-15.09
-18.02
-19.02
-17.97
-15.61
-13.33
-12.46
-13.66
-16.67
-20.45
-23.71
-25.6
-26.04
-25.58
-25.06
-25.1
-25.91
-27.26
-28.56
-28.74
-26.35
-19.87
-8.38
7.49
25.24
40.81
49.93
49.97
41.08
26.41
10.9
-0.71
-5.69
-3.99
2.31
10.18
16.94
21.09
22.25
20.86
17.66
13.31
8.68
4.99
3.93
7.34
16.2
29.58
44.34
55.75
59.44
53.49
39.68
22.62
7.6
-2.1
-6.2
-6.39
-4.19
0.44
7.99
17.29
24.12
22.68
9.27
-13.87
-37.45
-48.55
-37.05
-1.27
50.68
104.64
147.13
170.82
175.8
166.53
147.33
119.26
80.64
30.5
-27.99
-86.62
-134.42
-162.18
-166.3
-149.84
-120.46
-87.01
-56.58
-33.6
-20.34
-17.41
-23.88
-36.8
-51.12
-60.69
-60.49
-48.93
-28.95
-7.27
7.9
9.96
-3.67
-30.56
-63.71
-93.65
-111.63
-112.79
-97.62
-72.03
-45.05
-25.67
-20.24
-31.0
-56.07
-90.1
-125.83
-155.75
-173.64
-175.93
-162.27
-135.8
-102.38
-68.92
-41.33
-22.52
-11.04
-1.26
14.64
42.99
85.09
135.38
182.32
212.48
215.35
187.31
132.72
62.66
-8.52
-66.91
-102.08
-109.38
-90.2
-51.19
-2.15
46.56
86.18
111.1
119.3
111.97
92.66
66.27
38.28
13.72
-3.85
-12.95
-14.4
-10.48
-3.91
2.83
8.29
11.97
14.13
15.54
17.11
19.13
21.02
21.81
20.56
17.09
12.45
9.05
9.96
17.63
32.19
50.83
68.31
78.9
79.06
69.0
52.92
36.86
25.99
22.52
25.19
30.67
35.6
38.2
38.45
37.16
34.77
30.76
24.3
15.21
4.53
-5.6
-12.78
-15.48
-13.82
-9.61
-5.44
-3.67
-5.36
-10.09
-16.28
-21.94
-25.48
-26.01
-23.2
-17.13
-8.4
1.55
10.49
15.95
16.31
11.66
3.9
-4.02
-9.46
-11.2
-9.73
-6.74
-4.02
-2.58
-2.49
-3.44
-5.19
-7.83
-11.3
-14.97
-17.52
-17.5
-14.13
-7.86
-0.29
6.56
11.1
12.67
11.59
8.68
4.62
-0.3
-6.01
-12.3
-18.46
-23.41
-26.1
-26.06
-23.61
-19.87
-16.33
-14.41
-14.9
-17.76
-22.12
-26.46
-29.2
-29.24
-26.28
-20.82
-14.0
-7.22
-1.72
1.85
3.66
4.56
5.53
7.09
9.03
10.38
10.14
7.98
4.6
1.51
0.34
2.09
6.67
13.06
19.8
25.43
28.89
29.56
27.33
22.69
16.74
11.04
7.1
5.82
7.13
10.0
12.94
14.53
13.68
9.79
2.7
-7.16
-18.7
-30.26
-40.04
-46.65
-49.59
-49.27
-46.67
-42.78
-38.36
-33.88
-29.69
-26.08
-23.01
-19.81
-15.12
-7.47
3.8
17.84
32.37
44.68
52.77
56.15
55.75
53.17
49.75
46.0
41.63
36.09
29.25
21.67
14.59
9.34
6.92
7.52
10.58
14.96
19.4
22.98
25.23
26.04
25.43
23.48
20.41
16.89
13.85
12.22
12.32
13.47
14.23
13.11
9.4
3.65
-2.65
-7.87
-11.06
-12.26
-12.31
-12.08
-11.85
-11.21
-9.39
-5.91
-1.02
4.22
8.33
10.0
8.63
4.64
-0.67
-5.39
-7.74
-6.58
-1.93
5.1
12.72
19.16
23.22
24.48
23.36
20.61
17.07
13.44
10.35
8.37
7.81
8.4
9.0
7.92
3.66
-4.27
-15.07
-26.86
-37.49
-45.22
-49.05
-48.64
-43.98
-35.39
-23.81
-11.18
-0.26
6.12
6.22
0.35
-9.18
-18.83
-25.05
-25.38
-19.2
-7.88
5.64
17.64
24.86
25.57
20.25
11.25
1.66
-6.1
-11.41
-15.37
-19.83
-25.88
-33.11
-39.67
-43.27
-42.5
-37.34
-28.9
-18.58
-7.27
4.93
18.14
31.89
44.51
53.23
55.23
49.01
35.47
17.88
0.56
-12.98
-21.49
-26.05
-29.06
-32.45
-36.44
-39.61
-39.94
-36.36
-29.54
-21.62
-15.05
-11.39
-10.7
-11.77
-13.02
-13.03
-10.88
-6.0
2.03
13.35
27.44
42.85
57.22
67.77
72.22
69.49
60.16
46.28
30.81
16.68
6.06
-0.17
-2.59
-2.53
-1.32
0.35
2.49
5.21
8.0
9.47
7.99
2.71
-5.67
-15.12
-23.34
-29.1
-32.98
-36.92
-42.79
-50.76
-58.84
-63.57
-61.82
-52.6
-37.6
-20.67
-6.21
2.49
4.27
0.04
-8.03
-17.8
-28.07
-38.64
-49.76
-61.19
-71.75
-79.52
-82.95
-81.76
-77.35
-72.32
-69.12
-68.86
-70.89
-73.36
-74.64
-74.47
-74.07
-75.08
-78.31
-82.69
-85.94
-85.93
-82.0
-75.52
-68.93
-64.29
-62.17
-61.78
-61.62
-60.76
-59.02
-56.34
-52.04
-44.26
-30.42
-8.38
22.35
60.16
101.51
141.9
177.25
204.58
222.44
230.68
230.03
221.66
207.28
189.24
170.58
154.61
144.0
139.95
141.59
146.36
150.91
152.36
149.08
140.96
129.08
115.36
102.21
91.99
86.3
85.15
86.45
86.54
81.62
69.42
50.7
29.17
9.87
-3.17
-8.74
-8.82
-7.11
-6.96
-9.77
-14.65
-19.32
-21.81
-21.51
-19.21
-16.33
-13.9
-12.22
-11.11
-10.46
-10.44
-11.44
-13.77
-17.36
-22.05
-27.95
-35.65
-45.84
-58.44
-71.95
-83.51
-90.21
-90.66
-86.43
-81.61
-80.92
-87.06
-98.78
-111.29
-118.63
-116.66
-105.08
-87.4
-68.46
-51.67
-37.7
-24.84
-11.37
2.57
14.52
21.05
19.81
11.47
-0.47
-11.26
-17.06
-16.61
-11.42
-4.59
0.95
3.45
2.97
0.99
-0.68
-0.43
2.28
6.66
10.84
12.65
10.38
3.76
-6.03
-17.17
-27.79
-36.34
-41.09
-39.72
-29.66
-9.63
18.65
49.82
76.16
90.68
90.02
75.79
53.43
29.34
8.19
-8.05
-19.58
-27.42
-32.1
-33.78
-32.86
-30.39
-27.95
-26.97
-28.18
-31.36
-35.56
-39.08
-39.94
-36.25
-26.8
-11.88
6.57
25.32
40.96
51.13
55.23
54.33
50.37
45.17
39.8
34.57
29.48
24.69
20.64
17.87
16.63
16.63
17.24
17.75
17.62
16.7
15.12
13.32
11.92
11.44
12.05
13.3
14.17
13.43
10.19
4.47
-2.78
-10.16
-16.6
-21.68
-25.5
-28.12
-28.95
-26.98
-21.49
-12.94
-3.15
5.52
11.48
14.86
17.3
20.99
27.22
35.54
43.93
49.79
51.34
48.47
42.76
36.92
33.9
35.87
43.49
55.31
68.02
77.31
79.17
71.15
53.25
27.88
-1.03
-29.31
-53.71
-72.64
-86.22
-95.7
-102.48
-106.98
-108.1
-103.55
-91.14
-70.42
-43.77
-15.98
7.51
22.9
29.65
30.6
30.44
33.35
41.35
53.8
67.97
80.21
87.15
86.56
78.03
63.52
47.14
33.82
27.53
29.33
36.58
43.93
45.52
37.95
22.03
2.65
-13.23
-19.52
-13.7
2.08
22.38
41.1
54.49
62.71
69.01
77.1
88.04
98.97
104.11
97.98
78.19
46.41
7.01
-35.97
-81.25
-130.7
-187.45
-252.51
-321.69
-385.28
-430.25
-444.8
-423.01
-367.52
-289.16
-203.18
-124.06
-61.02
-16.21
14.08
36.26
55.77
75.4
95.26
114.23
131.39
146.44
159.27
169.39
176.05
178.45
176.78
172.54
168.34
167.18
171.43
181.8
196.97
213.76
227.77
234.68
231.46
217.27
193.53
163.21
129.83
96.43
64.93
36.23
10.43
-13.02
-35.32
-58.43
-85.02
-117.88
-158.84
-207.55
-260.7
-312.06
-353.98
-379.68
-385.68
-373.39
-348.23
-317.24
-286.09
-256.98
-228.56
-198.05
-163.56
-125.18
-84.88
-44.8
-6.41
29.63
62.48
90.14
109.53
117.88
114.18
100.42
81.21
62.05
47.57
40.04
39.14
42.72
48.02
52.74
55.43
55.46
52.56
46.76
38.42
28.25
17.47
7.4
-0.91
-7.24
-11.9
-15.96
-21.09
-29.04
-41.26
-57.79
-76.98
-95.57
-109.6
-115.96
-113.61
-104.01
-90.53
-77.19
-67.43
-63.63
-66.79
-76.79
-92.3
-110.61
-127.76
-139.13
-140.47
-128.84
-103.52
-66.21
-21.16
25.0
64.35
89.64
96.69
86.35
64.82
41.68
26.43
24.83
36.94
57.75
79.83
96.47
104.03
102.39
93.95
82.02
69.42
57.81
47.4
37.17
25.65
12.31
-1.43
-12.16
-15.43
-7.52
13.04
44.91
84.07
124.31
158.4
179.36
182.18
166.16
136.61
104.82
85.19
89.84
123.18
179.34
244.36
301.93
340.14
355.18
350.76
334.13
311.58
285.68
255.38
218.24
173.01
121.23
66.73
14.14
-32.77
-72.12
-103.85
-129.02
-149.01
-164.98
-177.2
-185.23
-188.12
-184.87
-175.21
-160.13
-141.96
-123.85
-108.58
-97.44
-89.75
-83.25
-75.16
-63.45
-47.55
-28.1
-6.55
15.37
35.57
51.63
61.29
63.38
58.72
50.17
41.64
36.28
34.91
35.53
34.1
26.12
7.89
-22.39
-63.92
-112.77
-161.85
-201.66
-222.77
-219.29
-191.76
-147.76
-99.08
-57.12
-28.52
-13.28
-6.29
-1.11
6.23
15.51
23.39
26.31
22.92
14.66
4.04
-7.58
-21.28
-39.91
-65.42
-96.27
-126.5
-147.42
-151.05
-133.57
-97.15
-49.04
0.97
43.85
73.28
86.49
83.84
67.92
42.93
13.78
-14.55
-38.08
-54.38
-62.75
-63.8
-58.96
-50.26
-40.14
-31.17
-25.16
-22.17
-19.9
-14.91
-4.37
11.91
30.64
46.53
54.9
54.24
46.95
38.16
32.96
33.85
39.91
47.78
54.07
57.26
58.71
61.58
68.96
81.77
97.7
111.69
117.81
111.82
93.1
65.14
34.32
7.42
-10.63
-18.5
-18.16
-13.68
-9.31
-8.01
-10.36
-14.83
-18.83
-20.08
-17.66
-12.6
-7.4
-4.87
-6.81
-13.25
-22.71
-32.96
-41.88
-47.69
-48.58
-42.95
-30.06
-11.22
9.51
26.1
33.08
28.49
15.71
2.58
-2.22
6.67
28.68
57.64
85.21
104.97
115.04
118.11
119.78
125.5
138.11
156.65
176.68
191.41
193.73
178.09
142.47
90.03
28.66
-30.72
-77.68
-105.86
-115.1
-111.05
-102.2
-96.4
-97.85
-106.81
-120.89
-136.73
-150.82
-159.07
-156.43
-137.92
-101.56
-51.16
2.91
47.13
70.67
70.53
53.04
29.98
12.03
3.29
0.37
-3.67
-13.41
-27.31
-38.57
-39.29
-25.58
-0.02
29.52
54.13
68.07
70.71
66.2
60.34
57.62
58.91
60.9
57.51
43.0
14.87
-24.67
-69.02
-109.91
-140.17
-156.41
-159.53
-154.0
-145.79
-140.48
-141.74
-150.11
-163.09
-176.03
-183.92
-183.36
-173.77
-157.06
-135.88
-111.66
-83.73
-50.53
-12.04
28.51
64.62
88.99
96.82
88.18
67.76
42.68
19.06
-0.16
-15.12
-27.39
-37.77
-45.33
-47.97
-44.24
-34.91
-23.26
-13.91
-10.98
-16.72
-31.08
-51.91
-75.53
-97.07
-110.96
-111.39
-93.55
-55.16
1.89
71.47
144.98
213.99
273.16
321.04
358.72
387.13
405.17
409.69
397.34
367.11
321.56
265.55
203.67
138.03
68.5
-4.7
-77.68
-141.46
-184.06
-195.9
-174.89
-128.39
-71.04
-19.11
15.75
30.01
27.28
14.24
-3.82
-24.7
-47.85
-71.36
-90.22
-97.95
-90.42
-69.61
-44.55
-28.34
-32.46
-61.42
-110.55
-167.66
-217.51
-247.23
-250.1
-226.58
-182.76
-127.32
-68.39
-11.38
41.64
90.86
136.57
177.47
210.5
232.31
241.29
238.82
228.72
215.25
200.89
185.49
167.08
144.07
117.17
89.7
66.27
50.49
43.05
41.32
40.32
34.36
18.48
-10.31
-51.97
-103.15
-157.13
-205.49
-240.7
-258.48
-258.89
-245.24
-221.87
-192.4
-159.63
-126.52
-97.55
-78.7
-75.47
-90.65
-123.06
-167.95
-218.6
-268.34
-311.11
-341.58
-355.45
-350.3
-326.75
-289.18
-244.66
-200.23
-160.56
-126.27
-94.51
-60.62
-19.91
30.79
92.28
162.8
237.75
309.52
368.68
405.89
414.66
394.11
349.78
292.41
234.83
187.93
157.66
144.06
142.37
145.25
145.73
138.76
122.16
96.58
64.94
31.55
1.25
-21.96
-36.12
-41.45
-40.02
-34.77
-28.35
-22.48
-18.0
-15.13
-14.01
-14.84
-17.51
-21.43
-25.61
-28.91
-30.71
-31.27
-31.75
-33.65
-37.95
-44.46
-51.91
-58.7
-63.93
-67.95
-72.0
-77.26
-83.7
-89.81
-93.47
-93.28
-89.68
-84.92
-81.89
-82.65
-87.24
-93.89
-99.95
-103.25
-102.94
-99.46
-94.15
-88.59
-84.14
-81.37
-79.82
-77.97
-73.3
-63.11
-45.79
-21.96
5.07
30.17
48.36
56.89
56.56
51.41
46.69
46.36
51.26
59.22
66.71
70.81
70.39
65.79
57.76
46.55
32.1
14.9
-3.11
-18.73
-28.91
-32.08
-28.67
-20.15
-7.66
8.73
29.49
54.21
80.88
106.64
129.43
149.36
168.29
188.11
208.52
226.43
237.36
238.26
229.38
214.53
199.07
187.22
180.37
176.87
173.56
167.41
156.69
141.19
121.89
100.19
77.39
54.5
31.82
9.08
-14.32
-38.46
-62.2
-82.82
-96.77
-101.18
-95.02
-80.08
-60.78
-43.2
-33.08
-34.07
-46.7
-68.31
-94.1
-118.43
-136.6
-145.85
-145.84
-138.31
-126.0
-111.46
-95.95
-79.27
-60.34
-38.55
-14.7
8.52
27.08
37.17
36.81
26.89
10.96
-5.98
-19.38
-26.48
-27.01
-23.15
-18.47
-16.49
-19.33
-27.14
-37.96
-48.92
-57.5
-62.44
-64.09
-63.63
-62.27
-60.65
-58.84
-56.25
-51.5
-42.32
-26.13
-1.76
28.71
58.97
80.09
84.35
69.48
40.61
8.41
-15.88
-26.04
-23.32
-14.97
-9.52
-12.1
-22.25
-35.38
-45.93
-50.09
-47.07
-38.24
-26.05
-13.01
-1.3
7.29
11.58
11.31
7.55
2.48
-1.22
-1.41
2.87
11.12
21.55
31.79
39.54
43.3
42.69
38.66
32.73
26.01
18.59
9.51
-2.25
-16.51
-31.18
-42.62
-46.78
-41.14
-26.23
-5.98
13.32
25.35
26.06
15.33
-3.12
-23.36
-39.47
-47.65
-47.07
-39.84
-29.75
-21.02
-16.99
-19.31
-27.91
-41.1
-55.74
-67.99
-74.49
-73.14
-63.93
-49.07
-32.21
-17.17
-6.87
-2.73
-4.7
-11.55
-21.02
-30.12
-35.31
-33.43
-22.82
-4.47
17.67
38.24
53.1
61.9
68.3
77.99
94.91
118.73
144.9
167.67
184.07
195.86
208.06
224.53
244.11
259.75
261.53
242.05
200.75
144.47
83.69
27.51
-19.78
-58.4
-89.99
-114.35
-128.65
-129.41
-115.5
-90.43
-61.34
-36.02
-19.67
-13.43
-15.24
-22.11
-32.17
-45.06
-61.05
-79.73
-99.35
-117.17
-130.11
-135.32
-130.68
-115.55
-91.58
-63.19
-36.69
-18.27
-11.6
-16.49
-29.27
-44.92
-59.42
-70.86
-78.94
-83.14
-81.42
-70.6
-48.16
-14.07
28.68
74.97
119.35
157.39
186.62
206.1
215.73
215.82
207.45
193.43
178.83
170.28
173.54
190.71
218.08
246.58
265.12
264.88
242.83
202.55
151.95
99.39
50.05
4.75
-38.32
-80.23
-118.7
-147.95
-160.99
-153.4
-126.29
-87.14
-47.45
-18.69
-8.07
-16.77
-40.79
-73.43
-108.26
-140.7
-168.2
-189.37
-203.39
-210.23
-211.63
-211.51
-215.21
-227.52
-250.02
-279.47
-308.05
-325.86
-324.76
-301.34
-258.27
-203.03
-145.43
-94.54
-56.31
-32.65
-21.63
-18.6
-17.68
-13.32
-1.58
18.7
45.92
76.31
105.25
128.77
144.81
153.46
156.45
155.76
152.26
145.09
132.39
113.31
89.96
68.15
55.6
58.14
76.09
102.9
127.46
139.22
133.15
112.18
85.13
61.68
47.5
41.86
39.29
33.79
22.65
7.67
-6.47
-15.81
-19.76
-21.26
-25.05
-34.81
-51.27
-72.21
-94.09
-113.94
-130.57
-144.46
-156.91
-168.82
-180.08
-189.44
-194.9
-194.43
-186.77
-172.07
-152.19
-130.09
-109.06
-91.72
-79.62
-72.87
-70.36
-69.9
-68.6
-63.37
-51.64
-32.29
-6.23
23.73
54.24
82.8
109.2
135.25
163.48
195.27
229.45
262.41
289.12
304.98
307.15
295.57
272.89
243.6
212.84
184.87
162.25
145.73
134.65
127.89
124.48
123.82
124.88
125.78
123.67
115.61
99.91
77.0
49.48
20.99
-5.29
-27.97
-47.46
-65.32
-82.72
-99.46
-113.82
-123.38
-126.53
-123.46
-116.45
-108.77
-103.16
-100.69
-100.56
-100.97
-100.48
-98.73
-96.39
-94.62
-94.43
-96.49
-101.19
-108.57
-118.19
-129.12
-140.21
-150.33
-158.64
-164.68
-167.89
-167.64
-163.46
-155.76
-146.35
-137.88
-132.51
-130.42
-129.2
-124.71
-113.27
-93.6
-67.55
-39.3
-13.39
6.99
20.78
28.69
32.22
32.72
31.22
29.03
27.99
30.73
40.04
58.07
85.62
122.45
167.75
220.79
280.68
345.22
409.94
467.93
511.63
535.43
537.99
522.73
496.14
464.69
432.33
399.77
365.06
325.38
278.53
223.59
161.27
93.8
24.86
-40.84
-98.22
-143.19
-173.66
-189.51
-192.43
-184.97
-170.15
-151.49
-133.12
-119.08
-111.83
-110.72
-111.79
-109.76
-101.19
-87.22
-73.56
-67.72
-74.56
-93.16
-116.53
-134.9
-140.43
-130.59
-108.43
-80.12
-51.21
-24.5
-0.16
22.55
43.7
62.46
78.03
90.43
99.96
106.15
106.44
96.62
73.14
35.98
-9.81
-55.29
-91.47
-113.57
-123.05
-126.46
-131.46
-142.71
-159.76
-178.22
-192.71
-199.83
-199.25
-192.67
-181.9
-167.84
-150.65
-131.31
-112.47
-97.87
-90.41
-90.21
-93.95
-96.24
-92.22
-79.93
-61.17
-40.26
-21.6
-7.72
1.46
7.59
12.36
16.42
19.25
19.97
18.26
14.86
11.3
8.98
8.41
9.02
9.61
9.21
7.68
5.78
4.57
4.81
6.49
8.86
10.77
11.23
9.84
6.89
3.19
-0.34
-3.14
-5.09
-6.6
-8.18
-10.24
-12.88
-15.87
-18.95
-21.92
-24.76
-27.48
-30.08
-32.32
-33.78
-33.95
-32.39
-28.93
-23.75
-17.36
-10.38
-3.51
2.72
7.95
11.99
14.83
16.59
17.44
17.57
17.24
16.67
16.08
15.73
15.72
16.09
16.75
17.53
18.24
18.74
19.0
18.98
18.71
18.11
17.11
15.61
13.6
11.13
8.33
5.36
2.36
-0.56
-3.32
-5.88
-8.22
-10.39
-12.44
-14.43
-16.46
-18.65
-21.1
-23.86
-26.92
-30.08
-32.92
-34.86
-35.22
-33.5
-29.53
-23.53
-16.07
-7.92
0.19
7.67
14.13
19.39
23.38
26.05
27.51
27.96
27.7
27.13
26.57
26.2
26.07
26.1
26.22
26.37
26.56
26.81
27.08
27.27
27.19
26.63
25.46
23.59
21.07
18.02
14.59
11.03
7.6
4.48
1.75
-0.58
-2.55
-4.17
-5.48
-6.59
-7.68
-9.05
-11.0
-13.71
-17.16
-21.11
-25.14
-28.8
-31.6
-33.06
-32.76
-30.41
-26.01
-19.84
-12.48
-4.58
3.25
10.58
17.04
22.3
25.99
27.81
27.7
25.83
22.68
18.86
14.95
11.54
9.09
7.98
8.35
10.09
12.82
15.89
18.65
20.58
21.41
21.11
19.78
17.51
14.36
10.44
6.02
1.57
-2.35
-5.27
-6.98
-7.62
-7.64
-7.62
-8.15
-9.64
-12.26
-15.9
-20.2
-24.57
-28.17
-30.16
-29.85
-26.94
-21.61
-14.46
-6.39
1.73
9.17
15.52
20.64
24.54
27.3
29.07
29.94
30.03
29.52
28.66
27.75
27.09
26.88
27.16
27.78
28.47
28.94
29.04
28.69
27.99
26.95
25.57
23.78
21.5
18.79
15.78
12.7
9.73
6.94
4.28
1.67
-0.92
-3.43
-5.77
-7.97
-10.17
-12.71
-15.85
-19.73
-24.19
-28.74
-32.66
-35.18
-35.65
-33.72
-29.46
-23.33
-16.09
-8.58
-1.5
4.75
10.01
14.32
17.75
20.32
22.03
22.9
23.13
22.97
22.7
22.53
22.48
22.51
22.55
22.6
22.74
23.04
23.52
24.0
24.24
23.96
23.02
21.41
19.36
17.08
14.79
12.54
10.24
7.79
5.08
2.14
-0.9
-3.81
-6.49
-8.88
-11.05
-13.11
-15.19
-17.43
-20.01
-23.0
-26.29
-29.5
-31.97
-32.91
-31.68
-28.07
-22.44
-15.57
-8.4
-1.67
4.22
9.17
13.27
16.52
18.88
20.24
20.65
20.36
19.75
19.22
19.04
19.24
19.69
20.19
20.62
20.96
21.2
21.3
21.11
20.45
19.19
17.33
15.07
12.67
10.33
8.14
6.05
3.94
1.73
-0.61
-3.04
-5.52
-8.01
-10.5
-13.02
-15.63
-18.36
-21.25
-24.22
-27.08
-29.49
-30.95
-30.99
-29.28
-25.75
-20.72
-14.74
-8.44
-2.38
3.07
7.68
11.31
13.86
15.28
15.59
15.0
13.86
12.59
11.59
11.11
11.21
11.76
12.56
13.36
13.95
14.18
14.0
13.44
12.63
11.66
10.53
9.15
7.39
5.19
2.62
-0.15
-2.87
-5.32
-7.45
-9.32
-11.15
-13.17
-15.56
-18.46
-21.88
-25.67
-29.45
-32.65
-34.6
-34.77
-32.84
-28.9
-23.36
-16.85
-10.1
-3.73
1.86
6.48
10.12
12.87
14.82
16.05
16.64
16.73
16.54
16.33
16.35
16.73
17.46
18.4
19.36
20.16
20.67
20.76
20.32
19.27
17.54
15.2
12.42
9.48
6.61
4.01
1.66
-0.51
-2.63
-4.76
-6.89
-8.92
-10.79
-12.54
-14.27
-16.17
-18.41
-21.02
-23.98
-27.12
-30.11
-32.45
-33.59
-33.04
-30.53
-26.17
-20.41
-13.92
-7.38
-1.31
4.0
8.42
11.94
14.57
16.33
17.26
17.51
17.27
16.82
16.37
16.05
15.9
15.91
16.02
16.25
16.62
17.11
17.66
18.09
18.18
17.72
16.55
14.66
12.19
9.42
6.69
4.25
2.27
0.64
-0.83
-2.37
-4.12
-6.0
-7.88
-9.6
-11.13
-12.54
-14.08
-15.92
-18.15
-20.69
-23.36
-25.84
-27.74
-28.66
-28.19
-26.15
-22.63
-18.02
-12.91
-7.85
-3.2
0.91
4.51
7.69
10.45
12.75
14.52
15.78
16.7
17.44
18.14
18.84
19.42
19.74
19.72
19.39
18.86
18.28
17.76
17.31
16.87
16.28
15.38
14.04
12.22
10.0
7.58
5.24
3.27
1.82
0.86
0.13
-0.69
-1.84
-3.38
-5.23
-7.15
-8.98
-10.65
-12.17
-13.65
-15.14
-16.69
-18.29
-19.96
-21.64
-23.19
-24.31
-24.61
-23.74
-21.5
-18.01
-13.6
-8.76
-3.94
0.45
4.13
6.97
8.87
9.86
10.05
9.61
8.8
7.86
6.99
6.34
6.05
6.22
6.89
8.01
9.43
10.91
12.22
13.18
13.71
13.8
13.5
12.83
11.79
10.43
8.78
6.91
4.88
2.73
0.48
-1.82
-4.15
-6.45
-8.67
-10.74
-12.65
-14.44
-16.17
-17.87
-19.53
-21.14
-22.65
-23.99
-25.0
-25.48
-25.18
-23.93
-21.63
-18.39
-14.44
-10.11
-5.74
-1.65
1.98
4.99
7.27
8.8
9.63
9.91
9.89
9.78
9.72
9.84
10.16
10.71
11.47
12.38
13.37
14.26
14.87
15.02
14.68
13.87
12.68
11.19
9.43
7.44
5.23
2.89
0.6
-1.45
-3.17
-4.57
-5.78
-6.99
-8.33
-9.83
-11.39
-12.89
-14.28
-15.66
-17.17
-18.86
-20.56
-21.91
-22.43
-21.76
-19.86
-16.97
-13.53
-10.05
-6.95
-4.51
-2.85
-1.97
-1.72
-1.79
-1.8
-1.39
-0.34
1.29
3.3
5.35
7.17
8.61
9.66
10.39
10.9
11.25
11.48
11.63
11.78
11.99
12.36
12.82
13.27
13.57
13.66
13.55
13.33
13.03
12.59
11.93
10.96
9.79
8.59
7.51
6.53
5.37
3.64
1.05
-2.41
-6.5
-10.86
-15.17
-19.28
-23.04
-26.21
-28.37
-29.04
-27.82
-24.67
-19.92
-14.22
-8.33
-2.99
1.33
4.4
6.25
7.18
7.54
7.62
7.62
7.63
7.66
7.7
7.79
7.92
8.07
8.1
7.84
7.12
5.89
4.2
2.26
0.34
-1.28
-2.3
-2.56
-2.07
-1.07
0.05
0.77
0.66
-0.6
-3.16
-6.88
-11.38
-16.11
-20.44
-23.94
-26.48
-28.16
-29.23
-29.9
-30.22
-30.12
-29.51
-28.43
-27.0
-25.22
-22.82
-19.3
-14.25
-7.59
0.16
8.1
15.25
20.97
25.11
27.97
29.9
31.07
31.41
30.69
28.74
25.6
21.52
16.91
12.22
7.84
4.14
1.37
-0.26
-0.72
-0.13
1.31
3.3
5.51
7.67
9.53
10.93
11.82
12.24
12.26
11.96
11.3
10.17
8.46
6.22
3.66
1.08
-1.22
-3.18
-4.86
-6.51
-8.39
-10.59
-13.05
-15.56
-17.83
-19.54
-20.43
-20.24
-18.84
-16.21
-12.5
-8.08
-3.42
0.98
4.71
7.57
9.52
10.65
11.11
11.09
10.74
10.27
9.91
9.83
10.05
10.46
10.81
10.87
10.57
9.98
9.25
8.54
7.83
7.04
6.01
4.66
2.98
1.1
-0.83
-2.65
-4.22
-5.48
-6.37
-6.9
-7.18
-7.43
-7.88
-8.75
-10.13
-12.0
-14.24
-16.64
-18.92
-20.77
-21.86
-21.92
-20.83
-18.62
-15.52
-11.79
-7.74
-3.62
0.32
3.84
6.69
8.59
9.42
9.25
8.41
7.41
6.77
6.86
7.77
9.27
10.98
12.46
13.4
13.63
13.15
12.04
10.41
8.41
6.26
4.18
2.39
0.98
-0.17
-1.33
-2.77
-4.64
-6.82
-8.95
-10.63
-11.57
-11.76
-11.49
-11.2
-11.3
-12.02
-13.32
-14.92
-16.36
-17.2
-17.07
-15.83
-13.53
-10.41
-6.78
-3.0
0.65
3.89
6.55
8.53
9.82
10.52
10.8
10.8
10.59
10.16
9.53
8.76
8.03
7.53
7.37
7.57
7.97
8.35
8.58
8.56
8.33
7.92
7.37
6.71
5.92
5.07
4.15
3.17
2.09
0.92
-0.33
-1.65
-2.95
-4.24
-5.55
-6.94
-8.41
-9.93
-11.38
-12.64
-13.57
-14.05
-13.95
-13.16
-11.65
-9.45
-6.79
-3.91
-1.12
1.38
3.51
5.27
6.7
7.79
8.49
8.68
8.34
7.56
6.52
5.52
4.79
4.44
4.43
4.64
4.9
5.08
5.18
5.23
5.25
5.22
5.01
4.49
3.59
2.3
0.74
-0.93
-2.56
-4.04
-5.37
-6.61
-7.81
-9.02
-10.33
-11.75
-13.33
-15.06
-16.86
-18.52
-19.74
-20.21
-19.66
-18.04
-15.46
-12.21
-8.65
-5.13
-1.85
1.1
3.75
6.12
8.15
9.67
10.51
10.59
10.05
9.21
8.45
8.05
8.01
8.18
8.27
8.1
7.68
7.23
6.94
6.94
7.14
7.21
6.79
5.63
3.69
1.14
-1.69
-4.49
-7.09
-9.42
-11.54
-13.52
-15.37
-17.1
-18.69
-20.16
-21.48
-22.55
-23.14
-22.92
-21.58
-18.99
-15.29
-10.9
-6.38
-2.19
1.38
4.29
6.62
8.54
10.05
11.13
11.75
11.91
11.83
11.75
11.95
12.51
13.38
14.36
15.2
15.75
15.97
15.96
15.8
15.51
15.03
14.25
13.06
11.43
9.43
7.16
4.73
2.24
-0.25
-2.65
-4.92
-7.02
-8.92
-10.62
-12.19
-13.74
-15.43
-17.33
-19.4
-21.42
-23.03
-23.8
-23.38
-21.64
-18.64
-14.65
-10.05
-5.18
-0.38
4.11
8.03
11.21
13.51
14.88
15.43
15.36
14.88
14.27
13.68
13.16
12.73
12.41
12.24
12.31
12.68
13.3
13.96
14.39
14.36
13.78
12.76
11.42
9.89
8.1
5.91
3.19
-0.07
-3.67
-7.24
-10.39
-12.88
-14.67
-15.93
-16.97
-18.09
-19.57
-21.43
-23.45
-25.16
-25.98
-25.41
-23.21
-19.5
-14.71
-9.45
-4.25
0.53
4.66
8.06
10.66
12.35
13.08
12.92
12.01
10.73
9.46
8.52
8.15
8.4
9.15
10.21
11.36
12.4
13.23
13.82
14.15
14.2
13.9
13.18
11.92
10.08
7.66
4.77
1.62
-1.48
-4.23
-6.44
-8.14
-9.47
-10.7
-12.01
-13.48
-15.11
-16.8
-18.48
-20.07
-21.42
-22.24
-22.2
-21.0
-18.51
-14.89
-10.47
-5.71
-1.04
3.21
6.9
9.97
12.46
14.35
15.63
16.26
16.27
15.76
14.98
14.17
13.58
13.27
13.25
13.41
13.67
13.97
14.25
14.38
14.16
13.37
11.91
9.84
7.43
5.05
2.98
1.35
0.1
-0.92
-1.87
-2.8
-3.73
-4.7
-5.79
-7.14
-8.87
-11.01
-13.51
-16.29
-19.18
-22.02
-24.51
-26.23
-26.74
-25.66
-22.93
-18.82
-13.85
-8.6
-3.57
1.0
5.02
8.49
11.34
13.46
14.74
15.16
14.92
14.32
13.7
13.29
13.19
13.34
13.6
13.86
14.12
14.44
14.91
15.53
16.18
16.66
16.75
16.3
15.29
13.8
11.98
10.0
8.03
6.19
4.51
2.94
1.39
-0.27
-2.12
-4.18
-6.4
-8.72
-11.02
-13.29
-15.54
-17.82
-20.19
-22.7
-25.29
-27.7
-29.51
-30.18
-29.24
-26.43
-21.86
-15.97
-9.38
-2.73
3.49
9.02
13.7
17.47
20.32
22.27
23.39
23.84
23.88
23.79
23.95
24.64
25.97
27.89
30.09
32.18
33.9
35.13
36.05
36.95
38.1
39.54
41.09
42.5
43.58
44.32
44.83
45.32
45.8
46.1
45.88
44.69
42.26
38.55
33.85
28.72
23.8
19.67
16.67
14.9
14.21
14.32
14.98
15.92
16.87
17.48
17.45
16.65
15.39
14.37
14.21
15.01
15.86
15.17
11.27
3.34
-8.25
-21.95
-35.63
-47.22
-55.18
-58.75
-57.97
-53.69
-47.39
-40.86
-35.4
-31.17
-27.01
-20.95
-11.47
1.34
15.37
27.32
34.0
33.81
26.96
14.84
-1.04
-19.72
-40.66
-63.1
-85.68
-106.74
-125.38
-142.27
-159.56
-179.48
-202.51
-226.11
-244.98
-253.09
-246.57
-225.92
-196.4
-166.07
-142.34
-129.08
-125.01
-124.55
-120.52
-107.33
-83.33
-51.15
-16.2
16.08
42.32
62.14
77.44
90.7
103.34
115.17
124.73
130.35
131.43
128.69
124.04
119.42
115.97
113.62
111.42
108.33
103.92
98.7
93.76
90.23
88.71
89.16
90.98
93.3
95.08
95.23
92.87
87.59
79.92
71.32
63.71
58.74
56.94
57.47
58.39
57.8
54.62
49.27
43.44
39.26
38.32
40.99
46.17
51.69
55.0
54.25
48.98
40.49
31.46
25.17
24.34
29.86
40.14
51.17
57.45
53.66
35.94
3.03
-42.95
-96.21
-147.99
-188.33
-209.09
-207.06
-185.57
-153.68
-122.81
-102.24
-95.86
-101.67
-113.94
-126.48
-135.22
-138.74
-136.93
-129.62
-116.3
-97.0
-73.58
-50.08
-31.52
-22.24
-23.82
-34.0
-46.87
-54.49
-49.7
-28.94
5.97
48.09
87.69
115.99
128.42
125.88
113.56
97.88
83.56
72.14
62.59
53.05
42.71
32.42
23.95
18.77
17.1
17.81
19.06
19.39
18.29
16.44
15.18
15.61
18.01
21.63
25.04
26.77
26.0
22.9
18.51
14.26
11.34
10.27
10.82
12.18
13.45
14.01
13.72
12.91
12.11
11.77
12.0
12.58
13.02
12.84
11.76
9.89
7.58
5.28
3.29
1.7
0.39
-0.86
-2.14
-3.43
-4.65
-5.7
-6.6
-7.5
-8.56
-9.97
-11.82
-14.13
-16.83
-19.76
-22.63
-25.06
-26.59
-26.86
-25.66
-23.04
-19.26
-14.73
-9.91
-5.19
-0.88
2.77
5.6
7.55
8.68
9.19
9.32
9.27
9.2
9.12
9.08
9.11
9.28
9.63
10.17
10.83
11.47
11.96
12.18
12.11
11.76
11.17
10.35
9.31
8.02
6.45
4.64
2.6
0.4
-1.9
-4.19
-6.41
-8.53
-10.57
-12.5
-14.36
-16.15
-17.95
-19.8
-21.76
-23.78
-25.75
-27.37
-28.24
-27.94
-26.24
-23.12
-18.78
-13.66
-8.23
-2.92
1.88
5.91
8.99
11.03
12.07
12.23
11.72
10.77
9.65
8.53
7.55
6.82
6.41
6.35
6.6
7.1
7.75
8.46
9.11
9.59
9.8
9.67
9.11
8.08
6.52
4.44
1.93
-0.85
-3.63
-6.15
-8.21
-9.74
-10.8
-11.59
-12.36
-13.34
-14.73
-16.67
-19.16
-22.06
-24.95
-27.29
-28.48
-28.14
-26.16
-22.78
-18.48
-13.75
-9.0
-4.45
-0.24
3.52
6.69
9.09
10.64
11.35
11.37
10.93
10.28
9.65
9.22
9.13
9.45
10.2
11.24
12.39
13.42
14.1
14.29
13.96
13.19
12.09
10.78
9.32
7.71
5.97
4.05
1.97
-0.28
-2.63
-4.98
-7.24
-9.34
-11.29
-13.22
-15.3
-17.66
-20.27
-22.82
-24.8
-25.65
-24.94
-22.55
-18.67
-13.82
-8.55
-3.4
1.22
5.1
8.15
10.38
11.89
12.77
13.2
13.37
13.52
13.81
14.35
15.09
15.95
16.8
17.54
18.18
18.78
19.33
19.74
19.81
19.32
18.18
16.46
14.36
12.12
9.95
7.87
5.84
3.81
1.74
-0.31
-2.24
-4.04
-5.72
-7.4
-9.23
-11.36
-13.84
-16.72
-19.95
-23.41
-26.87
-29.93
-32.1
-32.89
-31.97
-29.23
-24.87
-19.3
-13.09
-6.81
-0.99
3.99
7.91
10.74
12.58
13.62
14.11
14.3
14.41
14.63
15.13
16.0
17.24
18.7
20.14
21.31
22.04
22.33
22.3
22.08
21.68
21.0
19.86
18.18
16.05
13.73
11.5
9.57
7.96
6.55
5.11
3.51
1.66
-0.35
-2.41
-4.36
-6.08
-7.59
-8.98
-10.42
-12.11
-14.2
-16.79
-19.83
-23.21
-26.62
-29.59
-31.52
-31.8
-30.08
-26.38
-21.12
-14.98
-8.68
-2.8
2.35
6.65
10.11
12.76
14.67
15.9
16.55
16.71
16.47
15.92
15.17
14.39
13.77
13.49
13.62
14.16
15.03
16.13
17.29
18.26
18.74
18.43
17.19
15.14
12.66
10.18
8.01
6.2
4.57
2.87
0.97
-1.01
-2.89
-4.45
-5.71
-6.85
-8.15
-9.85
-12.07
-14.77
-17.84
-21.09
-24.21
-26.83
-28.46
-28.64
-27.05
-23.64
-18.71
-12.83
-6.73
-1.04
3.83
7.76
10.84
13.21
15.0
16.22
16.85
16.88
16.46
15.82
15.16
14.57
14.05
13.55
13.07
12.72
12.58
12.7
12.99
13.21
13.16
12.72
11.94
10.95
9.88
8.71
7.3
5.49
3.15
0.41
-2.44
-5.04
-7.1
-8.56
-9.64
-10.71
-12.11
-14.07
-16.67
-19.79
-23.23
-26.68
-29.65
-31.58
-31.87
-30.12
-26.29
-20.73
-14.07
-7.09
-0.47
5.36
10.13
13.8
16.41
18.04
18.8
18.86
18.33
17.38
16.18
14.95
13.94
13.39
13.41
14.0
14.93
15.96
16.84
17.43
17.65
17.5
16.95
15.91
14.41
12.45
10.18
7.72
5.22
2.76
0.37
-1.92
-4.12
-6.16
-8.02
-9.69
-11.24
-12.76
-14.43
-16.45
-19.03
-22.27
-26.03
-29.91
-33.24
-35.31
-35.46
-33.36
-29.07
-23.04
-15.99
-8.68
-1.82
4.19
9.11
12.91
15.62
17.27
17.93
17.71
16.88
15.8
14.88
14.42
14.49
15.01
15.78
16.68
17.66
18.76
19.99
21.25
22.27
22.73
22.36
21.04
18.89
16.21
13.4
10.8
8.59
6.73
5.02
3.19
1.06
-1.44
-4.23
-7.2
-10.19
-13.1
-15.79
-18.17
-20.14
-21.67
-22.82
-23.73
-24.57
-25.5
-26.53
-27.5
-28.09
-27.82
-26.31
-23.38
-19.18
-14.17
-9.03
-4.37
-0.6
2.19
4.18
5.66
6.91
8.06
9.18
10.26
11.36
12.54
13.85
15.32
16.81
18.18
19.16
19.56
19.22
18.16
16.6
14.79
13.05
11.54
10.3
9.19
8.02
6.57
4.78
2.66
0.33
-2.09
-4.5
-6.84
-9.04
-11.06
-12.86
-14.39
-15.66
-16.79
-18.03
-19.67
-21.94
-24.82
-27.95
-30.68
-32.28
-32.15
-30.12
-26.44
-21.63
-16.34
-11.0
-5.81
-0.73
4.3
9.18
13.65
17.42
20.28
22.31
23.73
24.81
25.71
26.4
26.7
26.48
25.82
24.95
24.15
23.62
23.35
23.12
22.64
21.6
19.84
17.33
14.26
10.94
7.75
5.0
2.82
1.12
-0.29
-1.66
-3.12
-4.67
-6.28
-7.9
-9.59
-11.49
-13.8
-16.65
-20.13
-24.16
-28.51
-32.74
-36.25
-38.42
-38.75
-36.98
-33.19
-27.71
-21.07
-13.85
-6.63
0.16
6.2
11.24
15.13
17.77
19.22
19.65
19.37
18.72
18.08
17.67
17.52
17.54
17.6
17.62
17.64
17.77
18.03
18.33
18.42
18.04
17.05
15.52
13.63
11.65
9.75
7.95
6.18
4.28
2.16
-0.13
-2.46
-4.7
-6.69
-8.42
-9.93
-11.32
-12.71
-14.2
-15.92
-17.97
-20.51
-23.52
-26.79
-29.81
-31.92
-32.48
-31.03
-27.59
-22.52
-16.45
-10.06
-3.89
1.73
6.68
10.84
14.09
16.26
17.24
17.05
15.9
14.16
12.3
10.77
9.84
9.59
9.91
10.55
11.31
11.98
12.49
12.82
12.96
12.86
12.43
11.62
10.42
8.91
7.16
5.28
3.3
1.25
-0.9
-3.11
-5.34
-7.53
-9.63
-11.65
-13.65
-15.7
-17.92
-20.31
-22.78
-25.07
-26.78
-27.46
-26.76
-24.52
-20.84
-16.02
-10.5
-4.75
0.73
5.59
9.54
12.48
14.45
15.56
15.98
15.89
15.45
14.8
14.1
13.45
12.94
12.56
12.3
12.07
11.85
11.63
11.36
11.05
10.6
9.98
9.17
8.17
7.02
5.79
4.51
3.2
1.89
0.52
-0.92
-2.46
-4.11
-5.88
-7.76
-9.75
-11.85
-14.07
-16.48
-19.15
-22.05
-25.02
-27.68
-29.47
-29.87
-28.52
-25.38
-20.79
-15.29
-9.52
-4.03
0.83
4.87
7.99
10.21
11.58
12.22
12.38
12.25
12.07
12.03
12.17
12.54
13.13
13.87
14.7
15.6
16.51
17.3
17.82
17.89
17.34
16.06
14.11
11.65
9.06
6.64
4.57
2.85
1.29
-0.29
-1.95
-3.64
-5.14
-6.32
-7.28
-8.28
-9.63
-11.5
-13.76
-16.18
-18.5
-20.61
-22.61
-24.58
-26.4
-27.74
-28.16
-27.24
-24.86
-21.25
-16.8
-11.97
-7.13
-2.46
1.91
5.81
9.07
11.55
13.21
14.23
14.83
15.23
15.56
15.74
15.69
15.35
14.78
14.17
13.7
13.48
13.55
13.83
14.19
14.46
14.45
14.02
13.03
11.49
9.46
7.07
4.49
1.85
-0.72
-3.04
-4.95
-6.34
-7.22
-7.82
-8.51
-9.64
-11.4
-13.75
-16.51
-19.38
-22.12
-24.47
-26.17
-26.91
-26.4
-24.44
-21.04
-16.43
-11.03
-5.35
0.1
4.88
8.73
11.58
13.52
14.77
15.53
15.95
16.07
15.88
15.4
14.74
14.1
13.59
13.27
13.08
12.88
12.48
11.76
10.71
9.32
7.7
5.9
3.99
2.02
0.08
-1.77
-3.41
-4.81
-5.97
-6.98
-8.03
-9.23
-10.68
-12.38
-14.27
-16.27
-18.38
-20.59
-22.83
-24.99
-26.79
-27.9
-28.0
-26.82
-24.28
-20.5
-15.78
-10.57
-5.36
-0.56
3.56
6.89
9.48
11.42
12.8
13.67
14.09
14.12
13.89
13.53
13.22
13.1
13.22
13.57
14.04
14.48
14.75
14.76
14.44
13.8
12.83
11.51
9.89
8.04
6.04
3.99
1.96
-0.02
-1.91
-3.68
-5.27
-6.68
-7.95
-9.24
-10.78
-12.71
-15.11
-17.87
-20.8
-23.66
-26.11
-27.82
-28.43
-27.67
-25.44
-21.88
-17.38
-12.43
-7.5
-2.92
1.19
4.8
7.88
10.4
12.25
13.33
13.72
13.59
13.27
13.11
13.32
13.92
14.75
15.48
15.87
15.83
15.4
14.77
14.11
13.52
13.0
12.48
11.83
10.96
9.87
8.6
7.21
5.79
4.36
2.88
1.28
-0.5
-2.42
-4.34
-6.05
-7.45
-8.54
-9.53
-10.71
-12.35
-14.57
-17.26
-20.16
-22.96
-25.32
-26.97
-27.69
-27.33
-25.85
-23.28
-19.79
-15.65
-11.16
-6.67
-2.51
1.02
3.82
5.91
7.5
8.81
10.03
11.2
12.24
13.07
13.6
13.95
14.29
14.79
15.51
16.34
17.18
17.89
18.41
18.7
18.68
18.24
17.28
15.77
13.86
11.84
10.03
8.59
7.49
6.49
5.3
3.67
1.57
-0.95
-3.73
-6.62
-9.45
-12.1
-14.5
-16.55
-18.28
-19.81
-21.38
-23.14
-25.02
-26.69
-27.53
-26.91
-24.48
-20.29
-14.87
-8.98
-3.37
1.52
5.55
8.78
11.34
13.16
14.11
14.15
13.42
12.29
11.28
10.79
11.04
11.87
13.01
14.1
14.9
15.34
15.42
15.17
14.61
13.73
12.54
11.13
9.64
8.19
6.78
5.27
3.43
1.06
-1.86
-5.1
-8.27
-10.91
-12.79
-13.94
-14.72
-15.58
-16.95
-19.03
-21.72
-24.61
-27.1
-28.6
-28.63
-26.96
-23.68
-19.13
-13.75
-8.05
-2.44
2.71
7.18
10.81
13.6
15.62
17.03
17.98
18.6
18.91
18.88
18.48
17.79
17.0
16.29
15.85
15.68
15.69
15.68
15.44
14.83
13.8
12.38
10.64
8.66
6.48
4.13
1.64
-0.9
-3.4
-5.7
-7.66
-9.15
-10.12
-10.67
-11.01
-11.46
-12.4
-14.04
-16.51
-19.62
-22.98
-26.02
-28.1
-28.71
-27.56
-24.69
-20.4
-15.22
-9.72
-4.4
0.39
4.5
7.91
10.68
12.84
14.4
15.4
15.9
16.03
15.9
15.66
15.33
14.96
14.52
14.08
13.74
13.65
13.94
14.56
15.32
15.89
15.91
15.2
13.75
11.75
9.5
7.27
5.24
3.43
1.77
0.16
-1.44
-3.05
-4.66
-6.3
-8.04
-9.93
-12.04
-14.41
-17.07
-20.0
-23.05
-25.94
-28.25
-29.51
-29.36
-27.61
-24.31
-19.77
-14.4
-8.7
-3.14
1.87
6.0
9.07
11.06
12.12
12.49
12.51
12.45
12.52
12.79
13.21
13.65
13.95
14.01
13.82
13.49
13.12
12.83
12.68
12.67
12.8
13.05
13.34
13.46
13.09
11.89
9.66
6.42
2.48
-1.69
-5.61
-8.91
-11.47
-13.32
-14.71
-15.94
-17.27
-18.88
-20.78
-22.77
-24.51
-25.63
-25.82
-24.97
-23.12
-20.39
-16.92
-12.85
-8.4
-3.77
0.69
4.65
7.84
10.16
11.69
12.6
13.11
13.42
13.74
14.19
14.84
15.61
16.36
16.87
17.01
16.84
16.61
16.6
16.94
17.48
17.83
17.6
16.58
14.86
12.82
10.87
9.24
7.87
6.51
4.82
2.62
-0.06
-3.02
-5.95
-8.67
-11.06
-13.14
-14.98
-16.73
-18.48
-20.33
-22.3
-24.34
-26.35
-28.04
-29.05
-28.98
-27.53
-24.61
-20.37
-15.23
-9.69
-4.3
0.49
4.45
7.47
9.62
11.03
11.87
12.27
12.34
12.18
11.96
11.91
12.27
13.18
14.57
16.19
17.71
18.85
19.53
19.85
20.01
20.06
20.01
19.63
18.69
17.06
14.83
12.24
9.62
7.23
5.18
3.51
2.12
0.93
-0.15
-1.18
-2.29
-3.59
-5.15
-7.03
-9.11
-11.26
-13.33
-15.22
-16.93
-18.55
-20.25
-22.16
-24.35
-26.7
-28.9
-30.51
-31.0
-29.97
-27.24
-22.99
-17.63
-11.74
-5.88
-0.43
4.39
8.49
11.79
14.2
15.62
16.14
15.96
15.5
15.18
15.26
15.79
16.55
17.23
17.63
17.76
17.82
18.01
18.39
18.77
18.87
18.44
17.45
16.06
14.55
13.11
11.81
10.52
9.07
7.31
5.27
3.09
1.01
-0.76
-2.16
-3.24
-4.2
-5.28
-6.67
-8.49
-10.67
-13.05
-15.44
-17.73
-19.9
-22.02
-24.13
-26.16
-27.92
-29.05
-29.23
-28.26
-26.08
-22.83
-18.74
-14.12
-9.26
-4.43
0.13
4.17
7.44
9.77
11.09
11.52
11.33
10.91
10.59
10.57
10.89
11.42
12.04
12.65
13.25
13.85
14.49
15.1
15.55
15.71
15.49
14.85
13.83
12.49
10.95
9.27
7.49
5.59
3.56
1.39
-0.82
-2.92
-4.79
-6.36
-7.72
-9.05
-10.5
-12.13
-13.89
-15.71
-17.58
-19.52
-21.54
-23.52
-25.15
-25.96
-25.55
-23.68
-20.43
-16.15
-11.31
-6.35
-1.62
2.67
6.35
9.28
11.34
12.49
12.76
12.35
11.59
10.85
10.38
10.31
10.56
10.96
11.34
11.65
11.92
12.21
12.51
12.65
12.4
11.54
10.02
8.03
5.86
3.87
2.31
1.27
0.75
0.59
0.62
0.65
0.48
-0.07
-1.09
-2.55
-4.3
-6.18
-8.08
-10.0
-12.04
-14.29
-16.81
-19.54
-22.25
-24.51
-25.92
-26.1
-24.83
-22.15
-18.26
-13.54
-8.45
-3.41
1.22
5.19
8.27
10.4
11.57
11.94
11.73
11.23
10.67
10.19
9.92
9.95
10.34
11.14
12.28
13.55
14.68
15.4
15.57
15.26
14.61
13.82
12.95
11.99
10.85
9.47
7.89
6.22
4.62
3.18
1.88
0.69
-0.46
-1.6
-2.73
-3.84
-4.97
-6.15
-7.44
-8.89
-10.47
-12.13
-13.87
-15.7
-17.75
-20.07
-22.55
-24.9
-26.65
-27.32
-26.6
-24.42
-20.97
-16.66
-11.99
-7.38
-3.16
0.47
3.42
5.71
7.37
8.47
9.08
9.28
9.2
9.03
8.98
9.24
9.87
10.81
11.95
13.19
14.46
15.76
17.0
18.03
18.66
18.7
18.04
16.72
14.93
12.85
10.71
8.63
6.69
4.88
3.18
1.56
-0.06
-1.68
-3.29
-4.82
-6.18
-7.34
-8.32
-9.22
-10.17
-11.33
-12.84
-14.82
-17.31
-20.23
-23.32
-26.14
-28.16
-28.9
-28.06
-25.58
-21.68
-16.67
-10.98
-5.06
0.61
5.54
9.31
11.7
12.74
12.69
11.93
10.82
9.64
8.53
7.61
7.0
6.84
7.2
8.02
9.13
10.22
11.04
11.44
11.36
10.86
10.06
9.07
7.96
6.79
5.63
4.52
3.5
2.58
1.64
0.52
-0.9
-2.66
-4.66
-6.69
-8.6
-10.35
-12.09
-14.01
-16.32
-19.04
-22.04
-25.03
-27.55
-29.16
-29.4
-28.01
-24.96
-20.47
-14.98
-9.05
-3.22
2.11
6.62
10.14
12.6
13.99
14.41
14.05
13.18
12.08
11.06
10.33
10.09
10.41
11.28
12.54
13.99
15.34
16.3
16.71
16.46
15.6
14.27
12.61
10.73
8.67
6.44
4.03
1.52
-0.99
-3.38
-5.55
-7.54
-9.39
-11.19
-12.96
-14.7
-16.42
-18.3
-20.47
-22.98
-25.64
-27.98
-29.45
-29.59
-28.25
-25.56
-21.91
-17.7
-13.24
-8.77
-4.43
-0.43
3.06
5.91
8.11
9.69
10.77
11.47
11.84
11.97
11.96
11.98
12.23
12.85
13.91
15.34
16.94
18.41
19.41
19.69
19.17
17.96
16.3
14.47
12.66
10.96
9.32
7.59
5.68
3.55
1.21
-1.23
-3.57
-5.69
-7.52
-9.14
-10.75
-12.57
-14.74
-17.33
-20.25
-23.29
-26.21
-28.61
-30.1
-30.27
-28.86
-25.8
-21.35
-15.99
-10.3
-4.88
-0.08
3.89
7.04
9.46
11.27
12.54
13.4
13.95
14.37
14.84
15.44
16.2
17.02
17.78
18.41
18.88
19.23
19.44
19.47
19.2
18.56
17.54
16.23
14.75
13.23
11.74
10.27
8.83
7.44
6.1
4.84
3.6
2.3
0.84
-0.85
-2.75
-4.79
-6.82
-8.75
-10.6
-12.48
-14.57
-17.1
-20.17
-23.65
-27.14
-30.03
-31.68
-31.58
-29.56
-25.78
-20.7
-14.92
-9.03
-3.5
1.33
5.28
8.31
10.5
12.01
13.05
13.76
14.24
14.5
14.58
14.58
14.58
14.68
14.93
15.33
15.87
16.56
17.39
18.3
19.11
19.51
19.2
17.99
15.93
13.29
10.52
7.99
5.91
4.26
2.86
1.48
-0.03
-1.72
-3.52
-5.34
-7.16
-8.98
-10.84
-12.77
-14.74
-16.74
-18.83
-21.06
-23.41
-25.7
-27.46
-28.1
-27.09
-24.25
-19.82
-14.42
-8.77
-3.52
0.97
4.62
7.54
9.85
11.66
13.02
14.02
14.75
15.36
15.93
16.51
17.07
17.56
17.96
18.27
18.49
18.62
18.63
18.43
17.9
16.97
15.61
13.89
11.93
9.81
7.59
5.32
3.07
0.93
-1.05
-2.81
-4.37
-5.77
-7.14
-8.64
-10.43
-12.66
-15.33
-18.38
-21.58
-24.63
-27.24
-29.15
-30.1
-29.91
-28.44
-25.67
-21.68
-16.75
-11.27
-5.7
-0.43
4.24
8.11
11.08
13.1
14.21
14.56
14.39
14.06
13.87
14.05
14.61
15.41
16.22
16.83
17.18
17.28
17.24
17.11
16.9
16.48
15.76
14.65
13.19
11.47
9.58
7.6
5.55
3.41
1.18
-1.14
-3.49
-5.77
-7.84
-9.62
-11.04
-12.14
-13.0
-13.84
-14.88
-16.37
-18.5
-21.24
-24.37
-27.33
-29.47
-30.07
-28.72
-25.39
-20.48
-14.65
-8.59
-2.85
2.3
6.7
10.3
13.02
14.78
15.57
15.57
15.12
14.61
14.43
14.73
15.45
16.34
17.14
17.68
17.98
18.2
18.45
18.8
19.1
19.14
18.72
17.76
16.35
14.67
12.91
11.19
9.59
8.09
6.65
5.22
3.7
2.03
0.16
-1.94
-4.18
-6.43
-8.58
-10.58
-12.45
-14.3
-16.23
-18.32
-20.54
-22.82
-25.01
-26.92
-28.3
-28.89
-28.41
-26.71
-23.72
-19.61
-14.64
-9.27
-3.93
0.99
5.2
8.49
10.77
12.06
12.52
12.41
12.01
11.6
11.35
11.29
11.45
11.82
12.42
13.26
14.3
15.4
16.36
17.01
17.18
16.87
16.08
14.89
13.33
11.49
9.46
7.42
5.54
3.92
2.57
1.36
0.04
-1.54
-3.44
-5.57
-7.74
-9.79
-11.64
-13.23
-14.63
-15.92
-17.14
-18.44
-19.92
-21.62
-23.42
-24.97
-25.78
-25.35
-23.39
-19.89
-15.2
-9.9
-4.56
0.31
4.45
7.75
10.24
11.98
13.11
13.74
13.97
13.99
13.91
13.85
13.92
14.15
14.5
14.91
15.27
15.54
15.73
15.8
15.76
15.5
14.94
14.01
12.68
11.05
9.25
7.49
5.8
4.23
2.64
0.89
-1.13
-3.43
-5.89
-8.32
-10.47
-12.24
-13.57
-14.58
-15.45
-16.34
-17.39
-18.7
-20.37
-22.38
-24.63
-26.77
-28.27
-28.55
-27.13
-23.92
-19.26
-13.83
-8.37
-3.46
0.71
4.12
6.89
9.14
10.81
11.85
12.22
11.99
11.36
10.6
9.97
9.69
9.88
10.58
11.72
13.16
14.74
16.28
17.65
18.66
19.2
19.14
18.39
17.04
15.26
13.32
11.49
9.9
8.52
7.17
5.63
3.75
1.55
-0.83
-3.18
-5.34
-7.26
-8.99
-10.65
-12.32
-14.01
-15.65
-17.23
-18.77
-20.43
-22.34
-24.44
-26.45
-27.85
-28.11
-26.86
-24.09
-20.08
-15.34
-10.4
-5.69
-1.47
2.14
5.09
7.39
9.04
10.05
10.48
10.47
10.24
10.11
10.3
10.97
12.06
13.37
14.67
15.8
16.73
17.51
18.18
18.65
18.78
18.41
17.52
16.17
14.54
12.86
11.3
9.96
8.85
7.86
6.85
5.64
4.13
2.36
0.5
-1.19
-2.48
-3.31
-3.79
-4.17
-4.72
-5.6
-6.83
-8.25
-9.63
-10.68
-11.18
-10.93
-9.79
-7.69
-4.54
-0.32
4.97
11.19
18.07
25.21
32.05
38.06
42.87
46.42
49.03
51.3
53.87
57.21
61.36
65.96
70.4
74.11
76.88
78.95
80.89
83.32
86.65
90.85
95.43
99.56
102.12
101.85
97.36
87.39
71.31
49.69
24.42
-1.66
-25.88
-46.65
-63.99
-79.12
-93.19
-106.47
-117.87
-125.69
-128.54
-126.2
-119.88
-111.69
-103.88
-98.05
-94.82
-93.74
-93.72
-93.51
-92.14
-89.43
-85.94
-82.56
-79.84
-77.64
-75.21
-71.74
-67.06
-61.89
-57.51
-54.88
-54.04
-53.83
-52.65
-49.04
-42.49
-33.5
-23.03
-11.86
-0.02
13.14
28.45
45.99
64.56
81.77
94.77
101.32
100.62
93.49
81.92
68.29
54.59
42.16
31.64
23.16
16.43
10.89
5.67
-0.16
-7.38
-16.27
-26.57
-37.57
-48.3
-57.72
-64.76
-68.5
-68.49
-65.03
-59.34
-53.14
-48.05
-44.83
-43.07
-41.56
-39.11
-35.36
-30.96
-27.12
-24.73
-23.84
-23.62
-22.9
-20.85
-17.44
-13.25
-9.0
-5.1
-1.4
2.6
7.33
12.81
18.55
23.7
27.43
29.3
29.38
28.18
26.39
24.56
22.85
21.1
19.04
16.56
13.85
11.25
9.14
7.67
6.72
5.98
5.09
3.8
2.07
0.07
-1.95
-3.73
-5.15
-6.32
-7.42
-8.62
-9.96
-11.35
-12.63
-13.76
-14.8
-15.86
-16.9
-17.66
-17.65
-16.44
-13.79
-9.88
-5.2
-0.34
4.26
8.4
12.04
15.16
17.61
19.1
19.37
18.37
16.4
14.11
12.18
11.19
11.29
12.26
13.72
15.33
16.95
18.54
20.13
21.55
22.55
22.86
22.4
21.27
19.79
18.22
16.71
15.21
13.54
11.6
9.33
6.77
4.06
1.35
-1.19
-3.38
-5.11
-6.33
-7.08
-7.57
-8.11
-8.96
-10.33
-12.23
-14.49
-16.86
-19.07
-20.81
-21.87
-22.02
-21.13
-19.21
-16.41
-13.02
-9.33
-5.53
-1.52
2.92
7.99
13.62
19.35
24.58
28.72
31.51
33.02
33.49
32.98
31.41
28.64
24.66
19.95
15.2
11.17
8.27
6.48
5.47
4.84
4.29
3.74
3.17
2.49
1.62
0.48
-0.88
-2.32
-3.66
-4.78
-5.67
-6.38
-6.91
-7.3
-7.56
-7.79
-8.17
-8.94
-10.29
-12.35
-15.07
-18.23
-21.42
-24.11
-25.76
-25.97
-24.61
-21.84
-18.04
-13.65
-9.08
-4.68
-0.59
3.06
6.27
9.05
11.43
13.39
14.91
15.97
16.55
16.79
16.81
16.82
17.03
17.55
18.32
19.21
19.99
20.44
20.44
19.92
19.0
17.85
16.66
15.53
14.49
13.5
12.46
11.31
10.02
8.61
7.11
5.56
3.9
2.12
0.22
-1.77
-3.7
-5.46
-6.99
-8.38
-9.79
-11.41
-13.38
-15.72
-18.33
-20.94
-23.21
-24.82
-25.46
-24.87
-22.96
-19.89
-15.96
-11.69
-7.49
-3.67
-0.36
2.45
4.79
6.63
7.86
8.46
8.51
8.3
8.25
8.69
9.79
11.38
13.13
14.67
15.69
16.07
15.93
15.46
14.92
14.44
14.07
13.7
13.2
12.44
11.35
9.99
8.53
7.18
6.1
5.36
4.97
4.93
5.28
5.98
6.96
7.94
8.55
8.51
7.71
6.36
4.86
3.56
2.57
1.68
0.59
-0.97
-2.84
-4.58
-5.61
-5.45
-3.97
-1.38
1.85
5.21
8.24
10.77
12.78
14.4
15.72
16.66
16.99
16.35
14.5
11.35
7.08
2.02
-3.35
-8.47
-12.74
-15.65
-16.94
-16.73
-15.68
-14.79
-15.09
-17.22
-21.11
-26.16
-31.56
-36.67
-41.33
-45.83
-50.68
-56.28
-62.69
-69.52
-76.25
-82.45
-88.23
-94.28
-101.76
-111.94
-125.58
-142.71
-162.39
-182.93
-202.17
-217.78
-227.74
-230.94
-227.75
-220.03
-210.34
-200.31
-189.33
-174.22
-150.7
-115.82
-70.16
-18.24
33.03
77.3
111.63
137.29
158.86
181.92
211.03
248.19
292.19
338.38
379.19
405.97
411.82
394.74
359.33
315.95
277.25
253.6
249.52
262.67
285.61
308.9
324.49
327.6
317.06
294.41
262.48
223.96
180.5
132.94
82.15
30.36
-18.6
-60.21
-91.05
-110.52
-120.88
-126.21
-130.28
-135.08
-140.51
-145.48
-149.47
-153.45
-159.62
-169.93
-184.46
-200.27
-212.15
-214.75
-205.34
-185.72
-161.67
-140.52
-127.47
-123.48
-125.44
-128.73
-130.03
-128.49
-124.63
-118.18
-106.76
-86.82
-56.32
-16.98
25.51
63.63
91.34
106.52
111.04
109.11
105.14
101.99
100.74
101.3
103.14
105.83
109.09
112.51
115.47
116.98
115.58
109.08
94.88
70.46
34.61
-11.82
-65.43
-120.77
-171.55
-211.81
-236.64
-242.46
-227.31
-191.73
-140.29
-82.4
-31.24
0.05
3.81
-17.92
-53.01
-84.0
-95.31
-80.14
-43.1
2.43
40.77
60.7
59.11
40.15
11.19
-21.4
-54.23
-86.16
-116.11
-141.44
-158.07
-162.46
-154.01
-136.03
-114.84
-97.05
-86.58
-83.14
-82.68
-79.52
-68.88
-48.53
-19.13
16.4
54.03
89.72
120.37
144.14
160.47
169.88
173.44
172.2
166.79
157.32
143.63
125.66
103.85
78.95
51.61
21.94
-10.81
-48.07
-91.58
-142.49
-200.1
-260.68
-317.13
-360.27
-381.49
-376.17
-345.83
-298.08
-243.87
-193.5
-153.1
-123.51
-101.62
-83.29
-65.94
-49.41
-35.04
-24.0
-15.87
-8.41
1.58
17.21
40.95
74.38
118.34
172.47
234.21
297.83
354.42
393.65
407.13
391.7
351.22
295.58
237.21
186.96
151.07
130.43
122.04
121.49
124.9
129.62
133.99
136.74
136.92
134.13
128.98
123.11
119.0
118.92
123.93
133.47
145.42
156.99
165.77
170.62
171.57
169.18
163.53
153.86
138.72
116.94
88.52
55.09
19.54
-14.88
-45.48
-70.73
-90.13
-103.83
-112.28
-116.01
-115.64
-112.14
-106.91
-101.69
-98.21
-97.71
-100.56
-106.07
-112.67
-118.6
-122.67
-124.77
-125.88
-127.62
-131.61
-138.77
-148.78
-159.7
-168.09
-169.85
-161.39
-141.27
-111.0
-74.83
-38.16
-5.31
22.12
45.65
68.68
94.47
124.49
157.98
192.72
226.44
257.9
286.9
313.76
338.35
359.56
375.57
384.76
386.74
382.77
375.27
366.48
357.4
347.23
334.0
315.89
292.42
265.04
236.51
209.86
186.97
168.24
152.77
139.19
126.52
114.37
102.86
92.28
82.85
74.54
67.19
60.53
54.23
47.94
41.1
32.97
22.57
8.86
-9.1
-31.8
-59.22
-90.81
-125.64
-162.75
-201.33
-240.87
-280.78
-320.46
-359.06
-395.6
-429.58
-461.44
-492.52
-524.36
-557.53
-590.98
-622.23
-648.05
-665.6
-672.95
-668.86
-652.24
-622.09
-578.15
-522.04
-457.71
-390.73
-326.35
-267.68
-214.94
-166.39
-120.24
-76.27
-36.11
-2.08
24.38
43.67
57.68
69.06
79.9
91.11
102.65
114.02
124.83
135.06
145.06
155.33
166.36
178.24
190.56
202.33
212.28
219.2
222.39
221.75
217.65
210.56
200.7
188.1
172.84
155.5
137.32
120.01
105.18
93.78
85.78
80.23
75.74
70.97
65.13
58.11
50.36
42.63
35.59
29.64
24.77
20.65
16.74
12.52
7.69
2.18
-3.82
-10.01
-16.08
-21.74
-26.65
-30.41
-32.55
-32.74
-30.99
-27.78
-23.92
-20.31
-17.59
-15.85
-14.8
-13.94
-12.89
-11.55
-10.07
-8.67
-7.43
-6.25
-4.9
-3.21
-1.15
1.19
3.6
5.87
7.85
9.47
10.67
11.38
11.59
11.27
10.5
9.39
8.07
6.67
5.28
3.97
2.81
1.8
0.93
0.15
-0.61
-1.47
-2.49
-3.76
-5.29
-7.05
-9.03
-11.23
-13.65
-16.18
-18.53
-20.22
-20.72
-19.62
-16.81
-12.62
-7.74
-2.98
0.97
3.73
5.34
6.11
6.4
6.54
6.7
6.92
7.12
7.21
7.11
6.82
6.49
6.36
6.66
7.57
9.06
10.94
12.81
14.21
14.68
13.95
11.96
8.97
5.56
2.56
0.86
1.02
3.04
6.22
9.39
11.36
11.41
9.64
6.88
4.37
3.11
3.54
5.36
7.91
10.5
12.83
15.05
17.46
20.3
23.58
27.1
30.72
34.61
39.28
45.28
52.89
61.8
71.05
79.41
85.82
89.77
91.48
91.68
91.36
91.39
92.29
94.0
96.07
97.84
98.72
98.52
97.56
96.61
96.65
98.52
102.44
107.98
113.82
117.98
118.1
111.96
98.08
76.21
47.43
13.94
-21.59
-56.56
-88.8
-116.71
-139.27
-156.18
-167.82
-175.3
-180.19
-184.1
-188.1
-192.29
-195.67
-196.52
-193.19
-184.81
-171.87
-156.2
-140.49
-127.32
-118.3
-113.46
-111.44
-110.11
-107.25
-101.03
-90.0
-73.21
-50.38
-22.52
7.72
36.27
58.8
72.25
75.92
71.55
62.16
50.57
38.18
25.15
11.52
-1.43
-10.7
-12.25
-2.92
17.56
45.58
74.27
95.83
104.55
98.99
82.5
61.46
42.15
27.87
17.7
7.69
-6.48
-26.67
-51.47
-77.63
-102.92
-128.11
-156.64
-192.03
-234.49
-279.1
-317.37
-341.04
-345.96
-333.69
-310.18
-282.62
-256.62
-234.73
-217.02
-202.03
-187.73
-171.72
-151.35
-124.09
-88.25
-43.94
6.55
59.01
108.24
149.19
178.31
194.46
199.26
196.6
191.2
186.8
184.79
184.14
182.76
179.17
173.47
167.17
161.99
158.47
155.47
150.8
142.54
130.09
114.58
98.28
83.54
71.84
63.45
57.83
54.22
52.27
52.04
53.63
56.71
60.26
62.9
63.38
61.01
55.94
48.81
40.51
31.81
23.23
15.07
7.5
0.73
-4.97
-9.24
-11.83
-12.66
-11.99
-10.39
-8.6
-7.32
-6.95
-7.5
-8.59
-9.7
-10.31
-10.15
-9.23
-7.74
-5.97
-4.21
-2.7
-1.6
-0.96
-0.77
-0.9
-1.21
-1.54
-1.74
-1.66
-1.2
-0.33
0.91
2.3
3.54
4.27
4.28
3.58
2.43
1.21
0.26
-0.21
-0.23
0.04
0.4
0.66
0.75
0.65
0.33
-0.2
-0.97
-2.04
-3.41
-5.07
-6.94
-8.87
-10.62
-11.94
-12.55
-12.25
-10.98
-8.82
-6.08
-3.13
-0.37
1.91
3.58
4.74
5.57
6.26
6.89
7.43
7.83
8.05
8.12
8.15
8.24
8.42
8.63
8.81
8.85
8.78
8.65
8.53
8.5
8.54
8.5
8.15
7.27
5.72
3.6
1.17
-1.16
-3.05
-4.33
-5.0
-5.3
-5.52
-5.91
-6.62
-7.65
-8.95
-10.41
-11.94
-13.46
-14.93
-16.3
-17.52
-18.5
-19.14
-19.38
-19.19
-18.57
-17.51
-16.02
-14.04
-11.57
-8.67
-5.46
-2.17
0.97
3.75
6.06
7.85
9.23
10.32
11.26
12.2
13.22
14.29
15.27
15.99
16.31
16.24
15.81
15.13
14.32
13.41
12.42
11.35
10.26
9.19
8.2
7.25
6.28
5.23
4.08
2.83
1.51
0.12
-1.4
-3.14
-5.14
-7.41
-9.83
-12.27
-14.56
-16.58
-18.18
-19.22
-19.59
-19.13
-17.84
-15.8
-13.25
-10.47
-7.68
-5.01
-2.49
-0.12
2.14
4.21
6.02
7.43
8.34
8.74
8.71
8.41
8.07
7.94
8.14
8.63
9.17
9.4
9.07
8.11
6.73
5.31
4.08
3.09
2.12
0.9
-0.76
-2.79
-4.9
-6.71
-7.96
-8.57
-8.73
-8.76
-9.04
-9.82
-11.24
-13.24
-15.61
-18.03
-20.1
-21.45
-21.82
-21.1
-19.4
-16.97
-14.14
-11.24
-8.5
-6.1
-4.08
-2.49
-1.35
-0.6
-0.15
0.12
0.3
0.48
0.63
0.83
1.12
1.66
2.52
3.71
5.08
6.38
7.34
7.83
7.88
7.65
7.34
7.0
6.57
5.87
4.76
3.22
1.44
-0.27
-1.6
-2.43
-2.87
-3.23
-3.89
-5.09
-6.92
-9.25
-11.87
-14.47
-16.77
-18.4
-19.09
-18.67
-17.09
-14.51
-11.31
-7.91
-4.67
-1.88
0.37
2.08
3.29
4.09
4.61
4.98
5.36
5.89
6.61
7.52
8.54
9.57
10.59
11.61
12.69
13.85
15.04
16.07
16.74
16.89
16.49
15.62
14.38
12.88
11.21
9.39
7.47
5.55
3.73
2.06
0.52
-0.96
-2.47
-3.96
-5.34
-6.49
-7.33
-7.93
-8.45
-9.13
-10.08
-11.34
-12.76
-14.07
-14.93
-15.07
-14.3
-12.67
-10.38
-7.74
-5.07
-2.54
-0.21
1.99
4.06
6.01
7.77
9.27
10.44
11.33
12.0
12.46
12.62
12.3
11.35
9.77
7.81
5.93
4.64
4.26
4.76
5.81
6.9
7.62
7.81
7.62
7.44
7.58
8.25
9.35
10.62
11.67
12.18
11.95
10.99
9.45
7.51
5.33
3.02
0.61
-1.92
-4.54
-7.25
-10.06
-12.95
-15.92
-18.83
-21.47
-23.48
-24.5
-24.21
-22.55
-19.65
-15.87
-11.66
-7.48
-3.71
-0.62
1.63
3.06
3.77
3.92
3.67
3.22
2.74
2.47
2.57
3.12
4.13
5.43
6.84
8.19
9.41
10.52
11.54
12.46
13.19
13.59
13.59
13.22
12.6
11.82
10.94
9.92
8.67
7.11
5.32
3.37
1.43
-0.36
-1.96
-3.33
-4.51
-5.54
-6.54
-7.59
-8.84
-10.38
-12.19
-14.13
-15.87
-17.06
-17.37
-16.63
-14.84
-12.22
-9.05
-5.61
-2.21
0.93
3.66
5.85
7.49
8.64
9.39
9.89
10.24
10.51
10.74
10.91
11.03
11.13
11.32
11.71
12.41
13.41
14.58
15.72
16.6
17.05
17.01
16.51
15.6
14.36
12.91
11.35
9.86
8.52
7.35
6.25
4.97
3.35
1.3
-1.06
-3.52
-5.82
-7.76
-9.29
-10.46
-11.42
-12.35
-13.48
-14.99
-17.0
-19.47
-22.18
-24.76
-26.75
-27.72
-27.4
-25.71
-22.75
-18.83
-14.26
-9.46
-4.79
-0.54
3.05
5.96
8.22
9.96
11.28
12.24
12.83
13.04
12.92
12.63
12.45
12.64
13.3
14.31
15.46
16.42
17.03
17.24
17.12
16.79
16.35
15.78
15.06
14.15
13.03
11.76
10.39
8.98
7.62
6.38
5.36
4.55
3.86
3.15
2.24
1.01
-0.53
-2.28
-4.11
-5.9
-7.6
-9.21
-10.79
-12.37
-14.08
-16.03
-18.34
-20.99
-23.75
-26.18
-27.78
-28.1
-26.91
-24.29
-20.55
-16.15
-11.52
-6.98
-2.76
0.99
4.1
6.46
8.05
8.93
9.3
9.43
9.6
10.01
10.72
11.67
12.69
13.62
14.37
14.92
15.32
15.61
15.76
15.7
15.37
14.8
14.05
13.27
12.54
11.91
11.29
10.58
9.69
8.63
7.46
6.3
5.2
4.1
2.95
1.62
0.07
-1.63
-3.43
-5.23
-6.97
-8.63
-10.23
-11.82
-13.41
-15.03
-16.64
-18.17
-19.5
-20.41
-20.67
-20.1
-18.62
-16.35
-13.5
-10.38
-7.26
-4.33
-1.66
0.75
2.86
4.66
6.02
6.84
7.14
7.02
6.73
6.57
6.75
7.32
8.2
9.18
10.09
10.85
11.51
12.12
12.67
13.06
13.11
12.71
11.8
10.53
9.09
7.69
6.46
5.41
4.51
3.65
2.76
1.77
0.69
-0.48
-1.72
-3.01
-4.37
-5.83
-7.44
-9.24
-11.26
-13.49
-15.84
-18.21
-20.43
-22.29
-23.53
-23.91
-23.22
-21.44
-18.69
-15.2
-11.36
-7.57
-4.17
-1.35
0.86
2.53
3.81
4.8
5.56
6.03
6.19
6.05
5.8
5.67
5.87
6.5
7.46
8.55
9.52
10.23
10.65
10.79
10.68
10.34
9.74
8.89
7.84
6.69
5.58
4.53
3.52
2.43
1.12
-0.49
-2.36
-4.41
-6.47
-8.37
-10.06
-11.58
-13.08
-14.69
-16.53
-18.58
-20.64
-22.34
-23.29
-23.18
-21.91
-19.58
-16.41
-12.7
-8.67
-4.58
-0.66
2.82
5.63
7.6
8.76
9.29
9.44
9.49
9.55
9.64
9.71
9.73
9.74
9.83
10.1
10.6
11.3
12.05
12.65
12.96
12.89
12.46
11.72
10.71
9.42
7.84
5.96
3.85
1.64
-0.52
-2.52
-4.3
-5.91
-7.4
-8.87
-10.39
-12.03
-13.86
-15.92
-18.21
-20.58
-22.84
-24.71
-25.92
-26.28
-25.59
-23.8
-20.91
-17.05
-12.5
-7.71
-3.18
0.65
3.54
5.5
6.74
7.51
8.06
8.51
8.91
9.31
9.78
10.37
11.06
11.78
12.4
12.84
13.07
13.11
13.03
12.86
12.6
12.24
11.77
11.18
10.42
9.45
8.23
6.83
5.35
3.94
2.67
1.51
0.33
-0.99
-2.55
-4.32
-6.28
-8.46
-10.94
-13.79
-17.04
-20.5
-23.79
-26.39
-27.82
-27.74
-26.04
-22.88
-18.59
-13.65
-8.56
-3.77
0.37
3.63
5.96
7.46
8.31
8.77
9.08
9.39
9.83
10.48
11.39
12.59
14.05
15.67
17.23
18.51
19.35
19.7
19.64
19.26
18.67
17.87
16.82
15.49
13.89
12.14
10.34
8.59
6.86
5.12
3.3
1.35
-0.73
-2.91
-5.13
-7.37
-9.6
-11.85
-14.13
-16.5
-19.0
-21.59
-24.13
-26.3
-27.69
-27.87
-26.6
-23.8
-19.73
-14.75
-9.36
-3.99
1.05
5.56
9.48
12.78
15.42
17.31
18.35
18.53
17.95
16.88
15.76
15.05
15.01
15.7
16.86
18.17
19.37
20.3
21.0
21.46
21.59
21.2
20.06
18.05
15.23
11.91
8.38
4.93
1.67
-1.41
-4.4
-7.39
-10.38
-13.3
-16.01
-18.41
-20.47
-22.32
-24.17
-26.27
-28.66
-31.23
-33.56
-35.07
-35.2
-33.53
-29.92
-24.62
-18.14
-11.16
-4.35
1.77
6.97
11.24
14.73
17.6
19.84
21.39
22.2
22.32
21.99
21.55
21.29
21.29
21.45
21.59
21.56
21.35
21.06
20.81
20.62
20.41
20.04
19.44
18.58
17.5
16.2
14.67
12.89
10.89
8.73
6.54
4.37
2.26
0.22
-1.75
-3.57
-5.23
-6.77
-8.36
-10.2
-12.48
-15.25
-18.41
-21.76
-25.03
-27.92
-30.07
-31.08
-30.63
-28.48
-24.67
-19.51
-13.54
-7.42
-1.72
3.21
7.29
10.55
13.15
15.18
16.69
17.7
18.24
18.39
18.29
18.08
17.9
17.89
18.11
18.6
19.32
20.15
20.89
21.42
21.6
21.42
20.9
20.08
18.95
17.55
15.86
13.94
11.91
9.88
7.98
6.22
4.55
2.87
1.09
-0.85
-2.93
-5.06
-7.17
-9.18
-11.04
-12.81
-14.6
-16.54
-18.76
-21.3
-24.07
-26.85
-29.28
-30.94
-31.45
-30.49
-27.95
-23.89
-18.7
-12.89
-7.03
-1.66
2.89
6.46
9.13
11.05
12.4
13.25
13.7
13.84
13.8
13.77
13.92
14.41
15.19
16.17
17.14
17.91
18.37
18.56
18.52
18.34
18.05
17.55
16.73
15.52
13.94
12.12
10.28
8.6
7.13
5.78
4.38
2.78
0.92
-1.14
-3.25
-5.21
-6.88
-8.26
-9.39
-10.37
-11.29
-12.22
-13.24
-14.44
-15.92
-17.72
-19.75
-21.7
-23.12
-23.5
-22.53
-20.16
-16.64
-12.43
-8.04
-3.86
-0.11
3.08
5.76
7.97
9.77
11.16
12.11
12.56
12.5
12.02
11.34
10.77
10.63
11.06
11.98
13.13
14.18
14.88
15.16
15.08
14.72
14.12
13.21
11.9
10.12
7.95
5.6
3.35
1.43
-0.01
-0.94
-1.49
-1.8
-2.04
-2.35
-2.8
-3.49
-4.54
-6.0
-7.86
-10.06
-12.48
-15.0
-17.59
-20.27
-22.98
-25.53
-27.52
-28.46
-27.94
-25.81
-22.23
-17.68
-12.72
-7.87
-3.46
0.36
3.51
5.97
7.68
8.65
8.95
8.77
8.35
7.93
7.69
7.74
8.08
8.64
9.34
10.1
10.89
11.68
12.42
13.07
13.5
13.55
13.1
12.09
10.62
8.86
7.12
5.65
4.59
3.88
3.25
2.37
1.02
-0.8
-2.9
-5.02
-6.93
-8.64
-10.22
-11.87
-13.64
-15.48
-17.29
-18.96
-20.41
-21.6
-22.38
-22.46
-21.57
-19.56
-16.51
-12.76
-8.77
-4.99
-1.74
0.88
2.93
4.5
5.68
6.54
7.17
7.63
8.03
8.4
8.73
9.01
9.24
9.43
9.67
10.01
10.48
11.01
11.46
11.66
11.52
11.03
10.28
9.36
8.25
6.87
5.13
3.06
0.8
-1.35
-3.16
-4.54
-5.6
-6.62
-7.83
-9.31
-10.97
-12.63
-14.13
-15.48
-16.8
-18.2
-19.66
-20.94
-21.66
-21.41
-20.01
-17.47
-14.14
-10.47
-6.89
-3.67
-0.94
1.38
3.38
5.12
6.57
7.6
8.11
8.12
7.77
7.33
7.09
7.2
7.69
8.37
9.0
9.32
9.23
8.77
8.1
7.41
6.76
6.12
5.35
4.28
2.79
0.96
-1.05
-3.02
-4.77
-6.25
-7.54
-8.77
-10.01
-11.3
-12.6
-13.95
-15.42
-17.06
-18.84
-20.52
-21.72
-21.97
-21.04
-18.92
-15.93
-12.48
-8.99
-5.66
-2.57
0.28
2.92
5.25
7.14
8.51
9.36
9.74
9.83
9.79
9.75
9.83
10.07
10.48
10.99
11.49
11.89
12.1
12.09
11.89
11.47
10.85
9.97
8.79
7.3
5.61
3.81
1.98
0.12
-1.75
-3.66
-5.55
-7.38
-9.13
-10.8
-12.46
-14.2
-16.05
-17.99
-19.88
-21.52
-22.62
-22.92
-22.24
-20.5
-17.82
-14.44
-10.67
-6.8
-3.01
0.57
3.86
6.75
9.15
10.97
12.22
12.98
13.37
13.53
13.57
13.56
13.53
13.5
13.48
13.44
13.38
13.34
13.32
13.3
13.21
12.9
12.2
11.04
9.5
7.8
6.18
4.82
3.74
2.77
1.73
0.43
-1.15
-2.88
-4.6
-6.15
-7.48
-8.62
-9.69
-10.77
-11.97
-13.32
-14.89
-16.67
-18.62
-20.5
-21.91
-22.42
-21.66
-19.49
-16.03
-11.67
-6.88
-2.13
2.28
6.12
9.27
11.7
13.42
14.5
15.06
15.22
15.0
14.44
13.55
12.46
11.37
10.56
10.2
10.35
10.9
11.62
12.29
12.78
13.06
13.15
13.04
12.67
11.97
10.94
9.66
8.31
7.06
6.0
5.16
4.44
3.75
3.04
2.32
1.58
0.8
-0.14
-1.31
-2.72
-4.29
-5.89
-7.41
-8.84
-10.31
-11.98
-13.96
-16.19
-18.46
-20.47
-21.9
-22.47
-22.01
-20.46
-17.88
-14.45
-10.49
-6.35
-2.36
1.19
4.17
6.45
8.0
8.86
9.13
8.98
8.59
8.18
7.89
7.82
8.02
8.48
9.15
10.0
10.95
11.95
12.95
13.85
14.57
15.02
15.11
14.87
14.37
13.73
13.06
12.37
11.57
10.55
9.22
7.63
5.93
4.3
2.88
1.76
0.87
0.13
-0.6
-1.45
-2.47
-3.66
-5.01
-6.5
-8.1
-9.84
-11.71
-13.7
-15.83
-18.05
-20.31
-22.44
-24.19
-25.23
-25.22
-23.93
-21.34
-17.73
-13.56
-9.33
-5.47
-2.21
0.39
2.45
4.09
5.43
6.53
7.42
8.11
8.65
9.15
9.76
10.52
11.45
12.46
13.38
13.95
14.03
13.63
12.94
12.18
11.6
11.25
10.99
10.47
9.43
7.78
5.72
3.52
1.54
-0.04
-1.13
-1.86
-2.39
-2.86
-3.34
-3.93
-4.71
-5.68
-6.78
-7.98
-9.24
-10.58
-12.01
-13.6
-15.36
-17.26
-19.08
-20.59
-21.49
-21.55
-20.56
-18.58
-15.75
-12.33
-8.63
-4.94
-1.52
1.41
3.76
5.51
6.75
7.56
8.11
8.44
8.57
8.51
8.32
8.16
8.2
8.55
9.2
10.06
11.01
12.01
12.97
13.82
14.37
14.44
13.86
12.63
10.89
8.92
7.0
5.22
3.65
2.27
1.06
0.03
-0.83
-1.56
-2.3
-3.13
-4.14
-5.29
-6.48
-7.61
-8.61
-9.5
-10.39
-11.49
-12.96
-14.9
-17.29
-19.87
-22.19
-23.77
-24.2
-23.3
-21.2
-18.23
-14.8
-11.2
-7.66
-4.3
-1.19
1.57
3.93
5.82
7.3
8.45
9.38
10.18
10.84
11.34
11.71
11.98
12.21
12.47
12.73
12.89
12.88
12.63
12.16
11.6
11.04
10.54
10.1
9.63
9.0
8.17
7.15
6.05
4.96
3.93
2.92
1.86
0.65
-0.77
-2.38
-4.07
-5.72
-7.21
-8.48
-9.52
-10.42
-11.31
-12.3
-13.5
-14.96
-16.71
-18.62
-20.48
-21.96
-22.63
-22.15
-20.36
-17.41
-13.66
-9.64
-5.77
-2.33
0.61
3.07
5.1
6.7
7.86
8.58
8.93
9.02
8.94
8.84
8.78
8.83
9.02
9.37
9.84
10.39
10.92
11.31
11.46
11.28
10.77
9.99
9.07
8.17
7.35
6.6
5.8
4.88
3.84
2.78
1.79
0.9
0.03
-0.95
-2.13
-3.5
-4.89
-6.15
-7.15
-7.95
-8.72
-9.7
-11.11
-13.01
-15.35
-17.92
-20.42
-22.48
-23.78
-24.09
-23.29
-21.44
-18.67
-15.24
-11.46
-7.63
-4.02
-0.8
1.97
4.29
6.16
7.57
8.48
8.91
8.96
8.83
8.74
8.85
9.15
9.6
10.1
10.62
11.18
11.85
12.58
13.24
13.62
13.55
12.94
11.9
10.59
9.23
7.94
6.76
5.63
4.45
3.22
1.98
0.81
-0.25
-1.24
-2.28
-3.5
-4.98
-6.66
-8.42
-10.15
-11.78
-13.31
-14.79
-16.32
-17.94
-19.66
-21.38
-22.83
-23.71
-23.65
-22.46
-20.18
-17.06
-13.5
-9.87
-6.39
-3.19
-0.28
2.33
4.57
6.39
7.73
8.61
9.12
9.44
9.72
10.06
10.53
11.08
11.61
12.07
12.43
12.73
13.02
13.35
13.67
13.88
13.84
13.42
12.61
11.46
10.08
8.55
6.89
5.1
3.12
0.9
-1.51
-4.0
-6.42
-8.54
-10.23
-11.43
-12.21
-12.68
-13.04
-13.4
-13.89
-14.56
-15.46
-16.61
-17.99
-19.49
-20.79
-21.5
-21.21
-19.72
-17.09
-13.67
-9.92
-6.24
-2.93
-0.05
2.43
4.5
6.12
7.18
7.65
7.59
7.25
6.95
7.0
7.6
8.73
10.17
11.6
12.68
13.23
13.31
13.11
12.9
12.81
12.77
12.52
11.8
10.56
8.93
7.28
5.9
4.95
4.32
3.76
3.02
1.93
0.44
-1.36
-3.39
-5.59
-7.87
-10.14
-12.27
-14.13
-15.74
-17.19
-18.69
-20.44
-22.5
-24.67
-26.55
-27.6
-27.36
-25.6
-22.39
-18.06
-13.1
-8.02
-3.3
0.75
3.89
6.07
7.37
8.02
8.35
8.64
9.11
9.82
10.7
11.61
12.43
13.06
13.44
13.55
13.44
13.19
12.86
12.52
12.21
11.93
11.65
11.33
10.91
10.39
9.77
9.06
8.3
7.43
6.41
5.19
3.78
2.23
0.64
-0.92
-2.47
-4.09
-5.93
-8.11
-10.63
-13.4
-16.26
-18.99
-21.25
-22.66
-22.92
-21.87
-19.6
-16.39
-12.71
-8.96
-5.44
-2.25
0.59
3.1
5.25
7.0
8.33
9.18
9.59
9.62
9.38
8.99
8.59
8.37
8.43
8.78
9.29
9.82
10.23
10.46
10.52
10.43
10.15
9.61
8.75
7.56
6.15
4.68
3.25
1.92
0.61
-0.76
-2.28
-3.96
-5.77
-7.64
-9.54
-11.48
-13.46
-15.55
-17.82
-20.25
-22.71
-24.88
-26.27
-26.43
-25.07
-22.17
-18.04
-13.21
-8.2
-3.42
0.95
4.86
8.3
11.18
13.35
14.66
15.05
14.66
13.73
12.63
11.74
11.3
11.43
12.08
13.1
14.27
15.37
16.18
16.59
16.55
16.03
15.02
13.58
11.77
9.74
7.66
5.66
3.81
2.07
0.33
-1.56
-3.65
-5.9
-8.19
-10.33
-12.21
-13.81
-15.24
-16.75
-18.59
-20.94
-23.77
-26.76
-29.37
-30.94
-30.96
-29.17
-25.7
-21.0
-15.65
-10.26
-5.25
-0.9
2.73
5.68
8.02
9.83
11.19
12.18
12.85
13.32
13.72
14.17
14.72
15.37
16.02
16.59
17.02
17.35
17.63
17.9
18.09
18.04
17.56
16.54
14.97
12.94
10.68
8.4
6.26
4.37
2.76
1.36
0.1
-1.17
-2.56
-4.14
-5.95
-8.02
-10.32
-12.8
-15.38
-17.97
-20.54
-23.14
-25.91
-28.87
-31.83
-34.28
-35.52
-34.93
-32.22
-27.59
-21.67
-15.25
-9.02
-3.31
1.85
6.57
10.94
14.94
18.43
21.31
23.52
25.15
26.3
27.05
27.35
27.07
26.03
24.19
21.66
18.72
15.66
12.54
9.19
5.25
0.43
-5.18
-11.03
-16.25
-20.17
-22.74
-24.6
-26.6
-29.22
-32.15
-34.39
-34.76
-32.42
-27.26
-19.78
-10.72
-0.79
9.39
19.17
27.76
34.31
38.32
39.82
39.45
38.04
36.28
34.53
32.9
31.56
30.79
30.92
32.12
34.28
36.98
39.56
41.45
42.37
42.39
42.0
41.96
43.06
45.83
50.02
54.39
56.85
55.21
47.96
35.08
18.04
-0.71
-18.55
-33.51
-44.59
-51.67
-55.2
-56.05
-55.45
-54.99
-56.35
-60.9
-69.13
-80.3
-92.7
-104.23
-113.17
-118.7
-121.04
-120.97
-119.33
-116.46
-112.02
-105.24
-95.37
-81.99
-65.27
-45.83
-24.57
-2.51
19.35
40.18
59.4
76.81
92.58
107.09
120.71
133.6
145.68
156.64
166.1
173.73
179.24
182.36
182.82
180.56
175.75
168.93
160.97
153.01
146.44
142.61
142.57
146.37
152.57
158.12
159.07
151.97
135.37
110.56
81.25
52.21
27.56
9.63
-1.18
-5.78
-5.4
-1.11
6.11
14.99
23.72
30.15
32.35
29.32
21.23
9.31
-4.65
-18.86
-31.92
-42.83
-51.14
-56.97
-60.93
-64.15
-67.9
-73.06
-79.59
-86.25
-91.14
-92.6
-90.25
-85.14
-79.12
-73.63
-68.84
-63.67
-56.68
-47.16
-35.69
-23.83
-13.27
-4.98
1.01
5.51
9.58
14.05
19.06
23.76
26.4
24.78
17.06
2.92
-15.71
-35.13
-51.0
-59.98
-60.71
-53.72
-40.59
-23.05
-2.82
18.04
36.91
51.41
60.52
65.22
67.98
71.02
74.47
75.85
71.27
57.75
35.44
8.06
-18.66
-39.66
-52.66
-58.78
-61.52
-64.81
-71.95
-85.32
-107.02
-139.02
-181.95
-233.45
-286.91
-332.51
-360.17
-363.8
-343.72
-306.41
-261.52
-218.0
-181.87
-155.83
-140.58
-135.51
-138.77
-146.33
-151.95
-148.7
-131.38
-98.95
-54.86
-5.45
42.38
82.72
111.12
124.18
119.72
97.83
61.47
16.47
-30.27
-73.21
-110.17
-142.2
-171.58
-198.92
-221.08
-232.18
-226.51
-201.98
-161.96
-114.45
-68.99
-32.92
-9.17
4.22
11.23
15.2
17.43
17.85
16.69
15.78
18.58
28.86
49.69
81.47
121.88
166.62
211.35
252.78
288.78
318.25
340.85
357.99
371.4
382.13
389.65
391.91
386.16
370.15
343.71
305.04
258.98
215.78
186.19
175.13
179.79
193.1
208.28
222.09
233.74
243.85
251.85
255.39
251.11
236.12
210.3
175.81
136.15
94.75
54.87
18.33
-14.56
-44.35
-71.27
-94.56
-112.76
-124.37
-128.52
-124.91
-114.35
-98.58
-79.82
-59.91
-39.88
-20.14
-0.77
18.07
36.23
53.27
68.56
81.44
91.55
98.93
103.92
106.91
108.16
107.89
106.17
102.95
98.14
91.8
84.09
75.28
65.7
55.71
45.59
35.59
25.86
16.41
7.13
-2.24
-12.0
-22.45
-33.71
-45.73
-58.36
-71.38
-84.69
-98.37
-112.63
-127.71
-143.71
-160.33
-176.91
-192.49
-206.14
-217.29
-225.91
-232.56
-238.0
-242.95
-247.67
-251.85
-254.87
-256.19
-256.0
-255.3
-255.9
-259.83
-268.62
-282.76
-301.45
-323.17
-346.12
-369.1
-391.74
-414.5
-438.48
-465.18
-496.35
-533.27
-575.71
-620.71
-662.17
-691.85
-701.8
-687.42
-649.29
-593.12
-527.35
-460.09
-396.57
-338.55
-285.45
-236.17
-190.37
-148.47
-110.98
-77.52
-46.8
-17.16
12.42
41.79
69.61
93.99
113.38
127.28
136.38
142.27
146.67
150.71
154.56
157.67
159.38
159.69
159.76
161.32
165.88
173.45
182.33
189.75
193.44
193.05
190.58
189.33
192.14
199.86
210.96
222.5
231.92
238.1
241.94
245.45
250.68
259.02
271.27
287.84
308.76
333.06
357.71
377.13
384.13
372.54
340.29
292.07
238.88
194.78
171.4
173.1
195.11
226.26
254.38
271.72
277.29
275.07
270.17
265.61
261.56
257.43
253.61
251.53
251.84
251.95
246.3
229.34
199.51
161.75
126.6
106.05
108.07
133.07
173.78
217.63
251.15
264.08
251.71
215.99
164.18
106.4
52.59
9.86
-19.24
-36.41
-46.6
-56.16
-70.99
-94.84
-127.98
-166.82
-205.33
-237.75
-261.35
-277.61
-291.1
-306.93
-328.15
-354.57
-383.16
-409.55
-429.5
-439.52
-437.23
-421.79
-394.16
-357.17
-314.99
-271.86
-230.72
-192.67
-157.45
-124.28
-92.36
-60.88
-29.13
2.97
33.53
58.3
70.98
65.38
37.97
-10.26
-73.32
-141.51
-204.2
-252.15
-279.68
-285.39
-271.62
-243.06
-205.2
-163.37
-122.43
-86.73
-60.04
-44.65
-40.45
-44.24
-50.28
-52.34
-46.13
-30.94
-9.45
13.86
35.14
52.72
67.28
81.0
96.41
115.45
139.18
167.46
198.69
229.75
256.53
275.26
283.58
281.92
273.79
264.84
261.39
268.04
285.8
311.7
339.77
363.66
379.4
386.9
389.36
390.95
394.28
399.48
404.85
408.78
410.92
411.61
410.54
405.84
395.0
376.93
353.81
330.55
312.23
301.05
294.85
288.34
276.45
257.15
232.05
204.97
179.37
156.5
135.83
116.25
97.36
80.01
65.25
53.2
42.53
30.72
15.18
-5.49
-30.93
-59.11
-87.26
-113.19
-136.2
-157.29
-178.61
-202.32
-229.37
-259.01
-289.21
-317.41
-341.74
-361.91
-379.1
-395.69
-414.7
-439.22
-471.73
-513.04
-561.13
-610.56
-653.19
-680.46
-686.5
-670.45
-636.83
-593.61
-548.96
-508.41
-473.91
-444.57
-418.68
-395.25
-374.24
-355.86
-339.68
-324.23
-307.61
-288.52
-266.89
-243.9
-221.57
-201.66
-184.97
-171.07
-158.64
-146.07
-132.24
-116.93
-100.78
-84.94
-70.42
-57.67
-46.42
-35.93
-25.34
-14.13
-2.33
9.56
20.73
30.54
38.69
45.3
50.84
55.8
60.57
65.21
69.56
73.36
76.45
78.89
80.93
82.99
85.42
88.44
92.08
96.21
100.76
105.75
111.43
118.16
126.35
136.21
147.65
160.31
173.66
187.27
200.95
214.87
229.34
244.62
260.56
276.54
291.7
305.33
317.42
328.59
339.82
351.78
364.45
377.09
388.69
398.35
405.39
409.26
409.14
404.06
393.37
377.19
356.49
332.65
306.6
278.45
247.81
214.62
180.19
147.44
120.11
101.54
93.16
93.83
99.72
105.32
104.7
93.29
69.39
34.84
-5.3
-44.43
-76.48
-97.64
-107.02
-105.88
-96.27
-79.99
-58.42
-32.9
-5.59
20.46
41.96
56.48
63.4
64.13
61.35
57.83
55.28
53.91
52.58
49.53
43.07
32.27
17.38
-0.13
-17.87
-33.29
-44.66
-51.84
-56.25
-60.12
-65.29
-72.28
-80.08
-86.83
-90.7
-90.67
-86.73
-79.75
-71.03
-61.86
-53.24
-45.57
-38.73
-32.28
-25.98
-20.18
-16.02
-14.99
-18.25
-25.96
-37.14
-49.99
-62.46
-72.79
-79.67
-82.27
-80.23
-73.72
-63.46
-50.53
-36.2
-21.7
-8.33
2.49
9.33
11.19
8.04
1.21
-6.67
-12.46
-13.59
-8.97
0.81
13.82
27.75
40.76
51.82
60.68
67.3
71.58
73.22
71.98
68.0
61.89
54.65
47.3
40.68
35.21
30.99
27.78
25.12
22.51
19.48
15.72
11.24
6.26
1.24
-3.29
-6.81
-8.86
-9.09
-7.24
-3.36
2.09
8.12
13.31
16.24
15.92
12.19
5.78
-1.99
-9.76
-16.71
-22.74
-28.28
-33.84
-39.58
-45.09
-49.61
-52.46
-53.36
-52.52
-50.5
-47.83
-44.75
-41.31
-37.48
-33.44
-29.62
-26.52
-24.45
-23.22
-22.27
-20.8
-18.32
-14.81
-10.85
-7.26
-4.7
-3.3
-2.67
-2.1
-0.96
0.99
3.48
5.88
7.6
8.29
7.95
6.86
5.42
4.0
2.96
2.64
3.36
5.21
7.98
11.04
13.59
14.94
14.82
13.52
11.63
9.78
8.31
7.1
5.75
3.82
1.04
-2.55
-6.68
-11.01
-15.24
-19.21
-22.89
-26.31
-29.45
-32.18
-34.2
-35.09
-34.46
-32.23
-28.71
-24.69
-21.03
-18.41
-16.94
-16.13
-15.19
-13.45
-10.7
-7.23
-3.74
-0.85
1.1
2.13
2.63
3.12
4.01
5.52
7.65
10.12
12.65
14.95
16.88
18.5
20.0
21.59
23.38
25.34
27.28
28.95
30.22
31.17
32.12
33.39
35.02
36.67
37.81
38.14
37.81
37.35
37.06
36.64
35.27
32.18
27.56
22.74
19.72
19.92
23.19
27.59
30.2
28.39
20.82
7.42
-11.21
-34.24
-60.7
-88.73
-115.31
-136.5
-148.85
-150.84
-143.81
-131.41
-117.94
-106.31
-96.99
-88.28
-77.75
-64.02
-47.56
-30.29
-14.51
-1.69
8.0
15.24
20.83
25.15
28.14
29.8
30.68
31.81
34.25
38.68
44.98
52.3
59.6
65.73
69.58
70.05
65.87
56.36
42.78
29.47
23.46
32.07
59.28
102.81
153.61
198.56
225.18
225.68
198.89
149.46
85.65
17.63
-43.31
-85.7
-99.87
-81.33
-33.89
29.42
89.81
128.81
134.29
104.24
46.87
-22.78
-87.35
-132.38
-150.37
-142.38
-117.26
-88.46
-69.2
-68.2
-87.5
-122.46
-163.9
-201.08
-224.57
-228.51
-212.1
-179.77
-139.81
-101.53
-71.98
-53.68
-44.45
-39.52
-34.33
-26.62
-16.45
-5.25
5.4
14.53
21.56
25.97
27.63
27.05
25.19
23.3
21.94
20.62
18.14
13.16
5.03
-5.74
-17.47
-27.77
-34.29
-35.49
-31.48
-24.43
-18.25
-17.57
-25.64
-41.92
-60.87
-72.79
-67.52
-39.45
8.29
63.17
106.78
121.98
100.23
45.45
-27.03
-96.07
-142.15
-153.75
-130.28
-81.25
-22.45
28.72
57.82
57.04
27.12
-22.96
-78.53
-123.84
-147.33
-145.29
-122.54
-89.73
-58.22
-35.38
-22.56
-16.1
-10.73
-2.93
7.56
18.39
26.68
31.26
33.0
33.94
35.87
39.18
42.69
44.48
43.11
38.39
31.7
25.2
20.9
19.87
21.73
25.05
27.85
28.66
26.65
21.65
13.96
4.55
-4.26
-8.55
-4.0
12.11
38.59
69.39
95.49
108.22
103.31
82.74
53.59
24.49
2.51
-8.33
-6.5
8.14
34.17
67.43
99.89
120.89
121.0
96.87
53.71
3.9
-38.09
-61.67
-64.14
-50.27
-28.78
-7.92
7.64
16.88
20.81
20.97
18.49
14.24
9.42
5.48
3.72
4.43
6.49
7.87
6.66
2.14
-4.74
-11.9
-17.16
-19.14
-17.84
-14.15
-9.31
-4.25
0.46
4.4
7.06
7.97
6.96
4.55
1.91
0.45
1.18
4.19
8.6
12.98
15.95
16.75
15.4
12.58
9.33
6.63
5.14
5.14
6.37
8.14
9.31
8.74
5.36
-1.15
-9.79
-18.09
-22.74
-21.2
-13.34
-2.24
6.93
9.38
3.34
-8.7
-21.24
-28.79
-28.77
-22.63
-14.7
-9.48
-9.19
-13.15
-18.95
-24.69
-29.73
-34.09
-36.59
-33.92
-22.08
0.57
30.52
59.05
75.18
71.32
46.98
9.51
-29.4
-59.47
-75.63
-78.54
-71.13
-54.91
-29.02
7.31
50.81
92.3
119.3
121.78
97.76
55.13
8.29
-28.58
-47.8
-50.4
-43.7
-36.27
-33.07
-33.96
-35.61
-34.7
-30.26
-23.7
-17.29
-12.26
-8.5
-5.12
-1.92
0.14
-0.34
-3.95
-9.33
-13.79
-14.62
-10.62
-2.73
6.35
13.59
16.83
15.03
8.38
-1.39
-10.53
-13.42
-4.08
20.61
58.06
99.39
131.84
144.22
132.01
99.6
58.44
22.55
3.54
7.56
34.53
79.08
132.23
183.09
220.77
236.61
226.37
191.23
137.17
72.93
7.46
-51.8
-99.98
-134.8
-156.12
-165.51
-165.93
-160.83
-153.25
-145.1
-136.65
-127.36
-116.89
-105.79
-95.89
-89.66
-88.98
-93.95
-102.66
-111.63
-117.25
-117.3
-111.69
-102.17
-91.2
-80.64
-71.22
-62.84
-55.29
-48.7
-43.53
-40.02
-37.78
-35.85
-33.1
-28.86
-23.26
-17.14
-11.63
-7.63
-5.44
-4.76
-4.94
-5.26
-5.25
-4.74
-3.79
-2.64
-1.58
-0.85
-0.59
-0.87
-1.64
-2.71
-3.83
-4.59
-4.59
-3.48
-1.24
1.93
5.61
9.49
13.45
17.49
21.53
25.2
27.83
28.68
27.35
24.07
19.63
15.12
11.47
9.17
8.23
8.35
9.12
10.26
11.6
13.0
14.28
15.14
15.31
14.63
13.28
11.72
10.62
10.51
11.6
13.65
16.15
18.59
20.62
22.18
23.24
23.71
23.42
22.31
20.6
18.78
17.32
16.41
15.82
15.04
13.63
11.52
9.18
7.32
6.57
7.03
8.31
9.67
10.61
11.06
11.47
12.42
14.17
16.38
18.27
18.95
17.96
15.51
12.3
9.15
6.53
4.52
2.89
1.46
0.27
-0.44
-0.46
0.28
1.61
3.22
4.73
5.79
6.08
5.44
4.01
2.23
0.79
0.3
1.01
2.68
4.7
6.44
7.45
7.62
7.06
6.01
4.71
3.4
2.33
1.66
1.34
1.04
0.28
-1.31
-3.73
-6.59
-9.29
-11.21
-12.05
-11.8
-10.7
-9.02
-6.93
-4.47
-1.66
1.37
4.3
6.62
7.88
7.86
6.74
4.99
3.16
1.55
0.14
-1.24
-2.66
-3.81
-4.1
-2.99
-0.51
2.63
5.17
6.01
4.74
1.94
-1.09
-2.99
-2.98
-1.22
1.31
3.39
4.23
3.75
2.5
1.31
0.84
1.2
1.99
2.45
1.81
-0.33
-3.82
-8.01
-11.96
-14.63
-15.22
-13.31
-9.05
-3.26
2.55
6.31
5.81
-0.38
-11.61
-24.06
-30.97
-24.78
-0.73
40.14
89.7
134.79
161.56
160.62
130.45
77.8
14.96
-44.01
-86.6
-104.14
-92.98
-55.3
0.69
61.11
109.46
130.66
115.98
66.72
-5.51
-81.96
-142.59
-172.47
-166.51
-130.24
-77.45
-25.33
10.78
21.31
4.66
-32.69
-78.41
-117.91
-138.96
-135.71
-110.74
-73.88
-38.08
-13.78
-4.78
-7.72
-15.04
-19.5
-17.9
-11.89
-5.74
-3.52
-6.29
-11.92
-16.46
-16.58
-11.37
-2.77
5.39
9.48
7.84
1.82
-5.0
-9.02
-8.63
-4.84
0.1
5.11
11.37
21.24
35.63
51.65
63.21
63.79
50.24
25.09
-4.72
-31.1
-48.62
-56.23
-56.21
-50.85
-40.0
-20.77
9.78
50.82
95.61
132.51
149.2
138.24
101.03
47.81
-6.33
-47.59
-68.7
-70.69
-60.29
-45.63
-32.16
-21.17
-11.27
-1.03
9.3
17.19
19.36
13.69
0.86
-14.5
-24.73
-21.87
-1.18
35.94
80.73
119.32
137.53
126.49
86.52
27.38
-35.11
-84.97
-110.86
-108.96
-82.59
-40.14
7.56
49.7
77.23
84.51
70.57
40.0
2.32
-29.93
-45.19
-37.66
-10.0
26.73
57.41
69.2
57.12
25.61
-13.55
-46.81
-64.76
-65.0
-51.71
-32.39
-13.95
-0.12
8.58
13.55
16.67
19.04
20.97
22.39
23.2
23.45
23.06
21.64
18.52
13.17
5.39
-4.13
-14.17
-23.19
-29.94
-33.7
-34.22
-31.62
-26.0
-17.74
-7.55
3.28
13.19
20.32
23.1
20.57
13.16
3.57
-3.16
-0.73
16.14
49.0
93.68
140.61
177.07
191.51
177.84
137.89
81.11
21.9
-24.58
-46.7
-39.33
-5.34
45.31
98.42
139.38
157.29
147.42
111.52
56.74
-6.65
-67.83
-117.81
-150.86
-165.65
-164.86
-153.89
-139.11
-125.95
-117.28
-113.15
-111.44
-109.15
-103.98
-94.98
-82.9
-69.73
-57.78
-48.69
-42.82
-39.18
-36.04
-32.04
-26.71
-20.49
-14.2
-8.41
-3.22
1.39
5.24
7.92
9.05
8.7
7.53
6.41
6.06
6.7
7.91
9.01
9.26
8.14
5.46
1.46
-3.13
-7.15
-9.18
-8.04
-3.31
4.28
12.87
19.89
22.95
20.69
13.34
2.57
-8.99
-18.48
-23.77
-24.08
-20.11
-13.99
-8.6
-6.54
-9.16
-15.58
-22.07
-22.65
-10.66
18.36
64.07
120.02
174.7
214.96
229.84
214.25
170.45
107.46
38.68
-21.18
-59.2
-67.1
-43.14
6.57
69.15
128.0
167.61
177.91
156.9
110.23
48.48
-16.54
-74.79
-119.68
-148.49
-161.86
-163.06
-157.03
-148.81
-142.1
-137.66
-133.46
-126.0
-112.82
-94.6
-75.02
-59.08
-50.17
-48.16
-49.24
-48.18
-41.11
-27.47
-10.42
5.07
14.39
15.1
7.69
-4.44
-15.69
-19.24
-9.21
17.06
56.91
101.97
139.85
158.03
148.32
109.97
50.11
-18.01
-78.66
-117.61
-125.73
-101.51
-51.84
9.13
63.43
94.33
91.72
55.65
-3.61
-68.83
-121.39
-146.36
-136.24
-92.63
-25.37
49.85
115.0
153.95
156.71
123.03
63.03
-5.38
-62.72
-94.85
-97.94
-78.98
-51.53
-28.72
-17.66
-17.79
-23.11
-26.85
-25.24
-18.91
-11.51
-7.29
-8.63
-15.34
-25.24
-34.7
-39.21
-33.82
-14.6
19.38
64.52
112.13
150.45
168.06
158.19
121.63
66.92
7.83
-41.44
-70.91
-77.83
-66.62
-46.04
-25.17
-10.25
-3.45
-3.41
-7.1
-11.46
-14.35
-14.9
-13.11
-9.41
-4.47
0.79
5.59
9.29
11.43
11.66
9.84
6.22
1.64
-2.37
-4.21
-2.88
1.13
5.9
8.97
8.54
4.46
-1.69
-7.43
-10.67
-10.59
-8.01
-4.73
-2.61
-2.76
-5.16
-8.93
-12.86
-15.98
-17.83
-18.55
-18.6
-18.51
-18.64
-18.85
-18.52
-16.75
-12.7
-6.25
1.77
9.54
14.99
16.61
14.16
8.79
2.48
-2.79
-5.76
-6.15
-4.42
-1.37
2.11
5.19
7.13
7.39
5.94
3.42
1.09
0.17
1.33
4.04
6.86
8.14
6.99
3.88
0.57
-0.91
0.44
4.16
8.5
11.26
10.99
7.77
2.91
-1.94
-5.35
-6.7
-5.73
-2.37
3.25
10.45
17.57
21.99
21.07
13.35
-0.46
-17.53
-33.89
-45.93
-51.76
-51.74
-47.25
-39.19
-26.8
-8.08
17.99
48.85
77.3
93.35
88.17
58.88
11.16
-42.36
-87.05
-111.78
-113.14
-95.65
-68.34
-40.61
-18.72
-4.7
2.44
5.09
5.6
5.54
5.75
6.6
8.19
10.36
12.82
15.2
17.19
18.55
19.28
19.37
18.91
18.08
17.18
16.85
17.83
20.48
24.46
28.52
31.0
30.64
27.2
21.7
16.01
12.01
10.66
11.72
13.8
15.07
14.14
10.54
5.01
-1.03
-6.07
-9.11
-10.08
-9.69
-9.17
-9.73
-12.28
-16.97
-23.12
-29.4
-34.23
-36.43
-35.81
-33.26
-30.46
-29.09
-29.95
-32.54
-35.11
-35.44
-31.93
-24.43
-14.52
-5.01
0.78
0.3
-7.25
-20.09
-33.75
-41.86
-37.82
-16.97
21.44
73.13
129.55
179.97
214.42
226.32
213.86
179.97
131.09
75.35
20.88
-25.5
-59.14
-77.92
-82.21
-74.28
-57.72
-36.66
-15.18
2.84
14.13
16.4
9.27
-4.63
-19.33
-26.38
-17.64
11.28
58.05
113.2
162.76
193.23
196.4
171.76
125.77
68.55
10.17
-41.95
-83.58
-113.05
-130.19
-136.02
-132.72
-123.46
-111.69
-100.05
-89.65
-80.11
-70.68
-61.2
-52.25
-44.86
-39.56
-35.92
-32.84
-29.41
-25.6
-22.47
-21.59
-23.78
-28.29
-32.92
-35.05
-32.93
-26.68
-18.26
-10.6
-6.09
-5.67
-8.56
-12.72
-15.94
-16.7
-14.7
-10.82
-6.76
-4.16
-4.08
-6.62
-10.83
-15.23
-18.39
-19.48
-18.45
-16.0
-13.17
-11.23
-11.4
-14.32
-19.49
-24.6
-25.47
-16.81
5.91
44.32
95.49
151.76
202.53
237.16
248.02
232.28
192.23
134.29
67.36
1.02
-56.09
-97.65
-120.79
-126.33
-118.23
-102.1
-83.45
-66.24
-52.38
-42.03
-34.54
-29.3
-25.84
-23.84
-22.72
-21.68
-19.98
-17.35
-14.14
-11.12
-9.2
-8.87
-9.96
-11.58
-12.55
-11.78
-8.83
-4.11
1.16
5.4
7.32
6.35
3.08
-0.95
-3.71
-3.55
0.04
5.99
11.93
15.14
13.8
7.96
-0.37
-7.99
-11.85
-10.29
-3.81
5.31
13.67
18.08
16.5
8.56
-4.12
-17.66
-26.31
-23.75
-5.51
28.2
70.93
110.88
134.73
133.03
104.47
56.8
3.73
-40.7
-67.54
-75.38
-69.14
-56.36
-43.16
-32.3
-23.53
-15.47
-7.41
-0.07
4.98
6.58
4.74
1.12
-1.98
-2.66
-0.22
4.62
10.02
13.98
15.03
12.89
8.57
3.97
1.23
1.84
5.98
12.41
18.88
23.13
23.7
20.69
15.5
10.39
7.5
7.98
11.59
16.87
21.86
24.79
24.87
22.34
18.02
12.92
8.02
4.69
5.08
11.69
25.92
46.23
67.44
81.95
83.03
68.15
40.72
8.79
-18.53
-35.28
-40.59
-38.18
-33.63
-31.26
-32.71
-37.4
-44.22
-52.8
-63.6
-76.63
-90.5
-102.03
-107.11
-102.66
-88.1
-66.04
-41.6
-20.62
-7.56
-4.02
-8.27
-16.16
-22.8
-24.37
-19.42
-9.27
2.78
12.61
16.92
14.35
5.65
-6.66
-18.39
-24.24
-18.71
1.85
36.88
79.92
119.47
142.71
140.74
112.89
67.5
18.48
-20.62
-41.93
-45.44
-37.19
-25.01
-14.58
-7.75
-3.45
0.1
3.51
5.91
5.86
2.68
-2.82
-8.45
-11.83
-11.67
-8.26
-3.4
0.44
1.32
-1.4
-6.81
-12.93
-17.55
-19.26
-17.96
-14.87
-11.94
-10.83
-12.13
-15.06
-17.93
-19.02
-17.37
-13.29
-8.06
-3.36
-0.4
0.48
-0.14
-1.32
-2.23
-2.51
-2.34
-2.16
-2.44
-3.33
-4.68
-6.07
-7.04
-7.33
-6.95
-6.18
-5.53
-5.47
-6.24
-7.73
-9.48
-10.86
-11.34
-10.83
-9.81
-9.19
-9.86
-12.38
-16.45
-20.85
-23.84
-23.83
-20.12
-13.53
-6.35
-1.39
-0.76
-4.49
-9.91
-12.3
-6.44
11.62
43.33
87.18
138.92
192.28
239.89
274.36
289.86
283.69
257.14
215.3
165.33
113.86
64.8
18.66
-26.05
-70.52
-113.54
-151.43
-179.53
-194.56
-196.33
-187.73
-173.18
-156.58
-139.98
-123.52
-106.7
-89.71
-74.04
-61.88
-54.75
-52.35
-52.42
-51.77
-47.85
-40.0
-29.55
-19.09
-11.02
-6.43
-4.71
-4.08
-2.71
0.47
5.27
10.65
15.32
18.53
20.27
21.15
21.82
22.62
23.52
24.25
24.62
24.61
24.31
23.71
22.71
21.11
18.93
16.48
14.23
12.55
11.54
10.86
10.06
8.76
6.83
4.41
1.85
-0.51
-2.33
-3.38
-3.57
-3.07
-2.39
-2.2
-3.1
-5.26
-8.27
-11.25
-13.18
-13.53
-12.54
-11.08
-10.31
-10.92
-12.69
-14.47
-14.65
-11.96
-6.26
1.17
8.02
11.74
10.73
5.14
-3.08
-10.8
-14.93
-13.67
-7.24
2.3
11.58
17.08
16.25
8.22
-5.54
-20.75
-30.72
-27.97
-7.12
31.7
81.02
127.15
154.77
153.21
121.55
69.33
12.86
-31.72
-54.9
-56.43
-43.72
-27.14
-14.94
-10.52
-12.62
-16.83
-17.65
-10.17
8.62
38.41
74.83
109.87
133.62
137.4
117.21
75.46
20.37
-36.79
-85.35
-118.3
-133.38
-132.53
-120.18
-101.38
-80.61
-61.21
-45.27
-33.79
-26.86
-23.79
-23.31
-23.6
-22.75
-19.41
-13.41
-5.79
1.61
6.9
8.97
8.04
5.45
3.22
3.08
5.76
10.71
16.34
20.69
22.36
21.1
17.83
14.21
11.7
11.02
11.9
13.32
14.14
13.63
11.85
9.41
7.11
5.47
4.59
4.27
4.1
3.73
2.89
1.49
-0.48
-2.91
-5.64
-8.5
-11.38
-14.29
-17.25
-20.27
-23.2
-25.9
-28.28
-30.47
-32.84
-35.85
-39.79
-44.57
-49.68
-54.36
-58.02
-60.36
-61.69
-62.72
-64.28
-67.01
-71.07
-76.14
-81.67
-87.18
-92.6
-98.39
-105.37
-114.28
-125.4
-138.28
-152.05
-165.71
-178.62
-190.68
-202.2
-213.7
-225.74
-238.98
-254.1
-271.51
-290.67
-309.59
-324.81
-332.46
-329.9
-317.12
-296.98
-274.21
-253.48
-237.74
-227.46
-221.19
-216.71
-212.05
-205.83
-196.95
-184.14
-165.95
-141.16
-109.53
-72.16
-31.33
10.0
49.11
84.38
115.46
143.23
169.15
194.52
219.97
245.4
270.37
294.59
318.37
342.58
368.37
396.94
429.22
465.96
507.66
554.11
603.7
653.2
697.92
733.04
755.08
762.79
757.13
740.31
714.66
681.97
644.01
603.2
563.06
527.72
500.5
482.7
473.02
468.25
464.48
458.45
448.1
432.51
411.59
385.54
354.81
320.15
282.68
243.94
205.74
169.76
137.18
108.53
83.51
61.29
40.78
21.19
2.14
-16.2
-33.41
-49.19
-63.5
-76.77
-89.65
-102.84
-116.66
-130.93
-145.02
-158.26
-170.26
-181.18
-191.78
-203.04
-215.86
-230.51
-246.55
-263.16
-279.36
-294.59
-308.87
-322.84
-337.41
-353.74
-372.92
-395.68
-421.91
-449.96
-476.4
-496.54
-505.73
-500.99
-482.34
-452.8
-417.32
-380.9
-347.02
-317.04
-290.64
-266.95
-245.34
-225.7
-208.09
-192.29
-177.53
-162.75
-147.18
-130.7
-113.97
-98.24
-84.79
-74.34
-66.76
-61.2
-56.41
-51.35
-45.63
-39.57
-33.92
-29.45
-26.42
-24.58
-23.3
-21.98
-20.22
-18.01
-15.57
-13.24
-11.3
-9.96
-9.29
-9.24
-9.69
-10.41
-11.19
-11.93
-12.69
-13.68
-15.05
-16.85
-18.8
-20.37
-20.98
-20.13
-17.69
-13.91
-9.45
-5.07
-1.45
1.04
2.43
2.96
3.01
2.83
2.58
2.33
2.18
2.31
2.94
4.16
5.83
7.62
9.14
10.17
10.7
11.0
11.41
12.19
13.33
14.56
15.48
15.69
15.0
13.42
11.23
8.84
6.65
4.94
3.8
3.08
2.54
1.87
0.93
-0.33
-1.81
-3.35
-4.79
-6.05
-7.11
-8.04
-8.92
-9.85
-10.94
-12.31
-14.01
-16.0
-18.0
-19.64
-20.52
-20.33
-19.05
-16.84
-14.03
-10.96
-7.93
-5.16
-2.81
-0.95
0.48
1.65
2.78
4.05
5.44
6.84
8.06
8.98
9.59
9.99
10.31
10.63
11.09
11.75
12.63
13.72
14.89
15.98
16.84
17.43
17.81
18.07
18.25
18.29
18.02
17.26
15.96
14.24
12.31
10.5
9.02
7.95
7.25
6.83
6.61
6.56
6.72
7.02
7.33
7.4
6.96
5.84
4.04
1.79
-0.55
-2.62
-4.23
-5.37
-6.26
-7.23
-8.57
-10.41
-12.55
-14.53
-15.76
-15.75
-14.28
-11.43
-7.55
-3.11
1.36
5.42
8.76
11.2
12.81
13.83
14.63
15.55
16.71
17.92
18.84
19.18
18.9
18.35
18.01
18.27
19.24
20.68
22.19
23.48
24.45
25.19
25.83
26.41
26.81
26.9
26.56
25.8
24.75
23.55
22.35
21.27
20.35
19.56
18.84
18.08
17.15
16.01
14.66
13.24
11.95
10.98
10.35
9.99
9.61
8.92
7.66
5.68
3.07
0.1
-2.82
-5.3
-7.09
-8.18
-8.86
-9.5
-10.53
-12.05
-13.93
-15.7
-16.89
-17.15
-16.45
-14.94
-12.83
-10.26
-7.26
-3.87
-0.3
3.02
5.63
7.21
7.84
7.91
7.87
8.05
8.49
8.95
9.23
9.33
9.42
9.84
10.77
12.14
13.73
15.24
16.48
17.44
18.17
18.69
18.87
18.53
17.54
16.0
14.23
12.6
11.44
10.79
10.44
10.02
9.29
8.19
6.96
5.93
5.31
5.07
4.87
4.3
3.08
1.24
-0.9
-2.88
-4.33
-5.24
-5.85
-6.55
-7.67
-9.33
-11.4
-13.64
-15.75
-17.47
-18.6
-18.94
-18.38
-16.88
-14.48
-11.36
-7.8
-4.11
-0.67
2.22
4.38
5.77
6.51
6.82
6.91
6.92
6.89
6.84
6.82
6.95
7.4
8.27
9.56
11.13
12.74
14.09
14.97
15.18
14.73
13.73
12.43
11.13
10.07
9.36
8.87
8.43
7.83
6.98
5.93
4.79
3.69
2.74
1.97
1.34
0.77
0.12
-0.7
-1.78
-3.08
-4.47
-5.79
-6.9
-7.84
-8.76
-9.92
-11.5
-13.55
-15.86
-18.01
-19.54
-20.04
-19.33
-17.48
-14.74
-11.46
-7.97
-4.54
-1.44
1.09
2.91
4.01
4.61
5.08
5.66
6.41
7.13
7.54
7.47
7.07
6.66
6.56
6.87
7.41
7.87
8.11
8.2
8.35
8.79
9.48
10.16
10.45
10.1
9.07
7.62
6.11
4.89
4.11
3.66
3.28
2.68
1.71
0.41
-1.04
-2.44
-3.63
-4.59
-5.37
-6.08
-6.72
-7.27
-7.73
-8.17
-8.75
-9.6
-10.76
-12.13
-13.59
-15.08
-16.56
-17.97
-19.11
-19.64
-19.13
-17.31
-14.22
-10.25
-6.07
-2.31
0.61
2.62
3.87
4.65
5.13
5.38
5.39
5.15
4.81
4.64
4.89
5.7
6.97
8.35
9.46
10.08
10.26
10.24
10.31
10.56
10.93
11.2
11.17
10.85
10.31
9.64
8.8
7.67
6.12
4.21
2.2
0.42
-0.83
-1.56
-1.99
-2.49
-3.33
-4.58
-6.09
-7.57
-8.84
-9.82
-10.67
-11.52
-12.43
-13.37
-14.23
-14.96
-15.63
-16.32
-17.01
-17.54
-17.55
-16.67
-14.74
-11.87
-8.42
-4.88
-1.67
1.01
3.06
4.54
5.45
5.85
5.82
5.55
5.26
5.15
5.37
5.91
6.67
7.43
8.01
8.37
8.59
8.91
9.54
10.48
11.51
12.22
12.25
11.45
10.02
8.35
6.79
5.47
4.28
3.08
1.77
0.4
-0.9
-2.07
-3.15
-4.15
-5.09
-5.85
-6.37
-6.69
-7.05
-7.74
-8.95
-10.6
-12.38
-13.99
-15.19
-15.94
-16.27
-16.18
-15.48
-13.96
-11.53
-8.35
-4.86
-1.63
0.94
2.72
3.89
4.73
5.42
5.91
6.0
5.51
4.5
3.29
2.4
2.25
3.0
4.4
5.95
7.19
7.83
7.9
7.66
7.4
7.34
7.48
7.71
7.91
8.01
7.97
7.78
7.34
6.49
5.11
3.19
0.91
-1.43
-3.52
-5.16
-6.3
-7.04
-7.62
-8.36
-9.49
-11.13
-13.16
-15.27
-17.02
-18.03
-18.1
-17.27
-15.76
-13.84
-11.7
-9.43
-7.11
-4.81
-2.67
-0.87
0.51
1.49
2.17
2.71
3.22
3.77
4.38
5.07
5.83
6.66
7.58
8.59
9.67
10.81
11.95
13.02
13.89
14.39
14.43
14.07
13.44
12.74
12.04
11.35
10.59
9.71
8.73
7.8
7.03
6.48
6.14
5.83
5.44
4.82
3.94
2.76
1.37
-0.13
-1.59
-2.81
-3.64
-4.06
-4.23
-4.44
-5.08
-6.45
-8.66
-11.54
-14.65
-17.49
-19.55
-20.5
-20.22
-18.77
-16.27
-12.98
-9.24
-5.45
-2.06
0.57
2.3
3.22
3.63
3.86
4.17
4.66
5.31
6.04
6.83
7.8
8.96
10.33
11.8
13.23
14.41
15.28
15.73
15.87
15.79
15.64
15.52
15.44
15.27
14.8
13.88
12.48
10.76
8.99
7.38
6.03
4.84
3.64
2.4
1.26
0.51
0.38
0.82
1.47
1.86
1.6
0.62
-0.82
-2.27
-3.41
-4.22
-4.91
-5.82
-7.14
-8.84
-10.66
-12.29
-13.53
-14.32
-14.73
-14.79
-14.41
-13.42
-11.7
-9.32
-6.53
-3.73
-1.29
0.64
2.06
3.13
3.98
4.58
4.89
4.89
4.7
4.54
4.62
5.0
5.57
6.13
6.62
7.07
7.68
8.59
9.77
11.0
12.01
12.57
12.68
12.4
11.85
10.98
9.73
8.09
6.24
4.51
3.22
2.52
2.27
2.19
1.91
1.32
0.5
-0.32
-0.93
-1.22
-1.28
-1.3
-1.48
-1.91
-2.64
-3.68
-5.01
-6.63
-8.48
-10.37
-12.06
-13.22
-13.64
-13.21
-12.01
-10.25
-8.16
-5.98
-3.85
-1.98
-0.48
0.53
1.05
1.2
1.2
1.26
1.52
2.0
2.64
3.36
4.05
4.63
5.0
5.14
5.06
4.87
4.75
4.84
5.18
5.59
5.88
5.83
5.37
4.64
3.85
3.27
2.99
3.01
3.07
2.88
2.2
0.93
-0.71
-2.32
-3.49
-4.04
-4.06
-3.91
-3.93
-4.27
-4.8
-5.24
-5.43
-5.41
-5.46
-5.81
-6.56
-7.52
-8.38
-8.87
-8.87
-8.46
-7.77
-6.96
-6.01
-4.92
-3.68
-2.31
-1.0
0.13
0.94
1.46
1.78
2.08
2.49
3.03
3.63
4.11
4.38
4.38
4.19
3.94
3.75
3.7
3.79
3.99
4.21
4.35
4.31
4.01
3.44
2.73
2.12
1.81
1.92
2.31
2.72
2.85
2.46
1.55
0.31
-0.91
-1.77
-2.04
-1.68
-0.81
0.29
1.3
1.96
2.07
1.6
0.65
-0.61
-1.96
-3.2
-4.2
-4.97
-5.61
-6.31
-7.28
-8.54
-9.92
-11.09
-11.68
-11.44
-10.39
-8.79
-7.01
-5.39
-4.13
-3.21
-2.48
-1.79
-1.05
-0.32
0.21
0.35
0.01
-0.71
-1.42
-1.71
-1.24
-0.03
1.56
2.95
3.69
3.67
3.13
2.53
2.23
2.33
2.68
3.01
3.27
3.54
3.99
4.67
5.42
5.85
5.61
4.54
2.79
0.79
-0.99
-2.1
-2.36
-1.83
-0.79
0.33
1.12
1.29
0.79
-0.25
-1.57
-2.87
-3.94
-4.68
-5.08
-5.28
-5.48
-5.93
-6.8
-8.13
-9.71
-11.18
-12.13
-12.28
-11.61
-10.32
-8.71
-7.08
-5.52
-4.06
-2.69
-1.44
-0.44
0.19
0.42
0.36
0.25
0.31
0.67
1.24
1.88
2.42
2.84
3.21
3.67
4.31
5.08
5.83
6.39
6.67
6.67
6.43
5.99
5.36
4.62
3.85
3.22
2.89
2.94
3.27
3.69
3.95
3.87
3.4
2.6
1.6
0.62
-0.14
-0.54
-0.58
-0.48
-0.51
-0.94
-1.82
-3.02
-4.22
-5.22
-5.98
-6.67
-7.56
-8.76
-10.17
-11.43
-12.15
-12.01
-10.96
-9.21
-7.14
-5.17
-3.6
-2.5
-1.73
-1.05
-0.24
0.76
1.77
2.57
2.95
2.92
2.71
2.59
2.72
3.09
3.43
3.48
3.12
2.48
1.9
1.75
2.24
3.29
4.63
5.83
6.57
6.7
6.24
5.34
4.21
2.99
1.79
0.66
-0.39
-1.39
-2.37
-3.36
-4.32
-5.12
-5.61
-5.65
-5.29
-4.71
-4.22
-4.14
-4.73
-6.03
-7.98
-10.36
-12.82
-14.95
-16.26
-16.37
-15.09
-12.62
-9.46
-6.29
-3.73
-1.99
-0.95
-0.23
0.54
1.53
2.63
3.57
4.12
4.22
4.05
3.88
3.9
4.23
4.83
5.61
6.47
7.28
7.9
8.15
7.93
7.24
6.29
5.34
4.62
4.19
3.88
3.45
2.68
1.54
0.18
-1.06
-1.91
-2.24
-2.13
-1.78
-1.47
-1.39
-1.61
-2.11
-2.74
-3.43
-4.13
-4.78
-5.39
-5.95
-6.51
-7.19
-8.13
-9.38
-10.85
-12.25
-13.24
-13.56
-13.1
-11.94
-10.09
-7.56
-4.35
-0.59
3.31
6.73
8.99
9.75
9.13
7.64
5.95
4.54
3.53
2.78
2.14
1.56
1.22
1.35
2.0
3.02
4.08
4.94
5.6
6.29
7.31
8.8
10.53
12.01
12.73
12.41
11.18
9.46
7.78
6.5
5.73
5.34
5.09
4.72
4.03
2.94
1.43
-0.4
-2.39
-4.32
-6.03
-7.47
-8.72
-9.99
-11.49
-13.32
-15.46
-17.69
-19.7
-21.14
-21.72
-21.23
-19.64
-17.1
-13.89
-10.4
-7.03
-4.07
-1.6
0.48
2.42
4.4
6.42
8.19
9.3
9.48
8.78
7.62
6.63
6.32
6.92
8.31
10.14
12.08
13.81
15.08
15.64
15.35
14.25
12.63
10.95
9.6
8.68
8.01
7.21
6.01
4.39
2.58
0.85
-0.64
-1.95
-3.23
-4.57
-5.91
-7.1
-8.06
-8.94
-9.99
-11.47
-13.44
-15.73
-18.05
-20.1
-21.71
-22.77
-23.14
-22.65
-21.1
-18.38
-14.62
-10.14
-5.41
-0.9
3.01
6.08
8.15
9.2
9.37
8.91
8.14
7.27
6.36
5.45
4.66
4.27
4.7
6.21
8.74
11.78
14.64
16.7
17.76
18.05
18.04
18.14
18.44
18.79
18.85
18.43
17.54
16.41
15.26
14.26
13.34
12.31
10.92
8.96
6.42
3.43
0.23
-2.97
-6.07
-9.12
-12.34
-15.97
-20.18
-24.8
-29.33
-32.98
-34.88
-34.46
-31.61
-26.74
-20.55
-13.79
-7.07
-0.83
4.66
9.14
12.46
14.51
15.36
15.17
14.19
12.66
10.76
8.75
6.97
5.85
5.72
6.68
8.48
10.64
12.68
14.22
15.09
15.3
14.91
13.99
12.65
11.06
9.41
7.95
6.74
5.66
4.5
3.09
1.5
0.03
-0.91
-1.1
-0.61
0.08
0.36
-0.34
-2.32
-5.56
-9.67
-14.03
-17.93
-20.67
-21.8
-21.2
-19.13
-16.11
-12.7
-9.3
-6.08
-3.0
0.05
3.1
6.06
8.78
11.0
12.55
13.35
13.41
12.82
11.76
10.4
8.87
7.26
5.62
4.05
2.77
2.06
2.15
3.09
4.58
6.08
6.96
6.78
5.48
3.46
1.32
-0.25
-0.85
-0.5
0.45
1.42
1.78
1.09
-0.9
-4.19
-8.45
-13.07
-17.18
-19.81
-20.25
-18.23
-14.13
-8.84
-3.45
1.18
4.8
7.89
11.39
16.2
22.54
29.77
36.42
40.8
41.62
38.51
32.13
23.9
15.38
7.84
1.98
-1.99
-4.12
-4.47
-3.06
0.04
4.51
9.67
14.65
18.6
21.03
21.97
21.8
21.04
19.97
18.54
16.47
13.53
9.72
5.39
1.1
-2.62
-5.44
-7.35
-8.63
-9.81
-11.46
-14.11
-17.95
-22.79
-28.02
-32.82
-36.34
-38.0
-37.6
-35.34
-31.7
-27.29
-22.63
-18.07
-13.75
-9.62
-5.57
-1.53
2.52
6.47
10.13
13.34
15.93
17.84
19.04
19.6
19.58
19.16
18.53
17.9
17.45
17.24
17.19
17.07
16.61
15.59
14.01
12.01
9.9
7.93
6.2
4.68
3.2
1.6
-0.17
-2.09
-4.04
-5.87
-7.5
-8.88
-10.06
-11.08
-12.09
-13.2
-14.48
-15.95
-17.46
-18.76
-19.47
-19.23
-17.82
-15.21
-11.63
-7.44
