2013-03-08 11:26:06
64.0
-0.0
-0.0
-0.0
-0.0
-0.0
-0.0
-0.0
-0.0
-0.0
-0.0
0.0
0.01
0.01
-0.0
-0.03
-0.05
-0.05
0.0
0.13
0.36
0.66
1.01
1.37
1.72
2.06
2.4
2.79
3.24
3.8
4.42
5.06
5.66
6.2
6.68
7.15
7.68
8.31
9.14
10.09
11.04
11.88
12.56
13.14
13.76
14.65
15.96
17.91
20.32
22.9
25.38
27.58
29.57
31.68
34.32
37.81
42.54
48.15
54.1
59.83
64.97
69.58
74.14
79.34
85.71
93.76
103.0
112.62
121.73
129.77
136.75
143.3
150.75
157.77
166.64
177.95
191.79
206.97
220.57
228.25
225.36
208.53
176.87
132.76
80.05
23.07
-34.94
-92.44
-149.16
-205.23
-260.37
-313.74
-363.87
-409.83
-450.91
-486.5
-515.74
-537.23
-549.22
-549.96
-538.37
-514.21
-478.67
-433.88
-382.45
-327.02
-269.84
-212.63
-156.66
-102.95
-52.37
-5.9
35.58
71.43
101.35
125.5
144.38
158.69
169.15
176.37
180.75
182.57
182.07
179.51
175.23
169.65
163.18
156.15
148.81
141.3
133.69
126.02
118.33
110.69
103.16
95.8
88.68
81.83
75.25
68.95
62.95
57.25
51.86
46.78
42.03
37.59
33.45
29.61
26.07
22.81
19.83
17.11
14.67
12.48
10.54
8.83
7.35
6.07
4.97
4.05
3.27
2.62
2.09
1.65
1.3
1.01
0.79
0.61
0.47
0.37
0.28
0.22
0.18
0.15
0.13
0.13
0.13
0.14
0.16
0.18
0.21
0.25
0.28
0.32
0.37
0.42
0.49
0.55
0.61
0.63
0.61
0.56
0.51
0.47
0.49
0.57
0.69
0.82
0.92
0.97
0.97
0.96
1.0
1.12
1.35
1.65
1.95
2.2
2.35
2.41
2.45
2.6
2.94
3.5
4.2
4.88
5.35
5.51
5.4
5.23
5.25
5.73
6.69
7.97
9.2
9.98
10.07
9.58
8.87
8.53
8.97
10.3
12.11
13.64
14.07
12.84
9.96
5.94
1.61
-2.4
-5.87
-9.14
-12.88
-17.7
-23.96
-31.65
-40.48
-49.79
-58.38
-64.37
-65.59
-60.35
-48.52
-32.02
-14.47
0.07
8.85
11.43
9.81
7.01
5.72
7.04
10.4
14.38
17.72
19.97
21.4
22.5
23.36
23.62
22.61
19.89
15.63
10.71
6.38
3.67
3.01
4.04
5.84
7.31
7.67
6.71
4.79
2.59
0.84
-0.01
0.08
0.71
1.1
0.56
-1.25
-4.11
-7.38
-10.29
-12.37
-13.64
-14.64
-16.1
-18.42
-21.41
-24.45
-26.7
-27.62
-27.08
-25.39
-22.5
-18.74
-14.42
-9.79
-5.13
-0.7
3.28
6.78
9.97
13.09
16.2
19.2
21.77
23.55
24.31
24.16
23.47
22.85
22.87
23.9
26.07
29.16
32.62
35.67
37.55
37.83
36.55
34.2
31.45
28.8
26.46
24.28
22.06
19.85
18.02
17.13
17.53
19.11
21.3
23.31
24.52
24.72
24.12
23.07
21.79
20.33
18.53
16.27
13.52
10.35
6.83
2.85
-1.79
-7.27
-13.54
-20.25
-26.86
-32.89
-38.21
-43.15
-48.35
-54.55
-62.28
-71.68
-82.47
-93.86
-104.69
-113.55
-119.12
-120.47
-117.48
-110.87
-102.0
-92.35
-82.97
-74.17
-65.43
-55.76
-43.9
-28.75
-9.67
13.28
39.02
65.57
90.42
111.24
126.51
135.96
140.37
141.18
139.86
137.56
135.04
132.79
131.1
129.98
129.0
127.18
123.11
115.48
103.56
87.56
68.61
48.32
28.18
8.93
-9.55
-27.91
-46.63
-65.43
-83.1
-97.92
-108.27
-113.57
-114.27
-111.79
-107.89
-104.21
-101.84
-101.34
-102.87
-106.2
-110.83
-115.74
-119.59
-120.95
-118.75
-112.67
-103.27
-91.73
-79.3
-66.77
-54.19
-41.0
-26.62
-11.07
4.85
19.66
31.97
41.13
47.63
52.89
58.51
65.51
73.99
82.98
91.08
96.99
99.93
99.5
95.56
87.88
76.3
61.09
43.14
24.25
6.66
-7.42
-16.56
-20.45
-20.01
-17.04
-13.62
-11.45
-11.47
-13.72
-17.74
-22.9
-28.8
-35.39
-42.75
-50.92
-59.68
-68.55
-76.95
-84.25
-89.87
-93.22
-93.75
-91.01
-84.89
-75.69
-64.11
-51.07
-37.53
-24.27
-11.9
-0.79
8.82
16.72
22.75
26.76
28.78
29.05
28.22
27.28
27.47
29.84
34.99
42.85
52.68
63.33
73.61
82.59
89.66
94.6
97.25
97.43
94.84
89.17
80.28
68.44
54.33
38.9
23.13
7.67
-7.12
-21.17
-34.32
-46.05
-55.39
-61.17
-62.45
-58.94
-51.18
-40.33
-27.8
-14.85
-2.33
9.21
19.35
27.68
33.81
37.45
38.56
37.24
33.65
27.94
20.46
11.91
3.59
-2.77
-5.29
-2.42
6.78
22.39
43.72
69.26
96.87
123.85
147.35
164.86
174.76
176.66
171.37
160.5
145.93
129.27
111.74
94.11
76.79
59.96
43.64
27.76
12.18
-3.2
-18.47
-33.6
-48.44
-62.71
-75.92
-87.34
-96.12
-101.46
-102.93
-100.7
-95.58
-88.8
-81.53
-74.49
-67.76
-60.93
-53.44
-44.99
-35.78
-26.43
-17.74
-10.44
-4.98
-1.57
-0.26
-0.89
-3.08
-6.1
-8.92
-10.44
-9.79
-6.68
-1.55
4.69
10.83
15.81
18.85
19.5
17.56
13.07
6.29
-2.11
-11.07
-19.26
-25.35
-28.43
-28.33
-25.7
-21.84
-18.18
-15.88
-15.43
-16.73
-19.38
-23.06
-27.67
-33.33
-40.07
-47.69
-55.71
-63.51
-70.54
-76.32
-80.33
-81.89
-80.21
-74.7
-65.4
-53.15
-39.4
-25.85
-13.71
-3.5
5.02
12.45
19.4
26.15
32.67
38.72
43.98
48.16
51.0
52.34
52.18
50.77
48.67
46.75
45.92
46.96
50.23
55.54
62.23
69.31
75.68
80.35
82.61
82.12
78.89
73.23
65.55
56.22
45.45
33.3
19.82
5.18
-10.18
-25.53
-39.94
-52.58
-62.89
-70.8
-76.62
-80.96
-84.43
-87.51
-90.41
-93.08
-95.3
-96.82
-97.39
-96.83
-94.97
-91.66
-86.82
-80.47
-72.75
-63.94
-54.3
-44.02
-33.2
-21.9
-10.27
1.34
12.39
22.28
30.48
36.72
41.0
43.44
44.33
43.91
42.5
40.52
38.48
36.91
36.26
36.65
37.81
39.11
39.7
38.74
35.72
30.56
23.57
15.42
6.83
-1.54
-9.23
-16.03
-21.93
-27.15
-31.98
-36.69
-41.33
-45.55
-48.64
-49.67
-47.91
-43.2
-36.04
-27.53
-18.93
-11.25
-5.08
-0.49
2.72
4.76
5.79
5.94
5.47
4.89
4.88
6.06
8.68
12.59
17.21
21.88
26.08
29.59
32.54
35.32
38.44
42.32
47.2
52.99
59.19
64.94
69.17
70.9
69.51
64.87
57.41
47.99
37.66
27.48
18.28
10.57
4.38
-0.69
-5.4
-10.57
-16.73
-23.98
-31.93
-39.9
-47.25
-53.56
-58.77
-62.95
-66.17
-68.31
-69.08
-68.18
-65.46
-61.06
-55.37
-48.9
-42.14
-35.53
-29.4
-24.05
-19.71
-16.45
-14.19
-12.55
-11.05
-9.13
-6.31
-2.35
2.73
8.62
14.83
20.74
25.78
29.5
31.79
32.88
33.35
33.93
35.31
37.83
41.32
45.15
48.39
50.21
50.2
48.44
45.47
41.9
38.15
34.26
29.94
24.78
18.48
11.0
2.57
-6.36
-15.21
-23.39
-30.38
-35.78
-39.36
-41.04
-40.98
-39.43
-36.73
-33.24
-29.31
-25.28
-21.49
-18.23
-15.67
-13.77
-12.28
-10.81
-9.06
-6.89
-4.4
-1.83
0.56
2.74
4.8
7.0
9.55
12.55
15.94
19.59
23.34
27.08
30.77
34.37
37.9
41.4
44.84
48.16
51.21
53.81
55.79
57.06
57.59
57.33
56.16
53.85
50.24
45.31
39.29
32.64
25.81
19.04
12.28
5.24
-2.31
-10.41
-18.79
-26.99
-34.5
-40.92
-46.05
-49.81
-52.33
-53.89
-54.92
-55.9
-57.19
-58.89
-60.78
-62.47
-63.52
-63.67
-62.82
-60.96
-58.02
-53.86
-48.25
-41.09
-32.49
-22.73
-12.23
-1.29
9.81
20.8
31.23
40.36
47.26
51.05
51.29
48.25
42.85
36.47
30.39
25.5
22.13
20.18
19.37
19.37
19.82
20.34
20.35
19.31
16.77
12.6
7.01
0.33
-7.09
-15.12
-23.8
-33.1
-42.66
-51.72
-59.17
-63.9
-65.2
-63.05
-58.21
-51.98
-45.82
-40.93
-37.93
-36.72
-36.65
-36.79
-36.26
-34.51
-31.45
-27.31
-22.47
-17.29
-11.89
-6.14
0.18
7.28
15.16
23.52
31.81
39.24
44.94
48.21
48.75
46.89
43.63
40.35
38.37
38.52
40.88
44.89
49.67
54.36
58.4
61.36
62.81
62.18
58.84
52.46
43.22
32.04
20.21
8.97
-0.99
-9.7
-17.81
-26.16
-35.33
-45.36
-55.64
-65.08
-72.3
-76.02
-75.34
-70.14
-61.11
-49.75
-37.91
-27.28
-18.94
-13.13
-9.36
-6.82
-4.82
-2.98
-1.31
-0.03
0.66
0.77
0.59
0.64
1.43
3.31
6.22
9.79
13.6
17.38
21.25
25.52
30.42
35.81
41.09
45.43
48.11
48.76
47.34
44.02
38.9
32.0
23.38
13.3
2.24
-9.24
-20.68
-31.86
-42.67
-52.98
-62.47
-70.64
-77.03
-81.55
-84.63
-87.16
-89.94
-93.1
-95.62
-95.46
-90.17
-77.99
-58.75
-34.27
-8.01
16.06
34.63
45.99
50.3
49.1
44.65
39.05
33.88
29.99
27.64
26.65
26.48
26.41
25.69
23.88
21.15
18.4
17.04
18.48
23.47
31.75
42.03
52.43
60.92
65.93
66.43
62.11
53.29
40.97
26.67
12.13
-1.14
-12.29
-21.26
-28.47
-34.37
-38.93
-41.32
-40.28
-34.61
-23.9
-8.89
8.66
26.48
42.5
55.47
65.22
72.34
77.8
82.33
86.2
89.12
90.57
90.0
87.15
82.13
75.45
68.09
61.32
56.47
54.43
55.24
57.94
60.88
62.23
60.78
56.36
49.86
42.79
36.57
32.05
29.21
27.34
25.44
22.64
18.34
12.34
4.52
-5.14
-16.67
-29.93
-44.47
-59.38
-73.41
-85.17
-93.55
-98.03
-98.95
-97.42
-95.14
-93.97
-95.38
-99.96
-107.09
-115.0
-121.22
-123.34
-119.71
-109.96
-95.07
-77.03
-58.21
-40.73
-26.0
-14.57
-6.22
-0.24
4.32
8.37
12.55
17.31
22.75
28.72
34.79
40.28
44.36
46.21
45.38
41.96
36.69
30.79
25.51
21.67
19.37
18.1
17.04
15.58
13.57
11.32
9.23
7.42
5.62
3.18
-0.57
-6.0
-13.06
-21.32
-30.11
-38.79
-46.7
-53.33
-58.24
-61.14
-61.97
-60.85
-58.07
-53.99
-48.93
-43.14
-36.75
-30.0
-23.22
-16.89
-11.49
-7.37
-4.61
-2.97
-1.91
-0.73
1.4
5.27
11.45
20.05
30.47
41.56
51.83
60.02
65.43
68.1
68.51
67.2
64.57
60.68
55.66
49.7
43.18
36.47
29.7
22.69
15.25
7.44
-0.18
-6.65
-11.04
-12.9
-12.51
-10.82
-9.2
-8.89
-10.7
-14.78
-20.7
-27.54
-34.18
-39.57
-42.95
-44.08
-43.23
-41.07
-38.39
-35.8
-33.52
-31.44
-29.3
-26.89
-24.21
-21.45
-18.86
-16.57
-14.58
-12.79
-11.16
-9.79
-8.85
-8.49
-8.62
-8.92
-8.9
-8.08
-6.19
-3.18
0.73
5.15
9.58
13.41
15.99
16.84
15.79
13.18
9.77
6.49
4.07
2.69
1.97
1.1
-0.87
-4.63
-10.51
-18.36
-27.69
-37.66
-47.27
-55.44
-61.18
-63.71
-62.58
-57.6
-48.68
-35.76
-18.96
1.27
23.78
46.69
67.58
84.04
94.21
97.28
93.64
84.66
72.29
58.59
45.5
34.6
27.06
23.5
23.95
27.86
34.28
42.04
50.02
57.28
63.19
67.45
70.08
71.29
71.2
69.75
66.6
61.4
54.03
44.9
34.93
25.32
17.11
10.77
6.06
2.19
-1.83
-6.87
-13.38
-21.32
-30.24
-39.35
-47.79
-54.79
-59.93
-63.22
-65.07
-65.97
-66.26
-65.91
-64.39
-60.99
-55.04
-46.31
-35.2
-22.7
-10.17
1.0
9.7
15.34
17.85
17.61
15.3
11.81
8.08
5.04
3.49
3.91
6.4
10.55
15.58
20.51
24.43
26.76
27.32
26.32
24.13
21.13
17.61
13.87
10.32
7.56
6.25
6.77
9.02
12.16
14.77
15.2
12.15
5.06
-5.62
-18.59
-32.09
-44.46
-54.65
-62.39
-68.04
-72.2
-75.3
-77.37
-78.1
-76.99
-73.63
-67.79
-59.45
-48.82
-36.3
-22.6
-8.67
4.46
15.82
24.83
31.32
35.59
38.15
39.6
40.39
40.82
41.06
41.28
41.65
42.42
43.84
46.07
49.04
52.46
55.83
58.56
60.09
60.03
58.2
54.75
50.1
44.98
40.25
36.62
34.47
33.57
33.22
32.39
30.09
25.71
19.19
11.03
2.11
-6.59
-14.25
-20.4
-24.98
-28.25
-30.73
-32.98
-35.46
-38.5
-42.24
-46.74
-52.06
-58.3
-65.51
-73.51
-81.74
-89.23
-94.82
-97.38
-96.29
-91.61
-84.03
-74.72
-64.82
-55.23
-46.39
-38.32
-30.82
-23.61
-16.43
-9.12
-1.58
6.24
14.32
22.47
30.35
37.47
43.34
47.66
50.45
51.94
52.56
52.61
52.25
51.48
50.22
48.54
46.51
44.25
41.71
38.73
35.14
30.84
25.98
20.76
15.49
10.32
5.32
0.43
-4.45
-9.5
-14.92
-20.95
-27.72
-35.16
-42.85
-50.05
-55.84
-59.46
-60.53
-59.21
-56.13
-52.17
-48.27
-45.11
-43.03
-41.98
-41.56
-41.21
-40.37
-38.58
-35.55
-31.19
-25.55
-18.9
-11.56
-3.98
3.47
10.48
16.9
22.72
27.95
32.56
36.32
38.9
40.07
39.93
39.05
38.29
38.51
40.08
42.66
45.32
46.96
46.72
44.34
40.07
34.55
28.33
21.84
15.37
9.23
3.88
-0.26
-2.87
-3.99
-3.96
-3.23
-2.23
-1.25
-0.59
-0.64
-2.02
-5.42
-11.23
-19.27
-28.64
-37.93
-45.6
-50.5
-52.21
-50.95
-47.47
-42.67
-37.43
-32.42
-28.13
-24.87
-22.76
-21.62
-20.95
-19.93
-17.61
-13.24
-6.54
2.1
11.7
20.87
28.24
32.76
33.97
31.99
27.47
21.44
15.02
9.29
5.05
2.75
2.41
3.7
6.07
8.85
11.42
13.28
14.04
13.55
11.83
9.1
5.76
2.23
-1.11
-4.07
-6.7
-9.2
-11.72
-14.13
-15.89
-16.18
-14.25
-9.82
-3.3
4.2
11.3
16.79
20.03
21.08
20.41
18.63
16.16
13.31
10.33
7.6
5.69
5.21
6.64
10.16
15.55
22.34
30.0
38.1
46.52
55.29
64.4
73.6
82.24
89.45
94.34
96.39
95.6
92.39
87.45
81.37
74.54
67.1
59.04
50.33
40.87
30.52
18.95
5.76
-9.43
-26.66
-45.35
-64.19
-81.27
-94.51
-102.22
-103.56
-98.78
-89.12
-76.44
-62.73
-49.72
-38.72
-30.5
-25.26
-22.63
-21.7
-21.25
-20.04
-17.26
-12.68
-6.71
-0.11
6.36
12.27
17.56
22.49
27.42
32.69
38.49
44.79
51.37
57.73
63.11
66.56
67.25
64.71
59.06
51.08
41.9
32.72
24.41
17.34
11.45
6.35
1.56
-3.33
-8.62
-14.44
-20.76
-27.37
-33.95
-40.09
-45.34
-49.26
-51.51
-51.9
-50.42
-47.33
-43.07
-38.21
-33.35
-29.09
-25.81
-23.61
-22.18
-20.74
-18.27
-13.79
-6.84
2.25
12.35
21.91
29.56
34.51
36.8
37.0
35.87
34.03
31.78
29.31
26.79
24.58
23.11
22.76
23.6
25.37
27.62
29.82
31.49
32.17
31.51
29.34
25.77
21.26
16.6
12.65
10.08
9.13
9.54
10.67
11.68
11.69
9.8
5.08
-3.33
-15.84
-32.02
-50.37
-68.5
-83.62
-93.4
-96.49
-92.97
-84.12
-72.12
-59.44
-48.2
-39.84
-34.81
-32.64
-32.26
-32.49
-32.59
-32.44
-32.44
-33.05
-34.31
-35.7
-36.29
-35.15
-31.81
-26.28
-19.02
-10.48
-1.04
9.05
19.46
29.56
38.51
45.42
49.74
51.42
50.99
49.24
46.92
44.52
42.03
39.12
35.29
30.2
23.84
16.63
9.27
2.53
-3.07
-7.36
-10.65
-13.65
-17.19
-22.11
-28.93
-37.68
-47.81
-58.25
-67.63
-74.6
-78.16
-77.91
-74.03
-67.24
-58.49
-48.84
-39.22
-30.33
-22.57
-15.94
-10.13
-4.64
1.02
7.17
13.78
20.65
27.41
33.77
39.61
45.0
50.12
55.2
60.38
65.69
71.07
76.26
80.89
84.35
85.95
84.98
81.01
74.15
65.22
55.6
46.85
40.14
35.82
33.25
31.06
27.81
22.57
15.32
6.95
-1.19
-7.87
-12.48
-15.14
-16.48
-17.16
-17.55
-17.6
-17.09
-15.89
-14.21
-12.59
-11.7
-12.1
-14.16
-18.11
-24.1
-32.13
-41.88
-52.46
-62.36
-69.79
-73.2
-71.81
-65.93
-56.78
-46.0
-35.14
-25.27
-16.88
-10.06
-4.66
-0.45
2.96
6.11
9.65
14.24
20.2
27.42
35.27
42.82
49.06
53.23
54.94
54.16
51.12
46.3
40.28
33.77
27.54
22.19
18.05
15.12
13.04
11.36
9.7
7.86
5.82
3.67
1.53
-0.47
-2.19
-3.51
-4.32
-4.63
-4.56
-4.36
-4.28
-4.59
-5.46
-6.97
-9.09
-11.69
-14.56
-17.39
-19.75
-21.16
-21.13
-19.24
-15.38
-9.86
-3.53
2.37
6.62
8.49
8.13
6.59
5.35
5.7
8.1
12.14
16.9
21.56
25.97
30.61
36.13
42.74
49.8
55.95
59.73
60.27
57.65
52.65
46.33
39.37
32.04
24.38
16.61
9.34
3.41
-0.57
-2.6
-3.4
-4.06
-5.53
-8.14
-11.59
-15.21
-18.46
-21.33
-24.27
-27.91
-32.52
-37.68
-42.38
-45.37
-45.75
-43.36
-38.78
-33.02
-27.03
-21.34
-16.06
-11.12
-6.53
-2.63
0.1
1.25
0.8
-0.84
-2.93
-4.77
-5.89
-6.18
-5.83
-5.18
-4.66
-4.73
-5.78
-8.15
-11.91
-16.89
-22.62
-28.46
-33.88
-38.47
-42.01
-44.38
-45.39
-44.85
-42.66
-38.93
-34.15
-29.1
-24.64
-21.46
-19.89
-19.76
-20.57
-21.74
-22.81
-23.63
-24.29
-25.01
-25.93
-26.9
-27.48
-27.05
-25.11
-21.43
-16.25
-10.2
-4.15
0.83
3.69
3.71
0.79
-4.22
-9.49
-12.68
-11.72
-5.66
4.83
17.66
30.12
39.97
46.14
48.9
49.33
48.63
47.47
45.96
43.75
40.6
36.51
31.79
26.9
22.24
18.02
14.2
10.62
7.11
3.59
0.13
-3.09
-5.91
-8.3
-10.37
-12.28
-14.11
-15.65
-16.51
-16.24
-14.57
-11.61
-7.95
-4.37
-1.55
0.29
1.46
2.62
4.47
7.45
11.6
16.58
21.83
26.89
31.52
35.67
39.4
42.59
44.93
45.94
45.18
42.54
38.26
32.92
27.17
21.54
16.25
11.3
6.51
1.69
-3.33
-8.72
-14.71
-21.57
-29.51
-38.51
-48.25
-58.05
-67.01
-74.18
-78.73
-80.06
-77.97
-72.63
-64.63
-54.83
-44.2
-33.59
-23.59
-14.46
-6.27
0.82
6.45
10.08
11.22
9.79
6.24
1.54
-3.25
-7.29
-10.08
-11.47
-11.45
-10.02
-7.2
-3.02
2.29
8.31
14.56
20.54
25.95
30.68
34.86
38.76
42.7
46.78
50.86
54.4
56.72
57.24
55.68
52.16
46.98
40.34
32.17
22.26
10.46
-2.87
-16.85
-30.13
-41.34
-49.47
-54.21
-55.98
-55.66
-54.28
-52.66
-51.1
-49.39
-46.86
-42.72
-36.43
-27.92
-17.71
-6.76
3.72
12.62
19.08
22.67
23.54
22.37
20.28
18.57
18.32
20.08
23.72
28.57
33.74
38.4
41.97
44.12
44.67
43.55
40.87
37.02
32.64
28.47
25.09
22.69
21.04
19.61
18.01
16.09
14.02
12.13
10.57
9.23
7.64
5.24
1.7
-2.96
-8.23
-13.32
-17.41
-19.94
-20.77
-20.32
-19.36
-18.74
-19.12
-20.62
-22.89
-25.22
-26.92
-27.56
-27.12
-25.88
-24.29
-22.77
-21.69
-21.33
-21.85
-23.31
-25.44
-27.78
-29.72
-30.71
-30.36
-28.52
-25.27
-20.81
-15.45
-9.62
-3.76
1.7
6.46
10.44
13.68
16.38
18.63
20.5
22.01
23.12
23.82
24.12
24.02
23.51
22.59
21.27
19.55
17.49
15.08
12.32
9.13
5.41
1.13
-3.61
-8.53
-13.23
-17.33
-20.5
-22.68
-23.9
-24.33
-24.14
-23.39
-22.09
-20.21
-17.72
-14.6
-10.93
-6.83
-2.61
1.3
4.37
6.27
6.9
6.6
5.94
5.55
5.9
7.18
9.37
12.36
16.03
20.29
25.05
30.15
35.42
40.68
45.78
50.53
54.66
57.8
59.49
59.4
57.37
53.56
48.34
42.28
35.9
29.69
23.97
18.83
14.08
9.32
4.08
-1.98
-8.86
-16.15
-23.25
-29.54
-34.68
-38.59
-41.36
-43.12
-43.95
-43.92
-43.23
-42.21
-41.24
-40.56
-40.11
-39.55
-38.52
-36.95
-35.18
-33.83
-33.6
-34.85
-37.44
-40.79
-44.04
-46.38
-47.17
-46.04
-42.9
-37.85
-31.06
-22.77
-13.27
-2.93
7.69
17.83
26.67
33.56
38.2
40.81
41.94
42.2
41.99
41.37
40.19
38.32
35.85
33.08
30.43
28.19
26.42
25.06
23.88
22.71
21.43
19.92
18.08
15.76
12.87
9.37
5.29
0.66
-4.37
-9.59
-14.72
-19.31
-22.86
-25.01
-25.74
-25.43
-24.8
-24.57
-25.27
-27.08
-29.77
-32.96
-36.2
-39.08
-41.22
-42.29
-42.03
-40.42
-37.79
-34.69
-31.71
-29.18
-26.92
-24.36
-20.71
-15.45
-8.6
-0.7
7.4
14.8
20.85
25.4
28.62
30.84
32.35
33.2
33.25
32.22
29.89
26.31
21.79
16.79
11.79
7.14
3.06
-0.18
-2.31
-3.04
-2.31
-0.48
1.58
2.76
2.09
-0.92
-6.03
-12.45
-19.11
-25.08
-29.8
-33.19
-35.45
-36.92
-37.89
-38.47
-38.58
-37.95
-36.22
-33.03
-28.17
-21.58
-13.43
-4.04
6.18
16.79
27.41
37.77
47.63
56.78
65.0
72.11
78.04
82.88
86.78
89.85
92.05
93.03
92.42
89.92
85.6
79.93
73.5
66.85
60.17
53.35
46.23
38.78
31.2
23.76
16.65
9.81
2.97
-4.1
-11.5
-19.08
-26.53
-33.49
-39.56
-44.23
-46.9
-46.97
-44.08
-38.37
-30.51
-21.56
-12.64
-4.74
1.44
5.37
6.73
5.37
1.5
-4.22
-10.71
-16.76
-21.35
-23.96
-24.52
-23.4
-21.09
-18.12
-14.93
-11.89
-9.32
-7.39
-6.13
-5.31
-4.46
-3.07
-0.69
2.79
7.08
11.47
15.05
16.98
16.76
14.29
9.89
4.01
-2.92
-10.61
-18.86
-27.43
-35.98
-44.04
-51.08
-56.7
-60.68
-63.03
-63.93
-63.65
-62.43
-60.53
-58.1
-55.25
-52.03
-48.39
-44.19
-39.21
-33.22
-26.05
-17.72
-8.44
1.39
11.24
20.54
28.76
35.38
39.92
42.05
41.62
38.86
34.36
29.06
23.99
20.08
17.94
17.71
19.11
21.52
24.19
26.4
27.6
27.47
25.9
22.86
18.42
12.61
5.59
-2.36
-10.83
-19.21
-26.89
-33.21
-37.71
-40.08
-40.3
-38.67
-35.73
-32.22
-28.85
-26.18
-24.38
-23.3
-22.48
-21.42
-19.79
-17.56
-14.95
-12.27
-9.72
-7.25
-4.63
-1.58
2.0
6.01
10.12
13.98
17.33
20.09
22.38
24.37
26.27
28.23
30.36
32.69
35.14
37.51
39.49
40.74
40.96
39.88
37.38
33.43
28.02
21.22
13.16
4.22
-4.98
-13.55
-20.5
-25.0
-26.65
-25.62
-22.55
-18.29
-13.59
-8.85
-4.15
0.64
5.58
10.55
15.15
18.73
20.58
19.99
16.56
10.34
1.98
-7.33
-16.06
-22.62
-25.74
-24.77
-19.85
-11.81
-2.02
8.0
16.94
23.96
28.91
32.06
33.98
35.13
35.73
35.71
34.92
33.19
30.48
26.8
22.04
15.98
8.26
-1.37
-12.85
-25.68
-39.01
-51.82
-63.16
-72.41
-79.32
-84.11
-87.32
-89.61
-91.54
-93.28
-94.47
-94.27
-91.65
-85.79
-76.42
-63.98
-49.35
-33.68
-17.97
-3.12
10.08
20.81
28.38
32.42
33.09
31.24
28.18
25.33
23.85
24.36
26.91
31.11
36.29
41.62
46.25
49.5
51.05
51.12
50.43
50.0
50.81
53.39
57.58
62.53
66.92
69.43
69.05
65.47
59.04
50.56
41.04
31.31
21.91
13.09
5.0
-2.23
-8.46
-13.67
-18.1
-22.19
-26.52
-31.4
-36.57
-41.17
-43.92
-43.57
-39.48
-31.81
-21.65
-10.59
-0.21
8.45
15.15
20.39
25.14
30.26
36.16
42.6
48.54
52.08
50.6
41.43
23.0
-3.77
-34.76
-63.28
-82.18
-86.58
-76.0
-54.47
-28.77
-5.51
11.37
21.33
26.3
28.78
30.33
31.1
30.39
27.72
23.28
17.92
12.53
7.52
2.62
-2.87
-9.4
-16.8
-24.23
-30.45
-34.41
-35.76
-35.03
-33.43
-32.29
-32.59
-34.54
-37.67
-41.09
-43.93
-45.63
-46.05
-45.38
-43.92
-41.92
-39.52
-36.76
-33.65
-30.26
-26.65
-22.87
-18.9
-14.7
-10.34
-6.08
-2.33
0.42
1.81
1.81
0.62
-1.27
-3.36
-5.22
-6.61
-7.55
-8.26
-9.18
-10.81
-13.63
-17.89
-23.4
-29.38
-34.49
-37.05
-35.38
-28.15
-14.8
4.3
27.84
53.78
79.65
102.93
121.42
133.64
139.13
138.5
133.37
125.9
118.16
111.62
106.86
103.58
101.0
98.29
94.88
90.6
85.58
80.2
74.9
70.29
66.96
65.28
65.16
65.88
66.38
65.62
63.09
59.0
54.05
48.95
43.92
38.64
32.52
25.29
17.35
9.75
3.65
-0.26
-2.16
-3.01
-4.12
-6.5
-10.53
-15.87
-21.83
-27.75
-33.29
-38.54
-43.8
-49.43
-55.73
-62.85
-70.8
-79.47
-88.51
-97.27
-104.9
-110.43
-113.06
-112.31
-108.19
-101.06
-91.65
-80.78
-69.29
-57.95
-47.32
-37.8
-29.64
-22.99
-18.0
-14.71
-13.05
-12.57
-12.49
-11.81
-9.63
-5.58
0.06
6.51
12.8
18.23
22.63
26.41
30.22
34.65
39.8
45.11
49.46
51.54
50.36
45.56
37.59
27.42
16.24
5.04
-5.53
-15.19
-23.88
-31.57
-38.16
-43.53
-47.55
-50.21
-51.63
-52.04
-51.69
-50.77
-49.28
-47.02
-43.62
-38.76
-32.41
-25.01
-17.4
-10.72
-6.04
-4.14
-5.24
-8.98
-14.46
-20.52
-25.91
-29.66
-31.26
-30.74
-28.59
-25.54
-22.19
-18.78
-15.16
-10.83
-5.29
1.75
10.2
19.64
29.47
39.18
48.31
56.55
63.51
68.67
71.41
71.19
67.78
61.51
53.2
43.98
34.95
26.77
19.54
12.87
6.1
-1.32
-9.55
-18.34
-27.14
-35.26
-42.22
-47.72
-51.7
-54.29
-55.69
-56.18
-56.1
-55.79
-55.5
-55.28
-54.88
-53.82
-51.7
-48.55
-45.08
-42.51
-41.95
-43.69
-46.75
-49.03
-48.09
-42.26
-31.35
-16.89
-1.53
11.92
21.38
25.93
25.93
22.64
17.77
13.1
10.02
9.3
10.92
14.18
18.02
21.43
23.82
25.09
25.57
25.67
25.71
25.6
25.02
23.39
20.25
15.39
9.01
1.67
-5.89
-12.87
-18.68
-22.99
-25.77
-27.22
-27.72
-27.7
-27.57
-27.74
-28.47
-29.88
-31.72
-33.29
-33.43
-30.7
-23.77
-11.87
4.9
25.44
47.88
69.81
88.87
103.05
111.01
112.2
106.9
95.97
80.72
62.63
43.28
24.17
6.6
-8.48
-20.65
-30.09
-37.5
-43.64
-49.07
-53.93
-57.94
-60.69
-61.72
-60.6
-56.75
-49.49
-38.23
-22.85
-4.15
16.15
35.69
52.12
63.76
69.95
71.08
68.24
62.81
56.14
49.32
43.06
37.65
32.94
28.39
23.19
16.52
7.79
-3.1
-15.61
-28.62
-40.62
-50.08
-55.92
-57.78
-56.25
-52.62
-48.52
-45.4
-44.1
-44.62
-46.14
-47.33
-46.77
-43.44
-37.11
-28.5
-19.1
-10.71
-4.76
-1.73
-0.97
-0.83
0.65
5.11
13.22
24.39
36.9
48.43
56.62
59.78
57.27
49.67
38.65
26.47
15.42
7.29
2.96
2.36
4.57
8.16
11.61
13.56
13.04
9.52
2.83
-6.77
-18.64
-31.69
-44.52
-55.74
-64.41
-70.46
-74.82
-79.11
-84.94
-93.17
-103.36
-113.81
-122.21
-126.39
-125.13
-118.45
-107.39
-93.52
-78.47
-63.61
-49.95
-37.94
-27.02
-15.24
0.6
23.96
57.03
99.24
146.97
194.48
235.92
267.31
287.39
297.23
298.79
293.71
282.73
266.1
244.29
218.44
190.22
161.33
133.02
106.0
80.6
56.93
34.82
13.82
-6.92
-28.31
-50.95
-74.74
-98.75
-121.46
-141.28
-157.02
-168.12
-174.65
-177.07
-175.93
-171.74
-164.89
-155.7
-144.44
-131.32
-116.48
-100.17
-82.81
-65.27
-48.8
-34.8
-24.46
-18.3
-15.92
-16.05
-16.96
-16.94
-14.82
-10.19
-3.46
4.3
11.76
17.66
21.18
22.13
21.0
18.71
16.3
14.61
14.03
14.5
15.61
16.81
17.56
17.48
16.42
14.44
11.79
8.82
5.81
2.83
-0.34
-4.09
-8.84
-14.8
-21.83
-29.42
-36.76
-42.94
-47.07
-48.43
-46.66
-41.75
-34.22
-25.01
-15.35
-6.38
1.15
7.03
11.66
15.62
19.47
23.42
27.36
30.93
33.71
35.34
35.56
34.21
31.32
27.09
21.99
16.77
12.24
9.12
7.79
8.19
9.81
11.86
13.57
14.39
14.16
13.09
11.68
10.44
9.75
9.77
10.37
11.24
12.04
12.44
12.27
11.41
9.8
7.41
4.19
0.16
-4.55
-9.69
-14.87
-19.59
-23.44
-26.07
-27.3
-27.15
-25.81
-23.49
-20.45
-16.84
-12.7
-8.13
-3.3
1.42
5.52
8.54
10.26
10.79
10.51
9.91
9.41
9.22
9.47
10.31
12.05
15.17
20.08
26.92
35.34
44.56
53.56
61.42
67.55
71.71
73.99
74.5
73.4
70.7
66.46
60.8
53.96
46.15
37.58
28.33
18.52
8.32
-1.9
-11.73
-20.75
-28.74
-35.62
-41.38
-45.99
-49.34
-51.29
-51.84
-51.15
-49.53
-47.26
-44.42
-40.89
-36.45
-31.06
-24.95
-18.68
-12.91
-8.17
-4.72
-2.51
-1.33
-0.92
-1.04
-1.42
-1.81
-1.88
-1.4
-0.23
1.53
3.69
5.95
8.16
10.31
12.48
14.87
17.59
20.61
23.76
26.75
29.26
30.96
31.57
30.85
28.59
24.69
19.19
12.37
4.65
-3.47
-11.7
-19.96
-28.51
-37.6
-47.25
-57.06
-66.15
-73.52
-78.34
-80.28
-79.52
-76.58
-72.11
-66.68
-60.74
-54.67
-48.83
-43.54
-39.02
-35.29
-32.19
-29.46
-26.69
-23.5
-19.52
-14.52
-8.58
-2.07
4.41
10.35
15.57
20.37
25.3
30.85
37.16
43.8
49.99
54.87
57.82
58.59
57.3
54.24
49.75
44.17
37.89
31.41
25.35
20.34
16.77
14.69
13.73
13.25
12.51
10.98
8.45
5.0
0.94
-3.35
-7.48
-11.05
-13.69
-15.07
-15.12
-14.04
-12.39
-10.92
-10.24
-10.69
-12.09
-13.91
-15.5
-16.39
-16.57
-16.44
-16.71
-18.03
-20.69
-24.43
-28.38
-31.23
-31.57
-28.32
-21.03
-9.98
3.9
19.33
34.93
49.39
61.63
70.81
76.45
78.46
77.23
73.47
68.02
61.66
54.91
48.09
41.37
34.85
28.52
22.15
15.3
7.51
-1.44
-11.31
-21.46
-31.03
-39.33
-45.96
-50.89
-54.21
-56.12
-56.86
-56.85
-56.74
-57.19
-58.56
-60.62
-62.57
-63.26
-61.78
-57.76
-51.53
-43.89
-35.76
-27.9
-20.83
-14.81
-9.97
-6.4
-4.09
-2.83
-2.16
-1.34
0.49
4.12
10.0
17.91
26.96
35.7
42.54
46.33
46.78
44.56
41.04
37.6
35.08
33.41
31.75
28.92
23.98
16.62
7.3
-2.95
-13.0
-21.95
-29.39
-35.39
-40.17
-43.92
-46.57
-47.8
-47.31
-44.96
-41.11
-36.41
-31.67
-27.51
-24.16
-21.41
-18.74
-15.63
-11.73
-6.99
-1.58
4.13
9.71
14.77
18.99
22.14
24.08
24.73
24.14
22.5
20.2
17.71
15.45
13.71
12.49
11.6
10.9
10.4
10.46
11.56
14.12
18.1
22.84
27.2
29.93
30.19
27.88
23.74
18.98
14.81
12.01
10.59
9.96
9.15
7.17
3.3
-2.63
-10.3
-18.8
-26.91
-33.28
-36.82
-37.1
-34.61
-30.74
-27.32
-25.88
-26.83
-29.12
-30.57
-28.71
-21.78
-9.51
6.85
24.98
42.38
56.93
67.33
72.97
73.88
70.63
64.41
56.94
50.25
46.16
45.83
49.41
55.96
63.68
70.3
73.56
71.82
64.45
52.14
36.84
21.29
8.26
-0.19
-3.28
-1.63
3.11
8.87
13.82
16.72
17.2
15.54
12.5
8.93
5.49
2.44
-0.33
-3.2
-6.49
-10.31
-14.45
-18.5
-22.08
-24.99
-27.24
-28.88
-29.83
-29.75
-28.08
-24.2
-17.69
-8.56
2.66
14.94
27.0
37.57
45.72
51.08
53.87
54.74
54.59
54.32
54.66
56.03
58.48
61.65
64.79
66.99
67.4
65.47
61.19
54.9
47.19
38.64
29.72
20.73
11.91
3.47
-4.44
-11.82
-18.92
-26.18
-34.09
-42.92
-52.5
-62.2
-71.1
-78.32
-83.37
-86.3
-87.65
-88.21
-88.66
-89.25
-89.77
-89.66
-88.31
-85.36
-80.87
-75.2
-68.86
-62.27
-55.6
-48.72
-41.37
-33.36
-24.63
-15.34
-5.83
3.53
12.33
20.32
27.35
33.44
38.83
43.8
48.72
53.91
59.56
65.72
72.13
78.31
83.52
86.89
87.64
85.34
80.07
72.43
63.47
54.3
45.91
38.9
33.42
29.11
25.25
20.83
14.8
6.35
-4.79
-18.13
-32.5
-46.28
-57.91
-66.37
-71.4
-73.44
-73.35
-71.97
-69.86
-67.14
-63.68
-59.3
-53.99
-48.0
-41.8
-35.92
-30.81
-26.66
-23.32
-20.3
-16.88
-12.33
-6.08
1.99
11.48
21.56
31.18
39.32
45.36
49.15
51.02
51.6
51.6
51.58
51.86
52.47
53.16
53.46
52.77
50.47
46.07
39.42
30.82
20.98
10.98
1.98
-5.08
-9.69
-11.82
-11.92
-10.65
-8.83
-7.12
-6.1
-6.12
-7.28
-9.55
-12.65
-16.19
-19.63
-22.42
-24.05
-24.15
-22.53
-19.2
-14.35
-8.42
-2.06
3.86
8.39
10.71
10.35
7.37
2.31
-3.97
-10.57
-16.81
-22.31
-26.99
-30.94
-34.19
-36.67
-38.05
-37.89
-35.68
-31.11
-24.16
-15.23
-5.04
5.45
15.3
23.7
30.23
34.81
37.62
38.95
38.97
37.66
34.72
29.78
22.54
12.97
1.42
-11.35
-24.32
-36.46
-46.86
-55.09
-61.27
-65.99
-69.94
-73.34
-75.63
-75.57
-71.72
-63.29
-50.65
-35.33
-19.52
-5.31
5.86
13.39
17.28
17.88
15.76
11.7
6.78
2.23
-0.95
-2.28
-1.91
-0.42
1.64
4.11
7.27
11.53
17.06
23.47
29.79
34.93
38.05
38.95
38.09
36.36
34.68
33.63
33.36
33.54
33.69
33.24
31.76
28.97
24.81
19.43
13.13
6.32
-0.56
-7.18
-13.4
-19.32
-25.22
-31.4
-38.0
-44.85
-51.39
-56.8
-60.2
-60.98
-59.0
-54.69
-48.96
-43.0
-37.98
-34.78
-33.81
-34.94
-37.5
-40.48
-42.75
-43.3
-41.41
-36.77
-29.51
-20.1
-9.23
2.42
14.28
26.03
37.56
48.83
59.76
69.99
78.93
85.84
90.03
91.13
89.13
84.35
77.29
68.45
58.28
47.11
35.29
23.25
11.63
1.23
-6.96
-12.07
-13.72
-12.27
-8.9
-5.41
-3.69
-5.07
-9.98
-17.79
-27.2
-36.65
-44.83
-51.08
-55.46
-58.79
-62.35
-67.48
-74.91
-84.35
-94.2
-101.93
-104.83
-100.89
-89.56
-71.93
-50.31
-27.42
-5.63
13.52
29.4
41.97
51.52
58.4
63.05
66.03
68.09
70.02
72.47
75.71
79.58
83.57
86.95
89.13
89.76
88.91
86.91
84.17
80.91
77.03
72.08
65.56
57.29
47.71
37.9
29.23
22.85
19.11
17.45
16.62
15.15
11.94
6.6
-0.45
-8.23
-15.45
-20.87
-23.59
-23.21
-19.91
-14.34
-7.48
-0.37
6.13
11.43
15.2
17.3
17.76
16.68
14.38
11.36
8.29
5.98
5.22
6.66
10.63
17.05
25.24
34.0
41.74
46.91
48.35
45.71
39.5
30.93
21.51
12.62
5.23
-0.3
-4.09
-6.73
-9.12
-12.21
-16.88
-23.65
-32.63
-43.38
-55.08
-66.72
-77.35
-86.28
-93.17
-98.09
-101.33
-103.31
-104.38
-104.7
-104.06
-101.97
-97.72
-90.68
-80.62
-68.04
-54.2
-40.93
-30.08
-22.98
-20.04
-20.58
-23.12
-25.83
-27.03
-25.57
-21.03
-13.67
-4.32
5.89
15.76
24.28
30.76
34.95
37.0
37.39
36.78
35.84
35.16
35.13
35.87
37.23
38.83
40.15
40.6
39.66
36.91
32.18
25.52
17.27
7.98
-1.63
-10.83
-18.94
-25.45
-30.02
-32.52
-33.04
-31.9
-29.56
-26.6
-23.54
-20.67
-18.08
-15.73
-13.57
-11.69
-10.38
-9.9
-10.39
-11.72
-13.49
-15.2
-16.39
-16.84
-16.49
-15.44
-13.75
-11.51
-8.78
-5.77
-2.88
-0.62
0.48
0.17
-1.45
-3.85
-6.28
-8.04
-8.67
-8.09
-6.51
-4.26
-1.66
1.06
3.67
5.87
7.29
7.57
6.47
4.05
0.61
-3.41
-7.56
-11.59
-15.41
-19.09
-22.68
-26.1
-29.09
-31.21
-31.95
-30.89
-27.84
-22.87
-16.35
-8.76
-0.64
7.6
15.59
23.04
29.68
35.26
39.67
43.0
45.52
47.54
49.27
50.66
51.51
51.68
51.35
51.16
52.05
54.91
60.19
67.56
75.99
83.98
89.97
92.69
91.28
85.41
75.19
61.19
44.48
26.46
8.7
-7.38
-20.92
-31.7
-40.26
-47.49
-54.35
-61.46
-68.87
-76.12
-82.43
-87.03
-89.42
-89.49
-87.49
-83.9
-79.19
-73.66
-67.38
-60.22
-52.08
-42.91
-32.93
-22.49
-12.01
-1.85
7.73
16.5
24.18
30.39
34.78
37.2
37.96
37.94
38.38
40.64
45.66
53.73
64.34
76.36
88.36
98.94
107.08
112.11
113.74
111.86
106.46
97.55
85.28
69.98
52.17
32.61
12.15
-8.29
-27.95
-46.3
-63.07
-78.23
-91.9
-104.08
-114.67
-123.3
-129.49
-132.78
-132.92
-129.95
-124.22
-116.35
-107.09
-97.2
-87.38
-78.1
-69.72
-62.36
-55.92
-50.07
-44.21
-37.57
-29.41
-19.38
-7.67
4.98
17.5
28.95
38.76
46.88
53.57
59.1
63.54
66.77
68.57
68.85
67.72
65.41
62.12
57.91
52.74
46.62
39.82
32.93
26.73
21.92
18.82
17.24
16.54
15.89
14.46
11.77
7.68
2.35
-3.79
-10.2
-16.27
-21.47
-25.4
-27.88
-28.85
-28.37
-26.45
-23.09
-18.31
-12.3
-5.48
1.58
8.28
14.2
19.15
23.16
26.37
28.83
30.54
31.45
31.58
31.13
30.5
30.17
30.56
31.83
33.87
36.24
38.45
39.96
40.37
39.45
37.16
33.69
29.48
25.15
21.43
18.85
17.58
17.24
17.08
16.11
13.55
9.03
2.72
-4.82
-12.86
-20.74
-28.09
-34.76
-40.79
-46.21
-50.95
-54.85
-57.68
-59.32
-59.83
-59.41
-58.38
-57.05
-55.58
-54.05
-52.45
-50.8
-49.21
-47.8
-46.69
-45.85
-45.1
-44.14
-42.7
-40.6
-37.79
-34.3
-30.07
-24.86
-18.32
-10.13
-0.26
10.81
22.13
32.51
40.9
46.7
49.85
50.76
50.01
48.15
45.53
42.33
38.62
34.38
29.54
23.98
17.58
10.25
2.09
-6.73
-15.89
-25.06
-33.87
-41.97
-48.99
-54.56
-58.35
-60.11
-59.79
-57.46
-53.34
-47.7
-40.82
-32.97
-24.43
-15.52
-6.56
2.09
10.06
17.04
22.82
27.33
30.65
32.97
34.52
35.5
36.02
36.19
36.12
36.13
36.76
38.66
42.37
48.11
55.48
63.62
71.28
77.27
80.6
80.68
77.29
70.48
60.57
48.18
34.29
20.16
7.11
-3.81
-12.18
-18.23
-22.74
-26.72
-30.92
-35.69
-40.83
-45.76
-49.73
-52.06
-52.32
-50.46
-46.89
-42.43
-38.17
-35.28
-34.63
-36.43
-40.05
-44.14
-46.96
-47.01
-43.51
-36.79
-28.19
-19.59
-12.85
-9.19
-8.93
-11.51
-15.85
-20.67
-24.82
-27.33
-27.49
-24.85
-19.32
-11.3
-1.68
8.24
17.03
23.59
27.39
28.66
28.26
27.3
26.73
26.98
27.85
28.65
28.53
26.83
23.29
18.04
11.43
3.82
-4.47
-13.16
-21.84
-29.93
-36.77
-41.69
-44.26
-44.33
-42.05
-37.74
-31.85
-24.87
-17.43
-10.2
-3.93
0.82
3.68
4.67
4.1
2.53
0.63
-0.99
-1.78
-1.38
0.45
3.81
8.71
15.07
22.71
31.24
40.11
48.58
55.84
61.15
64.06
64.54
62.92
59.77
55.55
50.48
44.49
37.42
29.21
20.09
10.54
1.06
-8.03
-16.67
-25.06
-33.34
-41.47
-49.14
-55.85
-61.16
-64.84
-66.93
-67.61
-67.02
-65.2
-61.94
-56.97
-50.11
-41.42
-31.37
-20.77
-10.67
-2.15
3.92
7.12
7.66
6.39
4.66
3.89
5.26
9.34
16.0
24.58
34.1
43.7
52.74
60.84
67.79
73.42
77.5
79.75
79.84
77.57
72.85
65.75
56.49
45.47
33.25
20.53
8.05
-3.49
-13.7
-22.46
-30.05
-36.99
-43.79
-50.79
-57.95
-64.82
-70.67
-74.75
-76.47
-75.59
-72.18
-66.49
-58.76
-48.98
-36.94
-22.34
-5.18
14.05
34.21
53.71
70.94
84.57
93.8
98.41
98.56
94.78
87.94
79.27
70.32
62.68
57.58
55.57
56.39
59.13
62.64
65.84
67.9
68.21
66.22
61.41
53.33
41.98
27.94
12.48
-2.75
-16.09
-26.44
-33.55
-38.1
-41.2
-44.02
-47.24
-50.93
-54.68
-58.06
-60.94
-63.7
-66.95
-71.25
-76.61
-82.5
-87.95
-92.05
-94.21
-94.28
-92.41
-88.76
-83.44
-76.61
-68.68
-60.38
-52.71
-46.54
-42.17
-39.2
-36.68
-33.58
-29.28
-23.8
-17.76
-11.99
-7.09
-3.18
0.18
3.79
8.55
15.04
23.27
32.61
41.95
50.03
55.87
58.97
59.51
58.14
55.88
53.85
53.11
54.38
57.83
62.9
68.31
72.39
73.49
70.56
63.36
52.45
38.97
24.13
9.04
-5.53
-19.05
-31.21
-41.77
-50.42
-56.77
-60.35
-60.8
-58.07
-52.69
-45.73
-38.52
-32.22
-27.34
-23.59
-20.12
-15.91
-10.28
-3.12
5.11
13.68
21.83
28.98
34.74
38.96
41.66
42.99
43.26
42.78
41.76
40.24
38.04
34.99
31.03
26.32
21.19
16.01
11.08
6.53
2.32
-1.69
-5.74
-10.12
-15.14
-20.95
-27.66
-35.28
-43.83
-53.36
-63.93
-75.52
-87.83
-100.23
-111.67
-120.8
-126.18
-126.51
-120.9
-109.11
-91.73
-70.19
-46.53
-22.94
-1.16
17.89
34.33
48.95
62.74
76.35
89.73
102.19
112.78
120.7
125.63
127.73
127.41
125.14
121.24
115.97
109.59
102.47
95.07
87.71
80.42
72.83
64.23
53.95
41.61
27.47
12.44
-2.17
-15.05
-25.28
-32.71
-37.97
-42.31
-47.2
-53.79
-62.48
-72.7
-83.0
-91.48
-96.43
-96.78
-92.32
-83.65
-71.79
-57.88
-42.88
-27.61
-12.75
0.98
12.94
22.65
29.89
34.75
37.58
38.86
39.08
38.59
37.67
36.54
35.44
34.68
34.51
35.13
36.51
38.37
40.2
41.36
41.27
39.56
36.24
31.69
26.55
21.56
17.25
13.84
11.26
9.24
7.56
6.06
4.67
3.23
1.41
-1.34
-5.53
-11.52
-19.3
-28.44
-38.26
-47.96
-56.79
-64.23
-70.01
-74.09
-76.57
-77.46
-76.74
-74.3
-70.09
-64.26
-57.13
-49.27
-41.3
-33.91
-27.71
-23.23
-20.83
-20.53
-21.98
-24.42
-26.85
-28.32
-28.1
-25.82
-21.48
-15.39
-8.1
-0.32
7.18
13.77
19.15
23.34
26.7
29.53
32.04
34.11
35.46
35.86
35.38
34.42
33.53
33.15
33.3
33.48
32.83
30.45
25.78
18.78
9.99
0.34
-9.18
-17.71
-24.62
-29.56
-32.32
-32.95
-31.69
-28.97
-25.34
-21.25
-16.97
-12.52
-7.89
-3.23
1.07
4.4
6.14
5.94
3.9
0.54
-3.35
-6.93
-9.61
-11.13
-11.51
-10.94
-9.55
-7.34
-4.27
-0.33
4.26
9.04
13.34
16.54
18.22
18.33
17.1
14.93
12.16
9.1
5.83
2.34
-1.47
-5.76
-10.72
-16.5
-23.17
-30.61
-38.47
-46.15
-52.87
-57.82
-60.3
-59.92
-56.62
-50.79
-43.14
-34.61
-26.19
-18.71
-12.76
-8.63
-6.28
-5.28
-4.82
-3.89
-1.41
3.31
10.35
19.0
27.99
35.87
41.55
44.59
45.2
43.95
41.52
38.45
35.12
31.83
28.87
26.46
24.7
23.61
23.13
23.21
23.78
24.72
25.71
26.26
25.92
24.44
21.92
18.75
15.41
12.19
9.1
5.99
2.76
-0.37
-2.9
-4.27
-4.18
-2.74
-0.48
2.0
4.25
6.19
8.07
10.34
13.41
17.61
23.02
29.42
36.22
42.53
47.19
49.23
47.99
43.37
35.69
25.49
13.43
0.28
-12.91
-24.73
-33.5
-37.66
-36.34
-29.63
-18.68
-5.4
8.03
19.64
27.96
32.2
32.17
28.17
20.89
11.24
0.25
-11.03
-21.68
-30.99
-38.59
-44.45
-48.81
-52.08
-54.71
-57.01
-59.12
-60.95
-62.25
-62.64
-61.67
-59.05
-54.64
-48.59
-41.25
-33.14
-24.73
-16.46
-8.55
-1.14
5.78
12.23
18.24
23.67
28.3
31.76
33.74
34.17
33.25
31.53
29.72
28.52
28.46
29.81
32.58
36.52
41.2
46.0
50.2
53.08
54.04
52.77
49.31
44.04
37.67
31.1
25.24
20.8
18.05
16.69
15.87
14.36
10.95
4.78
-4.29
-15.71
-28.36
-40.84
-51.77
-60.01
-64.8
-65.82
-63.17
-57.38
-49.29
-39.84
-29.87
-19.91
-10.2
-0.76
8.33
16.84
24.35
30.35
34.42
36.35
36.14
33.9
29.81
24.21
17.64
10.94
5.13
1.19
-0.19
1.09
4.66
9.72
15.32
20.53
24.42
26.25
25.43
21.84
15.88
8.43
0.64
-6.54
-12.62
-17.65
-22.02
-26.13
-30.21
-34.37
-38.69
-43.37
-48.67
-54.68
-61.13
-67.36
-72.45
-75.48
-75.78
-73.02
-67.19
-58.48
-47.14
-33.41
-17.55
0.08
18.84
37.77
55.61
71.02
82.78
90.13
92.88
91.34
86.25
78.52
69.15
59.15
49.46
40.96
34.27
29.69
27.2
26.49
27.1
28.46
29.96
30.93
30.76
29.09
25.97
21.98
18.09
15.3
14.22
14.72
15.94
16.56
15.3
11.3
4.36
-5.18
-16.61
-29.18
-42.21
-55.19
-67.63
-79.01
-88.71
-96.11
-100.68
-102.1
-100.27
-95.22
-87.03
-75.69
-61.22
-43.9
-24.48
-4.2
15.32
32.54
46.37
56.36
62.73
65.96
66.56
64.72
60.39
53.49
44.28
33.52
22.4
12.36
4.63
0.01
-1.24
0.64
5.14
11.53
19.03
26.72
33.61
38.81
41.66
41.89
39.65
35.34
29.43
22.28
14.04
4.73
-5.7
-17.24
-29.76
-42.91
-56.02
-68.06
-77.76
-83.8
-85.28
-82.03
-74.84
-65.25
-55.08
-45.88
-38.51
-33.03
-28.95
-25.62
-22.54
-19.52
-16.54
-13.61
-10.62
-7.35
-3.63
0.5
4.72
8.52
11.55
13.69
15.25
16.73
18.64
21.28
24.7
28.7
33.02
37.44
41.82
46.06
50.03
53.58
56.6
59.0
60.69
61.65
61.83
61.29
60.17
58.66
56.9
54.87
52.36
48.94
44.13
37.49
28.73
17.9
5.28
-8.56
-22.83
-36.64
-49.05
-59.19
-66.24
-69.54
-68.69
-63.73
-55.21
-44.23
-32.24
-20.74
-11.03
-4.09
-0.47
-0.3
-3.21
-8.27
-14.05
-18.88
-21.29
-20.54
-16.83
-11.19
-5.01
0.51
4.72
7.59
9.4
10.38
10.58
9.89
8.27
5.96
3.53
1.65
0.87
1.38
3.01
5.31
7.78
9.95
11.45
11.95
11.17
8.91
5.15
0.16
-5.53
-11.23
-16.24
-20.04
-22.43
-23.68
-24.45
-25.71
-28.44
-33.44
-41.1
-51.27
-63.22
-75.65
-86.91
-95.2
-98.92
-96.96
-89.02
-75.72
-58.53
-39.35
-20.12
-2.41
12.8
25.16
34.8
42.21
47.99
52.7
56.75
60.27
63.17
65.29
66.49
66.82
66.54
65.98
65.45
65.08
64.82
64.5
63.88
62.77
60.99
58.43
55.04
50.8
45.67
39.63
32.64
24.78
16.26
7.51
-0.89
-8.36
-14.45
-18.94
-21.93
-23.73
-24.84
-25.75
-26.89
-28.42
-30.24
-31.93
-32.98
-32.86
-31.39
-28.73
-25.42
-22.23
-19.81
-18.52
-18.22
-18.4
-18.28
-17.15
-14.57
-10.45
-5.04
1.27
8.07
15.1
22.26
29.53
36.74
43.57
49.42
53.63
55.69
55.41
53.1
49.42
45.11
40.8
36.77
33.05
29.55
26.19
22.85
19.31
15.18
9.92
3.14
-5.18
-14.54
-24.01
-32.56
-39.42
-44.34
-47.58
-49.71
-51.36
-52.95
-54.61
-56.15
-57.23
-57.43
-56.4
-53.95
-50.11
-45.13
-39.44
-33.6
-28.12
-23.44
-19.79
-17.17
-15.26
-13.57
-11.5
-8.54
-4.41
0.89
7.07
13.68
20.28
26.53
32.27
37.45
42.05
46.05
49.4
52.04
53.92
54.98
55.04
53.81
50.92
46.04
39.03
30.03
19.56
8.36
-2.7
-12.81
-21.33
-27.89
-32.38
-35.02
-36.32
-36.97
-37.74
-39.37
-42.36
-46.89
-52.73
-59.25
-65.49
-70.32
-72.66
-71.69
-67.06
-58.99
-48.25
-36.07
-23.81
-12.72
-3.64
3.16
7.96
11.46
14.49
17.81
21.82
26.56
31.8
37.17
42.27
46.71
50.02
51.69
51.23
48.42
43.48
37.19
30.74
25.43
22.41
22.38
25.43
31.17
38.71
46.79
53.95
58.7
59.81
56.53
48.84
37.37
23.41
8.55
-5.52
-17.45
-26.43
-32.46
-36.27
-39.08
-42.03
-45.76
-50.07
-54.02
-56.4
-56.37
-53.8
-49.36
-44.16
-39.24
-35.19
-32.1
-29.77
-27.97
-26.63
-25.81
-25.48
-25.46
-25.25
-24.25
-21.89
-17.89
-12.25
-5.27
2.6
10.84
18.94
26.46
32.94
38.01
41.38
42.86
42.49
40.48
37.15
32.93
28.15
23.1
17.95
12.85
7.94
3.36
-0.74
-4.25
-7.09
-9.22
-10.66
-11.45
-11.67
-11.49
-11.1
-10.68
-10.32
-9.99
-9.5
-8.59
-7.06
-4.88
-2.35
-0.03
1.4
1.39
-0.26
-3.2
-6.66
-9.67
-11.32
-10.99
-8.48
-4.01
1.85
8.28
14.41
19.43
22.77
24.25
24.08
22.72
20.75
18.63
16.68
15.04
13.82
13.15
13.1
13.65
14.55
15.4
15.75
15.28
13.89
11.64
8.68
5.13
1.09
-3.31
-7.81
-12.06
-15.72
-18.6
-20.82
-22.64
-24.33
-25.96
-27.25
-27.75
-26.98
-24.62
-20.59
-15.05
-8.34
-0.89
6.79
14.14
20.69
26.06
30.11
32.88
34.53
35.38
35.8
36.22
37.13
38.91
41.74
45.44
49.5
53.12
55.48
55.98
54.4
50.98
46.18
40.5
34.26
27.48
20.05
11.83
2.87
-6.61
-16.27
-25.86
-35.3
-44.66
-54.09
-63.63
-73.09
-82.19
-90.51
-97.68
-103.32
-106.98
-108.24
-106.67
-102.03
-94.33
-84.0
-71.73
-58.39
-44.78
-31.51
-19.03
-7.61
2.65
11.77
19.86
27.21
34.14
40.96
47.87
54.89
61.83
68.31
73.77
77.56
78.99
77.54
72.98
65.52
55.89
45.17
34.5
24.75
16.31
9.05
2.46
-4.08
-11.06
-18.75
-27.21
-36.35
-46.06
-56.13
-66.19
-75.69
-83.89
-90.08
-93.74
-94.73
-93.24
-89.62
-84.18
-76.99
-67.93
-56.92
-44.16
-30.37
-16.66
-4.3
5.64
12.58
16.48
17.79
17.33
16.15
15.37
16.06
18.95
24.26
31.58
40.03
48.43
55.7
61.1
64.31
65.3
64.21
61.21
56.47
50.21
42.84
34.96
27.37
20.93
16.37
14.1
14.0
15.42
17.17
17.87
16.33
11.95
4.98
-3.57
-12.22
-19.57
-24.64
-27.06
-26.91
-24.46
-19.98
-13.68
-5.9
2.81
11.59
19.44
25.37
28.62
28.72
25.57
19.39
10.7
0.28
-10.87
-21.59
-30.72
-37.25
-40.47
-40.14
-36.52
-30.39
-22.82
-15.03
-7.99
-2.27
2.06
5.36
8.2
11.15
14.65
18.85
23.63
28.57
33.02
36.29
37.84
37.39
35.11
31.51
27.29
23.08
19.25
15.85
12.76
9.9
7.34
5.36
4.29
4.38
5.63
7.77
10.32
12.71
14.36
14.71
13.31
9.93
4.59
-2.28
-9.92
-17.42
-23.92
-28.86
-32.09
-33.79
-34.24
-33.6
-31.81
-28.61
-23.78
-17.32
-9.54
-1.02
7.56
15.55
22.51
28.1
32.03
34.05
33.89
31.48
27.03
21.07
14.32
7.54
1.28
-4.27
-9.21
-13.89
-18.69
-23.83
-29.24
-34.6
-39.37
-43.09
-45.46
-46.47
-46.37
-45.47
-44.07
-42.29
-40.1
-37.3
-33.77
-29.46
-24.57
-19.54
-15.0
-11.55
-9.5
-8.72
-8.56
-8.06
-6.36
-2.98
2.03
8.21
15.08
22.37
30.22
38.98
49.0
60.28
72.34
84.24
94.73
102.51
106.46
105.92
100.9
92.11
80.81
68.56
56.61
45.67
35.71
26.15
16.31
5.79
-5.24
-16.15
-26.13
-34.51
-41.02
-45.83
-49.45
-52.48
-55.49
-58.77
-62.13
-64.77
-65.32
-62.06
-53.55
-39.23
-19.86
2.47
24.9
44.58
59.41
68.35
71.4
69.17
62.65
52.99
41.53
29.84
19.55
12.08
8.23
8.02
10.69
15.06
20.0
24.7
28.86
32.57
36.01
39.2
41.9
43.59
43.65
41.64
37.34
30.79
22.15
11.59
-0.75
-14.55
-29.22
-43.68
-56.57
-66.51
-72.51
-74.21
-72.04
-66.93
-60.07
-52.6
-45.35
-38.88
-33.47
-29.24
-26.21
-24.34
-23.58
-23.8
-24.9
-26.7
-28.94
-31.33
-33.57
-35.44
-36.85
-37.81
-38.27
-38.07
-36.82
-34.05
-29.44
-23.05
-15.44
-7.56
-0.45
5.02
8.41
9.59
8.63
5.66
0.9
-5.19
-11.87
-18.13
-22.94
-25.65
-26.19
-25.06
-23.15
-21.35
-20.31
-20.27
-21.17
-22.74
-24.68
-26.66
-28.29
-29.16
-28.83
-26.95
-23.44
-18.52
-12.78
-6.95
-1.72
2.51
5.64
7.8
9.09
9.5
8.85
7.03
4.17
0.72
-2.59
-4.97
-5.78
-4.6
-1.31
3.96
10.81
18.53
26.28
33.26
39.05
43.75
47.88
52.08
56.63
61.23
65.11
67.33
67.16
64.31
58.95
51.58
42.84
33.48
24.23
15.75
8.5
2.67
-1.94
-5.78
-9.35
-13.03
-16.84
-20.5
-23.55
-25.54
-26.24
-25.67
-24.04
-21.62
-18.6
-14.99
-10.7
-5.56
0.44
7.15
14.24
21.22
27.61
32.97
37.06
39.86
41.59
42.67
43.48
44.32
45.29
46.22
46.84
46.96
46.58
45.9
45.19
44.55
43.81
42.51
40.11
36.21
30.72
23.88
16.11
7.84
-0.71
-9.53
-18.83
-28.92
-40.16
-52.77
-66.7
-81.47
-96.07
-109.19
-119.47
-125.93
-128.39
-127.44
-124.26
-120.1
-115.89
-111.94
-108.02
-103.63
-98.22
-91.44
-83.14
-73.28
-61.87
-48.96
-34.79
-19.8
-4.74
9.55
22.3
33.0
41.58
48.24
53.36
57.3
60.2
61.95
62.21
60.6
56.92
51.27
44.19
36.49
29.07
22.61
17.46
13.53
10.49
7.78
4.83
1.04
-4.08
-10.73
-18.68
-27.18
-35.16
-41.45
-45.31
-46.58
-45.7
-43.4
-40.35
-36.86
-32.86
-28.13
-22.53
-16.23
-9.66
-3.4
2.09
6.61
10.34
13.69
17.22
21.35
26.25
31.82
37.67
43.32
48.3
52.23
54.93
56.35
56.63
56.03
54.9
53.6
52.42
51.48
50.69
49.81
48.5
46.41
43.33
39.12
33.79
27.5
20.48
13.06
5.63
-1.38
-7.52
-12.35
-15.49
-16.73
-16.06
-13.73
-10.23
-6.03
-1.46
3.37
8.55
14.1
19.87
25.44
30.24
33.76
35.79
36.44
36.14
35.42
34.75
34.41
34.49
34.91
35.43
35.87
36.14
36.37
36.81
37.72
39.18
40.92
42.44
43.18
42.77
41.18
38.65
35.46
31.7
27.16
21.41
14.14
5.4
-4.25
-13.88
-22.49
-29.3
-34.1
-37.18
-39.19
-40.86
-42.6
-44.49
-46.2
-47.24
-47.13
-45.6
-42.55
-38.17
-32.92
-27.65
-23.5
-21.79
-23.54
-29.1
-37.76
-47.93
-57.52
-64.72
-68.49
-68.81
-66.46
-62.49
-57.77
-52.72
-47.36
-41.55
-35.3
-28.87
-22.87
-18.04
-15.16
-14.86
-17.46
-22.88
-30.58
-39.65
-48.96
-57.46
-64.38
-69.36
-72.42
-73.8
-73.74
-72.34
-69.48
-65.0
-58.83
-51.08
-42.13
-32.54
-23.13
-15.02
-9.46
-7.6
-9.88
-15.7
-23.22
-29.87
-33.09
-31.18
-23.78
-11.85
2.83
18.35
33.07
45.9
56.25
63.91
69.13
72.46
74.71
76.71
79.05
81.94
85.16
88.21
90.38
90.93
89.27
85.05
78.31
69.54
59.56
49.34
39.79
31.49
24.71
19.46
15.53
12.63
10.37
8.25
5.73
2.44
-1.64
-5.99
-9.67
-11.64
-11.18
-8.22
-3.44
2.07
7.2
11.3
14.36
16.85
19.29
21.92
24.54
26.56
27.5
27.34
26.72
26.79
28.87
33.86
41.87
52.0
62.65
72.07
78.96
82.82
83.92
82.86
80.02
75.32
68.26
58.39
45.68
30.69
14.46
-1.93
-17.58
-31.84
-44.13
-53.77
-59.96
-61.93
-59.36
-52.49
-42.1
-29.51
-16.28
-4.09
5.4
10.77
11.12
6.47
-2.18
-12.9
-23.41
-31.64
-36.11
-36.14
-31.47
-22.19
-8.58
8.59
27.94
47.45
64.93
78.56
87.39
91.28
90.63
85.87
77.3
65.17
50.11
33.22
16.03
0.04
-13.8
-25.3
-34.87
-43.15
-50.6
-57.07
-61.96
-64.31
-63.27
-58.41
-50.03
-39.1
-27.03
-15.38
-5.41
2.08
6.78
8.76
8.14
4.92
-1.02
-9.7
-20.78
-33.28
-45.74
-56.56
-64.56
-69.29
-71.11
-70.74
-68.73
-65.07
-59.31
-50.95
-40.0
-27.3
-14.29
-2.57
6.71
13.11
16.97
19.1
20.26
20.82
20.49
18.4
13.48
5.0
-6.93
-21.03
-35.1
-46.57
-53.32
-54.43
-50.35
-42.58
-33.0
-23.26
-14.36
-6.68
-0.29
4.76
8.26
9.95
9.79
8.04
5.26
2.05
-1.25
-4.7
-8.7
-13.69
-19.88
-26.85
-33.63
-38.82
-40.96
-38.91
-32.18
-21.04
-6.48
10.0
26.74
42.27
55.58
66.12
73.83
78.85
81.43
81.86
80.45
77.59
73.76
69.4
64.75
59.9
54.84
49.61
44.48
39.88
36.09
33.03
30.06
26.14
20.21
11.79
1.27
-10.11
-20.67
-28.95
-34.27
-36.94
-38.02
-38.77
-40.1
-42.23
-44.78
-47.11
-48.75
-49.61
-49.93
-50.04
-50.2
-50.5
-50.94
-51.55
-52.48
-53.94
-55.93
-58.1
-59.68
-59.83
-58.04
-54.48
-50.02
-45.93
-43.29
-42.53
-43.19
-44.27
-44.59
-43.34
-40.27
-35.63
-30.03
-24.09
-18.35
-13.15
-8.66
-4.89
-1.75
0.95
3.46
6.07
9.1
12.85
17.38
22.52
27.79
32.54
36.22
38.5
39.55
39.72
39.44
38.85
37.69
35.38
31.35
25.3
17.39
8.19
-1.59
-11.38
-20.92
-30.22
-39.37
-48.21
-56.31
-63.04
-67.78
-70.15
-70.05
-67.57
-62.84
-56.08
-47.69
-38.37
-29.15
-21.06
-14.83
-10.62
-7.91
-5.83
-3.46
-0.16
4.31
9.88
16.27
23.13
30.06
36.62
42.41
47.17
50.87
53.75
56.29
59.12
62.8
67.71
73.81
80.57
86.97
91.72
93.62
91.86
86.31
77.4
66.03
53.11
39.44
25.59
12.08
-0.53
-11.56
-20.31
-26.25
-29.21
-29.47
-27.71
-24.82
-21.7
-19.04
-17.12
-15.83
-14.73
-13.2
-10.76
-7.19
-2.74
2.03
6.3
9.29
10.51
9.89
7.76
4.84
1.97
0.04
-0.26
1.5
5.4
11.18
18.26
25.85
33.03
38.88
42.63
43.71
41.93
37.5
31.04
23.44
15.72
8.81
3.37
-0.4
-2.7
-4.1
-5.38
-7.31
-10.5
-15.28
-21.57
-28.9
-36.51
-43.54
-49.33
-53.63
-56.78
-59.59
-63.16
-68.23
-74.7
-81.2
-85.38
-84.71
-77.56
-64.11
-46.52
-28.26
-12.83
-2.61
1.82
1.5
-1.64
-5.71
-9.31
-11.68
-12.35
-10.95
-7.23
-1.25
6.42
14.71
22.37
28.44
32.59
35.24
37.27
39.54
42.47
45.97
49.45
52.28
53.93
54.22
53.31
51.5
49.15
46.47
43.55
40.29
36.56
32.27
27.42
22.16
16.72
11.38
6.42
2.07
-1.45
-3.92
-5.21
-5.32
-4.4
-2.81
-1.04
0.32
0.74
-0.21
-2.67
-6.44
-11.05
-15.82
-20.12
-23.5
-25.87
-27.33
-28.1
-28.3
-27.93
-26.87
-25.01
-22.34
-19.04
-15.34
-11.62
-8.24
-5.52
-3.76
-3.02
-3.09
-3.49
-3.54
-2.59
-0.32
3.15
7.23
11.13
14.13
15.82
16.16
15.33
13.62
11.17
8.08
4.46
0.54
-3.29
-6.62
-9.15
-10.77
-11.52
-11.53
-10.74
-8.93
-5.82
-1.21
4.68
11.26
17.53
22.4
24.98
24.81
22.05
17.33
11.65
6.1
1.61
-1.2
-2.1
-1.32
0.53
2.51
3.66
3.33
1.42
-1.46
-4.23
-5.68
-4.96
-1.96
2.6
7.44
11.18
12.84
12.0
8.96
4.4
-0.87
-6.18
-11.18
-15.84
-20.32
-24.85
-29.61
-34.66
-40.13
-46.2
-53.09
-60.93
-69.47
-77.95
-85.04
-89.02
-88.25
-81.71
-69.47
-52.76
-33.71
-14.71
2.36
16.47
27.62
36.39
43.46
49.19
53.48
55.92
56.2
54.34
50.85
46.56
42.46
39.45
38.14
38.75
41.07
44.6
48.75
52.94
56.78
59.97
62.2
63.06
62.02
58.66
52.93
45.36
37.03
29.43
23.96
21.45
21.83
24.09
26.53
27.43
25.53
20.4
12.39
2.36
-8.78
-20.27
-31.57
-42.34
-52.4
-61.76
-70.55
-78.76
-85.93
-91.0
-92.52
-89.17
-80.48
-67.08
-50.52
-32.62
-14.89
1.75
16.86
30.04
40.61
47.72
50.64
49.18
43.9
36.05
27.25
19.11
12.93
9.49
8.99
11.21
15.68
21.83
29.13
37.02
44.82
51.63
56.39
58.22
56.69
51.98
44.89
36.49
27.76
19.2
10.88
2.56
-5.87
-14.19
-21.71
-27.56
-30.99
-31.63
-29.71
-25.87
-21.0
-15.94
-11.26
-7.23
-3.84
-0.9
1.8
4.42
6.99
9.43
11.6
13.3
14.32
14.41
13.34
10.94
7.21
2.39
-3.15
-8.93
-14.52
-19.57
-23.83
-27.08
-29.09
-29.68
-28.73
-26.32
-22.78
-18.61
-14.45
-10.89
-8.36
-7.1
-7.06
-7.98
-9.5
-11.18
-12.66
-13.67
-14.12
-14.12
-13.97
-14.14
-15.11
-17.27
-20.78
-25.48
-30.9
-36.31
-40.79
-43.28
-42.74
-38.29
-29.5
-16.58
-0.51
17.16
34.67
50.49
63.65
73.77
80.87
85.12
86.59
85.31
81.33
74.89
66.43
56.49
45.57
34.12
22.56
11.4
1.31
-6.99
-12.82
-15.77
-15.69
-12.83
-7.66
-0.82
6.97
15.1
23.09
30.54
36.99
41.82
44.22
43.45
39.17
31.81
22.48
12.68
3.69
-3.88
-10.12
-15.65
-21.07
-26.78
-32.88
-39.35
-46.24
-53.65
-61.6
-69.78
-77.59
-84.26
-89.14
-91.95
-92.82
-92.18
-90.51
-88.07
-84.79
-80.29
-74.06
-65.76
-55.51
-43.95
-32.14
-21.35
-12.59
-6.37
-2.58
-0.58
0.49
1.34
2.34
3.39
4.24
4.77
5.25
6.42
9.19
14.28
21.77
31.1
41.21
50.95
59.39
65.96
70.44
72.75
72.89
70.93
67.0
61.33
54.24
46.01
36.89
27.17
17.27
7.73
-0.8
-7.75
-12.88
-16.22
-18.16
-19.3
-20.23
-21.48
-23.28
-25.61
-28.15
-30.47
-32.19
-33.25
-33.98
-34.98
-36.79
-39.5
-42.58
-44.98
-45.63
-44.0
-40.36
-35.69
-31.09
-27.3
-24.27
-21.37
-17.82
-13.29
-8.12
-3.19
0.57
2.7
3.49
3.83
4.78
7.07
10.79
15.39
20.02
23.91
26.68
28.43
29.53
30.28
30.76
30.84
30.28
29.01
27.1
24.66
21.64
17.77
12.69
6.21
-1.42
-9.54
-17.26
-23.83
-28.73
-31.83
-33.11
-32.64
-30.51
-26.94
-22.36
-17.37
-12.59
-8.48
-5.2
-2.64
-0.52
1.42
3.41
5.58
8.06
10.95
14.43
18.63
23.63
29.44
35.92
42.84
49.97
57.09
63.93
70.11
75.1
78.27
79.01
77.05
72.61
66.44
59.58
52.94
47.07
41.88
36.93
31.59
25.44
18.29
10.16
1.13
-8.73
-19.35
-30.52
-41.96
-53.51
-65.27
-77.7
-91.33
-106.21
-121.64
-136.06
-147.53
-154.27
-155.09
-149.54
-137.74
-120.23
-97.83
-71.75
-43.55
-15.14
11.51
34.69
53.22
66.61
74.99
79.0
79.57
77.72
74.29
69.82
64.58
58.71
52.5
46.48
41.31
37.45
34.91
33.14
31.19
28.16
23.57
17.64
11.18
5.25
0.67
-2.31
-4.22
-6.15
-9.39
-14.95
-23.19
-33.73
-45.61
-57.53
-68.15
-76.33
-81.23
-82.44
-80.03
-74.59
-67.14
-58.9
-51.02
-44.23
-38.74
-34.31
-30.35
-26.22
-21.31
-15.22
-7.75
0.93
10.29
19.56
28.0
35.2
41.21
46.44
51.22
55.49
58.64
59.82
58.44
54.61
49.19
43.5
38.71
35.38
33.41
32.19
31.12
29.88
28.46
26.97
25.44
23.68
21.46
18.74
15.72
12.85
10.5
8.77
7.34
5.56
2.79
-1.36
-6.95
-13.62
-20.84
-27.97
-34.39
-39.5
-42.81
-44.05
-43.34
-41.25
-38.59
-36.11
-34.12
-32.28
-29.86
-26.1
-20.76
-14.26
-7.52
-1.45
3.43
7.24
10.47
13.69
17.21
21.01
24.92
28.87
33.01
37.64
43.02
49.01
55.05
60.12
63.06
62.96
59.44
52.95
44.61
35.94
28.37
22.77
19.22
17.0
14.93
11.84
6.9
-0.09
-8.77
-18.34
-27.76
-35.97
-42.04
-45.29
-45.3
-41.96
-35.47
-26.26
-15.01
-2.49
10.49
23.19
35.0
45.49
54.37
61.4
66.45
69.4
70.35
69.64
67.95
66.25
65.55
66.57
69.51
74.0
79.37
85.13
91.31
98.27
106.33
115.05
123.01
128.1
128.35
122.74
111.7
96.82
80.13
63.23
46.85
30.92
14.87
-2.0
-20.36
-40.74
-63.37
-87.77
-112.42
-134.74
-151.75
-161.01
-161.58
-154.5
-142.39
-128.48
-115.44
-104.73
-96.39
-89.59
-83.25
-76.61
-69.4
-61.76
-53.99
-46.42
-39.34
-33.12
-28.14
-24.76
-23.17
-23.19
-24.28
-25.65
-26.55
-26.55
-25.65
-24.2
-22.62
-21.15
-19.65
-17.77
-15.11
-11.58
-7.45
-3.27
0.44
3.45
5.9
8.2
10.74
13.65
16.79
19.75
22.01
23.06
22.47
19.99
15.74
10.3
4.64
-0.01
-2.62
-2.63
-0.08
4.44
10.04
15.62
19.98
21.76
19.58
12.35
-0.43
-18.28
-39.76
-62.7
-84.61
-103.1
-116.32
-123.21
-123.67
-118.57
-109.58
-98.69
-87.81
-78.14
-70.05
-63.07
-56.3
-48.86
-40.3
-30.7
-20.58
-10.66
-1.6
6.2
12.72
18.29
23.63
29.51
36.54
44.82
53.82
62.31
68.72
71.55
69.93
64.06
55.21
45.47
37.1
31.8
30.2
31.77
35.13
38.7
41.3
42.45
42.24
40.91
38.45
34.58
28.91
21.4
12.51
3.14
-5.71
-13.37
-19.64
-24.81
-29.39
-33.85
-38.37
-42.89
-47.07
-50.47
-52.6
-53.01
-51.44
-48.0
-43.26
-38.23
-34.07
-31.68
-31.34
-32.61
-34.49
-35.91
-36.19
-35.26
-33.58
-31.77
-30.11
-28.25
-25.25
-20.01
-11.8
-0.76
11.97
24.41
34.29
39.79
40.14
36.07
29.7
24.1
22.42
26.95
38.46
55.9
76.72
97.56
115.11
126.9
131.66
129.38
121.1
108.48
93.54
78.3
64.63
54.09
47.71
45.86
48.09
53.12
59.14
64.13
66.49
65.33
60.59
52.79
42.65
30.74
17.4
2.91
-12.39
-27.96
-43.11
-57.16
-69.49
-79.69
-87.49
-92.73
-95.38
-95.41
-92.81
-87.64
-80.13
-70.87
-60.81
-51.23
-43.42
-38.25
-35.87
-35.69
-36.65
-37.78
-38.5
-38.81
-38.98
-39.3
-39.72
-39.78
-38.85
-36.34
-32.02
-26.12
-19.13
-11.56
-3.64
4.89
14.69
26.46
40.65
57.02
74.61
91.94
107.46
120.02
129.21
135.35
139.23
141.57
142.74
142.46
139.94
134.18
124.2
109.45
89.99
66.66
41.16
15.9
-6.46
-23.7
-34.71
-39.93
-41.11
-40.66
-40.67
-42.27
-45.45
-49.48
-53.38
-56.45
-58.32
-58.84
-57.87
-55.31
-51.27
-46.22
-40.98
-36.48
-33.3
-31.45
-30.39
-29.19
-27.03
-23.42
-18.39
-12.34
-5.87
0.54
6.59
12.15
17.17
21.54
25.06
27.53
28.78
28.69
27.29
24.66
20.94
16.36
11.23
5.91
0.7
-4.3
-9.24
-14.44
-20.29
-26.86
-33.93
-40.94
-47.18
-52.13
-55.54
-57.47
-58.2
-58.07
-57.38
-56.3
-54.98
-53.43
-51.54
-49.05
-45.56
-40.77
-34.67
-27.55
-20.08
-12.94
-6.6
-1.15
3.62
8.1
12.54
16.94
21.08
24.69
27.57
29.73
31.31
32.47
33.21
33.41
32.87
31.42
29.06
25.89
22.06
17.72
12.87
7.46
1.39
-5.46
-13.11
-21.59
-30.77
-40.33
-49.65
-57.81
-63.8
-66.76
-66.33
-62.78
-56.94
-49.86
-42.44
-35.08
-27.46
-18.69
-7.55
6.92
25.04
46.15
68.67
90.35
108.85
122.3
129.66
130.88
126.76
118.65
108.05
96.32
84.47
73.09
62.45
52.61
43.62
35.52
28.4
22.26
17.02
12.43
8.18
3.88
-0.79
-6.0
-11.75
-17.76
-23.59
-28.77
-33.01
-36.29
-38.84
-40.99
-42.9
-44.5
-45.47
-45.56
-44.68
-43.07
-41.12
-39.2
-37.43
-35.73
-33.91
-31.87
-29.71
-27.72
-26.19
-25.25
-24.75
-24.34
-23.57
-22.1
-19.8
-16.79
-13.36
-9.81
-6.42
-3.34
-0.65
1.64
3.49
4.83
5.5
5.31
4.1
1.89
-1.01
-4.01
-6.17
-6.47
-4.1
1.22
9.02
18.17
27.14
34.43
38.98
40.37
38.82
34.95
29.66
23.94
18.72
14.7
12.22
11.08
10.67
10.23
9.14
7.08
4.04
0.07
-4.87
-10.82
-17.64
-24.79
-31.41
-36.59
-39.88
-41.4
-41.79
-41.82
-41.99
-42.34
-42.56
-42.15
-40.6
-37.44
-32.3
-25.0
-15.66
-4.91
6.21
16.51
25.01
31.26
35.42
38.0
39.61
40.76
41.81
43.08
44.98
48.03
52.61
58.83
66.3
74.11
81.04
85.78
87.31
85.08
79.11
69.97
58.65
46.36
34.34
23.65
14.97
8.5
3.93
0.56
-2.54
-6.29
-11.37
-18.09
-26.39
-35.8
-45.59
-54.87
-62.9
-69.2
-73.72
-76.8
-78.97
-80.63
-81.85
-82.28
-81.35
-78.61
-74.01
-68.04
-61.6
-55.73
-51.25
-48.53
-47.4
-47.32
-47.53
-47.28
-45.98
-43.26
-39.0
-33.25
-26.12
-17.75
-8.28
2.15
13.31
24.85
36.26
46.92
56.24
63.75
69.26
72.84
74.64
74.84
73.35
69.91
64.22
56.22
46.29
35.25
24.17
13.94
5.06
-2.51
-9.13
-15.23
-21.07
-26.62
-31.68
-35.98
-39.32
-41.65
-42.94
-43.24
-42.51
-40.65
-37.58
-33.26
-27.85
-21.75
-15.57
-9.94
-5.24
-1.49
1.74
4.97
8.56
12.43
16.06
18.82
20.29
20.6
20.36
20.52
21.94
25.17
30.24
36.74
43.88
50.71
56.32
60.13
61.99
62.28
61.7
60.96
60.37
59.74
58.41
55.54
50.5
43.12
33.83
23.46
13.02
3.37
-5.06
-12.28
-18.73
-25.05
-31.77
-39.13
-46.9
-54.48
-61.06
-65.94
-68.65
-69.05
-67.25
-63.45
-57.81
-50.47
-41.68
-31.96
-22.2
-13.46
-6.72
-2.39
-0.23
0.58
0.99
1.57
2.3
2.72
2.33
0.95
-1.16
-3.52
-5.76
-7.95
-10.46
-13.7
-17.74
-22.14
-26.01
-28.31
-28.31
-25.74
-20.83
-14.17
-6.55
1.21
8.3
14.03
17.93
19.86
19.98
18.77
16.72
14.2
11.2
7.34
2.03
-5.25
-14.69
-26.03
-38.56
-51.38
-63.57
-74.46
-83.65
-90.99
-96.38
-99.68
-100.58
-98.71
-93.84
-86.1
-76.08
-64.8
-53.3
-42.4
-32.34
-22.83
-13.34
-3.44
6.87
17.17
26.81
35.34
42.71
49.27
55.53
61.82
68.06
73.78
78.36
81.32
82.47
82.0
80.37
78.24
76.23
74.81
74.1
73.8
73.25
71.56
67.93
61.91
53.43
42.86
30.81
18.01
5.29
-6.49
-16.41
-23.78
-28.36
-30.63
-31.78
-33.34
-36.63
-42.22
-49.75
-58.03
-65.52
-70.7
-72.44
-70.03
-63.28
-52.47
-38.41
-22.39
-6.06
8.96
21.44
30.86
37.42
41.83
44.97
47.62
50.27
53.21
56.48
59.81
62.51
63.32
60.9
54.46
44.5
33.06
23.08
17.19
16.49
19.99
25.27
29.8
32.28
33.02
33.29
34.21
35.78
36.9
36.15
32.64
26.61
19.14
11.48
4.36
-2.15
-8.52
-15.25
-22.44
-29.84
-36.89
-43.08
-48.22
-52.39
-55.88
-58.84
-61.06
-61.94
-60.74
-56.88
-50.31
-41.57
-31.74
-22.07
-13.75
-7.59
-3.88
-2.39
-2.43
-3.06
-3.32
-2.38
0.23
4.68
10.8
18.3
26.76
35.83
45.09
53.99
61.83
67.69
70.49
69.34
63.87
54.49
42.5
29.83
18.47
9.81
4.19
0.73
-2.33
-6.95
-14.61
-25.78
-40.01
-56.3
-73.77
-92.0
-110.94
-130.45
-149.74
-167.14
-180.4
-187.11
-185.3
-173.72
-152.0
-120.76
-81.78
-38.12
6.07
46.2
78.24
99.52
109.3
108.48
99.19
84.16
66.4
48.95
34.75
26.15
24.38
29.1
38.29
48.6
56.14
57.54
51.02
37.5
21.12
8.93
9.01
27.52
65.55
117.43
171.66
214.46
234.61
227.22
194.77
145.19
88.32
32.71
-15.94
-54.56
-81.77
-97.3
-102.04
-98.47
-90.52
-82.63
-78.35
-79.28
-84.77
-92.53
-99.77
-104.18
-104.61
-101.02
-94.32
-85.79
-76.7
-67.87
-59.54
-51.53
-43.5
-35.28
-27.09
-19.42
-13.0
-8.48
-6.22
-6.04
-7.14
-8.14
-7.37
-3.46
4.16
15.01
27.71
40.49
51.74
60.37
65.95
68.57
68.63
66.84
64.09
61.31
59.16
57.74
56.44
54.19
49.92
43.28
34.79
25.79
17.84
12.14
9.11
8.33
8.79
9.34
9.07
7.61
5.14
2.22
-0.41
-2.27
-3.24
-3.65
-3.97
-4.49
-4.96
-4.51
-1.99
3.59
12.45
23.76
35.88
46.65
54.02
56.38
52.88
43.61
29.68
13.11
-3.55
-17.75
-27.63
-32.42
-32.52
-29.17
-23.81
-17.59
-11.33
-5.6
-1.13
1.11
0.11
-4.89
-13.9
-26.09
-39.84
-53.18
-64.21
-71.61
-74.93
-74.56
-71.43
-66.65
-60.95
-54.61
-47.48
-39.41
-30.53
-21.42
-12.92
-5.74
-0.15
4.11
7.54
10.6
13.45
15.92
17.75
18.79
19.18
19.2
19.12
18.94
18.47
17.44
15.74
13.61
11.62
10.49
10.72
12.34
14.77
17.11
18.53
18.73
18.06
17.3
17.26
18.15
19.43
20.02
18.92
15.74
11.02
5.86
1.4
-1.81
-4.01
-5.91
-8.24
-11.3
-14.84
-18.24
-20.99
-22.84
-23.89
-24.41
-24.59
-24.45
-23.82
-22.52
-20.36
-17.25
-13.08
-7.61
-0.36
9.29
21.92
37.66
56.06
75.98
95.92
114.53
130.96
145.05
157.01
166.88
174.1
177.44
175.42
167.03
152.22
132.02
108.15
82.28
55.54
28.45
1.31
-25.26
-50.09
-71.67
-88.84
-101.31
-109.84
-115.84
-120.77
-125.48
-130.09
-134.16
-137.11
-138.54
-138.22
-135.86
-130.82
-122.32
-109.85
-93.57
-74.57
-54.47
-34.77
-16.33
0.78
16.85
31.9
45.34
56.15
63.39
66.85
67.04
64.92
61.19
56.17
49.74
41.97
33.46
25.29
18.71
14.55
12.87
12.92
13.39
12.84
10.1
4.48
-4.14
-15.26
-27.92
-40.91
-52.96
-62.92
-69.94
-73.6
-74.08
-72.07
-68.63
-64.78
-61.2
-58.08
-55.24
-52.42
-49.52
-46.7
-44.15
-41.72
-38.9
-34.86
-28.83
-20.43
-9.9
2.04
14.38
26.03
36.05
43.67
48.44
50.36
49.8
47.49
44.21
40.54
36.8
33.08
29.45
26.16
23.59
22.17
22.13
23.45
25.82
28.75
31.71
34.2
35.7
35.8
34.18
30.77
25.78
19.7
13.12
6.53
0.15
-6.12
-12.49
-19.06
-25.43
-30.72
-33.71
-33.34
-29.18
-21.74
-12.27
-2.36
6.6
13.87
19.3
23.13
25.56
26.61
26.11
23.91
20.11
15.07
9.29
3.2
-2.96
-9.16
-15.48
-21.9
-28.15
-33.75
-38.02
-40.33
-40.34
-38.13
-34.25
-29.48
-24.67
-20.41
-17.05
-14.77
-13.8
-14.42
-16.92
-21.35
-27.39
-34.29
-41.14
-47.19
-52.07
-55.86
-58.94
-61.73
-64.54
-67.4
-70.1
-72.18
-73.11
-72.37
-69.73
-65.2
-59.04
-51.53
-42.85
-33.03
-22.19
-10.58
1.3
12.91
23.86
34.05
43.55
52.38
60.28
66.65
70.77
72.14
70.75
67.13
62.26
57.3
53.38
51.46
52.23
55.95
62.31
70.39
78.73
85.68
89.86
90.53
87.79
82.47
75.77
68.94
63.02
58.63
56.01
54.94
54.71
54.27
52.4
48.24
41.62
33.19
24.14
15.68
8.44
2.31
-3.38
-9.26
-15.44
-21.26
-25.63
-27.51
-26.58
-23.4
-19.31
-15.78
-13.91
-13.92
-15.28
-17.04
-18.2
-18.09
-16.45
-13.34
-9.12
-4.42
-0.14
2.9
4.34
4.74
5.42
7.84
12.66
19.01
24.61
26.66
22.99
13.01
-2.11
-19.98
-37.68
-52.51
-62.38
-66.07
-63.49
-55.73
-45.0
-34.06
-25.5
-20.93
-20.77
-24.34
-30.36
-37.3
-43.77
-48.55
-50.8
-50.13
-46.75
-41.42
-35.17
-28.99
-23.45
-18.7
-14.42
-10.18
-5.57
-0.33
5.53
11.75
17.81
23.02
26.72
28.52
28.52
27.3
25.67
24.4
23.87
24.08
24.72
25.55
26.45
27.45
28.57
29.71
30.74
31.61
32.45
33.56
35.11
36.93
38.5
39.06
37.95
34.84
29.81
23.19
15.4
6.89
-1.86
-10.21
-17.33
-22.24
-24.03
-22.01
-15.94
-6.16
6.31
19.71
31.67
39.55
40.93
34.29
19.51
-1.96
-27.37
-53.31
-76.62
-95.09
-107.86
-115.13
-117.72
-116.32
-111.29
-102.68
-90.74
-76.27
-60.77
-46.14
-34.11
-25.81
-21.62
-21.33
-24.47
-30.51
-38.87
-48.78
-59.17
-68.81
-76.5
-81.4
-83.09
-81.57
-77.12
-70.24
-61.62
-52.16
-42.84
-34.49
-27.49
-21.58
-15.98
-9.66
-1.84
7.64
18.29
29.08
38.91
46.93
52.75
56.53
58.67
59.66
59.82
59.27
58.05
56.22
53.98
51.63
49.54
47.97
47.12
47.17
48.28
50.58
54.05
58.35
62.8
66.59
68.88
69.13
67.22
63.45
58.5
53.23
48.47
44.75
42.13
40.12
37.86
34.43
29.29
22.51
14.77
7.06
0.42
-4.37
-6.83
-6.83
-4.45
-0.08
5.54
11.36
16.11
18.65
18.35
15.35
10.54
5.32
1.11
-1.06
-0.8
1.64
5.58
10.24
14.97
19.33
23.0
25.76
27.37
27.69
26.78
24.93
22.62
20.44
18.87
18.1
18.02
18.21
18.1
17.07
14.65
10.57
4.86
-2.24
-10.4
-19.32
-28.83
-38.83
-49.22
-59.64
-69.54
-78.19
-84.92
-89.37
-91.66
-92.33
-92.03
-91.25
-90.08
-88.17
-84.98
-80.07
-73.4
-65.27
-56.24
-46.85
-37.5
-28.59
-20.67
-14.56
-11.16
-11.07
-14.21
-19.62
-25.67
-30.53
-32.65
-31.12
-25.74
-16.85
-5.24
8.1
22.03
35.44
47.36
57.08
64.25
68.76
70.7
70.35
68.05
64.28
59.53
54.29
48.96
43.71
38.64
33.77
29.09
24.55
19.93
14.77
8.51
0.68
-8.82
-19.54
-30.53
-40.67
-48.92
-54.68
-57.9
-58.99
-58.7
-57.87
-57.05
-56.28
-54.89
-51.68
-45.23
-34.49
-19.21
-0.08
21.38
43.19
63.23
79.65
91.07
96.75
96.75
91.98
83.99
74.56
65.3
57.32
51.2
47.16
45.2
45.11
46.36
48.02
48.87
47.9
44.8
40.13
35.17
31.3
29.27
28.91
29.14
28.49
25.84
20.85
14.09
6.72
-0.05
-5.38
-9.14
-11.82
-14.28
-17.31
-21.33
-26.34
-32.02
-38.06
-44.28
-50.71
-57.36
-64.07
-70.4
-75.69
-79.24
-80.39
-78.53
-73.08
-63.65
-50.28
-33.79
-15.83
1.38
15.67
25.55
30.6
31.37
29.01
24.82
19.88
14.97
10.66
7.42
5.57
5.28
6.4
8.54
11.1
13.49
15.28
16.3
16.79
17.26
18.39
20.69
24.11
27.96
30.93
31.62
29.07
23.21
14.88
5.47
-3.59
-11.33
-17.45
-22.16
-25.89
-29.07
-31.9
-34.39
-36.45
-37.95
-38.76
-38.71
-37.61
-35.24
-31.41
-25.97
-18.9
-10.31
-0.53
9.93
20.43
30.32
39.1
46.45
52.27
56.63
59.64
61.4
61.93
61.2
59.23
56.17
52.31
48.04
43.76
39.82
36.51
34.03
32.64
32.46
33.55
35.73
38.64
41.76
44.63
46.95
48.66
49.91
50.75
50.97
50.11
47.63
43.22
37.0
29.55
21.49
13.15
4.32
-5.66
-17.49
-31.4
-46.87
-62.67
-77.27
-89.27
-97.78
-102.46
-103.42
-101.12
-96.2
-89.41
-81.67
-73.92
-67.11
-62.12
-59.7
-60.29
-63.99
-70.3
-78.15
-86.01
-92.17
-95.15
-94.08
-88.86
-79.99
-68.3
-54.62
-39.62
-23.88
-8.0
7.27
21.21
33.32
43.55
52.31
60.2
67.58
74.31
79.63
82.48
82.0
77.85
70.53
61.08
50.85
41.08
32.67
26.02
20.96
16.74
12.2
6.03
-2.82
-14.63
-28.75
-43.78
-58.07
-70.37
-80.2
-87.83
-93.92
-99.03
-103.31
-106.51
-108.2
-108.02
-105.74
-101.24
-94.42
-85.22
-73.69
-60.11
-45.03
-29.16
-13.23
2.14
16.44
29.26
40.32
49.48
56.84
62.79
67.93
72.91
78.16
83.77
89.44
94.6
98.62
101.09
101.85
101.04
98.98
96.02
92.5
88.66
84.61
80.33
75.64
70.21
63.62
55.52
45.73
34.32
21.62
8.08
-5.76
-19.35
-32.24
-44.07
-54.67
-64.12
-72.64
-80.56
-88.04
-94.85
-100.35
-103.54
-103.45
-99.47
-91.68
-80.85
-68.31
-55.61
-44.13
-34.8
-27.89
-23.06
-19.45
-15.85
-10.84
-3.04
8.62
24.49
43.94
65.19
85.67
102.56
113.62
117.77
115.44
108.26
98.65
89.13
81.99
79.02
81.49
89.86
103.59
120.92
139.16
155.29
166.91
172.93
173.67
170.37
164.33
156.25
146.11
133.41
117.79
99.29
78.27
55.1
29.93
2.61
-26.77
-57.43
-87.56
-114.55
-135.7
-149.06
-154.16
-152.16
-145.36
-136.46
-127.65
-120.18
-114.27
-109.54
-105.37
-101.32
-97.13
-92.69
-87.83
-82.25
-75.72
-68.12
-59.62
-50.67
-41.81
-33.5
-25.82
-18.53
-11.16
-3.32
5.08
13.78
22.3
30.17
37.13
43.24
48.79
54.1
59.44
64.93
70.5
75.9
80.7
84.33
86.27
86.19
84.15
80.57
76.01
70.89
65.15
58.31
49.65
38.66
25.35
10.27
-5.6
-21.23
-35.68
-48.17
-58.08
-64.94
-68.65
-69.69
-69.13
-68.4
-68.78
-70.79
-73.92
-76.76
-77.6
-75.17
-69.23
-60.67
-51.29
-43.24
-38.43
-38.0
-41.95
-49.21
-57.87
-65.79
-71.2
-73.13
-71.5
-66.86
-59.94
-51.25
-40.98
-29.18
-16.08
-2.27
11.26
23.47
33.59
41.26
46.36
48.72
47.89
43.16
34.04
20.63
3.98
-14.1
-31.52
-46.58
-58.38
-66.92
-72.72
-76.46
-78.63
-79.61
-79.78
-79.79
-80.43
-82.48
-86.31
-91.66
-97.61
-102.95
-106.43
-107.17
-104.79
-99.33
-91.09
-80.45
-67.84
-53.76
-38.81
-23.8
-9.6
2.94
13.17
20.75
25.68
28.38
29.52
29.98
30.68
32.35
35.39
39.72
44.89
50.2
55.0
58.83
61.59
63.48
64.85
66.03
67.09
67.81
67.73
66.33
63.4
59.28
54.91
51.6
50.5
51.96
55.32
59.05
61.37
60.95
57.5
51.71
44.73
37.66
31.02
24.76
18.52
12.0
5.14
-1.74
-8.2
-13.79
-18.1
-20.9
-22.1
-21.81
-20.42
-18.58
-17.03
-16.41
-17.01
-18.67
-20.89
-22.98
-24.35
-24.6
-23.49
-20.85
-16.52
-10.46
-2.87
5.64
14.2
21.83
27.84
32.02
34.66
36.35
37.59
38.66
39.58
40.21
40.48
40.46
40.25
39.86
39.08
37.61
35.1
31.4
26.54
20.6
13.6
5.34
-4.53
-16.25
-29.73
-44.3
-58.75
-71.54
-81.23
-86.79
-88.04
-85.6
-80.7
-74.82
-69.09
-64.07
-59.63
-55.29
-50.64
-45.58
-40.38
-35.4
-30.68
-25.73
-19.65
-11.44
-0.53
12.94
28.12
43.67
58.0
69.56
76.95
79.25
76.28
68.99
59.39
50.19
43.94
42.18
45.02
51.21
58.94
66.64
73.49
79.33
84.08
87.23
87.71
84.38
76.68
65.14
51.44
37.82
26.34
18.12
13.16
10.44
8.53
6.09
2.23
-3.44
-10.89
-19.94
-30.25
-41.35
-52.48
-62.64
-70.76
-76.0
-78.06
-77.41
-75.22
-73.21
-73.26
-76.95
-84.94
-96.56
-109.61
-120.79
-126.56
-124.29
-113.26
-94.82
-71.83
-47.58
-24.67
-4.5
12.57
26.68
37.96
46.36
51.83
54.71
55.89
56.63
58.11
60.96
65.03
69.45
73.03
74.74
74.03
71.03
66.28
60.34
53.5
45.58
36.16
24.85
11.6
-3.13
-18.61
-33.88
-48.04
-60.26
-69.75
-75.76
-77.65
-75.12
-68.4
-58.32
-46.17
-33.45
-21.49
-11.21
-3.07
2.94
7.11
9.84
11.52
12.5
13.11
13.73
14.81
16.83
20.14
24.82
30.63
36.94
43.07
48.4
52.52
55.33
56.86
57.24
56.56
54.9
52.32
48.84
44.44
38.94
32.14
23.92
14.45
4.34
-5.48
-13.98
-20.26
-23.81
-24.55
-22.75
-18.88
-13.53
-7.24
-0.57
5.94
11.73
16.21
18.89
19.46
17.88
14.47
9.77
4.45
-0.91
-5.97
-10.69
-15.19
-19.64
-24.11
-28.48
-32.43
-35.54
-37.38
-37.65
-36.26
-33.34
-29.16
-24.06
-18.38
-12.49
-6.89
-2.2
0.83
1.52
-0.51
-5.12
-11.57
-18.66
-25.06
-29.69
-31.95
-31.86
-29.91
-26.79
-23.12
-19.28
-15.4
-11.5
-7.59
-3.71
0.04
3.56
6.78
9.63
12.1
14.26
16.32
18.72
22.06
26.86
33.37
41.3
49.83
57.78
63.94
67.44
68.0
65.85
61.61
56.04
49.79
43.35
37.13
31.46
26.68
23.0
20.41
18.59
17.03
15.36
13.51
11.86
10.94
11.14
12.34
13.87
14.79
14.27
11.93
7.94
2.89
-2.53
-7.86
-12.98
-18.06
-23.39
-29.17
-35.4
-41.89
-48.4
-54.69
-60.57
-65.85
-70.31
-73.68
-75.64
-75.83
-73.96
-69.85
-63.51
-55.28
-45.75
-35.84
-26.5
-18.49
-12.22
-7.75
-4.91
-3.55
-3.61
-5.07
-7.73
-11.11
-14.33
-16.4
-16.42
-13.84
-8.52
-0.74
8.93
19.74
30.8
41.11
49.56
55.11
57.07
55.42
50.96
45.2
39.87
36.37
35.37
36.63
39.31
42.27
44.46
45.1
43.7
40.04
34.22
26.65
18.02
9.19
0.91
-6.33
-12.34
-17.14
-20.84
-23.65
-26.04
-28.67
-32.26
-37.14
-42.91
-48.36
-51.82
-51.88
-48.01
-40.85
-31.93
-23.03
-15.53
-10.04
-6.48
-4.44
-3.48
-3.32
-3.72
-4.33
-4.63
-4.03
-2.11
1.19
5.41
9.75
13.24
15.1
15.0
13.14
10.26
7.31
5.12
4.09
4.1
4.63
5.09
5.1
4.72
4.38
4.64
5.97
8.44
11.71
15.05
17.4
17.68
15.06
9.32
1.03
-8.49
-17.53
-24.49
-28.32
-28.77
-26.27
-21.66
-15.91
-9.9
-4.34
0.4
4.31
7.79
11.48
15.92
21.19
26.76
31.63
34.77
35.59
34.18
31.29
28.01
25.42
24.29
25.02
27.64
31.91
37.32
43.17
48.64
52.98
55.63
56.36
55.23
52.5
48.53
43.61
37.91
31.42
24.0
15.48
5.84
-4.61
-15.15
-24.78
-32.52
-37.76
-40.53
-41.44
-41.57
-42.06
-43.76
-47.07
-51.92
-57.8
-64.03
-69.84
-74.52
-77.47
-78.31
-76.9
-73.36
-68.01
-61.25
-53.37
-44.42
-34.24
-22.61
-9.61
4.21
17.81
30.01
39.92
47.33
52.77
57.19
61.63
66.75
72.71
79.13
85.21
89.85
91.81
89.94
83.64
73.2
59.9
45.73
32.78
22.57
15.68
11.83
10.23
10.09
10.8
11.95
13.09
13.59
12.62
9.39
3.41
-5.33
-16.43
-29.21
-42.97
-57.03
-70.77
-83.36
-93.81
-101.0
-104.02
-102.45
-96.62
-87.38
-75.85
-63.01
-49.46
-35.55
-21.55
-7.91
4.8
16.0
25.28
32.52
37.83
41.46
43.74
45.14
46.19
47.6
49.96
53.7
58.9
65.3
72.41
79.68
86.58
92.66
97.58
101.1
103.04
103.23
101.54
97.81
91.95
83.98
74.12
62.73
50.31
37.44
24.72
12.73
2.0
-7.13
-14.62
-20.74
-25.98
-30.86
-35.64
-40.18
-43.99
-46.49
-47.33
-46.64
-44.95
-43.01
-41.38
-40.28
-39.52
-38.68
-37.3
-35.09
-31.96
-27.99
-23.32
-18.11
-12.52
-6.74
-0.92
4.79
10.3
15.57
20.49
24.89
28.51
31.1
32.52
32.81
32.22
31.09
29.79
28.62
27.7
27.06
26.53
25.81
24.5
22.12
18.29
12.72
5.32
-3.87
-14.73
-26.99
-40.26
-53.94
-67.37
-79.9
-91.13
-100.86
-109.03
-115.59
-120.42
-123.45
-124.77
-124.72
-123.72
-121.99
-119.35
-115.16
-108.65
-99.36
-87.41
-73.51
-58.73
-44.08
-30.32
-17.93
-7.25
1.37
7.61
11.27
12.52
12.03
10.86
10.24
11.24
14.48
20.01
27.37
35.79
44.38
52.4
59.31
64.97
69.58
73.72
78.12
83.39
89.74
96.82
103.84
109.78
113.78
115.2
113.76
109.33
101.95
91.76
79.1
64.5
48.61
32.17
15.89
0.52
-13.13
-24.2
-31.99
-36.25
-37.38
-36.36
-34.41
-32.56
-31.22
-30.2
-28.88
-26.62
-23.02
-18.13
-12.39
-6.48
-1.16
2.92
5.29
5.85
4.89
3.04
1.22
0.34
1.13
3.94
8.69
14.96
22.11
29.52
36.69
43.35
49.44
54.98
59.95
64.12
66.98
67.77
65.72
60.28
51.33
39.3
25.11
9.98
-4.87
-18.52
-30.53
-41.0
-50.44
-59.43
-68.4
-77.38
-86.1
-94.11
-100.99
-106.57
-110.87
-114.07
-116.28
-117.54
-117.75
-116.71
-114.11
-109.66
-103.12
-94.52
-84.21
-72.82
-61.13
-49.73
-38.95
-28.72
-18.8
-8.97
0.78
10.31
19.39
27.97
36.27
44.79
54.14
64.88
77.23
90.9
105.03
118.22
128.7
134.71
134.86
128.47
115.81
98.09
77.24
55.46
34.7
16.31
0.71
-12.46
-24.14
-35.36
-46.81
-58.7
-70.65
-81.9
-91.56
-98.79
-103.01
-103.87
-101.33
-95.66
-87.47
-77.6
-66.97
-56.23
-45.66
-35.03
-23.88
-11.9
0.8
13.48
25.01
34.19
40.17
42.73
42.23
39.51
35.53
31.27
27.48
24.73
23.36
23.46
24.84
27.0
29.24
30.79
31.04
29.69
26.88
23.08
18.98
15.22
12.26
10.38
9.61
9.89
11.01
12.81
15.06
17.51
19.84
21.6
22.23
21.22
18.27
13.53
7.55
1.28
-4.38
-8.74
-11.6
-13.3
-14.62
-16.58
-20.11
-25.72
-33.27
-41.84
-50.05
-56.5
-60.31
-61.36
-60.23
-57.75
-54.55
-50.85
-46.53
-41.39
-35.52
-29.32
-23.26
-17.58
-12.02
-5.91
1.55
10.91
22.09
34.36
46.46
57.11
65.21
70.22
72.03
70.83
66.98
60.96
53.54
45.65
38.4
32.71
29.1
27.51
27.32
27.66
27.55
26.15
22.77
16.99
8.74
-1.59
-13.12
-24.67
-35.01
-43.29
-49.16
-52.9
-55.15
-56.74
-58.41
-60.59
-63.31
-66.14
-68.37
-69.18
-68.01
-64.76
-59.67
-53.23
-45.71
-37.1
-27.14
-15.62
-2.72
10.81
23.73
34.7
42.69
47.33
48.91
48.26
46.35
43.91
41.3
38.55
35.54
32.26
28.94
25.97
23.72
22.26
21.28
20.09
17.9
14.08
8.45
1.28
-6.8
-15.22
-23.62
-31.94
-40.16
-47.96
-54.54
-58.72
-59.43
-56.19
-49.48
-40.57
-31.08
-22.33
-14.96
-8.93
-3.81
0.86
5.41
10.22
15.97
23.75
34.83
50.26
70.19
93.56
118.03
140.47
157.66
167.07
167.43
158.98
143.09
121.84
97.37
71.59
46.1
22.39
1.89
-14.13
-24.99
-30.89
-33.03
-33.21
-33.16
-33.88
-35.42
-37.1
-38.15
-38.2
-37.56
-37.05
-37.58
-39.67
-43.34
-48.1
-53.24
-58.11
-62.28
-65.62
-68.25
-70.35
-72.12
-73.61
-74.71
-75.04
-74.09
-71.31
-66.21
-58.55
-48.39
-36.11
-22.4
-8.17
5.52
17.54
26.89
32.81
34.99
33.58
29.27
23.03
15.98
9.21
3.64
-0.06
-1.5
-0.59
2.41
7.04
12.63
18.52
24.19
29.35
33.96
38.13
41.98
45.46
48.32
50.2
50.82
50.2
48.75
47.13
45.93
45.35
45.1
44.53
43.02
40.18
35.92
30.22
23.03
14.18
3.69
-7.97
-19.76
-30.27
-38.27
-43.09
-44.85
-44.19
-41.86
-38.31
-33.6
-27.61
-20.24
-11.68
-2.4
7.01
15.96
23.99
30.87
36.48
40.86
44.1
46.31
47.57
47.88
47.24
45.69
43.4
40.64
37.69
34.72
31.69
28.39
24.61
20.26
15.55
10.93
7.05
4.57
4.0
5.56
9.02
13.72
18.63
22.57
24.47
23.56
19.6
12.79
3.68
-6.97
-18.39
-29.81
-40.53
-49.93
-57.64
-63.54
-67.81
-70.82
-72.98
-74.64
-76.01
-77.17
-78.11
-78.67
-78.54
-77.25
-74.3
-69.32
-62.22
-53.35
-43.31
-32.75
-22.24
-12.14
-2.79
5.49
12.25
17.07
19.73
20.35
19.38
17.53
15.6
14.31
14.19
15.5
18.22
22.11
26.82
31.9
36.97
41.69
45.76
48.87
50.71
51.06
49.87
47.35
43.88
39.9
35.68
31.21
26.2
20.23
12.9
3.99
-6.44
-18.1
-30.52
-43.09
-55.16
-66.01
-74.98
-81.51
-85.35
-86.59
-85.64
-83.07
-79.3
-74.51
-68.57
-61.21
-52.25
-41.77
-30.08
-17.66
-4.91
7.76
19.99
31.26
40.9
48.26
52.96
55.06
55.1
53.87
52.2
50.68
49.54
48.75
48.06
47.25
46.19
44.85
43.34
41.88
40.63
39.63
38.72
37.57
35.76
32.89
28.69
23.1
16.36
8.86
1.2
-6.02
-12.3
-17.42
-21.47
-24.8
-27.85
-30.93
-34.11
-37.26
-40.12
-42.42
-44.02
-44.82
-44.84
-44.06
-42.53
-40.24
-37.26
-33.74
-29.91
-26.09
-22.61
-19.63
-17.07
-14.54
-11.42
-7.12
-1.4
5.47
12.71
19.28
24.22
26.88
27.12
25.18
21.55
16.79
11.52
6.42
2.26
-0.23
-0.53
1.45
5.26
9.96
14.39
17.6
19.07
18.82
17.23
14.75
11.66
8.01
3.74
-1.19
-6.61
-12.27
-17.95
-23.57
-29.23
-35.03
-40.85
-46.23
-50.45
-52.78
-52.89
-50.96
-47.66
-43.83
-40.17
-36.97
-34.1
-31.17
-27.76
-23.66
-18.87
-13.52
-7.79
-1.81
4.24
10.07
15.33
19.64
22.82
24.94
26.4
27.68
29.24
31.26
33.58
35.78
37.35
37.89
37.24
35.56
33.24
30.87
29.05
28.34
29.05
31.23
34.59
38.58
42.41
45.28
46.49
45.6
42.52
37.57
31.37
24.64
17.97
11.68
5.72
-0.22
-6.48
-13.22
-20.26
-27.07
-32.99
-37.41
-40.04
-40.92
-40.39
-38.89
-36.86
-34.69
-32.69
-31.12
-30.13
-29.68
-29.53
-29.18
-28.15
-26.14
-23.19
-19.73
-16.33
-13.47
-11.3
-9.61
-7.98
-6.04
-3.76
-1.44
0.31
0.86
-0.2
-2.87
-6.69
-10.82
-14.24
-15.99
-15.42
-12.38
-7.21
-0.67
6.37
13.15
19.19
24.26
28.33
31.42
33.46
34.42
34.29
33.2
31.38
29.02
26.24
22.98
19.06
14.31
8.71
2.56
-3.61
-9.06
-13.16
-15.6
-16.47
-16.29
-15.73
-15.41
-15.67
-16.58
-18.0
-19.81
-21.95
-24.39
-26.99
-29.38
-30.94
-31.05
-29.23
-25.32
-19.53
-12.3
-4.14
4.35
12.57
19.87
25.59
29.25
30.62
29.93
27.79
25.02
22.42
20.59
19.8
19.98
20.86
22.04
23.25
24.36
25.48
26.77
28.34
30.07
31.62
32.58
32.76
32.37
32.04
32.53
34.39
37.69
41.94
46.34
50.02
52.38
53.18
52.5
50.58
47.66
43.86
39.17
33.43
26.48
18.3
9.19
-0.11
-8.58
-15.16
-19.26
-20.98
-21.21
-21.35
-22.88
-26.84
-33.53
-42.45
-52.38
-61.8
-69.2
-73.45
-74.09
-71.34
-65.96
-59.03
-51.65
-44.68
-38.7
-33.96
-30.42
-27.81
-25.63
-23.25
-20.01
-15.4
-9.26
-1.8
6.39
14.54
21.97
28.3
33.54
38.11
42.55
47.39
52.84
58.75
64.58
69.54
72.83
73.81
72.28
68.41
62.78
56.13
49.09
42.12
35.36
28.8
22.39
16.15
10.21
4.67
-0.49
-5.43
-10.43
-15.74
-21.52
-27.79
-34.47
-41.46
-48.56
-55.52
-61.96
-67.45
-71.52
-73.86
-74.39
-73.25
-70.74
-67.23
-63.02
-58.29
-53.07
-47.39
-41.22
-34.68
-27.94
-21.26
-14.84
-8.71
-2.69
3.54
10.27
17.58
25.25
32.78
39.62
45.33
49.7
52.75
54.66
55.61
55.64
54.64
52.44
48.94
44.21
38.52
32.29
26.0
19.86
13.7
7.0
-0.9
-10.43
-21.47
-33.26
-44.5
-53.81
-60.24
-63.67
-64.88
-65.3
-66.61
-70.17
-76.68
-85.62
-95.44
-104.16
-110.0
-111.97
-110.17
-105.8
-100.74
-97.06
-95.85
-97.01
-99.82
-103.46
-107.39
-111.44
-115.73
-120.52
-126.33
-132.95
-139.36
-144.35
-146.68
-145.13
-138.67
-127.01
-110.92
-92.09
-71.35
-48.11
-21.35
9.65
44.68
82.39
120.34
157.81
188.67
205.61
206.1
194.2
178.51
167.99
169.33
184.81
211.59
244.55
276.92
302.28
315.05
312.35
294.36
264.41
227.59
189.46
154.85
125.48
103.71
88.69
77.06
62.88
40.11
4.01
-47.53
-113.34
-182.19
-237.92
-269.05
-274.35
-262.49
-243.86
-225.58
-210.34
-197.32
-183.55
-165.98
-148.87
-129.7
-107.58
-82.86
-56.82
-31.14
-7.23
14.42
33.49
49.3
62.12
72.76
81.87
90.27
98.61
107.12
115.54
122.68
126.7
126.69
121.93
112.79
100.52
86.59
72.15
57.75
43.05
27.16
9.74
-9.14
-28.43
-46.21
-60.48
-69.87
-74.02
-73.76
-70.67
-66.22
-61.78
-58.11
-55.4
-53.54
-52.29
-51.44
-50.83
-50.3
-49.61
-48.65
-47.44
-46.1
-44.87
-44.08
-43.94
-44.41
-45.06
-45.24
-44.25
-41.63
-37.33
-31.62
-24.98
-17.82
-10.42
-2.87
4.88
12.87
21.14
29.6
38.01
45.98
52.95
58.42
62.0
63.64
63.63
62.41
60.45
58.04
55.29
52.21
48.79
45.17
41.48
37.84
34.25
30.54
26.5
22.05
17.28
12.47
7.98
4.04
0.61
-2.55
-5.8
-9.48
-13.68
-18.22
-22.7
-26.7
-29.88
-32.16
-33.69
-34.7
-35.43
-35.86
-35.86
-35.16
-33.51
-30.75
-26.84
-21.87
-16.0
-9.47
-2.64
4.12
10.43
16.04
20.91
25.12
28.88
32.31
35.43
38.08
40.06
41.15
41.17
40.12
38.05
35.16
31.72
28.03
24.35
20.85
17.61
14.58
11.68
8.91
6.35
4.22
2.78
2.27
2.85
4.53
7.16
10.46
14.06
17.56
20.59
22.84
24.05
24.01
22.65
20.0
16.26
11.81
7.07
2.43
-1.84
-5.58
-8.81
-11.6
-14.1
-16.46
-18.8
-21.2
-23.68
-26.18
-28.6
-30.78
-32.49
-33.45
-33.28
-31.6
-28.21
-23.07
-16.48
-8.88
-0.78
7.39
15.38
23.02
30.15
36.54
41.82
45.63
47.66
47.83
46.25
43.22
39.1
34.19
28.68
22.63
16.1
9.18
2.11
-4.78
-11.05
-16.35
-20.41
-23.16
-24.67
-25.09
-24.55
-23.2
-21.1
-18.37
-15.2
-11.82
-8.52
-5.43
-2.63
-0.02
2.54
5.15
7.75
10.15
12.07
13.22
13.41
12.63
11.02
8.91
6.68
4.71
3.32
2.67
2.82
3.69
5.17
7.07
9.23
11.52
13.89
16.45
19.39
22.93
27.22
32.2
37.65
43.18
48.38
52.94
56.66
59.49
61.44
62.49
62.55
61.45
59.06
55.26
50.06
43.51
35.64
26.49
16.1
4.6
-7.8
-20.79
-34.04
-47.27
-60.37
-73.35
-86.28
-99.05
-111.3
-122.34
-131.25
-137.1
-139.2
-137.28
-131.54
-122.64
-111.47
-99.0
-86.07
-73.34
-61.36
-50.57
-41.29
-33.71
-27.79
-23.22
-19.51
-16.14
-12.78
-9.28
-5.62
-1.77
2.49
7.44
13.29
19.97
27.09
34.03
40.25
45.49
49.82
53.56
56.99
60.24
63.21
65.68
67.45
68.52
69.1
69.58
70.4
71.82
73.8
75.99
77.85
78.86
78.76
77.53
75.34
72.21
67.83
61.45
52.15
39.24
22.53
2.55
-19.7
-42.95
-65.8
-86.74
-104.08
-116.02
-121.06
-118.54
-108.99
-94.2
-76.73
-59.11
-43.17
-29.68
-18.5
-9.0
-0.54
7.28
14.62
21.47
27.77
33.43
38.34
42.31
45.1
46.38
45.82
43.12
38.05
30.54
20.82
9.61
-1.81
-11.75
-18.46
-20.68
-18.04
-11.23
-1.82
8.3
17.43
24.39
28.66
30.26
29.63
27.45
24.56
21.79
19.76
18.7
18.3
17.86
16.46
13.25
7.8
0.1
-9.39
-20.03
-31.2
-42.52
-53.9
-65.33
-76.61
-87.09
-95.62
-100.86
-101.79
-98.23
-91.04
-81.83
-72.4
-64.06
-57.2
-51.33
-45.5
-38.8
-30.83
-21.71
-11.96
-2.12
7.49
16.79
25.86
34.72
43.14
50.74
57.1
61.92
65.13
66.8
67.11
66.19
64.1
60.95
56.89
52.19
47.18
42.17
37.4
32.97
28.87
24.91
20.74
15.86
9.76
2.12
-7.06
-17.37
-28.19
-38.81
-48.77
-57.93
-66.43
-74.48
-82.02
-88.6
-93.43
-95.61
-94.57
-90.26
-83.31
-74.84
-66.19
-58.63
-53.11
-50.08
-49.43
-50.54
-52.48
-54.29
-55.34
-55.58
-55.57
-56.25
-58.39
-62.13
-66.57
-69.79
-69.17
-62.07
-46.68
-22.55
9.05
45.42
83.13
118.85
150.0
175.03
193.27
204.54
208.77
205.66
194.83
175.99
149.62
117.5
82.99
50.69
25.54
11.54
10.58
22.06
43.25
70.28
99.26
126.96
151.18
170.58
184.41
192.4
194.77
192.31
186.23
177.79
168.02
157.59
146.79
135.71
124.2
111.88
97.87
80.77
58.64
29.46
-7.81
-52.6
-102.45
-153.46
-201.14
-241.44
-271.52
-290.38
-298.96
-298.83
-291.61
-278.52
-260.44
-237.91
-211.3
-181.01
-148.35
-116.01
-86.36
-61.02
-40.63
-25.24
-14.59
-8.29
-6.02
-8.42
-17.57
-34.08
-56.82
-83.03
-109.05
-130.5
-142.03
-137.93
-114.56
-73.2
-18.14
43.46
103.01
152.6
184.46
192.27
178.16
157.32
136.87
118.29
100.0
82.33
66.68
54.83
48.32
47.64
50.97
53.9
53.39
48.61
40.74
31.67
23.23
16.82
13.23
11.85
10.24
6.87
1.55
-4.77
-10.81
-15.28
-17.15
-15.81
-11.66
-6.48
-1.64
2.25
5.27
7.74
10.01
12.27
14.52
16.34
16.89
15.81
13.3
10.01
6.58
3.44
0.77
-1.38
-3.04
-4.32
-5.14
-5.33
-4.83
-3.79
-2.52
-1.38
-0.62
-0.37
-0.66
-1.48
-2.85
-4.78
-7.18
-9.82
-12.36
-14.49
-16.02
-17.05
-17.8
-18.58
-19.45
-20.21
-20.42
-19.66
-17.76
-14.89
-11.48
-8.02
-4.81
-1.95
0.67
3.2
5.73
8.29
10.84
13.24
15.05
15.5
13.52
8.11
-1.15
-13.73
-28.11
-42.18
-53.88
-61.77
-65.33
-64.82
-60.92
-54.47
-46.3
-37.34
-28.64
-21.26
-15.96
-13.05
-12.29
-13.21
-15.44
-18.91
-23.94
-31.02
-40.5
-52.37
-65.94
-79.68
-91.33
-98.26
-98.2
-89.98
-74.06
-52.51
-28.31
-4.4
17.2
35.65
51.1
64.08
75.02
84.11
91.42
97.08
101.35
104.41
106.28
106.68
105.27
101.82
96.45
89.57
81.7
73.21
64.24
54.63
44.16
32.71
20.45
7.89
-4.09
-14.43
-22.03
-26.09
-26.45
-23.67
-18.95
-13.77
-9.43
-6.77
-5.93
-6.6
-8.16
-9.97
-11.5
-12.39
-12.49
-11.79
-10.47
-8.87
-7.47
-6.74
-7.07
-8.55
-10.91
-13.67
-16.28
-18.35
-19.74
-20.55
-21.01
-21.4
-22.14
-23.83
-27.3
-33.24
-41.9
-52.74
-64.49
-75.51
-84.33
-90.02
-92.29
-91.3
-87.33
-80.67
-71.55
-60.26
-47.15
-32.57
-16.87
-0.39
16.38
32.74
47.71
60.24
69.5
75.1
77.21
76.46
73.74
69.97
65.83
61.72
57.71
53.68
49.32
44.27
38.16
30.68
21.73
11.54
0.74
-9.82
-19.26
-27.08
-33.24
-38.17
-42.5
-46.71
-50.93
-54.82
-57.69
-58.7
-57.04
-52.18
-44.0
-32.91
-19.83
-6.02
7.19
18.72
28.01
34.97
39.89
43.08
44.65
44.37
41.76
36.33
27.9
16.72
3.6
-10.24
-23.38
-34.57
-42.9
-48.0
-50.06
-49.61
-47.44
-44.26
-40.57
-36.57
-32.14
-27.04
-21.06
-14.09
-6.18
2.47
11.52
20.42
28.48
34.85
38.86
40.11
38.73
35.39
31.06
26.72
23.07
20.49
18.98
18.37
18.41
18.78
19.2
19.44
19.42
19.33
19.56
20.58
22.76
26.18
30.65
35.71
40.8
45.41
49.14
51.76
53.19
53.47
52.76
51.23
48.95
45.88
41.82
36.53
29.78
21.49
11.76
0.93
-10.33
-21.08
-30.16
-36.3
-38.52
-36.41
-30.33
-21.42
-11.27
-1.53
6.62
12.6
16.47
18.67
19.76
20.14
20.01
19.35
18.1
16.26
14.06
11.92
10.26
9.26
8.61
7.53
5.16
0.9
-5.13
-12.16
-19.04
-24.75
-28.74
-30.92
-31.44
-30.41
-27.84
-23.84
-18.85
-13.76
-9.61
-7.21
-6.72
-7.61
-8.84
-9.47
-8.99
-7.56
-5.97
-5.29
-6.56
-10.43
-16.95
-25.54
-35.03
-44.02
-51.25
-55.97
-58.05
-57.94
-56.36
-54.08
-51.69
-49.6
-48.05
-47.05
-46.4
-45.6
-43.88
-40.43
-34.76
-26.87
-17.47
-7.69
1.21
8.22
12.76
14.77
14.49
12.23
8.2
2.6
-4.24
-11.69
-18.76
-24.25
-27.21
-27.19
-24.49
-19.96
-14.58
-9.18
-4.14
0.5
4.91
9.21
13.5
17.92
22.71
28.16
34.32
40.89
47.15
52.21
55.32
56.21
55.06
52.47
49.05
45.18
41.02
36.63
32.14
27.94
24.56
22.46
21.79
22.28
23.3
24.27
24.88
25.24
25.79
26.96
28.89
31.29
33.65
35.5
36.57
36.94
36.79
36.24
35.13
32.97
29.16
23.21
15.04
4.99
-6.17
-17.46
-27.95
-36.98
-44.2
-49.54
-53.08
-54.96
-55.31
-54.36
-52.46
-49.98
-47.31
-44.6
-41.81
-38.66
-34.89
-30.36
-25.23
-20.02
-15.37
-11.94
-10.15
-9.97
-10.94
-12.29
-13.18
-12.97
-11.39
-8.57
-4.92
-0.96
2.93
6.58
10.25
14.51
20.06
27.43
36.7
47.31
58.23
68.21
76.16
81.46
83.95
84.03
82.37
79.91
77.48
75.57
73.79
70.71
64.14
51.98
33.25
8.83
-18.49
-44.94
-67.0
-82.53
-91.25
-94.33
-93.59
-90.68
-86.62
-81.94
-76.92
-71.86
-67.15
-63.07
-59.54
-56.13
-52.12
-46.85
-40.03
-31.93
-23.27
-15.02
-7.95
-2.36
2.08
6.08
10.44
15.59
21.33
26.81
30.96
32.89
32.44
30.27
27.66
25.92
25.92
27.74
30.84
34.44
37.85
40.7
42.77
43.83
43.56
41.68
38.21
33.72
29.22
25.74
24.0
24.0
25.19
26.73
27.88
28.23
27.63
26.04
23.4
19.58
14.49
8.17
0.83
-7.21
-15.62
-24.06
-32.2
-39.7
-46.19
-51.32
-54.88
-56.76
-56.98
-55.64
-52.97
-49.27
-44.9
-40.16
-35.21
-30.03
-24.43
-18.32
-11.88
-5.7
-0.61
2.6
3.53
2.3
-0.4
-3.57
-6.19
-7.36
-6.5
-3.34
2.01
9.1
17.11
25.05
32.04
37.54
41.53
44.43
46.81
49.11
51.48
53.71
55.43
56.4
56.5
55.6
53.58
50.22
45.39
39.1
31.74
23.92
16.35
9.4
2.9
-3.85
-11.84
-21.86
-34.06
-47.83
-61.94
-75.02
-86.07
-94.66
-100.86
-104.86
-106.68
-106.02
-102.49
-95.92
-86.67
-75.63
-63.82
-52.19
-41.39
-31.61
-22.79
-14.74
-7.32
-0.44
6.01
12.18
18.28
24.46
30.61
36.33
41.0
44.04
45.3
45.27
44.99
45.72
48.35
53.04
59.11
65.26
70.15
72.82
72.98
70.97
67.5
63.24
58.7
54.1
49.59
45.35
41.61
38.61
36.36
34.63
32.94
30.73
27.63
23.46
18.32
12.33
5.63
-1.82
-10.05
-19.04
-28.49
-37.86
-46.49
-53.82
-59.53
-63.66
-66.5
-68.35
-69.35
-69.38
-68.18
-65.6
-61.68
-56.73
-51.19
-45.51
-40.01
-34.86
-30.15
-25.85
-21.86
-17.92
-13.72
-8.99
-3.57
2.65
9.78
17.93
27.27
37.72
48.91
60.07
70.2
78.42
84.23
87.63
89.02
89.05
88.38
87.57
86.97
86.75
86.8
86.73
85.91
83.6
79.12
72.07
62.46
50.68
37.45
23.63
10.08
-2.54
-13.84
-23.85
-32.89
-41.45
-49.97
-58.63
-67.26
-75.43
-82.63
-88.59
-93.27
-96.85
-99.44
-100.99
-101.23
-99.8
-96.62
-91.98
-86.55
-81.08
-76.14
-71.83
-67.89
-63.85
-59.34
-54.26
-48.75
-43.13
-37.69
-32.61
-28.03
-24.02
-20.66
-17.94
-15.75
-13.89
-12.1
-10.25
-8.31
-6.36
-4.39
-2.04
1.38
6.75
14.79
25.61
38.51
52.14
64.78
74.91
81.53
84.35
83.69
80.14
74.37
66.82
57.85
47.74
36.97
26.2
16.28
8.04
2.11
-1.28
-2.36
-1.72
-0.09
1.86
3.65
5.03
5.93
6.43
6.69
6.81
6.82
6.65
6.1
4.97
3.11
0.58
-2.28
-4.89
-6.56
-6.66
-4.83
-1.11
4.04
9.86
15.45
20.02
23.17
25.0
26.18
27.7
30.44
34.77
40.22
45.53
49.01
49.18
45.34
37.89
28.21
18.2
9.53
3.22
-0.66
-2.72
-3.9
-4.98
-6.4
-8.29
-10.59
-13.23
-16.25
-19.64
-23.3
-27.0
-30.51
-33.67
-36.55
-39.3
-42.06
-44.71
-46.9
-48.18
-48.34
-47.42
-45.79
-43.8
-41.65
-39.25
-36.34
-32.75
-28.57
-24.26
-20.51
-18.03
-17.36
-18.68
-21.9
-26.65
-32.47
-38.82
-45.15
-50.93
-55.68
-59.02
-60.66
-60.41
-57.97
-52.99
-44.92
-33.39
-18.44
-0.86
17.8
35.62
50.83
62.41
70.25
75.02
77.66
78.94
79.24
78.55
76.71
73.51
68.81
62.55
54.74
45.61
35.57
25.27
15.33
6.13
-2.39
-10.62
-19.05
-27.88
-36.84
-45.17
-51.96
-56.52
-58.59
-58.48
-56.77
-54.13
-51.01
-47.7
-44.31
-40.96
-37.81
-35.03
-32.73
-30.94
-29.52
-28.42
-27.56
-26.93
-26.49
-26.06
-25.34
-24.04
-21.98
-19.21
-15.99
-12.57
-8.99
-5.01
-0.19
5.84
13.21
21.75
31.14
41.03
51.13
61.2
70.79
79.39
86.34
91.08
93.25
92.61
89.09
82.72
73.68
62.45
49.86
37.06
25.31
15.6
8.47
3.89
1.34
0.07
-0.73
-1.64
-2.95
-4.61
-6.27
-7.54
-8.07
-7.74
-6.55
-4.58
-1.92
1.15
4.05
5.9
5.68
2.81
-2.44
-8.85
-14.66
-18.24
-18.79
-16.52
-12.39
-7.56
-2.9
1.08
4.1
5.87
6.09
4.61
1.82
-1.38
-3.71
-3.96
-1.44
3.8
11.1
19.45
27.87
35.72
42.64
48.6
53.61
57.65
60.59
62.23
62.35
60.92
58.15
54.47
50.49
46.74
43.46
40.55
37.64
34.33
30.38
25.91
21.31
17.05
13.49
10.59
7.97
5.04
1.28
-3.44
-8.68
-13.58
-17.09
-18.42
-17.41
-14.51
-10.59
-6.42
-2.41
1.48
5.5
9.74
13.81
16.91
18.11
16.78
12.91
7.14
0.58
-5.57
-10.39
-13.39
-14.45
-13.65
-11.09
-6.97
-1.63
4.29
9.88
14.27
16.99
18.3
19.12
20.66
23.77
28.33
33.23
36.65
36.82
32.74
24.47
12.97
-0.41
-14.51
-28.57
-42.21
-55.13
-66.89
-76.96
-84.89
-90.64
-94.56
-97.22
-99.05
-100.2
-100.56
-100.0
-98.59
-96.69
-94.78
-93.19
-91.83
-90.2
-87.55
-83.29
-77.26
-69.92
-62.26
-55.45
-50.46
-47.7
-46.9
-47.22
-47.63
-47.32
-45.92
-43.53
-40.56
-37.38
-34.22
-31.18
-28.27
-25.52
-22.96
-20.54
-17.96
-14.8
-10.52
-4.71
2.71
11.59
21.61
32.51
44.17
56.4
68.74
80.19
89.28
94.45
94.58
89.55
80.33
68.65
56.33
44.58
33.76
23.43
12.9
1.68
-10.26
-22.56
-34.63
-45.91
-55.83
-63.58
-67.96
-67.54
-61.12
-48.45
-30.61
-9.85
11.04
29.77
45.13
57.12
66.56
74.32
80.93
86.42
90.58
93.18
94.1
93.23
90.3
84.95
76.89
66.34
54.07
41.43
29.82
20.3
13.22
8.24
4.57
1.5
-1.25
-3.36
-4.11
-2.75
1.18
7.64
16.13
26.0
36.6
47.4
57.89
67.6
75.96
82.49
86.79
88.72
88.35
85.86
81.38
74.97
66.71
56.81
45.81
34.44
23.47
13.43
4.39
-4.07
-12.53
-21.45
-30.86
-40.32
-49.11
-56.58
-62.32
-66.39
-69.05
-70.7
-71.6
-71.89
-71.57
-70.49
-68.51
-65.42
-61.11
-55.57
-49.0
-41.88
-34.93
-28.87
-24.26
-21.23
-19.41
-18.08
-16.39
-13.6
-9.23
-3.05
5.07
15.04
26.56
38.95
51.01
61.21
67.98
70.19
67.49
60.47
50.45
39.05
27.76
17.5
8.61
0.93
-5.91
-12.25
-18.36
-24.43
-30.7
-37.43
-44.84
-52.85
-61.09
-68.91
-75.67
-80.87
-84.13
-85.07
-83.17
-77.79
-68.46
-55.32
-39.32
-22.35
-6.9
4.52
9.91
8.34
0.07
-13.48
-30.24
-47.91
-64.44
-78.34
-88.68
-95.06
-97.53
-96.58
-93.05
-88.01
-82.4
-76.8
-71.27
-65.42
-58.76
-50.93
-41.93
-32.13
-22.16
-12.65
-4.02
3.65
10.55
16.88
22.61
27.3
30.29
31.13
29.93
27.5
25.05
23.6
23.52
24.48
25.85
27.21
28.65
30.6
33.37
36.81
40.23
42.74
43.8
43.34
41.88
40.18
39.02
39.08
40.77
44.26
49.31
55.17
60.77
64.92
66.66
65.42
61.07
53.72
43.72
31.74
18.87
6.57
-3.73
-11.13
-15.68
-18.36
-20.61
-23.58
-27.61
-32.07
-35.74
-37.33
-36.09
-31.94
-25.39
-17.25
-8.28
0.86
9.65
17.57
24.14
28.94
31.87
33.14
33.25
32.55
30.9
27.57
21.46
11.76
-1.48
-17.13
-33.09
-46.79
-55.78
-58.1
-52.57
-39.0
-18.29
7.47
35.21
61.49
83.22
98.36
106.21
107.27
102.65
93.65
81.51
67.3
52.2
37.39
23.96
12.56
3.37
-4.0
-10.11
-15.47
-20.27
-24.35
-27.29
-28.75
-28.54
-26.79
-23.95
-20.59
-17.24
-14.24
-11.55
-8.93
-6.05
-2.79
0.74
4.25
7.41
10.13
12.45
14.64
16.92
19.36
21.87
24.23
26.15
27.38
27.69
26.79
24.32
19.79
12.84
3.43
-7.9
-20.05
-31.59
-41.23
-48.27
-52.84
-55.75
-58.0
-60.33
-62.93
-65.53
-67.78
-69.47
-70.65
-71.42
-71.69
-71.12
-69.25
-65.84
-61.02
-55.28
-49.27
-43.47
-37.97
-32.63
-27.18
-21.51
-15.74
-10.1
-4.73
0.49
5.94
12.08
19.21
27.34
36.08
44.81
52.85
59.63
64.84
68.5
70.91
72.61
74.15
75.92
77.89
79.49
79.68
77.29
71.35
61.58
48.51
33.41
17.92
3.6
-8.47
-17.92
-24.93
-30.08
-34.05
-37.46
-40.8
-44.4
-48.41
-52.79
-57.19
-60.98
-63.47
-64.21
-63.38
-61.98
-61.57
-63.72
-69.24
-77.69
-87.48
-96.47
-102.85
-105.79
-105.68
-103.65
-100.97
-98.47
-96.41
-94.57
-92.63
-90.23
-87.01
-82.5
-76.09
-67.27
-55.81
-41.97
-26.42
-10.04
6.36
22.29
37.62
52.49
67.11
81.62
96.01
110.06
123.44
135.74
146.58
155.61
162.58
167.33
169.77
169.87
167.56
162.68
154.97
144.11
129.89
112.45
92.34
70.68
48.93
28.62
10.98
-3.3
-14.22
-22.35
-28.62
-34.17
-40.12
-47.46
-56.88
-68.45
-81.6
-95.12
-107.55
-117.59
-124.39
-127.68
-127.46
-123.71
-116.3
-105.17
-90.77
-74.26
-57.39
-41.97
-29.28
-19.72
-12.87
-8.09
-4.95
-3.51
-4.08
-6.82
-11.34
-16.72
-21.75
-25.37
-26.92
-26.3
-23.68
-19.43
-13.89
-7.34
-0.0
7.95
16.45
25.5
35.22
45.65
56.61
67.68
78.04
86.68
92.44
94.34
91.82
84.97
74.75
62.79
51.15
41.62
35.24
31.92
30.54
29.37
26.76
21.74
14.38
5.74
-2.48
-8.43
-10.61
-8.23
-1.31
9.32
22.22
35.51
47.32
56.15
61.21
62.62
61.3
58.57
55.62
53.11
50.96
48.62
45.43
41.02
35.48
29.26
22.86
16.66
10.83
5.53
1.02
-2.28
-3.98
-4.0
-2.73
-1.08
-0.23
-1.29
-4.89
-10.9
-18.41
-25.86
-31.44
-33.6
-31.43
-24.91
-14.85
-2.61
10.17
21.87
31.17
37.07
39.08
37.25
32.19
25.05
17.17
9.84
3.91
-0.33
-3.13
-5.04
-6.73
-8.72
-11.29
-14.54
-18.34
-22.44
-26.37
-29.6
-31.61
-32.11
-31.16
-29.27
-27.13
-25.43
-24.48
-24.19
-24.08
-23.57
-22.25
-19.96
-16.86
-13.23
-9.41
-5.65
-2.13
1.04
3.9
6.6
9.4
12.48
15.8
18.9
21.03
21.43
19.57
15.5
9.82
3.49
-2.42
-6.99
-9.69
-10.36
-9.22
-6.75
-3.52
-0.06
3.23
6.06
8.25
9.57
9.79
8.69
6.17
2.33
-2.55
-8.08
-13.9
-19.67
-25.1
-29.89
-33.8
-36.69
-38.54
-39.5
-39.79
-39.69
-39.43
-39.1
-38.67
-38.0
-36.82
-34.94
-32.26
-28.93
-25.28
-21.73
-18.6
-15.92
-13.53
-11.19
-8.72
-6.14
-3.57
-1.11
1.21
3.56
6.08
8.86
11.78
14.58
16.98
18.85
20.31
21.68
23.32
25.45
28.07
30.98
33.93
36.75
39.35
41.65
43.51
44.61
44.63
43.37
40.89
37.43
33.3
28.69
23.59
17.89
11.58
4.82
-2.03
-8.61
-14.73
-20.51
-26.29
-32.41
-39.06
-46.1
-53.14
-59.68
-65.26
-69.55
-72.26
-73.14
-71.89
-68.31
-62.47
-54.77
-45.82
-36.13
-25.85
-14.73
-2.39
11.19
25.4
38.94
50.29
58.22
62.27
62.86
61.07
58.17
55.32
53.34
52.72
53.68
56.22
60.12
64.93
69.95
74.32
77.1
77.52
75.13
70.02
62.77
54.35
45.77
37.74
30.54
23.91
17.43
10.73
3.8
-3.05
-9.56
-15.74
-22.19
-30.02
-40.52
-54.66
-72.71
-93.96
-116.78
-138.81
-157.25
-169.25
-172.46
-165.63
-149.08
-124.86
-96.29
-67.09
-40.25
-17.4
1.32
16.59
29.16
39.4
47.31
52.96
56.79
59.62
62.2
64.87
67.31
68.89
69.13
68.05
66.23
64.47
63.36
63.03
63.16
63.24
62.78
61.53
59.46
56.73
53.57
50.18
46.63
42.79
38.36
32.93
26.11
17.68
7.58
-4.08
-17.12
-31.36
-46.5
-62.1
-77.47
-91.85
-104.48
-114.99
-123.41
-130.1
-135.53
-139.96
-143.34
-145.32
-145.46
-143.38
-138.86
-131.83
-122.25
-110.02
-95.04
-77.28
-56.88
-34.25
-9.98
15.19
40.52
65.26
88.65
109.87
128.04
142.36
152.3
157.74
159.08
157.02
152.3
145.39
136.44
125.39
112.44
98.29
84.28
72.07
63.02
57.67
55.54
55.27
55.25
54.15
51.32
46.75
40.79
33.8
25.94
17.18
7.41
-3.42
-15.16
-27.39
-39.45
-50.47
-59.64
-66.35
-70.38
-71.98
-71.73
-70.44
-68.84
-67.49
-66.62
-66.2
-65.99
-65.76
-65.4
-65.02
-64.87
-65.25
-66.26
-67.73
-69.29
-70.48
-70.97
-70.66
-69.59
-67.81
-65.27
-61.7
-56.73
-50.04
-41.49
-31.29
-20.04
-8.64
1.82
10.42
16.49
19.9
20.94
20.26
18.7
17.15
16.35
16.87
18.96
22.48
26.87
31.29
34.78
36.54
36.23
34.1
30.86
27.34
24.2
21.54
19.0
15.96
11.92
6.75
0.69
-5.73
-11.93
-17.36
-21.58
-24.19
-24.88
-23.53
-20.32
-15.77
-10.65
-5.81
-1.97
0.41
1.21
0.53
-1.24
-3.61
-5.98
-7.72
-8.29
-7.31
-4.56
-0.02
6.27
14.21
23.7
34.54
46.32
58.3
69.5
78.88
85.55
89.1
89.65
87.8
84.43
80.37
76.21
72.2
68.28
64.19
59.58
54.07
47.28
38.91
28.88
17.37
4.87
-7.98
-20.61
-32.69
-44.13
-55.0
-65.22
-74.47
-82.13
-87.57
-90.19
-89.73
-86.15
-79.7
-70.92
-60.63
-49.95
-40.1
-32.08
-26.37
-22.88
-21.14
-20.65
-21.11
-22.54
-24.99
-28.22
-31.6
-34.15
-34.92
-33.28
-29.03
-22.29
-13.32
-2.41
10.08
23.46
36.64
48.19
56.65
61.1
61.4
58.31
53.15
47.38
42.22
38.38
36.1
35.2
35.22
35.58
35.63
34.78
32.61
28.97
24.17
18.9
14.09
10.62
8.94
8.99
10.16
11.68
12.84
13.27
13.05
12.55
12.23
12.4
13.06
13.85
14.12
13.06
9.85
3.87
-5.15
-17.0
-31.0
-46.1
-60.95
-74.09
-84.15
-90.03
-91.1
-87.35
-79.4
-68.35
-55.44
-41.77
-27.94
-14.13
-0.23
13.9
28.04
41.54
53.41
62.53
68.02
69.47
67.12
61.78
54.69
47.12
40.12
34.29
29.64
25.83
22.29
18.48
14.06
8.82
2.66
-4.46
-12.57
-21.65
-31.48
-41.68
-51.72
-61.1
-69.46
-76.67
-82.65
-87.25
-90.1
-90.63
-88.3
-82.95
-74.97
-65.27
-54.95
-44.92
-35.68
-27.31
-19.73
-12.87
-6.75
-1.31
3.66
8.55
13.53
18.24
21.69
22.46
19.39
12.22
1.89
-9.65
-20.11
-27.65
-31.4
-31.49
-28.62
-23.48
-16.41
-7.53
2.88
14.02
24.6
33.33
39.56
43.7
47.09
51.32
57.37
65.03
72.97
79.28
82.32
81.4
76.87
69.8
61.45
52.82
44.49
36.66
29.44
23.0
17.66
13.77
11.49
10.63
10.71
11.15
11.49
11.58
11.5
11.32
10.87
9.58
6.65
1.41
-6.4
-16.35
-27.43
-38.31
-47.73
-54.77
-58.97
-60.33
-59.1
-55.63
-50.3
-43.42
-35.25
-26.05
-16.17
-6.04
3.81
12.87
20.73
27.22
32.42
36.67
40.28
43.46
46.2
48.24
49.27
49.12
47.88
45.86
43.46
40.9
38.11
34.69
30.09
23.81
15.71
6.06
-4.42
-14.75
-23.95
-31.16
-35.88
-37.97
-37.67
-35.52
-32.24
-28.58
-25.14
-22.34
-20.25
-18.72
-17.35
-15.68
-13.42
-10.58
-7.59
-5.15
-4.01
-4.64
-7.05
-10.75
-14.98
-18.98
-22.29
-24.81
-26.67
-28.04
-28.87
-28.92
-27.78
-25.11
-20.73
-14.71
-7.33
1.16
10.53
20.66
31.5
42.98
54.98
67.2
79.26
90.6
100.6
108.6
113.96
116.1
114.52
108.85
98.9
84.65
66.36
44.68
20.66
-4.28
-28.55
-50.78
-69.99
-85.88
-98.61
-108.7
-116.72
-123.06
-127.94
-131.32
-133.04
-132.84
-130.39
-125.5
-118.16
-108.75
-98.06
-87.12
-76.95
-68.31
-61.44
-56.06
-51.54
-47.18
-42.41
-36.99
-31.0
-24.68
-18.28
-11.91
-5.54
0.89
7.34
13.69
19.89
25.99
32.24
38.87
45.86
52.87
59.22
64.2
67.35
68.57
68.07
66.26
63.53
60.33
57.19
54.66
53.16
52.73
52.84
52.49
50.53
46.18
39.42
31.06
22.43
14.97
9.73
7.09
6.83
8.31
10.72
13.34
15.59
17.03
17.34
16.33
13.97
10.43
6.15
1.81
-1.8
-3.81
-3.58
-0.81
4.23
10.71
17.36
22.71
25.53
25.17
21.73
16.05
9.37
3.0
-2.05
-5.22
-6.4
-5.78
-3.76
-0.85
2.38
5.46
8.13
10.49
12.97
16.04
19.96
24.53
29.14
32.98
35.44
36.33
35.94
34.83
33.45
31.99
30.21
27.69
23.98
18.95
12.85
6.19
-0.39
-6.4
-11.57
-15.84
-19.29
-22.05
-24.27
-26.16
-28.0
-30.09
-32.72
-35.94
-39.65
-43.49
-47.06
-49.92
-51.74
-52.32
-51.61
-49.71
-46.88
-43.51
-40.03
-36.86
-34.36
-32.68
-31.87
-31.74
-31.98
-32.16
-31.85
-30.64
-28.24
-24.49
-19.43
-13.25
-6.24
1.28
9.08
17.0
24.95
32.72
39.89
45.94
50.37
52.97
53.99
54.0
53.69
53.45
53.2
52.4
50.26
46.09
39.6
30.94
20.67
9.47
-1.95
-12.95
-22.87
-30.98
-36.55
-39.08
-38.56
-35.57
-31.2
-26.63
-22.71
-19.66
-17.12
-14.43
-11.05
-6.79
-1.88
3.14
7.69
11.17
13.13
13.27
11.52
8.12
3.62
-1.21
-5.52
-8.54
-9.77
-8.97
-6.29
-2.17
2.64
7.23
10.72
12.56
12.72
11.8
10.82
10.85
12.56
15.93
20.31
24.65
28.0
29.83
30.15
29.48
28.46
27.61
27.12
26.86
26.46
25.44
23.39
20.04
15.38
9.7
3.5
-2.64
-8.26
-13.16
-17.48
-21.54
-25.72
-30.29
-35.29
-40.59
-45.89
-50.87
-55.27
-58.99
-62.03
-64.46
-66.34
-67.5
-67.49
-65.54
-60.72
-52.22
-39.81
-24.1
-6.62
10.5
25.08
35.47
40.93
41.61
38.37
32.3
24.56
16.15
8.04
1.17
-3.67
-5.97
-5.74
-3.58
-0.56
1.99
2.88
1.49
-1.89
-5.89
-8.35
-7.07
-0.67
10.89
26.15
42.78
58.48
71.71
81.92
89.32
94.23
96.73
96.53
93.43
87.64
79.94
71.46
63.06
55.04
47.0
38.2
27.97
16.2
3.37
-9.66
-21.93
-32.75
-41.74
-48.78
-53.9
-57.17
-58.76
-58.96
-58.27
-57.32
-56.74
-57.06
-58.51
-60.97
-63.97
-66.82
-68.87
-69.73
-69.29
-67.66
-64.87
-60.64
-54.4
-45.55
-33.81
-19.54
-3.73
12.17
26.72
38.76
47.63
53.18
55.61
55.43
53.36
50.31
47.16
44.69
43.29
42.86
42.92
42.73
41.56
38.94
34.78
29.35
23.15
16.76
10.67
5.28
0.84
-2.57
-5.13
-7.26
-9.65
-12.98
-17.69
-23.7
-30.33
-36.6
-41.47
-44.32
-45.06
-44.08
-42.0
-39.33
-36.37
-33.21
-29.88
-26.51
-23.35
-20.73
-18.92
-17.88
-17.27
-16.52
-14.98
-12.18
-7.99
-2.58
3.65
10.21
16.68
22.71
27.96
32.11
34.88
36.11
35.88
34.53
32.54
30.43
28.59
27.22
26.45
26.33
26.88
28.05
29.56
30.93
31.47
30.56
27.82
23.34
17.67
11.64
6.06
1.43
-2.2
-5.19
-8.09
-11.37
-15.26
-19.6
-23.97
-27.81
-30.66
-32.34
-32.98
-32.91
-32.54
-32.19
-32.0
-31.98
-32.1
-32.35
-32.59
-32.58
-31.87
-30.0
-26.75
-22.25
-17.1
-12.03
-7.64
-4.09
-1.08
1.92
5.36
9.3
13.44
17.21
20.05
21.46
21.09
18.58
13.68
6.45
-2.6
-12.31
-21.14
-27.58
-30.7
-30.6
-28.33
-25.57
-24.01
-24.86
-28.55
-34.81
-42.74
-50.97
-57.77
-61.25
-59.81
-52.54
-39.78
-23.09
-4.92
12.09
25.94
35.62
41.2
43.53
43.71
42.8
41.64
40.83
40.78
41.65
43.33
45.37
47.08
47.67
46.43
42.79
36.47
27.51
16.36
3.88
-8.67
-19.87
-28.47
-33.7
-35.46
-34.31
-31.09
-26.61
-21.29
-15.15
-8.0
0.32
9.64
19.46
29.05
37.77
45.23
51.32
56.18
59.84
62.23
63.12
62.28
59.76
55.97
51.63
47.46
43.87
40.73
37.46
33.28
27.67
20.56
12.38
3.92
-4.11
-11.2
-17.18
-22.17
-26.41
-30.23
-33.95
-37.83
-41.97
-46.23
-50.14
-53.01
-54.13
-53.02
-49.59
-44.22
-37.59
-30.49
-23.65
-17.51
-12.33
-8.13
-4.88
-2.48
-0.83
0.14
0.54
0.46
0.11
-0.24
-0.19
0.61
2.4
5.19
8.76
12.71
16.58
19.98
22.6
24.19
24.52
23.43
20.84
16.86
11.83
6.24
0.71
-4.17
-7.89
-10.07
-10.55
-9.39
-6.89
-3.56
-0.02
3.11
5.31
6.29
6.05
4.83
3.06
1.16
-0.6
-2.19
-3.75
-5.52
-7.73
-10.56
-14.11
-18.45
-23.52
-29.02
-34.33
-38.55
-40.84
-40.8
-38.69
-35.39
-32.01
-29.48
-28.21
-28.02
-28.24
-28.07
-26.69
-23.51
-18.27
-11.16
-2.74
6.09
14.49
21.88
28.2
33.83
39.3
45.05
51.07
56.99
62.11
65.72
67.3
66.65
64.0
59.85
54.89
49.7
44.71
40.07
35.71
31.48
27.22
22.72
17.68
11.72
4.43
-4.46
-14.86
-26.25
-37.73
-48.29
-57.01
-63.38
-67.28
-68.9
-68.6
-66.7
-63.5
-59.21
-54.12
-48.59
-43.1
-38.07
-33.76
-30.12
-26.81
-23.27
-18.95
-13.48
-6.81
0.71
8.41
15.49
21.2
25.05
26.96
27.22
26.35
25.01
23.7
22.72
22.19
22.02
22.11
22.33
22.57
22.7
22.57
22.09
21.22
20.12
19.0
18.1
17.59
17.48
17.64
17.89
18.06
18.05
17.86
17.53
17.06
16.39
15.38
13.83
11.64
8.79
5.41
1.66
-2.24
-6.13
-9.82
-13.1
-15.77
-17.72
-19.05
-20.11
-21.33
-23.06
-25.35
-27.92
-30.33
-32.14
-33.11
-33.24
-32.64
-31.47
-29.77
-27.54
-24.72
-21.33
-17.52
-13.48
-9.53
-5.95
-2.94
-0.51
1.55
3.58
5.98
9.03
12.85
17.35
22.36
27.58
32.72
37.41
41.27
43.99
45.43
45.74
45.27
44.48
43.65
42.84
41.81
40.17
37.69
34.25
30.02
25.26
20.19
15.0
9.79
4.69
-0.17
-4.71
-8.94
-13.05
-17.31
-21.97
-27.15
-32.78
-38.57
-44.08
-48.84
-52.43
-54.56
-55.11
-54.1
-51.69
-48.1
-43.59
-38.48
-33.12
-27.92
-23.21
-19.21
-15.98
-13.39
-11.31
-9.57
-8.07
-6.78
-5.67
-4.73
-3.92
-3.2
-2.52
-1.84
-1.13
-0.32
0.64
1.81
3.17
4.59
5.81
6.52
6.42
5.37
3.5
1.19
-0.93
-2.2
-2.09
-0.49
2.32
5.63
8.6
10.4
10.5
8.71
5.23
0.49
-4.95
-10.5
-15.65
-20.02
-23.37
-25.67
-27.11
-28.01
-28.78
-29.72
-30.93
-32.26
-33.35
-33.76
-33.08
-31.06
-27.63
-22.93
-17.31
-11.24
-5.29
0.08
4.65
8.58
12.34
16.55
21.67
27.78
34.51
41.15
46.91
51.21
53.83
54.91
54.83
54.13
53.28
52.68
52.53
52.84
53.33
53.55
52.92
50.92
47.26
41.95
35.36
28.09
20.84
14.19
8.47
3.64
-0.6
-4.7
-9.06
-13.82
-18.85
-23.72
-27.95
-31.2
-33.43
-34.88
-35.95
-36.92
-37.79
-38.2
-37.6
-35.54
-31.88
-26.88
-21.08
-15.08
-9.28
-3.74
1.7
7.32
13.32
19.67
26.25
32.77
38.92
44.3
48.49
51.04
51.61
50.09
46.64
41.84
36.45
31.37
27.34
24.73
23.47
23.1
22.99
22.62
21.76
20.54
19.22
18.03
16.97
15.81
14.21
11.8
8.26
3.33
-3.15
-11.17
-20.32
-29.89
-38.82
-46.04
-50.63
-52.1
-50.33
-45.69
-38.94
-31.22
-23.97
-18.67
-16.52
-18.08
-23.1
-30.62
-39.26
-47.68
-54.93
-60.53
-64.5
-67.16
-68.93
-70.28
-71.66
-73.49
-76.1
-79.64
-83.89
-88.1
-91.06
-91.26
-87.29
-78.17
-63.56
-43.82
-19.95
6.48
33.57
59.19
81.26
98.08
108.63
112.75
111.18
105.16
96.2
85.67
74.61
63.69
53.34
43.89
35.77
29.45
25.44
24.02
25.11
28.12
32.14
36.11
39.04
40.24
39.32
36.13
30.63
22.85
12.95
1.32
-11.32
-23.99
-35.61
-45.28
-52.43
-56.86
-58.52
-57.32
-53.04
-45.5
-34.91
-22.15
-8.83
3.03
11.6
15.85
15.87
12.77
8.27
4.14
1.79
1.96
4.81
9.97
16.78
24.38
31.81
38.12
42.37
43.91
42.51
38.48
32.71
26.31
20.21
14.89
10.28
6.0
1.73
-2.52
-6.36
-9.3
-11.03
-11.64
-11.58
-11.38
-11.42
-11.75
-12.19
-12.49
-12.52
-12.45
-12.65
-13.57
-15.53
-18.45
-21.7
-24.16
-24.48
-21.56
-15.08
-5.66
5.18
15.47
23.46
28.0
28.75
25.99
20.27
12.19
2.27
-8.82
-20.15
-30.49
-38.59
-43.52
-45.1
-43.96
-41.29
-38.39
-36.17
-34.82
-33.88
-32.51
-29.9
-25.61
-19.58
-12.05
-3.37
6.09
15.95
25.77
35.04
43.21
49.85
54.69
57.77
59.35
59.86
59.79
59.59
59.63
60.05
60.77
61.4
61.4
60.19
57.38
52.93
47.18
40.72
34.15
27.94
22.25
17.01
12.0
6.92
1.54
-4.32
-10.74
-17.69
-25.1
-32.86
-40.85
-48.91
-56.83
-64.32
-70.98
-76.38
-80.17
-82.14
-82.36
-81.05
-78.61
-75.46
-72.04
-68.8
-66.11
-64.18
-62.95
-62.11
-61.2
-59.93
-58.22
-56.26
-54.31
-52.53
-50.75
-48.61
-45.75
-42.06
-37.71
-32.98
-27.99
-22.5
-16.04
-8.13
1.34
12.09
23.49
34.91
45.78
55.74
64.45
71.63
77.09
80.88
83.44
85.42
87.44
89.82
92.35
94.45
95.31
94.17
90.48
84.03
74.94
63.7
51.1
38.08
25.59
14.37
4.88
-2.66
-8.19
-11.8
-13.76
-14.59
-15.06
-16.1
-18.55
-22.95
-29.37
-37.45
-46.56
-56.05
-65.35
-74.01
-81.52
-87.14
-89.89
-88.68
-82.75
-72.02
-57.35
-40.29
-22.68
-6.11
8.41
20.51
30.27
37.96
43.93
48.48
51.83
54.08
55.16
54.83
52.86
49.15
43.84
37.39
30.53
24.21
19.49
17.37
18.45
22.61
28.84
35.44
40.48
42.47
40.81
35.82
28.47
19.87
11.0
2.58
-4.83
-10.75
-14.8
-16.84
-17.05
-15.85
-13.78
-11.33
-8.86
-6.53
-4.32
-2.1
0.3
3.03
6.12
9.42
12.74
15.89
18.87
21.86
25.1
28.73
32.55
36.12
38.85
40.35
40.62
40.09
39.36
39.01
39.26
39.97
40.69
40.89
40.16
38.28
35.3
31.45
27.15
22.91
19.22
16.51
14.92
14.36
14.43
14.55
14.12
12.73
10.23
6.72
2.48
-2.23
-7.35
-12.95
-19.22
-26.26
-33.93
-41.81
-49.39
-56.25
-62.32
-67.85
-73.33
-79.13
-85.24
-91.09
-95.63
-97.57
-95.8
-89.83
-80.01
-67.5
-54.05
-41.45
-31.2
-24.13
-20.31
-19.16
-19.71
-20.84
-21.52
-21.06
-19.13
-15.76
-11.3
-6.25
-1.14
3.47
7.16
9.63
10.93
11.44
11.96
13.42
16.64
21.92
28.89
36.53
43.56
48.81
51.58
51.71
49.39
44.91
38.4
29.96
19.71
8.07
-4.34
-16.75
-28.54
-39.29
-48.72
-56.63
-62.78
-67.01
-69.33
-69.95
-69.13
-66.98
-63.31
-57.79
-50.29
-41.24
-31.69
-23.08
-16.63
-13.0
-12.05
-13.2
-15.73
-19.13
-23.1
-27.31
-31.19
-33.88
-34.48
-32.43
-27.85
-21.45
-14.28
-7.11
-0.11
7.21
15.59
25.39
36.25
47.06
56.3
62.57
64.94
63.1
57.2
47.71
35.32
21.04
6.18
-7.8
-19.58
-28.37
-34.08
-37.27
-38.8
-39.42
-39.58
-39.39
-38.88
-38.17
-37.5
-37.12
-37.05
-36.95
-36.24
-34.29
-30.87
-26.23
-20.96
-15.73
-10.97
-6.78
-3.09
0.11
2.67
4.39
5.22
5.41
5.41
5.68
6.42
7.53
8.67
9.59
10.27
10.99
12.13
13.94
16.42
19.34
22.38
25.27
27.93
30.45
32.98
35.59
38.29
40.97
43.49
45.77
47.84
49.81
51.82
53.88
55.85
57.39
58.07
57.53
55.59
52.3
47.89
42.54
36.26
28.85
20.06
9.87
-1.3
-12.58
-22.93
-31.5
-37.95
-42.54
-45.93
-48.91
-52.0
-55.28
-58.4
-60.71
-61.66
-60.91
-58.57
-55.02
-50.78
-46.27
-41.74
-37.27
-32.94
-28.96
-25.66
-23.45
-22.56
-23.02
-24.53
-26.57
-28.42
-29.28
-28.41
-25.23
-19.5
-11.39
-1.56
9.0
19.12
27.71
34.02
37.66
38.77
37.8
35.4
32.3
29.13
26.39
24.39
23.23
22.83
22.91
23.18
23.29
23.03
22.25
20.87
18.88
16.29
13.25
10.05
7.12
4.88
3.62
3.4
4.08
5.4
7.05
8.79
10.41
11.73
12.6
12.98
12.97
12.75
12.47
12.15
11.55
10.26
7.91
4.39
0.0
-4.64
-8.87
-12.2
-14.59
-16.28
-17.62
-18.83
-19.8
-20.18
-19.51
-17.45
-13.85
-8.84
-2.75
3.98
10.82
17.35
23.29
28.61
33.48
38.03
42.25
45.89
48.6
50.12
50.39
49.64
48.17
46.23
43.93
41.25
38.09
34.38
30.02
24.91
18.86
11.73
3.46
-5.69
-15.23
-24.5
-32.8
-39.61
-44.6
-47.72
-49.12
-49.02
-47.73
-45.58
-42.97
-40.33
-38.15
-36.77
-36.36
-36.76
-37.55
-38.09
-37.72
-35.9
-32.22
-26.53
-18.95
-9.79
0.43
11.06
21.39
30.77
38.61
44.54
48.34
50.06
49.9
48.05
44.65
39.83
33.98
27.98
23.28
21.54
24.04
31.0
41.34
53.08
63.99
72.37
77.38
78.84
76.89
71.73
63.6
53.09
41.18
29.16
18.11
8.52
0.07
-8.08
-16.72
-26.18
-36.02
-45.23
-52.61
-57.19
-58.52
-56.69
-52.19
-45.65
-37.7
-28.87
-19.67
-10.72
-2.62
4.07
9.05
12.36
14.39
15.72
17.03
18.91
21.81
26.04
31.69
38.61
46.43
54.59
62.46
69.43
74.98
78.69
80.3
79.75
77.15
72.83
67.24
60.82
53.92
46.75
39.36
31.63
23.39
14.5
5.01
-4.75
-14.16
-22.46
-29.05
-33.78
-37.13
-40.04
-43.54
-48.34
-54.53
-61.63
-68.93
-75.83
-81.99
-87.39
-92.02
-95.77
-98.33
-99.31
-98.45
-95.74
-91.44
-85.91
-79.46
-72.26
-64.41
-56.05
-47.47
-39.06
-31.24
-24.31
-18.24
-12.64
-6.84
-0.07
8.19
18.07
29.12
40.5
51.14
60.18
67.06
71.69
74.34
75.45
75.55
75.09
74.39
73.64
72.88
71.96
70.61
68.45
65.12
60.36
54.0
46.05
36.68
26.15
14.87
3.33
-7.86
-18.1
-26.83
-33.7
-38.61
-41.72
-43.43
-44.22
-44.54
-44.6
-44.44
-43.88
-42.7
-40.7
-37.85
-34.25
-30.18
-26.05
-22.42
-19.81
-18.61
-18.92
-20.38
-22.36
-23.97
-24.37
-22.89
-19.1
-12.92
-4.59
5.35
16.09
26.63
35.94
43.17
47.77
49.6
48.89
46.19
42.25
37.91
33.92
30.81
28.78
27.69
27.14
26.59
25.59
23.82
21.2
17.75
13.6
8.79
3.34
-2.72
-9.19
-15.66
-21.58
-26.35
-29.5
-30.93
-30.81
-29.54
-27.56
-25.14
-22.39
-19.23
-15.49
-11.1
-6.15
-0.94
4.18
8.75
12.45
15.06
16.42
16.46
15.14
12.55
8.95
4.8
0.73
-2.56
-4.49
-4.7
-3.14
-0.02
4.24
9.09
13.94
18.23
21.46
23.21
23.23
21.5
18.26
14.08
9.67
5.81
3.08
1.75
1.67
2.38
3.25
3.64
3.08
1.32
-1.63
-5.56
-10.12
-14.9
-19.45
-23.32
-26.13
-27.6
-27.68
-26.59
-24.83
-23.08
-22.0
-22.03
-23.24
-25.3
-27.6
-29.47
-30.34
-29.96
-28.42
-26.12
-23.73
-21.97
-21.46
-22.53
-25.06
-28.42
-31.62
-33.58
-33.47
-30.98
-26.37
-20.3
-13.55
-6.73
-0.22
5.87
11.55
16.8
21.55
25.68
29.1
31.75
33.68
34.98
35.82
36.37
36.71
36.82
36.53
35.61
33.86
31.2
27.63
23.26
18.18
12.5
6.32
-0.23
-7.05
-13.95
-20.63
-26.65
-31.41
-34.21
-34.54
-32.22
-27.61
-21.54
-15.07
-9.08
-4.05
0.05
3.63
7.14
10.95
15.15
19.63
24.14
28.32
31.77
34.07
34.92
34.17
31.93
28.49
24.31
19.81
15.3
10.99
6.93
3.16
-0.29
-3.33
-5.96
-8.23
-10.36
-12.72
-15.69
-19.62
-24.52
-29.99
-35.29
-39.39
-41.3
-40.32
-36.18
-29.14
-19.81
-9.09
1.97
12.25
20.56
25.84
27.32
24.77
18.7
10.21
0.7
-8.52
-16.54
-22.92
-27.59
-30.68
-32.35
-32.77
-32.16
-30.81
-29.14
-27.48
-26.06
-24.91
-23.9
-22.87
-21.78
-20.81
-20.43
-21.2
-23.49
-27.19
-31.59
-35.57
-37.99
-38.18
-36.18
-32.59
-28.2
-23.49
-18.48
-12.82
-6.12
1.7
10.29
18.94
26.86
33.49
38.6
42.25
44.65
46.01
46.42
45.91
44.52
42.38
39.8
37.09
34.5
32.07
29.61
26.78
23.23
18.82
13.56
7.64
1.24
-5.55
-12.62
-19.78
-26.61
-32.43
-36.46
-38.13
-37.25
-34.19
-29.73
-24.87
-20.48
-17.11
-14.85
-13.43
-12.38
-11.17
-9.43
-7.0
-3.91
-0.37
3.36
6.98
10.24
12.93
14.88
16.03
16.48
16.51
16.47
16.65
17.21
18.06
18.99
19.78
20.31
20.64
20.94
21.39
22.07
22.96
23.92
24.82
25.48
25.78
25.62
25.03
24.12
23.17
22.51
22.44
23.05
24.14
25.33
26.03
25.68
23.87
20.41
15.34
8.96
1.7
-5.87
-13.08
-19.33
-24.19
-27.55
-29.74
-31.4
-33.24
-35.67
-38.63
-41.61
-43.93
-45.06
-44.89
-43.74
-42.07
-40.2
-38.13
-35.54
-32.07
-27.63
-22.48
-17.32
-13.04
-10.44
-9.96
-11.54
-14.59
-18.12
-21.04
-22.39
-21.53
-18.28
-12.75
-5.35
3.38
12.95
22.9
32.82
42.25
50.72
57.69
62.69
65.41
65.85
64.38
61.63
58.32
55.1
52.32
49.98
47.8
45.34
42.15
37.85
32.19
25.04
16.48
6.82
-3.45
-13.72
-23.4
-32.13
-39.72
-46.24
-51.86
-56.76
-61.04
-64.73
-67.72
-69.84
-70.79
-70.23
-67.79
-63.23
-56.56
-48.06
-38.3
-27.93
-17.62
-7.89
0.81
8.13
13.76
17.49
19.32
19.48
18.45
16.84
15.22
13.99
13.32
13.25
13.81
15.01
16.88
19.34
22.16
24.97
27.42
29.23
30.28
30.57
30.11
28.86
26.68
23.4
18.98
13.59
7.6
1.5
-4.23
-9.29
-13.53
-16.89
-19.41
-21.1
-22.01
-22.27
-22.14
-21.97
-22.09
-22.71
-23.86
-25.45
-27.36
-29.6
-32.15
-35.02
-38.03
-40.81
-42.92
-44.01
-43.9
-42.56
-39.97
-36.05
-30.7
-24.0
-16.34
-8.42
-0.96
5.66
11.52
17.11
22.9
29.04
35.2
40.8
45.31
48.57
50.77
52.25
53.23
53.75
53.67
52.89
51.55
49.93
48.4
47.21
46.35
45.59
44.67
43.43
41.94
40.53
39.53
39.08
39.01
38.68
37.27
33.95
28.19
19.97
9.78
-1.43
-12.51
-22.41
-30.35
-36.12
-40.05
-42.82
-45.18
-47.64
-50.29
-52.85
-54.81
-55.69
-55.13
-52.98
-49.13
-43.56
-36.31
-27.64
-18.05
-8.21
1.19
9.77
17.55
24.87
32.14
39.41
46.29
51.89
55.26
55.79
53.55
49.36
44.5
40.26
37.46
36.28
36.24
36.56
36.47
35.49
33.5
30.71
27.48
24.12
20.9
17.96
15.38
13.18
11.3
9.51
7.37
4.36
0.06
-5.59
-12.2
-19.06
-25.43
-30.89
-35.39
-39.25
-42.78
-46.09
-48.96
-50.95
-51.66
-50.86
-48.6
-45.08
-40.65
-35.76
-31.0
-26.99
-24.27
-23.08
-23.27
-24.37
-25.8
-27.12
-28.12
-28.85
-29.45
-30.0
-30.49
-30.8
-30.83
-30.44
-29.63
-28.39
-26.78
-24.77
-22.26
-19.08
-15.04
-10.06
-4.3
1.8
7.66
12.65
16.39
18.81
20.08
20.46
20.08
18.94
16.94
14.13
10.74
7.19
3.84
0.78
-2.19
-5.57
-9.84
-15.37
-22.26
-30.27
-38.83
-46.93
-53.32
-56.73
-56.33
-52.11
-44.95
-36.29
-27.53
-19.57
-12.63
-6.55
-1.16
3.53
7.36
10.29
12.69
15.19
18.43
22.73
27.92
33.36
38.27
42.01
44.25
45.09
45.0
44.68
44.85
46.1
48.68
52.52
57.21
62.17
66.8
70.56
73.06
73.98
73.2
70.79
67.06
62.48
57.5
52.42
47.26
41.77
35.56
28.19
19.36
8.97
-2.79
-15.42
-28.1
-39.84
-49.62
-56.54
-60.07
-60.13
-57.2
-52.23
-46.47
-41.15
-37.17
-34.89
-34.14
-34.39
-35.01
-35.5
-35.6
-35.21
-34.28
-32.74
-30.61
-28.04
-25.35
-22.94
-21.12
-19.96
-19.28
-18.7
-17.86
-16.53
-14.68
-12.5
-10.27
-8.26
-6.6
-5.33
-4.37
-3.58
-2.79
-1.85
-0.59
1.18
3.58
6.62
10.12
13.73
17.04
19.7
21.49
22.4
22.44
21.64
19.95
17.38
14.07
10.34
6.74
3.8
1.85
0.83
0.33
-0.22
-1.35
-3.29
-5.91
-8.81
-11.51
-13.65
-15.11
-15.94
-16.25
-16.04
-15.19
-13.59
-11.29
-8.56
-5.8
-3.39
-1.43
0.21
1.89
3.86
6.23
8.87
11.65
14.51
17.56
20.94
24.69
28.59
32.17
34.9
36.35
36.34
34.92
32.31
28.79
24.67
20.3
16.06
12.35
9.58
7.99
7.66
8.45
10.03
11.95
13.7
14.82
14.9
13.68
11.02
6.98
1.81
-4.15
-10.44
-16.53
-21.92
-26.1
-28.67
-29.37
-28.14
-25.26
-21.32
-17.23
-13.93
-12.2
-12.32
-13.98
-16.33
-18.26
-18.79
-17.49
-14.64
-11.23
-8.62
-8.09
-10.41
-15.62
-22.95
-31.17
-38.87
-44.76
-47.9
-47.79
-44.38
-38.14
-29.94
-20.86
-12.0
-4.11
2.53
8.13
13.12
17.94
22.78
27.55
31.99
35.75
38.59
40.44
41.37
41.63
41.54
41.44
41.49
41.62
41.41
40.29
37.66
33.1
26.45
17.91
7.9
-2.97
-13.97
-24.26
-33.05
-39.7
-43.87
-45.59
-45.25
-43.43
-40.75
-37.73
-34.72
-31.92
-29.32
-26.76
-23.95
-20.61
-16.55
-11.87
-6.86
-1.93
2.54
6.34
9.5
12.17
14.5
16.55
18.28
19.66
20.69
21.53
22.36
23.29
24.23
24.95
25.26
25.13
24.92
25.2
26.45
28.78
31.68
34.2
35.27
34.2
30.86
25.67
19.21
12.0
4.29
-3.69
-11.57
-18.66
-24.15
-27.47
-28.48
-27.61
-25.6
-23.13
-20.56
-17.97
-15.29
-12.55
-9.95
-7.68
-5.76
-3.9
-1.59
1.64
5.96
11.05
16.27
20.8
24.04
25.84
26.44
26.31
25.77
24.83
23.16
20.37
16.29
11.19
5.66
0.36
-4.35
-8.47
-12.24
-15.91
-19.35
-22.15
-23.69
-23.5
-21.42
-17.72
-12.94
-7.72
-2.63
1.95
5.8
8.86
11.2
12.89
13.99
14.48
14.27
13.15
10.73
6.5
-0.06
-9.14
-20.33
-32.49
-43.93
-52.91
-58.23
-59.58
-57.55
-53.41
-48.56
-44.22
-41.12
-39.53
-39.19
-39.47
-39.43
-38.03
-34.51
-28.64
-20.88
-12.25
-3.98
2.9
7.94
11.29
13.56
15.53
17.83
20.82
24.47
28.5
32.49
36.06
38.97
41.27
43.2
45.17
47.45
50.07
52.68
54.66
55.38
54.43
51.9
48.29
44.33
40.68
37.62
35.04
32.43
29.26
25.16
20.08
14.34
8.36
2.55
-2.84
-7.78
-12.31
-16.46
-20.17
-23.32
-25.76
-27.4
-28.29
-28.62
-28.68
-28.83
-29.22
-29.89
-30.53
-30.79
-30.4
-29.39
-28.13
-27.09
-26.6
-26.51
-26.22
-24.85
-21.71
-16.6
-9.94
-2.61
4.47
10.61
15.48
19.04
21.35
22.43
22.33
21.16
19.28
17.27
15.79
15.35
16.07
17.72
19.76
21.59
22.69
22.74
21.59
19.26
15.94
11.93
7.66
3.65
0.24
-2.37
-4.27
-5.66
-6.67
-7.22
-7.06
-5.9
-3.68
-0.69
2.45
5.09
6.74
7.19
6.5
4.87
2.58
-0.05
-2.61
-4.62
-5.8
-6.31
-6.88
-8.58
-12.41
-18.65
-26.55
-34.53
-40.61
-43.17
-41.5
-35.87
-27.34
-17.27
-6.91
2.86
11.46
18.59
24.04
27.74
29.8
30.55
30.44
30.02
29.68
29.59
29.63
29.42
28.57
26.74
23.88
20.14
15.79
11.02
5.84
0.1
-6.35
-13.49
-20.9
-27.93
-33.85
-38.21
-41.0
-42.66
-43.82
-45.02
-46.47
-47.93
-48.98
-49.15
-48.25
-46.32
-43.63
-40.46
-37.02
-33.47
-30.0
-26.93
-24.64
-23.49
-23.55
-24.54
-25.82
-26.59
-26.16
-24.18
-20.7
-16.11
-10.97
-5.84
-1.1
3.04
6.55
9.37
11.43
12.66
13.15
13.19
13.33
14.22
16.26
19.46
23.34
27.23
30.52
32.94
34.58
35.66
36.28
36.18
34.83
31.6
26.18
18.79
10.21
1.52
-6.31
-12.73
-17.82
-22.0
-25.82
-29.5
-32.83
-35.27
-36.27
-35.58
-33.36
-30.02
-25.96
-21.35
-16.15
-10.26
-3.65
3.5
11.02
18.87
27.27
36.59
47.05
58.49
70.25
81.37
90.86
98.06
102.77
105.14
105.44
103.78
100.05
94.02
85.53
74.77
62.34
49.25
36.64
25.53
16.62
10.22
6.23
4.23
3.62
3.68
3.66
2.92
0.98
-2.42
-7.29
-13.49
-20.77
-28.9
-37.53
-46.19
-54.18
-60.63
-64.68
-65.75
-63.83
-59.5
-53.7
-47.46
-41.46
-35.89
-30.53
-25.0
-18.99
-12.45
-5.49
1.59
8.43
14.57
19.41
22.26
22.64
20.57
16.68
12.19
8.41
6.35
6.33
7.97
10.45
12.96
14.95
16.32
17.18
17.73
18.05
18.17
18.18
18.33
19.11
21.07
24.61
29.77
36.19
43.2
50.05
56.13
60.98
64.19
65.28
63.71
58.99
51.05
40.4
28.21
15.98
5.11
-3.49
-9.73
-14.1
-17.49
-20.73
-24.34
-28.47
-32.98
-37.75
-42.76
-48.17
-54.12
-60.61
-67.32
-73.71
-79.11
-82.98
-85.09
-85.51
-84.5
-82.35
-79.2
-74.97
-69.52
-62.72
-54.7
-45.82
-36.61
-27.67
-19.43
-12.12
-5.68
0.04
5.23
9.95
14.12
17.74
20.9
23.87
27.1
30.9
35.37
40.27
45.06
49.14
52.07
53.7
54.18
53.88
53.22
52.51
51.88
51.22
50.15
48.23
45.08
40.6
35.07
29.11
23.38
18.42
14.41
11.19
8.41
5.7
2.7
-0.88
-5.47
-11.47
-19.3
-29.15
-40.8
-53.63
-66.69
-79.03
-89.86
-98.75
-105.58
-110.39
-113.16
-113.67
-111.6
-106.62
-98.71
-88.28
-76.13
-63.3
-50.8
-39.41
-29.62
-21.64
-15.55
-11.25
-8.47
-6.69
-5.16
-2.99
0.6
6.11
13.5
22.27
31.59
40.54
48.34
54.5
58.85
61.4
62.3
61.61
59.35
55.46
49.93
42.87
34.57
25.48
16.12
7.0
-1.43
-8.83
-14.86
-19.22
-21.63
-21.95
-20.39
-17.55
-14.3
-11.48
-9.6
-8.64
-8.15
-7.6
-6.73
-5.57
-4.44
-3.5
-2.52
-0.97
1.83
6.23
12.13
19.0
26.17
33.19
39.95
46.64
53.42
60.23
66.64
71.92
75.14
75.41
72.08
65.04
54.9
42.92
30.68
19.51
10.02
1.95
-5.51
-13.23
-21.46
-29.82
-37.48
-43.74
-48.5
-52.22
-55.69
-59.48
-63.73
-68.08
-71.93
-74.8
-76.49
-77.08
-76.75
-75.62
-73.69
-70.91
-67.58
-64.48
-62.82
-63.8
-68.09
-75.27
-83.89
-91.79
-96.9
-97.61
-93.15
-83.42
-68.85
-50.46
-29.71
-8.62
10.6
26.1
36.75
42.44
43.8
41.97
38.1
33.28
28.5
24.54
21.87
20.59
20.35
20.76
21.69
23.48
26.7
31.76
38.48
46.1
53.5
59.65
63.91
65.98
65.73
63.09
58.15
51.41
43.89
36.95
31.79
28.99
28.24
28.57
28.91
28.57
27.41
25.75
23.94
22.12
20.2
18.06
15.79
13.82
12.67
12.7
13.7
14.96
15.44
14.24
11.14
6.66
1.95
-1.72
-3.51
-3.29
-1.58
0.86
3.44
5.99
8.71
11.9
15.61
19.48
22.83
24.89
25.14
23.52
20.43
16.61
12.92
10.09
8.56
8.38
9.3
10.84
12.45
13.56
13.62
12.12
8.74
3.4
-3.61
-11.68
-19.98
-27.64
-33.95
-38.4
-40.77
-41.03
-39.44
-36.51
-32.93
-29.46
-26.7
-24.9
-23.89
-23.26
-22.55
-21.52
-20.23
-18.96
-18.07
-17.8
-18.2
-19.18
-20.61
-22.32
-24.25
-26.27
-28.22
-29.78
-30.55
-30.13
-28.11
-24.2
-18.1
-9.61
1.22
13.92
27.48
40.58
51.87
60.48
66.29
69.86
72.14
73.94
75.66
77.14
77.97
77.72
76.23
73.57
69.93
65.4
59.97
53.55
46.22
38.31
30.43
23.35
17.66
13.54
10.66
8.36
5.88
2.79
-0.81
-4.38
-7.19
-8.6
-8.38
-6.73
-4.21
-1.5
0.73
1.96
1.83
0.09
-3.4
-8.71
-15.87
-24.74
-34.96
-45.87
-56.42
-65.4
-71.59
-74.11
-72.56
-67.11
-58.35
-47.08
-34.11
-20.23
-6.15
7.42
19.79
30.3
38.48
44.09
47.23
48.2
47.4
45.2
41.85
37.5
32.29
26.34
19.8
12.86
5.72
-1.45
-8.42
-14.88
-20.45
-24.78
-27.67
-29.16
-29.56
-29.34
-29.02
-29.06
-29.72
-31.07
-32.95
-35.05
-36.9
-37.95
-37.68
-35.64
-31.56
-25.41
-17.48
-8.38
0.9
9.1
14.89
17.23
15.67
10.55
2.93
-5.69
-13.81
-20.31
-24.6
-26.58
-26.41
-24.36
-20.69
-15.73
-9.95
-3.89
1.83
6.81
10.87
14.19
17.08
19.92
22.95
26.27
29.89
33.73
37.72
41.69
45.28
47.92
48.82
47.27
42.79
35.5
26.01
15.39
4.78
-4.94
-13.34
-20.52
-26.81
-32.59
-37.96
-42.82
-46.91
-49.92
-51.6
-51.61
-49.45
-44.41
-35.8
-23.35
-7.61
9.96
27.17
41.74
51.9
56.83
56.78
52.77
46.19
38.42
30.65
23.94
19.31
17.81
20.18
26.69
36.84
49.41
62.86
75.73
87.07
96.48
103.91
109.36
112.76
114.17
113.95
112.91
112.13
112.41
113.96
116.11
117.43
116.01
109.79
97.27
78.02
53.17
25.43
-1.59
-24.51
-41.47
-52.72
-60.36
-67.2
-75.42
-85.7
-97.25
-108.59
-118.54
-126.76
-133.66
-139.88
-145.69
-150.71
-153.95
-154.29
-150.91
-143.65
-133.08
-120.31
-106.56
-92.94
-80.26
-69.08
-59.85
-53.02
-48.85
-47.31
-47.79
-49.22
-50.26
-49.79
-47.3
-43.13
-38.19
-33.68
-30.52
-29.08
-29.13
-30.04
-31.09
-31.68
-31.54
-30.64
-29.12
-27.17
-25.04
-22.97
-21.26
-20.24
-20.22
-21.43
-23.99
-27.98
-33.37
-39.81
-46.41
-51.7
-53.93
-51.71
-44.67
-33.72
-20.73
-7.75
3.75
13.27
21.02
27.21
31.65
33.62
32.37
27.72
20.43
11.91
3.7
-3.1
-8.14
-11.59
-13.81
-14.91
-14.53
-11.96
-6.33
3.0
16.13
32.54
51.12
70.5
89.45
107.27
123.9
139.7
154.98
169.62
182.73
192.94
198.8
199.46
195.01
186.53
175.81
164.76
154.76
146.28
138.57
129.63
116.46
95.7
64.74
22.97
-27.19
-80.1
-128.08
-163.47
-181.15
-180.1
-163.47
-137.14
-107.48
-79.33
-55.18
-35.57
-20.09
-8.56
-1.38
0.7
-2.79
-11.49
-24.15
-38.92
-53.97
-67.86
-79.67
-88.58
-93.62
-93.53
-87.03
-73.58
-53.89
-30.11
-5.37
17.25
35.71
49.54
59.78
68.16
76.29
84.81
93.26
100.25
104.01
103.13
97.01
86.14
72.01
56.6
42.01
29.78
20.73
14.83
11.42
9.57
8.35
7.11
5.42
3.11
0.1
-3.7
-8.39
-14.05
-20.65
-27.98
-35.66
-43.17
-50.06
-56.11
-61.32
-65.89
-69.96
-73.26
-74.99
-73.83
-68.34
-57.44
-40.81
-19.03
6.63
34.53
62.96
90.2
114.52
134.15
147.46
153.42
151.99
144.41
132.87
120.0
108.15
98.72
91.87
86.56
81.03
73.38
62.48
48.4
32.6
17.42
5.27
-2.26
-4.85
-3.26
1.19
7.4
14.75
23.02
31.95
40.93
49.01
55.26
59.12
60.48
59.55
56.38
50.69
41.93
29.63
13.83
-4.56
-23.71
-41.25
-54.84
-62.87
-65.05
-62.56
-57.73
-53.37
-51.93
-54.92
-62.78
-74.98
-90.47
-107.78
-125.12
-140.38
-151.41
-156.48
-154.91
-147.38
-135.84
-122.78
-110.38
-99.86
-91.27
-83.85
-76.72
-69.47
-62.38
-56.34
-52.37
-51.09
-52.43
-55.55
-59.23
-62.23
-63.74
-63.41
-61.35
-57.89
-53.44
-48.5
-43.65
-39.48
-36.44
-34.61
-33.5
-32.21
-29.77
-25.51
-19.42
-12.11
-4.59
2.14
7.31
10.65
12.28
12.66
12.39
12.05
11.97
12.21
12.54
12.67
12.41
11.87
11.37
11.23
11.53
12.0
12.26
12.08
11.61
11.37
11.99
13.66
15.92
17.6
17.14
13.17
4.92
-7.38
-22.61
-38.91
-54.11
-66.18
-73.54
-75.18
-70.77
-60.61
-45.61
-27.18
-7.17
12.5
30.12
44.6
55.49
62.94
67.39
69.27
68.96
66.8
63.26
59.01
54.78
51.02
47.72
44.37
40.18
34.52
27.25
18.81
10.02
1.8
-5.26
-11.06
-15.87
-20.17
-24.31
-28.35
-32.06
-35.06
-37.01
-37.7
-37.08
-35.17
-32.05
-27.9
-23.07
-18.15
-13.75
-10.44
-8.5
-7.96
-8.85
-11.38
-16.01
-23.24
-33.17
-45.1
-57.47
-68.22
-75.44
-77.84
-75.11
-67.68
-56.47
-42.51
-26.87
-10.66
4.97
18.87
30.15
38.41
43.8
47.0
48.91
50.29
51.55
52.65
53.28
53.08
51.95
50.16
48.33
47.22
47.44
49.21
52.3
56.12
59.84
62.56
63.41
61.69
56.97
49.19
38.66
26.1
12.48
-1.03
-13.28
-23.33
-30.63
-35.14
-37.38
-38.19
-38.47
-38.87
-39.69
-40.86
-42.17
-43.49
-44.81
-46.29
-48.12
-50.46
-53.48
-57.3
-61.96
-67.17
-72.12
-75.48
-75.64
-71.27
-61.88
-48.13
-31.74
-14.94
0.22
12.55
21.79
28.41
33.11
36.32
38.17
38.59
37.65
35.77
33.61
31.85
30.89
30.62
30.59
30.24
29.21
27.51
25.4
23.2
21.06
18.9
16.45
13.44
9.8
5.7
1.51
-2.34
-5.55
-7.95
-9.53
-10.22
-9.89
-8.32
-5.3
-0.73
5.26
12.31
19.88
27.28
33.81
38.81
41.8
42.59
41.31
38.4
34.52
30.46
26.9
24.38
23.21
23.43
24.95
27.53
30.91
34.87
39.24
43.8
48.21
52.04
54.75
55.92
55.29
52.93
49.2
44.63
39.85
35.41
31.67
28.75
26.48
24.51
22.38
19.67
16.15
11.87
7.17
2.56
-1.48
-4.64
-6.92
-8.58
-10.01
-11.55
-13.31
-15.16
-16.85
-18.19
-19.17
-20.07
-21.32
-23.37
-26.49
-30.75
-35.97
-41.83
-47.95
-54.09
-60.08
-65.93
-71.69
-77.46
-83.26
-89.03
-94.46
-98.87
-101.25
-100.32
-94.99
-84.71
-69.88
-51.91
-32.8
-14.52
1.56
14.97
25.89
34.83
42.12
47.84
51.97
54.56
55.91
56.45
56.53
56.21
55.24
53.34
50.39
46.58
42.31
37.9
33.46
28.68
23.07
16.1
7.58
-2.31
-12.92
-23.31
-32.43
-39.35
-43.46
-44.61
-43.03
-39.29
-34.07
-28.03
-21.64
-15.27
-9.22
-3.78
0.69
3.84
5.34
5.08
3.15
-0.05
-3.93
-7.79
-10.91
-12.64
-12.54
-10.37
-6.17
-0.36
6.44
13.44
19.97
25.69
30.61
34.88
38.52
41.17
42.15
40.76
36.78
30.69
23.59
16.82
11.43
7.86
5.95
5.17
4.99
5.11
5.37
5.65
5.72
5.14
3.54
0.77
-2.95
-7.04
-10.83
-13.83
-15.89
-17.24
-18.28
-19.32
-20.42
-21.33
-21.56
-20.59
-18.11
-14.16
-9.22
-4.11
0.15
2.65
2.8
0.45
-4.03
-9.88
-16.07
-21.55
-25.37
-26.84
-25.67
-21.95
-16.17
-9.03
-1.39
5.96
12.41
17.61
21.46
24.04
25.49
25.86
25.16
23.54
21.39
19.48
18.72
19.81
22.9
27.39
32.21
36.18
38.57
39.22
38.53
37.06
35.19
33.06
30.53
27.38
23.43
18.55
12.62
5.61
-2.3
-10.57
-18.29
-24.3
-27.59
-27.62
-24.61
-19.53
-13.79
-8.73
-5.16
-3.06
-1.8
-0.47
1.44
3.99
6.71
9.12
11.05
12.69
14.5
16.67
18.89
20.47
20.72
19.41
16.96
14.19
11.91
10.55
9.95
9.68
9.17
8.08
6.26
3.82
1.0
-1.83
-4.3
-6.09
-6.97
-6.9
-5.99
-4.44
-2.47
-0.32
1.74
3.42
4.39
4.36
3.19
0.86
-2.49
-6.57
-11.01
-15.42
-19.48
-22.98
-25.92
-28.42
-30.71
-32.85
-34.66
-35.72
-35.45
-33.43
-29.59
-24.29
-18.29
-12.49
-7.72
-4.54
-3.17
-3.63
-5.77
-9.37
-14.11
-19.42
-24.4
-27.99
-29.1
-26.96
-21.41
-12.9
-2.34
9.12
20.42
30.71
39.46
46.32
51.21
54.25
55.74
56.11
55.82
55.15
54.14
52.6
50.19
46.7
42.16
36.88
31.34
25.98
20.99
16.34
11.87
7.44
3.1
-1.0
-4.72
-8.07
-11.27
-14.53
-17.82
-20.8
-22.85
-23.42
-22.3
-19.77
-16.46
-13.09
-10.22
-8.24
-7.45
-8.22
-10.96
-15.95
-23.13
-31.99
-41.6
-50.8
-58.35
-62.97
-63.35
-58.33
-47.27
-30.45
-9.44
13.17
34.26
51.16
62.37
67.81
68.64
66.54
63.14
59.39
55.56
51.37
46.47
40.74
34.49
28.33
22.81
18.28
14.65
11.61
8.86
6.28
4.0
2.17
0.83
-0.21
-1.26
-2.5
-3.88
-5.19
-6.19
-6.86
-7.38
-8.06
-9.14
-10.6
-12.29
-13.87
-15.08
-15.73
-15.7
-14.97
-13.6
-11.77
-9.87
-8.48
-8.32
-10.02
-13.99
-20.24
-28.47
-38.05
-48.25
-58.22
-66.99
-73.55
-76.9
-76.29
-71.38
-62.41
-50.13
-35.64
-20.17
-4.8
9.55
22.22
32.75
40.92
46.75
50.5
52.65
53.77
54.31
54.54
54.47
54.0
53.07
51.74
50.19
48.68
47.33
46.02
44.37
41.88
38.09
32.82
26.23
18.77
10.93
3.07
-4.73
-12.56
-20.52
-28.42
-35.73
-41.61
-45.26
-46.17
-44.34
-40.25
-34.63
-28.16
-21.41
-14.76
-8.56
-3.15
1.08
3.86
5.16
5.24
4.67
4.15
4.43
6.11
9.58
14.93
21.93
30.11
38.8
47.24
54.66
60.34
63.69
64.34
62.23
57.67
51.27
43.73
35.62
27.25
18.69
9.9
1.01
-7.67
-15.59
-22.27
-27.51
-31.47
-34.61
-37.36
-39.91
-42.12
-43.69
-44.52
-44.88
-45.37
-46.6
-48.88
-51.96
-55.18
-57.77
-59.15
-59.04
-57.36
-54.11
-49.12
-42.23
-33.47
-23.26
-12.52
-2.5
5.65
11.21
14.19
15.36
15.84
16.63
18.14
20.06
21.51
21.71
20.33
17.86
15.34
13.94
14.45
17.05
21.35
26.77
32.77
39.07
45.64
52.5
59.67
67.04
74.37
81.3
87.35
91.97
94.62
94.83
92.37
87.28
79.82
70.36
59.31
47.1
34.25
21.44
9.41
-1.17
-9.99
-17.2
-23.47
-29.63
-36.39
-44.03
-52.35
-60.78
-68.64
-75.31
-80.32
-83.39
-84.45
-83.67
-81.52
-78.66
-75.74
-73.1
-70.6
-67.64
-63.46
-57.48
-49.62
-40.34
-30.31
-20.1
-9.9
0.45
11.27
22.65
34.24
45.27
54.72
61.65
65.46
65.99
63.49
58.57
52.07
44.97
38.32
33.01
29.57
27.91
27.32
26.71
24.95
21.41
16.08
9.61
2.91
-3.15
-8.05
-11.71
-14.34
-16.21
-17.52
-18.39
-18.87
-19.11
-19.46
-20.37
-22.31
-25.51
-29.78
-34.42
-38.41
-40.7
-40.59
-37.99
-33.44
-27.93
-22.58
-18.33
-15.72
-14.87
-15.54
-17.33
-19.8
-22.54
-25.26
-27.7
-29.66
-30.99
-31.65
-31.66
-31.18
-30.31
-29.1
-27.39
-24.9
-21.21
-15.96
-8.94
-0.2
9.85
20.54
30.91
39.94
46.74
50.72
51.78
50.2
46.59
41.55
35.49
28.62
20.99
12.71
4.03
-4.52
-12.35
-18.85
-23.6
-26.39
-27.28
-26.53
-24.64
-22.24
-20.04
-18.74
-18.88
-20.73
-24.24
-28.97
-34.26
-39.28
-43.3
-45.75
-46.42
-45.15
-41.8
-36.06
-27.5
-15.99
-1.94
13.47
28.62
41.9
52.34
59.72
64.48
67.24
68.37
67.84
65.35
60.82
54.61
47.63
41.02
35.7
31.98
29.49
27.41
24.89
21.44
17.07
12.21
7.4
3.05
-0.66
-3.71
-6.03
-7.43
-7.63
-6.42
-3.8
0.11
5.1
11.06
18.02
26.0
34.71
43.41
50.85
55.61
56.51
52.98
45.27
34.23
21.02
6.75
-7.65
-21.38
-33.64
-43.54
-50.46
-54.3
-55.68
-55.59
-54.73
-52.99
-49.28
-42.24
-31.15
-16.73
-1.1
13.07
23.66
29.89
32.29
31.94
29.57
25.19
18.33
8.85
-2.47
-13.87
-23.25
-28.97
-30.62
-28.95
-25.42
-21.37
-17.35
-13.09
-7.86
-1.14
6.88
15.31
22.99
29.1
33.51
36.65
39.12
41.09
42.21
41.82
39.34
34.67
28.19
20.53
12.31
4.01
-3.94
-10.94
-16.24
-19.13
-19.31
-17.1
-13.39
-9.27
-5.62
-2.85
-0.92
0.35
1.03
0.94
-0.19
-2.55
-6.03
-10.12
-14.14
-17.29
-18.89
-18.46
-15.74
-10.83
-4.15
3.64
11.71
19.33
25.99
31.44
35.52
38.06
38.87
37.77
34.86
30.45
25.06
19.12
12.81
6.09
-1.14
-8.69
-16.09
-22.73
-28.2
-32.5
-35.93
-38.78
-40.93
-41.75
-40.44
-36.56
-30.42
-23.15
-16.29
-11.16
-8.33
-7.57
-8.1
-9.18
-10.42
-11.89
-13.87
-16.53
-19.83
-23.66
-28.12
-33.58
-40.5
-49.02
-58.59
-67.89
-75.27
-79.37
-79.56
-76.03
-69.61
-61.26
-51.97
-42.63
-34.3
-28.11
-25.13
-25.92
-30.26
-37.09
-44.7
-51.31
-55.43
-56.18
-53.3
-47.0
-37.78
-26.27
-13.2
0.61
14.28
26.98
38.02
46.97
53.68
58.22
60.86
61.87
61.63
60.51
58.84
56.9
54.75
52.25
49.06
44.83
39.37
32.85
25.76
18.81
12.66
7.66
3.7
0.21
-3.64
-8.63
-15.14
-22.97
-31.35
-39.14
-45.26
-49.03
-50.33
-49.54
-47.33
-44.41
-41.5
-39.16
-37.81
-37.4
-37.22
-35.81
-31.31
