2013-07-22 15:45:37
64.0
-0.0
-0.0
-0.0
-0.0
-0.0
-0.0
-0.0
-0.0
-0.0
-0.0
0.0
0.01
0.01
-0.0
-0.03
-0.05
-0.05
0.0
0.13
0.36
0.66
1.01
1.37
1.72
2.06
2.4
2.79
3.24
3.8
4.42
5.06
5.66
6.2
6.68
7.15
7.68
8.31
9.14
10.09
11.04
11.88
12.56
13.14
13.76
14.65
15.96
17.91
20.32
22.9
25.38
27.58
29.57
31.68
34.32
37.81
42.54
48.15
54.1
59.83
64.97
69.58
74.14
79.34
85.71
93.76
103.0
112.62
121.73
129.77
136.75
143.3
150.75
157.77
166.64
177.95
191.79
206.97
220.57
228.25
225.36
208.53
176.87
132.76
80.05
23.07
-34.94
-92.44
-149.16
-205.23
-260.37
-313.74
-363.87
-409.83
-450.91
-486.5
-515.74
-537.23
-549.22
-549.96
-538.37
-514.21
-478.67
-433.88
-382.45
-327.02
-269.84
-212.63
-156.66
-102.95
-52.37
-5.9
35.58
71.43
101.35
125.5
144.38
158.69
169.15
176.37
180.75
182.57
182.07
179.51
175.23
169.65
163.18
156.15
148.81
141.3
133.69
126.02
118.33
110.69
103.16
95.8
88.68
81.83
75.25
68.95
62.95
57.25
51.86
46.78
42.03
37.59
33.45
29.61
26.07
22.81
19.83
17.11
14.67
12.48
10.54
8.83
7.35
6.07
4.97
4.05
3.27
2.62
2.09
1.65
1.3
1.01
0.79
0.61
0.48
0.37
0.29
0.24
0.2
0.18
0.18
0.18
0.2
0.22
0.24
0.28
0.31
0.35
0.4
0.44
0.48
0.53
0.58
0.63
0.69
0.75
0.81
0.88
0.96
1.04
1.13
1.24
1.35
1.48
1.63
1.79
1.97
2.17
2.4
2.65
2.92
3.22
3.55
3.92
4.31
4.75
5.21
5.71
6.25
6.84
7.46
8.13
8.83
9.59
10.39
11.23
12.12
13.06
14.04
15.1
16.21
17.39
18.62
19.9
21.16
22.37
23.43
24.24
24.68
24.64
24.0
22.68
20.65
17.91
14.54
10.62
6.34
1.9
-2.49
-6.62
-10.28
-13.35
-15.73
-17.41
-18.42
-18.82
-18.71
-18.19
-17.32
-16.2
-14.89
-13.49
-12.04
-10.61
-9.22
-7.88
-6.59
-5.31
-3.96
-2.53
-1.03
0.51
2.04
3.61
5.12
6.63
8.24
10.07
12.17
14.48
16.85
19.17
21.42
23.41
25.2
27.04
29.14
31.58
34.21
36.73
38.84
40.46
41.31
41.61
41.84
42.43
43.57
44.99
46.14
46.4
45.49
42.9
38.84
33.73
27.99
21.52
13.54
2.54
-13.82
-33.56
-56.78
-83.62
-113.66
-145.33
-175.6
-200.47
-216.08
-220.1
-212.53
-196.35
-175.43
-153.16
-131.41
-110.44
-89.72
-68.92
-48.44
-29.26
-12.88
-0.01
9.5
16.38
21.42
25.16
27.86
29.63
30.74
31.32
31.79
32.61
34.05
36.09
38.37
40.4
41.65
41.88
40.96
39.11
36.7
34.02
31.12
27.79
23.72
18.66
12.68
6.12
-0.4
-6.35
-11.41
-15.69
-19.52
-23.27
-26.99
-30.26
-32.28
-32.14
-29.31
-23.84
-16.39
-7.92
0.62
8.6
15.7
21.73
26.43
29.41
30.24
28.75
25.2
20.35
15.22
10.79
7.65
5.9
5.21
5.01
4.77
4.2
3.28
2.15
1.01
-0.1
-1.32
-2.96
-5.35
-8.69
-13.05
-18.3
-24.15
-30.16
-35.71
-40.1
-42.7
-43.17
-41.75
-39.18
-36.52
-34.78
-34.53
-35.8
-38.25
-41.42
-44.9
-48.29
-51.04
-52.24
-50.8
-45.79
-36.99
-25.14
-11.89
0.72
10.97
18.08
22.49
25.7
29.72
36.42
46.95
61.51
79.41
99.28
119.36
137.71
152.41
161.81
164.88
161.47
152.5
139.7
125.13
110.54
96.92
84.22
71.56
57.74
41.87
23.9
4.92
-13.12
-28.06
-38.23
-43.11
-43.37
-40.43
-35.76
-30.3
-24.42
-18.24
-12.16
-6.99
-3.73
-2.9
-4.08
-5.96
-6.96
-6.15
-3.83
-1.4
-0.66
-2.73
-7.51
-13.68
-19.3
-22.47
-21.96
-17.34
-9.07
1.64
12.97
22.81
29.31
31.57
30.1
26.96
25.1
27.35
35.12
47.6
61.6
72.46
75.67
68.87
53.2
33.26
15.46
5.23
4.54
10.99
19.01
22.58
18.04
5.65
-10.9
-26.55
-37.21
-41.23
-39.46
-34.15
-27.6
-21.35
-16.08
-12.14
-10.01
-10.49
-14.29
-21.45
-30.87
-40.33
-47.28
-49.9
-48.14
-43.98
-40.58
-40.66
-44.95
-51.64
-57.18
-58.02
-52.27
-40.51
-25.15
-9.04
5.72
18.34
28.87
37.53
44.18
48.42
50.01
49.21
46.75
43.54
40.29
37.26
34.37
31.37
28.17
25.07
22.77
22.28
24.41
29.22
35.68
41.83
45.4
44.82
39.78
31.35
21.32
11.28
1.88
-7.28
-17.27
-29.02
-42.73
-57.54
-71.81
-83.61
-91.3
-94.09
-92.21
-86.9
-80.03
-73.51
-68.59
-65.62
-63.99
-62.73
-61.06
-58.89
-56.86
-55.94
-56.89
-59.78
-63.9
-68.03
-70.67
-70.42
-66.07
-56.89
-42.98
-25.63
-7.43
8.34
18.74
22.36
19.87
13.8
7.41
3.34
2.79
5.48
10.19
15.68
21.03
25.75
29.43
31.67
32.19
31.14
29.32
27.93
28.12
30.42
34.51
39.31
43.46
45.78
45.69
43.19
38.83
33.32
27.43
21.77
16.84
12.96
10.26
8.71
8.05
7.91
7.81
7.37
6.31
4.57
2.28
-0.35
-3.12
-5.88
-8.58
-11.2
-13.75
-16.23
-18.66
-21.08
-23.44
-25.57
-27.07
-27.42
-26.09
-22.79
-17.65
-11.2
-4.22
2.48
8.26
12.72
15.65
16.97
16.71
15.09
12.51
9.57
6.97
5.27
4.76
5.34
6.62
8.05
9.12
9.5
9.14
8.18
6.82
5.19
3.31
1.14
-1.41
-4.32
-7.54
-10.94
-14.4
-17.71
-20.58
-22.52
-23.01
-21.63
-18.24
-13.17
-7.12
-1.0
4.35
8.37
10.84
11.83
11.63
10.6
9.15
7.74
6.84
6.84
7.9
9.88
12.33
14.59
16.03
16.28
15.33
13.48
11.18
8.81
6.56
4.43
2.22
-0.26
-3.16
-6.47
-9.99
-13.37
-16.15
-17.79
-17.81
-15.92
-12.09
-6.71
-0.51
5.63
10.87
14.6
16.63
17.11
16.38
14.86
12.86
10.69
8.67
7.12
6.38
6.58
7.66
9.24
10.88
12.11
12.64
12.37
11.35
9.7
7.57
5.15
2.66
0.28
-1.89
-3.94
-6.11
-8.72
-11.89
-15.5
-19.02
-21.7
-22.71
-21.51
-17.99
-12.51
-5.88
0.96
7.13
12.05
15.44
17.3
17.77
17.06
15.45
13.32
11.12
9.35
8.36
8.26
8.87
9.82
10.67
11.09
10.93
10.17
8.89
7.18
5.11
2.76
0.25
-2.19
-4.35
-6.11
-7.51
-8.81
-10.39
-12.56
-15.42
-18.64
-21.6
-23.49
-23.6
-21.57
-17.51
-11.94
-5.67
0.47
5.76
9.76
12.29
13.39
13.19
11.93
9.9
7.41
4.89
2.78
1.49
1.27
2.09
3.69
5.53
7.05
7.81
7.6
6.57
5.09
3.6
2.4
1.52
0.71
-0.44
-2.3
-5.0
-8.45
-12.32
-16.18
-19.57
-22.03
-23.12
-22.46
-19.83
-15.28
-9.21
-2.32
4.51
10.39
14.7
17.06
17.52
16.45
14.43
12.17
10.33
9.36
9.42
10.38
11.83
13.31
14.46
15.14
15.48
15.79
16.36
17.21
18.15
18.8
18.81
17.94
16.08
13.19
9.39
5.18
1.61
0.22
2.45
8.97
19.14
31.11
42.63
51.91
58.12
61.13
60.79
56.38
46.75
31.17
10.24
-13.76
-37.39
-57.33
-71.5
-79.6
-82.72
-82.54
-80.57
-77.77
-74.62
-71.43
-68.53
-66.31
-65.12
-65.08
-66.06
-67.73
-69.7
-71.76
-73.96
-76.6
-80.02
-84.26
-88.81
-92.61
-94.39
-93.16
-88.69
-81.57
-72.96
-64.06
-55.68
-48.13
-41.35
-35.13
-29.27
-23.48
-17.22
-9.65
0.11
12.61
27.7
44.43
61.34
76.93
90.11
100.37
107.65
112.02
113.46
111.76
106.8
98.79
88.4
76.67
64.71
53.36
43.1
34.11
26.52
20.57
16.56
14.72
15.0
16.9
19.7
22.56
24.93
26.56
27.58
28.28
28.89
29.49
29.96
30.1
29.76
28.92
27.73
26.47
25.35
24.46
23.67
22.78
21.57
19.94
17.93
15.72
13.43
11.05
8.47
5.46
1.79
-2.68
-7.88
-13.62
-19.47
-24.86
-29.05
-31.38
-31.34
-28.88
-24.4
-18.68
-12.59
-6.88
-1.93
2.12
5.32
7.69
9.18
9.77
9.57
8.85
8.05
7.62
7.87
8.88
10.42
12.14
13.63
14.57
14.85
14.51
13.75
12.75
11.6
10.3
8.67
6.55
3.83
0.55
-3.02
-6.49
-9.38
-11.32
-12.01
-11.42
-9.64
-6.95
-3.73
-0.39
2.64
5.01
6.45
6.87
6.29
4.88
2.93
0.8
-1.08
-2.38
-2.92
-2.75
-2.17
-1.57
-1.3
-1.49
-2.03
-2.62
-3.01
-3.08
-2.94
-2.85
-3.09
-3.89
-5.28
-7.15
-9.28
-11.39
-13.18
-14.34
-14.59
-13.71
-11.66
-8.6
-4.98
-1.33
1.83
4.09
5.32
5.53
4.93
3.75
2.31
0.99
0.24
0.45
1.81
4.17
7.05
9.77
11.66
12.35
11.82
10.38
8.39
6.2
3.96
1.74
-0.48
-2.66
-4.72
-6.55
-8.15
-9.57
-10.88
-12.03
-12.86
-13.07
-12.35
-10.52
-7.71
-4.36
-1.14
1.24
2.28
1.78
-0.16
-3.16
-6.71
-10.2
-12.94
-14.21
-13.44
-10.37
-5.26
1.12
7.65
13.3
17.38
19.67
20.29
19.38
17.01
13.12
7.77
1.26
-5.8
-12.58
-18.27
-22.2
-24.0
-23.56
-21.04
-16.85
-11.6
-5.96
-0.57
4.08
7.69
10.07
11.08
10.59
8.59
5.3
1.21
-2.97
-6.53
-8.92
-9.93
-9.67
-8.44
-6.52
-4.09
-1.18
2.19
5.85
9.39
12.22
13.7
13.35
11.07
7.16
2.26
-2.81
-7.19
-10.22
-11.49
-10.84
-8.44
-4.71
-0.24
4.26
8.18
11.15
13.1
14.23
14.91
15.46
16.07
16.8
17.61
18.48
19.43
20.5
21.66
22.83
23.88
24.66
25.15
25.4
25.51
25.48
25.22
24.42
22.68
19.56
14.75
8.28
0.65
-7.22
-14.12
-18.89
-20.84
-19.89
-16.74
-12.59
-8.83
-6.67
-6.79
-9.29
-13.74
-19.42
-25.56
-31.62
-37.25
-42.42
-47.27
-52.19
-57.7
-64.36
-72.42
-81.53
-90.58
-97.89
-101.65
-100.63
-94.55
-84.25
-71.31
-57.64
-45.01
-34.69
-27.33
-22.88
-20.62
-19.28
-17.42
-13.83
-7.89
0.25
9.86
19.91
29.4
37.48
43.48
46.94
47.7
46.01
42.55
38.33
34.39
31.4
29.58
28.73
28.47
28.44
28.4
28.21
27.73
26.81
25.27
23.02
20.03
16.28
11.75
6.47
0.72
-4.94
-9.63
-12.43
-12.67
-10.23
-5.62
0.19
5.97
10.53
12.93
12.63
9.67
4.69
-1.09
-6.17
-9.09
-8.89
-5.36
0.93
8.87
17.21
24.91
31.35
36.4
40.34
43.64
46.83
50.21
53.77
57.03
59.13
58.93
55.48
48.35
37.94
25.55
13.0
2.12
-5.77
-10.3
-11.97
-11.91
-11.38
-11.37
-12.41
-14.55
-17.52
-20.9
-24.23
-27.05
-29.01
-29.87
-29.71
-28.84
-27.73
-26.84
-26.39
-26.36
-26.5
-26.55
-26.4
-26.13
-26.05
-26.47
-27.64
-29.48
-31.63
-33.42
-34.0
-32.61
-28.84
-22.72
-14.82
-6.06
2.53
10.03
15.8
19.54
21.29
21.32
20.16
18.4
16.63
15.26
14.44
14.06
13.78
13.21
11.96
9.8
6.68
2.77
-1.59
-5.97
-9.93
-13.2
-15.7
-17.53
-18.84
-19.69
-19.9
-19.07
-16.74
-12.6
-6.77
0.21
7.54
14.39
20.21
24.78
28.12
30.3
31.36
31.3
30.09
27.77
24.49
20.5
16.24
12.33
9.52
8.38
8.99
10.8
12.78
13.9
13.67
12.48
11.32
11.27
12.8
15.5
18.17
19.36
17.94
13.51
6.46
-2.07
-10.54
-17.32
-20.97
-20.68
-16.42
-9.06
-0.15
8.46
15.14
18.83
19.3
17.1
13.31
9.2
5.96
4.43
4.95
7.41
11.28
15.79
20.05
23.22
24.62
23.87
20.88
15.87
9.31
1.82
-5.96
-13.45
-20.21
-25.99
-30.81
-34.8
-38.13
-40.86
-42.76
-43.38
-42.21
-38.95
-33.68
-27.06
-20.02
-13.56
-8.39
-4.74
-2.5
-1.33
-0.95
-1.21
-2.0
-3.18
-4.44
-5.32
-5.39
-4.44
-2.58
-0.14
2.47
4.97
7.36
9.76
12.25
14.67
16.65
17.66
17.28
15.27
11.58
6.31
-0.33
-8.02
-16.11
-23.66
-29.52
-32.7
-32.72
-29.87
-25.08
-19.63
-14.64
-10.8
-8.31
-7.09
-7.01
-8.09
-10.46
-14.16
-18.96
-24.35
-29.64
-34.18
-37.65
-40.06
-41.77
-43.18
-44.62
-46.23
-47.95
-49.67
-51.17
-52.14
-52.09
-50.39
-46.53
-40.34
-32.22
-23.01
-13.65
-4.76
3.53
11.56
19.73
28.15
36.5
44.12
50.34
54.82
57.6
59.07
59.62
59.5
58.78
57.39
55.3
52.7
49.95
47.49
45.68
44.64
44.21
43.96
43.47
42.39
40.64
38.28
35.49
32.41
29.1
25.49
21.42
16.74
11.41
5.51
-0.64
-6.49
-11.32
-14.35
-14.98
-12.93
-8.47
-2.28
4.59
11.1
16.42
20.11
22.1
22.57
21.81
20.15
17.88
15.33
12.86
10.81
9.41
8.76
8.79
9.3
10.08
10.89
11.53
11.8
11.51
10.55
8.94
6.88
4.68
2.75
1.36
0.57
0.19
-0.2
-1.05
-2.7
-5.23
-8.38
-11.6
-14.16
-15.36
-14.64
-11.77
-6.87
-0.44
6.69
13.54
19.17
22.92
24.55
24.3
22.74
20.6
18.54
17.06
16.33
16.32
16.83
17.59
18.32
18.74
18.65
17.89
16.41
14.26
11.66
8.89
6.29
4.07
2.29
0.85
-0.48
-1.86
-3.36
-4.9
-6.39
-7.79
-9.14
-10.59
-12.18
-13.86
-15.39
-16.38
-16.47
-15.37
-13.03
-9.63
-5.61
-1.55
1.9
4.22
5.13
4.65
3.02
0.62
-2.22
-5.26
-8.38
-11.47
-14.42
-17.05
-19.12
-20.48
-21.07
-21.02
-20.53
-19.89
-19.38
-19.24
-19.68
-20.88
-22.97
-25.97
-29.75
-34.06
-38.53
-42.8
-46.55
-49.61
-51.95
-53.72
-55.22
-56.85
-59.02
-62.01
-65.93
-70.6
-75.61
-80.42
-84.43
-87.05
-87.7
-85.9
-81.22
-73.45
-62.59
-49.0
-33.33
-16.44
0.71
17.24
32.47
45.97
57.54
67.22
75.13
81.44
86.34
90.0
92.61
94.3
95.23
95.54
95.48
95.38
95.66
96.73
98.8
101.76
105.1
107.95
109.36
108.64
105.77
101.43
96.91
93.5
92.02
92.32
93.34
93.51
91.37
86.1
77.74
67.04
55.19
43.62
33.63
26.34
22.31
21.31
22.24
23.28
22.56
18.85
12.08
3.38
-5.54
-13.09
-18.57
-22.41
-25.96
-30.91
-38.72
-50.14
-65.02
-82.43
-100.85
-118.45
-133.42
-144.32
-150.31
-151.45
-148.62
-143.22
-136.71
-130.03
-123.35
-116.17
-107.77
-97.83
-86.71
-75.28
-64.51
-54.98
-46.76
-39.74
-34.09
-30.45
-29.56
-31.56
-35.43
-38.99
-39.71
-35.83
-27.14
-15.03
-1.8
10.42
20.32
27.62
32.71
36.07
38.1
39.05
39.22
39.06
39.07
39.51
40.27
40.92
41.03
40.38
39.16
37.84
36.88
36.44
36.26
35.81
34.49
31.99
28.36
23.96
19.27
14.61
10.09
5.54
0.64
-4.98
-11.59
-19.23
-27.63
-36.16
-43.92
-50.0
-53.7
-54.88
-54.0
-52.16
-50.75
-51.14
-54.3
-60.49
-69.14
-79.11
-88.92
-97.27
-103.3
-106.71
-107.5
-105.61
-100.63
-91.82
-78.57
-60.8
-39.37
-15.95
7.46
29.11
47.95
63.63
76.21
85.75
92.07
94.84
93.8
89.06
81.18
71.01
59.5
47.43
35.37
23.77
13.06
3.68
-3.91
-9.42
-12.75
-14.11
-13.94
-12.84
-11.57
-10.92
-11.7
-14.56
-19.79
-27.21
-36.12
-45.53
-54.44
-62.0
-67.57
-70.61
-70.69
-67.55
-61.37
-52.82
-42.86
-32.32
-21.4
-9.58
3.94
19.51
36.43
52.86
66.54
75.73
79.93
80.0
77.59
74.28
71.05
68.14
65.37
62.61
59.92
57.51
55.41
53.33
50.79
47.44
43.34
39.09
35.61
33.72
33.75
35.37
37.85
40.27
42.09
43.18
43.89
44.61
45.55
46.53
47.07
46.63
44.92
42.02
38.3
34.23
30.12
25.98
21.6
16.68
10.99
4.5
-2.68
-10.29
-18.07
-25.67
-32.73
-38.81
-43.46
-46.32
-47.32
-46.72
-45.13
-43.28
-41.74
-40.7
-39.86
-38.61
-36.27
-32.43
-27.08
-20.55
-13.33
-5.82
1.71
9.1
16.2
22.8
28.61
33.38
36.98
39.4
40.63
40.55
38.82
35.03
28.83
20.17
9.48
-2.44
-14.55
-25.92
-35.91
-44.38
-51.59
-57.94
-63.76
-68.96
-73.1
-75.5
-75.59
-73.13
-68.37
-61.88
-54.34
-46.35
-38.35
-30.78
-24.07
-18.57
-14.35
-11.01
-7.62
-3.08
3.45
12.19
22.59
33.56
43.85
52.48
58.91
63.03
64.97
64.99
63.37
60.41
56.36
51.47
45.9
39.74
33.04
25.92
18.62
11.46
4.8
-1.07
-5.98
-9.89
-12.78
-14.62
-15.38
-15.09
-13.93
-12.31
-10.72
-9.67
-9.49
-10.29
-12.01
-14.45
-17.25
-19.9
-21.66
-21.72
-19.44
-14.66
-7.86
-0.06
7.57
14.14
19.33
23.37
26.79
30.06
33.33
36.43
39.06
40.91
41.8
41.6
40.18
37.41
33.28
28.01
22.12
16.36
11.54
8.33
7.12
8.0
10.75
14.94
19.95
24.97
29.19
31.82
32.37
30.6
26.62
20.71
13.24
4.55
-5.0
-15.06
-25.23
-35.06
-44.09
-51.97
-58.48
-63.56
-67.27
-69.78
-71.33
-72.17
-72.55
-72.63
-72.45
-71.93
-70.91
-69.24
-66.84
-63.76
-60.11
-55.95
-51.29
-46.03
-40.03
-33.15
-25.32
-16.5
-6.72
3.87
15.02
26.31
37.27
47.46
56.64
64.78
72.0
78.45
84.17
89.1
93.2
96.55
99.34
101.75
103.72
104.87
104.51
102.01
97.07
90.01
81.66
73.13
65.28
58.42
52.25
45.94
38.61
29.68
19.06
7.08
-5.7
-18.73
-31.47
-43.34
-53.58
-61.35
-65.98
-67.27
-65.75
-62.47
-58.68
-55.48
-53.46
-52.73
-53.05
-54.01
-55.18
-56.16
-56.6
-56.32
-55.29
-53.73
-51.92
-50.17
-48.73
-47.7
-47.17
-47.1
-47.41
-47.8
-47.88
-47.16
-45.31
-42.31
-38.51
-34.6
-31.36
-29.39
-28.87
-29.58
-30.89
-32.02
-32.16
-30.64
-27.05
-21.35
-13.91
-5.49
2.86
9.96
14.86
16.99
16.25
13.03
8.09
2.36
-3.12
-7.42
-9.79
-9.87
-7.8
-4.16
0.16
4.28
7.58
9.9
11.48
12.83
14.4
16.42
18.72
20.76
21.8
21.08
18.15
13.02
6.39
-0.49
-6.06
-8.99
-8.56
-4.93
0.93
7.67
13.99
19.03
22.46
24.29
24.66
23.64
21.24
17.5
12.66
7.24
1.98
-2.27
-4.74
-4.93
-2.78
1.29
6.52
11.96
16.8
20.5
22.89
23.99
23.88
22.53
19.83
15.63
9.91
2.83
-5.26
-13.83
-22.16
-29.47
-34.9
-37.8
-37.82
-35.13
-30.38
-24.59
-18.89
-14.14
-10.81
-8.9
-8.02
-7.68
-7.45
-7.0
-6.07
-4.43
-1.8
1.99
6.95
12.74
18.79
24.43
29.1
32.52
34.58
35.42
35.24
34.31
32.92
31.34
29.79
28.32
26.81
24.99
22.55
19.32
15.4
11.18
7.32
4.55
3.46
4.29
6.89
10.76
15.17
19.46
23.07
25.63
26.87
26.67
25.06
22.25
18.66
14.82
11.2
8.08
5.55
3.52
1.86
0.44
-0.83
-2.01
-3.15
-4.3
-5.47
-6.65
-7.82
-8.97
-10.17
-11.46
-12.87
-14.36
-15.85
-17.31
-18.74
-20.19
-21.61
-22.78
-23.25
-22.52
-20.22
-16.32
-11.14
-5.3
0.44
5.45
9.3
11.74
12.74
12.37
10.87
8.61
6.07
3.76
2.08
1.24
1.22
1.79
2.59
3.25
3.45
3.01
1.84
-0.05
-2.58
-5.63
-9.04
-12.66
-16.29
-19.76
-22.83
-25.27
-26.83
-27.26
-26.38
-24.08
-20.41
-15.59
-9.98
-4.01
1.82
7.13
11.7
15.44
18.41
20.7
22.36
23.34
23.6
23.17
22.22
21.09
20.17
19.79
20.09
20.92
21.91
22.51
22.16
20.43
17.2
12.71
7.54
2.44
-1.92
-5.18
-7.45
-9.19
-11.0
-13.28
-16.03
-18.81
-20.88
-21.53
-20.29
-17.06
-12.18
-6.26
-0.04
5.78
10.61
13.98
15.55
15.12
12.69
8.48
2.95
-3.24
-9.38
-14.81
-19.09
-22.05
-23.72
-24.34
-24.24
-23.7
-23.0
-22.29
-21.62
-20.95
-20.2
-19.28
-18.24
-17.21
-16.41
-16.05
-16.26
-16.93
-17.77
-18.3
-17.91
-16.04
-12.27
-6.48
1.13
10.11
19.79
29.48
38.51
46.34
52.57
57.05
59.85
61.3
61.85
61.98
61.98
61.92
61.66
61.02
59.95
58.62
57.44
56.89
57.32
58.83
61.17
63.76
65.82
66.38
64.48
59.27
50.3
37.74
22.46
5.88
-10.42
-25.15
-37.69
-48.07
-56.67
-63.83
-69.58
-73.63
-75.68
-75.64
-73.76
-70.6
-66.78
-62.87
-59.25
-56.18
-53.72
-51.79
-50.1
-48.25
-45.89
-42.76
-38.8
-34.07
-28.62
-22.58
-16.25
-10.17
-5.12
-1.86
-0.88
-2.11
-5.02
-8.94
-13.41
-18.35
-23.98
-30.45
-37.54
-44.63
-50.82
-55.41
-58.07
-58.97
-58.56
-57.21
-54.95
-51.3
-45.52
-36.83
-24.88
-10.03
6.6
23.4
38.6
50.83
59.35
64.14
65.58
64.22
60.42
54.35
46.15
36.06
24.61
12.6
0.95
-9.5
-18.11
-24.5
-28.56
-30.39
-30.37
-29.13
-27.4
-25.82
-24.69
-23.84
-22.72
-20.66
-17.14
-12.09
-6.03
0.04
4.88
7.4
7.13
4.51
1.05
-1.09
0.34
6.82
18.49
34.04
51.07
66.9
79.36
87.31
90.68
90.19
86.88
81.68
75.28
68.16
60.79
53.69
47.41
42.31
38.31
34.93
31.49
27.51
23.02
18.67
15.47
14.24
15.2
17.76
20.67
22.63
22.76
20.98
17.9
14.46
11.48
9.48
8.59
8.88
10.41
13.25
17.31
22.14
26.93
30.69
32.56
32.14
29.48
24.94
18.97
11.93
4.04
-4.45
-13.2
-21.76
-29.59
-36.23
-41.27
-44.4
-45.39
-44.15
-40.87
-36.1
-30.69
-25.54
-21.22
-17.8
-14.81
-11.56
-7.49
-2.29
4.06
11.42
19.61
28.43
37.53
46.39
54.42
61.07
66.01
69.05
70.1
69.06
65.88
60.65
53.58
44.97
34.9
23.15
9.27
-7.0
-25.3
-44.48
-62.72
-78.16
-89.46
-96.25
-99.12
-99.23
-97.83
-95.81
-93.6
-91.24
-88.63
-85.7
-82.51
-79.32
-76.44
-74.25
-73.05
-73.01
-74.02
-75.71
-77.53
-78.94
-79.52
-79.03
-77.31
-74.21
-69.5
-62.92
-54.34
-43.8
-31.58
-18.1
-3.81
10.9
25.78
40.52
54.8
68.11
79.89
89.59
96.84
101.54
103.89
104.25
103.03
100.47
96.63
91.43
84.82
76.96
68.26
59.34
50.75
42.77
35.29
27.93
20.26
12.16
3.99
-3.38
-9.0
-12.11
-12.59
-11.0
-8.43
-6.2
-5.46
-6.95
-10.82
-16.62
-23.32
-29.5
-33.56
-34.17
-30.67
-23.33
-13.26
-2.03
8.93
18.76
27.28
34.83
41.82
48.39
54.24
58.7
60.92
60.19
56.13
48.73
38.43
25.97
12.25
-1.73
-15.05
-26.9
-36.63
-43.74
-47.97
-49.36
-48.32
-45.53
-41.84
-38.03
-34.64
-31.98
-30.13
-29.04
-28.62
-28.77
-29.35
-30.19
-31.07
-31.82
-32.3
-32.47
-32.39
-32.26
-32.34
-32.94
-34.33
-36.63
-39.76
-43.44
-47.32
-51.07
-54.64
-58.23
-62.13
-66.55
-71.33
-75.83
-79.08
-79.96
-77.56
-71.37
-61.47
-48.45
-33.33
-17.32
-1.6
12.9
25.56
36.11
44.52
50.88
55.33
58.1
59.46
59.85
59.74
59.51
59.33
59.03
58.24
56.59
53.92
50.36
46.36
42.44
39.0
36.17
33.76
31.38
28.67
25.39
21.55
17.4
13.35
9.9
7.52
6.57
7.19
9.3
12.49
16.14
19.51
21.9
22.82
22.08
19.84
16.57
12.85
9.25
6.16
3.73
1.92
0.57
-0.5
-1.43
-2.33
-3.29
-4.47
-6.0
-7.99
-10.5
-13.45
-16.72
-20.15
-23.54
-26.68
-29.35
-31.34
-32.61
-33.36
-34.02
-35.19
-37.37
-40.74
-44.92
-49.12
-52.18
-52.99
-50.76
-45.25
-36.89
-26.69
-16.02
-6.18
1.89
7.9
12.12
15.23
17.92
20.65
23.6
26.72
29.92
33.19
36.53
39.93
43.21
46.08
48.21
49.41
49.69
49.31
48.54
47.61
46.54
45.15
43.18
40.42
36.91
32.89
28.76
24.86
21.35
18.14
14.98
11.52
7.47
2.69
-2.83
-8.85
-14.9
-20.34
-24.4
-26.49
-26.31
-24.02
-20.19
-15.6
-11.02
-7.06
-4.07
-2.18
-1.31
-1.25
-1.76
-2.53
-3.32
-3.91
-4.13
-3.89
-3.2
-2.19
-1.08
-0.19
0.24
0.08
-0.65
-1.77
-3.08
-4.45
-5.83
-7.27
-8.77
-10.35
-11.88
-13.22
-14.18
-14.69
-14.73
-14.47
-14.21
-14.31
-15.1
-16.71
-19.03
-21.59
-23.69
-24.61
-23.74
-20.86
-16.16
-10.19
-3.7
2.52
7.89
12.02
14.77
16.15
16.26
15.37
13.8
12.0
10.38
9.32
8.93
9.13
9.63
10.09
10.24
9.91
9.09
7.77
5.97
3.74
1.13
-1.74
-4.61
-7.25
-9.45
-11.1
-12.23
-12.98
-13.56
-14.21
-15.23
-16.87
-19.35
-22.63
-26.38
-29.89
-32.21
-32.4
-29.87
-24.61
-17.14
-8.43
0.49
8.72
15.7
21.17
25.04
27.38
28.27
27.87
26.43
24.3
21.86
19.42
17.15
15.06
13.06
11.08
9.11
7.21
5.46
3.86
2.32
0.69
-1.1
-2.98
-4.75
-6.18
-7.11
-7.56
-7.72
-7.81
-8.0
-8.3
-8.56
-8.62
-8.34
-7.76
-7.1
-6.74
-7.07
-8.35
-10.59
-13.44
-16.21
-18.04
-18.11
-15.84
-11.12
-4.25
4.02
12.71
20.85
27.64
32.64
35.79
37.33
37.67
37.26
36.49
35.62
34.78
33.93
32.98
31.81
30.44
29.01
27.78
26.96
26.57
26.39
26.04
25.25
23.89
22.12
20.12
18.0
15.65
12.86
9.5
5.65
1.61
-2.27
-5.71
-8.61
-11.04
-13.16
-15.09
-16.97
-18.93
-21.11
-23.6
-26.32
-28.98
-31.02
-31.8
-30.77
-27.68
-22.69
-16.37
-9.59
-3.24
2.0
5.82
8.31
9.79
10.63
11.02
10.95
10.31
9.04
7.25
5.29
3.54
2.28
1.55
1.15
0.74
0.03
-1.12
-2.66
-4.36
-5.95
-7.17
-7.86
-8.0
-7.7
-7.19
-6.67
-6.26
-5.96
-5.62
-5.06
-4.16
-2.95
-1.6
-0.42
0.25
0.16
-0.84
-2.65
-4.95
-7.22
-8.85
-9.28
-8.17
-5.55
-1.78
2.5
6.51
9.57
11.14
10.94
8.9
5.19
0.17
-5.65
-11.56
-16.85
-20.88
-23.27
-23.99
-23.33
-21.8
-19.96
-18.26
-17.05
-16.46
-16.45
-16.86
-17.38
-17.72
-17.74
-17.48
-17.16
-17.06
-17.27
-17.71
-18.11
-18.25
-18.03
-17.62
-17.31
-17.35
-17.9
-18.96
-20.43
-22.14
-23.83
-25.09
-25.44
-24.34
-21.45
-16.78
-10.71
-3.97
2.62
8.36
12.86
16.1
18.31
19.86
21.04
21.93
22.48
22.56
22.16
21.42
20.64
20.11
19.99
20.25
20.68
20.99
20.93
20.35
19.23
17.67
15.8
13.78
11.73
9.75
7.87
6.08
4.36
2.68
1.01
-0.6
-2.13
-3.51
-4.77
-6.02
-7.52
-9.51
-12.2
-15.55
-19.29
-22.83
-25.46
-26.5
-25.45
-22.19
-17.04
-10.67
-3.95
2.24
7.25
10.77
12.86
13.76
13.82
13.34
12.53
11.57
10.66
9.99
9.74
9.95
10.49
11.13
11.6
11.69
11.36
10.66
9.73
8.66
7.51
6.37
5.3
4.42
3.79
3.35
2.89
2.15
0.89
-0.9
-2.99
-5.05
-6.74
-7.93
-8.74
-9.48
-10.56
-12.25
-14.68
-17.68
-20.86
-23.58
-25.21
-25.19
-23.24
-19.46
-14.29
-8.45
-2.69
2.32
6.18
8.72
10.01
10.28
9.82
8.93
7.87
6.9
6.21
6.01
6.42
7.46
8.95
10.63
12.12
13.12
13.47
13.19
12.45
11.47
10.44
9.42
8.37
7.21
5.9
4.48
3.01
1.6
0.27
-1.05
-2.47
-4.15
-6.19
-8.63
-11.41
-14.4
-17.32
-19.74
-21.18
-21.12
-19.31
-15.77
-10.91
-5.4
0.02
4.75
8.4
10.76
11.78
11.48
10.0
7.6
4.7
1.83
-0.53
-1.99
-2.43
-1.93
-0.78
0.68
2.06
3.04
3.42
3.11
2.17
0.7
-1.15
-3.24
-5.49
-7.77
-9.93
-11.82
-13.21
-13.95
-13.96
-13.26
-12.02
-10.52
-9.12
-8.17
-7.92
-8.36
-9.15
-9.69
-9.18
-6.99
-2.81
3.17
10.32
17.78
24.71
30.51
34.89
37.84
39.53
40.12
39.86
38.95
37.62
36.17
34.84
33.86
33.29
33.03
32.82
32.35
31.35
29.76
27.65
25.23
22.69
20.15
17.58
14.86
11.88
8.58
5.03
1.36
-2.26
-5.66
-8.68
-11.28
-13.47
-15.43
-17.41
-19.72
-22.55
-25.9
-29.47
-32.69
-34.85
-35.28
-33.57
-29.74
-24.25
-17.9
-11.65
-6.36
-2.59
-0.55
-0.1
-0.86
-2.42
-4.37
-6.36
-8.12
-9.42
-10.05
-9.93
-9.13
-7.91
-6.61
-5.6
-5.1
-5.15
-5.63
-6.36
-7.17
-7.97
-8.77
-9.66
-10.72
-11.99
-13.38
-14.65
-15.48
-15.61
-14.94
-13.69
-12.32
-11.42
-11.46
-12.67
-14.96
-17.9
-20.84
-23.01
-23.71
-22.44
-19.06
-13.85
-7.44
-0.74
5.35
10.13
13.23
14.58
14.35
12.75
10.02
6.46
2.43
-1.58
-4.96
-7.19
-7.93
-7.18
-5.37
-3.25
-1.83
-2.15
-5.08
-11.04
-19.78
-30.19
-40.54
-48.8
-53.32
-53.32
-49.14
-42.12
-34.13
-27.05
-22.32
-20.7
-22.23
-26.38
-32.12
-38.14
-43.06
-45.74
-45.51
-42.25
-36.36
-28.49
-19.3
-9.27
1.38
12.61
24.52
37.2
50.68
64.74
78.9
92.43
104.59
114.76
122.64
128.2
131.48
132.48
131.12
127.46
121.87
115.11
108.05
101.28
94.85
88.2
80.56
71.39
60.69
49.02
37.16
25.8
15.27
5.64
-3.21
-11.39
-18.84
-25.47
-31.16
-35.88
-39.61
-42.38
-44.16
-44.97
-44.89
-44.08
-42.94
-42.06
-42.12
-43.69
-46.9
-51.1
-54.88
-56.4
-54.12
-47.5
-37.36
-25.68
-14.92
-7.05
-2.93
-2.17
-3.57
-5.71
-7.51
-8.37
-8.04
-6.41
-3.41
0.88
6.02
11.15
15.09
16.79
15.72
12.08
6.84
1.26
-3.61
-7.22
-9.69
-11.45
-12.88
-14.04
-14.54
-13.89
-11.75
-8.25
-4.0
0.08
3.16
4.73
4.7
3.36
1.14
-1.51
-4.23
-6.76
-8.9
-10.48
-11.47
-11.91
-11.96
-11.87
-11.86
-12.09
-12.54
-13.06
-13.4
-13.32
-12.67
-11.48
-9.94
-8.37
-7.07
-6.29
-6.1
-6.45
-7.17
-8.09
-9.08
-10.14
-11.44
-13.26
-15.86
-19.31
-23.39
-27.57
-31.14
-33.45
-34.08
-32.93
-30.25
-26.54
-22.36
-18.28
-14.72
-11.84
-9.55
-7.57
-5.6
-3.45
-1.21
0.9
2.62
3.88
4.81
5.72
6.96
8.76
11.24
14.42
18.29
22.76
27.62
32.47
36.68
39.62
40.79
40.02
37.49
33.64
28.95
23.86
18.61
13.29
7.95
2.59
-2.64
-7.51
-11.62
-14.53
-15.85
-15.36
-13.08
-9.32
-4.61
0.4
5.08
8.89
11.47
12.7
12.64
11.55
9.85
7.99
6.37
5.31
4.94
5.29
6.27
7.65
9.12
10.29
10.8
10.39
9.03
6.92
4.45
2.03
-0.02
-1.58
-2.75
-3.77
-4.91
-6.39
-8.38
-10.84
-13.57
-16.12
-17.95
-18.47
-17.32
-14.41
-10.03
-4.76
0.67
5.6
9.52
12.2
13.58
13.82
13.19
12.02
10.63
9.3
8.21
7.52
7.32
7.64
8.39
9.36
10.25
10.72
10.59
9.83
8.63
7.23
5.83
4.46
3.02
1.36
-0.61
-2.87
-5.37
-8.0
-10.68
-13.3
-15.63
-17.37
-18.1
-17.45
-15.27
-11.67
-7.05
-2.01
2.81
6.85
9.68
11.11
11.14
10.02
8.18
6.16
4.45
3.34
2.88
2.88
3.08
3.33
3.6
3.94
4.39
4.85
5.11
4.92
4.17
2.87
1.2
-0.69
-2.68
-4.76
-6.96
-9.29
-11.7
-14.09
-16.35
-18.37
-20.0
-21.06
-21.28
-20.35
-18.11
-14.52
-9.85
-4.59
0.63
5.19
8.64
10.74
11.53
11.25
10.26
8.96
7.7
6.78
6.29
6.23
6.47
6.84
7.18
7.39
7.45
7.36
7.12
6.69
6.02
5.1
3.98
2.73
1.42
0.02
-1.64
-3.76
-6.47
-9.69
-13.07
-16.07
-18.15
-18.91
-18.25
-16.35
-13.55
-10.22
-6.69
-3.24
-0.09
2.5
4.31
5.2
5.19
4.44
3.3
2.11
1.15
0.6
0.52
0.94
1.78
2.9
4.06
4.98
5.41
5.22
4.48
3.39
2.17
0.96
-0.24
-1.49
-2.89
-4.53
-6.42
-8.56
-10.85
-13.06
-14.81
-15.6
-15.05
-13.0
-9.65
-5.54
-1.32
2.42
5.35
7.38
8.61
9.18
9.2
8.73
7.87
6.79
5.73
4.98
4.75
5.09
5.83
6.69
7.29
7.37
6.84
5.8
4.5
3.14
1.8
0.38
-1.33
-3.48
-6.06
-8.9
-11.66
-13.95
-15.43
-15.86
-15.08
-13.05
-9.93
-6.03
-1.8
2.25
5.68
8.23
9.78
10.38
10.15
9.24
7.81
6.07
4.28
2.69
1.53
0.91
0.83
1.16
1.67
2.09
2.25
2.05
1.55
0.9
0.23
-0.45
-1.24
-2.35
-3.92
-5.94
-8.18
-10.26
-11.74
-12.27
-11.69
-10.0
-7.42
-4.25
-0.85
2.42
5.23
7.35
8.58
8.9
8.37
7.22
5.75
4.33
3.24
2.66
2.58
2.81
3.11
3.25
3.06
2.51
1.64
0.55
-0.64
-1.79
-2.81
-3.69
-4.53
-5.49
-6.76
-8.41
-10.35
-12.26
-13.67
-14.08
-13.1
-10.63
-6.9
-2.44
2.06
6.0
8.9
10.58
11.11
10.72
9.72
8.39
6.97
5.62
4.48
3.6
3.01
2.65
2.46
2.37
2.3
2.22
2.11
1.98
1.84
1.69
1.45
0.94
-0.1
-1.85
-4.34
-7.26
-10.03
-11.95
-12.44
-11.23
-8.54
-4.87
-0.93
2.67
5.48
7.32
8.19
8.24
7.65
6.63
5.34
3.91
2.48
1.14
0.04
-0.73
-1.11
-1.13
-0.91
-0.65
-0.53
-0.67
-1.15
-2.01
-3.33
-5.23
-7.76
-10.84
-14.1
-16.95
-18.65
-18.68
-16.88
-13.59
-9.46
-5.21
-1.41
1.7
4.02
5.53
6.18
5.91
4.82
3.22
1.57
0.34
-0.2
-0.11
0.36
0.87
1.18
1.19
0.96
0.57
0.14
-0.27
-0.67
-1.13
-1.79
-2.76
-4.13
-5.84
-7.66
-9.18
-9.92
-9.48
-7.68
-4.63
-0.78
3.21
6.66
9.05
10.11
9.91
8.73
7.0
5.15
3.51
2.32
1.74
1.83
2.55
3.76
5.15
6.39
7.14
7.25
6.74
5.85
4.78
3.66
2.41
0.79
-1.4
-4.2
-7.42
-10.63
-13.31
-14.98
-15.34
-14.25
-11.79
-8.21
-3.92
0.54
4.59
7.79
9.89
10.86
10.85
10.09
8.84
7.3
5.67
4.17
3.04
2.48
2.57
3.2
4.07
4.78
4.98
4.5
3.42
1.98
0.49
-0.87
-2.08
-3.3
-4.74
-6.53
-8.6
-10.59
-11.99
-12.29
-11.2
-8.78
-5.47
-1.87
1.48
4.27
6.42
7.98
8.94
9.18
8.56
7.11
5.12
3.12
1.67
1.08
1.34
2.11
2.95
3.47
3.51
3.12
2.45
1.72
1.04
0.45
-0.11
-0.79
-1.75
-3.12
-4.92
-7.0
-9.05
-10.65
-11.34
-10.8
-8.96
-6.0
-2.36
1.47
5.01
7.92
10.04
11.35
11.9
11.77
11.09
9.99
8.67
7.34
6.24
5.53
5.23
5.26
5.43
5.57
5.52
5.24
4.73
4.03
3.1
1.94
0.56
-1.04
-2.77
-4.59
-6.41
-8.16
-9.68
-10.7
-10.93
-10.05
-7.89
-4.53
-0.3
4.28
8.6
12.07
14.29
15.07
14.43
12.66
10.17
7.46
5.02
3.23
2.32
2.35
3.13
4.33
5.5
6.24
6.22
5.34
3.72
1.63
-0.61
-2.7
-4.46
-5.89
-7.07
-8.14
-9.14
-10.04
-10.69
-10.83
-10.24
-8.8
-6.54
-3.68
-0.57
2.41
4.87
6.51
7.15
6.74
5.37
3.25
0.66
-2.05
-4.51
-6.41
-7.5
-7.69
-6.97
-5.49
-3.5
-1.32
0.75
2.46
3.63
4.24
4.28
3.8
2.79
1.23
-0.89
-3.59
-6.69
-9.92
-12.84
-14.95
-15.84
-15.31
-13.43
-10.49
-7.03
-3.57
-0.61
1.5
2.64
2.86
2.36
1.51
0.67
0.22
0.44
1.39
2.98
4.89
6.69
7.98
8.44
7.95
6.6
4.65
2.47
0.44
-1.23
-2.46
-3.36
-4.07
-4.72
-5.33
-5.78
-5.85
-5.32
-4.02
-1.9
0.96
4.32
7.81
11.0
13.42
14.63
14.41
12.71
9.83
6.29
2.74
-0.19
-2.07
-2.79
-2.54
-1.67
-0.64
0.2
0.62
0.59
0.22
-0.28
-0.7
-0.96
-1.1
-1.32
-1.82
-2.73
-3.98
-5.38
-6.59
-7.32
-7.28
-6.34
-4.49
-1.84
1.3
4.54
7.42
9.56
10.71
10.77
9.77
7.87
5.35
2.57
-0.03
-2.03
-3.18
-3.48
-3.17
-2.64
-2.22
-2.07
-2.13
-2.21
-2.14
-1.83
-1.39
-1.02
-0.97
-1.45
-2.57
-4.31
-6.54
-8.92
-11.04
-12.38
-12.56
-11.37
-8.94
-5.69
-2.19
0.96
3.28
4.46
4.38
3.07
0.73
-2.28
-5.47
-8.34
-10.44
-11.49
-11.42
-10.32
-8.45
-6.17
-3.88
-1.95
-0.69
-0.22
-0.54
-1.5
-2.95
-4.82
-7.08
-9.66
-12.41
-15.0
-16.95
-17.79
-17.17
-14.95
-11.25
-6.35
-0.72
5.09
10.47
14.79
17.58
18.63
18.05
16.2
13.58
10.67
7.83
5.31
3.27
1.78
0.83
0.3
0.0
-0.3
-0.79
-1.59
-2.72
-4.22
-6.08
-8.16
-10.19
-11.69
-12.16
-11.28
-9.05
-5.85
-2.23
1.27
4.35
6.93
9.07
10.82
12.12
12.84
12.94
12.49
11.69
10.71
9.57
8.17
6.34
4.04
1.41
-1.18
-3.32
-4.71
-5.23
-4.97
-4.2
-3.24
-2.49
-2.25
-2.7
-3.73
-4.97
-5.9
-6.03
-5.2
-3.6
-1.71
-0.09
0.87
1.01
0.31
-1.16
-3.34
-6.07
-9.07
-11.85
-13.82
-14.52
-13.73
-11.63
-8.64
-5.33
-2.17
0.53
2.67
4.24
5.24
5.58
5.1
3.64
1.14
-2.23
-6.02
-9.57
-12.19
-13.3
-12.63
-10.28
-6.67
-2.35
2.1
6.22
9.63
12.08
13.36
13.39
12.24
10.19
7.68
5.28
3.5
2.6
2.62
3.32
4.3
5.14
5.54
5.33
4.54
3.27
1.63
-0.27
-2.39
-4.73
-7.24
-9.83
-12.33
-14.52
-16.14
-16.87
-16.4
-14.47
-11.0
-6.15
-0.43
5.44
10.74
14.91
17.73
19.31
19.96
20.04
19.85
19.56
19.22
18.82
18.37
17.88
17.41
17.02
16.78
16.71
16.8
16.96
17.04
16.82
16.08
14.74
12.99
11.26
10.2
10.36
11.93
14.48
17.06
18.59
18.32
16.27
13.3
10.81
10.18
12.34
17.4
24.77
33.42
42.21
50.28
57.18
62.9
67.77
72.32
77.05
82.07
86.84
90.07
89.91
84.58
73.09
55.75
34.21
10.96
-11.47
-31.28
-47.66
-60.5
-69.88
-75.65
-77.35
-74.57
-67.25
-55.9
-41.61
-25.97
-10.95
1.12
7.77
6.92
-2.56
-20.18
-43.87
-70.46
-96.48
-118.98
-135.69
-144.92
-145.27
-135.9
-117.07
-90.88
-61.29
-33.23
-11.01
3.23
10.23
12.87
14.63
17.85
22.78
27.89
31.04
30.79
27.18
21.6
15.98
11.86
9.77
9.3
9.6
9.86
9.83
9.77
10.15
11.33
13.34
15.9
18.65
21.43
24.33
27.62
31.43
35.61
39.64
42.85
44.68
44.97
44.01
42.41
40.85
39.85
39.6
39.99
40.75
41.53
42.02
42.01
41.3
39.67
36.89
32.68
26.98
20.01
12.35
4.88
-1.51
-6.19
-9.05
-10.51
-11.34
-12.32
-13.95
-16.27
-18.89
-21.18
-22.49
-22.34
-20.52
-17.2
-12.81
-7.93
-3.22
0.78
3.68
5.26
5.5
4.53
2.64
0.3
-1.98
-3.72
-4.7
-4.97
-4.87
-4.86
-5.31
-6.4
-8.08
-10.12
-12.31
-14.5
-16.61
-18.58
-20.32
-21.7
-22.55
-22.84
-22.62
-22.14
-21.66
-21.34
-21.21
-21.09
-20.73
-19.96
-18.81
-17.47
-16.2
-15.22
-14.55
-14.14
-13.91
-13.82
-13.89
-14.15
-14.44
-14.47
-13.8
-12.1
-9.32
-5.74
-1.96
1.3
3.47
4.22
3.52
1.56
-1.24
-4.34
-7.03
-8.61
-8.6
-7.02
-4.47
-1.93
-0.33
-0.11
-0.88
-1.7
-1.5
0.24
3.23
6.5
8.89
9.68
8.93
7.4
6.22
6.4
8.51
12.47
17.57
22.58
25.91
26.04
21.9
13.43
1.66
-11.38
-23.35
-32.23
-36.98
-37.67
-35.19
-30.81
-25.7
-20.77
-16.64
-13.75
-12.36
-12.51
-13.91
-15.86
-17.5
-17.99
-16.82
-14.04
-10.21
-6.22
-2.88
-0.67
0.43
0.83
1.02
1.34
1.8
2.13
2.01
1.27
-0.01
-1.49
-2.76
-3.52
-3.68
-3.36
-2.79
-2.29
-2.07
-2.31
-3.04
-4.23
-5.73
-7.37
-8.96
-10.45
-11.93
-13.61
-15.73
-18.38
-21.39
-24.35
-26.66
-27.75
-27.3
-25.39
-22.56
-19.68
-17.61
-16.97
-17.96
-20.3
-23.49
-27.01
-30.53
-34.04
-37.73
-41.83
-46.5
-51.71
-57.26
-62.78
-67.74
-71.48
-73.32
-72.78
-69.78
-64.72
-58.37
-51.64
-45.21
-39.33
-33.76
-27.99
-21.49
-13.97
-5.39
4.1
14.42
25.52
37.42
49.9
62.43
74.22
84.48
92.76
99.21
104.46
109.33
114.43
119.81
125.06
129.39
131.96
132.07
129.15
122.89
113.39
101.35
88.2
75.87
66.25
60.44
58.33
58.47
58.63
56.65
51.18
42.08
30.33
17.46
5.04
-5.68
-14.02
-19.72
-22.89
-23.97
-23.68
-22.95
-22.75
-23.85
-26.56
-30.6
-35.15
-39.08
-41.32
-41.16
-38.53
-33.96
-28.4
-22.91
-18.33
-15.0
-12.8
-11.27
-9.91
-8.34
-6.46
-4.41
-2.45
-0.88
0.04
0.14
-0.62
-2.01
-3.54
-4.63
-4.71
-3.56
-1.41
1.06
3.02
3.8
3.17
1.37
-0.98
-3.21
-4.9
-6.04
-7.1
-8.81
-11.91
-16.75
-23.06
-29.87
-35.76
-39.29
-39.55
-36.5
-31.05
-24.64
-18.79
-14.55
-12.26
-11.58
-11.83
-12.33
-12.7
-12.91
-13.1
-13.45
-13.97
-14.54
-15.02
-15.34
-15.56
-15.79
-16.07
-16.14
-15.46
-13.35
-9.37
-3.66
2.87
8.78
12.59
13.41
11.23
6.9
1.63
-3.53
-8.02
-11.76
-14.87
-17.38
-19.2
-20.18
-20.38
-20.12
-19.85
-19.88
-20.23
-20.6
-20.49
-19.47
-17.36
-14.29
-10.62
-6.81
-3.31
-0.4
1.81
3.27
3.95
3.73
2.48
0.2
-2.83
-6.07
-8.82
-10.59
-11.3
-11.35
-11.36
-11.75
-12.44
-12.82
-12.08
-9.71
-5.9
-1.66
1.56
2.39
0.23
-4.61
-11.06
-17.7
-23.26
-26.86
-27.96
-26.28
-21.8
-14.92
-6.56
1.9
8.94
13.4
14.82
13.53
10.38
6.34
2.21
-1.52
-4.53
-6.48
-6.96
-5.63
-2.51
1.75
5.83
8.1
7.35
3.45
-2.29
-7.55
-9.98
-8.31
-2.93
4.37
11.38
16.6
19.87
22.15
24.69
28.31
32.92
37.81
42.11
45.24
47.01
47.46
46.56
44.14
40.06
34.45
27.85
21.18
15.52
11.79
10.49
11.48
14.06
17.11
19.5
20.35
19.32
16.57
12.66
8.28
4.05
0.48
-2.14
-3.63
-4.01
-3.54
-2.78
-2.38
-2.81
-4.13
-5.92
-7.47
-8.22
-7.92
-6.76
-5.15
-3.44
-1.72
0.15
2.38
5.03
7.94
10.79
13.32
15.37
16.93
17.93
18.12
17.03
14.16
9.26
2.63
-4.84
-11.91
-17.35
-20.46
-21.2
-20.2
-18.3
-16.23
-14.35
-12.66
-11.02
-9.33
-7.61
-5.83
-3.8
-1.24
2.01
5.65
8.75
10.1
8.88
5.26
0.62
-2.96
-3.71
-1.08
3.99
9.69
14.31
17.16
18.72
20.02
21.84
24.0
25.43
24.84
21.46
15.53
8.19
0.92
-5.01
-9.04
-11.24
-12.3
-13.16
-14.75
-17.76
-22.47
-28.55
-35.19
-41.29
-45.78
-47.97
-47.73
-45.54
-42.29
-38.95
-36.37
-34.92
-34.54
-34.82
-35.26
-35.54
-35.7
-36.03
-36.8
-38.06
-39.49
-40.54
-40.6
-39.18
-35.97
-30.86
-24.01
-15.94
-7.55
0.08
6.18
10.6
13.9
16.94
20.26
23.67
26.37
27.54
26.95
25.28
23.72
23.35
24.52
26.8
29.29
31.14
31.91
31.64
30.49
28.61
25.98
22.5
18.15
13.07
7.51
1.82
-3.61
-8.38
-12.1
-14.51
-15.59
-15.55
-14.81
-13.77
-12.61
-11.28
-9.63
-7.71
-5.92
-4.99
-5.7
-8.37
-12.68
-17.72
-22.42
-26.0
-28.25
-29.44
-29.95
-29.95
-29.22
-27.36
-24.06
-19.31
-13.4
-6.82
-0.04
6.53
12.56
17.81
22.09
25.4
27.92
29.96
31.77
33.3
34.23
34.04
32.37
29.29
25.48
21.96
19.74
19.37
20.65
22.76
24.62
25.35
24.6
22.63
20.08
17.67
15.97
15.27
15.63
16.95
19.04
21.6
24.33
26.98
29.43
31.73
34.02
36.26
38.14
39.05
38.31
35.56
30.92
25.02
18.84
13.34
9.18
6.62
5.54
5.61
6.44
7.59
8.66
9.2
8.84
7.38
4.79
1.39
-2.16
-4.83
-5.5
-3.27
2.01
9.53
17.74
24.9
29.82
32.29
32.87
32.35
31.07
28.73
24.72
18.87
11.9
5.35
0.9
-0.65
0.12
1.39
1.05
-2.32
-8.83
-17.36
-26.35
-34.49
-41.23
-46.55
-50.39
-52.2
-51.1
-46.51
-39.11
-31.29
-26.71
-28.85
-39.13
-55.8
-74.07
-88.02
-93.02
-87.77
-74.69
-58.54
-44.03
-33.89
-28.14
-24.95
-22.22
-18.87
-15.21
-12.28
-10.95
-11.21
-12.19
-12.76
-12.13
-10.29
-7.84
-5.68
-4.45
-4.19
-4.37
-4.2
-3.1
-1.03
1.52
3.87
5.69
7.19
9.01
11.74
15.31
18.68
20.07
17.75
11.1
1.31
-8.67
-15.05
-14.7
-6.49
8.19
26.08
43.41
57.28
66.44
71.06
72.0
70.0
65.47
58.78
50.75
42.78
36.41
32.49
30.53
28.86
25.28
18.14
7.15
-6.46
-20.5
-32.61
-41.01
-44.92
-44.53
-40.83
-35.16
-28.9
-23.05
-18.03
-13.51
-8.68
-2.73
4.5
12.22
18.82
22.49
22.0
17.29
9.53
0.78
-6.7
-11.22
-12.15
-10.01
-6.26
-2.76
-1.06
-2.07
-5.8
-11.57
-18.21
-24.46
-29.26
-31.92
-32.3
-30.66
-27.6
-23.8
-19.87
-16.32
-13.56
-12.03
-12.11
-14.15
-18.19
-23.98
-30.94
-38.32
-45.24
-50.81
-54.13
-54.39
-51.14
-44.46
-35.12
-24.36
-13.65
-4.26
2.98
7.69
10.02
10.42
9.67
8.68
8.35
9.28
11.68
15.24
19.4
23.52
27.06
29.81
31.68
32.68
32.79
32.0
30.35
27.94
24.96
21.59
17.97
14.19
10.35
6.63
3.38
0.96
-0.34
-0.44
0.45
1.91
3.42
4.51
4.86
4.34
2.99
1.02
-1.26
-3.51
-5.42
-6.81
-7.69
-8.24
-8.73
-9.42
-10.54
-12.18
-14.3
-16.7
-18.99
-20.69
-21.43
-21.18
-20.45
-20.28
-21.97
-26.57
-34.3
-44.4
-55.18
-64.53
-70.71
-72.9
-71.57
-68.37
-65.65
-65.61
-69.63
-77.6
-87.8
-97.21
-102.25
-99.72
-87.66
-65.81
-35.6
0.24
38.21
74.51
105.6
128.56
141.77
145.21
140.58
130.9
119.58
109.38
101.71
96.52
92.75
89.19
85.04
80.17
74.9
69.7
64.88
60.51
56.51
52.73
49.04
45.38
41.7
38.09
34.59
31.26
28.08
24.93
21.69
18.24
14.6
10.84
7.06
3.29
-0.48
-4.33
-8.33
-12.46
-16.64
-20.53
-23.58
-25.09
-24.34
-20.92
-14.97
-7.29
0.86
8.13
13.49
16.47
17.17
16.09
13.88
11.23
8.74
6.92
6.11
6.45
7.78
9.69
11.65
13.12
13.7
13.15
11.38
8.48
4.77
0.72
-3.0
-5.7
-6.93
-6.59
-4.92
-2.48
0.18
2.67
4.83
6.71
8.41
9.98
11.31
12.19
12.37
11.66
10.09
7.8
4.99
1.84
-1.64
-5.5
-9.73
-14.17
-18.34
-21.61
-23.38
-23.36
-21.67
-18.78
-15.31
-11.78
-8.49
-5.54
-2.89
-0.56
1.38
2.76
3.46
3.46
2.9
2.02
1.1
0.36
-0.1
-0.32
-0.49
-0.84
-1.59
-2.93
-4.94
-7.66
-10.98
-14.71
-18.53
-22.13
-25.27
-27.87
-30.07
-32.1
-34.14
-36.15
-37.85
-38.74
-38.35
-36.39
-32.9
-28.24
-23.05
-18.01
-13.77
-10.75
-9.2
-9.16
-10.48
-12.89
-16.06
-19.67
-23.5
-27.42
-31.2
-34.32
-35.82
-34.49
-29.26
-19.77
-6.72
8.21
22.92
35.52
44.88
50.64
53.04
52.57
49.79
45.39
40.25
35.28
31.19
28.19
25.87
23.45
20.19
15.86
10.82
5.9
2.13
0.4
1.19
4.46
9.65
15.83
22.0
27.32
31.31
33.85
34.97
34.83
33.67
31.89
30.17
29.27
29.78
31.75
34.52
36.89
37.52
35.4
30.07
21.74
11.16
-0.48
-11.69
-20.93
-26.89
-28.9
-27.26
-23.1
-17.94
-13.09
-9.4
-7.35
-7.6
-11.09
-18.84
-31.16
-46.87
-63.14
-76.33
-83.34
-82.9
-75.95
-64.83
-51.91
-38.42
-24.21
-8.46
9.21
27.97
45.86
60.47
69.96
73.57
71.83
66.05
57.64
47.58
36.24
23.43
8.96
-7.02
-23.81
-40.31
-55.43
-68.4
-78.93
-86.8
-91.51
-92.06
-87.24
-76.39
-60.15
-40.69
-21.13
-4.43
7.85
16.14
22.48
29.43
38.77
50.75
64.24
77.39
88.59
96.92
102.06
104.0
102.74
98.44
91.76
84.14
77.47
73.46
72.7
74.27
76.09
75.81
71.81
63.78
52.65
40.01
27.38
15.77
5.48
-3.76
-12.55
-21.59
-31.33
-41.82
-52.56
-62.62
-70.94
-76.68
-79.54
-79.78
-77.96
-74.66
-70.23
-64.81
-58.57
-51.94
-45.61
-40.37
-36.82
-35.15
-35.19
-36.49
-38.59
-41.02
-43.38
-45.19
-46.0
-45.43
-43.35
-39.94
-35.68
-31.18
-27.03
-23.73
-21.63
-21.01
-22.04
-24.73
-28.84
-33.88
-39.13
-43.7
-46.72
-47.49
-45.65
-41.27
-34.81
-26.92
-18.14
-8.75
1.23
11.76
22.55
32.75
41.18
46.72
48.74
47.4
43.53
38.25
32.55
27.05
21.9
17.13
12.72
8.79
5.51
3.01
1.24
-0.09
-1.31
-2.73
-4.51
-6.61
-8.84
-10.91
-12.54
-13.48
-13.54
-12.59
-10.58
-7.5
-3.44
1.35
6.45
11.22
14.97
17.04
17.13
15.31
12.11
8.31
4.64
1.55
-0.96
-3.2
-5.63
-8.56
-12.06
-15.88
-19.66
-23.14
-26.37
-29.73
-33.84
-39.36
-46.72
-56.0
-66.85
-78.55
-90.08
-100.27
-108.12
-113.04
-115.08
-114.91
-113.44
-111.07
-107.2
-100.01
-87.04
-66.31
-37.45
-2.41
34.88
69.66
97.88
117.34
128.11
132.06
131.81
129.76
127.48
125.65
124.33
123.48
123.09
123.18
123.47
123.24
121.39
116.93
109.51
99.77
89.25
79.75
72.68
68.55
66.91
66.73
66.91
66.61
65.38
63.06
59.58
55.0
49.49
43.35
36.98
30.71
24.76
19.2
14.07
9.35
5.06
1.15
-2.48
-5.9
-9.09
-11.75
-13.42
-13.64
-12.22
-9.5
-6.35
-3.97
-3.44
-5.37
-9.69
-15.72
-22.57
-29.54
-36.33
-43.05
-49.95
-57.1
-64.24
-70.77
-76.05
-79.57
-81.12
-80.66
-78.31
-74.25
-68.88
-63.05
-58.02
-55.09
-55.13
-58.24
-63.62
-70.01
-76.33
-82.34
-88.6
-95.95
-104.5
-112.98
-118.85
-119.14
-111.52
-94.9
-69.7
-37.65
-1.38
36.01
71.2
101.05
123.23
136.64
141.86
140.35
133.8
123.85
112.24
101.1
92.73
89.32
91.8
100.19
112.76
126.9
140.22
151.57
160.92
168.32
173.56
175.65
174.65
170.72
164.51
156.95
149.66
144.69
143.72
148.2
158.49
175.12
196.72
220.16
241.36
257.39
267.7
273.69
278.21
274.72
261.84
243.13
224.92
211.39
203.26
200.91
200.29
197.82
190.59
177.7
157.8
131.81
100.29
64.28
25.39
-14.91
-55.93
-97.05
-136.11
-170.84
-199.48
-221.6
-237.19
-246.29
-249.15
-248.62
-246.97
-243.78
-236.93
-224.4
-205.86
-182.18
-154.65
-124.59
-99.01
-83.07
-77.22
-77.91
-81.03
-84.87
-89.92
-97.4
-108.19
-131.85
-174.45
-234.65
-304.53
-375.16
-441.42
-502.07
-557.6
-608.59
-667.56
-743.3
-835.68
-936.58
-1036.56
-1130.64
-1218.52
-1302.5
-1305.74
-1187.67
-960.65
-682.32
-411.47
-177.09
18.07
181.4
319.01
432.58
508.91
539.81
529.96
495.62
455.64
422.54
400.75
389.51
386.7
381.23
364.9
338.8
309.69
284.79
267.19
256.09
249.32
245.29
237.36
221.33
197.55
169.9
143.0
119.11
98.31
79.97
63.84
47.41
29.55
11.51
-6.5
-22.87
-36.96
-49.0
-59.47
-68.55
-77.2
-85.88
-94.4
-102.16
-108.26
-112.44
-114.87
-115.89
-115.78
-114.74
-112.91
-110.48
-107.76
-104.8
-101.73
-98.66
-95.64
-92.7
-89.84
-87.05
-84.31
-81.65
-78.83
-75.71
-72.12
-67.97
-63.18
-57.72
-51.6
-44.85
-37.57
-29.68
-21.22
-12.22
-2.8
6.89
16.6
26.07
35.07
43.49
51.35
58.75
65.8
72.58
79.02
84.94
90.09
94.27
97.47
99.91
101.94
103.95
106.17
108.55
110.8
112.55
113.51
113.73
113.64
113.96
115.44
118.59
123.52
129.96
137.48
145.74
154.72
164.7
176.18
189.8
206.21
226.03
249.56
276.29
304.4
330.73
351.38
362.89
363.47
353.61
335.72
313.09
288.52
263.64
239.0
214.76
191.29
169.45
150.13
133.71
119.72
107.05
94.55
81.59
68.27
55.25
43.35
33.06
24.42
17.13
10.76
5.05
-0.01
-4.18
-7.19
-8.8
-9.08
-8.39
-7.36
-6.65
-6.8
-7.98
-9.98
-12.28
-14.34
-15.78
-16.6
-17.06
-17.61
-18.61
-20.16
-22.04
-23.8
-24.86
-24.74
-23.2
-20.29
-16.43
-12.27
-8.58
-6.09
-5.22
-5.9
-7.41
-8.61
-8.34
-5.95
-1.76
2.97
6.47
7.15
4.31
-1.57
-8.97
-15.99
-21.06
-23.47
-23.43
-21.84
-19.64
-17.36
-14.83
-11.35
-6.12
1.16
10.02
19.19
27.17
32.8
35.78
36.8
37.29
38.79
42.44
48.68
57.35
67.97
79.85
92.07
103.15
110.96
113.06
107.33
92.8
69.96
40.36
5.5
-33.89
-77.76
-125.31
-173.35
-215.62
-244.26
-252.74
-238.96
-206.54
-163.44
-118.69
-78.97
-47.05
-22.46
-3.71
9.84
17.49
18.37
12.89
3.43
-6.41
-13.39
-16.07
-15.16
-12.81
-11.35
-12.1
-15.01
-19.02
-22.65
-24.79
-25.07
-23.92
-22.31
-21.43
-22.14
-24.76
-28.85
-33.41
-37.24
-39.43
-39.71
-38.56
-36.93
-35.82
-35.86
-37.18
-39.51
-42.44
-45.68
-49.22
-53.38
-58.68
-65.7
-74.97
-86.78
-101.03
-117.07
-133.54
-148.39
-159.06
-162.88
-157.65
-142.3
-117.27
-84.53
-47.3
-9.3
25.91
55.58
78.08
92.92
100.65
102.52
100.17
95.3
89.42
83.58
78.38
73.89
69.91
66.14
62.44
58.9
55.82
53.55
52.3
52.03
52.36
52.75
52.69
51.84
50.1
47.56
44.44
40.94
37.31
33.81
30.71
28.24
26.52
25.5
24.96
24.6
24.19
23.66
23.16
22.94
23.26
24.22
25.69
27.34
28.79
29.76
30.21
30.42
30.94
32.4
35.23
39.5
44.82
50.5
55.81
60.32
64.1
67.7
71.98
77.84
85.96
96.5
108.89
121.71
132.87
140.06
141.38
135.78
123.21
104.27
79.83
50.66
17.55
-18.23
-54.55
-88.47
-116.82
-136.95
-147.39
-147.99
-139.96
-125.8
-109.28
-95.16
-88.29
-92.16
-107.44
-131.33
-158.2
-181.5
-195.96
-199.06
-191.12
-174.25
-150.97
-123.36
-93.19
-62.46
-33.85
-10.33
5.65
13.2
13.29
8.36
1.17
-6.2
-12.97
-19.36
-25.98
-33.02
-40.03
-46.11
-50.56
-53.25
-54.83
-56.4
-59.1
-63.6
-70.01
-78.05
-87.31
-97.55
-108.86
-121.49
-135.53
-150.49
-164.97
-176.66
-182.73
-180.51
-168.31
-145.93
-114.84
-77.93
-38.89
-1.59
30.55
54.92
70.13
76.12
74.25
66.97
57.36
48.33
41.95
39.13
39.53
42.06
45.26
47.87
49.16
48.95
47.61
45.86
44.49
44.11
44.94
46.73
48.92
50.94
52.55
54.22
56.98
62.14
70.58
82.25
95.82
108.95
118.93
123.38
120.87
111.29
95.85
76.95
57.69
41.28
30.17
25.27
25.6
28.56
30.78
29.37
22.92
11.81
-2.16
-16.55
-29.11
-38.25
-43.11
-43.39
-39.18
-30.86
-19.13
-4.95
10.59
26.55
42.33
57.79
73.16
88.67
104.26
119.26
132.24
141.22
144.07
139.28
126.65
107.84
86.15
65.74
50.25
41.58
39.29
40.94
43.18
43.11
39.23
31.66
21.6
10.55
-0.41
-10.87
-20.96
-30.98
-41.06
-50.98
-60.23
-68.16
-74.24
-78.18
-79.85
-79.29
-76.47
-71.39
-64.1
-54.89
-44.43
-33.79
-24.27
-17.11
-13.11
-12.44
-14.45
-18.05
-22.11
-25.91
-29.39
-33.03
-37.41
-42.75
-48.72
-54.51
-59.1
-61.45
-60.61
-55.72
-46.16
-31.88
-13.7
6.72
27.27
46.1
62.26
75.86
87.59
97.98
106.85
113.23
115.9
113.95
107.15
95.87
80.61
61.8
39.84
15.54
-9.6
-33.3
-53.02
-66.72
-73.62
-74.47
-71.29
-66.71
-63.17
-62.42
-65.14
-71.04
-79.0
-87.49
-94.93
-100.01
-101.96
-100.55
-96.02
-88.84
-79.57
-68.76
-56.96
-44.82
-33.1
-22.52
-13.63
-6.57
-1.04
3.53
7.79
12.26
17.21
22.67
28.55
34.58
40.44
45.77
50.29
53.91
56.79
59.32
61.94
64.92
68.32
72.02
75.95
80.12
84.69
89.81
95.52
101.74
108.33
115.14
121.83
127.68
131.34
130.93
124.48
110.53
88.73
59.81
25.3
-13.01
-53.36
-93.8
-131.95
-164.96
-190.03
-205.36
-210.89
-208.32
-200.23
-188.74
-174.71
-157.73
-137.21
-113.48
-88.49
-65.24
-46.61
-34.1
-27.27
-24.17
-22.45
-20.41
-17.62
-14.65
-12.26
-10.58
-8.73
-5.07
2.04
13.49
29.23
48.49
70.59
95.25
122.34
151.06
179.27
203.52
220.09
226.5
222.62
210.59
193.74
174.84
154.9
132.94
106.85
74.89
37.0
-4.65
-46.25
-83.57
-113.41
-134.52
-147.67
-154.84
-158.01
-158.26
-155.6
-149.58
-140.19
-128.38
-115.79
-104.11
-94.22
-85.96
-78.41
-70.69
-62.49
-54.41
-47.74
-43.73
-42.94
-44.78
-47.57
-49.24
-48.19
-44.0
-37.57
-30.67
-25.01
-21.54
-20.13
-19.92
-19.88
-19.52
-19.1
-19.57
-22.05
-27.19
-34.63
-42.79
-49.2
-51.22
-47.2
-37.24
-23.36
-8.85
3.02
10.14
12.23
10.46
6.54
1.81
-3.33
-9.11
-15.9
-23.67
-31.93
-40.02
-47.46
-54.07
-59.73
-64.13
-66.61
-66.52
-63.72
-59.01
-54.17
-51.42
-52.65
-58.61
-68.66
-81.09
-93.82
-105.14
-114.04
-120.06
-123.18
-123.73
-122.69
-121.86
-123.61
-129.91
-141.19
-155.58
-169.33
-178.21
-179.42
-172.83
-160.83
-147.03
-134.51
-124.65
-116.98
-109.94
-101.87
-91.68
-78.92
-63.64
-45.99
-26.13
-4.29
19.28
44.15
69.91
96.34
123.71
152.84
184.61
219.21
255.25
289.51
317.52
335.0
339.48
331.28
313.32
290.04
265.69
243.2
223.75
207.22
192.92
180.1
168.22
156.75
145.16
132.96
119.95
106.35
92.77
80.08
69.04
60.04
52.98
47.36
42.51
37.87
33.18
28.53
24.25
20.6
17.68
15.31
13.17
10.97
8.61
6.17
3.86
1.86
0.25
-1.0
-1.99
-2.77
-3.38
-3.85
-4.23
-4.62
-5.09
-5.65
-6.27
-6.84
-7.33
-7.73
-8.1
-8.39
-8.5
-8.16
-7.1
-5.17
-2.4
0.95
4.53
7.99
11.08
13.67
15.69
17.13
18.13
18.98
20.13
22.01
24.81
28.34
32.04
35.31
37.74
39.25
39.97
39.99
39.21
37.28
33.87
28.95
22.87
16.3
9.9
4.06
-1.1
-5.62
-9.4
-11.96
-12.61
-10.64
-5.78
1.57
10.36
19.2
26.86
32.63
36.57
39.25
41.48
43.92
46.96
50.75
55.34
60.82
67.33
74.94
83.63
93.2
103.39
113.97
124.8
135.8
146.69
156.64
164.11
166.88
162.73
150.06
128.51
99.01
63.43
23.95
-17.22
-57.9
-95.72
-128.32
-153.77
-171.34
-181.84
-187.35
-190.32
-192.5
-194.3
-195.0
-193.5
-189.02
-181.47
-171.21
-158.7
-144.2
-127.9
-110.22
-91.99
-74.35
-58.48
-45.18
-34.77
-27.11
-21.75
-18.16
-15.77
-13.95
-12.1
-9.7
-6.42
-2.29
2.41
7.15
11.45
14.94
17.43
18.88
19.25
18.53
16.67
13.71
9.77
5.05
-0.09
-5.13
-9.37
-11.99
-12.21
-9.65
-4.65
1.72
7.8
11.98
13.17
11.24
6.98
1.72
-3.1
-6.41
-7.67
-6.9
-4.59
-1.6
1.08
2.5
2.12
-0.05
-3.4
-6.92
-9.62
-10.8
-10.27
-8.3
-5.48
-2.47
0.12
1.91
2.74
2.7
2.14
1.54
1.36
1.92
3.29
5.23
7.37
9.3
10.71
11.45
11.6
11.38
11.06
10.88
10.95
11.24
11.58
11.75
11.6
11.06
10.15
8.97
7.6
6.18
4.77
3.49
2.39
1.55
0.96
0.61
0.45
0.45
0.57
0.73
0.8
0.56
-0.21
-1.7
-3.97
-6.89
-10.13
-13.15
-15.39
-16.42
-16.12
-14.8
-13.11
-11.82
-11.53
-12.39
-14.14
-16.16
-17.8
-18.56
-18.28
-17.02
-14.99
-12.4
-9.39
-6.03
-2.3
1.79
6.24
11.01
16.02
21.08
25.95
30.34
34.03
36.99
39.45
41.83
44.63
48.09
51.91
55.21
56.61
54.75
48.77
38.56
24.83
8.79
-8.23
-25.13
-41.21
-56.12
-69.75
-82.16
-93.35
-103.27
-111.51
-117.28
-119.51
-117.3
-110.4
-99.66
-86.91
-74.4
-64.04
-56.72
-52.25
-49.72
-48.1
-46.67
-44.92
-42.37
-38.26
-31.67
-21.96
-9.21
5.62
20.94
35.13
46.97
55.94
62.1
65.78
67.39
67.23
65.51
62.39
58.01
52.55
46.32
39.83
33.73
28.71
25.23
23.34
22.64
22.39
21.82
20.39
18.01
15.21
12.92
12.2
13.84
17.94
23.85
30.34
36.09
40.18
42.47
43.58
44.59
46.58
50.18
55.33
61.24
66.53
69.39
68.01
60.9
47.31
27.63
3.31
-23.34
-49.75
-73.69
-93.69
-109.1
-119.83
-125.92
-127.19
-123.51
-115.32
-104.39
-93.9
-87.59
-88.23
-96.12
-108.62
-120.94
-128.24
-127.65
-119.34
-106.11
-91.77
-79.52
-70.88
-65.82
-63.64
-63.86
-66.62
-72.36
-81.32
-92.99
-106.05
-118.63
-128.74
-134.78
-135.81
-131.61
-122.49
-109.12
-92.24
-72.67
-51.31
-29.19
-7.35
13.48
33.26
52.81
73.38
96.01
120.44
144.58
164.89
177.69
180.99
175.62
165.08
154.05
146.33
143.35
144.02
145.81
146.2
143.81
138.43
130.46
120.22
107.82
93.44
77.86
62.54
49.13
38.81
31.78
27.32
24.3
21.75
19.23
16.82
14.89
13.72
13.39
13.72
14.39
15.05
15.33
15.03
14.27
13.66
14.2
16.97
22.55
30.58
39.63
47.61
52.46
52.86
48.48
39.89
28.15
14.57
0.61
-11.96
-21.13
-24.97
-22.34
-13.67
-1.2
11.42
20.18
22.19
16.75
5.65
-7.45
-18.35
-23.79
-22.49
-15.37
-5.17
4.53
10.35
10.19
3.87
-6.72
-18.08
-26.28
-28.41
-23.63
-13.47
-1.05
10.18
17.73
20.61
19.08
14.01
6.34
-3.1
-13.3
-22.84
-30.05
-33.47
-32.39
-27.25
-19.44
-10.87
-3.29
2.23
5.45
6.85
7.2
7.18
7.12
6.97
6.64
6.26
6.4
7.91
11.56
17.6
25.49
33.95
41.39
46.44
48.44
47.69
45.38
43.25
43.07
46.06
52.47
61.47
71.42
80.47
87.25
91.38
93.67
95.81
99.69
106.67
116.96
129.35
141.42
150.16
152.88
147.94
135.18
115.82
91.78
64.9
36.3
6.01
-26.87
-63.74
-105.54
-151.67
-199.13
-242.42
-274.66
-289.79
-284.93
-261.85
-226.53
-186.89
-149.7
-118.38
-92.78
-70.78
-50.64
-32.52
-18.29
-9.92
-7.79
-9.95
-13.04
-14.02
-11.68
-7.18
-3.12
-1.92
-4.46
-9.66
-15.13
-18.48
-18.49
-15.58
-11.53
-8.49
-8.0
-10.31
-14.39
-18.51
-21.08
-21.34
-19.53
-16.77
-14.33
-13.13
-13.34
-14.49
-15.82
-16.68
-16.81
-16.4
-15.77
-15.1
-14.28
-12.89
-10.47
-6.77
-1.96
3.37
8.37
12.19
14.29
14.58
13.32
11.01
8.17
5.11
1.95
-1.39
-5.07
-9.14
-13.52
-17.9
-21.84
-24.92
-26.87
-27.7
-27.73
-27.47
-27.46
-28.05
-29.31
-31.05
-33.04
-35.18
-37.55
-40.4
-43.91
-48.05
-52.44
-56.44
-59.26
-60.27
-59.18
-56.06
-51.25
-45.18
-38.09
-29.99
-20.64
-9.76
2.91
17.44
33.83
51.91
71.18
90.66
108.68
123.15
132.08
134.3
129.91
120.18
107.05
92.33
77.19
62.13
47.37
33.2
20.21
9.09
0.23
-6.43
-11.37
-15.17
-18.14
-20.22
-21.08
-20.45
-18.39
-15.34
-11.96
-8.81
-6.01
-3.14
0.58
5.96
13.48
23.06
34.08
45.58
56.56
66.18
73.9
79.46
82.86
84.24
83.82
81.82
78.48
74.12
69.12
63.96
59.09
54.89
51.44
48.56
45.69
42.07
36.93
29.72
20.38
9.59
-1.2
-10.02
-14.84
-14.27
-8.01
2.95
16.7
31.11
44.46
55.53
63.31
66.58
63.71
53.14
34.26
8.42
-20.86
-48.51
-69.53
-80.48
-80.71
-72.51
-60.22
-48.93
-43.31
-46.79
-61.03
-85.52
-117.31
-151.48
-182.28
-204.95
-217.28
-220.05
-215.94
-207.55
-195.8
-179.62
-157.25
-128.18
-94.49
-60.6
-31.56
-10.87
0.84
5.61
6.67
6.75
7.04
7.24
6.13
2.73
-3.01
-10.14
-17.01
-22.08
-24.53
-24.53
-23.05
-21.29
-20.06
-19.62
-19.74
-20.12
-20.69
-21.85
-24.14
-28.03
-33.5
-39.91
-46.23
-51.45
-55.04
-57.27
-58.97
-61.05
-63.85
-66.75
-68.33
-67.09
-62.28
-54.24
-44.28
-33.86
-23.92
-14.62
-5.81
2.34
8.99
12.92
13.38
10.57
5.76
0.49
-4.29
-8.6
-13.11
-18.27
-23.57
-27.49
-28.23
-24.81
-17.75
-8.93
-0.77
5.02
8.21
10.11
12.81
18.26
27.4
39.93
54.82
70.81
86.66
100.93
111.69
116.98
116.12
111.11
106.85
109.43
123.15
147.85
178.35
206.5
225.02
230.55
224.42
210.79
193.54
174.25
152.25
126.28
96.56
65.37
36.13
11.7
-6.83
-20.09
-29.78
-37.46
-44.11
-50.09
-55.44
-60.19
-64.3
-67.43
-69.0
-68.37
-65.17
-59.66
-52.57
-44.88
-37.53
-31.39
-27.29
-25.98
-27.78
-31.96
-36.51
-38.47
-35.09
-24.95
-8.68
11.37
32.22
51.4
67.41
79.49
86.92
88.82
84.58
74.52
60.35
44.67
29.99
17.74
7.98
0.03
-6.68
-12.04
-15.43
-16.35
-15.0
-12.4
-9.94
-8.69
-9.07
-10.86
-13.65
-17.0
-20.5
-23.61
-25.59
-25.66
-23.37
-19.03
-13.69
-8.91
-6.18
-6.4
-9.54
-14.76
-20.7
-25.92
-29.35
-30.55
-29.76
-27.74
-25.54
-24.15
-24.3
-26.29
-29.97
-34.84
-40.13
-45.03
-48.89
-51.31
-52.19
-51.7
-50.3
-48.6
-47.43
-47.69
-50.26
-55.71
-64.09
-74.75
-86.4
-97.41
-106.21
-111.78
-113.92
-113.21
-110.73
-107.4
-103.42
-97.85
-88.66
-73.21
-49.08
-15.04
28.13
77.12
126.52
169.89
201.55
218.21
219.83
209.24
190.8
168.71
145.89
123.8
103.18
84.77
69.61
58.54
51.48
47.18
43.6
38.88
32.14
23.76
15.0
7.33
1.86
-0.84
-0.77
1.72
5.92
10.87
15.58
19.25
21.63
23.08
24.34
26.05
28.41
31.08
33.46
35.11
36.11
37.09
38.94
42.31
47.16
52.68
57.5
60.25
60.07
56.94
51.69
45.64
40.18
36.25
34.07
32.81
30.61
24.87
13.02
-6.31
-32.13
-60.64
-85.92
-101.59
-103.11
-89.6
-64.4
-34.03
-6.0
13.8
22.84
22.26
15.72
7.57
1.06
-2.45
-3.32
-2.8
-2.2
-2.46
-4.12
-7.41
-12.21
-17.98
-23.66
-27.95
-29.85
-29.09
-26.18
-22.17
-18.13
-14.93
-13.18
-13.27
-15.32
-18.98
-23.32
-26.91
-28.47
-27.41
-24.26
-20.44
-17.61
-16.94
-18.6
-21.81
-25.28
-27.79
-28.69
-28.03
-26.38
-24.44
-22.71
-21.23
-19.73
-17.76
-15.08
-11.76
-8.2
-4.92
-2.33
-0.64
0.16
0.19
-0.37
-1.29
-2.19
-2.63
-2.12
-0.4
2.42
5.8
8.98
11.16
11.78
10.58
7.67
3.42
-1.59
-6.74
-11.44
-15.29
-18.14
-20.03
-21.13
-21.52
-21.22
-20.23
-18.67
-16.84
-15.16
-13.94
-13.24
-12.77
-12.09
-10.8
-8.81
-6.43
-4.2
-2.77
-2.6
-3.79
-6.08
-8.91
-11.66
-13.82
-15.13
-15.54
-15.2
-14.25
-12.79
-10.83
-8.34
-5.4
-2.22
0.86
3.46
5.27
6.18
6.32
5.94
5.36
4.81
4.4
4.13
4.0
4.07
4.43
5.12
6.01
6.78
7.1
6.77
5.89
4.8
3.87
3.37
3.28
3.38
3.44
3.32
3.06
2.78
2.52
2.19
1.64
0.75
-0.38
-1.49
-2.28
-2.5
-2.11
-1.24
-0.16
0.86
1.64
2.08
2.18
2.02
1.64
1.09
0.37
-0.51
-1.52
-2.53
-3.44
-4.13
-4.62
-4.99
-5.39
-5.91
-6.52
-7.12
-7.55
-7.7
-7.52
-6.99
-6.04
-4.58
-2.55
-0.09
2.42
4.4
5.29
4.81
3.1
0.69
-1.69
-3.41
-4.13
-3.9
-2.99
-1.78
-0.54
0.6
1.57
2.34
2.84
3.02
2.89
2.59
2.28
2.13
2.19
2.34
2.4
2.17
1.59
0.71
-0.29
-1.23
-1.93
-2.27
-2.23
-1.85
-1.24
-0.57
-0.01
0.33
0.4
0.29
0.09
-0.09
-0.15
-0.09
0.09
0.41
0.87
1.39
1.89
2.19
2.13
1.65
0.8
-0.25
-1.31
-2.25
-3.03
-3.68
-4.32
-5.02
-5.8
-6.64
-7.48
-8.24
-8.82
-9.17
-9.25
-9.13
-8.87
-8.49
-7.99
-7.28
-6.32
-5.16
-3.96
-2.96
-2.42
-2.49
-3.22
-4.53
-6.28
-8.29
-10.34
-12.2
-13.69
-14.81
-15.79
-17.07
-19.13
-22.25
-26.34
-30.87
-35.14
-38.58
-41.15
-43.42
-46.42
-51.08
-57.66
-65.54
-73.27
-79.23
-82.44
-83.16
-82.9
-83.87
-87.86
-95.37
-105.36
-115.89
-125.3
-133.19
-140.48
-148.38
-157.14
-165.04
-168.58
-163.78
-147.69
-119.21
-78.9
-28.41
29.65
90.75
147.47
189.68
207.17
194.17
153.35
96.83
42.79
8.85
5.27
31.4
76.92
126.85
167.72
191.66
197.27
187.73
167.9
142.37
114.83
88.36
65.7
49.28
40.33
38.12
39.88
41.36
38.27
27.87
10.06
-12.46
-34.91
-51.92
-59.04
-53.77
-35.94
-7.41
28.52
67.76
105.89
138.48
161.34
170.82
164.25
140.54
100.92
49.55
-6.54
-58.49
-97.57
-117.54
-116.49
-97.23
-66.18
-31.19
0.65
24.42
37.6
39.56
30.94
13.33
-10.75
-37.97
-64.46
-86.67
-102.09
-109.78
-110.36
-105.37
-96.66
-85.66
-73.05
-58.82
-42.58
-24.01
-3.31
18.65
40.45
60.51
77.62
91.27
101.66
109.42
115.09
118.77
119.89
117.61
111.28
100.97
87.74
73.49
60.33
49.92
42.89
38.75
36.23
33.83
30.42
25.59
19.6
13.01
6.41
0.17
-5.51
-10.49
-14.55
-17.49
-19.18
-19.75
-19.56
-19.14
-18.99
-19.45
-20.57
-22.15
-23.82
-25.1
-25.54
-24.84
-22.92
-19.98
-16.48
-13.1
-10.43
-8.83
-8.17
-7.86
-7.07
-5.02
-1.36
3.74
9.62
15.45
20.42
24.04
26.11
26.73
26.25
25.14
23.97
23.21
23.03
23.16
22.98
21.69
18.71
13.97
7.97
1.55
-4.39
-9.2
-12.65
-14.83
-15.99
-16.39
-16.2
-15.55
-14.65
-13.73
-13.05
-12.75
-12.8
-12.98
-13.01
-12.7
-12.09
-11.37
-10.83
-10.7
-10.98
-11.51
-12.05
-12.35
-12.29
-11.86
-11.13
-10.21
-9.18
-8.16
-7.24
-6.54
-6.12
-6.01
-6.14
-6.38
-6.58
-6.57
-6.3
-5.81
-5.28
-4.9
-4.81
-4.98
-5.27
-5.45
-5.39
-5.04
-4.45
-3.71
-2.85
-1.9
-0.98
-0.27
0.03
-0.21
-0.95
-1.88
-2.64
-2.94
-2.71
-2.17
-1.67
-1.53
-1.88
-2.63
-3.58
-4.49
-5.29
-5.98
-6.63
-7.26
-7.83
-8.28
-8.59
-8.82
-9.16
-9.79
-10.78
-12.03
-13.26
-14.13
-14.36
-13.85
-12.74
-11.35
-10.14
-9.49
-9.69
-10.78
-12.51
-14.37
-15.65
-15.58
-13.54
-9.3
-3.13
4.14
11.3
17.0
20.16
20.27
17.48
12.68
7.16
2.39
-0.38
-0.46
2.17
6.78
12.18
16.95
19.88
20.25
17.94
13.47
7.72
1.71
-3.7
-7.92
-10.7
-12.01
-12.06
-11.1
-9.43
-7.41
-5.44
-3.85
-2.87
-2.51
-2.55
-2.61
-2.33
-1.51
-0.22
1.3
2.78
4.09
5.26
6.42
7.58
8.52
8.79
7.98
6.01
3.27
0.51
-1.47
-2.17
-1.68
-0.52
0.55
0.91
0.27
-1.45
-4.2
-8.04
-13.13
-19.63
-27.42
-35.99
-44.42
-51.53
-56.19
-57.55
-55.11
-48.74
-38.62
-25.17
-9.03
8.91
27.48
45.44
61.61
75.11
85.47
92.65
96.9
98.64
98.31
96.36
93.1
88.61
82.68
74.98
65.18
53.2
39.31
24.16
8.65
-6.11
-18.84
-28.23
-33.24
-33.46
-29.44
-22.67
-15.19
-8.91
-5.08
-3.96
-5.08
-7.6
-10.8
-14.2
-17.46
-20.32
-22.5
-23.82
-24.31
-24.29
-24.19
-24.39
-25.07
-26.22
-27.65
-29.22
-30.87
-32.6
-34.44
-36.33
-38.11
-39.64
-40.86
-41.85
-42.83
-44.02
-45.55
-47.37
-49.34
-51.25
-52.9
-54.13
-54.67
-54.06
-51.73
-47.16
-40.17
-31.2
-21.23
-11.63
-3.74
1.59
4.11
4.3
3.08
1.59
0.9
1.72
4.23
7.88
11.56
13.89
13.88
11.3
6.88
1.94
-2.17
-4.67
-5.52
-5.26
-4.57
-3.93
-3.49
-3.27
-3.29
-3.67
-4.55
-5.92
-7.57
-9.16
-10.48
-11.57
-12.73
-14.47
-17.13
-20.78
-25.02
-29.12
-32.17
-33.35
-32.18
-28.58
-22.94
-15.95
-8.43
-1.08
5.63
11.59
16.89
21.79
26.47
30.95
35.06
38.57
41.28
43.17
44.34
45.02
45.4
45.55
45.38
44.64
43.07
40.43
36.7
32.15
27.33
22.9
19.46
17.32
16.41
16.29
16.28
15.65
13.82
10.57
6.22
1.65
-1.83
-2.87
-0.6
5.0
12.99
21.74
29.48
34.85
37.13
36.36
33.02
27.86
21.62
15.09
9.12
4.58
2.29
2.72
5.86
11.08
17.34
23.39
28.13
30.79
31.07
28.97
24.7
18.5
10.57
1.14
-9.47
-20.72
-31.88
-42.11
-50.62
-56.85
-60.7
-62.47
-62.86
-62.68
-62.6
-62.98
-63.63
-63.88
-62.67
-58.88
-51.79
-41.39
-28.47
-14.4
-0.69
11.47
21.41
28.88
33.87
36.35
36.32
34.0
30.02
25.35
21.1
18.05
16.42
15.85
15.71
15.33
14.37
12.77
10.69
8.37
6.02
3.85
2.04
0.77
0.19
0.27
0.87
1.74
2.58
3.16
3.36
3.21
2.82
2.32
1.81
1.35
0.97
0.7
0.61
0.74
1.07
1.55
1.99
2.19
1.99
1.3
0.21
-1.13
-2.46
-3.6
-4.42
-4.89
-5.03
-4.9
-4.5
-3.83
-2.86
-1.65
-0.34
0.81
1.51
1.5
0.7
-0.73
-2.45
-3.97
-4.78
-4.5
-2.95
-0.23
3.29
7.05
10.42
12.87
14.11
14.15
13.26
11.79
9.99
7.88
5.23
1.67
-3.06
-9.0
-15.81
-22.91
-29.5
-34.76
-37.94
-38.49
-36.2
-31.26
-24.42
-16.78
-9.63
-4.1
-0.82
0.18
-0.56
-2.21
-3.92
-5.13
-5.63
-5.51
-5.08
-4.68
-4.63
-5.11
-6.14
-7.56
-9.02
-10.14
-10.61
-10.32
-9.39
-8.13
-6.9
-5.94
-5.34
-5.08
-5.05
-5.15
-5.26
-5.3
-5.15
-4.76
-4.13
-3.34
-2.46
-1.48
-0.33
1.1
2.85
4.82
6.82
8.68
10.32
11.83
13.36
14.95
16.47
17.6
17.95
17.24
15.42
12.68
9.41
5.99
2.78
-0.04
-2.48
-4.71
-7.09
-10.05
-13.93
-18.76
-24.01
-28.6
-31.13
-30.33
-25.56
-17.1
-6.15
5.51
16.09
24.26
29.38
31.53
31.24
29.29
26.49
23.55
21.06
19.42
18.8
19.12
20.04
21.05
21.57
21.1
19.36
16.39
12.54
8.34
4.35
1.02
-1.41
-2.88
-3.44
-3.19
-2.28
-0.89
0.68
2.06
2.91
3.0
2.34
1.12
-0.38
-1.91
-3.34
-4.6
-5.65
-6.44
-6.86
-6.89
-6.52
-5.86
-5.05
-4.23
-3.55
-3.2
-3.45
-4.57
-6.73
-9.83
-13.53
-17.32
-20.71
-23.4
-25.26
-26.3
-26.51
-25.79
-24.01
-21.08
-17.11
-12.39
-7.4
-2.67
1.33
4.27
6.07
6.83
6.79
6.22
5.33
4.28
3.17
2.17
1.44
1.19
1.51
2.34
3.47
4.61
5.55
6.21
6.58
6.69
6.48
5.8
4.53
2.66
0.42
-1.81
-3.62
-4.71
-5.02
-4.79
-4.43
-4.32
-4.73
-5.71
-7.08
-8.53
-9.67
-10.15
-9.75
-8.42
-6.35
-3.83
-1.22
1.19
3.22
4.84
6.12
7.18
8.11
8.92
9.51
9.71
9.32
8.19
6.32
3.93
1.39
-0.82
-2.32
-2.95
-2.79
-2.12
-1.32
-0.7
-0.49
-0.78
-1.52
-2.57
-3.71
-4.72
-5.42
-5.68
-5.5
-4.97
-4.23
-3.45
-2.75
-2.22
-1.9
-1.81
-1.93
-2.2
-2.49
-2.62
-2.42
-1.78
-0.72
0.55
1.78
2.69
3.15
3.19
3.01
2.83
2.81
2.95
3.15
3.3
3.37
3.49
3.85
4.66
5.92
7.41
8.71
9.4
9.24
8.28
6.86
5.43
4.33
3.72
3.47
3.33
3.04
2.48
1.74
1.06
0.62
0.52
0.59
0.56
0.2
-0.56
-1.54
-2.48
-3.17
-3.58
-3.87
-4.24
-4.74
-5.17
-5.23
-4.64
-3.38
-1.69
-0.01
1.34
2.22
2.76
3.19
3.7
4.28
4.77
4.94
4.69
4.13
3.58
3.47
4.07
5.42
7.18
8.81
9.72
9.55
8.24
6.14
3.77
1.71
0.4
0.07
0.65
1.88
3.34
4.57
5.15
4.87
3.74
2.02
0.1
-1.69
-3.14
-4.25
-5.14
-5.87
-6.42
-6.62
-6.27
-5.26
-3.7
-1.91
-0.32
0.67
0.88
0.35
-0.61
-1.62
-2.34
-2.59
-2.37
-1.78
-1.01
-0.17
0.63
1.33
1.88
2.2
2.27
2.07
1.74
1.47
1.49
2.05
3.25
5.03
7.14
9.22
10.83
11.6
11.26
9.78
7.32
4.25
1.09
-1.63
-3.54
-4.5
-4.69
-4.55
-4.55
-5.05
-6.13
-7.51
-8.74
-9.29
-8.8
-7.19
-4.67
-1.67
1.3
3.83
5.6
6.51
6.61
6.11
5.29
4.5
4.04
4.14
4.91
6.3
8.11
9.95
11.41
12.06
11.66
10.21
7.89
5.05
2.04
-0.88
-3.61
-6.14
-8.5
-10.66
-12.56
-14.08
-15.13
-15.7
-15.87
-15.79
-15.61
-15.42
-15.19
-14.82
-14.11
-12.9
-11.1
-8.76
-6.03
-3.15
-0.36
2.12
4.13
5.56
6.32
6.38
5.79
4.73
3.49
2.47
1.98
2.23
3.22
4.79
6.71
8.76
10.74
12.46
13.72
14.28
13.97
12.68
10.52
7.77
4.87
2.28
0.32
-0.88
-1.41
-1.52
-1.55
-1.79
-2.45
-3.59
-5.13
-6.86
-8.46
-9.57
-9.88
-9.16
-7.4
-4.79
-1.72
1.27
3.61
4.91
4.99
4.01
2.37
0.58
-0.92
-1.87
-2.22
-2.14
-1.83
-1.5
-1.29
-1.24
-1.28
-1.2
-0.69
0.58
2.74
5.55
8.37
10.26
10.4
8.36
4.43
-0.47
-5.12
-8.4
-9.68
-8.91
-6.5
-3.06
0.86
4.86
8.66
12.04
14.71
16.37
16.83
16.12
14.55
12.69
11.19
10.55
10.95
12.17
13.69
14.86
15.16
14.36
12.51
9.86
6.68
3.19
-0.43
-4.0
-7.29
-10.05
-12.1
-13.48
-14.46
-15.45
-16.85
-18.83
-21.32
-24.0
-26.51
-28.53
-29.95
-30.8
-31.28
-31.61
-31.96
-32.35
-32.68
-32.72
-32.23
-30.94
-28.68
-25.36
-21.01
-15.83
-10.13
-4.23
1.59
7.13
12.36
17.32
22.05
26.47
30.35
33.41
35.44
36.4
36.52
36.16
35.69
35.31
35.02
34.66
34.04
32.99
31.47
29.49
27.15
24.59
22.01
19.75
18.1
17.23
17.1
17.43
17.86
18.05
17.8
17.03
15.74
13.99
11.89
9.68
7.67
6.18
5.4
5.21
5.28
5.16
4.45
3.06
1.13
-1.05
-3.13
-4.91
-6.31
-7.34
-8.05
-8.46
-8.61
-8.58
-8.49
-8.51
-8.73
-9.14
-9.58
-9.83
-9.7
-9.12
-8.19
-7.15
-6.22
-5.48
-4.96
-4.56
-4.27
-4.19
-4.49
-5.34
-6.74
-8.49
-10.21
-11.52
-12.1
-11.94
-11.21
-10.25
-9.41
-8.88
-8.7
-8.77
-8.97
-9.22
-9.58
-10.12
-10.87
-11.68
-12.25
-12.25
-11.47
-9.91
-7.82
-5.59
-3.56
-1.94
-0.79
-0.03
0.47
0.78
0.91
0.86
0.63
0.28
-0.05
-0.23
-0.14
0.17
0.56
0.87
0.95
0.81
0.61
0.53
0.7
1.1
1.55
1.82
1.75
1.33
0.71
0.11
-0.3
-0.4
-0.21
0.21
0.76
1.39
2.1
2.92
3.88
4.91
5.88
6.58
6.82
6.51
5.74
4.73
3.78
3.15
2.93
3.05
3.31
3.45
3.31
2.88
2.28
1.7
1.32
1.16
1.14
1.08
0.81
0.28
-0.44
-1.16
-1.72
-2.03
-2.11
-2.05
-1.89
-1.66
-1.29
-0.73
-0.02
0.75
1.36
1.67
1.6
1.19
0.59
-0.01
-0.51
-0.82
-0.96
-0.97
-0.91
-0.81
-0.71
-0.69
-0.82
-1.16
-1.76
-2.56
-3.46
-4.29
-4.94
-5.39
-5.7
-5.98
-6.32
-6.7
-7.0
-7.02
-6.57
-5.63
-4.32
-2.9
-1.63
-0.65
0.07
0.64
1.18
1.66
1.93
1.85
1.38
0.69
0.03
-0.37
-0.43
-0.26
-0.04
0.08
0.07
-0.0
-0.06
-0.13
-0.3
-0.68
-1.3
-2.08
-2.81
-3.31
-3.44
-3.15
-2.5
-1.57
-0.44
0.82
2.13
3.42
4.61
5.58
6.29
6.7
6.81
6.64
6.24
5.7
5.19
4.81
4.68
4.78
4.99
5.14
5.11
4.88
4.61
4.52
4.8
5.46
6.38
7.26
7.83
7.93
7.62
7.15
6.87
7.04
7.75
8.86
10.07
11.08
11.68
11.78
11.44
10.74
9.75
8.56
7.28
6.07
5.09
4.47
4.2
4.19
4.29
4.39
4.46
4.5
4.49
4.32
3.87
3.01
1.72
0.15
-1.42
-2.7
-3.49
-3.78
-3.7
-3.48
-3.32
-3.41
-3.84
-4.68
-5.93
-7.48
-9.11
-10.39
-10.9
-10.27
-8.39
-5.48
-1.98
1.57
4.73
7.25
9.04
10.14
10.65
10.63
10.19
9.41
8.34
6.98
5.23
2.96
0.1
-3.26
-6.86
-10.29
-13.15
-15.21
-16.43
-17.0
-17.17
-17.1
-16.79
-16.06
-14.65
-12.43
-9.48
-6.21
-3.16
-0.94
0.09
-0.22
-1.68
-3.97
-6.66
-9.44
-12.02
-14.19
-15.72
-16.35
-15.87
-14.24
-11.66
-8.59
-5.7
-3.52
-2.39
-2.31
-2.99
-4.02
-5.01
-5.74
-6.18
-6.4
-6.49
-6.52
-6.56
-6.58
-6.62
-6.65
-6.65
-6.53
-6.22
-5.6
-4.64
-3.38
-1.91
-0.43
0.9
1.94
2.66
3.06
3.18
3.1
2.87
2.57
2.29
2.08
1.93
1.78
1.51
1.02
0.3
-0.61
-1.58
-2.5
-3.27
-3.84
-4.25
-4.52
-4.67
-4.74
-4.78
-4.84
-4.96
-5.11
-5.22
-5.17
-4.85
-4.18
-3.17
-1.87
-0.37
1.23
2.83
4.32
5.61
6.55
7.06
7.06
6.6
5.79
4.8
3.82
3.01
2.48
2.3
2.46
2.95
3.63
4.35
4.91
5.14
4.98
4.45
3.66
2.75
1.82
0.92
0.07
-0.73
-1.43
-2.0
-2.37
-2.54
-2.49
-2.19
-1.62
-0.78
0.28
1.47
2.65
3.7
4.52
5.12
5.49
5.61
5.44
4.95
4.15
3.15
2.11
1.2
0.51
0.08
-0.1
-0.07
0.15
0.51
0.94
1.34
1.68
1.96
2.22
2.56
2.98
3.35
3.46
3.08
2.04
0.39
-1.66
-3.78
-5.57
-6.73
-7.12
-6.76
-5.84
-4.59
-3.3
-2.16
-1.29
-0.78
-0.66
-0.95
-1.59
-2.49
-3.42
-4.16
-4.5
-4.38
-3.87
-3.18
-2.53
-2.05
-1.79
-1.71
-1.74
-1.85
-2.06
-2.45
-3.03
-3.8
-4.67
-5.57
-6.44
-7.26
-8.03
-8.68
-9.07
-9.04
-8.48
-7.38
-5.92
-4.32
-2.83
-1.61
-0.72
-0.16
0.1
0.08
-0.21
-0.67
-1.15
-1.47
-1.45
-1.1
-0.52
0.04
0.33
0.25
-0.18
-0.77
-1.33
-1.7
-1.84
-1.81
-1.74
-1.77
-2.05
-2.63
-3.48
-4.45
-5.29
-5.76
-5.68
-5.01
-3.83
-2.28
-0.54
1.21
2.83
4.16
5.08
5.53
5.55
5.2
4.64
3.99
3.41
3.02
2.9
3.1
3.55
4.09
4.52
4.65
4.44
3.98
3.45
2.97
2.53
2.01
1.25
0.14
-1.26
-2.75
-4.08
-5.02
-5.44
-5.31
-4.67
-3.61
-2.26
-0.68
1.02
2.76
4.43
5.95
7.2
8.08
8.5
8.4
7.8
6.75
5.4
3.96
2.7
1.9
1.66
1.98
2.6
3.17
3.38
3.08
2.32
1.31
0.28
-0.65
-1.51
-2.45
-3.62
-5.01
-6.47
-7.69
-8.34
-8.17
-7.09
-5.23
-2.84
-0.25
2.23
4.39
6.09
7.26
7.89
8.0
7.64
6.95
6.1
5.3
4.73
4.47
4.49
4.68
4.88
5.0
4.95
4.7
4.2
3.47
2.56
1.53
0.5
-0.43
-1.25
-2.0
-2.77
-3.65
-4.7
-5.91
-7.15
-8.27
-9.02
-9.22
-8.79
-7.78
-6.4
-4.91
-3.55
-2.43
-1.52
-0.74
-0.07
0.47
0.78
0.81
0.6
0.33
0.22
0.43
0.99
1.8
2.66
3.38
3.77
3.78
3.41
2.73
1.89
1.03
0.25
-0.42
-1.02
-1.7
-2.58
-3.67
-4.88
-5.98
-6.67
-6.76
-6.19
-5.05
-3.55
-1.92
-0.3
1.2
2.57
3.74
4.63
5.13
5.14
4.71
3.97
3.19
2.6
2.41
2.6
3.05
3.52
3.77
3.66
3.23
2.6
1.97
1.48
1.14
0.84
0.43
-0.21
-1.16
-2.37
-3.79
-5.29
-6.69
-7.76
-8.26
-7.96
-6.81
-4.93
-2.63
-0.25
1.89
3.6
4.84
5.67
6.12
6.22
6.0
5.5
4.81
4.09
3.47
3.05
2.82
2.73
2.71
2.68
2.62
2.51
2.36
2.12
1.73
1.16
0.41
-0.47
-1.41
-2.34
-3.23
-4.08
-4.87
-5.57
-6.12
-6.42
-6.39
-5.93
-4.97
-3.52
-1.71
0.24
2.07
3.54
4.55
5.1
5.27
5.17
4.85
4.31
3.55
2.62
1.65
0.83
0.29
0.06
0.02
-0.04
-0.32
-0.9
-1.76
-2.79
-3.89
-4.96
-6.04
-7.15
-8.34
-9.61
-10.93
-12.3
-13.74
-15.32
-17.05
-18.92
-20.8
-22.47
-23.67
-24.19
-23.88
-22.8
-21.17
-19.38
-17.89
-16.99
-16.77
-17.0
-17.29
-17.18
-16.36
-14.71
-12.33
-9.46
-6.33
-3.12
0.07
3.21
6.29
9.32
12.33
15.36
18.44
21.5
24.36
26.73
28.29
28.81
28.22
26.69
24.55
22.13
19.69
17.36
15.19
13.27
11.81
11.02
11.06
11.85
13.02
14.03
14.42
14.0
12.91
11.53
10.25
9.24
8.46
7.71
6.86
5.91
4.99
4.21
3.57
2.92
2.14
1.23
0.41
-0.03
0.11
0.81
1.79
2.66
3.05
2.81
2.03
0.95
-0.12
-0.94
-1.48
-1.78
-2.05
-2.46
-3.11
-3.95
-4.77
-5.25
-5.12
-4.27
-2.79
-0.94
0.95
2.62
3.93
4.87
5.53
5.95
6.2
6.24
6.08
5.71
5.18
4.55
3.86
3.13
2.33
1.36
0.11
-1.51
-3.54
-5.95
-8.59
-11.29
-13.81
-15.9
-17.32
-17.83
-17.28
-15.56
-12.69
-8.75
-3.9
1.73
7.95
14.55
21.18
27.38
32.65
36.54
38.86
39.69
39.3
38.03
36.11
33.59
30.44
26.67
22.41
17.94
13.65
9.85
6.79
4.54
3.07
2.25
1.88
1.71
1.54
1.17
0.53
-0.4
-1.59
-3.0
-4.57
-6.16
-7.64
-8.83
-9.65
-10.13
-10.42
-10.69
-11.06
-11.49
-11.87
-12.05
-11.98
-11.66
-11.15
-10.38
-9.3
-7.82
-6.02
-4.11
-2.39
-1.11
-0.33
0.05
0.24
0.42
0.69
1.0
1.32
1.6
1.85
2.06
2.23
2.3
2.19
1.88
1.37
0.71
0.01
-0.62
-1.09
-1.34
-1.39
-1.33
-1.3
-1.41
-1.71
-2.17
-2.72
-3.27
-3.72
-4.0
-4.07
-3.93
-3.59
-3.12
-2.59
-2.06
-1.58
-1.14
-0.77
-0.46
-0.25
-0.24
-0.51
-1.07
-1.83
-2.66
-3.35
-3.75
-3.76
-3.41
-2.82
-2.15
-1.52
-1.02
-0.68
-0.44
-0.24
-0.09
0.01
0.01
-0.14
-0.45
-0.83
-1.21
-1.53
-1.77
-2.01
-2.34
-2.82
-3.48
-4.24
-4.98
-5.58
-5.9
-5.86
-5.42
-4.61
-3.53
-2.33
-1.24
-0.42
0.02
0.07
-0.18
-0.6
-1.09
-1.59
-2.05
-2.43
-2.65
-2.62
-2.34
-1.87
-1.38
-1.04
-0.94
-1.06
-1.27
-1.44
-1.5
-1.46
-1.43
-1.54
-1.84
-2.33
-2.93
-3.54
-4.09
-4.55
-4.94
-5.3
-5.65
-6.0
-6.28
-6.43
-6.35
-6.01
-5.41
-4.6
-3.65
-2.65
-1.66
-0.77
-0.06
0.36
0.42
0.06
-0.62
-1.46
-2.26
-2.85
-3.16
-3.22
-3.09
-2.83
-2.46
-1.99
-1.43
-0.86
-0.36
-0.02
0.08
-0.08
-0.49
-1.1
-1.87
-2.78
-3.85
-5.14
-6.63
-8.27
-9.87
-11.21
-12.1
-12.44
-12.29
-11.81
-11.19
-10.55
-9.92
-9.32
-8.85
-8.67
-9.02
-10.06
-11.74
-13.8
-15.83
-17.44
-18.47
-19.03
-19.49
-20.3
-21.78
-23.96
-26.63
-29.4
-31.9
-33.95
-35.56
-36.91
-38.2
-39.46
-40.43
-40.66
-39.57
-36.47
-30.65
-21.37
-8.02
9.44
30.23
52.53
73.73
91.13
102.74
107.89
107.18
102.0
93.73
83.24
70.84
56.79
41.72
26.9
13.91
4.04
-2.13
-4.93
-5.26
-4.13
-2.27
-0.02
2.45
4.87
6.71
7.3
6.14
3.13
-1.3
-6.4
-11.37
-15.66
-19.13
-22.02
-24.73
-27.58
-30.62
-33.58
-35.92
-37.13
-36.89
-35.26
-32.6
-29.36
-25.93
-22.49
-19.02
-15.49
-11.91
-8.36
-4.91
-1.49
2.07
5.95
10.11
14.2
17.7
20.1
21.23
21.36
21.12
21.2
21.98
23.42
25.04
26.22
26.5
25.8
24.48
23.13
22.35
22.53
23.82
26.04
28.85
31.79
34.27
35.65
35.33
32.89
28.32
22.05
15.0
8.34
3.21
0.44
0.31
2.52
6.28
10.59
14.45
17.07
17.84
16.28
12.04
5.08
-4.15
-14.5
-24.34
-31.9
-35.93
-36.15
-33.2
-28.29
-22.57
-16.74
-11.03
-5.54
-0.63
2.96
4.36
2.94
-1.23
-7.42
-14.51
-21.33
-26.89
-30.37
-31.04
-28.33
-22.18
-13.37
-3.66
4.57
9.17
9.01
4.4
-3.09
-11.37
-18.68
-24.07
-27.4
-28.96
-29.0
-27.53
-24.42
-19.79
-14.21
-8.72
-4.48
-2.43
-2.89
-5.54
-9.61
-14.18
-18.51
-22.15
-24.87
-26.54
-27.02
-26.14
-23.77
-19.96
-15.06
-9.6
-4.3
0.19
3.48
5.49
6.45
6.76
6.79
6.79
6.88
7.07
7.37
7.71
8.07
8.38
8.58
8.6
8.42
8.04
7.5
6.8
5.96
4.92
3.66
2.21
0.62
-0.97
-2.43
-3.56
-4.19
-4.16
-3.37
-1.87
0.2
2.55
4.85
6.77
8.12
8.81
8.88
8.42
7.52
6.3
4.93
3.6
2.55
1.92
1.74
1.82
1.86
1.59
0.86
-0.28
-1.62
-2.96
-4.17
-5.29
-6.42
-7.65
-9.0
-10.39
-11.74
-12.95
-13.96
-14.66
-14.84
-14.23
-12.63
-9.97
-6.44
-2.42
1.61
5.24
8.21
10.44
11.95
12.77
12.87
12.18
10.7
8.51
5.85
3.1
0.62
-1.29
-2.54
-3.22
-3.49
-3.54
-3.5
-3.42
-3.28
-3.13
-3.06
-3.18
-3.65
-4.57
-5.92
-7.56
-9.21
-10.5
-11.09
-10.77
-9.57
-7.75
-5.68
-3.66
-1.88
-0.34
1.01
2.12
2.87
3.04
2.53
1.41
0.02
-1.19
-1.82
-1.69
-0.88
0.31
1.56
2.62
3.41
4.0
4.41
4.64
4.6
4.21
3.43
2.38
1.22
0.1
-0.88
-1.73
-2.45
-2.99
-3.24
-3.02
-2.23
-0.88
0.86
2.73
4.48
5.92
6.98
7.69
8.12
8.33
8.36
8.23
7.97
7.66
7.42
7.31
7.35
7.49
7.58
7.51
7.18
6.56
5.7
4.72
3.74
2.9
2.25
1.76
1.37
1.01
0.66
0.31
-0.05
-0.5
-1.15
-2.05
-3.18
-4.31
-5.14
-5.37
-4.85
-3.63
-1.96
-0.16
1.46
2.72
3.59
4.15
4.54
4.87
5.19
5.53
5.84
6.1
6.28
6.44
6.58
6.72
6.82
6.8
6.65
6.37
6.05
5.74
5.49
5.24
4.86
4.26
3.41
2.37
1.29
0.3
-0.53
-1.18
-1.68
-2.08
-2.45
-2.88
-3.48
-4.32
-5.34
-6.33
-6.98
-7.0
-6.21
-4.69
-2.69
-0.52
1.58
3.45
5.06
6.35
7.27
7.7
7.59
6.98
6.03
4.98
4.07
3.48
3.26
3.34
3.6
3.85
3.94
3.73
3.16
2.29
1.22
0.14
-0.8
-1.53
-2.1
-2.66
-3.4
-4.42
-5.68
-7.04
-8.31
-9.35
-10.13
-10.73
-11.23
-11.73
-12.16
-12.41
-12.28
-11.62
-10.31
-8.38
-5.94
-3.14
-0.18
2.79
5.61
8.09
10.03
11.26
11.7
11.38
10.48
9.2
7.74
6.27
4.95
3.96
3.42
3.41
3.86
4.55
5.2
5.56
5.48
4.92
3.94
2.67
1.25
-0.15
-1.33
-2.12
-2.39
-2.12
-1.45
-0.58
0.2
0.64
0.59
-0.01
-1.1
-2.55
-4.14
-5.67
-6.89
-7.57
-7.57
-6.85
-5.56
-3.95
-2.33
-0.96
0.03
0.67
1.03
1.2
1.22
1.07
0.69
0.05
-0.79
-1.72
-2.58
-3.22
-3.51
-3.44
-2.99
-2.23
-1.22
-0.05
1.2
2.42
3.5
4.33
4.88
5.15
5.24
5.26
5.31
5.42
5.59
5.72
5.74
5.6
5.25
4.7
3.93
2.83
1.3
-0.71
-3.12
-5.61
-7.74
-9.06
-9.28
-8.43
-6.79
-4.79
-2.86
-1.3
-0.21
0.42
0.66
0.53
0.06
-0.72
-1.68
-2.64
-3.39
-3.76
-3.68
-3.22
-2.51
-1.77
-1.15
-0.73
-0.51
-0.39
-0.22
0.1
0.65
1.44
2.39
3.42
4.43
5.35
6.12
6.65
6.84
6.61
5.93
4.91
3.75
2.66
1.81
1.22
0.81
0.4
-0.16
-0.98
-2.04
-3.28
-4.63
-6.0
-7.3
-8.46
-9.35
-9.84
-9.86
-9.33
-8.3
-6.92
-5.33
-3.75
-2.32
-1.19
-0.38
0.05
0.12
-0.1
-0.48
-0.84
-0.99
-0.77
-0.15
0.82
1.95
3.07
4.07
4.91
5.59
6.11
6.47
6.63
6.63
6.51
6.33
6.11
5.81
5.33
4.6
3.61
2.4
1.09
-0.27
-1.69
-3.22
-4.83
-6.38
-7.56
-7.99
-7.4
-5.75
-3.3
-0.57
1.85
3.51
4.21
4.0
3.12
1.89
0.54
-0.69
-1.65
-2.18
-2.17
-1.6
-0.56
0.74
2.0
2.92
3.32
3.15
2.53
1.68
0.82
0.08
-0.51
-1.05
-1.66
-2.4
-3.25
-4.11
-4.91
-5.63
-6.36
-7.23
-8.33
-9.61
-10.87
-11.79
-12.07
-11.57
-10.38
-8.74
-6.97
-5.27
-3.71
-2.24
-0.81
0.53
1.61
2.27
2.41
2.17
1.82
1.68
1.96
2.67
3.67
4.72
5.67
6.44
7.03
7.45
7.67
7.61
7.19
6.42
5.35
4.08
2.71
1.35
0.05
-1.16
-2.23
-3.15
-3.91
-4.52
-5.04
-5.51
-5.94
-6.3
-6.49
-6.42
-5.99
-5.2
-4.08
-2.72
-1.25
0.23
1.61
2.83
3.79
4.43
4.72
4.74
4.66
4.64
4.76
5.0
5.22
5.3
5.18
4.9
4.53
4.15
3.73
3.18
2.43
1.42
0.17
-1.23
-2.65
-4.0
-5.2
-6.22
-7.05
-7.71
-8.21
-8.5
-8.48
-8.09
-7.3
-6.16
-4.83
-3.45
-2.18
-1.12
-0.3
0.23
0.49
0.47
0.24
-0.09
-0.39
-0.52
-0.36
0.12
0.92
1.98
3.23
4.5
5.57
6.18
6.15
5.36
3.9
1.98
-0.11
-2.08
-3.72
-4.93
-5.71
-6.14
-6.38
-6.59
-6.92
-7.4
-7.96
-8.45
-8.68
-8.55
-8.1
-7.45
-6.72
-5.95
-5.04
-3.91
-2.51
-0.94
0.64
2.0
3.04
3.74
4.2
4.62
5.16
5.96
7.02
8.31
9.69
10.95
11.86
12.25
12.04
11.27
10.08
8.61
6.99
5.32
3.66
2.06
0.59
-0.75
-1.98
-3.19
-4.45
-5.8
-7.16
-8.35
-9.16
-9.42
-9.1
-8.29
-7.2
-6.0
-4.85
-3.83
-2.94
-2.18
-1.56
-1.06
-0.64
-0.25
0.21
0.85
1.73
2.86
4.17
5.54
6.78
7.74
8.27
8.3
7.84
6.95
5.74
4.36
2.9
1.44
0.01
-1.41
-2.84
-4.29
-5.72
-7.02
-8.02
-8.51
-8.34
-7.48
-6.06
-4.26
-2.29
-0.29
1.71
3.73
5.75
7.71
9.47
10.85
11.68
11.84
11.32
10.25
8.87
7.53
6.56
6.18
6.41
7.09
7.95
8.71
9.22
9.36
9.11
8.49
7.53
6.25
4.72
2.9
0.7
-2.05
-5.51
-9.71
-14.43
-19.27
-23.64
-26.95
-28.73
-28.76
-27.1
-24.07
-20.2
-16.11
-12.35
-9.34
-7.24
-5.98
-5.31
-4.91
-4.46
-3.68
-2.42
-0.65
1.55
3.97
6.31
8.29
9.68
10.37
10.38
9.8
8.76
7.44
6.01
4.65
3.53
2.73
2.21
1.79
1.19
0.19
-1.28
-3.04
-4.69
-5.77
-5.86
-4.79
-2.68
0.16
3.25
6.1
8.26
9.49
9.73
9.14
8.02
6.8
5.86
5.49
5.8
6.66
7.84
9.02
9.97
10.56
10.76
10.61
10.15
9.35
8.18
6.62
4.72
2.61
0.51
-1.39
-2.92
-3.98
-4.62
-5.01
-5.43
-6.11
-7.14
-8.43
-9.7
-10.62
-10.91
-10.47
-9.33
-7.65
-5.63
-3.48
-1.45
0.22
1.27
1.59
1.19
0.32
-0.61
-1.16
-0.93
0.24
2.29
4.92
7.69
10.16
11.98
12.97
13.12
12.61
11.68
10.6
9.54
8.54
7.54
6.39
4.98
3.27
1.37
-0.57
-2.34
-3.74
-4.62
-4.9
-4.55
-3.67
-2.41
-1.0
0.38
1.59
2.6
3.44
4.18
4.87
5.49
6.03
6.43
6.66
6.73
6.67
6.54
6.48
6.61
6.96
7.46
7.91
8.05
7.72
6.94
5.92
4.97
4.26
3.82
3.52
3.14
2.51
1.6
0.48
-0.73
-1.9
-2.86
-3.42
-3.36
-2.56
-1.04
0.97
3.1
4.99
6.39
7.25
7.67
7.79
7.72
7.46
6.99
6.33
5.59
4.95
4.61
4.66
5.01
5.4
5.54
5.22
4.39
3.17
1.76
0.31
-1.18
-2.76
-4.51
-6.36
-8.14
-9.59
-10.48
-10.75
-10.52
-9.97
-9.26
-8.46
-7.53
-6.38
-5.0
-3.45
-1.92
-0.59
0.39
1.03
1.39
1.59
1.76
1.97
2.24
2.55
2.91
3.29
3.71
4.11
4.45
4.64
4.53
4.01
3.0
1.47
-0.48
-2.7
-5.0
-7.21
-9.25
-11.18
-13.11
-15.18
-17.41
-19.67
-21.71
-23.23
-24.01
-23.88
-22.82
-20.86
-18.05
-14.47
-10.24
-5.57
-0.83
3.53
7.03
9.26
10.03
9.41
7.72
5.51
3.39
1.9
1.39
1.96
3.45
5.55
7.85
9.96
11.62
12.67
13.13
13.09
12.66
11.92
10.88
9.52
7.83
5.94
4.07
2.53
1.61
1.53
2.35
4.04
6.43
9.23
12.04
14.38
15.86
16.32
15.96
15.26
14.83
15.14
16.26
17.87
19.28
19.7
18.51
15.44
10.66
4.76
-1.42
-6.98
-11.18
-13.61
-14.28
-13.62
-12.32
-11.11
-10.56
-10.98
-12.41
-14.69
-17.61
-20.92
-24.33
-27.5
-30.03
-31.53
-31.74
-30.61
-28.38
-25.48
-22.46
-19.84
-18.04
-17.22
-17.18
-17.43
-17.22
-15.93
-13.28
-9.47
-5.13
-0.98
2.52
5.28
7.5
9.44
11.14
12.42
12.99
12.7
11.69
10.3
8.89
7.67
6.63
5.59
4.33
2.69
0.66
-1.6
-3.75
-5.36
-6.07
-5.66
-4.15
-1.84
0.85
3.57
6.15
8.65
11.29
14.31
17.89
22.01
26.52
31.09
35.26
38.55
40.5
40.87
39.66
37.1
33.6
29.51
25.15
20.75
16.58
12.96
10.28
8.82
8.64
9.44
10.63
11.43
11.1
9.17
5.51
0.45
-5.31
-10.82
-15.06
-17.24
-17.03
-14.61
-10.75
-6.52
-3.07
-1.34
-1.85
-4.64
-9.32
-15.21
-21.46
-27.27
-31.92
-34.88
-35.82
-34.68
-31.67
-27.27
-22.16
-17.04
-12.49
-8.8
-6.0
-3.87
-2.17
-0.74
0.41
1.15
1.26
0.59
-0.95
-3.3
-6.19
-9.18
-11.64
-12.9
-12.41
-9.94
-5.71
-0.33
5.35
10.6
15.02
18.62
21.73
24.67
27.55
30.12
31.95
32.66
32.18
30.83
29.21
27.85
26.92
26.12
24.78
22.18
17.97
12.35
6.1
0.24
-4.38
-7.4
-9.05
-9.97
-10.92
-12.48
-14.97
-18.42
-22.53
-26.44
-28.58
-26.81
-19.05
-4.34
16.24
39.45
60.65
75.42
81.04
77.27
66.01
50.16
32.45
14.8
-1.58
-15.7
-26.39
-32.47
-33.24
-29.03
-21.36
-12.58
-5.16
-0.95
-0.71
-4.03
-9.66
-15.99
-21.61
-25.74
-28.32
-29.92
-31.45
-33.72
-37.09
-41.34
-45.76
-49.36
-51.18
-50.56
-47.24
-41.35
-33.52
-24.91
-17.22
-12.38
-11.89
-16.15
-23.99
-32.88
-39.79
-42.31
-39.65
-32.78
-23.88
-15.3
-8.68
-4.61
-2.81
-2.7
-3.89
-6.24
-9.72
-14.18
-19.26
-24.48
-29.49
-34.14
-38.58
-43.0
-47.42
-51.5
-54.54
-55.71
-54.35
-50.3
-44.06
-36.58
-28.96
-22.06
-16.17
-11.04
-6.07
-0.6
5.84
13.42
22.05
31.47
41.34
51.26
60.79
69.51
77.03
83.0
87.19
89.42
89.64
87.95
84.64
80.19
75.21
70.22
65.56
61.33
57.41
53.55
49.48
45.01
40.1
34.89
29.62
24.61
20.13
16.28
13.02
10.19
7.63
5.34
3.51
2.43
2.33
3.22
4.83
6.72
8.38
9.5
10.02
10.14
10.14
10.2
10.31
10.26
9.8
8.77
7.21
5.33
3.36
1.49
-0.28
-2.09
-4.12
-6.41
-8.81
-10.91
-12.22
-12.22
-10.61
-7.31
-2.44
3.66
10.56
17.73
24.61
30.64
35.39
38.62
40.28
40.5
39.48
37.46
34.65
31.31
27.75
24.27
21.11
18.42
16.22
14.48
13.12
12.08
11.33
10.85
10.67
10.8
11.24
11.84
12.24
12.0
10.69
8.19
4.76
1.06
-2.15
-4.26
-5.1
-4.92
-4.26
-3.71
-3.63
-4.06
-4.85
-5.77
-6.67
-7.53
-8.42
-9.41
-10.42
-11.28
-11.8
-11.93
-11.78
-11.69
-12.06
-13.14
-14.88
-16.91
-18.56
-19.16
-18.22
-15.65
-11.79
-7.33
-3.06
0.39
2.71
3.96
4.43
4.44
4.15
3.58
2.67
1.47
0.2
-0.81
-1.31
-1.31
-1.18
-1.48
-2.73
-5.1
-8.31
-11.69
-14.51
-16.18
-16.62
-16.14
-15.32
-14.75
-14.77
-15.4
-16.39
-17.4
-18.12
-18.32
-17.88
-16.69
-14.7
-11.95
-8.63
-5.12
-1.91
0.57
2.11
2.77
2.86
2.79
2.87
3.23
3.75
4.24
4.49
4.45
4.18
3.81
3.43
2.97
2.25
1.05
-0.8
-3.26
-6.08
-8.93
-11.46
-13.48
-15.04
-16.31
-17.58
-19.05
-20.79
-22.71
-24.58
-26.16
-27.23
-27.71
-27.63
-27.14
-26.45
-25.73
-25.16
-24.82
-24.82
-25.26
-26.33
-28.25
-31.2
-35.18
-39.97
-45.05
-49.72
-53.29
-55.13
-54.8
-52.05
-46.82
-39.23
-29.64
-18.6
-6.8
5.16
16.89
28.39
39.83
51.3
62.49
72.59
80.5
85.2
86.05
83.07
76.8
68.1
57.9
47.04
36.22
25.92
16.44
7.89
0.27
-6.44
-12.12
-16.51
-19.26
-20.16
-19.26
-16.97
-13.95
-10.85
-8.13
-5.96
-4.28
-2.96
-2.02
-1.66
-2.18
-3.82
-6.59
-10.16
-14.01
-17.58
-20.47
-22.57
-23.97
-24.85
-25.38
-25.55
-25.3
-24.5
-23.07
-21.02
-18.43
-15.51
-12.51
-9.68
-7.28
-5.46
-4.2
-3.4
-2.87
-2.44
-2.04
-1.7
-1.54
-1.62
-1.88
-2.11
-2.02
-1.35
-0.01
1.88
4.07
6.28
8.32
10.13
11.74
13.22
14.59
15.82
16.87
17.68
18.28
18.7
18.98
19.1
19.04
18.78
18.35
17.88
17.49
17.3
17.34
17.51
17.6
17.41
16.79
15.67
14.15
12.35
10.47
8.64
6.89
5.2
3.46
1.61
-0.35
-2.27
-3.98
-5.36
-6.45
-7.43
-8.6
-10.22
-12.37
-14.94
-17.61
-20.01
-21.84
-22.99
-23.58
-23.94
-24.49
-25.59
-27.38
-29.66
-31.97
-33.7
-34.28
-33.31
-30.65
-26.4
-20.81
-14.31
-7.43
-0.78
5.05
9.59
12.66
14.39
15.17
15.5
15.85
16.48
17.47
18.72
20.08
21.4
22.56
23.44
23.91
23.77
22.75
20.62
17.3
12.99
8.09
3.16
-1.35
-5.18
-8.41
-11.3
-14.16
-17.15
-20.17
-22.95
-25.13
-26.42
-26.69
-26.0
-24.5
-22.41
-19.94
-17.28
-14.53
-11.8
-9.16
-6.7
-4.55
-2.8
-1.42
-0.23
1.05
2.68
4.78
7.19
9.55
11.42
12.46
12.49
11.57
9.84
7.51
4.82
2.02
-0.65
-2.96
-4.76
-5.97
-6.56
-6.49
-5.74
-4.32
-2.3
0.13
2.71
5.25
7.71
10.1
12.5
14.9
17.12
18.89
19.91
20.01
19.21
17.74
15.93
14.11
12.5
11.15
9.96
8.75
7.33
5.52
3.23
0.47
-2.66
-5.99
-9.27
-12.24
-14.73
-16.66
-18.07
-19.09
-19.87
-20.51
-21.06
-21.47
-21.67
-21.52
-20.9
-19.75
-18.08
-16.0
-13.7
-11.4
-9.26
-7.37
-5.69
-4.19
-2.8
-1.5
-0.28
0.91
2.17
3.61
5.31
7.25
9.21
10.89
11.99
12.31
11.83
10.71
9.24
7.68
6.24
5.01
3.96
2.96
1.8
0.31
-1.61
-3.85
-6.15
-8.12
-9.44
-9.97
-9.8
-9.22
-8.49
-7.81
-7.16
-6.42
-5.45
-4.21
-2.8
-1.39
-0.13
0.88
1.68
2.37
3.07
3.88
4.89
6.13
7.62
9.28
10.92
12.3
13.09
13.02
11.96
9.95
7.17
3.88
0.34
-3.23
-6.67
-9.81
-12.53
-14.7
-16.2
-17.01
-17.12
-16.56
-15.4
-13.71
-11.58
-9.12
-6.45
-3.72
-1.13
1.14
2.99
4.39
5.42
6.23
6.97
7.67
8.3
8.77
9.05
9.19
9.31
9.59
10.16
11.03
12.1
13.17
13.99
14.31
13.94
12.79
10.91
8.5
5.82
3.15
0.75
-1.26
-2.79
-3.9
-4.66
-5.2
-5.64
-6.09
-6.6
-7.18
-7.76
-8.22
-8.45
-8.37
-7.96
-7.3
-6.5
-5.65
-4.86
-4.13
-3.46
-2.84
-2.26
-1.7
-1.13
-0.57
-0.02
0.45
0.8
1.03
1.23
1.58
2.24
3.28
4.61
6.02
7.27
8.16
8.62
8.7
8.52
8.1
7.43
6.41
4.96
3.07
0.88
-1.4
-3.55
-5.4
-6.94
-8.25
-9.4
-10.39
-11.1
-11.4
-11.18
-10.42
-9.2
-7.65
-5.88
-4.03
-2.28
-0.8
0.2
0.64
0.54
0.1
-0.49
-1.04
-1.55
-2.05
-2.57
-3.06
-3.34
-3.23
-2.64
-1.62
-0.38
0.82
1.78
2.38
2.68
2.79
2.85
2.93
3.05
3.22
3.37
3.5
3.62
3.76
3.92
4.07
4.13
3.97
3.54
2.86
2.04
1.27
0.7
0.4
0.37
0.54
0.82
1.12
1.32
1.29
0.86
-0.03
-1.32
-2.75
-3.94
-4.52
-4.22
-3.01
-1.05
1.36
3.88
6.2
8.12
9.55
10.51
11.06
11.29
11.24
10.88
10.14
9.01
7.55
5.96
4.47
3.25
2.38
1.78
1.28
0.7
-0.14
-1.32
-2.83
-4.6
-6.41
-8.02
-9.21
-9.82
-9.91
-9.64
-9.3
-9.15
-9.3
-9.73
-10.23
-10.52
-10.36
-9.6
-8.26
-6.47
-4.47
-2.54
-0.92
0.21
0.76
0.79
0.45
-0.02
-0.38
-0.47
-0.28
0.07
0.38
0.52
0.43
0.16
-0.19
-0.56
-0.93
-1.3
-1.67
-1.98
-2.19
-2.3
-2.39
-2.56
-2.92
-3.5
-4.22
-4.92
-5.41
-5.57
-5.33
-4.7
-3.7
-2.4
-0.85
0.83
2.49
3.95
5.02
5.62
5.77
5.59
5.25
4.89
4.6
4.34
4.08
3.79
3.52
3.36
3.36
3.52
3.76
3.96
4.06
4.04
3.91
3.68
3.3
2.69
1.78
0.64
-0.6
-1.76
-2.7
-3.39
-3.81
-4.01
-3.97
-3.64
-3.01
-2.12
-1.07
-0.02
0.94
1.82
2.63
3.43
4.16
4.74
5.08
5.11
4.83
4.31
3.6
2.77
1.85
0.92
0.07
-0.59
-1.02
-1.22
-1.3
-1.4
-1.61
-1.96
-2.42
-2.95
-3.54
-4.22
-5.0
-5.87
-6.71
-7.35
-7.62
-7.4
-6.67
-5.48
-3.95
-2.25
-0.58
0.89
2.0
2.72
3.08
3.17
3.08
2.8
2.32
1.64
0.86
0.12
-0.4
-0.61
-0.56
-0.37
-0.2
-0.15
-0.3
-0.67
-1.25
-2.04
-2.93
-3.81
-4.51
-4.92
-5.05
-5.0
-4.94
-4.94
-4.98
-4.95
-4.72
-4.19
-3.37
-2.32
-1.16
-0.04
0.9
1.55
1.83
1.78
1.51
1.16
0.89
0.75
0.72
0.7
0.58
0.35
0.02
-0.29
-0.47
-0.46
-0.24
0.11
0.48
0.77
0.93
0.94
0.78
0.43
-0.16
-1.03
-2.11
-3.23
-4.14
-4.6
-4.51
-3.91
-2.96
-1.87
-0.8
0.17
1.02
1.73
2.27
2.64
2.83
2.88
2.82
2.69
2.53
2.37
2.24
2.17
2.14
2.08
1.88
1.48
0.88
0.2
-0.39
-0.77
-0.94
-1.05
-1.32
-1.89
-2.78
-3.84
-4.87
-5.7
-6.23
-6.43
-6.27
-5.71
-4.68
-3.14
-1.18
1.01
3.13
4.91
6.19
6.96
7.32
7.4
7.29
7.04
6.65
6.19
5.72
5.3
4.95
4.55
4.0
3.21
2.2
1.16
0.29
-0.23
-0.38
-0.25
-0.02
0.11
0.02
-0.32
-0.78
-1.17
-1.27
-0.92
-0.14
0.91
1.94
2.68
3.01
2.97
2.7
2.37
2.03
1.59
0.91
-0.09
-1.36
-2.69
-3.77
-4.33
-4.28
-3.68
-2.75
-1.76
-0.92
-0.36
-0.15
-0.26
-0.64
-1.23
-1.97
-2.82
-3.75
-4.76
-5.82
-6.89
-7.83
-8.48
-8.68
-8.32
-7.4
-6.03
-4.39
-2.67
-1.06
0.28
1.26
1.81
1.91
1.58
0.88
-0.06
-1.08
-2.03
-2.82
-3.42
-3.88
-4.32
-4.82
-5.47
-6.25
-7.04
-7.72
-8.13
-8.22
-8.05
-7.75
-7.51
-7.43
-7.53
-7.64
-7.55
-7.05
-6.02
-4.48
-2.59
-0.55
1.45
3.24
4.7
5.69
6.13
6.07
5.67
5.17
4.84
4.78
4.91
5.03
4.92
4.49
3.83
3.13
2.63
2.45
2.58
2.93
3.36
3.75
4.03
4.13
4.05
3.8
3.49
3.3
3.39
3.92
4.96
6.41
8.03
9.44
10.25
10.1
8.81
6.43
3.23
-0.32
-3.64
-6.23
-7.69
-7.92
-7.02
-5.32
-3.22
-1.1
0.72
2.06
2.78
2.8
2.1
0.71
-1.19
-3.3
-5.25
-6.72
-7.53
-7.7
-7.44
-7.07
-6.9
-7.13
-7.77
-8.66
-9.57
-10.24
-10.47
-10.18
-9.34
-8.02
-6.34
-4.46
-2.61
-1.0
0.18
0.83
0.95
0.67
0.19
-0.23
-0.38
-0.11
0.65
1.85
3.27
4.67
5.75
6.34
6.43
6.21
6.03
6.19
6.93
8.25
9.97
11.78
13.41
14.73
15.74
16.53
17.21
17.76
18.13
18.25
18.05
17.56
16.82
15.84
14.6
13.0
11.06
8.84
6.57
4.5
2.82
1.56
0.59
-0.31
-1.29
-2.37
-3.42
-4.26
-4.77
-4.94
-4.94
-4.92
-5.01
-5.19
-5.37
-5.47
-5.51
-5.62
-5.98
-6.71
-7.82
-9.13
-10.39
-11.31
-11.72
-11.59
-11.05
-10.33
-9.63
-8.98
-8.24
-7.22
-5.81
-4.15
-2.65
-1.79
-1.9
-2.96
-4.58
-6.19
-7.28
-7.63
-7.37
-6.89
-6.6
-6.75
-7.4
-8.43
-9.62
-10.83
-12.03
-13.29
-14.69
-16.25
-17.9
-19.43
-20.6
-21.23
-21.21
-20.62
-19.64
-18.56
-17.66
-17.2
-17.28
-17.92
-18.97
-20.24
-21.55
-22.81
-24.1
-25.52
-27.2
-29.06
-30.87
-32.12
-32.25
-30.77
-27.44
-22.45
-16.26
-9.5
-2.73
3.7
9.66
15.23
20.6
26.0
31.65
37.59
43.61
49.15
53.43
55.72
55.6
53.21
49.18
44.42
39.74
35.64
32.22
29.24
26.33
23.16
19.51
15.37
10.9
6.37
2.08
-1.7
-4.84
-7.32
-9.25
-10.84
-12.33
-13.99
-16.0
-18.4
-21.01
-23.42
-25.07
-25.37
-23.87
-20.38
-15.06
-8.38
-1.08
6.0
12.12
16.81
20.02
22.22
24.18
26.7
30.27
34.8
39.7
44.11
47.31
48.98
49.33
48.83
48.05
47.41
47.19
47.54
48.49
49.75
50.69
50.37
47.95
43.13
36.53
29.42
23.18
18.54
15.24
12.26
8.44
3.18
-3.32
-10.28
-16.99
-23.23
-29.29
-35.59
-42.2
-48.63
-54.04
-57.66
-59.16
-58.74
-56.84
-53.67
-48.94
-41.78
-31.03
-15.72
4.37
28.26
53.68
77.41
95.88
106.12
106.57
97.62
81.58
62.16
43.56
29.37
21.7
20.69
24.6
30.3
34.26
33.66
27.22
15.51
0.66
-14.52
-27.5
-36.73
-41.87
-43.5
-42.64
-40.35
-37.54
-34.94
-33.15
-32.53
-33.1
-34.45
-35.87
-36.54
-36.0
-34.23
-31.7
-29.04
-26.73
-24.88
-23.21
-21.22
-18.41
-14.49
-9.39
-3.25
3.65
10.96
18.25
25.07
30.97
35.66
39.14
41.76
44.16
47.12
51.2
56.52
62.66
68.81
74.07
77.8
79.85
80.57
80.59
80.48
80.4
80.03
78.65
75.43
69.73
61.33
50.4
37.44
23.07
7.92
-7.42
-22.42
-36.56
-49.31
-60.27
-69.17
-75.98
-80.83
-83.91
-85.41
-85.41
-83.96
-81.16
-77.17
-72.27
-66.78
-61.02
-55.28
-49.86
-45.04
-41.03
-37.96
-35.61
-33.52
-31.12
-28.01
-24.27
-20.45
-17.36
-15.62
-15.29
-15.85
-16.42
-16.25
-15.11
-13.28
-11.4
-10.07
-9.58
-9.98
-11.17
-13.14
-15.94
-19.47
-23.34
-26.83
-29.15
-29.75
-28.57
-26.03
-22.82
-19.54
-16.57
-14.01
-11.87
-10.18
-8.97
-8.25
-7.84
-7.4
-6.42
-4.42
-1.0
4.07
10.72
18.54
26.76
34.4
40.62
44.99
47.7
49.44
51.14
53.5
56.82
60.91
65.25
69.24
72.31
73.94
73.71
71.32
66.74
60.31
52.72
44.85
37.48
30.99
25.33
20.02
14.48
8.29
1.36
-6.08
-13.58
-20.68
-27.03
-32.45
-36.88
-40.41
-43.18
-45.38
-47.18
-48.65
-49.75
-50.34
-50.3
-49.59
-48.3
-46.59
-44.63
-42.5
-40.22
-37.75
-35.1
-32.37
-29.76
-27.48
-25.73
-24.56
-23.88
-23.47
-23.08
-22.52
-21.74
-20.82
-19.91
-19.11
-18.46
-17.95
-17.64
-17.69
-18.32
-19.7
-21.87
-24.59
-27.43
-29.93
-31.75
-32.73
-32.92
-32.5
-31.62
-30.47
-29.17
-27.83
-26.5
-25.13
-23.57
-21.62
-19.2
-16.43
-13.72
-11.59
-10.51
-10.6
-11.58
-12.8
-13.5
-13.13
-11.56
-9.08
-6.21
-3.44
-1.06
0.94
2.76
4.56
6.41
8.18
9.69
10.84
11.67
12.33
12.95
13.55
13.93
13.83
13.0
11.38
9.16
6.68
4.35
2.34
0.66
-0.94
-2.67
-4.64
-6.67
-8.42
-9.49
-9.62
-8.82
-7.33
-5.58
-3.98
-2.82
-2.15
-1.79
-1.46
-0.83
0.33
2.09
4.43
7.26
10.44
13.88
17.42
20.86
23.98
26.61
28.76
30.57
32.1
33.2
33.47
32.4
29.67
25.45
20.36
15.27
10.88
7.37
4.39
1.19
-2.88
-8.15
-14.37
-20.86
-26.8
-31.57
-34.92
-37.08
-38.41
-39.16
-39.16
-37.79
-34.35
-28.35
-19.98
-10.05
0.2
9.53
17.09
22.52
25.88
27.48
27.69
26.87
25.34
23.51
21.77
20.49
19.94
20.2
21.12
22.39
23.55
24.15
23.82
22.36
19.78
16.34
12.47
8.73
5.59
3.38
2.18
1.82
1.97
2.28
2.51
2.51
2.19
1.48
0.29
-1.42
-3.66
-6.27
-8.98
-11.45
-13.34
-14.48
-14.84
-14.49
-13.57
-12.11
-10.06
-7.36
-4.04
-0.33
3.37
6.62
9.02
10.38
10.71
10.16
8.96
7.35
5.57
3.8
2.23
0.99
0.13
-0.36
-0.6
-0.73
-0.93
-1.35
-2.02
-2.92
-3.91
-4.88
-5.75
-6.52
-7.25
-8.06
-9.02
-10.12
-11.25
-12.22
-12.84
-13.01
-12.77
-12.38
-12.2
-12.62
-13.88
-15.97
-18.56
-21.13
-23.05
-23.84
-23.28
-21.46
-18.73
-15.45
-11.9
-8.21
-4.41
-0.59
3.0
5.99
7.99
8.71
8.04
6.0
2.78
-1.29
-5.62
-9.36
-11.55
-11.4
-8.65
-3.69
2.6
9.14
15.05
19.92
23.71
26.55
28.56
29.69
29.82
28.9
27.05
24.58
21.9
19.47
17.6
16.48
16.07
16.15
16.35
16.27
15.56
14.05
11.7
8.67
5.15
1.37
-2.49
-6.24
-9.66
-12.44
-14.24
-14.7
-13.52
-10.52
-5.8
0.3
7.08
13.59
18.8
21.74
21.78
18.66
12.65
4.47
-4.64
-13.09
-19.07
-20.92
-17.62
-9.22
3.02
16.88
29.89
40.14
46.79
50.18
51.41
51.69
51.79
51.82
51.37
49.92
47.1
42.96
37.81
32.13
26.33
20.69
15.31
10.16
5.17
0.3
-4.4
-8.8
-12.72
-15.9
-18.01
-18.69
-17.62
-14.68
-10.04
-4.27
1.87
7.52
12.07
15.18
16.83
17.13
16.24
14.3
11.43
7.89
4.05
0.35
-2.83
-5.23
-6.75
-7.48
-7.65
-7.54
-7.52
-7.86
-8.63
-9.74
-10.95
-12.03
-12.86
-13.49
-14.08
-14.82
-15.8
-17.03
-18.41
-19.72
-20.71
-21.04
-20.45
-18.81
-16.23
-13.09
-9.91
-7.15
-5.04
-3.55
-2.43
-1.37
-0.14
1.34
3.09
5.12
7.4
9.84
12.16
13.91
14.58
13.79
11.56
8.36
4.88
1.76
-0.72
-2.65
-4.23
-5.44
-5.78
-4.45
-0.8
5.22
12.84
20.73
27.64
32.94
36.84
39.99
42.96
45.77
47.77
48.14
46.35
42.57
37.53
32.16
27.13
22.6
18.28
13.76
8.76
3.32
-2.32
-7.85
-13.07
-17.95
-22.71
-27.73
-33.4
-39.95
-47.37
-55.31
-63.18
-70.38
-76.48
-81.42
-85.48
-89.09
-92.52
-95.66
-97.97
-98.61
-96.9
-92.67
-86.45
-79.38
-72.79
-67.7
-64.48
-62.7
-61.47
-59.78
-56.91
-52.5
-46.53
-39.26
-31.13
-22.64
-14.38
-6.87
-0.45
4.85
9.25
13.14
16.93
20.94
25.4
30.38
35.81
41.35
46.39
50.1
51.69
50.68
47.13
41.61
35.05
28.48
22.77
18.48
15.79
14.59
14.59
15.43
16.81
18.57
20.64
22.99
25.52
28.06
30.38
32.23
33.42
33.8
33.15
31.22
27.73
22.41
15.24
6.48
-3.31
-13.35
-22.8
-30.91
-37.14
-41.22
-43.12
-42.92
-40.91
-37.53
-33.41
-29.29
-25.84
-23.38
-21.69
-20.01
-17.24
-12.33
-4.78
5.17
16.42
27.41
36.68
43.29
47.2
49.15
50.23
51.43
53.25
55.6
57.98
59.8
60.7
60.57
59.51
57.67
55.19
52.18
48.8
45.33
42.09
39.37
37.35
36.01
35.17
34.52
33.77
32.64
30.96
28.71
26.0
23.06
20.2
17.75
15.96
14.94
14.42
13.69
11.65
7.05
-0.94
-12.29
-25.79
-39.36
-50.71
-58.13
-61.0
-59.74
-55.38
-49.05
-41.78
-34.5
-28.16
-23.63
-21.36
-21.14
-22.02
-22.61
-21.66
-18.44
-12.88
-5.33
3.67
13.62
23.96
33.98
42.88
49.9
54.54
56.59
56.12
53.34
48.56
42.18
34.74
26.89
19.26
12.24
5.89
-0.02
-5.83
-11.74
-17.76
-23.66
-29.22
-34.4
-39.34
-44.29
-49.38
-54.53
-59.34
-63.34
-66.13
-67.56
-67.79
-67.11
-65.89
-64.37
-62.69
-60.84
-58.81
-56.51
-53.86
-50.78
-47.18
-43.1
-38.64
-34.02
-29.5
-25.3
-21.55
-18.29
-15.41
-12.75
-10.13
-7.41
-4.52
-1.49
1.59
4.55
7.24
9.49
11.18
12.22
12.64
12.55
12.14
11.65
11.28
11.16
11.34
11.74
12.22
12.63
12.87
12.86
12.63
12.2
11.58
10.72
9.59
8.17
6.56
4.94
3.45
2.18
1.06
-0.1
-1.49
-3.22
-5.26
-7.44
-9.67
-11.92
-14.26
-16.7
-19.07
-21.03
-22.11
-22.08
-21.13
-19.9
-19.22
-19.71
-21.49
-24.16
-27.07
-29.67
-31.53
-32.31
-31.48
-28.31
-22.15
-12.87
-1.18
11.45
23.31
33.08
40.25
45.05
48.08
49.79
50.32
49.54
47.43
44.2
40.28
36.24
32.43
28.99
25.82
22.81
20.02
17.68
16.13
15.58
15.96
16.82
17.55
17.58
16.63
14.79
12.43
9.93
7.52
5.19
2.74
0.08
-2.76
-5.51
-7.86
-9.51
-10.32
-10.27
-9.37
-7.61
-4.92
-1.35
2.68
6.24
7.88
6.04
-0.35
-11.25
-25.36
-40.47
-54.19
-64.66
-70.92
-72.78
-70.5
-64.54
-55.46
-44.22
-32.22
-21.13
-12.38
-6.65
-3.69
-2.51
-1.9
-0.92
0.82
3.28
6.14
9.1
11.94
14.55
16.9
19.05
21.03
22.96
24.9
26.98
29.22
31.61
34.06
36.47
38.69
40.57
41.96
42.68
42.53
41.39
39.23
36.18
32.51
28.6
24.78
21.38
18.65
16.8
15.97
16.17
17.27
18.88
20.54
21.76
22.19
21.68
20.28
18.14
15.4
12.14
8.42
4.32
0.03
-4.1
-7.7
-10.43
-12.04
-12.5
-11.9
-10.45
-8.34
-5.79
-2.95
-0.04
2.76
5.24
7.18
8.36
8.59
7.79
6.0
3.47
0.59
-2.11
-4.19
-5.37
-5.68
-5.35
-4.75
-4.26
-4.14
-4.51
-5.39
-6.72
-8.45
-10.49
-12.74
-15.11
-17.51
-19.9
-22.32
-24.88
-27.65
-30.64
-33.66
-36.39
-38.42
-39.42
-39.21
-37.82
-35.48
-32.56
-29.41
-26.26
-23.22
-20.28
-17.36
-14.43
-11.52
-8.72
-6.16
-3.85
-1.71
0.47
2.9
5.77
9.08
12.67
16.23
19.34
21.64
22.83
22.87
21.91
20.3
18.48
16.8
15.44
14.37
13.4
12.3
10.95
9.3
7.43
5.4
3.23
0.96
-1.37
-3.56
-5.31
-6.23
-5.98
-4.37
-1.48
2.39
6.73
11.02
14.91
18.2
20.94
23.18
24.92
26.03
26.33
25.64
23.96
21.48
18.5
15.37
12.35
9.61
7.23
5.23
3.57
2.17
0.94
-0.22
-1.36
-2.44
-3.38
-4.06
-4.46
-4.59
-4.5
-4.22
-3.67
-2.72
-1.28
0.69
3.06
5.62
8.11
10.32
12.16
13.62
14.76
15.61
16.27
16.74
17.07
17.25
17.21
16.91
16.28
15.36
14.22
13.01
11.85
10.76
9.64
8.31
6.59
4.43
1.87
-0.95
-3.85
-6.72
-9.48
-12.08
-14.43
-16.37
-17.68
-18.13
-17.6
-16.05
-13.66
-10.68
-7.46
-4.34
-1.6
0.52
1.91
2.55
2.54
2.07
1.33
0.56
-0.09
-0.55
-0.82
-0.96
-1.05
-1.15
-1.29
-1.45
-1.61
-1.71
-1.73
-1.66
-1.54
-1.44
-1.45
-1.64
-2.07
-2.79
-3.76
-4.87
-5.9
-6.55
-6.56
-5.81
-4.34
-2.4
-0.3
1.68
3.36
4.7
5.7
6.41
6.83
7.02
7.02
6.93
6.85
6.82
6.8
6.73
6.51
6.12
5.62
5.09
4.66
4.41
4.37
4.51
4.73
4.9
4.9
4.58
3.87
2.76
1.35
-0.12
-1.37
-2.09
-2.13
-1.47
-0.25
1.26
2.86
4.36
5.66
6.7
7.41
7.73
7.6
7.07
6.24
5.3
4.36
3.48
2.62
1.76
0.85
-0.04
-0.85
-1.56
-2.18
-2.77
-3.37
-3.94
-4.44
-4.88
-5.31
-5.81
-6.52
-7.41
-8.38
-9.22
-9.69
-9.61
-8.9
-7.6
-5.83
-3.8
-1.7
0.27
1.94
3.21
4.03
4.45
4.52
4.36
4.05
3.67
3.24
2.77
2.27
1.77
1.34
1.03
0.89
0.91
1.05
1.24
1.44
1.61
1.69
1.61
1.25
0.56
-0.43
-1.54
-2.48
-2.92
-2.61
-1.5
0.28
2.43
4.6
6.52
8.01
9.06
9.7
10.0
9.98
9.66
9.02
8.12
7.07
6.06
5.24
4.71
4.42
4.21
3.88
3.34
2.58
1.74
0.94
0.24
-0.45
-1.31
-2.51
-4.1
-5.98
-7.83
-9.31
-10.09
-10.0
-8.99
-7.22
-4.95
-2.47
-0.04
2.13
3.9
5.19
5.92
6.06
5.62
4.72
3.55
2.34
1.28
0.44
-0.19
-0.69
-1.11
-1.48
-1.75
-1.87
-1.86
-1.79
-1.77
-1.9
-2.26
-2.86
-3.7
-4.7
-5.73
-6.64
-7.21
-7.23
-6.54
-5.09
-3.02
-0.65
1.66
3.6
4.99
5.8
6.11
6.01
5.57
4.87
4.05
3.27
2.68
2.36
2.26
2.22
2.05
1.72
1.28
0.88
0.66
0.64
0.7
0.67
0.37
-0.3
-1.34
-2.66
-4.13
-5.54
-6.71
-7.42
-7.49
-6.85
-5.5
-3.62
-1.45
0.7
2.58
3.99
4.85
5.18
5.06
4.67
4.17
3.7
3.37
3.18
3.08
2.95
2.7
2.29
1.77
1.25
0.84
0.55
0.31
-0.08
-0.81
-2.02
-3.74
-5.8
-7.92
-9.73
-10.87
-11.09
-10.31
-8.63
-6.26
-3.51
-0.66
2.02
4.36
6.25
7.64
8.57
9.11
9.39
9.53
9.66
9.91
10.32
10.87
11.44
11.86
11.88
11.34
10.22
8.65
6.9
5.19
3.56
1.86
-0.28
-3.19
-6.97
-11.36
-15.8
-19.56
-22.0
-22.79
-21.99
-19.94
-17.18
-14.25
-11.57
-9.43
-7.98
-7.28
-7.22
-7.64
-8.25
-8.86
-9.34
-9.73
-10.16
-10.74
-11.47
-12.19
-12.62
-12.46
-11.56
-9.86
-7.5
-4.74
-1.86
0.78
2.82
3.99
4.12
3.24
1.67
-0.16
-1.72
-2.57
-2.51
-1.56
0.05
2.04
4.13
6.12
7.84
9.17
9.96
10.1
9.53
8.28
6.5
4.45
2.39
0.61
-0.73
-1.56
-1.96
-2.1
-2.2
-2.43
-2.85
-3.38
-3.82
-3.96
-3.69
-3.04
-2.22
-1.51
-1.12
-1.17
-1.6
-2.2
-2.64
-2.58
-1.72
0.1
2.78
5.96
9.07
11.47
12.67
12.52
11.21
9.24
7.17
5.44
4.32
3.86
3.93
4.28
4.65
4.79
4.56
3.95
3.13
2.35
1.86
1.8
2.14
2.74
3.35
3.79
3.95
3.84
3.64
3.54
3.68
4.09
4.67
5.25
5.77
6.23
6.74
7.37
8.01
8.36
8.09
6.99
5.14
2.89
0.74
-0.86
-1.65
-1.58
-0.73
0.7
2.49
4.24
5.48
5.73
4.76
2.72
0.21
-2.02
-3.33
-3.53
-2.98
-2.33
-2.24
-3.06
-4.7
-6.7
-8.49
-9.59
-9.81
-9.17
-7.79
-5.81
-3.36
-0.51
2.51
5.41
7.82
9.47
10.29
10.45
10.33
10.31
10.63
11.27
12.02
12.63
12.95
13.08
13.27
13.76
14.66
15.83
16.95
17.68
17.79
17.23
16.09
14.59
12.97
11.47
10.2
9.13
8.07
6.76
5.03
2.94
0.81
-0.94
-2.03
-2.51
-2.74
-3.25
-4.41
-6.34
-8.85
-11.6
-14.26
-16.62
-18.56
-20.02
-20.92
-21.24
-20.97
-20.2
-19.01
-17.48
-15.62
-13.42
-10.88
-8.13
-5.37
-2.9
-1.0
0.16
0.74
1.29
2.7
5.83
11.14
18.2
25.8
32.17
35.69
35.43
31.43
24.63
16.38
8.01
0.45
-5.75
-10.36
-13.37
-14.87
-15.12
-14.5
-13.55
-12.75
-12.44
-12.71
-13.37
-14.06
-14.41
-14.18
-13.34
-12.05
-10.6
-9.3
-8.36
-7.89
-7.82
-7.97
-8.12
-8.1
-7.84
-7.42
-6.99
-6.62
-6.26
-5.66
-4.49
-2.52
0.23
3.46
6.63
9.23
10.91
11.54
11.19
10.02
8.2
5.9
3.34
0.77
-1.45
-3.01
-3.71
-3.49
-2.49
-0.97
0.73
2.25
3.3
3.72
3.53
2.92
2.18
1.55
1.13
0.82
0.4
-0.35
-1.49
-2.85
-4.07
-4.71
-4.46
-3.17
-0.94
1.95
5.12
8.16
10.67
12.28
12.76
12.08
10.46
8.4
6.56
5.55
5.78
7.27
9.63
12.15
14.05
14.66
13.68
11.22
7.7
3.68
-0.37
-4.16
-7.6
-10.71
-13.53
-16.06
-18.31
-20.38
-22.39
-24.48
-26.66
-28.72
-30.28
-30.9
-30.25
-28.24
-25.06
-21.04
-16.55
-11.89
-7.23
-2.77
1.26
4.58
6.96
8.33
8.9
9.13
9.53
10.48
12.09
14.13
16.2
17.8
18.43
17.71
15.34
11.19
5.38
-1.64
-9.1
-16.1
-21.76
-25.51
-27.18
-26.94
-25.2
-22.37
-18.76
-14.57
-9.91
-4.86
0.51
6.16
12.03
18.04
23.99
29.53
34.17
37.41
38.89
38.44
36.11
32.04
26.48
19.77
12.43
5.17
-1.2
-6.03
-9.18
-11.09
-12.67
-14.94
-18.62
-23.81
-30.09
-36.73
-43.03
-48.55
-53.15
-56.74
-59.15
-60.02
-58.91
-55.54
-50.0
-42.83
-34.86
-26.92
-19.44
-12.42
-5.45
1.95
10.0
18.41
26.51
33.43
38.49
41.41
42.38
41.91
40.65
39.13
37.74
36.68
35.99
35.63
35.55
35.59
35.57
35.28
34.47
32.86
30.22
26.42
21.5
15.73
9.52
3.31
-2.63
-8.26
-13.79
-19.49
-25.52
-31.74
-37.72
-42.91
-46.83
-49.2
-49.9
-48.94
-46.31
-41.99
-36.11
-28.98
-21.11
-13.19
-5.82
0.58
5.79
9.74
12.33
13.46
13.11
11.6
9.63
8.16
8.02
9.47
12.05
14.7
16.24
15.94
13.82
10.59
7.26
4.76
3.5
3.47
4.28
5.51
6.73
7.66
8.08
7.82
6.8
5.08
2.94
0.82
-0.75
-1.35
-0.7
1.15
3.9
7.11
10.25
12.95
15.0
16.41
17.34
17.94
18.34
18.6
18.71
18.69
18.59
18.48
18.39
18.29
17.96
17.13
15.48
12.82
9.15
4.75
0.09
-4.36
-8.18
-11.21
-13.47
-15.17
-16.53
-17.76
-18.97
-20.16
-21.2
-21.8
-21.56
-20.07
-17.07
-12.56
-6.91
-0.73
5.29
10.57
14.83
18.01
20.18
21.36
21.44
20.24
17.67
13.87
9.3
4.62
0.53
-2.42
-4.0
-4.24
-3.37
-1.71
0.44
2.74
4.86
6.5
7.43
7.65
7.36
6.89
6.54
6.39
6.23
5.72
4.5
2.47
-0.18
-3.02
-5.52
-7.24
-7.9
-7.41
-5.83
-3.36
-0.34
2.77
5.52
7.46
8.31
8.01
6.77
4.99
3.18
1.83
1.2
1.28
1.71
1.95
1.45
-0.21
-3.1
-7.0
-11.4
-15.68
-19.31
-21.94
-23.51
-24.19
-24.28
-24.05
-23.59
-22.77
-21.41
-19.36
-16.67
-13.52
-10.17
-6.79
-3.42
-0.05
3.29
6.43
9.12
11.12
12.39
13.12
13.7
14.57
16.05
18.26
21.1
24.32
27.65
30.84
33.68
36.03
37.75
38.69
38.74
37.88
36.22
33.97
31.36
28.55
25.52
22.14
18.26
13.78
8.78
3.48
-1.83
-6.87
-11.37
-15.14
-18.08
-20.15
-21.37
-21.78
-21.47
-20.48
-18.89
-16.8
-14.44
-12.11
-10.14
-8.74
-7.9
-7.47
-7.21
-6.94
-6.59
-6.22
-5.92
-5.77
-5.77
-5.94
-6.3
-6.87
-7.57
-8.22
-8.46
-7.93
-6.44
-4.06
-1.16
1.77
4.28
6.16
7.35
7.9
7.83
7.12
5.76
3.89
1.87
0.21
-0.58
-0.19
1.28
3.4
5.54
7.17
8.02
8.12
7.69
6.97
6.13
5.26
4.47
3.9
3.64
3.66
3.72
3.47
2.65
1.22
-0.65
-2.68
-4.71
-6.77
-9.04
-11.57
-14.15
-16.3
-17.49
-17.36
-15.87
-13.29
-10.01
-6.5
-3.24
-0.79
0.26
-0.52
-3.17
-7.28
-11.99
-16.41
-19.91
-22.35
-23.97
-25.08
-25.82
-26.05
-25.53
-24.13
-22.0
-19.55
-17.29
-15.61
-14.7
-14.6
-15.27
-16.65
-18.66
-21.05
-23.42
-25.25
-26.04
-25.53
-23.8
-21.23
-18.33
-15.6
-13.39
-11.86
-10.99
-10.65
-10.61
-10.54
-10.1
-8.99
-7.07
-4.48
-1.57
1.21
3.41
4.81
5.43
5.49
5.33
5.24
5.38
5.71
6.01
6.05
5.72
5.22
4.96
5.38
6.71
8.79
11.16
13.24
14.65
15.32
15.45
15.31
15.05
14.56
13.65
12.2
10.34
8.37
6.73
5.7
5.32
5.36
5.48
5.36
4.8
3.76
2.37
0.89
-0.37
-1.09
-1.08
-0.37
0.73
1.68
1.9
0.83
-1.83
-6.11
-11.75
-18.01
-23.61
-26.91
-26.31
-21.01
-11.47
0.52
12.48
22.2
28.52
31.54
32.13
31.26
29.39
26.52
22.57
17.85
13.12
9.37
7.23
6.68
7.07
7.52
7.41
6.72
6.02
6.14
7.73
10.87
14.98
19.13
22.45
24.54
25.59
26.27
27.32
29.2
31.93
35.13
38.22
40.61
41.83
41.57
39.65
36.06
30.88
24.31
16.58
8.07
-0.76
-9.3
-16.91
-23.16
-28.01
-31.78
-35.03
-38.17
-41.12
-43.32
-43.97
-42.48
-38.81
-33.65
-28.13
-23.38
-20.17
-18.66
-18.5
-19.06
-19.76
-20.24
-20.41
-20.34
-20.13
-19.86
-19.56
-19.37
-19.53
-20.34
-21.95
-24.27
-26.86
-29.12
-30.54
-30.84
-30.15
-28.74
-26.98
-25.08
-23.1
-21.05
-18.92
-16.76
-14.61
-12.48
-10.23
-7.68
-4.69
-1.28
2.31
5.7
8.53
10.64
12.21
13.63
15.36
17.64
20.4
23.29
25.83
27.67
28.69
29.0
28.81
28.27
27.47
26.42
25.18
23.89
22.79
22.13
22.03
22.47
23.24
24.06
24.49
23.95
21.68
16.95
9.43
-0.4
-11.13
-20.79
-27.53
-30.36
-29.51
-26.16
-21.84
-17.72
-14.32
-11.63
-9.55
-8.16
-7.79
-8.61
-10.39
-12.45
-13.93
-14.31
-13.58
-12.26
-10.99
-10.08
-9.24
-7.81
-5.14
-1.06
3.82
8.41
11.53
12.52
11.43
8.98
6.14
3.67
1.86
0.59
-0.46
-1.49
-2.52
-3.34
-3.77
-3.72
-3.31
-2.72
-2.07
-1.35
-0.41
0.92
2.68
4.72
6.73
8.36
9.38
9.73
9.54
8.96
8.12
7.02
5.58
3.75
1.59
-0.7
-2.82
-4.47
-5.45
-5.75
-5.54
-5.06
-4.52
-4.04
-3.67
-3.38
-3.21
-3.16
-3.27
-3.47
-3.57
-3.38
-2.76
-1.75
-0.51
0.68
1.68
2.43
3.04
3.6
4.16
4.6
4.74
4.34
3.31
1.69
-0.27
-2.21
-3.67
-4.16
-3.28
-0.78
3.29
8.57
14.43
20.13
24.98
28.48
30.4
30.71
29.52
27.05
23.56
19.4
14.97
10.69
6.92
3.84
1.45
-0.35
-1.76
-2.92
-3.89
-4.66
-5.14
-5.28
-5.05
-4.51
-3.88
-3.45
-3.58
-4.55
-6.54
-9.46
-13.07
-16.95
-20.65
-23.8
-26.12
-27.45
-27.75
-27.13
-25.77
-23.94
-21.9
-19.9
-18.1
-16.56
-15.27
-14.24
-13.41
-12.73
-12.07
-11.3
-10.28
-9.0
-7.58
-6.24
-5.2
-4.58
-4.28
-4.08
-3.69
-2.89
-1.6
0.14
2.19
4.41
6.67
8.84
10.78
12.36
13.55
14.4
15.03
15.57
16.03
16.29
16.08
15.16
13.43
11.02
8.26
5.62
3.48
2.01
1.15
0.65
0.2
-0.47
-1.49
-2.83
-4.39
-5.96
-7.37
-8.41
-8.95
-8.84
-8.06
-6.65
-4.77
-2.67
-0.59
1.3
2.9
4.22
5.29
6.12
6.66
6.81
6.47
5.61
4.28
2.62
0.81
-0.95
-2.48
-3.63
-4.3
-4.47
-4.26
-3.88
-3.57
-3.45
-3.49
-3.5
-3.19
-2.32
-0.83
1.18
3.47
5.71
7.63
9.04
9.83
9.94
9.38
8.2
6.52
4.56
2.58
0.85
-0.46
-1.31
-1.81
-2.2
-2.68
-3.32
-4.06
-4.71
-5.11
-5.2
-5.05
-4.76
-4.41
-4.01
-3.47
-2.73
-1.76
-0.6
0.7
2.09
3.54
4.96
6.19
7.05
7.31
6.89
5.84
4.35
2.68
1.09
-0.18
-0.96
-1.23
-1.12
-0.99
-1.25
-2.21
-3.91
-6.05
-8.13
-9.71
-10.65
-11.11
-11.46
-11.93
-12.43
-12.66
-12.23
-11.02
-9.25
-7.37
-5.8
-4.7
-3.84
-2.79
-1.15
1.25
4.25
7.45
10.37
12.67
14.21
15.06
15.43
15.5
15.35
14.95
14.18
12.96
11.27
9.22
6.94
4.55
2.13
-0.25
-2.48
-4.41
-5.84
-6.62
-6.71
-6.19
-5.2
-4.0
-2.89
-2.21
-2.26
-3.15
-4.75
-6.67
-8.42
-9.59
-10.01
-9.78
-9.2
-8.58
-8.16
-8.03
-8.21
-8.64
-9.21
-9.78
-10.22
-10.38
-10.15
-9.46
-8.26
-6.5
-4.21
-1.56
1.17
3.64
5.62
7.11
8.33
9.62
11.22
13.19
15.37
17.46
19.2
20.43
21.17
21.5
21.56
21.5
21.41
21.35
21.32
21.25
20.95
20.16
18.58
16.06
12.74
9.05
5.64
3.14
1.9
1.79
2.3
2.76
2.65
1.79
0.32
-1.45
-3.24
-4.82
-6.11
-7.01
-7.42
-7.37
-7.0
-6.63
-6.52
-6.8
-7.26
-7.53
-7.19
-6.03
-4.16
-1.95
0.12
1.7
2.63
3.03
3.12
3.17
3.34
3.62
3.87
3.92
3.66
3.14
2.52
2.0
1.72
1.75
2.08
2.71
3.57
4.45
5.0
4.78
3.52
1.23
-1.69
-4.71
-7.35
-9.47
-11.18
-12.7
-14.07
-15.09
-15.44
-14.9
-13.57
-11.79
-9.99
-8.42
-7.03
-5.57
-3.75
-1.4
1.38
4.23
6.69
8.35
8.93
8.43
7.03
5.09
3.0
1.05
-0.59
-1.89
-2.95
-3.86
-4.71
-5.51
-6.21
-6.77
-7.16
-7.46
-7.78
-8.28
-9.02
-9.95
-10.89
-11.61
-11.91
-11.7
-10.96
-9.75
-8.11
-6.09
-3.73
-1.15
1.4
3.64
5.31
6.32
6.74
6.79
6.73
6.76
6.96
7.32
7.72
8.02
8.11
7.84
7.14
5.95
4.33
2.44
0.5
-1.16
-2.27
-2.63
-2.23
-1.23
0.14
1.6
3.0
4.26
5.32
6.09
6.38
5.98
4.85
3.16
1.27
-0.37
-1.39
-1.63
-1.18
-0.32
0.48
0.7
-0.16
-2.38
-5.85
-10.03
-13.99
-16.74
-17.54
-16.2
-13.09
-8.97
-4.7
-1.01
1.7
3.27
3.78
3.46
2.61
1.56
0.64
0.03
-0.24
-0.25
-0.16
-0.11
-0.18
-0.37
-0.67
-1.01
-1.34
-1.56
-1.57
-1.31
-0.83
-0.26
0.25
0.61
0.86
1.1
1.53
2.2
3.12
4.21
5.39
6.61
7.75
8.67
9.15
8.97
8.11
6.71
5.12
3.67
2.58
1.81
1.18
0.48
-0.39
-1.36
-2.26
-2.95
-3.47
-3.96
-4.67
-5.72
-7.06
-8.5
-9.79
-10.71
-11.2
-11.23
-10.82
-10.01
-8.77
-7.18
-5.37
-3.57
-2.0
-0.8
-0.03
0.29
0.13
-0.56
-1.81
-3.53
-5.47
-7.29
-8.63
-9.34
-9.47
-9.34
-9.34
-9.78
-10.84
-12.41
-14.23
-15.93
-17.15
-17.6
-17.13
-15.69
-13.42
-10.68
-7.96
-5.84
-4.65
-4.18
-3.55
-1.47
3.29
11.2
21.67
33.16
43.78
51.99
57.07
59.15
58.81
56.66
53.12
48.41
42.8
36.79
30.96
25.85
21.69
18.34
15.5
12.9
10.47
8.47
7.36
7.6
9.34
12.35
16.04
19.57
22.21
23.45
23.26
22.02
20.38
19.02
18.43
18.71
19.53
20.25
20.16
18.76
15.89
11.8
6.98
1.89
-3.19
-8.21
-13.14
-17.88
-22.1
-25.35
-27.21
-27.44
-25.99
-22.93
-18.39
-12.55
-5.75
1.5
8.48
14.46
18.91
21.59
22.54
21.94
19.9
16.5
11.87
6.31
0.36
-5.31
-10.11
-13.76
-16.38
-18.4
-20.3
-22.42
-24.76
-26.98
-28.51
-28.82
-27.53
-24.58
-20.27
-15.12
-9.78
-4.88
-0.79
2.43
5.15
7.98
11.51
15.97
21.03
25.95
29.91
32.37
33.33
33.19
32.44
31.36
29.76
27.21
23.16
17.35
9.86
1.14
-8.2
-17.46
-26.08
-33.72
-40.23
-45.7
-50.24
-53.8
-56.12
-56.71
-55.08
-51.0
-44.61
-36.39
-27.08
-17.47
-8.33
-0.41
5.71
9.78
12.09
13.47
14.99
17.47
21.0
24.85
27.8
28.78
27.41
24.13
19.88
15.56
11.64
8.09
4.71
1.38
-1.63
-3.9
-5.07
-5.11
-4.47
-3.84
-3.92
-5.16
-7.59
-10.85
-14.39
-17.58
-19.91
-21.09
-20.94
-19.5
-16.91
-13.39
-9.24
-4.8
-0.45
3.44
6.58
8.82
10.24
11.18
12.14
13.55
15.65
18.3
21.1
23.57
25.3
26.07
25.74
24.15
20.99
15.81
8.28
-1.54
-12.98
-24.79
-35.38
-43.34
-47.87
-49.01
-47.66
-45.17
-42.86
-41.66
-41.85
-43.13
-44.78
-45.89
-45.49
-42.82
-37.36
-29.14
-18.78
-7.36
3.82
13.66
21.55
27.51
31.96
35.42
38.13
39.9
40.18
38.4
34.25
27.94
20.25
12.2
4.8
-1.23
-5.58
-8.31
-9.6
-9.71
-8.97
-7.8
-6.78
-6.61
-7.87
-10.77
-15.01
-19.83
-24.24
-27.24
-28.13
-26.51
-22.37
-16.04
-8.14
0.46
8.84
16.14
21.83
25.84
28.45
30.18
31.49
32.62
33.53
34.07
34.1
33.56
32.4
30.46
27.4
22.76
16.12
7.39
-3.1
-14.52
-25.71
-35.39
-42.45
-46.21
-46.57
-43.99
-39.32
-33.56
-27.63
-22.12
-17.31
-13.26
-9.9
-7.18
-5.05
-3.45
-2.26
-1.26
-0.21
1.11
2.84
4.98
7.39
9.83
11.98
13.56
14.4
14.52
14.1
13.52
13.31
14.0
15.97
19.3
23.62
28.19
31.98
34.01
33.6
30.56
25.23
18.32
10.72
3.27
-3.4
-8.87
-12.92
-15.55
-16.86
-17.15
-16.82
-16.27
-15.87
-15.85
-16.21
-16.81
-17.38
-17.55
-16.98
-15.27
-12.13
-7.37
-1.03
6.59
14.81
22.68
29.07
32.91
33.45
30.35
23.67
13.77
1.12
-13.75
-30.17
-47.13
-63.2
-76.49
-84.97
-86.78
-80.8
-67.04
-46.84
-22.79
1.72
23.15
38.66
46.64
47.04
41.16
31.17
19.48
8.18
-1.26
-8.05
-12.09
-13.67
-13.37
-11.82
-9.62
-7.27
-5.15
-3.52
-2.57
-2.34
-2.81
-3.86
-5.23
-6.58
-7.44
-7.3
-5.69
-2.5
1.82
6.19
9.03
8.78
4.47
-3.76
-14.59
-25.8
-34.94
-40.04
-40.17
-35.56
-27.3
-16.89
-5.7
5.17
14.93
22.85
28.21
30.37
29.06
24.64
18.16
11.1
4.9
0.39
-2.36
-3.98
-5.38
-7.3
-10.03
-13.38
-16.95
-20.36
-23.51
-26.49
-29.51
-32.66
-35.75
-38.34
-39.82
-39.75
-38.11
-35.55
-33.36
-33.13
-36.08
-42.51
-51.33
-60.31
-66.65
-67.76
-61.94
-48.63
-28.38
-2.68
26.24
55.54
81.96
102.27
113.96
115.88
108.57
94.18
75.85
56.94
40.28
27.68
19.8
16.23
15.81
17.03
18.41
18.79
17.53
14.53
10.07
4.7
-0.97
-6.4
-11.29
-15.55
-19.28
-22.55
-25.28
-27.13
-27.55
-26.0
-22.16
-16.18
-8.69
-0.73
6.48
11.82
14.59
14.78
13.18
11.3
10.92
13.62
20.14
30.09
42.07
53.99
63.73
69.58
70.54
66.36
57.45
44.7
29.43
13.21
-2.29
-15.52
-25.31
-31.13
-33.11
-32.01
-28.95
-25.12
-21.58
-19.0
-17.69
-17.6
-18.38
-19.54
-20.56
-20.98
-20.55
-19.2
-17.13
-14.68
-12.28
-10.34
-9.14
-8.77
-9.12
-9.9
-10.7
-11.12
-10.84
-9.8
-8.23
-6.68
-5.86
-6.47
-8.89
-12.97
-18.0
-22.89
-26.51
-27.99
-26.92
-23.35
-17.6
-10.13
-1.45
7.79
16.8
24.62
30.34
33.4
33.77
32.05
29.26
26.58
24.89
24.63
25.72
27.73
30.06
32.21
33.85
34.8
34.97
34.23
32.37
29.16
24.48
18.43
11.37
3.84
-3.56
-10.23
-15.74
-19.79
-22.25
-23.21
-23.05
-22.43
-22.02
-22.3
-23.26
-24.27
-24.46
-23.03
-19.69
-14.78
-9.06
-3.34
1.81
6.17
9.73
12.46
14.25
14.89
14.28
12.56
10.16
7.7
5.81
4.99
5.45
7.07
9.42
11.87
13.78
14.73
14.65
13.86
12.92
12.31
12.2
12.35
12.16
11.02
8.55
4.87
0.49
-3.9
-7.65
-10.37
-11.94
-12.35
-11.72
-10.27
-8.5
-7.11
-6.85
-8.25
-11.26
-15.3
-19.41
-22.75
-24.87
-25.81
-25.91
-25.44
-24.4
-22.47
-19.32
-14.82
-9.27
-3.27
2.41
7.11
10.38
12.0
11.91
10.19
7.03
2.79
-2.05
-7.0
-11.64
-15.7
-19.11
-21.85
-23.86
-24.98
-24.95
-23.53
-20.63
-16.4
-11.17
-5.42
0.38
5.84
10.71
14.87
18.33
21.21
23.75
26.28
29.17
32.7
36.92
41.5
45.69
48.47
48.78
45.84
39.41
29.9
18.29
5.87
-5.9
-15.74
-22.64
-26.1
-26.15
-23.44
-19.11
-14.56
-11.09
-9.58
-10.23
-12.58
-15.73
-18.64
-20.44
-20.65
-19.15
-16.13
-11.93
-6.92
-1.54
3.73
8.37
11.85
13.79
14.13
13.18
11.63
10.36
10.17
11.46
14.0
16.92
18.98
18.92
15.98
10.17
2.33
-6.08
-13.37
-18.04
-19.13
-16.37
-10.15
-1.4
8.6
18.52
27.21
33.84
37.97
39.5
38.54
35.31
30.15
23.5
15.94
8.15
0.78
-5.69
-11.03
-15.23
-18.46
-20.9
-22.71
-24.06
-25.11
-26.1
-27.26
-28.71
-30.3
-31.7
-32.33
-31.64
-29.19
-24.75
-18.28
-10.01
-0.43
9.7
19.38
27.59
33.52
36.83
37.76
37.01
35.48
33.92
32.72
31.84
30.97
29.75
27.98
25.69
23.09
20.42
17.81
15.18
12.28
8.83
4.64
-0.16
-5.2
-9.91
-13.76
-16.4
-17.86
-18.44
-18.6
-18.82
-19.43
-20.55
-22.09
-23.83
-25.45
-26.61
-26.92
-25.93
-23.27
-18.67
-12.21
-4.36
3.99
11.8
18.0
21.82
22.76
20.65
15.51
7.65
-2.2
-12.81
-22.45
-29.33
-32.15
-30.59
-25.58
-18.99
-13.02
-9.44
-9.04
-11.41
-15.24
-18.8
-20.59
-19.77
-16.33
-10.97
-4.76
1.21
6.15
9.65
11.61
12.1
11.28
9.32
6.52
3.26
0.08
-2.57
-4.34
-5.08
-4.74
-3.28
-0.58
3.41
8.45
13.92
18.77
21.82
22.14
19.36
13.85
6.63
-0.94
-7.49
-11.96
-13.9
-13.5
-11.51
-9.02
-7.08
-6.37
-6.99
-8.51
-10.08
-10.82
-10.07
-7.6
-3.68
1.11
6.0
10.38
13.91
16.55
18.48
19.96
21.19
22.26
23.16
23.78
24.02
23.76
23.03
22.01
21.13
20.89
21.65
23.4
25.6
27.39
27.97
27.07
25.23
23.75
24.23
27.82
34.71
43.78
52.88
59.53
61.82
59.13
52.48
44.23
37.22
33.77
34.69
38.99
44.16
47.21
45.8
39.39
29.44
18.88
10.97
7.9
9.9
15.15
20.32
21.84
17.18
5.71
-11.09
-30.16
-48.04
-62.32
-72.66
-80.94
-90.33
-103.43
-120.51
-138.65
-152.39
-155.85
-145.21
-120.45
-85.55
-47.06
-11.67
15.84
33.77
43.18
46.67
46.95
45.9
44.36
42.44
40.13
37.7
35.76
34.91
35.32
36.49
37.34
36.66
33.8
29.15
24.2
21.0
21.31
25.73
33.34
42.07
49.56
53.91
54.24
50.51
43.22
33.1
21.05
8.32
-3.44
-12.51
-17.54
-18.09
-14.74
-8.81
-1.76
5.24
11.59
17.09
21.73
25.58
28.7
31.2
33.29
35.25
37.47
40.52
45.17
52.46
63.6
79.63
100.82
126.0
152.21
175.05
189.58
191.65
179.07
152.25
114.08
69.28
23.4
-18.08
-50.57
-70.81
-77.29
-70.42
-52.41
-26.75
2.57
31.83
58.09
79.25
93.88
101.01
100.12
90.9
73.09
46.1
9.21
-37.66
-92.48
-150.1
-202.39
-239.94
-255.01
-244.35
-210.63
-161.93
-109.68
-65.74
-39.66
-36.38
-54.84
-87.77
-123.39
-148.77
-154.0
-135.44
-96.52
-45.51
8.27
57.74
99.09
130.49
150.27
155.93
145.03
116.92
74.0
21.46
-34.19
-87.09
-133.16
-170.4
-198.68
-219.2
-233.9
-244.81
-253.14
-258.51
-259.12
-252.65
-237.89
-215.93
-190.05
-164.19
-140.99
-120.61
-101.36
-81.94
-63.85
-52.15
-53.57
-72.91
-109.21
-154.54
-196.04
-220.68
-220.36
-194.86
-151.41
-101.4
-56.21
-23.86
-7.73
-6.88
-17.26
-33.15
-48.5
-58.37
-60.13
-54.09
-42.86
-29.86
-17.54
-6.44
4.6
17.43
33.42
53.19
76.98
105.13
138.03
175.14
213.94
249.7
276.47
289.28
286.24
269.57
244.84
218.81
196.94
181.77
172.63
166.85
161.36
154.01
144.13
132.18
119.1
105.78
92.94
81.37
72.07
65.97
62.98
61.28
57.38
47.39
29.05
3.39
-25.1
-50.11
-66.14
-70.85
-65.65
-54.5
-41.7
-30.07
-20.37
-12.15
-5.0
0.48
2.9
0.9
-5.8
-15.97
-27.15
-36.63
-42.28
-43.1
-39.19
-31.28
-20.29
-7.04
7.73
23.1
37.89
50.67
60.15
65.53
66.81
64.78
60.66
55.76
51.06
46.99
43.46
40.07
36.38
32.16
27.59
23.24
19.87
18.14
18.34
20.17
22.85
25.31
26.49
25.65
22.53
17.34
10.64
3.22
-4.12
-10.76
-16.28
-20.54
-23.6
-25.69
-27.03
-27.85
-28.3
-28.55
-28.79
-29.25
-30.22
-31.87
-34.25
-37.17
-40.21
-42.89
-44.72
-45.38
-44.86
-43.36
-41.19
-38.62
-35.68
-32.12
-27.48
-21.19
-12.77
-2.02
10.78
24.78
38.59
50.56
59.12
63.16
62.31
57.03
48.37
37.75
26.53
15.88
6.64
-0.69
-5.84
-8.76
-9.62
-8.77
-6.66
-3.81
-0.73
2.14
4.47
6.09
6.96
7.19
6.98
6.47
5.72
4.6
2.85
0.17
-3.61
-8.41
-13.88
-19.51
-24.69
-28.92
-31.85
-33.36
-33.62
-32.99
-31.97
-30.99
-30.31
-29.95
-29.86
-29.98
-30.53
-31.95
-34.76
-39.34
-45.6
-52.88
-60.0
-65.49
-67.91
-66.23
-60.12
-50.02
-37.13
-23.11
-9.7
1.64
10.09
15.58
18.77
20.73
22.63
25.35
29.33
34.53
40.63
47.24
53.93
60.25
65.64
69.4
70.83
69.58
65.81
60.25
53.92
47.71
42.07
36.88
31.67
26.0
19.72
13.08
6.59
0.78
-4.07
-7.98
-11.23
-14.11
-16.88
-19.62
-22.25
-24.62
-26.58
-28.01
-28.86
-29.12
-28.82
-28.03
-26.84
-25.34
-23.61
-21.77
-19.92
-18.22
-16.83
-15.81
-15.1
-14.44
-13.5
-12.0
-9.88
-7.31
-4.64
-2.22
-0.26
1.3
2.66
4.09
5.73
7.56
9.37
10.88
11.88
12.25
12.02
11.23
10.02
8.53
6.95
5.6
4.85
5.0
6.13
8.0
10.06
11.7
12.42
12.07
10.85
9.13
7.32
5.71
4.35
3.2
2.15
1.14
0.2
-0.59
-1.13
-1.36
-1.26
-0.82
-0.07
0.96
2.2
3.56
4.89
6.0
6.72
6.99
6.89
6.63
6.44
6.46
6.65
6.76
6.53
5.78
4.57
3.16
1.91
1.13
0.94
1.19
1.59
1.83
1.72
1.23
0.45
-0.49
-1.53
-2.68
-3.96
-5.34
-6.64
-7.63
-8.11
-8.09
-7.79
-7.6
-7.9
-8.82
-10.23
-11.76
-12.99
-13.59
-13.45
-12.66
-11.37
-9.76
-7.95
-6.04
-4.09
-2.21
-0.39
1.37
3.12
4.84
6.4
7.56
8.07
7.82
6.85
5.42
3.81
2.2
0.63
-1.02
-2.84
-4.85
-6.89
-8.74
-10.15
-11.02
-11.3
-11.07
-10.4
-9.33
-7.89
-6.1
-4.03
-1.81
0.39
2.39
4.07
5.34
6.25
6.88
7.36
7.78
8.19
8.57
8.89
9.12
9.2
9.06
8.53
7.42
5.61
3.12
0.18
-2.88
-5.7
-8.06
-9.9
-11.27
-12.24
-12.77
-12.74
-12.06
-10.76
-9.06
-7.28
-5.74
-4.6
-3.88
-3.42
-3.08
-2.72
-2.29
-1.78
-1.19
-0.49
0.32
1.18
1.98
2.57
2.84
2.81
2.61
2.44
2.47
2.76
3.24
3.76
4.21
4.49
4.64
4.64
4.51
4.16
3.53
2.58
1.35
-0.05
-1.5
-2.85
-4.06
-5.05
-5.78
-6.19
-6.22
-5.84
-5.06
-3.95
-2.61
-1.22
0.02
0.84
1.06
0.56
-0.59
-2.14
-3.68
-4.76
-5.0
-4.24
-2.54
-0.19
2.44
4.94
7.04
8.55
9.39
9.56
9.14
8.19
6.84
5.18
3.33
1.44
-0.36
-1.84
-2.82
-3.14
-2.73
-1.66
-0.13
1.62
3.35
4.82
5.91
6.52
6.55
5.92
4.46
2.14
-0.99
-4.6
-8.17
-11.08
-12.86
-13.38
-12.85
-11.78
-10.65
-9.78
-9.18
-8.65
-7.98
-7.04
-5.8
-4.33
-2.69
-0.88
1.06
3.07
5.01
6.67
7.83
8.31
8.05
7.06
5.49
3.55
1.51
-0.39
-1.95
-3.07
-3.68
-3.76
-3.35
-2.5
-1.33
-0.03
1.2
2.21
2.91
3.31
3.49
3.55
3.57
3.57
3.58
3.62
3.71
3.87
4.05
4.11
3.89
3.19
1.95
0.23
-1.74
-3.63
-5.15
-6.16
-6.68
-6.85
-6.85
-6.79
-6.75
-6.77
-6.92
-7.23
-7.66
-8.02
-8.02
-7.34
-5.73
-3.16
0.22
4.08
8.07
11.85
15.22
18.07
20.42
22.33
23.88
25.1
25.98
26.47
26.51
26.1
25.2
23.71
21.44
18.1
13.56
7.89
1.47
-5.02
-10.82
-15.25
-17.87
-18.51
-17.32
-14.71
-11.25
-7.65
-4.59
-2.6
-1.94
-2.52
-3.95
-5.77
-7.51
-8.92
-9.91
-10.59
-11.06
-11.5
-12.02
-12.71
-13.61
-14.68
-15.75
-16.55
-16.75
-16.06
-14.39
-11.83
-8.71
-5.42
-2.36
0.24
2.28
3.82
4.96
5.79
6.38
6.73
6.86
6.76
6.47
6.0
5.38
4.67
3.96
3.37
3.01
3.0
3.38
4.15
5.26
6.65
8.29
10.14
12.13
14.2
16.22
18.08
19.66
20.87
21.61
21.76
21.1
19.34
16.21
11.58
5.58
-1.4
-8.73
-15.72
-21.83
-26.67
-30.11
-32.14
-32.83
-32.21
-30.45
-27.79
-24.63
-21.45
-18.66
-16.49
-14.97
-13.98
-13.33
-12.88
-12.57
-12.44
-12.52
-12.83
-13.29
-13.72
-13.91
-13.62
-12.75
-11.32
-9.52
-7.67
-6.1
-5.07
-4.69
-4.92
-5.61
-6.56
-7.56
-8.4
-8.91
-9.02
-8.68
-7.95
-6.94
-5.79
-4.64
-3.63
-2.91
-2.56
-2.59
-2.94
-3.41
-3.82
-4.0
-3.84
-3.34
-2.59
-1.74
-0.98
-0.55
-0.56
-1.07
-1.96
-3.03
-4.02
-4.68
-4.86
-4.49
-3.6
-2.29
-0.74
0.86
2.34
3.57
4.48
5.1
5.41
5.35
4.84
3.82
2.34
0.56
-1.24
-2.81
-4.01
-4.87
-5.62
-6.52
-7.76
-9.38
-11.2
-12.95
-14.33
-15.12
-15.24
-14.71
-13.63
-12.11
-10.25
-8.22
-6.19
-4.36
-2.91
-2.01
-1.73
-2.09
-3.01
-4.3
-5.69
-6.87
-7.6
-7.75
-7.46
-7.08
-7.14
-8.24
-10.84
-15.11
-20.79
-27.23
-33.46
-38.54
-41.77
-43.04
-42.81
-41.96
-41.51
-42.28
-44.7
-48.7
-53.83
-59.3
-64.16
-67.3
-67.65
-64.44
-57.35
-46.83
-33.97
-20.37
-7.72
2.6
9.81
13.84
15.3
15.32
15.22
16.29
19.48
25.1
32.67
40.84
47.66
51.2
50.42
45.81
39.55
34.86
34.86
41.4
54.43
72.15
91.75
110.21
125.04
134.33
136.9
132.19
120.59
103.48
83.32
63.18
46.03
33.91
27.44
25.81
27.24
29.67
31.32
31.13
28.72
24.29
18.46
12.14
6.39
2.35
0.98
2.78
7.61
14.72
22.94
31.05
37.97
42.86
45.18
44.72
41.59
36.31
29.61
22.16
14.42
6.62
-1.09
-8.4
-14.8
-19.74
-23.0
-24.88
-26.21
-28.04
-31.23
-36.09
-42.3
-49.01
-55.11
-59.47
-61.15
-59.56
-54.53
-46.45
-36.13
-24.76
-13.64
-3.92
3.49
8.08
9.69
8.55
5.21
0.48
-4.67
-9.33
-12.79
-14.65
-14.9
-13.78
-11.64
-8.95
-6.14
-3.65
-1.88
-1.14
-1.59
-3.21
-5.79
-8.96
-12.29
-15.37
-17.93
-19.84
-21.15
-21.99
-22.54
-22.91
-23.1
-23.03
-22.44
-21.06
-18.69
-15.23
-10.82
-5.8
-0.68
4.01
7.8
10.44
11.87
12.26
11.86
10.94
9.64
7.96
5.87
3.32
0.42
-2.58
-5.31
-7.46
-8.89
-9.65
-10.01
-10.26
-10.64
-11.18
-11.76
-12.1
-11.95
-11.1
-9.51
-7.25
-4.51
-1.54
1.4
4.05
6.21
7.71
8.46
8.46
7.75
6.48
4.81
2.97
1.16
-0.45
-1.76
-2.76
-3.53
-4.22
-5.06
-6.23
-7.8
-9.64
-11.46
-12.77
-13.1
-12.16
-9.92
-6.72
-3.07
0.48
3.49
5.77
7.27
8.06
8.2
7.76
6.81
5.47
3.93
2.41
1.11
0.22
-0.23
-0.32
-0.22
-0.23
-0.57
-1.42
-2.74
-4.29
-5.72
-6.64
-6.77
-6.0
-4.48
-2.48
-0.3
1.82
3.77
5.52
7.06
8.3
9.07
9.21
8.66
7.47
5.89
4.18
2.61
1.33
0.42
-0.11
-0.35
-0.44
-0.6
-1.03
-1.9
-3.18
-4.67
-6.01
-6.84
-6.82
-5.81
-3.87
-1.25
1.68
4.47
6.74
8.27
9.0
9.03
8.52
7.64
6.46
5.01
3.34
1.62
0.05
-1.14
-1.82
-2.05
-2.04
-2.1
-2.52
-3.48
-4.95
-6.74
-8.5
-9.8
-10.24
-9.57
-7.77
-5.1
-2.05
0.78
2.85
3.85
3.76
2.84
1.56
0.46
-0.03
0.36
1.62
3.54
5.75
7.87
9.61
10.77
11.3
11.2
10.53
9.35
7.75
5.88
3.95
2.2
0.81
-0.16
-0.76
-1.17
-1.6
-2.24
-3.19
-4.41
-5.78
-7.09
-8.04
-8.35
-7.82
-6.39
-4.17
-1.44
1.47
4.23
6.57
8.36
9.52
10.07
10.01
9.38
8.25
6.75
5.01
3.23
1.58
0.17
-0.9
-1.69
-2.28
-2.87
-3.62
-4.66
-5.97
-7.4
-8.63
-9.32
-9.19
-8.14
-6.33
-4.1
-1.83
0.19
1.87
3.29
4.58
5.82
6.96
7.88
8.47
8.75
8.82
8.88
9.1
9.48
9.91
10.2
10.11
9.54
8.41
6.74
4.58
2.1
-0.38
-2.4
-3.46
-3.26
-1.74
0.78
3.75
6.64
9.13
11.14
12.77
14.13
15.16
15.65
15.35
14.07
11.9
9.16
6.33
3.89
2.11
1.03
0.46
0.09
-0.36
-1.1
-2.16
-3.53
-5.07
-6.61
-7.88
-8.58
-8.42
-7.3
-5.32
-2.81
-0.18
2.21
4.16
5.65
6.69
7.33
7.56
7.37
6.79
5.94
4.98
4.09
3.42
2.97
2.66
2.33
1.8
0.99
-0.09
-1.31
-2.43
-3.17
-3.3
-2.67
-1.27
0.79
3.35
6.22
9.18
11.96
14.26
15.75
16.18
15.42
13.51
10.65
7.11
3.19
-0.88
-4.81
-8.35
-11.26
-13.39
-14.72
-15.4
-15.69
-15.88
-16.18
-16.67
-17.29
-17.84
-18.02
-17.52
-16.11
-13.77
-10.71
-7.35
-4.16
-1.52
0.38
1.56
2.11
2.14
1.66
0.66
-0.84
-2.73
-4.75
-6.58
-7.9
-8.52
-8.44
-7.88
-7.26
-7.01
-7.43
-8.53
-10.01
-11.31
-11.89
-11.38
-9.76
-7.32
-4.5
-1.76
0.59
2.46
3.86
4.86
5.46
5.65
5.39
4.7
3.72
2.63
1.66
0.98
0.66
0.67
0.87
1.07
1.08
0.7
-0.22
-1.65
-3.45
-5.23
-6.5
-6.77
-5.72
-3.36
-0.03
3.67
7.14
9.85
11.57
12.3
12.22
11.53
10.34
8.71
6.69
4.4
2.11
0.17
-1.12
-1.63
-1.47
-0.97
-0.52
-0.5
-1.15
-2.5
-4.36
-6.38
-8.04
-8.76
-8.12
-5.96
-2.47
1.81
6.24
10.19
13.28
15.31
16.28
16.25
15.31
13.58
11.29
8.78
6.44
4.61
3.43
2.82
2.51
2.22
1.71
0.89
-0.2
-1.45
-2.78
-4.06
-5.14
-5.74
-5.54
-4.29
-1.97
1.11
4.35
7.15
9.09
10.05
10.17
9.67
8.69
7.29
5.45
3.23
0.86
-1.35
-3.1
-4.21
-4.72
-4.75
-4.54
-4.32
-4.28
-4.6
-5.38
-6.6
-8.07
-9.43
-10.25
-10.17
-9.05
-7.04
-4.5
-1.84
0.61
2.7
4.34
5.43
5.82
5.32
3.84
1.53
-1.21
-3.81
-5.74
-6.68
-6.59
-5.75
-4.53
-3.34
-2.47
-2.09
-2.22
-2.76
-3.46
-4.0
-4.02
-3.21
-1.45
1.15
4.21
7.22
9.64
11.15
11.65
11.26
10.15
8.52
6.5
4.19
1.74
-0.6
-2.58
-4.0
-4.83
-5.26
-5.57
-6.05
-6.86
-7.98
-9.24
-10.38
-11.09
-11.11
-10.24
-8.38
-5.6
-2.16
1.61
5.28
8.48
10.94
12.44
12.85
12.09
10.21
7.47
4.34
1.37
-0.93
-2.28
-2.7
-2.44
-1.82
-1.16
-0.73
-0.71
-1.24
-2.4
-4.04
-5.78
-7.05
-7.27
-6.1
-3.58
-0.12
3.66
7.15
9.95
11.87
12.9
13.07
12.44
11.07
9.12
6.88
4.68
2.85
1.56
0.81
0.42
0.15
-0.25
-0.96
-2.01
-3.36
-4.83
-6.2
-7.19
-7.55
-7.05
-5.61
-3.28
-0.25
3.13
6.5
9.55
12.03
13.82
14.81
14.9
14.04
12.32
9.96
7.39
5.1
3.45
2.56
2.27
2.21
2.07
1.6
0.69
-0.66
-2.46
-4.63
-6.97
-9.02
-10.25
-10.13
-8.47
-5.46
-1.65
2.22
5.54
7.99
9.5
10.15
10.01
9.07
7.34
4.94
2.24
-0.29
-2.15
-3.07
-3.1
-2.57
-1.98
-1.82
-2.42
-3.86
-5.97
-8.37
-10.57
-12.12
-12.66
-12.07
-10.46
-8.07
-5.28
-2.41
0.22
2.34
3.75
4.29
3.92
2.72
0.92
-1.12
-3.02
-4.48
-5.38
-5.74
-5.69
-5.43
-5.11
-4.86
-4.82
-5.19
-6.13
-7.65
-9.46
-11.01
-11.63
-10.8
-8.43
-4.89
-0.84
3.05
6.33
8.83
10.58
11.61
11.88
11.35
10.06
8.22
6.23
4.54
3.49
3.2
3.55
4.24
4.92
5.26
5.05
4.16
2.61
0.59
-1.55
-3.3
-4.14
-3.69
-1.87
1.07
4.61
8.15
11.21
13.5
14.92
15.51
15.33
14.41
12.83
10.71
8.31
5.98
4.09
2.89
2.46
2.63
3.07
3.38
3.19
2.29
0.68
-1.48
-3.84
-5.96
-7.43
-7.89
-7.19
-5.37
-2.67
0.5
3.64
6.35
8.32
9.46
9.84
9.61
8.86
7.67
6.09
4.21
2.26
0.5
-0.79
-1.48
-1.68
-1.68
-1.88
-2.6
-4.04
-6.15
-8.71
-11.29
-13.39
-14.48
-14.16
-12.25
-8.88
-4.45
0.43
5.14
9.22
12.43
14.73
16.24
17.02
17.11
16.5
15.26
13.64
12.05
10.94
10.58
10.98
11.77
12.42
12.41
11.46
9.55
6.99
4.23
1.84
0.35
0.18
1.51
4.18
7.68
11.26
14.21
16.02
16.59
16.12
15.02
13.63
12.19
10.79
9.48
8.31
7.41
6.88
6.71
6.78
6.8
6.48
5.62
4.2
2.4
0.52
-1.14
-2.37
-3.09
-3.39
-3.36
-3.1
-2.7
-2.27
-2.04
-2.34
-3.5
-5.77
-9.09
-13.13
-17.33
-21.11
-24.03
-25.93
-26.94
-27.28
-27.19
-26.8
-26.17
-25.34
-24.44
-23.65
-23.18
-23.19
-23.67
-24.43
-25.04
-24.98
-23.72
-20.91
-16.46
-10.62
-3.95
2.86
9.12
14.3
18.11
20.47
21.52
21.55
20.99
20.3
19.95
20.22
21.09
22.21
22.98
22.79
21.24
18.25
14.12
9.37
4.57
0.23
-3.26
-5.57
-6.48
-5.97
-4.24
-1.83
0.49
1.94
2.0
0.62
-1.74
-4.35
-6.49
-7.74
-8.06
-7.74
-7.16
-6.58
-6.05
-5.43
-4.51
-3.17
-1.45
0.48
2.34
3.81
4.49
4.0
2.06
-1.22
-5.2
-8.64
-10.05
-8.26
-2.97
5.02
13.91
21.64
26.46
27.55
25.03
19.7
12.66
4.95
-2.55
-9.1
-14.09
-17.07
-17.88
-16.74
-14.32
-11.59
-9.57
-9.03
-10.35
-13.34
-17.45
-21.84
-25.71
-28.39
-29.44
-28.67
-26.11
-21.97
-16.54
-10.23
-3.48
3.19
9.2
13.86
16.55
16.85
14.75
10.81
6.07
1.88
-0.54
-0.38
2.52
7.67
14.08
20.52
25.73
28.6
28.37
24.76
18.18
9.62
0.48
-7.8
-14.19
-18.26
-20.25
-20.8
-20.63
-20.2
-19.67
-18.93
-17.78
-16.17
-14.16
-11.94
-9.67
-7.5
-5.51
-3.81
-2.43
-1.32
-0.22
1.25
3.37
6.08
8.77
10.45
10.15
7.4
2.53
-3.38
-8.97
-13.1
-15.26
-15.6
-14.64
-12.91
-10.71
-8.14
-5.21
-2.16
0.52
2.2
2.33
0.72
-2.33
-6.27
-10.5
-14.62
-18.4
-21.47
-23.0
-21.62
-15.79
-4.46
12.27
32.92
54.98
75.71
92.82
104.96
111.51
112.21
106.85
95.38
78.2
56.61
32.89
9.84
-9.89
-24.59
-33.81
-38.23
-39.21
-38.14
-36.05
-33.53
-30.82
-28.14
-25.75
-23.95
-23.03
-23.01
-23.67
-24.54
-25.11
-24.96
-23.92
-22.12
-19.85
-17.47
-15.19
-13.02
-10.79
-8.27
-5.35
-2.14
1.06
3.84
5.84
6.89
6.97
6.25
4.99
3.55
2.33
1.64
1.54
1.67
1.31
-0.41
-4.07
-9.57
-16.05
-22.11
-26.32
-27.76
-26.29
-22.5
-17.33
-11.73
-6.39
-1.67
2.18
5.0
6.57
6.73
5.49
3.07
-0.0
-3.1
-5.56
-6.92
-7.03
-6.08
-4.5
-2.82
-1.47
-0.63
-0.21
0.09
0.64
1.74
3.52
5.9
8.59
11.16
13.17
14.25
14.2
13.03
10.97
8.48
6.11
4.44
3.93
4.81
6.98
10.01
13.24
15.9
17.32
17.07
15.0
11.33
6.5
1.17
-3.97
-8.29
-11.43
-13.39
-14.52
-15.36
-16.4
-17.79
-19.29
-20.26
-19.94
-17.72
-13.4
-7.33
-0.31
6.58
12.3
16.1
17.71
17.42
15.91
14.0
12.44
11.62
11.55
11.82
11.85
11.12
9.35
6.7
3.64
0.83
-1.19
-2.27
-2.64
-2.74
-2.99
-3.51
-4.1
-4.45
-4.36
-3.9
-3.28
-2.7
-2.12
-1.31
0.04
2.03
4.4
6.66
8.24
8.76
8.17
6.66
4.58
2.3
0.11
-1.74
-3.13
-3.96
-4.25
-4.11
-3.74
-3.4
-3.34
-3.69
-4.45
-5.39
-6.16
-6.36
-5.71
-4.17
-1.9
0.78
3.58
6.34
9.08
11.88
14.75
17.55
20.04
21.89
22.9
23.0
22.33
21.16
19.76
18.33
16.94
15.5
13.85
11.82
9.3
6.25
2.71
-1.22
-5.39
-9.58
-13.5
-16.89
-19.47
-21.1
-21.8
-21.67
-20.92
-19.7
-18.11
-16.15
-13.83
-11.22
-8.53
-6.06
-4.14
-2.92
-2.36
-2.17
-1.95
-1.35
-0.25
1.26
2.94
4.58
6.01
7.11
7.75
7.79
7.12
5.79
4.06
2.28
0.8
-0.21
-0.8
-1.14
-1.37
-1.56
-1.66
-1.63
-1.47
-1.35
-1.45
-1.95
-2.89
-4.17
-5.56
-6.81
-7.64
-7.93
-7.69
-7.11
-6.48
-6.12
-6.23
-6.84
-7.77
-8.69
-9.19
-8.92
-7.65
-5.38
-2.34
1.04
4.29
6.97
8.8
9.72
9.79
9.15
7.91
6.14
3.93
1.47
-0.93
-2.86
-3.96
-4.08
-3.34
-2.16
-1.11
-0.72
-1.28
-2.76
-4.85
-7.11
-9.09
-10.55
-11.43
-11.8
-11.8
-11.48
-10.79
-9.53
-7.47
-4.48
-0.62
3.72
7.85
10.91
12.07
10.84
7.28
2.05
-3.71
-8.67
-11.73
-12.31
-10.49
-6.87
-2.31
2.43
6.85
10.76
14.1
16.74
18.45
18.93
18.01
15.81
12.66
9.02
5.23
1.38
-2.57
-6.57
-10.23
-12.88
-13.79
-12.61
-9.63
-5.68
-1.7
1.67
4.26
6.19
7.57
8.45
9.02
9.94
12.38
17.52
25.64
35.53
44.56
49.68
48.79
41.78
30.55
18.07
7.09
-0.91
-5.91
-8.75
-10.36
-11.06
-10.54
-8.24
-3.91
2.0
8.35
13.76
17.23
18.57
18.49
18.22
18.84
20.76
23.5
25.93
26.85
25.52
21.95
16.89
11.44
6.68
3.22
1.08
-0.14
-1.0
-1.91
-2.91
-3.78
-4.24
-4.27
-4.19
-4.69
-6.59
-10.61
-17.11
-25.96
-36.33
-46.69
-54.9
-58.83
-57.02
-49.45
-37.67
-24.44
-12.74
-4.81
-1.54
-2.59
-6.9
-13.46
-21.57
-30.83
-40.86
-51.03
-60.53
-68.63
-74.91
-79.32
-82.11
-83.51
-83.65
-82.47
-79.77
-75.29
-68.76
-59.98
-48.88
-35.73
-21.24
-6.49
7.17
18.51
26.61
31.11
32.27
30.86
27.99
24.97
23.05
23.33
26.52
32.77
41.46
51.22
60.36
67.3
71.16
72.05
70.85
68.79
66.79
65.2
63.83
62.29
60.37
58.15
55.85
53.55
51.09
48.13
44.48
40.22
35.7
31.41
27.69
24.63
22.03
19.49
16.63
13.18
9.13
4.75
0.45
-3.33
-6.34
-8.56
-10.18
-11.45
-12.51
-13.32
-13.7
-13.49
-12.73
-11.67
-10.66
-10.0
-9.81
-9.98
-10.3
-10.56
-10.68
-10.72
-10.83
-11.2
-11.92
-13.01
-14.37
-15.84
-17.18
-18.2
-18.73
-18.73
-18.3
-17.63
-16.91
-16.3
-15.85
-15.55
-15.35
-15.25
-15.27
-15.39
-15.51
-15.47
-15.09
-14.3
-13.18
-11.88
-10.63
-9.51
-8.51
-7.53
-6.45
-5.28
-4.08
-2.91
-1.79
-0.63
0.68
2.19
3.82
5.41
6.76
7.72
8.26
8.43
8.29
7.85
7.06
5.86
4.23
2.27
0.22
-1.66
-3.16
-4.26
-5.08
-5.88
-6.88
-8.16
-9.59
-10.95
-11.98
-12.5
-12.41
-11.66
-10.25
-8.19
-5.6
-2.73
0.07
2.44
4.11
5.02
5.3
5.15
4.76
4.21
3.49
2.64
1.77
1.02
0.55
0.35
0.31
0.23
-0.03
-0.5
-1.05
-1.49
-1.61
-1.31
-0.57
0.57
2.0
3.58
5.16
6.56
7.66
8.38
8.72
8.74
8.49
8.01
7.28
6.29
5.05
3.58
1.99
0.36
-1.16
-2.47
-3.54
-4.39
-5.14
-5.94
-6.91
-7.99
-8.99
-9.58
-9.5
-8.69
-7.33
-5.78
-4.38
-3.35
-2.67
-2.26
-2.05
-2.09
-2.51
-3.42
-4.72
-6.08
-7.06
-7.28
-6.57
-5.09
-3.19
-1.33
0.13
0.95
1.08
0.55
-0.44
-1.68
-2.86
-3.69
-3.92
-3.39
-2.15
-0.4
1.47
3.04
3.98
4.1
3.45
2.22
0.7
-0.88
-2.39
-3.79
-5.14
-6.5
-7.86
-9.19
-10.42
-11.49
-12.39
-13.18
-14.0
-14.95
-16.09
-17.36
-18.49
-19.17
-19.07
-18.0
-15.98
-13.24
-10.12
-6.99
-4.15
-1.77
0.09
1.45
2.3
2.67
2.6
2.22
1.74
1.43
