2013-02-23 12:22:59
64.0
-0.0
-0.0
-0.0
-0.0
-0.0
-0.0
-0.0
-0.0
-0.0
-0.0
0.0
0.01
0.01
-0.0
-0.03
-0.05
-0.05
0.0
0.13
0.36
0.66
1.01
1.37
1.72
2.06
2.4
2.79
3.24
3.8
4.42
5.06
5.66
6.2
6.68
7.15
7.68
8.31
9.14
10.09
11.04
11.88
12.56
13.14
13.76
14.65
15.96
17.91
20.32
22.9
25.38
27.58
29.57
31.68
34.32
37.81
42.54
48.15
54.1
59.83
64.97
69.58
74.14
79.34
85.71
93.76
103.0
112.62
121.73
129.77
136.75
143.3
150.75
157.77
166.64
177.95
191.79
206.97
220.57
228.25
225.36
208.53
176.87
132.76
80.05
23.07
-34.94
-92.44
-149.16
-205.23
-260.37
-313.74
-363.87
-409.83
-450.91
-486.5
-515.74
-537.23
-549.22
-549.96
-538.37
-514.21
-478.67
-433.88
-382.45
-327.02
-269.84
-212.63
-156.66
-102.95
-52.37
-5.9
35.58
71.43
101.35
125.5
144.38
158.7
169.15
176.37
180.75
182.57
182.07
179.52
175.26
169.69
163.2
156.13
148.71
141.1
133.4
125.66
117.95
110.32
102.83
95.51
88.37
81.43
74.73
68.31
62.23
56.53
51.21
46.23
41.53
37.03
32.71
28.6
24.78
21.34
18.34
15.76
13.49
11.36
9.22
7.01
4.79
2.77
1.18
0.16
-0.34
-0.55
-0.87
-1.64
-3.0
-4.79
-6.58
-7.86
-8.29
-7.89
-7.11
-6.62
-7.02
-8.57
-10.99
-13.56
-15.47
-16.16
-15.58
-14.24
-12.98
-12.65
-13.83
-16.76
-21.14
-26.02
-29.81
-30.57
-26.58
-17.18
-3.33
12.39
26.52
36.01
39.42
37.52
32.78
28.19
25.87
26.15
27.78
28.7
27.3
23.2
17.34
11.35
6.65
3.81
2.42
1.74
1.24
0.97
1.25
2.33
4.0
5.66
6.74
7.09
7.07
7.18
7.6
8.02
7.87
6.84
5.3
4.2
4.51
6.65
10.28
14.46
18.23
21.0
22.66
23.42
23.39
22.49
20.57
17.65
14.16
10.82
8.51
7.48
7.45
7.62
6.97
4.75
0.78
-4.43
-9.96
-14.79
-18.2
-19.95
-20.28
-19.7
-18.75
-17.7
-16.56
-15.13
-13.26
-10.96
-8.41
-6.03
-4.19
-3.19
-3.13
-3.97
-5.56
-7.64
-9.85
-11.74
-12.85
-12.93
-12.04
-10.58
-9.06
-7.87
-7.1
-6.5
-5.65
-4.17
-2.0
0.7
3.49
5.94
7.68
8.53
8.46
7.56
6.02
4.14
2.26
0.74
-0.13
-0.26
0.24
1.14
2.17
3.24
4.38
5.7
7.21
8.8
10.23
11.36
12.22
12.92
13.6
14.33
14.99
15.32
15.05
14.03
12.18
9.46
5.74
0.84
-5.3
-12.45
-19.99
-27.02
-32.63
-36.28
-37.91
-37.98
-37.06
-35.6
-33.7
-31.18
-27.8
-23.52
-18.66
-13.73
-9.21
-5.31
-1.96
1.1
4.05
6.92
9.56
11.87
13.89
15.8
17.83
20.0
22.04
23.43
23.66
22.48
19.96
16.53
12.7
8.87
5.18
1.52
-2.32
-6.6
-11.42
-16.8
-22.54
-28.23
-33.23
-36.76
-38.08
-36.7
-32.63
-26.35
-18.67
-10.53
-2.75
4.14
9.91
14.52
17.97
20.2
21.05
20.39
18.22
14.82
10.85
7.18
4.78
4.37
6.13
9.67
13.99
17.82
20.05
20.04
17.8
13.89
9.16
4.38
0.07
-3.59
-6.57
-8.96
-10.9
-12.62
-14.6
-17.45
-21.7
-27.49
-34.25
-40.78
-45.53
-47.22
-45.32
-40.24
-33.21
-25.72
-18.96
-13.45
-9.07
-5.42
-2.2
0.58
2.63
3.74
4.03
4.04
4.55
6.15
8.96
12.57
16.16
18.87
20.09
19.58
17.37
13.68
8.71
2.67
-4.14
-11.24
-17.94
-23.53
-27.45
-29.5
-29.87
-29.06
-27.72
-26.49
-25.95
-26.54
-28.48
-31.74
-35.94
-40.34
-43.89
-45.41
-43.85
-38.58
-29.63
-17.71
-4.21
9.18
20.82
29.51
34.75
36.7
35.97
33.36
29.65
25.53
21.54
18.02
15.1
12.73
10.76
9.07
7.63
6.63
6.37
7.15
9.06
11.74
14.42
15.98
15.32
11.74
5.32
-3.08
-12.04
-20.07
-26.15
-30.02
-32.12
-33.34
-34.66
-36.87
-40.38
-44.97
-49.68
-52.95
-53.07
-48.88
-40.38
-28.78
-15.96
-3.54
7.88
18.72
29.78
41.27
52.38
61.47
67.08
68.81
67.6
65.24
63.34
62.62
62.73
62.8
62.09
60.51
58.52
56.67
55.2
53.8
51.77
48.49
43.72
37.83
31.62
25.85
20.82
16.2
11.13
4.73
-3.52
-13.45
-24.19
-34.46
-42.93
-48.5
-50.6
-49.26
-45.17
-39.5
-33.66
-28.82
-25.59
-23.87
-23.08
-22.55
-21.93
-21.24
-20.74
-20.69
-21.02
-21.42
-21.42
-20.59
-18.71
-15.75
-11.81
-6.99
-1.38
4.93
11.7
18.48
24.62
29.37
32.07
32.39
30.49
26.93
22.48
17.77
13.08
8.23
2.82
-3.46
-10.57
-17.87
-24.26
-28.52
-29.64
-27.25
-21.69
-14.02
-5.59
2.34
8.97
14.06
17.79
20.41
22.03
22.57
21.87
19.98
17.27
14.31
11.69
9.77
8.62
8.17
8.39
9.36
11.17
13.59
15.97
17.33
16.81
14.12
9.72
4.55
-0.45
-4.85
-8.81
-12.79
-17.08
-21.54
-25.7
-29.1
-31.72
-33.99
-36.51
-39.53
-42.64
-44.84
-45.01
-42.45
-37.15
-29.75
-21.17
-12.21
-3.35
5.21
13.35
20.82
27.23
32.21
35.7
38.07
39.97
42.09
44.71
47.63
50.27
51.93
52.1
50.55
47.35
42.76
37.21
31.24
25.44
20.29
16.06
12.67
9.83
7.23
4.76
2.56
0.96
0.29
0.59
1.5
2.28
1.94
-0.44
-5.44
-12.84
-21.5
-29.52
-34.81
-35.95
-32.81
-26.7
-19.87
-14.49
-11.83
-11.8
-13.25
-14.48
-14.14
-11.49
-6.41
0.89
10.01
20.35
30.98
40.62
47.94
52.04
52.98
51.83
50.26
49.76
50.99
53.56
56.38
58.35
58.93
58.39
57.48
56.93
57.17
58.17
59.65
61.24
62.66
63.56
63.54
62.12
58.88
53.89
47.78
41.82
37.64
36.75
40.07
47.68
58.77
72.0
85.88
98.96
109.83
116.86
118.24
112.53
99.39
80.21
58.13
37.02
20.05
8.43
1.14
-4.43
-10.96
-19.98
-31.37
-43.75
-55.29
-64.5
-70.63
-73.61
-74.01
-73.03
-72.48
-74.59
-81.25
-93.06
-108.57
-124.36
-136.22
-140.97
-137.83
-128.63
-116.68
-104.87
-94.24
-83.75
-71.31
-55.33
-35.86
-14.54
6.23
24.5
39.45
51.21
60.33
67.19
71.9
74.53
75.42
75.18
74.25
72.55
69.21
62.95
52.83
39.16
23.95
10.59
2.76
2.94
11.11
24.22
37.04
43.87
40.62
26.19
2.56
-26.2
-55.45
-80.84
-98.89
-107.19
-104.86
-93.19
-75.75
-57.49
-42.86
-33.91
-29.42
-25.89
-19.79
-9.68
3.13
15.76
25.74
32.46
37.06
41.12
45.12
48.01
47.94
43.72
35.85
26.45
18.19
13.01
11.17
11.3
11.33
9.65
5.89
0.9
-3.88
-7.26
-8.97
-9.56
-10.03
-11.22
-13.35
-16.06
-18.64
-20.43
-21.08
-20.69
-19.69
-18.63
-17.97
-17.92
-18.47
-19.44
-20.55
-21.55
-22.29
-22.68
-22.69
-22.37
-21.75
-20.91
-19.87
-18.66
-17.28
-15.71
-13.96
-12.09
-10.19
-8.41
-6.91
-5.84
-5.22
-4.96
-4.86
-4.7
-4.41
-4.11
-4.19
-5.1
-7.21
-10.5
-14.55
-18.57
-21.78
-23.69
-24.37
-24.33
-24.3
-24.87
-26.18
-28.09
-30.3
-32.63
-35.11
-37.8
-40.61
-43.18
-44.98
-45.54
-44.73
-42.77
-40.18
-37.48
-35.04
-32.98
-31.2
-29.51
-27.69
-25.64
-23.37
-21.04
-18.92
-17.22
-16.03
-15.22
-14.54
-13.68
-12.51
-11.01
-9.3
-7.5
-5.64
-3.68
-1.65
0.31
1.92
2.84
2.82
1.86
0.23
-1.61
-3.23
-4.39
-5.08
-5.5
-5.89
-6.37
-6.86
-7.17
-7.06
-6.4
-5.21
-3.66
-2.07
-0.73
0.08
0.28
-0.06
-0.68
-1.26
-1.57
-1.54
-1.32
-1.14
-1.13
-1.31
-1.54
-1.65
-1.55
-1.3
-1.07
-1.03
-1.28
-1.72
-2.2
-2.56
-2.76
-2.88
-3.08
-3.51
-4.21
-5.04
-5.81
-6.28
-6.27
-5.74
-4.76
-3.47
-2.03
-0.58
0.81
2.09
3.17
4.0
4.45
4.5
4.17
3.58
2.91
2.33
2.02
2.09
2.55
3.28
3.98
4.29
3.94
2.91
1.41
-0.14
-1.35
-2.01
-2.08
-1.67
-0.86
0.28
1.57
2.66
3.06
2.39
0.54
-2.21
-5.23
-7.8
-9.22
-8.98
-6.88
-3.05
1.89
6.98
11.07
13.25
13.22
11.33
8.43
5.39
2.81
0.8
-0.76
-2.04
-3.02
-3.52
-3.42
-2.78
-1.93
-1.33
-1.35
-2.09
-3.29
-4.47
-5.09
-4.78
-3.46
-1.35
1.13
3.49
5.39
6.65
7.24
7.35
7.26
7.33
8.0
9.67
12.59
16.74
21.72
26.82
31.21
34.21
35.49
35.06
33.19
30.21
26.41
22.1
17.66
13.6
10.4
8.27
6.94
5.67
3.51
-0.33
-6.19
-13.93
-23.1
-33.12
-43.4
-53.35
-62.45
-70.42
-77.42
-84.07
-91.14
-98.86
-106.33
-111.25
-110.56
-101.59
-83.32
-57.07
-26.19
5.08
33.02
55.33
71.24
81.08
85.55
85.35
81.16
73.91
64.88
55.57
47.26
40.67
35.78
32.08
28.93
25.97
23.13
20.65
18.78
17.64
17.09
16.74
16.09
14.74
12.46
9.4
6.03
3.02
0.92
-0.07
-0.29
-0.54
-1.74
-4.52
-8.91
-14.18
-19.13
-22.47
-23.3
-21.37
-17.13
-11.49
-5.5
-0.07
4.26
7.29
9.11
9.98
10.21
10.08
9.84
9.73
10.02
10.84
12.2
13.8
15.19
15.89
15.6
14.39
12.65
10.95
9.77
9.33
9.58
10.19
10.71
10.73
9.9
8.05
5.16
1.48
-2.49
-6.01
-8.34
-8.96
-7.77
-5.16
-1.92
1.1
3.22
4.19
4.1
3.36
2.37
1.38
0.48
-0.31
-0.99
-1.47
-1.66
-1.55
-1.28
-1.09
-1.22
-1.81
-2.8
-3.98
-5.07
-5.86
-6.26
-6.29
-6.08
-5.81
-5.65
-5.81
-6.48
-7.81
-9.81
-12.31
-14.93
-17.1
-18.23
-17.86
-15.87
-12.49
-8.28
-3.96
-0.23
2.44
3.84
4.08
3.49
2.53
1.64
1.05
0.77
0.54
-0.0
-1.08
-2.75
-4.77
-6.79
-8.49
-9.69
-10.42
-10.85
-11.26
-11.95
-13.15
-14.96
-17.17
-19.3
-20.75
-21.05
-20.11
-18.33
-16.47
-15.3
-15.38
-16.76
-18.89
-20.76
-21.09
-18.76
-13.2
-4.72
5.41
15.32
23.15
27.79
29.21
28.39
26.74
25.38
24.71
24.41
23.8
22.41
20.3
18.02
16.26
15.44
15.5
15.93
16.18
15.94
15.35
14.81
14.71
15.08
15.52
15.41
14.24
11.88
8.7
5.36
2.55
0.65
-0.33
-0.73
-1.06
-1.77
-3.17
-5.35
-8.31
-11.9
-15.81
-19.4
-21.74
-21.82
-18.92
-13.04
-5.07
3.51
11.03
16.25
18.74
18.84
17.41
15.34
13.35
11.79
10.75
10.22
10.14
10.47
11.14
11.98
12.75
13.1
12.76
11.62
9.8
7.69
5.75
4.42
3.93
4.25
5.14
6.24
7.21
7.81
7.96
7.78
7.49
7.26
7.15
7.01
6.57
5.57
3.82
1.3
-1.75
-4.92
-7.52
-8.82
-8.19
-5.35
-0.61
5.17
10.81
15.2
17.69
18.27
17.43
15.85
14.06
12.32
10.67
9.13
7.84
7.06
7.06
7.85
9.15
10.52
11.47
11.74
11.27
10.23
8.88
7.49
6.27
5.34
4.69
4.18
3.6
2.67
1.24
-0.7
-2.95
-5.16
-6.97
-8.13
-8.6
-8.58
-8.4
-8.37
-8.64
-9.13
-9.6
-9.83
-9.69
-9.28
-8.79
-8.45
-8.35
-8.49
-8.79
-9.17
-9.48
-9.57
-9.25
-8.34
-6.83
-4.85
-2.65
-0.52
1.33
2.75
3.68
4.07
3.94
3.37
2.6
1.94
1.72
2.11
3.07
4.34
5.57
6.41
6.67
6.33
5.52
4.44
3.36
2.48
1.97
1.93
2.39
3.38
4.87
6.89
9.38
12.24
15.14
17.68
19.42
20.14
19.97
19.38
18.99
19.22
20.05
20.97
21.31
20.59
18.86
16.74
15.11
14.74
15.84
18.02
20.44
22.02
21.87
19.38
14.43
7.24
-1.67
-11.65
-22.02
-32.19
-41.72
-50.37
-58.02
-64.5
-69.43
-72.19
-71.99
-68.29
-61.12
-51.37
-40.6
-30.52
-22.37
-16.45
-12.17
-8.5
-4.61
-0.24
4.26
8.32
11.53
13.85
15.54
16.94
18.24
19.45
20.52
21.46
22.37
23.42
24.67
26.02
27.2
27.9
27.81
26.78
24.86
22.42
20.14
18.82
19.1
21.05
24.04
26.83
28.03
26.71
22.75
16.91
10.39
4.26
-0.85
-4.93
-8.28
-11.21
-13.78
-15.84
-17.11
-17.44
-16.92
-15.87
-14.84
-14.35
-14.7
-15.87
-17.49
-19.02
-19.97
-20.15
-19.67
-18.84
-17.94
-17.11
-16.28
-15.29
-14.04
-12.6
-11.16
-10.0
-9.34
-9.19
-9.4
-9.7
-9.83
-9.72
-9.54
-9.66
-10.42
-11.96
-14.08
-16.32
-18.09
-18.97
-18.8
-17.72
-15.96
-13.76
-11.21
-8.28
-5.0
-1.51
1.88
4.72
6.68
7.61
7.62
6.99
6.02
4.91
3.8
2.75
1.84
1.19
0.83
0.7
0.67
0.57
0.28
-0.19
-0.79
-1.44
-2.07
-2.7
-3.37
-4.15
-5.13
-6.33
-7.75
-9.34
-11.02
-12.68
-14.16
-15.26
-15.74
-15.35
-13.97
-11.63
-8.62
-5.37
-2.34
0.12
1.83
2.78
3.07
2.87
2.39
1.86
1.55
1.59
2.0
2.66
3.36
3.93
4.33
4.58
4.82
5.08
5.33
5.49
5.43
5.17
4.77
4.4
4.16
4.01
3.74
3.09
1.82
-0.13
-2.65
-5.42
-8.06
-10.21
-11.51
-11.74
-10.77
-8.67
-5.68
-2.25
1.12
3.99
6.05
7.23
7.61
7.39
6.83
6.12
5.44
4.83
4.32
3.88
3.54
3.38
3.46
3.88
4.61
5.53
6.43
7.05
7.15
6.58
5.31
3.45
1.22
-1.11
-3.33
-5.27
-6.9
-8.3
-9.61
-10.96
-12.39
-13.81
-14.93
-15.38
-14.84
-13.21
-10.66
-7.63
-4.57
-1.88
0.29
1.97
3.29
4.34
5.16
5.76
6.16
6.44
6.67
6.86
6.92
6.77
6.35
5.7
4.94
4.18
3.51
2.91
2.3
1.62
0.82
-0.06
-0.99
-1.97
-3.04
-4.25
-5.56
-6.9
-8.15
-9.26
-10.18
-10.85
-11.12
-10.81
-9.74
-7.87
-5.37
-2.55
0.22
2.61
4.45
5.62
6.11
5.95
5.29
4.37
3.5
2.93
2.8
3.08
3.64
4.3
4.91
5.32
5.41
5.06
4.17
2.75
0.9
-1.21
-3.34
-5.33
-7.05
-8.5
-9.77
-11.01
-12.35
-13.83
-15.33
-16.6
-17.28
-17.05
-15.7
-13.22
-9.81
-5.85
-1.85
1.74
4.57
6.55
7.73
8.31
8.44
8.24
7.76
7.03
6.14
5.22
4.38
3.71
3.22
2.9
2.71
2.6
2.53
2.4
2.07
1.44
0.48
-0.78
-2.12
-3.31
-4.1
-4.41
-4.3
-4.02
-3.9
-4.27
-5.29
-6.92
-8.91
-10.85
-12.22
-12.52
-11.43
-8.89
-5.22
-0.93
3.33
7.02
9.82
11.6
12.39
12.33
11.56
10.29
8.81
7.42
6.36
5.76
5.57
5.65
5.77
5.81
5.68
5.42
5.05
4.6
4.04
3.32
2.44
1.44
0.43
-0.49
-1.29
-2.12
-3.18
-4.72
-6.87
-9.64
-12.87
-16.25
-19.27
-21.35
-21.86
-20.38
-16.88
-11.8
-5.98
-0.39
4.19
7.33
9.03
9.59
9.4
8.85
8.14
7.38
6.5
5.36
3.81
1.8
-0.63
-3.26
-5.84
-8.12
-9.92
-11.25
-12.28
-13.29
-14.66
-16.71
-19.57
-23.14
-27.09
-30.99
-34.4
-36.98
-38.52
-39.02
-38.65
-37.73
-36.65
-35.66
-34.69
-33.27
-30.62
-26.08
-19.33
-10.71
-1.02
8.64
17.24
24.08
28.85
31.59
32.49
31.81
29.75
26.42
21.93
16.44
10.28
3.97
-1.91
-6.88
-10.65
-13.21
-14.76
-15.62
-16.15
-16.69
-17.54
-18.98
-21.16
-24.05
-27.36
-30.74
-33.91
-36.86
-39.84
-43.28
-47.62
-53.08
-59.47
-65.96
-71.27
-73.88
-72.38
-65.96
-54.85
-40.51
-25.3
-11.83
-1.77
4.32
7.03
7.83
8.38
9.77
11.85
13.25
12.11
7.79
0.82
-6.81
-11.91
-10.9
-1.21
17.65
43.67
73.22
103.22
130.48
152.07
165.79
170.84
168.24
160.82
152.83
148.79
153.06
166.07
183.57
198.4
203.81
196.25
176.27
147.75
107.73
59.3
9.67
-33.71
-67.48
-91.9
-108.22
-117.4
-120.17
-117.9
-111.45
-102.84
-94.85
-89.97
-89.31
-92.38
-97.44
-101.83
-102.3
-94.89
-77.78
-52.38
-23.15
4.03
23.68
32.27
29.37
17.54
2.14
-11.29
-18.86
-19.14
-12.96
-2.34
9.71
20.84
29.78
36.7
42.28
46.79
49.99
51.47
51.15
49.65
48.11
47.79
49.5
53.19
58.18
63.6
69.21
75.27
81.85
88.17
92.15
91.01
82.5
66.21
44.09
19.98
-1.99
-18.93
-30.04
-36.36
-39.75
-41.87
-43.12
-43.48
-42.74
-41.03
-39.01
-37.62
-37.6
-39.15
-41.8
-44.59
-46.61
-47.25
-46.54
-44.98
-43.36
-42.26
-41.84
-41.69
-41.16
-39.74
-37.3
-34.07
-30.49
-26.88
-23.29
-19.6
-15.73
-11.82
-8.3
-5.62
-4.04
-3.43
-3.29
-2.94
-1.72
0.89
5.25
11.56
19.74
29.33
39.45
48.9
56.49
61.4
63.46
63.05
60.93
57.82
54.17
50.01
45.13
39.23
32.21
24.39
16.55
9.83
5.35
3.76
4.83
7.39
9.7
10.21
8.14
3.79
-1.68
-6.91
-10.9
-13.35
-14.6
-15.17
-15.41
-15.3
-14.6
-13.1
-10.9
-8.52
-6.71
-6.4
-8.34
-12.92
-19.96
-28.7
-38.02
-46.62
-53.51
-58.25
-61.2
-63.33
-65.55
-68.3
-71.44
-74.26
-75.78
-74.99
-71.05
-63.87
-54.19
-43.52
-34.05
-28.39
-28.56
-35.02
-45.84
-57.13
-64.93
-66.59
-61.28
-49.84
-34.0
-15.06
6.51
30.9
58.04
85.62
109.21
123.88
125.88
113.54
88.02
52.32
10.96
-27.15
-53.42
-65.1
-65.31
-59.37
-52.21
-47.28
-47.53
-55.15
-71.11
-95.46
-126.53
-160.23
-191.37
-218.23
-238.45
-252.37
-262.49
-271.66
-281.8
-292.43
-299.92
-299.18
-286.24
-259.86
-222.38
-177.98
-130.41
-81.18
-32.3
15.07
60.64
104.06
144.88
182.4
216.5
247.88
277.29
304.5
328.41
347.01
358.07
360.15
353.11
338.48
318.72
296.4
273.41
251.18
230.72
212.73
197.65
185.48
175.64
167.11
158.6
148.8
136.95
122.84
106.73
89.41
72.03
56.17
43.48
35.38
32.63
35.42
43.19
54.51
67.16
78.56
86.54
90.15
90.0
88.03
86.48
86.56
87.16
84.78
74.71
52.97
17.57
-31.05
-90.47
-157.04
-226.57
-294.88
-357.99
-411.91
-452.04
-473.96
-474.4
-452.02
-407.46
-343.33
-264.61
-178.88
-95.17
-21.12
37.85
79.31
104.11
116.41
122.66
129.0
138.49
150.9
164.91
177.75
185.28
183.06
168.61
143.13
110.52
74.96
40.93
15.03
3.74
11.62
39.89
86.95
149.12
219.97
290.15
332.22
324.73
266.71
180.66
94.75
25.99
-22.06
-49.75
-67.63
-81.71
-91.07
-92.59
-84.99
-70.81
-56.5
-46.37
-42.35
-45.08
-52.79
-61.09
-65.84
-65.35
-61.29
-56.9
-54.51
-55.16
-59.3
-65.84
-72.14
-75.78
-75.8
-73.28
-70.23
-68.01
-67.24
-68.33
-70.72
-72.99
-73.58
-71.4
-66.26
-58.62
-49.08
-38.45
-27.83
-17.97
-9.11
-1.15
6.08
12.54
17.82
21.46
22.98
22.05
18.92
14.31
9.32
5.05
2.29
1.25
1.58
2.57
3.44
3.69
3.17
2.04
0.57
-1.04
-2.71
-4.46
-6.39
-8.59
-11.15
-14.21
-17.89
-22.19
-26.82
-31.11
-34.05
-34.6
-32.0
-26.14
-17.64
-7.76
2.04
10.53
16.95
21.12
23.24
23.64
22.59
20.25
16.84
12.74
8.52
4.9
2.4
1.2
1.05
1.37
1.56
1.24
0.32
-0.97
-2.37
-3.74
-5.18
-7.04
-9.71
-13.53
-18.58
-24.66
-31.31
-37.77
-43.09
-46.16
-45.98
-41.96
-34.19
-23.52
-11.42
0.42
10.65
18.47
23.73
26.62
27.46
26.5
24.01
20.39
16.25
12.33
9.27
7.33
6.34
5.81
5.21
4.21
2.78
1.17
-0.35
-1.64
-2.75
-3.99
-5.72
-8.31
-12.05
-17.13
-23.51
-30.84
-38.31
-44.62
-48.26
-47.91
-42.99
-33.89
-21.89
-8.8
3.7
14.4
22.83
29.1
33.51
36.3
37.52
37.07
34.94
31.45
27.19
22.97
19.48
17.07
15.62
14.68
13.64
12.09
9.9
7.26
4.52
2.0
-0.19
-2.26
-4.6
-7.72
-12.02
-17.66
-24.44
-31.76
-38.6
-43.73
-45.82
-43.86
-37.49
-27.23
-14.45
-1.01
11.3
21.28
28.56
33.5
36.84
39.23
40.96
41.97
42.04
41.0
38.93
36.12
33.05
30.15
27.75
25.92
24.55
23.37
22.08
20.42
18.26
15.55
12.31
8.59
4.41
-0.21
-5.22
-10.58
-16.28
-22.28
-28.5
-34.59
-39.87
-43.38
-44.05
-41.14
-34.54
-24.92
-13.59
-2.04
8.39
16.86
23.08
27.07
28.99
29.0
27.32
24.27
20.4
16.36
12.81
10.2
8.64
7.9
7.53
6.96
5.78
3.81
1.24
-1.45
-3.72
-5.19
-5.89
-6.34
-7.33
-9.68
-13.83
-19.77
-26.96
-34.49
-41.2
-45.8
-47.14
-44.46
-37.68
-27.53
-15.43
-3.07
8.1
17.23
24.1
28.95
32.05
33.55
33.46
31.82
28.91
25.19
21.22
17.41
13.96
10.74
7.51
3.99
0.05
-4.16
-8.22
-11.52
-13.48
-13.72
-12.31
-9.81
-7.13
-5.38
-5.52
-8.17
-13.35
-20.38
-27.97
-34.41
-38.02
-37.62
-32.96
-24.71
-14.31
-3.43
6.5
14.63
20.74
25.01
27.75
29.18
29.36
28.26
25.92
22.57
18.71
15.0
11.99
10.03
9.0
8.54
8.09
7.18
5.57
3.18
0.11
-3.44
-7.14
-10.59
-13.4
-15.41
-16.87
-18.48
-21.11
-25.44
-31.48
-38.42
-44.73
-48.6
-48.49
-43.61
-34.25
-21.66
-7.73
5.57
16.73
24.94
30.19
32.95
33.8
33.17
31.24
28.19
24.32
20.2
16.53
13.86
12.35
11.68
11.26
10.49
9.06
7.04
4.76
2.55
0.6
-1.18
-3.04
-5.33
-8.27
-11.96
-16.45
-21.74
-27.73
-34.1
-40.16
-44.8
-46.74
-44.96
-39.07
-29.66
-18.08
-6.13
4.61
13.17
19.32
23.43
26.03
27.54
28.09
27.56
25.84
23.04
19.57
16.08
13.27
11.6
11.13
11.43
11.85
11.71
10.64
8.66
6.1
3.39
0.78
-1.74
-4.43
-7.59
-11.46
-16.06
-21.28
-26.91
-32.62
-37.94
-42.14
-44.31
-43.55
-39.33
-31.75
-21.65
-10.45
0.36
9.58
16.7
21.87
25.66
28.59
30.87
32.29
32.44
31.06
28.4
25.26
22.7
21.53
21.91
23.2
24.25
23.95
21.82
18.09
13.6
9.22
5.43
2.06
-1.52
-6.05
-12.01
-19.42
-27.88
-36.7
-45.0
-51.73
-55.72
-55.84
-51.33
-42.15
-29.2
-14.17
0.92
14.38
25.28
33.62
40.02
45.27
49.91
54.08
57.58
60.15
61.63
62.04
61.5
60.12
57.87
54.52
49.71
43.21
35.04
25.64
15.75
6.05
-3.15
-12.12
-21.54
-32.1
-44.02
-56.85
-69.52
-80.71
-89.2
-94.11
-94.93
-91.54
-84.18
-73.5
-60.55
-46.66
-33.13
-21.03
-11.03
-3.42
1.76
4.66
5.57
4.97
3.44
1.58
-0.18
-1.64
-2.78
-3.7
-4.38
-4.75
-4.68
-4.16
-3.44
-2.93
-3.08
-4.1
-5.93
-8.24
-10.67
-13.05
-15.55
-18.63
-22.91
-28.9
-36.84
-46.34
-56.28
-64.9
-70.06
-69.88
-63.41
-51.06
-34.43
-15.82
2.7
19.86
35.23
48.77
60.2
68.67
72.9
71.83
65.3
54.38
41.18
28.29
18.04
11.92
10.37
12.76
17.73
23.58
28.7
31.93
32.75
31.31
28.17
24.12
19.78
15.51
11.27
6.71
1.41
-4.88
-11.99
-19.15
-25.22
-28.97
-29.57
-26.84
-21.3
-13.89
-5.63
2.62
10.22
16.64
21.34
23.81
23.76
21.33
17.15
12.31
8.01
5.29
4.69
6.18
9.17
12.77
16.07
18.44
19.61
19.59
18.51
16.43
13.33
9.15
3.98
-1.89
-8.09
-14.29
-20.28
-25.99
-31.2
-35.43
-37.86
-37.57
-33.89
-26.68
-16.52
-4.59
7.64
18.75
27.68
33.87
37.28
38.23
37.22
34.75
31.27
27.14
22.73
18.46
14.72
11.77
9.58
7.89
6.29
4.51
2.55
0.66
-0.84
-1.83
-2.58
-3.66
-5.75
-9.4
-14.78
-21.58
-29.1
-36.31
-42.06
-45.22
-44.87
-40.43
-31.84
-19.61
-4.85
10.83
25.6
37.73
45.88
49.46
48.64
44.25
37.57
29.99
22.74
16.73
12.4
9.77
8.41
7.68
6.9
5.59
3.64
1.23
-1.31
-3.73
-6.03
-8.43
-11.22
-14.71
-19.1
-24.53
-30.9
-37.81
-44.39
-49.38
-51.47
-49.75
-44.13
-35.32
-24.57
-13.11
-1.82
8.91
18.83
27.61
34.67
39.38
41.37
40.74
38.11
34.31
30.11
26.03
22.32
19.09
16.35
14.08
12.22
10.6
9.0
7.21
5.08
2.54
-0.4
-3.69
-7.26
-11.08
-15.24
-19.9
-25.23
-31.18
-37.36
-42.89
-46.6
-47.37
-44.51
-38.04
-28.75
-17.92
-6.95
3.01
11.33
17.82
22.64
26.03
28.12
28.96
28.55
26.97
24.5
21.64
18.95
16.91
15.76
15.43
15.66
16.07
16.32
16.13
15.33
13.82
11.58
8.66
5.19
1.33
-2.79
-7.08
-11.58
-16.36
-21.54
-27.1
-32.71
-37.66
-40.89
-41.29
-38.07
-31.14
-21.24
-9.74
1.77
12.06
20.55
27.38
33.17
38.57
43.89
48.89
52.86
54.93
54.41
51.09
45.33
37.95
29.94
22.22
15.47
10.08
6.16
3.58
1.89
0.45
-1.42
-4.25
-8.13
-12.73
-17.44
-21.63
-24.93
-27.36
-29.26
-31.17
-33.63
-37.06
-41.55
-46.79
-51.97
-55.91
-57.32
-55.23
-49.32
-40.14
-28.91
-17.13
-6.18
3.06
10.27
15.56
19.26
21.64
22.87
23.05
22.29
20.82
18.91
16.89
15.02
13.46
12.33
11.67
11.45
11.57
11.82
11.91
11.55
10.53
8.77
6.4
3.7
1.07
-1.08
-2.46
-3.05
-3.22
-3.71
-5.38
-8.85
-14.1
-20.35
-26.22
-30.21
-31.27
-29.11
-24.24
-17.67
-10.44
-3.36
3.14
8.87
13.66
17.28
19.46
20.01
19.0
16.79
13.98
11.21
9.01
7.66
7.12
7.21
7.67
8.26
8.81
9.14
9.08
8.44
7.08
4.94
2.13
-1.18
-4.75
-8.38
-11.97
-15.5
-19.12
-23.05
-27.56
-32.71
-38.22
-43.35
-46.96
-47.92
-45.49
-39.63
-31.06
-21.0
-10.79
-1.44
6.52
12.99
18.11
22.02
24.7
26.07
26.02
24.64
22.21
19.29
16.48
14.33
13.13
12.91
13.41
14.25
14.95
15.09
14.36
12.63
10.0
6.81
3.57
0.79
-1.15
-2.22
-2.68
-3.06
-3.98
-5.98
-9.39
-14.17
-19.85
-25.58
-30.22
-32.63
-31.93
-27.83
-20.66
-11.4
-1.4
8.0
15.79
21.54
25.38
27.83
29.52
30.94
32.25
33.32
33.8
33.35
31.86
29.52
26.75
24.09
21.96
20.5
19.56
18.77
17.69
15.98
13.48
10.26
6.51
2.46
-1.69
-5.77
-9.66
-13.31
-16.71
-19.97
-23.34
-27.12
-31.59
-36.76
-42.17
-46.91
-49.78
-49.75
-46.34
-39.81
-30.97
-20.81
-10.13
0.56
10.9
20.41
28.45
34.35
37.77
38.85
38.21
36.63
34.71
32.69
30.54
28.23
25.92
24.02
23.06
23.37
24.94
27.31
29.71
31.22
31.1
28.93
24.73
18.93
12.23
5.36
-1.06
-6.64
-11.31
-15.24
-18.8
-22.5
-26.75
-31.74
-37.28
-42.69
-46.93
-48.89
-47.71
-43.1
-35.5
-25.9
-15.56
-5.69
2.87
9.67
14.68
18.17
20.49
22.04
23.02
23.44
23.11
21.84
19.59
16.62
13.39
10.39
7.95
6.23
5.32
5.32
6.34
8.3
10.7
12.6
12.94
11.0
6.79
1.07
-5.01
-10.45
-14.82
-18.33
-21.58
-25.17
-29.4
-34.17
-39.03
-43.28
-46.14
-46.92
-45.14
-40.68
-33.81
-25.21
-15.82
-6.65
1.43
7.81
12.26
14.91
16.03
16.0
15.12
13.62
11.65
9.42
7.21
5.31
4.06
3.65
4.16
5.51
7.47
9.66
11.63
12.92
13.17
12.24
10.22
7.38
4.07
0.64
-2.67
-5.76
-8.69
-11.67
-15.03
-19.02
-23.61
-28.33
-32.23
-34.17
-33.21
-28.95
-21.83
-12.93
-3.62
4.87
11.84
17.14
20.99
23.66
25.25
25.65
24.7
22.41
19.09
15.27
11.54
8.45
6.4
5.65
6.27
8.02
10.32
12.29
13.07
12.14
9.52
5.71
1.39
-2.94
-7.04
-10.94
-14.78
-18.7
-22.85
-27.32
-32.11
-36.84
-40.68
-42.49
-41.23
-36.49
-28.72
-19.1
-9.06
0.21
8.09
14.48
19.56
23.48
26.23
27.69
27.79
26.6
24.44
21.76
19.11
16.93
15.49
14.82
14.74
14.97
15.16
15.03
14.39
13.14
11.29
8.95
6.26
3.33
0.16
-3.33
-7.33
-11.95
-17.25
-23.1
-29.16
-34.91
-39.6
-42.39
-42.49
-39.44
-33.27
-24.59
-14.5
-4.26
5.04
12.72
18.57
22.7
25.41
26.9
27.32
26.74
25.24
23.0
20.29
17.55
15.21
13.67
13.13
13.48
14.33
15.16
15.45
14.85
13.3
10.97
8.15
5.08
1.88
-1.45
-4.98
-8.79
-12.98
-17.65
-22.86
-28.56
-34.37
-39.51
-42.9
-43.4
-40.25
-33.45
-23.84
-12.89
-2.2
6.93
13.91
18.78
22.0
24.09
25.39
25.99
25.8
24.83
23.22
21.35
19.66
18.51
18.06
18.22
18.75
19.38
19.91
20.24
20.31
20.04
19.4
18.41
17.17
15.86
14.66
13.62
12.56
11.1
8.8
5.29
0.53
-5.12
-10.93
-16.0
-19.48
-20.81
-19.78
-16.53
-11.44
-5.09
1.8
8.47
14.25
18.7
21.72
23.58
24.7
25.42
25.85
25.84
25.14
23.68
21.61
19.3
17.16
15.47
14.38
13.86
13.72
13.65
13.21
11.97
9.72
6.65
3.21
0.15
-1.85
-2.6
-2.64
-2.94
-4.34
-7.08
-10.72
-14.62
-18.12
-20.74
-22.09
-21.77
-19.18
-13.63
-4.76
6.96
19.72
31.38
40.39
46.23
49.24
50.26
50.25
50.05
50.41
50.96
52.15
55.43
62.07
71.84
82.51
90.74
93.22
87.69
71.33
44.83
12.83
-17.98
-42.26
-57.8
-65.5
-68.34
-70.08
-77.83
-95.06
-120.21
-148.87
-177.73
-206.05
-234.47
-263.4
-292.31
-324.76
-361.05
-396.91
-425.98
-443.8
-449.1
-442.54
-425.51
-367.89
-262.96
-131.23
-4.89
96.25
169.33
219.32
251.45
269.97
277.57
270.67
249.34
219.47
189.69
166.16
150.56
141.36
136.64
134.59
130.12
120.99
108.85
97.24
88.34
82.17
77.67
74.01
70.8
65.87
58.96
52.23
48.8
50.51
57.08
66.8
77.51
87.06
92.58
92.49
86.99
77.39
65.21
51.7
37.88
24.55
12.05
-0.27
-13.28
-27.73
-44.1
-62.67
-83.35
-105.38
-127.04
-145.69
-158.18
-161.64
-154.56
-137.54
-113.34
-86.11
-60.1
-38.42
-22.36
-11.39
-3.8
2.59
9.72
18.91
30.65
44.66
60.07
75.7
90.46
103.54
114.31
121.93
125.04
121.94
111.21
92.72
68.12
40.56
13.53
-10.56
-31.3
-50.13
-69.25
-90.12
-112.49
-134.47
-153.39
-167.23
-175.48
-179.2
-180.28
-180.38
-180.21
-179.46
-177.35
-173.27
-167.15
-159.3
-149.86
-138.55
-124.75
-108.02
-88.58
-67.51
-46.34
-26.51
-8.85
6.54
19.92
31.58
41.59
49.9
56.59
61.99
66.57
70.66
74.29
77.15
78.87
79.37
78.88
77.96
77.17
76.75
76.56
76.1
74.88
72.62
69.44
65.73
61.91
58.1
54.03
49.13
42.83
34.96
25.95
16.82
8.95
3.61
1.57
2.91
7.02
12.91
19.53
26.08
32.13
37.52
42.29
46.41
49.73
52.0
52.94
52.41
50.43
47.26
43.3
39.01
34.76
30.77
27.08
23.55
20.0
16.31
12.42
8.36
4.16
-0.15
-4.59
-9.15
-13.78
-18.41
-23.02
-27.74
-32.79
-38.4
-44.59
-50.89
-56.43
-60.01
-60.49
-57.18
-50.02
-39.61
-27.01
-13.41
0.11
12.75
24.01
33.7
41.82
48.51
54.0
58.48
62.1
64.88
66.82
67.96
68.43
68.47
68.37
68.36
68.53
68.87
69.23
69.42
69.18
68.23
66.24
62.98
58.39
52.62
46.05
39.19
32.44
26.02
19.81
13.51
6.71
-0.84
-9.09
-17.59
-25.53
-31.86
-35.59
-36.08
-33.25
-27.62
-20.23
-12.25
-4.74
1.6
6.5
9.97
12.19
13.36
13.67
13.25
12.22
10.62
8.52
6.07
3.53
1.27
-0.32
-1.03
-0.95
-0.46
-0.07
-0.19
-1.01
-2.47
-4.4
-6.65
-9.18
-11.97
-14.98
-18.08
-21.14
-24.09
-27.03
-30.1
-33.35
-36.53
-39.02
-39.94
-38.37
-33.69
-25.85
-15.37
-3.28
9.18
20.91
31.12
39.48
46.0
50.89
54.39
56.67
57.93
58.43
58.51
58.62
59.09
60.03
61.33
62.66
63.72
64.34
64.53
64.37
63.87
62.89
61.16
58.43
54.62
49.81
44.27
38.2
31.64
24.48
16.6
8.11
-0.47
-8.31
-14.4
-17.99
-18.78
-17.09
-13.7
-9.56
-5.53
-2.22
0.04
1.08
0.81
-0.81
-3.74
-7.79
-12.55
-17.56
-22.31
-26.42
-29.68
-32.09
-33.77
-34.95
-35.85
-36.66
-37.52
-38.49
-39.65
-41.09
-42.9
-45.16
-47.87
-51.02
-54.55
-58.46
-62.71
-67.21
-71.63
-75.37
-77.61
-77.52
-74.44
-68.2
-59.14
-48.05
-35.99
-24.01
-12.91
-3.21
4.97
11.67
17.05
21.28
24.42
26.47
27.49
27.56
26.93
25.86
24.58
23.18
21.57
19.53
16.86
13.5
9.54
5.24
0.83
-3.48
-7.61
-11.48
-15.01
-18.06
-20.5
-22.27
-23.34
-23.64
-22.99
-21.04
-17.35
-11.61
-3.77
5.84
16.5
27.31
37.37
45.97
52.74
57.55
60.55
61.98
62.11
61.19
59.51
57.36
55.07
52.93
51.11
49.59
48.2
46.75
45.1
43.23
41.23
39.17
36.97
34.4
31.12
26.84
21.42
14.96
7.69
-0.08
-8.1
-16.17
-24.1
-31.57
-38.14
-43.2
-46.2
-46.78
-44.95
-41.09
-35.87
-30.03
-24.18
-18.71
-13.75
-9.3
-5.36
-1.99
0.69
2.59
3.77
4.41
4.82
5.23
5.77
6.36
6.83
6.97
6.66
5.84
4.55
2.81
0.65
-1.87
-4.67
-7.68
-10.9
-14.34
-18.07
-22.12
-26.46
-30.92
-35.16
-38.68
-40.91
-41.3
-39.51
-35.52
-29.63
-22.44
-14.64
-6.91
0.29
6.66
12.02
16.28
19.37
21.27
22.05
21.88
21.01
19.76
18.41
17.19
16.21
15.48
14.95
14.56
14.28
14.09
13.93
13.72
13.34
12.67
11.62
10.17
8.32
6.1
3.52
0.59
-2.72
-6.44
-10.52
-14.83
-19.05
-22.73
-25.3
-26.26
-25.36
-22.61
-18.4
-13.34
-8.12
-3.3
0.75
3.94
6.33
8.06
9.18
9.69
9.55
8.81
7.59
6.15
4.76
3.59
2.76
2.3
2.18
2.33
2.67
3.02
3.17
2.91
2.08
0.71
-1.13
-3.3
-5.73
-8.35
-11.17
-14.17
-17.33
-20.64
-24.07
-27.56
-30.89
-33.7
-35.5
-35.81
-34.33
-31.12
-26.54
-21.26
-15.95
-11.18
-7.27
-4.3
-2.24
-1.05
-0.71
-1.26
-2.71
-4.95
-7.8
-11.0
-14.26
-17.38
-20.28
-23.01
-25.78
-28.84
-32.38
-36.44
-40.78
-44.94
-48.3
-50.29
-50.58
-49.06
-45.94
-41.6
-36.5
-31.08
-25.62
-20.21
-14.65
-8.54
-1.37
7.2
17.26
28.46
40.16
51.51
61.71
70.16
76.54
80.84
83.24
84.04
83.53
81.96
79.52
76.42
72.89
69.24
65.72
62.52
59.66
57.02
54.49
52.04
49.78
47.93
46.62
45.73
44.91
43.66
41.48
38.08
33.43
27.75
21.37
14.75
8.39
2.89
-1.16
-3.21
-2.99
-0.58
3.5
8.46
13.33
17.29
19.78
20.61
19.87
17.84
14.76
10.79
6.0
0.49
-5.46
-11.4
-16.82
-21.29
-24.6
-26.81
-28.15
-28.85
-29.05
-28.76
-27.91
-26.41
-24.24
-21.41
-18.14
-14.85
-12.18
-10.8
-11.22
-13.58
-17.54
-22.35
-27.1
-30.92
-33.19
-33.64
-32.26
-29.37
-25.52
-21.4
-17.8
-15.41
-14.68
-15.82
-18.8
-23.41
-29.47
-36.75
-45.07
-54.17
-63.71
-73.23
-82.2
-90.16
-96.79
-102.03
-106.0
-108.92
-110.89
-111.75
-111.1
-108.46
-103.53
-96.36
-87.4
-77.34
-66.86
-56.39
-46.06
-35.7
-25.04
-13.76
-1.59
11.66
26.12
41.75
58.38
75.64
93.05
110.1
126.29
141.19
154.42
165.62
174.52
180.95
184.94
186.69
186.51
184.71
181.46
176.73
170.33
161.99
151.54
139.0
124.63
108.86
92.1
74.56
56.26
37.02
16.68
-4.86
-27.57
-51.4
-76.35
-102.38
-129.16
-155.84
-180.94
-202.62
-219.22
-229.77
-234.32
-233.77
-229.36
-221.95
-211.59
-197.62
-179.21
-156.14
-129.29
-100.57
-72.35
-46.6
-24.32
-5.52
10.45
24.22
36.0
45.57
52.55
56.85
58.75
58.82
57.57
55.19
51.57
46.43
39.63
31.35
22.1
12.58
3.46
-4.81
-11.94
-17.76
-22.09
-24.68
-25.24
-23.62
-19.84
-14.12
-6.84
1.57
10.66
19.91
28.69
36.27
41.92
45.15
45.83
44.26
41.07
36.99
32.62
28.31
24.1
19.82
15.25
10.27
4.95
-0.49
-5.72
-10.46
-14.58
-18.11
-21.25
-24.25
-27.33
-30.59
-33.98
-37.32
-40.29
-42.48
-43.42
-42.66
-39.85
-34.87
-27.96
-19.65
-10.71
-2.01
5.73
12.01
16.63
19.65
21.32
21.96
21.9
21.43
20.78
20.13
19.59
19.16
18.79
18.38
17.86
17.22
16.51
15.79
15.02
14.09
12.77
10.78
7.93
4.15
-0.4
-5.37
-10.21
-14.22
-16.74
-17.24
-15.53
-11.85
-6.75
-0.94
4.94
10.51
15.6
20.08
23.72
26.16
27.04
26.18
23.76
20.38
16.76
13.56
11.05
9.12
7.42
5.59
3.45
1.11
-1.17
-3.18
-4.87
-6.39
-8.02
-10.06
-12.73
-16.07
-19.92
-23.97
-27.73
-30.62
-32.09
-31.71
-29.32
-25.06
-19.33
-12.72
-5.86
0.64
6.31
10.81
14.05
16.05
16.96
16.98
16.33
15.21
13.85
12.5
11.4
10.68
10.35
10.26
10.13
9.71
8.87
7.6
6.04
4.25
2.21
-0.29
-3.55
-7.76
-12.89
-18.59
-24.19
-28.94
-32.16
-33.42
-32.63
-30.0
-25.94
-20.94
-15.46
-9.89
-4.54
0.4
4.78
8.48
11.4
13.44
14.55
14.79
14.32
13.38
12.2
10.89
9.4
7.53
5.09
1.95
-1.75
-5.68
-9.47
-12.79
-15.57
-17.91
-20.05
-22.16
-24.29
-26.29
-27.84
-28.5
-27.78
-25.26
-20.7
-14.17
-6.1
2.85
11.9
20.4
27.92
34.27
39.33
43.0
45.08
45.42
44.04
41.22
37.5
33.52
29.88
26.97
24.96
23.78
23.25
23.15
23.31
23.57
23.84
24.06
24.15
24.07
23.66
22.72
20.98
18.19
14.34
9.7
4.9
0.73
-2.05
-2.98
-2.01
0.51
4.03
7.97
11.84
15.25
17.88
19.42
19.59
18.2
15.25
10.94
5.64
-0.21
-6.16
-11.83
-16.97
-21.46
-25.28
-28.51
-31.27
-33.67
-35.8
-37.69
-39.34
-40.79
-42.13
-43.52
-45.08
-46.88
-48.88
-50.93
-52.78
-54.13
-54.63
-53.9
-51.57
-47.42
-41.46
-34.0
-25.62
-17.02
-8.84
-1.48
4.86
10.23
14.71
18.39
21.28
23.35
24.59
25.03
24.77
23.93
22.71
21.24
19.65
17.98
16.22
14.28
12.04
9.38
6.23
2.61
-1.43
-5.81
-10.43
-15.25
-20.24
-25.43
-30.78
-36.19
-41.4
-45.91
-49.05
-50.06
-48.29
-43.47
-35.85
-26.15
-15.37
-4.53
5.62
14.68
22.55
29.29
35.02
39.85
43.82
47.01
49.47
51.3
52.59
53.45
53.98
54.25
54.28
54.04
53.38
52.09
49.97
46.9
42.93
38.27
33.28
28.27
23.44
18.81
14.18
9.29
3.91
-2.03
-8.33
-14.5
-19.89
-23.79
-25.62
-25.1
-22.32
-17.72
-11.97
-5.83
0.06
5.25
9.47
12.69
14.91
16.21
16.62
16.15
14.86
12.9
10.55
8.17
6.06
4.41
3.17
2.18
1.24
0.22
-0.94
-2.2
-3.58
-5.11
-6.81
-8.7
-10.72
-12.81
-14.92
-17.13
-19.58
-22.38
-25.47
-28.58
-31.17
-32.59
-32.2
-29.63
-24.8
-17.98
-9.65
-0.39
9.3
18.96
28.18
36.49
43.32
48.15
50.63
50.85
49.32
46.94
44.67
43.25
42.97
43.65
44.78
45.78
46.16
45.68
44.28
42.03
39.09
35.62
31.86
28.01
24.35
21.09
18.44
16.41
14.9
13.57
11.97
9.66
6.32
1.94
-3.09
-8.09
-12.18
-14.58
-14.85
-13.09
-9.99
-6.62
-4.16
-3.53
-5.19
-9.0
-14.27
-19.83
-24.31
-26.38
-25.14
-20.38
-12.72
-3.4
6.18
14.9
22.21
28.03
32.44
35.28
36.08
34.22
29.31
21.5
11.46
0.25
-11.05
-21.51
-30.46
-37.52
-42.61
-46.02
-48.36
-50.54
-53.44
-57.58
-62.79
-68.13
-72.06
-72.97
-69.66
-61.85
-50.24
-36.4
-22.25
-9.65
0.06
6.26
9.08
9.27
8.0
6.61
6.23
7.46
10.18
13.53
16.26
17.26
15.93
12.4
7.4
1.79
-3.62
-8.24
-11.49
-12.63
-10.85
-5.65
2.71
13.11
23.83
33.24
40.48
45.69
49.69
53.38
57.15
60.82
63.86
65.92
67.05
67.68
68.25
69.0
69.77
70.24
70.03
68.84
66.41
62.54
57.14
50.32
42.43
34.03
25.59
17.28
8.85
-0.31
-10.94
-23.55
-38.24
-54.55
-71.47
-87.64
-101.63
-112.3
-119.08
-122.22
-122.64
-121.63
-120.43
-119.81
-119.88
-120.19
-119.95
-118.36
-114.84
-109.18
-101.56
-92.44
-82.38
-71.83
-60.97
-49.69
-37.58
-24.22
-9.27
7.21
24.7
42.24
58.61
72.66
83.61
91.33
96.42
99.99
103.2
106.77
110.67
114.03
115.51
113.72
107.75
97.37
83.04
65.64
46.31
26.2
6.45
-11.88
-27.9
-40.98
-50.88
-57.73
-62.0
-64.24
-64.86
-64.05
-61.7
-57.72
-52.28
-46.1
-40.45
-36.93
-37.01
-41.53
-50.36
-62.41
-75.93
-89.02
-99.99
-107.74
-111.71
-111.97
-108.98
-103.52
-96.53
-88.97
-81.65
-75.15
-69.77
-65.61
-62.62
-60.56
-59.02
-57.33
-54.57
-49.82
-42.49
-32.63
-20.98
-8.79
2.62
12.25
19.66
24.88
28.12
29.44
28.6
25.26
19.29
11.09
1.73
-7.27
-14.37
-18.5
-19.34
-17.27
-13.18
-7.99
-2.41
3.19
8.64
13.79
18.36
22.03
24.51
25.83
26.25
26.28
26.49
27.29
28.84
30.96
33.32
35.42
36.89
37.58
37.65
37.48
37.47
37.84
38.49
39.03
38.9
37.65
35.08
31.29
26.72
21.97
17.77
14.84
13.81
15.09
18.87
25.02
33.17
42.79
53.28
64.03
74.52
84.25
92.8
99.81
104.98
108.19
109.54
109.38
108.25
106.69
105.07
103.44
101.54
98.92
95.16
90.04
83.53
75.83
67.1
57.48
46.96
35.43
22.77
9.06
-5.36
-19.8
-33.29
-44.86
-53.79
-59.85
-63.36
-65.03
-65.63
-65.74
-65.59
-65.11
-64.15
-62.71
-60.99
-59.33
-58.05
-57.25
-56.69
-55.89
-54.33
-51.66
-47.85
-43.23
-38.3
-33.59
-29.47
-26.12
-23.6
-21.97
-21.33
-21.8
-23.45
-26.17
-29.77
-33.98
-38.61
-43.46
-48.28
-52.61
-55.75
-56.88
-55.32
-50.8
-43.63
-34.6
-24.78
-15.16
-6.43
1.09
7.34
12.25
15.64
17.17
16.54
13.75
9.27
3.96
-1.11
-5.12
-7.64
-8.68
-8.53
-7.45
-5.56
-2.87
0.58
4.61
8.79
12.61
15.56
17.27
17.64
16.8
15.24
13.74
13.28
14.84
19.05
25.98
34.97
44.78
53.93
61.1
65.46
66.77
65.35
61.81
56.81
50.91
44.49
37.9
31.51
25.82
21.36
18.53
17.45
17.82
19.03
20.32
20.99
20.51
18.63
15.29
10.59
4.65
-2.37
-10.38
-19.31
-29.05
-39.25
-49.21
-57.91
-64.15
-66.99
-66.05
-61.7
-54.99
-47.28
-39.9
-33.88
-29.79
-27.9
-28.2
-30.46
-34.28
-39.06
-44.09
-48.61
-52.02
-53.95
-54.3
-53.24
-51.08
-48.16
-44.79
-41.19
-37.52
-33.91
-30.47
-27.37
-24.84
-23.26
-23.08
-24.73
-28.41
-33.83
-40.12
-45.9
-49.56
-49.6
-45.1
-35.88
-22.52
-6.18
11.67
29.59
46.33
60.97
72.95
82.06
88.51
92.83
95.83
98.42
101.37
105.07
109.47
114.09
118.25
121.3
122.78
122.41
120.13
115.95
109.99
102.41
93.47
83.41
72.39
60.42
47.32
32.9
17.14
0.45
-16.25
-31.61
-44.17
-52.84
-57.23
-57.78
-55.59
-51.99
-48.11
-44.63
-41.71
-39.24
-36.99
-34.85
-32.79
-30.75
-28.56
-25.95
-22.67
-18.63
-13.97
-9.09
-4.43
-0.35
2.96
5.54
7.52
9.02
10.04
10.47
10.11
8.75
6.18
2.25
-3.17
-10.08
-18.26
-27.11
-35.61
-42.42
-46.16
-45.81
-41.06
-32.38
-20.95
-8.22
4.43
16.03
26.05
34.26
40.57
44.9
47.3
47.98
47.46
46.4
45.51
45.28
45.88
47.14
48.59
49.64
49.73
48.47
45.76
41.74
36.74
31.07
24.85
18.04
10.5
2.17
-6.83
-16.26
-25.75
-34.86
-42.99
-49.35
-52.97
-52.92
-48.7
-40.5
-29.28
-16.52
-3.86
7.37
16.31
22.57
26.08
26.93
25.33
21.61
16.31
10.13
3.86
-1.76
-6.2
-9.19
-10.81
-11.42
-11.51
-11.57
-11.93
-12.71
-13.88
-15.36
-17.16
-19.46
-22.55
-26.76
-32.29
-39.09
-46.73
-54.46
-61.27
-66.06
-67.88
-66.22
-61.14
-53.28
-43.61
-33.22
-22.98
-13.51
-5.17
1.71
6.78
9.72
10.39
9.06
6.38
3.28
0.71
-0.69
-0.74
0.32
1.94
3.55
4.75
5.41
5.66
5.7
5.62
5.3
4.38
2.41
-1.01
-6.06
-12.62
-20.22
-28.08
-35.12
-40.1
-41.85
-39.62
-33.34
-23.72
-12.07
0.1
11.5
21.36
29.42
35.78
40.58
43.92
45.77
46.11
45.11
43.16
40.86
38.78
37.33
36.6
36.38
36.28
35.93
35.09
33.71
31.83
29.52
26.77
23.45
19.39
14.43
8.44
1.38
-6.63
-15.22
-23.76
-31.34
-36.9
-39.46
-38.36
-33.54
-25.55
-15.49
-4.69
5.6
14.51
21.63
26.92
30.52
32.56
33.14
32.34
30.35
27.48
24.18
20.88
17.9
15.33
13.13
11.19
9.37
7.59
5.76
3.77
1.48
-1.24
-4.48
-8.28
-12.64
-17.53
-22.93
-28.8
-35.0
-41.14
-46.55
-50.31
-51.41
-49.01
-42.76
-32.97
-20.63
-7.19
5.85
17.4
26.94
34.6
40.79
45.9
50.0
52.84
54.07
53.57
51.7
49.24
47.21
46.43
47.22
49.38
52.3
55.33
58.05
60.41
62.71
65.35
68.67
72.94
78.35
85.05
92.81
100.62
106.42
107.36
100.59
84.56
59.9
29.49
-2.39
-31.37
-54.16
-68.92
-75.12
-72.99
-63.32
-47.66
-28.63
-9.93
4.32
10.71
7.64
-4.11
-21.72
-41.33
-59.22
-72.81
-81.09
-84.49
-84.36
-82.38
-80.04
-78.44
-78.21
-79.72
-83.09
-88.24
-94.84
-102.36
-110.13
-117.53
-124.12
-129.69
-134.09
-137.05
-138.01
-136.09
-130.3
-119.91
-104.71
-85.27
-62.86
-39.25
-16.35
4.18
21.17
34.08
42.95
48.26
50.62
50.62
48.73
45.35
40.94
36.09
31.54
27.95
25.79
25.17
25.85
27.36
29.15
30.74
31.76
32.02
31.41
29.9
27.45
24.01
19.53
13.91
7.1
-0.83
-9.63
-18.66
-26.89
-33.0
-35.7
-34.08
-28.07
-18.46
-6.74
5.37
16.45
25.67
32.79
37.93
41.24
42.76
42.5
40.58
37.39
33.61
29.92
26.89
24.72
23.31
22.29
21.3
20.08
18.57
16.87
15.06
13.13
10.95
8.27
4.87
0.59
-4.65
-10.83
-17.87
-25.58
-33.52
-41.0
-46.98
-50.35
-50.11
-45.77
-37.48
-26.09
-12.92
0.61
13.28
24.33
33.42
40.53
45.7
48.95
50.28
49.84
47.98
45.35
42.7
40.75
39.99
40.62
42.59
45.64
49.42
53.56
57.72
61.61
65.06
67.96
70.3
72.09
73.39
74.2
74.53
74.36
73.71
72.83
72.24
72.69
75.02
79.71
86.59
94.62
102.21
107.63
109.58
107.51
101.64
92.63
81.3
68.31
54.08
38.75
22.2
4.1
-15.9
-37.85
-61.29
-85.12
-107.91
-128.28
-145.35
-158.79
-168.76
-175.49
-179.0
-179.03
-175.28
-167.73
-156.93
-143.9
-130.0
-116.54
-104.5
-94.27
-85.57
-77.47
-68.63
-57.76
-44.19
-28.22
-11.2
4.81
17.66
25.81
28.77
27.09
21.99
14.65
5.72
-4.82
-17.42
-32.5
-49.94
-68.96
-88.25
-106.46
-122.71
-136.81
-149.17
-160.4
-171.06
-181.47
-191.82
-202.31
-213.19
-224.66
-236.59
-248.47
-259.39
-268.24
-273.85
-274.93
-270.05
-257.7
-236.8
-207.32
-170.82
-130.41
-90.06
-53.44
-22.89
1.14
19.87
35.37
49.59
63.64
77.59
90.73
102.12
111.02
117.24
121.08
123.16
124.13
124.41
124.13
123.25
121.74
119.72
117.5
115.35
113.33
111.08
107.93
103.1
96.04
86.67
75.48
63.39
51.61
41.39
33.87
29.85
29.63
32.9
38.75
45.91
53.04
59.03
63.19
65.2
64.97
62.47
57.75
50.94
42.42
32.76
22.72
13.01
4.21
-3.28
-9.22
-13.43
-15.77
-16.12
-14.44
-10.82
-5.51
1.05
8.19
15.12
20.93
24.81
26.26
25.22
22.2
18.21
14.5
12.32
12.64
15.97
22.39
31.53
42.66
54.8
66.83
77.72
86.65
93.24
97.56
100.02
101.2
101.56
101.38
100.68
99.35
97.37
94.87
92.14
89.52
87.23
85.33
83.68
82.07
80.35
78.43
76.31
73.97
71.35
68.34
64.9
61.06
56.91
52.55
47.95
42.98
37.43
31.17
24.41
17.73
12.09
8.57
8.05
10.93
16.96
25.34
34.97
44.77
53.91
61.86
68.31
73.08
76.03
77.07
76.24
73.72
69.81
64.84
59.1
52.81
46.12
39.12
31.98
24.91
18.3
12.56
8.09
5.05
3.27
2.32
1.58
0.53
-1.07
-3.13
-5.37
-7.57
-9.67
-11.86
-14.41
-17.54
-21.13
-24.73
-27.61
-28.98
-28.2
-24.96
-19.33
-11.68
-2.56
7.44
17.72
27.64
36.6
44.06
49.68
53.38
55.39
56.11
55.95
55.19
53.91
52.01
49.26
45.33
39.87
32.6
23.36
12.28
-0.18
-13.3
-26.12
-37.66
-47.1
-53.95
-58.09
-59.9
-60.12
-59.73
-59.72
-60.83
-63.41
-67.31
-71.96
-76.44
-79.71
-80.82
-79.07
-74.28
-66.77
-57.37
-47.18
-37.29
-28.6
-21.69
-16.87
-14.24
-13.74
-15.16
-18.15
-22.27
-27.08
-32.25
-37.6
-43.04
-48.52
-53.91
-59.08
-63.9
-68.37
-72.61
-76.85
-81.3
-86.11
-91.26
-96.59
-101.82
-106.62
-110.74
-114.11
-116.87
-119.4
-122.08
-125.09
-128.15
-130.35
-130.35
-126.68
-118.22
-104.59
-86.29
-64.49
-40.68
-16.31
7.44
29.66
49.69
67.06
81.58
93.4
103.06
111.27
118.69
125.71
132.44
138.92
145.26
151.8
158.92
166.88
175.62
184.73
193.65
201.9
209.3
215.97
222.23
228.38
234.55
240.57
246.03
250.44
253.4
254.71
254.39
252.51
248.86
242.75
233.05
218.43
197.85
170.95
138.29
101.35
62.25
23.33
-13.31
-46.2
-74.74
-99.14
-120.13
-138.59
-155.18
-170.17
-183.63
-195.69
-206.83
-217.97
-230.17
-244.39
-261.17
-280.41
-301.16
-321.52
-338.85
-350.24
-353.62
-348.69
-337.44
-323.77
-312.12
-305.77
-305.6
-309.86
-315.05
-317.32
-313.79
-303.11
-285.37
-261.54
-232.87
-200.7
-166.37
-131.41
-97.52
-66.41
-39.49
-17.62
-0.87
11.29
19.79
25.61
29.68
32.79
35.67
39.02
43.35
48.84
55.22
61.87
68.06
73.18
76.93
79.24
80.19
79.88
78.35
75.64
71.73
66.57
60.12
52.43
43.89
35.37
28.12
23.47
22.43
25.25
31.41
39.75
48.89
57.62
65.08
70.83
74.68
76.57
76.52
74.68
71.43
67.31
62.94
58.83
55.19
51.9
48.65
45.12
41.24
37.2
33.35
30.05
27.41
25.32
23.4
21.19
18.26
14.26
9.01
2.54
-4.82
-12.37
-19.0
-23.41
-24.42
-21.32
-14.19
-3.89
8.17
20.43
31.61
40.9
47.99
52.89
55.74
56.7
55.97
53.86
50.75
47.12
43.36
39.66
36.06
32.45
28.76
25.02
21.33
17.83
14.63
11.78
9.22
6.81
4.3
1.4
-2.24
-6.84
-12.38
-18.4
-24.04
-28.17
-29.71
-27.98
-22.92
-15.09
-5.56
4.53
14.2
22.8
30.01
35.61
39.43
41.23
40.87
38.5
34.64
30.05
25.49
21.49
18.18
15.38
12.81
10.28
7.8
5.47
3.38
1.52
-0.24
-2.13
-4.35
-7.1
-10.49
-14.6
-19.36
-24.47
-29.36
-33.19
-35.08
-34.26
-30.32
-23.34
-13.89
-2.9
8.57
19.48
29.04
36.73
42.25
45.5
46.49
45.41
42.61
38.67
34.3
30.16
26.7
23.99
21.83
19.89
17.94
15.95
14.07
12.48
11.2
10.03
8.55
6.27
2.79
-2.05
-8.03
-14.58
-20.8
-25.66
-28.22
-27.88
-24.51
-18.54
-10.82
-2.36
5.86
13.07
18.82
22.85
25.06
25.45
24.16
21.48
17.88
13.93
10.17
6.99
4.52
2.68
1.26
0.02
-1.19
-2.38
-3.51
-4.55
-5.56
-6.77
-8.53
-11.18
-14.9
-19.54
-24.57
-29.14
-32.28
-33.17
-31.34
-26.75
-19.83
-11.31
-2.07
6.99
15.14
21.83
26.7
29.55
30.36
29.22
26.37
22.21
17.26
12.08
7.18
2.88
-0.68
-3.51
-5.73
-7.43
-8.66
-9.49
-10.04
-10.56
-11.42
-13.03
-15.69
-19.47
-24.11
-28.95
-33.1
-35.56
-35.47
-32.38
-26.37
-18.04
-8.38
1.54
10.76
18.63
24.75
28.96
31.14
31.31
29.57
26.18
21.66
16.59
11.55
6.93
2.92
-0.48
-3.35
-5.71
-7.56
-8.92
-9.9
-10.78
-11.95
-13.8
-16.67
-20.66
-25.6
-30.99
-36.01
-39.63
-40.83
-38.84
-33.48
-25.19
-14.99
-4.17
6.07
14.85
21.73
26.61
29.55
30.64
30.02
27.89
24.64
20.82
16.99
13.58
10.8
8.57
6.66
4.88
3.15
1.53
0.13
-1.06
-2.23
-3.77
-6.18
-9.86
-14.9
-20.96
-27.2
-32.47
-35.57
-35.61
-32.21
-25.67
-16.79
-6.66
3.59
13.07
21.1
27.29
31.41
33.39
33.31
31.48
28.36
24.57
20.65
17.0
13.8
11.03
8.63
6.5
4.6
2.91
1.42
0.11
-1.07
-2.22
-3.57
-5.48
-8.4
-12.67
-18.25
-24.6
-30.64
-35.04
-36.57
-34.53
-28.93
-20.46
-10.25
0.42
10.49
19.26
26.36
31.65
35.02
36.37
35.65
33.03
29.0
24.35
19.92
16.35
13.85
12.22
10.99
9.74
8.25
6.56
4.88
3.4
2.15
0.94
-0.53
-2.64
-5.75
-10.11
-15.74
-22.3
-29.0
-34.69
-38.08
-38.14
-34.43
-27.3
-17.75
-7.1
3.43
12.92
20.88
27.09
31.45
33.9
34.39
33.01
30.08
26.14
21.86
17.92
14.82
12.79
11.71
11.25
11.0
10.57
9.79
8.64
7.28
5.83
4.31
2.62
0.53
-2.16
-5.58
-9.73
-14.44
-19.42
-24.16
-27.94
-29.91
-29.19
-25.18
-17.8
-7.61
4.3
16.6
28.04
37.77
45.38
50.8
54.14
55.59
55.38
53.83
51.45
48.86
46.6
45.0
43.89
42.72
40.72
37.29
32.17
25.63
18.26
10.67
3.28
-3.8
-10.64
-17.33
-23.88
-30.23
-36.41
-42.58
-49.05
-55.97
-63.14
-69.81
-74.83
-76.95
-75.26
-69.55
-60.38
-48.94
-36.63
-24.74
-14.2
-5.53
1.05
5.47
7.73
7.96
6.48
3.83
0.75
-1.97
-3.71
-4.19
-3.52
-2.17
-0.72
0.3
0.62
0.23
-0.67
-1.85
-3.16
-4.64
-6.43
-8.7
-11.6
-15.23
-19.65
-24.86
-30.67
-36.57
-41.67
-44.82
-44.87
-41.1
-33.51
-22.93
-10.81
1.2
11.71
19.87
25.46
28.66
29.81
29.24
27.18
23.87
19.63
14.98
10.51
6.81
4.27
2.95
2.6
2.71
2.75
2.3
1.17
-0.63
-2.94
-5.61
-8.52
-11.64
-15.0
-18.57
-22.35
-26.33
-30.57
-35.09
-39.83
-44.38
-47.98
-49.59
-48.19
-43.13
-34.45
-22.9
-9.69
3.76
16.26
27.03
35.69
42.22
46.77
49.53
50.69
50.44
49.0
46.66
43.73
40.58
37.53
34.86
32.71
31.13
30.01
29.16
28.31
27.14
25.34
22.71
19.18
14.88
10.05
5.03
0.08
-4.64
-9.12
-13.55
-18.2
-23.33
-28.98
-34.82
-40.03
-43.46
-43.89
-40.51
-33.21
-22.75
-10.57
1.67
12.54
21.21
27.5
31.68
34.19
35.41
35.5
34.57
32.74
30.26
27.51
24.9
22.73
21.08
19.88
19.01
18.35
17.87
17.51
17.18
16.62
15.49
13.47
10.38
6.3
1.54
-3.48
-8.38
-12.95
-17.22
-21.43
-25.87
-30.84
-36.42
-42.33
-47.93
-52.2
-54.02
-52.43
-47.03
-38.1
-26.62
-13.99
-1.62
9.33
18.24
24.91
29.46
32.15
33.24
33.0
31.64
29.48
26.86
24.21
21.9
20.21
19.23
18.83
18.76
18.75
18.63
18.36
17.93
17.31
16.31
14.65
12.04
8.36
3.77
-1.3
-6.37
-11.0
-15.01
-18.44
-21.48
-24.43
-27.58
-31.17
-35.31
-39.85
-44.28
-47.7
-49.0
-47.24
-41.94
-33.39
-22.49
-10.59
0.96
11.07
19.02
24.5
27.44
28.0
26.49
23.32
19.03
14.2
9.41
5.12
1.64
-0.91
-2.55
-3.43
-3.7
-3.49
-2.89
-1.99
-0.96
-0.05
0.4
0.1
-1.11
-3.16
-5.81
-8.7
-11.53
-14.17
-16.71
-19.39
-22.55
-26.42
-31.04
-36.08
-40.88
-44.51
-45.91
-44.25
-39.12
-30.76
-20.04
-8.19
3.51
14.03
22.72
29.27
33.63
35.86
36.11
34.61
31.76
28.05
24.03
20.17
16.83
14.23
12.45
11.47
11.16
11.3
11.59
11.65
11.2
10.02
8.08
5.46
2.31
-1.25
-5.07
-9.12
-13.37
-17.83
-22.62
-27.85
-33.53
-39.39
-44.73
-48.51
-49.54
-46.91
-40.36
-30.44
-18.37
-5.75
5.95
15.71
23.09
28.16
31.29
32.89
33.2
32.39
30.52
27.78
24.49
21.1
18.12
15.96
14.82
14.67
15.26
16.19
16.99
17.22
16.52
14.73
11.82
7.94
3.35
-1.64
-6.71
-11.62
-16.33
-21.0
-25.95
-31.41
-37.27
-42.92
-47.23
-48.9
-46.91
-40.91
-31.42
-19.66
-7.18
4.58
14.6
22.44
28.03
31.61
33.43
33.73
32.71
30.58
27.63
24.23
20.78
17.62
15.02
13.14
12.01
11.59
11.71
12.08
12.34
12.07
10.94
8.8
5.7
1.85
-2.47
-6.96
-11.47
-15.99
-20.7
-25.85
-31.63
-37.95
-44.23
-49.46
-52.36
-51.79
-47.15
-38.62
-27.13
-14.08
-0.95
11.05
21.17
29.04
34.65
38.16
39.85
40.06
39.22
37.78
36.15
34.6
33.28
32.18
31.2
30.29
29.46
28.79
28.31
27.98
27.62
26.95
25.77
23.92
21.32
17.9
13.53
8.02
1.25
-6.76
-15.77
-25.36
-35.13
-44.65
-53.43
-60.78
-65.73
-67.17
-64.2
-56.55
-44.78
-30.25
-14.73
0.07
12.88
23.0
30.25
34.76
36.85
36.94
35.59
33.4
30.99
28.84
27.23
26.24
25.8
25.77
26.04
26.55
27.29
28.21
29.19
30.01
30.39
29.99
28.53
25.9
22.16
17.55
12.44
7.15
1.84
-3.54
-9.26
-15.72
-23.25
-31.95
-41.46
-50.84
-58.69
-63.45
-63.84
-59.34
-50.43
-38.53
-25.54
-13.32
-3.22
4.11
8.56
10.33
9.75
7.16
3.04
-1.92
-6.94
-11.25
-14.35
-16.07
-16.54
-16.01
-14.72
-12.87
-10.63
-8.29
-6.21
-4.82
-4.46
-5.25
-7.13
-9.85
-13.08
-16.51
-19.92
-23.21
-26.47
-29.87
-33.68
-38.07
-42.94
-47.77
-51.63
-53.32
-51.74
-46.28
-37.06
-24.99
-11.56
1.61
13.17
22.27
28.61
32.3
33.65
33.04
30.87
27.58
23.66
19.63
16.0
13.18
11.37
10.61
10.7
11.36
12.17
12.78
12.89
12.39
11.3
9.75
7.9
5.85
3.56
0.91
-2.26
-6.13
-10.83
-16.41
-22.76
-29.47
-35.77
-40.59
-42.75
-41.27
-35.81
-26.72
-15.12
-2.5
9.62
20.05
28.11
33.59
36.61
37.49
36.56
34.18
30.69
26.5
22.04
17.79
14.27
11.88
10.79
10.92
11.87
13.08
13.94
13.98
13.0
11.0
8.18
4.78
1.01
-2.99
-7.14
-11.42
-15.89
-20.68
-25.97
-31.86
-38.16
-44.2
-48.89
-50.87
-49.03
-42.83
-32.65
-19.7
-5.7
7.58
18.77
27.15
32.66
35.68
36.78
36.46
35.09
32.92
30.12
26.96
23.76
20.91
18.7
17.33
16.78
16.86
17.26
17.61
17.49
16.58
14.69
11.84
8.22
4.14
-0.12
-4.42
-8.79
-13.4
-18.48
-24.2
-30.6
-37.41
-44.01
-49.38
-52.26
-51.48
-46.34
-36.96
-24.35
-10.21
3.53
15.25
24.0
29.62
32.53
33.44
33.01
31.71
29.79
27.44
24.82
22.2
19.84
17.95
16.58
15.69
15.17
14.94
14.92
14.99
14.93
14.46
13.26
11.13
8.09
4.32
0.15
-4.12
-8.27
-12.29
-16.33
-20.67
-25.61
-31.29
-37.52
-43.61
-48.46
-50.71
-49.2
-43.38
-33.55
-20.88
-7.01
6.37
18.01
27.26
33.96
38.26
40.33
40.34
38.51
35.27
31.23
27.16
23.7
21.2
19.63
18.73
18.18
17.78
17.52
17.48
17.66
17.83
17.59
16.44
14.04
10.33
5.59
0.36
-4.86
-9.68
-14.03
-18.09
-22.2
-26.75
-31.98
-37.86
-43.97
-49.49
-53.32
-54.35
-51.77
-45.35
-35.55
-23.41
-10.3
2.47
13.83
23.11
29.98
34.37
36.4
36.32
34.53
31.49
27.72
23.76
20.07
17.01
14.85
13.72
13.59
14.26
15.39
16.55
17.3
17.25
16.12
13.84
10.51
6.44
2.03
-2.3
-6.33
-10.05
-13.73
-17.81
-22.63
-28.3
-34.47
-40.3
-44.63
-46.23
-44.14
-38.01
-28.25
-15.96
-2.71
9.91
20.59
28.56
33.61
35.91
35.84
33.84
30.4
26.01
21.25
16.71
12.94
10.28
8.81
8.39
8.7
9.37
10.08
10.55
10.53
9.82
8.23
5.65
2.15
-2.07
-6.66
-11.28
-15.69
-19.89
-24.08
-28.62
-33.85
-39.91
-46.5
-52.8
-57.53
-59.29
-56.94
-50.04
-39.07
-25.33
-10.61
3.33
15.17
24.25
30.5
34.24
35.92
35.98
34.79
32.69
30.03
27.13
24.26
21.63
19.34
17.46
16.06
15.16
14.74
14.66
14.66
14.35
13.37
11.41
8.34
4.24
-0.61
-5.79
-10.83
-15.37
-19.31
-22.83
-26.4
-30.57
-35.7
-41.65
-47.7
-52.59
-54.84
-53.24
-47.22
-37.14
-24.19
-10.06
3.57
15.44
24.91
31.91
36.68
39.5
40.58
40.07
38.22
35.43
32.21
29.1
26.5
24.53
23.15
22.19
21.49
21.0
20.75
20.74
20.84
20.77
20.07
18.31
15.2
10.78
5.39
-0.36
-5.87
-10.7
-14.74
-18.23
-21.66
-25.62
-30.56
-36.62
-43.5
-50.37
-56.02
-59.05
-58.27
-53.01
-43.4
-30.39
-15.49
-0.39
13.41
24.91
33.69
39.74
43.26
44.49
43.69
41.16
37.37
32.94
28.55
24.77
21.86
19.79
18.31
17.13
16.09
15.14
14.29
13.49
12.52
11.08
8.84
5.56
1.23
-3.95
-9.56
-15.16
-20.34
-24.9
-28.89
-32.59
-36.33
-40.45
-45.02
-49.82
-54.23
-57.35
-58.1
-55.61
-49.4
-39.7
-27.36
-13.75
-0.32
11.7
21.54
28.93
33.9
36.66
37.46
36.57
34.28
31.0
27.22
23.45
20.17
17.64
15.95
15.01
14.62
14.57
14.7
14.85
14.8
14.29
13.06
10.92
7.88
4.14
0.06
-4.01
-7.89
-11.62
-15.43
-19.67
-24.59
-30.24
-36.31
-42.06
-46.39
-48.08
-46.13
-40.11
-30.39
-18.13
-4.89
7.75
18.6
27.0
32.8
36.11
37.2
36.32
33.78
30.0
25.51
20.89
16.65
13.18
10.69
9.26
8.85
9.25
10.15
11.13
11.7
11.44
10.1
7.66
4.28
0.3
-3.96
-8.24
-12.43
-16.61
-20.98
-25.84
-31.42
-37.7
-44.27
-50.2
-54.16
-54.8
-51.13
-42.97
-31.08
-17.02
-2.67
10.33
20.91
28.7
33.86
36.79
37.87
37.43
35.69
32.95
29.54
25.86
22.29
19.12
16.52
14.55
13.23
12.48
12.2
12.2
12.17
11.75
10.54
8.33
5.08
1.02
-3.42
-7.83
-11.99
-15.92
-19.93
-24.45
-29.81
-36.03
-42.67
-48.78
-53.11
-54.32
-51.49
-44.36
-33.54
-20.37
-6.5
6.55
17.75
26.58
33.0
37.14
39.17
39.25
37.64
34.73
31.09
27.29
23.8
20.87
18.55
16.81
15.57
14.82
14.55
14.65
14.89
14.95
14.41
12.96
10.41
6.78
2.33
-2.56
-7.47
-12.08
-16.27
-20.22
-24.36
-29.14
-34.81
-41.16
-47.39
-52.24
-54.32
-52.55
-46.48
-36.54
-23.86
-9.99
3.54
15.55
25.29
32.49
37.16
39.47
39.71
38.2
35.38
31.76
27.93
24.47
21.8
20.14
19.44
19.46
19.84
20.25
20.49
20.48
20.17
19.44
18.11
15.89
12.62
8.36
3.39
-1.83
-6.86
-11.4
-15.42
-19.06
-22.64
-26.58
-31.18
-36.49
-42.11
-47.11
-50.19
-50.03
-45.78
-37.39
-25.68
-12.08
1.85
14.84
26.07
35.19
42.04
46.45
48.28
47.45
44.19
39.04
32.79
26.27
20.11
14.65
9.98
6.11
3.06
0.9
-0.36
-0.92
-1.19
-1.73
-3.08
-5.54
-9.08
-13.4
-18.0
-22.41
-26.27
-29.43
-31.94
-34.08
-36.23
-38.77
-41.85
-45.27
-48.31
-49.85
-48.58
-43.49
-34.22
-21.3
-6.04
9.83
24.66
37.29
47.18
54.34
58.98
61.35
61.6
59.88
56.48
51.92
46.91
42.21
38.41
35.76
34.21
33.41
32.97
32.56
32.01
31.24
30.16
28.63
26.48
23.59
19.96
15.64
10.67
4.89
-2.09
-10.71
-21.27
-33.7
-47.49
-61.7
-75.23
-86.89
-95.57
-100.34
-100.55
-96.02
-87.26
-75.46
-62.27
-49.39
-38.11
-29.06
-22.19
-17.03
-13.06
-9.91
-7.45
-5.67
-4.51
-3.8
-3.25
-2.58
-1.56
-0.12
1.68
3.7
5.74
7.61
9.05
9.83
9.77
8.79
6.95
4.47
1.62
-1.39
-4.47
-7.69
-11.25
-15.37
-20.25
-26.0
-32.5
-39.25
-45.28
-49.22
-49.61
-45.36
-36.25
-23.09
-7.56
8.29
22.63
34.32
42.92
48.57
51.68
52.65
51.82
49.5
46.1
42.1
38.05
34.4
31.39
29.09
27.41
26.24
25.53
25.25
25.3
25.42
25.13
23.9
21.36
17.49
12.61
7.27
1.97
-3.03
-7.76
-12.5
-17.62
-23.39
-29.95
-37.12
-44.42
-50.92
-55.42
-56.66
-53.71
-46.37
-35.29
-21.81
-7.58
5.88
17.49
26.7
33.4
37.7
39.85
40.15
38.91
36.56
33.52
30.25
27.2
24.7
22.96
22.02
21.78
22.02
22.47
22.85
22.9
22.32
20.8
18.03
13.9
8.52
2.29
-4.23
-10.47
-16.09
-21.09
-25.78
-30.66
-36.15
-42.37
-48.93
-54.84
-58.7
-59.04
-54.85
-45.99
-33.3
-18.42
-3.3
10.37
21.56
29.92
35.6
38.93
40.28
39.92
38.14
35.31
31.92
28.5
25.46
23.06
21.31
20.11
19.29
18.73
18.34
18.02
17.61
16.83
15.4
13.09
9.83
5.7
0.95
-4.17
-9.49
-14.96
-20.67
-26.81
-33.54
-40.83
-48.29
-55.04
-59.82
-61.27
-58.39
-50.86
-39.32
-25.21
-10.38
3.37
14.8
23.29
28.86
31.87
32.74
31.84
29.47
25.96
21.76
17.49
13.82
11.28
10.1
10.15
11.02
12.16
13.06
13.37
12.9
11.58
9.44
6.55
3.07
-0.86
-5.1
-9.62
-14.55
-20.1
-26.44
-33.54
-40.94
-47.67
-52.4
-53.73
-50.65
-42.88
-31.08
-16.74
-1.75
12.06
23.37
31.59
36.78
39.4
39.97
38.9
36.41
32.7
28.05
22.94
18.01
13.87
10.94
9.27
8.61
8.54
8.6
8.46
7.94
6.92
5.34
3.15
0.32
-3.1
-6.99
-11.24
-15.82
-20.85
-26.53
-33.03
-40.19
-47.39
-53.54
-57.2
-57.06
-52.34
-43.1
-30.32
-15.62
-0.8
12.6
23.61
31.85
37.38
40.47
41.41
40.54
38.21
34.87
31.04
27.22
23.8
21.0
18.96
17.72
17.32
17.69
18.66
19.86
20.75
20.78
19.48
16.67
12.46
7.26
1.63
-3.93
-9.11
-13.89
-18.53
-23.52
-29.27
-35.98
-43.39
-50.64
-56.43
-59.22
-57.77
-51.48
-40.72
-26.76
-11.44
3.34
16.09
26.04
33.07
37.51
39.82
40.39
39.47
37.31
34.27
30.87
27.7
25.25
23.75
23.06
22.81
22.57
22.07
21.24
20.25
19.28
18.38
17.35
15.83
13.36
9.64
4.63
-1.39
-7.86
-14.14
-19.71
-24.36
-28.22
-31.76
-35.54
-40.04
-45.45
-51.53
-57.54
-62.31
-64.46
-62.75
-56.5
-45.86
-31.92
-16.35
-1.05
12.47
23.37
31.44
36.92
40.17
41.45
40.93
38.83
35.56
31.75
28.13
25.29
23.52
22.79
22.77
23.05
23.24
23.16
22.79
22.26
21.7
21.18
20.58
19.6
17.88
15.13
11.29
6.6
1.51
-3.53
-8.19
-12.44
-16.45
-20.51
-24.9
-29.87
-35.49
-41.63
-47.8
-53.08
-56.3
-56.23
-52.04
-43.65
-31.8
-17.87
-3.48
9.9
21.22
29.92
35.84
39.08
39.9
38.67
35.85
32.01
27.78
23.78
20.55
18.47
17.66
18.05
19.37
21.29
23.44
25.44
26.96
27.67
27.39
26.03
23.66
20.41
16.41
11.74
6.45
0.67
-5.41
-11.48
-17.2
-22.33
-26.81
-30.73
-34.34
-37.97
-41.99
-46.71
-52.17
-57.96
-63.12
-66.28
-66.0
-61.27
-51.93
-38.74
-23.24
-7.27
7.51
19.91
29.38
35.83
39.47
40.65
39.75
37.19
33.45
29.09
24.68
20.77
17.76
15.83
14.91
14.82
15.25
15.98
16.8
17.53
17.91
17.61
16.28
13.67
9.81
4.97
-0.33
-5.54
-10.28
-14.39
-18.01
-21.47
-25.22
-29.66
-34.97
-40.95
-46.86
-51.48
-53.36
-51.24
-44.57
-33.71
-19.89
-4.9
9.5
21.95
31.76
38.82
43.36
45.71
46.11
44.75
41.85
37.78
33.15
28.7
25.15
23.02
22.5
23.43
25.37
27.81
30.23
32.21
33.48
33.82
33.14
31.47
28.94
25.81
22.38
18.9
15.45
11.91
8.03
3.59
-1.37
-6.32
-10.26
-11.89
-10.04
-4.07
5.77
18.36
31.95
44.66
55.01
62.19
66.13
67.26
66.18
63.41
59.24
53.81
47.28
39.97
32.44
25.42
19.69
15.92
14.59
15.82
19.44
24.85
31.1
36.95
41.11
42.56
40.9
36.42
30.07
23.03
16.23
9.94
3.65
-3.61
-12.74
-24.02
-36.82
-49.8
-61.33
-70.11
-75.63
-78.2
-78.71
-78.22
-77.58
-77.22
-77.27
-77.75
-78.72
-80.32
-82.62
-85.44
-88.33
-90.56
-91.45
-90.45
-87.33
-82.06
-74.78
-65.74
-55.31
-44.03
-32.7
-22.27
-13.61
-7.36
-3.71
-2.38
-2.79
-4.3
-6.45
-9.12
-12.55
-17.26
-23.74
-32.28
-42.67
-54.08
-65.05
-73.7
-78.24
-77.47
-71.3
-60.92
-48.5
-36.57
-27.32
-22.03
-20.9
-23.24
-27.87
-33.5
-38.99
-43.42
-46.15
-46.8
-45.24
-41.52
-35.85
-28.49
-19.77
-10.14
-0.17
9.45
18.01
24.9
29.76
32.52
33.28
32.26
29.66
25.58
20.05
13.06
4.74
-4.5
-13.83
-22.08
-27.85
-29.9
-27.46
-20.51
-9.86
3.06
16.49
28.74
38.44
44.78
47.5
46.78
43.2
37.49
30.49
23.02
15.88
9.8
5.35
2.94
2.66
4.26
7.11
10.39
13.21
14.9
15.11
13.83
11.29
7.82
3.71
-0.88
-5.85
-11.23
-17.07
-23.51
-30.59
-38.11
-45.42
-51.39
-54.57
-53.59
-47.6
-36.71
-22.0
-5.26
11.52
26.65
39.04
48.31
54.56
58.18
59.56
59.0
56.78
53.2
48.7
43.83
39.2
35.34
32.57
30.97
30.41
30.58
31.03
31.31
30.99
29.79
27.59
24.47
20.65
16.37
11.78
6.9
1.56
-4.5
-11.49
-19.37
-27.66
-35.44
-41.38
-44.06
-42.43
-36.1
-25.52
-11.95
2.94
17.42
30.14
40.18
47.16
51.05
52.12
50.83
47.81
43.76
39.37
35.22
31.64
28.8
26.72
25.36
24.71
24.68
25.08
25.56
25.63
24.74
22.51
18.83
13.92
8.26
2.43
-3.13
-8.2
-12.9
-17.54
-22.54
-28.26
-34.81
-41.89
-48.76
-54.18
-56.68
-54.93
-48.22
-36.87
-22.26
-6.46
8.43
20.87
30.21
36.61
40.63
42.73
43.15
41.89
39.06
35.05
30.58
26.48
23.38
21.5
20.7
20.63
20.96
21.52
22.22
23.0
23.56
23.45
22.12
19.18
14.61
8.79
2.39
-3.85
-9.35
-13.93
-17.8
-21.49
-25.64
-30.77
-37.05
-44.11
-51.01
-56.35
-58.59
-56.52
-49.62
-38.36
-24.07
-8.58
6.22
18.89
28.65
35.27
38.96
40.08
38.98
36.06
31.79
26.84
21.96
17.9
15.14
13.83
13.75
14.47
15.52
16.55
17.39
17.99
18.27
18.0
16.86
14.51
10.83
6.0
0.52
-5.03
-10.2
-14.84
-19.19
-23.69
-28.74
-34.5
-40.64
-46.37
-50.5
-51.75
-49.12
-42.21
-31.44
-18.01
-3.62
10.01
21.5
30.07
35.52
38.04
38.01
35.86
32.01
26.99
21.43
16.04
11.49
8.3
6.65
6.42
7.21
8.53
9.88
10.87
11.21
10.66
9.04
6.27
2.45
-2.13
-7.07
-11.99
-16.68
-21.17
-25.75
-30.82
-36.68
-43.33
-50.25
-56.37
-60.19
-60.21
-55.4
-45.61
-31.77
-15.65
0.63
15.16
26.68
34.72
39.46
41.42
41.26
39.54
36.73
33.24
29.41
25.6
22.13
19.27
17.17
15.91
15.45
15.65
16.27
16.96
17.32
16.95
15.53
12.9
9.1
4.35
-1.0
-6.59
-12.1
-17.34
-22.29
-27.12
-32.16
-37.74
-43.96
-50.47
-56.27
-59.91
-59.86
-55.06
-45.46
-32.08
-16.77
-1.59
11.82
22.63
30.76
36.56
40.4
42.42
42.66
41.2
38.4
34.88
31.36
28.43
26.36
25.1
24.38
23.94
23.62
23.4
23.31
23.28
23.02
22.07
19.94
16.27
11.1
4.86
-1.72
-7.91
-13.26
-17.76
-21.78
-25.91
-30.65
-36.28
-42.69
-49.36
-55.36
-59.5
-60.52
-57.43
-49.88
-38.36
-24.16
-9.05
5.22
17.4
26.86
33.66
38.16
40.73
41.57
40.78
38.48
35.03
31.09
27.42
24.73
23.3
23.02
23.4
23.87
23.99
23.64
22.92
22.05
21.12
20.0
18.36
15.79
12.01
6.99
1.06
-5.22
-11.24
-16.54
-20.96
-24.66
-27.99
-31.4
-35.28
-39.86
-45.16
-50.81
-56.0
-59.56
-60.18
-56.82
-49.14
-37.65
-23.66
-8.87
5.07
16.91
26.01
32.23
35.78
37.04
36.43
34.39
31.4
27.98
24.66
21.9
20.02
19.11
18.97
19.26
19.61
19.77
19.7
19.45
19.08
18.48
17.34
15.3
12.12
7.81
2.71
-2.68
-7.87
-12.56
-16.65
-20.23
-23.55
-26.88
-30.55
-34.79
-39.56
-44.44
-48.56
-50.71
-49.73
-44.9
-36.24
-24.62
-11.47
1.6
13.21
22.48
29.08
33.01
34.52
33.84
31.25
27.15
22.11
16.9
12.3
8.96
7.14
6.72
7.3
8.44
9.75
11.02
12.06
12.67
12.51
11.18
8.44
4.29
-0.9
-6.56
-12.09
-17.09
-21.54
-25.72
-30.13
-35.21
-41.16
-47.75
-54.3
-59.76
-62.86
-62.46
-57.83
-48.93
-36.52
-21.97
-7.0
6.8
18.29
26.94
32.74
36.04
37.29
36.91
35.26
32.66
29.43
25.89
22.37
19.22
16.73
15.13
14.54
14.89
15.87
17.02
17.81
17.76
16.54
14.01
10.28
5.58
0.29
-5.2
-10.53
-15.51
-20.18
-24.85
-29.95
-35.83
-42.51
-49.47
-55.63
-59.48
-59.59
-55.02
-45.74
-32.65
-17.43
-1.98
11.99
23.34
31.64
36.97
39.77
40.53
39.74
37.79
35.0
31.72
28.31
25.08
22.31
20.1
18.42
17.19
16.31
15.79
15.64
15.86
16.2
16.23
15.39
13.23
9.56
4.59
-1.14
-6.99
-12.43
-17.28
-21.66
-26.03
-30.9
-36.66
-43.29
-50.22
-56.31
-60.1
-60.17
-55.64
-46.49
-33.65
-18.72
-3.53
10.36
21.93
30.74
36.78
40.22
41.33
40.42
37.92
34.39
30.48
26.8
23.82
21.78
20.7
20.41
20.61
21.01
21.37
21.53
21.46
21.11
20.42
19.16
17.05
13.79
9.27
3.69
-2.48
-8.59
-14.06
-18.6
-22.32
-25.7
-29.39
-33.92
-39.52
-45.9
-52.24
-57.36
-59.95
-58.94
-53.79
-44.69
-32.48
-18.54
-4.4
8.55
19.33
27.43
32.79
35.61
36.29
35.24
32.91
29.75
26.2
22.72
19.69
17.41
15.98
15.38
15.45
15.99
16.79
17.65
18.32
18.51
17.88
16.15
13.18
9.08
4.21
-0.95
-5.96
-10.58
-14.84
-18.97
-23.34
-28.22
-33.67
-39.42
-44.72
-48.5
-49.53
-46.8
-39.89
-29.24
-16.07
-2.09
10.98
21.85
29.79
34.72
36.86
36.63
34.43
30.66
25.76
20.3
14.92
10.26
6.84
4.93
4.52
5.36
6.99
8.89
10.55
11.49
11.35
9.9
7.13
3.17
-1.62
-6.85
-12.14
-17.25
-22.12
-26.91
-31.89
-37.33
-43.35
-49.6
-55.25
-58.97
-59.3
-55.12
-46.17
-33.19
-17.83
-2.16
11.99
23.43
31.75
37.18
40.23
41.41
41.1
39.55
37.04
33.88
30.49
27.33
24.75
23.0
22.15
22.11
22.72
23.69
24.67
25.24
24.97
23.53
20.79
16.89
12.2
7.21
2.34
-2.14
-6.22
-10.13
-14.25
-18.95
-24.39
-30.38
-36.21
-40.78
-42.87
-41.53
-36.52
-28.43
-18.53
-8.33
0.85
8.24
13.58
16.98
18.63
18.7
17.29
14.6
10.97
6.95
3.13
0.01
-2.14
-3.27
-3.48
-2.93
-1.72
0.07
2.33
4.85
7.25
9.03
9.69
8.84
6.37
2.52
-2.21
-7.16
-11.79
-15.77
-19.16
-22.35
-25.92
-30.43
-36.15
-42.8
-49.51
-54.84
-57.18
-55.24
-48.42
-37.14
-22.68
-6.88
8.41
21.74
32.28
39.8
44.51
46.82
47.14
45.89
43.44
40.21
36.67
33.3
30.48
28.44
27.2
26.57
26.31
26.16
25.98
25.67
25.15
24.29
22.91
20.78
17.71
13.64
8.66
3.08
-2.72
-8.32
-13.44
-18.02
-22.19
-26.26
-30.59
-35.5
-41.11
-47.23
-53.22
-58.04
-60.41
-59.16
-53.63
-43.97
-31.16
-16.72
-2.34
10.61
21.26
29.28
34.68
37.67
38.53
37.59
35.24
31.95
28.28
24.81
22.05
20.32
19.7
20.01
20.83
21.75
22.4
22.63
22.45
21.88
20.87
19.2
16.59
12.82
7.96
2.37
-3.36
-8.65
-13.13
-16.81
-20.06
-23.43
-27.48
-32.55
-38.63
-45.28
-51.6
-56.32
-58.02
-55.57
-48.45
-37.08
-22.81
-7.51
6.92
19.02
28.07
33.95
36.96
37.5
35.98
32.85
28.66
24.1
19.92
16.75
14.93
14.49
15.16
16.49
18.03
19.37
20.19
20.28
19.45
17.59
14.63
10.64
5.82
0.45
-5.15
-10.69
-15.99
-21.02
-25.9
-30.92
-36.35
-42.32
-48.53
-54.16
-58.0
-58.65
-55.09
-46.99
-35.0
-20.5
-5.32
8.84
20.68
29.54
35.29
38.17
38.58
36.94
33.69
29.27
24.23
19.17
14.73
11.46
9.71
9.46
10.39
11.92
13.39
14.27
14.29
13.42
11.8
9.56
6.77
3.37
-0.71
-5.51
-11.0
-17.12
-23.8
-30.89
-38.01
-44.38
-48.83
-50.1
-47.21
-39.94
-28.91
-15.52
-1.52
11.43
22.17
30.15
35.3
37.88
38.21
36.6
33.34
28.71
23.17
17.34
11.95
7.73
5.2
4.47
5.26
6.92
8.67
9.84
10.03
9.2
7.56
5.38
2.86
0.0
-3.36
-7.42
-12.32
-18.06
-24.54
-31.54
-38.66
-45.19
-50.09
-52.08
-50.03
-43.37
-32.45
-18.52
-3.44
10.88
22.98
32.07
38.04
41.21
42.01
40.77
37.76
33.23
27.6
21.53
15.84
11.31
8.45
7.32
7.63
8.79
10.11
11.03
11.19
10.44
8.82
6.47
3.57
0.27
-3.37
-7.36
-11.79
-16.8
-22.48
-28.81
-35.49
-41.84
-46.8
-49.08
-47.53
-41.57
-31.45
-18.32
-3.91
9.95
21.79
30.8
36.76
39.86
40.4
38.65
34.85
29.36
22.73
15.8
9.53
4.77
2.0
1.21
1.9
3.31
4.65
5.35
5.17
4.13
2.41
0.2
-2.39
-5.36
-8.8
-12.88
-17.79
-23.67
-30.5
-37.88
-44.98
-50.56
-53.18
-51.66
-45.48
-35.03
-21.64
-7.17
6.47
17.82
26.1
31.22
33.48
33.33
31.14
27.23
22.0
15.99
9.95
4.7
0.9
-1.14
-1.57
-0.87
0.25
1.16
1.4
0.77
-0.67
-2.77
-5.35
-8.34
-11.75
-15.7
-20.34
-25.8
-32.09
-39.09
-46.37
-53.14
-58.25
-60.33
-58.2
-51.19
-39.54
-24.44
-7.75
8.47
22.51
33.34
40.67
44.75
46.1
45.33
42.94
39.38
35.09
30.5
26.1
22.32
19.53
17.88
17.31
17.55
18.17
18.72
18.75
17.95
16.11
13.17
9.28
4.66
-0.36
-5.51
-10.67
-15.93
-21.54
-27.81
-34.92
-42.65
-50.24
-56.37
-59.46
-58.07
-51.47
-39.98
-24.96
-8.43
7.55
21.4
32.29
40.05
44.9
47.17
47.22
45.46
42.34
38.44
34.29
30.35
26.9
24.06
21.89
20.44
19.72
19.68
20.17
20.86
21.26
20.84
19.12
15.85
11.08
5.18
-1.28
-7.68
-13.54
-18.69
-23.35
-27.97
-33.13
-39.18
-46.08
-53.2
-59.34
-62.99
-62.74
-57.7
-47.85
-34.11
-18.1
-1.75
13.24
25.7
35.11
41.5
45.17
46.47
45.7
43.12
39.11
34.19
29.04
24.37
20.71
18.31
17.13
16.9
17.27
17.94
18.72
19.46
19.97
19.93
18.89
16.44
12.38
6.87
0.43
-6.15
-12.14
-17.11
-21.05
-24.37
-27.74
-31.83
-37.06
-43.36
-50.04
-55.87
-59.29
-58.86
-53.71
-43.86
-30.3
-14.7
1.03
15.22
26.77
35.22
40.57
43.08
43.14
41.2
37.78
33.49
28.95
24.66
20.98
18.05
15.86
14.35
13.5
13.29
13.65
14.38
15.11
15.34
14.64
12.77
9.71
5.7
1.03
-4.01
-9.2
-14.43
-19.62
-24.78
-29.96
-35.24
-40.61
-45.71
-49.78
-51.67
-50.19
-44.51
-34.66
-21.57
-6.83
7.7
20.5
30.59
37.56
41.4
42.24
40.34
36.08
30.08
23.21
16.41
10.55
6.17
3.42
2.15
2.02
2.68
3.84
5.21
6.39
6.91
6.31
4.24
0.71
-3.99
-9.27
-14.57
-19.51
-24.03
-28.37
-32.92
-38.08
-44.07
-50.8
-57.75
-63.91
-67.85
-68.08
-63.48
-53.73
-39.6
-22.75
-5.27
10.87
24.35
34.55
41.51
45.56
47.15
46.66
44.53
41.19
37.21
33.18
29.59
26.8
24.92
23.88
23.46
23.48
23.8
24.38
25.1
25.71
25.78
24.74
22.12
17.77
11.98
5.38
-1.23
-7.23
-12.39
-16.93
-21.4
-26.44
-32.52
-39.68
-47.39
-54.56
-59.74
-61.46
-58.67
-51.09
-39.34
-24.81
-9.25
5.68
18.7
29.09
36.57
41.18
43.13
42.78
40.6
37.18
33.13
29.02
25.29
22.25
20.05
18.68
18.06
18.02
18.39
19.06
19.9
20.73
21.21
20.84
19.1
15.62
10.44
4.04
-2.77
-9.16
-14.62
-19.17
-23.26
-27.58
-32.76
-39.03
-46.11
-53.2
-59.07
-62.32
-61.69
-56.47
-46.69
-33.26
-17.71
-1.86
12.69
24.82
34.04
40.36
43.97
45.15
44.13
41.22
36.9
31.87
26.94
22.84
19.98
18.42
17.91
18.08
18.58
19.21
19.89
20.49
20.77
20.38
18.94
16.18
12.05
6.8
0.9
-5.11
-10.74
-15.69
-19.96
-23.86
-27.88
-32.56
-38.28
-44.95
-51.93
-58.02
-61.76
-61.79
-57.27
-48.26
-35.66
-21.06
-6.22
7.3
18.45
26.79
32.3
35.2
35.81
34.45
31.51
27.49
22.95
18.51
14.71
11.95
10.44
10.2
11.05
12.68
14.68
16.58
17.93
18.32
17.49
15.31
11.85
7.37
2.24
-3.09
-8.23
-12.99
-17.39
-21.74
-26.47
-31.9
-38.03
-44.29
-49.57
-52.4
-51.43
-45.89
-35.96
-22.78
-8.13
6.1
18.42
28.01
34.66
38.51
39.79
38.68
35.34
30.09
23.54
16.51
9.96
4.69
1.19
-0.46
-0.53
0.48
2.01
3.51
4.56
4.82
4.07
2.21
-0.71
-4.5
-8.88
-13.57
-18.34
-23.15
-28.14
-33.6
-39.77
-46.62
-53.62
-59.65
-63.21
-62.8
-57.52
-47.38
-33.41
-17.38
-1.26
13.25
25.06
33.69
39.14
41.71
41.82
39.94
36.6
32.36
27.78
23.39
19.63
16.82
15.11
14.47
14.74
15.66
16.89
18.09
18.88
18.89
17.83
15.5
11.91
7.28
1.92
-3.77
-9.45
-15.0
-20.47
-26.15
-32.34
-39.16
-46.3
-52.9
-57.64
-59.03
-55.96
-48.09
-36.08
-21.4
-5.91
8.67
21.2
31.11
38.39
43.21
45.76
46.15
44.52
41.2
36.77
31.96
27.54
24.06
21.75
20.56
20.19
20.37
20.88
21.59
22.38
23.06
23.27
22.52
20.37
16.6
11.36
5.16
-1.31
-7.38
-12.67
-17.22
-21.41
-25.8
-30.95
-37.14
-44.24
-51.65
-58.19
-62.43
-62.96
-58.82
-49.9
-36.99
-21.68
-5.84
8.83
21.15
30.6
37.14
41.02
42.54
42.06
39.94
36.65
32.76
28.86
25.52
23.12
21.83
21.55
22.02
22.84
23.67
24.24
24.46
24.29
23.73
22.64
20.76
17.8
13.62
8.34
2.37
-3.73
-9.47
-14.62
-19.29
-23.79
-28.52
-33.75
-39.65
-46.12
-52.79
-58.93
-63.43
-64.98
-62.49
-55.45
-44.23
-30.06
-14.7
0.12
13.09
23.55
31.34
36.61
39.55
40.3
39.01
36.0
31.83
27.24
23.03
19.86
18.07
17.65
18.3
19.57
21.04
22.42
23.57
24.39
24.74
24.36
22.92
20.14
15.97
10.61
4.56
-1.59
-7.31
-12.35
-16.71
-20.66
-24.64
-29.12
-34.48
-40.8
-47.73
-54.44
-59.68
-62.05
-60.42
-54.31
-44.06
-30.79
-16.09
-1.61
11.34
21.92
29.85
35.15
37.97
38.49
36.9
33.54
28.96
23.92
19.3
15.81
13.78
13.15
13.55
14.55
15.83
17.2
18.56
19.68
20.2
19.66
17.69
14.19
9.41
3.86
-1.81
-7.09
-11.71
-15.77
-19.64
-23.87
-28.93
-34.99
-41.77
-48.38
-53.55
-55.8
-53.97
-47.55
-36.94
-23.37
-8.59
5.64
17.92
27.47
34.08
37.89
39.18
38.24
35.37
30.92
25.39
19.44
13.76
9.01
5.64
3.87
3.61
4.53
6.11
7.77
8.97
9.27
8.4
6.27
3.0
-1.12
-5.73
-10.51
-15.25
-19.96
-24.85
-30.26
-36.53
-43.73
-51.54
-59.04
-64.84
-67.36
-65.26
-57.96
-45.9
-30.49
-13.75
2.29
16.05
26.72
34.19
38.84
41.19
41.7
40.65
38.28
34.83
30.72
26.45
22.57
19.52
17.53
16.62
16.63
17.35
18.54
19.9
21.02
21.35
20.37
17.74
13.5
8.1
2.19
-3.6
-8.95
-13.91
-18.88
-24.38
-30.81
-38.23
-46.13
-53.49
-58.85
-60.7
-57.88
-50.02
-37.76
-22.63
-6.62
8.4
21.08
30.84
37.65
41.78
43.51
43.13
40.94
37.41
33.18
28.92
25.18
22.2
19.94
18.22
16.91
16.03
15.73
16.16
17.27
18.62
19.52
19.2
17.07
13.05
7.56
1.34
-4.79
-10.3
-15.1
-19.44
-23.79
-28.62
-34.18
-40.5
-47.21
-53.52
-58.28
-60.16
-58.03
-51.4
-40.63
-26.94
-12.03
2.42
15.14
25.5
33.37
38.95
42.4
43.81
43.2
40.7
36.73
32.01
27.46
23.9
21.82
21.21
21.68
22.65
23.64
24.39
24.9
25.2
25.24
24.79
23.47
20.9
16.92
11.65
5.54
-0.78
-6.7
-11.85
-16.23
-20.14
-24.06
-28.5
-33.8
-40.02
-46.81
-53.43
-58.7
-61.29
-60.03
-54.32
-44.41
-31.4
-16.95
-2.78
9.76
19.84
27.17
31.8
33.95
33.92
32.12
29.06
25.36
21.6
18.28
15.77
14.27
13.82
14.36
15.7
17.54
19.55
21.36
22.63
23.05
22.4
20.51
17.37
13.14
8.16
2.9
-2.16
-6.73
-10.83
-14.79
-19.18
-24.54
-31.12
-38.71
-46.51
-53.2
-57.22
-57.17
-52.26
-42.61
-29.28
-14.05
1.11
14.53
25.19
32.79
37.52
39.74
39.75
37.76
34.0
28.93
23.24
17.78
13.31
10.27
8.72
8.42
8.99
10.08
11.45
12.86
14.06
14.61
14.05
11.97
8.24
3.06
-3.04
-9.38
-15.3
-20.44
-24.78
-28.69
-32.77
-37.65
-43.72
-50.8
-58.12
-64.3
-67.73
-67.0
-61.39
-51.11
-37.25
-21.49
-5.61
8.92
21.16
30.67
37.38
41.38
42.83
41.95
39.16
35.07
30.42
25.99
22.38
19.88
18.5
18.04
18.19
18.73
19.44
20.16
20.68
20.71
19.9
17.88
14.47
9.66
3.76
-2.69
-9.1
-14.98
-20.1
-24.57
-28.74
-33.09
-38.07
-43.88
-50.35
-56.74
-61.84
-64.21
-62.6
-56.37
-45.87
-32.26
-17.23
-2.41
11.0
22.36
31.5
38.43
43.16
45.66
46.0
44.4
41.3
37.33
33.19
29.49
26.64
24.81
23.91
23.7
23.86
24.15
24.4
24.56
24.55
24.19
23.2
21.23
17.98
13.4
7.69
1.34
-5.01
-10.82
-15.82
-20.04
-23.82
-27.61
-31.87
-36.9
-42.77
-49.2
-55.53
-60.66
-63.27
-62.12
-56.46
-46.36
-32.79
-17.39
-1.97
11.96
23.47
32.25
38.4
42.16
43.73
43.28
41.05
37.45
33.05
28.57
24.67
21.81
20.23
19.91
20.62
21.99
23.62
25.1
26.13
26.51
26.17
25.06
23.14
20.34
16.62
12.06
6.88
1.4
-4.05
-9.3
-14.3
-19.14
-23.94
-28.8
-33.79
-38.98
-44.46
-50.25
-56.1
-61.32
-64.81
-65.27
-61.62
-53.5
-41.44
-26.83
-11.47
2.97
15.35
25.2
32.52
37.55
40.43
41.24
40.04
37.1
32.95
28.35
24.13
20.96
19.24
18.97
19.87
21.45
23.21
24.76
25.89
26.5
26.55
25.99
24.66
22.38
19.05
14.67
9.44
3.67
-2.26
-8.06
-13.46
-18.34
-22.69
-26.58
-30.23
-33.91
-37.94
-42.57
-47.76
-53.02
-57.4
-59.65
-58.56
-53.38
-44.18
-31.84
-17.81
-3.71
9.15
19.93
28.27
34.14
37.55
38.56
37.29
34.09
29.54
24.46
19.71
16.0
13.68
12.73
12.87
13.69
14.81
15.99
17.11
18.01
18.42
17.99
16.32
13.17
8.61
3.04
-2.94
-8.74
-14.07
-18.94
-23.69
-28.71
-34.36
-40.75
-47.76
-54.96
-61.61
-66.72
-69.12
-67.8
-62.22
-52.56
-39.79
-25.36
-10.89
2.31
13.37
21.89
27.71
30.8
31.2
29.11
24.96
19.45
13.43
7.73
2.94
-0.68
-3.16
-4.75
-5.72
-6.31
-6.61
-6.63
-6.44
-6.22
-6.31
-7.18
-9.22
-12.62
-17.24
-22.66
-28.26
-33.5
-38.06
-41.92
-45.39
-48.97
-53.13
-58.12
-63.71
-69.09
-72.91
-73.64
-69.97
-61.31
-48.05
-31.48
-13.47
4.12
19.87
32.97
43.21
50.69
55.6
58.08
58.26
56.36
52.79
48.14
43.1
38.27
34.13
30.96
28.94
28.21
28.94
31.26
35.16
40.39
46.36
52.18
56.88
59.63
59.99
57.95
53.93
48.49
42.23
35.65
29.07
22.67
16.5
10.44
4.32
-1.96
-8.29
-14.11
-18.54
-20.5
-19.12
-14.04
-5.57
5.35
17.48
29.6
40.8
50.51
58.5
64.67
68.92
71.08
70.98
68.55
63.91
57.4
49.56
41.03
32.54
24.8
18.45
13.91
11.27
10.26
10.24
10.41
9.99
8.41
5.39
0.94
-4.64
-10.89
-17.31
-23.49
-29.19
-34.5
-39.7
-45.21
-51.34
-58.14
-65.25
-71.87
-76.82
-78.76
-76.5
-69.38
-57.57
-42.08
-24.6
-7.0
9.07
22.59
33.13
40.73
45.6
48.0
48.11
46.17
42.54
37.72
32.35
27.09
22.53
19.04
16.74
15.42
14.7
14.1
13.22
11.77
9.56
6.49
2.56
-2.14
-7.35
-12.72
-17.95
-22.99
-28.12
-33.88
-40.76
-48.87
-57.64
-65.79
-71.59
-73.36
-70.01
-61.43
-48.55
-33.15
-17.34
-2.99
8.67
17.14
22.5
25.07
25.16
23.06
19.11
13.87
8.18
3.03
-0.74
-2.6
-2.48
-0.72
2.13
5.38
8.48
11.02
12.83
13.84
14.07
13.51
12.05
9.54
5.83
0.8
-5.45
-12.61
-19.97
-26.43
-30.53
-30.81
-26.15
-16.18
-1.51
16.43
35.8
54.82
72.22
87.32
99.92
109.97
117.45
122.26
124.37
123.97
121.58
117.96
113.95
110.25
107.23
104.95
103.25
102.03
101.31
101.19
101.68
102.47
102.84
101.8
98.31
91.48
80.65
65.35
45.34
20.89
-6.93
-36.02
-63.47
-86.23
-101.97
-109.79
-110.37
-105.44
-97.01
-86.73
-75.61
-64.26
-53.24
-43.37
-35.59
-30.67
-28.81
-29.49
-31.65
-34.01
-35.57
-35.89
-35.08
-33.62
-31.97
-30.36
-28.68
-26.63
-23.93
-20.53
-16.66
-12.74
-9.14
-6.17
-3.97
-2.69
-2.56
-3.87
-6.73
-10.78
-15.05
-18.05
-18.21
-14.46
-6.67
4.26
16.74
29.06
39.9
48.64
55.3
60.24
63.83
66.3
67.71
68.13
67.74
66.91
66.09
65.71
66.1
67.37
69.41
71.76
73.5
73.2
69.13
59.68
43.9
21.92
-4.96
-34.76
-65.34
-95.11
-123.26
-149.75
-174.94
-199.2
-222.73
-245.55
-267.56
-288.53
-307.89
-324.58
-337.06
-343.61
-342.88
-334.39
-318.78
-297.57
-272.61
-245.5
-217.21
-188.22
-158.78
-129.31
-100.57
-73.58
-49.38
-28.74
-11.75
2.45
15.84
31.11
50.93
76.96
109.11
145.6
183.59
220.28
253.83
283.64
309.91
332.96
352.71
368.51
379.35
383.98
381.02
369.11
347.2
315.25
274.73
228.57
180.56
134.3
92.26
55.42
23.56
-4.07
-28.12
-48.9
-66.38
-80.59
-91.77
-100.5
-107.59
-113.82
-119.82
-125.86
-131.8
-137.31
-142.14
-146.46
-150.87
-156.16
-162.78
-170.63
-179.11
-187.6
-195.86
-204.18
-212.93
-221.97
-230.33
-236.55
-239.31
-238.06
-232.92
-224.1
-210.98
-191.9
-164.74
-128.25
-83.28
-33.18
17.01
62.13
98.52
124.92
142.4
153.57
161.57
169.26
178.71
190.8
205.12
219.96
232.68
240.24
240.02
230.39
211.19
183.71
150.26
113.68
76.68
41.41
9.18
-19.55
-44.93
-67.27
-86.64
-102.74
-115.18
-123.94
-129.75
-133.88
-137.52
-140.96
-143.23
-142.42
-136.47
-124.19
-105.81
-82.87
-57.61
-32.25
-8.54
12.39
29.89
43.77
54.29
62.08
67.98
72.79
76.85
79.86
80.92
78.72
72.05
60.26
43.58
23.31
1.49
-19.67
-38.62
-54.94
-69.3
-82.76
-95.77
-107.36
-115.27
-116.84
-110.41
-96.38
-77.28
-56.81
-38.39
-23.85
-13.19
-5.21
1.24
6.39
9.43
9.25
5.41
-1.23
-8.66
-14.5
-16.95
-15.43
-10.52
-3.57
3.92
10.77
16.32
20.29
22.67
23.53
22.96
21.11
18.23
14.65
10.74
6.76
2.77
-1.38
-5.93
-11.03
-16.67
-22.64
-28.66
-34.47
-39.97
-45.2
-50.27
-55.42
-60.95
-67.09
-73.71
-79.96
-84.18
-84.19
-77.99
-64.59
-44.6
-20.19
5.55
29.57
49.74
65.17
76.05
83.11
87.09
88.54
87.82
85.34
81.7
77.62
73.85
70.88
68.9
67.77
67.26
67.13
67.27
67.58
67.89
67.84
66.97
64.83
61.17
56.07
49.92
43.26
36.55
30.01
23.57
16.98
10.02
2.62
-5.04
-12.61
-19.75
-26.25
-32.12
-37.65
-43.3
-49.59
-56.83
-64.81
-72.65
-78.82
-81.51
-79.16
-71.05
-57.59
-40.15
-20.68
-1.14
16.86
32.26
44.49
53.35
58.82
61.13
60.68
58.14
54.33
50.16
46.44
43.72
42.18
41.73
42.03
42.69
43.39
43.97
44.37
44.57
44.43
43.7
42.04
39.11
34.79
29.21
22.77
16.01
9.4
3.23
-2.5
-7.99
-13.58
-19.57
-26.24
-33.69
-41.79
-50.04
-57.49
-62.87
-64.83
-62.37
-55.19
-43.83
-29.53
-13.85
1.7
15.94
28.04
37.47
43.88
47.16
47.46
45.29
41.49
36.97
32.52
28.69
25.68
23.56
22.29
21.9
22.4
23.73
25.7
27.89
29.83
31.0
31.04
29.74
27.14
23.51
19.25
14.71
10.15
5.53
0.63
-4.95
-11.51
-19.11
-27.37
-35.45
-42.15
-46.15
-46.35
-42.17
-33.66
-21.51
-6.84
9.0
24.66
38.95
50.95
60.03
65.89
68.51
68.14
65.18
60.17
53.72
46.52
39.28
32.66
27.21
23.21
20.73
19.57
19.33
19.53
19.6
18.99
17.26
14.16
9.71
4.18
-2.02
-8.42
-14.68
-20.62
-26.32
-32.06
-38.3
-45.45
-53.68
-62.66
-71.4
-78.44
-82.05
-80.85
-74.23
-62.58
-47.24
-30.03
-12.78
3.1
16.76
27.78
35.99
41.35
43.92
43.96
41.99
38.74
34.98
31.31
28.01
25.06
22.31
19.59
16.88
14.31
12.05
10.2
8.7
7.29
5.6
3.32
0.34
-3.16
-6.75
-9.98
-12.59
-14.7
-16.81
-19.61
-23.75
-29.55
-36.85
-44.92
-52.57
-58.25
-60.41
-57.84
-50.04
-37.52
-21.74
-4.78
11.24
24.67
34.71
41.35
45.11
46.58
46.16
43.92
39.77
33.76
26.25
18.01
10.07
3.4
-1.31
-3.8
-4.15
-2.6
0.64
5.42
11.56
18.59
25.7
31.81
35.82
37.0
35.06
30.17
22.72
13.09
1.6
-11.42
-25.49
-39.96
-54.08
-67.09
-78.31
-87.05
-92.48
-93.67
-89.82
-80.59
-66.44
-48.69
-29.2
-9.92
7.65
22.67
34.84
44.13
50.51
53.89
54.29
52.0
47.8
42.88
38.49
35.64
34.67
35.16
36.04
35.93
33.58
28.27
20.09
9.83
-1.23
-11.73
-20.66
-27.49
-32.26
-35.32
-37.18
-38.38
-39.47
-41.02
-43.57
-47.42
-52.34
-57.45
-61.23
-62.03
-58.58
-50.49
-38.44
-23.95
-8.92
4.93
16.47
25.26
31.37
35.17
37.01
37.12
35.59
32.54
28.29
23.41
18.68
14.85
12.46
11.58
11.86
12.65
13.28
13.26
12.36
10.66
8.36
5.77
3.09
0.43
-2.27
-5.19
-8.6
-12.81
-18.02
-24.35
-31.6
-39.22
-46.26
-51.46
-53.5
-51.37
-44.75
-34.15
-20.91
-6.8
6.44
17.48
25.68
31.06
34.07
35.32
35.37
34.59
33.18
31.26
29.02
26.7
24.6
22.96
21.92
21.42
21.25
21.14
20.79
19.96
18.43
16.08
12.83
8.71
3.88
-1.38
-6.77
-12.09
-17.32
-22.71
-28.56
-35.0
-41.71
-47.77
-51.86
-52.64
-49.27
-41.75
-30.98
-18.46
-5.78
5.8
15.59
23.36
29.13
32.98
34.99
35.29
34.15
31.97
29.25
26.43
23.86
21.78
20.25
19.24
18.63
18.25
17.89
17.36
16.49
15.14
13.2
10.64
7.54
4.03
0.34
-3.42
-7.21
-11.22
-15.75
-21.11
-27.52
-34.91
-42.78
-50.14
-55.68
-57.99
-56.1
-49.78
-39.72
-27.28
-14.09
-1.56
9.41
18.45
25.53
30.69
33.96
35.36
35.03
33.29
30.71
27.95
25.59
23.98
23.18
22.97
23.02
23.03
22.9
22.75
22.75
22.93
23.07
22.7
21.28
18.45
14.19
8.85
2.99
-2.83
-8.23
-13.08
-17.44
-21.53
-25.65
-30.09
-34.98
-40.12
-44.85
-48.08
-48.5
-45.05
-37.4
-26.16
-12.82
0.7
12.64
21.83
27.85
30.91
31.55
30.34
27.85
24.56
20.99
17.67
15.04
13.34
12.52
12.27
12.2
12.04
11.72
11.34
11.1
11.12
11.39
11.63
11.46
10.43
8.19
4.66
0.05
-5.18
-10.47
-15.3
-19.48
-23.13
-26.68
-30.63
-35.38
-41.01
-47.24
-53.33
-58.29
-61.07
-60.8
-56.99
-49.74
-39.67
-27.78
-15.27
-3.23
7.43
16.13
22.57
26.7
28.66
28.72
27.28
24.83
21.88
18.97
16.51
14.73
13.62
12.99
12.62
12.37
12.18
12.07
11.93
11.47
10.26
7.87
4.09
-0.94
-6.75
-12.7
-18.27
-23.15
-27.36
-31.26
-35.36
-40.18
-46.09
-53.01
-60.32
-66.77
-70.72
-70.51
-65.05
-54.2
-38.99
-21.31
-3.42
12.73
25.9
35.67
42.25
46.07
47.62
47.31
45.57
42.96
40.18
37.86
36.42
35.88
35.98
36.29
36.49
36.48
36.34
36.16
35.83
34.96
32.99
29.47
24.27
17.74
10.53
3.37
-3.26
-9.31
-15.15
-21.41
-28.69
-37.32
-47.05
-56.95
-65.36
-70.37
-70.24
-64.11
-52.32
-36.38
-18.54
-1.09
14.23
26.53
35.66
41.9
45.64
47.18
46.87
45.12
42.52
39.75
37.43
35.95
35.4
35.53
35.97
36.38
36.56
36.54
36.39
36.12
35.55
34.27
31.83
27.92
22.62
16.39
9.93
3.9
-1.36
-6.06
-10.74
-16.12
-22.78
-30.87
-40.03
-49.33
-57.38
-62.57
-63.39
-58.89
-49.01
-34.75
-17.9
-0.57
15.42
28.86
39.29
46.74
51.42
53.58
53.41
51.25
47.64
43.35
39.21
35.95
33.95
33.17
33.23
33.57
33.72
33.37
32.49
31.17
29.54
27.53
24.89
21.22
16.16
9.59
1.76
-6.75
-15.14
-22.7
-29.0
-34.03
-38.18
-42.09
-46.46
-51.82
-58.23
-65.22
-71.64
-75.95
-76.52
-72.24
-62.88
-49.26
-33.02
-16.06
-0.06
13.94
25.51
34.62
41.39
45.83
47.93
47.73
45.59
42.17
38.36
35.03
32.84
31.98
32.26
33.18
34.22
34.96
35.19
34.84
33.87
32.15
29.5
25.74
20.82
14.88
8.25
1.35
-5.35
-11.5
-16.95
-21.8
-26.34
-31.02
-36.32
-42.62
-50.07
-58.36
-66.58
-73.28
-76.73
-75.44
-68.7
-56.98
-41.8
-25.33
-9.64
3.83
14.52
22.52
28.19
31.76
33.28
32.75
30.38
26.79
22.86
19.45
17.15
16.02
15.8
16.05
16.49
17.05
17.75
18.59
19.27
19.3
18.12
15.38
11.13
5.79
0.04
-5.52
-10.53
-15.01
-19.35
-24.06
-29.66
-36.4
-44.1
-51.97
-58.74
-62.83
-62.85
-57.98
-48.31
-34.89
-19.39
-3.69
10.62
22.5
31.48
37.52
40.78
41.54
40.14
37.07
32.96
28.56
24.57
21.53
19.66
18.9
18.95
19.44
20.13
20.84
21.49
21.98
22.07
21.45
19.8
17.02
13.25
8.84
4.28
-0.08
-4.07
-7.84
-11.81
-16.57
-22.7
-30.49
-39.6
-48.9
-56.57
-60.62
-59.53
-52.86
-41.5
-27.27
-12.37
1.36
12.86
21.82
28.37
32.74
35.06
35.38
33.85
30.91
27.21
23.52
20.47
18.39
17.27
16.87
16.86
16.97
17.13
17.3
17.5
17.57
17.19
15.93
13.39
9.44
4.26
-1.63
-7.58
-13.04
-17.75
-21.85
-25.8
-30.22
-35.61
-42.2
-49.69
-57.21
-63.37
-66.54
-65.33
-59.05
-48.06
-33.72
-17.95
-2.69
10.65
21.38
29.44
35.07
38.49
39.83
39.17
36.73
33.08
29.01
25.4
22.86
21.6
21.38
21.71
22.09
22.31
22.4
22.59
23.0
23.49
23.55
22.54
19.89
15.45
9.54
2.82
-3.86
-9.86
-14.88
-19.04
-22.82
-26.84
-31.74
-37.91
-45.34
-53.41
-60.89
-66.09
-67.32
-63.4
-54.17
-40.64
-24.62
-8.24
6.69
19.04
28.36
34.65
38.15
39.1
37.83
34.84
30.81
26.56
22.84
20.15
18.65
18.14
18.25
18.57
18.83
18.94
18.95
18.94
18.85
18.4
17.2
14.86
11.22
6.46
1.06
-4.38
-9.41
-13.88
-18.01
-22.25
-27.11
-32.91
-39.65
-46.9
-53.79
-59.1
-61.5
-59.84
-53.59
-43.1
-29.59
-14.85
-0.76
11.21
20.27
26.28
29.53
30.44
29.47
27.01
23.52
19.54
15.65
12.39
10.13
9.04
9.01
9.78
10.99
12.26
13.27
13.74
13.42
12.1
9.66
6.12
1.74
-3.07
-7.89
-12.46
-16.87
-21.47
-26.73
-32.98
-40.26
-48.16
-55.8
-61.91
-65.0
-63.76
-57.43
-46.22
-31.35
-14.81
1.27
15.16
25.88
33.26
37.58
39.28
38.73
36.29
32.41
27.71
22.96
18.82
15.75
13.82
12.89
12.68
12.89
13.31
13.67
13.65
12.89
11.05
7.99
3.8
-1.17
-6.51
-11.85
-17.04
-22.14
-27.4
-33.13
-39.67
-47.19
-55.51
-63.94
-71.15
-75.41
-75.03
-69.04
-57.67
-42.35
-25.31
-8.84
5.38
16.57
24.67
29.95
32.62
32.81
30.71
26.87
22.3
18.19
15.55
14.85
15.89
18.03
20.49
22.71
24.46
25.76
26.66
27.06
26.66
25.04
21.93
17.32
11.57
5.33
-0.77
-6.27
-11.15
-15.75
-20.69
-26.61
-33.93
-42.56
-51.78
-60.21
-66.07
-67.66
-63.87
-54.66
-41.13
-25.22
-9.16
5.2
16.76
25.22
30.77
33.78
34.59
33.51
30.98
27.67
24.44
22.14
21.32
22.06
23.97
26.37
28.6
30.34
31.6
32.65
33.69
34.65
35.11
34.44
32.12
27.94
22.16
15.35
8.26
1.54
-4.46
-9.69
-14.43
-19.23
-24.67
-31.2
-38.83
-46.92
-54.16
-58.87
-59.44
-54.92
-45.35
-31.81
-16.08
-0.07
14.66
27.14
36.98
44.08
48.48
50.25
49.6
46.98
43.13
38.93
35.19
32.41
30.69
29.78
29.3
28.94
28.57
28.23
27.98
27.76
27.28
26.1
23.74
19.91
14.63
8.33
1.65
-4.7
-10.29
-15.08
-19.42
-23.86
-28.98
-35.14
-42.36
-50.2
-57.75
-63.7
-66.59
-65.17
-58.87
-48.05
-33.98
-18.55
-3.73
8.89
18.43
24.6
27.56
27.66
25.33
21.02
15.3
8.91
2.72
-2.45
-5.98
-7.61
-7.5
-6.09
-3.97
-1.72
0.23
1.5
1.77
0.75
-1.74
-5.59
-10.42
-15.64
-20.64
-25.03
-28.84
-32.45
-36.49
-41.55
-47.93
-55.4
-63.01
-69.17
-72.04
-69.99
-62.24
-49.15
-32.19
-13.48
4.87
21.26
34.87
45.55
53.53
59.13
62.6
64.18
64.13
62.8
60.61
58.0
55.34
52.97
51.15
50.04
49.71
50.09
50.99
52.07
52.94
53.19
52.44
50.5
47.38
43.27
38.53
33.5
28.33
22.81
16.3
7.91
-3.18
-17.17
-33.26
-49.68
-63.99
-73.86
-77.8
-75.54
-68.01
-56.91
-44.14
-31.33
-19.61
-9.64
-1.72
4.14
8.19
10.8
12.48
13.71
14.9
16.35
18.19
20.42
22.86
25.23
27.16
28.29
28.38
27.3
25.11
21.94
17.97
13.41
8.39
3.01
-2.72
-8.89
-15.68
-23.27
-31.7
-40.66
-49.33
-56.34
-60.1
-59.21
-53.0
-41.9
-27.31
-11.26
4.19
17.57
28.09
35.53
39.97
41.53
40.33
36.63
31.03
24.47
18.06
12.79
9.29
7.72
7.86
9.21
11.2
13.29
15.07
16.25
16.7
16.36
15.24
13.26
10.25
5.98
0.24
-7.05
-15.74
-25.39
-35.17
-43.9
-50.11
-52.4
-49.76
-42.03
-30.02
-15.38
-0.12
13.99
25.8
34.85
41.19
45.0
46.37
45.3
41.88
36.57
30.25
24.11
19.28
16.47
15.71
16.39
17.53
18.21
17.9
16.52
14.35
11.73
8.82
5.55
1.69
-2.96
-8.45
-14.68
-21.44
-28.47
-35.31
-41.22
-45.08
-45.58
-41.65
-32.9
-19.93
-4.28
12.0
26.9
38.97
47.53
52.61
54.64
54.19
51.78
47.88
42.92
37.36
31.66
26.28
21.54
17.62
14.5
12.03
10.01
8.26
6.7
5.24
3.8
2.23
0.28
-2.3
-5.65
-9.7
-14.17
-18.64
-22.8
-26.52
-29.91
-33.12
-35.98
-37.8
-37.38
-33.36
-24.84
-11.84
4.51
22.26
39.27
53.86
65.19
73.19
78.25
80.88
81.48
80.51
78.52
76.25
74.39
73.17
72.08
69.87
64.96
56.06
42.76
25.64
6.08
-14.36
-34.45
-53.57
-71.6
-88.6
-104.57
-119.36
-132.86
-145.17
-156.6
-167.29
-176.82
-183.9
-186.55
-182.67
-170.96
-151.55
-126.19
-97.79
-69.57
-44.16
-23.02
-6.47
5.89
14.67
20.26
22.83
22.51
19.74
15.46
10.98
7.69
6.49
7.61
10.44
13.92
16.94
18.75
19.2
18.64
17.59
16.41
15.17
13.58
11.26
7.85
3.18
-2.8
-9.93
-17.86
-25.84
-32.71
-36.94
-37.1
-32.28
-22.52
-8.89
6.73
22.27
35.96
46.73
54.26
58.75
60.6
60.18
57.73
53.48
47.77
41.16
34.43
28.42
23.81
20.89
19.53
19.23
19.34
19.23
18.51
17.01
14.73
11.75
8.11
3.87
-0.97
-6.32
-12.11
-18.31
-24.97
-32.15
-39.71
-47.1
-53.19
-56.45
-55.37
-49.04
-37.61
-22.4
-5.51
10.77
24.66
35.27
42.56
47.02
49.24
49.64
48.46
45.89
42.22
37.94
33.57
29.55
26.13
23.33
21.09
19.34
18.04
17.08
16.2
15.0
12.98
9.75
5.2
-0.46
-6.73
-13.07
-19.06
-24.57
-29.83
-35.33
-41.67
-49.21
-57.72
-66.19
-72.93
-76.0
-73.83
-65.88
-52.88
-36.67
-19.56
-3.6
9.95
20.82
29.42
36.41
42.28
47.16
50.89
53.24
54.09
53.49
51.71
49.06
45.9
42.56
39.32
36.44
34.14
32.57
31.8
31.78
32.25
32.68
32.26
30.17
25.75
18.84
9.92
-0.01
-9.78
-18.49
-25.72
-31.72
-37.16
-42.88
-49.64
-57.87
-67.46
-77.59
-86.79
-93.06
-94.5
-89.87
-79.1
-63.43
-45.03
-26.33
-9.3
4.88
15.89
23.88
29.16
31.96
32.52
31.2
28.63
25.7
23.26
21.9
21.79
22.66
24.0
25.34
26.44
27.3
28.06
28.74
29.09
28.61
26.68
22.93
17.39
10.54
3.22
-3.73
-9.74
-14.69
-18.94
-23.14
-28.08
-34.34
-42.1
-50.94
-59.75
-66.92
-70.62
-69.34
-62.39
-50.11
-33.82
-15.47
2.95
19.85
34.25
45.77
54.4
60.26
63.44
64.05
62.26
58.5
53.43
47.85
42.47
37.74
33.77
30.41
27.47
24.86
22.66
20.98
19.77
18.7
17.18
14.54
10.33
4.54
-2.39
-9.64
-16.38
-22.08
-26.7
-30.69
-34.87
-40.08
-46.83
-55.1
-64.08
-72.3
-77.9
-79.09
-74.75
-64.83
-50.44
-33.53
-16.3
-0.52
12.78
23.33
31.33
37.1
40.81
42.52
42.32
40.54
37.76
34.74
32.15
30.39
29.47
29.08
28.84
28.46
27.91
27.38
27.09
27.07
27.05
26.42
24.52
20.88
15.48
8.82
1.76
-4.8
-10.27
-14.61
-18.29
-22.12
-26.9
-33.09
-40.61
-48.78
-56.36
-61.83
-63.71
-60.94
-53.26
-41.27
-26.31
-10.12
5.64
19.65
31.13
39.72
45.33
48.03
48.04
45.73
41.74
36.9
32.06
27.94
24.92
23.01
21.9
21.2
20.6
20.02
19.56
19.34
19.33
19.2
18.42
16.47
13.06
8.34
2.83
-2.82
-8.05
-12.75
-17.16
-21.81
-27.22
-33.75
-41.43
-49.87
-58.21
-65.14
-69.13
-68.76
-63.2
-52.69
-38.46
-22.52
-6.94
6.68
17.51
25.46
30.81
33.89
34.94
34.13
31.73
28.2
24.11
20.07
16.5
13.65
11.55
10.14
9.32
9.02
9.1
9.39
9.59
9.35
8.31
6.24
3.08
-1.01
-5.71
-10.68
-15.69
-20.65
-25.71
-31.18
-37.49
-44.91
-53.3
-61.83
-69.01
-72.99
-72.19
-65.86
-54.48
-39.6
-23.34
-7.65
6.12
17.38
26.07
32.32
36.16
37.58
36.65
33.75
29.56
24.94
20.72
17.47
15.42
14.55
14.61
15.3
16.22
16.95
17.03
16.1
13.99
10.8
6.85
2.52
-1.93
-6.46
-11.28
-16.74
-23.21
-30.86
-39.49
-48.33
-56.04
-60.92
-61.32
-56.21
-45.68
-31.02
-14.37
1.9
15.92
26.77
34.44
39.5
42.61
44.12
44.08
42.39
39.13
34.73
29.89
25.47
22.13
20.13
19.37
19.42
19.71
19.72
19.07
17.57
15.21
12.11
8.42
4.3
-0.18
-5.04
-10.35
-16.22
-22.8
-30.22
-38.48
-47.25
-55.66
-62.23
-65.24
-63.21
-55.57
-42.93
-27.02
-10.13
5.55
18.55
28.3
34.96
39.06
41.14
41.55
40.47
38.07
34.64
30.6
26.53
22.97
20.28
18.59
17.74
17.37
17.07
16.5
15.44
13.79
11.48
8.49
4.77
0.33
-4.76
-10.37
-16.36
-22.65
-29.35
-36.62
-44.5
-52.61
-59.99
-65.18
-66.63
-63.25
-54.87
-42.35
-27.38
-11.9
2.37
14.37
23.72
30.52
35.09
37.71
38.56
37.75
35.48
32.12
28.23
24.45
21.37
19.33
18.47
18.61
19.44
20.56
21.54
22.0
21.62
20.24
17.83
14.51
10.51
6.02
1.2
-3.95
-9.49
-15.61
-22.49
-30.18
-38.4
-46.36
-52.79
-56.19
-55.24
-49.37
-38.98
-25.4
-10.47
4.01
16.71
26.95
34.58
39.74
42.62
43.35
42.14
39.27
35.23
30.7
26.4
22.96
20.81
19.99
20.28
21.2
22.2
22.8
22.66
21.59
19.58
16.69
13.1
9.02
4.64
0.11
-4.51
-9.34
-14.63
-20.73
-27.89
-36.07
-44.64
-52.33
-57.46
-58.46
-54.39
-45.43
-32.83
-18.54
-4.55
7.66
17.38
24.54
29.33
31.93
32.42
30.83
27.33
22.41
16.84
11.5
7.23
4.59
3.74
4.42
6.04
7.88
9.23
9.66
9.0
7.38
5.04
2.2
-1.05
-4.73
-8.97
-13.86
-19.47
-25.89
-33.18
-41.26
-49.64
-57.29
-62.66
-64.06
-60.28
-51.11
-37.56
-21.55
-5.26
9.46
21.55
30.67
36.95
40.66
42.04
41.32
38.82
35.04
30.53
25.94
21.81
18.6
16.59
15.86
16.24
17.28
18.37
18.89
18.36
16.62
13.75
10.05
5.85
1.39
-3.26
-8.14
-13.4
-19.24
-25.84
-33.34
-41.68
-50.42
-58.57
-64.68
-67.11
-64.54
-56.51
-43.71
-27.81
-11.03
4.58
17.62
27.55
34.52
38.98
41.38
42.03
41.15
39.01
35.99
32.57
29.22
26.31
24.02
22.39
21.38
20.93
20.9
21.08
21.07
20.4
18.59
15.38
10.81
5.29
-0.55
-6.09
-10.91
-15.0
-18.72
-22.71
-27.66
-34.01
-41.66
-49.89
-57.27
-62.05
-62.6
-57.94
-48.13
-34.31
-18.35
-2.31
12.16
24.13
33.31
39.87
44.11
46.22
46.41
44.91
42.21
38.95
35.8
33.29
31.59
30.6
30.06
29.75
29.64
29.82
30.36
31.13
31.73
31.57
30.04
26.8
21.92
15.89
9.43
3.24
-2.25
-7.06
-11.55
-16.28
-21.85
-28.56
-36.38
-44.7
-52.42
-58.05
-60.12
-57.58
-50.23
-38.82
-24.87
-10.22
3.48
15.09
24.09
30.41
34.23
35.78
35.3
33.16
29.84
25.95
22.16
19.01
16.78
15.5
14.98
15.0
15.38
16.04
16.91
17.78
18.25
17.82
16.07
12.85
8.41
3.3
-1.86
-6.63
-10.83
-14.65
-18.52
-22.96
-28.43
-35.12
-42.75
-50.46
-56.88
-60.38
-59.59
-53.82
-43.38
-29.54
-14.17
0.83
13.95
24.33
31.73
36.28
38.25
37.95
35.69
31.87
27.07
22.01
17.41
13.85
11.62
10.69
10.8
11.59
12.7
13.79
14.52
14.53
13.48
11.13
7.48
2.8
-2.41
-7.62
-12.5
-17.04
-21.57
-26.66
-32.86
-40.43
-49.08
-57.8
-65.0
-68.83
-67.78
-61.21
-49.62
-34.56
-18.12
-2.33
11.34
22.17
30.08
35.39
38.46
39.61
39.05
37.01
33.84
30.01
26.09
22.63
20.01
18.39
17.69
17.69
18.09
18.63
19.03
18.97
18.07
16.0
12.56
7.82
2.13
-3.96
-9.93
-15.47
-20.58
-25.62
-31.13
-37.62
-45.29
-53.73
-61.9
-68.17
-70.79
-68.42
-60.63
-48.08
-32.42
-15.78
-0.14
13.13
23.44
30.84
35.71
38.43
39.33
38.63
36.61
33.71
30.48
27.46
25.05
23.38
22.37
21.83
21.62
21.69
22.02
22.46
22.67
22.13
20.35
17.08
12.48
7.04
1.37
-4.07
-9.14
-14.02
-19.12
-24.91
-31.7
-39.54
-48.04
-56.29
-62.9
-66.25
-64.96
-58.38
-46.93
-32.02
-15.66
0.11
13.78
24.58
32.41
37.55
40.39
41.23
40.31
37.97
34.72
31.19
28.01
25.6
24.13
23.44
23.23
23.24
23.39
23.72
24.29
24.99
25.4
24.91
22.91
19.11
13.65
7.18
0.55
-5.46
-10.5
-14.7
-18.6
-22.94
-28.34
-35.1
-43.04
-51.45
-59.07
-64.34
-65.76
-62.33
-53.91
-41.36
-26.3
-10.64
3.97
16.42
26.23
33.32
37.8
39.79
39.54
37.42
34.04
30.15
26.46
23.46
21.37
20.12
19.5
19.3
19.39
19.72
20.26
20.83
21.09
20.56
18.79
15.51
10.8
5.07
-1.08
-7.04
-12.4
-17.06
-21.23
-25.36
-29.98
-35.51
-42.0
-48.94
-55.19
-59.21
-59.47
-55.0
-45.83
-33.02
-18.33
-3.7
9.29
19.75
27.44
32.5
35.16
35.58
33.93
30.48
25.8
20.74
16.23
13.0
11.37
11.18
11.94
13.09
14.19
15.02
15.48
15.46
14.73
13.0
10.08
5.99
1.05
-4.26
-9.54
-14.58
-19.46
-24.55
-30.32
-37.13
-44.97
-53.21
-60.54
-65.24
-65.67
-60.86
-50.92
-37.09
-21.34
-5.72
8.16
19.42
27.85
33.58
36.91
38.09
37.42
35.3
32.24
28.82
25.57
22.9
20.99
19.81
19.25
19.16
19.38
19.82
20.3
20.57
20.26
18.96
16.38
12.44
7.39
1.66
-4.19
-9.77
-14.91
-19.81
-24.92
-30.78
-37.8
-45.91
-54.44
-62.0
-66.85
-67.32
-62.47
-52.46
-38.58
-22.85
-7.36
6.34
17.52
26.16
32.59
37.07
39.66
40.28
39.0
36.23
32.71
29.32
26.75
25.28
24.74
24.71
24.72
24.55
24.27
24.13
24.34
24.8
25.02
24.29
21.95
17.73
11.94
5.31
-1.26
-7.1
-12.0
-16.28
-20.57
-25.58
-31.76
-39.18
-47.37
-55.37
-61.83
-65.24
-64.35
-58.54
-48.13
-34.36
-19.07
-4.15
8.96
19.59
27.73
33.72
37.89
40.32
40.96
39.79
37.1
33.52
29.93
27.14
25.61
25.35
26.0
27.01
27.96
28.62
28.99
29.19
29.18
28.8
27.69
25.48
21.98
17.25
11.65
5.64
-0.28
-5.82
-10.94
-15.78
-20.59
-25.59
-31.0
-36.96
-43.53
-50.55
-57.49
-63.32
-66.63
-66.01
-60.62
-50.58
-37.05
-21.91
-7.09
5.97
16.61
24.79
30.77
34.72
36.66
36.56
34.61
31.35
27.61
24.26
21.97
20.99
21.17
22.08
23.2
24.12
24.65
24.8
24.67
24.35
23.75
22.61
20.58
17.4
13.03
7.74
2.0
-3.67
-8.87
-13.44
-17.49
-21.28
-25.19
-29.6
-34.82
-40.96
-47.76
-54.45
-59.78
-62.29
-60.69
-54.43
-43.88
-30.33
-15.58
-1.39
10.98
20.91
28.29
33.26
35.95
36.48
34.98
31.84
27.68
23.32
19.53
16.9
15.63
15.59
16.38
17.5
18.58
19.39
19.9
20.12
19.93
19.09
17.24
14.13
9.76
4.54
-0.91
-5.97
-10.31
-14.02
-17.52
-21.41
-26.15
-31.95
-38.67
-45.81
-52.52
-57.69
-60.07
-58.59
-52.74
-42.79
-29.83
-15.49
-1.48
10.84
20.69
27.84
32.36
34.47
34.37
32.36
28.89
24.58
20.16
16.26
13.33
11.54
10.81
10.9
11.5
12.29
12.96
13.23
12.88
11.68
9.46
6.12
1.69
-3.61
-9.36
-15.08
-20.41
-25.32
-30.1
-35.31
-41.48
-48.84
-57.11
-65.36
-72.18
-76.0
-75.48
-69.95
-59.71
-45.97
-30.47
-15.06
-1.12
10.58
19.88
26.93
31.95
35.07
36.42
36.2
34.83
32.87
30.89
29.29
28.27
27.83
27.86
28.33
29.23
30.51
32.06
33.48
34.27
33.85
31.8
28.04
22.9
17.02
11.18
5.97
1.61
-2.16
-5.99
-10.74
-17.08
-25.27
-34.83
-44.51
-52.49
-56.83
-56.02
-49.51
-37.89
-22.71
-5.98
10.38
24.95
36.89
45.82
51.62
54.37
54.3
51.93
47.99
43.28
38.47
33.95
29.88
26.33
23.43
21.48
20.82
21.72
24.13
27.57
31.16
33.78
34.44
32.53
28.06
21.61
14.12
6.52
-0.61
-7.15
-13.38
-19.78
-26.78
-34.65
-43.33
-52.4
-60.97
-67.73
-71.16
-69.92
-63.4
-52.01
-37.18
-20.92
-5.2
8.58
19.77
28.39
34.68
38.88
41.06
41.24
39.6
36.61
32.97
29.41
26.54
24.67
23.84
23.87
24.51
25.49
26.57
27.52
28.08
27.98
26.93
24.76
21.41
17.03
11.9
6.38
0.74
-4.93
-10.76
-17.03
-24.01
-31.79
-40.08
-48.14
-54.91
-59.19
-59.96
-56.69
-49.48
-39.06
-26.62
-13.49
-0.89
10.3
19.55
26.64
31.53
34.32
35.17
34.35
32.25
29.35
26.11
22.87
19.8
16.88
13.97
11.0
7.95
4.91
1.9
-1.11
-4.26
-7.7
-11.53
-15.68
-19.98
-24.23
-28.35
-32.42
-36.73
-41.61
-47.2
-53.23
-58.96
-63.26
-64.96
-63.23
-57.96
-49.7
-39.57
-28.79
-18.37
-8.95
-0.84
5.76
10.69
13.78
14.98
14.43
12.52
9.81
6.94
4.45
2.72
1.83
1.62
1.65
1.43
0.5
-1.4
-4.21
-7.63
-11.28
-14.85
-18.28
-21.73
-25.53
-30.06
-35.68
-42.6
-50.75
-59.61
-67.99
-74.21
-76.39
-73.1
-63.92
-49.71
-32.38
-14.28
2.52
16.72
27.9
36.2
41.95
45.36
46.48
45.44
42.55
38.49
34.15
30.4
27.84
26.61
26.45
26.78
27.03
26.79
25.98
24.71
23.13
21.28
18.92
15.7
11.26
5.42
-1.78
-10.11
-19.29
-28.99
-38.78
-47.88
-55.13
-59.13
-58.63
-52.99
-42.55
-28.61
-13.02
2.34
16.05
27.38
36.19
42.66
46.96
49.16
49.31
47.54
44.19
39.77
34.92
30.19
25.98
22.51
19.85
18.0
16.87
16.26
15.92
15.46
14.51
12.76
10.09
6.51
2.19
-2.73
-8.12
-13.99
-20.41
-27.55
-35.42
-43.76
-51.8
-58.36
-61.94
-61.3
-55.76
-45.61
-32.0
-16.62
-1.26
12.65
24.27
33.24
39.58
43.46
45.16
45.02
43.47
41.0
38.12
35.24
32.67
30.54
28.94
27.87
27.35
27.29
27.49
27.62
27.23
25.89
23.35
19.57
14.78
9.34
3.66
-1.96
-7.39
-12.69
-18.11
-24.06
-30.94
-38.88
-47.51
-55.77
-62.13
-64.91
-62.94
-55.91
-44.55
-30.38
-15.17
-0.53
12.44
23.18
31.51
37.4
40.89
42.1
41.27
38.88
35.58
32.06
28.94
26.58
25.03
24.17
23.77
23.71
23.92
24.35
24.84
25.04
24.52
22.84
19.79
15.52
10.43
5.05
-0.14
-4.94
-9.38
-13.78
-18.52
-24.03
-30.56
-38.04
-45.93
-53.16
-58.34
-60.05
-57.34
-50.09
-39.04
-25.62
-11.48
1.96
13.72
23.3
30.52
35.34
37.77
37.93
36.1
32.77
28.58
24.25
20.44
17.65
16.11
15.81
16.46
17.66
18.99
20.05
20.52
20.08
18.48
15.59
11.52
6.61
1.35
-3.81
-8.64
-13.24
-17.97
-23.26
-29.44
-36.54
-44.1
-51.19
-56.48
-58.54
-56.31
-49.45
-38.6
-25.17
-10.93
2.54
14.25
23.8
31.16
36.39
39.47
40.37
39.25
36.6
33.18
29.78
27.0
25.05
23.84
23.08
22.51
22.04
21.64
21.32
20.97
20.29
18.87
16.39
12.72
8.04
2.76
-2.62
-7.77
-12.61
-17.33
-22.27
-27.77
-34.09
-41.26
-48.97
-56.5
-62.72
-66.24
-65.84
-60.85
-51.48
-38.76
-24.28
-9.66
3.85
15.52
25.03
32.27
37.17
39.7
39.96
38.34
35.47
32.14
29.09
26.81
25.48
24.95
24.89
24.96
24.93
24.72
24.36
23.87
23.17
22.01
20.09
17.15
13.11
8.11
2.53
-3.21
-8.72
-13.79
-18.48
-23.06
-27.93
-33.51
-40.01
-47.17
-54.2
-59.81
-62.57
-61.32
-55.62
-45.85
-33.15
-19.02
-4.92
8.07
19.25
28.29
35.01
39.32
41.19
40.83
38.65
35.36
31.75
28.58
26.34
25.18
24.91
25.17
25.54
25.81
25.9
25.83
25.62
25.07
23.86
21.59
18.01
13.17
7.42
1.32
-4.57
-9.92
-14.66
-19.0
-23.29
-27.94
-33.26
-39.43
-46.32
-53.39
-59.66
-63.8
-64.51
-60.94
-53.04
-41.61
-28.05
-13.95
-0.6
11.16
20.95
28.64
34.14
37.35
38.24
37.0
34.13
30.39
26.63
23.55
21.55
20.67
20.7
21.29
22.13
23.0
23.76
24.27
24.33
23.64
21.92
18.95
14.76
9.62
4.02
-1.51
-6.57
-11.03
-15.08
-19.11
-23.59
-28.89
-35.17
-42.24
-49.45
-55.73
-59.76
-60.27
-56.5
-48.46
-37.01
-23.59
-9.8
3.01
14.01
22.8
29.25
33.3
34.98
34.43
32.0
28.31
24.09
20.02
16.6
14.06
12.47
11.75
11.8
12.52
13.66
14.88
15.72
15.68
14.41
11.8
8.05
3.57
-1.12
-5.61
-9.72
-13.52
-17.36
-21.68
-26.9
-33.13
-40.04
-46.74
-51.96
-54.34
-52.83
-47.07
-37.49
-25.24
-11.84
1.19
12.66
21.88
28.55
32.7
34.47
34.07
31.77
27.97
23.23
18.26
13.74
10.26
8.12
7.31
7.54
8.36
9.27
9.8
9.63
8.59
6.66
3.92
0.53
-3.34
-7.53
-11.9
-16.43
-21.23
-26.53
-32.64
-39.71
-47.45
-54.94
-60.76
-63.31
-61.41
-54.71
-43.89
-30.39
-15.96
-2.15
10.0
19.99
27.69
33.11
36.3
37.33
36.39
33.81
30.11
25.89
21.77
18.31
15.88
14.65
14.54
15.23
16.26
17.09
17.23
16.4
14.54
11.79
8.34
4.39
0.01
-4.85
-10.22
-16.12
-22.5
-29.32
-36.49
-43.74
-50.45
-55.61
-57.94
-56.31
-50.19
-39.95
-26.82
-12.53
1.22
13.2
22.81
29.96
34.79
37.48
38.19
37.08
34.46
30.79
26.66
22.68
19.39
17.15
16.06
16.0
16.65
17.55
18.22
18.22
17.28
15.27
12.25
8.38
3.9
-0.94
-5.94
-11.01
-16.2
-21.75
-27.95
-34.94
-42.49
-49.74
-55.38
-57.9
-56.13
-49.67
-39.1
-25.79
-11.49
2.2
14.13
23.72
30.81
35.5
37.91
38.24
36.8
34.03
30.49
26.79
23.44
20.82
19.09
18.26
18.2
18.62
19.2
19.55
19.29
18.14
15.94
12.7
8.56
3.78
-1.34
-6.55
-11.7
-16.77
-21.92
-27.38
-33.36
-39.87
-46.51
-52.44
-56.49
-57.45
-54.5
-47.5
-37.07
-24.46
-11.15
1.51
12.55
21.48
28.11
32.47
34.6
34.63
32.79
29.52
25.51
21.56
18.46
16.68
16.36
17.18
18.63
20.12
21.22
21.66
21.34
20.2
18.16
15.17
11.28
6.67
1.7
-3.27
-8.0
-12.5
-17.07
-22.1
-27.88
-34.32
-40.77
-46.12
-49.09
-48.6
-44.16
-36.0
-25.05
-12.61
-0.09
11.35
20.85
27.95
32.51
34.58
34.42
32.42
29.1
25.06
20.98
17.46
14.95
13.66
13.52
14.22
15.32
16.33
16.83
16.55
15.32
13.1
9.95
6.0
1.45
-3.4
-8.27
-12.96
-17.43
-21.89
-26.73
-32.27
-38.58
-45.2
-51.19
-55.28
-56.25
-53.3
-46.29
-35.76
-22.81
-8.8
4.92
17.27
27.52
35.36
40.78
43.95
45.14
44.67
42.9
40.3
37.4
34.72
32.61
31.22
30.46
30.12
29.99
29.91
29.76
29.41
28.64
27.21
24.88
21.56
17.33
12.43
7.23
2.08
-2.78
-7.26
-11.45
-15.63
-20.17
-25.48
-31.79
-38.96
-46.32
-52.75
-56.83
-57.34
-53.61
-45.81
-34.91
-22.35
-9.62
2.09
12.07
20.05
26.06
30.25
32.84
34.04
34.09
33.26
31.83
30.13
28.47
27.14
26.31
25.99
26.07
26.29
26.38
26.13
25.46
24.37
22.89
21.05
18.78
15.92
12.34
7.98
3.01
-2.25
-7.37
-12.02
-16.01
-19.47
-22.64
-25.89
-29.53
-33.8
-38.85
-44.69
-51.05
-57.23
-62.1
-64.29
-62.6
-56.46
-46.26
-33.26
-19.2
-5.79
5.81
15.09
22.11
27.14
30.45
32.2
32.6
31.94
30.66
29.27
28.13
27.42
27.13
27.21
27.59
28.25
29.19
30.24
31.13
31.46
30.9
29.26
26.53
22.89
18.6
13.96
9.21
4.5
-0.11
-4.61
-8.99
-13.21
-17.2
-20.85
-24.2
-27.34
-30.55
-34.13
-38.39
-43.5
-49.4
-55.61
-61.26
-65.11
-65.89
-62.67
-55.23
-44.23
-31.0
-17.18
-4.21
6.97
15.96
22.77
27.53
30.36
31.37
30.76
28.92
26.46
24.08
22.35
21.65
22.0
23.2
24.82
26.46
27.72
28.37
28.34
27.63
26.37
24.64
22.5
19.88
16.68
12.79
8.25
3.22
-1.99
-7.05
-11.64
-15.63
-19.03
-22.03
-24.91
-28.04
-31.73
-36.18
-41.29
-46.62
-51.32
-54.3
-54.47
-51.13
-44.18
-34.18
-22.25
-9.7
2.24
12.73
21.28
27.75
32.15
34.54
35.08
33.98
31.65
28.67
25.74
23.56
22.65
23.2
24.99
27.44
29.82
31.47
31.99
31.3
29.64
27.29
24.47
21.27
17.62
13.46
8.8
3.8
-1.36
-6.45
-11.34
-15.98
-20.39
-24.66
-28.88
-33.23
-37.88
-43.03
-48.69
-54.65
-60.22
-64.35
-65.81
-63.58
-57.21
-47.05
-34.23
-20.3
-6.79
5.18
15.02
22.63
28.18
31.92
34.03
34.68
34.08
32.53
30.43
28.24
26.43
25.36
25.23
26.01
27.5
29.33
31.1
32.43
33.07
32.85
31.69
29.6
26.68
23.07
19.05
14.88
10.77
6.74
2.68
-1.59
-6.14
-10.87
-15.48
-19.7
-23.38
-26.62
-29.83
-33.52
-38.16
-43.92
-50.53
-57.18
-62.62
-65.43
-64.4
-59.01
-49.53
-37.07
-23.17
-9.37
3.1
13.56
21.77
27.75
31.68
33.71
34.08
33.07
31.07
28.57
26.03
23.87
22.29
21.3
20.79
20.62
20.67
20.87
21.13
21.23
20.88
19.73
17.58
14.43
10.52
6.16
1.6
-3.08
-7.93
-13.05
-18.48
-24.11
-29.73
-35.12
-40.06
-44.49
-48.52
-52.44
-56.63
-61.46
-67.02
-72.94
-78.34
-81.96
-82.44
-78.82
-70.88
-59.23
-45.15
-30.3
-16.21
-4.03
5.59
12.46
16.7
18.57
18.44
16.78
14.11
11.02
8.1
5.77
4.32
3.84
4.28
5.54
7.57
10.31
13.72
17.69
21.99
26.28
30.12
33.07
34.74
34.89
33.49
30.75
27.05
22.93
18.95
15.58
13.1
11.51
10.58
9.88
8.83
6.92
3.7
-0.97
-6.82
-13.04
-18.38
-21.45
-21.08
-16.8
-9.0
1.15
12.1
22.37
30.98
37.45
41.78
44.12
44.69
43.66
41.23
37.73
33.59
29.34
25.54
22.63
20.86
20.19
20.36
20.94
21.53
21.82
21.64
20.93
19.55
17.36
14.14
9.83
4.55
-1.38
-7.54
-13.61
-19.46
-25.18
-30.99
-37.12
-43.71
-50.68
-57.71
-64.09
-68.79
-70.68
-68.82
-62.73
-52.71
-39.69
-25.02
-10.15
3.73
15.7
25.16
31.74
35.26
35.77
33.57
29.22
23.42
16.9
10.28
4.09
-1.24
-5.36
-8.02
-9.17
-8.98
-7.96
-6.81
-6.32
-7.14
-9.57
-13.49
-18.33
-23.3
-27.66
-31.0
-33.38
-35.4
-37.93
-41.83
-47.62
-55.13
-63.37
-70.66
-74.96
-74.46
-68.12
-56.14
-39.9
-21.56
-3.42
12.79
26.23
36.84
45.03
51.19
55.51
57.95
58.42
57.06
54.27
50.73
47.22
44.45
42.95
42.89
44.1
46.06
48.08
49.46
49.69
48.54
46.05
42.34
37.56
31.82
25.21
17.86
9.98
1.76
-6.65
-15.07
-23.17
-30.29
-35.39
-37.29
-35.04
-28.47
-18.3
-6.04
6.58
18.08
27.69
35.33
41.36
46.18
49.96
52.56
53.63
52.87
50.2
45.89
40.55
34.96
29.95
26.2
24.02
23.31
23.55
23.96
23.69
22.06
18.77
13.9
7.87
1.24
-5.44
-11.85
-17.91
-23.76
-29.63
-35.78
-42.39
-49.47
-56.65
-63.13
-67.67
-68.88
-65.66
-57.62
-45.36
-30.32
-14.4
0.64
13.59
23.96
31.86
37.67
41.77
44.35
45.47
45.22
43.85
41.77
39.5
37.48
35.98
35.06
34.74
35.05
36.01
37.59
39.56
41.44
42.7
42.91
41.96
40.1
37.79
35.47
33.41
31.64
29.96
28.01
25.38
21.73
16.94
11.37
5.92
2.04
1.21
4.43
11.72
21.93
33.11
43.3
51.15
56.38
59.53
61.49
62.86
63.73
63.79
62.74
60.55
57.53
54.13
50.61
47.0
43.19
39.07
34.74
30.35
26.01
21.55
16.58
10.57
3.16
-5.66
-15.63
-26.24
-37.0
-47.56
-57.77
-67.62
-77.18
-86.54
-95.68
-104.43
-112.32
-118.67
-122.66
-123.59
-121.17
-115.66
-107.86
-98.88
-89.87
-81.77
-75.19
-70.46
-67.67
-66.81
-67.72
-70.26
-74.22
-79.42
-85.64
-92.55
-99.63
-106.19
-111.49
-114.96
-116.41
-116.1
-114.71
-113.06
-111.91
-111.66
-112.34
-113.56
-114.72
-115.28
-114.97
-113.83
-112.27
-110.9
-110.41
-111.34
-113.83
-117.38
-120.66
-121.58
-117.77
-107.28
-89.36
-64.84
-35.95
-5.63
23.42
49.39
71.56
89.98
104.98
116.81
125.53
131.12
133.74
133.84
132.14
129.44
126.51
123.89
121.93
120.74
120.25
120.16
120.03
119.27
117.26
113.51
107.78
100.21
91.24
81.42
71.28
61.12
50.99
40.77
30.22
19.23
7.99
-2.87
-12.27
-18.85
-21.38
-19.23
-12.73
-3.25
7.14
16.26
22.45
24.99
24.17
20.99
16.75
12.55
9.07
6.49
4.66
3.4
2.65
2.63
3.59
5.67
8.69
12.14
15.35
17.71
18.85
18.66
17.19
14.54
10.83
6.15
0.64
-5.49
-12.02
-18.77
-25.67
-32.79
-40.28
-48.17
-56.1
-63.23
-68.23
-69.66
-66.42
-58.3
-46.12
-31.55
-16.55
-2.8
8.72
17.73
24.4
29.02
31.77
32.74
32.05
29.98
27.06
23.9
21.09
19.03
17.85
17.4
17.38
17.38
17.06
16.19
14.64
12.38
9.38
5.64
1.19
-3.88
-9.36
-14.99
-20.54
-25.94
-31.23
-36.51
-41.68
-46.28
-49.4
-49.81
-46.44
-38.73
-27.05
-12.68
2.55
16.76
28.6
37.52
43.7
47.7
50.14
51.35
51.46
50.49
48.61
46.24
43.92
42.2
41.34
41.33
41.85
42.46
42.72
42.27
40.87
38.44
35.01
30.7
25.7
20.2
14.3
8.02
1.25
-6.15
-14.27
-23.0
-31.96
-40.42
-47.34
-51.53
-51.98
-48.15
-40.23
-29.19
-16.52
-3.89
7.27
16.1
22.32
26.17
28.07
28.5
27.83
26.35
24.33
22.07
19.94
18.28
17.33
17.15
17.65
18.63
19.87
21.16
22.27
22.96
22.97
22.01
19.91
16.68
12.51
7.78
2.92
-1.71
-5.93
-9.72
-13.3
-16.99
-21.13
-25.79
-30.66
-34.9
-37.32
-36.78
-32.6
-24.97
-14.91
-3.95
6.46
15.34
22.42
27.91
32.12
35.23
37.19
37.98
37.72
36.82
35.87
35.35
35.47
36.1
36.93
37.69
38.32
39.05
40.26
42.2
44.84
47.77
50.39
52.14
52.8
52.54
51.9
51.43
51.5
52.07
52.74
52.9
52.01
49.76
46.3
42.22
38.54
36.47
37.15
41.32
49.03
59.51
71.34
82.73
92.02
98.05
100.41
99.31
95.22
88.44
78.75
65.49
47.93
25.92
0.24
-27.25
-54.13
-78.06
-97.42
-111.61
-120.85
-125.83
-127.23
-125.53
-121.1
-114.41
-106.22
-97.56
-89.52
-82.87
-77.86
-74.11
-70.9
-67.46
-63.43
-58.96
-54.64
-51.08
-48.54
-46.71
-44.75
-41.65
-36.64
-29.48
-20.54
-10.51
0.03
11.01
23.06
37.24
54.54
75.27
98.71
123.15
146.42
166.53
182.26
193.44
200.73
205.31
208.37
210.73
212.56
213.18
210.93
203.48
188.55
164.97
133.7
98.07
63.02
33.34
11.76
-2.17
-11.92
-22.48
-38.31
-61.88
-93.38
-131.57
-174.92
-222.33
-272.88
-325.15
-376.83
-424.95
-466.79
-500.7
-526.12
-542.89
-550.36
-547.07
-531.26
-502.0
-460.15
-408.28
-349.85
-288.0
-225.03
-162.62
-102.63
-47.56
-0.24
37.12
63.89
81.36
92.14
99.06
104.1
108.05
110.82
112.07
111.86
110.73
109.51
108.82
108.8
109.09
108.98
107.74
104.87
100.28
94.25
87.29
79.96
72.73
65.83
59.32
53.08
46.89
40.59
33.99
26.96
19.35
11.12
2.41
-6.24
-13.89
-19.28
-21.23
-19.1
-13.03
-4.02
6.46
16.87
26.08
33.47
38.89
42.45
44.32
44.69
43.77
41.89
39.52
37.15
35.27
34.2
34.06
34.76
36.08
37.72
39.39
40.84
41.82
42.06
41.2
38.86
34.79
28.99
21.91
14.3
7.09
1.01
-3.63
-7.08
-10.05
-13.42
-17.88
-23.63
-30.2
-36.44
-40.79
-41.73
-38.23
-30.11
-18.16
-3.88
10.93
24.73
36.47
45.69
52.34
56.54
58.45
58.33
56.57
53.76
50.59
47.67
45.44
44.05
43.44
43.38
43.57
43.7
43.48
42.68
41.12
38.66
35.24
30.85
25.53
19.38
12.52
5.09
-2.78
-10.99
-19.47
-28.23
-37.2
-46.11
-54.32
-60.81
-64.29
-63.61
-58.14
-48.12
-34.63
-19.35
-4.06
9.81
21.37
30.24
36.4
40.0
41.27
40.55
38.25
34.92
31.11
27.38
24.23
22.03
21.01
21.15
22.19
23.63
24.88
25.39
24.85
23.18
20.54
17.17
13.26
8.89
4.05
-1.35
-7.37
-14.08
-21.45
-29.32
-37.2
-44.26
-49.31
-51.08
-48.61
-41.58
-30.58
-16.9
-2.26
11.72
23.93
33.8
41.23
46.34
49.26
50.07
48.95
46.23
42.46
38.3
34.44
31.35
29.25
28.1
27.65
27.53
27.32
26.59
25.0
22.35
18.63
14.04
8.91
3.62
-1.57
-6.57
-11.47
-16.54
-22.03
-28.05
-34.41
-40.53
-45.49
-48.21
-47.73
-43.49
-35.56
-24.66
-12.03
0.91
12.83
22.83
30.49
35.88
39.29
41.13
41.7
41.17
39.68
37.34
34.44
31.37
28.57
26.37
24.95
24.24
23.98
23.81
23.4
22.5
21.02
18.95
16.36
13.34
9.95
6.23
2.17
-2.35
-7.51
-13.58
-20.64
-28.46
-36.26
-42.75
-46.45
-46.14
-41.38
-32.72
-21.54
-9.57
1.66
11.18
18.62
24.04
27.65
29.62
30.07
29.19
27.25
24.65
21.88
19.36
17.36
16.0
15.19
14.67
14.14
13.3
12.01
10.32
8.4
6.47
4.64
2.8
0.67
-2.14
-5.96
-10.92
-16.95
-23.63
-30.27
-35.92
-39.55
-40.27
-37.63
-31.81
-23.59
-14.13
-4.67
3.86
10.96
16.52
20.66
23.46
24.92
24.97
23.63
21.12
17.91
14.61
11.78
9.79
8.73
8.38
8.35
8.22
7.62
6.41
4.6
2.33
-0.23
-2.98
-5.98
-9.39
-13.39
-18.14
-23.65
-29.78
-36.08
-41.82
-46.01
-47.61
-45.86
-40.53
-32.15
-21.85
-11.04
-1.02
7.39
13.87
18.46
21.34
22.65
22.47
20.92
18.31
15.13
11.99
9.44
7.84
7.23
7.35
7.77
8.02
7.76
6.91
5.57
3.98
2.32
0.63
-1.25
-3.59
-6.58
-10.33
-14.8
-19.85
-25.27
-30.77
-35.85
-39.75
-41.57
-40.49
-36.16
-28.89
-19.64
-9.75
-0.49
7.26
13.11
17.08
19.42
20.38
20.14
18.91
16.91
14.46
11.92
9.67
8.03
7.19
7.18
7.85
8.88
9.86
10.42
10.27
9.35
7.72
5.58
3.08
0.35
-2.61
-5.83
-9.33
-13.09
-17.11
-21.42
-26.02
-30.76
-35.15
-38.41
-39.53
-37.73
-32.73
-25.01
-15.67
-6.07
2.58
9.55
14.64
18.0
19.88
20.52
20.06
18.63
16.41
13.69
10.84
8.23
6.15
4.73
3.93
3.56
3.33
3.03
2.5
1.74
0.81
-0.22
-1.33
-2.6
-4.1
-5.94
-8.19
-10.91
-14.25
-18.35
-23.27
-28.84
-34.52
-39.41
-42.4
-42.51
-39.22
-32.71
-23.83
-13.88
-4.22
4.13
10.66
15.33
18.36
20.0
20.39
19.57
17.58
14.66
11.28
8.07
5.69
4.56
4.77
6.06
7.93
9.76
11.07
11.55
11.12
9.85
7.89
5.39
2.53
-0.62
-3.98
-7.57
-11.53
-16.01
-21.05
-26.47
-31.71
-35.88
-37.96
-37.12
-33.03
-25.97
-16.81
-6.73
3.08
11.71
18.63
23.66
26.86
28.35
28.32
26.98
24.61
21.61
18.39
15.4
12.92
11.16
10.16
9.86
10.09
10.56
10.94
10.89
10.19
8.76
6.67
4.09
1.2
-1.88
-5.1
-8.53
-12.29
-16.55
-21.49
-27.09
-33.07
-38.75
-43.12
-45.12
-43.95
-39.4
-31.95
-22.62
-12.7
-3.34
4.65
10.91
15.45
18.5
20.37
21.33
21.51
21.02
19.89
18.24
16.25
14.16
12.27
10.77
9.77
9.19
8.86
8.52
7.92
6.89
5.31
3.23
0.76
-1.9
-4.57
-7.1
-9.45
-11.68
-13.98
-16.62
-19.87
-23.84
-28.3
-32.58
-35.68
-36.52
-34.36
-29.07
-21.23
-11.93
-2.42
6.31
13.68
19.51
23.89
26.94
28.81
29.63
29.62
29.01
28.08
27.03
26.03
25.2
24.63
24.41
24.55
24.95
25.35
25.37
24.67
23.07
20.59
17.49
14.1
10.66
7.26
3.87
0.36
-3.36
-7.36
-11.69
-16.4
-21.48
-26.65
-31.24
-34.28
-34.74
-31.9
-25.78
-17.15
-7.28
2.46
11.02
17.93
23.16
26.87
29.19
30.17
29.82
28.26
25.85
23.1
20.57
18.68
17.6
17.32
17.66
18.43
19.48
20.72
22.05
23.31
24.29
24.78
24.7
24.07
23.03
21.75
20.33
18.74
16.85
14.47
11.44
7.69
3.3
-1.47
-6.21
-10.35
-13.36
-14.87
-14.82
-13.52
-11.55
-9.57
-8.11
-7.45
-7.62
-8.5
-9.9
-11.64
-13.56
-15.48
-17.14
-18.26
-18.56
-17.88
-16.21
-13.72
-10.66
-7.32
-3.91
-0.6
2.47
5.12
7.06
8.01
7.78
6.39
4.14
1.5
-1.0
-3.03
-4.52
-5.64
-6.63
-7.61
-8.51
-9.08
-8.94
-7.88
-5.85
-3.1
-0.03
2.92
5.38
7.13
8.11
8.31
7.75
6.43
4.37
1.66
-1.4
-4.38
-6.78
-8.22
-8.62
-8.26
-7.7
-7.55
-8.17
-9.58
-11.45
-13.33
-14.89
-16.11
-17.24
-18.65
-20.61
-23.14
-26.01
-28.83
-31.14
-32.55
-32.72
-31.45
-28.7
-24.62
-19.56
-14.05
-8.67
-3.9
-0.03
2.83
4.75
5.88
6.37
6.33
5.85
5.05
4.04
2.96
1.97
1.18
0.66
0.37
0.21
0.05
-0.21
-0.64
-1.22
-1.93
-2.77
-3.76
-5.0
-6.57
-8.55
-10.97
-13.74
-16.62
-19.26
-21.18
-21.94
-21.23
-19.0
-15.47
-11.11
-6.45
-1.98
2.0
5.29
7.83
9.56
10.44
10.48
9.81
8.66
7.33
6.15
5.32
4.95
4.98
5.22
5.44
5.43
5.07
4.36
3.4
2.31
1.17
-0.02
-1.35
-2.9
-4.8
-7.1
-9.86
-13.02
-16.42
-19.73
-22.46
-24.1
-24.2
-22.62
-19.52
-15.37
-10.77
-6.26
-2.17
1.38
4.46
7.11
9.27
10.78
11.45
11.24
10.28
8.93
7.59
6.56
5.95
5.69
5.57
5.43
5.18
4.81
4.33
3.8
3.21
2.53
1.69
0.6
-0.85
-2.75
-5.15
-8.01
-11.21
-14.47
-17.4
-19.54
-20.44
-19.78
-17.52
-13.9
-9.39
-4.57
0.07
4.18
7.61
10.35
12.42
13.83
14.55
14.54
13.79
12.4
10.6
8.71
7.1
6.02
5.56
5.56
5.76
5.82
5.54
4.85
3.85
2.69
1.52
0.39
-0.72
-1.9
-3.2
-4.64
-6.24
-8.03
-10.09
-12.52
-15.25
-18.01
-20.24
-21.28
-20.59
-18.0
-13.79
-8.57
-3.12
1.93
6.19
9.49
11.83
13.24
13.72
13.3
12.09
10.31
8.3
6.44
5.05
4.32
4.26
4.69
5.3
5.75
5.81
5.43
4.73
3.92
3.25
2.82
2.59
2.41
2.01
1.16
-0.3
-2.46
-5.26
-8.56
-12.05
-15.27
-17.66
-18.69
-18.08
-15.84
-12.34
-8.19
-4.02
-0.31
2.75
5.16
7.03
8.38
9.19
9.39
8.96
8.06
6.92
5.8
4.84
4.07
3.4
2.78
2.2
1.74
1.46
1.31
1.2
0.93
0.37
-0.56
-1.87
-3.56
-5.62
-8.04
-10.79
-13.74
-16.76
-19.66
-22.28
-24.42
-25.84
-26.19
-25.13
-22.41
-18.06
-12.39
-5.98
0.49
6.47
11.63
15.81
19.02
21.27
22.58
23.02
22.74
22.06
21.42
21.24
21.77
23.06
24.83
26.7
28.21
29.01
28.88
27.76
25.66
22.69
18.99
14.76
10.22
5.61
1.09
-3.25
-7.41
-11.47
-15.5
-19.47
-23.17
-26.19
-27.98
-28.03
-26.01
-21.96
-16.32
-9.83
-3.33
2.48
7.2
10.74
13.19
14.69
15.34
15.15
14.2
12.65
10.76
8.85
7.14
5.72
4.56
3.58
2.77
2.21
2.03
2.3
2.93
3.72
4.41
4.81
4.81
4.35
3.43
2.03
0.14
-2.21
-4.95
-7.98
-11.19
-14.47
-17.67
-20.53
-22.67
-23.62
-22.99
-20.64
-16.69
-11.57
-5.8
0.08
5.67
10.67
14.88
18.13
20.33
21.46
21.62
21.04
19.99
18.74
17.45
16.15
14.83
13.48
12.14
10.92
9.88
9.04
8.29
7.46
6.42
5.12
3.58
1.87
0.05
-1.85
-3.82
-5.86
-8.0
-10.24
-12.55
-14.91
-17.28
-19.61
-21.83
-23.82
-25.41
-26.31
-26.18
-24.72
-21.78
-17.5
-12.27
-6.71
-1.45
3.06
6.65
9.38
11.42
12.9
13.84
14.2
14.01
13.42
12.75
12.35
12.44
12.98
13.71
14.29
14.42
13.99
13.05
11.75
10.22
8.5
6.6
4.48
2.09
-0.54
-3.4
-6.39
-9.42
-12.36
-15.08
-17.5
-19.65
-21.68
-23.8
-26.27
-29.25
-32.71
-36.43
-39.99
-42.78
-44.13
-43.47
-40.45
-35.07
-27.68
-18.94
-9.67
-0.64
7.51
14.39
19.83
23.8
26.38
27.68
27.83
27.03
25.55
23.76
21.99
20.54
19.56
19.04
18.88
18.9
18.93
18.79
18.36
17.55
16.31
14.65
12.56
10.03
7.05
3.67
0.03
-3.64
-7.05
-10.01
-12.51
-14.72
-16.99
-19.64
-22.82
-26.49
-30.29
-33.66
-35.93
-36.41
-34.51
-29.95
-22.85
-13.75
-3.55
6.69
16.04
23.87
29.95
34.37
37.36
39.17
40.03
40.14
39.77
39.19
38.73
38.59
38.85
39.4
40.04
40.53
40.62
40.09
38.66
36.06
32.15
26.91
20.58
13.63
6.6
0.02
-5.74
-10.5
-14.27
-17.25
-19.76
-22.13
-24.63
-27.32
-30.07
-32.44
-33.88
-33.85
-32.09
-28.75
-24.39
-19.79
-15.73
-12.69
-10.76
-9.75
-9.34
-9.38
-9.88
-10.94
-12.59
-14.58
-16.45
-17.7
-18.05
-17.52
-16.4
-15.07
-13.78
-12.58
-11.37
-10.03
-8.6
-7.32
-6.54
-6.63
-7.75
-9.84
-12.62
-15.67
-18.61
-21.25
-23.65
-26.07
-28.91
-32.49
-36.96
-42.19
-47.73
-52.9
-56.83
-58.62
-57.49
-52.97
-45.02
-34.16
-21.41
-8.06
4.59
15.54
24.31
30.88
35.5
38.49
40.1
40.47
39.78
38.29
36.43
34.62
33.17
32.19
31.63
31.32
31.05
30.7
30.17
29.44
28.48
27.26
25.69
23.68
21.13
18.04
14.54
10.88
7.28
3.81
0.33
-3.52
-8.15
-13.73
-20.02
-26.28
-31.37
-34.14
-33.69
-29.78
-22.87
-14.03
-4.55
4.34
11.84
17.59
21.54
23.83
24.63
24.17
22.77
20.85
18.86
17.17
15.99
15.38
15.29
15.69
16.55
17.86
19.51
21.31
22.99
24.26
24.87
24.65
23.54
21.57
18.88
15.64
12.04
8.23
4.24
0.01
-4.5
-9.24
-13.83
-17.59
-19.56
-18.78
-14.58
-6.93
3.51
15.54
27.81
39.15
48.89
56.89
63.33
68.52
72.65
75.8
78.0
79.41
80.38
81.37
82.88
85.25
88.59
92.79
97.7
103.17
109.17
115.7
122.64
129.61
135.96
141.02
144.33
145.96
146.41
146.36
146.2
145.83
144.78
142.57
139.13
134.89
130.42
125.9
120.73
113.68
103.44
89.49
72.49
54.04
35.79
18.63
2.31
-14.14
-31.58
-49.97
-68.01
-83.45
-93.82
-97.44
-94.3
-86.4
-77.59
-72.43
-74.81
-86.53
-106.69
-132.03
-158.37
-182.06
-201.08
-215.16
-225.4
-233.91
-243.74
-258.75
-282.85
-318.13
-362.91
-410.87
-452.19
-476.76
-477.84
-454.22
-409.99
-352.02
-287.07
-220.13
-154.51
-93.12
-39.33
3.27
32.31
48.05
53.61
53.85
53.37
54.83
58.5
62.92
66.21
67.24
66.06
63.6
61.05
59.23
58.3
57.79
56.9
54.89
51.43
46.63
40.94
34.95
29.11
23.68
18.74
14.41
10.96
8.92
8.9
11.34
16.23
23.02
30.7
38.09
44.16
48.32
50.5
50.97
50.22
48.66
46.55
44.0
41.12
38.04
35.04
32.42
30.38
28.9
27.77
26.64
25.24
23.48
21.47
19.42
17.45
15.47
13.24
10.42
6.76
2.2
-3.05
-8.57
-13.71
-17.75
-20.05
-20.12
-17.8
-13.28
-7.01
0.33
8.04
15.45
21.98
27.21
30.9
32.95
33.44
32.54
30.56
27.9
25.01
22.37
20.34
19.11
18.61
18.56
18.58
18.35
17.74
16.8
15.64
14.36
12.9
11.13
8.91
6.09
2.62
-1.47
-6.1
-11.02
-15.79
-19.76
-22.24
-22.63
-20.72
-16.75
-11.35
-5.3
0.75
6.41
11.5
15.87
19.3
21.46
22.06
21.06
18.8
15.88
13.01
10.76
9.35
8.7
8.52
8.46
8.27
7.84
7.14
6.19
5.02
3.58
1.8
-0.4
-3.1
-6.35
-10.09
-14.19
-18.39
-22.25
-25.21
-26.68
-26.18
-23.48
-18.66
-12.05
-4.22
4.15
12.36
19.74
25.72
29.93
32.2
32.62
31.43
28.96
25.63
21.91
18.28
15.18
12.95
11.63
11.07
10.92
10.86
10.74
10.54
10.39
10.3
10.17
9.74
8.69
6.74
3.71
-0.37
-5.23
-10.31
-14.85
-17.97
-18.92
-17.32
-13.24
-7.19
0.07
7.79
15.36
22.31
28.31
33.04
36.16
37.4
36.68
34.21
30.43
25.97
21.43
17.29
13.86
11.25
9.45
8.39
7.91
7.82
7.92
8.0
7.89
7.49
6.72
5.49
3.64
1.01
-2.5
-6.82
-11.6
-16.2
-19.77
-21.5
-20.8
-17.5
-11.91
-4.67
3.37
11.42
18.82
25.04
29.64
32.22
32.5
30.49
26.59
21.61
16.55
12.31
9.41
7.85
7.27
7.16
7.14
7.05
6.92
6.79
6.64
6.32
5.6
4.27
2.15
-0.81
-4.61
-9.07
-13.79
-18.19
-21.51
-23.03
-22.28
-19.19
-14.14
-7.81
-1.03
5.43
10.96
15.16
17.84
18.93
18.57
17.04
14.8
12.42
10.55
9.67
10.07
11.69
14.16
16.93
19.43
21.24
22.22
22.48
22.32
21.98
21.56
20.84
19.41
16.81
12.82
7.6
1.79
-3.6
-7.52
-9.19
-8.33
-5.24
-0.61
4.71
9.98
14.69
18.58
21.47
23.23
23.67
22.65
20.16
16.4
11.85
7.17
3.02
-0.15
-2.23
-3.44
-4.25
-5.06
-6.06
-7.12
-8.0
-8.53
-8.9
-9.63
-11.43
-14.89
-20.2
-27.08
-34.79
-42.4
-48.95
-53.64
-55.89
-55.44
-52.25
-46.57
-38.84
-29.62
-19.55
-9.3
0.44
9.09
16.18
21.49
25.01
26.94
27.61
27.34
26.43
25.12
23.63
22.13
20.73
19.44
18.14
16.67
14.93
12.94
10.9
9.0
7.32
5.71
3.82
1.26
-2.25
-6.69
-11.74
-16.82
-21.19
-24.18
-25.26
-24.13
-20.84
-15.7
-9.29
-2.26
4.74
11.17
16.59
20.61
22.91
23.27
21.66
18.32
13.73
8.55
3.46
-0.94
-4.26
-6.35
-7.24
-7.13
-6.29
-5.07
-3.81
-2.8
-2.29
-2.49
-3.53
-5.41
-8.04
-11.18
-14.59
-18.1
-21.73
-25.59
-29.75
-34.04
-37.93
-40.58
-41.11
-38.96
-34.12
-27.22
-19.24
-11.26
-4.1
1.82
6.38
9.66
11.78
12.82
12.89
12.24
11.22
10.17
9.32
8.67
8.03
7.12
5.78
4.05
2.1
0.14
-1.72
-3.53
-5.45
-7.6
-9.97
-12.35
-14.44
-15.93
-16.67
-16.77
-16.54
-16.42
-16.86
-18.16
-20.46
-23.67
-27.47
-31.33
-34.54
-36.34
-36.07
-33.38
-28.43
-21.81
-14.46
-7.32
-1.1
3.89
7.72
10.65
12.96
14.84
16.34
17.44
18.18
18.67
19.07
19.5
20.02
20.59
21.09
21.45
21.66
21.82
22.01
22.29
22.55
22.58
22.13
21.04
19.3
17.09
14.73
12.49
10.52
8.73
6.85
4.52
1.42
-2.52
-7.13
-12.01
-16.59
-20.22
-22.32
-22.45
-20.45
-16.5
-11.05
-4.79
1.6
7.54
12.71
16.97
20.29
22.7
24.22
24.91
24.85
24.23
23.25
22.12
21.0
20.02
19.25
18.67
18.21
17.69
16.96
15.87
14.39
12.55
10.46
8.21
5.83
3.36
0.85
-1.58
-3.81
-5.75
-7.36
-8.77
-10.21
-11.91
-14.07
-16.7
-19.62
-22.49
-24.82
-26.09
-25.9
-24.05
-20.6
-15.86
-10.36
-4.64
0.78
5.56
9.52
12.61
14.83
16.13
16.51
15.97
14.68
12.96
11.23
9.87
9.15
9.14
9.72
10.67
11.75
12.74
13.44
13.67
13.22
11.88
9.55
6.29
2.31
-1.99
-6.19
-9.99
-13.26
-16.07
-18.54
-20.79
-22.79
-24.31
-25.02
-24.58
-22.79
-19.68
-15.57
-10.91
-6.22
-1.87
1.95
5.21
7.88
9.87
10.95
10.96
9.83
7.8
5.29
2.85
0.87
-0.45
-1.19
-1.56
-1.84
-2.2
-2.74
-3.49
-4.52
-5.85
-7.53
-9.47
-11.49
-13.35
-14.84
-15.86
-16.56
-17.24
-18.3
-20.1
-22.8
-26.23
-29.86
-32.91
-34.5
-33.98
-31.12
-26.19
-19.89
-13.1
-6.59
-0.82
4.05
8.11
11.5
14.32
16.56
18.17
19.1
19.37
19.01
18.16
16.96
15.59
14.25
13.13
12.3
11.76
11.4
11.04
10.53
9.76
8.69
7.33
5.66
3.67
1.36
-1.21
-3.98
-6.91
-10.01
-13.35
-16.93
-20.52
-23.62
-25.5
-25.5
-23.27
-18.96
-13.18
-6.8
-0.61
4.86
9.38
12.91
15.5
17.11
17.76
17.52
16.57
15.23
13.86
12.81
12.33
12.54
13.4
14.75
16.33
17.87
19.09
19.79
19.88
19.32
18.13
16.37
14.13
11.54
8.73
5.83
2.88
-0.16
-3.37
-6.8
-10.31
-13.56
-16.02
-17.15
-16.51
-13.99
-9.81
-4.49
1.27
6.74
11.33
14.67
16.59
17.18
16.69
15.46
13.92
12.44
11.3
10.67
10.58
10.97
11.68
12.52
13.19
13.44
13.03
11.84
9.91
7.48
4.86
2.4
0.31
-1.35
-2.69
-3.92
-5.23
-6.79
-8.73
-11.16
-14.1
-17.44
-20.8
-23.61
-25.22
-25.14
-23.29
-20.02
-16.05
-12.11
-8.74
-6.15
-4.32
-3.13
-2.57
-2.67
-3.47
-4.91
-6.73
-8.58
-10.06
-10.86
-10.85
-10.05
-8.64
-6.92
-5.16
-3.67
-2.62
-2.18
-2.39
-3.2
-4.48
-6.01
-7.56
-8.94
-10.11
-11.2
-12.46
-14.19
-16.58
-19.61
-22.96
-26.1
-28.35
-29.12
-28.05
-25.17
-20.83
-15.66
-10.3
-5.31
-1.02
2.44
5.01
6.72
7.6
7.71
7.2
6.27
5.15
4.04
3.03
2.16
1.41
0.82
0.45
0.38
0.56
0.79
0.76
0.19
-1.01
-2.67
-4.49
-6.2
-7.73
-9.27
-11.15
-13.62
-16.7
-20.15
-23.49
-26.19
-27.78
-27.9
-26.34
-23.08
-18.34
-12.51
-6.18
0.02
5.55
10.05
13.37
15.54
16.72
17.04
16.66
15.75
14.51
13.24
12.22
11.65
11.55
11.77
12.02
12.01
11.55
10.63
9.33
7.81
6.2
4.58
3.0
1.49
0.03
-1.46
-3.09
-4.98
-7.26
-9.94
-12.92
-15.96
-18.64
-20.44
-20.87
-19.6
-16.59
-12.1
-6.67
-0.93
4.56
9.37
13.31
16.31
18.36
19.52
19.83
19.36
18.29
16.83
15.27
13.89
12.93
12.45
12.33
12.33
12.13
11.53
10.49
9.04
7.29
5.24
2.83
-0.02
-3.35
-7.06
-10.93
-14.71
-18.25
-21.49
-24.43
-27.01
-28.95
-29.78
-28.98
-26.18
-21.35
-14.89
-7.47
0.17
7.43
13.92
19.4
23.69
26.64
28.1
28.09
26.82
24.68
22.21
19.9
18.13
17.04
16.57
16.51
16.55
16.46
16.11
15.5
14.74
13.87
12.91
11.72
10.17
8.11
5.47
2.28
-1.35
-5.21
-8.98
-12.23
-14.49
-15.36
-14.6
-12.27
-8.66
-4.29
0.25
4.44
7.84
10.16
11.25
11.09
9.82
7.7
5.11
2.42
-0.03
-2.04
-3.55
-4.61
-5.31
-5.8
-6.22
-6.68
-7.29
-8.08
-9.04
-10.16
-11.46
-13.06
-15.14
-17.84
-21.22
-25.09
-29.09
-32.67
-35.21
-36.17
-35.16
-32.04
-26.99
-20.48
-13.19
-5.86
0.9
6.71
11.4
14.93
17.33
18.58
18.7
17.82
16.2
14.22
12.23
10.49
9.05
7.79
6.55
5.22
3.8
2.43
1.23
0.26
-0.58
-1.52
-2.84
-4.83
-7.66
-11.31
-15.56
-19.92
-23.79
-26.48
-27.43
-26.3
-23.11
-18.19
-12.15
-5.68
0.59
6.14
10.67
14.06
16.33
17.58
17.95
17.63
16.81
15.75
14.68
13.77
13.06
12.44
11.71
10.68
9.28
7.62
5.9
4.32
2.91
1.52
-0.17
-2.45
-5.5
-9.29
-13.59
-17.99
-21.98
-24.98
-26.45
-26.04
-23.67
-19.57
-14.25
-8.35
-2.51
2.78
7.23
10.68
13.12
14.53
14.95
14.44
13.14
11.3
9.3
7.55
6.39
5.99
6.26
6.92
7.63
8.16
8.43
8.45
8.24
7.73
6.76
5.15
2.82
-0.19
-3.69
-7.42
-11.09
-14.38
-16.95
-18.49
-18.74
-17.53
-14.85
-10.83
-5.81
-0.25
5.29
10.23
14.06
16.51
17.53
17.26
16.0
14.07
11.73
9.22
6.74
4.47
2.63
1.33
0.59
0.29
0.17
-0.07
-0.66
-1.72
-3.25
-5.19
-7.49
-10.19
-13.41
-17.3
-21.97
-27.39
-33.45
-39.83
-46.02
-51.33
-54.9
-55.87
-53.62
-48.0
-39.41
-28.76
-17.23
-6.06
3.79
11.69
17.4
20.93
22.51
22.44
21.13
19.06
16.84
15.09
14.34
14.83
16.42
18.57
20.51
21.58
21.39
20.01
17.85
15.45
13.26
11.45
9.92
8.36
6.38
3.62
-0.14
-4.88
-10.23
-15.48
-19.58
-21.45
-20.2
-15.52
-7.79
1.97
12.42
22.26
30.57
36.87
41.15
43.56
44.35
43.75
41.97
39.31
36.16
32.95
30.09
27.83
26.25
25.21
24.47
23.74
22.82
21.63
20.24
18.77
17.28
15.7
13.85
11.52
8.52
4.79
0.32
-4.75
-10.15
-15.41
-19.78
-22.42
-22.53
-19.7
-14.05
-6.23
2.75
11.89
20.38
27.74
33.75
38.34
41.45
43.04
43.16
42.04
40.08
37.81
35.83
34.64
34.47
35.27
36.65
38.03
38.83
38.63
37.3
34.97
31.86
28.17
23.98
19.24
13.83
7.73
1.02
-6.07
-13.15
-19.69
-25.07
-28.61
-29.72
-28.03
-23.59
-16.88
-8.76
-0.29
7.54
13.9
18.31
20.58
20.77
19.13
16.02
11.91
7.32
2.78
-1.29
-4.61
-7.11
-8.93
-10.36
-11.72
-13.27
-15.09
-17.12
-19.2
-21.18
-22.99
-24.73
-26.59
-28.78
-31.43
-34.5
-37.74
-40.72
-42.92
-43.77
-42.84
-39.95
-35.26
-29.2
-22.42
-15.57
-9.19
-3.62
0.95
4.43
6.76
7.89
7.88
6.91
5.25
3.3
1.43
-0.07
-1.05
-1.58
-1.86
-2.21
-2.91
-4.14
-5.86
-7.88
-9.93
-11.78
-13.36
-14.79
-16.37
-18.38
-21.01
-24.16
-27.42
-30.14
-31.55
-31.02
-28.23
-23.3
-16.73
-9.27
-1.72
5.26
11.19
15.82
19.05
20.93
21.6
21.24
20.12
18.51
16.7
14.93
13.4
12.16
11.17
10.29
9.32
8.12
6.65
5.03
3.45
2.1
1.02
0.05
-1.12
-2.83
-5.29
-8.5
-12.19
-15.92
-19.2
-21.59
-22.8
-22.66
-21.16
-18.39
-14.62
-10.24
-5.73
-1.57
1.85
4.35
5.92
6.64
6.57
5.72
4.04
1.59
-1.41
-4.53
-7.3
-9.3
-10.42
-10.81
-10.89
-11.1
-11.82
-13.22
-15.32
-18.0
-21.1
-24.5
-28.11
-31.9
-35.95
-40.37
-45.29
-50.73
-56.47
-62.0
-66.55
-69.17
-68.99
-65.42
-58.36
-48.27
-36.07
-23.01
-10.27
1.25
11.14
19.38
26.18
31.71
36.0
38.93
40.42
40.56
39.7
38.32
36.85
35.58
34.59
33.85
33.29
32.81
32.35
31.74
30.84
29.48
27.53
25.02
22.03
18.72
15.2
11.54
7.75
3.89
0.16
-3.03
-5.06
-5.29
-3.2
1.31
7.89
15.75
23.88
31.23
37.01
40.73
42.3
41.95
40.1
37.32
34.12
30.9
27.88
25.09
22.45
19.85
17.22
14.53
11.74
8.8
5.59
1.97
-2.14
-6.71
-11.56
-16.39
-20.86
-24.75
-27.96
-30.59
-32.82
-34.88
-36.98
-39.28
-41.85
-44.58
-47.18
-49.04
-49.39
-47.45
-42.77
-35.47
-26.26
-16.27
-6.69
1.58
8.13
13.01
16.5
18.86
20.2
20.5
19.79
18.26
16.33
14.55
13.43
13.26
13.99
15.34
16.89
18.19
18.96
19.04
18.41
17.1
15.2
12.8
10.02
6.99
3.82
0.54
-2.91
-6.61
-10.59
-14.71
-18.56
-21.49
-22.75
-21.72
-18.15
-12.26
-4.78
3.29
10.94
17.41
22.31
25.62
27.55
28.39
28.38
27.7
26.48
24.89
23.13
21.38
19.79
18.37
17.04
15.65
14.1
12.36
10.4
8.26
5.91
3.35
0.63
-2.15
-4.83
-7.32
-9.6
-11.86
-14.31
-17.18
-20.54
-24.21
-27.81
-30.73
-32.33
-31.99
-29.38
-24.51
-17.79
-10.0
-2.08
5.14
11.08
15.49
18.37
19.86
20.05
19.05
17.03
14.28
11.28
8.59
6.66
5.72
5.73
6.43
7.46
8.51
9.34
9.85
10.02
9.9
9.58
9.13
8.56
7.82
6.77
5.28
3.18
0.38
-3.16
-7.33
-11.87
-16.28
-19.84
-21.74
-21.36
-18.47
-13.37
-6.87
-0.02
6.16
10.98
14.15
15.76
16.11
15.54
14.28
12.49
10.26
7.68
4.96
2.38
0.24
-1.29
-2.26
-2.92
-3.63
-4.67
-6.06
-7.62
-9.05
-10.11
-10.82
-11.39
-12.16
-13.38
-15.12
-17.31
-19.78
-22.38
-24.92
-27.11
-28.49
-28.49
-26.56
-22.41
-16.2
-8.53
-0.27
7.62
14.43
19.72
23.33
25.32
25.84
25.13
23.45
21.16
18.63
16.22
14.2
12.69
11.67
10.98
10.41
9.75
8.8
7.47
5.75
3.71
1.45
-0.94
-3.51
-6.39
-9.79
-13.9
-18.78
-24.35
-30.33
-36.34
-41.89
-46.45
-49.46
-50.4
-48.93
-45.01
-38.92
-31.32
-23.08
-15.07
-7.97
-2.23
2.01
4.79
6.25
6.62
6.18
5.27
4.29
3.66
3.73
4.7
6.63
9.32
12.43
15.5
18.08
19.8
20.48
20.14
18.96
17.19
15.07
12.74
10.25
7.59
4.7
1.57
-1.71
-4.9
-7.52
-8.94
-8.47
-5.58
-0.09
7.69
17.03
26.95
36.41
44.53
50.71
54.7
56.51
56.41
54.78
52.01
48.47
44.43
40.15
35.86
31.82
28.26
25.32
23.06
21.44
20.37
19.76
19.52
19.59
19.93
20.53
21.35
22.25
22.99
23.22
22.59
20.94
18.38
15.29
12.23
9.73
8.16
7.66
8.1
9.29
10.95
12.77
14.45
15.66
16.1
15.58
14.1
11.81
8.93
5.61
1.87
-2.4
-7.32
-12.82
-18.66
-24.44
-29.77
-34.42
-38.36
-41.76
-44.82
-47.63
-50.2
-52.41
-54.14
-55.33
-55.97
-56.2
-56.23
-56.42
-57.17
-58.82
-61.48
-64.93
-68.63
-71.82
-73.74
-73.81
-71.75
-67.59
-61.56
-54.1
-45.79
-37.37
-29.71
-23.6
-19.53
-17.46
-16.84
-16.79
-16.49
-15.53
-14.07
-12.69
-12.06
-12.6
-14.2
-16.34
-18.31
-19.5
-19.61
-18.7
-17.13
-15.31
-13.59
-12.21
-11.3
-10.9
-11.06
-11.76
-12.88
-14.13
-15.04
-15.08
-13.82
-11.13
-7.26
-2.77
1.71
5.7
9.0
11.71
13.99
15.92
17.36
18.09
17.92
16.82
15.04
13.0
11.13
9.77
9.1
9.12
9.73
10.74
11.94
13.16
14.26
15.18
15.93
16.52
16.99
17.34
17.53
17.42
16.85
15.6
13.49
10.49
6.88
3.33
0.79
0.3
2.7
8.32
16.9
27.65
39.46
51.14
61.6
69.95
75.62
78.4
78.45
76.31
72.78
68.67
64.62
60.91
57.4
53.73
49.43
44.2
38.06
31.35
24.69
18.83
14.46
12.04
11.63
12.81
14.76
16.4
16.79
15.38
12.24
8.0
3.62
-0.02
-2.46
-3.72
-4.25
-4.58
-5.07
-5.78
-6.57
-7.37
-8.46
-10.48
-14.26
-20.48
-29.27
-40.15
-52.16
-64.28
-75.88
-86.96
-98.09
-110.08
-123.62
-138.89
-155.46
-172.24
-187.72
-200.23
-208.31
-211.09
-208.59
-201.79
-192.41
-182.25
-172.53
-163.26
-153.24
-140.5
-123.3
-100.95
-74.21
-45.04
-15.77
11.65
36.25
57.9
76.95
93.66
107.92
119.38
127.75
133.07
135.83
136.73
136.47
135.48
133.83
131.37
127.87
123.2
117.47
110.96
103.96
96.63
88.92
80.62
71.49
61.48
50.75
39.71
28.89
18.87
10.21
3.4
-1.16
-3.26
-2.94
-0.5
3.54
8.58
14.06
19.45
24.24
27.9
29.96
30.08
28.29
25.0
20.97
17.09
14.09
12.31
11.66
11.65
11.65
11.13
9.81
7.73
5.07
2.01
-1.48
-5.63
-10.72
-16.85
-23.78
-31.0
-37.9
-43.94
-48.76
-52.15
-53.91
-53.81
-51.65
-47.47
-41.65
-34.92
-28.21
-22.36
-17.88
-14.85
-13.05
-12.11
-11.67
-11.46
-11.27
-10.92
-10.21
-8.98
-7.2
-4.99
-2.61
-0.33
1.74
3.69
5.82
8.4
11.53
14.99
18.28
20.81
22.11
22.02
20.76
18.85
17.01
16.01
16.54
19.09
23.91
30.94
39.74
49.65
59.79
69.27
77.25
83.07
86.3
86.81
84.74
80.56
74.87
68.36
61.65
55.12
48.96
43.17
37.65
32.26
26.84
21.2
15.2
8.78
2.0
-4.89
-11.63
-18.07
-24.22
-30.24
-36.25
-42.14
