2013-06-20 11:52:28
64.0
-0.0
-0.0
-0.0
-0.0
-0.0
-0.0
-0.0
-0.0
-0.0
-0.0
0.0
0.01
0.01
-0.0
-0.03
-0.05
-0.05
0.0
0.13
0.36
0.66
1.01
1.37
1.72
2.06
2.4
2.79
3.24
3.8
4.42
5.06
5.66
6.2
6.68
7.15
7.68
8.31
9.14
10.09
11.04
11.88
12.56
13.14
13.76
14.65
15.96
17.91
20.32
22.9
25.38
27.58
29.57
31.68
34.32
37.81
42.54
48.15
54.1
59.83
64.97
69.58
74.14
79.34
85.71
93.76
103.0
112.62
121.73
129.77
136.75
143.3
150.75
157.77
166.64
177.95
191.79
206.97
220.57
228.25
225.36
208.53
176.87
132.76
80.05
23.07
-34.94
-92.44
-149.16
-205.23
-260.37
-313.74
-363.87
-409.83
-450.91
-486.5
-515.74
-537.23
-549.22
-549.96
-538.37
-514.21
-478.67
-433.88
-382.45
-327.02
-269.84
-212.63
-156.66
-102.95
-52.37
-5.9
35.58
71.43
101.35
125.5
144.38
158.69
169.15
176.37
180.75
182.57
182.07
179.51
175.23
169.65
163.18
156.15
148.81
141.3
133.69
126.02
118.33
110.69
103.16
95.8
88.68
81.83
75.25
68.95
62.95
57.25
51.86
46.78
42.03
37.59
33.45
29.61
26.07
22.81
19.83
17.11
14.67
12.48
10.54
8.83
7.35
6.07
4.97
4.05
3.27
2.62
2.09
1.65
1.3
1.02
0.8
0.64
0.51
0.42
0.36
0.33
0.32
0.32
0.34
0.37
0.42
0.47
0.54
0.61
0.69
0.78
0.87
0.97
1.07
1.19
1.33
1.49
1.64
1.78
1.87
1.93
1.97
2.02
2.11
2.27
2.5
2.79
3.1
3.41
3.72
4.05
4.41
4.86
5.43
6.1
6.84
7.6
8.31
8.95
9.56
10.2
10.97
11.99
13.25
14.67
16.1
17.39
18.46
19.37
20.25
21.35
22.84
24.72
26.75
28.54
29.66
29.87
29.13
27.61
25.7
23.68
21.54
18.9
15.22
9.99
3.05
-5.43
-14.96
-24.8
-34.38
-43.28
-51.51
-59.34
-67.12
-75.48
-84.54
-95.36
-107.6
-119.28
-127.0
-127.19
-117.59
-98.61
-73.42
-46.83
-23.39
-5.61
6.25
13.77
18.66
21.95
23.76
23.8
22.03
18.96
15.63
13.11
12.16
13.15
16.57
23.2
34.0
49.37
67.91
85.83
97.7
98.53
86.23
63.31
35.96
12.48
-1.22
-3.95
0.97
8.0
12.46
12.27
7.83
0.27
-9.96
-23.29
-39.62
-56.89
-70.72
-76.03
-69.52
-51.55
-26.29
-0.39
21.11
36.79
48.49
58.63
67.72
73.33
71.57
59.97
39.96
16.69
-2.42
-12.25
-12.06
-5.11
3.58
10.07
13.16
14.01
14.53
15.67
16.78
16.25
12.97
7.08
0.03
-6.19
-9.88
-10.54
-8.92
-6.68
-5.35
-5.65
-7.06
-8.2
-7.5
-3.99
2.24
9.78
16.76
21.69
24.26
25.34
26.49
29.08
33.52
38.8
42.88
43.62
39.84
31.87
21.54
11.23
2.62
-3.87
-9.5
-16.31
-26.06
-39.34
-55.53
-72.72
-89.64
-104.36
-113.78
-114.0
-101.95
-77.67
-45.76
-14.59
6.6
13.04
5.7
-8.99
-22.49
-28.5
-25.63
-17.07
-7.82
-1.61
0.72
0.58
-0.17
-0.96
-2.97
-8.47
-19.66
-37.18
-58.78
-79.61
-92.72
-91.54
-72.72
-37.81
7.23
54.35
96.55
129.59
151.66
162.39
161.46
148.6
124.72
93.31
60.15
31.63
12.02
1.15
-4.85
-11.78
-24.57
-44.96
-70.36
-94.77
-110.99
-111.44
-96.0
-69.77
-41.12
-18.29
-5.98
-4.12
-9.0
-15.27
-18.75
-18.24
-13.96
-6.26
5.26
22.13
44.63
70.01
92.72
106.0
104.0
85.57
54.78
19.28
-13.47
-39.71
-60.55
-79.21
-97.88
-115.64
-127.96
-129.71
-118.67
-97.79
-72.63
-53.15
-45.72
-50.65
-63.61
-78.41
-90.6
-98.49
-102.79
-104.77
-105.05
-103.02
-96.88
-86.16
-72.0
-56.75
-42.55
-30.76
-21.21
-13.08
-4.97
3.89
12.88
20.42
24.7
25.32
23.07
20.53
20.32
24.52
33.95
48.25
66.81
85.32
102.49
118.64
136.13
157.21
183.87
217.33
257.39
301.79
345.51
381.88
403.35
405.44
386.82
350.42
302.52
250.49
200.59
156.53
120.13
84.25
46.8
8.99
-25.45
-53.35
-74.31
-90.18
-103.11
-113.94
-122.53
-127.15
-127.89
-127.35
-129.39
-137.97
-156.29
-186.0
-226.57
-275.27
-320.71
-351.6
-359.58
-342.26
-304.18
-255.11
-206.3
-166.3
-138.53
-120.69
-108.31
-97.39
-86.41
-74.9
-63.04
-50.66
-37.04
-21.45
-3.64
15.37
33.76
49.78
62.93
74.35
86.77
103.7
128.4
158.76
190.88
218.67
235.63
237.29
223.08
196.73
164.92
134.58
110.3
93.54
82.65
74.76
67.68
60.79
54.84
50.9
49.46
50.02
51.75
53.64
55.05
55.95
56.66
57.49
58.64
60.27
62.78
67.29
75.0
86.54
101.12
116.02
127.04
129.92
121.88
102.79
75.4
43.78
11.59
-19.46
-50.17
-83.35
-122.33
-169.07
-222.63
-278.53
-329.54
-367.41
-385.21
-379.47
-351.37
-306.5
-253.21
-200.18
-154.12
-118.42
-93.02
-75.44
-62.22
-50.15
-36.95
-21.31
-2.8
18.28
40.8
62.82
81.8
95.26
101.88
102.01
97.64
91.58
86.41
83.6
83.27
84.38
85.36
84.62
81.04
74.18
64.43
53.01
41.55
31.68
24.54
20.42
18.84
18.79
19.08
18.73
17.15
14.17
10.01
5.1
-0.1
-5.25
-10.17
-14.92
-19.57
-24.14
-28.46
-32.15
-34.8
-36.11
-35.98
-34.52
-31.94
-28.49
-24.43
-20.13
-15.97
-12.19
-8.72
-4.94
0.14
7.43
17.17
28.47
39.28
46.99
49.39
45.57
36.36
24.11
11.85
2.26
-3.09
-3.93
-1.18
3.65
9.03
13.73
16.94
18.24
17.47
14.74
10.41
4.98
-0.94
-6.78
-12.11
-16.61
-20.03
-22.09
-22.57
-21.38
-18.8
-15.41
-12.03
-9.49
-8.29
-8.44
-9.46
-10.43
-10.26
-7.93
-2.75
5.48
16.43
29.28
42.86
56.0
67.74
77.62
85.7
92.47
98.68
104.99
111.79
119.07
126.53
133.76
140.5
146.98
153.94
162.54
173.9
188.44
205.24
221.82
234.59
239.91
235.38
220.67
197.77
170.12
141.51
115.01
92.46
74.66
61.78
53.79
50.58
51.77
56.66
64.26
73.42
83.15
92.65
101.24
108.15
112.35
112.67
108.06
97.97
82.49
62.46
39.11
13.78
-12.53
-39.4
-67.13
-96.76
-129.55
-166.26
-206.19
-246.57
-282.81
-309.79
-323.71
-323.56
-311.51
-291.87
-269.25
-246.91
-226.0
-206.15
-186.38
-166.09
-145.22
-124.0
-102.54
-80.84
-59.28
-39.04
-22.25
-11.35
-8.24
-13.43
-25.71
-42.76
-61.93
-81.23
-99.63
-116.87
-133.04
-148.19
-162.46
-176.28
-190.55
-206.24
-223.76
-242.0
-258.19
-268.82
-270.92
-263.38
-247.05
-224.04
-196.41
-165.81
-133.26
-99.83
-67.05
-36.82
-10.89
9.92
25.9
38.31
48.34
57.04
65.2
73.17
80.91
87.79
92.77
94.7
92.86
86.52
76.44
64.8
54.28
46.65
41.77
37.85
32.67
25.01
13.46
-1.01
-15.83
-28.5
-38.15
-46.48
-56.33
-69.87
-87.14
-109.44
-136.0
-164.45
-191.7
-215.46
-235.36
-252.61
-268.8
-284.78
-304.42
-329.02
-356.7
-383.03
-403.52
-416.15
-421.55
-422.11
-394.1
-327.18
-226.28
-110.38
-1.15
87.45
151.0
191.65
214.33
224.9
224.36
214.02
196.6
175.75
156.66
142.75
135.28
133.79
137.43
141.77
143.62
142.31
139.9
139.9
145.35
158.46
177.21
200.01
223.2
244.01
261.36
276.14
290.88
308.8
333.39
367.11
410.24
457.74
500.46
527.64
530.68
506.61
459.3
398.04
334.1
276.84
230.2
192.98
160.77
128.59
92.42
50.03
1.32
-51.16
-101.52
-141.09
-160.11
-150.86
-111.09
-46.21
31.28
105.28
161.14
190.25
191.63
170.72
135.84
94.5
50.94
6.1
-40.66
-89.22
-137.12
-179.6
-211.06
-227.53
-228.32
-216.51
-197.45
-176.66
-157.82
-141.97
-128.36
-115.83
-104.05
-93.43
-84.11
-74.99
-63.71
-47.92
-27.26
-4.51
14.9
25.05
22.19
6.44
-18.28
-45.97
-70.72
-88.48
-97.78
-99.44
-95.51
-88.22
-79.14
-68.99
-57.94
-46.18
-34.34
-23.68
-15.59
-11.07
-10.33
-12.84
-17.88
-24.96
-33.97
-44.59
-55.42
-63.43
-64.57
-55.02
-33.39
-2.17
32.28
61.22
75.91
69.9
40.66
-9.87
-75.3
-145.88
-210.21
-257.91
-282.3
-282.32
-262.56
-231.58
-198.58
-170.18
-148.71
-132.37
-117.19
-99.23
-75.95
-46.41
-10.97
28.83
70.31
109.76
143.21
168.04
184.42
196.38
210.77
234.31
269.66
313.45
356.68
388.12
398.77
385.61
352.19
306.67
257.96
211.96
170.88
134.09
99.79
66.1
31.67
-4.18
-41.2
-78.09
-113.23
-144.47
-169.94
-188.49
-199.8
-203.92
-201.14
-191.98
-174.75
-151.28
-126.74
-107.97
-99.38
-100.58
-107.06
-113.5
-116.21
-114.31
-109.63
-104.31
-99.75
-95.82
-91.76
-85.42
-75.25
-60.73
-42.58
-22.92
-3.65
13.92
29.55
43.94
58.4
74.16
92.43
114.9
140.91
170.91
204.99
241.57
276.24
302.01
311.23
299.03
266.2
219.59
170.19
128.4
100.08
84.75
76.92
69.16
54.86
29.64
-8.3
-57.72
-114.49
-171.33
-218.54
-246.42
-248.48
-224.95
-184.04
-139.92
-107.91
-99.39
-117.93
-157.95
-206.65
-247.97
-268.36
-261.16
-227.77
-175.56
-114.02
-50.85
9.93
67.23
120.56
167.3
202.16
219.7
217.65
198.66
169.53
138.36
108.13
82.17
63.76
55.44
57.92
69.04
84.02
97.16
103.94
102.86
96.21
87.86
80.64
75.21
70.56
65.3
59.22
53.68
50.6
51.31
54.74
57.67
55.56
45.42
26.58
1.11
-27.42
-55.36
-80.25
-99.61
-114.68
-128.04
-141.73
-156.38
-171.25
-185.12
-196.75
-204.75
-207.26
-202.08
-186.8
-160.28
-124.12
-82.92
-42.95
-9.7
14.12
28.89
36.71
39.53
38.16
32.36
22.34
10.19
0.35
-1.88
6.81
25.31
47.59
63.98
65.58
47.79
12.43
-32.49
-75.63
-106.09
-116.42
-104.26
-72.82
-29.88
14.29
49.64
69.55
72.67
63.02
47.66
34.65
28.28
27.04
24.88
15.23
-5.2
-34.66
-67.2
-94.81
-110.52
-111.37
-99.34
-79.52
-60.26
-48.2
-43.74
-42.99
-39.92
-29.73
-11.04
14.21
42.8
71.93
99.84
124.13
140.13
142.39
127.66
98.06
61.54
29.34
10.03
4.81
6.81
4.69
-8.44
-30.69
-52.16
-62.37
-54.54
-30.38
-0.3
22.5
28.11
17.25
-0.49
-12.82
-11.91
3.33
29.91
63.69
102.11
142.78
184.93
226.21
261.74
285.01
283.94
254.06
200.62
145.27
96.89
55.83
14.43
-33.26
-89.53
-150.61
-206.12
-244.49
-259.07
-253.89
-240.13
-232.07
-240.45
-267.56
-305.95
-341.57
-361.29
-358.67
-336.36
-300.59
-257.75
-212.72
-170.48
-137.75
-121.96
-128.74
-158.02
-202.34
-247.15
-276.84
-281.33
-259.9
-220.13
-173.16
-128.75
-92.59
-66.58
-49.92
-41.13
-38.81
-41.47
-46.96
-52.48
-55.22
-53.71
-48.31
-40.7
-33.03
-26.78
-22.09
-17.75
-11.87
-2.9
9.58
24.56
40.07
53.96
64.87
72.8
79.03
85.52
94.02
105.43
119.62
135.84
153.23
171.33
190.25
210.59
233.23
259.24
289.57
324.51
363.13
402.38
437.31
462.39
473.53
469.82
453.82
430.39
404.68
381.14
362.14
348.45
339.98
336.21
335.92
336.51
333.95
323.65
303.64
274.13
237.56
197.56
157.82
121.52
90.96
67.64
52.24
46.89
52.48
68.56
93.74
126.29
164.52
206.45
248.95
287.36
319.34
342.59
355.85
359.25
354.27
343.34
329.26
314.64
281.54
220.09
128.85
16.99
-99.35
-204.6
-289.4
-351.29
-392.71
-418.31
-429.78
-428.66
-416.61
-395.82
-369.18
-339.9
-310.88
-284.69
-263.5
-246.58
-232.75
-221.57
-212.94
-207.09
-204.66
-206.2
-212.4
-223.91
-237.75
-251.85
-264.92
-276.71
-287.6
-297.32
-303.67
-302.42
-288.69
-258.77
-213.63
-159.18
-104.46
-58.18
-25.55
-6.76
1.73
4.55
5.31
5.16
3.81
1.05
-2.37
-4.96
-5.44
-3.75
-1.12
0.58
-0.47
-4.85
-11.64
-19.0
-25.06
-28.79
-30.47
-31.42
-33.27
-37.2
-43.2
-49.96
-55.39
-57.58
-55.54
-49.68
-41.7
-33.16
-25.08
-17.34
-8.73
2.39
16.98
34.52
52.76
68.36
78.27
81.0
77.54
71.08
65.77
64.9
69.4
77.38
85.1
88.8
86.65
79.89
72.49
69.64
75.47
91.54
115.55
141.53
161.05
165.34
147.91
106.78
45.98
-24.55
-91.01
-140.02
-163.31
-160.96
-141.82
-119.77
-108.02
-113.58
-134.33
-160.55
-179.92
-183.57
-169.83
-144.26
-115.78
-91.69
-73.8
-58.07
-37.71
-8.06
29.77
68.36
95.28
99.16
74.18
22.9
-44.23
-112.33
-167.15
-199.38
-206.61
-192.67
-164.53
-129.15
-91.19
-52.43
-12.67
29.12
74.0
122.13
172.52
222.78
268.93
305.65
327.41
330.13
312.86
278.74
234.35
188.16
148.64
122.42
113.36
122.35
147.66
185.4
229.95
274.34
311.0
333.09
335.76
317.44
280.06
228.15
167.21
102.78
40.42
-13.74
-53.16
-72.72
-71.19
-53.44
-29.99
-13.68
-15.12
-38.75
-81.57
-134.84
-187.61
-229.88
-254.48
-257.78
-239.73
-203.81
-156.74
-107.72
-66.63
-41.3
-35.04
-45.27
-64.39
-82.52
-91.36
-86.99
-70.07
-44.27
-13.73
18.25
48.64
73.48
88.03
88.94
77.08
58.51
42.31
36.32
43.23
59.83
79.56
96.86
109.64
118.52
124.26
125.44
118.32
99.11
67.06
26.21
-15.25
-48.13
-66.2
-68.71
-60.81
-51.34
-49.5
-61.69
-89.96
-132.49
-185.55
-245.35
-308.13
-369.1
-421.27
-456.76
-469.37
-457.85
-426.77
-385.28
-343.79
-310.2
-287.73
-274.36
-265.27
-254.86
-238.51
-212.33
-173.74
-122.62
-62.12
1.19
59.16
103.59
133.09
149.27
158.34
168.88
187.33
214.26
240.83
258.47
260.76
245.8
216.43
179.89
146.57
125.95
123.72
139.55
167.11
195.05
210.83
204.29
171.01
113.2
38.55
-41.58
-114.36
-167.3
-191.16
-181.84
-141.48
-78.09
-3.44
69.52
129.53
169.18
185.97
181.69
161.22
131.22
98.12
66.77
38.98
13.19
-14.35
-47.09
-85.54
-126.51
-164.05
-193.13
-212.09
-223.78
-233.78
-246.71
-263.11
-278.63
-287.23
-280.45
-256.3
-219.77
-180.42
-147.11
-123.41
-109.39
-99.08
-87.23
-71.69
-53.53
-34.61
-15.67
3.8
25.43
51.06
82.4
119.92
163.35
211.65
263.17
315.11
363.11
401.44
424.19
427.22
409.62
374.78
329.72
283.33
243.69
216.13
202.36
200.62
206.72
215.44
218.7
210.68
189.41
157.22
119.7
83.22
52.46
28.83
11.15
-1.52
-11.48
-20.81
-31.3
-44.55
-61.83
-83.61
-109.89
-139.94
-171.6
-202.28
-229.46
-251.6
-267.94
-278.33
-279.14
-267.66
-242.53
-204.62
-157.19
-104.7
-52.26
-3.85
38.12
73.12
101.42
123.76
140.94
153.43
161.53
164.51
162.74
156.47
146.77
134.67
120.99
105.88
88.89
69.52
46.17
18.51
-12.14
-43.02
-71.33
-95.29
-114.97
-132.27
-146.63
-160.88
-178.29
-201.56
-231.61
-266.92
-303.13
-333.83
-352.14
-345.44
-309.9
-251.42
-183.9
-122.47
-76.79
-48.28
-32.78
-24.39
-19.07
-17.02
-19.22
-25.52
-33.61
-39.97
-41.3
-37.16
-27.44
-13.36
2.3
17.6
32.01
46.34
61.85
79.58
99.37
120.43
141.78
162.36
182.15
201.81
221.84
239.14
250.06
250.9
239.79
217.73
188.37
156.97
128.41
105.53
88.86
77.83
71.69
70.2
72.83
77.83
81.68
79.77
67.92
44.19
9.63
-32.68
-79.33
-127.88
-176.45
-222.55
-261.99
-289.47
-300.33
-292.93
-269.88
-237.44
-202.92
-171.5
-144.68
-120.68
-96.78
-71.05
-43.41
-14.76
13.81
42.23
71.8
104.33
140.82
179.85
217.77
249.47
270.74
279.43
276.36
265.21
250.52
235.9
222.28
209.05
191.39
167.35
137.52
104.1
69.8
37.51
13.57
2.36
7.95
32.19
73.05
123.14
170.18
202.04
211.51
198.9
170.54
135.71
102.09
73.81
51.14
32.53
16.57
3.18
-7.39
-16.33
-26.22
-40.32
-60.9
-88.28
-120.87
-156.49
-193.12
-230.68
-271.98
-321.2
-381.28
-450.66
-521.79
-582.61
-620.71
-626.58
-596.84
-535.26
-451.05
-355.75
-260.51
-174.55
-99.65
-39.37
4.38
33.51
53.27
69.06
83.11
93.48
96.71
91.93
82.41
74.83
76.55
92.43
122.72
163.46
207.95
249.02
277.27
285.01
268.13
226.39
163.19
84.71
-0.36
-81.68
-148.69
-192.75
-209.35
-199.24
-168.87
-129.26
-92.88
-69.69
-63.76
-72.21
-86.82
-97.38
-95.26
-76.57
-42.56
1.7
50.11
97.86
142.56
183.7
221.42
255.89
286.98
315.21
342.07
369.25
396.87
422.13
439.63
443.3
429.54
398.55
355.17
307.32
263.21
228.55
205.22
191.61
184.18
179.28
172.73
160.72
139.91
108.42
66.72
17.98
-32.47
-78.75
-116.69
-147.29
-175.9
-209.75
-253.92
-308.78
-369.52
-428.37
-477.4
-502.76
-494.87
-451.61
-380.13
-293.57
-205.39
-124.95
-56.82
-1.89
40.95
71.97
91.63
99.23
94.33
77.26
48.96
9.94
-39.69
-96.92
-156.27
-209.46
-247.21
-262.04
-251.81
-220.87
-179.02
-137.18
-102.95
-79.35
-64.92
-56.26
-50.17
-46.28
-44.11
-43.16
-41.83
-37.43
-28.06
-13.66
3.53
20.17
32.75
39.38
40.35
38.19
37.1
41.41
54.62
76.75
106.24
139.48
171.36
196.15
209.24
208.73
196.13
175.73
152.95
132.56
116.82
105.3
95.55
84.69
70.49
52.53
32.73
15.4
6.46
11.04
30.48
59.86
88.55
104.21
98.39
70.66
28.72
-14.95
-49.06
-67.17
-68.82
-57.65
-38.61
-16.38
4.62
19.69
25.12
19.6
6.77
-5.91
-11.21
-6.84
2.17
5.82
-5.38
-33.33
-70.83
-102.69
-111.9
-86.86
-26.11
61.62
161.61
257.91
339.34
393.28
411.73
394.82
351.84
297.07
242.73
199.64
166.55
141.09
121.51
106.84
94.92
81.4
63.02
39.25
13.1
-11.15
-29.65
-42.47
-53.23
-67.23
-88.69
-119.3
-158.55
-204.89
-257.15
-312.92
-367.87
-414.35
-442.56
-444.12
-416.25
-364.12
-299.33
-235.73
-183.66
-147.07
-123.34
-106.34
-90.43
-73.24
-55.98
-41.48
-31.81
-26.66
-23.77
-20.51
-15.33
-8.46
-1.55
3.5
5.67
5.28
3.84
3.16
4.37
7.43
11.33
14.6
16.09
15.46
13.18
10.19
7.4
5.3
3.91
3.02
2.5
2.53
3.47
5.67
9.21
13.84
18.99
23.94
27.97
30.47
31.13
30.05
27.76
25.17
23.25
22.67
23.49
25.14
26.65
27.13
26.06
23.42
19.65
15.35
11.12
7.41
4.62
3.01
2.69
3.54
5.15
6.95
8.3
8.78
8.2
6.65
4.45
2.03
-0.17
-1.74
-2.43
-2.21
-1.34
-0.22
0.69
1.09
0.84
-0.0
-1.41
-3.34
-5.83
-8.87
-12.29
-15.82
-19.09
-21.8
-23.76
-24.91
-25.23
-24.74
-23.42
-21.34
-18.68
-15.74
-12.91
-10.5
-8.71
-7.52
-6.8
-6.37
-6.04
-5.7
-5.29
-4.87
-4.55
-4.53
-5.03
-6.26
-8.38
-11.33
-14.86
-18.45
-21.52
-23.48
-24.01
-23.17
-21.45
-19.71
-18.94
-19.89
-22.74
-26.98
-31.54
-35.17
-36.91
-36.36
-33.73
-29.62
-24.58
-18.8
-12.08
-3.9
6.11
17.93
31.08
44.58
57.01
66.62
71.2
68.32
55.88
33.06
1.34
-34.95
-68.98
-93.03
-100.85
-89.99
-62.65
-24.89
15.69
52.62
82.23
103.75
118.24
127.19
131.64
132.26
129.65
124.56
117.62
109.03
98.48
85.91
72.12
59.06
49.36
44.96
46.03
50.5
54.41
52.9
41.47
17.65
-17.46
-58.0
-93.99
-114.18
-110.42
-81.66
-35.0
17.05
62.09
93.16
110.85
121.38
131.94
146.47
164.05
180.71
192.81
199.76
204.47
211.57
224.51
243.69
266.22
287.06
301.01
304.59
296.8
279.05
254.38
226.59
199.27
175.16
155.81
141.71
132.44
126.85
123.2
119.3
112.64
100.81
81.99
55.33
21.42
-17.51
-57.43
-92.89
-118.24
-129.24
-124.8
-107.93
-85.02
-63.64
-49.89
-46.33
-51.33
-60.78
-70.61
-78.52
-84.7
-90.82
-98.62
-108.97
-121.94
-137.57
-156.56
-179.91
-207.86
-238.95
-269.5
-294.4
-308.93
-310.41
-299.3
-279.0
-254.4
-230.21
-209.67
-194.0
-182.86
-175.14
-169.57
-165.2
-161.55
-158.33
-155.42
-152.57
-149.29
-144.9
-138.82
-130.77
-120.95
-110.06
-98.96
-88.39
-78.68
-69.69
-61.06
-52.43
-43.64
-34.7
-25.73
-16.75
-7.68
1.62
11.18
20.89
30.52
39.82
48.67
57.12
65.32
73.24
80.52
86.35
89.63
89.21
84.28
74.7
61.01
44.43
26.52
9.0
-6.53
-18.73
-26.67
-30.03
-29.03
-24.54
-17.78
-10.01
-2.22
5.04
11.64
17.58
22.94
27.73
31.91
35.57
38.72
41.21
42.49
41.65
37.64
29.73
17.99
3.4
-12.3
-27.11
-39.27
-47.68
-51.96
-52.37
-49.56
-44.29
-37.35
-29.32
-20.69
-11.86
-3.16
5.12
12.74
19.62
25.83
31.62
37.32
43.09
48.81
53.93
57.65
59.09
57.6
52.93
45.26
35.21
23.57
11.3
-0.66
-11.43
-20.24
-26.57
-30.15
-31.09
-29.69
-26.43
-21.75
-16.06
-9.73
-3.1
3.54
9.92
15.89
21.4
26.35
30.53
33.55
34.84
33.86
30.22
23.82
14.86
3.83
-8.58
-21.55
-34.06
-44.97
-53.16
-57.74
-58.25
-54.84
-48.16
-39.23
-29.1
-18.6
-8.3
1.52
10.67
19.07
26.57
33.11
38.53
42.65
45.22
45.92
44.52
40.98
35.52
28.63
20.92
13.01
5.49
-1.18
-6.61
-10.5
-12.71
-13.24
-12.33
-10.31
-7.48
-4.0
0.11
4.89
10.33
16.19
22.04
27.28
31.31
33.63
33.96
32.21
28.48
22.99
16.07
8.11
-0.4
-8.9
-16.86
-23.82
-29.47
-33.68
-36.5
-38.09
-38.64
-38.3
-37.11
-34.99
-31.76
-27.18
-21.18
-13.93
-5.95
1.99
8.96
14.21
17.32
18.29
17.44
15.28
12.34
8.99
5.51
2.09
-1.05
-3.63
-5.34
-5.91
-5.23
-3.28
-0.16
3.98
8.94
14.43
20.01
25.07
28.99
31.25
31.59
30.06
27.01
22.92
18.29
13.53
8.97
4.84
1.25
-1.75
-4.2
-6.13
-7.47
-8.03
-7.54
-5.77
-2.66
1.46
5.97
9.98
12.7
13.6
12.59
10.01
6.38
2.2
-2.25
-6.96
-12.06
-17.63
-23.59
-29.58
-35.01
-39.22
-41.59
-41.61
-38.97
-33.67
-26.02
-16.68
-6.55
3.34
12.02
18.77
23.23
25.4
25.57
24.19
21.7
18.55
15.13
11.76
8.75
6.32
4.53
3.41
2.94
3.2
4.32
6.55
9.98
14.46
19.51
24.36
28.24
30.58
31.17
30.09
27.64
24.08
19.66
14.56
8.96
3.16
-2.56
-7.9
-12.64
-16.64
-19.79
-21.92
-22.86
-22.47
-20.73
-17.86
-14.3
-10.63
-7.4
-5.09
-3.98
-4.2
-5.78
-8.7
-12.85
-18.04
-23.89
-29.79
-34.96
-38.56
-39.92
-38.67
-34.82
-28.75
-21.06
-12.47
-3.67
4.72
12.22
18.41
23.0
25.87
27.07
26.8
25.41
23.25
20.61
17.72
14.71
11.65
8.61
5.74
3.26
1.52
0.85
1.52
3.61
6.98
11.18
15.6
19.6
22.64
24.37
24.71
23.7
21.52
18.34
14.34
9.71
4.71
-0.36
-5.17
-9.46
-13.01
-15.76
-17.67
-18.71
-18.83
-17.98
-16.13
-13.37
-9.92
-6.17
-2.65
0.01
1.22
0.54
-2.2
-6.76
-12.58
-18.84
-24.64
-29.2
-32.04
-33.02
-32.33
-30.4
-27.68
-24.57
-21.23
-17.62
-13.54
-8.85
-3.53
2.18
7.89
13.14
17.52
20.82
23.04
24.27
24.67
24.36
23.36
21.7
19.46
16.84
14.16
11.75
9.87
8.67
8.13
8.1
8.36
8.7
8.95
9.02
8.92
8.72
8.46
8.21
7.93
7.55
6.91
5.88
4.36
2.27
-0.32
-3.33
-6.55
-9.79
-12.84
-15.56
-17.97
-20.16
-22.31
-24.55
-26.84
-28.84
-30.03
-29.81
-27.78
-23.9
-18.53
-12.38
-6.17
-0.56
4.06
7.5
9.77
10.96
11.27
10.98
10.45
10.01
9.87
10.1
10.58
11.15
11.6
11.81
11.74
11.44
11.02
10.64
10.44
10.53
10.93
11.54
12.18
12.64
12.73
12.38
11.56
10.35
8.9
7.37
5.95
4.78
3.85
3.1
2.41
1.67
0.83
-0.12
-1.15
-2.23
-3.41
-4.76
-6.33
-8.1
-10.02
-12.0
-13.99
-16.01
-18.17
-20.6
-23.35
-26.32
-29.13
-31.22
-31.89
-30.64
-27.32
-22.25
-16.13
-9.84
-4.14
0.51
3.95
6.33
7.9
8.92
9.63
10.15
10.57
10.91
11.16
11.36
11.54
11.76
12.07
12.46
12.87
13.24
13.5
13.67
13.75
13.76
13.72
13.59
13.39
13.08
12.67
12.15
11.52
10.75
9.81
8.73
7.51
6.18
4.82
3.5
2.27
1.16
0.08
-1.09
-2.48
-4.21
-6.25
-8.42
-10.48
-12.26
-13.74
-15.12
-16.72
-18.89
-21.84
-25.51
-29.57
-33.41
-36.33
-37.69
-37.06
-34.32
-29.71
-23.76
-17.17
-10.67
-4.93
-0.35
2.91
4.96
6.08
6.66
7.01
7.38
7.85
8.37
8.92
9.5
10.13
10.87
11.74
12.69
13.7
14.69
15.64
16.53
17.35
18.07
18.59
18.84
18.72
18.22
17.43
16.5
15.56
14.69
13.87
12.97
11.85
10.45
8.81
7.07
5.38
3.8
2.28
0.66
-1.16
-3.23
-5.49
-7.78
-9.92
-11.82
-13.5
-15.06
-16.73
-18.73
-21.29
-24.49
-28.16
-31.87
-34.96
-36.66
-36.34
-33.73
-29.01
-22.77
-15.88
-9.21
-3.44
1.04
4.2
6.24
7.47
8.26
8.87
9.48
10.16
10.95
11.87
12.89
13.95
14.96
15.79
16.39
16.78
17.07
17.44
18.02
18.86
19.87
20.89
21.71
22.17
22.16
21.67
20.8
19.6
18.19
16.64
15.04
13.47
12.0
10.65
9.41
8.24
7.02
5.68
4.15
2.43
0.53
-1.47
-3.56
-5.68
-7.77
-9.8
-11.77
-13.68
-15.67
-17.92
-20.61
-23.84
-27.58
-31.51
-35.08
-37.57
-38.34
-37.03
-33.72
-28.92
-23.41
-18.0
-13.25
-9.43
-6.45
-4.01
-1.73
0.77
3.77
7.42
11.7
16.36
21.0
25.09
28.15
29.81
29.96
28.68
26.25
23.04
19.44
15.78
12.33
9.28
6.8
5.03
4.19
4.46
6.06
9.04
13.26
18.25
23.32
27.64
30.46
31.31
30.04
26.85
22.15
16.38
9.97
3.31
-3.28
-9.45
-14.88
-19.26
-22.36
-24.06
-24.38
-23.46
-21.63
-19.35
-17.26
-15.99
-15.98
-17.31
-19.58
-22.05
-23.89
-24.49
-23.7
-21.82
-19.39
-17.0
-14.98
-13.33
-11.83
-10.11
-7.82
-4.65
-0.45
4.77
10.83
17.26
23.44
28.62
32.14
33.58
32.87
30.31
26.48
22.08
17.76
14.0
11.09
9.13
8.17
8.18
9.16
11.11
13.86
17.18
20.62
23.68
25.82
26.64
25.91
23.57
19.7
14.44
7.99
0.65
-7.17
-14.91
-21.97
-27.8
-32.01
-34.48
-35.29
-34.69
-32.99
-30.53
-27.54
-24.14
-20.33
-16.08
-11.43
-6.57
-1.92
2.02
4.7
5.86
5.47
3.82
1.37
-1.29
-3.56
-4.85
-4.66
-2.71
1.03
6.22
12.23
18.31
23.71
27.92
30.6
31.7
31.28
29.52
26.67
22.96
18.66
14.03
9.31
4.79
0.81
-2.2
-3.84
-3.85
-2.26
0.63
4.16
7.58
10.16
11.35
10.89
8.74
5.08
0.14
-5.77
-12.37
-19.39
-26.55
-33.51
-39.83
-44.88
-47.88
-48.0
-44.65
-37.69
-27.65
-15.71
-3.39
7.76
16.59
22.46
25.32
25.53
23.69
20.49
16.65
12.8
9.48
7.1
5.93
6.09
7.54
10.12
13.59
17.56
21.68
25.58
28.94
31.49
32.94
33.05
31.61
28.55
23.98
18.28
11.97
5.65
-0.07
-4.71
-7.92
-9.55
-9.62
-8.35
-6.14
-3.49
-0.97
0.88
1.63
1.03
-1.05
-4.54
-9.25
-14.88
-21.12
-27.66
-34.22
-40.54
-46.31
-51.11
-54.3
-55.15
-53.04
-47.72
-39.5
-29.3
-18.43
-8.24
0.13
6.03
9.28
10.09
8.95
6.54
3.66
1.04
-0.66
-1.05
0.01
2.44
6.04
10.53
15.56
20.72
25.52
29.49
32.26
33.65
33.64
32.39
30.07
26.89
23.02
18.7
14.24
10.05
6.56
4.21
3.36
4.19
6.66
10.46
15.02
19.67
23.74
26.68
28.2
28.18
26.64
23.71
19.48
14.07
7.68
0.61
-6.72
-13.76
-19.97
-24.92
-28.37
-30.33
-31.06
-30.85
-30.04
-28.82
-27.24
-25.23
-22.7
-19.57
-15.91
-11.98
-8.17
-4.96
-2.74
-1.74
-1.9
-2.93
-4.4
-5.85
-6.85
-7.03
-6.12
-3.85
-0.07
5.24
11.85
19.27
26.81
33.65
39.04
42.45
43.62
42.66
39.88
35.75
30.73
25.17
19.29
13.3
7.34
1.68
-3.36
-7.38
-9.94
-10.62
-8.99
-4.8
1.92
10.68
20.45
29.8
37.15
41.19
41.11
36.79
28.71
17.78
5.1
-8.21
-21.13
-32.8
-42.55
-49.93
-54.64
-56.5
-55.43
-51.48
-44.86
-36.02
-25.51
-13.97
-2.05
9.57
20.15
28.9
35.04
38.02
37.74
34.66
29.74
24.15
18.99
14.97
12.37
11.01
10.46
10.27
10.16
10.13
10.44
11.48
13.61
16.98
21.44
26.53
31.57
35.64
37.59
36.17
30.38
19.82
5.11
-12.15
-29.72
-45.32
-57.32
-65.06
-68.76
-69.18
-67.19
-63.46
-58.53
-52.85
-46.96
-41.42
-36.63
-32.68
-29.31
-26.03
-22.35
-18.1
-13.55
-9.35
-6.27
-4.87
-5.26
-7.04
-9.49
-11.74
-13.07
-13.04
-11.47
-8.47
-4.31
0.66
6.03
11.46
16.72
21.75
26.62
31.5
36.5
41.61
46.56
50.76
53.43
53.7
50.92
44.94
36.25
25.91
15.3
5.73
-1.94
-7.45
-11.04
-13.21
-14.39
-14.73
-14.19
-12.62
-9.94
-6.29
-1.97
2.66
7.18
11.2
14.25
15.73
14.95
11.29
4.54
-4.87
-15.68
-25.97
-33.62
-36.9
-35.03
-28.48
-18.8
-8.12
1.61
9.25
14.78
19.14
23.62
29.17
35.88
42.81
48.32
50.86
49.71
45.49
40.01
35.6
34.09
36.01
40.46
45.59
49.4
50.42
47.95
42.01
33.41
24.0
16.94
16.07
24.41
41.94
64.26
83.14
89.35
76.36
43.01
-6.28
-63.99
-123.16
-179.85
-233.11
-282.67
-326.29
-358.87
-374.13
-368.07
-341.65
-301.17
-255.82
-213.77
-179.23
-151.67
-127.5
-102.92
-76.3
-48.61
-22.24
0.87
20.69
39.29
59.83
85.06
115.8
150.04
183.09
208.64
220.83
216.34
195.87
164.23
128.78
96.9
73.35
58.88
50.62
43.81
34.34
20.58
3.81
-12.68
-25.36
-32.27
-33.79
-32.59
-32.58
-37.35
-48.77
-66.07
-85.65
-102.17
-110.13
-105.73
-88.04
-59.15
-23.17
15.25
52.09
84.48
110.57
129.37
140.98
146.87
149.68
152.2
155.87
159.89
161.79
159.14
151.47
140.98
131.34
125.83
125.64
129.62
135.59
142.15
149.67
159.79
173.96
191.63
209.82
223.93
229.48
223.43
204.79
174.47
134.8
89.29
42.2
-1.86
-38.87
-66.48
-84.7
-95.55
-102.11
-107.11
-111.94
-116.56
-120.31
-122.85
-124.65
-126.64
-129.52
-133.17
-136.71
-139.02
-139.39
-137.81
-134.82
-131.17
-127.41
-123.65
-119.51
-114.3
-107.17
-97.35
-84.03
-66.2
-42.65
-12.39
24.5
65.96
107.68
143.99
169.51
181.14
179.15
166.89
149.32
130.98
114.63
100.91
89.06
77.65
65.2
50.36
32.09
10.03
-15.04
-41.02
-65.01
-84.09
-96.29
-100.97
-98.72
-90.76
-78.55
-63.85
-48.91
-36.56
-29.61
-29.91
-37.43
-50.12
-64.61
-77.59
-86.95
-92.37
-94.91
-96.1
-96.95
-97.41
-96.57
-93.3
-87.05
-78.32
-68.62
-60.01
-54.28
-52.37
-53.97
-57.67
-61.34
-62.76
-60.27
-53.24
-42.25
-28.91
-15.46
-4.13
3.38
6.34
5.05
0.71
-4.83
-9.61
-11.89
-10.72
-6.16
0.64
7.77
13.11
15.05
13.01
7.53
0.08
-7.42
-13.04
-15.24
-13.1
-6.51
3.83
16.47
29.54
41.19
49.99
55.25
56.91
55.42
51.31
45.06
37.01
27.47
16.93
6.04
-4.42
-13.77
-21.61
-27.95
-33.12
-37.6
-41.74
-45.47
-48.32
-49.51
-48.23
-43.92
-36.45
-26.11
-13.54
0.42
14.79
28.57
40.78
50.65
57.68
61.85
63.46
63.1
61.39
58.9
56.04
53.07
50.14
47.3
44.55
41.78
38.87
35.67
32.05
27.95
23.28
18.04
12.19
5.81
-0.98
-7.95
-14.73
-20.92
-26.11
-29.97
-32.33
-33.23
-32.89
-31.72
-30.19
-28.72
-27.6
-26.94
-26.71
-26.8
-27.15
-27.75
-28.61
-29.46
-29.72
-28.47
-24.82
-18.23
-8.76
2.91
15.9
29.45
43.1
56.55
69.36
80.72
89.46
94.52
95.37
92.34
86.52
79.37
72.27
66.12
61.26
57.54
54.49
51.51
48.11
43.98
39.03
33.37
27.23
20.82
14.28
7.64
0.95
-5.68
-12.02
-17.72
-22.41
-25.73
-27.34
-26.9
-24.1
-18.74
-10.87
-0.9
10.32
21.65
31.99
40.65
47.38
52.34
55.66
57.22
56.45
52.63
45.29
34.64
21.64
7.7
-5.86
-18.29
-29.54
-39.94
-49.76
-58.82
-66.47
-71.91
-74.64
-74.76
-72.94
-70.13
-67.22
-64.74
-62.82
-61.32
-60.05
-58.89
-57.87
-57.1
-56.68
-56.58
-56.6
-56.41
-55.67
-54.22
-52.22
-50.17
-48.73
-48.53
-49.97
-53.07
-57.49
-62.53
-67.21
-70.37
-70.92
-68.2
-62.1
-53.23
-42.59
-31.25
-20.02
-9.27
0.93
10.54
19.36
27.02
33.11
37.44
40.12
41.51
42.08
42.2
42.09
41.76
41.2
40.39
39.38
38.31
37.29
36.41
35.69
35.09
34.51
33.89
33.18
32.42
31.63
30.82
30.03
29.2
28.27
27.18
25.91
24.45
22.78
20.87
18.68
16.24
13.63
11.0
8.57
6.52
4.89
3.62
2.51
1.35
-0.02
-1.67
-3.48
-5.31
-6.98
-8.44
-9.77
-11.09
-12.61
-14.38
-16.35
-18.28
-19.88
-20.85
-21.05
-20.44
-19.12
-17.25
-15.04
-12.64
-10.19
-7.75
-5.38
-3.09
-0.91
1.12
2.96
4.54
5.86
6.92
7.75
8.35
8.71
8.84
8.79
8.64
8.53
8.63
9.05
9.78
10.67
11.47
11.93
11.88
11.31
10.33
9.17
8.05
7.13
6.46
5.95
5.44
4.82
4.0
2.99
1.88
0.79
-0.15
-0.87
-1.38
-1.74
-2.09
-2.55
-3.24
-4.19
-5.4
-6.74
-8.1
-9.39
-10.63
-11.94
-13.48
-15.42
-17.81
-20.55
-23.37
-25.85
-27.5
-27.91
-26.81
-24.25
-20.51
-16.11
-11.64
-7.62
-4.36
-1.94
-0.23
1.01
2.03
3.0
4.0
4.95
5.72
6.25
6.51
6.65
6.88
7.42
8.37
9.67
11.11
12.49
13.59
14.32
14.67
14.67
14.34
13.73
12.92
12.08
11.39
10.94
10.74
10.67
10.54
10.19
9.6
8.82
7.99
7.21
6.52
5.84
5.05
4.02
2.7
1.11
-0.7
-2.63
-4.59
-6.53
-8.39
-10.14
-11.66
-12.91
-13.81
-14.34
-14.62
-14.8
-15.13
-15.84
-17.12
-18.95
-21.15
-23.36
-25.15
-26.13
-26.06
-24.89
-22.69
-19.69
-16.17
-12.42
-8.77
-5.48
-2.78
-0.71
0.8
1.95
2.95
3.91
4.86
5.72
6.4
6.88
7.25
7.64
8.13
8.72
9.27
9.59
9.57
9.19
8.6
8.05
7.72
7.7
7.95
8.31
8.67
8.97
9.2
9.34
9.39
9.3
9.08
8.73
8.28
7.69
6.88
5.75
4.26
2.48
0.58
-1.17
-2.6
-3.6
-4.22
-4.57
-4.77
-4.94
-5.19
-5.66
-6.46
-7.69
-9.34
-11.37
-13.68
-16.17
-18.82
-21.56
-24.25
-26.61
-28.25
-28.73
-27.8
-25.44
-21.89
-17.63
-13.2
-9.08
-5.6
-2.88
-0.83
0.73
2.0
3.21
4.5
5.93
7.49
9.13
10.73
12.15
13.32
14.2
14.79
15.11
15.16
14.93
14.42
13.68
12.81
11.93
11.16
10.56
10.14
9.89
9.81
9.91
10.15
10.41
10.44
10.0
8.89
7.08
4.77
2.3
0.06
-1.62
-2.6
-2.91
-2.78
-2.53
-2.54
-3.11
-4.42
-6.5
-9.19
-12.28
-15.52
-18.72
-21.69
-24.31
-26.4
-27.78
-28.33
-27.97
-26.74
-24.79
-22.31
-19.54
-16.72
-14.07
-11.79
-10.06
-8.93
-8.39
-8.38
-8.77
-9.46
-10.42
-11.73
-13.43
-15.61
-18.18
-20.98
-23.74
-26.29
-28.63
-30.92
-33.45
-36.46
-40.07
-44.12
-48.18
-51.56
-53.34
-52.46
-48.0
-39.38
-26.62
-10.45
7.76
26.26
43.35
57.73
68.76
76.44
81.21
83.67
84.23
82.89
79.31
73.08
64.05
52.44
38.9
24.27
9.52
-4.48
-16.91
-27.01
-34.11
-37.73
-37.77
-34.53
-28.76
-21.46
-13.62
-6.0
0.95
7.05
12.26
16.52
19.68
21.53
21.9
20.79
18.42
15.26
11.89
8.96
7.06
6.65
8.0
11.06
15.47
20.62
25.81
30.42
34.1
36.75
38.43
39.21
39.13
38.17
36.34
33.77
30.73
27.51
24.33
21.29
18.33
15.37
12.35
9.29
6.23
3.18
0.08
-3.15
-6.52
-9.94
-13.17
-15.94
-18.05
-19.49
-20.38
-20.98
-21.56
-22.27
-23.23
-24.51
-26.2
-28.38
-31.04
-33.95
-36.64
-38.44
-38.73
-37.13
-33.72
-28.91
-23.29
-17.38
-11.52
-5.89
-0.7
3.78
7.24
9.58
10.98
11.88
12.85
14.21
15.9
17.53
18.63
18.93
18.46
17.58
16.69
16.1
15.85
15.88
16.0
16.11
16.11
16.0
15.82
15.63
15.52
15.52
15.67
15.89
16.11
16.22
16.17
15.96
15.54
14.87
13.87
12.52
10.91
9.18
7.51
6.03
4.77
3.61
2.4
0.96
-0.74
-2.63
-4.58
-6.42
-8.09
-9.67
-11.3
-13.11
-15.24
-17.74
-20.57
-23.68
-26.95
-30.15
-32.9
-34.71
-35.08
-33.7
-30.6
-26.17
-21.07
-15.98
-11.41
-7.58
-4.46
-1.81
0.62
3.04
5.58
8.24
10.97
13.66
16.16
18.32
20.08
21.4
22.37
23.05
23.5
23.72
23.74
23.56
23.35
23.29
23.63
24.47
25.8
27.35
28.75
29.63
29.7
28.93
27.44
25.52
23.46
21.56
20.07
19.2
19.14
19.92
21.34
22.89
23.87
23.54
21.47
17.73
12.95
8.12
4.21
1.79
0.88
0.93
1.13
0.71
-0.75
-3.24
-6.37
-9.67
-12.73
-15.39
-17.79
-20.19
-22.81
-25.71
-28.67
-31.21
-32.78
-32.87
-31.22
-27.89
-23.25
-17.84
-12.3
-7.21
-2.99
0.17
2.42
4.23
6.36
9.45
13.61
18.08
21.27
21.36
17.36
9.87
1.38
-4.48
-4.16
4.24
20.34
41.5
63.86
83.58
97.89
105.51
106.58
102.26
94.41
85.42
77.88
73.93
74.49
78.58
83.38
85.27
81.28
70.42
54.1
35.25
16.84
0.62
-13.3
-25.83
-37.86
-49.55
-60.43
-69.97
-78.27
-86.05
-94.09
-102.57
-110.67
-116.82
-119.44
-117.66
-111.66
-102.62
-92.15
-81.75
-72.4
-64.51
-58.02
-52.63
-48.02
-43.98
-40.43
-37.36
-34.75
-32.56
-30.59
-28.56
-26.14
-23.06
-19.15
-14.41
-9.11
-3.57
1.75
6.53
10.57
13.88
16.55
18.69
20.26
21.15
21.22
20.34
18.56
16.08
13.19
10.21
7.35
4.68
2.15
-0.31
-2.83
-5.48
-8.25
-11.14
-14.1
-17.02
-19.85
-22.48
-24.84
-26.97
-28.99
-31.16
-33.75
-36.87
-40.35
-43.61
-45.86
-46.3
-44.47
-40.42
-34.78
-28.49
-22.5
-17.48
-13.65
-10.88
-8.86
-7.27
-5.94
-4.84
-4.05
-3.62
-3.61
-4.06
-4.99
-6.41
-8.34
-10.63
-13.07
-15.37
-17.24
-18.52
-19.19
-19.38
-19.23
-18.84
-18.13
-16.98
-15.22
-12.83
-9.91
-6.57
-2.92
1.08
5.5
10.42
15.8
21.48
27.17
32.6
37.52
41.79
45.37
48.27
50.67
52.83
55.11
57.85
61.26
65.42
70.09
74.83
78.97
81.73
82.39
80.5
75.98
69.12
60.45
50.49
39.63
28.09
16.05
3.78
-8.25
-19.46
-29.34
-37.53
-44.0
-49.0
-53.04
-56.76
-60.74
-65.07
-68.96
-70.6
-67.41
-56.92
-37.81
-10.79
21.31
54.12
83.01
104.33
116.37
119.54
115.92
108.4
99.78
92.08
86.26
82.22
79.09
75.67
70.94
64.38
56.15
47.07
38.49
31.85
28.27
27.97
30.05
32.6
33.19
29.69
21.08
7.78
-8.52
-25.51
-41.14
-54.24
-64.74
-73.37
-81.15
-88.93
-97.14
-105.78
-114.42
-122.31
-128.42
-131.48
-130.29
-124.11
-113.05
-98.29
-81.81
-65.84
-52.08
-41.25
-33.03
-26.43
-20.4
-14.28
-8.02
-1.97
3.35
7.67
10.95
13.4
15.28
16.8
17.99
18.75
18.86
18.07
16.3
13.7
10.79
8.32
7.05
7.44
9.45
12.62
16.12
19.08
20.84
21.25
20.78
20.49
21.73
25.61
32.48
41.45
50.64
57.64
60.51
58.44
51.95
42.5
31.76
21.0
10.85
1.49
-7.04
-14.61
-20.97
-25.99
-29.85
-32.96
-35.85
-38.83
-41.79
-44.21
-45.33
-44.5
-41.46
-36.39
-29.99
-23.21
-16.98
-11.97
-8.4
-6.04
-4.35
-2.76
-0.84
1.48
4.0
6.38
8.36
9.88
11.09
12.25
13.61
15.27
17.17
19.07
20.69
21.8
22.31
22.31
22.05
21.86
21.99
22.53
23.38
24.29
24.91
24.98
24.38
23.09
21.2
18.78
15.85
12.44
8.64
4.65
0.79
-2.59
-5.25
-7.13
-8.36
-9.24
-10.1
-11.22
-12.72
-14.57
-16.58
-18.45
-19.84
-20.45
-20.12
-18.86
-16.84
-14.29
-11.46
-8.55
-5.66
-2.87
-0.24
2.17
4.28
6.02
7.28
7.95
7.98
7.49
6.79
6.45
7.0
8.7
11.29
14.03
15.96
16.34
15.07
12.68
10.13
8.21
7.22
6.81
6.26
4.93
2.67
-0.07
-2.57
-4.14
-4.62
-4.32
-3.89
-3.87
-4.46
-5.53
-6.72
-7.86
-8.98
-10.2
-11.49
-12.39
-12.12
-9.95
-5.6
0.41
6.86
12.24
15.29
15.47
13.0
8.59
3.07
-3.02
-9.43
-16.03
-22.51
-28.15
-31.9
-32.73
-29.93
-23.28
-13.04
0.26
15.85
32.74
49.51
64.24
74.86
79.69
78.16
71.24
61.24
51.11
43.37
39.38
38.96
40.8
43.1
44.15
42.62
37.63
28.76
16.39
1.9
-12.32
-23.47
-29.37
-29.44
-24.91
-18.32
-12.3
-8.62
-7.78
-9.44
-13.02
-18.02
-23.76
-28.93
-31.38
-28.65
-19.02
-2.64
18.17
39.4
56.69
66.66
67.94
61.41
49.61
35.85
23.19
13.71
8.24
6.4
6.86
7.89
7.79
5.32
0.06
-7.64
-16.76
-26.06
-34.48
-41.46
-47.0
-51.53
-55.64
-59.74
-63.81
-67.44
-69.87
-70.25
-68.02
-63.09
-56.05
-48.13
-40.79
-35.42
-32.84
-33.18
-35.89
-40.05
-44.67
-49.0
-52.66
-55.5
-57.58
-58.9
-59.41
-59.09
-58.04
-56.62
-55.45
-55.3
-56.77
-60.02
-64.61
-69.47
-73.11
-74.03
-71.08
-63.73
-52.22
-37.43
-20.67
-3.44
12.87
27.14
38.63
47.08
52.59
55.57
56.61
56.29
55.1
53.39
51.24
48.58
45.18
40.83
35.48
29.37
23.03
17.05
11.98
8.01
4.96
2.38
-0.26
-3.32
-6.94
-10.95
-15.0
-18.52
-20.85
-21.35
-19.63
-15.73
-10.29
-4.46
0.44
3.25
3.43
1.21
-2.51
-6.52
-9.74
-11.68
-12.62
-13.6
-15.96
-20.85
-28.63
-38.68
-49.47
-59.23
-66.68
-71.62
-75.03
-78.49
-83.43
-90.38
-98.71
-106.82
-112.84
-115.17
-113.04
-106.81
-98.14
-89.76
-84.87
-85.74
-92.25
-101.22
-106.94
-103.25
-86.09
-55.58
-16.17
24.81
59.34
81.1
86.48
74.75
47.84
9.98
-32.62
-72.79
-103.89
-121.4
-123.31
-109.87
-82.85
-45.5
-3.44
34.73
58.47
58.89
32.95
-13.24
-65.55
-106.78
-123.56
-111.47
-75.87
-28.31
19.02
57.69
84.86
101.92
112.11
118.43
122.27
123.47
121.16
115.05
106.56
99.36
98.77
110.34
137.7
180.5
233.66
288.17
333.57
361.04
366.12
349.81
317.84
278.71
240.28
207.75
182.85
164.89
152.59
145.67
144.68
150.03
160.8
174.53
188.19
199.2
205.97
207.58
203.66
194.4
181.33
167.74
157.91
155.18
159.85
168.27
174.13
171.59
158.1
135.61
109.24
84.06
62.69
44.37
26.11
4.9
-20.77
-50.99
-85.45
-124.38
-168.38
-217.02
-267.45
-314.12
-350.24
-370.36
-372.55
-359.06
-335.06
-306.41
-277.79
-252.15
-231.42
-217.5
-212.64
-218.69
-235.92
-262.16
-292.96
-322.64
-345.75
-358.3
-358.16
-345.33
-321.39
-288.91
-250.87
-210.15
-169.24
-130.17
-94.65
-64.01
-39.12
-20.15
-6.52
3.08
10.22
16.4
22.74
29.87
38.07
47.4
57.83
69.24
81.57
94.95
109.83
126.74
145.87
166.46
186.68
204.0
216.12
221.76
221.1
215.44
206.3
194.67
180.7
164.14
145.13
125.0
106.39
92.58
86.16
87.5
93.82
99.47
97.54
82.36
51.95
9.01
-39.77
-85.97
-122.09
-143.41
-148.53
-138.69
-116.65
-85.86
-50.13
-13.53
19.88
46.7
64.91
74.13
75.3
69.95
59.46
44.73
26.46
5.66
-15.87
-35.55
-50.4
-57.73
-55.82
-44.39
-24.62
1.03
29.27
56.54
79.59
95.86
103.85
103.24
94.81
80.11
61.04
39.37
16.42
-7.07
-30.66
-53.95
-76.3
-96.72
-114.01
-127.02
-134.89
-137.23
-134.15
-126.29
-114.71
-100.78
-85.87
-71.17
-57.52
-45.32
-34.71
-25.76
-18.56
-13.24
-9.79
-7.9
-7.01
-6.45
-5.64
-4.32
-2.43
-0.09
2.73
6.24
10.81
16.78
24.25
32.95
42.27
51.41
59.44
65.51
68.95
69.43
67.03
62.35
56.37
50.22
44.97
41.36
39.67
39.67
40.74
41.94
42.27
40.88
37.21
31.27
23.52
14.87
6.43
-0.73
-5.85
-8.6
-9.16
-8.17
-6.51
-5.09
-4.6
-5.4
-7.55
-10.89
-15.19
-20.2
-25.72
-31.54
-37.47
-43.28
-48.7
-53.38
-56.86
-58.63
-58.24
-55.6
-51.03
-45.33
-39.54
-34.65
-31.3
-29.6
-29.13
-29.08
-28.49
-26.64
-23.45
-19.64
-16.82
-17.0
-21.64
-30.71
-41.85
-50.65
-51.96
-41.81
-18.96
14.39
53.18
91.04
122.0
142.02
149.83
146.88
136.85
124.63
115.12
111.87
115.98
125.69
136.85
144.43
144.27
134.57
116.22
92.2
66.3
41.66
20.03
1.65
-14.13
-28.17
-40.97
-52.72
-63.59
-73.73
-83.36
-92.41
-100.22
-105.66
-107.4
-104.43
-96.37
-83.57
-66.78
-47.06
-25.52
-3.48
17.44
35.36
48.46
55.43
55.82
50.29
40.36
28.02
15.31
3.93
-4.85
-10.24
-12.02
-10.53
-6.58
-1.36
3.9
8.26
11.25
12.99
13.91
14.51
15.11
15.71
15.97
15.44
13.69
10.44
5.61
-0.59
-7.7
-15.03
-21.82
-27.42
-31.5
-34.13
-35.71
-36.77
-37.69
-38.54
-39.11
-39.08
-38.23
-36.52
-34.05
-30.96
-27.31
-23.19
-18.73
-14.21
-10.02
-6.52
-3.87
-2.03
-0.76
0.24
1.22
2.32
3.56
4.89
6.21
7.3
7.85
7.51
5.99
3.15
-0.85
-5.63
-10.64
-15.26
-18.95
-21.36
-22.31
-21.82
-20.05
-17.32
-14.08
-10.95
-8.57
-7.52
-8.16
-10.44
-13.96
-18.06
-22.02
-25.22
-27.36
-28.42
-28.74
-28.8
-29.07
-29.85
-31.08
-32.44
-33.45
-33.74
-33.18
-31.92
-30.29
-28.51
-26.67
-24.69
-22.52
-20.32
-18.51
-17.56
-17.81
-19.24
-21.45
-23.85
-25.97
-27.62
-28.93
-30.21
-31.69
-33.42
-35.3
-37.14
-38.77
-39.98
-40.48
-39.8
-37.46
-33.18
-27.05
-19.63
-11.72
-4.13
2.75
9.0
15.08
21.47
28.31
35.22
41.49
46.46
49.9
52.14
53.91
55.82
58.05
60.15
61.39
61.13
59.38
56.71
54.0
51.95
50.69
49.87
48.85
47.09
44.37
40.84
36.86
32.83
29.19
26.23
24.14
22.91
22.39
22.39
22.74
23.33
24.08
24.77
24.95
24.01
21.44
17.09
11.42
5.4
0.12
-3.65
-5.6
-6.03
-5.44
-4.28
-2.86
-1.3
0.16
1.19
1.29
0.11
-2.4
-5.84
-9.46
-12.47
-14.33
-14.93
-14.62
-13.99
-13.7
-14.25
-15.81
-18.16
-20.83
-23.11
-24.33
-23.96
-21.76
-17.88
-12.83
-7.36
-2.24
1.86
4.56
5.8
5.8
4.99
3.87
2.96
2.61
3.04
4.24
6.09
8.4
10.94
13.53
15.99
18.15
19.9
21.16
21.97
22.51
22.96
23.5
24.19
24.93
25.54
25.81
25.68
25.11
24.17
22.9
21.29
19.28
16.78
13.68
9.87
5.31
0.11
-5.34
-10.43
-14.45
-16.85
-17.48
-16.69
-15.1
-13.41
-12.03
-11.03
-10.22
-9.41
-8.52
-7.7
-7.06
-6.61
-6.13
-5.38
-4.16
-2.53
-0.72
0.93
2.14
2.8
2.97
2.88
2.8
3.04
3.73
4.86
6.19
7.38
8.08
8.07
7.4
6.32
5.19
4.28
3.71
3.36
3.04
2.5
1.6
0.31
-1.39
-3.43
-5.76
-8.32
-10.94
-13.39
-15.34
-16.46
-16.54
-15.6
-13.81
-11.49
-8.94
-6.31
-3.65
-0.99
1.55
3.7
5.14
5.65
5.26
4.29
3.19
2.39
2.06
2.17
2.59
3.29
4.35
5.92
7.99
10.25
12.1
12.84
11.97
9.37
5.43
0.89
-3.37
-6.56
-8.23
-8.49
-7.95
-7.56
-8.23
-10.5
-14.34
-19.17
-24.22
-28.78
-32.56
-35.54
-37.88
-39.55
-40.19
-39.24
-36.25
-31.24
-24.88
-18.32
-12.77
-9.03
-7.13
-6.44
-5.91
-4.6
-2.06
1.65
5.97
10.21
13.69
15.87
16.41
15.32
12.96
10.12
7.83
6.94
7.83
10.12
12.76
14.51
14.44
12.42
9.09
5.56
2.77
1.13
0.34
-0.29
-1.4
-3.21
-5.37
-7.18
-7.93
-7.19
-4.97
-1.71
1.75
4.38
5.18
3.39
-1.16
-7.93
-15.68
-22.78
-27.68
-29.29
-27.31
-22.18
-14.91
-6.81
0.86
7.08
11.29
13.42
13.84
13.26
12.44
12.03
12.34
13.3
14.48
15.36
15.53
14.93
13.88
12.93
12.62
13.25
14.7
16.53
18.17
19.17
19.4
19.04
18.49
18.17
18.27
18.65
18.74
17.74
14.84
9.57
2.01
-7.16
-16.78
-25.48
-32.05
-35.65
-36.04
-33.58
-29.23
-24.31
-20.25
-18.14
-18.37
-20.43
-23.01
-24.44
-23.34
-19.1
-12.01
-3.14
6.1
14.29
20.36
23.6
23.76
20.95
15.71
9.04
2.27
-3.0
-5.31
-3.71
1.87
10.52
20.49
29.68
36.19
38.84
37.41
32.57
25.59
17.96
11.13
6.26
4.05
4.62
7.33
10.79
13.21
12.91
8.9
1.35
-8.36
-18.01
-25.16
-27.99
-25.89
-19.67
-11.34
-3.5
1.46
2.07
-1.84
-9.15
-17.94
-26.1
-31.9
-34.35
-33.34
-29.5
-23.92
-18.0
-13.05
-9.97
-8.88
-9.02
-9.0
-7.41
-3.45
2.65
9.7
16.24
21.09
23.84
24.74
24.21
22.41
19.13
13.99
6.94
-1.39
-9.77
-16.77
-21.24
-22.76
-21.65
-18.9
-15.89
-14.0
-14.18
-16.66
-20.73
-24.97
-27.8
-28.08
-25.61
-21.14
-15.98
-11.31
-7.83
-5.64
-4.52
-4.15
-4.19
-4.17
-3.47
-1.4
2.35
7.35
12.43
16.07
17.04
14.9
10.14
3.96
-2.24
-7.21
-10.08
-10.45
-8.43
-4.61
0.02
4.28
7.18
8.15
7.17
4.64
1.26
-2.11
-4.43
-4.69
-2.13
3.34
10.91
18.94
25.44
28.78
28.26
24.24
17.84
10.5
3.54
-1.97
-5.26
-5.85
-3.63
0.96
6.94
12.91
17.41
19.3
18.03
13.84
7.67
0.98
-4.57
-7.59
-7.35
-4.0
1.38
7.14
11.54
13.21
11.5
6.56
-0.69
-8.75
-15.81
-20.06
-20.21
-15.75
-7.26
3.79
15.36
25.48
32.64
36.14
36.1
33.27
28.86
24.25
20.77
19.41
20.67
24.25
29.16
33.93
37.06
37.49
34.9
29.81
23.23
16.43
10.58
6.55
4.88
5.65
8.49
12.51
16.41
18.74
18.36
14.81
8.52
0.67
-7.24
-13.86
-18.5
-21.19
-22.54
-23.39
-24.53
-26.47
-29.42
-33.36
-37.95
-42.55
-46.17
-47.71
-46.41
-42.13
-35.62
-28.29
-21.76
-17.22
-15.14
-15.15
-16.39
-17.88
-18.81
-18.66
-17.25
-14.76
-11.56
-8.2
-5.19
-2.82
-1.14
0.11
1.23
2.51
4.04
5.84
7.79
9.77
11.62
13.13
14.12
14.47
14.15
13.27
12.04
10.65
9.26
7.93
6.69
5.54
4.43
3.23
1.8
0.09
-1.71
-3.31
-4.37
-4.84
-4.97
-5.26
-6.19
-7.99
-10.5
-13.3
-15.83
-17.58
-18.27
-17.73
-15.97
-13.15
-9.52
-5.47
-1.38
2.4
5.71
8.5
10.83
12.79
14.5
16.01
17.25
18.03
18.04
16.97
14.66
11.26
7.32
3.68
1.32
0.97
2.96
6.99
12.25
17.44
21.24
22.46
20.49
15.37
7.78
-1.12
-10.03
-17.8
-23.7
-27.47
-29.33
-29.81
-29.52
-29.02
-28.55
-28.13
-27.53
-26.52
-25.09
-23.51
-22.27
-21.76
-22.02
-22.58
-22.63
-21.35
-18.3
-13.65
-8.05
-2.24
3.28
8.4
13.18
17.56
21.22
23.55
24.1
22.76
20.03
16.81
14.05
12.46
12.31
13.58
16.08
19.51
23.46
27.29
30.19
31.38
30.4
27.33
22.8
17.77
13.2
9.81
7.97
7.79
9.19
11.85
15.17
18.26
20.1
19.89
17.38
13.06
7.94
3.12
-0.62
-2.96
-4.05
-4.22
-3.72
-2.84
-2.05
-2.09
-3.84
-7.86
-13.95
-21.09
-27.78
-32.63
-34.93
-34.76
-32.62
-28.99
-24.03
-17.74
-10.34
-2.59
4.24
8.76
10.14
8.46
4.75
0.59
-2.53
-3.68
-2.69
-0.09
3.17
6.16
8.21
9.1
9.02
8.39
7.67
7.15
6.89
6.79
6.73
6.69
6.78
7.28
8.49
10.56
13.28
16.1
18.16
18.65
17.01
13.16
7.37
0.2
-7.64
-15.27
-21.48
-24.84
-24.02
-18.49
-9.0
2.3
12.3
18.06
17.84
11.69
1.38
-10.39
-20.92
-28.24
-31.39
-30.27
-25.31
-17.33
-7.44
2.89
11.96
18.13
20.28
18.26
12.98
6.26
0.27
-3.07
-2.72
1.31
8.02
15.76
22.73
27.5
29.26
27.96
24.07
18.35
11.68
4.94
-0.92
-4.9
-6.13
-4.2
0.6
7.13
13.69
18.52
20.25
18.37
13.2
5.73
-2.61
-10.28
-15.84
-18.17
-16.73
-11.82
-4.69
2.75
8.38
10.57
8.71
3.28
-4.34
-12.43
-19.41
-24.17
-26.04
-24.83
-20.67
-14.11
-6.12
1.95
8.56
12.43
12.92
10.25
5.49
0.23
-3.86
-5.46
-3.98
0.31
6.33
12.52
17.27
19.41
18.47
14.87
9.65
4.19
-0.16
-2.28
-1.44
2.45
8.7
15.69
21.23
23.1
19.96
11.93
0.55
-11.71
-22.49
-30.27
-34.63
-35.95
-34.93
-32.21
-28.32
-23.91
-19.97
-17.65
-17.84
-20.75
-25.63
-31.05
-35.31
-37.09
-35.82
-31.69
-25.42
-17.89
-9.94
-2.26
4.47
9.58
12.48
12.94
11.2
8.04
4.61
2.02
1.09
2.18
5.17
9.61
14.85
20.1
24.52
27.42
28.39
27.55
25.51
23.12
21.03
19.33
17.51
14.76
10.5
4.79
-1.71
-8.03
-13.41
-17.58
-20.69
-23.04
-24.75
-25.64
-25.42
-24.02
-21.77
-19.32
-17.39
-16.4
-16.44
-17.27
-18.5
-19.77
-20.7
-20.93
-20.08
-17.8
-13.92
-8.68
-2.71
3.09
7.83
10.99
12.52
12.81
12.44
11.99
11.9
12.42
13.74
15.9
18.79
22.1
25.24
27.56
28.58
28.15
26.57
24.46
22.59
21.62
21.93
23.5
25.94
28.61
30.71
31.56
30.74
28.23
24.48
20.28
16.56
14.12
13.37
14.01
15.11
15.23
12.85
6.93
-2.49
-14.22
-26.16
-35.88
-41.45
-41.84
-37.22
-29.01
-19.76
-12.93
-12.13
-19.93
-36.51
-58.97
-81.86
-98.9
-105.4
-99.91
-84.49
-63.4
-41.07
-20.51
-2.89
11.66
23.07
30.75
33.91
32.31
26.89
19.72
13.28
9.57
9.42
12.36
17.05
22.03
26.19
29.04
30.47
30.41
28.76
25.41
20.51
14.65
8.8
3.94
0.71
-0.91
-1.44
-1.63
-2.13
-3.33
-5.43
-8.46
-12.45
-17.29
-22.66
-27.87
-32.04
-34.31
-34.08
-31.3
-26.52
-20.76
-15.28
-11.24
-9.3
-9.37
-10.65
-11.84
-11.69
-9.39
-4.93
1.01
7.38
13.14
17.66
20.74
22.51
23.23
23.13
22.41
21.35
20.23
19.43
19.2
19.58
20.33
20.99
21.17
20.79
20.24
20.22
21.29
23.32
25.32
25.67
22.88
16.35
6.74
-4.28
-14.7
-23.02
-28.52
-31.29
-31.66
-29.99
-26.56
-21.81
-16.52
-11.82
-8.77
-8.0
-9.37
-11.99
-14.6
-15.98
-15.34
-12.52
-7.86
-2.11
3.91
9.47
14.1
17.55
19.81
20.95
21.12
20.51
19.38
18.14
17.34
17.45
18.78
21.23
24.23
26.87
28.18
27.53
24.88
20.75
15.99
11.43
7.69
5.13
3.97
4.41
6.53
10.15
14.61
18.71
21.11
20.8
17.61
12.31
6.32
1.11
-2.29
-3.53
-2.92
-1.12
1.13
3.05
3.95
3.22
0.54
-3.95
-9.51
-14.96
-18.93
-20.45
-19.18
-15.47
-10.21
-4.46
0.9
5.23
8.2
9.72
9.88
8.94
7.39
5.86
4.95
5.08
6.28
8.23
10.35
12.03
12.85
12.61
11.4
9.43
7.06
4.65
2.6
1.18
0.56
0.69
1.38
2.27
2.99
3.24
2.76
1.41
-0.82
-3.81
-7.28
-10.81
-13.92
-16.26
-17.67
-18.27
-18.41
-18.55
-19.1
-20.3
-22.19
-24.63
-27.41
-30.25
-32.87
-34.96
-36.26
-36.56
-35.81
-34.14
-31.85
-29.33
-26.91
-24.7
-22.57
-20.2
-17.33
-13.86
-9.97
-6.0
-2.25
1.17
4.46
7.91
11.72
15.69
19.21
21.47
21.86
20.3
17.33
13.88
10.87
8.79
7.59
6.96
6.61
6.59
7.32
9.25
12.55
16.77
21.04
24.36
26.12
26.23
25.12
23.41
21.59
19.8
17.85
15.4
12.18
8.11
3.43
-1.41
-5.61
-8.36
-9.07
-7.7
-4.97
-2.25
-1.07
-2.5
-6.7
-12.78
-19.19
-24.42
-27.43
-27.9
-26.05
-22.27
-16.9
-10.29
-2.98
4.14
9.93
13.36
13.94
12.05
8.82
5.73
4.05
4.34
6.37
9.28
12.02
13.79
14.25
13.5
11.85
9.56
6.7
3.24
-0.64
-4.3
-6.69
-6.76
-3.99
1.14
7.18
12.13
14.21
12.54
7.36
-0.15
-8.43
-16.01
-21.81
-25.14
-25.71
-23.54
-19.07
-13.18
-7.16
-2.41
0.01
-0.26
-2.77
-6.36
-9.64
-11.34
-10.7
-7.57
-2.35
4.14
10.83
16.58
20.44
21.83
20.66
17.37
12.8
7.97
3.84
1.13
0.33
1.58
4.68
9.06
13.79
17.79
20.03
19.86
17.23
12.69
7.25
2.08
-1.78
-3.66
-3.35
-1.17
2.15
5.56
7.94
8.36
6.35
2.05
-3.83
-10.19
-15.97
-20.29
-22.7
-23.08
-21.61
-18.67
-14.89
-11.14
-8.39
-7.56
-9.08
-12.77
-17.76
-22.73
-26.27
-27.34
-25.49
-20.95
-14.53
-7.35
-0.64
4.55
7.62
8.43
7.31
4.98
2.28
-0.02
-1.32
-1.32
0.14
2.98
6.88
11.24
15.27
18.06
18.9
17.59
14.51
10.55
6.86
4.41
3.74
4.87
7.32
10.3
12.92
14.4
14.18
12.12
8.42
3.69
-1.3
-5.77
-9.12
-10.99
-11.3
-10.23
-8.22
-5.9
-4.02
-3.29
-4.15
-6.59
-10.12
-13.87
-16.91
-18.58
-18.7
-17.61
-15.99
-14.56
-13.79
-13.8
-14.39
-15.16
-15.74
-15.9
-15.51
-14.53
-12.86
-10.33
-6.77
-2.21
2.98
8.1
12.26
14.74
15.26
14.08
11.92
9.65
8.08
7.7
8.7
10.98
14.19
17.72
20.77
22.55
22.42
20.25
16.41
11.75
7.23
3.69
1.61
1.07
1.9
3.69
5.94
8.04
9.38
9.44
7.96
5.08
1.34
-2.4
-5.28
-6.67
-6.46
-5.02
-3.12
-1.63
-1.29
-2.45
-5.13
-9.01
-13.53
-18.07
-21.97
-24.66
-25.67
-24.78
-22.1
-18.06
-13.33
-8.64
-4.62
-1.6
0.34
1.45
2.11
2.75
3.67
5.01
6.68
8.38
9.8
10.66
10.86
10.53
9.95
9.45
9.3
9.63
10.39
11.41
12.47
13.4
14.04
14.35
14.3
13.89
13.16
12.17
11.07
9.97
8.99
8.21
7.61
7.16
6.78
6.43
6.08
5.74
5.38
4.99
4.5
3.86
3.03
2.01
0.89
-0.21
-1.13
-1.7
-1.81
-1.43
-0.64
0.38
1.33
1.99
2.26
2.3
2.45
3.21
4.99
8.0
12.15
17.16
22.69
28.49
34.51
40.77
47.34
54.11
60.86
67.31
73.34
79.16
85.2
91.93
99.52
107.6
115.32
121.84
126.84
130.88
135.14
140.57
147.01
152.65
154.39
148.88
133.95
109.35
76.67
38.8
-0.93
-39.12
-72.6
-98.72
-115.98
-124.64
-126.77
-125.47
-123.47
-121.77
-119.44
-114.49
-105.55
-93.11
-79.76
-69.44
-65.98
-71.62
-86.21
-106.91
-128.49
-144.37
-148.48
-137.91
-114.8
-86.5
-63.16
-53.64
-61.5
-83.42
-110.87
-134.19
-146.86
-147.58
-139.39
-126.8
-112.83
-97.87
-80.52
-59.65
-36.01
-12.28
8.32
23.8
34.3
41.72
48.53
56.29
64.88
72.71
77.72
78.47
74.85
68.04
59.95
52.42
46.55
42.56
39.96
37.93
35.76
33.09
29.96
26.66
23.67
21.7
21.71
24.66
31.08
40.46
51.11
60.5
66.23
66.94
62.9
55.72
47.62
40.33
34.54
29.93
25.62
20.85
15.3
9.02
2.26
-4.54
-10.63
-14.84
-15.88
-12.99
-6.58
1.59
8.88
12.98
13.07
10.34
7.34
6.6
9.19
13.99
18.11
17.96
10.49
-5.98
-31.62
-64.95
-102.91
-140.69
-172.08
-190.47
-190.69
-170.77
-132.88
-83.04
-29.59
18.78
55.06
75.34
79.54
71.45
57.78
46.33
43.35
50.94
65.72
79.8
84.04
72.55
46.05
12.48
-15.87
-27.36
-15.74
17.37
63.34
110.05
146.11
164.02
161.32
139.82
104.17
60.62
16.12
-22.39
-49.08
-60.49
-56.61
-40.92
-19.28
2.03
18.27
27.31
29.53
26.69
20.7
12.75
3.16
-8.16
-21.05
-34.72
-47.7
-58.18
-64.44
-65.15
-59.4
-46.91
-28.34
-5.83
16.78
34.29
41.32
33.81
10.4
-27.51
-76.74
-133.57
-194.46
-255.54
-311.65
-355.95
-380.91
-380.66
-353.47
-302.96
-237.28
-166.53
-99.78
-42.9
1.86
35.03
58.42
73.95
83.09
86.96
86.58
83.1
77.86
72.2
67.1
63.08
60.11
58.01
56.85
57.17
59.89
65.81
75.08
86.8
99.15
109.92
117.23
120.16
118.97
114.87
109.36
103.62
98.07
92.31
85.48
76.77
65.8
52.77
38.25
22.96
7.41
-8.05
-23.13
-37.29
-49.66
-59.13
-64.7
-65.85
-62.82
-56.58
-48.58
-40.45
-33.57
-28.94
-27.08
-28.07
-31.53
-36.76
-42.74
-48.34
-52.49
-54.35
-53.38
-49.38
-42.44
-32.91
-21.5
-9.29
2.3
11.67
17.48
19.05
16.65
11.52
5.47
0.32
-2.66
-3.05
-1.28
1.76
5.17
8.39
11.3
14.15
17.29
20.89
24.9
29.01
32.78
35.76
37.61
38.18
37.54
35.98
33.88
31.67
29.63
27.81
26.06
24.1
21.65
18.59
14.95
10.88
6.57
2.14
-2.29
-6.57
-10.53
-13.89
-16.38
-17.77
-18.0
-17.21
-15.72
-13.94
-12.28
-10.96
-9.96
-8.93
-7.35
-4.74
-0.92
3.75
8.44
12.11
13.98
13.91
12.53
11.0
10.48
11.73
14.75
18.94
23.4
27.19
29.55
29.9
27.78
22.92
15.4
5.82
-4.74
-14.95
-23.63
-29.95
-33.62
-34.81
-34.13
-32.63
-31.8
-33.31
-38.41
-47.29
-58.63
-69.78
-77.6
-79.64
-75.01
-64.64
-50.7
-35.58
-21.09
-8.06
3.57
14.22
24.28
33.73
41.98
47.76
49.2
44.14
30.86
8.97
-19.75
-51.18
-79.36
-97.84
-101.4
-87.61
-57.68
-16.31
29.41
71.71
104.12
122.95
127.99
122.1
109.92
96.06
83.44
72.7
62.63
51.48
38.45
24.5
12.02
3.61
0.58
2.17
5.79
8.43
8.19
5.21
1.09
-2.59
-5.75
-10.22
-18.65
-32.51
-50.41
-68.0
-79.57
-80.74
-70.6
-52.25
-31.2
-12.75
0.31
8.39
13.99
19.66
26.18
32.09
34.65
31.63
22.9
10.78
-0.77
-8.1
-9.58
-6.37
-1.66
1.07
-0.01
-4.28
-9.19
-11.96
-11.43
-8.76
-6.72
-7.77
-12.33
-18.28
-22.09
-21.04
-15.02
-6.79
-0.45
0.86
-3.26
-10.37
-16.79
-19.82
-19.15
-16.73
-15.15
-15.77
-17.66
-18.25
-14.99
-7.11
3.64
13.87
20.32
21.57
18.67
14.39
11.56
11.69
14.39
18.01
20.83
22.13
22.36
22.61
23.57
24.94
25.48
23.79
19.26
12.64
5.75
0.64
-1.45
-0.79
1.1
2.21
1.14
-2.17
-6.41
-9.71
-10.68
-9.22
-6.6
-4.77
-5.25
-8.2
-12.25
-15.15
-14.94
-11.03
-4.51
2.32
7.14
8.7
7.33
4.63
2.51
2.23
3.85
6.47
8.85
10.17
10.34
9.86
9.42
9.44
9.95
10.74
11.66
12.78
14.34
16.54
19.28
22.07
24.21
25.03
24.28
22.28
19.87
18.02
17.45
18.19
19.6
20.61
20.29
18.35
15.16
11.61
8.37
5.52
2.42
-1.9
-8.07
-15.85
-24.02
-30.97
-35.34
-36.72
-35.65
-33.19
-30.1
-26.47
-21.76
-15.55
-8.24
-1.26
3.36
4.11
0.91
-4.59
-9.73
-12.1
-10.69
-6.33
-1.03
3.05
4.7
4.11
2.41
0.87
0.18
0.21
0.35
0.11
-0.42
-0.59
0.45
3.15
7.26
11.89
15.88
18.35
19.0
18.18
16.62
15.04
13.86
13.15
12.62
11.85
10.52
8.47
5.74
2.53
-0.83
-3.91
-6.2
-7.29
-6.97
-5.34
-2.78
0.21
3.14
5.72
7.85
9.5
10.63
11.14
10.94
10.05
8.72
7.32
6.21
5.58
5.43
5.58
5.86
6.14
6.4
6.71
7.07
7.46
7.81
8.07
8.18
8.16
8.04
7.85
7.59
7.25
6.79
6.17
5.42
4.57
3.72
2.95
2.28
1.6
0.79
-0.29
-1.68
-3.33
-5.08
-6.72
-8.01
-8.76
-8.81
-8.09
-6.64
-4.65
-2.4
-0.2
1.7
3.21
4.38
5.4
6.4
7.5
8.66
9.83
10.96
12.01
12.98
13.86
14.61
15.17
15.55
15.75
15.79
15.58
14.89
13.47
11.2
8.18
4.86
1.78
-0.58
-2.06
-2.82
-3.25
-3.71
-4.41
-5.34
-6.4
-7.5
-8.66
-9.93
-11.38
-13.05
-14.94
-17.01
-19.18
-21.26
-23.02
-24.18
-24.45
-23.7
-21.98
-19.5
-16.61
-13.64
-10.87
-8.46
-6.48
-4.9
-3.68
-2.71
-1.89
-1.09
-0.2
0.82
2.0
3.26
4.52
5.64
6.49
6.93
6.88
6.33
5.45
4.57
4.03
4.05
4.52
4.98
4.85
3.64
1.25
-1.95
-5.32
-8.16
-10.02
-10.81
-10.72
-10.09
-9.24
-8.43
-7.89
-7.78
-8.22
-9.07
-9.96
-10.3
-9.53
-7.37
-3.96
0.1
4.05
7.24
9.39
10.6
11.23
11.57
11.75
11.63
11.05
9.93
8.46
7.03
6.04
5.73
6.06
6.75
7.47
7.95
8.09
7.9
7.5
6.96
6.34
5.69
5.09
4.64
4.47
4.62
5.02
5.46
5.58
5.03
3.53
0.99
-2.42
-6.37
-10.48
-14.47
-18.2
-21.61
-24.59
-26.89
-28.15
-28.07
-26.57
-23.84
-20.33
-16.53
-12.73
-9.06
-5.5
-2.07
1.03
3.49
5.0
5.47
5.06
4.16
3.25
2.72
2.76
3.38
4.43
5.75
7.15
8.49
9.68
10.55
10.98
10.83
10.01
8.56
6.65
4.6
2.8
1.58
1.14
1.39
2.0
2.48
2.34
1.25
-0.82
-3.66
-6.84
-9.87
-12.34
-13.94
-14.5
-13.95
-12.37
-9.94
-7.0
-3.97
-1.21
1.17
3.29
5.5
8.13
11.25
14.53
17.32
18.87
18.62
16.48
12.75
8.12
3.37
-0.81
-3.93
-5.71
-6.04
-4.98
-2.75
0.27
3.59
6.64
8.94
10.29
10.77
10.71
10.53
10.54
10.78
11.02
10.83
9.76
7.51
4.05
-0.36
-5.27
-10.05
-14.13
-16.99
-18.38
-18.31
-17.07
-15.11
-12.92
-10.83
-9.01
-7.47
-6.17
-5.07
-4.14
-3.3
-2.36
-1.11
0.63
2.82
5.14
7.06
8.06
7.78
6.24
3.82
1.15
-1.07
-2.28
-2.18
-0.76
1.73
4.89
8.3
11.52
14.26
16.32
17.61
18.23
18.38
18.28
18.1
17.86
17.37
16.33
14.43
11.51
7.66
3.14
-1.64
-6.34
-10.63
-14.28
-17.11
-18.91
-19.63
-19.33
-18.26
-16.81
-15.43
-14.41
-13.89
-13.73
-13.62
-13.13
-11.88
-9.6
-6.26
-2.09
2.44
6.67
10.0
11.97
12.37
11.33
9.15
6.25
3.05
-0.1
-2.91
-5.09
-6.34
-6.35
-4.92
-2.11
1.75
6.1
10.26
13.62
15.85
16.92
17.13
16.88
16.56
16.41
16.38
16.31
15.86
14.73
12.72
9.76
5.93
1.46
-3.34
-8.12
-12.58
-16.47
-19.61
-21.87
-23.13
-23.32
-22.41
-20.55
-18.08
-15.48
-13.2
-11.56
-10.6
-10.03
-9.41
-8.22
-6.11
-3.04
0.67
4.35
7.18
8.48
7.88
5.49
1.8
-2.45
-6.55
-10.0
-12.55
-14.15
-14.77
-14.37
-12.87
-10.25
-6.64
-2.42
1.84
5.53
8.23
9.9
10.85
11.68
12.96
14.99
17.61
20.33
22.48
23.45
22.89
20.77
17.29
12.75
7.47
1.79
-3.96
-9.44
-14.34
-18.42
-21.54
-23.63
-24.69
-24.68
-23.62
-21.52
-18.54
-14.96
-11.13
-7.38
-3.89
-0.64
2.53
5.78
9.23
12.79
16.22
19.21
21.41
22.5
22.23
20.5
17.31
12.94
7.84
2.61
-2.14
-5.89
-8.25
-9.02
-8.07
-5.46
-1.51
3.16
7.66
11.09
12.82
12.74
11.28
9.26
7.52
6.76
7.36
9.38
12.69
16.95
21.58
25.8
28.68
29.35
27.3
22.51
15.5
7.21
-1.24
-8.83
-14.8
-18.77
-20.74
-21.03
-20.11
-18.52
-16.73
-15.03
-13.53
-12.16
-10.72
-8.94
-6.55
-3.43
0.32
4.37
8.21
11.27
13.08
13.37
12.1
9.43
5.73
1.44
-2.95
-6.92
-10.05
-11.96
-12.46
-11.52
-9.21
-5.77
-1.59
2.79
6.71
9.63
11.24
11.69
11.55
11.55
12.33
14.02
16.3
18.44
19.73
19.66
18.1
15.25
11.38
6.8
1.71
-3.69
-9.15
-14.37
-18.95
-22.56
-24.96
-26.0
-25.63
-23.94
-21.09
-17.41
-13.39
-9.57
-6.39
-4.02
-2.22
-0.46
1.83
5.01
9.01
13.36
17.3
20.06
21.14
20.34
17.78
13.84
9.07
4.08
-0.48
-3.99
-5.97
-6.17
-4.62
-1.67
2.03
5.68
8.47
9.88
9.81
8.61
7.03
5.94
5.97
7.35
9.79
12.6
14.99
16.28
16.09
14.41
11.5
7.67
3.3
-1.32
-5.89
-10.09
-13.64
-16.35
-18.13
-19.04
-19.19
-18.68
-17.57
-15.88
-13.7
-11.21
-8.64
-6.21
-3.97
-1.78
0.65
3.6
7.13
11.09
15.08
18.57
21.05
22.1
21.54
19.35
15.76
11.21
6.27
1.61
-2.18
-4.63
-5.52
-4.89
-3.0
-0.36
2.34
4.4
5.31
4.91
3.48
1.61
0.07
-0.53
0.1
1.86
4.31
6.82
8.75
9.57
8.97
6.96
3.81
-0.05
-4.11
-8.02
-11.54
-14.56
-17.02
-18.8
-19.74
-19.69
-18.6
-16.59
-13.95
-11.04
-8.23
-5.73
-3.6
-1.68
0.27
2.51
5.2
8.27
11.48
14.37
16.44
17.26
16.62
14.6
11.54
7.98
4.48
1.52
-0.59
-1.77
-2.08
-1.71
-0.9
0.05
0.85
1.25
1.09
0.37
-0.7
-1.78
-2.44
-2.41
-1.58
-0.11
1.59
3.05
3.84
3.65
2.4
0.16
-2.86
-6.38
-10.06
-13.56
-16.58
-18.85
-20.24
-20.74
-20.37
-19.2
-17.32
-14.81
-11.83
-8.66
-5.6
-2.95
-0.83
0.86
2.39
4.03
5.91
7.88
9.61
10.71
10.91
10.16
8.59
6.44
4.02
1.68
-0.26
-1.46
-1.73
-1.03
0.44
2.33
4.22
5.74
6.65
6.79
6.12
4.79
3.13
1.59
0.66
0.67
1.62
3.14
4.63
5.45
5.11
3.43
0.49
-3.4
-7.87
-12.54
-17.04
-21.03
-24.09
-25.85
-25.99
-24.39
-21.21
-16.91
-12.14
-7.62
-3.85
-1.03
0.94
2.45
3.9
5.62
7.68
9.9
11.96
13.42
13.91
13.21
11.37
8.63
5.4
2.17
-0.61
-2.64
-3.77
-4.05
-3.64
-2.78
-1.75
-0.87
-0.39
-0.5
-1.24
-2.46
-3.82
-4.88
-5.22
-4.64
-3.24
-1.4
0.33
1.38
1.32
-0.0
-2.52
-5.97
-10.02
-14.28
-18.27
-21.5
-23.47
-23.82
-22.41
-19.44
-15.48
-11.3
-7.65
-5.02
-3.52
-2.85
-2.47
-1.79
-0.44
1.68
4.36
7.24
9.88
11.86
12.92
12.89
11.84
9.98
7.68
5.36
3.46
2.26
1.91
2.35
3.35
4.55
5.56
6.05
5.84
4.92
3.53
1.99
0.72
-0.02
-0.12
0.24
0.69
0.72
-0.11
-2.06
-5.15
-9.13
-13.54
-17.89
-21.69
-24.54
-26.14
-26.33
-25.06
-22.44
-18.74
-14.32
-9.58
-4.85
-0.5
3.21
6.05
7.99
9.16
9.93
10.7
11.83
13.41
15.28
17.03
18.21
18.49
17.69
15.86
13.2
9.96
6.44
2.92
-0.33
-3.08
-5.13
-6.27
-6.34
-5.34
-3.45
-1.11
1.06
2.4
2.48
1.32
-0.62
-2.49
-3.45
-3.0
-1.18
1.43
3.95
5.51
5.57
3.94
0.81
-3.44
-8.34
-13.39
-18.07
-21.8
-24.1
-24.6
-23.18
-20.03
-15.58
-10.49
-5.45
-1.13
2.01
3.76
4.27
4.02
3.68
3.92
5.14
7.4
10.36
13.47
16.09
17.73
18.14
17.32
15.49
12.95
10.08
7.22
4.64
2.51
0.98
0.1
-0.1
0.38
1.44
2.89
4.41
5.6
6.06
5.56
4.06
1.86
-0.48
-2.37
-3.26
-2.86
-1.26
1.13
3.63
5.5
6.03
4.8
1.67
-3.04
-8.68
-14.33
-19.03
-21.95
-22.63
-21.0
-17.39
-12.45
-6.96
-1.72
2.56
5.45
6.87
7.14
6.85
6.79
7.51
9.28
11.88
14.76
17.23
18.72
18.88
17.67
15.28
12.09
8.56
5.22
2.52
0.77
0.11
0.47
1.61
3.22
4.99
6.59
7.71
8.06
7.55
6.31
4.72
3.34
2.62
2.78
3.7
5.02
6.29
7.12
7.23
6.46
4.74
2.08
-1.39
-5.38
-9.52
-13.4
-16.66
-19.04
-20.38
-20.6
-19.68
-17.72
-14.97
-11.81
-8.67
-5.88
-3.58
-1.65
0.14
2.12
4.45
7.18
10.14
13.02
15.42
16.94
17.2
16.02
13.42
9.66
5.27
0.91
-2.79
-5.34
-6.51
-6.33
-5.09
-3.25
-1.33
0.19
0.89
0.58
-0.71
-2.67
-4.83
-6.6
-7.51
-7.3
-6.0
-3.94
-1.58
0.61
2.28
3.24
3.5
3.12
2.24
0.97
-0.64
-2.58
-4.87
-7.51
-10.42
-13.42
-16.23
-18.49
-19.88
-20.23
-19.49
-17.75
-15.05
-11.46
-7.01
-1.88
3.57
8.79
13.12
16.02
17.18
16.65
14.79
12.13
9.27
6.77
5.03
4.28
4.5
5.47
6.79
8.06
8.97
9.34
9.19
8.61
7.67
6.37
4.66
2.54
0.17
-2.01
-3.46
-3.75
-2.84
-1.27
-0.09
-0.42
-2.96
-7.53
-12.96
-17.47
-19.38
-17.81
-13.02
-6.26
0.77
6.5
9.64
9.4
5.56
-1.16
-8.61
-13.32
-11.25
0.65
22.86
52.58
84.41
112.22
131.06
138.48
134.49
120.52
98.53
70.37
37.91
3.42
-30.43
-61.1
-86.83
-107.31
-123.78
-138.59
-154.34
-172.81
-194.12
-216.41
-236.38
-250.36
-255.56
-250.89
-236.87
-215.06
-187.41
-156.07
-123.61
-93.35
-69.38
-55.87
-55.97
-70.55
-97.12
-129.91
-160.9
-182.2
-188.6
-179.13
-156.85
-126.81
-93.43
-58.69
-22.15
17.7
61.68
108.94
157.19
203.46
244.48
276.67
296.17
299.69
286.13
257.89
220.76
182.1
148.24
122.58
105.49
95.44
90.35
88.33
87.43
85.24
79.42
68.45
52.76
34.93
18.87
8.19
4.87
8.63
17.23
27.62
36.97
43.48
46.57
46.68
44.78
41.92
38.9
36.16
33.84
31.92
30.3
28.81
27.25
25.32
22.75
19.43
15.5
11.44
7.84
5.32
4.28
4.83
6.73
9.47
12.48
15.22
17.32
18.62
19.12
18.89
17.98
16.5
14.55
12.41
10.45
9.1
8.77
9.63
11.58
14.15
16.67
18.38
18.74
17.65
15.46
12.93
10.91
10.05
10.54
12.07
14.03
15.77
16.75
16.66
15.46
13.5
11.65
11.34
14.32
22.08
35.22
52.96
73.14
92.8
108.88
119.03
121.83
116.7
103.63
82.94
55.46
22.79
-12.51
-47.13
-77.62
-101.03
-115.64
-121.14
-118.41
-109.09
-95.15
-78.5
-60.91
-43.94
-28.97
-17.02
-8.74
-4.35
-3.59
-5.84
-10.17
-15.44
-20.46
-24.23
-26.04
-25.66
-23.32
-19.56
-15.1
-10.6
-6.63
-3.56
-1.65
-0.94
-1.34
-2.59
-4.3
-6.03
-7.41
-8.19
-8.34
-7.99
-7.42
-6.88
-6.61
-6.67
-6.96
-7.34
-7.65
-7.87
-8.08
-8.41
-8.96
-9.77
-10.79
-11.96
-13.35
-15.11
-17.4
-20.26
-23.48
-26.58
-28.97
-30.08
-29.55
-27.36
-23.81
-19.5
-15.18
-11.59
-9.11
-7.72
-6.77
-5.33
-2.36
2.69
9.67
17.65
25.2
30.83
33.5
32.89
29.45
24.24
18.53
13.5
9.9
7.98
7.45
7.62
7.65
6.84
4.77
1.52
-2.43
-6.33
-9.42
-11.2
-11.54
-10.8
-9.58
-8.54
-8.13
-8.45
-9.22
-9.95
-10.15
-9.55
-8.17
-6.39
-4.83
-4.16
-4.91
-7.31
-11.18
-15.94
-20.71
-24.5
-26.43
-26.0
-23.23
-18.69
-13.29
-7.95
-3.32
0.48
3.83
7.3
11.31
15.87
20.48
24.22
26.17
25.57
22.2
16.42
9.11
1.48
-5.27
-10.22
-12.93
-13.5
-12.42
-10.4
-8.07
-5.84
-3.85
-1.95
0.17
2.87
6.42
10.82
15.74
20.39
23.7
24.53
22.07
16.12
7.35
-2.87
-12.8
-20.94
-26.44
-29.32
-30.2
-29.93
-29.13
-28.01
-26.38
-23.92
-20.47
-16.09
-10.99
-5.39
0.56
6.72
12.85
18.48
23.02
25.9
26.76
25.59
22.68
18.54
13.69
8.69
4.05
0.28
-2.23
-3.21
-2.7
-1.04
1.15
3.15
4.41
4.8
4.68
4.89
6.36
9.76
15.01
21.2
26.72
29.82
29.18
24.38
15.97
5.28
-6.07
-16.63
-25.39
-31.9
-36.16
-38.44
-39.04
-38.12
-35.6
-31.26
-24.79
-16.02
-5.23
6.76
18.48
28.06
33.6
33.7
27.86
16.69
1.77
-14.81
-30.96
-45.05
-56.15
-63.98
-68.77
-71.01
-71.18
-69.58
-66.14
-60.44
-51.8
-39.67
-24.0
-5.59
13.82
31.83
45.9
53.95
54.85
48.66
36.51
20.32
2.34
-15.07
-29.86
-40.32
-45.33
-44.38
-37.66
-25.89
-10.11
8.54
28.93
49.88
69.95
87.3
99.78
105.4
102.76
91.64
73.1
49.44
23.61
-1.25
-22.45
-38.07
-47.28
-50.28
-48.18
-42.62
-35.39
-28.05
-21.6
-16.45
-12.48
-9.18
-5.9
-2.0
3.01
9.43
17.25
26.07
34.99
42.68
47.58
48.25
43.81
34.34
20.89
5.33
-10.22
-23.85
-34.33
-41.16
-44.54
-45.02
-43.22
-39.54
-34.11
-26.84
-17.51
-6.12
6.96
20.8
33.91
44.49
50.79
51.53
46.31
35.65
20.97
4.3
-12.19
-26.48
-37.16
-43.55
-45.8
-44.69
-41.39
-37.06
-32.51
-27.99
-23.23
-17.7
-10.91
-2.8
6.06
14.51
21.0
24.03
22.6
16.62
7.02
-4.48
-15.83
-25.16
-31.32
-33.95
-33.42
-30.4
-25.55
-19.19
-11.35
-1.95
8.85
20.39
31.51
40.72
46.63
48.28
45.47
38.75
29.31
18.73
8.63
0.41
-5.03
-7.42
-7.08
-4.76
-1.39
2.21
5.56
8.55
11.32
14.07
16.83
19.33
21.15
21.74
20.67
17.68
12.76
6.12
-1.77
-10.19
-18.28
-25.21
-30.39
-33.65
-35.18
-35.36
-34.55
-32.86
-30.19
-26.42
-21.51
-15.62
-9.11
-2.41
3.98
9.52
13.64
15.78
15.62
13.19
9.0
3.89
-1.18
-5.43
-8.36
-9.9
-10.16
-9.45
-8.09
-6.32
-4.28
-1.88
1.13
5.1
10.19
16.22
22.53
28.06
31.68
32.51
30.21
25.07
17.91
9.84
1.97
-4.73
-9.65
-12.56
-13.63
-13.28
-12.11
-10.62
-9.11
-7.62
-5.98
-3.95
-1.41
1.56
4.65
7.34
8.97
8.91
6.72
2.33
-3.83
-10.91
-17.78
-23.37
-26.92
-28.11
-27.06
-24.13
-19.8
-14.53
-8.73
-2.84
2.7
7.47
11.16
13.64
14.97
15.35
14.99
14.1
12.76
11.02
8.99
6.89
5.08
3.93
3.67
4.29
5.48
6.77
7.8
8.4
8.62
8.66
8.63
8.54
8.27
7.79
7.21
6.84
6.98
7.76
9.02
10.3
11.06
10.81
9.3
6.54
2.79
-1.51
-5.8
-9.46
-12.01
-13.1
-12.79
-11.42
-9.62
-8.11
-7.44
-7.85
-9.19
-11.02
-12.73
-13.8
-13.87
-12.83
-10.8
-8.02
-4.78
-1.43
1.61
3.93
5.14
5.02
3.65
1.43
-1.01
-2.95
-3.84
-3.48
-2.01
0.13
2.39
4.27
5.49
6.03
6.08
5.96
5.98
6.35
7.13
8.21
9.41
10.51
11.32
11.66
11.42
10.56
9.1
7.18
4.98
2.7
0.47
-1.58
-3.41
-4.92
-6.07
-6.78
-7.08
-7.07
-7.0
-7.18
-7.92
-9.43
-11.7
-14.49
-17.37
-19.83
-21.37
-21.68
-20.67
-18.47
-15.41
-11.92
-8.48
-5.51
-3.23
-1.71
-0.79
-0.17
0.4
1.09
1.89
2.7
3.35
3.67
3.57
3.11
2.52
2.13
2.37
3.59
5.86
8.92
12.22
15.09
16.96
17.51
16.78
15.0
12.58
9.92
7.42
5.37
3.97
3.26
3.1
3.17
3.07
2.5
1.31
-0.31
-2.0
-3.37
-4.16
-4.38
-4.3
-4.32
-4.85
-6.12
-8.17
-10.89
-14.0
-17.19
-20.06
-22.21
-23.26
-22.91
-21.04
-17.79
-13.52
-8.77
-4.16
-0.19
2.81
4.71
5.62
5.75
5.42
4.9
4.45
4.29
4.57
5.41
6.84
8.83
11.22
13.77
16.25
18.44
20.22
21.47
22.06
21.83
20.55
18.06
14.4
9.86
5.02
0.6
-2.71
-4.47
-4.61
-3.49
-1.71
0.01
1.2
1.79
2.16
2.93
4.67
7.53
11.1
14.44
16.42
16.1
12.95
7.02
-1.24
-11.06
-21.51
-31.57
-40.15
-46.2
-48.98
-48.17
-44.05
-37.4
-29.28
-20.66
-12.22
-4.2
3.44
10.87
18.08
24.72
30.1
33.39
33.81
30.99
25.11
16.91
7.57
-1.63
-9.51
-15.25
-18.42
-18.97
-17.14
-13.44
-8.58
-3.37
1.45
5.44
8.61
11.42
14.55
18.57
23.58
29.08
34.05
37.25
37.62
34.55
28.02
18.6
7.34
-4.45
-15.4
-24.35
-30.5
-33.59
-33.81
-31.73
-28.14
-23.88
-19.71
-16.17
-13.47
-11.46
-9.64
-7.45
-4.47
-0.74
3.29
6.8
8.95
9.15
7.25
3.49
-1.58
-7.25
-12.81
-17.54
-20.9
-22.48
-22.19
-20.2
-16.98
-13.1
-9.05
-5.07
-0.98
3.61
9.14
15.79
23.28
30.81
37.24
41.42
42.49
40.16
34.72
26.93
17.82
8.49
-0.07
-7.05
-11.86
-14.23
-14.19
-12.14
-8.78
-4.94
-1.37
1.53
3.77
5.68
7.71
10.08
12.65
14.91
16.12
15.53
12.74
7.69
0.77
-7.4
-16.06
-24.38
-31.62
-37.13
-40.4
-41.11
-39.28
-35.15
-29.27
-22.36
-15.07
-7.91
-1.13
5.22
11.1
16.31
20.45
23.01
23.55
21.96
18.55
13.98
9.01
4.36
0.47
-2.43
-4.26
-5.0
-4.68
-3.36
-1.25
1.34
4.07
6.7
9.2
11.74
14.59
17.9
21.55
25.04
27.66
28.62
27.36
23.72
18.0
10.87
3.21
-4.1
-10.33
-15.06
-18.15
-19.72
-20.05
-19.53
-18.56
-17.45
-16.38
-15.41
-14.41
-13.16
-11.42
-9.03
-6.04
-2.76
0.33
2.72
3.99
3.96
2.73
0.63
-1.88
-4.33
-6.35
-7.71
-8.33
-8.24
-7.5
-6.15
-4.22
-1.69
1.47
5.21
9.38
13.73
17.88
21.47
24.16
25.67
25.85
24.65
22.12
18.41
13.85
8.92
4.23
0.35
-2.3
-3.53
-3.44
-2.31
-0.5
1.61
3.68
5.43
6.63
7.15
7.01
6.33
5.24
3.84
2.14
0.09
-2.36
-5.11
-7.98
-10.67
-12.97
-14.79
-16.23
-17.51
-18.78
-20.09
-21.26
-22.05
-22.15
-21.39
-19.74
-17.31
-14.27
-10.85
-7.25
-3.66
-0.28
2.71
5.15
6.9
7.9
8.22
8.0
7.55
7.21
7.27
7.89
9.02
10.41
11.76
12.79
13.41
13.65
13.71
13.84
14.19
14.82
15.58
16.2
16.28
15.48
13.54
10.49
6.62
2.47
-1.31
-4.18
-5.81
-6.26
-5.82
-4.96
-4.14
-3.66
-3.64
-4.02
-4.65
-5.4
-6.12
-6.72
-7.14
-7.38
-7.53
-7.78
-8.3
-9.27
-10.73
-12.68
-14.99
-17.46
-19.84
-21.78
-22.89
-22.86
-21.53
-19.0
-15.59
-11.79
-8.07
-4.76
-1.99
0.28
2.14
3.72
5.09
6.29
7.35
8.29
9.16
10.02
10.85
11.59
12.09
12.22
11.86
11.09
10.12
9.22
8.69
8.72
9.28
10.19
11.12
11.78
11.97
11.62
10.81
9.69
8.41
7.08
5.78
4.57
3.53
2.78
2.41
2.37
2.47
2.45
2.09
1.29
0.17
-1.09
-2.26
-3.23
-4.02
-4.7
-5.32
-5.89
-6.43
-7.01
-7.86
-9.2
-11.15
-13.62
-16.25
-18.57
-20.11
-20.54
-19.76
-17.82
-14.95
-11.45
-7.7
-4.12
-1.06
1.28
2.87
3.85
4.42
4.76
4.95
4.99
4.88
4.69
4.54
4.6
4.96
5.66
6.62
7.77
8.99
10.22
11.42
12.55
13.56
14.35
14.81
14.81
14.28
13.25
11.9
10.47
9.2
8.21
7.44
6.72
5.86
4.78
3.58
2.47
1.67
1.24
1.13
1.15
1.08
0.76
0.12
-0.83
-2.04
-3.44
-4.99
-6.64
-8.33
-10.02
-11.7
-13.35
-15.04
-16.85
-18.76
-20.68
-22.34
-23.34
-23.3
-21.99
-19.41
-15.89
-11.94
-8.04
-4.6
-1.73
0.62
2.56
4.14
5.33
6.04
6.25
6.1
5.84
5.76
6.02
6.61
7.34
8.0
8.44
8.72
8.98
9.3
9.73
10.17
10.43
10.43
10.14
9.69
9.23
8.86
8.61
8.38
8.08
7.61
6.98
6.22
5.42
4.64
3.91
3.18
2.39
1.49
0.47
-0.58
-1.58
-2.5
-3.38
-4.36
-5.57
-7.09
-8.8
-10.48
-11.92
-13.07
-14.1
-15.3
-16.93
-19.01
-21.27
-23.19
-24.27
-24.23
-23.08
-21.08
-18.56
-15.84
-13.12
-10.58
-8.37
-6.69
-5.64
-5.23
-5.27
-5.46
-5.49
-5.15
-4.43
-3.43
-2.35
-1.31
-0.35
0.61
1.64
2.81
4.06
5.27
6.28
7.0
7.46
7.84
8.33
9.08
10.04
11.03
11.73
11.86
11.24
9.91
8.13
6.31
4.92
4.39
4.96
6.55
8.78
11.06
12.7
13.13
12.04
9.44
5.66
1.22
-3.26
-7.25
-10.41
-12.58
-13.83
-14.34
-14.32
-13.96
-13.37
-12.55
-11.45
-9.93
-7.94
-5.42
-2.48
0.69
3.77
6.45
8.49
9.74
10.22
10.09
9.61
9.06
8.67
8.57
8.76
9.19
9.72
10.18
10.42
10.32
9.86
9.15
8.42
7.88
7.65
7.64
7.62
7.31
6.54
5.33
3.86
2.42
1.16
0.17
-0.65
-1.36
-2.04
-2.7
-3.34
-3.99
-4.68
-5.54
-6.63
-8.01
-9.69
-11.65
-13.87
-16.21
-18.53
-20.59
-22.13
-22.95
-22.89
-21.89
-19.99
-17.35
-14.22
-10.9
-7.68
-4.79
-2.39
-0.55
0.73
1.51
1.94
2.23
2.59
3.19
4.09
5.23
6.45
7.56
8.48
9.15
9.62
9.9
9.98
9.81
9.39
8.8
8.21
7.89
8.03
8.7
9.73
10.83
11.67
12.0
11.72
10.87
9.53
7.84
5.93
3.99
2.25
0.95
0.22
0.0
0.01
-0.12
-0.75
-2.12
-4.25
-7.0
-10.13
-13.38
-16.45
-19.01
-20.72
-21.27
-20.47
-18.36
-15.2
-11.47
-7.63
-4.05
-0.9
1.81
4.16
6.22
7.95
9.32
10.3
10.97
11.48
12.02
12.71
13.55
14.43
15.15
15.55
15.53
15.11
14.37
13.48
12.59
11.8
11.17
10.69
10.33
10.01
9.64
9.14
8.42
7.49
6.41
5.3
4.26
3.38
2.64
2.01
1.4
0.78
0.13
-0.57
-1.28
-2.03
-2.85
-3.83
-5.02
-6.44
-8.04
-9.69
-11.31
-12.84
-14.32
-15.82
-17.27
-18.59
-19.5
-19.79
-19.3
-18.01
-15.97
-13.26
-9.97
-6.2
-2.25
1.52
4.58
6.57
7.34
7.09
6.3
5.49
5.13
5.39
6.23
7.4
8.55
9.41
9.79
9.7
9.29
8.8
8.41
8.24
8.27
8.34
8.3
8.04
7.52
6.82
6.08
5.42
4.94
4.63
4.36
3.89
2.97
1.41
-0.76
-3.26
-5.58
-7.18
-7.65
-6.94
-5.33
-3.39
-1.75
-0.91
-1.14
-2.42
-4.57
-7.27
-10.18
-12.97
-15.39
-17.21
-18.32
-18.65
-18.21
-17.04
-15.24
-12.96
-10.36
-7.72
-5.3
-3.32
-1.91
-1.01
-0.4
0.23
1.15
2.47
4.13
5.91
7.62
9.17
10.67
12.35
14.39
16.82
19.4
21.73
23.43
24.39
24.78
25.07
25.82
27.51
30.32
34.12
38.48
42.8
46.43
48.99
50.45
51.29
52.32
54.41
57.99
62.83
68.04
72.39
74.9
75.25
73.91
71.98
70.65
70.59
71.5
71.91
69.31
60.62
43.21
15.84
-20.47
-62.24
-104.14
-140.31
-166.0
-178.92
-179.73
-171.58
-158.76
-145.33
-133.99
-125.78
-120.47
-117.21
-115.14
-113.53
-111.68
-108.54
-102.77
-93.06
-78.67
-60.02
-38.7
-16.99
2.99
20.1
34.34
46.65
58.11
69.11
79.03
86.33
89.27
86.74
78.79
66.71
52.59
38.65
26.53
16.96
9.78
4.23
-0.64
-5.6
-10.92
-16.49
-21.88
-26.59
-30.3
-32.88
-34.34
-34.71
-33.91
-31.76
-28.11
-23.02
-16.76
-9.86
-2.88
3.75
9.84
15.34
20.31
24.68
28.29
30.9
32.28
32.31
31.01
28.58
25.31
21.57
17.77
14.3
11.5
9.56
8.44
7.92
7.57
6.91
5.59
3.47
0.69
-2.37
-5.22
-7.45
-8.87
-9.49
-9.46
-8.9
-7.78
-5.88
-2.9
1.3
6.55
12.3
17.81
22.35
25.47
27.12
27.54
27.12
26.16
24.77
22.95
20.66
17.99
15.16
12.56
10.59
9.58
9.6
10.46
11.58
12.12
11.22
8.29
3.35
-2.81
-8.85
-13.21
-14.72
-13.02
-8.66
-2.82
3.18
8.48
12.85
16.6
20.15
23.54
26.21
27.13
25.32
20.3
12.51
3.32
-5.14
-10.34
-9.84
-1.83
14.07
36.31
61.16
83.37
97.47
99.44
87.96
64.79
33.99
0.55
-31.04
-57.75
-78.1
-91.84
-99.4
-101.51
-99.13
-93.46
-85.89
-77.83
-70.31
-63.7
-57.55
-50.82
-42.44
-31.96
-20.05
-8.45
0.63
5.47
5.73
2.63
-1.46
-4.14
-3.97
-1.07
3.04
6.29
7.03
4.69
-0.08
-5.83
-10.99
-14.55
-16.34
-17.09
-17.89
-19.58
-22.16
-24.51
-24.73
-20.89
-12.0
1.31
16.66
30.76
40.56
44.52
43.18
38.87
34.55
32.4
32.97
35.05
36.45
35.26
31.02
25.25
21.35
23.69
36.48
62.24
100.26
145.76
190.13
222.66
233.39
216.31
171.66
106.53
33.28
-33.88
-82.96
-107.4
-107.29
-88.48
-59.96
-30.81
-7.92
5.01
7.02
-1.08
-17.58
-40.15
-65.84
-91.01
-112.15
-127.01
-135.55
-139.9
-143.15
-147.68
-153.85
-159.68
-161.82
-157.09
-143.81
-122.26
-94.44
-63.35
-32.5
-5.43
14.58
25.24
26.1
19.21
9.05
1.22
0.56
9.47
27.29
50.9
76.26
99.71
118.71
131.77
137.96
136.68
127.92
112.94
94.64
77.36
65.74
63.1
70.21
85.0
103.52
121.82
137.61
151.02
163.84
177.82
193.0
207.02
215.92
215.86
204.89
183.7
154.99
122.17
88.1
54.68
23.41
-3.94
-25.0
-37.44
-40.13
-34.08
-22.48
-9.73
0.02
4.24
2.4
-4.32
-14.03
-24.94
-35.86
-46.17
-55.5
-63.37
-68.89
-70.94
-68.46
-61.03
-49.37
-35.26
-21.11
-9.04
-0.15
5.72
9.61
12.69
15.65
18.43
20.6
21.76
22.03
21.92
22.09
22.86
24.01
24.85
24.49
22.13
17.22
9.49
-1.12
-14.46
-30.24
-47.99
-67.15
-87.01
-106.74
-125.37
-141.77
-154.76
-163.31
-166.68
-164.54
-156.93
-144.14
-126.74
-105.67
-82.47
-59.28
-38.67
-23.13
-14.5
-13.55
-19.87
-32.02
-47.93
-65.19
-81.36
-94.2
-101.97
-103.75
-99.63
-90.75
-78.89
-66.04
-53.81
-43.06
-33.81
-25.4
-16.87
-7.32
3.63
15.73
27.96
38.79
46.41
49.28
46.49
38.03
24.78
8.25
-9.83
-27.81
-44.37
-58.56
-69.76
-77.65
-82.11
-83.2
-81.06
-75.72
-67.07
-54.78
-38.48
-18.18
5.48
31.07
56.52
79.57
98.45
112.22
120.9
125.27
126.38
125.14
122.02
117.16
110.42
101.66
90.87
78.39
64.96
51.74
40.12
31.33
26.07
24.16
24.47
25.26
24.7
21.42
14.86
5.29
-6.49
-19.43
-32.54
-44.98
-56.05
-65.09
-71.48
-74.71
-74.41
-70.5
-63.15
-52.72
-39.66
-24.42
-7.49
10.42
28.19
44.28
56.98
64.79
66.99
63.86
56.66
47.06
36.61
26.19
15.95
5.56
-5.41
-17.14
-29.41
-41.59
-52.63
-61.03
-65.02
-62.95
-53.82
-37.95
-17.14
5.48
26.09
41.05
47.76
45.17
33.97
16.29
-4.87
-26.4
-45.92
-62.23
-75.52
-86.99
-98.15
-110.14
-123.11
-136.15
-147.35
-154.3
-154.78
-147.4
-132.19
-110.83
-86.49
-63.29
-45.54
-36.88
-39.53
-53.82
-78.14
-109.37
-143.61
-177.2
-207.36
-232.55
-252.3
-266.56
-275.27
-278.17
-275.12
-266.53
-253.53
-237.55
-219.65
-199.93
-177.37
-150.26
-117.11
-77.63
-33.39
12.16
54.32
88.37
110.88
120.69
119.27
110.14
97.75
86.15
78.1
74.73
75.95
80.99
88.93
98.76
109.26
118.99
126.46
130.66
131.42
129.46
126.14
122.79
120.21
118.4
116.77
114.5
110.99
106.1
100.12
93.63
87.15
80.98
75.14
69.49
63.8
58.02
52.28
46.99
42.67
39.76
38.4
38.37
39.16
40.16
40.85
40.98
40.55
39.77
38.85
37.9
36.94
35.9
34.74
33.5
32.24
31.05
29.94
28.89
27.83
26.77
25.73
24.74
23.82
22.96
22.14
21.36
20.63
19.95
19.23
18.35
17.13
15.52
13.54
11.35
9.15
7.12
5.3
3.65
2.09
0.55
-1.02
-2.54
-3.92
-5.04
-5.87
-6.46
-7.02
-7.79
-8.97
-10.54
-12.26
-13.71
-14.46
-14.2
-12.86
-10.58
-7.59
-4.23
-0.83
2.29
4.78
6.41
7.11
7.07
6.7
6.44
6.65
7.39
8.53
9.8
11.01
12.11
13.15
14.25
15.41
16.62
17.8
18.93
20.02
21.06
21.97
22.56
22.61
22.05
21.01
19.87
19.14
19.22
20.23
21.93
23.76
24.98
24.86
22.89
18.91
13.2
6.34
-0.84
-7.54
-13.1
-17.16
-19.7
-20.99
-21.52
-21.84
-22.4
-23.37
-24.6
-25.65
-26.01
-25.22
-23.12
-19.85
-15.81
-11.5
-7.36
-3.71
-0.69
1.69
3.5
4.87
5.89
6.66
7.24
7.69
8.08
8.45
8.81
9.15
9.39
9.48
9.41
9.17
8.85
8.51
8.19
7.9
7.6
7.2
6.66
5.93
5.04
4.06
3.1
2.29
1.73
1.49
1.54
1.81
2.19
2.51
2.62
2.37
1.73
0.77
-0.37
-1.53
-2.65
-3.75
-4.95
-6.38
-8.14
-10.2
-12.45
-14.66
-16.61
-18.11
-19.0
-19.15
-18.5
-17.0
-14.67
-11.6
-8.0
-4.16
-0.45
2.8
5.42
7.41
8.94
10.22
11.42
12.54
13.5
14.14
14.39
14.27
13.91
13.49
13.15
12.91
12.78
12.68
12.54
12.32
11.98
11.52
10.97
10.34
9.68
9.01
8.32
7.59
6.79
5.93
5.04
4.22
3.6
3.26
3.19
3.28
3.37
3.3
2.95
2.32
1.46
0.48
-0.51
-1.52
-2.64
-4.03
-5.84
-8.14
-10.87
-13.82
-16.65
-18.93
-20.33
-20.64
-19.84
-18.1
-15.72
-13.05
-10.35
-7.76
-5.25
-2.75
-0.17
2.46
5.04
7.4
9.43
11.06
12.32
13.3
14.11
14.83
15.53
16.27
17.08
17.93
18.7
19.16
19.07
18.27
16.81
14.92
12.98
11.34
10.17
9.45
8.97
8.49
7.83
7.0
6.09
5.21
4.39
3.62
2.84
2.05
1.29
0.66
0.22
-0.04
-0.27
-0.64
-1.36
-2.56
-4.28
-6.42
-8.85
-11.37
-13.77
-15.87
-17.5
-18.53
-18.84
-18.37
-17.08
-14.99
-12.23
-9.01
-5.59
-2.19
0.99
3.87
6.38
8.44
9.93
10.72
10.73
9.99
8.71
7.24
5.95
5.14
4.94
5.33
6.17
7.33
8.73
10.35
12.17
14.06
15.81
17.16
17.97
18.24
18.17
18.06
18.16
18.53
19.04
19.38
19.28
18.54
17.14
15.19
12.88
10.43
7.97
5.56
3.21
0.84
-1.67
-4.46
-7.68
-11.33
-15.29
-19.26
-22.86
-25.64
-27.3
-27.68
-26.82
-24.92
-22.26
-19.16
-15.86
-12.5
-9.04
-5.3
-1.03
3.93
9.56
15.56
21.42
26.57
30.52
33.01
34.05
33.87
32.87
31.46
29.98
28.7
27.74
27.13
26.84
26.8
26.88
26.89
26.58
25.72
24.22
22.13
19.66
17.02
14.39
11.85
9.42
7.14
5.1
3.4
2.1
1.11
0.25
-0.68
-1.82
-3.17
-4.66
-6.16
-7.6
-9.05
-10.59
-12.37
-14.46
-16.83
-19.27
-21.45
-22.99
-23.63
-23.24
-21.87
-19.7
-16.96
-13.83
-10.49
-7.08
-3.76
-0.71
1.87
3.81
5.04
5.53
5.37
4.68
3.63
2.42
1.28
0.39
-0.1
-0.08
0.42
1.33
2.46
3.65
4.75
5.71
6.53
7.2
7.72
8.02
8.06
7.79
7.24
6.44
5.46
4.37
3.25
2.18
1.26
0.58
0.16
-0.05
-0.16
-0.33
-0.69
-1.27
-2.06
-3.03
-4.16
-5.43
-6.81
-8.28
-9.83
-11.47
-13.28
-15.3
-17.49
-19.65
-21.46
-22.54
-22.62
-21.58
-19.5
-16.63
-13.31
-9.87
-6.6
-3.71
-1.27
0.74
2.4
3.87
5.23
6.53
7.71
8.71
9.48
10.02
10.39
10.71
11.02
11.33
11.6
11.81
11.93
12.02
12.11
12.21
12.3
12.28
12.05
11.57
10.84
9.94
8.95
7.95
6.98
6.01
5.01
3.91
2.68
1.28
-0.29
-2.03
-3.94
-5.97
-8.06
-10.09
-11.98
-13.66
-15.19
-16.68
-18.31
-20.15
-22.15
-24.08
-25.64
-26.56
-26.74
-26.29
-25.47
-24.48
-23.4
-22.1
-20.37
-18.05
-15.18
-12.05
-9.09
-6.71
-5.09
-4.09
-3.31
-2.24
-0.54
1.8
4.37
6.51
7.64
7.55
6.59
5.59
5.51
6.99
10.0
13.77
17.06
18.76
18.39
16.43
14.13
13.06
14.35
18.24
23.92
29.75
33.8
34.35
30.39
22.1
11.23
0.98
-4.55
-1.48
12.39
36.55
67.63
100.16
128.21
147.21
155.12
152.58
141.82
125.08
103.43
76.78
45.07
9.87
-24.67
-52.41
-67.08
-64.8
-45.96
-15.22
20.15
52.88
78.13
94.43
103.29
107.71
110.51
113.33
116.29
118.25
117.45
112.2
101.32
84.46
62.09
35.49
6.5
-22.64
-49.76
-73.05
-91.2
-103.61
-110.29
-111.88
-109.53
-104.84
-99.49
-94.91
-91.93
-90.61
-90.49
-90.98
-91.71
-92.74
-94.37
-96.91
-100.38
-104.44
-108.44
-111.64
-113.33
-113.13
-111.01
-107.43
-103.14
-99.02
-95.7
-93.33
-91.55
-89.72
-87.23
-83.91
-80.12
-76.63
-74.24
-73.44
-74.09
-75.51
-76.69
-76.77
-75.4
-72.98
-70.51
-69.2
-70.01
-73.13
-77.89
-82.96
-86.86
-88.57
-88.01
-86.17
-84.76
-85.48
-88.97
-93.96
-96.98
-92.97
-76.65
-44.51
3.35
62.51
124.93
180.85
221.28
240.34
236.71
213.86
179.15
141.86
110.68
91.2
84.39
86.6
91.34
92.06
84.72
69.01
47.72
24.87
3.66
-14.71
-30.9
-46.37
-62.31
-79.01
-95.9
-111.89
-125.77
-136.57
-143.62
-146.64
-145.72
-141.31
-134.12
-125.06
-114.96
-104.41
-93.66
-82.38
-69.95
-55.53
-38.56
-18.99
2.65
25.6
49.27
73.49
98.36
123.56
147.79
168.77
183.8
191.08
190.65
184.58
176.25
169.09
165.29
165.4
168.56
173.19
177.67
180.46
180.04
174.84
163.56
145.67
122.01
94.77
66.9
41.1
18.97
0.63
-14.94
-29.04
-42.52
-55.44
-67.37
-77.92
-87.1
-95.3
-102.81
-109.4
-114.42
-117.3
-117.99
-117.07
-115.35
-113.22
-110.33
-105.95
-99.78
-92.46
-85.58
-80.83
-78.96
-79.15
-79.17
-76.47
-69.27
-57.37
-42.09
-25.69
-10.34
2.58
12.64
20.13
25.44
28.59
29.09
26.4
20.36
11.73
2.17
-6.3
-11.88
-13.49
-10.81
-4.15
5.47
16.07
24.63
27.61
22.3
8.54
-10.48
-28.8
-39.98
-39.89
-28.57
-10.17
8.91
22.72
27.74
23.37
11.22
-6.08
-25.41
-42.91
-53.84
-53.16
-37.37
-6.46
35.07
79.22
117.21
142.68
153.73
152.97
145.66
137.04
130.25
125.62
121.49
115.64
106.56
93.83
77.75
58.69
36.75
12.13
-14.08
-39.31
-59.6
-70.68
-69.77
-57.04
-35.88
-11.74
9.78
24.93
32.47
33.29
29.18
21.83
12.39
1.74
-9.07
-18.76
-26.14
-30.7
-32.78
-33.37
-33.41
-33.23
-32.46
-30.53
-27.26
-23.23
-19.48
-16.78
-14.99
-13.1
-9.79
-4.4
2.49
9.32
14.28
16.18
14.95
11.38
6.51
1.1
-4.53
-10.28
-15.85
-20.55
-23.39
-23.42
-20.19
-13.89
-5.4
4.01
12.96
20.36
25.59
28.55
29.6
29.28
28.15
26.59
24.86
23.08
21.37
19.85
18.63
17.72
17.0
16.31
15.43
14.17
12.45
10.3
7.83
5.26
2.87
0.88
-0.6
-1.65
-2.52
-3.52
-4.89
-6.74
-8.96
-11.32
-13.51
-15.24
-16.28
-16.55
-16.05
-14.86
-13.17
-11.13
-8.89
-6.5
-4.04
-1.55
0.85
3.01
4.71
5.83
6.35
6.43
6.39
6.57
7.21
8.38
9.88
11.43
12.68
13.43
13.68
13.64
13.62
13.84
14.39
15.13
15.83
16.2
16.11
15.59
14.8
13.94
13.08
12.17
11.11
9.82
8.29
6.5
4.27
1.27
-2.86
-8.29
-14.86
-22.19
-29.85
-37.65
-45.62
-53.79
-61.89
-69.05
-74.05
-75.76
-73.59
-67.87
-59.64
-50.27
-40.96
-32.38
-24.63
-17.46
-10.55
-3.69
3.01
9.3
14.81
19.31
22.78
25.39
27.41
29.02
30.27
31.0
31.09
30.49
29.39
28.18
27.26
26.88
26.99
27.35
27.55
27.29
26.44
25.1
23.48
21.8
20.2
18.66
17.09
15.32
13.28
10.92
8.34
5.66
3.07
0.72
-1.34
-3.11
-4.7
-6.22
-7.8
-9.55
-11.58
-13.94
-16.6
-19.35
-21.77
-23.38
-23.71
-22.47
-19.68
-15.64
-10.82
-5.75
-0.92
3.31
6.69
9.13
10.66
11.46
11.84
12.12
12.51
13.08
13.75
14.35
14.75
14.91
14.85
14.61
14.24
13.77
13.26
12.8
12.52
12.5
12.73
13.06
13.21
12.92
12.03
10.61
8.88
7.15
5.65
4.49
3.6
2.8
1.89
0.79
-0.48
-1.78
-2.94
-3.89
-4.63
-5.26
-5.88
-6.56
-7.34
-8.28
-9.45
-10.96
-12.79
-14.8
-16.71
-18.1
-18.63
-18.09
-16.54
-14.2
-11.43
-8.59
-5.93
-3.62
-1.67
-0.03
1.42
2.76
4.03
5.18
6.18
7.01
7.69
8.31
8.98
9.74
10.57
11.4
12.14
12.7
13.09
13.35
13.52
13.59
13.51
13.21
12.62
11.78
10.79
9.77
8.78
7.83
6.83
5.72
4.44
3.07
1.77
0.65
-0.22
-0.91
-1.55
-2.28
-3.19
-4.27
-5.5
-6.84
-8.34
-10.06
-12.0
-14.05
-15.98
-17.46
-18.18
-17.94
-16.69
-14.54
-11.67
-8.35
-4.86
-1.5
1.48
3.89
5.67
6.88
7.64
8.12
8.4
8.56
8.67
8.82
9.09
9.55
10.16
10.79
11.28
11.54
11.57
11.49
11.41
11.35
11.23
10.93
10.35
9.47
8.39
7.2
6.0
4.82
3.67
2.59
1.64
0.87
0.25
-0.34
-1.04
-1.98
-3.2
-4.66
-6.24
-7.87
-9.47
-11.01
-12.49
-13.88
-15.21
-16.53
-17.92
-19.42
-20.92
-22.21
-22.92
-22.72
-21.4
-19.02
-15.82
-12.22
-8.59
-5.24
-2.28
0.24
2.36
4.13
5.62
6.9
8.02
8.96
9.66
10.06
10.17
10.12
10.09
10.26
10.7
11.31
11.89
12.28
12.4
12.3
12.09
11.86
11.59
11.24
10.71
9.97
9.08
8.1
7.09
6.08
5.05
3.97
2.85
1.72
0.63
-0.42
-1.46
-2.62
-4.03
-5.75
-7.75
-9.85
-11.79
-13.38
-14.53
-15.35
-16.06
-16.88
-17.97
-19.28
-20.58
-21.56
-21.92
-21.39
-19.9
-17.54
-14.48
-11.04
-7.54
-4.26
-1.41
0.9
2.7
4.06
5.15
6.09
6.98
7.84
8.65
9.35
9.85
10.11
10.16
10.09
10.04
10.14
10.42
10.86
11.34
11.72
11.91
11.91
11.76
11.53
11.23
10.84
10.33
9.66
8.85
7.96
7.03
6.08
5.09
4.08
3.06
2.08
1.22
0.5
-0.1
-0.71
-1.42
-2.33
-3.5
-4.9
-6.49
-8.19
-9.9
-11.58
-13.21
-14.86
-16.62
-18.55
-20.5
-22.21
-23.27
-23.32
-22.23
-20.13
-17.37
-14.37
-11.44
-8.73
-6.22
-3.88
-1.69
0.26
1.9
3.2
4.25
5.18
6.12
7.13
8.16
9.14
9.96
10.6
11.02
11.25
11.33
11.3
11.23
11.2
11.28
11.48
11.7
11.82
11.65
11.07
10.04
8.65
7.04
5.39
3.87
2.54
1.38
0.26
-1.02
-2.62
-4.63
-6.94
-9.28
-11.34
-12.87
-13.83
-14.37
-14.81
-15.41
-16.32
-17.46
-18.65
-19.69
-20.51
-21.16
-21.72
-22.15
-22.26
-21.69
-20.0
-16.96
-12.67
-7.6
-2.5
1.88
5.05
6.91
7.79
8.24
8.74
9.62
10.91
12.46
14.03
15.35
16.16
16.23
15.39
13.69
11.46
9.28
7.84
7.69
8.99
11.44
14.37
16.97
18.51
18.55
17.05
14.31
11.0
7.86
5.62
4.66
4.92
5.86
6.6
6.2
3.96
-0.27
-6.09
-12.56
-18.5
-22.81
-24.82
-24.46
-22.37
-19.59
-17.23
-16.06
-16.31
-17.55
-19.07
-20.09
-20.08
-18.85
-16.45
-13.07
-8.9
-4.17
0.82
5.61
9.6
12.28
13.28
12.56
10.4
7.33
3.99
1.02
-1.04
-1.84
-1.31
0.36
2.7
5.11
6.99
7.92
7.79
6.83
5.54
4.5
4.19
4.89
6.56
8.97
11.68
14.21
16.06
16.76
15.91
13.22
8.68
2.78
-3.49
-8.78
-11.84
-12.02
-9.58
-5.7
-2.01
0.01
-0.42
-3.19
-7.47
-12.12
-16.19
-19.09
-20.72
-21.24
-20.94
-20.07
-18.92
-17.79
-17.0
-16.8
-17.19
-17.8
-17.94
-16.78
-13.76
-8.87
-2.74
3.53
8.74
12.0
12.95
11.82
9.27
6.2
3.47
1.77
1.49
2.6
4.69
7.03
8.81
9.37
8.42
6.11
3.01
-0.06
-2.26
-2.97
-2.02
0.28
3.14
5.59
6.76
6.2
4.03
0.89
-2.29
-4.6
-5.4
-4.49
-2.15
1.07
4.33
6.77
7.56
6.15
2.45
-3.04
-9.23
-14.76
-18.46
-19.77
-18.95
-16.92
-14.8
-13.35
-12.74
-12.51
-11.93
-10.37
-7.6
-3.9
0.15
3.86
6.68
8.34
8.86
8.47
7.51
6.32
5.19
4.35
4.05
4.57
6.17
8.93
12.69
16.92
20.98
24.22
26.23
26.93
26.46
25.05
22.99
20.51
17.91
15.52
13.63
12.38
11.62
10.96
9.93
8.25
5.98
3.54
1.48
0.24
-0.05
0.31
0.69
0.33
-1.4
-4.78
-9.57
-15.06
-20.22
-24.09
-26.05
-26.03
-24.41
-21.88
-19.11
-16.61
-14.71
-13.61
-13.39
-14.09
-15.56
-17.49
-19.42
-20.82
-21.27
-20.55
-18.64
-15.67
-11.92
-7.68
-3.29
0.97
4.94
8.51
11.58
13.99
15.53
16.04
15.55
14.37
13.09
12.35
12.66
14.08
16.31
18.7
20.49
21.06
19.98
17.16
12.78
7.32
1.5
-3.83
-7.78
-9.57
-8.76
-5.3
0.32
7.19
14.14
20.09
24.19
26.04
25.62
23.19
19.2
14.16
8.67
3.36
-1.05
-3.96
-4.99
-4.18
-1.95
0.96
3.66
5.42
5.73
4.49
1.91
-1.47
-4.94
-7.75
-9.17
-8.71
-6.17
-1.82
3.7
9.42
14.32
17.54
18.58
17.45
14.57
10.63
6.45
2.78
0.22
-0.83
-0.24
1.77
4.7
7.72
9.93
10.48
8.94
5.47
0.87
-3.59
-6.66
-7.43
-5.75
-2.21
1.97
5.4
6.87
5.7
1.94
-3.77
-10.32
-16.48
-21.2
-23.86
-24.34
-23.03
-20.65
-18.04
-15.95
-14.86
-14.87
-15.71
-16.8
-17.41
-16.88
-14.85
-11.47
-7.39
-3.66
-1.32
-1.0
-2.62
-5.3
-7.69
-8.43
-6.69
-2.49
3.35
9.47
14.52
17.53
18.27
17.09
14.77
12.18
9.95
8.44
7.64
7.31
7.09
6.65
5.74
4.31
2.51
0.67
-0.77
-1.51
-1.47
-0.96
-0.51
-0.68
-1.81
-3.84
-6.33
-8.61
-10.11
-10.48
-9.81
-8.46
-7.01
-6.04
-5.94
-6.88
-8.74
-11.21
-13.91
-16.41
-18.45
-19.84
-20.55
-20.57
-19.85
-18.35
-15.98
-12.73
-8.77
-4.48
-0.32
3.24
5.96
7.85
9.16
10.19
11.14
12.01
12.67
13.06
13.24
13.44
13.89
14.66
15.58
16.24
16.21
15.16
12.98
9.81
5.94
1.78
-2.18
-5.49
-7.73
-8.69
-8.43
-7.28
-5.82
-4.64
-4.21
-4.68
-5.87
-7.34
-8.52
-8.94
-8.34
-6.76
-4.53
-2.14
-0.07
1.31
1.83
1.44
0.14
-2.0
-4.96
-8.55
-12.46
-16.13
-18.82
-19.84
-18.68
-15.35
-10.29
-4.39
1.39
6.22
9.68
11.77
12.81
13.23
13.4
13.5
13.64
13.87
14.23
14.74
15.32
15.73
15.62
14.61
12.51
9.33
5.38
1.18
-2.63
-5.46
-6.86
-6.63
-4.87
-2.02
1.22
4.06
5.82
6.12
5.04
2.98
0.53
-1.83
-3.78
-5.26
-6.38
-7.23
-7.93
-8.55
-9.2
-10.1
-11.48
-13.54
-16.28
-19.43
-22.49
-24.82
-25.86
-25.26
-23.02
-19.5
-15.3
-11.1
-7.48
-4.77
-3.12
-2.4
-2.39
-2.78
-3.28
-3.57
-3.4
-2.57
-1.07
0.99
3.31
5.51
7.19
7.99
7.74
6.43
4.27
1.67
-0.88
-2.88
-4.03
-4.25
-3.7
-2.72
-1.66
-0.75
-0.09
0.34
0.59
0.68
0.63
0.52
0.53
0.95
2.08
4.07
6.83
9.96
12.8
14.66
14.93
13.28
9.75
4.69
-1.22
-7.07
-11.86
-14.76
-15.3
-13.63
-10.46
-6.81
-3.75
-1.93
-1.45
-1.89
-2.6
-2.95
-2.57
-1.32
0.69
3.25
6.02
8.61
10.5
11.25
10.54
8.32
4.82
0.52
-3.97
-8.01
-11.11
-13.04
-13.85
-13.91
-13.78
-14.09
-15.24
-17.33
-20.03
-22.73
-24.73
-25.43
-24.55
-22.1
-18.35
-13.8
-9.0
-4.53
-0.96
1.3
2.04
1.37
-0.27
-2.15
-3.48
-3.68
-2.5
-0.13
2.91
5.99
8.54
10.21
10.98
11.03
10.7
10.37
10.37
10.95
12.23
14.15
16.42
18.54
19.88
19.89
18.25
15.03
10.74
6.15
2.08
-0.93
-2.65
-3.28
-3.2
-2.88
-2.77
-3.18
-4.31
-6.15
-8.57
-11.18
-13.5
-14.94
-15.09
-13.73
-11.0
-7.31
-3.19
0.78
4.16
6.7
8.36
9.22
9.49
9.44
9.32
9.37
9.7
10.29
11.03
11.72
12.18
12.29
12.04
11.51
10.84
10.17
9.53
9.0
8.55
8.18
7.83
7.42
6.83
5.89
4.5
2.62
0.42
-1.82
-3.77
-5.18
-5.98
-6.3
-6.49
-6.9
-7.77
-9.15
-10.84
-12.52
-13.78
-14.31
-13.92
-12.6
-10.43
-7.64
-4.52
-1.36
1.58
4.11
6.18
7.85
9.26
10.57
11.85
13.09
14.16
14.86
15.09
14.81
14.14
13.27
12.4
11.64
11.07
10.7
10.56
10.71
11.19
11.95
12.85
13.69
14.25
14.38
14.05
13.29
12.16
10.73
9.09
7.35
5.62
4.02
2.53
1.1
-0.38
-1.96
-3.6
-5.21
-6.64
-7.87
-8.92
-9.93
-11.04
-12.37
-13.91
-15.59
-17.23
-18.59
-19.44
-19.59
-18.98
-17.7
-15.93
-13.89
-11.74
-9.54
-7.36
-5.21
-3.17
-1.31
0.33
1.77
3.08
4.33
5.58
6.81
7.98
9.04
9.95
10.68
11.26
11.71
12.02
12.17
12.13
11.87
11.4
10.76
10.0
9.2
8.46
7.85
7.43
7.17
6.98
6.74
6.34
5.73
4.89
3.93
2.96
2.02
1.13
0.24
-0.69
-1.69
-2.76
-3.87
-4.98
-6.04
-7.0
-7.84
-8.65
-9.55
-10.73
-12.29
-14.18
-16.16
-17.85
-18.87
-18.92
-17.91
-15.92
-13.23
-10.2
-7.19
-4.53
-2.38
-0.77
0.47
1.49
2.41
3.25
3.98
4.56
5.03
5.51
6.09
6.8
7.53
8.15
8.53
8.66
8.66
8.63
8.69
8.83
8.96
8.97
8.75
8.28
7.58
6.74
5.82
4.91
4.07
3.32
2.66
2.1
1.62
1.19
0.79
0.34
-0.21
-0.93
-1.8
-2.81
-3.91
-5.09
-6.33
-7.63
-9.0
-10.37
-11.71
-12.9
-13.85
-14.42
-14.48
-13.95
-12.85
-11.31
-9.54
-7.74
-6.03
-4.41
-2.86
-1.32
0.16
1.48
2.51
3.21
3.59
3.78
3.94
4.2
4.64
5.24
5.91
6.44
6.68
6.51
5.94
5.13
4.36
3.93
4.02
4.6
5.48
6.32
6.82
6.78
6.27
5.41
4.41
3.38
2.38
1.39
0.42
-0.48
-1.29
-1.98
-2.57
-3.12
-3.66
-4.23
-4.85
-5.55
-6.36
-7.29
-8.3
-9.33
-10.3
-11.22
-12.11
-12.99
-13.74
-14.17
-14.04
-13.19
-11.73
-9.94
-8.17
-6.71
-5.64
-4.86
-4.2
-3.55
-2.86
-2.19
-1.58
-1.01
-0.4
0.36
1.32
2.44
3.61
4.65
5.36
5.62
5.4
4.81
4.04
3.31
2.79
2.5
2.38
2.28
2.07
1.77
1.43
1.17
1.03
0.94
0.77
0.41
-0.15
-0.82
-1.44
-1.93
-2.29
-2.64
-3.05
-3.57
-4.14
-4.74
-5.33
-5.99
-6.83
-7.91
-9.22
-10.69
-12.14
-13.39
-14.25
-14.51
-14.07
-12.9
-11.11
-8.93
-6.64
-4.43
-2.44
-0.7
0.75
1.86
2.56
2.83
2.71
2.36
1.98
1.7
1.6
1.68
1.9
2.22
2.63
3.08
3.55
3.97
4.3
4.55
4.75
4.95
5.12
5.22
5.13
4.78
4.16
3.35
2.49
1.71
1.08
0.57
0.08
-0.48
-1.14
-1.84
-2.51
-3.1
-3.67
-4.31
-5.09
-6.01
-6.95
-7.82
-8.56
-9.27
-10.07
-11.09
-12.29
-13.52
-14.52
-15.05
-14.97
-14.28
-13.09
-11.52
-9.76
-7.97
-6.29
-4.81
-3.55
-2.46
-1.48
-0.61
0.14
0.7
1.08
1.38
1.73
2.27
3.03
3.92
4.8
5.57
6.19
6.76
7.33
7.93
8.47
8.8
8.8
8.42
7.77
6.99
6.28
5.72
5.33
5.02
4.66
4.16
3.45
2.57
1.59
0.57
-0.45
-1.47
-2.52
-3.65
-4.86
-6.12
-7.38
-8.59
-9.68
-10.65
-11.57
-12.54
-13.67
-15.0
-16.43
-17.77
-18.71
-18.99
-18.42
-17.03
-15.0
-12.66
-10.35
-8.34
-6.77
-5.65
-4.8
-4.01
-3.06
-1.84
-0.37
1.24
2.79
4.06
4.92
5.33
5.35
5.21
5.18
5.55
6.51
8.06
10.0
11.98
13.66
14.78
15.22
15.03
14.34
13.29
12.0
10.57
9.14
7.87
6.89
6.25
5.84
5.52
5.08
4.41
3.49
2.41
1.3
0.23
-0.82
-1.94
-3.24
-4.79
-6.57
-8.54
-10.58
-12.58
-14.41
-15.86
-16.65
-16.55
-15.37
-13.14
-10.1
-6.65
-3.26
-0.29
2.06
3.77
4.91
5.64
6.09
6.37
6.53
6.64
6.71
6.78
6.8
6.75
6.59
6.33
6.08
5.98
6.13
6.55
7.14
7.66
7.93
7.82
7.36
6.69
5.95
5.22
4.51
3.83
3.18
2.64
2.28
2.07
1.91
1.62
1.03
0.13
-1.0
-2.22
-3.46
-4.76
-6.21
-7.85
-9.57
-11.09
-12.05
-12.17
-11.38
-9.78
-7.63
-5.23
-2.86
-0.7
1.15
2.65
3.81
4.63
5.17
5.48
5.62
5.7
5.8
5.99
6.27
6.57
6.78
6.84
6.75
6.6
6.52
6.6
6.88
7.29
7.67
7.84
7.6
6.87
5.69
4.25
2.79
1.57
0.7
0.17
-0.15
-0.43
-0.83
-1.42
-2.26
-3.33
-4.66
-6.26
-8.09
-10.03
-11.87
-13.36
-14.24
-14.27
-13.34
-11.47
-8.87
-5.91
-2.98
-0.42
1.58
3.06
4.17
5.06
5.83
6.44
6.77
6.81
6.64
6.41
6.31
6.36
6.53
6.71
6.81
6.84
6.9
7.05
7.28
7.5
7.55
7.3
6.73
5.91
4.95
3.95
2.96
2.0
1.03
0.01
-1.1
-2.29
-3.53
-4.8
-6.06
-7.36
-8.81
-10.44
-12.23
-13.96
-15.3
-15.92
-15.63
-14.43
-12.51
-10.11
-7.48
-4.77
-2.1
0.4
2.6
4.4
5.76
6.73
7.39
7.83
8.04
7.98
7.64
7.12
6.54
6.08
5.84
5.83
5.98
6.19
6.35
6.42
6.39
6.28
6.11
5.96
5.87
5.88
5.97
6.01
5.87
5.43
4.63
3.58
2.39
1.21
0.08
-1.05
-2.25
-3.57
-5.03
-6.61
-8.28
-10.04
-11.85
-13.6
-15.09
-16.1
-16.37
-15.75
-14.21
-11.91
-9.08
-6.06
-3.13
-0.54
1.6
3.3
4.66
5.77
6.72
7.48
7.98
8.14
7.95
7.51
6.99
6.52
6.21
6.11
6.22
6.52
6.97
7.53
8.1
8.55
8.77
8.73
8.44
7.99
7.49
7.01
6.55
6.11
5.62
5.06
4.38
3.6
2.7
1.68
0.54
-0.74
-2.14
-3.64
-5.22
-6.84
-8.51
-10.22
-12.01
-13.8
-15.5
-16.94
-17.92
-18.28
-17.92
-16.81
-14.98
-12.53
-9.62
-6.49
-3.45
-0.75
1.37
2.81
3.6
3.84
3.71
3.42
3.18
3.19
3.58
4.38
5.44
6.54
7.45
8.06
8.42
8.69
9.03
9.51
10.04
10.45
10.6
10.45
10.09
9.67
9.27
8.88
8.33
7.48
6.25
4.72
3.1
1.61
0.42
-0.5
-1.25
-2.03
-2.96
-4.07
-5.29
-6.49
-7.62
-8.71
-9.85
-11.18
-12.74
-14.44
-16.04
-17.19
-17.58
-17.04
-15.55
-13.3
-10.59
-7.74
-5.03
-2.6
-0.54
1.18
2.58
3.71
4.61
5.3
5.84
6.27
6.7
7.22
7.87
8.59
9.23
9.66
9.78
9.64
9.37
9.11
8.93
8.84
8.73
8.56
8.33
8.12
7.96
7.84
7.65
7.29
6.66
5.8
4.82
3.85
2.97
2.17
1.4
0.54
-0.41
-1.41
-2.39
-3.29
-4.18
-5.16
-6.31
-7.71
-9.35
-11.15
-13.05
-14.94
-16.7
-18.17
-19.11
-19.22
-18.3
-16.29
-13.38
-9.98
-6.56
-3.51
-1.02
0.96
2.57
3.98
5.25
6.33
7.12
7.6
7.85
8.03
8.26
8.57
8.91
9.26
9.56
9.86
10.19
10.55
10.84
11.01
10.98
10.78
10.48
10.14
9.8
9.43
9.0
8.48
7.92
7.33
6.75
6.13
5.43
4.58
3.54
2.37
1.13
-0.06
-1.19
-2.27
-3.37
-4.57
-5.85
-7.17
-8.44
-9.63
-10.78
-12.0
-13.4
-14.96
-16.55
-17.87
-18.63
-18.57
-17.59
-15.78
-13.38
-10.73
-8.1
-5.71
-3.59
-1.7
0.03
1.65
3.1
4.33
5.25
5.88
6.31
6.71
7.19
7.81
8.57
9.39
10.19
10.89
11.47
11.93
12.31
12.64
12.91
13.06
13.03
12.8
12.36
11.76
11.05
10.24
9.35
8.34
7.21
5.97
4.68
3.41
2.27
1.29
0.52
-0.11
-0.7
-1.37
-2.19
-3.18
-4.3
-5.44
-6.57
-7.73
-9.01
-10.54
-12.38
-14.48
-16.65
-18.64
-20.15
-20.94
-20.83
-19.73
-17.72
-14.96
-11.79
-8.55
-5.57
-3.04
-1.02
0.58
1.88
3.0
4.0
4.89
5.69
6.39
7.01
7.57
8.06
8.47
8.8
9.06
9.29
9.53
9.84
10.25
10.77
11.31
11.77
12.01
11.91
11.46
10.73
9.83
8.88
7.94
7.04
6.18
5.39
4.69
4.12
3.68
3.31
2.97
2.57
2.05
1.3
0.29
-1.01
-2.51
-4.07
-5.53
-6.77
-7.82
-8.85
-10.07
-11.67
-13.66
-15.87
-18.02
-19.78
-20.86
-21.08
-20.36
-18.76
-16.37
-13.37
-10.01
-6.61
-3.49
-0.92
0.99
2.28
3.15
3.84
4.49
5.16
5.77
6.27
6.66
7.03
7.46
8.0
8.61
9.2
9.7
10.08
10.37
10.62
10.87
11.08
11.24
11.28
11.19
10.91
10.43
9.73
8.87
7.93
7.01
6.17
5.41
4.63
3.77
2.8
1.79
0.87
0.14
-0.38
-0.81
-1.31
-2.02
-3.0
-4.19
-5.48
-6.78
-8.1
-9.53
-11.2
-13.18
-15.41
-17.68
-19.63
-20.86
-21.09
-20.2
-18.31
-15.68
-12.62
-9.43
-6.32
-3.44
-0.92
1.13
2.62
3.54
4.03
4.27
4.48
4.82
5.32
5.93
6.53
7.07
7.54
8.02
8.57
9.21
9.89
10.46
10.8
10.86
10.66
10.3
9.94
9.66
9.52
9.48
9.45
9.34
9.08
8.57
7.79
6.78
5.6
4.39
3.25
2.25
1.37
0.51
-0.39
-1.36
-2.37
-3.38
-4.32
-5.24
-6.2
-7.32
-8.73
-10.52
-12.75
-15.36
-18.12
-20.67
-22.61
-23.53
-23.19
-21.57
-18.89
-15.5
-11.8
-8.18
-4.91
-2.2
-0.12
1.31
2.18
2.65
2.9
3.14
3.56
4.28
5.3
6.51
7.7
8.68
9.3
9.53
9.49
9.41
9.5
9.88
10.52
11.25
11.85
12.13
12.03
11.61
10.99
10.27
9.49
8.62
7.61
6.45
5.22
4.03
2.97
2.06
1.28
0.52
-0.28
-1.14
-2.07
-3.0
-3.9
-4.74
-5.59
-6.5
-7.58
-8.88
-10.45
-12.29
-14.28
-16.29
-18.05
-19.35
-19.96
-19.77
-18.76
-16.98
-14.56
-11.67
-8.51
-5.33
-2.36
0.17
2.16
3.57
4.51
5.08
5.39
5.52
5.57
5.64
5.91
6.5
7.44
8.61
9.79
10.74
11.33
11.6
11.69
11.74
11.84
11.93
11.9
11.65
11.14
10.43
9.59
8.64
7.61
6.48
5.26
4.03
2.89
1.91
1.05
0.21
-0.77
-1.96
-3.3
-4.64
-5.78
-6.63
-7.23
-7.7
-8.25
-9.0
-10.03
-11.34
-12.92
-14.69
-16.59
-18.41
-19.83
-20.49
-20.1
-18.49
-15.77
-12.23
-8.35
-4.58
-1.3
1.29
3.17
4.42
5.17
5.58
5.77
5.89
6.07
6.45
7.12
8.02
9.01
9.88
10.46
10.71
10.75
10.76
10.94
11.37
11.98
12.62
13.11
13.32
13.2
12.75
11.98
10.95
9.7
8.32
6.88
5.49
4.2
3.03
1.94
0.87
-0.26
-1.51
-2.89
-4.33
-5.75
-7.06
-8.22
-9.25
-10.19
-11.2
-12.38
-13.86
-15.65
-17.68
-19.71
-21.46
-22.59
-22.81
-21.97
-20.05
-17.19
-13.67
-9.86
-6.17
-2.93
-0.38
1.45
2.67
3.49
4.04
4.45
4.69
4.83
4.93
5.15
5.62
6.38
7.36
8.4
9.33
10.04
10.51
10.73
10.69
10.4
9.89
9.28
8.75
8.47
8.52
8.86
9.37
9.89
10.31
10.5
10.36
9.81
8.84
7.57
6.18
4.91
3.94
3.25
2.68
2.0
1.05
-0.21
-1.68
-3.18
-4.58
-5.8
-6.9
-8.02
-9.34
-10.99
-12.96
-15.06
-16.91
-18.07
-18.17
-17.03
-14.75
-11.67
-8.25
-4.89
-1.87
0.69
2.77
4.41
5.58
6.31
6.65
6.75
6.84
7.17
7.86
8.82
9.78
10.41
10.51
10.1
9.41
8.81
8.59
8.9
9.62
10.53
11.32
11.78
11.79
11.37
10.66
9.82
8.96
8.14
7.24
6.14
4.69
2.93
1.05
-0.67
-1.98
-2.81
-3.36
-3.99
-5.03
-6.63
-8.64
-10.73
-12.49
-13.67
-14.31
-14.74
-15.5
-17.07
-19.65
-22.95
-26.19
-28.32
-28.37
-25.92
-21.28
-15.47
-9.89
-5.75
-3.72
-3.62
-4.55
-5.15
-4.05
-0.23
6.72
16.51
28.27
40.66
52.2
61.54
67.75
70.46
69.79
66.0
59.1
48.59
33.71
14.16
-9.08
-33.16
-53.79
-66.28
-67.3
-56.23
-35.59
-10.32
13.82
32.08
41.84
42.97
37.22
27.2
15.55
4.3
-5.22
-12.28
-16.57
-18.21
-17.68
-15.94
-14.22
-13.71
-15.12
-18.42
-22.73
-26.68
-28.9
-28.51
-25.52
-20.73
-15.39
-10.68
-7.35
-5.48
-4.67
-4.33
-3.96
-3.32
-2.45
-1.55
-0.79
-0.2
0.32
0.91
1.69
2.6
3.45
3.97
4.0
3.59
2.99
2.6
2.71
3.44
4.67
6.11
7.43
8.31
8.51
7.86
6.32
4.0
1.26
-1.39
-3.47
-4.67
-4.92
-4.44
-3.56
-2.67
-2.19
-2.53
-4.02
-6.81
-10.71
-15.15
-19.35
-22.47
-23.87
-23.2
-20.53
-16.23
-10.97
-5.57
-0.88
2.51
4.4
5.09
5.2
5.37
6.1
7.49
9.43
11.57
13.52
14.91
15.47
15.1
13.9
12.22
10.54
9.38
9.08
9.74
11.25
13.24
15.26
16.73
17.17
16.3
14.14
11.07
7.74
4.89
3.1
2.64
3.39
4.84
6.2
6.68
5.68
3.11
-0.56
-4.46
-7.57
-9.16
-9.07
-7.74
-6.08
-5.08
-5.49
-7.55
-10.97
-14.95
-18.48
-20.54
-20.51
-18.3
-14.47
-10.08
-6.39
-4.49
-4.9
-7.52
-11.57
-15.95
-19.49
-21.31
-20.89
-18.19
-13.53
-7.65
-1.49
3.92
7.73
9.5
9.41
8.17
6.8
6.26
7.13
9.36
12.39
15.35
17.39
17.96
16.98
14.88
12.42
10.45
9.64
10.26
12.1
14.63
17.13
18.94
19.6
18.98
17.26
14.86
12.34
10.2
8.85
8.45
8.94
10.01
11.19
11.88
11.56
9.94
7.09
3.49
-0.13
-2.99
-4.56
-4.74
-3.9
-2.8
-2.3
-3.17
-5.81
-10.14
-15.58
-21.26
-26.26
-29.8
-31.39
-30.85
-28.27
-24.02
-18.82
-13.57
-9.24
-6.51
-5.47
-5.59
-5.93
-5.5
-3.71
-0.52
3.59
7.87
11.48
13.79
14.38
13.24
10.72
7.59
4.81
3.24
3.42
5.3
8.33
11.62
14.22
15.4
14.86
12.83
9.96
7.15
5.25
4.69
5.29
6.37
7.0
6.49
4.7
2.03
-0.8
-3.1
-4.52
-5.04
-4.84
-4.19
-3.36
-2.67
-2.48
-3.21
-5.11
-8.13
-11.83
-15.57
-18.64
-20.53
-20.99
-20.08
-18.09
-15.53
-12.99
-10.96
-9.71
-9.09
-8.6
-7.65
-5.74
-2.71
1.2
5.46
9.46
12.58
14.38
14.64
13.45
11.25
8.78
6.88
6.26
7.25
9.7
13.0
16.25
18.52
19.12
17.8
14.84
10.96
7.18
4.42
3.28
3.73
5.25
6.95
7.87
7.37
5.25
1.82
-2.25
-6.12
-9.05
-10.57
-10.6
-9.47
-7.8
-6.45
-6.22
-7.68
-10.96
-15.66
-20.94
-25.66
-28.76
-29.46
-27.57
-23.55
-18.34
-13.14
-8.97
-6.37
-5.25
-4.98
-4.67
-3.52
-1.1
2.58
7.12
11.83
15.89
18.52
19.16
17.72
14.69
11.11
8.22
7.04
8.02
10.87
14.74
18.5
21.19
22.13
21.13
18.39
14.49
10.3
6.8
4.8
4.67
6.22
8.7
11.09
12.34
11.77
9.16
4.83
-0.44
-5.66
-9.83
-12.26
-12.68
-11.4
-9.17
-7.01
-5.9
-6.59
-9.36
-13.97
-19.71
-25.51
-30.25
-32.98
-33.19
-30.92
-26.71
-21.48
-16.25
-11.87
-8.82
-7.1
-6.28
-5.66
-4.5
-2.31
0.98
5.04
9.2
12.69
14.9
15.53
14.68
12.79
10.53
8.61
7.63
7.95
9.65
12.48
15.93
19.3
21.85
22.95
22.26
19.9
16.4
12.65
9.61
8.02
8.18
9.77
11.98
13.72
14.03
12.47
9.26
5.2
1.39
-1.27
-2.37
-2.06
-0.92
0.34
1.08
0.88
-0.48
-3.04
-6.6
-10.81
-15.06
-18.69
-21.13
-22.18
-21.97
-21.0
-19.95
-19.36
-19.5
-20.25
-21.1
-21.34
-20.27
-17.46
-12.87
-6.92
-0.31
6.13
11.66
15.75
18.14
18.81
18.03
16.28
14.23
12.61
12.08
13.11
15.83
20.04
25.16
30.32
34.53
36.96
37.29
35.82
33.54
31.77
31.69
33.89
38.16
43.57
48.84
52.77
54.69
54.64
53.36
51.96
51.47
52.39
54.47
57.02
59.33
61.33
63.62
66.99
71.57
76.0
77.28
71.52
55.19
26.14
-15.91
-69.28
-130.3
-193.25
-250.36
-292.75
-312.2
-303.8
-268.02
-211.26
-144.14
-78.23
-22.52
18.7
45.8
62.04
71.1
75.39
75.57
71.43
63.02
51.44
38.72
27.06
17.83
10.67
3.82
-5.11
-17.83
-34.42
-53.17
-71.34
-86.47
-97.62
-105.67
-112.58
-119.93
-127.6
-133.46
-134.41
-128.19
-114.86
-96.85
-77.48
-58.82
-40.31
-19.12
7.92
42.18
82.09
123.68
162.25
194.2
217.82
233.08
240.71
241.7
237.33
229.55
220.89
213.77
209.14
205.66
199.91
187.54
164.76
129.48
82.04
25.5
-34.4
-89.97
-133.24
-158.29
-163.71
-153.43
-135.61
-119.38
-111.3
-112.99
-121.22
-130.08
-134.17
-131.04
-121.71
-109.6
-98.29
-89.49
-82.27
-73.88
-61.64
-44.75
-25.21
-6.68
7.66
17.11
23.95
32.0
44.11
60.02
76.2
87.63
90.46
83.88
70.1
52.77
34.96
17.89
1.0
-16.99
-36.66
-56.9
-74.95
-87.16
-90.33
-83.05
-66.44
-44.08
-21.01
-2.26
8.64
10.44
4.29
-6.83
-18.99
-28.11
-30.66
-24.22
-8.04
16.45
45.7
74.77
98.68
113.91
119.55
117.22
110.27
102.31
96.02
92.5
90.97
88.83
82.07
66.36
38.71
-0.54
-46.63
-91.03
-124.19
-139.19
-134.69
-115.44
-89.91
-66.44
-49.95
-40.78
-36.05
-32.33
-27.86
-22.99
-18.96
-16.34
-14.22
-10.78
-4.73
3.56
11.99
17.88
19.62
17.48
13.48
9.81
7.38
5.04
0.18
-9.53
-24.74
-43.59
-62.46
-77.29
-84.99
-84.37
-76.19
-62.83
-47.56
-33.92
-24.87
-22.08
-25.27
-32.2
-39.24
-42.65
-39.88
-30.31
-15.26
2.91
21.88
40.27
57.85
75.11
92.61
110.37
127.91
144.73
160.96
177.6
195.89
216.16
236.71
253.61
261.61
256.06
234.4
197.02
146.81
88.41
27.52
-29.55
-76.55
-108.62
-123.96
-125.22
-119.19
-114.6
-118.73
-134.56
-159.89
-188.71
-214.06
-230.53
-235.52
-228.94
-212.17
-187.23
-156.45
-122.43
-87.82
-54.86
-25.32
-0.7
17.46
27.55
28.49
20.8
7.28
-7.33
-17.93
-21.12
-16.65
-7.42
2.05
7.76
8.04
3.95
-1.68
-5.78
-6.4
-3.09
3.36
11.63
20.53
29.27
37.34
44.11
48.63
49.77
46.71
39.54
29.56
18.97
10.09
4.5
2.48
3.09
4.82
6.37
7.18
7.55
8.3
10.22
13.63
18.22
23.12
27.28
29.77
30.03
28.03
24.21
19.3
14.14
9.36
5.25
1.74
-1.53
-5.07
-9.27
-14.33
-20.07
-25.88
-30.77
-33.6
-33.4
-29.7
-22.77
-13.48
-3.05
7.33
16.75
24.71
30.93
35.23
37.45
37.43
35.21
31.05
25.46
19.05
12.38
5.9
-0.16
-5.66
-10.5
-14.59
-17.84
-20.21
-21.68
-22.22
-21.75
-20.11
-17.12
-12.65
-6.81
0.05
7.39
14.55
20.95
26.12
29.79
31.79
32.07
30.64
27.63
23.32
18.18
12.73
7.51
2.81
-1.38
-5.32
-9.39
-13.78
-18.37
-22.62
-25.88
-27.52
-27.2
-24.97
-21.16
-16.15
-10.25
-3.59
3.77
11.74
20.02
28.12
35.44
41.43
45.77
48.53
50.22
51.58
53.35
55.9
59.05
62.05
63.97
64.19
62.91
61.28
61.04
63.75
70.12
79.56
90.51
101.15
110.16
116.96
121.23
122.36
118.95
109.03
90.72
62.85
25.14
-22.06
-77.78
-139.85
-203.84
-262.5
-306.67
-327.78
-321.23
-288.77
-238.59
-182.56
-131.73
-92.59
-65.66
-47.23
-32.56
-19.03
-7.08
1.22
4.59
4.04
2.57
3.35
8.03
16.38
26.95
38.23
48.78
56.52
58.31
50.59
31.74
4.28
-25.0
-47.61
-57.47
-53.76
-40.76
-24.73
-10.05
2.75
16.05
32.23
51.24
70.27
85.33
93.42
93.89
88.52
80.46
73.13
69.5
71.34
78.68
89.18
98.44
101.45
94.84
78.84
57.43
36.72
22.07
15.55
15.21
16.44
14.73
8.2
-1.59
-10.99
-16.65
-17.73
-16.37
-16.2
-19.92
-27.35
-35.23
-38.88
-34.7
-22.12
-4.07
14.37
27.96
33.17
28.94
16.59
-1.01
-20.41
-38.23
-51.88
-59.85
-61.87
-58.85
-52.43
-44.59
-37.1
-31.37
-28.23
-27.94
-30.23
-34.28
-38.88
-42.62
-44.37
-43.56
-40.47
-35.99
-31.3
-27.46
-25.09
-24.4
-25.37
-27.97
-32.29
-38.37
-45.95
-54.19
-61.73
-67.01
-68.82
-66.71
-61.09
-52.96
-43.5
-33.77
-24.72
-17.27
-12.31
-10.43
-11.37
-13.7
-14.9
-12.17
-3.62
10.66
28.31
45.41
57.99
63.54
61.89
54.99
45.83
37.07
30.11
24.86
20.35
15.5
9.93
4.1
-0.88
-3.87
-4.07
-1.3
4.0
11.09
19.11
27.27
34.92
41.55
46.8
50.41
52.22
52.19
50.42
47.04
42.27
36.34
29.53
22.15
14.57
7.12
0.04
-6.56
-12.71
-18.51
-24.12
-29.6
-34.9
-39.76
-43.67
-45.96
-45.84
-42.7
-36.28
-26.94
-15.74
-4.27
5.64
12.47
15.41
14.66
11.22
6.61
2.19
-1.15
-3.19
-4.19
-4.62
-4.84
-4.92
-4.68
-3.74
-1.76
1.5
6.06
11.66
17.76
23.53
28.13
30.85
31.35
29.73
26.5
22.44
18.35
14.92
12.53
11.31
11.06
11.4
11.92
12.18
11.93
11.04
9.54
7.53
5.11
2.33
-0.77
-4.11
-7.49
-10.58
-12.88
-13.91
-13.33
-11.08
-7.5
-3.18
1.11
4.6
6.72
7.14
5.94
3.52
0.64
-1.86
-3.26
-3.22
-1.95
-0.01
1.86
3.04
3.2
2.29
0.38
-2.46
-6.22
-10.82
-16.03
-21.41
-26.34
-30.25
-32.79
-33.94
-33.99
-33.42
-32.63
-31.79
-30.74
-29.13
-26.61
-23.04
-18.62
-13.84
-9.22
-5.11
-1.53
1.78
5.2
8.93
12.85
16.52
19.31
20.7
20.48
18.87
16.43
13.86
11.74
10.39
9.86
9.93
10.29
10.68
10.94
10.99
10.93
10.86
10.88
11.08
11.51
12.21
13.12
14.16
15.09
15.65
15.55
14.57
12.73
10.28
7.63
5.25
3.43
2.24
1.49
0.83
-0.11
-1.6
-3.72
-6.35
-9.23
-12.09
-14.69
-16.94
-18.86
-20.57
-22.21
-23.94
-25.81
-27.79
-29.67
-31.05
-31.48
-30.54
-28.05
-24.16
-19.36
-14.29
-9.56
-5.55
-2.41
-0.13
1.43
2.37
2.83
2.96
2.95
3.04
3.4
4.11
5.16
6.53
8.26
10.52
13.54
17.51
22.43
27.95
33.51
38.37
41.9
43.72
43.87
42.71
40.78
38.63
36.61
34.95
33.67
32.75
32.09
31.44
30.45
28.65
25.64
21.26
15.75
9.65
3.61
-1.81
-6.35
-10.02
-12.98
-15.4
-17.34
-18.78
-19.72
-20.27
-20.68
-21.23
-22.18
-23.71
-25.81
-28.37
-31.12
-33.67
-35.56
-36.32
-35.64
-33.49
-30.11
-25.96
-21.59
-17.39
-13.6
-10.31
-7.52
-5.22
-3.4
-2.05
-1.09
-0.45
-0.01
0.33
0.65
1.02
1.47
2.04
2.72
3.53
4.44
5.45
6.54
7.62
8.63
9.44
9.97
10.19
10.16
9.98
9.77
9.6
9.45
9.25
8.9
8.32
7.51
6.6
5.72
4.97
4.35
3.71
2.85
1.64
0.1
-1.6
-3.21
-4.59
-5.71
-6.73
-7.86
-9.24
-10.89
-12.75
-14.72
-16.73
-18.73
-20.6
-22.08
-22.84
-22.53
-20.94
-18.11
-14.37
-10.24
-6.23
-2.76
-0.05
1.84
3.02
3.62
3.8
3.72
3.49
3.18
2.86
2.56
2.33
2.21
2.25
2.47
2.85
3.37
3.99
4.63
5.2
5.6
5.73
5.48
4.82
3.74
2.27
0.54
-1.25
-2.78
-3.7
-3.66
-2.49
-0.17
3.09
7.01
11.26
15.5
19.4
22.6
24.73
25.55
25.03
23.47
21.37
19.27
17.55
16.35
15.65
15.37
15.54
16.28
17.64
19.44
21.21
22.26
21.98
20.13
16.91
12.85
8.53
4.33
0.32
-3.58
-7.42
-11.05
-14.14
-16.36
-17.56
-17.82
-17.4
-16.63
-15.72
-14.78
-13.85
-12.96
-12.2
-11.69
-11.46
-11.47
-11.6
-11.72
-11.72
-11.54
-11.21
-10.8
-10.45
-10.35
-10.66
-11.44
-12.62
-13.92
-14.98
-15.44
-15.07
-13.83
-11.86
-9.38
-6.66
-3.96
-1.53
0.42
1.66
2.08
1.64
0.39
-1.52
-3.94
-6.68
-9.54
-12.27
-14.66
-16.52
-17.71
-18.12
-17.66
-16.2
-13.68
-10.14
-5.87
-1.44
2.3
4.36
3.89
0.44
-5.84
-14.06
-22.83
-30.51
-35.68
-37.5
-35.92
-31.63
-25.71
-19.32
-13.38
-8.41
-4.57
-1.7
0.56
2.75
5.41
8.95
13.42
18.43
23.16
26.57
27.82
26.53
22.93
17.81
12.23
7.28
3.84
2.4
2.97
5.2
8.33
11.51
14.0
15.36
15.58
15.03
14.3
13.95
14.43
15.91
18.39
21.68
25.4
29.01
31.78
33.0
32.16
29.32
25.1
20.62
17.09
15.25
15.12
15.93
16.6
16.15
14.18
10.87
6.83
2.66
-1.2
-4.57
-7.35
-9.35
-10.33
-10.1
-8.73
-6.59
-4.25
-2.33
-1.13
-0.68
-0.72
-0.93
-1.07
-1.08
-1.03
-1.03
-1.19
-1.54
-2.08
-2.79
-3.73
-5.0
-6.75
-9.05
-11.8
-14.77
-17.57
-19.88
-21.51
-22.43
-22.76
-22.58
-21.91
-20.64
-18.62
-15.75
-12.07
-7.67
-2.74
2.53
7.99
13.37
18.39
22.68
25.97
28.08
29.13
29.5
29.73
30.36
31.59
33.1
34.12
33.76
31.4
27.0
21.21
15.04
9.58
5.64
3.65
3.71
5.62
8.87
12.56
15.44
16.15
13.74
8.04
-0.08
-8.94
-16.63
-21.54
-22.85
-20.69
-16.08
-10.56
-5.92
-3.68
-4.75
-9.15
-15.96
-23.58
-30.09
-33.8
-33.6
-29.31
-21.64
-12.06
-2.49
5.21
9.67
10.34
7.59
2.51
-3.34
-8.36
-11.22
-11.1
-7.87
-2.13
4.81
11.2
15.34
16.1
13.27
7.63
0.66
-5.91
-10.55
-12.21
-10.54
-5.88
0.77
7.89
13.78
17.01
16.87
13.64
8.46
2.92
-1.51
-3.92
-4.15
-2.62
-0.08
2.72
5.05
6.31
6.0
3.84
-0.14
-5.36
-10.79
-15.1
-17.07
-16.0
-12.01
-5.99
0.63
6.4
10.23
11.67
10.97
8.83
6.1
3.57
1.74
0.79
0.7
1.26
2.17
3.1
3.78
4.02
3.86
3.57
3.55
4.29
6.07
8.9
12.31
15.49
17.46
17.41
15.03
10.63
5.23
0.21
-2.98
-3.38
-0.88
3.71
8.83
12.72
13.91
11.73
6.29
-1.59
-10.74
-19.88
-27.72
-33.01
-34.66
-32.08
-25.46
-16.1
-6.11
2.03
6.37
5.98
1.31
-6.13
-14.26
-21.05
-24.98
-25.33
-22.22
-16.49
-9.49
-2.73
2.48
5.27
5.48
3.56
0.52
-2.3
-3.58
-2.31
1.83
8.4
16.3
24.04
30.2
33.8
34.5
32.54
28.58
23.44
18.01
13.07
9.27
6.97
6.19
6.57
7.47
8.19
8.18
7.19
5.33
3.02
0.88
-0.47
-0.61
0.54
2.66
5.02
6.7
6.95
5.44
2.4
-1.42
-5.01
-7.39
-7.86
-6.1
-2.18
3.42
9.79
15.68
19.75
21.01
19.26
15.34
10.84
7.54
6.66
8.4
11.93
15.83
18.68
19.53
17.95
13.88
7.37
-1.52
-12.54
-25.05
-37.83
-49.21
-57.5
-61.44
-60.65
-55.74
-48.03
-39.1
-30.34
-22.62
-16.33
-11.64
-8.58
-7.16
-7.2
-8.18
-9.22
-9.42
-8.08
-5.04
-0.78
3.83
7.78
10.21
10.73
9.52
7.34
5.21
4.03
4.04
4.91
6.01
6.99
8.1
9.92
12.81
16.16
18.51
18.19
14.43
8.03
1.15
-3.77
-5.16
-2.98
1.6
7.02
12.13
16.33
19.2
20.14
18.4
13.57
6.13
-2.49
-10.28
-15.47
-17.16
-15.51
-11.42
-6.15
-0.92
3.24
5.55
5.64
3.73
0.65
-2.31
-3.95
-3.55
-1.29
2.02
5.32
7.83
9.33
10.0
10.07
9.56
8.22
5.76
2.27
-1.71
-5.16
-7.17
-7.25
-5.59
-2.86
0.22
3.12
5.64
7.65
8.85
8.68
6.56
2.33
-3.54
-9.87
-15.33
-18.83
-19.99
-19.17
-17.18
-14.98
-13.31
-12.72
-13.54
-15.94
-19.87
-25.0
-30.76
-36.41
-41.35
-45.25
-48.08
-49.9
-50.54
-49.51
-46.29
-40.72
-33.42
-25.74
-19.26
-15.09
-13.33
-12.98
-12.18
-8.8
-1.07
11.84
29.36
49.33
68.21
81.9
86.94
81.85
67.8
48.44
28.68
13.0
4.1
2.3
6.03
12.7
19.76
25.33
28.43
28.78
26.59
22.34
16.67
10.42
4.51
-0.18
-3.03
-3.84
-2.97
-1.18
0.59
1.61
1.56
0.65
-0.6
-1.56
-1.82
-1.33
-0.33
0.77
1.64
2.1
2.16
1.95
1.61
1.26
0.88
0.38
-0.43
-1.73
-3.66
-6.22
-9.25
-12.46
-15.5
-18.0
-19.66
-20.32
-20.0
-18.99
-17.79
-17.0
-17.16
-18.44
-20.58
-22.9
-24.49
-24.59
-22.84
-19.34
-14.61
-9.33
-4.13
0.53
4.36
7.23
9.09
9.99
10.1
9.62
8.83
7.92
7.07
6.37
5.87
5.62
5.66
6.03
6.72
7.69
8.83
10.02
11.1
11.95
12.5
12.73
12.71
12.52
12.27
12.0
11.72
11.39
10.96
10.36
9.59
8.57
7.23
5.51
3.3
0.61
-2.47
-5.73
-8.94
-11.85
-14.3
-16.23
-17.67
-18.71
-19.48
-20.1
-20.67
-21.15
-21.42
-21.25
-20.37
-18.62
-16.06
-12.94
-9.61
-6.46
-3.73
-1.53
0.15
1.39
2.25
2.8
3.1
3.2
3.14
2.98
2.75
2.52
2.36
2.39
2.69
3.33
4.23
5.23
6.18
6.91
7.43
7.76
8.0
8.23
8.45
8.64
8.72
8.66
8.38
7.88
7.15
6.17
5.03
3.82
2.67
1.64
0.72
-0.19
-1.19
-2.33
-3.55
-4.72
-5.69
-6.37
-6.83
-7.22
-7.76
-8.58
-9.7
-11.05
-12.38
-13.44
-14.0
-13.86
-12.91
-11.18
-8.83
-6.12
-3.35
-0.81
1.27
2.77
3.73
4.31
4.67
4.95
5.19
5.36
5.4
5.29
5.1
4.99
5.06
5.33
5.73
6.14
6.47
6.77
7.11
7.59
8.18
8.75
9.09
9.09
8.75
8.18
7.57
7.02
6.52
5.93
5.14
4.05
2.78
1.47
0.29
-0.65
-1.38
-1.98
-2.53
-3.09
-3.66
-4.19
-4.72
-5.29
-5.99
-6.88
-8.0
-9.32
-10.75
-12.11
-13.19
-13.75
-13.62
-12.73
-11.13
-9.03
-6.65
-4.21
-1.88
0.18
1.88
3.14
3.95
4.39
4.59
4.73
4.93
5.28
5.76
6.3
6.85
7.37
7.85
8.3
8.75
9.16
9.55
9.89
10.17
10.38
10.44
10.26
9.77
8.95
7.85
6.61
5.44
4.48
3.79
3.3
2.83
2.2
1.29
0.14
-1.12
-2.25
-3.05
-3.47
-3.62
-3.76
-4.25
-5.35
-7.16
-9.53
-12.01
-13.97
-14.71
-13.72
-10.85
-6.47
-1.31
3.77
8.09
11.43
13.94
16.05
18.12
20.31
22.46
24.29
25.48
25.83
25.18
23.5
20.84
17.44
13.74
10.34
7.84
6.71
7.02
8.48
10.53
12.55
14.16
15.37
16.6
18.46
21.35
25.2
29.34
32.71
34.43
34.25
32.85
31.72
32.56
36.55
43.62
52.4
60.61
66.01
67.36
65.09
61.08
57.87
57.68
61.5
68.68
77.11
83.65
84.64
76.66
57.36
26.65
-12.57
-54.76
-93.47
-123.7
-143.89
-156.21
-165.05
-174.36
-185.34
-195.76
-201.13
-197.13
-181.62
-155.55
-122.5
-87.31
-54.48
-27.04
-6.11
8.82
19.26
26.74
32.06
35.09
35.25
32.22
26.49
19.43
12.65
7.29
3.37
-0.07
-4.29
-9.96
-16.62
-22.84
-26.85
-27.36
-24.2
-18.33
-11.47
-5.29
-0.77
1.98
3.61
4.96
6.63
8.68
10.7
12.13
12.7
12.51
12.02
11.8
12.15
12.98
13.81
13.98
12.92
10.4
6.64
2.16
-2.34
-6.29
-9.35
-11.51
-13.0
-14.09
-14.99
-15.68
-15.97
-15.64
-14.5
-12.56
-9.99
-7.09
-4.15
-1.41
1.02
3.19
5.22
7.25
9.4
11.75
14.31
17.05
19.93
22.9
25.86
28.65
31.05
32.86
33.94
34.3
34.1
33.51
32.72
31.78
30.63
29.12
27.09
24.42
21.12
17.28
13.12
8.86
4.71
0.78
-2.89
-6.31
-9.52
-12.5
-15.19
-17.46
-19.19
-20.33
-20.96
-21.25
-21.42
-21.67
-22.12
-22.78
-23.59
-24.33
-24.74
-24.48
-23.29
-21.04
-17.86
-14.09
-10.15
-6.35
-2.72
0.98
5.11
9.89
15.23
20.66
25.53
29.23
31.35
31.83
30.79
28.47
25.13
21.06
16.57
12.03
7.77
4.08
1.11
-1.06
-2.48
-3.23
-3.43
-3.23
-2.76
-2.16
-1.48
-0.77
-0.03
0.65
1.21
1.58
1.76
1.89
2.14
2.66
3.45
4.4
5.27
5.88
6.17
6.16
6.0
5.81
5.62
5.35
4.8
3.76
2.0
-0.64
-4.22
-8.63
-13.53
-18.42
-22.67
-25.77
-27.42
-27.59
-26.53
-24.62
-22.23
-19.63
-17.0
-14.45
-12.08
-9.93
-8.04
-6.33
-4.7
-3.01
-1.14
0.92
3.11
5.3
7.43
9.39
11.12
12.62
13.86
14.81
15.44
15.7
15.58
15.13
14.44
13.57
12.54
11.24
9.57
7.42
4.85
2.11
-0.49
-2.69
-4.4
-5.7
-6.8
-7.85
-8.88
-9.8
-10.52
-11.01
-11.38
-11.74
-12.17
-12.59
-12.82
-12.62
-11.9
-10.71
-9.3
-8.01
-7.19
-6.99
-7.42
-8.19
-8.88
-9.01
-8.22
-6.34
-3.44
0.2
4.13
7.84
10.77
12.5
12.82
11.78
9.7
7.03
4.21
1.51
-1.0
-3.35
-5.6
-7.67
-9.37
-10.49
-10.92
-10.7
-9.96
-8.88
-7.55
-6.03
-4.31
-2.41
-0.43
1.53
3.37
5.09
6.75
8.51
10.5
12.75
15.15
17.41
19.17
20.16
20.25
19.5
18.12
16.35
14.37
12.24
9.97
7.53
4.9
2.08
-0.95
-4.19
-7.63
-11.17
-14.61
-17.72
-20.21
-21.91
-22.76
-22.79
-22.14
-20.96
-19.4
-17.55
-15.49
-13.27
-10.96
-8.66
-6.44
-4.35
-2.4
-0.56
1.29
3.24
5.36
7.7
10.23
12.84
15.38
17.71
19.69
21.27
22.49
23.45
24.22
24.84
25.23
25.23
24.69
23.53
21.78
19.58
17.09
14.38
11.42
8.11
4.36
0.22
-4.14
-8.38
-12.2
-15.43
-18.05
-20.19
-22.04
-23.72
-25.26
-26.58
-27.55
-28.05
-28.0
-27.35
-26.03
-23.95
-21.0
-17.11
-12.31
-6.77
-0.88
4.94
10.26
14.82
18.53
21.53
24.0
26.1
27.85
29.16
29.9
29.99
29.48
28.48
27.14
25.54
23.68
21.52
19.03
16.3
13.44
10.6
7.85
5.17
2.48
-0.26
-3.06
-5.79
-8.25
-10.24
-11.67
-12.54
-12.98
-13.16
-13.2
-13.21
-13.2
-13.1
-12.85
-12.39
-11.67
-10.73
-9.61
-8.43
-7.3
-6.32
-5.55
-4.93
-4.36
-3.58
-2.38
-0.57
1.86
4.75
7.8
10.64
12.9
14.34
14.87
14.5
13.37
11.67
9.63
7.5
5.53
3.89
2.65
1.74
1.01
0.28
-0.49
-1.22
-1.72
-1.81
-1.42
-0.63
0.36
1.36
2.28
3.13
3.98
4.9
5.93
7.07
8.27
9.43
10.44
11.1
11.27
10.87
9.95
8.69
7.26
5.81
4.35
2.83
1.13
-0.89
-3.31
-6.23
-9.65
-13.45
-17.35
-20.88
-23.5
-24.81
-24.67
-23.26
-21.0
-18.41
-15.87
-13.55
-11.48
-9.54
-7.68
-5.9
-4.25
-2.79
-1.52
-0.4
0.69
1.78
2.94
4.27
6.03
8.59
12.31
17.34
23.4
29.8
35.53
39.66
41.57
41.17
38.8
35.02
30.41
25.38
20.2
15.07
10.18
5.67
1.63
-1.96
-5.21
-8.28
-11.32
-14.32
-17.19
-19.72
-21.74
-23.19
-24.14
-24.81
-25.5
-26.43
-27.65
-28.98
-30.03
-30.33
-29.46
-27.21
-23.61
-18.93
-13.61
-8.11
-2.85
1.88
5.97
9.39
12.21
14.45
16.12
17.23
17.8
17.87
17.55
16.91
16.02
14.84
13.33
11.46
9.27
6.91
4.59
2.5
0.72
-0.79
-2.15
-3.49
-4.86
-6.18
-7.35
-8.25
-8.87
-9.25
-9.44
-9.48
-9.3
-8.83
-7.98
-6.8
-5.38
-3.87
-2.34
-0.8
0.82
2.5
4.15
5.54
6.38
6.47
5.74
4.32
2.46
0.5
-1.28
-2.73
-3.75
-4.36
-4.57
-4.39
-3.91
-3.25
-2.6
-2.16
-2.0
-2.04
-2.09
-1.9
-1.3
-0.22
1.32
3.32
5.76
8.61
11.64
14.37
16.2
16.58
15.31
12.63
9.14
5.58
2.51
0.23
-1.22
-1.91
-1.94
-1.37
-0.24
1.31
3.09
4.84
6.34
7.42
8.05
8.24
8.12
7.88
7.71
7.79
8.21
8.93
9.84
10.77
11.61
12.25
12.52
12.14
10.82
8.27
4.43
-0.47
-5.92
-11.27
-15.92
-19.48
-21.78
-22.83
-22.8
-21.91
-20.41
-18.51
-16.32
-13.8
-10.68
-6.6
-1.39
4.63
10.53
14.97
16.76
15.42
11.51
6.44
1.89
-0.87
-1.51
-0.52
1.19
2.86
4.13
5.03
5.7
6.12
6.19
5.77
4.96
4.08
3.52
3.57
4.26
5.39
6.63
7.67
8.36
8.65
8.59
8.27
7.8
7.24
6.63
5.94
5.16
4.26
3.27
2.2
1.06
-0.15
-1.54
-3.15
-5.0
-7.0
-9.03
-10.97
-12.81
-14.61
-16.45
-18.35
-20.15
-21.52
-22.11
-21.69
-20.26
-18.11
-15.66
-13.33
-11.37
-9.81
-8.52
-7.3
-6.08
-4.87
-3.86
-3.23
-3.07
-3.38
-4.02
-4.89
-5.85
-6.75
-7.3
-7.06
-5.6
-2.71
1.35
5.96
10.29
13.77
16.27
18.11
19.71
21.22
22.29
22.34
20.91
18.11
14.62
11.42
9.22
8.11
7.43
6.13
3.26
-1.53
-7.82
-14.59
-20.59
-24.8
-26.73
-26.5
-24.7
-22.2
-19.83
-18.24
-17.75
-18.31
-19.46
-20.36
-20.02
-17.54
-12.5
-5.12
3.68
12.64
20.67
27.15
32.13
36.01
39.29
42.22
44.87
47.1
48.76
49.62
49.35
47.48
43.6
37.55
29.73
21.08
12.9
6.43
2.63
1.91
4.13
8.77
14.91
21.33
26.83
30.39
31.44
29.9
26.19
21.23
16.46
13.78
15.21
22.03
33.84
48.12
60.73
67.29
65.08
54.17
37.41
19.12
3.26
-7.95
-14.4
-17.4
-18.59
-19.18
-19.66
-20.28
-21.33
-23.47
-27.52
-33.96
-42.61
-52.45
-61.8
-68.76
-71.89
-70.56
-65.22
-57.11
-47.76
-38.45
-29.88
-22.12
-14.89
-8.01
-1.7
3.44
6.63
7.34
5.63
2.22
-1.78
-5.31
-7.74
-9.06
-9.73
-10.27
-10.99
-11.8
-12.35
-12.3
-11.55
-10.29
-8.88
-7.72
-6.98
-6.64
-6.49
-6.26
-5.82
-5.14
-4.36
-3.61
-3.04
-2.72
-2.68
-2.98
-3.73
-5.04
-6.91
-9.23
-11.71
-14.03
-16.02
-17.74
-19.43
-21.29
-23.33
-25.19
-26.31
-26.1
-24.29
-20.93
-16.36
-11.05
-5.42
0.08
4.99
8.83
11.32
12.77
14.15
16.9
22.25
30.61
41.18
52.25
61.95
68.94
72.84
74.08
73.38
71.19
67.56
62.32
55.43
47.13
37.84
27.91
17.41
6.21
-5.74
-18.06
-29.86
-39.93
-47.07
-50.65
-50.72
-48.01
-43.62
-38.59
-33.69
-29.31
-25.62
-22.72
-20.81
-20.12
-20.81
-22.8
-25.68
-28.8
-31.42
-32.94
-33.04
-31.89
-29.95
-27.91
-26.3
-25.28
-24.46
-23.1
-20.39
-15.92
-9.95
-3.29
3.01
8.26
12.32
15.66
18.94
22.58
26.5
30.16
32.94
34.42
34.62
33.77
32.15
29.78
26.55
22.44
17.8
13.54
10.7
10.01
11.36
13.79
15.79
16.09
14.21
10.66
6.57
3.05
0.59
-1.08
-2.71
-5.15
-9.09
-14.98
-23.16
-33.8
-46.61
-60.43
-73.25
-82.5
-86.04
-82.95
-73.93
-61.09
-47.07
-34.16
-23.67
-15.93
-10.66
-7.3
-5.29
-4.06
-2.98
-1.43
1.01
4.33
8.05
11.36
13.43
13.73
12.28
9.68
6.91
5.02
4.7
6.01
8.35
10.65
11.94
11.72
10.21
8.12
6.23
4.89
3.86
2.54
0.46
-2.32
-5.18
-7.29
-8.1
-7.65
-6.51
-5.42
-4.94
-5.2
-6.04
-7.21
-8.53
-9.93
-11.27
-12.39
-13.08
-13.34
-13.4
-13.51
-13.8
-13.99
-13.62
-12.25
-9.89
-7.01
-4.32
-2.33
-1.1
-0.28
0.54
1.54
2.5
3.06
3.13
3.05
3.48
4.88
7.08
9.16
9.88
8.37
4.76
0.31
-3.08
-3.77
-1.09
4.38
11.21
17.83
23.17
26.85
28.99
29.74
29.08
26.92
23.31
18.72
13.94
9.67
6.25
3.53
1.04
-1.52
-4.07
-6.19
-7.4
-7.56
-6.94
-6.05
-5.26
-4.57
-3.72
-2.44
-0.85
0.53
1.02
0.28
-1.46
-3.4
-4.58
-4.38
-2.78
-0.31
2.36
4.72
6.66
8.33
9.88
11.26
12.2
12.36
11.6
10.07
8.1
5.99
3.9
1.77
-0.48
-2.82
-4.98
-6.61
-7.45
-7.5
-7.02
-6.4
-5.97
-5.87
-6.13
-6.75
-7.76
-9.25
-11.27
-13.74
-16.36
-18.74
-20.5
-21.49
-21.81
-21.76
-21.64
-21.61
-21.51
-20.97
-19.58
-17.11
-13.45
-8.64
-2.74
4.1
11.55
19.03
25.7
30.74
33.65
34.47
33.73
32.15
30.26
28.17
25.66
22.43
18.44
13.99
9.64
5.99
3.42
2.04
1.68
1.99
2.58
3.14
3.48
3.55
3.38
3.13
2.88
2.73
2.62
2.42
1.92
0.9
-0.84
-3.43
-6.85
-10.94
-15.4
-19.86
-23.88
-27.15
-29.44
-30.7
-30.99
-30.48
-29.33
-27.62
-25.31
-22.27
-18.38
-13.67
-8.39
-2.87
2.52
7.61
12.48
17.3
22.18
27.01
31.4
34.87
37.02
37.65
36.75
34.43
30.87
26.43
21.81
18.06
16.32
17.35
21.13
26.64
32.14
35.76
36.13
32.84
26.37
17.79
8.27
-1.18
-9.79
-16.95
-22.08
-24.78
-25.06
-23.57
-21.59
-20.65
-21.93
-25.63
-30.7
-35.25
-37.28
-35.61
-30.39
-22.91
-14.91
-7.79
-2.06
2.57
6.74
10.89
15.1
18.99
22.17
24.28
25.1
24.42
22.07
18.04
12.79
7.32
3.0
1.15
2.47
6.75
12.92
19.4
24.72
27.86
28.47
26.78
23.35
18.86
13.96
9.16
4.82
1.1
-2.1
-5.05
-8.14
-11.61
-15.46
-19.34
-22.62
-24.59
-24.71
-22.77
-19.0
-14.04
-8.66
-3.63
0.58
3.85
6.42
8.67
10.97
13.45
16.0
18.3
19.95
20.61
20.13
18.62
16.41
13.94
11.68
9.89
8.66
7.79
7.01
6.06
4.78
3.16
1.25
-0.81
-2.95
-5.0
-6.77
-8.01
-8.52
-8.26
-7.41
-6.23
-4.98
-3.72
-2.28
-0.42
1.94
4.61
7.06
8.69
9.09
8.16
6.19
3.66
1.05
-1.29
-3.14
-4.36
-4.84
-4.49
-3.36
-1.71
0.05
1.46
2.12
1.9
0.85
-0.62
-1.83
-1.93
-0.15
3.84
9.6
15.9
21.14
23.9
23.6
20.67
16.28
11.72
7.84
4.84
2.38
0.12
-2.12
-4.2
-5.9
-7.17
-8.16
-9.22
-10.63
-12.55
-14.87
-17.32
-19.61
-21.48
-22.84
-23.74
-24.29
-24.57
-24.53
-23.96
-22.57
-20.17
-16.77
-12.7
-8.47
-4.7
-1.86
-0.18
0.39
0.12
-0.62
-1.47
-2.17
-2.56
-2.62
-2.34
-1.76
-0.92
0.09
1.09
1.86
2.16
1.95
1.34
0.57
-0.13
-0.71
-1.34
-2.27
-3.69
-5.55
-7.51
-9.06
-9.76
-9.45
-8.24
-6.58
-5.02
-4.01
-3.89
-4.68
-6.2
-8.07
-9.87
-11.28
-12.08
-12.23
-11.78
-10.83
-9.47
-7.83
-6.0
-4.2
-2.6
-1.38
-0.58
-0.12
0.14
0.4
0.8
1.43
2.36
3.64
5.26
7.1
8.94
10.49
11.52
11.97
11.95
11.69
11.35
10.95
10.38
9.47
8.17
6.62
5.07
3.78
2.85
2.18
1.51
0.55
-0.92
-2.95
-5.48
-8.27
-11.05
-13.55
-15.57
-16.95
-17.61
-17.55
-16.76
-15.3
-13.21
-10.59
-7.54
-4.18
-0.62
3.0
6.48
9.57
12.03
13.71
14.62
14.93
14.84
14.57
14.21
13.74
13.16
12.48
11.84
11.36
11.08
10.89
10.56
9.94
8.97
7.8
6.66
5.77
5.17
4.76
4.25
3.38
2.02
0.13
-2.2
-4.81
-7.46
-9.82
-11.4
-11.72
-10.52
-7.88
-4.44
-1.07
1.35
2.31
1.82
0.33
-1.61
-3.56
-5.29
-6.71
-7.62
-7.66
-6.45
-3.82
-0.01
4.31
8.24
10.98
12.14
11.82
10.54
9.04
7.94
7.55
7.83
8.39
8.76
8.55
7.62
6.06
4.16
2.17
0.31
-1.33
-2.74
-3.91
-4.87
-5.73
-6.72
-8.1
-10.04
-12.42
-14.81
-16.57
-17.11
-16.17
-13.84
-10.56
-6.84
-3.04
0.66
4.21
7.53
10.43
12.63
13.93
14.24
13.69
12.39
10.47
7.9
4.65
0.82
-3.33
-7.32
-10.59
-12.69
-13.47
-13.07
-11.93
-10.54
-9.34
-8.55
-8.23
-8.24
-8.4
-8.51
-8.44
-8.12
-7.57
-6.95
-6.49
-6.51
-7.2
-8.52
-10.09
-11.22
-11.14
-9.31
-5.6
-0.47
5.24
10.63
14.99
18.07
20.0
21.15
21.91
22.52
23.03
23.32
23.21
22.5
21.03
18.7
15.61
12.02
8.45
5.5
3.63
3.01
3.39
4.26
4.94
4.93
4.05
2.35
0.15
-2.23
-4.52
-6.58
-8.39
-10.0
-11.57
-13.38
-15.82
-19.22
-23.73
-29.06
-34.51
-39.04
-41.57
-41.34
-38.15
-32.46
-25.16
-17.37
-10.02
-3.75
1.22
4.97
7.76
9.94
11.84
13.67
15.48
17.16
18.49
19.18
19.13
18.39
17.22
16.05
15.28
15.18
15.8
16.95
18.3
19.51
20.28
20.46
20.0
18.87
17.1
14.71
11.84
8.69
5.57
2.72
0.28
-1.82
-3.8
-5.93
-8.43
-11.36
-14.59
-17.82
-20.63
-22.56
-23.26
-22.55
-20.54
-17.61
-14.31
-11.15
-8.47
-6.39
-4.95
-4.19
-4.3
-5.47
-7.74
-10.81
-14.04
-16.67
-18.08
-18.09
-16.85
-14.78
-12.2
-9.26
-5.95
-2.3
1.39
4.59
6.68
7.29
6.53
5.02
3.63
3.11
3.77
5.44
7.63
9.9
12.22
14.9
18.44
23.15
28.94
35.31
41.68
47.56
52.69
56.83
59.5
59.86
56.89
49.86
38.71
24.33
8.31
-7.42
-21.14
-31.75
-38.83
-42.46
-42.99
-40.85
-36.45
-30.22
-22.61
-14.25
-5.97
1.2
6.15
7.87
5.81
0.03
-8.59
-18.52
-27.91
-35.1
-38.95
-39.12
-35.86
-29.77
-21.56
-11.99
-1.88
7.86
16.57
24.29
32.28
42.91
58.58
80.2
106.11
132.32
154.08
167.85
172.63
169.64
160.94
147.79
129.99
106.5
76.68
41.39
3.14
-34.61
-68.53
-96.14
-116.18
-128.46
-133.74
-133.63
-130.17
-125.25
-120.04
-114.84
-109.51
-104.11
-99.27
-96.08
-95.46
-97.46
-101.14
-104.93
-107.5
-108.45
-108.53
-109.14
-111.43
-115.41
-119.73
-122.15
-120.6
-114.15
-103.41
-90.13
-76.31
-63.21
-50.93
-38.6
-24.94
-8.96
9.69
30.64
52.77
74.05
91.29
100.51
98.4
84.4
62.16
39.17
24.08
22.92
36.24
58.87
82.56
99.84
107.0
104.63
95.85
83.67
69.41
52.7
32.88
10.32
-13.12
-34.76
-52.16
-63.6
-68.11
-65.16
-54.36
-35.64
-9.58
22.29
57.45
92.99
126.5
157.02
185.51
214.09
244.34
275.38
303.05
321.08
323.83
309.37
281.02
246.49
214.87
193.19
184.07
185.71
193.6
202.8
209.61
211.95
209.11
201.34
189.69
175.81
161.57
148.44
136.81
125.81
113.58
98.02
77.51
51.53
20.96
-12.01
-44.29
-72.79
-95.52
-112.58
-126.49
-141.67
-163.01
-193.83
-234.15
-279.71
-322.56
-353.16
-363.62
-350.61
-316.8
-269.93
-220.02
-175.8
-142.11
-119.29
-104.5
-94.15
-85.95
-79.51
-75.85
-76.37
-81.94
-92.58
-107.5
-125.4
-144.68
-163.71
-180.76
-194.12
-202.12
-203.37
-197.28
-184.68
-168.2
-151.75
-139.42
-133.96
-135.7
-142.6
-151.33
-158.78
-163.17
-164.1
-161.78
-156.36
-147.6
-135.38
-120.26
-103.42
-86.08
-68.6
-50.03
-28.72
-3.5
25.25
55.24
83.07
105.5
120.49
127.55
127.4
121.48
111.52
99.65
88.24
79.67
75.7
76.82
82.24
90.25
99.04
107.25
114.3
120.09
124.54
127.35
127.8
125.12
118.71
108.5
95.12
79.89
64.57
50.99
40.65
34.3
31.84
32.45
34.91
37.92
40.4
41.47
40.52
37.19
31.43
23.59
14.31
4.35
-5.62
-15.21
-24.26
-32.72
-40.48
-47.33
-52.99
-57.3
-60.3
-62.18
-63.19
-63.47
-63.04
-61.93
-60.4
-58.97
-58.49
-59.83
-63.58
-69.87
-78.26
-87.99
-98.29
-108.81
-119.68
-131.4
-144.58
-159.47
-175.85
-192.78
-208.54
-220.79
-226.95
-224.78
-213.08
-192.23
-164.15
-131.73
-97.82
-64.2
-31.16
1.93
35.47
68.5
98.64
123.14
140.33
150.72
156.68
161.07
165.5
169.62
171.59
169.63
163.51
154.71
145.59
137.89
131.84
126.48
120.7
114.24
107.69
101.5
94.92
85.99
72.48
53.66
31.4
9.98
-5.64
-11.8
-7.4
6.44
27.72
54.89
87.12
123.27
160.42
193.31
215.63
222.65
213.61
192.44
166.13
141.62
123.02
110.63
101.94
93.93
85.04
75.84
68.21
63.98
63.98
67.64
73.41
79.11
82.33
80.7
72.21
55.67
30.88
-1.29
-39.16
-80.41
-122.34
-161.97
-196.29
-222.7
-239.32
-245.22
-240.5
-226.24
-204.68
-179.2
-154.0
-133.03
-118.64
-110.57
-106.13
-101.54
-93.58
-80.53
-61.74
-36.74
-4.55
35.39
81.86
130.56
174.99
208.65
227.87
233.27
228.91
219.81
209.31
198.08
185.01
169.13
151.17
133.56
119.12
109.6
104.84
103.11
102.11
99.92
95.54
88.73
79.8
69.15
57.09
43.98
30.5
17.87
8.07
3.39
5.75
15.78
32.17
51.88
71.18
87.18
99.07
108.62
119.56
136.27
161.85
196.66
237.56
278.38
311.62
330.8
332.65
317.99
291.11
257.88
223.51
191.18
161.9
135.4
111.16
89.02
69.02
51.01
34.38
18.19
1.63
-15.76
-34.19
-53.87
-75.27
-99.18
-126.28
-156.81
-190.21
-225.1
-259.68
-292.34
-322.4
-350.56
-378.99
-410.65
-447.75
-490.0
-533.57
-571.54
-595.87
-600.43
-583.48
-548.85
-505.0
-462.56
-431.21
-417.01
-420.85
-438.34
-461.24
-479.96
-486.32
-475.86
-448.61
-408.37
-360.76
-311.09
-263.02
-218.6
-178.97
-145.08
-117.67
-96.66
-80.71
-67.07
-52.36
-33.8
-10.15
17.88
48.22
78.35
106.37
131.61
154.6
176.58
199.01
223.16
249.98
279.84
311.94
343.77
370.94
387.95
389.94
374.6
343.51
301.85
256.73
214.66
179.62
152.41
131.39
114.01
98.09
82.52
67.17
52.56
39.67
29.63
23.4
21.07
21.54
22.71
22.17
18.27
10.76
0.93
-8.89
-15.89
-17.47
-11.88
1.15
19.94
41.06
60.33
74.67
83.58
89.44
95.93
105.46
117.18
126.86
129.23
120.87
102.36
77.93
53.31
33.08
19.05
10.51
5.48
2.18
-0.5
-3.24
-6.9
-12.61
-21.19
-32.37
-44.5
-55.09
-61.97
-64.49
-63.81
-62.54
-63.39
-67.96
-76.17
-86.35
-96.2
-103.5
-106.82
-106.04
-102.95
-101.45
-106.95
-124.49
-156.01
-198.29
-242.66
-277.63
-293.09
-284.39
-253.81
-208.98
-159.06
-110.7
-66.23
-24.08
19.3
67.37
122.28
184.32
251.56
319.54
381.67
430.25
458.47
462.46
442.43
402.5
349.11
288.97
227.46
167.91
111.52
57.88
5.82
-45.49
-95.37
-141.06
-178.07
-201.58
-208.55
-199.01
-176.14
-144.91
-110.29
-75.55
-42.13
-10.34
19.53
46.45
68.66
84.48
92.99
94.28
89.37
79.81
67.43
54.19
42.09
32.8
27.04
23.91
20.94
15.16
4.92
-8.58
-21.0
-26.13
-18.39
4.64
41.14
85.62
131.17
171.94
204.67
228.96
246.42
259.4
269.86
278.93
286.74
292.84
296.46
296.88
293.85
287.64
278.8
267.84
254.95
239.65
221.21
199.1
172.94
142.95
109.95
75.0
38.98
2.7
-34.22
-72.48
-112.41
-155.03
-201.34
-252.29
-308.39
-368.96
-430.39
-488.19
-536.61
-569.72
-585.1
-583.71
-568.86
-544.22
-511.99
-470.93
-420.99
-363.52
-301.86
-243.92
-199.08
-175.0
-174.91
-196.57
-231.48
-271.75
-310.38
-327.1
-306.91
-243.97
-145.22
-28.01
75.4
156.33
215.04
254.69
278.68
289.87
288.1
273.25
246.41
209.85
168.09
122.44
73.37
23.01
-25.29
-65.77
-91.07
-95.05
-75.9
-36.47
13.01
59.94
94.45
111.34
111.1
98.44
79.5
59.33
41.64
26.67
13.23
0.25
-13.19
-27.44
-42.1
-56.1
-67.91
-75.51
-78.07
-75.91
-70.37
-63.71
-58.58
-57.35
-61.76
-72.49
-88.75
-108.38
-127.89
-142.95
-149.69
-146.06
-132.51
-111.88
-88.32
-65.86
-47.19
-33.19
-23.06
-14.76
-5.42
7.98
27.53
52.95
80.63
103.94
115.29
108.99
83.85
43.94
-2.8
-47.29
-81.93
-102.2
-106.69
-96.38
-73.86
-42.76
-7.34
28.46
62.11
93.27
123.3
153.75
184.5
213.02
235.18
247.41
248.72
241.39
230.06
219.55
212.81
210.17
209.71
208.8
205.44
199.17
191.16
183.6
178.62
177.29
179.01
181.69
182.79
180.5
174.36
165.03
153.13
138.2
118.58
92.45
59.32
20.94
-19.02
-56.58
-89.03
-115.76
-137.77
-156.46
-172.44
-185.24
-193.7
-196.77
-194.16
-186.34
-174.38
-159.47
-142.72
-124.94
-106.6
-87.69
-67.69
-45.74
-21.2
5.66
33.09
57.7
75.29
82.09
76.5
59.97
36.84
12.82
-7.19
-20.83
-28.77
-33.71
-38.72
-45.46
-53.46
-60.3
-62.51
-56.71
-40.32
-12.2
26.99
74.77
127.24
179.79
227.93
267.8
296.33
311.0
309.79
291.69
257.36
209.68
153.64
95.4
40.96
-4.86
-39.0
-60.11
-68.17
-64.33
-50.87
-31.34
-10.29
7.47
17.71
17.67
6.73
-13.35
-38.79
-64.78
-86.72
-101.61
-108.69
-109.39
-106.28
-101.78
-97.25
-92.94
-88.52
-83.91
