2013-02-23 11:54:15
64.0
-0.0
-0.0
-0.0
-0.0
-0.0
-0.0
-0.0
-0.0
-0.0
-0.0
0.0
0.01
0.01
-0.0
-0.03
-0.05
-0.05
0.0
0.13
0.36
0.66
1.01
1.37
1.72
2.06
2.4
2.79
3.24
3.8
4.42
5.06
5.66
6.2
6.68
7.15
7.68
8.31
9.14
10.09
11.04
11.88
12.56
13.14
13.76
14.65
15.96
17.91
20.32
22.9
25.38
27.58
29.57
31.68
34.32
37.81
42.54
48.15
54.1
59.83
64.97
69.58
74.14
79.34
85.71
93.76
103.0
112.62
121.73
129.77
136.75
143.3
150.75
157.77
166.64
177.95
191.79
206.97
220.57
228.25
225.36
208.53
176.87
132.76
80.05
23.07
-34.94
-92.44
-149.16
-205.23
-260.37
-313.74
-363.87
-409.82
-450.89
-486.47
-515.69
-537.15
-549.11
-549.82
-538.18
-513.97
-478.39
-433.53
-382.04
-326.55
-269.3
-212.03
-155.98
-102.2
-51.55
-5.0
36.57
72.5
102.53
126.78
145.78
160.22
170.82
178.2
182.76
184.78
184.5
182.18
178.19
172.91
166.78
160.12
153.19
146.14
139.03
131.9
124.81
117.82
110.98
104.38
98.07
92.08
86.43
81.13
76.19
71.61
67.41
63.59
60.16
57.11
54.46
52.19
50.31
48.8
47.62
46.75
46.08
45.52
44.92
44.12
42.93
41.2
38.76
35.54
31.5
26.68
21.15
15.08
8.71
2.28
-3.93
-9.68
-14.74
-18.96
-22.22
-24.5
-25.81
-26.24
-25.9
-24.93
-23.46
-21.64
-19.58
-17.35
-15.04
-12.65
-10.25
-7.83
-5.41
-2.97
-0.51
2.01
4.6
7.3
10.14
13.08
16.09
19.18
22.34
25.56
28.86
32.25
35.79
39.54
43.43
47.41
51.47
55.64
59.93
64.38
69.01
73.91
79.16
84.61
90.16
95.76
101.37
106.98
112.58
118.18
123.81
129.54
135.1
140.29
144.89
148.69
151.4
152.66
151.96
148.58
143.83
138.15
131.81
125.02
117.9
110.58
103.18
95.85
88.73
82.03
75.63
69.5
63.64
58.07
52.81
47.89
43.33
39.2
35.56
32.28
29.23
26.37
23.64
21.01
18.47
16.05
13.82
11.88
10.18
8.71
7.43
6.31
5.26
4.26
3.27
2.32
1.48
0.75
0.14
-0.39
-0.92
-1.54
-2.37
-3.42
-4.68
-6.04
-7.38
-8.67
-9.95
-11.38
-13.21
-15.63
-18.71
-22.32
-26.17
-29.94
-33.43
-36.7
-40.1
-44.13
-49.25
-55.63
-63.05
-70.99
-78.79
-86.06
-92.86
-99.71
-107.44
-116.77
-127.97
-140.67
-154.08
-167.26
-179.55
-190.92
-201.85
-213.26
-226.27
-241.99
-261.22
-284.08
-309.43
-334.61
-355.72
-368.68
-370.58
-360.96
-342.0
-317.71
-292.28
-268.58
-247.38
-227.74
-208.12
-187.49
-165.86
-144.02
-122.92
-103.09
-84.43
-66.59
-49.42
-33.29
-19.18
-8.19
-1.0
2.46
3.16
2.49
1.71
1.55
2.11
3.01
3.86
4.52
5.14
6.04
7.49
9.45
11.66
13.65
14.94
15.23
14.39
12.55
10.21
8.08
7.09
8.12
11.7
17.84
26.08
35.51
45.18
54.3
62.31
68.94
74.09
77.72
79.94
80.88
80.67
79.33
76.67
72.43
66.49
59.1
50.89
42.75
35.47
29.43
24.55
20.46
16.83
13.64
11.15
9.53
8.74
8.29
7.49
5.71
2.6
-1.76
-6.98
-12.5
-17.6
-21.4
-22.95
-21.41
-16.36
-8.08
2.4
13.44
23.41
31.02
35.75
37.71
37.41
35.54
32.65
29.15
25.37
21.64
18.32
15.7
13.89
12.78
12.01
11.12
9.79
7.96
5.93
4.17
3.12
2.91
3.2
3.35
2.65
0.56
-3.07
-7.92
-13.32
-18.32
-21.88
-23.03
-21.08
-15.85
-7.77
2.19
12.75
22.7
31.15
37.64
42.01
44.26
44.38
42.43
38.61
33.42
27.59
21.97
17.13
13.22
10.0
6.94
3.63
-0.0
-3.64
-6.82
-9.17
-10.64
-11.55
-12.41
-13.66
-15.48
-17.79
-20.38
-22.85
-24.74
-25.45
-24.34
-20.84
-14.72
-6.33
3.47
13.49
22.57
29.96
35.45
39.28
41.81
43.2
43.32
41.85
38.59
33.71
27.82
21.77
16.31
11.81
8.14
4.86
1.63
-1.63
-4.62
-6.87
-8.05
-8.27
-8.06
-8.2
-9.4
-12.13
-16.47
-22.27
-29.0
-35.84
-41.63
-44.92
-44.47
-39.69
-31.0
-19.73
-7.74
3.3
12.49
19.75
25.66
30.76
35.31
39.06
41.49
42.22
41.18
38.69
35.34
31.71
28.24
25.11
22.32
19.76
17.34
15.01
12.82
10.73
8.69
6.55
4.14
1.26
-2.26
-6.62
-12.0
-18.43
-25.63
-32.95
-39.33
-43.6
-44.75
-42.33
-36.52
-28.16
-18.41
-8.39
0.95
9.03
15.49
20.15
22.95
23.89
23.18
21.12
18.17
14.75
11.28
7.96
4.83
1.74
-1.54
-5.1
-8.87
-12.5
-15.55
-17.66
-18.62
-18.52
-17.69
-16.66
-16.0
-16.22
-17.56
-19.75
-21.95
-22.96
-21.55
-16.99
-9.34
0.51
11.18
21.35
30.13
37.2
42.63
46.57
49.04
49.84
48.88
46.23
42.29
37.68
32.98
28.6
24.59
20.71
16.63
12.05
6.93
1.54
-3.62
-8.05
-11.41
-13.73
-15.38
-16.99
-19.25
-22.65
-27.34
-33.07
-39.16
-44.59
-48.16
-48.78
-45.72
-38.88
-28.9
-16.99
-4.51
7.35
17.87
26.8
34.19
40.2
44.9
48.34
50.56
51.62
51.62
50.58
48.47
45.29
41.16
36.33
31.15
25.88
20.76
15.91
11.49
7.75
4.93
3.13
2.03
0.92
-1.06
-4.69
-10.29
-17.53
-25.5
-32.87
-38.17
-40.18
-38.11
-31.98
-22.55
-11.21
0.41
10.87
19.27
25.34
29.29
31.47
32.13
31.41
29.36
26.2
22.36
18.39
14.64
11.18
7.63
3.48
-1.67
-7.7
-14.03
-19.74
-24.0
-26.34
-26.89
-26.21
-25.06
-24.17
-24.05
-25.08
-27.31
-30.5
-33.94
-36.43
-36.53
-33.03
-25.4
-14.11
-0.57
13.36
25.98
36.2
43.65
48.41
50.59
50.15
46.98
41.18
33.34
24.56
16.1
8.88
3.21
-1.23
-5.08
-8.78
-12.39
-15.61
-18.15
-20.05
-21.7
-23.71
-26.52
-30.25
-34.73
-39.72
-45.01
-50.43
-55.51
-59.32
-60.58
-58.14
-51.48
-41.16
-28.63
-15.67
-3.81
6.27
14.67
21.87
28.22
33.65
37.64
39.67
39.57
37.74
34.97
31.99
29.25
26.66
23.89
20.73
17.25
13.93
11.28
9.58
8.69
8.07
7.0
4.86
1.26
-4.0
-10.93
-19.3
-28.44
-37.12
-43.64
-46.25
-43.79
-36.14
-24.34
-10.15
4.41
17.8
29.04
37.76
43.84
47.24
47.95
46.03
41.87
36.14
29.73
23.48
18.05
13.7
10.3
7.43
4.6
1.53
-1.65
-4.46
-6.3
-6.83
-6.13
-4.86
-3.93
-4.3
-6.58
-10.88
-16.74
-23.16
-28.77
-32.04
-31.63
-26.75
-17.39
-4.42
10.71
26.31
40.89
53.34
63.06
69.71
73.13
73.29
70.24
64.3
56.1
46.61
36.89
27.91
20.28
14.16
9.31
5.27
1.65
-1.82
-5.23
-8.59
-11.94
-15.38
-19.09
-23.27
-28.09
-33.63
-39.89
-46.71
-53.68
-60.06
-64.78
-66.59
-64.3
-57.22
-45.53
-30.41
-13.92
1.64
14.46
23.6
29.14
31.76
32.19
30.83
27.77
23.11
17.32
11.32
6.21
2.79
1.12
0.53
-0.01
-1.32
-3.6
-6.36
-8.83
-10.43
-11.2
-11.8
-13.3
-16.59
-22.06
-29.4
-37.57
-45.09
-50.23
-51.3
-47.13
-37.42
-23.02
-5.93
11.27
26.17
37.23
44.02
46.92
46.66
43.85
38.89
32.19
24.37
16.35
9.08
3.19
-1.25
-4.69
-7.77
-10.98
-14.44
-17.86
-20.77
-22.76
-23.64
-23.47
-22.59
-21.49
-20.72
-20.76
-21.85
-23.77
-25.69
-26.26
-23.89
-17.31
-6.23
8.41
24.56
39.84
52.24
60.73
65.27
66.49
65.04
61.37
55.77
48.58
40.52
32.51
25.48
19.93
15.77
12.43
9.14
5.32
0.74
-4.37
-9.45
-13.94
-17.4
-19.75
-21.33
-22.72
-24.55
-27.3
-31.17
-36.05
-41.49
-46.75
-50.78
-52.28
-50.1
-43.62
-33.13
-19.78
-5.37
8.26
19.7
28.31
34.16
37.73
39.55
39.93
39.03
36.89
33.76
30.11
26.59
23.79
22.07
21.35
21.21
21.16
20.83
20.2
19.44
18.65
17.68
16.06
13.25
8.87
2.94
-4.15
-11.81
-19.38
-26.22
-31.57
-34.58
-34.34
-30.23
-22.28
-11.42
0.71
12.18
21.39
27.47
30.26
30.14
27.61
23.11
17.05
9.92
2.45
-4.61
-10.61
-15.33
-18.99
-22.14
-25.3
-28.79
-32.48
-35.92
-38.53
-39.83
-39.6
-38.01
-35.5
-32.76
-30.53
-29.38
-29.64
-31.21
-33.45
-35.31
-35.52
-32.91
-26.78
-17.04
-4.36
10.05
24.74
38.26
49.48
57.76
62.87
64.95
64.35
61.47
56.73
50.48
43.13
35.16
27.17
19.8
13.52
8.5
4.51
1.04
-2.47
-6.46
-11.05
-15.92
-20.6
-24.66
-28.01
-30.93
-34.03
-37.85
-42.58
-47.82
-52.63
-55.78
-56.11
-52.88
-46.05
-36.25
-24.58
-12.35
-0.69
9.62
18.3
25.44
31.29
36.03
39.61
41.8
42.34
41.16
38.48
34.81
30.83
27.08
23.84
21.08
18.54
15.99
13.38
10.86
8.64
6.78
5.02
2.83
-0.41
-5.18
-11.64
-19.53
-28.17
-36.44
-42.95
-46.32
-45.55
-40.35
-31.26
-19.46
-6.42
6.43
17.89
27.13
33.47
36.54
36.21
32.86
27.28
20.49
13.52
7.09
1.54
-3.11
-7.04
-10.47
-13.67
-16.84
-20.04
-23.23
-26.25
-28.87
-30.96
-32.44
-33.41
-34.17
-35.06
-36.33
-37.88
-39.1
-38.87
-35.99
-29.59
-19.61
-6.94
6.87
20.13
31.54
40.44
46.77
50.76
52.6
52.35
50.1
46.08
40.75
34.68
28.47
22.47
16.8
11.44
6.31
1.44
-3.05
-6.91
-9.92
-11.95
-12.99
-13.23
-12.96
-12.68
-12.94
-14.24
-16.74
-20.05
-23.24
-25.1
-24.55
-21.02
-14.65
-6.17
3.43
13.12
22.13
29.88
35.99
40.25
42.61
43.14
41.97
39.28
35.31
30.36
24.92
19.56
14.86
11.17
8.57
6.83
5.61
4.64
3.79
3.06
2.45
1.85
1.0
-0.49
-3.13
-7.32
-13.04
-19.64
-25.79
-29.81
-30.24
-26.5
-19.05
-9.29
1.09
10.63
18.47
24.39
28.44
30.68
31.07
29.58
26.39
22.05
17.31
12.98
9.56
7.1
5.15
2.98
0.01
-3.92
-8.51
-13.06
-16.86
-19.56
-21.26
-22.52
-23.99
-26.18
-29.3
-33.19
-37.27
-40.64
-42.07
-40.3
-34.41
-24.2
-10.43
5.22
20.72
34.17
44.37
50.9
53.96
54.09
51.91
47.99
42.89
37.12
31.11
25.03
18.86
12.38
5.39
-2.08
-9.65
-16.76
-22.75
-27.22
-30.14
-31.86
-33.1
-34.65
-37.29
-41.42
-47.01
-53.34
-59.08
-62.49
-61.84
-56.0
-44.91
-29.67
-12.3
4.86
19.82
31.49
39.69
44.97
48.09
49.61
49.73
48.37
45.53
41.49
36.81
32.14
27.95
24.2
20.52
16.4
11.6
6.4
1.47
-2.46
-4.98
-6.37
-7.39
-8.92
-11.63
-15.64
-20.64
-25.99
-30.98
-34.86
-36.85
-36.17
-32.23
-24.85
-14.52
-2.48
9.63
20.29
28.47
33.86
36.7
37.36
36.16
33.21
28.59
22.64
16.03
9.6
4.14
0.03
-2.89
-5.18
-7.43
-9.98
-12.77
-15.44
-17.68
-19.42
-21.0
-23.05
-26.23
-30.91
-37.08
-44.31
-51.8
-58.46
-63.01
-64.19
-61.12
-53.6
-42.29
-28.61
-14.32
-0.9
10.8
20.56
28.56
34.98
39.85
43.05
44.49
44.28
42.71
40.1
36.64
32.42
27.45
21.79
15.73
9.68
4.07
-0.76
-4.77
-8.14
-11.24
-14.51
-18.38
-23.16
-28.97
-35.62
-42.53
-48.64
-52.54
-52.75
-48.23
-38.83
-25.5
-10.11
5.22
18.72
29.45
37.35
42.91
46.59
48.56
48.67
46.73
42.78
37.31
31.11
24.96
19.35
14.31
9.63
5.0
0.32
-4.28
-8.55
-12.23
-15.21
-17.59
-19.68
-21.91
-24.74
-28.58
-33.65
-39.73
-46.14
-51.71
-54.95
-54.45
-49.19
-38.98
-24.56
-7.39
10.66
27.72
42.4
53.93
62.17
67.36
69.82
69.85
67.63
63.36
57.43
50.37
42.99
36.0
29.88
24.59
19.72
14.64
8.91
2.51
-4.04
-9.9
-14.44
-17.55
-19.8
-22.24
-25.99
-31.76
-39.62
-48.94
-58.55
-66.89
-72.26
-73.14
-68.57
-58.54
-44.08
-27.05
-9.64
6.31
19.78
30.6
39.22
46.24
52.04
56.6
59.69
61.01
60.47
58.26
54.76
50.42
45.57
40.4
35.01
29.49
23.95
18.58
13.46
8.57
3.69
-1.51
-7.3
-13.82
-21.1
-29.17
-37.99
-47.31
-56.41
-64.0
-68.33
-67.75
-61.22
-48.84
-31.89
-12.46
7.08
24.7
39.04
49.48
55.95
58.77
58.45
55.66
51.17
45.76
40.15
34.83
29.99
25.54
21.13
16.38
11.0
4.99
-1.3
-7.29
-12.36
-16.06
-18.38
-19.68
-20.57
-21.76
-23.8
-27.01
-31.46
-36.93
-42.83
-48.1
-51.29
-50.84
-45.57
-35.13
-20.35
-2.99
14.69
30.66
43.55
52.79
58.46
60.93
60.59
57.79
52.84
46.27
38.74
31.1
24.05
18.09
13.3
9.46
6.09
2.69
-1.08
-5.34
-9.91
-14.46
-18.59
-22.12
-25.21
-28.35
-32.23
-37.36
-43.83
-51.2
-58.38
-63.91
-66.2
-63.99
-56.73
-44.84
-29.69
-13.3
2.27
15.48
25.64
32.87
37.7
40.66
42.0
41.77
40.05
37.14
33.58
29.88
26.34
22.91
19.28
15.12
10.36
5.29
0.46
-3.59
-6.64
-8.92
-11.0
-13.52
-16.94
-21.38
-26.75
-32.86
-39.38
-45.73
-50.93
-53.65
-52.46
-46.39
-35.45
-20.78
-4.46
11.22
24.29
33.61
38.91
40.59
39.35
35.94
31.11
25.47
19.73
14.55
10.51
7.9
6.43
5.27
3.32
-0.35
-6.03
-13.12
-20.42
-26.56
-30.63
-32.5
-32.76
-32.4
-32.37
-33.31
-35.41
-38.54
-42.17
-45.38
-46.88
-45.09
-38.61
-26.76
-10.01
10.0
30.75
49.6
64.48
74.29
78.97
79.13
75.69
69.63
61.89
53.43
45.19
37.94
32.12
27.68
24.13
20.67
16.55
11.27
4.83
-2.31
-9.37
-15.51
-20.2
-23.41
-25.53
-27.29
-29.43
-32.59
-37.03
-42.59
-48.59
-53.87
-56.9
-56.23
-50.8
-40.46
-25.99
-8.98
8.6
24.88
38.36
48.1
53.64
55.08
52.98
48.33
42.36
36.25
30.91
26.76
23.78
21.62
19.75
17.58
14.68
10.88
6.36
1.67
-2.47
-5.5
-7.35
-8.62
-10.37
-13.75
-19.44
-27.19
-35.69
-42.86
-46.54
-45.18
-38.42
-27.14
-13.2
1.23
14.27
24.71
32.09
36.4
37.83
36.56
32.83
27.08
20.09
12.83
6.28
1.0
-2.95
-6.03
-8.81
-11.71
-14.7
-17.32
-18.85
-18.7
-16.54
-12.48
-7.03
-1.08
4.25
7.71
8.3
5.64
0.37
-5.86
-10.7
-11.83
-7.79
1.4
14.23
28.24
40.84
50.08
55.05
55.79
52.96
47.4
39.96
31.41
22.56
14.2
7.03
1.51
-2.32
-4.74
-6.34
-7.78
-9.56
-11.98
-15.02
-18.42
-21.74
-24.54
-26.54
-27.72
-28.39
-29.09
-30.45
-32.98
-36.87
-41.74
-46.62
-50.11
-50.6
-46.91
-38.54
-26.11
-11.05
4.55
18.68
29.71
36.78
39.85
39.5
36.65
32.3
27.38
22.63
18.59
15.57
13.6
12.51
11.85
11.11
9.79
7.62
4.56
0.87
-3.13
-7.14
-10.98
-14.71
-18.5
-22.59
-27.2
-32.36
-37.78
-42.66
-45.89
-46.24
-42.87
-35.77
-25.89
-14.94
-4.79
3.16
8.39
11.19
12.32
12.5
12.07
11.07
9.37
6.97
4.11
1.15
-1.53
-3.74
-5.51
-6.96
-8.24
-9.46
-10.5
-11.19
-11.3
-10.71
-9.53
-8.14
-7.08
-6.95
-8.21
-10.9
-14.51
-17.99
-19.9
-18.81
-13.88
-5.2
6.13
18.25
29.16
37.39
42.34
44.19
43.57
41.05
36.92
31.3
24.45
16.99
9.91
4.17
0.36
-1.64
-2.59
-3.48
-5.09
-7.69
-10.96
-14.35
-17.38
-19.9
-22.08
-24.27
-26.73
-29.57
-32.89
-36.79
-41.35
-46.31
-50.82
-53.43
-52.59
-47.22
-37.34
-24.15
-9.59
4.41
16.57
26.39
33.87
39.03
41.66
41.51
38.59
33.59
27.75
22.5
18.92
17.28
16.98
16.9
15.87
13.23
9.13
4.33
-0.1
-3.3
-4.96
-5.46
-5.63
-6.49
-8.85
-13.05
-18.81
-25.13
-30.55
-33.45
-32.54
-27.35
-18.37
-6.96
5.1
16.06
24.7
30.41
33.04
32.85
30.25
25.85
20.41
14.84
10.0
6.53
4.54
3.7
3.37
2.88
1.85
0.28
-1.54
-3.19
-4.31
-4.8
-4.75
-4.4
-4.15
-4.42
-5.62
-7.98
-11.32
-14.88
-17.44
-17.5
-13.95
-6.48
4.12
16.19
27.71
37.04
43.28
46.39
46.83
45.1
41.39
35.66
27.94
18.72
8.99
0.11
-6.7
-10.79
-12.34
-12.25
-11.73
-11.81
-12.98
-15.11
-17.66
-20.06
-21.95
-23.34
-24.51
-25.83
-27.63
-30.06
-33.05
-36.28
-39.07
-40.44
-39.25
-34.69
-26.54
-15.46
-2.82
9.73
20.77
29.46
35.53
39.09
40.33
39.43
36.73
32.77
28.38
24.42
21.44
19.42
17.84
15.94
13.11
9.2
4.46
-0.56
-5.31
-9.38
-12.59
-15.02
-16.89
-18.65
-20.85
-23.87
-27.66
-31.56
-34.29
-34.4
-30.82
-23.39
-13.12
-1.77
8.64
16.56
21.28
22.92
22.18
19.95
17.02
13.87
10.74
7.7
4.82
2.23
0.04
-1.76
-3.4
-5.23
-7.53
-10.19
-12.64
-14.03
-13.67
-11.46
-8.09
-4.82
-2.92
-3.2
-5.66
-9.6
-14.06
-17.98
-20.45
-20.68
-18.05
-12.22
-3.38
7.58
19.16
29.58
37.24
41.22
41.42
38.49
33.43
27.26
20.76
14.45
8.67
3.7
-0.25
-3.14
-5.07
-6.37
-7.53
-9.01
-11.1
-13.75
-16.57
-19.04
-20.82
-21.92
-22.85
-24.33
-26.95
-30.97
-36.06
-41.42
-45.93
-48.46
-48.04
-44.1
-36.66
-26.25
-13.91
-0.81
11.94
23.56
33.54
41.47
46.88
49.3
48.52
44.78
38.97
32.31
26.07
21.13
17.82
15.93
14.93
14.19
13.17
11.64
9.6
7.26
4.86
2.51
0.1
-2.7
-6.26
-10.8
-16.16
-21.7
-26.33
-28.8
-28.08
-23.73
-16.2
-6.72
3.0
11.4
17.41
20.74
21.67
20.77
18.55
15.3
11.28
6.79
2.35
-1.49
-4.29
-6.01
-7.0
-7.87
-9.2
-11.16
-13.44
-15.29
-15.8
-14.37
-11.05
-6.54
-1.99
1.39
2.69
1.55
-1.77
-6.46
-11.23
-14.56
-15.03
-11.81
-4.96
4.49
14.83
24.29
31.59
36.21
38.31
38.5
37.38
35.36
32.66
29.37
25.53
21.29
16.87
12.57
8.75
5.57
3.01
0.76
-1.57
-4.31
-7.48
-10.8
-13.85
-16.28
-18.05
-19.34
-20.49
-21.79
-23.45
-25.55
-28.06
-30.83
-33.42
-35.03
-34.59
-31.04
-23.8
-13.21
-0.61
12.05
22.76
30.16
33.8
34.06
31.79
27.76
22.53
16.46
10.01
3.86
-1.11
-4.19
-5.15
-4.41
-3.0
-2.09
-2.59
-4.82
-8.33
-12.27
-15.7
-18.02
-19.21
-19.7
-20.21
-21.34
-23.47
-26.44
-29.67
-32.23
-33.12
-31.51
-27.02
-19.9
-11.02
-1.7
6.67
13.04
16.93
18.52
18.35
17.14
15.45
13.64
11.89
10.3
8.93
7.77
6.7
5.56
4.15
2.43
0.57
-1.13
-2.34
-2.86
-2.7
-1.97
-0.9
0.23
1.03
1.09
-0.08
-2.75
-6.81
-11.54
-15.66
-17.67
-16.3
-10.94
-2.04
8.96
20.08
29.38
35.57
38.38
38.34
36.45
33.58
30.13
26.1
21.34
16.04
10.79
6.47
3.68
2.47
2.16
1.7
0.12
-2.87
-6.9
-11.16
-14.79
-17.41
-19.16
-20.55
-22.21
-24.56
-27.68
-31.44
-35.58
-39.78
-43.57
-46.15
-46.53
-43.7
-37.07
-26.77
-13.75
0.46
14.18
26.07
35.36
41.79
45.37
46.25
44.67
40.98
35.88
30.24
24.98
20.87
18.28
17.14
16.99
17.14
16.8
15.42
12.81
9.25
5.3
1.56
-1.58
-4.12
-6.43
-8.96
-12.07
-15.82
-19.94
-23.85
-26.68
-27.54
-25.72
-20.99
-13.76
-5.06
3.77
11.41
17.02
20.25
21.3
20.6
18.56
15.59
11.94
8.02
4.32
1.38
-0.39
-0.97
-0.74
-0.43
-0.69
-1.91
-3.98
-6.46
-8.75
-10.48
-11.6
-12.33
-13.05
-14.1
-15.66
-17.74
-20.16
-22.39
-23.64
-22.89
-19.24
-12.33
-2.59
8.65
19.52
28.1
33.04
33.89
31.16
26.11
20.2
14.65
10.15
6.77
4.22
2.12
0.2
-1.64
-3.39
-5.12
-7.02
-9.36
-12.3
-15.73
-19.22
-22.18
-24.09
-24.75
-24.41
-23.72
-23.55
-24.7
-27.68
-32.43
-38.16
-43.41
-46.33
-45.25
-39.13
-28.1
-13.4
2.93
18.73
32.26
42.57
49.43
52.97
53.51
51.39
47.14
41.58
35.72
30.57
26.8
24.46
23.02
21.65
19.62
16.58
12.59
8.03
3.35
-1.0
-4.68
-7.54
-9.63
-11.37
-13.41
-16.5
-21.08
-26.97
-33.21
-38.14
-40.04
-37.55
-30.23
-18.73
-4.65
9.8
22.36
31.22
35.42
35.05
31.06
24.86
17.82
11.0
4.97
-0.06
-4.02
-6.82
-8.49
-9.18
-9.28
-9.24
-9.26
-9.2
-8.51
-6.71
-3.64
0.2
3.92
6.49
7.21
5.96
3.2
-0.11
-2.81
-3.73
-2.03
2.57
9.59
17.8
25.68
31.84
35.58
36.99
36.74
35.59
34.0
32.04
29.43
26.02
22.01
17.94
14.45
11.93
10.36
9.31
8.29
6.93
5.17
3.2
1.15
-1.1
-3.92
-7.74
-12.82
-18.98
-25.73
-32.43
-38.45
-43.26
-46.3
-46.9
-44.4
-38.48
-29.48
-18.6
-7.58
1.96
9.11
14.04
17.59
20.57
23.15
24.66
24.11
20.85
15.17
8.26
1.54
-3.89
-7.73
-10.38
-12.38
-14.15
-15.79
-17.26
-18.58
-19.85
-21.16
-22.59
-24.12
-25.84
-28.02
-30.98
-34.94
-39.7
-44.63
-48.64
-50.59
-49.5
-44.78
-36.43
-25.1
-12.04
1.2
13.1
22.61
29.25
33.04
34.21
32.89
29.19
23.39
16.12
8.42
1.43
-4.06
-7.9
-10.63
-13.06
-15.82
-18.98
-22.03
-24.26
-25.17
-24.83
-23.87
-23.23
-23.74
-25.74
-28.91
-32.4
-34.94
-35.26
-32.3
-25.52
-15.04
-1.73
12.99
27.49
40.34
50.7
58.32
63.46
66.42
67.39
66.31
63.04
57.6
50.33
41.89
33.15
24.89
17.64
11.61
6.58
2.23
-1.78
-5.59
-9.06
-11.93
-14.01
-15.42
-16.67
-18.46
-21.46
-25.95
-31.68
-37.91
-43.62
-47.71
-49.19
-47.33
-41.75
-32.64
-20.79
-7.5
5.68
17.42
26.92
34.0
38.91
42.0
43.44
43.15
41.08
37.43
32.79
28.0
23.84
20.7
18.47
16.64
14.7
12.28
9.49
6.69
4.36
2.77
1.81
1.07
-0.01
-1.89
-4.86
-9.02
-14.35
-20.63
-27.36
-33.54
-37.74
-38.39
-34.31
-25.24
-12.16
3.0
17.76
29.91
38.04
41.69
41.21
37.43
31.26
23.54
15.04
6.45
-1.53
-8.4
-13.93
-18.31
-22.05
-25.69
-29.56
-33.56
-37.37
-40.6
-43.07
-44.89
-46.28
-47.41
-48.33
-49.04
-49.59
-49.95
-49.82
-48.45
-44.6
-36.99
-25.02
-9.16
8.9
26.88
42.67
55.05
63.86
69.6
72.9
73.94
72.48
68.17
61.12
52.16
42.67
34.07
27.27
22.3
18.42
14.58
9.94
4.34
-1.8
-7.65
-12.55
-16.35
-19.46
-22.7
-26.89
-32.6
-39.89
-48.3
-56.86
-64.25
-68.93
-69.45
-64.89
-55.17
-41.36
-25.34
-9.39
4.58
15.41
22.82
27.08
28.61
27.71
24.67
20.03
14.79
10.24
7.64
7.65
10.01
13.62
16.97
18.7
18.17
15.55
11.75
7.9
4.87
2.87
1.39
-0.56
-4.04
-9.69
-17.42
-26.35
-34.81
-40.69
-41.95
-37.21
-26.22
-10.13
8.82
27.93
44.91
58.41
68.11
74.31
77.26
76.94
73.08
65.67
55.36
43.49
31.68
21.13
12.32
4.79
-2.29
-9.66
-17.53
-25.42
-32.46
-37.83
-41.15
-42.62
-42.95
-43.1
-43.95
-46.04
-49.44
-53.58
-57.27
-58.88
-56.66
-49.24
-36.21
-18.42
2.14
22.9
41.42
56.11
66.41
72.63
75.44
75.39
72.79
67.85
60.94
52.8
44.5
37.12
31.32
27.0
23.35
19.29
13.99
7.38
0.17
-6.48
-11.61
-14.99
-17.24
-19.56
-23.18
-28.86
-36.62
-45.78
-55.03
-62.65
-66.85
-66.08
-59.5
-47.4
-31.26
-13.43
3.55
17.65
27.78
33.81
36.27
35.88
33.42
29.62
25.26
21.09
17.74
15.46
13.97
12.6
10.56
7.37
3.15
-1.43
-5.36
-7.79
-8.37
-7.48
-6.15
-5.78
-7.63
-12.46
-20.14
-29.56
-38.67
-44.99
-46.28
-41.2
-29.94
-14.08
3.77
20.83
35.04
45.4
51.87
54.92
54.97
52.21
46.74
38.94
29.63
19.99
11.12
3.65
-2.48
-7.8
-12.95
-18.25
-23.52
-28.24
-31.84
-34.08
-35.23
-35.98
-37.25
-39.85
-44.17
-50.07
-56.65
-62.34
-65.07
-62.79
-54.14
-39.06
-18.99
3.43
25.08
43.42
57.05
65.89
70.69
72.49
72.07
69.85
66.03
60.94
55.1
49.09
43.29
37.63
31.67
24.86
16.92
8.18
-0.54
-8.1
-13.69
-17.16
-19.14
-20.82
-23.54
-28.38
-35.77
-45.34
-55.82
-65.17
-70.99
-71.13
-64.47
-51.45
-34.07
-15.23
2.22
16.39
26.67
33.41
37.27
38.74
37.91
34.82
29.87
23.96
18.3
13.96
11.39
10.27
9.75
8.89
7.18
4.78
2.28
0.49
-0.14
0.2
0.77
0.51
-1.63
-6.23
-13.3
-22.1
-31.18
-38.63
-42.42
-41.0
-33.78
-21.52
-6.05
10.24
25.15
37.24
45.97
51.46
53.98
53.78
50.98
45.93
39.31
32.03
25.02
18.78
13.19
7.74
1.81
-4.89
-12.1
-19.16
-25.26
-29.75
-32.4
-33.53
-33.94
-34.77
-37.19
-42.08
-49.55
-58.71
-67.52
-73.23
-73.19
-65.72
-50.71
-29.85
-6.08
17.32
37.61
53.17
63.46
68.73
69.56
66.61
60.65
52.64
43.81
35.45
28.47
23.13
18.99
15.22
11.08
6.34
1.37
-3.16
-6.76
-9.45
-11.74
-14.52
-18.58
-24.49
-32.32
-41.51
-50.83
-58.42
-61.96
-59.47
-50.06
-34.49
-15.18
4.52
21.47
33.67
40.65
43.22
42.64
40.02
36.01
30.97
25.25
19.36
13.81
8.84
4.29
-0.36
-5.61
-11.57
-17.72
-23.16
-26.87
-28.27
-27.49
-25.42
-23.46
-23.06
-25.29
-30.42
-37.62
-44.96
-49.76
-49.3
-41.74
-26.96
-6.79
15.49
36.22
52.6
63.46
69.3
71.51
71.46
69.84
66.59
61.35
54.11
45.47
36.61
28.7
22.46
17.82
14.1
10.32
5.76
0.17
-6.08
-12.24
-17.64
-21.95
-25.47
-28.94
-33.21
-38.92
-46.19
-54.5
-62.67
-69.1
-71.95
-69.69
-61.6
-48.11
-30.78
-11.92
6.17
21.79
34.24
43.53
49.99
53.84
55.1
53.77
50.2
45.07
39.42
34.17
29.76
26.08
22.62
18.87
14.67
10.27
6.17
2.84
0.38
-1.49
-3.43
-6.19
-10.41
-16.44
-24.24
-33.16
-41.85
-48.33
-50.4
-46.35
-35.72
-19.62
-0.51
18.61
35.07
47.16
54.3
56.67
54.87
49.56
41.56
31.82
21.52
11.88
3.85
-2.27
-6.84
-10.67
-14.6
-19.02
-23.77
-28.24
-31.76
-33.96
-35.0
-35.59
-36.8
-39.65
-44.82
-52.21
-60.71
-68.15
-71.75
-68.98
-58.52
-40.93
-18.6
5.02
26.65
44.19
56.98
65.41
70.18
71.73
70.1
65.28
57.58
47.88
37.43
27.44
18.7
11.39
5.21
-0.4
-5.82
-11.13
-16.0
-19.97
-22.74
-24.41
-25.64
-27.47
-31.05
-37.2
-45.92
-56.19
-65.9
-72.41
-73.27
-67.01
-53.81
-35.37
-14.46
6.01
23.78
37.57
47.05
52.41
53.88
51.74
46.45
38.99
30.87
23.8
19.2
17.57
18.42
20.33
21.62
20.95
17.81
12.6
6.38
0.29
-4.77
-8.45
-10.93
-12.8
-14.8
-17.73
-22.22
-28.47
-35.99
-43.45
-48.87
-50.12
-45.72
-35.47
-20.65
-3.53
13.41
28.26
40.06
48.56
53.81
55.74
54.1
48.8
40.27
29.62
18.44
8.23
-0.03
-6.21
-10.86
-14.83
-18.74
-22.68
-26.27
-28.99
-30.6
-31.43
-32.39
-34.61
-39.0
-45.78
-54.1
-62.06
-66.98
-66.07
-57.22
-39.78
-14.99
14.22
43.92
70.26
90.41
103.1
108.49
107.67
102.01
92.86
81.43
68.86
56.32
44.82
34.95
26.65
19.14
11.33
2.41
-7.65
-17.98
-27.18
-34.0
-37.95
-39.54
-40.11
-41.29
-44.29
-49.57
-56.65
-64.15
-70.15
-72.48
-69.35
-59.9
-44.65
-25.52
-5.32
13.1
27.83
38.27
45.08
49.4
52.11
53.41
52.89
50.06
44.85
37.84
29.98
22.14
14.79
7.88
1.16
-5.44
-11.6
-16.66
-19.9
-20.99
-20.22
-18.43
-16.84
-16.62
-18.67
-23.34
-30.35
-38.61
-46.42
-51.59
-51.99
-46.24
-34.32
-17.81
0.47
17.43
30.71
39.36
43.91
45.64
45.78
44.92
42.99
39.82
35.58
30.99
26.91
23.83
21.45
18.81
14.81
9.0
1.81
-5.53
-11.61
-15.56
-17.39
-18.03
-18.8
-20.85
-24.83
-30.78
-38.28
-46.48
-54.15
-59.62
-61.03
-56.83
-46.39
-30.45
-10.99
9.31
28.02
43.53
55.26
63.28
67.85
69.09
67.05
62.02
54.71
46.33
38.12
30.97
25.14
20.28
15.75
11.01
5.99
1.0
-3.44
-6.98
-9.69
-12.12
-15.14
-19.57
-25.92
-34.14
-43.49
-52.53
-59.38
-62.09
-59.23
-50.37
-36.38
-19.22
-1.37
14.86
28.01
37.52
43.56
46.47
46.51
43.8
38.53
31.24
22.8
14.3
6.56
-0.17
-6.18
-12.18
-18.78
-26.14
-33.78
-40.81
-46.28
-49.63
-50.89
-50.74
-50.18
-50.3
-51.82
-54.89
-58.82
-62.14
-62.84
-58.97
-49.32
-34.0
-14.46
6.83
27.28
44.87
58.69
68.72
75.38
78.97
79.45
76.66
70.72
62.43
53.11
44.29
37.12
31.94
28.25
25.03
21.26
16.45
10.85
5.26
0.61
-2.5
-4.15
-5.05
-6.31
-9.01
-13.86
-21.03
-30.09
-39.98
-49.11
-55.55
-57.4
-53.29
-42.97
-27.62
-9.64
8.05
22.94
33.6
39.85
42.38
42.03
39.3
34.46
27.74
19.73
11.49
4.26
-1.05
-4.23
-5.84
-6.89
-8.35
-10.63
-13.48
-16.16
-17.85
-18.16
-17.3
-16.07
-15.6
-16.97
-20.87
-27.42
-36.0
-45.09
-52.44
-55.51
-52.28
-42.0
-25.74
-6.1
13.71
30.96
44.23
53.45
59.31
62.4
62.86
60.51
55.32
47.85
39.27
30.93
23.77
18.0
13.23
8.81
4.34
-0.15
-4.24
-7.41
-9.35
-10.17
-10.39
-10.82
-12.39
-16.0
-22.16
-30.67
-40.38
-49.07
-53.97
-52.46
-43.05
-26.04
-3.69
20.55
42.99
60.85
72.76
78.74
79.65
76.57
70.47
62.16
52.55
42.66
33.54
25.95
20.1
15.59
11.61
7.36
2.35
-3.37
-9.31
-14.82
-19.36
-22.81
-25.53
-28.29
-32.05
-37.66
-45.57
-55.51
-66.31
-75.89
-81.72
-81.41
-73.73
-59.17
-39.99
-19.56
-1.25
12.55
20.99
24.55
24.46
22.0
18.14
13.6
9.07
5.23
2.68
1.66
1.78
2.21
1.99
0.34
-2.97
-7.62
-12.77
-17.4
-20.56
-21.67
-20.73
-18.29
-15.39
-13.2
-12.79
-14.67
-18.56
-23.34
-27.24
-28.35
-25.13
-17.11
-5.0
9.35
23.64
35.77
44.44
49.37
51.02
50.16
47.44
43.36
38.25
32.52
26.65
21.21
16.54
12.71
9.5
6.51
3.34
-0.28
-4.39
-8.87
-13.34
-17.39
-20.71
-23.24
-25.23
-27.12
-29.41
-32.5
-36.67
-41.93
-48.04
-54.22
-59.04
-60.63
-57.24
-48.01
-33.45
-15.52
3.1
19.93
33.43
43.24
49.73
53.43
54.6
53.2
49.29
43.4
36.65
30.45
25.95
23.54
22.82
22.75
22.26
20.61
17.68
13.93
10.02
6.49
3.48
0.74
-2.28
-6.08
-10.95
-16.79
-23.14
-29.2
-34.01
-36.51
-35.74
-31.13
-22.75
-11.53
0.83
12.28
20.95
25.75
26.57
24.14
19.63
14.21
8.81
4.05
0.26
-2.48
-4.28
-5.5
-6.6
-8.02
-10.02
-12.58
-15.41
-17.9
-19.36
-19.23
-17.38
-14.19
-10.61
-7.79
-6.66
-7.64
-10.48
-14.39
-18.32
-21.07
-21.51
-18.78
-12.48
-2.88
8.89
21.17
32.13
40.37
45.19
46.67
45.35
41.86
36.65
30.07
22.5
14.48
6.73
-0.04
-5.43
-9.48
-12.59
-15.25
-17.83
-20.41
-22.79
-24.77
-26.31
-27.65
-29.26
-31.57
-34.84
-39.06
-43.86
-48.72
-52.9
-55.53
-55.73
-52.82
-46.51
-37.05
-25.29
-12.39
0.47
12.43
23.03
32.06
39.29
44.28
46.58
45.94
42.68
37.74
32.28
27.28
23.17
19.77
16.65
13.5
10.34
7.47
5.2
3.58
2.34
1.01
-0.84
-3.42
-6.81
-10.98
-15.81
-20.91
-25.46
-28.12
-27.45
-22.37
-12.88
-0.2
13.49
25.75
34.65
39.18
39.36
35.82
29.35
20.79
10.98
0.89
-8.37
-15.81
-20.93
-23.88
-25.38
-26.41
-27.77
-29.83
-32.4
-34.93
-36.69
-37.14
-35.98
-33.28
-29.55
-25.54
-22.21
-20.3
-20.08
-20.9
-21.37
-19.7
-14.3
-4.5
9.21
25.22
41.39
55.66
66.48
73.09
75.41
73.86
69.04
61.78
53.0
43.68
34.81
27.16
21.13
16.58
12.96
9.48
5.57
1.09
-3.6
-7.86
-11.16
-13.39
-14.92
-16.44
-18.66
-22.06
-26.74
-32.51
-38.82
-44.76
-49.09
-50.37
-47.4
-39.69
-27.85
-13.53
0.96
13.49
22.57
27.74
29.38
28.33
25.46
21.47
16.94
12.42
8.5
5.6
3.86
2.99
2.36
1.31
-0.54
-3.06
-5.73
-7.85
-9.02
-9.25
-9.05
-9.21
-10.54
-13.66
-18.71
-25.29
-32.43
-38.6
-42.05
-41.25
-35.45
-24.93
-11.15
3.71
17.35
27.96
34.55
37.05
35.96
32.17
26.62
20.18
13.58
7.31
1.66
-3.37
-7.94
-12.28
-16.54
-20.73
-24.7
-28.25
-31.22
-33.54
-35.23
-36.44
-37.47
-38.7
-40.63
-43.55
-47.19
-50.47
-51.6
-48.53
-39.77
-25.19
-6.31
14.13
33.11
48.4
59.12
65.68
69.06
70.1
69.2
66.33
61.47
54.96
47.55
40.1
33.25
27.14
21.45
15.67
9.34
2.42
-4.72
-11.41
-16.95
-20.94
-23.56
-25.58
-28.16
-32.44
-39.06
-47.7
-56.95
-64.58
-68.1
-65.71
-56.94
-42.89
-25.91
-8.67
6.66
18.97
28.07
34.3
37.94
39.01
37.53
33.86
29.0
24.24
20.71
18.9
18.39
18.24
17.5
15.62
12.66
9.23
6.04
3.75
2.67
2.67
3.23
3.55
2.68
-0.17
-5.27
-12.22
-19.76
-26.06
-29.25
-28.09
-22.48
-13.49
-2.97
7.36
16.44
24.22
31.36
38.52
45.77
52.34
57.05
58.83
57.29
52.78
46.17
38.3
29.77
20.87
11.72
2.65
-5.82
-13.02
-18.36
-21.63
-23.17
-23.8
-24.57
-26.4
-29.81
-34.79
-40.99
-47.72
-54.0
-58.58
-59.94
-56.63
-47.75
-33.51
-15.41
4.08
22.33
37.35
48.24
55.17
58.87
60.1
59.24
56.43
51.79
45.71
38.81
31.79
25.16
19.0
13.04
6.8
-0.03
-7.3
-14.31
-20.11
-23.91
-25.55
-25.73
-25.8
-27.26
-31.15
-37.65
-45.92
-54.31
-60.79
-63.47
-61.1
-53.34
-41.0
-25.67
-9.43
5.79
18.67
28.57
35.4
39.3
40.42
38.88
35.06
29.74
24.11
19.41
16.51
15.57
15.96
16.68
16.74
15.68
13.66
11.2
8.86
6.88
5.1
2.98
-0.1
-4.67
-10.92
-18.64
-27.05
-34.82
-40.27
-41.75
-38.23
-29.69
-17.23
-2.77
11.55
24.02
33.75
40.58
44.82
46.83
46.76
44.62
40.44
34.51
27.44
20.03
12.99
6.68
1.06
-4.25
-9.61
-15.06
-20.22
-24.46
-27.21
-28.32
-28.24
-27.89
-28.36
-30.48
-34.54
-40.17
-46.42
-51.91
-55.08
-54.36
-48.59
-37.48
-21.78
-3.3
15.53
32.42
45.84
55.28
61.08
63.96
64.51
63.05
59.71
54.65
48.35
41.44
34.51
27.85
21.38
14.77
7.76
0.42
-6.79
-13.22
-18.27
-21.7
-23.81
-25.33
-27.22
-30.27
-34.86
-40.65
-46.62
-51.21
-52.72
-49.82
-42.12
-30.34
-16.16
-1.73
11.13
21.32
28.59
33.25
35.7
36.15
34.58
31.03
25.85
19.69
13.49
8.01
3.67
0.4
-2.17
-4.54
-7.01
-9.49
-11.61
-12.85
-12.96
-12.01
-10.62
-9.66
-9.99
-12.12
-15.93
-20.59
-24.67
-26.52
-24.76
-18.78
-9.02
3.07
15.46
26.32
34.46
39.62
42.23
42.93
42.11
39.84
35.98
30.54
23.97
17.0
10.43
4.71
-0.22
-4.8
-9.62
-14.98
-20.73
-26.39
-31.29
-34.93
-37.15
-38.27
-39.02
-40.26
-42.82
-47.1
-52.85
-58.94
-63.56
-64.65
-60.56
-50.64
-35.54
-17.0
2.72
21.49
37.72
50.52
59.49
64.61
66.07
64.35
60.19
54.61
48.65
43.09
38.27
34.04
29.97
25.53
20.37
14.46
8.07
1.67
-4.22
-9.23
-13.34
-16.86
-20.47
-24.96
-30.93
-38.39
-46.5
-53.55
-57.3
-55.8
-48.08
-34.75
-17.87
-0.23
15.57
27.96
36.6
41.94
44.74
45.44
44.16
40.92
35.99
30.02
23.87
18.31
13.66
9.72
5.93
1.74
-3.04
-8.04
-12.48
-15.47
-16.44
-15.47
-13.43
-11.66
-11.51
-13.78
-18.39
-24.3
-29.8
-32.99
-32.22
-26.55
-15.97
-1.45
15.24
31.83
46.12
56.42
61.92
62.65
59.34
53.03
44.74
35.38
25.77
16.75
9.12
3.43
-0.26
-2.45
-4.1
-6.19
-9.37
-13.66
-18.59
-23.49
-27.74
-31.08
-33.53
-35.38
-37.08
-39.15
-42.06
-46.04
-50.92
-55.85
-59.37
-59.64
-55.11
-45.13
-30.38
-12.74
5.32
21.45
34.09
42.64
47.27
48.5
46.94
43.27
38.33
33.19
28.95
26.42
25.75
26.36
27.19
27.18
25.67
22.68
18.72
14.55
10.87
8.0
5.87
4.07
1.99
-1.1
-5.69
-11.86
-18.93
-25.47
-29.61
-29.62
-24.65
-15.2
-3.09
9.21
19.42
26.15
29.14
28.96
26.52
22.57
17.52
11.62
5.23
-1.11
-6.78
-11.25
-14.51
-17.03
-19.58
-22.81
-26.74
-30.75
-33.73
-34.75
-33.54
-30.74
-27.7
-25.96
-26.64
-30.12
-35.91
-42.68
-48.58
-51.42
-49.24
-40.88
-26.47
-7.64
12.87
31.95
47.09
56.88
61.14
60.54
56.14
49.13
40.63
31.77
23.6
16.98
12.3
9.42
7.72
6.22
4.0
0.4
-4.67
-10.69
-16.67
-21.58
-24.69
-25.97
-26.07
-26.06
-26.94
-29.34
-33.3
-38.36
-43.68
-48.12
-50.26
-48.72
-42.49
-31.46
-16.67
-0.12
15.81
29.21
39.09
45.38
48.57
49.19
47.56
43.9
38.6
32.38
26.23
21.01
17.04
14.03
11.12
7.45
2.57
-3.28
-9.19
-14.04
-17.01
-18.02
-17.84
-17.77
-19.17
-22.89
-28.94
-36.54
-44.22
-50.12
-52.36
-49.54
-41.2
-28.15
-12.43
3.32
16.59
25.86
30.88
32.44
31.78
29.94
27.5
24.61
21.33
17.82
14.34
11.11
8.1
5.03
1.56
-2.4
-6.62
-10.41
-12.97
-13.65
-12.27
-9.37
-5.93
-3.26
-2.51
-4.33
-8.63
-14.48
-20.24
-23.93
-23.75
-18.59
-8.52
5.2
20.36
34.46
45.46
52.32
55.11
54.63
51.96
47.88
42.86
37.11
30.89
24.72
19.26
15.0
11.97
9.64
7.14
3.63
-1.32
-7.54
-14.3
-20.78
-26.28
-30.54
-33.74
-36.32
-38.84
-41.72
-45.25
-49.42
-53.85
-57.68
-59.53
-57.81
-51.18
-39.21
-22.66
-3.42
16.06
33.53
47.46
57.28
63.08
65.26
64.23
60.39
54.37
47.06
39.63
33.14
28.19
24.72
22.07
19.31
15.71
11.13
6.1
1.61
-1.42
-2.53
-2.14
-1.37
-1.65
-4.18
-9.49
-17.24
-26.27
-34.91
-41.27
-43.69
-41.15
-33.57
-21.99
-8.3
5.24
16.61
24.53
28.58
29.01
26.37
21.39
14.8
7.52
0.58
-5.08
-8.91
-10.97
-11.98
-12.96
-14.76
-17.64
-21.17
-24.47
-26.63
-27.15
-26.05
-23.97
-21.78
-20.43
-20.74
-23.24
-27.92
-34.01
-39.89
-43.35
-42.29
-35.55
-23.45
-7.77
8.91
24.13
36.32
44.98
50.28
52.64
52.3
49.4
44.2
37.32
29.71
22.25
15.64
10.15
5.77
2.24
-0.74
-3.59
-6.69
-10.28
-14.27
-18.33
-21.9
-24.59
-26.46
-27.9
-29.6
-32.2
-36.02
-40.89
-46.09
-50.42
-52.35
-50.4
-43.64
-32.06
-16.91
-0.28
15.5
28.63
38.37
44.93
49.08
51.52
52.56
52.1
50.02
46.45
41.9
37.08
32.61
28.72
25.18
21.55
17.48
12.92
8.16
3.61
-0.4
-3.84
-7.04
-10.55
-15.01
-20.87
-28.22
-36.62
-44.98
-51.63
-54.62
-52.25
-43.74
-29.62
-11.75
7.22
24.54
38.17
47.15
51.53
52.05
49.66
45.15
39.06
31.84
23.96
15.97
8.47
1.91
-3.49
-7.86
-11.53
-14.89
-18.11
-21.04
-23.25
-24.22
-23.69
-21.79
-19.16
-16.73
-15.51
-16.23
-19.11
-23.67
-28.73
-32.6
-33.46
-29.88
-21.31
-8.35
7.4
23.72
38.42
49.78
56.88
59.5
58.04
53.23
45.99
37.22
27.74
18.26
9.32
1.36
-5.29
-10.52
-14.55
-17.93
-21.44
-25.78
-31.27
-37.71
-44.43
-50.67
-55.83
-59.9
-63.35
-67.05
-71.82
-78.11
-85.66
-93.39
-99.6
-102.47
-100.61
-93.46
-81.3
-64.98
-45.58
-24.22
-2.09
19.29
38.09
52.27
60.06
60.56
54.12
42.41
27.99
13.75
2.3
-4.63
-6.41
-3.59
2.33
9.46
16.19
21.81
26.67
31.89
38.58
47.1
56.45
64.45
68.37
66.1
57.08
42.8
26.47
12.05
3.06
1.47
7.3
18.76
33.12
47.7
60.56
70.76
78.03
82.29
83.24
80.5
74.02
64.49
53.39
42.58
33.55
26.84
21.92
17.56
12.58
6.43
-0.64
-7.66
-13.61
-17.7
-19.82
-20.37
-20.11
-19.77
-19.91
-20.76
-22.17
-23.71
-24.67
-24.23
-21.51
-15.94
-7.45
3.41
15.49
27.39
37.82
45.86
51.02
53.11
52.08
48.16
41.84
33.96
25.61
17.82
11.28
6.11
1.99
-1.59
-5.09
-8.65
-12.15
-15.34
-18.08
-20.49
-22.94
-25.96
-29.91
-34.93
-40.87
-47.37
-53.93
-59.99
-64.74
-67.07
-65.7
-59.61
-48.69
-34.05
-17.87
-2.65
9.57
17.89
22.63
24.77
25.37
25.05
24.0
22.18
19.7
16.99
14.52
12.6
11.18
9.91
8.43
6.6
4.61
2.83
1.67
1.24
1.35
1.49
1.09
-0.34
-3.07
-7.17
-12.52
-18.73
-25.01
-30.06
-32.42
-30.79
-24.61
-14.41
-1.69
11.45
23.05
31.7
36.8
38.28
36.42
31.69
24.69
16.31
7.62
-0.32
-6.83
-11.83
-15.71
-19.09
-22.33
-25.41
-27.95
-29.51
-29.88
-29.27
-28.24
-27.46
-27.49
-28.62
-30.91
-34.04
-37.43
-40.08
-40.69
-37.98
-31.11
-20.25
-6.64
7.6
20.27
29.72
35.32
37.42
36.89
34.66
31.39
27.44
23.05
18.52
14.24
10.51
7.38
4.6
1.81
-1.28
-4.67
-8.04
-10.93
-13.09
-14.61
-15.86
-17.39
-19.67
-23.05
-27.61
-33.09
-38.83
-43.67
-46.12
-44.73
-38.79
-28.65
-15.87
-2.68
8.89
17.59
23.26
26.45
27.85
27.87
26.52
23.68
19.45
14.4
9.35
5.17
2.4
1.08
0.86
1.13
1.34
1.17
0.6
-0.14
-0.71
-0.9
-0.76
-0.62
-1.0
-2.35
-4.81
-8.02
-11.14
-13.0
-12.44
-8.78
-1.99
7.08
17.05
26.36
33.79
38.75
41.31
41.95
41.14
39.19
36.08
31.73
26.15
19.63
12.63
5.63
-1.07
-7.44
-13.6
-19.7
-25.63
-31.04
-35.25
-37.68
-38.07
-36.74
-34.55
-32.75
-32.53
-34.64
-39.02
-44.77
-50.19
-53.16
-51.77
-44.84
-32.37
-15.65
3.08
21.24
36.59
47.71
54.21
56.43
55.16
51.26
45.53
38.75
31.64
24.85
18.87
13.91
9.83
6.22
2.62
-1.3
-5.57
-9.91
-13.86
-17.06
-19.4
-21.11
-22.63
-24.57
-27.39
-31.28
-35.93
-40.42
-43.24
-42.68
-37.48
-27.33
-13.33
2.34
17.14
28.97
36.83
40.83
41.79
40.59
37.71
33.29
27.42
20.5
13.28
6.79
1.72
-1.75
-4.11
-6.15
-8.56
-11.52
-14.68
-17.35
-18.97
-19.42
-19.16
-18.99
-19.77
-22.07
-25.92
-30.73
-35.28
-37.89
-36.81
-30.82
-19.82
-5.12
10.91
25.59
36.87
43.95
47.24
47.82
46.84
44.96
42.37
39.03
34.95
30.35
25.57
20.91
16.4
11.89
7.14
2.02
-3.41
-8.8
-13.67
-17.57
-20.21
-21.67
-22.31
-22.76
-23.71
-25.79
-29.46
-34.8
-41.37
-47.93
-52.54
-53.05
-47.8
-36.36
-19.87
-0.75
18.07
34.11
45.88
52.94
55.64
54.53
50.25
43.57
35.52
27.47
20.8
16.38
14.2
13.39
12.55
10.36
6.15
0.07
-6.97
-13.76
-19.33
-23.25
-25.76
-27.52
-29.32
-31.82
-35.36
-39.93
-45.08
-49.82
-52.66
-51.95
-46.46
-35.99
-21.63
-5.53
9.91
22.88
32.64
39.41
43.71
45.84
45.68
43.0
37.95
31.28
24.15
17.67
12.39
8.21
4.51
0.7
-3.53
-8.01
-12.26
-15.73
-18.04
-19.09
-19.04
-18.3
-17.47
-17.27
-18.34
-20.93
-24.57
-27.98
-29.28
-26.69
-19.3
-7.57
6.68
21.07
33.49
42.83
48.99
52.51
53.93
53.46
51.04
46.72
40.91
34.4
28.03
22.34
17.27
12.28
6.58
-0.39
-8.68
-17.74
-26.55
-33.99
-39.25
-42.21
-43.41
-43.97
-45.19
-48.16
-53.42
-60.65
-68.64
-75.32
-78.27
-75.31
-65.23
-48.31
-26.33
-2.11
21.35
41.59
57.24
67.93
74.06
76.28
75.28
71.7
66.26
59.83
53.32
47.46
42.51
38.14
33.52
27.87
20.84
12.81
4.77
-2.07
-6.86
-9.56
-10.89
-12.11
-14.51
-18.97
-25.66
-33.98
-42.59
-49.66
-53.23
-51.7
-44.42
-31.97
-16.15
0.55
15.74
27.74
36.01
40.94
43.28
43.71
42.46
39.51
34.87
28.96
22.65
16.98
12.75
10.16
8.72
7.48
5.56
2.59
-1.12
-4.78
-7.52
-8.89
-9.06
-8.79
-9.02
-10.54
-13.73
-18.53
-24.4
-30.33
-34.88
-36.37
-33.29
-24.99
-12.06
3.68
19.62
33.34
43.35
49.39
52.11
52.44
50.89
47.57
42.36
35.45
27.6
19.89
13.29
8.15
4.11
0.35
-3.83
-8.53
-13.11
-16.58
-18.12
-17.71
-16.15
-14.75
-14.7
-16.58
-20.14
-24.59
-29.01
-32.65
-34.89
-35.08
-32.36
-25.98
-15.62
-1.89
13.68
28.95
41.86
51.03
55.94
56.86
54.44
49.39
42.4
34.12
25.25
16.55
8.71
2.1
-3.19
-7.45
-11.16
-14.76
-18.43
-22.07
-25.28
-27.7
-29.18
-30.0
-30.78
-32.27
-35.13
-39.7
-45.79
-52.64
-58.89
-62.8
-62.71
-57.52
-47.26
-33.1
-17.12
-1.62
11.56
21.39
27.67
30.66
30.76
28.35
23.92
18.2
12.18
6.8
2.58
-0.59
-3.29
-6.17
-9.47
-12.88
-15.69
-17.32
-17.68
-17.14
-16.4
-16.06
-16.43
-17.59
-19.59
-22.4
-25.8
-29.07
-30.95
-29.95
-24.98
-16.0
-4.19
8.39
19.66
28.13
33.33
35.64
35.82
34.57
32.24
28.89
24.44
18.89
12.36
5.14
-2.35
-9.74
-16.69
-22.94
-28.25
-32.34
-34.89
-35.68
-34.75
-32.58
-30.24
-29.0
-29.95
-33.5
-38.97
-44.62
-48.05
-46.89
-39.61
-26.12
-7.81
12.79
32.86
50.08
63.14
71.78
76.4
77.61
75.95
71.95
66.26
59.8
53.55
48.26
44.07
40.47
36.53
31.39
24.72
17.07
9.58
3.58
-0.14
-1.74
-2.3
-3.42
-6.58
-12.63
-21.48
-32.24
-43.27
-52.48
-57.7
-57.14
-50.03
-37.15
-20.76
-3.96
10.3
20.22
25.47
26.88
25.61
22.51
17.9
11.87
4.62
-3.28
-11.1
-18.23
-24.46
-29.9
-34.78
-39.12
-42.59
-44.65
-44.88
-43.18
-39.86
-35.64
-31.41
-28.13
-26.66
-27.61
-31.12
-36.58
-42.55
-46.77
-46.79
-40.68
-27.94
-9.84
10.9
30.91
47.38
58.76
64.99
67.01
66.09
63.2
58.96
53.85
48.44
43.56
40.0
38.14
37.73
37.8
37.13
34.63
29.72
22.44
13.38
3.41
-6.53
-15.68
-23.53
-29.93
-35.12
-39.78
-44.8
-50.91
-58.36
-66.41
-73.29
-76.64
-74.25
-64.92
-49.06
-28.57
-6.13
15.67
35.17
51.67
65.09
75.43
82.31
85.21
83.82
78.51
70.42
61.26
52.71
45.93
41.28
38.28
35.93
33.11
29.03
23.46
16.73
9.55
2.59
-3.7
-9.39
-14.88
-20.72
-27.44
-35.3
-44.19
-53.37
-61.48
-66.6
-66.83
-60.85
-48.67
-31.78
-12.75
5.61
21.11
32.62
40.01
43.77
44.57
42.95
39.47
34.74
29.46
24.3
19.67
15.53
11.52
7.16
2.21
-3.21
-8.58
-13.17
-16.39
-18.06
-18.47
-18.4
-18.78
-20.48
-23.99
-29.27
-35.62
-41.68
-45.56
-45.23
-39.16
-26.97
-9.8
9.86
28.9
44.48
54.95
59.97
60.39
57.51
52.55
46.41
39.63
32.64
25.84
19.56
14.02
9.12
4.44
-0.55
-6.35
-13.1
-20.46
-27.7
-33.91
-38.37
-40.96
-42.15
-42.98
-44.7
-48.35
-54.33
-62.12
-70.16
-76.06
-77.31
-72.06
-59.85
-41.9
-20.73
0.76
20.11
35.96
47.94
56.22
61.06
62.56
60.82
56.3
49.95
43.09
36.97
32.34
29.14
26.72
24.14
20.7
16.26
11.13
5.87
0.83
-4.05
-9.23
-15.31
-22.78
-31.74
-41.72
-51.55
-59.43
-63.2
-60.92
-51.65
-35.94
-15.92
5.28
24.49
39.45
49.14
53.67
53.75
50.17
43.59
34.68
24.45
14.21
5.34
-1.28
-5.61
-8.51
-11.3
-15.14
-20.37
-26.42
-32.02
-35.91
-37.39
-36.61
-34.48
-32.3
-31.33
-32.47
-35.87
-40.73
-45.23
-46.92
-43.45
-33.52
-17.54
2.48
23.63
43.18
59.45
71.97
81.04
86.94
89.48
87.97
81.87
71.33
57.52
42.35
27.9
15.68
6.29
-0.58
-5.67
-9.67
-12.8
-14.93
-15.86
-15.78
-15.42
-16.03
-18.95
-25.14
-34.76
-47.06
-60.43
-72.65
-81.22
-83.95
-79.5
-67.93
-50.81
-30.89
-11.31
5.33
17.68
25.82
30.82
34.01
36.29
37.95
38.74
38.37
36.77
34.21
31.1
27.72
24.04
19.85
15.07
9.9
4.97
1.07
-1.2
-1.76
-1.27
-0.98
-2.32
-6.45
-13.83
-23.92
-35.18
-45.32
-51.86
-52.82
-47.28
-35.7
-19.74
-1.76
15.96
31.69
44.48
53.93
59.9
62.2
60.67
55.44
47.14
36.93
26.15
15.85
6.52
-1.99
-10.08
-18.06
-25.78
-32.72
-38.23
-41.94
-43.98
-45.06
-46.24
-48.59
-52.85
-59.07
-66.38
-72.96
-76.26
-73.65
-63.29
-44.96
-20.32
7.38
34.33
57.19
74.03
84.53
89.59
90.73
89.4
86.72
83.39
79.83
76.21
72.46
68.26
63.11
56.51
48.22
38.41
27.68
16.94
7.19
-0.89
-7.03
-11.58
-15.41
-19.69
-25.57
-33.65
-43.6
-54.02
-62.7
-67.28
-66.13
-59.03
-47.26
-33.16
-19.26
-7.45
1.6
8.12
12.82
16.14
17.96
17.75
15.01
9.84
3.03
-4.08
-10.2
-14.5
-16.83
-17.62
-17.41
-16.53
-14.97
-12.55
-9.3
-5.73
-2.8
-1.64
-3.04
-7.13
-13.2
-19.88
-25.32
-27.7
-25.68
-18.7
-7.25
7.16
22.42
36.26
46.94
53.57
56.28
55.92
53.59
50.16
46.12
41.52
36.27
30.3
23.64
16.37
8.5
-0.04
-9.37
-19.42
-29.73
-39.43
-47.46
-52.9
-55.37
-55.25
-53.6
-51.95
-51.78
-54.04
-58.7
-64.51
-69.1
-69.6
-63.54
-49.82
-29.29
-4.59
20.63
42.87
59.8
70.63
75.92
76.89
74.74
70.43
64.67
58.2
51.78
46.01
41.07
36.52
31.43
24.97
16.84
7.64
-1.32
-8.61
-13.36
-15.7
-16.67
-17.86
-20.69
-25.86
-32.98
-40.59
-46.5
-48.38
-44.54
-34.61
-19.74
-2.38
14.59
28.76
38.81
44.63
46.85
46.17
42.99
37.51
29.99
21.08
11.82
3.29
-3.88
-9.55
-14.09
-17.95
-21.39
-24.37
-26.69
-28.24
-29.07
-29.46
-29.81
-30.61
-32.47
-35.95
-41.29
-47.99
-54.59
-58.81
-58.14
-50.86
-36.79
-17.53
3.98
24.48
41.46
53.74
61.41
65.33
66.4
65.21
62.0
57.03
50.73
43.82
37.05
30.91
25.51
20.61
15.88
11.2
6.7
2.64
-0.87
-4.09
-7.69
-12.54
-19.49
-28.94
-40.54
-52.93
-63.89
-70.83
-71.58
-65.19
-52.34
-35.21
-16.8
-0.02
13.08
21.68
25.99
26.93
25.58
22.89
19.58
16.06
12.64
9.46
6.57
3.98
1.61
-0.59
-2.7
-4.65
-6.34
-7.57
-8.32
-8.69
-9.16
-10.35
-12.95
-17.41
-23.54
-30.37
-36.1
-38.66
-36.21
-28.01
-14.74
1.62
18.43
33.23
44.43
51.62
55.22
56.0
54.62
51.4
46.5
40.14
32.75
24.92
17.22
9.89
2.89
-4.07
-11.16
-18.25
-24.91
-30.55
-34.81
-37.67
-39.47
-40.81
-42.32
-44.69
-48.42
-53.62
-59.63
-64.79
-66.73
-63.05
-52.46
-35.43
-14.21
7.98
28.11
44.24
55.8
63.14
66.84
67.28
64.73
59.6
52.76
45.47
38.99
34.08
30.64
27.93
24.87
20.68
15.3
9.35
3.82
-0.44
-3.15
-4.86
-6.66
-9.83
-15.3
-23.4
-33.45
-43.71
-51.74
-54.86
-51.12
-40.01
-22.88
-2.61
17.24
33.62
44.84
50.63
51.82
49.53
44.63
37.63
28.9
18.96
8.66
-0.98
-9.12
-15.35
-19.82
-23.11
-25.96
-28.81
-31.73
-34.37
-36.25
-37.1
-37.09
-36.95
-37.64
-39.95
-43.87
-48.32
-51.21
-50.04
-42.89
-29.21
-10.2
11.47
32.57
50.26
62.92
70.22
72.82
71.77
68.04
62.29
54.96
46.54
37.63
28.82
20.53
12.86
5.66
-1.35
-8.25
-14.84
-20.59
-24.92
-27.54
-28.68
-29.11
-29.95
-32.23
-36.54
-42.68
-49.56
-55.35
-57.95
-55.58
-47.5
-34.37
-18.08
-1.15
14.08
26.17
34.71
40.01
42.61
42.82
40.74
36.49
30.55
23.9
17.73
13.0
10.02
8.32
6.93
4.89
1.78
-2.1
-5.79
-8.27
-8.91
-7.93
-6.3
-5.39
-6.45
-10.14
-16.26
-23.79
-31.04
-36.07
-37.0
-32.65
-22.83
-8.59
8.01
24.44
38.37
48.31
53.8
55.29
53.68
49.94
44.79
38.69
31.92
24.7
17.23
9.62
1.88
-6.02
-14.14
-22.28
-30.04
-36.79
-41.95
-45.2
-46.75
-47.32
-47.99
-49.91
-53.88
-59.98
-67.17
-73.34
-75.67
-71.49
-59.35
-39.72
-15.14
10.65
33.84
51.87
63.91
70.65
73.47
73.65
71.92
68.54
63.72
57.95
51.96
46.38
41.46
36.91
32.06
26.33
19.54
12.05
4.61
-2.03
-7.46
-11.83
-15.75
-20.15
-25.94
-33.59
-42.81
-52.32
-59.91
-62.97
-59.4
-48.54
-31.61
-11.56
7.98
23.89
34.45
39.54
40.19
37.69
33.09
26.99
19.83
12.16
4.81
-1.46
-6.26
-9.85
-13.03
-16.61
-20.99
-25.91
-30.55
-34.04
-35.9
-36.29
-35.95
-35.85
-36.84
-39.35
-43.19
-47.38
-50.29
-49.87
-44.21
-32.25
-14.39
7.36
30.03
50.61
66.96
78.17
84.38
86.13
83.85
77.79
68.29
56.18
42.93
30.36
20.05
12.84
8.6
6.47
5.36
4.41
3.29
2.15
1.26
0.65
-0.11
-1.89
-5.75
-12.47
-22.19
-34.21
-47.0
-58.43
-66.12
-68.06
-63.18
-51.78
-35.55
-17.21
0.26
14.41
23.85
28.49
29.2
27.25
23.89
20.09
16.57
13.82
12.16
11.63
11.85
12.1
11.49
9.36
5.64
0.86
-3.93
-7.59
-9.46
-9.58
-8.73
-8.15
-9.06
-12.2
-17.46
-23.78
-29.36
-32.13
-30.38
-23.31
-11.44
3.49
19.1
32.98
43.56
50.26
53.38
53.59
51.47
47.37
41.48
34.18
26.13
18.08
10.55
3.53
-3.4
-10.8
-18.84
-27.08
-34.64
-40.58
-44.45
-46.5
-47.56
-48.65
-50.57
-53.74
-58.12
-63.22
-68.02
-70.98
-70.2
-63.93
-51.2
-32.41
-9.42
14.88
37.44
55.88
69.01
76.66
79.31
77.6
72.25
64.21
54.77
45.48
37.81
32.56
29.54
27.74
25.75
22.46
17.53
11.36
4.8
-1.37
-6.76
-11.56
-16.2
-21.18
-26.73
-32.58
-37.87
-41.19
-40.92
-35.74
-25.36
-10.67
6.18
22.46
35.68
44.25
47.78
46.81
42.45
35.89
28.29
20.69
13.92
8.58
4.72
1.89
-0.67
-3.63
-7.23
-11.16
-14.75
-17.33
-18.49
-18.32
-17.24
-15.95
-15.16
-15.49
-17.38
-20.96
-25.82
-30.96
-34.88
-35.83
-32.39
-24.06
-11.49
3.61
19.05
32.76
43.33
50.04
52.79
51.81
47.5
40.53
31.89
22.83
14.59
7.94
2.92
-1.11
-5.03
-9.45
-14.25
-18.71
-21.98
-23.6
-23.83
-23.64
-24.23
-26.6
-31.17
-37.69
-45.35
-52.83
-58.55
-60.82
-58.27
-50.33
-37.54
-21.57
-4.83
10.22
21.69
28.65
31.05
29.55
25.23
19.26
12.78
6.8
2.07
-1.02
-2.45
-2.51
-1.65
-0.32
1.09
2.37
3.44
4.23
4.69
4.62
3.84
2.11
-0.64
-4.17
-7.9
-10.9
-12.14
-10.7
-6.18
1.21
10.56
20.58
29.97
37.78
43.55
47.15
48.59
47.88
45.03
40.19
33.85
26.75
19.69
13.19
7.31
1.76
-3.9
-9.91
-16.07
-21.84
-26.58
-29.84
-31.56
-32.05
-31.87
-31.7
-32.22
-34.06
-37.56
-42.48
-47.68
-51.15
-50.55
-44.13
-31.6
-14.48
4.42
22.01
36.02
45.52
50.72
52.41
51.25
47.64
41.94
34.77
27.2
20.41
15.25
11.93
9.9
8.19
5.92
2.62
-1.61
-6.34
-11.07
-15.54
-19.91
-24.64
-30.22
-36.77
-43.67
-49.55
-52.53
-50.89
-43.7
-31.39
-15.61
1.2
16.59
28.79
36.99
41.18
41.72
39.03
33.51
25.75
16.74
7.77
0.06
-5.65
-9.4
-11.77
-13.57
-15.35
-17.14
-18.68
-19.68
-20.14
-20.4
-21.03
-22.48
-24.99
-28.37
-31.92
-34.48
-34.6
-30.87
-22.47
-9.63
6.28
23.05
38.33
50.32
58.24
62.3
63.23
61.8
58.52
53.68
47.56
40.66
33.67
27.22
21.65
16.75
11.95
6.63
0.57
-5.82
-11.77
-16.5
-19.79
-22.12
-24.47
-27.93
-33.19
-40.26
-48.47
-56.58
-62.92
-65.65
-63.17
-54.66
-40.48
-22.39
-3.18
14.15
27.31
35.26
38.31
37.55
34.28
29.45
23.59
17.02
10.09
3.33
-2.73
-7.69
-11.52
-14.35
-16.34
-17.52
-17.72
-16.77
-14.87
-12.67
-11.17
-11.44
-14.15
-19.26
-25.85
-32.28
-36.53
-36.74
-31.84
-21.95
-8.48
6.29
19.91
30.48
37.21
40.29
40.59
39.07
36.53
33.42
29.97
26.31
22.53
18.69
14.69
10.31
5.29
-0.55
-7.18
-14.35
-21.6
-28.37
-34.13
-38.64
-42.0
-44.77
-47.74
-51.58
-56.41
-61.32
-64.54
-63.91
-57.64
-45.13
-27.22
-6.01
15.88
36.07
52.89
65.55
73.87
78.08
78.61
76.07
71.19
64.79
57.62
50.26
43.02
35.97
29.1
22.39
15.87
9.7
4.04
-0.95
-5.27
-9.1
-12.87
-17.14
-22.6
-29.66
-38.12
-46.83
-53.75
-56.43
-52.84
-42.29
-25.92
-6.52
12.43
27.86
38.08
42.93
43.42
40.99
36.92
32.11
27.08
22.17
17.6
13.4
9.27
4.71
-0.85
-7.6
-15.21
-22.86
-29.47
-34.21
-36.77
-37.48
-37.14
-36.82
-37.48
-39.65
-43.19
-47.07
-49.53
-48.53
-42.35
-30.34
-13.3
6.72
27.01
45.07
59.23
68.78
73.89
75.09
73.04
68.39
61.79
53.95
45.49
36.95
28.61
20.57
12.89
5.71
-0.7
-5.97
-9.84
-12.32
-13.81
-15.07
-17.12
-21.0
-27.58
-37.14
-49.1
-61.79
-72.58
-78.46
-76.96
-67.08
-49.86
-28.16
-5.8
13.7
28.1
36.83
40.76
41.4
40.27
38.39
36.22
33.97
31.79
29.85
28.26
26.93
25.48
23.4
20.22
15.86
10.8
5.88
1.99
-0.44
-1.62
-2.43
-3.98
-7.27
-12.71
-19.93
-27.85
-34.84
-39.14
-39.32
-34.74
-25.65
-13.22
0.89
15.02
27.89
38.89
47.77
54.38
58.37
59.22
56.53
50.34
41.27
30.3
18.46
6.41
-5.58
-17.33
-28.35
-37.76
-44.4
-47.36
-46.57
-43.04
-38.64
-35.56
-35.68
-39.92
-47.96
-58.12
-67.68
-73.55
-73.04
-64.83
-49.26
-28.25
-4.59
18.87
39.82
56.73
68.71
75.37
76.74
73.43
66.64
58.01
49.24
41.6
35.56
30.85
26.68
22.13
16.51
9.54
1.47
-7.1
-15.4
-22.74
-28.83
-33.84
-38.3
-42.76
-47.34
-51.41
-53.7
-52.68
-47.28
-37.35
-23.85
-8.57
6.41
19.3
28.99
35.14
38.09
38.51
37.15
34.63
31.29
27.28
22.58
17.16
11.12
4.78
-1.39
-6.94
-11.43
-14.63
-16.51
-17.2
-16.99
-16.37
-16.01
-16.75
-19.39
-24.25
-30.83
-37.57
-42.03
-41.64
-34.62
-20.78
-1.78
19.36
39.18
54.79
64.59
68.34
66.9
61.64
54.03
45.35
36.69
28.82
22.27
17.19
13.38
10.25
7.13
3.5
-0.81
-5.55
-10.27
-14.56
-18.35
-22.07
-26.46
-32.32
-40.0
-49.18
-58.59
-66.41
-70.61
-69.59
-62.76
-50.63
-34.8
-17.34
-0.33
14.74
27.04
36.48
43.3
47.74
49.87
49.6
46.9
42.04
35.76
29.03
22.8
17.58
13.33
9.61
5.93
2.08
-1.78
-5.34
-8.4
-11.15
-14.18
-18.32
-24.29
-32.29
-41.71
-50.99
-57.74
-59.44
-54.17
-41.51
-22.89
-1.25
19.78
37.01
48.58
54.08
54.32
50.63
44.36
36.61
28.23
19.87
12.09
5.25
-0.57
-5.58
-10.11
-14.4
-18.45
-22.01
-24.78
-26.67
-27.95
-29.22
-31.27
-34.68
-39.46
-44.76
-48.82
-49.51
-44.95
-34.31
-18.34
0.75
19.92
36.23
47.75
53.87
55.14
52.79
48.08
42.01
35.25
28.27
21.42
14.96
9.05
3.7
-1.1
-5.46
-9.46
-13.14
-16.47
-19.4
-22.0
-24.54
-27.51
-31.67
-37.68
-45.65
-54.73
-62.95
-67.67
-66.4
-57.85
-42.51
-22.57
-1.28
18.28
33.98
45.11
52.08
55.78
57.04
56.32
53.84
49.78
44.49
38.43
32.04
25.63
19.42
13.57
8.25
3.65
-0.07
-2.96
-5.31
-7.64
-10.64
-14.99
-21.23
-29.51
-39.27
-49.01
-56.28
-58.31
-52.88
-39.3
-19.02
4.72
27.77
46.49
58.78
64.39
64.48
60.79
54.81
47.38
38.92
29.73
20.24
11.1
2.96
-3.73
-8.82
-12.51
-15.13
-17.01
-18.41
-19.55
-20.65
-22.0
-23.99
-27.08
-31.47
-36.78
-41.74
-44.32
-42.26
-33.94
-19.35
-0.3
19.95
37.79
50.51
57.07
58.11
55.16
49.92
43.59
36.69
29.46
22.12
15.01
8.51
2.88
-1.88
-5.87
-9.24
-12.01
-14.2
-16.0
-17.82
-20.31
-24.24
-30.23
-38.44
-48.32
-58.39
-66.41
-69.81
-66.48
-55.63
-38.25
-16.97
4.77
23.81
38.23
47.64
52.72
54.57
54.1
51.76
47.76
42.36
35.99
29.22
22.57
16.31
10.49
5.11
0.2
-4.11
-7.74
-10.77
-13.55
-16.59
-20.47
-25.64
-32.26
-40.0
-47.83
-54.02
-56.38
-52.88
-42.48
-25.71
-4.72
17.25
36.89
51.8
60.99
64.77
64.13
60.22
53.84
45.59
35.91
25.35
14.58
4.32
-4.87
-12.5
-18.43
-22.73
-25.58
-27.2
-27.79
-27.57
-26.84
-26.21
-26.48
-28.46
-32.43
-37.71
-42.47
-44.18
-40.41
-29.98
-13.48
6.69
27.15
44.58
56.79
63.04
63.86
60.51
54.33
46.45
37.69
28.69
19.99
11.96
4.75
-1.7
-7.53
-12.81
-17.38
-20.92
-23.12
-23.95
-23.78
-23.41
-23.94
-26.39
-31.46
-39.04
-48.03
-56.47
-61.84
-61.8
-54.93
-41.35
-22.68
-1.73
18.45
35.36
47.56
54.79
57.59
56.9
53.56
48.27
41.57
33.97
25.99
18.19
11.05
4.99
0.25
-3.08
-5.2
-6.5
-7.62
-9.27
-12.11
-16.63
-23.08
-31.36
-40.87
-50.32
-57.84
-61.18
-58.29
-48.2
-31.49
-10.4
11.75
31.49
46.29
55.1
58.32
57.23
53.28
47.57
40.78
33.39
25.88
18.83
12.64
7.44
2.87
-1.67
-6.58
-11.8
-16.7
-20.43
-22.35
-22.45
-21.5
-20.85
-21.9
-25.53
-31.64
-38.87
-44.86
-46.92
-42.89
-32.04
-15.37
4.57
24.54
41.56
53.81
60.79
63.07
61.71
57.69
51.7
44.26
35.91
27.29
19.07
11.7
5.26
-0.39
-5.52
-10.23
-14.37
-17.82
-20.51
-22.67
-24.76
-27.47
-31.47
-37.37
-45.45
-55.36
-65.72
-74.18
-77.9
-74.45
-62.96
-44.6
-22.34
0.09
19.52
34.24
44.13
50.08
53.17
54.07
53.07
50.31
46.06
40.81
35.12
29.32
23.52
17.72
12.05
6.86
2.5
-0.79
-3.18
-5.21
-7.67
-11.35
-16.86
-24.46
-33.87
-44.0
-52.97
-58.25
-57.46
-49.16
-33.71
-13.27
8.63
28.35
43.22
52.13
55.43
54.3
50.05
43.67
35.85
27.15
18.24
9.82
2.47
-3.56
-8.42
-12.42
-15.85
-18.79
-21.08
-22.52
-23.18
-23.41
-23.92
-25.49
-28.76
-33.8
-39.88
-45.41
-48.19
-46.08
-37.69
-23.08
-3.9
17.05
36.69
52.62
63.62
69.74
71.67
70.32
66.45
60.66
53.55
45.87
38.39
31.65
25.76
20.43
15.14
9.5
3.44
-2.78
-8.82
-14.44
-19.68
-24.85
-30.48
-37.08
-44.91
-53.84
-63.04
-70.99
-75.69
-75.2
-68.35
-55.34
-37.8
-18.31
0.48
16.71
29.68
39.57
46.9
51.91
54.5
54.35
51.53
46.56
40.35
33.77
27.33
21.05
14.77
8.44
2.3
-3.16
-7.6
-11.05
-14.09
-17.61
-22.57
-29.56
-38.61
-49.07
-59.48
-67.69
-71.27
-68.14
-57.44
-40.03
-18.43
3.9
23.56
38.23
47.02
50.29
49.18
44.94
38.74
31.45
23.86
16.52
9.84
4.0
-1.04
-5.38
-9.1
-12.23
-14.78
-16.79
-18.36
-19.68
-21.08
-23.05
-26.14
-30.75
-36.82
-43.53
-49.22
-51.69
-48.87
-39.62
-24.25
-4.62
16.4
35.77
51.07
61.09
65.84
66.2
63.35
58.38
52.12
45.13
37.84
30.57
23.52
16.83
10.52
4.62
-0.76
-5.49
-9.38
-12.36
-14.6
-16.56
-18.96
-22.59
-28.09
-35.66
-44.77
-53.98
-61.06
-63.49
-59.35
-48.16
-31.33
-11.73
7.28
23.05
34.35
41.51
45.72
48.17
49.46
49.55
48.2
45.31
41.21
36.48
31.62
26.81
21.88
16.55
10.63
4.35
-1.67
-6.71
-10.2
-12.13
-13.19
-14.67
-18.0
-24.22
-33.44
-44.49
-54.96
-61.85
-62.41
-55.17
-40.57
-20.8
0.83
21.05
37.49
49.06
55.73
57.91
56.08
50.66
42.18
31.53
20.0
8.94
-0.63
-8.2
-13.86
-17.98
-20.98
-23.21
-24.89
-26.11
-26.95
-27.5
-27.99
-28.84
-30.56
-33.52
-37.51
-41.52
-43.83
-42.39
-35.68
-23.28
-6.31
12.94
31.69
47.56
59.12
66.05
68.87
68.32
65.07
59.54
52.1
43.26
33.7
24.17
15.18
6.92
-0.64
-7.51
-13.46
-18.07
-21.02
-22.48
-23.25
-24.51
-27.48
-32.87
-40.62
-49.68
-58.25
-64.09
-65.03
-59.64
-47.78
-30.79
-11.23
7.92
24.14
36.13
43.85
48.15
50.01
50.09
48.67
45.79
41.55
36.37
30.78
25.24
19.95
14.92
10.18
5.91
2.45
0.09
-1.26
-2.12
-3.38
-5.9
-10.26
-16.64
-24.83
-34.27
-43.9
-52.13
-56.83
-55.89
-47.92
-33.06
-13.35
7.8
26.61
40.27
47.66
49.39
47.05
42.36
36.47
29.81
22.51
14.74
7.0
-0.02
-5.78
-10.2
-13.76
-17.16
-20.97
-25.26
-29.56
-33.11
-35.44
-36.7
-37.72
-39.55
-42.76
-46.85
-50.09
-50.07
-44.64
-32.93
-15.81
4.32
24.38
41.57
54.22
61.85
64.93
64.3
60.77
54.98
47.56
39.19
30.5
21.99
13.94
6.38
-0.64
-6.93
-12.21
-16.22
-18.99
-20.94
-22.78
-25.3
-29.14
-34.63
-41.81
-50.33
-59.27
-67.03
-71.4
-70.16
-61.92
-46.83
-26.77
-4.86
15.62
32.21
43.87
50.88
54.28
55.21
54.49
52.59
49.78
46.24
42.12
37.42
32.02
25.88
19.1
12.09
5.43
-0.36
-5.08
-8.93
-12.44
-16.38
-21.46
-28.09
-36.12
-44.65
-52.0
-56.04
-54.74
-46.96
-32.96
-14.51
5.64
24.48
39.61
49.67
54.39
54.31
50.41
43.79
35.57
26.7
18.01
10.01
2.93
-3.31
-8.97
-14.35
-19.63
-24.71
-29.2
-32.51
-34.1
-33.81
-32.08
-30.08
-29.25
-30.77
-34.75
-39.88
-43.57
-42.84
-35.53
-21.28
-1.86
19.37
38.69
53.26
61.86
64.85
63.5
59.06
52.35
43.7
33.33
21.76
9.94
-1.07
-10.48
-17.99
-23.81
-28.25
-31.45
-33.33
-33.71
-32.66
-30.66
-28.71
-28.04
-29.73
-34.3
-41.19
-48.73
-54.39
-55.49
-50.2
-38.25
-21.14
-1.66
17.1
32.7
43.98
51.0
54.58
55.59
54.64
52.06
48.06
42.92
37.01
30.76
24.5
18.49
12.92
8.06
4.18
1.52
0.07
-0.61
-1.4
-3.53
-8.19
-16.04
-26.7
-38.56
-49.05
-55.31
-55.04
-47.37
-33.09
-14.43
5.64
24.27
39.41
50.05
56.24
58.64
58.1
55.35
50.84
44.74
37.16
28.32
18.7
9.07
0.27
-6.97
-12.21
-15.47
-17.14
-17.99
-18.87
-20.61
-23.79
-28.65
-34.94
-41.91
-48.24
-52.18
-51.87
-45.85
-33.63
-16.12
4.58
25.59
44.23
58.64
68.2
73.35
75.05
74.29
71.69
67.57
61.99
55.05
46.93
37.93
28.46
18.99
9.97
1.77
-5.29
-11.01
-15.36
-18.54
-20.98
-23.34
-26.45
-30.95
-37.03
-44.04
-50.45
-54.16
-53.14
-46.25
-33.74
-17.31
0.4
16.6
29.18
37.11
40.44
39.88
36.37
30.77
23.76
15.87
7.6
-0.63
-8.39
-15.28
-20.92
-24.96
-27.12
-27.39
-26.03
-23.67
-21.23
-19.75
-20.18
-23.16
-28.66
-35.83
-42.94
-47.65
-47.63
-41.39
-28.95
-12.02
6.49
23.42
36.4
44.43
48.0
48.49
47.44
45.89
44.14
41.75
38.01
32.27
24.34
14.69
4.24
-5.8
-14.37
-20.8
-24.96
-27.22
-28.28
-29.12
-30.76
-34.18
-39.85
-47.4
-55.33
-61.1
-61.81
-55.31
-41.02
-20.51
3.02
25.63
44.03
56.34
62.49
63.71
61.78
58.25
54.02
49.27
43.77
37.27
29.64
21.1
12.09
3.14
-5.21
-12.54
-18.46
-22.8
-25.55
-27.05
-27.99
-29.32
-31.89
-35.97
-40.92
-45.12
-46.45
-43.13
-34.53
-21.53
-6.3
8.51
20.71
29.16
33.87
35.58
35.19
33.31
30.24
26.16
21.27
15.84
10.2
4.58
-0.89
-6.03
-10.47
-13.72
-15.33
-15.25
-13.98
-12.55
-12.19
-13.91
-18.05
-24.17
-31.05
-36.94
-40.0
-38.75
-32.53
-21.72
-7.73
7.39
21.53
33.06
41.17
45.79
47.45
46.94
45.03
42.39
39.32
35.81
31.49
25.9
18.8
10.36
1.27
-7.56
-15.27
-21.34
-25.67
-28.5
-30.32
-31.77
-33.67
-36.84
-41.73
-48.03
-54.29
-58.13
-56.9
-48.79
-33.63
-13.23
9.19
30.1
46.7
57.63
63.0
63.82
61.48
57.19
51.81
45.89
39.85
33.83
27.83
21.62
14.91
7.51
-0.47
-8.59
-16.27
-23.0
-28.6
-33.3
-37.68
-42.3
-47.38
-52.39
-56.07
-56.61
-52.4
-42.64
-27.86
-9.92
8.51
24.74
36.84
44.04
46.73
46.02
43.27
39.66
35.95
32.38
28.79
24.8
19.96
14.03
7.16
-0.12
-7.11
-13.05
-17.44
-20.16
-21.43
-21.76
-21.91
-22.77
-25.25
-29.97
-36.73
-44.25
-50.16
-51.66
-46.56
-34.28
-16.3
4.21
23.51
38.59
47.99
51.93
51.71
48.87
44.66
39.79
34.6
29.37
24.36
19.75
15.51
11.37
6.91
1.84
-3.81
-9.75
-15.46
-20.55
-24.96
-28.93
-33.03
-37.84
-43.7
-50.48
-57.31
-62.66
-64.54
-61.12
-51.4
-35.75
-16.09
4.66
23.5
38.27
48.22
53.77
55.97
55.8
53.8
50.12
44.76
37.91
30.04
21.74
13.56
5.87
-1.1
-7.25
-12.55
-17.03
-20.88
-24.49
-28.39
-33.2
-39.5
-47.46
-56.47
-64.93
-70.48
-70.49
-63.23
-48.62
-28.59
-6.52
13.84
29.61
39.54
43.96
44.23
41.89
38.15
33.69
28.84
23.75
18.51
13.23
7.94
2.66
-2.55
-7.52
-11.99
-15.64
-18.26
-19.79
-20.43
-20.69
-21.34
-23.23
-26.85
-31.87
-36.93
-39.78
-38.03
-30.01
-15.56
3.85
25.54
46.47
64.12
76.97
84.51
86.95
84.88
79.03
70.25
59.61
48.26
37.39
27.84
20.01
13.75
8.59
3.92
-0.59
-4.93
-8.76
-11.63
-13.29
-14.06
-14.76
-16.6
-20.71
-27.65
-37.0
-47.21
-55.81
-60.11
-58.01
-48.7
-33.04
-13.28
7.57
26.58
41.53
51.35
56.08
56.6
54.2
50.13
45.37
40.41
35.42
30.33
25.13
19.98
15.27
11.43
8.79
7.4
6.92
6.74
5.99
3.82
-0.47
-7.32
-16.73
-28.04
-39.76
-49.67
-55.13
-53.83
-44.64
-28.18
-6.85
15.83
36.25
51.77
61.24
64.97
64.05
59.75
53.07
44.65
35.1
25.08
15.5
7.15
0.45
-4.68
-8.84
-12.76
-16.91
-21.25
-25.3
-28.4
-30.21
-30.95
-31.42
-32.78
-36.04
-41.52
-48.48
-55.16
-59.16
-58.26
-51.17
-38.07
-20.6
-1.3
17.07
32.24
42.79
48.22
48.84
45.49
39.35
31.64
23.54
15.99
9.57
4.49
0.54
-2.66
-5.56
-8.46
-11.51
-14.71
-18.06
-21.66
-25.72
-30.42
-35.76
-41.47
-47.03
-51.73
-54.75
-55.12
-51.88
-44.38
-32.55
-17.27
-0.29
16.15
29.95
39.68
44.83
45.72
43.17
38.22
31.87
24.96
18.15
11.82
6.12
0.98
-3.72
-7.97
-11.63
-14.41
-16.1
-16.62
-16.18
-15.31
-14.8
-15.48
-18.04
-22.63
-28.64
-34.69
-38.86
-39.2
-34.37
-24.14
-9.53
7.33
23.81
37.52
46.77
50.89
50.12
45.32
37.54
27.95
17.7
7.88
-0.49
-6.8
-10.94
-13.35
-14.85
-16.23
-17.97
-20.1
-22.29
-24.09
-25.3
-25.97
-26.48
-27.34
-28.97
-31.46
-34.35
-36.57
-36.64
-33.05
-24.86
-12.21
3.49
19.88
34.25
44.39
49.18
48.77
44.16
36.77
27.85
18.29
8.76
-0.18
-7.96
-14.09
-18.36
-20.98
-22.44
-23.34
-24.11
-24.95
-25.88
-26.92
-28.33
-30.52
-33.9
-38.52
-43.86
-48.76
-51.62
-50.86
-45.36
-34.94
-20.43
-3.51
13.83
29.74
42.88
52.5
58.4
60.76
60.06
57.01
52.43
47.03
41.25
35.22
28.89
22.21
15.4
8.88
3.14
-1.53
-5.12
-7.88
-10.16
-12.2
-14.23
-16.47
-19.3
-23.05
-27.74
-32.67
-36.38
-37.04
-33.24
-24.63
-12.3
1.64
14.83
25.45
32.78
36.91
38.4
37.64
34.74
29.74
22.98
15.23
7.54
0.73
-4.86
-9.48
-13.67
-17.85
-22.05
-25.89
-28.88
-30.8
-31.85
-32.59
-33.68
-35.53
-38.17
-41.18
-43.78
-44.96
-43.64
-38.85
-30.14
-17.77
-2.92
12.67
27.05
38.72
47.0
52.0
54.38
54.86
53.87
51.52
47.71
42.38
35.59
27.63
18.83
9.62
0.46
-8.01
-14.99
-19.76
-21.9
-21.63
-19.92
-18.25
-18.24
-21.12
-27.35
-36.35
-46.51
-55.44
-60.55
-59.68
-51.86
-37.71
-19.31
0.35
18.38
32.7
42.46
47.81
49.47
48.21
44.72
39.65
33.75
27.93
22.96
19.27
16.76
14.88
12.88
10.2
6.7
2.74
-1.04
-3.99
-5.78
-6.58
-7.08
-8.24
-10.95
-15.64
-22.03
-29.0
-34.76
-37.39
-35.38
-28.23
-16.62
-2.16
13.05
27.15
38.87
47.7
53.57
56.56
56.66
53.89
48.4
40.8
32.0
23.09
14.89
7.82
1.82
-3.47
-8.39
-13.05
-17.28
-20.77
-23.3
-24.94
-26.08
-27.36
-29.44
-32.73
-37.21
-42.23
-46.67
-48.99
-47.67
-41.62
-30.58
-15.44
1.91
19.07
33.77
44.53
50.94
53.44
52.9
50.07
45.43
39.17
31.53
22.95
14.2
6.07
-0.84
-6.29
-10.36
-13.35
-15.52
-17.08
-18.2
-19.17
-20.44
-22.44
-25.48
-29.35
-33.15
-35.44
-34.6
-29.39
-19.52
-5.9
9.61
24.7
37.36
46.39
51.57
53.43
52.85
50.67
47.5
43.8
39.85
35.95
32.29
28.91
25.67
22.33
18.67
14.64
10.4
6.26
2.59
-0.4
-2.8
-4.94
-7.38
-10.61
-14.71
-19.09
-22.58
-23.71
-21.32
-15.21
-6.26
3.79
13.04
20.17
24.83
27.51
29.02
29.9
30.18
29.49
27.55
24.45
20.64
16.7
12.96
9.33
5.45
1.02
-3.89
-8.76
-12.88
-15.67
-17.13
-17.79
-18.51
-20.14
-23.04
-26.9
-30.73
-33.18
-32.94
-29.21
-22.02
-12.3
-1.66
8.11
15.43
19.32
19.54
16.55
11.21
4.56
-2.32
-8.58
-13.71
-17.58
-20.41
-22.62
-24.63
-26.73
-29.01
-31.36
-33.59
-35.48
-36.87
-37.69
-38.08
-38.4
-39.23
-41.03
-43.84
-46.98
-49.0
-48.14
-42.96
-33.05
-19.34
-3.8
11.18
23.57
32.24
37.0
38.31
36.75
32.88
27.16
20.1
12.43
4.99
-1.46
-6.44
-9.94
-12.28
-13.98
-15.61
-17.56
-20.01
-22.89
-25.98
-29.06
-32.0
-34.65
-36.65
-37.13
-34.87
-28.61
-17.83
-3.14
13.62
30.0
43.66
53.21
58.29
59.43
57.51
53.32
47.39
40.14
32.06
23.81
16.13
9.63
4.64
1.05
-1.6
-3.93
-6.5
-9.59
-13.18
-17.0
-20.87
-24.85
-29.21
-34.12
-39.3
-43.8
-46.07
-44.52
-38.11
-26.91
-12.26
3.69
18.59
30.68
39.09
43.81
45.28
44.07
40.71
35.73
29.78
23.63
18.0
13.27
9.48
6.24
3.18
0.1
-2.9
-5.59
-7.84
-9.76
-11.79
-14.47
-18.32
-23.61
-30.14
-37.04
-42.73
-45.17
-42.36
-33.3
-18.45
0.06
19.08
35.43
46.95
53.04
54.39
52.31
48.03
42.28
35.41
27.68
19.56
11.67
4.64
-1.25
-6.1
-10.27
-14.12
-17.76
-21.1
-23.91
-26.18
-28.17
-30.47
-33.67
-37.97
-42.84
-46.91
-48.25
-44.98
-36.02
-21.64
-3.51
15.65
32.92
46.01
53.77
56.28
54.45
49.56
42.76
34.89
26.54
18.12
10.05
2.82
-3.13
-7.52
-10.35
-11.89
-12.61
-13.05
-13.65
-14.77
-16.74
-19.84
-24.27
-29.82
-35.65
-40.2
-41.52
-37.99
-29.03
-15.53
0.33
15.82
28.53
37.13
41.46
42.33
40.91
38.15
34.62
30.48
25.8
20.68
15.46
10.59
6.49
3.39
1.3
-0.03
-0.91
-1.7
-2.69
-4.1
-6.13
-8.89
-12.28
-15.85
-18.64
-19.33
-16.6
-9.61
1.55
15.7
30.83
44.74
55.57
62.31
64.8
63.56
59.42
53.13
45.36
36.65
27.49
18.28
9.4
1.0
-6.77
-13.84
-20.07
-25.27
-29.23
-31.85
-33.24
-33.74
-34.04
-34.99
-37.39
-41.75
-47.74
-54.17
-59.03
-60.08
-55.45
-44.54
-28.27
-8.94
10.41
26.92
38.66
45.06
46.74
45.05
41.38
36.79
31.79
26.45
20.71
14.53
8.13
1.87
-3.84
-8.65
-12.41
-15.25
-17.45
-19.35
-21.24
-23.36
-25.79
-28.51
-31.22
-33.34
-33.89
-31.76
-26.07
-16.67
-4.59
8.23
19.35
26.75
29.48
27.9
23.36
17.6
12.02
7.37
3.77
0.91
-1.49
-3.57
-5.27
-6.54
-7.43
-8.16
-9.03
-10.23
-11.78
-13.57
-15.47
-17.53
-19.85
-22.34
-24.43
-25.12
-23.11
-17.5
-8.27
3.49
15.76
26.35
33.58
36.82
36.44
33.48
29.09
24.2
19.32
14.77
10.75
7.33
4.47
1.88
-0.85
-4.07
-7.91
-12.24
-16.68
-20.88
-24.71
-28.33
-32.03
-36.23
-41.09
-46.46
-51.62
-55.3
-55.91
-52.0
-42.88
-29.01
-12.08
5.51
21.38
33.87
42.41
47.26
49.18
48.88
46.87
43.44
38.85
33.43
27.6
21.71
16.01
10.64
5.66
1.08
-3.04
-6.71
-9.96
-12.94
-15.98
-19.65
-24.55
-30.92
-38.15
-44.6
-47.82
-45.45
-36.2
-20.62
-1.12
18.83
35.9
47.88
54.11
55.23
52.56
47.41
40.88
33.78
26.84
20.66
15.64
11.77
8.62
5.49
1.78
-2.71
-7.61
-12.24
-15.87
-18.13
-19.29
-20.04
-21.33
-23.9
-27.83
-32.33
-35.77
-36.07
-31.48
-21.2
-6.01
11.88
29.47
43.89
53.31
57.2
56.25
51.84
45.51
38.61
32.11
26.53
21.91
17.86
13.76
8.99
3.37
-2.76
-8.61
-13.38
-16.6
-18.46
-19.72
-21.4
-24.44
-29.33
-35.96
-43.51
-50.58
-55.36
-56.14
-51.71
-41.85
-27.61
-11.11
4.9
17.89
26.29
29.88
29.61
27.05
23.71
20.45
17.46
14.42
10.95
6.92
2.58
-1.7
-5.51
-8.66
-11.21
-13.28
-14.99
-16.39
-17.61
-18.98
-21.11
-24.77
-30.42
-37.79
-45.56
-51.52
-53.21
-48.79
-37.81
-21.46
-2.25
16.82
33.07
44.91
51.82
54.13
52.58
48.02
41.23
33.0
24.17
15.45
7.43
0.37
-5.7
-10.87
-15.2
-18.65
-21.19
-22.82
-23.72
-24.23
-24.8
-25.9
-27.91
-30.89
-34.32
-37.04
-37.33
-33.48
-24.42
-10.29
7.48
26.62
44.72
59.95
71.42
79.16
83.67
85.57
85.25
82.86
78.32
71.51
62.49
51.51
39.16
26.18
13.41
1.61
-8.52
-16.48
-21.99
-25.03
-26.07
-25.91
-25.77
-26.88
-30.22
-36.17
-44.13
-52.54
-59.06
-61.25
-57.37
-47.09
-31.69
-13.8
3.55
17.88
27.91
33.64
35.84
35.53
33.38
29.82
25.11
19.72
14.28
9.45
5.6
2.63
0.03
-2.79
-6.2
-10.11
-14.01
-17.26
-19.53
-21.02
-22.44
-24.83
-29.03
-35.27
-42.83
-50.08
-54.78
-54.82
-48.96
-37.3
-21.42
-3.78
13.06
27.08
37.31
43.62
46.36
46.0
42.96
37.68
30.78
23.0
15.11
7.73
1.18
-4.36
-8.86
-12.37
-15.06
-17.2
-19.17
-21.36
-24.04
-27.44
-31.72
-36.88
-42.67
-48.29
-52.32
-52.88
-48.28
-37.74
-21.92
-3.05
15.95
32.26
44.18
51.46
55.0
56.06
55.6
53.81
50.32
44.63
36.7
27.1
16.81
6.9
-1.94
-9.43
-15.57
-20.36
-23.64
-25.22
-25.1
-23.83
-22.55
-22.7
-25.57
-31.69
-40.48
-50.18
-58.27
-62.16
-59.97
-51.21
-36.97
-19.55
-1.69
14.29
27.01
36.16
42.13
45.49
46.71
46.08
43.97
41.0
37.96
35.47
33.72
32.34
30.58
27.87
23.99
19.39
14.83
11.06
8.43
6.79
5.54
3.85
0.94
-3.73
-10.15
-17.66
-24.93
-30.18
-31.72
-28.56
-20.68
-9.17
4.21
17.45
28.9
37.48
42.66
44.36
42.81
38.4
31.73
23.48
14.41
5.22
-3.55
-11.52
-18.49
-24.4
-29.23
-33.01
-35.69
-37.31
-38.01
-38.15
-38.29
-39.13
-41.25
-44.8
-49.2
-53.03
-54.24
-50.72
-41.07
-25.29
-4.98
17.05
37.58
54.0
64.98
70.54
71.69
69.71
65.64
60.09
53.34
45.55
36.96
27.92
18.87
10.16
2.16
-4.91
-10.88
-15.61
-19.12
-21.53
-23.13
-24.46
-26.32
-29.54
-34.61
-41.23
-47.99
-52.59
-52.58
-46.35
-33.92
-17.1
1.17
17.89
31.06
40.07
45.43
48.06
48.68
47.55
44.76
40.5
35.24
29.56
23.85
18.14
12.24
6.01
-0.31
-6.09
-10.59
-13.39
-14.59
-14.88
-15.27
-16.73
-19.89
-24.9
-31.24
-37.72
-42.67
-44.16
-40.77
-32.1
-19.23
-4.4
9.65
20.7
27.8
31.32
32.54
32.88
33.23
33.74
34.04
33.53
31.81
28.73
24.33
18.74
12.07
4.53
-3.48
-11.27
-17.97
-22.74
-25.19
-25.66
-25.19
-25.28
-27.18
-31.33
-36.9
-41.86
-43.69
-40.21
-30.52
-15.32
3.15
21.97
38.34
50.35
57.32
59.76
58.89
56.13
52.61
48.94
45.18
41.03
36.12
30.22
23.32
15.74
7.88
0.27
-6.59
-12.23
-16.38
-19.01
-20.54
-21.73
-23.61
-27.21
-33.14
-41.21
-50.14
-57.66
-61.11
-58.36
-48.74
-33.47
-15.38
2.13
16.27
25.73
30.8
32.73
32.8
31.78
29.75
26.47
21.88
16.36
10.59
5.39
1.23
-1.79
-3.92
-5.48
-6.7
-7.58
-8.04
-8.13
-8.18
-8.82
-10.77
-14.43
-19.55
-25.01
-29.09
-30.08
-26.91
-19.58
-9.19
2.44
13.43
22.37
28.57
32.05
33.14
32.26
29.81
26.15
21.65
16.73
11.65
6.48
1.05
-4.78
-10.99
-17.22
-22.97
-27.81
-31.49
-34.11
-35.95
-37.38
-38.79
-40.55
-42.84
-45.47
-47.63
-47.79
-44.16
-35.35
-21.15
-2.93
16.67
34.58
48.25
56.46
59.41
58.25
54.45
49.29
43.58
37.87
32.46
27.62
23.4
19.61
15.89
11.86
7.44
2.74
-1.87
-6.25
-10.54
-15.19
-20.74
-27.46
-35.02
-42.37
-47.84
-49.53
-45.88
-36.23
-21.21
-2.85
15.92
32.06
43.32
48.77
48.9
45.12
39.12
32.35
25.73
19.78
14.78
10.81
7.82
5.54
3.55
1.39
-1.2
-4.18
-7.31
-10.29
-12.99
-15.51
-18.19
-21.38
-25.29
-29.68
-33.78
-36.27
-35.59
-30.47
-20.52
-6.52
9.51
24.88
36.98
44.06
45.75
42.87
37.03
29.91
22.87
16.69
11.77
8.16
5.66
3.87
2.2
0.03
-3.15
-7.37
-12.27
-17.16
-21.3
-24.3
-26.26
-27.77
-29.61
-32.35
-35.97
-39.64
-41.83
-40.81
-35.19
-24.64
-10.2
6.06
21.61
34.39
43.28
48.17
49.66
48.51
45.35
40.62
34.66
27.97
21.08
14.52
8.58
3.3
-1.48
-5.84
-9.83
-13.5
-16.89
-20.25
-23.92
-28.24
-33.51
-39.8
-46.87
-54.04
-60.14
-63.7
-63.25
-57.82
-47.28
-32.61
-15.6
1.53
16.76
28.65
36.48
40.18
40.09
36.79
31.0
23.6
15.48
7.58
0.7
-4.56
-7.93
-9.42
-9.37
-8.35
-6.95
-5.75
-5.24
-5.77
-7.58
-10.78
-15.2
-20.12
-24.23
-25.82
-23.24
-15.62
-3.26
12.2
28.36
42.75
53.61
60.2
62.75
62.0
58.85
53.96
47.76
40.57
32.66
24.44
16.35
8.93
2.68
-2.02
-4.93
-6.17
-6.18
-5.68
-5.61
-6.89
-10.25
-15.9
-23.36
-31.34
-37.93
-40.99
-38.88
-31.14
-18.75
-4.05
10.03
20.98
27.4
29.26
27.57
23.7
18.81
13.71
8.88
4.74
1.55
-0.58
-1.78
-2.45
-2.98
-3.61
-4.37
-5.24
-6.32
-7.84
-10.11
-13.25
-17.26
-22.02
-27.62
-34.2
-41.68
-49.24
-55.17
-57.26
-53.87
-44.82
-31.77
-17.63
-5.36
3.18
7.81
9.61
10.05
10.12
9.98
9.33
7.82
5.51
2.78
0.04
-2.57
-5.11
-7.7
-10.22
-12.35
-13.77
-14.33
-14.28
-14.23
-14.92
-16.98
-20.65
-25.55
-30.55
-33.89
-33.63
-28.28
-17.48
-2.25
15.19
32.18
46.4
56.61
62.64
65.13
64.94
62.71
58.79
53.26
46.2
37.71
27.99
17.31
6.06
-5.14
-15.5
-24.14
-30.46
-34.32
-36.17
-36.88
-37.48
-38.77
-41.19
-44.73
-48.83
-52.41
-53.95
-51.76
-44.53
-32.04
-15.37
3.11
20.54
34.48
43.69
48.44
50.01
49.87
48.88
47.06
43.72
38.15
30.18
20.37
9.9
0.07
-8.11
-14.3
-18.68
-21.83
-24.29
-26.52
-28.74
-31.14
-33.9
-37.06
-40.34
-42.85
-43.33
-40.39
-33.23
-22.15
-8.55
5.46
17.84
27.27
33.51
37.03
38.69
39.14
38.73
37.65
36.09
34.26
32.24
29.85
26.6
21.94
15.64
8.01
-0.11
-7.7
-13.84
-18.09
-20.51
-21.47
-21.64
-21.79
-22.8
-25.37
-29.75
-35.2
-40.0
-41.78
-38.39
-28.83
-13.65
5.03
24.36
41.57
54.71
62.87
66.03
64.78
60.08
53.04
44.85
36.54
28.99
22.65
17.59
13.59
10.07
6.3
1.49
-4.86
-12.74
-21.53
-30.29
-38.08
-44.53
-49.87
-54.77
-59.72
-64.4
-67.48
-66.95
-61.01
-48.96
-31.81
-11.97
7.39
23.46
34.57
40.39
41.71
39.86
36.1
31.46
26.6
21.93
17.64
13.64
9.6
5.15
0.01
-5.66
-11.28
-15.97
-18.97
-19.86
-18.9
-17.09
-15.86
-16.79
-20.95
-28.32
-37.48
-45.78
-50.02
-47.56
-37.32
-20.27
0.86
22.5
41.28
54.95
62.64
64.66
62.07
56.21
48.43
39.85
31.31
23.2
15.62
8.48
1.76
-4.43
-9.86
-14.25
-17.44
-19.42
-20.37
-20.65
-20.79
-21.53
-23.68
-27.85
-34.05
-41.34
-47.74
-50.79
-48.31
-39.28
-24.36
-5.71
13.66
30.92
44.25
53.15
58.2
60.55
61.14
60.45
58.53
55.19
50.32
44.1
37.01
29.65
22.65
16.59
11.96
9.26
8.81
10.47
13.54
16.55
17.49
14.43
6.15
-7.15
-23.59
-39.86
-52.07
-56.91
-52.64
-39.76
-20.7
0.94
21.48
37.97
48.7
53.04
51.25
44.18
33.11
19.79
6.19
-5.89
-15.2
-21.4
-24.95
-26.75
-27.62
-28.09
-28.17
-27.67
-26.41
-24.34
-21.66
-18.81
-16.46
-15.26
-15.7
-17.65
-20.1
-21.36
-19.39
-12.72
-1.1
14.29
31.22
47.17
60.24
69.42
74.59
76.07
74.12
68.84
60.3
48.8
35.07
20.22
5.51
-7.91
-19.26
-28.18
-34.7
-39.17
-42.14
-44.37
-46.63
-49.74
-54.43
-61.14
-69.86
-79.82
-89.46
-96.58
-98.82
-94.37
-82.6
-64.34
-41.69
-17.45
5.7
25.76
41.75
53.56
61.55
66.13
67.55
65.81
60.92
53.23
43.54
33.09
23.27
15.26
9.74
6.88
6.46
8.02
10.87
13.94
15.74
14.48
8.68
-2.15
-16.84
-32.58
-45.42
-51.59
-48.65
-36.44
-17.12
5.57
27.44
45.09
56.65
61.86
61.63
57.25
49.94
40.66
30.24
19.52
9.49
0.98
-5.62
-10.42
-13.92
-16.68
-18.94
-20.47
-20.88
-19.86
-17.58
-14.87
-12.95
-13.16
-16.4
-22.67
-30.75
-38.32
-42.48
-40.73
-31.87
-16.49
3.11
23.8
42.66
57.73
68.18
73.98
75.37
72.62
66.16
56.69
45.29
33.1
21.07
9.75
-0.59
-9.72
-17.28
-22.94
-26.71
-29.18
-31.42
-34.69
-39.91
-47.33
-56.44
-66.09
-74.69
-80.51
-81.93
-77.8
-67.85
-52.92
-34.92
-16.42
0.05
12.73
20.93
25.12
26.51
26.45
26.0
25.67
25.62
25.66
25.54
25.01
23.86
21.94
19.26
16.1
12.94
10.26
8.35
7.16
6.22
4.91
2.64
-0.87
-5.53
-10.64
-15.08
-17.38
-16.2
-10.71
-1.07
11.55
25.26
38.0
48.21
55.13
58.8
59.73
58.42
55.13
49.84
42.46
33.02
21.86
9.63
-2.8
-14.54
-24.84
-33.22
-39.53
-43.88
-46.55
-47.92
-48.53
-49.13
-50.55
-53.53
-58.17
-63.59
-67.73
-67.92
-61.74
-48.14
-28.01
-4.12
19.84
40.41
55.42
64.34
67.99
67.83
65.29
61.32
56.45
50.84
44.48
37.28
29.15
20.05
10.04
-0.55
-11.18
-21.1
-29.56
-35.99
-40.16
-42.3
-43.11
-43.64
-44.95
-47.79
-52.06
-56.75
-60.11
-60.24
-55.86
-46.91
-34.61
-21.0
-8.15
2.67
11.22
18.02
23.73
28.58
32.21
34.1
33.97
32.19
29.7
27.5
26.18
25.62
25.16
24.05
21.78
18.36
14.15
9.46
4.37
-1.41
-8.23
-16.15
-24.51
-31.93
-36.65
-37.14
-32.77
-24.15
-12.99
-1.52
8.17
14.71
17.58
17.15
14.45
10.89
7.97
6.93
8.28
11.6
15.59
18.51
18.83
15.88
9.99
2.22
-6.08
-13.88
-20.54
-25.82
-29.6
-31.85
-32.72
-32.56
-31.89
-30.99
-29.47
-26.15
-19.43
-7.97
8.38
28.27
49.05
67.6
81.42
89.18
91.0
87.99
81.66
73.41
64.18
54.4
44.2
33.68
22.99
12.54
2.82
-5.78
-13.12
-19.34
-24.89
-30.26
-36.03
-42.77
-50.99
-60.83
-71.71
-81.96
-88.95
-89.81
-82.45
-66.59
-44.16
-18.83
5.19
24.34
36.72
42.19
41.87
37.49
30.82
23.45
16.76
11.9
9.55
9.62
11.23
12.91
13.3
11.7
8.43
4.67
1.84
0.92
1.89
3.73
4.74
3.39
-1.12
-8.25
-16.11
-21.94
-22.95
-17.35
-5.03
12.26
31.46
49.14
62.41
69.53
70.08
64.69
54.68
41.79
27.89
14.8
3.97
-3.85
-8.68
-11.27
-12.73
-14.0
-15.63
-17.65
-19.8
-21.8
-23.61
-25.43
-27.71
-31.05
-35.89
-42.23
-49.34
-55.6
-58.75
-56.52
-47.44
-31.59
-10.83
11.73
32.75
49.67
61.38
68.08
70.77
70.51
67.98
63.43
57.06
49.17
40.32
31.15
22.19
13.76
6.05
-0.78
-6.56
-11.19
-15.0
-18.66
-23.14
-29.4
-37.86
-48.1
-58.7
-67.33
-71.28
-68.31
-57.43
-39.51
-17.25
5.51
24.92
38.09
43.84
42.58
35.87
25.8
14.37
3.21
-6.55
-14.35
-20.15
-24.32
-27.4
-29.81
-31.72
-33.05
-33.6
-33.24
-31.92
-29.69
-26.64
-23.12
-19.75
-17.49
-17.27
-19.43
-23.25
-26.88
-27.88
-24.18
-14.93
-0.86
16.04
33.24
48.63
60.9
69.54
74.47
75.57
72.6
65.41
54.26
40.12
24.59
9.56
-3.31
-13.08
-19.66
-23.69
-26.14
-27.97
-29.92
-32.54
-36.42
-42.02
-49.55
-58.39
-66.95
-72.74
-73.16
-66.43
-52.43
-32.92
-10.95
10.08
27.43
39.6
46.35
48.43
47.05
43.59
39.25
34.91
31.0
27.46
23.9
19.96
15.52
10.85
6.42
2.75
0.12
-1.45
-2.14
-2.18
-1.87
-1.44
-1.1
-0.79
-0.23
1.17
3.97
8.46
14.44
21.16
27.54
32.47
35.14
35.05
32.11
26.56
18.96
10.3
1.73
-5.6
-11.04
-14.62
-17.07
-19.4
-22.46
-26.48
-31.1
-35.63
-39.42
-42.28
-44.46
-46.57
-49.23
-52.81
-57.29
-62.05
-65.88
-67.15
-64.1
-55.46
-41.03
-21.88
-0.23
21.09
39.47
53.02
60.88
63.19
60.87
55.38
48.38
41.46
35.72
31.52
28.37
25.24
21.04
15.17
7.7
-0.68
-9.05
-16.59
-22.77
-27.39
-30.58
-32.78
-34.67
-37.07
-40.49
-44.74
-48.56
-49.97
-46.94
-38.36
-24.7
-7.94
9.02
23.5
33.87
39.76
41.85
41.26
39.01
35.72
31.75
27.37
22.83
18.41
14.24
10.25
6.24
2.02
-2.36
-6.57
-9.98
-11.93
-12.08
-10.71
-8.8
-7.83
-9.33
-14.17
-21.94
-30.79
-37.72
-39.55
-34.09
-21.11
-2.51
18.26
37.48
52.31
61.59
65.73
66.09
64.12
60.76
56.39
50.98
44.61
37.66
30.83
24.8
19.9
15.94
12.31
8.37
3.83
-1.07
-5.76
-9.72
-12.85
-15.63
-18.91
-23.52
-29.9
-37.75
-46.02
-53.03
-56.92
-56.17
-50.16
-39.47
-25.74
-11.21
1.96
12.38
19.53
23.66
25.4
25.35
23.89
21.22
17.42
12.57
6.93
0.88
-5.01
-10.16
-14.2
-17.08
-19.15
-20.95
-22.94
-25.37
-28.34
-31.99
-36.68
-42.85
-50.48
-58.52
-64.78
-66.32
-60.52
-46.38
-25.05
0.25
25.27
46.13
60.32
67.13
67.25
62.26
53.89
43.8
33.4
23.78
15.63
9.17
4.22
0.38
-2.74
-5.32
-7.28
-8.42
-8.56
-7.74
-6.36
-5.12
-4.93
-6.49
-10.05
-14.87
-19.3
-21.19
-18.57
-10.44
2.77
19.28
36.52
51.83
63.07
68.98
69.29
64.59
56.23
45.93
35.49
26.35
19.27
14.24
10.69
7.78
4.79
1.34
-2.6
-6.86
-11.05
-14.78
-17.7
-19.67
-20.95
-22.21
-24.3
-27.88
-32.83
-37.98
-41.32
-40.67
-34.56
-22.96
-7.41
9.52
25.09
37.24
45.14
48.97
49.59
47.99
44.92
40.85
36.01
30.58
24.81
18.92
13.03
7.16
1.2
-4.98
-11.34
-17.59
-23.23
-27.72
-30.87
-33.01
-34.91
-37.54
-41.56
-46.88
-52.63
-57.35
-59.5
-57.91
-52.06
-42.25
-29.48
-15.22
-1.22
10.87
19.8
24.91
26.25
24.45
20.52
15.47
10.05
4.52
-1.25
-7.48
-14.3
-21.39
-28.02
-33.32
-36.61
-37.77
-37.36
-36.42
-36.08
-37.18
-40.16
-44.89
-50.7
-56.27
-59.58
-58.28
-50.34
-34.88
-12.92
12.71
38.08
59.42
74.36
82.37
84.47
82.41
77.75
71.45
63.91
55.38
46.2
36.89
28.03
20.0
12.91
6.74
1.46
-2.84
-6.0
-8.01
-9.15
-10.11
-11.86
-15.27
-20.75
-27.85
-35.19
-40.71
-42.35
-38.8
-30.03
-17.43
-3.31
9.8
19.96
26.21
28.54
27.55
24.07
18.87
12.61
5.97
-0.32
-5.61
-9.51
-12.0
-13.43
-14.33
-15.12
-16.02
-16.91
-17.63
-18.04
-18.18
-18.39
-19.17
-21.07
-24.34
-28.68
-32.98
-35.53
-34.43
-28.36
-17.16
-1.99
14.98
31.31
44.96
54.79
60.52
62.51
61.42
57.96
52.86
46.7
39.9
32.62
24.84
16.52
7.78
-0.97
-9.23
-16.5
-22.47
-27.06
-30.33
-32.45
-33.77
-34.88
-36.55
-39.53
-44.1
-49.68
-54.69
-56.87
-54.03
-44.86
-29.58
-9.99
11.02
30.29
45.36
55.02
59.37
59.54
57.03
53.19
48.9
44.54
40.16
35.71
31.14
26.46
21.68
16.8
11.73
6.42
0.79
-5.14
-11.27
-17.47
-23.73
-30.1
-36.75
-43.77
-50.83
-57.0
-60.69
-60.15
-54.05
-42.34
-26.41
-8.83
7.49
20.27
28.49
32.44
33.15
31.82
29.23
25.73
21.43
16.48
11.24
6.18
1.65
-2.2
-5.46
-8.32
-10.89
-13.05
-14.64
-15.61
-16.15
-16.87
-18.51
-21.72
-26.55
-32.18
-36.89
-38.46
-35.01
-25.72
-11.43
5.55
22.04
35.14
43.1
45.77
44.3
40.46
35.83
31.33
27.12
22.99
18.7
14.2
9.54
4.77
-0.25
-5.76
-12.02
-18.96
-26.22
-33.16
-39.13
-43.75
-47.09
-49.68
-52.29
-55.51
-59.27
-62.56
-63.55
-60.18
-50.97
-35.87
-16.45
4.5
23.92
39.53
50.31
56.47
58.88
58.51
56.07
51.97
46.51
39.97
32.69
24.99
17.28
10.04
3.77
-1.14
-4.64
-7.18
-9.59
-12.82
-17.61
-24.24
-32.4
-41.16
-48.99
-53.9
-53.81
-47.25
-34.05
-15.65
5.06
24.6
39.94
49.29
52.43
50.35
44.73
37.33
29.54
22.3
16.01
10.64
5.89
1.44
-2.91
-7.16
-11.12
-14.62
-17.62
-20.3
-22.96
-26.07
-30.02
-35.09
-41.13
-47.32
-52.03
-53.11
-48.43
-36.81
-18.64
3.92
27.47
48.44
64.17
73.58
77.2
76.59
73.49
69.21
64.3
58.73
52.28
44.78
36.28
27.08
17.62
8.4
-0.08
-7.34
-12.98
-16.81
-18.95
-19.99
-21.0
-23.24
-27.76
-34.77
-43.29
-51.16
-55.69
-54.68
-47.29
-34.46
-18.5
-2.18
12.26
23.76
32.29
38.39
42.62
45.21
46.2
45.61
43.61
40.59
36.94
32.87
28.47
23.76
18.84
13.94
9.28
4.98
0.87
-3.51
-8.72
-15.2
-22.95
-31.28
-38.8
-43.67
-44.17
-39.33
-29.4
-15.89
-1.16
12.39
22.99
29.98
33.68
35.01
34.9
33.92
32.19
29.45
25.31
19.53
12.16
3.51
-5.83
-15.18
-23.89
-31.43
-37.51
-41.96
-44.86
-46.54
-47.56
-48.69
-50.46
-52.74
-54.44
-53.66
-48.31
-37.11
-20.3
0.18
21.34
40.13
54.52
63.89
68.8
70.36
69.42
66.41
61.31
54.14
45.23
35.32
25.41
16.38
8.82
2.84
-1.79
-5.51
-8.87
-12.49
-17.06
-23.3
-31.67
-41.96
-52.92
-62.13
-66.54
-63.4
-51.29
-30.91
-5.09
22.01
46.13
64.06
74.21
76.7
72.69
63.84
51.8
38.21
24.71
12.92
4.14
-1.01
-2.94
-3.02
-3.0
-4.44
-7.97
-13.22
-19.08
-24.44
-28.85
-32.63
-36.65
-41.51
-46.92
-51.34
-52.56
-48.59
-38.67
-23.79
-6.39
10.53
24.49
34.19
39.57
41.41
40.66
38.05
34.0
28.73
22.47
15.48
8.02
0.39
-7.11
-14.06
-20.03
-24.65
-27.89
-30.1
-32.0
-34.49
-38.37
-43.98
-50.98
-58.21
-63.79
-65.61
-61.96
-52.29
-37.46
-19.55
-1.13
15.53
29.04
38.94
45.39
48.73
49.24
47.26
43.32
38.18
32.72
27.64
23.21
19.33
15.73
12.16
8.55
4.82
0.89
-3.52
-8.84
-15.37
-23.14
-31.57
-39.44
-45.1
-46.93
-43.89
-35.94
-24.16
-10.46
3.04
14.64
23.5
29.64
33.54
35.7
36.24
34.93
31.38
25.45
17.38
7.84
-2.27
-12.1
-21.02
-28.71
-35.01
-39.86
-43.3
-45.59
-47.36
-49.45
-52.52
-56.45
-59.99
-60.9
-56.81
-46.18
-29.15
-7.61
15.45
37.0
54.85
67.98
76.37
80.43
80.61
77.35
71.2
63.03
53.92
44.94
36.92
30.29
25.07
21.0
17.67
14.56
11.12
6.72
0.76
-7.22
-17.34
-29.21
-41.59
-52.46
-59.28
-59.68
-52.34
-37.76
-18.36
2.21
20.14
32.64
38.6
38.54
34.0
26.77
18.32
9.66
1.49
-5.63
-11.17
-14.88
-16.82
-17.56
-17.98
-19.0
-21.19
-24.62
-28.86
-33.28
-37.47
-41.41
-45.28
-49.07
-52.0
-52.42
-48.38
-38.47
-22.67
-2.8
17.96
36.14
49.18
56.25
58.25
57.11
54.73
52.13
49.11
44.7
37.85
28.14
16.16
3.25
-8.96
-19.15
-26.65
-31.39
-33.69
-34.05
-33.23
-32.2
-32.24
-34.49
-39.31
-45.85
-52.0
-55.09
-52.92
-44.77
-31.69
-16.12
-0.89
11.82
21.04
26.95
30.35
31.98
32.23
31.12
28.62
24.96
20.79
16.93
14.21
13.15
13.84
15.95
18.88
21.95
24.49
25.88
25.41
22.39
16.31
7.3
-3.39
-13.35
-19.41
-18.78
-10.22
5.21
24.28
42.71
56.69
64.15
65.2
61.61
55.8
49.82
44.82
41.0
37.93
35.02
31.69
27.55
22.31
15.86
8.22
-0.38
-9.49
-18.61
-27.29
-35.32
-42.83
-50.18
-57.68
-65.17
-71.64
-75.26
-73.81
-65.47
-49.64
-27.45
-1.58
24.5
47.48
65.11
76.59
82.37
83.7
81.9
78.13
73.04
67.0
60.14
52.48
44.0
34.77
25.0
15.07
5.5
-3.13
-10.44
-16.4
-21.42
-26.33
-32.2
-40.01
-50.14
-61.81
-73.01
-80.67
-81.65
-74.01
-57.89
-35.82
-11.9
9.59
25.61
35.06
38.67
38.09
34.98
30.33
24.41
17.2
8.78
-0.37
-9.4
-17.31
-23.26
-26.81
-27.97
-27.23
-25.27
-22.81
-20.52
-19.09
-19.16
-21.36
-25.82
-31.77
-37.31
-39.78
-36.68
-26.75
-10.76
8.61
27.71
43.26
53.48
58.43
59.46
58.23
55.88
52.58
47.82
40.99
31.93
21.17
9.78
-0.98
-10.18
-17.35
-22.58
-26.34
-29.1
-31.28
-33.26
-35.56
-38.94
-44.18
-51.45
-59.85
-67.16
-70.43
-67.12
-56.25
-38.93
-18.08
2.67
20.24
32.87
40.31
43.28
42.81
39.8
34.93
28.8
22.02
15.26
9.16
4.24
0.84
-0.98
-1.45
-1.17
-1.0
-1.74
-3.86
-7.31
-11.62
-16.3
-21.05
-25.85
-30.68
-35.15
-38.32
-39.01
-36.33
-30.25
-21.74
-12.45
-3.97
2.84
8.02
12.27
16.4
20.77
25.13
28.82
31.02
31.13
28.91
24.44
18.13
10.65
2.8
-4.52
-10.6
-14.97
-17.58
-18.83
-19.5
-20.6
-23.02
-27.18
-32.59
-37.67
-40.04
-37.3
-27.96
-12.25
7.79
28.93
47.83
62.1
70.88
74.59
74.4
71.48
66.65
60.29
52.52
43.51
33.7
23.81
14.72
7.13
1.29
-3.17
-7.0
-11.06
-15.9
-21.68
-28.33
-35.82
-44.11
-52.94
-61.26
-66.97
-67.35
-60.09
-44.53
-22.38
2.6
25.77
43.14
52.56
54.08
49.41
40.97
31.04
21.26
12.65
5.66
0.32
-3.61
-6.59
-9.13
-11.6
-14.06
-16.3
-17.83
-18.14
-16.98
-14.54
-11.57
-9.28
-8.88
-11.07
-15.42
-20.16
-22.51
-19.7
-10.11
5.76
25.39
45.07
61.39
72.4
78.02
79.59
78.75
76.44
72.57
66.38
57.27
45.44
32.09
18.74
6.63
-3.86
-13.0
-21.27
-28.67
-34.64
-38.32
-39.36
-38.26
-36.65
-36.58
-39.66
-46.11
-54.31
-61.1
-62.85
-56.81
-42.35
-21.33
2.42
24.52
41.38
51.29
54.43
52.37
46.99
39.9
32.16
24.35
16.86
10.02
4.07
-0.83
-4.7
-7.58
-9.59
-10.87
-11.7
-12.47
-13.77
-16.3
-20.78
-27.64
-36.79
-47.22
-56.97
-63.49
-64.25
-57.76
-44.03
-24.75
-2.8
18.69
37.13
51.0
59.83
63.98
64.05
60.67
54.39
45.71
35.29
23.91
12.49
1.99
-6.87
-13.62
-18.15
-20.67
-21.57
-21.43
-20.82
-20.43
-20.9
-22.77
-26.12
-30.28
-33.7
-34.36
-30.39
-20.96
-6.83
9.76
25.76
38.34
45.73
47.49
44.47
38.04
29.7
20.6
11.63
3.38
-3.67
-9.19
-13.01
-15.11
-15.7
-15.17
-14.14
-13.32
-13.4
-14.9
-18.01
-22.67
-28.62
-35.46
-42.62
-49.16
-53.61
-54.28
-49.63
-39.04
-23.28
-4.46
14.49
30.73
42.26
48.35
49.46
46.75
41.62
35.23
28.37
21.51
14.93
8.83
3.46
-0.95
-4.22
-6.45
-8.05
-9.64
-11.93
-15.49
-20.56
-27.12
-34.96
-43.67
-52.51
-60.17
-64.84
-64.56
-57.98
-44.99
-27.03
-6.77
12.77
29.07
40.7
47.5
50.16
49.67
46.94
42.58
36.94
30.27
22.83
15.01
7.24
-0.03
-6.4
-11.56
-15.4
-17.9
-19.23
-19.72
-19.97
-20.76
-22.88
-26.79
-32.16
-37.74
-41.49
-41.23
-35.42
-23.84
-7.8
10.08
26.69
39.25
46.05
46.77
42.35
34.63
25.72
17.56
11.42
7.7
5.99
5.23
4.31
2.35
-0.95
-5.41
-10.46
-15.54
-20.24
-24.43
-28.19
-31.85
-35.88
-40.82
-46.94
-53.76
-59.76
-62.51
-59.34
-48.48
-30.04
-6.34
18.73
40.94
57.16
66.26
69.07
67.58
63.9
59.4
54.48
48.85
42.13
34.24
25.61
16.93
8.79
1.38
-5.44
-11.94
-18.21
-24.05
-29.15
-33.49
-37.51
-41.96
-47.31
-53.03
-57.52
-58.46
-53.85
-43.03
-27.14
-8.8
8.86
23.29
33.17
38.53
40.29
39.74
38.03
35.94
33.85
31.73
29.31
26.22
22.22
17.37
11.92
6.31
0.89
-4.09
-8.52
-12.37
-15.67
-18.59
-21.48
-24.83
-29.01
-33.89
-38.58
-41.42
-40.56
-34.63
-23.43
-8.13
8.99
25.26
38.46
47.38
51.97
53.06
51.88
49.51
46.65
43.55
40.13
36.09
31.04
24.61
16.57
6.98
-3.71
-14.64
-24.75
-33.04
-38.97
-42.66
-44.85
-46.77
-49.62
-54.14
-60.11
-66.22
-70.21
-69.51
-62.11
-47.4
-26.55
-2.22
22.22
43.77
60.56
71.97
78.36
80.44
78.84
74.04
66.53
57.06
46.49
35.75
25.47
15.9
7.12
-0.87
-8.02
-14.22
-19.5
-24.15
-28.7
-33.78
-39.96
-47.33
-55.35
-62.67
-67.38
-67.43
-61.38
-49.06
-31.89
-12.51
5.99
21.05
31.34
36.8
38.32
37.14
34.39
30.87
27.04
23.16
19.22
15.07
10.47
5.33
-0.25
-5.89
-11.12
-15.44
-18.51
-20.22
-20.72
-20.53
-20.49
-21.52
-24.08
-27.77
-31.08
-31.84
-28.06
-18.92
-5.24
10.86
26.71
40.22
50.34
57.04
60.72
61.7
60.12
56.16
50.27
43.2
35.81
28.6
21.5
14.09
5.95
-2.92
-11.86
-19.92
-26.13
-30.04
-31.85
-32.38
-32.86
-34.58
-38.42
-44.47
-51.67
-57.95
-60.63
-57.38
-47.19
-30.82
-10.73
9.79
27.72
41.22
49.92
54.58
56.39
56.4
55.17
52.84
49.38
44.75
38.98
32.23
24.69
16.7
8.71
1.28
-5.05
-9.95
-13.48
-16.03
-18.25
-20.94
-24.82
-30.28
-37.12
-44.27
-49.79
-51.38
-47.12
-36.35
-20.17
-1.25
17.06
31.79
41.33
45.55
45.46
42.46
37.7
31.81
25.11
17.75
10.04
2.45
-4.56
-10.68
-15.81
-20.14
-23.95
-27.54
-31.17
-35.02
-39.24
-43.94
-49.17
-54.71
-59.85
-63.28
-63.17
-57.78
-46.16
-28.67
-7.15
15.53
36.38
53.13
64.76
71.4
73.84
72.94
69.32
63.22
54.85
44.54
32.97
21.08
9.98
0.62
-6.49
-11.38
-14.62
-17.07
-19.53
-22.59
-26.6
-31.72
-38.06
-45.49
-53.28
-59.9
-63.19
-60.98
-52.08
-36.96
-17.71
2.59
20.94
35.37
45.26
51.1
53.84
54.28
52.81
49.45
44.21
37.29
29.26
20.78
12.44
4.62
-2.52
-8.87
-14.28
-18.45
-21.11
-22.29
-22.49
-22.71
-23.99
-26.86
-30.9
-34.53
-35.46
-31.52
-21.56
-6.12
12.64
31.58
47.6
58.59
63.94
64.32
61.05
55.47
48.39
40.18
30.97
20.93
10.54
0.51
-8.47
-15.91
-21.69
-25.99
-29.24
-32.06
-35.04
-38.81
-43.92
-50.73
-59.11
-68.12
-75.81
-79.48
-76.47
-65.18
-46.02
-21.57
4.16
27.0
44.07
54.45
59.06
59.66
57.97
54.92
50.63
44.88
37.66
29.43
20.97
13.17
6.58
1.45
-2.27
-4.75
-6.22
-6.98
-7.6
-8.94
-11.93
-17.19
-24.43
-32.21
-38.14
-39.5
-34.37
-22.42
-5.23
14.17
32.28
46.31
54.83
57.95
56.86
53.05
47.78
41.73
35.11
27.9
20.13
11.9
3.45
-5.04
-13.4
-21.43
-28.79
-35.06
-39.84
-43.01
-44.91
-46.32
-48.22
-51.25
-55.26
-59.03
-60.71
-58.36
-50.86
-38.38
-22.41
-5.22
10.83
23.99
33.45
39.28
42.03
42.45
41.15
38.53
34.82
30.16
24.6
18.26
11.43
4.6
-1.52
-6.25
-9.18
-10.38
-10.47
-10.48
-11.61
-14.82
-20.46
-28.02
-36.01
-42.2
-44.24
-40.3
-29.85
-13.9
5.17
24.27
40.55
52.11
58.32
59.66
57.22
52.17
45.36
37.32
28.4
19.04
9.88
1.74
-4.77
-9.47
-12.75
-15.38
-18.06
-21.21
-24.87
-28.87
-33.17
-37.82
-42.8
-47.54
-50.69
-50.32
-44.69
-33.09
-16.42
2.86
21.58
36.89
47.15
52.2
53.14
51.62
49.22
47.03
45.44
44.26
42.9
40.67
37.05
32.09
26.44
21.29
18.0
17.51
19.97
24.54
29.51
32.67
31.86
25.62
14.01
-1.0
-15.54
-24.78
-24.43
-12.49
9.78
38.03
66.31
89.34
104.46
112.29
115.82
118.29
121.2
123.34
121.47
112.34
94.67
70.33
43.78
20.42
4.43
-2.62
-2.01
3.09
8.89
12.08
10.4
2.89
-10.13
-27.06
-45.06
-60.71
-70.99
-74.6
-72.85
-69.8
-70.99
-81.05
-101.29
-128.47
-155.73
-175.12
-180.97
-172.14
-152.05
-126.91
-102.79
-83.43
-69.62
-60.25
-53.83
-49.58
-47.43
-47.3
-48.39
-49.14
-48.04
-44.47
-39.26
-34.29
-31.51
-31.71
-33.77
-34.92
-31.78
-22.03
-5.53
15.38
36.82
54.76
66.48
71.37
70.55
66.13
60.07
53.51
46.73
39.41
31.12
21.7
11.43
0.85
-9.3
-18.35
-25.85
-31.66
-35.96
-39.17
-41.91
-44.83
-48.41
-52.7
-57.06
-60.08
-59.84
-54.57
-43.41
-26.91
-7.0
13.5
31.82
46.02
55.3
59.95
60.79
58.83
54.9
49.7
43.78
37.56
31.32
25.05
18.66
12.03
5.15
-1.72
-8.15
-13.59
-17.69
-20.34
-21.94
-23.23
-25.15
-28.31
-32.57
-36.69
-38.5
-35.6
-26.39
-10.99
8.68
29.34
47.68
61.44
69.94
73.87
74.45
72.63
68.66
62.32
53.47
42.52
30.52
18.73
8.21
-0.58
-7.69
-13.44
-18.1
-21.82
-24.77
-27.29
-30.12
-34.09
-39.8
-47.02
-54.42
-59.73
-60.41
-54.66
-42.17
-24.49
-4.46
14.64
30.19
40.91
46.82
48.85
48.03
45.15
40.53
34.33
26.71
18.03
8.82
-0.31
-8.9
-16.62
-23.33
-29.03
-33.84
-37.92
-41.46
-44.7
-47.9
-51.21
-54.5
-57.11
-57.76
-54.76
-46.58
-32.55
-13.38
8.78
30.92
50.15
64.55
73.57
77.95
79.01
77.97
75.52
71.76
66.51
59.65
51.3
41.85
31.86
21.89
12.44
3.85
-3.65
-10.05
-15.47
-20.22
-24.85
-30.08
-36.7
-45.08
-54.68
-63.72
-69.44
-68.89
-60.19
-43.53
-21.3
2.62
24.24
40.71
50.96
55.39
55.28
51.95
46.37
39.17
30.86
21.95
12.95
4.31
-3.75
-11.16
-17.99
-24.36
-30.33
-35.9
-41.02
-45.77
-50.37
-55.15
-60.23
-65.09
-68.37
-67.99
-61.94
-49.24
-30.54
-8.22
14.33
33.96
48.63
57.88
62.58
64.17
63.91
62.58
60.33
57.03
52.5
46.69
39.79
32.12
24.03
15.84
7.73
-0.16
-7.63
-14.46
-20.51
-25.91
-31.13
-36.81
-43.26
-49.93
-55.19
-56.68
-52.28
-41.1
-24.11
-3.86
16.37
33.75
46.72
55.01
59.2
60.1
58.38
54.54
49.15
42.84
36.25
29.72
23.21
16.4
9.06
1.27
-6.51
-13.71
-19.98
-25.38
-30.3
-35.42
-41.36
-48.51
-56.75
-65.24
-72.27
-75.52
-72.69
-62.34
-44.78
-22.12
2.14
24.27
41.51
52.77
58.55
60.34
59.72
57.72
54.8
51.04
46.53
41.43
36.03
30.45
24.64
18.42
11.63
4.33
-3.13
-10.33
-16.93
-22.98
-28.96
-35.47
-42.66
-49.86
-55.38
-57.01
-52.84
-42.16
-25.89
-6.42
13.16
30.12
42.77
50.74
54.63
55.42
53.94
50.65
45.66
38.96
30.66
21.08
10.88
0.79
-8.52
-16.62
-23.39
-29.03
-33.86
-38.26
-42.58
-47.22
-52.63
-59.05
-66.18
-72.75
-76.6
-75.13
-66.33
-49.79
-27.1
-1.59
22.88
43.1
57.44
65.89
69.59
70.07
68.62
66.06
62.84
59.06
54.71
49.71
44.03
37.7
30.91
23.84
16.59
9.13
1.38
-6.61
-14.66
-22.56
-30.14
-37.19
-43.21
-47.05
-47.09
-41.7
-30.12
-13.13
6.97
27.01
44.14
56.68
64.5
68.39
69.43
68.32
65.31
60.47
54.06
46.57
38.54
30.3
21.8
12.88
3.52
-5.97
-14.92
-22.67
-28.9
-33.8
-38.02
-42.5
-48.03
-55.09
-63.42
-71.93
-78.63
-81.09
-77.12
-65.73
-47.77
-25.72
-3.09
16.87
32.11
42.11
47.62
49.93
50.11
48.75
46.07
42.22
37.46
32.23
26.9
21.64
16.36
10.76
4.59
-2.13
-9.16
-16.07
-22.4
-27.99
-33.06
-38.0
-42.99
-47.56
-50.36
-49.57
-43.63
-32.06
-15.95
2.33
19.93
34.54
45.03
51.41
54.45
54.96
53.51
50.23
45.19
38.51
30.53
21.75
12.68
3.8
-4.43
-11.65
-17.54
-22.0
-25.15
-27.49
-29.73
-32.78
-37.43
-44.0
-52.01
-59.98
-65.6
-66.34
-60.36
-47.2
-28.14
-5.77
16.82
36.84
52.51
63.07
68.58
69.51
66.52
60.38
52.02
42.51
32.89
24.06
16.55
10.49
5.72
1.83
-1.64
-5.05
-8.66
-12.56
-16.8
-21.47
-26.69
-32.56
-38.91
-45.21
-50.38
-53.11
-52.11
-46.57
-36.53
-23.1
-8.14
6.17
17.94
26.11
30.59
32.08
31.58
29.95
27.66
24.75
21.04
16.37
10.79
4.56
-1.98
-8.54
-14.91
-21.0
-26.82
-32.39
-37.75
-43.1
-48.83
-55.43
-63.2
-71.82
-79.94
-85.29
-85.36
-78.35
-64.09
-44.31
-22.16
-1.0
16.6
29.57
38.23
43.63
46.84
48.47
48.65
47.33
44.56
40.55
35.57
29.87
23.52
16.61
9.34
2.1
-4.67
-10.7
-15.96
-20.84
-25.95
-31.93
-39.01
-46.68
-53.56
-57.68
-57.08
-50.43
-37.73
-20.33
-0.59
18.75
35.45
48.14
56.41
60.52
61.12
58.85
54.29
47.99
40.48
32.35
24.11
16.14
8.64
1.62
-4.99
-11.28
-17.17
-22.61
-27.57
-32.12
-36.61
-41.51
-47.27
-53.85
-60.45
-65.39
-66.46
-61.56
-49.69
-31.47
-9.18
13.88
34.45
50.29
60.69
66.21
68.16
67.86
66.19
63.59
60.21
56.13
51.47
46.34
40.76
34.6
27.64
19.86
11.49
3.17
-4.28
-10.24
-14.59
-17.87
-21.22
-25.82
-32.25
-40.05
-47.53
-52.22
-51.74
-44.72
-31.47
-13.91
4.97
22.11
35.36
43.84
47.86
48.33
46.14
41.88
35.89
28.54
20.34
11.97
4.05
-3.08
-9.39
-15.07
-20.32
-25.19
-29.53
-33.24
-36.34
-39.14
-42.25
-46.36
-51.89
-58.59
-65.2
-69.5
-68.94
-61.54
-46.81
-26.27
-3.05
19.12
37.13
49.36
55.97
58.3
58.07
56.66
54.73
52.37
49.36
45.48
40.62
34.73
27.9
20.27
12.18
4.07
-3.43
-9.73
-14.46
-17.65
-19.81
-21.98
-25.24
-30.3
-36.85
-43.31
-47.16
-45.94
-38.22
-24.43
-6.69
11.93
28.59
41.51
50.18
54.96
56.37
54.89
50.9
44.98
38.04
31.17
25.11
20.01
15.35
10.32
4.35
-2.6
-9.98
-17.0
-22.98
-27.64
-31.15
-34.09
-37.19
-41.13
-46.18
-51.98
-57.31
-60.28
-58.82
-51.42
-37.87
-19.49
1.12
20.97
37.54
49.53
56.9
60.49
61.43
60.59
58.31
54.54
49.11
41.99
33.44
23.98
14.25
4.93
-3.31
-9.95
-14.56
-16.94
-17.27
-16.23
-15.02
-15.22
-18.22
-24.65
-33.83
-43.63
-51.04
-53.08
-47.9
-35.49
-17.73
2.24
21.02
35.8
45.08
48.65
47.36
42.61
35.93
28.65
21.63
15.31
9.69
4.53
-0.41
-5.35
-10.31
-15.29
-20.26
-25.19
-30.0
-34.51
-38.37
-41.29
-43.21
-44.48
-45.57
-46.72
-47.44
-46.5
-42.26
-33.48
-20.12
-3.6
13.7
29.32
41.55
49.89
54.86
57.37
58.11
57.31
54.71
49.93
42.8
33.57
23.02
12.19
2.09
-6.57
-13.5
-18.75
-22.47
-24.75
-25.66
-25.32
-24.16
-22.95
-22.59
-23.59
-25.68
-27.75
-28.2
-25.61
-19.35
-9.94
1.19
12.27
21.79
29.1
34.26
37.84
40.36
41.96
42.4
41.28
38.33
33.6
27.46
20.35
12.7
4.86
-2.87
-10.11
-16.35
-20.97
-23.58
-24.13
-23.15
-21.56
-20.51
-21.05
-23.74
-28.53
-34.49
-39.96
-42.73
-40.79
-32.82
-18.89
-0.54
19.61
38.58
53.89
64.16
69.23
69.84
67.18
62.49
56.78
50.8
45.0
39.52
34.29
29.03
23.56
17.74
11.73
5.88
0.61
-3.78
-7.2
-9.84
-12.19
-14.96
-18.87
-24.49
-31.73
-39.61
-46.34
-49.7
-47.98
-40.72
-29.06
-15.45
-2.76
6.74
11.99
13.26
11.59
8.24
4.08
-0.42
-5.15
-10.08
-15.11
-20.03
-24.55
-28.36
-31.12
-32.49
-32.13
-29.91
-26.01
-21.01
-15.87
-11.71
-9.55
-10.03
-13.08
-17.71
-22.19
-24.32
-22.08
-14.29
-1.27
15.17
32.18
46.83
56.95
61.74
61.7
58.09
52.31
45.47
38.3
31.3
24.79
19.01
13.89
9.11
4.21
-1.12
-6.73
-12.06
-16.39
-19.21
-20.55
-20.93
-21.29
-22.56
-25.47
-30.26
-36.55
-43.3
-48.89
-51.37
-49.11
-41.48
-29.13
-13.99
1.34
14.47
23.85
29.05
30.58
29.42
26.63
23.05
19.31
15.88
13.08
11.08
9.77
8.78
7.63
5.88
3.37
0.29
-2.92
-5.71
-7.81
-9.36
-10.99
-13.51
-17.53
-23.01
-29.11
-34.27
-36.65
-34.85
-28.34
-17.8
-4.96
7.89
18.65
25.92
29.41
29.71
27.94
25.14
21.95
18.54
14.78
10.52
5.88
1.2
-3.06
-6.56
-9.14
-10.93
-12.19
-13.08
-13.75
-14.33
-15.11
-16.71
-19.86
-25.11
-32.32
-40.3
-46.91
-49.78
-47.16
-38.68
-25.64
-10.53
3.83
15.15
22.32
25.37
25.15
22.79
19.22
15.03
10.55
5.98
1.58
-2.28
-5.21
-7.02
-7.79
-7.9
-7.94
-8.34
-9.29
-10.66
-12.14
-13.57
-15.0
-16.66
-18.71
-20.88
-22.3
-21.64
-17.66
-9.8
1.3
14.04
26.39
36.68
44.13
48.89
51.61
52.85
52.85
51.44
48.44
43.9
38.22
32.06
26.01
20.48
15.51
10.99
6.69
2.44
-1.79
-5.92
-9.85
-13.54
-17.17
-21.17
-26.05
-32.26
-39.7
-47.59
-54.41
-58.35
-57.78
-51.99
-41.51
-27.94
-13.55
-0.41
10.14
17.69
22.52
25.12
25.94
25.27
23.34
20.54
17.33
14.14
11.23
8.65
6.28
3.94
1.5
-1.12
-3.96
-6.97
-10.07
-13.22
-16.46
-20.07
-24.32
-29.17
-33.87
-37.01
-36.78
-31.85
-22.13
-8.99
5.14
17.71
27.04
32.75
35.59
36.62
36.49
35.21
32.33
27.62
21.39
14.5
7.98
2.58
-1.46
-4.35
-6.49
-8.21
-9.75
-11.32
-13.24
-15.94
-20.0
-25.87
-33.71
-43.08
-52.69
-60.51
-64.11
-61.52
-52.07
-36.81
-18.32
0.13
15.72
26.87
33.47
36.43
37.13
36.72
35.91
35.06
34.21
33.26
31.97
30.11
27.52
24.16
20.24
16.09
12.15
8.82
6.32
4.6
3.1
0.89
-3.13
-9.61
-18.21
-27.34
-34.5
-37.2
-33.89
-24.69
-11.33
3.57
17.46
28.62
36.45
41.11
43.13
43.02
41.12
37.67
33.04
27.65
21.99
16.47
11.34
6.65
2.39
-1.54
-5.26
-8.85
-12.33
-15.64
-18.73
-21.68
-24.75
-28.41
-33.16
-39.13
-45.75
-51.68
-55.03
-54.03
-47.67
-36.31
-21.55
-5.72
8.84
20.51
28.63
33.44
35.66
36.18
35.71
34.72
33.45
31.93
30.0
27.35
23.68
18.86
13.17
7.19
1.78
-2.37
-4.99
-6.49
-7.78
-10.05
-14.29
-20.83
-29.1
-37.55
-43.92
-45.99
-42.17
-32.24
-17.5
-0.36
16.25
29.85
39.0
43.5
44.01
41.73
37.79
33.01
27.76
22.16
16.17
9.81
3.28
-3.07
-8.83
-13.8
-18.01
-21.68
-25.03
-28.14
-30.96
-33.6
-36.56
-40.67
-46.63
-54.33
-62.33
-68.0
-68.44
-61.7
-47.74
-28.5
-7.17
13.08
30.1
43.13
52.42
58.56
61.99
62.91
61.56
58.44
54.27
49.82
45.55
41.53
37.55
33.33
28.79
24.03
19.16
14.22
9.06
3.4
-2.96
-10.14
-18.15
-26.8
-35.5
-43.2
-48.32
-49.16
-44.58
-34.45
-19.97
-3.31
13.02
26.93
37.18
43.45
46.05
45.57
42.66
38.02
32.42
26.56
21.04
16.13
11.77
7.63
3.24
-1.72
-7.42
-13.71
-20.19
-26.42
-32.04
-37.0
-41.71
-46.86
-53.11
-60.69
-68.96
-76.29
-80.45
-79.22
-71.29
-56.85
-37.73
-16.74
3.21
20.0
32.81
41.94
48.2
52.33
54.73
55.51
54.71
52.53
49.33
45.4
40.85
35.68
29.86
23.62
17.42
11.8
7.1
3.35
0.13
-3.23
-7.51
-13.36
-21.0
-29.95
-38.84
-45.56
-47.85
-44.1
-34.21
-19.71
-3.41
11.71
23.49
31.13
35.14
36.66
36.76
36.0
34.55
32.37
29.51
26.1
22.19
17.64
12.17
5.47
-2.38
-10.99
-19.58
-27.31
-33.61
-38.42
-42.22
-45.96
-50.69
-57.04
-64.86
-72.92
-79.08
-80.78
-75.86
-63.43
-44.22
-20.55
4.41
27.51
46.55
60.5
69.5
74.25
75.64
74.46
71.45
67.33
62.88
58.66
54.83
51.03
46.56
40.74
33.34
24.83
16.25
8.76
3.23
-0.19
-2.15
-3.83
-6.68
-11.92
-20.09
-30.71
-42.12
-51.64
-56.36
-54.01
-43.87
-27.22
-6.97
13.32
30.54
42.88
50.02
52.71
52.07
49.1
44.5
38.77
32.39
25.83
19.43
13.33
7.3
0.92
-6.14
-13.88
-21.81
-29.09
-34.89
-38.8
-41.1
-42.64
-44.53
-47.65
-52.27
-57.86
-63.03
-65.97
-64.81
-58.17
-45.64
-28.03
-7.22
14.19
33.57
48.95
59.36
64.9
66.31
64.66
60.93
55.85
49.99
43.78
37.53
31.41
25.48
19.62
13.7
7.63
1.49
-4.49
-10.13
-15.3
-20.08
-24.79
-29.9
-35.88
-42.93
-50.67
-58.0
-63.08
-63.88
-58.84
-47.6
-31.38
-12.65
5.64
21.0
32.07
38.7
41.64
41.89
40.32
37.45
33.61
28.91
23.41
17.13
10.12
2.57
-5.17
-12.61
-19.26
-24.71
-28.67
-31.06
-31.95
-31.66
-30.76
-30.14
-30.68
-32.98
-36.89
-41.37
-44.66
-44.84
-40.5
-31.31
-18.13
-2.67
13.13
27.71
40.18
50.26
57.97
63.27
66.01
65.96
63.19
58.15
51.71
44.83
38.21
32.1
26.27
20.2
13.48
6.13
-1.37
-8.23
-13.65
-17.29
-19.43
-20.92
-22.85
-26.07
-30.98
-37.22
-43.71
-48.89
-51.02
-48.7
-41.32
-29.35
-14.37
1.38
15.65
26.78
34.07
37.75
38.51
37.1
34.07
29.69
24.21
17.93
11.31
4.74
-1.52
-7.48
-13.25
-18.93
-24.34
-29.15
-32.94
-35.5
-37.06
-38.17
-39.69
-42.35
-46.48
-51.59
-56.24
-58.31
-55.37
-45.72
-28.99
-6.7
18.02
41.29
59.62
70.96
75.06
73.22
67.55
60.19
52.67
45.72
39.44
33.44
27.3
20.67
13.45
5.78
-1.93
-9.15
-15.35
-20.05
-23.01
-24.3
-24.44
-24.35
-25.17
-27.86
-32.76
-39.24
-45.68
-49.95
-50.13
-45.28
-35.9
-23.6
-10.52
1.46
11.24
18.52
23.42
26.18
26.97
25.93
23.39
19.93
16.2
12.72
9.62
6.75
3.86
0.98
-1.51
-3.0
-2.97
-1.3
1.56
4.71
7.09
7.83
6.42
2.87
-2.33
-8.24
-13.46
-16.26
-14.96
-8.49
3.07
18.24
34.44
48.82
59.17
64.58
65.47
63.13
59.0
54.17
49.18
44.17
39.1
33.84
28.22
22.08
15.35
8.06
0.61
-6.34
-12.11
-16.24
-18.71
-19.99
-20.85
-22.12
-24.48
-28.28
-33.45
-39.39
-44.97
-48.73
-49.22
-45.52
-37.61
-26.49
-13.92
-1.72
8.74
16.71
22.05
24.76
24.79
22.05
16.68
9.3
0.91
-7.31
-14.37
-19.76
-23.33
-25.09
-25.0
-22.96
-19.08
-13.93
-8.74
-5.05
-4.33
-7.38
-14.01
-22.96
-32.15
-39.06
-41.39
-37.61
-27.53
-12.54
4.62
20.59
32.36
38.13
37.79
32.62
24.64
15.81
7.44
0.11
-6.16
-11.58
-16.46
-21.09
-25.71
-30.46
-35.24
-39.64
-43.04
-44.8
-44.62
-42.73
-39.93
-37.35
-36.09
-36.73
-39.03
-41.8
-43.2
-41.32
-34.82
-23.63
-8.96
6.99
21.79
33.59
41.53
45.79
47.2
46.77
45.26
43.12
40.58
37.86
35.19
32.8
30.83
29.27
27.89
26.41
24.6
22.38
19.92
17.51
15.31
13.28
11.11
8.38
4.83
0.73
-3.18
-5.83
-6.21
-3.73
1.53
8.9
17.3
25.54
32.51
37.32
39.38
38.44
34.72
28.8
21.59
14.02
6.78
0.22
-5.64
-10.88
-15.41
-19.0
-21.34
-22.36
-22.35
-22.03
-22.2
-23.6
-26.58
-31.24
-37.49
-45.0
-53.06
-60.29
-64.75
-64.31
-57.49
-44.26
-26.35
-6.82
10.94
24.3
32.22
35.17
34.66
32.38
29.6
26.97
24.77
23.14
22.19
21.97
22.34
22.85
22.83
21.66
19.14
15.48
11.29
7.25
3.76
0.79
-2.13
-5.59
-9.92
-14.76
-19.08
-21.45
-20.63
-16.04
-8.09
1.98
12.48
21.82
28.98
33.61
35.86
36.11
34.74
31.99
28.19
23.72
19.07
14.64
10.55
6.68
2.73
-1.5
-5.9
-10.14
-13.71
-16.35
-18.16
-19.61
-21.39
-24.1
-28.09
-33.41
-39.57
-45.62
-50.1
-51.27
-47.67
-38.78
-25.44
-9.85
5.1
16.76
23.64
25.8
24.53
21.59
18.44
15.77
13.53
11.33
8.93
6.38
3.95
1.86
0.11
-1.49
-3.09
-4.61
-5.7
-5.9
-5.03
-3.45
-1.96
-1.59
-3.08
-6.57
-11.47
-16.66
-20.7
-22.3
-20.59
-15.32
-6.9
3.61
14.85
25.36
33.94
39.81
42.64
42.53
39.92
35.45
29.94
24.2
18.93
14.52
11.01
8.12
5.44
2.57
-0.71
-4.47
-8.63
-13.0
-17.38
-21.58
-25.58
-29.61
-34.11
-39.47
-45.74
-52.36
-58.08
-61.26
-60.46
-54.89
-44.86
-31.73
-17.45
-4.06
6.97
15.0
20.16
23.16
24.69
25.25
24.9
23.51
21.02
17.59
13.71
9.85
6.31
3.04
-0.21
-3.68
-7.35
-10.99
-14.23
-16.99
-19.58
-22.64
-26.88
-32.6
-39.37
-45.93
-50.51
-51.36
-47.44
-38.8
-26.58
-12.79
0.45
11.43
19.24
23.81
25.66
25.55
24.29
22.58
20.98
19.85
19.27
19.0
18.62
17.63
15.62
12.4
7.92
2.15
-4.81
-12.75
-21.19
-29.56
-37.36
-44.43
-50.88
-56.79
-61.78
-64.77
-64.33
-59.27
-49.19
-34.76
-17.33
1.68
21.2
40.39
58.37
73.76
84.97
90.68
90.57
85.64
77.79
68.95
60.38
52.34
44.42
36.28
28.07
20.58
14.72
10.98
8.96
7.52
5.16
0.59
-6.8
-16.77
-28.21
-39.27
-47.71
-51.33
-48.58
-39.16
-24.24
-6.27
11.74
27.06
38.09
44.5
47.02
46.81
44.86
41.82
38.09
33.94
29.68
25.45
21.06
16.03
9.8
2.14
-6.53
-15.19
-22.59
-27.83
-30.69
-31.79
-32.26
-33.34
-35.99
-40.6
-46.91
-53.81
-59.44
-61.49
-57.91
-47.7
-31.45
-11.3
9.68
28.58
43.44
53.62
59.48
61.8
61.24
58.17
52.94
46.15
38.71
31.67
25.81
21.34
17.9
14.76
11.26
7.06
2.23
-2.86
-7.93
-12.91
-18.1
-23.96
-30.85
-38.67
-46.55
-52.89
-55.71
-53.23
-44.61
-30.38
-12.43
6.49
23.73
37.42
46.87
52.37
54.72
54.62
52.57
48.8
43.59
37.28
30.27
22.92
15.41
7.78
0.02
-7.78
-15.45
-22.64
-29.07
-34.54
-39.1
-43.07
-46.97
-51.41
-56.73
-62.64
-67.99
-70.81
-68.84
-60.4
-45.2
-24.6
-1.32
21.47
41.16
56.3
66.7
72.91
75.65
75.45
72.68
67.78
61.45
54.53
47.68
41.03
34.27
26.81
18.29
8.89
-0.65
-9.39
-16.51
-21.78
-25.52
-28.52
-31.75
-36.06
-41.91
-49.19
-57.02
-63.68
-67.07
-65.13
-56.75
-42.29
-23.6
-3.51
15.19
30.53
41.7
48.93
52.79
53.8
52.17
48.1
42.0
34.57
26.78
19.48
13.07
7.42
2.04
-3.62
-9.81
-16.33
-22.62
-27.98
-31.99
-34.68
-36.59
-38.57
-41.52
-46.06
-52.21
-59.22
-65.46
-68.7
-66.61
-57.68
-41.79
-20.5
3.2
25.92
44.85
58.5
66.77
70.54
71.01
69.18
65.75
61.17
55.82
49.98
43.73
36.94
29.4
21.09
12.34
3.94
-3.12
-8.02
-10.58
-11.33
-11.35
-12.02
-14.57
-19.75
-27.66
-37.51
-47.5
-55.09
-57.57
-52.91
-40.64
-22.26
-0.86
19.85
36.75
48.22
54.18
55.61
53.74
49.44
43.11
34.99
25.57
15.68
6.32
-1.72
-8.3
-13.92
-19.37
-25.17
-31.21
-36.74
-40.68
-42.28
-41.55
-39.4
-37.24
-36.53
-38.1
-41.84
-46.65
-50.59
-51.38
-47.04
-36.65
-20.75
-1.41
18.49
36.18
49.88
59.15
64.53
66.9
66.85
64.5
59.8
52.94
44.58
35.72
27.29
19.75
13.09
6.99
1.09
-4.67
-10.08
-14.68
-18.1
-20.13
-21.04
-21.42
-22.18
-24.22
-28.21
-34.23
-41.67
-49.21
-54.96
-56.86
-53.36
-43.94
-29.47
-12.12
5.39
20.57
31.89
39.01
42.41
42.83
40.76
36.51
30.4
23.2
16.19
10.76
7.89
7.58
8.84
10.13
10.11
8.29
5.2
2.03
-0.09
-0.69
-0.22
0.26
-0.45
-3.04
-7.55
-13.44
-19.81
-25.58
-29.56
-30.49
-27.28
-19.5
-7.71
6.4
20.41
31.94
39.38
42.28
41.23
37.39
31.87
25.46
18.72
12.1
6.07
1.08
-2.75
-5.71
-8.43
-11.59
-15.46
-19.72
-23.52
-25.88
-26.22
-24.74
-22.43
-20.75
-21.09
-24.24
-30.03
-37.32
-44.19
-48.41
-48.06
-42.04
-30.55
-15.07
2.03
18.2
31.4
40.66
46.07
48.37
48.39
46.62
43.19
38.13
31.77
24.9
18.58
13.7
10.53
8.64
7.05
4.82
1.5
-2.59
-6.57
-9.53
-11.09
-11.72
-12.48
-14.61
-18.88
-25.21
-32.62
-39.42
-43.68
-43.76
-38.79
-29.01
-15.74
-1.16
12.42
23.08
29.93
33.08
33.41
31.93
29.42
26.28
22.7
18.96
15.46
12.66
10.79
9.67
8.73
7.31
5.03
1.89
-1.64
-5.0
-7.79
-10.1
-12.47
-15.67
-20.36
-26.86
-34.97
-43.99
-52.75
-59.76
-63.41
-62.36
-56.01
-44.78
-30.16
-14.28
0.78
13.52
23.42
30.7
35.87
39.29
40.97
40.68
38.34
34.24
29.05
23.58
18.53
14.2
10.54
7.35
4.45
1.86
-0.26
-1.84
-3.04
-4.34
-6.46
-10.03
-15.47
-22.63
-30.8
-38.68
-44.61
-46.87
-44.25
-36.46
-24.31
-9.6
5.44
18.78
29.08
35.86
39.35
40.07
38.51
35.06
30.03
23.85
17.15
10.6
4.76
-0.13
-4.22
-7.89
-11.48
-15.15
-18.81
-22.3
-25.49
-28.44
-31.38
-34.59
-38.34
-42.7
-47.37
-51.59
-54.01
-53.02
-47.24
-36.18
-20.53
-2.18
16.54
33.47
47.23
57.29
63.66
66.54
66.1
62.58
56.46
48.57
39.95
31.61
24.2
17.91
12.51
7.59
2.8
-1.91
-6.34
-10.17
-13.3
-16.01
-19.04
-23.36
-29.75
-38.41
-48.59
-58.54
-65.82
-67.98
-63.31
-51.59
-34.19
-13.81
6.41
23.84
36.92
45.31
49.51
50.41
48.78
45.24
40.33
34.65
28.82
23.26
18.07
13.01
7.68
1.83
-4.3
-10.07
-14.73
-17.8
-19.43
-20.37
-21.69
-24.29
-28.62
-34.51
-41.28
-47.67
-52.06
-52.62
-47.72
-36.63
-19.99
0.19
20.92
39.22
52.97
61.34
64.72
64.14
60.76
55.62
49.52
43.09
36.75
30.67
24.77
18.76
12.36
5.45
-1.87
-9.3
-16.43
-22.92
-28.47
-33.06
-36.96
-40.69
-44.87
-49.69
-54.55
-57.8
-57.3
-51.23
-39.02
-21.88
-2.48
15.92
30.68
40.48
45.46
46.66
45.34
42.46
38.56
33.91
28.72
23.29
17.74
11.97
5.65
-1.52
-9.49
-17.73
-25.34
-31.39
-35.33
-37.25
-37.96
-38.66
-40.55
-44.21
-49.28
-54.3
-57.02
-55.09
-46.96
-32.46
-13.03
8.69
29.68
47.4
60.45
68.63
72.65
73.6
72.47
69.99
66.5
62.13
56.91
50.71
43.48
35.22
26.1
16.57
7.27
-1.06
-7.84
-12.79
-16.11
-18.41
-20.61
-23.66
-28.36
-35.04
-43.22
-51.35
-57.09
-57.86
-51.86
-38.86
-20.53
0.07
19.49
35.03
45.41
50.75
52.08
50.55
46.94
41.68
34.98
27.14
18.64
10.07
1.92
-5.56
-12.37
-18.63
-24.46
-29.74
-34.14
-37.22
-38.69
-38.61
-37.53
-36.46
-36.45
-38.1
-41.06
-43.94
-44.58
-40.88
-31.7
-17.42
0.03
18.03
34.11
46.82
55.85
61.68
64.92
65.88
64.5
60.71
54.75
47.25
39.17
31.33
24.24
17.99
12.36
7.08
1.94
-3.03
-7.65
-11.68
-15.02
-17.82
-20.58
-24.01
-28.7
-34.72
-41.3
-46.74
-48.95
-46.16
-37.7
-24.42
-8.46
7.5
21.09
31.03
37.1
39.86
39.99
37.88
33.66
27.51
19.98
11.98
4.45
-2.13
-7.86
-13.27
-18.77
-24.2
-28.8
-31.54
-31.79
-29.84
-26.83
-24.38
-23.89
-26.1
-30.92
-37.4
-43.99
-48.7
-49.45
-44.56
-33.36
-16.63
3.46
23.85
41.56
54.58
62.22
65.01
64.16
60.97
56.49
51.46
46.37
41.6
37.31
33.46
29.79
25.82
21.18
15.72
9.68
3.65
-1.7
-5.83
-8.62
-10.46
-12.18
-14.77
-19.09
-25.43
-33.29
-41.35
-47.68
-50.35
-47.9
-40.01
-27.54
-12.28
3.6
18.2
30.16
38.77
43.77
45.12
42.9
37.53
29.8
20.83
11.91
4.14
-1.9
-6.16
-9.03
-11.01
-12.44
-13.39
-13.75
-13.5
-12.92
-12.58
-13.21
-15.41
-19.43
-25.1
-31.77
-38.37
-43.41
-45.22
-42.27
-33.75
-19.98
-2.58
15.82
32.49
45.28
53.26
56.64
56.32
53.32
48.49
42.49
35.95
29.6
24.07
19.78
16.59
13.92
10.94
7.01
1.96
-3.86
-9.73
-14.94
-19.09
-22.32
-25.22
-28.72
-33.75
-40.79
-49.5
-58.49
-65.56
-68.26
-64.83
-55.04
-40.38
-23.61
-7.76
4.91
13.58
18.65
21.15
21.98
21.55
19.97
17.33
14.17
11.21
9.16
8.26
8.19
8.27
7.9
6.89
5.55
4.44
4.09
4.58
5.45
5.9
5.03
2.17
-2.79
-9.34
-16.26
-21.93
-24.65
-23.16
-17.06
-6.96
5.65
18.82
30.73
40.06
46.2
49.11
49.21
47.04
43.2
38.21
32.54
26.6
20.67
14.93
9.51
4.48
-0.07
-4.11
-7.69
-10.79
-13.37
-15.38
-16.87
-18.14
-19.85
-22.9
-28.14
-35.94
-45.84
-56.46
-65.62
-70.94
-70.58
-63.86
-51.58
-35.81
-19.24
-4.36
7.17
14.77
18.81
20.24
20.16
19.55
19.07
19.04
19.4
19.82
19.83
19.09
17.46
15.19
12.81
10.79
9.4
8.58
7.92
6.84
4.79
1.33
-3.8
-10.43
-17.84
-24.62
-28.94
-29.02
-23.85
-13.77
-0.51
13.26
24.94
32.8
36.5
36.85
35.16
32.51
29.38
25.69
21.24
16.08
10.62
5.49
1.13
-2.41
-5.42
-8.34
-11.42
-14.48
-17.15
-19.16
-20.63
-22.25
-25.03
-29.86
-36.98
-45.71
-54.4
-60.87
-63.02
-59.44
-49.96
-35.68
-18.67
-1.34
14.23
26.64
35.42
40.77
43.31
43.84
43.14
41.88
40.6
39.58
38.71
37.55
35.48
31.96
26.85
20.51
13.74
7.53
2.74
-0.28
-1.7
-2.37
-3.41
-5.97
-10.83
-18.07
-26.96
-35.97
-43.09
-46.28
-43.96
-35.61
-21.94
-4.84
13.14
29.46
42.19
50.36
53.91
53.37
49.47
42.95
34.5
24.88
14.96
5.63
-2.4
-8.82
-13.81
-17.81
-21.26
-24.42
-27.29
-29.77
-31.91
-33.94
-36.41
-39.96
-45.09
-51.75
-59.23
-65.96
-69.93
-69.19
-62.62
-50.37
-33.83
-15.31
2.9
19.1
32.49
42.92
50.49
55.19
56.86
55.53
51.54
45.72
38.96
32.08
25.64
19.98
15.33
11.79
9.32
7.55
5.95
3.82
0.6
-4.09
-10.41
-18.34
-27.6
-37.32
-45.93
-51.23
-51.02
-43.99
-30.31
-11.93
8.06
26.39
40.61
49.64
53.71
53.83
51.28
47.1
41.93
36.11
29.81
23.14
16.19
8.99
1.59
-5.92
-13.31
-20.1
-25.71
-29.69
-31.98
-33.14
-34.15
-36.08
-39.67
-44.98
-51.27
-57.05
-60.43
-59.41
-52.55
-39.39
-20.77
1.1
23.24
42.7
57.42
66.6
70.65
70.66
67.79
62.95
56.8
49.88
42.77
35.94
29.63
23.71
17.79
11.46
4.54
-2.81
-10.1
-16.78
-22.44
-27.01
-30.86
-34.74
-39.54
-45.78
-53.3
-60.9
-66.5
-67.73
-62.8
-51.25
-34.25
-14.27
5.73
23.25
36.72
45.74
50.65
52.2
51.13
48.1
43.62
38.1
31.82
24.89
17.32
9.16
0.64
-7.7
-15.22
-21.39
-26.0
-29.26
-31.67
-33.85
-36.41
-39.76
-44.03
-48.77
-52.82
-54.39
-51.44
-42.55
-27.6
-8.11
13.08
32.76
48.37
58.63
63.64
64.27
61.67
56.84
50.56
43.57
36.61
30.28
24.81
20.01
15.28
10.03
4.05
-2.46
-8.85
-14.44
-18.76
-21.67
-23.53
-25.06
-27.17
-30.7
-36.04
-42.66
-48.93
-52.45
-50.79
-42.49
-27.87
-8.99
10.94
28.74
42.24
50.62
54.26
54.04
50.89
45.47
38.4
30.33
22.05
14.28
7.38
1.2
-4.75
-10.99
-17.7
-24.51
-30.72
-35.66
-39.08
-41.36
-43.29
-45.81
-49.48
-54.24
-59.13
-62.59
-62.77
-58.12
-48.03
-33.02
-14.81
4.21
21.67
35.85
46.02
52.4
55.78
57.01
56.78
55.49
53.37
50.62
47.36
43.55
38.93
33.14
25.96
17.61
8.87
0.92
-5.13
-8.69
-10.07
-10.37
-11.15
-13.85
-19.19
-26.92
-35.75
-43.61
-48.21
-47.64
-41.04
-28.9
-12.96
4.29
20.31
33.28
42.24
47.19
48.65
47.3
43.78
38.64
32.41
25.64
18.9
12.64
7.07
2.17
-2.28
-6.47
-10.48
-14.23
-17.48
-19.93
-21.4
-22.01
-22.12
-22.43
-23.54
-25.72
-28.55
-30.92
-31.26
-28.04
-20.48
-8.84
5.48
20.47
34.0
44.49
51.05
53.57
52.38
48.13
41.72
34.15
26.46
19.44
13.4
8.09
2.91
-2.74
-9.03
-15.54
-21.48
-26.09
-28.95
-30.21
-30.48
-30.69
-31.8
-34.6
-39.31
-45.32
-50.97
-53.77
-51.18
-41.69
-25.66
-5.43
15.37
33.11
45.38
51.65
52.9
50.91
47.19
42.57
37.23
31.06
24.14
16.93
10.09
4.21
-0.55
-4.36
-7.64
-10.7
-13.48
-15.59
-16.54
-16.12
-14.72
-13.32
-13.18
-15.38
-20.24
-27.12
-34.36
-39.68
-40.82
-36.23
-25.65
-10.33
7.26
24.2
37.88
46.73
50.42
49.66
45.7
39.88
33.3
26.8
20.93
16.02
12.17
9.22
6.81
4.5
2.01
-0.84
-3.92
-7.01
-9.84
-12.28
-14.51
-16.97
-20.25
-24.87
-30.86
-37.55
-43.61
-47.28
-47.04
-42.14
-33.05
-21.36
-9.32
0.89
7.76
10.8
10.41
7.6
3.5
-0.97
-5.2
-8.82
-11.65
-13.59
-14.69
-15.09
-14.9
-14.13
-12.64
-10.21
-6.75
-2.49
1.91
5.47
7.15
6.17
2.33
-3.83
-10.93
-16.94
-19.59
-17.0
-8.34
5.75
23.18
41.04
56.48
67.63
73.86
75.73
74.39
71.0
66.32
60.76
54.61
48.23
42.04
36.42
31.44
26.86
22.19
17.01
11.24
5.24
-0.29
-4.62
-7.34
-8.59
-9.12
-10.08
-12.68
-17.7
-25.19
-34.22
-43.06
-49.53
-51.76
-48.73
-40.83
-29.66
-17.66
-7.27
-0.14
3.17
3.14
0.88
-2.46
-5.97
-9.18
-11.97
-14.35
-16.25
-17.55
-18.02
-17.56
-16.21
-14.21
-12.01
-10.17
-9.13
-9.15
-10.22
-12.17
-14.63
-17.2
-19.23
-19.86
-18.05
-12.92
-4.12
7.8
21.46
35.03
46.68
55.19
60.11
61.63
60.34
56.84
51.58
44.87
36.95
28.12
18.75
9.33
0.44
-7.4
-13.75
-18.38
-21.34
-22.93
-23.67
-24.16
-24.99
-26.66
-29.42
-33.21
-37.43
-40.9
-42.07
-39.5
-32.46
-21.37
-7.73
6.29
18.57
27.6
32.83
34.46
33.11
29.57
24.58
18.85
13.12
8.08
4.23
1.8
0.76
0.86
1.84
3.4
5.27
7.08
8.47
9.13
8.98
8.17
7.14
6.37
6.28
7.01
8.32
9.66
10.32
9.68
7.56
4.25
0.57
-2.5
-4.18
-4.2
-2.95
-1.23
0.09
0.43
-0.27
-1.77
-3.74
-6.05
-8.78
-12.05
-15.76
-19.52
-22.75
-25.0
-26.16
-26.49
-26.54
-26.94
-28.1
-30.3
-33.63
-37.98
-43.04
-48.11
-52.15
-53.94
-52.4
-46.93
-37.69
-25.53
-11.83
1.97
14.58
25.16
33.27
38.8
41.84
42.6
41.31
38.23
33.65
27.83
21.06
13.68
6.19
-0.83
-6.76
-11.09
-13.68
-14.8
-15.03
-15.04
-15.44
-16.69
-19.1
-22.75
-27.33
-32.08
-35.76
-36.9
-34.28
-27.39
-16.72
-3.69
9.79
21.73
30.69
35.85
37.12
34.95
30.2
23.91
17.11
10.62
4.9
0.04
-4.05
-7.51
-10.46
-12.91
-14.92
-16.67
-18.44
-20.6
-23.45
-27.2
-32.02
-37.89
-44.54
-51.3
-56.86
-59.54
-57.71
-50.38
-37.63
-20.72
-1.68
17.19
33.91
47.07
55.96
60.43
60.83
57.9
52.67
46.25
39.59
33.31
27.65
22.52
17.73
13.14
8.73
4.67
1.17
-1.67
-3.83
-5.57
-7.34
-9.71
-13.34
-18.72
-25.89
-34.15
-41.98
-47.2
-47.61
-41.79
-29.76
-13.11
5.46
23.03
37.37
47.43
53.29
55.63
55.22
52.55
47.95
41.82
34.79
27.62
20.88
14.63
8.44
1.69
-5.91
-14.13
-22.17
-29.14
-34.51
-38.47
-41.85
-45.81
-51.24
-58.34
-66.36
-73.67
-78.09
-77.41
-70.1
-55.89
-35.97
-12.9
10.16
30.24
45.35
54.83
59.25
59.87
58.08
54.92
50.89
46.08
40.46
34.19
27.63
21.32
15.69
10.95
7.02
3.62
0.41
-2.92
-6.56
-10.65
-15.36
-20.88
-27.26
-34.13
-40.49
-44.81
-45.36
-40.89
-31.16
-17.25
-1.32
14.03
26.59
35.07
39.35
40.17
38.68
36.06
33.19
30.54
28.04
25.23
21.44
16.06
8.93
0.41
-8.6
-17.04
-23.99
-29.11
-32.67
-35.4
-38.24
-42.05
-47.34
-54.01
-61.11
-66.83
-68.68
-64.24
-52.0
-32.23
-7.12
19.73
44.49
64.23
77.67
85.14
87.91
87.35
84.41
79.58
73.17
65.59
57.39
49.14
41.22
33.66
26.29
18.89
11.52
4.43
-1.93
-7.19
-11.24
-14.38
-17.28
-20.77
-25.59
-31.96
-39.44
-46.84
-52.39
-54.05
-50.27
-40.51
-25.55
-7.52
10.78
26.73
38.69
46.26
50.12
51.3
50.49
47.84
42.99
35.58
25.75
14.27
2.32
-9.03
-19.14
-27.88
-35.49
-42.3
-48.52
-54.22
-59.54
-64.72
-70.23
-76.47
-83.4
-90.26
-95.51
-97.02
-92.72
-81.33
-62.9
-38.97
-12.27
13.98
36.98
54.96
67.38
74.7
77.91
78.1
76.25
73.18
69.53
65.81
62.31
58.93
55.32
50.92
45.28
38.31
30.37
22.16
14.43
7.7
2.03
-3.05
-8.32
-14.63
-22.35
-31.0
-39.08
-44.28
-44.31
-37.67
-24.37
-6.13
14.17
33.32
48.85
59.39
64.8
65.69
63.05
57.81
50.8
42.74
34.31
25.99
18.1
10.78
4.09
-1.97
-7.48
-12.58
-17.48
-22.41
-27.4
-32.35
-36.97
-41.14
-44.92
-48.66
-52.75
-57.17
-61.24
-63.56
-62.39
-56.27
-44.71
-28.48
-9.51
9.7
26.81
40.14
49.04
53.71
54.9
53.54
50.53
46.6
42.31
37.97
33.55
28.74
23.06
16.2
8.28
-0.0
-7.54
-13.28
-16.63
-17.78
-17.66
-17.68
-19.15
-22.92
-28.99
-36.43
-43.41
-47.52
-46.46
-38.74
-24.42
-5.28
15.65
34.91
49.67
58.44
61.15
58.79
52.73
44.34
34.7
24.72
15.15
6.56
-0.8
-7.05
-12.71
-18.37
-24.49
-31.03
-37.49
-43.05
-46.91
-48.71
-48.68
-47.64
-46.69
-46.73
-47.92
-49.44
-49.65
-46.57
-38.67
-25.54
-8.28
10.83
28.94
43.61
53.52
58.61
59.84
58.5
55.63
51.76
47.07
41.63
35.71
29.71
24.01
18.69
13.5
8.02
2.07
-4.08
-9.75
-14.15
-16.86
-18.12
-18.84
-20.28
-23.54
-29.05
-36.36
-44.14
-50.41
-53.04
-50.27
-41.32
-26.73
-8.39
10.98
28.46
41.82
49.89
52.71
51.05
46.0
38.61
29.78
20.43
11.48
3.76
-2.21
-6.47
-9.56
-12.22
-15.07
-18.26
-21.46
-24.11
-25.69
-26.01
-25.27
-23.95
-22.7
-22.12
-22.7
-24.51
-27.1
-29.36
-29.86
-27.22
-20.67
-10.38
2.59
16.66
30.17
41.83
50.73
56.37
58.57
57.52
53.81
48.35
42.09
35.81
29.87
24.3
18.99
13.9
9.09
4.58
0.37
-3.73
-7.82
-11.86
-15.68
-19.07
-22.13
-25.27
-29.09
-33.88
-39.29
-44.07
-46.37
-44.37
-37.04
-24.59
-8.53
8.64
24.27
36.14
42.92
44.33
40.94
33.95
24.77
14.86
5.52
-2.38
-8.42
-12.7
-15.76
-18.31
-20.92
-23.78
-26.59
-28.64
-29.27
-28.16
-25.53
-22.16
-19.18
-17.59
-18.08
-20.74
-24.97
-29.54
-32.74
-32.75
-28.16
-18.56
-4.84
11.04
26.6
39.61
48.71
53.51
54.29
51.62
46.14
38.44
29.32
19.83
11.21
4.46
0.08
-2.19
-3.15
-3.75
-4.62
-5.89
-7.2
-8.0
-7.92
-7.0
-5.82
-5.3
-6.37
-9.61
-15.03
-21.96
-29.19
-35.17
-38.36
-37.6
-32.42
-23.31
-11.59
0.89
12.32
21.28
27.07
29.6
29.18
26.23
21.26
14.91
8.02
1.59
-3.44
-6.58
-7.96
-8.29
-8.46
-9.14
-10.52
-12.3
-14.04
-15.37
-16.29
-17.08
-18.18
-19.93
-22.42
-25.36
-27.96
-29.11
-27.57
-22.4
-13.34
-1.1
12.74
26.1
37.03
44.11
46.82
45.46
40.9
34.33
26.99
19.95
14.0
9.47
6.28
3.98
2.06
0.12
-1.95
-3.94
-5.59
-6.7
-7.25
-7.46
-7.66
-8.24
-9.59
-12.17
-16.4
-22.46
-29.92
-37.61
-43.6
-45.84
-42.78
-34.2
-21.32
-6.48
7.67
19.04
26.65
30.51
31.27
29.65
26.17
21.24
15.28
8.93
2.95
-2.01
-5.65
-8.11
-9.79
-11.13
-12.27
-13.12
-13.42
-13.15
-12.63
-12.47
-13.34
-15.65
-19.27
-23.47
-27.06
-28.61
-26.92
-21.27
-11.71
0.89
15.02
28.94
41.1
50.49
56.83
60.34
61.51
60.79
58.53
54.97
50.38
45.14
39.67
34.32
29.25
24.44
19.71
14.93
10.18
5.69
1.83
-1.17
-3.3
-4.99
-6.98
-10.12
-15.1
-22.07
-30.58
-39.53
-47.5
-53.02
-55.04
-53.12
-47.53
-39.21
-29.48
-19.71
-10.9
-3.5
2.55
7.5
11.46
14.24
15.51
15.11
13.29
10.75
8.33
6.63
5.79
5.51
5.45
5.39
5.36
5.46
5.64
5.59
4.84
3.07
0.16
-3.75
-8.21
-12.55
-15.82
-16.92
-14.79
-8.86
0.6
12.35
24.5
35.01
42.39
46.02
46.18
43.69
39.54
34.52
29.14
23.64
18.08
12.47
6.82
1.18
-4.33
-9.54
-14.3
-18.5
-22.08
-25.09
-27.67
-30.01
-32.34
-34.91
-37.97
-41.67
-45.92
-50.3
-53.98
-55.88
-54.91
-50.27
-41.83
-30.16
-16.51
-2.49
10.32
20.72
28.11
32.35
33.71
32.61
29.66
25.53
20.98
16.72
13.27
10.78
9.09
7.73
6.3
4.51
2.34
-0.04
-2.42
-4.67
-6.79
-8.89
-11.19
-14.0
-17.53
-21.68
-25.89
-29.0
-29.46
-25.9
-17.73
-5.56
8.86
23.07
34.81
42.56
45.91
45.32
41.77
36.26
29.68
22.69
15.81
9.48
3.86
-1.14
-5.79
-10.44
-15.18
-19.8
-23.89
-27.01
-28.98
-29.96
-30.47
-31.14
-32.59
-35.3
-39.38
-44.49
-49.73
-53.62
-54.45
-50.72
-41.78
-28.14
-11.35
6.44
23.1
36.99
47.13
53.1
54.98
53.27
48.86
43.01
36.99
31.87
28.07
25.44
23.33
21.05
18.21
14.78
11.08
7.48
4.2
1.32
-1.2
-3.45
-5.58
-7.79
-10.48
-14.03
-18.67
-24.08
-29.25
-32.59
-32.41
-27.61
-18.26
-5.72
7.83
20.03
29.1
34.22
35.5
33.7
29.76
24.49
18.53
12.35
6.33
0.75
-4.28
-8.88
-13.36
-17.99
-22.84
-27.66
-31.96
-35.21
-37.02
-37.38
-36.63
-35.36
-34.21
-33.68
-33.95
-34.76
-35.4
-34.81
-31.8
-25.47
-15.55
-2.61
12.01
26.57
39.46
49.58
56.45
60.03
60.59
58.39
53.82
47.5
40.32
33.39
27.62
23.41
20.39
17.63
14.06
9.06
2.77
-3.92
-9.78
-13.87
-15.97
-16.76
-17.45
-19.29
-23.01
-28.54
-35.03
-41.15
-45.43
-46.61
-43.88
-37.02
-26.49
-13.36
0.84
14.32
25.58
33.58
37.99
39.01
37.17
33.07
27.33
20.69
13.96
7.98
3.32
0.1
-2.16
-4.25
-6.91
-10.29
-13.87
-16.65
-17.79
-17.06
-15.15
-13.3
-12.86
-14.68
-18.73
-24.22
-29.76
-33.76
-34.73
-31.64
-24.07
-12.46
1.96
17.36
31.61
42.85
49.91
52.51
51.21
47.08
41.28
34.78
28.2
21.85
15.9
10.45
5.6
1.43
-2.02
-4.77
-6.87
-8.37
-9.42
-10.21
-10.99
-12.08
-13.71
-16.04
-19.14
-23.01
-27.5
-32.15
-36.07
-38.1
-37.07
-32.29
-23.94
-13.13
-1.57
8.96
17.15
22.42
24.85
25.02
23.63
21.34
18.65
15.91
13.4
11.21
9.34
7.62
5.8
3.72
1.44
-0.8
-2.55
-3.43
-3.34
-2.56
-1.8
-1.92
-3.61
-7.18
-12.27
-17.91
-22.67
-25.0
-23.65
-18.18
-9.09
2.14
13.48
22.96
29.18
31.75
31.18
28.54
24.94
21.14
17.49
14.0
10.68
7.64
5.06
3.09
1.62
0.2
-1.74
-4.65
-8.49
-12.63
-16.16
-18.27
-18.64
-17.73
-16.48
-15.98
-17.0
-19.73
-23.72
-27.99
-31.31
-32.5
-30.75
-25.74
-17.88
-8.14
2.16
11.68
19.41
24.84
27.99
29.08
28.37
26.13
22.55
18.03
13.23
8.92
5.7
3.71
2.48
1.14
-1.15
-4.63
-8.83
-12.65
-14.92
-14.98
-12.96
-9.7
-6.45
-4.35
-4.1
-5.76
-8.66
-11.58
-12.96
-11.41
-6.13
2.66
13.75
25.16
34.88
41.39
44.0
42.9
38.89
33.08
26.54
20.18
14.66
10.38
7.39
5.48
4.16
2.94
1.42
-0.51
-2.75
-5.07
-7.2
-8.94
-10.23
-11.16
-12.02
-13.28
-15.5
-18.99
-23.58
-28.4
-32.0
-32.75
-29.43
-21.82
-10.8
1.93
14.4
24.99
32.79
37.63
39.89
40.06
38.58
35.68
31.52
26.42
20.91
15.62
11.09
7.54
4.74
2.14
-0.84
-4.44
-8.52
-12.6
-16.23
-19.29
-22.15
-25.5
-30.07
-36.25
-43.82
-51.83
-58.69
-62.45
-61.25
-53.99
-40.97
-23.97
-5.91
10.08
21.77
28.39
30.66
30.07
27.93
24.9
20.98
16.1
10.66
5.61
2.0
0.35
0.25
0.53
-0.12
-2.39
-6.05
-10.09
-13.31
-14.97
-15.23
-14.93
-15.22
-16.99
-20.43
-24.9
-29.03
-31.12
-29.59
-23.64
-13.52
-0.64
12.92
25.01
34.07
39.45
41.36
40.48
37.56
33.28
28.21
22.9
17.91
13.69
10.43
7.95
5.77
3.3
0.12
-3.91
-8.6
-13.52
-18.29
-22.65
-26.63
-30.51
-34.62
-39.18
-44.07
-48.69
-52.03
-52.82
-49.89
-42.48
-30.61
-15.23
1.91
18.56
32.63
42.63
48.08
49.36
47.48
43.55
38.45
32.71
26.61
20.38
14.34
8.86
4.32
0.91
-1.42
-2.87
-3.79
-4.48
-5.14
-5.95
-7.06
-8.73
-11.3
-15.13
-20.24
-26.11
-31.53
-34.76
-34.07
-28.38
-17.71
-3.41
12.22
26.57
37.51
43.9
45.77
44.0
39.89
34.67
29.25
24.18
19.71
15.93
12.8
10.14
7.58
4.65
0.93
-3.67
-8.85
-13.92
-18.09
-20.78
-21.85
-21.78
-21.47
-22.01
-24.11
-27.83
-32.26
-35.85
-36.82
-33.78
-26.29
-14.99
-1.4
12.51
24.88
34.38
40.37
42.8
42.02
38.64
33.4
27.13
20.7
14.91
10.28
6.84
4.15
1.43
-2.09
-6.76
-12.26
-17.8
-22.42
-25.46
-26.77
-26.76
-26.11
-25.51
-25.45
-26.17
-27.59
-29.27
-30.34
-29.58
-25.74
-17.96
-6.34
8.0
23.06
36.51
46.42
51.77
52.52
49.42
43.62
36.32
28.61
21.31
14.94
9.72
5.54
2.09
-0.96
-3.81
-6.51
-8.92
-10.87
-12.26
-13.14
-13.71
-14.22
-14.96
-16.21
-18.18
-20.95
-24.31
-27.66
-29.99
-30.08
-26.94
-20.06
-9.87
2.29
14.53
24.97
32.22
35.7
35.6
32.55
27.32
20.65
13.24
5.85
-0.76
-6.05
-9.8
-12.26
-13.86
-14.89
-15.36
-14.93
-13.16
-9.89
-5.43
-0.54
3.8
6.68
7.62
6.73
4.8
3.29
3.91
8.13
16.51
28.27
41.3
52.82
60.34
62.52
59.54
52.8
44.21
35.43
27.44
20.53
14.77
10.18
6.91
5.0
4.1
3.48
2.26
-0.33
-4.5
-9.9
-15.75
-21.21
-25.62
-28.77
-30.87
-32.46
-34.25
-36.94
-40.94
-46.19
-52.0
-57.03
-59.66
-58.51
-52.86
-43.17
-30.86
-17.97
-6.49
2.14
7.39
9.43
8.9
6.64
3.39
-0.08
-3.18
-5.38
-6.48
-6.6
-6.17
-5.61
-5.17
-4.81
-4.1
-2.64
-0.18
3.16
6.99
10.68
13.54
15.0
14.6
12.17
7.91
2.64
-2.32
-5.42
-5.45
-2.1
3.81
10.48
15.87
18.46
17.75
14.25
9.12
3.54
-1.67
-6.05
-9.39
-11.48
-12.22
-11.68
-10.2
-8.45
-7.13
-6.72
-7.37
-8.88
-10.8
-12.68
-14.22
-15.35
-16.39
-17.95
-20.84
-25.61
-32.17
-39.46
-45.58
-48.41
-46.27
-38.69
-26.62
-12.03
2.76
15.74
25.76
32.44
36.03
36.96
35.72
32.8
28.78
24.41
20.41
17.35
15.44
14.51
14.06
13.57
12.75
11.54
10.15
8.81
7.64
6.54
5.21
3.23
0.21
-4.15
-9.83
-16.29
-22.38
-26.48
-26.96
-22.71
-13.67
-1.05
12.95
25.89
35.86
41.91
44.11
43.12
39.65
34.34
27.67
20.26
12.98
6.77
2.27
-0.51
-2.16
-3.77
-6.2
-9.76
-14.1
-18.42
-21.99
-24.46
-26.05
-27.41
-29.41
-32.67
-37.4
-43.1
-48.66
-52.43
-52.73
-48.26
-38.61
-24.55
-7.81
9.21
24.11
35.02
40.97
42.05
39.2
33.94
27.89
22.35
17.98
14.77
12.3
9.95
7.29
4.18
0.71
-2.92
-6.56
-10.13
-13.64
-17.07
-20.49
-24.05
-28.1
-33.03
-38.98
-45.5
-51.34
-54.62
-53.36
-46.33
-33.54
-16.47
2.52
20.81
36.35
48.04
55.49
58.88
58.64
55.36
49.87
43.07
35.86
28.78
22.01
15.37
8.59
1.61
-5.36
-11.85
-17.42
-21.81
-25.07
-27.55
-29.82
-32.45
-36.05
-40.96
-47.05
-53.5
-58.65
-60.24
-56.11
-45.06
-27.46
-5.45
17.71
38.74
55.41
66.99
74.04
77.54
78.18
76.11
71.29
63.95
54.96
45.59
37.04
29.96
24.34
19.7
15.48
11.36
7.47
4.13
1.83
0.87
1.17
2.06
2.4
0.91
-3.22
-9.63
-16.63
-21.56
-21.81
-15.85
-3.99
11.71
28.29
42.83
53.33
58.96
59.79
56.41
49.59
40.17
29.15
17.71
7.09
-1.81
-8.7
-14.01
-18.65
-23.49
-28.96
-34.88
-40.46
-44.77
-46.99
-46.82
-44.49
-40.67
-36.42
-32.81
-30.73
-30.46
-31.5
-32.5
-31.62
-27.15
-18.22
-5.24
10.22
25.92
39.7
49.95
55.96
57.67
55.49
49.97
41.86
32.03
21.57
11.57
2.84
-4.23
-9.83
-14.58
-19.12
-23.83
-28.63
-33.04
-36.4
-38.23
-38.48
-37.69
-36.88
-37.27
-39.87
-45.01
-51.97
-58.87
-63.09
-62.02
-54.02
-39.14
-19.23
2.57
22.84
38.85
49.21
53.86
53.56
49.51
42.85
34.59
25.78
17.51
10.77
6.24
3.97
3.39
3.65
4.09
4.57
5.57
7.9
12.09
17.96
24.41
29.75
32.3
30.96
25.65
17.36
7.92
-0.33
-5.11
-4.78
1.08
11.47
24.19
36.54
46.18
51.82
53.37
51.64
47.65
42.21
35.74
28.48
20.78
13.18
6.21
0.18
-4.98
-9.67
-14.32
-19.11
-23.89
-28.12
-31.21
-32.76
-32.8
-31.85
-30.78
-30.57
-32.06
-35.81
-41.94
-50.03
-58.92
-66.82
-71.54
-71.06
-64.23
-51.3
-34.02
-15.07
2.71
17.1
27.01
32.35
33.65
31.68
27.23
21.1
14.33
8.04
3.24
0.53
-0.21
0.28
0.94
0.87
-0.28
-2.2
-4.13
-5.39
-5.71
-5.36
-5.14
-5.96
-8.59
-13.26
-19.56
-26.29
-31.63
-33.52
-30.21
-21.04
-6.8
10.35
27.48
41.85
51.78
56.99
58.37
57.18
54.46
50.58
45.38
38.75
30.99
23.07
16.22
11.39
8.67
7.13
5.34
2.0
-3.42
-10.38
-17.66
-24.01
-28.81
-32.26
-35.28
-38.97
-44.06
-50.74
-58.46
-66.14
-72.28
-75.18
-73.19
-65.19
-51.03
-31.81
-9.72
12.51
32.25
47.65
57.79
62.69
62.94
59.48
53.45
46.12
38.72
32.26
27.26
23.66
20.85
18.06
14.69
10.62
6.28
2.4
-0.33
-1.69
-1.99
-2.15
-3.39
-6.84
-13.15
-22.08
-32.28
-41.35
-46.39
-44.89
-35.69
-19.51
1.14
22.77
42.09
56.87
66.38
70.99
71.53
68.8
63.32
55.55
46.21
36.37
27.23
19.81
14.4
10.57
7.33
3.64
-1.16
-7.04
-13.4
-19.35
-24.16
-27.55
-29.8
-31.51
-33.47
-36.43
-40.83
-46.69
-53.3
-59.2
-62.39
-60.9
-53.52
-40.44
-23.38
-5.1
11.48
24.17
32.01
35.22
34.79
31.93
27.71
23.04
18.72
15.44
13.53
12.85
12.71
12.15
10.39
7.13
2.67
-2.2
-6.61
-9.94
-12.06
-13.43
-14.89
-17.52
-22.18
-29.02
-37.13
-44.54
-48.57
-46.68
-37.55
-21.68
-1.44
19.67
38.22
51.78
59.46
61.78
59.91
55.11
48.26
39.95
30.73
21.35
12.65
5.33
-0.4
-4.94
-9.04
-13.3
-17.83
-22.13
-25.43
-27.11
-27.13
-26.19
-25.51
-26.24
-28.95
-33.28
-37.85
-40.63
-39.59
-33.31
-21.54
-5.43
12.79
30.32
44.64
54.15
58.41
57.97
53.99
47.77
40.45
32.95
25.98
20.02
15.24
11.42
8.0
4.33
0.03
-4.76
-9.41
-13.18
-15.58
-16.75
-17.43
-18.68
-21.42
-26.15
-32.67
-40.04
-46.61
-50.27
-49.05
-41.68
-28.28
-10.47
8.91
26.78
40.63
49.17
52.35
50.98
46.19
39.07
30.61
21.73
13.27
5.86
-0.22
-5.14
-9.36
-13.33
-17.28
-21.12
-24.54
-27.13
-28.67
-29.14
-28.84
-28.33
-28.32
-29.45
-32.02
-35.75
-39.6
-41.92
-40.93
-35.18
-24.27
-9.02
8.64
26.21
41.34
52.47
58.98
61.11
59.57
55.17
48.63
40.63
31.86
23.03
14.81
7.66
1.75
-3.03
-6.93
-10.21
-13.03
-15.33
-17.02
-17.9
-18.05
-17.82
-17.89
-19.06
-21.88
-26.15
-30.88
-34.31
-34.47
-30.02
-20.73
-7.7
6.91
20.59
31.23
37.64
39.68
38.1
34.02
28.52
22.42
16.2
10.14
4.44
-0.76
-5.35
-9.27
-12.57
-15.21
-17.1
-18.13
-18.23
-17.45
-16.02
-14.35
-12.94
-12.33
-12.88
-14.75
-17.62
-20.65
-22.47
-21.64
-17.05
-8.49
3.1
15.84
27.52
36.2
40.78
41.1
37.78
31.83
24.39
16.56
9.27
3.26
-1.16
-4.02
-5.8
-7.17
-8.71
-10.67
-12.93
-15.11
-16.79
-17.68
-17.71
-17.03
-15.99
-15.12
-15.11
-16.56
-19.77
-24.34
-29.08
-32.18
-31.77
-26.71
-17.15
-4.6
8.43
19.41
26.55
29.22
27.91
23.72
17.86
11.29
4.7
-1.36
-6.32
-9.72
-11.4
-11.62
-11.04
-10.44
-10.37
-10.94
-11.82
-12.55
-12.8
-12.47
-11.83
-11.32
-11.47
-12.65
-14.91
-17.74
-20.06
-20.42
-17.46
-10.44
0.27
13.22
26.25
37.17
44.53
47.87
47.65
44.85
40.48
35.27
29.73
24.16
18.85
13.98
9.69
5.93
2.54
-0.7
-3.95
-7.23
-10.42
-13.32
-15.79
-17.82
-19.63
-21.67
-24.54
-28.74
-34.38
-40.85
-46.81
-50.48
-50.14
-44.88
-35.04
-22.2
-8.64
3.3
11.96
16.74
18.04
16.8
14.12
10.82
7.37
3.99
0.78
-2.16
-4.71
-6.76
-8.23
-9.1
-9.43
-9.26
-8.69
-7.83
-6.87
-6.15
-6.24
-7.77
-11.21
-16.45
-22.54
-27.71
-29.75
-26.77
-18.0
-4.22
12.4
29.1
43.29
53.38
58.87
60.14
58.02
53.42
47.2
40.15
33.05
26.54
21.01
16.48
12.65
9.14
5.55
1.75
-2.2
-6.12
-9.72
-12.73
-15.06
-16.94
-19.04
-22.38
-27.8
-35.46
-44.34
-52.22
-56.19
-53.79
-44.0
-27.89
-8.35
10.93
26.64
36.9
41.48
41.46
38.41
33.71
28.18
22.23
16.03
9.85
4.04
-1.13
-5.52
-9.18
-12.24
-14.73
-16.55
-17.5
-17.44
-16.32
-14.31
-11.86
-9.67
-8.6
-9.25
-11.57
-14.44
-15.84
-13.44
-5.63
7.62
24.59
42.31
57.6
68.13
72.89
72.16
66.98
58.63
48.4
37.37
26.5
16.51
7.79
0.37
-5.96
-11.48
-16.3
-20.49
-24.08
-27.26
-30.36
-33.7
-37.57
-42.12
-47.49
-53.78
-60.88
-68.17
-74.23
-77.0
-74.26
-64.54
-47.87
-26.13
-2.46
19.61
37.26
48.99
54.66
55.08
51.53
45.41
37.99
30.32
23.22
17.17
12.27
8.28
4.89
1.87
-0.85
-3.19
-5.07
-6.51
-7.86
-9.66
-12.71
-17.79
-25.32
-34.92
-45.09
-53.4
-57.0
-53.63
-42.44
-24.53
-2.59
19.87
39.66
54.66
64.09
68.23
67.93
64.09
57.5
48.93
39.3
29.62
20.83
13.46
7.42
2.02
-3.58
-9.98
-17.15
-24.47
-31.1
-36.46
-40.54
-43.99
-47.86
-53.21
-60.74
-70.43
-81.27
-91.19
-97.4
-97.06
-88.24
-70.83
-46.79
-19.7
6.47
28.55
44.94
55.63
61.52
63.83
63.44
60.93
56.75
51.37
45.32
