2013-02-24 10:35:51
64.0
-0.0
-0.0
-0.0
-0.0
-0.0
-0.0
-0.0
-0.0
-0.0
-0.0
0.0
0.01
0.01
-0.0
-0.03
-0.05
-0.05
0.0
0.13
0.36
0.66
1.01
1.37
1.72
2.06
2.4
2.79
3.24
3.8
4.42
5.06
5.66
6.2
6.68
7.15
7.68
8.31
9.14
10.09
11.04
11.88
12.56
13.14
13.76
14.65
15.96
17.91
20.32
22.9
25.38
27.58
29.57
31.68
34.32
37.81
42.54
48.15
54.1
59.83
64.97
69.58
74.14
79.34
85.71
93.76
103.0
112.62
121.73
129.77
136.75
143.3
150.75
157.77
166.64
177.95
191.79
206.97
220.57
228.25
225.36
208.53
176.87
132.76
80.05
23.07
-34.94
-92.44
-149.16
-205.23
-260.37
-313.74
-363.87
-409.83
-450.91
-486.5
-515.74
-537.23
-549.22
-549.96
-538.37
-514.21
-478.67
-433.88
-382.45
-327.02
-269.84
-212.63
-156.66
-102.95
-52.37
-5.9
35.58
71.43
101.35
125.5
144.38
158.69
169.15
176.37
180.75
182.57
182.07
179.51
175.23
169.65
163.18
156.15
148.81
141.3
133.69
126.02
118.33
110.69
103.16
95.8
88.68
81.83
75.25
68.95
62.95
57.25
51.86
46.78
42.03
37.59
33.45
29.61
26.07
22.81
19.83
17.11
14.67
12.48
10.54
8.83
7.35
6.07
4.97
4.05
3.27
2.62
2.09
1.65
1.3
1.01
0.79
0.61
0.48
0.37
0.29
0.24
0.19
0.17
0.15
0.16
0.18
0.22
0.26
0.28
0.27
0.23
0.16
0.09
0.05
0.05
0.09
0.16
0.22
0.25
0.23
0.18
0.14
0.13
0.18
0.3
0.43
0.54
0.58
0.52
0.41
0.31
0.32
0.5
0.81
1.18
1.45
1.5
1.3
0.94
0.6
0.51
0.79
1.43
2.2
2.79
2.92
2.52
1.75
0.99
0.64
0.98
1.95
3.22
4.25
4.57
4.03
2.87
1.64
0.88
0.92
1.64
2.54
2.92
2.17
-0.22
-4.57
-10.95
-18.9
-27.17
-33.71
-36.27
-33.27
-24.8
-12.76
-0.29
9.56
15.01
16.11
14.28
11.32
8.44
6.0
3.83
1.79
0.16
-0.54
0.04
1.74
3.87
5.56
6.07
5.2
3.33
1.2
-0.25
-0.31
1.29
4.3
7.99
11.42
13.88
15.08
15.27
15.04
15.0
15.5
16.5
17.72
18.92
20.01
21.08
22.14
22.97
23.06
21.9
19.28
15.55
11.68
9.0
8.8
11.86
18.17
26.92
36.78
46.1
53.34
57.39
57.82
54.97
49.71
43.12
35.99
28.69
21.29
13.39
4.23
-6.92
-20.4
-35.82
-52.0
-67.16
-79.38
-87.29
-90.48
-89.62
-86.14
-81.65
-77.38
-73.9
-71.11
-68.52
-65.69
-62.47
-59.06
-55.86
-53.2
-51.23
-49.83
-48.67
-47.42
-45.94
-44.37
-43.07
-42.34
-42.27
-42.61
-43.01
-43.14
-43.01
-42.88
-42.98
-43.24
-43.1
-41.63
-38.02
-31.99
-23.99
-15.09
-6.47
1.02
7.15
12.35
17.5
23.72
32.07
43.42
58.24
76.4
97.03
118.49
138.48
154.49
164.32
166.56
160.94
148.44
130.99
111.05
91.12
73.3
59.04
49.05
43.22
40.74
40.2
39.86
38.14
34.05
27.43
18.94
9.67
0.62
-7.57
-14.71
-20.84
-26.01
-30.21
-33.52
-36.22
-38.83
-41.92
-45.81
-50.35
-54.94
-58.82
-61.47
-62.81
-63.14
-62.89
-62.34
-61.44
-59.92
-57.47
-53.89
-49.21
-43.6
-37.36
-30.88
-24.58
-18.89
-14.12
-10.32
-7.33
-4.85
-2.66
-0.71
0.89
1.96
2.46
2.47
2.11
1.55
0.9
0.23
-0.36
-0.78
-1.03
-1.22
-1.5
-1.98
-2.57
-3.08
-3.27
-3.08
-2.62
-2.09
-1.63
-1.24
-0.81
-0.3
0.12
0.18
-0.38
-1.61
-3.25
-4.83
-5.94
-6.28
-5.8
-4.58
-2.7
-0.26
2.66
5.95
9.43
12.92
16.28
19.45
22.37
24.99
27.25
28.99
30.12
30.49
30.03
28.75
26.76
24.29
21.58
18.83
16.07
13.25
10.27
7.1
3.82
0.54
-2.65
-5.73
-8.69
-11.41
-13.7
-15.31
-16.12
-16.28
-16.16
-16.17
-16.6
-17.42
-18.35
-18.98
-18.96
-18.12
-16.45
-14.01
-10.91
-7.27
-3.28
0.86
4.89
8.66
12.09
15.24
18.21
20.96
23.33
25.01
25.82
25.75
25.13
24.47
24.26
24.75
25.81
27.01
27.91
28.27
28.22
28.23
28.85
30.41
32.76
35.17
36.55
35.71
31.77
24.47
14.29
2.23
-10.43
-22.54
-33.38
-42.68
-50.51
-57.0
-62.13
-65.69
-67.4
-67.13
-65.04
-61.57
-57.24
-52.51
-47.54
-42.33
-36.78
-30.96
-25.07
-19.48
-14.5
-10.24
-6.63
-3.4
-0.31
2.8
5.95
9.01
11.8
14.05
15.45
15.71
14.61
12.23
8.93
5.3
2.0
-0.49
-2.09
-3.06
-3.85
-4.82
-6.02
-7.2
-7.95
-7.98
-7.27
-6.18
-5.22
-4.85
-5.15
-5.77
-6.04
-5.2
-2.66
1.74
7.79
14.83
21.93
27.93
31.67
32.26
29.29
23.13
14.87
6.04
-1.86
-7.85
-11.67
-13.71
-14.59
-14.84
-14.65
-13.98
-12.8
-11.25
-9.72
-8.67
-8.36
-8.55
-8.6
-7.56
-4.56
0.88
8.65
18.17
28.53
38.85
48.65
57.84
66.64
75.24
83.51
90.84
96.32
99.05
98.68
95.53
90.57
85.05
80.11
76.49
74.4
73.52
73.19
72.39
69.95
64.75
56.1
43.96
29.18
13.29
-1.85
-14.59
-23.87
-29.5
-32.09
-32.72
-32.68
-33.04
-34.35
-36.61
-39.36
-41.92
-43.71
-44.48
-44.25
-43.27
-41.77
-39.87
-37.57
-34.83
-31.69
-28.23
-24.57
-20.86
-17.17
-13.59
-10.21
-7.15
-4.56
-2.59
-1.35
-0.89
-1.23
-2.2
-3.5
-4.58
-4.73
-3.25
0.36
6.21
13.83
22.06
29.13
32.91
31.52
23.91
10.54
-6.69
-24.81
-40.76
-52.32
-58.71
-60.49
-58.93
-55.43
-50.97
-46.1
-41.2
-36.75
-33.28
-31.16
-30.36
-30.34
-30.28
-29.44
-27.52
-24.79
-21.9
-19.63
-18.53
-18.7
-19.84
-21.47
-23.17
-24.82
-26.63
-29.05
-32.37
-36.54
-41.04
-45.02
-47.63
-48.39
-47.4
-45.24
-42.89
-41.39
-41.62
-44.05
-48.59
-54.53
-60.61
-65.41
-67.66
-66.73
-62.63
-55.93
-47.36
-37.46
-26.57
-14.82
-2.45
10.19
22.73
34.89
46.66
58.22
69.76
81.19
92.11
101.82
109.55
114.71
117.01
116.47
113.29
107.82
100.42
91.52
81.51
70.78
59.73
48.71
38.13
28.39
19.96
13.17
8.17
4.74
2.41
0.56
-1.28
-3.19
-4.81
-5.41
-4.23
-0.83
4.66
11.56
18.83
25.54
31.19
35.87
40.04
44.29
48.85
53.45
57.39
59.87
60.32
58.6
55.04
50.31
45.19
40.39
36.42
33.57
31.63
29.94
27.32
22.53
14.68
3.8
-9.04
-22.08
-33.54
-42.35
-48.46
-52.69
-56.2
-59.89
-64.05
-68.45
-72.54
-75.8
-77.9
-78.64
-78.0
-75.92
-72.35
-67.22
-60.47
-52.17
-42.54
-31.99
-20.91
-9.57
1.91
13.43
24.6
34.58
42.1
45.86
45.03
39.69
30.92
20.46
10.14
1.28
-5.52
-10.47
-14.25
-17.72
-21.58
-26.14
-31.24
-36.3
-40.46
-42.91
-43.2
-41.51
-38.56
-35.5
-33.36
-32.77
-33.67
-35.47
-37.3
-38.37
-38.24
-36.98
-34.97
-32.73
-30.72
-29.14
-27.97
-26.99
-25.84
-24.23
-21.91
-18.79
-14.86
-10.23
-5.09
0.27
5.55
10.41
14.53
17.66
19.63
20.43
20.21
19.23
17.89
16.55
15.55
15.13
15.42
16.51
18.41
21.01
24.04
27.06
29.53
30.89
30.77
28.98
25.63
21.1
15.95
10.81
6.24
2.53
-0.36
-2.79
-5.26
-8.21
-11.87
-16.29
-21.4
-27.04
-32.93
-38.6
-43.27
-46.12
-46.51
-44.41
-40.37
-35.34
-30.23
-25.5
-21.04
-16.46
-11.42
-5.87
-0.06
5.62
10.89
15.56
19.57
22.82
25.19
26.58
27.01
26.64
25.72
24.5
23.15
21.72
20.29
18.96
17.86
17.12
16.74
16.57
16.4
15.98
15.21
14.18
13.11
12.35
12.18
12.79
14.19
16.21
18.47
20.43
21.36
20.58
17.72
12.87
6.66
0.08
-5.78
-10.06
-12.31
-12.47
-10.75
-7.44
-2.84
2.73
8.81
14.78
19.81
23.06
23.88
22.01
17.61
11.27
3.74
-4.19
-11.85
-18.67
-24.14
-27.82
-29.43
-28.98
-26.89
-23.82
-20.57
-17.73
-15.57
-14.1
-13.15
-12.56
-12.26
-12.25
-12.53
-13.14
-14.1
-15.47
-17.36
-19.92
-23.14
-26.82
-30.44
-33.25
-34.51
-33.66
-30.54
-25.48
-19.18
-12.47
-6.06
-0.31
4.83
9.6
14.33
19.11
23.84
28.24
32.09
35.28
37.82
39.68
40.71
40.65
39.3
36.74
33.48
30.27
27.81
26.34
25.49
24.4
22.1
17.95
11.93
4.57
-3.26
-10.76
-17.37
-22.82
-27.05
-30.04
-31.86
-32.69
-32.88
-33.04
-33.73
-35.29
-37.6
-40.03
-41.66
-41.56
-39.14
-34.26
-27.25
-18.79
-9.68
-0.74
7.4
14.3
19.77
23.82
26.66
28.52
29.59
29.93
29.57
28.54
27.04
25.37
23.94
23.08
22.97
23.59
24.77
26.29
27.99
29.81
31.74
33.78
35.84
37.76
39.31
40.28
40.49
39.79
38.02
35.01
30.65
24.96
18.24
11.01
4.03
-1.93
-6.29
-8.79
-9.62
-9.3
-8.62
-8.33
-9.0
-10.79
-13.46
-16.47
-19.17
-20.99
-21.6
-20.95
-19.24
-16.82
-14.12
-11.51
-9.19
-7.15
-5.13
-2.71
0.45
4.41
8.76
12.7
15.31
15.93
14.32
10.77
5.91
0.47
-4.93
-9.84
-14.0
-17.17
-19.19
-20.02
-19.8
-18.85
-17.62
-16.52
-15.79
-15.49
-15.57
-15.93
-16.46
-16.94
-16.98
-15.94
-13.12
-8.02
-0.65
8.35
17.87
26.66
33.71
38.46
40.8
40.92
39.19
36.07
32.12
27.95
24.04
20.56
17.3
13.84
9.82
5.27
0.65
-3.26
-5.81
-6.69
-6.14
-4.72
-3.06
-1.63
-0.58
0.16
0.71
1.23
1.83
2.67
3.97
5.98
8.84
12.49
16.55
20.28
22.8
23.17
20.73
15.32
7.32
-2.39
-12.64
-22.19
-30.04
-35.49
-38.2
-38.17
-35.66
-31.14
-25.23
-18.57
-11.75
-5.21
0.76
6.0
10.45
14.19
17.37
20.29
23.24
26.39
29.66
32.74
35.2
36.67
36.95
35.95
33.62
29.91
24.73
18.2
10.69
2.84
-4.7
-11.45
-17.22
-22.05
-25.99
-28.91
-30.6
-30.92
-30.09
-28.76
-27.81
-28.0
-29.64
-32.48
-35.87
-39.08
-41.54
-42.98
-43.32
-42.55
-40.64
-37.55
-33.39
-28.4
-23.08
-17.97
-13.58
-10.22
-7.9
-6.43
-5.55
-5.03
-4.81
-5.02
-5.81
-7.26
-9.34
-11.81
-14.37
-16.63
-18.22
-18.71
-17.75
-15.09
-10.77
-5.18
1.01
7.0
12.15
16.11
18.83
20.39
20.91
20.44
19.05
16.91
14.34
11.67
9.17
6.89
4.63
2.09
-0.95
-4.38
-7.73
-10.23
-11.12
-9.86
-6.43
-1.26
4.91
11.27
17.21
22.38
26.67
30.14
32.86
34.95
36.6
38.06
39.61
41.42
43.43
45.27
46.37
46.22
44.57
41.57
37.73
33.73
30.15
27.3
25.27
23.93
23.17
22.95
23.38
24.56
26.49
28.92
31.39
33.32
34.14
33.52
31.41
28.05
23.92
19.6
15.68
12.7
11.08
10.98
12.26
14.3
16.2
17.08
16.54
14.94
13.34
13.07
15.06
19.38
25.1
30.74
34.94
36.99
36.97
35.45
32.97
29.76
25.77
21.08
16.15
11.87
9.26
8.88
10.61
13.7
17.19
20.43
23.4
26.55
30.43
35.16
40.27
44.85
47.9
48.79
47.38
43.89
38.57
31.49
22.54
11.79
-0.21
-12.33
-23.1
-31.32
-36.58
-39.45
-41.09
-42.7
-44.87
-47.43
-49.69
-51.01
-51.28
-50.81
-50.05
-49.09
-47.52
-44.7
-40.35
-34.94
-29.65
-25.86
-24.36
-24.96
-26.54
-27.63
-27.18
-24.99
-21.84
-19.05
-17.99
-19.58
-24.0
-30.69
-38.54
-46.31
-53.01
-58.2
-62.06
-65.14
-67.94
-70.65
-73.06
-74.71
-75.19
-74.25
-71.81
-67.83
-62.22
-54.94
-46.11
-36.17
-25.77
-15.73
-6.68
1.01
7.27
12.16
15.71
17.84
18.44
17.6
15.69
13.36
11.28
9.86
9.01
8.24
6.93
4.72
1.74
-1.47
-4.31
-6.43
-7.9
-9.02
-9.93
-10.45
-10.17
-8.77
-6.43
-3.98
-2.63
-3.41
-6.66
-11.74
-17.16
-21.21
-22.61
-20.99
-17.0
-11.97
-7.37
-4.24
-2.93
-3.1
-4.01
-4.93
-5.28
-4.77
-3.34
-1.01
2.16
5.99
10.22
14.51
18.48
21.89
24.64
26.88
28.88
30.95
33.37
36.3
39.81
43.8
48.04
52.15
55.65
58.05
58.93
58.03
55.31
50.96
45.39
39.25
33.23
27.99
23.94
21.13
19.2
17.52
15.51
12.88
9.82
6.91
4.9
4.36
5.48
8.09
11.72
15.87
20.06
24.11
28.0
31.97
36.25
41.05
46.42
52.11
57.61
62.13
64.75
64.66
61.48
55.36
46.94
37.05
26.35
15.08
3.04
-10.1
-24.44
-39.6
-54.62
-68.21
-79.04
-86.07
-88.79
-87.18
-81.66
-72.9
-61.68
-48.75
-34.79
-20.51
-6.7
5.85
16.43
24.61
30.25
33.43
34.15
32.23
27.42
19.61
9.18
-2.88
-15.28
-26.75
-36.48
-44.22
-50.13
-54.42
-57.13
-58.06
-56.98
-53.85
-48.95
-42.75
-35.7
-28.06
-20.0
-11.75
-3.92
2.51
6.38
6.85
3.76
-2.23
-9.8
-17.52
-24.22
-29.32
-32.75
-34.76
-35.68
-35.87
-35.63
-35.35
-35.42
-36.07
-37.25
-38.54
-39.32
-38.93
-37.02
-33.65
-29.26
-24.48
-19.86
-15.61
-11.67
-7.75
-3.6
0.83
5.33
9.52
12.95
15.27
16.14
15.23
12.18
6.77
-0.88
-10.09
-19.63
-28.06
-34.2
-37.58
-38.5
-37.83
-36.48
-34.91
-33.04
-30.43
-26.62
-21.47
-15.2
-8.27
-1.14
5.88
12.65
19.13
25.34
31.21
36.64
41.4
45.08
47.17
47.18
44.87
40.42
34.51
28.06
22.05
17.14
13.5
10.92
8.84
6.68
3.95
0.34
-4.17
-9.34
-14.7
-19.61
-23.51
-26.02
-27.05
-26.79
-25.53
-23.55
-20.94
-17.71
-13.78
-9.17
-3.98
1.48
6.77
11.29
14.39
15.48
14.21
10.58
5.04
-1.64
-8.54
-14.86
-19.99
-23.67
-25.9
-26.93
-27.16
-27.05
-27.03
-27.34
-27.97
-28.65
-29.02
-28.75
-27.68
-25.88
-23.48
-20.68
-17.65
-14.52
-11.49
-8.86
-6.93
-6.01
-6.18
-7.31
-8.94
-10.51
-11.48
-11.58
-10.9
-9.83
-8.9
-8.59
-9.15
-10.64
-12.96
-15.92
-19.26
-22.64
-25.6
-27.69
-28.63
-28.36
-27.05
-24.93
-22.18
-18.85
-14.94
-10.49
-5.73
-1.05
3.19
6.73
9.52
11.64
13.16
14.06
14.27
13.76
12.7
11.41
10.29
9.61
9.38
9.32
9.07
8.4
7.33
6.12
5.11
4.55
4.5
4.89
5.71
7.01
8.84
11.18
13.71
15.95
17.38
17.66
16.63
14.27
10.62
5.79
0.03
-6.14
-11.97
-16.67
-19.73
-21.08
-21.06
-20.13
-18.65
-16.8
-14.62
-12.18
-9.74
-7.57
-5.87
-4.63
-3.68
-2.86
-2.15
-1.74
-1.8
-2.36
-3.17
-3.77
-3.64
-2.42
0.03
3.52
7.7
12.07
16.13
19.41
21.54
22.28
21.59
19.62
16.68
13.21
9.71
6.59
4.12
2.29
0.91
-0.38
-1.91
-3.89
-6.34
-9.0
-11.44
-13.09
-13.38
-11.96
-8.74
-3.93
1.99
8.49
15.04
21.18
26.54
30.74
33.41
34.36
33.54
31.24
27.94
24.25
20.67
17.53
15.0
13.08
11.71
10.76
10.02
9.25
8.18
6.65
4.61
2.2
-0.38
-2.94
-5.39
-7.74
-10.1
-12.51
-14.93
-17.16
-18.94
-20.05
-20.34
-19.84
-18.74
-17.39
-16.21
-15.59
-15.75
-16.55
-17.58
-18.26
-18.11
-16.92
-14.84
-12.23
-9.42
-6.56
-3.58
-0.37
3.11
6.74
10.23
13.37
16.1
18.56
20.99
23.59
26.42
29.39
32.33
35.1
37.59
39.7
41.3
42.21
42.21
41.17
39.13
36.28
32.88
29.14
25.08
20.64
15.79
10.71
5.77
1.38
-2.24
-5.21
-7.91
-10.77
-14.02
-17.62
-21.27
-24.69
-27.67
-30.12
-31.92
-32.83
-32.51
-30.68
-27.23
-22.33
-16.39
-9.89
-3.29
3.01
8.71
13.6
17.54
20.47
22.4
23.37
23.44
22.78
21.64
20.32
19.14
18.27
17.72
17.27
16.73
16.02
15.25
14.62
14.28
14.14
13.94
13.4
12.41
11.12
9.89
9.08
8.8
8.84
8.73
7.92
5.98
2.79
-1.48
-6.35
-11.23
-15.41
-18.3
-19.48
-18.82
-16.51
-13.01
-9.02
-5.24
-2.19
-0.13
1.04
1.6
1.97
2.44
3.13
3.96
4.74
5.27
5.51
5.62
6.0
7.06
9.13
12.21
15.98
19.87
23.24
25.57
26.61
26.4
25.18
23.33
21.22
19.1
17.08
15.17
13.25
11.27
9.26
7.42
6.13
5.81
6.88
9.57
13.86
19.51
26.07
33.14
40.47
48.1
56.27
65.26
75.02
84.89
93.44
98.67
98.54
91.67
77.99
58.89
36.99
15.27
-3.79
-18.84
-29.77
-37.28
-42.27
-45.44
-47.2
-47.9
-48.08
-48.49
-49.82
-52.26
-55.33
-58.0
-59.05
-57.63
-53.61
-47.5
-40.15
-32.29
-24.18
-15.63
-6.17
4.49
16.21
28.33
39.84
49.69
57.06
61.48
62.79
61.09
56.64
49.92
41.69
33.02
25.05
18.79
14.77
12.89
12.54
12.83
13.02
12.86
12.72
13.52
16.37
22.27
31.62
44.0
57.97
71.16
80.74
84.11
79.79
67.89
50.23
29.55
8.62
-10.65
-27.54
-42.19
-55.0
-66.12
-75.37
-82.44
-87.3
-90.26
-91.77
-92.16
-91.4
-89.31
-85.67
-80.59
-74.5
-68.0
-61.63
-55.64
-49.99
-44.33
-38.23
-31.24
-23.03
-13.56
-3.13
7.49
17.12
24.37
27.93
26.99
21.5
12.37
1.2
-10.07
-19.71
-26.64
-30.59
-31.96
-31.51
-29.93
-27.65
-24.72
-21.01
-16.41
-10.99
-5.07
0.94
6.71
12.12
17.33
22.72
28.73
35.69
43.82
53.17
63.52
74.27
84.29
92.02
95.63
93.6
85.21
70.85
52.01
30.88
9.81
-9.17
-24.69
-36.04
-43.2
-46.64
-47.28
-46.19
-44.54
-43.28
-43.09
-44.23
-46.53
-49.39
-51.91
-53.17
-52.47
-49.61
-44.94
-39.18
-33.06
-27.0
-21.04
-15.02
-8.94
-3.21
1.4
4.16
4.8
3.77
2.15
1.2
1.93
4.78
9.6
15.89
23.02
30.48
37.86
44.83
51.08
56.51
61.25
65.69
70.25
75.14
80.06
84.28
86.96
87.48
85.71
81.93
76.49
69.52
60.86
50.37
38.21
25.19
12.52
1.41
-7.48
-14.31
-19.91
-25.44
-31.78
-39.36
-48.07
-57.54
-67.44
-77.49
-87.45
-96.75
-104.38
-109.01
-109.42
-105.03
-96.22
-84.24
-70.7
-57.04
-44.08
-32.13
-21.29
-11.82
-4.22
1.02
3.72
4.26
3.49
2.42
1.85
2.14
3.2
4.66
6.2
7.6
8.98
10.57
12.61
15.14
17.96
20.7
23.1
25.15
27.16
29.52
32.49
35.89
39.2
41.69
42.73
42.02
39.54
35.52
30.18
23.74
16.36
8.31
0.0
-7.97
-15.1
-21.07
-25.94
-30.09
-34.0
-38.03
-42.19
-46.19
-49.64
-52.22
-53.82
-54.47
-54.16
-52.65
-49.49
-44.22
-36.63
-26.97
-15.9
-4.32
6.95
17.35
26.6
34.59
41.17
46.11
49.08
49.77
48.04
43.95
37.89
30.49
22.58
15.15
9.09
5.08
3.41
3.95
6.25
9.73
13.83
18.07
22.08
25.56
28.38
30.69
32.88
35.52
39.06
43.44
48.0
51.47
52.42
49.71
42.92
32.51
19.73
6.22
-6.39
-16.92
-24.91
-30.66
-35.12
-39.4
-44.37
-50.15
-56.14
-61.18
-64.03
-63.91
-60.7
-54.97
-47.61
-39.53
-31.32
-23.27
-15.39
-7.61
0.08
7.54
14.51
20.59
25.31
28.25
29.12
27.8
24.44
19.41
13.31
6.99
1.47
-2.22
-3.29
-1.46
2.79
8.33
13.52
16.72
16.82
13.56
7.69
0.65
-5.85
-10.44
-12.42
-11.9
-9.5
-6.03
-2.21
1.45
4.53
6.6
7.24
6.15
3.37
-0.54
-4.61
-7.72
-8.94
-7.79
-4.34
0.86
6.89
12.61
16.87
18.68
17.38
12.87
5.59
-3.54
-13.34
-22.6
-30.34
-35.9
-39.02
-39.77
-38.55
-35.95
-32.54
-28.78
-24.86
-20.78
-16.53
-12.23
-8.19
-4.78
-2.27
-0.65
0.26
0.69
0.79
0.58
0.08
-0.63
-1.33
-1.82
-2.05
-2.19
-2.6
-3.62
-5.43
-7.91
-10.72
-13.37
-15.3
-15.93
-14.86
-11.86
-7.04
-0.89
5.84
12.29
17.74
21.78
24.38
25.73
26.23
26.22
25.94
25.53
25.03
24.5
24.07
23.9
24.16
24.89
25.99
27.13
27.78
27.24
24.78
19.82
12.26
2.73
-7.54
-17.0
-24.27
-28.65
-30.21
-29.61
-27.62
-24.85
-21.61
-18.04
-14.35
-10.97
-8.36
-6.86
-6.46
-6.84
-7.57
-8.27
-8.83
-9.28
-9.7
-10.13
-10.46
-10.46
-9.85
-8.41
-6.08
-2.94
0.77
4.74
8.6
12.11
15.1
17.59
19.73
21.76
23.97
26.56
29.6
32.91
36.07
38.48
39.51
38.65
35.68
30.69
24.09
16.41
8.21
-0.06
-8.09
-15.66
-22.65
-28.88
-34.15
-38.16
-40.72
-41.73
-41.35
-39.91
-37.86
-35.6
-33.4
-31.35
-29.41
-27.52
-25.68
-23.93
-22.3
-20.64
-18.65
-15.98
-12.34
-7.65
-2.17
3.74
9.6
15.0
19.65
23.31
25.71
26.57
25.56
22.49
17.48
10.98
3.85
-2.89
-8.29
-11.76
-13.19
-12.93
-11.62
-9.9
-8.22
-6.72
-5.33
-3.87
-2.23
-0.46
1.3
2.77
3.78
4.22
4.15
3.77
3.25
2.69
1.98
0.96
-0.58
-2.6
-4.85
-6.89
-8.39
-9.22
-9.53
-9.57
-9.51
-9.35
-8.99
-8.42
-7.84
-7.68
-8.37
-10.09
-12.59
-15.26
-17.44
-18.59
-18.54
-17.41
-15.45
-12.92
-9.93
-6.6
-3.11
0.25
3.14
5.25
6.46
6.8
6.42
5.49
4.12
2.32
0.12
-2.38
-4.99
-7.47
-9.57
-11.16
-12.23
-12.94
-13.52
-14.21
-15.13
-16.23
-17.15
-17.36
-16.24
-13.32
-8.5
-2.16
4.91
11.79
17.68
22.09
24.9
26.21
26.24
25.19
23.32
20.98
18.57
16.51
14.99
13.92
12.96
11.64
9.58
6.63
2.9
-1.3
-5.54
-9.38
-12.48
-14.7
-16.07
-16.87
-17.47
-18.17
-19.07
-20.02
-20.65
-20.59
-19.65
-17.87
-15.49
-12.81
-10.11
-7.63
-5.64
-4.38
-4.03
-4.57
-5.67
-6.79
-7.42
-7.32
-6.65
-5.83
-5.28
-5.15
-5.22
-5.04
-4.28
-2.86
-1.0
0.99
2.97
5.04
7.45
10.38
13.78
17.36
20.74
23.6
25.83
27.49
28.6
29.08
28.65
27.07
24.25
20.44
16.18
12.07
8.52
5.65
3.24
0.94
-1.6
-4.6
-8.09
-12.05
-16.35
-20.77
-24.99
-28.65
-31.41
-33.1
-33.82
-33.77
-33.1
-31.72
-29.38
-25.77
-20.8
-14.76
-8.12
-1.47
4.77
10.31
14.92
18.3
20.07
19.97
18.06
14.89
11.26
7.94
5.37
3.49
2.01
0.66
-0.53
-1.21
-0.94
0.52
3.02
6.05
8.89
10.98
12.04
12.25
12.07
12.14
12.92
14.65
17.12
19.71
21.54
21.59
19.02
13.37
4.88
-5.46
-15.97
-24.76
-30.27
-31.77
-29.59
-24.91
-19.25
-13.8
-9.12
-5.11
-1.35
2.52
6.57
10.54
14.04
16.73
18.5
19.46
19.96
20.52
21.75
24.21
28.31
34.17
41.47
49.44
56.97
62.83
66.04
66.09
62.97
57.15
49.35
40.38
31.07
22.23
14.65
8.97
5.52
4.19
4.34
4.99
5.06
3.78
0.76
-3.82
-9.47
-15.34
-20.48
-23.92
-24.84
-22.76
-17.66
-10.2
-1.61
6.5
12.53
15.4
14.85
11.47
6.38
0.8
-4.43
-8.85
-12.34
-14.86
-16.34
-16.79
-16.4
-15.72
-15.42
-16.09
-17.95
-20.84
-24.4
-28.32
-32.54
-37.05
-41.76
-46.22
-49.71
-51.44
-50.9
-48.17
-43.81
-38.65
-33.46
-28.69
-24.41
-20.5
-16.8
-13.32
-10.17
-7.47
-5.32
-3.71
-2.63
-2.18
-2.46
-3.5
-5.02
-6.41
-6.88
-5.75
-2.73
1.96
7.75
14.01
20.3
26.51
32.72
39.12
45.85
52.97
60.41
67.9
74.78
80.15
83.05
82.85
79.59
73.95
66.91
59.26
51.26
42.77
33.59
23.89
14.32
5.75
-1.31
-6.9
-11.63
-16.24
-21.21
-26.65
-32.4
-38.39
-44.64
-51.23
-57.97
-64.27
-69.2
-71.91
-72.03
-69.85
-66.16
-61.81
-57.23
-52.24
-46.13
-38.11
-27.71
-15.13
-1.19
12.8
25.41
35.39
41.96
44.89
44.57
41.86
38.0
34.36
32.06
31.83
33.69
37.09
40.97
44.23
46.09
46.48
46.06
45.96
47.34
50.97
56.82
64.17
71.73
78.06
81.81
81.99
78.05
69.97
58.27
43.97
28.38
12.92
-1.08
-12.56
-20.8
-25.6
-27.41
-27.34
-27.05
-28.3
-32.44
-39.97
-50.43
-62.6
-74.88
-85.75
-93.9
-98.36
-98.52
-94.23
-85.92
-74.55
-61.47
-47.99
-35.05
-23.11
-12.25
-2.42
6.37
13.98
20.33
25.52
29.83
33.57
36.89
39.65
41.51
42.1
41.15
38.63
34.65
29.51
23.62
17.55
12.08
8.0
5.96
6.2
8.53
12.29
16.78
21.49
26.25
31.13
36.2
41.19
45.45
48.17
48.66
46.71
42.66
37.24
31.29
25.51
20.35
16.04
12.66
10.16
8.42
7.11
5.73
3.61
0.05
-5.53
-13.45
-23.68
-35.65
-48.37
-60.45
-70.44
-77.18
-80.07
-79.21
-75.32
-69.43
-62.53
-55.32
-48.08
-40.83
-33.49
-26.09
-18.87
-12.17
-6.32
-1.58
2.02
4.48
5.83
6.09
5.26
3.46
0.95
-1.96
-4.98
-7.91
-10.63
-13.01
-14.82
-15.77
-15.65
-14.44
-12.4
-9.98
-7.61
-5.42
-3.19
-0.35
3.76
9.7
17.58
27.06
37.34
47.28
55.65
61.3
63.38
61.41
55.47
46.24
34.87
22.9
11.81
2.78
-3.71
-7.85
-10.39
-12.32
-14.53
-17.62
-21.73
-26.66
-31.91
-36.92
-41.19
-44.48
-46.82
-48.43
-49.52
-50.16
-50.2
-49.35
-47.43
-44.5
-40.82
-36.78
-32.65
-28.55
-24.44
-20.32
-16.34
-12.82
-10.13
-8.55
-8.17
-8.81
-10.13
-11.67
-12.92
-13.45
-12.94
-11.25
-8.44
-4.78
-0.6
3.74
8.0
12.03
15.76
19.18
22.32
25.18
27.78
30.11
32.15
33.92
35.5
37.06
38.74
40.64
42.66
44.51
45.8
46.13
45.27
43.18
40.09
36.38
32.52
28.87
25.58
22.56
19.48
15.97
11.7
6.44
0.14
-7.12
-15.09
-23.24
-30.8
-36.84
-40.57
-41.63
-40.21
-36.92
-32.45
-27.2
-21.17
-14.18
-6.2
2.35
10.67
17.77
22.91
25.75
26.32
24.9
21.79
17.23
11.47
4.92
-1.81
-7.91
-12.58
-15.17
-15.41
-13.47
-9.87
-5.33
-0.46
4.36
9.1
14.02
19.56
26.05
33.6
41.94
50.31
57.55
62.32
63.59
60.97
54.83
46.17
36.16
25.7
15.27
5.11
-4.63
-13.64
-21.68
-28.67
-34.8
-40.41
-45.65
-50.26
-53.75
-55.74
-56.36
-56.33
-56.52
-57.43
-58.76
-59.51
-58.41
-54.54
-47.72
-38.53
-28.04
-17.34
-7.24
1.74
9.41
15.69
20.53
23.85
25.6
25.77
24.49
22.03
18.74
14.91
10.75
6.34
1.75
-2.72
-6.56
-9.13
-9.89
-8.72
-6.0
-2.51
0.98
4.0
6.53
8.86
11.23
13.6
15.61
16.73
16.56
15.11
12.71
9.98
7.51
5.69
4.69
4.44
4.77
5.42
6.07
6.4
6.13
5.06
3.02
-0.15
-4.76
-11.1
-19.21
-28.56
-38.05
-46.17
-51.58
-53.58
-52.31
-48.59
-43.47
-37.79
-32.04
-26.43
-21.16
-16.49
-12.72
-10.04
-8.41
-7.62
-7.35
-7.35
-7.48
-7.72
-8.19
-9.07
-10.51
-12.6
-15.18
-17.9
-20.29
-21.99
-22.88
-23.05
-22.65
-21.68
-19.92
-16.95
-12.43
-6.23
1.42
9.95
18.47
25.92
31.23
33.6
32.78
29.17
23.76
17.73
12.11
7.38
3.52
0.15
-3.08
-6.28
-9.37
-12.1
-14.29
-15.84
-16.74
-17.05
-16.85
-16.3
-15.64
-15.14
-15.0
-15.26
-15.78
-16.28
-16.4
-15.91
-14.7
-12.92
-10.96
-9.37
-8.77
-9.57
-11.92
-15.63
-20.28
-25.31
-30.15
-34.26
-37.17
-38.5
-38.13
-36.19
-33.13
-29.47
-25.61
-21.59
-17.1
-11.75
-5.4
1.57
8.26
13.65
16.99
18.21
17.82
16.67
15.41
14.3
13.22
11.93
10.56
9.62
9.9
12.04
16.26
22.24
29.28
36.6
43.65
50.02
55.49
59.89
63.09
64.98
65.47
64.55
62.3
59.05
55.41
52.26
50.48
50.79
53.55
58.72
65.92
74.46
83.42
91.58
97.58
100.28
99.19
94.73
88.14
81.04
74.72
69.83
66.27
63.5
60.91
58.08
54.73
50.6
45.36
38.62
30.27
20.78
11.32
3.58
-0.8
-0.92
2.8
8.68
14.36
17.71
17.64
14.35
8.98
2.72
-3.73
-10.36
-17.44
-25.12
-33.13
-40.92
-48.07
-54.55
-60.75
-67.24
-74.42
-82.46
-91.28
-100.66
-110.25
-119.47
-127.39
-132.8
-134.49
-131.61
-123.94
-112.0
-96.97
-80.34
-63.61
-47.95
-33.91
-21.47
-10.16
0.58
11.06
21.11
30.13
37.2
41.42
42.08
38.87
32.06
22.59
12.02
2.25
-5.03
-8.79
-8.98
-6.37
-2.23
2.33
6.59
10.33
13.66
16.8
19.96
23.4
27.45
32.49
38.77
46.13
53.81
60.55
64.8
65.26
61.25
52.96
41.44
28.25
15.04
3.16
-6.66
-14.34
-20.3
-25.15
-29.4
-33.2
-36.46
-38.98
-40.77
-42.24
-44.04
-46.75
-50.39
-54.23
-56.93
-57.09
-53.78
-46.83
-36.88
-25.1
-12.97
-2.0
6.5
11.66
13.35
12.21
9.44
6.18
2.99
-0.48
-5.14
-11.81
-20.51
-30.22
-39.27
-45.99
-49.44
-49.69
-47.6
-44.37
-41.0
-37.97
-35.13
-31.91
-27.57
-21.57
-13.64
-3.81
7.77
20.87
35.13
49.68
63.07
73.46
79.39
80.5
77.8
73.16
68.24
63.55
58.24
50.88
40.51
27.42
12.97
-1.25
-14.25
-26.03
-37.11
-47.81
-57.73
-65.84
-71.09
-73.05
-72.13
-69.26
-65.46
-61.31
-56.87
-51.88
-46.17
-39.93
-33.75
-28.48
-24.96
-23.62
-24.4
-26.72
-29.72
-32.45
-34.21
-34.48
-32.97
-29.5
-24.03
-16.69
-7.81
2.11
12.53
22.94
33.02
42.65
51.78
60.42
68.52
75.94
82.5
88.05
92.55
96.02
98.49
99.89
99.83
97.73
92.92
85.01
74.17
61.19
47.21
33.29
20.1
7.82
-3.62
-14.33
-24.39
-33.89
-43.18
-52.93
-63.79
-76.05
-89.25
-102.27
-113.6
-121.91
-126.31
-126.36
-121.87
-112.76
-99.09
-81.33
-60.48
-38.12
-16.01
4.3
21.79
36.13
47.48
56.25
62.86
67.64
70.82
72.6
73.17
72.63
71.12
68.74
65.68
62.2
58.66
55.36
52.59
50.55
49.36
49.05
49.55
50.62
51.89
52.86
52.95
51.65
48.66
43.98
37.94
31.14
24.21
17.64
11.51
5.52
-0.91
-8.35
-17.09
-26.99
-37.48
-47.69
-56.6
-63.22
-66.85
-67.23
-64.77
-60.46
-55.63
-51.44
-48.47
-46.58
-45.09
-43.24
-40.58
-37.1
-33.11
-28.89
-24.6
-20.24
-15.82
-11.47
-7.39
-3.69
-0.32
2.92
6.19
9.43
12.4
14.77
16.38
17.35
18.04
18.86
20.07
21.74
23.64
25.51
27.01
27.86
27.86
27.0
25.52
24.03
23.51
25.02
29.42
36.94
46.94
58.09
68.75
77.68
84.35
89.03
92.26
94.3
94.67
92.19
85.6
74.25
58.56
39.9
20.14
0.88
-16.85
-32.54
-45.85
-56.25
-63.01
-65.66
-64.37
-60.22
-54.93
-50.21
-47.15
-45.82
-45.35
-44.52
-42.16
-37.68
-31.12
-23.04
-14.34
-5.98
1.12
6.26
9.06
9.6
8.44
6.46
4.59
3.5
3.34
3.83
4.46
4.82
4.79
4.5
4.17
3.91
3.73
3.71
4.14
5.49
8.1
11.9
16.28
20.28
23.03
24.13
23.79
22.64
21.32
20.26
19.61
19.25
19.0
18.59
17.62
15.6
12.1
6.91
0.25
-7.34
-15.19
-22.85
-30.25
-37.62
-45.18
-52.97
-60.66
-67.57
-72.77
-75.22
-73.97
-68.36
-58.26
-44.23
-27.37
-9.1
9.28
26.86
43.17
58.04
71.27
82.45
90.96
96.21
97.89
96.19
91.74
85.51
78.55
71.87
66.33
62.72
61.69
63.43
67.36
71.83
74.35
72.26
63.7
48.39
27.74
4.22
-19.51
-41.46
-60.52
-76.21
-88.26
-96.43
-100.62
-101.28
-99.51
-96.91
-94.93
-94.29
-94.73
-95.1
-93.99
-90.23
-83.49
-74.28
-63.78
-53.47
-44.69
-38.36
-34.8
-33.74
-34.37
-35.61
-36.27
-35.41
-32.5
-27.62
-21.31
-14.34
-7.5
-1.35
3.86
8.1
11.56
14.5
17.19
19.83
22.47
24.93
26.82
27.68
27.09
24.99
21.62
17.58
13.57
10.21
7.79
6.25
5.23
4.29
3.18
2.05
1.52
2.44
5.63
11.46
19.68
29.45
39.6
48.94
56.52
61.84
64.76
65.53
64.6
62.43
59.34
55.42
50.55
44.57
37.44
29.34
20.67
11.95
3.75
-3.38
-8.95
-12.57
-14.1
-13.81
-12.33
-10.44
-8.81
-7.78
-7.23
-6.75
-5.7
-3.32
1.27
8.92
20.1
34.5
50.76
66.61
79.62
88.01
91.35
90.64
87.76
84.73
82.93
82.85
84.23
86.29
88.1
88.68
87.16
82.9
75.74
66.18
55.35
44.74
35.7
29.03
24.65
21.62
18.33
12.84
3.57
-10.15
-27.5
-46.1
-62.54
-73.46
-76.8
-72.54
-62.71
-50.5
-39.02
-30.35
-25.33
-23.94
-25.94
-31.28
-39.91
-51.47
-64.86
-78.38
-90.1
-98.45
-102.59
-102.29
-97.7
-88.91
-75.85
-58.35
-36.59
-11.3
16.05
43.43
68.65
89.76
105.44
115.2
119.42
119.24
116.34
112.68
110.17
110.25
113.39
118.57
123.12
123.27
115.3
97.02
68.78
33.7
-3.36
-37.41
-65.03
-85.19
-99.02
-108.79
-116.6
-123.61
-129.99
-135.4
-139.59
-142.67
-144.95
-146.53
-147.07
-145.69
-141.4
-133.62
-122.69
-109.85
-96.89
-85.45
-76.48
-70.02
-65.52
-62.26
-59.81
-58.16
-57.53
-58.04
-59.48
-61.22
-62.45
-62.45
-60.81
-57.53
-53.0
-47.8
-42.6
-38.03
-34.54
-32.33
-31.25
-30.86
-30.53
-29.58
-27.5
-24.12
-19.67
-14.71
-9.98
-6.16
-3.73
-2.87
-3.51
-5.46
-8.41
-12.0
-15.71
-18.92
-20.95
-21.27
-19.65
-16.23
-11.44
-5.89
-0.14
5.36
10.27
14.44
17.82
20.52
22.75
24.74
26.66
28.61
30.57
32.51
34.4
36.22
37.88
39.24
40.19
40.72
40.95
40.97
40.71
39.81
37.7
33.9
28.3
21.34
13.87
6.93
1.38
-2.21
-3.71
-3.37
-1.87
-0.37
-0.35
-3.29
-10.12
-20.74
-33.87
-47.41
-59.08
-67.2
-71.1
-71.14
-68.26
-63.47
-57.44
-50.49
-42.62
-33.86
-24.41
-14.68
-5.2
3.47
10.82
16.46
20.15
21.8
21.65
20.16
18.05
16.08
14.87
14.85
16.21
18.97
23.07
28.34
34.62
41.65
49.1
56.48
63.18
68.54
71.89
72.64
70.5
65.47
57.95
48.66
38.56
28.57
19.45
11.58
5.0
-0.55
-5.5
-10.37
-15.61
-21.51
-28.12
-35.18
-42.16
-48.32
-52.97
-55.68
-56.43
-55.6
-53.72
-51.25
-48.37
-45.1
-41.37
-37.16
-32.54
-27.56
-22.22
-16.47
-10.36
-4.07
2.03
7.49
11.93
15.13
17.01
17.63
17.17
15.97
14.56
13.52
13.27
13.9
15.06
16.14
16.53
15.93
14.34
12.09
9.54
7.03
4.73
2.68
0.75
-1.3
-3.78
-6.91
-10.62
-14.57
-18.08
-20.44
-21.14
-19.98
-17.1
-12.87
-7.7
-2.02
3.79
9.35
14.34
18.53
21.78
24.06
25.32
25.48
24.44
22.05
18.34
13.49
7.96
2.41
-2.4
-5.81
-7.44
-7.37
-6.09
-4.3
-2.59
-1.25
-0.15
1.1
2.81
5.08
7.61
9.97
11.73
12.64
12.52
11.18
8.34
3.78
-2.49
-10.0
-17.93
-25.34
-31.53
-36.25
-39.67
-42.14
-43.92
-44.95
-44.9
-43.36
-40.0
-34.74
-27.8
-19.6
-10.63
-1.35
7.9
16.83
25.18
32.6
38.7
43.15
45.82
46.87
46.73
45.88
44.67
43.17
41.19
38.51
35.01
30.89
26.59
22.65
19.44
16.94
14.69
12.0
8.23
3.2
-2.73
-8.7
-13.79
-17.37
-19.4
-20.38
-21.06
-22.01
-23.42
-25.02
-26.27
-26.6
-25.43
-22.38
-17.19
-9.97
-1.34
7.53
15.16
20.19
21.88
20.3
16.19
10.5
3.99
-2.87
-9.75
-16.19
-21.51
-25.04
-26.46
-26.03
-24.51
-22.8
-21.51
-20.72
-20.08
-19.05
-17.22
-14.38
-10.54
-5.84
-0.51
5.09
10.48
15.16
18.71
20.91
21.76
21.39
19.97
17.6
14.27
9.95
4.72
-1.24
-7.55
-13.73
-19.19
-23.4
-26.0
-26.9
-26.29
-24.59
-22.15
-19.19
-15.72
-11.72
-7.27
-2.67
1.66
5.31
8.14
10.22
11.79
13.11
14.41
15.92
17.85
20.4
23.63
27.29
30.89
33.77
35.44
35.7
34.66
32.65
30.08
27.19
24.13
20.95
17.6
14.09
10.47
6.87
3.48
0.44
-2.23
-4.72
-7.36
-10.47
-14.16
-18.17
-21.91
-24.54
-25.32
-23.74
-19.64
-13.31
-5.32
3.61
12.78
21.64
29.83
37.13
43.38
48.42
52.08
54.23
54.91
54.36
53.02
51.39
49.94
48.9
48.26
47.69
46.68
44.65
41.13
35.91
29.08
20.99
12.19
3.24
-5.24
-12.65
-18.35
-21.76
-22.46
-20.33
-15.7
-9.28
-2.02
5.11
11.22
15.63
17.87
17.82
15.75
12.4
8.92
6.45
5.73
6.56
7.8
7.71
4.66
-2.12
-12.17
-23.9
-35.18
-44.11
-49.53
-51.19
-49.56
-45.39
-39.44
-32.3
-24.44
-16.28
-8.24
-0.65
6.38
13.01
19.7
26.95
35.03
43.78
52.44
59.99
65.39
68.11
68.21
66.23
62.77
58.05
51.79
43.38
32.33
18.71
3.3
-12.61
-27.61
-40.54
-50.72
-57.89
-62.11
-63.63
-62.88
-60.33
-56.54
-52.05
-47.31
-42.65
-38.25
-34.2
-30.38
-26.62
-22.61
-18.14
-13.01
-7.19
-0.78
6.01
12.9
19.59
25.71
30.94
35.02
37.78
39.17
39.11
37.51
34.16
28.85
21.39
11.85
0.57
-11.87
-24.65
-36.91
-47.85
-56.78
-63.32
-67.3
-68.85
-68.29
-66.09
-62.82
-59.11
-55.53
-52.42
-49.75
-47.01
-43.42
-38.14
-30.75
-21.39
-10.79
0.02
10.11
18.79
25.67
30.54
33.24
33.71
32.07
28.69
24.15
19.06
13.97
9.24
5.02
1.35
-1.87
-4.79
-7.55
-10.14
-12.34
-13.69
-13.69
-12.01
-8.66
-4.03
1.33
6.93
12.43
17.59
22.07
25.31
26.69
25.8
22.72
18.02
12.41
6.4
0.04
-6.87
-14.27
-21.45
-26.99
-29.3
-27.28
-20.89
-11.2
0.02
11.08
20.83
29.0
35.81
41.77
47.22
52.31
57.07
61.54
65.83
70.09
74.47
79.0
83.6
88.11
92.24
95.68
98.07
98.94
97.73
93.92
87.12
77.35
65.16
51.51
37.44
23.7
10.45
-2.72
-16.43
-30.99
-46.1
-60.8
-73.8
-83.87
-90.2
-92.32
-90.06
-83.37
-72.37
-57.59
-40.04
-21.08
-2.0
16.27
33.23
48.66
62.23
73.46
81.79
86.92
88.87
87.96
84.47
78.61
70.54
60.73
50.1
39.98
31.65
25.79
22.16
19.76
17.47
14.73
11.89
10.01
10.13
12.55
16.48
20.29
22.24
21.23
17.1
10.35
1.59
-8.89
-21.03
-34.35
-47.64
-58.79
-65.61
-66.71
-62.19
-53.55
-43.09
-32.98
-24.65
-18.71
-15.06
-13.3
-12.99
-13.93
-16.21
-20.3
-26.73
-35.69
-46.57
-57.84
-67.44
-73.48
-75.0
-72.14
-65.92
-57.57
-48.17
-38.57
-29.7
-22.78
-19.17
-19.79
-24.54
-32.13
-40.45
-47.39
-51.67
-53.12
-52.51
-50.97
-49.42
-48.21
-47.16
-45.78
-43.45
-39.68
-34.19
-26.97
-18.26
-8.47
2.03
12.94
24.02
34.96
45.31
54.46
61.83
67.09
70.34
72.04
72.87
73.4
73.88
74.21
73.91
72.34
68.85
63.07
54.98
44.99
33.76
22.05
10.5
-0.51
-10.73
-20.09
-28.46
-35.74
-41.82
-46.66
-50.29
-52.78
-54.23
-54.79
-54.71
-54.25
-53.67
-53.0
-52.01
-50.33
-47.49
-43.26
-37.76
-31.46
-25.0
-18.94
-13.59
-8.96
-4.84
-0.97
2.73
6.23
9.38
12.09
14.43
16.66
19.14
22.17
25.85
30.03
34.36
38.5
42.24
45.63
48.95
52.52
56.6
61.25
66.34
71.65
76.85
81.51
85.11
87.06
86.95
84.68
80.6
75.36
69.6
63.7
57.73
51.56
44.97
37.84
30.03
21.32
11.46
0.34
-11.85
-24.59
-37.12
-48.76
-58.96
-67.21
-72.93
-75.34
-73.71
-67.7
-57.68
-44.61
-29.85
-14.67
-0.07
13.15
24.32
32.79
38.14
40.43
40.26
38.62
36.46
34.22
31.83
28.88
25.08
20.61
16.04
12.05
8.86
6.06
2.68
-2.18
-8.81
-16.5
-23.61
-28.14
-28.54
-24.24
-15.92
-5.25
5.56
14.36
19.36
19.49
14.42
4.61
-8.77
-23.99
-39.15
-52.63
-63.41
-71.25
-76.45
-79.58
-81.14
-81.29
-80.01
-77.22
-72.99
-67.69
-61.85
-56.09
-50.91
-46.68
-43.54
-41.5
-40.41
-40.0
-39.89
-39.66
-38.88
-37.22
-34.46
-30.54
-25.63
-20.11
-14.52
-9.46
-5.38
-2.5
-0.76
0.18
0.65
0.92
1.0
0.78
0.11
-1.06
-2.61
-4.27
-5.64
-6.34
-6.08
-4.83
-2.79
-0.45
1.66
3.14
4.0
4.66
5.84
8.15
11.79
16.33
20.92
24.56
26.53
26.56
24.83
21.77
17.87
13.64
9.52
5.93
3.19
1.48
0.75
0.75
1.13
1.56
1.82
1.74
1.21
0.11
-1.67
-4.11
-7.02
-9.93
-12.18
-13.14
-12.33
-9.61
-5.17
0.47
6.59
12.33
16.85
19.46
19.77
17.83
14.13
9.44
4.56
-0.02
-4.23
-8.27
-12.45
-16.74
-20.76
-23.87
-25.48
-25.39
-23.87
-21.55
-19.14
-17.15
-15.68
-14.5
-13.14
-11.09
-7.86
-3.14
3.23
11.13
20.1
29.38
37.96
44.78
48.99
50.16
48.48
44.61
39.52
34.13
28.97
24.09
19.11
13.6
7.33
0.47
-6.58
-13.31
-19.35
-24.46
-28.5
-31.34
-32.79
-32.77
-31.43
-29.2
-26.66
-24.38
-22.69
-21.61
-20.86
-19.95
-18.43
-15.94
-12.49
-8.5
-4.81
-2.49
-2.44
-5.11
-10.26
-17.07
-24.44
-31.34
-37.04
-41.14
-43.42
-43.73
-42.05
-38.42
-33.14
-26.64
-19.46
-12.04
-4.71
2.33
8.96
15.12
20.81
26.1
31.13
36.07
40.98
45.72
49.9
52.92
54.14
53.13
49.75
44.26
37.18
29.13
20.63
12.09
3.81
-3.94
-10.79
-16.37
-20.38
-22.69
-23.4
-22.79
-21.3
-19.43
-17.76
-16.77
-16.77
-17.81
-19.61
-21.74
-23.68
-24.95
-25.11
-23.77
-20.65
-15.76
-9.51
-2.73
3.52
8.3
11.08
11.73
10.5
7.72
3.75
-0.99
-5.89
-10.1
-12.76
-13.27
-11.64
-8.47
-4.72
-1.33
1.22
3.06
4.86
7.54
11.92
18.39
26.73
36.19
45.56
53.45
58.61
60.1
57.61
51.46
42.62
32.51
22.63
14.22
7.96
3.9
1.65
0.64
0.38
0.53
0.83
0.96
0.49
-1.05
-4.04
-8.63
-14.69
-21.72
-28.94
-35.43
-40.27
-42.79
-42.71
-40.15
-35.61
-29.76
-23.3
-16.93
-11.27
-6.96
-4.43
-3.85
-4.97
-7.19
-9.73
-11.91
-13.4
-14.21
-14.73
-15.46
-16.85
-19.12
-22.1
-25.34
-28.18
-30.03
-30.59
-29.87
-28.12
-25.7
-22.98
-20.26
-17.79
-15.68
-13.84
-11.99
-9.79
-7.11
-4.18
-1.61
-0.1
-0.04
-1.23
-2.94
-4.23
-4.44
-3.47
-1.72
0.16
1.62
2.36
2.29
1.49
0.04
-1.92
-4.17
-6.37
-8.1
-8.86
-8.29
-6.21
-2.7
1.79
6.72
11.54
15.96
19.97
23.75
27.36
30.64
33.13
34.21
33.38
30.29
24.86
17.14
7.37
-3.9
-15.74
-26.9
-36.14
-42.5
-45.61
-45.64
-43.05
-38.29
-31.75
-23.76
-14.76
-5.37
3.87
12.6
20.85
28.84
36.75
44.4
51.1
55.84
57.6
55.74
50.24
41.82
31.79
21.71
13.07
6.83
3.24
1.78
1.45
1.13
-0.17
-3.04
-7.75
-14.25
-22.2
-30.98
-39.72
-47.45
-53.42
-57.37
-59.66
-61.02
-62.25
-63.84
-65.69
-67.29
-67.83
-66.54
-62.86
-56.58
-47.88
-37.38
-25.97
-14.67
-4.28
4.72
12.28
18.6
23.91
28.32
31.83
34.44
36.26
37.6
38.83
40.27
42.03
44.0
45.91
47.47
48.55
49.18
49.61
50.21
51.26
52.84
54.73
56.43
57.38
57.17
55.69
53.14
49.92
46.49
43.26
40.51
38.39
36.87
35.75
34.66
33.15
30.76
27.23
22.55
16.99
10.93
4.66
-1.81
-8.83
-16.87
-26.28
-36.82
-47.47
-56.58
-62.26
-63.01
-58.31
-48.77
-35.97
-21.92
-8.44
3.18
12.35
19.03
23.51
26.27
27.84
28.77
29.5
30.28
31.08
31.72
32.06
32.23
32.67
33.99
36.63
40.59
45.37
50.1
53.95
56.49
57.79
58.46
59.36
61.42
65.29
71.17
78.66
86.6
93.35
97.09
96.29
90.22
79.19
64.42
47.67
30.76
15.12
1.69
-9.12
-17.3
-23.2
-27.47
-31.04
-34.84
-39.49
-44.99
-50.65
-55.34
-57.96
-57.98
-55.67
-51.94
-47.87
-44.2
-40.98
-37.64
-33.33
-27.32
-19.32
-9.57
1.18
11.92
21.5
28.93
33.59
35.34
34.51
31.72
27.58
22.47
16.46
9.47
1.6
-6.69
-14.56
-21.11
-25.66
-27.99
-28.32
-27.07
-24.69
-21.51
-17.74
-13.53
-9.06
-4.54
-0.2
3.75
7.12
9.73
11.43
12.08
11.57
9.79
6.63
2.03
-3.98
-11.06
-18.53
-25.41
-30.62
-33.29
-33.07
-30.28
-25.83
-20.99
-17.05
-14.89
-14.76
-16.27
-18.49
-20.37
-21.1
-20.29
-18.1
-15.0
-11.57
-8.25
-5.21
-2.38
0.51
3.84
8.07
13.58
20.53
28.77
37.73
46.46
53.79
58.57
59.97
57.67
51.92
43.49
33.5
23.03
12.88
3.44
-5.21
-13.09
-20.1
-26.02
-30.53
-33.46
-34.78
-34.6
-32.99
-29.89
-25.1
-18.45
-9.92
0.18
11.08
21.6
30.31
35.83
37.21
34.23
27.51
18.27
7.96
-2.07
-10.8
-17.52
-21.75
-23.28
-22.32
-19.61
-16.45
-14.3
-14.37
-17.21
-22.49
-29.17
-35.93
-41.56
-45.32
-47.06
-47.16
-46.25
-44.99
-43.77
-42.63
-41.31
-39.43
-36.73
-33.21
-29.21
-25.25
-21.9
-19.57
-18.39
-18.24
-18.74
-19.47
-20.12
-20.49
-20.52
-20.16
-19.28
-17.71
-15.31
-12.1
-8.31
-4.38
-0.78
2.13
4.25
5.72
6.87
8.05
9.51
11.45
13.95
17.08
20.76
24.78
28.63
31.63
33.05
32.45
29.93
26.09
21.83
17.91
14.76
12.37
10.53
9.08
7.94
7.02
5.99
4.3
1.41
-2.9
-8.38
-14.39
-20.2
-25.35
-29.75
-33.5
-36.74
-39.49
-41.71
-43.41
-44.75
-45.83
-46.61
-46.75
-45.75
-43.15
-38.82
-33.03
-26.32
-19.3
-12.48
-6.16
-0.48
4.4
8.28
10.95
12.31
12.47
11.76
10.63
9.49
8.56
7.79
6.97
5.91
4.54
2.95
1.35
-0.0
-0.95
-1.45
-1.53
-1.28
-0.78
-0.1
0.68
1.44
2.02
2.27
2.17
1.83
1.47
1.22
1.02
0.61
-0.38
-2.19
-4.79
-7.88
-11.01
-13.8
-16.04
-17.62
-18.47
-18.43
-17.39
-15.35
-12.54
-9.51
-6.78
-4.72
-3.31
-2.13
-0.59
1.74
4.93
8.61
12.13
14.95
16.81
17.84
18.35
18.62
18.68
18.36
17.49
16.09
14.45
12.97
11.87
11.11
10.42
9.47
8.12
6.52
4.92
3.57
2.56
1.82
1.22
0.77
0.53
0.6
0.93
1.32
1.44
1.01
-0.1
-1.77
-3.75
-5.65
-7.11
-7.78
-7.41
-5.92
-3.52
-0.63
2.21
4.57
6.28
7.45
8.34
9.21
10.12
10.96
11.48
11.4
10.53
8.77
6.24
3.25
0.42
-1.48
-1.77
-0.13
3.24
7.6
11.98
15.55
17.89
19.08
19.43
19.28
18.72
17.6
15.71
12.93
9.27
4.89
-0.01
-5.24
-10.54
-15.45
-19.36
-21.61
-21.82
-19.99
-16.6
-12.27
-7.54
-2.58
2.76
8.79
15.69
23.41
31.55
39.39
45.96
50.21
51.27
48.77
43.14
35.54
27.51
20.35
14.69
10.28
6.28
1.77
-3.87
-10.77
-18.67
-27.12
-35.57
-43.34
-49.73
-54.03
-55.8
-55.09
-52.43
-48.69
-44.68
-40.94
-37.58
-34.46
-31.34
-28.07
-24.51
-20.59
-16.23
-11.29
-5.7
0.53
7.23
14.09
20.67
26.51
31.34
35.05
37.87
40.24
42.61
45.29
48.24
51.11
53.37
54.54
54.43
53.24
51.5
50.06
49.86
51.87
56.86
65.03
75.61
86.62
95.0
97.41
91.31
76.05
53.35
26.8
0.7
-21.45
-37.89
-48.79
-55.67
-60.39
-64.42
-68.47
-72.69
-76.88
-80.8
-84.27
-87.01
-88.73
-89.04
-87.59
-84.17
-78.8
-71.69
-63.23
-53.85
-43.98
-33.99
-24.15
-14.62
-5.49
3.2
11.39
19.03
25.96
32.11
37.43
41.92
45.49
47.82
48.37
46.63
42.46
36.4
29.57
23.34
18.74
16.12
15.2
15.37
16.16
17.44
19.28
21.73
24.52
27.2
29.42
31.23
33.06
35.42
38.49
41.83
44.57
45.84
45.28
43.19
40.37
37.54
35.03
32.52
29.36
24.99
19.22
12.34
4.86
-2.71
-10.1
-17.28
-24.24
-30.92
-37.12
-42.58
-47.05
-50.37
-52.49
-53.41
-53.22
-51.97
-49.68
-46.36
-42.04
-36.84
-31.02
-25.0
-19.26
-14.27
-10.48
-8.25
-7.91
-9.61
-13.31
-18.53
-24.47
-30.15
-34.73
-37.78
-39.27
-39.36
-38.17
-35.5
-30.95
-24.21
-15.28
-4.73
6.53
17.58
27.73
36.82
45.07
52.9
60.75
68.89
77.34
85.74
93.29
98.9
101.46
100.38
95.89
89.09
81.5
74.54
68.92
64.57
60.83
56.84
51.78
45.02
36.07
24.67
11.13
-3.58
-17.92
-30.43
-40.42
-48.3
-55.26
-62.26
-69.24
-74.85
-77.11
-74.55
-67.08
-56.05
-43.47
-30.91
-18.85
-6.92
5.36
17.68
28.75
36.69
39.88
37.67
30.55
19.91
7.62
-4.47
-14.78
-22.25
-26.45
-27.59
-26.35
-23.66
-20.37
-17.16
-14.49
-12.62
-11.57
-11.04
-10.36
-8.73
-5.61
-1.17
3.59
7.23
8.43
6.66
2.36
-3.2
-8.46
-12.08
-13.21
-11.69
-7.94
-2.92
2.17
6.13
8.14
7.82
5.33
1.07
-4.47
-10.84
-17.67
-24.6
-31.2
-37.04
-41.76
-45.07
-46.85
-47.07
-45.85
-43.38
-39.98
-35.97
-31.56
-26.89
-22.03
-17.16
-12.61
-8.87
-6.4
-5.39
-5.67
-6.66
-7.63
-7.94
-7.37
-6.17
-5.0
-4.63
-5.59
-7.87
-10.89
-13.62
-14.98
-14.23
-11.18
-6.16
0.14
7.02
13.97
20.72
27.18
33.34
39.18
44.73
49.96
54.79
58.95
61.98
63.26
62.25
58.71
52.8
45.12
36.43
27.56
19.2
11.82
5.67
0.76
-3.22
-6.81
-10.72
-15.55
-21.6
-28.7
-36.22
-43.31
-49.21
-53.41
-55.83
-56.77
-56.76
-56.26
-55.58
-54.66
-53.14
-50.54
-46.51
-40.94
-34.02
-26.24
-18.17
-10.47
-3.79
1.34
4.51
5.6
4.78
2.5
-0.55
-3.67
-6.29
-8.03
-8.77
-8.61
-7.83
-6.81
-5.9
-5.32
-5.04
-4.79
-4.15
-2.78
-0.63
2.09
4.88
7.19
8.66
9.2
8.97
8.28
7.4
6.44
5.35
4.0
2.22
-0.1
-3.01
-6.43
-10.18
-13.95
-17.31
-19.91
-21.47
-21.9
-21.31
-19.97
-18.2
-16.28
-14.39
-12.64
-11.09
-9.79
-8.76
-8.0
-7.38
-6.68
-5.6
-3.92
-1.56
1.33
4.39
7.19
9.33
10.57
10.84
10.2
8.81
6.86
4.57
2.12
-0.39
-2.98
-5.79
-8.99
-12.58
-16.25
-19.45
-21.45
-21.71
-20.09
-16.96
-13.04
-9.12
-5.85
-3.5
-2.06
-1.31
-0.92
-0.58
0.03
1.18
3.06
5.65
8.81
12.2
15.48
18.34
20.64
22.34
23.53
24.38
25.0
25.47
25.82
26.03
26.03
25.76
25.15
24.17
22.83
21.23
19.59
18.14
17.07
16.48
16.3
16.37
16.55
16.73
16.86
16.9
16.77
16.4
15.75
14.88
13.86
12.71
11.32
9.51
7.12
4.09
0.56
-3.24
-7.08
-10.79
-14.22
-17.21
-19.56
-21.03
-21.42
-20.61
-18.59
-15.38
-11.07
-5.78
0.22
6.56
12.77
18.41
23.2
27.06
30.12
32.56
34.52
36.03
36.98
37.23
36.64
35.2
33.02
30.36
27.58
25.04
23.0
21.53
20.53
19.75
18.95
17.9
16.47
14.59
12.26
9.53
6.52
3.45
0.6
-1.74
-3.31
-3.96
-3.66
-2.47
-0.59
1.64
3.7
4.93
4.76
2.94
-0.23
-3.84
-6.49
-6.72
-3.44
3.57
13.43
24.23
33.44
38.54
37.68
30.16
16.75
-0.55
-18.9
-35.36
-47.6
-54.46
-56.03
-53.36
-47.97
-41.3
-34.37
-27.71
-21.57
-16.13
-11.51
-7.73
-4.55
-1.57
1.67
5.3
8.97
11.97
13.56
13.38
11.67
9.14
6.66
4.8
3.62
2.65
1.09
-1.92
-6.94
-14.11
-23.0
-32.62
-41.64
-48.69
-52.75
-53.44
-51.04
-46.33
-40.22
-33.45
-26.51
-19.64
-13.02
-6.86
-1.39
3.16
6.67
9.09
10.42
10.6
9.56
7.28
3.9
-0.17
-4.33
-7.94
-10.47
-11.71
-11.71
-10.7
-8.92
-6.59
-3.89
-1.05
1.63
3.86
5.49
6.6
7.48
8.5
9.84
11.39
12.78
13.55
13.31
11.89
9.3
5.72
1.42
-3.19
-7.54
-10.94
-12.8
-12.81
-11.18
-8.5
-5.52
-2.89
-0.86
0.65
1.87
3.03
4.16
5.29
6.4
7.56
8.86
10.31
11.79
13.11
14.21
15.1
15.93
16.8
17.72
18.55
19.07
19.04
18.21
16.29
13.0
8.19
2.03
-4.88
-11.55
-16.91
-20.2
-21.22
-20.37
-18.45
-16.24
-14.33
-12.89
-11.84
-10.87
-9.59
-7.6
-4.54
-0.16
5.54
12.31
19.67
27.02
33.74
39.32
43.29
45.25
44.92
42.26
37.62
31.78
25.81
20.69
17.04
14.8
13.37
11.91
9.71
6.43
2.14
-2.8
-7.86
-12.46
-16.02
-17.96
-17.91
-15.78
-11.94
-7.13
-2.27
1.83
4.6
5.74
5.06
2.42
-2.24
-8.76
-16.66
-25.19
-33.48
-40.76
-46.47
-50.13
-51.33
-49.63
-44.77
-36.79
-26.25
-14.16
-1.7
10.04
20.29
28.67
35.08
39.62
42.61
44.51
45.79
46.84
47.73
48.25
48.08
47.01
45.14
42.9
40.83
39.34
38.49
37.92
37.05
35.22
31.9
26.79
19.88
11.49
2.19
-7.26
-16.11
-23.83
-30.24
-35.49
-39.85
-43.55
-46.5
-48.34
-48.45
-46.2
-41.22
-33.62
-24.13
-14.0
-4.89
1.52
3.92
1.77
-4.53
-13.73
-24.01
-33.51
-40.72
-44.83
-45.66
-43.67
-39.54
-34.04
-27.89
-21.63
-15.71
-10.42
-5.92
-2.15
1.12
4.19
7.29
10.47
13.46
15.85
17.21
17.26
16.08
13.94
11.24
8.33
5.43
2.6
-0.22
-3.14
-6.3
-9.79
-13.63
-17.66
-21.49
-24.61
-26.54
-26.9
-25.62
-22.86
-18.9
-14.09
-8.7
-2.92
3.09
9.17
15.12
20.73
25.73
29.98
33.42
36.12
38.16
39.47
39.7
38.33
34.84
29.1
21.51
13.1
5.21
-0.89
-4.33
-4.86
-2.76
1.22
6.17
11.15
15.38
18.37
19.94
20.22
19.48
17.96
15.79
12.97
9.41
5.15
0.32
-4.71
-9.43
-13.17
-15.26
-15.19
-12.82
-8.48
-2.99
2.63
7.42
10.75
12.52
13.17
13.48
14.34
16.47
20.13
25.1
30.59
35.51
38.8
39.79
38.5
35.6
32.18
29.28
27.51
26.85
26.72
26.25
24.55
21.01
15.38
7.75
-1.58
-12.15
-23.47
-35.06
-46.48
-57.38
-67.45
-76.4
-83.87
-89.39
-92.49
-92.81
-90.29
-85.19
-78.02
-69.29
-59.39
-48.53
-36.85
-24.63
-12.41
-0.91
9.11
17.11
22.92
26.72
28.91
29.89
29.95
29.27
28.04
26.45
24.79
23.35
22.32
21.72
21.39
20.99
20.14
18.5
15.87
12.2
7.69
2.69
-2.36
-7.02
-11.0
-14.14
-16.49
-18.23
-19.54
-20.58
-21.42
-21.91
-21.77
-20.66
-18.27
-14.54
-9.68
-4.15
1.43
6.45
10.41
13.03
14.25
14.28
13.56
12.63
12.05
12.18
13.12
14.76
16.88
19.24
21.75
24.34
26.95
29.44
31.64
33.48
34.96
36.16
37.09
37.57
37.21
35.56
32.33
27.65
22.03
16.29
11.17
7.08
3.94
1.33
-1.25
-4.18
-7.51
-11.18
-15.01
-18.94
-22.91
-26.75
-30.1
-32.46
-33.32
-32.45
-29.95
-26.18
-21.59
-16.49
-11.06
-5.44
0.12
5.19
9.33
12.25
14.0
14.91
15.39
15.68
15.76
15.36
14.26
12.38
9.93
7.27
4.85
3.07
2.23
2.43
3.6
5.45
7.57
9.57
11.28
12.8
14.45
16.57
19.29
22.36
25.2
27.09
27.5
26.29
23.8
20.7
17.78
15.63
14.39
13.83
13.48
12.93
12.04
10.92
9.77
8.62
7.25
5.33
2.64
-0.75
-4.46
-7.97
-10.82
-12.74
-13.57
-13.19
-11.45
-8.24
-3.59
2.18
8.5
14.65
19.9
23.71
25.65
25.41
22.8
17.75
10.47
1.48
-8.41
-18.21
-27.02
-34.18
-39.35
-42.53
-43.95
-43.9
-42.56
-39.98
-36.07
-30.74
-24.09
-16.39
-8.13
0.23
8.4
16.41
24.47
32.81
41.4
49.86
57.5
63.5
67.11
67.84
65.58
60.6
53.52
45.15
36.34
27.8
19.97
12.96
6.52
0.16
-6.78
-14.89
-24.51
-35.5
-47.2
-58.54
-68.27
-75.34
-79.16
-79.76
-77.7
-73.9
-69.31
-64.69
-60.44
-56.58
-52.92
-49.3
-45.72
-42.43
-39.7
-37.58
-35.8
-33.85
-31.23
-27.83
-23.96
-20.16
-16.83
-14.02
-11.3
-8.16
-4.29
0.24
5.03
9.68
14.03
18.27
22.71
27.65
33.19
39.12
45.15
50.91
56.07
60.35
63.55
65.6
66.63
66.93
66.92
67.16
68.13
70.14
73.05
76.26
78.65
78.83
75.5
67.83
55.73
40.01
22.18
4.09
-12.63
-27.13
-39.5
-50.56
-61.29
-72.09
-82.39
-90.85
-95.97
-96.94
-94.02
-88.41
-81.51
-74.35
-67.17
-59.71
-51.72
-43.32
-35.08
-27.7
-21.63
-16.92
-13.28
-10.38
-8.05
-6.31
-5.26
-4.92
-5.09
-5.45
-5.61
-5.3
-4.32
-2.67
-0.44
2.22
5.11
8.11
11.22
14.52
18.16
22.24
26.69
31.31
35.81
39.92
43.44
46.27
48.43
50.12
51.64
53.31
55.26
57.24
58.57
58.25
55.27
48.99
39.37
27.01
12.92
-1.79
-16.21
-29.75
-42.05
-52.77
-61.5
-67.81
-71.37
-72.15
-70.56
-67.35
-63.35
-59.2
-55.16
-51.15
-46.93
-42.33
-37.45
-32.53
-27.91
-23.83
-20.36
-17.53
-15.33
-13.85
-13.23
-13.5
-14.56
-16.1
-17.79
-19.32
-20.51
-21.27
-21.53
-21.23
-20.31
-18.81
-16.85
-14.62
-12.19
-9.49
-6.28
-2.26
2.72
8.55
14.89
21.26
27.25
32.61
37.3
41.44
45.12
48.26
50.54
51.42
50.25
46.62
40.49
32.35
23.08
13.7
5.06
-2.29
-8.11
-12.42
-15.3
-16.91
-17.48
-17.29
-16.63
-15.69
-14.54
-13.11
-11.3
-9.03
-6.35
-3.43
-0.53
2.01
3.8
4.51
4.01
2.48
0.33
-1.91
-3.85
-5.37
-6.57
-7.55
-8.26
-8.34
-7.28
-4.54
0.26
7.25
16.22
26.58
37.3
47.03
54.34
58.19
58.25
55.03
49.63
43.37
37.25
31.7
26.63
21.67
16.55
11.23
6.01
1.4
-2.11
-4.16
-4.75
-4.18
-3.05
-2.09
-2.09
-3.71
-7.36
-13.17
-20.82
-29.62
-38.56
-46.49
-52.44
-55.85
-56.75
-55.65
-53.34
-50.57
-47.78
-45.04
-42.18
-38.99
-35.38
-31.43
-27.33
-23.3
-19.48
-15.96
-12.79
-10.06
-7.89
-6.38
-5.47
-4.98
-4.52
-3.65
-2.0
0.6
4.04
8.01
12.08
15.92
19.24
21.93
23.92
25.17
25.63
25.3
24.3
22.85
21.26
19.76
18.43
17.19
15.79
13.97
11.48
8.19
4.1
-0.66
-5.8
-10.9
-15.44
-18.95
-21.15
-22.04
-21.85
-20.99
-19.76
-18.29
-16.49
-14.17
-11.19
-7.57
-3.49
0.74
4.8
8.42
11.37
13.52
14.81
15.24
14.86
13.73
11.95
9.61
6.86
3.94
1.13
-1.27
-2.99
-3.86
-3.75
-2.6
-0.35
2.99
7.27
12.09
16.81
20.61
22.7
22.6
20.29
16.22
11.09
5.68
0.52
-4.06
-7.92
-10.91
-12.85
-13.58
-13.09
-11.59
-9.52
-7.37
-5.5
-4.07
-3.06
-2.44
-2.3
-2.77
-3.95
-5.68
-7.63
-9.34
-10.5
-11.03
-11.08
-10.84
-10.43
-9.8
-8.84
-7.62
-6.37
-5.41
-5.0
-5.15
-5.69
-6.37
-7.13
-8.08
-9.47
-11.55
-14.35
-17.67
-21.03
-23.92
-25.8
-26.25
-25.09
-22.35
-18.3
-13.34
-7.91
-2.34
3.14
8.37
13.25
17.68
21.58
24.9
27.59
29.6
30.83
31.16
30.49
28.73
25.99
22.45
18.41
14.22
10.12
6.27
2.65
-0.85
-4.35
-7.82
-11.05
-13.73
-15.66
-16.91
-17.92
-19.22
-21.19
-23.82
-26.7
-29.23
-30.95
-31.67
-31.42
-30.24
-27.97
-24.34
-19.11
-12.39
-4.73
3.02
9.96
15.41
19.01
20.76
20.84
19.62
17.55
15.17
12.99
11.43
10.76
11.06
12.3
14.38
17.11
20.26
23.52
26.56
29.13
31.06
32.27
32.72
32.32
31.0
28.82
25.94
22.7
19.44
16.43
13.71
11.15
8.51
5.52
2.03
-1.98
-6.3
-10.56
-14.24
-16.89
-18.17
-18.04
-16.66
-14.33
-11.34
-7.93
-4.29
-0.52
3.29
7.17
11.2
15.49
20.03
24.62
28.94
32.62
35.39
37.11
37.68
36.93
34.64
30.56
24.61
16.93
7.93
-1.94
-12.1
-21.98
-30.95
-38.34
-43.58
-46.43
-47.1
-46.16
-44.37
-42.41
-40.68
-39.33
-38.37
-37.74
-37.31
-36.91
-36.28
-35.22
-33.66
-31.73
-29.72
-27.95
-26.6
-25.66
-24.94
-24.19
-23.2
-21.8
-19.97
-17.76
-15.3
-12.73
-10.13
-7.42
-4.28
-0.3
4.88
11.29
18.63
26.26
33.46
39.69
44.69
48.47
51.12
52.72
53.25
52.66
51.04
48.6
45.71
42.76
40.06
37.65
35.28
32.48
28.7
23.51
16.86
9.13
1.11
-6.26
-12.14
-15.99
-17.51
-16.67
-13.55
-8.36
-1.45
6.55
14.84
22.56
29.06
34.06
37.67
40.27
42.3
44.08
45.69
46.91
47.24
46.04
42.7
36.95
29.03
19.7
10.02
1.02
-6.67
-12.9
-17.86
-21.82
-24.92
-27.1
-28.29
-28.57
-28.23
-27.73
-27.43
-27.47
-27.68
-27.61
-26.8
-24.91
-21.96
-18.36
-14.84
-12.25
-11.29
-12.16
-14.48
-17.39
-19.87
-21.12
-20.81
-19.03
-16.14
-12.5
-8.28
-3.55
1.67
7.28
13.03
18.73
24.18
29.32
34.15
38.67
42.84
46.6
49.93
52.88
55.53
58.0
60.36
62.67
64.87
66.75
67.86
67.54
65.03
59.8
51.74
41.38
29.73
18.03
7.39
-1.49
-8.41
-13.64
-17.78
-21.53
-25.59
-30.44
-36.26
-42.84
-49.58
-55.57
-59.85
-61.64
-60.57
-56.74
-50.67
-43.08
-34.66
-25.97
-17.35
-9.02
-1.15
5.98
11.95
16.23
18.28
17.76
14.73
9.74
3.78
-2.02
-6.65
-9.54
-10.67
-10.35
-9.06
-7.23
-5.09
-2.83
-0.66
1.17
2.37
2.84
2.76
2.55
2.75
3.74
5.61
8.09
10.69
12.87
14.29
14.8
14.48
13.51
12.02
10.14
7.95
5.59
3.24
0.93
-1.45
-4.2
-7.63
-11.86
-16.64
-21.36
-25.33
-28.07
-29.57
-30.25
-30.72
-31.39
-32.27
-33.02
-33.17
-32.44
-30.8
-28.42
-25.4
-21.73
-17.29
-12.14
-6.62
-1.38
2.92
5.8
7.14
7.14
6.04
4.04
1.23
-2.27
-6.16
-10.0
-13.37
-16.04
-18.07
-19.56
-20.51
-20.64
-19.47
-16.62
-12.07
-6.18
0.37
6.98
13.24
18.97
24.05
28.34
31.56
33.51
34.16
33.71
32.5
30.85
28.95
26.82
24.37
21.43
17.72
12.97
7.04
0.08
-7.33
-14.29
-19.9
-23.59
-25.39
-25.87
-25.84
-25.97
-26.56
-27.52
-28.51
-29.2
-29.32
-28.75
-27.47
-25.54
-23.1
-20.31
-17.32
-14.29
-11.31
-8.47
-5.86
-3.51
-1.43
0.46
2.25
3.99
5.61
6.89
7.61
7.68
7.2
6.56
6.2
6.49
7.57
9.31
11.41
13.58
15.64
17.62
19.64
21.8
24.07
26.22
27.94
28.9
28.97
28.1
26.36
23.72
20.01
15.07
8.88
1.71
-5.96
-13.54
-20.61
-26.85
-32.07
-35.95
-38.1
-38.18
-36.2
-32.68
-28.56
-24.85
-22.11
-20.34
-19.05
-17.62
-15.63
-13.01
-9.95
-6.66
-3.24
0.28
3.82
7.18
10.0
11.92
12.74
12.51
11.58
10.41
9.44
8.89
8.75
8.83
8.91
8.95
9.06
9.5
10.54
12.26
14.5
17.0
19.45
21.72
23.86
26.09
28.65
31.72
35.39
39.7
44.58
49.91
55.37
60.3
63.71
64.48
61.69
55.0
44.93
32.77
20.21
8.84
-0.36
-7.24
-12.36
-16.55
-20.56
-24.66
-28.73
-32.4
-35.37
-37.58
-39.14
-40.21
-40.83
-40.91
-40.31
-39.05
-37.27
-35.19
-32.88
-30.18
-26.82
-22.61
-17.74
-12.83
-8.74
-6.23
-5.66
-6.88
-9.32
-12.24
-14.92
-16.69
-17.06
-15.68
-12.45
-7.53
-1.37
5.43
12.27
18.7
24.53
29.77
34.6
39.32
44.35
50.12
56.97
64.86
73.11
80.34
84.73
84.57
78.74
67.26
51.22
32.47
13.14
-4.94
-20.57
-33.23
-43.0
-50.39
-56.11
-60.92
-65.36
-69.71
-73.79
-77.11
-79.0
-78.9
-76.53
-71.97
-65.64
-58.12
-50.05
-41.95
-34.19
-26.91
-20.11
-13.72
-7.69
-2.05
3.05
7.44
10.98
13.68
15.67
17.09
18.05
18.46
18.17
17.03
15.09
12.57
9.93
7.71
6.45
6.5
8.0
10.76
14.29
17.93
21.04
23.29
24.8
26.12
27.99
31.04
35.52
41.25
47.55
53.4
57.62
59.01
56.72
50.51
40.93
29.31
17.38
6.69
-1.94
-8.63
-14.31
-20.17
-27.1
-35.23
-44.02
-52.51
-59.75
-65.14
-68.41
-69.53
-68.56
-65.64
-61.0
-55.16
-48.82
-42.74
-37.39
-32.86
-28.8
-24.69
-20.18
-15.27
-10.38
-6.1
-3.04
-1.54
-1.61
-2.92
-4.92
-6.95
-8.46
-9.03
-8.44
-6.65
-3.69
0.3
5.11
10.42
15.86
21.05
25.71
29.78
33.4
36.82
40.33
44.04
47.9
51.65
54.94
57.4
58.62
58.19
55.78
51.28
44.93
37.45
29.85
23.1
17.76
13.65
9.96
5.52
-0.55
-8.52
-18.0
-28.14
-38.14
-47.52
-56.07
-63.63
-69.75
-73.66
-74.48
-71.72
-65.54
-56.87
-46.98
-37.07
-27.81
-19.37
-11.61
-4.43
1.98
7.2
10.76
12.5
12.57
11.48
9.82
7.98
6.1
4.12
1.98
-0.15
-1.79
-2.28
-1.15
1.66
5.66
10.01
13.96
17.14
19.7
22.21
25.2
28.91
33.11
37.3
40.88
43.36
44.35
43.52
40.6
35.5
28.56
20.6
12.77
6.16
1.29
-2.03
-4.62
-7.3
-10.47
-13.87
-16.84
-18.84
-19.98
-21.03
-23.07
-26.8
-32.06
-37.71
-42.13
-43.94
-42.6
-38.57
-33.01
-27.16
-21.84
-17.28
-13.32
-9.76
-6.63
-4.19
-2.76
-2.45
-3.08
-4.34
-5.84
-7.36
-8.75
-9.91
-10.75
-11.15
-11.02
-10.4
-9.4
-8.09
-6.48
-4.4
-1.61
2.17
7.18
13.47
20.95
29.2
37.41
44.35
48.61
49.01
45.09
37.52
27.97
18.66
11.55
7.61
6.54
7.01
7.35
6.12
2.65
-2.95
-10.01
-17.58
-24.76
-30.9
-35.58
-38.63
-40.05
-39.94
-38.48
-35.9
-32.56
-28.84
-25.15
-21.81
-18.97
-16.62
-14.6
-12.68
-10.67
-8.46
-6.04
-3.5
-0.96
1.49
3.8
6.09
8.58
11.49
14.93
18.76
22.65
26.25
29.31
31.82
33.93
35.91
38.02
40.52
43.64
47.54
52.24
57.43
62.42
66.14
67.38
65.2
59.2
49.87
38.44
26.62
15.98
7.56
1.52
-2.81
-6.53
-10.7
-16.01
-22.68
-30.6
-39.49
-49.01
-58.62
-67.53
-74.66
-78.93
-79.65
-76.82
-71.15
-63.74
-55.59
-47.27
-38.86
-30.23
-21.32
-12.46
-4.26
2.56
7.53
10.59
12.12
12.78
13.23
13.95
15.06
16.37
17.53
18.25
18.44
18.24
18.01
18.07
18.59
19.48
20.52
21.49
22.38
23.39
24.92
27.38
31.05
35.96
41.75
47.63
52.39
54.51
52.63
46.01
35.12
21.63
8.19
-2.49
-8.56
-9.66
-7.04
-3.05
-0.28
-0.63
-4.94
-12.9
-23.38
-34.87
-45.84
-54.91
-61.08
-63.8
-63.05
-59.37
-53.58
-46.58
-39.13
-31.6
-24.18
-16.92
-9.92
-3.35
2.6
7.76
12.0
15.19
17.16
17.89
17.54
16.61
15.74
15.44
15.92
16.92
17.99
18.72
19.08
19.35
19.96
21.28
23.47
26.53
30.48
35.38
41.18
47.56
53.86
59.25
63.0
64.87
65.1
64.18
62.48
59.89
55.9
49.86
41.46
30.97
19.28
7.51
-3.36
-12.84
-21.12
-28.91
-37.08
-46.27
-56.45
-66.84
-76.05
-82.72
-85.96
-85.81
-83.11
-79.12
-74.95
-71.13
-67.59
-63.95
-59.94
-55.64
-51.51
-48.05
-45.47
-43.57
-41.76
-39.42
-36.09
-31.73
-26.59
-21.1
-15.6
-10.34
-5.41
-0.9
3.09
6.42
8.99
10.76
11.87
12.58
13.23
14.18
15.67
17.83
20.61
23.82
27.2
30.46
33.4
35.86
37.74
38.89
39.14
38.38
36.57
33.85
30.58
27.23
24.37
22.41
21.44
21.01
20.19
17.78
12.73
4.59
-6.39
-19.3
-33.0
-46.37
-58.52
-68.73
-76.38
-81.05
-82.59
-81.29
-77.89
-73.37
-68.53
-63.83
-59.33
-54.84
-50.21
-45.51
-41.02
-37.15
-34.35
-32.95
-33.02
-34.32
-36.15
-37.44
-36.87
-33.13
-25.31
-13.09
3.12
22.26
42.88
63.51
82.94
100.4
115.54
128.27
138.59
146.48
152.01
155.32
156.77
156.91
156.43
155.96
155.9
156.27
156.59
156.04
153.72
148.98
141.67
132.2
121.47
110.68
101.22
94.59
92.28
95.5
104.7
119.09
136.28
152.58
163.71
165.84
156.56
135.23
103.13
62.96
18.33
-26.71
-68.33
-103.44
-130.27
-148.65
-159.85
-166.06
-169.57
-171.96
-173.83
-174.87
-174.33
-171.6
-166.48
-159.26
-150.5
-140.83
-130.68
-120.23
-109.42
-98.16
-86.44
-74.46
-62.63
-51.43
-41.25
-32.29
-24.57
-17.96
-12.31
-7.46
-3.25
0.47
3.87
7.14
10.44
13.85
17.37
20.79
23.74
25.68
26.1
24.65
21.29
16.31
10.23
3.62
-2.97
-9.1
-14.6
-19.5
-24.11
-28.8
-33.74
-38.64
-42.63
-44.46
-42.97
-37.56
-28.53
-17.04
-4.61
7.38
18.03
27.13
34.9
41.73
47.91
53.45
58.16
61.7
63.78
64.29
63.39
61.42
58.82
55.91
52.84
49.71
46.81
44.85
44.82
47.7
53.76
62.24
71.36
78.93
83.01
82.51
77.15
67.11
52.73
34.3
12.38
-11.97
-37.0
-60.63
-80.86
-96.35
-106.64
-112.04
-113.36
-111.67
-108.05
-103.52
-99.09
-95.67
-94.02
-94.57
-97.25
-101.38
-105.7
-108.67
-108.97
-105.91
-99.59
-90.89
-80.96
-70.95
-61.64
-53.48
-46.66
-41.17
-36.9
-33.57
-30.86
-28.5
-26.37
-24.56
-23.23
-22.54
-22.46
-22.75
-23.08
-23.04
-22.25
-20.32
-16.94
-11.91
-5.21
2.99
12.4
22.72
33.65
44.79
55.41
64.34
70.14
71.49
67.7
59.12
47.13
33.78
21.24
11.28
4.82
1.95
1.9
3.44
5.22
6.08
5.36
2.88
-1.16
-6.36
-12.21
-18.1
-23.27
-26.88
-28.19
-26.85
-23.08
-17.52
-11.05
-4.49
1.54
6.48
9.66
10.33
7.87
2.25
-5.73
-14.45
-21.97
-26.67
-27.74
-25.34
-20.32
-13.75
-6.49
0.96
8.33
15.38
21.83
27.38
31.98
35.96
39.93
44.57
50.21
56.57
62.68
67.06
68.15
64.79
56.65
44.36
29.48
14.06
0.17
-10.62
-17.59
-20.95
-21.53
-20.4
-18.46
-16.17
-13.71
-11.26
-9.32
-8.78
-10.69
-15.81
-24.16
-34.82
-46.08
-56.0
-62.91
-65.86
-64.76
-60.14
-52.89
-43.92
-34.1
-24.2
-15.01
-7.32
-1.77
1.34
2.28
1.78
0.84
0.37
0.89
2.48
4.88
7.72
10.65
13.46
16.02
18.35
20.52
22.66
24.85
27.03
29.02
30.5
31.29
31.43
31.22
31.06
31.09
31.16
30.81
29.61
27.4
24.38
20.95
17.36
13.58
9.34
4.52
-0.66
-5.55
-9.45
-12.02
-13.55
-14.92
-17.14
-20.84
-25.99
-31.97
-37.84
-42.79
-46.29
-48.18
-48.51
-47.4
-44.94
-41.15
-36.04
-29.72
-22.48
-14.82
-7.42
-0.87
4.45
8.54
11.7
14.32
16.72
18.99
21.05
22.8
24.14
25.11
25.7
25.93
25.75
25.13
24.18
23.09
22.12
21.45
21.21
21.37
21.89
22.79
24.16
26.14
28.86
32.37
36.61
41.47
46.75
52.26
57.7
62.57
66.21
67.87
67.01
63.55
57.9
50.71
42.59
33.86
24.44
14.18
3.14
-8.24
-19.22
-29.14
-37.59
-44.58
-50.23
-54.52
-57.17
-57.81
-56.3
-52.97
-48.55
-43.78
-39.17
-34.75
-30.29
-25.55
-20.67
-16.08
-12.26
-9.56
-7.95
-7.16
-6.85
-6.78
-6.83
-6.99
-7.19
-7.34
-7.34
-7.09
-6.47
-5.36
-3.55
-0.85
2.82
7.37
12.6
18.23
24.06
29.92
35.76
41.55
47.27
53.04
59.0
65.22
71.45
76.97
80.6
81.02
77.24
69.02
57.01
42.53
27.17
12.36
-0.94
-12.28
-21.58
-29.0
-34.82
-39.37
-43.0
-46.0
-48.53
-50.53
-51.76
-51.97
-51.04
-49.08
-46.44
-43.57
-40.84
-38.35
-35.91
-33.13
-29.6
-25.09
-19.7
-13.83
-8.1
-3.26
-0.01
1.07
-0.28
-3.87
-8.99
-14.57
-19.41
-22.55
-23.54
-22.48
-19.94
-16.62
-13.03
-9.44
-5.76
-1.83
2.48
7.08
11.71
16.03
19.79
22.97
25.79
28.62
31.81
35.53
39.74
44.21
48.63
52.65
55.79
57.47
57.09
54.23
48.94
41.75
33.6
25.41
17.7
10.41
3.1
-4.74
-13.17
-21.69
-29.46
-35.6
-39.68
-41.74
-42.24
-41.73
-40.61
-39.04
-37.08
-34.69
-31.86
-28.49
-24.4
-19.26
-12.86
-5.26
2.98
10.91
17.47
21.83
23.7
23.36
21.37
18.26
14.32
9.63
4.23
-1.69
-7.73
-13.43
-18.4
-22.42
-25.39
-27.16
-27.51
-26.29
-23.53
-19.6
-15.12
-10.68
-6.69
-3.17
0.12
3.53
7.34
11.64
16.33
21.08
25.37
28.46
29.53
27.88
23.24
15.84
6.5
-3.73
-13.84
-23.07
-30.99
-37.37
-42.01
-44.73
-45.42
-44.21
-41.55
-38.1
-34.52
-31.3
-28.63
-26.47
-24.69
-23.13
-21.66
-20.13
-18.37
-16.3
-13.95
-11.48
-9.09
-6.94
-5.0
-3.18
-1.41
0.27
1.66
2.53
2.78
2.44
1.58
0.27
-1.57
-4.03
-7.15
-10.77
-14.51
-17.93
-20.58
-22.18
-22.64
-22.04
-20.54
-18.31
-15.43
-11.94
-7.81
-3.0
2.39
8.17
14.01
19.56
24.52
28.62
31.59
33.07
32.76
30.55
26.75
22.07
17.36
13.34
10.3
8.0
6.01
3.9
1.51
-1.09
-3.7
-6.17
-8.4
-10.38
-12.12
-13.69
-15.26
-17.02
-19.05
-21.22
-23.22
-24.65
-25.31
-25.3
-24.91
-24.42
-23.82
-22.81
-20.93
-17.85
-13.58
-8.49
-3.18
1.68
5.52
7.98
8.88
8.33
6.7
4.56
2.54
1.18
0.75
1.14
2.09
3.24
4.41
5.59
6.92
8.57
10.62
12.96
15.3
17.27
18.48
18.66
17.68
15.64
12.75
9.34
5.85
2.59
-0.26
-2.8
-5.27
-7.88
-10.61
-13.15
-14.94
-15.5
-14.63
-12.56
-9.87
-7.3
-5.46
-4.64
-4.69
-5.05
-4.93
-3.48
-0.08
5.51
13.04
21.84
31.06
39.81
47.37
53.09
56.47
57.19
55.24
51.08
45.51
39.4
33.29
27.15
20.42
12.42
2.87
-7.76
-18.3
-27.26
-33.48
-36.53
-36.9
-35.69
-34.12
-33.15
-33.16
-33.96
-34.97
-35.46
-34.76
-32.33
-27.8
-20.9
-11.5
0.35
14.26
29.47
44.93
59.5
72.33
83.15
92.41
101.2
110.78
122.13
135.33
149.34
162.06
170.83
173.11
167.25
152.84
130.65
102.29
69.66
34.63
-1.17
-36.24
-69.16
-98.63
-123.61
-143.51
-158.32
-168.54
-175.03
-178.85
-181.05
-182.53
-183.96
-185.66
-187.65
-189.73
-191.54
-192.65
-192.57
-190.65
-186.13
-178.24
-166.42
-150.53
-130.97
-108.66
-84.71
-60.22
-36.01
-12.56
9.86
31.09
51.04
69.72
87.38
104.47
121.45
138.54
155.49
171.62
186.12
198.37
208.24
216.12
222.67
228.43
233.65
238.3
242.2
245.3
247.67
249.41
250.25
249.47
245.82
237.82
224.27
204.58
178.95
148.1
112.87
74.12
32.78
-9.69
-51.05
-88.42
-119.05
-141.19
-154.74
-161.07
-162.24
-159.97
-155.04
-147.47
-137.13
-124.53
-110.96
-98.22
-87.78
-80.28
-75.31
-71.77
-68.47
-64.56
-59.62
-53.49
-45.94
-36.84
-26.62
-16.65
-9.24
-7.0
-11.53
-22.42
-36.89
-50.61
-59.4
-60.85
-55.14
-44.73
-33.0
-22.92
-16.12
-12.8
-12.34
-13.91
-17.0
-21.27
-26.18
-30.38
-31.71
-27.68
-16.59
1.46
24.16
47.66
67.85
81.71
87.94
86.79
79.33
66.95
51.28
34.49
19.4
9.07
5.83
10.31
21.16
35.54
50.23
62.53
70.89
74.72
74.09
69.29
60.61
48.45
33.46
16.65
-0.76
-17.42
-32.24
-44.58
-54.25
-61.4
-66.27
-69.01
-69.71
-68.46
-65.58
-61.6
-57.2
-53.04
-49.5
-46.65
-44.24
-41.91
-39.22
-35.87
-31.69
-26.76
-21.35
-15.94
-11.02
-7.1
-4.49
-3.27
-3.29
-4.33
-6.22
-8.94
-12.52
-16.99
-22.1
-27.32
-31.83
-34.78
-35.49
-33.68
-29.54
-23.67
-16.92
-10.15
-4.03
1.12
5.37
9.01
12.25
15.03
16.82
16.74
13.99
8.26
0.02
-9.5
-18.69
-26.13
-31.04
-33.5
-34.26
-34.31
-34.49
-35.14
-36.07
-36.58
-35.77
-32.86
-27.38
-19.3
-8.96
3.18
16.65
31.04
45.92
60.67
74.49
86.45
95.82
102.28
105.88
106.99
105.99
103.18
98.72
92.71
85.28
76.52
66.45
54.95
41.95
27.47
11.9
-4.11
-19.62
-33.65
-45.3
-53.9
-59.1
-60.93
-59.81
-56.5
-51.89
-46.83
-41.97
-37.63
-33.83
-30.36
-26.93
-23.33
-19.57
-16.04
-13.41
-12.59
-14.41
-19.35
-27.24
-37.16
-47.53
-56.37
-61.77
-62.42
-58.01
-49.36
-38.12
-26.3
-15.56
-6.77
0.09
5.67
10.89
16.44
22.73
29.86
37.73
46.09
54.48
62.11
68.01
71.21
71.17
68.06
62.79
56.73
51.21
47.01
44.15
41.89
39.14
34.83
28.3
19.4
8.58
-3.37
-15.45
-26.67
-36.35
-44.25
-50.49
-55.56
-59.95
-63.99
-67.63
-70.51
-72.08
-71.74
-69.0
-63.55
-55.28
-44.37
-31.28
-16.77
-1.91
12.13
24.21
33.37
39.0
40.8
38.87
33.67
25.99
16.86
7.44
-1.15
-8.03
-12.63
-14.77
-14.59
-12.46
-8.88
-4.38
0.55
5.49
10.12
14.29
17.97
21.28
24.34
27.26
30.01
32.44
34.3
35.17
34.67
32.4
28.17
22.06
14.4
5.68
-3.64
-13.17
-22.6
-31.63
-39.91
-47.09
-53.02
-57.76
-61.58
-64.69
-66.95
-67.85
-66.67
-62.98
-56.94
-49.29
-41.1
-33.29
-26.26
-19.89
-13.81
-7.71
-1.55
4.48
10.08
15.07
19.44
23.32
26.86
30.15
33.16
35.69
37.51
38.36
38.11
36.77
34.47
31.38
27.62
23.29
18.55
13.72
9.36
6.09
4.48
4.74
6.74
9.92
13.53
16.72
18.84
19.62
19.33
18.81
19.2
21.57
26.45
33.53
41.71
49.5
55.38
58.26
57.63
53.59
46.83
38.48
29.91
22.42
16.79
13.01
10.24
7.17
2.54
-4.31
-13.15
-22.93
-32.15
-39.38
-43.61
-44.53
-42.47
-38.22
-32.65
-26.48
-20.16
-13.86
-7.68
-1.76
3.64
8.19
11.65
13.9
14.89
14.53
12.58
8.64
2.31
-6.57
-17.72
-30.28
-42.82
-53.68
-61.26
-64.42
-62.72
-56.42
-46.34
-33.51
-19.03
-3.85
11.23
25.53
38.56
50.06
60.08
69.0
77.37
85.67
93.95
101.59
107.24
109.12
105.67
96.25
81.57
63.54
44.64
27.01
11.81
-0.92
-11.8
-21.46
-30.17
-37.86
-44.42
-50.02
-55.0
-59.61
-63.62
-66.33
-66.88
-64.79
-60.28
-54.22
-47.76
-41.81
-36.73
-32.43
-28.59
-24.92
-21.35
-17.93
-14.89
-12.58
-11.43
-11.8
-13.76
-16.83
-19.97
-21.8
-21.04
-17.0
-9.81
-0.29
10.35
20.98
30.77
39.31
46.5
52.44
57.39
61.7
65.76
69.88
74.16
78.38
82.0
84.33
84.74
82.91
79.01
73.63
67.48
61.17
54.79
48.0
40.12
30.56
19.04
5.71
-8.88
-24.07
-39.12
-53.37
-66.19
-77.01
-85.29
-90.55
-92.44
-90.67
-85.07
-75.61
-62.45
-46.13
-27.47
-7.61
12.3
31.2
48.28
62.91
74.59
82.74
86.8
86.37
81.4
72.3
59.94
45.36
29.67
13.93
-0.77
-13.18
-22.05
-26.34
-25.69
-20.57
-12.22
-2.12
8.48
18.92
29.11
39.16
48.98
58.17
66.0
71.65
74.46
74.04
70.3
63.53
54.24
43.07
30.59
17.11
2.71
-12.5
-28.03
-42.76
-54.97
-62.87
-65.19
-61.77
-53.73
-43.19
-32.74
-24.8
-21.11
-22.29
-27.74
-35.7
-43.69
-49.08
-49.85
-45.1
-35.31
-22.15
-7.97
4.83
14.42
19.91
21.42
19.92
16.7
12.92
9.16
5.27
0.49
-6.12
-15.29
-27.18
-41.18
-55.96
-69.72
-80.51
-86.7
-87.4
-82.71
-73.72
-62.21
-50.13
-39.07
-29.87
-22.53
-16.29
-10.02
-2.54
6.95
18.64
31.88
45.25
56.84
64.73
67.51
64.81
57.32
46.6
34.39
22.16
10.71
0.25
-9.33
-18.17
-26.25
-33.55
-40.08
-45.93
-51.22
-55.8
-59.25
-60.82
-59.87
-56.05
-49.61
-41.32
-32.24
-23.37
-15.29
-8.04
-1.18
5.94
13.85
22.6
31.65
40.13
47.11
51.98
54.51
54.75
52.92
49.4
44.88
40.54
37.81
37.79
40.47
44.47
47.4
47.11
42.8
35.65
28.24
23.38
22.86
26.86
34.4
44.03
54.49
64.71
73.58
79.71
81.7
78.69
70.93
59.76
47.09
34.56
23.06
12.61
2.75
-7.08
-17.27
-27.94
-39.12
-50.73
-62.62
-74.53
-86.12
-97.04
-107.03
-115.86
-123.28
-128.97
-132.66
-134.28
-133.98
-132.11
-128.89
-124.22
-117.63
-108.53
-96.56
-81.88
-65.17
-47.4
-29.49
-12.12
4.33
19.55
33.09
44.23
51.99
55.5
54.21
48.2
38.3
26.04
13.35
2.17
-6.05
-10.63
-11.66
-9.88
-6.19
-1.37
4.07
9.87
15.83
21.68
27.13
31.92
36.03
39.67
43.2
47.0
51.19
55.6
59.68
62.58
63.43
61.55
56.78
49.57
40.78
31.37
22.03
12.93
3.88
-5.5
-15.46
-26.02
-36.99
-48.0
-58.51
-67.81
-75.07
-79.51
-80.79
-79.12
-75.29
-70.23
-64.57
-58.37
-51.19
-42.5
-32.18
-20.74
-9.32
0.71
8.11
12.21
13.05
11.36
8.31
5.13
2.83
1.94
2.46
4.01
6.05
8.05
9.54
10.17
9.71
8.19
6.08
4.35
4.29
7.15
13.72
24.14
37.89
53.95
70.95
87.31
101.3
111.35
116.22
115.36
108.88
97.53
82.42
64.98
46.83
29.66
14.91
3.38
-5.03
-11.34
-17.04
-23.45
-31.29
-40.5
-50.5
-60.45
-69.55
-76.98
-82.04
-84.14
-83.05
-79.03
-72.8
-65.23
-57.13
-49.07
-41.44
-34.64
-29.1
-25.12
-22.58
-20.82
-18.73
-15.07
-8.97
-0.36
9.8
19.6
26.74
29.27
26.49
19.36
10.29
2.25
-2.36
-2.58
1.0
6.88
13.55
20.2
26.83
33.88
41.7
50.2
58.82
66.7
72.91
76.65
77.37
74.93
69.59
61.88
52.32
41.27
28.94
15.61
1.82
-11.7
-24.44
-36.44
-48.38
-61.15
-75.22
-90.08
-104.31
-116.01
-123.6
-126.28
-124.13
-117.84
-108.4
-96.82
-84.13
-71.24
-58.92
-47.62
-37.44
-28.19
-19.66
-11.82
-4.9
0.8
5.07
8.04
10.11
11.8
13.45
15.1
16.5
17.32
17.36
16.76
16.01
15.69
16.4
18.41
21.69
25.9
30.54
35.16
39.49
43.36
46.67
49.34
51.3
52.68
53.93
55.84
59.25
64.55
71.28
78.1
83.23
85.22
83.57
78.86
72.27
64.87
56.99
48.22
37.84
25.43
11.15
-4.29
-20.08
-35.62
-50.58
-64.57
-76.91
-86.56
-92.44
-93.94
-91.28
-85.49
-78.05
-70.36
-63.33
-57.23
-51.87
-46.89
-42.01
-37.14
-32.4
-28.0
-24.2
-21.33
-19.74
-19.75
-21.52
-24.81
-28.86
-32.5
-34.37
-33.34
-28.95
-21.5
-11.92
-1.42
8.96
18.63
27.44
35.58
43.32
50.83
58.09
64.9
70.94
75.95
79.78
82.53
84.57
86.44
88.62
91.29
93.99
95.74
95.29
91.5
83.71
71.79
56.03
37.02
15.67
-6.65
-28.13
-46.8
-61.11
-70.5
-75.53
-77.66
-78.44
-78.93
-79.36
-79.37
-78.42
-76.08
-72.06
-66.11
-57.96
-47.41
-34.67
-20.39
-5.64
8.53
21.38
32.67
42.47
50.87
57.81
62.99
66.06
66.76
65.01
60.92
54.81
47.19
38.87
30.81
23.97
19.09
16.46
16.0
17.43
20.44
24.84
30.49
37.17
44.49
52.03
59.35
66.15
72.08
76.56
78.6
76.98
70.48
58.4
40.92
19.21
-4.76
-28.66
-50.27
-67.95
-80.84
-88.89
-92.76
-93.58
-92.69
-91.31
-90.25
-89.71
-89.27
-88.16
-85.62
-81.28
-75.19
-67.79
-59.61
-51.02
-42.27
-33.59
-25.35
-18.06
-12.23
-8.13
-5.65
-4.3
-3.35
-2.1
-0.12
2.64
5.83
8.89
11.24
12.6
13.1
13.18
13.38
13.98
14.88
15.68
15.99
15.77
15.47
15.88
17.88
22.08
28.65
37.29
47.31
57.61
66.77
73.13
75.15
71.98
63.85
52.19
39.32
27.55
18.43
12.22
8.01
4.3
-0.36
-6.9
-15.63
-26.3
-38.27
-50.56
-61.86
-70.7
-75.79
-76.41
-72.71
-65.7
-56.93
-48.01
-40.17
-34.06
-29.75
-26.88
-24.95
-23.46
-22.06
-20.57
-18.98
-17.47
-16.26
-15.61
-15.64
-16.19
-16.79
-16.74
-15.37
-12.28
-7.55
-1.71
4.45
10.2
15.19
19.4
23.11
26.67
30.32
34.06
37.64
40.63
42.52
42.82
41.3
38.08
33.75
29.23
25.54
23.54
23.71
25.94
29.6
33.5
36.17
36.08
32.15
23.97
12.06
-2.31
-17.43
-31.62
-43.54
-52.5
-58.4
-61.64
-62.85
-62.66
-61.44
-59.29
-56.03
-51.45
-45.48
-38.3
-30.33
-22.04
-13.82
-5.89
1.67
8.77
15.35
21.38
26.87
31.88
36.46
40.65
44.43
47.79
50.73
53.23
55.23
56.66
57.5
58.0
58.67
60.32
63.72
69.36
77.03
85.72
93.73
99.02
99.71
94.67
83.96
68.86
51.63
34.8
20.46
9.65
2.25
-2.86
-7.31
-12.79
-20.59
-31.45
-45.32
-61.35
-77.96
-93.14
-104.89
-111.72
-113.09
-109.46
-102.04
-92.38
-81.88
-71.54
-61.89
-53.14
-45.37
-38.65
-33.06
-28.62
-25.14
-22.27
-19.54
-16.53
-13.0
-8.97
-4.64
-0.36
3.51
6.67
8.89
10.08
10.43
10.36
10.47
11.45
13.73
17.32
21.83
26.61
31.06
34.85
38.0
40.81
43.73
47.27
51.86
57.66
64.25
70.43
74.37
74.01
67.97
56.17
40.1
22.42
5.99
-7.11
-16.14
-21.66
-24.95
-27.46
-30.34
-34.38
-39.96
-47.12
-55.39
-63.83
-71.18
-76.2
-78.14
-76.95
-73.28
-68.12
-62.49
-57.09
-52.27
-48.1
-44.48
-41.26
-38.28
-35.32
-32.2
-28.87
-25.47
-22.28
-19.67
-17.88
-16.91
-16.41
-15.81
-14.49
-11.97
-8.11
-3.15
2.4
8.03
13.34
18.28
22.94
27.41
31.66
35.49
38.7
41.31
43.56
45.79
48.26
50.86
53.1
54.3
53.83
51.32
46.77
40.52
33.07
25.09
17.14
9.72
3.02
-3.01
-8.65
-14.24
-20.07
-26.32
-33.03
-40.17
-47.6
-55.05
-62.05
-67.91
-71.97
-73.66
-72.78
-69.43
-64.03
-57.07
-49.07
-40.48
-31.64
-22.84
-14.29
-6.21
1.23
7.84
13.47
18.04
21.52
23.96
25.37
25.79
25.2
23.71
21.61
19.33
17.41
16.29
16.13
16.78
17.82
18.69
18.93
18.32
16.93
15.14
13.47
12.39
12.19
12.77
13.73
14.28
13.46
10.24
3.91
-5.64
-17.59
-30.28
-41.51
-49.3
-52.52
-51.24
-46.46
-39.61
-31.83
-23.73
-15.4
-6.9
1.54
9.47
16.42
22.29
27.38
32.26
37.51
43.37
49.7
56.1
62.05
67.13
71.04
73.6
74.83
74.94
74.42
73.91
74.19
75.84
79.17
84.07
90.1
96.65
103.09
108.9
113.59
116.62
117.22
114.53
107.87
97.07
82.62
65.59
47.31
28.95
11.4
-4.79
-19.1
-30.87
-39.3
-43.73
-43.88
-40.09
-33.24
-24.49
-15.02
-5.94
1.69
6.9
8.82
6.97
1.45
-7.0
-17.21
-27.96
-38.4
-48.14
-57.23
-65.9
-74.28
-82.4
-90.24
-97.82
-105.29
-112.82
-120.4
-127.76
-134.27
-139.17
-141.71
-141.38
-137.95
-131.48
-122.26
-110.64
-97.09
-82.19
-66.66
-51.31
-36.92
-24.09
-13.13
-4.02
3.41
9.32
13.72
16.51
17.65
17.34
16.14
14.8
13.99
14.06
14.94
16.31
17.81
19.31
20.94
22.95
25.53
28.76
32.5
36.56
40.62
44.13
46.28
46.12
42.87
36.41
27.42
17.27
7.39
-1.27
-8.56
-15.03
-21.38
-28.01
-34.8
-41.24
-46.68
-50.65
-52.83
-53.09
-51.45
-48.02
-43.16
-37.43
-31.53
-26.11
-21.55
-17.92
-15.04
-12.59
-10.2
-7.55
-4.3
-0.25
4.62
10.05
15.51
20.33
23.89
25.78
26.0
24.94
23.15
21.17
19.22
17.16
14.64
11.31
7.09
2.19
-2.9
-7.65
-11.68
-14.75
-16.83
-17.82
-17.54
-15.72
-12.06
-6.4
1.19
10.44
20.86
31.94
43.18
54.09
64.16
72.71
78.86
81.68
80.51
75.27
66.65
55.97
44.76
34.23
24.96
16.87
9.49
2.41
-4.52
-11.17
-17.29
-22.74
-27.59
-31.97
-35.91
-39.22
-41.54
-42.44
-41.61
-39.03
-35.0
-30.09
-25.07
-20.67
-17.4
-15.4
-14.42
-13.83
-12.89
-10.96
-7.69
-3.19
1.92
6.67
9.97
11.01
9.59
6.24
2.15
-1.3
-2.99
-2.59
-0.45
2.6
5.79
8.74
11.5
14.42
17.84
21.81
26.2
30.76
35.27
39.56
43.37
46.29
47.79
47.42
44.99
40.7
34.99
28.4
21.38
14.15
6.85
-0.38
-7.4
-14.05
-20.33
-26.43
-32.7
-39.4
-46.58
-53.89
-60.61
-65.76
-68.37
-67.77
-63.77
-56.82
-47.84
-37.92
-28.03
-18.73
-10.2
-2.41
4.72
11.17
16.84
21.66
25.68
29.05
31.91
34.32
36.19
37.32
37.44
36.34
33.88
30.15
25.41
20.13
14.87
10.17
6.44
3.89
2.56
2.25
2.63
3.31
3.92
4.27
4.42
4.7
5.5
7.16
9.78
13.22
17.1
20.88
23.94
25.68
25.57
23.4
19.3
13.8
7.59
1.29
-4.69
-10.25
-15.38
-20.05
-24.13
-27.52
-30.26
-32.52
-34.49
-36.18
-37.32
-37.47
-36.28
-33.7
-30.03
-25.84
-21.7
-17.97
-14.81
-12.26
-10.39
-9.34
-9.24
-10.17
-12.06
-14.78
-18.25
-22.42
-27.31
-32.79
-38.52
-43.92
-48.16
-50.47
-50.22
-47.16
-41.4
-33.38
-23.76
-13.24
-2.43
8.17
18.09
26.91
34.1
39.21
42.01
42.62
41.62
39.83
38.02
36.69
35.85
35.18
34.21
32.61
30.29
27.39
24.15
20.85
17.67
14.72
12.01
9.46
6.96
4.4
1.7
-1.2
-4.36
-7.79
-11.46
-15.22
-18.82
-21.88
-24.0
-24.82
-24.1
-21.77
-17.88
-12.62
-6.34
0.46
7.15
13.09
17.76
20.83
22.25
22.27
21.24
19.58
17.67
15.75
13.98
12.43
11.17
10.24
9.73
9.72
10.31
11.52
13.28
15.49
18.0
20.66
23.34
25.87
28.07
29.68
30.46
30.27
29.07
27.01
24.29
21.11
17.59
13.75
9.55
5.09
0.67
-3.15
-5.74
-6.62
-5.68
-3.28
-0.22
2.6
4.49
5.21
4.98
4.28
3.63
3.37
3.62
4.38
5.56
7.06
8.68
10.13
11.09
11.29
10.67
9.43
7.88
6.37
5.07
3.99
2.95
1.73
0.17
-1.79
-4.16
-6.77
-9.39
-11.69
-13.36
-14.24
-14.33
-13.76
-12.65
-10.98
-8.53
-5.03
-0.39
5.2
11.23
17.11
22.32
26.63
30.05
32.73
34.82
36.33
37.23
37.47
37.03
35.92
34.06
31.29
27.38
22.16
15.69
8.33
0.74
-6.28
-11.97
-15.88
-17.9
-18.3
-17.54
-16.11
-14.43
-12.83
-11.59
-11.07
-11.58
-13.31
-16.16
-19.64
-22.95
-25.25
-25.92
-24.8
-22.16
-18.54
-14.43
-10.14
-5.7
-1.07
3.76
8.7
13.49
17.86
21.68
24.97
27.89
30.6
33.14
35.36
36.88
37.26
36.21
33.77
30.31
26.51
23.13
20.7
19.39
18.94
18.78
18.16
16.32
12.6
6.59
-1.66
-11.55
-21.84
-30.94
-37.32
-39.96
-38.75
-34.47
-28.42
-21.94
-15.91
-10.62
-5.88
-1.4
2.96
7.1
10.73
13.64
15.81
17.5
19.06
20.78
22.76
24.9
27.04
29.08
31.06
33.2
35.7
38.62
41.86
45.11
48.03
50.38
52.05
53.04
53.33
52.79
51.26
48.61
44.96
40.69
36.31
32.23
28.43
24.47
19.5
12.63
3.29
-8.45
-21.82
-35.48
-47.87
-57.65
-64.02
-66.9
-66.81
-64.56
-60.96
-56.56
-51.61
-46.21
-40.47
-34.51
-28.46
-22.35
-16.18
-10.14
-4.82
-1.21
-0.38
-2.93
-8.57
-16.03
-23.38
-28.67
-30.57
-28.59
-23.07
-14.86
-5.03
5.4
15.47
24.42
31.71
37.23
41.28
44.58
47.95
51.9
56.13
59.4
59.67
54.78
43.32
25.3
2.43
-22.39
-45.86
-65.27
-79.1
-87.06
-89.77
-88.29
-83.76
-77.24
-69.76
-62.2
-55.25
-49.25
-44.19
-39.81
-35.84
-32.11
-28.6
-25.39
-22.56
-20.14
-18.12
-16.45
-15.03
-13.67
-12.01
-9.5
-5.64
-0.09
6.98
14.8
22.09
27.35
29.34
27.41
21.73
13.08
2.56
-8.75
-19.92
-30.24
-38.95
-45.24
-48.39
-48.03
-44.35
-38.04
-30.19
-21.97
-14.49
-8.52
-4.4
-2.03
-0.92
-0.37
0.43
2.04
4.61
7.73
10.54
12.09
11.5
8.24
2.45
-4.86
-12.0
-17.19
-19.22
-17.89
-13.56
-7.39
-0.89
4.67
8.83
11.9
14.59
17.41
20.59
24.88
30.33
36.1
40.79
43.48
44.36
44.58
45.7
49.2
57.2
70.16
86.21
101.9
114.19
121.73
125.13
125.96
126.7
131.64
143.67
162.55
184.83
205.67
220.62
226.71
222.11
196.54
148.95
89.07
31.96
-11.94
-40.66
-57.5
-66.76
-73.07
-80.0
-87.41
-94.43
-101.26
-109.35
-120.02
-133.78
-150.81
-173.95
-201.39
-230.12
-256.67
-278.52
-294.67
-304.97
-309.67
-297.44
-264.47
-215.25
-159.79
-107.23
-62.2
-25.36
4.4
28.45
47.48
59.61
63.92
61.43
54.73
46.49
38.71
33.51
33.86
42.98
61.01
85.09
109.08
125.53
128.81
117.63
96.22
72.19
52.84
40.6
33.69
28.04
20.61
11.46
2.81
-2.62
-3.88
-2.46
-2.05
-6.12
-17.03
-35.18
-58.48
-83.24
-104.21
-115.84
-113.68
-96.95
-68.95
-35.82
-6.99
11.74
19.62
21.01
21.23
23.7
28.17
32.16
33.33
31.23
27.46
22.81
15.57
2.01
-20.71
-51.44
-83.68
-108.09
-117.05
-108.22
-85.7
-57.68
-32.03
-13.3
-2.44
2.47
3.46
1.64
-1.69
-4.08
-0.94
14.02
45.56
90.09
139.47
181.57
203.39
195.58
155.76
89.9
12.27
-60.65
-114.66
-139.87
-132.62
-96.43
-41.12
19.38
70.74
104.1
114.32
100.36
66.6
22.21
-20.98
-50.89
-57.73
-35.64
18.14
96.83
184.52
261.84
313.06
330.69
316.81
280.78
217.22
137.6
63.13
9.1
-24.47
-45.85
-61.99
-74.79
-83.39
-85.94
-79.48
-66.05
-52.19
-44.89
-46.88
-56.98
-70.58
-83.77
-92.82
-93.04
-84.06
-69.63
-55.75
-47.39
-48.02
-59.55
-83.0
-115.49
-149.55
-179.13
-195.11
-193.16
-174.5
-147.64
-117.81
-100.43
-104.9
-122.61
-134.54
-125.59
-94.76
-52.8
-15.01
7.58
16.05
17.67
21.0
29.78
42.56
50.74
48.74
35.5
15.0
-6.36
-22.13
-28.59
-26.86
-20.18
-13.11
-10.98
-16.28
-27.31
-39.29
-46.96
-46.59
-38.02
-21.39
0.12
22.09
41.97
57.74
72.22
89.79
114.62
148.82
195.95
254.73
318.19
375.42
416.15
434.29
428.17
400.98
335.33
235.78
125.62
29.84
-42.2
-94.73
-134.32
-167.61
-196.49
-221.78
-240.71
-253.45
-258.4
-255.6
-243.92
-221.11
-185.99
-139.77
-85.91
-25.85
36.67
93.43
131.86
140.58
115.09
59.98
-12.34
-85.56
-142.68
-173.18
-171.64
-142.55
-102.38
-68.54
-47.62
-35.87
-26.88
-16.88
-5.04
5.07
10.3
11.16
12.85
22.53
44.98
81.41
125.83
171.92
212.3
239.34
247.02
233.48
202.31
158.71
107.4
49.75
-13.43
-81.74
-153.12
-221.82
-278.13
-309.92
-310.55
-281.77
-234.36
-180.11
-128.18
-82.3
-40.65
2.56
55.31
114.99
181.62
244.0
291.44
316.43
316.57
294.9
244.45
172.92
98.91
40.08
0.45
-24.63
-41.29
-52.44
-57.89
-56.79
-48.06
-34.56
-21.91
-16.51
-19.7
-28.56
-38.19
-44.57
-45.63
-41.24
-34.18
-29.11
-30.96
-39.88
-52.53
-64.73
-73.21
-75.92
-73.06
-67.93
-65.31
-70.64
-85.49
-108.78
-138.27
-170.73
-200.37
-222.91
-229.42
-215.49
-182.72
-134.44
-75.92
-13.38
49.53
114.96
184.9
249.54
309.93
355.35
378.22
375.86
349.94
291.73
212.1
134.68
78.44
46.67
29.57
18.86
11.2
4.14
-3.37
-10.71
-19.6
-33.59
-55.31
-85.98
-121.26
-139.11
-123.76
-74.45
-2.32
75.54
142.02
190.79
215.82
216.16
195.72
158.57
110.48
61.13
20.49
-5.94
-20.35
-32.46
-50.11
-76.13
-108.16
-146.06
-189.48
-237.89
-268.41
-262.98
-221.46
-155.14
-95.35
-40.14
9.93
48.7
75.33
84.52
72.59
36.75
-19.04
-85.56
-150.55
-209.56
-262.46
-310.16
-354.64
-371.37
-349.75
-298.87
-240.57
-190.08
-153.87
-129.44
-108.95
-84.16
-49.61
-8.39
33.81
71.65
103.06
125.72
139.32
146.62
151.94
158.74
164.3
163.62
152.41
130.01
98.35
63.05
32.7
15.52
15.67
29.06
46.77
60.1
64.76
61.39
54.43
49.15
48.34
51.02
52.64
49.07
39.65
27.47
17.08
11.84
12.5
16.96
21.42
22.14
17.33
8.06
-2.36
-10.19
-12.98
-10.74
-5.82
-1.8
-1.74
-6.81
-15.61
-24.81
-30.7
-30.85
-25.39
-16.9
-9.22
-5.4
-6.44
-10.53
-13.9
-12.81
-4.86
9.94
29.57
50.71
69.33
80.82
80.62
65.85
37.15
0.11
-35.67
-59.85
-65.67
-52.85
-27.89
-0.18
22.65
37.67
46.83
54.39
63.66
74.62
85.21
92.28
92.69
85.22
70.56
50.73
27.91
3.95
-19.86
-43.27
-66.76
-90.08
-111.17
-125.96
-129.5
-118.41
-93.02
-57.73
-19.95
12.68
35.73
49.22
56.79
63.66
73.09
82.93
89.53
88.42
74.59
46.78
8.43
-33.99
-73.29
-104.7
-127.94
-145.19
-160.39
-176.84
-194.97
-211.85
-222.41
-220.97
-204.07
-172.76
-129.5
-78.01
-21.58
38.28
102.43
170.46
241.41
312.44
370.64
404.43
407.35
382.44
340.96
295.72
253.8
214.6
177.4
131.58
72.72
4.63
-62.67
-117.91
-153.28
-167.27
-160.72
-138.27
-105.22
-68.38
-35.28
-10.81
4.92
15.96
27.04
41.71
60.53
79.54
94.4
101.2
97.71
83.74
61.35
33.63
5.78
-14.38
-21.54
-14.41
3.8
28.21
51.91
72.06
85.76
89.72
81.12
58.65
27.19
-3.82
-22.16
-18.04
11.16
57.98
107.97
145.87
161.69
154.78
132.64
106.57
85.4
72.1
62.99
52.0
34.78
10.49
-18.89
-51.38
-86.59
-127.26
-176.75
-237.54
-307.09
-376.3
-432.26
-463.12
-463.06
-433.21
-381.59
-317.83
-252.14
-191.69
-140.05
-99.04
-70.17
-54.81
-51.66
-58.72
-71.84
-89.64
-112.53
-141.57
-178.25
-223.78
-278.25
-338.28
-400.26
-437.93
-429.15
-365.99
-260.47
-138.14
-23.37
62.29
125.28
175.63
221.47
264.86
298.91
318.4
320.84
306.19
276.06
238.18
200.51
169.08
143.18
115.43
81.38
42.33
5.88
-18.44
-22.72
-5.87
24.13
52.08
64.1
55.73
31.95
3.02
-21.63
-36.15
-41.42
-40.76
-37.46
-32.54
-23.67
-7.14
20.69
59.95
107.6
156.3
196.17
217.68
215.0
187.87
140.23
77.87
6.47
-68.68
-142.2
-207.55
-257.25
-285.04
-288.75
-272.57
-245.83
-219.25
-200.88
-192.86
-192.06
-192.16
-186.28
-168.7
-135.79
-86.71
-23.72
45.34
109.42
156.27
176.81
168.86
138.93
100.05
66.8
51.2
55.43
75.77
104.26
132.95
156.83
175.03
189.62
203.66
221.59
242.57
267.14
295.28
326.61
359.4
390.3
414.8
428.19
430.16
417.64
393.12
360.54
323.88
285.58
246.32
205.73
148.44
97.98
56.74
31.01
24.44
35.84
57.21
76.32
81.78
68.72
44.13
16.78
-0.65
-1.85
11.28
28.4
37.47
31.18
10.18
-16.86
-44.69
-69.88
-95.31
-125.6
-166.46
-220.07
-283.16
-348.09
-404.43
-446.01
-469.07
-474.9
-465.36
-445.6
-419.9
-389.38
-351.47
-301.16
-236.92
-155.31
-74.95
-6.24
39.6
57.21
50.22
28.84
7.79
-1.16
5.49
18.67
29.9
31.4
19.77
-4.47
-37.76
-76.05
-115.43
-151.66
-180.82
-192.18
-180.49
-148.76
-107.32
-67.69
-37.02
-17.68
-6.48
-0.43
4.0
9.84
21.49
43.53
78.96
126.02
176.85
219.41
242.17
237.66
204.95
149.24
79.57
6.49
-60.11
-112.02
-143.58
-151.48
-137.68
-107.81
-70.0
-31.88
2.8
34.72
66.81
94.39
120.91
138.08
137.99
116.6
76.04
23.5
-32.3
-84.45
-129.38
-164.47
-188.67
-198.9
-192.23
-168.29
-130.83
-87.16
-45.14
-11.22
13.48
30.13
42.33
53.43
65.09
77.42
90.02
103.93
119.81
140.51
167.07
198.24
228.98
251.43
257.68
242.92
208.58
157.52
96.34
31.09
-32.87
-90.52
-136.21
-164.11
-169.77
-150.73
-113.03
-64.38
-13.5
33.43
74.52
111.92
149.85
180.16
216.95
254.18
284.71
300.56
295.83
269.1
223.92
167.1
105.33
44.73
-15.21
-73.96
-128.84
-173.74
-200.37
-201.9
-176.8
-130.02
-69.31
-5.01
58.11
119.97
182.57
245.74
304.48
349.95
373.35
371.59
347.04
309.05
269.09
236.19
214.11
201.41
193.83
186.96
178.51
167.08
152.13
132.47
106.39
73.45
36.21
0.72
-25.5
-37.08
-34.8
-25.91
-21.77
-32.86
-64.07
-112.63
-169.82
-225.29
-271.3
-304.93
-327.65
-342.99
-354.47
-364.89
-376.92
-393.54
-417.36
-448.83
-484.56
-517.15
-537.04
-536.42
-512.62
-469.44
-415.64
-361.12
-313.04
-273.87
-241.59
-211.55
-178.21
-137.0
-85.36
-23.99
42.16
103.96
149.83
169.43
157.59
116.49
55.66
-11.04
-69.54
-109.14
-124.52
-116.01
-88.17
-48.12
-3.62
39.09
76.12
106.74
133.27
160.07
191.45
229.74
273.33
316.07
349.86
366.65
362.04
337.07
297.95
252.93
208.86
168.48
129.65
88.57
41.16
-13.71
-72.98
-130.19
-177.79
-209.82
-224.02
-222.7
-209.7
-190.19
-167.47
-141.97
-111.88
-74.84
-30.04
24.39
78.08
125.52
160.99
181.08
185.76
177.8
161.25
139.61
113.7
81.89
42.27
-6.85
-63.81
-122.78
-175.11
-212.27
-229.45
-227.93
-213.71
-194.26
-175.59
-158.65
-138.58
-107.88
-60.91
3.85
74.15
136.49
177.67
189.76
173.07
135.42
88.72
45.2
14.41
0.91
4.75
20.31
37.77
46.55
39.52
16.59
-14.39
-40.88
-51.9
-43.14
-20.06
5.38
21.45
23.03
14.34
6.56
11.7
36.14
77.92
127.04
170.4
197.38
203.92
192.55
169.37
139.61
104.71
63.35
14.8
-37.34
-84.12
-113.98
-117.68
-92.86
-45.1
15.28
78.46
138.68
194.36
245.19
288.88
320.09
332.63
323.02
293.18
250.23
203.2
159.29
121.35
87.87
55.28
20.6
-17.51
-59.19
-104.34
-153.02
-204.59
-256.13
-302.19
-335.34
-348.29
-337.25
-303.39
-251.64
-188.36
-119.02
-47.55
21.95
84.42
133.98
164.31
171.4
156.35
125.18
86.15
46.13
7.16
-32.52
-75.81
-125.46
-181.47
-239.28
-290.8
-327.17
-341.87
-334.15
-307.85
-268.38
-222.46
-175.29
-127.97
-77.94
-21.75
47.75
127.32
197.93
246.77
268.62
262.95
235.59
196.66
156.08
119.82
87.14
53.3
14.76
-30.27
-81.35
-134.79
-184.83
-225.59
-252.38
-263.23
-258.6
-239.23
-207.42
-167.11
-121.57
-72.09
-18.32
40.38
105.45
171.22
225.95
262.25
275.75
266.11
237.78
198.16
154.62
111.52
68.63
23.43
-27.03
-84.83
-148.35
-211.8
-266.73
-305.0
-321.59
-316.64
-294.0
-259.63
-220.02
-179.58
-139.86
-100.32
-59.79
-17.4
26.8
72.43
118.9
163.88
203.09
230.88
241.57
231.12
198.15
143.68
71.72
-10.7
-93.88
-166.17
-216.2
-236.22
-225.45
-190.6
-144.17
-98.65
-61.81
-34.7
-13.09
9.02
36.66
71.75
114.2
161.09
209.34
255.46
294.75
321.92
332.65
325.87
303.63
271.23
231.93
188.05
140.54
89.5
36.27
-14.86
-55.86
-79.3
-80.3
-62.41
-32.73
1.59
35.89
69.81
106.93
152.9
199.8
252.72
298.64
324.5
323.37
296.72
253.58
196.16
132.22
70.53
18.52
-18.8
-48.92
-79.07
-112.07
-147.87
-183.14
-212.26
-230.96
-236.13
-229.03
-212.36
-188.63
-160.41
-129.61
-96.98
-61.1
-20.98
22.33
63.56
98.7
124.76
137.81
136.16
120.5
94.24
61.18
24.37
-15.69
-60.22
-110.17
-164.49
-218.47
-264.36
-293.44
-299.77
-282.83
-247.49
-202.03
-154.28
-108.66
-64.65
-18.12
35.75
98.99
166.85
231.41
282.76
313.09
319.88
306.84
281.77
253.3
227.2
204.88
184.6
163.35
139.11
111.31
80.1
44.93
4.61
-41.73
-92.54
-142.51
-183.61
-207.27
-207.43
-182.29
-134.78
-71.58
-2.43
61.4
109.21
133.35
131.41
106.27
65.54
18.71
-25.21
-61.24
-88.95
-111.46
-133.15
-157.62
-187.67
-223.43
-261.99
-296.39
-319.25
-325.37
-314.0
-287.63
-249.82
-204.61
-154.53
-101.32
-46.4
4.8
43.58
60.95
53.83
33.41
15.16
13.79
26.25
47.8
70.59
89.77
99.08
95.32
79.21
51.22
12.16
-35.52
-85.19
-129.28
-161.31
-178.22
-179.41
-166.15
-143.62
-117.34
-89.75
-57.99
-18.0
36.91
104.74
170.98
226.32
265.14
282.92
278.77
258.88
236.22
217.16
200.17
180.59
156.15
124.64
84.65
36.76
-16.74
-72.68
-127.62
-177.45
-216.68
-238.71
-240.92
-224.56
-192.21
-146.57
-90.95
-30.26
28.23
76.66
110.46
127.47
128.35
119.26
107.36
96.76
86.65
71.52
44.87
5.56
-43.21
-94.56
-138.93
-168.36
-180.06
-170.44
-142.32
-113.79
-92.96
-76.16
-57.55
-30.57
9.83
61.04
112.81
154.98
179.77
185.67
175.71
155.16
130.16
104.6
78.36
48.54
10.7
-38.3
-96.45
-158.23
-216.26
-262.67
-291.85
-302.35
-296.36
-278.81
-255.11
-228.0
-198.25
-166.01
-131.59
-96.98
-65.74
-40.92
-23.2
-9.89
5.18
28.79
65.73
117.46
180.64
247.01
305.75
345.87
358.99
342.33
299.28
238.77
173.71
116.13
73.15
45.7
29.72
19.06
9.13
-1.69
-12.14
-18.35
-17.07
-7.0
11.94
39.88
77.17
124.37
180.07
239.87
297.97
346.61
377.13
383.14
363.13
320.69
264.0
202.7
135.57
66.66
2.75
-50.45
-90.09
-113.64
-126.43
-135.03
-145.94
-164.81
-194.06
-232.06
-275.98
-320.97
-360.46
-383.82
-381.98
-353.73
-307.76
-262.04
-222.11
-187.3
-154.37
-120.01
-84.07
-48.59
-16.44
10.4
32.99
56.49
85.62
123.8
172.66
231.12
295.03
357.6
410.28
434.65
417.95
358.78
271.21
178.91
102.19
50.0
20.18
4.18
-5.94
-15.47
-27.13
-42.67
-63.43
-91.47
-127.94
-170.22
-212.3
-243.62
-254.22
-240.22
-206.35
-163.64
-126.36
-106.62
-108.66
-126.88
-149.31
-163.39
-163.44
-157.35
-150.91
-142.94
-135.17
-124.84
-109.0
-85.85
-57.82
-29.29
-7.2
4.49
6.66
7.09
11.1
18.03
22.92
18.53
2.31
-21.67
-42.51
-48.43
-32.31
5.95
59.95
119.35
172.97
211.83
231.15
232.53
222.51
210.28
204.72
210.5
225.03
238.89
239.5
217.73
173.62
116.06
58.88
14.75
-9.67
-17.68
-15.84
-12.95
-15.34
-23.46
-33.9
-43.9
-53.68
-65.66
-81.02
-97.51
-108.13
-103.94
-79.19
-35.79
16.31
62.68
89.87
87.78
56.63
6.85
-44.34
-79.59
-88.23
-69.92
-34.24
3.13
25.88
23.74
-4.24
-50.24
-101.37
-144.72
-171.43
-178.35
-164.16
-133.11
-94.35
-57.75
-29.34
-9.85
2.75
10.23
13.61
12.75
8.71
5.25
8.34
23.48
53.66
97.95
149.74
199.1
234.99
248.7
237.3
204.75
159.52
111.7
69.45
36.48
12.21
-6.9
-24.77
-44.22
-66.99
-95.34
-130.45
-171.2
-213.1
-248.66
-270.01
-271.65
-252.82
-212.23
-157.24
-100.35
-53.04
-21.88
-1.93
14.41
33.39
58.19
88.07
118.03
141.48
152.47
147.68
124.8
87.23
44.57
8.15
-15.07
-25.64
-28.45
-29.08
-29.31
-29.35
-30.43
-35.28
-47.7
-70.56
-102.15
-135.32
-159.1
-163.06
-142.34
-99.67
-43.54
14.6
64.37
98.24
112.65
109.38
94.11
76.77
63.52
58.59
64.52
80.17
102.36
125.23
141.42
144.4
127.65
91.27
44.17
-0.03
-30.16
-42.63
-42.44
-39.56
-42.25
-54.29
-74.64
-98.69
-121.09
-137.94
-145.63
-140.64
-122.98
-97.51
-72.12
-53.54
-43.66
-40.16
-39.51
-38.76
-38.21
-38.77
-39.52
-37.16
-26.95
-4.88
30.21
73.95
119.1
156.76
178.7
179.07
155.65
110.62
50.5
-15.02
-75.01
-119.33
-141.21
-138.46
-113.42
-71.52
-19.32
37.11
92.99
145.0
191.48
231.47
264.12
288.05
301.41
302.06
288.24
259.46
216.86
163.33
102.66
38.86
-23.9
-81.06
-127.48
-157.88
-168.69
-160.39
-139.15
-116.11
-103.71
-110.51
-136.99
-174.94
-210.52
-230.13
-225.77
-197.33
-151.16
-96.03
-39.03
16.35
69.54
120.6
167.99
207.94
235.7
247.34
241.43
219.78
186.75
147.77
107.81
69.87
34.73
1.38
-31.5
-63.84
-93.28
-116.25
-130.52
-137.7
-143.63
-155.59
-178.68
-212.26
-249.0
-277.49
-287.27
-273.7
-239.86
-194.49
-147.05
-104.4
-69.42
-41.5
-18.51
1.53
19.87
37.51
56.71
81.68
115.84
158.81
205.0
244.7
267.42
266.18
240.14
191.79
132.13
76.3
36.56
16.47
10.79
10.96
10.57
7.02
1.25
-3.44
-5.36
-5.81
-8.12
-16.01
-32.11
-57.62
-93.49
-137.43
-184.17
-226.41
-256.61
-268.93
-261.08
-235.1
-192.06
-140.05
-90.09
-50.5
-23.69
-7.26
3.05
9.92
14.2
16.66
18.33
21.94
30.15
44.97
67.0
95.82
130.17
168.01
205.56
236.28
253.01
250.27
226.44
184.05
128.56
66.03
1.5
-61.32
-119.53
-169.2
-205.38
-223.65
-222.58
-204.7
-175.79
-142.34
-109.03
-77.85
-48.36
-19.16
10.86
41.91
73.65
105.29
135.27
160.77
177.68
182.11
172.58
151.71
125.84
102.91
89.23
86.97
93.89
104.95
114.97
120.66
120.9
115.69
104.56
85.95
57.8
19.26
-27.85
-78.52
-125.25
-160.28
-178.0
-176.88
-159.95
-133.67
-105.51
-81.59
-65.18
-56.77
-55.18
-58.67
-65.35
-72.74
-77.32
-74.81
-61.71
-37.37
-5.26
27.26
51.44
60.37
51.86
29.24
0.04
-26.92
-44.72
-50.43
-45.3
-33.29
-18.69
-4.32
9.26
22.88
37.38
52.3
65.61
74.39
76.04
69.21
54.3
33.3
9.54
-12.69
-28.79
-34.76
-28.51
-11.01
13.72
39.58
60.52
72.46
74.43
68.13
56.74
43.55
31.51
23.43
22.17
30.35
49.29
77.83
111.81
144.87
170.31
183.28
182.26
169.13
148.02
123.58
99.43
77.44
57.9
40.31
24.26
9.94
-1.97
-10.83
-16.5
-19.68
-21.37
-22.35
-22.79
-22.6
-21.85
-20.96
-20.25
-19.17
-16.08
-8.83
3.64
20.13
37.33
51.4
60.32
65.35
70.84
82.25
103.95
137.77
182.9
236.49
294.09
349.7
395.79
424.21
428.07
404.09
354.06
284.53
204.77
123.94
48.78
-17.35
-73.91
-122.0
-163.48
-200.45
-235.3
-270.2
-306.19
-342.0
-373.73
-395.77
-403.05
-393.52
-369.59
-337.45
-304.72
-277.39
-257.81
-244.48
-233.78
-222.31
-208.64
-193.47
-178.82
-166.55
-157.5
-151.38
-147.22
-143.7
-139.23
-132.11
-120.99
-105.9
-88.98
-74.33
-66.5
-68.28
-79.02
-94.37
-107.97
-114.09
-109.78
-95.56
-74.42
-50.0
-25.22
-1.96
18.45
34.61
45.02
48.81
46.51
40.16
32.74
27.02
24.46
24.79
26.49
27.74
27.4
25.42
22.67
20.33
19.26
19.75
21.6
24.39
27.74
31.37
35.01
38.43
41.34
43.54
44.85
45.09
44.04
41.61
37.98
33.79
30.12
28.13
28.46
30.84
34.0
36.16
35.72
31.94
25.28
17.18
9.51
3.95
1.45
2.06
5.01
9.04
12.74
14.97
15.16
13.42
10.5
7.56
5.77
6.02
8.61
13.15
18.52
23.06
24.88
22.3
14.5
1.88
-13.81
-29.82
-43.24
-51.82
-54.63
-52.16
-45.87
-37.43
-28.24
-19.21
-10.97
-4.1
0.88
3.82
5.43
7.34
11.49
19.18
30.24
42.72
53.44
58.93
56.55
45.24
25.84
0.77
-26.45
-52.02
-72.63
-86.19
-92.11
-91.09
-84.61
-74.06
-60.32
-43.81
-25.05
-5.37
12.95
27.02
34.36
33.76
25.99
13.58
0.03
-11.34
-18.33
-20.23
-17.66
-11.87
-4.2
4.4
13.28
21.97
29.89
36.38
40.9
43.26
43.79
43.26
42.56
42.37
42.83
43.58
43.88
43.02
40.62
36.86
32.45
28.42
25.76
25.0
25.91
27.41
27.81
25.4
19.18
9.3
-2.78
-14.81
-24.48
-30.2
-31.47
-28.85
-23.54
-16.89
-10.11
-4.11
0.47
3.23
4.02
2.98
0.5
-2.9
-6.71
-10.67
-14.72
-19.0
-23.62
-28.5
-33.23
-37.15
-39.47
-39.59
-37.22
-32.56
-26.11
-18.53
-10.4
-2.12
5.98
13.63
20.47
26.13
30.39
33.11
34.23
33.64
31.13
26.62
20.4
13.43
7.27
3.65
3.87
8.41
16.86
28.16
41.06
54.45
67.39
79.25
89.65
98.52
106.13
112.92
119.1
124.26
127.4
127.38
123.65
116.58
107.11
95.96
83.07
67.3
47.13
21.72
-8.43
-41.36
-74.9
-107.66
-139.24
-169.4
-196.98
-219.27
-232.66
-233.94
-221.31
-195.51
-159.17
-115.21
-65.53
-10.79
48.38
109.7
168.27
218.05
252.89
269.07
267.02
251.51
230.07
210.05
196.36
190.04
189.61
191.08
189.58
180.93
162.7
134.72
98.69
57.79
10.95
-38.79
-86.1
-125.12
-151.95
-166.04
-169.86
-168.04
-165.5
-166.01
-169.67
-173.9
-174.18
-165.69
-145.17
-112.3
-70.46
-26.75
9.02
29.52
32.52
21.34
2.32
-18.4
-34.95
-46.49
-52.96
-53.61
-46.32
-29.23
-2.22
32.02
66.41
92.13
100.85
88.24
55.71
10.39
-38.01
-81.31
-116.04
-143.75
-168.29
-192.46
-214.76
-229.87
-231.17
-214.63
-181.36
-137.28
-90.11
-45.58
-5.72
30.33
63.0
89.52
103.91
100.14
76.54
38.58
-2.2
-33.05
-45.41
-38.28
-17.49
8.18
31.72
50.31
64.86
77.53
89.02
97.75
100.85
96.18
83.79
66.17
47.43
31.84
22.51
20.7
25.66
34.92
45.11
53.36
58.51
61.79
66.33
75.33
89.94
107.88
123.98
132.2
128.63
113.41
90.57
66.07
45.03
29.89
20.36
14.8
11.97
11.87
15.37
22.92
33.58
44.83
53.48
56.9
54.06
45.79
34.24
21.94
10.96
2.32
-4.0
-8.78
-12.99
-17.31
-21.78
-25.7
-27.95
-27.49
-23.95
-17.98
-11.14
-5.42
-2.52
-3.26
-7.4
-13.84
-21.12
-27.99
-33.75
-38.2
-41.42
-43.42
-43.99
-42.79
-39.74
-35.32
-30.64
-27.22
-26.43
-28.85
-34.06
-40.84
-47.78
-53.92
-59.07
-63.57
-67.82
-71.74
-74.65
-75.65
-74.17
-70.27
-64.56
-57.66
-49.79
-40.68
-29.94
-17.59
-4.32
8.65
20.19
29.68
37.13
42.85
46.91
48.93
48.25
44.52
38.18
30.65
23.87
19.57
18.56
20.41
23.66
26.48
27.46
26.15
23.1
19.46
16.3
14.12
12.66
11.21
9.07
6.02
2.39
-1.17
-4.08
-6.09
-7.27
-7.85
-7.95
-7.61
-6.9
-6.14
-5.86
-6.52
-8.07
-9.65
-9.74
-6.76
0.12
10.46
22.53
33.83
41.99
45.35
43.36
36.53
26.08
13.83
1.94
-7.22
-11.53
-9.7
-1.88
10.17
23.49
34.77
41.51
42.69
38.91
31.75
23.04
14.07
5.33
-3.21
-11.73
-20.05
-27.65
-33.78
-37.91
-39.88
-40.05
-39.0
-37.31
-35.28
-32.94
-30.21
-27.14
-24.08
-21.6
-20.28
-20.35
-21.47
-22.84
-23.45
-22.54
-19.86
-15.85
-11.41
-7.6
-5.3
-4.92
-6.35
-9.05
-12.19
-14.96
-16.7
-17.13
-16.22
-14.19
-11.35
-7.99
-4.37
-0.78
2.53
5.37
7.83
10.25
13.08
16.75
21.29
26.37
31.24
35.02
36.94
36.51
33.57
28.28
21.09
12.7
4.06
-3.8
-9.92
-13.67
-14.85
-13.78
-11.13
-7.71
-4.28
-1.39
0.69
1.94
2.55
2.91
3.52
4.91
7.49
11.41
16.34
21.62
26.27
29.37
30.33
29.04
26.0
22.02
18.1
15.1
13.66
14.11
16.43
20.23
24.66
28.53
30.52
29.47
24.79
16.63
5.83
-6.28
-18.31
-29.13
-38.0
-44.62
-49.1
-51.76
-53.1
-53.67
-53.89
-54.0
-53.98
-53.64
-52.66
-50.87
-48.32
-45.31
-42.35
-39.95
-38.41
-37.7
-37.5
-37.32
-36.74
-35.59
-33.95
-31.99
-29.83
-27.42
-24.57
-21.19
-17.34
-13.41
-9.89
-7.27
-5.8
-5.46
-5.99
-7.01
-8.17
-9.23
-10.17
-11.03
-11.95
-12.99
-14.1
-15.09
-15.68
-15.6
-14.65
-12.74
-9.83
-5.92
-1.11
4.34
9.96
15.07
18.98
21.21
21.66
20.63
18.67
16.36
14.17
12.38
11.11
10.4
10.11
9.92
9.35
7.96
5.62
2.75
0.22
-0.93
-0.0
2.99
7.23
11.34
13.96
14.18
11.88
7.67
2.66
-1.88
-4.95
-6.13
-5.74
-4.79
-4.68
-6.6
-11.06
-17.45
-24.26
-29.58
-31.94
-30.96
-27.51
-23.3
-20.11
-19.1
-20.34
-23.0
-25.74
-27.25
-26.72
-23.93
-19.21
-13.11
-6.24
0.86
7.64
13.46
17.59
19.44
18.75
15.77
11.26
6.11
0.93
-4.06
-8.88
-13.33
-16.7
-17.93
-16.16
-11.18
-3.56
5.73
15.87
26.44
37.01
46.48
52.56
52.19
42.82
24.04
-1.51
-28.59
-51.21
-64.88
-68.24
-63.27
-53.93
-44.16
-36.22
-30.22
-24.92
-19.09
-12.54
-6.11
-0.86
3.04
6.68
11.77
19.41
29.03
38.29
44.13
44.46
39.32
31.0
22.94
18.0
17.23
19.56
22.66
24.21
23.0
19.31
14.51
10.27
7.81
7.55
9.12
11.85
15.02
18.17
21.13
23.85
26.23
27.97
28.76
28.49
27.53
26.75
27.22
29.67
33.95
38.98
43.05
44.66
43.3
39.67
35.37
32.14
31.03
32.05
34.29
36.37
37.02
35.46
31.46
25.28
17.49
8.76
-0.09
-8.2
-14.79
-19.25
-21.31
-21.09
-18.96
-15.3
-10.27
-3.72
4.79
15.61
28.59
42.83
56.68
68.15
75.46
77.68
74.88
67.98
58.19
46.44
33.13
18.33
2.22
-14.46
-30.5
-44.52
-55.62
-63.66
-69.15
-72.81
-75.07
-75.97
-75.36
-73.35
-70.45
-67.45
-64.93
-63.0
-61.28
-59.27
-56.57
-53.09
-48.87
-43.93
-38.17
-31.58
-24.34
-16.86
-9.58
-2.63
4.31
11.8
20.15
29.0
37.23
43.35
46.17
45.4
41.78
36.77
31.89
28.16
25.89
24.85
24.72
25.43
27.21
30.36
34.91
40.48
46.34
51.65
55.74
58.21
58.89
57.69
54.59
49.65
43.21
35.89
28.5
21.8
16.26
11.97
8.7
6.07
3.68
1.27
-1.32
-4.08
-6.92
-9.71
-12.34
-14.74
-16.91
-18.95
-21.01
-23.31
-26.17
-29.91
-34.82
-40.95
-47.99
-55.24
-61.83
-67.01
-70.47
-72.39
-73.18
-73.11
-72.04
-69.43
-64.69
-57.63
-48.77
-39.27
-30.56
-23.81
-19.63
-17.97
-18.32
-19.99
-22.28
-24.55
-26.17
-26.59
-25.41
-22.6
-18.6
-14.19
-10.25
-7.39
-5.69
-4.85
-4.34
-3.85
-3.32
-2.93
-2.71
-2.36
-1.18
1.59
6.42
13.23
21.35
29.86
37.88
44.82
50.46
54.84
58.13
60.52
62.19
63.26
63.78
63.68
62.81
61.01
58.13
54.12
49.01
42.93
36.08
28.78
21.43
14.44
8.17
2.74
-1.86
-5.79
-9.17
-11.98
-14.04
-15.14
-15.22
-14.47
-13.35
-12.47
-12.43
-13.6
-16.14
-19.89
-24.49
-29.51
-34.45
-38.78
-41.95
-43.31
-42.17
-37.92
-30.26
-19.42
-6.41
7.16
19.4
28.63
33.93
35.29
33.53
29.91
25.62
21.52
17.99
15.0
12.37
9.84
7.22
4.35
1.2
-2.07
-5.04
-7.01
-7.15
-4.7
0.74
9.06
19.52
30.97
42.07
51.65
58.99
63.9
66.68
67.88
68.07
67.55
66.25
63.79
59.64
53.41
44.99
34.7
23.13
11.02
-1.03
-12.62
-23.58
-33.79
-43.08
-51.19
-57.75
-62.52
-65.44
-66.72
-66.73
-65.94
-64.83
-63.8
-63.28
-63.55
-64.66
-66.32
-67.88
-68.56
-67.79
-65.45
-61.85
-57.52
-52.89
-48.12
-43.1
-37.79
-32.37
-27.28
-22.93
-19.45
-16.58
-13.77
-10.52
-6.65
-2.34
1.99
5.95
9.31
12.09
14.4
16.43
18.29
20.02
21.63
23.06
24.25
25.17
25.92
26.78
28.23
30.78
34.81
40.34
46.97
53.86
59.95
64.22
65.94
64.8
60.93
54.74
46.9
38.11
29.07
20.41
12.61
5.94
0.41
-4.19
-8.19
-11.87
-15.29
-18.21
-20.13
-20.6
-19.53
-17.32
-14.87
-13.3
-13.46
-15.61
-19.23
-23.21
-26.28
-27.43
-26.15
-22.49
-16.86
-9.9
-2.35
4.94
11.02
14.9
15.76
13.23
7.53
-0.5
-9.64
-18.62
-26.43
-32.5
-36.63
-38.89
-39.38
-38.23
-35.58
-31.78
-27.39
-23.13
-19.61
-17.09
-15.32
-13.56
-10.99
-6.97
-1.43
5.18
11.98
18.07
22.74
25.64
26.65
25.68
22.64
17.44
10.34
2.15
-5.74
-11.74
-14.51
-13.56
-9.33
-3.09
3.66
9.6
13.96
16.51
17.37
16.75
14.76
11.53
7.2
2.13
-3.15
-8.0
-11.86
-14.37
-15.52
-15.56
-14.84
-13.72
-12.41
-11.04
-9.75
-8.78
-8.42
-8.93
-10.38
-12.58
-15.1
-17.47
-19.38
-20.74
-21.71
-22.47
-23.12
-23.51
-23.39
-22.48
-20.68
-18.05
-14.76
-10.92
-6.49
-1.33
4.81
12.08
20.46
29.66
39.03
47.6
54.23
57.8
57.68
53.89
47.23
38.92
30.16
21.68
13.61
5.63
-2.66
-11.43
-20.47
-29.22
-36.97
-43.11
-47.21
-49.09
-48.86
-46.83
-43.47
-39.29
-34.67
-29.79
-24.63
-19.07
-13.04
-6.58
0.13
6.93
13.7
20.38
26.85
32.8
37.66
40.67
41.16
38.87
34.03
27.41
20.02
12.77
6.26
0.71
-3.86
-7.47
-9.94
-11.01
-10.46
-8.36
-5.11
-1.36
2.27
5.44
8.2
10.99
14.42
19.01
24.98
32.07
39.48
45.99
50.15
50.76
47.14
39.46
28.63
16.09
3.29
-8.52
-18.55
-26.33
-31.7
-34.74
-35.76
-35.26
-33.82
-31.94
-29.86
-27.62
-25.18
-22.56
-19.91
-17.48
-15.46
-13.91
-12.72
-11.59
-10.18
-8.19
-5.39
-1.73
2.56
7.04
11.18
14.49
16.79
18.23
19.32
20.69
22.81
25.83
29.44
32.96
35.51
36.37
35.21
32.3
28.45
24.77
22.34
21.82
23.34
26.55
30.8
35.38
39.61
42.88
44.59
44.1
40.87
34.59
25.42
13.99
1.37
-11.25
-22.87
-32.91
-41.21
-47.88
-53.05
-56.67
-58.53
-58.47
-56.58
-53.29
-49.32
-45.37
-41.88
-38.89
-36.1
-33.08
-29.48
-25.15
-20.22
-15.02
-9.99
-5.7
-2.69
-1.41
-2.02
-4.31
-7.64
-11.18
-14.09
-15.79
-16.04
-14.93
-12.7
-9.62
-5.92
-1.76
2.66
7.05
11.04
14.31
16.69
18.25
19.26
20.08
21.02
22.17
23.37
24.27
24.46
23.6
21.41
17.76
12.53
5.81
-2.1
-10.49
-18.32
-24.45
-27.95
-28.45
-26.22
-22.03
-16.95
-12.1
-8.41
-6.59
-7.05
-9.71
-14.02
-18.92
-23.14
-25.54
-25.5
-23.05
-18.75
-13.5
-8.25
-3.78
-0.63
0.9
0.88
-0.31
-2.04
-3.52
-4.22
-3.89
-2.71
-1.06
0.65
2.17
3.5
4.76
6.15
7.83
9.89
12.25
14.69
16.87
18.47
19.45
20.15
21.22
23.26
26.36
29.81
32.23
32.12
28.49
21.45
12.14
2.34
-6.21
-12.42
-16.02
-17.42
-17.3
-16.22
-14.47
-12.17
-9.5
-6.86
-4.84
-3.92
-4.26
-5.51
-6.97
-7.88
-7.68
-6.27
-3.76
-0.4
3.65
8.3
13.36
18.36
22.63
25.48
26.49
25.74
23.69
20.98
18.13
15.43
12.98
10.88
9.33
8.59
8.8
9.87
11.53
13.52
15.84
18.79
22.73
27.82
33.65
39.2
43.0
43.55
39.84
31.65
19.76
5.86
-7.89
-19.42
-27.33
-31.23
-31.82
-30.53
-28.98
-28.39
-29.28
-31.43
-34.09
-36.29
-37.17
-36.17
-33.24
-28.98
-24.73
-22.36
-23.74
-29.97
-40.75
-54.28
-67.72
-78.19
-83.76
-83.93
-79.46
-71.66
-61.83
-50.9
-39.65
-28.95
-19.87
-13.45
-10.22
-9.9
-11.4
-13.18
-13.86
-12.66
-9.5
-4.97
0.13
5.11
9.69
14.18
19.29
25.75
33.76
42.69
51.01
56.8
58.43
55.31
48.12
38.63
28.91
20.64
14.59
10.72
8.52
7.62
7.98
9.76
12.96
17.07
21.06
23.72
24.16
22.23
18.6
14.59
11.72
11.23
13.75
19.0
25.82
32.41
36.94
38.11
35.62
30.16
23.07
15.74
9.26
4.21
0.87
-0.62
-0.08
2.54
7.03
12.86
19.28
25.63
31.51
36.91
42.09
47.48
53.38
59.79
66.18
71.5
74.36
73.51
68.36
59.19
47.12
33.6
19.91
6.83
-5.36
-16.56
-26.57
-34.96
-41.33
-45.5
-47.83
-49.06
-50.02
-51.21
-52.61
-53.71
-53.8
-52.32
-49.03
-44.08
-37.82
-30.68
-23.13
-15.69
-8.92
-3.49
0.06
1.5
0.97
-0.97
-3.53
-6.01
-7.93
-9.18
-9.9
-10.28
-10.33
-9.84
-8.41
-5.7
-1.67
3.3
8.51
13.28
17.21
20.43
23.49
27.05
31.61
37.27
43.71
50.24
55.87
59.38
59.48
55.12
46.02
32.95
17.79
3.02
-9.11
-17.33
-21.66
-23.24
-23.62
-24.03
-25.04
-26.57
-28.22
-29.64
-30.6
-31.02
-30.78
-29.71
-27.7
-24.7
-20.85
-16.34
-11.36
-6.06
-0.56
5.02
10.51
15.73
20.45
24.44
27.53
29.64
30.9
31.72
32.67
34.31
36.79
39.8
42.48
43.77
42.72
38.86
32.28
23.65
14.02
4.65
-3.23
-8.62
-10.98
-10.42
-7.62
-3.75
-0.03
2.48
3.14
1.8
-1.31
-5.68
-10.71
-15.73
-20.12
-23.37
-25.15
-25.42
-24.45
-22.73
-20.89
-19.48
-18.96
-19.56
-21.39
-24.28
-27.83
-31.37
-34.06
-35.14
-34.21
-31.36
-27.1
-22.22
-17.42
-13.09
-9.25
-5.58
-1.62
3.01
8.5
14.69
21.12
27.13
32.02
35.23
36.45
35.59
32.8
28.41
22.92
16.93
11.06
5.87
1.69
-1.36
-3.36
-4.46
-4.79
-4.42
-3.34
-1.44
1.5
5.79
11.73
19.38
28.31
37.48
45.46
50.8
52.57
50.67
45.74
38.92
31.25
23.47
15.83
8.25
0.56
-7.32
-15.35
-23.35
-31.09
-38.31
-44.72
-50.01
-53.91
-56.22
-56.9
-55.99
-53.64
-50.11
-45.63
-40.38
-34.38
-27.52
-19.61
-10.71
-1.27
7.75
15.16
19.9
21.59
20.68
18.28
15.7
13.78
12.6
11.64
10.16
7.73
4.34
0.13
-4.89
-11.14
-19.16
-29.13
-40.33
-51.08
-59.31
-63.35
-62.71
-58.14
-51.27
-43.69
-36.36
-29.41
-22.54
-15.57
-8.78
-2.86
1.48
4.01
5.08
5.45
5.8
6.37
6.9
6.93
6.18
4.81
3.37
2.47
2.41
3.03
3.8
4.07
3.41
1.61
-1.26
-4.93
-8.98
-12.86
-15.85
-17.27
-16.62
-13.81
-9.3
-3.98
1.05
4.87
7.06
7.85
7.9
7.99
8.53
9.46
10.23
10.25
9.14
6.96
4.05
0.85
-2.25
-5.04
-7.27
-8.66
-8.83
-7.61
-5.1
-1.82
1.54
4.38
6.52
8.32
10.57
14.15
19.61
26.82
34.77
41.86
46.38
47.07
43.56
36.44
26.94
16.39
5.82
-4.25
-13.57
-21.87
-28.65
-33.25
-35.22
-34.6
-32.0
-28.44
-24.9
-21.93
-19.61
-17.65
-15.7
-13.55
-11.19
-8.68
-6.02
-3.05
0.49
4.79
9.85
15.4
20.88
25.46
28.23
28.41
25.57
19.85
11.98
3.14
-5.29
-11.98
-15.96
-16.78
-14.56
-9.88
-3.7
2.98
9.36
15.09
20.36
25.8
32.07
39.48
47.63
55.36
61.15
63.6
62.09
56.9
49.12
40.03
30.64
21.36
12.14
2.84
-6.41
-15.11
-22.62
-28.48
-32.61
-35.27
-36.81
-37.4
-36.96
-35.33
-32.55
-28.94
-25.07
-21.47
-18.34
-15.59
-12.89
-10.02
-6.97
-3.95
-1.18
1.2
3.22
4.97
6.45
7.57
8.18
8.13
7.4
6.06
4.2
1.92
-0.68
-3.4
-5.95
-7.89
-8.71
-7.86
-4.94
0.18
7.29
15.7
24.29
31.7
36.62
38.16
36.13
31.06
24.02
16.31
9.06
3.01
-1.57
-4.79
-7.08
-8.98
-11.14
-14.12
-18.2
-23.27
-28.73
-33.68
-37.21
-38.81
-38.46
-36.63
-34.04
-31.29
-28.76
-26.45
-24.12
-21.42
-18.02
-13.76
-8.72
-3.32
1.74
5.62
7.69
7.87
6.79
5.6
5.53
7.26
10.61
14.56
17.72
18.93
17.68
14.19
9.15
3.42
-2.19
-6.99
-10.32
-11.58
-10.41
-6.79
-1.18
5.63
12.71
19.3
24.92
29.47
33.13
36.11
38.45
39.87
39.82
37.67
33.0
25.88
16.91
7.04
-2.65
-11.25
-18.22
-23.39
-26.97
-29.44
-31.45
-33.54
-36.01
-38.76
-41.3
-42.91
-42.86
-40.55
-35.73
-28.71
-20.52
-12.89
-7.91
-7.3
-11.54
-19.5
-28.56
-35.56
-38.02
-35.11
-27.77
-18.24
-8.99
-1.97
1.88
2.53
0.57
-3.02
-7.09
-10.44
-12.07
-11.42
-8.6
-4.37
0.18
4.05
6.69
8.2
9.16
10.31
12.28
15.3
19.11
23.06
26.27
27.91
27.48
24.95
20.73
15.56
10.2
5.24
1.03
-2.3
-4.66
-5.98
-6.17
-5.32
-3.82
-2.27
-1.44
-1.79
-3.31
-5.34
-6.76
-6.46
-3.76
1.22
7.56
13.85
18.76
21.44
21.76
20.14
17.21
13.55
9.56
5.45
1.51
-1.91
-4.4
-5.66
-5.64
-4.64
-3.2
-1.98
-1.57
-2.27
-4.03
-6.33
-8.34
-9.17
-8.19
-5.24
-0.73
4.62
10.01
14.85
18.81
21.74
23.56
24.12
23.29
21.0
17.4
12.87
7.89
2.96
-1.56
-5.44
-8.56
-10.9
-12.51
-13.42
-13.64
-13.25
-12.36
-11.19
-10.04
-9.2
-8.82
-8.77
-8.63
-7.84
-5.95
-2.95
0.74
4.35
7.16
8.79
9.37
9.37
9.31
9.47
9.81
10.06
9.97
9.52
8.91
8.53
8.69
9.53
10.96
12.74
14.6
16.38
18.1
19.89
21.9
24.12
26.28
27.95
28.58
27.78
25.4
21.53
16.49
10.64
4.31
-2.19
-8.5
-14.3
-19.24
-23.05
-25.62
-26.98
-27.3
-26.81
-25.82
-24.59
-23.36
-22.26
-21.35
-20.64
-20.07
-19.56
-19.01
-18.26
-17.08
-15.29
-12.75
-9.5
-5.78
-2.01
1.35
3.93
5.53
6.15
5.92
5.05
3.67
1.92
-0.0
-1.78
-3.01
-3.28
-2.4
-0.49
1.95
4.19
5.59
5.73
4.62
2.64
0.45
-1.16
-1.42
0.24
3.98
9.49
15.9
22.02
26.69
29.15
29.24
27.42
24.48
21.18
17.95
14.83
11.59
7.93
3.75
-0.77
-5.21
-9.07
-11.95
-13.68
-14.41
-14.43
-14.08
-13.59
-12.99
-12.24
-11.27
-10.15
-9.06
-8.24
-7.84
-7.82
-7.99
-8.16
-8.17
-8.02
-7.75
-7.31
-6.56
-5.26
-3.2
-0.44
2.74
5.82
8.33
9.95
10.76
11.07
11.31
11.77
12.5
13.38
14.18
14.82
15.37
16.03
17.02
18.38
19.99
21.54
22.66
23.05
22.59
21.31
19.43
17.22
14.96
12.87
11.08
9.61
8.38
7.19
5.71
3.51
0.19
-4.48
-10.37
-16.93
-23.29
-28.4
-31.42
-31.99
-30.32
-27.09
-23.14
-19.19
-15.65
-12.66
-10.2
-8.24
-6.78
-5.81
-5.24
-4.88
-4.49
-3.92
-3.15
-2.28
-1.48
-0.89
-0.6
-0.57
-0.74
-0.91
-0.87
-0.43
0.61
2.37
4.94
8.33
12.46
17.09
21.82
26.24
30.04
33.1
35.47
37.15
37.97
37.63
35.87
32.66
28.27
23.12
17.47
11.26
4.14
-4.2
-13.61
-23.29
-31.92
-38.18
-41.26
-41.19
-38.88
-35.78
-33.45
-32.97
-34.63
-37.86
-41.32
-43.36
-42.49
-37.82
-29.3
-17.69
-4.4
8.88
20.48
29.22
34.58
36.92
37.34
37.28
38.01
40.03
42.86
45.28
45.83
43.49
38.06
30.23
21.32
12.97
6.74
3.92
5.17
10.28
17.92
25.8
31.15
31.57
25.91
14.67
-0.16
-15.78
-29.51
-39.54
-45.28
-47.23
-46.55
-44.59
-42.44
-40.79
-39.93
-39.76
-40.0
-40.22
-40.01
-39.06
-37.24
-34.63
-31.45
-28.03
-24.61
-21.43
-18.59
-16.2
-14.29
-12.89
-12.0
-11.57
-11.56
-11.96
-12.72
-13.79
-15.04
-16.23
-17.0
-17.01
-15.95
-13.73
-10.51
-6.67
-2.75
0.77
3.63
5.88
7.86
9.99
12.43
15.02
17.25
18.5
18.37
16.88
14.51
11.98
9.97
8.87
8.67
9.07
9.56
9.58
8.56
6.1
2.05
-3.27
-9.13
-14.51
-18.51
-20.7
-21.22
-20.62
-19.56
-18.4
-17.18
-15.73
-13.92
-11.86
-9.81
-7.94
-6.22
-4.4
-2.21
0.48
3.46
6.31
8.56
9.84
9.99
9.03
7.11
4.48
1.51
-1.42
-3.98
-6.02
-7.54
-8.68
-9.41
-9.42
-8.1
-4.83
0.69
8.13
16.46
24.28
30.16
33.19
33.06
30.11
24.96
18.37
10.99
3.44
-3.69
-9.85
-14.61
-17.85
-19.78
-20.84
-21.44
-21.85
-22.08
-21.98
-21.38
-20.15
-18.19
-15.41
-11.72
-7.14
-1.9
3.5
8.43
12.31
14.87
16.25
16.81
17.02
17.16
17.27
17.17
16.65
15.58
14.02
12.13
10.08
8.04
6.14
4.55
3.54
3.52
4.94
8.13
13.03
19.1
25.37
30.69
34.08
35.05
33.68
30.43
25.91
20.6
14.79
8.73
2.75
-2.57
-6.68
-9.23
-10.43
-11.0
-11.9
-13.94
-17.35
-21.75
-26.28
-29.95
-31.93
-31.73
-29.21
-24.51
-17.99
-10.15
-1.61
6.97
14.99
22.03
27.84
32.37
35.69
38.02
39.56
40.47
40.74
40.2
38.54
35.5
31.07
25.56
19.58
13.84
9.02
5.62
3.96
4.1
5.77
8.37
11.0
12.64
12.5
10.3
6.31
1.28
-3.97
-8.8
-13.0
-16.69
-20.13
-23.49
-26.68
-29.37
-31.15
-31.74
-31.15
-29.73
-28.06
-26.73
-26.13
-26.27
-26.8
-27.19
-26.88
-25.52
-23.05
-19.68
-15.71
-11.4
-6.84
-1.95
3.4
9.23
15.35
21.32
26.54
30.46
32.74
33.35
32.59
30.89
28.76
26.59
24.65
23.04
21.82
20.88
20.0
18.84
16.92
13.81
9.27
3.37
-3.43
-10.42
-16.71
-21.45
-23.96
-23.94
-21.55
-17.43
-12.65
-8.42
-5.77
-5.3
-7.01
-10.39
-14.63
-18.89
-22.55
-25.34
-27.28
-28.63
-29.77
-30.99
-32.36
-33.64
-34.33
-33.83
-31.63
-27.52
-21.63
-14.44
-6.58
1.26
8.48
14.58
19.19
22.13
23.44
23.34
22.21
20.48
18.49
16.43
14.33
12.15
9.86
7.49
5.08
2.64
0.11
-2.56
-5.34
-8.03
-10.26
-11.58
-11.63
-10.23
-7.42
-3.39
1.6
7.21
12.98
18.28
22.21
23.78
22.22
17.27
9.51
0.3
-8.53
-15.2
-18.61
-18.69
-16.34
-12.94
-9.75
-7.35
-5.67
-4.23
-2.69
-1.12
0.09
0.58
0.51
0.52
1.49
4.09
8.31
13.57
18.95
23.78
27.8
31.28
34.59
37.99
41.35
44.2
45.91
45.93
44.09
40.76
36.87
33.73
32.63
34.38
38.9
45.18
51.46
55.95
57.45
55.85
52.19
48.15
45.38
44.75
46.05
48.22
49.81
49.51
46.44
40.05
29.93
15.85
-1.92
-22.19
-42.68
-60.42
-72.7
-78.12
-77.09
-71.63
-64.37
-57.52
-52.14
-48.17
-44.95
-41.9
-38.9
-36.09
-33.58
-31.01
-27.67
-22.71
-15.66
-6.8
2.82
11.72
18.38
21.75
21.47
17.91
12.0
4.95
-2.05
-8.02
-12.25
-14.4
-14.4
-12.57
-9.55
-6.29
-3.86
-3.17
-4.69
-8.26
-13.08
-17.95
-21.71
-23.53
-23.24
-21.32
-18.69
-16.34
-15.02
-15.06
-16.43
-18.86
-22.05
-25.71
-29.51
-32.98
-35.52
-36.52
-35.49
-32.31
-27.26
-20.97
-14.35
-8.38
-3.86
-1.23
-0.44
-0.88
-1.64
-1.85
-0.93
1.17
4.09
7.29
10.23
12.56
14.1
14.83
14.9
14.56
14.09
13.72
13.47
13.22
12.86
12.53
12.7
14.01
16.9
21.15
25.75
29.15
29.87
27.11
21.12
13.11
4.77
-2.41
-7.53
-10.51
-11.83
-12.23
-12.3
-12.37
-12.55
-12.82
-13.21
-13.8
-14.7
-15.95
-17.4
-18.76
-19.63
-19.59
-18.36
-15.85
-12.16
-7.6
-2.63
2.24
6.57
10.13
12.93
15.22
17.32
19.49
21.75
23.99
26.04
27.84
29.44
30.99
32.64
34.43
36.33
38.36
40.54
42.86
45.16
47.02
47.82
46.89
43.69
37.96
29.76
19.45
7.56
-5.21
-18.0
-29.92
-40.13
-48.03
-53.39
-56.36
-57.37
-56.9
-55.36
-52.99
-49.96
-46.52
-43.1
-40.19
-38.03
-36.41
-34.52
-31.27
-25.8
-18.02
-8.79
0.4
8.01
13.1
15.61
16.19
15.68
14.69
13.42
11.79
9.81
7.71
6.02
5.25
5.68
7.13
9.03
10.61
11.22
10.54
8.71
6.18
3.57
1.38
-0.19
-1.27
-2.18
-3.23
-4.52
-5.95
-7.23
-8.17
-8.74
-9.17
-9.78
-10.82
-12.37
-14.26
-16.2
-17.89
-19.09
-19.63
-19.41
-18.38
-16.49
-13.79
-10.44
-6.66
-2.66
1.38
5.35
9.13
12.53
15.34
17.4
18.67
19.28
19.45
19.41
19.31
19.21
19.14
19.17
19.32
19.55
19.69
19.41
18.4
16.57
14.18
11.82
10.23
10.07
11.69
14.99
19.47
24.4
28.87
31.98
32.95
31.22
26.62
19.42
10.36
0.49
-9.1
-17.46
-24.06
-28.69
-31.5
-32.75
-32.79
-31.99
-30.76
-29.47
-28.45
-27.8
-27.35
-26.68
-25.24
-22.57
-18.5
-13.18
-7.12
-1.0
4.56
9.13
12.5
14.66
15.83
16.32
16.52
16.76
17.2
17.8
18.33
18.48
18.04
17.06
15.75
14.47
13.49
12.97
12.96
13.44
14.34
15.36
15.92
15.17
12.29
6.91
-0.55
-8.86
-16.36
-21.52
-23.51
-22.45
-19.21
-15.04
-11.09
-8.12
-6.42
-5.97
-6.57
-8.01
-10.02
-12.27
-14.38
-15.89
-16.45
-15.92
-14.46
-12.51
-10.62
-9.27
-8.67
-8.65
-8.76
-8.49
-7.44
-5.43
-2.57
0.87
4.62
8.47
12.31
16.13
19.95
23.77
27.55
31.2
34.6
37.63
40.2
42.26
43.77
44.62
44.48
42.83
39.01
32.51
23.25
11.8
-0.64
-12.48
-22.17
-28.61
-31.33
-30.52
-26.76
-20.92
-13.89
-6.58
0.12
5.41
8.75
10.0
9.54
8.17
6.85
6.41
7.32
9.66
13.16
17.38
21.92
26.37
30.35
33.41
35.04
34.79
32.37
27.87
21.75
14.8
7.86
1.6
-3.65
-7.98
-11.71
-15.28
-19.01
-23.06
-27.42
-31.91
-36.17
-39.71
-41.97
-42.48
-41.05
-37.85
-33.43
-28.54
-23.95
-20.25
-17.77
-16.55
-16.32
-16.64
-16.98
-16.91
-16.21
-14.96
-13.49
-12.21
-11.41
-11.15
-11.26
-11.52
-11.73
-11.79
-11.64
-11.17
-10.21
-8.61
-6.42
-3.91
-1.57
0.09
0.77
0.51
-0.44
-1.74
-3.16
-4.72
-6.51
-8.51
-10.43
-11.75
-11.95
-10.81
-8.63
-6.13
-4.14
-3.27
-3.69
-5.22
-7.59
-10.69
-14.48
-18.78
-22.88
-25.62
-25.61
-21.91
-14.58
-4.87
5.26
13.76
19.29
21.53
20.98
18.56
15.15
11.32
7.35
3.47
-0.12
-3.24
-5.83
-8.03
-10.1
-12.35
-14.91
-17.72
-20.5
-22.86
-24.3
-24.26
-22.27
-18.01
-11.59
-3.55
5.11
13.18
19.55
23.44
24.61
23.24
19.98
15.81
11.81
9.05
8.27
9.64
12.7
16.45
19.71
21.5
21.41
19.63
16.81
13.79
11.27
9.56
8.66
8.32
8.26
8.31
8.51
9.02
10.05
11.68
13.85
16.29
18.64
20.44
21.28
20.8
18.79
15.27
10.43
4.76
-1.16
-6.65
-11.2
-14.57
-16.85
-18.41
-19.63
-20.75
-21.72
-22.24
-21.92
-20.56
-18.23
-15.24
-12.06
-9.09
-6.57
-4.55
-2.97
-1.62
-0.21
1.67
4.44
8.31
13.09
18.03
22.04
23.99
23.12
19.45
13.71
7.11
0.85
-4.23
-7.88
-10.28
-11.76
-12.62
-13.0
-12.94
-12.53
-11.96
-11.48
-11.26
-11.29
-11.31
-11.01
-10.13
-8.62
-6.76
-5.01
-3.87
-3.65
-4.19
-4.88
-4.89
-3.54
-0.63
3.37
7.48
10.65
12.12
11.63
9.39
5.9
1.75
-2.45
-6.12
-8.65
-9.62
-8.9
-6.74
-3.7
-0.44
2.49
4.91
6.91
8.75
10.7
12.84
15.11
17.29
19.14
20.52
21.42
21.97
22.39
22.82
23.18
23.14
22.2
19.88
15.88
10.29
3.55
-3.57
-10.19
-15.47
-18.8
-20.02
-19.42
-17.76
-16.05
-15.33
-16.3
-19.09
-23.25
-27.84
-31.81
-34.28
-34.78
-33.23
-29.92
-25.3
-19.91
-14.28
-8.92
-4.29
-0.77
1.43
2.31
2.08
1.17
0.04
-0.89
-1.4
-1.47
-1.24
-0.78
-0.08
1.05
2.84
5.4
8.58
12.03
15.3
18.03
20.14
21.73
23.05
24.24
25.24
25.8
25.55
24.18
21.46
17.31
11.73
4.86
-2.94
-11.03
-18.48
-24.32
-27.85
-28.99
-28.31
-26.76
-25.21
-24.09
-23.27
-22.25
-20.52
-17.92
-14.62
-11.09
-7.75
-4.85
-2.41
-0.3
1.62
3.44
5.12
6.59
7.71
8.37
8.52
8.22
7.63
6.9
6.18
5.48
4.82
4.21
3.75
3.57
3.75
4.19
4.59
4.6
3.95
2.58
0.74
-1.14
-2.57
-3.2
-2.87
-1.57
0.57
3.37
6.61
10.08
13.58
16.91
19.93
22.57
24.78
26.61
28.13
29.41
30.45
31.18
31.46
31.22
30.48
29.34
27.98
26.54
25.08
23.6
22.13
20.81
19.97
20.0
21.27
23.9
27.65
31.93
35.83
38.43
38.98
37.11
32.94
26.96
19.96
12.74
5.97
0.09
-4.77
-8.69
-11.98
-15.04
-18.27
-22.02
-26.47
-31.53
-36.75
-41.41
-44.68
-45.86
-44.56
-40.81
-34.94
-27.34
-18.36
-8.34
2.08
11.87
19.6
23.86
23.84
19.76
12.87
4.99
-2.21
-7.69
-11.19
-13.0
-13.48
-12.82
-11.05
-8.27
-4.79
-1.27
1.56
3.11
3.13
1.79
-0.47
-3.08
-5.5
-7.3
-8.27
-8.34
-7.55
-6.0
-3.75
-0.96
2.08
4.84
6.6
6.63
4.51
0.42
-4.88
-10.2
-14.39
-16.75
-17.19
-16.17
-14.44
-12.65
-11.11
-9.84
-8.67
-7.42
-5.97
-4.31
-2.47
-0.53
1.4
3.14
4.48
5.25
5.42
5.15
4.78
4.77
5.46
6.99
9.19
11.65
13.85
15.29
15.68
14.95
13.26
10.92
8.29
5.61
3.05
0.71
-1.37
-3.1
-4.33
-4.92
-4.78
-3.97
-2.75
-1.56
-0.86
-0.98
-2.05
-3.97
-6.47
-9.29
-12.22
-15.18
-18.08
-20.79
-23.09
-24.68
-25.26
-24.62
-22.7
-19.66
-15.82
-11.66
-7.73
-4.47
-2.18
-0.86
-0.31
-0.29
-0.55
-0.96
-1.44
-1.87
-2.01
-1.62
-0.5
1.26
3.35
5.37
7.01
8.23
9.26
10.4
11.81
13.37
14.72
15.38
15.11
13.91
12.07
10.04
8.17
6.68
5.59
4.81
4.18
3.52
2.6
1.2
-0.82
-3.4
-6.25
-8.86
-10.69
-11.41
-11.04
-9.94
-8.63
-7.51
-6.67
-5.93
-4.94
-3.51
-1.72
0.1
1.57
2.43
2.72
2.68
2.59
2.67
2.94
3.28
3.53
3.57
3.38
3.01
2.53
2.01
1.46
0.88
0.33
-0.06
-0.07
0.58
2.09
4.48
7.56
10.95
14.2
16.92
18.88
19.94
20.06
19.2
17.29
14.34
10.45
5.85
0.95
-3.82
-8.06
-11.48
-14.02
-15.8
-17.08
-18.12
-19.08
-19.88
-20.26
-19.87
-18.42
-15.86
-12.42
-8.51
-4.6
-1.11
1.69
3.6
4.54
4.55
3.79
2.57
1.22
0.02
-0.9
-1.56
-2.11
-2.61
-3.08
-3.44
-3.66
-3.77
-3.9
-4.24
-4.93
-5.99
-7.32
-8.66
-9.66
-9.96
-9.3
-7.67
-5.29
-2.6
-0.05
2.07
3.63
4.68
5.26
5.32
4.71
3.36
1.37
-0.98
-3.25
-5.1
-6.32
-6.91
-6.92
-6.36
-5.16
-3.25
-0.76
1.87
3.97
4.93
4.46
2.78
0.55
-1.43
-2.55
-2.6
-1.78
-0.53
0.69
1.65
2.36
2.97
3.66
4.53
5.49
6.35
6.9
7.03
6.8
6.36
5.91
5.5
5.1
4.57
3.85
2.97
2.06
1.24
0.51
-0.24
-1.12
-2.18
-3.27
-4.13
-4.49
-4.23
-3.42
-2.34
-1.39
-0.93
-1.19
-2.18
-3.56
-4.86
-5.53
-5.16
-3.7
-1.45
1.06
3.29
4.88
5.75
5.99
5.81
5.39
4.85
4.28
3.71
3.15
2.56
1.85
0.96
-0.07
-1.15
-2.13
-2.83
-3.14
-3.0
-2.35
-1.23
0.26
1.85
3.22
4.0
4.11
3.69
3.1
2.71
2.75
3.12
3.54
3.64
3.12
1.93
0.16
-1.99
-4.34
-6.73
-9.16
-11.65
-14.24
-16.84
-19.14
-20.63
-20.8
-19.26
-16.09
-11.76
-7.05
-2.74
0.6
2.74
3.77
3.92
3.51
2.8
2.08
1.58
1.42
1.63
2.02
2.34
2.3
1.73
0.56
-1.14
-3.21
-5.41
-7.47
-9.08
-9.92
-9.81
-8.7
-6.76
-4.31
-1.77
0.52
2.36
3.78
4.99
6.22
7.58
8.99
10.16
10.73
10.46
9.28
7.27
4.64
1.54
-1.89
-5.52
-9.14
-12.47
-15.22
-17.09
-17.94
-17.72
-16.47
-14.34
-11.55
-8.4
-5.22
-2.27
0.3
2.51
4.51
6.44
8.34
10.13
11.61
12.59
12.93
12.64
11.85
10.76
9.53
8.24
6.85
5.24
3.35
1.22
-0.91
-2.64
-3.64
-3.81
-3.4
-2.95
-3.05
-3.99
-5.66
-7.54
-8.95
-9.42
-8.77
-7.19
-4.99
-2.5
0.06
2.48
4.47
5.61
5.48
3.83
0.74
-3.34
-7.69
-11.57
-14.36
-15.73
-15.63
-14.29
-12.15
-9.73
-7.56
-6.06
-5.43
-5.67
-6.54
-7.68
-8.66
-9.08
-8.56
-6.91
-4.14
-0.49
3.6
7.59
11.03
13.54
14.97
15.31
14.68
13.25
11.33
9.23
7.27
5.66
4.43
3.45
2.54
1.51
0.3
-1.02
-2.42
-3.86
-5.32
-6.81
-8.27
-9.55
-10.48
-10.88
-10.66
-9.82
-8.48
-6.8
-5.03
-3.37
-1.95
-0.74
0.42
1.75
3.36
5.13
6.75
7.84
8.21
7.92
7.29
6.68
6.3
6.13
5.95
5.51
4.62
3.24
1.41
-0.74
-3.0
-5.09
-6.7
-7.52
-7.34
-6.15
-4.06
-1.25
2.02
5.53
9.0
12.12
14.54
16.0
16.39
15.81
14.51
12.85
11.14
9.59
8.33
7.41
6.74
6.15
5.37
4.07
1.96
-1.04
-4.65
-8.35
-11.44
-13.41
-14.04
-13.5
-12.19
-10.43
-8.3
-5.6
-2.1
2.28
7.24
12.22
16.59
19.89
21.96
22.89
22.86
22.0
20.37
18.04
15.22
12.23
9.39
6.93
4.84
2.89
0.79
-1.69
-4.48
-7.22
-9.37
-10.36
-9.78
-7.55
-3.91
0.63
5.35
9.53
12.52
13.96
13.79
12.27
9.87
7.17
4.69
2.75
1.42
0.55
-0.14
-0.91
-1.99
-3.49
-5.45
-7.87
-10.72
-13.88
-17.14
-20.17
-22.54
-23.79
-23.58
-21.75
-18.42
-13.9
-8.7
-3.36
1.59
5.76
8.96
11.24
12.78
13.86
14.7
15.4
15.92
16.07
15.67
14.58
12.8
10.46
7.8
5.14
2.81
1.09
0.12
-0.16
0.0
0.34
0.63
0.87
1.18
1.79
2.85
4.35
6.19
8.18
10.17
12.15
14.09
15.87
17.19
17.66
16.92
14.91
11.89
8.43
5.23
2.77
1.11
-0.09
-1.41
-3.3
-5.8
-8.46
-10.58
-11.51
-11.05
-9.43
-7.28
-5.21
-3.67
-2.81
-2.61
-3.0
-3.86
-4.97
-5.91
-6.16
-5.39
-3.66
-1.44
0.66
2.35
3.91
6.1
9.67
14.79
20.82
26.51
30.55
32.17
31.37
28.9
25.85
23.24
21.76
21.59
22.44
23.67
24.54
24.6
24.04
23.67
24.6
27.5
32.06
36.92
40.24
40.61
37.81
32.89
27.64
23.58
21.32
20.46
20.14
19.72
19.13
18.66
18.52
18.32
17.2
14.29
9.35
3.08
-3.06
-7.56
-9.6
-9.34
-7.75
-6.04
-4.98
-4.63
-4.43
-3.66
-1.88
0.76
3.63
5.91
6.99
6.78
5.77
4.78
4.63
5.73
7.96
10.84
13.76
16.29
18.09
18.8
17.81
14.38
7.91
-1.61
-13.34
-25.79
-37.26
-46.49
-52.93
-56.67
-58.1
-57.62
-55.42
-51.57
-46.16
-39.36
-31.41
-22.65
-13.5
-4.6
3.26
9.22
12.67
13.46
12.01
9.16
5.85
2.76
0.2
-1.89
-3.71
-5.4
-6.97
-8.34
-9.51
-10.53
-11.46
-12.21
-12.38
-11.34
-8.54
-3.72
2.85
10.44
18.07
24.88
30.27
33.98
35.97
36.21
34.61
31.05
25.46
17.94
8.82
-1.38
-12.02
-22.41
-31.9
-39.88
-45.87
-49.54
-50.73
-49.55
-46.3
-41.46
-35.59
-29.28
-23.11
-17.64
-13.31
-10.36
-8.83
-8.48
-8.91
-9.66
-10.37
-10.84
-11.06
-11.23
-11.6
-12.42
-13.79
-15.56
-17.39
-18.77
-19.26
-18.68
-17.21
-15.3
-13.48
-12.11
-11.22
-10.58
-9.86
-8.8
-7.37
-5.67
-3.85
-1.99
-0.08
1.89
3.86
5.6
6.78
7.09
6.36
4.64
2.22
-0.46
-2.91
-4.65
-5.42
-5.1
-3.79
-1.64
1.2
4.58
8.21
11.54
13.78
14.08
11.96
7.58
1.81
-4.07
-8.8
-11.65
-12.54
-11.86
-10.22
-8.15
-5.99
-3.99
-2.45
-1.74
-2.24
-4.12
-7.21
-10.93
-14.38
-16.65
-17.05
-15.4
-12.05
-7.78
-3.53
-0.07
2.15
3.04
2.77
1.62
-0.23
-2.72
-5.82
-9.47
-13.38
-17.06
-19.82
-21.06
-20.43
-18.09
-14.63
-10.95
-7.92
-6.06
-5.36
-5.29
-5.06
-4.01
-1.88
1.13
4.4
7.23
9.05
9.62
9.0
7.45
5.29
2.89
0.62
-1.15
-2.15
-2.26
-1.61
-0.57
0.43
1.07
1.31
1.4
1.75
2.67
4.26
6.35
8.63
10.81
12.68
14.22
15.42
16.23
16.52
16.13
14.96
13.08
10.68
8.08
5.57
3.38
1.61
0.27
-0.75
-1.63
-2.62
-4.01
-5.96
-8.46
-11.18
-13.51
-14.76
-14.35
-12.12
-8.39
-3.88
0.53
4.08
6.35
7.39
7.54
7.28
6.96
6.75
6.62
6.48
6.25
5.97
5.72
5.54
5.44
5.36
5.26
5.15
5.1
5.12
5.12
4.86
4.15
2.89
1.27
-0.29
-1.35
-1.52
-0.68
1.15
3.78
6.88
9.99
12.5
13.72
13.1
10.51
6.32
1.38
-3.3
-6.96
-9.35
-10.7
-11.5
-12.14
-12.72
-12.96
-12.5
-11.14
-9.06
-6.85
-5.19
-4.58
-5.06
-6.21
-7.24
-7.43
-6.34
-3.98
-0.66
3.14
7.02
10.73
14.08
16.92
19.03
20.19
20.27
19.38
17.85
16.12
14.61
13.52
12.82
12.28
11.65
10.79
9.67
8.41
7.03
5.48
3.5
0.81
-2.76
-7.07
-11.72
-16.14
-19.77
-22.3
-23.65
-23.92
-23.23
-21.68
-19.34
-16.38
-13.08
-9.81
-6.91
-4.57
-2.77
-1.34
-0.14
0.9
1.7
2.13
2.13
1.76
1.25
0.84
0.68
0.74
0.8
0.56
-0.21
-1.53
-3.19
-4.72
-5.63
-5.49
-4.12
-1.58
1.84
5.72
9.58
13.0
15.61
17.12
17.4
16.47
14.56
11.99
9.11
6.16
3.21
0.22
-2.87
-5.97
-8.86
-11.3
-13.14
-14.43
-15.43
-16.46
-17.74
-19.26
-20.78
-21.9
-22.13
-21.1
-18.66
-14.9
-10.2
-5.07
-0.06
4.4
8.04
10.83
12.84
14.19
14.94
15.07
14.55
13.41
11.75
9.8
7.81
5.99
4.43
3.12
1.98
0.95
0.02
-0.77
-1.31
-1.51
-1.28
-0.56
0.65
2.27
4.15
6.13
8.0
9.6
10.8
11.45
11.37
10.37
8.19
4.64
-0.31
-6.41
-13.13
-19.65
-25.12
-28.84
-30.48
-30.05
-27.83
-24.18
-19.36
-13.65
-7.43
-1.31
3.92
7.6
9.5
10.0
9.96
10.32
11.63
13.78
16.07
17.66
17.99
17.06
15.37
13.5
11.76
10.09
8.2
6.01
3.85
2.51
2.81
5.17
9.35
14.44
19.23
22.63
24.09
23.6
21.62
18.76
15.5
12.11
8.62
5.05
1.55
-1.6
-4.12
-5.92
-7.24
-8.57
-10.4
-12.9
-15.79
-18.36
-19.82
-19.61
-17.65
-14.25
-10.04
-5.68
-1.75
1.34
3.4
4.39
4.44
3.8
2.83
1.84
1.07
0.6
0.35
0.15
-0.14
-0.49
-0.69
-0.28
1.25
4.27
8.76
14.26
19.93
24.81
28.06
29.24
28.29
25.46
21.2
16.05
10.62
5.59
1.56
-1.03
-2.04
-1.73
-0.69
0.32
0.56
-0.6
-3.52
-8.3
-14.68
-21.96
-29.11
-34.97
-38.56
-39.35
-37.35
-33.08
-27.31
-20.73
-13.85
-6.93
-0.08
6.57
12.7
17.79
21.22
22.5
21.49
18.6
14.61
10.5
7.08
4.74
3.5
3.09
3.21
3.59
4.01
4.27
4.23
3.9
3.53
3.48
4.11
5.42
7.05
8.35
8.72
7.88
6.03
3.6
1.11
-1.17
-3.18
-5.05
-6.92
-8.84
-10.75
-12.64
-14.62
-16.95
-19.9
-23.59
-27.84
-32.12
-35.72
-38.04
-38.77
-38.07
-36.36
-34.13
-31.63
-28.87
-25.64
-21.69
-16.93
-11.53
-5.88
-0.43
4.41
8.44
11.71
14.41
16.74
18.75
20.3
21.08
20.84
19.53
17.45
15.17
13.45
12.91
13.91
16.35
19.74
23.26
25.96
26.99
25.79
22.25
16.7
9.84
2.61
-4.01
-9.18
-12.44
-13.78
-13.59
-12.61
-11.55
-10.95
-10.99
-11.55
-12.33
-12.94
-13.12
-12.67
-11.53
-9.71
-7.36
-4.7
-2.03
0.36
2.29
3.69
4.5
4.7
4.2
2.94
0.93
-1.63
-4.39
-6.95
-8.97
-10.24
-10.72
-10.43
-9.44
-7.79
-5.53
-2.77
0.34
3.6
6.89
10.2
13.5
16.71
19.53
21.5
22.12
21.08
18.38
14.43
9.89
5.42
1.52
-1.68
-4.3
-6.64
-8.91
-11.15
-13.28
-15.16
-16.81
-18.32
-19.82
-21.27
-22.37
-22.69
-21.89
-19.87
-16.84
-13.19
-9.23
-5.14
-1.03
2.97
6.59
9.5
11.5
12.61
13.08
13.23
13.24
13.08
12.57
11.47
9.65
7.11
3.98
0.52
-2.87
-5.69
-7.45
-7.74
-6.41
-3.51
0.72
5.9
11.66
17.61
23.36
28.53
32.73
35.62
36.86
36.22
33.63
29.22
23.4
16.72
9.83
3.24
-2.8
-8.22
-13.11
-17.53
-21.46
-24.78
-27.37
-29.08
-29.75
-29.22
-27.28
-23.76
-18.62
-12.06
-4.56
3.14
10.27
16.15
20.44
23.11
24.43
24.75
24.34
23.32
21.62
19.17
16.0
12.38
8.76
5.63
3.4
2.23
2.02
2.53
3.48
4.77
6.42
8.55
11.16
14.03
16.68
18.54
19.12
18.17
15.78
12.25
8.0
3.46
-0.98
-4.93
-8.09
-10.2
-11.14
-11.01
-10.21
-9.37
-9.31
-10.78
-14.2
-19.39
-25.55
-31.44
-35.82
-37.92
-37.62
-35.42
-32.09
-28.22
-24.05
-19.49
-14.36
-8.68
-2.7
3.15
8.52
13.19
17.12
20.3
22.6
23.84
23.84
22.59
20.36
17.69
15.26
13.73
13.59
14.99
17.76
21.3
24.72
26.99
27.19
24.78
19.77
12.75
4.72
-3.21
-10.15
-15.58
-19.44
-21.96
-23.54
-24.49
-25.04
-25.27
-25.26
-25.13
-25.03
-25.12
-25.44
-25.85
-26.18
-26.24
-25.96
-25.4
-24.59
-23.47
-21.86
-19.54
-16.47
-12.89
-9.3
-6.31
-4.35
-3.46
-3.23
-2.96
-2.01
0.0
2.99
6.53
10.03
12.96
15.02
16.08
16.22
15.57
14.36
12.96
11.84
11.53
12.41
14.49
17.31
20.03
21.71
21.58
19.35
15.22
9.81
3.92
-1.71
-6.55
-10.3
-12.87
-14.3
-14.66
-14.1
-12.9
-11.42
-10.04
-9.05
-8.5
-8.17
-7.68
-6.64
-4.85
-2.41
0.35
3.03
5.34
7.17
8.55
9.53
10.08
10.08
9.48
8.38
7.06
5.89
5.16
4.91
4.9
4.81
4.36
3.53
2.52
1.69
1.43
2.08
3.83
6.7
10.47
14.67
18.63
21.67
23.23
23.1
21.35
18.32
14.49
10.42
6.63
3.56
1.44
0.16
-0.7
-1.75
-3.54
-6.36
-10.1
-14.34
-18.46
-21.89
-24.2
-25.11
-24.57
-22.64
-19.52
-15.52
-11.0
-6.34
-1.89
2.03
5.22
7.58
9.07
9.85
10.11
10.12
10.04
9.92
9.65
9.04
7.94
6.35
4.47
2.61
1.13
0.34
0.36
1.16
2.56
4.31
6.11
7.67
8.7
9.03
8.59
7.46
5.85
3.99
2.11
0.3
-1.49
-3.38
-5.5
-7.85
-10.31
-12.65
-14.68
-16.32
-17.61
-18.65
-19.48
-19.98
-19.9
-18.96
-16.96
-13.9
-9.96
-5.42
-0.53
4.48
9.4
13.95
17.75
20.42
21.66
21.4
19.87
17.5
14.81
12.16
9.73
7.45
5.13
2.69
0.2
-2.0
-3.43
-3.67
-2.59
-0.44
2.17
4.51
6.04
6.57
6.32
5.68
5.01
4.44
3.87
3.13
2.16
1.08
0.14
-0.38
-0.4
-0.04
0.36
0.44
-0.05
-1.15
-2.65
-4.16
-5.27
-5.66
-5.16
-3.79
-1.7
0.83
3.48
5.82
7.43
7.93
7.17
5.35
2.96
0.63
-1.09
-1.88
-1.8
-1.07
-0.06
0.99
1.95
2.83
3.75
4.9
6.48
8.63
11.35
14.38
17.28
19.5
20.49
19.93
17.72
14.04
9.27
3.93
-1.47
-6.5
-10.94
-14.75
-17.98
-20.68
-22.79
-24.18
-24.67
-24.22
-22.93
-21.06
-18.89
-16.6
-14.19
-11.53
-8.41
-4.75
-0.74
3.24
6.68
9.18
10.58
11.03
10.9
10.58
10.38
10.34
10.36
10.25
9.87
9.17
8.24
7.24
6.39
5.97
6.22
7.28
9.09
11.38
13.65
15.32
15.89
15.05
12.87
9.68
6.04
2.48
-0.6
-3.0
-4.67
-5.68
-6.15
-6.29
-6.43
-7.07
-8.69
-11.54
-15.49
-19.99
-24.25
-27.56
-29.51
-30.14
-29.71
-28.54
-26.75
-24.26
-20.92
-16.68
-11.83
-6.87
-2.42
1.05
3.37
4.67
5.28
5.52
5.59
5.5
5.21
4.72
4.13
3.62
3.29
3.13
3.02
2.81
2.46
2.1
1.89
2.0
2.47
3.32
4.47
5.95
7.73
9.75
11.84
13.72
15.17
16.14
16.73
17.08
17.34
17.47
17.32
16.7
15.46
13.46
10.61
6.9
2.46
-2.38
-7.11
-11.21
-14.31
-16.25
-17.07
-16.82
-15.46
-12.9
-9.2
-4.76
-0.26
3.52
6.05
7.32
7.76
8.04
8.68
9.84
11.37
13.01
14.6
16.23
18.1
20.34
22.84
25.2
26.92
27.62
27.11
25.51
23.1
20.12
16.66
12.65
7.95
2.57
-3.18
-8.72
-13.27
-16.13
-16.92
-15.72
-13.01
-9.6
-6.4
-4.25
-3.85
-5.56
-9.35
-14.79
-21.01
-26.96
-31.63
-34.38
-35.07
-34.02
-31.79
-28.97
-25.99
-23.08
-20.39
-18.01
-16.06
-14.69
-13.95
-13.79
-14.02
-14.32
-14.33
-13.71
-12.28
-10.03
-7.19
-4.1
-1.16
1.32
3.19
4.43
5.13
5.43
5.47
5.42
5.45
5.71
6.37
7.51
9.04
10.69
12.02
12.61
12.23
11.01
9.42
8.09
7.54
7.87
8.7
9.28
8.83
6.85
3.29
-1.42
-6.58
-11.41
-15.23
-17.62
-18.48
-18.05
-16.84
-15.42
-14.18
-13.18
-12.12
-10.56
-8.22
-5.14
-1.75
1.34
3.58
4.72
4.81
4.17
3.17
2.15
1.3
0.69
0.29
0.06
-0.0
0.16
0.65
1.51
2.75
4.33
6.26
8.61
11.45
14.7
17.95
20.44
21.37
20.19
16.91
12.08
6.55
1.15
-3.54
-7.23
-9.8
-11.22
-11.53
-10.97
-9.98
-9.11
-8.85
-9.44
-10.94
-13.29
-16.49
-20.52
-25.17
-29.88
-33.76
-35.75
-35.09
-31.57
-25.68
-18.44
-10.99
-4.3
1.05
4.83
7.12
8.18
8.4
8.21
8.08
8.38
9.3
10.84
12.79
14.88
16.85
18.59
20.1
21.49
22.81
24.02
25.03
25.84
26.69
27.98
30.19
33.5
37.68
42.13
46.24
49.74
52.73
55.41
57.74
59.17
58.86
56.09
50.7
43.18
34.45
25.36
16.39
7.65
-0.92
-9.26
-17.06
-23.88
-29.24
-32.79
-34.37
-33.94
-31.69
-28.02
-23.45
-18.55
-13.81
-9.58
-6.09
-3.43
-1.53
-0.16
1.01
2.31
3.82
5.35
6.47
6.74
5.98
4.33
2.14
-0.27
-2.67
-5.0
-7.21
-9.11
-10.41
-10.85
-10.4
-9.37
-8.36
-8.01
-8.74
-10.61
-13.27
-16.15
-18.65
-20.33
-20.98
-20.67
-19.63
-18.2
-16.78
-15.73
-15.36
-15.83
-17.14
-19.19
-21.83
-24.96
-28.56
-32.62
-36.97
-41.2
-44.71
-46.88
-47.3
-45.94
-43.11
-39.34
-35.14
-30.84
-26.59
-22.47
-18.5
-14.7
-11.05
-7.45
-3.75
0.16
4.2
8.09
11.42
13.87
15.27
15.79
15.84
15.93
16.5
17.77
19.72
22.09
24.45
26.31
27.2
26.73
24.7
21.2
16.57
11.34
5.99
0.79
-4.17
-8.92
-13.33
-17.02
-19.41
-20.0
-18.64
-15.7
-11.99
-8.47
-6.01
-5.14
-6.04
-8.54
-12.2
-16.38
-20.34
-23.39
-25.0
-24.96
-23.37
-20.57
-17.02
-13.16
-9.4
-6.11
-3.55
-1.88
-1.13
-1.13
-1.56
-2.07
-2.27
-1.97
-1.14
0.09
1.46
2.76
3.88
4.89
5.95
7.26
8.95
10.98
13.21
15.42
17.45
19.28
20.98
22.61
24.15
25.38
25.88
25.25
23.17
19.66
15.06
9.96
5.01
0.72
-2.68
-5.27
-7.32
-9.26
-11.41
-13.97
-16.87
-19.76
-22.07
-23.27
-22.97
-21.1
-17.94
-13.93
-9.48
-4.9
-0.32
4.15
8.35
11.98
14.77
16.63
17.69
18.35
19.04
20.0
21.2
22.27
22.79
22.42
21.11
19.13
16.91
14.98
13.76
13.56
14.52
16.66
19.79
23.5
27.18
30.11
31.69
31.57
29.81
26.77
