2013-02-23 13:25:02
64.0
-0.0
-0.0
-0.0
-0.0
-0.0
-0.0
-0.0
-0.0
-0.0
-0.0
0.0
0.01
0.01
-0.0
-0.03
-0.05
-0.05
0.0
0.13
0.36
0.66
1.01
1.37
1.72
2.06
2.4
2.79
3.24
3.8
4.42
5.06
5.66
6.2
6.68
7.15
7.68
8.31
9.14
10.09
11.04
11.88
12.56
13.14
13.76
14.65
15.96
17.91
20.32
22.9
25.38
27.58
29.57
31.68
34.32
37.81
42.54
48.15
54.1
59.83
64.97
69.58
74.14
79.34
85.71
93.76
103.0
112.62
121.73
129.77
136.75
143.3
150.75
157.77
166.64
177.95
191.79
206.97
220.57
228.25
225.36
208.53
176.87
132.76
80.05
23.07
-34.94
-92.44
-149.16
-205.23
-260.37
-313.74
-363.87
-409.83
-450.91
-486.5
-515.74
-537.23
-549.22
-549.96
-538.37
-514.21
-478.67
-433.88
-382.45
-327.02
-269.84
-212.63
-156.66
-102.95
-52.37
-5.9
35.58
71.43
101.35
125.5
144.38
158.69
169.15
176.37
180.75
182.57
182.07
179.51
175.23
169.65
163.18
156.15
148.81
141.3
133.69
126.02
118.33
110.69
103.16
95.8
88.68
81.83
75.25
68.95
62.95
57.25
51.86
46.78
42.03
37.59
33.45
29.61
26.07
22.81
19.83
17.11
14.67
12.48
10.54
8.83
7.35
6.07
4.97
4.05
3.27
2.62
2.09
1.65
1.3
1.01
0.79
0.61
0.47
0.37
0.29
0.23
0.19
0.16
0.14
0.14
0.14
0.16
0.18
0.2
0.24
0.27
0.31
0.35
0.4
0.45
0.49
0.54
0.59
0.64
0.7
0.76
0.82
0.89
0.97
1.05
1.14
1.25
1.36
1.49
1.64
1.8
1.99
2.19
2.42
2.67
2.95
3.26
3.6
3.96
4.37
4.81
5.28
5.79
6.34
6.93
7.56
8.24
8.95
9.71
10.52
11.37
12.27
13.22
14.24
15.31
16.42
17.57
18.71
19.85
20.98
22.05
23.01
23.75
24.14
24.01
23.26
21.75
19.48
16.47
12.85
8.71
4.24
-0.39
-5.03
-9.52
-13.72
-17.45
-20.52
-22.8
-24.23
-24.82
-24.77
-24.31
-23.7
-23.11
-22.6
-22.04
-21.27
-20.18
-18.78
-17.33
-16.15
-15.6
-15.84
-16.75
-17.93
-18.94
-19.39
-19.24
-18.81
-18.65
-19.3
-21.0
-23.6
-26.49
-28.99
-30.59
-31.16
-31.03
-30.82
-31.17
-32.66
-35.72
-40.48
-46.48
-52.39
-56.03
-54.94
-47.41
-33.41
-14.88
4.79
22.07
34.58
41.77
44.63
44.86
43.86
42.24
40.03
37.09
33.61
30.19
27.51
25.96
25.49
25.65
25.74
25.14
23.6
21.36
19.0
17.15
16.13
15.8
15.61
14.93
13.42
11.22
8.78
6.58
4.8
3.39
2.07
0.63
-0.98
-2.68
-4.35
-5.91
-7.3
-8.46
-9.28
-9.65
-9.63
-9.39
-9.21
-9.26
-9.57
-9.98
-10.29
-10.34
-10.13
-9.72
-9.24
-8.82
-8.53
-8.41
-8.37
-8.22
-7.71
-6.7
-5.27
-3.76
-2.58
-2.01
-2.03
-2.32
-2.45
-2.07
-1.09
0.3
1.83
3.24
4.41
5.4
6.3
7.26
8.36
9.65
11.05
12.41
13.52
14.18
14.22
13.61
12.43
10.91
9.3
7.82
6.63
5.71
5.01
4.37
3.66
2.79
1.71
0.47
-0.86
-2.19
-3.43
-4.48
-5.32
-6.0
-6.65
-7.4
-8.27
-9.12
-9.65
-9.56
-8.63
-6.87
-4.53
-1.93
0.62
2.95
5.09
7.09
9.06
11.02
12.98
14.83
16.38
17.43
17.86
17.72
17.26
16.82
16.63
16.7
16.79
16.51
15.63
14.22
12.6
11.22
10.37
10.0
9.77
9.19
7.97
6.05
3.73
1.37
-0.74
-2.53
-4.16
-5.9
-7.87
-10.01
-12.08
-13.78
-15.01
-15.86
-16.61
-17.43
-18.31
-18.93
-18.9
-18.0
-16.39
-14.62
-13.34
-12.97
-13.44
-14.24
-14.69
-14.28
-12.9
-10.73
-8.19
-5.61
-3.16
-0.9
1.19
3.05
4.61
5.78
6.52
6.76
6.52
5.89
5.05
4.31
3.89
3.91
4.22
4.53
4.5
3.98
3.0
1.76
0.54
-0.41
-1.02
-1.38
-1.66
-2.13
-2.92
-4.03
-5.33
-6.6
-7.72
-8.72
-9.8
-11.13
-12.7
-14.2
-15.17
-15.14
-13.96
-11.8
-9.12
-6.41
-4.02
-2.11
-0.67
0.35
1.05
1.53
1.97
2.59
3.55
4.89
6.4
7.75
8.57
8.63
7.88
6.54
4.98
3.55
2.55
2.09
2.08
2.26
2.37
2.17
1.62
0.85
0.05
-0.56
-0.93
-1.17
-1.38
-1.63
-1.88
-2.0
-1.87
-1.5
-1.03
-0.68
-0.69
-1.11
-1.9
-2.89
-3.9
-4.82
-5.71
-6.71
-7.89
-9.23
-10.58
-11.76
-12.63
-13.22
-13.65
-14.04
-14.45
-14.82
-15.1
-15.32
-15.7
-16.5
-17.89
-19.76
-21.68
-22.99
-23.05
-21.42
-17.96
-12.95
-7.02
-0.95
4.46
8.71
11.65
13.47
14.51
15.06
15.24
15.02
14.39
13.45
12.47
11.7
11.25
11.01
10.64
9.82
8.33
6.19
3.61
0.84
-1.87
-4.48
-7.06
-9.85
-13.08
-16.78
-20.68
-24.16
-26.33
-26.41
-23.96
-19.17
-12.71
-5.52
1.49
7.69
12.69
16.37
18.71
19.81
19.9
19.28
18.38
17.54
17.02
16.92
17.15
17.52
17.75
17.57
16.77
15.33
13.39
11.27
9.32
7.83
6.8
6.05
5.22
3.97
2.12
-0.34
-3.12
-5.79
-7.77
-8.59
-7.95
-5.97
-3.06
0.15
3.07
5.29
6.69
7.29
7.16
6.38
4.98
3.09
0.95
-1.08
-2.68
-3.76
-4.48
-5.18
-6.22
-7.74
-9.67
-11.69
-13.5
-14.93
-16.05
-17.16
-18.61
-20.69
-23.52
-26.95
-30.59
-33.78
-35.68
-35.42
-32.38
-26.42
-18.07
-8.42
1.15
9.52
16.04
20.71
23.9
26.03
27.32
27.79
27.39
26.23
24.6
22.88
21.28
19.76
18.08
15.91
13.04
9.47
5.46
1.36
-2.47
-5.84
-8.84
-11.82
-15.36
-19.97
-25.79
-32.42
-38.91
-43.98
-46.35
-45.19
-40.25
-31.95
-21.23
-9.26
2.77
13.84
23.22
30.56
35.77
38.94
40.31
40.16
38.85
36.85
34.65
32.65
31.13
30.09
29.41
28.86
28.23
27.38
26.28
24.99
23.68
22.51
21.58
20.88
20.2
19.28
17.94
16.15
14.1
12.1
10.38
9.01
7.86
6.78
5.73
4.83
4.32
4.37
4.95
5.77
6.45
6.65
6.21
5.23
3.96
2.76
1.84
1.3
1.03
0.77
0.21
-0.92
-2.71
-5.02
-7.52
-9.81
-11.6
-12.83
-13.71
-14.58
-15.72
-17.2
-18.84
-20.21
-20.73
-19.8
-16.85
-11.59
-4.11
5.02
14.73
23.77
30.97
35.55
37.34
36.63
34.02
30.13
25.43
20.27
14.88
9.52
4.53
0.26
-3.05
-5.4
-7.01
-8.29
-9.62
-11.22
-13.08
-15.04
-16.93
-18.74
-20.57
-22.65
-25.11
-27.91
-30.75
-33.04
-34.06
-33.03
-29.43
-23.19
-14.87
-5.52
3.56
11.26
16.94
20.49
22.23
22.7
22.42
21.8
21.11
20.48
19.92
19.37
18.74
18.02
17.26
16.57
15.95
15.23
14.12
12.4
10.07
7.41
4.9
2.85
1.28
-0.13
-1.89
-4.34
-7.38
-10.47
-12.71
-13.24
-11.55
-7.7
-2.27
3.78
9.43
13.96
17.03
18.67
19.15
18.71
17.48
15.55
13.05
10.23
7.5
5.17
3.32
1.74
0.05
-2.06
-4.64
-7.4
-9.89
-11.71
-12.71
-12.97
-12.7
-12.1
-11.3
-10.32
-9.13
-7.76
-6.34
-5.03
-3.99
-3.22
-2.51
-1.57
-0.16
1.81
4.17
6.52
8.45
9.64
10.0
9.61
8.68
7.41
5.96
4.41
2.81
1.16
-0.62
-2.63
-4.91
-7.46
-10.13
-12.74
-15.1
-17.08
-18.65
-19.89
-20.99
-22.22
-23.91
-26.35
-29.58
-33.36
-37.11
-39.97
-41.13
-40.04
-36.69
-31.56
-25.47
-19.29
-13.68
-8.96
-5.08
-1.76
1.24
4.03
6.48
8.39
9.58
10.16
10.44
10.89
11.87
13.44
15.34
17.09
18.25
18.63
18.3
17.59
16.76
15.95
15.09
14.0
12.56
10.69
8.44
5.83
2.92
-0.13
-3.0
-5.24
-6.34
-5.93
-4.0
-0.89
2.8
6.39
9.35
11.37
12.39
12.54
11.98
10.89
9.41
7.66
5.79
3.96
2.31
0.93
-0.15
-0.93
-1.49
-1.84
-2.07
-2.2
-2.26
-2.21
-2.0
-1.52
-0.79
0.06
0.81
1.27
1.46
1.65
2.28
3.64
5.74
8.15
10.3
11.77
12.49
12.78
12.97
13.23
13.41
13.13
12.11
10.35
8.13
5.86
3.85
2.18
0.77
-0.46
-1.55
-2.46
-3.15
-3.69
-4.17
-4.72
-5.39
-6.2
-7.22
-8.55
-10.4
-12.97
-16.41
-20.62
-25.26
-29.72
-33.15
-34.72
-33.79
-30.21
-24.42
-17.39
-10.27
-4.1
0.49
3.39
4.9
5.52
5.8
6.11
6.7
7.6
8.7
9.83
10.89
11.83
12.67
13.39
13.92
14.14
14.01
13.64
13.23
12.93
12.68
12.2
11.13
9.27
6.73
3.9
1.28
-0.81
-2.28
-3.2
-3.71
-3.85
-3.63
-3.06
-2.27
-1.4
-0.62
0.06
0.61
1.06
1.28
1.14
0.52
-0.55
-1.91
-3.32
-4.56
-5.46
-5.94
-5.94
-5.45
-4.52
-3.3
-2.06
-1.08
-0.6
-0.72
-1.36
-2.29
-3.25
-3.97
-4.33
-4.37
-4.26
-4.23
-4.45
-4.91
-5.41
-5.73
-5.73
-5.48
-5.25
-5.4
-6.2
-7.78
-10.11
-13.0
-16.27
-19.75
-23.31
-26.87
-30.39
-33.83
-37.11
-40.13
-42.8
-45.13
-47.25
-49.45
-52.13
-55.68
-60.28
-65.77
-71.5
-76.4
-79.08
-78.22
-72.96
-63.28
-50.0
-34.61
-18.75
-3.86
9.11
19.61
27.43
32.55
35.15
35.73
35.02
33.76
32.53
31.43
30.19
28.38
25.66
22.03
17.72
13.15
8.6
4.16
-0.22
-4.74
-9.66
-15.27
-21.9
-29.8
-38.8
-48.06
-56.03
-60.65
-60.05
-53.27
-40.73
-24.24
-6.39
10.23
23.82
33.6
39.68
42.59
42.84
40.76
36.64
30.87
24.15
17.38
11.42
6.91
4.04
2.75
2.71
3.59
4.98
6.45
7.47
7.46
5.89
2.56
-2.31
-7.88
-12.8
-15.4
-14.13
-7.98
2.98
17.66
34.01
49.67
62.65
71.79
76.91
78.57
77.64
74.86
70.79
65.79
60.22
54.55
49.21
44.4
39.98
35.54
30.62
25.14
19.46
14.36
10.63
8.62
7.93
7.5
5.91
2.01
-4.42
-12.38
-19.7
-23.6
-21.7
-12.91
1.99
20.51
39.21
54.88
65.39
70.21
70.08
66.37
60.48
53.44
45.96
38.57
31.86
26.4
22.62
20.57
19.86
19.73
19.29
17.88
15.28
11.82
8.12
4.81
2.19
0.1
-1.91
-4.37
-7.56
-11.47
-15.83
-20.3
-24.58
-28.32
-31.14
-32.57
-32.28
-30.15
-26.48
-21.9
-17.17
-12.96
-9.75
-7.83
-7.25
-7.99
-9.88
-12.63
-15.79
-18.94
-21.71
-24.03
-26.02
-27.88
-29.75
-31.57
-33.1
-34.01
-34.13
-33.59
-32.8
-32.38
-32.93
-34.8
-37.98
-41.95
-45.79
-48.27
-48.15
-44.56
-37.31
-27.06
-15.19
-3.3
7.14
15.25
20.79
23.99
25.27
25.0
23.44
20.72
17.01
12.42
7.07
1.07
-5.41
-12.14
-18.84
-25.25
-31.28
-36.98
-42.61
-48.44
-54.66
-61.29
-68.07
-74.38
-79.21
-81.2
-78.82
-70.88
-56.99
-37.95
-15.6
7.63
29.53
48.64
64.38
76.8
86.0
91.95
94.48
93.55
89.65
83.79
77.31
71.37
66.56
62.73
59.19
55.12
49.95
43.64
36.62
29.56
23.06
17.36
12.24
7.18
1.51
-5.27
-13.43
-22.9
-33.22
-43.42
-52.0
-57.11
-57.01
-50.7
-38.48
-22.02
-3.93
13.02
26.71
36.09
41.14
42.39
40.47
35.85
28.92
20.2
10.54
1.06
-7.12
-13.18
-16.79
-18.17
-17.81
-16.3
-14.13
-11.72
-9.46
-7.76
-6.96
-7.13
-7.9
-8.43
-7.68
-4.79
0.52
7.81
16.12
24.27
31.3
36.62
40.01
41.42
40.81
38.2
33.75
27.86
21.17
14.44
8.26
2.96
-1.58
-5.78
-10.25
-15.55
-22.06
-29.75
-38.19
-46.66
-54.29
-60.46
-64.92
-68.04
-70.61
-73.66
-78.09
-84.33
-92.07
-100.11
-106.49
-108.83
-104.96
-93.67
-75.19
-51.28
-24.77
1.18
23.88
41.6
53.7
60.37
62.33
60.64
56.44
50.98
45.36
40.31
35.99
31.91
27.26
21.28
13.71
4.97
-4.04
-12.35
-19.41
-25.35
-30.96
-37.38
-45.69
-56.5
-69.6
-83.76
-96.68
-105.43
-107.2
-100.19
-84.42
-61.81
-35.73
-9.87
12.8
30.7
43.53
51.7
55.73
55.91
52.44
45.87
37.28
28.2
20.15
14.17
10.54
8.93
8.76
9.69
11.75
15.29
20.53
27.24
34.57
41.25
45.99
47.86
46.52
42.28
35.93
28.62
21.74
16.75
14.95
17.11
23.21
32.28
42.68
52.52
60.29
65.15
67.0
66.28
63.53
59.21
53.7
47.3
40.35
33.25
26.29
19.57
12.97
6.28
-0.59
-7.4
-13.69
-18.92
-22.9
-25.95
-28.98
-33.19
-39.63
-48.67
-59.72
-71.07
-80.18
-84.28
-81.15
-69.89
-51.32
-27.84
-2.77
20.67
40.18
54.77
64.57
70.33
72.89
72.97
71.18
68.19
64.75
61.45
58.54
55.76
52.48
48.02
42.06
34.83
27.03
19.55
13.08
7.84
3.48
-0.76
-5.84
-12.59
-21.3
-31.44
-41.56
-49.48
-52.78
-49.63
-39.41
-23.11
-3.04
17.81
36.58
51.28
61.04
65.94
66.71
64.26
59.53
53.37
46.61
40.06
34.36
29.88
26.64
24.25
22.15
19.87
17.17
14.23
11.41
9.14
7.64
6.84
6.4
5.84
4.75
2.89
0.29
-2.83
-6.09
-9.03
-11.19
-12.18
-11.84
-10.24
-7.73
-4.84
-2.25
-0.54
-0.17
-1.28
-3.74
-7.17
-11.1
-15.14
-19.03
-22.77
-26.49
-30.35
-34.44
-38.6
-42.48
-45.59
-47.58
-48.31
-48.09
-47.57
-47.63
-49.17
-52.76
-58.45
-65.48
-72.34
-76.97
-77.28
-71.77
-60.08
-43.17
-23.15
-2.61
16.07
31.3
42.46
49.72
53.65
54.89
54.03
51.61
48.25
44.55
40.99
37.72
34.44
30.58
25.58
19.24
11.92
4.4
-2.42
-7.88
-11.78
-14.42
-16.44
-18.62
-21.66
-25.99
-31.6
-37.84
-43.44
-46.71
-46.04
-40.51
-30.26
-16.64
-1.75
12.16
23.44
31.37
36.06
38.1
38.11
36.45
33.31
28.97
23.89
18.76
14.26
10.85
8.54
7.08
6.16
5.68
5.78
6.68
8.38
10.52
12.4
13.3
12.67
10.4
6.78
2.39
-2.05
-5.82
-8.22
-8.75
-7.22
-3.77
1.05
6.42
11.41
15.22
17.36
17.69
16.45
14.15
11.31
8.32
5.28
1.91
-2.21
-7.47
-13.89
-21.09
-28.37
-35.01
-40.57
-45.05
-48.81
-52.47
-56.68
-61.99
-68.73
-76.72
-85.1
-92.25
-96.08
-94.57
-86.57
-72.31
-53.47
-32.62
-12.42
5.11
18.91
28.8
35.09
38.27
38.88
37.6
35.31
32.94
31.24
30.51
30.48
30.51
29.88
28.08
24.98
20.79
15.91
10.76
5.59
0.48
-4.76
-10.59
-17.56
-25.99
-35.59
-45.09
-52.41
-55.16
-51.57
-41.22
-25.33
-6.35
12.83
29.87
43.42
53.24
59.67
63.23
64.26
62.92
59.41
54.09
47.53
40.32
32.98
25.83
19.07
12.89
7.46
2.98
-0.46
-2.92
-4.72
-6.36
-8.47
-11.7
-16.44
-22.52
-28.89
-33.7
-34.65
-29.78
-18.28
-0.96
19.88
41.18
60.14
75.04
85.43
91.82
95.01
95.56
93.63
89.19
82.39
73.76
64.19
54.55
45.32
36.43
27.3
17.29
6.07
-6.12
-18.55
-30.31
-40.66
-49.39
-56.79
-63.52
-70.27
-77.47
-85.11
-92.75
-99.57
-104.62
-107.01
-106.18
-102.01
-94.9
-85.6
-75.04
-64.04
-53.16
-42.73
-32.9
-23.7
-15.17
-7.34
-0.22
6.29
12.34
18.09
23.69
29.22
34.68
40.04
45.18
49.98
54.27
57.9
60.75
62.78
63.96
64.28
63.75
62.33
60.08
57.17
53.89
50.66
47.85
45.58
43.68
41.69
39.09
35.53
31.07
26.04
20.97
16.18
11.77
7.55
3.21
-1.48
-6.53
-11.79
-17.0
-21.91
-26.39
-30.41
-34.05
-37.36
-40.32
-42.72
-44.26
-44.68
-43.91
-42.18
-39.97
-37.73
-35.64
-33.59
-31.15
-27.89
-23.65
-18.58
-13.1
-7.76
-3.07
0.61
3.01
4.03
3.74
2.4
0.36
-2.07
-4.76
-7.84
-11.53
-16.03
-21.27
-26.93
-32.58
-37.81
-42.46
-46.57
-50.42
-54.39
-59.01
-64.69
-71.58
-79.1
-85.85
-89.72
-88.49
-80.63
-65.95
-45.87
-23.0
-0.39
19.35
34.61
44.97
50.88
53.3
53.25
51.63
49.2
46.54
44.12
42.19
40.79
39.72
38.62
37.14
35.13
32.67
30.07
27.65
25.62
23.99
22.53
20.94
18.9
16.18
12.73
8.75
4.69
1.25
-0.84
-1.14
0.39
3.29
6.79
10.07
12.52
13.82
13.85
12.64
10.28
7.03
3.27
-0.49
-3.85
-6.69
-9.25
-11.99
-15.31
-19.27
-23.54
-27.62
-31.01
-33.53
-35.41
-37.11
-39.23
-42.28
-46.57
-52.08
-58.35
-64.41
-68.78
-69.76
-65.88
-56.47
-42.02
-24.12
-5.1
12.67
27.41
38.23
45.14
48.71
49.69
48.8
46.61
43.55
40.02
36.31
32.52
28.5
23.97
18.64
12.5
5.86
-0.72
-6.67
-11.73
-16.08
-20.34
-25.41
-32.18
-41.13
-52.01
-63.55
-73.5
-79.14
-78.03
-68.92
-52.29
-30.25
-5.8
18.06
39.17
56.41
69.44
78.29
83.03
83.75
80.77
74.82
66.87
58.05
49.28
41.12
33.8
27.29
21.47
16.23
11.55
7.47
4.06
1.33
-0.88
-2.95
-5.41
-8.88
-13.82
-20.3
-27.8
-35.13
-40.62
-42.51
-39.52
-31.38
-19.08
-4.57
9.85
22.17
31.19
36.64
38.85
38.38
35.78
31.43
25.74
19.11
12.02
4.91
-1.87
-8.08
-13.53
-18.03
-21.43
-23.68
-24.89
-25.45
-25.95
-27.21
-30.12
-35.45
-43.39
-53.22
-63.1
-70.34
-72.14
-66.56
-53.34
-34.04
-11.55
10.87
30.54
45.91
56.51
62.59
64.67
63.35
59.34
53.54
47.08
40.96
35.8
31.55
27.59
23.08
17.4
10.49
2.88
-4.6
-11.23
-16.7
-21.31
-25.8
-31.13
-38.1
-47.05
-57.6
-68.41
-77.44
-82.26
-80.82
-72.16
-56.73
-36.41
-13.82
8.42
28.3
44.59
56.79
64.73
68.48
68.31
64.84
59.06
52.13
45.03
38.32
32.08
26.06
20.03
13.97
8.12
2.89
-1.36
-4.45
-6.52
-7.98
-9.46
-11.65
-15.17
-20.26
-26.64
-33.3
-38.67
-40.92
-38.63
-31.31
-19.7
-5.66
8.46
20.55
29.34
34.59
36.87
37.06
35.92
33.92
31.23
27.95
24.18
19.97
15.24
9.82
3.56
-3.44
-10.71
-17.58
-23.34
-27.64
-30.68
-33.17
-36.2
-40.8
-47.56
-56.3
-65.81
-73.94
-78.17
-76.28
-67.24
-51.64
-31.62
-10.09
10.17
27.38
40.93
51.1
58.44
63.26
65.62
65.49
63.19
59.49
55.34
51.5
48.17
44.89
40.85
35.4
28.44
20.57
12.75
5.88
0.31
-4.26
-8.61
-13.69
-20.15
-28.21
-37.56
-47.35
-56.29
-62.71
-65.01
-61.99
-53.37
-39.98
-23.55
-6.28
9.83
23.34
33.55
40.24
43.5
43.63
41.12
36.69
31.24
25.64
20.45
15.78
11.44
7.14
2.72
-1.69
-5.76
-9.17
-11.78
-13.79
-15.7
-18.25
-22.16
-27.99
-35.72
-44.52
-52.67
-57.78
-57.47
-50.28
-36.31
-17.38
3.47
22.96
38.54
48.94
54.19
55.2
53.18
49.26
44.23
38.59
32.58
26.24
19.45
12.08
4.11
-4.25
-12.57
-20.34
-27.12
-32.7
-37.19
-41.02
-44.94
-49.88
-56.68
-65.59
-75.79
-85.21
-90.82
-89.57
-79.51
-60.7
-35.27
-6.78
21.07
45.43
64.88
79.19
88.77
94.16
95.84
94.33
90.46
85.37
80.2
75.72
72.11
68.88
65.28
60.65
54.85
48.19
41.36
35.03
29.56
24.92
20.63
16.0
10.32
3.06
-5.85
-15.81
-25.48
-32.97
-36.27
-33.98
-25.79
-12.76
3.05
19.19
33.63
45.2
53.6
59.07
61.89
62.24
60.29
56.43
51.46
46.48
42.5
40.05
38.99
38.58
37.94
36.38
33.66
29.98
25.82
21.83
18.63
16.83
16.9
19.03
22.99
28.08
33.33
37.69
40.45
41.26
40.23
37.68
34.06
29.75
25.08
20.33
15.7
11.38
7.48
4.08
1.15
-1.38
-3.66
-5.87
-8.16
-10.59
-13.1
-15.58
-17.87
-19.96
-21.93
-23.91
-26.07
-28.44
-30.95
-33.43
-35.69
-37.54
-38.92
-39.87
-40.57
-41.21
-41.9
-42.66
-43.33
-43.71
-43.62
-43.04
-42.05
-40.77
-39.28
-37.49
-35.28
-32.55
-29.35
-25.86
-22.37
-19.15
-16.34
-13.96
-11.91
-10.06
-8.34
-6.78
-5.52
-4.73
-4.52
-4.81
-5.37
-5.89
-6.09
-5.86
-5.3
-4.59
-3.92
-3.35
-2.83
-2.32
-1.82
-1.42
-1.29
-1.58
-2.32
-3.45
-4.84
-6.29
-7.64
-8.81
-9.79
-10.63
-11.45
-12.29
-13.17
-14.05
-14.82
-15.37
-15.65
-15.65
-15.37
-14.88
-14.29
-13.76
-13.42
-13.34
-13.42
-13.5
-13.34
-12.77
-11.78
-10.44
-8.9
-7.29
-5.76
-4.43
-3.44
-2.88
-2.72
-2.8
-2.82
-2.54
-1.85
-0.87
0.17
0.96
1.32
1.25
0.86
0.38
-0.01
-0.24
-0.39
-0.62
-1.14
-2.07
-3.35
-4.84
-6.33
-7.72
-8.96
-10.09
-11.03
-11.67
-11.88
-11.66
-11.25
-11.02
-11.35
-12.35
-13.89
-15.6
-17.16
-18.43
-19.46
-20.44
-21.49
-22.6
-23.55
-24.03
-23.78
-22.69
-20.81
-18.38
-15.73
-13.13
-10.73
-8.54
-6.44
-4.33
-2.15
0.04
2.15
4.02
5.55
6.64
7.21
7.25
6.83
6.12
5.38
4.78
4.35
3.97
3.36
2.3
0.65
-1.52
-4.07
-6.84
-9.66
-12.46
-15.22
-17.92
-20.62
-23.33
-26.04
-28.7
-31.22
-33.52
-35.65
-37.74
-40.07
-42.88
-46.19
-49.75
-53.01
-55.19
-55.52
-53.34
-48.38
-40.81
-31.25
-20.63
-10.03
-0.39
7.66
13.84
18.22
21.04
22.7
23.57
23.99
24.13
24.05
23.7
23.0
21.99
20.77
19.48
18.12
16.56
14.49
11.65
7.85
3.13
-2.36
-8.3
-14.17
-19.22
-22.49
-23.04
-20.29
-14.37
-6.14
3.01
11.7
18.85
23.97
27.01
28.16
27.71
25.91
23.1
19.66
16.0
12.43
9.13
6.07
3.13
0.13
-3.08
-6.52
-10.09
-13.57
-16.71
-19.36
-21.56
-23.46
-25.17
-26.51
-26.97
-25.82
-22.42
-16.55
-8.68
0.22
8.94
16.42
22.07
25.82
27.94
28.84
28.85
28.07
26.45
23.88
20.3
15.79
10.61
5.09
-0.4
-5.61
-10.44
-14.91
-19.17
-23.41
-27.9
-32.93
-38.76
-45.38
-52.27
-58.21
-61.45
-60.18
-53.24
-40.62
-23.69
-4.77
13.52
29.07
40.7
48.24
52.16
53.18
51.91
48.89
44.59
39.61
34.68
30.47
27.4
25.39
23.98
22.49
20.41
17.65
14.58
11.75
9.51
7.77
5.95
3.26
-0.85
-6.41
-12.73
-18.57
-22.5
-23.37
-20.7
-14.91
-7.21
0.78
7.49
11.88
13.69
13.27
11.31
8.41
4.92
0.92
-3.61
-8.59
-13.84
-19.08
-24.08
-28.71
-32.94
-36.83
-40.47
-44.04
-47.83
-52.28
-57.91
-64.99
-73.15
-81.15
-86.83
-87.7
-81.74
-68.27
-48.44
-25.04
-1.58
18.78
34.15
44.15
49.59
51.76
51.82
50.54
48.3
45.32
41.74
37.56
32.68
26.97
20.4
13.2
5.85
-1.11
-7.38
-13.06
-18.71
-25.19
-33.4
-43.84
-56.28
-69.35
-80.55
-86.7
-84.9
-73.6
-53.42
-27.1
1.27
27.65
49.2
64.76
74.61
79.77
81.32
80.12
76.81
71.9
65.91
59.19
51.92
44.14
35.88
27.35
18.97
11.25
4.61
-0.71
-4.83
-8.22
-11.72
-16.4
-23.17
-32.14
-42.09
-50.45
-53.89
-49.59
-36.48
-15.82
9.09
34.12
55.59
71.33
80.81
84.76
84.43
81.1
75.8
69.32
62.21
54.79
47.07
38.83
29.83
20.03
9.8
-0.15
-9.0
-16.14
-21.45
-25.41
-29.0
-33.37
-39.53
-47.91
-57.99
-68.12
-75.69
-77.7
-71.65
-56.55
-33.39
-5.07
24.5
51.52
73.26
88.56
97.58
101.21
100.64
96.96
91.11
84.03
76.49
69.05
61.86
54.68
47.07
38.78
29.95
21.13
13.13
6.55
1.57
-2.23
-5.73
-10.04
-16.15
-24.61
-35.2
-46.69
-56.89
-63.12
-62.97
-55.24
-40.53
-21.24
-0.82
17.32
30.82
38.82
41.82
41.01
37.57
32.28
25.52
17.59
8.95
0.32
-7.49
-13.86
-18.65
-22.1
-24.77
-27.14
-29.54
-32.15
-35.18
-39.03
-44.35
-51.78
-61.47
-72.6
-83.11
-90.07
-90.41
-82.03
-64.6
-39.88
-11.2
17.53
42.95
63.0
76.98
85.22
88.44
87.48
83.17
76.46
68.42
60.01
51.75
43.55
34.83
24.95
13.78
1.92
-9.52
-19.4
-27.18
-33.14
-38.37
-44.34
-52.37
-63.21
-76.59
-91.04
-103.87
-111.64
-111.14
-100.44
-79.82
-51.85
-20.57
9.72
35.8
56.06
70.32
79.22
83.53
83.82
80.58
74.48
66.48
57.71
49.18
41.47
34.69
28.54
22.68
16.93
11.45
6.66
2.97
0.41
-1.48
-3.65
-7.24
-13.21
-21.91
-32.79
-44.33
-54.17
-59.66
-58.57
-49.94
-34.56
-14.94
5.52
23.62
37.31
46.06
50.46
51.5
49.9
45.99
39.91
32.05
23.06
13.73
4.61
-4.15
-12.69
-21.07
-29.04
-35.96
-41.06
-43.79
-44.18
-42.87
-41.09
-40.45
-42.57
-48.68
-58.95
-72.05
-85.08
-94.09
-95.28
-86.3
-67.16
-40.21
-9.39
21.14
48.15
69.84
85.72
96.01
101.08
101.33
97.28
89.89
80.67
71.32
63.23
57.03
52.42
48.37
43.73
37.74
30.43
22.61
15.42
9.77
5.94
3.43
1.22
-1.88
-6.85
-14.2
-23.85
-34.96
-45.94
-54.44
-58.01
-54.69
-43.92
-26.81
-5.99
15.3
34.18
48.83
58.69
63.98
65.26
63.02
57.79
50.2
41.25
32.07
23.59
16.16
9.49
2.87
-4.33
-12.29
-20.51
-28.06
-33.96
-37.66
-39.32
-39.76
-40.16
-41.7
-45.18
-50.74
-57.63
-64.21
-68.24
-67.41
-60.18
-46.43
-27.65
-6.55
13.82
31.04
43.83
52.01
56.11
56.81
54.74
50.5
44.79
38.49
32.42
26.97
22.0
16.9
10.94
3.68
-4.77
-13.77
-22.43
-30.04
-36.37
-41.83
-47.39
-54.29
-63.58
-75.49
-88.98
-101.65
-110.08
-110.79
-101.41
-81.66
-53.6
-21.07
11.46
40.25
63.06
79.32
89.52
94.55
95.11
91.74
85.18
76.57
67.43
59.24
52.79
47.9
43.55
38.5
32.01
24.29
16.35
9.49
4.62
1.74
-0.0
-1.89
-5.2
-10.77
-18.81
-28.81
-39.47
-48.78
-54.37
-54.06
-46.68
-32.62
-13.88
6.52
25.45
40.64
51.04
56.68
58.13
56.08
51.1
43.82
35.07
25.85
17.08
9.31
2.52
-3.72
-9.93
-16.36
-22.82
-28.78
-33.73
-37.52
-40.61
-43.98
-48.89
-56.42
-66.93
-79.58
-92.21
-101.6
-104.27
-97.69
-81.2
-56.49
-27.15
2.47
28.55
48.69
62.14
69.37
71.45
69.6
65.04
59.07
52.98
47.84
44.12
41.48
38.9
35.06
28.97
20.39
9.96
-0.98
-11.0
-19.12
-25.26
-30.36
-36.12
-44.41
-56.46
-72.15
-89.62
-105.42
-115.37
-115.78
-104.65
-82.41
-51.79
-17.0
17.48
48.13
72.83
90.88
102.46
108.12
108.45
104.15
96.19
85.84
74.6
63.79
54.25
46.13
39.05
32.37
25.68
19.0
12.79
7.65
3.91
1.38
-0.73
-3.55
-8.24
-15.6
-25.79
-38.05
-50.63
-60.98
-66.26
-64.25
-54.07
-36.74
-14.84
8.23
29.28
46.23
58.3
65.69
68.99
68.67
65.05
58.43
49.46
39.14
28.72
19.25
11.35
5.11
0.29
-3.37
-5.85
-6.87
-6.06
-3.3
0.99
5.82
9.83
11.58
10.01
4.78
-3.47
-12.9
-20.8
-24.13
-20.52
-9.1
8.95
30.74
52.54
70.97
83.96
90.95
92.65
90.29
85.05
77.8
69.13
59.59
49.82
40.5
32.22
25.18
19.18
13.63
7.8
1.18
-6.25
-14.0
-21.3
-27.5
-32.4
-36.4
-40.26
-44.82
-50.62
-57.77
-65.95
-74.42
-82.05
-87.44
-89.09
-85.85
-77.33
-64.19
-48.06
-31.02
-15.03
-1.45
9.04
16.29
20.4
21.57
20.11
16.54
11.6
6.21
1.17
-2.97
-6.11
-8.48
-10.49
-12.53
-14.77
-17.17
-19.53
-21.6
-23.31
-24.8
-26.45
-28.69
-31.83
-35.85
-40.34
-44.43
-46.98
-46.85
-43.29
-36.21
-26.32
-15.01
-3.88
5.63
12.61
16.74
18.18
17.35
14.76
10.92
6.35
1.47
-3.4
-8.19
-13.07
-18.33
-24.15
-30.51
-37.11
-43.53
-49.37
-54.44
-58.87
-63.13
-67.99
-74.25
-82.4
-92.14
-102.05
-109.63
-111.92
-106.45
-92.28
-70.49
-43.93
-16.32
8.88
29.33
44.12
53.38
57.78
58.14
55.3
50.21
44.01
37.91
32.9
29.41
27.15
25.37
23.13
19.91
15.75
11.24
7.2
4.18
2.22
0.77
-1.07
-4.25
-9.58
-17.41
-27.46
-38.54
-48.49
-54.55
-54.14
-45.82
-30.07
-9.34
12.72
32.47
47.4
56.62
60.6
60.47
57.35
52.09
45.31
37.65
29.78
22.29
15.46
9.18
3.17
-2.85
-8.9
-14.79
-20.23
-25.17
-29.84
-34.85
-40.98
-48.96
-59.12
-71.02
-83.08
-92.62
-96.43
-91.7
-77.18
-53.84
-24.76
5.75
33.51
55.52
70.52
78.76
81.35
79.71
75.18
68.96
62.09
55.33
49.02
42.99
36.72
29.69
21.67
12.86
3.78
-4.98
-13.07
-20.54
-27.8
-35.58
-44.79
-56.21
-70.09
-85.58
-100.34
-110.82
-113.17
-104.65
-84.91
-56.36
-23.46
8.83
36.58
57.78
72.23
80.74
84.31
83.57
79.06
71.42
61.67
51.06
40.61
30.87
21.84
13.27
4.96
-2.94
-10.01
-15.75
-19.96
-22.92
-25.55
-29.18
-35.23
-44.67
-57.29
-71.27
-83.2
-88.9
-84.72
-68.98
-42.84
-9.98
24.49
55.67
80.2
96.76
105.73
108.39
106.14
100.14
91.42
80.96
69.79
58.73
48.15
37.88
27.39
16.22
4.29
-7.88
-19.48
-29.77
-38.54
-46.32
-54.26
-63.78
-76.04
-91.3
-108.38
-124.43
-135.46
-137.3
-127.16
-104.71
-72.53
-35.29
1.76
34.41
60.4
79.38
92.1
99.47
102.16
100.68
95.84
89.0
81.92
76.23
72.78
71.43
71.09
70.31
67.93
63.57
57.68
51.25
45.27
40.17
35.64
30.68
24.06
14.74
2.3
-12.75
-28.82
-43.41
-53.56
-56.66
-51.35
-38.11
-19.31
1.56
20.93
36.24
46.36
51.39
52.06
49.12
43.2
34.92
25.2
15.26
6.3
-0.93
-6.4
-10.67
-14.5
-18.33
-22.11
-25.4
-27.78
-29.25
-30.45
-32.48
-36.66
-44.08
-55.18
-69.21
-84.08
-96.45
-102.42
-98.68
-83.71
-58.51
-26.41
7.88
39.8
66.06
85.18
97.26
103.17
104.03
100.86
94.66
86.54
77.67
69.01
61.0
53.4
45.54
36.68
26.53
15.38
4.08
-6.4
-15.42
-23.01
-29.99
-37.76
-47.88
-61.58
-79.02
-98.72
-117.48
-130.79
-134.18
-124.74
-102.37
-70.0
-32.67
4.11
36.15
61.3
79.36
91.19
97.71
99.45
96.72
90.13
80.85
70.56
60.86
52.7
46.13
40.36
34.41
27.63
20.14
12.66
6.21
1.41
-1.87
-4.56
-8.14
-14.12
-23.44
-35.94
-50.19
-63.42
-72.2
-73.32
-64.94
-47.36
-23.06
3.99
29.64
50.68
65.5
73.9
76.52
74.21
67.76
57.98
45.9
32.8
19.92
8.13
-2.3
-11.58
-20.12
-28.14
-35.6
-42.2
-47.67
-52.0
-55.56
-59.13
-63.85
-71.03
-81.81
-96.57
-114.28
-132.04
-145.43
-149.56
-140.82
-118.28
-84.3
-43.85
-2.74
34.19
64.32
87.21
103.77
115.02
121.47
123.12
120.12
113.36
104.57
95.84
88.78
83.85
80.27
76.48
70.98
63.11
53.34
43.0
33.56
25.87
19.81
14.3
7.9
-0.74
-12.41
-27.24
-44.58
-62.96
-80.06
-92.85
-98.39
-94.66
-81.53
-60.96
-36.52
-12.13
9.08
25.4
36.39
42.29
43.42
39.98
32.39
21.69
9.61
-1.73
-10.48
-15.63
-17.32
-16.51
-14.57
-12.65
-11.35
-10.66
-10.25
-9.86
-9.61
-10.18
-12.66
-18.2
-27.49
-40.2
-54.62
-67.65
-75.46
-74.53
-62.95
-41.2
-12.21
19.6
49.69
74.78
93.37
105.55
112.17
114.08
111.81
105.78
96.7
85.84
74.73
64.63
55.99
48.26
40.29
30.91
19.74
7.39
-4.68
-14.8
-21.87
-25.82
-27.71
-29.29
-32.44
-38.52
-47.82
-59.26
-70.32
-77.36
-76.55
-65.15
-42.66
-11.48
23.6
56.81
83.16
99.87
106.7
105.27
97.9
86.66
73.0
58.02
42.87
28.89
17.36
9.09
3.99
1.1
-1.02
-3.79
-8.07
-13.9
-20.63
-27.16
-32.47
-35.98
-37.78
-38.6
-39.51
-41.58
-45.58
-51.83
-60.08
-69.41
-78.13
-84.03
-84.76
-78.67
-65.46
-46.55
-24.67
-2.99
15.92
30.67
41.04
47.46
50.43
50.25
47.09
41.39
33.98
26.01
18.59
12.46
7.77
4.16
1.06
-2.03
-5.22
-8.24
-10.51
-11.45
-10.89
-9.24
-7.49
-6.77
-7.87
-10.85
-14.93
-18.88
-21.39
-21.63
-19.33
-14.86
-8.91
-2.25
4.49
10.92
16.75
21.76
25.65
28.09
28.85
27.9
25.57
22.37
18.88
15.54
12.5
9.62
6.59
3.12
-0.95
-5.62
-10.73
-16.04
-21.33
-26.49
-31.59
-36.94
-42.93
-49.94
-58.01
-66.76
-75.26
-82.1
-85.63
-84.37
-77.52
-65.31
-49.12
-31.17
-13.93
0.52
10.95
17.12
19.55
19.11
16.72
13.19
9.17
5.21
1.72
-1.13
-3.53
-5.9
-8.8
-12.58
-17.32
-22.73
-28.39
-33.93
-39.3
-44.78
-50.95
-58.42
-67.62
-78.36
-89.48
-98.84
-103.65
-101.29
-90.43
-71.66
-47.59
-22.05
1.1
19.14
30.97
36.97
38.25
36.08
31.42
24.97
17.29
8.99
0.62
-7.37
-14.7
-21.24
-26.94
-31.77
-35.76
-39.1
-42.15
-45.54
-50.17
-57.07
-67.11
-80.56
-96.43
-112.13
-123.7
-126.69
-117.61
-95.35
-61.68
-20.91
21.55
60.7
93.13
117.29
133.01
140.92
141.86
136.93
127.6
115.77
103.47
92.34
83.04
75.09
67.21
57.97
46.63
33.46
19.66
6.75
-4.23
-13.16
-21.01
-29.45
-40.26
-54.78
-73.33
-94.77
-116.27
-133.5
-141.61
-136.71
-117.41
-85.67
-46.34
-5.6
31.06
60.33
81.29
94.73
101.95
103.97
101.46
95.14
86.21
76.38
67.38
60.37
55.61
52.49
50.06
47.51
44.54
41.47
38.9
37.3
36.65
36.25
34.95
31.55
25.33
16.4
5.86
-4.41
-12.15
-15.25
-12.43
-3.57
10.07
26.25
42.33
56.08
66.11
72.03
74.11
72.84
68.7
62.16
53.88
44.8
35.98
28.24
21.78
16.13
10.42
3.97
-3.44
-11.33
-18.91
-25.37
-30.34
-34.01
-37.14
-40.9
-46.5
-54.86
-66.04
-78.72
-90.14
-96.52
-94.26
-81.21
-57.71
-26.67
7.3
39.41
66.04
85.42
97.4
102.77
102.49
97.38
88.29
76.38
63.26
50.65
39.87
31.34
24.49
18.21
11.43
3.74
-4.5
-12.39
-19.05
-24.15
-28.15
-32.09
-37.28
-44.79
-55.1
-67.76
-81.21
-92.88
-99.65
-98.71
-88.63
-70.07
-45.82
-19.95
3.43
21.49
33.1
38.73
39.66
37.26
32.57
26.38
19.37
12.22
5.56
-0.28
-5.31
-9.78
-14.0
-18.08
-21.95
-25.41
-28.38
-31.02
-33.79
-37.41
-42.68
-50.2
-59.96
-70.88
-80.64
-85.97
-83.58
-71.34
-49.35
-20.11
12.12
42.8
68.44
87.43
99.96
107.23
110.49
110.6
108.03
103.26
97.03
90.38
84.31
79.31
75.2
71.25
66.56
60.52
53.07
44.62
35.77
26.96
18.21
9.02
-1.44
-14.01
-29.16
-46.46
-64.39
-80.4
-91.48
-95.07
-90.04
-77.23
-59.27
-39.67
-21.7
-7.4
2.65
8.92
12.23
13.06
11.57
7.78
2.05
-4.72
-11.34
-16.76
-20.51
-22.77
-24.21
-25.45
-26.78
-28.02
-28.76
-28.75
-28.23
-28.04
-29.41
-33.57
-41.14
-51.71
-63.49
-73.53
-78.38
-75.21
-62.83
-42.38
-17.07
8.77
31.07
47.17
56.25
59.07
57.19
52.24
45.41
37.45
28.72
19.46
9.8
-0.17
-10.33
-20.45
-30.14
-38.94
-46.44
-52.52
-57.49
-62.11
-67.53
-75.0
-85.46
-98.98
-114.22
-128.31
-137.34
-137.4
-125.96
-102.85
-70.54
-33.38
3.64
36.4
62.38
80.83
92.24
97.71
98.42
95.53
90.25
83.9
77.72
72.64
68.87
65.89
62.65
58.13
51.88
44.26
36.22
28.81
22.52
17.06
11.42
4.27
-5.55
-18.63
-34.76
-52.6
-69.71
-82.73
-88.21
-83.73
-68.95
-46.03
-19.1
7.1
28.77
43.96
52.6
55.81
54.96
51.07
44.78
36.61
27.27
17.61
8.47
0.42
-6.29
-11.68
-15.88
-19.05
-21.34
-23.04
-24.64
-27.01
-31.22
-38.43
-49.41
-63.92
-80.24
-94.99
-103.83
-102.66
-89.08
-63.39
-28.71
10.0
47.5
79.68
104.38
121.25
131.05
134.87
133.68
128.39
120.05
110.01
99.67
90.1
81.56
73.46
64.68
54.26
41.96
28.49
15.19
3.34
-6.48
-14.73
-22.8
-32.48
-45.37
-62.17
-82.22
-103.21
-121.47
-132.7
-133.23
-121.33
-97.96
-66.57
-31.95
1.21
29.58
51.61
67.19
76.88
81.31
80.98
76.46
68.66
58.85
48.46
38.62
29.92
22.43
15.91
10.2
5.46
2.12
0.63
0.98
2.5
3.75
3.01
-1.31
-10.11
-23.28
-39.48
-56.14
-69.77
-76.61
-73.69
-59.96
-36.86
-8.13
21.33
47.05
66.17
77.92
83.03
82.8
78.37
70.46
59.73
47.12
33.9
21.37
10.38
1.06
-7.03
-14.4
-21.27
-27.34
-32.03
-34.91
-36.11
-36.48
-37.5
-40.92
-48.34
-60.58
-77.08
-95.54
-111.96
-121.49
-119.81
-104.64
-76.74
-39.82
0.59
38.92
71.11
95.23
111.18
119.86
122.3
119.38
112.08
101.8
90.44
79.9
71.46
65.12
59.7
53.32
44.44
32.63
18.69
4.3
-8.86
-19.84
-28.79
-36.84
-45.69
-57.0
-71.89
-90.35
-110.86
-130.25
-144.17
-148.2
-139.35
-117.31
-84.75
-46.48
-7.85
26.93
55.6
77.74
93.8
104.25
109.15
108.44
102.52
92.65
80.8
69.02
58.76
50.41
43.49
37.14
30.85
24.79
19.77
16.74
16.22
17.86
20.45
22.24
21.46
16.82
7.91
-4.49
-18.26
-30.24
-36.9
-35.43
-24.86
-6.49
16.41
39.71
59.82
74.57
83.39
86.78
85.54
80.37
71.82
60.67
48.09
35.47
23.97
14.02
5.18
-3.48
-12.84
-23.1
-33.65
-43.29
-50.8
-55.61
-58.02
-59.24
-60.94
-64.78
-71.89
-82.34
-94.86
-106.74
-114.28
-113.7
-102.36
-79.86
-48.29
-11.8
24.65
56.72
81.63
98.32
107.11
108.96
104.99
96.4
84.55
71.13
57.93
46.48
37.6
31.14
26.16
21.41
15.94
9.52
2.65
-3.76
-8.96
-12.86
-16.11
-19.92
-25.71
-34.52
-46.62
-61.03
-75.47
-86.71
-91.28
-86.76
-72.64
-50.77
-24.84
0.81
22.52
38.24
47.66
51.64
51.43
48.07
42.28
34.67
25.98
17.18
9.3
3.11
-1.04
-3.38
-4.51
-5.24
-6.2
-7.86
-10.42
-14.08
-19.09
-25.79
-34.35
-44.31
-54.37
-62.37
-65.87
-62.92
-52.89
-36.8
-17.01
3.41
21.61
35.56
44.27
47.6
45.97
40.11
30.91
19.46
6.89
-5.83
-18.08
-29.7
-40.93
-52.09
-63.19
-73.79
-83.08
-90.26
-94.92
-97.35
-98.52
-99.75
-102.42
-107.71
-116.31
-128.13
-141.81
-154.52
-162.27
-160.95
-147.73
-122.39
-87.62
-48.25
-9.54
24.38
51.47
71.58
85.65
94.68
99.38
100.27
98.09
94.09
89.75
86.37
84.52
83.88
83.46
82.14
79.19
74.53
68.62
62.17
55.6
48.77
41.0
31.25
18.73
3.45
-13.27
-28.78
-39.59
-42.5
-35.74
-19.87
2.18
26.07
47.41
63.06
71.85
74.35
72.09
66.69
59.37
50.82
41.49
31.67
21.62
11.48
1.25
-9.03
-19.16
-28.75
-37.25
-44.27
-49.76
-54.19
-58.45
-63.76
-71.37
-82.14
-96.0
-111.31
-124.74
-131.83
-128.37
-112.03
-83.51
-46.69
-7.4
28.49
56.83
76.01
86.66
90.55
89.6
85.31
78.69
70.62
61.97
53.51
45.7
38.49
31.47
24.08
16.02
7.38
-1.37
-9.65
-17.15
-24.05
-31.14
-39.7
-51.19
-66.54
-85.41
-105.61
-123.16
-133.29
-131.99
-117.66
-91.98
-59.48
-26.07
2.96
24.38
37.55
43.71
44.86
42.76
38.51
32.68
25.76
18.45
11.62
6.1
2.34
0.32
-0.47
-0.77
-1.29
-2.63
-5.22
-9.6
-16.5
-26.75
-40.77
-57.79
-75.23
-88.75
-93.25
-84.59
-61.36
-25.7
17.2
60.82
99.44
129.64
150.63
163.42
169.63
170.62
167.22
160.15
150.4
139.33
128.25
118.06
108.98
100.76
93.04
85.78
79.27
73.94
69.94
66.96
64.15
60.32
54.25
45.17
33.36
20.4
9.21
3.34
5.71
17.41
37.01
60.81
84.09
102.64
113.96
117.46
113.92
104.7
91.06
74.07
54.89
34.97
15.95
-0.81
-14.65
-25.75
-34.97
-43.31
-51.5
-59.71
-67.63
-74.73
-80.64
-85.38
-89.42
-93.5
-98.33
-104.29
-111.13
-117.95
-123.32
-125.54
-123.12
-115.17
-101.68
-83.68
-63.03
-41.92
-22.4
-5.87
7.06
16.46
22.8
26.57
28.17
27.9
26.08
23.14
19.62
16.01
12.65
9.7
7.15
4.9
2.76
0.41
-2.68
-7.17
-13.76
-23.03
-35.23
-50.26
-67.46
-85.49
-102.23
-115.03
-121.23
-119.08
-108.52
-91.48
-71.38
-52.03
-36.38
-25.73
-19.69
-16.86
-15.64
-14.95
-14.41
-14.14
-14.43
-15.45
-17.18
-19.36
-21.65
-23.72
-25.42
-26.81
-28.17
-29.95
-32.68
-36.92
-43.19
-51.95
-63.13
-75.68
-87.28
-94.55
-94.03
-83.53
-63.26
-36.03
-6.49
20.44
41.13
54.12
59.98
60.49
57.6
52.78
46.82
40.06
32.74
25.23
17.94
11.35
5.78
1.37
-1.97
-4.55
-6.86
-9.47
-13.04
-18.35
-26.23
-37.46
-52.16
-69.21
-85.75
-97.41
-99.46
-88.49
-63.93
-28.68
11.66
50.65
82.97
105.75
118.72
123.38
121.81
115.88
107.06
96.59
85.63
75.09
65.34
55.99
46.09
34.69
21.47
7.05
-7.25
-19.97
-30.25
-38.33
-45.51
-53.87
-65.61
-82.17
-103.45
-127.13
-148.67
-162.16
-162.01
-144.92
-111.39
-65.75
-14.96
33.66
74.5
104.78
124.37
134.72
137.61
134.5
126.5
114.79
101.03
87.15
74.9
65.26
58.15
52.64
47.53
42.03
36.11
30.37
25.63
22.26
19.79
16.98
12.14
3.7
-9.17
-26.13
-45.26
-63.14
-75.41
-77.95
-68.34
-46.93
-16.98
16.23
47.24
72.02
88.91
98.31
101.67
100.39
95.29
86.78
75.43
62.35
49.12
37.22
27.54
20.08
14.17
8.97
3.93
-0.95
-5.29
-8.69
-11.15
-13.33
-16.54
-22.46
-32.53
-47.2
-65.24
-83.39
-96.86
-100.53
-90.67
-66.38
-30.12
13.04
57.11
96.98
129.66
154.41
171.96
183.53
190.07
192.21
190.6
186.28
180.7
175.4
171.42
168.88
166.93
164.0
158.45
149.12
135.67
118.63
99.18
78.74
58.63
39.81
22.85
7.95
-4.93
-15.93
-25.24
-33.0
-39.39
-44.62
-49.04
-53.0
-56.82
-60.54
-63.95
-66.6
-68.08
-68.2
-67.16
-65.46
-63.71
-62.36
-61.49
-60.89
-60.18
-59.04
-57.35
-55.21
-52.82
-50.39
-47.98
-45.54
-42.96
-40.23
-37.45
-34.86
-32.67
-31.01
-29.81
-28.91
-28.06
-27.05
-25.84
-24.51
-23.23
-22.22
-21.65
-21.55
-21.9
-22.57
-23.41
-24.31
-25.21
-26.1
-26.96
-27.74
-28.39
-28.84
-29.11
-29.24
-29.31
-29.39
-29.46
-29.5
-29.43
-29.22
-28.89
-28.53
-28.28
-28.34
-28.89
-29.98
-31.53
-33.28
-34.87
-35.97
-36.39
-36.16
-35.48
-34.6
-33.69
-32.78
-31.76
-30.48
-28.88
-26.94
-24.74
-22.37
-19.93
-17.53
-15.3
-13.42
-12.0
-11.06
-10.42
-9.8
-8.88
-7.42
-5.46
-3.25
-1.24
0.12
0.52
-0.07
-1.4
-3.05
-4.58
-5.67
-6.16
-6.1
-5.64
-4.97
-4.28
-3.68
-3.23
-2.9
-2.6
-2.23
-1.7
-1.06
-0.48
-0.2
-0.38
-1.07
-2.18
-3.48
-4.75
-5.83
-6.68
-7.31
-7.79
-8.17
-8.51
-8.82
-9.15
-9.51
-9.88
-10.24
-10.6
-10.98
-11.41
-11.89
-12.28
-12.36
-11.94
-11.0
-9.7
-8.28
-6.95
-5.76
-4.57
-3.23
-1.69
-0.11
1.22
2.01
2.11
1.52
0.41
-1.01
-2.52
-3.88
-4.84
-5.26
-5.1
-4.49
-3.7
-2.97
-2.48
-2.22
-2.04
-1.79
-1.35
-0.67
0.21
1.18
2.09
2.75
2.97
2.69
1.9
0.76
-0.49
-1.65
-2.57
-3.21
-3.64
-4.0
-4.46
-5.21
-6.33
-7.83
-9.54
-11.23
-12.67
-13.69
-14.28
-14.49
-14.41
-14.08
-13.5
-12.66
-11.61
-10.5
-9.54
-8.87
-8.5
-8.32
-8.15
-7.81
-7.22
-6.41
-5.49
-4.67
-4.11
-3.91
-4.0
-4.2
-4.28
-4.06
-3.52
-2.87
-2.36
-2.22
-2.48
-3.04
-3.74
-4.5
-5.38
-6.49
-7.89
-9.54
-11.33
-13.17
-15.07
-17.1
-19.34
-21.77
-24.31
-26.8
-29.19
-31.45
-33.72
-36.19
-39.07
-42.51
-46.49
-50.72
-54.64
-57.55
-58.71
-57.61
-54.1
-48.47
-41.37
-33.72
-26.48
-20.48
-16.21
-13.68
-12.47
-11.88
-11.24
-10.14
-8.57
-6.84
-5.39
-4.61
-4.72
-5.74
-7.57
-9.94
-12.59
-15.33
-18.12
-21.17
-24.87
-29.7
-35.91
-43.24
-50.7
-56.48
-58.33
-54.12
-42.6
-24.01
-0.23
25.62
50.03
70.15
84.36
92.42
95.03
93.25
88.09
80.53
71.55
62.24
53.61
46.34
40.56
35.84
31.53
27.05
22.2
17.11
12.1
7.39
3.12
-0.85
-4.71
-8.72
-12.98
-17.35
-21.32
-24.04
-24.56
-22.19
-16.8
-9.0
-0.0
8.71
15.75
20.11
21.35
19.58
15.34
9.49
2.86
-3.87
-10.48
-17.21
-24.54
-32.92
-42.45
-52.75
-63.04
-72.49
-80.48
-86.98
-92.59
-98.45
-106.04
-116.74
-131.33
-149.39
-168.83
-185.87
-195.85
-194.41
-179.06
-150.16
-111.01
-66.88
-23.37
15.06
46.03
69.12
85.27
95.9
102.31
105.55
106.49
105.9
104.46
102.57
100.29
97.38
93.47
88.4
82.31
75.7
69.16
63.17
57.79
52.62
46.78
39.17
28.8
15.4
-0.16
-15.54
-27.4
-32.31
-28.07
-14.76
5.13
27.46
47.89
63.26
72.35
75.66
74.65
70.82
65.18
58.1
49.66
40.03
29.6
19.11
9.39
1.14
-5.29
-10.07
-13.78
-17.23
-21.24
-26.53
-33.74
-43.59
-56.64
-72.75
-90.43
-106.51
-116.59
-116.3
-102.95
-76.67
-40.58
0.19
40.13
74.84
101.76
120.16
130.52
133.98
131.94
125.93
117.46
107.85
97.89
87.76
77.16
65.68
53.19
40.01
26.88
14.58
3.53
-6.47
-16.27
-27.18
-40.58
-57.39
-77.41
-98.82
-118.17
-130.96
-132.93
-121.52
-97.0
-62.45
-22.84
16.7
52.35
82.35
106.68
126.14
141.43
152.77
160.13
163.78
164.69
164.47
165.02
167.85
173.66
182.08
191.73
200.49
206.11
206.74
201.57
190.94
176.17
159.04
141.11
123.41
106.46
90.55
76.08
63.66
53.9
47.01
42.55
39.5
36.57
32.73
27.52
21.16
14.31
7.72
1.85
-3.24
-7.9
-12.58
-17.6
-22.93
-28.25
-33.16
-37.43
-41.19
-44.83
-48.8
-53.29
-58.1
-62.72
-66.59
-69.43
-71.43
-73.16
-75.36
-78.55
-82.82
-87.68
-92.29
-95.66
-97.07
-96.25
-93.52
-89.71
-85.86
-82.97
-81.6
-81.63
-82.25
-82.15
-80.05
-75.17
-67.67
-58.66
-49.79
-42.7
-38.36
-36.83
-37.43
-39.14
-41.14
-43.04
-44.96
-47.31
-50.7
-55.67
-62.5
-70.84
-79.38
-85.79
-87.14
-80.92
-66.09
-43.82
-17.38
8.89
31.01
46.48
54.72
56.67
54.03
48.39
40.95
32.51
23.76
15.36
7.96
1.94
-2.67
-6.22
-9.36
-12.71
-16.83
-22.09
-28.76
-37.2
-47.84
-60.96
-76.16
-91.91
-105.29
-112.57
-110.28
-96.61
-72.36
-40.93
-7.37
23.28
47.4
63.54
72.21
75.09
74.06
70.58
65.56
59.5
52.74
45.61
38.37
31.25
24.38
17.8
11.48
5.33
-0.79
-7.07
-13.86
-21.7
-31.38
-43.66
-58.71
-75.37
-90.72
-100.46
-100.24
-87.39
-62.36
-28.91
7.05
39.48
64.26
79.98
87.62
89.33
87.07
81.98
74.44
64.56
52.65
39.42
25.75
12.5
0.24
-10.78
-20.64
-29.57
-37.93
-46.13
-54.68
-64.27
-75.8
-90.06
-107.14
-125.6
-142.06
-151.72
-149.81
-133.52
-103.46
-63.86
-21.25
17.68
48.18
68.52
79.61
83.84
83.64
80.65
75.55
68.48
59.52
49.0
37.54
25.91
14.86
4.97
-3.48
-10.51
-16.41
-21.72
-27.16
-33.65
-42.26
-53.88
-68.68
-85.43
-101.15
-111.56
-112.31
-100.55
-76.24
-42.37
-4.08
33.11
64.84
88.88
104.94
113.93
117.13
115.75
110.95
104.01
96.34
89.15
83.12
78.16
73.69
69.01
63.8
58.26
52.89
48.01
43.43
38.32
31.43
21.45
7.43
-10.74
-31.84
-53.02
-70.02
-78.1
-73.55
-55.31
-25.7
10.06
45.6
75.46
96.65
108.96
113.98
113.8
109.91
103.1
93.88
83.14
72.32
63.06
56.49
52.77
51.07
50.03
48.45
45.76
42.08
37.89
33.48
28.54
22.09
12.74
-0.74
-18.69
-40.03
-62.03
-80.65
-91.51
-91.23
-78.63
-55.23
-24.87
7.67
38.04
63.43
82.79
96.22
104.2
107.04
104.88
98.17
88.02
76.17
64.44
54.1
45.32
37.38
29.16
19.97
9.93
-0.1
-9.05
-16.28
-22.03
-27.35
-33.74
-42.64
-54.95
-70.66
-88.56
-106.06
-119.52
-125.06
-119.81
-103.15
-77.22
-46.38
-15.82
10.16
29.25
41.19
47.12
48.52
46.6
42.12
35.78
28.46
21.26
15.19
10.82
8.09
6.43
5.07
3.36
1.0
-2.07
-5.73
-10.03
-15.39
-22.56
-32.45
-45.47
-60.77
-75.82
-86.67
-89.03
-79.86
-58.79
-28.64
5.39
37.4
62.72
79.11
86.81
87.69
83.97
77.36
68.85
58.97
48.23
37.26
26.65
16.76
7.52
-1.37
-10.23
-19.11
-27.79
-35.91
-43.35
-50.44
-58.04
-67.34
-79.47
-94.7
-111.83
-127.93
-138.76
-140.0
-128.87
-105.43
-72.88
-36.62
-2.39
25.56
45.5
58.06
65.09
68.35
68.8
66.57
61.63
54.32
45.57
36.62
28.47
21.66
16.14
11.62
7.8
4.6
1.98
-0.16
-2.27
-5.21
-10.09
-17.96
-29.23
-43.0
-56.83
-66.99
-69.49
-61.59
-42.99
-16.28
13.86
42.23
64.78
79.62
86.99
88.47
85.88
80.56
73.27
64.38
54.18
43.04
31.32
19.37
7.38
-4.44
-15.87
-26.59
-36.3
-44.77
-52.02
-58.43
-64.72
-71.97
-81.33
-93.53
-108.17
-123.34
-135.56
-140.69
-135.28
-118.04
-90.61
-57.26
-23.41
6.06
28.24
42.6
50.37
53.46
53.43
51.15
46.98
41.2
34.38
27.32
20.84
15.49
11.47
8.69
6.94
5.99
5.54
5.18
4.27
1.97
-2.67
-10.55
-22.03
-36.48
-51.8
-64.54
-70.59
-66.63
-51.5
-27.04
2.34
31.07
54.32
69.35
75.87
75.4
70.1
61.82
51.78
40.69
29.15
17.82
7.37
-1.69
-9.13
-14.97
-19.34
-22.41
-24.29
-25.22
-25.67
-26.49
-28.88
-34.31
-44.05
-58.51
-76.5
-94.94
-109.26
-114.56
-107.36
-86.95
-55.87
-19.16
17.42
49.1
73.33
89.87
99.97
105.31
107.22
106.42
103.24
98.02
91.17
83.13
74.24
64.66
54.42
43.72
32.92
22.6
13.29
5.21
-1.89
-8.84
-16.9
-27.49
-41.63
-59.31
-78.9
-96.98
-108.96
-110.4
-98.7
-74.25
-40.57
-3.18
32.29
61.78
83.6
98.04
106.3
109.48
108.16
102.72
93.77
82.44
70.15
58.09
46.76
35.99
25.32
14.53
3.89
-5.87
-13.97
-20.16
-24.86
-29.19
-34.65
-42.67
-54.16
-69.1
-86.1
-102.31
-113.79
-116.47
-107.54
-86.63
-56.29
-21.33
12.73
41.31
61.99
74.6
80.44
81.17
78.11
72.01
63.43
53.14
42.22
31.82
22.7
15.01
8.37
2.22
-3.8
-9.64
-14.92
-19.35
-23.08
-26.87
-31.96
-39.69
-50.8
-65.0
-80.6
-94.66
-103.55
-103.98
-94.1
-74.25
-47.06
-16.71
12.32
36.52
54.0
64.51
68.82
68.05
63.29
55.51
45.84
35.57
25.98
17.99
11.84
7.08
2.96
-1.21
-5.61
-10.01
-13.92
-17.07
-19.65
-22.45
-26.64
-33.44
-43.57
-56.72
-71.13
-83.69
-90.56
-88.44
-75.77
-53.56
-25.25
4.44
30.97
51.31
64.39
70.73
71.58
68.17
61.38
51.93
40.61
28.37
16.21
4.79
-5.61
-15.07
-23.69
-31.26
-37.28
-41.03
-42.07
-40.54
-37.32
-33.99
-32.51
-34.64
-41.41
-52.52
-65.96
-78.18
-84.93
-82.47
-69.04
-45.6
-15.6
16.14
45.08
68.23
84.61
94.79
99.95
101.12
98.89
93.69
86.17
77.41
68.61
60.72
54.02
48.13
42.23
35.65
28.19
20.27
12.75
6.44
1.7
-1.87
-5.28
-9.89
-16.98
-27.31
-40.74
-55.91
-70.3
-80.57
-83.44
-76.77
-60.49
-36.89
-10.02
15.57
36.3
50.39
57.99
60.41
59.17
55.33
49.41
41.73
32.78
23.33
14.16
5.82
-1.64
-8.54
-15.33
-22.26
-29.27
-36.08
-42.45
-48.41
-54.49
-61.49
-70.23
-80.79
-92.02
-101.3
-105.04
-99.77
-83.54
-56.99
-23.29
12.71
46.07
73.22
92.59
104.37
109.69
109.78
105.66
98.2
88.39
77.45
66.57
56.52
47.37
38.56
29.31
19.12
8.06
-3.16
-13.6
-22.51
-29.74
-35.94
-42.41
-50.77
-62.4
-77.73
-95.74
-113.75
-127.82
-133.7
-128.21
-110.46
-82.21
-47.46
-11.21
22.02
49.25
69.21
82.02
88.37
89.04
84.86
76.87
66.59
55.88
46.47
39.45
34.93
32.14
29.9
27.25
23.81
19.81
15.79
12.21
9.03
5.63
0.96
-6.08
-16.19
-29.09
-43.29
-56.02
-63.84
-63.66
-53.85
-34.97
-9.81
17.5
42.73
62.75
76.13
82.96
84.37
81.71
76.22
68.81
60.23
51.12
42.08
33.6
26.03
19.55
14.22
9.99
6.77
4.41
2.62
0.97
-1.19
-4.69
-10.49
-19.38
-31.64
-46.51
-62.0
-75.05
-82.25
-81.01
-70.52
-52.29
-29.74
-7.09
12.01
25.51
33.14
36.02
35.77
33.78
30.93
27.68
24.32
21.16
18.34
15.74
12.88
9.12
4.06
-2.26
-9.26
-16.17
-22.37
-27.81
-33.04
-39.06
-46.97
-57.53
-70.74
-85.49
-99.44
-109.36
-111.96
-105.01
-88.35
-64.15
-36.38
-9.5
12.88
28.84
38.21
41.94
41.34
37.5
31.23
23.18
14.03
4.54
-4.66
-13.06
-20.42
-26.71
-32.0
-36.47
-40.29
-43.67
-46.81
-50.1
-54.21
-60.1
-68.69
-80.26
-93.62
-105.9
-112.92
-110.57
-96.33
-70.52
-36.29
1.27
36.91
66.66
88.6
102.77
110.38
112.99
112.0
108.51
103.34
97.13
90.23
82.74
74.48
65.23
54.93
43.88
32.75
22.32
13.19
5.39
-1.7
-9.27
-18.68
-30.77
-45.16
-59.85
-71.39
-75.74
-69.66
-52.02
-24.49
8.89
43.02
73.42
97.5
114.85
126.64
134.53
139.8
143.06
144.5
144.28
142.78
140.38
137.34
133.52
128.53
121.94
113.53
103.41
91.93
79.52
66.56
53.36
40.22
27.45
15.28
3.87
-6.68
-16.27
-24.64
-31.29
-35.67
-37.42
-36.7
-34.31
-31.63
-30.1
-30.84
-34.23
-39.81
-46.61
-53.47
-59.51
-64.41
-68.39
-72.04
-76.0
-80.61
-85.73
-90.78
-94.96
-97.64
-98.6
-98.16
-97.04
-96.14
-96.35
-98.31
-102.32
-108.12
-114.61
-119.8
-121.09
-115.97
-102.92
-82.14
-55.64
-26.78
0.81
24.21
41.81
53.43
59.86
62.27
61.72
58.99
54.59
48.94
42.51
35.84
29.4
23.47
18.05
12.94
7.91
2.83
-2.29
-7.42
-12.73
-18.7
-26.09
-35.58
-47.3
-60.3
-72.39
-80.48
-81.56
-73.82
-57.55
-35.29
-11.16
10.57
26.8
36.35
39.87
38.99
35.33
29.83
22.75
14.12
4.18
-6.38
-16.52
-25.29
-32.05
-36.66
-39.39
-40.71
-41.27
-41.85
-43.42
-47.09
-53.92
-64.33
-77.58
-91.31
-101.77
-104.73
-96.78
-76.76
-46.37
-9.85
27.38
60.34
85.85
102.98
112.52
116.12
115.35
111.32
104.69
95.98
85.75
74.57
62.92
51.16
39.52
28.2
17.52
7.78
-0.83
-8.39
-15.41
-22.77
-31.63
-43.08
-57.55
-74.23
-90.64
-102.94
-107.0
-99.86
-81.04
-53.05
-20.63
10.88
37.19
56.13
67.66
73.07
73.95
71.53
66.53
59.42
50.68
40.94
30.91
21.23
12.42
4.87
-1.21
-5.78
-9.09
-11.64
-14.18
-17.63
-23.02
-31.19
-42.41
-55.9
-69.44
-79.46
-81.95
-73.77
-53.99
-24.58
10.11
44.62
74.15
95.68
108.42
113.35
112.32
107.31
99.87
91.11
81.64
71.76
61.52
50.85
39.74
28.37
17.08
6.38
-3.35
-11.96
-19.69
-27.21
-35.47
-45.61
-58.62
-74.81
-93.31
-111.63
-125.95
-131.9
-126.04
-107.22
-77.36
-41.02
-4.08
28.06
51.96
66.67
73.21
73.64
69.95
63.58
55.33
45.68
35.12
24.25
13.8
4.42
-3.41
-9.45
-13.71
-16.31
-17.48
-17.49
-16.88
-16.52
-17.73
-22.06
-30.67
-43.57
-58.88
-72.76
-80.37
-77.42
-61.95
-35.35
-2.12
31.62
60.18
79.96
90.08
91.86
87.64
79.65
69.43
57.85
45.48
32.87
20.64
9.38
-0.42
-8.53
-14.94
-19.81
-23.58
-26.81
-30.24
-34.67
-40.99
-50.11
-62.77
-78.99
-97.35
-114.58
-125.87
-126.22
-112.38
-84.41
-46.13
-3.94
35.32
66.55
87.58
99.04
103.13
102.32
98.45
92.6
85.45
77.54
69.44
61.57
54.08
46.8
39.43
31.74
23.74
15.72
8.02
0.81
-6.19
-13.85
-23.49
-36.45
-53.28
-73.03
-92.79
-108.04
-113.99
-107.13
-86.81
-55.68
-18.96
17.3
48.08
70.64
84.65
91.41
92.73
90.16
84.72
77.2
68.39
59.22
50.45
42.48
35.19
28.2
21.09
13.81
6.67
0.16
-5.42
-10.3
-15.38
-22.12
-32.01
-45.76
-62.52
-79.39
-91.87
-95.1
-85.59
-62.75
-29.36
9.19
46.69
78.09
100.65
114.1
119.81
119.65
115.22
107.65
97.74
86.3
74.16
62.03
50.26
38.9
27.72
16.6
5.62
-4.83
-14.3
-22.57
-29.87
-37.14
-45.82
-57.42
-72.74
-91.0
-109.44
-123.67
-128.87
-121.64
-101.37
-70.8
-35.16
-0.4
28.67
49.53
62.01
67.46
67.63
64.01
57.58
49.13
39.49
29.59
20.25
12.01
4.99
-1.0
-6.2
-10.78
-14.7
-17.85
-20.25
-22.26
-24.75
-29.03
-36.38
-47.36
-61.03
-74.51
-83.46
-83.28
-70.91
-46.15
-12.08
25.89
61.83
91.14
111.56
123.19
127.53
126.37
121.12
112.69
101.77
89.17
75.7
62.04
48.42
34.67
20.53
5.99
-8.49
-22.12
-34.09
-44.01
-52.09
-59.18
-66.59
-75.72
-87.64
-102.49
-119.0
-134.23
-144.06
-144.41
-132.72
-109.22
-77.19
-42.05
-9.57
15.94
32.68
41.26
43.77
42.59
39.5
35.5
31.02
26.27
21.48
16.85
12.4
7.96
3.26
-1.99
-7.82
-14.03
-20.2
-25.94
-31.17
-36.3
-42.33
-50.39
-61.04
-73.45
-84.99
-91.76
-89.83
-77.07
-54.28
-25.23
4.56
29.86
47.36
56.41
58.56
56.29
51.75
46.13
39.62
31.91
22.81
12.48
1.53
-9.14
-18.71
-26.65
-32.89
-37.84
-42.2
-46.83
-52.66
-60.67
-71.74
-86.23
-103.24
-120.07
-132.29
-134.77
-123.54
-97.51
-59.32
-14.66
29.51
67.32
95.46
113.57
123.3
127.04
126.8
123.93
119.27
113.57
107.54
101.7
96.1
90.21
83.21
74.5
64.14
52.9
42.0
32.44
24.54
17.69
10.48
1.24
-11.42
-27.87
-46.89
-65.5
-79.42
-84.28
-77.2
-58.11
-30.14
1.33
30.41
52.71
66.41
72.15
72.02
68.2
62.18
54.62
45.78
35.96
25.75
15.92
7.2
0.1
-5.21
-8.9
-11.43
-13.46
-15.69
-18.84
-23.59
-30.69
-40.87
-54.42
-70.54
-86.7
-98.77
-101.95
-92.56
-69.62
-35.71
3.72
42.16
74.04
96.27
108.45
112.12
109.6
103.04
94.0
83.55
72.48
61.32
50.39
39.71
29.11
18.4
7.59
-3.06
-13.03
-21.84
-29.29
-35.71
-42.06
-49.89
-60.81
-75.72
-93.87
-112.33
-126.34
-130.65
-121.51
-98.34
-64.34
-25.5
11.45
41.25
61.45
72.41
76.18
75.0
70.39
62.98
53.07
41.31
28.97
17.74
9.18
4.12
2.39
2.91
4.18
4.8
3.77
0.57
-5.04
-13.27
-24.16
-37.12
-50.3
-60.32
-62.9
-54.1
-32.09
1.79
42.93
84.93
121.52
148.53
164.67
171.1
170.25
164.52
155.59
144.42
131.76
118.47
105.57
93.92
83.97
75.51
67.95
60.68
53.4
46.22
39.35
32.92
26.58
19.6
11.13
0.81
-10.75
-21.73
-29.48
-31.35
-25.77
-13.07
4.46
23.13
39.21
50.03
54.66
53.73
48.71
41.12
31.94
21.62
10.41
-1.3
-12.87
-23.54
-32.69
-40.13
-46.02
-50.76
-54.75
-58.1
-60.71
-62.38
-63.08
-63.15
-63.31
-64.4
-66.92
-70.62
-74.32
-76.25
-74.68
-68.68
-58.59
-46.02
-33.31
-22.73
-15.77
-12.83
-13.38
-16.37
-20.73
-25.76
-31.14
-36.91
-43.19
-49.97
-57.04
-63.88
-69.85
-74.31
-76.85
-77.5
-76.67
-75.1
-73.7
-73.4
-74.9
-78.44
-83.36
-87.83
-89.08
-84.03
-70.49
-48.16
-19.06
12.97
43.46
68.73
86.76
97.3
101.3
100.14
95.06
87.1
77.22
66.5
56.05
46.86
39.43
33.73
29.24
25.18
20.96
16.32
11.37
6.43
1.67
-3.08
-8.36
-14.82
-22.76
-31.71
-40.33
-46.66
-48.81
-45.59
-37.13
-24.89
-11.29
1.07
10.1
14.82
15.29
12.46
7.53
1.57
-4.73
-11.04
-17.25
-23.31
-29.13
-34.62
-39.62
-44.0
-47.52
-49.94
-51.04
-50.85
-49.72
-48.45
-48.17
-50.07
-54.93
-62.55
-71.39
-78.6
-80.71
-74.88
-60.0
-37.38
-10.42
16.51
39.52
56.27
66.34
70.67
70.79
68.06
63.43
57.53
50.9
44.08
37.52
31.48
26.01
21.03
16.4
12.07
7.99
4.09
0.26
-3.75
-8.27
-13.8
-20.81
-29.45
-39.02
-47.69
-52.76
-51.42
-41.98
-24.84
-2.68
20.4
40.22
53.9
60.56
61.06
57.23
50.9
43.44
35.56
27.57
19.64
11.94
4.69
-1.97
-7.94
-13.24
-18.02
-22.44
-26.65
-30.72
-34.74
-38.95
-43.81
-49.87
-57.35
-65.58
-72.74
-76.13
-72.99
-61.74
-42.73
-18.47
7.27
30.65
48.97
61.24
68.0
70.53
70.11
67.59
63.44
57.97
51.65
45.12
39.02
33.77
29.43
25.81
22.64
19.75
17.14
14.88
12.96
11.14
8.93
5.82
1.52
-3.74
-9.06
-12.99
-13.99
-10.97
-3.82
6.49
18.08
28.8
36.91
41.53
42.76
41.33
38.2
34.1
29.49
24.59
19.63
14.93
10.83
7.6
5.28
3.71
2.59
1.58
0.42
-1.1
-3.18
-5.98
-9.52
-13.66
-18.04
-22.18
-25.71
-28.45
-30.5
-32.13
-33.56
-34.9
-36.1
-37.01
-37.57
-37.89
-38.2
-38.69
-39.38
-40.05
-40.31
-39.89
-38.73
-37.16
-35.73
-34.98
-35.18
-36.22
-37.65
-38.94
-39.67
-39.69
-39.07
-38.02
-36.82
-35.85
-35.53
-36.29
-38.28
-41.19
-44.2
-46.18
-46.22
-44.08
-40.42
-36.58
-33.98
-33.58
-35.47
-38.98
-42.99
-46.42
-48.69
-49.86
-50.6
-51.87
-54.54
-58.97
-64.85
-71.24
-76.97
-81.05
-83.08
-83.4
-82.96
-83.07
-85.15
-90.43
-99.53
-111.84
-124.99
-134.83
-136.23
-124.74
-98.32
-58.53
-10.27
39.75
85.22
121.95
148.64
166.32
177.12
183.07
185.48
185.0
182.05
177.26
171.53
165.93
161.31
158.06
156.07
154.8
153.55
151.68
148.83
144.82
139.52
132.66
123.75
112.27
98.03
81.45
63.56
45.66
28.8
13.32
-1.37
-16.45
-33.17
-52.31
-73.84
-96.97
-120.43
-142.9
-163.29
-180.89
-195.28
-206.24
-213.77
-218.12
-219.99
-220.4
-220.38
-220.5
-220.4
-218.9
-214.39
-205.78
-193.09
-177.76
-162.25
-149.15
-140.2
-135.49
-133.21
-129.97
-121.73
-105.04
-78.29
-42.4
-0.7
42.06
81.16
113.21
136.7
151.84
159.76
161.82
159.16
152.8
143.75
133.1
121.81
110.49
99.24
87.85
76.16
64.37
53.13
43.28
35.45
29.62
24.86
19.43
11.27
-1.2
-18.08
-37.43
-55.2
-66.15
-65.49
-50.67
-22.49
15.05
56.11
95.0
127.82
153.16
171.51
184.21
192.41
196.68
197.31
194.76
189.94
183.99
177.8
171.6
164.93
156.91
146.85
134.68
121.02
106.91
93.26
80.42
67.93
54.79
39.8
22.22
2.17
-19.16
-39.56
-56.3
-66.78
-69.27
-63.53
-51.06
-34.7
-17.94
-3.89
5.46
9.53
8.9
4.71
-1.84
-9.9
-18.88
-28.36
-37.95
-47.28
-56.01
-63.93
-70.83
-76.53
-80.82
-83.59
-84.89
-85.1
-84.89
-85.1
-86.6
-90.08
-95.75
-103.05
-110.36
-115.04
-113.96
-104.47
-85.5
-58.22
-25.91
7.02
36.34
59.17
74.45
82.7
85.34
83.93
79.79
73.88
66.87
59.27
51.44
43.57
35.68
27.77
19.82
11.91
4.17
-3.34
-10.68
-18.21
-26.58
-36.61
-48.94
-63.54
-79.14
-93.08
-101.71
-101.43
-90.01
-67.66
-37.24
-3.48
28.5
54.7
73.18
83.97
88.39
88.06
84.29
77.97
69.84
60.76
51.7
43.51
36.58
30.77
25.61
20.66
15.78
11.22
7.33
4.28
1.79
-0.88
-4.68
-10.24
-17.64
-26.06
-33.92
-39.21
-40.01
-35.05
-24.19
-8.56
9.71
28.03
44.01
55.96
63.11
65.51
63.83
59.03
52.22
44.45
36.57
29.09
22.05
15.08
7.65
-0.61
-9.66
-18.95
-27.69
-35.17
-41.12
-45.93
-50.61
-56.53
-65.07
-77.07
-92.32
-109.14
-124.35
-133.86
-133.68
-121.36
-96.94
-63.18
-24.71
13.34
46.84
73.51
92.91
105.82
113.48
117.01
117.35
115.44
112.33
109.22
107.03
106.2
106.55
107.45
108.25
108.6
108.66
108.96
110.04
112.05
114.58
116.66
117.15
115.07
110.04
102.35
92.95
83.14
74.13
66.67
60.76
55.68
50.3
43.51
34.72
23.99
12.01
-0.28
-12.0
-22.53
-31.66
-39.5
-46.42
-52.91
-59.48
-66.51
-74.15
-82.3
-90.58
-98.54
-105.76
-112.02
-117.36
-122.11
-126.71
-131.5
-136.5
-141.21
-144.57
-145.12
-141.38
-132.36
-117.89
-98.75
-76.62
-53.64
-31.99
-13.45
0.92
10.85
16.85
19.89
21.12
21.6
22.03
22.69
23.49
24.07
24.02
22.97
20.74
17.38
13.04
7.95
2.17
-4.42
-12.14
-21.34
-32.12
-44.17
-56.62
-68.08
-76.86
-81.27
-80.01
-72.57
-59.5
-42.36
-23.43
-5.07
10.86
23.5
32.96
39.95
45.17
48.97
51.27
51.8
50.56
47.93
44.65
41.5
39.1
37.74
37.42
37.97
38.98
39.92
40.04
38.51
34.74
28.68
21.1
13.67
8.63
8.14
13.54
24.76
40.16
56.98
72.18
83.32
89.18
89.76
85.92
78.79
69.37
58.48
46.89
35.46
25.06
16.33
9.46
4.06
-0.59
-5.26
-10.43
-16.17
-22.21
-28.2
-33.88
-39.3
-44.76
-50.66
-57.31
-64.74
-72.47
-79.65
-85.24
-88.35
-88.59
-86.16
-81.77
-76.34
-70.76
-65.66
-61.42
-58.15
-55.76
-54.01
-52.57
-51.08
-49.42
-47.64
-45.98
-44.61
-43.52
-42.38
-40.72
-38.18
-34.67
-30.48
-26.23
-22.67
-20.54
-20.58
-23.26
-28.59
-35.71
-42.65
-46.53
-44.26
-33.67
-14.46
11.41
40.21
67.58
89.83
104.93
112.63
114.01
110.72
104.28
95.88
86.47
76.9
68.01
60.53
54.73
50.32
46.43
41.96
35.97
28.12
18.74
8.61
-1.49
-11.19
-20.71
-30.64
-41.42
-52.83
-63.73
-72.25
-76.41
-74.9
-67.66
-55.91
-41.75
-27.48
-14.87
-4.84
2.54
7.65
10.94
12.64
12.77
11.28
8.24
3.94
-1.16
-6.51
-11.59
-16.01
-19.56
-22.24
-24.22
-25.82
-27.48
-29.65
-32.76
-36.98
-42.01
-46.92
-50.19
-50.02
-45.01
-34.72
-20.07
-3.16
13.35
27.08
36.62
41.76
43.17
41.9
38.87
34.64
29.48
23.63
17.35
11.02
4.92
-0.85
-6.33
-11.66
-16.93
-22.12
-27.18
-32.11
-37.1
-42.6
-49.13
-56.96
-65.74
-74.18
-80.11
-81.09
-75.24
-62.18
-43.41
-21.94
-1.26
15.79
27.78
34.78
37.74
37.78
35.66
31.73
26.27
19.84
13.43
8.27
5.37
5.12
7.13
10.31
13.45
15.65
16.72
17.05
17.22
17.69
18.57
19.93
22.14
26.13
33.23
44.63
60.85
81.37
104.75
129.03
152.1
172.09
187.37
196.67
199.06
194.11
181.89
163.0
138.5
109.74
78.27
45.67
13.36
-17.65
-46.77
-73.73
-98.3
-120.0
-138.15
-152.11
-161.72
-167.67
-171.44
-174.81
-179.14
-184.67
-190.21
-193.39
-191.38
-181.94
-164.25
-139.39
-110.1
-80.06
-52.82
-30.89
-15.27
-5.55
-0.49
1.19
0.32
-2.79
-8.15
-15.55
-24.32
-33.31
-41.29
-47.28
-51.0
-52.8
-53.5
-54.08
-55.41
-58.34
-63.65
-72.07
-83.72
-97.6
-111.13
-120.43
-121.28
-110.63
-87.85
-55.17
-17.01
21.61
56.57
85.6
108.28
125.25
137.4
145.37
149.64
150.87
150.12
148.61
147.31
146.51
145.65
143.7
139.73
133.41
125.01
115.22
104.59
93.13
80.35
65.33
47.22
25.52
0.49
-26.6
-53.32
-76.24
-91.6
-96.37
-89.38
-71.88
-47.25
-19.96
5.76
27.02
42.51
52.12
56.37
55.91
51.5
44.14
35.17
26.09
18.08
11.69
6.7
2.47
-1.69
-6.08
-10.54
-14.72
-18.36
-21.67
-25.37
-30.68
-38.85
-50.63
-65.63
-81.8
-95.5
-102.2
-97.92
-80.81
-52.11
-16.02
21.65
55.42
81.86
100.18
111.62
118.12
121.14
121.21
118.3
112.55
104.78
96.27
88.13
80.71
73.44
65.2
55.13
43.27
30.63
18.86
9.42
3.05
-0.46
-2.06
-2.86
-3.72
-4.91
-5.96
-5.85
-3.09
3.9
16.44
35.12
59.29
86.92
114.73
138.96
156.21
164.41
163.17
153.62
137.56
116.71
92.0
63.61
31.24
-5.19
-45.12
-86.93
-128.08
-165.47
-196.2
-218.51
-232.43
-239.88
-244.06
-248.24
-254.68
-263.94
-274.97
-285.7
-293.66
-296.46
-291.92
-278.24
-254.16
-219.4
-175.08
-123.92
-69.93
-17.77
28.2
64.74
90.29
105.13
110.91
110.01
104.73
96.76
87.12
76.3
64.73
52.96
41.7
31.71
23.58
17.46
13.05
9.6
6.08
1.42
-5.35
-15.05
-28.28
-45.19
-65.06
-85.84
-104.01
-115.17
-115.26
-102.01
-75.96
-40.44
-0.58
38.15
71.4
96.6
112.95
120.94
121.74
116.85
107.94
96.66
84.51
72.57
61.51
51.58
42.89
35.52
29.64
25.39
22.72
21.24
20.14
18.24
14.13
6.38
-6.11
-23.47
-44.28
-65.28
-81.77
-88.82
-82.88
-63.24
-32.49
4.27
41.05
72.87
96.84
112.37
120.38
122.31
119.33
112.28
101.9
89.17
75.39
61.85
49.48
38.66
29.25
21.0
13.83
7.98
3.73
1.17
-0.22
-1.53
-4.28
-10.07
-20.06
-34.48
-52.07
-69.99
-84.05
-89.88
-84.34
-66.86
-39.92
-8.37
22.23
47.43
64.96
74.86
78.51
77.59
73.36
66.59
57.88
48.08
38.26
29.43
22.22
16.73
12.68
9.8
8.01
7.54
8.67
11.42
15.24
18.89
20.56
18.26
10.51
-3.01
-20.74
-39.22
-53.68
-59.32
-52.9
-33.85
-4.6
30.26
65.43
96.39
120.3
136.16
144.3
145.69
141.46
132.66
120.36
105.6
89.37
72.46
55.42
38.63
22.4
7.08
-6.88
-19.03
-29.03
-36.89
-43.0
-48.26
-53.95
-61.51
-72.06
-85.66
-100.76
-114.0
-120.94
-117.44
-101.29
-73.39
-37.63
0.3
34.8
62.01
80.56
91.14
95.48
95.3
91.78
85.6
77.35
67.75
57.73
48.31
40.31
34.3
30.5
28.77
28.69
29.57
30.62
30.98
29.79
26.1
18.95
7.64
-7.62
-25.16
-41.63
-52.72
-54.57
-45.27
-25.9
-0.31
26.15
48.34
62.79
68.27
65.44
56.05
42.24
26.04
9.25
-6.61
-20.37
-31.33
-39.29
-44.45
-47.26
-48.19
-47.74
-46.31
-44.32
-42.21
-40.54
-40.02
-41.52
-45.85
-53.33
-63.18
-73.1
-79.4
-77.96
-65.65
-41.74
-8.53
29.13
65.29
94.67
114.05
122.69
121.98
114.47
102.99
90.0
77.26
65.78
55.75
46.63
37.41
26.98
14.63
0.27
-15.41
-31.21
-45.84
-58.3
-68.2
-75.89
-82.43
-89.32
-98.11
-109.68
-123.58
-137.6
-148.1
-151.03
-143.35
-124.36
-96.06
-62.53
-28.5
2.13
27.19
46.15
59.49
67.91
71.94
72.1
69.16
64.27
58.79
53.75
49.58
46.01
42.45
38.37
33.69
28.77
24.16
20.25
16.98
13.78
9.63
3.33
-6.19
-19.29
-35.2
-51.62
-64.94
-71.09
-66.94
-51.56
-26.86
2.87
32.35
56.98
74.01
82.82
84.23
79.61
70.09
56.54
39.83
21.24
2.56
-14.36
-28.19
-38.51
-45.87
-51.24
-55.46
-58.74
-60.63
-60.47
-58.01
-53.88
-49.6
-47.27
-48.88
-55.61
-67.32
-82.15
-96.62
-106.28
-106.8
-95.39
-71.92
-39.22
-2.33
33.06
62.39
83.33
95.84
101.41
101.89
98.69
92.62
84.35
74.73
65.05
56.62
50.29
46.07
43.05
39.87
35.4
29.24
21.93
14.66
8.54
4.09
0.8
-2.69
-8.1
-16.86
-29.56
-45.61
-63.19
-79.41
-90.83
-94.2
-87.44
-70.42
-45.33
-16.21
12.11
35.46
51.35
59.29
60.29
55.95
47.67
36.38
22.72
7.61
-7.52
-20.74
-30.1
-34.22
-32.8
-26.73
-17.92
-8.7
-1.31
2.54
1.86
-3.72
-14.02
-28.27
-44.85
-61.07
-73.27
-77.47
-70.57
-51.53
-22.17
13.13
48.72
79.45
102.08
115.84
121.88
122.19
118.48
111.75
102.45
91.04
78.33
65.51
53.71
43.59
35.04
27.3
19.45
10.81
1.36
-8.27
-17.09
-24.18
-29.12
-32.29
-34.75
-37.93
-43.18
-51.41
-62.76
-76.49
-90.81
-103.02
-109.82
-108.13
-96.05
-73.78
-43.9
-10.76
20.79
46.8
65.11
75.41
78.55
75.71
67.86
55.78
40.42
23.2
5.99
-9.27
-21.06
-28.61
-31.89
-31.44
-27.99
-22.37
-15.46
-8.28
-2.06
1.82
2.02
-2.59
-12.62
-27.7
-46.22
-65.13
-80.45
-88.26
-86.05
-73.79
-54.05
-31.22
-9.97
6.24
15.95
19.57
18.5
14.23
7.75
-0.4
-9.77
-19.72
-29.3
-37.57
-43.82
-47.83
-49.79
-50.13
-49.35
-47.77
-45.52
-42.73
-39.64
-36.81
-35.2
-36.03
-40.35
-48.45
-59.33
-70.45
-78.16
-78.74
-69.79
-51.22
-25.5
3.11
30.06
51.93
67.27
76.48
80.96
82.21
81.24
78.56
74.52
69.66
64.63
59.98
55.77
51.57
46.67
40.57
33.3
25.55
18.3
12.42
8.2
5.23
2.51
-1.27
-7.22
-15.88
-26.73
-38.03
-47.06
-50.75
-46.85
-34.8
-16.16
5.87
27.52
45.69
58.77
66.65
70.17
70.38
67.97
63.27
56.49
48.0
38.41
28.46
18.76
9.72
1.58
-5.44
-11.07
-14.95
-16.88
-16.92
-15.53
-13.58
-12.09
-12.08
-14.27
-18.94
-25.68
-33.24
-39.51
-41.81
-37.61
-25.5
-5.95
18.56
44.22
67.07
84.25
94.64
98.74
97.93
93.68
87.0
78.5
68.6
57.8
46.7
35.84
25.57
15.97
6.95
-1.69
-10.17
-18.69
-27.46
-36.61
-46.21
-56.29
-66.89
-78.13
-89.92
-101.66
-111.9
-118.46
-118.96
-111.75
-96.73
-75.59
-51.36
-27.41
-6.38
10.41
22.85
31.59
37.39
40.82
42.24
42.04
40.71
38.83
36.8
34.66
32.07
28.46
23.37
16.66
8.69
0.08
-8.48
-16.54
-24.15
-31.86
-40.51
-50.85
-62.9
-75.55
-86.46
-92.53
-90.89
-80.05
-60.66
-35.46
-8.5
16.2
35.77
49.03
56.23
58.44
56.84
52.36
45.78
37.87
29.52
21.59
14.65
8.82
3.81
-0.82
-5.41
-9.93
-14.06
-17.4
-19.7
-21.13
-22.27
-24.11
-27.63
-33.26
-40.42
-47.13
-50.42
-47.18
-35.4
-15.17
11.02
39.03
64.43
83.86
95.89
100.95
100.46
95.99
88.6
78.8
66.83
53.08
38.19
23.02
8.45
-4.79
-16.19
-25.36
-32.11
-36.47
-38.76
-39.74
-40.48
-42.36
-46.83
-54.94
-66.91
-81.48
-95.82
-106.0
-108.11
-99.73
-80.97
-54.63
-25.27
2.26
24.29
39.07
46.61
48.01
44.63
37.69
28.15
16.92
4.95
-6.78
-17.37
-26.16
-32.82
-37.38
-40.15
-41.6
-42.21
-42.39
-42.43
-42.7
-43.87
-46.88
-52.6
-61.2
-71.5
-80.77
-85.34
-81.76
-68.19
-45.33
-16.27
14.38
41.97
63.15
76.43
82.15
81.8
77.23
70.09
61.6
52.57
43.6
35.21
27.87
21.93
17.47
14.24
11.76
9.48
6.96
4.03
0.68
-3.14
-7.67
-13.42
-20.82
-29.68
-38.73
-45.52
-47.01
-40.59
-25.32
-2.53
24.38
51.0
73.36
89.04
97.64
100.31
98.87
94.93
89.48
82.86
75.16
66.54
57.34
48.0
38.91
30.25
22.03
14.15
6.52
-0.93
-8.36
-16.09
-24.69
-34.91
-47.41
-62.35
-78.96
-95.3
-108.36
-114.75
-111.67
-97.96
-74.77
-45.48
-14.82
12.45
32.78
44.58
48.15
45.11
37.59
27.63
16.87
6.46
-2.84
-10.7
-17.1
-22.26
-26.44
-29.83
-32.41
-34.04
-34.65
-34.39
-33.79
-33.79
-35.63
-40.46
-48.77
-59.82
-71.25
-79.38
-80.18
-70.71
-50.33
-21.15
12.56
45.85
74.6
96.54
111.29
119.72
123.13
122.58
118.84
112.54
104.39
95.12
85.35
75.38
65.2
54.61
43.51
32.06
20.66
9.87
0.13
-8.5
-16.49
-24.81
-34.61
-46.59
-60.35
-73.97
-84.25
-87.67
-81.64
-65.69
-41.9
-14.29
12.39
34.13
48.66
55.61
56.12
52.03
45.23
37.29
29.36
22.25
16.42
12.05
9.04
7.09
5.84
4.95
4.26
3.68
3.22
2.75
1.94
0.13
-3.63
-10.34
-20.57
-33.9
-48.53
-61.35
-68.67
-67.4
-56.24
-36.29
-10.88
15.52
38.68
55.68
65.51
68.72
66.75
61.23
53.39
44.04
33.63
22.59
11.34
0.43
-9.58
-18.21
-25.18
-30.42
-34.08
-36.53
-38.3
-40.16
-43.06
-48.08
-56.11
-67.34
-80.72
-93.72
-102.7
-103.87
-94.61
-74.56
-45.94
-13.0
19.31
46.74
66.82
79.08
84.55
85.0
82.08
76.95
70.26
62.27
53.2
43.36
33.19
23.29
14.24
6.56
0.57
-3.63
-6.34
-8.18
-10.19
-13.68
-20.08
-30.43
-44.8
-61.72
-77.99
-89.21
-91.08
-80.91
-58.88
-28.26
5.55
36.75
60.9
75.99
82.36
81.94
77.06
69.67
60.92
51.33
41.07
30.27
19.17
8.14
-2.36
-11.97
-20.49
-27.9
-34.34
-39.95
-44.91
-49.48
-54.08
-59.29
-65.49
-72.4
-78.68
-81.95
-79.41
-68.94
-50.12
-24.65
3.99
31.56
54.39
70.25
78.7
80.75
78.16
72.77
66.0
58.69
51.14
43.38
35.42
27.47
19.93
13.33
8.09
4.31
1.72
-0.26
-2.37
-5.36
-9.96
-16.8
-26.27
-38.15
-51.12
-62.68
-69.46
-68.26
-57.18
-36.56
-9.0
21.34
50.11
74.03
91.53
102.69
108.58
110.47
109.36
105.92
100.68
94.38
87.91
82.28
78.22
75.89
74.89
74.37
73.45
71.53
68.44
64.25
58.98
52.27
43.32
31.16
15.17
-4.29
-25.57
-45.91
-62.16
-71.73
-73.46
-67.92
-57.16
-44.02
-31.26
-20.96
-14.22
-11.29
-11.83
-15.28
-20.99
-28.35
-36.73
-45.4
-53.59
-60.57
-65.83
-69.34
-71.59
-73.48
-75.89
-79.4
-84.0
-89.27
-94.8
-100.63
-107.4
-116.01
-126.79
-138.56
-148.4
-152.08
-145.51
-126.35
-95.18
-55.62
-13.19
26.31
58.49
81.15
94.18
98.85
96.92
90.05
79.64
66.9
52.9
38.61
24.81
12.09
0.82
-8.72
-16.36
-21.97
-25.56
-27.38
-27.98
-28.27
-29.41
-32.52
-38.17
-45.84
-53.68
-58.78
-58.04
-49.36
-32.54
-9.55
16.1
40.52
60.69
75.06
83.57
87.13
86.88
83.72
78.19
70.48
60.68
48.9
35.49
21.15
6.97
-5.75
-15.72
-22.04
-24.54
-23.75
-20.91
-17.61
-15.57
-16.33
-20.86
-29.13
-39.81
-50.27
-57.07
-57.01
-48.23
-31.12
-8.26
16.32
38.52
55.33
65.52
69.53
68.83
65.09
59.64
53.28
46.38
39.11
31.67
24.3
17.28
10.82
4.98
-0.35
-5.43
-10.59
-16.04
-21.85
-27.91
-34.12
-40.59
-47.65
-55.53
-63.88
-71.31
-75.5
-73.8
-64.33
-46.87
-23.18
3.62
30.09
53.67
73.24
88.87
101.19
110.57
116.76
118.98
116.45
108.82
96.51
80.6
62.61
44.12
26.47
10.54
-3.24
-14.9
-24.85
-33.78
-42.65
-52.55
-64.51
-79.01
-95.52
-112.21
-126.05
-133.54
-131.72
-119.37
-97.59
-69.62
-39.95
-12.95
8.28
22.52
30.23
32.93
32.32
29.77
26.14
21.91
17.45
13.13
9.32
6.18
3.63
1.31
-1.16
-4.05
-7.41
-11.14
-15.18
-19.7
-25.13
-31.93
-40.15
-48.91
-56.25
-59.45
-55.91
-44.21
-24.87
-0.43
25.28
48.34
65.83
76.43
80.3
78.53
72.51
63.54
52.78
41.33
30.22
20.31
12.07
5.59
0.61
-3.24
-6.24
-8.55
-10.3
-11.71
-13.23
-15.53
-19.44
-25.78
-35.07
-47.07
-60.41
-72.51
-79.94
-79.43
-68.99
-48.82
-21.39
9.2
38.56
63.11
80.9
91.56
95.77
94.68
89.4
80.85
69.77
56.84
42.8
28.62
15.52
4.91
-1.88
-4.05
-1.64
4.36
12.2
19.89
25.48
27.44
24.66
16.58
3.51
-13.06
-30.26
-44.29
-51.4
-49.28
-38.06
-20.39
-0.65
16.69
28.49
33.63
32.88
28.0
20.77
12.37
3.35
-6.09
-15.72
-25.13
-33.78
-41.22
-47.17
-51.6
-54.53
-56.0
-56.0
-54.68
-52.47
-50.29
-49.55
-51.82
-58.29
-69.0
-82.31
-94.89
-102.53
-101.41
-89.58
-67.82
-39.55
-9.66
17.1
37.64
51.12
58.7
62.44
64.3
65.42
66.06
66.08
65.42
64.34
63.26
62.53
61.98
61.05
58.94
55.01
49.0
41.04
31.37
20.03
6.82
-8.49
-25.56
-42.97
-58.11
-67.73
-68.91
-60.28
-42.73
-19.38
5.36
27.23
43.32
52.79
56.53
56.28
53.66
49.59
44.17
37.15
28.37
18.09
6.95
-4.25
-14.82
-24.42
-32.96
-40.61
-47.67
-54.49
-61.56
-69.5
-79.01
-90.66
-104.38
-119.0
-132.04
-140.04
-139.51
-128.22
-106.2
-76.04
-42.15
-9.46
18.03
38.2
50.8
56.95
58.2
55.91
50.93
43.72
34.6
24.07
12.9
2.11
-7.22
-14.24
-18.55
-20.23
-19.87
-18.26
-16.3
-14.87
-14.92
-17.47
-23.41
-32.93
-44.94
-56.75
-64.42
-63.89
-52.52
-30.26
0.07
33.61
65.01
90.05
106.64
114.86
116.3
113.09
107.18
99.94
92.19
84.31
76.44
68.61
60.89
53.45
46.63
40.9
36.69
34.26
33.59
34.25
35.48
36.19
35.08
31.0
23.42
12.97
1.64
-7.53
-11.31
-7.47
4.36
22.45
43.49
63.66
79.69
89.64
93.04
90.57
83.65
73.9
62.94
52.1
42.28
33.78
26.34
19.33
12.09
4.22
-4.25
-12.97
-21.46
-29.4
-36.73
-43.72
-50.85
-58.77
-68.1
-79.21
-91.77
-104.47
-114.92
-120.18
-117.69
-106.34
-87.05
-62.57
-36.64
-12.76
6.76
21.08
30.64
36.49
39.76
41.43
42.21
42.77
43.67
45.35
47.97
51.36
55.07
58.53
61.25
62.98
63.7
63.56
62.67
60.94
57.97
53.08
45.69
35.78
24.41
13.81
6.99
6.77
14.73
30.42
51.33
73.57
93.08
106.71
112.78
111.08
102.43
88.15
69.77
48.92
27.34
6.76
-11.28
-25.73
-36.2
-43.03
-47.08
-49.55
-51.64
-54.39
-58.51
-64.33
-71.89
-81.06
-91.66
-103.37
-115.48
-126.61
-134.65
-137.18
-132.22
-119.16
-99.14
-74.86
-49.67
-26.47
-7.01
8.22
19.6
27.74
33.09
35.95
36.56
35.3
32.6
28.86
24.26
18.86
12.76
6.21
-0.37
-6.46
-11.69
-16.01
-19.75
-23.63
-28.61
-35.71
-45.51
-57.72
-70.74
-81.76
-87.31
-84.36
-71.47
-49.5
-21.47
8.3
35.61
57.45
72.58
81.33
84.92
84.8
82.12
77.65
71.87
65.1
57.65
49.81
41.89
34.25
27.26
21.35
16.93
14.36
13.81
15.13
17.69
20.23
21.01
18.36
11.46
1.05
-10.38
-19.21
-22.08
-17.2
-5.19
11.18
28.11
42.19
51.44
55.46
54.96
50.94
44.13
34.84
23.21
9.51
-5.76
-21.88
-38.15
-53.95
-68.86
-82.51
-94.53
-104.58
-112.35
-117.76
-121.06
-122.96
-124.55
-127.04
-131.1
-136.34
-140.95
-141.99
-136.33
-121.95
-98.99
-70.02
-39.24
-11.15
10.98
25.86
34.08
37.34
37.54
36.17
34.13
31.87
29.65
27.52
25.42
23.12
20.35
16.91
12.72
7.78
2.14
-4.23
-11.34
-19.25
-28.04
-37.88
-48.87
-60.75
-72.41
-81.68
-85.54
-81.1
-66.79
-43.23
-13.39
18.25
47.21
70.23
85.96
94.67
97.53
95.8
90.45
82.23
71.89
60.39
48.74
37.83
28.15
19.76
12.4
5.75
-0.42
-6.19
-11.58
-16.73
-22.04
-28.2
-36.12
-46.44
-59.08
-72.62
-84.24
-90.26
-87.26
-73.35
-49.11
-17.61
16.45
48.19
73.93
91.85
101.98
105.48
103.78
98.12
89.33
78.13
65.27
51.73
38.52
26.51
16.18
7.65
0.7
-4.94
-9.46
-12.97
-15.73
-18.44
-22.28
-28.79
-39.14
-53.33
-69.61
-84.55
-93.94
-94.23
-83.85
-63.92
-37.94
-10.6
13.63
31.56
41.84
44.72
41.52
34.13
24.55
14.61
5.71
-1.36
-6.51
-10.25
-13.32
-16.35
-19.59
-22.8
-25.53
-27.33
-28.11
-28.24
-28.58
-30.23
-34.29
-41.21
-50.39
-59.86
-66.44
-66.63
-57.7
-38.88
-11.85
19.58
50.61
76.78
95.01
104.02
104.04
96.19
81.96
62.98
41.04
18.16
-3.47
-21.81
-35.33
-43.38
-46.23
-44.96
-41.08
-36.11
-31.27
-27.47
-25.4
-25.78
-29.49
-37.39
-49.79
-65.8
-82.85
-96.97
-103.74
-99.74
-83.94
-58.24
-26.94
4.78
32.42
53.48
67.54
75.76
79.84
81.29
81.1
79.83
77.83
75.32
72.42
69.06
64.95
59.78
53.27
45.31
35.92
25.21
13.16
-0.4
-15.96
-34.24
-55.92
-80.96
-107.88
-133.41
-152.77
-160.97
-154.61
-133.32
-100.26
-61.19
-22.68
9.91
33.58
47.79
53.67
52.94
47.26
38.07
26.85
15.25
5.09
-2.08
-5.33
-4.58
-0.53
5.63
12.6
19.25
24.71
28.31
29.39
27.18
21.08
11.11
-1.41
-13.55
-21.17
-20.09
-7.6
16.19
48.1
82.75
114.3
138.24
152.47
157.33
154.69
146.91
135.94
122.99
108.58
92.88
75.94
57.83
38.78
19.21
-0.27
-18.86
-35.76
-50.36
-62.52
-72.64
-81.81
-91.55
-103.47
-118.46
-135.93
-153.34
-166.43
-170.41
-161.57
-138.82
-104.26
-62.67
-19.9
18.77
49.96
72.45
86.76
94.29
96.64
95.19
90.99
84.76
77.0
68.09
58.35
48.29
38.56
29.92
22.99
18.07
14.97
13.1
11.58
9.25
4.82
-2.99
-15.02
-31.04
-49.24
-66.19
-77.58
-79.58
-70.37
-51.03
-25.33
1.52
24.54
40.56
48.71
50.05
46.62
40.38
32.71
24.36
15.75
7.31
-0.42
-6.9
-11.67
-14.54
-15.53
-14.79
-12.61
-9.33
-5.48
-1.79
0.76
1.05
-1.87
-8.34
-17.49
-26.98
-33.28
-32.63
-22.45
-2.52
24.66
54.53
81.99
103.06
115.89
120.81
119.52
114.04
106.01
96.43
85.94
75.04
64.21
53.78
43.79
34.07
24.4
14.67
5.0
-4.4
-13.44
-22.36
-31.73
-42.4
-55.22
-70.78
-88.9
-108.15
-125.66
-137.39
-139.17
-128.21
-104.37
-70.71
-32.68
3.63
33.34
54.03
65.77
70.24
69.54
65.28
58.5
49.93
40.44
31.11
23.05
17.09
13.49
11.95
11.81
12.35
12.96
13.26
13.0
11.86
9.33
4.7
-2.58
-12.33
-23.02
-31.72
-34.78
-29.03
-13.21
11.23
40.35
68.95
92.21
107.11
112.96
111.06
103.71
93.22
81.29
68.86
56.25
43.47
30.49
17.34
4.19
-8.64
-20.61
-31.05
-39.21
-44.49
-46.69
-46.34
-44.79
-44.16
-46.85
-54.8
-68.53
-86.46
-104.78
-118.31
-122.01
-112.68
-90.24
-57.84
-20.97
14.33
43.14
62.68
72.48
73.72
68.47
58.94
47.2
35.07
23.98
14.84
7.92
2.78
-1.45
-5.74
-10.81
-16.94
-24.0
-31.75
-40.04
-48.99
-59.03
-70.69
-84.24
-99.33
-114.62
-127.69
-135.52
-135.34
-125.72
-107.3
-82.89
-56.69
-32.98
-14.79
-3.21
2.59
4.51
4.58
4.13
3.64
2.96
1.8
0.08
-1.94
-3.8
-5.04
-5.36
-4.61
-2.79
0.08
3.82
8.04
12.04
14.7
14.71
10.77
2.21
-10.5
-25.35
-38.88
-46.92
-46.01
-34.67
-14.21
11.62
37.95
60.38
76.31
85.22
88.12
86.56
81.81
74.64
65.56
55.15
44.19
33.55
23.74
14.88
6.64
-1.37
-9.23
-16.57
-22.68
-26.75
-28.39
-27.82
-25.99
-24.34
-24.36
-27.09
-32.56
-39.53
-45.5
-47.28
-41.96
-27.97
-5.82
21.9
51.34
78.65
101.03
117.32
127.72
133.09
134.22
131.51
125.07
115.1
102.14
87.12
71.09
55.04
39.75
25.85
13.91
4.46
-2.1
-5.69
-6.59
-5.51
-3.45
-1.7
-1.56
-4.17
-9.96
-18.2
-26.83
-32.87
-33.39
-26.74
-13.35
4.24
22.26
37.11
46.49
49.86
48.08
42.63
34.87
25.66
15.47
4.67
-6.28
-16.78
-26.2
-34.1
-40.36
-45.2
-48.99
-52.16
-54.95
-57.44
-59.73
-62.16
-65.42
-70.39
-77.6
-86.53
-95.18
-100.31
-98.38
-86.82
-65.14
-35.19
-0.66
34.16
65.51
90.98
109.66
121.78
128.25
130.29
129.21
126.33
122.85
119.74
117.62
116.74
117.1
118.6
121.11
124.47
128.33
132.09
134.87
135.64
133.38
127.2
116.65
101.86
84.0
65.43
49.51
39.9
39.34
48.52
65.49
85.98
104.67
116.71
119.03
110.9
93.76
70.62
45.3
21.65
2.79
-9.51
-15.31
-16.49
-16.16
-17.63
-23.44
-34.78
-51.38
-71.97
-94.83
-118.27
-140.96
-162.27
-182.36
-202.11
-222.63
-244.39
-266.47
-286.29
-300.11
-304.43
-297.38
-279.65
-254.28
-225.52
-197.39
-172.52
-151.78
-134.8
-120.72
-108.83
-98.83
-90.62
-84.02
-78.55
-73.52
-68.27
-62.42
-56.01
-49.4
-43.09
-37.49
-32.83
-29.32
-27.23
-27.1
-29.49
-34.63
-41.73
-48.84
-52.99
-51.09
-41.11
-22.93
1.46
28.55
54.5
76.23
92.06
101.71
105.85
105.53
101.8
95.62
87.9
79.5
71.27
63.88
57.82
53.25
50.12
48.19
47.2
46.92
47.22
47.93
48.61
48.34
45.81
39.83
30.1
17.91
6.22
-1.01
-0.31
9.97
28.75
52.44
76.23
95.71
108.22
113.42
112.81
108.74
103.29
97.6
91.89
85.8
78.95
71.33
63.5
56.48
51.66
50.52
54.35
63.55
77.01
91.77
103.36
107.02
99.31
79.58
50.48
17.28
-13.8
-37.52
-51.09
-54.59
-50.39
-42.04
-33.02
-25.94
-22.18
-22.04
-25.02
-30.24
-36.7
-43.6
-50.34
-56.7
-62.82
-69.07
-75.83
-83.26
-91.06
-98.52
-104.74
-108.96
-110.93
-111.02
-110.28
-110.03
-111.59
-115.62
-121.74
-128.2
-132.15
-130.33
-120.18
-100.89
-73.99
-43.08
-12.81
12.66
30.85
41.39
45.73
46.11
44.58
42.37
39.81
36.76
33.0
28.53
23.62
18.59
13.63
8.66
3.45
-2.31
-8.82
-16.17
-24.42
-33.74
-44.41
-56.65
-70.18
-83.62
-94.38
-98.94
-93.93
-77.43
-50.03
-15.0
22.53
57.21
84.95
103.82
114.0
116.98
114.61
108.39
99.41
88.46
76.34
63.85
51.69
40.34
29.96
20.56
12.16
4.89
-1.05
-5.57
-8.85
-11.49
-14.44
-18.82
-25.56
-34.8
-45.5
-55.32
-61.06
-59.66
-49.43
-30.95
-7.18
17.34
37.88
50.96
55.24
51.48
41.93
29.37
16.25
4.32
-5.34
-12.17
-15.86
-16.25
-13.36
-7.41
1.1
11.44
22.72
34.07
44.77
54.14
61.5
65.96
66.41
61.81
51.7
36.8
19.23
2.27
-10.61
-16.76
-15.31
-7.34
4.63
17.71
29.65
39.31
46.6
51.82
55.13
56.21
54.43
49.23
40.57
29.08
15.99
2.72
-9.43
-19.55
-27.19
-32.27
-34.9
-35.38
-34.13
-31.79
-29.36
-28.13
-29.52
-34.5
-43.05
-53.63
-63.31
-68.46
-66.01
-54.66
-35.53
-11.89
11.98
32.28
46.81
55.24
58.68
58.71
56.56
52.81
47.49
40.55
32.09
22.53
12.48
2.52
-6.88
-15.44
-23.04
-29.64
-35.34
-40.34
-45.06
-50.14
-56.45
-64.93
-76.22
-90.18
-105.43
-119.24
-127.95
-128.07
-117.41
-96.15
-66.94
-34.19
-2.76
23.45
42.32
53.63
58.48
58.48
55.1
49.4
41.97
33.2
23.43
12.99
2.27
-8.32
-18.38
-27.5
-35.33
-41.52
-45.88
-48.43
-49.59
-50.16
-51.29
-54.09
-59.05
-65.46
-71.15
-72.88
-67.4
-52.77
-29.36
0.03
30.93
58.74
80.06
93.38
98.94
97.96
91.87
81.86
68.98
54.4
39.52
25.78
14.21
5.14
-1.8
-7.4
-12.26
-16.55
-19.94
-22.0
-22.6
-22.26
-22.22
-24.16
-29.75
-39.98
-54.56
-71.53
-87.26
-97.27
-97.44
-85.48
-61.85
-29.82
5.6
39.17
66.89
86.72
98.45
103.05
101.89
96.38
87.92
78.0
68.18
59.83
53.82
50.29
48.6
47.72
46.55
44.39
41.07
36.95
32.54
28.19
23.68
18.21
10.56
-0.37
-14.86
-31.83
-48.74
-61.98
-67.98
-64.42
-51.1
-30.15
-5.35
19.08
39.62
54.3
62.63
65.22
63.15
57.54
49.38
39.64
29.25
19.07
9.76
1.67
-5.11
-10.62
-14.88
-17.9
-19.7
-20.58
-21.2
-22.52
-25.66
-31.61
-40.98
-53.72
-68.78
-83.91
-95.85
-100.86
-95.86
-79.48
-52.89
-19.62
15.43
47.44
73.0
90.66
100.65
104.09
102.27
96.22
86.84
75.14
62.33
49.73
38.41
28.94
21.34
15.23
10.07
5.44
1.03
-3.36
-7.98
-13.27
-19.9
-28.62
-39.98
-53.8
-68.78
-82.39
-91.36
-92.71
-84.82
-68.18
-45.33
-20.04
3.92
23.79
38.22
47.07
50.87
50.21
45.58
37.43
26.41
13.5
0.01
-12.63
-23.1
-30.52
-34.57
-35.5
-34.04
-31.11
-27.65
-24.47
-22.31
-21.96
-24.21
-29.57
-37.81
-47.58
-56.31
-60.89
-58.66
-48.42
-31.1
-9.54
12.48
31.44
45.14
53.06
55.97
55.22
52.0
47.0
40.44
32.4
23.11
13.08
3.04
-6.19
-13.92
-19.72
-23.47
-25.34
-25.81
-25.56
-25.46
-26.54
-29.9
-36.47
-46.61
-59.55
-73.15
-84.07
-88.62
-84.02
-69.55
-46.99
-20.14
6.52
29.24
46.01
56.67
62.37
64.6
64.58
62.93
59.85
55.39
49.72
43.2
36.27
29.34
22.63
16.19
9.95
3.76
-2.52
-9.13
-16.46
-25.14
-35.91
-49.31
-65.04
-81.49
-95.69
-103.94
-103.0
-91.39
-70.16
-42.7
-13.76
12.18
32.1
45.03
51.73
53.86
53.1
50.66
47.15
42.8
37.76
32.22
26.43
20.72
15.39
10.73
6.97
4.22
2.45
1.45
0.71
-0.52
-3.17
-7.97
-15.02
-23.28
-30.4
-33.32
-29.23
-16.84
2.9
26.84
50.65
70.19
82.77
87.67
85.83
79.07
69.3
58.02
46.13
34.08
22.07
10.16
-1.5
-12.67
-23.01
-32.11
-39.74
-45.92
-51.0
-55.56
-60.33
-66.13
-73.76
-83.8
-96.2
-109.76
-121.87
-128.84
-126.94
-113.81
-89.67
-57.55
-22.56
9.8
35.24
51.76
59.68
60.91
57.88
52.68
46.75
40.9
35.62
31.3
28.24
26.57
26.12
26.37
26.59
26.06
24.36
21.53
17.95
13.98
9.6
4.11
-3.64
-14.54
-28.39
-43.34
-56.06
-62.64
-60.12
-47.57
-26.68
-1.17
24.41
46.12
61.6
70.29
73.03
71.23
66.29
59.22
50.65
41.12
31.22
21.69
13.23
6.34
1.1
-2.8
-5.96
-9.0
-12.43
-16.64
-22.01
-29.03
-38.16
-49.43
-61.9
-73.3
-80.24
-79.08
-67.23
-44.35
-12.8
22.84
57.17
85.5
105.04
115.29
117.52
113.91
106.59
97.18
86.65
75.58
64.37
53.43
43.15
33.78
25.39
17.84
10.91
4.37
-1.99
-8.43
-15.48
-24.0
-34.99
-49.04
-65.55
-82.14
-94.87
-99.32
-92.2
-72.95
-44.24
-11.29
19.96
44.73
60.66
67.88
68.1
63.5
55.79
46.0
34.79
22.76
10.62
-0.81
-10.91
-19.37
-26.2
-31.68
-36.16
-39.94
-43.26
-46.41
-49.87
-54.29
-60.24
-67.58
-75.01
-79.87
-78.88
-69.33
-50.51
-24.39
4.73
31.66
52.0
63.49
66.33
62.67
55.42
47.36
40.42
35.52
32.63
31.02
29.58
27.28
23.64
18.87
13.76
9.28
6.05
4.08
2.8
1.23
-1.68
-6.87
-14.83
-25.22
-36.57
-46.22
-50.97
-48.1
-36.59
-17.76
4.99
27.31
45.46
57.41
63.09
63.9
61.65
57.81
53.17
48.02
42.48
36.81
31.4
26.67
22.97
20.52
19.4
19.54
20.66
22.25
23.51
23.43
20.87
14.72
4.1
-11.22
-30.29
-50.62
-68.35
-79.14
-79.61
-68.72
-48.42
-23.05
2.18
23.1
37.75
46.55
51.38
54.29
56.54
58.32
59.11
58.25
55.39
50.57
44.19
36.76
28.82
20.86
13.28
6.32
-0.11
-6.43
-13.41
-22.07
-33.35
-47.62
-64.12
-80.55
-93.33
-98.53
-93.28
-77.1
-52.42
-23.99
2.73
23.39
36.01
41.16
41.19
38.97
36.84
36.1
37.04
39.21
41.85
44.07
45.19
44.83
42.98
39.9
35.9
31.06
25.15
17.68
8.11
-3.93
-18.43
-34.84
-51.79
-66.9
-76.91
-78.3
-68.31
-46.21
-14.03
23.61
60.68
91.59
112.85
123.85
126.52
124.03
119.36
114.21
108.91
102.87
95.45
86.45
76.18
65.13
53.52
41.2
27.85
13.45
-1.34
-15.27
-27.11
-36.25
-43.14
-49.1
-55.58
-63.37
-71.94
-79.61
-84.18
-84.13
-79.36
-71.37
-62.68
-55.76
-52.1
-51.63
-52.9
-53.63
-51.84
-46.55
-38.04
-27.54
-16.76
-7.39
-0.64
3.09
4.41
4.19
3.32
2.46
2.03
2.41
3.77
5.99
8.7
11.55
13.61
14.34
14.44
16.35
23.79
39.76
64.74
95.86
128.06
154.78
170.79
173.99
165.69
149.78
130.32
110.07
87.85
64.93
43.94
27.87
18.01
11.21
3.76
-7.89
-26.75
-54.84
-88.56
-123.63
-155.06
-178.8
-193.18
-199.29
-200.54
-200.61
-200.96
-199.47
-192.56
-177.11
-152.68
-122.23
-90.67
-62.91
-41.75
-26.99
-16.05
-6.6
2.29
9.76
13.75
12.52
5.56
-6.1
-20.24
-34.08
-45.62
-53.84
-58.72
-60.77
-60.6
-58.71
-55.54
-51.63
-47.58
-44.07
-41.42
-39.1
-35.68
-29.19
-17.94
-1.42
19.27
41.65
62.65
79.64
91.18
97.17
98.48
96.31
91.65
85.09
76.95
67.55
57.41
47.28
37.87
29.72
22.94
17.3
12.4
7.82
3.24
-1.66
-7.26
-14.18
-23.07
-34.2
-47.04
-59.8
-69.66
-73.54
-69.23
-56.53
-37.51
-15.94
4.02
19.35
28.93
33.53
34.92
34.74
33.77
31.87
28.43
23.01
15.79
7.54
-0.61
-7.63
-12.86
-16.17
-17.88
-18.67
-19.45
-21.3
-25.23
-31.99
-41.62
-53.13
-64.46
-72.87
-75.84
-72.05
-61.91
-47.38
-31.13
-15.34
-1.01
12.12
24.92
37.98
51.09
63.26
73.24
80.12
83.75
84.63
83.68
81.72
79.24
76.23
72.42
67.37
60.78
52.54
42.84
32.09
20.98
10.39
1.44
-4.66
-6.87
-4.75
1.28
9.75
18.48
25.15
28.01
26.43
20.97
13.14
4.73
-2.73
-8.41
-12.19
-14.41
-15.55
-15.98
-15.87
-15.34
-14.6
-14.03
-14.1
-15.31
-18.04
-22.54
-28.83
-36.64
-45.15
-53.03
-58.45
-59.54
-55.0
-44.55
-29.24
-11.13
7.29
23.74
36.66
45.42
50.13
51.35
49.79
46.12
40.94
34.77
28.13
21.47
15.25
9.82
5.42
2.04
-0.59
-3.06
-6.19
-10.83
-17.53
-26.28
-36.15
-45.35
-51.56
-52.49
-46.64
-33.9
-15.67
5.57
27.0
46.42
62.83
76.44
88.17
98.81
108.42
116.15
120.68
120.99
117.12
110.36
102.89
96.98
94.14
94.62
97.52
101.28
104.38
105.81
105.25
103.02
100.12
98.26
99.77
107.21
122.38
145.13
172.59
199.52
219.57
227.46
220.75
200.44
170.23
134.77
97.77
60.91
23.99
-14.07
-53.88
-94.77
-134.81
-171.68
-203.61
-230.11
-251.86
-270.09
-285.98
-300.2
-312.94
-324.06
-333.05
-338.84
-339.6
-333.01
-317.12
-291.45
-257.68
-219.51
-181.47
-147.46
-119.68
-98.47
-82.99
-72.17
-65.27
-61.96
-61.8
-63.89
-66.74
-68.64
-68.17
-64.77
-58.84
-51.6
-44.63
-39.41
-37.01
-37.89
-41.77
-47.63
-53.71
-57.81
-57.76
-52.1
-40.62
-24.53
-6.03
12.43
28.88
42.26
52.22
58.72
61.55
60.32
54.8
45.43
33.61
21.42
10.99
3.78
0.07
-0.94
-0.73
-0.94
-2.83
-7.09
-13.8
-22.37
-31.59
-39.7
-44.71
-44.99
-39.75
-29.45
-15.56
-0.06
15.21
28.99
40.67
49.94
56.55
60.07
60.09
56.46
49.6
40.51
30.55
21.08
13.14
7.12
2.8
-0.64
-4.31
-9.33
-16.35
-25.16
-34.52
-42.21
-45.71
-42.94
-33.24
-17.63
1.38
20.71
37.74
51.12
60.9
68.01
73.38
77.29
79.3
78.57
74.54
67.32
57.78
47.1
36.29
25.85
15.68
5.33
-5.68
-17.6
-30.3
-43.16
-55.04
-64.35
-69.21
-67.97
-59.81
-45.19
-25.82
-4.22
17.13
36.59
53.49
67.88
79.81
88.75
93.57
93.08
86.68
74.97
59.68
43.17
27.54
14.06
2.93
-6.47
-15.11
-23.87
-33.28
-43.47
-54.06
-64.05
-71.83
-75.38
-72.84
-63.23
-47.0
-26.03
-3.02
19.36
39.26
55.85
69.0
78.72
84.77
86.78
84.75
79.48
72.5
65.64
60.22
56.4
53.25
49.17
42.71
33.15
20.65
6.13
-8.99
-22.91
-33.58
-38.95
-37.54
-29.07
-14.85
2.47
19.71
34.24
44.66
50.77
53.01
51.73
46.85
38.18
26.04
11.81
-2.16
-13.14
-18.91
-18.64
-13.07
-4.28
4.98
12.14
15.44
14.21
9.05
1.56
-5.94
-10.93
-11.35
-6.13
4.56
19.36
36.22
53.04
68.11
80.27
88.76
92.92
92.18
86.2
75.2
60.2
42.84
25.07
8.55
-5.67
-17.28
-26.58
-34.21
-40.86
-46.99
-52.53
-56.69
-58.03
-54.89
-46.14
-31.93
-13.98
4.8
21.39
33.72
41.32
45.14
46.71
47.12
46.48
44.07
39.14
31.6
22.35
12.93
4.79
-1.36
-5.89
-10.02
-15.28
-22.88
-33.26
-45.77
-58.68
-69.41
-75.08
-73.38
-63.39
-46.02
-23.78
0.08
22.69
42.43
59.04
73.1
85.06
94.67
100.94
102.68
99.3
91.3
80.19
67.94
56.28
46.07
37.26
29.06
20.43
10.57
-0.77
-13.2
-25.7
-36.81
-45.03
-49.16
-48.7
-44.04
-36.29
-26.89
-17.07
-7.54
1.47
9.87
17.33
23.15
26.54
27.1
25.22
22.01
18.88
16.84
16.05
15.67
14.22
10.2
2.61
-8.59
-22.3
-36.44
-48.28
-55.2
-55.44
-48.8
-36.7
-21.77
-6.92
5.58
14.62
20.14
22.6
22.36
19.51
14.06
6.46
-2.16
-10.13
-15.82
-18.29
-17.74
-15.37
-12.92
-11.98
-13.41
-17.16
-22.35
-27.56
-31.25
-32.18
-29.69
-23.89
-15.5
-5.65
4.54
14.27
23.03
30.47
36.07
39.1
38.81
34.81
27.43
17.82
7.53
-1.99
-9.93
-16.29
-21.67
-26.89
-32.56
-38.81
-45.13
-50.35
-52.86
-50.97
-43.52
-30.47
-13.11
6.15
24.56
39.87
50.87
57.44
60.13
59.53
55.99
49.73
41.13
31.05
20.77
11.64
4.64
0.01
-2.82
-5.01
-7.89
-12.54
-19.36
-27.82
-36.49
-43.36
-46.47
-44.59
-37.66
-26.78
-13.8
-0.6
11.44
21.65
29.81
35.8
39.31
39.96
37.65
32.9
26.85
20.93
16.28
13.21
11.11
8.74
4.76
-1.73
-10.8
-21.68
-32.94
-42.78
-49.44
-51.64
-49.03
-42.31
-33.1
-23.5
-15.33
-9.67
-6.58
-5.42
-5.34
-5.75
-6.51
-7.66
-9.17
-10.63
-11.46
-11.13
-9.53
-7.11
-4.74
-3.42
-4.05
-7.13
-12.6
-19.67
-26.9
-32.41
-34.43
-31.88
-24.85
-14.53
-2.72
8.82
18.93
27.09
33.13
36.81
37.65
35.2
29.42
20.92
10.94
0.85
-8.32
-16.16
-22.8
-28.67
-34.18
-39.52
-44.5
-48.54
-50.71
-49.91
-45.3
-36.72
-24.88
-11.32
2.17
14.1
23.67
30.79
35.73
38.69
39.57
38.14
34.39
28.76
22.13
15.49
9.48
4.1
-1.29
-7.75
-16.23
-27.13
-39.86
-52.71
-63.19
-68.63
-67.19
-58.53
-44.08
-26.53
-8.81
6.94
19.88
30.35
38.98
45.95
50.63
51.94
49.14
42.48
33.3
23.5
14.7
7.67
2.1
-3.11
-9.2
-17.03
-26.6
-36.89
-45.99
-51.62
-51.81
-45.71
-34.02
-18.82
-2.84
11.51
22.93
31.29
37.14
41.03
42.98
42.63
39.62
34.17
27.28
20.4
14.86
11.27
9.32
7.91
5.66
1.47
-5.09
-13.51
-22.46
-30.15
-34.86
-35.46
-31.8
-24.67
-15.49
-5.77
3.33
11.23
17.78
22.96
26.6
28.29
27.5
23.96
17.87
9.9
1.03
-7.8
-16.06
-23.71
-31.16
-38.78
-46.44
-53.14
-57.07
-56.16
-49.0
-35.52
-17.27
3.13
22.84
39.83
53.19
63.06
69.97
74.24
75.79
74.25
69.46
61.79
52.15
41.72
31.61
22.53
14.63
7.58
0.69
-6.77
-15.23
-24.44
-33.36
-40.46
-44.19
-43.67
-39.03
-31.22
-21.59
-11.31
-1.13
8.51
17.05
23.62
27.14
26.84
22.81
16.16
8.67
2.09
-2.57
-5.42
-7.47
-10.15
-14.64
-21.34
-29.62
-37.93
-44.22
-46.54
-43.74
-35.95
-24.59
-12.01
-0.73
7.27
11.06
10.72
6.99
0.86
-6.69
-14.76
-22.36
-28.44
-32.04
-32.62
-30.31
-25.94
-20.84
-16.42
-13.71
-13.08
-14.06
-15.55
-15.99
-13.91
-8.4
0.57
12.04
24.35
35.75
44.96
51.49
55.56
57.68
58.22
57.24
54.62
50.39
45.03
39.34
34.12
29.7
25.63
20.76
13.85
4.23
-7.5
-19.38
-28.53
-32.09
-28.32
-17.25
-0.71
18.42
37.22
53.59
66.61
76.19
82.56
85.77
85.62
81.9
74.84
65.32
54.79
44.85
36.73
30.87
26.87
23.76
20.46
16.36
11.62
7.05
3.7
2.27
2.72
4.23
5.73
6.46
6.33
5.87
5.82
6.51
7.73
8.79
8.96
7.96
6.07
3.98
2.4
1.7
1.68
1.64
0.6
-2.42
-7.88
-15.43
-23.68
-30.49
-33.53
-31.25
-23.5
-11.7
1.66
13.92
23.1
28.33
29.61
27.38
22.0
13.73
2.96
-9.55
-22.43
-34.07
-43.04
-48.58
-50.86
-50.75
-49.38
-47.62
-45.63
-42.98
-38.91
-32.92
-25.09
-16.27
-7.84
-1.18
2.8
3.98
2.95
0.61
-2.25
-5.24
-8.38
-11.83
-15.71
-20.05
-24.93
-30.66
-37.79
-46.82
-57.84
-70.25
-82.73
-93.43
-100.41
-102.0
-97.16
-85.81
-68.92
-48.48
-27.06
-7.24
9.08
20.94
28.33
31.77
31.87
29.13
24.02
17.13
9.39
1.9
-4.37
-8.91
-11.83
-13.83
-15.94
-19.04
-23.53
-29.02
-34.5
-38.65
-40.55
-39.97
-37.43
-33.73
-29.44
-24.56
-18.72
-11.71
-3.93
3.45
8.97
11.57
11.18
8.74
5.73
3.43
2.34
2.03
1.46
-0.51
-4.53
-10.34
-16.69
-21.57
-22.85
-19.11
-10.11
2.9
17.59
31.28
41.78
47.86
49.28
46.44
39.94
30.41
18.61
5.62
-7.08
-17.89
-25.65
-29.99
-31.45
-31.14
-30.07
-28.6
-26.29
-22.15
-15.32
-5.65
6.05
18.17
28.85
36.57
40.45
40.32
36.52
29.64
20.42
9.76
-1.33
-11.7
-20.34
-26.69
-30.82
-33.49
-35.88
-39.27
-44.67
-52.53
-62.56
-73.62
-83.8
-90.84
-92.64
-87.99
-77.01
-61.28
-43.22
-25.36
-9.55
3.37
13.35
20.69
25.52
27.73
27.2
24.15
19.34
13.93
9.01
5.2
2.34
-0.3
-3.55
-7.72
-12.1
-14.95
-14.09
-7.72
4.72
22.25
42.56
62.78
80.33
93.53
101.73
105.06
104.06
99.39
91.77
82.02
71.04
59.8
49.18
39.9
32.35
26.61
22.32
18.94
15.95
13.24
11.3
11.12
13.78
19.89
29.22
40.79
53.18
65.05
75.45
83.84
89.82
93.02
93.0
89.42
82.29
71.93
58.92
43.85
27.12
8.93
-10.64
-31.36
-52.5
-72.68
-89.81
-101.46
-105.56
-101.11
-88.75
-70.71
-50.22
-30.53
-14.05
-1.89
6.01
10.32
11.78
10.9
8.02
3.5
-2.0
-7.55
-12.24
-15.47
-17.31
-18.38
-19.57
-21.42
-23.74
-25.57
-25.62
-22.98
-17.71
-10.96
-4.46
0.21
2.3
2.06
0.46
-1.4
-2.74
-3.28
-3.13
-2.61
-2.06
-1.77
-1.96
-2.83
-4.54
-7.25
-11.14
-16.26
-22.31
-28.43
-33.18
-34.88
-32.23
-24.87
-13.55
0.09
14.21
27.28
38.32
46.76
52.07
53.66
50.91
43.61
32.24
18.02
2.66
-12.08
-24.84
-34.93
-42.38
-47.63
-51.09
-52.73
-51.92
-47.63
-39.09
-26.34
-10.58
6.08
21.39
33.71
42.52
48.3
51.86
53.73
53.91
52.05
47.99
42.18
35.73
29.91
25.6
22.77
20.58
17.75
13.23
6.74
-1.17
-9.34
-16.45
-21.43
-23.8
-23.65
-21.63
-18.71
-16.0
-14.4
-14.44
-16.1
-18.88
-21.98
-24.62
-26.29
-26.86
-26.65
-26.28
-26.55
-28.34
-32.4
-39.05
-47.87
-57.52
-65.89
-70.62
-69.92
-63.23
-51.44
-36.69
-21.56
-8.27
1.87
8.57
12.23
13.5
12.9
10.77
7.39
3.19
-1.28
-5.45
-9.12
-12.56
-16.55
-21.83
-28.6
-35.98
-42.14
-44.85
-42.47
-34.7
-22.81
-9.1
3.9
14.37
21.51
25.37
26.41
25.0
21.3
15.37
7.52
-1.53
-10.65
-18.65
-24.6
-28.13
-29.62
-29.9
-29.87
-29.97
-29.87
-28.58
-24.99
-18.47
-9.34
1.19
11.53
20.33
26.92
31.35
34.02
35.27
35.13
33.42
30.0
25.06
19.21
13.2
7.7
2.83
-1.9
-7.43
-14.64
-23.73
-33.75
-42.71
-48.23
-48.51
-43.17
-33.42
-21.56
-10.0
-0.36
6.89
12.13
16.0
18.9
20.87
21.76
21.55
20.51
19.03
17.36
15.39
12.68
8.76
3.56
-2.18
-6.88
-8.53
-5.43
3.07
16.1
31.49
46.43
58.48
66.21
69.38
68.64
64.83
58.55
50.08
39.62
27.59
14.83
2.36
-8.89
-18.46
-26.43
-33.22
-39.12
-43.9
-46.65
-46.1
-41.23
-31.88
-19.05
-4.73
8.78
19.67
27.15
31.51
33.7
34.73
35.07
34.64
33.0
29.95
25.78
21.31
17.47
14.73
12.74
10.4
6.39
-0.05
-8.59
-17.84
-25.84
-30.93
-32.38
-30.54
-26.51
-21.56
-16.61
-12.09
-8.12
-4.78
-2.28
-0.95
-0.99
-2.34
-4.58
-7.13
-9.43
-11.17
-12.4
-13.38
-14.33
-15.11
-15.12
-13.34
-8.74
-0.71
10.55
24.14
38.64
52.62
64.96
74.98
82.29
86.71
88.14
86.64
82.47
76.18
68.42
59.84
50.89
41.88
32.96
24.33
16.33
9.58
4.83
2.83
3.99
8.12
14.35
21.26
27.28
31.25
32.68
31.89
29.74
27.23
25.13
23.84
23.39
23.67
24.69
26.64
29.83
34.48
40.53
47.5
54.56
60.85
65.74
69.05
70.97
71.89
72.07
71.58
70.28
68.14
65.45
62.95
61.62
62.45
66.01
72.27
80.54
89.42
96.99
100.91
98.8
88.75
70.07
43.76
12.6
-19.36
-47.9
-69.76
-83.53
-89.75
-90.4
-88.0
-84.89
-82.67
-82.24
-83.97
-87.89
-93.81
-101.27
-109.53
-117.57
-124.4
-129.22
-131.75
-132.26
-131.36
-129.67
-127.33
-123.72
-117.54
-107.32
-92.17
-72.45
-49.99
-27.74
-8.84
4.35
10.89
11.24
6.73
-1.12
-11.06
-22.16
-33.49
-43.89
-51.98
-56.58
-57.26
-54.63
-50.24
-45.96
-43.15
-42.18
-42.24
-41.9
-39.79
-35.26
-28.56
-20.61
-12.43
-4.63
2.75
10.08
17.73
25.69
33.45
40.26
45.34
48.16
48.41
45.92
40.51
32.1
20.97
7.99
-5.25
-16.77
-24.7
-27.95
-26.55
-21.64
-15.01
-8.5
-3.51
-0.68
-0.06
-1.27
-3.88
-7.59
-12.21
-17.62
-23.56
-29.55
-34.95
-39.12
-41.71
-42.83
-43.04
-42.98
-42.98
-42.77
-41.54
-38.27
-32.34
-23.88
-13.81
-3.52
5.58
12.48
16.64
17.97
16.63
12.93
7.33
0.49
-6.78
-13.51
-18.87
-22.36
-24.05
-24.53
-24.71
-25.34
-26.61
-27.95
-28.35
-26.86
-23.13
-17.68
-11.58
-5.99
-1.54
1.73
4.21
6.28
8.04
9.35
9.98
9.95
9.51
8.93
8.26
7.12
4.91
1.11
-4.25
-10.41
-16.07
-19.81
-20.64
-18.27
-13.16
-6.26
1.44
9.07
16.08
22.02
26.52
29.19
29.75
28.22
25.0
20.81
16.43
12.32
8.5
4.58
0.01
-5.36
-11.02
-15.66
-17.51
-14.88
-6.85
6.25
22.77
40.06
55.14
65.44
69.37
66.6
57.97
45.17
30.23
15.12
1.47
-9.62
-17.64
-22.71
-25.49
-27.05
-28.5
-30.62
-33.52
-36.55
-38.58
-38.53
-35.85
-30.8
-24.3
-17.42
-10.96
-5.16
0.16
5.26
10.17
14.56
18.02
20.32
21.66
22.59
23.73
25.32
27.05
28.07
27.45
24.59
19.66
13.61
7.79
3.52
1.59
2.14
4.76
8.75
13.36
17.8
21.33
23.25
23.02
20.53
16.18
10.76
5.19
0.14
-4.3
-8.5
-13.05
-18.27
-23.75
-28.29
-30.1
-27.49
-19.45
-6.15
11.06
29.99
48.23
63.62
74.53
79.89
79.17
72.39
60.23
44.08
25.93
8.0
-7.72
-20.07
-28.84
-34.77
-39.05
-42.74
-46.24
-49.11
-50.34
-48.84
-44.09
-36.47
-27.21
-18.01
-10.42
-5.48
-3.48
-4.18
-6.99
-11.32
-16.58
-22.29
-27.93
-33.02
-37.25
-40.6
-43.3
-45.65
-47.61
-48.56
-47.34
-42.79
-34.37
-22.66
-9.31
3.5
13.96
21.23
25.57
27.92
29.21
29.89
29.76
28.41
25.57
21.49
16.79
12.17
8.0
4.22
0.53
-3.21
-6.59
-8.71
-8.51
-5.29
0.92
9.34
18.86
28.4
37.37
45.57
53.05
59.76
65.45
69.69
72.06
72.27
70.37
66.62
61.47
55.37
48.71
41.86
35.32
29.86
26.48
26.1
28.97
34.4
40.78
46.26
49.55
50.44
49.79
48.85
48.4
48.29
47.58
45.28
41.0
35.22
28.98
23.21
18.22
13.75
9.38
5.17
1.92
0.88
3.09
8.68
16.69
25.33
32.76
37.67
39.57
38.55
34.92
28.79
20.12
8.93
-4.33
-18.79
-33.33
-46.93
-58.94
-69.16
-77.59
-84.13
-88.37
-89.62
-87.21
-80.91
-71.23
-59.45
-47.24
-36.17
-27.24
-20.82
-16.75
-14.8
-14.87
-17.07
-21.43
-27.65
-35.0
-42.45
-49.05
-54.35
-58.41
-61.74
-64.74
-67.37
-68.93
-68.29
-64.36
-56.77
-46.06
-33.63
-21.22
-10.23
-1.39
5.32
10.28
13.8
15.87
16.25
14.77
11.64
7.48
3.0
-1.34
-5.71
-10.74
-17.08
-24.81
-33.08
-40.31
-44.78
-45.46
-42.44
-36.79
-29.97
-23.1
-16.58
-10.16
-3.43
3.65
10.53
16.24
19.94
21.43
21.3
20.6
20.24
20.42
20.56
19.69
17.23
13.65
10.66
10.71
16.07
27.86
45.62
67.51
91.05
114.01
134.98
153.62
170.29
185.49
199.18
210.34
216.91
216.15
205.32
182.29
146.07
97.16
37.84
-27.59
-93.05
-151.48
-196.37
-223.5
-232.14
-225.25
-208.26
-187.11
-166.42
-148.58
-133.91
-121.63
-110.85
-101.09
-92.16
-83.79
-75.44
-66.42
-56.38
-45.66
-35.34
-26.73
-20.64
-16.68
-13.28
-8.23
0.29
12.81
28.25
44.23
58.11
67.86
72.66
72.88
69.6
64.06
57.25
49.82
42.07
34.1
25.87
17.21
7.82
-2.56
-13.91
-25.75
-37.06
-46.46
-52.73
-55.28
-54.53
-51.73
-48.5
-46.24
-45.72
-47.11
-50.22
-54.87
-61.1
-69.01
-78.61
-89.59
-101.4
-113.39
-125.09
-136.32
-147.1
-157.44
-167.1
-175.3
-180.77
-181.86
-177.01
-165.27
-146.74
-122.74
-95.46
-67.32
-40.37
-15.88
5.57
23.85
38.91
50.69
59.28
65.02
68.62
70.86
72.28
73.01
72.9
71.9
70.43
69.42
69.95
72.81
78.01
84.85
92.21
99.09
104.91
109.57
113.19
115.78
117.11
116.76
114.37
109.91
103.68
96.25
88.12
79.54
70.52
61.07
51.54
42.78
35.98
32.18
31.8
34.46
39.11
44.67
50.53
56.71
63.66
71.76
80.88
90.36
99.17
106.29
110.99
112.78
111.36
106.47
97.98
86.04
71.27
54.81
38.17
22.93
10.37
1.2
-4.59
-7.75
-9.52
-11.33
-14.48
-19.74
-27.33
-36.96
-48.05
-60.0
-72.32
-84.67
-96.8
-108.42
-119.29
-129.13
-137.58
-144.05
-147.57
-146.89
-140.79
-128.58
-110.51
-87.93
-62.88
-37.63
-14.11
6.42
23.32
36.35
45.55
51.11
53.43
53.14
50.94
47.49
43.23
38.33
32.85
26.88
20.74
15.05
10.67
8.44
8.88
11.95
16.98
22.83
28.19
32.02
33.82
33.75
32.4
30.44
28.35
26.23
23.93
21.21
17.97
14.31
10.47
6.77
3.55
1.28
0.65
2.59
8.03
17.52
30.89
47.19
64.86
82.14
97.48
109.76
118.23
122.44
122.1
117.06
107.53
94.12
77.99
60.61
43.48
27.78
14.07
2.35
-7.69
-16.3
-23.47
-28.98
-32.68
-34.75
-35.78
-36.52
-37.54
-39.05
-40.85
-42.65
-44.28
-45.8
-47.45
-49.41
-51.67
-54.09
-56.44
-58.62
-60.74
-63.14
-66.17
-69.99
-74.19
-77.71
-79.02
-76.6
-69.64
-58.45
-44.41
-29.46
-15.36
-3.18
6.81
14.8
21.08
25.75
28.77
30.23
30.47
29.96
29.13
28.1
26.64
24.44
21.44
18.03
15.03
13.33
13.49
15.5
18.81
22.6
26.05
28.63
30.06
30.31
29.38
27.3
24.08
19.8
14.71
9.22
3.93
-0.59
-3.92
-5.91
-6.58
-5.93
-3.7
0.6
7.53
17.26
29.24
42.21
54.52
64.7
71.94
76.14
77.68
77.02
74.43
69.98
63.76
56.07
47.43
38.44
29.53
20.84
12.3
3.95
-3.86
-10.3
-14.32
-15.1
-12.45
-7.05
-0.31
6.12
10.83
13.01
12.5
9.52
4.35
-2.79
-11.73
-22.11
-33.26
-44.29
-54.44
-63.43
-71.67
-80.02
-89.21
-99.21
-108.83
-115.93
-118.12
-113.69
-102.38
-85.49
-65.42
-44.75
-25.51
-8.77
5.15
16.21
24.35
29.35
31.16
30.17
27.31
23.84
20.77
18.51
16.7
14.54
11.38
7.07
2.16
-2.35
-5.56
-7.0
-6.83
-5.62
-4.04
-2.51
-1.04
0.61
2.81
5.84
9.81
14.72
20.48
26.94
33.81
40.66
46.78
51.28
53.2
51.74
46.58
38.03
27.08
15.22
3.97
-5.53
-12.88
-18.4
-22.9
-27.16
-31.66
-36.34
-40.79
-44.42
-46.8
-47.73
-47.19
-45.28
-42.16
-38.03
-33.18
-28.04
-23.1
-18.78
-15.2
-12.08
-8.82
-4.55
1.42
9.37
18.9
28.93
38.04
44.91
48.74
49.43
47.53
43.79
38.85
32.98
26.24
18.71
10.72
2.99
-3.71
-8.83
-12.36
-14.74
-16.64
-18.48
-20.19
-21.27
-21.02
-18.91
-14.8
-9.0
-2.08
5.29
12.52
19.21
25.17
30.45
35.21
39.66
43.85
47.63
50.72
52.8
53.65
53.1
50.9
46.72
40.18
31.16
19.97
7.46
-5.26
-17.13
-27.41
-35.72
-41.88
-45.67
-46.84
-45.26
-41.13
-35.15
-28.39
-22.08
-17.28
-14.66
-14.45
-16.54
-20.61
-26.19
-32.72
-39.48
-45.69
-50.6
-53.7
-54.91
-54.67
-53.73
-52.91
-52.77
-53.39
-54.4
-55.32
-55.79
-55.84
-55.78
-56.04
-56.88
-58.34
-60.33
-62.78
-65.69
-69.05
-72.51
-75.23
-75.97
-73.45
-66.91
-56.41
-42.9
-27.78
-12.38
2.44
16.36
29.33
41.23
51.74
60.43
66.92
71.13
73.27
73.64
72.46
69.82
65.61
59.75
52.32
43.64
34.28
25.06
16.88
10.53
6.51
4.8
4.88
5.94
7.2
8.19
8.92
9.74
10.99
12.8
14.97
17.05
18.58
19.22
18.79
17.19
14.36
10.37
5.51
0.44
-3.97
-6.9
-7.9
-7.04
-4.94
-2.39
-0.03
1.81
3.06
3.68
3.49
2.14
-0.64
-4.78
-9.68
-14.33
-17.58
-18.55
-16.89
-12.83
-7.04
-0.37
6.5
13.21
19.82
26.66
34.13
42.44
51.4
60.48
68.86
75.76
80.56
82.93
82.7
79.79
74.14
65.86
55.4
43.64
31.78
21.03
12.25
5.62
0.69
-3.34
-7.13
-10.85
-14.08
-16.01
-15.9
-13.51
-9.28
-4.26
0.26
3.15
3.75
1.91
-2.09
-7.76
-14.62
-22.23
-30.2
-38.1
-45.51
-52.06
-57.63
-62.33
-66.46
-70.31
-73.85
-76.69
-78.17
-77.6
-74.58
-69.16
-61.76
-52.97
-43.36
-33.35
-23.22
-13.2
-3.52
5.59
13.89
21.21
27.44
32.52
36.46
39.3
41.07
41.72
41.07
38.92
35.28
30.54
25.58
21.57
19.56
20.09
22.94
27.24
31.82
35.64
37.99
38.62
37.59
35.1
31.43
26.96
22.19
17.67
13.89
11.0
8.75
6.52
3.52
-0.73
-6.17
-12.01
-17.02
-20.05
-20.52
-18.71
-15.66
-12.73
-11.04
-11.15
-13.01
-16.2
-20.22
-24.65
-29.18
-33.52
-37.31
-40.22
-42.02
-42.72
-42.55
-41.85
-40.82
-39.27
-36.64
-32.15
-25.21
-15.77
-4.5
7.38
18.49
27.73
34.61
39.18
41.87
43.11
43.16
42.07
39.83
36.52
32.44
27.95
23.4
18.94
14.35
9.31
3.52
-2.86
-9.12
-14.07
-16.53
-15.79
-11.92
-5.76
1.45
8.6
14.98
20.32
24.57
27.58
28.97
28.25
25.04
19.42
11.92
3.46
-5.02
-12.83
-19.7
-25.71
-31.0
-35.47
-38.63
-39.75
-38.24
-33.97
-27.57
-20.23
-13.35
-8.06
-4.92
-3.78
-3.99
-4.67
-4.98
-4.33
-2.44
0.68
4.74
9.22
13.48
16.83
18.65
18.6
16.7
13.54
10.13
7.66
7.06
8.58
11.59
14.86
16.97
16.84
14.1
9.07
2.53
-4.58
-11.46
-17.47
-22.16
-25.19
-26.44
-26.09
-24.6
-22.66
-20.94
-19.77
-18.97
-17.88
-15.57
-11.27
-4.72
3.59
12.49
20.48
26.18
28.73
28.01
24.6
19.53
13.94
8.71
4.34
0.87
-2.02
-4.83
-8.04
-11.97
-16.65
-21.77
-26.64
-30.3
-31.62
-29.63
-23.78
-14.22
-1.83
11.95
25.49
37.37
46.7
53.22
57.17
59.08
59.46
58.62
56.64
53.47
49.08
43.56
37.14
30.1
22.65
14.91
7.03
-0.58
-7.12
-11.52
-12.73
-10.26
-4.46
3.44
11.69
18.59
23.02
24.66
23.82
21.09
16.94
11.53
4.77
-3.41
-12.83
-22.93
-32.86
-41.8
-49.17
-54.8
-58.83
-61.43
-62.6
-62.02
-59.26
-54.02
-46.36
-36.75
-26.0
-14.94
-4.23
5.72
14.74
22.74
29.6
35.16
39.25
41.73
42.49
41.44
38.42
33.19
25.53
15.41
3.25
-9.84
-22.19
-31.83
-37.06
-36.97
-31.75
-22.64
-11.55
-0.51
8.85
15.6
19.54
21.0
20.64
19.2
17.36
15.61
14.14
12.75
10.79
7.34
1.54
-6.99
-17.86
-29.89
-41.42
-50.83
-57.02
-59.72
-59.27
-56.37
-51.64
-45.4
-37.75
-28.75
-18.69
-8.18
1.9
10.6
17.24
21.5
23.58
24.03
23.61
22.93
22.42
22.22
22.42
23.22
25.0
28.19
32.96
39.01
45.46
51.19
55.19
56.94
56.5
54.31
50.9
46.64
41.7
36.15
30.18
24.16
18.53
13.71
9.81
6.61
3.54
-0.09
-4.86
-10.89
-17.71
-24.35
-29.65
-32.71
-33.28
-31.81
-29.32
-26.93
-25.51
-25.28
-25.9
-26.6
-26.51
-24.96
-21.64
-16.67
-10.58
-4.18
1.59
5.88
8.1
8.1
6.3
3.66
1.51
1.14
3.44
8.51
15.62
23.45
30.53
35.72
38.54
39.17
38.28
36.65
34.94
33.55
32.6
32.05
31.69
31.26
30.46
29.01
26.71
23.47
19.3
14.37
8.97
3.53
-1.43
-5.49
-8.34
-9.94
-10.43
-10.09
-9.27
-8.41
-8.04
-8.76
-11.16
-15.55
-21.75
-28.98
-36.02
-41.5
-44.28
-43.78
-40.05
-33.69
-25.67
-17.11
-9.01
-2.03
3.65
8.27
12.38
16.43
20.53
24.27
26.89
27.57
25.83
21.68
15.66
8.6
1.4
-5.16
-10.46
-14.12
-15.93
-16.03
-14.88
-13.31
-12.22
-12.32
-13.79
-16.18
-18.54
-19.84
-19.42
-17.27
-14.06
-10.89
-8.91
-8.89
-11.11
-15.31
-20.92
-27.24
-33.64
-39.55
-44.53
-48.28
-50.58
-51.38
-50.77
-49.02
-46.51
-43.66
-40.77
-37.91
-34.79
-30.77
-25.16
-17.41
-7.46
4.19
16.48
28.12
37.86
44.72
48.23
48.38
45.57
40.48
33.91
26.71
19.64
13.32
8.11
4.09
1.01
-1.63
-4.32
-7.3
-10.38
-12.87
-13.87
-12.68
-9.11
-3.74
2.26
7.41
10.43
10.54
7.63
2.19
-4.89
-12.7
-20.51
-27.91
-34.86
-41.48
-47.92
-54.19
-60.05
-65.08
-68.67
-70.14
-68.87
-64.44
-56.82
-46.36
-33.77
-19.94
-5.76
8.06
20.94
32.38
41.91
49.02
53.26
54.38
52.51
48.15
42.14
35.48
29.2
24.1
20.66
18.94
18.64
19.34
20.68
22.57
25.26
29.18
34.66
41.6
49.35
56.66
61.92
63.55
60.43
52.19
39.41
23.57
6.66
-9.2
-22.3
-31.62
-37.01
-39.01
-38.67
-37.23
-35.94
-35.81
-37.39
-40.55
-44.34
-47.18
-47.24
-43.07
-34.13
-20.92
-4.88
12.21
28.73
43.58
56.25
66.62
74.77
80.79
84.78
86.76
86.66
84.37
79.66
72.35
62.44
50.38
37.03
23.69
11.75
2.48
-3.34
-5.54
-4.49
-1.04
3.82
9.09
13.84
17.23
18.55
17.21
13.0
6.16
-2.51
-11.85
-20.72
-28.44
-34.96
-40.82
-46.9
-53.88
-61.98
-70.72
-79.01
-85.35
-88.24
-86.5
-79.61
-67.86
-52.26
-34.25
-15.33
3.26
20.65
36.35
50.03
61.47
70.55
77.29
81.91
84.79
86.27
86.41
84.9
81.25
75.06
66.52
56.58
46.9
39.45
35.84
36.83
42.15
50.58
60.46
70.06
77.99
83.38
85.9
85.8
83.75
80.71
77.66
75.28
73.65
72.13
69.51
64.28
55.17
41.56
23.82
3.3
-17.91
-37.66
-54.37
-67.64
-78.3
-88.06
-98.67
-111.08
-124.94
-138.71
-150.27
-157.69
-159.95
-157.11
-149.98
-139.69
-127.18
-113.09
-97.99
-82.63
-68.04
-55.4
-45.58
-38.67
-33.86
-29.62
-24.29
-16.76
-6.96
4.19
15.12
24.31
30.75
34.23
35.23
34.68
33.5
32.32
31.37
30.46
29.22
27.4
25.19
23.31
22.72
24.22
27.89
32.76
37.06
38.82
36.61
30.21
20.63
9.62
-1.0
-10.1
-17.46
-23.78
-30.24
-38.17
-48.63
-62.32
-79.47
-99.73
-122.13
-145.0
-166.06
-182.74
-192.79
-194.89
-189.14
-176.92
-160.43
-141.79
-122.35
-102.42
-81.59
-59.42
-36.05
-12.46
9.89
29.56
45.68
58.07
67.13
73.42
77.49
79.76
80.65
80.62
80.2
79.74
79.29
78.55
77.11
74.77
71.86
69.16
67.55
67.42
68.32
69.03
68.08
64.43
57.86
48.98
38.74
28.01
17.34
7.02
-2.65
-11.25
-18.4
-23.94
-28.16
-31.65
-35.06
-38.78
-42.95
-47.53
-52.47
-57.74
-63.04
-67.56
-69.91
-68.46
-61.9
-49.91
-33.32
-13.84
6.46
25.74
42.7
56.52
66.7
73.0
75.56
74.99
72.46
69.34
66.86
65.61
65.53
66.13
66.88
67.59
68.44
70.06
73.25
78.79
87.21
98.61
112.32
126.76
139.69
148.66
151.88
148.79
140.35
128.65
116.12
104.76
95.56
88.5
82.89
78.0
73.41
69.24
65.94
64.02
63.69
64.72
66.59
68.73
70.84
72.99
75.53
78.73
82.49
86.2
88.8
89.04
85.85
78.62
67.5
53.49
38.49
24.93
15.29
11.31
13.44
20.51
29.91
38.21
41.92
38.34
26.14
5.78
-20.54
-49.29
-76.44
-98.44
-113.15
-120.21
-120.96
-117.88
-113.75
-111.07
-111.52
-115.88
-124.0
-134.96
-147.33
-159.44
-169.75
-177.18
-181.36
-182.68
-182.17
-181.08
-180.49
-180.72
-181.19
-180.58
-177.44
-170.94
-161.32
-149.88
-138.43
-128.43
-120.61
-114.79
-110.36
-106.84
-104.11
-102.38
-101.86
-102.51
-103.89
-105.37
-106.42
-106.76
-106.45
-105.75
-104.97
-104.15
-102.95
-100.6
-96.04
-88.36
-77.1
-62.56
-45.78
-28.24
-11.52
3.09
14.72
22.83
27.18
27.81
25.05
19.65
12.66
5.22
-1.75
-7.75
-12.78
-17.24
-21.58
-25.99
-30.07
-32.82
-32.8
-28.67
-19.71
-6.18
10.64
28.83
46.32
61.49
73.37
81.64
86.39
87.88
86.44
82.53
76.74
69.86
62.62
55.54
48.82
42.36
35.91
29.36
22.89
17.04
12.66
10.61
11.57
15.77
22.87
31.95
41.69
50.59
57.28
60.79
60.68
57.02
50.28
41.19
30.66
19.65
9.09
-0.32
-8.25
-14.9
-21.04
-27.65
-35.62
-45.17
-55.55
-65.16
-71.88
-73.87
-70.18
-61.11
-48.13
-33.31
-18.63
-5.43
5.74
15.02
22.8
29.43
35.08
39.77
43.48
46.12
47.4
46.71
43.16
35.8
24.14
8.58
-9.3
-26.95
-41.4
-50.1
-51.63
-46.03
-34.68
-19.77
-3.57
11.97
25.48
36.06
43.11
46.19
45.04
39.79
31.12
20.2
8.61
-2.11
-10.78
-16.88
-20.54
-22.3
-22.72
-22.1
-20.38
-17.26
-12.49
-6.06
1.72
10.33
19.16
27.6
35.09
41.07
45.07
46.79
46.3
44.07
40.9
37.67
35.05
33.27
32.07
30.77
28.43
24.2
17.65
9.03
-0.6
-9.55
-15.96
-18.37
-16.24
-10.15
-1.51
7.88
16.49
23.34
28.09
30.77
31.54
30.48
27.66
23.33
18.01
12.53
7.73
4.11
1.64
-0.27
-2.48
-5.6
-9.65
-13.89
-17.05
-17.87
-15.56
-10.11
-2.15
7.24
17.0
26.23
34.28
40.69
45.09
47.28
47.26
45.3
41.9
37.53
32.52
26.84
20.15
11.9
1.62
-10.85
-24.99
-39.5
-52.39
-61.37
-64.63
-61.38
-52.32
-39.34
-25.02
-11.79
-1.27
5.86
9.79
11.11
10.52
8.57
5.69
2.22
-1.57
-5.5
-9.54
-13.92
-19.13
-25.8
-34.36
-44.61
-55.49
-65.19
-71.61
-73.15
-69.3
-60.83
-49.41
-36.92
-24.85
-13.98
-4.57
3.44
10.19
15.94
21.14
26.46
32.57
39.82
47.92
56.0
62.78
66.95
67.54
64.18
57.3
48.06
38.28
30.01
25.0
24.2
27.49
33.73
41.17
47.98
52.77
54.78
53.88
50.43
45.03
38.36
31.08
23.79
16.95
10.83
5.51
0.78
-3.87
-9.15
-15.6
-23.2
-31.04
-37.33
-40.01
-37.54
-29.66
-17.68
-3.94
9.04
19.49
26.83
31.55
34.62
36.88
38.72
40.13
40.95
41.15
40.86
40.22
39.24
37.6
34.68
29.82
22.63
13.32
2.87
-7.18
-15.13
-19.79
-20.92
-19.32
-16.5
-14.05
-13.13
-14.16
-16.99
-21.12
-26.02
-31.29
-36.51
-41.2
-44.78
-46.8
-47.21
-46.57
-45.96
-46.69
-49.65
-54.87
-61.27
-66.86
-69.4
-67.12
-59.48
-47.24
-32.25
-16.78
-2.8
8.4
16.35
21.13
23.23
23.27
21.97
20.13
18.52
17.72
17.9
18.76
19.54
19.32
17.3
13.21
7.57
1.72
-2.47
-3.21
0.55
8.66
19.71
31.49
41.77
48.92
52.27
52.03
48.9
43.71
37.28
30.37
23.77
18.12
13.78
10.63
8.18
5.71
2.52
-1.77
-7.14
-13.11
-18.77
-22.92
-24.32
-22.1
-16.26
-7.8
1.42
9.25
14.07
15.3
13.53
10.05
6.26
3.09
0.77
-0.9
-2.27
-3.53
-4.61
-5.3
-5.54
-5.43
-5.14
-4.63
-3.41
-0.56
4.91
13.51
24.78
37.14
48.38
56.27
59.42
57.64
51.81
43.41
33.89
24.3
15.2
6.88
-0.48
-6.78
-12.04
-16.45
-20.44
-24.5
-29.01
-34.13
-39.65
-44.94
-48.99
-50.69
-49.1
-43.93
-35.76
-25.99
-16.45
-8.81
-4.04
-2.19
-2.6
-4.32
-6.56
-8.9
-11.27
-13.71
-16.19
-18.57
-20.76
-22.82
-25.06
-27.99
-31.94
-36.78
-41.66
-45.07
-45.22
-40.61
-30.7
-16.14
1.29
19.2
35.27
47.89
56.35
60.82
61.99
60.64
57.45
52.87
47.2
40.68
33.53
25.93
18.03
9.88
1.51
-7.06
-15.66
-23.82
-30.76
-35.39
-36.61
-33.62
-26.33
-15.48
-2.57
10.53
22.02
30.62
35.63
36.93
34.79
29.66
22.19
13.24
3.88
-4.77
-11.76
-16.72
-19.98
-22.56
-25.7
-30.32
-36.52
-43.3
-48.91
-51.36
-49.24
-42.13
-30.82
-16.9
-2.38
10.99
22.01
30.19
35.59
38.62
39.8
39.68
38.73
37.34
35.77
34.14
32.26
29.78
26.21
21.18
14.65
7.1
-0.41
-6.47
-9.64
-8.85
-3.78
5.06
16.33
28.24
38.86
46.46
49.76
48.08
41.31
29.88
14.71
-2.9
-21.35
-38.96
-54.19
-65.91
-73.65
-77.72
-78.95
-78.48
-77.25
-75.67
-73.51
-70.11
-64.69
-56.74
-46.29
-33.93
-20.59
-7.36
4.83
15.31
23.8
30.28
34.92
38.02
39.93
41.08
41.95
43.0
44.42
46.09
47.42
47.59
45.9
42.15
36.88
31.28
26.76
24.52
25.12
28.32
33.25
38.7
43.42
46.35
46.79
44.52
39.74
33.11
25.56
18.05
11.31
5.66
0.93
-3.39
-8.06
-13.8
-21.1
-29.95
-39.67
-48.98
-56.23
-59.9
-59.14
-54.06
-45.68
-35.49
-24.86
-14.64
-5.04
4.1
12.91
21.17
28.19
33.09
35.17
34.17
30.53
25.21
19.38
14.08
9.85
6.59
3.71
0.54
-3.23
-7.29
-10.68
-12.14
-10.58
-5.57
2.52
12.59
23.18
32.87
40.65
46.1
49.27
50.58
50.49
49.42
47.66
45.47
43.03
40.4
37.41
33.51
27.78
19.33
7.67
-6.75
-22.42
-37.04
-48.16
-53.94
-53.75
-48.31
-39.39
-29.1
-19.29
-11.1
-4.97
-0.78
1.84
3.37
4.42
5.73
8.12
12.21
18.09
25.07
31.79
36.6
38.12
35.77
29.91
21.73
12.75
4.34
-2.66
-8.04
-11.91
-14.46
-15.71
-15.51
-13.81
-10.85
-7.3
-4.04
-1.85
-1.16
-1.96
-4.01
-7.04
-10.88
-15.47
-20.68
-26.26
-31.83
-36.92
-40.93
-43.23
-43.15
-40.15
-34.02
-25.17
-14.6
-3.71
6.09
13.77
18.82
21.27
21.53
20.24
18.16
16.11
14.96
15.56
18.56
24.19
32.12
41.21
49.55
54.81
54.84
48.53
36.25
19.94
2.42
-13.67
-26.78
-36.87
-45.12
-53.11
-61.99
-71.97
-82.34
-91.9
-99.46
-104.29
-106.29
-105.89
-103.8
-100.76
-97.26
-93.49
-89.53
-85.56
-82.02
-79.48
-78.27
-78.06
-77.71
-75.58
-70.16
-60.73
-47.69
-32.44
-16.77
-2.4
9.46
18.2
23.69
26.29
26.81
26.49
26.78
28.99
33.78
41.06
49.99
59.26
67.55
73.74
77.15
77.59
75.45
71.57
67.07
62.94
59.63
56.82
53.51
48.43
40.68
29.97
16.76
1.91
-13.67
-29.14
-43.79
-56.84
-67.4
-74.52
-77.43
-75.77
-69.76
-60.15
-48.04
-34.63
-21.03
-8.01
3.91
14.5
23.65
31.34
37.68
42.99
47.83
52.93
58.88
65.81
73.18
79.92
84.69
86.38
84.47
79.15
71.23
61.82
52.07
42.85
34.6
27.37
20.97
15.34
10.77
7.99
7.86
10.97
17.13
25.31
33.86
41.11
45.88
47.81
47.29
45.18
42.38
39.6
37.26
35.52
34.32
33.36
32.1
29.68
25.12
17.46
6.1
-8.92
-26.69
-45.48
-63.03
-77.05
-85.89
-89.08
-87.44
-82.87
-77.76
-74.26
-73.8
-76.8
-82.72
-90.38
-98.23
-104.74
-108.69
-109.38
-106.65
-100.92
-92.97
-83.82
-74.64
-66.5
-60.15
-55.72
-52.51
-49.09
-43.74
-35.13
-22.84
-7.55
9.29
26.09
41.59
55.05
66.08
74.46
80.02
82.75
83.11
81.96
80.44
79.52
79.66
80.68
81.9
82.42
81.4
78.3
73.12
66.41
59.21
52.78
48.18
45.89
45.62
46.46
47.19
46.58
43.68
37.87
28.87
16.82
2.28
-13.79
-30.2
-45.78
-59.61
-71.11
-79.95
-85.96
-89.17
-89.9
-88.73
-86.24
-82.66
-77.53
-69.87
-58.6
-43.32
-24.69
-4.4
15.42
32.86
46.71
56.48
62.18
64.04
62.44
58.02
51.74
44.83
38.47
33.43
29.91
27.49
25.46
23.02
19.67
15.4
10.85
7.22
5.88
7.82
13.11
20.65
28.44
34.12
35.74
32.2
23.45
10.3
-5.93
-23.77
-41.77
-58.72
-73.67
-85.97
-95.33
-101.85
-105.96
-108.44
-110.2
-111.85
-113.36
-113.75
-111.3
-104.24
-91.62
-73.84
-52.58
-30.16
-8.63
10.79
27.81
42.67
55.57
66.41
74.75
80.13
82.2
80.87
76.21
68.43
57.85
44.89
30.15
14.35
-1.57
-16.44
-28.84
-37.27
-40.53
-38.23
-31.01
-20.48
-8.71
2.49
12.01
19.55
25.33
29.64
32.55
33.98
33.8
32.09
29.25
25.85
22.51
19.68
17.58
16.15
15.06
13.77
11.74
8.73
5.03
1.64
0.05
1.8
7.94
18.54
32.62
48.4
63.89
77.47
88.32
96.56
103.1
109.32
116.68
126.31
138.58
152.73
166.71
177.29
180.72
173.68
154.3
123.05
82.86
38.68
-3.63
-38.65
-62.57
-73.95
-73.86
-65.42
-52.96
-40.97
-33.18
-31.85
-37.56
-49.35
-65.34
-83.35
-101.43
-118.19
-132.79
-144.76
-153.81
-159.86
-163.05
-163.74
-162.4
-159.27
-154.12
-146.27
-134.91
-119.73
-101.25
-80.93
-60.65
-42.06
-25.96
-12.24
-0.18
10.93
21.27
30.43
37.63
42.3
44.43
44.73
44.32
44.22
44.77
45.38
44.79
41.76
35.81
27.69
19.12
12.04
7.7
6.13
6.17
6.19
4.78
1.34
-4.01
-10.69
-18.1
-25.69
-33.03
-39.62
-44.89
-48.41
-50.0
-49.86
-48.43
-46.31
-44.07
-42.22
-41.04
-40.44
-39.85
-38.21
-34.33
-27.41
-17.49
-5.59
6.62
17.51
26.05
32.11
36.29
39.47
42.4
45.48
48.81
52.32
55.93
59.5
62.8
65.51
67.22
67.55
66.25
63.31
59.03
54.05
49.24
45.47
43.33
42.93
43.93
45.67
47.57
49.21
50.4
51.01
50.77
49.33
46.41
42.03
36.7
31.27
26.68
23.59
22.01
21.21
19.75
15.81
7.79
-5.1
-22.33
-41.92
-60.91
-76.15
-85.27
-87.29
-82.69
-73.02
-60.24
-46.17
-32.2
-19.37
-8.45
0.04
5.85
9.19
10.66
11.14
11.51
12.33
13.58
14.67
14.69
12.85
9.08
4.26
0.16
-1.09
2.18
10.43
22.67
36.64
49.59
59.07
63.56
62.73
57.22
48.35
37.72
26.9
17.23
9.61
4.29
0.95
-1.27
-3.4
-6.34
-10.55
-15.94
-21.92
-27.57
-31.76
-33.42
-31.7
-26.23
-17.26
-5.71
7.07
19.61
30.76
39.88
46.83
51.68
54.55
55.41
54.26
51.31
47.18
42.82
39.21
36.96
36.08
35.95
35.7
34.71
33.09
31.82
32.43
36.45
44.66
56.77
71.44
86.71
100.57
111.48
118.47
121.07
119.11
112.57
101.58
86.52
68.08
47.17
24.79
1.84
-21.03
-43.39
-64.9
-85.2
-103.8
-119.97
-132.87
-141.66
-145.79
-145.17
-140.3
-132.15
-121.94
-110.89
-99.99
-90.02
-81.46
-74.55
-69.25
-65.2
-61.81
-58.38
-54.34
-49.42
-43.77
-37.86
-32.41
-28.26
-26.07
-26.1
-27.86
-30.1
-30.93
-28.39
-21.17
-9.14
6.5
23.62
39.82
53.13
62.49
67.79
69.63
68.93
66.61
63.31
59.37
54.9
49.87
44.26
38.16
31.75
25.3
19.16
13.91
10.46
10.0
13.51
21.19
31.84
42.93
51.18
53.83
49.51
38.84
23.93
7.37
-8.75
-23.51
-36.86
-49.08
-60.18
-69.72
-77.06
-81.89
-84.56
-86.03
-87.46
-89.71
-92.83
-95.9
-97.28
-95.2
-88.42
-76.72
-61.07
-43.41
-26.0
-10.91
0.43
7.43
10.19
9.31
5.55
-0.24
-7.35
-15.12
-22.98
-30.45
-37.03
-42.33
-46.11
-48.39
-49.42
-49.51
-48.77
-46.97
-43.52
-37.72
-29.15
-17.86
-4.51
9.89
24.18
37.32
48.46
57.01
62.62
65.29
65.45
63.95
61.89
60.41
60.27
61.75
64.56
68.06
71.5
74.35
76.6
78.88
82.52
89.18
100.33
116.46
136.56
157.94
176.68
188.74
191.07
182.49
163.88
137.62
106.79
74.41
43.08
14.87
-8.54
-25.96
-36.83
-41.39
-40.63
-35.95
-28.82
-20.41
-11.68
-3.51
2.94
6.2
4.74
-2.68
-16.51
-36.22
-60.38
-86.96
-113.72
-138.71
-160.43
-177.98
-190.97
-199.41
-203.59
-204.06
-201.54
-196.88
-191.0
-184.81
-179.13
-174.57
-171.31
-169.02
-166.68
-162.93
-156.41
-146.32
-132.69
-116.36
-98.59
-80.62
-63.37
-47.43
-33.25
-21.34
-12.18
-6.04
-2.75
-1.65
-1.92
-2.83
-4.07
-5.68
-7.97
-11.23
-15.7
-21.38
-27.95
-34.69
-40.34
-43.42
-42.52
-36.9
-26.82
-13.55
0.95
14.62
25.85
33.72
37.99
39.03
37.49
34.25
30.24
26.3
23.02
20.54
18.52
16.21
12.67
7.23
-0.03
-8.09
-15.15
-19.25
-19.09
-14.66
-7.2
1.38
9.42
16.23
22.15
28.05
34.53
41.29
47.26
51.07
51.81
49.46
44.95
39.69
35.11
32.15
30.98
30.98
30.94
29.53
25.92
20.27
13.86
8.7
6.75
9.09
15.51
24.65
34.69
44.02
51.58
56.85
59.52
59.29
55.96
49.69
41.26
32.02
23.47
16.75
12.23
9.42
7.19
4.16
-0.81
-8.14
-17.3
-26.91
-35.02
-39.77
-39.96
-35.37
-26.85
-15.89
-4.21
6.77
16.17
23.76
29.82
35.01
40.16
45.9
52.47
59.56
66.41
72.04
75.52
76.22
73.83
68.35
60.21
50.38
40.29
31.66
25.98
23.98
25.38
29.09
33.83
38.6
43.07
47.37
51.64
55.72
59.11
61.25
61.92
61.31
59.94
58.23
56.31
53.9
50.57
46.05
40.41
34.17
28.13
23.12
19.81
18.46
18.94
20.82
23.56
26.71
30.02
33.55
37.62
42.67
49.08
56.92
65.86
75.16
83.95
91.53
97.62
102.29
105.6
107.12
105.8
100.26
89.53
73.87
55.02
35.81
19.18
7.03
-0.3
-3.95
-5.79
-7.6
-10.46
-14.74
-20.31
-26.83
-33.96
-41.32
-48.47
-54.91
-60.29
-64.52
-67.82
-70.61
-73.31
-76.16
-79.13
-81.83
-83.46
-82.99
-79.3
-71.77
-60.67
-47.45
-34.47
-24.3
-18.94
-19.21
-24.61
-33.77
-45.03
-56.99
-68.73
-79.78
-89.81
-98.45
-105.21
-109.54
-111.07
-109.88
-106.6
-102.3
-98.15
-94.86
-92.28
-89.48
-85.12
-78.13
-68.19
-56.0
-42.9
-30.42
-19.76
-11.64
-6.29
-3.69
-3.58
-5.61
-9.23
-13.73
-18.42
-22.76
-26.58
-30.0
-33.4
-37.18
-41.61
-46.55
-51.32
-54.63
-54.84
-50.57
-41.26
-27.68
-11.85
3.5
15.8
23.42
25.91
23.92
18.62
11.23
2.72
-6.17
-14.84
-22.64
-28.96
-33.31
-35.48
-35.7
-34.55
-32.75
-30.81
-28.65
-25.42
-19.76
-10.38
3.25
20.45
39.32
57.36
72.15
82.06
86.45
85.5
79.88
70.34
57.7
42.89
27.11
11.75
-1.87
-12.86
-21.05
-26.98
-31.72
-36.42
-41.8
-47.77
-53.31
-56.65
-55.8
-49.35
-36.96
-19.62
0.69
21.56
40.86
57.08
69.38
77.32
80.66
79.31
73.52
64.1
52.36
39.92
28.25
18.4
10.8
5.36
1.65
-0.8
-2.3
-2.71
-1.47
2.22
8.93
18.46
29.63
40.47
48.9
53.53
54.16
51.79
47.97
44.16
41.05
38.64
36.54
34.43
32.35
30.67
29.8
29.81
30.25
30.21
28.67
24.92
18.95
11.57
4.13
-1.96
-5.83
-7.49
-7.64
-7.27
-7.07
-7.18
-7.27
-6.98
-6.28
-5.56
-5.4
-6.13
-7.62
-9.27
-10.4
-10.59
-9.89
-8.85
-8.23
-8.76
-10.82
-14.25
-18.32
-21.87
-23.6
-22.55
-18.42
-11.77
-3.88
3.69
9.63
13.26
14.65
14.52
13.92
13.87
15.07
17.83
22.01
27.21
32.85
38.33
43.08
46.5
48.02
47.11
43.53
37.55
30.11
22.74
17.15
14.62
15.54
19.24
24.26
28.84
31.57
31.73
29.33
24.87
19.03
12.39
5.41
-1.5
-7.98
-13.75
-18.66
-22.88
-26.87
-31.23
-36.49
-42.72
-49.43
-55.53
-59.58
-60.32
-57.05
-49.87
-39.64
-27.69
-15.44
-4.11
5.49
12.92
18.14
21.35
22.99
23.56
23.51
23.15
22.56
21.67
20.4
18.74
16.8
14.77
12.8
11.03
9.59
8.65
8.47
9.32
11.38
14.56
18.54
22.77
26.6
29.39
30.62
29.94
27.15
22.32
15.84
8.36
0.8
-5.89
-10.94
-14.07
-15.5
-15.97
-16.5
-17.99
-20.95
-25.26
-30.12
-34.25
-36.28
-35.13
-30.43
-22.54
-12.52
-1.73
8.55
17.41
24.4
29.43
32.62
34.19
34.36
33.41
31.68
29.53
27.27
25.02
22.7
20.04
16.74
12.65
7.94
3.17
-0.82
-3.14
-3.26
-1.18
2.49
6.73
10.5
13.04
13.96
13.16
10.64
6.35
0.31
-7.28
-15.85
-24.49
-32.18
-38.14
-42.01
-44.09
-45.08
-45.83
-46.93
-48.43
-49.77
-50.02
-48.19
-43.67
-36.56
-27.59
-17.94
-8.83
-1.21
4.37
7.74
9.03
8.58
6.85
4.43
1.88
-0.33
-2.01
-3.24
-4.45
-6.3
-9.46
-14.44
-21.26
-29.35
-37.49
-44.17
-47.97
-48.03
-44.34
-37.66
-29.25
-20.44
-12.3
-5.56
-0.55
2.72
4.42
4.94
4.68
3.98
3.0
1.73
0.03
-2.24
-5.21
-8.93
-13.4
-18.44
-23.6
-28.08
-30.85
-30.97
-27.94
-21.91
-13.7
-4.47
4.63
12.71
19.2
23.89
26.75
27.96
27.92
27.17
26.28
25.72
25.69
26.05
26.38
26.02
24.24
20.47
14.48
6.76
-1.49
-8.58
-12.88
-13.38
-10.15
-4.16
3.13
10.27
16.27
20.54
22.76
22.68
20.23
15.58
9.35
2.46
-4.22
-10.14
-15.32
-20.26
-25.65
-32.05
-39.61
-47.84
-55.66
-61.61
-64.28
-62.77
-57.12
-48.3
-37.88
-27.46
-18.15
-10.3
-3.7
2.07
7.34
12.21
16.64
20.6
24.05
26.95
29.08
30.12
29.71
27.65
23.93
18.79
12.74
6.48
0.92
-2.96
-4.36
-2.94
0.95
6.34
11.97
16.75
20.05
21.82
22.37
22.08
21.2
19.85
18.12
16.19
14.37
12.98
12.21
12.04
12.17
12.1
11.29
9.45
6.74
3.92
2.15
2.64
6.1
12.47
20.88
30.0
38.41
45.08
49.49
51.65
51.92
50.98
49.64
48.64
48.5
49.18
50.04
49.96
47.68
42.33
33.61
22.01
8.66
-4.86
-16.88
-25.93
-31.16
-32.51
-30.74
-27.2
-23.31
-20.17
-18.29
-17.65
-18.03
-19.3
-21.58
-25.06
-29.81
-35.52
-41.48
-46.78
-50.61
-52.52
-52.54
-51.12
-48.93
-46.53
-44.08
-41.29
-37.46
-31.88
-24.18
-14.58
-3.85
7.07
17.4
26.8
35.24
42.75
49.11
53.89
56.71
57.57
57.04
56.0
55.25
55.04
54.99
54.27
51.98
47.47
40.51
31.35
20.66
9.57
-0.45
-7.87
-11.49
-10.82
-6.29
0.93
9.32
17.44
24.25
29.19
32.17
33.49
33.72
33.57
33.64
34.15
34.89
35.21
34.27
31.3
25.77
17.47
6.62
-6.08
-19.41
-31.75
-41.41
-47.2
-48.74
-46.62
-42.01
-36.22
-30.16
-24.25
-18.65
-13.52
-9.24
-6.23
-4.73
-4.53
-4.95
-5.1
-4.24
-2.0
1.46
5.61
9.64
12.77
14.54
15.05
15.14
16.08
19.06
24.6
32.1
40.02
46.59
50.55
51.71
50.76
48.7
46.04
42.48
37.16
29.28
18.73
6.21
-7.11
-20.21
-32.71
-44.93
-57.56
-70.99
-85.02
-98.62
-110.4
-118.97
-123.48
-123.81
-120.49
-114.33
-106.12
-96.46
-85.83
-74.74
-63.91
-54.27
-46.68
-41.61
-38.92
-37.8
-37.16
-35.96
-33.58
-30.03
-25.85
-21.89
-19.01
-17.71
-17.9
-18.74
-18.91
-16.95
-11.89
-3.63
6.93
18.19
28.43
36.3
41.19
43.06
42.25
39.26
34.6
28.9
22.95
17.6
13.58
11.22
10.3
10.14
9.91
8.88
6.73
3.63
0.27
-2.34
-3.11
-1.27
3.38
10.33
18.47
26.48
33.23
38.1
40.99
42.17
41.99
40.68
38.34
35.04
30.99
26.6
22.39
18.83
16.18
14.4
13.12
11.73
9.61
6.37
2.08
-2.63
-6.63
-8.68
-7.75
-3.4
4.16
14.11
25.37
36.75
47.12
55.5
61.0
62.99
61.25
56.19
48.84
40.66
33.11
27.13
22.96
20.08
17.53
14.25
9.47
2.95
-4.93
-13.31
-21.09
-27.24
-31.18
-32.95
-33.18
-32.72
-32.31
-32.22
-32.23
-31.91
-30.9
-29.25
-27.26
-25.3
-23.45
-21.47
-18.95
-15.54
-11.21
-6.23
-1.0
4.1
8.9
13.35
17.45
21.16
24.5
27.57
30.68
34.17
38.29
42.97
47.7
51.69
54.12
54.42
52.44
48.51
43.22
37.21
31.0
24.89
19.03
13.43
8.07
2.91
-2.19
-7.45
-13.08
-19.05
-24.94
-29.81
-32.61
-32.54
-29.65
-25.02
-20.37
-17.46
-17.3
-19.83
-24.03
-28.6
-32.61
-35.84
-38.7
-41.71
-45.06
-48.39
-50.96
-52.09
-51.49
-49.5
-46.94
-44.91
-44.42
-46.04
-49.75
-54.78
-59.74
-62.94
-62.8
-58.26
-49.02
-35.59
-19.08
-1.07
16.61
32.08
43.55
49.66
49.7
43.81
32.96
18.66
2.64
-13.48
-28.35
-40.98
-50.81
-57.71
-61.95
-64.09
-64.67
-63.89
-61.59
-57.41
-51.2
-43.29
-34.65
-26.57
-20.33
-16.76
-16.15
-18.28
-22.56
-28.12
-33.86
-38.51
-40.85
-40.03
-35.91
-29.12
-20.95
-12.87
-6.15
-1.43
1.46
3.51
6.27
11.46
20.38
33.46
50.02
68.48
86.85
103.38
116.91
126.98
133.57
136.77
136.66
133.32
127.02
118.28
107.84
96.49
84.91
73.67
63.25
54.05
46.31
40.05
35.07
31.08
27.9
25.56
24.21
23.96
24.71
26.09
27.61
28.85
29.56
29.57
28.69
26.65
23.18
18.25
12.15
5.52
-0.86
-6.35
-10.61
-13.65
-15.79
-17.5
-19.23
-21.26
-23.56
-25.72
-26.99
-26.57
-23.97
-19.33
-13.49
-7.74
-3.3
-0.8
-0.09
-0.39
-0.85
-1.01
-1.11
-1.88
-4.16
-8.32
-14.06
-20.5
-26.58
-31.52
-35.19
-38.06
-40.93
-44.54
-49.16
-54.5
-59.74
-63.9
-66.1
-65.84
-63.11
-58.37
-52.41
-46.19
-40.69
-36.73
-34.71
-34.58
-35.79
-37.5
-38.79
-39.02
-37.89
-35.5
-32.19
-28.46
-24.86
-21.96
-20.24
-19.89
-20.63
-21.65
-21.85
-20.13
-15.79
-8.77
0.39
10.83
21.56
31.67
40.41
47.2
51.77
54.26
55.19
55.36
55.6
56.44
58.0
60.01
61.92
63.06
62.84
60.82
56.85
51.23
44.71
38.34
33.22
30.08
29.02
29.54
30.67
31.37
30.81
28.49
24.27
18.16
10.26
0.74
-10.07
-21.61
-33.03
-43.4
-51.95
-58.43
-63.21
-67.2
-71.48
-76.77
-83.05
-89.46
-94.59
-96.97
-95.67
-90.52
-82.14
-71.59
-59.91
-47.89
-35.96
-24.36
-13.32
-3.25
5.27
11.68
15.64
17.28
17.3
16.83
17.08
19.03
23.0
28.51
34.45
39.46
42.48
43.19
42.13
40.56
39.99
41.74
46.48
54.04
63.35
72.67
80.04
83.68
82.55
76.51
66.29
53.24
38.91
24.66
11.48
-0.06
-9.8
-17.86
-24.61
-30.55
-36.18
-41.77
-47.26
-52.11
-55.5
-56.55
-54.69
-49.87
-42.63
-33.87
-24.63
-15.68
-7.28
0.81
9.14
18.09
27.58
36.91
45.05
51.05
54.61
56.13
56.55
56.71
56.9
56.66
55.09
51.35
45.18
37.01
27.79
18.6
10.31
3.53
-1.45
-4.56
-6.05
-6.51
-6.84
-8.1
-11.13
-16.35
-23.63
-32.37
-41.73
-50.84
-58.91
-65.33
-69.81
-72.42
-73.64
-74.19
-74.75
-75.59
-76.4
-76.4
-74.77
-71.11
-65.65
-59.2
-52.77
-47.09
-42.39
-38.47
-35.04
-32.02
-29.69
-28.49
-28.75
-30.37
-32.82
-35.31
-37.17
-38.03
-37.93
-37.19
-36.19
-35.27
-34.51
-33.83
-32.82
-30.9
-27.43
-22.0
-14.67
-6.1
2.58
10.3
16.34
20.63
23.62
25.9
27.75
29.07
29.46
28.51
26.13
22.54
18.11
13.15
7.74
1.79
-4.81
-11.94
-19.2
-25.9
-31.35
-34.99
-36.56
-36.1
-33.92
-30.49
-26.4
-22.3
-18.83
-16.52
-15.65
-16.11
-17.39
-18.62
-18.76
-16.81
-12.06
-4.24
6.35
18.9
32.27
45.14
56.44
65.64
72.76
78.45
83.54
88.74
94.25
99.68
104.09
106.33
105.4
100.68
92.13
80.24
65.89
50.05
33.64
17.31
1.44
-13.74
-27.98
-40.86
-51.85
-60.48
-66.63
-70.69
-73.39
-75.48
-77.25
-78.36
-77.91
-74.85
-68.46
-58.79
-46.69
-33.66
-21.42
-11.57
-5.24
-2.94
-4.51
-9.16
-15.58
-22.26
-27.8
-31.28
-32.46
-31.88
-30.65
-30.08
-31.09
-33.77
-37.09
-39.1
-37.47
-30.36
-17.16
1.24
22.57
43.95
62.66
76.8
85.53
88.98
87.83
83.12
75.96
67.44
58.65
50.49
43.56
38.06
33.73
29.96
26.0
21.37
16.11
10.92
6.99
5.54
7.29
12.07
18.7
25.45
30.62
33.13
32.88
30.58
27.32
23.95
20.86
17.96
15.04
12.04
9.27
7.17
6.08
5.92
6.15
5.89
4.38
1.42
-2.36
-5.5
-6.07
-2.38
6.34
19.56
35.51
51.69
65.65
75.63
80.79
81.11
76.99
69.06
58.08
45.13
31.68
19.38
9.74
3.58
0.77
0.32
0.71
0.51
-1.03
-3.65
-6.18
-6.89
-4.24
2.58
13.33
26.83
41.48
55.9
69.34
81.77
93.72
105.69
117.85
129.69
140.15
147.76
151.04
148.73
140.08
125.06
104.39
79.58
52.81
26.68
3.92
-13.11
-22.91
-25.17
-20.86
-11.93
-0.81
10.21
19.38
25.66
28.57
28.01
24.06
16.93
7.09
-4.68
-17.3
-29.55
-40.38
-49.16
-55.77
-60.55
-64.16
-67.32
-70.58
-74.21
-78.15
-82.02
-85.33
-87.62
-88.62
-88.36
-87.14
-85.47
-83.9
-82.92
-82.93
-84.24
-87.04
-91.3
-96.71
-102.61
-108.2
-112.74
-115.9
-117.76
-118.77
-119.47
-120.29
-121.35
-122.39
-122.81
-121.74
-118.08
-110.81
-99.23
-83.4
-64.28
-43.61
-23.52
-5.89
8.06
17.96
24.03
26.74
26.58
23.99
19.52
13.93
8.07
2.68
-1.98
-6.24
-10.81
-16.36
-22.98
-29.85
-35.29
-37.33
-34.43
-26.15
-13.38
1.9
17.35
31.05
42.11
50.69
57.67
64.0
70.23
76.2
81.25
84.47
85.03
82.35
76.11
66.26
52.95
36.67
18.29
-0.85
-19.07
-34.59
-45.94
-52.26
-53.51
-50.36
-43.97
-35.65
-26.52
-17.49
-9.25
-2.45
2.28
4.48
4.04
1.44
-2.19
-5.4
-6.92
-6.13
-3.36
0.19
2.97
3.63
1.61
-2.67
-7.95
-12.57
-15.13
-14.99
-12.43
-8.51
-4.64
-1.96
-1.08
-1.94
-4.13
-7.14
-10.67
-14.52
-18.42
-21.85
-24.07
-24.39
-22.58
-19.05
-14.89
-11.44
-9.93
-10.81
-13.64
-17.06
-19.14
-18.05
-12.5
-2.21
12.11
28.91
46.25
62.21
75.14
83.85
87.59
86.12
79.73
69.3
56.19
41.98
28.12
15.5
4.27
-6.03
-16.15
-26.69
-37.67
-48.36
-57.38
-63.02
-63.77
-58.82
-48.46
-34.05
-17.66
-1.56
12.43
23.24
30.6
34.74
36.07
35.08
32.31
28.47
24.44
21.12
19.11
18.55
18.99
19.69
19.81
18.83
16.76
14.34
12.87
13.94
18.99
28.69
42.72
59.76
77.93
95.33
110.6
123.05
132.62
139.62
144.52
147.85
150.08
151.5
152.17
151.91
150.35
147.2
142.36
136.07
128.9
121.87
116.57
115.2
120.02
132.37
151.44
173.66
193.16
203.5
199.81
180.41
146.92
103.11
53.17
0.41
-52.85
-104.65
-152.65
-194.14
-226.88
-250.19
-265.55
-276.17
-285.63
-296.44
-308.94
-321.26
-330.0
-331.53
-323.28
-304.57
-276.81
-242.92
-206.44
-170.44
-136.91
-106.64
-79.74
-56.19
-36.24
-20.24
-8.26
0.34
6.9
12.94
19.5
26.58
33.21
37.86
39.24
36.88
31.42
24.47
18.21
14.78
15.81
21.92
32.67
46.69
62.26
77.76
92.04
104.25
113.54
118.72
118.33
111.16
96.91
76.66
52.67
27.76
4.32
-16.34
-34.16
-49.96
-64.78
-79.23
-93.19
-105.66
-115.04
-119.61
-118.09
-110.13
-96.58
-79.26
-60.4
-42.05
-25.57
-11.6
-0.19
8.78
15.47
20.04
22.84
24.49
25.7
27.08
28.84
30.73
32.15
32.35
30.8
27.45
22.83
18.08
14.65
13.86
16.51
22.51
30.87
40.14
48.9
56.17
61.62
65.46
68.0
69.48
69.86
68.9
66.29
61.83
55.56
47.76
39.03
29.97
21.1
12.66
4.64
-3.1
-10.48
-17.06
-22.09
-24.73
-24.44
-21.12
-15.18
-7.29
1.83
11.55
21.22
30.09
37.3
42.08
44.05
43.41
40.91
37.54
34.16
31.13
28.27
24.97
20.57
14.74
7.8
0.7
-5.12
-8.26
-7.75
-3.49
3.69
12.25
20.44
26.73
30.15
30.44
27.98
23.58
18.4
13.72
10.8
10.64
13.82
20.36
29.72
40.84
52.28
62.48
70.03
74.24
75.63
76.11
78.88
87.46
104.54
130.6
163.14
196.97
225.45
242.38
243.74
228.68
199.39
160.25
116.48
73.11
34.15
2.32
-21.05
-35.96
-43.69
-46.5
-47.19
-48.51
-52.46
-59.83
-70.08
-81.54
-91.91
-99.1
-101.82
-100.06
-94.97
-88.31
-81.8
-76.65
-73.38
-71.97
-72.24
-74.01
-77.13
-81.34
-86.2
-91.13
-95.54
-99.05
-101.55
-103.33
-104.88
-106.77
-109.41
-112.8
-116.41
-119.27
-120.24
-118.51
-114.0
-107.49
-100.35
-94.03
-89.4
-86.54
-84.78
-83.18
-81.03
-78.06
-74.53
-70.86
-67.45
-64.38
-61.52
-58.62
-55.48
-52.15
-48.93
-46.29
-44.6
-43.84
-43.45
-42.36
-39.44
-33.9
-25.71
-15.66
-4.99
5.05
13.58
20.19
24.8
27.43
28.08
26.82
23.9
19.89
15.62
11.94
9.45
8.34
8.24
8.33
7.61
5.29
1.18
-4.07
-9.11
-12.42
-12.79
-9.83
-4.07
3.31
10.87
17.23
21.27
22.31
20.12
15.05
8.03
0.38
-6.49
-11.51
-14.2
-14.74
-13.69
-11.85
-9.98
-8.75
-8.59
-9.58
-11.32
-12.97
-13.45
-11.96
-8.41
-3.52
1.36
4.83
6.01
4.85
1.92
-1.87
-5.68
-9.04
-11.65
-13.33
-13.89
-13.17
-11.09
-7.86
-3.92
0.12
3.5
5.61
6.15
5.42
4.45
4.68
7.42
13.23
21.57
30.95
39.68
46.49
50.97
53.45
54.45
54.23
52.62
49.23
43.86
36.88
29.1
21.5
14.87
9.47
5.04
1.0
-3.22
-7.9
-12.67
-16.72
-19.03
-18.78
-15.75
-10.47
-4.03
2.27
7.37
10.68
12.12
11.93
10.49
8.17
5.28
2.11
-0.94
-3.53
-5.32
-6.18
-6.16
-5.53
-4.66
-3.97
-3.77
-4.16
-4.88
-5.33
-4.66
-2.13
2.66
9.51
17.69
26.17
34.01
40.53
45.4
48.5
49.81
49.33
47.13
43.37
38.43
32.74
26.79
20.96
15.47
10.34
5.38
0.29
-5.0
-10.22
-14.6
-17.08
-16.77
-13.36
-7.34
0.16
7.82
14.59
19.91
23.63
25.79
26.4
25.47
23.08
19.58
15.57
11.75
8.6
6.32
4.77
3.56
2.19
0.25
-2.46
-5.78
-9.13
-11.63
-12.31
-10.56
-6.35
-0.28
6.66
13.34
18.97
23.11
25.72
26.98
27.1
26.33
24.85
22.89
20.57
17.98
15.03
11.55
7.29
2.02
-4.45
-12.14
-20.74
-29.55
-37.4
-42.94
-45.0
-43.01
-37.23
-28.64
-18.64
-8.57
0.57
8.14
13.76
17.17
18.18
16.8
13.35
8.54
3.28
-1.64
-5.9
-9.75
-13.88
-19.06
-25.79
-33.92
-42.58
-50.33
-55.6
-57.04
-53.99
-46.6
-35.79
-23.02
-9.87
2.27
12.46
20.23
25.46
28.26
28.76
27.16
23.77
19.15
14.11
9.49
5.92
3.53
1.88
0.16
-2.45
-6.39
-11.51
-16.96
-21.49
-23.83
-23.08
-18.95
-11.83
-2.65
7.4
17.19
25.79
32.65
37.49
40.26
41.07
40.11
37.82
34.77
31.65
29.04
27.16
25.8
24.28
21.67
17.19
10.53
2.12
-6.81
-14.57
-19.36
-19.93
-15.87
-7.86
2.59
13.62
23.51
31.06
35.75
37.53
36.68
33.57
28.67
22.61
16.24
10.47
6.03
3.13
1.38
-0.12
-2.39
-6.16
-11.44
-17.46
-22.84
-26.06
-25.94
-22.11
-15.09
-6.13
3.18
11.36
17.38
20.77
21.6
20.28
17.35
13.4
8.99
4.61
0.64
-2.65
-5.15
-6.97
-8.43
-10.03
-12.34
-15.7
-19.95
-24.34
-27.58
-28.37
-25.84
-20.03
-11.83
-2.72
5.83
12.79
17.75
20.81
22.26
22.34
21.19
18.89
15.63
11.78
7.85
4.39
1.74
-0.13
-1.68
-3.55
-6.36
-10.24
-14.64
-18.42
-20.26
-19.13
-14.81
-7.89
0.46
