2013-02-23 18:03:27
64.0
-0.0
-0.0
-0.0
-0.0
-0.0
-0.0
-0.0
-0.0
-0.0
-0.0
0.0
0.01
0.01
-0.0
-0.03
-0.05
-0.05
0.0
0.13
0.36
0.66
1.01
1.37
1.72
2.06
2.4
2.79
3.24
3.8
4.42
5.06
5.66
6.2
6.68
7.15
7.68
8.31
9.14
10.09
11.04
11.88
12.56
13.14
13.76
14.65
15.96
17.91
20.32
22.9
25.38
27.58
29.57
31.68
34.32
37.81
42.54
48.15
54.1
59.83
64.97
69.58
74.14
79.34
85.71
93.76
103.0
112.62
121.73
129.77
136.75
143.3
150.75
157.77
166.64
177.95
191.79
206.97
220.57
228.25
225.36
208.53
176.87
132.76
80.05
23.07
-34.95
-92.44
-149.16
-205.21
-260.34
-313.7
-363.85
-409.86
-451.02
-486.73
-516.08
-537.65
-549.68
-550.41
-538.8
-514.62
-479.12
-434.4
-383.08
-327.75
-270.64
-213.44
-157.44
-103.71
-53.16
-6.82
34.44
69.99
99.66
123.66
142.54
156.97
167.54
174.72
178.78
180.0
178.74
175.46
170.73
165.07
158.79
151.98
144.56
136.43
127.63
118.42
109.28
100.66
92.85
85.77
79.03
72.09
64.56
56.42
48.05
40.11
33.17
27.51
22.95
18.98
14.99
10.5
5.25
-0.88
-7.8
-14.94
-21.06
-24.27
-22.63
-15.03
-2.06
13.92
29.5
41.52
48.25
49.79
47.58
43.39
38.47
33.32
28.14
23.31
19.66
18.16
19.33
22.8
27.34
31.35
33.36
32.67
29.45
24.72
19.79
15.85
13.45
12.31
11.52
10.04
7.26
3.35
-0.79
-3.95
-5.25
-4.59
-2.62
-0.38
1.27
1.99
2.0
1.77
1.66
1.69
1.61
1.05
-0.28
-2.3
-4.67
-6.85
-8.38
-9.03
-8.86
-8.19
-7.44
-6.94
-6.91
-7.37
-8.19
-9.06
-9.6
-9.33
-7.82
-4.83
-0.47
4.77
10.15
14.83
18.24
20.15
20.64
20.0
18.62
16.87
15.08
13.5
12.27
11.44
10.9
10.44
9.82
8.87
7.48
5.7
3.67
1.46
-0.87
-3.28
-5.8
-8.39
-11.01
-13.51
-15.73
-17.55
-18.87
-19.67
-19.89
-19.49
-18.45
-16.81
-14.78
-12.61
-10.6
-8.94
-7.65
-6.72
-6.11
-5.9
-6.21
-7.05
-8.22
-9.22
-9.41
-8.19
-5.28
-0.84
4.55
10.02
14.75
18.21
20.24
21.03
20.87
20.04
18.64
16.69
14.17
11.26
8.33
5.88
4.34
3.91
4.48
5.76
7.31
8.75
9.85
10.52
10.85
10.97
10.97
10.88
10.72
10.47
10.14
9.79
9.46
9.11
8.84
8.43
7.49
5.7
2.89
-0.85
-5.15
-9.51
-13.5
-16.81
-19.47
-21.67
-23.75
-26.12
-29.16
-33.1
-37.83
-42.81
-47.02
-49.18
-48.08
-42.98
-33.98
-22.06
-8.8
4.04
15.09
23.59
29.39
32.78
34.17
33.91
32.3
29.64
26.28
22.62
19.01
15.66
12.59
9.72
6.99
4.35
1.82
-0.6
-2.98
-5.47
-8.27
-11.52
-15.24
-19.3
-23.48
-27.5
-31.13
-34.3
-37.1
-39.77
-42.67
-46.16
-50.47
-55.64
-61.39
-67.19
-72.35
-76.23
-78.41
-78.89
-78.07
-76.63
-75.27
-74.42
-73.96
-73.23
-71.1
-66.42
-58.28
-46.41
-31.28
-13.94
4.19
21.73
37.57
50.98
61.54
69.1
73.72
75.67
75.48
73.83
71.47
68.97
66.69
64.67
62.73
60.6
58.1
55.24
52.19
49.23
46.59
44.34
42.32
40.24
37.8
34.81
31.27
27.34
23.2
19.01
14.84
10.71
6.68
2.79
-0.84
-4.19
-7.26
-10.13
-12.85
-15.49
-18.08
-20.7
-23.51
-26.67
-30.22
-33.94
-37.29
-39.5
-39.75
-37.48
-32.46
-24.95
-15.56
-5.1
5.51
15.44
23.99
30.64
35.06
37.11
36.84
34.52
30.62
25.79
20.72
15.97
11.91
8.61
5.94
3.69
1.64
-0.31
-2.17
-3.9
-5.4
-6.6
-7.49
-8.2
-9.05
-10.5
-13.01
-16.81
-21.83
-27.62
-33.58
-39.11
-43.85
-47.66
-50.68
-53.08
-55.0
-56.31
-56.63
-55.32
-51.64
-45.05
-35.38
-22.98
-8.7
6.32
20.91
34.05
45.0
53.33
58.85
61.6
61.81
59.91
56.5
52.25
47.78
43.57
39.83
36.52
33.51
30.62
27.8
25.13
22.75
20.79
19.26
18.01
16.8
15.4
13.61
11.36
8.67
5.62
2.37
-0.93
-4.18
-7.38
-10.66
-14.29
-18.45
-23.14
-27.92
-32.05
-34.56
-34.68
-32.06
-26.91
-19.91
-11.98
-4.02
3.34
9.72
14.96
19.02
21.91
23.61
24.23
23.96
23.1
22.0
20.97
20.23
19.84
19.74
19.81
19.97
20.19
20.47
20.81
21.14
21.3
21.13
20.43
19.09
17.07
14.45
11.41
8.2
5.04
2.08
-0.66
-3.33
-6.21
-9.62
-13.89
-19.15
-25.26
-31.7
-37.61
-41.92
-43.62
-42.08
-37.2
-29.47
-19.8
-9.29
1.05
10.43
18.39
24.72
29.4
32.56
34.42
35.21
35.21
34.66
33.78
32.74
31.69
30.66
29.66
28.68
27.73
26.89
26.22
25.8
25.54
25.24
24.56
23.11
20.62
16.98
12.3
6.93
1.35
-3.98
-8.7
-12.7
-16.14
-19.37
-22.79
-26.69
-31.13
-35.9
-40.52
-44.38
-46.83
-47.27
-45.27
-40.66
-33.58
-24.49
-14.06
-3.06
7.77
17.77
26.38
33.1
37.56
39.56
39.14
36.7
32.99
29.02
25.76
23.9
23.58
24.38
25.5
26.09
25.61
24.03
21.8
19.67
18.29
17.92
18.23
18.37
17.25
13.96
8.22
0.51
-7.99
-15.89
-22.07
-26.06
-27.98
-28.27
-27.25
-25.06
-21.67
-17.21
-12.13
-7.12
-2.78
0.59
3.15
5.29
7.34
9.34
11.01
11.95
11.84
10.63
8.55
6.03
3.56
1.53
0.17
-0.59
-0.98
-1.37
-2.03
-3.03
-4.17
-5.23
-6.08
-6.88
-8.02
-9.89
-12.66
-16.16
-20.0
-23.75
-27.22
-30.57
-34.15
-38.25
-42.81
-47.27
-50.65
-51.94
-50.43
-46.05
-39.36
-31.31
-22.86
-14.65
-6.97
0.18
6.78
12.61
17.27
20.34
21.56
21.02
19.19
16.68
14.1
11.83
10.0
8.52
7.2
5.93
4.67
3.54
2.58
1.75
0.84
-0.5
-2.6
-5.67
-9.7
-14.51
-19.83
-25.39
-30.94
-36.3
-41.31
-45.87
-49.92
-53.46
-56.53
-58.99
-60.48
-60.41
-58.15
-53.18
-45.4
-35.22
-23.4
-10.91
1.32
12.54
22.21
30.0
35.7
39.29
40.88
40.75
39.28
36.93
34.14
31.3
28.67
26.4
24.47
22.72
20.98
19.12
17.2
15.36
13.85
12.81
12.2
11.8
11.31
10.51
9.35
8.07
7.03
6.57
6.81
7.57
8.32
8.44
7.32
4.65
0.4
-5.18
-11.64
-18.4
-24.74
-29.85
-32.95
-33.48
-31.28
-26.65
-20.26
-12.91
-5.3
2.1
9.02
15.2
20.34
24.1
26.26
26.86
26.24
24.91
23.42
22.13
21.16
20.44
19.85
19.28
18.73
18.21
17.68
17.01
16.06
14.69
12.91
10.87
8.76
6.71
4.68
2.5
-0.07
-3.2
-6.94
-11.18
-15.69
-20.22
-24.51
-28.41
-31.92
-35.24
-38.63
-42.3
-46.2
-49.82
-52.33
-52.76
-50.41
-45.1
-37.31
-27.94
-18.07
-8.61
-0.1
7.19
13.2
17.95
21.43
23.64
24.66
24.66
23.9
22.7
21.41
20.3
19.49
18.95
18.51
17.91
16.99
15.76
14.39
13.13
12.11
11.29
10.42
9.2
7.43
5.14
2.51
-0.26
-3.04
-5.86
-8.83
-12.05
-15.56
-19.35
-23.37
-27.62
-32.0
-36.26
-39.89
-42.15
-42.24
-39.64
-34.29
-26.64
-17.58
-8.09
0.91
8.85
15.41
20.52
24.22
26.58
27.69
27.73
26.94
25.61
24.05
22.5
21.09
19.83
18.69
17.6
16.49
15.37
14.18
12.88
11.31
9.34
6.83
3.75
0.24
-3.52
-7.24
-10.71
-13.78
-16.44
-18.84
-21.3
-24.23
-28.02
-32.79
-38.26
-43.66
-47.84
-49.63
-48.19
-43.26
-35.32
-25.32
-14.45
-3.8
5.81
13.88
20.14
24.53
27.12
28.08
27.74
26.5
24.74
22.77
20.72
18.58
16.3
13.86
11.36
9.0
7.05
5.7
4.98
4.68
4.46
3.9
2.68
0.67
-2.02
-5.15
-8.38
-11.44
-14.26
-16.93
-19.65
-22.69
-26.3
-30.62
-35.69
-41.29
-46.85
-51.43
-53.9
-53.19
-48.72
-40.61
-29.72
-17.36
-4.91
6.55
16.39
24.4
30.61
35.1
37.89
39.07
38.77
37.28
35.04
32.5
30.0
27.74
25.72
23.82
21.95
20.09
18.33
16.82
15.64
14.7
13.79
12.56
10.7
8.02
4.54
0.44
-3.96
-8.34
-12.46
-16.22
-19.7
-23.08
-26.66
-30.83
-35.85
-41.81
-48.34
-54.6
-59.37
-61.38
-59.67
-53.96
-44.73
-33.02
-20.13
-7.27
4.7
15.27
24.17
31.32
36.66
40.15
41.89
42.04
40.94
38.98
36.59
34.07
31.62
29.25
26.89
24.49
22.05
19.68
17.57
15.82
14.43
13.21
11.82
9.92
7.3
3.97
0.16
-3.77
-7.48
-10.85
-13.93
-16.99
-20.34
-24.29
-29.05
-34.63
-40.8
-46.97
-52.17
-55.2
-54.92
-50.68
-42.54
-31.37
-18.57
-5.64
6.21
16.29
24.4
30.6
34.98
37.61
38.53
37.92
36.09
33.52
30.75
28.19
26.03
24.2
22.53
20.79
18.93
17.05
15.36
14.09
13.23
12.61
11.81
10.35
7.92
4.48
0.31
-4.1
-8.24
-11.81
-14.79
-17.43
-20.13
-23.33
-27.36
-32.33
-38.01
-43.76
-48.53
-51.1
-50.33
-45.62
-37.1
-25.66
-12.65
0.52
12.71
23.22
31.75
38.15
42.37
44.4
44.36
42.62
39.73
36.36
33.09
30.31
28.16
26.56
25.35
24.32
23.31
22.21
20.98
19.65
18.25
16.76
15.08
13.02
10.37
7.05
3.11
-1.16
-5.42
-9.33
-12.74
-15.76
-18.64
-21.78
-25.54
-30.18
-35.75
-41.92
-47.98
-52.86
-55.37
-54.5
-49.73
-41.27
-29.96
-17.06
-3.92
8.38
19.09
27.82
34.41
38.73
40.76
40.58
38.54
35.25
31.48
27.92
25.02
22.91
21.38
20.14
18.92
17.63
16.35
15.23
14.37
13.72
13.02
11.91
10.06
7.29
3.7
-0.35
-4.41
-8.1
-11.28
-14.07
-16.84
-20.02
-23.93
-28.75
-34.32
-40.22
-45.63
-49.53
-50.79
-48.6
-42.64
-33.35
-21.81
-9.44
2.37
12.62
20.84
27.01
31.32
33.97
35.04
34.58
32.69
29.65
25.97
22.22
18.88
16.25
14.35
13.07
12.26
11.78
11.55
11.41
11.11
10.33
8.75
6.26
2.94
-0.85
-4.69
-8.23
-11.34
-14.19
-17.16
-20.71
-25.19
-30.6
-36.44
-41.71
-45.06
-45.24
-41.46
-33.74
-22.94
-10.5
2.02
13.36
22.75
29.94
34.93
37.83
38.77
37.89
35.43
31.82
27.57
23.25
19.31
16.04
13.58
11.86
10.73
9.93
9.22
8.39
7.25
5.66
3.54
0.88
-2.27
-5.77
-9.45
-13.22
-17.09
-21.22
-25.9
-31.43
-37.81
-44.61
-50.83
-55.08
-55.95
-52.5
-44.62
-33.08
-19.36
-5.13
8.1
19.39
28.29
34.72
38.81
40.8
40.96
39.69
37.46
34.78
32.01
29.36
26.83
24.35
21.9
19.6
17.66
16.28
15.46
14.92
14.18
12.69
10.1
6.39
1.83
-3.11
-7.97
-12.46
-16.56
-20.47
-24.52
-29.12
-34.58
-40.92
-47.74
-54.09
-58.6
-59.78
-56.54
-48.6
-36.72
-22.44
-7.65
6.04
17.62
26.73
33.43
37.9
40.3
40.74
39.5
37.06
34.07
31.12
28.59
26.55
24.84
23.19
21.42
19.46
17.39
15.32
13.4
11.67
10.07
8.39
6.29
3.43
-0.43
-5.19
-10.46
-15.64
-20.18
-23.77
-26.51
-28.83
-31.34
-34.57
-38.81
-43.88
-49.11
-53.43
-55.53
-54.31
-49.11
-39.99
-27.7
-13.49
1.18
14.98
26.88
36.26
42.91
46.95
48.73
48.77
47.56
45.58
43.18
40.62
38.1
35.75
33.65
31.82
30.23
28.86
27.68
26.66
25.77
24.95
24.08
23.11
21.96
20.59
18.94
16.92
14.38
11.25
7.5
3.23
-1.31
-5.85
-10.12
-13.96
-17.29
-20.16
-22.73
-25.29
-28.23
-31.91
-36.52
-41.84
-47.13
-51.26
-52.92
-51.08
-45.32
-35.98
-24.11
-11.14
1.5
12.69
21.79
28.63
33.35
36.16
37.3
36.94
35.32
32.8
29.87
27.09
24.87
23.36
22.39
21.62
20.77
19.72
18.6
17.64
16.98
16.58
16.16
15.35
13.85
11.59
8.7
5.44
2.04
-1.39
-4.85
-8.38
-11.95
-15.41
-18.62
-21.5
-24.14
-26.84
-30.01
-33.97
-38.81
-44.24
-49.45
-53.27
-54.43
-51.97
-45.57
-35.71
-23.55
-10.59
1.76
12.53
21.25
27.81
32.35
35.03
36.05
35.66
34.24
32.29
30.28
28.5
27.09
26.0
25.09
24.25
23.45
22.76
22.3
22.08
22.06
22.01
21.63
20.56
18.59
15.72
12.22
8.52
5.05
2.1
-0.31
-2.44
-4.64
-7.24
-10.37
-13.96
-17.75
-21.39
-24.59
-27.22
-29.39
-31.45
-33.82
-36.97
-41.1
-46.02
-51.05
-55.11
-56.95
-55.52
-50.31
-41.57
-30.24
-17.74
-5.48
5.44
14.43
21.4
26.52
29.98
31.96
32.55
31.91
30.32
28.22
26.08
24.28
23.02
22.26
21.81
21.5
21.24
21.04
20.93
20.89
20.78
20.39
19.53
18.1
16.12
13.69
10.94
8.04
5.18
2.58
0.4
-1.3
-2.69
-4.06
-5.73
-7.89
-10.47
-13.26
-15.95
-18.38
-20.54
-22.56
-24.64
-26.99
-29.79
-33.22
-37.36
-42.04
-46.72
-50.49
-52.22
-50.94
-46.19
-38.23
-27.96
-16.68
-5.66
4.17
12.36
18.89
23.9
27.55
29.9
30.92
30.67
29.37
27.4
25.28
23.44
22.13
21.4
21.11
21.08
21.15
21.23
21.26
21.23
21.09
20.79
20.24
19.34
18.01
16.21
14.01
11.57
9.08
6.71
4.52
2.45
0.36
-1.88
-4.35
-7.03
-9.87
-12.77
-15.61
-18.25
-20.56
-22.5
-24.11
-25.62
-27.4
-29.78
-32.98
-36.87
-40.93
-44.32
-46.04
-45.21
-41.38
-34.68
-25.82
-15.84
-5.88
3.16
10.7
16.53
20.66
23.2
24.31
24.18
23.09
21.38
19.47
17.72
16.37
15.53
15.12
15.01
15.06
15.17
15.35
15.58
15.77
15.76
15.29
14.19
12.42
10.13
7.56
4.94
2.4
-0.13
-2.74
-5.52
-8.43
-11.32
-14.01
-16.41
-18.58
-20.71
-23.05
-25.86
-29.22
-33.05
-36.9
-40.07
-41.72
-41.05
-37.67
-31.63
-23.55
-14.33
-4.93
3.83
11.41
17.5
22.01
24.95
26.42
26.62
25.84
24.46
22.81
21.12
19.49
17.91
16.33
14.8
13.42
12.39
11.83
11.7
11.82
11.87
11.6
10.87
9.74
8.35
6.81
5.09
3.05
0.56
-2.4
-5.69
-9.06
-12.26
-15.16
-17.75
-20.17
-22.54
-25.02
-27.73
-30.8
-34.33
-38.27
-42.29
-45.72
-47.64
-47.13
-43.58
-36.97
-27.87
-17.32
-6.51
3.5
12.04
18.79
23.77
27.12
29.04
29.73
29.36
28.17
26.44
24.47
22.54
20.86
19.55
18.6
17.97
17.55
17.23
16.91
16.48
15.86
14.98
13.79
12.3
10.5
8.46
6.25
3.94
1.56
-0.97
-3.74
-6.84
-10.24
-13.74
-17.06
-19.95
-22.31
-24.31
-26.32
-28.84
-32.26
-36.68
-41.76
-46.69
-50.37
-51.59
-49.49
-43.81
-35.03
-24.19
-12.66
-1.69
7.84
15.46
21.11
24.93
27.21
28.25
28.37
27.85
26.96
25.92
24.87
23.9
23.03
22.24
21.52
20.86
20.29
19.84
19.54
19.32
19.0
18.36
17.19
15.42
13.18
10.69
8.25
6.0
3.88
1.7
-0.79
-3.72
-7.03
-10.46
-13.71
-16.56
-18.92
-20.94
-22.92
-25.25
-28.32
-32.33
-37.18
-42.32
-46.82
-49.54
-49.49
-46.12
-39.52
-30.37
-19.7
-8.64
1.82
10.94
18.25
23.56
26.92
28.59
28.94
28.35
27.13
25.52
23.72
21.93
20.35
19.11
18.2
17.49
16.82
16.1
15.37
14.76
14.37
14.19
13.99
13.41
12.07
9.75
6.46
2.48
-1.73
-5.68
-9.06
-11.76
-13.95
-15.99
-18.21
-20.92
-24.27
-28.27
-32.76
-37.3
-41.26
-43.74
-43.86
-41.02
-35.07
-26.55
-16.46
-6.02
3.72
12.07
18.8
23.95
27.64
29.98
30.98
30.68
29.21
26.87
24.12
21.43
19.19
17.62
16.73
16.35
16.22
16.09
15.73
15.05
14.05
12.81
11.38
9.75
7.83
5.49
2.66
-0.62
-4.19
-7.81
-11.3
-14.55
-17.55
-20.42
-23.31
-26.42
-29.95
-34.11
-38.93
-44.2
-49.29
-53.22
-54.86
-53.26
-47.99
-39.39
-28.42
-16.41
-4.68
5.79
14.49
21.31
26.43
30.08
32.45
33.7
33.93
33.3
32.02
30.35
28.59
26.95
25.58
24.51
23.75
23.23
22.87
22.56
22.13
21.42
20.31
18.76
16.86
14.73
12.45
9.99
7.19
3.91
0.15
-3.94
-8.05
-11.87
-15.26
-18.3
-21.25
-24.45
-28.22
-32.71
-37.9
-43.49
-48.83
-53.0
-54.94
-53.7
-48.75
-40.28
-29.16
-16.74
-4.47
6.49
15.5
22.43
27.51
31.01
33.15
34.07
33.9
32.86
31.29
29.59
28.08
26.93
26.15
25.63
25.27
25.01
24.8
24.6
24.32
23.83
22.98
21.68
19.92
17.8
15.46
13.05
10.6
8.08
5.35
2.28
-1.23
-5.11
-9.17
-13.15
-16.8
-19.98
-22.74
-25.32
-28.12
-31.55
-35.86
-40.94
-46.21
-50.64
-53.01
-52.26
-47.89
-40.07
-29.64
-17.85
-5.98
4.95
14.29
21.73
27.21
30.78
32.55
32.7
31.55
29.54
27.17
24.91
23.11
21.92
21.3
21.1
21.12
21.21
21.23
21.1
20.74
20.09
19.1
17.76
16.1
14.18
12.04
9.63
6.89
3.78
0.3
-3.48
-7.44
-11.42
-15.29
-18.93
-22.28
-25.39
-28.46
-31.79
-35.67
-40.19
-45.02
-49.37
-52.11
-52.09
-48.52
-41.29
-31.08
-19.1
-6.77
4.63
14.29
21.85
27.34
31.0
33.13
34.0
33.89
33.02
31.65
30.05
28.45
27.01
25.81
24.87
24.15
23.61
23.22
22.97
22.87
22.89
22.86
22.5
21.53
19.74
17.09
13.82
10.27
6.81
3.6
0.62
-2.38
-5.65
-9.3
-13.17
-16.98
-20.38
-23.21
-25.6
-27.92
-30.74
-34.52
-39.48
-45.36
-51.4
-56.43
-59.17
-58.55
-54.05
-45.87
-34.9
-22.45
-9.89
1.68
11.55
19.47
25.45
29.67
32.3
33.55
33.64
32.87
31.58
30.14
28.82
27.72
26.84
26.06
25.35
24.76
24.47
24.57
25.02
25.56
25.77
25.24
23.73
21.3
18.19
14.82
11.53
8.52
5.78
3.12
0.29
-2.93
-6.62
-10.68
-14.83
-18.75
-22.16
-24.97
-27.29
-29.5
-32.14
-35.7
-40.42
-46.04
-51.69
-56.06
-57.75
-55.71
-49.65
-40.09
-28.2
-15.36
-2.84
8.47
18.07
25.72
31.33
34.92
36.68
36.9
36.03
34.52
32.81
31.23
29.96
29.04
28.43
27.96
27.52
27.04
26.52
26.07
25.72
25.44
25.06
24.33
23.08
21.22
18.83
16.08
13.15
10.17
7.18
4.18
1.11
-2.09
-5.43
-8.91
-12.46
-15.94
-19.22
-22.2
-24.88
-27.41
-30.04
-33.1
-36.87
-41.48
-46.77
-52.1
-56.47
-58.67
-57.67
-52.94
-44.7
-33.82
-21.6
-9.37
1.87
11.47
19.16
24.87
28.65
30.64
31.11
30.48
29.24
27.84
26.57
25.55
24.76
24.16
23.69
23.37
23.19
23.16
23.18
23.07
22.63
21.67
20.11
18.01
15.56
12.99
10.43
7.89
5.22
2.23
-1.19
-4.97
-8.89
-12.67
-16.12
-19.23
-22.21
-25.38
-29.07
-33.45
-38.47
-43.68
-48.25
-51.15
-51.31
-48.02
-41.21
-31.44
-19.88
-7.83
3.52
13.34
21.28
27.2
31.17
33.3
33.79
32.93
31.17
29.03
26.96
25.29
24.08
23.25
22.61
22.05
21.52
21.06
20.68
20.29
19.7
18.72
17.27
15.39
13.26
11.05
8.78
6.31
3.42
-0.06
-4.11
-8.48
-12.86
-16.94
-20.56
-23.72
-26.54
-29.25
-32.1
-35.44
-39.56
-44.55
-50.08
-55.29
-58.96
-59.8
-56.94
-50.23
-40.25
-28.13
-15.2
-2.66
8.57
17.9
25.06
30.02
32.99
34.35
34.57
34.05
33.1
31.86
30.42
28.83
27.18
25.61
24.28
23.31
22.78
22.65
22.85
23.13
23.22
22.83
21.75
19.91
17.43
14.55
11.54
8.59
5.67
2.64
-0.72
-4.49
-8.59
-12.77
-16.74
-20.32
-23.5
-26.48
-29.55
-33.05
-37.2
-42.05
-47.35
-52.49
-56.45
-58.1
-56.41
-50.88
-41.74
-29.97
-16.98
-4.24
7.14
16.56
23.89
29.28
32.93
35.02
35.72
35.31
34.16
32.73
31.36
30.21
29.18
28.08
26.81
25.44
24.22
23.47
23.34
23.65
23.95
23.73
22.58
20.44
17.55
14.32
11.15
8.23
5.5
2.74
-0.3
-3.76
-7.62
-11.73
-15.83
-19.7
-23.19
-26.32
-29.24
-32.25
-35.68
-39.8
-44.67
-49.95
-54.91
-58.47
-59.51
-57.15
-51.08
-41.7
-29.99
-17.29
-4.86
6.35
15.8
23.35
29.06
33.06
35.46
36.35
35.88
34.33
32.12
29.76
27.72
26.32
25.64
25.47
25.5
25.39
24.93
24.13
23.08
21.87
20.5
18.89
16.92
14.54
11.81
8.87
5.89
2.93
-0.03
-3.1
-6.39
-9.91
-13.55
-17.11
-20.43
-23.54
-26.66
-30.17
-34.41
-39.4
-44.67
-49.26
-51.93
-51.57
-47.59
-40.14
-30.08
-18.64
-7.07
3.65
12.98
20.64
26.52
30.55
32.65
32.87
31.46
28.9
25.83
22.86
20.48
18.9
18.14
18.01
18.29
18.72
19.12
19.33
19.22
18.73
17.77
16.31
14.3
11.75
8.65
5.06
1.03
-3.32
-7.84
-12.33
-16.6
-20.51
-24.07
-27.43
-30.93
-34.94
-39.72
-45.2
-50.82
-55.59
-58.32
-57.97
-53.96
-46.43
-36.11
-24.1
-11.56
0.49
11.33
20.48
27.61
32.58
35.43
36.43
36.03
34.77
33.14
31.52
30.1
28.93
28.03
27.36
26.9
26.58
26.28
25.83
25.1
23.95
22.37
20.4
18.17
15.78
13.3
10.66
7.72
4.29
0.28
-4.26
-9.07
-13.82
-18.19
-22.02
-25.34
-28.39
-31.53
-35.17
-39.68
-45.21
-51.55
-57.98
-63.32
-66.19
-65.41
-60.35
-51.18
-38.84
-24.77
-10.54
2.52
13.52
22.09
28.28
32.43
34.99
36.38
36.92
36.81
36.18
35.15
33.88
32.5
31.08
29.6
28.02
26.36
24.7
23.22
22.0
20.98
19.88
18.29
15.83
12.34
7.96
3.07
-1.79
-6.21
-9.96
-13.07
-15.77
-18.33
-20.88
-23.33
-25.38
-26.68
-26.95
-26.18
-24.69
-23.09
-22.09
-22.38
-24.35
-27.98
-32.7
-37.43
-40.8
-41.44
-38.42
-31.55
-21.45
-9.37
3.21
14.98
25.15
33.35
39.6
43.98
46.59
47.49
46.82
44.85
42.01
38.81
35.73
33.1
31.08
29.62
28.59
27.82
27.15
26.45
25.65
24.66
23.45
21.93
20.09
17.89
15.32
12.38
9.07
5.38
1.34
-2.95
-7.3
-11.48
-15.34
-18.85
-22.17
-25.65
-29.7
-34.56
-40.15
-45.91
-50.86
-53.79
-53.57
-49.55
-41.78
-30.99
-18.43
-5.49
6.66
17.26
25.95
32.63
37.3
39.92
40.52
39.26
36.55
32.98
29.23
25.88
23.28
21.49
20.36
19.68
19.22
18.82
18.35
17.71
16.8
15.52
13.8
11.61
8.99
5.98
2.63
-1.02
-4.95
-9.08
-13.31
-17.51
-21.58
-25.5
-29.35
-33.36
-37.85
-43.12
-49.24
-55.85
-62.03
-66.45
-67.67
-64.67
-57.22
-45.95
-32.19
-17.52
-3.33
9.37
20.01
28.35
34.34
38.13
40.02
40.46
39.95
38.94
37.73
36.46
35.13
33.7
32.18
30.64
29.22
28.07
27.3
26.87
26.58
26.08
25.02
23.18
20.6
17.54
14.33
11.11
7.82
4.22
0.09
-4.59
-9.56
-14.41
-18.76
-22.51
-25.85
-29.19
-33.01
-37.68
-43.35
-49.84
-56.54
-62.47
-66.31
-66.79
-63.0
-54.76
-42.71
-28.2
-12.88
1.69
14.38
24.58
32.18
37.35
40.44
41.85
42.02
41.33
40.15
38.76
37.37
36.05
34.8
33.57
32.35
31.25
30.41
29.98
30.0
30.33
30.66
30.56
29.66
27.69
24.63
20.68
16.26
11.83
7.76
4.18
0.96
-2.2
-5.65
-9.57
-13.9
-18.34
-22.53
-26.2
-29.34
-32.15
-35.04
-38.47
-42.85
-48.4
-54.97
-61.95
-68.23
-72.38
-72.99
-69.1
-60.52
-48.0
-32.98
-17.18
-2.12
11.13
22.07
30.56
36.63
40.44
42.19
42.25
41.11
39.34
37.42
35.62
34.0
32.51
31.11
29.9
29.03
28.61
28.58
28.69
28.52
27.73
26.15
23.87
21.14
18.25
15.42
12.69
9.97
7.07
3.81
0.07
-4.11
-8.57
-13.04
-17.19
-20.81
-23.83
-26.46
-29.15
-32.44
-36.8
-42.35
-48.7
-54.89
-59.6
-61.47
-59.45
-53.2
-43.11
-30.28
-16.17
-2.26
10.24
20.61
28.56
34.17
37.7
39.38
39.41
37.96
35.25
31.72
27.93
24.49
21.86
20.2
19.35
18.97
18.7
18.28
17.62
16.72
15.63
14.35
12.81
10.9
8.48
5.42
1.71
-2.54
-7.06
-11.51
-15.6
-19.23
-22.52
-25.73
-29.23
-33.33
-38.24
-44.0
-50.43
-56.97
-62.73
-66.45
-66.91
-63.23
-55.18
-43.38
-29.07
-13.89
0.65
13.38
23.64
31.25
36.34
39.23
40.3
39.93
38.5
36.38
33.92
31.39
29.01
26.89
25.08
23.6
22.48
21.68
21.15
20.71
20.12
19.1
17.47
15.17
12.36
9.26
6.13
3.09
0.12
-2.9
-6.08
-9.47
-13.05
-16.78
-20.64
-24.69
-28.99
-33.57
-38.4
-43.35
-48.14
-52.2
-54.64
-54.29
-49.97
-40.96
-27.34
-10.2
8.67
27.29
43.99
57.75
68.14
75.11
78.71
78.94
75.87
69.75
61.15
50.88
39.89
29.0
18.81
9.68
1.81
-4.65
-9.52
-12.63
-13.88
-13.38
-11.55
-9.06
-6.64
-4.98
-4.45
-5.17
-6.99
-9.61
-12.67
-15.84
-18.88
-21.63
-24.08
-26.28
-28.34
-30.37
-32.46
-34.68
-37.14
-40.0
-43.48
-47.78
-52.9
-58.48
-63.69
-67.32
-68.08
-65.01
-57.78
-46.81
-33.19
-18.3
-3.48
10.21
22.08
31.75
39.09
44.13
47.04
48.13
47.81
46.53
44.73
42.73
40.72
38.74
36.7
34.43
31.81
28.92
26.08
23.86
22.86
23.46
25.55
28.49
31.22
32.6
31.83
28.76
23.89
18.11
12.21
6.52
0.88
-5.04
-11.28
-17.32
-22.2
-25.1
-25.91
-25.46
-25.38
-27.36
-32.55
-41.01
-51.73
-62.92
-72.5
-78.51
-79.46
-74.58
-64.0
-48.8
-30.84
-12.35
4.57
18.42
28.5
34.88
38.12
39.0
38.22
36.34
33.79
30.89
27.94
25.16
22.69
20.54
18.64
16.97
15.52
14.41
13.72
13.47
13.55
13.75
13.73
13.17
11.85
9.66
6.65
3.03
-0.9
-4.81
-8.39
-11.44
-13.88
-15.87
-17.8
-20.16
-23.3
-27.21
-31.3
-34.46
-35.4
-33.09
-27.19
-18.12
-6.98
4.9
16.25
26.06
33.63
38.52
40.52
39.68
36.41
31.46
25.81
20.44
16.07
13.0
11.07
9.81
8.68
7.34
5.77
4.22
2.99
2.25
1.91
1.73
1.51
1.2
0.84
0.42
-0.28
-1.63
-3.95
-7.32
-11.52
-16.23
-21.23
-26.56
-32.41
-38.96
-46.14
-53.65
-61.02
-67.72
-73.18
-76.59
-77.0
-73.47
-65.46
-53.22
-37.87
-21.11
-4.74
9.88
22.03
31.54
38.58
43.37
46.07
46.87
46.01
43.88
40.96
37.81
34.9
32.57
30.98
30.08
29.67
29.46
29.21
28.71
27.87
26.65
25.1
23.35
21.55
19.74
17.73
15.11
11.37
6.16
-0.47
-7.94
-15.37
-21.9
-27.04
-30.87
-33.87
-36.77
-40.22
-44.69
-50.38
-57.07
-64.04
-70.0
-73.26
-72.18
-65.7
-53.81
-37.68
-19.33
-1.07
15.12
27.99
37.12
42.71
45.36
45.78
44.73
42.91
40.92
39.21
37.98
37.19
36.62
35.96
35.0
33.71
32.29
31.06
30.28
30.11
30.39
30.75
30.65
29.6
27.3
23.74
19.26
14.41
9.75
5.68
2.28
-0.69
-3.65
-7.06
-11.2
-16.05
-21.23
-26.09
-29.92
-32.3
-33.39
-34.07
-35.72
-39.73
-46.78
-56.38
-66.81
-75.56
-80.15
-78.83
-71.08
-57.62
-40.1
-20.71
-1.69
15.03
28.13
37.06
42.08
44.09
44.3
43.84
43.48
43.41
43.4
43.0
41.83
39.8
37.16
34.43
32.15
30.69
30.16
30.35
30.91
31.47
31.71
31.4
30.36
28.45
25.63
22.06
18.03
13.95
10.22
7.05
4.39
1.99
-0.58
-3.64
-7.4
-11.79
-16.52
-21.16
-25.33
-28.83
-31.71
-34.28
-36.99
-40.28
-44.53
-49.87
-56.17
-62.87
-69.03
-73.3
-74.22
-70.62
-61.97
-48.69
-32.12
-14.12
3.39
18.92
31.6
41.13
47.5
50.81
51.25
49.19
45.34
40.71
36.36
33.1
31.25
30.65
30.89
31.57
32.51
33.65
34.86
35.84
36.07
35.15
32.96
29.79
26.25
22.96
20.32
18.41
17.03
15.79
14.26
11.99
8.6
3.87
-2.09
-8.79
-15.46
-21.36
-26.02
-29.42
-31.93
-33.99
-36.03
-38.26
-40.82
-43.96
-47.98
-53.17
-59.42
-66.02
-71.6
-74.44
-72.97
-66.37
-54.86
-39.72
-22.86
-6.26
8.51
20.6
29.85
36.46
40.75
43.0
43.39
42.18
39.8
36.79
33.76
31.19
29.29
28.0
27.08
26.26
25.4
24.5
23.7
23.11
22.73
22.35
21.67
20.42
18.41
15.65
12.23
8.32
4.05
-0.43
-5.0
-9.48
-13.72
-17.69
-21.42
-25.11
-29.02
-33.43
-38.52
-44.19
-50.0
-55.08
-58.29
-58.49
-54.93
-47.45
-36.56
-23.23
-8.65
5.93
19.32
30.39
38.2
42.26
42.64
40.12
35.92
31.26
27.01
23.54
20.74
18.36
16.25
14.42
12.98
12.0
11.47
11.24
11.14
10.94
10.43
9.36
7.51
4.73
1.08
-3.24
-7.85
-12.41
-16.66
-20.57
-24.34
-28.37
-33.06
-38.62
-44.82
-50.86
-55.55
-57.53
-55.79
-49.94
-40.38
-28.14
-14.56
-0.96
11.59
22.36
30.89
36.9
40.33
41.29
40.11
37.34
33.66
29.81
26.42
23.9
22.34
21.55
21.15
20.71
19.97
18.87
17.53
16.17
14.9
13.64
12.1
9.89
6.7
2.46
-2.59
-7.96
-13.13
-17.69
-21.51
-24.78
-27.9
-31.4
-35.75
-41.27
-47.9
-55.17
-62.08
-67.24
-69.2
-66.83
-59.75
-48.42
-34.06
-18.3
-2.78
11.24
22.98
32.12
38.66
42.8
44.87
45.29
44.52
42.96
40.97
38.75
36.44
34.11
31.87
29.85
28.22
27.19
26.88
27.26
27.99
28.48
28.09
26.36
23.23
19.07
14.49
10.06
5.99
2.13
-1.85
-6.22
-10.98
-15.83
-20.39
-24.36
-27.72
-30.75
-33.91
-37.74
-42.67
-48.82
-55.83
-62.77
-68.25
-70.73
-68.93
-62.27
-51.12
-36.62
-20.45
-4.3
10.46
22.96
32.84
40.04
44.71
47.09
47.53
46.47
44.44
41.96
39.51
37.4
35.79
34.67
33.94
33.46
33.09
32.77
32.47
32.2
31.97
31.69
31.19
30.19
28.4
25.64
21.94
17.58
13.02
8.77
5.12
2.1
-0.59
-3.43
-6.85
-10.98
-15.61
-20.23
-24.3
-27.49
-29.85
-31.83
-34.12
-37.36
-42.01
-48.1
-55.24
-62.5
-68.59
-71.98
-71.36
-65.92
-55.72
-41.71
-25.51
-8.92
6.45
19.52
29.78
37.15
41.81
44.03
44.18
42.7
40.08
36.89
33.63
30.67
28.26
26.42
25.13
24.28
23.79
23.63
23.75
24.04
24.29
24.18
23.44
21.87
19.43
16.26
12.57
8.57
4.4
0.11
-4.28
-8.74
-13.17
-17.43
-21.33
-24.74
-27.64
-30.15
-32.52
-35.17
-38.53
-42.9
-48.22
-53.94
-58.91
-61.72
-61.01
-55.95
-46.55
-33.68
-18.81
-3.65
10.28
21.98
30.98
37.29
41.16
42.87
42.74
41.03
38.08
34.34
30.36
26.68
23.71
21.69
20.69
20.68
21.54
22.99
24.54
25.57
25.46
23.86
20.84
16.85
12.48
8.18
4.07
-0.03
-4.4
-9.15
-14.17
-19.15
-23.75
-27.78
-31.29
-34.56
-38.01
-42.12
-47.25
-53.4
-60.07
-66.22
-70.44
-71.31
-67.83
-59.73
-47.57
-32.59
-16.39
-0.55
13.65
25.4
34.35
40.49
44.08
45.51
45.25
43.79
41.64
39.23
36.9
34.85
33.13
31.71
30.54
29.65
29.09
28.89
28.98
29.11
28.96
28.21
26.64
24.26
21.23
17.8
14.21
10.57
6.87
2.99
-1.26
-5.99
-11.18
-16.61
-21.94
-26.77
-30.87
-34.25
-37.23
-40.4
-44.41
-49.72
-56.37
-63.76
-70.66
-75.43
-76.46
-72.6
-63.58
-50.12
-33.75
-16.45
-0.1
13.88
24.77
32.51
37.54
40.46
41.89
42.27
41.84
40.68
38.83
36.36
33.47
30.44
27.6
25.24
23.52
22.43
21.76
21.18
20.31
18.81
16.48
13.33
9.54
5.35
1.02
-3.3
-7.6
-11.97
-16.6
-21.64
-27.07
-32.51
-37.15
-39.92
-39.98
-37.24
-32.73
-28.52
-26.95
-29.58
-36.41
-45.66
-54.4
-59.64
-59.23
-52.4
-39.67
-22.48
-2.88
16.83
34.36
47.81
56.15
59.56
59.27
57.05
54.46
52.39
50.9
49.6
48.02
46.02
43.68
41.27
38.96
36.86
35.01
33.41
32.13
31.15
30.38
29.58
28.45
26.67
24.03
20.54
16.37
11.86
7.39
3.21
-0.66
-4.43
-8.37
-12.67
-17.31
-22.04
-26.51
-30.46
-33.87
-37.05
-40.52
-44.8
-50.17
-56.33
-62.38
-66.87
-68.22
-65.17
-57.28
-45.06
-29.87
-13.54
2.15
15.82
26.7
34.56
39.56
42.08
42.59
41.6
39.61
37.06
34.31
31.58
29.04
26.81
24.99
23.68
22.95
22.72
22.89
23.29
23.67
23.81
23.42
22.21
19.99
16.81
13.1
9.51
6.61
4.51
2.74
0.4
-3.38
-8.84
-15.46
-22.17
-27.92
-32.23
-35.36
-38.07
-41.08
-44.72
-48.83
-52.85
-56.12
-57.94
-57.58
-54.32
-47.57
-37.26
-24.03
-9.18
5.53
18.5
28.64
35.62
39.69
41.38
41.25
39.73
37.19
34.03
30.68
27.58
25.05
23.23
22.01
21.2
20.59
20.0
19.35
18.56
17.56
16.29
14.72
12.85
10.69
8.23
5.35
1.91
-2.19
-6.89
-11.94
-16.94
-21.53
-25.49
-28.92
-32.14
-35.72
-40.24
-46.01
-52.9
-60.17
-66.57
-70.55
-70.73
-66.26
-57.11
-44.06
-28.52
-12.18
3.36
16.79
27.36
34.92
39.87
42.95
44.94
46.26
46.83
46.23
44.0
40.08
34.98
29.66
25.11
22.0
20.5
20.42
21.47
23.32
25.62
27.8
29.01
28.41
25.53
20.61
14.6
8.76
4.04
0.73
-1.64
-3.95
-6.97
-11.04
-15.98
-21.28
-26.39
-30.91
-34.72
-37.97
-41.01
-44.34
-48.5
-53.83
-60.25
-67.01
-72.79
-75.91
-74.88
-68.89
-58.06
-43.5
-26.89
-10.08
5.36
18.44
28.71
36.17
41.04
43.66
44.45
43.85
42.35
40.45
38.58
36.99
35.71
34.61
33.54
32.42
31.33
30.47
29.97
29.79
29.64
29.08
27.71
25.34
22.07
18.24
14.26
10.38
6.63
2.83
-1.28
-5.81
-10.66
-15.52
-20.03
-23.94
-27.25
-30.22
-33.29
-36.98
-41.72
-47.69
-54.59
-61.56
-67.23
-70.0
-68.49
-62.02
-50.9
-36.36
-20.21
-4.29
9.95
21.71
30.79
37.38
41.83
44.46
45.54
45.31
44.06
42.15
39.98
37.89
36.12
34.77
33.78
33.04
32.4
31.81
31.25
30.76
30.34
29.88
29.18
27.96
25.95
23.06
19.38
15.25
11.11
7.32
4.03
1.1
-1.83
-5.14
-9.03
-13.43
-18.02
-22.37
-26.15
-29.26
-31.88
-34.41
-37.36
-41.18
-46.21
-52.45
-59.49
-66.35
-71.65
-73.85
-71.71
-64.71
-53.2
-38.42
-22.07
-5.88
8.74
20.9
30.23
36.71
40.61
42.31
42.32
41.17
39.37
37.37
35.46
33.78
32.36
31.13
30.05
29.09
28.34
27.84
27.62
27.6
27.57
27.21
26.2
24.3
21.51
18.07
14.41
10.92
7.8
4.94
2.0
-1.37
-5.33
-9.73
-14.13
-18.1
-21.38
-24.05
-26.44
-29.09
-32.47
-36.92
-42.53
-48.94
-55.36
-60.57
-63.19
-62.04
-56.53
-46.92
-34.21
-19.84
-5.28
8.32
20.17
29.79
36.88
41.23
42.8
41.8
38.78
34.61
30.38
27.14
25.63
26.07
28.03
30.61
32.67
33.38
32.47
30.39
28.0
26.12
25.06
24.46
23.53
21.54
18.27
14.13
9.99
6.69
4.64
3.56
2.78
1.51
-0.73
-3.95
-7.79
-11.8
-15.66
-19.27
-22.73
-26.15
-29.61
-33.24
-37.33
-42.42
-49.11
-57.6
-67.26
-76.48
-83.02
-84.74
-80.41
-70.19
-55.52
-38.6
-21.61
-6.27
6.37
15.8
21.97
25.21
26.39
26.8
27.94
30.99
36.34
43.31
50.42
55.96
58.74
58.56
56.38
53.99
53.51
56.59
63.89
74.8
87.54
99.74
109.12
114.17
114.46
110.35
102.52
91.39
76.93
58.96
37.75
14.55
-8.53
-29.14
-45.55
-57.28
-65.08
-70.44
-74.79
-79.04
-83.47
-88.01
-92.49
-96.68
-100.09
-101.87
-100.88
-96.1
-87.07
-74.19
-58.66
-42.13
-26.24
-12.22
-0.8
7.8
13.71
17.24
18.81
18.88
17.89
16.27
14.42
12.68
11.38
10.72
10.82
11.63
12.95
14.47
15.82
16.66
16.8
16.19
14.89
13.03
10.74
8.16
5.5
2.99
0.84
-0.86
-2.22
-3.57
-5.28
-7.61
-10.6
-14.05
-17.6
-20.93
-23.85
-26.4
-28.72
-31.1
-33.86
-37.32
-41.77
-47.23
-53.31
-59.15
-63.45
-64.87
-62.4
-55.74
-45.35
-32.42
-18.38
-4.62
7.81
18.28
26.5
32.42
36.15
37.95
38.16
37.16
35.38
33.2
30.95
28.94
27.37
26.36
25.88
25.79
25.85
25.85
25.72
25.47
25.22
25.03
24.82
24.37
23.38
21.64
19.13
16.03
12.64
9.23
5.94
2.79
-0.27
-3.36
-6.55
-10.01
-13.95
-18.6
-24.05
-30.04
-35.91
-40.59
-42.9
-41.9
-37.25
-29.34
-19.22
-8.3
2.05
10.82
17.51
22.03
24.59
25.42
24.79
22.96
20.25
17.09
13.95
11.26
9.31
8.19
7.85
8.11
8.73
9.4
9.86
9.9
9.44
8.54
7.32
5.85
4.06
1.8
-1.11
-4.72
-8.92
-13.47
-18.08
-22.53
-26.69
-30.55
-34.15
-37.63
-41.22
-45.29
-50.16
-55.99
-62.47
-68.7
-73.31
-74.8
-72.02
-64.6
-53.1
-38.85
-23.56
-8.81
4.28
15.12
23.6
29.8
33.89
36.01
36.4
35.37
33.36
30.87
28.36
26.13
24.28
22.74
21.35
19.97
18.6
17.32
16.27
15.51
14.94
14.24
13.01
10.82
7.51
3.18
-1.72
-6.62
-11.03
-14.75
-17.97
-21.16
-24.92
-29.71
-35.71
-42.64
-49.69
-55.65
-59.15
-58.97
-54.42
-45.59
-33.33
-19.09
-4.53
8.92
20.31
29.26
35.87
40.48
43.44
44.97
45.17
44.14
42.08
39.37
36.51
33.93
31.88
30.33
29.08
27.9
26.61
25.21
23.77
22.37
21.01
19.55
17.82
15.64
12.95
9.8
6.39
2.93
-0.36
-3.32
-5.86
-7.95
-9.67
-11.17
-12.66
-14.43
-16.76
-19.89
-23.87
-28.47
-33.06
-36.58
-37.82
-35.63
-29.31
-18.87
-5.06
10.79
27.14
42.6
56.19
67.43
76.29
83.02
88.01
91.68
94.44
96.56
98.25
99.61
100.73
101.71
102.65
103.72
105.12
107.15
110.21
114.7
120.79
128.09
135.49
141.19
143.17
139.87
130.72
116.38
98.47
78.95
59.56
41.34
24.62
9.23
-5.19
-18.95
-32.26
-45.34
-58.41
-71.62
-84.78
-97.18
-107.56
-114.5
-116.93
-114.69
-108.77
-101.0
-93.38
-87.37
-83.44
-81.14
-79.63
-78.17
-76.53
-74.91
-73.67
-72.98
-72.65
-72.22
-71.18
-69.18
-66.2
-62.45
-58.3
-54.06
-49.92
-45.93
-42.13
-38.58
-35.38
-32.65
-30.46
-28.79
-27.57
-26.76
-26.37
-26.5
-27.23
-28.5
-30.12
-31.76
-33.12
-33.99
-34.43
-34.72
-35.33
-36.78
-39.54
-43.75
-49.06
-54.38
-58.04
-58.18
-53.44
-43.56
-29.63
-13.7
1.87
15.25
25.61
33.01
38.04
41.27
43.04
43.45
42.64
40.94
38.85
36.88
35.28
33.99
32.72
31.14
29.09
26.68
24.25
22.13
20.46
19.11
17.73
15.92
13.39
10.12
6.23
1.96
-2.46
-6.86
-11.14
-15.23
-19.16
-23.06
-27.11
-31.5
-36.31
-41.4
-46.5
-51.24
-55.37
-58.84
-61.87
-64.81
-68.08
-71.98
-76.55
-81.48
-86.08
-89.39
-90.36
-88.16
-82.36
-73.1
-61.03
-47.16
-32.65
-18.57
-5.74
5.37
14.57
21.92
27.58
31.71
34.46
36.03
36.64
36.58
36.13
35.47
34.68
33.77
32.77
31.73
30.71
29.7
28.59
27.25
25.52
23.32
20.69
17.78
14.79
11.91
9.31
7.12
5.4
4.08
2.99
1.92
0.61
-1.12
-3.32
-5.92
-8.75
-11.62
-14.36
-16.85
-19.05
-21.05
-23.05
-25.39
-28.42
-32.42
-37.33
-42.7
-47.57
-50.76
-51.14
-47.95
-41.08
-31.08
-19.03
-6.25
6.02
16.82
25.62
32.22
36.72
39.35
40.38
40.13
38.91
37.07
34.93
32.82
30.99
29.61
28.76
28.44
28.59
29.06
29.64
30.03
30.01
29.41
28.25
26.64
24.72
22.54
20.09
17.29
14.09
10.53
6.77
2.95
-0.79
-4.44
-8.03
-11.65
-15.39
-19.35
-23.66
-28.46
-33.77
-39.34
-44.52
-48.28
-49.45
-47.04
-40.66
-30.63
-18.02
-4.31
9.0
20.72
30.2
37.28
42.12
45.07
46.49
46.69
45.99
44.66
43.0
41.29
39.74
38.47
37.53
36.92
36.58
36.42
36.32
36.12
35.68
34.9
33.75
32.24
30.42
28.29
25.78
22.84
19.41
15.53
11.36
7.15
3.19
-0.3
-3.25
-5.78
-8.17
-10.78
-13.97
-17.93
-22.67
-27.85
-32.84
-36.73
-38.47
-37.23
-32.58
-24.74
-14.51
-3.07
8.41
19.03
28.29
36.05
42.3
47.0
50.09
51.57
51.65
50.83
49.76
49.1
49.26
50.26
51.76
53.23
54.23
54.6
54.66
55.02
56.34
58.97
62.68
66.73
70.11
72.06
72.53
72.26
72.57
74.72
79.3
85.85
93.04
99.21
103.12
104.58
104.51
104.54
106.33
111.0
118.82
129.25
140.98
151.88
159.11
159.59
151.08
133.51
109.95
86.22
69.18
63.92
71.38
87.74
105.82
118.18
120.01
110.65
92.89
70.92
48.11
25.88
4.05
-17.88
-39.69
-60.14
-77.85
-92.31
-104.57
-116.75
-130.71
-146.64
-162.43
-174.37
-178.9
-174.61
-163.24
-149.22
-137.79
-132.77
-135.07
-142.71
-152.34
-161.11
-168.07
-174.03
-180.45
-187.97
-195.71
-201.68
-203.94
-201.78
-196.07
-188.82
-182.09
-176.93
-172.95
-168.62
-162.03
-151.74
-137.38
-119.78
-100.59
-81.71
-64.62
-50.03
-37.9
-27.76
-19.17
-12.04
-6.63
-3.27
-2.0
-2.34
-3.37
-4.06
-3.61
-1.73
1.31
4.93
8.53
11.73
14.55
17.25
20.16
23.41
26.81
29.87
32.04
32.92
32.45
30.88
28.65
26.25
24.04
22.22
20.81
19.69
18.61
17.22
15.15
12.2
8.48
4.45
1.01
-0.76
0.17
4.52
12.47
23.61
37.01
51.39
65.45
78.1
88.65
96.86
102.83
106.81
109.06
109.71
108.89
106.73
103.44
99.31
94.6
89.47
83.98
78.18
72.21
66.34
60.9
56.18
52.24
48.96
46.04
43.14
40.06
36.68
33.08
29.46
26.08
23.18
20.89
19.13
17.63
16.0
13.87
11.0
7.35
3.06
-1.52
-5.99
-9.87
-12.8
-14.66
-15.75
-16.81
-18.96
-23.32
-30.68
-41.13
-53.95
-67.82
-81.08
-92.22
-100.12
-104.17
-104.28
-100.74
-94.06
-84.85
-73.79
-61.53
-48.75
-36.09
-24.18
-13.53
-4.54
2.57
7.79
11.25
13.14
13.67
12.98
11.21
8.5
5.05
1.12
-3.06
-7.29
-11.44
-15.47
-19.34
-23.06
-26.61
-30.04
-33.46
-37.06
-41.08
-45.58
-50.28
-54.41
-56.84
-56.28
-51.83
-43.29
-31.33
-17.27
-2.73
10.9
22.66
32.08
38.99
43.39
45.39
45.21
43.28
40.18
36.58
33.07
30.04
27.6
25.66
24.0
22.44
20.91
19.49
18.35
17.61
17.2
16.85
16.13
14.62
12.07
8.53
4.31
-0.16
-4.48
-8.45
-12.14
-15.86
-20.01
-24.95
-30.8
-37.29
-43.71
-49.03
-52.09
-51.96
-48.16
-40.78
-30.47
-18.25
-5.36
7.0
17.84
26.46
32.57
36.2
37.64
37.29
35.55
32.77
29.24
25.23
21.1
17.2
13.91
11.45
9.93
9.22
9.05
9.05
8.81
8.0
6.37
3.9
0.74
-2.84
-6.51
-10.06
-13.44
-16.77
-20.34
-24.53
-29.65
-35.78
-42.58
-49.23
-54.49
-56.95
-55.47
-49.55
-39.52
-26.51
-12.15
1.91
14.32
24.27
31.48
36.01
38.11
38.11
36.35
33.23
29.26
24.94
20.77
17.15
14.26
12.15
10.7
9.76
9.16
8.68
8.08
7.1
5.51
3.22
0.28
-3.11
-6.73
-10.42
-14.15
-18.05
-22.32
-27.23
-32.94
-39.41
-46.2
-52.44
-56.86
-58.09
-55.08
-47.5
-35.91
-21.71
-6.67
7.49
19.59
29.05
35.87
40.29
42.64
43.18
42.18
39.99
37.0
33.67
30.34
27.22
24.36
21.75
19.43
17.47
15.97
14.96
14.3
13.72
12.87
11.47
9.35
6.52
3.16
-0.5
-4.25
-8.02
-11.92
-16.25
-21.35
-27.42
-34.28
-41.22
-47.03
-50.3
-49.8
-44.95
-36.01
-24.06
-10.63
2.72
14.72
24.62
32.09
37.15
39.96
40.79
39.99
37.95
35.1
31.82
28.45
25.24
22.34
19.86
17.85
16.31
15.17
14.35
13.64
12.83
11.7
10.06
7.87
5.2
2.25
-0.74
-3.65
-6.47
-9.41
-12.85
-17.12
-22.41
-28.51
-34.71
-39.91
-42.86
-42.52
-38.39
-30.73
-20.46
-8.9
2.58
12.95
21.55
28.11
32.61
35.14
35.86
34.98
32.83
29.81
26.34
22.84
19.59
16.76
14.43
12.61
11.27
10.34
9.66
9.01
8.15
6.86
5.05
2.72
-0.03
-3.08
-6.34
-9.77
-13.46
-17.55
-22.27
-27.73
-33.78
-39.81
-44.79
-47.5
-46.92
-42.62
-34.91
-24.74
-13.39
-2.09
8.18
16.82
23.53
28.23
30.98
32.0
31.6
30.13
27.96
25.35
22.51
19.64
16.89
14.47
12.53
11.14
10.28
9.76
9.29
8.56
7.32
5.46
3.03
0.21
-2.82
-5.92
-9.11
-12.48
-16.18
-20.38
-25.15
-30.43
-35.87
-40.87
-44.48
-45.7
-43.68
-38.13
-29.45
-18.7
-7.25
3.56
12.79
20.03
25.28
28.75
30.66
31.22
30.62
29.18
27.33
25.45
23.83
22.5
21.32
20.09
18.65
17.06
15.48
14.11
13.07
12.32
11.63
10.69
9.18
6.88
3.79
0.09
-3.85
-7.68
-11.11
-14.14
-16.95
-19.94
-23.53
-28.05
-33.49
-39.44
-45.09
-49.3
-51.0
-49.39
-44.24
-35.98
-25.55
-14.19
-3.1
6.77
14.86
20.98
25.23
27.86
29.19
29.48
28.94
27.8
26.23
24.5
22.84
21.42
20.28
19.39
18.61
17.82
17.03
16.26
15.61
15.12
14.68
14.12
13.15
11.52
9.11
5.96
2.26
-1.75
-5.83
-9.8
-13.52
-16.88
-19.85
-22.46
-24.92
-27.56
-30.76
-34.69
-39.11
-43.28
-46.16
-46.64
-44.02
-38.2
-29.76
-19.74
-9.26
0.72
9.55
16.91
22.63
26.63
28.81
29.22
28.1
25.95
23.4
21.09
19.41
18.44
17.92
17.48
16.83
15.92
14.94
14.2
13.93
14.08
14.36
14.29
13.42
11.51
8.63
5.09
1.32
-2.27
-5.44
-8.15
-10.58
-13.08
-16.05
-19.81
-24.41
-29.45
-34.09
-37.22
-37.83
-35.37
-29.94
-22.25
-13.31
-4.14
4.53
12.26
18.82
24.01
27.68
29.66
29.96
28.83
26.7
24.09
21.48
19.18
17.26
15.68
14.29
13.02
11.87
10.89
10.16
9.7
9.38
8.93
8.05
6.44
4.0
0.82
-2.8
-6.49
-9.91
-12.91
-15.54
-18.07
-20.84
-24.18
-28.32
-33.26
-38.7
-44.02
-48.34
-50.63
-50.01
-46.04
-38.88
-29.3
-18.39
-7.31
3.01
11.98
19.34
24.96
28.83
30.96
31.5
30.73
29.06
26.95
24.82
22.98
21.54
20.49
19.69
18.96
18.14
17.13
15.95
14.7
13.49
12.41
11.38
10.16
8.47
6.04
2.78
-1.14
-5.4
-9.58
-13.39
-16.74
-19.83
-23.0
-26.64
-31.05
-36.25
-41.93
-47.46
-51.89
-54.2
-53.51
-49.36
-41.89
-31.8
-20.18
-8.24
2.98
12.72
20.6
26.51
30.56
32.95
33.98
33.92
32.98
31.37
29.24
26.85
24.48
22.44
20.93
20.0
19.53
19.29
19.03
18.6
17.91
16.98
15.81
14.35
12.54
10.29
7.59
4.48
1.09
-2.43
-5.94
-9.37
-12.73
-16.09
-19.52
-23.14
-27.05
-31.35
-36.09
-41.12
-46.0
-49.96
-51.97
-51.07
-46.7
-38.91
-28.48
-16.65
-4.77
6.05
15.1
22.14
27.17
30.37
31.91
31.97
30.78
28.67
26.05
23.36
20.97
19.05
17.61
16.54
15.74
15.15
14.8
14.69
14.71
14.62
14.03
12.63
10.22
6.91
3.02
-1.02
-4.86
-8.36
-11.62
-14.96
-18.73
-23.26
-28.63
-34.65
-40.69
-45.81
-48.87
-48.92
-45.47
-38.65
-29.21
-18.27
-6.98
3.74
13.24
21.17
27.35
31.66
34.08
34.71
33.81
31.79
29.12
26.29
23.68
21.52
19.86
18.62
17.64
16.79
16.03
15.36
14.82
14.38
13.91
13.14
11.78
9.59
6.49
2.56
-1.93
-6.59
-11.11
-15.27
-19.07
-22.69
-26.42
-30.59
-35.49
-41.24
-47.68
-54.27
-60.0
-63.53
-63.59
-59.32
-50.7
-38.58
-24.47
-10.05
3.23
14.5
23.39
29.95
34.37
36.9
37.82
37.43
36.09
34.17
31.98
29.75
27.68
25.89
24.54
23.68
23.27
23.11
22.93
22.45
21.54
20.2
18.56
16.71
14.64
12.18
9.12
5.37
1.01
-3.62
-8.12
-12.21
-15.8
-19.07
-22.31
-25.86
-29.99
-34.86
-40.52
-46.82
-53.21
-58.71
-61.99
-61.73
-57.08
-48.04
-35.56
-21.21
-6.74
6.46
17.58
26.35
32.81
37.13
39.5
40.19
39.56
38.11
36.31
34.55
32.99
31.66
30.51
29.51
28.69
28.14
27.93
28.02
28.28
28.48
28.33
27.6
26.13
23.91
21.07
17.8
14.33
10.8
7.24
3.6
-0.21
-4.24
-8.49
-12.82
-17.07
-21.11
-24.87
-28.5
-32.34
-36.84
-42.38
-48.96
-56.02
-62.35
-66.38
-66.66
-62.31
-53.39
-40.9
-26.45
-11.75
1.79
13.36
22.66
29.76
34.83
38.01
39.43
39.26
37.8
35.5
32.86
30.35
28.29
26.82
25.92
25.45
25.26
25.18
25.09
24.9
24.56
24.04
23.3
22.27
20.85
18.9
16.27
12.92
8.89
4.4
-0.3
-4.89
-9.16
-12.98
-16.39
-19.51
-22.61
-26.04
-30.15
-35.14
-40.87
-46.7
-51.53
-54.04
-53.11
-48.14
-39.33
-27.6
-14.34
-1.01
11.15
21.37
29.27
34.84
38.29
39.85
39.8
38.35
35.8
32.5
28.94
25.66
23.09
21.5
20.87
20.91
21.22
21.45
21.36
20.92
20.13
19.05
17.61
15.67
13.08
9.74
5.72
1.19
-3.6
-8.39
-13.03
-17.45
-21.65
-25.7
-29.73
-33.95
-38.65
-44.1
-50.36
-57.08
-63.36
-67.89
-69.21
-66.24
-58.61
-46.89
-32.42
-16.93
-2.08
10.91
21.42
29.32
34.82
38.21
39.81
39.9
38.78
36.82
34.44
32.06
30.04
28.58
27.68
27.2
26.88
26.52
25.99
25.28
24.42
23.47
22.42
21.16
19.5
17.25
14.3
10.62
6.35
1.72
-2.97
-7.47
-11.65
-15.56
-19.33
-23.21
-27.41
-32.17
-37.66
-43.93
-50.81
-57.69
-63.55
-67.03
-66.79
-61.99
-52.68
-39.78
-24.91
-9.84
3.95
15.61
24.85
31.79
36.68
39.73
41.15
41.16
40.09
38.36
36.33
34.3
32.41
30.7
29.2
28.02
27.24
26.95
27.12
27.55
27.92
27.86
27.08
25.45
23.03
20.05
16.78
13.46
10.15
6.76
3.1
-0.96
-5.4
-10.04
-14.57
-18.73
-22.41
-25.69
-28.82
-32.15
-36.1
-41.02
-47.02
-53.78
-60.42
-65.56
-67.66
-65.53
-58.74
-47.81
-34.09
-19.27
-4.89
7.98
18.79
27.39
33.76
37.94
40.06
40.32
39.1
36.9
34.25
31.63
29.35
27.59
26.41
25.76
25.52
25.54
25.61
25.55
25.18
24.38
23.07
21.22
18.86
16.0
12.68
8.94
4.81
0.42
-4.12
-8.62
-12.94
-16.97
-20.76
-24.45
-28.27
-32.5
-37.38
-43.02
-49.21
-55.33
-60.32
-62.86
-61.76
-56.34
-46.8
-34.18
-20.07
-6.1
6.46
16.95
25.24
31.46
35.82
38.43
39.36
38.72
36.81
34.04
30.95
28.05
25.68
24.0
22.95
22.36
22.05
21.84
21.63
21.34
20.83
19.98
18.64
16.74
14.27
11.23
7.66
3.58
-0.92
-5.7
-10.49
-15.05
-19.18
-22.88
-26.34
-29.94
-34.09
-39.19
-45.33
-52.21
-59.0
-64.4
-66.94
-65.4
-59.28
-48.98
-35.69
-21.07
-6.69
6.25
17.13
25.73
32.15
36.57
39.22
40.4
40.43
39.67
38.45
36.99
35.45
33.88
32.35
30.94
29.77
28.97
28.63
28.68
28.89
28.88
28.32
26.96
24.79
22.0
18.84
15.55
12.21
8.77
5.11
1.15
-3.13
-7.61
-12.19
-16.7
-21.06
-25.19
-29.08
-32.87
-36.84
-41.4
-46.86
-53.21
-59.85
-65.55
-68.72
-67.92
-62.34
-52.15
-38.45
-22.93
-7.38
6.76
18.63
27.91
34.66
39.12
41.6
42.44
42.03
40.76
39.07
37.27
35.59
34.13
32.88
31.82
30.96
30.33
29.96
29.86
29.9
29.86
29.45
28.41
26.58
23.99
20.85
17.45
14.07
10.85
7.77
4.63
1.19
-2.72
-7.11
-11.83
-16.62
-21.18
-25.29
-28.86
-31.98
-34.93
-38.13
-42.14
-47.38
-53.92
-61.21
-67.94
-72.29
-72.52
-67.52
-57.36
-43.29
-27.32
-11.54
2.52
14.11
23.19
30.05
34.98
38.1
39.45
39.14
37.45
34.88
32.0
29.37
27.32
25.97
25.23
24.9
24.79
24.75
24.73
24.7
24.6
24.3
23.62
22.39
20.51
17.96
14.79
11.13
7.11
2.88
-1.41
-5.62
-9.61
-13.31
-16.71
-19.9
-23.08
-26.54
-30.62
-35.47
-40.94
-46.4
-50.79
-52.84
-51.49
-46.22
-37.31
-25.75
-12.95
-0.36
10.94
20.3
27.52
32.63
35.74
36.97
36.5
34.63
31.78
28.49
25.26
22.46
20.21
18.45
17.05
15.88
14.91
14.22
13.87
13.82
13.83
13.53
12.46
10.25
6.79
2.27
-2.83
-7.93
-12.57
-16.54
-20.03
-23.43
-27.28
-32.02
-37.87
-44.69
-51.86
-58.33
-62.78
-63.87
-60.69
-53.03
-41.58
-27.73
-13.16
0.62
12.56
22.2
29.52
34.71
38.02
39.68
39.9
38.93
37.06
34.65
32.06
29.62
27.57
26.01
24.93
24.21
23.67
23.18
22.64
22.0
21.22
20.17
18.7
16.63
13.83
10.33
6.25
1.77
-2.95
-7.78
-12.66
-17.5
-22.17
-26.56
-30.69
-34.78
-39.22
-44.46
-50.71
-57.73
-64.63
-70.05
-72.4
-70.44
-63.65
-52.45
-38.11
-22.35
-6.87
7.01
18.55
27.53
34.04
38.35
40.78
41.67
41.4
40.36
38.89
37.29
35.71
34.21
32.77
31.38
30.12
29.11
28.48
28.26
28.3
28.26
27.74
26.41
24.13
21.02
17.42
13.69
10.09
6.69
3.3
-0.3
-4.35
-8.87
-13.69
-18.51
-23.04
-27.12
-30.78
-34.28
-38.03
-42.5
-48.04
-54.63
-61.65
-67.89
-71.7
-71.5
-66.37
-56.39
-42.7
-27.12
-11.55
2.56
14.43
23.9
31.11
36.27
39.54
41.07
41.11
40.02
38.29
36.41
34.77
33.58
32.9
32.65
32.68
32.85
33.04
33.18
33.22
33.1
32.75
32.06
30.95
29.32
27.11
24.3
20.92
17.08
12.99
8.89
4.96
1.28
-2.22
-5.74
-9.48
-13.61
-18.13
-22.91
-27.78
-32.56
-37.14
-41.54
-45.86
-50.31
-55.21
-60.93
-67.73
-75.56
-83.86
-91.42
-96.61
-97.77
-93.75
-84.39
-70.51
-53.8
-36.24
-19.61
-5.1
6.79
16.08
23.08
28.17
31.73
34.07
35.5
36.31
36.83
37.26
37.7
38.14
38.5
38.71
38.82
38.96
39.23
39.64
39.98
39.94
39.14
37.3
34.43
30.74
26.66
22.6
18.84
15.35
11.89
8.1
3.73
-1.22
-6.48
-11.65
-16.38
-20.58
-24.44
-28.36
-32.84
-38.23
-44.59
-51.46
-57.88
-62.52
-63.99
-61.25
-53.99
-42.76
-28.86
-13.96
0.37
13.02
23.41
31.42
37.21
41.01
43.04
43.57
42.88
41.38
39.45
37.44
35.53
33.78
32.14
30.6
29.23
28.11
27.34
26.89
26.56
26.06
25.08
23.43
21.09
18.19
14.94
11.53
8.07
4.52
0.78
-3.34
-7.9
-12.84
-17.93
-22.84
-27.3
-31.24
-34.84
-38.57
-42.96
-48.37
-54.71
-61.28
-66.77
-69.57
-68.3
-62.23
-51.63
-37.7
-22.21
-6.92
6.83
18.34
27.41
34.15
38.71
41.21
41.84
40.89
38.84
36.28
33.77
31.73
30.33
29.51
29.04
28.65
28.14
27.48
26.79
26.26
25.98
25.87
25.62
24.85
23.16
20.38
16.55
11.93
6.89
1.82
-2.99
-7.37
-11.3
-14.89
-18.38
-22.08
-26.31
-31.29
-36.93
-42.76
-47.82
-50.89
-50.76
-46.64
-38.46
-26.97
-13.52
0.32
13.19
24.14
32.74
38.9
42.78
44.62
44.69
43.37
41.06
38.24
35.43
33.03
31.32
30.37
29.96
29.77
29.43
28.74
27.78
26.8
26.05
25.55
25.01
23.83
21.42
17.45
12.05
5.78
-0.58
-6.35
-11.17
-15.08
-18.43
-21.77
-25.65
-30.51
-36.53
-43.51
-50.78
-57.22
-61.46
-62.27
-58.93
-51.49
-40.75
-28.01
-14.69
-2.03
9.09
18.16
24.97
29.56
32.18
33.23
33.19
32.49
31.45
30.26
28.98
27.7
26.46
25.35
24.39
23.52
22.64
21.57
20.19
18.4
16.22
13.66
10.77
7.56
4.01
0.12
-4.09
-8.53
-13.05
-17.42
-21.45
-24.96
-27.91
-30.36
-32.56
-34.92
-37.92
-41.99
-47.28
-53.48
-59.68
-64.48
-66.31
-63.92
-56.8
-45.41
-31.08
-15.59
-0.69
12.34
22.88
30.86
36.58
40.37
42.47
43.0
42.06
39.9
36.94
33.75
30.83
28.55
26.97
25.89
25.01
24.06
22.97
21.79
20.68
19.68
18.69
17.4
15.43
12.5
8.49
3.57
-1.88
-7.39
-12.58
-17.21
-21.32
-25.12
-28.93
-33.14
-38.11
-44.07
-50.99
-58.38
-65.21
-70.04
-71.35
-68.04
-59.82
-47.38
-32.22
-16.2
-1.04
12.07
22.58
30.45
35.93
39.35
41.02
41.26
40.4
38.83
36.96
35.11
33.47
32.11
30.97
29.98
29.14
28.47
27.99
27.66
27.28
26.58
25.29
23.22
20.34
16.86
13.04
9.16
5.37
1.66
-2.12
-6.14
-10.48
-15.11
-19.86
-24.51
-28.89
-32.91
-36.65
-40.41
-44.63
-49.76
-55.94
-62.81
-69.3
-73.8
-74.64
-70.6
-61.46
-48.07
-32.13
-15.58
-0.12
13.17
23.87
32.01
37.8
41.49
43.29
43.49
42.51
40.85
39.04
37.47
36.31
35.51
34.85
34.16
33.36
32.57
31.97
31.69
31.7
31.78
31.55
30.6
28.63
25.62
21.76
17.45
13.17
9.25
5.83
2.78
-0.19
-3.44
-7.22
-11.55
-16.22
-20.87
-25.17
-28.89
-32.06
-34.93
-37.89
-41.41
-45.9
-51.56
-58.25
-65.21
-71.2
-74.57
-73.83
-68.1
-57.5
-43.18
-26.98
-10.83
3.7
15.77
25.14
31.96
36.54
39.23
40.36
40.28
39.33
37.85
36.06
34.16
32.3
30.63
29.33
28.54
28.34
28.66
29.29
29.91
30.16
29.71
28.39
26.18
23.25
19.87
16.3
12.68
9.07
5.34
1.41
-2.79
-7.18
-11.54
-15.64
-19.28
-22.46
-25.38
-28.43
-32.1
-36.83
-42.77
-49.61
-56.5
-62.13
-64.97
-63.75
-57.88
-47.67
-34.25
-19.29
-4.42
9.03
20.3
29.11
35.5
39.63
41.73
42.08
40.96
38.78
35.95
32.88
29.96
27.43
25.45
24.07
23.28
23.02
23.13
23.42
23.6
23.35
22.41
20.67
18.22
15.26
11.99
8.54
4.87
0.9
-3.42
-8.03
-12.76
-17.39
-21.73
-25.68
-29.29
-32.7
-36.19
-40.11
-44.86
-50.7
-57.52
-64.59
-70.64
-74.02
-73.23
-67.41
-56.73
-42.34
-26.07
-9.84
4.8
16.98
26.45
33.4
38.15
41.0
42.22
42.09
41.0
39.35
37.54
35.86
34.38
33.08
31.87
30.74
29.78
29.16
29.05
29.4
29.96
30.25
29.68
27.88
24.8
20.75
16.3
12.0
8.13
4.61
1.08
-2.87
-7.44
-12.51
-17.72
-22.67
-27.09
-30.93
-34.35
-37.63
-41.1
-45.11
-50.0
-55.97
-62.8
-69.71
-75.3
-77.86
-75.9
-68.74
-56.79
-41.51
-24.88
-8.82
5.33
16.9
25.83
32.34
36.74
39.27
40.23
39.9
38.66
36.89
34.94
33.07
31.44
30.16
29.25
28.71
28.48
28.44
28.42
28.22
27.65
26.6
25.01
22.9
20.37
17.49
14.35
10.94
7.26
3.27
-1.01
-5.48
-10.01
-14.47
-18.72
-22.73
-26.53
-30.27
-34.24
-38.78
-44.09
-50.01
-55.79
-60.2
-61.76
-59.32
-52.45
-41.67
-28.28
-13.89
0.02
12.39
22.67
30.63
36.22
39.5
40.62
39.9
37.83
34.96
31.85
28.92
26.35
24.19
22.33
20.66
19.2
18.07
17.43
17.37
17.7
17.99
17.64
16.12
13.19
8.98
3.95
-1.34
-6.4
-11.0
-15.16
-19.14
-23.33
-28.12
-33.81
-40.41
-47.48
-54.07
-58.86
-60.44
-57.8
-50.68
-39.69
-26.2
-11.87
1.74
13.5
22.86
29.74
34.29
36.77
37.43
36.54
34.46
31.64
28.53
25.51
22.8
20.38
18.12
15.95
13.92
12.19
10.94
10.14
9.54
8.64
6.95
4.14
0.17
-4.69
-10.01
-15.36
-20.39
-24.97
-29.23
-33.51
-38.37
-44.27
-51.34
-59.06
-66.24
-71.18
-72.23
-68.34
-59.48
-46.63
-31.46
-15.78
-1.02
11.94
22.76
31.34
37.71
41.9
43.97
44.18
42.91
40.67
38.02
35.42
33.23
31.66
30.71
30.2
29.85
29.32
28.41
27.1
25.58
24.07
22.71
21.39
19.78
17.45
14.12
9.75
4.59
-0.92
-6.35
-11.4
-16.0
-20.21
-24.28
-28.5
-33.24
-38.81
-45.27
-52.26
-58.87
-63.78
-65.54
-63.1
-56.1
-45.11
-31.39
-16.58
-2.2
10.63
21.33
29.72
35.87
39.92
42.05
42.5
41.61
39.83
37.67
35.55
33.73
32.23
30.9
29.59
28.2
26.81
25.55
24.57
23.88
23.35
22.66
21.51
19.64
16.95
13.54
9.59
5.34
1.01
-3.28
-7.44
-11.51
-15.56
-19.72
-24.23
-29.3
-35.11
-41.56
-48.14
-53.87
-57.46
-57.68
-53.67
-45.39
-33.65
-19.9
-5.83
7.15
18.18
26.99
33.7
38.5
41.53
42.85
42.55
40.87
38.27
35.3
32.46
30.13
28.43
27.32
26.63
26.14
25.66
25.02
24.14
22.97
21.5
19.7
17.48
14.74
11.42
7.52
3.13
-1.54
-6.32
-11.01
-15.48
-19.67
-23.58
-27.37
-31.32
-35.86
-41.4
-48.07
-55.51
-62.67
-68.05
-70.02
-67.46
-60.11
-48.76
-34.9
-20.23
-6.17
6.44
17.26
26.21
33.2
38.1
40.87
41.7
41.11
39.76
38.29
37.09
36.24
35.58
34.94
34.24
33.5
32.82
32.3
31.91
31.56
31.06
30.21
28.8
26.68
23.79
20.22
16.23
12.16
8.32
4.84
1.64
-1.61
-5.26
-9.55
-14.44
-19.64
-24.69
-29.17
-32.91
-35.99
-38.8
-41.9
-45.85
-51.06
-57.58
-64.93
-72.03
-77.34
-79.16
-76.22
-68.07
-55.33
-39.58
-22.83
-6.98
6.69
17.67
26.1
32.45
37.19
40.6
42.82
43.92
44.11
43.7
43.06
42.46
41.98
41.49
40.77
39.69
38.35
36.99
35.93
35.34
35.12
34.96
34.42
33.13
30.89
27.75
23.89
19.65
15.36
11.31
7.61
4.2
0.9
-2.59
-6.46
-10.76
-15.35
-19.97
-24.34
-28.28
-31.73
-34.74
-37.46
-40.15
-43.2
-47.04
-51.98
-57.96
-64.33
-69.81
-72.82
-71.95
-66.47
-56.58
-43.41
-28.63
-13.86
-0.38
11.11
20.38
27.44
32.43
35.54
37.04
37.28
36.69
35.64
34.42
33.16
31.88
30.6
29.39
28.4
27.84
27.8
28.23
28.86
29.31
29.21
28.36
26.74
24.54
21.95
19.18
16.28
13.24
10.03
6.66
3.18
-0.33
-3.78
-7.14
-10.38
-13.52
-16.62
-19.82
-23.37
-27.56
-32.53
-38.16
-43.84
-48.59
-51.19
-50.58
-46.14
-37.98
-26.9
-14.19
-1.3
10.54
20.5
28.19
33.58
36.82
38.13
37.79
36.13
33.56
30.56
27.57
24.95
22.91
21.53
20.78
20.57
20.77
21.17
21.55
21.68
21.36
20.48
19.02
17.03
14.63
11.9
8.94
5.76
2.39
-1.22
-5.13
-9.37
-13.87
-18.45
-22.86
-26.85
-30.33
-33.45
-36.6
-40.32
-45.08
-51.0
-57.67
-64.09
-68.86
-70.51
-67.96
-60.91
-49.91
-36.2
-21.4
-7.03
5.76
16.34
24.5
30.32
34.07
36.06
36.66
36.24
35.15
33.7
32.11
30.51
29.03
27.76
26.74
26.05
25.68
25.6
25.67
25.66
25.29
24.23
22.3
19.5
16.07
12.43
8.91
5.67
2.57
-0.74
-4.57
-9.04
-13.99
-19.03
-23.75
-27.88
-31.45
-34.73
-38.14
-42.14
-47.06
-52.94
-59.33
-65.31
-69.54
-70.6
-67.41
-59.62
-47.74
-33.03
-17.22
-1.99
11.32
21.97
29.75
34.87
37.75
38.88
38.7
37.58
35.86
33.84
31.82
30.03
28.56
27.38
26.35
25.41
24.55
23.83
23.29
22.81
22.18
21.12
19.41
17.04
14.17
11.06
7.94
4.89
1.85
-1.34
-4.85
-8.76
-13.01
-17.45
-21.85
-25.99
-29.75
-33.18
-36.54
-40.25
-44.79
-50.47
-57.1
-63.87
-69.41
-72.08
-70.51
-64.11
-53.26
-39.25
-23.88
-8.85
4.55
15.62
24.17
30.32
34.31
36.46
37.05
36.39
34.85
32.78
30.57
28.59
27.08
26.14
25.68
25.5
25.4
25.24
25.02
24.81
24.65
24.5
24.23
23.63
22.45
20.5
17.69
14.06
9.83
5.34
0.92
-3.2
-6.97
-10.52
-14.08
-17.94
-22.36
-27.57
-33.64
-40.36
-47.02
-52.49
-55.41
-54.61
-49.56
-40.57
-28.75
-15.61
-2.67
8.97
18.64
26.12
31.39
34.54
35.73
35.15
33.14
30.13
26.64
23.21
20.25
17.98
16.34
15.12
14.07
13.05
12.1
11.39
11.06
11.08
11.2
10.98
9.97
7.83
4.52
0.27
-4.48
-9.22
-13.58
-17.37
-20.66
-23.77
-27.16
-31.32
-36.61
-43.1
-50.41
-57.65
-63.44
-66.26
-64.87
-58.71
-48.16
-34.48
-19.38
-4.55
8.77
19.88
28.58
34.97
39.25
41.69
42.55
42.16
40.89
39.03
36.89
34.67
32.57
30.72
29.17
27.9
26.81
25.8
24.81
23.83
22.86
21.84
20.61
18.88
16.38
12.91
8.45
3.22
-2.45
-8.18
-13.67
-18.76
-23.45
-27.85
-32.17
-36.73
-41.9
-47.97
-54.95
-62.33
-68.92
-73.14
-73.38
-68.66
-59.02
-45.54
-30.02
-14.32
0.09
12.44
22.54
30.54
36.64
40.94
43.54
44.54
44.22
42.94
41.08
39.01
36.97
35.15
33.63
32.49
31.69
31.15
30.71
30.13
29.19
27.75
25.76
23.29
20.45
17.35
14.02
10.42
6.48
2.19
-2.41
-7.22
-12.12
-16.98
-21.7
-26.21
-30.52
-34.77
-39.28
-44.45
-50.54
-57.36
-64.09
-69.3
-71.34
-68.93
-61.62
-49.98
-35.43
-19.75
-4.58
8.94
20.19
28.98
35.33
39.35
41.2
41.16
39.66
37.26
34.56
32.12
30.27
29.06
28.33
27.8
27.21
26.43
25.5
24.48
23.41
22.26
20.88
19.12
16.88
14.12
10.86
7.16
3.12
-1.16
-5.5
-9.75
-13.81
-17.69
-21.52
-25.54
-30.01
-35.11
-40.86
-46.89
-52.45
-56.42
-57.62
-55.17
-48.75
-38.83
-26.46
-12.96
0.44
12.79
23.47
32.06
38.25
41.85
42.87
41.62
38.73
34.98
31.11
27.63
24.8
22.62
21.0
19.82
19.04
18.59
18.41
18.28
17.94
17.03
15.24
12.42
8.61
4.09
-0.71
-5.34
-9.57
-13.42
-17.18
-21.32
-26.31
-32.47
-39.72
-47.47
-54.64
-59.77
-61.39
-58.47
-50.78
-39.04
-24.72
-9.61
4.71
17.2
27.43
35.35
41.07
44.63
46.04
45.38
42.95
39.31
35.15
31.15
27.81
25.38
23.83
22.96
22.53
22.31
22.19
22.12
22.01
21.68
20.8
18.95
15.79
11.19
5.4
-1.01
-7.34
-12.95
-17.61
-21.47
-25.11
-29.18
-34.29
-40.77
-48.55
-57.12
-65.46
-72.2
-75.8
-75.01
-69.24
-58.82
-44.98
-29.43
-13.96
0.05
11.84
21.2
28.31
33.45
36.89
38.84
39.47
38.98
37.61
35.65
33.42
31.17
29.03
27.02
25.11
23.26
21.53
20.06
18.97
18.29
17.87
17.39
16.42
14.54
11.54
7.47
2.66
-2.47
-7.45
-12.03
-16.16
-19.99
-23.85
-28.05
-32.96
-38.79
-45.57
-52.87
-59.8
-65.04
-67.12
-64.95
-58.12
-47.16
-33.33
-18.27
-3.58
9.6
20.62
29.36
35.93
40.55
43.43
44.69
44.49
43.08
40.85
38.29
35.86
33.85
32.32
31.12
30.04
28.94
27.82
26.79
25.97
25.34
24.67
23.6
21.75
18.82
14.81
9.94
4.65
-0.56
-5.3
-9.41
-12.96
-16.28
-19.79
-23.91
-28.98
-35.09
-41.98
-48.88
-54.62
-57.78
-57.16
-52.12
-42.9
-30.52
-16.48
-2.31
10.76
21.97
30.94
37.51
41.62
43.3
42.77
40.52
37.22
33.62
30.3
27.59
25.49
23.82
22.34
20.95
19.64
18.49
17.59
16.91
16.33
15.65
14.62
12.92
10.29
6.55
1.76
-3.75
-9.43
-14.72
-19.29
-23.15
-26.69
-30.5
-35.19
-41.12
-48.28
-56.11
-63.59
-69.26
-71.63
-69.52
-62.54
-51.25
-37.01
-21.54
-6.52
6.91
18.15
27.09
33.8
38.41
41.03
41.82
41.08
39.31
37.06
34.85
33.02
31.63
30.53
29.48
28.29
26.91
25.44
24.05
22.86
21.83
20.75
19.33
17.25
14.34
10.55
6.04
1.1
-3.95
-8.79
-13.24
-17.28
-21.08
-24.89
-29.06
-33.95
-39.83
-46.78
-54.47
-62.06
-68.2
-71.34
-70.17
-64.07
-53.37
-39.26
-23.47
-7.69
6.71
18.92
28.62
35.79
40.58
43.27
44.2
43.79
42.48
40.64
38.55
36.41
34.35
32.51
30.97
29.78
28.88
28.14
27.4
26.46
25.17
23.48
21.39
18.98
16.32
13.4
10.13
6.41
2.22
-2.38
-7.16
-11.88
-16.4
-20.69
-24.91
-29.31
-34.16
-39.71
-46.11
-53.28
-60.71
-67.42
-71.98
-72.94
-69.23
-60.69
-48.14
-33.13
-17.46
-2.67
10.3
21.04
29.55
35.89
40.15
42.4
42.8
41.67
39.46
36.69
33.84
31.23
29.04
27.26
25.81
24.56
23.46
22.49
21.7
21.08
20.54
19.84
18.65
16.67
13.72
9.86
5.42
0.86
-3.41
-7.17
-10.53
-13.83
-17.56
-22.17
-27.9
-34.68
-42.0
-48.9
-54.11
-56.29
-54.47
-48.33
-38.38
-25.8
-12.06
1.48
13.83
24.42
32.93
39.15
42.96
44.34
43.55
41.08
37.58
33.68
29.88
26.47
23.54
21.08
19.07
17.5
16.41
15.79
15.55
15.45
15.08
14.03
11.93
8.61
4.22
-0.87
-6.16
-11.2
-15.69
-19.64
-23.28
-26.99
-31.25
-36.46
-42.84
-50.3
-58.22
-65.47
-70.53
-71.87
-68.42
-59.99
-47.35
-32.1
-16.13
-1.11
11.91
22.52
30.81
37.04
41.41
44.0
44.84
44.08
42.03
39.21
36.17
33.31
30.83
28.71
26.81
25.04
23.41
22.06
21.12
20.59
20.23
19.62
18.24
15.68
11.77
6.74
1.06
-4.63
-9.82
-14.29
-18.15
-21.79
-25.73
-30.42
-36.2
-43.21
-51.36
-60.14
-68.57
-75.19
-78.34
-76.68
-69.63
-57.71
-42.41
-25.7
-9.44
5.02
17.08
26.66
33.97
39.21
42.51
43.97
43.79
42.33
40.1
37.6
35.26
33.31
31.77
30.56
29.51
28.52
27.49
26.38
25.17
23.84
22.34
20.59
18.46
15.76
12.37
8.25
3.56
-1.45
-6.45
-11.23
-15.7
-19.95
-24.17
-28.63
-33.59
-39.34
-46.02
-53.55
-61.42
-68.56
-73.53
-74.83
-71.4
-63.02
-50.41
-35.08
-18.85
-3.34
10.34
21.69
30.6
37.19
41.55
43.76
44.0
42.6
40.1
37.17
34.43
32.26
30.78
29.79
29.0
28.13
27.11
26.0
24.98
24.17
23.51
22.72
21.36
19.01
15.49
10.97
5.91
0.88
-3.68
-7.61
-11.11
-14.54
-18.27
-22.52
-27.41
-32.97
-39.13
-45.62
-51.79
-56.56
-58.63
-56.81
-50.52
-40.07
-26.57
-11.63
3.1
16.32
27.27
35.59
41.28
44.47
45.36
44.31
41.78
38.33
34.53
30.84
27.53
24.69
22.3
20.32
18.72
17.48
16.52
15.69
14.69
13.22
11.02
7.96
4.08
-0.4
-5.17
-9.94
-14.48
-18.76
-22.98
-27.56
-32.98
-39.58
-47.26
-55.3
-62.41
-66.95
-67.43
-62.98
-53.66
-40.45
-24.9
-8.77
6.47
19.83
30.85
39.39
45.49
49.18
50.54
49.81
47.41
43.99
40.26
36.85
34.17
32.29
31.04
30.09
29.13
27.96
26.54
24.94
23.26
21.55
19.76
17.71
15.16
11.88
7.72
2.72
-2.95
-9.01
-15.16
-21.12
-26.68
-31.79
-36.57
-41.38
-46.72
-53.05
-60.48
-68.48
-75.77
-80.55
-80.99
-75.89
-65.12
-49.71
-31.58
-12.88
4.52
19.4
31.23
40.0
45.96
49.45
50.85
50.64
49.38
47.62
45.79
44.09
42.49
40.85
39.1
37.31
35.72
34.52
33.77
33.27
32.63
31.48
29.58
26.95
23.79
20.33
16.71
12.9
8.79
4.2
-0.94
-6.55
-12.38
-18.08
-23.34
-27.99
-32.15
-36.12
-40.41
-45.55
-51.94
-59.61
-67.98
-75.81
-81.33
-82.7
-78.6
-68.71
-53.89
-35.97
-17.13
0.66
16.07
28.48
37.8
44.31
48.36
50.37
50.76
49.97
48.39
46.37
44.18
41.99
39.9
37.97
36.19
34.61
33.31
32.39
31.9
31.74
31.59
30.97
29.44
26.77
23.03
18.63
14.09
9.78
5.84
2.08
-1.85
-6.28
-11.29
-16.69
-22.08
-27.04
-31.32
-34.96
-38.28
-41.81
-46.14
-51.71
-58.67
-66.65
-74.72
-81.33
-84.69
-83.21
-76.05
-63.48
-46.89
-28.36
-10.03
6.42
20.08
30.71
38.44
43.51
46.15
46.64
45.41
43.09
40.32
37.64
35.3
33.33
31.57
29.93
28.45
27.27
26.53
26.25
26.27
26.31
26.03
25.18
23.64
21.39
18.46
14.89
10.73
6.1
1.21
-3.69
-8.37
-12.69
-16.67
-20.44
-24.23
-28.28
-32.82
-38.07
-44.09
-50.63
-57.01
-62.03
-64.26
-62.49
-56.12
-45.45
-31.61
-16.17
-0.67
13.67
26.09
36.13
43.49
47.98
49.56
48.49
45.33
40.86
35.88
31.03
26.7
23.06
20.09
17.73
15.94
14.68
13.93
13.6
13.51
13.37
12.81
11.42
8.9
5.19
0.49
-4.75
-9.99
-14.82
-19.13
-23.15
-27.41
-32.55
-39.02
-46.92
-55.74
-64.33
-71.07
-74.2
-72.32
-64.83
-52.17
-35.75
-17.58
0.25
16.09
28.93
38.44
44.8
48.4
49.73
49.2
47.2
44.09
40.3
36.31
32.6
29.57
27.45
26.18
25.53
25.14
24.66
23.91
22.82
21.49
19.98
18.28
16.23
13.53
9.93
5.31
-0.19
-6.23
-12.35
-18.13
-23.38
-28.11
-32.54
-36.96
-41.73
-47.21
-53.69
-61.25
-69.47
-77.37
-83.34
-85.57
-82.55
-73.66
-59.44
-41.52
-22.1
-3.34
13.15
26.55
36.73
43.97
48.67
51.17
51.77
50.77
48.59
45.66
42.46
39.34
36.54
34.19
32.32
30.89
29.86
29.09
28.4
27.6
26.5
25.01
23.11
20.82
18.16
15.08
11.49
7.3
2.48
-2.9
-8.65
-14.49
-20.18
-25.55
-30.57
-35.35
-40.16
-45.4
-51.51
-58.77
-67.07
-75.58
-82.78
-86.71
-85.58
-78.39
-65.38
-48.03
-28.53
-9.19
8.23
22.73
34.03
42.27
47.72
50.68
51.44
50.43
48.17
45.24
42.16
39.27
36.74
34.56
32.7
31.16
29.98
29.21
28.83
28.64
28.39
27.74
26.44
24.36
21.54
18.16
14.4
10.42
6.26
1.88
-2.87
-8.05
-13.63
-19.43
-25.16
-30.52
-35.32
-39.63
-43.72
-48.13
-53.43
-60.02
-67.83
-76.08
-83.27
-87.47
-86.92
-80.61
-68.72
-52.61
-34.39
-16.26
0.04
13.51
23.89
31.31
36.1
38.59
39.09
37.97
35.72
32.95
30.23
28.04
26.56
25.71
25.21
24.76
24.14
23.39
22.68
22.21
22.01
21.86
21.34
20.01
17.63
14.2
10.01
5.51
1.14
-2.8
-6.25
-9.32
-12.35
-15.77
-20.07
-25.61
-32.46
-40.19
-47.79
-53.83
-56.81
-55.61
-49.89
-40.21
-27.82
-14.26
-0.95
11.1
21.3
29.37
35.17
38.62
39.81
38.99
36.67
33.47
30.02
26.73
23.77
21.16
18.82
16.8
15.19
14.15
13.71
13.7
13.77
13.44
12.28
10.08
6.85
2.82
-1.64
-6.21
-10.68
-15.03
-19.43
-24.19
-29.64
-35.97
-43.0
-50.02
-55.89
-59.15
-58.55
-53.42
-43.97
-31.25
-16.81
-2.25
11.2
22.82
32.32
39.63
44.73
47.58
48.23
46.91
44.06
40.28
36.12
32.02
28.21
24.82
21.88
19.43
17.44
15.81
14.31
12.63
10.51
7.84
4.69
1.29
-2.1
-5.3
-8.38
-11.61
-15.43
-20.23
-26.15
-32.92
-39.77
-45.51
-48.81
-48.51
-44.01
-35.44
-23.65
-9.99
4.05
17.2
28.59
37.8
44.72
49.39
51.86
52.14
50.29
46.44
40.93
34.28
27.13
20.14
13.9
8.78
4.98
2.44
0.97
0.28
0.11
0.23
0.53
0.89
1.17
1.15
0.48
-1.21
-4.32
-9.04
-15.26
-22.35
-29.21
-34.44
-36.65
-34.88
-28.88
-19.23
-7.15
5.84
18.36
29.42
38.47
45.3
49.85
52.09
52.01
49.71
45.56
40.16
34.25
28.52
23.4
19.03
15.31
11.98
8.78
5.57
2.33
-0.88
-3.98
-6.9
-9.77
-12.83
-16.49
-21.2
-27.32
-34.99
-43.9
-53.28
-61.92
-68.37
-71.24
-69.59
-63.18
-52.6
-39.12
-24.37
-9.97
2.9
13.54
21.72
27.52
31.05
32.46
31.86
29.47
25.72
21.23
16.73
12.85
9.93
7.92
6.51
5.24
3.73
1.78
-0.65
-3.48
-6.61
-10.01
-13.7
-17.79
-22.46
-27.93
-34.36
-41.84
-50.18
-58.8
-66.7
-72.49
-74.69
-72.12
-64.22
-51.35
-34.73
-16.14
2.45
19.4
33.61
44.57
52.28
57.0
59.11
59.01
57.07
53.7
49.35
44.51
39.65
35.14
31.23
27.99
25.44
23.52
22.16
21.22
20.42
19.37
17.63
14.88
11.08
6.46
1.48
-3.48
-8.3
-13.21
-18.76
-25.5
-33.67
-42.81
-51.74
-58.72
-61.93
-60.06
-52.75
-40.67
-25.37
-8.71
7.57
22.24
34.62
44.43
51.65
56.32
58.56
58.6
56.83
53.77
49.99
45.92
41.78
37.58
33.26
28.8
24.39
20.39
17.15
14.9
13.57
12.77
11.99
10.67
8.43
5.15
0.93
-3.94
-9.08
-14.17
-18.98
-23.47
-27.83
-32.4
-37.64
-43.89
-51.22
-59.15
-66.61
-72.07
-73.9
-70.86
-62.49
-49.31
-32.67
-14.38
3.73
20.19
33.99
44.6
51.85
55.85
56.96
55.73
52.82
48.95
44.71
40.58
36.79
33.44
30.55
28.08
26.02
24.31
22.92
21.76
20.74
19.64
18.19
16.01
12.82
8.43
3.0
-3.1
-9.29
-15.04
-20.05
-24.31
-28.11
-31.89
-36.14
-41.25
-47.36
-54.24
-61.14
-66.84
-69.92
-69.1
-63.66
-53.7
-40.1
-24.26
-7.72
8.14
22.28
33.96
42.74
48.4
51.03
51.02
48.98
45.7
41.86
38.02
34.49
31.39
28.7
26.35
24.3
22.52
21.01
19.74
18.6
17.44
16.06
14.27
11.93
8.96
5.34
1.15
-3.45
-8.25
-13.0
-17.53
-21.81
-26.0
-30.4
-35.42
-41.38
-48.33
-55.92
-63.25
-68.97
-71.53
-69.67
-62.8
-51.26
-36.3
-19.64
-3.06
12.05
24.86
35.05
42.57
47.55
50.13
50.57
49.23
46.59
43.19
39.51
35.92
32.63
29.72
27.2
25.09
23.39
22.09
21.13
20.37
19.58
18.54
17.04
14.99
12.37
9.19
5.51
1.35
-3.23
-8.15
-13.24
-18.27
-22.99
-27.29
-31.23
-35.09
-39.36
-44.54
-50.88
-58.16
-65.51
-71.52
-74.55
-73.23
-66.86
-55.67
-40.76
-23.79
-6.55
9.41
23.02
33.74
41.48
46.45
49.02
49.61
48.63
46.46
43.46
39.95
36.25
32.64
29.34
26.5
24.21
22.5
21.32
20.59
20.13
19.76
19.26
18.43
17.12
15.17
12.52
9.13
5.03
0.38
-4.61
-9.69
-14.64
-19.33
-23.71
-27.86
-31.89
-36.01
-40.52
-45.73
-51.8
-58.58
-65.39
-71.08
-74.19
-73.39
-67.89
-57.68
-43.59
-27.07
-9.82
6.54
20.75
32.03
40.11
45.13
47.56
48.02
47.12
45.36
43.07
40.48
37.73
34.92
32.15
29.5
27.08
25.02
23.48
22.56
22.24
22.29
22.31
21.83
20.53
18.33
15.39
12.07
8.68
5.36
2.04
-1.52
-5.57
-10.16
-15.14
-20.15
-24.82
-28.91
-32.42
-35.59
-38.84
-42.62
-47.29
-53.01
-59.6
-66.36
-72.16
-75.51
-75.01
-69.76
-59.74
-45.85
-29.72
-13.22
2.03
14.96
25.13
32.54
37.47
40.28
41.32
40.95
39.52
37.42
35.02
32.62
30.42
28.49
26.79
25.29
24.0
22.99
22.37
22.2
22.37
22.62
22.57
21.88
20.37
18.07
15.22
12.13
9.02
5.92
2.64
-1.03
-5.24
-9.94
-14.92
-19.85
-24.45
-28.58
-32.24
-35.55
-38.72
-42.08
-46.0
-50.75
-56.31
-62.09
-66.93
-69.32
-67.88
-61.83
-51.34
-37.52
-22.01
-6.51
7.59
19.48
28.84
35.67
40.14
42.49
42.99
42.05
40.11
37.62
34.96
32.42
30.1
28.03
26.19
24.57
23.2
22.13
21.4
20.95
20.59
20.04
19.0
17.28
14.9
12.04
8.95
5.81
2.61
-0.85
-4.77
-9.24
-14.11
-18.99
-23.45
-27.2
-30.21
-32.78
-35.39
-38.55
-42.62
-47.68
-53.38
-58.97
-63.34
-65.23
-63.62
-57.98
-48.45
-35.91
-21.66
-7.14
6.41
18.08
27.36
34.12
38.45
40.57
40.79
39.41
36.82
33.43
29.72
26.15
23.08
20.68
18.89
17.51
16.34
15.25
14.28
13.52
13.0
12.64
12.23
11.44
9.94
7.46
3.87
-0.75
-6.04
-11.47
-16.5
-20.76
-24.23
-27.26
-30.45
-34.37
-39.36
-45.25
-51.39
-56.68
-59.88
-59.87
-56.01
-48.3
-37.37
-24.39
-10.7
2.44
14.07
23.54
30.59
35.19
37.56
38.07
37.16
35.25
32.67
29.62
26.27
22.8
19.48
16.59
14.36
12.84
11.9
11.26
10.59
9.6
8.1
6.01
3.34
0.22
-3.2
-6.74
-10.33
-14.01
-18.0
-22.57
-27.95
-34.12
-40.59
-46.42
-50.32
-51.0
-47.56
-39.87
-28.66
-15.35
-1.61
11.09
21.75
29.92
35.54
38.75
39.77
38.9
36.52
33.08
29.09
24.98
21.03
17.43
14.28
11.69
9.79
8.6
8.02
7.75
7.36
6.45
4.76
2.25
-0.95
-4.58
-8.41
-12.29
-16.15
-20.07
-24.24
-28.96
-34.55
-41.11
-48.33
-55.28
-60.52
-62.49
-59.99
-52.71
-41.31
-27.25
-12.26
2.16
14.99
25.73
34.19
40.27
43.9
45.07
44.02
41.25
37.48
33.5
29.91
27.08
25.01
23.5
22.31
21.21
20.15
19.18
18.38
17.71
17.01
15.97
14.25
11.6
7.96
3.48
-1.55
-6.73
-11.72
-16.35
-20.61
-24.68
-28.91
-33.74
-39.57
-46.55
-54.35
-62.02
-68.07
-70.81
-68.84
-61.56
-49.42
-33.79
-16.6
0.24
15.24
27.56
36.89
43.28
46.93
48.13
47.26
44.84
41.52
37.99
34.86
32.49
30.96
30.06
29.41
28.62
27.43
25.83
24.02
22.32
20.92
19.78
18.6
16.92
14.32
10.64
6.0
0.75
-4.68
-9.95
-14.86
-19.41
-23.75
-28.16
-32.99
-38.6
-45.18
-52.53
-59.92
-66.04
-69.35
-68.37
-62.29
-51.2
-36.18
-18.99
-1.62
14.18
27.3
37.28
44.22
48.49
50.53
50.73
49.44
47.04
43.94
40.59
37.36
34.54
32.26
30.53
29.33
28.58
28.15
27.84
27.41
26.58
25.18
23.21
20.77
18.03
15.05
11.78
8.07
3.76
-1.12
-6.39
-11.73
-16.84
-21.55
-25.87
-29.97
-34.12
-38.61
-43.78
-49.89
-56.93
-64.41
-71.2
-75.66
-76.07
-71.2
-60.85
-45.96
-28.34
-10.14
6.78
21.23
32.65
41.01
46.51
49.42
50.06
48.8
46.14
42.61
38.78
35.1
31.95
29.51
27.85
26.97
26.74
26.98
27.42
27.72
27.57
26.75
25.21
23.07
20.51
17.65
14.46
10.82
6.6
1.79
-3.47
-8.87
-14.08
-18.87
-23.21
-27.23
-31.21
-35.5
-40.46
-46.34
-53.11
-60.2
-66.48
-70.35
-70.23
-65.03
-54.66
-40.09
-23.1
-5.74
10.24
23.77
34.4
42.15
47.2
49.73
49.92
48.05
44.62
40.33
35.96
32.16
29.28
27.32
25.96
24.88
23.83
22.78
21.87
21.2
20.77
20.32
19.42
17.64
14.69
10.55
5.5
0.03
-5.4
-10.44
-14.97
-19.15
-23.27
-27.7
-32.81
-38.86
-45.98
-53.99
-62.3
-69.8
-74.97
-76.22
-72.39
-63.19
-49.35
-32.51
-14.67
2.31
17.17
29.28
38.53
45.06
49.06
50.71
50.29
48.21
45.06
41.49
38.05
35.1
32.79
31.1
29.96
29.29
29.0
28.95
28.91
28.57
27.66
26.04
23.74
20.91
17.72
14.21
10.28
5.74
0.47
-5.45
-11.71
-17.88
-23.56
-28.54
-32.91
-36.98
-41.26
-46.3
-52.52
-60.01
-68.26
-76.06
-81.67
-83.18
-79.16
-69.19
-54.1
-35.76
-16.4
1.93
17.91
30.93
40.95
48.13
52.64
54.67
54.51
52.65
49.76
46.53
43.51
40.98
38.97
37.39
36.13
35.2
34.69
34.67
35.11
35.72
36.04
35.51
33.69
30.47
26.11
21.18
16.32
11.92
8.03
4.31
0.3
-4.37
-9.75
-15.57
-21.37
-26.71
-31.35
-35.28
-38.74
-42.15
-46.06
-51.05
-57.54
-65.48
-74.1
-81.82
-86.55
-86.32
-79.93
-67.45
-50.27
-30.6
-10.83
7.13
22.18
34.01
42.75
48.68
52.08
53.17
52.27
49.88
46.67
43.38
40.62
38.75
37.8
37.57
37.73
38.01
38.28
38.53
38.82
39.15
39.36
39.19
38.3
36.41
33.4
29.39
24.74
19.9
15.29
11.12
7.3
3.55
-0.52
-5.17
-10.4
-15.95
-21.39
-26.29
-30.43
-33.89
-36.91
-39.94
-43.41
-47.81
-53.53
-60.76
-69.21
-77.9
-85.16
-88.93
-87.36
-79.47
-65.57
-47.23
-26.81
-6.66
11.38
26.3
37.78
45.95
51.06
53.38
53.27
51.25
48.05
44.43
41.11
38.52
36.75
35.64
34.91
34.37
33.99
33.86
34.02
34.41
34.72
34.47
33.16
30.48
26.48
21.55
16.33
11.39
7.09
3.38
-0.14
-3.96
-8.42
-13.57
-19.15
-24.71
-29.85
-34.32
-38.16
-41.62
-45.23
-49.6
-55.28
-62.43
-70.53
-78.28
-83.78
-85.02
-80.58
-70.12
-54.55
-35.75
-16.01
2.6
18.62
31.32
40.56
46.59
49.81
50.7
49.8
47.68
44.87
41.89
39.13
36.84
35.08
33.82
32.95
32.36
32.02
31.92
32.04
32.25
32.29
31.77
30.34
27.78
24.18
19.88
15.38
11.08
7.15
3.45
-0.33
-4.5
-9.18
-14.22
-19.29
-24.0
-28.19
-31.92
-35.55
-39.61
-44.6
-50.75
-57.78
-64.83
-70.47
-73.03
-71.09
-63.93
-51.87
-36.17
-18.68
-1.38
14.16
26.96
36.63
43.22
46.96
48.16
47.22
44.66
41.13
37.34
33.92
31.27
29.51
28.53
28.08
27.95
27.99
28.12
28.25
28.21
27.7
26.45
24.28
21.19
17.42
13.26
8.97
4.65
0.22
-4.47
-9.5
-14.82
-20.22
-25.39
-30.11
-34.29
-38.04
-41.7
-45.8
-50.9
-57.34
-64.97
-72.87
-79.42
-82.65
-80.89
-73.37
-60.5
-43.8
-25.37
-7.29
8.9
22.35
32.83
40.45
45.47
48.17
48.88
48.0
46.03
43.52
41.0
38.8
37.11
35.92
35.11
34.61
34.38
34.43
34.74
35.13
35.21
34.55
32.8
29.84
25.94
21.56
17.22
13.25
9.68
6.21
2.45
-1.89
-6.86
-12.27
-17.77
-23.0
-27.73
-31.9
-35.67
-39.34
-43.37
-48.32
-54.58
-62.09
-70.1
-77.16
-81.33
-80.85
-74.69
-62.92
-46.78
-28.25
-9.52
7.64
22.07
33.33
41.42
46.64
49.34
49.94
48.92
46.89
44.47
42.24
40.54
39.48
38.9
38.57
38.27
37.93
37.6
37.4
37.38
37.49
37.54
37.21
36.17
34.18
31.14
27.17
22.58
17.78
13.16
8.99
5.37
2.21
-0.72
-3.73
-7.11
-11.05
-15.53
-20.34
-25.1
-29.47
-33.2
-36.34
-39.14
-42.1
-45.78
-50.72
-57.2
-65.04
-73.38
-80.71
-85.14
-84.88
-78.87
-67.21
-51.13
-32.63
-13.89
3.28
17.74
29.07
37.29
42.68
45.63
46.57
45.96
44.37
42.32
40.28
38.56
37.28
36.44
35.97
35.81
35.9
36.23
36.69
37.11
37.19
36.69
35.44
33.47
30.91
27.95
24.73
21.33
17.78
14.11
10.41
6.81
3.4
0.17
-3.01
-6.38
-10.16
-14.43
-19.09
-23.85
-28.34
-32.27
-35.59
-38.51
-41.48
-45.03
-49.6
-55.36
-62.09
-69.04
-74.94
-78.23
-77.38
-71.37
-60.08
-44.42
-26.1
-7.23
10.3
25.23
37.14
46.27
53.23
58.62
62.75
65.63
67.11
67.16
66.02
64.27
62.66
61.93
62.5
64.51
67.77
71.86
76.25
80.33
83.45
85.08
84.84
82.63
78.65
73.4
67.56
61.95
57.32
54.24
52.91
53.01
53.7
53.7
51.65
46.47
37.62
25.4
10.79
-4.78
-19.82
-33.16
-44.05
-52.14
-57.38
-60.01
-60.68
-60.53
-61.0
-63.23
-67.36
-72.08
-74.92
-73.26
-65.51
-51.97
-34.77
-17.0
-1.45
10.22
17.65
21.34
22.01
20.31
16.74
11.91
6.59
1.68
-2.08
-4.2
-4.52
-3.13
-0.3
3.52
7.76
11.81
15.21
17.69
19.25
20.01
20.02
19.27
17.7
15.35
12.51
9.56
6.9
4.68
2.79
0.96
-1.13
-3.6
-6.38
-9.28
-12.08
-14.66
-17.0
-19.18
-21.32
-23.49
-25.68
-27.85
-29.94
-31.94
-33.87
-35.83
-37.9
-40.06
-42.15
-43.8
-44.51
-43.72
-41.07
-36.47
-30.25
-23.08
-15.82
-9.35
-4.31
-1.02
0.5
0.51
-0.59
-2.32
-4.22
-5.92
-7.2
-8.13
-8.94
-10.03
-11.69
-13.98
-16.73
-19.63
-22.39
-24.94
-27.4
-30.02
-32.96
-36.22
-39.64
-43.0
-46.1
-48.9
-51.44
-53.8
-56.1
-58.44
-60.9
-63.45
-65.88
-67.79
-68.68
-68.19
-66.28
-63.4
-60.4
-58.25
-57.63
-58.56
-60.22
-61.09
-59.39
-53.6
-43.06
-28.16
-10.29
8.58
26.41
41.62
53.33
61.32
65.82
67.27
66.14
62.91
58.09
52.26
46.01
39.85
34.09
28.84
24.14
20.02
16.57
13.98
12.32
11.44
10.91
10.1
8.39
5.45
1.34
-3.39
-7.98
-11.66
-14.01
-15.09
-15.47
-15.95
-17.24
-19.71
-23.24
-27.36
-31.49
-35.2
-38.35
-41.16
-44.06
-47.58
-52.17
-57.92
-64.45
-70.73
-75.26
-76.41
-72.93
-64.37
-51.26
-35.0
-17.4
-0.23
15.16
28.04
38.15
45.59
50.58
53.42
54.39
53.92
52.45
50.52
48.53
46.78
45.34
44.14
43.1
42.18
41.49
41.14
41.19
41.45
41.52
40.93
39.25
36.35
32.44
27.99
23.52
19.42
15.78
12.4
8.92
5.02
0.54
-4.49
-9.83
-15.24
-20.46
-25.34
-29.81
-33.97
-38.09
-42.58
-47.92
-54.4
-61.83
-69.35
-75.43
-78.25
-76.28
-68.84
-56.41
-40.46
-23.04
-6.09
8.98
21.47
31.27
38.61
43.8
47.12
48.81
49.12
48.35
46.83
44.9
42.85
40.91
39.25
37.99
37.21
36.93
37.13
37.72
38.47
39.06
39.05
38.07
35.9
32.6
28.53
24.19
20.06
16.36
13.01
9.66
5.87
1.36
-3.88
-9.54
-15.14
-20.2
-24.5
-28.14
-31.55
-35.37
-40.26
-46.59
-54.25
-62.41
-69.65
-74.22
-74.51
-69.62
-59.65
-45.73
-29.68
-13.41
1.46
13.99
23.79
30.87
35.4
37.57
37.62
35.96
33.21
30.09
27.3
25.25
24.01
23.32
22.83
22.25
21.54
20.85
20.43
20.43
20.79
21.14
20.95
19.66
16.9
12.67
7.34
1.55
-4.06
-9.06
-13.41
-17.46
-21.77
-26.89
-33.17
-40.59
-48.67
-56.43
-62.56
-65.6
-64.32
-58.17
-47.46
-33.34
-17.51
-1.75
12.5
24.34
33.47
39.94
44.03
46.03
46.26
45.08
42.94
40.34
37.76
35.63
34.14
33.27
32.84
32.6
32.34
31.95
31.38
30.55
29.36
27.72
25.52
22.69
19.24
15.15
10.46
5.24
-0.34
-6.0
-11.45
-16.47
-20.96
-25.07
-29.14
-33.62
-38.98
-45.55
-53.35
-61.96
-70.35
-77.0
-80.22
-78.57
-71.39
-59.08
-42.99
-25.07
-7.3
8.73
22.09
32.47
40.01
45.07
48.06
49.38
49.46
48.69
47.46
46.11
44.87
43.84
42.96
42.1
41.16
40.13
39.08
38.13
37.33
36.56
35.53
33.86
31.26
27.62
23.13
18.17
13.13
8.22
3.42
-1.57
-7.05
-13.15
-19.71
-26.29
-32.4
-37.74
-42.35
-46.63
-51.19
-56.69
-63.58
-71.93
-81.21
-90.16
-96.96
-99.56
-96.39
-86.9
-71.86
-53.19
-33.26
-14.18
2.73
17.04
28.93
38.76
46.81
53.19
57.97
61.31
63.51
64.89
65.73
66.15
66.15
65.73
64.9
63.8
62.57
61.37
60.24
59.12
57.87
56.28
54.18
51.43
47.95
43.74
38.9
33.62
28.22
23.0
18.2
13.87
9.81
5.72
1.3
-3.6
-8.9
-14.33
-19.56
-24.35
-28.57
-32.36
-36.0
-39.93
-44.65
-50.53
-57.64
-65.47
-72.86
-78.16
-79.62
-75.98
-66.95
-53.29
-36.68
-19.15
-2.52
11.95
23.65
32.53
38.79
42.7
44.51
44.53
43.16
40.93
38.44
36.17
34.46
33.39
32.89
32.8
32.98
33.34
33.73
33.97
33.81
33.03
31.52
29.34
26.64
23.58
20.21
16.46
12.24
7.55
2.5
-2.65
-7.62
-12.22
-16.37
-20.16
-23.79
-27.52
-31.71
-36.73
-42.8
-49.76
-56.83
-62.64
-65.51
-63.98
-57.38
-46.09
-31.47
-15.44
0.1
13.74
24.7
32.82
38.29
41.46
42.69
42.32
40.74
38.33
35.55
32.85
30.58
28.93
27.92
27.37
27.07
26.78
26.37
25.78
25.03
24.11
22.96
21.44
19.34
16.46
12.66
7.95
2.49
-3.48
-9.6
-15.5
-20.83
-25.37
-29.12
-32.33
-35.49
-39.24
-44.16
-50.54
-58.15
-66.08
-72.86
-76.75
-76.21
-70.41
-59.5
-44.67
-27.73
-10.66
4.88
17.86
27.94
35.26
40.19
43.17
44.55
44.68
43.92
42.67
41.34
40.23
39.47
38.95
38.44
37.66
36.56
35.27
34.08
33.25
32.81
32.49
31.83
30.35
27.77
24.15
19.79
15.19
10.78
6.8
3.19
-0.36
-4.23
-8.7
-13.76
-19.08
-24.16
-28.53
-32.01
-34.81
-37.47
-40.71
-45.18
-51.23
-58.65
-66.59
-73.56
-77.79
-77.64
-72.18
-61.52
-46.8
-29.91
-12.92
2.52
15.41
25.44
32.78
37.81
40.94
42.53
42.94
42.48
41.49
40.23
38.9
37.62
36.44
35.39
34.53
33.93
33.68
33.79
34.14
34.51
34.58
34.11
32.96
31.16
28.9
26.36
23.71
20.95
18.01
14.79
11.3
7.68
4.14
0.85
-2.14
-4.99
-7.91
-11.1
-14.62
-18.35
-22.07
-25.56
-28.75
-31.74
-34.74
-38.09
-42.13
-47.15
-53.26
-60.17
-67.1
-72.76
-75.58
-74.2
-67.91
-56.92
-42.44
-26.23
-10.2
4.13
15.85
24.69
30.83
34.7
36.75
37.34
36.78
35.35
33.42
31.4
29.72
28.66
28.26
28.34
28.58
28.7
28.61
28.39
28.21
28.11
27.97
27.48
26.29
24.18
21.17
17.5
13.55
9.71
6.19
2.99
-0.07
-3.32
-6.95
-10.96
-15.08
-18.93
-22.17
-24.75
-26.98
-29.39
-32.59
-37.03
-42.89
-49.96
-57.62
-64.81
-70.16
-72.22
-69.87
-62.69
-51.2
-36.79
-21.3
-6.46
6.5
17.06
25.23
31.29
35.47
37.87
38.52
37.57
35.39
32.53
29.64
27.23
25.55
24.57
24.07
23.77
23.48
23.08
22.55
21.86
20.96
19.79
18.28
16.4
14.09
11.34
8.13
4.47
0.45
-3.78
-8.01
-12.07
-15.83
-19.33
-22.7
-26.18
-30.08
-34.69
-40.11
-46.08
-51.87
-56.32
-58.15
-56.33
-50.47
-41.01
-29.05
-16.02
-3.28
8.15
17.7
25.15
30.52
33.93
35.58
35.71
34.59
32.56
29.93
27.06
24.3
21.97
20.26
19.27
18.9
18.97
19.25
19.53
19.65
19.48
18.92
17.85
16.13
13.66
10.38
6.38
1.89
-2.81
-7.48
-11.93
-16.11
-20.03
-23.69
-27.04
-30.04
-32.73
-35.31
-38.16
-41.7
-46.11
-51.11
-55.84
-59.08
-59.53
-56.33
-49.33
-39.16
-27.05
-14.39
-2.38
8.14
16.82
23.56
28.42
31.47
32.82
32.7
31.42
29.44
27.22
25.12
23.39
22.04
21.01
20.14
19.32
18.5
17.7
16.97
16.34
15.74
15.02
13.99
12.44
10.22
7.3
3.78
-0.14
-4.17
-8.1
-11.75
-15.11
-18.3
-21.59
-25.33
-29.87
-35.47
-42.07
-49.14
-55.71
-60.43
-61.96
-59.38
-52.48
-41.95
-29.11
-15.59
-2.83
8.21
17.14
24.02
29.12
32.75
35.09
36.24
36.28
35.33
33.64
31.56
29.46
27.62
26.19
25.15
24.36
23.66
22.88
21.91
20.67
19.11
17.17
14.78
11.91
8.56
4.78
0.68
-3.58
-7.83
-11.92
-15.77
-19.34
-22.63
-25.74
-28.73
-31.75
-35.01
-38.77
-43.21
-48.29
-53.59
-58.27
-61.16
-61.05
-57.11
-49.18
-37.91
-24.54
-10.59
2.56
13.95
23.17
30.17
35.16
38.37
40.07
40.47
39.85
38.52
36.82
35.09
33.55
32.34
31.41
30.65
29.87
28.92
27.73
26.31
24.74
23.03
21.15
18.95
16.26
12.96
9.0
4.49
-0.41
-5.47
-10.48
-15.29
-19.79
-24.0
-28.01
-32.0
-36.26
-41.09
-46.68
-52.84
-58.97
-63.97
-66.48
-65.32
-59.8
-50.1
-37.18
-22.59
-7.94
5.44
16.74
25.73
32.49
37.24
40.22
41.65
41.78
40.93
39.51
37.95
36.55
35.48
34.67
33.99
33.3
32.56
31.83
31.21
30.67
30.05
29.1
27.57
25.35
22.5
19.2
15.66
11.98
8.16
4.13
-0.22
-4.89
-9.8
-14.77
-19.57
-24.0
-27.96
-31.55
-35.06
-39.03
-43.93
-50.02
-56.94
-63.69
-68.78
-70.62
-68.06
-60.78
-49.38
-35.14
-19.66
-4.46
9.31
20.89
29.92
36.33
40.27
42.1
42.31
41.45
40.01
38.44
37.03
35.95
35.23
34.8
34.53
34.32
34.12
33.98
33.94
33.99
33.99
33.65
32.63
30.67
27.68
23.81
19.45
15.07
11.06
7.59
4.52
1.49
-1.9
-5.95
-10.63
-15.69
-20.7
-25.25
-29.15
-32.46
-35.53
-38.83
-42.92
-48.14
-54.46
-61.34
-67.67
-71.96
-72.74
-68.99
-60.52
-48.06
-33.09
-17.38
-2.5
10.5
21.15
29.39
35.38
39.29
41.32
41.71
40.83
39.16
37.19
35.34
33.89
32.94
32.46
32.38
32.56
32.89
33.26
33.58
33.75
33.65
33.11
31.92
29.89
26.92
23.16
18.92
14.63
10.7
7.29
4.27
1.31
-2.04
-6.05
-10.72
-15.74
-20.62
-24.88
-28.27
-30.93
-33.27
-35.88
-39.36
-44.14
-50.3
-57.47
-64.75
-70.75
-73.88
-72.78
-66.73
-55.99
-41.78
-25.89
-10.15
3.99
15.78
25.01
31.82
36.42
39.01
39.76
38.96
37.03
34.52
31.95
29.72
28.02
26.79
25.86
25.06
24.27
23.49
22.8
22.21
21.63
20.84
19.55
17.53
14.6
10.79
6.24
1.25
-3.88
-8.8
-13.31
-17.32
-20.97
-24.57
-28.52
-33.22
-38.85
-45.27
-51.9
-57.76
-61.63
-62.33
-59.06
-51.66
-40.68
-27.26
-12.8
1.37
14.2
25.01
33.44
39.36
42.79
43.95
43.23
41.17
38.36
35.34
32.5
30.07
28.1
26.52
25.24
24.21
23.43
22.88
22.5
22.04
21.16
19.45
16.69
12.95
8.54
3.93
-0.53
-4.7
-8.77
-13.04
-17.92
-23.66
-30.31
-37.54
-44.62
-50.44
-53.7
-53.32
-48.69
-40.02
-28.26
-14.9
-1.52
10.52
20.33
27.54
32.15
34.45
34.85
33.77
31.59
28.58
25.0
21.17
17.48
14.32
12.0
10.62
10.05
9.92
9.8
9.3
8.12
6.16
3.41
-0.01
-3.91
-8.04
-12.22
-16.35
-20.51
-24.96
-30.06
-36.12
-43.2
-50.87
-58.16
-63.66
-65.92
-63.8
-56.92
-45.82
-31.76
-16.43
-1.45
11.92
22.95
31.37
37.21
40.7
42.09
41.7
39.93
37.26
34.24
31.34
28.91
27.05
25.61
24.3
22.9
21.33
19.74
18.37
17.34
16.5
15.43
13.59
10.53
6.14
0.71
-5.17
-10.87
-15.9
-20.17
-23.98
-27.91
-32.63
-38.61
-45.86
-53.83
-61.38
-66.98
-69.11
-66.67
-59.33
-47.65
-32.93
-16.92
-1.33
12.5
23.75
32.18
37.93
41.4
43.06
43.38
42.83
41.8
40.58
39.33
38.1
36.87
35.64
34.49
33.58
33.01
32.77
32.66
32.41
31.71
30.36
28.28
25.51
22.16
18.33
14.19
9.85
5.43
0.96
-3.62
-8.37
-13.31
-18.31
-23.13
-27.51
-31.26
-34.44
-37.36
-40.59
-44.8
-50.48
-57.63
-65.52
-72.64
-77.12
-77.18
-71.85
-61.31
-46.8
-30.23
-13.53
1.79
14.91
25.49
33.51
39.1
42.42
43.77
43.57
42.37
40.7
39.0
37.52
36.28
35.21
34.15
33.07
32.07
31.35
31.12
31.38
31.9
32.19
31.72
30.14
27.39
23.76
19.75
15.83
12.23
8.94
5.69
2.16
-1.87
-6.38
-11.14
-15.8
-20.02
-23.63
-26.68
-29.48
-32.51
-36.32
-41.33
-47.58
-54.55
-61.08
-65.58
-66.47
-62.66
-54.03
-41.45
-26.57
-11.25
2.94
15.01
24.62
31.8
36.72
39.5
40.24
39.11
36.48
32.98
29.41
26.51
24.75
24.18
24.44
24.98
25.28
25.04
24.23
23.03
21.63
20.1
18.34
16.1
13.19
9.5
5.14
0.38
-4.42
-8.92
-12.97
-16.61
-20.12
-23.89
-28.3
-33.63
-39.92
-46.9
-53.94
-60.03
-63.91
-64.36
-60.49
-52.14
-39.95
-25.28
-9.89
4.6
17.0
26.72
33.75
38.37
40.99
42.0
41.72
40.43
38.46
36.15
33.87
31.92
30.47
29.53
29.01
28.72
28.48
28.12
27.52
26.56
25.18
23.35
21.04
18.27
15.06
11.44
7.41
2.99
-1.74
-6.7
-11.72
-16.63
-21.25
-25.45
-29.22
-32.68
-36.17
-40.19
-45.23
-51.55
-58.86
-66.21
-72.11
-74.86
-73.11
-66.27
-54.83
-40.08
-23.85
-7.9
6.42
18.34
27.65
34.5
39.17
41.97
43.16
43.03
41.97
40.41
38.82
37.54
36.7
36.19
35.76
35.23
34.57
33.96
33.57
33.42
33.3
32.78
31.4
28.91
25.37
21.15
16.76
12.66
9.08
5.93
2.89
-0.49
-4.53
-9.27
-14.43
-19.54
-24.11
-27.9
-30.99
-33.77
-36.79
-40.65
-45.77
-52.29
-59.86
-67.53
-73.86
-77.15
-75.94
-69.47
-58.04
-42.96
-26.14
-9.59
5.15
17.22
26.49
33.25
37.96
40.98
42.52
42.72
41.8
40.1
38.15
36.41
35.21
34.58
34.31
34.13
33.85
33.44
33.03
32.69
32.4
31.95
31.06
29.47
27.06
23.91
20.23
16.35
12.6
9.22
6.3
3.68
1.07
-1.88
-5.39
-9.47
-13.89
-18.31
-22.44
-26.11
-29.42
-32.59
-35.89
-39.66
-44.17
-49.61
-55.91
-62.55
-68.47
-72.24
-72.41
-68.0
-58.9
-45.97
-30.73
-14.95
-0.16
12.64
22.96
30.69
35.97
38.99
40.0
39.35
37.49
34.96
32.28
29.92
28.16
27.1
26.64
26.58
26.69
26.75
26.59
26.1
25.22
23.92
22.22
20.13
17.68
14.87
11.66
8.02
3.97
-0.42
-5.0
-9.58
-14.03
-18.23
-22.16
-25.87
-29.55
-33.54
-38.23
-43.86
-50.3
-56.81
-62.1
-64.57
-62.87
-56.31
-45.25
-30.99
-15.37
-0.29
12.82
23.17
30.64
35.5
38.24
39.3
39.08
37.89
36.04
33.82
31.52
29.38
27.56
26.15
25.12
24.38
23.83
23.4
23.03
22.67
22.2
21.41
20.08
18.01
15.15
11.53
7.29
2.64
-2.23
-7.11
-11.81
-16.18
-20.16
-23.77
-27.2
-30.68
-34.53
-39.01
-44.36
-50.61
-57.48
-64.14
-69.3
-71.38
-69.08
-61.82
-50.07
-35.26
-19.27
-3.92
9.52
20.44
28.75
34.66
38.43
40.35
40.76
40.08
38.75
37.15
35.5
33.89
32.31
30.74
29.23
27.89
26.84
26.13
25.7
25.37
24.88
23.99
22.53
20.47
17.91
15.04
12.02
8.9
5.61
1.98
-2.18
-6.91
-12.02
-17.18
-22.02
-26.3
-30.02
-33.44
-37.0
-41.12
-46.13
-52.06
-58.57
-64.85
-69.71
-71.75
-69.83
-63.41
-52.82
-39.22
-24.25
-9.5
3.81
15.03
23.95
30.6
35.08
37.49
38.06
37.15
35.25
32.83
30.3
27.94
25.94
24.4
23.38
22.83
22.65
22.64
22.64
22.53
22.19
21.51
20.28
18.29
15.34
11.46
6.87
2.0
-2.71
-6.96
-10.7
-14.07
-17.4
-21.04
-25.29
-30.32
-36.11
-42.31
-48.25
-52.89
-55.09
-53.83
-48.6
-39.6
-27.78
-14.58
-1.54
10.15
19.83
27.35
32.83
36.38
38.05
37.88
36.06
33.08
29.62
26.39
23.88
22.26
21.39
20.93
20.56
20.03
19.21
18.09
16.76
15.35
13.92
12.38
10.46
7.77
4.05
-0.73
-6.22
-11.86
-17.04
-21.42
-25.02
-28.2
-31.53
-35.58
-40.73
-47.02
-54.05
-60.97
-66.52
-69.33
-68.19
-62.48
-52.4
-38.97
-23.79
-8.61
5.16
16.67
25.7
32.42
37.08
39.88
40.89
40.26
38.29
35.56
32.75
30.41
28.84
27.98
27.54
27.19
26.68
25.95
25.04
24.02
22.89
21.55
19.86
17.62
14.71
11.06
6.71
1.85
-3.27
-8.33
-13.05
-17.3
-21.16
-24.88
-28.86
-33.56
-39.27
-45.99
-53.22
-59.95
-64.81
-66.35
-63.52
-56.02
-44.47
-30.21
-15.0
-0.47
12.21
22.5
30.37
36.07
39.93
42.18
43.03
42.66
41.35
39.45
37.33
35.3
33.52
32.04
30.81
29.79
28.95
28.27
27.67
26.96
25.92
24.38
22.24
19.54
16.38
12.83
8.92
4.63
0.01
-4.84
-9.72
-14.43
-18.8
-22.82
-26.59
-30.34
-34.41
-39.14
-44.83
-51.47
-58.59
-65.11
-69.53
-70.27
-66.27
-57.37
-44.45
-29.19
-13.5
1.02
13.44
23.43
31.09
36.63
40.19
41.91
41.97
40.73
38.67
36.25
33.85
31.71
29.93
28.59
27.73
27.36
27.41
27.69
27.93
27.81
27.09
25.61
23.44
20.73
17.7
14.53
11.26
7.82
4.1
-0.01
-4.42
-8.93
-13.22
-17.07
-20.44
-23.54
-26.75
-30.5
-35.14
-40.77
-47.07
-53.26
-58.12
-60.3
-58.63
-52.57
-42.41
-29.22
-14.58
-0.15
12.75
23.29
31.17
36.43
39.33
40.26
39.66
38.02
35.8
33.38
31.08
29.09
27.53
26.48
25.94
25.88
26.17
26.68
27.16
27.39
27.08
26.01
24.0
21.05
17.33
13.19
9.02
5.1
1.47
-2.1
-5.92
-10.23
-15.02
-19.98
-24.65
-28.64
-31.84
-34.54
-37.33
-40.93
-45.89
-52.33
-59.81
-67.22
-73.02
-75.58
-73.6
-66.6
-55.08
-40.34
-24.14
-8.2
6.17
18.24
27.71
34.62
39.12
41.45
42.04
41.42
40.21
38.91
37.82
36.98
36.24
35.39
34.39
33.32
32.39
31.8
31.61
31.72
31.83
31.55
30.52
28.52
25.53
21.77
17.62
13.48
9.59
5.95
2.35
-1.51
-5.83
-10.57
-15.47
-20.15
-24.3
-27.83
-30.87
-33.76
-36.96
-40.95
-46.12
-52.58
-59.9
-67.03
-72.4
-74.32
-71.5
-63.54
-51.11
-35.73
-19.34
-3.68
10.01
21.16
29.71
35.91
40.01
42.28
42.95
42.31
40.73
38.67
36.58
34.84
33.61
32.85
32.41
32.12
31.91
31.77
31.73
31.74
31.61
31.03
29.69
27.43
24.28
20.52
16.56
12.77
9.37
6.32
3.39
0.26
-3.37
-7.6
-12.3
-17.18
-21.88
-26.1
-29.77
-32.99
-36.08
-39.43
-43.5
-48.62
-54.89
-61.94
-68.88
-74.3
-76.57
-74.36
-67.07
-55.13
-39.89
-23.24
-7.02
7.36
19.15
28.12
34.4
38.27
40.04
40.11
38.89
36.81
34.29
31.69
29.27
27.25
25.75
24.82
24.39
24.32
24.42
24.51
24.47
24.2
23.6
22.6
21.08
18.96
16.24
12.96
9.19
5.04
0.58
-4.08
-8.81
-13.4
-17.65
-21.47
-24.91
-28.25
-31.93
-36.38
-41.83
-48.1
-54.45
-59.67
-62.29
-61.07
-55.35
-45.38
-32.23
-17.54
-2.97
10.15
21.05
29.48
35.48
39.27
41.07
41.15
39.86
37.63
34.95
32.24
29.85
27.94
26.51
25.52
24.88
24.53
24.43
24.52
24.64
24.53
23.91
22.5
20.19
17.1
13.48
9.65
5.85
2.11
-1.67
-5.67
-9.99
-14.59
-19.27
-23.79
-27.97
-31.79
-35.46
-39.35
-43.88
-49.39
-55.91
-62.96
-69.46
-73.94
-74.86
-71.13
-62.5
-49.7
-34.25
-17.99
-2.58
10.83
21.72
30.05
35.97
39.77
41.7
42.1
41.37
39.95
38.23
36.54
35.02
33.72
32.61
31.69
30.98
30.55
30.45
30.62
30.82
30.71
29.89
28.11
25.36
21.91
18.18
14.54
11.08
7.65
3.89
-0.49
-5.52
-10.93
-16.25
-21.06
-25.14
-28.58
-31.69
-34.93
-38.82
-43.77
-49.94
-57.08
-64.33
-70.32
-73.36
-72.03
-65.65
-54.57
-40.05
-23.93
-8.02
6.3
18.26
27.63
34.52
39.1
41.56
42.11
41.07
38.96
36.42
34.06
32.28
31.21
30.69
30.45
30.27
30.06
29.86
29.67
29.39
28.79
27.59
25.6
22.84
19.48
15.77
11.94
8.09
4.26
0.39
-3.64
-7.88
-12.32
-16.83
-21.21
-25.27
-28.93
-32.32
-35.81
-39.89
-44.94
-51.03
-57.67
-63.85
-68.16
-69.22
-66.06
-58.46
-47.0
-32.92
-17.73
-2.9
10.44
21.52
30.0
35.79
39.08
40.26
39.84
38.42
36.54
34.62
32.93
31.55
30.48
29.65
29.01
28.54
28.22
28.02
27.86
27.57
26.95
25.85
24.16
21.86
18.99
15.56
11.61
7.24
2.62
-2.01
-6.41
-10.49
-14.29
-17.95
-21.58
-25.26
-29.0
-32.89
-37.12
-41.8
-46.75
-51.3
-54.23
-54.09
-49.77
-40.92
-28.19
-13.11
2.4
16.61
28.37
37.34
43.84
48.59
52.28
55.33
57.78
59.36
59.84
59.25
58.12
57.26
57.58
59.58
63.29
68.29
74.07
80.14
86.02
90.9
93.58
92.61
87.01
76.72
62.88
47.32
31.72
16.97
3.14
-9.89
-21.55
-30.21
-33.62
-30.04
-19.31
-3.35
14.37
30.14
41.32
47.07
48.24
46.58
43.82
40.97
38.2
35.29
32.04
28.63
25.52
23.01
21.0
18.85
15.7
10.89
4.39
-3.17
-10.76
-17.42
-22.71
-26.82
-30.42
-34.31
-38.98
-44.42
-50.13
-55.41
-59.7
-62.89
-65.38
-67.89
-71.15
-75.5
-80.79
-86.45
-91.73
-96.1
-99.42
-102.04
-104.59
-107.69
-111.65
-116.24
-120.76
-124.2
-125.58
-124.38
-120.71
-115.35
-109.55
-104.59
-101.36
-99.76
-98.62
-95.81
-88.91
-76.12
-56.95
-32.63
-5.69
20.82
44.27
63.07
76.79
85.84
90.99
93.06
92.82
91.09
88.72
86.48
84.87
83.96
83.46
82.82
81.58
79.55
76.88
74.01
71.47
69.62
68.52
67.86
67.02
65.37
62.42
58.04
52.46
46.23
40.0
34.45
30.1
27.2
25.7
25.13
24.67
23.36
20.4
15.6
9.5
3.24
-1.8
-4.47
-4.22
-1.16
3.99
10.14
15.89
19.82
20.7
17.88
11.68
3.44
-4.8
-10.92
-13.52
-12.36
-8.28
-2.82
2.44
6.36
8.34
8.32
6.54
3.43
-0.45
-4.44
-7.85
-10.16
-11.21
-11.31
-11.22
-11.85
-13.93
-17.71
-22.83
-28.5
-33.89
-38.44
-42.12
-45.35
-48.73
-52.8
-57.8
-63.65
-70.05
-76.52
-82.47
-87.26
-90.36
-91.6
-91.36
-90.5
-89.97
-90.31
-91.22
-91.71
-90.52
-86.85
-80.72
-72.92
-64.5
-56.13
-47.85
-39.21
-29.81
-19.74
-9.66
-0.54
6.83
12.2
15.87
18.45
20.53
22.35
23.79
24.38
23.61
21.12
16.86
11.21
4.78
-1.71
-7.71
-13.03
-17.83
-22.55
-27.7
-33.79
-41.13
-49.75
-59.19
-68.36
-75.6
-78.98
-76.81
-68.25
-53.72
-34.82
-13.92
6.6
24.85
39.84
51.37
59.78
65.57
69.18
70.95
71.1
69.93
67.81
65.22
62.62
60.37
58.63
57.38
56.49
55.8
55.21
54.61
53.88
52.88
51.43
49.39
46.69
43.27
39.14
34.3
28.79
22.75
16.42
10.14
4.18
-1.29
-6.29
-11.03
-15.78
-20.88
-26.7
-33.59
-41.74
-50.9
-60.11
-67.71
-71.58
-69.86
-61.65
-47.42
-29.02
-9.08
9.8
25.74
37.9
46.35
51.66
54.46
55.18
54.12
51.56
47.88
43.57
39.11
34.8
30.75
26.93
23.38
20.33
18.17
17.29
17.8
19.4
21.38
22.84
23.01
21.52
18.51
14.52
10.24
6.13
2.27
-1.65
-6.08
-11.32
-17.29
-23.5
-29.3
-34.22
-38.17
-41.52
-45.02
-49.47
-55.56
-63.53
-72.95
-82.56
-90.42
-94.25
-92.09
-83.0
-67.44
-47.23
-24.97
-3.27
15.9
31.53
43.51
52.23
58.22
61.96
63.75
63.87
62.63
60.42
57.66
54.79
52.13
49.87
48.07
46.69
45.65
44.81
44.01
43.03
41.64
39.71
37.22
34.22
30.8
26.92
22.52
17.49
11.79
5.58
-0.85
-7.17
-13.09
-18.54
-23.63
-28.63
-33.88
-39.75
-46.56
-54.36
-62.78
-70.84
-77.0
-79.51
-76.91
-68.53
-54.83
-37.26
-17.85
1.33
18.67
33.21
44.55
52.65
57.6
59.54
58.72
55.66
51.11
46.01
41.26
37.44
34.76
32.97
31.65
30.4
29.03
27.61
26.34
25.32
24.44
23.28
21.29
18.04
13.33
7.41
0.81
-5.81
-11.92
-17.36
-22.33
-27.4
-33.27
-40.57
-49.57
-59.88
-70.32
-78.96
-83.6
-82.34
-74.36
-60.24
-41.83
-21.65
-2.11
15.2
29.59
41.07
49.89
56.17
59.8
60.68
58.99
55.32
50.63
45.94
42.06
39.36
37.71
36.7
35.82
34.7
33.23
31.49
29.68
27.9
26.09
24.03
21.36
17.76
12.97
6.99
0.06
-7.39
-14.85
-21.87
-28.21
-33.85
-39.05
-44.25
-50.02
-56.92
-65.24
-74.64
-83.89
-91.01
-93.68
-90.02
-79.36
-62.51
-41.56
-19.17
2.22
20.93
36.13
47.66
55.73
60.64
62.78
62.64
60.82
57.98
54.66
51.31
48.22
45.53
43.3
41.47
39.97
38.68
37.48
36.34
35.18
33.94
32.44
30.43
27.64
23.86
18.99
13.13
6.52
-0.48
-7.51
-14.26
-20.55
-26.31
-31.63
-36.72
-41.94
-47.78
-54.71
-62.99
-72.31
-81.57
-88.88
-92.01
-89.08
-79.3
-63.33
-43.15
-21.38
-0.54
17.62
32.26
43.29
51.05
55.94
58.34
58.65
57.34
54.93
51.99
48.95
46.09
43.51
41.22
39.22
37.56
36.31
35.48
34.99
34.57
33.86
32.52
30.32
27.24
23.42
19.05
14.26
9.16
3.77
-1.85
-7.62
-13.41
-19.08
-24.5
-29.58
-34.34
-38.94
-43.74
-49.25
-55.96
-63.99
-72.74
-80.79
-86.13
-86.74
-81.28
-69.66
-53.07
-33.68
-13.88
4.28
19.58
31.58
40.45
46.58
50.37
52.11
52.03
50.41
47.63
44.24
40.82
37.85
35.58
34.0
32.85
31.85
30.77
29.55
28.24
26.92
25.58
24.1
22.24
19.77
16.49
12.37
7.52
2.19
-3.26
-8.51
-13.33
-17.64
-21.59
-25.46
-29.62
-34.45
-40.22
-46.99
-54.37
-61.48
-66.94
-69.16
-66.81
-59.3
-47.08
-31.57
-14.73
1.5
15.68
27.09
35.58
41.34
44.6
45.57
44.49
41.77
37.99
33.83
29.92
26.63
24.07
22.09
20.48
19.09
17.9
16.97
16.35
15.93
15.43
14.42
12.48
9.34
5.06
-0.07
-5.52
-10.8
-15.61
-19.89
-23.92
-28.13
-33.01
-38.91
-45.91
-53.55
-60.79
-66.16
-68.06
-65.3
-57.57
-45.61
-30.95
-15.44
-0.68
12.31
23.13
31.7
38.05
42.12
43.85
43.31
40.85
37.12
32.92
29.0
25.9
23.79
22.48
21.59
20.74
19.71
18.5
17.29
16.22
15.29
14.28
12.8
10.48
7.08
2.63
-2.57
-8.09
-13.45
-18.35
-22.72
-26.71
-30.65
-34.94
-39.97
-46.03
-53.1
-60.76
-67.98
-73.24
-74.82
-71.43
-62.68
-49.36
-33.27
-16.59
-1.21
11.77
22.06
29.96
35.88
40.09
42.63
43.53
42.91
41.11
38.61
35.92
33.4
31.25
29.49
28.04
26.82
25.77
24.85
24.04
23.29
22.48
21.42
19.87
17.59
14.46
10.46
5.74
0.58
-4.73
-9.91
-14.76
-19.19
-23.22
-27.0
-30.84
-35.13
-40.3
-46.59
-53.86
-61.35
-67.74
-71.39
-70.84
-65.3
-54.99
-41.08
-25.36
-9.63
4.64
16.64
26.11
33.18
38.11
41.15
42.56
42.6
41.63
40.0
38.06
36.06
34.16
32.44
30.96
29.8
29.03
28.65
28.56
28.51
28.16
27.14
25.23
22.41
18.89
15.05
11.2
7.55
4.05
0.53
-3.26
-7.47
-12.08
-16.91
-21.66
-26.04
-29.87
-33.2
-36.31
-39.75
-44.16
-50.01
-57.22
-64.98
-71.72
-75.54
-74.77
-68.59
-57.33
-42.35
-25.62
-9.08
5.79
18.19
27.88
34.96
39.68
42.28
43.06
42.37
40.66
38.38
35.93
33.59
31.53
29.82
28.46
27.44
26.67
26.02
25.34
24.5
23.47
22.28
21.0
19.6
17.9
15.63
12.5
8.44
3.61
-1.61
-6.76
-11.53
-15.79
-19.62
-23.2
-26.74
-30.5
-34.75
-39.75
-45.61
-52.0
-58.04
-62.36
-63.47
-60.27
-52.47
-40.74
-26.51
-11.48
2.82
15.31
25.46
33.09
38.22
40.91
41.34
39.8
36.79
32.97
29.05
25.61
22.97
21.12
19.85
18.85
17.91
16.99
16.17
15.53
15.02
14.38
13.19
11.05
7.76
3.42
-1.58
-6.72
-11.52
-15.77
-19.57
-23.28
-27.41
-32.41
-38.56
-45.74
-53.34
-60.25
-64.98
-66.09
-62.59
-54.36
-42.17
-27.54
-12.22
2.25
14.81
25.01
32.77
38.22
41.51
42.76
42.15
40.02
36.88
33.38
30.12
27.57
25.84
24.78
24.01
23.17
22.08
20.72
19.23
17.75
16.3
14.72
12.74
10.07
6.53
2.15
-2.85
-8.11
-13.29
-18.15
-22.66
-26.94
-31.26
-35.94
-41.32
-47.6
-54.65
-61.87
-68.15
-71.97
-71.9
-67.06
-57.45
-44.05
-28.45
-12.44
2.47
15.31
25.68
33.53
39.06
42.51
44.17
44.34
43.37
41.61
39.42
37.14
35.06
33.35
32.04
31.08
30.31
29.59
28.78
27.79
26.55
25.01
23.1
20.68
17.64
13.89
9.42
4.38
-0.97
-6.26
-11.19
-15.58
-19.48
-23.11
-26.86
-31.18
-36.45
-42.88
-50.4
-58.42
-65.88
-71.33
-73.25
-70.55
-62.91
-50.98
-36.14
-20.11
-4.49
9.6
21.55
31.14
38.34
43.22
45.93
46.76
46.13
44.57
42.59
40.61
38.85
37.39
36.16
35.07
34.07
33.18
32.48
31.98
31.52
30.84
29.6
27.6
24.84
21.55
18.08
14.67
11.39
8.11
4.58
0.6
-3.9
-8.87
-14.13
-19.52
-24.9
-30.18
-35.37
-40.6
-46.15
-52.31
-59.21
-66.5
-73.22
-77.92
-79.01
-75.33
-66.59
-53.52
-37.67
-20.94
-5.02
8.94
20.42
29.35
35.9
40.3
42.76
43.48
42.74
40.94
38.56
36.09
33.96
32.4
31.42
30.85
30.42
29.85
29.02
27.95
26.72
25.45
24.15
22.72
20.98
18.72
15.79
12.14
7.9
3.27
-1.44
-6.01
-10.29
-14.28
-18.14
-22.12
-26.56
-31.71
-37.7
-44.27
-50.82
-56.27
-59.35
-58.87
-54.13
-45.17
-32.87
-18.66
-4.17
9.22
20.61
29.62
36.22
40.51
42.64
42.8
41.26
38.47
35.04
31.59
28.65
26.48
25.07
24.15
23.41
22.57
21.52
20.34
19.16
18.09
17.07
15.86
14.11
11.47
7.78
3.13
-2.19
-7.75
-13.18
-18.2
-22.72
-26.81
-30.72
-34.82
-39.55
-45.3
-52.16
-59.72
-66.91
-72.14
-73.74
-70.45
-61.92
-48.9
-33.05
-16.35
-0.62
12.93
23.81
32.08
38.07
42.11
44.48
45.35
44.94
43.5
41.37
38.87
36.28
33.83
31.66
29.92
28.69
27.98
27.7
27.62
27.45
26.85
25.59
23.58
20.83
17.45
13.55
9.25
4.63
-0.2
-5.15
-10.1
-14.98
-19.73
-24.3
-28.68
-32.96
-37.38
-42.34
-48.22
-55.15
-62.73
-69.86
-74.93
-76.24
-72.55
-63.62
-50.25
-34.1
-17.13
-1.06
12.93
24.31
32.98
39.09
42.91
44.75
45.07
44.38
43.2
41.9
40.64
39.37
37.97
36.34
34.59
32.94
31.68
30.93
30.64
30.5
30.12
29.1
27.23
24.57
21.33
17.85
14.38
11.04
7.72
4.16
0.13
-4.54
-9.74
-15.17
-20.42
-25.11
-29.08
-32.47
-35.67
-39.24
-43.74
-49.54
-56.6
-64.25
-71.21
-75.77
-76.28
-71.67
-61.83
-47.79
-31.33
-14.47
1.1
14.32
24.83
32.71
38.25
41.79
43.63
44.09
43.5
42.17
40.37
38.27
36.04
33.84
31.83
30.18
28.99
28.23
27.81
27.54
27.19
26.56
25.44
23.67
21.22
18.16
14.68
10.99
7.25
3.46
-0.49
-4.66
-9.03
-13.39
-17.53
-21.29
-24.71
-28.03
-31.58
-35.71
-40.62
-46.32
-52.43
-58.14
-62.25
-63.42
-60.61
-53.42
-42.4
-28.83
-14.35
-0.48
11.74
21.77
29.52
35.02
38.33
39.53
38.81
36.51
33.16
29.39
25.76
22.69
20.32
18.57
17.25
16.2
15.32
14.64
14.22
14.02
13.83
13.29
12.04
9.83
6.63
2.69
-1.66
-6.03
-10.21
-14.17
-18.14
-22.47
-27.54
-33.57
-40.41
-47.43
-53.54
-57.45
-58.0
-54.53
-47.1
-36.51
-24.02
-10.98
1.46
12.52
21.74
28.9
33.87
36.65
37.35
36.23
33.77
30.48
26.87
23.34
20.1
17.25
14.81
12.81
11.27
10.17
9.38
8.65
7.65
6.06
3.73
0.67
-2.9
-6.69
-10.49
-14.22
-18.02
-22.19
-27.11
-33.02
-39.82
-46.89
-53.09
-56.99
-57.29
-53.26
-45.05
-33.57
-20.27
-6.68
5.98
16.93
25.8
32.51
37.04
39.45
39.85
38.45
35.64
31.92
27.86
23.98
20.62
17.89
15.71
13.86
12.11
10.31
8.38
6.32
4.13
1.81
-0.73
-3.57
-6.79
-10.46
-14.66
-19.52
-25.23
-31.93
-39.53
-47.54
-54.94
-60.36
-62.35
-59.86
-52.67
-41.42
-27.49
-12.6
1.66
14.13
24.23
31.83
37.11
40.35
41.84
41.84
40.59
38.4
35.6
32.51
29.4
26.44
23.71
21.24
19.03
17.03
15.15
13.22
11.08
8.57
5.62
2.29
-1.35
-5.23
-9.36
-13.88
-19.04
-25.1
-32.23
-40.29
-48.68
-56.23
-61.41
-62.73
-59.22
-50.81
-38.45
-23.72
-8.45
5.85
18.24
28.36
36.2
41.94
45.79
47.95
48.73
48.44
47.41
45.9
44.1
42.11
40.0
37.86
35.79
33.88
32.17
30.61
29.08
27.47
25.71
23.73
21.46
18.8
15.63
11.82
7.37
2.35
-3.06
-8.61
-14.09
-19.29
-24.1
-28.5
-32.61
-36.71
-41.27
-46.79
-53.6
-61.56
-69.87
-77.08
-81.37
-81.08
-75.3
-64.21
-49.08
-31.88
-14.66
1.04
14.46
25.47
34.33
41.28
46.39
49.64
51.12
51.13
50.22
48.97
47.84
46.96
46.2
45.34
44.21
42.86
41.52
40.5
39.95
39.8
39.71
39.22
37.83
35.31
31.67
27.24
22.51
17.94
13.81
10.1
6.53
2.68
-1.78
-6.97
-12.72
-18.62
-24.22
-29.14
-33.25
-36.7
-39.92
-43.5
-48.04
-53.99
-61.41
-69.75
-77.79
-83.76
-85.85
-82.71
-73.98
-60.43
-43.75
-26.01
-9.07
5.85
18.22
28.02
35.49
40.86
44.33
46.1
46.48
45.92
44.87
43.71
42.6
41.53
40.37
39.05
37.63
36.31
35.34
34.9
34.96
35.26
35.38
34.87
33.39
30.78
27.13
22.78
18.15
13.67
9.6
5.98
2.63
-0.8
-4.6
-8.95
-13.75
-18.75
-23.58
-27.92
-31.65
-34.89
-37.96
-41.39
-45.69
-51.29
-58.25
-66.1
-73.76
-79.65
-82.05
-79.64
-71.92
-59.44
-43.69
-26.61
-10.06
4.62
16.73
26.16
33.12
37.91
40.79
42.04
41.94
40.87
39.21
37.3
35.37
33.53
31.86
30.42
29.34
28.7
28.5
28.53
28.49
28.05
26.97
25.21
22.93
20.29
17.43
14.33
10.88
6.98
2.6
-2.12
-6.96
-11.67
-16.07
-20.16
-24.09
-28.14
-32.65
-37.92
-44.07
-50.94
-57.91
-63.92
-67.63
-67.71
-63.36
-54.55
-42.18
-27.78
-13.07
0.48
11.95
20.95
27.47
31.61
33.48
33.21
31.04
27.43
23.02
18.49
14.41
11.15
8.84
7.5
7.11
7.69
9.23
11.6
14.53
17.59
20.41
22.67
24.18
24.84
24.52
23.14
20.62
17.08
12.73
7.91
2.89
-2.14
-7.18
-12.27
-17.56
-23.25
-29.62
-36.87
-44.99
-53.44
-61.07
-66.29
-67.44
-63.42
-54.11
-40.44
-24.14
-7.23
8.54
21.98
32.57
40.34
45.59
48.76
50.25
50.41
49.53
47.84
45.51
42.74
39.71
36.69
33.93
31.66
30.0
28.9
28.18
27.56
26.79
25.69
24.13
22.07
19.48
16.3
12.49
8.08
3.18
-1.98
-7.16
-12.19
-16.97
-21.55
-26.06
-30.61
-35.32
-40.33
-45.81
-51.97
-58.84
-66.08
-72.81
-77.58
-78.74
-74.98
-65.82
-51.87
-34.75
-16.57
0.7
15.65
27.64
36.65
42.94
46.87
48.74
48.84
47.55
45.3
42.6
39.86
37.36
35.22
33.44
31.98
30.85
30.03
29.46
28.95
28.22
26.97
25.03
22.43
19.39
16.18
12.95
9.64
6.02
1.81
-3.15
-8.78
-14.73
-20.57
-25.96
-30.75
-35.06
-39.21
-43.63
-48.78
-55.0
-62.26
-69.98
-76.93
-81.42
-81.71
-76.59
-65.87
-50.51
-32.32
-13.44
4.23
19.42
31.55
40.58
46.72
50.31
51.7
51.23
49.36
46.56
43.36
40.22
37.47
35.27
33.56
32.22
31.11
30.2
29.52
29.07
28.76
28.31
27.36
25.59
22.87
19.33
15.26
11.04
6.89
2.86
-1.2
-5.55
-10.36
-15.63
-21.16
-26.6
-31.57
-35.85
-39.47
-42.77
-46.32
-50.84
-56.86
-64.44
-72.9
-80.82
-86.22
-87.17
-82.39
-71.68
-56.06
-37.46
-18.13
-0.01
15.62
28.23
37.81
44.61
48.87
50.85
50.8
49.11
46.27
42.84
39.3
36.04
33.26
31.07
29.49
28.5
28.0
27.77
27.56
27.07
26.05
24.4
22.1
19.19
15.71
11.68
7.06
1.9
-3.62
-9.26
-14.7
-19.73
-24.31
-28.63
-32.98
-37.73
-43.21
-49.62
-56.98
-64.95
-72.68
-78.84
-81.75
-79.9
-72.42
-59.53
-42.56
-23.55
-4.72
12.14
26.0
36.56
44.0
48.65
50.87
50.92
49.16
46.06
42.17
38.04
34.06
30.38
26.99
23.87
21.06
18.74
17.08
16.09
15.52
14.91
13.71
11.54
8.28
4.07
-0.73
-5.78
-10.79
-15.62
-20.34
-25.23
-30.75
-37.3
-44.94
-53.07
-60.38
-65.09
-65.47
-60.5
-50.27
-35.95
-19.42
-2.67
12.73
25.8
36.16
43.67
48.38
50.35
49.79
47.11
42.88
37.76
32.4
27.3
22.82
19.12
16.25
14.19
12.82
11.91
11.13
10.09
8.4
5.8
2.27
-2.01
-6.69
-11.43
-16.03
-20.51
-25.16
-30.44
-36.88
-44.71
-53.66
-62.68
-70.08
-73.84
-72.3
-64.73
-51.64
-34.67
-16.04
2.06
18.07
31.16
41.1
48.01
52.06
53.49
52.62
49.94
46.11
41.87
37.8
34.3
31.43
29.07
27.01
25.1
23.32
21.77
20.55
19.65
18.85
17.76
15.88
12.82
8.41
2.79
-3.6
-10.16
-16.37
-21.92
-26.89
-31.66
-36.82
-42.99
-50.62
-59.77
-69.83
-79.53
-86.94
-90.0
-87.06
-77.5
-62.01
-42.45
-21.3
-0.88
17.1
31.81
43.1
51.15
56.3
58.86
59.24
57.97
55.66
52.9
50.13
47.54
45.15
42.91
40.84
39.11
37.93
37.42
37.49
37.72
37.55
36.4
33.98
30.35
25.88
21.07
16.29
11.69
7.14
2.38
-2.82
-8.53
-14.61
-20.78
-26.72
-32.2
-37.19
-41.92
-46.76
-52.25
-58.88
-66.92
-76.1
-85.41
-93.07
-96.94
-95.1
-86.58
-71.78
-52.4
-30.86
-9.58
9.65
25.84
38.7
48.31
54.83
58.51
59.7
58.94
56.93
54.35
51.66
49.11
46.72
44.42
42.27
40.42
39.11
38.5
38.57
39.0
39.3
38.88
37.32
34.49
30.58
26.0
21.17
16.36
11.6
6.74
1.53
-4.15
-10.22
-16.42
-22.4
-27.84
-32.6
-36.74
-40.57
-44.57
-49.31
-55.3
-62.68
-71.01
-79.04
-84.9
-86.56
-82.45
-72.11
-56.35
-37.1
-16.74
2.58
19.39
33.0
43.34
50.58
54.93
56.56
55.71
52.86
48.73
44.17
39.99
36.71
34.47
33.07
32.13
31.28
30.28
29.08
27.66
26.04
24.12
21.79
18.92
15.44
11.35
6.74
1.77
-3.35
-8.41
-13.23
-17.73
-21.91
-25.83
-29.65
-33.62
-38.14
-43.67
-50.5
-58.4
-66.38
-72.73
-75.43
-72.84
-64.36
-50.66
-33.48
-15.03
2.7
18.38
31.4
41.63
49.09
53.82
55.84
55.32
52.68
48.57
43.75
38.94
34.67
31.23
28.63
26.71
25.25
24.04
22.99
22.13
21.5
21.04
20.44
19.22
16.8
12.82
7.27
0.58
-6.55
-13.44
-19.65
-25.14
-30.2
-35.23
-40.65
-46.82
-54.01
-62.27
-71.27
-80.04
-86.91
-89.92
-87.34
-78.47
-63.87
-45.34
-25.21
-5.7
11.71
26.36
38.15
47.2
53.55
57.2
58.24
57.06
54.3
50.77
47.17
43.94
41.18
38.75
36.48
34.26
32.15
30.28
28.79
27.67
26.77
25.76
24.25
21.86
18.34
13.65
7.99
1.73
-4.64
-10.76
-16.45
-21.77
-26.98
-32.4
-38.35
-45.14
-52.99
-61.85
-71.19
-79.8
-85.9
-87.55
-83.28
-72.75
-56.86
-37.56
-17.27
1.89
18.49
31.87
42.06
49.36
54.18
56.86
57.67
56.91
54.93
52.2
49.22
46.4
43.99
41.99
40.27
38.71
37.31
36.18
35.39
34.82
34.09
32.71
30.31
26.85
22.65
18.21
13.87
9.67
5.35
0.51
-5.1
-11.37
-17.89
-24.15
-29.72
-34.54
-38.85
-43.22
-48.3
-54.67
-62.55
-71.55
-80.54
-87.71
-90.98
-88.6
-79.79
-65.08
-46.18
-25.46
-5.27
12.64
27.34
38.57
46.53
51.6
54.25
54.98
54.34
52.86
50.96
48.87
46.68
44.39
42.02
39.66
37.5
35.77
34.64
34.13
34.05
33.99
33.45
31.95
29.26
25.44
20.89
16.1
11.43
7.0
2.6
-2.05
-7.14
-12.6
-18.14
-23.42
-28.25
-32.69
-37.07
-41.81
-47.32
-53.92
-61.57
-69.78
-77.46
-83.01
-84.64
-80.92
-71.35
-56.57
-38.27
-18.66
0.16
16.69
30.14
40.37
47.55
51.99
54.02
54.02
52.5
50.06
47.27
44.59
42.24
40.2
38.33
36.53
34.81
33.37
32.37
31.92
31.83
31.69
30.99
29.35
26.67
23.14
19.12
14.97
10.88
6.82
2.62
-1.92
-6.87
-12.16
-17.57
-22.84
-27.74
-32.16
-36.17
-39.99
-44.03
-48.83
-54.8
-61.96
-69.64
-76.44
-80.45
-79.91
-73.75
-62.11
-46.24
-28.1
-9.75
7.19
21.75
33.48
42.26
48.07
51.05
51.45
49.77
46.68
42.87
38.95
35.36
32.33
29.97
28.32
27.39
27.07
27.21
27.54
27.69
27.34
26.26
24.42
21.93
19.01
15.83
12.42
8.69
4.52
-0.13
-5.15
-10.28
-15.23
-19.8
-23.96
-27.84
-31.73
-35.97
-40.91
-46.78
-53.51
-60.52
-66.67
-70.42
-70.17
-64.87
-54.39
-39.69
-22.51
-4.88
11.41
25.21
35.98
43.68
48.49
50.69
50.58
48.55
45.09
40.78
36.24
31.93
28.19
25.17
22.9
21.36
20.46
20.1
20.07
20.09
19.81
18.9
17.16
14.64
11.58
8.33
5.11
1.93
-1.41
-5.22
-9.69
-14.74
-20.09
-25.33
-30.1
-34.29
-38.0
-41.51
-45.24
-49.63
-55.04
-61.52
-68.53
-74.86
-78.72
-78.29
-72.31
-60.72
-44.67
-26.24
-7.75
8.92
22.69
33.28
40.91
46.02
49.0
50.18
49.83
48.3
45.96
43.22
40.39
37.69
35.16
32.76
30.52
28.54
27.03
26.22
26.15
26.6
27.08
26.99
25.91
23.7
20.6
17.09
13.65
10.49
7.54
4.44
0.8
-3.62
-8.76
-14.26
-19.73
-24.8
-29.39
-33.64
-37.9
-42.58
-48.04
-54.47
-61.75
-69.3
-76.0
-80.33
-80.74
-76.15
-66.35
-52.14
-35.15
-17.35
-0.49
14.18
26.08
35.05
41.23
44.78
45.96
45.03
42.41
38.61
34.19
29.7
25.62
22.34
20.08
18.92
18.74
19.29
20.24
21.28
22.16
22.73
22.83
22.28
20.86
18.41
14.86
10.37
5.27
0.04
-4.92
-9.33
-13.17
-16.65
-20.11
-23.95
-28.51
-34.0
-40.4
-47.36
-54.09
-59.42
-62.01
-60.74
-55.04
-45.17
-32.19
-17.6
-2.97
10.48
21.95
31.08
37.8
42.12
44.13
44.0
42.03
38.67
34.53
30.22
26.31
23.17
20.94
19.51
18.67
18.14
17.71
17.24
16.67
15.93
14.92
13.5
11.51
8.83
5.37
1.17
-3.66
-8.9
-14.29
-19.57
-24.54
-29.2
-33.68
-38.27
-43.36
-49.24
-55.97
-63.22
-70.14
-75.44
-77.67
-75.61
-68.68
-57.19
-42.28
-25.57
-8.79
6.68
19.89
30.41
38.12
43.14
45.72
46.25
45.16
42.95
40.06
36.89
33.76
30.94
28.61
26.87
25.68
24.87
24.17
23.34
22.22
20.77
19.05
17.11
14.94
12.37
9.21
5.27
0.5
-4.95
-10.76
-16.57
-22.06
-27.13
-31.92
-36.75
-41.97
-47.88
-54.63
-62.06
-69.66
-76.52
-81.38
-82.9
-80.04
-72.42
-60.51
-45.58
-29.31
-13.33
1.08
13.28
23.09
30.68
36.3
40.23
42.7
43.94
44.21
43.77
42.9
41.8
40.57
39.23
37.74
36.03
34.11
32.02
29.86
27.72
25.63
23.49
21.12
18.28
14.76
10.47
5.5
0.12
-5.29
-10.34
-14.78
-18.64
-22.13
-25.68
-29.82
-35.0
-41.45
-49.0
-56.9
-63.91
-68.52
-69.37
-65.66
-57.42
-45.5
-31.26
-16.22
-1.66
11.49
22.67
31.6
38.18
42.47
44.69
45.15
44.29
42.54
40.29
37.87
35.52
33.31
31.27
29.37
27.59
25.98
24.66
23.66
22.94
22.27
21.25
19.5
16.73
12.9
8.29
3.31
-1.55
-6.0
-9.98
-13.68
-17.47
-21.75
-26.9
-33.12
-40.29
-47.85
-54.77
-59.66
-61.11
-58.16
-50.59
-39.1
-25.05
-10.04
4.48
17.53
28.55
37.28
43.62
47.52
49.06
48.51
46.38
43.3
39.86
36.46
33.26
30.25
27.37
24.67
22.34
20.6
19.54
18.98
18.52
17.6
15.76
12.8
8.8
4.04
-1.09
-6.31
-11.37
-16.19
-20.81
-25.42
-30.4
-36.24
-43.29
-51.5
-60.19
-67.94
-72.97
-73.6
-68.9
-59.0
-45.07
-28.92
-12.41
3.04
16.62
28.02
37.18
44.08
48.69
51.05
51.41
50.21
48.06
45.59
43.25
41.28
39.68
38.28
36.91
35.45
34.01
32.82
32.11
31.94
32.13
32.19
31.52
29.52
25.79
20.22
13.19
5.64
-1.04
-5.39
-6.5
-4.53
-0.86
2.33
2.9
-0.37
-7.31
-16.53
-25.9
-33.25
-36.85
-35.62
-29.24
-18.27
-4.1
11.27
25.68
37.48
45.85
50.86
53.09
53.24
51.81
49.16
45.6
41.5
37.26
33.25
29.77
27.09
25.42
24.85
25.27
26.23
27.07
27.14
26.03
23.59
19.79
14.73
8.65
2.35
-2.71
-4.64
-1.87
5.92
17.19
28.81
37.03
38.87
33.22
21.1
5.01
-12.24
-28.5
-42.89
-55.57
-67.0
-77.65
-87.54
-96.42
-103.99
-110.05
-114.04
-114.67
-109.88
-97.66
-77.51
-51.48
-24.02
-0.47
15.13
21.73
21.5
18.26
15.52
14.7
15.21
15.54
14.68
12.76
10.82
9.93
10.37
11.75
13.06
13.55
12.99
11.61
9.61
6.81
2.63
-3.77
-12.86
-25.0
-39.84
-55.98
-71.18
-83.19
-90.19
-91.37
-87.19
-78.81
-68.58
-58.76
-50.44
-43.39
-36.75
-29.46
-21.19
-12.65
-4.95
-0.15
0.1
-4.4
-9.22
-9.89
-3.65
8.62
20.02
28.23
32.73
34.08
34.61
35.93
38.7
42.99
48.34
54.12
60.17
65.5
68.97
69.8
67.63
62.49
54.9
45.63
35.63
26.22
18.1
11.68
7.31
5.04
4.37
4.39
4.03
2.5
-0.15
-3.63
-7.43
-11.0
-14.09
-16.8
-19.43
-22.25
-25.35
-28.51
-31.63
-34.76
-38.09
-42.0
-46.93
-53.09
-60.21
-67.24
-72.44
-73.8
-69.74
-59.65
-44.26
-25.46
-5.71
12.79
28.58
41.09
50.38
56.66
60.03
60.42
57.92
52.96
46.48
39.69
33.67
29.07
25.9
23.69
21.78
19.68
17.23
14.63
12.26
10.46
9.4
8.93
8.66
8.03
6.46
3.52
-0.95
-6.77
-13.51
-20.61
-27.6
-34.25
-40.59
-46.89
-53.61
-61.15
-69.68
-78.86
-87.77
-94.85
-98.36
-96.75
-89.22
-76.11
-58.71
-39.05
-19.17
-0.74
15.27
28.46
38.85
46.6
51.86
54.87
55.91
55.4
53.8
51.56
48.98
46.25
43.44
40.55
37.65
34.81
32.23
30.07
28.43
27.28
26.36
25.27
23.52
20.75
16.83
11.95
6.54
1.05
-4.2
-9.19
-14.13
-19.39
-25.42
-32.52
-40.81
-49.91
-58.91
-66.3
-70.32
-69.39
-62.67
-50.38
-33.82
-14.99
4.0
21.44
36.32
48.23
57.19
63.37
66.95
68.14
67.21
64.62
60.96
56.86
52.89
49.41
46.51
44.09
41.93
39.84
37.73
35.63
33.6
31.74
30.01
28.26
26.18
23.39
19.53
14.46
8.32
1.5
-5.46
-12.15
-18.36
-24.17
-29.84
-35.7
-42.12
-49.42
-57.82
-67.26
-77.14
-86.15
-92.48
-94.18
-89.92
-79.42
-63.71
-44.75
-24.82
-5.93
10.6
24.16
34.68
42.23
46.96
49.03
48.7
46.46
42.99
39.03
35.17
31.74
28.78
26.17
23.83
21.83
20.42
19.85
20.15
20.99
21.7
21.52
19.87
16.58
11.95
6.57
1.07
-4.11
-8.91
-13.61
-18.72
-24.76
-32.05
-40.51
-49.54
-57.96
-64.18
-66.53
-63.72
-55.27
-41.77
-24.73
-6.23
11.6
27.08
39.2
47.64
52.59
54.52
53.99
51.57
47.81
43.2
38.21
33.2
28.44
24.09
20.27
17.06
14.5
12.57
11.09
9.71
8.01
5.63
2.44
-1.44
-5.67
-9.91
-13.95
-17.78
-21.62
-25.84
-30.89
-37.26
-45.19
-54.41
-63.83
-71.6
-75.45
-73.43
-64.65
-49.64
-30.3
-9.24
10.94
28.28
41.7
50.88
56.04
57.7
56.63
53.69
49.81
45.74
41.94
38.56
35.5
32.62
29.9
27.41
25.29
23.61
22.26
20.95
19.33
17.05
13.87
9.71
4.64
-1.13
-7.3
-13.51
-19.51
-25.21
-30.86
-37.0
-44.26
-53.01
-62.91
-72.66
-80.14
-82.96
-79.34
-68.82
-52.51
-32.76
-12.31
6.6
22.69
35.67
45.8
53.39
58.57
61.29
61.58
59.73
56.34
52.17
47.83
43.7
39.84
36.12
32.41
28.74
25.31
22.44
20.37
19.08
18.2
17.06
14.91
11.25
6.04
-0.29
-6.98
-13.34
-18.95
-23.84
-28.37
-33.05
-38.33
-44.55
-51.89
-60.16
-68.66
-76.0
-80.29
-79.64
-72.87
-60.06
-42.64
-22.98
-3.47
14.06
28.74
40.47
49.42
55.75
59.45
60.53
59.22
56.12
51.98
47.53
43.23
39.18
35.27
31.33
27.4
23.71
20.65
18.51
17.27
16.53
15.6
13.75
10.51
5.84
0.15
-5.88
-11.55
-16.45
-20.53
-24.18
-28.07
-32.91
-39.2
-46.85
-55.05
-62.2
-66.37
-65.82
-59.61
-47.99
-32.33
-14.71
2.75
18.37
31.22
41.01
47.84
51.95
53.56
52.88
50.21
46.02
40.9
35.48
30.27
25.62
21.67
18.38
15.67
13.43
11.52
9.77
7.96
5.84
3.22
0.04
-3.63
-7.57
-11.53
-15.34
-19.04
-22.91
-27.5
-33.32
-40.6
-48.93
-57.09
-63.27
-65.57
-62.64
-54.2
-41.21
-25.46
-9.07
6.2
19.25
29.64
37.45
42.86
46.01
46.94
45.69
42.42
37.55
31.68
25.5
19.61
14.45
10.22
6.94
4.5
2.72
1.42
0.38
-0.61
-1.76
-3.24
-5.16
-7.57
-10.5
-13.97
-18.06
-22.91
-28.6
-35.04
-41.77
-47.83
-51.94
-52.78
-49.44
-41.79
-30.6
-17.3
-3.53
9.31
20.3
29.07
35.59
39.96
42.27
42.64
41.2
38.2
34.03
29.14
23.95
18.89
14.24
10.22
6.87
4.15
1.87
-0.16
-2.13
-4.16
-6.28
-8.47
-10.74
-13.19
-16.04
-19.57
-24.1
-29.79
-36.51
-43.72
-50.4
-55.25
-56.92
-54.44
-47.59
-36.95
-23.81
-9.79
3.61
15.35
24.9
32.2
37.36
40.53
41.8
41.28
39.18
35.86
31.8
27.48
23.26
19.37
15.83
12.63
9.72
7.05
4.59
2.31
0.12
-2.03
-4.21
-6.49
-8.97
-11.81
-15.29
-19.67
-25.18
-31.8
-39.12
-46.26
-51.97
-54.9
-53.99
-48.82
-39.73
-27.76
-14.32
-0.87
11.37
21.61
29.49
35.04
38.46
40.11
40.31
39.32
37.35
34.55
31.09
27.18
23.02
18.89
15.02
11.65
8.92
6.83
5.19
3.72
2.06
-0.04
-2.67
-5.72
-9.0
-12.35
-15.75
-19.37
-23.57
-28.71
-34.98
-42.07
-49.12
-54.77
-57.5
-56.11
-50.15
-40.08
-27.08
-12.76
1.37
14.13
24.8
33.07
38.87
42.3
43.6
43.11
41.31
38.72
35.8
32.88
30.07
27.3
24.46
21.49
18.49
15.71
13.43
11.79
10.66
9.69
8.37
6.32
3.38
-0.34
-4.53
-8.83
-12.98
-16.88
-20.57
-24.18
-27.93
-32.14
-37.14
-43.13
-49.91
-56.66
-62.07
-64.56
-62.83
-56.41
-45.76
-32.2
-17.45
-3.11
9.73
20.51
29.08
35.47
39.77
42.09
42.66
41.81
39.98
37.6
35.0
32.34
29.64
26.9
24.12
21.4
18.86
16.68
14.99
13.82
13.04
12.37
11.4
9.73
7.04
3.26
-1.39
-6.46
-11.46
-15.97
-19.87
-23.31
-26.75
-30.69
-35.6
-41.54
-48.12
-54.41
-59.11
-60.9
-58.8
-52.52
-42.53
-29.92
-16.11
-2.42
10.09
20.73
29.14
35.22
39.03
40.79
40.88
39.74
37.82
35.52
33.1
30.69
28.3
25.9
23.5
21.12
18.9
16.98
15.49
14.45
13.72
13.02
11.96
10.17
7.43
3.71
-0.76
-5.58
-10.3
-14.55
-18.2
-21.34
-24.3
-27.51
-31.41
-36.23
-41.88
-47.82
-53.06
-56.35
-56.51
-52.79
-45.18
-34.37
-21.6
-8.25
4.51
15.88
25.4
32.8
37.97
40.88
41.72
40.92
39.01
36.57
33.98
31.41
28.89
26.38
23.9
21.52
19.34
17.45
15.87
14.59
13.53
12.57
11.57
10.27
8.43
5.86
2.53
-1.43
-5.76
-10.07
-14.07
-17.54
-20.51
-23.26
-26.23
-29.95
-34.77
-40.63
-46.89
-52.38
-55.73
-55.74
-51.81
-44.1
-33.5
-21.26
-8.65
3.31
13.94
22.82
29.68
34.35
36.81
37.26
36.14
34.04
31.48
28.83
26.21
23.64
21.06
18.52
16.13
14.07
12.51
11.53
11.07
10.93
10.78
10.25
9.02
6.92
3.99
0.51
-3.13
-6.6
-9.72
-12.58
-15.39
-18.44
-21.97
-26.1
-30.83
-35.99
-41.2
-45.79
-48.85
-49.43
-46.8
-40.77
-31.79
-20.86
-9.19
2.1
12.23
20.83
27.71
32.79
35.98
37.2
36.56
34.42
31.36
28.0
24.85
22.09
19.67
17.4
15.12
12.88
10.91
9.41
8.45
7.86
7.24
6.17
4.35
1.74
-1.46
-4.91
-8.28
-11.38
-14.2
-16.91
-19.77
-23.06
-26.99
-31.64
-36.85
-42.16
-46.77
-49.68
-49.86
-46.64
-39.91
-30.22
-18.65
-6.48
5.09
15.24
23.49
29.7
33.89
36.21
36.85
36.1
34.26
31.68
28.68
25.57
22.55
19.81
17.42
15.42
13.77
12.39
11.19
10.11
9.03
7.79
6.2
4.08
1.33
-1.96
-5.54
-9.09
-12.35
-15.29
-18.12
-21.3
-25.34
-30.51
-36.69
-43.15
-48.7
-51.98
-51.88
-47.94
-40.42
-30.23
-18.59
-6.67
4.62
14.64
23.01
29.47
33.87
36.22
36.72
35.76
33.82
31.33
28.61
25.79
22.92
20.01
17.16
14.53
12.35
10.81
9.94
9.55
9.26
8.65
7.33
5.16
2.24
-1.18
-4.77
-8.29
-11.64
-14.9
-18.28
-22.07
-26.55
-31.82
-37.74
-43.74
-48.88
-51.98
-51.93
-48.05
-40.34
-29.56
-17.03
-4.23
7.49
17.28
24.81
30.11
33.43
35.03
35.16
34.03
31.9
29.11
26.04
23.02
20.25
17.78
15.57
13.56
11.76
10.2
8.96
7.96
7.05
5.97
4.42
2.26
-0.5
-3.69
-7.04
-10.35
-13.55
-16.78
-20.32
-24.49
-29.48
-35.1
-40.74
-45.36
-47.78
-47.01
-42.55
-34.67
-24.28
-12.74
-1.41
8.68
16.95
23.31
27.86
30.75
32.07
31.84
30.17
27.33
23.78
20.01
16.47
13.45
11.05
9.22
7.89
6.92
6.15
5.41
4.49
3.24
1.54
-0.68
-3.4
-6.52
-9.88
-13.28
-16.66
-20.16
-24.15
-28.95
-34.59
-40.48
-45.43
-47.99
-46.95
-41.84
-33.12
-21.98
-9.91
1.74
12.01
20.42
26.79
31.15
33.64
34.42
33.67
31.62
28.54
24.78
20.8
17.04
13.86
11.44
9.69
8.38
7.23
6.05
4.77
3.35
1.79
-0.02
-2.21
-4.85
-7.95
-11.42
-15.16
-19.22
-23.75
-28.98
-34.93
-41.21
-46.92
-50.82
-51.63
-48.54
-41.44
-31.03
-18.59
-5.61
6.6
17.1
25.43
31.48
35.4
37.47
38.04
37.41
35.88
33.65
30.87
27.72
24.41
21.19
18.3
15.93
14.09
12.67
11.44
10.15
8.6
6.65
4.28
1.5
-1.61
-4.96
-8.45
-11.97
-15.53
-19.34
-23.74
-29.06
-35.28
-41.84
-47.58
-51.01
-50.82
-46.37
-37.91
-26.51
-13.65
-0.81
10.91
20.88
28.86
34.78
38.66
40.56
40.64
39.23
36.81
33.9
30.92
28.14
25.64
23.38
21.32
19.48
17.96
16.85
16.15
15.64
14.95
13.62
11.3
7.96
3.85
-0.5
-4.56
-7.98
-10.78
-13.36
-16.35
-20.36
-25.73
-32.4
-39.77
-46.79
-52.11
-54.39
-52.63
-46.55
-36.66
-24.18
-10.67
2.38
13.9
23.31
30.52
35.64
38.87
40.42
40.5
39.39
37.42
34.98
32.39
29.89
27.61
25.54
23.64
21.9
20.38
19.17
18.35
17.87
17.52
16.95
15.78
13.69
10.56
6.5
1.85
-2.89
-7.24
-10.85
-13.72
-16.13
-18.64
-21.83
-26.12
-31.61
-37.98
-44.54
-50.3
-54.14
-55.04
-52.32
-45.85
-36.13
-24.2
-11.33
1.18
12.33
21.48
28.3
32.81
35.18
35.78
35.04
33.41
31.24
28.8
26.28
23.81
21.51
19.47
17.75
16.39
15.4
14.76
14.44
14.28
14.01
13.3
11.83
9.43
6.18
2.35
-1.66
-5.51
-8.95
-12.02
-15.0
-18.38
-22.63
-28.01
-34.31
-40.71
-45.9
-48.43
-47.2
-41.81
-32.72
-21.1
-8.44
3.83
14.66
23.47
30.06
34.49
36.93
37.61
36.83
34.94
32.39
29.61
26.99
24.75
22.97
21.58
20.41
19.28
18.08
16.8
15.54
14.42
13.49
12.64
11.63
10.14
7.9
4.87
1.21
-2.78
-6.83
-10.79
-14.65
-18.47
-22.29
-26.12
-30.01
-34.18
-38.84
-44.1
-49.63
-54.54
-57.55
-57.37
-53.16
-44.94
-33.59
-20.59
-7.52
4.36
14.33
22.21
28.15
32.37
35.05
36.25
36.05
34.69
32.57
30.15
27.86
25.93
24.33
22.89
21.47
20.01
18.64
17.54
16.83
16.47
16.25
15.83
14.88
13.14
10.49
6.95
2.75
-1.75
-6.16
-10.18
-13.66
-16.7
-19.56
-22.62
-26.27
-30.75
-36.02
-41.63
-46.72
-50.16
-50.85
-48.07
-41.74
-32.51
-21.49
-9.97
0.98
10.65
18.7
24.96
29.35
31.82
32.41
31.37
29.21
26.53
23.89
21.61
19.71
18.03
16.39
14.73
13.2
12.04
11.41
11.27
11.3
11.04
10.08
8.16
5.35
1.91
-1.76
-5.32
-8.55
-11.44
-14.14
-16.99
-20.39
-24.7
-30.04
-36.17
-42.38
-47.57
-50.53
-50.23
-46.22
-38.73
-28.64
-17.19
-5.66
4.93
13.95
21.15
26.51
30.12
32.1
32.58
31.75
29.91
27.49
24.89
22.48
20.44
18.79
17.44
16.25
15.16
14.19
13.45
13.0
12.76
12.44
11.63
9.88
6.94
2.88
-1.9
-6.8
-11.21
-14.78
-17.55
-19.91
-22.49
-25.93
-30.64
-36.66
-43.48
-50.1
-55.17
-57.3
-55.47
-49.33
-39.43
-27.03
-13.75
-1.17
9.64
18.19
24.53
28.99
31.96
33.73
34.47
34.33
33.46
32.08
30.45
28.83
27.36
26.04
24.81
23.57
22.29
21.03
19.9
18.99
18.3
17.66
16.82
15.46
13.36
10.46
6.87
2.86
-1.29
-5.31
-9.02
-12.4
-15.51
-18.55
-21.82
-25.66
-30.38
-36.05
-42.37
-48.5
-53.27
-55.42
-54.0
-48.75
-40.13
-29.18
-17.18
-5.33
5.48
14.73
22.16
27.67
31.31
33.23
33.69
33.06
31.75
30.14
28.57
27.25
26.25
25.51
24.88
24.13
23.15
21.93
20.62
19.43
18.49
17.82
17.21
16.34
14.85
12.52
9.3
5.4
1.14
-3.09
-6.98
-10.4
-13.35
-16.03
-18.75
-21.89
-25.83
-30.73
-36.39
-42.04
-46.5
-48.44
-46.93
-41.69
-33.29
-22.9
-11.88
-1.34
8.02
15.91
22.25
26.98
30.0
31.27
30.94
29.4
27.17
24.82
22.72
20.99
19.51
18.06
16.5
14.89
13.48
12.55
12.19
12.25
12.32
11.9
10.63
8.38
5.3
1.68
-2.12
-5.8
-9.22
-12.35
-15.3
-18.35
-21.87
-26.17
-31.41
-37.36
-43.34
-48.3
-51.07
-50.67
-46.62
-39.11
-28.98
-17.49
-5.97
4.51
13.34
20.3
25.54
29.25
31.64
32.83
32.92
32.11
30.65
28.86
27.03
25.32
23.82
22.5
21.31
20.19
19.13
18.11
17.13
16.18
15.23
14.19
12.94
11.31
9.14
6.34
2.93
-0.93
-4.97
-8.89
-12.5
-15.76
-18.82
-21.98
-25.6
-30.0
-35.31
-41.36
-47.58
-53.02
-56.53
-57.03
-53.85
-46.95
-36.99
-25.17
-12.86
-1.32
8.59
16.5
22.42
26.62
29.44
31.15
31.98
32.1
31.62
30.64
29.32
27.83
26.36
25.08
24.07
23.28
22.62
21.98
21.3
20.57
19.75
18.77
17.48
15.71
13.35
10.4
7.02
3.4
-0.27
-3.89
-7.44
-10.95
-14.44
-17.96
-21.58
-25.46
-29.78
-34.7
-40.18
-45.84
-50.94
-54.43
-55.27
-52.7
-46.53
-37.26
-25.91
-13.82
-2.22
7.93
16.13
22.29
26.6
29.38
30.99
31.7
31.71
31.16
30.15
28.8
27.26
25.69
24.24
23.02
22.1
21.48
21.1
20.86
20.59
20.1
19.23
17.91
16.16
14.03
11.58
8.83
5.75
2.34
-1.33
-5.13
-8.88
-12.42
-15.7
-18.78
-21.83
-25.11
-28.87
-33.29
-38.34
-43.69
-48.64
-52.23
-53.42
-51.4
-45.84
-37.05
-25.93
-13.79
-1.98
8.37
16.62
22.59
26.49
28.72
29.7
29.78
29.2
28.15
26.8
25.3
23.79
22.36
21.07
19.97
19.12
18.54
18.26
18.18
18.14
17.89
17.18
15.85
13.86
11.36
8.54
5.58
2.59
-0.48
-3.69
-7.08
-10.6
-14.11
-17.45
-20.54
-23.42
-26.31
-29.53
-33.45
-38.3
-44.01
-50.07
-55.52
-59.15
-59.74
-56.52
-49.38
-38.96
-26.46
-13.33
-0.87
10.0
18.82
25.55
30.4
33.69
35.78
36.97
37.51
37.53
37.13
36.34
35.22
33.83
32.27
30.72
29.36
28.35
27.77
27.57
27.57
27.48
26.97
25.82
23.9
21.28
18.17
14.83
11.48
8.2
4.94
1.63
-1.83
-5.39
-8.96
-12.42
-15.7
-18.88
-22.16
-25.85
-30.24
-35.46
-41.3
-47.12
-51.93
-54.55
-53.97
-49.65
-41.71
-30.94
-18.55
-5.89
5.87
15.89
23.73
29.34
32.88
34.68
35.1
34.5
33.19
31.49
29.66
27.92
26.39
25.1
23.99
22.99
22.04
21.13
20.26
19.42
18.6
17.7
16.65
15.35
13.72
11.65
9.07
5.96
2.34
-1.62
-5.78
-9.93
-13.94
-17.73
-21.32
-24.83
-28.47
-32.52
-37.18
-42.39
-47.68
-52.18
-54.74
-54.33
-50.36
-42.93
-32.85
-21.3
-9.59
1.27
10.62
18.19
23.93
27.83
29.95
30.38
29.41
27.47
25.1
22.86
21.07
19.77
18.77
17.75
16.52
15.11
13.79
12.88
12.56
12.71
12.92
12.63
11.39
9.03
5.68
1.69
-2.48
-6.47
-10.04
-13.16
-15.96
-18.74
-21.92
-25.9
-30.91
-36.8
-42.87
-47.99
-50.85
-50.33
-45.95
-38.05
-27.67
-16.26
-5.21
4.48
12.3
18.2
22.33
24.84
25.86
25.45
23.8
21.25
18.33
15.64
13.67
12.64
12.42
12.63
12.82
12.7
12.26
11.69
11.19
10.77
10.15
8.88
6.57
3.12
-1.19
-5.81
-10.17
-13.92
-17.02
-19.73
-22.43
-25.56
-29.45
-34.3
-40.03
-46.2
-51.92
-55.97
-57.07
-54.3
-47.45
-37.17
-24.79
-11.86
0.26
10.69
19.08
25.44
29.93
32.73
34.0
33.96
32.92
31.29
29.49
27.84
26.54
25.59
24.92
24.37
23.77
23.02
22.11
21.08
20.0
18.87
17.57
15.84
13.41
10.11
6.04
1.54
-2.87
-6.76
-9.91
-12.51
-14.97
-17.81
-21.51
-26.29
-32.07
-38.35
-44.24
-48.58
-50.16
-48.14
-42.26
-33.05
-21.67
-9.56
2.01
12.14
20.44
26.81
31.28
33.89
34.67
33.82
31.72
28.95
26.11
23.66
21.79
20.43
19.33
18.27
17.21
16.23
15.51
15.14
15.0
14.77
14.01
12.35
9.61
5.93
1.66
-2.75
-6.87
-10.47
-13.57
-16.4
-19.38
-23.0
-27.64
-33.4
-39.92
-46.31
-51.33
-53.61
-52.13
-46.57
-37.44
-25.92
-13.53
-1.65
8.73
17.13
23.45
27.8
30.33
31.23
30.77
29.33
27.4
25.45
23.82
22.67
21.93
21.39
20.83
20.12
19.3
18.52
17.97
17.74
17.69
17.45
16.54
14.57
11.4
7.24
2.57
-2.07
-6.31
-10.04
-13.43
-16.84
-20.68
-25.3
-30.89
-37.28
-43.87
-49.59
-53.12
-53.23
-49.27
-41.36
-30.52
-18.24
-6.1
4.72
13.58
20.37
25.24
28.37
29.94
30.13
29.22
27.63
25.8
24.15
22.87
21.94
21.15
20.34
19.44
18.58
17.95
17.68
17.67
17.58
16.95
15.36
12.63
8.92
4.63
0.3
-3.67
-7.11
-10.13
-13.02
-16.19
-19.99
-24.62
-29.98
-35.66
-40.82
-44.35
-45.16
-42.54
-36.37
-27.27
-16.38
-5.03
5.65
14.91
22.42
28.06
31.82
33.74
33.91
32.55
30.02
26.78
23.26
19.78
16.57
13.77
11.47
9.71
8.48
7.62
6.86
5.89
4.41
2.28
-0.52
-3.83
-7.44
-11.12
-14.71
-18.24
-21.88
-25.97
-30.84
-36.66
-43.18
-49.65
-54.83
-57.31
-55.94
-50.24
-40.58
-28.12
-14.47
-1.24
10.39
19.81
26.95
32.05
35.41
37.27
37.78
37.13
35.6
33.62
31.63
30.03
28.97
28.38
28.01
27.55
26.77
25.56
23.89
21.78
19.21
16.15
12.57
8.49
4.0
-0.83
-5.95
-11.48
-17.6
-24.47
-31.93
-39.39
-45.78
-49.8
-50.32
-46.8
-39.49
-29.39
-17.97
-6.69
3.36
11.65
18.08
22.88
26.25
28.37
29.3
29.12
27.97
26.1
23.83
21.49
19.44
17.95
17.18
17.16
17.73
18.63
19.57
20.39
21.01
21.36
21.28
20.49
18.78
16.2
13.14
10.21
7.94
6.55
5.89
5.7
6.06
7.55
11.13
17.71
27.61
40.29
54.55
68.84
81.68
91.78
98.06
99.52
95.35
85.21
69.54
49.71
27.77
5.97
-13.83
-30.62
-44.3
-55.48
-64.94
-73.21
-80.19
-85.2
-87.35
-86.0
-81.22
-73.89
-65.37
-57.09
-50.08
-44.8
-41.3
-39.42
-39.04
-40.01
-42.15
-45.1
-48.41
-51.81
-55.29
-59.1
-63.48
-68.26
-72.66
-75.33
-74.74
-69.77
-60.17
-46.72
-31.07
-15.22
-0.89
10.88
19.88
26.53
31.47
35.25
38.09
39.94
40.66
40.28
39.02
37.32
35.65
34.35
33.5
32.97
32.53
31.98
31.26
30.43
29.57
28.65
27.49
25.76
23.16
19.51
14.92
9.76
4.51
-0.38
-4.65
-8.29
-11.48
-14.57
-17.95
-22.0
-27.04
-33.17
-40.12
-47.11
-52.94
-56.18
-55.63
-50.75
-41.8
-29.85
-16.42
-3.06
9.03
19.12
26.95
32.54
36.04
37.69
37.76
36.62
34.69
32.41
30.15
28.17
26.53
25.15
23.85
22.45
20.88
19.24
17.74
16.6
15.87
15.3
14.42
12.65
9.62
5.3
0.09
-5.32
-10.29
-14.46
-17.95
-21.26
-25.1
-30.0
-36.13
-43.01
-49.61
-54.56
-56.44
-54.23
-47.63
-37.17
-24.12
-10.11
3.24
14.75
23.81
30.37
34.75
37.4
38.71
38.91
38.21
36.77
34.84
32.71
30.69
28.96
27.56
26.38
25.27
24.08
22.82
21.53
20.32
19.2
18.09
16.79
15.03
12.58
9.26
5.1
0.26
-4.91
-10.0
-14.64
-18.68
-22.17
-25.43
-28.9
-33.03
-38.13
-44.21
-50.87
-57.26
-62.12
-64.11
-62.1
-55.6
-44.96
-31.37
-16.5
-2.07
10.55
20.63
28.02
33.04
36.17
37.93
38.71
38.75
38.19
37.1
35.59
33.8
31.92
30.1
28.43
26.91
25.52
24.22
23.04
22.03
21.21
20.46
19.53
18.06
15.73
12.38
8.05
3.0
-2.36
-7.63
-12.49
-16.81
-20.58
-24.01
-27.45
-31.34
-36.13
-42.07
-48.97
-56.1
-62.15
-65.53
-64.82
-59.26
-49.05
-35.4
-20.13
-5.17
7.99
18.59
26.55
32.22
36.03
38.3
39.22
38.95
37.74
35.95
33.96
32.03
30.25
28.59
26.97
25.39
23.9
22.57
21.45
20.52
19.68
18.77
17.59
15.95
13.64
10.57
6.77
2.44
-2.15
-6.7
-11.02
-15.05
-18.83
-22.46
-26.1
-29.98
-34.44
-39.72
-45.82
-52.26
-58.01
-61.64
-61.76
-57.49
-48.8
-36.59
-22.37
-7.84
5.54
16.77
25.37
31.26
34.65
35.95
35.64
34.28
32.34
30.19
28.05
25.97
23.93
21.85
19.75
17.75
16.04
14.84
14.25
14.13
14.07
13.54
12.03
9.28
5.4
0.79
-4.03
-8.67
-12.89
-16.77
-20.53
-24.55
-29.28
-35.02
-41.76
-48.91
-55.3
-59.33
-59.48
-54.84
-45.53
-32.64
-17.97
-3.39
9.65
20.34
28.5
34.29
37.95
39.71
39.76
38.34
35.83
32.72
29.52
26.65
24.28
22.37
20.75
19.23
17.76
16.42
15.38
14.73
14.29
13.65
12.27
9.7
5.8
0.89
-4.48
-9.66
-14.21
-18.03
-21.38
-24.74
-28.7
-33.76
-40.16
-47.71
-55.65
-62.6
-66.91
-67.04
-62.16
-52.44
-39.07
-23.82
-8.55
5.29
16.84
25.82
32.31
36.56
38.88
39.57
38.96
37.39
35.21
32.69
30.02
27.31
24.61
22.0
19.61
17.62
16.22
15.47
15.22
15.06
14.46
12.93
10.25
6.57
2.29
-2.12
-6.31
-10.18
-13.92
-17.89
-22.54
-28.22
-35.05
-42.67
-50.14
-55.98
-58.53
-56.49
-49.49
-38.25
-24.42
-9.95
3.49
14.86
23.81
30.4
34.81
37.19
37.71
36.61
34.29
31.19
27.68
24.03
20.42
16.97
13.84
11.24
9.31
8.14
7.61
7.43
7.18
6.37
4.65
1.88
-1.77
-5.93
-10.13
-14.07
-17.68
-21.24
-25.22
-30.14
-36.38
-43.84
-51.85
-59.1
-63.93
-64.73
-60.52
-51.28
-38.03
-22.52
-6.7
7.82
20.03
29.51
36.31
40.68
42.92
43.37
42.4
40.44
37.94
35.28
32.72
30.33
28.06
25.79
23.47
21.22
19.23
17.72
16.72
15.98
15.02
13.29
10.41
6.34
1.4
-3.84
-8.87
-13.31
-17.14
-20.61
-24.18
-28.45
-33.92
-40.8
-48.78
-56.89
-63.56
-67.01
-65.75
-59.11
-47.52
-32.43
-15.9
-0.03
13.6
24.16
31.62
36.41
39.18
40.48
40.66
39.93
38.5
36.62
34.58
32.65
30.9
29.25
27.49
25.51
23.39
21.38
19.76
18.6
17.71
16.57
14.62
11.46
7.02
1.67
-3.99
-9.36
-14.08
-18.18
-22.11
-26.57
-32.16
-39.18
-47.26
-55.35
-61.84
-64.99
-63.41
-56.58
-45.02
-30.2
-14.09
1.38
14.81
25.51
33.39
38.71
41.85
43.15
42.97
41.72
39.91
37.99
36.29
34.86
33.55
32.09
30.3
28.15
25.83
23.64
21.86
20.61
19.74
18.86
17.44
14.97
11.21
6.22
0.44
-5.51
-11.01
-15.68
-19.49
-22.77
-26.05
-29.93
-34.9
-41.14
-48.36
-55.66
-61.6
-64.48
-62.85
-56.02
-44.38
-29.4
-13.13
2.4
15.74
26.27
34.06
39.55
43.12
44.97
45.23
44.11
42.09
39.84
38.0
36.89
36.41
36.11
35.45
34.12
32.19
30.04
28.12
26.7
25.71
24.78
23.37
21.01
17.49
12.89
7.57
2.03
-3.24
-7.89
-11.84
-15.29
-18.65
-22.41
-26.99
-32.59
-39.02
-45.65
-51.45
-55.17
-55.64
-52.14
-44.61
-33.78
-20.95
-7.64
4.79
15.39
23.73
29.77
33.69
35.72
36.1
35.1
33.06
30.39
27.56
24.95
22.77
21.11
19.91
19.03
18.36
17.84
17.44
17.07
16.58
15.74
14.3
12.11
9.19
5.71
1.98
-1.68
-5.09
-8.23
-11.26
-14.47
-18.19
-22.63
-27.77
-33.3
-38.47
-42.29
-43.65
-41.73
-36.3
-27.83
-17.4
-6.4
3.9
12.63
19.39
24.14
27.05
28.29
28.01
26.43
23.83
20.64
17.31
14.23
11.65
9.69
8.35
7.56
7.18
6.99
6.73
6.19
5.22
3.81
2.05
0.07
-2.07
-4.36
-6.85
-9.59
-12.65
-16.14
-20.17
-24.8
-29.85
-34.79
-38.72
-40.52
-39.27
-34.54
-26.65
-16.63
-5.87
4.2
12.59
18.82
22.91
25.19
26.02
25.66
24.31
22.12
19.29
16.13
13.01
10.25
8.09
6.57
5.6
4.94
4.34
3.53
2.39
0.87
-0.98
-3.04
-5.23
-7.5
-9.87
-12.42
-15.3
-18.72
-22.82
-27.61
-32.75
-37.56
-41.05
-42.18
-40.21
-34.96
-26.97
-17.3
-7.27
1.95
9.64
15.51
19.65
22.34
23.81
24.24
23.76
22.48
20.62
18.42
16.15
14.04
12.19
10.62
9.28
8.07
6.9
5.68
4.34
2.83
1.17
-0.63
-2.56
-4.63
-6.93
-9.59
-12.76
-16.59
-21.09
-26.01
-30.79
-34.56
-36.32
-35.27
-31.12
-24.23
-15.55
-6.36
2.2
9.34
14.76
18.57
21.0
22.32
22.7
22.28
21.19
19.62
17.74
15.7
13.59
11.49
9.54
7.87
6.58
5.66
4.95
4.17
3.04
1.47
-0.5
-2.68
-4.89
-7.01
-9.11
-11.36
-14.0
-17.25
-21.25
-25.92
-30.87
-35.36
-38.39
-38.98
-36.53
-30.99
-22.96
-13.49
-3.78
5.11
12.48
17.99
21.62
23.6
24.24
23.9
22.96
21.71
20.36
19.08
17.92
16.85
15.82
14.75
13.64
12.56
11.63
10.91
10.38
9.83
8.97
7.53
5.37
2.6
-0.53
-3.67
-6.6
-9.19
-11.56
-13.93
-16.63
-19.94
-23.98
-28.54
-33.01
-36.47
-37.88
-36.43
-31.8
-24.4
-15.2
-5.45
3.66
11.34
17.24
21.41
24.1
25.56
25.99
25.52
24.35
22.73
20.99
19.43
18.22
17.33
16.55
15.61
14.37
12.87
11.36
10.1
9.24
8.63
7.91
6.63
4.56
1.72
-1.57
-4.85
-7.78
-10.26
-12.43
-14.64
-17.25
-20.54
-24.61
-29.29
-34.12
-38.31
-40.92
-41.04
-38.13
-32.2
-23.91
-14.35
-4.78
3.76
10.66
15.76
19.24
21.4
22.54
22.82
22.36
21.27
19.71
17.92
16.16
