2013-06-20 12:55:45
64.0
-0.0
-0.0
-0.0
-0.0
-0.0
-0.0
-0.0
-0.0
-0.0
0.0
0.0
0.0
-0.0
-0.01
-0.02
-0.01
0.01
0.05
0.1
0.16
0.19
0.2
0.2
0.18
0.17
0.18
0.21
0.27
0.32
0.36
0.36
0.34
0.31
0.29
0.33
0.41
0.56
0.71
0.82
0.84
0.8
0.72
0.69
0.77
0.98
1.34
1.69
1.93
1.98
1.85
1.66
1.58
1.74
2.19
2.92
3.67
4.2
4.37
4.18
3.82
3.6
3.76
4.42
5.55
6.77
7.69
8.05
7.83
7.27
6.78
6.77
6.86
7.89
9.74
12.13
14.33
15.16
13.43
8.52
0.89
-7.92
-15.7
-20.83
-22.68
-21.88
-19.86
-17.96
-16.88
-16.52
-16.31
-15.73
-14.77
-13.62
-12.51
-11.5
-10.61
-10.03
-10.24
-11.62
-14.3
-17.78
-20.99
-22.74
-22.33
-19.77
-15.73
-11.07
-6.48
-2.29
1.43
4.61
7.17
8.98
10.05
10.63
11.01
11.46
12.01
12.55
12.92
12.99
12.7
12.09
11.2
10.12
9.01
8.03
7.35
7.0
6.87
6.73
6.37
5.7
4.77
3.81
3.02
2.57
2.4
2.31
2.06
1.52
0.8
0.25
0.28
1.07
2.42
3.75
4.3
3.59
1.64
-0.87
-2.92
-3.61
-2.57
-0.22
2.39
3.95
3.49
0.9
-2.9
-6.24
-7.42
-5.56
-1.12
4.21
8.22
9.23
6.93
2.41
-2.26
-5.08
-4.97
-2.06
2.45
6.88
9.69
9.63
6.19
-0.43
-9.13
-18.12
-25.06
-27.3
-22.8
-11.71
3.06
16.24
22.53
19.25
8.13
-5.5
-15.39
-17.86
-13.58
-6.67
-1.75
-1.02
-3.07
-4.12
-0.92
6.79
15.7
21.19
19.8
11.53
-0.26
-10.8
-15.77
-13.77
-6.3
2.95
10.2
12.89
10.68
5.29
-0.71
-5.18
-6.89
-5.45
-1.03
5.46
12.27
16.8
16.78
11.21
1.44
-9.13
-16.72
-18.73
-15.13
-8.43
-2.39
0.06
-1.68
-5.23
-7.13
-5.13
0.44
6.49
9.9
9.57
7.3
6.18
8.26
12.12
13.96
10.33
0.99
-10.5
-18.59
-19.52
-13.77
-5.56
0.08
0.61
-2.54
-6.19
-7.32
-5.1
-0.95
2.93
5.45
6.27
5.25
2.32
-2.34
-7.35
-9.9
-7.44
0.66
12.02
21.62
24.64
19.44
9.1
-0.57
-4.82
-2.51
3.11
7.36
6.9
2.12
-3.6
-6.85
-6.36
-3.62
-1.34
-1.19
-2.85
-4.37
-3.84
-0.99
2.0
2.55
-0.68
-7.12
-14.13
-18.63
-18.95
-15.29
-9.37
-3.24
1.72
5.2
7.57
8.87
9.44
10.02
11.57
15.14
19.95
23.21
20.95
10.79
-5.57
-22.21
-31.76
-29.74
-17.2
-0.4
12.99
18.02
14.55
6.3
-1.97
-7.37
-9.31
-9.07
-8.27
-7.56
-6.99
-6.3
-5.53
-4.95
-4.73
-4.62
-3.63
-0.53
5.52
14.22
23.25
28.9
27.71
18.34
3.12
-12.53
-23.03
-25.11
-19.75
-11.49
-5.37
-3.75
-5.4
-6.8
-4.9
0.73
8.27
14.98
19.33
21.18
21.0
18.75
13.64
6.02
-2.32
-8.55
-10.42
-7.91
-3.99
-2.63
-6.31
-14.29
-22.43
-25.99
-21.85
-10.81
3.37
15.31
20.96
19.11
12.13
4.09
-1.24
-2.21
-0.22
1.31
-0.85
-7.3
-15.19
-19.88
-17.91
-9.16
2.88
13.26
17.84
16.14
10.78
5.22
1.83
0.73
0.28
-1.55
-4.99
-8.76
-10.55
-9.14
-5.18
-0.66
2.76
4.38
5.56
7.55
10.32
11.91
9.67
2.59
-7.06
-14.78
-15.96
-9.07
3.51
16.23
23.91
24.3
18.67
10.72
3.1
-2.7
-6.98
-10.16
-12.43
-13.17
-11.95
-9.37
-6.23
-3.47
-1.29
0.61
2.66
4.49
5.51
4.59
1.43
-3.33
-8.07
-10.85
-10.68
-7.51
-2.11
3.98
9.22
12.37
13.04
10.75
6.38
1.38
-2.68
-4.14
-2.91
-0.34
0.93
-1.04
-6.7
-13.27
-17.12
-15.75
-9.33
-0.83
5.99
8.92
8.74
7.45
7.08
7.86
8.73
8.2
5.89
2.71
-0.29
-2.55
-4.29
-5.86
-7.19
-7.6
-6.31
-3.68
-0.76
1.2
1.51
0.63
-0.36
-0.74
-0.21
1.27
2.92
4.36
4.64
2.53
-2.54
-9.93
-17.06
-20.52
-17.55
-7.6
6.81
21.17
30.98
33.83
29.99
21.83
11.77
0.98
-10.39
-21.77
-30.84
-33.86
-27.91
-13.67
4.09
17.88
21.81
15.02
2.22
-9.19
-13.2
-8.25
1.96
11.42
15.18
11.91
3.89
-5.29
-12.26
-15.85
-16.88
-16.25
-14.29
-10.5
-4.32
3.98
12.75
19.78
23.21
22.45
18.2
11.73
4.13
-4.29
-13.29
-21.74
-26.82
-25.48
-16.6
-2.37
12.32
22.44
25.43
22.2
15.95
9.46
3.44
-2.83
-10.36
-18.39
-23.84
-23.19
-15.01
-1.7
11.3
18.07
15.63
6.1
-4.63
-10.48
-8.84
-1.93
4.64
5.37
-1.16
-11.18
-17.98
-16.1
-5.23
9.94
22.19
26.59
22.8
14.9
8.04
4.8
4.46
3.68
-0.15
-6.93
-13.94
-17.29
-14.73
-6.96
2.95
10.78
13.55
10.81
4.18
-3.59
-9.42
-11.55
-9.81
-5.67
-1.25
1.69
2.6
2.21
1.72
2.09
3.0
3.66
2.97
0.77
-2.14
-4.36
-4.71
-3.28
-0.89
1.04
1.81
1.45
0.57
0.08
0.25
0.82
1.32
1.47
1.09
0.52
0.19
0.24
0.78
1.47
1.93
1.84
1.21
0.28
-0.42
-0.5
0.15
1.29
2.33
2.82
2.48
1.49
0.33
-0.5
-0.73
-0.3
0.79
2.39
4.22
5.55
5.4
2.84
-2.29
-9.04
-15.54
-19.73
-20.36
-17.59
-12.85
-7.99
-4.31
-1.97
-0.24
1.72
4.19
6.6
7.96
7.59
5.69
3.2
1.37
1.22
2.84
5.38
7.43
7.78
6.01
2.73
-0.63
-2.57
-2.28
0.03
3.2
5.82
6.77
5.47
2.17
-2.32
-6.99
-10.62
-12.07
-10.31
-4.82
3.48
12.24
18.26
18.88
13.83
5.95
-0.24
-0.76
5.49
16.06
26.17
31.25
29.03
20.14
7.45
-5.25
-14.88
-19.64
-18.98
-13.48
-4.83
4.41
11.58
15.03
14.71
12.04
8.99
6.71
5.18
3.45
0.62
-3.26
-7.41
-10.71
-12.34
-12.34
-11.45
-10.52
-10.22
-10.6
-11.17
-11.16
-10.1
-8.03
-5.45
-3.21
-2.19
-2.68
-4.27
-6.13
-7.27
-7.12
-5.76
-3.75
-1.9
-0.87
-0.82
-1.47
-2.3
-2.85
-2.9
-2.53
-2.02
-1.65
-1.55
-1.63
-1.7
-1.59
-1.25
-0.77
-0.27
0.1
0.31
0.36
0.32
0.27
0.25
0.27
0.33
0.37
0.37
0.28
0.12
-0.07
-0.22
-0.28
-0.24
-0.13
0.01
0.15
0.26
0.37
0.47
0.54
0.53
0.39
0.13
-0.18
-0.43
-0.53
-0.46
-0.27
-0.04
0.12
0.17
0.09
-0.09
-0.33
-0.6
-0.85
-1.01
-1.04
-0.92
-0.66
-0.35
-0.04
0.19
0.35
0.45
0.53
0.6
0.62
0.58
0.46
0.3
0.17
0.11
0.15
0.27
0.41
0.51
0.54
0.51
0.44
0.39
0.37
0.38
0.39
0.36
0.29
0.22
0.17
0.16
0.18
0.17
0.06
-0.15
-0.41
-0.61
-0.68
-0.59
-0.37
-0.14
0.02
0.07
0.04
0.0
0.01
0.07
0.14
0.17
0.11
-0.02
-0.15
-0.22
-0.19
-0.07
0.05
0.12
0.11
0.04
-0.02
-0.01
0.07
0.17
0.23
0.22
0.14
0.04
-0.01
-0.0
0.05
0.12
0.2
0.29
0.42
0.58
0.71
0.72
0.55
0.23
-0.15
-0.45
-0.56
-0.46
-0.25
-0.1
-0.18
-0.57
-1.21
-1.9
-2.4
-2.52
-2.24
-1.75
-1.39
-1.51
-2.29
-3.58
-5.0
-6.04
-6.33
-5.86
-5.02
-4.39
-4.47
-5.49
-7.24
-9.27
-11.17
-12.62
-13.35
-13.02
-11.34
-8.46
-5.25
-3.24
-4.05
-8.48
-15.87
-24.13
-30.66
-33.48
-32.13
-27.62
-21.7
-15.78
-10.38
-5.2
0.22
5.96
11.54
16.25
19.64
21.77
23.07
24.15
25.48
27.08
28.69
29.9
30.35
29.94
28.83
27.35
25.88
24.67
23.75
22.95
21.99
20.65
18.86
16.78
14.68
12.79
11.18
9.79
8.46
7.08
5.68
4.4
3.39
2.69
2.25
1.89
1.41
0.74
-0.07
-0.86
-1.39
-1.45
-0.93
0.01
0.91
1.23
0.53
-1.22
-3.46
-5.37
-6.22
-5.83
-4.62
-3.45
-3.08
-3.64
-4.84
-6.01
-6.69
-6.9
-7.09
-7.53
-8.31
-9.29
-10.42
-12.1
-14.9
-19.0
-23.63
-26.95
-26.91
-22.46
-14.43
-5.36
1.63
4.52
3.26
-0.29
-3.69
-5.31
-5.07
-4.13
-3.81
-4.74
-6.36
-7.54
-7.23
-5.13
-2.0
0.95
2.44
2.02
-0.14
-2.96
-5.16
-5.76
-4.74
-2.83
-1.02
0.05
0.64
1.54
3.21
5.17
6.28
5.56
3.27
0.85
-0.01
1.17
3.44
5.12
4.99
3.44
2.12
2.58
5.13
8.41
10.37
9.61
6.27
1.97
-1.22
-1.45
2.02
8.64
16.63
23.55
26.75
24.57
17.28
6.82
-3.87
-12.39
-17.89
-20.62
-20.91
-18.34
-11.86
-1.14
12.11
24.0
30.02
27.52
17.33
3.58
-8.26
-14.26
-13.57
-8.76
-3.46
-0.53
-0.46
-1.83
-3.0
-3.11
-2.67
-2.77
-4.12
-5.98
-6.72
-4.6
1.03
8.9
16.28
20.14
18.52
11.67
1.94
-7.27
-13.02
-13.97
-11.07
-6.55
-2.89
-1.59
-2.51
-4.47
-6.12
-6.78
-6.56
-6.36
-6.81
-8.28
-10.3
-12.0
-12.61
-11.75
-9.81
-7.55
-5.91
-5.03
-4.35
-2.87
-0.06
3.59
6.9
8.71
8.74
7.86
7.48
8.49
10.75
13.06
13.92
12.68
10.05
7.72
7.19
8.7
10.94
11.91
10.17
5.8
0.43
-3.81
-5.36
-4.18
-1.62
0.41
0.49
-1.38
-4.16
-6.41
-7.22
-6.67
-5.51
-4.61
-4.35
-4.51
-4.68
-4.4
-3.55
-2.36
-1.24
-0.56
-0.51
-0.99
-1.74
-2.39
-2.63
-2.38
-1.78
-1.1
-0.66
-0.64
-1.03
-1.65
-2.2
-2.46
-2.37
-2.04
-1.64
-1.35
-1.18
-1.05
-0.86
-0.56
-0.18
0.15
0.33
0.32
0.17
0.0
-0.09
-0.06
0.1
0.35
0.62
0.87
1.05
1.16
1.19
1.16
1.11
1.07
1.06
1.05
1.04
1.02
1.01
1.03
1.08
1.13
1.13
1.04
0.86
0.63
0.39
0.17
-0.04
-0.25
-0.44
-0.59
-0.67
-0.69
-0.72
-0.83
-1.02
-1.25
-1.41
-1.42
-1.3
-1.12
-1.0
-0.99
-1.08
-1.19
-1.28
-1.32
-1.36
-1.42
-1.47
-1.43
-1.22
-0.79
-0.2
0.44
1.0
1.39
1.57
1.54
1.34
1.0
0.61
0.26
0.04
-0.02
0.07
0.24
0.38
0.43
0.36
0.18
-0.03
-0.21
-0.3
-0.28
-0.18
-0.03
0.12
0.24
0.3
0.32
0.3
0.25
0.19
0.13
0.09
0.09
0.14
0.22
0.25
0.18
-0.02
-0.32
-0.62
-0.84
-0.92
-0.85
-0.67
-0.44
-0.21
-0.0
0.18
0.32
0.41
0.47
0.47
0.43
0.34
0.21
0.08
-0.02
-0.07
-0.04
0.06
0.17
0.26
0.28
0.23
0.15
0.06
0.0
-0.04
-0.1
-0.18
-0.27
-0.32
-0.3
-0.16
0.05
0.27
0.39
0.35
0.14
-0.16
-0.43
-0.6
-0.61
-0.53
-0.42
-0.37
-0.4
-0.47
-0.54
-0.54
-0.46
-0.33
-0.18
-0.06
-0.0
-0.01
-0.07
-0.15
-0.22
-0.22
-0.14
0.0
0.16
0.29
0.36
0.4
0.41
0.42
0.46
0.52
0.6
0.7
0.83
0.97
1.11
1.19
1.19
1.1
0.94
0.74
0.54
0.38
0.26
0.18
0.12
0.1
0.09
0.09
0.09
0.08
0.07
0.07
0.09
0.14
0.18
0.21
0.19
0.13
0.07
0.04
0.04
0.07
0.09
0.08
0.03
-0.03
-0.09
-0.14
-0.16
-0.17
-0.18
-0.2
-0.24
-0.31
-0.4
-0.51
-0.64
-0.76
-0.9
-1.02
-1.1
-1.11
-1.04
-0.92
-0.79
-0.74
-0.82
-1.05
-1.39
-1.76
-2.07
-2.26
-2.3
-2.25
-2.21
-2.28
-2.57
-3.11
-3.81
-4.52
-5.04
-5.27
-5.22
-5.08
-5.13
-5.6
-6.56
-7.87
-9.17
-10.11
-10.48
-10.36
-10.15
-10.23
-10.93
-12.3
-14.03
-15.77
-17.21
-18.15
-18.37
-17.55
-15.42
-12.09
-8.31
-5.29
-4.24
-5.62
-8.79
-12.26
-14.39
-14.26
-12.11
-9.0
-6.17
-4.27
-3.17
-2.24
-0.91
0.97
3.12
5.1
6.76
8.25
9.83
11.88
14.39
17.1
19.53
21.2
21.83
21.43
20.28
18.76
17.25
15.9
14.67
13.35
11.74
9.68
7.22
4.52
1.76
-0.92
-3.53
-6.21
-9.16
-12.5
-16.23
-20.22
-24.25
-28.06
-31.38
-33.99
-35.65
-36.21
-35.54
-33.57
-30.28
-25.67
-19.76
-12.61
-4.35
4.83
14.62
24.69
34.69
44.37
53.53
62.01
69.64
76.18
81.33
84.81
86.37
85.89
83.41
79.07
73.09
65.75
57.35
48.24
38.96
29.89
21.35
13.52
6.49
0.32
-4.96
-9.35
-12.86
-15.56
-17.55
-18.98
-19.98
-20.67
-21.13
-21.43
-21.57
-21.53
-21.27
-20.78
-20.08
-19.21
-18.28
-17.38
-16.57
-15.84
-15.17
-14.52
-13.91
-13.36
-12.93
-12.66
-12.56
-12.65
-12.87
-13.13
-13.32
-13.27
-12.86
-11.99
-10.7
-9.1
-7.31
-5.48
-3.74
-2.18
-0.89
0.07
0.66
0.95
1.03
0.99
0.87
0.67
0.33
-0.19
-0.85
-1.57
-2.24
-2.81
-3.3
-3.75
-4.18
-4.59
-4.91
-5.12
-5.18
-5.13
-4.96
-4.62
-4.06
-3.24
-2.18
-1.0
0.19
1.28
2.28
3.21
4.09
4.88
5.51
5.89
5.99
5.85
5.53
5.05
4.42
3.58
2.54
1.32
0.01
-1.28
-2.51
-3.66
-4.73
-5.73
-6.63
-7.36
-7.88
-8.17
-8.28
-8.3
-8.35
-8.46
-8.62
-8.74
-8.71
-8.49
-8.09
-7.57
-7.03
-6.54
-6.12
-5.76
-5.44
-5.17
-4.96
-4.78
-4.55
-4.13
-3.39
-2.27
-0.8
0.88
2.55
4.07
5.35
6.43
7.37
8.21
8.87
9.21
9.07
8.44
7.4
6.21
5.08
4.17
3.47
2.9
2.38
1.84
1.33
0.89
0.54
0.24
-0.07
-0.42
-0.75
-0.94
-0.9
-0.61
-0.22
0.08
0.05
-0.42
-1.34
-2.57
-3.88
-5.01
-5.72
-5.84
-5.35
-4.41
-3.35
-2.6
-2.47
-3.01
-3.94
-4.73
-4.9
-4.24
-3.07
-1.86
-1.3
-1.72
-2.91
-4.4
-5.75
-6.69
-7.17
-7.33
-6.95
-5.75
-3.69
-1.12
1.29
2.9
3.57
3.9
4.99
7.84
12.66
18.58
23.77
26.24
24.7
19.04
10.68
2.06
-4.12
-6.27
-4.45
-0.46
2.89
3.6
1.22
-2.89
-6.73
-9.08
-10.4
-12.11
-15.3
-19.75
-23.33
-23.37
-18.37
-9.23
0.9
8.12
9.88
6.43
0.51
-4.16
-4.99
-1.83
2.91
5.95
5.12
0.71
-4.73
-7.92
-6.62
-1.21
5.89
11.54
13.65
12.16
8.69
5.4
3.62
3.4
3.78
3.73
2.83
1.38
0.17
-0.1
0.67
2.03
3.34
3.94
3.42
2.01
0.48
-0.05
1.33
4.7
9.04
12.47
13.13
10.14
4.2
-2.73
-8.36
-11.13
-10.96
-8.89
-6.4
-4.52
-3.41
-2.59
-1.6
-0.41
0.5
0.48
-0.75
-2.84
-5.07
-6.47
-6.51
-5.26
-3.33
-1.51
-0.39
-0.04
-0.11
-0.12
0.22
0.84
1.4
1.57
1.3
0.79
0.37
0.26
0.41
0.61
0.59
0.31
-0.07
-0.25
0.01
0.66
1.42
1.88
1.74
0.97
-0.16
-1.14
-1.54
-1.16
-0.2
0.87
1.48
1.32
0.39
-0.88
-2.04
-2.68
-2.62
-1.97
-0.93
0.32
1.59
2.41
2.08
-0.18
-4.67
-10.59
-16.22
-19.42
-18.71
-14.09
-7.07
0.12
5.77
9.43
11.73
13.5
14.88
15.03
12.88
8.04
1.49
-4.83
-8.96
-10.04
-8.69
-6.35
-4.67
-4.46
-5.6
-7.19
-8.31
-8.36
-7.49
-6.44
-6.18
-7.54
-10.59
-14.02
-15.6
-13.25
-6.13
4.66
16.35
25.81
30.72
30.31
25.22
17.1
8.1
0.52
-3.58
-2.92
2.35
10.32
17.94
22.09
21.02
15.1
6.53
-1.74
-7.58
-10.2
-10.1
-8.35
-5.91
-3.36
-0.92
1.35
3.4
5.23
6.86
8.11
8.69
8.3
6.69
3.94
0.45
-3.14
-6.33
-8.84
-10.61
-11.73
-12.32
-12.39
-12.01
-11.45
-11.0
-10.28
-8.42
-4.63
1.08
7.45
12.61
14.7
13.31
9.31
4.19
-0.94
-5.87
-10.83
-15.43
-18.09
-16.8
-10.41
-0.07
10.98
18.65
20.22
15.6
7.09
-2.19
-9.6
-13.54
-13.5
-9.72
-3.06
5.06
12.61
17.24
17.37
12.9
5.51
-2.18
-7.82
-10.14
-9.54
-7.42
-5.28
-4.08
-4.04
-4.67
-5.55
-6.32
-6.9
-7.28
-7.91
-9.18
-11.06
-13.12
-14.41
-13.98
-11.35
-6.78
-1.16
4.76
10.73
16.74
22.5
27.14
28.86
26.07
18.44
7.56
-3.34
-10.76
-12.47
-8.51
-0.81
7.58
14.1
17.38
17.04
13.96
9.37
4.38
-0.55
-5.39
-10.44
-15.45
-19.35
-20.64
-18.13
-12.05
-4.18
2.87
6.82
6.9
4.37
1.36
-0.41
-0.31
0.81
1.61
1.23
-0.2
-1.86
-2.82
-2.62
-1.57
-0.26
0.48
0.15
-1.09
-2.72
-4.04
-4.46
-3.83
-2.51
-1.07
-0.06
0.28
0.15
-0.08
-0.05
0.34
0.95
1.46
1.63
1.43
1.05
0.83
0.96
1.39
1.89
2.14
1.94
1.37
0.68
0.19
0.08
0.33
0.73
1.04
1.11
0.96
0.72
0.54
0.49
0.56
0.66
0.69
0.63
0.49
0.33
0.19
0.09
0.02
-0.03
-0.08
-0.14
-0.21
-0.27
-0.28
-0.27
-0.25
-0.27
-0.34
-0.48
-0.65
-0.81
-0.91
-0.95
-0.93
-0.87
-0.8
-0.7
-0.56
-0.37
-0.14
0.13
0.42
0.72
0.96
1.09
1.04
0.83
0.49
0.14
-0.13
-0.26
-0.26
-0.16
-0.03
0.09
0.19
0.24
0.21
0.08
-0.19
-0.53
-0.81
-0.91
-0.73
-0.31
0.2
0.58
0.62
0.29
-0.29
-0.84
-1.05
-0.77
-0.08
0.71
1.18
1.06
0.35
-0.66
-1.46
-1.64
-1.02
0.16
1.48
2.42
2.69
2.33
1.57
0.69
-0.11
-0.57
-0.28
1.4
4.9
10.03
15.63
19.82
20.8
17.75
11.38
3.63
-3.17
-7.45
-8.96
-8.55
-7.48
-6.61
-6.1
-5.61
-4.77
-3.59
-2.46
-1.82
-1.87
-2.53
-3.32
-3.78
-3.64
-2.94
-1.98
-1.17
-0.81
-0.98
-1.51
-2.1
-2.49
-2.55
-2.38
-2.15
-2.05
-2.13
-2.31
-2.45
-2.4
-2.18
-1.9
-1.72
-1.76
-2.08
-2.62
-3.19
-3.56
-3.49
-2.8
-1.58
-0.13
1.02
1.41
0.83
-0.59
-2.29
-3.69
-4.37
-4.24
-3.54
-2.77
-2.44
-2.8
-3.68
-4.46
-4.28
-2.52
0.91
5.46
10.1
13.9
16.2
16.83
15.91
13.62
10.02
5.23
-0.3
-5.7
-9.91
-12.01
-11.73
-9.68
-6.99
-4.75
-3.77
-4.21
-5.64
-7.57
-9.71
-11.88
-13.79
-14.71
-13.69
-9.98
-3.78
3.58
10.01
13.72
14.05
11.79
8.59
6.04
4.82
4.57
4.46
3.85
2.76
1.7
1.24
1.5
2.15
2.63
2.6
1.95
0.91
-0.02
-0.48
-0.33
0.3
1.06
1.56
1.53
0.99
0.18
-0.53
-0.87
-0.75
-0.32
0.17
0.5
0.56
0.41
0.22
0.15
0.28
0.57
0.93
1.21
1.27
1.05
0.54
-0.14
-0.79
-1.21
-1.26
-0.95
-0.4
0.2
0.72
1.11
1.4
1.64
1.85
1.95
1.91
1.7
1.38
1.06
0.82
0.69
0.65
0.65
0.66
0.66
0.66
0.66
0.62
0.55
0.46
0.37
0.28
0.18
0.04
-0.13
-0.31
-0.43
-0.42
-0.22
0.13
0.51
0.76
0.77
0.5
0.04
-0.45
-0.8
-0.91
-0.79
-0.54
-0.27
-0.05
0.09
0.19
0.32
0.47
0.64
0.75
0.78
0.72
0.63
0.58
0.62
0.76
0.97
1.18
1.32
1.32
1.18
0.94
0.71
0.62
0.75
1.06
1.4
1.58
1.43
0.98
0.44
0.13
0.28
0.93
1.87
2.72
3.2
3.16
2.77
2.32
2.09
2.26
2.85
3.88
5.4
7.31
9.23
10.45
10.15
7.81
3.6
-1.62
-6.56
-10.11
-11.73
-11.64
-10.53
-9.1
-7.73
-6.44
-5.12
-3.76
-2.58
-1.92
-1.93
-2.48
-3.17
-3.58
-3.38
-2.67
-1.85
-1.39
-1.63
-2.53
-3.63
-4.34
-4.19
-3.14
-1.62
-0.34
0.12
-0.43
-1.74
-3.2
-4.2
-4.37
-3.75
-2.57
-1.37
-0.54
-0.39
-1.05
-2.51
-4.48
-6.18
-6.49
-4.34
0.65
7.58
14.48
19.01
19.53
15.89
9.65
3.28
-0.87
-1.71
0.26
3.35
5.63
5.99
4.48
2.19
0.36
-0.23
0.26
1.07
1.26
0.3
-1.66
-3.9
-5.6
-6.24
-5.8
-4.58
-3.06
-1.84
-1.64
-2.97
-5.96
-9.97
-13.8
-16.06
-15.99
-13.92
-11.09
-8.96
-8.2
-8.51
-8.66
-7.48
-4.58
-0.51
3.6
6.68
8.07
7.73
5.95
2.97
-0.75
-4.27
-6.49
-6.42
-3.79
0.3
3.72
4.42
1.63
-3.37
-8.34
-10.85
-9.88
-5.84
-0.37
4.79
8.53
10.69
11.91
12.96
14.19
15.34
15.82
15.2
13.41
11.19
9.48
9.03
9.61
10.28
10.07
8.57
6.34
4.54
4.04
4.53
4.63
2.85
-0.98
-5.39
-7.99
-6.83
-2.18
3.75
7.61
6.73
0.54
-8.97
-18.15
-23.35
-22.46
-15.87
-6.49
1.7
5.55
4.61
0.94
-1.79
-1.03
3.29
8.47
10.91
8.5
2.33
-3.78
-5.78
-1.81
6.49
15.1
19.9
19.19
14.21
8.1
4.0
2.87
3.73
4.52
3.59
0.5
-3.95
-8.52
-12.09
-13.99
-14.02
-12.18
-8.68
-4.17
0.23
3.16
3.55
1.08
-3.6
-9.24
-14.52
-18.64
-21.16
-21.72
-19.61
-14.18
-5.48
5.02
14.47
19.77
18.88
12.06
2.23
-6.78
-12.06
-13.35
-12.59
-12.31
-13.46
-14.74
-13.29
-7.1
3.23
14.36
21.69
22.03
14.97
3.43
-8.39
-16.72
-19.76
-17.84
-12.54
-5.89
0.22
4.1
4.72
2.11
-2.17
-5.71
-6.08
-1.91
6.18
16.21
25.71
32.82
36.64
37.04
34.06
27.59
17.87
5.55
-7.67
-19.88
-29.3
-34.85
-36.13
-33.12
-26.06
-15.28
-1.93
11.95
23.46
29.72
29.16
22.47
12.42
2.73
-3.37
-4.5
-1.33
3.6
7.46
8.07
4.72
-1.75
-9.52
-16.37
-20.3
-20.15
-15.75
-8.06
1.2
9.83
15.92
18.29
17.03
13.48
9.95
8.56
10.71
15.86
21.32
23.29
18.39
5.57
-12.86
-31.95
-45.85
-50.74
-46.02
-34.55
-20.65
-8.5
-0.3
3.64
4.48
4.06
3.93
4.85
6.82
8.92
9.73
7.92
3.05
-3.85
-10.14
-12.61
-9.25
-0.41
11.16
21.22
26.23
24.91
18.57
10.41
3.62
0.15
0.01
1.47
2.5
1.22
-2.87
-9.23
-16.06
-21.18
-22.81
-20.17
-13.89
-5.8
1.84
7.45
10.54
11.47
10.63
8.09
3.94
-1.27
-5.92
-7.95
-6.01
-0.8
4.95
7.68
5.2
-1.91
-10.09
-14.78
-13.14
-5.4
5.02
13.61
17.08
14.99
9.56
4.02
0.86
0.53
1.76
2.6
2.06
0.54
-0.44
0.49
3.38
7.12
9.88
10.6
9.59
8.22
7.53
7.74
7.77
6.24
2.57
-2.82
-8.11
-11.73
-12.54
-10.8
-7.62
-4.6
-2.85
-2.69
-3.84
-5.33
-6.18
-5.76
-3.81
-0.84
2.26
4.46
5.3
4.86
4.05
3.68
4.27
5.54
6.48
5.76
2.44
-3.14
-9.35
-13.67
-14.55
-12.09
-8.13
-5.37
-5.25
-7.05
-8.39
-7.25
-2.98
2.5
6.51
6.96
3.98
-0.55
-4.23
-5.75
-5.53
-4.56
-3.46
-1.5
2.43
8.72
16.17
22.33
25.24
24.63
22.3
20.99
22.37
25.64
28.25
27.46
22.06
13.04
2.78
-6.33
-13.27
-17.74
-19.87
-19.46
-16.25
-10.75
-4.71
-0.96
-1.84
-7.76
-16.55
-24.22
-26.87
-22.63
-12.54
0.22
11.69
18.79
20.32
16.95
10.41
2.9
-4.05
-9.59
-13.68
-16.66
-18.8
-20.09
-20.22
-18.89
-16.07
-12.2
-8.24
-5.27
-3.94
-3.93
-4.07
-3.04
-0.37
3.18
5.82
6.09
3.84
0.37
-2.06
-2.05
0.37
3.56
5.25
3.78
-0.81
-6.76
-11.52
-12.67
-9.19
-1.52
8.33
17.71
23.76
24.36
19.17
9.76
-0.33
-7.31
-8.53
-4.28
2.65
8.05
8.88
5.04
-0.91
-5.16
-5.47
-2.34
1.52
2.9
0.66
-3.94
-8.25
-10.38
-10.32
-9.47
-9.24
-9.37
-8.69
-5.98
-1.69
2.17
3.09
0.4
-4.28
-7.99
-7.82
-2.76
5.94
15.27
22.06
23.78
19.75
10.83
-0.95
-12.62
-21.41
-24.92
-22.45
-15.04
-5.24
3.59
8.91
9.8
7.37
3.78
1.3
1.17
3.25
6.3
8.92
10.46
11.66
14.15
18.56
24.0
27.99
27.62
21.56
11.18
-0.2
-8.91
-12.89
-12.64
-10.12
-7.3
-4.93
-2.43
0.96
5.19
8.55
9.11
6.11
0.97
-2.98
-2.65
2.91
11.26
17.52
16.69
6.7
-10.46
-29.25
-43.32
-48.4
-44.13
-34.06
-23.09
-14.91
-9.87
-5.53
1.15
11.03
21.46
27.85
26.2
16.37
2.36
-9.39
-13.68
-9.14
1.37
12.24
18.7
18.72
13.7
7.14
2.66
2.65
6.97
13.58
19.25
20.89
16.86
7.5
-4.78
-16.83
-26.32
-32.55
-35.86
-36.69
-34.5
-28.32
-18.18
-6.0
4.41
9.79
9.17
5.16
1.9
2.42
6.6
11.41
13.51
11.72
8.38
7.6
12.39
22.23
32.83
38.98
37.38
28.68
16.74
6.27
0.1
-1.82
-1.57
-1.44
-2.36
-3.9
-4.98
-5.07
-4.75
-5.21
-7.36
-11.25
-15.86
-19.72
-21.83
-21.52
-18.95
-14.43
-8.72
-3.07
0.85
1.39
-2.26
-9.12
-16.77
-21.88
-21.88
-15.92
-5.19
7.71
19.51
27.66
30.49
27.89
20.87
11.32
1.65
-6.27
-11.44
-13.76
-13.9
-12.49
-9.86
-6.44
-2.95
-0.31
0.67
0.43
0.09
1.11
3.65
6.31
7.0
4.63
0.34
-2.69
-1.5
4.71
13.58
20.72
22.25
17.17
7.36
-3.44
-11.94
-16.64
-18.11
-17.98
-17.56
-17.4
-17.21
-16.22
-13.44
-8.18
-0.61
8.02
15.16
18.3
15.65
7.75
-3.01
-13.15
-19.81
-21.91
-20.25
-16.61
-12.63
-8.95
-5.36
-1.46
2.71
6.29
8.23
8.24
7.12
6.49
7.81
11.32
15.45
17.65
15.69
9.48
1.22
-5.66
-7.88
-4.28
3.66
12.5
18.47
19.57
15.9
9.63
3.59
-0.34
-1.82
-1.56
-0.66
0.37
1.85
4.21
7.31
10.1
11.02
9.01
4.53
-1.04
-6.39
-11.43
-17.12
-23.93
-30.79
-34.86
-33.2
-24.96
-12.32
0.49
9.76
14.19
15.75
17.2
20.02
23.43
24.77
21.73
14.56
5.75
-1.6
-5.44
-6.1
-5.54
-5.27
-5.74
-6.0
-4.98
-2.78
-0.68
0.05
-0.93
-2.6
-3.36
-2.26
0.73
4.39
7.46
9.3
9.69
8.8
6.62
3.22
-1.26
-5.72
-8.98
-10.39
-10.09
-9.13
-8.53
-8.24
-7.06
-3.79
1.88
8.41
13.22
14.37
10.98
4.14
-4.0
-10.77
-14.24
-13.47
-9.11
-3.38
0.37
-1.02
-8.56
-20.53
-32.45
-39.6
-39.19
-31.81
-20.98
-10.88
-4.24
-0.94
0.82
2.96
5.77
8.19
8.64
6.4
2.32
-1.61
-3.0
-0.6
5.05
12.16
18.13
21.06
20.32
17.0
12.97
10.17
9.31
9.97
10.78
10.61
9.07
6.91
5.57
6.04
8.55
12.02
15.15
16.63
15.95
13.41
9.8
6.11
2.56
-0.76
-4.13
-7.28
-9.39
-9.35
-6.31
-0.44
6.94
13.53
17.13
16.51
12.32
6.6
2.14
0.97
3.24
7.23
10.53
11.61
10.77
10.09
11.84
16.72
22.92
26.46
23.31
11.98
-5.14
-22.66
-34.51
-36.82
-30.09
-18.6
-8.65
-5.14
-9.53
-19.6
-31.04
-39.61
-42.82
-40.82
-35.2
-27.92
-20.21
-12.82
-6.44
-2.03
-0.63
-2.53
-6.56
-10.18
-10.48
-5.4
5.07
18.41
31.0
39.35
41.45
37.28
28.77
18.62
9.53
3.7
2.28
5.18
11.06
17.64
22.57
24.15
21.65
15.77
8.15
0.73
-4.83
-7.74
-8.12
-6.73
-4.64
-2.79
-1.86
-2.06
-3.26
-4.84
-6.2
-6.83
-6.47
-5.29
-3.76
-2.49
-1.93
-2.25
-3.01
-3.39
-2.87
-1.17
1.55
4.63
7.22
8.49
7.57
3.58
-3.94
-14.52
-25.9
-34.55
-37.05
-31.78
-20.43
-7.23
3.21
8.0
7.56
4.67
2.46
2.44
4.0
5.17
4.58
2.71
1.31
2.67
7.57
14.85
21.41
23.71
19.42
8.5
-6.11
-19.57
-27.32
-26.95
-19.64
-9.5
-1.05
3.13
3.63
2.92
2.9
3.38
1.82
-4.14
-14.53
-26.66
-36.14
-39.48
-35.89
-27.21
-16.25
-5.36
4.59
13.45
20.59
24.55
23.64
17.77
9.02
1.47
-0.86
4.01
14.77
27.52
37.34
40.71
36.6
26.55
13.62
0.88
-9.71
-17.18
-20.92
-20.38
-15.67
-7.86
0.68
6.75
7.87
3.96
-2.67
-8.61
-11.12
-9.43
-4.85
-0.11
2.49
1.54
-2.73
-9.15
-16.08
-21.45
-23.55
-21.01
-13.66
-2.97
8.39
17.62
23.06
24.57
23.29
20.28
15.97
10.14
3.02
-4.19
-9.13
-9.5
-3.99
6.29
17.65
25.42
26.18
19.33
7.62
-4.15
-11.68
-13.19
-9.81
-4.69
-0.58
1.19
1.21
0.9
1.33
2.21
2.58
1.51
-0.8
-3.46
-5.47
-6.61
-7.34
-8.63
-10.6
-12.44
-12.65
-10.22
-5.21
0.74
5.28
6.12
2.12
-6.17
-16.53
-25.72
-30.69
-29.48
-21.62
-8.65
6.39
19.69
27.85
28.85
23.21
13.3
2.76
-5.19
-9.17
-9.49
-7.54
-4.62
-1.44
2.03
6.08
10.37
14.3
17.15
18.32
17.23
13.0
4.71
-7.92
-23.38
-37.98
-47.12
-47.23
-37.57
-21.26
-3.49
11.08
20.07
24.15
25.51
26.13
26.3
25.16
21.62
15.78
9.36
4.36
2.57
4.59
9.76
16.02
20.64
20.87
14.98
3.47
-10.55
-22.44
-27.81
-25.07
-15.82
-3.96
6.78
14.67
19.76
22.68
22.99
18.53
7.07
-11.23
-33.0
-51.76
-61.29
-58.26
-43.69
-22.19
0.29
18.73
30.71
35.93
35.48
31.28
25.38
19.55
14.89
11.61
9.15
6.79
4.13
1.42
-0.46
-1.09
-0.65
-0.54
-2.19
-6.13
-11.3
-15.6
-16.82
-13.88
-7.48
0.31
6.91
10.51
10.39
7.37
3.0
-1.11
-3.82
-4.97
-4.98
-4.39
-3.53
-2.46
-1.45
-1.26
-3.01
-7.36
-13.9
-20.35
-23.81
-21.84
-14.47
-4.01
5.87
12.02
13.36
10.88
6.88
3.05
-0.06
-2.99
-5.86
-7.98
-7.44
-2.69
5.84
15.79
23.42
25.61
21.62
13.44
4.77
-1.02
-2.31
0.17
4.29
7.55
8.42
6.99
4.39
2.11
0.89
0.73
0.58
-0.61
-3.42
-7.43
-11.39
-13.97
-14.35
-12.91
-10.52
-8.58
-7.69
-8.17
-9.74
-12.08
-15.02
-18.16
-20.93
-22.65
-22.58
-20.39
-16.12
-9.95
-2.02
7.35
17.68
27.57
35.05
38.01
35.21
26.93
15.15
2.86
-7.16
-13.17
-14.84
-12.79
-8.06
-1.54
6.07
13.63
19.82
22.94
21.87
16.47
8.18
-0.87
-8.63
-14.2
-17.64
-19.66
-20.39
-19.33
-15.53
-8.66
0.19
8.65
14.16
15.36
13.11
10.01
9.1
11.6
16.4
20.2
19.81
13.97
4.17
-6.12
-13.29
-15.39
-12.79
-7.5
-1.77
3.04
6.59
8.63
8.96
7.17
3.36
-1.88
-7.34
-11.83
-14.55
-15.37
-14.64
-12.75
-10.2
-7.6
-5.59
-4.16
-2.78
-0.35
4.14
10.49
17.6
23.16
25.39
23.64
18.9
12.75
6.55
1.12
-3.49
-7.19
-9.92
-11.84
-13.33
-15.13
-17.8
-20.84
-22.66
-21.54
-17.29
-11.61
-7.71
-8.16
-13.42
-21.13
-26.94
-27.4
-21.64
-11.82
-1.76
5.55
9.4
11.19
13.26
16.66
20.72
23.34
22.77
18.81
12.97
7.88
5.72
7.34
12.16
18.0
21.97
22.05
17.52
9.59
0.47
-7.47
-13.19
-16.53
-17.99
-17.82
-15.38
-10.07
-2.09
6.64
13.24
14.98
11.31
4.25
-3.02
-7.76
-9.33
-8.93
-8.16
-7.84
-7.49
-6.12
-3.42
-0.01
3.13
5.36
6.98
8.87
11.08
12.42
10.93
5.52
-3.02
-11.81
-17.94
-19.76
-17.36
-12.42
-6.48
-0.25
5.91
11.13
13.75
11.64
3.74
-8.36
-20.79
-28.73
-29.14
-22.32
-11.42
-0.85
6.27
9.31
10.13
11.41
15.01
20.94
27.11
30.85
30.27
25.26
17.4
8.98
1.98
-2.75
-5.32
-6.42
-6.28
-5.02
-2.87
-0.44
1.51
2.22
1.8
1.19
1.37
2.61
4.29
5.34
5.14
3.95
2.57
1.56
0.91
-0.27
-2.31
-4.53
-5.58
-4.62
-2.62
-2.2
-6.07
-14.59
-24.8
-31.75
-30.87
-21.52
-7.24
5.77
11.98
9.5
0.95
-8.57
-14.11
-13.38
-7.44
0.65
7.52
11.1
10.99
8.01
3.58
-0.86
-4.14
-5.34
-3.62
0.89
7.05
12.93
16.6
16.9
13.86
8.55
2.29
-4.11
-9.97
-14.75
-17.23
-16.09
-10.55
-1.01
10.39
20.55
26.99
28.4
25.14
19.04
11.99
5.47
0.03
-4.37
-7.83
-10.41
-12.01
-12.24
-10.73
-7.55
-3.18
0.95
3.02
1.56
-3.85
-11.96
-20.36
-26.43
-28.39
-26.14
-20.95
-14.4
-7.76
-1.35
4.94
11.47
17.94
23.73
28.2
30.79
31.35
29.92
26.6
21.4
14.38
5.6
-4.15
-13.22
-19.54
-21.1
-16.89
-7.76
3.73
13.86
19.27
18.74
13.67
7.36
3.19
3.0
6.11
9.89
11.08
7.9
0.89
-7.03
-12.49
-12.96
-8.72
-2.3
2.37
2.17
-3.72
-13.65
-23.88
-30.5
-30.8
-24.43
-13.26
-0.27
11.95
21.42
26.62
26.21
18.97
5.06
-13.04
-30.15
-40.14
-38.8
-26.19
-7.38
9.98
18.85
16.84
6.72
-5.15
-12.73
-13.52
-9.15
-3.96
-1.18
-1.51
-2.69
-1.88
2.12
8.27
13.56
15.37
12.57
6.29
-1.14
-6.9
-9.0
-6.51
0.45
10.65
21.62
29.71
31.87
26.81
16.2
4.12
-5.09
-8.89
-8.19
-6.08
-5.99
-9.32
-15.25
-20.98
-23.81
-22.55
-17.73
-11.3
-5.3
-0.9
1.93
3.83
5.24
5.9
4.97
1.7
-3.88
-10.35
-15.64
-17.25
-13.96
-6.2
3.58
11.74
15.44
13.73
8.4
2.58
-0.69
-0.33
2.67
5.97
7.51
7.01
5.37
3.96
3.28
2.38
-0.23
-5.04
-10.75
-14.51
-13.43
-6.87
3.18
12.68
17.37
15.09
7.03
-3.11
-11.19
-14.61
-13.91
-11.47
-9.92
-10.08
-10.41
-8.36
-2.68
5.06
11.02
11.28
4.88
-5.12
-12.85
-12.95
-3.57
12.24
28.47
39.24
41.74
37.3
29.52
22.01
15.97
10.15
2.77
-6.17
-14.11
-17.69
-14.86
-7.47
-0.17
2.18
-2.4
-11.24
-18.7
-19.57
-12.18
0.83
13.83
21.74
22.66
18.3
12.03
6.51
2.21
-2.15
-7.96
-15.44
-22.94
-27.54
-27.01
-21.05
-12.19
-4.61
-2.52
-7.8
-18.79
-31.16
-39.4
-39.88
-31.81
-17.62
-0.88
15.05
28.16
37.89
44.06
46.06
43.14
35.19
23.34
10.32
-0.83
-7.75
-9.64
-7.05
-1.54
5.31
11.9
16.52
17.38
13.26
4.1
-8.24
-20.17
-27.71
-28.29
-21.88
-10.92
0.74
9.74
14.31
14.34
10.45
4.1
-3.14
-9.03
-11.62
-10.18
-5.92
-1.77
-0.78
-4.19
-10.22
-15.07
-15.21
-9.7
-0.69
7.91
12.86
13.4
10.9
7.39
4.1
0.96
-2.74
-7.09
-10.92
-12.53
-10.66
-5.29
2.08
8.9
12.73
12.38
8.26
2.7
-1.39
-1.41
3.57
11.99
20.77
25.93
24.47
15.56
1.09
-15.08
-28.32
-35.05
-34.15
-27.16
-17.44
-8.45
-2.37
0.29
0.23
-1.47
-3.88
-6.53
-8.69
-9.48
-8.25
-4.9
-0.25
4.54
8.46
11.3
12.93
13.1
11.37
7.49
2.3
-2.56
-4.93
-3.88
-0.04
4.8
8.77
10.8
11.01
10.17
9.04
7.98
6.97
6.12
6.02
7.42
10.21
13.14
13.8
10.1
1.72
-9.36
-19.44
-24.75
-23.64
-17.21
-8.92
-2.54
-0.51
-2.45
-5.82
-7.42
-5.16
0.69
8.22
14.81
18.41
18.53
15.96
12.02
7.68
2.95
-2.78
-9.57
-16.37
-21.24
-22.61
-20.05
-15.23
-10.66
-8.5
-9.11
-10.8
-11.12
-8.22
-1.85
6.4
14.27
19.9
22.35
21.35
17.43
11.73
5.72
1.26
-0.62
0.09
2.65
5.91
8.9
11.05
11.7
9.72
4.19
-5.21
-17.23
-28.61
-35.61
-35.92
-29.45
-18.66
-7.21
2.29
9.15
14.06
17.74
19.87
19.43
15.74
9.44
2.91
-0.76
0.56
6.63
15.45
23.41
27.34
24.98
15.98
1.93
-13.64
-26.34
-32.47
-29.98
-19.81
-5.35
8.76
18.21
20.97
17.51
10.07
1.49
-5.83
-10.96
-14.09
-15.92
-16.99
-17.35
-16.64
-14.46
-10.79
-6.38
-2.54
-0.44
-0.39
-1.89
-3.46
-3.91
-2.6
0.02
2.94
4.95
5.43
4.59
3.06
1.89
1.74
2.75
4.54
6.34
7.44
7.56
6.83
5.76
4.93
4.73
5.2
6.1
7.02
7.61
7.69
7.37
6.93
6.67
6.77
7.13
7.35
6.92
5.43
2.8
-0.68
-4.41
-7.71
-10.06
-11.31
-11.67
-11.69
-12.0
-13.12
-15.37
-18.65
-22.55
-26.37
-29.19
-30.27
-29.31
-26.65
-23.27
-20.58
-19.84
-21.52
-24.83
-27.83
-28.08
-23.72
-14.43
-1.72
11.62
22.71
29.47
31.67
30.38
27.57
25.22
24.58
25.98
28.64
30.97
30.97
26.94
18.51
7.2
-3.75
-10.6
-10.75
-4.06
6.71
17.05
22.74
21.77
15.03
6.01
-1.37
-4.29
-2.07
3.97
11.63
18.39
22.17
21.14
14.25
1.43
-15.16
-31.67
-43.49
-47.15
-42.17
-31.0
-17.83
-6.41
1.71
7.24
11.74
16.05
19.33
19.87
16.65
10.46
4.05
0.54
1.85
7.65
15.24
21.38
23.72
21.85
17.35
12.76
10.06
9.4
9.52
8.34
4.69
-0.92
-6.36
-9.12
-7.98
-3.75
0.83
2.77
0.42
-5.51
-12.46
-17.49
-18.72
-16.41
-12.5
-9.32
-8.43
-9.85
-12.35
-14.22
-14.79
-14.18
-13.33
-13.06
-13.18
-12.7
-10.79
-7.21
-3.16
-0.55
-0.45
-2.34
-4.1
-3.37
0.85
7.08
12.39
14.09
11.45
6.54
2.75
2.81
7.1
13.41
18.53
19.82
16.96
11.58
6.52
4.33
5.88
10.54
16.16
20.24
20.83
17.39
11.01
4.12
-0.92
-2.6
-1.22
1.52
3.43
3.1
0.59
-2.79
-5.24
-5.97
-5.31
-4.39
-4.46
-5.88
-8.0
-9.67
-9.92
-8.51
-5.99
-3.48
-1.84
-1.61
-2.61
-4.06
-5.18
-5.38
-4.56
-3.1
-1.63
-0.69
-0.54
-1.03
-1.79
-2.39
-2.55
-2.23
-1.6
-0.92
-0.4
-0.17
-0.21
-0.41
-0.69
-0.93
-1.1
-1.17
-1.17
-1.14
-1.12
-1.12
-1.13
-1.12
-1.06
-0.93
-0.76
-0.57
-0.4
-0.3
-0.29
-0.36
-0.46
-0.52
-0.47
-0.3
-0.09
0.02
-0.08
-0.38
-0.75
-1.0
-0.96
-0.64
-0.18
0.2
0.36
0.28
0.1
-0.02
0.02
0.2
0.4
0.48
0.36
0.09
-0.19
-0.34
-0.28
-0.03
0.29
0.56
0.67
0.63
0.54
0.54
0.79
1.31
2.03
2.76
3.29
3.47
3.27
2.82
2.37
2.16
2.35
2.89
3.57
4.13
4.35
4.25
4.06
4.06
4.45
5.23
6.13
6.9
7.36
7.54
7.56
7.42
6.83
5.32
2.43
-1.97
-7.42
-13.13
-18.09
-21.69
-23.67
-24.37
-24.26
-23.61
-22.37
-20.24
-17.33
-14.78
-14.18
-16.86
-22.62
-29.0
-32.17
-28.68
-17.28
-0.15
17.98
31.67
37.6
35.44
27.68
17.98
9.54
4.15
2.36
4.07
8.53
14.65
20.8
24.85
25.06
20.67
12.58
3.1
-4.52
-7.58
-5.09
1.69
9.74
15.26
16.0
11.86
5.17
-0.21
-1.07
3.52
11.69
19.36
22.42
18.24
7.45
-6.53
-18.75
-24.91
-23.16
-15.19
-5.24
2.01
3.45
-0.95
-8.46
-15.44
-18.79
-17.18
-11.03
-1.81
8.82
18.93
26.55
29.75
27.18
18.78
6.46
-6.56
-16.87
-22.03
-21.72
-17.18
-10.55
-4.15
0.56
3.0
3.46
2.89
2.57
3.31
4.98
6.03
4.48
-1.28
-10.98
-22.21
-31.28
-35.28
-33.37
-27.02
-18.72
-10.59
-3.36
3.29
9.51
14.35
16.12
13.78
8.14
1.99
-1.46
-0.3
4.54
10.23
13.71
13.27
9.45
4.31
-0.09
-2.75
-3.96
-4.61
-5.33
-6.1
-6.26
-5.32
-3.41
-1.45
-0.61
-1.69
-4.53
-8.06
-10.58
-10.8
-8.53
-4.66
-0.96
1.06
0.67
-1.74
-5.13
-8.41
-10.86
-11.88
-10.86
-7.11
-0.44
8.18
16.46
21.62
21.67
16.58
8.38
0.08
-5.99
-9.06
-10.06
-10.73
-12.29
-15.03
-18.31
-21.0
-22.0
-20.56
-16.74
-11.71
-7.21
-4.58
-4.09
-4.49
-3.89
-1.23
3.23
7.96
11.16
12.14
11.51
10.52
10.01
9.91
9.19
6.97
3.32
-0.85
-4.05
-4.9
-2.86
1.92
8.58
15.44
20.22
20.7
15.73
6.32
-4.66
-13.07
-15.54
-11.16
-1.62
9.6
18.87
23.53
22.97
18.02
10.63
3.19
-2.24
-4.55
-3.54
-0.16
3.93
7.3
9.04
9.31
9.23
9.87
11.39
12.87
12.68
9.52
3.12
-5.12
-12.89
-17.82
-18.61
-15.33
-9.49
-3.29
1.2
2.76
1.5
-1.48
-4.04
-4.48
-1.96
2.83
7.98
11.42
12.05
10.05
7.18
5.15
4.85
5.9
7.0
7.0
5.76
4.1
3.23
3.71
4.93
5.95
5.67
3.92
1.07
-2.02
-4.45
-5.65
-5.21
-3.02
0.51
4.64
8.54
11.15
11.45
8.4
1.57
-8.71
-20.81
-31.61
-37.64
-36.72
-29.05
-17.65
-6.83
0.06
1.91
0.44
-1.38
-1.52
0.42
2.99
4.37
3.92
2.02
0.03
-1.24
-1.88
-2.51
-3.49
-4.44
-4.09
-1.73
2.03
5.39
6.55
4.9
1.61
-0.76
-0.06
4.48
11.56
19.0
24.65
27.43
27.26
24.24
18.76
11.19
2.69
-4.85
-9.52
-10.31
-8.76
-8.16
-11.79
-20.72
-32.59
-42.14
-44.28
-36.71
-21.21
-2.85
12.75
22.02
24.68
22.79
19.31
16.18
14.02
12.77
11.92
11.32
10.64
9.73
8.36
6.62
4.89
3.41
2.05
0.17
-2.64
-6.09
-8.97
-9.68
-7.47
-3.09
1.7
4.95
5.44
3.65
0.87
-1.56
-2.85
-2.65
-1.11
1.41
4.4
7.07
8.69
8.64
6.66
2.94
-2.08
-7.7
-13.25
-18.07
-21.52
-22.98
-22.06
-18.93
-14.41
-9.73
-6.42
-5.41
-6.77
-9.42
-11.66
-11.86
-9.24
-4.3
1.16
5.2
6.76
5.91
3.58
1.08
-0.55
-1.01
-0.36
1.31
3.99
7.8
12.4
16.85
19.58
19.44
15.93
9.98
3.43
-1.77
-4.36
-4.37
-3.09
-1.89
-1.7
-2.07
-2.08
-0.65
1.97
4.67
5.74
4.3
0.51
-4.38
-8.67
-11.01
-10.97
-8.95
-5.59
-1.64
2.34
5.99
8.88
10.94
12.05
12.34
11.77
10.45
8.57
6.72
5.6
5.44
5.71
5.56
4.48
2.86
1.85
2.6
4.92
7.28
7.05
2.75
-5.21
-14.15
-20.47
-21.67
-17.63
-11.04
-5.83
-5.38
-10.45
-19.4
-29.07
-36.08
-38.43
-35.64
-28.7
-19.44
-9.77
-1.35
4.74
8.14
9.05
8.19
6.57
4.9
3.71
3.27
3.76
5.38
8.57
13.79
20.49
27.35
32.15
32.52
26.81
14.88
-1.42
-18.66
-32.78
-40.54
-40.33
-32.88
-20.54
-6.38
7.15
18.25
26.02
30.05
30.4
27.86
23.61
19.27
15.91
14.15
14.06
15.45
17.83
20.49
22.16
21.24
16.54
8.4
-1.21
-9.19
-12.96
-11.91
-7.77
-3.59
-1.94
-3.43
-6.82
-9.9
-11.09
-10.29
-8.46
-7.13
-7.0
-7.85
-8.69
-8.55
-7.18
-5.08
-3.29
-2.52
-3.03
-4.23
-5.25
-5.33
-4.31
-2.62
-1.02
-0.36
-0.77
-1.97
-3.16
-3.69
-3.24
-2.0
-0.36
1.4
3.2
5.09
6.94
8.44
9.06
8.46
6.69
4.18
1.59
-0.53
-1.88
-2.53
-2.54
-2.04
-1.2
-0.12
0.92
1.63
1.88
1.34
-0.28
-3.02
-6.39
-9.3
-10.2
-7.99
-2.98
2.66
5.43
2.35
-7.01
-20.02
-31.85
-38.13
-37.3
-30.97
-22.63
-15.27
-9.72
-5.04
0.13
6.13
11.61
14.95
15.73
15.25
15.69
18.36
22.17
24.27
21.96
14.39
3.71
-6.04
-11.22
-9.81
-2.4
8.34
18.53
24.47
23.62
15.6
2.23
-12.93
-25.61
-32.39
-31.9
-25.02
-14.32
-3.08
6.2
12.12
14.63
14.76
13.95
13.61
14.31
15.4
15.41
13.01
7.68
0.7
-5.47
-8.8
-8.24
-4.22
1.6
7.4
11.82
14.25
14.43
12.54
9.02
4.95
1.8
0.88
2.74
6.56
10.63
13.02
12.56
8.86
2.86
-3.71
-9.06
-11.91
-11.64
-8.46
-3.12
3.21
9.17
13.4
14.9
13.46
9.78
4.9
-0.16
-5.02
-9.69
-14.15
-17.84
-19.06
-16.08
-7.99
3.96
16.02
23.54
23.31
15.32
2.71
-9.6
-17.68
-20.05
-18.35
-15.82
-15.47
-18.9
-25.64
-33.73
-40.79
-44.72
-44.45
-39.63
-30.69
-18.58
-4.72
8.93
19.99
26.2
25.88
19.14
7.87
-4.4
-13.75
-17.42
-14.83
-7.38
2.17
11.01
17.13
19.72
19.06
16.18
12.65
10.07
9.44
10.83
13.37
15.86
17.37
17.68
17.14
16.33
15.44
14.28
12.65
10.62
8.87
8.21
9.18
11.69
15.2
19.27
23.5
27.43
29.49
27.12
17.53
-0.08
-23.14
-45.47
-59.85
-61.13
-48.7
-27.42
-5.04
10.99
16.65
12.22
1.02
-12.44
-24.38
-32.37
-35.33
-33.25
-26.92
-17.92
-8.23
0.58
7.89
13.45
16.93
17.39
13.89
6.51
-2.72
-10.16
-12.33
-7.57
2.49
14.02
22.68
26.52
26.0
23.25
20.39
17.88
15.2
11.48
6.87
2.82
0.39
-0.28
-0.19
-0.78
-2.71
-5.63
-8.72
-11.4
-13.62
-15.7
-17.48
-18.22
-16.94
-13.29
-7.66
-1.09
5.34
10.7
14.38
15.86
15.02
12.43
9.17
6.85
6.42
7.35
8.01
6.49
2.3
-3.01
-6.7
-6.5
-2.46
2.66
5.24
2.77
-4.29
-12.31
-16.68
-14.45
-5.77
5.69
15.2
19.53
18.52
14.54
10.76
9.11
9.3
9.7
9.01
6.77
3.71
0.4
-3.4
-8.48
-15.23
-22.62
-28.09
-28.78
-23.42
-13.37
-2.23
5.79
8.56
6.91
4.05
3.44
6.34
11.27
15.07
14.94
10.25
2.31
-6.99
-16.53
-26.41
-36.77
-46.43
-52.19
-50.34
-39.26
-20.85
-0.29
16.63
26.46
29.46
28.9
28.21
28.74
29.09
26.9
20.84
11.92
3.37
-1.42
-0.4
6.02
15.41
24.67
30.97
32.26
27.77
17.6
3.22
-12.58
-26.26
-34.51
-35.51
-30.03
-20.9
-11.55
-4.27
0.47
3.35
5.24
6.24
5.91
3.58
-0.67
-5.99
-11.6
-17.01
-22.04
-26.13
-28.33
-27.25
-22.2
-13.74
-3.73
5.19
11.1
13.36
12.6
10.43
8.35
7.35
7.68
9.27
11.5
14.09
16.37
17.77
18.18
17.94
18.0
19.39
22.77
27.82
33.19
36.4
35.06
28.11
16.24
2.25
-10.66
-20.02
-25.37
-27.91
-29.63
-31.73
-33.77
-34.08
-30.93
-23.78
-13.96
-4.38
2.2
4.53
3.39
0.88
-1.33
-2.53
-3.24
-4.44
-6.45
-8.54
-9.53
-8.65
-6.09
-2.98
-0.41
1.03
1.56
1.7
1.73
1.69
1.36
0.77
0.21
0.14
0.57
1.27
1.74
1.79
1.4
0.79
0.3
0.17
0.42
0.92
1.51
1.96
2.15
2.01
1.57
0.99
0.4
-0.02
-0.24
-0.28
-0.25
-0.28
-0.39
-0.55
-0.63
-0.54
-0.24
0.18
0.6
0.85
0.86
0.66
0.32
0.03
-0.13
-0.11
0.01
0.11
0.02
-0.3
-0.77
-1.21
-1.37
-1.15
-0.61
-0.04
0.21
-0.14
-1.03
-2.12
-2.89
-2.92
-2.17
-0.96
0.11
0.43
-0.3
-1.97
-4.01
-5.76
-6.5
-6.01
-4.62
-3.08
-2.26
-3.01
-5.32
-8.43
-11.04
-12.02
-10.87
-8.03
-4.44
-1.01
1.62
2.92
2.83
1.33
-1.1
-3.64
-5.28
-5.2
-3.26
-0.2
2.64
4.05
3.88
3.11
3.42
6.34
12.44
20.62
28.86
34.78
36.49
33.21
25.72
15.84
6.25
-0.83
-3.97
-3.66
-1.9
-1.26
-3.63
-8.72
-13.88
-15.66
-11.75
-2.83
7.87
15.91
18.04
14.17
7.2
1.29
-0.43
2.05
6.17
8.53
6.65
0.61
-7.26
-13.78
-16.82
-16.21
-13.59
-11.44
-11.38
-13.3
-15.67
-16.93
-16.23
-13.86
-10.8
-7.86
-5.01
-2.08
0.86
3.21
3.8
1.86
-2.37
-7.5
-11.83
-13.94
-13.15
-10.0
-5.33
-0.46
3.51
6.03
7.23
7.9
8.98
11.02
13.57
15.67
16.56
16.35
15.28
13.5
10.68
5.96
-0.85
-8.65
-15.21
-18.34
-16.98
-12.27
-6.35
-1.12
2.68
5.28
6.79
6.35
2.76
-4.21
-12.49
-18.29
-17.87
-10.43
1.5
12.97
19.96
21.1
18.21
14.48
12.65
13.44
15.82
18.18
19.07
17.62
13.68
7.32
-0.38
-6.97
-9.79
-7.31
-0.18
8.18
13.68
13.61
8.59
1.65
-3.77
-6.49
-7.99
-10.76
-16.0
-22.16
-25.47
-22.83
-13.57
-0.64
11.22
17.63
17.07
10.68
1.4
-7.73
-14.9
-19.49
-21.49
-20.87
-17.48
-11.63
-5.04
0.09
1.86
-0.1
-3.86
-6.58
-5.53
-0.34
6.93
12.66
13.73
9.44
2.14
-4.05
-6.01
-3.12
2.72
8.21
10.47
8.22
2.15
-6.03
-13.81
-18.95
-19.98
-16.27
-8.8
0.49
9.19
15.6
19.18
20.58
20.63
19.73
17.38
13.24
8.53
5.33
5.55
8.92
12.5
12.29
6.07
-4.92
-16.14
-22.33
-21.25
-15.04
-9.02
-7.85
-12.84
-20.66
-25.76
-23.63
-13.27
2.39
18.04
28.78
31.94
27.6
18.0
6.49
-3.59
-9.91
-12.01
-10.61
-7.11
-2.64
3.09
10.97
20.89
30.88
36.59
33.43
19.53
-2.51
-26.0
-43.05
-48.36
-41.55
-27.11
-11.66
-0.7
3.84
3.26
0.65
-1.4
-1.85
-1.2
-0.69
-1.03
-2.22
-3.54
-4.27
-4.2
-3.3
-2.3
-1.71
-1.84
-2.62
-3.69
-4.56
-5.09
-5.2
-5.01
-4.3
-2.81
-0.18
3.92
9.46
16.14
23.46
30.13
34.42
34.26
28.36
17.08
3.0
-9.57
-16.54
-15.54
-7.26
4.89
16.1
22.38
21.88
15.47
6.07
-3.22
-10.14
-14.22
-15.98
-16.4
-15.8
-14.15
-11.27
-7.6
-4.14
-2.27
-2.92
-5.73
-9.37
-12.14
-12.64
-10.9
-7.53
-3.78
-0.51
1.93
3.28
3.77
3.45
2.51
1.15
-0.52
-2.53
-4.56
-6.08
-6.23
-4.44
-0.89
3.5
7.25
9.12
8.67
6.58
4.02
2.08
1.21
1.06
0.98
0.47
-0.48
-1.44
-1.91
-1.68
-1.1
-0.59
-0.53
-1.07
-1.84
-2.52
-2.68
-2.21
-1.28
-0.18
0.75
1.28
1.42
1.29
1.1
1.0
1.04
1.15
1.2
1.12
0.9
0.61
0.37
0.24
0.26
0.34
0.37
0.26
-0.03
-0.47
-0.95
-1.32
-1.51
-1.48
-1.26
-0.98
-0.72
-0.58
-0.56
-0.59
-0.47
-0.08
0.62
1.46
2.13
2.31
1.89
1.06
0.28
0.04
0.62
1.85
3.21
4.06
4.03
3.22
2.23
1.84
2.61
4.52
6.94
8.85
9.33
8.02
5.43
2.65
1.04
1.43
3.71
6.99
9.88
11.44
11.45
10.28
8.49
6.02
2.31
-3.15
-9.94
-16.27
-19.81
-19.01
-14.65
-9.56
-6.91
-8.12
-11.26
-12.12
-6.96
4.3
17.59
26.47
26.32
17.14
3.72
-7.41
-11.73
-9.12
-3.45
0.47
-0.26
-4.71
-9.35
-10.4
-6.46
0.68
7.1
9.06
5.4
-2.13
-9.76
-13.92
-13.27
-8.99
-4.16
-1.6
-2.18
-4.83
-7.49
-8.84
-8.78
-8.45
-8.62
-9.36
-10.12
-10.47
-10.34
-10.01
-9.36
-7.69
-4.48
0.13
4.67
7.16
6.51
3.39
0.01
-1.05
1.23
5.59
9.36
10.18
7.55
2.87
-1.47
-3.88
-3.99
-2.45
0.15
3.81
8.63
14.19
19.09
21.43
19.74
14.29
7.21
1.68
0.26
3.14
8.04
11.17
8.91
0.01
-13.54
-27.5
-37.01
-38.86
-33.22
-23.19
-13.15
-6.24
-3.26
-2.46
-1.35
1.22
4.8
7.72
8.69
7.69
6.05
5.32
6.26
8.21
9.45
8.63
5.67
1.95
-0.27
1.04
6.4
14.44
22.33
26.64
24.79
16.27
3.53
-9.32
-17.64
-18.31
-11.28
0.64
12.67
20.24
20.73
14.47
4.4
-5.79
-12.82
-15.2
-13.06
-7.95
-1.75
3.77
7.49
9.06
8.82
7.51
5.95
4.47
3.21
2.3
1.72
1.75
2.66
4.35
6.23
7.16
6.53
4.27
1.36
-0.99
-2.09
-2.2
-2.23
-3.24
-6.08
-10.84
-17.04
-23.78
-29.65
-32.95
-32.1
-26.87
-18.91
-11.25
-6.95
-7.63
-12.66
-19.42
-24.76
-26.62
-24.47
-19.12
-12.0
-4.51
1.89
5.99
7.08
5.5
2.93
1.7
3.33
7.81
13.31
17.43
18.73
17.99
17.22
18.3
21.54
25.37
27.12
25.01
19.3
12.03
5.81
2.04
0.46
-0.49
-2.06
-4.24
-5.6
-4.78
-1.51
2.68
5.61
6.0
4.55
3.6
5.08
8.92
12.49
12.19
6.0
-4.79
-15.9
-22.26
-21.01
-12.8
-1.16
9.52
16.26
18.53
17.79
16.25
15.28
14.79
13.52
10.16
4.72
-1.15
-4.64
-3.3
3.45
13.3
21.95
24.88
19.88
8.25
-5.74
-16.95
-21.99
-20.63
-15.43
-10.02
-6.9
-6.66
-8.05
-9.3
-9.07
-7.28
-4.9
-3.11
-2.65
-3.45
-4.75
-5.49
-5.08
-3.6
-1.65
-0.18
0.29
-0.27
-1.37
-2.3
-2.52
-1.92
-0.76
0.43
1.21
1.42
1.17
0.74
0.45
0.43
0.66
1.02
1.37
1.68
2.01
2.45
3.02
3.59
3.94
3.89
3.46
2.92
2.65
2.99
4.04
5.52
6.97
7.94
8.21
7.96
7.58
7.53
8.02
9.08
10.47
11.9
13.13
13.85
13.66
12.12
9.01
4.4
-1.07
-6.5
-11.1
-14.34
-16.21
-16.88
-16.56
-15.57
-14.22
-13.0
-12.54
-13.38
-15.66
-19.15
-23.2
-26.95
-29.21
-28.65
-24.27
-15.9
-5.08
5.46
12.52
14.0
9.88
2.28
-5.72
-11.29
-12.81
-10.23
-4.65
1.84
7.24
10.07
9.8
7.01
3.47
1.26
2.04
6.11
12.02
17.52
20.39
19.77
16.24
11.54
7.58
5.42
5.3
6.35
7.43
7.78
7.43
7.24
8.15
9.95
11.26
10.43
6.3
-0.84
-9.01
-15.78
-19.19
-18.61
-15.05
-10.43
-6.43
-4.1
-3.19
-2.77
-1.95
-0.15
2.53
5.72
8.67
10.79
11.47
10.28
7.33
2.91
-2.18
-7.0
-10.51
-12.11
-11.71
-9.93
-7.7
-5.97
-5.23
-5.32
-5.72
-5.99
-5.8
-5.14
-4.21
-3.09
-1.8
-0.57
0.4
0.73
0.07
-1.56
-3.71
-5.65
-6.52
-6.03
-4.55
-3.03
-2.36
-3.13
-4.98
-7.05
-8.21
-7.69
-5.61
-2.94
-1.13
-1.43
-4.11
-8.21
-12.08
-14.15
-13.67
-11.12
-7.83
-5.17
-3.78
-3.53
-3.58
-3.42
-3.28
-3.95
-6.19
-9.8
-13.53
-15.42
-14.06
-9.49
-3.28
2.33
5.71
6.84
7.23
8.66
11.93
16.11
19.26
19.67
17.26
13.42
10.09
8.51
8.45
8.74
8.22
6.58
4.5
3.27
3.76
6.13
10.05
14.63
18.9
21.94
23.04
21.94
18.99
15.26
12.11
10.49
10.41
11.2
11.88
11.7
10.77
9.52
8.62
8.6
9.82
11.97
14.2
15.2
13.28
7.47
-1.96
-12.76
-21.75
-25.98
-24.17
-17.3
-8.39
-1.0
2.56
1.64
-2.54
-7.68
-11.23
-11.3
-7.38
-0.35
7.47
13.04
13.73
9.05
0.98
-6.55
-9.21
-4.96
4.92
16.23
24.12
25.51
20.5
12.06
3.8
-1.78
-4.66
-6.32
-8.59
-12.25
-16.54
-19.83
-20.81
-19.51
-16.89
-14.54
-13.78
-15.13
-18.06
-21.56
-24.65
-26.63
-27.69
-28.35
-29.12
-29.77
-28.93
-24.67
-15.79
-3.39
8.87
16.0
14.17
2.99
-13.61
-28.87
-36.3
-32.58
-19.21
-1.49
14.31
23.95
26.7
24.46
20.05
15.31
10.65
6.01
1.7
-1.04
-0.77
2.66
8.01
13.17
15.93
15.24
11.44
5.4
-1.49
-7.87
-12.06
-12.28
-7.78
0.48
9.71
16.31
17.9
14.71
9.29
4.75
3.05
3.88
5.29
5.72
5.21
5.03
6.39
8.95
10.54
8.91
3.24
-4.9
-12.05
-14.97
-12.38
-5.68
2.06
7.89
10.35
9.7
7.44
4.96
2.72
0.69
-1.41
-3.42
-4.65
-4.49
-2.84
-0.2
2.87
5.57
7.62
8.85
9.21
9.12
8.89
9.0
9.66
10.77
11.48
10.76
7.78
2.2
-5.28
-13.01
-18.91
-21.31
-19.58
-14.44
-7.38
-0.16
5.91
10.06
11.78
10.81
7.15
1.5
-4.53
-8.9
-9.89
-7.34
-2.43
2.49
5.74
6.82
6.31
5.28
4.11
2.46
-0.47
-4.83
-9.65
-13.28
-14.24
-12.38
-8.88
-5.38
-3.0
-1.83
-0.94
0.52
2.58
4.69
6.21
6.76
6.75
6.76
6.98
7.06
6.22
3.94
0.51
-3.48
-7.1
-10.02
-12.31
-14.03
-14.65
-13.54
-10.42
-6.01
-2.07
-0.37
-1.45
-4.35
-6.85
-6.86
-3.6
2.06
8.09
12.46
14.18
13.68
12.26
11.37
11.96
13.63
15.07
14.72
11.65
6.37
0.35
-4.31
-6.08
-4.78
-1.34
2.64
5.94
8.25
9.78
10.85
11.02
9.25
4.92
-1.31
-7.25
-10.02
-7.72
-0.94
6.95
11.28
8.29
-2.38
-17.11
-29.93
-35.18
-30.51
-17.77
-1.97
11.53
19.57
21.95
20.66
18.13
15.79
13.68
11.53
9.72
9.09
10.55
13.66
16.24
15.31
8.69
-3.52
-18.51
-32.07
-40.44
-41.92
-37.5
-29.54
-20.43
-11.69
-3.68
3.61
9.87
14.18
15.75
14.56
11.83
9.09
7.3
6.59
6.38
5.92
4.81
3.05
0.4
-3.16
-7.09
-10.12
-10.24
-6.02
2.05
11.45
18.41
20.12
16.76
11.2
7.65
8.96
14.7
21.54
25.2
22.87
15.13
5.62
-0.94
-1.09
5.33
14.85
22.19
22.82
15.18
1.49
-13.44
-24.51
-28.88
-26.77
-21.18
-15.72
-12.81
-12.72
-13.89
-14.1
-12.13
-8.04
-3.32
-0.11
0.0
-3.42
-9.54
-16.51
-22.52
-26.59
-28.75
-30.04
-31.38
-33.14
-34.4
-33.81
-30.41
-24.27
-16.72
-9.27
-2.86
2.36
6.76
10.42
12.61
12.43
9.75
5.93
3.63
5.66
12.95
23.27
31.97
34.12
27.46
13.99
-0.69
-10.15
-10.38
-1.51
12.3
24.97
31.48
29.81
21.47
9.95
-0.59
-7.15
-8.57
-5.01
1.82
9.48
15.12
16.67
13.78
8.23
3.26
1.85
5.0
10.72
14.43
11.36
-0.97
-20.86
-42.7
-59.19
-64.47
-57.01
-40.24
-20.94
-5.82
1.35
0.82
-3.98
-8.81
-10.79
-9.36
-5.82
-1.72
2.43
7.04
13.03
20.17
27.14
31.51
31.36
26.57
18.96
11.68
7.73
8.54
13.45
20.29
26.18
28.46
25.53
16.89
3.45
-12.09
-25.66
-33.18
-32.31
-23.59
-10.51
2.02
9.77
10.5
4.94
-3.91
-12.32
-17.21
-17.11
-12.36
-4.93
2.31
6.82
7.54
5.54
3.79
5.23
10.82
18.72
25.07
26.62
23.02
17.01
12.36
11.53
13.86
16.17
14.86
8.25
-2.31
-13.59
-22.16
-26.76
-28.26
-28.41
-28.44
-27.7
-24.31
-16.97
-6.88
2.16
5.62
0.8
-10.77
-23.63
-31.19
-29.58
-20.18
-9.06
-3.04
-5.48
-13.98
-21.92
-22.72
-13.92
1.46
17.14
27.08
28.73
23.65
15.78
8.92
4.85
3.47
3.38
3.35
3.1
3.15
4.41
7.72
13.34
20.2
25.99
27.63
22.86
11.63
-3.21
-16.7
-23.86
-22.18
-12.88
-0.24
10.28
15.06
13.93
9.78
6.2
5.21
5.99
6.03
3.21
-2.16
-7.46
-9.59
-7.12
-1.13
5.31
8.9
8.09
3.74
-1.79
-5.91
-7.16
-5.44
-1.6
3.37
8.54
13.06
15.79
15.92
13.33
8.46
2.59
-2.95
-7.1
-9.38
-9.56
-7.9
-5.11
-2.47
-1.45
-2.81
-6.19
-9.77
-11.19
-9.1
-3.91
2.04
6.08
6.93
5.73
5.2
7.43
12.13
16.32
16.52
11.0
1.48
-8.39
-15.18
-18.34
-19.87
-22.14
-25.67
-28.1
-26.04
-17.8
-5.25
7.06
14.45
15.27
11.63
7.87
7.6
11.53
17.84
23.9
27.87
29.22
27.77
23.17
15.15
4.85
-5.14
-11.63
-12.86
-9.75
-5.56
-3.61
-5.06
-8.73
-11.93
-12.95
-12.21
-11.41
-12.04
-13.62
-14.6
-13.6
-10.88
-8.33
-7.52
-8.33
-8.94
-7.37
-2.94
2.68
6.6
6.55
2.43
-3.67
-8.75
-10.46
-8.39
-3.66
2.06
7.48
11.67
14.01
13.8
10.81
5.63
-0.12
-4.11
-4.6
-1.32
4.53
10.67
15.47
18.55
20.95
23.64
26.67
28.86
28.5
24.35
16.15
4.88
-7.81
-19.85
-28.96
-32.79
-29.73
-20.04
-6.35
6.53
13.21
10.27
-1.91
-18.88
-34.08
-41.36
-38.12
-25.93
-9.86
4.54
13.65
17.06
17.32
17.47
19.0
20.74
20.45
16.26
8.68
0.4
-4.8
-4.65
0.6
8.47
15.7
20.31
21.63
20.22
16.71
11.29
4.06
-4.14
-11.64
-16.45
-17.05
-13.31
-6.9
-0.14
4.88
7.32
7.04
4.45
-0.0
-5.85
-12.19
-17.8
-21.35
-22.44
-21.4
-19.2
-16.71
-14.61
-12.77
-10.97
-8.93
-6.65
-4.63
-3.28
-3.34
-5.0
-7.9
-11.23
-14.03
-15.32
-14.43
-11.61
-7.35
-2.33
2.96
7.97
12.33
15.45
16.89
16.96
16.52
16.88
18.89
22.38
25.91
27.56
25.39
18.45
6.95
-7.74
-22.87
-35.2
-41.91
-41.55
-34.71
-23.7
-11.62
-0.69
8.21
15.47
21.76
27.35
31.79
33.94
32.53
26.73
16.63
3.4
-10.43
-21.31
-25.92
-22.21
-10.52
6.24
23.77
37.83
45.49
45.91
39.73
28.44
13.85
-1.78
-15.81
-25.54
-29.49
-27.95
-22.7
-16.34
-10.91
-6.68
-2.86
1.44
6.36
10.78
13.13
12.32
8.36
2.55
-3.19
-7.24
-8.86
-8.01
-5.7
-3.19
-1.63
-1.96
-4.37
-8.46
-13.27
-17.6
-20.41
-20.79
-18.26
-12.73
-4.98
3.42
10.32
13.91
13.81
11.36
8.86
8.34
10.04
12.26
12.7
9.84
4.25
-2.1
-6.91
-8.97
-8.9
-8.76
-10.45
-14.68
-20.49
-25.65
-27.79
-25.27
-17.79
-6.85
5.07
15.36
21.93
23.9
21.67
16.83
11.45
7.52
6.32
8.38
13.01
18.48
22.53
23.47
20.77
15.67
10.51
7.17
6.28
6.49
5.38
1.06
-6.36
-15.1
-22.55
-27.24
-29.28
-29.82
-30.16
-30.52
-30.53
-29.89
-28.74
-27.35
-25.09
-20.26
-11.43
0.65
12.19
18.07
14.54
2.32
-13.19
-24.74
-27.16
-20.12
-8.07
3.03
9.42
10.61
8.81
6.32
4.21
2.19
0.08
-1.55
-1.42
1.07
4.91
8.16
8.76
6.87
4.58
4.88
9.79
18.64
27.68
32.3
29.23
18.3
2.72
-12.57
-23.08
-26.71
-24.1
-18.08
-11.49
-5.99
-1.57
2.77
8.09
14.23
20.15
23.9
24.11
20.86
15.81
11.27
8.79
8.2
7.68
5.49
1.21
-3.01
-4.2
-0.72
5.82
11.23
11.0
3.69
-7.62
-16.95
-18.96
-12.36
-0.83
9.42
13.4
10.26
3.4
-1.98
-2.24
2.73
9.84
15.03
15.89
12.83
8.36
5.3
5.17
7.35
9.65
9.7
6.54
1.09
-4.5
-7.65
-7.12
-3.16
2.34
6.84
8.23
5.86
0.96
-3.67
-5.34
-2.56
3.67
10.28
13.3
10.2
0.95
-11.48
-22.72
-29.19
-29.57
-25.06
-17.93
-10.16
-2.29
5.76
13.11
17.06
14.09
2.24
-16.57
-36.16
-48.87
-49.41
-38.31
-21.37
-6.3
1.64
2.42
0.21
0.12
4.64
12.0
17.58
17.35
10.33
-0.4
-9.67
-13.41
-10.66
-4.07
1.98
4.11
1.64
-2.78
-5.71
-4.91
-0.86
3.37
4.64
1.82
-3.16
-7.07
-7.34
-3.92
1.2
5.28
6.9
6.42
4.96
3.49
1.67
-1.13
-5.18
-9.55
-12.46
-12.13
-7.98
-0.78
7.71
15.3
20.16
21.01
17.6
10.8
2.39
-5.13
-10.03
-12.0
-12.28
-12.81
-14.74
-18.12
-21.61
-24.01
-24.55
-23.18
-19.88
-14.38
-6.31
3.9
14.49
22.78
26.11
23.8
17.42
10.12
4.98
3.43
4.9
7.74
10.41
12.47
14.37
16.67
19.68
23.16
26.62
29.7
32.28
33.67
32.15
25.94
14.16
-1.94
-18.87
-32.39
-39.16
-38.26
-31.56
-22.4
-13.9
-7.76
-3.98
-1.5
0.68
3.07
5.81
8.76
11.96
15.59
19.89
24.77
29.39
32.2
30.97
24.25
12.54
-1.15
-12.57
-18.59
-18.88
-15.97
-13.99
-15.47
-20.07
-24.35
-24.14
-17.66
-6.49
5.1
12.34
12.54
6.31
-3.27
-12.28
-17.62
-18.11
-14.46
-8.21
-1.02
6.17
12.73
18.15
21.44
21.29
16.94
8.74
-1.48
-11.03
-17.27
-18.34
-14.1
-6.01
3.18
10.15
12.23
8.07
-1.29
-13.0
-23.36
-29.4
-29.56
-24.43
-15.85
-6.1
2.79
9.43
12.58
11.8
7.59
1.65
-3.37
-4.67
-1.09
6.55
16.04
24.42
29.01
28.08
21.19
9.02
-6.36
-21.78
-33.64
-38.75
-35.59
-25.1
-10.43
4.06
14.82
20.14
21.14
20.26
19.88
20.9
22.37
22.55
20.5
16.84
13.2
11.0
10.31
9.57
6.65
0.84
-6.67
-13.17
-16.56
-16.57
-14.77
-13.35
-12.94
-12.35
-9.61
-3.83
3.89
10.65
14.12
13.63
10.43
6.84
4.38
2.89
0.98
-2.51
-7.85
-13.48
-17.1
-17.06
-13.09
-6.71
-0.26
3.87
4.39
1.6
-3.13
-7.76
-10.71
-10.91
-8.32
-3.49
2.7
9.44
15.73
20.82
23.92
24.38
22.18
17.62
11.66
5.16
-1.22
-7.05
-12.19
-16.72
-20.88
-24.6
-27.55
-28.92
-27.75
-23.45
-16.39
-7.9
0.01
5.54
7.35
5.34
0.63
-4.51
-7.45
-6.31
-1.28
5.33
9.64
8.7
1.9
-8.18
-16.94
-20.18
-16.24
-6.87
4.19
13.13
17.98
18.97
17.95
16.71
16.09
15.74
14.68
12.02
7.63
2.46
-1.76
-3.29
-1.57
2.83
7.56
9.93
8.49
3.61
-2.53
-7.45
-9.98
-10.76
-12.03
-15.49
-21.12
-26.94
-30.13
-28.82
-23.04
-14.64
-6.01
1.49
7.47
11.97
14.91
15.34
12.33
6.09
-1.65
-8.42
-12.22
-12.64
-11.01
-9.21
-8.53
-8.3
-6.93
-2.62
4.85
14.06
22.76
28.69
31.3
31.3
30.0
27.96
24.95
20.1
13.26
5.57
-0.67
-3.34
-2.16
1.53
4.88
5.36
2.27
-3.16
-8.44
-11.26
-10.57
-7.15
-2.93
-0.24
-0.75
-4.41
-9.3
-12.12
-9.96
-1.85
9.95
20.86
26.0
22.4
10.67
-5.53
-21.02
-31.34
-33.96
-28.68
-17.23
-2.48
12.05
23.24
28.8
28.49
23.71
17.03
10.51
4.9
-0.24
-5.82
-11.86
-17.43
-20.93
-21.29
-18.77
-15.05
-11.94
-10.6
-11.08
-12.41
-13.61
-14.11
-14.19
-14.04
-13.76
-12.82
-10.69
-6.69
-0.71
6.82
14.97
22.61
28.85
33.17
35.67
36.52
35.81
33.6
29.93
25.08
19.96
15.62
12.99
12.2
12.23
11.59
9.13
4.47
-1.58
-7.44
-11.95
-14.89
-16.86
-18.75
-21.08
-23.51
-25.07
-24.5
-21.13
-15.11
-7.92
-1.64
1.75
0.89
-3.85
-11.06
-18.49
-24.32
-27.59
-28.49
-27.37
-24.66
-20.57
-15.29
-9.78
-5.42
-3.72
-5.09
-8.63
-12.19
-13.78
-12.66
-9.65
-6.86
-6.29
-8.42
-11.84
-14.18
-13.43
-9.45
-3.87
0.9
2.98
2.53
1.6
2.82
7.81
15.79
24.05
29.55
30.73
28.05
23.81
20.39
18.69
18.16
17.47
15.79
13.29
10.76
8.68
6.99
5.12
2.97
1.61
2.93
8.29
17.3
27.11
33.83
34.45
28.26
17.13
4.53
-6.38
-13.65
-16.81
-16.16
-11.73
-3.91
6.1
15.6
21.14
20.14
12.28
0.57
-10.17
-15.32
-13.13
-5.18
4.46
11.47
13.5
10.74
5.34
-0.17
-4.25
-7.01
-9.25
-11.42
-13.62
-15.17
-15.53
-14.56
-12.75
-10.97
-9.82
-9.2
-8.34
-6.42
-3.09
1.14
5.46
8.78
10.28
9.51
6.29
1.08
-5.38
-11.7
-16.63
-18.91
-18.14
-14.67
-9.48
-4.06
0.36
3.03
3.77
2.48
-0.85
-5.65
-10.97
-15.24
-16.94
-15.42
-11.05
-5.2
0.81
6.24
10.94
15.22
18.9
21.09
20.48
16.36
9.4
1.44
-5.08
-8.25
-7.45
-3.73
0.79
3.79
3.56
-0.12
-5.83
-10.95
-12.64
-9.07
-0.45
10.6
19.97
24.4
23.1
18.51
14.55
14.48
18.48
23.56
25.63
22.01
12.95
1.41
-9.14
-16.73
-21.71
-25.26
-27.88
-28.65
-26.19
-20.44
-13.17
-7.82
-6.84
-10.13
-14.84
-17.35
-15.56
-10.16
-4.03
-0.12
0.53
-0.83
-1.65
-0.23
3.01
6.22
7.04
4.63
0.15
-3.36
-2.92
2.95
12.98
23.75
31.16
32.24
26.58
16.52
6.06
-0.81
-1.92
2.1
8.38
13.28
14.12
10.38
3.8
-2.91
-7.58
-9.54
-9.62
-9.22
-9.2
-9.61
-9.61
-8.45
-6.15
-3.43
-1.45
-1.05
-2.45
-4.95
-7.54
-9.28
-9.69
-8.88
-7.34
-5.66
-4.27
-3.26
-2.43
-1.49
-0.28
1.11
2.29
2.84
2.5
1.3
-0.43
-2.2
-3.59
-4.32
-4.31
-3.7
-2.79
-1.95
-1.52
-1.71
-2.49
-3.54
-4.49
-4.89
-4.6
-3.76
-2.73
-1.96
-1.78
-2.36
-3.59
-5.28
-6.96
-7.91
-7.39
-4.92
-0.8
3.57
6.2
5.35
1.0
-4.86
-9.03
-8.68
-3.21
5.23
12.53
14.66
9.86
-0.45
-12.64
-22.59
-27.59
-26.89
-20.92
-10.28
4.31
21.2
36.99
46.9
46.84
35.87
17.64
-1.01
-13.04
-14.63
-6.87
5.43
16.61
23.07
24.44
22.36
18.73
14.35
8.96
2.19
-5.47
-12.67
-17.84
-20.01
-19.32
-16.65
-13.4
-10.61
-8.86
-8.1
-7.95
-8.15
-8.5
-8.98
-9.57
-10.07
-9.83
-8.0
-3.96
2.25
9.44
15.68
18.83
17.68
12.38
4.64
-3.22
-9.27
-12.71
-14.16
-14.77
-15.24
-15.16
-13.47
-9.34
-3.06
3.95
9.9
13.3
13.84
11.86
8.22
3.94
-0.15
-3.42
-5.56
-6.67
-7.04
-6.89
-6.21
-4.99
-3.39
-1.94
-1.31
-1.92
-3.22
-3.97
-2.76
0.97
6.25
11.3
14.41
15.08
14.04
12.68
11.68
10.87
9.47
6.97
3.88
1.34
0.66
2.45
6.21
10.4
12.97
12.35
7.93
0.6
-7.91
-15.63
-21.25
-24.63
-26.48
-27.74
-28.75
-29.2
-28.06
-24.08
-16.85
-7.1
3.16
11.46
15.63
14.83
9.71
2.23
-5.25
-10.84
-13.43
-12.79
-9.31
-3.48
4.15
12.55
20.41
26.43
29.62
30.18
29.23
28.22
28.08
28.82
29.93
30.89
31.52
31.38
29.79
25.03
15.42
0.96
-16.16
-31.67
-41.37
-43.0
-37.75
-29.12
-20.78
-14.46
-9.35
-3.79
2.76
8.75
11.11
7.76
-0.41
-9.89
-16.34
-16.97
-12.17
-4.93
1.29
4.3
4.18
2.67
1.69
2.19
3.83
5.47
6.34
6.2
5.43
4.72
4.45
4.78
5.42
6.05
6.48
6.65
6.71
6.74
6.94
7.3
7.91
8.87
10.22
11.65
12.45
11.72
8.88
4.09
-1.71
-7.18
-11.38
-14.1
-15.87
-17.51
-19.43
-21.39
-22.84
-23.62
-24.15
-25.61
-28.67
-32.61
-35.01
-32.78
-24.03
-9.54
7.12
21.2
28.91
29.13
23.88
16.69
10.69
7.29
6.26
6.73
8.09
10.12
12.68
14.78
14.67
10.98
3.34
-6.68
-16.49
-23.48
-26.19
-24.74
-20.74
-16.25
-12.62
-10.36
-8.68
-6.22
-1.98
4.34
11.78
18.72
23.33
24.6
22.34
17.29
10.68
3.78
-2.21
-6.17
-6.96
-3.8
3.15
12.29
21.2
27.21
28.55
25.29
18.84
11.6
5.42
1.24
-0.92
-1.34
-0.36
2.06
5.96
10.59
14.51
15.84
13.19
6.75
-2.0
-10.63
-16.99
-20.15
-20.72
-20.01
-19.41
-19.62
-20.88
-22.87
-24.88
-25.58
-22.88
-14.94
-1.32
15.85
31.89
41.39
40.95
31.54
18.21
7.64
4.29
8.16
14.93
18.93
16.62
8.49
-1.65
-9.35
-12.07
-10.36
-7.13
-5.48
-6.76
-10.09
-13.19
-13.89
-11.54
-7.1
-2.72
-0.18
-0.36
-2.85
-6.24
-8.98
-10.1
-9.47
-7.64
-5.45
-3.48
-1.96
-0.77
0.07
0.47
0.23
-0.71
-1.86
-2.53
-2.02
-0.47
1.04
1.06
-1.39
-6.02
-11.41
-16.02
-19.11
-20.75
-21.04
-19.4
-14.53
-5.65
6.47
18.95
27.96
30.7
27.01
19.51
11.75
6.4
3.81
2.41
0.4
-2.73
-6.06
-7.77
-6.59
-2.61
2.85
7.69
10.14
9.35
5.69
0.71
-3.64
-5.92
-5.75
-3.91
-1.91
-1.09
-1.84
-3.59
-5.15
-5.56
-4.55
-2.67
-0.84
0.1
-0.22
-1.44
-3.01
-4.14
-4.33
-3.59
-2.28
-1.12
-0.78
-1.5
-2.95
-4.39
-4.93
-4.01
-1.6
1.73
5.03
7.22
7.47
5.58
1.85
-2.64
-6.6
-8.94
-8.97
-6.92
-3.83
-1.34
-1.15
-4.42
-11.02
-19.27
-26.25
-29.09
-26.09
-17.7
-6.5
4.0
10.71
12.28
9.11
3.18
-3.03
-7.02
-7.3
-3.39
3.83
12.17
19.0
22.09
20.72
16.07
10.7
7.25
6.96
8.81
10.52
9.51
4.7
-2.82
-10.09
-14.17
-13.45
-8.58
-2.09
3.02
4.8
3.24
0.13
-2.31
-2.44
0.39
5.77
13.06
21.15
28.65
33.83
35.32
32.57
26.15
17.62
8.53
-0.02
-7.75
-14.41
-19.3
-21.43
-20.07
-15.35
-8.85
-3.21
-0.8
-2.42
-7.04
-12.0
-14.34
-12.29
-6.19
1.36
6.63
6.74
0.91
-8.88
-18.86
-25.62
-27.82
-26.62
-24.56
-23.54
-23.41
-22.17
-17.62
-8.7
3.49
16.53
27.65
34.83
37.12
34.32
27.06
17.0
7.18
0.9
0.61
6.52
15.97
24.55
28.27
25.16
16.03
3.57
-8.95
-18.82
-23.92
-23.32
-16.95
-5.93
6.98
17.99
23.44
21.46
12.6
-0.02
-12.67
-22.44
-28.11
-30.05
-29.2
-26.16
-21.09
-13.94
-4.95
4.38
11.87
15.09
12.5
4.98
-4.24
-10.5
-9.78
-0.88
13.57
28.02
36.26
34.35
22.34
3.95
-15.55
-31.17
-40.26
-42.09
-37.81
-29.0
-17.63
-5.89
4.23
11.01
13.94
13.36
10.6
7.14
4.15
2.13
1.05
0.67
0.64
0.53
-0.29
-2.14
-5.02
-8.01
-9.76
-9.05
-5.47
0.12
5.85
9.9
11.26
10.68
9.77
10.6
13.9
19.35
25.25
29.88
32.06
31.57
28.99
24.84
19.76
14.35
9.45
6.16
5.39
7.37
10.85
13.67
13.83
10.43
4.26
-2.66
-8.49
-12.43
-14.82
-16.56
-18.12
-19.09
-18.53
-16.11
-12.4
-8.27
-4.58
-1.47
0.95
2.29
1.81
-0.88
-5.28
-9.34
-11.02
-9.48
-5.85
-2.38
-0.61
-0.42
-0.18
1.95
6.28
11.08
13.69
12.37
7.27
0.59
-4.85
-7.06
-5.66
-1.73
2.74
5.89
6.89
5.49
2.18
-2.22
-7.06
-12.05
-17.15
-22.3
-27.09
-30.66
-32.05
-30.34
-25.21
-17.1
-7.69
0.44
4.98
4.88
1.23
-2.94
-4.29
-1.2
5.18
11.67
14.85
13.3
8.38
3.28
0.92
2.24
5.82
9.12
10.27
9.04
6.77
5.25
5.54
7.58
10.28
12.35
12.87
11.68
9.46
7.09
5.58
5.73
7.72
11.15
15.05
18.31
20.12
20.19
18.71
16.05
12.49
7.93
2.15
-4.91
-12.74
-20.34
-26.23
-29.16
-28.49
-24.51
-18.52
-12.31
-7.91
-6.81
-9.49
-14.84
-20.96
-25.49
-26.62
-23.94
-18.01
-10.48
-3.29
1.39
1.96
-2.26
-10.21
-18.85
-24.37
-23.88
-17.11
-6.68
2.87
7.64
6.21
0.44
-5.55
-7.79
-4.28
3.96
14.23
23.55
30.33
34.22
35.44
33.71
28.37
19.44
8.07
-3.08
-11.05
-14.06
-12.05
-6.75
-0.05
6.8
14.13
22.43
31.26
38.59
41.51
38.06
28.68
16.54
5.73
-0.63
-2.15
-0.93
-0.53
-3.95
-11.94
-22.65
-31.99
-35.8
-31.58
-20.38
-6.22
5.74
11.61
10.6
4.93
-1.7
-6.71
-9.68
-12.23
-16.46
-22.85
-30.08
-35.48
-36.8
-33.69
-27.73
-21.57
-17.5
-16.35
-17.34
-18.67
-18.33
-15.34
-9.75
-2.63
4.82
11.83
18.25
24.27
29.85
34.25
36.36
35.11
30.32
22.57
12.98
2.85
-6.53
-14.02
-18.56
-19.5
-17.13
-12.22
-6.22
-0.26
5.4
10.81
16.5
22.33
27.55
30.92
31.71
29.88
26.51
22.66
18.84
14.69
9.61
3.75
-1.87
-5.4
-4.99
-0.15
7.92
16.36
21.66
21.24
14.25
1.85
-13.25
-27.66
-38.66
-44.32
-44.08
-38.52
-29.58
-19.85
-11.93
-7.71
-7.29
-9.15
-10.84
-10.55
-7.98
-4.74
-2.79
-3.19
-5.28
-6.92
-6.15
-2.26
3.68
9.62
14.16
17.25
19.97
23.11
25.9
26.26
22.15
13.31
2.11
-7.41
-11.66
-9.59
-3.01
4.4
8.9
8.66
4.32
-1.97
-8.02
-12.52
-15.23
-16.23
-15.03
-11.05
-3.97
5.14
13.65
18.65
18.68
14.46
8.53
4.01
2.86
4.77
7.87
9.7
9.04
6.35
3.26
1.55
2.15
4.1
5.43
4.15
-0.56
-7.34
-13.01
-14.05
-8.38
3.0
15.61
23.61
22.48
11.57
-4.97
-20.06
-27.18
-23.11
-9.84
6.55
19.09
22.98
17.39
5.54
-7.31
-16.46
-19.28
-15.99
-8.62
0.25
8.34
14.21
17.35
17.66
15.4
11.35
6.42
1.59
-2.23
-4.57
-5.42
-5.0
-3.72
-2.1
-0.41
1.14
2.36
3.48
4.49
5.3
5.46
4.6
2.68
-0.44
-5.01
-11.05
-18.05
-24.25
-27.47
-26.07
-20.61
-13.85
-9.37
-9.41
-13.07
-16.7
-16.08
-9.02
3.01
15.63
24.09
25.67
20.42
11.03
0.8
-7.67
-13.28
-16.27
-17.91
-19.61
-22.12
-25.12
-27.22
-27.15
-24.51
-20.06
-15.21
-10.92
-7.29
-3.42
1.05
5.97
10.24
12.69
12.65
10.24
5.96
0.41
-5.67
-10.9
-13.11
-10.39
-2.16
9.81
21.38
28.4
28.47
22.83
15.28
10.38
10.9
16.85
25.71
34.1
39.31
39.61
34.41
24.02
9.78
-5.87
-19.27
-26.75
-26.91
-21.11
-13.29
-7.75
-6.46
-7.7
-7.73
-3.18
6.17
16.73
23.07
21.0
10.28
-5.38
-19.92
-28.25
-28.26
-21.13
-10.32
0.65
9.32
14.94
17.58
17.97
16.76
14.56
12.05
9.97
8.77
8.58
8.99
9.01
6.8
0.96
-8.85
-21.51
-34.19
-43.11
-45.27
-39.98
-29.06
-16.44
-5.83
1.01
4.99
8.34
12.83
17.83
20.4
17.49
8.03
-5.42
-17.57
-22.78
-18.15
-5.17
10.78
23.41
28.65
26.24
19.11
11.3
5.53
2.76
2.46
3.68
5.55
7.14
7.14
4.44
-0.94
-7.43
-12.15
-13.16
-10.75
-7.65
-7.0
-10.12
-14.78
-16.47
-11.29
1.49
18.4
33.46
41.14
39.07
28.44
13.12
-2.39
-14.57
-21.15
-21.74
-17.27
-9.42
-0.6
7.05
12.16
14.37
13.97
12.1
9.71
7.79
6.88
7.27
9.17
12.57
17.2
22.37
27.33
30.92
32.28
30.46
25.0
16.22
5.37
-5.43
-14.09
-18.94
-19.84
-17.71
-14.15
-10.83
-8.67
-7.83
-7.8
-7.73
-7.06
-5.6
-3.46
-0.89
1.49
3.47
4.66
5.12
5.11
4.94
4.83
4.9
5.44
7.12
10.72
16.36
22.86
27.64
27.78
21.53
9.51
-5.33
-19.0
-28.29
-32.22
-32.0
-29.96
-28.02
-26.85
-26.0
-24.77
-23.02
-21.33
-20.54
-21.1
-22.73
-24.76
-26.24
-26.61
-25.97
-24.81
-23.78
-23.29
-23.24
-23.33
-23.36
-23.38
-24.02
-25.75
-28.47
-30.97
-31.33
-28.12
-21.52
-13.31
-5.92
-0.93
1.91
3.63
4.86
5.0
2.55
-3.04
-10.37
-16.09
-16.92
-11.83
-3.0
5.64
10.66
11.51
10.59
11.31
15.98
24.39
34.44
43.48
49.67
52.41
52.02
48.96
43.75
37.11
30.17
24.52
21.64
22.46
26.81
33.23
39.6
43.28
41.87
34.6
22.89
10.28
0.85
-2.74
-0.43
5.6
12.06
16.48
17.64
15.3
9.38
-0.35
-13.29
-27.06
-37.42
-40.15
-33.38
-19.59
-4.53
5.32
6.56
0.36
-8.78
-16.01
-18.91
-18.11
-16.07
-15.01
-15.47
-16.26
-15.82
-13.45
-9.77
-6.23
-4.18
-4.2
-5.88
-7.95
-9.09
-8.56
-6.44
-3.54
-1.02
0.2
-0.2
-1.8
-3.69
-4.9
-4.85
-3.56
-1.62
0.23
1.35
1.5
0.91
0.11
-0.36
-0.23
0.37
1.1
1.56
1.6
1.36
1.2
1.52
2.58
4.29
6.36
8.38
9.97
10.9
11.17
10.96
10.56
10.32
10.47
11.13
12.32
14.0
16.07
18.25
19.95
20.21
18.08
13.06
5.5
-3.27
-11.44
-17.42
-20.46
-20.82
-19.47
-17.5
-15.58
-13.88
-12.28
-10.74
-9.44
-8.72
-8.73
-9.28
-9.81
-9.66
-8.46
-6.34
-3.96
-2.12
-1.41
-1.84
-2.92
-3.99
-4.49
-4.29
-3.58
-2.68
-1.86
-1.2
-0.68
-0.28
-0.04
-0.06
-0.43
-1.08
-1.9
-2.65
-3.23
-3.53
-3.59
-3.5
-3.2
-2.41
-0.83
1.4
3.45
3.91
1.64
-3.55
-10.27
-16.05
-18.65
-17.17
-12.74
-7.62
-4.08
-2.92
-3.29
-3.43
-2.14
0.46
3.3
5.32
6.36
7.15
8.62
10.88
13.09
14.05
12.7
9.2
4.69
0.71
-1.62
-2.06
-1.13
0.35
1.79
2.72
3.05
2.54
0.97
-1.65
-4.94
-8.0
-9.95
-9.75
-7.11
-2.45
3.07
7.94
10.98
11.46
9.36
5.2
-0.1
-5.69
-10.49
-13.56
-14.13
-11.82
-7.04
-0.78
5.5
10.52
13.45
14.29
13.51
11.77
9.83
8.05
6.61
5.41
4.18
2.39
-0.42
-4.43
-9.47
-14.75
-19.18
-21.43
-20.89
-17.7
-13.15
-9.02
-7.03
-8.07
-11.72
-16.27
-19.68
-20.21
-16.98
-10.42
-1.72
7.17
13.85
15.82
10.99
-0.98
-18.07
-35.9
-48.91
-52.68
-46.19
-32.5
-17.32
-6.19
-1.58
-2.06
-3.16
-0.42
7.98
20.54
33.33
42.59
46.5
46.26
44.45
43.16
42.69
41.73
38.53
32.36
24.12
15.46
7.9
1.7
-3.76
-9.39
-15.16
-19.82
-21.15
-17.09
-7.07
7.07
21.29
30.07
28.79
15.89
-5.6
-28.74
-45.24
-49.45
-40.98
-24.83
-8.31
2.72
6.72
6.56
7.16
11.96
20.84
30.23
35.45
33.31
24.02
10.92
-0.97
-7.74
-7.8
-2.86
3.59
7.7
7.19
2.25
-4.67
-10.65
-13.38
-12.71
-10.03
-7.14
-4.88
-2.63
0.94
6.21
12.11
15.9
15.17
9.19
0.43
-7.01
-9.25
-4.81
4.41
14.22
20.62
21.65
17.83
11.23
4.23
-1.59
-5.56
-7.71
-8.21
-7.34
-5.17
-1.8
2.85
8.27
13.57
17.34
18.6
17.51
15.29
13.75
13.99
15.28
15.48
12.3
4.87
-5.63
-15.92
-22.73
-23.99
-20.27
-14.09
-9.26
-8.79
-13.48
-21.51
-29.14
-32.51
-29.32
-20.34
-8.68
2.11
9.27
12.03
11.01
7.34
1.9
-4.6
-11.23
-16.87
-20.43
-22.02
-22.6
-23.06
-23.24
-21.67
-16.38
-6.84
5.36
17.11
25.22
28.41
27.33
24.42
21.97
21.21
21.61
21.42
18.92
13.53
6.79
1.48
-0.28
1.71
5.54
8.09
7.23
3.42
-0.45
-0.79
4.01
12.15
18.82
18.82
9.44
-7.54
-26.58
-40.73
-45.11
-38.43
-23.51
-5.7
9.35
17.66
18.11
12.5
4.28
-3.02
-7.23
-7.77
-5.11
-0.19
5.62
11.23
15.41
17.09
15.73
11.31
4.43
-3.72
-11.59
-17.35
-19.41
-17.11
-11.42
-4.55
0.71
2.32
0.63
-1.64
-1.0
5.17
16.49
29.32
38.65
40.03
31.59
14.87
-6.04
-25.63
-38.75
-42.45
-36.69
-24.31
-10.19
1.4
7.77
8.89
6.74
3.44
0.44
-1.92
-3.64
-4.51
-3.74
-0.86
3.57
8.03
10.67
10.19
6.82
2.22
-1.44
-1.9
1.8
8.34
14.4
15.41
7.77
-8.17
-27.22
-41.56
-44.26
-33.64
-14.14
6.07
19.37
22.71
18.34
11.37
6.01
3.02
0.39
-4.24
-11.09
-17.63
-20.19
-16.36
-6.8
5.2
15.8
22.09
23.34
20.73
15.87
10.24
4.62
-0.81
-5.72
-9.07
-9.46
-5.78
1.87
11.36
19.47
23.15
20.87
13.55
4.17
-3.95
-8.68
-9.73
-8.56
-7.07
-6.44
-6.5
-6.25
-4.94
-2.69
-0.51
0.42
-0.53
-2.69
-4.88
-5.86
-5.03
-2.74
-0.12
1.6
1.67
0.2
-1.92
-3.47
-3.5
-1.82
0.79
3.06
3.85
2.57
-0.13
-2.86
-4.02
-2.71
0.84
4.86
7.01
5.56
0.12
-7.88
-16.07
-22.27
-25.4
-25.85
-24.43
-21.73
-17.56
-11.65
-4.67
1.64
5.2
4.96
1.96
-1.21
-2.07
-0.04
3.12
4.57
2.23
-3.32
-9.03
-11.4
-8.21
-0.25
9.02
15.02
14.58
7.03
-4.88
-15.99
-21.37
-18.2
-7.85
4.68
13.43
14.59
8.65
0.28
-4.53
-2.35
5.78
14.66
18.51
14.3
3.89
-7.21
-13.02
-10.69
-1.86
8.63
15.32
15.62
10.79
5.01
2.82
6.95
16.55
28.12
37.46
41.41
39.67
34.11
27.3
21.29
16.78
12.88
8.4
3.03
-2.96
-8.71
-13.38
-16.82
-18.93
-19.73
-19.11
-17.16
-14.42
-11.9
-10.46
-10.47
-11.66
-13.64
-16.63
-21.24
-27.61
-34.11
-37.78
-35.08
-25.17
-10.68
2.77
9.62
8.26
1.53
-4.72
-5.57
0.47
10.3
18.92
22.14
18.95
11.46
3.39
-2.05
-3.68
-2.06
0.76
2.93
3.47
2.79
2.6
4.79
10.33
18.06
25.42
29.23
27.41
19.88
8.57
-3.19
-12.12
-16.03
-14.69
-9.98
-5.32
-3.94
-7.26
-13.89
-19.85
-21.02
-15.29
-4.2
8.06
16.67
18.82
14.82
7.36
-0.18
-5.63
-8.13
-8.03
-5.91
-2.07
3.45
10.3
17.45
23.41
26.09
24.11
17.27
7.18
-3.11
-10.04
-11.4
-7.13
0.74
9.1
15.79
19.95
21.74
21.59
19.04
12.8
1.95
-12.78
-28.44
-40.84
-46.36
-43.66
-34.5
-22.28
-10.35
-0.51
7.37
14.32
21.03
27.0
30.82
31.35
28.59
24.11
20.43
19.47
21.18
23.44
23.23
17.96
7.19
-7.33
-21.89
-33.19
-39.4
-41.03
-39.98
-38.35
-36.78
-34.49
-29.93
-22.36
-12.85
-3.65
2.43
4.11
1.86
-2.22
-5.55
-6.1
-3.71
0.58
5.22
9.05
12.03
14.49
16.59
17.94
17.72
15.72
13.21
12.02
13.28
15.66
15.74
9.83
-3.36
-20.95
-36.37
-42.72
-36.17
-18.6
3.24
21.51
30.9
31.08
25.6
19.12
14.64
12.26
10.1
6.34
0.8
-5.14
-9.25
-10.48
-9.45
-8.14
-8.44
-10.73
-13.69
-15.14
-13.5
-8.77
-2.52
3.3
6.95
7.81
5.94
2.02
-3.17
-8.96
-14.72
-20.25
-25.77
-31.44
-36.8
-40.35
-39.41
-31.43
-16.0
3.94
22.76
34.09
35.02
27.29
16.97
10.41
10.61
15.69
20.63
21.05
16.29
9.63
5.65
6.76
11.34
15.1
13.57
5.05
-8.61
-23.16
-33.94
-37.82
-33.73
-22.29
-5.56
13.22
30.37
42.0
45.57
40.44
28.38
12.89
-1.86
-12.55
-17.39
-16.41
-10.97
-3.12
5.09
12.21
17.34
19.83
19.12
15.02
8.16
-0.0
-7.03
-10.82
-10.33
-6.08
-0.53
3.15
2.19
-4.33
-15.32
-27.71
-37.28
-40.88
-36.99
-26.71
-12.92
0.86
11.96
18.62
20.2
16.63
8.42
-2.68
-13.68
-20.83
-21.55
-16.12
-7.94
-1.42
0.35
-2.67
-7.55
-10.72
-9.86
-5.4
0.41
5.52
9.23
12.92
18.0
24.5
30.39
32.74
29.79
22.42
13.65
7.28
5.04
6.14
7.99
7.72
4.32
-0.85
-5.09
-6.15
-3.74
0.19
2.72
1.56
-4.26
-13.41
-22.8
-28.99
-28.78
-21.01
-7.71
6.36
15.39
15.16
5.52
-8.88
-21.24
-26.36
-23.29
-15.56
-8.96
-7.31
-10.92
-16.16
-18.18
-13.77
-3.04
10.91
23.42
30.83
31.61
26.63
18.93
11.92
8.13
8.45
11.51
14.57
15.14
12.35
7.33
2.43
-0.58
-1.36
-0.93
-0.55
-0.74
-0.99
-0.35
1.53
4.17
6.78
8.84
10.73
13.0
15.57
17.41
17.1
13.57
7.45
0.51
-4.89
-7.35
-7.25
-5.99
-5.14
-5.53
-6.84
-7.95
-7.82
-6.3
-3.8
-1.36
0.1
0.24
-0.54
-1.61
-2.18
-1.8
-0.51
1.35
3.23
4.83
5.99
6.76
7.24
7.43
7.32
6.98
6.81
7.34
9.0
11.65
14.33
15.62
14.27
9.88
3.16
-4.19
-10.48
-14.65
-16.53
-16.94
-16.79
-16.74
-16.96
-17.62
-18.99
-21.25
-24.14
-26.52
-26.92
-24.17
-18.58
-11.76
-6.44
-4.78
-7.46
-12.9
-18.1
-19.94
-16.62
-8.54
2.11
12.11
18.39
19.28
14.6
5.73
-5.04
-14.78
-21.02
-22.1
-17.5
-8.14
3.63
14.67
21.86
23.16
18.24
8.43
-3.86
-16.26
-26.82
-33.94
-36.43
-33.18
-24.25
-10.92
3.69
15.96
22.89
23.82
20.7
16.85
15.28
17.04
20.25
21.93
19.46
12.56
3.54
-4.24
-8.1
-7.62
-4.47
-1.24
0.12
-0.37
-1.22
-0.52
2.69
7.49
11.97
13.94
11.99
6.3
-1.8
-9.92
-15.8
-17.71
-15.25
-9.42
-2.59
2.29
3.3
0.16
-4.99
-8.81
-8.4
-2.65
6.63
15.94
21.77
22.44
18.67
13.11
8.99
8.15
10.54
14.38
17.09
16.78
13.19
7.35
1.53
-2.12
-2.46
0.92
7.22
15.14
23.05
28.7
29.51
23.08
8.7
-11.43
-31.9
-45.81
-47.67
-36.45
-16.52
4.41
18.66
22.25
15.88
4.12
-7.92
-16.79
-21.23
-21.68
-18.89
-13.43
-6.24
1.22
6.92
8.94
7.27
3.7
1.28
2.86
9.24
18.71
28.22
34.46
35.0
28.85
16.66
0.52
-16.68
-31.14
-39.73
-40.52
-34.32
-24.28
-14.38
-7.74
-5.19
-5.1
-4.57
-1.71
3.34
8.48
11.23
10.17
5.57
-1.05
-7.76
-13.15
-16.59
-18.04
-17.65
-15.01
-9.71
-2.0
6.91
15.04
20.06
20.28
15.63
7.81
-0.73
-7.69
-11.96
-13.47
-12.72
-9.94
-4.72
3.46
14.09
24.93
32.49
33.82
28.17
17.49
5.87
-2.93
-7.23
-8.52
-9.88
-13.77
-20.09
-26.0
-27.44
-21.52
-8.61
7.42
21.41
29.5
31.08
28.55
25.31
23.5
22.49
19.83
13.32
2.54
-10.88
-24.23
-35.19
-42.57
-46.14
-46.03
-42.27
-34.65
-23.26
-9.21
4.97
16.18
21.7
20.54
14.18
6.17
0.87
1.19
7.5
17.19
26.21
30.93
29.89
23.86
15.41
7.1
0.44
-4.09
-7.07
-9.17
-10.66
-11.0
-9.26
-4.53
2.88
10.96
16.12
14.63
4.59
-12.2
-30.4
-43.23
-45.79
-37.03
-20.34
-1.28
15.09
25.95
30.55
29.43
23.49
13.78
2.17
-8.67
-15.56
-16.55
-11.72
-3.42
4.61
9.44
9.85
6.76
2.15
-2.01
-4.43
-4.58
-2.52
1.33
6.21
10.89
13.6
12.88
8.61
2.15
-3.95
-7.07
-6.15
-2.3
1.7
3.15
0.68
-4.49
-9.76
-13.27
-14.77
-16.01
-18.73
-23.11
-27.02
-27.03
-21.22
-10.22
2.48
12.81
18.4
19.82
19.87
21.36
25.38
30.64
34.74
35.83
33.74
29.72
25.27
20.99
16.33
10.52
3.16
-4.98
-12.42
-17.59
-19.89
-19.6
-17.62
-14.89
-12.04
-9.56
-7.88
-7.46
-8.65
-11.29
-14.52
-16.89
-17.03
-13.82
-7.45
0.97
9.29
14.7
14.91
8.98
-1.72
-13.94
-23.2
-25.95
-20.63
-8.89
5.09
16.45
21.81
20.63
15.37
10.18
8.27
10.47
14.69
17.69
16.97
12.32
5.44
-1.02
-5.3
-7.09
-6.78
-4.47
0.31
7.94
17.05
24.13
24.84
16.3
-0.31
-19.94
-35.65
-42.21
-38.67
-28.62
-17.45
-9.68
-6.86
-7.8
-10.0
-11.68
-12.42
-12.37
-11.63
-9.69
-5.91
-0.61
4.72
8.47
9.83
9.69
9.8
11.59
14.9
17.99
18.72
16.07
10.93
5.47
1.82
0.55
0.83
1.07
0.2
-1.44
-2.71
-2.49
-0.46
2.56
5.25
6.46
5.79
3.71
1.24
-0.46
-0.68
0.45
2.41
4.3
5.44
5.64
5.22
4.75
4.71
5.28
6.24
7.27
8.02
8.42
8.61
8.81
9.22
9.97
11.07
12.41
13.63
14.08
12.99
9.74
4.31
-2.66
-9.97
-16.38
-21.03
-23.65
-24.54
-24.15
-22.96
-21.19
-19.18
-17.46
-16.52
-16.95
-18.89
-21.98
-25.16
-26.99
-26.03
-21.49
-13.83
-4.84
2.65
6.32
5.05
-0.16
-6.62
-11.11
-11.2
-6.24
2.59
12.76
21.8
27.86
30.34
29.74
27.12
23.62
20.08
17.31
15.77
16.04
18.08
20.98
23.2
22.86
18.88
11.75
3.48
-3.46
-7.37
-8.26
-7.35
-6.28
-6.04
-6.38
-6.75
-6.87
-7.26
-8.61
-11.1
-13.75
-14.74
-12.47
-6.15
3.4
14.45
24.72
32.39
36.18
35.51
30.62
22.47
12.96
4.56
-0.32
-0.33
4.27
11.16
16.92
18.36
13.71
3.46
-9.94
-23.06
-33.17
-38.92
-40.17
-37.13
-29.46
-17.25
-2.24
11.2
17.03
11.09
-5.94
-27.53
-44.72
-50.76
-45.2
-33.6
-23.86
-21.21
-25.27
-31.49
-34.8
-33.07
-27.59
-21.13
-15.09
-8.61
-0.04
10.99
22.82
32.37
37.75
38.9
37.6
36.04
35.41
35.33
34.73
32.3
27.14
19.23
9.45
-0.52
-8.78
-13.73
-14.56
-11.78
-6.6
-0.65
4.97
9.34
12.0
12.47
10.68
7.37
4.16
3.15
5.46
10.74
16.76
20.56
20.14
15.08
6.98
-2.05
-10.24
-16.72
-21.37
-24.55
-26.28
-26.42
-24.99
-22.45
-19.72
-17.96
-18.01
-20.15
-23.62
-26.98
-27.89
-24.44
-15.46
-1.89
13.27
25.59
30.91
27.17
15.6
0.6
-12.09
-17.57
-14.12
-3.75
8.72
18.28
21.74
18.8
12.2
5.44
1.37
0.68
2.62
5.43
7.54
8.04
6.19
1.36
-6.77
-17.56
-28.87
-37.39
-39.96
-35.18
-24.54
-11.77
-1.02
5.26
7.5
8.41
10.84
15.89
22.34
27.38
28.61
25.64
20.09
14.79
11.9
11.36
11.23
8.69
2.04
-8.29
-19.41
-27.46
-28.89
-22.11
-8.45
8.01
21.76
27.92
24.1
11.59
-5.36
-21.29
-31.96
-35.21
-31.29
-22.22
-10.25
2.23
12.99
19.93
21.7
18.28
11.46
4.14
-1.19
-3.17
-2.05
0.99
4.66
8.14
10.93
12.8
13.78
13.92
13.74
13.51
13.23
12.6
11.16
8.92
6.11
2.91
-0.62
-4.73
-9.48
-13.96
-16.87
-17.53
-16.25
-14.94
-15.42
-18.25
-21.73
-23.07
-20.24
-13.49
-5.86
-1.03
-1.6
-7.3
-15.45
-21.94
-23.35
-18.13
-6.76
8.42
24.23
36.77
42.67
39.89
29.08
13.86
-0.66
-9.56
-10.69
-5.37
2.41
8.81
11.54
10.97
8.91
6.36
3.14
-2.42
-11.43
-23.02
-34.0
-40.17
-38.68
-29.24
-14.82
0.44
12.3
18.45
19.13
16.57
13.56
12.29
13.21
15.01
15.43
12.42
5.41
-3.86
-12.36
-16.99
-16.03
-10.16
-2.11
5.02
8.82
8.86
6.55
3.76
2.03
2.26
4.58
9.07
15.65
23.55
30.69
34.15
31.0
20.36
4.28
-12.72
-25.06
-28.39
-21.45
-6.46
11.47
26.07
32.5
29.24
18.22
4.06
-8.04
-14.87
-15.86
-12.62
-7.48
-2.07
3.06
7.65
11.01
11.83
8.82
2.16
-6.41
-13.96
-17.96
-17.57
-13.85
-8.89
-4.54
-1.85
-0.96
-1.54
-2.98
-4.62
-5.89
-6.3
-5.49
-3.83
-1.98
-0.63
-0.21
-0.73
-1.74
-2.68
-3.09
-2.77
-1.85
-0.69
0.24
0.45
-0.4
-2.24
-4.66
-6.87
-8.08
-7.8
-6.1
-3.56
-1.05
0.74
1.5
1.43
0.99
0.65
0.62
0.83
1.09
1.21
1.16
1.01
0.9
0.91
1.03
1.11
1.02
0.73
0.32
-0.01
-0.09
0.13
0.54
0.94
1.13
1.04
0.73
0.37
0.17
0.22
0.47
0.81
1.05
1.1
0.92
0.57
0.12
-0.32
-0.67
-0.8
-0.67
-0.25
0.31
0.82
1.01
0.73
0.02
-0.93
-1.74
-2.12
-1.93
-1.22
-0.21
0.85
1.72
2.19
2.17
1.65
0.77
-0.19
-0.9
-1.07
-0.63
0.28
1.32
2.12
2.48
2.44
2.17
1.92
1.8
1.77
1.69
1.48
1.16
0.92
0.97
1.4
2.17
3.0
3.59
3.73
3.46
3.0
2.71
2.9
3.68
4.93
6.29
7.41
7.97
8.0
7.55
7.02
6.76
6.97
7.86
9.39
11.38
13.37
14.69
14.54
12.4
8.41
3.47
-1.09
-4.14
-5.19
-4.84
-4.27
-4.76
-6.99
-10.65
-14.78
-18.19
-20.2
-20.48
-19.31
-16.98
-13.89
-10.5
-7.51
-5.66
-5.35
-6.65
-8.83
-10.84
-11.57
-10.32
-7.15
-2.64
2.39
7.19
11.17
13.99
15.57
16.06
15.77
15.01
13.87
11.99
8.96
4.6
-0.55
-5.32
-8.39
-8.97
-7.39
-4.79
-2.65
-2.01
-3.1
-5.19
-7.55
-9.79
-11.9
-13.64
-14.19
-12.33
-6.98
1.66
11.75
20.22
24.22
22.45
15.87
7.09
-0.9
-6.23
-8.68
-9.34
-9.47
-9.69
-9.7
-8.92
-7.16
-5.0
-3.49
-3.38
-4.59
-6.2
-6.78
-5.35
-2.08
1.86
4.55
4.46
1.32
-3.69
-8.37
-10.55
-9.11
-4.51
1.54
6.83
9.5
8.73
4.95
-0.42
-5.49
-8.56
-8.79
-6.32
-2.18
2.1
5.0
5.62
3.88
0.78
-2.21
-3.49
-2.04
2.24
8.35
14.47
18.4
18.65
14.82
7.73
-0.6
-8.07
-12.98
-14.61
-13.18
-9.73
-5.39
-1.05
2.87
6.31
9.2
11.02
11.13
9.19
5.33
0.6
-3.55
-5.91
-6.03
-4.26
-1.61
0.92
2.22
1.32
-2.16
-7.97
-14.85
-20.69
-23.44
-21.8
-16.1
-7.96
0.41
7.41
12.43
15.71
18.07
19.97
21.46
21.77
19.79
14.51
5.88
-5.0
-15.77
-23.48
-26.01
-22.72
-14.68
-3.98
6.97
16.11
21.82
23.2
20.0
12.62
2.82
-7.14
-14.89
-18.83
-18.78
-15.83
-11.72
-7.99
-5.84
-5.46
-6.76
-9.3
-12.4
-15.03
-15.56
-12.54
-5.25
4.72
13.59
16.5
10.25
-4.27
-21.72
-34.13
-35.03
-22.92
-2.41
18.26
31.04
32.03
22.18
5.79
-11.93
-27.08
-37.16
-40.7
-36.64
-25.19
-8.35
9.61
23.31
28.89
25.51
15.85
4.28
-4.97
-9.69
-10.11
-7.57
-3.55
1.41
7.13
13.21
18.9
23.17
25.68
27.03
28.29
29.89
31.1
29.88
24.69
15.59
5.2
-2.58
-4.58
-0.11
8.41
17.26
23.18
25.33
25.26
24.76
24.18
21.88
15.63
4.48
-9.65
-22.79
-30.88
-32.05
-27.65
-21.05
-15.71
-13.36
-13.55
-14.62
-15.0
-14.03
-11.91
-9.42
-7.12
-5.39
-4.33
-3.94
-4.0
-4.42
-5.13
-6.61
-9.48
-13.4
-16.88
-17.51
-13.13
-3.7
8.15
17.88
21.38
17.67
9.85
3.35
2.75
8.6
16.91
21.97
20.03
11.95
2.27
-3.66
-3.34
1.81
7.93
11.49
11.97
11.57
12.93
16.53
19.79
18.67
11.02
-1.59
-14.3
-21.58
-20.53
-12.25
-1.1
7.86
11.62
10.24
6.2
2.73
1.86
3.5
6.34
8.98
10.81
12.02
12.68
12.2
9.3
2.96
-6.47
-16.73
-24.11
-25.62
-20.22
-9.52
3.12
14.17
21.1
22.24
16.95
5.19
-12.35
-33.27
-53.84
-69.3
-75.59
-70.65
-55.28
-33.02
-9.17
10.66
22.01
22.65
13.2
-2.8
-19.48
-30.47
-31.43
-21.84
-5.46
11.09
21.69
23.37
17.72
9.75
5.25
7.54
16.04
26.79
35.09
37.4
32.67
22.17
7.71
-8.87
-25.81
-40.55
-49.94
-50.78
-41.77
-24.72
-4.35
13.26
23.34
24.54
19.2
11.83
6.96
6.98
11.83
19.76
28.84
37.16
43.15
44.86
40.2
28.13
10.09
-9.98
-26.49
-34.92
-33.92
-25.5
-14.26
-4.34
2.15
5.33
6.66
7.5
8.29
8.64
8.01
6.54
5.06
4.44
4.87
5.59
5.07
2.03
-3.38
-9.31
-12.77
-11.5
-5.55
2.25
7.53
6.75
-0.31
-10.24
-17.6
-17.77
-9.78
3.34
15.99
23.46
24.03
19.75
14.85
13.06
15.38
19.6
21.86
19.3
11.48
1.14
-7.55
-10.96
-8.11
-1.28
4.75
5.3
-2.31
-17.06
-34.6
-48.96
-55.13
-50.7
-36.84
-17.74
1.76
17.94
29.15
35.98
39.42
39.92
36.83
29.5
18.27
5.19
-6.55
-14.27
-16.82
-15.16
-11.8
-9.15
-8.54
-9.64
-11.32
-12.54
-12.9
-12.56
-11.87
-10.7
-8.88
-6.32
-3.34
-0.48
1.63
2.71
2.99
2.78
2.59
2.68
3.05
3.6
4.16
4.62
4.83
4.83
4.57
4.1
3.67
3.5
3.86
4.83
6.22
7.58
8.39
8.27
7.21
5.58
3.99
3.13
3.42
4.97
7.42
10.03
11.68
11.24
7.88
1.51
-6.91
-15.74
-23.32
-28.61
-31.46
-32.75
-33.45
-34.18
-35.22
-36.31
-37.16
-37.44
-36.58
-33.84
-28.42
-20.11
-9.54
1.73
12.2
21.11
28.6
35.01
39.92
41.85
38.94
30.18
16.41
0.37
-14.28
-24.22
-27.74
-24.72
-16.39
-4.59
8.77
21.9
33.39
42.18
47.59
49.28
46.8
39.73
28.17
13.02
-3.49
-18.15
-27.88
-30.9
-27.07
-18.39
-7.85
1.42
7.6
10.37
10.85
10.65
11.03
12.16
13.11
12.61
9.87
5.35
0.29
-3.69
-5.89
-6.66
-7.0
-7.84
-9.25
-10.21
-9.59
-6.86
-2.45
1.52
2.68
-0.79
-8.93
-19.45
-28.73
-33.32
-31.54
-24.1
-13.51
-2.76
6.05
11.88
14.73
14.82
12.96
10.38
8.8
9.45
12.31
15.76
17.33
15.5
10.68
5.48
3.03
4.79
9.44
13.4
12.78
5.87
-5.15
-15.76
-20.98
-18.39
-8.99
3.02
11.96
13.08
4.46
-12.19
-31.94
-48.54
-56.79
-54.42
-42.63
-25.36
-7.04
9.01
21.55
30.69
36.62
38.81
36.14
28.26
17.11
6.55
0.58
1.08
6.77
14.05
19.35
20.5
17.8
12.82
7.58
3.34
0.82
0.39
2.2
5.98
10.69
14.54
15.62
12.54
5.19
-4.92
-15.0
-21.86
-23.06
-17.8
-7.79
3.59
12.3
15.42
12.3
4.18
-6.19
-16.23
-23.7
-26.77
-23.91
-14.96
-2.09
9.44
13.32
5.53
-12.73
-34.5
-49.87
-51.17
-37.51
-15.61
3.83
11.94
6.65
-6.33
-17.15
-17.74
-5.92
13.73
33.19
45.65
47.9
41.14
28.85
14.46
0.37
-12.44
-23.38
-31.58
-35.61
-34.13
-26.57
-14.04
0.37
11.88
15.71
9.51
-5.04
-22.06
-34.04
-35.15
-24.15
-4.92
15.89
32.52
42.39
46.21
46.35
44.18
40.18
34.07
26.61
19.58
14.53
11.84
9.97
6.76
0.98
-6.55
-13.64
-18.2
-19.7
-19.31
-18.88
-19.36
-20.09
-19.55
-16.57
-11.37
-5.65
-1.24
0.81
0.79
-0.08
-0.42
0.22
1.56
2.84
3.36
3.11
2.33
1.6
1.14
1.13
1.45
1.91
2.39
2.7
2.92
3.03
3.16
3.41
3.85
4.4
5.02
5.63
6.18
6.69
7.1
7.47
7.72
7.95
8.21
8.57
8.97
9.46
10.06
10.82
11.75
12.57
12.82
11.97
9.8
6.47
2.54
-1.38
-4.79
-7.48
-9.44
-10.63
-11.01
-10.53
-9.35
-7.82
-6.52
-5.83
-5.83
-6.23
-6.66
-7.0
-7.36
-7.76
-8.06
-7.8
-6.52
-4.17
-1.34
1.02
1.96
1.13
-0.99
-3.44
-5.23
-5.91
-5.67
-5.15
-4.87
-5.01
-5.28
-5.27
-4.87
-4.23
-3.71
-3.65
-4.12
-4.82
-5.39
-5.47
-5.05
-4.42
-4.02
-4.17
-4.94
-6.03
-6.91
-7.24
-6.96
-6.34
-5.78
-5.66
-5.88
-6.33
-7.04
-8.47
-11.14
-14.86
-18.43
-19.96
-17.99
-12.55
-5.34
1.19
5.26
6.71
6.87
7.33
8.78
10.06
9.3
4.95
-2.87
-12.37
-21.04
-26.96
-29.41
-28.54
-25.12
-19.86
-13.36
-6.17
1.24
8.22
14.14
18.28
20.52
21.09
20.87
20.95
22.36
25.19
28.6
30.95
30.73
27.78
23.24
19.33
18.0
19.81
23.74
27.57
29.21
27.45
22.29
14.61
5.77
-2.89
-10.06
-14.17
-14.45
-11.35
-6.49
-2.27
-0.46
-1.13
-2.67
-3.12
-1.72
0.06
-0.27
-4.4
-11.27
-17.54
-19.16
-14.51
-5.42
4.04
9.69
9.78
5.39
-0.83
-6.65
-11.15
-14.61
-17.26
-18.62
-17.67
-13.75
-7.41
-0.66
4.21
5.71
3.31
-2.15
-8.77
-13.87
-15.0
-10.88
-2.27
7.8
15.04
15.78
9.25
-1.99
-13.27
-19.62
-18.48
-10.55
0.83
11.47
18.0
19.31
16.81
13.19
11.27
12.35
15.77
19.37
20.66
18.28
12.76
5.99
-0.23
-4.98
-8.92
-13.27
-18.79
-24.82
-29.77
-31.82
-29.69
-23.55
-14.58
-4.97
3.32
8.96
11.4
11.09
9.22
7.01
5.12
3.79
2.48
0.24
-3.27
-7.9
-12.52
-15.33
-14.76
-10.22
-2.46
6.36
13.26
15.98
14.21
9.64
5.21
3.05
3.78
6.04
7.62
6.9
4.06
0.63
-1.32
-0.64
2.27
6.3
10.39
14.29
18.19
21.61
22.75
19.2
9.84
-3.67
-17.02
-25.51
-26.8
-22.01
-15.11
-10.42
-10.15
-13.38
-17.76
-21.31
-23.23
-23.86
-22.77
-18.49
-8.76
6.93
26.29
44.49
56.29
58.23
49.66
33.02
12.14
-8.17
-23.26
-29.25
-24.29
-9.89
9.03
25.24
32.57
28.66
15.65
-0.85
-14.59
-21.73
-21.65
-16.41
-9.19
-2.52
2.03
4.04
3.65
1.75
-0.06
0.01
2.91
7.85
12.42
13.76
10.56
4.1
-2.53
-6.05
-5.34
-2.08
0.18
-1.7
-8.28
-16.49
-21.71
-20.59
-13.12
-2.62
6.02
9.46
7.55
2.69
-1.76
-3.64
-2.75
-0.3
2.46
5.4
8.62
12.03
14.28
13.53
8.31
-1.07
-12.42
-22.32
-27.74
-27.07
-20.66
-10.74
-0.34
7.24
9.61
5.68
-3.39
-14.24
-22.5
-24.17
-17.83
-5.23
9.17
20.63
25.79
24.41
19.03
13.26
9.84
9.15
9.5
8.7
5.44
0.49
-3.69
-4.64
-1.25
5.41
12.11
15.13
11.99
2.93
-8.87
-18.8
-22.78
-19.34
-10.22
0.12
7.2
8.12
2.84
-6.2
-15.76
-23.55
-29.23
-33.52
-36.93
-38.43
-35.61
-26.45
-10.9
7.7
23.98
32.69
31.5
21.78
8.25
-3.84
-10.74
-11.22
-6.34
1.53
9.86
16.53
20.15
19.93
15.83
8.53
-0.67
-10.08
-17.53
-20.81
-18.09
-8.95
5.02
20.23
32.13
37.09
34.0
24.87
13.84
4.82
0.02
-1.03
-0.28
0.36
0.35
0.47
1.98
5.29
9.19
11.2
9.26
2.54
-7.64
-18.53
-27.31
-32.4
-33.9
-33.01
-30.98
-28.11
-23.64
-16.7
-7.44
2.71
11.61
17.52
19.72
18.67
15.56
12.16
10.12
10.58
13.69
18.26
22.13
22.84
19.16
11.72
3.22
-3.0
-4.46
-1.26
4.18
7.76
6.25
-1.03
-11.9
-22.29
-28.34
-27.76
-20.85
-9.95
2.1
12.66
20.05
23.36
21.95
15.71
5.46
-6.6
-17.16
-22.73
-21.53
-14.36
-4.67
3.1
5.52
1.85
-5.3
-11.87
-13.88
-10.28
-3.08
3.57
5.87
2.55
-4.2
-9.95
-10.88
-5.54
3.72
12.43
16.19
12.82
3.8
-6.9
-14.56
-16.09
-11.0
-1.57
8.79
16.94
20.84
20.2
15.37
7.31
-3.12
-14.19
-23.55
-28.14
-25.21
-14.08
3.3
22.02
36.29
41.77
37.28
25.09
10.06
-2.27
-8.1
-6.24
1.19
10.01
16.02
16.67
12.1
4.66
-2.52
-7.33
-9.22
-9.35
-9.17
-9.47
-9.88
-9.32
-7.15
-3.66
-0.36
1.25
0.43
-2.2
-5.13
-6.77
-6.21
-3.69
-0.35
2.38
3.63
3.27
1.96
0.75
0.51
1.57
3.59
5.89
7.73
8.75
9.0
8.85
8.8
9.19
10.09
11.34
12.58
13.49
13.93
13.94
13.82
13.98
14.86
16.54
18.51
19.71
18.87
15.1
8.42
-0.13
-8.9
-16.18
-20.89
-22.76
-22.27
-20.21
-17.36
-14.34
-11.57
-9.37
-7.99
-7.48
-7.74
-8.54
-9.52
-10.37
-10.89
-10.93
-10.56
-10.05
-9.78
-10.05
-10.85
-11.95
-12.83
-12.98
-12.02
-9.92
-6.95
-3.66
-0.64
1.58
2.55
2.01
-0.13
-3.64
-7.93
-12.05
-14.97
-15.71
-13.98
-10.42
-6.4
-3.82
-4.22
-8.13
-14.5
-21.27
-26.12
-27.69
-25.71
-21.03
-15.36
-10.3
-6.96
-5.6
-5.59
-5.61
-3.94
0.74
9.03
20.28
32.33
42.13
46.63
43.85
34.11
20.01
5.9
-3.75
-6.27
-1.69
6.98
15.57
20.71
21.35
18.74
15.52
14.18
15.89
20.66
27.18
33.5
37.43
36.63
29.67
16.63
-0.18
-16.89
-29.47
-35.17
-33.94
-28.02
-20.25
-12.69
-5.75
1.15
8.02
13.94
16.68
14.48
7.06
-3.88
-15.26
-24.33
-29.44
-30.53
-28.36
-23.94
-17.44
-8.33
3.52
17.07
29.8
38.2
39.34
32.38
18.97
2.9
-11.43
-20.69
-23.78
-22.11
-18.47
-15.2
-13.08
-11.41
-8.8
-5.15
-2.06
-1.87
-6.1
-13.82
-21.62
-25.57
-23.63
-16.84
-8.63
-2.37
1.18
3.83
7.96
14.41
21.42
25.61
24.67
18.92
11.29
5.61
4.21
6.91
11.57
15.33
16.36
13.75
7.44
-1.83
-12.7
-23.24
-31.35
-35.57
-35.54
-31.5
-23.59
-11.47
4.79
23.39
40.16
49.84
48.79
36.74
17.66
-2.0
-16.42
-22.46
-20.23
-12.11
-0.86
11.01
21.03
26.97
27.42
22.56
14.76
7.56
3.65
3.38
4.5
3.83
-0.31
-7.13
-14.13
-18.69
-19.75
-18.16
-15.82
-14.18
-13.73
-14.06
-14.56
-15.04
-15.6
-16.48
-17.53
-18.17
-18.09
-17.23
-15.78
-14.18
-12.5
-10.29
-6.8
-1.35
6.21
14.71
21.74
24.65
21.27
11.55
-2.63
-17.84
-30.42
-37.95
-40.12
-38.31
-34.31
-29.28
-23.36
-15.6
-5.37
7.0
19.27
28.32
31.65
28.7
21.23
13.06
7.94
7.85
12.8
20.97
30.06
38.17
43.68
45.2
41.43
31.13
14.08
-7.86
-30.93
-49.89
-60.01
-58.9
-47.44
-29.33
-9.56
7.17
18.65
25.14
28.85
31.91
34.8
36.3
34.1
26.95
15.6
3.0
-7.64
-14.02
-15.74
-13.93
-10.17
-5.5
-0.16
5.87
11.97
16.6
18.05
15.4
9.13
1.59
-4.03
-5.03
-0.25
8.97
19.72
28.55
33.17
32.75
28.48
22.05
15.44
9.91
5.98
3.56
1.88
0.25
-1.95
-4.42
-6.26
-6.33
-4.19
-0.29
3.92
6.95
8.17
7.88
7.08
6.25
4.92
2.1
-2.95
-9.93
-17.3
-23.32
-26.66
-27.27
-25.91
-23.67
-21.4
-19.66
-18.55
-18.14
-18.41
-19.2
-20.15
-20.74
-20.59
-19.66
-18.06
-16.33
-14.91
-14.23
-14.56
-16.25
-19.22
-22.62
-24.83
-23.68
-17.52
-6.28
7.97
21.58
30.83
33.51
29.89
22.4
14.3
8.1
4.78
3.86
4.25
5.12
6.19
7.46
8.84
10.04
10.65
10.57
9.93
8.72
6.85
3.75
-1.45
-9.13
-18.49
-27.73
-34.23
-35.74
-31.67
-23.12
-12.59
-2.5
5.8
11.98
16.09
17.84
16.16
10.37
1.4
-7.61
-12.46
-10.06
-0.71
11.55
21.1
23.9
19.67
12.08
6.08
5.39
10.57
19.11
27.18
31.69
31.49
27.72
22.47
16.98
11.13
3.42
-7.46
-20.56
-32.21
-37.34
-32.11
-16.82
3.19
19.7
25.77
19.8
6.31
-6.64
-12.32
-8.94
0.14
8.9
12.59
10.08
3.7
-2.41
-5.14
-3.43
0.96
4.96
5.49
0.74
-9.01
-21.09
-31.6
-37.0
-35.13
-26.32
-12.66
2.96
18.19
31.36
41.26
46.36
45.27
37.54
24.31
8.55
-5.75
-15.12
-17.61
-13.29
-4.2
6.2
14.21
17.07
13.85
5.77
-4.69
-14.61
-22.14
-26.62
-28.27
-27.3
-23.85
-17.89
-10.09
-2.02
4.42
7.66
7.73
6.0
4.33
3.82
4.59
5.84
6.56
6.45
5.67
4.65
3.94
3.92
4.58
5.7
6.83
7.37
6.83
4.95
1.92
-1.64
-5.07
-7.81
-9.71
-10.9
-11.76
-12.6
-13.5
-14.42
-15.16
-15.7
-15.88
-15.75
-15.08
-13.83
-12.22
-10.62
-9.72
-9.78
-10.55
-11.06
-10.29
-7.67
-3.58
0.84
4.39
6.36
6.96
6.92
6.93
7.14
7.23
6.81
5.86
4.87
4.42
4.91
6.09
7.33
8.04
7.98
7.37
6.58
6.1
5.92
6.03
6.17
6.08
5.78
5.27
4.69
4.18
3.93
3.99
4.41
4.97
5.23
4.65
2.82
-0.17
-3.63
-6.46
-7.68
-6.87
-4.45
-1.42
1.2
2.8
3.39
3.42
3.32
3.21
3.09
2.78
2.4
2.2
2.36
2.76
3.17
3.37
3.55
4.24
5.64
7.57
9.19
9.33
7.02
1.93
-5.47
-14.11
-22.76
-30.41
-36.14
-39.03
-38.16
-33.09
-24.28
-13.5
-3.26
4.13
7.68
7.85
6.38
5.18
5.65
7.98
11.29
14.21
15.62
15.14
13.14
9.99
6.1
2.11
-1.31
-3.36
-3.31
-1.03
2.78
6.91
10.27
12.08
12.3
10.97
8.1
3.44
-3.06
-10.7
-17.38
-20.27
-17.22
-8.35
3.61
14.09
19.08
17.05
9.61
0.64
-5.9
-7.9
-5.82
-1.98
1.21
2.52
2.3
1.89
2.57
4.4
6.48
7.7
7.35
5.62
3.5
2.0
1.91
3.37
5.88
8.48
10.11
9.74
6.96
2.05
-3.96
-9.58
-13.58
-15.38
-15.3
-14.11
-12.46
-10.61
-8.25
-5.19
-1.61
1.75
3.89
3.93
1.77
-1.8
-5.34
-7.32
-6.9
-4.4
-1.23
0.81
0.19
-3.2
-8.0
-11.83
-12.47
-9.09
-2.5
4.81
10.32
12.49
11.46
8.65
5.86
4.24
3.65
3.2
2.31
1.48
2.08
5.23
10.66
16.33
19.37
17.66
11.38
3.0
-4.14
-7.63
-7.39
-5.47
-4.36
-5.31
-7.79
-9.81
-9.55
-6.51
-1.83
2.56
5.06
5.18
3.63
1.83
1.07
1.81
3.76
6.2
8.54
10.2
10.8
10.19
8.18
4.86
0.73
-3.54
-7.39
-10.61
-13.15
-15.02
-15.75
-14.79
-11.76
-7.28
-2.86
-0.31
-0.58
-3.13
-6.07
-7.22
-5.49
-1.33
3.39
6.64
7.29
5.67
3.18
1.35
1.22
2.84
5.67
8.71
10.97
11.72
10.53
7.37
2.74
-2.38
-6.82
-9.44
-9.54
-7.3
-3.75
-0.4
1.39
1.06
-0.86
-3.41
-5.54
-6.87
-7.59
-8.29
-9.29
-10.11
-10.02
-8.48
-5.68
-2.51
0.02
1.44
2.12
2.85
3.99
5.09
5.2
3.47
0.04
-3.82
-6.77
-8.26
-9.28
-11.76
-17.09
-24.97
-33.09
-38.46
-38.66
-33.14
-23.3
-11.99
-2.16
3.96
5.68
4.04
1.22
0.15
2.88
9.91
19.89
29.73
36.21
37.23
32.35
22.69
10.3
-2.53
-13.54
-20.26
-20.57
-13.55
-0.58
14.7
27.32
33.56
32.48
26.07
18.36
12.25
8.89
7.54
6.95
6.64
7.4
10.09
14.47
19.03
21.7
21.27
18.1
13.54
8.99
4.49
-0.95
-8.13
-16.19
-22.73
-24.69
-20.1
-9.42
4.64
18.27
27.91
31.22
27.6
17.77
3.62
-11.85
-25.41
-34.28
-37.55
-35.98
-31.89
-27.66
-24.05
-20.03
-13.65
-3.67
9.0
21.44
30.03
32.58
29.02
21.2
11.47
2.1
-5.19
-8.7
-6.95
0.35
11.44
22.5
28.71
26.52
15.38
-2.09
-21.32
-37.75
-48.89
-54.23
-54.71
-51.48
-45.51
-37.4
-28.22
-19.52
-13.19
-10.77
-12.88
-18.44
-24.79
-28.13
-25.2
-14.92
1.08
18.87
33.71
42.45
44.07
39.83
31.93
22.31
12.34
2.7
-5.58
-11.37
-13.66
-11.93
-6.47
1.79
11.96
23.13
34.25
43.75
49.63
49.88
43.4
30.9
14.22
-3.48
-19.06
-29.92
-34.46
-32.29
-24.53
-13.38
-1.5
8.49
15.41
19.95
23.67
28.12
33.43
37.58
37.88
31.99
19.78
3.39
-13.75
-28.32
-38.07
-41.94
-39.95
-32.86
-22.5
-11.98
-5.03
-5.03
-12.74
-25.22
-36.91
-41.58
-35.22
-18.3
4.26
25.19
37.62
38.49
29.92
17.85
9.45
9.7
18.98
33.33
46.84
54.23
53.52
45.97
34.74
22.86
11.9
1.86
-7.71
-16.49
-23.42
-27.04
-26.61
-22.62
-16.68
-10.98
-7.49
-7.1
-9.45
-13.22
-16.59
-17.97
-16.85
-13.68
-9.74
-6.57
-5.28
-6.24
-8.95
-12.16
-14.48
-14.9
-13.27
-10.64
-8.91
-9.9
-14.4
-21.63
-29.41
-35.0
-36.85
-35.21
-31.86
-28.74
-26.4
-23.75
-18.97
-11.13
-1.45
7.16
12.13
12.98
11.74
11.66
14.91
21.1
27.8
32.14
33.07
32.26
32.87
37.59
46.68
56.9
62.92
59.82
45.57
22.39
-3.62
-25.38
-38.09
-40.83
-36.46
-29.39
-22.63
-16.37
-8.43
2.7
15.97
27.52
32.72
28.81
16.79
0.58
-15.1
-26.43
-32.25
-33.28
-31.08
-26.83
-21.0
-13.8
-5.91
0.91
4.42
2.54
-4.97
-15.84
-25.62
-29.58
-24.42
-10.23
9.38
27.95
39.1
38.89
27.4
8.87
-9.74
-21.67
-22.89
-13.43
2.61
18.69
28.96
30.3
23.24
11.57
0.19
-7.11
-8.85
-5.63
0.76
8.13
14.55
18.61
19.39
16.59
11.04
4.53
-0.96
-4.3
-5.93
-7.43
-9.55
-11.56
-10.66
-4.16
7.69
20.7
28.3
25.47
11.87
-6.69
-21.28
-24.94
-15.96
1.49
20.25
33.97
40.17
39.69
34.99
28.02
19.19
8.18
-4.88
-18.52
-30.31
-37.88
-39.84
-36.26
-28.84
-19.99
-12.43
-8.47
-8.82
-13.01
-19.2
-24.79
-27.45
-25.99
-20.64
-13.44
-7.88
-7.06
-12.0
-20.5
-28.14
-29.92
-22.97
-8.09
10.23
25.64
32.79
29.59
17.85
2.36
-11.25
-18.52
-17.05
-7.11
8.91
26.91
42.07
50.31
49.47
39.82
24.21
6.87
-7.68
-15.52
-14.65
-5.71
8.01
21.49
29.85
29.9
21.61
8.54
-3.87
-10.45
-8.78
-0.24
10.87
19.3
21.78
17.92
9.81
0.8
-6.7
-12.14
-16.07
-19.73
-23.7
-27.46
-29.72
-29.16
-25.22
-18.35
-9.52
-0.17
8.15
13.91
15.94
13.79
8.11
0.59
-6.64
-11.69
-14.03
-14.21
-13.5
-12.98
-12.76
-12.04
-9.45
-4.39
3.12
11.99
20.66
27.5
31.1
30.02
23.51
11.44
-4.66
-21.41
-34.35
-39.34
-34.21
-20.19
-1.27
17.35
31.34
38.33
38.5
33.43
25.26
16.12
7.47
0.54
-4.06
-6.21
-6.49
-5.91
-5.66
-6.5
-8.36
-10.82
-13.25
-15.07
-15.81
-15.45
-14.1
-12.52
-11.61
-12.42
-15.24
-19.33
-23.11
-24.91
-23.68
-19.8
-14.95
-11.5
-11.67
-16.28
-24.16
-32.21
-36.15
-32.3
-19.25
1.43
25.39
47.31
62.34
67.66
63.31
51.92
37.86
25.84
19.52
20.36
27.04
35.58
40.91
39.0
28.67
12.37
-4.82
-18.21
-25.53
-28.3
-30.18
-34.18
-40.02
-43.84
-40.5
-26.71
-3.92
22.1
44.08
56.71
58.64
52.27
41.37
29.04
16.82
4.84
-6.68
-16.82
-24.06
-27.26
-26.45
-22.96
-18.64
-15.22
-13.73
-14.17
-15.76
-17.31
-17.56
-15.92
-12.52
-8.5
-5.14
-3.52
-3.86
-5.67
-7.99
-9.48
-9.25
-7.04
-3.48
0.15
2.38
2.19
-0.34
-4.29
-8.24
-10.95
-11.69
-10.56
-8.19
-5.8
-5.02
-7.14
-12.54
-19.82
-25.72
-26.69
-20.83
-9.3
3.7
13.18
15.92
12.36
6.05
0.93
-0.92
-0.4
0.21
-0.59
-1.95
-1.18
4.39
15.09
28.56
41.11
49.87
54.13
54.99
53.43
49.3
41.19
28.54
13.25
-0.48
-7.77
-5.86
3.45
14.6
20.6
16.66
2.64
-16.81
-34.68
-45.06
-45.81
-38.82
-28.91
-20.53
-16.36
-16.03
-17.04
-16.85
-14.31
-10.47
-7.43
-6.8
-8.19
-9.32
-7.8
-2.5
5.29
12.67
16.3
14.56
8.12
-0.41
-7.96
-12.19
-12.46
-9.67
-5.37
-0.93
2.84
5.5
6.51
5.32
2.03
-1.82
-3.5
-0.0
9.81
23.95
37.62
45.24
43.65
33.58
19.67
7.65
1.29
0.94
3.94
6.79
7.27
5.3
2.07
-0.92
-3.12
-4.87
-6.78
-9.25
-11.98
-14.31
-15.39
-14.83
-12.73
-9.81
-7.04
-5.28
-4.93
-5.78
-7.11
-8.11
-8.24
-7.47
-6.21
-4.99
-4.38
-4.49
-5.08
-5.63
-5.51
-4.28
-1.92
0.84
2.66
2.13
-1.44
-7.43
-13.97
-18.56
-19.33
-15.87
-9.54
-2.65
2.61
5.08
4.84
2.88
0.4
-1.68
-2.9
-3.23
-2.88
-2.14
-1.42
-0.9
-0.69
-0.55
-0.32
-0.05
-0.04
-0.91
-3.03
-6.35
-10.06
-12.75
-13.2
-10.99
-6.67
-1.87
1.46
2.12
0.03
-3.68
-7.14
-8.65
-7.19
-2.86
3.28
9.29
13.27
13.94
11.06
5.67
-0.42
-5.43
-8.24
-8.33
-6.07
-2.39
1.5
4.33
5.44
4.68
2.82
1.06
0.28
0.86
2.09
2.62
1.0
-3.09
-8.64
-13.19
-13.89
-9.1
0.66
12.65
23.15
28.89
28.78
23.81
16.37
8.58
1.24
-5.63
-11.45
-14.5
-12.62
-4.8
7.1
18.54
24.3
21.47
11.04
-2.68
-14.41
-20.42
-20.31
-16.53
-12.62
-10.99
-12.45
-15.89
-19.8
-22.93
-24.89
-25.32
-23.75
-19.31
-11.16
0.23
12.83
23.32
28.65
27.82
22.76
17.75
17.37
23.73
34.94
45.83
50.26
44.7
30.04
11.48
-4.34
-12.69
-13.37
-10.3
-8.56
-11.32
-17.18
-21.49
-19.76
-11.17
0.32
8.18
7.74
-0.59
-11.42
-17.43
-14.43
-3.75
8.94
17.17
17.64
12.05
4.93
0.44
0.07
2.23
4.44
5.5
5.65
5.8
6.36
6.85
6.77
6.59
7.39
9.91
13.4
15.41
13.67
7.46
-1.36
-9.46
-14.08
-14.98
-13.93
-13.27
-13.84
-14.07
-11.69
-5.63
3.05
11.81
18.07
20.87
20.47
17.54
12.47
5.22
-3.84
-13.12
-20.11
-22.58
-19.98
-14.01
-7.66
-3.48
-2.29
-2.96
-3.74
-3.49
-2.28
-1.07
-0.72
-1.34
-2.46
-3.39
-3.72
-3.56
-3.24
-3.15
-3.36
-3.7
-3.84
-3.54
-2.75
-1.62
-0.42
0.6
1.22
1.35
1.02
0.36
-0.36
-0.83
-0.81
-0.27
0.6
1.45
1.99
2.05
1.7
1.21
0.91
1.01
1.51
2.21
2.84
3.19
3.23
3.1
3.04
3.25
3.76
4.45
5.1
5.52
5.63
5.47
5.2
4.99
4.97
5.26
5.97
7.06
8.3
9.19
9.05
7.36
4.04
-0.4
-4.98
-8.68
-10.84
-11.45
-11.01
-10.26
-9.74
-9.61
-9.7
-9.77
-9.65
-9.4
-9.23
-9.29
-9.63
-10.13
-10.62
-10.9
-10.97
-10.87
-10.76
-10.65
-10.46
-10.11
-9.71
-9.48
-9.58
-10.05
-10.54
-10.38
-9.36
-8.11
-7.73
-9.18
-12.23
-15.12
-15.29
-10.67
-1.14
11.31
23.39
32.09
35.72
34.26
28.44
19.23
7.46
-5.33
-16.37
-21.8
-18.65
-6.63
10.78
27.65
37.98
38.55
30.03
16.33
2.29
-8.53
-15.02
-17.56
-17.26
-15.0
-10.81
-4.96
1.75
7.77
11.64
12.95
12.38
11.1
10.0
9.53
9.71
10.55
11.9
13.54
14.58
13.74
9.97
3.28
-4.92
-12.41
-17.41
-19.32
-19.13
-18.63
-18.96
-19.69
-19.71
-18.07
-15.21
-12.71
-12.42
-14.92
-19.07
-22.42
-21.73
-14.98
-1.88
15.42
32.99
46.4
51.96
48.34
36.9
21.34
6.0
-5.21
-10.56
-10.15
-5.57
0.94
7.12
10.94
11.14
7.56
1.6
-4.14
-7.01
-5.38
-0.01
6.74
12.24
14.99
14.94
12.98
9.15
2.56
-7.51
-20.1
-31.35
-36.2
-31.32
-17.43
0.3
15.15
22.1
20.51
13.53
5.9
0.45
-2.58
-4.92
-7.75
-10.49
-11.58
-9.82
-6.01
-2.76
-2.47
-5.84
-11.12
-15.66
-17.83
-18.07
-18.52
-21.11
-25.9
-30.88
-32.92
-30.25
-23.23
-14.03
-4.67
4.08
13.01
23.16
34.52
45.41
53.23
55.87
53.03
45.98
36.67
26.39
15.64
4.94
-4.61
-11.22
-12.97
-9.04
-0.2
11.03
21.4
27.96
28.85
23.85
14.26
2.61
-8.39
-16.51
-20.34
-19.59
-14.8
-7.55
0.19
6.13
8.35
6.07
-0.11
-8.21
-15.53
-20.18
-21.88
-21.82
-21.9
-23.5
-26.47
-28.95
-28.21
-22.23
-10.86
3.58
17.12
25.57
25.77
17.21
2.25
-14.42
-27.15
-31.48
-26.03
-12.9
2.68
14.53
18.23
12.73
0.66
-12.98
-22.97
-26.26
-22.73
-14.98
-6.77
-1.1
0.52
-1.34
-4.77
-7.05
-6.05
-0.66
8.92
21.05
33.69
44.51
51.72
54.17
51.48
44.01
32.7
18.91
4.48
-8.39
-17.69
-21.57
-19.46
-12.43
-3.22
4.69
8.41
6.92
1.73
-4.41
-8.73
-9.87
-8.53
-6.37
-5.03
-5.1
-6.18
-7.17
-7.29
-6.34
-4.59
-2.69
-1.17
-0.46
-0.51
-1.16
-1.88
-2.23
-1.8
-0.6
1.02
2.37
2.95
2.49
1.18
-0.3
-1.35
-1.56
-1.03
0.1
1.62
3.5
5.73
7.87
9.12
8.49
5.71
1.52
-2.32
-4.07
-3.02
-0.11
2.53
2.93
0.57
-3.13
-5.69
-5.15
-1.39
3.75
7.58
8.14
5.32
0.63
-3.59
-5.76
-5.68
-4.41
-3.39
-3.5
-4.78
-6.29
-7.05
-6.49
-4.83
-2.83
-1.38
-1.11
-1.98
-3.53
-4.95
-5.58
-5.12
-3.79
-2.15
-0.96
-0.78
-1.8
-3.74
-5.86
-7.33
-7.48
-6.16
-3.86
-1.6
-0.59
-1.53
-4.3
-7.86
-10.61
-11.14
-9.01
-5.07
-1.15
0.82
-0.39
-4.53
-10.17
-15.49
-19.41
-21.68
-22.3
-20.79
-16.03
-7.32
4.42
15.87
22.81
22.58
16.33
8.61
5.04
8.76
18.25
28.37
33.51
31.07
22.89
13.58
7.4
5.59
6.33
6.5
3.95
-1.28
-7.28
-11.91
-13.97
-13.62
-11.86
-9.39
-6.68
-3.72
-0.9
1.09
0.93
-2.31
-8.55
-16.55
-23.78
-27.64
-26.0
-18.36
-5.67
9.61
24.35
35.32
40.13
37.81
29.27
17.31
6.02
-0.81
-1.12
4.38
12.36
18.3
18.76
12.95
3.22
-6.34
-11.87
-11.71
-7.01
-0.86
3.2
3.19
-1.03
-7.58
-13.92
-18.03
-18.78
-16.29
-11.36
-5.33
0.69
5.66
9.18
11.09
11.46
10.5
8.34
5.15
1.54
-1.67
-3.53
-3.45
-1.58
1.12
3.15
3.21
0.89
-3.34
-8.19
-12.39
-15.08
-16.01
-15.73
-14.95
-14.35
-14.31
-14.84
-15.78
-16.55
-16.58
-15.25
-12.52
-8.83
-5.2
-2.53
-1.23
-1.27
-2.13
-3.34
-4.63
-6.24
-8.38
-10.77
-12.09
-10.84
-6.24
0.98
8.48
13.77
15.53
14.5
12.95
13.18
16.11
20.59
24.62
26.81
27.5
28.42
30.99
35.04
38.25
37.63
31.5
20.72
8.13
-2.97
-10.44
-14.11
-15.09
-14.65
-13.06
-10.02
-5.38
-0.27
3.26
2.91
-2.33
-11.61
-22.56
-32.0
-36.69
-34.39
-24.66
-9.08
8.59
23.3
30.64
28.83
20.0
9.17
1.67
0.47
4.54
9.95
12.7
10.91
5.53
-0.74
-5.54
-8.12
-9.18
-9.8
-10.4
-10.71
-10.32
-9.07
-7.31
-5.55
-3.93
-2.32
-0.65
0.76
1.47
1.36
0.82
0.7
1.71
3.88
6.41
8.2
8.62
7.77
6.24
4.89
3.99
3.17
1.73
-0.8
-4.31
-8.08
-11.18
-12.94
-13.32
-12.78
-12.01
-11.46
-11.34
-11.58
-12.05
-12.63
-13.3
-13.91
-14.04
-12.96
-9.68
-3.68
4.62
13.43
20.31
23.07
20.84
14.62
6.83
0.23
-3.41
-3.94
-2.68
-1.45
-1.07
-1.1
-0.24
2.58
6.95
11.12
12.82
10.97
6.53
2.17
0.67
3.31
8.86
14.47
17.33
16.39
12.35
6.46
-0.34
-8.42
-18.2
-29.2
-39.17
-44.99
-44.22
-36.35
-23.21
-8.0
6.02
16.71
23.11
25.09
23.24
18.48
12.16
5.98
1.32
-1.01
-1.14
-0.05
1.34
2.21
2.32
1.96
1.39
0.59
-0.78
-2.55
-4.05
-4.16
-1.75
3.2
9.25
13.83
14.42
9.96
1.34
-8.77
-17.19
-21.7
-22.06
-19.76
-16.88
-14.89
-13.82
-12.36
-9.29
-4.41
1.0
5.17
6.98
6.85
6.94
9.53
15.42
23.07
29.08
30.18
25.24
16.31
7.6
3.17
4.63
10.34
16.41
18.95
16.14
9.11
1.17
-4.34
-5.63
-3.39
-0.18
0.86
-1.97
-8.08
-15.26
-20.39
-21.52
-18.23
-12.15
-5.77
-1.35
-0.19
-2.05
-5.59
-8.98
-10.87
-10.6
-8.42
-5.01
-1.03
2.99
6.52
9.01
9.99
9.1
6.38
2.4
-2.18
-6.49
-9.99
-12.45
-14.22
-15.21
-15.09
-13.11
-8.61
-1.99
4.88
9.37
9.69
5.92
0.35
-3.65
-3.55
0.82
7.51
13.36
16.01
14.89
11.03
6.2
1.74
-1.68
-3.73
-3.85
-1.28
4.16
11.45
18.4
22.63
22.69
18.84
12.52
5.41
-1.25
-7.17
-12.29
-16.46
-18.94
-19.18
-16.87
-12.56
-7.84
-4.71
-4.92
-9.01
-16.34
-24.55
-30.95
-32.68
-28.59
-19.63
-8.77
0.11
4.29
3.37
-0.33
-3.38
-3.01
1.69
9.81
19.91
31.03
42.76
54.27
63.63
67.71
63.58
50.59
31.47
11.76
-2.97
-9.82
-9.83
-7.11
-6.36
-10.0
-17.1
-24.75
-29.78
-31.02
-28.8
-24.37
-18.32
-10.77
-1.96
6.93
13.28
14.47
9.41
-0.32
-10.67
-17.05
-16.93
-11.14
-3.64
0.67
-1.05
-8.37
-18.08
-25.91
-29.15
-27.66
-23.38
-18.71
-14.65
-10.07
-2.9
7.95
21.28
33.35
39.81
38.11
28.58
14.47
0.33
-10.12
-15.05
-14.73
-11.12
-6.51
-2.44
0.43
2.22
3.42
4.05
3.74
2.02
-1.51
-6.58
-11.95
-16.23
-17.65
-15.72
-11.35
-6.89
-4.74
-6.17
-9.89
-12.82
-11.45
-3.76
9.43
24.32
36.38
41.68
39.12
30.15
18.17
6.61
-1.79
-6.07
-6.61
-4.71
-2.12
-0.47
-0.19
-0.72
-0.77
1.23
6.24
14.14
23.65
32.49
38.13
38.37
32.11
20.03
4.68
-10.43
-21.73
-27.29
-27.45
-24.23
-20.5
-18.7
-19.54
-21.99
-23.64
-21.86
-14.7
-2.12
14.07
30.13
41.85
46.25
42.64
32.75
20.09
8.09
-1.07
-6.97
-10.37
-12.06
-12.35
-11.08
-8.2
-4.2
-0.45
1.68
1.41
-0.96
-4.0
-5.93
-5.9
-3.94
-1.37
0.12
-0.78
-4.4
-10.06
-16.39
-21.7
-24.48
-23.91
-20.09
-14.15
-7.96
-3.57
-2.38
-4.6
-9.2
-14.29
-18.09
-19.7
-19.24
-17.63
-16.06
-15.25
-15.34
-16.2
-17.25
-17.65
-16.43
-12.86
-7.13
-0.59
4.91
7.96
8.49
7.72
7.16
7.74
8.68
8.72
7.26
5.72
6.87
13.03
23.8
35.55
43.15
42.78
34.45
21.98
10.72
4.33
3.45
6.09
9.67
12.89
16.12
20.05
24.45
27.53
26.94
21.47
11.95
1.17
-7.72
-12.69
-13.57
-11.62
-8.8
-6.43
-5.19
-4.95
-5.47
-6.17
-6.53
-6.04
-4.54
-2.59
-1.21
-1.56
-4.37
-9.57
-16.08
-22.36
-26.98
-28.96
-27.81
-23.2
-15.05
-3.92
8.56
19.68
26.29
26.21
19.24
7.66
-4.95
-15.1
-20.99
-22.86
-22.42
-21.65
-21.3
-20.57
-17.72
-11.69
-3.3
4.36
7.34
3.42
-6.22
-16.81
-21.92
-17.36
-3.33
15.47
32.4
42.14
43.16
37.0
26.23
12.45
-3.91
-21.83
-37.83
-46.38
-42.41
-24.39
2.92
30.22
47.57
49.38
37.16
18.3
1.71
-6.95
-7.09
-2.87
0.8
1.2
-1.53
-5.1
-7.39
-8.02
-7.99
-8.45
-9.34
-9.14
-6.08
0.24
8.69
17.44
24.92
30.56
34.49
36.3
35.26
29.89
18.73
1.82
-18.96
-39.53
-54.4
-58.44
-49.19
-28.0
-0.5
25.14
41.54
44.49
34.96
17.92
-0.09
-14.07
-22.35
-26.18
-27.85
-29.09
-30.25
-30.54
-28.86
-24.55
-17.7
-8.54
2.55
14.73
26.68
36.26
41.32
40.35
33.43
21.93
8.18
-5.2
-15.76
-21.48
-21.03
-14.25
-2.57
11.08
22.65
28.79
28.13
21.56
11.97
2.69
-4.28
-9.1
-13.45
-19.48
-27.68
-36.04
-40.69
-38.09
-27.2
-10.47
7.49
22.04
30.17
31.72
28.47
22.71
16.91
13.01
11.98
13.87
17.38
19.84
18.07
9.79
-5.01
-23.65
-42.08
-56.61
-65.07
-66.46
-60.08
-45.3
-22.82
4.45
31.28
51.35
60.06
56.14
42.13
23.08
4.67
-8.49
-14.06
-12.08
-5.37
1.69
4.55
0.57
-9.76
-22.4
-32.14
-35.32
-31.99
-25.81
-21.59
-22.05
-26.47
-31.31
-31.86
-25.33
-12.04
5.23
22.17
35.06
41.73
42.27
38.5
33.07
28.33
25.17
23.27
21.6
18.95
14.72
9.28
3.77
0.0
-0.23
4.0
12.34
22.49
30.78
33.5
28.57
16.69
1.06
-14.07
-25.6
-32.39
-35.53
-36.3
-35.2
-31.81
-25.44
-16.47
-6.35
2.51
8.24
9.73
6.87
0.08
-9.7
-20.92
-30.88
-35.85
-32.73
-20.24
-0.87
20.0
36.15
43.02
39.24
27.15
11.01
-4.78
-16.71
-23.06
-23.32
-17.76
-7.49
5.9
19.98
31.65
37.88
37.25
30.22
19.74
10.06
4.69
4.69
8.2
11.62
11.33
6.15
-2.34
-11.17
-17.61
-20.65
-20.35
-17.38
-11.87
-3.77
6.4
16.42
23.22
24.1
18.36
8.07
-3.18
-11.53
-15.19
-14.49
-11.66
-9.4
-9.5
-12.81
-18.34
-24.08
-27.47
-26.33
-19.5
-8.09
5.11
17.0
25.22
28.74
28.0
23.62
15.78
4.35
-10.08
-25.31
-36.92
-40.28
-32.26
-13.79
10.12
31.68
43.78
42.82
30.36
12.4
-3.84
-12.68
-12.43
-5.67
3.19
9.8
12.28
11.35
8.72
5.65
2.38
-1.75
-7.09
-12.86
-17.37
-19.29
-18.14
-14.44
-8.95
-2.1
5.87
14.2
21.46
25.43
24.61
18.98
10.64
2.57
-2.62
-4.33
-3.76
-3.02
-3.58
-5.43
-7.29
-7.81
-6.38
-3.64
-1.01
0.32
-0.24
-2.37
-4.95
-6.8
-7.09
-5.73
-3.28
-0.76
0.93
1.39
0.81
-0.13
-0.73
-0.58
0.27
1.45
2.49
3.1
3.25
3.16
3.07
3.2
3.57
4.07
4.54
4.82
4.9
4.89
5.06
5.62
6.61
7.71
8.4
8.03
6.29
3.27
-0.43
-4.0
-6.71
-8.22
-8.66
-8.51
-8.33
-8.5
-9.08
-9.87
-10.49
-10.61
-10.1
-9.16
-8.07
-7.26
-6.98
-7.16
-7.65
-8.24
-8.83
-9.25
-9.08
-7.78
-4.96
-0.83
3.58
6.77
7.51
5.57
1.92
-1.74
-4.0
-4.41
-3.69
-3.02
-3.23
-4.15
-4.88
-4.51
-2.77
-0.4
1.28
1.11
-1.16
-4.93
-8.67
-10.94
-10.89
-8.57
-4.96
-1.33
1.16
1.94
1.11
-0.71
-2.91
-4.88
-6.23
-6.72
-6.01
-3.91
-0.67
2.83
5.21
5.44
3.97
3.13
5.97
14.53
27.95
42.22
51.88
52.81
44.42
29.92
14.47
2.28
-5.14
-9.05
-11.88
-15.21
-18.73
-21.14
-21.3
-19.3
-16.56
-14.84
-15.29
-17.88
-21.48
-24.44
-24.69
-20.48
-11.09
2.27
16.58
27.52
31.31
26.62
15.28
1.39
-10.65
-18.0
-20.31
-19.21
-16.86
-14.61
-12.65
-10.64
-8.53
-7.27
-8.45
-13.18
-20.67
-27.71
-29.61
-22.49
-6.02
15.24
33.43
41.22
35.67
19.72
0.43
-14.92
-22.31
-21.8
-15.73
-5.96
6.88
22.42
38.49
50.6
53.37
44.39
25.91
4.51
-12.44
-20.53
-20.04
-14.89
-9.36
-5.77
-3.49
-0.29
4.87
10.95
14.78
13.64
7.52
-0.55
-6.28
-6.65
-2.01
3.98
6.94
4.76
-0.95
-6.07
-6.9
-2.2
6.01
14.06
18.83
19.89
18.53
16.81
15.5
14.11
11.79
8.65
6.17
6.34
10.27
16.81
22.85
24.63
19.75
8.86
-4.81
-16.81
-23.62
-24.15
-20.62
-16.93
-16.55
-21.03
-29.08
-37.72
-43.62
-44.63
-40.24
-31.34
-19.09
-4.88
9.28
20.81
27.03
26.53
20.34
12.1
6.15
5.48
9.96
16.02
19.09
15.91
6.5
-5.81
-16.43
-21.86
-20.89
-14.83
-6.64
0.85
5.42
6.17
3.63
-0.66
-4.63
-6.65
-6.59
-5.96
-7.32
-12.77
-22.37
-33.04
-39.37
-36.04
-20.45
5.25
34.25
57.42
67.12
60.45
40.69
15.49
-6.14
-17.84
-18.02
-9.23
3.49
15.07
22.21
24.12
21.98
18.2
15.61
16.05
19.65
24.67
28.32
28.18
23.8
16.87
10.29
6.58
6.05
6.83
6.08
1.88
-5.8
-15.21
-23.86
-30.28
-34.07
-35.9
-36.35
-35.46
-32.47
-26.81
-18.53
-8.77
0.16
5.58
5.44
-0.33
-9.44
-18.1
-22.51
-20.72
-13.51
-4.11
3.7
7.24
6.24
2.32
-2.13
-5.55
-7.57
-9.0
-10.99
-13.91
-17.22
-20.05
-21.71
-22.26
-22.26
-22.62
-24.09
-26.76
-29.45
-29.89
-25.37
-14.37
1.9
19.49
33.43
40.06
38.89
32.45
24.34
17.22
11.61
6.89
2.94
1.71
6.11
18.11
36.0
53.91
64.27
61.57
45.57
21.66
-1.52
-16.06
-18.07
-8.69
7.13
23.14
34.23
38.02
34.74
26.3
15.19
3.78
-6.16
-13.63
-18.39
-20.91
-22.0
-22.46
-22.82
-22.98
-23.06
-23.13
-23.48
-24.21
-25.24
-25.99
-26.15
-25.84
-25.24
-24.21
-21.74
-16.38
-7.5
3.83
14.66
21.68
23.22
20.28
15.74
12.3
10.4
8.35
4.01
-2.76
-9.31
-11.79
-8.01
0.84
10.88
18.14
21.0
20.99
20.75
21.57
22.57
21.43
16.59
8.92
1.19
-4.02
-5.9
-6.03
-7.04
-10.43
-15.73
-20.91
-23.8
-23.41
-20.28
-16.1
-12.88
-11.93
-13.57
-16.87
-20.21
-22.14
-22.09
-20.76
-19.56
-19.86
-21.98
-24.95
-27.05
-26.74
-23.41
-18.06
-12.72
-9.51
-9.62
-12.26
-14.95
-14.68
-8.9
2.95
19.14
36.44
51.46
61.95
67.22
67.54
63.22
54.54
41.56
25.37
8.33
-6.73
-17.36
-22.9
-24.48
-24.34
-24.09
-24.17
-23.73
-21.1
-15.26
-5.95
6.34
20.82
36.37
51.6
63.92
70.36
68.34
56.71
37.1
13.5
-8.68
-24.62
-31.85
-31.04
-25.33
-19.08
-15.98
-17.66
-23.72
-32.19
-40.11
-45.03
-45.68
-42.17
-35.76
-28.28
-20.95
-14.01
-7.17
-0.27
6.14
10.81
12.74
11.73
8.64
5.49
4.21
6.01
10.78
17.73
25.73
33.6
39.96
42.94
40.58
31.88
17.99
2.13
-11.73
-20.68
-23.73
-21.75
-16.15
-7.7
3.3
16.39
30.05
41.45
47.31
45.69
37.16
24.3
10.75
-0.75
-9.04
-14.36
-17.66
-19.76
-21.0
-21.43
-21.37
-20.97
-20.69
-20.81
-21.39
-22.41
-23.53
-24.31
-24.7
-24.7
-24.96
-26.56
-30.82
-37.97
-46.69
-53.94
-56.08
-50.48
-37.19
-19.12
-0.87
13.59
22.34
26.02
26.22
24.42
21.39
17.54
14.17
13.29
16.93
25.39
36.3
45.46
48.68
44.4
34.62
24.41
19.08
21.42
29.88
39.35
43.44
38.04
23.23
2.93
-16.92
-31.57
-39.08
-40.22
-36.75
-29.84
-19.73
-6.36
8.87
22.79
31.39
31.45
22.76
7.69
-9.53
-24.63
-34.2
-36.55
-31.17
-18.88
-1.88
16.6
32.17
41.2
41.88
35.26
24.81
14.92
8.64
6.36
6.42
6.11
4.04
0.5
-2.79
-4.4
-4.03
-2.91
-2.93
-5.28
-9.64
-14.56
-18.23
-19.77
-19.22
-17.43
-15.49
-14.11
-13.43
-13.46
-14.08
-15.28
-17.36
-20.48
-24.39
-27.85
-29.36
-27.75
-23.14
-17.6
-14.15
-15.04
-20.12
-26.46
-29.7
-26.46
-16.13
-1.28
14.37
27.57
36.65
41.58
42.8
40.88
36.6
31.81
29.06
30.61
36.79
44.89
50.09
47.84
36.64
19.17
1.16
-11.67
-16.3
-13.41
-6.74
-0.68
2.02
0.91
-2.48
-6.02
-8.39
-9.68
-10.97
-13.24
-16.35
-19.24
-20.25
-18.47
-14.6
-10.61
-9.06
-11.5
-17.83
-25.93
-32.74
-35.96
-34.91
-30.98
-26.69
-24.58
-25.59
-28.88
-31.97
-32.59
-29.69
-23.97
-16.99
-9.96
-2.78
5.69
16.43
29.27
42.57
54.34
63.34
69.43
72.92
73.39
69.16
58.05
39.26
15.31
-7.75
-22.27
-22.95
-9.85
11.17
30.94
41.13
38.15
24.37
6.34
-8.85
-17.07
-18.27
-15.9
-13.9
-14.43
-17.11
-19.67
-19.83
-16.67
-11.39
-6.49
-4.51
-6.64
-11.97
-18.03
-22.23
-23.2
-21.47
-18.85
-17.11
-16.86
-17.57
-18.08
-17.95
-17.97
-19.49
-23.22
-27.94
-30.18
-26.12
-13.75
5.32
25.99
41.73
47.47
41.89
28.1
11.93
-0.55
-5.82
-3.79
2.67
9.84
15.23
17.78
17.69
15.54
12.2
9.02
7.78
9.77
14.54
19.52
20.81
15.79
4.62
-9.27
-21.08
-27.03
-26.73
-22.63
-18.55
-17.04
-17.75
-18.12
-15.18
-7.8
2.73
12.97
19.33
19.41
13.31
3.82
-5.01
-9.56
-8.28
-2.55
4.15
8.25
7.9
3.74
-1.8
-6.08
-7.65
-6.89
-5.43
-4.93
-6.45
-9.87
-14.36
-18.83
-22.7
-25.47
-26.57
-24.95
-19.6
-10.37
1.64
13.42
21.45
23.38
19.9
14.54
12.08
15.32
23.26
31.61
35.63
33.16
25.92
18.19
13.88
13.98
16.21
17.04
14.42
8.87
3.02
-0.49
-0.8
0.58
1.35
-0.09
-3.78
-8.44
-12.54
-15.03
-15.77
-15.04
-13.11
-10.36
-7.19
-4.56
-3.71
-6.06
-11.96
-20.7
-30.1
-37.31
-39.46
-35.06
-24.68
-11.15
1.04
7.85
7.15
-0.16
-10.85
-20.86
-27.26
-29.15
-27.19
-22.44
-15.07
-4.93
7.51
19.75
27.94
28.93
22.72
13.32
6.54
6.62
13.32
21.63
24.9
18.97
5.51
-8.88
-16.24
-12.87
-1.83
8.33
8.97
-2.68
-21.43
-36.73
-38.92
-25.16
-1.07
22.95
37.78
40.97
37.26
34.55
38.2
47.56
57.18
61.02
56.67
46.2
34.13
23.93
15.98
8.36
-0.97
-12.02
-22.5
-29.59
-31.72
-29.55
-25.35
-21.74
-20.1
-20.24
-21.11
-21.42
-20.03
-16.24
-9.65
-1.04
7.92
15.11
18.92
18.97
16.22
12.08
7.43
2.06
-4.98
-14.16
-24.83
-34.72
-40.55
-39.32
-29.7
-13.16
6.21
22.76
31.75
30.87
21.4
7.61
-5.24
-13.4
-16.24
-15.65
-14.74
-15.56
-18.09
-20.53
-20.55
-17.24
-11.58
-6.06
-3.74
-6.89
-15.51
-26.94
-36.37
-38.79
-31.66
-16.27
2.33
18.11
27.11
29.11
26.71
23.05
19.3
14.42
7.39
-0.81
-6.41
-4.97
5.14
20.87
35.31
41.46
36.21
22.11
5.4
-7.05
-10.97
-6.18
4.32
16.14
25.25
28.87
26.11
17.67
5.41
-8.02
-19.91
-28.28
-32.39
-32.65
-29.99
-25.44
-20.13
-15.04
-11.06
-8.89
-8.13
-7.32
-4.3
3.29
16.27
32.99
49.39
60.06
60.97
51.94
36.63
20.86
9.47
3.83
2.08
0.73
-2.45
-7.24
-11.62
-13.47
-12.57
-10.97
-11.72
-17.2
-27.59
-40.68
-52.56
-58.72
-55.28
-40.54
-16.01
12.96
38.21
52.16
50.68
35.04
11.2
-13.8
-34.61
-49.2
-58.04
-62.17
-61.45
-55.49
-44.68
-31.63
-20.49
-14.71
-14.89
-17.93
-19.26
-15.26
-5.54
7.33
19.85
29.68
36.75
41.94
45.86
47.91
47.13
43.16
37.61
33.48
33.11
36.97
42.94
47.43
47.72
43.13
35.44
27.88
23.82
25.18
32.2
42.86
53.53
59.61
57.17
44.48
23.23
-1.48
-23.58
-38.38
-44.68
-44.71
-42.18
-39.89
-38.11
-35.61
-31.21
-25.59
-21.17
-20.85
-25.95
-35.05
-45.17
-53.55
-58.88
-61.17
-60.78
-56.85
-47.72
-32.11
-11.34
10.09
26.05
31.83
26.97
15.64
4.87
0.59
4.76
14.96
26.14
33.42
34.45
29.89
22.51
15.99
13.49
16.68
25.21
36.48
46.23
50.27
45.63
32.6
14.49
-3.66
-17.68
-25.88
-29.65
-31.44
-32.65
-32.05
-26.65
-14.56
3.05
20.88
31.91
31.04
17.94
-2.31
-21.65
-33.09
-34.06
-27.12
-17.77
-10.97
-8.53
-9.03
-9.96
-9.86
-9.0
-8.76
-10.15
-12.71
-15.17
-16.37
-16.6
-17.21
-19.24
-21.68
-21.57
-15.78
-3.43
12.82
28.06
37.25
38.52
33.31
25.02
16.86
9.74
2.35
-6.87
-17.82
-28.49
-35.6
-37.07
-33.28
-26.35
-18.31
-9.74
0.34
13.38
28.89
44.08
54.7
57.35
51.77
41.16
30.24
22.48
18.46
16.23
13.86
10.61
7.54
6.26
7.4
10.4
13.85
16.74
18.6
19.39
18.53
14.89
7.78
-2.32
-12.92
-20.69
-23.39
-21.15
-16.23
-11.78
-10.07
-11.06
-13.29
-14.86
-14.73
-13.15
-11.32
-10.51
-11.24
-12.93
-14.22
-14.11
-12.09
-8.83
-5.65
-3.93
-4.26
-6.17
-8.55
-9.91
-9.47
-7.29
-4.38
-2.16
-1.72
-3.24
-5.95
-8.52
-9.72
-9.13
-7.25
-5.3
-4.49
-5.51
-8.09
-11.25
-13.7
-14.45
-13.21
-10.36
-7.09
-4.49
-3.58
-4.94
-8.68
-14.23
-20.12
-23.94
-22.76
-14.23
1.9
22.81
42.89
55.51
55.65
42.69
21.27
-0.43
-14.38
-16.08
-6.36
9.97
26.73
38.98
44.62
43.57
36.79
25.36
10.8
-4.35
-15.98
-19.77
-14.37
-2.11
10.86
17.76
14.44
1.43
-16.65
-33.83
-45.71
-50.81
-49.55
-43.14
-32.29
-17.37
0.33
17.53
30.06
34.76
30.83
20.58
7.47
-5.54
-16.75
-25.75
-31.78
-33.4
-28.71
-16.75
1.19
20.92
36.99
44.95
42.91
32.8
19.27
7.88
2.46
3.4
7.76
11.07
9.95
3.74
-5.05
-12.45
-15.8
-15.26
-13.28
-13.09
-16.4
-21.91
-26.68
-27.15
-21.68
-11.67
-0.76
6.53
7.04
0.51
-10.31
-20.52
-24.78
-19.55
-4.45
17.43
40.31
57.78
65.1
60.75
46.73
27.62
8.55
-6.76
-16.81
-22.34
-25.29
-27.15
-28.18
-27.77
-25.22
-20.82
-16.47
-14.38
-16.18
-21.23
-26.24
-27.07
-20.95
-8.32
6.93
19.37
24.85
22.4
14.52
5.02
-2.97
-8.28
-11.07
-11.23
-7.47
2.04
17.99
38.57
59.69
76.26
84.31
82.19
70.53
51.66
28.97
6.15
-13.23
-26.47
-32.58
-32.33
-28.01
-22.5
-17.8
-14.53
-12.39
-10.75
-9.36
-8.5
-8.55
-9.51
-10.72
-11.45
-11.04
-9.44
-7.23
-5.25
-4.15
-4.12
-4.83
-5.64
-5.93
-5.36
-4.09
-2.56
-1.3
-0.66
-0.66
-1.01
-1.33
-1.34
-0.96
-0.36
0.21
0.51
0.4
-0.1
-0.89
-1.77
-2.52
-2.92
-2.87
-2.41
-1.71
-1.01
-0.5
-0.32
-0.44
-0.82
-1.32
-1.84
-2.26
-2.47
-2.37
-2.01
-1.54
-1.26
-1.46
-2.25
-3.53
-4.94
-6.06
-6.53
-6.29
-5.64
-5.11
-5.23
-6.35
-8.32
-10.59
-12.37
-13.09
-12.46
-10.82
-9.02
-7.93
-8.31
-10.45
-13.97
-17.85
-20.32
-19.73
-15.14
-7.19
1.84
8.63
10.09
4.9
-5.83
-18.59
-28.83
-32.26
-26.48
-11.3
10.65
34.55
54.4
64.44
61.22
45.02
20.22
-6.07
-26.4
-35.71
-32.69
-20.28
-4.5
8.39
14.41
13.37
8.33
3.16
0.6
0.83
2.26
3.47
5.0
9.19
17.98
30.81
43.7
51.58
51.06
42.88
31.16
21.02
14.88
11.27
6.27
-3.27
-16.89
-30.18
-36.91
-32.82
-18.65
-0.65
12.46
14.31
4.71
-9.75
-19.14
-16.26
-1.26
18.15
31.46
31.96
21.28
7.96
1.8
7.41
21.17
33.52
34.81
21.11
-3.86
-31.15
-51.15
-57.71
-50.03
-31.75
-9.16
11.23
24.31
27.59
21.41
8.73
-6.04
-18.53
-25.8
-26.89
-22.7
-15.31
-6.71
1.5
8.19
12.59
14.21
12.76
8.59
2.52
-4.35
-10.79
-15.71
-18.36
-18.55
-16.53
-13.05
-9.16
-6.0
-4.5
-5.01
-7.13
-10.16
-13.32
-16.26
-18.42
-18.64
-14.86
-4.96
11.68
32.76
53.0
66.05
67.41
56.76
38.22
18.22
2.4
-6.76
-10.28
-11.04
-11.46
-12.15
-12.13
-10.26
-6.5
-2.22
0.67
0.81
-1.77
-5.7
-9.14
-10.62
-9.61
-6.73
-3.18
-0.31
0.83
-0.27
-3.56
-8.44
-13.8
-18.36
-21.06
-21.37
-19.69
-17.09
-14.83
-13.7
-13.71
-14.2
-14.21
-13.13
-11.0
-8.57
-7.05
-7.61
-11.05
-16.91
-23.6
-28.72
-30.22
-27.21
-20.28
-10.91
-0.56
10.39
21.98
33.57
43.05
47.46
44.67
35.61
24.52
17.43
18.49
27.32
38.97
46.89
47.02
40.34
32.13
28.29
31.48
39.25
45.47
44.12
32.94
14.76
-4.58
-19.12
-26.09
-26.53
-24.15
-22.78
-24.43
-28.35
-32.23
-33.33
-30.06
-22.84
-13.76
-5.48
-0.19
1.44
-0.14
-3.54
-7.44
-11.01
-13.95
-16.23
-17.7
-18.0
-16.89
-14.45
-11.04
-7.2
-3.68
-1.29
-0.9
-3.04
-7.63
-13.4
-18.41
-20.86
-20.31
-17.7
-14.88
-13.48
-14.03
-15.99
-18.51
-21.19
-23.96
-26.28
-26.66
-23.06
-14.54
-2.51
9.43
17.71
20.8
19.72
16.99
14.65
13.13
11.82
11.06
12.77
19.4
31.8
46.84
58.17
59.65
48.93
29.44
8.96
-4.9
-8.56
-3.75
4.14
9.72
10.32
6.46
0.5
-5.34
-10.34
-15.31
-21.52
-29.32
-37.67
-44.61
-48.32
-48.09
-44.89
-40.69
-37.42
-35.37
-33.26
-28.61
-19.4
-5.43
11.56
28.67
43.18
53.69
59.79
61.12
56.9
46.38
30.3
12.22
-2.12
-6.96
0.73
19.48
43.66
65.84
79.74
82.32
74.15
58.22
38.3
17.93
-0.76
-16.35
-28.17
-35.82
-39.84
-41.08
-40.88
-40.37
-39.9
-38.7
-35.81
-30.74
-24.44
-19.19
-17.31
-19.67
-24.8
-29.34
-29.95
-25.18
-16.39
-6.99
-0.16
3.11
4.64
7.51
13.74
22.6
30.79
33.83
28.54
14.74
-4.57
-24.16
-38.32
-42.35
-34.26
-15.61
8.79
32.17
48.08
52.8
46.57
33.45
18.65
6.3
-2.68
-10.08
-18.53
-29.04
-39.78
-46.77
-45.74
-34.74
-15.32
7.43
26.99
37.64
36.89
26.25
10.41
-4.94
-15.56
-20.34
-20.67
-18.99
-17.22
-15.85
-14.34
-12.76
-12.12
-13.91
-18.4
-23.7
-25.96
-21.66
-10.06
5.91
20.17
26.59
21.85
7.2
-11.98
-28.86
-37.54
-35.18
-22.45
-3.18
17.39
33.71
41.04
37.05
22.49
1.34
-19.93
-34.52
-37.89
-28.76
-9.68
14.02
36.22
51.56
57.31
53.56
43.05
30.4
20.78
18.07
23.34
34.61
47.36
56.26
57.57
50.27
36.42
19.66
3.37
-10.24
-20.0
-25.51
-26.37
-22.43
-14.82
-5.83
1.52
4.56
2.46
-3.39
-10.66
-17.32
-22.49
-26.59
-30.46
-34.46
-38.01
-40.38
-41.07
-40.06
-38.05
-35.57
-33.59
-33.2
-34.98
-38.87
-42.71
-43.08
-36.21
-20.41
2.62
27.39
46.92
55.85
52.68
40.39
24.59
10.67
1.66
-1.83
-0.61
4.43
12.85
23.54
34.8
44.04
48.52
46.58
38.58
26.65
13.93
3.51
-3.08
-6.01
-6.92
-8.47
-12.65
-20.38
-30.36
-39.63
-44.15
-41.08
-29.67
-12.22
6.93
23.29
33.61
36.76
33.32
25.31
14.81
3.55
-7.62
-18.42
-28.25
-35.86
-39.06
-35.75
-25.58
-10.94
4.21
15.69
20.93
20.08
15.7
10.9
8.38
9.26
13.38
19.72
26.91
32.81
34.8
30.13
17.37
-1.91
-23.26
-40.83
-49.4
-46.72
-34.34
-16.51
1.68
15.85
23.47
24.37
19.9
12.08
3.07
-4.86
-9.56
-9.5
-3.83
6.74
19.71
30.71
35.05
29.43
14.25
-5.54
-22.38
-29.49
-24.42
-10.51
5.18
15.55
17.2
12.11
5.27
0.7
-1.15
-3.71
-11.25
-25.06
-41.01
-51.2
-48.78
-31.77
-5.05
21.86
39.39
42.16
31.48
13.99
-2.06
-11.01
-12.13
-9.03
-6.68
-8.27
-13.91
-21.05
-26.49
-28.39
-27.36
-25.27
-23.55
-21.96
-18.63
-11.61
-0.96
10.12
16.5
14.64
5.3
-6.12
-12.1
-7.39
7.31
25.64
38.6
39.38
27.35
7.74
-11.11
-22.9
-25.73
-21.86
-15.34
-9.05
-3.52
2.38
9.62
17.94
25.6
30.61
31.71
29.12
24.61
20.55
18.68
19.21
20.47
19.44
13.75
3.53
-8.03
-15.88
-15.58
-6.36
7.59
18.97
21.15
11.91
-5.5
-25.01
-40.55
-49.35
-51.6
-49.09
-43.01
-33.42
-19.74
-2.4
16.42
33.42
45.42
50.69
48.94
41.27
29.74
16.34
2.74
-10.0
-21.46
-32.11
-42.3
-51.31
-56.94
-56.2
-46.83
-29.0
-5.83
17.38
35.23
44.94
47.44
45.87
43.5
41.58
38.72
32.08
20.45
6.1
-5.65
-9.1
-1.81
12.96
27.15
32.22
23.56
3.17
-21.18
-40.28
-47.98
-43.55
-30.91
-16.09
-4.23
2.18
3.35
0.98
-3.34
-8.34
-12.63
-14.74
-13.57
-8.84
-1.86
4.64
8.08
7.4
4.06
0.99
0.67
3.91
8.94
12.86
13.31
10.21
5.18
1.0
-1.02
-2.04
-5.16
-12.94
-25.14
-37.88
-45.18
-41.74
-25.86
-0.82
26.61
48.88
60.24
59.06
47.96
32.36
17.87
8.13
3.38
1.21
-1.39
-5.89
-11.41
-15.19
-14.9
-10.28
-3.61
1.32
1.84
-1.77
-6.8
-9.5
-7.96
-2.59
4.16
9.68
12.56
13.08
12.08
10.31
8.23
5.75
3.09
0.53
-1.9
-4.51
-7.95
-12.63
-17.86
-21.89
-22.79
-19.48
-12.91
-5.44
-0.06
1.58
-0.29
-3.97
-7.14
-8.47
-7.95
-6.61
-5.62
-5.65
-6.68
-8.23
-9.89
-11.48
-12.99
-14.38
-15.38
-15.79
-15.25
-14.2
-13.54
-14.48
-17.89
-23.58
-30.08
-35.3
-37.28
-35.46
-30.37
-23.11
-13.96
-2.24
12.53
29.16
44.01
52.21
50.41
39.11
23.15
8.86
0.73
-1.46
-1.64
-4.05
-9.8
-15.61
-15.92
-6.87
10.59
31.18
48.31
57.65
58.99
55.12
49.09
42.51
34.81
24.77
12.63
0.64
-7.6
-9.64
-5.63
1.41
7.31
9.39
8.19
7.27
10.68
19.9
32.38
42.16
43.33
33.28
14.48
-6.72
-23.39
-31.65
-32.1
-28.48
-25.08
-23.95
-24.81
-25.95
-25.84
-24.22
-22.13
-20.68
-20.59
-21.71
-23.36
-24.9
-25.76
-25.75
-24.9
-23.34
-21.36
-19.44
-18.04
-17.38
-17.25
-17.23
-17.21
-17.47
-18.15
-18.78
-17.6
-12.32
-0.85
16.88
37.97
56.95
67.66
66.28
53.28
33.78
15.16
3.61
0.99
4.4
8.4
8.22
2.54
-6.65
-15.38
-20.27
-19.74
-14.39
-6.18
3.16
12.64
21.97
30.97
39.01
44.51
45.37
40.15
28.83
13.92
-0.96
-11.98
-17.21
-17.47
-15.49
-13.88
-13.41
-13.2
-11.68
-8.62
-5.01
-2.63
-2.34
-3.73
-5.56
-7.15
-9.1
-12.69
-19.16
-27.91
-36.6
-41.71
-40.2
-30.81
-14.97
3.59
20.18
30.58
32.89
28.2
19.88
12.0
6.95
4.73
3.49
1.23
-2.85
-7.68
-11.3
-12.35
-10.67
-7.83
-5.74
-5.91
-8.87
-14.32
-20.82
-26.26
-28.28
-24.73
-15.18
-1.28
13.0
23.18
26.49
24.18
20.75
21.47
28.96
41.32
53.18
58.79
55.28
44.04
29.47
16.11
6.54
0.55
-3.71
-7.87
-12.34
-16.4
-19.1
-20.39
-21.28
-22.84
-25.51
-28.62
-30.69
-30.3
-26.71
-20.31
-12.62
-5.54
-0.38
2.28
2.78
1.96
0.61
-0.74
-1.71
-2.1
-1.7
-0.46
1.28
2.88
3.71
3.24
1.41
-1.33
-4.32
-6.82
-8.44
-9.13
-9.26
-9.31
-9.64
-10.32
-11.02
-11.3
-10.76
-9.25
-6.95
-4.27
-1.64
0.56
2.11
2.85
2.79
2.11
0.97
-0.26
-1.37
-2.28
-3.06
-3.98
-5.14
-6.47
-7.64
-8.47
-9.04
-9.67
-10.85
-12.58
-14.4
-15.49
-15.25
-13.89
-12.22
-11.38
-11.96
-13.27
-13.68
-11.33
-5.53
2.4
9.43
12.44
9.78
2.29
-6.88
-13.79
-15.52
-10.7
0.06
14.78
30.63
44.28
52.68
54.43
50.72
45.16
41.8
42.95
47.56
51.68
50.87
43.03
30.03
16.4
6.83
3.17
3.54
4.09
1.31
-5.6
-14.5
-21.83
-24.93
-23.14
-18.13
-13.03
-10.4
-11.21
-14.48
-17.89
-19.39
-18.33
-15.76
-13.12
-11.62
-11.22
-11.41
-11.44
-11.16
-10.92
-10.82
-10.2
-7.8
-2.5
5.7
15.22
23.44
27.79
27.06
21.93
14.47
7.1
1.49
-1.8
-3.46
-4.45
-5.48
-6.78
-7.79
-7.86
-6.66
-4.46
-2.17
-0.64
-0.47
-1.39
-2.81
-3.72
-3.6
-2.37
-0.56
1.06
1.94
1.92
1.31
0.6
0.3
0.55
1.29
2.18
2.85
3.11
2.95
2.6
2.41
2.68
3.45
4.5
5.33
5.49
4.68
2.92
0.56
-1.92
-4.04
-5.53
-6.33
-6.64
-6.82
-7.26
-8.18
-9.53
-11.04
-12.25
-12.8
-12.63
-11.97
-10.96
-9.67
-8.04
-5.93
-3.53
-1.38
0.07
0.89
1.94
4.5
9.28
15.7
21.76
24.96
23.61
17.88
9.71
1.84
-3.62
-6.1
-6.51
-6.32
-6.5
-7.17
-7.56
-6.95
-5.2
-2.93
-1.2
-0.98
-2.53
-5.27
-7.8
-8.51
-6.49
-1.95
3.67
8.37
10.42
9.1
4.86
-1.04
-7.09
-12.11
-15.42
-16.83
-16.4
-14.55
-11.97
-9.54
-8.07
-7.95
-8.91
-10.29
-11.38
-11.92
-11.98
-11.73
-11.07
-9.84
-7.83
-5.5
-3.89
-4.29
-7.47
-12.72
-18.04
-20.63
-18.08
-9.44
4.61
21.87
39.65
55.28
66.32
70.73
67.27
55.85
38.26
18.17
0.45
-10.34
-11.7
-4.51
7.07
17.45
21.75
18.04
7.75
-5.29
-17.01
-25.06
-29.15
-30.55
-30.19
-28.15
-23.79
-16.97
-9.22
-3.22
-1.08
-2.68
-5.1
-4.64
0.68
9.43
17.27
19.4
13.51
1.46
-12.21
-22.76
-27.97
-28.79
-27.84
-27.22
-27.05
-25.69
-21.58
-15.11
-8.61
-4.91
-5.32
-8.85
-12.74
-14.37
-12.55
-7.42
0.22
9.87
20.66
30.92
37.79
38.6
32.21
20.2
6.63
-4.41
-10.06
-10.07
-5.76
1.54
11.07
22.6
34.7
44.79
49.73
47.89
39.9
28.48
16.89
7.35
0.68
-3.15
-4.02
-1.84
3.15
9.28
13.49
12.62
5.16
-6.94
-19.05
-25.74
-23.96
-14.5
-2.12
6.91
8.23
0.89
-12.19
-26.1
-35.8
-37.95
-31.62
-18.39
-2.17
12.18
19.69
18.05
8.1
-6.1
-19.65
-29.02
-33.46
-34.0
-31.63
-25.89
-15.26
0.14
17.1
29.52
32.07
23.9
9.82
-2.3
-6.47
-2.19
5.35
9.08
5.47
-2.89
-9.29
-7.85
1.97
14.48
21.59
18.31
6.53
-5.8
-10.17
-2.69
13.52
31.05
42.94
46.87
45.45
43.27
42.91
43.06
39.99
30.56
15.29
-2.0
-16.27
-24.14
-25.35
-22.32
-18.12
-14.85
-13.0
-12.24
-12.15
-12.42
-12.67
-12.45
-11.59
-10.27
-9.2
-9.22
-10.81
-13.46
-16.07
-17.72
-18.5
-19.3
-21.22
-24.45
-27.97
-30.12
-29.78
-27.09
-23.53
-20.62
-19.13
-18.66
-18.18
-17.03
-15.05
-12.59
-9.85
-6.78
-3.34
-0.03
2.45
4.12
5.98
9.68
15.95
23.85
30.77
33.84
31.84
25.59
17.6
10.2
4.81
1.91
1.51
3.88
8.92
15.74
22.21
26.53
27.91
27.69
28.0
29.8
31.82
31.15
25.84
16.7
7.36
1.78
1.84
5.78
9.04
7.74
0.66
-9.79
-19.5
-24.75
-24.56
-20.76
-16.37
-14.05
-13.96
-14.55
-13.25
-8.65
-1.75
4.47
6.39
2.44
-6.06
-14.91
-19.51
-17.43
-10.02
-1.48
3.71
3.36
-1.37
-7.22
-10.72
-10.9
-9.13
-7.72
-7.89
-8.43
-6.76
-0.47
10.32
22.9
32.69
35.76
30.61
18.67
3.89
-9.39
-18.03
-21.2
-20.02
-16.75
-13.47
-11.28
-10.12
-9.51
-8.83
-7.77
-6.74
-6.19
-6.36
-6.8
-6.93
-6.83
-7.08
-8.8
-12.32
-16.9
-20.73
-22.09
-20.61
-17.48
-14.78
-14.08
-15.76
-18.82
-22.21
-25.55
-29.11
-32.86
-35.26
-33.72
-26.05
-12.32
4.56
20.17
31.04
36.18
37.29
36.68
35.41
32.94
28.12
20.94
13.17
7.54
5.87
7.76
11.1
13.64
14.99
17.06
22.53
32.74
45.97
57.33
61.1
54.13
37.46
16.33
-2.21
-12.83
-13.93
-7.87
1.07
9.21
15.12
19.44
23.73
28.73
33.85
37.02
36.07
29.76
18.51
4.37
-9.74
-20.84
-27.12
-28.62
-27.29
-25.87
-26.33
-28.81
-31.71
-32.83
-30.84
-26.36
-21.51
-18.48
-18.41
-21.02
-25.02
-28.74
-30.79
-30.09
-26.21
-19.71
-12.14
-6.12
-4.38
-8.56
-17.68
-28.46
-36.72
-39.34
-35.99
-28.73
-20.55
-13.22
-6.63
0.42
8.54
16.41
21.31
20.98
15.7
8.5
3.51
3.99
10.32
20.56
31.79
42.4
52.07
60.8
67.28
68.83
62.61
48.0
27.87
8.22
-4.12
-4.99
5.51
22.63
39.13
48.22
46.11
33.13
13.0
-8.8
-27.2
-39.26
-44.25
-43.09
-37.49
-29.23
-19.89
-11.06
-4.42
-1.37
-2.63
-7.73
-15.04
-21.9
-25.5
-23.99
-17.05
-6.25
5.36
14.31
18.03
15.53
8.0
-2.13
-12.11
-20.16
-25.43
-27.69
-26.39
-20.67
-10.27
3.32
16.78
26.03
28.21
23.45
14.71
6.29
1.38
0.4
1.24
0.47
-4.21
-12.92
-23.57
-33.33
-39.69
-41.13
-37.09
-27.77
-14.35
0.92
15.34
26.37
32.48
33.66
30.59
24.0
13.85
0.4
-14.76
-27.99
-34.5
-30.46
-15.21
7.9
32.32
50.97
59.05
55.64
43.39
26.83
10.69
-1.82
-9.56
-13.06
-13.66
-13.16
-12.93
-13.71
-15.48
-17.41
-18.49
-18.0
-15.8
-12.19
-8.1
-4.45
-2.28
-2.28
-5.17
-10.97
-18.76
-26.66
-32.41
-34.14
-31.08
-23.99
-14.47
-3.86
7.01
17.58
26.7
32.68
34.17
31.13
25.11
18.78
14.37
12.29
11.0
8.53
3.94
-1.67
-6.31
-8.76
-9.66
-11.38
-15.85
-23.22
-31.44
-37.47
-39.57
-38.05
-34.0
-28.0
-19.4
-7.18
8.06
22.93
32.1
31.03
18.76
-0.74
-20.83
-34.77
-38.81
-33.23
-21.48
-8.12
3.09
10.06
12.55
12.01
10.75
11.3
15.32
22.79
32.04
40.14
44.98
46.07
45.16
45.01
47.81
53.35
58.82
59.92
53.17
38.14
17.92
-1.73
-15.11
-19.22
-15.16
-7.15
-0.6
0.67
-3.99
-12.51
-21.47
-28.04
-31.22
-31.86
-31.9
-33.1
-36.43
-41.11
-45.21
-46.03
-41.45
-30.75
-14.85
3.73
22.08
37.42
48.46
55.5
59.55
61.23
60.08
55.09
45.72
33.1
19.97
9.47
3.38
1.1
-0.01
-3.03
-9.55
-19.02
-29.01
-36.74
-40.6
-40.41
-37.45
-33.11
-28.73
-25.25
-23.79
-25.4
-30.39
-37.59
-44.13
-46.08
-40.3
-26.56
-8.31
8.58
18.14
17.29
7.01
-8.05
-21.24
-27.04
-22.96
-9.99
8.0
26.1
40.08
47.08
46.15
38.16
26.0
13.59
5.1
3.35
7.71
14.63
18.57
14.9
2.77
-14.35
-29.51
-35.97
-30.65
-15.56
3.43
19.68
28.35
27.86
19.06
4.45
-12.61
-27.91
-36.71
-35.41
-23.41
-4.14
15.78
29.29
32.2
24.68
10.49
-5.62
-19.89
-30.14
-35.23
-34.14
-26.46
-12.97
3.71
19.57
31.46
38.16
40.96
41.9
42.02
40.48
35.73
27.21
16.35
5.95
-1.69
-6.37
-10.5
-16.69
-25.54
-34.33
-38.2
-32.76
-16.99
5.81
29.0
45.29
50.07
43.11
28.63
13.5
3.97
2.85
8.61
16.17
19.97
16.62
6.67
-5.98
-16.82
-23.25
-26.2
-29.09
-35.12
-44.71
-54.45
-59.2
-55.07
-41.5
-22.02
-2.81
10.22
13.7
7.71
-4.34
-17.71
-27.58
-30.47
-25.31
-13.41
1.55
14.81
22.35
22.48
16.35
6.91
-2.44
-9.32
-12.84
-13.79
-12.99
-11.5
-10.08
-9.42
-10.15
-11.89
-13.38
-12.04
-5.86
5.31
18.63
29.75
34.76
32.44
24.82
15.08
5.88
-2.94
-12.82
-24.68
-36.94
-45.0
-43.63
-30.02
-6.4
20.46
42.45
53.71
53.3
45.34
36.08
30.38
29.73
32.51
35.55
36.26
33.37
27.13
18.54
8.99
-0.01
-6.25
-7.66
-2.68
8.71
24.18
39.56
50.02
52.36
45.93
33.16
18.1
4.33
-6.36
-14.69
-22.25
-30.48
-38.93
-45.4
-47.42
-44.29
-37.76
-31.48
-28.98
-32.14
-39.83
-49.1
-56.52
-59.61
-57.51
-50.58
-40.46
-29.7
-21.35
-18.43
-22.73
-32.93
-44.51
-51.37
-48.24
-33.54
-10.45
14.44
34.11
44.2
44.61
38.68
31.03
25.2
22.64
23.18
26.07
31.12
38.14
46.13
52.57
53.84
47.52
33.74
15.98
-0.07
-9.16
-8.66
0.24
13.51
26.56
36.7
43.45
48.04
51.72
54.25
54.44
50.61
41.99
29.14
13.56
-3.14
-19.27
-33.54
-45.05
-52.54
-54.7
-50.24
-39.16
-23.13
-5.9
7.92
14.6
12.94
4.88
-5.79
-15.29
-21.78
-25.54
-27.88
-29.37
-29.24
-26.09
-18.83
-8.11
4.05
14.52
20.61
21.42
17.18
9.3
-0.63
-10.99
-20.91
-29.21
-34.9
-37.03
-34.45
-26.57
-13.71
2.44
19.53
34.56
45.16
50.17
49.83
45.39
38.45
30.75
23.56
17.52
12.51
8.05
3.61
-1.16
-6.2
-11.31
-16.19
-20.62
-24.51
-27.43
-28.94
-28.71
-26.92
-23.91
-20.32
-16.35
-11.83
-7.12
-3.26
-1.33
-1.78
-3.9
-5.7
-5.29
-2.11
1.93
3.45
-0.31
-9.2
-19.8
-27.11
-27.77
-22.52
-15.57
-12.03
-14.4
-20.94
-26.53
-26.07
-17.34
-2.49
12.94
23.21
24.28
15.55
-0.28
-18.41
-33.47
-40.52
-36.84
-23.02
-2.91
17.76
33.83
42.28
43.06
38.46
31.38
24.48
19.67
18.24
20.76
26.81
34.31
39.47
38.41
29.11
13.14
-4.47
-17.19
-20.2
-12.05
4.75
24.9
42.83
53.98
55.96
48.91
35.38
19.48
5.91
-1.88
-3.25
-0.64
1.48
-0.23
-6.17
-13.37
-17.75
-17.2
-13.12
-9.48
-10.02
-15.29
-22.59
-28.16
-29.53
-26.91
-22.25
-17.21
-12.14
-6.18
0.83
7.75
11.97
11.35
5.97
-1.63
-7.88
-10.35
-8.66
-4.26
1.0
6.02
10.45
14.2
16.48
16.17
12.43
5.71
-2.37
-9.57
-13.98
-14.92
-13.17
-10.09
-7.08
-5.13
-4.32
-4.41
-5.09
-5.92
-6.55
-6.71
-6.38
-5.56
-4.51
-3.52
-2.86
-2.64
-2.75
-2.98
-3.11
-2.96
-2.49
-1.84
-1.21
-0.83
-0.78
-0.97
-1.24
-1.41
-1.34
-1.0
-0.52
-0.07
0.13
-0.05
-0.57
-1.24
-1.8
-1.94
-1.52
-0.6
0.53
1.42
1.72
1.28
0.26
-0.87
-1.59
-1.46
-0.38
1.3
2.85
3.44
2.55
0.2
-2.83
-5.34
-6.29
-5.25
-2.57
0.68
3.24
4.37
3.67
1.18
-2.71
-6.99
-9.87
-9.31
-3.79
6.52
19.42
31.15
37.97
37.73
30.87
20.0
8.56
-0.72
-6.74
-9.93
-11.43
-12.11
-12.24
-11.77
-10.52
-8.91
-7.55
-7.13
-8.08
-10.36
-13.13
-15.1
-15.18
-12.74
-8.13
-2.58
2.09
4.41
3.72
0.41
-4.17
-8.55
-11.61
-13.1
-13.31
-12.73
-11.57
-9.87
-7.51
-4.59
-1.46
1.48
3.81
5.42
6.3
6.32
5.39
3.38
0.33
-3.64
-8.2
-12.92
-17.18
-20.28
-21.55
-20.77
-18.15
-14.67
-11.73
-10.4
-11.24
-14.13
-18.25
-22.01
-23.28
-20.22
-11.85
1.0
15.58
27.72
33.51
31.01
21.06
6.74
-7.65
-17.99
-21.69
-17.81
-7.3
7.39
22.98
36.29
45.12
49.04
49.6
49.43
50.93
54.67
59.07
60.7
55.9
43.04
23.42
1.13
-18.96
-33.17
-40.68
-43.47
-44.88
-47.19
-50.51
-52.86
-51.61
-44.8
-32.21
-15.19
4.03
23.19
39.91
51.8
56.74
53.61
42.53
25.58
6.17
-11.45
-23.39
-27.6
-24.23
-15.82
-6.17
1.31
4.91
5.35
5.07
6.35
10.2
15.68
20.6
22.97
21.54
16.18
7.53
-3.3
-14.99
-25.78
-33.92
-37.62
-35.82
-28.41
-16.65
-3.16
8.64
15.29
14.46
6.37
-6.48
-19.52
-28.44
-31.04
-28.34
-23.66
-20.46
-19.89
-20.1
-17.6
-9.69
3.3
18.68
32.88
43.51
50.26
54.17
55.46
52.88
45.09
32.2
17.0
4.11
-2.59
-2.32
2.55
8.24
12.06
13.99
15.21
16.27
15.87
11.39
1.59
-11.93
-24.68
-32.1
-32.18
-26.81
-20.38
-17.2
-18.88
-23.75
-28.54
-30.34
-28.31
-23.94
-19.73
-17.34
-17.29
-19.36
-22.64
-26.32
-29.45
-30.17
-25.8
-14.09
5.22
29.1
51.79
66.44
68.56
58.13
40.26
22.46
11.1
8.32
11.65
15.83
16.4
12.13
5.19
-0.9
-3.82
-4.01
-4.1
-6.55
-11.11
-14.44
-12.02
-1.28
15.87
33.17
43.17
41.18
27.51
7.37
-11.84
-24.24
-27.99
-25.41
-20.72
-17.74
-17.75
-19.89
-22.0
-22.41
-20.83
-18.15
-15.6
-14.04
-13.72
-14.11
-14.37
-13.91
-12.55
-10.82
-9.41
-8.96
-9.56
-10.85
-12.21
-13.15
-13.59
-13.76
-13.99
-14.29
-14.65
-14.88
-15.15
-15.76
-16.84
-17.88
-17.23
-12.95
-3.6
10.84
28.55
46.95
63.17
74.94
80.04
76.6
63.32
40.72
12.2
-16.02
-36.68
-44.24
-37.62
-21.0
-1.87
12.14
16.2
10.29
-1.82
-15.0
-25.06
-30.07
-30.35
-26.65
-19.3
-7.64
8.71
28.08
46.39
57.85
57.65
44.75
22.78
-1.26
-20.37
-30.37
-31.54
-27.5
-22.58
-19.75
-19.66
-21.11
-22.94
-24.11
-24.35
-23.74
-22.12
-19.15
-14.63
-8.77
-2.11
4.44
9.57
12.07
10.85
5.48
-3.36
-13.61
-22.44
-26.73
-24.61
-16.16
-3.43
10.25
22.0
30.38
35.92
40.29
45.08
49.92
52.72
50.49
41.17
25.5
6.67
-10.6
-22.5
-27.68
-27.06
-22.61
-15.18
-4.26
10.78
28.77
45.44
55.07
53.2
39.62
19.12
-0.32
-12.19
-14.08
-8.98
-2.9
-0.9
-4.53
-10.98
-15.8
-15.78
-11.25
-5.45
-2.69
-5.56
-13.42
-22.92
-30.05
-32.5
-30.42
