2013-02-24 12:21:58
64.0
-0.0
-0.0
-0.0
-0.0
-0.0
-0.0
-0.0
-0.0
-0.0
-0.0
0.0
0.01
0.01
-0.0
-0.03
-0.05
-0.05
0.0
0.13
0.36
0.66
1.01
1.37
1.72
2.06
2.4
2.79
3.24
3.8
4.42
5.06
5.66
6.2
6.68
7.15
7.68
8.31
9.14
10.09
11.04
11.88
12.56
13.14
13.76
14.65
15.96
17.91
20.32
22.9
25.38
27.58
29.57
31.68
34.32
37.81
42.54
48.15
54.1
59.83
64.97
69.58
74.14
79.34
85.71
93.76
103.0
112.62
121.73
129.77
136.75
143.3
150.75
157.77
166.64
177.95
191.79
206.97
220.57
228.25
225.36
208.53
176.87
132.76
80.05
23.07
-34.94
-92.44
-149.16
-205.23
-260.37
-313.74
-363.87
-409.83
-450.91
-486.5
-515.74
-537.23
-549.22
-549.96
-538.37
-514.21
-478.67
-433.88
-382.45
-327.02
-269.84
-212.63
-156.66
-102.95
-52.37
-5.9
35.58
71.43
101.35
125.5
144.38
158.69
169.15
176.37
180.75
182.57
182.07
179.51
175.23
169.65
163.18
156.15
148.81
141.3
133.69
126.02
118.33
110.69
103.16
95.8
88.68
81.83
75.25
68.95
62.95
57.25
51.86
46.78
42.03
37.59
33.45
29.61
26.07
22.81
19.83
17.11
14.67
12.48
10.54
8.83
7.35
6.07
4.97
4.05
3.27
2.62
2.09
1.65
1.3
1.01
0.79
0.61
0.47
0.37
0.28
0.22
0.18
0.15
0.13
0.12
0.13
0.14
0.15
0.17
0.2
0.24
0.27
0.31
0.35
0.4
0.45
0.49
0.54
0.6
0.65
0.71
0.77
0.83
0.9
0.98
1.07
1.17
1.27
1.39
1.53
1.67
1.84
2.03
2.24
2.47
2.72
3.0
3.31
3.65
4.02
4.43
4.88
5.36
5.88
6.43
7.03
7.67
8.36
9.09
9.87
10.69
11.56
12.47
13.42
14.44
15.52
16.66
17.86
19.11
20.4
21.67
22.86
23.89
24.66
25.05
24.95
24.25
22.89
20.79
17.96
14.46
10.36
5.85
1.15
-3.53
-7.94
-11.9
-15.29
-18.03
-20.13
-21.58
-22.42
-22.71
-22.51
-21.89
-20.94
-19.78
-18.55
-17.33
-16.2
-15.13
-14.09
-13.01
-11.81
-10.51
-9.19
-8.01
-7.12
-6.55
-6.21
-6.02
-5.78
-5.33
-4.67
-3.98
-3.59
-3.78
-4.64
-5.96
-7.56
-9.01
-9.92
-10.2
-10.12
-10.18
-10.88
-12.42
-14.58
-17.23
-19.89
-22.06
-23.6
-24.79
-26.22
-28.67
-33.0
-39.91
-50.22
-63.46
-77.73
-90.1
-97.54
-98.08
-91.83
-81.16
-66.11
-49.89
-35.48
-24.53
-17.06
-12.07
-8.26
-4.53
-0.22
5.07
10.93
17.08
23.11
28.4
32.2
33.92
33.28
30.52
26.39
21.52
16.89
13.35
11.21
9.99
8.65
6.0
1.37
-4.91
-11.73
-17.21
-19.42
-17.12
-10.26
0.16
12.38
24.59
35.45
44.15
50.5
54.67
56.84
57.11
55.66
52.86
49.22
45.23
41.04
36.49
31.34
25.62
19.82
14.73
11.08
9.09
8.37
8.16
7.77
6.88
5.56
4.01
2.4
0.69
-1.22
-3.39
-5.81
-8.41
-11.15
-14.13
-17.46
-21.19
-25.33
-29.84
-34.58
-39.19
-43.04
-45.19
-44.75
-41.12
-34.37
-25.27
-14.98
-4.7
4.72
12.88
19.85
25.91
31.36
36.39
40.89
44.57
46.95
47.64
46.51
43.85
40.17
36.01
31.67
27.12
22.17
16.74
11.04
5.61
1.02
-2.41
-4.85
-6.86
-9.14
-12.15
-15.92
-20.08
-24.03
-27.23
-29.35
-30.43
-30.76
-30.9
-31.35
-32.51
-34.41
-36.59
-38.26
-38.45
-36.34
-31.52
-24.19
-14.96
-4.71
5.72
15.65
24.54
31.99
37.71
41.61
43.77
44.47
44.1
43.14
42.06
41.34
41.3
42.11
43.7
45.81
48.01
49.83
50.79
50.51
48.68
45.18
40.1
33.69
26.42
18.74
11.0
3.4
-4.0
-11.11
-17.82
-23.99
-29.59
-34.78
-39.91
-45.36
-51.3
-57.6
-63.72
-68.8
-71.87
-72.03
-68.67
-61.68
-51.54
-39.42
-26.89
-15.74
-7.41
-2.73
-1.61
-3.21
-6.2
-9.4
-12.11
-14.27
-16.21
-18.34
-20.71
-22.9
-24.16
-23.82
-21.54
-17.46
-12.07
-5.85
0.91
8.15
15.82
23.59
30.81
36.62
40.32
41.77
41.36
39.84
38.0
36.29
34.8
33.36
31.75
29.95
28.08
26.23
24.34
22.11
19.14
15.17
10.34
5.34
1.19
-1.03
-0.57
2.73
8.33
15.26
22.37
28.61
33.34
36.34
37.75
37.89
37.1
35.59
33.47
30.78
27.6
24.02
20.07
15.67
10.66
4.93
-1.35
-7.68
-13.36
-17.76
-20.63
-22.13
-22.66
-22.58
-21.94
-20.53
-18.04
-14.37
-9.7
-4.55
0.37
4.38
6.93
7.74
6.8
4.31
0.66
-3.61
-7.87
-11.36
-13.36
-13.31
-11.03
-6.8
-1.29
4.66
10.38
15.55
20.33
25.04
29.89
34.74
39.0
41.89
42.82
41.67
38.84
34.96
30.61
26.04
21.1
15.5
9.15
2.33
-4.39
-10.42
-15.42
-19.38
-22.58
-25.34
-27.82
-30.02
-31.9
-33.34
-34.21
-34.31
-33.43
-31.49
-28.63
-25.29
-22.09
-19.75
-18.81
-19.65
-22.34
-26.67
-32.07
-37.62
-42.15
-44.64
-44.6
-42.18
-38.16
-33.52
-29.01
-25.02
-21.65
-19.05
-17.48
-17.29
-18.69
-21.45
-25.04
-28.74
-32.12
-35.14
-38.11
-41.37
-45.07
-49.04
-52.88
-56.17
-58.49
-59.48
-58.77
-56.03
-51.15
-44.26
-35.78
-26.29
-16.37
-6.41
3.33
12.76
21.84
30.5
38.6
45.95
52.26
57.08
60.03
60.82
59.54
56.73
53.33
50.4
48.88
49.31
51.69
55.58
60.27
65.05
69.38
72.94
75.67
77.58
78.64
78.81
78.02
76.48
74.75
73.77
74.71
78.44
85.16
94.23
104.25
113.62
121.16
126.58
130.59
134.49
139.67
147.1
157.02
168.8
180.98
191.43
197.74
197.72
190.08
174.93
153.82
129.31
104.22
80.72
59.88
41.78
26.07
12.75
2.65
-2.51
-0.77
9.12
26.79
49.86
74.21
95.19
108.99
113.84
110.32
100.8
88.26
75.14
62.61
50.68
38.67
25.69
10.82
-7.26
-30.48
-61.17
-100.94
-149.24
-202.46
-254.28
-297.48
-326.49
-339.43
-338.47
-328.48
-314.61
-300.29
-286.61
-273.08
-259.11
-244.95
-231.73
-220.53
-211.56
-203.86
-195.92
-186.72
-176.25
-165.4
-155.26
-146.41
-138.6
-131.0
-122.74
-113.28
-102.58
-90.83
-78.19
-64.57
-49.71
-33.36
-15.48
3.72
23.87
44.36
64.38
82.84
98.46
110.11
117.02
119.03
116.59
110.51
101.86
91.71
81.08
70.86
61.79
54.25
48.21
43.21
38.6
33.8
28.62
23.27
18.19
13.83
10.34
7.57
5.12
2.53
-0.58
-4.44
-9.12
-14.53
-20.26
-25.7
-30.07
-32.72
-33.41
-32.53
-31.06
-30.14
-30.55
-32.25
-34.28
-35.17
-33.49
-28.58
-20.73
-10.97
-0.61
9.28
18.0
25.18
30.57
34.01
35.44
35.15
33.73
31.94
30.29
28.82
27.18
24.95
22.01
18.64
15.43
12.88
11.2
10.29
9.91
9.92
10.38
11.46
13.2
15.41
17.63
19.29
19.93
19.38
17.82
15.67
13.35
11.11
8.93
6.5
3.51
-0.24
-4.68
-9.46
-14.09
-18.1
-21.2
-23.35
-24.7
-25.5
-25.94
-26.0
-25.34
-23.39
-19.6
-13.71
-6.0
2.57
10.69
17.13
21.1
22.56
22.03
20.28
17.95
15.4
12.62
9.48
6.01
2.36
-1.17
-4.33
-7.11
-9.65
-12.14
-14.58
-16.75
-18.28
-18.91
-18.6
-17.61
-16.32
-15.07
-13.97
-13.0
-12.09
-11.36
-11.21
-12.11
-14.36
-17.81
-21.73
-25.15
-27.15
-27.4
-26.28
-24.79
-24.06
-24.86
-27.18
-30.26
-32.92
-34.05
-32.9
-29.26
-23.31
-15.45
-6.33
3.26
12.32
19.78
24.83
27.22
27.24
25.63
23.27
20.71
18.29
16.04
13.99
12.24
10.89
9.99
9.47
9.23
9.25
9.64
10.47
11.66
12.95
13.99
14.58
14.81
15.06
15.63
16.68
17.95
18.95
19.14
18.2
16.08
12.98
9.17
4.84
0.14
-4.85
-10.09
-15.49
-20.9
-26.09
-30.68
-34.14
-35.86
-35.22
-31.82
-25.6
-16.91
-6.55
4.42
14.85
23.81
30.79
35.73
38.76
40.05
39.7
37.76
34.42
30.18
25.77
21.8
18.58
15.91
13.34
10.53
7.5
4.65
2.51
1.38
1.22
1.71
2.55
3.57
4.74
6.04
7.33
8.37
8.91
8.87
8.38
7.72
7.06
6.38
5.38
3.62
0.71
-3.5
-8.83
-14.84
-20.97
-26.63
-31.33
-34.66
-36.27
-35.87
-33.2
-28.22
-21.2
-12.79
-3.92
4.43
11.53
17.04
21.04
23.87
25.92
27.42
28.37
28.65
28.11
26.75
24.71
22.35
20.13
18.44
17.51
17.23
17.2
16.73
15.29
12.68
9.26
5.75
2.93
1.26
0.66
0.66
0.71
0.46
-0.02
-0.43
-0.49
-0.16
0.17
-0.13
-1.7
-4.96
-9.85
-15.82
-21.85
-26.75
-29.47
-29.45
-26.9
-22.68
-17.93
-13.61
-10.17
-7.48
-5.14
-2.84
-0.55
1.39
2.6
2.79
1.86
-0.12
-3.09
-6.99
-11.8
-17.43
-23.67
-30.19
-36.64
-42.82
-48.65
-54.24
-59.7
-65.15
-70.56
-75.79
-80.66
-84.95
-88.43
-90.83
-91.76
-90.75
-87.38
-81.53
-73.48
-63.81
-53.14
-41.7
-29.23
-15.18
0.89
18.95
38.3
57.73
75.82
91.32
103.34
111.4
115.4
115.54
112.4
106.81
99.81
92.45
85.6
79.87
75.54
72.67
71.09
70.4
69.96
69.02
66.99
63.55
58.85
53.24
47.13
40.72
33.92
26.51
18.4
9.78
1.15
-6.89
-13.88
-19.69
-24.53
-28.79
-32.94
-37.4
-42.39
-47.95
-53.81
-59.44
-64.03
-66.72
-66.69
-63.35
-56.48
-46.33
-33.62
-19.52
-5.37
7.57
18.39
26.62
32.14
35.02
35.35
33.43
29.68
24.83
19.81
15.4
12.02
9.5
7.35
5.07
2.51
-0.05
-2.03
-2.95
-2.72
-1.61
-0.23
0.86
1.18
0.5
-1.29
-4.1
-7.73
-11.89
-16.31
-20.75
-25.13
-29.53
-34.17
-39.38
-45.52
-52.82
-61.15
-69.93
-78.0
-83.89
-86.11
-83.63
-76.24
-64.56
-49.86
-33.69
-17.46
-2.32
11.0
22.13
30.95
37.51
41.95
44.42
45.09
44.15
41.84
38.4
34.08
29.11
23.77
18.46
13.66
9.89
7.53
6.61
6.76
7.4
7.95
8.11
7.89
7.56
7.34
7.29
7.2
6.63
5.09
2.06
-2.85
-9.83
-18.78
-29.08
-39.59
-48.71
-54.78
-56.5
-53.32
-45.55
-34.26
-20.95
-7.2
5.65
16.72
25.58
32.26
37.06
40.49
43.05
45.14
47.02
48.79
50.32
51.32
51.37
50.07
47.16
42.7
37.15
31.26
25.82
21.44
18.32
16.24
14.62
12.71
9.88
5.79
0.54
-5.32
-11.07
-15.99
-19.69
-22.2
-23.98
-25.84
-28.65
-33.2
-39.82
-48.18
-57.14
-64.88
-69.35
-68.92
-62.91
-51.91
-37.57
-22.07
-7.34
5.36
15.57
23.4
29.18
33.21
35.76
37.15
37.93
38.81
40.47
43.3
47.23
51.8
56.36
60.36
63.5
65.79
67.42
68.57
69.24
69.11
67.7
64.42
58.95
51.35
42.09
31.86
21.32
10.92
0.9
-8.52
-17.04
-24.21
-29.61
-33.17
-35.31
-36.81
-38.52
-40.87
-43.64
-45.96
-46.61
-44.51
-39.08
-30.49
-19.61
-7.76
3.73
13.84
22.06
28.32
32.77
35.54
36.6
35.91
33.57
29.97
25.86
22.09
19.45
18.34
18.75
20.28
22.38
24.5
26.19
27.25
27.52
26.96
25.5
23.08
19.62
15.11
9.67
3.53
-2.96
-9.52
-15.91
-22.02
-27.81
-33.24
-38.26
-42.87
-47.18
-51.35
-55.59
-59.89
-63.86
-66.65
-67.1
-64.07
-57.0
-46.18
-32.77
-18.55
-5.3
5.71
13.96
19.63
23.28
25.51
26.68
26.96
26.41
25.22
23.71
22.33
21.43
21.17
21.41
21.93
22.56
23.31
24.42
26.17
28.6
31.35
33.74
34.93
34.36
31.87
27.69
22.25
15.89
8.8
1.06
-7.14
-15.5
-23.66
-31.48
-39.1
-46.76
-54.54
-61.95
-67.87
-70.77
-69.2
-62.33
-50.31
-34.28
-16.09
2.12
18.42
31.43
40.44
45.43
46.84
45.39
41.88
37.13
31.86
26.65
21.88
17.62
13.73
9.98
6.31
2.89
0.12
-1.56
-1.96
-1.17
0.42
2.35
4.27
6.0
7.45
8.56
9.2
9.22
8.52
7.08
4.97
2.23
-1.15
-5.31
-10.35
-16.35
-23.25
-30.87
-38.88
-46.78
-53.79
-58.92
-61.04
-59.15
-52.7
-41.88
-27.6
-11.4
5.05
20.25
33.24
43.64
51.48
56.93
60.08
60.83
59.08
54.95
48.92
41.87
34.78
28.52
23.6
20.11
17.91
16.77
16.55
17.1
18.19
19.5
20.63
21.31
21.53
21.51
21.61
22.19
23.36
25.0
26.7
27.96
28.21
26.99
24.01
19.3
13.15
6.01
-1.74
-9.91
-18.63
-28.05
-38.06
-48.02
-56.74
-62.72
-64.62
-61.6
-53.71
-41.72
-26.98
-11.07
4.5
18.53
30.16
38.86
44.38
46.73
46.13
43.03
38.07
32.0
25.5
19.07
13.02
7.58
3.0
-0.44
-2.47
-3.04
-2.34
-0.79
1.15
3.12
4.89
6.25
7.04
7.21
6.93
6.64
6.84
7.76
9.13
10.24
10.16
8.28
4.46
-0.9
-7.24
-14.08
-21.17
-28.4
-35.66
-42.75
-49.39
-55.34
-60.3
-63.84
-65.28
-63.74
-58.5
-49.35
-36.77
-22.02
-6.75
7.35
18.91
27.15
31.96
33.79
33.48
31.9
29.72
27.24
24.45
21.3
17.86
14.46
11.55
9.54
8.61
8.73
9.71
11.44
13.88
16.99
20.71
24.82
29.07
33.2
36.93
39.98
41.97
42.43
40.97
37.37
31.75
24.52
16.25
7.47
-1.45
-10.27
-18.82
-26.91
-34.36
-41.1
-47.24
-52.95
-58.2
-62.52
-64.93
-64.28
-59.72
-51.24
-39.77
-27.0
-14.82
-4.83
2.01
5.42
5.68
3.41
-0.59
-5.45
-10.4
-14.85
-18.49
-21.23
-23.26
-24.77
-26.03
-27.22
-28.37
-29.39
-30.07
-30.15
-29.58
-28.56
-27.52
-26.95
-27.25
-28.49
-30.4
-32.52
-34.31
-35.44
-35.87
-35.82
-35.62
-35.59
-35.79
-36.02
-35.88
-35.02
-33.33
-31.13
-29.0
-27.5
-26.78
-26.31
-25.05
-21.88
-16.03
-7.46
3.18
14.77
26.19
36.48
45.01
51.33
55.2
56.56
55.62
52.94
49.3
45.58
42.44
40.28
39.17
38.89
39.14
39.6
39.97
40.1
39.99
39.64
39.11
38.36
37.31
35.91
34.22
32.45
30.81
29.43
28.29
27.32
26.43
25.57
24.6
23.23
21.02
17.58
12.86
7.22
1.32
-4.2
-9.09
-13.43
-17.44
-21.04
-23.69
-24.5
-22.63
-17.78
-10.26
-1.0
8.89
18.37
26.66
33.26
37.87
40.32
40.54
38.59
34.62
29.01
22.35
15.44
9.14
4.14
0.69
-1.46
-2.88
-4.22
-5.76
-7.43
-8.81
-9.46
-9.21
-8.28
-7.15
-6.27
-5.87
-5.87
-6.03
-6.14
-6.19
-6.4
-7.22
-9.14
-12.61
-17.81
-24.65
-32.75
-41.43
-49.89
-57.25
-62.71
-65.66
-65.75
-62.92
-57.35
-49.41
-39.64
-28.64
-17.06
-5.52
5.45
15.53
24.55
32.46
39.15
44.3
47.47
48.31
46.8
43.36
38.72
33.56
28.31
23.03
17.62
12.13
6.82
2.2
-1.29
-3.55
-4.92
-5.98
-7.37
-9.42
-12.07
-14.99
-17.7
-19.82
-21.28
-22.28
-23.18
-24.16
-25.02
-25.26
-24.43
-22.55
-20.32
-18.87
-19.24
-21.78
-25.86
-30.08
-32.89
-33.26
-30.92
-26.35
-20.41
-13.85
-7.13
-0.44
6.09
12.35
18.07
22.95
26.73
29.26
30.59
30.84
30.16
28.69
26.48
23.54
19.92
15.72
11.15
6.57
2.36
-1.08
-3.46
-4.72
-5.02
-4.76
-4.42
-4.4
-4.89
-5.89
-7.29
-9.0
-11.08
-13.65
-16.76
-20.24
-23.66
-26.38
-27.82
-27.61
-25.7
-22.37
-18.05
-13.33
-8.82
-5.05
-2.46
-1.14
-0.83
-0.9
-0.66
0.39
2.28
4.57
6.63
8.03
8.85
9.76
11.65
15.14
20.16
25.83
30.78
33.76
34.16
32.17
28.52
24.05
19.25
14.18
8.64
2.51
-4.04
-10.62
-16.74
-22.13
-26.82
-31.02
-35.09
-39.29
-43.76
-48.38
-52.76
-56.17
-57.59
-55.98
-50.59
-41.3
-28.75
-14.31
0.24
13.11
22.93
28.96
31.1
29.81
25.82
19.96
13.02
5.69
-1.43
-7.79
-12.92
-16.48
-18.25
-18.23
-16.55
-13.45
-9.18
-4.08
1.55
7.36
13.06
18.44
23.33
27.59
31.01
33.3
34.02
32.81
29.52
24.4
18.03
11.14
4.35
-2.01
-7.98
-13.81
-19.84
-26.29
-33.15
-40.08
-46.34
-50.87
-52.58
-50.76
-45.42
-37.38
-27.98
-18.64
-10.21
-2.83
3.87
10.33
16.58
22.07
25.95
27.44
26.29
22.86
18.01
12.75
7.92
4.0
1.12
-0.85
-2.04
-2.48
-2.14
-0.93
1.19
4.16
7.83
11.92
16.09
19.91
22.9
24.67
24.97
23.8
21.36
17.91
13.62
8.56
2.71
-3.89
-11.01
-18.18
-24.79
-30.17
-33.8
-35.31
-34.47
-31.2
-25.56
-17.8
-8.5
1.51
11.27
20.05
27.49
33.75
39.23
44.25
48.71
52.07
53.53
52.5
48.86
43.04
35.82
28.0
20.25
12.98
6.5
1.05
-3.17
-6.1
-7.82
-8.63
-8.8
-8.59
-7.98
-6.87
-5.16
-2.92
-0.51
1.48
2.42
1.8
-0.62
-4.78
-10.44
-17.29
-25.07
-33.55
-42.5
-51.53
-60.07
-67.3
-72.35
-74.44
-73.1
-68.36
-60.69
-50.96
-40.2
-29.39
-19.26
-10.16
-2.15
4.95
11.4
17.4
23.12
28.61
33.84
38.7
42.94
46.23
48.2
48.59
47.3
44.55
40.7
36.2
31.41
26.54
21.68
16.9
12.38
8.35
5.05
2.63
1.19
0.7
1.04
2.02
3.29
4.34
4.57
3.4
0.48
-4.2
-10.3
-17.26
-24.6
-32.02
-39.57
-47.41
-55.59
-63.69
-70.78
-75.54
-76.7
-73.55
-66.24
-55.71
-43.33
-30.45
-17.99
-6.43
4.04
13.31
21.34
28.16
34.01
39.35
44.61
49.97
55.23
59.91
63.52
65.8
66.73
66.4
64.89
62.18
58.28
53.43
48.1
42.83
38.0
33.75
29.98
26.62
23.76
21.68
20.62
20.56
21.07
21.45
20.98
19.17
15.85
11.13
5.21
-1.71
-9.51
-18.02
-26.9
-35.57
-43.22
-48.91
-51.8
-51.42
-47.88
-41.9
-34.51
-26.81
-19.6
-13.34
-8.19
-4.14
-1.14
0.95
2.51
4.12
6.47
9.99
14.62
19.73
24.29
27.34
28.32
27.24
24.6
21.13
17.52
14.27
11.54
9.21
6.87
4.08
0.47
-3.99
-8.91
-13.56
-17.16
-19.19
-19.61
-18.91
-17.74
-16.71
-16.13
-15.98
-16.18
-16.69
-17.64
-19.28
-21.84
-25.49
-30.28
-36.1
-42.65
-49.25
-54.96
-58.76
-59.9
-58.18
-54.06
-48.43
-42.24
-36.2
-30.63
-25.57
-20.94
-16.71
-12.99
-9.84
-7.17
-4.74
-2.1
1.15
5.23
10.02
14.98
19.38
22.57
24.3
24.87
24.92
25.08
25.71
26.65
27.47
27.71
27.19
26.02
24.64
23.6
23.43
24.48
26.87
30.36
34.37
37.97
40.07
39.72
36.46
30.45
22.39
13.29
4.02
-4.87
-13.24
-21.18
-28.78
-36.03
-42.74
-48.66
-53.53
-57.05
-58.79
-58.2
-54.69
-48.01
-38.42
-26.77
-14.27
-2.06
9.12
19.05
27.92
36.05
43.66
50.75
57.16
62.74
67.4
71.1
73.75
75.07
74.67
72.24
67.84
62.06
55.93
50.6
46.9
45.03
44.54
44.61
44.45
43.56
41.83
39.34
36.16
32.31
27.77
22.5
16.46
9.69
2.26
-5.67
-13.8
-21.66
-28.82
-35.06
-40.5
-45.56
-50.69
-56.05
-61.34
-65.8
-68.48
-68.58
-65.65
-59.82
-51.65
-41.99
-31.73
-21.57
-11.94
-3.02
5.1
12.37
18.62
23.57
26.9
28.28
27.44
24.25
18.8
11.53
3.29
-4.82
-11.8
-17.08
-20.7
-23.17
-25.08
-26.61
-27.46
-27.07
-24.96
-21.29
-16.76
-12.51
-9.54
-8.43
-9.12
-11.14
-13.88
-16.91
-20.05
-23.35
-26.87
-30.57
-34.28
-37.79
-40.94
-43.78
-46.45
-49.05
-51.4
-53.05
-53.25
-51.25
-46.63
-39.47
-30.51
-20.92
-11.93
-4.46
1.1
4.95
7.62
9.73
11.78
14.07
16.77
19.87
23.16
26.18
28.2
28.46
26.47
22.3
16.65
10.58
5.18
1.15
-1.2
-1.95
-1.3
0.43
2.89
5.63
8.17
10.08
11.15
11.38
10.88
9.66
7.54
4.15
-0.81
-7.39
-15.31
-24.09
-33.23
-42.34
-51.06
-58.81
-64.7
-67.56
-66.25
-60.1
-49.34
-35.08
-19.16
-3.52
10.36
21.87
31.23
39.23
46.75
54.28
61.65
68.28
73.36
76.3
76.9
75.34
72.09
67.7
62.72
57.52
52.31
46.99
41.34
35.22
28.65
21.91
15.33
9.11
3.16
-2.74
-8.68
-14.38
-19.26
-22.72
-24.49
-24.98
-25.04
-25.59
-27.15
-29.69
-32.87
-36.45
-40.56
-45.61
-51.91
-59.15
-66.18
-71.31
-72.98
-70.37
-63.95
-55.21
-46.06
-38.13
-32.2
-28.16
-25.4
-23.24
-21.34
-19.7
-18.48
-17.69
-17.07
-16.16
-14.42
-11.55
-7.49
-2.56
2.76
8.08
13.35
18.9
25.41
33.5
43.35
54.5
65.92
76.31
84.7
90.67
94.42
96.37
96.74
95.35
91.81
85.86
77.79
68.33
58.44
48.79
39.51
30.19
20.31
9.78
-0.86
-10.41
-17.57
-21.54
-22.41
-21.15
-19.23
-18.17
-19.06
-22.51
-28.63
-37.01
-46.89
-57.08
-66.18
-72.94
-76.61
-77.21
-75.49
-72.51
-69.22
-66.08
-63.05
-59.78
-55.78
-50.63
-44.0
-35.7
-25.72
-14.3
-1.93
10.7
22.8
33.7
42.97
50.47
56.35
60.84
63.99
65.53
64.79
61.05
53.9
43.69
31.68
19.82
10.08
3.75
1.06
1.12
2.43
3.45
3.19
1.3
-2.03
-6.36
-11.35
-16.86
-22.84
-29.16
-35.43
-41.05
-45.48
-48.41
-50.02
-50.74
-50.94
-50.63
-49.42
-46.84
-42.74
-37.52
-31.98
-26.96
-22.97
-20.08
-18.16
-17.18
-17.42
-19.29
-23.02
-28.35
-34.43
-40.12
-44.45
-47.03
-48.26
-49.17
-50.99
-54.69
-60.41
-67.28
-73.55
-77.15
-76.38
-70.48
-59.84
-45.75
-29.89
-13.64
2.02
16.58
29.64
40.77
49.48
55.47
58.85
60.16
60.27
60.06
60.15
60.84
62.15
63.98
66.26
68.82
71.37
73.51
74.84
75.15
74.46
72.98
70.9
68.3
65.1
61.14
56.37
50.9
45.11
39.43
34.14
29.08
23.62
16.76
7.56
-4.26
-18.06
-32.29
-44.88
-53.91
-58.04
-56.77
-50.25
-39.05
-23.99
-6.13
13.11
32.05
49.0
62.68
72.44
78.31
80.79
80.5
77.93
73.42
67.12
59.16
49.77
39.35
28.59
18.31
9.33
2.18
-3.02
-6.69
-9.52
-12.26
-15.31
-18.66
-21.92
-24.59
-26.36
-27.27
-27.81
-28.64
-30.45
-33.68
-38.45
-44.45
-50.93
-56.71
-60.29
-60.08
-54.88
-44.33
-29.27
-11.62
6.05
21.29
32.46
39.04
41.58
41.27
39.51
37.53
36.19
35.94
36.82
38.52
40.61
42.68
44.41
45.65
46.38
46.6
46.27
45.24
43.3
40.19
35.66
29.45
21.43
11.69
0.79
-10.33
-20.52
-28.95
-35.5
-40.89
-46.48
-53.61
-62.93
-73.94
-84.9
-93.32
-96.76
-93.57
-83.4
-67.17
-46.7
-24.27
-2.1
18.0
34.8
47.69
56.6
61.92
64.28
64.31
62.47
58.96
53.91
47.57
40.44
33.22
26.61
21.04
16.6
13.23
10.84
9.47
9.16
9.7
10.58
11.01
10.18
7.68
3.58
-1.62
-7.37
-13.3
-19.53
-26.58
-35.26
-46.14
-59.26
-73.62
-87.22
-97.33
-101.29
-97.3
-85.17
-66.49
-44.05
-21.08
-0.38
16.28
28.2
35.65
39.53
41.07
41.55
42.07
43.35
45.59
48.44
51.21
53.03
53.12
51.07
46.95
41.23
34.71
28.25
22.48
17.56
13.23
8.88
3.96
-1.72
-7.88
-13.92
-19.13
-23.06
-25.77
-27.81
-29.98
-32.97
-36.95
-41.33
-44.8
-45.69
-42.54
-34.68
-22.57
-7.72
7.76
21.82
32.99
40.73
45.21
47.06
46.96
45.48
43.01
39.85
36.24
32.28
27.88
22.76
16.68
9.69
2.32
-4.48
-9.75
-12.88
-13.97
-13.69
-13.05
-12.9
-13.68
-15.4
-17.9
-21.1
-25.23
-30.78
-38.29
-48.1
-60.18
-74.04
-88.7
-102.73
-114.27
-121.37
-122.36
-116.37
-103.73
-85.98
-65.43
-44.41
-24.66
-7.01
8.38
21.67
32.86
41.7
47.87
51.29
52.27
51.54
49.99
48.36
47.12
46.42
46.12
46.05
46.1
46.25
46.48
46.64
46.27
44.67
41.1
35.09
26.83
17.07
6.96
-2.4
-10.33
-16.63
-21.63
-25.84
-29.81
-34.04
-38.84
-44.14
-49.29
-52.94
-53.3
-48.68
-38.21
-22.25
-2.42
18.82
38.87
55.75
68.33
76.45
80.56
81.37
79.55
75.73
70.51
64.64
58.97
54.29
51.09
49.34
48.59
48.19
47.54
46.42
44.78
42.62
39.78
35.85
30.55
23.86
16.29
8.64
1.78
-3.86
-8.33
-12.19
-16.12
-20.61
-25.74
-31.19
-36.43
-40.89
-44.15
-45.96
-46.2
-44.93
-42.48
-39.53
-36.9
-35.09
-33.77
-31.64
-26.79
-17.55
-3.43
14.42
33.48
50.79
64.03
72.23
75.87
76.2
74.67
72.33
69.75
67.13
64.59
62.21
60.14
58.51
57.35
56.5
55.64
54.38
52.42
49.71
46.37
42.68
38.85
34.74
30.12
24.69
18.28
10.96
2.9
-5.75
-14.91
-24.45
-34.01
-42.89
-50.25
-55.55
-58.83
-60.75
-62.28
-64.2
-66.57
-68.67
-69.19
-66.66
-60.04
-49.1
-34.52
-17.75
-0.57
15.3
28.51
38.35
44.61
47.51
47.65
45.73
42.52
38.78
35.09
31.84
29.13
26.76
24.37
21.7
18.64
15.39
12.36
9.9
8.23
7.31
6.78
6.01
4.32
1.14
-3.67
-9.74
-16.2
-21.98
-26.33
-29.2
-31.25
-33.57
-36.99
-41.64
-46.85
-51.51
-54.61
-55.7
-54.99
-53.12
-50.88
-48.97
-47.97
-48.16
-49.44
-51.1
-52.02
-50.87
-46.62
-39.11
-29.14
-18.26
-8.19
-0.16
5.4
8.82
10.76
11.68
11.65
10.48
8.14
5.08
2.31
0.98
1.87
4.98
9.43
13.85
17.02
18.36
18.07
16.87
15.45
14.12
12.69
10.67
7.6
3.41
-1.6
-6.87
-11.91
-16.43
-20.44
-24.08
-27.48
-30.67
-33.54
-36.0
-38.02
-39.79
-41.5
-43.21
-44.65
-45.07
-43.54
-39.23
-31.9
-22.05
-10.79
0.53
10.68
18.8
24.4
27.23
27.3
24.95
20.87
16.06
11.49
7.8
5.12
3.17
1.58
0.27
-0.47
-0.12
1.78
5.3
10.13
15.62
21.06
25.76
29.2
31.02
31.08
29.51
26.63
22.89
18.7
14.48
10.57
7.23
4.56
2.29
-0.13
-3.51
-8.5
-15.28
-23.34
-31.56
-38.57
-43.15
-44.53
-42.54
-37.51
-30.15
-21.39
-12.21
-3.47
4.21
10.48
15.21
18.4
20.13
20.54
19.89
18.48
16.67
14.79
13.17
12.05
11.74
12.38
13.89
15.77
17.22
17.38
15.7
12.22
7.66
3.01
-0.77
-3.28
-4.79
-6.11
-8.13
-11.42
-15.85
-20.56
-24.46
-26.71
-27.28
-27.08
-27.49
-29.83
-34.68
-41.65
-49.48
-56.63
-61.72
-63.9
-62.93
-59.11
-52.93
-45.06
-36.18
-27.02
-18.31
-10.78
-4.96
-1.12
0.82
1.27
0.85
0.24
0.02
0.45
1.49
2.8
3.9
4.3
3.77
2.38
0.48
-1.48
-3.09
-4.18
-4.79
-5.12
-5.39
-5.77
-6.27
-6.74
-6.95
-6.65
-5.75
-4.4
-2.96
-1.94
-1.7
-2.34
-3.67
-5.46
-7.55
-9.91
-12.53
-15.14
-17.14
-17.75
-16.32
-12.8
-7.72
-2.0
3.48
8.23
12.21
15.65
18.76
21.53
23.73
25.05
25.34
24.73
23.56
22.21
20.92
19.66
18.22
16.4
14.29
12.26
10.86
10.53
11.37
13.06
15.07
16.81
18.01
18.61
18.72
18.5
17.98
17.21
16.23
15.08
13.64
11.57
8.33
3.47
-3.04
-10.72
-18.6
-25.57
-30.61
-33.2
-33.26
-31.13
-27.46
-23.1
-18.82
-15.21
-12.52
-10.62
-9.18
-7.88
-6.65
-5.65
-5.06
-4.8
-4.53
-3.87
-2.65
-1.25
-0.38
-0.7
-2.36
-4.92
-7.6
-9.75
-11.28
-12.58
-14.18
-16.25
-18.44
-20.09
-20.6
-19.78
-17.86
-15.27
-12.26
-8.83
-4.76
0.1
5.54
10.99
15.55
18.36
18.83
16.82
12.7
7.33
1.87
-2.46
-4.58
-3.88
-0.34
5.49
12.57
19.68
25.64
29.65
31.39
31.15
29.57
27.38
25.09
22.96
21.1
19.69
19.07
19.57
21.29
23.88
26.48
28.12
28.02
26.06
22.71
18.91
15.56
13.24
11.83
10.78
9.23
6.48
2.27
-3.09
-8.88
-14.2
-18.39
-21.15
-22.54
-22.76
-21.97
-20.24
-17.73
-14.86
-12.28
-10.62
-10.1
-10.29
-10.23
-8.96
-5.98
-1.52
3.58
8.37
12.19
14.82
16.29
16.62
15.69
13.4
9.87
5.71
1.84
-0.95
-2.32
-2.54
-2.35
-2.42
-3.07
-4.09
-4.97
-5.25
-4.73
-3.63
-2.4
-1.59
-1.59
-2.62
-4.68
-7.6
-11.12
-14.88
-18.56
-21.9
-24.89
-27.7
-30.66
-34.09
-38.21
-43.02
-48.25
-53.42
-57.81
-60.66
-61.33
-59.45
-55.18
-49.1
-42.06
-34.91
-28.32
-22.66
-18.05
-14.49
-11.85
-9.86
-8.05
-5.87
-2.9
0.93
5.25
9.34
12.48
14.33
15.1
15.56
16.58
18.77
22.11
25.94
29.3
31.37
31.82
30.83
28.84
26.2
22.91
18.75
13.53
7.38
0.84
-5.41
-10.8
-15.16
-18.69
-21.77
-24.74
-27.74
-30.66
-33.25
-34.96
-34.97
-32.2
-25.64
-14.8
-0.13
16.85
33.97
48.99
60.4
67.67
71.24
72.01
70.91
68.52
65.13
60.99
56.36
51.75
47.6
44.15
41.26
38.59
35.76
32.58
29.26
26.28
24.28
23.64
24.29
25.53
26.21
25.18
21.63
15.51
7.53
-1.2
-9.49
-16.59
-22.22
-26.58
-30.12
-33.29
-36.41
-39.63
-42.95
-46.12
-48.68
-49.86
-48.81
-44.9
-37.89
-28.24
-16.99
-5.62
4.41
12.01
16.65
18.46
17.98
15.91
12.88
9.38
5.71
2.12
-1.32
-4.74
-8.39
-12.6
-17.45
-22.67
-27.67
-31.76
-34.48
-35.76
-35.9
-35.37
-34.64
-34.07
-33.92
-34.42
-35.63
-37.42
-39.4
-41.13
-42.27
-42.73
-42.64
-42.2
-41.55
-40.69
-39.6
-38.36
-37.02
-35.52
-33.57
-30.63
-26.21
-20.04
-12.27
-3.28
6.44
16.59
27.01
37.47
47.55
56.58
63.85
68.79
71.13
70.98
68.79
65.27
61.18
57.17
53.54
50.14
46.53
42.32
37.47
32.4
27.79
24.31
22.26
21.47
21.57
22.16
23.07
24.21
25.39
26.22
26.22
25.11
23.03
20.63
18.8
18.36
19.63
22.21
25.08
26.85
26.27
22.68
16.39
8.62
1.15
-4.29
-6.52
-5.31
-1.17
4.92
11.86
18.68
24.62
29.05
31.69
32.6
32.27
31.4
30.62
30.28
30.26
30.16
29.47
27.91
25.48
22.33
18.61
14.35
9.56
4.32
-1.12
-6.43
-11.31
-15.56
-19.15
-22.03
-24.25
-25.82
-26.77
-27.1
-26.83
-25.99
-24.67
-23.02
-21.32
-19.81
-18.71
-18.17
-18.31
-19.24
-21.24
-24.58
-29.32
-34.99
-40.5
-44.37
-45.27
-42.59
-36.69
-28.64
-19.66
-10.51
-1.43
7.7
16.83
25.48
32.84
38.23
41.52
43.22
44.24
45.48
47.35
49.63
51.73
52.81
52.14
49.26
44.13
37.13
28.94
20.42
12.28
4.94
-1.56
-7.44
-12.93
-18.14
-22.88
-26.68
-29.07
-29.84
-29.25
-28.04
-27.26
-27.86
-30.08
-33.51
-37.07
-39.64
-40.43
-39.21
-36.21
-31.75
-26.04
-19.16
-11.22
-2.56
6.19
14.28
21.09
26.23
29.6
31.4
32.01
31.92
31.59
31.21
30.72
29.71
27.69
24.47
20.27
15.72
11.53
8.01
5.03
2.1
-1.17
-4.78
-8.3
-11.2
-13.25
-14.67
-15.85
-16.92
-17.42
-16.45
-13.21
-7.7
-1.01
4.95
8.24
7.57
2.78
-5.09
-14.32
-23.0
-29.5
-32.81
-32.46
-28.59
-21.84
-13.28
-4.19
4.19
11.0
15.98
19.46
22.1
24.57
27.19
29.84
32.08
33.36
33.27
31.69
28.66
24.35
18.94
12.7
6.02
-0.51
-6.29
-10.91
-14.32
-16.95
-19.39
-22.14
-25.32
-28.66
-31.61
-33.6
-34.44
-34.33
-33.76
-33.35
-33.54
-34.67
-36.94
-40.49
-45.27
-50.81
-56.14
-59.83
-60.51
-57.38
-50.61
-41.32
-31.08
-21.24
-12.41
-4.44
3.24
11.08
18.93
26.21
32.27
36.72
39.77
41.94
43.74
45.16
45.74
44.68
41.43
36.06
29.32
22.41
16.38
11.73
8.23
5.11
1.44
-3.4
-9.52
-16.49
-23.55
-29.88
-34.91
-38.5
-40.95
-42.83
-44.87
-47.62
-51.29
-55.54
-59.52
-62.04
-61.89
-58.26
-50.96
-40.48
-27.82
-14.15
-0.59
11.96
22.86
31.67
38.16
42.39
44.73
45.81
46.32
46.76
47.36
48.07
48.72
49.23
49.61
49.95
50.24
50.13
49.01
46.15
41.06
33.69
24.6
14.74
5.14
-3.46
-10.79
-17.01
-22.48
-27.57
-32.5
-37.45
-42.58
-48.07
-53.9
-59.69
-64.57
-67.31
-66.7
-61.91
-52.91
-40.47
-26.03
-11.22
2.49
14.2
23.59
30.8
36.22
40.16
42.71
43.79
43.36
41.48
38.45
34.7
30.62
26.46
22.4
18.71
15.82
14.28
14.44
16.25
19.07
21.92
23.74
23.87
22.12
18.84
14.59
9.9
5.04
-0.07
-5.75
-12.35
-20.04
-28.52
-36.95
-44.02
-48.35
-48.89
-45.35
-38.27
-28.86
-18.54
-8.52
0.51
8.43
15.46
21.96
28.18
34.1
39.46
43.76
46.45
47.04
45.29
41.32
35.63
28.98
22.15
15.63
9.56
3.73
-2.14
-8.29
-14.64
-20.86
-26.34
-30.35
-32.18
-31.4
-28.08
-22.86
-16.93
-11.78
-8.73
-8.66
-11.67
-17.08
-23.51
-29.28
-32.73
-32.61
-28.45
-20.64
-10.33
0.95
11.74
21.03
28.24
33.1
35.53
35.63
33.88
31.15
28.59
27.16
27.19
28.18
29.07
28.78
26.75
23.13
18.57
13.73
8.94
4.08
-1.26
-7.45
-14.57
-22.35
-30.11
-36.98
-42.16
-45.25
-46.48
-46.71
-47.19
-48.89
-52.28
-57.06
-62.34
-66.85
-69.09
-67.72
-61.72
-50.84
-35.72
-18.04
-0.13
15.58
27.15
33.77
35.77
34.5
31.72
29.05
27.5
27.17
27.47
27.55
26.9
25.54
24.15
23.52
24.15
25.89
28.17
30.39
32.06
33.04
33.24
32.55
30.72
27.41
22.51
16.18
8.9
1.35
-5.84
-12.33
-18.13
-23.53
-29.03
-34.88
-40.89
-46.17
-49.36
-48.93
-43.81
-33.88
-20.21
-4.74
10.39
23.5
33.88
41.66
47.38
51.48
54.03
54.75
53.46
50.34
46.02
41.35
37.0
33.24
29.96
26.84
23.59
20.07
16.24
12.19
8.29
4.98
2.78
1.95
2.29
3.15
3.76
3.47
2.15
0.11
-2.24
-4.69
-7.48
-11.09
-15.97
-22.23
-29.68
-37.98
-46.69
-55.24
-62.69
-67.81
-69.26
-66.15
-58.46
-47.13
-33.71
-19.8
-6.69
4.92
14.69
22.4
27.86
30.92
31.62
30.31
27.56
23.89
19.76
15.49
11.37
7.76
4.97
3.19
2.39
2.34
2.79
3.5
4.38
5.28
5.99
6.29
6.07
5.42
4.68
4.25
4.35
4.88
5.35
5.15
3.72
0.66
-4.1
-10.5
-18.13
-26.25
-33.73
-39.26
-41.64
-40.15
-34.88
-26.68
-16.89
-6.82
2.61
11.14
19.06
26.73
34.32
41.46
47.4
51.31
52.71
51.68
48.85
45.03
40.87
36.76
32.75
28.93
25.45
22.57
20.47
19.14
18.28
17.37
15.92
13.65
10.67
7.39
4.42
2.31
1.29
1.26
1.65
1.8
1.19
-0.26
-2.01
-3.15
-2.76
-0.4
3.67
8.55
13.05
16.18
17.49
17.14
15.7
13.85
12.1
10.65
9.43
8.36
7.4
6.72
6.56
7.16
8.62
10.81
13.4
15.99
18.16
19.62
20.24
20.05
19.2
17.83
16.03
13.8
11.04
7.75
3.99
-0.03
-4.05
-7.89
-11.54
-15.15
-18.95
-23.13
-27.75
-32.85
-38.37
-44.17
-49.96
-55.12
-58.74
-59.78
-57.4
-51.33
-42.05
-30.8
-19.32
-9.28
-1.87
2.57
4.43
4.52
3.63
2.24
0.39
-1.95
-4.73
-7.5
-9.62
-10.51
-9.93
-8.08
-5.43
-2.46
0.54
3.57
6.73
10.0
13.13
15.58
16.67
15.85
12.98
8.35
2.65
-3.34
-9.0
-14.12
-18.81
-23.4
-28.16
-33.19
-38.45
-43.84
-49.18
-54.14
-58.16
-60.42
-60.1
-56.64
-50.02
-40.84
-30.03
-18.58
-7.2
3.73
14.01
23.4
31.55
37.96
42.23
44.1
43.62
41.11
37.09
32.22
27.14
22.35
18.14
14.63
11.79
9.57
7.97
7.12
7.13
8.01
9.59
11.5
13.31
14.6
15.05
14.46
12.69
9.74
5.73
0.86
-4.62
-10.47
-16.48
-22.47
-28.17
-33.21
-37.19
-39.69
-40.46
-39.34
-36.35
-31.69
-25.69
-18.92
-12.04
-5.68
-0.23
4.2
7.77
10.73
13.26
15.42
17.14
18.35
18.98
18.92
18.0
16.03
12.92
8.8
4.07
-0.73
-5.08
-8.63
-11.2
-12.77
-13.33
-12.89
-11.45
-9.03
-5.74
-1.74
2.74
7.38
11.79
15.49
17.93
18.54
16.92
12.89
6.62
-1.29
-9.91
-18.03
-24.44
-28.18
-28.8
-26.51
-22.09
-16.67
-11.5
-7.59
-5.45
-5.02
-5.74
-6.82
-7.52
-7.46
-6.55
-4.99
-2.87
-0.17
3.26
7.57
12.63
17.96
22.82
26.43
28.27
28.23
26.63
24.04
21.0
17.84
14.63
11.21
7.46
3.36
-0.86
-4.78
-8.01
-10.27
-11.56
-12.09
-12.27
-12.5
-13.03
-13.85
-14.67
-15.07
-14.63
-13.18
-10.83
-7.9
-4.75
-1.57
1.54
4.5
7.04
8.63
8.67
6.74
2.88
-2.37
-8.18
-13.67
-18.18
-21.4
-23.26
-23.93
-23.61
-22.5
-20.77
-18.5
-15.77
-12.75
-9.82
-7.57
-6.65
-7.52
-10.23
-14.36
-19.25
-24.28
-29.07
-33.57
-37.9
-42.27
-46.88
-51.83
-57.06
-62.08
-65.85
-66.95
-63.94
-56.03
-43.51
-27.78
-10.85
5.29
19.27
30.49
38.88
44.61
47.93
49.06
48.43
46.6
44.26
42.04
40.37
39.34
38.86
38.69
38.55
38.29
37.93
37.72
38.08
39.6
42.79
47.92
54.79
62.65
70.41
76.88
80.93
81.74
78.87
72.21
62.0
48.84
33.58
17.47
1.69
-12.7
-24.99
-34.92
-42.42
-47.47
-49.97
-49.8
-46.9
-41.58
-34.5
-26.65
-19.01
-12.43
-7.37
-4.03
-2.45
-2.58
-4.23
-6.99
-10.17
-12.97
-14.76
-15.35
-15.1
-14.74
-14.91
-15.89
-17.39
-18.84
-19.71
-19.77
-19.24
-18.48
-17.88
-17.6
-17.61
-17.76
-17.84
-17.68
-17.18
-16.28
-15.1
-13.91
-13.07
-12.91
-13.6
-15.11
-17.21
-19.47
-21.38
-22.33
-21.7
-18.99
-14.02
-7.16
0.79
8.72
15.65
20.93
24.44
26.34
26.88
26.22
24.41
21.5
17.6
12.92
7.72
2.22
-3.36
-8.79
-13.7
-17.73
-20.51
-21.95
-22.27
-22.09
-22.11
-22.91
-24.71
-27.3
-30.2
-32.86
-34.96
-36.44
-37.58
-38.81
-40.59
-43.14
-46.33
-49.57
-51.89
-52.3
-50.03
-44.96
-37.59
-28.93
-20.05
-11.77
-4.54
1.5
6.36
10.01
12.43
13.65
13.92
13.64
13.33
13.48
14.36
15.89
17.67
19.1
19.67
19.12
17.56
15.39
12.97
10.5
7.88
4.86
1.32
-2.61
-6.5
-9.83
-12.25
-13.72
-14.57
-15.34
-16.71
-19.26
-23.34
-28.91
-35.31
-41.3
-45.19
-45.38
-40.84
-31.6
-18.73
-3.95
10.92
24.58
36.34
46.04
53.6
58.81
61.34
61.06
58.36
54.13
49.52
45.48
42.36
39.85
37.35
34.44
31.28
28.56
27.17
27.65
29.74
32.43
34.25
33.91
30.73
24.88
17.25
9.01
1.18
-5.62
-11.37
-16.51
-21.8
-27.88
-34.99
-42.81
-50.53
-57.2
-62.14
-65.14
-66.29
-65.51
-62.33
-55.98
-45.97
-32.4
-16.08
1.82
20.37
38.97
56.98
73.02
84.89
90.52
89.22
82.79
75.13
70.47
71.02
75.67
80.51
80.97
74.4
61.45
45.45
30.51
19.53
12.98
9.44
6.89
4.07
0.9
-1.96
-4.08
-5.73
-8.01
-12.24
-19.2
-28.8
-40.12
-51.87
-62.57
-70.87
-75.75
-76.74
-74.05
-68.64
-61.88
-54.95
-48.48
-42.31
-35.91
-28.88
-21.41
-14.1
-7.55
-1.88
3.52
9.49
16.55
24.42
31.93
37.51
39.98
39.03
35.52
31.38
28.78
29.28
32.96
38.16
42.05
41.85
36.11
25.38
11.98
-1.18
-11.79
-18.97
-23.1
-25.15
-25.94
-25.83
-24.85
-23.41
-22.5
-23.38
-26.97
-33.12
-40.33
-46.26
-48.66
-46.2
-39.1
-28.9
-17.78
-7.66
0.39
6.2
10.19
12.89
14.68
15.77
16.41
17.08
18.34
20.62
23.92
27.81
31.63
34.86
37.37
39.4
41.32
43.29
45.07
46.08
45.57
43.02
38.33
31.83
24.11
15.76
7.23
-1.22
-9.37
-16.93
-23.54
-28.96
-33.28
-36.99
-40.79
-45.19
-50.05
-54.45
-56.92
-56.13
-51.46
-43.38
-33.25
-22.78
-13.48
-6.24
-1.23
1.82
3.4
3.99
3.94
3.59
3.2
3.02
3.26
4.04
5.4
7.31
9.71
12.53
15.72
19.26
23.11
27.27
31.72
36.41
41.23
45.96
50.21
53.55
55.42
55.36
53.11
48.79
42.96
36.47
30.2
24.76
20.28
16.46
12.77
8.74
4.14
-0.92
-6.13
-10.97
-14.82
-16.91
-16.51
-13.07
-6.64
2.0
11.5
20.3
27.2
31.64
33.8
34.21
33.43
31.84
29.6
26.86
23.9
21.22
19.31
18.43
18.44
18.88
19.24
19.25
19.04
19.08
19.85
21.56
23.98
26.54
28.53
29.4
28.86
26.97
23.96
20.17
15.95
11.58
7.29
3.09
-1.14
-5.68
-10.65
-15.99
-21.33
-26.21
-30.19
-33.12
-35.06
-36.26
-36.95
-37.24
-37.19
-36.95
-36.79
-37.14
-38.3
-40.36
-43.04
-46.01
-49.02
-52.05
-55.24
-58.61
-61.89
-64.61
-66.32
-66.77
-66.15
-64.91
-63.62
-62.73
-62.48
-62.85
-63.46
-63.61
-62.29
-58.48
-51.48
-41.38
-29.11
-16.11
-3.85
6.73
15.38
22.41
28.41
33.92
39.24
44.44
49.38
53.72
57.06
59.06
59.59
58.81
57.15
55.12
53.08
51.22
49.6
48.28
47.37
46.94
46.95
47.06
46.74
45.46
42.93
39.16
34.52
29.56
24.87
20.85
17.67
15.15
12.77
9.96
6.25
1.6
-3.6
-8.62
-12.86
-16.01
-18.17
-19.74
-21.04
-22.31
-23.53
-24.68
-25.81
-27.21
-29.2
-31.91
-35.23
-38.78
-42.16
-45.14
-47.73
-50.16
-52.64
-55.23
-57.71
-59.55
-60.06
-58.55
-54.54
-47.91
-39.05
-28.83
-18.32
-8.55
-0.25
6.33
11.26
14.86
17.51
19.6
21.55
23.77
26.47
29.56
32.64
35.09
36.41
36.49
35.59
34.26
33.0
32.15
31.75
31.74
32.05
32.62
33.35
34.07
34.62
34.9
34.91
34.75
34.46
33.94
32.96
31.34
29.04
26.26
23.28
20.32
17.48
14.66
11.74
8.67
5.53
2.53
-0.08
-2.0
-2.96
-2.73
-1.09
2.05
6.59
12.29
18.69
25.26
31.48
36.92
41.23
44.16
45.55
45.35
43.63
40.62
36.68
32.28
27.83
23.63
19.76
16.13
12.61
9.08
5.53
2.11
-0.92
-3.3
-4.88
-5.68
-5.92
-5.89
-5.84
-5.92
-6.18
-6.71
-7.65
-9.2
-11.49
-14.48
-17.99
-21.75
-25.61
-29.61
-33.91
-38.54
-43.26
-47.43
-50.24
-50.99
-49.31
-45.35
-39.55
-32.47
-24.58
-16.27
-7.95
-0.16
6.44
11.12
13.35
13.07
10.57
6.43
1.15
-4.9
-11.47
-18.22
-24.59
-29.88
-33.55
-35.49
-36.05
-35.86
-35.34
-34.46
-32.7
-29.44
-24.47
-18.15
-11.3
-4.69
1.41
7.34
13.7
20.86
28.52
35.73
41.35
44.65
45.63
45.04
44.06
43.86
45.25
48.65
54.06
61.1
69.02
76.74
83.15
87.38
89.11
88.49
86.01
82.08
76.92
70.45
62.53
53.1
42.27
30.43
18.12
6.03
-5.12
-14.81
-22.86
-29.6
-35.65
-41.58
-47.6
-53.31
-58.01
-61.12
-62.59
-62.9
-62.85
-63.06
-63.68
-64.45
-64.97
-65.0
-64.6
-63.97
-63.24
-62.19
-60.32
-57.04
-51.99
-45.3
-37.54
-29.53
-22.01
-15.41
-9.71
-4.67
0.03
4.49
8.7
12.63
16.37
20.18
24.32
28.78
33.21
36.92
39.2
39.63
38.16
35.07
30.74
25.54
19.77
13.75
7.83
2.3
-2.74
-7.43
-12.04
-16.68
-21.2
-25.18
-28.2
-30.13
-31.3
-32.29
-33.46
-34.73
-35.55
-35.2
-33.31
-29.95
-25.56
-20.55
-15.1
-9.08
-2.36
5.03
12.73
20.16
26.71
31.88
35.3
36.78
36.32
34.18
30.81
26.77
22.5
18.15
13.66
9.03
4.49
0.64
-1.78
-2.23
-0.61
2.65
6.85
11.25
15.28
18.58
20.8
21.53
20.23
16.56
10.56
2.93
-5.11
-12.22
-17.51
-20.97
-23.34
-25.72
-28.96
-33.11
-37.41
-40.62
-41.7
-40.24
-36.61
-31.68
-26.24
-20.76
-15.28
-9.7
-4.17
0.85
4.82
7.46
8.95
9.9
10.88
12.11
13.28
13.77
13.03
10.89
7.62
3.71
-0.4
-4.4
-8.06
-11.1
-13.06
-13.54
-12.43
-9.99
-6.92
-4.08
-2.15
-1.4
-1.73
-2.78
-4.24
-5.95
-7.92
-10.22
-12.86
-15.73
-18.56
-20.91
-22.32
-22.35
-20.77
-17.61
-13.32
-8.56
-3.99
0.01
3.43
6.55
9.75
13.27
17.12
21.12
25.06
28.71
31.83
34.28
36.0
37.06
37.6
37.79
37.66
37.12
35.88
33.54
29.72
24.21
17.12
8.96
0.52
-7.3
-13.76
-18.48
-21.49
-23.05
-23.6
-23.63
-23.69
-24.45
-26.51
-30.24
-35.31
-40.69
-44.9
-46.6
-45.14
-40.87
-34.92
-28.72
-23.33
-19.3
-16.56
-14.75
-13.48
-12.51
-11.73
-11.0
-10.11
-8.67
-6.36
-3.05
1.11
5.65
9.91
13.35
15.64
16.81
17.13
17.05
16.91
16.98
17.36
17.99
18.69
19.16
18.99
17.85
15.48
11.85
7.09
1.4
-5.01
-12.0
-19.38
-26.82
-33.83
-39.68
-43.6
-44.97
-43.52
-39.52
-33.73
-27.22
-21.06
-15.88
-11.67
-7.82
-3.45
2.05
8.7
15.79
22.26
27.16
30.1
31.38
31.78
32.13
32.94
34.21
35.47
36.13
35.72
34.16
31.71
28.91
26.47
25.2
25.82
28.79
34.1
41.14
48.71
55.32
59.61
60.79
58.86
54.62
49.21
43.83
39.26
35.71
32.9
30.22
27.05
23.13
18.66
14.36
11.06
9.33
9.12
9.71
9.94
8.61
4.95
-1.12
-9.13
-18.28
-27.87
-37.41
-46.65
-55.32
-62.98
-69.01
-72.73
-73.85
-72.62
-69.87
-66.64
-63.76
-61.45
-59.38
-56.89
-53.52
-49.3
-44.66
-40.2
-36.27
-32.89
-29.95
-27.37
-25.3
-23.99
-23.53
-23.66
-23.86
-23.62
-22.78
-21.67
-20.92
-21.14
-22.59
-25.05
-27.81
-29.96
-30.59
-28.98
-24.81
-18.29
-10.15
-1.51
6.49
13.01
17.71
20.64
22.06
22.29
21.52
19.94
17.8
15.53
13.51
12.05
11.23
10.97
11.06
11.24
11.34
11.21
10.76
9.9
8.68
7.21
5.7
4.36
3.34
2.63
2.0
1.11
-0.43
-2.85
-6.1
-9.82
-13.48
-16.55
-18.67
-19.8
-20.22
-20.52
-21.37
-23.27
-26.22
-29.58
-32.02
-32.11
-28.85
-22.16
-12.86
-2.29
8.4
18.63
28.39
37.9
47.16
55.71
62.82
67.77
70.05
69.58
66.55
61.31
54.32
46.18
37.74
30.14
24.56
21.97
22.77
26.51
31.88
36.8
39.05
37.09
30.69
21.15
10.81
2.14
-3.35
-5.46
-5.12
-3.78
-2.78
-3.04
-5.2
-9.69
-16.71
-26.16
-37.21
-48.4
-58.03
-64.67
-67.62
-66.97
-63.27
-57.24
-49.53
-40.67
-31.22
-21.85
-13.24
-5.95
-0.16
4.22
7.52
10.05
11.99
13.3
13.81
13.41
12.2
10.45
8.48
6.47
4.41
2.2
-0.06
-1.94
-2.77
-2.02
0.3
3.49
6.36
7.82
7.38
5.38
2.85
0.84
0.02
0.31
1.0
1.07
-0.44
-4.16
-10.31
-18.53
-27.95
-37.17
-44.62
-48.9
-49.34
-46.14
-40.15
-32.45
-23.88
-14.81
-5.29
4.64
14.59
23.8
31.26
36.07
37.81
36.71
33.65
29.93
26.87
25.36
25.58
27.03
28.82
30.22
30.91
31.13
31.31
31.69
32.02
31.56
29.33
24.49
16.68
6.12
-6.26
-19.22
-31.36
-41.54
-49.25
-54.64
-58.46
-61.6
-64.63
-67.46
-69.33
-69.15
-65.84
-58.76
-47.91
-34.0
-18.35
-2.68
11.32
22.45
30.48
36.12
40.49
44.5
48.38
51.76
54.16
55.57
56.53
57.8
59.68
61.58
62.27
60.53
55.96
49.35
42.34
36.58
32.97
31.27
30.33
28.77
25.59
20.57
14.38
8.21
3.16
-0.26
-2.36
-4.11
-6.72
-11.15
-17.79
-26.39
-36.21
-46.14
-54.81
-60.74
-62.5
-59.15
-50.58
-37.85
-22.95
-8.29
4.16
13.28
19.1
22.44
24.35
25.48
25.84
24.98
22.45
18.28
13.27
8.71
5.83
5.2
6.56
8.96
11.46
13.61
15.64
18.19
21.63
25.65
29.22
31.18
30.67
27.48
21.97
14.65
6.05
-3.34
-12.93
-22.14
-30.45
-37.67
-43.96
-49.55
-54.42
-57.96
-59.16
-56.94
-50.71
-40.73
-28.05
-14.05
-0.06
13.02
24.73
34.81
43.09
49.3
53.11
54.32
52.97
49.35
43.88
37.13
29.59
21.7
13.91
6.67
0.37
-4.75
-8.66
-11.5
-13.43
-14.6
-15.09
-15.05
-14.67
-14.18
-13.8
-13.65
-13.8
-14.36
-15.54
-17.62
-20.85
-25.3
-30.83
-37.11
-43.71
-50.11
-55.64
-59.48
-60.6
-58.08
-51.42
-40.83
-27.27
-12.23
2.73
16.36
28.0
37.51
45.01
50.64
54.42
56.35
56.61
55.7
54.16
52.2
49.35
44.64
37.03
26.17
12.93
-0.85
-13.03
-22.07
-27.71
-30.86
-32.88
-34.8
-36.75
-38.06
-37.86
-35.67
-31.79
-27.21
-23.17
-20.65
-20.03
-20.96
-22.45
-23.23
-22.16
-18.52
-12.3
-4.19
4.69
13.16
20.28
25.5
28.71
30.15
30.29
29.69
28.72
27.45
25.58
22.59
18.11
12.15
5.37
-1.1
-6.08
-8.71
-8.79
-6.74
-3.47
0.04
2.93
4.74
5.38
5.12
4.42
3.78
3.46
3.43
3.63
3.89
4.2
4.67
5.31
5.88
5.86
4.71
2.1
-1.8
-6.46
-11.15
-15.19
-18.19
-19.88
-20.17
-19.05
-16.77
-13.93
-11.51
-10.56
-11.81
-15.34
-20.58
-26.67
-32.82
-38.69
-44.25
-49.52
-54.35
-58.43
-61.42
-62.93
-62.83
-61.01
-57.58
-52.88
-47.56
-42.35
-37.7
-33.53
-29.31
-24.52
-19.3
-14.61
-11.9
-12.35
-16.04
-21.93
-28.46
-34.64
-40.52
-46.92
-54.26
-61.63
-66.63
-66.26
-58.24
-42.09
-19.32
7.32
34.78
60.53
82.86
100.85
114.1
122.7
127.24
128.67
128.06
126.12
122.97
118.17
111.08
101.4
89.28
75.51
61.32
48.05
36.95
28.73
23.47
20.51
18.72
16.99
14.64
11.66
8.57
6.0
4.27
3.31
2.75
2.12
0.82
-1.78
-6.26
-12.73
-20.4
-27.53
-31.78
-31.16
-24.93
-13.97
-0.29
13.83
26.76
37.72
46.38
52.24
54.47
52.16
45.02
34.05
21.45
10.12
2.64
0.54
3.63
10.28
18.06
24.54
27.9
27.4
23.44
17.34
10.85
5.4
1.7
-0.6
-2.49
-5.12
-9.14
-14.5
-20.4
-25.76
-29.42
-30.48
-28.41
-23.16
-15.53
-7.34
-1.14
0.66
-3.15
-11.63
-21.96
-30.5
-34.4
-32.56
-26.0
-17.03
-7.93
0.12
7.35
14.86
23.52
33.14
42.46
49.67
53.63
54.14
51.86
47.61
41.65
33.68
23.38
11.1
-1.74
-13.23
-21.96
-27.79
-31.73
-34.91
-37.6
-38.83
-37.24
-32.16
-24.42
-16.11
-9.5
-5.81
-4.72
-4.77
-4.4
-2.92
-0.81
0.68
0.31
-2.44
-7.02
-12.07
-15.71
-16.26
-12.69
-5.08
5.35
16.78
27.45
36.41
43.66
49.81
55.36
60.17
63.45
64.31
62.48
58.65
54.29
50.94
49.49
49.66
50.27
49.76
47.05
42.03
35.58
29.15
24.14
21.3
20.44
20.53
20.07
17.82
13.08
6.11
-2.05
-9.96
-16.16
-19.77
-20.7
-19.84
-18.86
-19.79
-24.32
-33.23
-45.82
-59.97
-72.73
-81.28
-83.79
-79.93
-70.75
-58.05
-43.76
-29.44
-16.3
-5.29
2.82
7.52
8.81
7.28
3.93
-0.25
-4.35
-7.66
-9.36
-8.58
-4.69
1.91
9.6
15.78
18.14
16.17
11.76
8.2
8.07
11.29
14.89
14.59
7.58
-5.64
-21.35
-34.76
-42.58
-44.48
-42.63
-39.75
-37.48
-35.71
-33.5
-30.29
-26.71
-24.11
-23.41
-24.35
-25.29
-24.28
-19.87
-11.68
-0.64
11.44
22.75
32.1
39.25
44.96
50.41
56.36
62.38
66.68
66.85
61.05
49.2
33.37
17.06
3.7
-4.73
-8.32
-8.79
-8.27
-8.13
-8.58
-9.05
-8.82
-7.66
-6.02
-4.7
-4.37
-5.23
-7.08
-9.5
-12.13
-14.83
-17.68
-20.87
-24.58
-28.89
-33.72
-38.93
-44.21
-49.12
-53.09
-55.41
-55.35
-52.47
-46.68
-38.36
-28.34
-17.6
-7.0
2.84
11.59
19.08
25.15
29.53
32.05
32.64
31.53
29.21
26.34
23.55
21.2
19.44
18.11
16.88
15.49
13.77
11.85
10.01
8.55
7.6
6.97
6.18
4.77
2.51
-0.4
-3.4
-5.91
-7.59
-8.6
-9.51
-11.05
-13.81
-18.01
-23.41
-29.4
-35.28
-40.38
-44.18
-46.29
-46.35
-44.09
-39.39
-32.46
-23.94
-14.89
-6.41
0.59
5.79
9.41
12.02
14.15
16.0
17.47
18.2
17.91
16.47
13.88
10.29
5.88
0.96
-3.96
-8.16
-10.84
-11.24
-8.94
-4.16
2.34
9.32
15.48
19.85
22.11
22.52
21.52
19.36
16.05
11.56
6.16
0.7
-3.8
-6.69
-8.11
-8.88
-9.98
-11.8
-13.72
-14.59
-13.42
-10.06
-5.35
-0.62
3.01
5.34
6.87
8.7
11.69
16.03
21.29
26.33
29.99
31.24
29.54
25.01
18.29
10.59
3.38
-1.98
-4.64
-4.63
-3.13
-1.85
-2.4
-5.63
-11.25
-17.92
-23.93
-27.91
-29.31
-28.56
-26.75
-25.06
-24.33
-24.89
-26.56
-28.85
-31.45
-34.07
-36.55
-38.8
-40.42
-40.78
-39.03
-34.45
-26.82
-16.56
-5.19
5.26
12.7
15.88
15.14
12.39
10.18
10.18
12.37
15.12
16.56
16.0
14.49
13.78
14.61
15.66
14.22
8.15
-2.32
-14.06
-22.83
-25.41
-21.45
-13.43
-4.68
1.92
5.29
5.49
2.65
-3.28
-11.79
-21.28
-28.78
-31.25
-27.18
-17.8
-6.61
2.28
6.19
4.86
0.66
-3.18
-3.88
-0.63
5.47
12.06
16.64
17.61
14.92
9.75
3.9
-0.9
-3.97
-5.45
-6.26
-7.45
-9.47
-12.31
-15.54
-18.36
-20.27
-20.81
-19.17
-14.78
-7.64
0.94
8.46
11.97
9.43
0.82
-11.8
-25.2
-35.98
-42.16
-42.93
-38.74
-30.6
-19.63
-7.02
5.64
16.46
23.7
26.35
24.88
21.13
17.89
17.57
21.3
28.4
36.58
42.86
45.07
42.78
37.32
30.86
25.2
20.95
17.47
13.79
9.38
4.22
-1.49
-7.88
-15.24
-23.48
-32.1
-40.09
-46.64
-51.82
-56.56
-62.07
-68.98
-76.75
-83.82
-88.52
-89.76
-87.38
-81.91
-73.99
-63.99
-52.15
-38.89
-25.02
-11.64
0.09
9.38
15.94
20.02
22.28
23.46
24.2
24.84
25.3
25.35
24.83
23.86
22.94
22.7
23.55
25.46
27.83
29.84
30.69
29.99
27.91
24.99
21.85
19.01
16.66
14.63
12.56
10.07
6.67
2.13
-3.55
-9.99
-16.42
-21.8
-24.92
-24.81
-21.23
-15.06
-7.91
-1.65
2.52
4.51
5.37
6.58
9.3
13.71
18.97
23.62
26.3
26.27
23.67
19.3
14.2
9.35
5.37
2.67
1.35
1.26
2.12
3.42
4.5
4.65
3.21
-0.1
-5.09
-11.09
-17.24
-22.7
-27.01
-30.17
-32.45
-34.2
-35.67
-36.78
-37.37
-37.36
-36.74
-35.84
-34.88
-33.61
-30.92
-25.04
-14.37
1.64
21.31
41.18
56.88
65.11
64.83
57.8
47.76
39.06
35.28
38.18
47.57
61.41
76.77
90.52
100.1
104.08
102.45
96.69
88.96
81.5
75.34
70.47
65.76
59.84
52.13
42.96
33.59
25.3
18.99
14.65
11.54
8.82
5.93
3.16
0.93
-0.54
-1.77
-3.5
-6.4
-10.41
-14.64
-17.76
-18.43
-16.29
-11.9
-6.67
-2.07
0.83
1.64
0.7
-1.46
-4.28
-7.42
-10.4
-12.58
-13.23
-11.72
-7.9
-2.1
4.57
10.84
15.22
17.03
16.47
14.65
13.31
13.93
17.12
22.18
27.62
31.58
32.76
30.43
24.59
15.67
4.39
-7.99
-19.39
-27.05
-28.38
-22.17
-9.61
5.92
19.99
28.76
30.37
25.63
17.45
9.54
4.87
4.47
7.12
10.22
10.94
7.91
1.52
-6.22
-12.81
-16.5
-17.09
-15.6
-13.65
-12.52
-12.82
-14.75
-18.3
-23.3
-29.09
-34.33
-37.22
-36.33
-31.42
-23.69
-15.49
-9.35
-6.98
-8.72
-13.61
-19.73
-25.22
-28.65
-29.96
-30.06
-30.12
-30.83
-31.83
-31.82
-29.58
-24.82
-18.26
-11.37
-5.07
0.62
6.4
12.86
19.54
24.78
26.64
24.34
18.81
12.53
7.9
6.17
6.79
7.82
7.24
4.01
-1.37
-7.36
-11.93
-13.47
-11.56
-6.81
-0.83
4.34
7.0
6.56
3.39
-1.06
-5.17
-7.87
-9.08
-9.66
-10.39
-11.48
-12.32
-12.33
-11.27
-9.78
-9.0
-9.72
-11.83
-14.26
-15.53
-14.7
-12.03
-8.61
-5.7
-3.76
-1.97
1.24
7.08
15.42
24.45
31.2
33.21
29.66
21.89
12.92
5.7
1.7
0.45
-0.12
-2.13
-6.57
-12.89
-19.4
-24.08
-26.0
-25.3
-23.19
-21.13
-20.03
-19.95
-20.46
-21.02
-21.78
-23.43
-26.4
-29.87
-32.05
-30.81
-25.07
-15.65
-4.84
5.02
12.94
19.4
25.66
32.03
37.4
39.46
36.02
27.11
14.79
2.48
-6.93
-12.32
-14.53
-15.42
-16.98
-20.12
-24.46
-28.7
-31.05
-30.21
-26.0
-19.2
-11.13
-2.85
4.77
11.57
17.24
21.29
23.48
24.03
23.48
22.3
20.27
16.25
9.25
-1.04
-12.91
-23.65
-30.8
-33.45
-32.78
-31.0
-30.06
-30.12
-29.85
-27.26
-21.32
-12.64
-3.08
4.91
9.32
9.24
4.88
-2.41
-10.53
-17.09
-20.52
-20.46
-17.73
-13.93
-10.11
-6.33
-2.04
3.03
8.01
10.96
9.79
3.57
-6.33
-16.83
-24.43
-26.85
-24.44
-19.4
-14.7
-12.21
-12.04
-12.7
-12.38
-10.11
-6.12
-1.74
1.69
3.62
4.53
5.45
6.93
8.72
9.92
9.86
8.96
8.68
10.66
15.59
22.48
28.75
31.66
29.64
23.07
13.99
5.24
-1.16
-4.44
-4.68
-2.52
1.45
6.44
11.07
13.41
11.91
6.24
-2.06
-10.09
-15.14
-15.77
-12.38
-6.58
0.01
6.24
11.4
14.94
16.24
14.94
11.82
8.66
7.22
8.0
9.53
9.0
4.13
-5.21
-16.62
-26.25
-31.0
-30.07
-24.84
-17.89
-11.48
-6.27
-1.81
2.6
7.13
11.17
13.93
15.28
15.94
17.1
19.49
22.55
24.84
24.57
20.47
12.75
3.06
-6.45
-13.81
-17.87
-18.57
-16.7
-13.45
-9.71
-6.03
-2.4
1.29
5.22
9.35
13.4
17.41
21.49
25.75
30.09
33.8
35.8
35.13
31.55
25.68
18.83
12.25
6.7
2.26
-1.61
-5.5
-9.68
-14.26
-19.01
-23.46
-27.25
-30.14
-32.04
-32.9
-32.59
-31.01
-28.21
-24.61
-20.96
-17.83
-15.22
-12.5
-9.02
-4.68
-0.55
1.56
0.22
-4.37
-10.27
-14.84
-16.48
-15.78
-15.02
-16.68
-21.41
-27.44
-31.52
-30.8
-24.32
-13.4
-0.64
11.47
21.35
28.64
33.71
37.07
39.22
40.54
41.4
41.96
41.84
40.28
36.45
29.98
21.02
10.42
-0.64
-11.14
-20.41
-28.22
-34.63
-39.57
-42.87
-44.21
-43.19
-39.95
-35.22
-30.19
-26.29
-24.48
-24.84
-26.6
-28.56
-29.65
-29.44
-28.19
-26.62
-25.28
-24.31
-23.42
-22.18
-20.51
-18.77
-17.74
-18.3
-20.87
-25.2
-30.42
-35.23
-38.38
-38.93
-36.56
-31.48
-24.38
-16.12
-7.53
0.75
8.31
14.87
20.29
24.36
26.99
28.14
28.02
26.92
25.16
22.97
20.5
17.88
15.19
12.5
9.81
7.04
4.11
1.09
-1.74
-4.01
-5.38
-5.89
-5.8
-5.68
-5.96
-6.84
-8.19
-9.61
-10.7
-11.23
-11.27
-11.09
-11.04
-11.35
-12.15
-13.32
-14.69
-16.23
-18.14
-20.7
-23.97
-27.6
-30.69
-32.16
-31.13
-27.1
-20.09
-10.43
1.33
14.19
26.69
37.09
43.98
46.88
46.66
45.2
44.47
45.39
47.53
49.27
48.92
45.6
39.62
32.06
24.12
16.7
10.22
4.71
0.05
-4.18
-8.67
-14.24
-21.56
-30.66
-40.74
-50.46
-58.54
-64.09
-67.12
-68.15
-67.67
-65.94
-63.06
-59.12
-54.39
-49.25
-43.72
-37.37
-29.43
-19.37
-7.21
6.29
19.93
32.56
43.37
51.97
58.28
62.34
64.35
64.73
64.18
63.46
63.0
62.75
62.21
60.84
58.28
54.69
50.48
46.08
41.76
37.48
33.04
28.2
22.83
16.83
10.35
3.55
-3.4
-10.49
-17.79
-25.67
-34.36
-43.87
-53.85
-63.8
-73.29
-82.21
-90.57
-98.02
-103.76
-106.49
-105.15
-99.53
-90.46
-79.33
-67.44
-55.33
-42.8
-29.4
-15.14
-0.87
12.0
22.06
28.66
31.97
32.83
32.24
31.05
29.88
29.24
29.71
32.02
36.44
42.72
49.84
56.28
60.33
61.0
58.21
52.84
46.29
39.78
33.89
28.58
23.41
18.0
12.24
6.2
-0.1
-6.91
-14.5
-23.0
-32.28
-42.01
-52.04
-62.29
-72.64
-82.37
-89.84
-92.68
-88.39
-75.55
-54.6
-27.99
0.34
26.36
47.26
62.17
71.97
78.47
83.11
86.48
88.06
87.04
83.07
76.86
70.0
64.21
60.47
58.7
58.07
57.52
56.6
55.5
54.67
54.41
54.31
53.47
50.69
45.11
36.52
25.38
12.66
-0.5
-13.11
-24.46
-34.23
-42.64
-50.23
-57.87
-66.39
-76.45
-88.3
-101.64
-115.51
-128.22
-137.68
-141.69
-138.36
-126.48
-105.96
-77.84
-44.41
-8.89
25.12
54.39
76.78
91.85
100.56
104.59
105.22
102.83
97.02
87.58
75.23
61.88
49.77
40.45
34.08
29.71
26.29
23.43
21.84
22.6
26.39
32.61
39.48
44.59
45.99
42.77
35.22
24.7
12.85
1.12
-9.77
-19.9
-29.95
-40.71
-52.85
-66.49
-81.17
-95.8
-108.71
-117.8
-121.09
-117.22
-106.04
-88.65
-66.97
-43.24
-19.41
2.99
22.86
39.34
51.96
60.77
66.45
69.99
72.32
73.58
73.1
70.02
63.53
53.83
42.08
29.94
19.18
11.05
6.34
5.3
7.53
11.96
16.47
18.28
14.95
5.83
-6.98
-19.19
-26.02
-24.64
-15.42
-2.02
10.43
17.44
16.71
8.24
-6.7
-26.37
-48.86
-71.64
-91.11
-102.86
-103.24
-90.66
-66.87
-36.33
-4.64
23.3
44.54
58.39
66.01
69.47
70.83
71.88
73.7
76.85
81.35
86.74
92.5
98.03
102.93
106.73
108.87
108.7
105.61
99.32
90.2
79.26
67.69
56.53
46.22
36.6
27.2
17.55
7.56
-2.45
-11.82
-19.94
-26.39
-31.31
-35.31
-39.31
-44.31
-51.04
-59.73
-69.77
-79.8
-87.84
-91.76
-89.86
-81.42
-67.04
-48.52
-28.35
-9.06
7.37
19.94
28.47
33.51
35.88
36.42
35.8
34.39
32.37
29.9
27.21
24.78
23.17
22.84
23.98
26.45
29.76
33.22
36.16
38.06
38.64
37.74
35.27
31.06
24.96
17.04
7.76
-1.97
-11.13
-18.99
-25.47
-31.15
-36.88
-43.24
-50.21
-57.25
-63.8
-69.72
-75.42
-81.5
-88.05
-94.15
-97.93
-97.16
-90.25
-77.02
-58.92
-38.56
-18.81
-1.85
11.38
21.08
28.09
33.1
36.36
37.68
36.89
34.19
30.24
25.94
22.0
18.77
16.22
14.25
12.92
12.54
13.45
15.8
19.2
22.69
25.03
25.01
21.93
15.68
6.84
-3.64
-14.66
-25.23
-34.69
-42.76
-49.55
-55.52
-61.32
-67.48
-74.14
-80.79
-86.26
-88.87
-86.84
-78.72
-63.87
-42.88
-17.46
9.66
35.39
57.06
72.98
82.74
87.01
86.96
83.74
78.15
70.67
61.73
51.97
42.31
33.71
26.88
22.0
18.79
16.71
15.26
14.19
13.65
13.99
15.57
18.55
22.73
27.59
32.41
36.48
39.38
40.91
41.09
39.95
37.45
33.37
27.48
19.55
9.48
-2.66
-16.51
-31.28
-45.53
-57.09
-63.53
-62.73
-53.73
-37.16
-15.12
9.47
33.68
55.31
73.18
86.95
96.77
102.95
105.75
105.31
101.88
95.83
87.76
78.47
68.81
59.48
50.87
42.98
35.57
28.38
21.35
14.7
8.83
4.08
0.48
-2.21
-4.41
-6.55
-8.82
-11.17
-13.4
-15.33
-16.96
-18.55
-20.59
-23.73
-28.57
-35.61
-45.0
-56.41
-68.8
-80.49
-89.32
-93.07
-90.14
-80.1
-63.88
-43.62
-22.05
-1.72
15.74
29.81
40.95
50.0
57.68
64.2
69.3
72.57
73.78
73.08
70.81
67.3
62.65
56.78
49.6
41.3
32.35
23.48
15.38
8.53
3.06
-1.23
-4.78
-8.16
-11.96
-16.56
-22.03
-28.1
-34.2
-39.67
-44.04
-47.18
-49.3
-50.9
-52.59
-54.92
-58.32
-62.95
-68.48
-74.0
-78.08
-79.08
-75.7
-67.49
-55.15
-40.37
-25.27
-11.76
-0.92
7.07
12.68
16.6
19.31
21.02
21.77
21.65
20.9
19.87
18.84
17.74
16.21
13.7
9.79
4.4
-2.05
-8.87
-15.25
-20.63
-24.83
-28.13
-31.1
-34.32
-38.1
-42.29
-46.4
-49.78
-51.89
-52.57
-52.06
-50.97
-50.09
-50.08
-51.37
-53.95
-57.25
-60.19
-61.25
-58.85
-51.74
-39.52
-22.77
-3.18
16.94
35.14
49.48
58.96
63.62
64.26
62.05
58.06
53.09
47.65
42.12
36.88
32.32
28.77
26.4
25.22
25.14
26.11
28.1
31.04
34.55
37.95
40.23
40.35
37.65
31.95
23.73
13.91
3.61
-6.14
-14.65
-21.66
-27.46
-32.67
-38.19
-44.85
-53.02
-62.33
-71.46
-78.42
-80.96
-77.4
-67.22
-51.33
-31.74
-10.96
8.76
25.99
40.04
50.84
58.5
63.08
64.5
62.74
58.01
50.73
41.61
31.49
21.17
11.44
3.02
-3.52
-7.77
-9.51
-8.79
-5.88
-1.35
4.04
9.43
14.01
17.21
18.78
18.79
17.47
15.1
11.82
7.58
2.2
-4.64
-13.22
-23.66
-35.69
-48.33
-59.92
-68.34
-71.63
-68.66
-59.61
-46.0
-30.11
-14.39
-0.67
10.09
17.81
22.92
26.05
27.74
28.37
28.23
27.64
26.92
26.38
26.19
26.26
26.16
25.24
22.82
18.53
12.54
5.57
-1.33
-7.1
-11.0
-12.77
-12.59
-10.88
-8.08
-4.46
-0.11
4.94
10.53
16.2
21.21
24.72
26.07
24.95
21.59
16.7
11.41
7.03
4.68
5.04
8.18
13.52
20.03
26.54
31.98
35.57
36.89
35.94
32.95
28.45
23.07
17.46
12.11
7.32
3.17
-0.35
-3.25
-5.46
-6.77
-6.98
-5.97
-3.85
-1.05
1.69
3.44
3.4
1.12
-3.3
-9.31
-16.07
-22.77
-28.83
-33.92
-38.0
-41.19
-43.77
-46.05
-48.2
-50.05
-50.89
-49.66
-45.32
-37.33
-26.02
-12.63
1.04
13.11
22.09
27.13
28.06
25.34
19.85
12.69
4.94
-2.51
-9.14
-14.76
-19.27
-22.6
-24.63
-25.25
-24.47
-22.63
-20.19
-17.62
-15.21
-13.04
-11.02
-9.09
-7.3
-5.73
-4.54
-3.79
-3.55
-3.89
-4.99
-7.12
-10.59
-15.62
-22.01
-29.05
-35.5
-39.79
-40.56
-37.14
-29.95
-20.26
-9.84
-0.14
8.08
14.83
20.55
25.62
30.12
33.75
36.23
37.33
37.13
35.71
33.2
29.72
25.53
21.07
16.88
13.39
10.6
8.16
5.48
2.07
-2.15
-6.84
-11.44
-15.42
-18.59
-21.12
-23.51
-26.35
-30.15
-35.11
-40.95
-46.93
-51.82
-54.27
-53.11
-47.71
-38.25
-25.76
-11.87
1.55
12.87
21.11
26.03
28.1
28.1
26.76
24.51
21.48
17.7
13.34
8.89
4.95
2.08
0.52
0.09
0.34
0.78
1.01
0.75
-0.08
-1.55
-3.6
-6.18
-9.18
-12.52
-16.17
-20.19
-24.58
-29.29
-34.09
-38.65
-42.47
-44.99
-45.61
-43.79
-39.2
-31.92
-22.6
-12.25
-2.0
7.21
14.94
21.13
25.89
29.29
31.36
32.1
31.68
30.45
28.81
26.99
25.05
22.86
20.34
17.54
14.6
11.68
8.83
5.99
3.08
0.11
-2.88
-5.76
-8.44
-10.87
-13.03
-15.0
-16.94
-19.07
-21.58
-24.42
-27.09
-28.77
-28.55
-25.82
-20.56
-13.45
-5.54
2.06
8.58
13.64
17.22
19.49
20.69
21.1
21.01
20.79
20.77
21.13
21.92
22.97
24.05
24.94
25.49
25.79
26.01
26.4
27.1
27.96
28.56
28.35
26.88
24.1
20.37
16.35
12.64
9.43
6.5
3.32
-0.59
-5.36
-10.7
-15.97
-20.4
-23.24
-23.81
-21.68
-16.72
-9.32
-0.33
9.03
17.5
24.12
28.37
30.17
29.79
27.73
24.58
20.94
17.39
14.29
11.78
9.69
7.71
5.48
2.78
-0.35
-3.7
-6.93
-9.66
-11.67
-12.99
-13.92
-14.87
-16.18
-17.85
-19.55
-20.73
-20.98
-20.29
-19.13
-18.26
-18.41
-19.98
-22.81
-26.29
-29.47
-31.43
-31.49
-29.43
-25.45
-20.12
-14.18
-8.31
-2.98
1.6
5.56
9.19
12.84
16.79
21.14
25.72
30.14
33.89
36.45
37.57
37.29
35.91
33.93
31.78
29.66
27.54
25.2
22.43
19.17
15.55
11.83
8.18
4.66
1.12
-2.56
-6.36
-10.1
-13.46
-16.2
-18.3
-19.94
-21.45
-23.05
-24.8
-26.51
-27.75
-28.04
-26.93
-24.29
-20.28
-15.48
-10.59
-6.31
-3.01
-0.74
0.73
1.71
2.47
3.18
4.0
5.12
6.71
8.87
11.49
14.32
17.09
19.67
22.17
24.77
27.63
30.7
33.75
36.35
38.0
38.29
37.01
34.24
30.41
26.2
22.34
19.38
17.39
16.07
14.86
13.18
10.67
7.1
2.44
-3.32
-10.06
-17.45
-25.03
-32.22
-38.63
-44.08
-48.59
-52.1
-54.4
-55.07
-53.73
-50.26
-44.94
-38.47
-31.69
-25.37
-20.06
-15.97
-13.01
-10.76
-8.64
-6.11
-2.94
0.71
4.28
7.16
8.93
9.51
9.03
7.73
5.78
3.33
0.61
-2.03
-4.24
-5.86
-7.01
-8.07
-9.46
-11.4
-13.77
-16.18
-18.16
-19.35
-19.6
-19.02
-17.95
-16.82
-16.01
-15.72
-15.77
-15.81
-15.36
-14.14
-12.22
-9.94
-7.81
-6.14
-5.04
-4.3
-3.66
-2.86
-1.67
0.01
2.36
5.51
9.57
14.42
19.72
24.92
29.42
32.8
35.03
36.4
37.47
38.7
40.22
41.78
42.82
42.76
41.31
38.59
35.09
31.44
28.16
25.54
23.59
22.09
20.72
19.22
17.31
14.82
11.57
7.54
2.84
-2.23
-7.27
-11.88
-15.78
-18.91
-21.34
-23.2
-24.64
-25.72
-26.49
-26.93
-26.99
-26.5
-25.26
-23.08
-19.95
-16.16
-12.19
-8.57
-5.69
-3.68
-2.47
-1.92
-1.8
-1.92
-2.05
-1.97
-1.51
-0.67
0.44
1.66
2.93
4.35
6.13
8.34
10.95
13.63
15.97
17.59
18.27
17.93
16.69
14.75
12.41
10.02
7.92
6.33
5.26
4.55
3.88
2.95
1.56
-0.36
-2.74
-5.38
-7.91
-9.95
-11.18
-11.54
-11.22
-10.57
-9.88
-9.19
-8.28
-6.86
-4.78
-2.26
0.24
2.28
3.79
5.03
6.43
8.14
9.82
10.81
10.49
8.62
5.57
2.02
-1.29
-3.94
-5.88
-7.24
-8.17
-8.67
-8.67
-8.19
-7.3
-6.23
-5.23
-4.52
-4.28
-4.64
-5.61
-7.12
-8.94
-10.87
-12.67
-14.21
-15.47
-16.59
-17.8
-19.46
-21.94
-25.4
-29.75
-34.51
-38.86
-41.98
-43.21
-42.3
-39.39
-34.88
-29.27
-23.04
-16.54
-10.05
-3.76
2.1
7.34
11.74
15.12
17.33
18.38
18.43
17.78
16.8
15.91
15.44
15.58
16.38
17.7
19.29
20.92
22.45
23.85
25.13
26.24
27.01
27.32
27.08
26.3
25.0
23.15
20.65
17.41
13.48
9.1
4.6
0.19
-4.1
-8.51
-13.31
-18.58
-23.99
-28.92
-32.61
-34.53
-34.47
-32.66
-29.46
-25.29
-20.47
-15.19
-9.64
-3.97
1.6
6.84
11.49
15.36
18.27
20.19
21.2
21.51
21.38
20.99
20.42
19.52
18.12
16.11
13.59
10.82
8.1
5.57
3.19
0.77
-1.73
-4.15
-6.15
-7.39
-7.82
-7.68
-7.35
-7.24
-7.6
-8.57
-10.24
-12.7
-16.04
-20.16
-24.78
-29.35
-33.33
-36.29
-37.97
-38.36
-37.62
-36.0
-33.91
-31.77
-29.91
-28.46
-27.24
-25.93
-24.23
-21.97
-19.15
-15.83
-11.96
-7.42
-2.15
3.66
9.59
15.05
19.53
22.82
24.93
26.12
26.65
26.71
26.35
25.54
24.24
22.34
19.76
16.36
12.14
7.3
2.31
-2.13
-5.31
-6.77
-6.55
-5.15
-3.39
-2.1
-1.8
-2.48
-3.64
-4.53
-4.37
-2.71
0.52
4.95
9.88
14.55
18.31
20.74
21.71
21.32
19.82
17.53
14.72
11.7
8.78
6.24
4.32
3.11
2.54
2.48
2.74
3.23
3.93
4.9
6.12
7.5
8.84
9.91
10.6
10.82
10.56
9.68
7.98
5.23
1.4
-3.17
-7.95
-12.26
-15.69
-18.24
-20.33
-22.46
-24.89
-27.41
-29.41
-30.18
-29.27
-26.64
-22.63
-17.77
-12.54
-7.32
-2.34
2.27
6.36
9.8
12.49
14.32
15.24
15.22
14.31
12.59
10.3
7.68
4.93
2.19
-0.39
-2.59
-4.04
-4.35
-3.2
-0.6
3.07
7.12
10.7
13.21
14.4
14.46
13.92
13.3
12.81
12.23
11.04
8.69
4.98
0.18
-5.05
-10.03
-14.39
-18.18
-21.75
-25.37
-28.86
-31.53
-32.34
-30.36
-25.21
-17.3
-7.68
2.3
11.38
18.74
24.01
27.15
28.26
27.41
24.62
20.04
14.08
7.5
1.2
-4.01
-7.7
-9.98
-11.29
-12.13
-12.72
-12.9
-12.26
-10.48
-7.54
-3.73
0.53
4.82
8.9
12.48
15.23
16.81
17.05
16.1
14.36
12.24
9.75
6.52
1.9
-4.53
-12.66
-21.81
-30.85
-38.55
-43.79
-45.71
-43.76
-37.77
-28.07
-15.53
-1.39
13.04
26.67
38.75
48.78
56.35
61.13
62.87
61.65
57.83
52.04
44.96
37.15
29.06
21.09
13.59
6.93
1.39
-2.87
-5.91
-7.92
-9.13
-9.71
-9.82
-9.55
-9.05
-8.44
-7.86
-7.32
-6.82
-6.38
-6.04
-5.94
-6.26
-7.22
-9.1
-12.17
-16.69
-22.84
-30.63
-39.76
-49.45
-58.45
-65.22
-68.23
-66.41
-59.4
-47.71
-32.51
-15.39
2.05
18.5
33.02
45.08
54.35
60.57
63.5
63.05
59.43
53.16
45.08
36.08
26.97
18.32
10.43
3.48
-2.41
-7.1
-10.46
-12.46
-13.22
-13.05
-12.41
-11.8
-11.59
-11.84
-12.25
-12.26
-11.29
-9.07
-5.87
-2.45
0.09
0.77
-1.1
-5.67
-12.56
-20.94
-29.6
-37.1
-42.02
-43.25
-40.34
-33.57
-23.95
-12.86
-1.58
9.04
18.75
27.72
36.24
44.35
51.7
57.58
61.21
62.04
59.99
55.41
48.92
41.18
32.67
23.7
14.57
5.71
-2.29
-8.77
-13.38
-16.21
-17.91
-19.39
-21.45
-24.33
-27.66
-30.65
-32.53
-32.95
-32.11
-30.68
-29.45
-29.05
-29.81
-31.65
-34.15
-36.56
-37.9
-37.16
-33.65
-27.15
-18.07
-7.31
3.93
14.53
23.49
30.17
34.26
35.82
35.29
33.39
30.94
28.73
27.39
27.39
28.94
32.02
36.36
41.41
46.46
50.74
53.65
54.83
54.18
51.82
47.89
42.49
35.52
26.88
16.54
4.82
-7.52
-19.34
-29.42
-36.97
-41.92
-45.03
-47.63
-50.98
-55.82
-62.09
-68.94
-74.92
-78.34
-77.59
-71.53
-59.87
-43.38
-23.78
-3.4
15.46
31.0
42.32
49.34
52.56
52.73
50.64
47.04
42.58
37.84
33.25
28.98
25.07
21.47
18.22
15.49
13.54
12.62
12.88
14.35
16.85
20.02
23.25
25.68
26.44
24.79
20.49
13.86
5.72
-2.99
-11.49
-19.35
-26.45
-32.8
-38.38
-43.24
-47.53
-51.73
-56.41
-61.94
-68.26
-74.58
-79.58
-81.71
-79.67
-72.75
-61.04
-45.45
-27.46
-8.79
8.92
24.46
37.05
46.3
52.09
54.47
53.69
50.16
44.6
37.82
30.6
23.55
17.06
11.38
6.79
3.59
2.07
2.36
4.32
7.48
11.1
14.25
16.04
15.79
13.23
8.53
2.15
-5.35
-13.55
-22.28
-31.59
-41.54
-52.12
-63.09
-74.01
-84.34
-93.33
-100.11
-103.64
-103.04
-97.81
-88.12
-74.88
-59.45
-43.24
-27.27
-11.93
2.89
17.44
31.8
45.67
58.47
69.55
78.38
84.65
88.36
89.65
88.88
86.45
82.81
78.42
73.7
69.02
64.67
60.79
57.31
53.91
50.04
45.21
39.21
32.42
25.65
19.81
15.36
11.94
8.5
3.69
-3.41
-12.89
-23.88
-34.83
-44.03
-50.01
-51.9
-49.45
-43.13
-33.97
-23.42
-13.04
-4.18
2.39
6.46
8.36
8.68
8.1
7.14
6.17
5.4
4.96
4.98
5.59
6.9
8.9
11.42
13.99
15.96
16.68
15.73
13.05
9.06
4.39
-0.27
-4.39
-7.71
-10.19
-11.94
-13.17
-14.12
-15.01
-15.94
-16.66
-16.65
-15.2
-11.73
-5.99
1.66
10.4
19.19
26.97
32.93
36.55
37.64
36.31
32.98
28.24
22.75
17.12
11.69
6.61
1.86
-2.58
-6.63
-10.15
-12.91
-14.7
-15.34
-14.74
-12.98
-10.31
-7.12
-3.88
-0.97
1.34
2.91
3.64
3.35
1.88
-0.92
-5.08
-10.51
-17.07
-24.43
-32.09
-39.15
-44.46
-46.8
-45.28
-39.66
-30.48
-18.87
-6.18
6.42
18.13
28.52
37.3
44.25
49.07
51.54
51.49
48.95
44.1
37.25
28.91
19.77
10.61
2.13
-5.18
-11.18
-15.93
-19.66
-22.55
-24.71
-26.27
-27.38
-28.15
-28.63
-28.77
-28.4
-27.38
-25.73
-23.67
-21.53
-19.68
-18.45
-18.02
-18.44
-19.47
-20.52
-20.79
-19.4
-15.81
-10.11
-3.01
4.34
10.89
16.02
19.72
22.45
24.84
27.38
30.29
33.57
37.15
40.87
44.47
47.45
49.17
49.0
46.54
41.85
35.43
28.01
20.26
12.67
5.34
-1.75
-8.67
-15.35
-21.58
-26.99
-31.28
-34.34
-36.33
-37.64
-38.69
-39.84
-41.13
-42.32
-42.92
-42.26
-39.68
-34.52
-26.48
-15.75
-3.21
9.63
21.01
29.5
34.43
35.99
34.9
31.99
27.88
22.91
17.45
12.02
7.31
3.95
2.23
2.06
3.05
4.81
7.09
9.82
12.93
16.26
19.42
21.82
22.85
21.97
18.89
13.59
6.39
-2.12
-11.17
-20.05
-28.35
-35.95
-43.1
-50.09
-56.95
-63.3
-68.28
-70.81
-69.91
-65.04
-56.35
-44.68
-31.31
-17.66
-4.91
6.21
15.42
22.71
28.24
32.16
34.67
35.98
36.37
36.07
35.19
33.68
31.32
27.98
23.83
19.39
15.42
12.54
10.99
10.6
10.96
11.76
12.92
14.58
16.95
20.02
23.56
26.98
29.56
30.52
29.15
24.95
17.76
7.9
-3.76
-15.83
-26.82
-35.38
-40.78
-42.87
-42.04
-39.0
-34.52
-29.36
-24.18
-19.42
-15.42
-12.31
-10.07
-8.5
-7.27
-5.97
-4.25
-1.91
1.0
4.19
7.19
9.48
10.61
10.32
8.54
5.42
1.16
-3.96
-9.62
-15.54
-21.43
-27.04
-32.12
-36.42
-39.63
-41.47
-41.78
-40.58
-38.0
-34.37
-30.1
-25.71
-21.76
-18.78
-17.1
-16.63
-16.88
-16.95
-15.95
-13.28
-8.95
-3.6
1.89
6.68
10.31
12.74
14.19
14.9
15.06
14.71
13.9
12.72
11.38
10.11
9.09
8.45
8.22
8.43
9.11
10.36
12.25
14.76
17.69
20.6
22.81
23.54
22.18
18.51
12.92
6.31
-0.22
-5.79
-9.99
-13.0
-15.38
-17.69
-20.23
-22.85
-25.03
-25.95
-24.78
-20.91
-14.16
-4.89
5.95
17.04
26.94
34.47
39.0
40.45
39.23
35.98
31.36
26.03
20.55
15.35
10.74
6.86
3.7
1.18
-0.77
-2.13
-2.86
-2.9
-2.26
-1.08
0.46
2.12
3.82
5.55
7.41
9.49
11.64
13.45
14.24
13.4
10.5
5.54
-1.12
-8.97
-17.49
-26.16
-34.39
-41.25
-45.6
-46.29
-42.59
-34.56
-23.12
-9.76
3.96
16.8
28.08
37.54
45.15
50.83
54.37
55.44
53.88
49.76
43.54
35.98
27.92
20.03
12.7
5.96
-0.27
-6.1
-11.5
-16.34
-20.5
-23.91
-26.6
-28.62
-30.01
-30.72
-30.69
-29.93
-28.58
-26.93
-25.4
-24.39
-24.21
-24.9
-26.22
-27.61
-28.35
-27.83
-25.65
-21.91
-17.06
-11.81
-6.81
-2.43
1.28
4.56
7.67
10.71
13.53
15.92
17.78
19.31
20.93
23.17
26.29
30.2
34.4
38.19
40.87
41.93
41.05
38.13
33.31
26.87
19.28
11.08
2.81
-5.08
-12.25
-18.57
-24.04
-28.9
-33.58
-38.64
-44.49
-51.01
-57.46
-62.42
-64.33
-61.91
-54.76
-43.49
-29.48
-14.49
-0.22
12.0
21.28
27.13
29.46
28.6
25.22
20.24
14.59
9.07
4.24
0.45
-2.18
-3.63
-4.06
-3.8
-3.09
-2.06
-0.5
1.91
5.38
9.66
14.02
17.49
19.24
19.01
17.05
13.9
10.05
5.66
0.57
-5.54
-12.88
-21.41
-30.68
-39.81
-47.66
-53.05
-55.03
-53.13
-47.49
-38.78
-27.96
-16.03
-3.91
7.67
18.18
27.23
34.63
40.38
44.59
47.35
48.7
48.51
46.69
43.21
38.31
32.34
25.81
19.19
13.02
7.81
3.95
1.64
0.69
0.62
0.68
0.32
-0.69
-2.09
-3.22
-3.38
-2.18
0.21
2.98
4.86
4.55
1.14
-5.42
-14.21
-23.56
-31.52
-36.42
-37.38
-34.47
-28.48
-20.63
-12.2
-4.27
2.37
7.27
10.3
11.69
11.9
11.56
11.22
11.35
12.26
14.08
16.8
20.16
23.64
26.57
28.34
28.65
27.64
25.78
23.59
21.27
18.6
15.05
10.18
3.98
-3.0
-9.79
-15.37
-19.11
-20.86
-20.9
-19.73
-17.9
-15.8
-13.79
-12.06
-10.65
-9.36
-7.82
-5.56
-2.21
2.31
7.69
13.31
18.41
22.33
24.67
25.34
24.52
22.54
19.73
16.4
12.76
8.95
5.18
1.73
-1.01
-2.64
-2.86
-1.67
0.76
4.11
8.13
12.65
17.41
22.04
25.9
28.31
28.73
27.03
23.56
18.89
13.58
7.95
2.06
-4.17
-10.72
-17.49
-24.26
-30.77
-36.68
-41.47
-44.33
-44.28
-40.42
-32.26
-20.08
-4.91
11.59
27.51
41.12
51.18
57.13
59.05
57.49
53.3
47.34
40.3
32.74
25.01
17.33
9.88
2.82
-3.67
-9.38
-14.01
-17.28
-18.93
-18.81
-17.0
-13.84
-9.88
-5.75
-2.05
0.83
2.76
3.87
4.49
4.93
5.29
5.37
4.69
2.59
-1.44
-7.55
-15.3
-23.75
-31.6
-37.51
-40.51
-40.14
-36.56
-30.38
-22.41
-13.48
-4.27
4.8
13.44
21.43
28.44
34.02
37.64
38.9
37.73
34.45
29.75
24.46
19.21
14.33
9.84
5.62
1.62
-2.13
-5.53
-8.56
-11.34
-14.14
-17.12
-20.29
-23.53
-26.55
-29.02
-30.7
-31.38
-30.96
-29.48
-27.2
-24.5
-21.88
-19.74
-18.3
-17.5
-16.97
-16.2
-14.67
-12.07
-8.41
-4.03
0.54
4.71
8.07
10.44
11.85
12.55
12.84
13.09
13.67
14.98
17.3
20.75
25.12
29.85
34.08
36.9
37.58
35.86
32.04
26.84
21.16
15.68
10.62
5.81
0.81
-4.73
-10.91
-17.46
-23.88
-29.67
-34.45
-38.05
-40.54
-42.2
-43.41
-44.5
-45.54
-46.24
-45.89
-43.56
-38.45
-30.25
-19.31
-6.66
6.25
17.95
27.22
33.37
36.23
36.09
33.5
29.15
23.69
17.68
11.56
5.76
0.73
-2.98
-4.95
-4.95
-3.12
0.1
4.14
8.51
12.95
17.36
21.51
24.95
26.93
26.65
23.63
17.88
9.98
0.81
-8.7
-17.85
-26.13
-33.08
-38.22
-41.08
-41.41
-39.32
-35.36
-30.29
-24.85
-19.48
-14.34
-9.47
-4.96
-1.04
1.96
3.86
4.77
5.15
5.6
6.59
8.33
10.54
12.57
13.61
13.0
10.51
6.46
1.61
-3.15
-7.19
-10.29
-12.62
-14.53
-16.2
-17.55
-18.28
-18.1
-17.02
-15.4
-13.76
-12.4
-11.22
-9.67
-7.14
-3.29
1.72
7.22
12.38
16.53
19.33
20.8
21.09
20.27
18.39
15.53
11.95
8.15
4.65
1.84
-0.24
-1.75
-2.97
-4.06
-4.91
-5.34
-5.09
-4.1
-2.45
-0.39
1.75
3.6
4.78
5.0
4.06
2.03
-0.88
-4.38
-8.26
-12.6
-17.58
-23.31
-29.49
-35.28
-39.41
-40.6
-38.08
-31.86
-22.75
-11.96
-0.66
10.39
20.89
30.78
39.9
47.83
53.98
57.9
59.49
59.09
57.31
54.73
51.74
48.46
44.84
40.87
36.5
31.74
26.53
20.82
14.56
7.91
1.09
-5.61
-11.97
-17.86
-23.19
-27.86
-31.77
-34.93
-37.48
-39.71
-41.86
-43.89
-45.31
-45.34
-43.23
-38.6
-31.8
-23.7
-15.44
-7.91
-1.55
3.61
7.73
10.85
12.8
13.4
12.58
10.64
8.19
5.99
4.59
4.19
4.65
5.69
7.02
8.54
10.21
11.92
13.31
13.76
12.63
9.49
4.42
-1.99
-8.88
-15.46
-21.27
-26.28
-30.78
-35.17
-39.74
-44.59
-49.47
-53.84
-56.79
-57.28
-54.43
-47.87
-37.93
-25.66
-12.56
-0.13
10.42
18.38
23.56
26.12
26.51
25.31
23.18
20.69
18.24
16.0
13.9
11.8
9.61
7.35
5.25
3.66
3.0
3.6
5.53
8.59
12.24
15.74
18.39
19.67
19.35
17.47
14.27
10.14
5.47
0.62
-4.25
-9.17
-14.41
-20.24
-26.71
-33.39
-39.3
-43.19
-43.91
-40.96
-34.67
-26.14
-16.83
-8.01
-0.49
5.5
10.07
13.34
15.27
15.76
14.72
12.33
9.1
5.6
2.33
-0.55
-3.16
-5.81
-8.61
-11.43
-13.81
-15.13
-14.98
-13.3
-10.4
-6.87
-3.26
0.15
3.28
6.14
8.53
9.89
9.44
6.54
1.04
-6.49
-14.85
-22.56
-28.22
-30.88
-30.34
-26.98
-21.71
-15.52
-9.26
-3.44
1.82
6.58
10.93
14.78
18.02
20.55
22.42
23.84
24.98
25.83
26.13
25.58
23.95
21.32
18.03
14.4
10.62
6.72
2.64
-1.54
-5.52
-8.88
-11.18
-12.24
-12.14
-11.22
-10.0
-9.03
-8.74
-9.26
-10.33
-11.28
-11.22
-9.43
-5.67
-0.38
5.5
11.0
15.44
18.63
20.77
22.11
22.82
22.9
22.32
21.18
19.78
18.57
17.92
18.05
18.88
20.07
21.26
22.16
22.7
22.98
23.2
23.44
23.51
22.88
20.91
17.08
11.35
4.23
-3.37
-10.45
-16.34
-20.81
-24.18
-26.99
-29.82
-33.0
-36.38
-39.42
-41.25
-40.95
-37.9
-32.0
-23.79
-14.31
-4.74
3.92
11.22
17.11
21.77
25.35
27.78
28.88
28.57
27.05
24.75
22.24
19.89
17.91
16.3
14.98
13.95
13.3
13.09
13.29
13.73
14.07
13.97
13.24
11.85
10.03
8.16
6.62
5.57
4.85
3.99
2.41
-0.27
-4.01
-8.39
-12.84
-16.85
-20.19
-22.72
-24.14
-23.96
-21.52
-16.43
-8.93
0.01
9.05
16.89
22.83
26.78
29.12
30.26
30.39
29.44
27.28
23.98
19.92
15.73
12.08
9.39
7.77
6.97
6.6
6.22
5.56
4.61
3.63
2.95
2.88
3.5
4.66
6.06
7.34
8.22
8.46
7.83
6.14
3.32
-0.44
-4.64
-8.59
-11.67
-13.6
-14.59
-15.12
-15.72
-16.65
-17.75
-18.6
-18.71
-17.73
-15.54
-12.22
-8.01
-3.39
1.08
4.82
7.42
8.79
9.2
9.08
8.8
8.57
8.37
8.1
7.67
7.11
6.48
5.9
5.43
5.16
5.17
5.48
6.09
6.89
7.75
8.57
9.32
9.97
10.37
10.28
9.42
7.58
4.77
1.2
-2.86
-7.1
-11.32
-15.3
-18.76
-21.36
-22.78
-22.92
-21.93
-20.19
-18.15
-16.12
-14.31
-12.77
-11.51
-10.46
-9.56
-8.64
-7.59
-6.33
-4.87
-3.3
-1.7
-0.07
1.6
3.27
4.79
5.93
6.56
6.73
6.71
6.8
7.12
7.61
8.03
8.24
8.3
8.44
8.91
9.79
10.98
12.13
12.82
12.68
11.5
9.32
6.45
3.37
0.59
-1.54
-2.96
-3.85
-4.45
-4.93
-5.24
-5.22
-4.69
-3.59
-2.06
-0.43
0.85
1.37
0.86
-0.7
-2.95
-5.27
-6.95
-7.48
-6.78
-5.21
-3.43
-2.07
-1.43
-1.42
-1.68
-1.84
-1.71
-1.34
-0.92
-0.56
-0.25
0.14
0.72
1.44
2.12
2.48
2.37
1.84
1.03
0.13
-0.83
-1.97
-3.5
-5.55
-8.06
-10.77
-13.36
-15.47
-16.89
-17.52
-17.38
-16.54
-15.08
-13.08
-10.7
-8.18
-5.88
-4.2
-3.5
-3.85
-5.11
-6.82
-8.49
-9.71
-10.31
-10.36
-10.04
-9.47
-8.72
-7.8
-6.69
-5.43
-4.14
-2.93
-1.91
-1.11
-0.51
-0.02
0.45
1.0
1.68
2.44
3.21
3.88
4.43
4.86
5.19
5.36
5.24
4.66
3.51
1.82
-0.24
-2.42
-4.51
-6.41
-8.02
-9.25
-9.93
-9.87
-9.08
-7.8
-6.42
-5.41
-5.03
-5.31
-6.0
-6.75
-7.22
-7.11
-6.25
-4.6
-2.21
0.63
3.49
5.9
7.4
7.77
7.07
5.65
3.95
2.45
1.52
1.24
1.55
2.18
2.86
3.47
4.06
4.83
5.91
7.19
8.39
9.19
9.4
9.07
8.35
7.26
5.7
3.5
0.66
-2.53
-5.57
-7.99
-9.6
-10.54
-11.16
-11.71
-12.18
-12.46
-12.38
-11.97
-11.32
-10.55
-9.56
-8.13
-6.07
-3.36
-0.16
3.21
6.47
9.49
12.19
14.49
16.15
16.89
16.5
15.04
12.79
10.27
7.93
6.09
4.83
4.04
3.51
3.03
2.55
2.1
1.82
1.9
2.39
3.16
3.92
4.26
3.87
2.65
0.82
-1.3
-3.33
-5.12
-6.69
-8.18
-9.74
-11.37
-13.01
-14.51
-15.75
-16.66
-17.2
-17.31
-16.87
-15.72
-13.68
-10.68
-6.78
-2.29
2.31
6.5
9.82
12.06
13.29
13.78
13.78
13.42
12.65
11.32
9.41
7.11
4.82
2.96
1.81
1.33
1.32
1.48
1.64
1.75
1.91
2.22
2.7
3.19
3.39
2.99
1.75
-0.37
-3.13
-6.1
-8.83
-11.03
-12.75
-14.28
-15.88
-17.67
-19.38
-20.55
-20.7
-19.58
-17.22
-13.88
-9.86
-5.41
-0.76
3.85
8.11
11.72
14.45
16.24
17.23
17.6
17.52
17.02
16.03
14.51
12.42
9.86
7.04
4.22
1.72
-0.24
-1.55
-2.28
-2.61
-2.76
-2.88
-2.99
-3.03
-2.89
-2.55
-2.09
-1.71
-1.64
-2.16
-3.55
-6.02
-9.65
-14.19
-19.12
-23.73
-27.39
-29.72
-30.6
-30.05
-28.13
-24.8
-20.01
-13.93
-6.98
0.21
6.94
12.65
17.03
20.02
21.66
22.05
21.38
19.92
18.03
16.08
14.29
12.71
11.19
9.53
7.58
5.3
2.77
0.24
-2.07
-3.88
-5.08
-5.69
-5.9
-6.01
-6.32
-6.97
-7.99
-9.29
-10.76
-12.29
-13.95
-15.83
-18.06
-20.78
-24.01
-27.62
-31.25
-34.32
-36.09
-35.96
-33.59
-29.05
-22.76
-15.34
-7.43
0.42
7.77
14.26
19.65
23.9
27.08
29.4
31.01
31.89
31.89
30.81
28.65
25.63
22.14
18.54
15.02
11.6
8.25
4.99
1.98
-0.57
-2.53
-3.94
-4.95
-5.75
-6.47
-7.19
-7.97
-8.92
-10.17
-11.91
-14.27
-17.3
-20.97
-25.03
-29.02
-32.18
-33.73
-33.08
-30.11
-25.26
-19.43
-13.53
-8.09
-3.17
1.61
6.64
12.07
17.66
22.96
27.44
30.77
32.79
33.5
32.97
31.3
28.67
25.37
21.74
18.14
14.84
11.95
9.39
6.91
4.18
0.94
-2.85
-7.01
-11.15
-14.84
-17.78
-19.97
-21.71
-23.47
-25.77
-28.94
-32.89
-37.05
-40.42
-41.76
-40.14
-35.23
-27.54
-18.21
-8.56
0.37
8.05
14.33
19.24
22.72
24.67
25.09
24.3
22.85
21.43
20.49
20.23
20.52
21.12
21.89
22.74
23.59
24.21
24.26
23.36
21.29
18.09
13.99
9.39
4.65
0.02
-4.43
-8.82
-13.39
-18.47
-24.29
-30.83
-37.67
-43.97
-48.55
-50.3
-48.38
-42.5
-33.03
-20.9
-7.43
5.96
17.95
27.6
34.42
38.42
39.98
39.65
37.95
35.26
31.81
27.79
23.39
18.86
14.42
10.3
6.59
3.37
0.68
-1.45
-3.02
-4.05
-4.6
-4.71
-4.43
-3.95
-3.57
-3.81
-5.26
-8.43
-13.5
-20.21
-27.77
-34.9
-40.13
-42.01
-39.6
-32.71
-22.11
-9.32
3.73
15.28
24.23
30.25
33.78
35.65
36.66
37.39
38.13
38.86
39.43
39.56
39.0
37.6
35.35
32.43
29.15
25.84
22.7
19.74
16.78
13.54
9.77
5.3
0.16
-5.48
-11.31
-17.01
-22.36
-27.29
-31.91
-36.33
-40.52
-44.06
-46.2
-46.07
-43.01
-36.83
-27.92
-17.07
-5.34
6.21
16.59
24.99
30.83
33.85
34.23
32.51
29.47
25.91
22.39
19.17
16.25
13.44
10.56
7.56
4.59
2.1
0.66
0.72
2.38
5.24
8.5
11.27
12.9
13.15
12.16
10.27
7.79
4.89
1.58
-2.23
-6.65
-11.85
-17.92
-24.76
-31.91
-38.47
-43.13
-44.47
-41.37
-33.41
-21.05
-5.59
11.1
27.04
40.6
50.77
57.28
60.5
61.15
60.0
57.71
54.66
51.12
47.24
43.17
39.0
34.79
30.53
26.18
21.85
17.81
14.39
11.85
10.19
9.11
8.17
6.99
5.46
3.76
2.23
1.17
0.62
0.36
-0.07
-1.23
-3.59
-7.45
-12.73
-18.9
-25.03
-29.9
-32.34
-31.61
-27.62
-20.93
-12.49
-3.33
5.68
14.03
21.45
27.87
33.24
37.49
40.6
42.53
43.34
43.11
41.92
39.78
36.63
32.42
27.25
21.48
15.73
10.63
6.61
3.68
1.42
-0.74
-3.18
-5.87
-8.39
-10.22
-11.08
-11.09
-10.69
-10.43
-10.69
-11.63
-13.19
-15.17
-17.21
-18.77
-19.19
-17.9
-14.64
-9.68
-3.78
2.04
6.85
10.16
11.94
12.48
12.25
11.67
11.07
10.66
10.56
10.8
11.32
12.04
12.88
13.84
14.88
15.91
16.7
17.0
16.53
15.16
12.89
9.8
6.01
1.63
-3.1
-7.92
-12.45
-16.43
-19.72
-22.42
-24.76
-27.02
-29.41
-31.96
-34.56
-36.9
-38.43
-38.48
-36.39
-31.83
-25.04
-16.8
-8.25
-0.46
5.94
10.84
14.5
17.25
19.23
20.35
20.38
19.26
17.12
14.28
11.14
8.07
5.33
3.17
1.74
1.07
1.07
1.52
2.18
2.88
3.54
4.22
4.91
5.48
5.67
5.19
3.79
1.44
-1.72
-5.46
-9.54
-13.66
-17.51
-20.75
-23.03
-23.98
-23.42
-21.34
-18.05
-14.09
-10.12
-6.75
-4.28
-2.68
-1.65
-0.79
0.09
0.9
1.36
1.28
0.76
0.14
-0.21
-0.19
-0.12
-0.56
-1.93
-4.26
-7.12
-9.87
-11.93
-13.1
-13.5
-13.4
-13.01
-12.35
-11.38
-10.09
-8.64
-7.25
-6.12
-5.36
-4.88
-4.49
-3.96
-3.07
-1.72
0.11
2.3
4.61
6.73
8.44
9.59
10.16
10.15
9.56
8.35
6.51
4.21
1.78
-0.36
-1.85
-2.51
-2.45
-1.99
-1.46
-1.09
-0.92
-0.86
-0.78
-0.61
-0.35
-0.07
0.11
-0.0
-0.59
-1.82
-3.74
-6.31
-9.33
-12.5
-15.47
-17.87
-19.29
-19.4
-18.03
-15.24
-11.37
-6.96
-2.6
1.37
4.82
7.84
10.48
12.65
14.09
14.51
13.86
12.35
10.46
8.72
7.44
6.63
6.03
5.24
3.88
1.81
-0.9
-3.99
-7.13
-10.06
-12.62
-14.76
-16.35
-17.26
-17.33
-16.61
-15.49
-14.64
-14.79
-16.3
-18.85
-21.45
-22.87
-22.08
-18.85
-13.82
-8.17
-3.13
0.47
2.43
3.01
2.66
1.79
0.66
-0.51
-1.42
-1.68
-0.91
1.07
4.13
7.78
11.35
14.23
16.04
16.76
16.71
16.36
16.11
16.14
16.36
16.44
15.98
14.7
12.5
9.47
5.81
1.74
-2.61
-7.16
-11.77
-16.22
-20.05
-22.7
-23.65
-22.59
-19.6
-15.1
-9.77
-4.27
0.8
5.07
8.33
10.46
11.43
11.2
9.9
7.72
4.98
2.05
-0.83
-3.5
-5.89
-7.93
-9.5
-10.43
-10.59
-9.99
-8.83
-7.38
-5.87
-4.38
-2.87
-1.27
0.34
1.69
2.4
2.21
1.09
-0.76
-3.06
-5.57
-8.19
-10.88
-13.53
-15.94
-17.78
-18.71
-18.44
-16.79
-13.78
-9.61
-4.68
0.45
5.19
9.09
11.9
13.65
14.45
14.48
13.83
12.55
10.68
8.34
5.65
2.76
-0.21
-3.15
-5.94
-8.41
-10.48
-12.09
-13.28
-14.03
-14.26
-13.84
-12.68
-10.81
-8.51
-6.13
-4.12
-2.74
-2.1
-2.2
-2.96
-4.31
-6.09
-8.09
-9.88
-11.01
-11.08
-9.98
-7.88
-5.23
-2.55
-0.28
1.36
2.36
2.96
3.49
4.25
5.34
6.65
7.9
8.78
9.16
9.1
8.84
8.65
8.72
9.05
9.57
10.11
10.51
10.6
10.16
9.06
7.22
4.77
1.91
-1.17
-4.41
-7.81
-11.28
-14.52
-17.03
-18.36
-18.36
-17.3
-15.74
-14.16
-12.77
-11.35
-9.49
-6.88
-3.51
0.27
3.93
7.05
9.45
11.2
12.48
13.41
13.91
13.85
13.07
11.59
9.58
7.35
5.21
3.4
2.05
1.25
1.09
1.73
3.34
5.9
9.19
12.66
15.6
17.39
17.62
16.22
13.42
9.59
5.11
0.24
-4.85
-10.1
-15.43
-20.73
-25.73
-29.99
-32.94
-34.03
-32.93
-29.71
-24.87
-19.13
-13.15
-7.35
-1.81
3.53
8.66
13.3
17.03
19.5
20.63
20.63
19.88
18.68
17.08
14.95
12.15
8.7
4.85
1.01
-2.41
-5.11
-6.93
-7.83
-7.87
-7.25
-6.25
-5.24
-4.54
-4.38
-4.76
-5.58
-6.74
-8.25
-10.2
-12.62
-15.4
-18.19
-20.49
-21.9
-22.25
-21.63
-20.35
-18.75
-17.03
-15.24
-13.27
-10.98
-8.31
-5.29
-2.06
1.16
4.13
6.6
8.4
9.5
10.09
10.46
10.97
11.82
12.87
13.67
13.69
12.52
10.15
7.05
3.92
1.39
-0.27
-1.2
-1.82
-2.56
-3.73
-5.42
-7.58
-10.07
-12.67
-14.97
-16.43
-16.47
-14.69
-11.18
-6.51
-1.58
2.75
5.95
7.87
8.67
8.58
7.8
6.49
4.95
3.54
2.68
2.64
3.43
4.74
6.14
7.22
7.69
7.46
6.48
4.76
2.34
-0.7
-4.23
-8.05
-11.98
-15.84
-19.42
-22.55
-25.11
-27.1
-28.66
-30.11
-31.76
-33.78
-36.04
-38.12
-39.38
-39.18
-37.0
-32.66
-26.28
-18.31
-9.49
-0.75
6.93
12.73
16.17
17.31
16.74
15.38
14.1
13.47
13.58
14.14
14.76
15.19
15.54
16.13
17.4
19.57
22.51
25.78
28.8
31.08
32.34
32.58
31.88
30.37
28.15
25.32
22.0
18.37
14.53
10.45
5.96
0.91
-4.66
-10.3
-15.3
-18.86
-20.4
-19.72
-17.02
-12.79
-7.63
-2.17
3.03
7.5
10.84
12.82
13.35
12.54
10.7
8.21
5.55
3.08
1.02
-0.59
-1.82
-2.84
-3.89
-5.22
-7.05
-9.5
-12.49
-15.69
-18.61
-20.71
-21.57
-21.05
-19.29
-16.71
-13.85
-11.19
-9.09
-7.75
-7.22
-7.34
-7.81
-8.08
-7.51
-5.49
-1.75
3.53
9.67
15.65
20.44
23.34
24.15
23.23
21.2
18.78
16.53
14.76
13.49
12.57
11.79
11.03
10.28
9.57
8.8
7.76
6.18
4.0
1.43
-1.06
-3.06
-4.53
-5.92
-7.93
-11.06
-15.3
-20.04
-24.38
-27.49
-28.98
-28.81
-27.08
-23.82
-18.98
-12.57
-4.88
3.44
11.57
18.67
24.1
27.47
28.66
27.74
25.03
21.01
16.27
11.4
6.85
2.92
-0.24
-2.52
-3.86
-4.29
-3.98
-3.26
-2.52
-2.06
-1.97
-2.15
-2.44
-2.8
-3.37
-4.35
-5.93
-8.09
-10.63
-13.2
-15.35
-16.65
-16.77
-15.65
-13.47
-10.66
-7.71
-4.93
-2.28
0.48
3.64
7.23
10.89
14.07
16.24
17.18
16.98
15.96
14.4
12.47
10.22
7.71
5.15
2.88
1.12
-0.04
-0.8
-1.53
-2.68
-4.61
-7.51
-11.35
-15.89
-20.71
-25.31
-29.2
-31.97
-33.33
-33.08
-31.2
-27.82
-23.44
-18.79
-14.73
-11.91
-10.46
-9.95
-9.66
-9.04
-8.07
-7.25
-7.18
-8.05
-9.43
-10.35
-9.98
-8.03
-5.02
-1.91
0.38
1.45
1.52
1.24
1.35
2.37
4.49
7.47
10.78
13.72
15.65
16.26
15.65
14.29
12.71
11.31
10.29
9.81
10.12
11.64
14.71
19.28
24.77
30.24
34.78
37.87
39.48
39.87
39.33
37.95
35.75
32.75
29.11
25.05
20.8
16.57
12.62
9.41
7.47
7.13
8.22
9.9
11.05
10.68
8.54
5.21
1.82
-0.61
-1.59
-1.44
-1.07
-1.48
-3.3
-6.46
-10.26
-13.54
-15.08
-13.96
-9.75
-2.67
6.48
16.4
25.6
32.67
36.64
37.26
35.07
31.17
26.87
23.2
20.59
18.89
17.5
15.85
13.54
10.56
7.23
4.0
1.26
-0.73
-1.9
-2.4
-2.51
-2.63
-3.1
-4.1
-5.52
-6.99
-7.95
-7.97
-6.93
-5.14
-3.31
-2.2
-2.38
-3.89
-6.22
-8.45
-9.61
-9.02
-6.53
-2.6
1.97
6.26
9.66
12.01
13.57
14.79
16.08
17.56
19.12
20.53
21.6
22.22
22.35
21.88
20.65
18.51
15.46
11.75
7.86
4.31
1.45
-0.75
-2.64
-4.72
-7.38
-10.65
-14.11
-17.0
-18.4
-17.64
-14.54
-9.57
-3.77
1.65
5.65
7.73
8.01
7.09
5.78
4.8
4.59
5.29
6.7
8.44
10.08
11.3
11.98
12.21
12.29
12.5
12.96
13.59
14.11
14.16
13.42
11.83
9.45
6.49
3.22
-0.1
-3.3
-6.22
-8.84
-11.14
-13.19
-15.15
-17.17
-19.32
-21.41
-22.96
-23.29
-21.71
-17.87
-11.99
-4.92
2.1
7.86
11.58
13.17
13.2
12.65
12.52
13.35
15.22
17.64
19.99
21.73
22.68
23.05
23.21
23.57
24.23
24.98
25.23
24.17
20.97
15.19
7.0
-2.61
-12.04
-19.5
-23.8
-24.76
-23.42
-21.49
-20.58
-21.4
-23.38
-25.0
-24.61
-21.09
-14.32
-4.97
6.03
17.98
30.73
44.46
59.53
76.3
95.16
116.5
140.53
166.97
194.67
221.6
245.34
263.91
276.44
283.38
286.16
286.41
285.3
283.34
280.53
276.69
271.7
265.39
257.17
245.84
229.5
205.84
172.52
127.91
72.0
7.26
-61.05
-125.69
-179.16
-216.11
-235.0
-238.54
-232.4
-222.93
-215.04
-210.97
-210.51
-212.08
-213.88
-214.46
-212.8
-208.16
-200.01
-188.5
-174.65
-160.36
-147.76
-138.5
-132.98
-130.33
-128.87
-127.0
-123.87
-119.63
-115.01
-110.78
-107.46
-105.21
-104.1
-104.22
-105.5
-107.45
-109.01
-108.84
-105.83
-99.66
-91.02
-81.21
-71.54
-62.75
-54.84
-47.36
-39.92
-32.6
-26.0
-20.94
-18.02
-17.31
-18.22
-19.87
-21.51
-22.81
-23.8
-24.69
-25.51
-26.08
-26.14
-25.62
-24.88
-24.49
-24.98
-26.44
-28.5
-30.62
-32.4
-33.75
-34.89
-35.94
-36.75
-36.86
-35.73
-33.05
-28.96
-23.94
-18.52
-13.03
-7.53
-1.88
3.92
9.56
14.37
17.51
18.28
16.39
12.2
6.6
0.78
-4.08
-7.12
-7.92
-6.54
-3.49
0.5
4.55
7.87
9.92
10.51
9.87
8.49
6.9
5.45
4.17
2.83
1.15
-0.94
-3.29
-5.46
-6.98
-7.52
-6.94
-5.3
-2.77
0.42
3.99
7.58
10.75
13.09
14.3
14.28
13.18
11.32
9.1
6.87
4.85
3.12
1.69
0.6
-0.02
0.02
0.85
2.38
4.25
5.93
6.91
6.9
6.0
4.54
2.91
1.38
-0.0
-1.33
-2.67
-3.97
-5.03
-5.52
-5.13
-3.54
-0.58
3.77
9.26
15.46
21.77
27.63
32.55
36.17
38.22
38.5
37.0
33.97
29.99
25.78
21.92
18.65
15.79
12.97
9.96
6.75
3.58
0.63
-2.11
-4.8
-7.62
-10.48
-13.12
-15.22
-16.67
-17.64
-18.34
-18.79
-18.7
-17.68
-15.51
-12.48
-9.18
-6.26
-4.05
-2.37
-0.81
1.1
3.45
5.91
7.88
8.74
8.18
6.37
3.72
0.72
-2.36
-5.56
-9.08
-13.05
-17.23
-21.03
-23.67
-24.58
-23.73
-21.67
-19.27
-17.34
-16.19
-15.65
-15.14
-14.07
-12.17
-9.54
-6.61
-3.84
-1.53
0.31
1.95
3.63
5.56
7.77
10.18
12.7
15.2
17.43
19.07
19.71
19.08
17.15
14.24
10.82
7.28
3.8
0.27
-3.47
-7.47
-11.47
-15.03
-17.66
-19.05
-19.12
-18.08
-16.31
-14.22
-12.15
-10.32
-8.71
-7.14
-5.4
-3.28
-0.77
1.9
4.4
6.35
7.57
8.11
8.26
8.33
8.57
9.05
9.72
10.49
11.26
11.9
12.21
11.94
10.8
8.62
5.45
1.5
-2.84
-7.27
-11.62
-15.79
-19.69
-23.04
-25.43
-26.45
-25.95
-24.16
-21.71
-19.29
-17.34
-15.89
-14.58
-13.03
-11.1
-9.05
-7.26
-5.93
-4.81
-3.32
-0.88
2.61
6.69
10.49
13.25
14.69
15.04
14.87
14.61
14.25
13.47
11.77
8.82
4.65
-0.38
-5.72
-10.8
-15.13
-18.23
-19.76
-19.44
-17.32
-13.74
-9.28
-4.65
-0.37
3.31
6.38
9.01
11.39
13.58
15.57
17.27
18.66
19.77
20.64
21.29
21.66
21.63
21.04
19.79
17.86
15.32
12.28
8.92
5.39
1.88
-1.53
-4.9
-8.45
-12.55
-17.49
-23.16
-28.86
-33.32
-35.12
-33.28
-27.79
-19.55
-10.12
-1.07
6.62
12.63
17.23
20.82
23.66
25.86
27.42
28.32
28.57
28.16
26.97
24.9
22.01
18.6
15.15
12.21
10.17
9.1
8.79
8.74
8.35
6.94
3.97
-0.87
-7.53
-15.44
-23.58
-30.62
-35.22
-36.31
-33.38
-26.68
-17.17
-6.38
4.08
12.81
19.09
22.92
24.85
25.66
25.97
26.18
26.45
26.81
27.23
27.5
27.18
25.75
22.87
18.68
13.9
9.62
6.78
5.68
5.81
6.09
5.33
2.66
-2.25
-9.24
-17.7
-26.7
-34.97
-40.99
-43.32
-41.09
-34.3
-23.97
-11.77
0.44
11.23
19.86
26.21
30.46
32.83
33.46
32.57
30.64
28.36
26.53
25.54
25.22
24.8
23.34
20.29
15.83
10.88
6.65
4.06
3.29
3.68
4.12
3.47
0.97
-3.6
-9.97
-17.46
-25.09
-31.6
-35.68
-36.23
-32.79
-25.73
-16.18
-5.68
4.31
12.79
19.34
23.99
26.85
28.01
27.53
25.67
23.03
20.47
18.69
17.87
17.49
16.53
14.01
9.57
3.67
-2.61
-8.06
-11.86
-13.92
-14.72
-15.15
-16.14
-18.38
-22.1
-26.79
-31.22
-33.76
-32.95
-28.08
-19.6
-8.89
2.34
12.67
21.36
28.25
33.34
36.5
37.42
35.88
32.05
26.54
20.24
13.95
8.15
2.96
-1.77
-6.18
-10.33
-14.26
-18.0
-21.63
-25.2
-28.58
-31.42
-33.16
-33.36
-31.89
-29.1
-25.74
-22.52
-19.71
-16.97
-13.44
-8.29
-1.15
7.54
16.75
25.29
32.41
38.0
42.53
46.59
50.39
53.66
55.73
55.98
54.15
50.51
45.66
40.26
34.8
29.47
24.37
19.62
15.48
12.33
10.43
9.77
9.94
10.27
10.01
8.53
5.57
1.34
-3.5
-7.95
-10.85
-11.25
-8.62
-3.14
4.51
13.26
22.15
30.47
37.88
44.12
48.92
51.83
52.49
50.77
47.05
42.06
36.71
31.62
26.97
22.42
17.32
11.15
3.78
-4.29
-12.1
-18.5
-22.6
-24.1
-23.46
-21.73
-20.25
-20.2
-22.19
-26.07
-30.88
-35.16
-37.28
-36.04
-30.98
-22.55
-11.91
-0.54
10.2
19.38
26.54
31.68
35.01
36.84
37.45
37.02
35.68
33.45
30.4
26.59
22.18
17.29
12.0
6.33
0.24
-6.11
-12.41
-18.1
-22.64
-25.7
-27.38
-28.23
-29.03
-30.54
-33.1
-36.44
-39.65
-41.4
-40.35
-35.63
-27.15
-15.74
-2.88
9.74
20.68
29.09
34.76
37.93
38.99
38.28
36.02
32.46
28.01
23.3
18.99
15.51
12.91
10.79
8.54
5.57
1.65
-3.15
-8.57
-14.23
-19.82
-25.0
-29.44
-32.75
-34.57
-34.6
-32.78
-29.22
-24.28
-18.46
-12.4
-6.72
-1.81
2.25
5.8
9.38
13.35
17.64
21.67
24.64
25.93
25.52
23.94
21.96
20.04
18.08
15.52
11.71
6.48
0.28
-5.99
-11.45
-15.79
-19.32
-22.82
-27.04
-32.27
-38.2
-44.13
-49.24
-52.87
-54.61
-54.17
-51.29
-45.83
-37.83
-27.77
-16.49
-5.06
5.42
14.19
20.89
25.68
29.01
31.52
33.79
36.11
38.35
40.04
40.54
39.34
36.32
31.81
26.43
20.83
15.48
10.62
6.28
2.53
-0.63
-3.31
-5.84
-8.74
-12.51
-17.4
-23.04
-28.59
-32.81
-34.59
-33.31
-28.97
-22.21
-14.01
-5.4
2.75
9.83
15.41
19.25
21.24
21.47
20.31
18.5
16.99
16.7
18.12
21.05
24.61
27.59
28.96
28.25
25.72
22.04
17.89
13.63
9.24
4.56
-0.42
-5.4
-9.96
-13.7
-16.5
-18.58
-20.22
-21.68
-23.02
-24.11
-24.71
-24.6
-23.55
-21.39
-18.04
-13.51
-8.11
-2.36
3.02
7.35
10.07
11.01
10.28
8.41
6.14
4.35
3.77
4.78
7.24
10.51
13.78
16.25
17.53
17.5
16.25
13.88
10.46
6.17
1.46
-2.97
-6.34
-8.15
-8.29
-7.12
-5.21
-3.16
-1.5
-0.6
-0.7
-1.7
-3.16
-4.31
-4.37
-2.88
0.04
3.73
7.29
9.92
11.2
11.06
9.65
7.24
4.24
1.15
-1.41
-2.86
-2.89
-1.61
0.45
2.49
3.71
3.55
1.77
-1.45
-5.5
-9.55
-12.71
-14.33
-14.18
-12.43
-9.55
-6.05
-2.33
1.32
4.53
6.81
7.58
6.46
3.6
-0.32
-4.17
-6.88
-7.75
-6.75
-4.34
-1.32
1.6
3.93
5.52
6.53
7.21
7.84
8.56
9.42
10.33
11.12
11.63
11.64
11.03
9.76
7.97
6.0
4.38
3.6
3.99
5.46
7.55
9.61
11.15
11.88
11.79
10.92
9.28
6.85
3.69
0.04
-3.81
-7.67
-11.5
-15.34
-19.05
-22.17
-23.96
-23.83
-21.72
-18.23
-14.47
-11.56
-10.12
-10.15
-11.16
-12.46
-13.39
-13.33
-11.76
-8.31
-2.93
3.93
11.37
18.31
23.93
27.85
30.19
31.26
31.39
30.8
29.66
28.15
26.5
24.78
22.8
20.14
16.36
11.3
5.27
-1.0
-6.73
-11.34
-14.66
-16.86
-18.26
-19.18
-19.8
-20.17
-20.17
-19.6
-18.21
-15.85
-12.63
-9.01
-5.7
-3.34
-2.24
-2.18
-2.67
-3.21
-3.51
-3.57
-3.5
-3.31
-2.82
-1.89
-0.56
0.9
2.04
2.52
2.25
1.36
0.07
-1.5
-3.42
-5.83
-8.84
-12.44
-16.58
-21.15
-26.08
-31.2
-36.12
-40.1
-42.23
-41.63
-37.79
-30.83
-21.56
-11.29
-1.4
7.06
13.74
19.04
23.78
28.8
34.48
40.58
46.37
51.03
54.01
55.2
54.85
53.25
50.62
46.97
42.3
36.83
30.94
25.1
19.54
14.15
8.46
2.0
-5.5
-13.82
-22.33
-30.13
-36.4
-40.66
-42.82
-43.17
-42.12
-39.92
-36.68
-32.32
-26.9
-20.84
-14.93
-10.17
-7.36
-6.79
-8.11
-10.57
-13.34
-15.78
-17.51
-18.4
-18.45
-17.8
-16.69
-15.41
-14.17
-13.05
-12.03
-11.18
-10.85
-11.49
-13.43
-16.48
-19.81
-22.28
-22.99
-21.8
-19.43
-16.98
-15.41
-15.04
-15.55
-16.34
-16.95
-17.33
-17.69
-18.17
-18.59
-18.41
-17.01
-14.12
-10.1
-5.93
-2.89
-1.96
-3.45
-6.81
-10.91
-14.4
-16.32
-16.36
-14.84
-12.59
-10.52
-9.39
-9.6
-11.05
-13.22
-15.22
-16.06
-14.9
-11.34
-5.7
1.11
7.74
12.88
15.65
15.82
13.83
10.51
6.83
3.55
1.1
-0.49
-1.53
-2.5
-3.92
-6.11
-8.93
-11.79
-13.74
-13.8
-11.43
-6.86
-1.17
4.05
7.23
7.32
4.18
-1.47
-8.24
-14.58
-19.16
-21.17
-20.48
-17.55
-13.31
-8.87
-5.23
-3.08
-2.68
-3.84
-6.06
-8.66
-10.96
-12.5
-13.09
-12.93
-12.35
-11.6
-10.62
-9.04
-6.42
-2.51
2.48
7.91
12.9
16.55
18.13
17.11
13.18
6.39
-2.71
-13.06
-23.19
-31.59
-37.16
-39.51
-39.01
-36.66
-33.81
-31.75
-31.36
-32.88
-35.87
-39.35
-42.15
-43.25
-42.0
-38.19
-31.91
-23.45
-13.24
-1.77
10.32
22.4
33.81
44.01
52.5
58.78
62.32
62.75
59.95
54.28
46.42
37.2
27.29
17.11
6.97
-2.58
-10.5
-15.37
-15.89
-11.6
-3.33
6.8
16.12
22.42
24.58
22.88
18.51
12.94
7.38
2.57
-1.05
-3.12
-3.31
-1.51
1.93
6.04
9.47
10.79
9.1
4.24
-3.06
-11.52
-19.7
-26.44
-31.18
-33.92
-35.15
-35.47
-35.43
-35.3
-35.08
-34.58
-33.49
-31.63
-28.99
-25.84
-22.69
-20.17
-18.85
-19.05
-20.74
-23.51
-26.65
-29.29
-30.5
-29.45
-25.52
-18.56
-9.03
2.05
13.28
23.2
30.7
35.21
36.72
35.7
32.87
28.95
24.58
20.19
16.04
12.16
8.53
5.15
2.08
-0.53
-2.54
-3.95
-5.01
-6.06
-7.42
-9.1
-10.74
-11.7
-11.29
-9.08
-5.02
0.44
6.6
12.65
17.94
22.03
24.72
25.99
25.93
24.7
22.52
19.62
16.23
12.6
9.02
5.79
3.2
1.32
0.02
-1.15
-2.68
-4.91
-7.84
-11.11
-14.16
-16.47
-17.73
-17.96
-17.36
-16.17
-14.53
-12.35
-9.41
-5.42
-0.17
6.22
13.28
20.22
26.05
29.9
31.3
30.27
27.31
23.22
18.83
14.86
11.8
9.91
9.25
9.61
10.57
11.53
11.95
11.46
10.08
8.18
6.4
5.39
5.59
7.1
9.57
12.41
14.97
16.85
18.04
18.95
20.24
22.46
25.76
29.82
33.89
37.07
38.66
38.34
36.26
32.9
28.87
24.77
21.09
18.15
16.15
15.13
15.02
15.48
16.01
16.0
14.9
12.5
8.91
4.62
0.28
-3.41
-6.09
-7.55
-7.84
-7.09
-5.39
-2.78
0.66
4.78
9.22
13.44
16.88
19.03
19.63
18.75
16.82
14.49
12.46
11.26
11.11
11.85
13.03
14.06
14.45
13.96
12.58
10.46
7.76
4.52
0.74
-3.55
-8.18
-12.86
-17.16
-20.62
-22.67
-22.71
-20.22
-14.92
-6.98
2.79
13.15
22.67
30.15
34.91
36.88
36.51
34.55
31.82
29.04
26.71
25.0
23.78
22.7
21.39
19.64
17.52
15.29
13.16
11.23
9.37
7.34
4.94
2.09
-1.11
-4.49
-7.72
-10.28
-11.52
-10.76
-7.6
-2.21
4.53
11.25
16.48
19.28
19.56
18.06
16.0
14.49
14.18
14.98
16.32
17.44
17.75
16.99
15.19
12.5
9.02
4.71
-0.49
-6.45
-12.81
-18.91
-24.01
-27.43
-28.76
-27.88
-24.95
-20.41
-14.89
-9.17
-4.09
-0.3
1.89
2.7
2.71
2.66
3.08
4.11
5.45
6.63
7.29
7.31
6.87
6.25
5.58
4.77
3.53
1.56
-1.21
-4.5
-7.78
-10.39
-11.86
-12.0
-10.92
-8.93
-6.44
-3.81
-1.37
0.73
2.44
3.9
5.31
6.92
8.88
11.15
13.5
15.58
17.09
17.87
17.96
17.51
16.67
15.46
13.84
11.68
8.95
5.71
2.16
-1.42
-4.7
-7.34
-9.0
-9.38
-8.32
-5.92
-2.6
0.97
4.07
6.12
6.86
6.41
5.17
3.68
2.44
1.78
1.79
2.29
2.93
3.36
3.38
3.05
2.62
2.35
2.31
2.29
1.9
0.86
-0.9
-3.11
-5.33
-7.12
-8.27
-8.73
-8.64
-8.22
-7.7
-7.3
-7.17
-7.31
-7.57
-7.72
-7.51
-6.87
-5.96
-5.13
-4.7
-4.77
-5.19
-5.6
-5.71
-5.4
-4.86
-4.43
-4.46
-5.13
-6.38
-7.95
-9.45
-10.57
-11.1
-11.06
-10.64
-10.15
-9.96
-10.31
-11.24
-12.54
-13.8
-14.64
-14.74
-13.99
-12.46
-10.43
-8.19
-6.04
-4.12
-2.38
-0.71
1.0
2.71
4.15
4.97
4.94
4.13
2.97
2.05
1.87
2.63
4.11
5.89
7.49
8.58
8.95
8.54
7.31
5.31
2.73
-0.09
-2.73
-4.87
-6.46
-7.69
-8.91
-10.32
-11.91
-13.37
-14.33
-14.58
-14.25
-13.75
-13.58
-14.1
-15.37
-17.08
-18.74
-19.79
-19.78
-18.4
-15.55
-11.36
-6.18
-0.62
4.67
9.05
12.17
13.96
14.7
14.81
14.71
14.67
14.75
14.95
15.16
15.35
15.47
15.51
15.35
14.94
14.22
13.3
12.39
11.77
11.65
12.0
12.54
12.79
12.36
11.06
9.09
7.0
5.45
4.96
5.7
7.4
9.5
11.36
12.49
12.75
12.31
11.48
10.51
9.39
7.93
5.89
3.21
0.16
-2.69
-4.79
-5.83
-5.94
-5.67
-5.66
-6.4
-7.95
-10.03
-12.08
-13.56
-14.13
-13.73
-12.61
-11.15
-9.75
-8.68
-7.87
-7.06
-5.79
-3.7
-0.7
2.92
6.55
9.47
11.15
11.35
10.23
8.28
6.07
4.14
2.83
2.23
2.16
2.26
2.16
1.56
0.39
-1.22
-3.03
-4.83
-6.48
-7.93
-9.14
-10.0
-10.36
-10.08
-9.19
-7.85
-6.28
-4.64
-2.93
-1.11
0.81
2.66
4.07
4.68
4.34
3.2
1.64
0.09
-1.15
-2.06
-2.8
-3.61
-4.6
-5.77
-6.95
-7.96
-8.67
-9.07
-9.18
-9.02
-8.5
-7.55
-6.14
-4.43
-2.74
-1.42
-0.73
-0.65
-0.94
-1.21
-1.2
-0.87
-0.43
-0.18
-0.32
-0.9
-1.8
-2.82
-3.8
-4.72
-5.66
-6.7
-7.89
-9.17
-10.38
-11.33
-11.84
-11.79
-11.12
-9.9
-8.28
-6.52
-4.89
-3.6
-2.65
-1.87
-0.98
0.3
1.97
3.69
4.86
4.87
3.39
0.59
-2.87
-6.12
-8.41
-9.41
-9.26
-8.44
-7.49
-6.73
-6.25
-5.96
-5.77
-5.57
-5.3
-4.85
-4.08
-2.88
-1.22
0.81
3.1
5.53
7.97
10.13
11.5
11.43
9.41
5.45
0.26
-4.96
-8.91
-10.86
-10.87
-9.7
-8.32
-7.4
-7.02
-6.77
-6.11
-4.71
-2.65
-0.29
1.91
3.66
4.9
5.83
6.74
7.92
9.45
11.18
12.71
13.53
13.26
11.78
9.36
6.51
3.78
1.52
-0.25
-1.75
-3.32
-5.19
-7.45
-9.96
-12.5
-14.69
-16.1
-16.31
-15.06
-12.41
-8.77
-4.76
-1.0
2.2
4.85
7.12
9.1
10.6
11.14
10.22
7.62
3.55
-1.34
-6.26
-10.49
-13.64
-15.63
-16.67
-17.05
-17.08
-17.01
-17.04
-17.31
-17.91
-18.9
-20.26
-21.82
-23.23
-23.88
-22.91
-19.5
-13.19
-4.31
5.95
15.63
22.76
25.89
24.76
20.29
14.19
8.27
3.79
1.2
0.17
0.11
0.52
1.21
2.22
3.58
5.19
6.71
7.81
8.27
8.2
7.97
8.13
9.17
11.27
14.25
17.54
20.38
22.01
22.06
20.6
18.16
15.51
13.36
12.09
11.67
11.8
12.08
12.22
12.11
11.81
11.48
11.25
11.17
11.18
11.12
10.78
10.06
9.07
8.15
7.83
8.46
9.99
11.84
13.01
12.52
9.9
5.48
0.26
-4.49
-7.83
-9.41
-9.5
-8.66
-7.3
-5.54
-3.3
-0.54
2.52
5.37
7.41
8.26
7.89
6.68
5.3
4.49
4.85
6.64
9.62
13.01
15.74
16.77
15.53
12.13
7.37
2.4
-1.78
-4.64
-6.21
-6.91
-7.15
-7.15
-6.82
-5.98
-4.5
-2.48
-0.19
2.04
3.91
5.25
6.0
6.14
5.75
5.04
4.43
4.48
5.66
8.06
11.19
14.06
15.57
14.91
12.01
7.55
2.64
-1.67
-4.73
-6.5
-7.36
-7.78
-8.12
-8.53
-8.98
-9.37
-9.58
-9.44
-8.77
-7.47
-5.58
-3.25
-0.68
2.01
4.79
7.65
10.42
12.68
13.8
13.2
10.63
6.41
1.34
-3.57
-7.42
-9.8
-10.73
-10.61
-9.89
-8.9
-7.79
-6.64
-5.5
-4.52
-3.88
-3.62
-3.66
-3.73
-3.5
-2.7
-1.27
0.69
2.93
5.17
7.24
9.04
10.52
11.53
11.79
10.94
8.79
5.43
1.37
-2.62
-5.82
-7.81
-8.63
-8.64
-8.27
-7.82
-7.51
-7.43
-7.76
-8.7
-10.31
-12.37
-14.37
-15.63
-15.57
-13.95
-10.92
-6.93
-2.55
1.66
5.18
7.55
8.45
7.68
5.35
1.91
-1.96
-5.49
-8.05
-9.39
-9.61
-9.09
-8.33
-7.69
-7.27
-6.94
-6.43
-5.5
-4.14
-2.56
-1.16
-0.28
-0.03
-0.24
-0.51
-0.39
0.41
1.86
3.72
5.53
6.88
7.44
7.06
5.74
3.56
0.68
-2.69
-6.21
-9.49
-12.07
-13.57
-13.86
-13.14
-11.9
-10.68
-9.89
-9.63
-9.66
-9.66
-9.39
-8.88
-8.34
-8.03
-7.99
-8.02
-7.75
-6.81
-5.06
-2.67
-0.12
1.95
2.92
2.43
0.49
-2.45
-5.78
-8.94
-11.75
-14.37
-17.13
-20.22
-23.42
-26.14
-27.71
-27.7
-26.15
-23.46
-20.09
-16.28
-12.01
-7.14
-1.71
3.93
9.23
13.72
17.27
20.28
23.46
27.69
33.68
41.85
52.21
64.33
77.44
90.48
102.47
112.81
121.6
129.83
139.3
152.39
171.54
198.36
232.6
271.56
310.19
342.31
362.49
367.85
358.81
338.46
310.83
278.97
243.96
205.03
160.72
109.94
52.49
-10.9
-78.67
-148.3
-216.08
-277.25
-326.83
-361.07
-378.63
-380.98
-371.76
-355.28
-335.1
-313.33
-290.85
-268.02
-245.3
-223.37
-202.83
-183.69
-165.35
-146.9
-127.69
-107.77
-87.92
-69.35
-53.1
-39.66
-28.74
-19.55
-11.2
-3.02
5.26
13.54
21.5
28.77
35.04
40.03
43.64
45.93
47.09
47.43
47.29
46.96
46.73
46.84
47.53
48.95
51.14
53.92
56.98
59.91
62.33
64.01
64.84
64.89
64.3
63.27
61.9
60.17
57.96
55.09
51.54
47.48
43.29
39.44
36.19
33.46
30.87
27.85
23.99
19.16
13.55
7.55
1.54
-4.25
-9.7
-14.81
-19.59
-23.96
-27.79
-30.94
-33.3
-34.91
-35.92
-36.53
-36.88
-36.89
-36.37
-35.09
-33.01
-30.35
-27.49
-24.71
-22.04
-19.14
-15.52
-10.81
-5.0
1.5
8.01
13.84
18.53
21.85
23.82
24.6
24.43
23.65
22.62
21.7
21.16
21.04
21.17
21.19
20.67
19.2
16.62
12.99
8.57
3.71
-1.31
-6.37
-11.37
-16.2
-20.52
-23.82
-25.63
-25.74
-24.37
-22.11
-19.69
-17.68
-16.29
-15.39
-14.71
-14.12
-13.65
-13.48
-13.73
-14.33
-15.08
-15.76
-16.33
-16.96
-18.0
-19.75
-22.27
-25.31
-28.39
-30.98
-32.66
-33.29
-32.89
-31.63
-29.65
-27.02
-23.81
-20.25
-16.66
-13.51
-11.17
-9.77
-9.22
-9.32
-9.98
-11.33
-13.57
-16.81
-20.81
-24.97
-28.45
-30.56
-31.01
-29.94
-27.87
-25.41
-23.13
-21.37
-20.29
-19.82
-19.71
-19.59
-19.06
-17.87
-16.02
-13.71
-11.24
-8.87
-6.74
-4.9
-3.36
-2.1
-1.05
-0.0
1.34
3.25
5.88
9.12
12.64
16.07
19.05
21.24
22.32
21.93
19.88
16.19
11.25
5.67
0.06
-5.22
-10.08
-14.67
-19.04
-23.0
-26.08
-27.67
-27.37
-25.06
-21.0
-15.67
-9.64
-3.43
2.5
7.73
11.85
14.46
15.25
14.19
11.52
7.87
4.02
0.72
-1.62
-2.99
-3.76
-4.35
-5.03
-5.73
-6.05
-5.55
-3.99
-1.51
1.39
3.97
5.64
6.05
5.27
3.7
1.85
0.13
-1.25
-2.36
-3.48
-4.86
-6.61
-8.57
-10.33
-11.39
-11.34
-9.99
-7.46
-4.1
-0.3
3.55
7.21
10.47
13.13
14.91
15.52
14.77
12.61
9.29
5.24
1.04
-2.67
-5.41
-6.9
-7.1
-6.17
-4.39
-2.06
0.58
3.46
6.6
10.13
14.08
18.28
22.22
25.19
26.48
25.68
22.93
18.87
14.35
10.12
6.47
3.27
0.19
-2.99
-6.11
-8.78
-10.56
-11.27
-11.02
-10.17
-9.01
-7.58
-5.81
-3.57
-0.98
1.56
3.46
4.2
3.59
1.82
-0.61
-3.16
-5.52
-7.65
-9.68
-11.66
-13.44
-14.65
-14.92
-14.04
-12.12
-9.55
-6.8
-4.22
-1.99
-0.23
0.97
1.34
0.51
-1.86
-5.9
-11.32
-17.41
-23.16
-27.6
-30.03
-30.22
-28.41
-25.11
-20.97
-16.58
-12.37
-8.64
-5.53
-3.08
-1.22
0.12
0.96
1.21
0.63
-0.96
-3.55
-6.82
-10.24
-13.32
-15.73
-17.48
-18.79
-19.95
-21.17
-22.41
-23.44
-23.81
-23.04
-20.69
-16.61
-10.99
-4.47
2.08
7.77
11.93
14.26
14.82
13.88
11.83
9.06
5.92
2.71
-0.38
-3.27
-5.98
-8.47
-10.64
-12.23
-13.01
-12.83
-11.7
-9.76
-7.26
-4.46
-1.67
0.72
2.31
2.77
2.08
0.58
-1.1
-2.36
-2.83
-2.6
-2.05
-1.64
-1.63
-1.99
-2.45
-2.73
-2.6
-1.92
-0.62
1.34
3.89
6.79
9.61
11.74
12.61
11.86
9.4
5.41
0.3
-5.39
-11.1
-16.23
-20.33
-23.04
-24.14
-23.5
-21.11
-17.06
-11.59
-5.14
1.65
8.12
13.8
18.49
22.29
25.43
28.1
30.29
31.79
32.38
31.92
30.44
28.09
25.08
21.62
17.93
14.27
10.88
7.98
5.69
4.0
2.87
2.21
1.96
2.03
2.27
2.44
2.25
1.48
-0.04
-2.29
-5.17
-8.53
-12.14
-15.73
-18.9
-21.26
-22.43
-22.23
-20.68
-17.96
-14.33
-10.06
-5.34
-0.43
4.34
8.6
11.89
13.9
14.43
13.43
10.97
7.11
1.91
-4.5
-11.82
-19.48
-26.7
-32.52
-36.12
-37.01
-35.17
-31.07
-25.47
-19.06
-12.3
-5.37
1.61
8.35
14.3
18.77
21.21
21.43
19.56
15.89
10.73
4.27
-3.23
-11.18
-18.77
-25.04
-29.3
-31.42
-31.83
-31.24
-30.26
-29.13
-27.68
-25.55
-22.36
-17.99
-12.66
-6.8
-1.0
4.16
8.18
10.75
11.67
10.95
8.82
5.71
2.23
-0.95
-3.29
-4.47
-4.48
-3.53
-1.88
0.3
3.0
6.3
10.18
14.31
18.09
20.7
21.36
19.57
15.29
8.92
1.25
-6.7
-13.84
-19.19
-22.08
-22.25
-19.92
-15.66
-10.32
-4.65
0.73
5.44
9.32
12.37
14.72
16.55
18.06
19.38
20.42
20.95
20.6
19.13
16.45
12.73
8.24
3.29
-1.86
-6.97
-11.84
-16.3
-20.24
-23.68
-26.6
-28.78
-29.61
-28.07
-22.94
-13.39
0.62
18.06
36.94
54.98
70.14
81.22
88.01
91.15
91.83
91.33
90.8
91.0
92.09
93.62
94.48
93.31
89.02
81.35
71.15
60.19
50.59
43.94
40.76
40.32
41.05
41.09
38.92
33.78
25.79
15.78
5.07
-4.88
-12.8
-17.89
-20.02
-19.71
-17.96
-15.92
-14.5
-14.12
-14.62
-15.43
-15.76
-15.02
-12.94
-9.67
-5.79
-2.13
0.36
0.78
-1.55
-6.89
-14.84
-24.41
-34.2
-42.84
-49.45
-53.93
-56.88
-59.31
-62.19
-66.08
-70.9
-75.93
-79.93
-81.47
-79.3
-72.81
-62.28
-48.93
-34.62
-21.29
-10.54
-3.35
-0.05
-0.42
-3.81
-9.26
-15.61
-21.71
-26.62
-29.79
-31.23
-31.31
-30.49
-29.17
-27.52
-25.56
-23.3
-20.92
-18.82
-17.58
-17.89
-20.3
-24.97
-31.51
-38.86
-45.52
-49.96
-51.08
-48.53
-42.72
-34.51
-24.84
-14.42
-3.69
7.07
17.55
27.36
36.23
44.04
50.91
56.95
62.12
65.97
67.79
66.91
62.99
56.28
47.58
38.03
28.76
20.61
13.82
8.01
2.35
-4.15
-12.11
-21.48
-31.34
-40.19
-46.35
-48.55
-46.39
-40.49
-32.25
-23.45
-15.73
-10.27
-7.6
-7.72
-10.24
-14.61
-20.18
-26.34
-32.55
-38.41
-43.71
-48.47
-52.81
-56.76
-60.03
-61.96
-61.71
-58.59
-52.4
-43.66
-33.48
-23.43
-15.01
-9.49
-7.42
-8.57
-11.77
-15.09
-16.35
-13.79
-6.67
4.35
17.52
30.62
41.73
49.88
55.08
58.01
59.55
60.31
60.62
60.55
60.13
59.28
57.78
55.13
50.7
43.94
34.8
23.86
12.24
1.16
-8.49
-16.53
-23.46
-30.19
-37.5
-45.68
-54.34
-62.48
-68.73
-71.73
-70.45
-64.46
-54.01
-39.9
-23.37
-5.82
11.35
26.8
39.24
47.61
51.22
50.1
45.03
37.5
29.22
21.68
15.75
11.69
9.35
8.41
8.6
9.65
11.25
13.07
14.68
15.8
16.18
15.58
13.67
10.07
4.57
-2.48
-10.09
-16.76
-20.98
-21.76
-18.92
-13.09
-5.34
3.13
11.27
18.33
23.77
27.26
28.62
27.91
25.41
21.66
17.36
13.23
9.77
7.1
4.94
2.64
-0.47
-4.9
-10.76
-17.81
-25.6
-33.71
-41.88
-50.06
-58.29
-66.49
-74.19
-80.5
-84.08
-83.55
-77.94
-67.11
-51.99
-34.36
-16.39
-0.01
13.48
23.37
29.44
31.68
30.21
25.43
18.05
9.06
-0.51
-9.83
-18.43
-26.1
-32.73
-38.08
-41.8
-43.53
-43.09
-40.59
-36.46
-31.32
-25.96
-21.23
-17.77
-15.82
-14.83
-13.59
-10.49
-4.25
5.48
18.0
31.71
44.75
55.61
63.44
68.02
69.59
68.59
65.55
61.08
55.86
50.49
45.39
40.67
36.16
31.52
26.42
20.68
14.22
7.12
-0.48
-8.48
-16.84
-25.69
-35.38
-46.25
-58.3
-70.85
-82.3
-90.4
-92.89
-88.3
-76.62
-59.38
-39.19
-18.82
-0.44
14.8
26.72
35.66
42.07
46.28
48.55
49.16
48.5
47.1
45.46
43.92
42.51
40.93
38.72
35.44
30.99
25.57
19.67
13.73
7.99
2.39
-3.14
-8.38
-12.52
-14.19
-12.01
-5.12
6.24
20.78
36.45
51.22
63.59
72.88
79.09
82.52
83.45
81.99
78.2
72.28
64.73
56.26
47.71
39.73
32.68
26.53
21.0
15.72
10.46
5.17
0.04
-4.77
-9.35
-14.2
-20.0
-27.31
-36.09
-45.32
-53.21
-57.61
-56.83
-50.28
-38.78
-24.27
-9.2
4.25
14.79
22.15
26.77
29.4
30.64
30.75
29.78
27.73
24.64
20.58
15.52
9.34
1.96
-6.49
-15.48
-24.21
-31.82
-37.77
-42.1
-45.41
-48.61
-52.55
-57.54
-63.14
-68.0
-70.18
-67.57
-58.65
-43.03
-21.78
2.74
27.62
50.11
68.29
81.26
88.93
91.65
89.92
84.29
75.44
64.29
51.84
39.05
26.59
14.88
4.22
-5.14
-12.83
-18.53
-22.14
-23.95
-24.6
-25.07
-26.45
-29.62
-34.97
-41.96
-49.12
-54.27
-55.22
-50.68
-40.78
-27.11
-12.14
1.69
12.73
20.38
24.83
26.75
26.83
25.67
23.8
21.68
19.63
17.7
15.68
13.26
10.3
6.92
3.44
0.18
-2.89
-6.12
-10.14
-15.6
-23.0
-32.5
-43.9
-56.4
-68.45
-77.77
-81.74
-78.13
-66.06
-46.49
-22.22
3.08
25.93
44.16
57.09
65.29
69.79
71.43
70.62
67.35
61.6
53.51
43.56
32.35
20.58
8.8
-2.5
-12.87
-21.94
-29.36
-34.99
-39.1
-42.43
-46.06
-50.99
-57.5
-64.71
-70.5
-72.11
-67.12
-54.46
-34.94
-11.08
13.72
36.17
53.91
65.81
71.85
72.77
69.67
63.81
56.47
48.77
41.53
35.16
29.67
24.83
20.39
16.22
12.39
8.99
6.11
3.63
1.18
-1.87
-6.3
-12.95
-22.34
-34.28
-47.56
-60.0
-68.84
-71.57
-66.73
-54.45
-36.5
-15.69
4.97
23.12
37.46
47.75
54.47
58.4
60.25
60.54
59.61
57.66
54.8
51.03
46.18
40.06
32.51
23.63
13.89
4.03
-5.14
-13.14
-19.98
-26.19
-32.47
-39.2
-45.93
-51.32
-53.33
-49.95
-39.94
-23.4
-1.94
21.58
43.8
61.71
73.35
78.16
76.9
71.12
62.61
52.83
42.71
32.74
23.06
13.73
4.79
-3.67
-11.45
-18.28
-23.79
-27.72
-30.0
-30.89
-30.93
-30.88
-31.44
-33.26
-36.68
-41.49
-46.85
-51.09
-52.17
-48.29
-38.63
-23.95
-6.38
11.21
26.39
37.82
45.6
50.74
54.5
57.73
60.74
63.43
65.58
67.01
67.51
66.71
64.02
58.93
51.23
41.29
30.01
18.49
7.63
-2.24
-11.35
-20.38
-29.97
-40.33
-50.9
-60.22
-66.2
-66.61
-59.86
-45.76
-25.87
-3.08
19.2
38.17
52.29
61.37
66.16
67.64
66.59
63.51
58.65
52.26
44.61
35.93
26.33
15.98
5.22
-5.31
-14.72
-22.16
-27.11
-29.57
-30.08
-29.64
-29.5
-30.81
-34.22
-39.46
-45.22
-49.38
-49.82
-45.23
-35.81
-23.2
-9.94
1.5
9.55
13.83
15.0
14.23
12.64
10.98
9.65
8.75
8.23
7.98
7.81
7.54
6.91
5.66
3.52
0.32
-3.98
-9.25
-15.25
-21.9
-29.3
-37.81
-47.54
-57.93
-67.35
-73.4
-73.53
-66.12
-51.17
-30.39
-6.57
17.37
39.19
57.62
72.16
82.65
88.98
91.06
88.98
83.19
74.46
63.67
51.63
38.9
25.92
13.02
0.6
-10.85
-20.81
-28.82
-34.58
-38.12
-39.82
-40.43
-40.89
-42.04
-44.15
-46.68
-48.27
-47.11
-41.63
-31.17
-16.39
0.86
18.14
33.19
44.53
51.68
54.92
54.84
52.05
47.11
40.62
33.36
26.32
20.44
16.38
14.36
14.13
15.1
16.6
17.98
18.71
18.35
16.49
12.8
6.99
-1.07
-11.17
-22.59
-34.07
-43.91
-50.37
-52.04
-48.4
-39.81
-27.46
-12.89
2.38
17.1
30.36
41.49
50.06
55.86
58.87
59.29
57.43
53.67
48.34
41.76
34.31
26.41
18.52
11.11
4.57
-0.81
-4.9
-7.77
-9.79
-11.53
-13.61
-16.34
-19.37
-21.54
-21.17
-16.61
-6.96
7.37
24.63
42.13
57.15
67.64
72.72
72.65
68.46
61.44
52.74
43.17
33.23
23.25
13.44
3.95
-5.12
-13.67
-21.55
-28.45
-33.95
-37.58
-39.11
-38.7
-37.01
-35.18
-34.61
-36.57
-41.78
-49.96
-59.73
-68.8
-74.62
-75.25
-70.06
-60.04
-47.33
-34.44
-23.35
-14.9
-8.82
-4.15
0.14
4.66
9.46
14.19
18.24
20.95
21.69
19.96
15.49
8.4
-0.73
-10.89
-20.86
-29.46
-35.92
-40.11
-42.53
-44.18
-46.13
-49.2
-53.65
-59.01
-64.19
-67.69
-67.97
-63.94
-55.31
-42.84
-28.23
-13.7
-1.4
7.21
11.66
12.46
10.63
7.24
3.01
-1.72
-6.9
-12.42
-17.97
-23.05
-27.12
-29.79
-31.03
-31.12
-30.57
-29.82
-29.16
-28.63
-28.15
-27.78
-27.83
-28.91
-31.64
-36.29
-42.32
-48.47
-52.95
-54.09
-50.97
-43.63
-33.0
-20.38
-6.96
6.51
19.68
32.36
44.21
54.6
62.79
68.15
70.56
70.34
68.22
64.97
61.15
57.04
52.62
47.81
42.59
37.07
31.48
26.05
20.86
15.79
10.6
5.06
-0.77
-6.33
-10.66
-12.58
-11.17
-6.14
1.97
11.94
22.21
31.37
38.47
43.02
44.99
44.48
41.68
36.83
30.35
22.86
15.08
7.69
1.12
-4.41
-8.85
-12.15
-14.18
-14.77
-13.91
-11.89
-9.26
-6.74
-4.99
-4.39
-4.98
-6.45
-8.2
-9.45
-9.44
-7.67
-4.05
0.97
6.58
11.82
15.92
18.5
19.57
19.39
18.28
16.55
14.55
12.7
11.51
11.45
12.68
15.03
17.94
20.7
22.58
23.08
21.93
19.09
14.67
8.93
2.11
-5.46
-13.42
-21.43
-29.02
-35.61
-40.46
-42.81
-42.0
-37.81
-30.52
-20.97
-10.39
-0.08
8.82
15.62
20.05
22.17
22.2
20.43
17.18
12.84
7.94
3.0
-1.61
-5.78
-9.71
-13.64
-17.61
-21.33
-24.31
-26.11
-26.7
-26.5
-26.11
-26.08
-26.55
-27.25
-27.62
-27.11
-25.36
-22.3
-18.12
-13.2
-7.96
-2.78
2.01
6.21
9.63
12.11
13.43
13.43
12.04
9.43
5.96
2.16
-1.38
-4.17
-5.96
-6.71
-6.67
-6.17
-5.59
-5.19
-5.1
-5.35
-5.9
-6.74
-7.9
-9.47
-11.49
-13.87
-16.35
-18.55
-19.93
-20.03
-18.52
-15.3
-10.54
-4.66
1.71
7.93
13.42
17.92
21.47
24.28
26.61
28.47
29.66
29.78
28.51
25.75
21.71
16.78
11.41
5.97
0.72
-4.17
-8.61
-12.58
-16.14
-19.41
-22.51
-25.47
-28.1
-30.03
-30.67
-29.43
-25.9
-20.06
-12.42
-3.92
4.21
10.8
15.11
16.89
16.39
14.13
10.66
6.42
1.77
-2.93
-7.28
-10.89
-13.52
-15.21
-16.27
-17.04
-17.61
-17.73
-16.85
-14.55
-10.86
-6.47
-2.46
0.0
0.19
-2.0
-6.07
-11.06
-15.8
-19.11
-20.05
-18.08
-13.28
-6.36
1.56
9.35
16.2
21.86
26.47
30.37
33.85
37.09
40.21
43.3
46.37
49.22
51.42
52.39
51.71
49.35
45.75
41.63
37.69
34.22
31.03
27.58
23.16
17.29
9.8
0.88
-8.9
-18.63
-27.18
-33.29
-35.95
-34.77
-30.22
-23.57
-16.5
-10.55
-6.65
-5.01
-5.26
-6.78
-9.12
-11.98
-15.17
-18.4
-21.29
-23.42
-24.54
-24.68
-24.1
-23.14
-22.01
-20.72
-19.17
-17.22
-14.88
-12.35
-9.94
-8.0
-6.81
-6.61
-7.54
-9.66
-12.85
-16.73
-20.64
-23.72
-25.13
-24.36
-21.35
-16.55
-10.63
-4.29
1.92
7.65
12.67
16.84
19.99
21.99
22.73
22.23
20.6
18.09
15.02
11.67
8.23
4.65
0.82
-3.36
-7.71
-11.86
-15.28
-17.55
-18.59
-18.69
-18.36
-18.08
-18.14
-18.63
-19.41
-20.2
-20.62
-20.13
-18.24
-14.61
-9.35
-3.01
3.51
9.31
13.77
16.73
18.42
19.11
19.03
18.24
16.8
14.98
13.24
12.13
11.99
12.81
14.25
15.85
17.23
18.18
18.62
18.41
17.37
15.29
12.07
7.79
2.65
-3.01
-8.8
-14.22
-18.65
-21.44
-22.09
-20.44
-16.8
-11.78
-6.16
-0.57
4.57
9.05
12.69
15.34
16.86
17.18
16.47
15.09
13.56
12.3
11.53
11.15
10.81
10.06
8.6
6.45
3.95
1.64
0.07
-0.45
0.14
1.72
4.1
7.17
10.84
14.93
19.12
22.99
26.22
28.84
31.21
33.77
36.73
39.78
42.09
42.7
41.01
37.09
31.59
25.48
19.56
14.23
9.47
5.04
0.71
-3.61
-7.86
-11.92
-15.63
-18.76
-21.15
-22.59
-23.04
-22.72
-22.07
-21.72
-22.31
-24.33
-27.87
-32.58
-37.61
-41.81
-44.0
-43.35
-39.68
-33.45
-25.57
-17.01
-8.51
-0.4
7.14
13.95
19.63
23.61
25.4
24.83
22.23
18.33
13.98
9.82
6.13
2.81
-0.45
-3.92
-7.7
-11.58
-15.16
-18.0
-19.82
-20.58
-20.54
-20.13
-19.75
-19.67
-19.89
-20.2
-20.21
-19.52
-17.79
-14.83
-10.72
-5.74
-0.47
4.4
8.19
10.48
11.28
10.95
10.04
8.92
7.72
6.31
4.63
2.88
1.56
1.18
1.95
3.59
5.32
6.31
5.99
4.32
1.69
-1.3
-4.18
-6.78
-9.28
-12.04
-15.41
-19.53
-24.19
-28.71
-32.2
-33.77
-32.95
-29.91
-25.34
-20.2
-15.31
-11.09
-7.56
-4.49
-1.73
0.75
2.7
3.82
3.83
2.67
0.38
-2.94
-7.12
-11.68
-15.68
-17.83
-16.89
-12.29
-4.61
4.53
13.02
19.26
22.78
24.34
25.31
26.79
28.97
31.14
32.3
31.82
29.92
27.43
25.35
24.25
24.06
24.22
23.99
22.98
21.17
18.95
16.74
14.82
13.24
11.88
10.54
9.12
7.58
5.94
4.26
2.57
0.98
-0.36
-1.29
-1.79
-2.12
-2.68
-3.83
-5.69
-8.03
-10.41
-12.51
-14.32
-16.18
-18.49
-21.31
-24.19
-26.19
-26.3
-23.86
-18.84
-11.82
-3.65
4.89
13.29
21.3
28.68
35.17
40.43
44.23
46.59
47.72
47.85
47.01
44.87
40.93
34.84
26.79
17.54
8.36
0.49
-5.17
-8.37
-9.47
-9.21
-8.45
-7.91
-8.14
-9.39
-11.65
-14.68
-18.15
-21.7
-25.01
-27.78
-29.83
-30.99
-31.24
-30.71
-29.74
-28.82
-28.38
-28.64
-29.36
-29.94
-29.6
-27.78
-24.3
-19.65
-14.68
-10.41
-7.58
-6.5
-6.97
-8.49
-10.48
-12.55
-14.57
-16.6
-18.9
-21.69
-25.2
-29.46
-34.26
-39.02
-42.79
-44.39
-42.78
-37.42
-28.48
-16.86
-3.85
9.23
21.43
32.27
41.66
49.68
56.32
61.38
64.51
65.31
63.54
59.23
52.76
44.85
36.49
28.71
22.33
17.8
15.07
13.69
12.92
12.07
10.62
8.38
5.36
1.7
-2.49
-7.05
-11.67
-15.82
-18.78
-19.94
-19.06
-16.43
-12.83
-9.18
-6.24
-4.39
-3.68
-3.95
-5.01
-6.64
-8.63
-10.65
-12.34
-13.47
-14.05
-14.32
-14.61
-15.25
-16.37
-17.98
-19.99
-22.29
-24.77
-27.31
-29.72
-31.84
-33.6
-35.11
-36.63
-38.34
-40.16
-41.48
-41.29
-38.43
-32.09
-22.14
-9.34
4.83
18.65
30.6
39.74
45.8
48.96
49.64
48.35
45.72
42.71
40.58
40.68
43.8
49.58
56.31
61.27
61.63
55.62
43.21
26.06
6.83
-11.93
-28.53
-42.46
-54.14
-64.4
-74.0
-83.42
-92.63
-101.18
-108.12
-112.29
-112.62
-108.61
-100.5
-89.29
-76.35
-62.98
-50.11
-38.14
-27.23
-17.34
-8.42
-0.4
6.85
13.38
19.11
23.79
27.08
28.7
28.64
27.09
24.46
21.22
17.87
14.85
12.5
11.06
10.52
10.65
11.0
11.06
10.49
9.27
7.9
7.29
8.52
12.45
19.32
28.52
38.74
48.39
56.11
61.22
63.66
63.76
61.83
57.99
52.25
44.83
36.34
27.69
19.9
13.71
9.46
7.13
6.54
7.39
9.18
11.14
12.21
11.33
7.77
1.4
-7.27
-17.35
-27.82
-37.62
-45.74
-51.09
-52.65
-49.75
-42.27
-30.86
-16.75
-1.38
13.96
28.25
40.8
51.16
58.97
64.06
66.46
66.29
63.8
59.23
52.85
45.01
36.2
27.03
18.11
9.92
2.65
-3.7
-9.27
-14.26
-18.85
-23.26
-27.84
-32.84
-38.21
-43.36
-47.08
-47.92
-44.65
-36.87
-25.19
-11.09
3.53
16.93
27.91
35.86
40.63
42.37
41.4
38.19
33.4
27.86
22.4
17.57
13.54
10.06
6.68
3.0
-1.09
-5.37
-9.41
-12.83
-15.56
-17.91
-20.48
-23.96
-28.93
-35.7
-44.15
-53.59
-62.67
-69.53
-72.13
-68.92
-59.38
-44.28
-25.45
-5.23
14.25
31.53
45.93
57.31
65.71
71.2
73.82
73.71
71.26
67.01
61.55
55.29
48.41
40.9
32.77
24.18
15.53
7.33
0.07
-6.06
-11.24
-16.0
-21.01
-26.85
-33.62
-40.73
-46.87
-50.2
-48.85
-41.61
-28.46
-10.78
9.01
28.11
44.21
56.0
63.28
66.6
66.82
64.61
60.34
54.23
46.52
37.72
28.57
19.8
11.94
5.17
-0.56
-5.44
-9.53
-12.77
-15.1
-16.69
-18.1
-20.3
-24.32
-30.89
-40.05
-50.82
-61.36
-69.33
-72.5
-69.49
-60.23
-46.02
-29.17
-12.21
2.88
15.09
24.4
31.4
36.81
41.17
44.76
47.69
49.93
51.27
51.28
49.36
44.93
37.77
28.21
17.12
5.6
-5.35
-15.07
-23.33
-30.29
-36.4
-42.34
-48.81
-56.2
-64.21
-71.56
-76.08
-75.44
-68.03
-53.79
-34.51
-13.24
6.68
22.74
33.83
40.2
42.73
42.38
39.71
35.02
28.61
21.04
13.25
6.24
0.82
-2.74
-4.67
-5.61
-6.27
-7.11
-8.22
-9.29
-9.84
-9.55
-8.58
-7.62
-7.78
-10.18
-15.51
-23.7
-33.7
-43.68
-51.38
-54.71
-52.31
-44.04
-30.91
-14.76
2.17
17.82
30.56
39.44
44.13
45.04
43.14
39.68
35.87
32.19
28.46
23.89
17.84
10.28
1.93
-6.17
-13.3
-19.47
-25.16
-30.69
-35.82
-39.61
-41.07
-39.89
-36.86
-33.64
-31.8
-32.01
-33.34
-33.91
-31.63
-25.28
-14.97
-1.96
11.85
24.84
35.75
43.89
48.79
50.23
48.26
43.45
37.3
31.79
28.89
29.59
33.76
40.11
46.95
52.83
57.03
59.57
60.78
60.95
60.11
58.04
54.44
49.07
41.81
32.51
21.1
7.63
-7.27
-22.31
-35.62
-45.11
-49.35
-47.82
-41.3
-31.48
-20.44
-9.7
-0.01
8.53
15.96
21.9
25.42
25.39
21.28
13.57
3.8
-6.04
-14.25
-20.12
-23.82
-26.28
-28.52
-31.2
-34.5
-38.08
-41.22
-43.06
-42.82
-40.14
-35.36
-29.8
-25.18
-23.04
-23.96
-27.08
-30.46
-32.1
-30.91
-27.25
-22.55
-18.19
-14.65
-11.05
-5.86
1.86
11.75
21.88
29.76
33.53
32.85
28.78
23.26
18.07
14.23
11.83
10.47
9.56
8.83
8.15
7.53
6.98
6.39
5.31
3.4
0.45
-3.49
-7.99
-12.57
-17.0
-21.47
-26.35
-31.8
-37.29
-41.61
-43.23
-40.97
-34.51
-24.43
-12.04
1.16
13.96
25.63
35.94
44.73
51.68
56.19
57.46
55.05
49.16
40.89
31.87
23.65
17.06
11.85
7.02
1.72
-4.13
-9.53
-13.12
-13.83
-11.75
-8.24
-5.27
-4.52
-6.75
-11.4
-17.03
-21.87
-24.34
-23.48
-18.95
-11.06
-0.66
10.8
21.69
30.6
36.7
40.1
41.35
41.16
40.02
38.04
35.27
32.04
29.08
27.0
26.18
26.36
26.86
26.92
25.83
23.27
19.05
13.1
5.29
-4.25
-15.28
-27.3
-39.58
-51.25
-61.39
-69.04
-73.26
-73.47
-69.45
-61.59
-50.79
-38.26
-25.39
-13.22
-2.69
5.83
12.43
17.35
20.64
22.06
21.48
19.09
15.75
12.75
11.17
11.19
11.86
11.56
8.99
3.97
-2.64
-9.17
-14.3
-17.42
-18.67
-18.51
-17.25
-15.15
-12.62
-10.66
-10.59
-13.48
-19.46
-27.3
-34.63
-38.67
-37.49
-30.78
-20.07
-8.34
1.46
7.44
9.76
10.23
11.08
13.65
17.55
21.33
23.77
24.65
24.76
25.26
26.1
25.94
22.94
16.15
6.67
-2.76
-9.14
-10.85
-8.64
-5.06
-2.94
-4.08
-8.79
-16.26
-25.1
-33.89
-41.29
-45.81
-46.04
-41.24
-31.53
-18.32
-3.64
10.38
22.45
32.37
40.41
46.61
50.56
51.47
48.68
42.71
34.73
26.31
18.74
12.34
6.61
0.94
-4.87
-10.15
-13.75
-14.92
-13.9
-11.89
-10.39
-10.4
-11.81
-13.79
-15.57
-16.99
-18.61
-21.27
-25.17
-29.56
-32.8
-33.27
-30.34
-24.59
-17.55
-10.81
-5.17
-0.52
3.7
8.17
12.88
17.31
20.94
23.66
25.98
28.85
32.67
36.94
40.08
40.25
36.23
28.07
17.13
5.43
-5.23
-13.87
-20.31
-24.9
-28.04
-30.12
-31.74
-33.82
-37.24
-42.57
-49.41
-56.24
-60.83
-61.17
-56.23
-46.41
-33.34
-19.15
-5.74
5.73
14.92
21.79
26.28
28.26
27.48
24.21
19.2
13.64
8.78
5.41
3.77
3.5
3.99
4.7
5.36
5.88
6.29
6.79
7.48
8.4
9.46
10.15
9.67
7.09
1.8
-6.09
-15.54
-24.71
-31.41
-34.08
-32.21
-26.56
-18.82
-10.87
-3.95
1.79
7.13
13.19
20.52
28.41
35.29
39.16
38.84
34.64
28.14
21.51
16.38
13.44
12.46
12.81
13.66
14.31
13.96
11.75
7.03
-0.21
-9.02
-17.8
-25.1
-30.25
-33.45
-35.33
-36.21
-35.56
-32.17
-24.95
-13.64
0.85
16.55
31.2
42.97
50.76
54.65
55.31
53.74
50.72
46.63
41.53
35.41
28.68
22.23
17.22
14.4
13.58
13.56
12.61
9.29
3.25
-4.55
-12.23
-17.86
-20.39
-20.0
-18.06
-16.57
-17.35
-21.4
-28.59
-37.94
-47.84
-56.7
-63.34
-67.07
-67.76
-65.28
-59.56
-50.54
-38.52
-24.25
-8.78
6.8
21.69
35.27
46.87
55.57
60.2
60.03
55.06
46.37
35.67
24.7
14.5
5.28
-3.24
-11.08
-17.76
-22.61
-25.35
-26.59
-27.63
-29.87
-33.92
-39.33
-44.86
-48.91
-50.06
-47.38
-40.42
-29.36
-15.17
0.35
14.88
26.37
33.86
37.76
39.33
39.7
38.97
36.31
30.78
22.39
12.44
3.08
-3.82
-7.58
-8.75
-8.43
-7.44
-5.78
-3.08
0.89
5.49
9.31
10.64
8.38
2.37
-6.73
-17.7
-29.43
-40.94
-51.37
-59.72
-64.91
-65.85
-62.12
-54.01
-42.83
-30.26
-17.72
-5.89
5.39
16.6
28.12
39.85
51.23
61.3
68.97
73.13
72.94
68.22
59.59
48.5
36.89
26.32
17.52
10.29
4.05
-1.57
-6.3
-9.56
-11.01
-11.14
-11.16
-12.3
-15.09
-18.86
-22.23
-23.61
-22.15
-17.69
-10.6
-1.56
8.9
20.19
31.56
41.97
50.28
55.34
56.38
53.19
46.06
36.01
24.43
12.9
3.05
-4.08
-8.14
-9.78
-10.31
-11.31
-13.62
-16.91
-19.69
-19.86
-15.88
-7.83
2.25
11.1
15.62
14.23
7.28
-3.24
-14.76
-25.19
-33.1
-37.65
-37.98
-33.2
-22.75
-7.09
11.91
31.5
48.72
61.62
69.85
74.36
76.72
78.11
78.7
77.77
74.19
67.01
55.9
41.34
24.42
6.7
-10.04
-24.23
-34.97
-42.4
-47.85
-53.06
-59.6
-67.96
-77.53
-86.94
-94.86
-100.71
-104.46
-106.04
-104.73
-99.21
-88.32
-72.02
-51.74
-30.05
-9.47
8.51
23.7
36.55
47.0
54.14
56.27
52.35
43.06
31.09
20.18
13.36
11.88
14.81
20.17
26.21
31.99
37.48
42.66
47.22
50.37
51.38
50.03
46.62
41.63
35.0
26.06
13.98
-1.6
-19.89
-38.68
-55.03
-65.94
-69.48
-65.21
-54.34
-39.21
-22.24
-5.32
10.42
24.29
35.55
43.16
46.24
44.96
40.78
36.13
33.36
33.32
35.13
36.61
35.53
30.79
22.8
13.05
3.22
-5.38
-12.11
-16.9
-19.84
-21.31
-21.77
-21.66
-21.34
-20.94
-20.66
-20.86
-21.97
-23.99
-26.3
-27.14
-24.27
-15.89
-1.92
15.58
32.68
44.98
49.3
44.88
33.67
19.28
5.68
-4.47
-10.28
-12.51
-12.9
-13.16
-14.43
-17.08
-21.05
-26.17
-32.22
-38.81
-44.99
-49.47
-50.75
-47.96
-41.6
-33.9
-28.32
-27.99
-34.37
-45.88
-58.25
-66.11
-65.38
-55.08
-37.79
-18.2
-0.61
12.79
22.53
30.68
38.96
47.38
54.29
57.82
57.35
54.11
50.2
47.23
44.94
41.61
35.2
24.95
11.99
-1.25
-12.56
-21.05
-27.07
-31.58
-35.15
-37.65
-38.86
-39.32
-40.22
-42.81
-46.81
-50.09
-49.35
-41.93
-27.42
-8.27
11.31
27.36
37.66
42.4
43.32
42.45
41.06
39.17
36.16
31.4
25.05
18.03
11.73
7.19
4.68
3.74
3.66
4.07
5.27
7.89
12.29
17.75
22.24
23.39
19.66
11.32
0.55
-9.69
-17.18
-21.36
-23.26
-24.38
-25.66
-26.7
-26.09
-22.43
-15.5
-6.43
2.69
10.01
14.87
17.82
20.08
22.48
25.03
26.94
27.32
25.7
22.48
18.49
14.4
10.14
5.13
-1.23
-9.09
-17.7
-25.8
-32.19
-36.21
-37.84
-37.59
-36.14
-34.11
-31.56
-28.17
-23.18
-15.84
-5.88
6.02
18.35
29.17
37.03
41.9
44.87
47.52
50.87
54.38
56.32
54.74
48.96
40.13
30.75
23.26
18.77
16.77
15.77
14.57
13.01
11.86
11.84
12.81
13.69
13.12
10.29
5.22
-1.2
-8.24
-15.66
-23.78
-32.75
-42.07
-50.2
-54.97
-54.76
-49.06
-39.05
-26.97
-15.27
-5.48
2.08
8.21
14.07
20.42
27.17
33.32
37.61
38.99
37.14
32.57
26.33
19.73
13.78
8.88
4.69
0.46
-4.65
-11.1
-18.58
-26.35
-33.47
-39.4
-43.99
-47.55
-50.43
-52.92
-55.28
-57.69
-60.03
-61.38
-60.22
-54.6
-43.53
-27.46
-8.58
9.97
25.46
36.37
42.89
46.18
47.49
47.48
46.07
42.93
38.05
31.94
25.66
20.46
17.44
17.21
19.58
23.53
27.54
30.23
30.91
29.82
27.61
24.81
21.29
16.2
8.79
-0.95
-11.69
-21.09
-27.09
-28.79
-26.79
-22.86
-18.76
-15.34
-12.28
-8.69
-3.75
2.61
9.64
16.14
21.01
23.8
24.75
24.51
23.8
22.96
21.87
20.14
17.46
13.91
9.93
6.2
3.09
0.54
-1.81
-4.55
-7.94
-11.83
-15.64
-18.54
-19.95
-19.86
-18.7
-17.21
-16.12
-15.79
-16.01
-16.06
-14.89
-11.84
-6.84
-0.55
5.92
11.51
15.55
17.91
18.72
18.0
15.64
11.26
4.75
-3.41
-11.9
-18.95
-23.08
-24.13
-23.38
-22.93
-24.57
-28.6
-33.57
-37.12
-37.37
-34.1
-28.83
-23.9
-21.12
-20.88
-22.24
-23.92
-25.44
-27.56
-31.68
-38.85
-48.39
-57.84
-63.73
-62.93
-54.11
-38.24
-18.1
2.61
20.45
33.11
39.68
40.7
37.55
32.11
26.09
20.85
17.05
14.76
13.69
13.52
14.28
16.11
19.05
22.56
25.39
26.03
23.19
16.63
7.29
-2.83
-11.29
-16.45
-18.09
-17.53
-16.97
-17.97
-20.61
-23.13
-22.97
-18.27
-9.07
2.45
13.15
20.58
24.04
24.51
23.64
22.53
21.27
19.48
17.18
15.37
15.46
18.05
22.34
26.04
26.8
23.67
17.55
10.66
5.13
2.28
2.29
4.82
9.32
15.01
20.72
24.86
25.78
22.65
15.94
7.07
-2.19
-10.51
-17.27
-22.15
-24.51
-23.77
-19.85
-13.76
-7.25
-1.92
1.91
5.42
10.4
17.78
26.79
34.98
39.64
39.13
33.99
26.47
19.27
14.48
12.53
12.63
13.58
14.36
14.68
14.41
12.96
9.4
2.58
-7.57
-19.57
-30.17
-35.81
-34.25
-25.76
-13.1
-0.01
10.6
17.94
23.17
28.23
34.25
40.85
46.45
49.27
48.37
44.18
38.22
32.28
27.62
24.29
21.46
17.99
13.22
7.63
2.55
-0.32
0.01
3.25
8.05
12.4
14.74
14.27
11.08
5.64
-1.56
-10.2
-19.74
-29.33
-37.89
-44.47
-48.85
-51.63
-53.9
-56.34
-58.74
-59.93
-58.4
-53.02
-43.59
-31.02
-16.8
-2.69
9.74
19.23
24.76
25.92
23.17
17.65
10.99
4.7
-0.5
-4.62
-8.19
-11.88
-16.14
-21.14
-26.78
-32.47
-36.99
-38.91
-37.1
-31.6
-23.76
-15.81
-9.86
-6.92
-6.67
-8.0
-9.93
-12.28
-15.61
-20.52
-26.87
-33.57
-38.82
-40.77
-38.26
-31.26
-20.8
-8.9
2.31
11.17
17.06
20.65
23.39
26.69
31.07
35.85
39.55
40.91
39.64
36.59
33.28
30.84
29.25
27.37
23.74
17.45
8.66
-1.5
-11.44
-19.83
-25.9
-29.63
-31.39
-31.77
-31.58
-31.71
-32.88
-35.32
-38.49
-41.32
-42.62
-41.71
-38.62
-33.86
-28.03
-21.42
-14.15
-6.38
1.38
8.39
13.88
17.39
18.82
18.42
16.52
13.53
9.96
6.53
4.05
3.18
4.0
5.89
7.86
8.9
8.5
6.8
4.5
2.48
1.5
1.85
3.31
5.21
6.54
6.37
4.03
-0.47
-6.47
-12.76
-18.13
-21.7
-23.24
-22.87
-20.98
-17.95
-14.0
-9.56
-5.17
-1.24
2.02
4.87
7.86
11.33
14.98
17.91
19.13
18.28
16.07
13.71
12.26
11.84
11.51
9.96
6.38
1.16
-4.41
-8.7
-10.68
-10.42
-8.81
-7.11
-6.18
-6.14
-6.36
-5.7
-3.16
1.6
8.09
14.85
20.06
22.43
21.69
18.74
15.22
12.72
11.99
12.88
14.62
16.25
17.26
17.44
16.67
14.89
12.05
8.37
4.51
1.4
-0.35
-0.5
0.4
1.31
1.25
-0.26
-3.02
-6.26
-8.96
-10.36
-10.28
-9.14
-7.88
-7.64
-9.2
-12.62
-17.29
-22.05
-25.83
-27.72
-27.28
-24.3
-18.72
-10.88
-1.55
8.0
16.37
22.43
25.85
27.05
27.07
26.82
26.53
25.75
23.63
19.69
14.25
8.55
4.05
1.7
1.45
2.24
2.56
1.15
-2.39
-7.65
-13.64
-19.32
-24.13
-27.81
-30.43
-31.98
-32.45
-31.7
-29.81
-26.87
-23.17
-18.97
-14.55
-10.05
-5.46
-1.07
2.76
5.3
5.86
4.14
0.56
-3.9
-7.93
-10.32
-10.34
-7.66
-2.57
4.2
11.47
18.06
22.92
25.71
26.79
27.05
27.31
27.87
28.23
27.29
23.93
17.54
8.09
-3.53
-15.8
-26.68
-34.01
-35.98
-31.7
-21.79
-8.22
6.13
18.55
27.19
31.69
32.73
31.51
29.1
25.92
21.88
16.71
10.48
3.68
-2.87
-8.43
-12.69
-15.78
-17.95
-19.15
-18.92
-16.77
-12.64
-7.26
-2.1
1.41
2.86
3.29
4.63
8.34
14.31
20.51
24.0
22.74
16.58
7.41
-2.17
-10.27
-16.49
-21.48
-25.69
-28.5
-28.28
-23.51
-14.14
-2.15
9.04
16.33
18.23
15.27
9.37
2.65
-3.59
-8.98
-13.61
-17.38
-19.67
-19.91
-18.07
-15.01
-12.08
-10.64
-10.97
-12.31
-13.33
-12.79
-10.38
-6.61
-2.5
1.18
4.01
6.1
7.83
9.65
11.84
14.46
17.53
21.04
24.99
29.25
33.44
36.73
37.99
36.1
30.62
22.29
12.96
4.85
-0.38
-2.45
-2.58
-2.58
-3.92
-6.9
-10.76
-14.16
-16.11
-16.39
-15.44
-13.93
-12.42
-10.96
-9.46
-8.02
-7.09
-7.27
-9.07
-12.49
-16.87
-21.03
-23.64
-23.78
-21.35
-16.89
-11.36
-5.56
0.29
6.46
13.44
21.29
29.39
36.48
41.25
43.08
42.2
39.85
37.1
34.45
31.44
27.23
21.31
14.06
6.7
0.62
-3.48
-6.0
-8.06
-10.72
-14.33
-18.29
-21.46
-22.78
-21.87
-19.01
-15.12
-11.19
-8.13
-6.56
-6.69
-8.36
-10.8
-12.93
-13.68
-12.56
-10.01
-7.39
-6.46
-8.33
-13.06
-19.39
-25.51
-29.65
-30.92
-29.45
-26.03
-21.36
-15.85
-9.51
-2.52
4.48
10.3
13.49
13.07
9.02
2.3
-5.36
-12.16
-16.91
-19.16
-19.09
-17.12
-13.67
-9.09
-3.84
1.34
5.84
9.34
12.21
15.21
19.19
24.32
29.89
34.58
37.26
37.5
35.8
32.97
29.63
25.76
21.09
15.46
9.25
3.22
-1.91
-5.84
-8.83
-11.55
-14.64
-18.34
-22.45
-26.37
-29.37
-30.68
-29.8
-26.5
-20.8
-13.24
-4.54
4.56
13.62
22.17
30.0
36.7
41.69
44.17
43.39
38.86
30.87
20.55
9.68
0.16
-6.7
-10.79
-12.73
-13.61
-14.3
-15.18
-16.33
-17.81
-19.62
-21.67
-23.42
-24.03
-22.73
-19.3
-14.4
-9.35
-5.61
-4.24
-6.04
-11.07
-18.72
-27.72
-35.96
-41.19
-41.72
-37.37
-29.27
-19.58
-10.3
-2.54
3.52
8.23
11.92
14.62
16.3
17.36
18.64
20.96
24.46
28.18
30.48
29.75
25.46
18.43
10.48
3.51
-1.43
-4.45
-6.57
-8.65
-11.0
-13.06
-14.01
-13.52
-12.09
-10.87
-10.83
-12.4
-14.91
-17.07
-17.37
-14.82
-9.35
-1.88
6.02
12.79
17.24
19.04
18.68
17.15
15.43
14.19
13.35
12.39
10.67
7.95
4.56
1.53
0.05
0.85
3.76
7.75
11.38
13.61
14.35
14.29
14.35
14.8
14.95
13.56
9.73
3.52
-3.87
-10.81
-16.16
-19.75
-22.07
-23.66
-24.46
-23.78
-21.02
-16.19
-10.18
-4.27
0.57
4.33
7.67
11.61
16.46
21.67
25.93
27.86
26.75
22.94
17.52
11.8
6.63
2.03
-2.49
-7.45
-12.84
-17.9
-21.54
-23.03
-22.49
-20.95
-19.89
-20.48
-23.11
-27.18
-31.63
-35.43
-38.03
-39.42
-39.77
-39.21
-37.6
-34.82
-31.12
-27.17
-24.06
-22.64
-22.96
-24.03
-24.26
-22.14
-17.37
-10.91
-4.41
0.79
4.45
7.39
10.71
14.92
19.7
24.38
28.67
32.98
38.15
44.53
51.23
56.2
57.18
52.92
44.08
32.97
22.54
15.03
11.45
11.38
13.75
17.55
22.04
26.84
31.58
35.66
38.21
38.53
36.54
33.02
29.48
27.41
27.53
29.22
30.79
30.08
25.6
17.26
6.47
-4.42
-12.96
-17.84
-19.09
-17.75
-15.49
-13.68
-13.15
-14.13
-16.37
-19.37
-22.23
-23.9
-23.23
-19.46
-12.62
-3.67
5.64
13.47
18.52
20.51
20.02
18.09
15.51
12.59
9.23
5.3
0.96
-3.22
-6.49
-8.22
-8.29
-7.1
-5.12
-2.82
-0.29
2.83
6.92
12.0
17.43
22.01
24.34
23.37
18.99
12.05
4.01
-3.72
-10.26
-15.41
-19.47
-22.65
-25.02
-26.36
-26.65
-26.05
-24.92
-23.41
-21.36
-18.46
-14.6
-10.12
-5.77
-2.58
-1.23
-1.89
-4.21
-7.45
-10.9
-14.11
-16.89
-19.46
-22.16
-25.25
-28.81
-32.58
-36.14
-39.0
-40.71
-41.09
-39.97
-37.17
-32.69
-26.77
-20.17
-13.95
-8.97
-5.64
-3.85
-3.12
-2.81
-2.21
-0.56
2.93
8.77
16.48
24.66
31.26
34.56
34.09
30.99
27.14
24.18
22.43
20.99
18.63
14.94
10.83
8.0
7.79
10.22
13.83
16.59
16.96
14.69
10.71
6.49
3.09
0.78
-0.79
-2.05
-3.13
-3.79
-3.65
-2.65
-1.07
0.61
1.98
3.05
4.08
5.56
7.77
10.9
14.82
19.18
23.26
26.14
26.93
25.18
21.18
15.97
11.0
7.38
5.62
5.37
5.75
5.82
4.87
2.51
-1.26
-6.0
-10.84
-14.62
-16.3
-15.51
-12.74
-9.3
-6.63
-5.65
-6.27
-7.42
-7.68
-5.81
-1.49
4.53
10.57
14.68
15.32
12.13
5.98
-1.45
-8.38
-13.87
-17.83
-20.82
-23.11
-24.31
-23.51
-20.06
-14.15
-7.13
-0.89
3.06
4.35
3.63
2.06
0.59
-0.31
-0.48
0.33
2.55
6.51
12.0
17.99
22.81
24.96
23.83
19.96
14.88
10.1
6.57
4.49
3.5
3.09
2.95
3.06
3.67
5.19
7.84
11.43
15.03
17.36
17.19
13.96
8.03
0.45
-7.58
-15.11
-21.39
-25.71
-27.35
-26.11
-22.55
-18.32
-15.36
-14.89
-16.65
-18.89
-19.39
-16.85
-11.4
-4.37
2.51
8.01
11.71
13.58
13.79
12.54
10.41
8.36
7.56
8.59
10.95
13.37
14.26
12.56
8.12
1.57
-6.03
-13.49
-19.95
-24.86
-28.05
-29.78
-30.65
-31.55
-33.29
-36.08
-39.34
-41.74
-41.53
-37.27
-28.53
-16.07
-1.73
12.15
23.44
30.85
34.16
34.16
32.21
29.61
27.42
26.2
26.12
27.1
28.8
30.84
32.85
34.53
35.68
36.26
36.42
36.47
36.67
36.96
36.74
34.91
30.3
22.3
11.48
-0.45
-11.08
-18.21
-20.85
-19.52
-15.89
-12.16
-10.08
-10.5
-13.45
-18.16
-23.38
-27.49
-28.84
-26.02
-18.52
-7.17
5.9
17.83
25.95
28.84
26.77
21.3
14.72
8.81
4.43
1.52
-0.46
-2.09
-3.67
-5.15
-6.12
-6.22
-5.07
-2.53
1.2
5.53
9.75
13.17
15.42
16.58
16.83
16.25
14.62
11.64
7.2
1.65
-4.22
-9.48
-13.35
-15.66
-16.67
-16.72
-16.16
-15.25
-14.0
-12.36
-10.21
-7.48
-4.2
-0.72
2.18
3.58
2.92
0.38
-2.82
-5.09
-5.09
-2.6
1.38
5.22
7.47
7.6
6.22
4.42
3.09
2.42
2.0
1.32
0.19
-1.0
-1.54
-0.87
1.09
4.2
8.14
12.52
17.02
21.09
23.98
24.96
23.75
20.8
17.13
13.99
12.01
11.03
10.14
8.03
3.86
-2.43
-9.98
-17.31
-22.99
-26.29
-27.21
-26.42
-24.78
-22.8
-20.53
-17.69
-14.12
-9.83
-5.16
-0.55
3.41
6.11
6.88
4.92
-0.29
-8.51
-18.52
-28.31
-35.83
-39.72
-39.97
-37.47
-33.49
-29.02
-24.54
-20.23
-16.23
-12.7
-9.55
-6.02
-0.9
7.0
17.83
30.15
41.04
47.29
46.69
39.13
26.54
12.06
-1.29
-11.66
-18.58
-22.54
-24.35
-24.73
-24.21
-23.26
-22.37
-22.18
-23.06
-25.0
-27.42
-29.4
-29.89
-28.09
-23.88
-17.79
-10.96
-4.76
-0.17
2.33
2.92
2.27
1.07
-0.16
-1.14
-1.85
-2.45
-3.05
-3.91
-5.18
-6.8
-8.54
-9.85
-10.15
-8.92
-5.99
-1.53
3.88
9.58
14.76
18.72
20.85
20.86
18.92
15.54
11.56
7.81
4.83
2.63
0.98
-0.4
-1.74
-3.01
-3.99
-4.53
-4.45
-3.59
-1.88
0.7
4.0
7.63
10.96
13.39
14.5
14.42
13.71
13.12
13.29
14.4
16.24
18.31
20.05
21.06
21.07
20.11
18.16
15.26
11.25
6.15
0.2
-6.07
-11.7
-15.71
-17.39
-16.71
-14.31
-11.21
-8.16
-5.25
-2.02
1.96
6.49
10.57
12.72
11.85
7.99
2.17
-4.1
-9.57
-13.8
-17.06
-19.77
-21.96
-23.13
-22.71
-20.68
-17.73
-15.07
-13.66
-13.65
-14.44
-15.03
-14.62
-13.03
-10.57
-8.08
-6.37
-6.05
-7.38
-10.08
-13.41
-16.23
-17.47
-16.62
-13.94
-10.53
-7.92
-7.23
-8.43
-10.33
-10.89
-8.41
-2.39
5.93
14.17
19.79
21.33
19.15
15.09
11.58
10.07
10.52
11.47
11.21
8.73
4.25
-0.85
-5.11
-7.55
-8.16
-7.68
-7.16
-7.47
-9.09
-11.83
-15.18
-18.5
-21.11
-22.55
-22.66
-21.4
-18.84
-15.27
-11.1
-6.87
-3.18
-0.5
1.15
2.11
3.02
4.41
6.55
9.24
11.97
14.08
15.02
14.42
12.17
8.5
4.08
-0.14
-3.29
-4.51
-3.65
-0.93
2.92
6.99
10.29
12.01
11.9
10.26
7.96
5.91
4.72
4.25
3.77
2.41
-0.12
-3.39
-6.29
-7.68
-7.23
-5.47
-3.54
-2.53
-2.77
-3.84
-4.76
-4.76
-3.65
-2.0
-0.62
-0.16
-0.75
-1.84
-2.54
-2.19
-0.69
1.36
2.9
2.95
1.07
-2.52
-7.23
-12.36
-17.47
-22.33
-26.61
-29.78
-30.96
-29.43
-24.85
-17.66
-8.72
0.92
10.41
19.14
26.53
32.06
35.32
36.14
34.71
31.57
27.37
22.58
17.71
13.09
9.07
5.79
3.1
0.68
-1.63
-3.64
-4.75
-4.34
-2.49
-0.0
1.77
1.55
-1.05
-5.67
-11.35
-17.12
-22.18
-26.07
-28.32
-28.52
-26.45
-22.28
-16.86
-11.4
-7.02
-4.33
-3.4
-3.69
-4.13
-3.7
-1.45
2.93
9.01
15.6
21.33
25.12
26.65
26.37
25.18
23.87
22.68
21.28
18.96
15.19
10.13
4.51
-0.63
-4.63
-7.4
-9.51
-11.99
-15.7
-20.96
-26.93
-32.09
-34.57
-33.2
-27.92
-20.13
-11.97
-5.22
-0.51
2.95
6.93
13.05
21.5
30.78
38.24
41.6
40.18
35.3
29.34
24.36
21.13
18.95
16.28
12.12
6.37
0.02
-5.75
-10.17
-13.21
-15.4
-17.13
-18.26
-18.19
-16.34
-12.59
-7.71
-3.0
0.24
1.36
0.8
-0.22
-0.46
0.58
2.23
2.94
1.36
-2.81
-8.33
-12.87
-14.09
-10.67
-3.18
6.35
15.06
20.43
21.26
17.8
11.71
5.23
0.49
-1.3
-0.25
2.41
4.82
5.37
3.32
-1.0
-6.35
-11.47
-15.66
-19.16
-22.74
-27.19
-32.77
-38.93
-44.54
-48.18
-48.54
-44.9
-37.3
-26.56
-14.18
-1.63
10.13
20.94
31.16
41.09
50.44
58.01
62.34
62.62
59.5
54.84
50.74
48.36
47.22
45.54
41.5
34.31
24.7
14.53
5.66
-0.91
-5.3
-8.14
-9.72
-9.8
-7.93
-4.25
-0.06
2.56
1.7
-3.18
-10.95
-19.37
-26.17
-30.08
-31.13
-30.29
-28.57
-26.48
-23.92
-20.5
-16.06
-10.78
-5.32
-0.41
3.54
6.47
8.77
11.08
13.88
17.33
21.19
24.87
27.65
28.83
28.04
25.16
20.5
14.74
8.78
3.5
-0.65
-3.81
-6.54
-9.47
-12.8
-16.22
-19.3
-21.88
-24.34
-27.2
-30.5
-33.24
-33.81
-30.59
-23.09
-12.26
-0.12
11.3
20.7
27.8
32.83
35.77
36.3
34.16
29.71
24.23
19.62
