2013-02-24 18:13:04
64.0
-0.0
-0.0
-0.0
-0.0
-0.0
-0.0
-0.0
-0.0
-0.0
-0.0
0.0
0.01
0.01
-0.0
-0.03
-0.05
-0.05
0.0
0.13
0.36
0.66
1.01
1.37
1.72
2.06
2.4
2.79
3.24
3.8
4.42
5.06
5.66
6.2
6.68
7.15
7.68
8.31
9.14
10.09
11.04
11.88
12.56
13.14
13.76
14.65
15.96
17.91
20.32
22.9
25.38
27.58
29.57
31.68
34.32
37.81
42.54
48.15
54.1
59.83
64.97
69.58
74.14
79.34
85.71
93.76
103.0
112.62
121.73
129.77
136.75
143.3
150.75
157.77
166.64
177.95
191.79
206.97
220.57
228.25
225.36
208.53
176.87
132.76
80.05
23.07
-34.94
-92.44
-149.16
-205.23
-260.37
-313.74
-363.87
-409.83
-450.91
-486.5
-515.74
-537.23
-549.22
-549.96
-538.37
-514.21
-478.67
-433.88
-382.45
-327.02
-269.84
-212.63
-156.66
-102.95
-52.37
-5.9
35.58
71.43
101.35
125.5
144.38
158.69
169.15
176.37
180.75
182.57
182.07
179.51
175.23
169.65
163.18
156.15
148.81
141.3
133.69
126.02
118.33
110.69
103.16
95.8
88.68
81.83
75.25
68.95
62.95
57.25
51.86
46.78
42.03
37.59
33.45
29.61
26.07
22.81
19.82
17.11
14.67
12.48
10.55
8.85
7.38
6.12
5.04
4.14
3.39
2.78
2.29
1.89
1.58
1.35
1.17
1.04
0.96
0.9
0.87
0.87
0.88
0.91
0.95
1.01
1.07
1.15
1.24
1.35
1.47
1.6
1.76
1.93
2.12
2.34
2.57
2.84
3.13
3.45
3.8
4.19
4.61
5.07
5.56
6.1
6.68
7.3
7.96
8.67
9.43
10.23
11.09
11.99
12.94
13.93
14.99
16.11
17.3
18.56
19.87
21.21
22.55
23.82
24.92
25.76
26.21
26.13
25.43
24.0
21.82
18.9
15.3
11.12
6.55
1.8
-2.92
-7.36
-11.36
-14.72
-17.36
-19.21
-20.28
-20.6
-20.27
-19.42
-18.16
-16.61
-14.88
-13.04
-11.15
-9.23
-7.26
-5.29
-3.33
-1.35
0.64
2.67
4.78
6.98
9.33
11.91
14.64
17.51
20.49
23.58
26.74
29.96
33.25
36.66
40.33
44.1
47.95
51.87
55.84
59.89
64.02
68.31
72.88
77.96
83.37
89.0
94.86
100.85
106.93
113.03
119.13
125.31
131.77
138.15
144.24
149.78
154.36
157.43
158.2
155.68
148.46
139.15
128.62
117.49
106.07
94.39
82.29
69.53
56.0
41.93
27.92
14.13
0.89
-11.67
-23.79
-36.0
-48.92
-62.94
-77.97
-93.44
-108.97
-124.09
-138.49
-152.28
-165.81
-179.7
-194.71
-211.77
-231.61
-254.59
-279.53
-303.56
-322.53
-332.33
-330.42
-316.92
-294.47
-267.07
-238.65
-211.64
-186.63
-163.13
-140.49
-118.75
-98.62
-81.06
-66.79
-56.15
-49.16
-45.73
-45.79
-49.02
-54.51
-60.51
-64.39
-63.4
-55.46
-40.2
-19.13
4.8
28.22
48.31
63.58
73.84
79.86
82.88
84.05
84.09
83.42
82.09
79.99
77.1
73.49
69.46
65.22
60.94
56.49
51.61
46.19
40.33
34.38
28.69
23.52
18.88
14.59
10.43
6.35
2.32
-1.58
-5.29
-8.98
-12.93
-17.47
-22.62
-27.9
-32.05
-33.3
-29.85
-20.74
-6.67
10.11
26.34
39.07
46.83
50.0
50.47
50.34
50.92
52.03
52.46
50.92
47.01
41.62
36.43
32.9
31.5
31.4
31.0
28.82
24.25
17.75
10.65
4.36
-0.24
-3.18
-5.27
-7.75
-11.71
-17.66
-25.36
-34.06
-42.81
-50.61
-56.4
-58.94
-56.93
-49.36
-36.11
-18.36
1.63
21.11
37.77
50.2
57.98
61.21
60.08
54.7
45.39
33.16
19.83
7.7
-1.18
-5.83
-6.63
-5.1
-3.17
-2.6
-4.28
-8.26
-13.84
-20.04
-25.87
-30.75
-34.53
-37.47
-39.97
-42.19
-43.8
-43.82
-40.95
-34.15
-23.29
-9.39
5.54
19.31
30.3
37.95
42.59
44.94
45.4
43.81
39.75
32.98
24.05
14.25
5.24
-1.66
-6.07
-8.63
-10.65
-13.38
-17.47
-22.68
-28.21
-33.11
-36.72
-38.94
-40.16
-41.03
-42.28
-44.47
-47.73
-51.6
-54.89
-55.82
-52.56
-43.95
-30.08
-12.47
6.4
23.92
38.17
48.36
54.64
57.69
58.21
56.73
53.62
49.42
44.91
40.97
38.24
36.7
35.7
34.18
31.21
26.46
20.32
13.74
7.77
3.12
-0.07
-2.26
-4.29
-7.06
-11.38
-17.68
-25.95
-35.55
-45.16
-52.84
-56.48
-54.4
-46.01
-32.14
-14.95
2.8
18.53
30.66
38.82
43.62
46.03
46.78
46.15
44.13
40.77
36.47
31.96
28.01
25.09
23.18
21.81
20.36
18.38
15.79
12.91
10.24
8.23
6.99
6.19
5.13
2.96
-1.04
-7.23
-15.44
-24.84
-34.0
-41.09
-44.26
-42.13
-34.28
-21.58
-6.01
9.87
23.7
33.98
40.4
43.58
44.51
44.07
42.6
40.14
36.59
32.13
27.2
22.45
18.37
15.16
12.63
10.37
7.93
5.05
1.64
-2.21
-6.29
-10.41
-14.38
-18.1
-21.57
-24.9
-28.24
-31.79
-35.75
-40.34
-45.77
-51.97
-58.34
-63.55
-65.67
-62.72
-53.53
-38.31
-18.88
1.91
21.03
36.24
46.61
52.42
54.68
54.56
52.96
50.58
47.9
45.33
43.12
41.3
39.63
37.64
34.76
30.67
25.47
19.64
13.99
9.29
5.99
4.1
3.2
2.71
2.02
0.74
-1.35
-4.35
-8.39
-13.67
-20.35
-28.42
-37.44
-46.33
-53.35
-56.54
-54.24
-45.75
-31.83
-14.52
3.46
19.53
31.96
40.12
44.27
45.14
43.59
40.26
35.82
30.9
26.3
22.76
20.85
20.68
21.8
23.28
23.91
22.77
19.59
14.89
9.71
5.16
1.86
-0.37
-2.35
-5.12
-9.47
-15.64
-23.34
-31.76
-39.71
-45.7
-48.15
-45.8
-38.14
-25.79
-10.51
5.24
19.08
29.31
35.19
36.91
35.08
30.4
23.54
15.16
6.15
-2.4
-9.42
-14.13
-16.42
-16.77
-16.08
-15.18
-14.52
-14.11
-13.65
-12.88
-11.87
-11.06
-11.09
-12.56
-15.66
-20.15
-25.38
-30.46
-34.46
-36.45
-35.73
-31.83
-24.86
-15.58
-5.35
4.16
11.51
15.9
17.29
16.21
13.46
9.74
5.57
1.31
-2.71
-6.18
-8.9
-10.79
-11.98
-12.81
-13.67
-14.88
-16.62
-18.91
-21.65
-24.79
-28.47
-33.06
-38.97
-46.4
-54.86
-63.11
-69.19
-70.99
-66.96
-56.66
-41.01
-22.01
-2.24
15.81
30.31
40.36
45.99
47.95
47.33
45.17
42.24
38.91
35.29
31.37
27.16
22.68
17.99
13.15
8.25
3.47
-0.92
-4.64
-7.59
-9.94
-12.19
-15.0
-18.94
-24.27
-30.73
-37.59
-43.59
-47.24
-47.04
-41.99
-32.05
-18.32
-2.92
11.77
23.83
32.38
37.68
40.6
41.95
42.06
40.77
37.82
33.33
27.96
22.69
18.35
15.2
12.93
10.91
8.66
6.15
3.86
2.43
2.3
3.37
4.84
5.49
3.93
-0.85
-9.17
-20.37
-32.75
-43.85
-50.99
-52.04
-46.09
-33.88
-17.66
-0.47
14.82
26.38
33.89
38.14
40.45
41.76
42.31
41.74
39.62
35.92
31.17
26.13
21.35
16.89
12.4
7.48
2.1
-3.26
-7.82
-10.92
-12.36
-12.52
-12.12
-11.99
-12.75
-14.73
-18.05
-22.52
-27.63
-32.34
-35.19
-34.59
-29.42
-19.61
-6.42
7.93
20.94
30.84
37.04
40.17
41.41
41.77
41.65
40.88
39.02
35.88
31.61
26.64
21.42
16.31
11.46
6.88
2.63
-1.28
-4.73
-7.64
-9.96
-11.76
-13.25
-14.78
-16.77
-19.59
-23.42
-28.33
-34.31
-41.38
-49.56
-58.52
-67.34
-74.44
-77.88
-76.1
-68.6
-56.37
-41.59
-26.88
-14.38
-5.21
0.65
3.88
5.24
5.1
3.51
0.45
-3.63
-7.84
-11.21
-13.29
-14.45
-15.56
-17.41
-20.05
-22.68
-24.2
-23.95
-22.38
-21.07
-22.28
-27.96
-38.97
-54.73
-73.22
-91.55
-106.71
-116.34
-119.28
-115.79
-107.14
-95.09
-81.01
-65.49
-48.33
-28.95
-6.96
17.51
43.46
69.24
92.71
111.48
123.53
127.56
123.43
112.33
96.52
79.0
62.8
50.43
43.18
40.97
42.4
45.41
48.03
49.04
48.08
45.47
41.73
37.06
31.23
23.71
13.98
1.87
-12.26
-27.56
-42.72
-56.18
-66.27
-71.33
-69.89
-60.89
-43.7
-18.34
14.72
54.61
100.45
151.11
204.88
258.7
307.78
346.07
367.78
369.59
352.33
321.04
282.94
244.46
208.7
175.09
141.21
105.38
68.43
33.44
3.75
-19.12
-36.18
-50.0
-62.85
-75.18
-85.55
-92.01
-93.39
-90.4
-85.55
-81.82
-81.63
-86.1
-94.45
-104.25
-112.13
-115.02
-111.24
-101.37
-87.95
-74.26
-62.82
-54.28
-47.81
-41.93
-36.13
-31.34
-29.67
-33.03
-42.06
-55.8
-71.99
-88.12
-102.1
-112.71
-119.35
-122.1
-121.56
-118.79
-115.17
-112.02
-110.43
-110.35
-110.84
-110.52
-108.51
-104.89
-100.85
-98.1
-97.61
-99.27
-101.72
-103.22
-102.36
-98.4
-91.35
-81.28
-68.05
-51.26
-30.95
-7.93
16.11
39.07
59.38
76.58
91.23
104.34
116.97
129.61
142.01
153.32
162.43
168.14
169.53
166.24
158.59
147.62
134.79
121.69
109.57
99.07
90.21
82.47
75.15
67.67
59.65
50.98
41.7
31.74
21.12
9.91
-1.64
-12.79
-22.51
-29.64
-33.28
-33.09
-29.53
-23.7
-16.82
-9.82
-2.95
3.98
11.21
18.6
25.48
30.88
33.82
33.69
30.34
24.16
16.01
7.16
-0.95
-7.09
-10.74
-12.19
-12.58
-13.31
-15.29
-18.6
-22.51
-26.0
-28.34
-29.11
-28.23
-25.84
-22.32
-18.65
-16.33
-16.92
-21.11
-28.06
-35.6
-40.94
-42.15
-39.03
-33.06
-26.52
-21.42
-18.83
-18.68
-20.02
-21.43
-21.45
-19.07
-14.33
-8.46
-3.59
-1.81
-4.04
-9.31
-15.12
-18.8
-18.88
-15.85
-11.76
-8.77
-7.91
-8.71
-9.92
-10.57
-10.79
-11.55
-13.8
-17.75
-22.47
-26.69
-29.44
-30.72
-31.11
-31.01
-30.06
-27.31
-21.94
-14.06
-4.89
3.79
10.5
14.72
16.72
17.22
16.76
15.51
13.41
10.42
6.53
1.96
-3.07
-8.07
-12.43
-15.49
-16.92
-16.84
-15.83
-14.44
-12.98
-11.52
-10.0
-8.68
-8.17
-9.27
-12.65
-18.11
-24.69
-30.88
-35.06
-36.09
-33.73
-28.61
-21.93
-14.8
-8.0
-1.7
4.2
9.64
14.18
17.2
18.36
17.9
16.63
15.59
15.41
16.11
17.29
18.48
19.24
19.33
18.79
17.8
16.63
15.64
14.91
14.13
12.43
9.06
3.81
-2.6
-8.94
-14.23
-18.46
-22.49
-27.31
-32.96
-38.13
-40.72
-39.01
-32.85
-23.83
-14.51
-7.07
-2.44
-0.2
0.9
2.02
3.77
6.14
8.73
11.08
12.87
13.91
14.26
14.06
13.5
12.61
11.33
9.53
7.18
4.45
1.71
-0.71
-2.69
-4.47
-6.52
-9.31
-13.0
-17.36
-21.67
-24.88
-25.88
-23.85
-18.63
-10.96
-2.2
6.15
12.93
17.71
20.64
22.05
22.14
20.79
17.88
13.66
8.89
4.56
1.56
0.16
-0.02
0.22
0.15
-0.58
-1.76
-2.92
-3.56
-3.45
-2.71
-1.77
-1.19
-1.51
-3.08
-5.99
-10.08
-14.91
-19.72
-23.59
-25.51
-24.64
-20.61
-13.65
-4.65
5.09
14.21
21.63
26.76
29.53
30.21
29.24
27.08
24.19
21.04
18.1
15.83
14.53
14.27
14.82
15.68
16.23
15.95
14.56
12.1
8.93
5.47
2.06
-1.19
-4.46
-8.13
-12.67
-18.41
-25.4
-33.27
-41.11
-47.65
-51.45
-51.3
-46.63
-37.74
-25.71
-12.21
1.06
12.63
21.6
27.61
30.7
31.2
29.58
26.39
22.25
17.92
14.25
11.98
11.62
13.2
16.1
19.21
21.26
21.28
18.96
14.81
9.81
5.08
1.34
-1.27
-3.02
-4.37
-5.58
-6.82
-8.17
-9.84
-12.1
-14.94
-17.85
-19.78
-19.5
-16.18
-9.98
-2.14
5.51
11.39
14.75
15.85
15.55
14.63
13.32
11.46
8.81
5.57
2.47
0.47
0.15
1.45
3.56
5.42
6.28
6.03
5.12
4.18
3.61
3.26
2.7
1.49
-0.61
-3.54
-7.1
-11.11
-15.33
-19.41
-22.61
-24.0
-22.8
-18.67
-11.98
-3.68
5.02
13.07
19.78
24.81
28.01
29.26
28.54
26.05
22.27
17.89
13.66
10.13
7.43
5.35
3.39
1.07
-2.08
-6.17
-11.23
-17.11
-23.47
-29.77
-35.39
-39.85
-43.12
-45.86
-48.94
-52.83
-56.98
-59.95
-59.98
-55.98
-48.31
-38.63
-29.09
-21.14
-14.88
-9.36
-3.56
2.73
8.55
12.4
13.32
11.55
8.68
6.84
7.68
11.61
17.67
24.36
30.29
34.98
38.8
42.59
46.84
51.27
54.81
55.99
53.71
47.55
38.13
26.62
14.39
2.65
-7.55
-15.25
-19.59
-20.0
-16.5
-9.91
-1.78
6.14
12.42
16.42
18.35
18.84
18.52
17.73
16.64
15.28
13.71
12.01
10.13
7.89
5.21
2.21
-0.77
-3.16
-4.47
-4.49
-3.41
-1.74
-0.23
0.2
-1.18
-4.82
-10.47
-17.13
-23.1
-26.51
-26.1
-21.74
-14.57
-6.41
0.84
6.15
9.52
11.87
14.32
17.46
21.0
23.82
24.56
22.26
16.96
9.61
1.87
-4.59
-8.71
-10.33
-10.18
-9.44
-9.08
-9.36
-9.83
-9.72
-8.56
-6.61
-4.76
-4.12
-5.33
-8.2
-11.88
-15.44
-18.43
-20.98
-23.53
-26.2
-28.56
-29.66
-28.5
-24.74
-18.89
-12.17
-5.89
-0.96
2.56
5.27
7.98
11.15
14.61
17.69
19.58
19.8
18.47
16.17
13.56
10.99
8.27
4.93
0.48
-5.14
-11.62
-18.45
-25.13
-31.4
-37.2
-42.5
-47.29
-51.41
-54.67
-57.01
-58.57
-59.86
-61.59
-64.39
-68.39
-73.12
-77.49
-80.11
-79.6
-74.9
-65.52
-51.61
-33.96
-13.92
6.75
26.32
43.73
58.76
72.0
84.35
96.23
107.15
115.81
120.84
121.54
118.41
112.93
106.85
101.53
97.36
93.86
90.06
85.05
78.39
70.25
61.21
51.96
43.1
34.95
27.5
20.63
14.2
8.17
2.55
-2.71
-7.59
-12.03
-15.81
-18.46
-19.33
-17.81
-13.59
-6.87
1.6
10.71
19.13
25.69
29.59
30.7
29.48
26.89
23.95
21.46
19.62
18.05
16.07
13.06
8.86
3.86
-1.08
-4.97
-7.17
-7.64
-6.93
-5.98
-5.7
-6.58
-8.6
-11.34
-14.32
-17.19
-19.94
-22.72
-25.75
-29.2
-33.16
-37.6
-42.3
-46.68
-49.74
-50.14
-46.7
-38.88
-27.15
-12.94
1.82
15.24
26.07
33.76
38.49
40.77
41.17
40.19
38.19
35.48
32.48
29.69
27.63
26.63
26.71
27.56
28.6
29.22
28.94
27.57
25.21
22.12
18.58
14.83
10.95
6.94
2.64
-2.18
-7.82
-14.45
-22.05
-30.29
-38.65
-46.51
-53.14
-57.75
-59.44
-57.43
-51.32
-41.42
-28.89
-15.42
-2.78
7.75
15.6
20.83
23.78
24.74
23.87
21.35
17.64
13.53
10.02
7.86
7.33
7.99
8.82
8.68
6.62
2.31
-3.73
-10.33
-16.11
-19.99
-21.73
-22.18
-22.79
-25.0
-29.28
-34.86
-39.85
-42.12
-40.27
-34.27
-25.47
-15.98
-7.73
-1.69
2.27
4.99
7.28
9.34
10.62
10.29
7.81
3.32
-2.26
-7.72
-12.09
-14.94
-16.33
-16.55
-15.81
-14.22
-11.97
-9.26
-6.26
-3.09
0.27
3.62
6.3
7.2
5.33
0.3
-7.16
-15.52
-23.0
-28.24
-30.61
-30.07
-26.89
-21.44
-14.34
-6.45
1.12
7.41
11.91
14.65
15.96
16.03
14.75
11.9
7.43
1.7
-4.31
-9.45
-12.75
-13.85
-13.14
-11.64
-10.61
-11.0
-12.94
-15.62
-17.7
-18.12
-16.74
-14.62
-13.52
-14.93
-19.2
-25.3
-31.2
-34.68
-34.14
-29.04
-19.72
-7.19
7.03
21.11
33.34
42.46
48.08
50.8
51.68
51.52
50.32
47.32
41.89
34.27
25.84
18.69
14.43
13.31
14.07
14.89
14.36
12.29
9.58
7.22
5.63
4.34
2.51
-0.45
-4.57
-9.51
-14.95
-20.78
-26.98
-33.0
-37.39
-38.2
-33.86
-24.06
-10.25
4.87
18.25
27.75
32.71
33.86
32.73
30.75
28.68
26.52
23.86
20.38
16.16
11.92
8.51
6.57
6.32
7.39
9.16
10.72
11.09
9.24
4.38
-3.64
-14.11
-25.33
-35.33
-42.68
-47.05
-49.14
-49.99
-50.14
-49.21
-46.25
-40.56
-32.38
-22.95
-13.97
-6.78
-1.77
1.51
3.89
6.04
8.1
9.73
10.49
10.13
8.75
6.79
4.83
3.39
2.76
2.98
3.76
4.72
5.49
5.84
5.76
5.39
4.85
4.04
2.56
-0.2
-4.66
-10.78
-17.77
-24.27
-28.73
-29.92
-27.39
-21.65
-13.96
-5.92
1.04
6.05
8.93
10.01
9.79
8.65
6.71
3.93
0.2
-4.38
-9.43
-14.49
-19.18
-23.48
-27.59
-31.77
-36.1
-40.19
-43.48
-45.42
-45.93
-45.58
-45.37
-46.35
-49.04
-53.01
-56.91
-58.83
-57.01
-50.47
-39.37
-24.82
-8.49
7.96
23.28
36.71
47.7
55.68
59.98
60.09
56.13
48.91
40.02
31.23
23.95
18.81
15.62
13.71
12.4
11.29
10.29
9.36
8.24
6.3
2.64
-3.53
-12.49
-23.79
-36.14
-47.72
-56.47
-60.54
-58.79
-50.92
-37.54
-20.12
-0.76
18.16
34.3
45.8
51.62
51.84
47.78
41.59
35.62
31.67
30.39
31.26
33.0
34.29
34.4
33.42
31.88
30.28
28.58
26.1
21.89
15.06
5.4
-6.64
-19.87
-32.75
-43.64
-50.94
-53.5
-50.68
-42.6
-30.15
-14.84
1.5
17.1
30.52
40.83
47.6
50.78
50.65
47.71
42.63
36.18
29.03
21.76
14.7
7.98
1.65
-4.25
-9.59
-14.12
-17.61
-19.99
-21.39
-22.27
-23.38
-25.64
-29.9
-36.71
-45.95
-56.68
-67.03
-74.49
-76.44
-70.95
-57.32
-36.54
-11.05
15.95
41.28
62.45
78.13
87.98
92.4
92.11
87.93
80.78
71.77
62.24
53.51
46.5
41.27
37.12
32.8
27.13
19.8
11.42
3.21
-3.65
-8.73
-12.6
-16.64
-22.47
-31.29
-43.33
-57.7
-72.49
-85.03
-92.53
-92.8
-84.84
-69.11
-47.55
-22.97
1.7
24.06
42.62
56.82
66.76
72.92
75.95
76.53
75.17
72.22
67.93
62.53
56.29
49.63
43.06
36.83
30.91
24.77
17.63
8.81
-1.92
-14.14
-26.96
-39.15
-49.53
-57.16
-61.58
-62.97
-62.33
-61.32
-61.95
-65.7
-72.83
-81.89
-89.89
-93.15
-88.67
-75.21
-53.83
-27.55
-0.17
24.93
45.77
61.96
74.25
83.66
90.76
95.44
97.29
96.37
93.58
90.45
88.52
88.56
90.24
92.31
93.25
92.03
88.36
82.6
75.37
67.26
58.98
51.29
44.9
39.93
35.62
30.23
21.76
8.98
-7.74
-26.43
-44.04
-57.6
-65.12
-65.85
-60.13
-49.07
-34.3
-17.83
-2.03
10.95
19.74
24.25
25.49
24.85
23.41
21.63
19.57
17.26
15.02
13.49
13.08
13.52
13.96
13.44
11.43
8.21
4.7
1.94
0.43
0.07
0.3
0.47
0.25
-0.35
-1.16
-2.23
-3.76
-6.36
-10.57
-16.62
-24.16
-32.03
-38.63
-42.39
-42.3
-38.36
-31.65
-23.85
-16.63
-11.0
-7.13
-4.55
-2.64
-1.13
-0.17
-0.11
-1.22
-3.38
-6.13
-8.88
-11.22
-13.0
-14.36
-15.62
-17.1
-19.0
-21.43
-24.19
-26.84
-28.74
-29.23
-27.96
-25.12
-21.55
-18.42
-16.8
-17.17
-19.13
-21.48
-22.6
-21.09
-16.21
-8.14
2.14
13.24
23.81
32.75
39.42
43.58
45.19
44.33
41.22
36.22
30.09
23.84
18.45
14.57
12.17
10.54
8.72
6.03
2.53
-1.01
-3.59
-4.43
-3.3
-0.69
2.57
5.43
6.87
6.0
2.27
-4.36
-13.1
-22.41
-30.37
-35.26
-36.08
-32.9
-26.71
-19.04
-11.38
-4.95
-0.31
2.36
3.3
2.95
1.71
-0.07
-2.19
-4.4
-6.53
-8.43
-10.17
-11.99
-14.34
-17.66
-22.05
-27.14
-32.23
-36.6
-39.9
-42.3
-44.39
-46.72
-49.48
-52.4
-54.9
-56.54
-57.16
-56.85
-55.6
-53.08
-48.57
-41.42
-31.43
-19.23
-6.3
5.53
14.73
20.56
23.18
23.41
22.26
20.43
18.23
15.73
13.15
11.06
10.21
11.17
13.87
17.44
20.6
22.21
21.86
20.02
17.72
15.85
14.8
14.16
13.02
10.38
5.55
-1.68
-11.06
-21.89
-33.0
-42.79
-49.44
-51.34
-47.64
-38.74
-26.2
-12.35
0.58
11.19
19.12
24.89
29.23
32.54
34.68
35.17
33.62
30.11
25.23
19.88
14.78
10.32
6.47
2.99
-0.35
-3.63
-6.77
-9.65
-12.21
-14.4
-16.21
-17.64
-18.58
-18.92
-18.62
-17.84
-16.97
-16.68
-17.6
-19.91
-23.06
-25.78
-26.46
-23.92
-17.98
-9.56
-0.29
8.35
15.6
21.6
26.93
32.05
36.85
40.72
43.0
43.43
42.33
40.47
38.61
37.08
35.74
33.98
31.05
26.24
19.1
9.67
-1.37
-12.78
-22.96
-30.42
-34.26
-34.53
-32.14
-28.47
-24.8
-21.92
-20.02
-18.87
-18.12
-17.43
-16.49
-14.89
-12.13
-7.78
-1.78
5.41
12.83
19.23
23.57
25.23
24.23
21.08
16.6
11.6
6.85
2.88
0.05
-1.62
-2.38
-2.69
-3.11
-4.01
-5.51
-7.36
-9.27
-10.99
-12.5
-13.99
-15.69
-17.76
-20.17
-22.84
-25.65
-28.54
-31.38
-33.86
-35.41
-35.24
-32.53
-26.8
-18.03
-6.79
5.83
18.52
30.01
39.26
45.63
48.94
49.27
46.89
42.16
35.48
27.39
18.59
9.95
2.37
-3.36
-6.83
-8.07
-7.49
-5.79
-3.64
-1.44
0.58
2.32
3.47
3.48
1.61
-2.68
-9.45
-18.0
-27.05
-35.07
-40.63
-42.84
-41.43
-36.79
-29.71
-21.25
-12.42
-4.09
3.13
8.98
13.42
16.59
18.63
19.65
19.72
19.0
17.77
16.48
15.53
15.13
15.08
14.91
13.93
11.71
8.2
3.78
-1.07
-6.05
-11.19
-16.62
-22.29
-27.87
-32.71
-36.26
-38.24
-38.68
-37.62
-34.92
-30.31
-23.63
-15.21
-5.96
2.92
10.37
15.81
19.18
20.71
20.56
18.78
15.44
10.87
5.75
0.88
-3.08
-5.79
-7.28
-7.76
-7.41
-6.26
-4.32
-1.65
1.55
4.98
8.25
10.98
12.82
13.48
12.72
10.42
6.63
1.55
-4.41
-10.68
-16.51
-21.08
-23.57
-23.48
-20.66
-15.54
-8.92
-1.72
5.31
11.76
17.55
22.74
27.39
31.46
34.79
37.11
38.16
37.74
35.77
32.46
28.27
23.86
19.86
16.63
14.11
12.0
9.84
7.39
4.77
2.34
0.52
-0.38
-0.23
0.85
2.61
4.52
5.88
5.94
4.26
1.1
-2.5
-5.07
-5.35
-2.89
1.69
7.0
11.53
14.31
15.16
14.63
13.55
12.6
12.05
11.73
11.2
10.1
8.29
6.07
4.02
2.66
2.19
2.31
2.31
1.54
-0.23
-2.66
-5.02
-6.63
-7.22
-7.01
-6.55
-6.42
-7.06
-8.76
-11.65
-15.58
-19.93
-23.54
-24.91
-22.67
-16.26
-6.27
5.65
17.41
27.13
33.68
36.8
36.93
34.63
30.35
24.39
17.05
8.86
0.68
-6.54
-12.03
-15.49
-17.3
-18.2
-18.95
-19.86
-20.72
-20.97
-20.25
-18.72
-17.2
-16.84
-18.57
-22.64
-28.47
-34.82
-40.17
-43.22
-43.23
-40.14
-34.47
-27.01
-18.7
-10.41
-2.91
3.04
6.83
8.14
7.14
4.61
1.73
-0.23
-0.51
0.97
3.66
6.67
9.2
10.82
11.39
10.95
9.57
7.31
4.23
0.37
-4.18
-9.36
-15.21
-21.78
-29.02
-36.58
-43.76
-49.49
-52.54
-51.89
-47.12
-38.66
-27.66
-15.74
-4.38
5.44
13.43
19.85
25.1
29.33
32.37
33.84
33.54
31.66
28.79
25.74
23.1
21.01
19.19
17.22
14.85
12.37
10.39
9.5
9.83
10.81
11.42
10.63
7.92
3.27
-2.89
-10.09
-17.92
-25.92
-33.34
-39.12
-42.05
-41.32
-36.85
-29.35
-19.91
-9.58
1.02
11.68
22.28
32.47
41.54
48.66
53.11
54.64
53.47
50.21
45.64
40.49
35.25
30.16
25.2
20.23
15.13
9.92
4.8
0.11
-3.83
-6.86
-8.95
-10.3
-11.14
-11.76
-12.49
-13.71
-15.82
-19.11
-23.56
-28.61
-33.1
-35.54
-34.48
-29.1
-19.58
-7.08
6.64
19.73
30.72
38.82
43.84
46.03
45.92
44.25
41.88
39.67
38.34
38.2
39.11
40.54
41.81
42.39
41.97
40.52
38.17
35.15
31.64
27.81
23.78
19.62
15.36
10.98
6.53
2.08
-2.21
-6.14
-9.69
-12.99
-16.36
-20.17
-24.54
-29.16
-33.08
-34.97
-33.41
-27.53
-17.37
-4.0
10.79
24.96
36.86
45.49
50.49
51.97
50.14
45.37
38.13
29.14
19.33
9.67
0.93
-6.52
-12.55
-17.17
-20.26
-21.61
-21.11
-18.86
-15.41
-11.64
-8.46
-6.52
-5.99
-6.58
-7.69
-8.78
-9.55
-10.09
-10.81
-12.25
-14.86
-18.85
-24.12
-30.25
-36.61
-42.46
-47.02
-49.5
-49.25
-45.86
-39.44
-30.65
-20.66
-10.91
-2.78
2.85
5.69
6.08
4.69
2.28
-0.61
-3.84
-7.54
-11.92
-16.98
-22.36
-27.38
-31.32
-33.55
-33.86
-32.34
-29.23
-24.8
-19.41
-13.61
-8.11
-3.6
-0.38
1.9
4.05
6.88
10.55
14.28
16.58
15.94
11.63
4.08
-5.26
-14.45
-21.76
-26.08
-27.02
-24.84
-20.15
-13.82
-6.76
0.13
6.15
10.79
13.67
14.68
13.94
11.91
9.3
6.99
5.71
5.84
7.25
9.44
11.7
13.4
14.11
13.64
12.03
9.52
6.45
3.15
-0.19
-3.62
-7.4
-11.8
-16.91
-22.48
-27.86
-32.23
-34.83
-35.13
-32.95
-28.46
-22.08
-14.43
-6.23
1.73
8.73
14.21
17.85
19.55
19.4
17.68
14.76
11.23
7.79
5.19
3.99
4.37
6.08
8.46
10.77
12.4
13.11
13.02
12.4
11.61
10.83
10.07
9.17
7.75
5.34
1.54
-3.74
-10.04
-16.31
-21.16
-23.29
-21.96
-17.21
-9.89
-1.29
7.2
14.52
20.0
23.45
24.94
24.73
23.08
20.21
16.33
11.7
6.73
1.86
-2.6
-6.51
-9.96
-13.19
-16.37
-19.42
-22.04
-23.82
-24.43
-23.77
-22.0
-19.6
-17.23
-15.66
-15.57
-17.3
-20.68
-24.9
-28.63
-30.35
-28.97
-24.01
-15.9
-5.76
4.9
14.62
22.34
27.5
30.09
30.4
28.94
26.15
22.43
18.15
13.74
9.69
6.53
4.58
3.91
4.17
4.83
5.28
5.16
4.37
3.05
1.34
-0.81
-3.69
-7.64
-12.82
-19.09
-25.91
-32.5
-38.01
-41.72
-43.11
-41.97
-38.36
-32.65
-25.42
-17.4
-9.35
-1.85
4.78
10.44
15.12
18.6
20.37
19.87
16.73
11.26
4.44
-2.25
-7.4
-10.13
-10.43
-9.0
-6.8
-4.56
-2.47
-0.19
2.97
7.64
14.07
21.93
30.32
37.94
43.43
45.68
44.17
39.1
31.38
22.41
13.78
6.93
2.87
1.96
3.94
8.07
13.31
18.55
22.83
25.45
25.94
24.15
20.34
15.19
9.7
4.95
1.87
0.85
1.73
3.74
5.89
7.31
7.53
6.61
4.97
3.17
1.58
0.32
-0.8
-2.13
-4.02
-6.77
-10.55
-15.32
-20.66
-25.77
-29.5
-30.69
-28.53
-22.95
-14.68
-5.05
4.5
12.8
19.21
23.5
25.7
25.81
23.85
19.98
14.66
8.66
2.9
-1.89
-5.39
-7.85
-9.81
-11.79
-14.01
-16.24
-17.92
-18.48
-17.66
-15.71
-13.42
-11.89
-12.28
-15.39
-21.41
-29.66
-38.59
-46.11
-50.15
-49.28
-43.15
-32.59
-19.34
-5.52
6.93
16.6
22.76
25.29
24.56
21.27
16.3
10.69
5.38
1.11
-1.74
-3.2
-3.65
-3.71
-4.0
-4.96
-6.7
-9.07
-11.72
-14.32
-16.69
-18.84
-20.94
-23.22
-25.89
-29.05
-32.65
-36.45
-40.0
-42.67
-43.73
-42.47
-38.42
-31.54
-22.26
-11.49
-0.31
10.28
19.64
27.56
34.12
39.43
43.44
45.87
46.41
44.93
41.58
36.74
30.83
24.1
16.62
8.41
-0.42
-9.45
-18.02
-25.37
-30.9
-34.44
-36.33
-37.35
-38.52
-40.79
-44.74
-50.47
-57.4
-64.58
-70.77
-74.7
-75.16
-71.28
-62.74
-50.03
-34.37
-17.36
-0.5
15.21
29.27
41.48
51.57
59.12
63.78
65.48
64.83
62.86
60.7
59.21
58.73
59.08
59.77
60.12
59.43
57.18
53.23
47.91
41.91
35.9
30.25
24.92
19.59
13.99
8.16
2.48
-2.56
-6.46
-8.86
-9.46
-7.92
-3.85
2.91
12.12
23.01
34.45
45.33
54.85
62.7
68.91
73.53
76.37
76.94
74.75
69.78
62.75
55.0
48.05
42.86
39.41
36.79
33.74
29.38
23.68
17.4
11.61
7.12
4.0
1.57
-1.24
-5.41
-11.42
-19.06
-27.47
-35.5
-41.92
-45.77
-46.45
-43.85
-38.32
-30.63
-21.85
-13.22
-5.93
-0.85
1.57
1.43
-0.64
-3.69
-6.7
-8.78
-9.41
-8.52
-6.39
-3.5
-0.31
2.87
5.91
8.75
11.31
13.32
14.39
14.09
12.06
8.01
1.76
-6.75
-17.39
-29.59
-42.24
-53.67
-61.96
-65.53
-63.62
-56.64
-46.01
-33.64
-21.41
-10.64
-2.02
4.29
8.37
10.37
10.53
9.2
6.97
4.58
2.62
1.37
0.59
-0.3
-1.94
-4.71
-8.47
-12.67
-16.56
-19.51
-21.27
-22.06
-22.43
-23.05
-24.35
-26.27
-28.19
-29.08
-27.85
-23.83
-17.07
-8.47
0.56
8.57
14.4
17.43
17.46
14.65
9.44
2.57
-4.92
-11.83
-17.12
-20.18
-21.0
-20.11
-18.28
-16.22
-14.39
-12.92
-11.65
-10.34
-8.81
-7.15
-5.74
-5.27
-6.35
-9.3
-13.75
-18.7
-22.74
-24.56
-23.47
-19.64
-14.0
-7.82
-2.2
2.36
6.05
9.52
13.44
18.0
22.78
26.95
29.82
31.16
31.44
31.47
31.84
32.6
33.2
32.8
30.74
26.83
21.19
14.23
6.48
-1.25
-7.73
-11.47
-11.32
-7.3
-0.77
5.73
9.81
10.27
7.6
3.55
-0.02
-2.03
-2.43
-1.55
0.54
4.61
11.88
23.18
38.03
54.13
67.85
75.3
73.76
62.58
43.53
20.13
-3.48
-23.68
-38.41
-47.18
-50.78
-50.61
-48.38
-45.83
-44.85
-47.27
-54.26
-65.79
-80.25
-94.84
-106.37
-112.24
-111.09
-102.91
-88.79
-70.35
-49.46
-27.88
-7.31
10.92
26.05
38.04
47.57
55.59
62.83
69.23
73.99
76.0
74.74
70.71
65.44
61.03
58.95
59.51
61.47
62.75
61.35
56.38
48.46
39.16
30.25
22.68
16.33
10.42
4.13
-2.73
-9.62
-15.81
-20.69
-23.98
-25.54
-24.76
-20.54
-11.95
0.82
15.91
30.17
40.5
45.23
44.77
41.25
37.11
33.84
31.6
29.49
26.63
22.73
18.28
14.08
10.64
8.01
5.75
3.32
0.18
-4.01
-9.12
-14.7
-19.89
-23.75
-25.82
-26.21
-25.6
-24.84
-24.51
-24.8
-25.77
-27.56
-30.44
-34.35
-38.4
-40.8
-39.52
-33.52
-23.63
-12.59
-3.86
-0.03
-1.53
-6.6
-12.42
-16.5
-17.83
-16.88
-14.83
-12.56
-10.23
-7.42
-3.62
1.04
5.76
9.31
10.64
9.31
5.78
1.06
-3.66
-7.51
-10.17
-11.76
-12.76
-13.78
-15.48
-18.44
-22.92
-28.65
-34.69
-39.65
-42.12
-41.19
-36.84
-29.81
-21.2
-12.17
-3.61
3.94
10.38
15.96
21.0
25.61
29.42
31.51
30.76
26.72
19.85
11.62
3.84
-2.11
-5.87
-7.84
-8.68
-8.75
-7.9
-6.0
-3.29
-0.62
0.84
0.19
-2.68
-7.13
-12.03
-16.16
-18.89
-20.09
-20.0
-18.86
-16.66
-13.24
-8.63
-3.19
2.21
6.52
8.98
9.36
8.0
5.56
2.78
0.16
-1.88
-3.0
-3.01
-1.83
0.47
3.6
7.27
11.22
15.24
19.16
22.81
25.95
28.3
29.42
28.66
25.32
18.86
9.31
-2.4
-14.56
-25.03
-31.97
-34.4
-32.32
-26.62
-18.57
-9.41
-0.04
8.9
16.91
23.5
28.09
30.23
29.97
27.91
25.11
22.7
21.38
21.07
21.07
20.51
18.85
16.1
12.75
9.44
6.58
4.23
2.21
0.23
-1.92
-4.41
-7.31
-10.66
-14.38
-18.2
-21.57
-23.78
-24.12
-22.11
-17.67
-11.23
-3.59
4.26
11.39
17.11
21.06
23.22
23.78
23.16
21.88
20.45
19.32
18.71
18.6
18.71
18.66
18.17
17.07
15.37
13.17
10.61
7.87
5.25
3.03
1.36
0.12
-1.17
-3.21
-6.68
-11.91
-18.66
-26.14
-33.2
-38.6
-41.36
-40.96
-37.46
-31.54
-24.24
-16.73
-9.96
-4.54
-0.7
1.51
2.07
0.92
-1.84
-5.76
-9.97
-13.44
-15.32
-15.41
-14.28
-13.0
-12.67
-13.87
-16.4
-19.5
-22.23
-23.9
-24.34
-23.77
-22.64
-21.43
-20.68
-21.03
-22.99
-26.55
-30.79
-33.9
-33.68
-28.54
-18.32
-4.63
9.83
22.24
30.91
35.64
37.33
37.25
36.1
33.81
29.84
23.89
16.3
8.2
0.98
-4.27
-7.17
-8.18
-8.22
-8.18
-8.55
-9.34
-10.21
-10.8
-10.93
-10.57
-9.72
-8.42
-6.75
-5.06
-4.1
-4.75
-7.63
-12.46
-17.85
-21.73
-22.17
-18.25
-10.7
-1.33
7.82
15.52
21.69
27.12
32.5
37.95
42.76
45.71
45.96
43.14
37.57
30.13
21.97
14.32
8.39
5.01
4.25
5.29
6.65
6.83
5.2
2.3
-0.55
-1.88
-1.05
1.36
4.03
5.59
5.08
2.43
-1.69
-6.15
-9.7
-11.28
-10.24
-6.44
-0.34
7.27
15.56
23.64
31.09
37.57
42.67
45.93
46.9
45.36
41.57
36.19
30.12
24.27
19.25
15.27
12.21
9.73
7.36
4.85
2.21
-0.37
-2.65
-4.57
-6.38
-8.54
-11.52
-15.57
-20.56
-26.01
-31.28
-35.8
-39.29
-41.63
-42.71
-42.39
-40.39
-36.36
-30.26
-22.53
-14.04
-5.93
0.85
5.72
8.66
9.81
9.37
7.41
4.16
0.4
-2.71
-3.9
-2.59
0.67
4.32
6.56
6.07
2.55
-3.39
-10.81
-18.88
-26.97
-34.42
-40.23
-43.27
-42.93
-39.62
-35.04
-31.4
-30.32
-31.87
-34.45
-35.65
-33.48
-27.12
-17.08
-4.64
8.62
21.18
31.53
38.18
40.0
36.57
28.61
17.92
6.87
-2.44
-8.67
-11.49
-11.32
-8.94
-5.18
-0.95
2.82
5.28
5.93
4.89
2.77
0.37
-1.8
-3.63
-5.5
-7.83
-10.77
-14.05
-17.22
-19.94
-22.23
-24.38
-26.66
-28.91
-30.51
-30.61
-28.82
-25.37
-20.98
-16.2
-10.78
-3.79
5.78
18.0
31.48
43.67
52.04
55.16
53.5
48.98
43.96
40.09
37.7
36.0
33.83
30.46
25.95
21.11
17.06
14.67
14.26
15.57
17.83
20.12
21.45
20.91
17.72
11.45
2.21
-9.05
-20.65
-30.46
-36.64
-38.18
-35.34
-29.4
-22.17
-15.29
-9.76
-6.07
-4.26
-4.25
-5.8
-8.4
-11.21
-13.23
-13.59
-11.75
-7.66
-1.64
5.76
13.69
21.06
26.64
29.33
28.61
24.74
18.81
12.19
6.07
0.86
-3.85
-8.87
-14.91
-21.98
-29.19
-35.03
-37.9
-36.8
-31.87
-24.12
-15.06
-6.0
2.48
10.48
18.31
25.88
32.46
36.87
38.06
35.91
31.14
25.19
19.59
15.26
12.4
10.77
10.08
10.3
11.48
13.24
14.66
14.28
10.91
4.35
-4.25
-12.85
-19.48
-23.26
-24.72
-25.39
-26.86
-29.99
-34.67
-40.0
-44.8
-47.95
-48.65
-46.49
-41.56
-34.5
-26.45
-18.49
-11.47
-5.75
-1.23
2.38
5.33
7.82
10.08
12.53
15.61
19.61
24.34
29.1
32.98
35.21
35.45
33.94
31.26
28.03
24.7
21.41
18.15
14.93
11.79
8.73
5.61
2.08
-2.33
-7.81
-14.13
-20.43
-25.47
-28.02
-27.38
-23.59
-17.38
-9.88
-2.23
4.64
10.17
14.02
16.0
16.04
14.21
10.82
6.53
2.21
-1.22
-3.09
-3.18
-1.79
0.41
2.6
4.06
4.4
3.51
1.5
-1.38
-4.91
-8.99
-13.59
-18.67
-24.11
-29.59
-34.56
-38.33
-40.31
-40.11
-37.62
-33.04
-26.76
-19.31
-11.35
-3.64
3.05
8.05
10.93
11.65
10.6
8.53
6.46
5.42
6.15
8.79
12.86
17.25
20.7
22.15
21.2
18.08
13.42
7.94
2.14
-3.63
-9.17
-14.4
-19.45
-24.56
-29.98
-35.55
-40.48
-43.29
-42.33
-36.43
-25.48
-10.75
5.48
20.53
32.36
40.22
44.67
46.97
48.18
48.5
47.23
43.46
37.09
29.16
21.58
16.2
13.74
13.38
13.45
12.38
9.71
6.12
2.69
0.04
-2.0
-4.01
-6.29
-8.66
-10.77
-12.68
-15.25
-19.82
-27.09
-36.33
-45.22
-50.72
-50.49
-44.08
-33.02
-20.08
-7.78
2.52
10.76
17.51
23.28
27.98
31.05
32.01
30.76
27.82
24.16
20.82
18.74
18.54
20.41
24.02
28.5
32.54
34.83
34.42
31.11
25.48
18.63
11.71
5.64
0.8
-2.87
-5.77
-8.56
-11.92
-16.48
-22.54
-29.91
-37.69
-44.42
-48.4
-48.22
-43.31
-34.17
-22.27
-9.51
2.37
12.13
19.31
23.97
26.47
27.21
26.74
25.5
23.96
22.43
21.03
19.79
18.73
18.07
18.03
18.63
19.44
19.66
18.58
16.13
13.17
11.11
11.16
13.35
16.2
17.3
14.38
6.6
-5.1
-18.32
-30.42
-39.55
-45.12
-47.55
-47.51
-45.29
-40.65
-33.15
-22.77
-10.18
3.13
15.3
24.66
30.25
32.01
30.84
28.21
25.7
24.57
25.4
27.97
31.4
34.33
35.48
33.87
29.28
22.17
13.54
4.54
-3.88
-11.16
-17.09
-21.55
-24.47
-25.8
-25.62
-24.11
-21.64
-18.59
-15.36
-12.57
-10.85
-10.93
-13.27
-17.66
-22.94
-27.3
-28.8
-26.15
-19.32
-9.55
1.14
10.82
18.27
23.32
26.44
28.55
30.35
32.28
34.45
36.78
39.22
41.7
44.34
47.3
50.6
53.96
56.62
57.4
55.13
49.25
40.34
29.96
19.92
11.5
4.76
-1.28
-7.86
-15.56
-23.98
-31.99
-38.49
-43.14
-46.51
-49.49
-52.46
-54.76
-54.98
-51.63
-44.25
-33.86
-22.68
-13.05
-6.42
-2.97
-1.59
-0.97
-0.36
-0.02
-0.77
-3.28
-7.46
-12.3
-16.42
-18.62
-18.62
-16.92
-14.59
-12.69
-11.94
-12.35
-13.34
-14.07
-13.79
-12.26
-9.79
-7.28
-5.8
-6.23
-8.98
-13.83
-20.05
-26.49
-31.86
-34.95
-34.9
-31.38
-24.72
-15.78
-5.74
4.19
13.1
20.44
26.06
30.15
33.05
35.24
37.12
39.01
41.04
43.12
44.97
46.11
45.93
43.8
39.24
32.01
22.52
11.72
1.08
-7.88
-14.04
-17.02
-17.27
-15.76
-13.63
-11.79
-10.88
-11.22
-12.82
-15.44
-18.39
-20.53
-20.51
-17.21
-10.3
-0.54
10.3
20.24
27.72
32.13
33.79
33.45
31.68
28.72
24.78
20.42
16.72
14.82
15.3
17.61
20.22
21.32
19.71
15.32
9.16
2.61
-3.15
-7.61
-10.81
-13.08
-14.75
-16.14
-17.69
-19.97
-23.64
-29.01
-35.72
-42.64
-48.13
-50.37
-48.16
-41.32
-30.91
-18.89
-7.45
1.7
7.85
11.16
12.4
12.32
11.36
9.57
6.83
3.09
-1.44
-6.29
-10.92
-14.81
-17.65
-19.43
-20.37
-20.79
-20.97
-21.04
-21.02
-20.96
-20.91
-21.02
-21.33
-21.84
-22.54
-23.41
-24.34
-25.06
-24.99
-23.44
-19.89
-14.28
-7.12
0.61
7.94
14.19
19.1
22.68
24.91
25.64
24.64
21.95
18.0
13.79
10.39
8.69
9.07
11.25
14.42
17.61
19.99
21.11
20.89
19.42
16.94
13.8
10.2
6.13
1.21
-5.33
-14.26
-25.76
-38.96
-51.92
-62.07
-67.15
-66.06
-59.25
-48.55
-36.45
-25.31
-16.58
-10.35
-5.43
0.01
7.68
18.19
30.49
42.35
51.36
55.96
56.2
53.41
49.39
45.4
41.88
38.44
34.55
29.57
23.11
15.19
6.41
-1.86
-7.76
-9.64
-7.06
-1.19
5.31
9.46
9.19
4.19
-4.03
-12.96
-20.09
-23.66
-22.84
-17.78
-9.29
1.13
11.52
19.82
24.51
24.94
21.42
15.08
7.36
-0.32
-6.78
-11.2
-13.2
-12.97
-11.15
-8.89
-7.49
-7.93
-10.65
-15.36
-21.08
-26.53
-30.53
-32.36
-32.14
-30.72
-29.3
-28.92
-29.93
-31.82
-33.49
-33.7
-31.43
-26.26
-18.21
-7.56
5.07
18.77
32.35
44.49
54.16
60.9
64.86
66.4
65.79
62.82
57.13
48.58
37.53
25.07
12.53
1.25
-7.88
-14.47
-18.58
-20.57
-20.89
-20.01
-18.45
-16.89
-16.0
-16.6
-19.3
-24.38
-31.48
-39.46
-46.47
-50.28
-49.21
-42.68
-31.45
-17.47
-3.15
9.53
19.33
25.81
29.22
30.03
28.88
26.48
23.51
20.6
18.01
15.82
14.05
12.76
12.13
12.3
13.02
13.6
13.31
11.82
9.34
6.32
2.98
-1.07
-6.61
-14.11
-23.23
-32.65
-40.66
-45.94
-47.94
-46.8
-43.0
-36.83
-28.45
-18.18
-6.72
4.77
14.98
22.92
28.14
30.74
31.1
29.68
27.07
23.92
20.72
17.85
15.38
13.0
10.26
6.85
2.8
-1.52
-5.48
-8.6
-10.8
-12.37
-13.85
-15.64
-17.88
-20.62
-23.88
-27.74
-32.26
-37.15
-41.49
-43.97
-43.3
-38.79
-30.82
-20.79
-10.47
-1.32
5.98
11.5
15.59
18.32
19.37
18.25
14.93
10.19
5.6
2.97
3.37
6.56
11.07
14.86
16.27
14.83
11.25
6.96
3.31
0.89
-0.66
-2.32
-5.03
-9.1
-13.87
-18.0
-19.89
-18.29
-12.76
-3.83
7.2
18.7
29.17
37.7
43.94
47.79
49.19
48.18
44.95
40.13
34.64
29.32
24.41
19.32
13.01
4.72
-5.56
-16.83
-27.54
-36.25
-42.23
-45.49
-46.55
-46.1
-44.85
-43.55
-42.96
-43.55
-45.1
-46.45
-45.82
-41.48
-32.54
-19.43
-3.7
12.62
27.68
40.22
49.47
55.14
57.15
55.66
51.21
44.81
37.81
31.64
27.36
25.32
25.03
25.39
25.04
23.01
19.1
13.94
8.57
3.96
0.4
-2.6
-6.09
-11.1
-18.16
-26.93
-36.28
-44.57
-50.12
-51.65
-48.65
-41.5
-31.37
-19.87
-8.54
1.55
9.93
16.59
21.67
25.28
27.48
28.43
28.56
28.42
28.53
29.11
29.93
30.46
30.1
28.53
25.86
22.59
19.38
16.7
14.55
12.35
9.22
4.29
-2.88
-11.91
-21.67
-30.44
-36.42
-38.21
-35.3
-28.23
-18.37
-7.49
2.78
11.47
18.28
23.45
27.29
29.98
31.35
31.15
29.24
25.92
21.82
17.69
14.08
11.02
8.13
4.82
0.77
-3.83
-8.34
-11.88
-13.81
-14.04
-13.13
-12.06
-11.95
-13.68
-17.66
-23.7
-30.99
-38.12
-43.4
-45.18
-42.47
-35.33
-24.92
-13.26
-2.61
5.39
10.2
12.57
14.02
16.01
19.09
22.59
24.99
24.84
21.61
16.2
10.38
5.98
3.83
3.39
3.08
1.28
-2.75
-8.47
-14.33
-18.62
-20.21
-18.97
-15.71
-11.84
-9.01
-8.68
-11.94
-19.28
-30.23
-43.18
-55.44
-63.68
-64.93
-57.7
-42.67
-22.61
-1.39
17.4
31.54
40.53
45.06
46.33
45.15
42.02
37.34
31.68
25.98
21.2
17.86
15.7
13.85
11.56
8.55
5.41
3.22
2.92
4.71
7.97
11.69
15.01
17.76
20.19
22.68
25.17
26.99
27.09
24.65
19.55
12.42
4.32
-3.72
-10.76
-15.78
-17.74
-15.76
-9.5
0.26
11.66
22.49
30.9
36.13
38.55
39.22
39.4
39.87
40.73
41.55
41.76
41.02
39.62
38.36
38.27
40.14
43.76
47.73
49.74
47.42
39.35
25.79
8.67
-9.09
-24.66
-36.16
-43.07
-45.93
-46.09
-45.11
-44.21
-44.03
-44.46
-44.64
-43.42
-39.73
-33.2
-24.41
-14.68
-5.57
1.59
6.32
9.06
10.72
12.15
13.81
15.58
17.12
18.08
18.23
17.49
15.77
12.92
8.88
3.95
-1.25
-5.85
-9.09
-10.79
-11.52
-12.19
-13.61
-16.05
-19.26
-22.83
-26.56
-30.66
-35.3
-40.25
-44.65
-47.3
-47.3
-44.74
-40.64
-36.38
-32.75
-29.29
-24.54
-16.86
-5.58
8.54
23.28
36.04
44.66
48.18
46.94
42.29
35.89
29.13
22.86
17.22
11.9
6.46
0.73
-5.01
-10.21
-14.4
-17.51
-20.09
-23.01
-26.93
-31.94
-37.43
-42.36
-45.68
-46.68
-45.02
-40.72
-33.98
-25.25
-15.17
-4.63
5.4
14.14
21.03
25.82
28.35
28.62
26.82
23.42
19.22
15.25
12.45
11.37
12.16
14.51
17.88
21.7
25.44
28.62
30.82
31.71
31.13
29.12
25.89
21.69
16.56
10.41
3.16
-4.85
-12.78
-19.3
-23.06
-23.19
-19.69
-13.44
-5.87
1.57
7.84
12.42
15.28
16.64
16.62
15.32
12.8
9.21
4.85
0.48
-3.03
-4.9
-4.97
-3.96
-3.02
-3.24
-4.87
-7.2
-9.1
-9.82
-9.59
-9.41
-10.39
-13.04
-16.99
-21.28
-24.88
-27.0
-27.09
-24.55
-18.86
-10.15
0.43
10.41
16.93
18.05
13.63
5.55
-3.24
-10.05
-13.77
-14.95
-15.23
-16.03
-17.69
-19.29
-19.19
-16.47
-11.66
-6.7
-3.88
-4.51
-8.21
-13.05
-16.79
-18.17
-17.79
-17.62
-19.79
-25.39
-33.94
-43.71
-52.5
-58.46
-60.11
-56.53
-47.14
-32.14
-12.8
8.51
28.83
45.69
57.92
65.82
70.51
72.83
72.67
69.02
61.11
49.26
35.29
21.91
11.56
5.39
2.9
2.5
2.4
1.42
-0.76
-3.94
-7.91
-12.65
-18.35
-24.9
-31.74
-38.01
-42.84
-45.82
-47.01
-46.7
-44.98
-41.57
-35.91
-27.64
-17.13
-5.5
5.7
15.0
21.66
25.66
27.53
27.96
27.39
25.96
23.76
20.95
17.86
14.99
12.86
11.69
11.33
11.28
10.97
10.1
8.85
7.87
7.81
8.83
10.36
11.15
9.84
5.54
-1.63
-10.7
-20.0
-27.74
-32.52
-33.58
-30.94
-25.26
-17.65
-9.25
-1.0
6.49
12.99
18.33
22.27
24.42
24.36
21.91
17.46
11.91
6.63
3.05
2.39
5.29
11.6
20.27
29.52
37.17
41.33
40.95
36.19
28.23
18.7
8.95
-0.44
-9.65
-19.07
-28.64
-37.26
-43.02
-43.99
-39.09
-28.92
-15.74
-2.48
8.24
15.26
18.79
20.07
20.47
20.82
21.31
21.69
21.58
20.62
18.47
14.66
8.84
0.98
-8.3
-17.73
-25.74
-30.97
-32.75
-31.4
-28.0
-24.23
-21.71
-21.63
-24.36
-29.16
-34.33
-37.75
-37.59
-33.05
-24.63
-13.86
-2.65
7.59
16.18
23.14
28.8
33.29
36.48
38.08
37.97
36.44
34.08
31.53
29.28
27.51
26.19
25.19
24.31
23.35
22.13
20.52
18.5
15.92
12.57
8.19
2.62
-4.09
-11.64
-19.51
-26.99
-33.21
-37.09
-37.41
-33.18
-24.11
-11.07
3.85
18.01
29.2
36.62
41.28
45.47
51.56
60.93
73.34
87.13
99.94
109.62
114.68
114.53
109.45
100.8
91.34
85.16
86.92
99.93
124.46
156.67
189.57
215.27
227.71
224.24
205.55
174.28
133.4
85.46
32.91
-20.97
-71.74
-114.35
-144.34
-159.31
-159.66
-148.44
-130.73
-112.32
-97.94
-89.49
-85.21
-80.26
-69.2
-49.12
-21.69
7.18
30.05
41.82
42.21
35.63
28.51
25.73
28.2
33.04
35.63
32.39
22.56
8.26
-6.84
-19.61
-28.92
-35.87
-43.04
-52.6
-64.89
-78.33
-90.47
-99.77
-106.6
-112.89
-120.2
-127.83
-132.23
-128.6
-113.85
-89.22
-60.56
-36.08
-22.46
-21.84
-30.98
-43.17
-51.68
-52.53
-45.84
-35.02
-24.62
-18.09
-16.56
-18.83
-22.55
-25.76
-27.74
-28.89
-30.2
-32.09
-33.94
-34.61
-33.38
-30.82
-28.8
-29.59
-34.54
-43.19
-53.42
-62.55
-68.81
-72.18
-74.21
-76.82
-81.08
-86.45
-90.97
-92.04
-87.76
-77.62
-62.56
-44.73
-26.6
-10.38
2.53
11.65
17.15
19.62
19.84
18.83
17.84
18.38
21.73
28.37
37.61
47.67
56.4
62.26
65.09
65.81
65.75
65.78
66.05
66.18
65.83
65.0
63.9
62.59
60.69
57.61
52.96
46.92
40.22
33.67
27.76
22.43
17.28
11.99
6.5
1.15
-3.61
-7.3
-9.57
-10.25
-9.39
-7.4
-4.92
-2.72
-1.48
-1.67
-3.41
-6.57
-10.66
-15.07
-19.13
-22.29
-24.38
-25.72
-26.92
-28.65
-31.26
-34.48
-37.49
-39.1
-38.21
-34.13
-26.87
-17.21
-6.46
3.81
12.25
17.99
20.73
20.74
18.48
14.47
9.06
2.73
-3.86
-9.78
-14.15
-16.56
-17.39
-17.79
-18.88
-21.18
-24.08
-26.02
-25.3
-21.14
-14.17
-6.11
1.06
6.18
9.25
11.2
13.02
14.98
16.5
16.61
14.88
11.74
8.71
7.47
8.6
11.29
13.8
14.54
13.13
10.78
9.41
10.16
12.7
15.15
15.45
12.84
8.53
4.81
3.48
4.45
5.76
4.82
0.06
-7.99
-16.99
-24.18
-27.92
-28.47
-27.67
-27.94
-31.08
-37.53
-46.15
-54.91
-61.14
-62.26
-56.76
-44.71
-28.22
-10.84
3.59
12.44
15.43
14.41
12.46
12.17
14.25
17.52
19.88
19.85
17.62
14.99
14.04
16.01
20.26
24.74
27.14
26.16
22.17
16.77
11.63
7.43
3.6
-1.15
-7.74
-16.05
-24.84
-32.62
-38.63
-43.15
-47.28
-51.69
-55.83
-57.81
-55.29
-46.83
-32.9
-15.86
0.96
14.65
23.73
28.4
29.9
29.8
29.22
28.64
28.0
27.06
25.68
23.84
21.48
18.67
15.36
11.55
7.34
3.07
-0.71
-3.29
-4.07
-2.76
0.26
3.98
6.82
7.27
4.46
-1.22
-8.14
-13.94
-16.42
-14.51
-8.74
-1.01
6.27
11.23
13.14
12.51
10.59
8.63
7.46
7.31
8.08
9.5
11.16
12.62
13.25
12.47
9.93
5.72
0.42
-5.15
-10.24
-14.37
-17.26
-18.9
-19.41
-19.04
-18.41
-18.4
-19.88
-23.15
-27.77
-32.46
-35.45
-35.01
-29.96
-19.98
-5.72
11.3
29.06
45.53
59.13
69.07
75.45
79.05
80.84
81.58
81.54
80.6
78.42
74.79
69.83
63.98
58.27
54.22
53.69
58.13
67.75
80.99
94.66
104.85
108.31
103.72
91.71
74.04
52.17
26.47
-3.59
-38.37
-76.88
-116.27
-152.72
-182.57
-203.55
-215.1
-218.03
-213.99
-204.92
-192.75
-179.25
-165.69
-152.59
-139.71
-126.21
-111.26
-94.54
-76.53
-58.22
-40.69
-24.64
-10.38
2.14
12.91
21.58
27.59
30.43
30.09
27.4
24.06
22.2
23.72
29.42
38.7
49.91
61.08
70.73
78.51
85.02
91.23
97.5
103.23
107.08
107.66
104.47
98.16
90.14
81.79
73.83
66.37
59.41
53.28
48.57
45.42
42.88
39.1
32.2
21.62
8.59
-4.54
-15.77
-24.71
-32.43
-40.45
-49.22
-57.43
-62.55
-62.11
-55.01
-41.93
-24.68
-5.35
13.9
30.73
42.28
45.7
39.28
23.78
2.78
-18.46
-35.1
-44.77
-48.13
-48.03
-47.46
-47.95
-49.07
-49.15
-46.72
-41.48
-34.55
-27.88
-23.45
-22.85
-26.85
-35.25
-46.86
-59.45
-70.29
-76.72
-77.01
-70.76
-59.05
-43.84
-27.28
-11.16
3.13
14.52
21.99
24.71
22.41
15.72
6.45
-2.79
-9.33
-11.2
-8.03
-1.1
7.13
14.03
17.59
17.09
13.07
6.85
0.01
-6.17
-10.94
-13.98
-15.15
-14.39
-11.62
-7.02
-1.27
4.57
9.26
11.91
12.3
11.11
9.73
10.02
13.7
21.83
34.52
50.66
68.33
85.31
99.72
110.45
117.08
119.78
118.89
114.99
108.94
101.89
95.08
89.2
84.17
79.18
73.41
66.54
59.22
52.68
47.88
44.84
42.7
40.05
35.54
28.3
17.75
3.37
-15.17
-37.62
-62.54
-87.17
-107.67
-120.37
-123.03
-115.9
-101.73
-84.61
-68.41
-55.12
-44.42
-34.45
-23.45
-11.09
1.12
10.8
16.03
16.54
13.82
10.07
6.99
4.9
3.07
0.48
-3.05
-6.62
-8.67
-7.78
-3.53
3.12
10.13
15.43
17.71
17.04
14.58
11.67
8.96
5.95
1.27
-6.36
-17.23
-30.42
-43.98
-55.79
-64.05
-67.61
-65.97
-59.06
-47.37
-31.97
-14.59
2.53
17.24
28.11
34.73
37.78
38.57
38.42
38.26
38.38
38.54
38.31
37.35
35.65
33.44
31.05
28.65
26.02
22.7
18.16
12.18
4.95
-3.0
-11.05
-18.85
-26.46
-34.28
-42.75
-51.99
-61.56
-70.4
-77.0
-79.62
-76.82
-67.94
-53.45
-35.14
-15.69
2.17
16.42
26.38
32.58
36.06
37.64
37.64
36.08
33.2
29.75
26.98
25.99
27.21
30.19
33.82
36.99
39.02
39.74
39.34
38.01
35.87
32.95
29.31
25.05
20.18
14.58
8.08
0.58
-7.77
-16.53
-25.04
-32.52
-38.17
-41.26
-41.25
-37.94
-31.67
-23.26
-13.93
-4.95
2.63
8.1
11.0
11.05
8.29
3.29
-2.75
-8.2
-11.51
-11.95
-9.89
-6.65
-3.85
-2.62
-3.22
-4.97
-6.71
-7.21
-5.65
-1.94
3.3
8.86
13.27
15.33
14.43
10.77
5.3
-0.7
-5.91
-9.36
-10.47
-9.06
-5.26
0.56
7.84
15.86
23.77
30.69
35.78
38.36
38.03
34.91
29.65
23.27
16.82
11.03
6.11
1.86
-2.02
-5.78
-9.45
-12.96
-16.23
-19.14
-21.63
-23.7
-25.41
-27.04
-29.01
-31.54
-34.46
-36.9
-37.31
-33.8
-25.0
-10.87
7.11
26.2
43.42
56.64
65.29
70.17
72.58
73.2
71.45
65.94
55.55
40.57
23.09
6.17
-7.65
-17.5
-24.27
-29.58
-34.45
-38.55
-40.45
-38.77
-33.25
-25.22
-17.12
-11.49
-10.03
-13.0
-19.48
-27.72
-35.69
-41.52
-43.87
-42.03
-36.03
-26.49
-14.39
-1.04
12.14
23.58
31.77
35.7
35.34
31.85
27.3
23.78
22.56
23.57
25.72
27.46
27.49
25.12
20.23
13.28
5.05
-3.4
-10.91
-16.46
-19.87
-21.76
-23.49
-26.39
-31.03
-36.82
-42.31
-45.9
-46.57
-44.14
-38.98
-31.7
-23.09
-14.2
-6.38
-1.07
0.94
0.02
-2.1
-3.01
-0.85
4.66
12.04
18.74
22.37
21.83
17.51
10.77
3.2
-4.07
-10.44
-15.55
-19.15
-21.11
-21.71
-21.76
-22.52
-25.1
-29.87
-36.05
-41.93
-45.47
-45.16
-40.53
-32.33
-22.14
-11.69
-2.19
5.96
13.06
19.72
26.23
32.23
36.75
38.72
37.51
33.31
27.27
20.95
15.8
12.59
11.2
10.86
10.51
9.24
6.44
1.88
-4.33
-11.68
-19.36
-26.18
-30.89
-32.54
-30.88
-26.26
-19.33
-10.59
-0.13
12.15
26.12
40.75
54.08
63.81
68.16
66.66
60.25
50.88
40.77
31.69
24.73
20.37
18.81
19.88
23.11
27.51
31.72
34.24
33.91
30.19
23.41
14.71
5.38
-3.52
-11.43
-18.35
-24.4
-29.5
-33.15
-34.6
-33.31
-29.32
-23.21
-15.91
-8.26
-0.85
5.89
11.57
15.66
17.76
17.76
16.28
14.4
13.25
13.57
15.32
17.77
19.85
20.53
19.19
15.65
10.24
3.63
-3.32
-9.73
-15.05
-19.09
-22.24
-25.09
-28.0
-30.73
-32.44
-31.94
-28.39
-21.75
-12.88
-3.12
6.29
14.72
22.09
28.53
33.86
37.48
38.52
36.43
31.26
23.88
15.66
8.1
2.25
-1.48
-3.45
-4.63
-6.41
-9.97
-15.75
-23.16
-30.46
-35.39
-36.0
-31.61
-23.11
-12.63
-2.7
4.68
8.63
9.47
8.2
6.18
4.51
3.96
4.73
6.58
8.88
10.93
12.19
12.54
11.98
10.49
7.82
3.58
-2.34
-9.37
-16.11
-20.88
-22.69
-21.81
-19.76
-18.77
-20.65
-25.98
-33.84
-42.16
-48.53
-51.16
-49.47
-44.33
-37.76
-32.11
-29.24
-29.8
-33.06
-37.09
-39.63
-38.71
-33.2
-22.83
-8.12
9.73
28.73
46.21
59.27
65.64
64.5
56.84
45.15
32.54
21.54
13.55
8.55
5.69
3.82
2.09
0.1
-2.19
-4.62
-6.98
-8.93
-9.88
-9.17
-6.5
-2.15
2.75
6.67
8.23
6.79
2.69
-3.14
-9.69
-16.36
-23.0
-29.34
-34.5
-37.0
-35.33
-28.91
-18.75
-7.25
2.77
9.29
11.98
12.03
11.43
11.82
13.74
16.5
18.89
19.9
19.34
17.74
15.83
13.99
12.07
9.56
6.15
2.01
-2.05
-5.05
-6.25
-5.43
-3.02
0.1
2.89
4.4
3.87
1.01
-3.93
-10.06
-16.01
-20.25
-21.61
-19.67
-14.85
-8.16
-0.79
6.45
13.18
19.24
24.5
28.45
30.23
29.15
24.98
18.19
9.65
0.52
-8.11
-15.29
-20.19
-22.23
-21.33
-17.97
-13.2
-8.17
-3.74
-0.08
3.03
5.85
8.19
9.24
7.95
3.83
-2.74
-10.44
-17.54
-22.51
-24.5
-23.29
-19.27
-13.18
-6.0
1.01
6.5
9.49
9.92
8.99
8.81
11.34
17.19
24.99
31.69
34.09
30.59
21.85
10.45
-0.57
-9.34
-15.89
-21.42
-27.08
-32.65
-36.5
-36.62
-31.89
-22.98
-12.16
-2.07
5.42
9.94
12.33
14.12
16.53
20.15
24.93
30.32
35.57
39.91
42.71
43.85
43.79
43.5
43.88
44.99
45.73
44.22
38.59
28.18
14.19
-0.64
-13.09
-20.57
-22.23
-19.09
-13.73
-9.47
-9.45
-15.5
-27.53
-43.13
-58.46
-69.57
-74.35
-73.28
-69.24
-66.03
-66.37
-70.65
-76.84
-81.64
-82.12
-76.73
-65.74
-50.63
-33.65
-17.06
-2.76
8.31
16.21
21.9
26.49
30.31
32.63
31.87
26.81
17.59
6.29
-3.91
-10.25
-11.76
-9.73
-6.93
-6.29
-9.25
-15.67
-24.05
-32.79
-41.01
-48.79
-57.08
-66.93
-79.02
-93.3
-109.11
-124.96
-138.75
-148.08
-150.63
-145.0
-131.09
-110.19
-84.35
-55.71
-26.14
3.06
30.72
55.64
76.5
92.18
102.27
107.37
108.77
107.98
106.19
103.66
99.95
94.08
85.33
73.47
59.21
44.39
31.52
22.95
19.62
20.46
22.41
21.6
15.21
2.94
-12.51
-26.32
-33.53
-31.33
-20.28
-3.76
13.46
27.38
36.15
40.21
41.54
42.24
43.51
45.45
47.24
47.53
45.04
39.11
29.88
18.61
7.7
-0.04
-2.11
2.62
13.55
28.39
43.77
56.02
62.18
60.49
50.77
34.39
13.78
-8.17
-28.83
-46.0
-58.13
-64.02
-62.85
-54.48
-39.95
-21.67
-2.93
13.14
24.46
30.34
31.22
27.89
21.09
11.53
0.04
-12.21
-23.72
-33.23
-40.03
-44.23
-46.52
-47.78
-48.6
-49.09
-48.76
-46.77
-42.06
-33.74
-21.13
-3.87
18.25
45.37
77.53
114.29
154.4
195.55
234.69
268.61
294.6
310.96
317.09
313.33
300.72
280.88
255.82
227.79
198.99
171.15
145.26
121.52
99.65
79.03
58.94
38.62
17.39
-4.96
-27.77
-49.46
-68.14
-82.52
-92.87
-101.02
-109.64
-120.73
-134.55
-149.59
-163.56
-174.62
-181.98
-185.54
-184.94
-179.18
-167.1
-148.58
-125.47
-101.46
-80.76
-66.36
-58.58
-55.03
-52.02
-46.58
-37.83
-27.39
-18.11
-12.3
-10.39
-10.73
-10.59
-7.97
-2.94
2.28
4.4
1.05
-7.76
-19.48
-30.28
-37.02
-38.66
-36.53
-33.02
-30.08
-28.12
-25.83
-21.26
-13.34
-2.62
8.88
18.73
25.23
27.88
27.17
23.77
17.9
9.51
-0.9
-11.76
-20.59
-25.06
-24.55
-20.67
-16.53
-15.06
-17.44
-22.78
-28.84
-33.51
-35.87
-36.34
-35.87
-35.18
-34.54
-33.76
-32.54
-30.89
-28.85
-26.39
-23.23
-19.07
-13.77
-7.37
0.05
8.5
17.9
27.7
36.56
42.57
44.14
40.81
33.73
25.32
18.16
13.71
11.51
9.68
5.83
-1.3
-11.03
-20.66
-27.04
-28.07
-23.95
-16.94
-10.45
-7.4
-9.08
-15.06
-23.63
-32.75
-40.4
-44.89
-44.83
-39.26
-28.1
-12.38
5.82
24.07
40.26
53.29
63.01
69.91
74.52
77.22
78.39
78.51
77.99
76.89
74.66
70.25
62.68
51.91
38.96
25.82
14.35
5.67
-0.37
-4.79
-8.73
-12.74
-16.67
-20.19
-23.31
-26.7
-31.21
-37.14
-43.69
-49.05
-51.2
-48.88
-42.23
-32.65
-22.23
-12.7
-5.06
0.54
4.38
6.61
7.04
5.31
1.39
-4.01
-9.32
-12.67
-12.58
-8.84
-2.64
3.79
8.27
9.68
8.18
4.89
1.02
-2.82
-6.8
-11.47
-17.12
-23.46
-29.45
-33.78
-35.09
-32.57
-26.05
-16.11
-4.04
8.61
20.49
30.97
40.11
48.27
55.5
61.26
64.58
64.79
61.97
57.04
51.22
45.29
39.31
32.91
25.93
18.87
12.78
8.56
6.3
5.1
3.67
1.16
-2.39
-6.14
-9.15
-11.18
-12.7
-14.8
-18.58
-24.69
-33.17
-43.38
-54.03
-63.33
-69.39
-70.78
-67.17
-59.57
-49.86
-39.85
-30.37
-20.84
-9.98
3.04
17.6
31.41
41.55
45.88
44.19
38.21
30.8
24.43
20.3
18.3
17.66
17.65
17.97
18.4
18.25
16.36
11.49
3.22
-7.7
-19.61
-30.61
-39.64
-46.52
-51.75
-55.8
-58.65
-59.89
-59.14
-56.59
-53.01
-49.21
-45.39
-40.8
-34.01
-23.8
-9.9
6.37
22.36
34.94
41.78
42.12
37.13
29.33
21.5
15.77
13.17
13.79
17.03
21.89
27.08
31.1
32.65
31.2
27.05
21.31
15.36
10.18
6.14
3.17
1.06
-0.3
-1.14
-2.04
-3.76
-6.77
-10.54
-13.54
-13.76
-9.89
-2.1
7.96
18.13
26.73
33.26
38.06
41.62
43.82
43.89
40.9
34.43
24.97
13.86
2.89
-6.2
-11.98
-13.71
-11.46
-6.09
1.02
8.35
14.82
19.9
23.54
25.79
26.43
24.77
19.93
11.31
-0.68
-14.64
-28.47
-39.96
-47.63
-51.13
-51.03
-48.4
-44.17
-38.73
-32.09
-24.18
-15.35
-6.54
1.04
6.3
8.75
8.6
6.61
3.69
0.55
-2.38
-4.88
-6.83
-7.99
-8.15
-7.3
-5.86
-4.6
-4.37
-5.61
-8.01
-10.48
-11.79
-11.25
-9.14
-6.73
-5.67
-7.13
-11.35
-17.52
-24.1
-29.5
-32.31
-31.71
-27.49
-20.2
-11.08
-1.78
6.01
11.05
12.97
12.3
10.14
7.67
5.66
4.51
4.17
4.42
4.91
5.28
5.13
4.23
2.59
0.56
-1.11
-1.53
-0.08
3.4
8.2
12.98
16.17
16.46
13.5
8.08
1.86
-3.14
-5.29
-3.78
1.49
10.23
22.14
36.85
53.4
69.86
83.57
91.81
93.12
88.01
79.02
69.77
63.52
62.02
64.83
69.69
73.27
72.24
64.37
49.34
28.96
6.92
-12.27
-24.67
-28.15
-23.14
-12.72
-2.01
2.94
-3.18
-22.83
-53.91
-89.38
-118.92
-132.63
-125.54
-100.58
-68.04
-41.56
-32.14
-43.16
-68.91
-97.49
-116.44
-118.39
-103.77
-79.5
-54.62
-35.77
-24.46
-17.86
-11.76
-3.93
4.38
9.68
9.01
2.54
-6.1
-11.78
-10.92
-3.58
6.58
14.4
16.05
10.66
0.38
-10.91
-19.44
-22.79
-20.42
-13.39
-3.9
5.57
12.94
17.13
18.44
18.26
18.28
19.7
22.71
26.69
30.61
33.52
34.77
34.12
31.91
28.76
25.66
23.56
22.95
23.66
24.94
26.1
26.95
27.86
29.3
31.12
32.08
30.46
24.98
15.98
5.54
-3.36
-8.25
-8.39
-4.83
0.43
5.6
10.01
14.02
18.17
22.12
24.63
23.96
19.11
10.5
-0.04
-10.03
-17.7
-22.46
-24.93
-26.19
-27.05
-27.8
-28.33
-28.67
-29.21
-30.6
-33.2
-36.91
-40.97
-44.57
-47.21
-49.0
-50.4
-51.71
-52.78
-52.86
-50.94
-46.19
-38.23
-27.18
-13.63
1.45
16.66
30.21
40.24
45.19
44.46
38.76
30.04
20.86
13.51
9.24
7.92
8.28
8.53
7.2
3.72
-1.36
-6.63
-10.6
-12.43
-12.43
-11.86
-12.52
-15.86
-22.31
-31.27
-41.28
-50.7
-58.05
-62.26
-62.3
-57.34
-46.76
-30.85
-11.32
8.84
25.9
36.87
40.64
38.54
33.4
28.14
24.55
22.71
21.71
20.6
19.22
17.92
16.98
15.88
13.44
8.58
1.32
-6.87
-13.8
-17.97
-19.51
-20.18
-22.22
-26.78
-33.16
-39.11
-41.96
-40.02
-33.18
-22.79
-10.76
1.24
12.33
22.29
31.04
38.36
43.83
46.94
47.66
46.33
43.61
40.14
36.42
32.65
28.99
25.61
22.69
20.45
19.07
18.63
19.21
20.78
23.18
25.96
28.26
28.93
26.81
21.24
12.61
2.58
-6.52
-12.5
-14.11
-11.53
-5.98
0.91
7.88
14.3
20.06
24.94
28.37
29.48
27.62
22.97
16.63
10.2
5.04
1.84
0.6
0.82
1.87
3.22
4.63
6.07
7.77
9.94
12.54
15.11
16.8
16.6
13.7
7.88
-0.39
-9.92
-18.92
-25.34
-27.47
-24.39
-16.36
-5.02
7.13
17.65
24.99
28.93
30.29
30.0
28.47
25.25
19.43
10.28
-1.91
-15.67
-28.79
-38.98
-44.69
-45.87
-43.81
-40.51
-37.78
-36.4
-35.92
-35.26
-33.58
-31.05
-28.9
-28.64
-31.11
-35.62
-40.05
-41.72
-38.45
-29.6
-16.28
-0.69
14.81
28.57
39.99
49.22
56.65
62.54
66.79
69.2
69.77
68.75
66.51
63.27
58.96
53.3
46.1
37.67
28.92
21.19
15.82
13.67
14.8
18.44
23.15
27.3
29.45
28.77
25.25
19.53
12.73
6.32
1.66
-0.26
0.8
3.91
7.18
8.36
5.96
0.0
-7.57
-13.69
-15.62
-12.52
-6.03
0.29
2.81
-0.6
-9.65
-22.1
-34.91
-45.51
-52.59
-56.07
-56.62
-55.06
-51.93
-47.4
-41.57
-34.93
-28.5
-23.56
-21.09
-21.27
-23.43
-26.47
-29.34
-31.59
-33.16
-34.01
-33.52
-30.74
-24.79
-15.75
-4.72
6.52
16.48
24.31
29.78
32.79
32.92
29.65
23.11
14.53
6.12
0.26
-1.58
0.41
4.39
7.65
7.84
4.06
-2.81
-10.56
-16.61
-19.18
-18.04
-14.48
-10.57
-8.32
-8.86
-12.17
-17.37
-23.11
-27.87
-30.43
-29.93
-26.01
-19.0
-9.79
0.42
10.59
19.91
28.07
34.82
39.92
43.17
44.53
44.27
42.86
40.79
38.33
35.51
32.3
28.81
25.41
22.62
20.66
19.33
18.11
16.56
14.48
11.92
8.88
4.95
-0.61
-8.54
-18.84
-30.4
-41.08
-48.41
-50.66
-47.44
-39.88
-30.11
-20.29
-11.77
-4.91
0.62
5.28
9.06
11.43
11.68
9.46
5.14
-0.03
-4.54
-7.2
-7.52
-5.88
-3.27
-0.83
0.6
0.73
-0.13
-1.34
-2.18
-2.32
-2.1
-2.4
-4.35
-8.67
-15.22
-22.89
-29.94
-34.58
-35.61
-32.74
-26.64
-18.45
-9.64
-1.47
5.13
9.6
11.86
12.07
10.66
8.22
5.53
3.27
2.01
1.88
2.54
3.23
3.13
1.68
-1.09
-4.59
-7.99
-10.47
-11.53
-11.07
-9.26
-6.55
-3.72
-1.74
-1.5
-3.44
-7.03
-10.82
-12.9
-11.51
-5.99
3.05
13.79
23.95
31.46
35.12
34.68
30.72
24.34
16.67
8.74
1.3
-5.18
-10.33
-13.87
-15.6
-15.48
-13.8
-11.17
-8.33
-5.99
-4.79
-5.1
-6.86
-9.67
-12.79
-15.44
-17.28
-18.6
-20.27
-23.27
-27.93
-33.26
-37.04
-36.55
-29.72
-16.41
1.42
20.37
36.83
48.41
54.52
56.15
55.08
52.78
50.01
46.58
41.91
35.65
28.12
20.28
13.28
7.85
3.98
0.97
-1.89
-5.28
-9.56
-14.86
-21.19
-28.45
-36.24
-43.7
-49.69
-53.15
-53.41
-50.41
-44.46
-36.03
-25.56
-13.61
-1.28
9.74
17.78
21.93
22.78
22.03
21.47
21.96
23.11
23.77
22.96
20.51
17.06
13.43
9.94
6.06
1.08
-5.05
-11.19
-15.24
-15.36
-11.34
-5.3
-0.86
-1.44
-8.24
-19.39
-30.61
-37.36
-36.97
-29.77
-18.52
-6.53
3.89
12.36
19.42
25.4
29.63
30.71
27.6
20.46
11.09
2.1
-4.28
-7.08
-6.93
-5.37
-4.07
-3.95
-4.98
-6.15
-6.33
-4.94
-2.69
-1.55
-3.56
-9.73
-18.91
-27.97
-33.01
-31.41
-23.08
-10.7
1.65
10.34
13.56
11.66
6.51
0.3
-5.5
-10.14
-13.47
-15.54
-16.48
-16.57
-16.23
-15.74
-15.1
-14.09
-12.48
-10.39
-8.42
-7.3
-7.63
-9.46
-12.52
-16.49
-21.04
-25.76
-29.84
-31.98
-30.67
-24.99
-15.01
-2.14
11.66
24.56
35.6
44.71
52.24
58.44
63.01
65.34
64.69
60.75
53.77
44.55
34.14
23.44
13.12
3.56
-4.92
-12.05
-17.58
-21.45
-23.85
-25.38
-26.9
-29.34
-33.37
-39.07
-45.75
-51.85
-55.14
-53.25
-44.53
-29.07
-9.03
11.72
29.03
40.03
44.02
42.41
37.92
33.3
30.41
29.91
31.22
32.97
33.59
31.89
27.57
21.4
15.0
10.02
7.45
6.96
7.25
6.64
3.95
-1.12
-7.98
-15.61
-23.08
-29.65
-34.87
-38.48
-40.36
-40.55
-39.21
-36.58
-32.79
-28.03
-22.53
-16.69
-10.93
-5.42
0.15
6.28
13.54
21.98
30.97
39.29
45.67
49.24
49.68
47.33
42.83
37.14
31.31
26.39
23.09
21.43
20.73
19.8
17.28
12.51
5.81
-1.36
-6.88
-8.82
-6.37
-0.25
7.49
14.48
19.09
21.29
22.43
24.52
29.06
35.97
43.66
49.85
52.65
51.44
46.8
39.88
31.54
22.24
12.16
1.91
-7.39
-14.09
-16.8
-15.09
-9.79
-2.75
3.88
8.34
9.8
8.3
4.65
0.16
-3.62
-5.33
-4.22
-0.88
2.68
3.68
-0.07
-8.83
-20.41
-30.98
-36.97
-36.7
-31.19
-23.36
-16.49
-12.51
-11.32
-11.34
-10.77
-8.67
-5.49
-2.54
-0.84
-0.42
-0.27
0.88
3.69
7.53
11.03
12.68
12.05
10.09
8.63
9.16
11.92
15.72
18.66
19.21
16.9
12.25
6.13
-0.8
-8.22
-15.69
-22.44
-27.16
-28.52
-26.1
-20.67
-14.26
-9.34
-7.74
-9.95
-14.91
-20.59
-24.49
-24.7
-20.31
-11.82
-1.12
9.22
16.77
20.25
20.1
18.62
19.12
24.64
36.67
54.44
75.16
95.17
111.27
121.53
125.4
123.17
115.48
103.02
86.72
68.32
50.02
34.37
23.28
17.43
16.01
17.13
18.67
18.98
17.17
13.01
6.91
-0.06
-6.06
-8.87
-6.79
0.26
9.85
17.43
17.84
7.65
-13.29
-41.45
-71.29
-97.61
-117.47
-130.8
-139.52
-146.2
-152.61
-159.49
-166.85
-174.45
-182.28
-190.14
-196.98
-200.4
-197.34
-185.97
-167.44
-146.2
-128.11
-117.47
-114.62
-115.83
-115.26
-108.16
-92.94
-71.52
-47.66
-24.92
-5.26
10.89
23.74
33.44
39.78
42.72
42.62
40.29
36.7
32.79
29.61
28.09
28.52
30.4
32.51
33.72
33.92
34.38
37.29
44.36
55.37
67.69
77.12
79.75
73.89
61.2
46.18
34.29
29.55
32.75
41.12
49.74
53.67
50.11
39.55
25.29
11.74
2.58
-0.79
0.55
3.73
5.4
3.11
-3.78
-14.08
-25.18
-33.87
-37.54
-34.81
-25.98
-12.76
2.26
16.36
27.31
33.85
35.78
33.84
29.29
23.5
17.6
12.3
7.94
4.57
2.21
0.65
-0.7
-2.82
-6.66
-12.52
-19.46
-25.5
-28.35
-26.44
-19.64
-9.21
2.78
14.18
23.24
28.84
30.45
28.2
22.84
15.62
8.02
1.3
-3.61
-6.15
-5.82
-2.23
4.65
14.23
25.31
36.49
46.85
56.21
64.81
72.76
79.5
84.05
85.74
84.88
82.78
81.12
80.96
82.03
82.87
81.56
76.46
66.92
53.1
35.88
16.43
-3.89
-23.66
-41.44
-56.16
-67.41
-75.58
-81.6
-86.56
-91.27
-96.06
-100.71
-104.3
-105.29
-101.68
-91.43
-73.25
-47.04
-14.47
21.28
56.27
86.9
110.82
127.44
137.56
142.4
142.83
139.04
130.98
119.14
105.0
90.79
78.48
68.82
60.91
52.8
42.71
30.21
16.49
3.65
-6.41
-13.03
-16.95
-19.82
-23.35
-28.54
-35.56
-43.86
-52.76
-61.66
-70.11
-77.68
-83.68
-87.19
-87.41
-83.86
-76.74
-66.86
-55.4
-43.45
-31.82
-20.93
-11.08
-2.43
4.9
10.92
15.93
20.2
24.04
27.41
30.13
32.05
33.32
34.21
34.86
34.98
33.79
30.52
25.02
18.15
11.45
6.36
3.4
1.69
-0.07
-2.7
-5.62
-7.1
-5.36
0.1
8.03
16.11
22.24
25.71
27.2
27.95
28.79
29.38
28.65
25.53
19.97
12.94
6.16
1.37
-0.32
1.34
5.64
11.31
16.67
20.11
20.71
18.48
14.26
9.28
4.53
0.2
-4.09
-9.02
-15.05
-22.28
-30.2
-37.87
-44.1
-47.62
-47.49
-43.21
-35.21
-24.64
-13.29
-3.11
4.34
8.12
8.26
5.56
1.3
-3.14
-6.68
-8.76
-9.55
-9.6
-9.53
-9.79
-10.59
-12.09
-14.54
-18.24
-23.28
-29.42
-35.8
-41.32
-45.02
-46.53
-46.38
-45.72
-45.8
-47.08
-48.89
-49.55
-47.4
-41.75
-33.46
-24.6
-17.11
-11.93
-8.32
-4.49
1.13
8.8
17.26
24.68
29.52
31.41
31.12
29.86
28.48
27.34
26.28
25.11
23.88
22.68
21.59
20.41
18.49
15.14
9.71
2.13
-7.02
-16.44
-24.58
-30.05
-32.05
-30.73
-26.8
-21.26
-14.9
-8.06
-0.79
6.9
14.77
22.25
28.57
33.12
35.47
35.56
33.53
29.64
24.08
17.17
9.24
0.95
-6.79
-12.93
-16.45
-16.82
-14.25
-9.79
-5.01
-1.54
-0.58
-2.53
-6.93
-12.71
-18.37
-22.51
-24.01
-22.3
-17.48
-10.21
-1.54
7.47
15.92
23.3
29.18
33.23
35.17
34.87
32.74
29.65
26.72
24.8
24.06
23.8
22.9
20.35
15.78
9.7
3.18
-2.69
-7.36
-11.02
-14.56
-19.0
-25.01
-32.58
-40.77
-47.98
-52.46
-52.81
-48.48
-39.98
-28.75
-16.73
-5.73
2.99
9.08
12.88
15.07
16.17
16.18
14.76
11.54
6.65
0.98
-4.15
-7.57
-8.84
-8.46
-7.63
-7.52
-8.78
-11.39
-14.88
-18.75
-22.77
-26.85
-30.96
-34.97
-38.79
-42.62
-46.99
-52.48
-59.25
-66.63
-73.12
-76.87
-76.39
-71.12
-61.66
-49.36
-35.82
-22.36
-9.7
1.87
12.25
21.24
28.52
33.77
36.87
37.97
37.29
34.98
30.9
24.81
16.6
6.57
-4.54
-15.78
-26.28
-35.5
-43.26
-49.62
-54.81
-59.12
-62.82
-66.17
-69.08
-71.08
-71.34
-69.02
-63.65
-55.43
-45.04
-33.25
-20.52
-6.95
7.44
22.32
36.86
50.03
61.03
69.82
77.03
83.45
89.48
94.79
98.52
99.88
98.83
96.21
93.25
90.94
89.42
87.94
85.26
80.35
72.78
62.72
50.68
37.22
22.91
8.62
-4.2
-13.64
-17.79
-15.31
-6.09
8.8
27.22
46.52
63.93
76.99
83.8
83.35
75.69
61.87
43.78
23.92
5.03
-10.25
-19.83
-22.74
-19.51
-12.15
-3.6
3.29
6.62
5.94
2.04
-3.76
-10.19
-16.42
-21.98
-26.71
-30.73
-34.52
-38.87
-44.47
-51.45
-59.03
-65.71
-69.92
-70.64
-67.61
-61.23
-52.06
-40.56
-27.21
-12.78
1.28
13.06
20.64
22.9
19.96
13.22
4.91
-2.82
-8.52
-11.95
-13.87
-15.59
-18.23
-22.17
-26.92
-31.42
-34.67
-36.21
-36.26
-35.48
-34.55
-33.88
-33.54
-33.35
-33.01
-32.17
-30.37
-27.08
-21.81
-14.31
-4.8
6.13
17.57
28.47
37.73
44.29
47.22
46.0
40.84
32.85
23.85
15.84
10.18
7.19
6.01
5.15
3.21
-0.52
-5.92
-12.18
-18.35
-23.77
-28.21
-32.11
-36.32
-41.94
-49.82
-60.03
-71.41
-81.52
-87.14
-85.18
-73.87
-53.38
-25.92
4.85
34.92
60.9
80.76
93.78
100.34
101.35
97.79
90.61
80.74
69.3
57.6
46.93
38.19
31.51
26.32
21.65
16.78
11.6
6.53
2.13
-1.45
-4.77
-8.89
-14.97
-23.59
-34.49
-46.46
-57.6
-65.91
-69.79
-68.7
-63.32
-55.34
-46.61
-38.12
-29.55
-19.53
-6.78
8.85
25.79
41.52
53.89
62.39
68.36
74.04
80.98
88.86
95.62
98.79
97.03
91.01
83.01
75.41
69.16
63.17
54.96
42.14
24.08
2.56
-18.76
-35.73
-45.44
-47.0
-41.66
-31.83
-20.12
-8.6
1.48
9.48
15.07
18.05
18.29
15.82
10.86
3.84
-4.65
-13.78
-22.66
-30.42
-36.37
-40.19
-41.92
-41.91
-40.58
-38.35
-35.48
-32.22
-28.86
-25.87
-23.95
-23.73
-25.7
-29.79
-35.2
-40.33
-43.16
-41.87
-35.63
-25.12
-12.23
0.48
10.88
17.81
21.38
22.46
22.12
21.12
19.72
17.9
15.66
13.32
11.26
9.77
8.62
7.16
4.48
-0.12
-6.67
-14.41
-22.03
-28.22
-32.35
-34.75
-36.51
-38.97
-42.92
-48.29
-54.08
-58.63
-60.19
-57.35
-49.42
-36.6
-20.07
-1.75
16.12
31.45
42.83
49.79
52.72
52.51
50.02
45.95
40.74
34.84
28.93
23.96
20.87
20.31
22.16
25.54
29.05
31.25
31.19
28.76
24.57
19.47
14.12
8.6
2.47
-4.84
-13.58
-23.12
-32.03
-38.38
-40.36
-37.05
-28.73
-16.77
-3.08
10.45
22.41
31.96
38.63
42.12
42.43
39.96
35.68
31.11
27.69
26.21
26.47
27.36
27.61
26.3
23.28
18.97
13.87
8.22
1.98
-4.92
-12.29
-19.65
-26.37
-31.88
-35.83
-38.04
-38.29
-36.36
-32.11
-25.75
-17.9
-9.59
-1.93
4.21
8.26
10.06
9.74
7.69
4.41
0.59
-2.98
-5.55
-6.51
-5.68
-3.25
0.07
3.43
5.98
7.3
7.37
6.52
5.11
3.3
0.88
-2.63
-7.57
-13.86
-20.75
-26.84
-30.55
-30.56
-26.41
-18.7
-8.83
1.44
10.65
17.96
23.02
25.73
25.9
23.28
17.92
10.46
2.32
-4.75
-9.35
-10.96
-10.15
-8.28
-6.92
-7.2
-9.51
-13.47
-18.17
-22.53
-25.76
-27.57
-28.32
-28.73
-29.45
-30.66
-31.82
-31.79
-29.3
-23.43
-14.08
-2.04
11.2
23.9
34.45
41.79
45.45
45.61
42.88
38.0
31.59
24.23
16.4
8.68
1.77
-3.69
-7.44
-9.64
-10.92
-12.02
-13.46
-15.35
-17.28
-18.7
-19.19
-18.86
-18.4
-18.9
-21.39
-26.29
-33.08
-40.2
-45.37
-46.28
-41.41
-30.6
-15.21
2.3
19.16
33.06
42.67
47.67
48.43
45.7
40.31
33.17
25.39
18.29
13.0
10.27
9.84
10.73
11.38
10.46
7.36
2.42
-3.41
-9.06
-13.82
-17.56
-20.72
-24.01
-28.0
-32.84
-38.01
-42.28
-44.01
-41.64
-34.36
-22.5
-7.58
8.05
21.91
32.02
37.31
37.66
33.74
26.7
17.91
8.84
0.74
-5.54
-9.76
-12.17
-13.45
-14.36
-15.4
-16.75
-18.19
-19.32
-19.87
-19.87
-19.78
-20.34
-22.2
-25.58
-29.98
-34.25
-36.84
-36.23
-31.31
-21.71
-7.97
8.41
25.27
40.09
50.75
56.02
56.04
52.05
45.8
38.85
32.01
25.3
18.37
10.98
3.38
-3.79
-9.82
-14.27
-17.24
-19.26
-21.11
-23.56
-27.19
-32.36
-39.13
-47.21
-55.86
-63.79
-69.33
-70.69
-66.47
-56.18
-40.58
-21.7
-2.19
15.33
29.05
38.29
43.34
45.0
44.03
40.97
36.06
29.55
21.94
13.89
6.2
-0.51
-5.82
-9.58
-11.84
-12.87
-13.16
-13.33
-14.06
-15.95
-19.34
-24.24
-30.22
-36.33
-41.2
-43.21
-40.87
-33.3
-20.68
-4.38
13.31
29.74
42.71
50.95
54.4
53.76
50.14
44.52
37.56
29.52
20.65
11.3
2.14
-5.76
-11.44
-14.44
-15.12
-14.57
-14.26
-15.38
-18.53
-23.64
-30.25
-37.95
-46.35
-54.79
-61.96
-65.84
-64.21
-55.77
-41.02
-22.4
-3.42
12.8
24.71
32.51
37.54
41.05
43.42
44.19
42.72
38.98
33.84
28.56
24.02
20.29
16.62
12.13
6.63
0.98
-3.18
-4.25
-1.59
3.93
10.17
14.45
14.54
9.61
0.53
-10.34
-19.8
-24.74
-22.97
-13.9
1.31
19.9
38.37
53.52
63.36
67.73
67.79
65.26
61.31
56.2
49.45
40.64
30.11
19.12
9.43
2.5
-1.19
-2.18
-1.64
-0.69
0.05
0.52
1.02
1.8
2.86
3.83
4.13
3.08
-0.04
-5.84
-14.64
-26.05
-38.7
-50.21
-57.57
-58.02
-50.06
-34.11
-12.48
11.32
33.62
51.66
64.04
70.66
72.16
69.42
63.17
54.16
43.26
31.73
20.99
12.29
6.3
2.81
0.94
-0.53
-2.51
-5.28
-8.45
-11.33
-13.27
-14.09
-14.05
-13.62
-13.27
-13.23
-13.62
-14.47
-16.01
-18.62
-22.68
-28.2
-34.45
-39.84
-42.16
-39.3
-30.14
-15.21
3.22
21.86
37.53
48.28
53.9
55.45
54.36
51.62
47.44
41.59
34.08
25.61
17.44
10.91
6.79
4.85
3.93
2.51
-0.78
-6.53
-14.31
-22.85
-30.49
-35.85
-38.32
-38.16
-36.39
-34.24
-32.69
-32.11
-32.28
-32.53
-31.9
-29.34
-23.92
-15.15
-3.25
10.8
25.35
38.71
49.58
57.4
62.14
64.08
63.39
60.11
54.18
45.76
35.42
24.12
12.97
2.96
-5.5
-12.51
-18.59
-24.38
-30.3
-36.29
-41.81
-46.07
-48.56
-49.52
-50.15
-52.3
-57.57
-66.44
-77.66
-88.4
-95.1
-94.6
-85.46
-68.37
-45.94
-21.88
0.31
18.13
30.54
37.87
41.19
41.62
39.9
36.39
31.22
24.96
18.48
12.83
8.68
5.95
3.79
1.08
-2.99
-8.46
-14.58
-20.29
-24.74
-27.77
-29.92
-32.18
-35.55
-40.59
-47.32
-54.99
-62.51
-68.46
-71.74
-71.74
-68.34
-61.31
-50.25
-34.9
-15.86
4.73
23.42
36.62
42.47
41.97
38.72
37.14
40.15
47.78
57.33
65.17
68.86
68.2
64.89
60.83
56.94
52.67
46.84
38.78
28.98
18.88
9.76
1.76
-6.55
-16.98
-30.15
-44.08
-54.58
-56.87
-47.91
-28.39
-2.73
22.67
42.32
53.4
56.64
54.83
50.82
45.81
39.47
30.92
20.48
10.2
2.98
0.76
3.36
8.02
10.89
9.29
3.05
-5.23
-11.65
-12.86
-7.56
2.96
15.35
25.3
28.82
23.66
9.99
-9.4
-29.78
-46.15
-55.07
-55.67
-49.16
-37.58
-22.16
-3.15
19.04
42.43
63.05
75.98
77.85
68.74
52.21
33.48
17.2
5.63
-1.3
-5.1
-7.59
-10.04
-13.36
-17.81
-22.89
-27.04
-27.79
-23.02
-12.85
0.14
11.55
17.28
15.4
6.49
-7.29
-23.47
-39.97
-54.86
-66.0
-71.09
-68.93
-60.13
-47.24
-33.76
-22.18
-13.17
-6.05
0.04
4.98
7.45
6.16
0.77
-7.49
-16.57
-24.82
-31.59
-37.04
-41.85
-46.53
-51.18
-55.99
-61.34
-67.69
-75.61
-85.05
-95.09
-104.07
-110.06
-111.84
-109.76
-105.91
-103.33
-104.79
-111.53
-122.82
-136.68
-150.47
-161.56
-167.42
-165.74
-154.88
-134.34
-105.2
-70.13
-32.61
4.23
38.42
69.01
95.83
118.38
135.75
147.04
152.04
151.67
148.08
143.66
140.17
138.35
137.52
136.42
133.98
129.74
123.88
116.75
108.28
97.91
85.16
70.19
54.13
38.18
23.03
8.49
-5.83
-19.26
-29.4
-32.56
-25.72
-8.2
17.49
46.69
74.52
97.48
114.07
124.05
127.7
125.34
117.92
107.37
96.46
88.05
83.62
82.73
83.2
82.34
78.41
71.16
61.79
51.95
42.63
33.79
24.73
14.95
4.57
-5.79
-15.64
-25.02
-34.63
-44.97
-55.47
-64.19
-68.18
-64.78
-53.1
-34.73
-13.49
5.7
18.62
23.18
20.33
13.45
6.93
4.23
6.22
10.97
14.84
14.54
9.06
-0.13
-9.93
-17.4
-20.91
-20.43
-16.75
-10.61
-2.33
7.59
17.93
26.49
30.73
28.8
20.35
6.76
-9.38
-25.23
-38.49
-47.82
-52.77
-53.21
-49.11
-40.51
-27.73
-11.94
4.92
20.44
32.56
40.31
44.02
44.74
43.54
40.95
36.83
30.82
23.03
14.23
5.67
-1.51
-6.62
-9.86
-11.89
-13.67
-15.99
-19.16
-23.05
-27.05
-30.3
-32.08
-32.25
-31.37
-30.81
-32.05
-35.89
-41.83
-47.9
-51.47
-50.36
-43.81
-32.73
-19.2
-5.47
7.0
17.62
26.46
33.53
38.49
40.77
40.0
36.43
30.96
24.83
19.1
14.17
9.88
5.7
1.34
-3.17
-7.42
-11.04
-13.97
-16.69
-19.94
-24.39
-30.23
-37.11
-44.36
-51.38
-57.75
-63.14
-67.08
-68.73
-66.98
-60.95
-50.44
-36.26
-20.16
-4.38
9.04
18.8
24.59
26.98
26.91
25.35
22.87
19.66
15.77
11.22
6.19
0.91
-4.37
-9.49
-14.33
-18.84
-23.05
-27.12
-31.39
-36.34
-42.32
-49.42
-57.47
-66.12
-75.0
-83.72
-91.66
-97.88
-101.31
-101.07
-97.13
-90.22
-81.28
-70.68
-57.61
-40.32
-17.34
11.14
42.53
72.37
96.03
110.53
115.75
113.99
108.49
101.74
94.5
86.12
75.65
62.97
49.26
36.6
26.92
21.07
18.44
17.24
15.3
10.9
3.37
-6.74
-18.1
-29.11
-38.75
-46.92
-54.29
-61.61
-68.97
-75.27
-78.7
-77.66
-71.73
-62.09
-50.9
-40.01
-30.02
-20.15
-9.33
2.49
13.69
21.46
23.28
18.39
8.39
-3.26
-12.74
-17.27
-15.98
-9.77
-0.66
8.93
16.82
21.32
21.59
18.14
12.87
8.62
7.97
11.75
18.42
24.54
26.41
21.87
11.27
-2.87
-17.14
-28.51
-34.95
-35.26
-28.64
-14.8
5.38
29.12
51.71
67.83
73.45
67.58
52.75
33.91
16.37
4.06
-1.47
-0.99
3.5
9.61
15.31
19.18
20.37
18.64
14.4
8.87
3.82
0.94
1.0
3.52
6.96
9.67
10.89
11.2
12.28
15.77
22.26
30.68
38.74
44.09
45.56
43.67
40.03
36.27
32.91
29.07
23.25
14.52
3.56
-7.34
-15.25
-18.08
-15.71
-10.02
-3.99
-0.44
-1.0
-6.01
-14.86
-26.37
-39.07
-51.14
-60.71
-66.33
-67.73
-66.11
-63.65
-62.13
-61.55
-59.71
-53.16
-39.37
-18.51
6.14
29.64
47.75
58.84
64.25
66.89
69.35
72.46
75.25
76.15
74.19
69.76
64.26
59.2
55.28
52.26
49.17
44.86
38.49
29.73
18.99
7.53
-2.74
-9.9
-12.95
-12.56
-10.87
-10.35
-12.39
-16.63
-21.55
-25.94
-30.02
-35.19
-42.26
-49.39
-51.93
-44.53
-25.12
2.77
30.54
48.91
52.91
44.55
31.31
21.48
19.3
23.11
27.25
26.12
17.6
3.56
-11.94
-25.37
-35.27
-41.84
-45.44
-45.87
-42.54
-35.45
-25.87
-15.9
-7.44
-1.37
2.5
4.83
5.8
5.05
2.13
-2.58
-7.68
-11.19
-11.73
-9.23
-5.1
-1.37
0.42
0.02
-1.64
-3.09
-3.09
-1.33
1.61
4.5
6.01
5.23
2.03
-2.79
-7.51
-10.02
-8.63
-2.72
6.91
18.26
28.94
36.95
41.24
41.88
39.68
35.73
31.1
26.66
23.03
20.52
18.96
17.86
16.42
14.0
10.42
6.17
2.09
-1.08
-3.05
-4.16
-5.17
-6.72
-9.16
-12.26
-15.47
-18.26
-20.22
-21.11
-20.67
-18.46
-13.9
-6.52
3.75
16.29
29.99
43.52
55.79
65.95
73.4
77.53
77.72
73.53
65.18
53.84
41.53
30.59
22.8
18.72
17.61
17.82
17.68
16.16
13.19
9.29
5.03
0.58
-4.39
-10.34
-17.34
-24.77
-31.35
-35.52
-36.08
-32.68
-25.93
-17.22
-8.22
-0.29
5.78
9.88
12.21
12.95
12.11
9.48
4.92
-1.35
-8.5
-15.38
-20.88
-24.4
-26.11
-26.84
-27.71
-29.67
-33.14
-37.91
-43.41
-49.02
-54.32
-59.1
-63.28
-66.56
-68.28
-67.49
-63.11
-54.58
-42.13
-26.98
-11.04
3.88
16.77
27.71
37.43
46.64
55.19
62.1
65.97
66.12
63.06
58.15
52.77
47.2
40.71
32.36
22.19
11.87
4.15
1.43
4.06
9.63
13.76
12.04
2.17
-14.83
-34.79
-52.2
-62.5
-63.81
-57.28
-46.16
-33.92
-22.91
-13.71
-5.73
1.68
8.61
14.7
19.59
23.38
26.44
28.84
29.9
28.62
24.33
17.42
9.46
2.4
-2.48
-5.08
-6.33
-7.37
-8.97
-11.34
-14.53
-18.79
-24.6
-32.02
-40.05
-46.61
-49.04
-45.37
-35.24
-20.2
-3.33
12.06
23.37
29.47
30.61
28.14
23.69
18.64
13.82
9.48
5.5
1.58
-2.49
-6.76
-11.03
-14.98
-18.21
-20.44
-21.63
-22.03
-22.19
-22.94
-25.06
-29.09
-34.96
-41.81
-47.98
-51.44
-50.44
-44.17
-33.16
-19.17
-4.61
8.34
18.33
25.06
29.03
30.98
31.43
30.51
28.2
24.64
20.38
16.28
13.11
11.13
9.96
8.72
6.51
2.9
-1.9
-7.23
-12.38
-17.1
-21.68
-26.87
-33.27
-40.97
-49.13
-56.08
-59.81
-58.6
-51.67
-39.49
-23.62
-6.26
10.45
24.91
36.23
44.19
48.95
50.83
50.2
47.49
43.18
37.83
32.02
26.16
20.45
14.89
9.41
4.03
-0.98
-5.18
-8.12
-9.72
-10.44
-11.31
-13.47
-17.79
-24.31
-32.05
-39.23
-43.83
-44.28
-40.03
-31.79
-21.17
-10.1
-0.15
7.82
13.74
17.89
20.54
21.71
21.22
19.05
15.56
11.46
7.55
4.35
1.92
-0.04
-1.85
-3.6
-5.05
-5.87
-5.95
-5.58
-5.35
-5.93
-7.83
-11.3
-16.31
-22.52
-29.08
-34.58
-37.22
-35.42
-28.54
-17.35
-3.83
9.47
20.51
28.23
32.74
34.81
35.32
34.83
33.54
31.33
27.91
23.06
16.67
9.02
0.85
-6.86
-13.19
-17.71
-20.6
-22.57
-24.49
-26.87
-29.87
-33.36
-37.2
-41.19
-44.95
-47.58
-47.65
-43.59
-34.43
-20.37
-3.13
14.64
30.19
41.58
48.19
50.5
49.63
46.65
42.27
36.81
30.43
23.42
16.19
9.26
3.1
-1.98
-5.81
-8.4
-9.91
-10.68
-11.08
-11.61
-12.77
-15.15
-19.33
-25.59
-33.63
-42.33
-49.77
-53.73
-52.49
-45.41
-33.3
-18.22
-2.68
11.06
21.6
28.51
32.17
33.36
32.95
31.74
30.2
28.42
26.06
22.64
17.84
11.84
5.38
-0.44
-4.75
-7.24
-8.28
-8.73
-9.49
-11.19
-14.06
-18.07
-22.94
-28.05
-32.35
-34.36
-32.54
-25.84
-14.29
0.81
17.16
32.04
43.08
48.79
48.88
44.12
36.0
26.22
16.21
6.89
-1.36
-8.5
-14.53
-19.3
-22.57
-24.04
-23.61
-21.44
-17.98
-13.94
-10.19
-7.7
-7.28
-9.28
-13.28
-18.07
-21.84
-22.77
-19.6
-12.05
-0.93
12.08
24.94
35.73
43.11
46.5
46.09
42.6
37.01
30.21
22.88
15.53
8.61
2.62
-1.91
-4.61
-5.51
-5.08
-4.19
-3.79
-4.61
-7.03
-11.13
-16.82
-23.95
-32.2
-40.82
-48.41
-53.03
-52.74
-46.29
-33.8
-16.98
1.42
18.37
31.57
39.9
43.54
43.41
40.59
35.92
29.96
23.12
15.94
9.18
3.66
0.01
-1.64
-1.79
-1.35
-1.44
-2.92
-6.19
-11.24
-17.73
-25.33
-33.52
-41.52
-47.97
-51.06
-48.97
-40.75
-26.85
-9.37
8.55
23.63
33.58
37.67
36.73
32.6
27.29
22.18
17.68
13.31
8.29
2.08
-5.09
-12.29
-18.31
-22.26
-24.01
-24.2
-23.86
-23.92
-24.93
-27.02
-30.16
-34.2
-38.72
-42.8
-44.91
-43.34
-36.92
-25.64
-11.02
4.48
18.15
28.07
33.62
35.37
34.62
32.68
30.35
27.84
24.94
21.25
16.51
10.8
4.6
-1.34
-6.27
-9.74
-11.91
-13.53
-15.58
-18.96
-24.13
-31.04
-39.16
-47.69
-55.57
-61.53
-64.26
-62.54
-55.81
-44.4
-29.69
-13.76
1.26
13.75
23.0
29.21
33.13
35.61
37.21
38.03
37.76
36.02
32.61
27.84
22.46
17.45
13.53
10.96
9.45
8.42
7.31
5.72
3.27
-0.57
-6.56
-15.2
-26.16
-37.75
-47.05
-50.74
-46.55
-34.26
-16.05
4.19
22.46
35.92
43.64
46.4
45.85
43.47
40.1
35.95
31.07
25.8
20.87
17.13
14.98
14.18
13.81
12.81
10.55
7.27
4.07
2.3
2.86
5.52
8.86
10.79
9.44
3.88
-5.58
-17.61
-30.36
-41.89
-50.25
-53.73
-50.95
-41.44
-26.07
-7.13
12.22
29.0
41.54
49.82
55.03
58.5
60.78
61.35
59.14
53.46
44.64
34.06
23.62
14.81
8.19
3.4
-0.47
-4.21
-8.12
-11.99
-15.34
-17.82
-19.44
-20.61
-21.99
-24.26
-27.77
-32.45
-37.66
-42.2
-44.63
-43.57
-38.18
-28.51
-15.55
-0.93
13.49
26.13
35.96
42.55
45.91
46.33
44.16
39.95
34.4
28.4
22.84
18.43
15.48
13.94
13.36
12.97
11.96
9.55
5.39
-0.29
-6.71
-12.82
-17.78
-21.49
-24.74
-28.88
-35.19
-44.1
-54.71
-64.92
-72.05
-73.69
-68.43
-56.31
-38.67
-17.77
3.93
24.25
41.71
55.44
65.01
70.27
71.2
68.15
61.87
53.62
44.74
36.32
28.93
22.47
16.58
10.87
5.22
-0.2
-5.07
-9.14
-12.33
-14.74
-16.65
-18.49
-20.89
-24.6
-30.27
-38.06
-47.29
-56.29
-62.81
-64.68
-60.66
-50.99
-37.39
-22.42
-8.48
2.96
11.72
18.41
23.73
27.82
30.12
29.91
27.05
22.32
17.24
13.32
11.33
10.96
11.0
10.03
7.16
2.36
-3.68
-10.03
-15.95
-21.0
-25.08
-28.23
-30.77
-33.38
-37.04
-42.67
-50.45
-59.14
-66.09
-67.85
-61.56
-46.24
-23.59
2.44
27.06
46.3
58.33
63.57
64.02
61.95
58.87
55.18
50.5
44.5
37.45
30.44
24.96
22.29
22.81
25.92
30.24
34.14
36.21
35.53
31.65
24.6
14.77
2.79
-10.48
-24.17
-37.59
-50.43
-62.68
-74.57
-86.33
-97.87
-108.74
-118.15
-125.02
-128.28
-127.1
-121.09
-110.56
-96.47
-80.34
-63.95
-49.1
-37.6
-31.25
-31.78
-40.24
-56.54
-79.09
-105.07
-131.28
-154.95
-174.34
-188.39
-196.33
-197.55
-192.05
-180.97
-166.89
-153.18
-142.72
-137.12
-136.51
-140.01
-146.29
-153.63
-159.34
-159.61
-150.51
-129.95
-99.53
-64.64
-32.46
-8.54
5.86
14.24
22.68
36.56
58.14
86.11
116.95
147.05
174.11
197.3
216.47
231.28
240.85
244.08
240.55
230.96
217.16
201.5
186.25
172.84
161.58
151.95
143.09
134.4
125.98
118.48
112.72
109.12
107.38
106.43
104.92
101.62
95.96
88.16
79.1
69.92
61.5
53.93
46.41
37.6
26.35
12.59
-2.23
-15.38
-23.61
-24.47
-17.17
-2.91
15.71
35.63
54.3
70.21
82.81
92.09
98.16
100.98
100.46
96.76
90.5
82.69
74.51
66.86
60.14
54.24
48.83
43.65
38.74
34.28
30.44
27.19
24.34
21.67
19.03
16.35
13.57
10.63
7.59
4.69
2.24
0.24
-1.81
-4.68
-8.8
-13.46
-16.66
-15.75
-8.71
4.68
22.38
40.91
56.83
68.12
74.8
78.36
80.59
82.38
83.35
82.21
77.66
69.33
58.05
45.61
34.01
24.56
17.52
12.25
7.69
3.05
-1.81
-6.54
-10.59
-13.78
-16.56
-19.94
-24.95
-32.13
-41.27
-51.55
-61.9
-71.4
-79.29
-84.83
-86.99
-84.59
-76.71
-63.29
-45.45
-25.37
-5.63
11.53
24.76
33.62
38.17
38.72
35.62
29.41
21.04
11.87
3.25
-4.02
-10.09
-16.1
-23.52
-33.34
-45.34
-58.14
-69.72
-78.51
-84.09
-87.41
-90.37
-94.87
-102.16
-112.5
-125.1
-138.04
-148.36
-152.21
-145.71
-126.35
-94.41
-53.65
-10.61
27.49
55.21
70.67
75.66
74.25
70.68
67.7
66.13
65.57
65.36
65.36
65.79
66.81
68.1
68.86
68.26
65.8
61.45
55.46
47.94
38.76
27.63
14.26
-1.36
-18.76
-36.88
-53.9
-67.3
-74.45
-73.36
-63.55
-46.49
-25.32
-3.91
14.16
26.62
32.75
33.15
29.25
22.79
15.47
8.73
3.57
0.39
-1.05
-1.49
-1.9
-3.14
-5.69
-9.56
-14.31
-19.19
-23.42
-26.5
-28.38
-29.57
-30.97
-33.62
-38.23
-44.69
-51.86
-57.74
-60.04
-56.94
-47.69
-32.89
-14.15
6.37
26.54
44.72
59.89
71.47
79.39
83.91
85.58
85.2
83.53
81.05
77.82
73.54
67.71
59.86
49.8
37.73
24.29
10.54
-2.29
-13.06
-21.09
-26.46
-30.08
-33.46
-38.23
-45.44
-54.87
-64.77
-72.07
-73.26
-65.55
-48.04
-22.21
8.27
38.8
65.2
85.07
98.03
105.19
108.03
107.37
103.16
94.94
82.78
67.85
52.25
38.33
27.62
20.28
15.16
10.57
5.27
-1.02
-7.61
-13.43
-17.77
-20.78
-23.41
-27.02
-32.79
-41.36
-52.68
-66.19
-80.82
-95.13
-107.28
-115.07
-116.27
-109.23
-93.4
-69.89
-41.42
-11.75
15.26
36.69
51.24
59.26
62.23
61.93
59.63
55.9
50.85
44.65
38.0
32.06
27.92
25.86
25.2
24.49
22.35
17.89
11.08
2.38
-7.63
-18.68
-30.73
-43.73
-57.35
-70.95
-83.58
-94.29
-102.34
-107.15
-108.29
-105.35
-98.09
-86.71
-72.11
-55.92
-40.01
-25.78
-13.65
-3.0
7.39
18.28
29.14
37.96
41.95
38.81
27.9
10.83
-8.81
-26.83
-39.73
-45.88
-45.83
-41.86
-36.93
-33.44
-32.41
-33.65
-36.27
-39.65
-43.88
-49.27
-55.71
-62.13
-66.71
-67.64
-63.93
-55.89
-44.69
-31.69
-17.86
-3.67
10.8
25.33
39.44
52.35
63.18
71.12
75.41
75.5
71.18
63.09
52.69
41.9
32.26
24.29
17.31
10.04
1.73
-7.26
-15.24
-19.99
-19.89
-14.67
-5.54
5.66
17.15
27.9
37.23
44.13
47.07
44.52
36.14
23.61
10.41
0.72
-2.8
-0.07
6.46
13.24
17.62
19.31
20.35
23.64
31.13
42.66
56.1
68.64
78.0
83.17
84.14
81.34
74.94
64.91
51.72
36.68
22.05
10.34
3.02
-0.05
-0.63
-1.44
-4.7
-11.38
-20.79
-31.02
-39.7
-45.03
-46.4
-44.92
-42.72
-41.91
-43.44
-46.59
-49.27
-49.13
-44.61
-35.65
-23.7
-11.09
-0.23
7.11
9.99
8.54
3.74
-2.92
-9.62
-14.92
-18.01
-18.93
-18.45
-17.59
-17.06
-17.34
-18.55
-20.7
-23.74
-27.45
-31.07
-33.71
-34.55
-33.51
-31.4
-29.75
-29.96
-32.71
-37.74
-44.31
-51.86
-60.51
-70.78
-83.02
-96.63
-109.94
-120.61
-126.45
-126.2
-119.81
-108.02
-92.06
-73.31
-53.3
-33.89
-17.14
-5.0
1.3
1.52
-3.3
-11.24
-19.99
-27.28
-31.64
-32.54
-30.46
-26.21
-20.79
-14.87
-9.05
-4.05
-0.81
-0.3
-3.05
-8.76
-16.09
-23.18
-28.45
-31.41
-32.89
-34.46
-37.32
-40.98
-43.3
-41.7
-34.59
-22.23
-6.61
9.87
25.79
41.07
56.84
73.79
91.19
106.79
117.7
121.99
119.51
112.27
103.43
95.89
91.24
89.35
88.72
87.08
82.37
73.5
60.55
44.64
27.42
10.39
-5.28
-18.62
-28.84
-35.54
-38.6
-38.33
-35.48
-30.72
-24.52
-16.69
-6.6
6.08
21.11
37.05
51.34
61.12
64.37
60.73
51.57
39.66
28.28
19.95
15.57
14.53
15.05
15.31
14.27
12.23
10.25
9.22
9.09
8.75
6.53
1.28
-6.31
-13.94
-18.64
-18.38
-13.26
-5.72
0.67
2.75
-0.91
-9.87
-22.6
-37.04
-51.38
-64.12
-73.78
-79.03
-79.18
-74.56
-66.46
-56.6
-46.44
-36.39
-25.99
-14.36
-1.26
12.4
24.89
34.08
38.19
36.42
29.24
18.41
6.95
-1.36
-3.15
3.12
16.31
32.73
47.64
57.27
60.49
58.93
55.74
53.61
53.44
54.32
54.84
54.71
55.32
59.05
67.43
79.98
94.13
106.55
115.08
119.62
121.55
122.51
122.99
122.12
118.52
111.81
103.93
98.75
100.33
110.49
127.01
143.53
151.58
143.74
116.82
73.73
22.78
-25.21
-60.48
-77.68
-76.96
-62.49
-39.37
-10.85
22.27
60.21
101.41
140.86
170.65
182.98
173.82
145.41
105.41
63.6
27.57
-0.1
-21.93
-43.2
-68.63
-100.59
-139.04
-183.06
-231.89
-284.29
-336.77
-383.15
-416.13
-430.7
-427.47
-412.84
-395.83
-383.15
-375.44
-367.84
-353.45
-328.15
-292.98
-253.39
-215.72
-184.18
-160.08
-143.24
-133.74
-132.08
-138.05
-149.22
-160.8
-167.16
-164.3
-151.32
-130.45
-105.83
-81.23
-58.73
-38.28
-18.09
4.21
30.44
60.72
93.01
123.15
146.22
158.32
158.24
148.25
132.94
117.32
104.41
94.62
86.05
76.22
63.78
49.5
35.83
25.25
18.96
16.19
14.8
12.74
9.28
5.26
2.61
3.35
8.62
18.51
32.12
48.2
65.43
82.62
98.91
113.68
126.63
137.74
147.34
155.73
163.01
168.57
171.34
170.1
163.52
151.01
132.7
110.1
85.6
62.41
43.66
31.75
27.8
31.32
40.34
51.99
63.34
72.19
77.64
80.08
80.62
80.61
80.95
82.12
84.07
86.32
88.0
88.13
85.84
80.97
74.32
67.37
61.63
57.68
54.86
51.63
46.05
37.02
24.11
7.74
-11.36
-32.16
-53.08
-71.88
-85.87
-92.76
-91.78
-84.18
-72.75
-60.53
-49.25
-38.77
-27.67
-14.55
0.66
16.31
29.78
38.79
42.49
41.81
38.9
35.99
34.39
34.14
34.25
33.27
29.84
23.24
13.37
0.83
-13.34
-27.69
-40.6
-50.7
-56.96
-59.02
-57.17
-52.35
-45.86
-38.96
-32.45
-26.52
-20.68
-13.87
-5.08
6.19
19.3
32.5
43.28
49.61
50.98
48.47
44.53
41.91
42.11
44.82
48.14
49.25
45.27
34.45
16.47
-7.43
-34.68
-61.77
-84.86
-100.38
-105.83
-100.4
-85.1
-62.69
-37.26
-13.14
6.35
20.17
29.7
37.89
47.25
58.32
68.94
75.57
75.15
66.93
53.38
38.9
27.93
23.38
25.58
32.48
40.92
47.82
50.76
48.64
41.58
30.78
18.53
7.92
1.9
2.74
11.46
27.58
49.23
73.69
97.93
119.17
135.23
145.06
149.23
149.53
148.16
146.57
144.04
137.79
124.44
102.09
72.36
40.29
12.43
-6.28
-14.61
-15.51
-14.17
-15.26
-20.74
-29.23
-37.04
-40.56
-38.08
-30.6
-21.41
-14.57
-13.03
-17.39
-25.85
-35.27
-42.56
-45.72
-44.28
-38.86
-30.28
-19.42
-7.37
4.58
14.89
22.3
26.29
26.88
24.16
17.64
6.29
-10.76
-33.22
-59.11
-84.96
-106.8
-121.38
-126.9
-123.19
-111.43
-93.62
-72.09
-49.12
-26.81
-7.1
8.03
16.57
16.72
7.51
-10.41
-34.48
-60.63
-84.47
-102.52
-113.07
-116.33
-113.83
-107.83
-100.84
-95.42
-94.0
-98.29
-108.62
-123.31
-138.79
-150.53
-154.73
-149.61
-135.9
-116.21
-93.41
-69.37
-44.27
-17.09
13.12
46.08
79.46
109.1
130.25
139.39
135.79
122.25
104.47
89.06
80.9
81.2
87.4
94.71
98.96
98.67
95.4
92.23
91.46
93.41
96.48
98.7
99.06
98.17
97.47
98.15
100.47
103.53
105.9
106.09
102.95
95.73
84.18
68.64
50.17
30.22
10.17
-9.18
-27.82
-46.44
-66.08
-87.59
-111.28
-136.84
-163.02
-187.82
-208.53
-222.13
-225.75
-217.32
-196.2
-163.46
-121.99
-76.06
-30.54
10.18
43.0
66.56
81.06
87.77
88.2
83.82
75.83
65.28
53.21
40.55
28.08
16.31
5.59
-4.07
-13.06
-22.24
-33.04
-47.19
-66.18
-90.56
-119.2
-148.96
-174.99
-191.66
-194.04
-179.37
-147.77
-102.49
-49.02
6.25
57.43
100.11
131.92
152.44
162.53
163.73
157.57
145.36
128.38
108.19
86.85
66.76
49.84
36.61
25.76
14.44
-0.34
-20.02
-43.21
-65.86
-82.57
-89.03
-84.08
-70.12
-52.0
-34.62
-20.84
-10.52
-1.26
9.74
23.85
40.39
57.15
71.7
82.59
89.77
94.04
96.15
96.27
93.69
87.13
75.46
58.09
35.49
9.25
-18.15
-43.97
-65.83
-82.14
-92.18
-95.7
-92.72
-83.28
-67.7
-47.09
-23.57
-0.29
19.01
30.87
32.94
24.6
7.54
-14.43
-35.98
-51.67
-57.64
-52.78
-38.91
-19.84
0.2
17.81
30.96
38.56
40.07
35.39
25.23
11.84
-1.01
-8.99
-8.93
-0.3
14.49
31.16
45.42
54.5
57.71
55.78
49.76
40.07
26.42
8.31
-14.3
-40.84
-70.37
-101.76
-133.71
-164.23
-190.47
-209.01
-217.07
-213.81
-201.11
-182.94
-163.6
-145.68
-129.01
-111.38
-90.63
-66.73
-42.28
-21.19
-6.29
2.42
7.76
13.41
21.5
30.99
38.24
39.05
31.19
15.81
-2.99
-20.29
-33.02
-41.53
-49.58
-62.07
-82.21
-109.1
-137.17
-158.09
-164.11
-151.34
-121.13
-79.05
-31.9
15.04
59.46
101.23
140.41
175.61
203.84
222.01
228.65
224.85
213.61
198.33
181.15
162.25
140.63
115.43
87.09
57.48
29.16
3.81
-18.49
-39.0
-59.48
-80.87
-102.96
-124.52
-144.0
-159.85
-170.57
-174.49
-169.82
-155.24
-130.58
-97.34
-58.52
-17.8
21.47
56.72
86.07
108.08
121.61
126.18
122.55
113.03
101.05
90.14
82.72
79.35
78.56
77.4
72.82
62.59
46.39
26.32
6.61
-7.02
-8.94
4.74
34.58
77.14
125.56
171.38
207.05
228.0
233.74
227.2
213.15
196.26
179.95
166.03
154.93
146.25
138.85
131.08
121.24
108.21
92.23
74.88
58.42
44.61
33.73
24.36
14.08
0.85
-16.23
-36.68
-58.91
-80.85
-100.06
-113.9
-119.98
-116.94
-105.41
-88.29
-69.92
-54.56
-44.6
-39.86
-38.01
-36.08
-32.02
-25.44
-17.67
-10.79
-6.6
-5.59
-6.69
-7.76
-6.45
-1.66
5.58
12.23
14.5
9.76
-2.2
-18.95
-36.89
-52.84
-64.87
-71.96
-73.19
-67.36
-53.94
-34.46
-13.0
4.65
13.73
12.68
3.93
-7.52
-16.69
-21.04
-21.07
-19.14
-17.24
-15.36
-11.56
-3.34
10.21
27.05
42.3
49.98
45.39
27.25
-1.51
-34.9
-66.11
-89.9
-103.92
-108.43
-104.85
-94.48
-78.36
-58.06
-36.71
-18.86
-8.91
-8.83
-16.8
-27.59
-35.01
-34.8
-26.41
-12.96
1.07
12.33
20.25
26.93
35.26
46.64
59.52
69.56
71.39
60.91
37.2
2.98
-36.26
-74.22
-105.59
-127.23
-138.25
-139.75
-134.19
-125.07
-116.4
-111.71
-112.64
-118.13
-124.35
-125.91
-118.09
-98.77
-69.44
-34.57
0.14
29.62
51.0
64.07
70.62
73.45
75.18
77.35
80.0
81.77
80.35
73.06
57.72
33.71
2.75
-30.79
-60.75
-80.96
-87.43
-79.75
-61.27
-37.65
-14.73
3.58
16.31
24.95
32.14
40.18
49.97
60.98
71.62
80.08
84.71
84.2
77.71
64.79
45.68
21.54
-5.61
-33.49
-60.45
-86.06
-110.87
-135.34
-158.67
-178.07
-189.38
-188.39
-172.44
-141.44
-97.78
-45.65
10.05
64.28
112.44
150.99
178.0
193.71
200.45
201.66
200.41
198.12
194.33
187.5
176.18
160.2
140.89
120.45
100.89
83.38
68.22
55.36
44.88
36.97
31.54
27.71
23.85
17.94
8.3
-5.83
-24.27
-46.3
-71.06
-97.51
-123.91
-147.23
-163.41
-168.47
-160.45
-140.92
-114.8
-88.4
-66.73
-51.37
-40.35
-30.11
-18.11
-4.55
8.01
16.86
21.59
24.96
31.46
44.44
63.34
83.38
97.57
99.88
88.47
66.45
40.55
18.13
4.45
1.12
6.38
16.32
26.59
33.61
35.1
30.3
20.14
6.92
-6.18
-16.09
-21.0
-20.93
-17.51
-12.88
-8.49
-4.2
1.5
10.25
22.46
36.14
47.15
50.83
43.95
26.49
2.05
-23.41
-43.72
-54.63
-55.02
-46.78
-33.52
-19.18
-7.08
0.65
2.95
0.03
-6.54
-14.15
-19.41
-19.35
-12.35
1.14
18.48
35.41
47.21
49.99
41.65
22.55
-4.86
-37.12
-70.84
-103.64
-134.52
-163.06
-188.53
-209.78
-225.45
-235.0
-239.26
-239.62
-236.77
-229.52
-215.02
-190.39
-155.09
-111.86
-66.08
-23.18
13.92
45.75
74.94
103.56
130.91
153.28
165.85
165.41
152.32
130.46
105.27
81.5
61.55
45.23
30.65
15.6
-1.67
-21.71
-43.64
-65.19
-82.81
-92.35
-90.25
-74.5
-45.54
-6.44
37.71
81.02
118.09
145.23
160.9
165.71
161.85
152.36
140.35
128.39
118.14
110.14
103.76
97.37
88.66
75.33
55.76
29.85
-0.74
-32.92
-63.05
-87.81
-104.96
-113.41
-113.24
-105.26
-90.74
-71.04
-47.49
-21.33
6.23
33.62
59.01
80.37
96.03
105.12
107.93
105.84
100.7
94.16
87.07
79.36
70.46
59.99
48.08
35.44
22.91
11.15
0.51
-8.84
-16.54
-22.1
-25.26
-26.51
-27.2
-29.13
-33.72
-41.33
-51.15
-61.82
-72.1
-80.98
-87.35
-89.57
-85.72
-74.67
-57.26
-36.75
-17.88
-4.8
0.92
0.99
-0.51
0.66
6.8
17.28
29.0
38.07
41.51
38.48
30.41
20.03
10.05
1.96
-4.48
-10.75
-18.45
-28.33
-39.95
-52.28
-64.69
-77.69
-92.95
-111.97
-134.51
-157.4
-174.86
-180.2
-168.36
-138.15
-92.97
-39.85
13.09
59.2
95.05
120.6
137.93
149.48
156.61
159.4
157.22
149.96
138.72
125.67
113.25
102.82
93.86
83.95
69.99
49.88
23.92
-4.71
-30.92
-49.45
-57.04
-53.64
-42.46
-28.7
-17.4
-11.36
-10.09
-10.21
-7.3
1.85
17.73
37.95
58.7
76.57
89.94
99.08
104.98
108.14
107.75
102.2
90.17
71.64
48.42
23.57
0.47
-18.18
-30.95
-37.69
-39.39
-37.72
-34.37
-30.72
-27.51
-25.03
-23.54
-23.87
-27.59
-36.62
-52.28
-73.98
-98.44
-120.05
-132.52
-131.24
-115.43
-88.89
-58.73
-32.43
-14.66
-5.36
-0.07
7.63
22.68
45.97
74.11
101.21
121.68
132.37
132.93
124.71
109.27
87.55
60.12
28.22
-5.64
-37.8
-64.99
-85.96
-102.33
-118.04
-137.51
-163.32
-194.57
-226.78
-253.37
-267.9
-266.28
-247.91
-215.65
-174.57
-130.42
-88.21
-51.18
-20.77
2.85
19.91
30.38
33.98
30.68
21.67
9.65
-1.7
-9.2
-11.61
-10.3
-8.29
-8.49
-11.77
-16.47
-19.44
-17.8
-10.19
3.48
23.23
50.21
86.61
134.02
191.34
253.51
312.1
357.51
382.06
382.2
359.36
319.3
270.31
221.14
178.91
147.67
127.76
116.32
108.98
102.03
93.86
84.83
76.0
67.24
56.54
40.86
18.06
-11.27
-43.49
-73.44
-96.8
-111.77
-119.11
-120.87
-118.4
-111.62
-99.71
-82.82
-63.67
-47.65
-41.24
-49.18
-72.08
-105.51
-141.32
-170.49
-186.4
-186.83
-174.14
-153.52
-130.6
-109.35
-91.22
-75.89
-62.4
-50.46
-40.83
-34.73
-32.88
-34.91
-39.29
-44.28
-48.87
-53.37
-59.33
-68.49
-81.59
-97.45
-113.24
-125.5
-132.1
-133.58
-133.05
-134.51
-140.2
-148.64
-154.66
-151.55
-134.3
-102.21
-59.41
-12.92
30.18
65.26
90.85
107.63
116.9
119.57
116.04
106.89
93.24
76.71
58.84
40.84
23.78
9.14
-0.93
-3.82
2.64
19.06
43.85
73.46
103.2
128.52
146.1
154.39
153.64
145.69
133.44
120.1
108.33
99.55
93.61
89.25
84.85
79.29
72.37
64.69
57.22
50.94
46.58
44.65
45.44
49.01
54.95
62.46
70.46
77.85
83.71
87.28
87.75
84.25
76.03
63.01
46.03
26.91
7.74
-10.03
-26.43
-43.08
-62.62
-87.48
-118.69
-155.05
-193.01
-227.28
-252.16
-263.03
-257.47
-235.86
-200.87
-156.48
-106.57
-54.29
-2.01
47.92
92.41
127.44
148.93
153.98
142.2
116.02
80.05
40.14
2.38
-27.62
-45.49
-48.86
-38.28
-17.39
7.84
31.0
47.42
55.77
57.94
57.5
57.78
60.34
64.6
68.43
69.2
64.72
53.61
35.49
11.03
-17.94
-48.7
-77.97
-102.67
-120.77
-131.86
-137.22
-139.49
-141.67
-146.05
-153.33
-162.02
-168.9
-170.1
-162.32
-144.04
-115.97
-81.12
-44.05
-9.52
19.02
40.65
57.17
72.04
88.39
107.14
126.01
140.23
144.78
136.81
117.21
90.48
62.89
40.07
25.17
18.41
17.67
19.75
21.68
21.32
17.54
10.08
-0.83
-14.51
-30.07
-46.29
-61.7
-74.64
-83.46
-86.76
-84.06
-76.18
-65.12
-53.21
-41.77
-30.26
-16.25
3.24
29.68
61.6
94.73
123.47
143.22
152.05
150.89
142.71
131.06
118.99
108.5
100.49
94.77
90.21
84.93
77.0
65.19
49.57
31.21
11.51
-8.29
-27.39
-45.0
-59.6
-69.19
-72.14
-68.39
-60.08
-50.73
-43.35
-38.51
-33.73
-24.84
-8.68
14.68
41.28
64.92
79.84
82.91
74.37
57.05
34.92
11.71
-9.73
-27.62
-41.2
-50.81
-57.6
-63.15
-68.68
-74.5
-79.96
-83.76
-84.55
-81.16
-72.71
-58.77
-39.79
-17.72
3.86
20.36
28.03
26.0
17.26
7.89
4.64
11.99
30.07
54.54
78.41
94.85
99.57
92.06
75.33
54.35
34.42
19.74
12.63
13.33
20.26
30.61
41.09
48.83
51.95
49.71
42.37
30.84
16.46
0.69
-14.83
-28.59
-39.39
-47.1
-53.34
-61.39
-75.28
-97.57
-127.22
-158.55
-182.25
-188.43
-170.48
-128.17
-68.43
-3.32
53.99
93.59
111.72
111.31
99.79
85.6
74.91
69.7
68.07
66.12
60.44
49.61
34.38
16.42
-2.81
-22.45
-41.73
-59.05
-71.72
-76.81
-72.7
-60.1
-42.17
-22.92
-5.14
11.16
28.43
49.49
74.74
100.68
120.63
127.56
117.67
92.33
57.61
21.58
-9.14
-31.64
-46.65
-56.56
-63.15
-66.51
-65.54
-59.4
-48.53
-34.64
-19.71
-5.12
8.49
20.73
30.96
38.19
41.73
41.61
38.43
32.87
24.54
12.06
-6.0
-29.54
-55.93
-80.37
-97.58
-104.01
-99.4
-86.54
-69.64
-52.23
-35.79
-19.87
-3.17
15.14
34.82
54.64
72.81
87.66
97.79
102.21
100.65
93.82
83.33
71.13
58.62
45.87
31.79
14.99
-5.05
-26.95
-47.93
-64.81
-75.39
-79.05
-76.62
-69.78
-60.32
-49.71
-38.73
-27.54
-15.64
-2.32
12.98
30.17
48.33
65.98
81.57
94.02
102.93
108.63
111.79
113.08
112.72
110.4
105.44
97.4
86.74
75.2
65.35
59.41
57.93
59.09
59.48
55.82
46.87
34.24
21.49
11.97
6.95
4.73
1.63
-5.89
-19.29
-37.15
-55.96
-71.83
-82.22
-86.71
-86.58
-83.55
-78.59
-71.32
-60.47
-44.89
-24.57
-1.06
22.77
43.63
58.7
66.45
67.06
62.25
54.76
47.48
42.37
39.63
37.69
33.91
25.72
11.61
-8.27
-32.24
-57.42
-80.13
-96.45
-102.8
-96.93
-78.77
-50.81
-17.48
16.23
46.34
70.75
89.12
101.91
109.36
111.15
106.73
96.11
80.34
61.35
41.16
21.18
1.7
-17.94
-38.57
-60.35
-82.1
-101.3
-114.57
-118.75
-112.1
-94.99
-70.22
-42.4
-16.96
1.25
9.21
6.42
-5.07
-21.68
-39.6
-56.14
-70.24
-82.11
-92.45
-101.74
-110.07
-117.48
-124.32
-131.07
-137.61
-142.52
-143.03
-136.08
-119.93
-95.35
-65.44
-34.24
-5.03
20.64
42.64
61.18
75.72
84.88
87.21
82.19
70.74
54.76
36.15
15.89
-6.08
-30.59
-58.29
-88.99
-121.13
-151.56
-175.8
-188.86
-186.61
-167.42
-133.48
-90.83
-47.96
-13.36
7.19
12.18
4.4
-10.78
-27.79
-42.54
-52.89
-57.7
-55.9
-46.24
-28.18
-3.23
24.45
48.99
65.04
70.09
65.65
56.45
48.29
45.46
49.18
57.7
67.64
75.57
79.12
77.31
70.0
57.33
39.16
15.46
-13.07
-44.28
-74.49
-99.65
-116.93
-126.02
-129.36
-130.43
-131.47
-131.64
-126.99
-112.53
-85.11
-45.77
-0.02
44.13
79.37
101.81
112.06
114.15
113.44
114.29
118.5
125.02
130.8
132.19
126.34
112.05
89.67
60.37
25.28
-14.71
-58.51
-103.69
-145.76
-178.77
-197.01
-197.3
-180.54
-151.04
-114.43
-74.9
-33.74
10.06
57.69
108.22
157.58
199.58
228.24
240.09
235.44
217.9
192.64
164.4
136.1
108.37
80.38
51.01
20.21
-10.27
-36.78
-55.09
-62.16
-57.92
-45.98
-32.41
-23.34
-22.28
-28.9
-40.07
-52.67
-66.0
-82.54
-105.91
-137.66
-174.93
-211.02
-238.4
-252.62
-254.25
-247.52
-237.06
-224.54
-208.08
-183.99
-150.0
-107.07
-59.26
-11.58
32.22
70.89
104.97
135.37
162.09
183.92
199.18
206.73
206.41
198.97
185.57
167.27
145.05
120.04
94.07
69.82
50.48
39.15
37.81
46.36
62.23
80.88
97.17
106.99
108.69
103.36
94.2
84.95
78.23
74.55
72.42
69.58
64.08
55.42
44.54
33.11
22.57
13.38
4.69
-5.38
-19.11
-38.24
-62.71
-90.11
-115.66
-133.18
-136.8
-122.96
-91.99
-48.39
0.33
45.98
82.04
105.04
114.57
112.35
100.78
82.17
58.51
31.93
5.04
-19.25
-38.59
-52.16
-61.09
-68.09
-75.7
-85.24
-96.15
-106.27
-112.89
-113.31
-105.02
-85.71
-53.82
-9.71
43.04
97.25
143.76
174.31
184.31
173.91
147.16
109.83
67.64
25.43
-12.43
-41.83
-59.81
-65.91
-62.96
-56.16
-50.73
-49.33
-50.9
-51.79
-48.4
-39.66
-27.44
-15.44
-6.88
-2.89
-2.32
-3.06
-3.49
-3.22
-2.87
-2.9
-2.95
-2.18
-0.26
1.73
1.22
-4.42
-15.86
-30.55
-42.89
-46.41
-36.53
-12.57
22.04
61.26
98.95
130.56
153.67
167.38
171.4
165.71
150.88
128.67
102.23
75.49
51.89
33.36
19.88
9.88
1.18
-8.07
-18.89
-31.32
-44.58
-57.06
-66.53
-70.56
-67.53
-57.5
-42.77
-27.26
-15.0
-8.47
-7.41
-9.31
-11.18
-11.72
-12.38
-16.82
-28.92
-50.12
-78.21
-107.92
-133.07
-149.05
-154.1
-148.91
-135.16
-114.2
-87.32
-56.73
-26.54
-2.0
13.03
18.88
20.78
26.79
43.15
69.96
100.01
121.97
126.55
111.9
84.96
57.92
41.95
42.11
55.94
76.25
95.86
111.35
123.71
136.4
152.42
172.2
193.57
213.14
228.11
237.22
240.61
238.93
232.24
219.67
199.67
170.94
133.49
89.52
42.98
-1.68
-41.33
-75.39
-105.54
-134.48
-164.35
-195.71
-227.44
-257.03
-280.95
-294.62
-292.66
-270.16
-225.41
-162.47
-91.8
-27.73
16.63
34.64
28.54
7.64
-16.53
-35.56
-46.87
-52.81
-57.38
-62.95
-69.05
-73.26
-73.7
-70.71
-66.9
-65.34
-67.4
-71.64
-74.24
-70.8
-58.63
-38.15
-12.88
12.13
32.24
44.86
49.81
48.8
44.29
38.35
32.27
26.48
20.87
15.2
9.26
2.97
-3.57
-10.33
-17.34
-24.7
-32.31
-39.38
-44.23
-44.5
-37.98
-23.69
-2.67
21.95
45.97
65.39
77.71
82.32
80.05
72.42
60.94
46.83
31.08
14.63
-1.6
-16.87
-30.88
-43.92
-56.66
-69.61
-82.54
-94.03
-101.62
-102.58
-95.06
-78.96
-56.2
-30.26
-5.07
16.1
31.21
39.61
41.6
38.11
30.55
20.61
10.18
0.99
-5.9
-10.35
-13.15
-15.67
-19.2
-24.34
-30.59
-36.35
-39.42
-37.67
-29.83
-16.04
2.13
22.06
40.83
55.9
65.57
69.2
67.03
60.02
49.69
37.75
25.75
14.74
5.09
-3.43
-11.39
-19.28
-27.37
-35.71
-44.16
-52.46
-60.16
-66.38
-69.9
-69.31
-63.57
-52.48
-37.03
-19.23
-1.76
12.8
22.63
27.09
26.74
23.05
17.72
12.12
6.87
1.96
-2.92
-8.09
-13.7
-19.8
-26.46
-33.7
-41.12
-47.53
-50.85
-48.66
-39.17
-22.22
0.35
24.95
47.42
64.13
72.93
73.52
67.16
56.08
42.73
29.29
17.27
7.45
-0.12
-5.93
-10.97
-16.58
-24.06
-34.14
-46.37
-58.9
-68.6
-72.1
-67.03
-53.03
-32.17
-8.18
14.71
33.03
44.82
49.68
48.3
41.98
32.26
20.67
8.65
-2.61
-12.39
-20.46
-27.15
-33.07
-38.98
-45.49
-52.71
-60.01
-65.77
-67.63
-63.19
-51.14
-32.03
-8.64
14.87
34.27
46.71
51.4
49.32
42.34
32.09
19.51
5.0
-10.97
-27.37
-42.72
-55.63
-65.64
-73.53
-80.87
-89.01
-97.89
-105.43
-108.03
-101.9
-84.95
-57.93
-24.48
10.09
40.58
63.51
77.7
83.84
83.63
78.76
70.6
60.24
48.86
37.71
27.95
20.26
14.49
9.59
3.88
-4.31
-15.85
-29.99
-44.24
-54.76
-57.51
-49.67
-30.75
-2.94
29.33
60.51
85.35
99.9
102.2
92.48
73.19
48.5
23.34
2.06
-12.99
-22.16
-28.19
-34.78
-44.85
-59.14
-75.76
-90.91
-100.27
-100.18
-88.69
-65.89
-33.74
3.99
42.53
76.9
102.94
118.25
122.37
116.55
103.15
85.03
65.18
46.35
30.7
19.36
12.16
7.82
4.53
0.75
-4.26
-10.43
-17.15
-23.63
-28.99
-32.09
-31.51
-25.91
-14.57
1.96
21.71
41.77
59.13
71.48
77.77
78.17
73.81
66.28
57.23
47.97
39.21
31.12
23.45
15.78
7.62
-1.49
-11.81
-23.18
-34.64
-44.31
-49.71
-48.48
-39.5
-23.62
-3.51
17.11
34.74
47.27
54.07
55.73
53.23
47.3
38.46
27.31
14.93
2.95
-7.09
-14.31
-19.16
-23.24
-28.61
-36.64
-47.11
-57.98
-65.94
-67.65
-60.97
-45.88
-24.51
-0.35
22.9
42.38
56.71
65.79
70.18
70.48
66.98
59.77
49.05
35.83
21.77
8.92
-1.07
-7.74
-12.06
-15.97
-21.4
-29.24
-38.63
-47.25
-52.2
-51.13
-43.15
-28.99
-10.7
9.15
28.03
43.93
55.42
61.66
62.35
57.75
48.67
36.3
22.18
7.94
-4.91
-15.33
-22.86
-27.85
-31.43
-35.02
-39.85
-46.16
-53.09
-58.71
-60.75
-57.49
-48.47
-34.71
-18.34
-1.86
12.53
23.51
30.61
33.94
34.02
31.38
26.61
20.28
12.88
4.91
-3.12
-10.52
-16.47
-20.3
-22.0
-22.45
-23.2
-25.67
-30.15
-35.23
-38.29
-36.75
-29.39
-17.0
-2.13
12.21
23.77
31.74
36.4
38.44
38.21
35.72
30.85
24.03
16.27
8.72
2.3
-3.0
-7.88
-13.44
-20.59
-29.6
-39.77
-49.54
-56.72
-59.13
-55.38
-45.5
-31.12
-15.01
-0.06
11.8
20.17
25.87
29.99
33.06
34.64
33.86
30.26
24.45
17.93
12.35
8.7
6.7
5.1
2.31
-2.83
-10.54
-19.92
-29.24
-36.43
-39.71
-38.1
-31.79
-21.95
-10.39
1.08
11.15
19.14
24.77
27.9
28.25
25.67
20.41
13.32
5.74
-0.91
-5.79
-8.84
-10.77
-12.63
-15.55
-20.31
-27.1
-35.33
-43.46
-49.27
-50.33
-44.98
-32.97
-15.82
3.74
22.57
38.21
49.45
56.17
58.78
57.68
53.04
45.13
34.73
23.23
12.43
3.78
-2.08
-5.57
-7.95
-10.74
-15.09
-21.35
-28.98
-36.77
-43.05
-46.17
-44.93
-38.93
-28.71
-15.86
-2.56
9.15
17.84
23.02
24.86
23.8
20.2
14.23
6.29
-2.84
-11.85
-19.29
-24.24
-26.71
-27.64
-28.48
-30.61
-34.71
-40.62
-47.32
-53.22
-56.64
-56.23
-51.51
-43.11
-32.73
-22.44
-14.04
-8.4
-5.49
-4.81
-6.1
-9.51
-15.42
-23.8
-33.76
-43.88
-52.8
-59.85
-65.29
-69.84
-74.29
-79.03
-84.22
-90.15
-97.22
-105.59
-114.34
-121.31
-123.52
-118.46
-105.29
-85.27
-61.09
-35.67
-11.13
11.54
31.97
49.78
63.94
73.05
75.64
70.84
58.97
41.75
22.09
3.2
-12.27
-23.31
-30.72
-36.37
-41.72
-46.51
-48.53
-44.55
-32.13
-11.0
16.66
47.06
76.22
100.78
118.22
126.45
123.9
110.12
86.8
58.11
29.99
8.39
-2.86
-3.51
3.11
11.81
17.54
17.03
9.04
-6.47
-29.1
-58.09
-91.37
-124.63
-151.19
-163.64
-156.2
-127.25
-80.15
-22.38
36.96
89.74
130.6
157.36
170.17
170.68
161.25
144.61
123.82
101.96
81.84
65.37
53.27
44.8
38.36
32.04
24.54
15.73
6.64
-0.87
-4.8
-3.66
3.12
15.15
31.22
49.55
68.27
85.73
100.64
112.15
119.66
122.72
121.19
115.39
106.24
95.35
84.42
74.79
66.99
60.53
54.29
47.01
37.85
26.58
13.75
0.69
-10.36
-16.71
-15.8
-6.27
11.13
33.5
56.66
76.62
90.76
98.14
99.0
93.87
83.22
67.66
48.5
28.0
8.94
-6.48
-17.43
-24.53
-29.34
-33.29
-37.17
-41.01
-44.46
-47.11
-48.57
-48.29
-45.59
-39.98
-31.63
-21.51
-10.97
-1.24
7.17
14.42
20.72
25.85
28.78
28.05
22.61
12.51
-0.87
-15.2
-27.9
-37.09
-42.0
-43.2
-42.34
-41.57
-42.92
-47.52
-55.25
-64.7
-73.76
-80.29
-82.71
-80.16
-72.5
-60.17
-44.15
-25.96
-7.44
9.58
23.79
34.57
41.87
45.7
46.01
42.66
35.95
26.97
17.49
9.45
4.08
1.36
0.25
-0.89
-3.39
-7.84
-14.02
-21.0
-27.44
-31.87
-33.01
-30.05
-22.93
-12.43
0.13
13.1
24.85
33.91
38.92
38.76
32.87
21.61
6.55
-9.85
-24.79
-36.22
-43.29
-46.57
-47.6
-48.36
-50.62
-55.4
-62.68
-71.25
-78.93
-82.92
-80.65
-70.55
-52.52
-28.15
-0.29
27.67
52.48
71.49
83.0
86.42
82.29
72.06
57.76
41.81
26.52
13.93
5.28
0.72
-0.97
-2.14
-5.35
-12.48
-23.72
-37.57
-51.19
-61.64
-66.85
-66.09
-59.74
-48.69
-33.97
-16.59
2.29
21.08
37.85
50.81
58.66
60.93
58.1
51.26
41.8
31.17
20.81
12.08
6.1
3.56
4.39
7.57
11.25
13.27
11.89
6.6
-1.59
-10.42
-17.21
-19.75
-17.06
-9.55
1.21
12.92
23.14
29.95
32.23
30.06
24.52
17.35
10.22
4.29
-0.18
-3.58
-6.56
-9.64
-13.12
-17.13
-21.81
-27.33
-33.75
-40.89
-48.21
-54.82
-59.75
-62.03
-60.88
-55.92
-47.22
-35.45
-21.74
-7.52
5.9
17.57
26.86
33.5
37.18
37.71
35.01
29.47
22.08
14.29
7.6
2.99
0.53
-0.65
-2.01
-4.81
-9.58
-15.89
-22.63
-28.33
-31.65
-31.59
-27.71
-20.22
-10.18
0.82
10.97
18.9
24.06
26.79
27.83
27.53
25.53
20.88
12.74
1.38
-11.41
-22.64
-29.34
-29.81
-24.53
-15.95
-7.69
-3.07
-3.97
-10.2
-19.79
-29.78
-37.31
-40.53
-38.77
-32.36
-22.15
-9.26
5.01
19.05
30.92
38.79
41.48
39.07
32.93
25.19
17.88
12.13
7.87
4.32
0.64
-3.67
-8.53
-13.71
-19.26
-25.5
-32.87
-41.31
-50.02
-57.32
-61.16
-59.75
-52.19
-38.7
-20.58
0.08
21.01
40.01
55.31
65.57
70.03
68.62
61.96
51.33
38.4
24.96
12.47
1.98
-6.03
-11.61
-15.31
-18.0
-20.73
-24.41
-29.49
-35.73
-42.13
-47.2
-49.37
-47.56
-41.52
-31.99
-20.47
-8.77
1.51
9.21
13.76
15.04
13.15
8.37
1.18
-7.64
-16.88
-24.91
-30.0
-30.84
-27.17
-20.03
-11.48
-3.93
0.9
2.52
1.79
0.38
-0.15
0.97
3.44
6.2
8.17
8.97
9.1
9.67
11.76
15.7
20.73
25.32
27.91
27.61
24.58
19.94
15.05
10.93
8.03
6.38
5.86
6.31
7.24
7.63
6.02
1.05
-7.74
-19.24
-30.85
-39.2
-41.41
-36.13
-24.09
-7.93
8.83
22.85
32.09
36.23
36.39
34.49
32.17
30.21
28.36
25.89
22.15
17.2
11.79
6.97
3.45
1.12
-0.93
-3.95
-8.9
-15.77
-23.54
-30.45
-34.64
-34.74
-30.34
-21.95
-10.75
1.75
14.08
24.75
32.38
35.62
33.66
26.48
15.32
2.34
-10.06
-19.99
-26.56
-29.92
-30.77
-29.83
-27.85
-25.65
-24.31
-24.87
-27.6
-31.52
-34.34
-33.41
-27.01
-15.33
-0.48
14.45
26.73
34.98
39.28
40.4
39.03
35.41
29.45
21.3
11.75
2.11
-6.26
-12.57
-16.82
-19.71
-22.3
-25.65
-30.6
-37.7
-46.9
-57.39
-67.41
-74.63
-76.74
-72.32
-61.45
-45.63
-27.14
-8.25
9.23
24.14
35.66
43.1
46.01
44.39
39.06
31.63
24.0
17.68
13.26
10.22
7.27
2.81
-4.41
-14.79
-27.63
-41.0
-52.29
-58.76
-58.54
-51.21
-37.81
-20.45
-1.5
16.87
32.97
45.51
53.44
56.0
53.03
45.28
34.41
22.62
11.89
3.49
-2.37
-6.19
-8.91
-11.54
-14.98
-19.84
-26.3
-33.81
-41.05
-45.97
-46.18
-39.6
-25.21
-3.55
23.13
51.19
76.5
95.36
105.46
106.27
98.93
85.47
68.06
48.6
28.48
8.93
-8.81
-23.62
-34.81
-42.56
-47.96
-52.66
-58.25
-65.57
-74.28
-82.92
-89.33
-91.17
-86.74
-75.33
-57.63
-35.55
-11.82
10.78
30.14
45.24
56.3
64.23
70.15
74.95
79.13
82.85
86.08
88.56
89.77
88.74
84.19
74.82
60.02
40.41
18.26
-2.77
-18.31
-24.34
-18.19
0.75
30.59
67.11
104.44
136.14
156.67
162.68
153.71
131.97
101.47
66.6
31.04
-2.59
-32.61
-57.59
-76.22
-87.49
-91.35
-89.15
-83.53
-77.43
-72.8
-69.68
-66.21
-59.68
-47.95
-30.87
-10.58
8.96
23.55
30.11
27.71
17.68
2.85
-13.65
-29.55
-43.91
-57.14
-70.2
-83.74
-97.7
-111.15
-123.02
-132.73
-140.59
-147.63
-154.82
-162.15
-168.27
-170.8
-167.56
-157.76
-142.4
-123.61
-103.12
-81.24
-56.85
-28.75
2.43
33.47
59.38
75.72
80.96
77.43
70.2
64.54
63.35
66.23
70.4
72.79
71.71
67.29
60.39
51.36
39.51
24.1
5.92
-11.62
-23.19
-23.81
-11.46
11.61
39.57
65.59
84.5
94.31
95.98
91.74
83.69
73.27
61.47
49.43
38.55
30.09
24.65
21.97
21.26
21.62
22.22
22.17
20.4
15.87
8.26
-1.26
-9.87
-13.75
-9.61
3.77
24.71
48.99
71.44
87.75
96.0
96.93
92.87
86.21
78.26
68.88
57.24
42.99
26.7
10.02
-5.27
-18.07
-28.4
-37.13
-45.45
-54.17
-63.47
-72.89
-81.56
-88.17
-91.14
-88.79
-79.96
-64.57
-43.94
-20.35
3.6
25.68
44.45
58.92
68.42
72.26
70.04
62.23
50.61
38.0
27.41
20.78
18.09
17.43
15.72
10.19
-0.66
-16.52
-35.45
-54.44
-70.0
-78.92
-78.82
-68.75
-49.72
-24.55
2.73
28.14
48.78
63.3
71.52
73.72
70.03
60.42
45.4
26.5
6.53
-11.19
-23.99
-31.03
-33.64
-34.77
-37.74
-44.88
-56.43
-70.23
-82.28
-87.9
-83.29
-66.87
-39.82
-5.86
29.93
62.6
88.48
105.83
114.54
115.48
109.83
98.77
83.52
65.74
47.49
31.05
18.29
10.1
6.06
4.49
2.86
-1.45
-10.43
-24.59
-42.7
-61.67
-77.31
-85.46
-83.42
-70.94
-50.34
-25.71
-1.4
19.42
35.61
47.72
56.98
64.17
68.93
70.12
66.58
58.2
46.34
33.39
21.89
13.49
8.18
4.6
0.58
-5.66
-14.77
-25.99
-37.42
-46.53
-50.86
-48.48
-38.46
-21.21
1.4
26.23
49.46
67.64
78.58
81.84
78.6
70.73
59.83
46.71
31.49
14.39
-3.67
-20.73
-34.37
-42.63
-44.86
-42.2
-37.34
-33.71
-34.35
-40.63
-51.51
-63.44
-71.34
-70.42
-58.29
-36.13
-8.48
18.69
40.47
54.71
62.22
65.17
65.34
62.95
57.02
46.8
33.03
18.22
5.61
-2.36
-5.24
-4.71
-3.73
-5.09
-10.42
-19.81
-32.17
-45.95
-59.62
-72.0
-81.99
-88.2
-88.86
-82.21
-67.21
-44.42
-16.18
13.76
41.27
62.92
76.77
82.42
80.57
72.5
59.68
43.83
26.88
10.92
-2.27
-11.66
-17.36
-20.4
-22.37
-24.71
-28.27
-33.08
-38.45
-43.12
-45.41
-43.67
-36.49
-23.5
-5.8
13.97
32.34
46.13
53.67
55.12
51.95
45.93
38.28
29.39
19.42
9.1
-0.03
-5.94
-7.26
-4.11
1.68
7.3
10.01
8.15
1.58
-8.52
-20.1
-30.81
-38.45
-41.42
-38.99
-31.57
-20.38
-7.2
6.23
18.4
28.07
34.13
35.56
31.77
22.9
10.22
-4.08
-17.51
-28.14
-35.22
-39.24
-41.5
-43.48
-46.29
-50.34
-55.4
-60.52
-64.17
-64.49
-59.65
-48.49
-31.07
-9.02
14.83
37.25
55.53
68.15
74.85
76.32
73.51
67.27
58.22
46.94
34.24
21.24
9.35
-0.08
-6.32
-9.62
-11.31
-13.54
-18.27
-26.34
-36.89
-47.38
-54.64
-56.1
-51.04
-40.68
-27.68
-14.89
-4.39
2.79
6.8
8.16
7.52
5.33
2.0
-2.06
-6.3
-9.97
-12.41
-13.02
-11.7
-8.92
-5.86
-4.12
-5.36
-10.49
-19.12
-29.27
-37.68
-40.92
-36.53
-24.07
-5.39
16.06
36.33
52.23
61.97
65.13
62.18
53.82
40.8
24.02
4.94
-14.32
-31.37
-44.34
-52.65
-57.24
-60.3
-64.31
-71.0
-80.75
-92.33
-103.23
-110.29
-110.4
-101.26
-82.03
-53.68
-19.01
17.92
52.57
80.9
100.12
109.01
107.88
98.23
82.55
63.81
44.88
28.03
14.47
4.27
-3.3
-9.43
-15.24
-21.82
-29.96
-40.01
-51.42
-62.53
-70.67
-73.09
-67.88
-54.84
-35.58
-12.81
10.48
31.73
49.07
61.19
67.17
66.65
60.06
48.93
35.56
22.6
12.29
5.79
3.05
2.95
3.69
3.41
0.73
-4.64
-11.7
-18.46
-22.45
-21.71
-15.53
-4.6
9.08
23.12
35.51
45.0
51.23
54.38
54.64
52.05
46.71
38.91
29.46
19.53
10.21
2.06
-5.11
-12.14
-20.12
-29.79
-41.14
-53.25
-64.43
-72.66
-76.02
-73.12
-63.38
-47.15
-25.5
-0.23
26.6
52.76
76.05
94.45
106.21
110.1
105.72
93.67
75.66
54.34
32.59
12.92
-3.11
-15.31
-24.69
-32.91
-41.46
-50.88
-60.28
-67.55
-69.96
-65.28
-52.91
-34.53
-13.62
5.61
19.76
27.28
28.61
25.26
18.75
9.82
-1.56
-15.24
-30.16
-44.02
-53.95
-57.78
-55.12
-47.85
-39.43
-33.58
-32.83
-37.53
-45.71
-53.75
-57.62
-54.21
-42.47
-23.63
-0.76
22.38
42.63
58.24
68.97
75.44
78.36
77.94
73.97
66.37
55.65
43.01
30.01
17.83
7.09
-2.32
-11.03
-19.84
-29.64
-41.18
-54.62
-68.92
-81.52
-88.7
-86.74
-73.38
-48.9
-16.16
20.38
55.98
86.84
110.56
125.83
132.07
129.14
117.52
98.59
74.77
49.25
25.31
5.51
-8.89
-18.3
-24.45
-29.77
-36.44
-45.34
-55.58
-64.74
-69.86
-68.96
-61.96
-50.85
-38.96
-29.59
-24.91
-25.69
-31.66
-42.47
-58.03
-78.45
-103.27
-130.83
-157.99
-181.14
-197.43
-206.13
-208.95
-209.07
-209.46
-211.48
-214.51
-216.75
-216.58
-213.35
-207.2
-198.15
-184.99
-165.37
-136.68
-97.76
-49.85
3.23
56.25
104.23
143.57
172.56
191.26
200.82
202.92
199.16
190.92
179.25
165.11
149.74
134.8
121.85
111.95
105.05
99.82
94.17
86.07
74.43
59.54
43.06
27.51
15.7
10.17
12.57
23.52
42.33
67.06
94.7
121.69
144.39
159.84
166.43
163.89
153.22
136.03
114.19
89.64
64.5
41.17
21.91
7.99
-1.07
-7.49
-14.46
-24.46
-37.89
-52.54
-64.31
-69.1
-64.3
-49.7
-27.25
-0.2
28.02
54.38
76.48
92.65
101.98
104.34
100.38
91.43
79.14
65.3
51.44
38.67
27.53
18.06
9.88
2.34
-5.29
-13.47
-22.07
-30.24
-36.56
-39.5
-38.02
-31.95
-22.16
-10.18
2.19
13.26
21.76
26.81
27.95
25.11
18.57
9.0
-2.65
-15.29
-27.8
-39.08
-48.23
-54.66
-58.47
-60.65
-62.86
-66.96
-74.11
-84.11
-95.03
-103.64
-106.37
-100.61
-85.65
-63.12
-36.36
-9.29
15.1
35.48
52.1
65.97
77.5
86.02
90.07
88.48
81.42
70.75
59.2
49.02
40.92
33.87
25.89
15.35
1.73
-14.15
-30.56
-45.4
-56.56
-62.03
-60.15
-50.08
-32.35
-9.09
16.32
40.15
59.38
72.24
78.32
78.07
72.36
62.32
49.34
35.24
21.97
11.24
4.0
0.18
-1.24
-1.88
-3.5
-7.45
-14.29
-23.47
-33.2
-40.83
-43.47
-38.96
-26.76
-8.31
13.13
33.54
49.35
58.61
61.25
58.66
52.69
44.71
35.37
24.79
13.31
1.72
-8.86
-17.52
-24.19
-29.71
-35.45
-42.83
-52.7
-65.02
-78.69
-91.46
-100.18
-101.56
-93.32
-75.53
-50.9
-24.19
-0.15
18.24
30.7
38.98
45.18
50.09
52.79
51.53
45.3
34.95
23.15
13.11
6.97
4.79
4.57
3.31
-1.6
-11.2
-24.65
-39.67
-53.28
-62.73
-66.02
-62.19
-51.44
-35.04
-15.21
5.26
23.6
37.7
46.73
51.0
51.62
49.7
45.72
39.58
31.1
20.52
8.89
-2.13
-10.86
-16.08
-17.49
-15.68
-12.09
-8.44
-6.32
-6.65
-9.22
-12.71
-15.19
-14.78
-10.46
-2.43
8.06
19.34
29.85
38.71
45.56
50.36
53.01
53.26
50.74
45.2
36.82
26.35
15.05
4.25
-5.05
-12.66
-19.24
-25.9
-33.65
-42.58
-51.68
-58.79
-61.48
-57.91
-47.5
-31.32
-11.72
8.45
26.52
40.61
49.77
53.71
52.52
46.6
36.67
23.95
10.03
-3.53
-15.61
-25.8
-34.19
-41.02
-46.44
-50.49
-53.5
-56.23
-59.58
-64.09
-69.32
-73.69
-75.05
-71.65
-62.95
-49.91
-34.62
-19.46
-6.39
3.39
9.52
12.33
12.66
11.78
10.94
10.98
11.94
13.14
13.47
12.11
8.87
4.1
-1.62
-8.1
-15.4
-23.7
-32.68
-41.13
-47.15
-48.71
-44.67
-35.25
-22.09
-7.53
6.27
18.12
27.66
34.92
39.47
40.37
36.57
27.78
15.13
1.14
-11.38
-20.48
-26.02
-29.72
-34.19
-41.57
-52.47
-65.59
-78.26
-87.27
-89.72
-83.62
-68.24
-44.32
-14.11
18.78
50.03
75.69
93.23
102.2
104.05
101.1
95.2
87.19
76.99
64.74
51.39
38.88
29.21
23.2
19.86
16.91
11.98
3.95
-6.4
-16.76
-24.48
-27.77
-26.31
-21.08
-13.61
-5.27
2.98
10.46
16.47
20.12
20.57
17.56
11.61
3.98
-3.92
-11.04
-17.04
-22.02
-26.12
-29.23
-31.1
-31.87
-32.33
-33.61
-36.25
-39.52
-41.3
-39.12
-31.46
-18.79
-3.66
10.47
20.74
26.06
27.39
26.93
26.8
27.95
29.91
31.17
30.27
26.45
19.95
11.69
2.7
-6.41
-15.62
-25.28
-35.69
-46.7
-57.7
-67.71
-75.82
-81.22
-83.36
-81.77
-76.03
-65.91
-51.54
-33.67
-13.76
6.26
24.33
38.73
48.39
53.02
52.92
49.0
42.5
34.88
27.63
21.83
17.79
14.86
11.58
6.24
-2.31
-14.09
-27.65
-40.45
-49.49
-52.21
-47.26
-34.82
-16.73
4.1
24.37
41.2
52.68
58.02
57.32
51.28
40.91
27.51
12.77
-1.51
-13.52
-22.01
-26.63
-27.94
-27.17
-25.74
-24.97
-25.67
-28.1
-31.8
-35.48
-37.33
-35.48
-28.76
-17.18
-2.17
13.96
28.74
40.4
48.31
52.71
54.26
53.35
49.8
43.22
33.54
21.54
8.94
-2.25
-10.62
-16.1
-20.09
-24.84
-32.41
-43.87
-58.73
-75.2
-90.55
-101.82
-106.33
-102.27
-89.26
-68.5
-42.44
-14.02
14.24
40.82
65.03
86.38
104.01
116.61
123.0
122.89
117.27
108.07
97.38
86.52
75.79
64.76
52.99
40.47
27.58
14.66
1.76
-11.23
-24.02
-35.33
-42.87
-44.08
-37.35
-23.1
-3.98
15.86
32.35
42.81
46.58
44.69
38.77
30.22
19.72
7.55
-5.86
-19.43
-31.47
-40.15
-44.26
-43.71
-39.63
-33.99
-28.86
-25.74
-25.16
-26.59
-28.78
-30.25
-29.77
-26.52
-20.19
-10.68
1.97
17.44
34.77
52.13
67.05
76.99
80.2
76.3
66.43
52.65
37.29
22.36
9.09
-1.86
-10.44
-17.19
-23.24
-30.06
-39.04
-50.88
-65.23
-80.64
-94.85
-105.35
-109.81
-106.44
-94.32
-73.69
-46.17
-14.55
17.76
47.59
72.68
91.81
104.49
110.51
109.67
102.1
88.81
71.94
54.4
39.07
27.7
20.46
16.02
12.47
8.15
2.23
-5.27
-13.76
-22.51
-30.71
-37.51
-41.96
-43.17
-40.62
-34.52
-25.96
-16.53
-7.9
-1.1
3.71
7.12
9.95
12.78
15.63
18.03
19.42
19.51
18.46
16.81
15.1
13.55
11.97
9.97
7.11
3.15
-1.92
-7.82
-13.91
-19.15
-22.03
-21.06
-15.24
-4.85
8.51
22.39
34.52
43.68
50.04
54.55
57.9
59.73
58.66
53.14
42.6
28.04
11.63
-4.16
-17.51
-27.84
-35.55
-41.56
-46.92
-52.62
-59.4
-67.43
-75.91
-83.01
-86.13
-82.91
-72.27
-55.0
-33.61
-11.28
9.18
26.09
38.87
47.47
51.76
51.41
46.22
36.82
24.98
13.22
3.98
-1.46
-3.44
-3.57
-3.93
-6.06
-10.54
-17.1
-25.0
-33.33
-41.06
-46.93
-49.64
-48.21
-42.52
-33.57
-22.99
-12.45
-2.99
5.24
12.54
19.14
24.88
29.26
31.75
32.21
31.0
28.97
27.17
26.44
27.07
28.56
29.7
28.91
24.8
16.72
5.24
-7.75
-19.57
-27.37
-29.12
-24.23
-13.73
0.26
15.31
29.46
41.66
51.54
59.01
63.65
64.59
60.94
52.44
40.07
25.86
12.28
1.24
-6.61
-12.03
-16.65
-22.1
-29.23
-37.74
-46.47
-53.94
-58.83
-60.22
-57.65
-51.01
-40.52
-26.99
-11.84
3.04
15.82
25.23
30.94
33.44
33.57
32.01
28.87
23.89
16.86
8.1
-1.27
-9.62
-15.47
-18.1
-18.12
-17.29
-17.94
-22.09
-30.6
-42.72
-56.19
-67.96
-75.22
-76.36
-71.41
-61.89
-49.9
-37.34
-25.3
-14.01
-3.42
6.31
14.49
19.95
21.71
19.46
13.98
6.95
0.43
-3.88
-5.25
-4.32
-2.81
-3.02
-6.84
-14.87
-26.11
-38.11
-47.83
-52.65
-51.07
-43.16
-30.16
-14.07
2.93
19.01
32.83
43.45
50.23
52.66
50.34
43.14
31.47
16.52
0.31
-14.7
-26.16
-32.56
-33.69
-30.68
-25.73
-21.42
-19.89
-22.16
-27.61
-34.12
-38.51
-37.71
-29.93
-15.43
3.59
23.77
41.97
56.19
65.96
71.81
74.32
73.62
69.42
61.63
51.1
39.66
29.69
23.0
20.09
19.78
19.69
17.25
10.68
-0.46
-15.24
-31.55
-46.86
-58.54
-64.55
-63.84
-56.54
-44.03
-28.41
-11.88
3.89
18.01
30.3
40.8
49.34
55.35
57.94
56.45
50.85
42.17
32.17
22.88
15.83
11.44
8.98
6.9
3.62
-1.81
-9.35
-18.21
-27.06
-34.47
-39.12
-39.75
-35.6
-26.55
-13.4
2.12
17.73
31.19
40.84
45.8
45.96
41.7
33.75
22.9
10.22
-3.06
-15.55
-25.8
-32.71
-35.67
-34.97
-31.95
-28.62
-27.23
-29.4
-35.43
-44.0
-52.6
-58.28
-58.69
-52.93
-41.59
-26.51
-9.92
6.19
20.62
32.74
42.1
48.13
49.99
47.05
39.55
28.82
17.14
7.13
0.65
-1.69
-0.83
1.12
1.64
-1.53
-9.77
-23.1
-40.01
-57.55
-71.9
-79.38
-77.71
-66.84
-49.07
-28.11
-7.79
9.4
22.65
32.51
39.89
45.07
47.64
46.88
42.64
35.91
28.57
22.55
18.96
17.46
16.55
14.35
9.47
1.63
-8.57
-19.88
-31.02
-40.74
-47.79
-50.7
-48.08
-39.12
-24.19
-5.15
15.03
33.03
46.35
53.79
55.53
52.57
46.05
36.91
25.94
13.88
1.76
-9.18
-17.89
-23.8
-27.25
-29.42
-31.97
-36.51
-43.85
-53.46
-63.28
-70.14
-70.81
-63.17
-47.21
-25.15
-0.8
21.79
39.71
51.8
58.54
61.37
61.71
60.34
57.41
52.8
46.67
39.76
33.29
28.63
26.7
27.6
30.49
33.77
35.56
34.23
28.83
19.32
6.71
-7.28
-20.38
-30.36
-35.66
-35.79
-31.58
-24.77
-17.38
-10.91
-5.98
-2.44
0.1
1.82
2.49
1.68
-0.7
-3.97
-6.79
-7.85
-6.77
-4.76
-4.4
-8.53
-18.95
-35.36
-55.34
-75.18
-91.05
-99.8
-99.49
-89.48
-70.42
-44.43
-14.83
14.45
39.83
59.13
71.88
78.83
80.97
78.86
72.61
62.65
50.32
37.89
27.76
21.28
17.97
15.66
11.55
3.45
-9.21
-25.16
-41.76
-55.77
-64.23
-65.05
-57.53
-42.34
-21.54
2.03
25.15
45.06
59.9
68.86
71.97
69.63
62.4
50.97
36.54
21.11
7.18
-3.13
-8.93
-11.17
-12.21
-14.72
-20.39
-29.12
-39.11
-47.73
-52.49
-51.74
-44.99
-32.77
-16.44
1.97
20.0
35.35
46.22
51.91
52.77
49.89
44.51
37.49
29.3
20.11
10.26
0.55
-7.79
-13.42
-15.57
-14.47
-11.46
-8.64
-8.12
-11.02
-17.01
-24.14
-29.66
-31.02
-26.94
-17.85
-5.66
7.14
18.44
27.18
33.34
37.42
39.85
40.64
39.45
36.16
31.17
25.55
20.51
16.78
14.1
11.23
6.54
-1.33
-12.79
-27.07
-42.43
-56.68
-67.73
-74.1
-75.1
-70.9
-62.32
-50.51
-36.74
-22.03
-7.14
7.51
21.74
35.35
47.93
58.78
66.9
71.19
70.84
65.54
55.89
43.21
29.27
15.72
3.68
-6.48
-14.97
-22.4
-29.37
-36.28
-43.25
-49.89
-55.2
-57.64
-55.48
-47.59
-34.18
-17.11
0.5
15.38
25.21
29.31
28.38
23.79
16.81
8.28
-1.15
-10.53
-18.55
-23.95
-26.17
-26.03
-25.5
-26.97
-32.04
-40.69
-51.15
-60.49
-65.48
-63.73
-54.2
-37.5
-15.77
7.8
29.55
46.13
55.38
56.79
51.5
41.73
29.8
17.27
4.7
-7.84
-20.11
-31.18
-39.57
-44.1
-44.7
-42.75
-40.6
-40.6
-44.11
-51.2
-60.78
-71.12
-80.32
-86.44
-87.81
-83.15
-72.08
-55.32
-34.54
-11.65
11.89
35.35
58.37
80.17
99.18
113.07
119.93
119.21
112.28
101.94
91.24
82.18
75.11
68.83
61.5
51.63
38.78
23.65
7.81
-6.69
-17.69
-23.32
-22.28
-14.28
-0.37
17.23
35.5
51.52
63.22
69.8
71.53
69.24
63.63
54.99
43.26
28.65
12.13
-4.53
-19.04
-29.54
-35.18
-36.54
-35.19
-33.07
-31.65
-31.64
-32.84
-34.31
-34.71
-32.53
-26.51
-16.15
-2.14
13.54
28.18
39.13
44.94
45.88
43.59
40.24
37.42
35.41
33.33
29.85
23.98
15.76
6.22
-3.09
-10.75
-16.21
-19.89
-22.97
-26.85
-32.52
-40.32
-49.72
-59.54
-68.1
-73.49
-73.83
-67.81
-55.09
-36.66
-14.67
8.01
28.59
45.04
56.21
61.72
61.78
57.02
48.55
38.21
28.24
20.71
16.64
15.54
15.51
14.13
9.57
1.36
-9.66
-21.93
-33.9
-44.37
-52.15
-55.94
-54.35
-46.58
-33.25
-16.67
-0.14
13.27
22.04
26.52
28.3
28.81
28.39
26.19
21.03
12.6
1.99
-8.7
-17.47
-23.35
-26.9
-29.52
-32.72
-37.23
-42.72
-48.11
-51.87
-52.51
-48.88
-40.4
-27.3
-10.95
6.48
22.61
35.53
44.51
49.9
52.66
53.59
53.0
50.62
46.17
39.83
32.37
24.98
18.74
14.2
11.16
8.9
6.31
2.43
-3.29
-10.95
-20.15
-30.07
-39.51
-46.92
-50.62
-49.23
-42.16
-30.18
-15.27
-0.06
13.07
22.91
29.6
34.17
37.74
40.69
42.58
42.61
40.44
36.59
32.43
29.37
28.17
28.28
28.12
25.73
19.51
9.12
-4.6
-19.8
-34.27
-45.93
-53.21
-55.13
-51.35
-42.13
-28.33
-11.42
6.72
23.95
38.3
48.25
52.85
51.99
46.23
36.7
24.73
11.65
-1.49
-13.96
-25.19
-34.81
-42.63
-48.79
-53.65
-57.88
-62.09
-66.65
-71.47
-75.83
-78.55
-78.08
-72.88
-61.88
-45.05
-23.49
0.48
23.95
44.14
59.1
68.03
71.07
68.97
62.57
52.79
40.63
27.3
14.17
2.47
-7.08
-14.41
-19.93
-24.24
-27.76
-30.76
-33.57
-36.82
-41.24
-47.19
-53.97
-59.57
-61.21
-56.54
-44.91
-27.91
-8.92
8.23
20.72
27.58
29.58
28.34
25.36
21.4
16.53
10.67
4.12
-2.25
-7.2
-9.68
-9.36
-6.82
-3.43
-0.87
-0.57
-3.42
-9.49
-18.04
-27.55
-35.77
-40.27
-39.06
-31.36
-18.13
-1.75
14.68
28.59
38.71
45.11
48.66
50.15
49.75
47.07
41.65
33.62
23.92
14.06
5.59
-0.52
-4.28
-6.48
-8.52
-11.81
-17.22
-24.9
-34.03
-42.93
-49.32
-50.97
-46.32
-35.11
-18.6
0.75
20.08
37.02
50.21
59.43
65.02
67.29
66.11
60.95
51.45
37.89
21.51
4.4
-11.07
-22.97
-30.3
-33.34
-33.41
-32.35
-31.94
-33.36
-36.93
-42.12
-47.65
-51.75
-52.48
-48.41
-38.95
-24.85
-8.05
9.15
24.87
38.19
49.15
58.36
66.53
74.09
80.97
86.38
88.93
86.82
78.66
64.32
45.31
24.44
4.57
-12.81
-28.12
-43.21
-59.73
-77.81
-95.69
-110.56
-120.16
-123.71
-121.73
-115.2
-104.57
-89.76
-70.39
-46.58
-19.46
8.93
36.1
59.53
77.24
87.99
91.6
88.96
81.79
72.24
62.39
53.78
47.38
43.76
43.13
45.4
49.78
54.52
57.2
55.5
48.5
37.5
25.82
17.73
16.5
23.07
35.63
50.59
64.21
74.1
79.8
82.18
82.31
80.62
76.66
69.72
59.58
46.88
33.07
19.86
8.6
-0.08
-6.22
-10.55
-14.14
-18.12
-23.48
-30.67
-39.51
-49.2
-58.57
-66.39
-71.7
-73.97
-73.41
-70.84
-67.76
-65.84
-66.43
-69.97
-75.76
-82.13
-87.21
-89.79
-89.83
-88.36
-86.83
-86.21
-86.46
-86.61
-85.3
-81.51
-75.11
-66.99
-58.7
-52.03
-48.5
-48.82
-52.61
-58.33
-63.58
-65.68
-62.5
-53.09
-37.9
-18.47
3.29
25.56
46.91
66.11
81.96
93.3
99.27
99.8
95.63
88.29
79.41
70.35
61.94
54.41
47.73
41.63
35.77
29.83
23.61
17.04
10.2
3.12
-4.13
-11.23
-17.28
-20.56
-19.04
-11.03
3.76
23.76
45.84
66.3
82.15
91.9
95.62
94.38
89.62
82.63
74.48
66.05
57.99
50.63
43.87
37.39
30.82
23.93
16.79
9.59
2.56
-4.23
-10.96
-17.91
-25.28
-32.87
-39.87
-44.97
-46.79
-44.37
-37.88
-28.6
-18.68
-10.22
-4.49
-1.55
-0.54
-0.38
-0.42
-0.83
-2.14
-4.71
-8.21
-11.58
-13.42
-12.73
-9.47
-4.73
-0.35
1.75
0.17
-5.44
-14.43
-25.18
-35.52
-43.15
-46.07
-43.14
-34.39
-21.04
-5.13
11.04
25.66
37.64
46.55
52.19
54.32
52.63
47.09
38.29
27.55
16.51
6.57
-1.77
-8.86
-15.55
-22.48
-29.67
-36.53
-42.43
-47.14
-51.03
-54.54
-57.38
-58.27
-55.03
-45.81
-30.14
-9.44
13.28
34.58
51.85
63.91
70.93
73.73
73.15
69.68
63.6
55.34
45.66
35.58
26.19
18.39
12.7
9.31
7.89
7.66
7.47
6.09
2.64
-3.13
-10.74
-19.06
-26.73
-32.38
-34.91
-33.73
-28.99
-21.64
-13.31
-5.93
-1.05
0.71
-0.17
-2.41
-4.5
-5.41
-4.94
-3.62
-2.4
-2.08
-2.9
-4.57
-6.4
-7.71
-8.25
-8.31
-8.6
-10.07
-13.49
-19.47
-28.15
-39.14
-51.16
-61.94
-68.46
-67.77
-58.11
-39.92
-16.14
8.65
29.76
43.95
50.18
49.43
43.68
34.93
24.69
13.97
3.59
-5.76
-13.64
-20.16
-25.87
-31.49
-37.13
-42.14
-45.27
-45.48
-42.68
-38.03
-33.15
-29.08
-25.55
-20.98
-13.55
-2.45
11.3
25.14
36.15
42.55
44.5
43.8
42.72
42.61
43.12
42.57
39.1
31.93
21.89
11.14
1.98
-4.32
-8.17
-11.3
-15.74
-22.76
-32.3
-43.38
-54.92
-66.44
-77.95
-89.37
-99.63
-106.43
-106.79
-98.43
-80.95
-56.32
-28.33
-1.19
21.88
39.44
51.72
59.8
64.77
67.28
67.39
64.87
59.55
51.53
41.42
30.24
19.22
9.41
1.36
-5.11
-10.81
-16.93
-24.43
-33.4
-42.8
-50.37
-53.36
-49.5
-37.99
-20.2
0.83
21.26
37.86
48.8
53.84
53.75
49.65
42.62
33.77
24.32
15.45
7.95
1.75
-4.13
-10.91
-19.26
-28.61
-37.26
-43.14
-44.86
-42.54
-37.81
-32.99
-29.96
-29.18
-29.35
-28.13
-23.39
-14.57
-2.97
9.03
19.36
27.36
33.7
39.29
43.89
45.64
41.87
30.94
13.55
-6.94
-25.89
-39.41
-45.92
-46.48
-43.88
-41.05
-39.96
-41.22
-44.5
-49.21
-54.75
-60.44
-65.13
-67.02
-64.19
-55.07
-39.4
-18.46
5.28
28.91
49.96
66.99
79.57
87.93
92.52
93.68
91.79
87.37
81.29
74.58
68.09
62.32
57.1
51.88
45.92
38.76
30.29
20.76
10.51
0.09
-9.72
-17.73
-22.32
-22.13
-16.74
-7.23
3.8
13.28
18.84
19.84
17.45
13.61
9.88
6.44
2.19
-4.4
-14.06
-26.07
-38.44
-48.76
-55.17
-56.93
-54.45
-48.71
-40.87
-32.03
-23.27
-15.69
-10.21
-7.15
-5.77
-4.24
-0.25
8.03
20.9
36.72
52.49
64.87
71.53
72.01
67.57
60.36
52.25
44.04
35.42
25.8
15.04
4.02
-5.65
-12.39
-15.49
-15.54
-14.05
-12.97
-13.81
-17.29
-23.39
-31.63
-41.28
-51.55
-61.43
-69.68
-74.97
-76.07
-72.28
-63.68
-51.21
-36.6
-21.9
-9.05
0.58
6.49
9.03
9.2
8.09
6.53
4.72
2.27
-1.58
-7.45
-15.42
-24.87
-34.8
-44.43
-53.72
-63.23
-73.38
-83.42
-91.06
-93.1
-87.04
-72.71
-52.85
-32.03
-14.51
-2.38
5.02
9.91
14.14
17.72
19.01
16.15
8.87
-0.69
-8.91
-12.41
-9.88
-2.76
5.77
12.37
15.17
14.32
11.46
8.66
7.57
9.08
13.47
20.66
30.29
41.61
53.41
64.26
72.9
78.58
81.34
81.58
79.61
75.5
68.93
59.76
48.57
36.75
26.28
19.06
16.01
16.65
19.02
20.25
17.48
8.69
-6.5
-26.56
-48.14
-66.76
-78.06
-79.11
-69.55
-51.78
-30.02
-8.53
10.05
25.6
39.8
54.46
69.95
84.38
94.57
97.67
92.78
81.52
67.0
52.32
39.11
27.2
15.29
2.25
-12.12
-27.08
-41.6
-55.11
-67.41
-78.27
-86.61
-90.41
-87.47
-76.68
-59.03
-37.4
-15.59
3.1
16.84
25.29
28.97
28.69
25.21
19.43
12.52
5.82
0.46
-3.11
-5.0
-5.46
-4.55
-2.03
2.17
7.48
12.5
15.44
14.88
10.7
4.41
-1.3
-3.55
-0.33
8.7
22.28
38.13
53.93
67.8
78.81
86.77
91.87
94.32
94.02
90.52
83.22
71.87
56.73
38.97
20.31
2.77
-12.08
-23.62
-32.2
-38.78
-44.36
-49.85
-55.93
-63.27
-72.28
-82.83
-93.42
-101.25
-102.66
-94.4
-75.25
-46.83
-13.4
19.49
46.89
65.72
75.31
76.84
72.36
63.91
53.11
41.16
28.91
17.1
6.21
-3.47
-11.81
-18.67
-23.91
-27.46
-29.64
-31.37
-33.93
-38.47
-45.51
-54.76
-65.23
-75.87
-85.44
-92.78
-96.36
-94.31
-85.06
-67.97
-44.21
-16.75
10.47
33.87
51.34
62.85
69.69
73.51
75.42
75.62
73.94
70.32
65.15
59.03
52.35
44.99
36.47
26.42
15.07
3.29
-7.82
-17.65
-26.59
-35.81
-46.35
-57.91
-68.27
-73.74
-70.62
-57.02
-34.13
-6.03
21.82
44.65
59.95
67.79
69.75
67.45
61.56
52.03
39.04
23.91
9.37
-1.5
-6.51
-5.47
-0.23
6.2
10.97
12.64
11.54
9.31
7.96
8.75
11.56
14.81
16.07
13.09
4.81
-8.11
-23.33
-37.35
-46.65
-48.66
-42.49
-29.21
-11.48
7.11
22.99
33.5
37.35
34.77
27.1
16.25
4.2
-7.4
-17.31
-24.79
-29.69
-32.29
-33.35
-33.86
-34.61
-36.09
-38.31
-40.91
-43.66
-46.72
-50.71
-56.29
-63.34
-70.4
-74.46
-71.87
-59.83
-37.89
-8.64
22.92
51.15
71.73
83.03
85.93
82.75
75.68
65.96
54.02
40.19
25.3
10.67
-2.43
-13.47
-22.76
-30.9
-38.13
-43.87
-47.11
-47.25
-44.93
-42.29
-42.15
-46.64
-55.81
-67.15
-76.4
-79.17
-72.76
-57.3
-35.67
-12.13
9.18
25.91
37.71
45.74
51.58
56.3
60.03
62.35
62.61
60.53
56.33
50.67
44.53
38.81
34.09
30.21
26.39
21.54
14.81
6.24
-3.34
-12.72
-20.98
-27.82
-33.24
-36.65
-36.45
-30.32
-16.57
4.35
29.12
52.57
69.52
77.06
75.5
67.6
56.87
45.6
34.14
21.59
7.02
-9.29
-25.68
-39.76
-49.56
-54.25
-54.3
-51.02
-45.85
-40.06
-34.77
-31.24
-30.59
-33.51
-39.29
-45.47
-48.36
-44.22
-31.09
-9.7
16.59
43.1
65.41
80.76
88.29
88.65
83.35
74.12
62.76
50.87
39.76
30.19
22.26
15.6
9.7
4.26
-0.92
-6.07
-11.58
-17.8
-24.78
-31.99
-38.71
-44.53
-49.52
-54.09
-58.22
-60.71
-59.26
-51.31
-35.57
-12.99
13.11
38.23
58.31
71.19
76.86
76.66
72.22
64.66
54.8
43.54
32.35
22.96
16.6
13.32
11.71
9.68
5.53
-1.23
-9.68
-18.12
-25.13
-30.17
-33.75
-36.66
-39.34
-41.43
-41.88
-39.58
-34.01
-25.63
-15.82
-6.39
1.16
5.98
8.12
8.3
7.29
5.65
3.56
1.09
-1.48
-3.56
-4.32
-3.06
0.24
4.91
9.6
12.74
12.97
9.44
1.93
-8.99
-21.85
-34.18
-42.91
-45.18
-39.41
-26.32
-8.76
9.17
23.75
33.12
37.65
39.21
39.93
40.82
41.4
40.26
35.98
28.1
17.45
5.81
-4.77
-12.76
-17.68
-20.16
-21.68
-24.05
-28.75
-36.52
-47.07
-59.04
-70.04
-77.08
-77.18
-68.32
-50.23
-24.89
4.07
32.32
56.48
74.91
87.6
95.39
98.71
97.2
89.88
76.3
57.26
35.16
13.14
-5.93
-20.43
-30.35
-36.91
-41.91
-46.87
-52.7
-59.49
-66.74
-73.67
-79.32
-82.73
-82.88
-78.9
-70.34
-57.65
-42.25
-26.25
-11.84
-0.37
7.98
14.0
18.79
22.85
25.74
26.39
23.97
18.58
11.49
4.7
0.13
-1.19
0.61
4.38
8.35
10.7
9.77
4.46
-5.46
-18.83
-32.89
-43.9
-48.17
-43.64
-30.85
-12.85
5.99
21.76
32.3
37.53
38.71
37.37
34.32
29.67
23.34
15.71
7.73
0.34
-6.0
-11.68
-17.72
-25.06
-34.11
-44.58
-55.6
-66.05
-74.67
-80.08
-80.95
-76.34
-66.12
-51.1
-32.83
-13.0
7.08
26.63
45.15
61.92
75.65
84.79
88.11
85.36
77.55
66.65
54.78
43.59
34.02
26.17
19.76
14.21
8.7
2.27
-6.05
-16.72
-29.14
-41.33
-50.19
-52.58
-46.54
-32.39
-12.68
8.69
27.93
42.6
52.12
57.22
59.13
58.91
56.91
53.19
47.84
41.47
35.2
30.38
28.03
28.36
30.69
33.65
35.97
36.84
36.3
35.05
34.02
33.95
35.17
37.54
40.56
43.56
45.84
46.85
46.24
43.95
40.01
34.53
27.52
18.92
8.84
-2.4
-14.06
-25.43
-35.84
-44.88
-52.23
-57.47
-60.23
-60.35
-58.37
-55.66
-54.34
-56.64
-63.95
-76.08
-90.8
-104.22
-111.86
-110.05
-97.18
-74.33
-44.89
-13.43
15.71
39.72
57.81
70.98
80.92
89.04
95.52
99.17
98.21
91.15
78.03
60.58
41.68
24.08
9.47
-2.05
-11.36
-19.6
-27.59
-35.83
-44.89
-55.48
-67.84
-80.88
-91.69
-96.24
-91.01
-74.96
-50.44
-22.44
3.48
23.3
35.78
41.93
43.59
42.12
37.74
30.27
20.01
8.37
-2.29
-9.75
-12.73
-11.37
-7.04
-1.5
3.67
7.4
8.98
7.83
3.61
-3.36
-11.73
-19.2
-23.29
-22.49
-16.99
-8.74
-0.42
5.9
9.59
11.43
12.68
13.92
14.69
13.72
10.04
3.64
-4.21
-11.77
-17.62
-21.5
-24.07
-26.57
-30.15
-35.5
-42.85
-52.24
-63.68
-76.98
-91.37
-105.07
-115.22
-118.37
-111.64
-93.86
-66.3
-32.49
2.81
35.08
61.45
81.01
94.51
103.45
109.1
111.93
111.73
108.08
100.94
90.89
79.06
66.71
54.86
44.19
35.07
27.75
22.39
18.79
16.03
12.44
5.96
-4.84
-19.7
-36.29
-50.74
-59.16
-59.4
-52.03
-40.01
-27.16
-16.35
-8.42
-2.17
4.32
12.34
21.77
31.55
40.62
48.9
57.17
66.21
75.76
84.09
88.75
87.72
80.54
68.41
53.51
37.93
22.87
8.58
-5.34
-19.39
-34.08
-49.73
-66.34
-83.12
-98.11
-108.26
-110.31
-102.24
-84.34
-59.45
-32.14
-6.95
12.94
26.41
34.04
37.07
36.46
32.64
25.79
16.65
6.78
-1.68
-6.92
-8.29
-6.46
-3.01
0.61
3.85
7.19
11.42
16.76
22.26
25.85
25.29
18.99
6.93
-9.15
-26.12
-40.15
-47.6
-46.1
-35.21
-16.68
5.97
28.65
47.92
61.92
70.41
73.99
73.36
68.63
59.78
47.26
32.59
18.25
6.91
0.26
-1.61
-0.17
2.35
4.12
4.37
3.59
3.09
4.19
7.75
13.68
21.04
28.29
33.69
35.69
33.58
27.87
20.49
14.23
11.71
14.16
20.7
28.67
34.72
36.5
33.54
27.31
20.07
13.65
8.53
4.14
-0.4
-5.26
-9.55
-12.05
-11.99
-9.85
-7.38
-6.78
-9.73
-16.58
-26.23
-36.62
-45.69
-52.09
-55.72
-57.49
-58.97
-61.77
-66.94
-74.74
-84.44
-94.22
-101.36
-102.69
-95.37
-78.02
-51.35
-18.41
16.05
47.01
70.45
84.42
89.08
86.1
77.77
66.21
53.11
39.7
27.0
15.74
6.25
-1.7
-8.74
-15.65
-22.9
-30.31
-37.21
-42.71
-46.22
-47.82
-48.24
-48.59
-50.04
-53.32
-58.43
-64.48
-69.48
-70.67
-65.1
-50.64
-26.99
3.78
37.55
69.23
94.3
110.04
116.11
114.03
106.22
94.86
81.32
66.23
50.0
33.24
17.11
2.94
-8.31
-16.41
-22.13
-26.82
-31.7
-37.31
-43.24
-48.39
-51.77
-53.23
-53.76
-55.39
-60.21
-69.49
-82.7
-97.42
-109.81
-115.89
-112.96
-100.48
-80.3
-55.91
-31.28
-9.79
6.54
17.16
22.56
24.04
23.07
21.14
19.5
18.98
19.8
21.65
23.68
24.86
24.33
21.52
16.38
9.25
0.83
-7.96
-16.25
-23.45
-29.5
-34.97
-40.92
-48.55
-58.72
-71.28
-84.69
-95.99
-101.51
-98.11
-84.54
-62.18
-34.78
-7.16
16.38
33.31
43.03
46.28
44.24
37.83
27.66
14.31
-1.31
-17.75
-33.07
-45.11
-51.78
-51.55
-43.87
-29.77
-11.79
6.42
21.3
30.46
33.43
31.32
26.0
19.06
11.37
3.47
-3.85
-8.94
-9.56
-3.84
8.44
25.33
43.2
58.25
68.31
73.53
76.23
79.18
84.16
91.03
97.97
102.67
103.4
99.67
92.07
81.67
69.52
56.41
43.0
30.07
18.49
8.96
1.81
-3.34
-7.42
-11.72
-17.52
-25.53
-35.67
-46.85
-56.82
-62.75
-61.89
-52.61
-35.21
-12.06
13.03
36.07
54.29
66.8
74.37
78.4
79.73
78.04
72.21
61.38
45.97
27.93
10.33
-3.92
-13.13
-17.29
-17.79
-16.65
-15.76
-16.55
-19.97
-26.48
-35.99
-47.43
-58.53
-66.16
-67.2
-59.86
-44.74
-25.01
-5.59
8.68
14.8
12.74
5.07
-4.4
-12.34
-17.1
-18.78
-18.5
-17.42
-16.05
-14.1
-11.05
-6.64
-1.3
3.85
7.29
7.51
3.49
-5.07
-17.54
-32.41
-47.37
-59.87
-67.41
-68.05
-60.93
-46.44
-26.36
-3.61
18.58
37.49
51.63
60.83
65.68
66.77
64.06
56.94
44.95
28.55
9.56
-9.24
-25.14
-36.4
-42.92
-45.77
-46.51
-46.36
-45.95
-45.47
-45.07
-44.77
-44.33
-42.84
-38.89
-31.32
-19.89
-5.76
8.96
22.09
32.25
39.14
43.12
44.55
43.41
39.47
32.82
24.28
15.13
6.62
-0.75
-7.4
-14.3
-22.27
-31.57
-41.68
-51.79
-61.27
-69.78
-77.02
-82.34
-84.46
-81.86
-73.35
-59.01
-40.29
-19.59
0.43
17.73
30.96
39.4
42.72
41.05
35.29
27.34
19.71
14.7
13.47
15.87
20.84
27.13
33.81
40.28
45.84
49.5
50.16
47.08
40.32
30.6
18.92
6.19
-6.8
-18.9
-28.53
-33.76
-33.14
-26.58
-15.51
-2.35
10.39
21.03
28.81
33.64
35.74
35.29
32.64
28.44
23.79
19.88
17.53
16.69
16.33
14.87
10.87
3.83
-5.54
-15.41
-23.47
-27.6
-26.32
-19.11
-6.39
10.4
28.83
45.63
57.43
61.55
57.09
45.06
27.88
8.36
-11.4
-30.1
-46.81
-60.19
-68.37
-69.49
-62.72
-48.99
-30.83
-11.6
5.67
18.93
27.33
30.91
30.29
26.44
20.26
12.53
3.75
-5.67
-14.79
-21.89
-24.61
-20.96
-10.5
4.76
20.9
33.51
39.64
38.77
32.64
23.87
14.33
4.28
-7.33
-21.63
-38.73
-57.22
-74.81
-89.47
-100.53
-109.1
-117.48
-127.91
-141.34
-156.69
-170.92
-179.94
-179.88
-168.07
-143.49
-106.86
-60.38
-7.52
47.17
98.53
141.49
172.15
188.62
191.52
183.67
169.02
151.42
133.6
116.84
101.37
86.94
73.48
61.24
50.42
40.83
31.67
21.6
9.27
-6.06
-24.1
-43.38
-61.52
-75.82
-83.88
-84.24
-76.64
-62.06
-42.44
-20.08
2.91
25.14
46.06
65.55
83.44
99.03
110.84
117.2
117.01
110.52
99.43
86.33
73.74
63.05
54.2
46.09
37.41
27.51
16.72
6.17
-2.71
-8.61
-10.59
-8.17
-1.39
9.02
21.57
34.12
44.38
50.75
52.72
51.02
46.97
41.62
35.22
27.2
16.78
3.92
-10.45
-24.44
-35.96
-43.53
-46.71
-46.18
-43.3
-39.62
-36.48
-34.82
-35.08
-37.14
-40.35
-43.46
-44.85
-42.77
-35.91
-23.71
-6.77
13.29
34.19
53.47
69.07
79.76
85.13
85.54
81.74
74.69
65.34
54.6
43.25
31.92
21.1
11.06
1.86
-6.7
-15.03
-23.73
-33.3
-43.83
-54.63
-64.16
-70.51
-72.02
