2013-07-04 13:22:27
64.0
-0.0
-0.0
-0.0
-0.0
-0.0
-0.0
-0.0
-0.0
-0.0
-0.0
0.0
0.01
0.01
-0.0
-0.03
-0.05
-0.05
0.0
0.13
0.36
0.66
1.01
1.37
1.72
2.06
2.4
2.79
3.24
3.8
4.42
5.06
5.66
6.2
6.68
7.15
7.68
8.31
9.14
10.09
11.04
11.88
12.56
13.14
13.76
14.65
15.96
17.91
20.32
22.9
25.38
27.58
29.57
31.68
34.32
37.81
42.54
48.15
54.1
59.83
64.97
69.58
74.14
79.34
85.71
93.76
103.0
112.62
121.73
129.77
136.75
143.3
150.75
157.77
166.64
177.95
191.79
206.97
220.57
228.25
225.36
208.53
176.87
132.76
80.05
23.07
-34.94
-92.44
-149.16
-205.23
-260.37
-313.74
-363.87
-409.83
-450.91
-486.5
-515.74
-537.23
-549.22
-549.96
-538.37
-514.21
-478.67
-433.88
-382.45
-327.02
-269.84
-212.63
-156.66
-102.95
-52.37
-5.9
35.58
71.43
101.35
125.5
144.38
158.69
169.15
176.37
180.75
182.57
182.07
179.51
175.23
169.65
163.18
156.15
148.81
141.3
133.69
126.02
118.33
110.69
103.16
95.8
88.68
81.83
75.25
68.95
62.95
57.25
51.86
46.78
42.03
37.59
33.45
29.61
26.07
22.81
19.83
17.11
14.67
12.48
10.54
8.83
7.35
6.07
4.97
4.05
3.27
2.62
2.09
1.65
1.3
1.01
0.79
0.61
0.48
0.37
0.3
0.25
0.21
0.19
0.19
0.2
0.21
0.24
0.27
0.3
0.34
0.38
0.43
0.47
0.52
0.57
0.62
0.67
0.73
0.79
0.86
0.93
1.01
1.1
1.2
1.31
1.43
1.57
1.73
1.9
2.1
2.31
2.55
2.82
3.11
3.43
3.78
4.16
4.58
5.04
5.52
6.05
6.62
7.23
7.89
8.58
9.32
10.11
10.94
11.82
12.74
13.71
14.75
15.84
17.0
18.22
19.48
20.77
22.01
23.16
24.13
24.79
25.02
24.67
23.63
21.81
19.21
15.88
11.91
7.5
2.85
-1.84
-6.35
-10.54
-14.26
-17.39
-19.84
-21.56
-22.53
-22.81
-22.52
-21.82
-20.88
-19.86
-18.86
-17.89
-16.88
-15.75
-14.51
-13.21
-11.99
-11.04
-10.5
-10.36
-10.48
-10.59
-10.4
-9.83
-8.96
-8.07
-7.56
-7.73
-8.65
-10.06
-11.48
-12.42
-12.73
-12.53
-12.29
-12.65
-14.14
-16.86
-20.44
-24.19
-27.44
-29.92
-31.63
-33.0
-34.7
-37.58
-42.48
-50.06
-60.31
-72.13
-83.28
-90.36
-90.12
-80.92
-63.56
-41.21
-18.21
1.53
16.91
27.01
32.41
34.48
34.53
33.25
30.93
27.72
23.96
20.06
16.14
12.24
8.25
4.06
-0.24
-4.13
-6.85
-7.65
-6.13
-2.52
2.64
8.49
14.11
18.75
22.03
23.9
24.54
24.17
22.74
20.23
16.55
11.66
5.65
-1.21
-8.53
-15.89
-22.94
-29.64
-36.25
-43.36
-51.65
-61.56
-72.97
-85.19
-97.18
-107.99
-117.18
-124.66
-130.42
-134.14
-134.89
-131.42
-122.62
-107.96
-87.69
-62.67
-34.0
-2.93
29.11
60.32
88.52
111.54
127.82
136.92
139.72
138.07
134.13
129.65
125.56
121.97
118.4
114.23
108.89
102.13
94.09
85.23
76.28
68.02
61.1
55.82
52.1
49.5
47.33
44.86
41.54
37.24
32.43
28.06
25.33
25.18
27.87
32.81
38.77
44.31
48.36
50.49
50.93
50.26
49.05
47.63
46.1
44.38
42.41
40.16
37.5
34.19
29.87
24.32
17.72
10.69
4.17
-0.98
-4.37
-6.26
-7.48
-9.03
-11.65
-15.56
-20.41
-25.61
-30.57
-34.93
-38.57
-41.4
-43.27
-43.86
-42.82
-39.96
-35.45
-29.72
-23.47
-17.23
-11.22
-5.28
1.03
8.04
15.71
23.52
30.5
35.61
38.06
37.58
34.62
30.1
25.14
20.64
16.96
13.92
10.93
7.31
2.53
-3.69
-11.43
-20.62
-30.99
-42.0
-52.78
-62.18
-69.15
-73.05
-73.89
-72.35
-69.37
-65.8
-61.99
-57.83
-52.92
-47.04
-40.31
-33.32
-26.83
-21.52
-17.71
-15.33
-14.03
-13.39
-13.11
-13.03
-13.16
-13.62
-14.63
-16.37
-18.89
-21.96
-25.03
-27.35
-28.19
-27.24
-24.72
-21.35
-18.11
-15.81
-14.83
-15.03
-15.87
-16.67
-16.83
-15.88
-13.56
-9.82
-4.79
1.1
7.12
12.37
15.99
17.43
16.64
14.1
10.57
6.94
3.91
1.89
1.01
1.14
2.01
3.25
4.52
5.52
6.16
6.56
7.06
8.04
9.72
12.0
14.54
16.95
18.94
20.46
21.56
22.19
22.1
20.92
18.5
15.18
11.83
9.47
8.74
9.51
10.89
11.73
11.31
9.66
7.6
6.06
5.52
5.71
5.66
4.35
1.25
-3.4
-8.67
-13.43
-16.83
-18.62
-19.13
-19.03
-18.98
-19.53
-20.95
-23.38
-26.83
-31.2
-36.24
-41.47
-46.24
-49.74
-51.11
-49.7
-45.13
-37.52
-27.45
-15.86
-3.8
7.82
18.35
27.53
35.27
41.56
46.35
49.53
51.0
50.72
48.89
45.84
42.01
37.89
33.85
30.17
26.97
24.18
21.64
19.13
16.48
13.67
10.87
8.42
6.7
6.01
6.42
7.74
9.66
11.82
14.03
16.31
18.85
21.98
25.94
30.86
36.58
42.85
49.36
55.93
62.68
69.9
77.99
87.14
97.13
107.32
116.77
124.59
130.16
133.32
134.29
133.57
131.84
129.82
128.17
127.26
127.07
126.97
125.91
122.7
116.47
107.03
94.92
81.15
66.7
52.19
37.75
23.24
8.59
-5.96
-19.87
-32.48
-43.29
-52.17
-59.33
-65.22
-70.3
-74.93
-79.39
-83.8
-88.24
-92.74
-97.24
-101.66
-105.86
-109.66
-112.88
-115.36
-117.01
-117.88
-118.24
-118.52
-119.16
-120.47
-122.38
-124.54
-126.51
-128.05
-129.36
-131.03
-133.79
-137.99
-143.35
-148.8
-152.75
-153.6
-150.23
-142.31
-130.39
-115.88
-100.81
-87.52
-78.22
-74.27
-75.65
-80.73
-86.81
-91.05
-91.44
-87.29
-79.12
-68.16
-55.64
-42.57
-29.74
-17.79
-7.23
1.74
9.31
15.89
21.67
26.27
28.82
28.42
24.83
18.93
12.53
7.83
6.5
9.2
15.41
23.63
31.93
38.48
42.02
42.25
39.8
36.06
32.78
31.52
33.33
38.47
46.41
55.97
65.53
73.51
78.71
80.74
80.0
77.46
74.2
71.09
68.53
66.66
65.49
65.03
65.18
65.54
65.36
63.81
60.3
54.8
47.96
40.78
34.29
29.21
25.79
23.9
23.19
23.24
23.62
23.95
23.85
22.95
20.88
17.34
12.25
5.85
-1.27
-8.4
-14.86
-20.29
-24.69
-28.39
-31.8
-35.25
-38.94
-42.94
-47.27
-51.84
-56.48
-60.89
-64.7
-67.56
-69.17
-69.36
-67.94
-64.76
-59.77
-53.15
-45.42
-37.38
-29.8
-23.24
-17.78
-13.16
-8.98
-4.97
-1.12
2.4
5.54
8.45
11.56
15.27
19.77
24.76
29.6
33.59
36.29
37.7
38.23
38.39
38.56
38.72
38.52
37.46
35.15
31.59
27.22
22.89
19.59
18.24
19.4
23.14
29.15
36.8
45.38
54.23
62.72
70.32
76.53
81.0
83.64
84.73
84.82
84.57
84.51
84.88
85.66
86.67
87.64
88.21
87.82
85.75
81.31
74.12
64.41
52.9
40.55
28.04
15.57
2.94
-10.02
-23.11
-35.62
-46.66
-55.47
-61.83
-65.94
-68.25
-69.08
-68.55
-66.65
-63.4
-58.98
-53.76
-48.15
-42.55
-37.29
-32.61
-28.68
-25.63
-23.53
-22.41
-22.19
-22.64
-23.25
-23.3
-22.08
-19.29
-15.27
-11.06
-7.95
-6.86
-7.84
-10.0
-11.85
-12.06
-10.07
-6.24
-1.55
3.02
6.94
10.26
13.35
16.48
19.51
21.92
23.09
22.77
21.21
19.14
17.34
16.27
15.81
15.39
14.3
12.13
8.91
5.1
1.24
-2.34
-5.67
-9.13
-13.15
-17.98
-23.38
-28.62
-32.53
-33.68
-30.81
-23.27
-11.45
3.08
17.78
29.78
36.69
37.3
31.89
22.08
10.24
-1.04
-9.53
-13.57
-12.27
-5.55
5.71
19.66
33.71
45.08
51.51
51.87
46.28
35.9
22.44
7.85
-6.05
-17.54
-25.26
-28.54
-27.59
-23.54
-17.98
-12.36
-7.47
-3.33
0.4
3.87
6.84
8.81
9.48
9.05
8.17
7.51
7.27
7.07
6.13
3.86
0.22
-4.14
-8.19
-10.95
-11.9
-11.1
-9.01
-6.34
-3.86
-2.39
-2.76
-5.66
-11.38
-19.49
-28.81
-37.65
-44.35
-47.86
-48.09
-45.78
-41.98
-37.58
-32.96
-28.12
-22.93
-17.38
-11.63
-5.72
0.57
7.77
16.24
25.74
35.12
42.61
46.5
45.86
40.87
32.68
22.75
12.38
2.38
-6.73
-14.58
-20.79
-25.14
-27.63
-28.55
-28.22
-26.78
-24.06
-19.66
-13.27
-4.82
5.5
17.29
29.98
42.77
54.68
64.64
71.91
76.27
78.12
78.11
76.77
74.16
69.97
63.96
56.31
47.72
39.1
31.02
23.49
16.04
8.16
-0.28
-8.87
-16.84
-23.41
-28.04
-30.52
-30.89
-29.26
-25.87
-21.08
-15.36
-9.25
-3.14
2.72
8.21
13.05
16.74
18.64
18.23
15.47
10.87
5.39
-0.01
-4.67
-8.4
-11.35
-13.63
-15.21
-15.86
-15.54
-14.56
-13.78
-14.23
-16.69
-21.22
-27.05
-32.85
-37.19
-39.11
-38.38
-35.49
-31.38
-27.07
-23.37
-20.65
-18.99
-18.24
-18.36
-19.41
-21.55
-24.84
-29.18
-34.22
-39.44
-44.13
-47.55
-49.0
-47.92
-44.13
-38.0
-30.55
-23.29
-17.78
-15.0
-14.94
-16.59
-18.21
-18.09
-15.08
-8.88
0.0
10.58
21.64
32.0
40.61
46.69
49.82
50.14
48.3
45.29
42.22
40.09
39.73
41.66
46.01
52.29
59.36
65.62
69.5
70.0
67.07
61.38
53.85
45.08
35.1
23.55
10.15
-4.83
-20.46
-35.24
-47.4
-55.32
-57.89
-54.73
-46.45
-34.56
-21.21
-8.7
0.96
6.51
7.44
3.97
-3.27
-13.55
-26.2
-40.68
-56.46
-72.91
-89.27
-104.81
-119.18
-132.59
-145.69
-158.98
-172.24
-184.03
-191.97
-193.43
-186.64
-171.32
-149.0
-122.53
-95.32
-70.46
-50.08
-35.0
-24.69
-17.56
-11.5
-4.57
4.34
15.21
26.92
37.81
46.24
51.16
52.28
49.97
44.95
38.03
29.89
21.15
12.47
4.71
-1.26
-4.88
-6.16
-5.79
-4.72
-3.6
-2.3
0.09
4.62
11.7
20.54
29.42
36.63
41.53
45.04
49.13
55.61
64.77
75.01
83.57
88.06
87.76
83.97
79.17
75.57
73.88
73.14
71.47
67.26
59.98
50.21
39.02
27.18
14.83
1.65
-12.54
-27.39
-41.93
-54.95
-65.58
-73.62
-79.56
-84.27
-88.59
-92.91
-97.12
-100.7
-103.02
-103.64
-102.47
-99.7
-95.7
-90.83
-85.25
-78.94
-71.69
-63.23
-53.35
-42.04
-29.58
-16.45
-3.2
9.74
22.17
34.07
45.38
55.82
64.74
71.26
74.56
74.14
70.04
62.76
53.18
42.33
31.31
21.26
13.32
8.49
7.44
10.29
16.5
25.0
34.59
44.21
53.21
61.28
68.31
74.17
78.7
81.77
83.53
84.59
86.05
89.2
95.14
104.18
115.55
127.38
137.11
142.27
141.09
133.11
119.21
101.27
81.6
62.27
44.71
29.65
17.3
7.6
0.46
-4.25
-6.75
-7.47
-7.06
-6.24
-5.62
-5.57
-6.2
-7.39
-8.95
-10.67
-12.38
-13.92
-15.18
-16.09
-16.76
-17.35
-18.17
-19.48
-21.54
-24.42
-28.03
-32.02
-35.86
-38.95
-40.89
-41.67
-41.7
-41.67
-42.25
-43.74
-45.94
-48.23
-49.76
-49.84
-48.07
-44.49
-39.42
-33.4
-27.08
-21.03
-15.79
-11.75
-9.09
-7.77
-7.52
-7.86
-8.24
-8.14
-7.21
-5.36
-2.79
0.07
2.73
4.81
6.14
6.81
7.05
7.01
6.66
5.83
4.27
1.85
-1.38
-5.27
-9.69
-14.57
-19.8
-25.16
-30.07
-33.8
-35.65
-35.31
-33.05
-29.61
-25.89
-22.54
-19.69
-17.06
-14.22
-10.97
-7.49
-4.31
-2.01
-0.89
-0.82
-1.35
-2.02
-2.62
-3.37
-4.8
-7.42
-11.39
-16.48
-22.1
-27.48
-32.04
-35.4
-37.45
-38.21
-37.82
-36.32
-33.8
-30.25
-25.67
-20.02
-13.23
-5.15
4.34
15.3
27.55
40.59
53.58
65.44
75.16
82.09
86.09
87.52
86.97
84.99
81.92
77.91
73.08
67.66
61.99
56.41
51.06
45.9
40.68
35.17
29.26
22.97
16.48
10.06
4.01
-1.31
-5.41
-7.88
-8.39
-6.86
-3.47
1.36
7.1
13.14
18.86
23.68
27.11
28.9
29.05
27.87
25.87
23.62
21.55
19.82
18.29
16.66
14.57
11.78
8.2
3.94
-0.79
-5.78
-10.82
-15.75
-20.37
-24.48
-27.93
-30.68
-32.83
-34.57
-35.99
-36.94
-37.01
-35.67
-32.54
-27.58
-21.26
-14.34
-7.59
-1.52
3.78
8.48
12.81
16.85
20.44
23.27
25.08
25.76
25.37
24.12
22.18
19.74
17.02
14.34
12.06
10.51
9.74
9.47
9.07
7.87
5.37
1.42
-3.74
-9.7
-15.98
-22.13
-27.78
-32.51
-35.91
-37.59
-37.36
-35.29
-31.79
-27.49
-23.1
-19.15
-15.95
-13.46
-11.45
-9.68
-7.99
-6.44
-5.19
-4.44
-4.2
-4.32
-4.49
-4.41
-3.95
-3.14
-2.15
-1.2
-0.49
-0.21
-0.49
-1.47
-3.24
-5.83
-9.18
-13.03
-16.91
-20.2
-22.24
-22.52
-20.9
-17.58
-13.09
-8.01
-2.73
2.6
7.89
12.99
17.49
20.84
22.56
22.5
20.92
18.29
15.04
11.38
7.27
2.68
-2.28
-7.29
-11.95
-15.97
-19.35
-22.36
-25.47
-29.08
-33.47
-38.69
-44.57
-50.7
-56.44
-60.98
-63.5
-63.36
-60.29
-54.48
-46.54
-37.29
-27.55
-18.0
-9.11
-1.2
5.49
10.77
14.53
16.75
17.62
17.49
16.79
15.93
15.09
14.22
13.03
11.2
8.5
4.94
0.76
-3.68
-7.97
-11.76
-14.82
-17.02
-18.34
-18.86
-18.7
-17.91
-16.53
-14.5
-11.83
-8.69
-5.41
-2.38
0.14
2.16
3.93
5.81
8.02
10.5
12.94
14.96
16.25
16.75
16.59
16.08
15.55
15.29
15.47
16.12
17.1
18.18
19.17
20.0
20.69
21.29
21.78
21.97
21.57
20.36
18.37
15.91
13.48
11.54
10.24
9.34
8.38
6.91
4.8
2.34
0.21
-0.81
-0.22
2.03
5.47
9.31
12.71
15.09
16.27
16.38
15.71
14.47
12.68
10.1
6.37
1.25
-5.18
-12.5
-19.96
-26.74
-32.27
-36.37
-39.39
-41.99
-44.88
-48.37
-52.22
-55.66
-57.63
-57.24
-54.08
-48.38
-40.85
-32.51
-24.43
-17.58
-12.74
-10.27
-9.94
-10.83
-11.53
-10.63
-7.37
-1.96
4.56
10.82
15.8
19.06
20.71
21.0
20.04
17.84
14.5
10.46
6.44
3.04
0.37
-2.05
-5.02
-9.05
-13.9
-18.38
-20.74
-19.31
-13.13
-2.39
11.53
26.49
40.2
50.85
57.46
60.0
59.21
56.21
52.08
47.63
43.32
39.3
35.55
31.99
28.54
25.08
21.48
17.62
13.48
9.2
5.13
1.73
-0.47
-1.04
0.34
3.73
8.88
15.2
21.77
27.51
31.45
33.04
32.34
29.97
26.88
24.0
22.04
21.41
22.27
24.65
28.36
32.96
37.71
41.63
43.8
43.61
40.99
36.43
30.73
24.66
18.69
12.85
6.75
-0.16
-8.33
-17.92
-28.75
-40.38
-52.21
-63.6
-73.96
-82.78
-89.68
-94.55
-97.58
-99.27
-100.21
-100.78
-100.85
-99.68
-96.15
-89.06
-77.59
-61.64
-41.86
-19.54
3.67
26.2
46.72
64.4
78.83
89.86
97.47
101.72
102.82
101.28
97.94
93.82
89.75
86.06
82.44
78.14
72.49
65.27
56.86
48.0
39.36
31.22
23.31
15.09
6.06
-3.96
-14.73
-25.82
-36.81
-47.45
-57.68
-67.42
-76.4
-84.11
-89.83
-92.94
-93.19
-90.88
-86.88
-82.29
-78.0
-74.46
-71.5
-68.62
-65.38
-61.61
-57.35
-52.47
-46.39
-37.99
-26.05
-9.81
10.53
33.86
58.56
82.91
105.26
123.89
136.93
142.57
139.8
129.3
113.95
98.31
87.07
83.22
86.71
94.71
103.26
109.86
115.29
123.78
140.81
169.67
208.69
250.67
285.04
301.96
296.17
268.41
224.16
170.92
115.9
65.19
24.16
-2.5
-11.96
-5.1
12.15
29.51
35.78
23.74
-6.35
-46.57
-84.98
-111.31
-121.66
-119.77
-114.38
-114.55
-125.41
-146.82
-174.74
-204.26
-231.96
-256.69
-278.3
-295.82
-306.68
-307.7
-297.03
-275.84
-248.56
-221.15
-198.8
-183.93
-175.43
-169.47
-161.55
-148.63
-130.31
-108.87
-88.08
-71.38
-60.44
-54.64
-51.63
-48.58
-43.33
-35.08
-24.23
-11.99
0.29
11.45
20.61
27.21
30.97
32.01
30.82
28.28
25.4
22.98
21.38
20.38
19.35
17.55
14.49
10.21
5.38
1.23
-0.86
0.27
5.15
13.45
24.04
35.42
46.1
55.04
61.83
66.57
69.64
71.45
72.23
72.07
70.92
68.71
65.41
61.03
55.67
49.53
42.85
35.96
29.17
22.73
16.77
11.36
6.6
2.69
-0.09
-1.49
-1.46
-0.29
1.35
2.55
2.38
0.15
-4.4
-10.97
-18.76
-26.73
-33.86
-39.43
-43.08
-44.75
-44.45
-42.14
-37.8
-31.71
-24.6
-17.55
-11.69
-7.59
-5.0
-2.92
-0.12
4.21
10.08
16.72
23.02
28.03
31.36
33.16
33.83
33.75
33.21
32.42
31.74
31.65
32.62
34.87
38.11
41.6
44.28
45.15
43.63
39.63
33.54
26.04
17.85
9.64
2.0
-4.52
-9.4
-12.18
-12.66
-10.98
-7.78
-4.01
-0.6
1.9
3.61
5.24
7.67
11.48
16.52
21.88
26.2
28.2
27.13
23.14
17.14
10.54
4.76
0.79
-1.01
-0.95
0.29
1.9
3.36
4.47
5.33
6.18
7.21
8.4
9.46
9.88
9.06
6.48
1.87
-4.56
-12.06
-19.45
-25.42
-28.92
-29.46
-27.38
-23.7
-19.87
-17.29
-16.78
-18.34
-21.39
-25.27
-30.01
-36.43
-45.66
-57.99
-71.85
-83.7
-89.13
-84.66
-69.34
-45.04
-15.53
15.27
44.58
71.14
94.5
114.12
128.93
137.67
139.61
135.21
126.12
114.48
102.2
90.35
79.03
67.7
55.64
42.43
28.16
13.53
-0.41
-12.48
-21.69
-27.42
-29.53
-28.28
-24.28
-18.41
-11.72
-5.32
-0.25
2.7
3.03
0.65
-4.11
-10.43
-17.11
-22.73
-26.09
-26.57
-24.41
-20.61
-16.59
-13.67
-12.58
-13.34
-15.46
-18.22
-21.0
-23.43
-25.39
-27.0
-28.49
-30.15
-32.25
-34.84
-37.71
-40.33
-41.95
-41.88
-39.7
-35.47
-29.73
-23.33
-17.11
-11.68
-7.27
-3.73
-0.74
2.0
4.62
7.04
9.07
10.59
11.62
12.29
12.83
13.36
13.83
13.99
13.49
12.02
9.37
5.61
0.98
-4.02
-8.88
-13.14
-16.54
-19.08
-21.0
-22.7
-24.49
-26.47
-28.36
-29.66
-29.77
-28.27
-25.12
-20.63
-15.3
-9.62
-3.97
1.42
6.31
10.39
13.33
14.97
15.44
15.24
15.04
15.42
16.59
18.27
19.83
20.56
19.99
18.12
15.35
12.35
9.76
7.93
6.8
5.98
4.95
3.38
1.21
-1.29
-3.77
-5.92
-7.68
-9.04
-10.08
-10.72
-10.87
-10.44
-9.45
-8.12
-6.71
-5.4
-4.18
-2.75
-0.74
2.2
6.07
10.58
15.08
18.85
21.27
22.08
21.43
19.81
17.79
15.77
13.82
11.71
9.12
5.86
2.05
-1.92
-5.48
-8.17
-9.82
-10.6
-11.0
-11.68
-13.28
-16.24
-20.66
-26.19
-31.99
-36.89
-39.65
-39.29
-35.45
-28.48
-19.41
-9.6
-0.39
7.28
13.07
17.15
19.97
22.0
23.48
24.44
24.76
24.33
23.26
21.79
20.2
18.63
17.01
15.07
12.56
9.4
5.73
1.89
-1.77
-5.1
-8.16
-11.27
-14.77
-18.95
-23.86
-29.24
-34.57
-39.16
-42.25
-43.25
-41.83
-38.01
-32.14
-24.75
-16.48
-7.91
0.42
8.02
14.42
19.2
22.05
22.87
21.87
19.47
16.25
12.78
9.57
6.98
5.19
4.27
4.12
4.5
5.08
5.55
5.64
5.31
4.66
3.89
3.14
2.34
1.17
-0.68
-3.46
-7.07
-11.02
-14.61
-17.09
-17.95
-17.01
-14.45
-10.71
-6.28
-1.65
2.85
6.96
10.53
13.37
15.32
16.21
15.96
14.7
12.75
10.57
8.64
7.2
6.27
5.66
5.06
4.28
3.33
2.37
1.56
0.97
0.51
-0.14
-1.32
-3.39
-6.59
-10.93
-16.19
-21.75
-26.75
-30.23
-31.4
-29.92
-26.02
-20.36
-13.78
-6.96
-0.27
6.23
12.59
18.76
24.57
29.65
33.62
36.23
37.36
37.04
35.42
32.72
29.19
25.17
20.94
16.73
12.71
9.02
5.78
3.1
1.08
-0.29
-1.14
-1.81
-2.81
-4.7
-7.99
-12.84
-18.94
-25.44
-31.1
-34.65
-35.21
-32.48
-26.9
-19.36
-10.86
-2.28
5.73
12.72
18.31
22.1
23.88
23.69
21.94
19.33
16.63
14.43
12.91
11.91
11.05
9.98
8.57
6.91
5.24
3.84
2.81
2.12
1.54
0.78
-0.48
-2.49
-5.3
-8.72
-12.33
-15.46
-17.46
-17.77
-16.13
-12.67
-7.82
-2.26
3.32
8.34
12.47
15.6
17.75
19.05
19.6
19.49
18.81
17.67
16.21
14.48
12.49
10.14
7.37
4.24
1.0
-1.9
-4.1
-5.39
-5.91
-6.05
-6.38
-7.38
-9.34
-12.28
-15.9
-19.75
-23.19
-25.55
-26.25
-24.91
-21.49
-16.31
-10.01
-3.29
3.19
8.99
13.87
17.73
20.54
22.32
23.2
23.41
23.33
23.3
23.57
24.11
24.63
24.75
24.09
22.48
19.93
16.61
12.68
8.21
3.18
-2.46
-8.67
-15.3
-22.05
-28.45
-33.85
-37.53
-38.78
-37.1
-32.48
-25.46
-17.02
-8.4
-0.64
5.53
9.88
12.49
13.66
13.75
13.21
12.49
12.01
12.02
12.49
13.15
13.54
13.25
12.11
10.23
7.94
5.64
3.64
2.06
0.88
-0.13
-1.22
-2.68
-4.68
-7.23
-10.07
-12.72
-14.54
-14.89
-13.33
-9.76
-4.41
2.18
9.38
16.5
22.97
28.27
32.07
34.12
34.32
32.73
29.58
25.25
20.21
14.97
10.0
5.71
2.35
0.02
-1.34
-1.96
-2.13
-2.22
-2.63
-3.77
-6.06
-9.84
-15.24
-21.95
-29.2
-35.79
-40.35
-41.77
-39.46
-33.61
-25.07
-15.08
-4.95
4.23
11.76
17.3
20.79
22.41
22.47
21.37
19.58
17.56
15.68
14.2
13.2
12.58
12.13
11.59
10.74
9.52
8.0
6.39
4.88
3.56
2.36
1.06
-0.54
-2.45
-4.41
-5.9
-6.27
-5.1
-2.31
1.63
5.95
9.82
12.68
14.51
15.62
16.53
17.63
18.99
20.43
21.72
22.71
23.48
24.08
24.46
24.31
23.15
20.56
16.46
11.18
5.47
0.15
-4.14
-7.26
-9.51
-11.5
-13.87
-16.99
-20.91
-25.3
-29.65
-33.35
-35.88
-36.88
-36.21
-33.91
-30.23
-25.5
-20.1
-14.41
-8.81
-3.69
0.51
3.4
4.76
4.61
3.29
1.34
-0.69
-2.34
-3.45
-4.16
-4.81
-5.87
-7.7
-10.48
-14.06
-18.04
-21.84
-24.92
-26.86
-27.51
-26.9
-25.25
-22.85
-20.1
-17.35
-14.94
-12.99
-11.4
-9.76
-7.43
-3.66
2.12
10.04
19.61
29.74
38.99
46.01
50.01
50.9
49.39
46.61
43.79
41.99
41.76
43.14
45.52
47.82
48.83
47.71
44.52
40.41
37.19
36.5
38.95
43.67
48.58
51.29
50.0
44.24
34.73
23.06
11.03
0.2
-8.38
-14.26
-17.5
-18.64
-18.34
-17.07
-14.79
-10.96
-4.91
3.52
13.51
23.27
30.66
34.05
33.0
28.37
21.77
14.76
8.39
3.16
-0.55
-2.16
-0.91
3.5
10.26
17.18
21.32
20.15
12.83
0.86
-12.44
-23.24
-28.76
-28.31
-23.26
-16.12
-9.24
-3.85
0.11
3.5
7.11
11.09
14.91
17.75
19.07
18.77
17.04
13.95
9.13
2.03
-7.57
-19.03
-30.87
-41.34
-49.36
-55.12
-59.98
-65.61
-72.93
-81.48
-89.71
-95.8
-98.63
-98.15
-95.01
-89.83
-82.68
-73.09
-60.71
-45.85
-29.68
-13.75
0.63
12.91
23.23
32.02
39.51
45.68
50.38
53.7
56.05
58.07
60.22
62.54
64.62
65.87
65.93
64.87
63.17
61.37
59.78
58.35
56.67
54.3
50.97
46.65
41.5
35.66
29.22
22.26
15.1
8.37
2.9
-0.59
-1.86
-1.18
0.9
3.99
8.27
14.37
23.08
34.88
49.64
66.8
85.6
105.36
125.31
144.35
160.73
172.28
177.04
174.01
163.89
148.9
132.13
116.39
103.3
92.87
83.92
74.85
64.68
53.6
42.85
34.05
28.33
25.66
24.87
24.27
22.46
18.92
14.16
9.15
4.77
1.32
-1.61
-4.81
-9.08
-14.9
-22.29
-30.87
-39.97
-48.77
-56.44
-62.49
-66.88
-70.1
-73.07
-76.74
-81.83
-88.54
-96.61
-105.33
-113.89
-121.55
-127.72
-132.06
-134.39
-134.7
-133.11
-129.89
-125.49
-120.49
-115.47
-110.92
-107.09
-103.98
-101.44
-99.26
-97.29
-95.46
-93.69
-91.91
-89.97
-87.73
-85.09
-81.98
-78.37
-74.23
-69.5
-64.17
-58.33
-52.23
-46.25
-40.82
-36.18
-32.42
-29.38
-26.8
-24.41
-22.06
-19.78
-17.68
-15.92
-14.58
-13.64
-12.98
-12.47
-12.03
-11.67
-11.51
-11.75
-12.58
-14.07
-16.15
-18.47
-20.45
-21.35
-20.49
-17.46
-12.33
-5.76
1.21
7.37
11.82
14.12
14.34
12.93
10.37
7.05
3.26
-0.66
-4.26
-6.94
-8.22
-7.93
-6.28
-3.78
-0.94
1.92
4.65
7.21
9.45
11.11
11.93
11.78
10.82
9.41
7.94
6.68
5.68
4.84
4.05
3.27
2.63
2.37
2.76
4.0
6.02
8.56
11.15
13.27
14.57
14.95
14.51
13.5
12.18
10.68
9.06
7.3
5.41
3.43
1.52
-0.12
-1.31
-1.98
-2.18
-2.08
-1.95
-1.97
-2.23
-2.74
-3.48
-4.43
-5.64
-7.11
-8.71
-10.19
-11.25
-11.67
-11.34
-10.37
-8.92
-7.17
-5.18
-3.01
-0.68
1.74
4.14
6.44
8.61
10.69
12.69
14.59
16.17
17.14
17.12
15.92
13.59
10.47
7.13
4.13
1.83
0.28
-0.77
-1.73
-2.95
-4.66
-6.9
-9.54
-12.29
-14.68
-16.22
-16.5
-15.36
-13.06
-10.21
-7.53
-5.59
-4.58
-4.3
-4.32
-4.3
-4.12
-3.87
-3.69
-3.65
-3.68
-3.62
-3.4
-3.02
-2.59
-2.18
-1.77
-1.26
-0.56
0.33
1.29
2.16
2.83
3.32
3.68
3.92
3.94
3.53
2.6
1.28
-0.11
-1.11
-1.41
-0.93
0.12
1.43
2.68
3.71
4.46
4.9
5.0
4.72
4.16
3.5
3.01
2.92
3.23
3.73
4.06
3.91
3.16
1.95
0.54
-0.87
-2.26
-3.82
-5.76
-8.14
-10.73
-13.11
-14.82
-15.68
-15.78
-15.45
-14.95
-14.29
-13.22
-11.4
-8.69
-5.31
-1.75
1.53
4.28
6.59
8.73
10.83
12.78
14.21
14.67
13.97
12.23
9.83
7.24
4.75
2.45
0.2
-2.11
-4.48
-6.69
-8.44
-9.47
-9.68
-9.19
-8.29
-7.25
-6.23
-5.18
-3.95
-2.42
-0.59
1.31
2.92
3.93
4.16
3.7
2.8
1.82
1.02
0.59
0.6
1.1
2.11
3.67
5.74
8.14
10.58
12.74
14.41
15.59
16.51
17.5
18.78
20.34
21.82
22.71
22.46
20.78
17.79
13.99
10.15
7.01
5.07
4.42
4.78
5.65
6.4
6.58
6.06
5.1
4.37
4.64
6.45
9.89
14.4
19.04
22.8
25.0
25.43
24.29
21.86
18.27
13.47
7.46
0.49
-6.81
-13.63
-19.22
-23.2
-25.66
-26.91
-27.29
-26.93
-25.73
-23.56
-20.47
-16.82
-13.28
-10.58
-9.19
-9.14
-10.03
-11.23
-12.18
-12.76
-13.26
-14.33
-16.61
-20.4
-25.51
-31.27
-36.86
-41.54
-44.95
-47.11
-48.33
-49.09
-49.93
-51.37
-53.68
-56.6
-59.13
-59.59
-56.04
-47.03
-32.35
-13.25
7.85
28.21
45.7
59.32
69.16
75.87
80.09
82.08
81.86
79.42
75.1
69.64
63.98
59.08
55.58
53.7
53.25
53.76
54.72
55.71
56.49
56.9
56.81
55.96
53.95
50.43
45.19
38.31
30.15
21.31
12.47
4.25
-2.85
-8.56
-12.85
-15.91
-18.13
-19.88
-21.45
-22.93
-24.26
-25.27
-25.85
-25.98
-25.78
-25.48
-25.27
-25.36
-25.9
-26.94
-28.5
-30.49
-32.7
-34.93
-36.96
-38.62
-39.77
-40.26
-39.92
-38.59
-36.19
-32.78
-28.62
-23.96
-19.02
-13.76
-8.01
-1.53
5.74
13.51
21.21
28.1
33.55
37.2
39.03
39.23
38.06
35.71
32.27
27.71
22.06
15.52
8.55
1.78
-4.17
-8.91
-12.43
-14.98
-16.89
-18.4
-19.46
-19.93
-19.7
-18.87
-17.69
-16.48
-15.41
-14.47
-13.54
-12.48
-11.32
-10.18
-9.23
-8.64
-8.42
-8.49
-8.7
-8.83
-8.64
-7.94
-6.61
-4.64
-2.14
0.65
3.42
5.86
7.71
8.82
9.09
8.55
7.3
5.53
3.55
1.79
0.63
0.32
0.91
2.19
3.85
5.6
7.25
8.8
10.35
12.04
13.92
15.83
17.48
18.45
18.34
16.96
14.29
10.61
6.3
1.76
-2.68
-6.75
-10.29
-13.14
-15.26
-16.79
-17.98
-19.09
-20.16
-20.92
-20.87
-19.51
-16.65
-12.54
-7.79
-3.16
0.74
3.59
5.34
6.13
6.14
5.58
4.66
3.58
2.5
1.42
0.18
-1.38
-3.4
-5.76
-8.14
-10.16
-11.55
-12.27
-12.61
-12.97
-13.78
-15.31
-17.62
-20.55
-23.7
-26.51
-28.39
-28.89
-27.83
-25.39
-22.03
-18.36
-14.89
-11.95
-9.62
-7.85
-6.52
-5.46
-4.51
-3.44
-2.07
-0.34
1.6
3.41
4.73
5.4
5.51
5.41
5.46
5.84
6.44
6.95
7.08
6.75
6.16
5.68
5.64
6.18
7.17
8.29
9.19
9.62
9.44
8.67
7.45
6.0
4.56
3.42
2.78
2.81
3.53
4.9
6.72
8.71
10.41
11.3
10.85
8.74
4.96
-0.12
-5.79
-11.36
-16.28
-20.33
-23.49
-25.74
-26.9
-26.58
-24.36
-20.02
-13.74
-6.08
2.09
9.94
16.78
22.25
26.27
29.04
30.84
31.96
32.59
32.68
32.03
30.37
27.54
23.73
19.37
15.07
11.28
8.15
5.44
2.73
-0.29
-3.67
-7.07
-9.95
-11.85
-12.66
-12.67
-12.43
-12.54
-13.38
-14.91
-16.76
-18.39
-19.45
-20.01
-20.66
-22.44
-26.32
-32.87
-41.75
-51.7
-60.61
-66.08
-65.95
-59.13
-46.09
-29.09
-11.88
1.18
6.26
1.3
-13.29
-34.65
-58.27
-79.37
-94.26
-101.22
-100.57
-93.99
-83.37
-70.04
-54.63
-37.58
-19.88
-3.25
10.24
19.22
23.74
25.27
25.85
27.03
29.13
31.47
33.14
33.77
33.69
33.56
33.72
33.84
33.17
31.11
27.6
23.34
19.52
17.43
18.09
21.81
27.95
34.97
40.73
43.28
41.64
36.32
29.08
22.17
17.14
14.24
12.38
9.86
5.36
-1.36
-9.5
-17.69
-24.89
-30.87
-36.17
-41.61
-47.75
-54.57
-61.61
-68.39
-74.61
-80.13
-84.8
-88.3
-90.29
-90.55
-88.95
-85.33
-79.32
-70.69
-59.82
-47.99
-37.0
-28.3
-22.03
-16.91
-11.16
-3.76
4.95
13.73
21.88
30.2
40.93
56.21
76.49
99.81
122.69
141.9
155.91
164.98
170.19
172.3
171.29
166.99
160.02
152.2
145.99
143.27
144.12
146.62
147.5
143.55
132.8
114.99
91.35
63.9
34.78
6.02
-20.57
-43.45
-61.53
-74.39
-82.32
-86.1
-86.47
-83.88
-78.37
-69.94
-58.92
-46.45
-34.36
-24.81
-19.67
-19.92
-25.35
-34.62
-45.61
-56.07
-64.31
-69.66
-72.5
-73.92
-75.1
-76.72
-78.67
-79.92
-78.76
-73.3
-62.21
-45.37
-24.15
-1.15
20.52
38.22
50.42
57.04
59.22
58.84
58.0
58.53
61.64
67.59
75.51
83.55
89.41
91.18
88.16
81.16
72.12
63.28
56.28
51.65
48.78
46.39
43.2
38.56
32.54
25.86
19.46
14.15
10.34
8.07
7.06
6.95
7.4
8.07
8.57
8.41
7.04
4.12
0.01
-4.2
-6.85
-6.48
-2.74
3.22
9.07
12.4
11.93
8.27
3.54
0.31
0.31
3.7
9.2
14.99
19.59
22.41
23.64
23.9
23.78
23.65
23.66
23.85
24.11
24.16
23.56
21.78
18.44
13.6
7.89
2.46
-1.27
-2.05
0.77
7.08
15.96
26.03
35.8
44.16
50.5
54.82
57.5
59.01
59.72
59.87
59.63
59.27
59.22
59.98
61.82
64.58
67.58
69.84
70.54
69.29
66.22
61.69
56.07
49.49
41.93
33.31
23.61
12.87
1.14
-11.46
-24.51
-37.14
-48.03
-55.64
-58.85
-57.39
-51.99
-44.1
-35.28
-26.7
-18.93
-12.07
-6.1
-1.24
1.95
2.78
0.71
-4.27
-11.54
-19.97
-28.32
-35.62
-41.4
-45.67
-48.71
-50.85
-52.26
-52.99
-53.15
-52.97
-52.87
-53.36
-54.89
-57.62
-61.34
-65.42
-69.0
-71.16
-71.2
-68.84
-64.18
-57.64
-49.75
-40.92
-31.41
-21.35
-10.92
-0.47
9.52
18.51
26.06
32.03
36.47
39.53
41.27
41.6
40.31
37.29
32.76
27.28
21.69
16.73
12.86
10.09
8.05
6.18
3.91
0.88
-3.02
-7.56
-12.19
-16.14
-18.6
-18.97
-17.0
-12.84
-6.97
-0.05
7.2
14.03
19.63
23.29
24.47
23.07
19.44
14.43
9.04
4.22
0.61
-1.52
-2.25
-1.94
-1.11
-0.35
-0.16
-0.86
-2.44
-4.66
-7.13
-9.53
-11.75
-13.93
-16.31
-19.15
-22.52
-26.23
-29.87
-32.89
-34.83
-35.41
-34.7
-33.11
-31.34
-30.12
-29.99
-31.08
-33.15
-35.76
-38.58
-41.58
-45.0
-49.16
-54.17
-59.8
-65.47
-70.58
-74.74
-77.89
-80.2
-81.84
-82.77
-82.8
-81.74
-79.65
-76.84
-73.63
-69.99
-65.37
-58.93
-49.95
-38.38
-24.88
-10.54
3.78
17.8
31.81
46.11
60.4
73.5
83.7
89.55
90.62
87.83
83.01
78.1
74.38
72.11
70.73
69.33
67.18
64.08
60.32
56.43
52.88
49.75
46.7
43.05
37.98
30.89
21.62
10.52
-1.6
-13.65
-24.39
-32.51
-36.65
-35.51
-28.05
-13.89
6.42
31.34
58.62
85.89
111.13
133.04
151.03
164.95
174.72
180.07
180.48
175.26
163.92
146.5
123.79
97.37
69.29
41.49
15.3
-8.84
-31.24
-52.49
-72.93
-92.32
-109.97
-125.03
-136.82
-144.97
-149.31
-149.7
-145.98
-138.14
-126.53
-112.02
-95.93
-79.72
-64.69
-51.69
-41.08
-32.78
-26.52
-21.94
-18.65
-16.3
-14.48
-12.84
-11.1
-9.08
-6.74
-4.21
-1.68
0.62
2.42
3.48
3.55
2.45
0.04
-3.65
-8.33
-13.42
-18.06
-21.23
-22.0
-19.82
-14.76
-7.52
0.67
8.42
14.56
18.42
19.83
19.06
16.59
13.05
9.09
5.38
2.45
0.59
-0.32
-0.73
-1.24
-2.27
-3.91
-5.87
-7.68
-8.95
-9.49
-9.36
-8.73
-7.86
-7.05
-6.64
-6.98
-8.26
-10.36
-12.85
-15.03
-16.17
-15.74
-13.57
-9.86
-5.12
0.06
5.07
9.48
13.0
15.47
16.9
17.34
16.94
15.92
14.56
13.17
12.01
11.25
10.99
11.22
11.84
12.67
13.38
13.53
12.51
9.78
5.03
-1.6
-9.5
-17.66
-24.88
-30.16
-32.86
-32.89
-30.63
-26.79
-22.14
-17.35
-12.87
-8.9
-5.52
-2.71
-0.39
1.53
3.23
4.88
6.59
8.28
9.69
10.36
9.94
8.23
5.35
1.66
-2.38
-6.42
-10.25
-13.94
-17.67
-21.58
-25.65
-29.56
-32.71
-34.38
-33.97
-31.23
-26.38
-20.02
-12.9
-5.6
1.62
8.77
16.0
23.29
30.4
36.85
41.98
45.19
46.04
44.41
40.52
34.94
28.39
21.68
15.48
10.21
6.0
2.74
0.16
-2.13
-4.59
-7.64
-11.63
-16.64
-22.36
-28.08
-32.7
-35.12
-34.55
-30.81
-24.46
-16.54
-8.26
-0.6
5.85
10.87
14.41
16.41
16.84
15.74
13.48
10.73
8.34
7.07
7.32
8.95
11.39
13.84
15.52
15.91
14.84
12.51
9.41
6.2
3.56
2.03
1.91
3.13
5.21
7.37
8.72
8.64
7.01
4.35
1.65
-0.0
0.16
2.34
6.18
11.01
16.17
21.18
25.73
29.58
32.51
34.29
34.84
34.24
32.63
30.19
26.98
23.09
18.76
14.47
10.88
8.57
7.76
8.16
9.04
9.48
8.63
5.97
1.37
-4.8
-11.66
-17.84
-21.75
-21.93
-17.56
-8.71
3.7
18.3
33.61
48.38
61.53
72.13
79.43
82.98
82.93
80.09
75.67
70.87
66.35
62.07
57.43
51.68
44.25
34.99
24.16
12.26
-0.03
-11.96
-22.82
-32.05
-39.46
-45.39
-50.58
-55.87
-61.78
-68.22
-74.36
-78.93
-80.77
-79.17
-74.27
-66.88
-58.16
-49.15
-40.54
-32.54
-25.11
-18.2
-11.74
-5.76
-0.15
5.28
10.76
16.25
21.33
25.22
27.06
26.22
22.62
16.73
9.36
1.32
-6.82
-14.81
-22.65
-30.37
-37.86
-44.82
-50.76
-55.14
-57.45
-57.43
-55.07
-50.63
-44.63
-37.63
-30.24
-22.99
-16.32
-10.63
-6.24
-3.33
-1.96
-1.96
-3.06
-4.9
-7.2
-9.71
-12.24
-14.6
-16.58
-17.9
-18.35
-17.81
-16.31
-14.09
-11.51
-9.08
-7.33
-6.73
-7.57
-9.79
-12.93
-16.16
-18.54
-19.3
-18.13
-15.26
-11.26
-6.85
-2.56
1.31
4.57
7.04
8.47
8.57
7.21
4.54
0.96
-3.01
-6.89
-10.34
-13.13
-15.12
-16.2
-16.33
-15.66
-14.61
-13.8
-13.87
-15.27
-18.13
-22.27
-27.26
-32.57
-37.62
-41.9
-44.94
-46.44
-46.32
-44.72
-41.95
-38.45
-34.55
-30.51
-26.47
-22.61
-19.28
-16.97
-16.19
-17.23
-20.03
-24.14
-28.95
-33.96
-39.02
-44.38
-50.6
-58.2
-67.36
-77.72
-88.27
-97.44
-103.26
-103.77
-97.42
-83.59
-62.99
-37.61
-10.38
15.54
37.5
53.97
64.75
70.84
73.93
75.71
77.46
79.78
82.73
86.12
89.76
93.35
96.41
98.0
96.95
92.32
84.15
73.79
63.57
55.82
51.65
50.35
49.77
47.4
41.77
33.23
23.76
15.91
11.49
10.57
11.62
12.32
10.87
6.87
1.43
-3.46
-6.1
-5.83
-3.24
0.32
3.52
5.64
6.71
7.06
6.94
6.23
4.59
1.9
-1.46
-4.67
-6.75
-7.02
-5.4
-2.45
0.95
3.91
5.74
6.09
4.79
1.84
-2.63
-8.28
-14.5
-20.39
-24.89
-27.09
-26.42
-22.84
-16.83
-9.19
-0.79
7.63
15.6
22.85
29.1
34.04
37.23
38.35
37.27
34.33
30.18
25.69
21.71
18.76
16.98
16.12
15.63
14.87
13.32
10.72
7.27
3.57
0.48
-1.15
-0.87
1.25
4.47
7.56
9.08
7.83
3.39
-3.79
-12.4
-20.79
-27.51
-31.76
-33.42
-32.77
-30.1
-25.59
-19.48
-12.35
-5.37
-0.06
2.2
0.85
-3.66
-10.06
-16.81
-22.77
-27.39
-30.69
-32.91
-34.26
-34.82
-34.77
-34.47
-34.51
-35.41
-37.29
-39.65
-41.47
-41.56
-39.02
-33.6
-25.75
-16.45
-6.85
2.1
9.8
16.04
20.92
24.65
27.49
29.63
31.16
32.06
32.27
31.71
30.25
27.81
24.35
20.02
15.14
10.18
5.62
1.74
-1.48
-4.37
-7.32
-10.51
-13.69
-16.19
-17.16
-15.9
-12.16
-6.31
0.81
8.12
14.66
19.79
23.3
25.33
26.13
25.95
24.99
23.33
21.08
18.4
15.45
12.29
8.8
4.75
-0.11
-5.82
-12.13
-18.55
-24.5
-29.59
-33.67
-36.81
-39.04
-40.13
-39.53
-36.54
-30.75
-22.44
-12.73
-3.26
4.46
9.67
12.6
14.25
15.74
17.69
20.03
22.2
23.67
24.27
24.21
23.75
22.9
21.25
18.24
13.64
7.81
1.7
-3.58
-7.22
-9.09
-9.77
-10.17
-11.02
-12.54
-14.27
-15.41
-15.18
-13.18
-9.5
-4.54
1.29
7.9
15.57
24.78
35.86
48.69
62.58
76.36
88.73
98.62
105.37
108.84
109.25
107.03
102.63
96.47
88.95
80.36
70.96
60.84
49.99
38.45
26.42
14.34
2.89
-7.23
-15.51
-21.65
-25.59
-27.42
-27.29
-25.41
-22.18
-18.12
-13.82
-9.85
-6.59
-4.32
-3.22
-3.52
-5.35
-8.66
-13.04
-17.74
-21.87
-24.72
-26.02
-26.04
-25.41
-24.8
-24.66
-25.11
-26.04
-27.25
-28.6
-29.95
-31.11
-31.73
-31.28
-29.3
-25.64
-20.76
-15.69
-11.74
-10.1
-11.34
-15.29
-21.09
-27.55
-33.52
-38.11
-40.74
-41.11
-39.16
-35.12
-29.61
-23.6
-18.2
-14.33
-12.48
-12.65
-14.59
-17.99
-22.68
-28.53
-35.12
-41.59
-46.68
-49.12
-48.15
-43.85
-37.17
-29.61
-22.66
-17.3
-13.78
-11.66
-10.07
-8.13
-5.2
-1.07
4.1
9.95
16.14
22.32
28.18
33.37
37.38
39.71
40.02
38.31
35.02
30.88
26.65
22.82
19.5
16.49
13.45
10.22
6.93
3.99
1.91
1.1
1.71
3.58
6.34
9.57
12.85
15.86
18.24
19.67
19.84
18.63
16.08
12.47
8.08
3.05
-2.7
-9.37
-17.04
-25.38
-33.69
-41.07
-46.86
-51.02
-54.14
-57.27
-61.27
-66.38
-71.89
-76.32
-77.76
-74.62
-66.12
-52.58
-35.38
-16.6
1.55
17.4
30.34
40.87
50.47
61.09
74.6
92.21
113.93
138.38
162.75
183.34
196.55
199.92
193.01
177.61
157.15
135.58
116.27
101.31
91.62
87.32
88.26
94.03
103.53
114.71
124.7
130.55
130.29
123.74
112.65
100.0
88.8
80.92
76.62
74.7
73.23
70.52
65.62
58.6
50.21
41.45
33.26
26.22
20.57
16.35
13.53
11.86
10.75
9.08
5.39
-1.69
-12.87
-27.75
-44.86
-62.07
-77.37
-89.42
-97.81
-102.7
-104.24
-102.11
-95.68
-84.6
-69.53
-52.29
-35.16
-19.8
-6.49
5.55
17.03
27.4
34.52
35.52
28.46
13.36
-7.81
-32.4
-58.5
-85.61
-114.15
-144.31
-175.31
-205.44
-232.91
-256.71
-276.81
-293.77
-307.92
-318.79
-325.22
-325.75
-319.21
-305.11
-283.83
-256.57
-225.17
-191.85
-158.92
-128.44
-101.93
-80.2
-63.43
-51.23
-42.8
-37.04
-32.69
-28.49
-23.37
-16.62
-8.0
2.23
13.36
24.39
34.25
42.0
46.97
48.86
47.76
44.22
39.15
33.85
29.77
28.29
30.23
35.56
43.42
52.36
60.9
68.01
73.31
76.97
79.44
81.13
82.38
83.6
85.31
88.06
92.06
97.0
101.95
105.68
107.11
105.64
101.33
94.62
86.1
76.19
65.15
53.14
40.46
27.71
15.85
6.06
-0.62
-3.59
-2.98
0.32
4.9
9.28
12.44
14.11
14.69
14.91
15.37
16.22
17.16
17.63
17.26
16.0
14.24
12.47
11.04
10.01
9.15
8.17
6.98
5.68
4.48
3.43
2.3
0.58
-2.27
-6.59
-12.24
-18.58
-24.59
-29.04
-30.86
-29.34
-24.39
-16.6
-7.1
2.77
11.73
18.88
23.69
25.99
25.74
23.04
18.18
11.77
4.75
-1.86
-7.23
-11.05
-13.49
-15.09
-16.35
-17.57
-18.85
-20.15
-21.52
-23.07
-24.94
-27.16
-29.63
-32.19
-34.67
-36.91
-38.66
-39.52
-39.01
-36.67
-32.39
-26.44
-19.44
-12.11
-5.06
1.36
6.99
11.71
15.36
17.69
18.52
17.86
15.97
13.25
10.19
7.2
4.59
2.64
1.59
1.65
2.9
5.19
8.05
10.83
12.75
13.12
11.54
8.02
3.02
-2.57
-7.63
-11.1
-12.25
-10.84
-7.16
-1.75
4.91
12.6
21.43
31.64
43.25
55.85
68.46
79.63
87.79
91.62
90.43
84.39
74.43
62.01
48.69
35.83
24.35
14.7
7.01
1.18
-2.99
-5.76
-7.41
-8.26
-8.74
-9.42
-10.83
-13.33
-16.72
-20.23
-22.8
-23.51
-22.06
-18.85
-14.65
-10.1
-5.36
-0.22
5.38
11.04
15.75
18.4
18.52
16.57
13.87
11.78
10.98
10.97
10.25
6.95
-0.32
-12.0
-27.3
-44.41
-60.87
-74.09
-82.05
-83.84
-80.07
-72.67
-64.22
-56.94
-51.91
-48.78
-46.2
-42.7
-37.4
-30.36
-22.24
-13.81
-5.6
2.13
9.0
14.32
17.15
16.8
13.33
7.74
1.64
-3.31
-6.08
-6.6
-5.66
-4.42
-3.97
-4.89
-7.15
-10.18
-13.13
-15.11
-15.56
-14.46
-12.45
-10.58
-10.03
-11.51
-14.97
-19.57
-24.08
-27.4
-28.98
-29.0
-28.13
-27.14
-26.47
-26.04
-25.28
-23.47
-20.12
-15.17
-9.09
-2.66
3.39
8.62
12.99
16.73
20.1
23.11
25.53
26.97
27.17
26.15
24.16
21.57
18.61
15.2
11.06
5.8
-0.79
-8.51
-16.69
-24.29
-30.21
-33.63
-34.28
-32.5
-28.96
-24.28
-18.77
-12.32
-4.57
4.68
15.3
26.71
38.01
48.24
56.56
62.32
65.16
64.94
61.83
56.25
48.85
40.37
31.51
22.78
14.52
6.9
-0.0
-6.21
-11.8
-16.89
-21.56
-25.74
-29.13
-31.13
-31.08
-28.44
-23.05
-15.27
-5.89
4.13
13.92
22.91
30.85
37.62
43.1
47.05
49.13
49.11
47.06
43.48
39.22
35.13
31.7
28.84
25.94
22.17
16.95
10.31
2.9
-4.27
-10.26
-14.5
-16.9
-17.79
-17.65
-17.01
-16.32
-15.89
-15.94
-16.45
-17.16
-17.64
-17.39
-16.15
-13.95
-11.18
-8.4
-6.09
-4.44
-3.31
-2.3
-1.01
0.84
3.32
6.39
9.9
13.72
17.7
21.62
25.13
27.91
29.67
30.39
30.31
29.82
29.25
28.74
28.03
26.6
23.85
19.28
12.82
4.84
-3.79
-11.86
-18.15
-21.64
-21.88
-19.02
-13.77
-7.04
0.3
7.74
15.13
22.5
29.8
36.7
42.64
47.0
49.35
49.57
47.76
44.16
38.94
32.14
23.82
14.18
3.65
-7.15
-17.55
-26.99
-35.17
-42.12
-48.05
-53.26
-57.98
-62.22
-65.72
-67.92
-68.19
-65.99
-61.09
-53.72
-44.51
-34.34
-24.14
-14.72
-6.66
-0.19
4.73
8.45
11.57
14.69
18.23
22.26
26.48
30.38
33.47
35.41
36.07
35.38
33.34
30.03
25.81
21.33
17.48
15.11
14.6
15.71
17.55
18.98
18.95
16.96
13.14
8.17
3.06
-1.26
-4.09
-5.19
-4.79
-3.39
-1.56
0.29
2.0
3.63
5.35
7.15
8.91
10.33
11.19
11.49
11.52
11.76
12.66
14.37
16.74
19.31
21.56
23.14
23.94
24.07
23.71
22.96
21.72
19.81
17.04
13.34
8.83
3.73
-1.69
-7.19
-12.52
-17.31
-21.04
-23.04
-22.61
-19.2
-12.6
-3.02
8.98
22.68
37.44
52.84
68.67
84.78
100.81
116.18
130.06
141.55
149.87
154.35
154.52
150.06
140.94
127.58
111.04
93.03
75.5
60.15
47.78
38.07
29.71
20.98
10.39
-2.65
-17.6
-32.9
-46.43
-56.14
-60.67
-59.71
-54.0
-45.03
-34.63
-24.53
-16.06
-10.1
-6.99
-6.41
-7.42
-8.61
-8.54
-6.42
-2.55
1.62
4.05
2.89
-2.75
-12.6
-25.55
-40.25
-55.55
-70.6
-84.58
-96.48
-105.13
-109.61
-109.6
-105.59
-98.63
-89.81
-79.78
-68.72
-56.56
-43.48
-30.16
-17.86
-8.01
-1.75
0.5
-0.88
-4.82
-10.06
-15.5
-20.47
-24.79
-28.54
-31.88
-34.82
-37.27
-39.17
-40.57
-41.69
-42.72
-43.7
-44.45
-44.62
-43.95
-42.42
-40.28
-37.96
-35.86
-34.29
-33.42
-33.39
-34.31
-36.15
-38.62
-41.08
-42.63
-42.4
-39.8
-34.82
-27.96
-20.09
-12.09
-4.63
2.02
7.91
13.23
18.17
22.79
27.01
30.73
33.87
36.4
38.38
39.77
40.49
40.37
39.28
37.15
34.13
30.43
26.27
21.77
16.92
11.67
6.03
0.12
-5.82
-11.37
-16.12
-19.62
-21.52
-21.65
-20.08
-17.12
-13.29
-9.19
-5.4
-2.4
-0.51
0.16
-0.32
-1.65
-3.42
-5.16
-6.56
-7.5
-8.12
-8.68
-9.38
-10.32
-11.36
-12.32
-13.03
-13.47
-13.78
-14.19
-14.9
-16.03
-17.52
-19.28
-21.25
-23.35
-25.51
-27.51
-29.04
-29.69
-29.12
-27.23
-24.17
-20.3
-16.14
-12.14
-8.65
-5.83
-3.68
-2.13
-1.04
-0.34
0.01
0.06
-0.13
-0.4
-0.55
-0.38
0.16
0.92
1.6
1.9
1.68
0.99
0.03
-1.04
-2.2
-3.66
-5.69
-8.39
-11.49
-14.3
-15.95
-15.65
-13.06
-8.43
-2.43
4.08
10.39
16.05
20.92
24.91
27.97
29.96
30.81
30.62
29.73
28.61
27.64
27.02
26.62
26.15
25.24
23.59
21.03
17.56
13.28
8.31
2.84
-3.0
-9.15
-15.64
-22.55
-29.78
-36.97
-43.36
-47.96
-49.86
-48.62
-44.55
-38.53
-31.73
-25.15
-19.29
-14.2
-9.61
-5.32
-1.41
1.81
3.96
4.84
4.58
3.61
2.51
1.75
1.48
1.44
1.11
-0.05
-2.32
-5.56
-9.26
-12.87
-16.05
-18.88
-21.75
-25.09
-29.03
-33.21
-36.87
-39.03
-38.89
-35.95
-30.12
-21.78
-11.73
-1.19
8.34
15.36
18.91
18.99
16.88
14.72
14.71
18.05
24.23
31.25
36.61
38.79
38.07
36.49
36.68
40.23
46.79
54.22
59.76
61.42
58.7
52.32
43.44
32.87
21.02
8.31
-4.31
-15.34
-23.26
-27.24
-27.45
-24.66
-19.6
-12.43
-2.95
8.47
20.14
29.08
32.37
28.83
20.21
10.68
4.87
5.49
12.05
21.31
29.33
33.98
36.54
41.35
53.61
76.37
108.32
143.45
173.0
188.66
185.57
163.68
127.04
81.64
33.17
-14.24
-57.8
-95.19
-124.14
-142.81
-150.89
-150.27
-144.57
-137.56
-131.32
-125.37
-117.0
-103.02
-81.86
-55.09
-27.31
-4.69
7.54
7.14
-4.32
-22.56
-42.75
-61.68
-78.72
-95.23
-112.79
-131.74
-150.78
-167.76
-180.96
-189.86
-194.81
-195.88
-191.59
-178.55
-152.61
-110.89
-53.8
14.47
87.32
158.52
224.68
286.07
345.18
403.68
459.86
507.97
540.13
549.22
531.58
487.77
421.77
339.73
249.39
160.02
81.73
23.35
-10.51
-21.85
-18.94
-13.15
-14.13
-26.06
-46.77
-70.18
-90.16
-103.67
-111.39
-116.25
-120.91
-126.2
-131.04
-133.5
-132.1
-126.58
-117.81
-107.31
-96.62
-86.94
-78.81
-72.33
-67.41
-64.01
-62.28
-62.46
-64.52
-67.94
-71.7
-74.56
-75.71
-75.17
-73.89
-73.31
-74.58
-77.88
-82.13
-85.43
-85.82
-82.07
-74.07
-62.73
-49.34
-35.12
-20.83
-6.9
6.42
18.78
29.78
39.04
46.34
51.72
55.42
57.84
59.33
60.04
59.83
58.41
55.57
51.6
47.52
44.89
45.32
49.58
57.03
65.54
72.24
74.56
71.18
62.26
49.11
33.55
17.46
2.63
-9.15
-16.21
-17.55
-13.54
-6.37
0.34
2.81
-1.25
-11.55
-25.03
-37.09
-43.37
-41.41
-31.62
-16.95
-1.7
10.03
15.81
15.42
10.49
3.48
-3.4
-8.84
-12.48
-14.38
-14.61
-13.03
-9.64
-4.86
0.23
4.3
6.4
6.51
5.54
4.87
5.5
7.53
10.09
11.88
11.8
9.42
5.09
-0.37
-6.04
-11.31
-15.98
-20.25
-24.37
-28.24
-31.13
-31.85
-29.29
-23.2
-14.77
-6.43
-0.97
-0.34
-4.74
-12.63
-21.63
-29.69
-35.94
-40.66
-44.55
-47.94
-50.3
-50.49
-47.28
-40.13
-29.47
-16.8
-4.21
6.17
12.9
15.65
15.27
13.19
10.55
7.49
3.08
-4.03
-14.47
-27.47
-40.91
-52.07
-58.6
-59.21
-53.82
-43.27
-29.2
-13.82
0.27
10.61
15.66
15.42
11.55
6.59
2.74
0.69
-0.54
-2.96
-8.21
-16.54
-26.53
-35.72
-41.71
-43.04
-39.49
-31.8
-21.08
-8.31
6.02
21.74
38.54
55.4
70.22
80.01
81.62
72.9
53.69
26.3
-4.78
-34.08
-56.55
-69.05
-70.97
-64.11
-51.84
-37.87
-25.13
-15.28
-8.52
-4.11
-0.93
1.87
4.63
7.38
10.07
12.65
14.98
16.53
16.46
13.94
8.72
1.39
-6.64
-13.72
-18.57
-20.67
-20.21
-17.77
-14.03
-9.65
-5.38
-2.07
-0.47
-0.78
-2.2
-3.02
-1.36
3.76
11.68
20.11
26.15
27.56
23.81
16.22
7.1
-1.29
-7.66
-11.82
-14.18
-15.18
-15.14
-14.25
-12.92
-11.78
-11.4
-11.91
-12.89
-13.65
-13.67
-12.82
-11.32
-9.32
-6.74
-3.37
0.83
5.46
9.78
13.18
15.69
17.92
20.61
23.84
26.58
27.04
23.54
15.58
4.23
-8.21
-19.32
-27.56
-32.78
-35.93
-38.27
-40.55
-42.68
-43.93
-43.52
-41.07
-36.86
-31.6
-26.12
-21.03
-16.45
-12.02
-7.11
-1.34
5.06
11.13
15.57
17.54
17.45
17.1
18.98
24.94
34.96
46.77
56.78
61.71
60.17
53.22
43.63
34.45
27.6
23.28
20.37
17.32
13.18
8.07
3.09
-0.25
-0.82
1.44
5.49
9.53
11.92
12.1
10.98
10.48
12.5
17.77
25.36
33.18
39.2
42.58
44.03
45.15
47.12
49.63
50.8
48.15
40.04
26.72
10.46
-5.46
-18.12
-26.01
-29.27
-29.04
-26.48
-22.04
-15.47
-6.32
5.31
18.38
31.03
41.2
47.42
49.37
47.88
44.45
40.54
36.92
33.6
30.08
25.86
20.93
15.83
11.29
7.72
4.83
1.65
-3.08
-10.16
-19.45
-29.75
-39.32
-46.6
-50.86
-52.23
-51.31
-48.61
-44.23
-38.07
-30.43
-22.41
-15.87
-12.62
-13.49
-17.66
-22.92
-26.76
-27.69
-26.04
-23.8
-23.55
-27.12
-34.53
-44.05
-52.99
-59.0
-61.12
-60.03
-57.63
-56.11
-57.02
-60.78
-66.63
-72.95
-77.72
-79.14
-76.14
-68.74
-58.09
-46.02
-34.4
-24.42
-16.3
-9.36
-2.61
4.76
13.18
22.65
32.84
42.99
51.81
57.59
58.7
54.31
45.02
32.91
20.8
11.14
5.01
1.86
-0.12
-2.94
-7.96
-15.4
-24.4
-33.47
-41.11
-46.35
-48.98
-49.52
-48.8
-47.54
-46.03
-44.01
-40.87
-36.04
-29.13
-20.09
-9.01
3.81
17.82
31.97
44.62
53.83
57.95
56.28
49.48
39.52
28.85
19.62
12.79
7.91
3.38
-2.74
-11.92
-24.54
-39.7
-55.52
-69.71
-80.13
-85.28
-84.48
-77.83
-66.05
-50.29
-32.07
-13.19
4.44
19.17
29.95
36.67
40.07
41.38
41.85
42.21
42.56
42.49
41.47
39.29
36.22
32.89
29.92
27.62
25.82
23.93
21.32
17.68
13.25
8.95
6.04
5.68
8.43
13.93
21.02
28.19
34.13
38.18
40.37
41.18
41.15
40.71
40.17
40.02
40.78
42.69
45.28
47.18
46.53
41.87
33.04
21.52
9.96
1.13
-3.21
-2.84
1.1
6.77
12.53
17.48
21.45
24.83
28.01
31.06
33.55
34.72
33.77
30.32
24.65
17.58
10.11
2.96
-3.59
-9.6
-15.02
-19.48
-22.35
-23.24
-22.51
-21.28
-21.01
-22.68
-26.14
-30.0
-32.23
-31.08
-25.92
-17.51
-7.67
1.41
8.0
11.28
11.47
9.51
6.57
3.54
0.63
-2.64
-7.14
-13.54
-21.81
-31.04
-39.68
-46.12
-49.29
-48.96
-45.73
-40.69
-35.02
-29.65
-25.17
-21.71
-19.08
-16.78
-14.22
-10.97
-7.01
-2.71
1.18
3.91
4.9
3.93
0.97
-3.79
-10.12
-17.61
-25.62
-33.37
-40.02
-44.96
-47.87
-48.73
-47.68
-44.93
-40.69
-35.3
-29.19
-22.87
-16.79
-11.24
-6.45
-2.65
-0.2
0.6
-0.31
-2.47
-4.83
-6.1
-5.18
-1.65
4.13
11.23
18.66
25.73
32.1
37.66
42.16
45.28
46.67
46.28
44.42
41.63
38.37
34.79
30.84
26.5
22.14
18.61
17.12
18.66
23.6
31.34
40.28
48.09
52.37
51.33
44.54
33.29
20.35
9.1
2.4
1.56
5.94
13.35
20.99
26.53
28.72
27.53
23.75
18.51
12.82
7.55
3.3
0.4
-1.21
-2.1
-3.21
-5.62
-10.13
-16.82
-25.01
-33.33
-40.11
-43.83
-43.39
-38.42
-29.38
-17.61
-5.16
5.6
12.71
15.27
13.82
10.21
6.78
5.46
6.96
10.53
14.46
16.85
16.34
12.5
5.7
-3.24
-13.34
-23.51
-32.59
-39.38
-42.89
-42.55
-38.49
-31.39
-22.2
-11.79
-0.7
10.66
21.79
31.83
39.75
44.67
46.38
45.46
43.1
40.51
38.43
36.85
35.22
32.93
29.7
25.76
21.58
17.46
13.21
8.26
2.0
-5.77
-14.61
-23.62
-31.79
-38.59
-44.1
-48.9
-53.64
-58.58
-63.39
-67.34
-69.58
-69.52
-66.98
-62.16
-55.49
-47.51
-38.84
-30.31
-22.91
-17.74
-15.52
-16.16
-18.46
-20.22
-18.95
-12.76
-1.3
13.95
30.0
43.39
51.37
52.81
48.38
40.09
30.3
20.89
12.69
5.55
-1.19
-8.14
-15.35
-22.3
-28.11
-31.99
-33.57
-33.01
-30.77
-27.34
-22.96
-17.58
-11.09
-3.7
3.89
10.49
14.88
16.39
15.39
13.22
11.67
12.18
15.08
19.42
23.38
24.86
22.34
15.42
4.97
-7.05
-17.99
-25.22
-26.8
-22.14
-12.08
1.39
15.95
29.73
41.76
51.85
60.1
66.44
70.47
71.72
70.04
65.9
60.32
54.37
48.71
43.26
37.36
30.16
21.25
10.97
0.3
-9.57
-17.77
-24.16
-29.21
-33.66
-38.07
-42.47
-46.42
-49.16
-50.03
-48.67
-45.08
-39.53
-32.38
-23.93
-14.34
-3.9
6.89
17.04
25.18
29.97
30.49
26.98
20.87
14.53
10.42
10.11
13.54
19.03
23.9
25.62
22.8
15.73
6.24
-3.19
-10.46
-14.71
-16.71
-18.48
-22.47
-30.37
-42.37
-56.84
-70.82
-81.14
-85.43
-82.79
-73.78
-59.75
-42.16
-22.32
-1.47
18.95
37.27
52.01
62.56
69.43
74.1
78.16
82.47
86.83
90.3
91.85
90.98
87.81
82.73
76.07
67.89
58.3
47.67
36.8
26.63
17.88
10.79
5.21
0.88
-2.24
-3.91
-3.88
-2.16
0.69
3.86
6.58
8.53
10.0
11.66
14.06
17.23
20.47
22.6
22.57
20.14
16.1
12.02
9.55
9.61
12.07
15.98
20.14
23.74
26.57
28.71
30.16
30.48
28.93
24.82
18.0
9.01
-1.22
-11.88
-22.66
-33.91
-46.13
-59.38
-72.7
-84.03
-90.79
-90.77
-83.05
-68.36
-48.87
-27.37
-6.56
11.43
25.25
34.25
38.41
38.33
35.02
29.74
23.53
16.94
10.02
2.63
-5.23
-13.24
-20.89
-27.86
-34.22
-40.38
-46.67
-53.01
-58.79
-63.18
-65.59
-66.03
-64.98
-63.13
-60.76
-57.57
-52.59
-44.68
-33.06
-17.81
-0.07
18.15
34.42
46.68
53.89
56.29
55.28
52.64
49.76
47.17
44.55
41.34
37.46
33.58
30.92
30.51
32.54
36.15
39.76
41.84
41.47
38.69
34.11
28.42
21.85
14.03
4.23
-8.1
-22.82
-38.88
-54.41
-67.05
-74.45
-74.82
-67.41
-52.9
-33.3
-11.61
8.82
25.02
34.97
37.88
34.09
24.94
12.42
-1.1
-13.13
-21.57
-25.21
-24.2
-20.05
-15.17
-11.98
-12.08
-15.74
-21.99
-29.14
-35.4
-39.47
-40.64
-38.8
-34.27
-27.6
-19.49
-10.66
-1.78
6.61
14.18
20.76
26.32
30.85
34.33
36.58
37.26
35.99
32.51
26.99
20.2
13.61
9.03
8.15
11.89
20.06
31.33
43.61
54.61
62.37
65.57
63.65
56.73
45.54
31.28
15.56
0.1
-13.53
-24.29
-31.84
-36.55
-39.13
-40.22
-40.15
-38.85
-36.11
-31.68
-25.59
-18.07
-9.66
-1.18
6.27
11.42
13.2
11.21
6.07
-0.6
-6.75
-10.67
-11.67
-10.38
-8.38
-7.61
-9.59
-14.97
-23.39
-33.6
-43.95
-52.69
-58.46
-60.41
-58.34
-52.6
-43.96
-33.39
-22.0
-10.92
-1.11
6.82
12.76
17.04
20.22
22.62
24.16
24.39
22.84
19.51
15.09
10.82
8.11
7.98
10.71
15.77
22.01
28.01
32.37
33.97
32.2
27.09
19.39
10.34
1.31
-6.48
-12.41
-16.46
-19.13
-21.09
-22.91
-24.84
-26.91
-29.0
-30.94
-32.5
-33.26
-32.65
-30.02
-24.95
-17.55
-8.57
0.73
9.0
15.38
19.71
22.62
25.04
27.66
30.42
32.45
32.31
28.63
20.72
8.91
-5.54
-20.79
-34.99
-46.76
-55.34
-60.67
-63.09
-62.96
-60.38
-55.12
-46.93
-35.88
-22.81
-9.24
3.14
13.1
20.42
25.78
30.28
34.54
38.28
40.49
40.09
36.68
30.97
24.56
19.25
16.28
15.84
17.16
18.93
20.0
19.86
18.89
18.03
18.18
19.71
22.11
24.17
24.54
22.35
17.69
11.64
5.85
1.94
0.87
2.64
6.47
11.18
15.62
19.04
21.14
21.91
21.67
20.93
20.45
21.06
23.29
27.07
31.55
35.26
36.67
34.72
29.19
20.66
10.19
-1.08
-12.29
-23.01
-33.23
-43.19
-53.06
-62.62
-70.97
-76.75
-78.53
-75.5
-67.88
-56.88
-44.18
-31.23
-18.85
-7.28
3.35
12.62
19.59
23.2
22.83
18.91
13.02
7.52
4.69
5.94
11.24
19.29
28.02
35.31
39.55
39.97
36.54
29.88
21.02
11.33
2.14
-5.52
-11.29
-15.43
-18.57
-21.14
-23.08
-23.88
-22.98
-20.23
-16.02
-11.09
-5.98
-0.81
4.68
10.78
17.44
24.17
30.27
35.3
39.31
42.96
47.21
52.93
60.46
69.44
78.75
86.74
91.72
92.44
88.43
80.13
68.59
55.16
41.15
27.71
15.79
6.13
-0.9
-5.42
-8.06
-9.75
-11.27
-12.92
-14.36
-14.91
-14.02
-11.74
-8.76
-6.16
-4.9
-5.44
-7.78
-11.59
-16.53
-22.24
-28.16
-33.31
-36.36
-35.98
-31.53
-23.67
-14.5
-7.13
-4.55
-8.46
-18.38
-31.67
-44.41
-52.88
-55.07
-51.46
-44.7
-38.41
-35.67
-37.96
-45.06
-55.65
-68.19
-81.44
-94.5
-106.5
-116.49
-123.54
-127.21
-127.65
-125.49
-121.49
-116.43
-111.41
-108.45
-110.6
-121.13
-141.8
-171.05
-203.17
-229.52
-241.18
-232.05
-200.9
-151.67
-92.23
-32.47
17.81
51.19
64.45
59.98
45.9
34.15
36.98
62.18
109.87
172.19
236.41
289.98
325.23
341.2
342.32
334.88
323.27
308.1
286.83
255.99
213.84
161.82
104.3
46.94
-5.21
-48.9
-82.63
-106.02
-118.95
-121.41
-113.77
-97.33
-74.62
-49.05
-24.14
-2.53
14.39
26.41
34.28
39.12
41.99
43.45
43.38
40.93
35.03
25.06
11.6
-3.18
-16.0
-23.62
-24.41
-19.15
-10.94
-4.07
-2.2
-7.05
-17.76
-31.39
-44.12
-52.57
-54.82
-50.92
-42.77
-33.55
-27.0
-26.35
-33.26
-47.08
-64.72
-81.32
-91.75
-92.39
-82.27
-63.31
-39.21
-13.93
9.69
30.33
47.79
62.11
73.05
80.29
83.89
84.92
85.4
87.55
92.75
100.81
109.83
116.88
119.07
114.63
103.58
87.88
70.91
56.49
47.62
45.53
49.26
56.07
62.35
64.78
61.28
51.34
35.92
16.85
-3.7
-23.66
-41.22
-54.81
-63.16
-65.53
-62.05
-53.94
-43.43
-33.24
-25.63
-21.62
-20.57
-20.52
-19.09
-14.53
-6.49
3.91
14.43
22.59
26.44
25.21
19.56
11.31
2.69
-4.59
-10.03
-14.5
-19.72
-27.24
-37.64
-50.28
-63.65
-76.12
-86.53
-94.33
-99.2
-100.68
-98.07
-90.79
-78.94
-63.73
-47.28
-32.02
-19.94
-11.99
-8.04
-7.15
-8.03
-9.35
-9.86
-8.51
-4.65
1.63
9.31
16.66
21.8
23.55
22.0
18.32
14.11
10.35
6.89
2.56
-3.97
-13.18
-24.28
-35.5
-45.03
-51.88
-56.18
-58.65
-59.78
-59.27
-56.12
-49.26
-38.23
-23.52
-6.33
11.92
29.97
46.8
61.46
72.94
80.39
83.45
82.56
78.87
73.76
68.28
62.77
56.91
50.05
41.61
31.29
19.04
5.0
-10.52
-26.9
-43.07
-57.6
-69.11
-76.8
-80.86
-82.49
-83.32
-84.6
-86.5
-87.89
-86.85
-81.58
-71.28
-56.61
-39.53
-22.65
-8.38
1.82
7.79
10.64
12.47
15.54
21.67
31.52
44.43
58.78
72.6
84.37
93.46
100.03
104.5
106.88
106.36
101.31
89.87
70.85
44.38
12.26
-22.25
-55.21
-82.8
-102.12
-111.61
-110.98
-101.09
-83.6
-60.78
-35.33
-10.22
11.88
29.06
40.61
46.99
49.34
48.74
45.77
40.54
33.22
24.57
16.1
9.68
6.77
7.81
12.26
19.13
27.64
37.57
48.86
60.89
71.84
78.84
78.92
70.25
53.16
30.28
5.83
-15.79
-31.35
-39.71
-41.84
-40.18
-37.47
-35.71
-35.55
-36.3
-36.56
-34.99
-30.91
-24.57
-16.86
-8.95
-1.78
4.05
8.23
10.6
11.04
9.56
6.54
2.73
-0.86
-3.18
-3.53
-1.81
1.47
5.29
8.33
9.28
7.04
1.02
-8.64
-20.93
-34.02
-45.6
-53.43
-55.93
-52.65
-44.4
-32.92
-20.26
-8.18
2.26
10.66
16.95
21.17
23.47
24.22
24.29
24.9
27.14
31.39
36.98
42.39
45.97
46.81
45.06
41.89
38.78
36.81
36.36
37.22
38.95
41.08
43.08
44.06
42.74
37.67
27.93
13.77
-3.23
-20.61
-35.94
-47.83
-56.27
-62.34
-67.29
-71.66
-74.89
-75.64
-72.57
-65.13
-53.79
-39.92
-25.21
-11.08
1.62
12.49
21.34
27.94
31.88
32.85
30.94
27.02
22.58
19.36
18.71
21.08
26.0
32.42
39.14
45.14
49.49
51.13
48.97
42.24
31.16
17.22
2.92
-9.17
-17.47
-21.98
-23.98
-25.09
-26.32
-27.76
-28.87
-29.1
-28.43
-27.21
-25.76
-23.84
-20.6
-14.96
-6.4
4.66
16.65
27.33
34.57
37.09
34.84
28.92
21.2
13.47
7.01
2.19
-1.36
-4.42
-7.83
-12.37
-18.7
-27.34
-38.47
-51.6
-65.39
-77.71
-86.34
-89.79
-87.9
-81.97
-74.02
-65.9
-58.42
-51.32
-43.75
-35.05
-25.24
-15.01
-5.3
3.13
9.89
14.78
17.48
17.59
14.81
9.51
2.93
-2.93
-5.89
-4.34
2.14
12.54
24.8
36.41
45.2
49.91
50.24
46.66
39.88
30.64
19.66
7.92
-3.38
-12.96
-20.0
-24.53
-27.37
-29.57
-31.53
-32.53
-30.89
-24.76
-13.14
3.46
23.08
43.04
60.75
74.46
83.41
87.7
87.92
84.88
79.45
72.52
65.0
57.77
51.56
46.81
43.6
41.67
40.49
39.32
37.39
33.97
28.54
21.03
11.84
1.98
-7.21
-14.39
-18.76
-20.61
-21.35
-23.22
-28.38
-37.85
-50.85
-64.88
-76.56
-82.98
-82.75
-76.43
-66.0
-53.9
-42.08
-31.52
-22.31
-14.04
-6.13
2.02
11.02
21.39
33.29
46.28
59.22
70.37
77.87
80.17
76.51
66.98
52.57
34.89
15.93
-2.45
-18.78
-32.29
-42.85
-50.74
-56.35
-60.08
-62.36
-63.76
-64.86
-66.03
-66.88
-66.25
-62.48
-54.32
-41.62
-25.73
-9.04
5.86
17.13
24.06
26.97
26.76
24.37
20.71
16.55
12.61
9.43
7.23
5.88
4.84
3.52
1.47
-1.46
-5.06
-8.83
-12.02
-13.82
-13.61
-11.36
-7.89
-4.94
-4.6
-8.48
-16.89
-28.47
-40.65
-50.7
-56.9
-59.15
-58.71
-57.26
-55.82
-54.18
-51.15
-45.42
-36.43
-24.73
-11.74
0.97
12.32
21.82
29.27
34.34
36.38
34.77
29.46
21.4
12.5
5.06
0.92
0.8
4.2
9.8
16.06
21.74
26.11
28.79
29.5
27.84
23.35
15.7
4.94
-8.3
-22.99
-37.82
-51.58
-63.33
-72.57
-79.2
-83.36
-85.25
-84.91
-82.15
-76.64
-68.15
-56.87
-43.55
-29.42
-15.77
-3.47
7.39
17.21
26.33
34.37
40.13
42.05
39.18
31.9
22.14
12.65
6.02
3.73
5.86
11.48
19.22
27.81
36.27
43.76
49.47
52.64
52.75
49.67
43.73
35.59
26.05
16.02
6.36
-2.17
-8.99
-13.86
-16.91
-18.46
-18.88
-18.36
-16.83
-14.07
-10.0
-4.84
0.9
6.51
11.42
15.41
18.64
21.47
24.19
26.87
29.25
30.99
31.86
31.91
31.4
30.6
29.65
28.43
26.78
24.57
21.89
18.98
16.14
13.64
11.66
10.22
9.12
7.84
5.61
1.64
-4.51
-12.58
-21.55
-29.96
-36.48
-40.39
-41.76
-41.3
-39.95
-38.44
-37.11
-35.85
-34.29
-31.86
-28.0
-22.22
-14.19
-3.92
8.19
21.27
34.04
44.99
52.69
56.12
54.93
49.6
41.27
31.46
21.71
13.24
6.78
2.56
0.38
-0.18
0.38
1.75
3.76
6.46
9.93
14.19
19.02
23.91
28.11
30.73
30.89
27.99
21.89
13.04
2.38
-8.93
-19.95
-30.24
-40.02
-49.74
-59.73
-69.7
-78.64
-85.12
-87.74
-85.67
-78.96
-68.47
-55.62
-41.9
-28.55
-16.35
-5.57
3.79
11.96
19.14
25.48
31.0
35.56
38.9
40.64
40.45
38.25
34.33
29.45
24.66
21.02
19.33
19.96
22.77
27.31
32.91
38.84
44.36
48.73
51.29
51.58
49.48
45.23
39.37
32.53
25.22
17.65
9.82
1.72
-6.51
-14.43
-21.41
-26.94
-30.74
-32.99
-34.13
-34.75
-35.39
-36.44
-38.16
-40.71
-44.08
-48.08
-52.27
-56.08
-58.98
-60.75
-61.47
-61.51
-61.19
-60.53
-59.18
-56.55
-52.1
-45.61
-37.3
-27.71
-17.43
-6.98
3.34
13.3
22.67
31.14
38.43
44.33
48.86
52.18
54.56
56.33
57.77
59.19
60.82
62.9
65.58
68.96
73.11
77.97
83.36
88.91
94.11
98.42
101.45
103.0
103.11
101.92
99.44
95.51
89.93
82.68
74.02
64.52
54.85
45.38
36.02
26.23
15.37
3.08
-10.36
-24.02
-36.56
-46.75
-53.82
-57.75
-59.31
-59.78
-60.46
-62.2
-65.1
-68.46
-71.15
-72.13
-70.89
-67.89
-64.41
-62.15
-62.42
-65.48
-70.16
-74.33
-75.65
-72.59
-65.36
-56.15
-48.16
-44.2
-45.43
-50.4
-56.03
-58.67
-55.79
-47.53
-37.13
-29.83
-30.36
-41.37
-61.65
-87.01
-110.95
-126.18
-127.24
-112.84
-86.85
-56.98
-33.14
-22.41
-27.21
-42.85
-58.26
-60.85
-42.56
-4.05
45.83
91.72
119.81
121.24
96.9
58.03
21.31
2.26
9.72
45.6
104.86
182.36
264.75
331.83
368.78
376.51
365.61
342.43
318.45
286.48
244.89
198.57
157.56
133.34
128.98
144.33
172.19
200.97
216.19
208.06
172.21
112.08
38.55
-34.6
-95.91
-140.6
-169.42
-187.56
-198.56
-204.45
-205.25
-199.98
-188.86
-174.22
-160.52
-151.39
-148.82
-150.86
-153.84
-154.04
-149.12
-139.05
-125.82
-112.91
-103.26
-98.5
-97.77
-98.93
-99.45
-97.4
-92.05
-83.91
-74.47
-65.31
-57.49
-51.04
-45.31
-39.57
-33.42
-26.97
-20.69
-15.2
-10.94
-7.96
-5.99
-4.62
-3.53
-2.67
-2.14
-2.07
-2.43
-2.92
-2.98
-2.09
0.09
3.52
7.8
12.34
16.6
20.2
22.96
24.84
25.82
25.92
25.12
23.49
21.18
18.35
15.22
11.94
8.55
5.0
1.12
-3.28
-8.3
-13.81
-19.46
-24.69
-28.9
-31.66
-32.85
-32.71
-31.79
-30.74
-30.09
-30.16
-30.94
-32.21
-33.6
-34.73
-35.31
-35.22
-34.51
-33.47
-32.53
-32.09
-32.37
-33.26
-34.24
-34.6
-33.72
-31.22
-27.11
-21.72
-15.51
-9.0
-2.57
3.49
9.05
14.14
18.88
23.39
27.73
31.74
35.12
37.42
38.21
37.11
33.98
28.98
22.72
16.23
10.77
7.41
6.67
8.21
10.95
13.51
14.81
14.5
13.16
12.06
12.67
16.19
23.16
33.27
45.25
57.05
66.04
69.6
65.76
53.9
35.2
12.43
-10.69
-30.62
-44.93
-52.82
-54.9
-52.55
-47.21
-39.82
-30.84
-20.49
-8.95
3.48
16.51
29.96
43.7
57.6
71.43
84.84
97.48
108.91
118.55
125.47
128.64
127.44
122.11
113.9
104.66
96.1
89.24
84.28
80.8
78.18
75.79
72.97
68.98
63.21
55.66
47.23
39.77
35.43
35.8
40.97
49.36
58.03
63.74
63.82
56.97
43.41
24.75
3.34
-18.41
-38.64
-56.17
-70.48
-81.35
-88.69
-92.63
-93.62
-92.59
-90.84
-89.72
-90.25
-92.8
-96.96
-101.62
-105.38
-107.08
-106.22
-103.26
-99.49
-96.62
-96.04
-98.3
-102.84
-108.18
-112.53
-114.37
-113.01
-108.54
-101.59
-92.72
-82.05
-69.04
-52.62
-31.63
-5.47
25.35
58.85
91.85
120.63
142.1
154.66
158.63
156.03
149.5
141.36
132.81
123.82
113.62
101.35
86.5
69.3
50.7
32.48
17.12
7.46
5.95
13.79
30.29
52.85
77.63
100.71
119.11
131.55
138.39
141.18
141.89
142.44
144.3
148.3
154.61
162.8
172.05
181.54
190.62
198.91
206.16
211.92
215.52
216.06
212.69
204.89
192.72
176.97
158.94
140.21
122.25
106.23
92.72
81.65
72.28
63.32
53.27
40.97
25.86
8.25
-10.91
-30.36
-48.95
-65.98
-81.44
-96.05
-111.02
-127.62
-146.73
-168.3
-191.3
-214.02
-234.65
-252.07
-266.28
-278.18
-288.83
-298.57
-306.4
-310.18
-307.45
-296.47
-276.94
-249.99
-217.77
-182.88
-148.29
-117.22
-93.23
-79.5
-78.03
-88.53
-108.24
-132.58
-156.74
-177.32
-192.99
-204.26
-212.4
-218.35
-222.25
-223.6
-221.83
-216.62
-208.1
-196.68
-183.03
-167.88
-152.14
-136.71
-122.41
-109.84
-99.37
-91.08
-84.7
-79.54
-74.51
-68.35
-60.18
-49.92
-38.46
-27.27
-17.74
-10.44
-4.96
-0.19
5.09
11.53
19.08
27.02
34.36
40.06
43.43
44.05
41.96
37.54
31.38
24.21
16.9
10.55
6.41
5.49
8.03
13.15
18.95
23.2
24.33
22.1
17.64
12.71
8.79
6.45
5.38
4.91
4.6
4.53
5.14
6.88
9.87
13.85
18.44
23.24
28.12
33.09
38.29
43.72
49.25
54.57
59.48
63.97
68.29
72.75
77.44
81.98
85.61
87.53
87.3
85.11
81.73
78.22
75.56
74.47
75.4
78.47
83.45
89.69
96.04
101.08
103.52
102.75
99.11
93.77
88.15
83.31
79.51
76.2
72.43
67.27
60.24
51.36
41.1
30.18
19.39
9.49
1.07
-5.59
-10.63
-14.53
-18.06
-21.97
-26.82
-32.75
-39.47
-46.25
-52.09
-55.97
-57.09
-55.19
-50.63
-44.31
-37.33
-30.61
-24.58
-19.13
-13.7
-7.68
-0.7
7.12
15.16
22.42
27.94
31.17
32.12
31.37
29.73
27.97
26.47
25.21
23.96
22.54
20.94
19.33
17.94
16.84
15.89
14.92
13.72
12.21
10.36
8.19
5.72
2.97
0.08
-2.67
-4.89
-6.23
-6.59
-6.12
-5.29
-4.57
-4.34
-4.71
-5.54
-6.55
-7.44
-8.06
-8.37
-8.45
-8.41
-8.36
-8.42
-8.68
-9.24
-10.1
-11.25
-12.53
-13.68
-14.37
-14.27
-13.21
-11.25
-8.72
-6.13
-3.95
-2.45
-1.58
-1.07
-0.59
0.07
0.83
1.5
1.83
1.71
1.17
0.33
-0.69
-1.82
-3.06
-4.33
-5.51
-6.46
-7.01
-7.05
-6.5
-5.31
-3.47
-1.09
1.47
3.65
4.84
4.6
2.84
-0.1
-3.63
-7.18
-10.41
-13.22
-15.71
-17.95
-19.93
-21.58
-22.89
-23.94
-24.9
-25.82
-26.54
-26.67
-25.73
-23.41
-19.6
-14.51
-8.49
-1.91
4.88
11.57
17.87
23.4
27.74
30.53
31.51
30.77
28.78
26.35
24.37
23.42
23.41
23.52
22.65
19.92
15.33
9.76
4.63
1.17
-0.09
0.49
1.96
3.32
3.96
3.75
2.91
1.7
0.32
-1.09
-2.35
-3.19
-3.26
-2.38
-0.68
1.31
2.79
2.96
1.39
-1.77
-5.75
-9.46
-11.85
-12.29
-10.76
-7.79
-4.22
-0.87
1.68
3.13
3.46
2.8
1.41
-0.39
-2.25
-3.77
-4.74
-5.12
-5.16
-5.33
-6.09
-7.7
-10.0
-12.46
-14.28
-14.72
-13.29
-9.98
-5.2
0.36
5.85
10.52
13.85
15.68
16.19
15.79
14.95
13.95
12.82
11.29
9.02
5.82
1.73
-2.9
-7.57
-11.8
-15.26
-17.84
-19.56
-20.41
-20.37
-19.38
-17.38
-14.38
-10.46
-5.62
0.19
7.0
14.61
22.39
29.34
34.42
36.92
36.89
34.93
31.95
28.59
24.98
20.88
16.07
10.81
5.97
2.7
1.86
3.69
7.69
13.0
18.76
24.4
29.64
34.31
38.16
40.77
41.73
40.81
38.09
33.96
28.95
23.5
17.92
12.31
6.67
0.95
-4.83
-10.55
-15.96
-20.67
-24.23
-26.24
-26.43
-24.77
-21.49
-17.02
-11.99
-7.05
-2.86
0.02
1.25
0.79
-1.15
-4.11
-7.5
-10.74
-13.4
-15.23
-16.27
-16.73
-16.92
-16.99
-16.8
-15.99
-14.09
-10.85
-6.38
-1.13
4.35
9.57
14.24
18.16
21.13
22.82
22.88
21.18
17.85
13.38
8.34
3.2
-1.87
-7.0
-12.55
-18.73
-25.5
-32.31
-38.18
-41.9
-42.34
-38.8
-31.22
-20.34
-7.61
5.12
15.93
23.36
26.81
26.63
23.96
20.26
16.74
13.96
11.69
9.22
5.77
0.98
-4.93
-11.17
-16.68
-20.45
-21.7
-20.03
-15.41
-8.11
1.28
12.0
23.05
33.4
42.12
48.56
52.54
54.32
54.42
53.42
51.72
49.48
46.62
42.98
38.43
32.97
26.68
19.74
12.39
4.98
-2.02
-8.0
-12.3
-14.34
-13.83
-10.82
-5.77
0.59
7.45
14.12
20.12
25.26
29.54
33.0
35.64
37.27
37.63
36.45
33.59
29.12
23.36
16.78
9.94
3.46
-2.02
-5.93
-7.87
-7.78
-6.02
-3.29
-0.48
1.64
2.63
2.48
1.5
0.12
-1.21
-2.19
-2.7
-2.8
-2.76
-2.97
-3.97
-6.2
-9.91
-15.0
-20.97
-26.92
-31.73
-34.31
-33.84
-30.11
-23.55
-15.19
-6.31
1.88
8.65
13.77
17.42
19.9
21.44
22.13
21.92
20.65
18.2
14.52
9.65
3.82
-2.59
-9.0
-14.75
-19.2
-21.84
-22.36
-20.64
-16.79
-11.12
-4.17
3.34
10.61
16.86
21.54
24.38
25.39
24.77
22.87
20.06
16.67
12.93
9.07
5.17
1.32
-2.49
-6.23
-9.78
-12.82
-14.84
-15.27
-13.67
-9.97
-4.49
2.07
8.89
15.23
20.52
24.46
26.86
27.69
26.94
24.74
21.28
16.91
11.99
6.84
1.64
-3.66
-9.26
-15.28
-21.6
-27.61
-32.38
-34.83
-34.14
-30.06
-23.06
-14.18
-4.73
3.99
10.96
15.52
17.48
17.04
14.79
11.55
8.16
5.26
3.07
1.36
-0.49
-3.28
-7.64
-13.83
-21.44
-29.4
-36.12
-39.89
-39.45
-34.36
-25.29
-13.8
-1.87
8.62
16.45
21.17
23.11
23.02
21.81
20.2
18.66
17.28
15.98
14.43
12.26
9.12
4.77
-0.67
-6.69
-12.38
-16.65
-18.52
-17.48
-13.64
-7.66
-0.47
6.9
13.69
19.32
23.49
26.04
26.95
26.35
24.48
21.66
18.24
14.44
10.38
5.99
1.12
-4.39
-10.54
-16.97
-23.01
-27.71
-30.15
-29.77
-26.54
-20.94
-13.72
-5.64
2.76
11.11
19.04
26.12
31.86
35.86
37.95
38.2
36.88
34.23
30.47
25.69
20.02
13.62
6.67
-0.67
-8.23
-15.8
-22.89
-28.73
-32.34
-32.8
-29.7
-23.21
-14.25
-4.12
5.76
14.27
20.73
24.9
26.93
27.23
26.33
24.82
23.21
21.73
20.2
18.11
14.88
10.16
4.16
-2.29
-7.94
-11.55
-12.33
-10.18
-5.7
0.01
5.73
10.4
13.34
14.34
13.59
11.6
8.91
5.97
3.05
0.18
-2.73
-5.89
-9.5
-13.74
-18.63
-23.95
-29.15
-33.34
-35.55
-35.02
-31.48
-25.34
-17.56
-9.42
-2.1
3.55
7.17
8.81
8.82
7.65
5.77
3.51
1.15
-1.12
-3.21
-5.14
-7.08
-9.36
-12.31
-16.05
-20.26
-24.18
-26.76
-27.08
-24.64
-19.67
-12.89
-5.35
2.03
8.65
14.21
18.69
22.12
24.63
26.34
27.43
28.03
28.29
28.21
27.76
26.86
25.33
22.96
19.49
14.79
9.07
3.07
-2.06
-5.08
-5.12
-2.13
3.07
9.09
14.44
18.05
19.48
18.79
16.38
12.67
8.06
2.92
-2.31
-7.24
-11.59
-15.4
-19.05
-23.07
-27.86
-33.31
-38.71
-42.86
-44.42
-42.45
-36.81
-28.26
-18.32
-8.77
-1.1
3.86
6.18
6.57
6.03
5.35
4.87
4.37
3.34
1.22
-2.37
-7.53
-14.14
-21.84
-30.02
-37.78
-43.89
-47.09
-46.44
-41.73
-33.64
-23.63
-13.45
-4.62
1.96
6.07
8.01
8.31
7.53
6.2
4.8
3.8
3.55
4.21
5.73
7.83
10.16
12.4
14.3
15.81
16.99
18.08
19.43
21.42
24.31
28.05
32.25
36.27
39.45
41.36
41.93
41.34
39.88
37.74
34.96
31.51
27.49
23.14
18.84
14.83
11.02
6.97
2.12
-3.83
-10.58
-17.05
-21.73
-23.16
-20.48
-13.74
-3.91
7.47
18.72
28.38
35.44
39.37
40.13
38.14
34.13
29.04
23.74
18.81
14.45
10.49
6.56
2.33
-2.3
-7.15
-11.74
-15.45
-17.66
-17.98
-16.35
-13.06
-8.7
-3.89
0.83
5.18
9.06
12.38
14.96
16.52
16.77
15.59
13.15
9.82
6.05
2.15
-1.74
-5.64
-9.6
-13.48
-16.98
-19.71
-21.33
-21.66
-20.78
-18.91
-16.37
-13.5
-10.63
-8.09
-6.29
-5.56
-6.16
-8.12
-11.21
-14.97
-18.89
-22.49
-25.54
-28.08
-30.31
-32.46
-34.56
-36.34
-37.27
-36.7
-34.2
-29.75
-23.73
-16.87
-9.93
-3.58
1.76
5.85
8.57
9.89
9.88
8.77
6.91
4.72
2.55
0.55
-1.41
-3.63
-6.48
-10.13
-14.44
-18.83
-22.41
-24.18
-23.36
-19.67
-13.45
-5.58
2.75
10.4
16.54
20.75
23.05
23.77
23.39
22.39
21.15
19.92
18.78
17.61
16.15
13.94
10.57
5.86
0.1
-5.86
-10.76
-13.33
-12.72
-8.86
-2.48
5.12
12.55
18.66
22.84
25.01
25.46
24.68
23.19
21.43
19.68
18.08
16.65
15.3
13.85
12.09
9.79
6.8
3.19
-0.74
-4.44
-7.29
-8.81
-8.8
-7.46
-5.2
-2.54
0.05
2.23
3.73
4.33
3.9
2.4
-0.06
-3.18
-6.55
-9.74
-12.48
-14.65
-16.44
-18.26
-20.63
-23.91
-28.08
-32.55
-36.28
-38.08
-37.11
-33.2
-26.91
-19.32
-11.54
-4.42
1.66
6.67
10.7
13.81
16.01
17.27
17.71
17.5
16.83
15.71
13.93
11.15
7.1
1.81
-4.19
-9.99
-14.55
-17.03
-17.1
-14.96
-11.24
-6.81
-2.45
1.22
3.84
5.26
5.49
4.68
3.07
0.97
-1.26
-3.26
-4.69
-5.35
-5.25
-4.67
-4.08
-3.94
-4.52
-5.7
-7.05
-8.01
-8.17
-7.45
-6.03
-4.33
-2.68
-1.34
-0.41
0.09
0.13
-0.29
-1.11
-2.18
-3.27
-4.17
-4.77
-5.12
-5.4
-5.82
-6.61
-7.82
-9.31
-10.69
-11.37
-10.72
-8.25
-3.87
1.99
8.44
14.41
18.94
21.51
22.13
21.22
19.4
17.22
15.05
12.98
10.96
8.79
6.29
3.32
-0.15
-4.02
-7.99
-11.58
-14.17
-15.19
-14.23
-11.28
-6.7
-1.21
4.35
9.22
12.95
15.36
16.48
16.35
15.0
12.45
8.84
4.46
-0.25
-4.89
-9.2
-13.22
-17.18
-21.39
-26.03
-30.99
-35.85
-39.92
-42.46
-42.83
-40.73
-36.28
-29.96
-22.53
-14.8
-7.52
-1.25
3.67
7.07
8.9
9.3
8.49
6.85
4.8
2.72
0.88
-0.69
-2.15
-3.79
-5.83
-8.24
-10.75
-12.86
-14.06
-13.95
-12.43
-9.66
-5.94
-1.61
3.0
7.61
11.98
15.86
19.04
21.35
22.72
23.17
22.77
21.63
19.77
17.14
13.61
9.04
3.42
-3.03
-9.77
-15.98
-20.8
-23.45
-23.5
-20.95
-16.19
-9.9
-2.92
3.94
9.96
14.59
17.49
18.5
17.69
15.29
11.72
7.53
3.31
-0.51
-3.8
-6.69
-9.54
-12.62
-15.94
-19.1
-21.55
-22.75
-22.47
-20.88
-18.4
-15.51
-12.6
-9.92
-7.6
-5.81
-4.67
-4.26
-4.54
-5.28
-6.21
-7.1
-7.89
-8.73
-9.89
-11.62
-13.98
-16.79
-19.58
-21.8
-22.92
-22.59
-20.74
-17.49
-13.14
-8.13
-2.89
2.11
6.51
10.04
12.65
14.56
16.15
17.9
20.13
22.85
25.66
27.77
28.34
26.68
22.61
16.54
9.45
2.62
-2.72
-5.75
-6.19
-4.34
-0.94
3.16
7.13
10.44
12.83
14.32
15.05
15.24
15.09
14.76
14.36
13.91
13.37
12.66
11.66
10.26
8.32
5.78
2.63
-1.06
-5.03
-8.87
-12.04
-14.01
-14.45
-13.42
-11.35
-8.94
-6.91
-5.81
-5.79
-6.63
-7.88
-9.04
-9.74
-9.88
-9.52
-8.88
-8.12
-7.32
-6.47
-5.56
-4.73
-4.23
-4.31
-5.09
-6.36
-7.65
-8.37
-8.05
-6.6
-4.32
-1.75
0.47
1.78
1.86
0.57
-2.03
-5.67
-9.93
-14.25
-18.06
-20.93
-22.73
-23.59
-23.93
-24.13
-24.43
-24.73
-24.66
-23.68
-21.3
-17.27
-11.75
-5.28
1.27
6.91
10.67
11.86
10.22
6.04
0.1
-6.45
-12.4
-16.69
-18.68
-18.26
-15.83
-12.19
-8.29
-4.92
-2.48
-0.78
0.93
3.68
8.39
15.52
24.88
35.64
46.62
56.68
65.01
71.23
75.28
77.28
77.45
76.09
73.79
71.42
70.09
70.79
73.94
79.17
85.26
90.6
93.66
93.61
90.61
85.78
80.92
77.96
78.21
81.85
87.67
93.43
96.62
95.37
89.05
78.32
64.68
49.81
35.15
21.71
10.25
1.35
-4.47
-6.98
-6.46
-3.82
-0.61
1.21
-0.31
-6.59
-18.08
-33.82
-51.42
-67.43
-78.44
-82.21
-78.62
-69.6
-58.31
-47.84
-40.04
-35.37
-33.36
-33.64
-36.49
-42.61
-52.27
-64.57
-77.24
-87.45
-93.09
-93.65
-90.39
-85.41
-80.47
-76.1
-71.67
-65.9
-57.74
-47.16
-35.12
-23.17
-12.74
-4.56
1.48
6.14
10.27
14.43
18.65
22.62
26.06
28.94
31.51
33.99
36.24
37.63
37.16
33.95
27.76
19.18
9.46
0.01
-8.16
-14.71
-19.89
-24.09
-27.4
-29.43
-29.48
-27.01
-22.04
-15.37
-8.49
-3.26
-1.44
-4.47
-13.18
-27.49
-45.94
-65.51
-82.08
-91.47
-91.1
-81.09
-64.37
-45.47
-28.64
-16.17
-7.81
-1.59
4.63
11.76
18.97
24.36
26.1
23.5
17.3
9.22
1.18
-5.45
-10.04
-12.69
-13.77
-13.6
-12.36
-10.17
-7.39
-4.62
-2.62
-1.98
-2.9
-5.05
-7.72
-10.08
-11.53
-11.86
-11.18
-9.86
-8.31
-6.88
-5.79
-5.24
-5.41
-6.44
-8.4
-11.1
-14.19
-17.21
-19.87
-22.12
-24.19
-26.35
-28.71
-31.07
-32.96
-33.96
-33.96
-33.33
-32.83
-33.28
-35.2
-38.66
-43.27
-48.38
-53.32
-57.54
-60.66
-62.44
-62.72
-61.4
-58.57
-54.54
-49.87
-45.26
-41.31
-38.21
-35.58
-32.48
-27.68
-20.09
-9.24
4.44
19.63
34.47
47.09
56.23
61.54
63.58
63.49
62.5
61.59
61.23
61.46
62.07
62.69
62.95
62.48
60.87
57.88
53.48
48.13
42.66
38.11
35.32
34.49
35.06
35.85
35.58
33.32
28.88
22.69
15.47
7.84
0.1
-7.72
-15.56
-23.21
-30.29
-36.51
-41.9
-46.74
-51.36
-55.75
-59.35
-61.13
-59.96
-55.13
-46.66
-35.43
-22.96
-11.01
-1.16
5.54
8.79
9.06
7.38
5.07
3.3
2.79
3.72
5.78
8.25
10.29
11.04
9.81
6.29
0.71
-6.07
-12.75
-17.91
-20.44
-19.9
-16.43
-10.58
-2.91
6.04
15.74
25.42
34.04
40.51
44.12
44.83
43.29
40.52
37.36
34.27
31.22
28.05
24.71
21.44
18.59
16.36
14.63
12.92
10.66
7.56
3.74
-0.13
-3.12
-4.35
-3.34
-0.23
4.3
9.24
13.68
17.03
19.07
19.66
18.45
14.83
8.07
-2.17
-15.45
-30.37
-45.06
-57.68
-67.16
-73.36
-76.81
-78.18
-77.79
-75.47
-70.84
-63.75
-54.49
-43.76
-32.44
-21.28
-10.83
-1.49
6.34
12.26
15.96
17.4
16.96
15.22
12.81
10.08
7.09
3.67
-0.24
-4.37
-8.05
-10.38
-10.66
-8.59
-4.5
0.82
6.36
11.28
15.0
17.26
17.98
17.14
14.77
10.97
6.09
0.71
-4.45
-8.78
-12.07
-14.6
-17.04
-20.11
-24.2
-29.1
-33.97
-37.63
-38.98
-37.33
-32.64
-25.48
-16.79
-7.66
0.9
8.12
13.52
16.99
18.72
19.17
18.84
18.15
17.27
16.2
14.76
12.75
10.0
6.44
2.13
-2.62
-7.21
-10.78
-12.32
-10.97
-6.34
1.25
10.86
21.14
30.72
38.49
43.81
46.41
46.36
43.87
39.28
33.1
25.93
18.39
11.08
4.41
-1.51
-6.9
-12.19
-17.82
-23.94
-30.18
-35.58
-38.88
-38.9
-35.05
-27.58
-17.58
-6.56
3.97
12.85
19.45
23.62
25.48
25.38
23.84
21.53
19.18
17.32
16.06
15.0
13.35
10.4
5.95
0.63
-4.23
-7.0
-6.37
-1.81
6.33
16.94
28.61
39.98
49.9
57.64
62.72
65.03
64.8
62.57
59.14
55.36
51.92
49.12
46.81
44.52
41.55
37.27
31.4
24.09
16.06
8.42
2.39
-1.08
-1.66
0.24
3.61
7.14
9.63
10.29
8.78
5.23
0.03
-6.18
-12.72
-18.87
-24.12
-28.29
-31.61
-34.61
-37.83
-41.62
-45.86
-49.96
-53.05
-54.17
-52.63
-48.13
-40.88
-31.43
-20.55
-9.03
2.46
13.39
23.4
32.28
40.01
46.74
52.79
58.57
64.45
70.5
76.43
81.51
84.81
85.48
83.17
78.22
71.84
65.86
62.25
62.56
67.29
75.59
85.38
93.91
98.57
97.66
90.82
78.96
63.73
46.9
29.81
13.18
-2.75
-17.93
-32.29
-45.7
-58.04
-69.33
-79.77
-89.51
-98.47
-106.22
-111.93
-114.66
-113.64
-108.59
-99.91
-88.57
-75.99
-63.72
-53.12
-45.16
-40.07
-37.32
-35.68
-33.62
-29.86
-23.88
-16.15
-7.81
-0.23
5.62
9.4
11.34
11.93
11.7
11.13
10.75
11.25
13.41
17.74
24.29
32.45
41.21
49.55
56.92
63.47
69.95
77.29
86.06
96.22
107.03
117.36
126.0
131.9
134.27
132.6
126.73
116.93
104.03
89.31
74.2
59.98
47.5
37.27
29.73
25.34
24.64
27.87
34.54
43.22
51.73
57.76
59.5
56.17
48.18
36.86
24.05
11.62
1.14
-6.35
-10.27
-10.42
-6.71
0.93
12.47
27.46
44.77
62.49
78.28
89.99
96.37
97.47
94.43
88.91
82.3
75.27
67.85
59.83
51.14
42.04
32.88
23.83
14.73
5.38
-4.14
-13.22
-20.81
-25.89
-27.96
-27.24
-24.54
-20.78
-16.65
-12.6
-9.05
-6.6
-5.98
-7.66
-11.42
-16.31
-21.01
-24.55
-26.78
-28.4
-30.38
-33.32
-37.05
-40.84
-43.93
-46.06
-47.49
-48.64
-49.46
-49.19
-46.56
-40.48
-30.62
-17.68
-3.04
11.79
25.54
37.01
44.59
45.85
37.81
18.22
-12.98
-52.56
-94.23
-130.44
-154.79
-164.28
-159.81
-145.28
-125.53
-104.76
-85.82
-70.51
-59.86
-54.01
-51.71
-50.34
-47.05
-40.72
-33.23
-28.95
-32.38
-45.21
-64.97
-86.17
-103.11
-112.48
-114.0
-109.26
-99.94
-87.2
-72.56
-59.19
-51.77
-54.71
-69.36
-92.46
-117.01
-135.21
-141.68
-135.26
-118.61
-96.32
-72.92
-51.71
-34.53
-22.05
-14.08
-9.88
-8.27
-7.99
-7.89
-7.15
-5.47
-3.08
-0.78
0.28
-0.99
-5.03
-11.18
-17.83
-23.07
-25.59
-25.41
-23.69
-22.02
-21.5
-22.15
-23.03
-22.87
-20.84
-16.95
-11.86
-6.36
-0.89
4.55
10.02
15.11
18.74
19.53
16.65
10.6
3.2
-3.05
-6.23
-5.86
-2.95
0.88
4.41
7.46
10.75
15.03
20.25
25.42
29.11
30.38
29.37
27.2
25.47
25.5
27.87
32.38
38.37
45.12
52.16
59.37
66.83
74.58
82.42
89.88
96.46
101.91
106.4
110.47
114.69
119.47
124.94
131.16
138.44
147.4
158.66
172.23
187.02
200.93
211.61
217.52
218.64
216.41
212.8
209.08
205.0
198.94
188.89
173.63
153.48
130.01
105.04
79.48
52.82
23.74
-8.84
-44.54
-81.17
-115.19
-142.72
-160.56
-166.84
-161.27
-145.3
-122.12
-96.43
-73.71
-58.84
-54.76
-61.53
-76.48
-95.31
-113.42
-127.07
-133.99
-133.56
-126.79
-116.38
-106.17
-100.15
-100.94
-108.47
-119.62
-129.14
-131.55
-123.3
-104.09
-76.84
-46.76
-19.68
-0.57
7.68
4.79
-7.03
-23.7
-40.6
-53.86
-61.56
-63.88
-62.76
-60.77
-60.01
-61.43
-64.57
-67.94
-69.62
-68.26
-63.69
-57.21
-51.25
-48.45
-50.37
-56.62
-64.63
-70.44
-70.31
-62.25
-46.96
-27.68
-8.93
5.13
12.18
12.53
9.03
6.18
8.61
19.53
39.43
65.53
92.46
113.98
125.23
124.44
113.44
96.46
78.08
61.32
46.96
34.17
21.95
10.3
0.34
-6.48
-9.49
-9.32
-7.51
-5.59
-4.3
-3.48
-2.63
-1.44
0.04
1.81
4.42
9.08
17.06
28.79
43.21
57.96
70.32
78.45
81.97
81.68
78.57
72.94
64.1
51.08
33.66
13.08
-8.37
-28.47
-46.27
-62.48
-78.72
-95.95
-113.22
-127.25
-133.53
-128.22
-109.76
-79.42
-40.84
1.2
41.53
74.98
96.48
101.93
89.72
62.34
26.6
-7.94
-32.47
-42.28
-38.41
-26.55
-13.74
-5.07
-2.02
-3.32
-7.27
-13.99
-25.94
-46.63
-78.27
-119.96
-167.22
-213.01
-249.8
-271.47
-274.83
-260.14
-230.76
-192.08
-150.11
-110.15
-75.77
-48.56
-28.64
-15.43
-8.51
-7.82
-13.4
-24.78
-40.39
-57.41
-72.5
-82.77
-86.68
-84.29
-76.68
-65.1
-50.39
-32.85
-12.62
9.8
33.49
57.36
80.44
101.95
120.85
135.54
144.1
145.18
139.11
128.41
117.04
108.72
105.4
106.57
109.97
113.07
114.45
114.22
113.62
113.84
115.16
116.73
116.87
113.92
106.96
96.22
83.06
69.53
57.61
48.42
41.83
36.62
31.26
24.7
16.96
9.06
2.49
-1.61
-2.97
-2.21
-0.53
0.97
1.62
1.26
-0.09
-2.47
-6.18
-11.57
-18.62
-26.82
-35.17
-42.6
-48.26
-51.65
-52.54
-50.96
-47.32
-42.57
-38.2
-35.78
-36.29
-39.52
-44.03
-47.76
-49.1
-47.65
-44.35
-40.8
-38.23
-36.9
-36.07
-34.72
-32.29
-28.99
-25.72
-23.47
-22.84
-23.8
-25.76
-27.8
-28.93
-28.22
-24.86
-18.45
-9.15
2.09
13.74
24.34
33.25
41.24
50.32
62.82
80.17
101.82
125.04
145.56
158.93
161.98
153.94
136.52
113.19
87.99
64.21
43.68
26.72
12.69
0.62
-10.22
-20.41
-30.51
-41.21
-53.04
-65.94
-78.69
-89.14
-94.91
-94.38
-87.45
-75.69
-61.72
-48.27
-37.3
-29.64
-25.08
-22.84
-22.14
-22.42
-23.41
-25.0
-27.07
-29.37
-31.56
-33.46
-35.1
-36.8
-38.99
-41.87
-45.18
-48.2
-50.03
-49.97
-47.81
-43.87
-38.77
-33.22
-27.74
-22.56
-17.75
-13.21
-8.83
-4.5
-0.25
3.73
7.03
9.12
9.52
8.1
5.28
1.94
-0.78
-1.94
-1.07
1.66
5.56
9.8
13.59
16.39
17.91
17.92
16.25
12.86
7.93
1.88
-4.66
-11.17
-17.41
-23.57
-30.16
-37.83
-47.13
-58.3
-71.24
-85.58
-100.59
-115.09
-127.29
-134.82
-135.27
-126.89
-109.21
-83.37
-51.83
-17.74
15.83
46.42
72.3
92.52
106.9
116.19
122.0
126.49
131.56
138.07
145.49
152.4
157.36
159.77
159.95
158.72
156.77
154.42
151.71
148.82
146.1
143.95
142.55
141.87
141.95
143.11
145.83
150.2
155.28
159.28
160.24
157.24
150.97
143.31
135.99
129.14
120.97
108.61
89.77
64.18
33.86
2.44
-26.01
-47.97
-61.13
-64.52
-58.69
-45.69
-28.73
-11.59
2.37
10.96
13.49
10.45
2.88
-8.16
-21.77
-37.03
-52.81
-67.96
-81.56
-93.4
-104.09
-114.66
-126.17
-139.06
-152.89
-166.4
-177.85
-185.64
-188.76
-187.05
-180.91
-170.98
-157.65
-141.11
-121.58
-99.75
-76.92
-54.73
-34.68
-17.6
-3.74
7.1
15.08
20.2
22.53
22.42
20.67
18.21
15.68
13.33
11.31
10.1
10.74
14.24
20.8
29.14
36.75
40.92
40.11
34.55
25.81
15.59
4.69
-7.19
-20.62
-35.34
-49.76
-61.54
-68.85
-71.38
-70.43
-67.76
-64.28
-59.13
-50.07
-34.71
-12.12
16.29
47.0
75.6
98.33
113.2
120.24
120.93
117.2
110.61
102.08
92.14
81.39
70.74
61.36
54.22
49.72
47.51
46.58
45.72
43.81
40.28
35.19
29.18
23.22
18.13
14.39
12.01
10.85
10.75
11.7
13.63
16.25
18.94
21.07
22.32
22.8
22.87
22.55
21.27
17.93
11.51
1.65
-11.01
-25.17
-39.52
-53.2
-65.86
-77.39
-87.56
-96.05
-102.69
-107.62
-111.23
-113.95
-115.81
-116.43
-115.06
-111.01
-103.89
-93.76
-81.15
-66.88
-51.94
-37.4
-24.22
-13.11
-4.43
1.82
5.92
8.27
9.23
9.04
7.74
5.29
1.67
-2.88
-7.87
-12.57
-16.35
-19.03
-21.04
-23.41
-27.35
-33.82
-43.13
-54.82
-67.76
-80.41
-91.2
-98.79
-102.38
-101.88
-97.91
-91.56
-84.08
-76.49
-69.47
-63.46
-58.85
-56.1
-55.54
-57.23
-60.7
-65.06
-69.32
-72.79
-75.18
-76.48
-76.54
-74.81
-70.4
-62.43
-50.53
-35.24
-18.03
-0.94
13.95
25.11
31.85
34.45
34.02
32.01
29.84
28.43
27.98
28.05
27.76
26.11
22.3
16.03
7.64
-1.8
-10.62
-16.78
-18.46
-14.66
-5.59
7.22
21.45
34.59
44.73
50.93
53.23
52.37
49.35
45.11
40.27
35.19
29.95
24.59
19.02
13.1
6.52
-1.16
-10.26
-20.7
-31.65
-41.65
-48.79
-51.44
-48.85
-41.45
-30.77
-18.86
-7.65
1.5
7.99
11.88
13.51
13.22
11.29
7.99
3.63
-1.36
-6.58
-11.86
-17.38
-23.47
-30.18
-36.94
-42.41
-44.8
-42.4
-34.14
-19.88
-0.37
22.89
47.9
72.44
94.3
111.62
123.23
128.89
129.19
125.44
119.21
112.17
105.85
101.44
99.58
100.2
102.35
104.47
104.84
102.14
96.01
87.13
77.06
67.67
60.49
56.28
54.82
55.25
56.53
58.01
59.64
61.74
64.66
68.3
72.02
74.76
75.54
73.72
69.24
62.52
54.23
45.12
35.73
26.39
17.16
8.01
-0.99
-9.49
-16.78
-21.96
-24.29
-23.54
-20.21
-15.39
-10.31
-5.99
-2.89
-0.96
0.06
0.35
-0.09
-1.49
-4.03
-7.68
-12.2
-17.28
-22.73
-28.59
-34.98
-41.77
-48.31
-53.36
-55.44
-53.41
-47.02
-37.13
-25.46
-14.0
-4.4
2.42
6.22
7.15
5.55
1.9
-3.14
-8.64
-13.62
-17.37
-19.83
-21.68
-24.02
-27.92
-33.86
-41.51
-49.91
-57.8
-64.21
-68.77
-71.7
-73.44
-74.29
-74.06
-72.16
-68.04
-61.61
-53.45
-44.7
-36.7
-30.56
-27.0
-26.3
-28.37
-32.79
-38.63
-44.41
-48.24
-48.46
-44.15
-35.39
-23.07
-8.31
7.94
25.08
42.59
59.76
75.59
88.88
98.61
104.21
105.95
104.89
102.86
102.09
104.97
113.53
128.77
150.15
175.3
200.4
221.07
233.61
235.86
227.49
209.63
184.21
153.56
120.47
88.77
63.47
50.03
52.54
71.5
102.6
137.39
165.87
179.84
175.43
153.76
119.63
79.27
38.27
0.68
-30.81
-54.29
-68.39
-72.59
-67.82
-56.77
-43.45
-32.15
-26.1
-26.63
-32.9
-42.39
-52.02
-59.23
-62.78
-62.98
-61.25
-59.51
-59.43
-62.12
-68.1
-77.58
-90.83
-108.27
-130.36
-157.05
-187.12
-217.76
-244.74
-263.41
-270.05
-263.24
-244.41
-217.27
-186.39
-155.49
-126.43
-99.27
-73.22
-47.81
-23.46
-1.37
17.24
31.73
42.27
49.55
54.18
56.47
56.41
54.04
49.81
44.63
39.64
35.84
33.81
33.69
35.25
37.99
41.25
44.24
46.22
46.77
45.96
44.46
43.29
43.32
44.85
47.38
49.85
51.12
50.39
47.36
42.17
35.16
26.7
17.11
6.67
-4.36
-15.92
-28.09
-40.95
-54.33
-67.47
-79.09
-87.57
-91.55
-90.43
-84.66
-75.52
-64.74
-53.88
-43.97
-35.45
-28.34
-22.57
-18.12
-15.16
-13.84
-14.13
-15.64
-17.74
-19.77
-21.33
-22.48
-23.77
-25.98
-29.7
-35.0
-41.18
-46.94
-50.72
-51.25
-47.98
-41.23
-32.02
-21.72
-11.59
-2.55
4.97
10.83
15.14
18.02
19.6
20.05
19.58
18.45
16.94
15.27
13.39
11.09
7.94
3.6
-1.96
-8.23
-14.21
-18.58
-20.18
-18.39
-13.33
-5.88
2.76
11.37
19.08
25.48
30.52
34.29
36.92
38.43
38.77
37.85
35.62
32.1
27.38
21.61
14.91
7.48
-0.41
-8.34
-15.69
-21.75
-25.82
-27.46
-26.53
-23.33
-18.44
-12.59
-6.48
-0.72
4.19
7.95
10.43
11.72
12.08
11.89
11.51
11.17
10.92
10.56
9.71
7.9
4.74
0.13
-5.56
-11.48
-16.52
-19.58
-19.96
-17.54
-12.65
-6.02
1.55
9.17
16.04
21.41
24.77
26.05
25.62
24.23
22.74
21.83
21.8
22.53
23.59
24.39
24.26
22.58
18.97
13.49
6.85
0.29
-4.67
-6.76
-5.36
-0.69
6.35
14.53
22.64
29.75
35.21
38.59
39.69
38.59
35.71
31.73
27.44
23.5
20.23
17.55
15.09
12.4
9.15
5.34
1.34
-2.17
-4.36
-4.46
-2.03
2.93
9.94
18.2
26.75
34.68
41.22
45.74
47.88
47.54
44.98
40.75
35.58
30.22
25.25
21.06
17.78
15.35
13.58
12.16
10.9
9.8
9.28
10.09
13.11
18.9
27.34
37.43
47.51
55.76
60.76
61.91
59.49
54.44
48.03
41.53
35.99
32.07
29.99
29.44
29.58
29.21
26.97
21.81
13.34
2.09
-10.49
-22.33
-31.3
-35.83
-35.45
-30.94
-24.06
-16.93
-11.22
-7.68
-6.06
-5.49
-5.12
-4.55
-4.03
-4.17
-5.59
-8.51
-12.77
-17.91
-23.56
-29.58
-36.1
-43.31
-51.21
-59.44
-67.27
-73.76
-78.0
-79.41
-77.8
-73.47
-67.05
-59.33
-51.03
-42.71
-34.67
-27.03
-19.81
-13.07
-6.94
-1.57
2.89
6.34
8.69
9.87
9.66
7.76
3.81
-2.38
-10.51
-19.69
-28.48
-35.18
-38.45
-37.68
-33.26
-26.36
-18.48
-10.96
-4.69
-0.07
2.78
3.89
3.32
1.3
-1.78
-5.34
-8.82
-11.86
-14.43
-16.81
-19.39
-22.45
-25.96
-29.54
-32.48
-34.05
-33.69
-31.22
-26.92
-21.4
-15.39
-9.58
-4.48
-0.41
2.37
3.56
2.87
0.15
-4.38
-9.97
-15.51
-19.84
-22.23
-22.75
-22.22
-21.86
-22.64
-24.81
-27.61
-29.63
-29.39
-25.97
-19.35
-10.35
-0.21
9.85
19.02
26.87
33.19
37.82
40.59
41.41
40.45
38.23
35.45
32.81
30.68
29.08
27.61
25.71
22.87
18.83
13.78
8.33
3.44
0.13
-0.76
1.12
5.52
11.66
18.48
24.97
30.36
34.27
36.66
37.65
37.39
36.0
33.55
30.18
26.2
22.13
18.55
15.95
14.41
13.48
12.25
9.76
5.44
-0.4
-6.53
-11.18
-12.6
-9.81
-2.93
6.92
18.07
28.82
37.93
44.68
48.76
50.08
48.71
44.91
39.24
32.58
25.87
19.8
14.58
9.8
4.72
-1.44
-9.07
-17.96
-27.28
-35.82
-42.34
-45.92
-46.17
-43.28
-37.85
-30.79
-23.0
-15.38
-8.66
-3.35
0.26
2.19
2.77
2.51
1.94
1.33
0.53
-0.92
-3.66
-8.22
-14.71
-22.71
-31.27
-39.07
-44.78
-47.34
-46.23
-41.66
-34.45
-25.79
-16.98
-9.0
-2.42
2.72
6.68
9.89
12.73
15.47
18.26
21.16
24.1
26.86
29.07
30.26
29.94
27.71
23.47
17.5
10.52
3.58
-2.13
-5.58
-6.21
-4.05
0.27
5.77
11.4
16.3
19.94
22.02
22.52
21.49
19.15
15.81
11.92
7.96
4.37
1.49
-0.61
-2.12
-3.43
-5.01
-7.24
-10.03
-12.9
-15.02
-15.53
-13.95
-10.32
-5.21
0.52
6.03
10.7
14.15
16.23
16.94
16.36
14.73
12.32
9.42
6.22
2.76
-1.02
-5.14
-9.6
-14.33
-19.14
-23.77
-27.76
-30.45
-31.02
-28.83
-23.69
-16.12
-7.24
1.56
9.16
14.92
18.75
20.81
21.36
20.58
18.7
16.16
13.57
11.57
10.57
10.53
10.97
11.17
10.39
8.1
4.16
-1.12
-6.98
-12.26
-15.67
-16.17
-13.29
-7.27
1.0
10.31
19.45
27.52
33.94
38.4
40.78
41.08
39.42
36.11
31.64
26.56
21.41
16.54
12.05
7.82
3.51
-1.26
-6.75
-12.94
-19.48
-25.75
-30.98
-34.52
-35.91
-34.96
-31.72
-26.5
-19.74
-12.12
-4.34
2.9
9.02
13.66
16.67
18.08
18.04
16.84
14.83
12.44
9.93
7.33
4.27
0.19
-5.37
-12.35
-19.98
-26.92
-31.64
-33.04
-30.85
-25.68
-18.77
-11.5
-5.0
0.07
3.48
5.34
5.92
5.64
5.02
4.6
4.81
5.76
7.17
8.35
8.48
6.9
3.34
-1.9
-8.05
-13.97
-18.53
-20.82
-20.4
-17.39
-12.32
-6.05
0.55
6.7
11.87
15.64
17.77
18.11
16.74
14.09
10.96
8.37
7.3
8.28
11.22
15.4
19.68
22.86
24.04
22.87
19.64
15.15
10.49
6.73
4.71
4.79
6.9
10.64
15.36
20.37
24.91
28.22
29.64
28.74
25.43
20.1
13.51
6.5
-0.18
-6.15
-11.41
-16.2
-20.87
-25.67
-30.63
-35.58
-40.14
-43.78
-46.01
-46.41
-44.85
-41.45
-36.67
-31.16
-25.66
-20.78
-16.93
-14.27
-12.77
-12.31
-12.69
-13.74
-15.2
-16.83
-18.44
-19.91
-21.33
-22.84
-24.62
-26.74
-29.12
-31.56
-33.75
-35.26
-35.65
-34.42
-31.11
-25.51
-17.73
-8.35
1.63
11.03
18.76
24.01
26.48
26.33
24.13
20.68
16.84
13.31
10.51
8.52
7.07
5.69
3.76
0.76
-3.63
-9.32
-15.75
-21.98
-26.9
-29.62
-29.7
-27.3
-23.0
-17.52
-11.46
-5.15
1.2
7.39
13.06
17.75
21.04
22.74
22.92
21.83
19.76
16.94
13.5
9.59
5.35
0.95
-3.46
-7.76
-11.83
-15.45
-18.3
-19.98
-20.2
-18.9
-16.36
-13.06
-9.55
-6.25
-3.36
-0.89
1.21
3.05
4.67
6.14
7.53
8.82
9.9
10.43
10.01
8.24
4.92
0.1
-5.92
-12.65
-19.42
-25.46
-29.96
-32.24
-31.98
-29.28
-24.76
-19.27
-13.68
-8.71
-4.83
-2.3
-1.31
-1.9
-3.92
-6.94
-10.3
-13.21
-15.05
-15.56
-14.94
-13.78
-12.81
-12.73
-13.94
-16.39
-19.64
-22.85
-25.03
-25.31
-23.17
-18.63
-12.19
-4.75
2.76
9.47
14.74
18.22
19.78
19.51
17.74
15.04
12.06
9.41
7.41
6.07
5.06
3.9
2.18
-0.28
-3.34
-6.55
-9.24
-10.69
-10.33
-7.97
-3.81
1.56
7.4
13.04
18.0
22.05
25.1
27.05
27.81
27.3
25.54
22.8
19.48
15.98
12.57
9.25
5.81
1.99
-2.4
-7.31
-12.39
-17.08
-20.69
-22.57
-22.27
-19.64
-14.92
-8.67
-1.64
5.34
11.56
16.45
19.69
21.18
21.06
19.71
17.68
15.57
13.88
12.82
12.26
11.8
10.9
9.02
5.85
1.3
-4.39
-10.69
-16.78
-21.74
-24.64
-24.83
-22.04
-16.42
-8.58
0.64
10.19
19.09
26.49
31.82
34.84
35.59
34.33
31.41
27.14
21.82
15.71
9.11
2.3
-4.49
-11.09
-17.35
-23.02
-27.67
-30.76
-31.76
-30.44
-27.05
-22.21
-16.79
-11.5
-6.74
-2.5
1.39
5.12
8.67
11.83
14.26
15.62
15.74
14.63
12.42
9.29
5.38
0.75
-4.53
-10.33
-16.32
-21.92
-26.35
-28.8
-28.64
-25.67
-20.22
-13.05
-5.21
2.22
8.44
12.97
15.75
16.99
17.13
16.66
16.01
15.5
15.28
15.33
15.44
15.28
14.39
12.29
8.61
3.21
-3.59
-10.97
-17.72
-22.53
-24.38
-22.93
-18.63
-12.53
-5.92
0.15
5.05
8.62
10.96
12.21
12.46
11.79
10.37
8.59
6.98
6.05
6.06
6.83
7.76
8.01
6.83
3.84
-0.79
-6.31
-11.62
-15.65
-17.6
-17.12
-14.37
-9.85
-4.26
1.65
7.07
11.32
13.85
14.39
12.92
9.74
5.36
0.35
-4.67
-9.2
-12.89
-15.61
-17.53
-19.01
-20.45
-22.0
-23.37
-23.83
-22.55
-19.03
-13.39
-6.38
0.95
7.67
13.29
17.75
21.11
23.39
24.39
23.81
21.56
17.89
13.35
8.61
4.27
0.56
-2.66
-5.81
-9.41
-13.75
-18.66
-23.32
-26.45
-26.75
-23.42
-16.52
-7.06
3.5
13.72
22.68
29.98
35.55
39.27
40.88
40.18
37.26
32.77
27.78
23.38
20.34
18.76
18.11
17.45
15.79
12.32
6.76
-0.51
-8.52
-15.82
-20.96
-22.83
-21.07
-16.08
-8.86
-0.58
7.65
15.02
20.95
25.09
27.27
27.49
26.01
23.22
19.55
15.36
10.86
6.17
1.36
-3.49
-8.29
-13.02
-17.6
-21.77
-25.01
-26.59
-25.8
-22.27
-16.27
-8.62
-0.46
7.19
13.65
18.73
22.51
25.15
26.74
27.31
26.88
25.59
23.62
21.11
18.13
14.6
10.36
5.25
-0.73
-7.4
-14.25
-20.48
-25.11
-27.21
-26.22
-22.21
-15.91
-8.54
-1.43
4.37
8.34
10.44
10.96
10.34
9.08
7.64
6.44
5.85
6.03
6.92
8.14
9.07
9.02
7.46
4.21
-0.41
-5.6
-10.31
-13.5
-14.45
-13.0
-9.5
-4.68
0.69
6.04
11.01
15.42
19.08
21.71
22.95
22.57
20.67
17.74
14.49
11.6
9.42
7.78
6.16
3.92
0.66
-3.55
-8.21
-12.49
-15.6
-16.93
-16.24
-13.63
-9.47
-4.28
1.42
7.09
12.31
16.69
19.91
21.73
22.03
20.88
18.57
15.52
12.23
9.14
6.54
4.49
2.83
1.28
-0.46
-2.57
-4.98
-7.34
-9.1
-9.69
-8.73
-6.2
-2.43
2.0
6.44
10.32
13.31
15.25
16.17
16.23
15.6
14.48
13.01
11.28
9.35
7.18
4.76
2.01
-1.17
-4.97
-9.51
-14.77
-20.4
-25.73
-29.82
-31.77
-31.01
-27.56
-22.03
-15.43
-8.93
-3.45
0.44
2.63
3.29
2.73
1.32
-0.68
-3.06
-5.66
-8.31
-10.9
-13.32
-15.6
-17.87
-20.32
-23.05
-25.95
-28.57
-30.2
-30.14
-27.92
-23.51
-17.4
-10.4
-3.46
2.58
7.11
9.82
10.74
10.23
8.93
7.56
6.74
6.77
7.49
8.38
8.78
8.11
6.11
2.84
-1.36
-5.93
-10.24
-13.68
-15.7
-16.0
-14.48
-11.37
-7.06
-2.13
2.89
7.55
11.5
14.56
16.65
17.84
18.27
18.09
17.5
16.61
15.47
14.1
12.38
10.19
7.32
3.68
-0.7
-5.53
-10.33
-14.46
-17.32
-18.52
-17.92
-15.65
-12.04
-7.55
-2.74
1.86
5.73
8.51
10.08
10.57
10.39
10.0
9.74
9.73
9.78
9.46
8.21
5.54
1.14
-4.95
-12.32
-20.15
-27.4
-32.97
-36.0
-36.15
-33.64
-29.16
-23.69
-18.12
-13.14
-9.22
-6.62
-5.46
-5.68
-6.98
-8.74
-10.23
-10.77
-10.08
-8.33
-6.14
-4.3
-3.53
-4.27
-6.58
-10.11
-14.18
-17.86
-20.18
-20.37
-18.17
-13.84
-8.16
-2.11
3.42
7.78
10.7
12.14
12.26
11.36
9.81
8.06
6.53
5.5
5.07
5.15
5.55
6.04
6.31
6.04
4.92
2.82
-0.11
-3.42
-6.47
-8.61
-9.39
-8.67
-6.62
-3.58
0.09
3.96
7.62
10.56
12.3
12.46
10.97
8.09
4.38
0.52
-2.91
-5.59
-7.5
-8.89
-10.05
-11.23
-12.48
-13.68
-14.59
-14.94
-14.51
-13.19
-10.97
-7.95
-4.27
-0.14
4.18
8.36
11.97
14.59
15.86
15.64
14.07
11.52
8.5
5.51
2.9
0.79
-0.93
-2.5
-4.31
-6.67
-9.69
-13.16
-16.51
-18.94
-19.73
-18.46
-15.23
-10.63
-5.47
-0.58
3.47
6.37
8.05
8.56
8.05
6.67
4.66
2.33
-0.03
-2.16
-3.97
-5.55
-7.16
-9.16
-11.9
-15.48
-19.63
-23.63
-26.55
-27.43
-25.71
-21.35
-14.9
-7.3
0.42
7.39
13.03
17.09
19.6
20.75
20.84
20.23
19.2
17.92
16.38
14.4
11.76
8.29
4.0
-0.88
-5.96
-10.75
-14.66
-17.15
-17.7
-15.98
-11.89
-5.66
2.17
10.79
19.23
26.55
31.97
34.99
35.49
33.74
30.36
26.14
21.9
18.26
15.54
13.73
12.48
11.26
9.48
6.69
2.77
-1.94
-6.67
-10.39
-12.16
-11.39
-8.1
-2.74
3.99
11.48
19.31
27.24
35.03
42.32
48.69
53.89
58.04
61.66
65.49
70.13
75.77
82.09
88.37
93.86
98.09
100.98
102.89
104.4
106.08
108.38
111.54
115.79
121.34
128.41
137.01
146.84
157.23
167.44
176.81
184.99
191.72
196.61
198.89
197.48
191.42
180.31
164.61
145.47
124.15
101.48
77.48
51.6
23.26
-7.38
-39.07
-69.46
-95.73
-115.51
-127.68
-132.96
-133.86
-133.99
-137.09
-145.84
-161.04
-181.43
-204.2
-226.01
-244.11
-257.03
-264.67
-267.79
-267.35
-264.14
-258.72
-251.83
-244.57
-238.14
-233.21
-229.34
-224.93
-217.88
-206.66
-191.23
-173.21
-155.11
-139.24
-126.63
-116.8
-108.2
-99.21
-88.93
-77.5
-65.78
-54.76
-44.97
-36.44
-28.87
-22.04
-15.99
-11.04
-7.5
-5.4
-4.36
-3.68
-2.56
-0.42
3.05
7.75
13.34
19.29
25.06
30.21
34.55
38.13
41.15
43.83
46.21
48.14
49.36
49.66
49.0
47.56
45.55
43.1
40.21
36.82
32.99
28.97
25.18
22.0
19.53
17.55
15.71
13.79
11.96
10.72
10.67
12.14
15.05
18.88
22.95
26.65
29.55
31.43
32.18
31.65
29.74
26.41
21.78
16.16
9.98
3.68
-2.43
-8.19
-13.56
-18.53
-22.99
-26.61
-28.94
-29.47
-27.89
-24.22
-18.86
-12.37
-5.25
2.18
9.81
17.49
24.88
31.41
36.39
39.33
40.18
39.41
37.82
36.17
34.89
33.98
33.03
31.49
28.91
25.16
20.49
15.55
11.23
8.5
8.13
10.44
15.22
21.86
29.48
37.24
44.46
50.61
55.25
57.97
58.48
56.74
53.16
48.5
43.71
39.6
36.49
34.15
31.9
28.89
24.49
18.46
11.17
3.44
-3.73
-9.39
-12.99
-14.46
-14.19
-12.9
-11.28
-9.84
-8.81
-8.2
-7.9
-7.86
-8.04
-8.47
-9.12
-9.94
-10.89
-11.97
-13.33
-15.16
-17.59
-20.63
-24.09
-27.61
-30.72
-32.92
-33.75
-32.91
-30.24
-25.77
-19.78
-12.67
-4.96
2.77
10.01
16.38
21.6
25.52
28.06
29.21
29.01
27.6
25.18
22.0
18.29
14.12
9.41
3.99
-2.23
-9.11
-16.18
-22.77
-28.07
-31.38
-32.28
-30.68
-26.86
-21.4
-14.98
-8.3
-1.96
3.53
7.84
10.78
12.33
12.7
12.28
11.6
11.18
11.32
11.97
12.77
13.13
12.55
10.8
8.1
5.14
2.92
2.49
4.63
9.61
17.04
26.03
35.45
44.22
51.59
57.13
60.77
62.66
63.15
62.77
62.14
61.86
62.28
63.4
64.81
65.87
65.81
63.99
59.95
53.54
45.03
35.15
24.98
15.82
8.89
5.0
4.46
6.98
11.84
18.06
24.56
30.31
34.5
36.65
36.75
35.28
33.06
30.89
29.28
28.25
27.34
25.92
23.41
19.59
14.55
8.59
1.97
-5.12
-12.51
-19.83
-26.43
-31.4
-33.9
-33.58
-30.79
-26.62
-22.54
-19.92
-19.56
-21.55
-25.32
-30.06
-35.02
-39.69
-43.88
-47.49
-50.57
-53.19
-55.62
-58.35
-61.92
-66.72
-72.68
-79.13
-84.9
-88.65
-89.27
-86.26
-79.81
-70.71
-60.08
-49.08
-38.68
-29.64
-22.44
-17.33
-14.32
-13.14
-13.21
-13.76
-14.03
-13.44
-11.81
-9.4
-6.83
-4.85
-4.13
-4.95
-7.14
-10.05
-12.74
-14.29
-14.04
-11.76
-7.75
-2.6
2.97
8.34
13.08
16.98
19.9
21.76
22.51
22.17
20.87
18.91
16.67
14.55
12.88
11.78
11.2
10.84
10.3
9.23
7.46
5.16
2.75
0.81
-0.22
-0.11
1.05
2.98
5.42
8.16
11.12
14.16
17.12
19.71
21.65
22.79
23.14
22.83
22.0
20.79
19.26
17.5
15.64
13.8
12.12
10.64
9.38
8.41
7.98
8.48
10.39
14.03
19.34
25.89
32.97
39.85
45.92
50.75
54.03
55.44
54.73
51.82
46.96
40.77
34.06
27.5
21.32
15.32
8.96
1.78
-6.38
-15.28
-24.43
-33.27
-41.29
-47.95
-52.66
-54.76
-53.75
-49.63
-43.08
-35.35
-27.83
-21.65
-17.29
-14.64
-13.26
-12.75
-12.84
-13.35
-14.07
-14.69
-14.94
-14.73
-14.32
-14.19
-14.89
-16.74
-19.69
-23.36
-27.1
-30.17
-31.85
-31.61
-29.19
-24.75
-18.79
-12.06
-5.38
0.58
5.34
8.62
10.33
10.52
9.53
8.02
6.79
6.5
7.41
9.09
10.63
10.99
9.52
6.15
1.5
-3.39
-7.5
-10.01
-10.49
-8.89
-5.4
-0.4
5.67
12.23
18.68
24.37
28.66
31.0
31.05
28.77
24.53
19.03
13.11
7.54
2.77
-1.14
-4.43
-7.51
-10.77
-14.36
-18.11
-21.48
-23.7
-23.93
-21.69
-17.02
-10.72
-4.05
1.56
5.09
6.27
5.63
4.23
3.24
3.42
4.88
7.12
9.23
10.29
9.46
6.28
0.68
-6.84
-15.06
-22.29
-26.7
-27.08
-23.26
-16.27
-7.78
0.64
8.16
14.84
21.27
27.89
34.54
40.57
45.14
47.81
48.64
48.04
46.29
43.33
38.78
32.37
24.33
15.56
7.38
0.97
-3.08
-5.01
-5.67
-5.97
-6.51
-7.34
-7.95
-7.47
-4.99
0.17
8.16
18.35
29.37
39.37
46.57
49.9
49.37
45.97
41.08
35.71
29.87
22.59
12.54
-0.91
-16.97
-33.44
-47.53
-57.08
-61.61
-62.4
-61.78
-61.86
-63.58
-66.51
-69.46
-71.24
-71.29
-69.67
-66.7
-62.67
-57.77
-52.3
-46.88
-42.3
-39.32
-38.28
-39.04
-40.9
-42.83
-43.65
-42.24
-37.86
-30.37
-20.52
-9.9
-0.52
5.76
7.88
5.96
1.27
-4.06
-7.46
-6.37
1.21
16.0
36.88
60.73
83.18
100.0
108.7
109.52
105.09
99.14
94.66
92.72
92.27
91.05
86.82
78.33
65.52
49.21
30.7
11.59
-6.23
-20.68
-29.89
-32.88
-29.97
-22.87
-14.13
-6.37
-1.64
-0.92
-4.25
-10.82
-19.33
-28.23
-36.02
-41.62
-44.6
-45.25
-44.47
-43.33
-42.72
-43.17
-44.89
-47.91
-52.15
-57.27
-62.51
-66.69
-68.46
-66.67
-60.83
-51.3
-39.2
-26.15
-13.84
-3.71
3.25
6.66
6.73
4.11
-0.28
-5.5
-10.78
-15.6
-19.7
-23.04
-25.69
-27.92
-30.08
-32.53
-35.47
-38.71
-41.7
-43.53
-43.29
-40.35
-34.61
-26.57
-17.21
-7.68
1.0
8.15
13.53
17.19
19.37
20.33
20.33
19.68
18.68
17.61
16.68
15.88
14.99
13.58
11.18
7.45
2.47
-3.3
-8.92
-13.38
-15.78
-15.64
-13.05
-8.58
-3.02
2.86
8.47
13.45
17.58
20.7
22.65
23.38
22.97
21.71
19.93
17.97
15.98
13.86
11.38
8.27
4.43
0.03
-4.61
-8.94
-12.38
-14.31
-14.18
-11.62
-6.56
0.6
9.07
17.74
25.64
32.07
36.78
39.87
41.57
42.08
41.53
40.09
37.99
35.56
33.07
30.64
28.15
25.35
22.0
17.99
13.5
8.78
4.18
-0.0
-3.5
-6.04
-7.36
-7.24
-5.64
-2.81
0.67
4.0
6.42
7.4
6.84
5.01
2.45
-0.35
-3.0
-5.37
-7.5
-9.52
-11.53
-13.7
-16.16
-19.04
-22.33
-25.84
-29.08
-31.34
-31.87
-30.1
-25.82
-19.29
-11.16
-2.27
6.53
14.5
21.11
26.07
29.34
31.08
31.61
31.29
30.43
29.21
27.72
25.97
23.97
21.7
19.06
15.87
11.96
7.33
2.33
-2.38
-5.92
-7.63
-7.27
-5.11
-1.78
2.04
5.76
9.04
11.66
13.38
13.92
13.03
10.67
7.14
3.03
-0.94
-4.2
-6.48
-7.97
-9.13
-10.49
-12.51
-15.41
-19.09
-23.16
-26.99
-29.81
-30.85
-29.57
-25.78
-19.69
-11.9
-3.2
5.49
13.37
19.74
24.22
26.76
27.7
27.73
27.68
28.2
29.55
31.53
33.65
35.34
36.15
35.82
34.26
31.42
27.35
22.33
16.92
11.94
8.22
6.31
6.26
7.61
9.57
11.37
12.49
12.71
12.0
10.34
7.73
4.16
-0.25
-5.2
-10.22
-14.87
-18.84
-22.07
-24.72
-27.06
-29.35
-31.72
-34.09
-36.18
-37.54
-37.7
-36.24
-32.96
-27.9
-21.36
-13.81
-5.82
2.01
9.08
14.83
18.89
21.13
21.78
21.4
20.67
20.21
20.31
20.92
21.67
22.06
21.67
20.25
17.81
14.69
11.43
8.76
7.39
7.74
9.7
12.63
15.52
17.41
17.79
16.71
14.72
12.45
10.26
8.08
5.55
2.31
-1.75
-6.37
-11.06
-15.38
-19.16
-22.6
-26.03
-29.8
-33.86
-37.76
-40.71
-41.91
-40.9
-37.76
-33.07
-27.65
-22.21
-17.13
-12.48
-8.17
-4.21
-0.76
1.9
3.54
4.14
3.89
3.21
2.56
2.36
2.88
4.2
6.25
8.82
11.59
14.26
16.55
18.29
19.46
20.28
21.1
22.34
24.24
26.72
29.27
31.05
31.23
29.24
25.06
19.15
12.42
5.83
0.17
-4.19
-7.33
-9.72
-12.02
-14.82
-18.44
-22.89
-27.94
-33.13
-37.97
-41.85
-44.08
-44.02
-41.25
-35.86
-28.56
-20.49
-12.84
-6.42
-1.38
2.62
6.08
9.28
12.1
14.2
15.29
15.37
14.8
14.08
13.6
13.52
13.69
13.81
13.6
12.9
11.74
10.35
9.09
8.33
8.41
9.59
11.9
15.23
19.16
23.07
26.15
27.54
26.64
23.3
18.01
11.74
5.72
0.97
-1.98
-3.21
-3.28
-3.01
-3.13
-4.19
-6.44
-9.88
-14.32
-19.36
-24.4
-28.65
-31.23
-31.38
-28.75
-23.55
-16.61
-9.14
-2.37
2.79
6.0
7.39
7.46
6.76
5.72
4.61
3.54
2.57
1.72
1.05
0.57
0.26
0.0
-0.42
-1.25
-2.62
-4.42
-6.24
-7.43
-7.31
-5.42
-1.68
3.55
9.6
15.68
21.07
25.21
27.72
28.41
27.31
24.66
20.92
16.74
12.77
9.57
7.38
6.11
5.25
4.09
1.93
-1.63
-6.5
-12.04
-17.32
-21.39
-23.58
-23.57
-21.39
-17.29
-11.63
-5.05
1.65
7.47
11.5
13.26
12.87
10.99
8.6
6.56
5.34
5.0
5.3
5.93
6.66
7.29
7.63
7.38
6.25
4.04
0.91
-2.6
-5.68
-7.54
-7.71
-6.16
-3.27
0.4
4.38
8.32
11.98
15.06
17.2
18.0
17.27
15.12
12.01
8.53
5.2
2.34
0.05
-1.73
-3.1
-4.25
-5.43
-7.0
-9.23
-12.25
-15.87
-19.57
-22.61
-24.28
-24.1
-21.98
-18.26
-13.56
-8.54
-3.8
0.25
3.39
5.49
6.52
6.58
5.86
4.67
3.39
2.33
1.68
1.49
1.63
1.88
1.97
1.65
0.74
-0.76
-2.62
-4.4
-5.5
-5.36
-3.6
-0.18
4.62
10.3
16.28
21.98
26.95
30.82
33.31
34.25
33.56
31.31
27.68
23.0
17.58
11.76
5.85
0.16
-4.97
-9.26
-12.62
-15.19
-17.4
-19.68
-22.16
-24.5
-25.9
-25.45
-22.48
-16.86
-9.07
-0.07
9.05
17.21
23.53
27.38
28.46
26.83
22.99
17.82
12.42
7.91
5.13
4.43
5.59
7.97
10.74
13.15
14.7
15.2
14.59
12.87
9.93
5.73
0.35
-5.81
-12.02
-17.38
-20.94
-22.05
-20.46
-16.41
-10.65
-4.26
1.58
5.83
7.88
7.6
5.32
1.6
-2.98
-7.96
-13.0
-17.88
-22.34
-26.14
-29.13
-31.36
-32.97
-34.18
-35.05
-35.4
-34.89
-33.14
-29.99
-25.62
-20.43
-14.95
-9.61
-4.76
-0.67
2.34
3.97
4.01
2.58
0.14
-2.51
-4.55
-5.39
-4.91
-3.43
-1.58
0.03
1.01
1.29
1.13
0.93
1.1
1.97
3.7
6.31
9.72
13.78
18.34
23.21
28.22
33.09
37.52
41.05
43.25
43.75
42.34
39.04
34.1
27.86
20.68
12.88
4.74
-3.52
-11.64
-19.37
-26.44
-32.55
-37.39
-40.67
-42.16
-41.77
-39.54
-35.71
-30.64
-24.65
-17.97
-10.66
-2.75
5.66
14.24
22.39
29.32
34.22
36.45
35.69
32.06
26.19
19.08
11.99
6.12
2.39
1.21
2.41
5.34
9.07
12.6
15.04
15.83
14.76
12.12
8.54
4.95
2.25
1.12
1.83
4.18
7.64
11.54
15.22
18.22
20.36
21.64
22.13
21.78
20.36
17.47
12.75
6.16
-1.79
-10.07
-17.29
-22.16
-23.83
-22.22
-17.96
-12.25
-6.44
-1.75
1.04
1.66
0.3
-2.52
-6.19
-10.18
-14.08
-17.75
-21.18
-24.5
-27.88
-31.43
-35.11
-38.72
-41.89
-44.22
-45.37
-45.23
-43.88
-41.54
-38.34
-34.31
-29.3
-23.22
-16.09
-8.24
-0.17
7.52
14.33
19.91
24.11
26.94
28.64
29.52
30.0
30.37
30.67
30.65
29.87
27.86
24.36
19.39
13.22
6.26
-0.99
-8.03
-14.35
-19.48
-23.05
-24.86
-24.89
-23.31
-20.33
-16.17
-11.07
-5.33
0.68
6.49
11.69
16.01
19.4
22.06
24.46
27.19
30.92
36.26
43.57
52.77
63.4
74.53
85.02
93.66
99.43
101.7
100.41
96.09
89.71
82.45
75.45
69.56
65.27
62.7
61.56
61.17
60.43
58.05
52.95
44.75
34.12
22.81
13.12
7.2
6.18
9.79
16.53
24.16
30.48
34.04
34.52
32.72
30.11
28.2
27.96
29.41
31.82
33.95
34.53
32.42
26.53
15.92
0.11
-20.53
-44.46
-69.25
-92.22
-111.31
-125.66
-135.55
-141.83
-145.32
-146.48
-145.44
-142.31
-137.37
-131.14
-124.15
-116.84
-109.45
-102.25
-95.46
-89.31
-83.82
-78.84
-73.99
-68.77
-62.64
-55.17
-46.13
-35.65
-24.22
-12.63
-1.65
8.18
16.75
24.35
31.37
38.03
44.2
49.39
53.02
54.74
54.55
52.89
50.5
48.17
46.58
46.17
47.05
49.0
51.46
53.56
54.2
52.33
47.23
38.78
27.51
14.52
1.2
-11.13
-21.5
-29.47
-35.09
-38.88
-41.57
-43.99
-46.83
-50.44
-54.73
-59.15
-62.87
-65.02
-65.09
-63.0
-59.12
-54.05
-48.35
-42.36
-36.26
-30.14
-24.23
-18.93
-14.78
-12.19
-11.31
-11.96
-13.72
-16.13
-18.83
-21.64
-24.53
-27.43
-30.19
-32.41
-33.58
-33.15
-30.7
-26.05
-19.38
-11.13
-1.9
7.69
17.11
26.03
34.24
41.65
48.15
53.62
57.95
61.02
62.74
63.01
61.77
58.99
54.76
49.37
43.19
36.55
29.65
22.42
14.77
6.85
-0.83
-7.36
-11.77
-13.4
-12.26
-9.01
-4.67
-0.19
3.84
7.33
10.5
13.64
16.95
20.37
23.67
26.54
28.69
29.9
30.04
29.06
26.93
23.59
19.0
13.13
6.09
-1.79
-9.92
-17.6
-24.15
-29.03
-31.96
-32.88
-31.85
-29.0
-24.46
-18.43
-11.33
-3.82
3.21
8.86
12.45
13.69
12.76
10.12
6.23
1.41
-4.2
-10.61
-17.66
-25.02
-32.14
-38.45
-43.54
-47.22
-49.47
-50.28
-49.6
-47.31
-43.34
-37.88
-31.26
-23.92
-16.21
-8.22
0.09
8.71
17.4
25.58
32.47
37.38
40.0
40.41
39.04
36.41
32.99
29.1
25.0
20.95
17.13
13.56
10.01
6.12
1.62
-3.44
-8.54
-12.75
-15.16
-15.1
-12.52
-7.94
-2.25
3.56
8.69
12.67
15.27
16.51
16.45
15.23
13.05
10.13
6.77
3.24
-0.3
-3.85
-7.58
-11.79
-16.73
-22.53
-29.06
-35.94
-42.51
-47.98
-51.5
-52.3
-50.01
-44.63
-36.65
-26.86
-16.22
-5.63
4.3
13.35
21.66
29.61
37.5
45.33
52.69
58.91
63.29
65.38
65.15
62.94
59.21
54.38
48.65
42.09
34.68
26.47
17.59
8.25
-1.2
-10.33
-18.59
-25.42
-30.48
-33.63
-35.0
-34.85
-33.47
-31.1
-28.01
-24.62
-21.5
-19.26
-18.29
-18.54
-19.46
-20.28
-20.29
-19.29
-17.67
-16.31
-16.25
-18.33
-22.95
-29.97
-38.74
-48.24
-57.17
-64.16
-68.05
-68.13
-64.37
-57.36
-48.16
-37.93
-27.7
-18.19
-9.75
-2.42
3.96
9.76
15.31
20.86
26.48
32.09
37.5
42.45
46.63
49.58
50.7
49.36
45.17
38.22
29.18
19.17
9.4
0.85
-5.88
-10.44
-12.56
-11.92
-8.26
-1.61
7.49
17.94
28.27
37.02
43.19
46.4
46.95
45.62
43.35
40.9
38.69
36.65
34.3
30.89
25.74
18.47
9.29
-1.08
-11.51
-20.79
-27.91
-32.26
-33.66
-32.24
-28.41
-22.65
-15.59
-7.74
0.5
8.92
17.5
26.3
35.25
44.09
52.35
59.46
64.97
68.71
70.75
71.42
71.07
69.98
68.28
65.89
62.53
57.71
50.81
41.31
29.09
14.62
-0.97
-16.17
-29.53
-40.12
-47.67
-52.45
-54.92
-55.33
-53.73
-50.08
-44.61
-38.04
-31.5
-26.18
-22.87
-21.69
-22.2
-23.64
-25.47
-27.54
-30.23
-34.04
-39.39
-46.23
-54.08
-62.05
-69.11
-74.25
-76.73
-76.18
-72.66
-66.7
-59.17
-51.01
-42.98
-35.47
-28.51
-21.84
-15.19
-8.43
-1.59
5.11
11.39
16.97
21.56
24.9
26.7
26.7
24.75
20.91
15.41
8.73
1.44
-5.85
-12.62
-18.46
-23.1
-26.42
-28.4
-29.02
-28.25
-25.94
-21.91
-16.03
-8.43
0.39
9.54
17.94
24.62
28.91
30.66
30.1
27.69
23.93
19.18
13.64
7.38
0.42
-7.2
-15.34
-23.69
-31.79
-38.94
-44.34
-47.21
-47.05
-43.79
-37.9
-30.19
-21.64
-13.13
-5.19
2.0
8.55
14.74
20.85
27.06
33.37
39.57
45.31
50.14
53.64
55.49
55.51
53.69
50.12
44.99
38.55
31.12
23.07
14.8
6.73
-0.77
-7.34
-12.64
-16.38
-18.32
-18.26
-16.11
-11.86
-5.83
1.36
8.74
15.11
19.43
21.05
19.94
16.57
11.66
5.96
0.06
-5.57
-10.59
-14.75
-18.03
-20.74
-23.4
-26.5
-30.15
-33.9
-36.85
-38.03
-36.88
-33.47
-28.49
-22.86
-17.27
-11.91
-6.44
-0.33
6.8
14.85
23.25
31.21
38.13
43.78
48.34
52.16
55.51
58.41
60.67
62.06
62.4
61.49
59.03
54.55
47.58
38.0
26.41
14.19
3.18
-4.84
-8.74
-8.34
-4.34
1.98
9.3
16.73
23.82
30.55
36.87
42.72
48.03
52.7
56.65
59.85
62.4
64.47
66.2
67.48
68.0
67.29
64.93
60.47
53.91
45.86
37.52
30.34
25.2
22.25
21.0
20.45
18.97
15.42
9.53
1.95
-5.94
-13.52
-20.41
-26.24
-30.94
-36.1
-43.67
-55.21
-71.19
-90.04
-110.5
-130.4
-146.96
-158.2
-165.8
-172.82
-182.14
-194.84
-208.66
-221.99
-232.48
-237.13
-233.74
-223.88
-210.18
-195.04
-179.91
-164.36
-151.06
-142.59
-139.89
-125.62
-88.95
-30.77
35.73
84.22
114.32
130.9
138.93
145.73
154.29
162.78
168.33
169.18
166.0
162.85
161.33
162.43
167.03
174.99
183.65
190.46
194.4
196.39
199.45
203.75
208.0
210.51
209.44
202.76
190.17
173.52
156.23
142.86
135.37
133.97
137.46
143.2
147.16
145.22
134.37
113.57
84.38
49.46
12.41
-22.92
-53.38
-76.95
-92.48
-99.48
-98.01
-88.79
-73.87
-56.32
-39.81
-27.88
-23.01
-25.95
-35.61
-49.52
-64.81
-79.3
-92.18
-104.07
-116.4
-130.57
-147.17
-165.83
-185.34
-204.3
-221.68
-237.25
-251.58
-265.83
-281.13
-298.02
-316.0
-333.37
-347.49
-355.37
-354.46
-343.3
-322.01
-292.23
-256.59
-217.94
-178.59
-139.84
-102.0
-64.78
-28.05
7.48
39.91
66.58
84.78
92.93
91.47
83.04
71.91
62.63
58.73
61.78
71.28
85.37
101.9
119.22
136.31
152.5
166.88
178.17
184.93
186.15
181.78
172.89
161.36
149.1
137.39
126.51
115.78
104.14
90.71
75.25
58.34
41.14
24.97
10.99
-0.11
-8.13
-13.17
-15.4
-14.93
-11.75
-5.98
1.95
11.15
20.43
28.69
35.26
40.14
43.83
46.96
49.8
52.16
53.46
53.14
51.01
47.37
42.86
38.19
33.88
30.16
27.03
24.44
22.29
20.49
18.95
17.57
16.4
15.6
15.39
15.77
16.21
15.62
12.55
5.79
-5.01
-19.13
-34.91
-50.38
-63.9
-74.53
-82.04
-86.55
-88.24
-87.09
-82.95
-75.74
-65.71
-53.49
-40.08
-26.62
-14.17
-3.46
5.24
12.14
17.8
22.86
27.73
32.44
36.54
39.42
40.51
39.63
37.05
33.34
29.09
24.75
20.52
16.46
12.67
9.4
7.03
5.92
6.25
7.96
10.88
14.77
19.52
25.02
31.01
37.03
42.42
46.49
48.8
49.37
48.67
47.54
46.9
47.49
49.6
53.01
57.06
60.84
63.63
65.35
66.98
70.46
78.04
91.03
108.75
128.16
144.42
152.38
148.0
129.58
98.15
57.12
11.54
-32.82
-70.59
-98.05
-114.21
-121.32
-124.02
-127.31
-134.22
-144.17
-153.23
-156.16
-148.88
-130.29
-102.41
-69.08
-34.28
-1.06
28.66
53.61
73.0
86.72
95.94
103.15
111.49
123.27
138.71
155.69
170.52
179.42
179.99
171.81
156.16
135.23
111.31
86.41
62.14
39.85
20.67
5.42
-5.67
-13.14
-18.22
-22.53
-27.53
-33.96
-41.49
-48.82
-54.21
-56.17
-54.12
-48.56
-40.78
-32.24
-23.93
-16.23
-9.24
-3.34
0.38
0.21
-5.47
-17.4
-34.78
-55.28
-75.75
-93.32
-106.26
-114.46
-119.1
-121.92
-124.49
-127.62
-131.23
-134.59
-136.71
-136.81
-134.44
-129.6
-122.53
-113.59
-103.13
-91.54
-79.34
-67.24
-56.11
-46.77
-39.79
-35.36
-33.17
-32.62
-32.96
-33.54
-33.85
-33.56
-32.43
-30.29
-27.0
-22.64
-17.49
-12.18
-7.47
-4.11
-2.51
-2.62
-3.93
-5.61
-6.86
-7.08
-6.07
-3.95
-1.13
1.94
4.86
7.38
9.43
11.08
12.45
13.66
14.97
16.79
19.7
24.22
30.41
37.54
44.01
47.76
47.07
41.26
31.04
18.32
5.39
-5.88
-14.51
-20.54
-24.55
-27.21
-29.0
-30.15
-30.75
-30.94
-30.87
-30.57
-29.94
-28.67
-26.55
-23.65
-20.36
-17.28
-14.91
-13.35
-12.24
-10.92
-8.7
-5.25
-0.62
4.75
10.33
15.63
20.37
24.43
27.76
30.3
32.03
32.94
33.06
32.44
31.13
29.09
26.24
22.49
17.95
12.94
7.99
3.78
0.87
-0.52
-0.57
0.15
0.88
0.93
-0.12
-2.25
-5.12
-8.2
-10.91
-12.82
-13.58
-13.07
-11.33
-8.71
-5.85
-3.54
-2.51
-3.2
-5.55
-9.14
-13.39
-17.79
-22.07
-26.15
-29.91
-33.24
-35.9
-37.74
-38.79
-39.25
-39.43
-39.5
-39.42
-38.91
-37.63
-35.31
-31.96
-27.85
-23.43
-19.23
-15.64
-12.8
-10.6
-8.74
-6.88
-4.85
-2.74
-0.85
0.47
0.99
0.85
0.47
0.46
1.36
3.44
6.58
10.31
13.91
16.61
17.68
16.67
13.46
8.4
2.25
-3.9
-8.86
-11.59
-11.42
-8.16
-2.1
6.03
15.16
24.01
31.33
36.03
37.48
35.55
30.72
23.89
16.34
9.45
4.53
2.53
3.84
8.21
14.75
22.27
29.55
35.69
40.22
43.0
44.02
43.32
40.87
36.76
31.3
25.04
18.68
12.81
7.79
3.58
-0.15
-3.79
-7.58
-11.44
-14.89
-17.24
-17.75
-15.96
-11.85
-5.85
1.26
8.6
15.4
21.17
25.71
29.04
31.31
32.71
33.37
33.39
32.8
31.53
29.53
26.8
23.45
19.77
16.18
13.11
10.82
9.33
8.41
7.74
7.14
6.76
7.11
8.86
12.57
18.35
25.73
33.81
41.52
48.0
52.89
56.26
58.48
59.94
60.81
61.09
60.8
60.09
59.39
59.25
60.14
62.23
65.49
69.86
75.45
82.37
90.36
98.21
103.64
103.79
96.26
80.2
56.82
28.99
0.12
-26.98
-50.63
-70.09
-84.82
-93.96
-96.56
-92.21
-81.83
-67.82
-53.39
-41.57
-34.1
-31.1
-31.29
-32.64
-33.09
-31.05
-25.75
-17.42
-7.17
3.4
12.92
20.93
28.3
36.8
48.25
63.45
81.61
100.6
117.89
131.49
140.65
145.68
147.44
146.65
143.7
138.84
132.66
126.22
120.93
117.91
117.41
118.53
119.52
118.52
114.47
107.59
99.32
91.63
86.11
83.29
82.46
82.14
80.69
77.03
70.91
62.78
53.39
43.45
33.31
22.98
12.2
0.53
-12.55
-27.66
-45.45
-66.37
-90.39
-116.76
-143.93
-169.73
-191.88
-208.48
-218.59
-222.38
-220.93
-215.83
-208.69
-200.78
-193.05
-186.13
-180.3
-175.53
-171.33
-167.04
-162.09
-156.4
-150.39
-144.8
-140.15
-136.38
-132.82
-128.54
-122.87
-115.66
-107.23
-98.04
-88.42
-78.62
-68.97
-60.16
-53.06
-48.45
-46.56
-46.84
-48.1
-48.96
-48.37
-46.05
-42.44
-38.5
-35.25
-33.44
-33.28
-34.44
-36.18
-37.58
-37.8
-36.28
-32.84
-27.59
-20.79
-12.81
-4.01
5.18
14.18
22.25
28.62
32.65
34.07
33.06
30.3
26.71
23.27
20.68
19.2
18.63
18.38
17.72
16.04
13.05
8.92
4.18
-0.43
-4.17
-6.46
-7.02
-5.8
-3.02
0.88
5.3
9.61
13.24
15.82
17.17
17.32
16.39
14.51
11.83
8.5
4.78
0.96
-2.61
-5.61
-7.88
-9.46
-10.55
-11.51
-12.68
-14.3
-16.41
-18.77
-20.92
-22.36
-22.69
-21.86
-20.08
-17.82
-15.49
-13.42
-11.8
-10.78
-10.55
-11.24
-12.81
-14.85
-16.66
-17.48
-16.93
-15.21
-13.15
-11.89
-12.33
-14.79
-18.81
-23.32
-27.03
-28.83
-28.13
-24.92
-19.62
-12.9
-5.36
2.55
10.55
18.35
25.54
31.61
36.05
38.48
38.84
37.32
34.24
29.97
24.86
19.34
13.92
9.06
4.89
1.06
-3.15
-8.48
-15.2
-22.81
-30.04
-35.37
-37.51
-35.89
-30.79
-23.08
-13.92
-4.48
4.27
11.56
16.84
19.78
20.25
18.41
14.67
9.61
4.02
-1.36
-5.91
-9.36
-11.82
-13.73
-15.58
-17.69
-19.84
-21.15
-20.34
-16.18
-8.06
3.53
17.11
30.75
42.85
52.76
60.88
68.33
76.13
84.62
93.27
100.91
106.18
108.03
105.81
99.44
89.24
75.92
60.47
44.09
28.01
13.19
0.2
-10.76
-19.73
-26.61
-31.06
-32.47
-30.25
-24.21
-14.79
-3.06
9.58
21.8
32.46
40.75
46.03
47.78
45.69
39.94
31.38
21.47
12.03
4.62
0.13
-1.39
-0.64
1.24
3.11
4.02
3.53
1.82
-0.43
-2.18
-2.53
-1.05
1.99
5.79
9.4
12.17
13.9
14.81
15.15
14.95
13.86
11.27
6.66
-0.21
-9.09
-19.37
-30.17
-40.46
-49.36
-56.28
-61.0
-63.6
-64.34
-63.3
-60.3
-54.89
-46.58
-35.1
-20.68
-4.13
13.24
29.92
44.53
56.15
64.46
69.8
72.96
75.02
77.19
80.58
86.05
93.88
103.65
114.19
123.81
130.88
134.33
133.98
130.48
124.8
117.78
109.62
99.75
87.07
70.31
48.33
20.43
-13.28
-51.45
-91.2
-128.31
-157.93
-176.07
-180.93
-173.53
-157.42
-137.36
-117.81
-101.78
-90.77
-85.3
-85.67
-92.42
-106.06
-126.46
-152.24
-180.74
-208.59
-232.74
-251.36
-264.2
-272.15
-276.33
-276.89
-272.53
-260.85
-239.57
-208.05
-168.19
-124.19
-81.3
-43.83
-13.69
10.01
30.03
49.13
68.42
86.67
100.96
108.31
107.36
99.18
86.77
73.76
62.9
55.24
50.4
47.43
45.76
45.55
47.47
51.95
58.58
65.94
71.9
74.33
71.84
64.5
54.06
43.51
36.24
34.94
40.78
53.14
69.92
88.23
105.11
118.15
125.91
128.15
125.83
120.8
115.23
110.77
107.89
105.81
103.12
98.76
92.8
86.3
80.51
75.85
71.59
66.3
58.94
49.76
40.41
33.08
29.39
29.5
32.01
34.65
35.15
32.12
25.24
15.25
3.54
-8.11
-18.1
-25.33
-29.47
-30.94
-30.74
-30.01
-29.54
-29.39
-28.84
-26.81
-22.56
-16.37
-9.82
-5.47
-5.89
-12.47
-24.74
-40.3
-55.8
-68.24
-75.98
-79.25
-79.63
-79.39
-80.67
-84.95
-92.54
-102.1
-110.64
-114.03
-108.26
-91.07
-62.97
-27.24
11.38
48.52
81.63
110.27
135.11
156.68
174.46
187.05
193.07
192.1
184.83
172.69
157.05
138.67
117.77
94.35
68.67
41.43
13.83
-12.6
-36.11
-54.91
-67.53
-73.32
-72.78
-67.44
-59.31
-49.94
-39.86
-28.63
-15.74
-1.5
12.44
23.57
29.7
30.19
26.4
21.1
17.2
16.39
18.54
22.12
25.2
26.56
26.31
25.65
26.2
29.1
34.35
40.68
45.83
47.36
43.3
32.68
15.72
-6.35
-31.26
-55.67
-75.35
-85.99
-84.56
-70.6
-46.82
-18.39
8.71
29.55
41.43
44.09
38.85
27.64
12.29
-5.61
-24.29
-41.52
-54.49
-60.1
-55.55
-39.18
-11.24
25.6
66.55
105.9
138.59
161.76
174.97
179.56
177.45
170.09
158.35
143.02
125.33
106.9
89.14
72.56
56.78
41.15
25.83
12.25
2.6
-1.42
0.15
5.26
10.7
13.78
13.59
11.21
8.84
8.36
10.34
14.1
18.53
23.02
27.68
33.01
39.16
45.52
50.91
54.29
55.31
54.47
52.74
50.87
49.1
47.19
44.85
42.1
39.23
36.52
33.89
30.8
26.56
20.79
13.79
6.5
0.09
-4.45
-6.62
-6.37
-3.9
0.63
7.11
15.3
24.64
34.04
42.01
46.92
47.48
43.0
33.49
19.75
3.09
-14.69
-31.6
-45.66
-55.45
-60.58
-61.92
-61.39
-61.31
-63.54
-68.84
-76.61
-85.32
-93.18
-98.79
-101.43
-100.97
-97.56
-91.43
-83.01
-73.07
-62.92
-54.07
-47.82
-44.68
-44.25
-45.45
-47.12
-48.44
-49.16
-49.44
-49.42
-48.98
-47.71
-45.21
-41.49
-37.17
-33.41
-31.43
-32.06
-35.35
-40.47
-46.03
-50.5
-52.7
-52.09
-48.85
-43.69
-37.49
-31.11
-25.1
-19.78
-15.3
-11.83
-9.56
-8.77
-9.66
-12.16
-15.79
-19.67
-22.85
-24.68
-25.12
-24.74
-24.47
-25.07
-26.8
-29.34
-31.9
-33.54
-33.53
-31.5
-27.65
-22.63
-17.42
-13.03
-10.13
-8.91
-9.0
-9.82
-10.82
-11.67
-12.25
-12.42
-11.92
-10.48
-8.17
-5.52
-3.5
-3.06
-4.66
-7.94
-11.82
-14.99
-16.36
-15.47
-12.49
-8.06
-2.95
2.15
6.74
10.6
13.65
15.9
17.36
18.01
17.82
16.81
15.06
12.68
9.74
6.2
1.94
-3.11
-8.79
-14.61
-19.73
-23.24
-24.41
-23.07
-19.56
-14.67
-9.33
-4.29
0.09
3.87
7.36
10.92
14.57
17.94
20.33
21.04
19.72
16.56
12.22
7.62
3.67
1.05
0.14
0.97
3.22
6.18
8.88
10.37
10.07
8.09
5.04
1.82
-0.88
-2.87
-4.29
-5.42
-6.3
-6.93
-7.32
-7.79
-8.87
-11.0
-14.16
-17.79
-20.97
-22.88
-23.25
-22.42
-21.12
-20.15
-19.93
-20.41
-21.03
-20.99
-19.45
-15.89
-10.28
-3.18
4.45
11.6
17.64
22.44
26.32
29.62
32.39
34.23
34.45
32.36
27.67
20.48
11.29
0.78
-10.31
-21.14
-30.91
-38.82
-44.22
-46.75
-46.46
-43.73
-39.09
-33.03
-25.71
-17.02
-6.79
4.86
17.21
28.98
38.6
44.71
46.61
44.35
38.69
30.78
21.85
13.1
5.59
0.23
-2.29
-1.65
1.86
7.17
12.55
15.99
15.77
11.01
2.06
-9.81
-22.87
-35.55
-46.92
-56.77
-65.24
-72.44
-78.15
-81.8
-82.63
-80.02
-73.76
-64.16
-52.06
-38.71
-25.55
-13.93
-4.89
1.02
3.81
3.96
2.33
0.04
-1.79
-2.35
-1.31
1.07
4.09
6.85
8.64
9.13
8.5
7.32
6.38
6.34
7.6
10.1
13.36
16.66
19.25
20.48
19.97
17.61
13.56
8.23
2.08
-4.5
-11.32
-18.38
-25.76
-33.31
-40.64
-47.07
-51.89
-54.76
-55.82
-55.73
-55.27
-54.93
-54.66
-53.82
-51.5
-46.98
-39.99
-30.96
-20.73
-10.29
-0.52
7.98
14.7
19.12
20.73
19.24
15.02
9.2
3.57
0.01
-0.2
3.08
8.86
15.37
20.74
23.69
23.76
21.36
17.45
13.1
9.21
6.27
4.3
3.0
2.07
1.24
0.49
-0.12
-0.62
-1.25
-2.34
-4.04
-6.14
-8.07
-9.15
-8.99
-7.8
-6.38
-5.77
-6.79
-9.67
-14.0
-18.92
-23.56
-27.28
-29.7
-30.67
-30.12
-28.06
-24.57
-19.9
-14.4
-8.31
-1.72
5.54
13.8
23.24
33.66
44.44
54.58
63.11
69.41
73.4
75.63
76.97
78.35
80.26
82.6
84.66
85.47
84.23
80.75
75.6
69.98
65.34
62.98
63.7
67.67
74.45
83.0
91.82
98.99
102.48
100.64
92.67
79.09
61.68
42.93
25.22
10.09
-2.02
-11.54
-19.15
-25.16
-29.43
-31.56
-31.24
-28.58
-24.02
-18.14
-11.45
-4.24
3.34
11.12
18.83
25.81
31.22
34.06
33.57
29.57
22.67
14.18
5.64
-1.62
-6.9
-10.13
-11.64
-11.86
-11.0
-9.1
-6.13
-2.09
2.79
8.06
13.0
16.78
18.71
18.38
15.8
11.21
4.81
-3.45
-13.77
-26.15
-39.99
-54.02
-66.56
-76.07
-81.62
-83.01
-80.64
-75.17
-67.29
-57.83
-47.96
-39.17
-33.11
-30.95
-32.78
-37.58
-43.48
-48.59
-51.71
-52.6
-51.78
-49.9
-47.44
-44.52
-41.22
-37.91
-35.31
-34.16
-34.73
-36.53
-38.38
-38.84
-36.87
-32.19
-25.41
-17.66
-10.3
-4.38
-0.47
1.41
1.71
1.09
0.26
-0.23
-0.13
0.47
1.27
1.92
2.17
1.98
1.5
0.94
0.42
-0.09
-0.78
-1.86
-3.36
-4.98
-6.09
-5.93
-3.86
0.32
6.16
12.75
18.99
24.1
27.91
30.79
33.44
36.3
39.22
41.42
41.92
39.9
35.19
28.21
19.74
10.57
1.3
-7.67
-15.97
-23.12
-28.55
-31.72
-32.44
-30.93
-27.85
-24.0
-20.17
-16.84
-14.18
-12.09
-10.24
-8.21
-5.69
-2.58
0.91
4.14
6.33
6.73
4.88
0.85
-4.85
-11.33
-17.69
-23.07
-26.89
-28.91
-29.26
-28.41
-27.06
-25.84
-25.05
-24.53
-23.76
-22.12
-19.2
-15.03
-10.02
-4.7
0.42
5.01
8.94
12.09
14.38
15.74
16.2
16.0
15.5
14.99
14.69
14.57
14.53
14.5
14.56
15.01
16.16
18.26
21.24
24.7
27.99
30.36
31.34
30.9
29.5
27.95
26.96
26.83
27.35
27.9
27.86
26.99
25.56
24.26
23.85
24.83
27.09
29.99
32.6
34.07
34.09
32.91
31.23
29.89
29.47
30.16
31.82
33.93
35.76
36.36
34.68
29.83
21.41
9.77
-3.94
-18.23
-31.67
-43.33
-52.79
-59.92
-64.6
-66.64
-66.04
-63.22
-59.09
-54.68
-50.77
-47.29
-43.43
-37.88
-29.48
-17.74
-3.15
12.77
27.8
39.46
45.69
45.46
39.12
28.31
15.53
3.23
-7.0
-14.66
-20.15
-24.04
-26.47
-27.05
-25.27
-21.19
-15.86
-11.15
-8.95
-10.21
-14.36
-19.34
-22.59
-22.14
-17.76
-10.93
-4.23
0.02
0.64
-2.06
-6.72
-11.7
-15.74
-18.03
-18.1
-15.51
-9.88
-1.33
9.35
20.71
31.15
39.56
45.76
50.49
54.91
60.0
66.13
72.84
79.19
84.23
87.51
89.32
90.39
91.49
92.95
94.55
95.85
96.51
96.53
95.98
94.49
90.92
83.58
70.92
52.46
29.35
4.17
-19.9
-40.2
-55.34
-65.37
-71.28
-74.36
-75.64
-75.72
-74.92
-73.53
-71.91
-70.34
-68.94
-67.51
-65.7
-63.31
-60.44
-57.71
-55.83
-55.37
-56.49
-58.89
-61.94
-64.97
-67.46
-69.09
-69.81
-69.65
-68.54
-66.17
-61.81
-54.5
-43.42
-28.34
-10.02
9.8
28.79
44.63
55.62
61.12
61.6
58.43
53.4
48.26
44.2
41.56
39.8
37.73
34.03
27.77
18.72
7.46
-5.0
-17.29
-27.92
-35.13
-37.08
-32.17
-19.63
-0.0
24.74
51.57
77.2
98.92
115.03
124.92
128.99
128.57
125.78
123.3
123.67
128.41
137.31
148.16
157.14
159.9
152.66
133.39
102.51
63.2
20.78
-18.44
-48.85
-67.37
-74.2
-72.52
-66.83
-61.04
-57.18
-55.21
-54.0
-52.42
-49.93
-46.45
-42.03
-36.89
-31.85
-29.08
-32.18
-45.19
-70.96
-109.53
-157.67
-209.93
-260.52
-305.09
-341.64
-369.88
-390.19
-402.7
-406.97
-402.52
-389.52
-369.22
-343.81
-315.98
-288.27
-262.44
-239.03
-217.27
-195.5
-172.29
-147.54
-122.94
-101.39
-85.3
-74.97
-68.05
-60.69
-49.83
-35.09
-19.25
-6.79
-1.52
-4.65
-14.29
-26.53
-37.16
-43.21
-43.6
-38.87
-30.28
-19.17
-6.29
8.42
25.58
46.07
70.63
99.45
131.87
166.01
198.72
226.0
243.93
249.87
243.52
227.07
204.57
180.4
157.9
138.57
122.39
108.59
96.47
85.9
77.13
70.52
66.21
64.1
63.96
65.41
68.02
71.19
74.33
76.83
78.31
78.86
79.1
79.89
82.01
85.68
90.37
94.98
98.34
99.74
99.24
97.42
94.92
91.96
88.17
82.87
75.52
66.26
55.94
45.91
37.52
31.66
28.44
27.35
27.56
28.37
29.44
30.52
31.05
29.78
25.04
15.34
0.16
-19.63
-41.93
-64.25
-84.43
-101.13
-113.67
-121.75
-125.22
-124.2
-119.34
-112.04
-104.11
-97.19
-91.99
-88.03
-83.89
-77.71
-68.05
-54.28
-36.79
-16.65
4.72
26.02
46.22
64.55
80.34
92.97
101.89
106.77
107.71
105.25
100.34
94.0
87.15
80.48
74.42
69.19
64.84
61.32
58.43
55.83
53.14
50.11
46.76
43.51
41.07
40.31
42.07
46.88
54.74
64.99
76.25
86.71
94.58
98.64
98.63
95.28
89.81
83.4
76.55
68.98
59.96
49.1
36.92
24.96
15.13
8.66
5.34
3.51
0.97
-3.64
-9.82
-15.25
-16.84
-12.42
-1.9
12.61
27.74
40.44
49.15
54.17
57.13
60.07
64.58
71.36
80.09
89.33
96.66
99.1
93.88
79.51
56.77
28.85
0.62
-22.9
-38.4
-45.39
-46.31
-45.5
-47.47
-55.34
-69.92
-89.8
-112.17
-134.02
-152.96
-167.68
-177.53
-182.1
-180.62
-171.94
-154.9
-129.08
-95.32
-55.91
-14.03
27.24
65.91
101.52
134.76
166.4
196.09
221.79
240.1
247.41
241.36
221.94
191.62
154.61
115.61
78.61
46.25
19.88
-0.16
-13.94
-21.83
-24.44
-22.83
-18.45
-12.93
-7.73
-3.72
-1.03
0.73
2.05
3.12
3.68
3.22
1.31
-2.16
-6.87
-12.25
-17.69
-22.67
-26.7
-29.4
-30.4
-29.55
-27.01
-23.27
-19.03
-14.96
-11.38
-8.19
-5.08
-1.76
1.7
4.87
7.16
8.05
7.27
4.85
0.97
-3.96
-9.37
-14.5
-18.63
-21.38
-23.14
-25.03
-28.44
-34.38
-42.98
-53.48
-64.68
-75.42
-84.71
-91.52
-94.42
-91.92
-83.1
-68.55
-50.65
-32.86
-18.26
-8.23
-2.09
2.06
5.78
9.26
11.29
10.41
6.27
0.17
-5.48
-8.53
-8.39
-6.38
-4.95
-6.33
-11.42
-19.51
-28.88
-37.86
-45.54
-51.96
-57.67
-63.06
-68.01
-71.82
-73.53
-72.34
-67.9
-60.39
-50.49
-39.23
-27.78
-17.2
-8.06
-0.31
6.75
14.15
22.7
32.63
43.5
54.39
64.39
72.86
79.64
84.84
88.78
91.82
94.33
96.74
99.45
102.7
106.52
110.69
114.81
118.25
120.21
119.72
115.78
107.68
95.41
79.83
62.57
45.64
30.87
19.49
11.96
8.09
7.22
8.48
10.83
13.14
14.24
13.1
9.13
2.34
-6.57
-16.34
-25.49
-32.66
-36.86
-37.65
-35.11
-29.75
-22.27
-13.53
-4.31
4.71
12.99
20.18
26.03
30.36
33.12
34.41
34.5
33.78
32.61
31.13
29.14
26.08
21.23
14.02
4.24
-7.7
-20.86
-33.93
-45.61
-54.83
-60.86
-63.44
-62.57
-58.63
-52.35
-44.84
-37.41
-31.28
-27.12
-24.84
-23.66
-22.56
-20.86
-18.6
-16.5
-15.64
-16.92
-20.72
-26.72
-34.03
-41.39
-47.4
-50.77
-50.62
-46.65
-39.25
-29.35
-18.18
-6.92
3.43
12.17
18.79
22.99
24.72
24.3
22.4
19.83
17.26
14.95
12.72
10.17
6.92
2.87
-1.8
-6.87
-12.22
-17.9
-23.93
-30.1
-35.83
-40.18
-42.28
-41.61
-38.29
-33.08
-27.06
-21.29
-16.53
-13.04
-10.78
-9.56
-9.31
-9.98
-11.52
-13.69
-16.06
-18.14
-19.6
-20.44
-21.02
-21.84
-23.43
-26.11
-29.92
-34.68
-39.95
-45.05
-49.09
-51.12
-50.37
-46.51
-39.85
-31.23
-21.76
-12.43
-3.84
3.86
10.75
16.94
22.36
26.83
30.17
32.43
33.87
34.98
36.16
37.55
38.91
39.75
39.48
37.64
34.11
29.07
23.02
16.69
10.84
6.12
2.89
1.13
0.6
1.0
2.11
3.95
6.61
9.99
13.6
16.62
18.1
17.48
14.74
10.48
5.59
0.86
-3.34
-7.08
-10.66
-14.44
-18.53
-22.89
-27.33
-31.66
-35.65
-38.97
-41.15
-41.61
-39.78
-35.4
-28.61
-20.12
-11.03
-2.54
4.47
9.61
13.14
15.66
17.77
19.78
21.66
23.16
24.09
24.57
24.88
25.25
25.59
25.36
23.76
20.14
14.31
6.77
-1.44
-9.09
-15.11
-18.83
-19.92
-18.27
-13.88
-6.86
2.41
13.15
24.15
33.99
41.32
45.15
45.03
41.01
33.55
23.43
11.59
-0.95
-13.22
-24.45
-34.11
-42.02
-48.27
-53.09
-56.83
-59.78
-62.11
-63.73
-64.26
-63.08
-59.64
-53.72
-45.6
-36.1
-26.34
-17.3
-9.7
-3.81
0.39
3.01
4.18
4.04
2.83
0.92
-1.18
-3.11
-4.83
-6.68
-9.26
-13.11
-18.4
-24.84
-31.71
-38.21
-43.69
-47.8
-50.5
-51.88
-52.07
-51.17
-49.27
-46.45
-42.58
-37.2
-29.53
-18.85
-5.18
10.28
25.14
36.64
42.82
43.65
41.16
38.5
38.4
41.79
47.42
52.67
55.01
53.27
48.07
41.26
34.92
30.46
28.41
28.61
30.68
34.27
39.1
44.83
50.9
56.56
61.02
63.66
64.2
62.8
59.95
56.37
52.62
48.92
45.03
40.35
34.23
26.24
16.34
4.92
-7.41
-20.09
-32.56
-44.37
-54.95
-63.63
-69.65
-72.43
-71.75
-67.89
-61.6
-53.81
-45.31
-36.44
-27.03
-16.63
-5.04
7.35
19.44
29.75
36.95
40.42
40.32
37.37
32.38
25.81
17.71
7.99
-3.12
-14.89
-26.1
-35.46
-42.03
-45.49
-46.12
-44.58
-41.59
-37.75
-33.43
-28.89
-24.33
-20.09
-16.64
-14.46
-13.95
-15.23
-18.1
-22.06
-26.45
-30.64
-34.1
-36.49
-37.72
-37.95
-37.57
-37.09
-36.93
-37.2
-37.56
-37.16
-35.0
-30.33
-23.02
-13.7
-3.6
5.93
13.81
19.46
22.82
24.1
23.64
21.82
19.06
15.92
13.0
10.84
9.67
9.4
9.65
9.95
9.92
9.31
7.94
5.62
2.22
-2.14
-7.01
-11.45
-14.41
-14.99
-12.92
-8.6
-2.94
3.05
8.66
13.61
18.02
22.05
25.7
28.63
30.36
30.48
28.88
25.9
22.14
18.23
14.65
11.51
8.65
5.81
2.84
-0.23
-3.25
-6.1
-8.75
-11.21
-13.33
-14.63
-14.32
-11.63
-6.24
1.43
10.18
18.4
24.5
27.43
26.83
22.92
16.34
7.94
-1.32
-10.46
-18.51
-24.71
-28.7
-30.67
-31.27
-31.52
-32.3
-34.22
-37.36
-41.3
-45.28
-48.44
-50.12
-50.03
-48.28
-45.31
-41.54
-37.03
-31.23
-23.0
-11.16
4.8
24.07
44.41
62.77
76.32
83.53
84.6
81.19
75.57
69.86
65.45
63.16
63.3
65.87
70.28
75.25
78.95
79.6
76.25
69.32
60.47
51.86
45.25
41.33
39.73
39.55
39.96
40.54
41.37
42.8
45.25
48.92
53.66
58.8
63.18
65.25
63.6
57.43
46.92
33.15
17.62
1.81
-13.31
-27.19
-39.41
-49.35
-56.25
-59.44
-58.79
-54.77
-48.48
-41.19
-34.06
-27.79
-22.62
-18.49
-15.21
-12.7
-11.1
-10.63
-11.45
-13.41
-15.98
-18.4
-19.91
-20.04
-18.84
-16.68
-14.12
-11.66
-9.66
-8.52
-8.76
-10.96
-15.47
-22.07
-29.74
-36.82
-41.42
-42.12
-38.35
-30.63
-20.39
-9.47
0.3
7.5
11.39
11.87
9.42
4.93
-0.61
-6.31
-11.59
-16.18
-20.07
-23.42
-26.5
-29.67
-33.39
-38.1
-44.09
-51.17
-58.56
-64.97
-68.93
-69.37
-66.09
-59.89
-52.27
-44.79
-38.45
-33.39
-28.97
-24.17
-18.08
-10.32
-1.25
8.02
15.95
21.07
22.46
20.16
15.19
9.17
3.71
-0.19
-2.4
-3.45
-4.08
-4.69
-5.2
-5.09
-3.81
-0.98
3.5
9.64
17.46
26.98
38.08
50.29
62.69
74.04
83.14
89.21
92.13
92.36
90.64
87.65
83.76
78.97
73.0
65.48
56.14
45.04
32.75
20.35
9.23
0.58
-5.07
-8.2
-10.01
-11.9
-14.78
-18.67
-22.83
-26.15
-27.83
-27.68
-26.11
-23.89
-21.72
-20.08
-19.13
-18.78
-18.9
-19.4
-20.37
-22.1
-25.05
-29.68
-36.21
-44.32
-53.07
-61.06
-66.89
-69.79
-70.04
-68.9
-68.13
-69.09
-71.99
-75.75
-78.53
-78.72
-75.75
-70.41
-64.4
-59.41
-56.27
-54.58
-52.93
-49.61
-43.41
-34.11
-22.59
-10.43
0.66
9.42
15.32
18.57
19.76
19.49
18.09
15.56
11.76
6.65
0.59
-5.61
-10.85
-14.03
-14.25
-11.0
-4.22
5.69
17.74
30.43
41.69
49.35
51.7
48.05
39.01
26.28
12.09
-1.53
-13.03
-21.37
-25.74
-25.45
-20.15
-10.33
2.33
15.1
25.03
30.05
29.92
26.42
22.68
21.78
25.42
33.29
43.26
52.48
58.73
61.33
61.36
60.94
62.18
66.22
72.75
80.3
86.82
90.34
89.54
83.89
73.7
59.97
44.15
27.93
12.87
0.07
-10.03
-17.77
-24.01
-29.71
-35.52
-41.51
-47.18
-51.73
-54.41
-54.8
-52.87
-49.0
-43.84
-38.28
-33.42
-30.4
-30.26
-33.57
-40.15
-48.93
-58.22
-66.16
-71.43
-73.74
-73.92
-73.65
-74.81
-78.75
-85.9
-95.66
-106.58
-116.71
-123.88
-126.09
-121.88
-110.64
-92.9
-70.29
-45.2
-20.17
2.76
22.36
38.27
50.69
59.96
66.3
69.75
70.34
68.36
64.43
59.46
54.43
50.14
47.06
45.31
44.76
45.19
46.24
47.33
47.68
46.34
42.65
36.5
28.57
20.17
12.77
7.53
4.83
4.24
4.72
5.02
4.28
2.39
0.17
-1.11
-0.42
2.31
6.04
9.11
10.1
8.69
5.68
2.42
-0.27
-2.67
-6.09
-12.02
-21.05
-32.46
-44.36
-54.55
-61.22
-63.44
-61.1
-54.72
-45.33
-34.34
-23.34
-13.74
-6.43
-1.53
1.54
3.67
5.63
7.88
10.58
13.77
17.42
21.34
24.98
27.48
27.95
26.05
22.34
18.22
15.23
14.17
14.53
14.78
13.3
9.33
3.55
-2.13
-5.25
-3.68
3.73
16.9
34.65
55.02
75.65
94.22
108.69
117.63
120.34
116.92
108.12
95.32
80.31
65.16
51.9
42.06
36.27
34.05
34.2
35.27
36.1
36.04
34.92
32.87
30.17
27.21
24.34
21.77
19.22
15.92
10.83
3.11
-7.14
-18.66
-29.19
-36.29
-38.34
-35.01
-27.21
-16.42
-3.9
9.77
24.49
40.03
55.3
68.11
75.46
74.39
63.02
41.32
11.43
-22.83
-56.95
-86.67
-108.91
-121.96
-125.43
-119.85
-106.67
-88.44
-68.97
-53.14
-45.76
-50.04
-66.06
-90.4
-117.29
-140.89
-157.78
-168.07
-174.8
-181.71
-190.79
-200.79
-207.62
-206.17
-192.52
-165.55
-127.2
-81.5
-33.23
13.37
55.26
90.74
119.22
140.96
156.75
167.68
174.86
179.28
181.71
182.44
181.23
177.29
169.51
157.04
139.86
119.26
97.64
77.83
62.14
51.7
46.26
44.45
44.39
44.22
42.61
38.91
33.35
26.92
21.02
16.94
15.31
15.68
16.81
17.19
15.89
12.95
9.35
6.42
5.16
5.7
7.36
9.09
10.07
10.12
9.69
9.5
10.09
11.51
13.32
14.88
15.64
15.32
13.93
11.69
8.95
6.13
3.81
2.67
3.32
5.99
10.34
15.42
19.87
22.36
22.05
18.89
13.68
7.79
2.79
-0.12
-0.47
1.29
3.86
5.51
4.53
-0.31
-9.59
-23.28
-40.82
-61.23
-83.18
-105.06
-125.11
-141.79
-154.21
-162.45
-167.44
-170.47
-172.51
-173.73
-173.55
-171.17
-166.3
-159.46
-151.77
-144.23
-137.11
-129.8
-121.29
-111.05
-99.59
-88.36
-79.06
-72.73
-69.23
-67.34
-65.48
-62.48
-57.92
-52.09
-45.65
-39.17
-33.05
-27.54
-22.83
-19.03
-15.84
-12.38
-7.16
1.45
14.65
32.58
54.07
76.97
98.7
117.12
131.0
140.15
145.07
146.54
145.18
141.26
134.88
126.14
115.46
103.47
91.01
78.71
66.82
55.05
42.77
29.43
14.96
0.04
-14.09
-25.92
-34.27
-38.57
-38.99
-36.2
-31.0
-24.05
-15.78
-6.52
3.27
12.86
21.27
27.48
30.69
30.57
27.42
22.12
15.88
9.93
5.21
2.17
0.7
0.33
0.42
0.37
-0.26
-1.76
-4.27
-7.79
-11.96
-16.05
-18.9
-19.22
-16.08
-9.32
0.34
11.53
22.72
32.7
40.81
46.88
50.97
53.15
53.44
51.79
48.28
43.15
36.73
29.44
21.72
13.96
6.56
-0.2
-6.16
-11.3
-15.7
-19.43
-22.51
-24.82
-26.2
-26.39
-25.06
-21.9
-16.71
-9.66
-1.5
6.4
12.44
15.32
14.58
10.82
5.35
-0.29
-4.94
-8.09
-9.77
-10.21
-9.61
-8.03
-5.5
-2.24
1.42
5.1
8.63
12.12
15.97
20.64
26.43
33.34
41.02
48.89
56.24
62.45
67.11
70.11
71.52
71.54
70.27
67.57
63.15
56.66
48.06
37.82
26.95
16.71
8.15
1.72
-3.04
-7.15
-11.84
-17.96
-25.76
-34.79
-44.21
-53.0
-60.16
-64.9
-66.7
-65.44
-61.48
-55.56
-48.66
-41.64
-35.1
-29.25
-24.05
-19.31
-14.77
-10.27
-5.71
-1.2
2.88
6.06
8.08
9.22
10.3
12.37
15.97
20.75
25.36
28.21
28.2
25.33
20.68
15.73
11.69
8.95
7.16
5.63
3.85
1.71
-0.66
-3.11
-5.75
-8.88
-12.84
-17.72
-23.17
-28.52
-32.97
-35.95
-37.3
-37.19
-35.99
-33.89
-30.94
-27.14
-22.64
-17.94
-13.7
-10.5
-8.49
-7.27
-5.95
-3.39
1.46
9.29
20.24
33.68
48.28
62.18
73.46
80.71
83.39
81.94
77.49
71.5
65.28
59.65
54.84
50.48
45.76
39.75
31.82
21.99
11.1
0.62
-7.84
-12.98
-14.36
-12.4
-8.18
-3.08
1.61
5.04
6.87
7.26
6.74
5.96
5.5
5.63
6.28
7.21
8.08
8.68
8.97
9.08
9.16
9.26
9.15
8.41
6.6
3.53
-0.61
-5.38
-10.28
-15.09
-19.93
-25.06
-30.51
-35.88
-40.3
-42.86
-43.0
-40.73
-36.62
-31.41
-25.99
-21.27
-18.21
-17.46
-19.06
-22.11
-25.01
-26.11
-24.68
-21.38
-17.98
-16.43
-17.82
-21.94
-27.55
-33.3
-38.37
-42.71
-46.62
-50.15
-52.83
-53.77
-52.23
-47.96
-41.35
-33.32
-24.99
-17.37
-11.22
-6.91
-4.34
-3.01
-2.06
-0.58
2.11
6.22
11.43
17.09
22.48
27.1
30.8
33.55
35.26
35.5
33.69
29.43
22.92
15.21
7.91
2.49
-0.4
-1.27
-1.49
-2.4
-4.49
-7.1
-8.81
-8.36
-5.4
-0.77
3.92
6.98
7.3
4.65
-0.45
-6.93
-13.51
-18.83
-21.64
-21.1
-17.04
-10.12
-1.69
6.6
13.39
17.97
20.43
21.41
21.75
22.05
22.64
23.52
24.65
26.01
27.6
29.21
30.4
30.41
28.54
24.49
18.55
11.65
4.93
-0.62
-4.57
-7.08
-8.82
-10.62
-13.16
-16.88
-21.85
-27.82
-34.25
-40.34
-45.13
-47.74
-47.59
-44.68
-39.59
-33.4
-27.28
-22.15
-18.42
-15.9
-14.05
-12.23
-10.0
-7.2
-3.9
-0.12
4.2
9.26
15.23
22.05
29.32
36.28
42.01
45.63
46.54
44.56
40.03
33.75
26.81
20.39
15.42
12.37
11.11
11.04
11.35
11.27
10.3
8.2
4.89
0.39
-5.2
-11.57
-18.2
-24.39
-29.41
-32.85
-34.77
-35.76
-36.76
-38.74
-42.35
-47.64
-53.95
-60.03
-64.32
-65.43
-62.6
-55.96
-46.52
-35.8
-25.28
-16.04
-8.56
-2.84
1.32
4.11
5.67
6.25
6.29
6.44
7.33
9.3
12.18
15.35
17.93
19.09
18.36
15.72
11.59
6.7
1.87
-2.13
-4.68
-5.37
-4.01
-0.71
4.11
9.66
14.96
19.06
21.27
21.47
20.06
17.72
15.17
12.85
10.89
9.18
7.6
6.09
4.61
3.13
1.5
-0.46
-2.82
-5.46
-7.99
-9.85
-10.47
-9.42
-6.53
-1.91
4.1
11.06
18.48
26.01
33.39
40.42
46.84
52.26
56.26
58.54
59.11
58.37
57.01
55.75
55.09
55.06
55.23
54.88
53.21
49.7
44.23
37.17
29.27
21.43
14.44
8.83
4.75
2.08
0.54
-0.18
-0.4
-0.5
-0.97
-2.35
-5.06
-9.28
-14.82
-21.16
-27.61
-33.56
-38.64
-42.79
-46.23
-49.37
-52.73
-56.86
-62.13
-68.62
-75.97
-83.37
-89.81
-94.35
-96.42
-95.89
-93.0
-88.15
-81.74
-74.1
-65.62
-56.68
-47.74
-39.19
-31.28
-24.03
-17.36
-11.19
-5.52
-0.51
3.62
6.68
8.56
9.26
8.92
7.74
5.98
3.95
2.01
0.63
0.27
1.35
4.07
8.4
14.02
20.45
27.08
33.36
38.84
43.16
46.16
47.78
48.11
47.35
45.8
43.79
41.62
39.44
37.27
34.97
32.31
29.08
25.1
20.34
14.89
9.05
3.34
-1.55
-4.89
-6.13
-5.13
-2.26
1.71
5.84
9.4
12.06
13.87
15.08
15.93
16.52
16.78
16.61
15.9
14.64
12.85
10.5
7.6
4.2
0.4
-3.67
-7.9
-12.21
-16.55
-20.77
-24.56
-27.42
-28.8
-28.28
-25.7
-21.21
-15.25
-8.4
-1.29
5.49
11.37
15.89
18.77
20.08
20.14
19.47
18.52
17.53
16.45
15.07
13.16
10.59
7.42
3.77
-0.2
-4.23
-7.95
-10.82
-12.2
-11.5
-8.46
-3.22
3.66
11.4
19.2
26.4
32.52
37.28
40.49
42.03
41.92
40.31
37.53
34.0
30.15
26.27
22.48
18.66
14.55
9.89
4.55
-1.32
-7.22
-12.39
-15.92
-17.04
-15.38
-11.05
-4.64
2.93
10.74
18.1
24.64
30.34
35.31
39.55
42.96
45.25
46.2
45.71
44.0
41.45
38.48
35.42
32.29
28.81
24.51
18.87
11.64
2.99
-6.42
-15.54
-23.14
-28.15
-29.88
-28.16
-23.29
-15.98
-7.09
2.53
12.09
20.88
28.19
33.25
35.3
33.78
28.54
20.09
9.52
-1.66
-11.97
-20.28
-26.09
-29.5
-31.11
-31.73
-32.18
-33.05
-34.56
-36.46
-38.1
