2013-02-25 18:00:59
64.0
-0.0
-0.0
-0.0
-0.0
-0.0
-0.0
-0.0
-0.0
-0.0
-0.0
0.0
0.01
0.01
-0.0
-0.03
-0.05
-0.05
0.0
0.13
0.36
0.66
1.01
1.37
1.72
2.06
2.4
2.79
3.24
3.8
4.42
5.06
5.66
6.2
6.68
7.15
7.68
8.31
9.14
10.09
11.04
11.88
12.56
13.14
13.76
14.65
15.96
17.91
20.32
22.9
25.38
27.58
29.57
31.68
34.32
37.81
42.54
48.15
54.1
59.83
64.97
69.58
74.14
79.34
85.71
93.76
103.0
112.62
121.73
129.77
136.75
143.3
150.75
157.77
166.64
177.95
191.79
206.97
220.57
228.25
225.36
208.53
176.87
132.76
80.05
23.07
-34.94
-92.44
-149.16
-205.23
-260.37
-313.74
-363.87
-409.83
-450.91
-486.5
-515.74
-537.23
-549.22
-549.96
-538.37
-514.21
-478.67
-433.88
-382.45
-327.02
-269.84
-212.63
-156.66
-102.95
-52.37
-5.9
35.58
71.43
101.35
125.5
144.38
158.69
169.15
176.37
180.75
182.57
182.07
179.51
175.23
169.65
163.18
156.15
148.81
141.3
133.69
126.02
118.33
110.69
103.16
95.8
88.68
81.83
75.25
68.95
62.95
57.25
51.86
46.78
42.03
37.59
33.45
29.61
26.07
22.81
19.83
17.11
14.67
12.48
10.54
8.83
7.35
6.07
4.97
4.05
3.27
2.62
2.09
1.65
1.3
1.01
0.79
0.61
0.47
0.37
0.28
0.22
0.18
0.15
0.13
0.12
0.12
0.13
0.14
0.16
0.19
0.22
0.26
0.29
0.33
0.38
0.42
0.47
0.52
0.57
0.62
0.67
0.73
0.8
0.86
0.94
1.02
1.12
1.22
1.33
1.46
1.6
1.76
1.94
2.14
2.36
2.6
2.87
3.17
3.49
3.85
4.25
4.69
5.17
5.67
6.18
6.7
7.22
7.77
8.36
9.02
9.79
10.62
11.53
12.45
13.39
14.34
15.33
16.37
17.53
18.78
20.06
21.29
22.34
23.05
23.3
23.04
22.24
20.88
18.95
16.39
13.16
9.15
4.42
-0.81
-6.25
-11.43
-15.96
-19.57
-22.26
-24.24
-25.88
-27.46
-29.06
-30.56
-31.58
-31.83
-31.25
-30.12
-28.94
-28.32
-28.71
-30.08
-31.98
-33.76
-34.74
-34.63
-33.72
-32.65
-32.19
-33.03
-35.36
-39.15
-43.77
-48.35
-51.63
-51.96
-47.82
-38.27
-23.97
-7.04
9.23
21.6
28.4
29.82
27.69
24.18
20.49
16.68
12.25
6.97
1.48
-2.88
-5.31
-6.04
-6.3
-7.51
-10.27
-13.49
-15.1
-13.19
-6.79
3.68
16.91
31.16
44.99
56.31
63.17
64.41
59.93
51.22
40.8
30.91
22.51
14.76
5.69
-6.16
-20.41
-34.61
-45.22
-49.33
-46.16
-37.19
-25.53
-14.32
-5.56
0.21
3.46
5.42
7.25
10.05
14.42
19.98
25.27
28.25
26.74
19.44
6.58
-10.4
-29.32
-47.83
-63.95
-76.12
-82.96
-83.66
-78.04
-66.98
-52.46
-36.95
-22.72
-10.96
-1.48
7.1
16.13
26.49
37.84
48.36
55.93
59.05
57.84
53.91
49.33
45.3
41.68
37.66
32.98
29.49
30.19
37.57
51.56
68.68
83.57
91.47
90.4
81.7
68.67
54.56
41.22
29.01
17.7
7.15
-2.48
-10.88
-18.18
-24.7
-31.02
-37.68
-45.41
-55.0
-66.9
-80.7
-94.66
-106.41
-113.7
-115.69
-112.85
-106.13
-96.05
-82.28
-64.56
-43.41
-20.72
1.15
20.2
35.74
48.03
57.41
63.74
66.51
65.57
61.89
57.47
54.52
54.25
56.88
61.62
67.32
72.76
76.78
78.15
75.99
70.31
62.19
53.58
45.99
39.9
34.67
29.27
23.0
15.89
8.35
0.53
-7.79
-16.76
-25.89
-34.24
-40.92
-45.91
-50.48
-56.13
-63.6
-72.33
-81.0
-88.73
-95.98
-104.27
-114.5
-125.69
-134.71
-137.95
-133.05
-120.14
-101.4
-79.42
-56.07
-31.88
-7.34
16.37
37.11
52.6
61.43
63.52
60.1
52.94
43.99
35.33
29.1
27.05
29.74
36.2
43.97
50.72
55.23
57.81
59.59
61.36
62.96
63.5
62.48
60.23
57.75
55.62
53.54
50.37
45.29
38.74
32.4
28.47
27.61
28.73
29.13
26.21
18.56
6.79
-6.86
-19.56
-28.56
-32.52
-31.89
-29.1
-27.39
-29.48
-36.41
-46.78
-57.49
-64.76
-65.31
-56.95
-38.9
-12.15
20.2
52.66
78.37
91.15
88.56
73.17
51.84
32.34
19.69
14.35
13.2
12.87
12.0
12.07
15.32
22.58
32.21
40.75
45.38
45.48
42.7
39.51
37.78
37.62
37.84
36.98
34.04
28.92
22.14
14.55
6.99
0.11
-5.91
-11.27
-16.48
-21.95
-27.49
-32.44
-35.86
-37.57
-38.09
-38.57
-40.1
-43.27
-48.08
-54.35
-62.26
-71.93
-82.89
-93.41
-100.75
-102.11
-96.05
-83.0
-64.89
-44.29
-23.32
-3.41
14.55
29.87
41.76
49.66
53.51
53.73
50.8
45.34
37.95
29.83
22.69
18.49
18.58
22.31
27.37
30.76
30.43
26.14
19.7
13.61
9.65
8.21
8.38
8.78
8.24
6.29
2.94
-1.52
-6.63
-12.18
-17.84
-23.63
-29.81
-36.55
-43.76
-51.05
-57.96
-64.23
-70.06
-75.61
-80.78
-85.06
-88.06
-90.1
-92.25
-95.74
-100.77
-105.76
-107.63
-103.4
-91.76
-73.73
-52.24
-30.4
-10.38
6.92
21.43
32.88
40.58
43.76
42.46
37.51
30.27
22.28
14.69
8.57
5.08
5.01
8.59
14.76
21.47
26.81
29.9
31.28
32.46
34.78
38.47
42.68
46.13
47.81
47.46
45.35
41.93
37.58
32.59
27.23
21.65
15.86
9.73
3.42
-2.58
-7.66
-11.6
-15.06
-19.58
-26.63
-36.68
-48.9
-61.64
-73.43
-83.69
-92.24
-98.3
-99.99
-94.65
-80.56
-58.32
-31.22
-3.79
19.98
38.24
51.41
61.01
68.32
73.62
76.5
76.63
74.41
70.93
67.69
66.11
67.15
71.11
77.39
84.38
89.93
92.14
90.61
86.86
83.4
82.31
83.86
86.03
85.78
81.3
72.98
63.2
54.54
47.85
41.78
34.01
23.05
9.65
-3.71
-14.37
-21.27
-25.59
-29.86
-36.74
-47.55
-61.99
-78.32
-93.83
-105.5
-110.48
-106.81
-94.13
-74.12
-50.22
-26.17
-4.72
12.92
26.97
38.09
46.6
52.18
54.38
52.78
47.36
38.74
27.99
16.52
5.84
-2.82
-8.87
-12.28
-13.43
-12.6
-9.92
-5.64
-0.6
3.56
5.14
3.2
-1.74
-8.04
-14.11
-19.23
-23.88
-28.85
-34.28
-39.41
-42.85
-43.76
-42.13
-38.76
-34.76
-31.27
-29.23
-29.87
-34.51
-43.87
-57.58
-73.74
-89.29
-101.14
-106.93
-105.03
-94.24
-73.48
-42.42
-2.66
41.65
84.32
119.11
141.92
152.24
152.55
146.62
137.55
126.73
114.41
100.89
87.21
75.04
65.81
59.82
56.28
54.08
52.3
50.89
49.93
49.25
48.25
45.99
41.76
35.44
27.47
18.66
9.77
1.22
-6.97
-15.03
-23.42
-32.63
-42.75
-53.48
-64.2
-74.34
-84.0
-93.84
-104.61
-116.62
-129.23
-140.77
-148.95
-151.34
-145.91
-131.67
-109.04
-80.08
-48.37
-17.9
8.06
28.17
43.15
54.92
65.01
73.52
79.17
80.32
76.62
68.83
58.52
47.1
35.37
24.13
14.95
10.56
13.74
25.84
44.97
66.44
84.31
93.69
92.87
83.39
69.25
54.74
42.95
34.81
29.42
24.91
19.27
11.53
1.94
-8.2
-17.57
-25.46
-32.05
-37.97
-43.7
-49.61
-55.51
-61.72
-68.95
-77.83
-88.12
-98.08
-104.77
-105.22
-97.89
-83.32
-64.09
-43.35
-23.88
-7.32
5.77
15.01
20.62
22.84
22.59
20.77
18.03
14.6
10.63
6.65
3.71
3.22
5.38
9.42
13.49
16.1
17.23
18.01
20.06
23.91
28.66
32.66
34.94
35.64
36.0
37.02
38.46
39.04
37.16
32.11
24.3
14.93
5.11
-4.73
-14.03
-22.02
-27.53
-29.54
-28.19
-25.25
-23.49
-25.77
-33.51
-45.52
-58.21
-66.34
-65.37
-53.41
-32.35
-7.04
16.57
33.9
43.47
46.56
45.99
43.91
41.08
36.78
30.32
22.28
14.2
8.01
4.28
1.91
-1.25
-7.0
-15.52
-25.39
-34.17
-39.73
-41.15
-39.52
-36.91
-35.47
-36.07
-37.72
-38.08
-34.61
-26.01
-13.08
1.13
12.97
19.87
21.37
19.27
16.14
13.59
11.6
8.73
3.34
-5.38
-17.02
-30.57
-44.61
-57.56
-67.51
-72.6
-71.31
-63.36
-50.32
-34.53
-18.53
-4.0
8.19
17.69
24.21
27.85
29.75
32.15
37.24
45.42
54.57
60.44
59.28
50.49
37.09
24.34
16.69
15.49
18.91
23.77
27.6
29.64
30.48
30.87
30.82
29.7
26.91
22.18
15.88
8.99
2.36
-3.07
-6.79
-8.96
-10.53
-13.25
-18.72
-27.3
-37.71
-47.33
-53.86
-56.7
-57.07
-57.19
-58.98
-62.68
-66.82
-69.33
-68.22
-62.67
-52.88
-39.35
-22.68
-3.46
17.38
38.28
56.98
71.24
79.84
82.74
81.11
76.69
71.03
64.94
58.65
52.37
46.79
43.0
41.89
43.66
47.37
51.35
54.12
55.04
54.45
53.29
51.92
49.87
46.16
39.9
31.53
22.67
15.5
11.46
10.46
10.88
10.72
8.76
5.03
0.44
-3.8
-7.16
-9.64
-11.59
-13.31
-15.13
-17.57
-21.65
-28.1
-36.91
-47.06
-56.52
-62.87
-64.18
-59.54
-49.08
-33.85
-15.68
3.18
20.12
32.86
40.16
42.16
40.12
35.38
28.65
19.48
7.22
-7.98
-24.63
-39.9
-51.2
-56.95
-57.56
-54.51
-49.72
-45.01
-41.65
-40.74
-42.91
-47.77
-53.54
-57.65
-57.97
-54.29
-48.59
-44.13
-43.15
-45.47
-48.61
-49.09
-44.92
-36.49
-26.01
-16.27
-9.05
-5.0
-4.07
-6.27
-11.65
-20.01
-30.58
-41.88
-52.3
-60.24
-64.67
-64.71
-59.91
-50.17
-36.15
-19.2
-0.94
17.19
34.26
49.29
60.71
66.52
65.19
57.0
44.58
31.83
22.08
16.62
14.44
13.48
12.26
10.76
10.0
11.04
14.0
18.19
22.94
28.16
34.05
40.39
46.08
49.45
49.26
45.81
40.47
34.95
29.96
25.04
19.31
12.34
4.63
-2.55
-8.47
-12.97
-16.85
-20.84
-25.25
-29.89
-34.51
-39.49
-45.5
-53.08
-61.77
-69.79
-74.49
-73.35
-64.88
-49.29
-28.57
-5.44
17.05
36.75
52.71
64.93
73.85
79.63
81.96
80.43
75.22
67.78
60.43
55.51
54.23
56.23
59.82
63.1
64.77
64.69
63.3
61.52
59.92
58.79
58.13
57.29
55.48
51.65
45.18
35.98
24.77
12.69
0.69
-10.21
-19.33
-25.84
-29.24
-29.95
-29.42
-29.87
-33.27
-40.08
-49.35
-59.41
-69.17
-78.66
-88.42
-98.23
-106.17
-109.12
-104.46
-91.55
-72.48
-50.71
-29.67
-11.14
4.63
18.01
29.15
37.44
42.15
42.95
40.44
35.71
29.91
23.94
18.5
14.25
11.6
10.69
11.09
12.18
13.36
14.64
16.33
18.55
20.86
22.22
21.55
18.27
12.69
5.95
-0.81
-6.76
-11.52
-15.17
-17.7
-19.25
-20.08
-20.74
-21.91
-24.2
-27.88
-32.81
-38.89
-45.93
-53.74
-61.52
-67.88
-70.92
-68.83
-60.78
-47.1
-29.29
-9.39
10.8
29.82
46.62
60.18
69.6
74.34
74.5
70.93
64.99
57.86
50.26
42.59
34.96
27.44
19.99
12.47
4.76
-3.0
-10.22
-16.07
-19.74
-21.14
-20.77
-19.58
-18.44
-17.93
-18.37
-19.99
-23.02
-27.18
-31.29
-33.32
-31.33
-24.79
-15.17
-5.47
1.25
3.44
1.4
-3.45
-9.48
-15.68
-21.22
-24.71
-24.26
-18.0
-5.32
12.46
32.4
51.08
66.1
76.46
82.52
84.88
83.85
79.48
71.74
61.07
48.39
34.74
21.04
7.76
-4.57
-15.46
-24.04
-29.24
-30.23
-26.63
-19.17
-9.72
-1.06
3.77
3.0
-3.37
-13.46
-24.29
-33.37
-39.56
-43.15
-45.35
-47.36
-49.91
-53.34
-57.85
-63.45
-69.94
-76.96
-84.39
-92.81
-103.86
-118.85
-137.54
-156.64
-170.27
-171.87
-157.48
-127.79
-88.08
-46.27
-9.49
18.07
35.93
46.26
51.94
55.41
58.04
60.22
61.85
62.86
63.4
64.13
65.68
68.46
72.26
76.22
79.5
81.73
83.19
84.24
84.45
82.43
76.32
65.22
50.05
33.62
18.97
8.07
1.01
-3.23
-5.62
-6.26
-4.83
-1.95
0.06
-2.52
-12.8
-31.55
-56.24
-81.8
-102.39
-113.19
-111.33
-96.07
-68.85
-33.07
6.41
44.07
75.2
97.2
109.72
114.11
112.05
104.66
92.58
76.37
57.33
37.5
19.01
3.69
-7.69
-15.03
-18.69
-19.17
-17.04
-12.68
-6.57
0.51
7.48
12.8
14.78
12.35
5.75
-3.19
-11.3
-15.54
-14.44
-8.77
-1.25
4.56
5.68
0.34
-11.55
-28.8
-48.87
-67.9
-80.84
-82.49
-69.22
-41.23
-3.56
35.13
65.06
79.19
76.13
60.39
39.99
22.78
13.24
11.06
12.48
13.05
10.31
5.05
0.14
-1.51
1.03
6.16
10.81
12.44
10.6
6.96
4.32
4.58
7.55
10.82
11.48
7.61
-0.53
-10.79
-20.29
-27.09
-30.78
-32.5
-34.12
-37.56
-44.19
-54.5
-68.09
-83.48
-98.2
-109.49
-115.02
-113.94
-107.01
-95.97
-82.46
-67.12
-49.62
-29.44
-6.83
16.83
39.41
58.89
73.93
84.22
90.09
92.03
90.6
86.5
80.77
74.65
69.43
65.88
64.24
64.09
64.61
64.56
62.92
59.21
53.64
47.13
40.48
33.8
26.29
16.8
4.44
-10.5
-26.49
-41.57
-54.08
-63.48
-70.1
-74.76
-78.33
-81.59
-85.61
-91.52
-99.9
-110.26
-120.4
-126.97
-126.65
-117.24
-98.52
-72.37
-42.22
-12.29
13.64
33.12
45.85
53.65
58.98
63.29
66.25
66.35
62.71
57.38
54.98
60.95
78.18
105.12
136.17
164.31
184.02
192.64
190.46
178.96
160.11
136.28
110.58
86.51
67.02
53.45
45.03
40.04
36.78
34.12
31.45
27.71
21.5
11.72
-1.55
-16.49
-30.66
-42.49
-51.71
-59.17
-65.61
-70.54
-72.48
-69.73
-61.54
-48.55
-32.32
-14.47
3.73
21.27
37.24
50.55
60.23
65.82
67.43
65.79
61.55
55.5
48.56
42.13
37.73
36.36
37.81
40.62
42.98
43.51
42.22
40.17
38.54
37.89
37.93
37.7
36.11
32.25
24.98
13.18
-3.92
-25.78
-50.04
-73.12
-91.58
-103.74
-109.9
-111.88
-111.63
-110.54
-109.35
-108.44
-108.52
-110.08
-112.96
-115.83
-116.22
-111.5
-99.76
-80.79
-56.1
-28.73
-2.33
19.87
35.59
44.25
46.97
45.98
43.44
40.76
37.87
34.26
29.45
23.63
17.48
11.71
6.65
2.14
-1.73
-4.67
-5.89
-4.95
-2.36
0.72
2.78
2.92
0.92
-3.08
-8.8
-16.4
-25.71
-36.11
-46.34
-55.11
-61.98
-67.92
-74.45
-82.68
-92.49
-102.48
-111.2
-117.77
-122.69
-126.73
-129.81
-130.26
-124.8
-109.73
-82.09
-40.5
14.47
79.56
149.08
215.35
270.3
307.9
325.87
326.08
312.91
290.79
262.8
230.23
193.74
154.47
114.43
75.84
40.7
10.33
-13.85
-29.73
-34.72
-27.25
-8.24
18.13
45.56
67.74
80.22
80.69
68.78
44.99
10.54
-32.11
-79.15
-126.0
-168.34
-203.63
-231.24
-251.96
-266.82
-276.18
-279.7
-276.9
-267.37
-250.71
-226.35
-193.66
-152.52
-104.45
-52.31
0.24
50.21
96.05
137.39
173.75
203.77
225.09
235.51
234.55
223.94
206.85
186.28
163.55
137.64
106.28
67.63
22.03
-27.21
-74.39
-113.22
-139.17
-150.97
-151.17
-144.59
-136.08
-128.58
-122.5
-116.89
-111.01
-105.51
-101.9
-101.19
-102.49
-103.1
-99.92
-91.22
-77.79
-62.35
-48.32
-38.24
-32.86
-31.14
-30.86
-29.36
-24.13
-13.4
3.16
24.45
48.15
71.62
93.0
111.7
127.96
141.96
152.91
159.22
159.52
153.95
144.76
135.65
130.32
130.62
135.79
142.95
148.33
149.08
144.2
134.52
121.64
106.69
89.51
68.88
43.48
13.05
-21.09
-56.22
-89.22
-117.58
-139.91
-155.86
-165.66
-169.81
-169.02
-164.41
-157.56
-149.9
-142.34
-134.67
-125.63
-113.72
-97.94
-78.54
-57.06
-35.98
-17.83
-4.3
4.22
8.78
11.14
13.22
16.43
21.2
26.82
31.76
34.49
34.26
31.45
27.32
23.28
20.06
17.54
15.3
13.26
12.28
13.79
18.84
26.91
36.09
43.73
48.0
48.81
47.33
44.86
41.76
37.36
30.69
21.57
10.7
-0.79
-11.98
-22.68
-32.87
-42.08
-49.1
-52.31
-50.58
-43.78
-32.87
-19.31
-4.43
10.99
26.53
41.76
55.91
67.72
75.61
78.24
75.19
67.5
57.64
48.73
43.27
41.86
42.94
43.73
41.88
36.92
30.39
24.66
21.32
20.26
20.01
18.79
15.66
10.76
4.76
-1.87
-9.11
-17.03
-25.18
-32.74
-38.75
-43.06
-46.5
-50.46
-56.0
-63.16
-71.18
-78.71
-84.28
-86.51
-83.79
-74.84
-59.51
-39.71
-19.23
-2.5
7.11
8.81
4.03
-4.82
-15.63
-27.37
-39.45
-50.83
-59.61
-63.95
-63.65
-61.01
-60.06
-64.48
-75.49
-91.1
-107.26
-119.78
-126.21
-126.5
-122.39
-116.21
-109.81
-104.1
-98.91
-93.68
-87.8
-81.19
-74.33
-68.02
-62.79
-58.59
-54.96
-51.44
-48.62
-48.38
-52.73
-62.22
-74.93
-86.61
-92.66
-90.25
-79.45
-62.76
-43.48
-24.13
-5.84
11.06
26.24
38.94
48.34
54.32
57.64
59.66
62.03
66.0
72.41
81.84
94.4
109.42
125.5
140.7
153.57
163.86
172.77
182.25
193.38
205.17
214.19
215.86
206.43
184.97
154.06
119.1
86.31
60.45
43.26
33.41
27.71
22.86
17.0
10.08
3.15
-2.69
-7.08
-10.34
-12.68
-13.63
-11.8
-5.65
5.25
19.35
33.27
43.05
45.92
41.54
32.06
21.09
12.04
6.89
5.75
7.18
8.86
8.31
3.25
-7.98
-26.13
-50.7
-79.73
-110.03
-137.6
-158.59
-170.33
-172.18
-165.8
-154.49
-141.91
-130.57
-120.89
-111.5
-100.16
-85.44
-67.69
-48.98
-32.25
-20.08
-13.99
-14.2
-20.04
-30.08
-42.26
-53.97
-62.37
-65.22
-61.64
-52.42
-39.31
-24.23
-8.22
8.52
25.96
43.62
59.99
73.13
81.47
84.37
82.35
76.76
69.47
62.51
57.52
55.58
56.77
60.12
63.66
65.11
62.91
57.07
49.59
43.74
42.58
47.57
57.94
71.01
83.52
93.16
99.29
102.66
104.42
104.97
103.39
97.92
87.09
71.18
52.41
34.16
19.47
9.53
3.49
-0.99
-6.0
-12.0
-17.54
-20.18
-18.07
-11.15
-1.25
8.82
16.59
20.88
21.95
20.95
19.08
17.21
15.6
14.09
12.13
9.12
4.97
0.3
-3.68
-5.74
-5.45
-3.58
-1.75
-1.57
-3.62
-7.24
-11.07
-13.97
-15.67
-16.68
-17.66
-18.93
-20.39
-22.05
-24.4
-28.43
-35.01
-44.12
-54.58
-64.67
-73.16
-80.13
-87.03
-95.65
-107.07
-120.83
-135.09
-147.31
-155.28
-157.6
-153.99
-145.01
-131.73
-115.55
-97.8
-79.57
-61.54
-44.09
-27.49
-12.1
1.56
13.14
22.57
30.11
36.14
40.82
44.11
46.13
47.41
48.82
51.15
54.45
58.0
60.78
62.34
63.21
64.85
68.77
75.61
85.12
96.29
107.96
118.94
127.96
133.46
133.96
128.71
118.67
106.59
95.83
88.73
85.33
83.15
78.71
69.39
54.92
37.53
20.75
7.76
0.18
-2.18
-0.78
2.74
7.11
11.72
16.28
20.4
23.47
24.81
24.07
21.07
16.09
9.73
2.64
-4.56
-11.26
-16.79
-20.41
-21.68
-20.74
-18.4
-16.01
-14.85
-15.42
-17.23
-19.14
-20.26
-20.46
-20.5
-21.39
-23.49
-26.08
-27.97
-28.48
-28.2
-28.72
-31.45
-36.34
-41.55
-44.26
-42.45
-36.12
-27.51
-20.0
-16.6
-18.62
-25.6
-35.78
-46.98
-57.16
-64.66
-68.2
-66.77
-59.77
-47.11
-29.58
-8.9
12.38
31.03
44.39
51.13
51.74
48.05
42.15
35.11
26.76
16.36
3.93
-8.94
-19.56
-25.6
-26.39
-23.31
-18.84
-14.98
-12.29
-10.12
-7.44
-3.96
-0.33
2.58
4.2
4.74
4.86
5.17
5.93
7.19
8.89
10.89
12.78
13.63
12.3
7.98
0.72
-8.65
-19.04
-29.82
-40.87
-52.14
-62.99
-71.97
-77.28
-77.78
-73.56
-65.68
-55.57
-44.27
-32.2
-19.62
-7.01
4.74
14.54
21.62
25.73
26.97
25.64
22.11
17.04
11.59
7.24
5.1
5.46
7.53
9.87
11.27
11.07
9.32
6.31
2.26
-2.7
-8.06
-12.48
-14.16
-11.53
-4.49
5.16
14.07
18.82
17.22
9.24
-2.89
-15.91
-26.57
-32.68
-33.67
-30.34
-24.67
-19.37
-16.86
-18.64
-24.41
-32.36
-39.85
-44.19
-43.23
-35.9
-21.86
-1.94
21.86
46.35
67.75
82.83
89.9
89.35
83.44
75.21
67.38
61.71
58.81
58.42
59.57
60.87
61.06
59.54
56.74
54.02
52.68
53.17
54.76
56.05
55.7
53.07
48.34
41.84
33.68
23.77
12.63
1.65
-6.97
-11.63
-12.43
-11.5
-12.1
-16.96
-26.82
-40.21
-54.4
-66.79
-76.07
-82.19
-85.61
-86.65
-84.91
-79.62
-70.3
-57.16
-41.35
-24.57
-8.56
5.44
16.84
25.76
32.58
37.43
40.0
39.73
36.3
30.33
23.45
17.53
14.1
13.45
14.57
16.11
17.0
16.92
16.17
15.16
14.05
12.67
10.82
8.57
6.23
3.9
1.4
-1.73
-5.82
-10.64
-15.32
-18.82
-20.4
-20.07
-18.5
-16.75
-15.92
-16.86
-20.05
-25.27
-31.52
-37.15
-40.16
-39.27
-34.01
-25.04
-13.87
-1.89
9.76
20.31
29.05
35.27
38.47
38.69
36.78
33.99
31.43
29.61
28.26
27.07
25.71
24.15
22.34
20.2
17.59
14.76
12.61
12.37
14.73
19.26
24.04
26.62
25.16
19.09
9.13
-3.28
-16.46
-28.69
-38.32
-44.21
-46.11
-45.35
-44.24
-45.13
-49.21
-56.0
-63.91
-71.32
-77.42
-82.25
-85.89
-87.32
-84.6
-75.93
-61.05
-41.71
-20.97
-1.94
13.34
24.17
30.79
33.97
34.39
32.87
30.05
26.34
21.9
17.02
12.29
8.66
6.87
6.95
8.02
8.68
7.98
5.89
3.29
1.25
0.01
-1.07
-2.89
-5.82
-9.3
-12.22
-13.99
-14.88
-15.71
-17.31
-19.44
-21.27
-21.86
-21.14
-20.0
-19.79
-21.63
-25.37
-29.82
-33.21
-34.05
-31.62
-26.05
-18.13
-8.88
0.76
10.21
19.2
27.5
34.81
40.49
43.91
44.74
43.46
41.17
39.17
38.17
38.02
37.91
36.99
35.23
33.37
32.58
33.56
36.03
38.83
40.67
40.82
39.25
36.41
32.59
27.75
21.61
14.14
5.83
-2.5
-10.01
-16.41
-21.92
-27.08
-32.25
-37.66
-43.14
-48.53
-53.67
-58.34
-62.18
-64.91
-66.49
-67.24
-67.52
-67.17
-65.08
-59.67
-49.69
-35.25
-18.15
-1.12
13.38
24.31
32.04
37.75
42.12
45.04
45.88
44.17
40.4
35.51
30.57
26.17
22.42
19.2
16.64
15.01
14.57
15.3
16.86
18.68
20.25
20.98
20.33
17.95
13.9
8.93
4.28
1.07
-0.39
-0.9
-1.9
-4.53
-8.96
-14.37
-19.75
-24.54
-28.95
-33.66
-38.91
-44.22
-48.3
-49.83
-48.08
-43.03
-35.39
-26.12
-16.19
-6.53
2.23
9.8
16.42
22.62
28.9
35.09
40.1
42.43
41.08
36.38
30.07
24.51
21.54
21.7
24.18
27.56
30.47
32.19
32.49
31.42
29.2
26.03
22.33
18.56
14.98
11.42
7.24
1.8
-5.33
-13.93
-23.3
-32.73
-41.67
-49.84
-57.11
-63.61
-69.59
-75.59
-82.22
-89.77
-97.87
-105.2
-109.74
-109.34
-102.48
-88.69
-68.88
-45.0
-19.63
4.55
25.33
41.47
52.75
59.72
63.28
64.18
62.88
59.72
55.26
50.42
46.26
43.75
43.36
44.86
47.55
50.53
52.94
54.06
53.37
50.72
46.46
41.49
36.89
33.43
31.13
29.25
26.84
23.24
18.56
13.43
8.57
4.36
0.61
-3.01
-6.73
-10.66
-14.92
-19.97
-26.48
-34.65
-43.7
-51.86
-57.17
-58.37
-55.47
-49.39
-41.22
-31.53
-20.17
-7.02
7.43
21.9
34.5
43.66
48.61
49.55
47.51
43.9
40.21
37.63
36.91
37.87
39.55
40.67
40.09
37.35
32.75
26.98
20.72
14.49
8.59
3.38
-0.82
-4.04
-6.72
-9.78
-13.99
-19.54
-25.88
-32.15
-37.76
-42.78
-47.68
-52.67
-57.48
-61.44
-64.07
-65.65
-67.25
-70.22
-75.5
-83.01
-91.63
-99.67
-105.12
-106.17
-101.34
-89.85
-71.98
-49.32
-24.52
-0.35
21.16
39.32
54.22
65.86
73.67
76.75
74.77
68.77
60.99
53.92
49.18
46.94
46.36
46.53
47.19
48.64
51.19
54.52
57.52
59.18
58.96
57.25
54.83
52.13
49.02
45.15
40.22
34.5
28.51
22.44
16.05
8.87
0.96
-6.71
-12.68
-15.95
-16.85
-17.17
-19.43
-25.5
-35.62
-48.34
-60.99
-70.75
-75.41
-73.82
-65.92
-52.73
-35.89
-17.43
0.66
16.83
29.92
39.34
44.8
46.46
44.97
41.77
38.48
36.24
35.13
34.0
31.33
26.34
19.6
12.85
7.86
5.41
4.98
5.25
4.82
2.96
-0.39
-4.85
-9.92
-14.98
-19.33
-22.32
-23.75
-24.28
-25.16
-27.72
-32.33
-38.12
-43.45
-46.83
-47.96
-47.77
-47.86
-49.63
-53.73
-60.03
-67.85
-76.04
-82.9
-86.12
-83.24
-72.65
-54.37
-30.39
-4.11
20.88
41.79
57.15
66.81
71.4
72.06
70.02
66.53
62.54
58.62
54.86
51.22
47.74
44.82
43.05
42.7
43.47
44.6
45.31
45.32
44.83
44.16
43.29
41.67
38.56
33.57
27.08
20.18
14.13
9.78
7.15
5.37
3.16
-0.55
-6.22
-13.36
-20.83
-27.32
-32.01
-34.97
-37.03
-39.33
-42.41
-45.75
-47.9
-47.05
-42.06
-33.06
-21.4
-9.13
1.63
9.31
13.15
13.23
10.37
5.83
0.86
-3.67
-7.74
-11.92
-16.95
-23.07
-29.57
-35.2
-38.79
-40.07
-39.71
-39.01
-38.82
-39.1
-39.28
-39.01
-38.79
-40.02
-43.99
-50.8
-58.72
-64.75
-66.14
-61.89
-53.2
-42.82
-33.61
-27.32
-24.12
-23.14
-23.14
-23.4
-24.08
-26.04
-30.21
-36.44
-43.02
-46.56
-43.22
-30.48
-8.77
18.34
45.57
68.01
83.34
92.18
97.0
100.11
102.42
103.42
102.4
99.38
95.48
92.27
90.72
90.66
90.86
89.81
86.24
79.58
70.12
58.71
46.77
35.69
26.4
19.05
12.86
6.77
0.09
-7.12
-14.14
-20.39
-25.89
-31.31
-37.41
-44.32
-51.46
-57.84
-63.0
-67.43
-72.31
-78.81
-87.39
-97.6
-108.37
-118.33
-125.85
-129.05
-125.95
-115.05
-96.4
-71.94
-45.14
-19.72
1.67
18.14
29.85
37.2
39.99
37.68
30.3
19.16
6.98
-3.07
-8.59
-8.61
-3.86
3.88
12.46
19.97
25.11
27.41
27.24
25.66
23.74
22.09
20.39
17.73
13.19
6.57
-1.37
-9.42
-16.43
-21.88
-25.83
-28.82
-31.6
-35.14
-40.58
-48.93
-60.35
-73.55
-85.53
-92.45
-90.9
-79.18
-58.14
-30.57
-0.32
28.91
54.37
74.58
89.19
98.91
104.95
108.58
110.61
111.2
109.84
106.0
99.6
91.38
82.68
74.95
69.25
65.97
65.13
66.3
69.02
72.57
75.96
78.02
77.72
74.57
68.83
61.34
53.03
44.62
36.33
28.07
19.68
11.07
2.28
-6.58
-15.48
-24.53
-34.0
-44.4
-56.04
-68.74
-81.53
-92.47
-99.22
-99.68
-92.78
-78.87
-59.68
-37.73
-15.46
5.14
22.71
36.48
46.03
51.46
53.25
52.17
49.02
44.43
38.85
32.74
26.85
22.09
19.14
18.12
18.4
19.0
19.13
18.53
17.48
16.34
15.2
13.62
10.92
6.71
1.01
-5.75
-12.94
-19.97
-26.4
-32.02
-36.75
-40.77
-44.41
-48.12
-52.34
-57.34
-63.24
-69.95
-76.88
-82.78
-85.51
-82.64
-72.29
-54.28
-30.53
-4.63
19.62
39.45
53.8
63.16
68.47
70.57
69.87
66.8
62.02
56.56
51.44
47.3
44.29
42.28
40.99
40.14
39.39
38.29
36.52
34.1
31.56
29.59
28.53
28.02
27.17
25.12
21.62
17.18
12.58
8.34
4.53
0.83
-2.95
-6.85
-10.84
-15.08
-19.95
-25.72
-32.12
-38.17
-42.65
-44.56
-43.56
-39.86
-33.78
-25.56
-15.49
-4.32
6.67
15.94
22.42
25.96
27.14
26.72
25.12
22.35
18.45
14.05
10.2
7.83
7.11
7.19
6.62
4.26
0.15
-4.66
-8.61
-10.52
-10.33
-8.85
-7.47
-7.4
-9.24
-12.77
-17.19
-21.45
-24.74
-26.86
-28.36
-30.24
-33.43
-38.24
-44.42
-51.33
-58.47
-65.61
-72.49
-78.36
-81.58
-79.93
-71.58
-56.0
-34.45
-9.63
15.22
37.38
55.24
68.24
76.58
80.82
81.63
79.87
76.41
72.1
67.6
63.39
59.91
57.54
56.52
56.66
57.46
58.33
58.98
59.68
60.96
63.12
65.7
67.58
67.45
64.57
59.2
52.38
45.43
39.34
34.53
30.93
28.26
26.23
24.45
22.39
19.53
15.64
11.08
6.83
4.47
5.89
12.97
27.26
49.28
78.01
110.46
141.89
167.13
182.07
184.87
176.22
158.61
135.03
107.91
78.98
49.57
21.26
-4.16
-25.16
-41.18
-52.92
-61.92
-69.94
-78.15
-87.0
-96.27
-105.44
-113.87
-121.09
-127.09
-132.22
-137.46
-143.99
-152.56
-162.76
-173.01
-181.05
-185.17
-185.25
-182.82
-180.24
-179.49
-181.07
-183.76
-185.34
-183.5
-176.88
-165.0
-148.16
-127.25
-103.75
-79.76
-57.39
-38.32
-22.77
-9.44
4.67
23.0
47.73
77.93
109.01
133.64
144.0
135.0
105.82
60.72
7.15
-47.58
-99.64
-147.43
-189.14
-220.69
-235.28
-227.69
-196.17
-143.75
-77.71
-8.63
55.88
113.69
166.85
218.54
265.77
301.45
318.04
310.44
275.02
214.05
135.51
50.01
-31.46
-106.13
-174.43
-236.68
-292.5
-344.76
-395.17
-443.23
-486.87
-521.78
-550.47
-576.17
-600.47
-593.59
-539.14
-443.98
-334.2
-253.28
-194.86
-145.48
-95.56
-35.79
31.7
95.65
145.92
178.98
198.74
215.46
232.91
251.67
271.47
291.22
307.41
318.05
323.25
324.4
324.72
322.6
316.17
305.09
288.91
265.06
231.82
190.88
148.68
115.91
99.88
103.39
123.44
151.82
177.92
194.08
198.25
193.56
185.75
178.12
171.43
165.0
157.7
148.82
138.37
126.62
113.95
100.93
87.84
75.74
66.57
62.57
65.89
77.68
97.48
122.82
149.1
170.4
180.86
176.51
156.42
122.95
80.67
34.6
-11.19
-54.22
-93.17
-127.09
-154.79
-175.05
-187.04
-190.92
-187.95
-179.9
-168.38
-154.67
-139.73
-124.44
-109.88
-97.28
-87.81
-82.26
-80.97
-83.53
-88.98
-95.85
-102.53
-107.73
-110.91
-112.55
-113.7
-115.35
-117.63
-119.43
-118.74
-113.75
-103.67
-89.26
-72.39
-54.94
-37.72
-19.89
0.63
26.0
57.15
93.71
134.58
178.91
226.21
275.41
323.09
362.5
384.75
381.97
350.86
295.01
223.61
148.1
78.05
19.01
-27.19
-60.53
-81.24
-89.99
-89.26
-84.53
-83.92
-95.84
-125.51
-172.58
-230.36
-287.48
-331.37
-352.02
-344.87
-311.91
-260.62
-201.21
-143.23
-92.86
-52.29
-20.98
2.31
18.03
25.75
25.49
18.86
9.29
0.69
-4.47
-6.31
-7.49
-11.65
-21.5
-37.52
-57.8
-78.87
-96.77
-108.08
-110.49
-103.22
-87.42
-65.87
-42.46
-20.73
-2.71
11.68
23.85
34.93
44.76
51.84
54.74
53.41
49.59
46.08
44.97
46.5
49.04
50.34
49.17
45.92
42.32
40.25
40.68
43.31
46.77
49.53
50.12
47.64
41.8
32.99
22.09
10.32
-0.97
-10.51
-17.52
-22.19
-26.04
-31.62
-41.37
-56.05
-73.46
-88.46
-94.6
-86.86
-63.67
-27.49
16.32
61.28
101.28
131.3
147.81
149.15
136.38
113.55
87.01
63.27
46.62
37.98
35.25
35.1
34.97
33.94
32.25
30.22
27.64
23.94
19.01
13.56
8.79
5.53
3.74
2.41
0.13
-4.06
-10.23
-17.65
-25.25
-32.16
-38.01
-42.98
-47.72
-53.14
-60.1
-68.95
-79.06
-88.61
-95.0
-95.65
-89.03
-75.29
-56.15
-34.3
-12.43
7.27
23.48
35.56
43.6
48.1
49.84
49.66
48.08
45.35
41.71
37.78
34.62
33.47
35.0
38.74
43.27
46.93
48.82
49.16
48.96
49.06
49.45
49.39
47.96
44.81
40.27
34.88
28.91
22.22
14.54
5.97
-2.92
-11.62
-20.18
-29.25
-39.46
-50.71
-61.78
-70.92
-76.74
-78.85
-77.73
-73.99
-67.89
-59.34
-48.46
-36.14
-24.03
-13.7
-5.98
-0.79
2.6
4.65
5.23
4.11
1.43
-1.91
-4.67
-5.84
-5.26
-3.44
-0.98
1.76
4.84
8.29
11.83
15.0
17.1
17.56
15.79
11.37
4.1
-5.41
-15.48
-23.83
-28.41
-28.8
-26.83
-26.07
-30.11
-40.88
-57.77
-77.93
-97.24
-111.41
-116.76
-110.37
-90.77
-59.05
-19.77
19.67
50.87
67.44
67.53
54.38
34.58
15.04
0.4
-8.13
-11.71
-12.4
-11.43
-8.83
-4.1
3.03
12.01
21.63
30.59
38.27
44.77
50.59
56.11
60.9
63.52
62.11
55.52
44.07
29.76
15.53
3.71
-4.85
-11.22
-17.52
-25.84
-37.24
-51.57
-67.56
-83.28
-96.62
-105.33
-107.64
-102.44
-89.84
-70.9
-47.28
-20.76
7.12
34.94
61.21
84.35
102.95
116.09
123.86
127.07
127.09
125.54
124.09
124.28
126.68
130.18
131.68
127.0
112.86
88.92
58.55
27.64
2.0
-15.36
-25.1
-30.57
-35.52
-42.02
-50.01
-58.2
-65.58
-72.17
-78.87
-86.52
-95.19
-104.31
-113.12
-121.16
-128.39
-134.95
-140.59
-144.42
-144.9
-140.22
-128.96
-110.5
-85.82
-57.48
-29.07
-4.12
15.17
28.64
37.9
45.42
53.43
63.12
74.61
87.31
100.34
112.61
122.98
130.54
135.14
138.07
142.08
150.14
163.46
179.94
194.39
200.67
194.6
176.12
149.15
119.59
92.57
70.45
52.76
37.71
23.74
10.48
-1.65
-12.39
-22.33
-32.69
-44.55
-57.96
-71.55
-82.87
-89.19
-88.36
-79.71
-64.53
-45.78
-26.83
-10.17
3.51
15.25
26.55
38.07
48.86
56.82
60.0
57.81
51.48
43.36
35.82
30.31
27.19
26.01
25.98
26.27
26.15
25.21
23.4
21.08
18.66
15.99
12.23
6.21
-2.75
-14.25
-26.77
-38.49
-48.42
-56.81
-64.96
-74.12
-84.73
-96.24
-107.57
-117.85
-126.6
-133.31
-137.07
-136.28
-129.42
-115.93
-96.72
-74.12
-51.08
-30.31
-13.56
-1.49
6.12
10.12
11.57
11.52
10.66
9.39
8.09
7.56
9.14
14.37
24.17
38.08
54.15
69.73
82.61
91.87
97.97
101.79
103.84
103.82
100.95
94.58
84.87
73.0
60.75
49.78
41.0
34.08
27.58
19.63
8.76
-4.88
-19.17
-30.48
-34.99
-30.39
-16.73
3.87
28.62
55.35
82.5
108.26
129.32
141.15
139.65
123.6
96.2
64.23
35.61
15.85
6.23
4.05
4.86
5.01
3.12
-0.24
-3.69
-6.38
-8.31
-10.17
-12.73
-16.42
-21.37
-27.33
-33.67
-39.74
-45.12
-49.91
-54.87
-60.94
-68.63
-77.5
-86.29
-93.75
-99.43
-103.91
-108.21
-112.81
-116.81
-118.06
-114.08
-103.2
-85.39
-62.25
-36.37
-10.56
12.72
31.83
45.94
55.11
60.15
62.23
62.43
61.53
60.13
58.78
58.3
59.3
61.75
64.68
66.5
65.92
62.77
58.29
54.46
52.89
53.9
56.52
59.22
60.63
60.28
58.34
55.22
51.1
45.89
39.35
31.36
21.97
11.25
-0.41
-12.44
-23.95
-33.85
-41.08
-44.98
-45.27
-42.17
-36.2
-28.05
-18.62
-8.93
0.05
7.6
13.36
17.14
18.89
18.4
15.64
10.96
5.3
-0.05
-3.93
-5.7
-5.26
-3.01
0.35
3.98
6.75
7.5
5.43
0.57
-6.02
-12.71
-18.12
-21.97
-25.05
-28.59
-33.26
-38.59
-43.46
-46.88
-48.96
-50.9
-54.37
-60.5
-69.18
-79.17
-88.21
-94.04
-94.81
-89.61
-78.59
-62.9
-44.38
-25.05
-6.64
9.81
23.81
35.05
43.04
47.08
46.62
41.8
33.8
24.48
15.76
8.82
3.76
-0.17
-3.92
-7.81
-11.37
-13.52
-13.21
-10.03
-4.45
2.27
8.6
13.13
15.03
14.23
11.41
7.63
4.01
1.3
-0.32
-1.1
-1.55
-2.12
-3.19
-5.1
-8.22
-12.79
-18.58
-24.62
-29.06
-29.86
-25.57
-15.98
-2.19
13.8
29.91
44.58
56.91
66.5
73.19
76.91
77.71
75.92
72.09
66.79
60.67
54.17
47.77
41.84
36.57
31.83
27.26
22.69
18.57
15.91
15.61
17.6
20.49
21.99
20.12
14.31
5.68
-3.66
-11.81
-18.01
-22.59
-26.39
-30.01
-33.66
-37.32
-41.28
-46.23
-52.84
-61.29
-70.85
-80.03
-87.05
-90.0
-87.33
-78.19
-62.87
-43.09
-21.72
-1.88
14.09
25.3
32.29
36.25
38.15
38.4
37.0
33.93
29.55
24.48
19.32
14.54
10.52
7.7
6.73
8.03
11.28
15.46
19.25
21.82
23.18
24.05
25.08
26.26
26.82
25.74
22.51
17.36
11.21
5.04
-0.47
-5.18
-9.18
-12.69
-16.12
-20.03
-25.17
-31.97
-40.25
-48.96
-56.56
-61.36
-62.09
-58.05
-49.03
-35.51
-18.68
-0.49
16.62
30.38
39.42
43.56
43.68
41.07
36.78
31.57
25.93
20.4
15.52
11.6
8.55
5.99
3.61
1.44
-0.07
-0.49
0.25
1.6
2.68
2.8
1.76
-0.14
-2.49
-5.06
-7.9
-11.15
-14.8
-18.75
-22.87
-27.16
-31.63
-36.29
-40.86
-45.02
-48.71
-52.33
-56.79
-62.8
-70.33
-78.07
-83.7
-84.64
-79.0
-66.34
-47.79
-25.75
-3.12
17.39
33.86
45.48
52.44
55.52
55.71
53.72
50.13
45.41
40.26
35.52
31.78
29.13
27.08
24.93
22.3
19.33
16.65
14.78
13.74
13.0
11.88
10.0
7.48
4.75
1.97
-1.17
-5.35
-11.18
-18.69
-27.31
-36.11
-44.23
-51.15
-56.74
-61.23
-65.08
-69.02
-73.95
-80.63
-89.45
-99.94
-110.63
-119.16
-122.9
-119.65
-108.31
-89.29
-64.49
-36.9
-9.81
13.88
32.44
45.47
53.6
57.95
59.5
58.79
56.21
52.17
47.33
42.49
38.21
34.6
31.41
28.44
25.89
24.25
23.89
24.47
25.1
24.61
22.31
18.34
13.45
8.4
3.6
-0.85
-4.8
-7.94
-10.03
-11.26
-12.7
-15.85
-21.74
-30.49
-41.37
-53.33
-65.72
-78.33
-90.64
-101.44
-108.81
-110.73
-106.2
-95.7
-80.86
-63.74
-46.06
-29.03
-13.61
-0.75
8.94
15.53
19.97
23.8
28.41
34.21
40.64
46.63
51.28
54.12
55.11
54.53
52.79
50.41
47.91
45.62
43.23
39.74
34.0
25.42
14.65
3.46
-6.05
-12.4
-15.58
-16.55
-16.87
-17.71
-19.69
-23.26
-28.68
-36.17
-45.58
-55.99
-65.82
-73.3
-77.0
-76.53
-72.44
-65.52
-56.63
-45.92
-33.01
-17.47
0.86
21.22
41.25
57.34
65.3
62.11
48.06
27.11
5.92
-9.14
-14.93
-12.65
-7.02
-2.8
-2.43
-4.66
-5.91
-3.48
2.67
9.5
13.09
11.08
4.19
-4.55
-11.71
-15.47
-16.52
-17.0
-19.29
-24.61
-32.41
-41.03
-48.76
-54.84
-60.14
-66.3
-74.7
-84.99
-94.48
-99.04
-94.41
-78.16
-50.55
-14.12
27.51
70.94
112.91
149.86
177.48
191.34
188.81
170.79
142.41
111.27
84.67
66.9
58.36
56.49
57.81
59.61
60.64
60.76
60.15
58.93
57.15
55.02
52.77
50.55
48.09
45.0
40.99
35.89
29.8
22.84
15.11
6.77
-1.89
-10.5
-18.95
-27.44
-36.5
-46.35
-56.42
-65.17
-70.55
-70.71
-64.71
-52.8
-36.62
-18.87
-2.85
8.18
11.93
8.0
-1.91
-14.55
-26.63
-36.22
-43.59
-50.56
-59.22
-70.53
-83.77
-97.12
-108.78
-118.0
-125.37
-132.28
-140.2
-149.6
-159.51
-167.04
-167.96
-157.46
-131.38
-87.71
-28.03
42.04
113.68
176.81
223.13
248.35
253.42
243.82
227.54
212.4
203.71
203.5
210.85
223.46
238.92
255.29
270.52
281.65
284.77
276.04
253.4
217.77
173.05
124.83
78.13
35.83
-1.57
-34.89
-64.83
-91.08
-112.67
-128.85
-139.86
-146.63
-149.47
-147.27
-137.38
-117.76
-89.04
-56.04
-26.92
-10.48
-12.59
-33.32
-66.9
-103.99
-135.25
-154.49
-160.11
-154.4
-141.6
-125.9
-110.07
-95.32
-81.8
-69.27
-57.52
-46.5
-36.08
-25.78
-14.77
-2.19
12.31
28.07
43.48
56.46
65.24
69.01
68.4
64.86
60.15
55.62
51.81
48.55
45.27
41.36
36.53
30.87
24.78
18.71
12.89
7.18
1.13
-5.66
-13.25
-21.26
-28.92
-35.57
-40.95
-45.34
-49.42
-53.73
-58.53
-63.65
-68.55
-72.46
-74.52
-73.76
-69.27
-60.48
-47.54
-31.47
-13.96
3.09
18.08
30.03
38.53
43.62
45.6
45.04
42.64
39.02
34.44
28.83
22.01
14.29
6.64
0.33
-3.75
-5.69
-6.67
-8.22
-11.32
-15.91
-21.04
-25.78
-29.87
-33.69
-37.83
-42.35
-46.74
-50.28
-52.75
-54.77
-57.46
-61.71
-67.71
-74.89
-82.14
-87.87
-90.39
-87.92
-79.12
-63.64
-42.61
-18.55
5.4
26.61
43.73
56.67
66.02
72.37
75.89
76.66
75.18
72.51
70.07
68.96
69.45
70.98
72.55
73.33
72.82
71.01
68.31
65.26
62.47
60.22
58.32
56.08
52.63
47.45
40.91
34.09
28.14
23.37
18.85
12.8
3.65
-8.83
-23.28
-37.12
-47.86
-53.86
-54.71
-50.93
-43.47
-33.46
-22.19
-11.08
-1.4
5.98
10.91
13.73
14.84
14.28
11.72
6.93
0.27
-7.28
-14.37
-20.0
-23.84
-26.34
-28.24
-30.14
-32.28
-34.58
-36.8
-38.67
-39.97
-40.57
-40.55
-40.02
-39.13
-37.83
-35.8
-32.73
-28.64
-24.29
-20.88
-19.46
-20.0
-21.28
-21.28
-18.21
-11.55
-2.21
8.0
17.42
25.23
31.49
36.55
40.38
42.47
42.05
38.77
33.19
26.52
20.15
15.02
11.4
9.0
7.27
5.68
3.87
1.7
-0.8
-3.41
-5.94
-8.15
-10.19
-12.34
-14.96
-18.14
-21.68
-25.19
-28.5
-31.95
-36.27
-41.96
-48.73
-55.31
-59.77
-60.33
-56.13
-47.37
-35.16
-20.97
-6.29
7.6
19.6
28.98
35.47
39.22
40.75
40.6
39.17
36.77
33.8
30.73
27.99
25.62
23.15
19.92
15.68
10.99
7.06
5.14
5.74
8.34
11.76
14.92
17.28
18.82
19.51
18.88
15.88
9.54
-0.33
-12.64
-25.03
-34.58
-38.68
-35.81
-26.18
-11.92
3.58
16.72
25.1
28.37
28.2
27.23
27.54
29.65
32.27
33.24
30.85
24.47
14.7
2.76
-9.84
-21.42
-30.35
-35.41
-36.85
-37.01
-40.37
-52.39
-77.26
-115.89
-164.73
-216.49
-261.82
-292.06
-301.38
-287.92
-253.63
-203.18
-142.22
-75.82
-7.42
61.14
128.79
194.14
255.08
309.36
355.11
391.27
417.22
431.86
433.25
419.15
388.37
342.03
284.18
220.75
157.57
98.52
44.48
-6.42
-57.68
-112.86
-173.9
-239.76
-305.73
-363.97
-405.2
-421.57
-409.17
-369.4
-308.58
-235.99
-161.57
-94.19
-41.1
-8.05
0.67
-16.97
-59.42
-120.52
-189.71
-253.92
-300.76
-321.68
-313.91
-280.71
-229.15
-167.42
-102.28
-37.82
24.43
84.58
143.48
202.16
261.25
320.53
377.85
428.46
465.45
481.61
472.08
436.49
379.62
309.82
236.48
167.33
106.69
55.61
12.96
-23.38
-55.91
-86.67
-118.96
-154.85
-193.67
-231.15
-260.27
-273.87
-268.06
-244.27
-208.98
-170.95
-137.06
-110.15
-88.94
-70.35
-52.23
-34.71
-19.91
-10.1
-6.41
-7.89
-12.27
-17.03
-20.13
-20.28
-17.12
-10.98
-2.98
5.29
12.25
16.95
19.55
21.03
22.82
26.01
31.17
38.06
45.38
50.51
49.58
38.77
16.09
-16.73
-53.61
-85.61
-103.79
-102.35
-80.52
-42.23
5.92
56.92
105.08
146.53
179.28
203.1
219.49
231.53
242.47
254.23
265.79
273.28
271.46
256.16
226.49
185.21
137.67
89.57
45.2
6.96
-24.16
-47.85
-64.04
-73.32
-77.45
-79.45
-82.73
-89.99
-102.28
-118.5
-136.09
-151.78
-162.28
-165.0
-158.25
-141.79
-117.11
-87.22
-55.97
-26.69
-1.39
19.45
35.98
48.09
54.83
54.79
47.19
32.81
14.14
-5.27
-22.16
-34.41
-41.3
-43.46
-42.29
-39.3
-35.88
-33.02
-31.22
-30.59
-31.13
-32.71
-35.39
-39.26
-44.31
-50.76
-59.0
-69.19
-80.9
-92.28
-99.6
-98.31
-84.64
-57.43
-19.06
25.18
68.79
105.76
131.64
143.96
142.11
127.53
103.66
75.58
48.84
27.66
13.55
5.53
1.28
-1.11
-2.21
-1.65
0.71
3.93
6.19
5.88
2.88
-1.5
-5.42
-7.77
-9.11
-11.54
-17.52
-28.52
-44.34
-62.95
-81.1
-95.09
-101.4
-97.57
-82.86
-58.67
-28.41
3.32
32.12
55.08
71.34
81.74
87.72
90.25
89.45
84.96
76.59
64.98
51.53
37.98
25.66
15.32
7.09
0.86
-3.48
-6.01
-7.01
-7.16
-7.55
-9.31
-13.23
-19.47
-27.41
-36.03
-44.18
-51.22
-57.35
-63.72
-71.83
-82.95
-97.31
-113.62
-129.17
-140.51
-144.41
-138.43
-121.7
-95.0
-60.82
-23.02
13.87
46.18
71.9
91.39
106.45
118.72
128.21
133.18
131.47
122.5
108.3
93.14
81.54
76.26
77.51
83.77
93.09
103.92
114.63
122.7
124.86
118.18
102.06
79.14
54.37
32.66
16.4
4.99
-4.21
-13.65
-23.95
-33.94
-42.06
-47.73
-52.12
-57.49
-65.87
-77.93
-92.45
-106.76
-117.33
-120.9
-115.36
-100.25
-77.01
-48.27
-17.3
12.84
39.68
61.61
77.69
87.79
92.76
94.11
93.5
92.14
90.25
87.28
82.68
76.55
69.93
64.21
60.29
58.17
56.95
55.57
53.42
50.56
47.36
44.1
40.8
37.1
32.68
27.24
20.52
12.5
3.12
-7.39
-18.57
-29.89
-40.84
-51.11
-60.53
-69.08
-76.81
-83.91
-90.85
-97.95
-105.08
-111.05
-113.8
-111.03
-101.3
-84.8
-63.42
-40.02
-17.48
1.97
16.91
26.58
30.72
29.7
24.73
17.75
10.92
5.83
3.03
2.14
2.49
3.78
6.35
10.8
17.46
26.02
35.57
44.97
53.27
59.68
63.6
64.67
62.89
58.69
52.91
46.33
39.33
31.69
23.02
13.1
2.3
-8.65
-19.11
-28.81
-37.73
-45.68
-52.15
-56.67
-59.43
-61.87
-66.24
-74.54
-87.12
-101.9
-114.8
-121.25
-117.9
-103.71
-80.29
-50.93
-19.61
10.14
35.87
56.34
71.45
81.61
87.41
89.16
87.15
81.94
74.67
66.97
60.38
55.75
52.87
50.92
49.05
47.11
45.61
45.2
45.99
47.27
47.95
47.18
44.76
40.98
36.13
30.14
22.82
14.34
5.7
-1.67
-6.72
-9.61
-11.73
-15.06
-20.81
-28.76
-37.41
-44.9
-50.31
-54.02
-57.46
-62.4
-69.99
-80.54
-93.48
-107.3
-119.68
-127.64
-128.1
-118.9
-99.74
-72.45
-40.5
-7.96
21.67
46.07
64.09
75.56
80.92
81.18
77.91
72.81
67.37
62.56
58.87
56.57
55.88
56.84
59.18
62.28
65.4
68.14
70.73
73.62
77.04
80.45
82.55
81.99
77.97
70.64
60.88
49.77
38.2
26.83
16.2
6.87
-0.96
-7.6
-13.97
-21.07
-29.4
-38.61
-47.77
-55.92
-62.6
-68.07
-73.17
-78.86
-85.93
-94.57
-104.15
-112.94
-118.26
-117.21
-107.7
-89.48
-64.42
-35.91
-7.68
17.33
37.54
52.36
61.78
65.97
65.42
61.18
54.88
48.37
43.01
39.35
37.11
35.62
34.32
33.01
31.77
30.93
30.86
31.96
34.44
37.99
41.58
43.62
42.66
38.23
31.27
23.67
17.32
13.02
10.1
7.0
2.27
-4.72
-13.45
-22.82
-31.77
-39.58
-46.02
-51.2
-55.49
-59.57
-64.24
-69.86
-75.89
-80.69
-81.79
-77.08
-65.82
-48.92
-28.74
-8.12
10.51
25.6
36.47
43.17
46.18
46.3
44.49
41.42
37.32
31.83
24.36
14.73
3.55
-7.5
-16.07
-19.7
-16.67
-6.58
9.29
28.1
46.22
60.13
67.65
68.51
64.08
56.65
48.28
40.01
31.74
22.83
12.95
2.35
-8.16
-17.79
-26.32
-34.14
-42.04
-50.74
-60.56
-71.35
-82.69
-93.91
-104.36
-113.11
-119.12
-121.1
-117.85
-108.6
-93.41
-73.44
-50.9
-28.6
-9.09
5.93
16.07
22.08
25.16
26.36
26.1
24.48
21.51
17.6
13.44
9.75
6.92
5.01
3.92
3.75
4.8
7.06
10.07
12.77
14.09
13.52
11.41
8.73
6.19
3.9
1.41
-1.71
-5.31
-8.52
-10.32
-10.28
-8.83
-7.12
-6.28
-6.96
-9.16
-12.73
-17.65
-23.9
-31.17
-38.42
-43.86
-45.64
-42.49
-34.17
-21.6
-6.37
9.75
25.19
38.89
50.24
59.02
65.15
68.49
68.79
65.75
59.51
50.8
41.18
32.46
26.01
22.31
20.86
20.68
20.9
21.13
21.24
21.09
20.2
18.06
14.46
9.49
3.56
-2.91
-9.7
-16.77
-23.91
-30.78
-36.94
-42.13
-46.58
-50.74
-55.09
-59.85
-65.05
-70.87
-77.67
-85.82
-94.89
-103.4
-108.79
-108.36
-100.46
-85.13
-64.14
-40.29
-16.59
4.46
21.21
32.99
40.04
43.5
45.2
47.24
51.41
58.62
68.79
80.97
93.66
105.21
114.15
119.37
120.36
117.46
111.69
104.41
96.75
89.33
82.08
74.51
66.13
56.58
45.79
34.02
21.77
9.88
-0.67
-9.08
-15.16
-19.65
-23.99
-29.73
-37.86
-48.42
-60.51
-72.7
-83.3
-90.49
-92.6
-88.35
-77.42
-60.85
-41.03
-21.1
-3.81
9.32
18.33
24.1
27.51
28.82
27.78
24.2
18.5
11.76
5.34
0.34
-2.83
-4.27
-4.45
-3.92
-3.2
-2.72
-2.73
-3.31
-4.24
-5.19
-6.06
-7.23
-9.54
-13.87
-20.4
-28.47
-36.67
-43.5
-48.17
-50.83
-52.49
-54.43
-57.73
-62.83
-69.44
-76.48
-82.24
-84.83
-82.52
-74.53
-61.3
-44.32
-25.81
-7.91
7.79
20.48
29.86
36.14
39.74
41.2
41.13
39.93
37.79
34.78
31.12
27.36
24.3
22.66
22.7
24.2
26.61
29.58
33.06
37.09
41.52
45.52
47.88
47.55
44.1
37.85
29.74
21.02
12.84
6.19
1.46
-1.87
-5.13
-10.2
-18.63
-30.77
-45.44
-60.18
-72.23
-79.46
-80.85
-76.32
-66.42
-51.92
-34.04
-14.64
3.89
19.26
30.08
36.25
38.76
38.7
36.9
33.53
28.66
22.77
16.91
12.17
9.18
7.74
6.95
6.04
4.72
3.35
2.49
2.43
2.94
3.41
3.23
1.93
-0.76
-4.98
-10.75
-17.74
-25.15
-31.76
-36.46
-38.7
-38.93
-38.42
-38.92
-41.97
-48.38
-57.92
-69.12
-79.5
-86.07
-86.17
-78.36
-63.05
-42.39
-19.44
2.69
21.89
37.24
48.75
56.78
61.75
64.04
64.1
62.55
60.05
57.07
53.91
50.8
47.93
45.62
44.06
43.28
43.0
42.85
42.7
42.58
42.54
42.3
41.05
37.83
31.99
23.75
14.25
4.99
-2.82
-8.85
-13.65
-18.31
-23.8
-30.57
-38.37
-46.67
-54.85
-62.43
-69.04
-74.03
-76.2
-74.0
-66.19
-52.55
-34.49
-14.74
3.54
18.04
28.16
34.84
39.54
43.11
45.09
44.22
39.57
31.57
22.13
13.72
8.15
5.71
5.37
5.64
5.5
4.8
3.97
3.39
3.13
2.89
2.25
0.99
-1.08
-4.08
-8.26
-13.67
-19.93
-26.26
-31.89
-36.38
-39.74
-42.39
-44.68
-46.95
-49.71
-53.57
-59.06
-65.88
-72.48
-76.13
-74.0
-64.35
-47.55
-25.88
-2.56
19.5
38.55
54.04
66.05
74.77
80.23
82.48
81.76
78.51
73.23
66.67
59.86
54.09
50.74
50.65
53.59
58.25
62.76
65.4
65.34
62.8
58.57
53.58
48.37
42.99
37.07
30.24
22.21
13.07
3.27
-6.47
-15.46
-23.25
-29.87
-35.62
-40.91
-46.02
-51.22
-56.91
-63.68
-71.81
-80.7
-88.41
-92.08
-89.06
-78.39
-61.37
-41.23
-21.59
-5.06
7.56
16.82
23.68
28.57
31.31
31.49
28.98
24.09
17.57
10.28
3.05
-3.21
-7.6
-9.49
-8.82
-6.27
-2.99
-0.01
2.11
3.43
4.29
4.83
4.79
3.84
1.72
-1.43
-5.26
-9.47
-13.96
-18.67
-23.28
-27.39
-30.59
-32.98
-35.28
-38.58
-43.78
-51.05
-59.7
-68.32
-75.23
-78.66
-77.03
-69.16
-54.55
-33.93
-9.21
16.7
40.89
61.29
77.03
88.29
95.7
99.65
100.05
96.67
89.75
80.32
70.18
61.29
55.06
51.86
51.0
51.09
50.75
49.11
46.19
42.8
39.9
38.08
37.04
35.61
32.49
26.86
18.98
10.04
1.44
-5.94
-11.97
-17.05
-21.58
-25.54
-28.86
-31.87
-35.6
-41.33
-49.71
-59.94
-69.68
-75.74
-75.38
-67.39
-52.6
-33.47
-13.02
5.89
21.5
33.27
41.51
46.85
49.55
49.31
45.41
37.37
25.92
13.0
1.25
-7.09
-11.21
-11.76
-10.24
-8.05
-5.87
-3.69
-1.48
0.45
1.44
0.8
-1.65
-5.49
-9.99
-14.61
-19.06
-23.32
-27.51
-31.7
-36.0
-41.02
-47.47
-55.62
-64.43
-71.81
-75.18
-72.84
-64.85
-53.07
-39.92
-27.02
-14.32
-0.42
16.1
35.43
55.98
74.79
88.9
96.5
97.43
92.96
85.03
75.43
65.15
54.4
42.81
30.13
16.88
4.52
-5.05
-10.29
-10.87
-7.86
-3.37
0.22
1.44
0.12
-2.89
-6.28
-9.06
-10.97
-12.42
-14.35
-17.54
-22.27
-28.16
-34.1
-38.91
-42.06
-44.04
-46.12
-49.72
-55.57
-63.53
-72.91
-83.04
-93.52
-103.78
-112.45
-116.96
-114.2
-101.88
-79.86
-50.62
-18.41
12.28
38.23
57.89
71.2
78.77
81.53
80.53
76.92
71.97
66.62
61.49
56.81
52.82
49.93
48.59
48.9
50.19
51.33
51.26
49.67
47.06
44.41
42.32
40.52
38.08
34.09
28.28
21.33
14.41
8.5
3.92
0.21
-3.47
-7.75
-12.97
-19.08
-25.85
-32.96
-40.05
-46.6
-52.05
-55.66
-56.46
-53.26
-44.88
-30.85
-12.01
9.07
28.72
43.44
51.39
53.12
50.78
46.8
42.2
36.59
29.22
20.52
12.62
8.28
9.12
14.21
20.64
25.2
26.27
24.47
21.72
19.68
18.65
17.71
15.63
12.0
7.21
2.01
-3.21
-8.79
-15.25
-22.92
-31.52
-40.56
-49.31
-57.24
-63.96
-69.23
-73.28
-76.74
-80.54
-85.32
-90.84
-95.76
-98.04
-95.56
-86.88
-71.61
-50.44
-25.03
2.03
27.57
48.45
62.57
69.52
70.74
68.51
64.87
60.6
55.32
48.48
40.27
32.04
25.68
22.57
22.69
24.89
27.49
29.17
29.4
28.29
26.2
23.47
20.37
17.12
13.85
10.46
6.68
2.26
-2.88
-8.34
-13.54
-18.14
-22.12
-25.64
-28.77
-31.52
-34.12
-37.44
-42.65
-50.29
-59.26
-66.6
-68.53
-62.17
-47.33
-26.58
-4.08
16.38
32.86
44.93
52.68
55.9
54.11
47.63
38.57
30.4
26.12
26.57
29.61
31.84
30.44
25.11
18.14
12.55
10.35
11.52
14.35
16.93
18.11
17.42
14.63
9.38
1.43
-8.51
-18.94
-27.7
-33.45
-36.23
-37.55
-39.51
-43.45
-49.64
-57.45
-66.09
-75.17
-84.71
-94.74
-104.86
-113.97
-120.28
-121.81
-116.75
-104.16
-84.64
-60.3
-34.39
-10.27
9.83
25.43
37.3
46.58
53.31
56.45
54.85
48.45
39.39
31.1
26.64
26.88
30.22
33.78
35.44
35.18
34.48
34.94
36.89
38.96
39.34
37.07
32.84
28.5
25.69
24.74
24.52
23.32
19.85
13.92
6.39
-1.28
-7.95
-13.03
-16.78
-20.12
-24.24
-29.98
-37.24
-45.13
-52.19
-57.1
-58.88
-56.85
-50.38
-38.86
-22.31
-1.68
20.81
41.99
59.01
70.01
74.67
74.05
69.93
64.26
58.71
54.44
51.78
50.38
49.31
47.49
44.37
40.3
35.97
32.04
28.53
24.77
20.2
14.83
9.4
4.88
1.61
-1.17
-4.73
-10.1
-17.48
-26.07
-34.93
-43.3
-51.17
-58.87
-66.69
-74.63
-82.46
-90.2
-97.85
-105.27
-111.58
-115.16
-114.16
-107.13
-93.78
-74.87
-51.98
-26.8
-1.05
23.62
45.31
62.01
72.02
74.64
70.65
62.14
52.05
43.06
36.99
34.19
33.73
34.08
33.95
33.03
32.17
32.79
36.0
41.83
48.79
54.57
57.15
55.57
50.36
42.91
34.86
27.29
20.46
14.32
8.53
2.84
-3.17
-10.19
-19.11
-30.36
-43.51
-57.2
-69.6
-79.61
-87.56
-95.07
-103.52
-112.68
-119.82
-120.31
-109.42
-84.71
-47.21
-1.42
46.3
89.58
123.24
144.07
150.75
143.83
125.56
99.98
72.16
47.01
28.0
16.38
11.21
9.91
9.76
8.92
7.06
5.13
4.6
6.51
10.37
14.37
15.97
13.27
6.26
-3.11
-11.99
-18.19
-21.26
-22.45
-23.65
-26.21
-30.29
-35.33
-40.87
-46.95
-53.94
-61.57
-68.5
-72.04
-69.27
-58.18
-38.83
-13.51
14.05
39.43
58.88
70.14
72.88
68.61
60.25
51.21
44.11
40.09
38.71
38.46
37.56
34.87
30.31
24.88
19.89
16.44
14.77
14.44
14.7
14.91
14.95
14.9
14.53
12.9
8.47
0.18
-11.45
-23.86
-33.55
-37.77
-36.19
-31.35
-27.4
-27.91
-34.36
-45.8
-59.76
-73.53
-84.72
-91.45
-92.17
-85.84
-72.51
-53.81
-32.86
-13.29
1.74
10.46
12.76
10.24
6.15
4.49
9.05
21.49
40.25
60.72
77.03
84.81
83.21
74.98
64.46
55.12
48.17
42.81
37.6
32.01
26.59
22.4
19.81
18.05
15.54
10.54
2.08
-9.63
-23.15
-36.28
-47.04
-54.34
-58.56
-61.48
-65.11
-70.43
-76.2
-79.43
-76.53
-65.4
-46.48
-22.57
2.37
24.83
42.45
54.07
59.59
59.67
55.87
50.4
45.43
42.54
42.0
43.08
44.69
46.0
46.91
47.56
48.02
48.08
47.39
45.81
43.55
41.05
38.53
35.95
33.04
29.48
25.09
19.5
12.39
3.62
-6.33
-16.52
-25.91
-34.21
-41.94
-50.1
-59.06
-67.62
-73.16
-72.59
-63.88
-47.06
-24.4
0.61
24.53
44.64
59.55
68.77
72.41
71.04
65.58
57.24
47.49
37.62
28.54
20.83
14.68
10.06
6.83
4.64
2.91
1.17
-0.73
-2.55
-3.73
-4.09
-4.12
-5.02
-8.17
-14.16
-22.5
-31.6
-39.69
-45.7
-49.8
-53.39
-58.22
-65.53
-75.31
-86.11
-95.36
-100.2
-98.35
-88.73
-71.8
-49.23
-23.66
2.1
25.55
44.78
58.75
67.18
70.5
69.77
66.39
61.67
56.45
51.03
45.41
39.87
35.09
31.98
31.12
32.3
34.46
36.0
35.69
33.01
28.32
22.53
16.51
10.75
5.35
0.16
-4.98
-10.19
-15.7
-21.69
-28.48
-36.34
-45.54
-56.16
-67.62
-78.44
-86.06
-87.53
-80.67
-65.2
-43.14
-18.01
6.77
28.79
47.2
61.83
72.26
77.5
76.44
68.85
56.2
41.41
28.01
18.68
14.51
14.74
17.35
19.89
20.21
17.15
10.88
2.72
-5.56
-12.64
-18.2
-22.95
-27.81
-33.41
-39.6
-46.02
-52.57
-59.63
-67.95
-77.76
-88.59
-99.32
-108.66
-115.38
-118.25
-115.72
-106.06
-88.12
-62.4
-31.75
-0.52
27.04
48.47
63.61
73.84
80.23
82.55
79.68
70.99
58.01
44.27
33.99
29.78
31.35
35.83
39.53
40.26
38.16
35.32
34.1
35.32
38.11
40.54
40.98
38.8
34.53
29.07
22.9
15.89
7.74
-1.48
-10.91
-19.43
-26.35
-32.17
-38.33
-45.97
-54.64
-61.83
-63.69
-56.97
-40.8
-17.47
8.64
32.94
52.49
66.72
76.5
82.67
85.15
83.04
75.78
64.16
50.37
37.15
26.57
19.21
14.42
11.23
8.98
7.59
7.18
7.34
7.15
5.64
2.39
-2.24
-7.49
-12.77
-18.02
-23.6
-29.88
-36.6
-43.01
-48.23
-51.93
-54.62
-57.58
-62.17
-69.35
-79.34
-91.32
-103.6
-113.83
-119.41
-117.98
-108.48
-91.33
-68.28
-41.93
-14.78
11.06
34.01
52.87
66.79
75.29
78.54
77.32
72.85
66.56
59.76
53.24
47.51
42.64
38.68
35.84
34.64
35.65
39.11
44.56
50.68
55.79
58.56
58.48
55.92
51.7
46.07
38.78
29.29
17.63
5.17
-5.99
-14.12
-19.13
-22.67
-27.33
-35.28
-47.08
-61.57
-76.76
-91.0
-103.19
-112.51
-117.8
-117.08
-108.06
-89.41
-61.72
-27.57
8.91
43.37
72.1
92.65
103.71
105.28
98.67
86.05
70.52
55.13
42.38
33.73
29.58
29.29
31.57
34.79
37.21
37.92
37.07
35.73
35.24
36.47
39.23
42.24
43.98
43.08
39.06
32.36
24.3
16.64
10.48
5.93
1.59
-4.74
-14.99
-29.41
-46.41
-63.05
-76.78
-86.9
-94.5
-101.01
-106.38
-108.16
-102.58
-87.02
-61.99
-31.37
-0.73
25.29
44.95
59.26
70.38
80.05
88.39
94.15
96.06
93.35
86.51
76.76
65.58
54.76
45.76
39.86
37.53
38.32
40.83
43.34
44.46
43.74
41.37
37.85
33.51
28.37
22.45
15.96
9.35
3.06
-2.85
-8.61
-14.56
-21.25
-28.81
-37.11
-45.72
-53.97
-61.44
-68.22
-74.99
-82.81
-92.53
-103.98
-115.74
-125.22
-129.54
-126.48
-115.3
-96.84
-73.3
-47.7
-23.05
-1.9
14.0
24.21
29.55
31.62
32.13
32.2
31.82
30.49
27.69
23.46
18.58
13.99
10.64
8.91
9.06
11.12
14.95
20.08
25.45
29.8
31.88
30.95
27.28
21.75
15.55
9.58
4.22
-0.61
-4.88
-8.58
-11.47
-13.45
-14.66
-15.49
-16.38
-17.89
-20.52
-24.51
-30.04
-36.71
-43.63
-49.46
-52.52
-51.33
-44.93
-33.33
-17.4
1.06
19.9
37.03
50.73
60.08
64.92
65.76
63.41
58.53
51.45
42.35
31.67
20.28
9.72
1.4
-3.76
-5.86
-5.86
-4.97
-4.08
-3.53
-3.14
-2.77
-2.54
-2.74
-3.6
-5.14
-7.24
-9.72
-12.58
-15.83
-19.31
-22.68
-25.59
-28.05
-30.39
-33.25
-36.95
-41.42
-46.22
-51.01
-55.93
-61.49
-68.0
-74.93
-80.74
-83.38
-81.13
-73.33
-60.61
-44.46
-26.67
-8.91
7.63
22.15
34.17
43.5
50.12
54.15
55.65
54.71
51.61
46.94
41.65
36.77
32.99
30.33
28.37
26.5
24.41
22.18
20.15
18.61
17.66
17.19
16.94
16.53
15.54
13.51
10.05
5.17
-0.85
-7.54
-14.41
-21.05
-27.02
-31.86
-35.35
-37.72
-39.93
-43.4
-49.32
-57.87
-67.87
-77.1
-83.26
-84.84
-81.27
-72.72
-59.56
-42.32
-21.99
-0.36
20.07
36.87
48.56
55.1
57.53
57.18
55.05
51.6
47.05
41.83
36.61
32.03
28.38
25.5
23.11
21.15
19.87
19.54
20.19
21.4
22.45
22.73
21.91
20.05
17.34
14.03
10.35
6.5
2.69
-1.09
-5.08
-9.53
-14.43
-19.44
-24.05
-28.06
-31.96
-36.66
-42.94
-50.47
-57.75
-62.53
-62.86
-58.01
-48.52
-35.75
-21.02
-5.29
10.81
26.37
40.1
50.51
56.66
58.53
57.05
53.53
49.03
44.08
38.83
33.48
28.46
24.36
21.64
20.44
20.54
21.43
22.48
23.06
22.61
20.78
17.58
13.45
9.02
4.7
0.35
-4.64
-10.95
-18.69
-27.19
-35.37
-42.34
-47.89
-52.54
-57.41
-63.46
-71.41
-81.55
-93.64
-106.39
-117.09
-121.87
-116.78
-99.66
-71.55
-36.79
-1.52
28.74
50.9
64.65
71.48
73.18
70.89
65.21
56.78
46.85
37.16
29.14
23.43
19.8
17.62
16.41
15.96
16.07
16.35
16.32
15.46
13.67
11.14
8.16
4.76
0.71
-4.36
-10.7
-18.09
-25.94
-33.23
-38.94
-42.58
-44.49
-45.97
-48.92
-54.87
-64.11
-75.52
-86.89
-96.03
-101.47
-102.6
-99.05
-90.25
-75.4
-54.44
-28.71
-1.21
24.34
44.94
59.42
68.46
73.5
75.53
74.75
70.93
64.46
56.76
50.02
45.98
45.15
46.58
48.54
49.51
48.87
46.96
44.52
42.17
40.01
37.56
34.19
29.27
22.53
14.05
4.28
-6.26
-17.17
-28.42
-40.18
-52.61
-65.35
-77.74
-89.09
-99.23
-108.83
-119.03
-130.61
-143.07
-154.38
-161.32
-160.6
-150.26
-130.3
-102.86
-71.45
-39.69
-10.46
14.82
35.94
53.17
66.59
75.75
79.98
79.05
73.78
65.91
57.48
49.93
43.72
38.77
35.21
33.81
35.78
41.8
51.12
61.57
70.28
75.05
75.29
71.97
67.0
62.08
58.12
55.21
52.91
50.63
47.71
43.76
38.65
32.74
26.92
22.07
18.72
16.41
13.93
9.84
3.56
-4.19
-11.43
-15.62
-14.65
-7.44
5.82
23.93
44.77
65.86
84.59
98.8
107.25
109.89
107.79
102.56
95.82
88.65
81.46
74.26
66.97
59.66
52.42
45.32
38.47
32.02
26.15
21.08
16.78
12.96
9.26
5.34
1.11
-3.51
-8.77
-15.16
-23.19
-33.0
-44.15
-55.47
-65.79
-74.38
-81.22
-87.05
-92.93
-99.88
-108.58
-119.34
-131.84
-144.92
-156.49
-163.72
-163.72
-154.42
-135.22
-107.39
-73.71
-37.85
-3.61
25.82
48.32
63.01
70.28
71.32
67.65
60.77
51.94
42.41
33.57
26.81
23.28
23.25
25.89
29.58
32.68
34.17
34.15
33.49
33.32
34.3
36.34
38.58
39.7
38.29
33.45
25.26
14.81
4.08
-4.96
-11.13
-14.57
-16.54
-18.84
-23.08
-30.43
-41.4
-55.75
-72.07
-87.58
-98.39
-100.44
-91.13
-70.47
-41.2
-7.64
26.05
56.97
83.36
104.11
118.03
124.2
122.63
115.0
104.18
93.16
83.48
74.87
66.14
56.29
45.78
36.32
30.0
27.86
29.29
31.97
33.02
30.01
21.66
8.42
-7.89
-24.55
-38.83
-48.78
-54.01
-55.81
-56.81
-59.96
-67.2
-79.17
-94.65
-111.37
-126.73
-138.57
-145.71
-148.37
-148.54
-149.38
-154.4
-165.4
-181.34
-198.0
-208.81
-207.37
-189.54
-155.37
-109.19
-58.4
-10.62
28.5
56.69
75.0
86.33
93.86
99.43
103.34
105.3
105.51
104.97
104.91
105.61
105.24
100.64
88.94
69.74
45.98
22.8
5.31
-3.74
-4.82
-1.24
2.99
4.78
2.79
-2.52
-10.11
-18.86
-27.81
-36.21
-43.7
-50.08
-55.57
-60.46
-65.07
-69.86
-75.22
-81.57
-89.27
-98.14
-107.02
-113.5
-114.43
-106.73
-88.75
-60.67
-24.82
14.99
54.32
88.85
115.13
131.36
137.98
137.4
133.25
128.8
125.61
123.49
121.35
118.37
114.92
112.37
112.11
114.91
120.69
128.67
137.55
145.27
148.74
144.58
130.5
106.99
77.87
49.05
25.82
10.62
2.31
-2.35
-6.49
-11.48
-17.1
-22.6
-27.89
-33.55
-40.09
-47.04
-53.07
-56.86
-58.1
-57.5
-55.95
-53.67
-49.75
-42.72
-31.76
-17.28
-0.82
15.83
31.38
45.33
57.45
67.32
74.09
76.89
75.4
70.14
62.16
52.6
42.27
31.8
21.76
12.87
5.81
0.8
-2.44
-4.44
-5.67
-5.97
-4.96
-2.34
1.52
5.6
8.54
9.39
8.21
6.0
4.39
4.7
7.57
12.62
18.62
23.95
27.1
26.97
22.99
15.11
3.98
-8.77
-20.93
-29.78
-33.13
-30.28
-22.31
-11.92
-2.21
4.35
7.11
7.28
7.42
10.46
18.36
31.47
48.1
65.23
79.38
87.98
90.21
87.19
81.31
74.8
68.92
63.68
58.59
53.51
49.04
46.2
45.47
46.24
46.79
45.38
40.96
33.86
25.56
17.74
11.53
7.15
4.15
1.67
-1.15
-5.1
-10.65
-17.81
-26.01
-34.09
-40.97
-46.15
-49.86
-52.62
-54.51
-54.76
-52.08
-45.52
-35.34
-23.23
-11.62
-2.59
2.82
4.64
3.34
-0.77
-7.45
-16.24
-25.92
-34.73
-40.95
-43.57
-42.44
-37.95
-30.52
-20.43
-8.02
5.78
19.48
31.46
40.53
46.47
49.66
50.57
49.18
45.05
37.82
27.8
16.24
4.8
-5.04
-12.47
-17.5
-20.67
-22.64
-24.1
-26.04
-29.8
-36.61
-47.04
-60.04
-72.86
-81.96
-84.29
-78.44
-65.05
-46.72
-26.77
-8.39
6.04
15.6
20.66
22.33
21.76
19.33
14.66
7.58
-0.89
-7.99
-10.2
-5.19
6.39
20.39
31.14
34.08
28.25
16.65
4.64
-3.08
-4.74
-1.91
1.55
2.03
-1.84
-8.81
-15.6
-18.71
-16.33
-9.73
-2.58
0.63
-2.89
-12.5
-24.67
-34.62
-38.74
-35.95
-27.59
-16.0
-3.68
7.75
17.04
22.82
23.99
19.88
11.27
0.39
-9.64
-16.59
-19.91
-20.96
-21.78
-23.41
-25.48
-26.33
-24.54
-19.98
-13.97
-8.47
-4.63
-2.15
0.57
5.11
11.77
18.99
24.12
24.91
20.56
12.4
2.89
-5.57
-12.08
-17.28
-22.99
-30.74
-40.4
-49.96
-56.13
-55.82
-47.85
-33.56
-16.16
0.53
13.77
22.61
27.69
30.21
31.09
30.18
26.54
19.21
8.13
-5.42
-18.95
-29.55
-35.02
-35.08
-31.4
-26.66
-23.33
-22.26
-22.67
-23.23
-23.15
-22.79
-23.34
-25.73
-29.76
-34.34
-38.29
-40.94
-42.65
-44.04
-45.43
-46.92
-48.69
-51.29
-55.25
-60.52
-65.46
-67.51
-64.27
-54.91
-40.66
-23.98
-7.5
7.07
18.62
26.33
29.39
27.54
21.65
13.8
6.59
1.6
-1.02
-2.33
-3.43
-4.69
-5.66
-5.47
-3.81
-0.61
3.83
9.33
15.63
22.02
27.18
29.73
28.85
24.61
18.07
10.14
1.47
-7.82
-17.33
-25.89
-32.1
-34.64
-33.3
-28.64
-21.49
-12.24
-0.99
11.94
25.42
37.36
45.33
47.76
44.87
38.59
31.59
25.99
22.26
19.34
15.56
10.04
3.35
-2.64
-5.95
-5.55
-2.07
2.29
5.06
4.49
0.73
-4.63
-9.25
-11.91
-13.07
-14.6
-18.72
-26.32
-36.58
-47.39
-56.35
-62.17
-64.96
-65.55
-64.71
-62.39
-57.82
-50.25
-39.74
-27.37
-14.86
-3.85
4.58
9.98
12.4
12.16
9.82
6.13
1.95
-2.12
-5.87
-9.35
-12.68
-15.96
-19.01
-21.75
-24.04
-25.56
-26.06
-25.18
-22.95
-19.98
-17.44
-16.68
-18.6
-23.31
-30.12
-38.17
-46.7
-55.45
-64.04
-71.43
-76.0
-75.84
-69.89
-58.57
-43.37
-26.22
-8.57
8.92
25.85
41.34
53.92
61.76
63.98
61.17
55.19
48.15
40.85
32.57
21.64
7.16
-9.94
-26.94
-40.72
-49.26
-52.23
-50.99
-47.47
-43.52
-40.3
-38.73
-39.78
-44.58
-54.12
-68.81
-88.17
-111.03
-135.39
-158.6
-177.48
-188.36
-188.06
-174.76
-148.81
-112.99
-71.83
-30.48
6.42
35.92
57.03
70.88
79.67
85.52
89.39
91.05
89.74
85.54
80.17
76.49
77.43
84.23
95.94
109.76
122.52
131.75
136.9
138.89
139.26
139.3
139.23
137.98
134.05
126.51
115.35
101.72
87.15
72.86
59.24
46.82
37.1
32.97
37.55
51.8
72.81
94.03
107.78
109.16
98.42
80.55
62.44
49.16
42.09
39.12
36.94
33.26
27.76
21.2
14.36
7.25
-0.8
-10.23
-20.57
-30.66
-39.09
-44.77
-47.45
-47.72
-46.69
-45.38
-44.65
-44.88
-46.09
-48.16
-51.09
-55.08
-60.41
-67.24
-75.49
-84.81
-94.61
-103.99
-111.75
-116.28
-115.84
-109.33
-97.03
-81.02
-64.82
-51.92
-44.69
-43.44
-46.56
-51.56
-56.07
-58.36
-57.3
-52.3
-43.17
-30.46
-15.77
-1.34
10.65
18.99
23.9
26.48
27.55
27.16
24.48
18.83
10.29
0.09
-10.23
-19.63
-28.13
-36.49
-45.31
-54.55
-63.02
-69.19
-71.69
-69.93
-64.35
-55.66
-44.49
-30.82
-14.26
5.56
28.22
52.2
74.94
93.91
107.61
116.15
120.95
123.16
122.91
119.05
110.44
97.67
83.35
71.51
65.51
66.79
74.57
86.7
100.45
113.09
121.9
124.11
117.95
103.46
83.54
62.19
42.75
25.63
8.28
-12.8
-38.88
-67.08
-91.68
-106.96
-110.36
-103.06
-88.48
-69.6
-47.34
-21.45
7.28
35.53
57.95
69.75
69.54
60.56
49.18
41.59
40.92
46.11
52.64
55.28
50.55
38.56
22.91
9.12
2.75
6.41
18.83
35.24
49.65
57.51
57.27
50.38
39.5
26.35
11.09
-7.17
-28.83
-53.1
-78.1
-101.39
-120.87
-134.25
-138.99
-132.65
-113.79
-83.22
-44.5
-3.15
35.34
67.29
91.51
108.4
118.59
122.46
120.16
112.68
102.29
91.98
84.13
79.51
76.89
74.01
68.83
60.09
47.72
32.49
15.59
-1.43
-17.07
-30.11
-40.21
-48.06
-55.22
-63.04
-72.04
-81.76
-91.42
-100.55
-109.29
-117.82
-125.53
-130.67
-130.76
-123.76
-109.04
-87.46
-60.83
-30.99
0.4
31.88
61.6
87.58
108.12
122.18
129.93
131.92
128.93
121.77
111.38
99.23
87.06
76.64
68.74
63.35
59.73
57.27
55.86
55.78
57.22
59.75
62.3
63.47
61.9
56.71
47.72
35.61
21.98
9.07
-0.81
-6.47
-8.84
-10.74
-16.09
-28.07
-47.42
-72.14
-98.03
-120.41
-135.51
-141.17
-136.75
-122.88
-101.08
-73.83
-44.71
-17.79
3.19
16.06
20.8
19.36
14.76
9.77
6.06
3.87
2.48
0.95
-1.01
-2.89
-3.62
-2.49
0.24
3.45
5.6
5.81
4.5
2.78
1.85
1.95
2.48
2.6
2.46
3.18
6.05
11.52
18.37
24.33
27.52
27.52
25.17
21.96
18.74
15.47
11.64
6.88
1.6
-3.72
-9.04
-15.07
-22.92
-33.19
-45.34
-57.47
-67.33
-72.94
-73.32
-68.17
-57.96
-43.63
-26.75
-9.52
5.61
16.26
21.22
20.44
14.92
6.3
-3.87
-14.4
-24.48
-33.4
-40.49
-44.97
-46.01
-42.85
-35.28
-23.96
-10.28
3.11
13.5
18.71
18.02
12.53
4.69
-2.55
-6.94
-7.38
-4.19
1.29
7.25
12.02
14.53
14.83
13.89
12.94
12.46
11.74
9.03
2.71
-7.43
-20.11
-33.05
-44.3
-53.16
-59.88
-64.61
-66.15
-62.08
-49.94
-29.3
-2.88
24.31
47.11
62.61
71.09
75.2
78.2
82.11
86.97
91.57
93.96
92.6
86.3
74.43
57.35
36.8
15.89
-1.71
-13.12
-17.62
-16.94
-13.96
-11.46
-10.94
-12.4
-15.24
-18.79
-22.91
-27.79
-33.47
-39.54
-45.16
-49.37
-51.66
-52.18
-51.82
-51.69
-52.92
-55.81
-59.72
-63.25
-64.97
-64.48
-62.56
-60.91
-61.05
-63.1
-65.5
-65.56
-60.57
-48.98
-31.02
-8.87
13.98
33.9
48.15
55.92
58.57
58.76
58.99
60.52
62.92
64.56
64.18
61.51
57.27
52.69
48.5
44.56
40.35
35.47
30.04
24.7
20.04
16.28
13.26
10.83
8.72
6.74
4.39
0.99
-4.0
-10.55
-17.87
-24.88
-30.87
-35.77
-40.16
-44.77
-49.87
-55.19
-60.16
-64.54
-68.68
-73.43
-79.26
-85.53
-90.68
-92.38
-88.73
-78.81
-63.03
-43.09
-21.29
-0.14
18.38
33.33
45.05
54.67
63.42
71.82
79.11
83.72
84.12
79.86
71.77
61.82
52.07
44.21
39.25
37.25
37.78
39.83
42.35
44.23
44.99
44.5
42.99
40.71
37.53
33.2
27.55
20.79
13.13
4.63
-4.94
-15.66
-26.87
-37.09
-44.62
-49.04
-51.73
-55.41
-62.29
-72.79
-84.85
-95.07
-100.76
-101.18
-97.91
-93.11
-87.98
-81.72
-72.38
-58.18
-38.97
-16.83
5.26
24.29
38.68
48.27
54.05
57.1
58.43
58.91
59.08
59.63
60.73
62.31
63.89
64.77
64.22
61.74
57.07
50.27
42.13
33.88
27.17
23.16
22.06
22.72
22.92
20.49
14.36
5.49
-3.81
-10.67
-13.16
-11.37
-6.92
-2.37
0.14
-0.54
-4.51
-11.34
-20.66
-32.31
-46.11
-61.09
-75.2
-85.61
-89.71
-86.46
-77.0
-64.13
-51.1
-40.14
-31.79
-25.24
-19.31
-13.49
-8.18
-4.22
-2.28
-2.33
-3.73
-5.61
-7.48
-9.17
-10.58
-11.39
-11.06
-9.17
-5.66
-0.92
4.3
9.2
13.01
15.04
14.83
12.02
6.86
0.03
-7.5
-14.79
-21.25
-26.47
-29.84
-30.35
-26.81
-18.61
-6.39
7.87
21.64
33.03
41.72
49.01
57.13
67.78
81.28
96.19
109.98
119.99
124.54
123.4
117.61
108.76
98.18
86.49
73.59
59.04
42.84
25.55
8.36
-7.47
-21.12
-32.34
-41.33
-48.45
-53.93
-57.87
-60.46
-62.15
-63.48
-64.91
-66.57
-68.24
-69.61
-70.75
-71.94
-73.76
-76.52
-79.76
-82.48
-83.33
-81.3
-76.15
-68.73
-60.96
-55.36
-54.56
-60.09
-71.8
-87.21
-102.15
-111.99
-113.32
-105.13
-88.9
-67.4
-43.62
-19.47
4.47
28.27
51.58
73.36
91.97
105.92
114.51
118.04
117.54
114.4
109.82
104.7
99.72
95.42
92.18
90.37
90.08
90.97
92.09
91.92
88.95
82.21
71.61
57.97
42.21
25.19
7.21
-11.47
-30.29
-47.66
-61.62
-70.74
-74.95
-75.84
-76.02
-77.98
-83.12
-91.13
-100.51
-109.19
-114.9
-115.66
-110.01
-97.5
-79.06
-56.87
-33.77
-12.04
7.33
24.95
42.15
59.56
76.4
90.3
98.51
99.35
93.28
82.82
71.6
62.57
56.85
53.76
51.52
48.49
44.39
40.07
36.86
35.47
35.16
34.44
32.0
27.8
23.2
19.99
18.86
19.01
18.41
15.22
8.94
0.61
-8.26
-17.02
-26.34
-37.79
-52.29
-68.98
-85.38
-98.29
-105.39
-106.2
-101.69
-93.38
-82.77
-70.5
-56.89
-42.21
-26.63
-10.68
4.84
18.59
29.0
34.7
35.26
31.66
25.96
20.46
16.59
14.53
13.79
13.98
15.18
18.04
23.08
30.06
37.84
44.99
50.29
53.01
52.76
49.24
42.47
33.04
22.36
12.17
3.74
-2.63
-7.76
-12.87
-18.8
-25.76
-33.54
-42.04
-51.33
-61.11
-70.37
-76.89
-78.17
-72.41
-59.6
-41.83
-22.28
-3.95
11.15
21.9
27.95
29.05
25.28
17.38
6.86
-4.24
-13.94
-21.21
-25.98
-28.91
-30.67
-31.79
-32.47
-32.85
-33.11
-33.4
-33.7
-34.14
-35.2
-37.59
-41.98
-48.16
-54.59
-58.78
-58.38
-52.26
-41.4
-28.47
-16.69
-8.1
-2.72
0.94
5.11
11.35
20.21
31.35
44.04
57.48
71.06
84.48
97.94
112.01
127.26
143.92
161.44
178.53
193.49
203.88
207.12
200.66
182.99
154.96
120.64
86.6
60.3
47.1
47.96
58.89
72.36
80.61
78.7
66.39
47.23
26.76
9.72
-1.44
-7.11
-10.06
-13.91
-21.21
-32.64
-46.8
-61.02
-73.31
-83.47
-92.76
-103.44
-116.93
-132.57
-147.62
-157.95
-159.78
-151.69
-135.72
-116.92
-101.76
-94.95
-97.07
-103.91
-108.12
-102.44
-83.4
-53.21
-18.56
11.66
30.97
37.47
34.03
26.68
20.79
18.88
20.44
23.23
25.09
25.71
25.65
25.25
24.08
20.76
14.64
6.72
-0.14
-2.92
-0.11
6.95
14.84
19.82
19.77
15.44
9.49
5.14
4.3
6.51
9.19
8.85
2.92
-9.38
-26.2
-43.97
-59.05
-68.45
-70.79
-65.85
-54.51
-38.37
-20.43
-4.12
7.22
12.47
13.58
14.44
19.31
29.79
44.06
57.27
64.42
62.54
52.19
36.81
20.79
8.0
0.54
-1.09
2.41
9.56
18.61
27.64
34.72
37.76
35.49
27.77
16.14
3.77
-5.55
-8.92
-5.98
1.06
7.85
10.51
7.3
-0.4
-9.7
-18.36
-26.11
-35.09
-47.59
-64.19
-82.26
-97.24
-104.6
-102.22
-91.34
-75.98
-60.5
-47.22
-35.3
-22.13
-5.45
13.93
31.78
41.92
39.74
24.81
1.63
-21.89
-38.33
-43.66
-38.34
-26.03
-11.7
0.97
10.01
14.9
15.71
12.76
7.4
1.99
-0.45
2.4
10.94
22.91
34.42
41.4
41.28
33.77
20.96
5.82
-8.75
-21.09
-31.07
-39.84
-48.81
-58.46
-67.89
-74.46
-74.98
-66.81
-49.33
-24.43
4.15
32.91
59.28
82.41
102.27
118.26
129.13
132.99
128.82
117.04
99.74
80.33
62.98
51.13
46.89
50.22
58.27
66.24
69.17
64.23
52.72
39.76
31.53
31.48
37.62
43.54
41.82
28.52
5.62
-20.12
-41.42
-54.25
-59.93
-62.81
-66.89
-73.44
-80.5
-85.41
-87.27
-88.3
-91.68
-98.7
-107.11
-111.48
-106.01
-88.19
-60.13
-27.7
2.15
24.21
36.61
39.95
36.93
30.69
24.36
20.76
21.27
25.53
31.61
36.29
36.65
31.98
23.95
16.52
13.51
16.25
23.12
29.85
32.42
28.62
19.44
8.43
-0.21
-3.58
-1.75
2.84
6.5
6.35
1.29
-7.97
-19.74
-32.71
-45.82
-58.75
-70.91
-82.05
-92.22
-101.28
-108.59
-112.59
-110.15
-97.92
-73.72
-38.34
2.79
41.54
69.73
82.4
80.03
67.48
52.02
39.88
34.46
35.99
42.78
52.44
62.48
71.08
76.09
75.86
69.53
57.87
43.3
29.0
17.5
9.23
3.32
-1.49
-5.53
-8.07
-8.65
-8.56
-10.86
-18.91
-33.98
-53.87
-74.4
-91.21
-102.83
-111.21
-119.6
-129.83
-140.15
-145.83
-141.43
-124.62
-97.59
-66.51
-39.1
-20.61
-12.72
-13.26
-17.95
-22.42
-23.42
-19.57
-10.92
1.34
15.67
30.17
43.17
53.72
61.89
68.87
76.06
84.23
92.81
100.04
103.87
103.6
100.13
95.64
92.32
90.98
91.08
90.8
88.06
81.49
70.76
57.22
43.14
31.58
24.77
23.45
26.69
32.26
38.04
42.64
45.8
47.61
48.61
48.87
48.6
48.21
48.26
49.4
51.79
55.18
58.84
62.19
64.38
64.45
60.67
51.23
35.28
13.83
-9.64
-30.5
-44.52
-49.75
-47.24
-39.96
-31.36
-23.76
-18.32
-15.32
-15.16
-18.38
-25.72
-37.0
-50.76
-64.71
-76.1
-83.29
-86.01
-85.37
-83.12
-80.58
-78.1
-75.26
-71.89
-68.04
-64.61
-62.13
-60.3
-57.55
-51.89
-42.12
-29.09
-15.66
-4.75
2.57
7.88
14.37
24.48
38.06
52.08
62.6
67.09
66.04
62.01
57.85
54.88
52.76
50.49
47.67
44.85
42.85
41.69
40.19
37.05
31.91
25.81
20.72
18.25
18.86
21.77
25.39
27.65
26.52
20.37
8.29
-9.11
-29.7
-50.64
-69.54
-85.42
-98.83
-110.75
-121.82
-131.7
-139.5
-144.28
-145.38
-141.97
-132.86
-116.91
-93.88
-65.86
-36.87
-11.81
5.62
14.46
16.49
14.97
12.95
12.15
13.01
15.14
17.98
21.74
27.12
35.4
47.41
63.03
80.48
96.24
106.57
109.02
104.19
95.66
88.13
85.09
86.96
91.06
93.56
91.96
85.73
75.91
63.45
48.27
30.2
9.87
-10.45
-28.22
-42.37
-54.76
-69.14
-88.57
-112.33
-135.13
-149.55
-149.68
-134.11
-106.08
-71.73
-36.77
-5.12
20.71
39.12
48.3
47.36
37.44
22.24
7.19
-2.53
-4.06
1.85
11.78
20.85
25.21
23.38
16.76
9.68
7.69
15.14
32.74
56.75
79.79
93.67
93.29
78.83
55.93
32.94
16.75
10.09
11.11
15.09
17.6
16.36
11.4
3.89
-5.35
-16.44
-29.95
-45.37
-60.44
-71.35
-74.11
-66.34
-48.69
-24.88
-0.28
20.27
33.97
40.87
43.67
46.11
50.75
57.8
64.97
68.63
66.13
57.42
45.41
34.57
28.84
29.58
35.0
41.21
44.38
42.69
37.22
30.78
26.28
24.99
25.76
26.16
23.64
16.93
6.05
-7.83
-23.35
-39.24
-54.36
-67.65
-78.32
-86.14
-91.47
-94.79
-95.86
-93.23
-84.41
-67.4
-42.2
-11.42
20.36
48.46
69.86
83.85
91.27
93.41
91.33
85.93
78.67
71.56
66.37
63.55
61.58
57.74
49.48
36.22
19.84
4.08
-7.25
-12.25
-11.84
-9.13
-7.87
-10.52
-16.93
-24.77
-30.69
-32.2
-29.16
-23.55
-18.49
-16.52
-18.37
-22.98
-28.62
-34.03
-39.14
-44.38
-49.7
-53.88
-54.77
-50.28
-39.78
-24.67
-8.02
6.58
16.4
20.43
19.5
15.49
10.71
6.73
4.08
2.14
-0.26
-4.25
-9.94
-16.23
-21.35
-23.56
-22.36
-18.27
-12.34
-5.48
1.87
9.2
15.4
18.83
17.92
12.15
2.77
-7.76
-17.11
-24.26
-29.87
-35.88
-44.34
-56.31
-71.34
-87.31
-100.85
-108.15
-106.24
-93.79
-72.11
-44.8
-16.32
9.38
30.05
45.18
55.16
60.41
61.05
57.2
49.73
40.33
30.96
23.19
17.62
14.26
12.82
12.75
13.53
14.46
14.53
12.71
8.27
1.08
-8.13
-17.73
-25.85
-30.58
-31.16
-28.25
-24.82
-24.87
-32.23
-48.39
-70.95
-94.36
-111.93
-119.16
-115.77
-105.52
-93.9
-84.71
-78.01
-70.54
-58.27
-39.35
-15.85
7.48
25.87
37.03
42.31
45.41
49.77
56.69
64.61
70.5
72.26
70.1
66.56
64.57
65.55
68.34
69.84
67.33
59.56
47.59
34.29
22.32
13.1
6.45
1.24
-3.57
-8.73
-14.19
-20.01
-26.25
-33.07
-40.1
-46.2
-49.64
-48.69
-42.33
-30.85
-15.64
0.79
15.7
26.89
33.51
36.48
37.77
39.57
42.28
44.16
41.66
31.26
11.77
-14.29
-41.12
-61.72
-70.72
-67.46
-56.13
-44.02
-38.19
-42.3
-55.07
-71.87
-87.16
-97.59
-103.48
-107.62
-112.66
-118.84
-123.43
-122.74
-114.91
-101.98
-89.67
-83.92
-87.92
-99.33
-110.92
-113.54
-99.97
-68.15
-21.9
30.62
80.07
119.36
145.73
160.01
164.61
160.7
147.78
125.31
95.0
62.41
34.92
18.76
15.59
22.53
34.33
46.49
57.37
67.29
76.54
83.16
83.77
76.42
63.05
49.71
43.29
47.03
58.0
68.3
69.62
57.86
35.1
7.86
-16.49
-33.3
-41.99
-44.62
-42.93
-36.97
-25.67
-9.28
8.91
23.2
28.21
22.8
10.72
-0.95
-6.21
-3.81
2.24
5.19
0.37
-12.43
-28.84
-42.87
-50.07
-49.59
-42.84
-31.26
-14.78
7.44
34.95
64.5
90.61
108.14
114.66
111.87
103.84
94.63
86.35
79.0
71.61
63.48
54.76
45.67
36.01
24.69
10.2
-7.9
-28.51
-48.63
-64.61
-73.3
-73.37
-65.59
-52.41
-36.89
-21.14
-5.71
10.26
27.74
46.18
63.03
74.88
79.44
76.57
68.7
59.05
50.1
42.45
35.25
27.29
18.17
8.5
-0.85
-9.75
-19.01
-29.25
-40.23
-49.97
-55.64
-55.03
-47.91
-36.58
-24.71
-15.88
-11.68
-11.12
-11.38
-9.56
-4.5
2.63
8.78
11.32
9.95
7.07
6.64
11.75
22.36
35.55
47.41
55.73
61.07
65.9
72.07
78.81
82.76
79.74
67.45
47.27
23.72
2.27
-12.97
-20.63
-21.94
-19.51
-16.32
-14.79
-16.42
-21.15
-27.44
-32.9
-35.43
-34.11
-30.02
-25.5
-22.88
-23.18
-25.93
-29.3
-31.39
-30.99
-28.51
-25.5
-24.06
-25.85
-30.88
-37.72
-43.68
-46.25
-44.43
-39.12
-32.48
-26.53
-21.75
-17.26
-11.61
-4.17
4.01
10.9
14.78
15.38
13.98
12.48
11.94
11.98
11.22
8.27
2.54
-5.15
-13.06
-19.43
-23.06
-23.69
-22.4
-21.0
-21.6
-26.1
-35.31
-48.81
-64.9
-81.47
-96.36
-107.79
-113.98
-113.12
-103.73
-85.59
-60.78
-33.76
-10.51
4.12
8.78
5.97
0.76
-2.14
-0.7
3.66
7.73
8.87
6.69
3.02
0.8
2.11
7.18
14.92
23.5
31.49
38.15
43.04
45.99
47.11
47.39
48.15
50.76
55.41
61.02
65.37
65.79
60.46
49.2
34.3
19.69
9.53
6.3
9.19
14.02
14.56
5.08
-17.24
-50.33
-87.8
-120.64
-141.04
-144.88
-133.21
-111.35
-86.04
-62.93
-44.57
-30.49
-18.67
-7.76
2.17
10.17
15.15
17.34
18.07
19.08
21.44
24.79
27.67
28.0
24.18
15.74
3.62
-9.75
-20.87
-25.88
-21.74
-7.93
12.03
31.06
40.36
33.52
9.95
-23.7
-55.84
-74.67
-73.62
-54.63
-26.45
-0.5
15.0
17.88
11.64
2.55
-4.99
-10.0
-14.83
-22.21
-32.91
-44.52
-52.36
-51.93
-41.4
-22.65
-0.34
20.48
37.02
49.7
60.88
72.49
83.49
90.16
88.18
75.84
55.95
35.07
20.16
15.54
21.26
33.68
48.34
61.91
72.88
80.62
84.06
81.67
71.92
55.0
33.29
11.06
-7.55
-20.27
-27.13
-30.06
-31.71
-34.39
-39.28
-46.58
-55.48
-64.51
-72.4
-78.3
-82.18
-84.07
-83.15
-77.56
-65.18
-45.2
-19.8
6.01
26.45
37.58
39.24
35.23
30.71
28.89
30.02
31.98
32.37
30.11
25.59
20.02
14.33
9.0
4.71
2.96
6.36
17.24
35.89
59.52
82.57
98.81
103.83
96.92
81.39
63.06
47.93
39.63
38.28
40.76
42.98
42.35
38.9
34.24
29.5
23.89
15.5
3.28
-10.85
-21.93
-24.28
-14.72
4.95
28.49
48.02
58.16
58.0
50.35
39.59
28.83
18.74
8.66
-2.05
-13.03
-22.78
-29.45
-32.1
-31.1
-28.33
-26.35
-27.28
-31.97
-39.72
-48.49
-55.9
-60.56
-62.39
-62.39
-61.89
-61.46
-60.54
-57.96
-52.49
-43.65
-31.79
-17.63
-2.09
14.08
29.92
44.34
56.6
66.51
74.67
82.02
89.16
95.68
100.35
101.73
98.9
92.16
82.74
72.1
61.49
51.64
42.85
35.31
28.98
23.54
18.19
12.28
5.68
-1.04
-7.03
-12.23
-17.58
-24.9
-35.66
-49.99
-66.39
-82.44
-96.32
-107.44
-116.0
-122.02
-123.98
-119.12
-104.85
-80.74
-49.55
-16.97
10.26
27.43
33.18
29.91
22.22
14.58
9.36
5.83
0.75
-9.56
-26.84
-49.47
-72.28
-89.03
-95.8
-93.53
-87.83
-86.34
-94.83
-114.54
-142.06
-171.7
-198.85
-221.94
-242.07
-260.88
-278.1
-290.76
-294.22
-284.43
-259.86
-221.99
-174.54
-121.72
-66.63
-10.19
48.27
109.9
174.6
239.71
300.16
350.12
385.62
406.31
415.61
418.69
419.47
418.37
412.19
396.09
366.51
323.11
268.96
209.18
148.33
88.97
31.51
-24.14
-76.93
-123.99
-161.06
-184.26
-192.71
-189.58
-181.6
-176.5
-179.58
-191.27
-206.68
-218.27
-219.02
-205.58
-178.97
-143.56
-104.73
-66.78
-32.14
-1.54
24.62
45.45
58.81
62.04
54.05
36.76
15.92
-0.07
-3.69
8.0
31.81
59.94
84.54
101.6
112.08
119.88
127.54
133.8
133.69
122.4
98.94
67.25
34.93
9.45
-4.45
-5.86
3.37
20.16
41.15
62.85
81.93
95.83
103.31
105.0
102.6
98.14
92.67
86.09
77.04
63.91
45.45
21.1
-8.35
-40.94
-73.73
-103.93
-129.45
-149.34
-162.94
-168.74
-164.23
-146.86
-116.13
-75.16
-30.81
8.34
35.53
48.34
48.75
41.81
32.58
24.09
16.92
10.02
1.87
-9.07
-24.4
-45.48
-72.85
-104.46
-135.46
-158.88
-168.31
-160.57
-137.13
-102.68
-62.69
-21.72
17.7
53.69
84.34
107.9
124.19
135.7
146.95
162.34
183.14
206.09
224.29
230.21
218.52
188.07
141.65
84.79
24.38
-32.43
-79.12
-110.42
-123.17
-116.47
-91.98
-53.41
-6.49
41.88
84.68
116.85
136.42
144.99
146.32
143.98
139.73
133.35
124.05
112.22
99.93
89.49
81.49
73.71
61.47
39.68
5.63
-39.35
-89.91
-138.46
-177.73
-203.22
-214.2
-213.25
-204.97
-193.75
-183.01
-174.71
-169.96
-169.28
-172.25
-176.69
-178.55
-172.42
-154.11
-123.09
-83.65
-43.36
-10.06
11.07
18.9
15.75
5.45
-8.34
-22.64
-34.27
-39.27
-32.92
-11.28
26.57
76.89
131.22
178.79
210.2
221.29
214.61
198.0
181.14
171.17
169.68
172.61
172.81
163.97
143.16
111.56
73.01
32.09
-7.23
-41.94
-69.77
-89.15
-99.63
-102.41
-100.01
-95.21
-89.68
-83.05
-73.9
-61.37
-46.13
-30.52
-17.68
-9.71
-7.42
-10.58
-18.78
-31.88
-50.05
-72.9
-99.15
-126.3
-151.04
-169.92
-179.85
-178.91
-167.57
-148.77
-127.51
-109.14
-97.0
-90.51
-86.18
-79.87
-69.88
-58.42
-50.21
-49.74
-58.44
-73.79
-90.79
-104.59
-112.49
-114.6
-112.83
-109.1
-104.52
-99.27
-92.92
-85.02
-75.72
-65.91
-57.3
-51.86
-51.15
-55.5
-63.53
-72.07
-77.55
-77.19
-69.5
-55.0
-35.45
-13.04
9.93
31.47
50.01
64.25
73.85
79.65
83.84
89.27
98.69
113.13
131.74
151.58
168.47
179.17
182.49
179.94
174.95
171.07
170.5
173.2
177.19
180.1
180.32
177.46
171.83
164.14
154.67
143.2
129.66
114.25
97.4
79.48
60.53
40.08
17.22
-8.97
-38.73
-71.01
-102.93
-130.02
-147.32
-151.59
-142.49
-123.56
-100.85
-80.12
-64.45
-53.37
-44.16
-35.04
-26.84
-22.69
-25.95
-37.26
-52.97
-66.96
-73.77
-71.49
-62.52
-51.84
-43.67
-39.57
-38.5
-38.68
-39.33
-40.67
-43.09
-45.95
-47.3
-45.3
-39.77
-33.13
-29.61
-33.2
-44.98
-62.53
-80.67
-93.42
-96.45
-88.57
-71.31
-48.51
-24.44
-2.49
15.43
28.87
38.0
42.59
41.81
35.14
23.22
8.77
-4.25
-12.6
-15.3
-13.99
-11.9
-11.77
-13.73
-15.98
-16.23
-13.82
-10.57
-9.42
-12.19
-17.98
-23.2
-23.84
-18.68
-9.91
-2.07
0.36
-4.05
-13.4
-23.81
-31.79
-35.64
-35.6
-32.93
-28.42
-21.88
-12.69
-0.3
15.14
32.52
49.78
64.09
72.68
74.13
69.16
60.88
53.36
49.34
48.98
49.77
48.24
42.69
34.05
25.86
21.85
23.56
29.19
34.63
35.41
28.63
14.86
-2.76
-20.14
-33.78
-42.18
-46.08
-47.24
-47.15
-46.55
-45.58
-44.77
-45.8
-50.22
-57.59
-64.56
-65.35
-54.84
-32.18
-1.56
29.22
52.99
66.76
72.56
75.36
78.92
84.03
88.31
89.2
86.17
81.79
79.98
82.95
89.61
95.94
97.33
91.39
79.62
66.59
57.88
57.18
64.66
76.89
88.46
93.71
89.23
75.12
54.59
33.2
16.37
6.76
3.12
0.37
-8.11
-28.06
-61.64
-106.68
-157.79
-207.48
-248.59
-275.12
-283.57
-273.66
-248.76
-215.47
-182.29
-156.76
-143.49
-142.88
-151.14
-162.38
-170.06
-168.5
-153.94
-124.9
-82.47
-30.38
25.96
81.09
130.48
171.23
201.51
219.72
223.92
212.54
185.52
144.53
92.71
33.34
-31.15
-98.65
-166.43
-230.12
-283.77
-321.43
-339.19
-336.64
-317.23
-286.87
-252.17
-218.48
-188.68
-163.31
-141.04
-119.3
-94.78
-64.61
-27.16
17.11
64.91
109.91
143.71
157.94
148.05
117.35
75.85
37.28
14.23
13.44
33.69
67.08
103.27
134.53
161.12
187.69
219.82
261.1
312.29
371.8
435.88
498.94
553.95
596.55
620.71
619.7
589.27
531.86
457.55
381.1
317.04
274.53
259.45
267.66
287.07
303.32
306.37
293.69
268.47
236.5
173.09
70.64
-59.55
-193.42
-310.41
-400.82
-462.42
-496.18
-504.51
-494.22
-468.06
-431.13
-390.77
-353.55
-321.38
-290.76
-259.9
-226.94
-192.83
-157.45
-123.85
-97.09
-81.77
-79.46
-88.44
-105.01
-124.63
-143.21
-154.93
-155.8
-144.66
-122.68
-92.07
-55.54
-15.75
25.17
65.07
102.75
135.76
160.23
172.06
169.33
153.33
128.49
100.9
75.51
55.19
40.19
29.13
20.62
14.5
11.7
13.14
18.63
26.27
32.75
34.04
27.0
10.4
-13.91
-40.92
-64.12
-78.08
-80.77
-74.12
-63.21
-53.6
-49.18
-50.95
-57.53
-66.27
-74.12
-78.46
-76.94
-67.46
-48.38
-18.96
19.53
63.32
106.25
141.41
162.76
167.47
156.71
135.22
109.37
85.12
66.26
54.12
48.72
49.15
54.45
63.4
73.97
83.31
88.4
87.24
79.63
67.16
52.5
38.44
26.63
17.34
9.88
3.16
-4.0
-12.57
-23.13
-36.05
-51.0
-66.67
-81.08
-92.07
-98.69
-101.92
-104.16
-107.94
-113.96
-120.04
-122.56
-118.28
-106.3
-89.01
-70.62
-54.47
-41.54
-29.86
-15.95
2.74
26.32
51.96
74.98
90.61
95.99
91.26
79.56
65.62
53.34
44.14
37.38
31.67
27.3
26.97
34.3
51.52
77.04
105.21
129.06
143.4
147.27
143.62
136.32
127.34
115.96
99.89
77.75
50.89
23.0
-1.86
-20.84
-33.5
-41.53
-47.68
-54.74
-64.61
-77.91
-94.11
-111.62
-128.66
-143.38
-154.29
-159.79
-158.27
-148.53
-130.38
-105.75
-78.34
-52.52
-31.36
-15.52
-3.32
7.73
19.11
30.48
39.96
46.03
48.7
49.75
51.12
54.23
58.96
64.03
67.79
68.85
66.75
61.86
55.63
50.22
47.56
48.33
50.78
51.36
46.13
33.32
14.93
-3.82
-16.52
-19.2
-12.35
-0.62
9.57
13.18
8.62
-2.64
-17.65
-33.87
-50.33
-67.34
-85.33
-103.22
-118.59
-127.99
-128.5
-118.91
-99.9
-73.78
-43.3
-10.73
21.53
50.64
73.25
85.84
86.57
76.63
60.36
43.58
31.16
25.28
25.36
29.04
34.34
40.26
46.23
50.97
52.39
48.63
39.51
27.74
18.09
15.03
19.62
29.19
38.6
43.36
41.59
34.26
23.84
12.27
0.25
-11.94
-23.33
-32.14
-36.23
-35.26
-31.44
-29.13
-32.63
-43.73
-60.71
-78.99
-93.31
-100.19
-98.85
-90.85
-78.83
-64.96
-50.0
-33.47
-14.5
6.92
29.5
50.68
67.7
78.69
83.13
81.86
76.44
68.94
61.76
57.52
58.33
64.47
73.64
81.25
82.79
76.02
62.8
48.08
37.1
32.56
33.31
35.4
34.58
28.81
19.0
7.73
-2.95
-12.44
-21.67
-31.74
-42.73
-53.46
-61.94
-66.68
-67.45
-65.1
-61.54
-58.94
-59.03
-62.48
-68.66
-75.68
-81.22
-83.59
-82.73
-79.67
-75.84
-71.65
-65.49
-54.92
-38.49
-17.21
5.23
24.17
36.25
40.93
40.3
37.48
34.99
34.05
34.96
37.69
42.49
49.07
56.08
61.38
62.55
58.77
51.04
42.01
34.64
30.54
29.57
30.46
31.9
33.35
34.81
36.31
37.15
36.02
31.9
24.75
15.69
6.74
-0.21
-4.52
-7.08
-10.24
-16.86
-28.96
-46.84
-68.83
-91.43
-111.0
-124.45
-130.26
-128.66
-121.23
-109.78
-95.83
-80.2
-63.16
-44.73
-25.33
-6.31
10.08
21.02
24.79
21.53
14.2
7.25
4.65
8.03
15.98
25.46
33.52
39.05
42.49
44.85
46.34
45.96
43.0
37.96
32.96
30.86
32.93
37.59
41.6
41.95
37.42
29.62
21.44
15.41
12.45
11.81
12.05
11.68
9.46
4.25
-4.42
-15.85
-26.55
-30.67
-21.64
5.01
48.6
103.05
158.31
204.29
233.89
244.5
237.19
214.98
181.19
138.34
88.84
35.8
-16.32
-62.74
-99.22
-123.44
-135.99
-139.61
-138.49
-136.75
-136.96
-139.42
-141.95
-140.89
-133.11
-117.94
-97.71
-77.34
-61.68
-53.28
-51.2
-51.72
-50.93
-46.73
-40.11
-33.87
-30.36
-30.11
-31.84
-33.61
-34.07
-33.05
-31.13
-29.12
-27.63
-27.09
-28.07
-31.27
-37.11
-44.95
-53.02
-59.07
-61.25
-59.11
-53.66
-45.96
-36.23
-23.77
-8.06
9.35
24.76
33.43
32.17
21.41
5.77
-8.01
-14.26
-11.24
-1.26
11.12
22.0
29.5
33.25
33.15
28.85
20.66
10.06
0.49
-4.16
-1.57
8.02
21.51
34.63
43.45
45.47
40.08
28.29
12.37
-4.15
-17.18
-23.58
-22.96
-18.36
-14.71
-16.2
-24.01
-35.8
-47.62
-56.58
-62.01
-64.92
-66.23
-65.27
-60.48
-50.9
-37.78
-23.98
-11.78
-1.5
8.77
20.83
34.35
45.91
51.29
48.11
37.74
24.41
12.64
4.96
1.43
0.82
2.5
7.13
15.59
27.32
39.67
48.78
51.71
47.58
38.3
26.94
16.88
10.19
7.06
6.36
5.96
4.31
0.95
-2.9
-5.06
-4.27
-1.68
-0.88
-5.65
-17.8
-34.99
-52.21
-64.13
-68.08
-65.04
-59.01
-53.93
-51.86
-52.53
-53.9
-53.54
-48.97
-38.19
-19.58
7.25
40.55
76.85
111.41
140.19
160.58
171.42
172.44
163.46
144.88
118.04
85.46
50.8
17.79
-10.43
-31.76
-45.26
-51.18
-50.79
-46.05
-39.23
-32.0
-25.29
-19.96
-17.34
-19.39
-27.97
-43.22
-62.4
-80.7
-93.17
-97.05
-92.97
-84.43
-75.92
-70.98
-71.41
-77.44
-88.19
-101.8
-115.21
-124.1
-123.63
-110.48
-84.18
-47.74
-6.67
33.03
67.19
94.29
115.08
130.98
142.64
149.89
151.86
148.05
139.16
127.29
115.1
105.35
100.44
101.4
107.89
117.72
127.16
132.26
130.43
121.44
107.02
89.96
72.76
57.29
44.92
36.71
32.91
32.16
31.19
26.0
13.86
-5.25
-28.69
-53.04
-75.75
-96.01
-113.75
-127.83
-136.02
-136.65
-130.87
-123.0
-118.7
-121.08
-128.51
-135.42
-135.65
-125.7
-106.2
-80.55
-52.38
-24.07
3.06
27.72
48.1
62.61
70.62
73.56
74.02
74.72
77.01
80.69
84.69
87.99
89.9
89.74
86.63
79.82
69.76
58.56
49.65
46.05
48.48
54.61
59.85
59.85
52.58
39.63
25.24
14.05
8.37
7.09
6.72
3.52
-4.24
-15.89
-29.05
-41.47
-52.38
-62.17
-71.74
-81.35
-89.93
-96.03
-98.54
-96.92
-91.5
-82.72
-70.87
-56.75
-41.82
-28.71
-20.28
-18.5
-22.95
-30.37
-36.62
-38.28
-35.07
-29.42
-24.78
-23.16
-23.98
-24.46
-21.33
-13.35
-1.43
12.17
25.93
39.49
53.14
66.21
76.3
79.99
75.15
62.28
44.65
27.04
13.29
5.21
2.05
1.73
2.17
2.46
2.91
4.37
6.87
9.22
8.64
2.83
-9.04
-24.86
-39.71
-47.99
-46.04
-34.4
-16.82
1.21
15.87
25.99
32.75
37.96
42.38
45.44
45.86
43.04
37.44
30.07
21.75
12.78
3.38
-5.18
-10.64
-10.55
-4.25
5.5
12.51
9.98
-6.15
-33.4
-63.16
-83.63
-85.37
-66.54
-33.97
0.31
25.03
34.95
32.36
24.42
18.3
16.95
18.05
16.67
8.67
-5.98
-23.27
-37.54
-44.8
-44.99
-42.03
-41.97
-49.79
-67.01
-91.14
-116.4
-135.53
-142.35
-133.53
-109.18
-73.64
-33.93
2.09
28.01
41.31
43.72
39.68
33.84
28.98
25.72
23.52
22.13
22.19
24.49
28.62
32.99
35.01
33.18
28.33
23.33
21.89
26.06
35.76
48.56
61.17
70.74
75.48
74.38
67.78
56.97
44.42
33.08
25.1
20.79
18.49
15.5
9.07
-2.07
-16.88
-33.12
-47.39
-56.73
-58.7
-52.48
-38.98
-20.92
-2.31
13.02
22.92
27.74
29.1
28.49
26.01
20.64
12.1
2.59
-3.19
-0.51
13.06
35.08
59.69
79.92
91.2
92.48
85.0
70.09
47.6
16.87
-21.24
-62.32
-98.74
-122.75
-129.43
-119.16
-96.9
-70.11
-45.51
-27.12
-15.74
-10.78
-11.64
-18.32
-30.83
-47.56
-65.09
-78.92
-85.53
-84.08
-76.94
-68.2
-61.04
-56.1
-50.97
-41.88
-25.49
-0.62
31.05
65.37
96.67
118.55
125.45
114.87
88.87
54.1
20.57
-2.22
-8.21
3.39
28.07
58.05
84.83
101.45
103.88
91.7
68.05
38.85
11.11
-9.46
-20.11
-21.27
-16.09
-8.64
-2.78
-1.87
-8.42
-23.22
-44.07
-65.72
-81.72
-87.27
-82.07
-70.84
-61.18
-59.19
-66.0
-77.39
-86.27
-86.7
-76.79
-59.04
-38.5
-20.3
-7.27
0.21
3.38
4.36
5.6
9.31
16.99
28.99
43.62
57.89
68.22
71.98
68.73
60.33
50.36
42.59
39.43
41.31
46.42
51.94
55.13
54.69
50.86
44.92
38.92
35.35
35.71
39.96
45.91
49.89
48.6
40.51
26.72
9.46
-9.69
-31.17
-56.45
-86.11
-118.18
-147.26
-167.37
-174.94
-170.43
-157.65
-140.43
-120.42
-96.31
-66.33
-30.59
7.28
41.17
65.64
78.15
80.9
79.18
79.09
84.65
96.39
111.37
124.29
130.29
126.57
113.71
95.23
76.02
59.92
48.61
41.14
35.61
30.83
26.49
23.09
20.39
16.25
7.92
-6.58
-26.76
-49.72
-71.55
-89.74
-103.67
-113.9
-121.37
-125.45
-124.35
-115.96
-99.39
-75.79
-48.64
-22.72
-2.32
9.61
13.14
11.4
9.29
11.06
17.81
25.89
29.0
22.09
5.43
-14.38
-27.25
-25.28
-6.86
21.99
51.12
71.14
77.49
71.12
56.18
37.05
16.26
-5.09
-26.01
-44.51
-57.64
-62.71
-58.48
-46.28
-29.84
-14.75
-6.89
-11.25
-30.14
-61.5
-98.93
-132.8
-153.39
-154.18
-134.57
-99.14
-55.93
-12.95
24.63
55.24
80.3
101.68
120.7
136.44
147.02
150.66
146.9
137.69
126.47
116.86
111.62
111.87
116.64
123.95
131.09
135.13
133.62
124.83
108.16
84.4
55.93
26.19
-0.49
-20.05
-30.24
-31.59
-27.27
-21.59
-17.86
-16.7
-17.05
-17.35
-17.52
-20.05
-28.38
-44.4
-66.41
-89.13
-105.89
-111.86
-105.89
-91.05
-72.66
-55.8
-43.55
-36.32
-32.6
-29.9
-26.21
-20.5
-13.13
-5.06
2.46
8.45
12.56
14.79
15.81
15.76
14.97
13.15
10.22
6.94
4.79
5.86
12.01
23.93
39.58
55.37
66.58
69.8
64.47
52.97
39.73
28.99
23.54
23.56
26.98
30.04
28.26
18.12
-1.55
-28.86
-59.08
-85.81
-103.86
-110.23
-105.02
-90.83
-71.07
-49.38
-28.16
-8.65
8.68
23.51
35.35
43.31
46.39
44.5
38.13
29.19
20.28
14.16
12.1
13.71
17.13
19.44
18.3
12.78
3.53
-7.43
-17.57
-24.67
-27.56
-26.52
-22.75
-17.71
-12.89
-9.75
-10.28
-16.19
-28.37
-45.89
-65.47
-82.24
-91.93
-92.45
-84.83
-72.83
-61.07
-52.31
-46.79
-42.18
-35.23
-23.36
-5.99
15.37
38.04
58.91
75.97
87.98
94.73
96.52
94.2
89.06
82.83
76.75
71.38
66.29
60.56
53.74
46.01
38.3
31.18
24.49
17.82
11.7
7.97
8.57
14.11
22.74
30.5
33.75
31.37
25.16
18.28
12.63
7.68
1.11
-8.94
-22.33
-36.48
-48.54
-56.81
-62.04
-66.04
-70.73
-76.59
-82.97
-88.86
-92.94
-94.44
-92.92
-88.41
-81.3
-71.61
-58.24
-39.4
-13.78
18.13
52.14
80.76
95.95
93.1
73.36
43.98
15.16
-4.12
-9.83
-3.99
7.18
16.26
18.15
11.88
0.82
-9.2
-12.8
-7.13
6.61
24.01
39.53
49.1
51.52
48.2
41.31
32.26
20.63
5.36
-13.19
-32.65
-48.77
-57.33
-56.65
-49.03
-40.19
-36.42
-41.79
-56.03
-74.54
-89.89
-94.87
-85.89
-64.16
-35.46
-7.34
14.13
26.94
32.96
35.55
36.84
36.43
32.07
21.21
4.26
-15.2
-31.33
-39.05
-36.03
-23.92
-6.75
11.92
29.98
47.34
64.25
79.24
88.69
88.14
75.03
50.89
22.11
-2.59
-15.47
-13.23
1.85
23.61
44.95
60.43
67.22
64.76
53.31
33.64
7.36
-22.0
-49.05
-67.86
-73.93
-66.42
-47.99
-23.79
0.89
22.61
40.01
53.29
62.38
66.3
64.08
55.84
43.56
30.26
19.03
11.25
7.25
6.68
9.68
16.06
24.03
29.76
27.61
13.27
-13.38
-46.61
-76.97
-95.68
-99.13
-90.81
-78.94
-71.62
-72.31
-79.02
-86.6
-90.63
-90.37
-88.29
-87.79
-90.5
-94.97
-97.61
-95.33
-87.25
-75.16
-62.49
-51.92
-44.47
-38.6
-31.48
-20.0
-2.42
20.38
45.13
66.96
81.42
86.88
84.97
80.02
76.87
78.54
84.73
92.52
97.47
95.81
85.59
67.38
44.14
20.32
0.74
-10.48
-11.12
-1.66
15.09
34.35
50.7
59.21
57.17
45.1
26.67
7.43
-7.78
-17.17
-22.4
-26.83
-32.97
-40.77
-47.91
-51.97
-52.77
-53.09
-56.48
-64.37
-74.52
-82.03
-82.61
-75.11
-62.36
-48.89
-37.46
-27.29
-15.11
2.19
24.44
47.83
66.46
75.23
72.41
60.0
42.84
26.3
14.88
10.72
13.59
21.13
29.44
34.93
35.52
31.69
26.12
22.37
22.94
28.04
35.8
43.31
48.48
50.56
49.82
46.7
41.0
31.82
18.21
0.41
-19.91
-39.14
-53.45
-60.53
-60.7
-57.02
-53.97
-54.83
-59.82
-65.94
-68.16
-62.11
-46.43
-23.18
3.44
28.93
49.65
63.54
69.04
65.51
53.74
36.47
18.64
5.4
0.24
3.32
11.87
21.53
28.23
29.99
26.8
20.32
12.63
5.29
-0.69
-5.5
-10.01
-15.41
-22.46
-30.77
-38.6
-43.96
-45.95
-45.44
-44.5
-45.17
-47.77
-50.69
-51.74
-49.61
-45.05
-40.3
-37.16
-35.83
-34.06
-28.6
-17.03
1.02
23.49
47.05
68.03
83.85
92.93
94.82
90.34
81.2
70.01
59.22
50.85
46.3
46.22
50.2
56.9
63.66
66.96
63.69
52.71
35.69
16.62
0.12
-10.89
-16.28
-18.63
-21.71
-27.67
-36.25
-44.93
-50.64
-51.73
-48.94
-45.07
-43.44
-46.91
-56.37
-70.81
-87.75
-104.02
-117.24
-125.78
-128.93
-126.61
-118.95
-106.4
-90.55
-73.66
-58.08
-45.09
-33.95
-22.16
-6.77
13.64
38.0
63.07
85.45
103.08
115.36
122.66
125.04
121.85
112.99
100.39
87.86
79.93
79.03
83.35
87.66
85.86
74.58
55.26
33.15
13.95
1.2
-5.32
-8.37
-10.79
-14.42
-19.91
-27.97
-40.15
-58.29
-82.72
-110.84
-137.25
-155.23
-159.36
-147.38
-120.93
-84.56
-44.97
-9.08
17.38
31.63
34.97
31.94
28.61
29.65
36.17
45.13
51.52
51.13
43.03
30.38
18.67
13.48
17.39
29.06
43.25
53.53
55.1
47.34
34.08
21.52
14.76
14.94
19.06
21.96
19.51
10.66
-2.9
-18.2
-33.04
-46.47
-58.24
-67.86
-74.44
-76.99
-75.49
-70.77
-63.95
-56.27
-48.2
-39.53
-29.45
-17.0
-1.62
16.61
36.28
54.91
69.78
79.27
83.04
82.36
78.92
73.92
67.29
58.08
45.57
30.37
14.7
1.28
-7.89
-12.43
-13.15
-11.42
-8.3
-4.23
0.48
5.27
8.64
8.92
5.15
-2.7
-13.49
-25.38
-36.5
-45.44
-51.53
-54.75
-56.23
-58.53
-64.84
-77.06
-94.31
-112.0
-123.65
-123.58
-109.83
-84.43
-52.13
-17.54
16.76
49.67
79.8
103.65
116.63
115.01
98.85
72.88
45.05
23.34
12.21
11.58
17.44
24.51
29.09
30.2
29.47
29.65
32.81
39.19
47.24
54.02
56.82
54.24
46.73
36.19
24.91
14.66
6.02
-1.25
-8.57
-17.49
-29.44
-44.73
-61.86
-77.9
-88.41
-89.72
-79.75
-59.41
-31.95
-1.91
26.04
48.27
62.5
67.2
62.01
48.11
28.81
9.3
-4.89
-10.16
-6.44
2.74
12.12
17.53
17.22
12.22
5.32
-1.1
-5.55
-7.41
-7.08
-4.9
-1.53
2.09
4.92
5.56
3.64
-0.38
-4.76
-7.89
-8.95
-8.49
-8.18
-10.26
-16.11
-26.09
-38.88
-51.91
-61.9
-66.08
-62.98
-52.64
-36.61
-16.82
4.71
26.41
46.57
63.21
74.59
79.99
80.23
77.55
74.32
72.02
70.41
67.63
62.03
53.0
42.03
31.52
23.75
19.31
16.62
12.86
5.57
-6.23
-21.03
-35.57
-45.67
-48.04
-41.58
-28.23
-12.82
-1.12
2.02
-5.51
-22.45
-44.77
-66.7
-82.64
-88.3
-81.32
-62.04
-33.41
-0.65
30.32
53.98
66.95
69.17
64.28
58.16
56.01
60.23
69.27
78.97
85.14
85.84
81.96
76.54
72.36
70.97
72.29
75.33
79.28
82.85
84.32
81.3
71.83
55.99
36.61
18.62
6.49
2.06
3.83
8.45
12.34
12.56
7.61
-2.98
-18.35
-36.33
-53.47
-66.11
-72.08
-72.25
-70.27
-70.52
-75.25
-83.17
-90.06
-91.27
-84.44
-70.23
-51.56
-31.59
-12.48
4.03
15.81
19.6
12.7
-4.55
-27.92
-50.22
-64.2
-66.58
-59.4
-48.01
-37.94
-31.82
-28.47
-25.55
-22.06
-19.28
-19.71
-24.29
-30.17
-31.77
-23.16
-1.68
29.95
64.1
90.79
100.97
89.49
57.39
11.57
-37.1
-77.29
-100.99
-105.05
-91.24
-64.36
-29.74
7.92
44.42
75.83
97.99
107.45
103.16
86.69
61.96
34.5
10.32
-5.46
-9.66
-2.12
13.57
30.32
40.09
37.44
22.48
0.65
-20.01
-33.2
-37.1
-34.58
-29.98
-26.63
-25.42
-25.48
-26.06
-27.0
-28.73
-31.35
-34.65
-38.76
-44.77
-54.21
-67.58
-83.11
-96.58
-103.69
-102.1
-93.15
-80.72
-68.94
-60.09
-53.49
-46.29
-35.17
-17.94
5.28
32.29
59.1
81.21
94.69
97.62
90.62
77.22
62.55
51.76
48.51
53.55
65.07
78.87
89.79
93.27
86.79
71.03
49.97
29.09
13.07
3.75
-0.89
-5.01
-12.95
-26.56
-44.51
-62.95
-77.88
-87.61
-93.03
-96.63
-100.71
-105.61
-110.05
-111.83
-109.84
-104.3
-96.59
-87.63
-77.62
-66.04
-52.79
-39.19
-27.53
-20.1
-17.19
-16.79
-15.27
-9.52
1.4
15.79
29.83
39.37
41.88
37.62
29.21
20.66
15.67
16.3
22.41
31.6
40.43
45.46
44.83
38.78
28.87
17.26
5.23
-7.0
-19.74
-33.06
-45.94
-56.04
-60.5
-56.79
-43.96
-23.0
3.57
32.7
61.75
88.77
111.82
129.31
139.2
139.88
131.06
114.23
93.28
72.75
56.74
47.13
43.64
44.34
46.96
49.3
49.37
45.31
36.04
22.31
6.97
-5.56
-11.53
-10.71
-7.11
-7.44
-17.65
-38.98
-67.3
-95.36
-116.7
-128.93
-133.62
-133.85
-131.29
-124.56
-111.39
-91.0
-66.38
-43.53
-27.82
-20.87
-18.86
-15.13
-3.75
16.28
40.43
61.21
72.12
71.09
60.94
47.44
35.84
28.54
24.63
21.69
17.76
12.96
9.13
8.67
13.0
21.43
31.5
39.69
43.21
41.05
34.4
26.16
19.26
14.99
11.87
6.32
-5.4
-24.32
-47.02
-66.89
-76.74
-72.87
-56.92
-34.61
-12.63
4.95
18.37
30.49
43.86
58.23
70.52
76.85
75.18
67.22
57.22
49.46
45.56
43.62
39.72
30.46
15.27
-2.96
-19.87
-31.64
-36.86
-36.73
-33.21
-27.26
-18.33
-5.22
12.39
31.95
48.35
55.95
51.36
35.64
14.03
-6.65
-21.17
-28.31
-31.01
-34.17
-41.05
-51.44
-61.64
-66.34
-61.76
-47.75
-28.18
-8.55
6.65
16.12
21.4
25.2
29.1
32.43
33.32
30.6
25.62
21.84
22.98
29.97
39.86
47.05
46.12
35.5
18.12
0.21
-12.24
-16.2
-12.7
-5.65
0.29
1.48
-3.24
-12.76
-24.14
-34.33
-40.9
-42.95
-41.89
-40.5
-41.55
-46.56
-55.05
-64.9
-73.43
-78.89
-80.33
-77.39
-69.22
-54.84
-33.76
-7.05
21.91
48.34
67.25
75.73
73.39
62.74
47.83
32.94
21.16
13.76
10.39
9.69
10.81
13.61
18.9
27.01
36.99
46.39
51.79
50.42
42.27
30.56
20.21
15.97
19.57
28.85
39.05
45.05
44.23
37.44
27.71
18.09
9.66
0.81
-11.2
-27.87
-47.36
-64.14
-71.66
-65.39
-46.02
-19.48
5.78
22.39
27.66
24.04
16.82
10.79
8.2
8.27
9.16
9.57
9.68
10.59
12.72
15.2
16.26
14.51
10.32
5.81
3.89
6.25
12.12
18.44
21.64
19.09
10.94
-0.25
-10.76
-17.01
-17.68
-13.65
-8.04
-4.71
-6.85
-16.11
-31.69
-50.79
-69.26
-82.88
-88.34
-84.24
-71.64
-53.67
-34.39
-17.54
-5.59
0.65
1.89
-0.37
-4.17
-7.69
-9.03
-6.87
-0.74
8.23
17.1
21.68
18.47
6.63
-10.77
-26.85
-34.12
-27.42
-6.99
21.75
50.65
72.12
82.45
82.23
75.02
65.12
55.58
47.68
41.32
35.95
30.58
23.35
11.78
-6.37
-31.54
-60.41
-86.61
-102.59
-103.01
-87.15
-59.17
-26.2
4.28
26.69
38.77
41.03
36.18
28.15
20.93
17.82
20.46
28.24
38.69
48.46
54.34
54.77
49.9
40.85
29.57
17.96
7.81
0.64
-2.56
-2.12
0.88
5.01
8.87
11.66
12.35
9.89
3.43
-6.82
-19.33
-31.66
-41.95
-50.06
-57.1
-64.34
-71.08
-74.44
-70.7
-58.19
-38.71
-16.98
1.84
15.48
24.83
32.74
41.09
48.9
53.27
51.26
41.97
27.29
11.38
-1.32
-7.49
-5.67
3.69
17.96
32.72
42.83
43.7
33.17
12.55
-13.3
-37.95
-55.47
-62.47
-58.81
-47.48
-32.86
-19.44
-10.41
-6.73
-7.59
-11.24
-16.27
-22.37
-30.04
-39.69
-50.35
-58.92
-60.68
-51.51
-30.38
-0.92
29.38
51.61
59.44
51.58
32.01
7.98
-13.15
-26.46
-30.51
-26.88
-18.83
-9.68
-1.32
5.9
12.85
20.02
26.97
31.57
31.3
24.64
12.41
-2.08
-14.62
-22.1
-24.33
-23.91
-24.62
-29.01
-37.5
-48.14
-58.21
-65.61
-69.26
-69.76
-68.16
-65.86
-63.58
-61.23
-57.79
-51.82
-42.63
-30.58
-17.33
-4.71
6.14
15.37
24.03
32.73
40.94
47.14
49.85
48.7
44.91
39.98
34.42
26.84
15.69
1.02
-14.23
-24.81
-26.61
-18.97
-6.37
4.38
7.69
2.81
-5.99
-11.94
-10.06
-0.23
13.18
23.41
25.42
18.11
4.25
-11.69
-25.87
-36.68
-44.5
-50.4
-54.68
-55.98
-51.88
-40.13
-20.62
4.09
29.43
50.27
63.48
68.24
65.9
58.22
45.79
28.18
5.02
-22.15
-49.62
-71.9
-84.57
-85.97
-78.16
-65.74
-53.29
-43.88
-38.65
-37.43
-39.34
-43.61
-48.51
-51.82
-51.85
-48.82
-45.53
-46.65
-55.73
-72.99
-94.67
-114.67
-127.29
-129.88
-122.83
-109.05
-92.15
-75.0
-59.75
-47.72
-39.15
-33.39
-29.01
-23.28
-13.37
2.99
26.94
58.1
94.65
133.14
168.77
196.26
211.93
214.51
206.06
190.61
172.1
153.32
135.62
119.55
105.65
94.41
86.06
80.06
75.15
69.43
61.69
51.51
39.41
27.05
16.63
10.61
10.89
17.68
28.27
37.65
39.98
31.8
13.97
-8.18
-27.03
-36.34
-33.74
-21.61
-4.85
10.78
21.17
24.29
20.25
10.83
-1.11
-11.41
-16.29
-13.55
-4.04
8.81
20.43
27.06
27.31
21.73
11.85
-0.98
-15.29
-28.18
-35.49
-32.86
-18.46
5.39
32.52
55.82
70.14
73.98
69.14
58.98
46.74
34.61
24.09
15.68
8.99
2.77
-4.48
-13.2
-22.42
-29.39
-31.53
-27.76
-19.05
-7.95
3.41
14.32
25.23
36.51
47.54
56.58
62.25
64.71
65.48
66.68
68.8
70.01
66.84
55.95
36.63
11.78
-12.97
-31.62
-40.52
-40.09
-33.69
-25.71
-19.55
-16.37
-15.81
-17.19
-20.74
-27.05
-36.51
-48.53
-60.87
-71.0
-76.66
-76.65
-70.9
-60.15
-45.88
-30.5
-16.93
-7.97
-4.8
-5.47
-5.56
-0.4
12.43
31.07
50.22
64.12
69.53
67.5
62.68
59.61
60.07
61.86
60.49
52.57
37.66
18.58
-0.36
-15.31
-24.27
-27.0
-24.47
-19.07
-13.61
-10.92
-12.45
-17.55
-24.05
-29.25
-31.5
-31.42
-31.61
-34.99
-42.82
-53.31
-62.1
-64.48
-57.92
-43.22
-23.78
-3.64
14.24
28.42
38.46
43.88
43.66
37.7
27.48
16.84
10.73
12.84
22.66
35.42
44.38
43.62
31.37
10.16
-14.29
-35.66
-49.3
-53.7
-50.9
-45.7
-43.58
-47.65
-56.85
-66.37
-70.24
-64.93
-51.02
-33.15
-17.01
-6.04
-0.1
3.79
8.51
14.66
20.16
22.34
19.87
13.88
7.74
5.6
11.02
25.31
47.18
71.81
91.99
100.4
92.84
70.75
41.14
13.52
-4.39
-9.89
-6.01
1.28
6.94
9.53
10.93
13.66
18.55
23.24
24.13
18.51
6.34
-10.11
-27.53
-43.14
-55.94
-66.17
-74.36
-80.65
-84.21
-83.92
-78.89
-69.57
-57.57
-45.42
-35.51
-29.28
-26.79
-26.35
-25.01
-20.41
-11.72
-0.15
11.65
21.58
28.92
34.37
39.22
43.95
47.84
49.44
47.83
43.72
39.55
38.09
40.49
45.94
52.15
57.32
61.65
66.82
74.04
82.28
88.46
88.78
80.85
64.94
43.38
19.41
-4.3
-25.98
-43.94
-56.53
-61.84
-58.99
-49.39
-37.17
-27.61
-25.57
-32.39
-45.8
-60.84
-72.46
-77.37
-74.92
-66.79
-54.71
-40.19
-23.92
-6.15
12.39
29.87
43.94
52.93
55.83
53.06
45.44
33.96
20.04
5.25
-8.45
-19.94
-28.95
-36.05
-41.48
-44.9
-45.15
-41.17
-33.01
-22.2
-11.42
-3.07
1.11
1.02
-2.76
-8.91
-15.73
-21.11
-22.54
-18.06
-7.78
6.1
20.24
30.77
35.13
32.79
24.87
13.66
2.08
-7.03
-10.83
-6.88
6.05
27.12
52.37
75.23
89.26
90.68
80.27
62.49
43.33
26.19
10.78
-5.79
-25.99
-48.45
-67.85
-77.66
-74.58
-61.17
-44.38
-31.2
-24.95
-24.51
-26.02
-27.07
-28.24
-31.67
-38.65
-47.25
-52.77
-50.42
-38.53
-19.76
-0.07
14.52
20.72
18.89
12.19
4.45
-1.97
-7.41
-14.43
-26.15
-44.17
-66.54
-88.17
-102.79
-105.65
-95.89
-76.29
-52.26
-28.72
-8.55
8.37
23.6
38.76
54.05
68.1
79.01
85.6
88.54
90.11
93.11
99.05
106.58
112.18
110.99
99.85
79.52
54.8
32.09
16.45
8.81
5.31
0.43
-9.73
-24.75
-39.88
-48.89
-48.09
-38.92
-27.19
-19.99
-21.6
-31.52
-45.56
-58.43
-66.42
-68.38
-64.24
-54.29
-38.27
-16.82
7.49
29.43
42.36
40.25
20.8
-13.18
-54.13
-91.23
-114.06
-116.62
-99.19
-68.17
-33.61
-4.65
14.25
23.54
26.8
27.57
26.74
22.44
12.6
-2.63
-20.41
-36.14
-46.27
-49.58
-47.16
-40.73
-31.54
-20.13
-6.7
7.76
22.0
34.5
44.08
49.68
50.41
45.49
34.7
19.34
2.24
-12.95
-23.03
-26.45
-24.32
-19.53
-15.43
-14.23
-15.75
-17.65
-16.07
-7.78
8.36
30.71
55.16
76.39
90.09
94.37
89.98
79.6
65.97
51.17
36.26
21.53
7.27
-5.86
-16.74
-23.98
-26.43
-24.11
-18.87
-14.03
-12.65
-16.3
-23.69
-31.37
-35.5
-33.53
-25.65
-14.32
-2.72
7.01
15.02
22.82
31.29
39.33
44.09
42.91
35.25
23.38
11.51
3.06
-1.89
-6.22
-14.23
-28.05
-45.37
-59.74
-63.91
-53.35
-28.71
4.04
36.54
61.11
73.1
71.69
59.21
39.57
17.54
-2.63
-17.72
-25.26
-23.83
-13.22
5.28
28.73
52.35
70.84
79.94
78.27
68.37
55.34
44.2
36.99
31.66
24.04
11.2
-6.0
-21.98
-29.22
-23.18
-4.82
19.28
40.05
50.32
48.14
36.28
20.42
5.77
-5.07
-11.37
-13.49
-12.28
-9.24
-6.85
-8.62
-17.45
-33.68
-54.38
-73.73
-85.36
-85.26
-73.55
-53.92
-32.07
-13.34
-0.73
5.19
6.0
3.45
-1.18
-7.44
-15.73
-26.3
-38.48
-50.3
-59.2
-63.15
-61.4
-54.53
-43.5
-28.11
-7.08
20.52
53.46
86.83
113.2
125.58
120.86
101.53
74.64
48.44
29.11
18.66
14.64
11.88
4.75
-10.77
-35.21
-65.88
-97.71
-125.48
-145.6
-156.69
-159.31
-154.82
-144.24
-128.01
-107.23
-84.42
-63.09
-46.37
-35.48
-28.8
-22.88
-14.25
-1.38
14.71
31.5
46.57
58.54
67.2
72.68
73.83
68.68
55.36
34.04
8.52
-14.3
-27.02
-24.86
-7.78
19.44
49.24
74.48
90.58
95.88
90.7
76.09
53.98
27.43
1.01
-20.5
-33.95
-39.49
-40.15
-40.27
-42.93
-49.07
-57.71
-67.34
-77.15
-86.89
-96.1
-103.02
-104.67
-97.68
-80.06
-52.85
-20.21
11.55
35.63
46.89
44.2
31.49
16.83
9.63
15.65
33.54
54.84
68.69
67.85
52.35
29.08
6.83
-8.19
-15.31
-17.63
-18.32
-17.67
-13.6
-3.59
12.2
29.86
43.81
49.49
45.38
33.92
19.7
8.14
3.43
6.93
16.37
26.17
29.14
20.06
-1.59
-31.13
-60.61
-82.67
-93.43
-93.38
-85.35
-72.01
-55.61
-37.78
-21.04
-8.38
-1.41
0.49
0.82
4.0
12.52
25.37
38.89
48.74
52.48
50.29
43.6
33.96
22.2
9.09
-3.43
-12.48
-15.63
-12.55
-6.01
-0.89
-1.27
-8.48
-20.34
-32.37
-40.01
-40.45
-33.86
-22.18
-8.84
2.58
9.38
10.05
4.89
-4.28
-14.41
-22.96
-28.65
-32.44
-36.55
-43.08
-51.66
-58.72
-58.72
-46.92
-22.74
9.24
40.89
63.99
74.17
72.25
63.43
53.59
46.95
44.08
42.99
41.07
36.77
30.62
24.28
19.5
16.93
15.84
14.64
12.43
9.88
9.61
15.55
30.3
53.02
78.97
100.67
110.89
106.02
87.52
60.65
32.5
8.65
-8.12
-18.21
-24.28
-29.71
-37.35
-48.23
-61.22
-73.12
-80.62
-81.95
-78.53
-74.32
-73.62
-77.94
-84.77
-88.73
-84.29
-68.83
-43.75
-13.63
15.61
38.98
53.63
58.56
54.73
44.37
31.35
20.51
16.2
19.98
29.55
39.75
45.24
43.77
37.23
30.0
25.61
24.79
25.36
24.09
19.32
11.64
3.08
-4.63
-11.52
-19.21
-29.66
-43.31
-59.07
-74.85
-89.02
-100.32
-107.69
-109.6
-104.94
-93.67
-77.83
-61.38
-48.16
-39.92
-35.3
-30.81
-22.83
-10.43
4.29
18.11
29.24
38.98
50.22
64.5
79.19
87.94
84.72
68.07
42.71
17.65
1.2
-2.67
4.89
20.03
38.59
57.48
73.32
81.13
75.72
54.83
22.15
-13.13
-40.62
-54.15
-54.83
-49.37
-45.66
-47.89
-54.95
-62.14
-65.02
-61.71
-53.18
-41.97
-30.17
-18.74
-7.64
2.52
10.34
14.02
12.31
5.59
-4.16
-13.91
-20.62
-22.1
-17.82
-7.93
7.45
27.71
51.32
74.38
91.7
98.48
93.38
79.86
64.58
53.74
49.48
49.64
49.73
46.93
41.99
39.09
42.97
55.76
75.26
95.45
108.9
109.15
93.59
64.12
26.88
-9.97
-38.65
-54.6
-57.96
-52.99
-46.61
-45.05
-51.78
-66.28
-84.72
-102.27
-114.64
-119.67
-117.52
-109.82
-98.25
-83.84
-67.07
-48.71
-30.59
-14.98
-2.46
9.48
26.03
51.45
85.6
122.65
152.46
165.27
156.62
128.62
88.89
46.64
9.12
-19.82
-39.49
-50.9
-55.41
-54.05
-47.85
-37.96
-25.43
-10.91
5.57
24.34
45.34
67.55
88.99
106.9
118.65
122.59
118.38
106.15
85.83
56.56
18.03
-27.73
-75.13
-115.18
-138.45
-138.7
-115.62
-75.41
-28.22
15.9
49.7
69.78
76.41
72.05
60.9
48.22
39.52
38.63
45.27
54.59
58.65
50.55
28.58
-1.96
-31.22
-49.97
-54.22
-47.15
-36.26
-28.34
-25.43
-23.98
-18.04
-4.19
15.3
32.37
37.11
23.07
-8.93
-50.3
-88.33
-111.8
-116.18
-105.41
-88.58
-74.82
-68.33
-66.9
-65.06
-58.53
-47.1
-34.0
-21.98
-10.8
2.89
22.66
48.5
75.31
95.12
101.23
91.51
69.41
41.49
14.86
-4.41
-12.77
-9.89
1.12
14.3
22.93
23.66
18.6
14.78
20.22
38.57
65.98
92.59
107.53
105.01
87.25
62.01
37.6
18.7
4.62
-8.17
-22.52
-37.76
-49.66
-52.67
-44.09
-26.19
-5.99
7.83
9.18
-2.64
-23.65
-47.39
-69.08
-87.39
-103.36
-117.2
-126.46
-126.12
-111.83
-83.9
-48.59
-16.06
4.43
9.46
2.41
-8.62
-14.67
-10.29
4.97
27.55
51.78
72.29
85.65
90.93
89.22
83.19
75.08
65.07
51.19
30.55
2.39
-30.09
-59.72
-77.62
-77.29
-57.65
-23.98
14.29
47.11
67.74
74.28
68.15
51.96
27.15
-6.23
-47.35
-92.4
-133.91
-162.76
-171.98
-159.85
-130.22
-90.54
-48.39
-8.97
25.53
54.05
75.35
87.26
87.36
74.9
51.95
23.35
-5.19
-29.11
-46.13
-55.18
-56.01
-48.3
-32.85
-12.92
5.59
15.92
13.69
-0.33
-19.46
-33.65
-34.25
-18.44
9.38
40.29
65.95
82.05
88.67
87.74
80.14
65.01
42.04
13.96
-11.99
-26.2
-21.39
2.85
38.54
72.18
90.75
87.4
64.19
30.49
-2.19
-24.75
-34.03
-32.12
-24.18
-15.18
-7.33
-0.05
8.49
19.49
32.32
44.24
51.47
50.76
41.06
24.23
4.7
-12.03
-21.4
-21.37
-12.49
3.0
22.68
45.11
69.25
93.76
115.03
127.07
122.96
98.27
54.59
0.57
-50.84
-87.08
-101.2
-93.34
-69.82
-39.21
-8.66
17.66
37.76
50.16
52.87
44.25
24.54
-2.8
-32.05
-57.44
-75.49
-85.68
-89.66
-89.53
-86.62
-81.52
-74.29
-65.29
-55.49
-45.66
-35.69
-24.34
-9.25
11.77
38.98
70.36
101.08
124.99
136.65
133.49
116.71
90.95
62.16
34.75
10.85
-9.04
-24.64
-34.4
-36.43
-30.08
-17.78
-4.78
2.69
0.91
-9.74
-25.29
-40.35
-51.54
-58.32
-62.54
-66.61
-71.93
-78.34
-85.16
-91.9
-98.48
-104.87
-109.8
-111.15
-106.68
-95.01
-76.64
-53.78
-29.4
-6.04
14.7
32.18
46.24
56.77
63.5
66.3
65.44
61.73
56.29
50.12
43.96
38.26
33.54
30.42
29.44
30.91
34.63
39.8
45.33
49.9
52.44
52.53
50.52
47.07
42.86
38.22
33.0
26.84
19.56
11.39
2.91
-5.25
-12.81
-20.01
-27.61
-36.38
-46.82
-58.82
-71.56
-83.54
-92.87
-97.45
-95.58
-86.43
-70.46
-49.61
-26.61
-4.45
14.5
28.84
38.08
42.35
41.99
37.63
30.42
21.9
13.68
7.07
2.5
-0.47
-2.8
-5.41
-8.63
-12.12
-15.05
-16.61
-16.41
-14.61
-12.04
-9.93
-9.43
-11.35
-15.82
-22.39
-30.28
-38.67
-46.79
-54.01
-59.51
-62.61
-63.22
-62.25
-61.6
-63.28
-68.23
-75.33
-81.49
-82.82
-76.27
-60.78
-37.53
-9.27
20.86
50.2
76.8
99.64
118.13
132.05
141.46
146.51
147.36
144.24
137.9
129.68
121.34
114.38
109.29
105.35
101.09
95.39
88.14
80.43
73.73
68.86
65.48
62.25
57.57
50.41
40.72
29.25
16.99
4.68
-7.38
-19.43
-31.74
-44.46
-57.41
-69.96
-81.52
-91.93
-101.55
-110.64
-118.7
-123.83
-123.21
-114.28
-96.26
-70.85
-41.61
-12.57
13.27
34.6
51.18
63.1
70.12
71.96
69.01
62.86
55.91
50.34
47.23
46.34
46.63
47.19
47.76
48.48
49.44
50.15
49.75
47.45
43.05
36.96
29.68
21.53
12.44
2.24
-8.83
-20.02
-30.28
-38.9
-45.94
-52.34
-59.45
-68.28
-79.15
-91.31
-103.38
-113.64
-120.46
-122.51
-118.99
-109.58
-94.81
-75.8
-54.34
-32.5
-12.33
4.5
17.06
25.2
29.43
30.53
29.24
26.03
21.2
15.12
8.4
1.83
-3.66
-7.47
-9.48
-10.05
-9.74
-8.97
-8.04
-7.11
-6.47
-6.55
-7.69
-9.84
-12.46
-14.64
-15.71
-15.56
-14.77
-14.28
-14.96
-17.34
-21.61
-27.89
-36.23
-46.48
-57.91
-68.95
-77.31
-80.6
-77.0
-65.82
-47.88
-25.22
-0.7
22.63
42.36
57.02
66.25
70.51
70.58
67.17
60.83
52.24
42.41
32.8
24.91
19.65
16.94
15.97
15.73
15.63
15.65
15.89
16.15
15.68
13.59
9.34
3.11
-4.28
-11.9
-19.08
-25.64
-31.61
-37.0
-41.73
-45.77
-49.47
-53.65
-59.44
-67.93
-79.63
-93.82
-108.35
-119.74
-123.95
-117.9
-100.85
-75.07
-45.28
-16.97
5.91
22.14
33.05
41.09
48.03
53.83
56.94
55.55
48.46
35.7
18.29
-2.13
-23.26
-41.55
-52.29
-50.76
-34.5
-5.31
30.81
65.78
92.95
109.55
117.28
120.59
124.02
129.92
137.58
144.54
147.91
145.47
135.97
118.93
94.88
65.98
35.95
8.95
-11.69
-24.7
-30.93
-32.25
-30.87
-29.46
-30.81
-37.9
-52.53
-73.39
-95.16
-109.51
-107.71
-84.47
-40.87
15.78
74.07
122.2
150.98
155.86
137.75
102.68
60.14
20.42
-8.47
-23.65
-27.37
-24.26
-18.23
-10.28
1.59
18.83
39.88
59.66
71.61
71.33
59.16
39.63
19.08
2.83
-6.42
-8.52
-4.44
3.76
12.92
18.27
14.31
-2.74
-32.75
-70.37
-106.86
-133.25
-143.46
-136.9
-117.52
-91.64
-64.63
-38.85
-14.19
10.1
33.81
54.2
67.65
71.11
64.06
48.98
30.41
12.91
-0.62
-9.05
-12.92
-13.0
-9.94
-4.45
1.75
5.94
5.11
-2.82
-16.69
-32.68
-45.22
-49.22
-42.45
-26.67
-6.72
11.3
22.41
24.65
18.79
7.68
-5.23
-17.6
-28.55
-38.93
-50.33
-63.94
-78.98
-92.35
-99.24
-94.57
-75.55
-42.66
0.72
49.74
98.67
142.21
175.27
193.64
194.66
178.05
146.68
105.98
62.63
23.35
-6.59
-23.89
-28.08
-21.01
-6.89
9.1
22.23
29.21
29.25
23.27
13.41
2.27
-7.64
-14.31
-16.62
-15.26
-13.03
-13.41
-18.85
-29.35
-42.0
-52.3
-56.93
-55.61
-51.29
-49.01
-53.37
-66.25
-85.57
-105.88
-121.01
-126.7
-122.27
-110.24
-94.43
-77.42
-59.68
-40.69
-20.9
-3.69
6.23
5.4
-4.94
-18.48
-27.38
-26.81
-17.9
-7.05
-1.86
-6.67
-20.5
-38.13
-52.78
-59.12
-54.74
-39.88
-17.0
9.59
34.48
51.48
55.79
46.31
26.32
2.45
-18.11
-31.13
-36.24
-36.21
-35.01
-35.76
-39.38
-45.33
-51.88
-56.99
-59.28
-57.91
-52.34
-41.91
-25.71
-2.91
26.22
59.58
93.17
121.56
139.85
145.44
138.68
122.89
102.29
80.19
58.5
38.23
20.48
6.55
-2.99
-8.77
-12.55
-15.77
-18.09
-16.47
-7.17
11.88
39.0
68.17
91.51
102.72
99.57
84.63
63.67
42.73
26.09
15.38
9.79
6.8
2.95
-4.54
-16.96
-33.18
-50.02
-63.7
-71.29
-71.57
-65.07
-53.24
-37.02
-17.27
4.76
26.79
45.51
58.08
63.23
62.22
57.47
51.51
45.92
41.06
36.82
33.38
30.86
29.36
28.28
26.82
24.84
22.75
21.13
20.02
18.15
13.26
3.41
-12.17
-32.56
-55.46
-78.42
-98.64
-113.04
-118.74
-114.14
-100.2
-81.12
-63.03
-51.76
-50.49
-58.28
-70.68
-81.99
-87.77
-85.71
-75.59
-58.44
-35.61
-9.03
18.44
43.13
62.06
73.93
79.81
81.87
81.56
78.29
69.82
54.51
33.31
10.27
-8.32
-16.96
-13.13
1.94
24.1
47.79
67.86
80.42
83.51
77.39
64.48
49.22
36.27
29.02
27.95
31.1
35.33
37.76
37.14
34.11
29.86
25.47
21.34
16.65
9.64
-1.73
-18.55
-40.15
-63.33
-83.1
-93.56
-90.73
-74.15
-48.25
-20.88
-0.09
9.49
8.44
1.93
-3.7
-4.17
0.66
7.6
12.97
15.08
14.97
14.44
13.9
11.63
4.86
-7.61
-23.36
-36.86
-42.17
-36.29
-21.18
-2.72
12.35
19.26
17.25
8.74
-2.94
-14.81
-25.22
-32.62
-35.35
-31.68
-21.28
-6.62
6.71
12.41
6.65
-9.37
-29.45
-45.19
-50.17
-43.22
-27.79
-9.67
6.32
18.59
28.44
38.11
48.86
60.4
71.15
79.75
85.24
87.23
85.71
80.88
73.73
65.97
59.51
55.53
53.68
52.14
48.57
41.41
30.82
18.6
7.03
-2.39
-9.56
-15.63
-22.11
-29.78
-38.16
-46.1
-52.15
-55.92
-58.6
-62.41
-69.43
-80.14
-92.77
-104.11
-110.95
-111.51
-106.1
-96.18
-83.32
-68.6
-52.49
-35.89
-20.42
-7.59
1.97
9.01
15.31
22.01
28.58
32.99
33.27
29.13
22.83
17.99
17.49
22.37
31.07
40.59
48.22
52.34
52.77
50.01
44.66
37.05
27.88
18.37
11.08
8.74
12.88
22.82
35.27
45.13
47.85
40.98
25.26
4.31
-17.13
-34.93
-46.54
-50.8
-47.6
-37.44
-21.36
-1.75
18.12
34.45
44.23
46.62
43.01
36.11
29.06
24.05
21.72
21.28
21.0
19.13
14.59
7.27
-1.62
-10.56
-18.47
-25.06
-30.66
-35.66
-39.11
-39.3
-33.85
-21.63
-4.05
14.58
28.34
32.23
24.56
7.97
-11.92
-29.22
-40.41
-45.76
-48.34
-51.52
-56.07
-59.93
-58.81
-49.47
-32.04
-10.34
9.53
22.85
28.53
29.39
30.3
35.43
45.96
60.01
74.29
86.2
94.99
101.24
105.75
108.11
106.8
99.64
85.7
65.85
43.15
22.22
7.57
2.02
5.34
14.65
25.03
31.64
32.07
26.53
17.45
6.98
-4.65
-19.47
-40.35
-68.16
-100.09
-130.27
-152.08
-161.0
-156.18
-140.46
-118.59
-95.02
-73.29
-55.18
-41.06
-30.27
-21.09
-11.91
-1.68
8.96
18.0
22.8
21.8
15.47
6.43
-1.11
-3.52
0.91
11.15
23.94
35.06
41.19
41.32
36.62
29.26
21.17
13.07
4.35
-5.64
-16.27
-24.96
-28.48
-24.79
-14.87
-3.22
4.0
1.67
-11.69
-32.57
-53.82
-68.43
-73.19
-69.78
-63.78
-60.38
-61.38
-63.76
-61.9
-51.36
-31.75
-7.15
16.42
34.04
43.88
46.92
45.02
39.3
30.25
18.78
7.09
-1.62
-5.08
-3.29
0.83
3.22
0.69
-7.25
-17.79
-26.45
-29.64
-26.66
-19.82
-13.32
-10.76
-13.25
-19.34
-26.04
-30.76
-32.52
-32.68
-33.44
-36.75
-42.74
-50.07
-56.63
-60.5
-60.54
-56.02
-46.57
-31.77
-11.83
11.85
36.44
58.02
72.76
78.35
75.66
68.75
63.33
64.33
73.77
90.15
109.12
125.49
134.42
133.02
120.61
98.99
72.09
45.59
25.22
14.55
13.78
19.43
26.68
31.39
32.26
30.27
26.84
22.07
14.22
1.29
-17.28
-39.44
-61.91
-81.63
-97.14
-108.43
-115.85
-119.46
-118.9
-114.49
-107.77
-100.76
-94.84
-89.82
-84.06
-75.52
-62.91
-46.7
-28.69
-11.07
4.82
18.71
31.19
42.99
54.34
64.66
73.1
78.55
80.28
78.58
74.85
71.21
69.51
71.1
76.12
83.51
91.32
96.77
97.36
91.8
80.66
66.68
53.52
44.06
38.87
36.14
33.02
27.67
20.06
11.28
2.1
-8.27
-21.42
-37.72
-54.42
-65.98
-66.6
-54.13
-31.57
-6.28
13.85
24.03
24.72
20.66
17.45
18.38
22.9
27.33
27.17
19.8
5.64
-11.87
-28.01
-38.83
-42.74
-40.5
-34.62
-27.94
-22.42
-18.71
-16.58
-15.51
-15.15
-14.99
-14.23
-12.17
-9.05
-6.44
-6.46
-10.5
-17.89
-26.09
-32.07
-34.72
-35.98
-39.9
-49.93
-66.36
-85.2
-100.13
-105.83
-100.4
-86.37
-68.69
-52.3
-39.76
-31.08
-24.29
-17.42
-9.64
-1.31
6.1
10.89
11.78
8.15
-0.05
-12.06
-26.6
-41.98
-56.01
-66.33
-70.14
-65.02
-49.95
-27.1
-1.72
18.58
26.74
19.26
-1.79
-29.07
-52.99
-65.38
-62.9
-47.65
-25.45
-2.7
16.19
29.65
38.43
43.56
45.0
41.45
31.62
15.5
-4.93
-25.56
-41.16
-47.09
-40.88
-23.01
3.27
32.73
59.9
81.29
96.41
107.11
116.48
126.44
136.88
145.16
147.8
141.88
127.04
105.96
83.43
65.16
55.63
56.51
65.6
77.67
86.58
88.05
81.91
71.47
61.18
53.24
45.89
34.77
17.12
-5.58
-27.96
-43.89
-50.53
-50.23
-48.77
-51.58
-60.91
-75.39
-91.99
-108.77
-124.91
-140.11
-152.6
-159.1
-156.38
-143.86
-124.92
-105.45
-91.26
-84.98
-85.23
-87.96
-88.87
-86.23
-81.48
-78.41
-81.19
-91.56
-107.05
-121.29
-125.81
-113.45
-81.85
-35.51
15.84
60.88
91.32
105.07
106.12
101.94
99.64
102.75
110.65
119.9
126.44
127.48
122.27
111.11
94.98
75.32
53.66
31.68
10.98
-7.41
-22.96
-35.55
-44.7
-49.24
-47.85
-39.63
-24.64
-4.46
18.1
39.65
57.59
70.32
77.43
79.18
76.04
68.73
58.2
46.09
34.71
26.67
23.79
26.15
31.77
37.41
39.66
35.83
24.91
7.81
-13.14
-34.46
-52.65
-65.29
-71.88
-74.03
-74.21
-74.3
-74.31
-72.46
-66.62
-55.95
-41.69
-26.89
-14.79
-7.1
-3.1
-0.05
5.53
16.65
34.18
56.1
77.92
94.27
101.5
99.34
91.56
84.3
82.73
88.41
98.54
108.23
113.19
112.47
108.44
104.28
101.25
98.18
92.95
84.75
75.45
68.21
65.1
65.83
68.38
71.12
74.27
79.96
89.97
103.69
117.14
124.81
122.16
107.68
82.52
49.3
10.82
-30.26
-70.11
-103.76
-126.55
-136.57
-136.22
-130.92
-126.52
-125.96
-128.01
-128.26
-122.78
-110.61
-94.7
-80.44
-72.38
-72.25
-78.21
-86.47
-93.39
-97.23
-98.46
-98.4
-97.5
-94.57
-87.37
-74.3
-55.76
-34.4
-14.56
0.04
7.59
8.78
5.88
1.13
-4.34
-10.51
-17.53
-24.41
-28.95
-28.66
-23.13
-14.97
-9.2
-10.9
-22.18
-40.52
-59.33
-70.88
-70.08
-57.22
-37.11
-15.79
2.82
18.53
33.36
48.94
64.55
76.95
83.08
81.93
75.24
66.16
56.96
47.91
37.65
24.77
9.06
-8.01
-23.82
-35.2
-39.35
-34.32
-20.09
0.44
21.28
35.15
37.0
26.94
10.55
-4.66
-13.44
-16.01
-17.09
-22.26
-34.01
-50.2
-66.21
-77.91
-83.45
-83.28
-77.87
-66.71
-48.57
-23.13
7.71
39.7
67.65
87.72
98.75
101.99
99.86
94.75
88.44
81.88
74.67
65.25
51.03
30.44
4.44
-22.68
-44.9
-57.35
-59.3
-54.51
-49.26
-48.8
-54.38
-63.55
-72.21
-77.58
-79.63
-80.59
-82.41
-85.17
-87.41
-87.19
-83.22
-75.46
-64.73
-52.11
-39.0
-27.12
-17.87
-11.76
-7.6
-3.18
3.48
12.34
20.89
25.92
25.96
23.04
21.72
26.53
38.57
54.82
68.87
74.4
68.39
52.51
31.88
12.46
-1.94
-11.08
-16.81
-20.51
-21.98
-19.21
-10.38
3.76
18.76
27.9
25.33
9.31
-16.36
-44.15
-66.36
-78.64
-80.56
-74.58
-63.63
-49.94
-35.19
-20.99
-9.28
-1.2
3.55
7.07
11.8
19.03
27.89
35.92
40.79
42.01
41.34
41.22
42.77
45.06
45.8
43.37
38.27
33.41
32.3
36.69
45.35
54.16
58.15
53.98
40.93
20.89
-2.63
-26.13
-46.99
-64.0
-76.73
-84.94
-88.61
-87.71
-82.59
-73.66
-61.31
-46.16
-28.49
-9.17
10.62
28.71
42.61
50.39
51.47
47.1
40.46
35.78
36.43
43.62
55.86
70.09
83.46
94.29
102.77
109.99
116.98
123.38
127.91
128.98
125.32
116.19
101.26
81.0
56.68
30.44
4.89
-17.73
-35.68
-48.45
-56.05
-59.59
-60.83
-62.74
-69.14
-82.96
-104.28
-128.98
-149.82
-158.71
-150.43
-125.33
-89.12
-50.19
-16.13
8.42
22.44
27.0
24.57
18.16
11.42
7.82
9.57
16.68
26.35
34.63
38.28
36.16
29.27
20.15
11.47
5.48
3.59
6.14
12.11
19.17
24.12
24.32
19.59
12.63
7.73
8.5
15.45
25.45
33.51
35.52
30.35
20.67
11.56
8.11
13.19
26.15
43.81
61.75
76.45
86.71
93.2
97.01
98.69
97.91
93.93
87.26
78.95
70.57
62.25
52.8
39.86
21.82
-0.83
-25.67
-49.21
-68.71
-82.98
-92.15
-96.95
-98.19
-96.56
-93.12
-89.69
-88.11
-89.63
-94.01
-99.59
-104.21
-106.17
-105.08
-101.83
-97.81
-93.93
-90.21
-85.66
-79.09
-69.85
-57.95
-44.23
-29.57
-15.02
-1.33
10.71
20.48
27.59
32.1
34.57
35.8
36.45
36.88
37.25
37.69
38.55
40.26
43.05
46.82
51.16
55.55
59.6
63.16
65.97
67.55
67.16
64.14
58.39
50.49
41.58
32.82
25.0
18.18
11.83
5.04
-3.13
-13.24
-25.16
-37.91
-49.74
-58.68
-63.19
-62.63
-57.47
-48.89
-38.17
-26.42
-14.51
-3.16
6.83
14.86
20.73
24.58
26.73
27.38
26.55
24.26
20.87
17.08
13.62
10.84
8.46
5.91
2.82
-0.54
-3.48
-5.32
-6.07
-6.57
-7.95
-11.09
-16.17
-22.76
-30.27
-38.12
-45.79
-52.8
-58.55
-62.76
-65.59
-67.6
-69.28
-70.51
-70.22
-66.62
-57.98
-43.42
-23.29
0.84
26.71
51.84
74.12
91.97
104.59
111.91
114.47
113.11
108.56
101.38
91.96
80.88
68.98
57.2
46.22
36.21
26.93
18.05
9.6
2.07
-3.84
-7.71
-9.68
-10.42
-10.95
-12.2
-14.79
-18.93
-24.28
-30.08
-35.37
-39.5
-42.57
-45.56
-49.98
-57.0
-66.68
-77.63
-87.36
-93.18
-93.16
-86.67
-74.43
-58.07
-39.72
-21.47
-5.1
8.18
17.8
23.72
26.22
25.62
22.16
16.16
8.24
-0.59
-9.32
-17.14
-23.7
-28.99
-33.03
-35.7
-36.8
-36.46
-35.32
-34.34
-34.36
-35.52
-37.32
-38.96
-40.08
-40.87
-41.91
-43.53
-45.59
-47.67
-49.54
-51.58
-54.62
-59.46
-66.2
-73.96
-80.98
-84.96
-83.51
-74.57
-56.93
-30.68
2.46
39.23
75.4
106.86
130.47
144.54
148.91
144.51
133.05
116.58
97.32
77.3
58.14
41.02
26.6
15.27
7.08
1.72
-1.61
-3.96
-6.31
-8.89
-11.13
-11.97
-10.77
-7.98
-5.46
-5.82
-10.83
-20.15
-30.96
-38.97
-40.44
-34.08
-21.85
-8.09
2.22
5.65
1.45
-8.55
-20.67
-30.72
-35.03
-30.64
-15.76
9.81
43.96
81.83
116.56
141.19
151.15
146.16
130.21
109.89
91.42
78.25
70.2
64.74
59.02
51.73
43.54
36.05
30.27
25.78
21.03
14.54
6.03
-3.3
-11.71
-17.79
-21.46
-23.88
-26.7
-31.07
-37.19
-44.18
-50.63
-55.24
-57.38
-57.21
-55.7
-54.33
-54.5
-57.2
-62.4
-68.87
-74.48
-76.98
-74.71
-67.05
-54.39
-37.97
-19.51
-0.95
15.78
29.08
38.01
42.44
42.91
40.18
34.86
27.27
17.78
7.1
-3.58
-12.8
-19.39
-22.76
-23.03
-20.66
-16.32
-10.71
-4.68
0.77
4.9
7.46
8.73
9.33
9.6
9.34
7.97
5.08
0.83
-4.01
-8.6
-12.66
-16.7
-21.68
-28.42
-37.0
-46.67
-56.27
-64.66
-71.07
-75.11
-76.61
-75.47
-71.58
-64.96
-55.73
-44.18
-30.78
-16.28
-1.77
11.3
21.45
27.58
29.43
27.76
24.01
19.82
16.38
14.26
13.39
13.44
14.23
15.96
19.21
24.48
31.79
40.34
48.57
54.75
57.59
56.75
52.82
46.86
39.82
32.12
23.8
14.92
5.89
-2.55
-9.9
-16.23
-22.27
-28.78
-35.61
-41.33
-43.35
-38.95
-26.39
-5.75
21.09
51.09
80.89
107.71
129.67
145.81
155.94
160.29
159.19
153.07
142.51
128.43
112.22
95.49
79.63
65.48
53.0
41.62
30.83
20.52
11.04
2.74
-4.65
-12.12
-21.01
-32.08
-44.95
-57.96
-69.05
-76.78
-80.93
-82.58
-83.26
-84.3
-86.23
-88.88
-91.57
-93.21
-92.41
-87.63
-77.66
-62.11
-41.89
-18.88
4.59
26.57
45.83
61.78
73.9
81.61
84.46
82.52
76.7
68.46
59.3
50.17
41.58
33.9
27.61
23.31
21.25
21.07
21.87
22.71
23.14
23.31
23.51
23.77
23.57
22.21
19.21
14.71
9.22
3.11
-3.81
-12.03
-21.98
-33.45
-45.62
-57.41
-68.0
-77.18
-85.03
-91.57
-96.28
-98.1
-95.78
-88.43
-75.98
-59.29
-39.95
-19.97
-1.35
14.41
26.45
34.64
39.35
41.14
40.43
37.6
33.09
27.57
21.92
17.01
13.39
11.15
9.92
9.17
8.45
7.54
6.43
5.17
3.81
2.27
0.39
-2.03
-5.18
-9.01
-13.09
-16.6
-18.73
-19.11
-18.15
-16.91
-16.71
-18.47
-22.41
-28.15
-34.94
-41.82
-47.66
-51.05
-50.45
-44.77
-33.89
-19.04
-2.33
14.13
29.03
42.06
53.23
62.27
68.28
70.07
67.04
59.77
50.03
40.03
31.63
25.76
22.3
20.5
19.37
18.07
16.16
13.6
10.62
7.58
4.92
2.76
0.9
-1.16
-4.07
-8.24
-13.66
-19.95
-26.54
-32.87
-38.87
-44.91
-51.67
-59.72
-69.07
-78.86
-87.49
-93.29
-95.05
-92.53
-86.18
-76.78
-64.87
-50.57
-33.97
-15.55
3.49
21.3
35.95
46.04
51.01
51.28
47.92
42.34
36.17
30.97
27.98
27.75
30.13
34.19
38.63
42.29
44.5
45.29
45.11
44.46
43.55
42.25
40.11
36.66
31.73
25.56
18.85
12.52
7.27
3.33
0.16
-3.29
-8.17
-15.32
-25.02
-37.02
-50.71
-65.13
-78.84
-89.92
-96.11
-95.67
-88.11
-74.75
-58.43
-42.41
-29.2
-19.58
-12.76
-7.37
-2.43
2.17
5.98
8.69
10.41
11.68
12.98
14.5
16.37
19.05
23.49
31.0
42.78
59.09
78.66
98.45
114.14
121.35
117.26
101.85
78.31
52.06
28.86
12.43
3.42
-0.39
-2.37
-5.12
-9.58
-15.34
-21.71
-28.52
-36.08
-44.35
-52.36
-58.18
-59.85
-56.27
-47.72
-35.86
-22.74
-10.18
0.74
9.61
16.35
20.98
23.45
23.64
21.47
16.93
10.21
1.86
-7.07
-15.22
-21.21
-24.32
-24.64
-23.0
-20.43
-17.6
-14.59
-11.25
-7.61
-4.21
-1.9
-1.37
-2.67
-5.07
-7.44
-8.8
-8.7
-7.35
-5.4
-3.82
-3.5
-5.17
-9.19
-15.38
-22.97
-30.73
-37.18
-41.07
-41.62
-38.54
-32.01
-22.53
-10.77
2.41
16.08
29.15
40.59
49.48
55.2
57.63
57.29
55.21
52.54
50.18
48.37
46.86
45.27
43.48
41.65
40.16
39.26
38.88
38.75
38.55
38.04
37.03
35.21
32.07
27.07
19.9
10.7
0.02
-11.42
-23.05
-34.49
-45.65
-56.4
-66.54
-75.7
-83.38
-89.04
-92.1
-92.07
-88.72
-82.22
-73.08
-62.13
-50.17
-37.74
-25.13
-12.49
-0.14
11.34
21.26
28.96
34.09
36.64
36.92
35.39
32.61
29.11
25.46
22.15
19.54
17.78
16.77
16.43
16.6
17.23
18.18
19.21
19.96
20.1
19.5
18.28
16.69
14.99
13.39
11.97
10.7
9.42
7.76
5.13
0.89
-5.32
-13.33
-22.27
-30.85
-37.67
-41.74
-42.53
-40.11
-34.93
-27.67
-19.24
-10.56
-2.42
4.61
10.22
14.33
16.87
17.77
17.06
15.07
12.44
9.95
8.06
6.66
5.25
3.21
0.45
-2.43
-4.44
-4.79
-3.35
-0.93
1.19
1.77
0.13
-3.56
-8.46
-13.39
-17.41
-20.09
-21.77
-23.34
-25.79
-29.74
-35.01
-40.68
-45.58
-48.66
-49.34
-47.38
-42.5
-34.26
-22.24
-6.51
11.81
30.67
47.87
61.81
72.16
79.6
84.96
88.56
89.95
88.46
83.86
76.76
68.42
60.05
52.3
45.22
38.56
32.22
26.51
21.89
18.71
16.85
15.71
14.37
11.79
7.04
-0.44
-10.53
-22.31
-34.21
-44.72
-52.97
-59.16
-64.23
-69.28
-74.88
-80.64
-85.57
-88.37
-88.0
-83.9
-76.06
-65.0
-51.65
-37.07
-22.21
-7.6
6.52
20.05
32.62
43.57
52.16
57.82
60.55
60.69
58.77
55.25
50.62
45.57
41.09
38.15
37.25
38.08
39.64
40.81
40.78
39.26
36.26
31.77
25.68
18.07
9.49
1.04
-6.18
-11.5
-14.95
-17.0
-18.39
-19.68
-21.43
-24.38
-29.36
-36.76
-45.85
-54.86
-61.54
-64.39
-63.22
-59.2
-53.87
-48.28
-42.62
-36.71
-30.56
-24.66
-19.73
-15.92
-12.67
-8.99
-4.29
1.02
5.72
8.48
8.66
6.64
3.6
0.96
-0.25
0.54
3.2
7.17
11.56
15.5
18.35
20.21
21.48
22.59
23.56
23.72
22.23
18.68
13.3
6.87
0.25
-6.04
-11.76
-16.77
-20.9
-24.08
-26.5
-28.55
-30.51
-31.99
-31.8
-28.23
-19.84
-6.01
12.99
36.11
61.61
86.75
108.0
121.64
125.23
118.92
105.68
90.25
76.8
67.12
60.3
53.82
45.5
34.85
23.2
12.59
4.53
-0.64
-3.61
-5.34
-6.52
-7.35
-7.77
-7.49
-6.4
-4.88
-3.82
-4.42
-7.69
-13.78
-21.75
-29.83
-36.34
-40.48
-42.78
-44.56
-47.06
-50.62
-54.47
-57.16
-57.21
-53.7
-46.57
-36.49
-24.75
-12.9
-2.49
5.44
10.52
13.21
14.42
15.01
15.4
15.56
15.23
14.3
12.89
11.16
9.11
6.55
3.32
-0.48
-4.26
-7.21
-8.66
-8.26
-6.16
-2.91
0.57
3.22
4.02
2.32
-1.94
-8.15
-15.17
-21.9
-27.59
-32.13
-35.95
-39.75
-44.25
-49.82
-56.44
-63.49
-69.94
-74.38
-75.49
-72.34
-64.65
-52.83
-37.79
-20.57
-2.17
16.47
34.5
51.06
65.62
77.84
87.81
95.72
101.51
104.93
105.72
103.81
99.45
93.02
85.1
76.4
67.97
61.17
57.42
57.42
60.67
65.28
68.67
68.68
64.52
57.12
48.44
40.57
34.71
31.11
29.24
28.3
27.53
26.3
24.12
20.7
16.4
11.87
8.3
7.0
8.97
14.58
23.57
34.9
47.03
57.99
65.82
69.19
67.68
61.91
53.15
42.69
31.31
19.2
6.21
-7.71
-22.22
-36.7
-50.44
-62.83
-73.46
-81.87
-87.6
-90.23
-89.81
-86.98
-82.91
-78.91
-75.77
-73.7
-72.29
-70.99
-69.35
-67.34
-65.09
-62.91
-61.23
-60.49
-61.09
-63.13
-66.23
-69.42
-71.43
-70.95
-67.14
-59.75
-49.21
-36.4
-22.56
-9.04
3.03
12.97
20.63
26.32
30.5
33.49
35.32
35.89
35.27
33.88
32.39
31.42
31.34
32.07
33.34
34.77
36.09
37.01
37.3
36.63
34.88
32.1
28.48
24.21
19.24
13.44
6.61
-1.25
-10.03
-19.69
-30.29
-41.88
-54.27
-66.57
-77.37
-85.15
-88.61
-87.3
-81.35
-71.52
-58.8
-44.44
-29.66
-15.56
-2.7
8.91
19.46
28.99
36.93
42.17
43.59
40.85
34.74
26.99
19.66
14.17
11.03
9.86
9.95
10.67
11.66
12.68
13.46
13.56
12.37
9.38
4.39
-2.37
-10.04
-17.42
-23.32
-27.08
-28.89
-29.73
-30.87
-33.24
-36.88
-40.99
-44.24
-45.39
-43.55
-38.29
-29.3
-16.29
0.68
20.85
42.41
62.74
79.35
90.82
97.45
100.7
102.16
102.28
100.03
93.47
80.94
62.31
39.15
14.37
-8.96
-28.6
-43.58
-54.09
-60.85
-64.73
-66.36
-66.25
-65.05
-63.66
-63.1
-64.14
-66.93
-70.92
-75.04
-78.13
-79.49
-79.15
-77.86
-76.73
-76.8
-78.67
-82.26
-86.72
-90.57
-92.1
-89.93
-83.6
-73.83
-62.26
-50.69
-40.42
-31.87
-24.88
-19.2
-14.85
-12.02
-10.87
-11.03
-11.75
-12.22
-12.02
-11.27
-10.34
-9.6
-9.06
-8.56
-7.92
-7.04
-5.88
-4.33
-2.38
-0.24
1.38
1.57
-0.36
-4.35
-9.29
-13.44
-15.19
-13.71
-9.38
-3.55
2.01
5.73
6.71
5.08
1.84
-1.36
-2.91
-1.74
2.23
8.18
15.03
21.9
28.42
34.47
39.95
44.41
47.29
48.28
47.58
45.86
43.77
41.61
39.17
35.9
31.37
25.56
18.9
12.15
6.19
1.91
-0.03
0.61
3.46
7.57
11.89
15.84
19.69
24.32
30.52
38.31
46.65
53.95
58.91
61.12
61.0
59.14
55.67
50.17
42.09
31.64
20.26
10.35
4.24
3.25
7.14
14.24
22.42
29.66
34.69
36.99
36.49
33.35
27.72
19.81
9.87
-1.7
-14.37
-27.52
-40.56
-52.98
-64.27
-73.96
-81.5
-86.42
-88.45
-87.55
-84.08
-78.7
-72.33
-65.84
-60.01
-55.44
-52.41
-51.07
-51.27
-52.69
-55.01
-58.21
-62.53
-68.37
-75.75
-83.81
-90.84
-94.6
-93.18
-85.71
-72.58
-55.22
-35.5
-14.99
5.12
24.1
41.41
56.45
68.73
77.95
84.07
87.2
87.51
85.26
80.9
75.26
69.31
64.01
59.92
57.02
54.81
52.52
49.54
45.52
40.5
34.81
29.02
23.71
19.02
14.58
9.59
2.97
-5.92
-16.94
-29.17
-40.98
-50.18
-54.27
-50.73
-38.01
-16.71
10.02
36.99
58.92
72.65
78.63
80.34
82.16
86.93
94.55
102.64
108.32
109.72
106.52
99.23
88.07
72.63
52.4
27.68
0.18
-27.36
-52.03
-71.35
-84.04
-90.05
-90.35
-86.63
-80.89
-74.76
-69.09
-63.81
-58.32
-52.19
-45.62
-39.37
-34.28
-30.85
-28.94
-28.19
-28.39
-29.57
-31.88
-35.04
-38.17
-39.93
-39.14
-35.15
-28.13
-18.78
-8.12
2.73
12.64
20.53
25.56
27.44
26.36
23.0
18.17
12.64
7.05
1.89
-2.44
-5.83
-8.49
-10.84
-13.14
-15.15
-15.99
-14.57
-10.26
-3.49
4.23
11.05
15.68
18.07
19.21
20.4
22.47
25.28
27.99
29.39
28.45
24.57
17.75
8.62
-1.61
-11.16
-17.96
-20.27
-16.99
-7.91
6.27
24.17
44.03
63.99
82.32
97.75
109.58
117.75
122.55
124.39
123.55
120.17
114.43
106.52
96.67
85.12
72.12
58.26
44.43
31.83
21.5
13.82
8.36
4.14
0.26
-3.73
-7.86
-12.09
-16.61
-21.81
-27.86
-34.43
-40.66
-45.74
-49.44
-52.35
-55.48
-59.39
-63.68
-66.78
-66.73
-62.06
-52.44
-38.88
-23.31
-8.02
5.05
14.59
20.25
22.72
23.12
22.78
22.6
22.84
23.15
23.08
22.39
21.08
19.44
17.74
16.22
15.24
15.48
17.56
21.75
27.35
32.83
36.44
36.97
34.35
29.44
23.46
17.24
10.99
4.41
-2.89
-11.1
-20.09
-29.42
-38.55
-46.75
-53.11
-56.68
-56.8
-53.2
-46.16
-36.39
-24.67
-11.89
0.86
12.37
21.33
26.76
28.27
26.29
21.81
16.11
10.31
5.27
1.64
-0.19
-0.09
2.0
5.74
10.66
16.09
21.18
24.85
26.26
24.96
21.45
17.01
13.21
11.12
10.68
10.73
9.72
6.54
0.98
-6.36
-14.55
-22.85
-30.59
-36.94
-40.7
-40.54
-35.61
-26.15
-13.47
0.43
13.59
24.6
32.81
38.09
40.89
41.86
41.85
41.64
41.56
41.41
40.62
38.63
35.38
31.32
27.18
23.56
20.64
18.16
15.68
12.72
8.84
3.86
-2.32
-9.44
-16.97
-24.21
-30.65
-36.05
-40.41
-43.69
-45.66
-46.25
-45.91
-45.89
-47.8
-52.7
-60.11
-67.94
-73.15
-73.18
-67.16
-56.16
-42.61
-29.0
-17.06
-7.38
0.23
6.29
11.29
15.55
19.26
22.37
24.58
25.57
25.33
24.28
23.2
22.88
23.58
24.97
26.32
27.01
26.94
26.5
26.24
26.42
26.81
26.71
25.36
22.24
17.27
10.85
3.68
-3.49
-10.1
-15.87
-21.11
-26.36
-32.21
-38.94
-46.33
-53.67
-60.04
-64.55
-66.48
-65.35
-60.87
-53.11
-42.68
-30.85
-19.33
-9.76
-3.2
0.27
1.29
0.9
-0.16
-1.62
-3.6
-6.29
-9.56
-12.94
-15.8
-17.71
-18.56
-18.56
-18.08
-17.31
-16.37
-15.23
-13.91
-12.51
-11.09
-9.6
-7.85
-5.48
-2.05
2.76
9.09
16.79
25.4
34.21
42.39
49.04
53.3
54.58
52.74
48.4
42.9
38.01
35.32
35.59
38.49
42.85
47.15
50.25
51.63
51.31
49.51
46.33
41.73
35.67
28.27
19.77
10.41
0.48
-9.72
-19.57
-28.09
-34.16
-37.02
-36.67
-33.94
-30.15
-26.51
-23.69
-21.74
-20.38
-19.38
-18.75
-18.76
-19.68
-21.55
-24.15
-26.99
-29.64
-31.83
-33.58
-35.24
-37.36
-40.41
-44.67
-50.07
-56.12
-61.84
-65.97
-67.22
-64.59
-57.74
-47.11
-33.91
-19.61
-5.56
7.43
19.1
29.46
38.41
45.44
49.76
50.84
48.83
44.7
39.87
35.64
32.52
30.19
27.79
24.46
19.97
14.75
9.6
5.19
1.79
-0.76
-2.81
-4.78
-7.0
-9.83
-13.55
-18.28
-23.79
-29.47
-34.5
-38.22
-40.36
-41.16
-41.25
-41.29
-41.85
-43.07
-44.63
-45.7
-45.17
-42.0
-35.72
-26.77
-16.34
-5.73
4.06
12.76
20.57
27.67
33.93
38.74
41.5
41.82
39.97
36.56
32.38
28.25
24.63
22.02
20.6
20.39
21.31
23.2
25.86
28.78
31.06
31.27
28.12
21.13
11.28
0.85
-7.54
-12.13
-12.9
-11.49
-10.28
-11.19
-14.99
-21.35
-29.39
-38.29
-47.37
-55.91
-62.81
-66.79
-66.7
-62.1
-53.47
-41.88
-28.97
-16.33
-5.28
3.29
9.17
12.83
15.15
17.02
18.91
20.75
22.11
22.67
22.41
21.61
20.66
19.69
18.73
17.86
17.33
17.47
18.38
19.78
21.14
21.98
22.19
21.91
21.32
20.23
18.27
15.17
11.17
7.01
3.36
0.26
-2.92
-7.1
-12.62
-18.69
-23.61
-25.45
-22.93
-15.97
-5.53
6.84
19.52
31.11
40.72
47.75
52.02
53.64
52.96
50.34
46.02
40.12
32.87
24.83
16.79
9.74
4.32
0.75
-1.14
-1.75
-1.47
-0.69
0.17
0.57
0.04
-1.64
-4.31
-7.43
-10.46
-12.95
-14.75
-15.97
-16.87
-17.88
-19.69
-23.06
-28.66
-36.55
-45.86
-54.91
-61.69
-64.6
-62.95
-57.05
-47.92
-36.95
-25.59
-15.15
-6.74
-0.96
2.19
3.35
3.42
3.35
3.79
5.23
8.04
12.52
18.8
26.47
34.7
42.51
49.24
54.84
59.77
64.44
68.78
72.06
73.27
71.6
66.9
59.59
50.45
40.39
30.27
20.94
13.07
6.93
2.02
-2.77
-8.62
-16.08
-24.49
-32.17
-37.05
-37.53
-33.12
-24.4
-12.7
0.44
13.55
25.35
34.81
41.26
44.55
45.0
43.31
40.16
36.05
31.23
25.94
20.53
15.5
11.23
7.81
5.04
2.63
0.48
-1.42
-3.0
-4.44
-6.2
-8.84
-12.85
-18.2
-24.54
-31.04
-36.85
-41.29
-44.04
-45.34
-45.82
-46.21
-47.06
-48.48
-50.06
-51.21
-51.42
-50.47
-48.25
-44.55
-38.91
-30.93
-20.77
-9.43
1.35
9.81
14.89
16.61
15.93
13.92
11.27
8.12
4.5
0.89
-1.76
-2.28
-0.03
4.7
10.91
17.24
22.83
27.44
31.32
34.73
37.33
38.15
36.13
30.92
23.34
15.24
8.5
4.18
1.81
-0.36
-4.41
-11.61
-21.82
-33.68
-45.42
-55.59
-63.4
-68.35
-69.69
-66.32
-57.3
-42.76
-24.39
-5.14
12.06
25.19
33.95
39.03
41.46
41.59
39.19
34.09
26.94
19.33
13.19
9.76
9.01
9.91
11.05
11.67
11.89
12.36
13.59
15.59
17.91
19.85
20.75
19.97
17.09
12.02
5.34
-1.71
-7.53
-10.81
-11.15
-9.24
-6.64
-5.18
-6.51
-11.71
-20.88
-33.01
-45.69
-55.75
-60.09
-57.07
-47.32
-33.62
-19.59
-8.2
-0.51
4.25
7.77
11.43
15.49
19.23
21.54
21.65
19.46
15.61
11.18
7.24
4.56
3.25
2.99
3.05
2.95
2.62
2.38
2.66
3.52
4.57
5.26
5.24
4.74
4.36
4.51
4.99
5.07
3.91
1.26
-2.53
-6.69
-10.76
-14.87
-19.57
-25.3
-31.76
-37.79
-41.83
-42.48
-39.04
-31.71
-21.37
-9.28
3.25
15.29
26.25
36.02
44.44
50.95
54.54
54.02
48.71
39.12
26.81
13.75
1.69
-8.34
-16.02
-21.34
-24.32
-24.98
-23.71
-21.31
-18.89
-17.21
-16.37
-16.12
-16.16
-16.76
-18.51
-21.67
-25.67
-29.16
-30.78
-30.12
-28.28
-27.11
-28.29
-32.46
-38.95
-46.59
-54.33
-61.55
-67.45
-70.71
-69.88
-64.49
-55.76
-46.26
-38.41
-32.79
-27.51
-19.3
-5.79
12.76
33.25
51.5
64.5
71.78
75.13
76.87
78.22
78.72
77.1
72.42
64.98
56.16
47.59
40.56
35.54
32.04
29.12
25.9
21.81
16.84
11.43
6.06
0.96
-4.15
-9.85
-16.68
-24.66
-33.29
-41.71
-49.04
-54.68
-58.53
-60.96
-62.73
-64.75
-67.73
-71.77
-76.04
-78.84
-78.12
-72.43
-61.61
-46.95
-30.57
-14.56
-0.22
12.13
22.68
31.73
39.34
45.36
49.52
51.59
51.34
48.7
43.86
37.54
30.88
25.19
21.59
20.4
21.33
23.69
26.72
29.96
33.05
35.79
37.92
39.32
39.89
39.63
38.4
35.83
31.49
25.1
16.94
7.51
-2.65
-13.48
-25.4
-38.95
-54.21
-70.45
-86.29
-99.99
-110.08
-115.43
-115.45
-109.89
-99.0
-83.69
-65.42
-46.13
-27.6
-11.16
2.62
