2013-02-23 12:43:28
64.0
-0.0
-0.0
-0.0
-0.0
-0.0
-0.0
-0.0
-0.0
-0.0
-0.0
0.0
0.01
0.01
-0.0
-0.03
-0.05
-0.05
0.0
0.13
0.36
0.66
1.01
1.37
1.72
2.06
2.4
2.79
3.24
3.8
4.42
5.06
5.66
6.2
6.68
7.15
7.68
8.31
9.14
10.09
11.04
11.88
12.56
13.14
13.76
14.65
15.96
17.91
20.32
22.9
25.38
27.58
29.57
31.68
34.32
37.81
42.54
48.15
54.11
59.84
64.98
69.58
74.14
79.34
85.7
93.77
103.03
112.67
121.78
129.77
136.65
143.05
150.33
157.2
165.98
177.25
191.1
206.3
219.89
227.49
224.48
207.51
175.74
131.59
78.92
22.02
-35.95
-93.52
-150.47
-206.91
-262.46
-316.16
-366.43
-412.32
-453.22
-488.74
-518.19
-540.29
-553.25
-555.07
-544.35
-520.62
-485.02
-439.89
-388.29
-333.26
-277.31
-222.03
-168.23
-116.33
-66.69
-20.21
21.87
58.16
87.62
110.0
125.97
136.96
144.58
150.17
154.3
156.84
157.22
154.87
149.45
140.94
129.62
116.35
102.87
91.79
86.21
88.48
99.02
115.69
134.31
150.19
159.84
162.07
157.85
149.33
138.47
126.36
113.27
99.31
85.01
71.47
60.07
51.54
45.86
42.36
39.95
37.67
34.99
31.88
28.64
25.68
23.19
20.99
18.52
14.99
9.86
3.19
-4.11
-10.46
-14.26
-14.58
-11.68
-6.93
-2.23
0.89
1.84
1.06
-0.44
-1.76
-2.6
-3.22
-4.12
-5.61
-7.58
-9.57
-11.03
-11.6
-11.28
-10.39
-9.37
-8.64
-8.47
-8.97
-10.11
-11.73
-13.53
-15.06
-15.63
-14.58
-11.5
-6.44
-0.03
6.67
12.52
16.69
18.88
19.33
18.55
17.08
15.24
13.12
10.72
8.07
5.34
2.8
0.72
-0.74
-1.66
-2.22
-2.74
-3.46
-4.42
-5.45
-6.27
-6.54
-6.12
-5.1
-3.72
-2.27
-0.93
0.31
1.59
2.96
4.26
5.17
5.33
4.69
3.63
2.86
3.11
4.69
7.33
10.23
12.49
13.37
12.65
10.6
7.73
4.55
1.34
-1.75
-4.64
-7.22
-9.34
-10.79
-11.51
-11.56
-11.13
-10.5
-9.92
-9.56
-9.47
-9.57
-9.76
-9.91
-9.95
-9.88
-9.77
-9.64
-9.54
-9.46
-9.39
-9.35
-9.35
-9.35
-9.26
-8.86
-7.86
-5.98
-3.12
0.57
4.62
8.35
11.11
12.44
12.29
10.98
9.07
7.12
5.54
4.42
3.68
3.18
2.82
2.6
2.54
2.62
2.72
2.67
2.32
1.63
0.68
-0.39
-1.48
-2.59
-3.8
-5.28
-7.0
-8.91
-10.9
-12.84
-14.62
-16.25
-17.74
-19.11
-20.19
-20.62
-19.89
-17.52
-13.23
-7.17
0.04
7.49
14.22
19.55
23.16
25.09
25.63
25.06
23.57
21.24
18.16
14.45
10.41
6.45
2.98
0.3
-1.53
-2.62
-3.27
-3.76
-4.29
-4.87
-5.45
-5.93
-6.27
-6.55
-6.94
-7.65
-8.89
-10.82
-13.58
-17.14
-21.24
-25.26
-28.31
-29.38
-27.68
-22.98
-15.65
-6.68
2.71
11.37
18.52
23.83
27.37
29.37
30.09
29.73
28.45
26.44
23.99
21.44
19.13
17.27
15.85
14.67
13.45
11.97
10.17
8.13
6.03
4.01
2.1
0.25
-1.69
-3.84
-6.32
-9.18
-12.45
-16.11
-20.01
-23.87
-27.23
-29.49
-30.02
-28.36
-24.45
-18.66
-11.78
-4.75
1.59
6.75
10.6
13.25
14.91
15.69
15.68
14.97
13.75
12.34
11.05
10.08
9.47
9.14
8.94
8.73
8.36
7.69
6.56
4.92
2.79
0.32
-2.3
-4.95
-7.64
-10.53
-13.8
-17.53
-21.71
-26.25
-31.03
-35.92
-40.68
-44.84
-47.68
-48.39
-46.35
-41.48
-34.32
-25.93
-17.55
-10.17
-4.32
-0.03
2.91
4.71
5.46
5.14
3.79
1.67
-0.77
-2.98
-4.48
-5.07
-4.8
-3.95
-2.85
-1.77
-0.83
-0.03
0.75
1.66
2.77
4.06
5.37
6.41
6.86
6.45
5.05
2.7
-0.36
-3.65
-6.53
-8.28
-8.24
-6.03
-1.7
4.27
11.06
17.78
23.65
28.21
31.33
33.07
33.62
33.1
31.56
29.04
25.59
21.41
16.8
12.19
7.95
4.4
1.68
-0.16
-1.23
-1.71
-1.82
-1.76
-1.7
-1.76
-1.98
-2.37
-2.91
-3.59
-4.47
-5.65
-7.31
-9.63
-12.7
-16.36
-20.07
-22.98
-24.09
-22.59
-18.19
-11.29
-2.83
5.97
13.98
20.47
25.13
28.03
29.42
29.59
28.8
27.23
25.04
22.38
19.49
16.61
14.04
11.98
10.52
9.54
8.8
7.92
6.61
4.75
2.41
-0.16
-2.68
-4.94
-6.9
-8.7
-10.59
-12.83
-15.59
-18.91
-22.68
-26.61
-30.17
-32.66
-33.25
-31.21
-26.23
-18.57
-9.09
0.97
10.37
18.22
24.09
28.04
30.44
31.67
32.06
31.79
30.92
29.47
27.43
24.9
22.01
18.97
16.03
13.37
11.09
9.15
7.42
5.77
4.07
2.26
0.3
-1.85
-4.19
-6.71
-9.33
-11.98
-14.64
-17.42
-20.58
-24.3
-28.56
-32.91
-36.53
-38.43
-37.75
-34.13
-27.82
-19.6
-10.49
-1.48
6.71
13.64
19.14
23.16
25.78
27.13
27.48
27.21
26.69
26.23
25.92
25.6
25.0
23.85
22.08
19.84
17.43
15.13
13.09
11.23
9.32
7.17
4.67
1.89
-1.0
-3.86
-6.63
-9.33
-12.08
-15.06
-18.46
-22.42
-26.95
-31.76
-36.28
-39.64
-40.91
-39.42
-35.01
-28.1
-19.57
-10.55
-2.06
5.15
10.7
14.53
16.85
18.0
18.38
18.35
18.19
18.08
18.05
18.09
18.11
18.05
17.82
17.37
16.66
15.7
14.55
13.29
11.97
10.6
9.08
7.26
5.0
2.23
-1.01
-4.57
-8.3
-12.13
-16.06
-20.18
-24.51
-28.84
-32.7
-35.39
-36.19
-34.57
-30.45
-24.2
-16.59
-8.55
-0.92
5.65
10.85
14.58
16.89
17.93
17.87
16.95
15.44
13.59
11.61
9.68
7.91
6.42
5.33
4.7
4.53
4.7
5.0
5.17
5.02
4.49
3.68
2.73
1.74
0.73
-0.41
-1.86
-3.8
-6.36
-9.59
-13.43
-17.66
-21.86
-25.4
-27.47
-27.34
-24.58
-19.25
-11.99
-3.81
4.17
11.08
16.4
19.95
21.83
22.19
21.23
19.2
16.4
13.22
10.03
7.18
4.86
3.17
2.06
1.38
0.92
0.41
-0.42
-1.77
-3.67
-5.99
-8.43
-10.7
-12.65
-14.3
-15.88
-17.67
-19.95
-22.81
-26.09
-29.37
-31.99
-33.18
-32.24
-28.74
-22.69
-14.59
-5.32
4.06
12.58
19.55
24.61
27.74
29.13
29.07
27.91
25.99
23.61
21.03
18.43
15.92
13.52
11.28
9.22
7.42
5.92
4.71
3.68
2.67
1.52
0.13
-1.46
-3.17
-4.89
-6.56
-8.24
-10.07
-12.29
-15.11
-18.65
-22.86
-27.33
-31.33
-33.9
-34.12
-31.45
-25.92
-18.15
-9.18
-0.1
8.18
15.09
20.41
24.16
26.52
27.73
28.07
27.78
27.02
25.84
24.26
22.31
20.09
17.78
15.55
13.43
11.34
9.1
6.6
3.85
1.0
-1.74
-4.2
-6.38
-8.38
-10.43
-12.75
-15.49
-18.73
-22.43
-26.43
-30.39
-33.74
-35.77
-35.72
-33.04
-27.64
-19.98
-11.07
-2.17
5.57
11.39
15.09
16.94
17.39
16.86
15.63
13.82
11.56
9.07
6.72
4.9
3.88
3.73
4.23
4.97
5.5
5.44
4.65
3.19
1.29
-0.81
-2.96
-5.15
-7.51
-10.24
-13.47
-17.25
-21.5
-25.97
-30.21
-33.62
-35.42
-34.89
-31.5
-25.22
-16.56
-6.53
3.65
12.84
20.31
25.78
29.39
31.46
32.32
32.2
31.24
29.55
27.26
24.52
21.5
18.42
15.41
12.63
10.12
7.83
5.65
3.45
1.11
-1.36
-3.91
-6.43
-8.79
-10.9
-12.72
-14.28
-15.74
-17.38
-19.53
-22.37
-25.76
-29.09
-31.39
-31.62
-29.02
-23.44
-15.37
-5.75
4.26
13.6
21.47
27.39
31.19
32.93
32.86
31.37
28.92
26.0
23.03
20.35
18.11
16.34
14.95
13.77
12.61
11.31
9.8
8.08
6.25
4.41
2.64
0.86
-1.08
-3.41
-6.32
-9.89
-14.06
-18.61
-23.13
-27.05
-29.62
-30.08
-27.78
-22.52
-14.7
-5.28
4.49
13.44
20.78
26.22
29.82
31.72
32.03
30.8
28.14
24.36
19.97
15.58
11.65
8.43
5.89
3.84
2.06
0.37
-1.29
-2.97
-4.66
-6.36
-8.06
-9.76
-11.46
-13.2
-15.04
-17.07
-19.38
-22.05
-25.08
-28.31
-31.33
-33.42
-33.76
-31.66
-26.87
-19.81
-11.44
-2.96
4.59
10.6
14.92
17.72
19.23
19.61
18.95
17.37
15.09
12.48
9.93
7.82
6.39
5.66
5.49
5.56
5.55
5.16
4.28
2.97
1.4
-0.24
-1.85
-3.45
-5.14
-7.09
-9.46
-12.43
-16.09
-20.36
-24.87
-28.83
-31.2
-31.0
-27.64
-21.25
-12.68
-3.23
5.74
13.19
18.63
22.06
23.8
24.23
23.68
22.37
20.47
18.15
15.62
13.11
10.82
8.87
7.28
5.97
4.79
3.57
2.23
0.77
-0.73
-2.17
-3.49
-4.74
-6.06
-7.58
-9.38
-11.53
-14.07
-17.07
-20.54
-24.28
-27.75
-30.07
-30.29
-27.74
-22.42
-15.08
-7.04
0.32
5.97
9.53
11.2
11.45
10.7
9.19
6.95
4.04
0.65
-2.87
-6.09
-8.74
-10.81
-12.53
-14.32
-16.54
-19.37
-22.73
-26.37
-30.01
-33.53
-37.07
-41.01
-45.89
-52.25
-60.44
-70.39
-81.55
-92.82
-102.68
-109.46
-111.61
-108.08
-98.54
-83.55
-64.38
-42.78
-20.59
0.64
19.83
36.5
50.56
62.2
71.69
79.23
85.0
89.13
91.8
93.18
93.45
92.76
91.28
89.13
86.49
83.48
80.24
76.87
73.44
70.0
66.57
63.09
59.43
55.39
50.77
45.46
39.42
32.73
25.48
17.77
9.7
1.57
-6.0
-12.1
-15.67
-15.94
-12.75
-6.78
0.67
8.08
14.21
18.45
20.82
21.81
21.98
21.77
21.35
20.75
19.9
18.8
17.51
16.15
14.91
13.95
13.43
13.37
13.66
14.05
14.21
13.89
12.91
11.3
9.19
6.73
4.1
1.4
-1.26
-3.76
-6.07
-8.24
-10.51
-13.22
-16.67
-20.9
-25.51
-29.63
-32.09
-31.87
-28.42
-21.95
-13.39
-4.06
4.7
11.95
17.29
20.8
22.79
23.57
23.31
22.1
20.08
17.48
14.67
12.04
9.9
8.41
7.55
7.2
7.12
7.06
6.79
6.2
5.29
4.26
3.33
2.66
2.24
1.91
1.43
0.6
-0.71
-2.58
-5.09
-8.22
-11.73
-15.02
-17.16
-17.12
-14.21
-8.44
-0.62
7.91
15.73
21.84
25.82
27.86
28.44
28.02
26.85
24.95
22.26
18.74
14.63
10.32
6.37
3.27
1.34
0.67
1.14
2.55
4.63
7.05
9.36
10.92
11.07
9.34
5.63
0.32
-5.86
-12.18
-18.17
-23.8
-29.33
-35.03
-40.88
-46.31
-50.41
-52.15
-50.82
-46.3
-39.15
-30.47
-21.55
-13.54
-7.13
-2.55
0.43
2.21
3.17
3.5
3.12
1.84
-0.52
-3.9
-8.04
-12.45
-16.64
-20.26
-23.2
-25.54
-27.4
-28.9
-30.02
-30.77
-31.19
-31.42
-31.66
-32.02
-32.46
-32.86
-33.17
-33.51
-34.25
-35.78
-38.27
-41.39
-44.34
-46.04
-45.56
-42.53
-37.23
-30.53
-23.5
-17.15
-12.15
-8.77
-7.04
-6.78
-7.74
-9.56
-11.84
-14.17
-16.14
-17.54
-18.33
-18.74
-19.1
-19.8
-21.09
-22.94
-24.99
-26.61
-27.07
-25.77
-22.49
-17.51
-11.63
-5.97
-1.76
0.01
-1.14
-5.09
-11.1
-18.07
-24.81
-30.34
-33.93
-35.24
-34.19
-30.93
-25.85
-19.54
-12.73
-6.13
-0.26
4.61
8.56
11.81
14.65
17.21
19.47
21.3
22.51
22.98
22.72
21.85
20.62
19.37
18.37
17.79
17.62
17.69
17.72
17.5
16.92
16.0
14.82
13.46
11.97
10.35
8.61
6.76
4.77
2.56
0.02
-2.89
-6.03
-8.96
-11.03
-11.53
-9.92
-6.1
-0.39
6.49
13.63
20.16
25.43
29.13
31.25
32.02
31.72
30.63
28.91
26.68
24.03
21.1
18.06
15.08
12.28
9.73
7.44
5.43
3.71
2.29
1.14
0.23
-0.56
-1.32
-2.13
-3.05
-4.07
-5.16
-6.23
-7.17
-7.92
-8.53
-9.18
-10.2
-11.85
-14.21
-17.04
-19.73
-21.48
-21.51
-19.35
-15.01
-8.91
-1.8
5.47
12.15
17.73
21.92
24.66
26.09
26.45
26.05
25.2
24.13
22.96
21.7
20.27
18.6
16.68
14.62
12.59
10.8
9.37
8.34
7.64
7.1
6.49
5.58
4.15
2.07
-0.65
-3.85
-7.21
-10.39
-13.1
-15.33
-17.31
-19.47
-22.19
-25.53
-29.12
-32.15
-33.62
-32.74
-29.2
-23.25
-15.66
-7.34
0.83
8.22
14.43
19.22
22.44
24.07
24.27
23.35
21.74
19.85
17.96
16.19
14.54
13.01
11.59
10.29
9.07
7.89
6.65
5.31
3.9
2.48
1.13
-0.14
-1.36
-2.62
-3.97
-5.45
-7.1
-8.99
-11.26
-14.03
-17.3
-20.82
-24.06
-26.27
-26.7
-24.84
-20.64
-14.56
-7.43
-0.24
6.15
11.22
14.83
17.12
18.36
18.83
18.74
18.24
17.53
16.8
16.23
15.9
15.78
15.73
15.61
15.36
15.01
14.65
14.28
13.78
12.95
11.64
9.81
7.59
5.24
2.99
0.97
-0.89
-2.83
-5.16
-8.13
-11.82
-16.07
-20.41
-24.19
-26.66
-27.12
-25.15
-20.71
-14.22
-6.43
1.74
9.41
15.95
21.03
24.59
26.69
27.49
27.15
25.9
23.99
21.78
19.57
17.6
15.98
14.7
13.73
13.01
12.52
12.18
11.87
11.39
10.58
9.36
7.77
5.96
4.09
2.29
0.59
-1.04
-2.65
-4.35
-6.24
-8.44
-11.0
-13.87
-16.75
-19.13
-20.36
-19.79
-17.04
-12.09
-5.31
2.53
10.53
17.76
23.55
27.55
29.81
30.63
30.36
29.28
27.49
25.0
21.84
18.23
14.54
11.2
8.55
6.63
5.24
3.98
2.46
0.38
-2.35
-5.64
-9.25
-12.87
-16.17
-18.93
-21.02
-22.44
-23.29
-23.78
-24.12
-24.57
-25.29
-26.25
-27.16
-27.44
-26.36
-23.35
-18.23
-11.38
-3.6
4.15
11.08
16.8
21.29
24.75
27.37
29.17
30.07
29.94
28.79
26.79
24.21
21.35
18.41
15.5
12.68
10.0
7.54
5.31
3.28
1.33
-0.7
-2.89
-5.25
-7.67
-10.03
-12.28
-14.44
-16.68
-19.19
-22.16
-25.66
-29.59
-33.64
-37.29
-39.87
-40.73
-39.38
-35.65
-29.74
-22.25
-13.97
-5.74
1.74
7.98
12.83
16.35
18.78
20.36
21.29
21.66
21.49
20.81
19.7
18.31
16.85
15.48
14.27
13.18
12.07
10.83
9.39
7.77
6.02
4.2
2.28
0.25
-1.92
-4.13
-6.29
-8.35
-10.45
-12.85
-15.87
-19.6
-23.78
-27.71
-30.53
-31.41
-29.88
-25.96
-20.1
-13.11
-5.88
0.8
6.36
10.53
13.3
14.88
15.55
15.59
15.23
14.66
14.0
13.35
12.75
12.19
11.59
10.87
9.98
8.94
7.78
6.56
5.25
3.78
2.05
-0.01
-2.36
-4.85
-7.29
-9.52
-11.54
-13.51
-15.68
-18.3
-21.39
-24.65
-27.48
-29.11
-28.91
-26.5
-21.98
-15.84
-8.8
-1.68
4.83
10.25
14.32
17.01
18.47
18.92
18.58
17.64
16.21
14.36
12.13
9.7
7.28
5.16
3.55
2.53
1.96
1.6
1.18
0.55
-0.24
-1.08
-1.77
-2.25
-2.56
-2.85
-3.32
-4.18
-5.58
-7.62
-10.27
-13.27
-16.13
-18.12
-18.45
-16.55
-12.3
-6.11
1.17
8.54
15.14
20.44
24.23
26.58
27.57
27.34
26.01
23.83
21.14
18.32
15.7
13.42
11.46
9.72
8.13
6.72
5.59
4.73
4.04
3.28
2.18
0.62
-1.4
-3.7
-6.11
-8.52
-10.95
-13.47
-16.13
-18.91
-21.68
-24.37
-26.89
-29.2
-31.15
-32.38
-32.35
-30.48
-26.36
-20.06
-12.15
-3.58
4.6
11.58
16.96
20.76
23.24
24.66
25.15
24.72
23.4
21.28
18.64
15.85
13.22
10.88
8.79
6.78
4.71
2.6
0.63
-0.91
-1.75
-1.78
-1.07
0.14
1.51
2.75
3.6
3.92
3.67
2.86
1.53
-0.23
-2.29
-4.51
-6.77
-9.04
-11.39
-13.97
-16.89
-20.09
-23.24
-25.71
-26.75
-25.64
-22.01
-15.99
-8.16
0.5
8.96
16.4
22.34
26.72
29.76
31.72
32.79
33.01
32.38
30.94
28.91
26.6
24.33
22.28
20.47
18.79
17.11
15.41
13.75
12.28
11.05
10.04
9.08
7.93
6.37
4.25
1.58
-1.49
-4.69
-7.76
-10.5
-12.85
-14.95
-17.03
-19.39
-22.28
-25.83
-29.99
-34.52
-38.9
-42.38
-44.14
-43.45
-39.95
-33.78
-25.56
-16.25
-6.89
1.66
8.83
14.35
18.19
20.52
21.62
21.83
21.5
20.93
20.25
19.49
18.56
17.36
15.89
14.24
12.61
11.21
10.18
9.55
9.19
8.83
8.19
7.03
5.29
3.06
0.54
-2.06
-4.58
-6.97
-9.3
-11.7
-14.36
-17.48
-21.17
-25.37
-29.65
-33.25
-35.21
-34.67
-31.23
-25.14
-17.3
-8.93
-1.18
5.18
9.85
12.97
14.81
15.66
15.68
15.04
13.91
12.61
11.48
10.83
10.8
11.28
12.0
12.61
12.85
12.61
12.0
11.23
10.5
9.91
9.42
8.9
8.17
7.06
5.46
3.31
0.67
-2.28
-5.26
-7.95
-10.18
-11.97
-13.64
-15.62
-18.34
-22.01
-26.5
-31.25
-35.41
-38.03
-38.33
-35.93
-31.02
-24.3
-16.8
-9.6
-3.56
0.88
3.66
4.98
5.16
4.57
3.61
2.72
2.34
2.79
4.17
6.3
8.8
11.24
13.3
14.88
16.09
17.17
18.3
19.54
20.78
21.76
22.21
21.94
20.9
19.21
17.15
14.97
12.87
10.84
8.72
6.31
3.46
0.13
-3.54
-7.4
-11.23
-14.79
-17.78
-19.78
-20.36
-19.19
-16.16
-11.58
-6.09
-0.54
4.29
7.9
10.11
11.08
11.05
10.21
8.6
6.22
3.17
-0.27
-3.66
-6.58
-8.77
-10.28
-11.34
-12.14
-12.73
-12.91
-12.45
-11.28
-9.57
-7.73
-6.26
-5.51
-5.5
-6.02
-6.61
-6.86
-6.53
-5.68
-4.67
-4.06
-4.37
-5.91
-8.57
-11.88
-15.14
-17.68
-18.94
-18.64
-16.68
-13.18
-8.4
-2.83
2.91
8.14
12.33
15.24
16.98
17.86
18.21
18.24
17.94
17.21
15.97
14.33
12.55
10.96
9.81
9.17
8.87
8.59
8.0
6.89
5.24
3.22
1.13
-0.77
-2.25
-3.27
-3.83
-4.04
-4.09
-4.23
-4.74
-5.81
-7.45
-9.27
-10.59
-10.6
-8.63
-4.47
1.56
8.69
16.0
22.64
28.06
31.97
34.3
35.1
34.56
32.91
30.45
27.55
24.49
21.49
18.62
15.83
12.99
10.01
6.87
3.68
0.68
-1.93
-4.01
-5.67
-7.15
-8.76
-10.76
-13.19
-15.93
-18.77
-21.47
-23.91
-26.07
-28.05
-30.0
-32.02
-34.04
-35.78
-36.77
-36.42
-34.23
-30.0
-23.9
-16.53
-8.68
-1.17
5.42
10.75
14.81
17.72
19.65
20.71
20.94
20.38
19.12
17.37
15.38
13.39
11.56
9.91
8.4
6.94
5.46
3.95
2.4
0.82
-0.8
-2.49
-4.22
-5.99
-7.75
-9.52
-11.36
-13.4
-15.8
-18.64
-21.9
-25.29
-28.33
-30.35
-30.69
-28.82
-24.61
-18.34
-10.75
-2.82
4.51
10.56
15.02
17.95
19.59
20.21
20.03
19.28
18.17
16.94
15.77
14.72
13.72
12.64
11.37
9.99
8.68
7.69
7.17
7.07
7.14
7.04
6.47
5.29
3.56
1.45
-0.79
-2.95
-4.98
-6.96
-9.06
-11.48
-14.32
-17.54
-20.88
-23.85
-25.86
-26.29
-24.74
-21.13
-15.79
-9.41
-2.8
3.25
8.24
11.94
14.36
15.62
15.85
15.17
13.74
11.78
9.61
7.55
5.84
4.59
3.7
3.01
2.3
1.44
0.41
-0.71
-1.76
-2.56
-3.03
-3.23
-3.34
-3.63
-4.26
-5.3
-6.67
-8.28
-10.16
-12.41
-15.11
-18.1
-20.89
-22.75
-22.93
-20.99
-17.04
-11.64
-5.63
0.17
5.18
9.07
11.75
13.29
13.8
13.44
12.42
10.93
9.18
7.36
5.67
4.23
3.11
2.29
1.63
1.01
0.34
-0.39
-1.14
-1.9
-2.7
-3.59
-4.62
-5.74
-6.9
-8.05
-9.29
-10.79
-12.75
-15.24
-18.1
-20.94
-23.19
-24.3
-23.78
-21.42
-17.25
-11.69
-5.36
1.0
6.75
11.46
14.98
17.36
18.73
19.22
18.94
17.99
16.55
14.86
13.15
11.59
10.26
9.13
8.16
7.27
6.39
5.42
4.26
2.83
1.15
-0.67
-2.47
-4.13
-5.62
-7.03
-8.55
-10.35
-12.6
-15.33
-18.49
-21.84
-24.98
-27.35
-28.33
-27.46
-24.57
-19.87
-13.94
-7.56
-1.47
3.78
7.94
11.06
13.32
14.92
15.97
16.49
16.46
15.92
15.0
13.93
12.96
12.23
11.78
11.53
11.35
11.15
10.92
10.62
10.21
9.58
8.6
7.25
5.59
3.76
1.91
0.09
-1.78
-3.95
-6.69
-10.26
-14.7
-19.78
-24.93
-29.36
-32.25
-32.98
-31.37
-27.73
-22.75
-17.32
-12.21
-7.97
-4.83
-2.78
-1.72
-1.46
-1.83
-2.62
-3.56
-4.39
-4.87
-4.86
-4.33
-3.39
-2.16
-0.73
0.87
2.66
4.64
6.71
8.67
10.27
11.3
11.63
11.27
10.35
9.05
7.58
6.15
4.83
3.57
2.14
0.27
-2.21
-5.11
-7.89
-9.73
-9.86
-7.89
-3.96
1.28
6.97
12.31
16.76
20.1
22.3
23.41
23.52
22.78
21.44
19.77
18.06
16.41
14.81
13.11
11.16
8.97
6.71
4.7
3.26
2.64
2.89
3.93
5.49
7.32
9.12
10.72
12.03
13.1
13.97
14.64
15.0
14.81
13.8
11.77
8.74
4.99
1.12
-2.11
-3.89
-3.64
-1.19
3.13
8.63
14.39
19.55
23.52
26.04
27.09
26.87
25.59
23.5
20.83
17.83
14.72
11.63
8.62
5.64
2.64
-0.41
-3.48
-6.43
-9.1
-11.34
-13.13
-14.54
-15.74
-16.89
-18.09
-19.28
-20.27
-20.92
-21.16
-21.16
-21.28
-21.92
-23.32
-25.41
-27.66
-29.26
-29.33
-27.2
-22.69
-16.13
-8.25
0.03
7.87
14.63
19.97
23.78
26.12
27.17
27.21
26.59
25.61
24.48
23.25
21.87
20.27
18.43
16.42
14.36
12.37
10.54
8.87
7.35
5.9
4.42
2.77
0.85
-1.44
-4.04
-6.82
-9.59
-12.21
-14.71
-17.26
-20.12
-23.46
-27.12
-30.61
-33.13
-33.79
-31.92
-27.27
-20.13
-11.27
-1.66
7.72
16.12
23.09
28.47
32.35
34.93
36.46
37.14
37.16
36.63
35.63
34.25
32.6
30.8
28.96
27.18
25.49
23.94
22.53
21.29
20.26
19.49
18.96
18.52
17.84
16.4
13.66
9.14
2.67
-5.58
-15.11
-25.2
-35.14
-44.3
-52.18
-58.41
-62.74
-64.99
-65.1
-63.13
-59.2
-53.47
-46.14
-37.52
-28.1
-18.53
-9.54
-1.74
4.57
9.44
13.13
16.0
18.28
20.07
21.45
22.52
23.43
24.37
25.46
26.64
27.74
28.54
28.84
28.57
27.71
26.34
24.62
22.71
20.76
18.85
16.94
14.87
12.44
9.51
6.09
2.42
-1.07
-3.87
-5.57
-5.99
-5.27
-3.82
-2.14
-0.68
0.27
0.58
0.19
-0.92
-2.75
-5.25
-8.29
-11.64
-15.1
-18.53
-21.82
-24.92
-27.66
-29.84
-31.26
-31.83
-31.63
-30.86
-29.76
-28.5
-27.18
-25.89
-24.68
-23.67
-22.95
-22.6
-22.7
-23.31
-24.47
-26.16
-28.19
-30.15
-31.46
-31.53
-29.92
-26.54
-21.65
-15.77
-9.57
-3.66
1.5
5.59
8.47
10.07
10.49
9.88
8.5
6.61
4.53
2.52
0.8
-0.52
-1.43
-2.01
-2.41
-2.74
-3.1
-3.45
-3.75
-3.94
-4.04
-4.18
-4.54
-5.32
-6.69
-8.7
-11.29
-14.19
-16.92
-18.85
-19.3
-17.75
-14.07
-8.59
-2.02
4.74
10.92
16.05
20.01
22.89
24.85
25.97
26.23
25.62
24.21
22.21
19.9
17.58
15.42
13.48
11.74
10.11
8.53
6.95
5.33
3.67
2.0
0.42
-0.99
-2.21
-3.39
-4.78
-6.66
-9.19
-12.28
-15.49
-18.15
-19.5
-18.9
-16.01
-10.95
-4.2
3.47
11.25
18.4
24.42
29.05
32.22
34.0
34.49
33.84
32.26
30.03
27.53
25.1
23.02
21.34
19.88
18.3
16.24
13.48
10.11
6.45
2.96
0.01
-2.3
-4.14
-5.89
-7.97
-10.67
-14.07
-18.02
-22.07
-25.56
-27.74
-27.95
-25.84
-21.52
-15.54
-8.71
-1.87
4.32
9.47
13.41
16.07
17.48
17.75
17.08
15.77
14.16
12.54
11.13
10.02
9.26
8.85
8.74
8.86
9.06
9.19
9.11
8.8
8.31
7.74
7.14
6.48
5.64
4.44
2.76
0.53
-2.29
-5.6
-9.21
-12.75
-15.61
-17.08
-16.52
-13.66
-8.73
-2.52
3.94
9.68
14.09
17.05
18.73
19.49
19.6
19.29
18.67
17.87
16.99
16.05
15.0
13.7
12.0
9.79
7.1
4.04
0.81
-2.35
-5.21
-7.54
-9.2
-10.13
-10.41
-10.21
-9.77
-9.25
-8.79
-8.51
-8.51
-8.88
-9.67
-10.71
-11.62
-11.86
-10.87
-8.31
-4.19
1.05
6.69
11.89
15.91
18.35
19.11
18.43
16.7
14.31
11.55
8.61
5.6
2.6
-0.28
-3.0
-5.57
-8.08
-10.65
-13.34
-16.11
-18.79
-21.19
-23.2
-24.75
-25.89
-26.74
-27.43
-28.13
-29.06
-30.48
-32.59
-35.47
-38.97
-42.64
-45.73
-47.38
-46.78
-43.46
-37.46
-29.33
-19.99
-10.47
-1.58
6.15
12.52
17.47
20.99
23.11
23.87
23.45
22.09
20.09
17.7
15.14
12.59
10.25
8.25
6.62
5.22
3.79
2.07
-0.05
-2.52
-5.15
-7.75
-10.27
-12.77
-15.46
-18.52
-22.07
-26.08
-30.31
-34.35
-37.56
-39.2
-38.65
-35.56
-30.05
-22.72
-14.48
-6.33
0.9
6.72
10.98
13.8
15.48
16.31
16.58
16.46
16.08
15.59
15.16
14.98
15.18
15.75
16.5
17.12
17.3
16.89
15.95
14.69
13.34
12.03
10.73
9.3
7.58
5.43
2.76
-0.52
-4.43
-8.88
-13.53
-17.72
-20.62
-21.42
-19.62
-15.26
-8.99
-1.81
5.14
10.95
15.17
17.81
19.22
19.88
20.18
20.24
20.05
19.49
18.51
17.21
15.75
14.34
13.11
12.08
11.14
10.18
9.09
7.89
6.64
5.51
4.61
3.94
3.35
2.57
1.3
-0.66
-3.36
-6.63
-10.14
-13.46
-16.1
-17.57
-17.43
-15.43
-11.6
-6.3
-0.17
6.01
11.55
15.96
19.05
20.81
21.34
20.71
19.0
16.3
12.83
8.97
5.19
1.96
-0.46
-2.08
-3.19
-4.16
-5.32
-6.76
-8.32
-9.67
-10.59
-11.05
-11.35
-11.93
-13.24
-15.54
-18.84
-22.85
-27.09
-30.92
-33.58
-34.32
-32.59
-28.16
-21.3
-12.77
-3.57
5.24
12.91
19.04
23.65
26.94
29.13
30.37
30.68
30.06
28.56
26.38
23.84
21.31
19.08
17.27
15.77
14.36
12.8
10.96
8.87
6.65
4.39
2.08
-0.4
-3.21
-6.49
-10.31
-14.63
-19.41
-24.5
-29.57
-34.03
-37.1
-37.91
-35.89
-31.02
-23.93
-15.77
-7.86
-1.27
3.42
6.17
7.35
7.47
6.97
6.15
5.14
4.02
2.92
2.03
1.6
1.75
2.46
3.45
4.38
4.95
5.11
5.04
5.07
5.41
6.05
6.74
7.05
6.59
5.14
2.71
-0.53
-4.27
-8.14
-11.63
-14.14
-15.06
-13.91
-10.56
-5.36
0.94
7.42
13.27
17.97
21.33
23.4
24.29
24.07
22.84
20.75
18.08
15.19
12.44
10.03
8.0
6.26
4.63
2.97
1.14
-0.93
-3.28
-5.8
-8.31
-10.55
-12.36
-13.69
-14.74
-15.8
-17.21
-19.12
-21.53
-24.17
-26.61
-28.27
-28.56
-26.99
-23.33
-17.73
-10.75
-3.26
3.83
9.78
14.15
16.85
18.01
17.87
16.68
14.73
12.29
9.7
7.27
5.25
3.77
2.85
2.36
2.11
1.94
1.72
1.42
1.08
0.77
0.52
0.31
0.05
-0.38
-1.12
-2.31
-4.11
-6.65
-10.01
-14.0
-18.09
-21.38
-22.83
-21.63
-17.5
-10.87
-2.73
5.69
13.34
19.59
24.28
27.57
29.74
31.04
31.6
31.5
30.79
29.52
27.79
25.74
23.52
21.3
19.15
17.07
14.96
12.67
10.11
7.32
4.45
1.67
-0.84
-3.03
-4.96
-6.79
-8.73
-11.02
-13.82
-17.18
-20.9
-24.53
-27.4
-28.74
-27.96
-24.84
-19.66
-13.07
-5.97
0.81
6.63
11.11
14.11
15.66
15.87
14.96
13.19
10.9
8.38
5.92
3.72
1.91
0.54
-0.38
-0.91
-1.15
-1.21
-1.18
-1.1
-0.98
-0.83
-0.77
-0.99
-1.74
-3.22
-5.59
-8.83
-12.71
-16.73
-20.18
-22.25
-22.24
-19.81
-15.15
-8.92
-2.08
4.44
9.95
14.14
16.99
18.59
19.11
18.65
17.33
15.3
12.79
10.05
7.31
4.72
2.42
0.47
-1.07
-2.25
-3.16
-3.95
-4.74
-5.58
-6.37
-7.01
-7.47
-7.85
-8.4
-9.46
-11.31
-14.08
-17.62
-21.51
-25.06
-27.4
-27.66
-25.22
-19.92
-12.16
-2.89
6.71
15.55
22.89
28.43
32.21
34.43
35.31
34.98
33.57
31.25
28.27
24.95
21.63
18.52
15.7
13.1
10.52
7.8
4.83
1.69
-1.43
-4.28
-6.69
-8.6
-10.16
-11.66
-13.44
-15.83
-19.04
-23.04
-27.55
-31.91
-35.18
-36.37
-34.68
-29.91
-22.5
-13.54
-4.34
3.96
10.66
15.62
19.11
21.53
23.22
24.39
25.15
25.62
25.95
26.33
26.88
27.62
28.44
29.09
29.3
28.88
27.81
26.16
24.04
21.52
18.58
15.1
11.0
6.3
1.19
-4.06
-9.17
-14.01
-18.58
-23.08
-27.67
-32.38
-36.89
-40.58
-42.65
-42.43
-39.67
-34.69
-28.29
-21.49
-15.15
-9.81
-5.62
-2.49
-0.26
1.12
1.64
1.3
0.2
-1.35
-2.92
-4.05
-4.41
-3.93
-2.73
-1.1
0.65
2.32
3.83
5.18
6.44
7.61
8.64
9.42
9.82
9.69
8.92
7.38
5.01
1.82
-2.02
-6.03
-9.54
-11.74
-11.93
-9.82
-5.63
-0.06
5.93
11.4
15.67
18.43
19.61
19.33
17.78
15.17
11.78
7.89
3.82
-0.11
-3.66
-6.59
-8.77
-10.13
-10.75
-10.86
-10.78
-10.8
-11.09
-11.64
-12.29
-12.81
-13.05
-13.02
-12.87
-12.83
-13.16
-14.03
-15.54
-17.72
-20.47
-23.54
-26.43
-28.43
-28.71
-26.66
-22.12
-15.53
-7.89
-0.38
5.96
10.53
13.28
14.55
14.84
14.56
13.97
13.16
12.16
11.04
9.89
8.8
7.82
6.92
5.98
4.84
3.42
1.68
-0.29
-2.37
-4.45
-6.48
-8.51
-10.62
-12.99
-15.76
-19.04
-22.86
-27.09
-31.4
-35.28
-38.07
-39.08
-37.77
-33.9
-27.65
-19.61
-10.69
-1.85
6.1
12.7
17.85
21.67
24.4
26.18
27.02
26.89
25.81
23.96
21.64
19.24
17.02
15.07
13.28
11.42
9.31
6.98
4.62
2.54
0.99
0.01
-0.61
-1.32
-2.58
-4.74
-7.93
-11.98
-16.45
-20.7
-23.9
-25.21
-23.9
-19.61
-12.5
-3.31
6.79
16.47
24.61
30.61
34.37
36.24
36.74
36.33
35.33
33.85
31.94
29.63
27.01
24.24
21.48
18.85
16.38
13.99
11.56
8.92
5.92
2.42
-1.67
-6.38
-11.68
-17.47
-23.61
-29.94
-36.34
-42.82
-49.52
-56.72
-64.66
-73.28
-82.06
-89.86
-95.13
-96.35
-92.51
-83.51
-70.22
-54.22
-37.32
-21.08
-6.5
5.92
16.16
24.38
30.86
35.94
39.96
43.24
46.02
48.38
50.31
51.69
52.45
52.51
51.88
50.59
48.71
46.34
43.66
40.83
38.0
35.15
32.13
28.72
24.74
20.14
15.04
9.64
4.08
-1.51
-7.03
-12.21
-16.51
-19.24
-19.78
-17.84
-13.66
-7.99
-1.82
3.88
8.42
11.55
13.38
14.28
14.75
15.26
16.22
17.95
20.59
24.17
28.5
33.16
37.6
41.15
43.21
43.42
41.75
38.57
34.57
30.56
27.26
25.17
24.53
25.44
27.87
31.67
36.4
41.27
45.23
47.24
46.65
43.38
37.9
30.97
23.39
15.81
8.83
3.07
-0.88
-2.56
-1.94
0.49
3.87
7.26
10.01
11.87
12.91
13.26
12.96
11.93
10.06
7.37
4.04
0.37
-3.33
-6.82
-9.99
-12.85
-15.49
-18.05
-20.63
-23.33
-26.19
-29.19
-32.25
-35.22
-38.0
-40.51
-42.76
-44.79
-46.63
-48.07
-48.72
-48.01
-45.42
-40.73
-34.11
-26.11
-17.47
-8.89
-0.9
6.14
11.96
16.28
18.91
19.84
19.32
17.87
16.04
14.3
12.91
11.93
11.34
11.14
11.33
11.86
12.54
13.07
13.14
12.57
11.36
9.66
7.67
5.57
3.44
1.27
-1.01
-3.52
-6.39
-9.71
-13.5
-17.58
-21.53
-24.77
-26.63
-26.59
-24.44
-20.4
-15.06
-9.24
-3.76
0.79
4.13
6.23
7.25
7.37
6.66
5.16
2.92
0.14
-2.8
-5.44
-7.32
-8.22
-8.15
-7.38
-6.24
-4.97
-3.71
-2.45
-1.12
0.29
1.73
3.0
3.89
4.11
3.47
1.86
-0.62
-3.64
-6.64
-8.94
-9.91
-9.15
-6.57
-2.51
2.41
7.47
11.96
15.42
17.58
18.44
18.09
16.7
14.44
11.51
8.15
4.68
1.44
-1.27
-3.32
-4.8
-5.99
-7.25
-8.85
-10.88
-13.19
-15.48
-17.44
-18.85
-19.68
-20.05
-20.2
-20.44
-20.98
-21.98
-23.35
-24.79
-25.8
-25.74
-24.11
-20.68
-15.63
-9.47
-2.93
3.27
8.63
12.86
15.88
17.74
18.57
18.48
17.59
16.07
14.1
11.89
9.61
7.38
5.25
3.26
1.41
-0.27
-1.74
-2.99
-4.07
-5.04
-5.97
-6.91
-7.82
-8.65
-9.41
-10.15
-11.02
-12.18
-13.79
-15.93
-18.54
-21.36
-23.89
-25.43
-25.24
-22.83
-18.16
-11.7
-4.29
3.07
9.63
14.94
18.94
21.76
23.57
24.54
24.76
24.34
23.4
22.06
20.48
18.75
17.03
15.42
14.04
12.89
11.87
10.82
9.58
8.11
6.48
4.83
3.26
1.73
0.03
-2.08
-4.86
-8.42
-12.75
-17.69
-22.87
-27.74
-31.58
-33.67
-33.5
-31.0
-26.59
-21.09
-15.37
-10.19
-6.01
-3.01
-1.21
-0.55
-0.88
-1.95
-3.41
-4.86
-5.95
-6.48
-6.41
-5.79
-4.72
-3.36
-1.9
-0.56
0.46
1.08
1.33
1.42
1.57
1.98
2.65
3.43
3.99
3.95
3.0
0.96
-2.04
-5.57
-8.94
-11.33
-12.09
-10.93
-8.05
-4.02
0.39
4.44
7.61
9.62
10.39
9.98
8.55
6.38
3.86
1.43
-0.54
-1.94
-2.87
-3.61
-4.45
-5.5
-6.69
-7.86
-8.89
-9.82
-10.9
-12.5
-14.88
-18.12
-21.96
-25.92
-29.43
-31.99
-33.41
-33.92
-34.04
-34.45
-35.59
-37.41
-39.15
-39.52
-37.08
-30.66
-19.85
-5.05
12.61
31.56
50.2
67.17
81.67
93.65
103.74
113.03
122.35
131.64
139.47
143.17
139.81
127.41
106.12
78.44
48.57
21.08
-0.52
-14.54
-21.18
-21.99
-19.24
-15.38
-12.7
-13.07
-17.59
-26.18
-37.5
-49.13
-58.24
-62.39
-60.19
-51.52
-37.43
-19.76
-0.77
17.14
31.77
41.41
45.13
43.02
36.2
26.49
15.84
5.88
-2.58
-9.44
-15.12
-20.06
-24.41
-27.94
-30.23
-30.9
-29.8
-26.96
-22.5
-16.6
-9.56
-2.01
5.13
10.9
14.65
16.4
16.73
16.43
15.91
15.02
13.13
9.62
4.34
-2.21
-9.16
-15.61
-20.88
-24.48
-25.93
-24.77
-20.69
-13.91
-5.4
3.22
10.12
13.75
13.29
8.66
0.36
-10.79
-23.67
-36.87
-48.69
-57.43
-61.77
-61.27
-56.43
-48.46
-38.75
-28.44
-18.28
-8.77
-0.31
6.69
11.94
15.46
17.62
18.89
19.49
19.13
17.2
13.18
7.1
-0.43
-8.4
-15.92
-22.38
-27.51
-31.01
-32.45
-31.39
-27.71
-21.99
-15.39
-9.2
-4.19
-0.12
4.06
9.59
17.02
25.72
34.01
39.74
41.1
37.15
28.0
14.66
-1.17
-17.29
-31.28
-40.91
-44.61
-41.97
-33.78
-21.68
-7.47
7.48
22.48
37.2
51.25
63.75
73.51
79.3
80.44
76.94
69.46
59.02
46.72
33.5
20.01
6.54
-7.07
-21.16
-35.83
-50.38
-63.01
-71.17
-72.44
-65.75
-52.02
-34.11
-15.75
-0.27
10.39
15.94
17.15
15.16
10.87
4.94
-1.91
-8.66
-14.02
-16.75
-16.12
-12.05
-5.1
3.71
13.26
22.39
30.18
36.06
39.78
41.36
40.74
37.69
31.82
22.97
11.61
-1.08
-13.52
-24.43
-33.26
-40.25
-45.83
-49.93
-51.64
-49.53
-42.53
-30.8
-15.95
-0.62
12.52
21.68
26.35
27.19
25.43
22.44
19.33
16.94
15.8
16.07
17.55
19.7
21.81
23.33
24.0
23.87
23.06
21.5
18.84
14.67
8.86
1.91
-5.1
-10.88
-14.43
-15.23
-13.32
-8.86
-1.95
7.35
18.72
31.12
42.69
51.15
54.44
51.51
42.64
29.39
14.12
-0.61
-12.6
-20.38
-23.55
-22.89
-20.08
-17.21
-15.95
-16.81
-18.85
-20.04
-18.1
-11.5
-0.21
14.05
28.22
38.58
41.78
35.71
20.21
-2.83
-29.92
-56.96
-80.28
-97.44
-107.39
-110.19
-106.63
-97.94
-85.84
-72.46
-60.11
-50.7
-45.16
-43.16
-43.37
-44.2
-44.53
-43.98
-42.73
-41.07
-38.95
-36.03
-31.95
-26.73
-20.99
-15.82
-12.38
-11.52
-13.44
-17.76
-23.69
-30.37
-37.21
-44.0
-50.85
-57.98
-65.31
-72.3
-77.91
-81.04
-80.86
-77.17
-70.4
-61.25
-50.31
-37.78
-23.59
-7.67
9.64
27.56
45.04
61.25
75.88
89.2
101.8
114.14
126.23
137.48
146.74
152.67
154.07
150.41
142.06
130.44
117.73
106.15
97.14
90.59
84.66
76.22
61.9
39.33
7.96
-30.66
-73.33
-116.11
-155.26
-187.98
-212.7
-228.99
-237.17
-237.79
-231.3
-218.05
-198.63
-174.36
-147.55
-121.37
-98.99
-82.68
-73.08
-69.05
-68.23
-67.85
-65.55
-59.84
-50.19
-37.08
-21.94
-7.02
5.19
12.69
14.8
12.43
7.57
2.3
-2.15
-5.68
-8.75
-11.56
-13.63
-13.99
-11.93
-7.66
-2.32
2.63
6.36
9.23
12.58
17.99
26.33
37.37
49.85
62.1
72.63
80.55
85.6
87.96
87.92
85.72
81.44
75.0
66.35
55.58
43.04
29.4
15.56
2.57
-8.48
-16.58
-20.93
-21.02
-16.77
-8.68
2.13
14.01
25.05
33.54
38.4
39.43
37.32
33.37
29.06
25.75
24.45
25.76
29.81
36.35
44.65
53.68
62.26
69.41
74.57
77.68
79.12
79.37
78.8
77.48
75.24
71.83
67.1
61.11
54.17
46.83
39.7
33.35
28.12
24.08
20.96
18.32
15.74
12.95
9.97
6.99
4.22
1.75
-0.52
-2.86
-5.57
-8.91
-12.97
-17.72
-22.87
-27.89
-32.03
-34.43
-34.38
-31.53
-26.06
-18.63
-10.21
-1.78
5.88
12.33
17.46
21.4
24.3
26.28
27.37
27.51
26.7
25.1
23.1
21.25
20.03
19.66
19.94
20.42
20.56
20.1
19.07
17.75
16.36
14.94
13.31
11.19
8.45
5.08
1.22
-3.02
-7.57
-12.32
-16.96
-20.86
-23.17
-23.11
-20.3
-14.99
-7.98
-0.36
6.84
12.98
17.83
21.47
24.08
25.76
26.48
26.17
24.84
22.72
20.18
17.67
15.61
14.26
13.67
13.73
14.16
14.64
14.87
14.61
13.81
12.56
11.06
9.53
8.13
6.9
5.75
4.49
2.8
0.39
-2.93
-7.11
-11.78
-16.22
-19.49
-20.71
-19.32
-15.31
-9.23
-1.99
5.36
11.99
17.4
21.44
24.19
25.78
26.37
26.05
24.94
23.24
21.17
18.97
16.83
14.85
13.09
11.56
10.32
9.45
8.99
8.88
8.91
8.76
8.08
6.59
4.22
1.11
-2.39
-5.84
-8.9
-11.38
-13.35
-15.09
-16.98
-19.39
-22.51
-26.21
-29.95
-32.84
-33.85
-32.14
-27.4
-20.03
-10.99
-1.55
7.14
14.33
19.76
23.55
25.97
27.29
27.66
27.25
26.18
24.65
22.86
20.96
19.04
17.12
15.23
13.4
11.77
10.46
9.57
9.07
8.75
8.29
7.35
5.71
3.36
0.49
-2.69
-6.01
-9.46
-13.17
-17.29
-21.93
-27.04
-32.37
-37.44
-41.45
-43.44
-42.53
-38.23
-30.79
-21.22
-10.99
-1.59
5.94
11.23
14.47
16.19
16.79
16.58
15.65
14.15
12.34
10.55
9.05
7.99
7.24
6.55
5.68
4.5
3.1
1.71
0.57
-0.22
-0.79
-1.44
-2.52
-4.25
-6.61
-9.37
-12.19
-14.8
-17.11
-19.29
-21.62
-24.49
-28.13
-32.58
-37.52
-42.23
-45.68
-46.77
-44.69
-39.26
-31.01
-21.1
-10.91
-1.65
5.93
11.5
15.12
16.96
17.26
16.31
14.47
12.18
9.78
7.51
5.41
3.48
1.68
0.1
-1.16
-2.0
-2.42
-2.54
-2.52
-2.6
-2.92
-3.61
-4.69
-6.14
-7.86
-9.72
-11.58
-13.34
-15.0
-16.67
-18.58
-20.99
-24.07
-27.71
-31.44
-34.36
-35.44
-33.8
-29.06
-21.54
-12.18
-2.22
7.19
15.28
21.72
26.6
30.14
32.51
33.81
34.07
33.36
31.91
30.02
28.02
26.19
24.62
23.35
22.3
21.45
20.81
20.39
20.15
19.97
19.66
18.94
17.61
15.56
12.84
9.67
6.33
3.05
-0.08
-3.21
-6.66
-10.82
-15.95
-22.04
-28.79
-35.65
-41.94
-47.07
-50.58
-52.26
-52.14
-50.39
-47.23
-42.71
-36.71
-28.9
-18.95
-6.84
7.09
22.1
37.33
52.0
65.65
78.02
88.92
98.04
104.82
108.64
109.01
105.9
99.88
92.08
83.88
76.5
70.56
65.89
61.67
56.77
50.29
41.91
31.93
20.9
9.15
-3.55
-18.02
-35.25
-55.91
-79.86
-105.95
-132.16
-155.88
-174.38
-185.34
-187.41
-180.58
-166.41
-147.59
-127.24
-107.83
-90.52
-74.82
-59.26
-42.26
-23.17
-2.69
17.4
35.06
48.86
58.47
64.45
67.73
68.94
68.21
65.32
60.24
53.5
46.21
39.69
34.93
32.21
31.07
30.66
30.17
29.1
27.34
25.05
22.44
19.7
16.91
14.14
11.35
8.5
5.5
2.26
-1.32
-5.35
-9.85
-14.75
-19.76
-24.33
-27.75
-29.3
-28.52
-25.37
-20.26
-13.91
-7.13
-0.67
4.9
9.18
11.93
13.14
13.01
11.92
10.32
8.58
6.87
5.2
3.48
1.7
-0.05
-1.57
-2.6
-2.96
-2.56
-1.41
0.31
2.26
3.94
4.79
4.42
2.71
-0.1
-3.53
-7.06
-10.29
-13.05
-15.34
-17.35
-19.31
-21.44
-23.77
-26.05
-27.68
-27.84
-25.77
-21.08
-13.98
-5.31
3.76
12.03
18.56
22.84
24.75
24.47
22.41
19.1
15.13
11.03
7.2
3.88
1.18
-0.91
-2.46
-3.54
-4.3
-4.87
-5.38
-5.88
-6.36
-6.79
-7.15
-7.48
-7.89
-8.48
-9.3
-10.32
-11.43
-12.52
-13.49
-14.33
-15.11
-16.04
-17.42
-19.51
-22.43
-25.98
-29.51
-32.09
-32.72
-30.6
-25.51
-17.82
-8.37
1.76
11.59
20.35
27.55
32.93
36.38
37.93
37.79
36.28
33.82
30.82
27.55
24.14
20.6
16.89
13.07
9.27
5.74
2.7
0.32
-1.42
-2.67
-3.73
-4.9
-6.42
-8.41
-10.85
-13.64
-16.62
-19.71
-22.9
-26.27
-29.92
-33.85
-37.82
-41.28
-43.44
-43.45
-40.65
-34.81
-26.24
-15.74
-4.42
6.64
16.53
24.66
30.73
34.72
36.76
37.15
36.29
34.62
32.52
30.25
27.89
25.4
22.67
19.69
16.56
13.49
10.69
8.3
6.32
4.58
2.87
1.01
-1.07
-3.34
-5.64
-7.84
-9.9
-11.91
-14.07
-16.59
-19.58
-23.03
-26.79
-30.57
-33.97
-36.48
-37.54
-36.62
-33.39
-27.84
-20.38
-11.74
-2.8
5.6
12.83
18.51
22.55
25.05
26.22
26.32
25.62
24.29
22.48
20.3
17.86
15.32
12.92
10.89
9.37
8.4
7.87
7.52
7.09
6.37
5.28
3.88
2.35
0.83
-0.6
-2.03
-3.65
-5.74
-8.52
-12.09
-16.28
-20.65
-24.44
-26.72
-26.63
-23.65
-17.79
-9.67
-0.36
8.97
17.29
23.97
28.78
31.81
33.29
33.51
32.72
31.15
29.04
26.64
24.13
21.68
19.39
17.33
15.6
14.36
13.75
13.79
14.35
15.08
15.51
15.24
13.98
11.74
8.69
5.16
1.45
-2.26
-5.93
-9.71
-13.83
-18.58
-24.06
-30.1
-36.09
-41.09
-43.97
-43.8
-40.11
-33.07
-23.51
-12.66
-1.87
7.67
15.2
20.37
23.21
24.0
23.2
21.2
18.39
15.01
11.24
7.22
3.11
-0.91
-4.63
-7.91
-10.65
-12.84
-14.56
-15.96
-17.17
-18.33
-19.48
-20.58
-21.55
-22.37
-23.04
-23.66
-24.38
-25.4
-26.92
-29.12
-32.0
-35.3
-38.38
-40.23
-39.82
-36.41
-29.9
-20.89
-10.48
0.13
9.94
18.35
25.13
30.23
33.73
35.74
36.5
36.31
35.49
34.24
32.67
30.69
28.18
25.09
21.51
17.76
14.3
11.63
10.04
9.49
9.62
9.86
9.64
8.65
6.91
4.66
2.2
-0.24
-2.61
-5.0
-7.55
-10.42
-13.74
-17.43
-21.19
-24.4
-26.19
-25.77
-22.64
-16.92
-9.27
-0.77
7.49
14.66
20.33
24.44
27.16
28.75
29.41
29.3
28.53
27.18
25.33
23.05
20.43
17.58
14.63
11.68
8.84
6.15
3.65
1.36
-0.72
-2.61
-4.38
-6.15
-8.03
-10.06
-12.19
-14.32
-16.37
-18.41
-20.66
-23.38
-26.67
-30.32
-33.66
-35.78
-35.74
-32.92
-27.26
-19.33
-10.12
-0.81
7.56
14.32
19.16
22.17
23.58
23.7
22.8
21.11
18.81
16.09
13.19
10.39
8.02
6.35
5.53
5.5
6.01
6.7
7.2
7.26
6.72
5.54
3.78
1.52
-1.16
-4.12
-7.28
-10.62
-14.24
-18.31
-22.97
-28.07
-33.1
-37.12
-39.03
-37.89
-33.33
-25.68
-15.93
-5.4
4.64
13.28
20.04
24.83
27.8
29.2
29.28
28.26
26.35
23.78
20.78
17.58
14.43
11.54
9.05
7.05
5.53
4.45
3.69
3.09
2.41
1.46
0.05
-1.87
-4.27
-6.97
-9.76
-12.46
-14.94
-17.23
-19.55
-22.2
-25.42
-29.19
-33.02
-35.98
-36.92
-34.88
-29.44
-20.98
-10.51
0.64
11.15
20.09
26.94
31.57
34.11
34.84
34.11
32.25
29.62
26.51
23.16
19.75
16.43
13.33
10.57
8.24
6.42
5.17
4.48
4.23
4.19
4.03
3.42
2.16
0.24
-2.17
-4.81
-7.46
-10.03
-12.6
-15.43
-18.85
-23.1
-28.16
-33.6
-38.49
-41.56
-41.54
-37.66
-29.93
-19.27
-7.14
4.84
15.42
23.9
30.06
34.01
35.98
36.23
35.1
32.96
30.23
27.27
24.29
21.36
18.48
15.64
12.93
10.53
8.63
7.33
6.64
6.34
6.14
5.69
4.72
3.11
0.88
-1.8
-4.77
-7.86
-10.98
-14.13
-17.4
-21.01
-25.26
-30.32
-36.08
-41.88
-46.55
-48.66
-47.03
-41.25
-31.86
-20.21
-8.05
3.13
12.35
19.29
23.98
26.62
27.36
26.38
23.95
20.56
16.79
13.23
10.25
8.03
6.52
5.62
5.26
5.4
6.04
7.08
8.32
9.44
10.08
9.9
8.74
6.58
3.56
-0.08
-4.07
-8.12
-12.05
-15.78
-19.41
-23.22
-27.51
-32.46
-37.86
-42.95
-46.46
-47.02
-43.58
-35.89
-24.65
-11.35
2.22
14.46
24.39
31.7
36.59
39.51
40.88
41.02
40.18
38.6
36.55
34.28
31.98
29.65
27.22
24.64
21.94
19.32
17.12
15.63
15.04
15.29
16.05
16.9
17.4
17.3
16.57
15.42
14.2
13.24
12.71
12.54
12.4
11.87
10.54
8.26
5.2
1.84
-1.12
-3.0
-3.29
-1.81
1.29
5.61
10.58
15.61
20.16
23.82
26.3
27.47
27.28
25.82
23.24
19.77
15.69
11.24
6.64
2.0
-2.6
-7.09
-11.37
-15.27
-18.62
-21.29
-23.28
-24.72
-25.82
-26.79
-27.78
-28.8
-29.81
-30.73
-31.45
-31.93
-32.19
-32.34
-32.6
-33.25
-34.52
-36.46
-38.83
-41.05
-42.37
-41.97
-39.23
-33.95
-26.42
-17.34
-7.67
1.64
9.83
16.49
21.48
24.86
26.71
27.08
26.02
23.65
20.17
15.95
11.41
6.97
2.95
-0.46
-3.18
-5.25
-6.81
-8.11
-9.44
-11.06
-13.1
-15.5
-18.04
-20.41
-22.42
-24.1
-25.74
-27.82
-30.86
-35.09
-40.25
-45.48
-49.41
-50.55
-47.8
-40.86
-30.36
-17.73
-4.69
7.21
16.97
24.26
29.26
32.37
34.04
34.58
34.14
32.85
30.79
28.13
25.11
22.02
19.08
16.44
14.17
12.26
10.73
9.59
8.83
8.4
8.14
7.78
7.06
5.76
3.75
0.97
-2.66
-7.2
-12.69
-19.0
-25.58
-31.49
-35.47
-36.31
-33.24
-26.3
-16.36
-4.91
6.39
16.16
23.58
28.4
30.82
31.26
30.16
27.97
25.06
21.82
18.6
15.71
13.34
11.54
10.22
9.24
8.45
7.79
7.31
7.06
7.09
7.28
7.43
7.3
6.67
5.39
3.36
0.53
-3.2
-7.92
-13.58
-19.84
-25.98
-30.85
-33.18
-31.88
-26.48
-17.37
-5.76
6.63
18.06
27.26
33.62
37.19
38.37
37.65
35.41
31.93
27.46
22.33
16.95
11.68
6.83
2.56
-1.05
-3.95
-6.17
-7.82
-9.14
-10.43
-11.92
-13.63
-15.35
-16.8
-17.81
-18.51
-19.32
-20.76
-23.2
-26.72
-31.06
-35.67
-39.87
-42.87
-43.87
-42.19
-37.46
-29.77
-19.78
-8.55
2.68
12.8
21.05
27.07
30.83
32.49
32.32
30.63
27.76
24.13
20.21
16.46
13.23
10.68
8.7
7.0
5.19
2.98
0.31
-2.64
-5.56
-8.17
-10.35
-12.25
-14.16
-16.49
-19.55
-23.45
-28.01
-32.64
-36.5
-38.54
-37.86
-33.9
-26.76
-17.16
-6.26
4.61
14.35
22.27
28.14
32.07
34.27
34.88
34.0
31.72
28.31
24.28
20.29
17.02
14.81
13.65
13.11
12.6
11.66
10.1
8.06
5.86
3.73
1.74
-0.31
-2.72
-5.8
-9.74
-14.62
-20.31
-26.45
-32.37
-37.07
-39.39
-38.32
-33.35
-24.72
-13.47
-1.14
10.65
20.66
28.23
33.26
36.05
36.9
36.06
33.68
29.91
25.14
19.96
15.05
10.96
7.93
5.81
4.25
2.84
1.36
-0.24
-1.89
-3.58
-5.41
-7.56
-10.22
-13.44
-17.1
-21.04
-25.13
-29.44
-34.09
-39.14
-44.33
-48.94
-51.89
-52.0
-48.4
-40.9
-30.11
-17.27
-3.9
8.69
19.63
28.61
35.69
41.03
44.7
46.66
46.86
45.42
42.74
39.44
36.16
33.37
31.18
29.45
27.87
26.21
24.4
22.49
20.59
18.74
16.8
14.53
11.61
7.77
2.79
-3.4
-10.72
-18.9
-27.38
-35.27
-41.49
-44.87
-44.55
-40.15
-32.08
-21.39
-9.58
1.82
11.59
19.07
24.1
26.91
27.9
27.39
25.64
22.85
19.27
15.27
11.3
7.74
4.79
2.39
0.22
-2.16
-5.11
-8.77
-13.04
-17.67
-22.35
-26.94
-31.48
-36.1
-41.0
-46.33
-52.2
-58.58
-65.25
-71.62
-76.64
-78.95
-77.19
-70.54
-59.16
-44.24
-27.71
-11.59
2.56
13.94
22.46
28.45
32.29
34.32
34.79
34.04
32.51
30.76
29.29
28.42
28.25
28.69
29.49
30.39
31.09
31.4
31.15
30.3
28.86
26.88
24.42
21.56
18.35
14.83
10.95
6.55
1.4
-4.68
-11.6
-18.79
-25.11
-29.11
-29.38
-25.11
-16.49
-4.71
8.34
20.65
30.66
37.59
41.49
42.94
42.74
41.57
39.83
37.73
35.33
32.71
30.03
27.5
25.36
23.8
22.86
22.42
22.2
21.79
20.84
19.07
16.35
12.65
8.07
2.7
-3.37
-10.06
-17.26
-24.91
-32.93
-41.14
-49.17
-56.26
-61.26
-62.79
-59.64
-51.28
-38.17
-21.78
-4.22
12.38
26.37
36.96
44.06
48.1
49.61
49.05
46.75
43.03
38.24
32.81
27.12
21.47
16.06
11.0
6.45
2.6
-0.36
-2.29
-3.23
-3.46
-3.45
-3.73
-4.83
-7.07
-10.5
-14.94
-20.1
-25.72
-31.67
-38.07
-45.12
-52.98
-61.5
-70.04
-77.46
-82.26
-82.97
-78.61
-69.1
-55.38
-39.22
-22.74
-7.83
4.27
13.08
18.77
21.87
22.99
22.7
21.5
19.93
18.49
17.66
17.7
18.61
20.14
21.93
23.64
25.05
26.1
26.75
26.95
26.46
24.99
22.23
18.04
12.56
6.21
-0.45
-6.84
-12.59
-17.64
-22.26
-26.88
-31.84
-37.21
-42.54
-46.91
-49.12
-48.05
-43.04
-34.16
-22.22
-8.62
5.06
17.45
27.61
35.12
40.04
42.66
43.35
42.48
40.38
37.42
33.96
30.38
27.05
24.22
21.98
20.31
19.09
18.18
17.42
16.71
15.95
15.07
14.01
12.79
11.5
10.25
9.16
8.26
7.41
6.32
4.53
1.53
-3.04
-9.18
-16.28
-23.11
-28.08
-29.65
-26.95
-20.06
-10.09
1.22
12.06
21.03
27.45
31.27
32.78
32.38
30.38
27.02
22.56
17.32
11.71
6.11
0.82
-3.96
-8.14
-11.66
-14.44
-16.37
-17.43
-17.69
-17.42
-17.01
-16.82
-17.11
-17.96
-19.31
-21.02
-23.01
-25.28
-28.01
-31.48
-35.97
-41.62
-48.21
-54.97
-60.5
-63.09
-61.15
-53.82
-41.41
-25.34
-7.8
8.97
23.26
34.24
41.86
46.57
48.98
49.63
48.98
47.37
45.13
42.45
39.39
35.89
31.82
27.12
21.89
16.39
10.9
5.65
0.72
-3.97
-8.55
-13.14
-17.74
-22.26
-26.55
-30.53
-34.18
-37.64
-41.12
-44.9
-49.26
-54.39
-60.19
-66.06
-70.87
-73.09
-71.2
-64.28
-52.47
-37.03
-20.01
-3.62
10.43
21.29
28.91
33.71
36.17
36.63
35.39
32.74
29.16
25.2
21.33
17.78
14.54
11.44
8.42
5.58
3.27
1.89
1.77
2.96
5.2
8.03
10.84
13.08
14.38
14.58
13.8
12.27
10.25
7.85
4.94
1.22
-3.63
-9.64
-16.28
-22.45
-26.6
-27.21
-23.31
-14.9
-2.99
10.68
24.2
36.06
45.4
52.01
56.08
57.91
57.67
55.47
51.47
46.05
39.86
33.66
28.2
23.92
20.93
18.98
17.6
16.32
14.76
12.81
10.59
8.3
6.11
4.0
1.82
-0.74
-3.94
-7.93
-12.72
-18.15
-23.83
-29.08
-32.93
-34.26
-32.01
-25.66
-15.45
-2.51
11.46
24.64
35.6
43.61
48.65
51.09
51.45
50.12
47.37
43.42
38.57
33.23
27.89
22.95
18.65
15.0
11.83
8.9
6.03
3.1
0.1
-2.91
-5.86
-8.71
-11.51
-14.33
-17.26
-20.34
-23.6
-27.18
-31.33
-36.31
-42.24
-48.75
-54.85
-59.04
-59.79
-56.1
-47.96
-36.47
-23.41
-10.74
0.0
8.01
13.13
15.71
16.27
15.3
13.24
10.44
7.23
3.83
0.45
-2.85
-6.07
-9.25
-12.46
-15.75
-19.12
-22.58
-26.17
-29.91
-33.81
-37.83
-41.82
-45.63
-49.12
-52.26
-55.22
-58.32
-61.97
-66.43
-71.61
-76.86
-80.97
-82.4
-79.77
-72.34
-60.28
-44.74
-27.37
-9.93
6.2
20.13
31.46
40.05
45.91
49.16
50.11
49.22
47.08
44.25
41.15
38.01
34.99
32.22
29.91
28.31
27.59
27.73
28.48
29.37
29.88
29.62
28.44
26.5
24.1
21.53
18.94
16.29
13.34
9.73
5.05
-0.94
-8.17
-15.98
-23.13
-27.94
-28.81
-24.76
-15.89
-3.41
10.68
24.28
35.72
44.12
49.34
51.7
51.69
49.73
46.22
41.57
36.24
30.68
25.2
19.92
14.72
9.47
4.16
-0.98
-5.54
-9.1
-11.43
-12.55
-12.79
-12.56
-12.29
-12.25
-12.59
-13.29
-14.29
-15.51
-16.92
-18.59
-20.79
-23.87
-28.06
-33.22
-38.62
-42.99
-44.83
-42.97
-37.01
-27.58
-16.16
-4.54
5.71
13.66
19.12
22.44
24.12
24.55
23.85
21.97
18.86
14.65
9.72
4.66
0.04
-3.78
-6.68
-8.86
-10.62
-12.22
-13.78
-15.24
-16.51
-17.56
-18.51
-19.66
-21.31
-23.76
-27.22
-31.89
-37.88
-45.19
-53.5
-61.92
-69.0
-73.0
-72.42
-66.51
-55.67
-41.29
-25.33
-9.7
4.23
15.82
24.94
31.74
36.35
38.8
39.08
37.33
33.89
29.33
24.28
19.3
14.78
10.86
7.6
4.99
2.97
1.49
0.4
-0.53
-1.53
-2.81
-4.44
-6.44
-8.8
-11.62
-15.13
-19.69
-25.6
-32.82
-40.79
-48.32
-53.75
-55.38
-52.0
-43.35
-30.26
-14.51
1.75
16.52
28.45
36.97
42.16
44.49
44.51
42.72
39.49
35.22
30.34
25.43
21.08
17.83
15.96
15.45
16.02
17.18
18.44
19.42
19.93
19.88
19.27
18.08
16.26
13.74
10.5
6.54
1.83
-3.74
-10.29
-17.81
-25.91
-33.61
-39.47
-41.91
-39.81
-32.94
-22.21
-9.32
3.72
15.2
24.14
30.22
33.61
34.61
33.48
30.46
25.89
20.34
14.6
9.46
5.52
2.92
1.36
0.23
-1.11
-3.03
-5.53
-8.23
-10.54
-11.95
-12.21
-11.49
-10.32
-9.47
-9.72
-11.65
-15.45
-20.7
-26.34
-30.85
-32.59
-30.27
-23.48
-12.77
0.44
14.32
27.17
37.79
45.67
50.76
53.31
53.63
51.97
48.58
43.79
38.08
32.06
26.3
21.25
17.08
13.69
10.77
7.92
4.85
1.42
-2.25
-5.93
-9.36
-12.45
-15.29
-18.24
-21.77
-26.33
-32.25
-39.47
-47.44
-55.0
-60.55
-62.38
-59.18
-50.47
-36.91
-20.09
-2.14
14.91
29.62
41.31
49.89
55.59
58.7
59.39
57.85
54.35
49.34
43.42
37.2
31.15
25.51
20.3
15.43
10.85
6.58
2.76
-0.44
-2.95
-4.85
-6.42
-8.06
-10.28
-13.57
-18.31
-24.63
-32.28
-40.55
-48.21
-53.72
-55.55
-52.64
-44.81
-32.86
-18.42
-3.48
10.2
21.5
30.05
36.04
39.88
41.88
42.23
41.06
38.67
35.55
32.34
29.58
27.47
25.85
24.22
22.03
18.93
14.95
10.45
5.99
2.03
-1.24
-4.0
-6.73
-10.09
-14.65
-20.67
-27.98
-35.89
-43.23
-48.63
-50.74
-48.67
-42.25
-32.12
-19.59
-6.31
6.11
16.5
24.25
29.29
31.88
32.4
31.23
28.64
24.9
20.34
15.34
10.36
5.84
2.12
-0.61
-2.37
-3.34
-3.86
-4.22
-4.65
-5.19
-5.73
-6.11
-6.27
-6.37
-6.82
-8.11
-10.61
-14.42
-19.21
-24.23
-28.42
-30.61
-29.82
-25.54
-17.93
-7.81
3.5
14.62
24.43
32.27
37.93
41.4
42.72
41.86
38.92
34.17
28.24
21.91
16.0
11.08
7.38
4.78
2.95
1.53
0.29
-0.84
-1.76
-2.38
-2.77
-3.17
-4.05
-5.89
-9.06
-13.56
-19.06
-24.86
-30.04
-33.67
-34.93
-33.26
-28.54
-21.1
-11.68
-1.32
8.9
18.04
25.44
30.73
33.7
34.32
32.66
28.98
23.74
17.57
11.13
4.99
-0.54
-5.4
-9.7
-13.53
-16.89
-19.6
-21.46
-22.32
-22.29
-21.73
-21.24
-21.48
-23.07
-26.34
-31.18
-36.86
-42.1
-45.3
-44.95
-40.13
-30.87
-18.17
-3.75
10.52
23.13
33.27
40.79
45.92
49.0
50.24
49.72
47.59
44.18
40.12
36.11
32.77
30.33
28.6
27.14
25.43
23.24
20.63
17.93
15.45
13.35
11.46
9.44
6.87
3.44
-1.02
-6.54
-12.94
-19.77
-26.18
-31.0
-32.94
-31.03
-24.96
-15.31
-3.43
9.04
20.58
30.23
37.68
43.08
46.78
49.03
49.94
49.55
48.01
45.67
43.12
40.94
39.53
38.88
38.6
38.04
36.55
33.72
29.48
24.05
17.82
11.23
4.59
-1.91
-8.3
-14.77
-21.66
-29.27
-37.7
-46.57
-54.96
-61.49
-64.72
-63.63
-58.0
-48.53
-36.67
-24.13
-12.4
-2.43
5.44
11.31
15.45
18.05
19.08
18.4
15.87
11.59
5.93
-0.47
-6.88
-12.74
-17.73
-21.91
-25.56
-29.06
-32.73
-36.7
-40.98
-45.48
-50.13
-54.93
-59.98
-65.43
-71.38
-77.8
-84.42
-90.62
-95.46
-97.76
-96.34
-90.36
-79.67
-64.97
-47.65
-29.47
-12.05
3.45
16.46
26.91
34.98
40.88
44.83
47.05
47.85
47.57
46.61
45.24
43.59
41.67
39.4
36.74
33.7
30.37
26.93
23.57
20.5
17.82
15.56
13.58
11.62
9.3
6.22
2.09
-3.18
-9.37
-15.82
-21.58
-25.43
-26.29
-23.44
-16.89
-7.38
3.75
14.95
24.87
32.69
38.14
41.37
42.7
42.39
40.6
37.44
33.14
28.11
22.94
18.21
14.4
11.69
9.97
8.95
8.27
7.67
7.01
6.28
5.51
4.69
3.72
2.44
0.71
-1.59
-4.54
-8.25
-12.82
-18.31
-24.6
-31.19
-37.16
-41.24
-42.17
-39.15
-32.16
-22.09
-10.44
1.15
11.34
19.4
25.2
28.99
31.11
31.8
31.19
29.42
26.68
23.3
19.63
15.97
12.53
9.44
6.77
4.59
2.91
1.68
0.67
-0.41
-1.89
-3.95
-6.54
-9.47
-12.43
-15.23
-17.85
-20.46
-23.36
-26.79
-30.76
-34.88
-38.32
-39.95
-38.64
-33.68
-25.09
-13.69
-0.98
11.36
21.93
29.91
35.17
38.04
39.0
38.39
36.4
33.1
28.63
23.3
17.63
12.19
7.42
3.54
0.5
-1.94
-4.05
-6.02
-7.89
-9.58
-11.03
-12.25
-13.42
-14.84
-16.85
-19.73
-23.62
-28.48
-34.14
-40.2
-46.04
-50.75
-53.25
-52.51
-47.9
-39.5
-28.19
-15.43
-2.82
8.34
17.37
24.22
29.18
32.6
34.58
35.09
34.04
31.59
28.19
24.53
21.27
18.81
17.14
15.88
14.48
12.52
9.87
6.73
3.46
0.37
-2.45
-5.16
-8.04
-11.31
-15.08
-19.33
-24.02
-29.07
-34.26
-39.05
-42.42
-43.09
-39.92
-32.42
-21.11
-7.49
6.42
18.71
28.1
34.15
37.15
37.76
36.73
34.63
31.83
28.52
24.79
20.71
16.43
12.18
8.23
4.86
2.24
0.37
-0.89
-1.75
-2.38
-2.9
-3.35
-3.79
-4.27
-4.89
-5.79
-7.09
-8.94
-11.52
-15.05
-19.65
-25.24
-31.3
-36.8
-40.37
-40.7
-36.96
-29.25
-18.55
-6.46
5.35
15.67
23.95
30.24
34.88
38.18
40.29
41.21
40.9
39.43
37.01
33.93
30.54
27.13
23.97
21.24
19.04
17.39
16.19
15.26
14.31
13.04
11.13
8.38
4.74
0.38
-4.39
-9.19
-13.76
-18.05
-22.23
-26.6
-31.23
-35.77
-39.33
-40.69
-38.73
-32.91
-23.63
-12.11
0.01
11.18
20.34
27.1
31.51
33.8
34.16
32.68
29.48
24.84
19.14
12.83
6.22
-0.56
-7.46
-14.4
-21.09
-26.99
-31.38
-33.64
-33.46
-30.97
-26.77
-21.74
-16.85
-12.84
-10.11
-8.74
-8.65
-9.77
-12.23
-16.24
-21.99
-29.35
-37.84
-46.67
-54.83
-61.28
-64.91
-64.64
-59.67
-49.72
-35.36
-18.05
0.23
17.56
32.7
45.42
56.31
66.32
76.17
86.04
95.44
103.55
109.53
112.82
113.34
111.45
107.76
102.87
97.07
90.33
82.42
73.32
63.43
53.61
44.81
37.57
31.68
26.26
20.15
12.6
3.67
-5.79
-14.61
-21.69
-26.4
-28.71
-29.01
-28.15
-27.24
-27.56
-30.12
-35.23
-42.26
-49.76
-56.18
-60.68
-63.7
-66.78
-71.74
-79.46
-89.16
-98.35
-103.79
-102.87
-94.8
-81.07
-64.87
-49.89
-38.93
-32.93
-31.03
-31.11
-30.88
-28.74
-24.27
-18.05
-11.22
-5.02
-0.37
2.23
2.57
0.61
-3.65
-10.15
-18.58
-28.2
-37.69
-45.27
-49.09
-47.84
-41.24
-30.26
-16.95
-3.81
6.85
13.57
15.92
14.46
10.31
4.76
-1.05
-6.29
-10.48
-13.31
-14.62
-14.32
-12.42
-9.1
-4.76
0.02
4.58
8.39
11.19
12.97
13.87
13.99
13.28
11.6
8.84
5.2
1.2
-2.46
-5.17
-6.7
-7.3
-7.52
-7.78
-7.96
-7.32
-4.64
1.21
10.74
23.45
37.95
52.38
65.1
75.07
82.09
86.47
88.73
89.24
88.12
85.45
81.42
76.47
71.12
65.84
60.76
55.73
50.43
44.64
38.38
31.91
25.65
20.0
15.18
11.17
7.8
4.8
1.87
-1.15
-4.34
-7.62
-10.97
-14.43
-18.15
-22.25
-26.6
-30.68
-33.6
-34.44
-32.58
-28.02
-21.4
-13.76
-6.15
0.69
6.37
10.81
14.06
16.14
17.08
16.92
15.8
13.96
11.69
9.25
6.86
4.65
2.68
0.97
-0.53
-1.86
-3.09
-4.29
-5.54
-6.89
-8.41
-10.1
-11.98
-14.08
-16.53
-19.55
-23.31
-27.84
-32.83
-37.65
-41.45
-43.37
-42.89
-39.95
-34.99
-28.76
-22.14
-15.93
-10.7
-6.78
-4.3
-3.24
-3.5
-4.91
-7.31
-10.47
-14.09
-17.75
-20.97
-23.28
-24.35
-24.08
-22.63
-20.33
-17.55
-14.6
-11.69
-8.93
-6.43
-4.29
-2.65
-1.67
-1.48
-2.19
-3.84
-6.35
-9.47
-12.72
-15.46
-17.01
-16.82
-14.63
-10.51
-4.87
1.72
8.58
15.08
20.74
25.2
28.31
30.06
30.59
30.06
28.69
26.67
24.22
21.56
18.92
16.45
14.22
12.15
10.13
8.03
5.82
3.57
1.4
-0.56
-2.27
-3.78
-5.21
-6.71
-8.38
-10.34
-12.67
-15.41
-18.45
-21.48
-23.94
-25.13
-24.4
-21.41
-16.28
-9.59
-2.23
4.9
11.14
16.15
19.88
22.45
23.98
24.52
24.08
22.72
20.54
17.8
14.77
11.75
8.91
6.32
3.91
1.54
-0.9
-3.4
-5.87
-8.16
-10.11
-11.73
-13.13
-14.61
-16.49
-19.03
-22.32
-26.18
-30.11
-33.42
-35.29
-35.05
-32.28
-27.03
-19.76
-11.34
-2.77
5.07
11.6
16.67
20.44
23.22
25.22
26.5
26.97
26.61
25.54
24.11
22.69
21.51
20.53
19.49
18.0
15.84
13.03
9.86
6.65
3.64
0.84
-1.95
-4.97
-8.4
-12.3
-16.64
-21.26
-25.99
-30.47
-34.18
-36.43
-36.57
-34.21
-29.41
-22.78
-15.19
-7.61
-0.77
4.95
9.45
12.77
14.94
15.9
15.57
13.94
11.2
7.77
4.24
1.15
-1.1
-2.43
-3.01
-3.21
-3.37
-3.7
-4.22
-4.81
-5.3
-5.61
-5.82
-6.18
-7.01
-8.65
-11.33
-15.06
-19.59
-24.29
-28.29
-30.59
-30.33
-27.06
-20.99
-12.91
-3.95
4.7
12.24
18.31
22.97
26.45
28.89
30.26
30.45
29.4
27.27
24.44
21.37
18.41
15.69
13.15
10.65
8.11
5.6
3.31
1.42
-0.01
-1.08
-2.07
-3.26
-4.88
-7.04
-9.78
-13.04
-16.73
-20.59
-24.17
-26.77
-27.56
-25.79
-21.07
-13.63
-4.36
5.47
14.53
21.91
27.28
30.83
32.99
34.1
34.23
33.23
30.93
27.41
23.07
18.5
14.28
10.78
8.02
5.8
3.81
1.79
-0.32
-2.48
-4.51
-6.28
-7.74
-9.0
-10.3
-11.9
-14.06
-16.89
-20.4
-24.42
-28.58
-32.26
-34.64
-34.79
-31.97
-25.93
-17.16
-6.86
3.44
12.34
18.96
23.15
25.3
25.97
25.63
24.51
22.77
20.66
18.63
17.26
17.02
17.99
19.82
21.85
23.33
23.67
22.59
20.14
16.57
12.25
7.53
2.65
-2.28
-7.27
-12.45
-17.99
-24.06
-30.71
-37.8
-44.85
-51.01
-55.18
-56.3
-53.68
-47.36
-38.14
-27.36
-16.44
-6.52
1.8
8.39
13.4
17.03
19.47
20.84
21.28
20.93
19.94
18.44
16.58
14.53
12.57
10.95
9.85
9.28
9.04
8.9
8.61
8.08
7.34
6.51
5.66
4.78
3.82
2.74
1.48
-0.06
-2.03
-4.6
-7.79
-11.29
-14.34
-15.88
-14.91
-10.85
-3.87
5.11
14.75
23.67
30.84
35.76
38.36
38.87
37.67
35.17
31.84
28.13
24.47
21.16
18.33
15.92
13.81
11.91
10.21
8.82
7.83
7.24
6.94
6.65
6.09
5.05
3.46
1.38
-1.03
-3.58
-6.08
-8.45
-10.69
-12.98
-15.63
-19.01
-23.34
-28.46
-33.7
-37.95
-39.91
-38.55
-33.46
-25.07
-14.53
-3.34
7.07
15.76
22.34
26.88
29.64
30.87
30.68
29.17
26.47
22.9
18.88
14.86
11.11
7.68
4.45
1.23
-2.06
-5.35
-8.44
-11.14
-13.35
-15.1
-16.54
-17.78
-18.9
-19.93
-20.89
-21.9
-23.18
-25.0
-27.51
-30.57
-33.65
-35.87
-36.23
-33.88
-28.5
-20.42
-10.54
-0.09
9.75
18.11
24.58
29.14
32.0
33.46
33.81
33.36
32.46
31.45
30.63
30.09
29.76
29.36
28.66
27.5
25.96
24.23
22.55
21.04
19.61
17.98
15.81
12.82
8.96
4.41
-0.47
-5.2
-9.39
-12.81
-15.51
-17.74
-19.95
-22.55
-25.71
-29.25
-32.56
-34.73
-34.89
-32.44
-27.39
-20.36
-12.41
-4.72
1.74
6.5
9.48
10.95
11.22
10.56
9.12
6.98
4.25
1.12
-2.12
-5.15
-7.68
-9.53
-10.68
-11.23
-11.39
-11.42
-11.5
-11.7
-11.94
-12.12
-12.12
-11.89
-11.5
-11.03
-10.64
-10.49
-10.79
-11.76
-13.62
-16.44
-20.03
-23.85
-27.11
-28.9
-28.51
-25.57
-20.26
-13.2
-5.33
2.32
8.88
13.78
16.86
18.27
18.41
17.7
16.49
14.98
13.23
11.3
9.31
7.48
6.1
5.34
5.26
5.71
6.38
6.98
7.27
7.13
6.55
5.52
4.05
2.16
-0.09
-2.6
-5.2
-7.78
-10.32
-12.91
-15.66
-18.57
-21.35
-23.38
-23.83
-21.93
-17.34
-10.34
-1.81
6.99
14.81
20.77
24.52
26.18
26.1
24.67
22.14
18.72
14.58
9.98
5.29
0.87
-2.97
-6.1
-8.52
-10.31
-11.62
-12.6
-13.37
-14.04
-14.71
-15.5
-16.49
-17.76
-19.31
-21.1
-23.1
-25.29
-27.75
-30.58
-33.79
-37.12
-39.94
-41.3
-40.16
-35.82
-28.18
-17.9
-6.16
5.68
16.51
25.68
32.99
38.5
42.4
44.87
46.06
46.17
45.42
43.98
41.99
39.43
36.27
32.49
28.22
23.67
19.14
14.87
11.02
7.61
4.6
1.92
-0.51
-2.75
-4.87
-6.94
-9.03
-11.17
-13.42
-15.84
-18.57
-21.77
-25.55
-29.79
-34.02
-37.37
-38.78
-37.3
-32.5
-24.67
-14.85
-4.52
4.87
12.28
17.3
20.12
21.22
21.09
20.04
18.22
15.75
12.83
9.81
7.12
5.1
3.91
3.51
3.71
4.25
4.89
5.38
5.53
5.14
4.09
2.3
-0.18
-3.23
-6.69
-10.44
-14.4
-18.59
-23.07
-27.89
-32.87
-37.56
-41.19
-42.89
-41.88
-37.85
-31.05
-22.29
-12.66
-3.19
5.34
12.54
18.33
22.74
25.8
27.47
27.69
26.51
24.15
20.99
17.48
13.97
10.7
7.74
5.07
2.69
0.62
-1.11
-2.46
-3.5
-4.33
-5.06
-5.81
-6.65
-7.7
-9.19
-11.37
-14.54
-18.87
-24.16
-29.81
-34.75
-37.69
-37.41
-33.25
-25.29
-14.48
-2.28
9.76
20.41
29.02
35.46
39.96
42.77
44.1
44.04
42.69
40.24
37.06
33.64
30.5
28.04
26.4
25.46
24.87
24.18
23.05
21.31
18.98
16.26
13.4
10.6
7.99
5.6
3.41
1.25
-1.13
-4.1
-7.93
-12.6
-17.58
-21.79
-23.86
-22.64
-17.67
-9.41
0.86
11.48
20.95
28.34
33.41
36.38
37.68
37.68
36.59
34.58
31.82
28.56
25.14
21.89
19.05
16.72
14.9
13.47
12.28
11.19
10.1
8.92
7.57
5.97
4.03
1.69
-1.12
-4.42
-8.27
-12.78
-18.11
-24.34
-31.31
-38.42
-44.55
-48.25
-48.12
-43.26
-33.76
-20.67
-5.81
8.77
21.43
31.19
37.85
41.72
43.32
43.09
41.34
38.29
34.14
29.12
23.44
17.32
10.93
4.47
-1.82
-7.6
-12.52
-16.32
-18.95
-20.66
-21.87
-23.06
-24.58
-26.52
-28.74
-31.01
-33.2
-35.35
-37.75
-40.76
-44.58
-49.06
-53.56
-56.95
-57.95
-55.46
-48.99
-38.98
-26.66
-13.75
-1.92
7.77
14.97
20.0
23.42
25.68
26.89
26.96
25.75
23.27
19.82
15.79
11.63
7.59
3.77
0.08
-3.61
-7.41
-11.32
-15.21
-18.87
-22.02
-24.4
-25.8
-26.13
-25.38
-23.67
-21.24
-18.49
-15.97
-14.26
-13.76
-14.45
-15.82
-16.91
-16.61
-14.04
-8.88
-1.5
7.22
16.11
24.09
30.44
34.85
37.41
38.41
38.21
37.16
35.54
33.63
31.65
29.77
28.08
26.54
25.05
23.55
22.04
20.54
19.08
17.57
15.85
13.72
11.04
7.82
4.21
0.38
-3.55
-7.51
-11.5
-15.57
-19.83
-24.42
-29.34
-34.37
-38.85
-41.77
-42.03
-38.85
-32.12
-22.56
-11.55
-0.73
8.51
15.35
19.69
21.91
22.59
22.23
21.09
19.28
16.83
13.91
10.79
7.82
5.32
3.47
2.34
1.92
2.12
2.86
3.93
5.05
5.85
6.08
5.6
4.48
2.94
1.21
-0.63
-2.63
-5.07
-8.28
-12.52
-17.83
-23.81
-29.69
-34.39
-36.86
-36.37
-32.81
-26.71
-19.11
-11.24
-4.13
1.53
5.5
7.83
8.68
8.24
6.68
4.24
1.21
-2.07
-5.27
-8.19
-10.69
-12.73
-14.28
-15.41
-16.2
-16.86
-17.6
-18.6
-19.93
-21.57
-23.43
-25.39
-27.32
-28.99
-30.09
-30.29
-29.39
-27.48
-24.91
-22.11
-19.36
-16.6
-13.43
-9.37
-4.1
2.29
9.36
16.45
22.99
28.58
33.05
36.32
38.31
38.88
37.9
35.4
31.69
27.32
22.98
19.29
16.63
15.0
14.08
13.37
12.37
10.81
8.69
6.24
3.78
1.5
-0.58
-2.7
-5.19
-8.39
-12.49
-17.41
-22.75
-27.74
-31.31
-32.38
-30.14
-24.35
-15.53
-4.87
6.11
16.01
23.89
29.43
32.87
34.7
35.38
35.18
34.16
32.25
29.44
25.91
22.0
18.16
14.73
11.87
9.43
7.14
4.72
2.06
-0.74
-3.44
-5.79
-7.7
-9.27
-10.76
-12.43
-14.5
-17.14
-20.44
-24.39
-28.8
-33.13
-36.5
-37.85
-36.25
-31.28
-23.28
-13.23
-2.5
7.54
15.91
22.16
26.26
28.44
29.02
28.3
26.51
23.9
20.77
17.51
14.49
12.05
10.38
9.5
9.28
9.47
9.83
10.13
10.24
10.12
9.79
9.24
8.4
7.14
5.27
2.65
-0.77
-4.96
-9.81
-15.04
-20.15
-24.45
-27.02
-27.02
-23.94
-17.87
-9.56
-0.24
8.74
16.34
21.98
25.65
27.65
28.42
28.35
27.64
26.42
24.76
22.77
20.62
18.51
16.59
14.9
13.37
11.83
10.1
8.07
5.74
3.24
0.74
-1.6
-3.74
-5.73
-7.72
-9.91
-12.44
-15.43
-18.84
-22.54
-26.19
-29.26
-31.11
-31.1
-28.8
-24.22
-17.82
-10.42
-2.95
3.87
9.66
14.46
18.5
22.06
25.3
28.17
30.53
32.15
32.8
32.34
30.75
28.11
24.63
20.52
15.99
11.22
6.38
1.66
-2.73
-6.64
-10.08
-13.17
-16.14
-19.18
-22.37
-25.7
-29.22
-33.02
-37.2
-41.62
-45.75
-48.65
-49.22
-46.6
-40.55
-31.54
-20.64
-9.15
1.68
10.97
18.22
23.29
26.34
27.68
27.7
26.76
25.21
23.28
21.18
19.04
16.9
14.77
12.54
10.14
7.54
4.78
2.06
-0.41
-2.45
-4.02
-5.24
-6.34
-7.63
-9.46
-12.19
-16.04
-20.98
-26.59
-32.04
-36.15
-37.75
-36.05
-30.94
-23.06
-13.65
-4.1
4.4
11.15
15.97
19.01
20.55
20.83
20.01
18.23
15.69
12.73
9.79
7.35
5.77
5.15
5.35
5.97
6.52
6.58
5.97
4.77
3.18
1.42
-0.44
-2.5
-4.94
-7.94
-11.6
-15.97
-21.01
-26.61
-32.44
-37.91
-42.09
-43.94
-42.64
-37.89
-30.1
-20.31
-9.86
-0.06
8.13
14.22
18.06
19.79
19.72
18.22
15.79
12.96
10.25
8.05
6.57
5.85
5.83
6.44
7.56
9.04
10.66
12.15
13.26
13.8
13.76
13.21
12.26
10.95
9.29
7.18
4.56
1.35
-2.42
-6.6
-10.87
-14.69
-17.37
-18.21
-16.76
-13.0
-7.4
-0.84
5.69
11.39
15.79
18.78
20.46
21.0
20.52
19.1
16.84
13.9
10.56
7.11
3.83
0.9
-1.53
-3.38
-4.6
-5.16
-5.06
-4.38
-3.19
-1.64
0.16
2.07
4.0
5.84
7.5
8.85
9.76
10.02
9.49
8.09
5.91
3.28
0.73
-1.08
-1.54
-0.2
3.02
7.82
13.59
19.55
24.97
29.33
32.43
34.31
35.14
35.09
34.28
32.76
30.61
27.98
25.08
22.22
19.64
17.47
15.68
14.2
12.87
11.61
10.34
9.05
7.73
6.38
5.0
3.58
2.11
0.63
-0.9
-2.51
-4.32
-6.47
-9.07
-11.99
-14.85
-16.98
-17.59
-16.02
-12.0
-5.81
1.8
9.81
17.29
23.61
28.51
32.04
34.47
36.06
37.03
37.5
37.53
37.13
36.33
35.2
33.84
32.39
30.9
29.37
27.67
25.68
23.32
20.63
17.72
14.71
11.68
8.59
5.32
1.75
-2.22
-6.63
-11.5
-16.85
-22.62
-28.64
-34.5
-39.57
-43.08
-44.39
-43.19
-39.69
-34.52
-28.62
-22.93
-18.12
-14.54
-12.19
-10.91
-10.46
-10.66
-11.41
-12.6
-14.16
-15.98
-17.93
-19.87
-21.66
-23.15
-24.19
-24.71
-24.73
-24.43
-24.05
-23.83
-23.91
-24.22
-24.53
-24.55
-24.11
-23.18
-21.93
-20.68
-19.75
-19.4
-19.71
-20.5
-21.3
-21.42
-20.03
-16.48
-10.5
-2.35
7.14
16.8
25.39
32.02
36.25
38.14
38.11
36.7
34.38
31.48
28.16
24.48
20.47
16.15
11.57
6.86
2.2
-2.2
-6.16
-9.57
-12.5
-15.13
-17.73
-20.53
-23.64
-27.03
-30.58
-34.11
-37.48
-40.61
-43.52
-46.26
-48.91
-51.44
-53.61
-54.89
-54.53
-51.73
-46.03
-37.54
-27.09
-16.04
-5.87
2.22
7.68
10.61
11.59
11.28
10.22
8.67
6.71
4.4
1.86
-0.74
-3.25
-5.55
-7.58
-9.29
-10.55
-11.23
-11.23
-10.62
-9.63
-8.53
-7.56
-6.77
-6.11
-5.45
-4.75
-4.12
-3.74
-3.81
-4.49
-5.82
-7.79
-10.2
-12.69
-14.69
-15.52
-14.62
-11.78
-7.27
-1.76
3.84
8.72
12.39
14.74
15.93
16.29
16.09
15.47
14.48
13.06
11.19
8.94
6.53
4.24
2.32
0.88
-0.23
-1.32
-2.74
-4.7
-7.25
-10.25
-13.5
-16.86
-20.25
-23.65
-27.02
-30.25
-33.3
-36.17
-38.97
-41.79
-44.52
-46.73
-47.69
-46.62
-42.96
-36.7
-28.36
-18.9
-9.34
-0.55
6.97
12.98
17.45
20.43
22.0
22.36
21.79
20.64
19.21
17.66
16.06
14.43
12.88
11.62
10.91
10.9
11.58
12.67
13.83
14.72
15.2
15.28
15.08
14.68
14.06
13.12
11.76
9.86
7.36
4.27
0.68
-3.11
-6.52
-8.75
-8.99
-6.73
-2.03
4.43
11.64
18.58
24.65
29.72
33.97
37.62
40.69
42.91
43.92
43.47
41.54
38.35
34.2
29.41
24.27
19.01
13.95
9.4
5.61
2.68
0.47
-1.31
-3.06
-5.09
-7.55
-10.32
-13.17
-15.78
-17.98
-19.79
-21.44
-23.21
-25.21
-27.21
-28.61
-28.55
-26.28
-21.37
-13.96
-4.7
5.44
15.44
24.52
32.24
38.42
43.05
46.11
47.54
47.29
45.37
41.98
37.52
32.48
27.38
22.57
18.27
14.54
11.43
8.97
7.21
6.08
5.4
4.85
4.01
2.56
0.28
-2.9
-6.94
-11.79
-17.42
-23.79
-30.7
-37.7
-44.03
-48.68
-50.69
-49.4
-44.74
-37.29
-28.16
-18.68
-9.98
-2.71
3.01
7.47
11.09
14.16
16.78
18.84
20.26
21.03
21.27
21.13
20.65
19.72
18.12
15.69
12.42
8.55
4.44
0.46
-3.19
-6.52
-9.72
-13.07
-16.86
-21.24
-26.24
-31.72
-37.39
-42.86
-47.58
-50.9
-52.1
-50.55
-45.95
-38.54
-29.11
-18.86
-9.09
-0.78
5.61
10.12
13.11
14.95
15.85
15.89
15.13
13.73
12.03
10.4
9.07
8.07
7.23
6.31
5.2
3.97
2.83
1.99
1.57
1.58
1.86
2.28
2.7
3.02
3.15
2.9
2.04
0.33
-2.28
-5.54
-8.82
-11.18
-11.69
-9.68
-5.1
1.51
9.11
16.61
23.12
28.19
31.73
33.86
34.75
34.47
33.1
30.8
27.82
24.52
21.25
18.24
15.59
13.27
11.12
8.99
6.72
4.24
1.6
-1.07
-3.56
-5.69
-7.39
-8.71
-9.88
-11.2
-13.01
-15.6
-19.14
-23.54
-28.36
-32.79
-35.73
-36.09
-33.09
-26.6
-17.25
-6.24
4.99
15.12
23.3
29.18
32.84
34.6
34.81
33.83
31.93
29.37
26.34
23.02
19.51
15.92
12.31
8.75
5.28
1.83
-1.69
-5.38
-9.21
-13.03
-16.54
-19.45
-21.63
-23.18
-24.4
-25.66
-27.3
-29.49
-32.23
-35.31
-38.34
-40.68
-41.58
-40.29
-36.35
-29.76
-21.06
-11.25
-1.5
7.17
14.1
19.08
22.2
23.75
24.06
23.42
22.1
20.42
18.71
17.33
16.58
16.6
17.38
18.71
20.29
21.81
23.03
23.8
24.09
23.89
23.21
21.99
20.15
17.57
14.18
9.97
4.97
-0.85
-7.52
-15.02
-23.04
-30.83
-37.27
-41.12
-41.54
-38.34
-32.19
-24.29
-16.06
-8.58
-2.5
2.05
5.21
7.2
8.26
8.58
8.4
7.95
7.45
7.0
6.61
6.26
5.88
5.5
5.13
4.83
4.56
4.2
3.56
2.42
0.68
-1.56
-3.95
-5.99
-7.2
-7.31
-6.43
-5.02
-3.74
-3.2
-3.74
-5.22
-7.11
-8.58
-8.81
-7.2
-3.57
1.77
8.13
14.54
20.09
24.14
26.47
27.23
26.8
25.61
23.93
21.9
19.53
16.83
13.92
11.05
8.48
6.48
5.13
4.39
4.03
3.78
3.37
2.62
1.5
0.05
-1.63
-3.39
-5.14
-6.84
-8.51
-10.25
-12.21
-14.58
-17.47
-20.8
-24.14
-26.76
-27.73
-26.2
-21.73
-14.5
-5.27
4.83
14.65
23.28
30.21
35.33
38.75
40.71
41.41
41.03
39.74
37.71
35.11
32.07
28.7
25.06
21.23
17.38
13.68
10.31
7.31
4.61
2.03
-0.63
-3.47
-6.48
-9.52
-12.45
-15.18
-17.7
-20.03
-22.28
-24.61
-27.2
-30.24
-33.71
-37.23
-40.03
-41.1
-39.54
-34.94
-27.56
-18.26
-8.22
1.42
9.79
16.42
21.11
23.9
25.03
24.9
24.05
23.04
22.3
22.01
22.04
22.13
21.97
21.4
20.45
19.31
18.22
17.34
16.66
15.97
14.97
13.38
11.07
8.05
4.51
0.68
-3.25
-7.17
-11.11
-15.19
-19.55
-24.31
-29.42
-34.55
-39.06
-42.03
-42.57
-40.12
-34.75
-27.2
-18.64
-10.3
-3.08
2.66
6.94
10.02
12.09
13.23
13.47
12.9
11.73
10.29
8.84
7.52
6.35
5.27
4.22
3.24
2.35
1.58
0.91
0.33
-0.18
-0.58
-0.8
-0.82
-0.7
-0.56
-0.55
-0.83
-1.56
-2.88
-4.95
-7.76
-11.09
-14.35
-16.71
-17.33
-15.64
-11.54
-5.51
1.63
8.93
15.59
21.08
25.14
27.7
28.88
28.85
27.86
26.2
24.09
21.66
18.96
16.02
12.91
9.78
6.83
4.19
1.91
-0.09
-1.94
-3.76
-5.57
-7.36
-9.13
-10.89
-12.72
-14.7
-16.89
-19.33
-22.1
-25.34
-29.14
-33.39
-37.62
-40.91
-42.11
-40.21
-34.72
-25.94
-14.9
-3.0
8.4
18.27
26.08
31.74
35.38
37.24
37.61
36.76
34.92
32.26
28.91
25.0
20.71
16.3
12.08
8.34
5.27
2.88
1.06
-0.4
-1.7
-3.02
-4.45
-6.0
-7.67
-9.42
-11.27
-13.23
-15.36
-17.78
-20.6
-23.93
-27.7
-31.62
-35.03
-37.04
-36.7
-33.43
-27.23
-18.8
-9.36
-0.23
7.52
13.38
17.36
19.8
21.19
21.91
22.22
22.22
21.96
21.48
20.88
20.24
19.68
19.28
19.05
18.9
18.66
18.12
17.1
15.47
13.23
10.44
7.21
3.6
-0.35
-4.57
-8.93
-13.24
-17.36
-21.28
-25.15
-29.17
-33.38
-37.45
-40.7
-42.2
-41.21
-37.45
-31.26
-23.43
-14.98
-6.79
0.53
6.69
11.59
15.21
17.58
18.73
18.75
17.78
15.99
13.61
10.87
8.06
5.47
3.38
2.03
1.5
1.69
2.33
3.04
3.44
3.33
2.73
1.81
0.85
0.04
-0.63
-1.35
-2.42
-4.19
-6.87
-10.53
-15.01
-19.91
-24.51
-27.96
-29.38
-28.21
-24.45
-18.67
-11.93
-5.37
0.15
4.29
7.18
9.18
10.59
11.5
11.77
11.21
9.79
7.76
5.51
3.46
1.84
0.66
-0.26
-1.11
-1.99
-2.83
-3.48
-3.92
-4.21
-4.61
-5.4
-6.78
-8.77
-11.25
-14.04
-16.99
-19.99
-22.89
-25.34
-26.71
-26.27
-23.39
-17.89
-10.21
-1.27
7.76
15.88
22.44
27.24
30.39
32.06
32.4
31.47
29.38
26.37
22.76
18.97
15.38
12.24
9.61
7.45
5.62
3.95
2.28
0.5
-1.45
-3.56
-5.74
-7.89
-9.95
-11.94
-14.04
-16.46
-19.42
-23.02
-27.13
-31.45
-35.46
-38.49
-39.87
-39.02
-35.67
-29.96
-22.53
-14.3
-6.34
0.52
5.82
9.56
12.04
13.67
14.77
15.5
15.89
15.92
15.68
15.35
15.2
15.42
16.07
16.99
17.83
18.26
18.01
17.01
15.34
13.15
10.54
7.65
4.58
1.48
-1.49
-4.26
-6.88
-9.61
-12.77
-16.58
-20.98
-25.48
-29.18
-31.02
-30.15
-26.23
-19.63
-11.36
-2.74
5.03
11.14
15.36
17.89
19.12
19.37
18.86
17.69
15.95
13.8
11.42
9.03
6.85
5.01
3.64
2.76
2.35
2.26
2.31
2.29
2.06
1.52
0.68
-0.46
-1.86
-3.45
-5.07
-6.59
-7.92
-9.19
-10.78
-13.13
-16.51
-20.73
-25.03
-28.28
-29.36
-27.61
-23.09
-16.51
-8.96
-1.49
5.14
10.56
14.7
17.59
19.27
19.73
18.95
17.03
14.2
10.81
7.24
3.84
0.79
-1.89
-4.34
-6.74
-9.22
-11.78
-14.26
-16.44
-18.12
-19.16
-19.49
-19.11
-18.07
-16.48
-14.58
-12.74
-11.4
-10.96
-11.71
-13.69
-16.71
-20.4
-24.14
-27.2
-28.69
-27.81
-24.05
-17.47
-8.7
1.17
10.89
19.44
26.24
31.1
34.15
35.63
35.79
34.92
33.35
31.46
29.62
28.04
26.73
25.52
24.21
22.68
20.96
19.15
17.37
15.63
13.88
11.99
9.92
7.68
5.33
2.95
0.59
-1.76
-4.16
-6.69
-9.46
-12.6
-16.21
-20.33
-24.78
-29.14
-32.79
-35.05
-35.43
-33.75
-30.28
-25.55
-20.24
-14.92
-9.99
-5.63
-1.89
1.25
3.83
5.85
7.28
8.12
8.39
8.06
7.05
5.23
2.52
-1.0
-4.87
-8.35
-10.5
-10.58
-8.26
-3.83
1.98
8.29
14.36
19.74
24.28
27.94
30.65
32.28
32.71
31.91
30.04
27.45
24.71
22.39
21.02
20.86
21.87
23.68
25.7
27.35
28.16
27.97
26.86
25.08
22.95
20.78
18.8
17.26
16.34
16.21
16.94
18.43
20.42
22.5
24.3
25.54
26.13
26.15
25.74
25.04
24.13
23.02
21.64
19.94
17.83
15.31
12.43
9.31
6.09
2.85
-0.5
-4.1
-8.03
-12.09
-15.75
-18.27
-18.92
-17.42
-14.01
-9.47
-4.81
-0.97
1.49
2.39
1.85
0.15
-2.45
-5.72
-9.44
-13.32
-17.07
-20.41
-23.16
-25.25
-26.69
-27.51
-27.7
-27.21
-26.06
-24.39
-22.53
-20.88
-19.8
-19.43
-19.67
-20.21
-20.64
-20.67
-20.15
-19.17
-17.99
-16.94
-16.34
-16.38
-16.96
-17.68
-17.89
-16.84
-13.96
-9.12
-2.69
4.55
11.67
17.91
22.84
26.36
28.53
29.45
29.18
27.78
25.41
22.32
18.86
15.35
12.06
9.2
6.84
5.01
3.61
2.49
1.47
0.4
-0.77
-2.0
-3.19
-4.36
-5.61
-7.12
-9.05
-11.49
-14.42
-17.78
-21.47
-25.28
-28.79
-31.37
-32.22
-30.64
-26.32
-19.55
-11.11
-2.15
6.25
13.29
18.61
22.25
24.48
25.62
25.93
25.54
24.53
22.96
20.93
18.64
16.29
14.08
12.09
10.3
8.61
6.93
5.22
3.53
1.88
0.24
-1.51
-3.5
-5.77
-8.23
-10.73
-13.18
-15.64
-18.36
-21.54
-25.19
-28.9
-31.92
-33.32
-32.38
-28.78
-22.77
-15.05
-6.59
1.66
8.9
14.66
18.75
21.27
22.46
22.63
22.11
21.18
20.08
18.99
18.04
17.27
16.64
16.06
15.46
14.81
14.13
13.42
12.68
11.83
10.77
9.4
7.68
5.58
3.1
0.27
-2.87
-6.26
-9.86
-13.67
-17.69
-21.86
-25.87
-29.15
-30.89
-30.34
-27.08
-21.3
-13.75
-5.55
2.16
8.56
13.28
16.39
18.22
19.24
19.9
20.54
21.33
22.27
23.26
24.14
24.82
25.25
25.5
25.68
25.81
25.9
25.81
25.35
24.29
22.44
19.69
16.05
11.69
6.87
1.92
-2.91
-7.55
-12.07
-16.68
-21.48
-26.44
-31.25
-35.37
-38.14
-39.02
-37.66
-34.09
-28.71
-22.18
-15.3
-8.82
-3.29
0.95
3.81
5.32
5.6
4.79
3.07
0.7
-1.93
-4.4
-6.38
-7.71
-8.52
-9.09
-9.73
-10.63
-11.76
-12.86
-13.62
-13.76
-13.2
-12.1
-10.79
-9.72
-9.34
-9.97
-11.7
-14.29
-17.19
-19.57
-20.55
-19.39
-15.74
-9.74
-1.99
6.54
14.82
21.98
27.49
31.2
33.23
33.82
33.2
31.56
29.03
25.75
21.89
17.69
13.48
9.6
6.39
4.09
2.77
2.28
2.31
2.47
2.46
2.09
1.35
0.28
-1.09
-2.78
-4.84
-7.29
-10.07
-13.07
-16.2
-19.34
-22.31
-24.78
-26.25
-26.12
-23.93
-19.53
-13.24
-5.77
1.93
9.01
14.88
19.32
22.38
24.27
25.23
25.44
25.06
24.22
23.03
21.62
20.07
18.41
16.64
14.74
12.7
10.54
8.34
6.16
4.05
2.0
-0.05
-2.2
-4.52
-7.04
-9.71
-12.47
-15.27
-18.11
-21.05
-24.11
-27.2
-29.95
-31.79
-32.02
-30.09
-25.76
-19.35
-11.6
-3.53
3.88
9.96
14.45
17.49
19.36
20.33
20.49
19.81
18.26
16.01
13.41
10.89
8.81
7.29
6.21
5.35
4.49
3.52
2.46
1.32
0.11
-1.2
-2.61
-4.09
-5.53
-6.88
-8.18
-9.62
-11.49
-14.03
-17.3
-21.03
-24.6
-27.13
-27.69
-25.63
-20.83
-13.81
-5.62
2.55
9.65
15.05
18.59
20.48
21.06
20.68
19.6
18.0
16.0
13.74
11.36
8.98
6.76
4.81
3.22
1.96
0.94
0.01
-1.0
-2.17
-3.5
-4.91
-6.28
-7.57
-8.77
-9.94
-11.21
-12.72
-14.61
-17.02
-19.96
-23.23
-26.32
-28.44
-28.72
-26.49
-21.56
-14.33
-5.76
3.02
10.96
17.4
22.1
25.2
26.99
27.77
27.72
26.97
25.59
23.68
21.38
18.88
16.4
14.11
12.14
10.49
9.1
7.78
6.32
4.54
2.39
-0.06
-2.63
-5.1
-7.34
-9.28
-11.03
-12.75
-14.69
-17.07
-20.06
-23.59
-27.3
-30.49
-32.23
-31.67
-28.3
-22.19
-14.03
-4.92
3.93
11.57
17.45
21.47
23.85
24.9
24.91
24.05
22.44
20.18
17.43
14.4
11.28
8.22
5.23
2.31
-0.53
-3.17
-5.4
-7.0
-7.88
-8.18
-8.23
-8.44
-9.16
-10.5
-12.38
-14.6
-17.0
-19.52
-22.25
-25.24
-28.37
-31.17
-32.86
-32.59
-29.75
-24.27
-16.75
-8.25
0.06
7.27
12.94
17.09
19.98
21.85
22.86
23.1
22.64
21.63
20.26
18.74
17.18
15.65
14.18
12.82
11.7
10.89
10.4
10.08
9.67
8.85
7.4
5.25
2.53
-0.53
-3.7
-6.83
-9.94
-13.13
-16.58
-20.38
-24.51
-28.66
-32.29
-34.65
-34.96
-32.69
-27.74
-20.56
-12.09
-3.41
4.49
10.98
15.88
19.28
21.41
22.47
22.61
21.95
20.62
18.82
16.7
14.43
12.1
9.81
7.67
5.79
4.29
3.22
2.54
2.14
1.86
1.52
1.0
0.24
-0.79
-2.04
-3.44
-4.91
-6.44
-8.1
-10.13
-12.83
-16.38
-20.65
-25.01
-28.48
-29.94
-28.55
-24.15
-17.28
-9.06
-0.76
6.57
12.34
16.39
18.86
20.01
20.1
19.32
17.86
15.9
13.64
11.26
8.94
6.78
4.85
3.18
1.73
0.47
-0.68
-1.75
-2.78
-3.8
-4.88
-6.12
-7.64
-9.51
-11.76
-14.37
-17.3
-20.53
-24.01
-27.57
-30.8
-33.05
-33.48
-31.37
-26.35
-18.65
-9.11
1.05
10.59
18.56
24.45
28.26
30.29
30.95
30.62
29.52
27.76
25.38
22.45
19.1
15.53
11.99
8.74
5.94
3.61
1.67
-0.02
-1.61
-3.18
-4.72
-6.17
-7.53
-8.88
-10.38
-12.24
-14.64
-17.65
-21.22
-25.15
-29.07
-32.47
-34.68
-35.02
-32.97
-28.36
-21.53
-13.32
-4.81
2.94
9.25
13.85
16.88
18.65
19.46
19.53
18.99
17.97
16.66
15.33
14.22
13.47
13.12
13.05
13.09
13.02
12.68
11.99
10.9
9.47
7.74
5.79
3.7
1.51
-0.79
-3.32
-6.29
-9.94
-14.43
-19.66
-25.18
-30.18
-33.68
-34.78
-32.94
-28.22
-21.26
-13.1
-4.95
2.15
7.57
11.14
13.04
13.63
13.26
12.14
10.42
8.23
5.77
3.32
1.11
-0.7
-2.16
-3.44
-4.75
-6.17
-7.59
-8.77
-9.41
-9.29
-8.41
-6.92
-5.15
-3.52
-2.46
-2.37
-3.51
-5.87
-9.05
-12.32
-14.65
-15.03
-12.84
-8.0
-1.14
6.69
14.27
20.66
25.38
28.39
29.97
30.45
30.01
28.72
26.55
23.61
20.12
16.41
12.8
9.44
6.36
3.51
0.87
-1.46
-3.36
-4.78
-5.79
-6.59
-7.46
-8.58
-10.05
-11.85
-13.97
-16.42
-19.25
-22.49
-26.04
-29.55
-32.37
-33.66
-32.53
-28.34
-21.02
-11.12
0.22
11.62
21.83
30.07
36.05
39.96
42.13
42.93
42.61
41.36
39.36
36.8
33.86
30.65
27.21
23.59
19.83
16.04
12.39
9.06
6.19
3.81
1.88
0.21
-1.4
-3.2
-5.33
-7.9
-10.95
-14.48
-18.53
-23.06
-27.84
-32.35
-35.74
-37.02
-35.42
-30.71
-23.39
-14.6
-5.66
2.29
8.65
13.35
16.65
18.84
20.06
20.31
19.6
18.09
16.17
14.32
12.94
12.25
12.17
12.52
13.05
13.59
14.04
14.32
14.28
13.78
12.67
10.93
8.68
6.16
3.6
1.11
-1.36
-4.07
-7.28
-11.11
-15.39
-19.58
-22.85
-24.3
-23.26
-19.58
-13.64
-6.34
1.25
8.18
13.85
18.0
20.71
22.12
22.39
21.6
19.86
17.33
14.27
11.0
7.8
4.93
2.52
0.64
-0.72
-1.57
-2.01
-2.16
-2.23
-2.44
-2.96
-3.84
-5.0
-6.24
-7.4
-8.39
-9.29
-10.39
-12.04
-14.52
-17.87
-21.69
-25.2
-27.37
-27.28
-24.42
-18.92
-11.52
-3.35
4.43
10.92
15.69
18.69
20.14
20.33
19.51
17.85
15.52
12.75
9.82
7.11
4.9
3.32
2.26
1.45
0.57
-0.55
-1.92
-3.36
-4.67
-5.73
-6.63
-7.6
-8.92
-10.79
-13.25
-16.2
-19.49
-22.98
-26.47
-29.63
-31.83
-32.26
-30.1
-24.94
-17.01
-7.27
2.91
12.21
19.75
25.26
28.92
31.11
32.1
31.98
30.8
28.63
25.71
22.34
18.83
15.44
12.33
9.62
7.37
5.56
4.05
2.66
1.24
-0.3
-1.93
-3.56
-5.12
-6.61
-8.09
-9.66
-11.41
-13.43
-15.84
-18.74
-22.1
-25.65
-28.84
-30.85
-30.86
-28.35
-23.32
-16.33
-8.4
-0.61
6.13
11.33
14.93
17.17
18.43
19.01
19.08
18.68
17.78
16.41
14.71
12.9
11.19
9.73
8.48
7.28
5.94
4.36
2.53
0.55
-1.46
-3.42
-5.36
-7.33
-9.37
-11.48
-13.57
-15.64
-17.73
-20.05
-22.82
-26.17
-29.93
-33.59
-36.29
-37.07
-35.26
-30.7
-23.91
-15.96
-8.09
-1.29
3.89
7.43
9.6
10.71
10.95
10.36
8.95
6.88
4.47
2.17
0.38
-0.68
-1.02
-0.83
-0.37
0.17
0.69
1.2
1.72
2.24
2.69
2.93
2.83
2.28
1.26
-0.26
-2.31
-4.98
-8.31
-12.16
-16.09
-19.27
-20.71
-19.55
-15.43
-8.74
-0.5
7.92
15.26
20.75
24.27
26.11
26.77
26.6
25.74
24.09
21.58
18.27
14.44
10.53
6.95
4.03
1.86
0.38
-0.55
-1.1
-1.43
-1.67
-2.0
-2.57
-3.53
-4.96
-6.82
-9.04
-11.5
-14.15
-17.05
-20.34
-24.12
-28.29
-32.39
-35.57
-36.78
-35.09
-30.14
-22.26
-12.51
-2.29
7.1
14.82
20.56
24.44
26.78
27.89
27.96
27.16
25.61
23.5
20.99
18.25
15.4
12.54
9.76
7.13
4.74
2.66
0.97
-0.32
-1.26
-1.99
-2.7
-3.63
-4.99
-6.82
-9.07
-11.59
-14.21
-16.91
-19.79
-23.08
-26.93
-31.18
-35.3
-38.38
-39.42
-37.7
-33.11
-26.23
-18.17
-10.15
-3.09
2.55
6.78
9.84
11.98
13.3
13.82
13.55
12.61
11.23
9.75
8.46
7.5
6.86
6.32
5.62
4.58
3.21
1.75
0.56
-0.02
0.12
0.8
1.63
2.2
2.19
1.48
0.0
-2.22
-5.06
-8.17
-10.89
-12.27
-11.45
-7.94
-1.9
5.89
14.3
22.25
28.99
34.19
37.76
39.7
40.0
38.71
36.04
32.35
28.18
23.97
20.08
16.64
13.71
11.27
9.33
7.91
7.02
6.61
6.52
6.51
6.3
5.62
4.31
2.4
0.15
-2.08
-3.89
-5.16
-6.05
-7.03
-8.63
-11.1
-14.15
-16.87
-17.97
-16.26
-11.12
-2.88
7.31
17.81
27.14
34.43
39.59
43.18
46.0
48.66
51.35
53.83
55.64
56.4
56.09
55.21
54.72
55.93
60.1
68.14
80.16
95.2
111.01
124.35
131.52
129.33
116.19
92.67
61.62
27.38
-5.4
-33.02
-53.48
-66.56
-73.36
-75.52
-74.6
-71.73
-67.66
-62.93
-58.08
-53.64
-50.01
-47.3
-45.23
-43.26
-40.84
-37.76
-34.29
-31.1
-28.89
-28.07
-28.54
-29.7
-30.8
-31.21
-30.71
-29.48
-27.99
-26.73
-26.0
-25.76
-25.56
-24.73
-22.58
-18.74
-13.42
-7.44
-2.01
1.72
3.17
2.51
0.68
-1.01
-1.43
-0.12
2.4
4.52
3.78
-2.51
-16.5
-38.8
-67.95
-100.27
-130.61
-153.59
-165.09
-163.47
-149.86
-127.64
-101.27
-74.9
-51.42
-32.15
-17.12
-5.7
2.87
9.23
13.91
17.52
20.71
24.02
27.51
30.71
32.71
32.62
30.11
25.53
19.86
14.17
9.16
4.9
0.96
-3.14
-7.55
-11.84
-15.16
-16.56
-15.33
-11.32
-4.95
2.92
11.18
18.71
24.65
28.49
30.2
30.11
28.77
26.73
24.42
22.06
19.74
17.51
15.47
13.78
12.62
12.08
12.09
12.46
12.88
13.1
12.99
12.57
11.94
11.14
10.1
8.55
6.11
2.46
-2.53
-8.67
-15.43
-22.04
-27.55
-31.04
-31.77
-29.42
-24.12
-16.49
-7.56
1.57
9.87
16.71
21.8
25.16
26.97
27.41
26.64
24.83
22.25
19.26
16.3
13.71
11.66
10.07
8.71
7.25
5.44
3.2
0.6
-2.16
-4.85
-7.3
-9.47
-11.44
-13.41
-15.55
-17.98
-20.66
-23.33
-25.51
-26.54
-25.75
-22.61
-16.99
-9.25
-0.2
9.07
17.47
24.25
29.08
32.06
33.48
33.67
32.81
30.98
28.23
24.75
20.86
16.99
13.53
10.72
8.62
7.11
6.01
5.14
4.39
3.69
3.01
2.33
1.58
0.7
-0.44
-1.95
-4.01
-6.8
-10.48
-15.09
-20.48
-26.13
-31.19
-34.61
-35.43
-33.06
-27.57
-19.66
-10.43
-1.02
7.7
15.34
21.84
27.33
31.88
35.49
38.05
39.47
39.77
39.06
37.45
35.06
31.98
28.34
24.31
20.1
15.85
11.63
7.45
3.35
-0.58
-4.17
-7.31
-9.96
-12.23
-14.34
-16.53
-19.01
-21.91
-25.33
-29.22
-33.35
-37.19
-39.91
-40.6
-38.53
-33.45
-25.78
-16.5
-6.86
1.91
9.0
14.07
17.24
18.9
19.47
19.26
18.4
16.95
14.99
12.76
10.65
9.11
8.51
8.98
10.38
12.41
14.67
16.82
18.57
19.63
19.76
18.73
16.42
12.84
8.14
2.51
-3.9
-10.94
-18.34
-25.61
-31.97
-36.53
-38.51
-37.47
-33.47
-27.04
-19.02
-10.38
-2.03
5.24
10.9
14.7
16.7
17.14
16.37
14.72
12.46
9.85
7.28
5.13
3.72
3.11
3.03
3.02
2.61
1.62
0.19
-1.38
-2.76
-3.84
-4.74
-5.69
-6.89
-8.38
-10.03
-11.61
-12.83
-13.37
-12.88
-11.05
-7.68
-2.77
3.46
10.57
17.97
24.95
30.87
35.28
37.98
39.03
38.77
37.58
35.78
33.49
30.72
27.48
23.96
20.48
17.37
14.83
12.88
11.31
9.77
7.91
5.56
2.87
0.15
-2.42
-4.8
-7.06
-9.42
-12.21
-15.76
-20.25
-25.32
-30.44
-34.93
-37.98
-38.51
-35.53
-28.38
-17.13
-2.67
13.6
29.7
43.67
54.08
60.31
61.86
57.86
46.89
26.73
-1.44
-32.61
-60.24
-79.66
-89.36
-90.67
-86.15
-78.26
-68.96
-59.96
-55.13
-55.72
-61.52
-70.14
-77.39
-78.67
-71.14
-55.35
-34.87
-12.97
3.56
10.78
10.64
7.67
5.22
4.58
5.42
6.92
8.65
10.59
13.22
16.73
20.28
22.37
21.8
18.1
11.93
4.73
-2.01
-6.79
-8.83
-8.55
-7.22
-6.27
-6.65
-8.4
-10.7
-12.32
-11.96
-8.97
-3.92
1.72
6.23
8.2
7.08
3.29
-1.94
-6.78
-9.47
-8.96
-5.16
1.1
8.42
15.35
20.81
24.33
26.02
26.23
25.21
23.07
19.95
16.23
12.59
9.87
8.73
9.41
11.65
14.85
18.29
21.45
24.03
26.03
27.58
28.86
30.03
31.16
32.1
32.54
32.08
30.56
28.22
25.86
24.54
25.13
27.78
31.7
35.43
37.37
36.38
32.14
25.18
16.5
7.2
-1.69
-9.38
-15.19
-18.6
-19.33
-17.45
-13.44
-8.05
-2.13
3.54
8.34
11.86
13.95
14.72
14.53
13.9
13.22
12.58
11.67
9.88
6.7
1.95
-3.98
-10.26
-15.81
-19.64
-21.11
-19.95
-16.32
-10.61
-3.39
4.74
13.27
21.73
29.73
36.86
42.78
47.29
50.45
52.68
54.53
56.46
58.48
60.1
60.57
59.26
56.06
51.42
46.14
40.83
35.61
30.0
23.22
14.51
3.48
-9.75
-24.61
-40.05
-54.64
-66.7
-74.62
-77.24
-74.29
-66.61
-55.87
-44.19
-33.41
-24.68
-18.25
-13.68
-10.15
-6.85
-3.19
1.03
5.62
10.11
13.9
16.37
17.08
15.85
12.85
8.52
3.43
-1.89
-7.16
-12.48
-18.25
-25.09
-33.46
-43.3
-53.78
-63.33
-70.01
-72.11
-68.76
-60.36
-48.41
-35.01
-22.18
-11.3
-2.95
2.95
6.87
9.41
11.22
12.9
14.86
17.07
18.94
19.39
17.37
12.32
4.58
-4.8
-14.41
-23.08
-30.22
-35.86
-40.45
-44.66
-49.13
-54.39
-60.65
-67.5
-73.86
-78.1
-78.63
-74.62
-66.49
-55.84
-44.82
-35.15
-27.49
-21.3
-15.29
-8.13
0.91
11.78
23.75
35.77
46.81
56.04
62.91
67.26
69.32
69.64
69.03
68.24
67.72
67.59
67.72
67.81
67.57
66.7
64.79
61.37
55.95
48.29
38.49
27.09
14.74
2.09
-10.35
-22.08
-32.37
-40.21
-44.42
-44.14
-39.23
-30.62
-20.18
-10.18
-2.59
1.5
2.19
0.51
-2.13
-4.64
-6.74
-8.96
-12.15
-16.88
-23.1
-30.17
-37.38
-44.32
-50.97
-57.33
-62.85
-66.25
-65.81
-60.12
-48.77
-32.74
-14.01
5.06
22.45
36.9
47.9
55.47
59.93
61.83
61.94
61.19
60.56
60.69
61.56
62.24
60.98
55.74
44.85
27.75
5.31
-20.32
-46.24
-69.57
-87.91
-99.6
-103.74
-100.02
-88.81
-71.22
-49.18
-25.35
-2.66
16.31
30.0
38.17
41.91
43.18
44.11
46.4
50.82
56.98
63.52
68.33
69.1
63.8
51.25
31.61
6.68
-20.16
-44.54
-62.13
-69.86
-66.81
-54.37
-35.77
-14.83
5.12
22.03
35.24
45.06
52.25
57.65
62.11
66.51
71.66
77.92
84.81
90.82
93.69
91.07
81.24
63.78
39.9
12.38
-14.82
-37.32
-51.3
-54.69
-47.84
-33.63
-16.61
-1.58
7.84
10.07
5.49
-4.26
-17.1
-31.01
-44.08
-54.36
-59.98
-59.63
-53.17
-41.97
-28.68
-16.45
-7.91
-4.43
-5.76
-10.43
-16.25
-21.05
-23.2
-21.85
-17.02
-9.42
-0.23
9.18
17.58
24.02
27.99
29.46
28.73
26.43
23.32
20.13
17.38
15.17
13.16
10.71
7.17
2.15
-4.29
-11.65
-19.16
-26.01
-31.46
-34.84
-35.55
-33.02
-26.91
-17.35
-5.08
8.46
21.53
32.39
39.86
43.53
43.89
42.05
39.37
37.03
35.78
35.82
36.94
38.64
40.34
41.39
41.15
38.96
34.32
27.11
17.71
6.96
-3.98
-14.01
-22.29
-28.35
-31.96
-32.97
-31.26
-26.76
-19.7
-10.84
-1.43
6.99
13.07
16.07
16.17
14.31
11.75
9.52
8.0
6.86
5.42
3.03
-0.65
-5.61
-11.81
-19.34
-28.37
-38.85
-50.17
-61.0
-69.62
-74.52
-74.95
-71.16
-64.13
-54.99
-44.61
-33.33
-21.31
-8.87
3.17
13.49
20.61
23.46
21.83
16.49
9.07
1.42
-4.94
-9.33
-11.95
-13.63
-15.3
-17.54
-20.52
-24.14
-28.24
-32.81
-37.77
-42.74
-46.93
-49.33
-49.19
-46.47
-41.87
-36.4
-30.86
-25.39
-19.58
-12.95
-5.44
2.46
9.95
16.36
21.47
25.46
28.62
31.05
32.58
32.96
32.09
30.08
27.11
23.31
18.64
13.12
6.95
0.56
-5.44
-10.54
-14.49
-17.25
-18.83
-19.17
-17.97
-14.88
-9.62
-2.12
7.33
18.15
29.45
40.16
49.13
55.42
58.57
58.74
56.71
53.61
50.46
47.68
44.81
40.71
34.07
24.2
11.56
-2.22
-14.91
-24.55
-30.26
-32.51
-32.74
-32.65
-33.38
-35.2
-37.59
-39.72
-41.0
-41.34
-41.25
-41.55
-43.02
-46.04
-50.35
-54.96
-58.4
-59.07
-55.73
-47.89
-36.01
-21.36
-5.82
8.52
19.68
26.15
27.36
23.87
17.45
10.62
5.91
5.02
8.28
14.68
22.4
29.66
35.37
39.33
41.98
43.88
45.32
46.16
46.03
44.58
41.72
37.7
32.97
28.1
23.6
19.84
16.99
14.96
13.41
11.72
9.19
5.31
0.13
-5.54
-10.28
-12.52
-11.2
-6.37
0.72
8.05
13.49
15.58
13.95
9.26
2.85
-3.74
-9.29
-13.12
-15.19
-15.98
-16.23
-16.62
-17.51
-18.75
-19.75
-19.79
-18.25
-14.84
-9.68
-3.22
3.9
11.05
17.75
23.85
29.55
35.31
41.56
48.26
54.72
59.56
61.13
58.12
50.14
37.98
23.51
9.11
-2.97
-11.17
-14.9
-14.44
-10.74
-5.11
1.1
6.65
10.59
12.45
12.27
10.52
7.86
4.87
1.8
-1.38
-4.75
-8.24
-11.62
-14.61
-17.14
-19.4
-21.72
-24.35
-27.28
-30.36
-33.55
-37.06
-41.29
-46.46
-52.2
-57.4
-60.48
-60.07
-55.52
-47.35
-37.06
-26.7
-18.2
-13.06
-11.95
-14.64
-20.08
-26.53
-31.9
-34.29
-32.66
-27.25
-19.67
-12.27
-7.31
-6.13
-8.84
-14.57
-22.04
-29.99
-37.42
-43.44
-47.12
-47.66
-44.74
-38.87
-31.37
-23.87
-17.72
-13.5
-11.06
-9.83
-9.26
-9.0
-8.81
-8.46
-7.74
-6.59
-5.28
-4.3
-3.93
-3.91
-3.42
-1.47
2.36
7.43
12.11
14.45
13.14
8.11
0.59
-7.5
-14.3
-18.72
-20.53
-20.08
-17.9
-14.44
-10.04
-5.04
0.03
4.49
7.72
9.43
9.94
10.13
11.32
14.79
21.39
31.3
44.01
58.63
74.13
89.57
103.96
116.13
124.56
127.52
123.48
111.72
92.7
68.28
41.38
15.34
-6.84
-23.12
-32.76
-36.31
-35.35
-32.02
-28.58
-26.84
-27.8
-31.4
-36.62
-41.9
-45.66
-46.88
-45.39
-41.74
-36.89
-31.64
-26.32
-20.78
-14.64
-7.75
-0.49
6.14
10.76
12.06
9.32
2.66
-6.84
-17.42
-27.09
-34.16
-37.65
-37.32
-33.53
-26.94
-18.26
-8.2
2.49
12.96
22.31
29.85
35.23
38.57
40.28
40.81
40.47
39.31
37.26
34.3
30.67
26.91
23.77
21.85
21.31
21.57
21.31
18.73
12.2
0.82
-14.9
-32.98
-50.35
-63.73
-70.64
-70.18
-63.2
-51.85
-38.69
-25.88
-14.57
-4.89
3.68
11.79
19.84
27.8
35.24
41.44
45.54
46.77
44.78
39.88
33.17
26.21
20.51
16.95
15.5
15.49
16.09
16.81
17.72
19.23
21.63
24.71
27.77
29.92
30.52
29.49
27.21
24.2
20.75
16.84
12.22
6.74
0.57
-5.86
-12.02
-17.55
-22.28
-26.09
-28.69
-29.64
-28.57
-25.5
-21.15
-16.84
-14.08
-13.94
-16.53
-20.81
-24.87
-26.62
-24.6
-18.51
-9.34
0.96
10.25
16.89
20.13
20.16
17.71
13.57
8.27
2.03
-5.0
-12.52
-19.9
-26.32
-30.97
-33.39
-33.58
-32.0
-29.39
-26.5
-23.95
-22.14
-21.23
-21.11
-21.4
-21.38
-20.11
-16.71
-10.71
-2.26
7.85
18.41
28.15
36.03
41.36
43.79
43.28
40.09
34.79
28.23
21.39
15.1
9.77
5.34
1.33
-2.9
-7.91
-13.88
-20.49
-26.81
-31.39
-32.61
-29.29
-21.2
-9.32
4.31
17.4
28.17
36.01
41.32
44.99
47.57
48.98
48.61
45.99
41.23
35.17
29.02
23.73
19.56
16.05
12.4
7.93
2.39
-3.99
-10.74
-17.4
-23.56
-28.85
-32.81
-34.86
-34.34
-30.72
-23.65
-13.13
0.38
15.95
32.08
46.79
57.84
63.19
61.55
52.89
38.63
21.47
4.66
-8.85
-17.26
-20.32
-19.23
-16.02
-12.71
-10.69
-10.39
-11.39
-12.86
-13.91
-13.92
-12.59
-9.83
-5.72
-0.46
5.66
12.22
18.82
25.22
31.37
37.32
42.9
47.66
50.68
50.9
47.47
40.16
29.53
16.8
3.45
-9.27
-20.59
-30.32
-38.57
-45.41
-50.6
-53.52
-53.37
-49.56
-42.05
-31.55
-19.38
-7.1
3.93
12.91
19.57
23.92
25.92
25.29
21.54
14.35
3.89
-8.89
-22.32
-34.26
-42.58
-45.66
-42.93
-35.13
-24.33
-13.49
-5.59
-2.76
-5.46
-12.4
-21.01
-28.39
-32.25
-31.44
-26.07
-17.1
-5.86
6.3
18.18
28.81
37.5
43.87
47.92
50.02
50.68
50.38
49.33
47.38
44.0
38.5
30.29
19.27
6.06
-7.98
-20.99
-31.15
-37.19
-38.81
-36.75
-32.41
-27.35
-22.62
-18.48
-14.46
-9.81
-4.1
2.39
8.58
13.02
14.43
12.18
6.42
-2.05
-12.23
-23.28
-34.57
-45.76
-56.71
-67.49
-78.31
-89.47
-100.93
-112.01
-121.1
-125.9
-124.08
-114.2
-96.44
-72.69
-46.07
-19.84
3.53
22.9
38.35
50.55
60.15
67.38
72.23
74.81
75.59
75.42
75.11
75.02
74.89
73.98
71.5
67.08
60.9
53.57
45.81
38.14
30.9
24.29
18.67
14.46
12.07
11.59
12.61
14.22
15.24
14.6
11.76
6.92
0.98
-4.72
-8.88
-10.66
-9.88
-6.95
-2.63
2.25
6.98
11.01
13.94
15.55
16.05
16.15
16.93
19.47
24.21
30.66
37.41
42.73
45.31
44.74
41.53
36.58
30.59
23.68
15.54
5.96
-4.61
-14.88
-23.1
-27.88
-28.97
-27.57
-25.87
-26.1
-29.4
-35.34
-42.05
-47.06
-48.31
-44.68
-36.11
-23.43
-8.21
7.2
19.61
25.46
21.83
7.63
-15.62
-44.07
-72.7
-96.82
-113.07
-119.74
-116.29
-102.99
-80.87
-52.06
-19.95
11.14
37.0
54.76
63.56
64.63
60.46
53.8
46.93
41.22
37.07
34.36
32.82
32.5
33.84
37.26
42.6
48.57
52.93
53.32
48.49
39.02
27.22
16.08
7.78
2.84
0.23
-1.67
-4.0
-6.91
-9.82
-12.08
-13.35
-13.63
-12.83
-10.7
-7.02
-2.14
2.84
6.23
6.62
3.58
-2.05
-8.61
-14.35
-18.21
-19.9
-19.69
-17.86
-14.5
-9.61
-3.45
3.24
9.32
13.56
15.08
13.57
9.28
2.79
-5.16
-13.78
-22.14
-29.17
-33.75
-34.95
-32.33
-26.17
-17.43
-7.56
1.86
9.35
13.72
14.14
10.22
2.09
-9.5
-23.16
-37.04
-49.17
-57.81
-61.79
-60.72
-54.96
-45.54
-33.89
-21.56
-9.86
0.34
8.63
14.98
19.39
21.71
21.6
18.68
12.89
4.74
-4.58
-13.4
-19.94
-22.86
-21.73
-17.2
-10.93
-5.19
-2.13
-3.14
-8.4
-16.9
-26.83
-36.25
-43.71
-48.5
-50.61
-50.38
-48.15
-43.99
-37.71
-29.07
-18.05
-5.02
9.09
23.0
35.28
44.73
50.61
52.82
51.76
48.1
42.48
35.39
27.21
18.37
9.54
1.59
-4.69
-8.88
-11.17
-12.27
-13.11
-14.34
-16.08
-17.89
-19.13
-19.26
-18.17
-16.15
-13.7
-11.25
-8.93
-6.62
-4.06
-1.11
2.11
5.2
7.64
9.06
9.5
9.43
9.6
10.64
12.83
15.82
18.79
20.66
20.51
17.89
12.97
6.54
-0.28
-6.33
-10.79
-13.33
-14.11
-13.54
-12.01
-9.69
-6.51
-2.39
2.55
7.82
12.67
16.26
17.94
17.48
15.11
11.41
7.03
2.49
-2.0
-6.56
-11.45
-16.87
-22.79
-28.8
-34.24
-38.23
-39.95
-38.73
-34.14
-26.09
-14.85
-1.09
14.15
29.63
44.06
56.32
65.61
71.46
73.66
72.17
67.05
58.38
46.31
31.1
13.33
-5.91
-24.94
-41.6
-53.6
-59.13
-57.45
-49.22
-36.35
-21.47
-7.08
5.15
14.56
21.34
25.93
28.62
29.27
27.53
23.19
16.51
8.31
-0.17
-7.61
-12.88
-15.27
-14.46
-10.56
-4.01
4.44
13.9
23.56
32.97
42.21
51.84
62.46
74.09
85.69
95.05
99.25
95.59
82.54
60.46
31.64
-0.05
-30.06
-54.1
-69.02
-73.46
-68.13
-55.53
-39.24
-22.91
-9.27
0.34
5.92
8.23
8.05
5.75
1.17
-6.13
-16.34
-29.11
-43.3
-57.16
-68.56
-75.44
-76.26
-70.33
-57.98
-40.47
-19.65
2.44
23.95
43.54
60.35
73.99
84.25
90.88
93.41
91.08
82.99
68.39
47.11
19.93
-11.16
-43.01
-71.72
-93.34
-104.73
-104.28
-92.37
-71.24
-44.42
-15.9
10.82
33.38
50.83
63.5
72.56
79.33
84.7
88.67
90.23
87.57
78.53
61.45
36.0
3.81
-31.37
-64.24
-89.14
-101.55
-99.37
-83.38
-56.87
-24.36
9.78
42.38
71.82
97.58
119.42
136.67
147.92
151.26
144.79
127.34
98.96
61.2
16.92
-30.11
-75.72
-115.95
-147.57
-168.49
-177.84
-175.99
-164.26
-144.57
-119.14
-90.12
-59.47
-28.86
0.35
27.06
50.43
69.91
85.29
96.58
103.79
106.78
105.03
97.79
84.36
64.69
39.74
11.58
-17.01
-43.34
-65.48
-82.58
-94.58
-101.61
-103.32
-98.79
-86.86
-66.95
-39.62
-6.83
28.49
63.11
94.16
119.42
137.24
146.28
145.4
133.9
111.88
80.61
42.6
1.06
-40.77
-80.27
-115.68
-145.86
-169.75
-186.04
-193.18
-189.92
-175.92
-152.17
-120.95
-85.33
-48.52
-13.25
18.42
45.23
66.53
82.19
92.56
98.29
100.18
98.94
94.98
88.27
78.38
64.61
46.38
23.68
-2.37
-29.26
-53.24
-70.07
-76.18
-69.72
-51.14
-22.95
11.24
47.76
83.77
117.44
147.65
173.31
192.94
204.63
206.46
197.23
176.88
146.56
108.09
63.21
13.23
-40.76
-97.15
-153.07
-204.38
-246.41
-275.33
-289.27
-288.53
-274.9
-250.55
-217.39
-177.07
-131.63
-83.99
-37.82
3.32
36.99
62.42
80.29
91.86
98.01
98.77
93.42
81.06
61.4
35.12
3.94
-29.66
-62.83
-92.64
-116.25
-131.11
-135.19
-127.37
-107.75
-77.87
-40.55
0.63
42.0
80.45
113.75
140.45
159.54
170.04
170.86
160.95
139.86
108.25
68.22
23.11
-23.17
-66.95
-105.53
-137.37
-161.93
-179.17
-189.19
-191.99
-187.55
-175.96
-157.69
-133.71
-105.52
-75.02
-44.28
-15.17
10.84
32.79
50.03
61.91
67.62
66.21
57.11
40.61
18.3
-7.04
-31.95
-53.14
-68.29
-76.46
-78.14
-74.75
-68.08
-59.59
-49.97
-38.95
-25.53
-8.51
12.94
38.79
68.09
99.2
130.28
159.73
186.34
209.24
227.57
240.34
246.32
244.35
233.63
214.16
186.84
153.46
116.43
78.31
41.29
6.79
-24.59
-52.76
-77.62
-98.58
-114.44
-123.62
-124.84
-117.61
-102.62
-81.5
-56.37
-29.24
-1.7
25.15
50.47
73.47
93.27
109.01
120.11
126.47
128.53
127.12
123.12
117.14
109.23
98.94
85.42
67.83
45.64
18.95
-11.31
-43.42
-75.04
-103.47
-126.1
-140.86
-146.58
-143.23
-131.84
-114.22
-92.61
-69.25
-46.24
-25.38
-8.18
4.35
11.81
14.63
13.98
11.4
8.29
5.42
2.72
-0.51
-5.2
-12.14
-21.6
-33.36
-46.84
-61.4
-76.41
-91.34
-105.55
-118.25
-128.47
-135.18
-137.49
-134.83
-127.06
-114.52
-98.06
-78.89
-58.5
-38.42
-19.95
-4.06
8.75
18.27
24.5
27.47
27.28
24.31
19.33
13.53
8.23
4.5
2.72
2.57
3.23
3.8
3.83
3.53
3.72
5.53
9.94
17.39
27.6
39.57
51.79
62.59
70.37
73.97
72.85
67.24
58.06
46.72
34.67
23.0
12.2
2.21
-7.27
-16.38
-24.98
-32.7
-39.29
-44.78
-49.39
-53.22
-55.97
-56.9
-55.29
-50.92
-44.45
-37.25
-30.78
-25.94
-22.67
-20.22
-17.7
-14.64
-11.25
-8.1
-5.53
-3.27
-0.33
4.62
12.74
24.56
39.86
57.8
77.19
96.7
114.88
130.14
140.75
144.94
141.25
128.89
108.12
80.41
48.24
14.69
-17.2
-45.01
-67.27
-83.5
-93.96
-99.2
-99.71
-95.77
-87.61
-75.59
-60.52
-43.61
-26.22
-9.55
5.66
19.16
31.0
41.13
49.19
54.52
56.49
54.79
49.73
42.14
33.03
23.15
12.76
1.61
-10.8
-24.81
-40.33
-56.63
-72.3
-85.5
-94.23
-96.81
-92.3
-80.81
-63.55
-42.63
-20.57
0.26
18.08
32.06
42.26
49.46
54.79
59.2
63.09
66.05
66.97
64.37
56.99
44.2
26.28
4.4
-19.52
-43.0
-63.22
-77.3
-82.84
-78.43
-64.24
-42.09
-15.07
13.24
39.66
62.05
79.49
92.05
100.37
105.36
107.95
109.06
109.49
109.83
110.29
110.6
109.97
107.09
100.39
88.35
70.09
45.93
17.71
-11.46
-37.9
-58.51
-71.59
-77.23
-76.91
-72.61
-66.04
-58.23
-49.6
-40.35
-30.72
-20.97
-11.24
-1.31
9.25
20.89
33.73
47.53
61.69
75.48
88.26
99.48
108.83
116.2
121.73
125.71
128.36
129.47
128.09
122.56
110.97
91.76
64.46
30.04
-9.09
-49.5
-87.4
-119.45
-143.42
-158.56
-165.55
-166.01
-161.74
-154.08
-143.63
-130.43
-114.45
-96.02
-76.0
-55.51
-35.57
-16.87
0.25
15.65
29.16
40.67
50.24
58.09
64.63
70.16
74.67
77.71
78.47
75.99
69.32
57.7
40.69
18.35
-8.54
-38.44
-69.17
-98.31
-123.54
-142.88
-154.64
-157.4
-150.17
-132.88
-106.75
-74.54
-40.03
-7.05
21.52
44.41
61.82
74.81
84.5
91.49
95.86
97.34
95.62
90.32
80.99
67.08
48.07
23.78
-5.09
-36.81
-68.58
-96.92
-118.35
-130.17
-131.03
-121.19
-102.31
-77.0
-48.22
-18.81
8.83
32.87
52.17
66.3
75.61
81.05
83.84
84.93
84.53
81.89
75.44
63.24
43.81
16.81
-16.32
-52.32
-86.42
-113.32
-128.3
-128.4
-113.24
-85.16
-48.71
-9.62
26.5
55.26
74.26
83.17
83.45
77.65
68.58
58.59
49.05
40.24
31.53
21.83
10.15
-4.0
-20.31
-37.73
-54.63
-69.06
-78.99
-82.62
-78.64
-66.64
-47.27
-22.31
5.8
34.42
61.47
85.71
106.61
123.94
136.97
144.18
143.44
132.78
111.33
80.01
41.63
0.36
-39.29
-73.48
-99.76
-117.19
-126.09
-127.39
-122.18
-111.48
-96.28
-77.68
-56.96
-35.42
-14.07
6.49
26.01
44.27
60.68
74.13
83.2
86.62
83.8
74.98
61.12
43.54
23.66
2.89
-17.46
-36.24
-52.61
-66.19
-77.02
-85.27
-90.9
-93.46
-92.3
-86.92
-77.33
-64.22
-48.74
-32.1
-15.19
1.53
17.92
33.78
48.52
61.15
70.44
75.26
75.07
70.21
61.9
51.77
41.35
31.57
22.62
14.03
4.96
-5.1
-15.79
-25.87
-33.55
-37.16
-35.88
-29.91
-20.71
-10.74
-2.54
2.16
2.93
0.39
-4.15
-8.99
-11.99
-11.34
-6.56
0.99
8.26
11.51
7.65
-3.67
-19.07
-31.78
-34.71
-24.14
-1.38
27.7
55.38
74.49
80.84
71.65
48.53
18.39
-10.7
-34.25
-51.5
-62.09
-64.88
-58.21
-42.17
-19.67
3.22
18.52
21.62
11.38
-9.17
-35.03
-60.73
-82.25
-97.16
-104.62
-105.08
-99.58
-89.82
-74.37
-55.13
-35.21
-17.71
-4.44
4.21
8.82
10.43
10.11
8.99
7.55
6.26
5.43
5.11
5.0
4.48
2.97
0.14
-3.72
-8.24
-12.48
-15.31
-15.68
-13.01
-7.39
0.46
9.43
18.42
26.36
32.67
37.13
39.7
40.4
39.33
36.65
32.7
27.91
22.71
17.52
12.6
7.97
3.36
-1.64
-7.45
-14.24
-21.65
-28.83
-34.43
-37.05
-35.74
-30.36
-21.67
-11.13
-0.39
9.18
16.77
22.08
25.19
26.25
25.41
22.88
18.97
14.22
9.24
4.52
0.27
-3.7
-7.77
-12.25
-17.07
-21.64
-24.95
-25.96
-23.95
-18.84
-11.25
-2.32
6.64
14.5
20.55
24.5
26.43
26.57
25.16
22.42
18.56
13.88
8.81
3.85
-0.51
-3.95
-6.42
-8.1
-9.27
-10.07
-10.4
-9.89
-8.09
-4.72
0.1
5.86
11.77
17.06
21.23
24.1
25.77
26.39
26.03
24.62
22.05
18.34
13.71
8.62
3.57
-1.05
-5.08
-8.59
-11.76
-14.74
-17.55
-20.09
-22.18
-23.58
-24.03
-23.23
-20.91
-16.87
-11.15
-4.17
3.39
10.67
16.94
21.74
24.95
26.71
27.2
26.65
25.22
23.15
20.76
18.43
16.52
15.19
14.36
13.67
12.68
11.1
8.97
6.71
5.07
4.87
6.69
10.61
16.2
22.56
28.64
33.54
36.7
38.05
37.88
36.68
34.93
32.94
30.81
28.5
25.89
22.87
19.37
15.34
10.79
5.85
0.85
-3.64
-6.86
-8.09
-6.96
-3.59
1.38
6.98
12.22
16.37
19.08
20.28
20.12
18.81
16.57
13.64
10.3
6.85
3.57
0.62
-1.98
-4.4
-6.88
-9.62
-12.68
-15.78
-18.33
-19.57
-18.78
-15.61
-10.24
-3.36
4.04
11.0
16.8
21.11
23.9
25.27
25.4
24.47
22.66
20.24
17.53
14.88
12.54
10.66
9.13
7.72
6.1
4.08
1.74
-0.46
-1.79
-1.5
0.87
5.29
11.21
17.76
24.09
29.59
33.98
37.18
39.21
40.08
39.71
38.13
35.57
32.45
29.32
26.65
24.62
23.0
21.25
18.67
14.71
9.08
1.92
-6.23
-14.61
-22.32
-28.56
-32.68
-34.38
-33.68
-30.98
-26.93
-22.35
-18.02
-14.6
-12.53
-12.06
-13.28
-16.12
-20.38
-25.71
-31.6
-37.49
-42.8
-47.18
-50.5
-52.9
-54.62
-55.77
-56.23
-55.57
-53.3
-49.1
-43.09
-35.8
-28.1
-20.85
-14.64
-9.74
-6.06
-3.36
-1.44
-0.17
0.5
0.61
0.29
-0.25
-0.75
-1.01
-0.99
-0.85
-0.83
-1.17
-1.86
-2.66
-3.07
-2.56
-0.77
2.33
6.41
10.88
15.12
18.66
21.3
23.08
24.16
24.71
24.81
24.46
23.6
22.15
20.02
17.16
13.5
9.03
3.75
-2.27
-8.95
-16.15
-23.63
-30.98
-37.55
-42.59
-45.38
-45.49
-42.95
-38.32
-32.45
-26.3
-20.62
-15.89
-12.3
-9.88
-8.62
-8.44
-9.22
-10.69
-12.44
-14.07
-15.31
-16.15
-16.86
-17.86
-19.5
-21.93
-24.95
-28.03
-30.39
-31.18
-29.74
-25.8
-19.61
-11.93
-3.77
3.91
10.47
15.68
19.65
22.57
24.6
25.78
26.15
25.87
25.23
24.54
23.94
23.3
22.23
20.23
16.98
12.48
7.17
1.87
-2.46
-5.01
-5.35
-3.53
-0.06
4.35
8.95
13.22
16.86
19.73
21.7
22.64
22.45
21.16
19.02
16.46
13.91
11.64
9.65
7.74
5.59
2.96
-0.22
-3.9
-7.85
-11.72
-15.06
-17.34
-18.06
-16.93
-14.03
-9.83
-5.08
-0.53
3.23
5.91
7.5
8.06
7.71
6.53
4.64
2.26
-0.33
-2.87
-5.21
-7.35
-9.45
-11.7
-14.23
-17.03
-19.9
-22.41
-24.02
-24.19
-22.54
-19.03
-14.0
-8.02
-1.78
4.19
9.56
14.17
17.9
20.63
22.26
22.79
22.38
21.31
19.87
18.27
16.56
14.62
12.33
9.59
6.33
2.61
-1.38
-5.29
-8.58
-10.65
-11.03
-9.53
-6.37
-2.08
2.66
7.26
11.27
14.44
16.6
17.66
17.61
16.58
14.86
12.82
10.73
8.71
6.69
4.49
1.96
-0.98
-4.28
-7.79
-11.25
-14.21
-16.16
-16.54
-14.99
-11.51
-6.58
-0.99
4.42
9.03
12.65
15.39
17.4
18.7
19.13
18.49
16.75
14.19
11.29
8.55
6.25
4.32
2.46
0.32
-2.26
-5.24
-8.38
-11.35
-13.85
-15.66
-16.6
-16.51
-15.34
-13.03
-9.64
-5.35
-0.52
4.26
8.3
10.95
11.78
10.77
8.4
5.46
2.75
0.83
-0.29
-1.06
-2.24
-4.57
-8.38
-13.46
-19.09
-24.25
-28.02
-29.88
-29.96
-28.88
-27.56
-26.64
-26.26
-25.91
-24.72
-22.01
-17.79
-13.02
-9.37
-8.87
-13.08
-22.55
-36.52
-52.82
-68.16
-78.73
-81.21
-74.07
-58.63
-39.03
-21.06
-9.91
-7.87
-13.32
-21.35
-25.91
-22.36
-9.09
12.27
37.96
63.74
86.16
103.15
113.84
118.17
116.69
110.39
100.73
89.51
78.58
69.64
63.78
61.34
61.81
64.06
66.62
68.19
67.87
65.41
61.21
56.16
51.49
48.48
48.16
50.99
56.61
63.9
71.34
77.56
81.82
84.38
86.3
88.97
93.4
99.61
106.39
111.52
112.54
107.58
96.06
79.01
58.62
37.56
18.0
0.84
-14.47
-29.77
-47.7
-70.85
-100.78
-136.84
-175.31
-209.48
-231.15
-233.38
-213.39
-174.28
-124.4
-74.51
-33.92
-7.54
4.87
7.2
4.26
-0.37
-5.06
-9.45
-13.27
-15.67
-15.55
-12.37
-6.89
-0.97
3.06
3.66
0.73
-4.31
-9.24
-12.01
-11.66
-8.57
-4.21
-0.43
1.36
0.68
-1.89
-5.1
-7.63
-8.59
-7.85
-5.97
-3.9
-2.57
-2.58
-4.09
-6.83
-10.29
-13.84
-16.9
-18.96
-19.68
-18.89
-16.6
-12.98
-8.36
-3.14
2.24
7.28
11.45
14.34
15.67
15.41
13.77
11.13
7.86
4.25
0.42
-3.54
-7.58
-11.6
-15.47
-19.13
-22.57
-25.87
-29.07
-32.07
-34.65
-36.48
-37.26
-36.88
-35.43
-33.15
-30.37
-27.33
-24.17
-20.99
-17.87
-14.95
-12.46
-10.6
-9.49
-9.07
-9.13
-9.36
-9.46
-9.28
-8.81
-8.24
-7.77
-7.65
-7.99
-8.78
-9.84
-10.83
-11.32
-10.9
-9.32
-6.56
-2.88
1.24
5.29
8.87
11.76
13.85
15.14
15.63
15.38
14.52
13.26
11.88
10.55
9.29
7.95
6.31
4.13
1.3
-2.18
-6.19
-10.48
-14.62
-18.11
-20.36
-20.97
-19.79
-17.03
-13.2
-8.87
-4.53
-0.5
3.04
5.94
8.08
9.32
9.68
9.28
8.39
7.31
6.28
5.41
4.62
3.77
2.65
1.13
-0.81
-3.09
-5.44
-7.57
-9.15
-9.86
-9.5
-8.0
-5.42
-2.0
1.93
5.94
9.69
12.95
15.66
17.85
19.54
20.68
21.15
20.89
19.95
18.5
16.82
15.07
13.31
11.43
9.26
6.68
3.71
0.45
-2.83
-5.86
-8.31
-9.88
-10.35
-9.64
-7.9
-5.45
-2.66
0.1
2.55
4.49
5.73
6.11
5.51
4.01
1.84
-0.62
-3.02
-5.16
-7.05
-8.85
-10.71
-12.72
-14.84
-17.06
-19.33
-21.61
-23.74
-25.35
-25.95
-25.08
-22.55
-18.56
-13.65
-8.45
-3.46
1.06
5.14
8.87
12.35
15.52
18.29
20.56
22.36
23.85
25.24
26.72
28.36
30.06
31.59
32.65
32.94
32.31
30.78
28.57
26.05
23.6
21.48
19.87
18.78
18.21
18.18
18.71
19.71
20.94
21.95
22.2
21.23
18.86
15.22
10.72
5.91
1.22
-3.09
-6.97
-10.52
-13.87
-17.08
-20.14
-22.88
-25.08
-26.46
-26.7
-25.6
-23.05
-19.19
-14.41
-9.38
-4.87
-1.6
0.0
-0.15
-1.8
-4.49
-7.73
-11.16
-14.53
-17.73
-20.69
-23.36
-25.74
-27.89
-29.9
-31.89
-33.93
-35.98
-37.92
-39.58
-40.74
-41.19
-40.76
-39.31
-36.81
-33.39
-29.3
-24.85
-20.31
-15.84
-11.45
-7.1
-2.8
1.27
4.81
7.5
9.12
9.72
9.55
8.99
8.37
7.86
7.44
6.96
6.21
5.03
3.39
1.41
-0.62
-2.32
-3.33
-3.41
-2.51
-0.76
1.57
4.15
6.66
8.79
10.28
10.87
10.41
8.83
6.23
2.79
-1.18
-5.35
-9.42
-13.15
-16.45
-19.44
-22.36
-25.53
-29.18
-33.29
-37.53
-41.31
-43.88
-44.54
-42.87
-38.79
-32.66
-25.14
-17.11
-9.37
-2.53
3.09
7.48
10.8
13.3
15.23
16.78
18.13
19.47
20.94
22.63
24.49
26.32
27.85
28.8
28.98
28.31
26.85
24.77
22.3
19.78
17.58
16.05
15.46
15.89
17.21
19.17
21.46
23.84
26.11
28.09
29.59
30.44
30.46
29.6
27.95
25.73
23.23
20.74
18.48
16.5
14.68
12.78
10.57
7.86
4.64
1.05
-2.66
-6.18
-9.2
-11.45
-12.72
-12.95
-12.22
-10.8
-9.04
-7.31
-5.84
-4.72
-3.98
-3.6
-3.62
-4.12
-5.14
-6.66
-8.61
-10.95
-13.67
-16.82
-20.38
-24.23
-28.04
-31.36
-33.75
-34.79
-34.25
-32.05
-28.3
-23.28
-17.44
-11.27
-5.24
0.33
5.28
9.63
13.39
16.51
18.85
20.21
20.47
19.74
18.33
16.68
15.18
13.97
12.89
11.58
9.64
6.85
3.25
-0.8
-4.82
-8.28
-10.77
-12.0
-11.81
-10.23
-7.46
-3.87
0.09
3.97
7.43
10.26
12.37
13.71
14.29
14.15
13.37
12.1
10.53
8.8
7.03
5.25
3.42
1.43
-0.89
-3.74
-7.18
-11.04
-14.85
-17.92
-19.57
-19.36
-17.33
-13.88
-9.68
-5.34
-1.28
2.32
5.43
8.06
10.15
11.56
12.19
12.04
11.25
10.06
8.71
7.43
6.31
5.3
4.32
3.25
2.01
0.61
-0.9
-2.42
-3.78
-4.77
-5.12
-4.63
-3.19
-0.89
2.02
5.19
8.3
11.15
13.66
15.75
17.31
18.17
18.17
17.29
15.68
13.66
11.59
9.79
8.37
7.3
6.36
5.31
3.93
2.08
-0.25
-2.91
-5.6
-7.9
-9.35
-9.58
-8.43
-6.02
-2.73
0.9
4.34
7.14
9.02
9.86
9.66
8.55
6.78
4.62
2.34
0.1
-2.01
-4.05
-6.09
-8.21
-10.54
-13.18
-16.28
-19.85
-23.66
-27.15
-29.51
-29.97
-28.0
-23.63
-17.34
-9.97
-2.37
4.82
11.24
16.79
21.49
25.35
28.36
30.51
31.86
32.55
32.8
32.8
32.66
32.37
31.76
30.6
28.65
25.73
21.77
16.87
11.31
5.55
0.21
-4.07
-6.75
-7.54
-6.45
-3.77
0.04
4.45
8.94
13.03
16.24
18.15
18.48
17.21
14.63
11.27
7.72
4.45
1.62
-0.95
-3.68
-7.04
-11.39
-16.83
-23.18
-29.97
-36.5
-41.98
-45.73
-47.28
-46.55
-43.81
-39.56
-34.4
-28.88
-23.46
-18.44
-14.07
-10.54
-8.02
-6.68
-6.54
-7.46
-9.17
-11.25
-13.31
-15.03
-16.33
-17.37
-18.41
-19.75
-21.5
-23.5
-25.26
-26.14
-25.53
-23.03
-18.62
-12.65
-5.78
1.21
7.64
13.03
17.11
19.78
21.07
21.07
19.95
18.01
15.57
13.03
10.68
8.7
7.07
5.57
3.82
1.41
-1.93
-6.18
-10.84
-15.03
-17.71
-17.97
-15.41
-10.31
-3.45
4.09
11.33
17.61
22.67
26.47
29.03
30.3
30.16
28.56
25.62
21.69
17.24
12.74
8.45
4.39
0.32
-4.11
-9.2
-15.01
-21.25
-27.26
-32.13
-34.92
-34.97
-32.07
-26.54
-19.05
-10.43
-1.44
7.34
15.46
22.55
28.24
32.22
34.34
34.62
33.35
30.98
27.98
24.77
21.6
18.51
15.32
11.78
7.6
2.59
-3.27
-9.71
-16.22
-22.04
-26.29
-28.24
-27.44
-24.0
-18.48
-11.77
-4.8
1.73
7.42
12.14
15.84
18.44
19.82
19.91
18.81
16.85
14.46
12.01
9.65
7.27
4.56
1.16
-3.19
-8.52
-14.55
-20.64
-25.87
-29.19
-29.76
-27.24
-21.94
-14.76
-6.86
0.72
7.3
12.61
16.61
19.28
20.48
20.08
18.11
14.93
11.21
7.69
4.93
3.05
1.73
0.37
-1.67
-4.77
-8.88
-13.53
-17.89
-20.98
-21.96
-20.33
-16.07
-9.61
-1.76
6.58
14.57
21.59
27.25
31.34
33.78
34.54
33.71
31.51
28.27
24.43
20.43
16.63
13.21
10.1
7.05
3.66
-0.44
-5.45
-11.25
-17.41
-23.19
-27.76
-30.36
-30.52
-28.19
-23.67
-17.57
-10.63
-3.59
2.86
8.1
11.69
13.33
12.95
10.7
6.98
2.34
-2.6
-7.29
-11.36
-14.68
-17.42
-19.99
-22.88
-26.41
-30.58
-34.86
-38.33
-39.86
-38.5
-33.76
-25.85
-15.61
-4.3
6.81
16.75
24.93
31.12
35.21
37.09
36.67
34.0
29.47
23.77
17.81
12.34
7.76
3.97
0.55
-3.07
-7.37
-12.43
-17.96
-23.19
-27.06
-28.48
-26.63
-21.26
-12.8
-2.29
8.96
19.69
28.95
36.21
41.25
44.03
44.61
43.14
39.9
35.34
30.0
24.44
19.07
14.08
9.42
4.91
0.27
-4.76
-10.31
-16.35
-22.54
-28.22
-32.47
-34.29
-32.93
-28.17
-20.41
-10.66
-0.14
10.02
19.08
26.69
32.76
37.2
39.87
40.54
39.14
35.9
31.4
26.45
21.77
17.83
14.65
11.9
9.04
5.57
1.17
-4.17
-10.08
-15.86
-20.57
-23.22
-23.04
-19.77
-13.76
-5.86
2.79
11.15
18.49
24.42
28.81
31.59
32.73
32.23
30.22
27.03
23.12
18.98
14.99
11.34
8.07
5.08
2.2
-0.78
-4.07
-7.85
-12.08
-16.46
-20.4
-23.17
-24.16
-23.12
-20.3
-16.35
-12.12
-8.29
-5.27
-3.07
-1.48
-0.31
0.54
0.98
0.87
0.16
-1.06
-2.49
-3.8
-4.72
-5.22
-5.49
-5.87
-6.68
-8.16
-10.33
-13.02
-15.93
-18.61
-20.53
-21.18
-20.13
-17.22
-12.6
-6.76
-0.37
5.89
11.45
15.93
19.05
20.67
20.73
19.36
16.92
13.92
10.92
8.25
5.99
3.91
1.61
-1.4
-5.46
-10.73
-16.98
-23.54
-29.31
-32.97
-33.36
-29.92
-22.93
-13.53
-3.27
6.3
14.14
19.82
23.43
25.25
25.52
24.35
21.78
17.98
13.35
8.45
3.85
-0.09
-3.32
-6.12
-8.91
-12.04
-15.68
-19.72
-23.88
-27.74
-30.9
-32.9
-33.35
-31.93
-28.45
-22.93
-15.69
-7.28
1.63
10.28
17.96
24.06
28.16
30.08
29.9
28.03
25.03
21.56
18.13
15.07
12.44
10.07
7.65
4.78
1.14
-3.39
-8.55
-13.72
-17.94
-20.22
-19.84
-16.65
-11.09
-4.09
3.32
10.26
16.18
20.8
24.0
25.64
25.57
23.67
20.07
15.18
9.62
4.05
-1.01
-5.4
-9.27
-12.95
-16.83
-21.2
-26.15
-31.48
-36.7
-41.01
-43.43
-43.03
-39.24
-32.08
-22.24
-10.97
0.33
10.46
18.66
24.64
28.47
30.32
30.4
28.91
26.15
22.5
18.43
14.3
10.35
6.64
3.06
-0.49
-4.17
-8.09
-12.39
-17.13
-22.18
-27.13
-31.25
-33.64
-33.55
-30.66
-25.2
-17.91
-9.79
-1.79
5.33
11.13
15.34
17.83
18.54
17.52
14.96
11.29
7.06
2.79
-1.1
-4.46
-7.37
-10.13
-13.15
-16.8
-21.34
-26.75
-32.63
-38.18
-42.3
-43.91
-42.23
-37.09
-28.99
-18.99
-8.36
1.76
10.59
17.72
23.08
26.73
28.79
29.42
28.84
27.39
25.5
23.62
22.04
20.87
19.92
18.84
17.24
14.78
11.37
7.2
2.86
-0.81
-2.82
-2.3
1.22
7.66
16.39
26.41
36.69
46.43
55.09
62.4
68.16
72.14
74.21
74.36
72.84
70.1
66.69
63.09
59.49
55.85
51.83
46.94
40.61
32.32
21.76
9.05
-5.16
-19.68
-33.03
-43.83
-51.18
-54.93
-55.57
-54.02
-51.23
-47.95
-44.66
-41.66
-39.22
-37.66
-37.33
-38.43
-40.91
-44.42
-48.35
-52.02
-54.92
-56.82
-57.86
-58.43
-59.07
-60.21
-62.07
-64.48
-66.92
-68.61
-68.6
-66.04
-60.38
-51.59
-40.13
-26.93
-13.12
0.19
12.15
22.17
29.97
35.41
38.47
39.22
37.89
34.85
30.69
26.08
21.64
17.75
14.48
11.55
8.42
4.55
-0.45
-6.63
-13.59
-20.57
-26.6
-30.78
-32.49
-31.6
-28.5
-23.94
-18.8
-13.84
-9.54
-6.12
-3.63
-2.08
-1.5
-1.96
-3.47
-5.98
-9.32
-13.2
-17.32
-21.37
-25.1
-28.37
-31.13
-33.42
-35.33
-36.89
-37.98
-38.24
-37.14
-34.11
-28.78
-21.17
-11.7
-1.18
9.51
19.58
28.49
35.92
41.72
45.77
48.01
48.47
47.36
45.08
42.14
39.02
36.05
33.3
30.64
27.79
24.44
20.32
15.34
9.62
3.59
-1.99
-6.19
-8.14
-7.3
-3.7
2.07
9.03
16.18
22.69
28.08
32.11
34.68
35.69
35.1
32.94
29.43
24.92
19.87
14.69
9.7
5.05
0.76
-3.27
-7.28
-11.54
-16.38
-21.98
-28.18
-34.36
-39.49
-42.37
-42.02
-38.1
-31.06
-22.06
-12.53
-3.8
3.31
8.53
12.0
14.03
14.88
14.72
13.62
11.71
9.23
6.53
3.99
1.93
0.48
-0.47
-1.23
-2.2
-3.75
-6.1
-9.26
-12.98
-16.75
-19.86
-21.52
-21.03
-18.03
-12.61
-5.26
3.23
12.06
20.54
28.17
34.6
39.6
42.99
44.72
44.88
43.7
41.51
38.67
35.49
32.16
28.74
25.2
21.38
17.1
12.2
6.66
0.66
-5.42
-11.0
-15.4
-17.98
-18.32
-16.35
-12.42
-7.2
-1.49
4.02
8.83
12.68
15.36
16.71
16.6
15.02
12.23
8.7
5.07
1.85
-0.72
-2.7
-4.44
-6.36
-8.82
-12.03
-15.94
-20.21
-24.2
-27.08
-28.01
-26.39
-22.06
-15.4
-7.19
1.61
10.1
17.65
23.88
28.61
31.73
33.17
32.89
30.98
27.73
23.6
19.1
14.77
10.95
7.74
5.02
2.46
-0.33
-3.74
-7.93
-12.76
-17.7
-21.87
-24.27
-24.04
-20.82
-14.89
-7.13
1.24
9.0
15.21
19.38
21.38
21.39
19.65
16.46
12.14
7.04
1.56
-3.91
-9.11
-13.88
-18.23
-22.24
-25.98
-29.48
-32.8
-36.02
-39.26
-42.54
-45.62
-47.94
-48.65
-46.95
-42.37
-35.07
-25.73
-15.4
-5.1
4.34
12.46
19.01
23.85
26.94
28.32
28.16
26.71
24.34
21.35
18.02
14.53
11.03
7.58
4.18
0.73
-2.96
-7.1
-11.77
-16.75
-21.47
-25.1
-26.75
-25.78
-22.02
-15.87
-8.15
0.15
8.11
15.09
20.75
24.96
27.62
28.68
28.08
25.87
22.29
17.76
12.81
7.91
3.35
-0.83
-4.83
-8.95
-13.47
-18.56
-24.15
-29.87
-35.01
-38.59
-39.64
-37.47
-32.0
-23.9
-14.37
-4.76
3.88
10.99
16.54
20.69
23.57
25.15
25.33
24.13
21.8
18.84
15.78
13.02
10.7
8.72
6.83
4.74
2.17
-1.09
-5.12
-9.75
-14.49
-18.5
-20.85
-20.73
-17.8
-12.29
-4.96
3.19
11.17
18.26
24.06
28.42
31.33
32.84
32.99
31.91
29.73
26.71
23.16
19.4
15.67
12.11
8.67
5.14
1.3
-3.06
-8.01
-13.49
-19.28
-24.98
-30.01
-33.63
-35.1
-33.87
-29.86
-23.57
-15.97
-8.24
-1.42
3.87
7.43
9.41
10.05
9.55
8.02
5.59
2.44
-1.09
-4.57
-7.6
-9.95
-11.68
-13.11
-14.69
-16.79
-19.55
-22.75
-25.81
-27.95
-28.35
-26.43
-21.99
-15.26
-6.86
2.35
11.47
19.73
26.59
31.82
35.38
37.33
37.72
36.62
34.09
30.35
25.73
20.71
15.78
11.26
7.22
3.46
-0.44
-4.93
-10.26
-16.33
-22.62
-28.28
-32.31
-33.86
-32.53
-28.44
-22.21
-14.72
-6.88
0.59
7.22
12.7
16.84
19.44
20.32
19.43
16.93
13.2
8.87
4.56
0.77
-2.31
-4.81
-7.13
-9.72
-12.96
-16.97
-21.65
-26.6
-31.12
-34.3
-35.19
-33.01
-27.51
-19.12
-8.86
1.9
11.92
20.4
27.07
32.04
35.45
37.34
37.56
35.97
32.63
27.94
22.52
17.08
12.1
7.75
3.83
-0.07
-4.39
-9.41
-15.11
-21.12
-26.75
-31.07
-33.14
-32.21
-27.99
-20.81
-11.62
-1.69
7.65
15.4
21.13
24.84
26.82
27.34
26.47
24.21
20.6
15.9
10.6
5.28
0.33
-4.13
-8.29
-12.48
-16.99
-21.92
-27.17
-32.44
-37.16
-40.56
-41.76
-39.94
-34.74
-26.37
-15.73
-4.08
7.34
17.63
26.37
33.49
38.96
42.7
44.48
44.19
41.95
38.23
33.65
28.82
24.1
19.57
15.11
10.59
5.91
1.06
-3.99
-9.27
-14.69
-19.89
-24.2
-26.72
-26.63
-23.53
-17.64
-9.78
-1.12
7.22
14.4
20.0
23.93
26.24
26.96
26.03
23.42
19.26
13.93
8.0
2.07
-3.37
-8.13
-12.31
-16.2
-20.11
-24.26
-28.74
-33.49
-38.3
-42.69
-45.93
-47.16
-45.57
-40.7
-32.72
-22.32
-10.67
1.0
11.65
20.58
27.49
32.28
35.05
35.94
35.15
32.99
29.84
26.11
22.2
18.4
14.83
11.46
8.11
4.53
0.48
-4.21
-9.48
-15.0
-20.12
-23.91
-25.45
-24.08
-19.69
-12.76
-4.31
4.51
12.68
19.57
24.93
28.66
30.67
30.81
28.91
25.0
19.51
13.13
6.73
0.97
-3.88
-7.94
-11.62
-15.35
-19.43
-24.01
-29.08
-34.47
-39.77
-44.28
-47.02
-46.96
-43.42
-36.35
-26.46
-15.04
-3.5
7.03
15.92
22.97
28.22
31.72
33.48
33.49
31.93
29.15
25.67
22.01
18.53
15.29
12.17
8.87
5.17
0.9
-3.97
-9.37
-15.1
-20.77
-25.73
-29.13
-30.07
-27.89
-22.44
-14.25
-4.36
5.94
15.48
23.46
29.52
33.6
35.77
36.1
34.64
31.54
27.07
21.63
15.69
9.67
3.86
-1.56
-6.53
-11.07
-15.29
-19.43
-23.77
-28.53
-33.64
-38.63
-42.59
-44.45
-43.32
-38.89
-31.61
-22.51
-12.9
-3.94
3.64
9.58
13.96
16.91
18.52
18.84
17.95
16.06
13.61
11.05
8.8
7.05
5.75
4.61
3.29
1.49
-0.94
-4.07
-7.8
-11.93
-16.06
-19.58
-21.76
-21.85
-19.41
-14.47
-7.6
0.24
8.05
15.01
20.68
24.93
27.74
29.04
28.72
26.7
23.14
18.5
13.48
8.82
4.98
1.99
-0.57
-3.33
-6.92
-11.73
-17.73
-24.45
-31.05
-36.47
-39.61
-39.64
-36.17
-29.46
-20.41
-10.29
-0.52
7.76
13.89
17.69
19.35
19.19
17.57
14.81
11.26
7.34
3.51
0.21
-2.3
-3.98
-5.06
-5.89
-6.89
-8.4
-10.59
-13.38
-16.39
-18.89
-19.97
-18.74
-14.67
-7.82
1.13
11.02
20.62
28.93
35.39
39.81
42.27
42.89
41.78
39.04
34.83
29.52
23.65
17.86
12.7
8.46
5.07
2.17
-0.79
-4.33
-8.81
-14.3
-20.59
-27.17
-33.27
-37.96
-40.32
-39.72
-36.01
-29.67
-21.7
-13.33
-5.63
0.68
5.31
8.23
9.53
9.28
7.55
4.48
0.39
-4.22
-8.77
-12.75
-15.92
-18.3
-20.13
-21.81
-23.69
-26.0
-28.76
-31.68
-34.21
-35.5
-34.7
-31.14
-24.63
-15.62
-5.06
5.85
16.02
24.72
31.63
36.74
40.12
41.77
41.64
39.72
36.17
31.4
26.06
20.81
16.14
12.22
8.9
5.73
2.19
-2.16
-7.45
-13.46
-19.49
-24.55
-27.49
-27.41
-23.93
-17.37
-8.72
0.67
9.49
16.74
21.92
24.89
25.74
24.58
21.54
16.78
10.63
3.61
-3.63
-10.47
-16.47
-21.48
-25.7
-29.6
-33.77
-38.75
-44.87
-52.08
-59.81
-67.03
-72.32
-74.22
-71.6
-64.07
-52.14
-37.09
-20.59
-4.27
10.68
23.6
34.33
42.93
49.52
54.23
57.21
58.72
59.17
59.01
58.59
58.04
57.21
55.76
53.33
49.64
44.62
38.39
31.18
23.39
15.65
8.82
3.93
1.98
3.55
8.59
16.31
25.37
34.27
41.76
47.04
49.79
50.06
48.04
43.97
38.15
30.94
22.88
14.54
6.47
-0.96
-7.61
-13.53
-18.93
-24.0
-28.97
-34.02
-39.2
-44.35
-48.92
-52.03
-52.68
-50.09
-44.03
-35.07
-24.35
-13.27
-3.06
5.56
12.32
17.26
20.55
22.3
22.63
21.73
19.96
17.72
15.42
13.28
11.35
9.57
7.88
6.25
4.7
3.18
1.47
-0.76
-3.77
-7.53
-11.55
-14.9
-16.5
-15.51
-11.73
-5.67
1.62
8.93
15.38
20.62
24.72
27.91
30.24
31.51
31.34
29.52
26.25
22.12
17.92
14.28
11.47
9.35
7.6
5.84
3.78
1.16
-2.23
-6.49
-11.38
-16.23
-19.95
-21.41
-19.86
-15.29
-8.47
-0.67
6.79
12.9
17.15
19.33
19.43
17.42
13.32
7.3
-0.19
-8.42
-16.47
-23.48
-28.91
-32.65
-35.06
-36.77
-38.42
-40.53
-43.27
-46.55
-49.97
-52.87
-54.36
-53.48
-49.4
-41.8
-31.08
-18.37
-5.24
6.75
16.52
23.64
28.18
30.44
30.72
29.26
26.29
22.16
17.38
12.49
7.95
4.04
0.82
-1.81
-4.04
-6.1
-8.22
-10.59
-13.34
-16.54
-20.13
-23.87
-27.32
-29.81
-30.59
-29.02
-24.86
-18.49
-10.88
-3.31
2.98
7.16
8.96
8.53
6.23
2.42
-2.59
-8.48
-14.79
-20.88
-26.13
-30.06
-32.61
-34.09
-35.07
-36.12
-37.64
-39.77
-42.43
-45.34
-47.99
-49.7
-49.57
-46.8
-40.87
-31.88
-20.63
-8.37
3.51
13.97
22.5
29.15
34.23
38.04
40.72
42.25
42.6
41.9
40.49
38.76
37.05
35.42
33.67
31.49
28.59
24.88
20.44
15.46
10.21
5.11
0.74
-1.99
-2.07
1.29
8.26
18.16
29.59
40.78
50.3
57.35
61.85
64.11
64.29
62.23
57.51
49.89
39.72
28.05
16.29
5.65
-3.33
-10.84
-17.4
-23.28
-28.18
-31.16
-31.18
-27.64
-20.83
-11.84
-2.24
6.49
13.15
17.03
17.46
13.84
5.71
-6.74
-22.17
-37.78
-49.76
-54.44
-49.75
-36.36
-17.73
1.07
15.21
21.83
20.73
13.9
4.08
-6.52
-16.96
-27.23
-37.53
-47.55
-56.38
-63.0
-66.78
-67.86
-66.91
-64.57
-61.04
-55.97
-48.93
-39.67
-28.61
-16.69
-5.05
5.45
14.42
22.02
28.68
34.84
40.72
46.26
51.26
55.47
58.79
61.23
62.87
63.77
63.92
63.26
61.74
59.36
56.23
52.62
48.99
45.91
43.99
43.67
44.99
47.56
50.57
53.15
54.57
54.52
53.08
50.5
47.01
42.69
37.55
31.66
25.33
19.0
13.16
8.12
3.9
0.28
-3.13
-6.75
-10.96
-16.04
-22.19
-29.43
-37.52
-45.92
-53.74
-60.0
-63.78
-64.55
-62.29
-57.56
-51.23
-44.3
-37.61
-31.7
-26.82
-23.04
-20.32
-18.62
-17.93
-18.14
-19.1
-20.5
-22.04
-23.48
-24.75
-25.92
-27.18
-28.74
-30.81
-33.58
-37.15
-41.47
-46.2
-50.6
-53.64
-54.27
-51.76
-45.99
-37.53
-27.41
-16.76
-6.52
2.75
10.8
17.56
22.96
26.98
29.57
30.82
30.92
30.12
28.69
26.83
24.68
22.3
19.67
16.78
13.55
9.88
5.63
0.68
-4.92
-10.86
-16.44
-20.68
-22.6
-21.53
-17.39
-10.75
-2.69
5.59
13.09
19.17
23.6
26.36
27.52
27.17
25.4
22.47
18.76
14.76
10.88
7.37
4.23
1.3
-1.59
-4.52
-7.44
-10.25
-12.97
-15.75
-18.81
-22.24
-25.76
-28.7
-30.05
-28.9
-24.74
-17.77
-8.83
0.84
9.96
17.6
23.31
27.06
29.1
29.73
29.2
27.72
25.49
22.8
19.91
17.04
14.27
11.54
8.68
5.53
2.07
-1.61
-5.38
-9.18
-13.09
-17.33
-21.94
-26.69
-30.88
-33.55
-33.8
-31.18
-25.95
-18.94
-11.3
-4.09
2.01
6.69
9.87
11.54
11.68
10.36
7.79
4.36
0.52
-3.34
-6.98
-10.31
-13.3
-15.95
-18.25
-20.27
-22.24
-24.44
-27.1
-30.18
-33.23
-35.47
-35.99
-34.11
-29.57
-22.7
-14.23
-5.13
3.68
11.5
17.95
22.9
26.4
28.54
29.41
29.12
27.84
25.79
23.27
20.58
17.95
15.51
13.29
11.27
9.37
7.52
5.54
3.2
0.21
-3.6
-8.14
-12.89
-16.97
-19.32
-19.07
-15.86
-10.0
-2.37
5.82
13.45
19.75
24.38
27.34
28.83
29.03
28.1
26.14
23.28
19.78
15.89
11.9
7.98
4.19
0.46
-3.3
-7.21
-11.39
-15.86
-20.61
-25.47
-30.11
-33.94
-36.14
-35.95
-32.83
-26.78
-18.4
-8.75
0.92
9.57
16.58
21.77
25.3
27.44
28.36
28.13
26.81
24.51
21.55
18.35
15.38
13.02
11.41
10.48
10.03
9.78
9.49
8.95
7.89
6.1
3.43
-0.06
-3.95
-7.51
-9.79
-9.98
-7.61
-2.82
3.74
11.02
17.92
23.56
27.48
29.62
30.23
29.6
27.95
25.41
22.08
18.17
14.04
10.16
6.91
4.49
2.8
1.58
0.49
-0.75
-2.35
-4.42
-6.96
-9.72
-12.12
-13.32
-12.43
-8.86
-2.62
5.65
14.87
23.85
31.67
37.77
41.97
44.29
44.87
43.89
41.52
37.97
33.46
28.18
22.3
15.96
9.3
2.55
-4.02
-10.1
-15.44
-19.9
-23.53
-26.58
-29.45
-32.54
-36.12
-40.06
-43.85
-46.61
-47.36
-45.32
-40.21
-32.41
-22.82
-12.71
-3.25
4.66
10.59
14.5
16.64
17.32
16.85
15.49
13.46
10.94
8.09
5.06
1.94
-1.17
-4.23
-7.15
-9.89
-12.45
-14.9
-17.5
-20.56
-24.29
-28.55
-32.75
-35.86
-36.71
-34.46
-28.94
-20.82
-11.38
-2.09
5.81
11.63
15.25
16.98
17.2
16.23
14.19
11.15
7.17
2.5
-2.48
-7.3
-11.56
-15.05
-17.79
-19.98
-21.94
-23.96
-26.35
-29.36
-33.18
-37.81
-42.82
-47.28
-49.86
-49.22
-44.53
-35.83
-24.11
-11.04
1.67
12.65
21.25
27.4
31.4
33.67
34.57
34.38
33.29
31.45
28.98
26.0
22.66
19.13
15.6
12.21
8.96
5.77
2.42
-1.32
-5.66
-10.7
-16.34
-22.16
-27.35
-30.83
-31.54
-28.82
-22.76
-14.28
-4.85
3.99
11.08
15.87
18.44
19.24
18.78
17.45
15.52
13.14
10.41
7.4
4.19
0.83
-2.56
-5.88
-8.96
-11.64
-13.81
-15.41
-16.55
-17.5
-18.69
-20.52
-23.12
-26.04
-28.31
-28.59
-25.71
-19.18
-9.48
2.04
13.62
23.66
31.19
35.99
38.37
38.83
37.8
35.51
32.04
27.5
22.12
16.26
10.38
4.87
-0.05
-4.35
-8.2
-11.84
-15.57
-19.67
-24.39
-29.88
-36.06
-42.48
-48.28
-52.31
-53.45
-51.01
-45.12
-36.8
-27.73
-19.74
-14.14
-11.34
-10.82
-11.38
-11.74
-10.93
-8.54
-4.67
0.36
6.18
12.47
18.89
25.02
30.33
34.36
36.83
37.81
37.63
36.73
35.39
33.74
31.79
29.59
27.43
25.79
25.23
26.19
28.65
32.17
35.9
38.93
40.53
40.44
38.83
36.19
33.01
29.63
26.11
22.39
18.35
14.03
9.57
5.2
1.13
-2.54
-5.78
-8.65
-11.27
-13.81
-16.53
-19.69
-23.46
-27.7
-31.84
-34.93
-35.91
-34.04
-29.21
-22.05
-13.76
-5.67
1.14
6.15
9.31
10.87
11.11
10.2
8.25
5.4
1.89
-1.91
-5.57
-8.8
-11.44
-13.48
-15.02
-16.15
-16.99
-17.65
-18.36
-19.42
-21.02
-23.09
-25.15
-26.3
-25.53
-22.09
-15.83
-7.37
2.1
11.19
18.71
23.98
26.86
27.61
26.63
24.3
20.91
16.69
11.92
7.04
2.52
-1.16
-3.79
-5.45
-6.51
-7.52
-8.95
-11.12
-14.12
-17.76
-21.64
-25.11
-27.29
-27.23
-24.19
-17.95
-9.0
1.48
12.02
21.27
28.35
32.98
35.35
35.83
34.8
32.53
29.26
25.28
20.93
16.6
12.61
9.18
6.34
4.04
2.15
0.51
-1.03
-2.61
-4.32
-6.28
-8.49
-10.77
-12.66
-13.38
-12.02
-7.82
-0.54
9.31
20.49
31.33
40.29
46.34
49.22
49.32
47.4
44.17
40.18
35.72
31.01
26.24
21.57
17.13
12.9
8.8
4.74
0.75
-3.0
-6.29
-9.01
-11.26
-13.39
-15.87
-19.06
-23.05
-27.53
-31.76
-34.77
-35.6
-33.56
-28.53
-21.09
-12.37
-3.8
3.36
8.35
11.03
11.74
11.06
9.46
7.24
4.51
1.39
-1.91
-5.07
-7.73
-9.64
-10.73
-11.09
-10.93
-10.56
-10.27
-10.34
-10.96
-12.18
-13.84
-15.55
-16.74
-16.78
-15.1
-11.43
-5.84
1.14
8.66
15.69
21.33
25.0
26.58
26.31
24.62
21.96
18.68
15.02
11.14
7.16
3.23
-0.53
-4.0
-7.07
-9.66
-11.73
-13.36
-14.76
-16.25
-18.21
-20.85
-24.1
-27.49
-30.22
-31.32
-29.99
-25.86
-19.16
-10.71
-1.69
6.65
13.36
17.93
20.36
20.97
20.21
18.53
16.25
13.62
10.84
8.13
5.67
3.62
2.02
0.81
-0.14
-0.95
-1.71
-2.49
-3.37
-4.5
-6.04
-8.07
-10.42
-12.62
-13.9
-13.49
-10.79
-5.75
1.18
9.09
16.86
23.53
28.41
31.22
32.03
31.11
28.79
25.4
21.22
16.5
11.47
6.39
1.52
-2.95
-6.91
-10.33
-13.29
-15.89
-18.21
-20.35
-22.49
-24.8
-27.46
-30.45
-33.45
-35.77
-36.55
-34.97
-30.64
-23.75
-15.12
-5.91
2.63
9.59
14.48
17.33
18.48
18.39
17.41
15.81
13.73
11.3
8.69
6.1
3.72
1.61
-0.26
-1.99
-3.67
-5.32
-6.9
-8.47
-10.2
-12.32
-14.91
-17.65
-19.71
-19.95
-17.34
-11.46
-2.75
7.56
17.91
26.87
33.59
37.84
39.83
39.95
38.54
35.89
32.28
28.04
23.61
19.39
15.73
12.8
10.58
8.91
7.56
6.28
4.85
3.03
0.54
-2.95
-7.65
-13.47
-19.79
-25.46
-29.09
-29.43
-25.93
-18.98
-9.76
0.1
9.07
16.12
20.82
23.21
23.67
22.67
20.72
18.26
15.7
13.31
11.25
9.55
8.18
7.05
6.06
5.09
3.97
2.59
0.9
-1.1
-3.42
-6.15
-9.46
-13.38
-17.63
-21.51
-23.98
-24.03
-21.14
-15.54
-8.21
-0.53
6.2
11.15
14.07
15.23
15.06
13.99
12.25
9.98
7.24
4.16
0.96
-2.11
-4.83
-7.13
-9.07
-10.85
-12.67
-14.71
-17.09
-19.92
-23.31
-27.33
-31.88
-36.49
-40.33
-42.32
-41.51
-37.47
-30.56
-21.9
-12.98
-5.23
0.45
3.79
5.01
4.59
2.99
0.61
-2.22
-5.17
-7.82
-9.84
-11.02
-11.34
-10.98
-10.22
-9.31
-8.49
-7.92
-7.73
-8.09
-9.17
-11.03
-13.52
-16.11
-17.93
-18.0
-15.53
-10.28
-2.77
5.89
14.34
21.45
26.6
29.75
31.23
31.41
30.51
28.53
25.47
21.43
16.75
11.94
7.52
3.81
0.89
-1.43
-3.49
-5.64
-8.17
-11.31
-15.14
-19.61
-24.37
-28.76
-31.8
-32.51
-30.13
-24.52
-16.25
-6.46
3.45
12.22
19.02
23.5
25.72
26.01
24.83
22.69
20.1
17.5
15.19
13.29
11.79
10.56
9.49
8.51
7.6
6.82
6.18
5.6
4.82
3.49
1.14
-2.54
-7.57
-13.43
-19.09
-23.21
-24.49
-22.18
-16.34
-7.85
1.79
10.94
18.28
23.09
25.27
25.16
23.26
19.99
15.65
10.48
4.78
-1.04
-6.46
-11.01
-14.42
-16.71
-18.17
-19.2
-20.23
-21.59
-23.54
-26.24
-29.71
-33.69
-37.48
-40.07
-40.32
-37.43
-31.23
-22.41
-12.27
-2.38
5.99
12.14
16.01
18.0
18.71
18.69
18.29
17.7
16.93
15.98
14.88
13.68
12.47
11.27
10.06
8.77
7.36
5.85
4.2
2.25
-0.28
-3.68
-8.0
-12.82
-17.16
-19.76
-19.51
-15.89
-9.24
-0.63
8.49
16.81
23.46
28.14
30.97
32.26
32.39
31.6
30.12
28.1
25.65
22.87
19.78
16.37
12.59
8.41
3.82
-1.14
-6.34
-11.65
-16.99
-22.35
-27.84
-33.51
-39.19
-44.36
-48.13
-49.43
-47.42
-41.83
-33.12
-22.43
-11.18
-0.74
7.9
14.24
18.25
20.2
20.59
20.02
19.1
18.37
18.15
18.52
19.33
20.24
20.91
21.03
20.4
18.95
16.68
13.67
9.99
5.64
0.56
-5.3
-11.8
-18.38
-24.04
-27.5
-27.64
-23.98
-16.9
-7.65
2.15
11.0
17.97
22.78
25.61
26.77
26.49
24.84
21.89
17.84
13.13
8.3
3.92
0.36
-2.31
-4.25
-5.78
-7.24
-8.89
-10.95
-13.56
-16.82
-20.68
-24.78
-28.29
-30.09
-28.99
-24.26
-15.96
-5.07
6.79
17.92
27.02
33.49
37.44
39.34
39.76
39.06
37.44
34.94
31.61
27.59
23.03
18.07
12.87
7.51
2.11
-3.19
-8.2
-12.79
-16.85
-20.43
-23.68
-26.82
-30.02
-33.23
-36.05
-37.82
-37.69
-34.93
-29.3
-21.14
-11.4
-1.39
7.66
14.81
19.68
22.31
23.06
22.37
20.65
18.21
15.28
12.02
8.56
5.02
1.51
-1.91
-5.18
-8.28
-11.17
-13.78
-16.04
-17.96
-19.63
-21.34
-23.44
-26.18
-29.49
-32.83
-35.22
-35.57
-33.06
-27.46
-19.21
-9.36
0.83
10.18
17.86
23.45
26.92
28.49
28.45
27.1
24.67
21.37
17.43
13.17
8.97
5.17
1.98
-0.62
-2.86
-5.02
-7.3
-9.8
-12.5
-15.36
-18.43
-21.66
-24.8
-27.28
-28.25
-26.9
-22.78
-16.06
-7.56
1.54
10.01
16.97
21.96
24.97
26.29
26.32
25.46
24.05
22.28
20.24
17.9
15.21
12.23
9.07
5.97
3.14
0.7
-1.34
-3.08
-4.66
-6.25
-7.99
-10.03
-12.41
-14.96
-17.2
-18.38
-17.72
-14.73
-9.44
-2.48
5.07
12.09
17.71
21.48
23.37
23.58
22.41
20.12
17.0
13.34
9.48
5.75
2.36
-0.59
-3.13
-5.34
-7.26
-8.89
-10.17
-11.07
-11.7
-12.32
-13.27
-14.96
-17.6
-21.08
-24.88
-28.1
-29.67
-28.71
-24.79
-18.17
-9.72
-0.73
7.55
14.15
18.64
21.04
21.75
21.23
19.93
18.16
16.11
13.89
11.62
9.4
7.33
5.49
3.91
2.52
1.24
-0.08
-1.58
-3.43
-5.85
-9.07
-13.17
-17.98
-22.88
-26.89
-28.88
-27.98
-23.99
-17.51
-9.71
-1.99
4.57
9.39
12.49
14.19
14.89
14.83
14.08
12.61
10.42
7.59
4.33
0.91
-2.37
-5.28
-7.69
-9.59
-11.06
-12.22
-13.26
-14.42
-15.97
-18.13
-20.82
-23.51
-25.23
-24.81
-21.35
-14.67
-5.49
4.77
14.54
22.59
28.38
31.98
33.87
34.55
34.37
33.55
32.23
30.56
28.67
26.65
24.49
22.11
19.43
16.46
13.25
9.93
6.59
3.23
-0.25
-4.08
-8.53
-13.79
-19.73
-25.72
-30.68
-33.29
-32.48
-27.88
-20.03
-10.26
-0.17
8.86
16.03
21.22
24.68
26.73
27.57
27.28
25.91
23.58
20.54
17.05
13.32
9.52
5.75
2.18
-1.09
-3.91
-6.22
-8.11
-9.77
-11.56
-13.92
-17.21
-21.49
-26.36
-30.85
-33.64
-33.52
-29.78
-22.65
-13.14
-2.83
6.77
14.6
20.24
23.81
25.68
26.26
25.83
24.53
22.44
19.64
16.28
12.53
8.59
4.63
0.81
-2.77
-6.04
-8.97
-11.54
-13.84
-16.01
-18.27
-20.8
-23.63
-26.42
-28.5
-28.95
-27.01
-22.35
-15.34
-6.93
1.59
9.05
14.7
18.28
20.0
20.21
19.34
17.73
15.65
13.35
11.03
8.82
6.74
4.72
2.61
0.23
-2.51
-5.59
-8.86
-12.06
-14.99
-17.6
-20.01
-22.45
-24.96
-27.23
-28.52
-27.83
-24.39
-18.02
-9.34
0.41
9.77
17.6
23.33
26.95
28.8
29.25
28.58
26.97
24.5
21.32
17.64
13.7
9.74
6.04
2.81
0.25
-1.57
-2.72
-3.44
-4.07
-5.05
-6.78
-9.53
-13.31
-17.74
-21.97
-24.87
-25.34
-22.7
-16.98
-9.02
-0.12
8.36
15.37
20.4
23.4
24.56
24.12
22.36
19.65
16.45
13.28
10.6
8.61
7.26
6.32
5.53
4.79
4.14
3.71
3.6
3.75
3.95
3.89
3.18
1.48
-1.4
-5.3
-9.66
-13.51
-15.79
-15.69
-12.97
-8.11
-2.11
3.88
8.99
12.79
15.28
16.66
17.11
16.69
15.41
13.27
10.42
7.09
3.62
0.33
-2.57
-5.0
-7.07
-8.99
-11.02
-13.33
-16.01
-19.05
-22.39
-25.98
-29.61
-32.87
-35.09
-35.46
-33.28
-28.33
-21.05
-12.43
-3.76
3.82
9.6
13.38
15.37
15.97
15.59
14.49
12.89
10.9
8.65
6.28
3.95
1.86
0.1
-1.29
-2.4
-3.4
-4.55
-6.11
-8.36
-11.48
-15.39
-19.67
-23.46
-25.64
-25.14
-21.36
-14.51
-5.55
4.1
12.99
20.12
25.09
27.98
29.18
29.08
27.96
26.03
23.43
20.34
16.93
13.35
9.74
6.2
2.83
-0.33
-3.24
-5.94
-8.52
-11.17
-14.1
-17.55
-21.56
-25.91
-29.93
-32.56
-32.63
-29.33
-22.53
-13.04
-2.31
7.94
16.3
22.06
25.21
26.26
25.88
24.66
23.0
21.17
19.38
17.8
16.59
15.77
15.21
14.71
14.01
12.97
11.55
9.76
7.64
5.09
1.92
-2.12
-7.12
-12.81
-18.42
-22.8
-24.66
-23.09
-17.88
-9.75
-0.09
9.47
17.56
23.44
27.01
28.55
28.47
27.09
24.65
21.38
17.61
13.69
9.93
6.46
3.29
0.32
-2.46
-5.0
-7.21
-9.03
-10.59
-12.16
-14.13
-16.87
-20.53
-24.95
-29.56
-33.43
-35.43
-34.57
-30.32
-22.86
-13.06
-2.29
8.07
16.9
23.63
28.15
30.63
31.37
30.69
28.93
26.49
23.76
21.05
18.48
15.97
13.3
10.34
7.08
3.69
0.4
-2.58
-5.18
-7.47
-9.67
-12.04
-14.83
-18.11
-21.68
-24.98
-27.15
-27.24
-24.57
-19.03
-11.17
-2.11
6.8
14.4
19.98
23.32
24.63
24.32
22.84
20.59
17.94
15.22
12.71
10.62
8.99
7.74
6.67
5.55
4.24
2.71
1.06
-0.58
-2.09
-3.44
-4.72
-6.16
-8.02
-10.53
-13.65
-17.08
-20.15
-22.02
-21.96
-19.57
-14.98
-8.86
-2.17
4.14
9.36
13.14
15.42
16.31
15.97
14.52
12.13
9.03
5.49
1.86
-1.55
-4.53
-6.95
-8.76
-9.98
-10.64
-10.79
-10.58
-10.22
-10.05
-10.49
-11.93
-14.6
-18.35
-22.58
-26.33
-28.48
-28.13
-24.92
-19.16
-11.79
-4.05
2.9
8.28
11.79
13.49
13.62
12.48
10.33
7.51
4.42
1.52
-0.81
-2.4
-3.35
-3.86
-4.19
-4.41
-4.44
-4.16
-3.57
-2.92
-2.65
-3.32
-5.32
-8.7
-12.99
-17.27
-20.34
-21.1
-18.87
-13.7
-6.31
2.05
10.09
16.8
21.67
24.65
25.96
25.92
24.73
22.55
19.51
15.81
11.71
7.47
3.32
-0.64
-4.39
-7.94
-11.31
-14.51
-17.58
-20.69
-24.09
-28.08
-32.8
-38.02
-43.02
-46.69
-47.78
-45.35
-39.14
-29.71
-18.36
-6.64
4.08
12.91
19.6
24.31
27.38
29.17
29.91
29.83
29.16
28.14
27.0
25.85
24.67
23.34
21.71
19.71
17.37
14.79
12.1
9.35
6.47
3.21
-0.78
-5.83
-11.89
-18.43
-24.37
-28.34
-29.14
-26.2
-19.84
-11.17
-1.76
6.91
13.8
18.48
21.01
21.69
20.86
18.75
15.51
11.29
6.29
0.81
-4.8
-10.17
-15.0
-19.13
-22.53
-25.3
-27.67
-29.91
-32.35
-35.28
-38.91
-43.22
-47.77
-51.78
-54.11
-53.64
-49.63
-42.04
-31.65
-19.8
-7.97
2.59
11.19
17.63
22.06
24.73
25.92
25.83
24.73
22.87
20.54
18.0
15.39
12.8
10.2
7.58
4.92
2.21
-0.53
-3.3
-6.17
-9.34
-13.05
-17.39
-22.08
-26.36
-29.1
-29.22
-26.17
-20.23
-12.51
-4.55
2.22
6.94
9.5
10.33
10.12
9.53
9.01
8.78
8.83
9.02
9.1
8.85
8.15
7.01
5.64
4.28
3.14
2.3
1.71
1.16
0.32
-1.18
-3.71
-7.29
-11.42
-14.95
-16.34
-14.14
-7.54
3.21
16.85
31.56
45.59
57.73
67.46
74.79
79.9
82.92
83.85
82.71
79.68
75.12
69.5
63.19
56.43
49.31
41.92
34.42
27.08
20.24
14.15
8.88
4.29
0.02
-4.39
-9.3
-14.87
-20.83
-26.44
-30.67
-32.49
-31.29
-27.14
-20.85
-13.64
-6.78
-1.2
2.72
5.04
6.04
6.02
5.18
3.58
1.34
-1.37
-4.25
-6.97
-9.23
-10.89
-11.97
-12.62
-13.01
-13.3
-13.56
-13.81
-14.15
-14.8
-16.03
-17.97
-20.42
-22.69
-23.74
-22.58
-18.64
-12.15
-4.04
4.37
11.84
17.61
21.44
23.49
24.0
23.18
21.16
18.09
14.29
10.19
6.19
2.56
-0.62
-3.47
-6.11
-8.64
-11.0
-13.09
-14.86
-16.39
-17.94
-19.91
-22.68
-26.37
-30.66
-34.74
-37.45
-37.64
-34.62
-28.45
-20.01
-10.67
-1.89
5.24
10.24
13.2
14.56
14.81
14.38
13.53
12.48
11.42
10.47
9.7
9.03
8.27
7.26
5.88
4.13
2.15
0.14
-1.7
-3.25
-4.57
-5.92
-7.72
-10.35
-13.92
-18.05
-21.81
-24.04
-23.67
-20.3
-14.32
-6.82
0.81
7.41
12.37
15.62
17.47
18.25
18.14
17.18
15.33
12.65
9.37
5.81
2.36
-0.69
-3.15
-4.99
-6.3
-7.28
-8.12
-9.06
-10.26
-11.89
-14.06
-16.8
-19.93
-22.96
-25.12
-25.55
-23.57
-18.97
-12.16
-4.02
4.34
11.95
18.19
22.87
26.12
28.18
29.26
29.45
28.78
27.3
25.11
22.39
19.34
16.15
12.93
9.75
6.67
3.75
1.03
-1.51
-3.97
-6.56
-9.53
-13.04
-17.12
-21.53
-25.7
-28.86
-30.11
-28.79
-24.66
-18.1
-10.03
-1.62
6.09
12.4
17.07
20.22
22.06
22.82
22.65
21.74
20.39
18.91
17.56
16.36
15.09
13.4
11.09
8.18
4.99
1.95
-0.65
-2.78
-4.66
-6.7
-9.24
-12.45
-16.22
-20.19
-23.76
-26.18
-26.68
-24.69
-20.06
-13.22
-5.04
3.33
10.85
16.84
21.07
23.61
24.7
24.59
23.52
21.7
19.4
16.88
14.33
11.79
9.21
6.47
3.54
0.52
-2.37
-4.87
-6.84
-8.29
-9.45
-10.72
-12.54
-15.19
-18.63
-22.45
-25.84
-27.83
-27.57
-24.67
-19.33
-12.32
-4.7
2.47
8.42
12.76
15.43
16.58
16.46
15.36
13.6
11.52
9.42
7.56
6.05
4.85
3.85
2.93
1.97
0.94
-0.19
-1.38
-2.65
-4.03
-5.65
-7.73
-10.45
-13.9
-17.8
-21.54
-24.2
-24.85
-22.89
-18.29
-11.69
-4.12
3.25
9.51
14.17
17.12
18.54
18.67
17.77
16.11
13.96
11.59
9.23
7.04
5.01
3.05
1.03
-1.17
-3.49
-5.77
-7.73
-9.2
-10.17
-10.96
-12.07
-14.02
-17.06
-20.94
-24.93
-27.99
-29.11
-27.66
-23.58
-17.37
-9.93
-2.2
5.02
11.21
16.15
19.81
22.23
23.46
23.58
22.72
21.16
19.26
17.36
15.68
14.21
12.7
10.83
8.39
5.4
2.15
-0.98
-3.68
-5.9
-7.82
-9.76
-12.06
-14.93
-18.42
-22.37
-26.37
-29.76
-31.76
-31.6
-28.89
-23.73
-16.77
-9.0
-1.4
5.25
10.5
14.19
16.28
16.85
16.03
14.12
11.53
8.73
6.11
3.92
2.19
0.83
-0.29
-1.33
-2.44
-3.69
-5.14
-6.76
-8.5
-10.33
-12.29
-14.54
-17.17
-20.11
-22.92
-24.85
-25.01
-22.75
-17.88
-10.81
-2.4
6.27
14.22
20.73
25.42
28.22
29.28
28.9
27.44
25.24
22.57
19.64
16.55
13.43
10.36
7.39
4.51
1.71
-1.02
-3.66
-6.15
-8.43
-10.59
-12.83
-15.5
-18.89
-23.05
-27.62
-31.82
-34.63
-35.16
-32.91
-27.96
-20.98
-12.91
-4.73
2.81
9.23
14.3
17.89
19.96
20.54
19.83
18.2
16.17
14.22
12.66
11.58
10.83
10.13
9.19
7.86
6.17
4.32
2.6
1.26
0.37
-0.22
-0.87
-1.95
-3.75
-6.26
-9.18
-11.88
-13.62
-13.69
-11.64
-7.43
-1.49
5.41
12.35
18.44
23.06
25.89
26.9
26.3
24.44
21.73
18.6
15.44
12.49
9.86
7.5
5.26
2.99
0.67
-1.67
-3.92
-5.99
-7.93
-9.83
-11.86
-14.18
-16.91
-20.12
-23.72
-27.41
-30.61
-32.51
-32.27
-29.35
-23.75
-16.11
-7.57
0.64
7.52
12.59
15.81
17.46
17.89
17.41
16.25
14.66
12.94
11.35
10.08
9.16
8.46
7.78
6.97
5.97
4.84
3.71
2.63
1.55
0.28
-1.49
-4.08
-7.71
-12.26
-17.26
-21.86
-25.0
-25.69
-23.4
-18.24
-10.93
-2.64
5.42
12.29
17.44
20.77
22.46
22.81
22.13
20.65
18.56
16.02
13.21
10.34
7.59
5.07
2.8
0.69
-1.36
-3.44
-5.52
-7.57
-9.55
-11.58
-13.93
-16.92
-20.73
-25.11
-29.33
-32.25
-32.72
-30.0
