2013-02-23 15:49:55
64.0
-0.0
-0.0
-0.0
-0.0
-0.0
-0.0
-0.0
-0.0
-0.0
-0.0
0.0
0.01
0.01
-0.0
-0.03
-0.05
-0.05
0.0
0.13
0.36
0.66
1.01
1.37
1.72
2.06
2.4
2.79
3.24
3.8
4.42
5.06
5.66
6.2
6.68
7.15
7.68
8.31
9.14
10.09
11.04
11.88
12.56
13.14
13.76
14.65
15.96
17.91
20.32
22.9
25.38
27.58
29.57
31.68
34.32
37.81
42.54
48.15
54.1
59.83
64.97
69.58
74.14
79.34
85.71
93.76
103.0
112.62
121.73
129.77
136.75
143.3
150.75
157.77
166.64
177.95
191.79
206.97
220.57
228.25
225.36
208.53
176.87
132.76
80.05
23.07
-34.94
-92.44
-149.16
-205.23
-260.37
-313.74
-363.87
-409.82
-450.89
-486.47
-515.68
-537.15
-549.11
-549.81
-538.17
-513.96
-478.37
-433.52
-382.03
-326.54
-269.29
-212.01
-155.97
-102.19
-51.54
-4.99
36.58
72.52
102.54
126.8
145.8
160.24
170.84
178.22
182.78
184.81
184.53
182.22
178.23
172.96
166.83
160.18
153.26
146.21
139.11
131.99
124.91
117.92
111.1
104.5
98.2
92.22
86.58
81.29
76.35
71.79
67.59
63.78
60.35
57.31
54.66
52.41
50.53
49.02
47.85
46.97
46.28
45.68
45.01
44.11
42.8
40.9
38.28
34.85
30.59
25.56
19.84
13.62
7.13
0.64
-5.57
-11.26
-16.2
-20.24
-23.28
-25.31
-26.34
-26.48
-25.85
-24.58
-22.85
-20.8
-18.53
-16.15
-13.72
-11.26
-8.81
-6.38
-3.98
-1.56
0.87
3.35
5.9
8.55
11.31
14.16
17.05
19.97
22.92
25.9
28.92
32.04
35.31
38.82
42.51
46.37
50.39
54.61
59.02
63.66
68.54
73.71
79.23
84.93
90.69
96.46
102.18
107.84
113.45
119.03
124.63
130.34
135.89
141.09
145.73
149.6
152.42
153.83
153.31
150.15
145.66
140.31
134.36
128.02
121.43
114.69
107.91
101.19
94.66
88.45
82.43
76.52
70.71
64.99
59.4
54.0
48.86
44.06
39.71
35.69
31.93
28.38
25.0
21.78
18.72
15.83
13.14
10.71
8.46
6.37
4.43
2.66
1.07
-0.32
-1.48
-2.4
-3.04
-3.46
-3.73
-3.87
-3.92
-3.91
-3.88
-3.85
-3.83
-3.84
-3.91
-4.05
-4.26
-4.54
-4.89
-5.28
-5.68
-6.07
-6.41
-6.66
-6.81
-6.85
-6.79
-6.65
-6.51
-6.38
-6.31
-6.3
-6.34
-6.42
-6.53
-6.67
-6.89
-7.24
-7.72
-8.36
-9.13
-9.95
-10.8
-11.63
-12.46
-13.35
-14.38
-15.58
-16.95
-18.4
-19.81
-21.05
-22.1
-23.01
-24.01
-25.34
-27.19
-29.62
-32.5
-35.57
-38.57
-41.39
-44.18
-47.3
-51.22
-56.26
-62.44
-69.42
-76.63
-83.51
-89.79
-95.68
-101.76
-108.83
-117.48
-127.84
-139.52
-151.81
-164.02
-175.8
-187.32
-199.16
-212.14
-227.21
-245.28
-267.02
-292.39
-320.0
-346.86
-368.76
-381.51
-382.37
-371.18
-350.41
-324.06
-296.07
-269.06
-243.92
-220.46
-198.26
-177.4
-158.48
-142.06
-128.11
-115.84
-104.06
-91.77
-78.59
-64.9
-51.59
-39.62
-29.6
-21.54
-14.96
-9.25
-3.98
0.89
5.02
8.02
9.74
10.48
10.95
11.9
13.88
16.92
20.58
24.2
27.23
29.45
31.0
32.25
33.55
35.03
36.6
37.99
38.97
39.45
39.56
39.52
39.55
39.75
40.05
40.3
40.32
40.0
39.29
38.25
36.97
35.59
34.26
33.07
32.01
30.93
29.57
27.62
24.89
21.37
17.23
12.79
8.43
4.51
1.34
-0.94
-2.3
-2.91
-2.91
-2.44
-1.55
-0.24
1.47
3.51
5.7
7.88
9.92
11.76
13.44
14.98
16.35
17.55
18.55
19.38
20.08
20.67
21.15
21.53
21.77
21.84
21.7
21.24
20.42
19.32
18.17
17.3
17.02
17.41
18.31
19.43
20.45
21.15
21.54
21.64
21.52
21.17
20.53
19.58
18.29
16.68
14.74
12.49
9.96
7.23
4.47
1.84
-0.5
-2.46
-3.91
-4.72
-4.74
-3.91
-2.32
-0.27
1.83
3.63
4.97
5.87
6.54
7.19
7.95
8.83
9.74
10.56
11.12
11.29
11.08
10.6
10.1
9.9
10.24
11.2
12.64
14.33
15.99
17.43
18.57
19.35
19.76
19.82
19.63
19.32
19.06
18.9
18.78
18.57
18.06
17.16
15.87
14.25
12.44
10.53
8.6
6.69
4.81
2.96
1.16
-0.58
-2.16
-3.45
-4.35
-4.83
-4.91
-4.64
-4.08
-3.26
-2.21
-1.03
0.11
1.04
1.57
1.61
1.18
0.4
-0.48
-1.16
-1.38
-0.96
0.11
1.62
3.22
4.56
5.36
5.54
5.22
4.69
4.32
4.48
5.33
6.84
8.66
10.32
11.31
11.37
10.53
9.08
7.42
5.93
4.86
4.29
4.26
4.74
5.7
7.0
8.4
9.59
10.25
10.29
9.8
9.03
8.27
7.68
7.23
6.72
5.97
4.9
3.6
2.21
0.94
-0.1
-0.86
-1.35
-1.6
-1.63
-1.46
-1.14
-0.72
-0.29
0.04
0.17
-0.01
-0.5
-1.22
-2.02
-2.74
-3.25
-3.53
-3.68
-3.8
-3.97
-4.17
-4.31
-4.3
-4.05
-3.54
-2.84
-2.08
-1.38
-0.84
-0.42
-0.04
0.36
0.8
1.23
1.58
1.83
2.04
2.39
3.03
4.02
5.32
6.73
8.08
9.28
10.33
11.31
12.24
13.09
13.7
13.9
13.56
12.72
11.58
10.36
9.25
8.26
7.26
6.17
4.99
3.91
3.15
2.93
3.19
3.61
3.78
3.33
2.2
0.63
-0.91
-2.04
-2.61
-2.72
-2.63
-2.54
-2.44
-2.19
-1.57
-0.59
0.56
1.54
2.13
2.28
2.19
2.13
2.23
2.43
2.47
2.15
1.38
0.35
-0.59
-1.11
-1.11
-0.67
-0.1
0.3
0.38
0.13
-0.31
-0.81
-1.24
-1.57
-1.8
-1.88
-1.77
-1.47
-1.08
-0.79
-0.73
-0.94
-1.27
-1.43
-1.15
-0.34
0.91
2.31
3.57
4.5
5.06
5.37
5.52
5.59
5.54
5.37
5.05
4.67
4.34
4.24
4.44
4.97
5.74
6.6
7.42
8.04
8.32
8.19
7.61
6.63
5.36
3.94
2.45
1.01
-0.41
-1.82
-3.21
-4.57
-5.82
-6.89
-7.66
-8.04
-7.89
-7.12
-5.74
-3.83
-1.65
0.6
2.73
4.67
6.37
7.8
8.88
9.53
9.76
9.65
9.39
9.13
8.91
8.71
8.38
7.76
6.79
5.55
4.15
2.79
1.67
0.86
0.32
-0.1
-0.63
-1.47
-2.72
-4.36
-6.2
-7.96
-9.36
-10.1
-10.0
-9.06
-7.43
-5.43
-3.46
-1.89
-0.92
-0.63
-0.92
-1.63
-2.57
-3.57
-4.43
-5.01
-5.18
-4.93
-4.34
-3.55
-2.67
-1.78
-0.87
0.13
1.24
2.48
3.77
5.08
6.4
7.78
9.25
10.74
12.06
12.93
13.15
12.72
11.84
10.82
9.97
9.48
9.4
9.7
10.26
11.0
11.81
12.56
13.11
13.35
13.19
12.65
11.81
10.76
9.62
8.47
7.36
6.3
5.34
4.55
3.99
3.74
3.82
4.18
4.66
5.14
5.51
5.79
6.03
6.28
6.52
6.62
6.45
5.94
5.07
3.99
2.87
1.93
1.32
1.11
1.19
1.39
1.52
1.52
1.47
1.6
2.12
3.1
4.37
5.64
6.6
7.13
7.33
7.41
7.58
7.91
8.22
8.32
8.03
7.37
6.55
5.84
5.43
5.31
5.3
5.13
4.6
3.68
2.52
1.35
0.39
-0.21
-0.39
-0.21
0.23
0.79
1.37
1.86
2.22
2.43
2.44
2.28
1.98
1.57
1.12
0.72
0.47
0.43
0.64
1.05
1.63
2.21
2.69
2.97
3.01
2.84
2.55
2.19
1.76
1.22
0.53
-0.3
-1.15
-1.9
-2.41
-2.62
-2.56
-2.28
-1.88
-1.43
-0.97
-0.53
-0.09
0.35
0.81
1.31
1.78
2.13
2.21
1.87
1.06
-0.18
-1.63
-2.98
-3.92
-4.22
-3.82
-2.8
-1.35
0.35
2.14
3.92
5.65
7.28
8.79
10.16
11.37
12.41
13.22
13.71
13.77
13.43
12.78
11.97
11.1
10.14
9.01
7.62
5.98
4.24
2.72
1.66
1.18
1.22
1.51
1.83
2.1
2.34
2.7
3.27
3.92
4.42
4.54
4.12
3.25
2.17
1.12
0.26
-0.4
-0.92
-1.36
-1.76
-2.12
-2.38
-2.53
-2.55
-2.45
-2.27
-2.08
-1.94
-1.96
-2.16
-2.6
-3.27
-4.13
-5.1
-6.03
-6.76
-7.19
-7.28
-7.16
-6.99
-6.8
-6.54
-6.08
-5.36
-4.47
-3.68
-3.28
-3.43
-4.09
-4.99
-5.75
-6.06
-5.76
-4.86
-3.53
-1.93
-0.23
1.4
2.78
3.76
4.2
4.13
3.71
3.19
2.87
2.91
3.27
3.84
4.42
4.85
5.04
4.93
4.5
3.82
3.05
2.37
2.04
2.09
2.43
2.83
3.06
2.97
2.62
2.1
1.56
1.08
0.72
0.51
0.5
0.73
1.15
1.64
2.04
2.23
2.15
1.85
1.46
1.15
1.01
1.05
1.24
1.5
1.75
1.99
2.18
2.3
2.28
2.02
1.51
0.77
-0.06
-0.86
-1.58
-2.18
-2.67
-3.04
-3.28
-3.39
-3.37
-3.27
-3.19
-3.14
-3.13
-3.16
-3.25
-3.47
-3.85
-4.31
-4.65
-4.65
-4.17
-3.26
-2.2
-1.33
-0.94
-1.13
-1.84
-2.78
-3.62
-4.12
-4.14
-3.74
-3.03
-2.2
-1.4
-0.7
-0.18
0.12
0.17
0.02
-0.19
-0.26
0.03
0.8
2.0
3.48
5.07
6.59
7.94
9.04
9.82
10.13
9.89
9.1
7.88
6.46
5.05
3.78
2.69
1.71
0.78
-0.1
-0.9
-1.58
-2.08
-2.39
-2.54
-2.52
-2.31
-1.85
-1.12
-0.09
1.13
2.45
3.75
4.97
6.08
7.09
7.96
8.62
8.97
8.9
8.37
7.42
6.13
4.6
2.94
1.25
-0.37
-1.8
-2.95
-3.72
-4.11
-4.18
-4.0
-3.65
-3.13
-2.36
-1.29
0.05
1.42
2.52
3.02
2.86
2.25
1.5
0.93
0.61
0.36
-0.13
-1.04
-2.35
-3.78
-4.99
-5.75
-6.03
-5.97
-5.89
-6.07
-6.69
-7.76
-9.06
-10.2
-10.71
-10.28
-8.9
-6.9
-4.9
-3.45
-2.82
-2.9
-3.3
-3.57
-3.45
-2.91
-2.17
-1.45
-0.9
-0.51
-0.21
0.04
0.27
0.47
0.66
0.93
1.38
2.04
2.91
3.9
4.9
5.79
6.47
6.85
6.87
6.49
5.76
4.8
3.77
2.88
2.29
2.12
2.42
3.18
4.27
5.53
6.7
7.63
8.25
8.59
8.8
9.07
9.53
10.18
10.9
11.48
11.72
11.6
11.22
10.76
10.36
10.01
9.57
8.87
7.89
6.8
5.86
5.26
5.0
4.88
4.66
4.19
3.48
2.62
1.69
0.63
-0.66
-2.17
-3.82
-5.32
-6.4
-6.98
-7.18
-7.25
-7.42
-7.77
-8.22
-8.56
-8.62
-8.3
-7.65
-6.78
-5.81
-4.85
-4.07
-3.62
-3.73
-4.43
-5.58
-6.92
-8.07
-8.8
-9.09
-9.11
-9.1
-9.22
-9.5
-9.86
-10.18
-10.37
-10.47
-10.46
-10.26
-9.77
-8.97
-7.98
-7.19
-7.0
-7.79
-9.62
-12.22
-15.01
-17.27
-18.34
-17.81
-15.64
-12.18
-7.96
-3.62
0.35
3.68
6.38
8.57
10.47
12.19
13.79
15.19
16.39
17.39
18.21
18.94
19.64
20.36
21.16
22.14
23.36
24.8
26.36
27.79
28.91
29.53
29.54
28.97
27.83
26.14
23.92
21.23
18.13
14.76
11.22
7.66
4.21
1.03
-1.76
-4.06
-5.79
-6.97
-7.57
-7.58
-7.01
-5.89
-4.38
-2.7
-1.04
0.44
1.7
2.81
3.89
5.0
6.15
7.26
8.29
9.17
9.85
10.29
10.4
10.03
9.05
7.42
5.2
2.61
-0.09
-2.61
-4.78
-6.49
-7.74
-8.61
-9.15
-9.44
-9.54
-9.52
-9.5
-9.6
-9.89
-10.43
-11.13
-11.8
-12.22
-12.15
-11.46
-10.17
-8.5
-6.74
-5.19
-4.03
-3.31
-3.0
-2.96
-3.03
-3.02
-2.75
-2.16
-1.23
-0.08
1.18
2.45
3.67
4.87
6.1
7.31
8.31
8.86
8.73
7.8
6.11
3.8
1.08
-1.81
-4.64
-7.18
-9.23
-10.68
-11.51
-11.85
-11.92
-11.91
-11.94
-11.98
-11.96
-11.76
-11.34
-10.77
-10.11
-9.5
-8.98
-8.62
-8.44
-8.45
-8.66
-9.05
-9.59
-10.19
-10.78
-11.29
-11.64
-11.79
-11.69
-11.45
-11.24
-11.3
-11.79
-12.72
-13.86
-14.89
-15.49
-15.47
-14.91
-14.03
-13.04
-12.15
-11.47
-11.01
-10.7
-10.42
-9.97
-9.17
-7.92
-6.29
-4.53
-2.94
-1.76
-1.03
-0.68
-0.55
-0.52
-0.58
-0.71
-0.88
-0.89
-0.56
0.26
1.54
3.09
4.58
5.76
6.54
6.98
7.3
7.72
8.38
9.27
10.33
11.32
12.06
12.36
12.14
11.44
10.41
9.23
8.11
7.24
6.67
6.34
6.09
5.66
4.86
3.65
2.17
0.75
-0.22
-0.39
0.41
2.06
4.29
6.8
9.31
11.67
13.79
15.58
16.95
17.83
18.2
18.14
17.85
17.5
17.23
17.06
16.92
16.66
16.18
15.4
14.35
13.13
11.86
10.66
9.55
8.47
7.25
5.79
4.06
2.21
0.5
-0.78
-1.38
-1.25
-0.52
0.43
1.21
1.45
1.03
0.01
-1.42
-3.03
-4.74
-6.5
-8.32
-10.08
-11.6
-12.73
-13.36
-13.48
-13.13
-12.34
-11.11
-9.43
-7.35
-5.04
-2.69
-0.49
1.48
3.2
4.7
5.93
6.81
7.28
7.33
7.08
6.7
6.35
6.06
5.79
5.44
4.95
4.35
3.68
2.97
2.2
1.25
0.06
-1.37
-2.86
-4.17
-5.0
-5.23
-4.91
-4.28
-3.61
-3.16
-3.01
-3.1
-3.29
-3.45
-3.54
-3.51
-3.31
-2.85
-1.99
-0.7
0.83
2.27
3.2
3.37
2.8
1.75
0.61
-0.37
-1.12
-1.7
-2.16
-2.43
-2.35
-1.8
-0.77
0.56
1.89
3.01
3.88
4.6
5.36
6.29
7.33
8.3
8.96
9.14
8.75
7.85
6.61
5.24
3.96
2.95
2.31
2.07
2.18
2.54
3.05
3.56
3.95
4.19
4.29
4.35
4.46
4.65
4.88
5.06
5.03
4.78
4.34
3.84
3.45
3.25
3.24
3.3
3.3
3.12
2.79
2.39
2.04
1.81
1.64
1.41
1.0
0.41
-0.22
-0.67
-0.65
-0.06
1.11
2.75
4.66
6.6
8.35
9.65
10.37
10.48
10.08
9.45
8.86
8.45
8.18
7.82
7.08
5.8
4.06
2.13
0.44
-0.66
-0.95
-0.5
0.43
1.46
2.25
2.56
2.33
1.62
0.67
-0.3
-1.08
-1.57
-1.77
-1.73
-1.54
-1.26
-0.99
-0.76
-0.61
-0.53
-0.54
-0.63
-0.83
-1.14
-1.54
-2.0
-2.45
-2.86
-3.18
-3.32
-3.15
-2.53
-1.35
0.37
2.41
4.47
6.2
7.4
8.04
8.23
8.11
7.71
6.95
5.7
3.82
1.33
-1.66
-4.91
-8.17
-11.24
-13.94
-16.23
-18.08
-19.53
-20.64
-21.5
-22.17
-22.74
-23.25
-23.81
-24.45
-25.23
-26.12
-27.08
-27.98
-28.65
-28.94
-28.71
-27.86
-26.36
-24.29
-21.79
-19.03
-16.1
-13.05
-9.85
-6.44
-2.74
1.36
5.93
11.03
16.67
22.64
28.58
33.99
38.39
41.45
43.13
43.56
43.06
41.96
40.54
39.0
37.49
36.06
34.7
33.31
31.72
29.78
27.42
24.66
21.71
18.8
16.15
13.91
12.07
10.49
8.98
7.33
5.41
3.25
0.93
-1.39
-3.55
-5.42
-6.84
-7.65
-7.66
-6.81
-5.24
-3.3
-1.47
-0.2
0.34
0.33
0.19
0.3
0.9
1.98
3.39
4.91
6.44
7.95
9.4
10.75
11.92
12.8
13.38
13.59
13.43
12.87
11.91
10.6
9.07
7.47
5.91
4.43
2.93
1.35
-0.32
-2.01
-3.61
-5.03
-6.23
-7.2
-7.93
-8.36
-8.39
-7.93
-7.01
-5.75
-4.37
-3.03
-1.8
-0.64
0.53
1.72
2.85
3.75
4.25
4.23
3.7
2.73
1.44
-0.01
-1.52
-2.96
-4.29
-5.44
-6.42
-7.25
-7.93
-8.49
-8.94
-9.38
-9.88
-10.56
-11.43
-12.45
-13.49
-14.46
-15.32
-16.1
-16.83
-17.49
-17.95
-18.01
-17.45
-16.16
-14.17
-11.69
-9.02
-6.51
-4.42
-2.89
-1.89
-1.27
-0.82
-0.4
0.02
0.39
0.61
0.62
0.46
0.27
0.2
0.39
0.92
1.72
2.71
3.72
4.63
5.36
5.89
6.26
6.51
6.68
6.8
6.9
7.0
7.16
7.35
7.49
7.43
7.02
6.17
4.93
3.47
2.03
0.87
0.15
-0.09
0.09
0.59
1.28
2.04
2.82
3.58
4.32
5.05
5.72
6.3
6.77
7.06
7.17
7.09
6.84
6.48
6.05
5.63
5.27
5.0
4.84
4.82
4.89
5.04
5.18
5.26
5.17
4.86
4.3
3.49
2.5
1.38
0.16
-1.18
-2.64
-4.24
-5.91
-7.5
-8.91
-10.01
-10.75
-11.13
-11.17
-10.92
-10.46
-9.89
-9.37
-9.03
-8.89
-8.84
-8.71
-8.32
-7.62
-6.65
-5.56
-4.49
-3.57
-2.85
-2.37
-2.11
-2.0
-2.02
-2.03
-1.92
-1.58
-0.92
0.11
1.47
2.99
4.48
5.69
6.45
6.73
6.63
6.34
6.02
5.73
5.45
5.1
4.63
4.09
3.57
3.14
2.84
2.62
2.43
2.28
2.23
2.38
2.79
3.42
4.12
4.75
5.17
5.42
5.61
5.93
6.5
7.36
8.43
9.52
10.46
11.04
11.09
10.52
9.33
7.7
5.88
4.18
2.8
1.79
1.07
0.5
-0.08
-0.8
-1.73
-2.88
-4.22
-5.65
-7.05
-8.34
-9.47
-10.4
-11.16
-11.69
-11.99
-12.06
-11.95
-11.75
-11.6
-11.6
-11.77
-12.06
-12.35
-12.51
-12.49
-12.31
-12.02
-11.72
-11.43
-11.09
-10.6
-9.83
-8.79
-7.66
-6.76
-6.44
-7.0
-8.49
-10.71
-13.28
-15.72
-17.56
-18.41
-18.09
-16.67
-14.41
-11.76
-9.2
-7.14
-5.71
-4.86
-4.31
-3.74
-2.93
-1.83
-0.57
0.7
1.82
2.72
3.39
3.78
3.88
3.57
2.81
1.65
0.22
-1.3
-2.71
-3.9
-4.85
-5.51
-5.85
-5.76
-5.17
-4.07
-2.59
-0.94
0.7
2.19
3.61
5.05
6.59
8.27
10.06
11.89
13.72
15.55
17.3
18.86
20.04
20.62
20.48
19.64
18.26
16.59
14.89
13.31
11.98
10.88
9.94
9.04
8.13
7.16
6.13
5.02
3.78
2.38
0.84
-0.72
-2.17
-3.34
-4.17
-4.67
-4.9
-4.95
-4.81
-4.5
-4.02
-3.44
-2.94
-2.68
-2.79
-3.26
-4.0
-4.79
-5.44
-5.81
-5.88
-5.74
-5.56
-5.5
-5.61
-5.81
-5.92
-5.72
-5.06
-3.92
-2.42
-0.78
0.78
2.0
2.72
2.92
2.66
2.14
1.52
0.94
0.45
0.04
-0.32
-0.65
-0.9
-1.09
-1.3
-1.61
-2.11
-2.79
-3.51
-4.08
-4.3
-4.1
-3.49
-2.61
-1.61
-0.62
0.28
1.1
1.95
2.93
4.11
5.48
6.95
8.41
9.72
10.82
11.67
12.25
12.55
12.54
12.22
11.57
10.56
9.12
7.18
4.69
1.72
-1.57
-4.89
-7.94
-10.45
-12.3
-13.52
-14.29
-14.82
-15.31
-15.82
-16.32
-16.66
-16.73
-16.47
-15.92
-15.19
-14.46
-13.9
-13.6
-13.61
-13.85
-14.19
-14.4
-14.31
-13.81
-12.93
-11.8
-10.68
-9.81
-9.26
-9.01
-8.83
-8.42
-7.47
-5.76
-3.2
0.21
4.26
8.67
13.08
17.1
20.38
22.67
23.84
23.85
22.71
20.42
17.06
12.86
8.3
4.05
0.84
-0.83
-0.85
0.45
2.42
4.31
5.52
5.75
5.04
3.61
1.78
-0.13
-1.92
-3.48
-4.73
-5.6
-6.01
-5.87
-5.19
-4.11
-2.88
-1.76
-0.89
-0.26
0.3
1.0
2.0
3.28
4.67
5.96
6.97
7.66
8.1
8.46
8.88
9.43
10.08
10.76
11.4
11.92
12.26
12.43
12.47
12.4
12.32
12.28
12.3
12.42
12.66
12.97
13.31
13.58
13.61
13.26
12.44
11.17
9.53
7.66
5.69
3.76
1.94
0.35
-0.92
-1.8
-2.34
-2.64
-2.89
-3.28
-3.86
-4.57
-5.3
-5.87
-6.15
-6.11
-5.75
-5.17
-4.48
-3.78
-3.18
-2.79
-2.66
-2.87
-3.44
-4.38
-5.68
-7.34
-9.36
-11.65
-14.06
-16.35
-18.3
-19.73
-20.61
-21.05
-21.2
-21.11
-20.75
-19.99
-18.84
-17.4
-15.94
-14.78
-14.14
-14.03
-14.29
-14.67
-14.85
-14.53
-13.42
-11.19
-7.65
-2.8
3.14
9.74
16.47
22.84
28.45
33.01
36.32
38.22
38.63
37.6
35.26
31.87
27.72
23.07
18.18
13.31
8.74
4.74
1.51
-0.9
-2.56
-3.65
-4.34
-4.79
-5.1
-5.32
-5.47
-5.59
-5.74
-5.99
-6.39
-6.98
-7.74
-8.59
-9.41
-10.03
-10.33
-10.29
-10.0
-9.63
-9.29
-9.02
-8.8
-8.58
-8.28
-7.9
-7.46
-6.94
-6.26
-5.34
-4.04
-2.33
-0.32
1.79
3.71
5.25
6.34
7.04
7.51
7.86
8.1
8.19
8.08
7.83
7.58
7.47
7.51
7.61
7.62
7.48
7.26
7.17
7.37
7.91
8.68
9.43
9.99
10.22
10.11
9.67
8.97
8.09
7.26
6.74
6.78
7.5
8.8
10.38
11.89
13.01
13.52
13.34
12.54
11.26
9.74
8.23
6.98
6.1
5.65
5.61
5.98
6.79
7.97
9.38
10.69
11.53
11.6
10.8
9.3
7.44
5.56
3.88
2.55
1.61
1.09
1.06
1.5
2.24
3.05
3.6
3.62
3.04
1.92
0.43
-1.19
-2.75
-4.1
-5.22
-6.16
-7.03
-7.96
-9.09
-10.5
-12.13
-13.88
-15.49
-16.7
-17.23
-16.91
-15.78
-14.02
-12.01
-10.12
-8.64
-7.62
-6.88
-6.16
-5.21
-4.02
-2.71
-1.6
-0.86
-0.52
-0.41
-0.24
0.23
1.04
2.04
2.98
3.71
4.22
4.68
5.3
6.17
7.21
8.23
9.08
9.77
10.43
11.23
12.22
13.2
13.86
13.82
12.92
11.23
9.03
6.63
4.25
1.99
-0.23
-2.55
-5.07
-7.79
-10.64
-13.42
-15.86
-17.68
-18.63
-18.59
-17.56
-15.65
-13.04
-9.99
-6.72
-3.52
-0.68
1.61
3.25
4.33
5.08
5.71
6.25
6.6
6.48
5.66
4.11
2.04
-0.18
-2.2
-3.78
-4.9
-5.68
-6.29
-6.85
-7.37
-7.82
-8.12
-8.19
-8.07
-7.89
-7.81
-8.03
-8.62
-9.5
-10.46
-11.23
-11.5
-11.16
-10.23
-8.91
-7.45
-6.15
-5.23
-4.8
-4.84
-5.24
-5.85
-6.52
-7.16
-7.64
-7.83
-7.6
-6.84
-5.59
-4.0
-2.26
-0.48
1.32
3.3
5.56
8.1
10.71
13.06
14.82
15.77
15.91
15.36
14.3
12.9
11.32
9.73
8.3
7.23
6.64
6.52
6.73
7.03
7.18
7.0
6.48
5.71
4.87
4.11
3.55
3.2
3.0
2.85
2.69
2.55
2.51
2.67
3.01
3.42
3.66
3.55
3.03
2.16
1.12
0.06
-0.87
-1.64
-2.21
-2.52
-2.49
-2.03
-1.16
-0.02
1.1
1.83
1.85
0.96
-0.79
-3.11
-5.54
-7.59
-8.88
-9.22
-8.73
-7.67
-6.35
-5.05
-3.97
-3.25
-3.02
-3.31
-4.13
-5.4
-6.9
-8.37
-9.56
-10.38
-10.85
-11.13
-11.38
-11.71
-12.12
-12.49
-12.73
-12.72
-12.47
-12.04
-11.49
-10.93
-10.4
-9.94
-9.51
-9.01
-8.28
-7.21
-5.8
-4.22
-2.72
-1.61
-1.06
-1.03
-1.32
-1.6
-1.55
-0.96
0.17
1.73
3.51
5.31
7.02
8.6
10.1
11.49
12.73
13.73
14.39
14.73
14.86
14.92
15.01
15.09
15.08
14.85
14.36
13.68
13.0
12.51
12.32
12.45
12.76
13.09
13.3
13.32
13.19
13.01
12.87
12.86
13.0
13.28
13.61
13.89
13.95
13.6
12.67
11.1
8.97
6.5
4.04
1.89
0.27
-0.79
-1.41
-1.76
-1.97
-2.13
-2.23
-2.24
-2.19
-2.16
-2.25
-2.58
-3.15
-3.93
-4.85
-5.82
-6.82
-7.89
-9.04
-10.3
-11.65
-13.04
-14.46
-15.89
-17.31
-18.67
-19.88
-20.88
-21.59
-21.98
-22.08
-21.93
-21.56
-20.97
-20.15
-19.05
-17.6
-15.66
-13.11
-9.91
-6.13
-1.95
2.35
6.49
10.33
13.82
17.0
19.89
22.44
24.56
26.16
27.26
27.95
28.34
28.46
28.14
27.16
25.31
22.56
19.09
15.23
11.32
7.59
4.16
1.04
-1.64
-3.77
-5.17
-5.77
-5.65
-5.02
-4.19
-3.4
-2.84
-2.61
-2.78
-3.41
-4.61
-6.39
-8.68
-11.34
-14.09
-16.75
-19.09
-20.95
-22.16
-22.59
-22.16
-20.97
-19.3
-17.53
-16.08
-15.14
-14.63
-14.33
-13.93
-13.28
-12.5
-11.8
-11.44
-11.5
-11.91
-12.51
-13.2
-13.96
-14.86
-15.97
-17.27
-18.6
-19.88
-21.05
-22.22
-23.57
-25.22
-27.16
-29.21
-31.13
-32.74
-34.01
-35.06
-36.04
-36.96
-37.58
-37.38
-35.78
-32.36
-27.09
-20.37
-12.83
-5.18
2.06
8.61
14.47
19.69
24.36
28.53
32.2
35.33
37.85
39.63
40.48
40.26
38.96
36.78
34.11
31.47
29.36
28.1
27.75
28.21
29.17
30.38
31.61
32.72
33.56
34.04
34.08
33.67
32.91
31.91
30.77
29.48
27.94
25.98
23.51
20.55
17.24
13.82
10.56
7.65
5.2
3.19
1.43
-0.3
-2.2
-4.33
-6.6
-8.78
-10.61
-11.91
-12.63
-12.84
-12.64
-12.12
-11.39
-10.52
-9.64
-8.87
-8.4
-8.36
-8.84
-9.83
-11.23
-12.9
-14.66
-16.34
-17.82
-18.98
-19.69
-19.81
-19.19
-17.78
-15.64
-12.99
-10.14
-7.4
-4.99
-2.92
-1.09
0.71
2.75
5.21
8.18
11.61
15.27
18.82
21.86
24.04
25.17
25.32
24.75
23.78
22.61
21.23
19.48
17.19
14.3
11.04
7.79
4.96
2.87
1.6
0.99
0.74
0.53
0.08
-0.79
-2.15
-3.99
-6.17
-8.46
-10.57
-12.25
-13.34
-13.86
-14.0
-14.08
-14.38
-15.1
-16.22
-17.55
-18.8
-19.67
-20.02
-19.84
-19.28
-18.54
-17.76
-17.04
-16.41
-15.86
-15.41
-15.09
-14.97
-15.09
-15.46
-16.05
-16.85
-17.83
-18.99
-20.33
-21.75
-23.11
-24.19
-24.75
-24.62
-23.78
-22.38
-20.7
-19.03
-17.58
-16.39
-15.27
-13.89
-11.93
-9.18
-5.61
-1.31
3.48
8.47
13.37
17.83
21.57
24.38
26.2
27.14
27.47
27.49
27.48
27.6
27.8
27.87
27.54
26.54
24.84
22.68
20.52
18.89
18.15
18.32
19.19
20.48
22.0
23.79
25.96
28.53
31.28
33.78
35.56
36.28
35.83
34.31
31.94
28.95
25.53
21.9
18.29
14.94
12.11
9.97
8.59
7.93
7.82
7.95
7.96
7.49
6.27
4.16
1.21
-2.41
-6.44
-10.56
-14.46
-17.89
-20.69
-22.87
-24.6
-26.19
-27.9
-29.83
-31.84
-33.64
-34.93
-35.54
-35.56
-35.19
-34.68
-34.17
-33.73
-33.39
-33.22
-33.31
-33.68
-34.26
-34.73
-34.68
-33.72
-31.57
-28.21
-23.82
-18.7
-13.26
-7.91
-3.05
1.02
4.13
6.27
7.64
8.56
9.38
10.41
11.83
13.64
15.74
17.88
19.8
21.27
22.08
22.07
21.22
19.63
17.56
15.35
13.38
11.93
11.18
11.12
11.63
12.57
13.74
15.02
16.23
17.19
17.76
17.94
17.82
17.57
17.35
17.22
17.12
16.96
16.62
16.08
15.35
14.45
13.41
12.21
10.84
9.37
7.85
6.39
5.07
3.87
2.7
1.44
-0.02
-1.72
-3.61
-5.55
-7.41
-9.08
-10.49
-11.67
-12.59
-13.25
-13.67
-13.9
-14.11
-14.56
-15.49
-17.04
-19.11
-21.36
-23.35
-24.65
-25.03
-24.56
-23.49
-22.18
-20.88
-19.69
-18.52
-17.23
-15.73
-14.02
-12.14
-10.16
-8.06
-5.81
-3.37
-0.8
1.82
4.36
6.75
8.96
10.94
12.63
13.9
14.64
14.83
14.6
14.21
13.91
13.83
13.91
13.95
13.7
13.04
12.04
10.9
9.87
9.14
8.8
8.83
9.2
9.87
10.77
11.74
12.54
12.87
12.57
11.59
10.11
8.41
6.71
5.12
3.59
2.0
0.32
-1.31
-2.66
-3.51
-3.77
-3.53
-2.95
-2.24
-1.53
-0.85
-0.25
0.2
0.35
0.01
-0.93
-2.44
-4.33
-6.33
-8.23
-9.95
-11.53
-13.16
-15.01
-17.18
-19.57
-21.97
-24.09
-25.72
-26.76
-27.23
-27.32
-27.2
-27.04
-26.93
-26.78
-26.45
-25.69
-24.29
-22.17
-19.46
-16.48
-13.63
-11.34
-9.89
-9.4
-9.72
-10.47
-11.16
-11.26
-10.36
-8.28
-5.19
-1.5
2.16
5.23
7.31
8.22
8.12
7.31
6.18
5.06
4.17
3.6
3.33
3.31
3.48
3.89
4.63
5.75
7.26
9.09
11.05
12.95
14.62
15.97
16.93
17.45
17.46
16.9
15.75
14.08
12.09
10.03
8.16
6.65
5.54
4.76
4.18
3.64
3.08
2.49
1.95
1.63
1.65
2.08
2.81
3.67
4.45
5.0
5.25
5.18
4.78
4.08
3.05
1.71
0.05
-1.93
-4.2
-6.74
-9.45
-12.19
-14.73
-16.84
-18.33
-19.15
-19.33
-18.98
-18.17
-16.92
-15.11
-12.66
-9.46
-5.52
-1.01
3.82
8.59
12.99
16.74
19.79
22.15
23.96
25.4
26.6
27.63
28.4
28.75
28.39
27.05
24.54
20.95
16.63
12.09
7.91
4.51
2.11
0.62
-0.22
-0.78
-1.36
-2.13
-3.12
-4.2
-5.21
-6.05
-6.7
-7.27
-7.95
-8.84
-9.94
-11.19
-12.43
-13.55
-14.45
-15.11
-15.55
-15.83
-16.05
-16.29
-16.59
-16.89
-17.03
-16.92
-16.53
-16.01
-15.58
-15.44
-15.6
-15.9
-16.05
-15.81
-15.11
-14.07
-12.98
-12.11
-11.67
-11.74
-12.32
-13.38
-14.91
-16.88
-19.2
-21.75
-24.3
-26.66
-28.72
-30.48
-32.02
-33.41
-34.61
-35.46
-35.64
-34.82
-32.76
-29.37
-24.78
-19.28
-13.28
-7.16
-1.22
4.41
9.72
14.78
19.62
24.26
28.61
32.52
35.84
38.43
40.19
41.11
41.34
41.09
40.65
40.29
40.11
40.07
39.99
39.65
38.91
37.79
36.39
34.86
33.27
31.59
29.72
27.58
25.21
22.76
20.47
18.62
17.3
16.49
15.99
15.54
14.91
13.94
12.59
10.89
8.93
6.89
4.88
3.07
1.62
0.62
0.14
0.17
0.61
1.32
2.08
2.66
2.97
2.99
2.85
2.71
2.67
2.71
2.69
2.44
1.79
0.64
-1.09
-3.38
-6.21
-9.53
-13.26
-17.25
-21.3
-25.24
-28.94
-32.33
-35.4
-38.08
-40.22
-41.64
-42.16
-41.68
-40.32
-38.32
-35.98
-33.52
-31.0
-28.29
-25.18
-21.48
-17.13
-12.23
-7.05
-1.99
2.52
6.1
8.48
9.6
9.47
8.28
6.18
3.36
0.05
-3.45
-6.83
-9.85
-12.47
-14.91
-17.58
-20.92
-25.29
-30.84
-37.43
-44.81
-52.63
-60.58
-68.36
-75.79
-82.59
-88.39
-92.64
-94.61
-93.54
-88.81
-80.22
-68.1
-53.27
-36.84
-20.0
-3.77
11.05
23.89
34.47
42.68
48.69
52.9
55.81
57.99
59.84
61.5
62.91
63.91
64.37
64.26
63.74
62.99
62.18
61.44
60.81
60.28
59.86
59.43
58.85
57.98
56.7
55.03
53.1
51.09
49.13
47.25
45.34
43.3
41.17
39.07
37.27
36.03
35.5
35.67
36.48
37.78
39.39
41.06
42.46
43.28
43.29
42.42
40.83
38.84
36.75
34.74
32.87
31.07
29.34
27.66
26.04
24.42
22.69
20.75
18.58
16.34
14.24
12.5
11.21
10.24
9.38
8.42
7.16
5.67
4.15
2.91
2.28
2.52
3.67
5.53
7.65
9.43
10.29
9.83
8.0
5.07
1.57
-1.88
-4.78
-6.89
-8.29
-9.34
-10.53
-12.35
-15.15
-19.05
-23.94
-29.48
-35.18
-40.56
-45.28
-49.23
-52.49
-55.29
-57.87
-60.39
-62.86
-65.32
-67.74
-70.13
-72.48
-74.71
-76.64
-77.98
-78.45
-77.77
-75.79
-72.53
-68.27
-63.43
-58.59
-54.26
-50.77
-48.14
-46.15
-44.38
-42.43
-40.01
-36.98
-33.39
-29.41
-25.2
-20.9
-16.53
-11.98
-7.07
-1.63
4.47
11.19
18.27
25.27
31.65
36.91
40.7
42.97
44.01
44.34
44.56
45.15
46.3
47.83
49.31
50.17
49.89
48.19
45.1
40.99
36.5
32.38
29.28
27.61
27.4
28.27
29.6
30.64
30.76
29.63
27.31
24.22
21.02
18.37
16.69
16.03
16.03
15.99
15.15
12.98
9.37
4.74
-0.12
-4.41
-7.65
-9.87
-11.51
-13.18
-15.32
-18.02
-21.01
-23.81
-25.91
-26.95
-26.78
-25.51
-23.41
-20.95
-18.66
-17.1
-16.71
-17.7
-19.95
-23.03
-26.34
-29.24
-31.29
-32.32
-32.48
-32.07
-31.4
-30.59
-29.48
-27.81
-25.23
-21.55
-16.7
-10.86
-4.28
2.66
9.55
16.05
21.9
26.93
31.1
34.42
37.02
39.04
40.74
42.36
44.11
46.06
48.06
49.74
50.65
50.43
48.86
46.0
42.07
37.38
32.2
26.8
21.41
16.24
11.58
7.68
4.74
2.79
1.69
1.09
0.52
-0.5
-2.34
-5.19
-8.94
-13.24
-17.55
-21.29
-23.95
-25.26
-25.26
-24.24
-22.57
-20.58
-18.42
-16.12
-13.6
-10.86
-8.02
-5.38
-3.27
-1.92
-1.38
-1.54
-2.18
-3.07
-4.1
-5.2
-6.34
-7.51
-8.65
-9.7
-10.57
-11.21
-11.58
-11.66
-11.47
-11.06
-10.6
-10.33
-10.49
-11.25
-12.65
-14.53
-16.54
-18.31
-19.49
-19.92
-19.61
-18.83
-17.9
-17.19
-16.96
-17.36
-18.4
-20.09
-22.44
-25.53
-29.37
-33.94
-39.11
-44.67
-50.39
-56.03
-61.27
-65.69
-68.68
-69.62
-67.96
-63.44
-56.17
-46.59
-35.41
-23.35
-11.11
0.74
11.77
21.66
30.21
37.34
43.1
47.63
51.19
54.12
56.74
59.36
62.15
65.09
67.94
70.38
72.09
72.92
72.88
72.06
70.55
68.34
65.39
61.65
57.25
52.49
47.75
43.33
39.34
35.68
32.14
28.5
24.65
20.56
16.29
11.88
7.33
2.58
-2.49
-7.99
-14.05
-20.67
-27.83
-35.39
-43.17
-50.95
-58.63
-66.23
-73.88
-81.79
-90.13
-98.94
-108.1
-117.41
-126.66
-135.55
-143.86
-151.21
-157.03
-160.5
-160.65
-156.45
-147.06
-132.07
-111.45
-85.71
-55.77
-22.86
11.47
45.53
77.64
106.27
130.26
148.98
162.31
170.58
174.44
174.68
172.09
167.39
161.2
154.05
146.35
138.38
130.38
122.5
114.81
107.37
100.15
93.08
86.0
78.79
71.38
63.84
56.47
49.63
43.71
38.91
35.15
32.09
29.21
25.97
21.99
17.1
11.36
4.95
-1.79
-8.55
-14.95
-20.69
-25.59
-29.6
-32.88
-35.65
-38.1
-40.29
-42.08
-43.26
-43.59
-42.94
-41.25
-38.63
-35.19
-31.14
-26.73
-22.24
-17.98
-14.18
-10.97
-8.4
-6.44
-5.04
-4.16
-3.76
-3.79
-4.21
-4.92
-5.8
-6.67
-7.38
-7.81
-7.93
-7.87
-7.82
-7.99
-8.5
-9.33
-10.26
-10.93
-10.92
-9.87
-7.61
-4.35
-0.55
3.21
6.38
8.67
10.16
11.16
12.08
13.23
14.71
16.47
18.31
19.99
21.27
21.98
22.0
21.35
20.12
18.47
16.54
14.51
12.57
10.95
9.89
9.57
10.03
11.12
12.59
14.14
15.55
16.75
17.78
18.7
19.48
20.07
20.33
20.17
19.53
18.37
16.7
14.56
12.02
9.22
6.45
4.0
2.2
1.23
1.05
1.37
1.69
1.51
0.41
-1.74
-4.87
-8.67
-12.74
-16.66
-20.09
-22.8
-24.68
-25.78
-26.25
-26.3
-26.14
-25.86
-25.43
-24.7
-23.53
-21.86
-19.81
-17.67
-15.81
-14.59
-14.24
-14.82
-16.26
-18.42
-21.08
-23.99
-26.9
-29.52
-31.63
-33.11
-33.9
-34.06
-33.65
-32.73
-31.3
-29.36
-26.87
-23.76
-19.95
-15.32
-9.85
-3.67
2.96
9.6
15.78
21.1
25.37
28.61
30.97
32.65
33.84
34.65
35.1
35.2
34.89
34.14
33.05
31.77
30.56
29.68
29.31
29.39
29.72
29.92
29.68
28.86
27.58
26.13
24.82
23.8
22.92
21.81
20.01
17.04
12.65
6.82
-0.21
-7.98
-15.98
-23.76
-31.01
-37.63
-43.69
-49.28
-54.41
-59.01
-62.95
-66.11
-68.39
-69.73
-70.07
-69.37
-67.71
-65.39
-62.8
-60.14
-57.21
-53.19
-46.93
-37.37
-24.18
-8.02
9.54
26.38
40.46
50.33
55.35
55.69
52.13
45.78
37.79
29.17
20.7
12.91
6.03
0.0
-5.47
-10.73
-15.92
-20.78
-24.49
-25.95
-24.2
-18.89
-10.61
-0.72
9.04
17.21
22.95
26.24
27.55
27.62
27.1
26.42
25.8
25.29
24.82
24.23
23.3
21.84
19.67
16.84
13.54
10.19
7.28
5.27
4.46
4.91
6.33
8.23
10.04
11.34
11.88
11.75
11.19
10.49
9.87
9.4
9.08
8.77
8.37
7.79
7.02
6.06
4.98
3.82
2.57
1.2
-0.36
-2.13
-4.03
-5.85
-7.3
-8.12
-8.1
-7.18
-5.49
-3.33
-1.14
0.59
1.37
0.93
-0.75
-3.31
-6.15
-8.59
-10.15
-10.76
-10.75
-10.76
-11.39
-13.03
-15.71
-19.23
-23.25
-27.51
-31.8
-35.87
-39.45
-42.2
-43.86
-44.36
-43.93
-43.01
-42.1
-41.65
-41.81
-42.43
-43.1
-43.2
-42.12
-39.43
-35.07
-29.35
-22.93
-16.44
-10.34
-4.69
0.72
6.19
11.82
17.43
22.57
26.76
29.67
31.23
31.52
30.76
29.14
26.83
24.04
21.03
18.09
15.5
13.44
11.87
10.63
9.46
8.12
6.4
4.27
1.77
-0.92
-3.62
-6.14
-8.32
-10.0
-10.97
-11.02
-9.89
-7.46
-3.81
0.75
5.72
10.61
15.06
18.91
22.11
24.72
26.69
27.95
28.43
28.1
27.08
25.56
23.77
21.96
20.2
18.5
16.77
14.88
12.72
10.22
7.37
4.21
0.84
-2.56
-5.75
-8.4
-10.15
-10.76
-10.19
-8.64
-6.52
-4.25
-2.14
-0.32
1.2
2.51
3.68
4.78
5.88
7.07
8.45
10.03
11.72
13.36
14.74
15.71
16.2
16.21
15.76
14.87
13.61
12.08
10.42
8.76
7.12
5.46
3.65
1.61
-0.64
-2.97
-5.19
-7.13
-8.67
-9.72
-10.24
-10.14
-9.37
-7.97
-6.17
-4.38
-3.08
-2.63
-3.16
-4.48
-6.18
-7.76
-8.89
-9.42
-9.46
-9.19
-8.83
-8.52
-8.33
-8.32
-8.5
-8.91
-9.51
-10.18
-10.77
-11.12
-11.15
-10.88
-10.39
-9.84
-9.33
-9.01
-9.0
-9.51
-10.67
-12.57
-15.05
-17.79
-20.4
-22.53
-24.02
-24.84
-25.07
-24.78
-24.0
-22.76
-21.14
-19.3
-17.46
-15.69
-13.94
-12.02
-9.68
-6.81
-3.51
-0.0
3.34
6.22
8.42
9.91
10.78
11.23
11.52
11.86
12.38
13.07
13.83
14.46
14.78
14.65
14.05
13.04
11.72
10.29
8.91
7.75
6.9
6.37
6.14
6.14
6.34
6.76
7.44
8.43
9.68
11.06
12.36
13.41
14.07
14.35
14.33
14.13
13.85
13.55
13.29
13.12
13.02
13.0
13.0
12.84
12.33
11.26
9.5
7.11
4.32
1.43
-1.26
-3.62
-5.71
-7.73
-9.88
-12.28
-14.9
-17.66
-20.43
-23.08
-25.49
-27.47
-28.87
-29.58
-29.68
-29.39
-28.97
-28.56
-28.17
-27.68
-26.95
-25.97
-24.86
-23.84
-23.05
-22.53
-22.18
-21.85
-21.37
-20.61
-19.5
-17.97
-16.01
-13.67
-11.04
-8.33
-5.75
-3.53
-1.75
-0.39
0.74
1.86
3.15
4.67
6.24
7.56
8.28
8.22
7.39
6.05
4.57
3.34
2.57
2.38
2.76
3.62
4.87
6.39
8.08
9.79
11.44
12.98
14.43
15.84
17.22
18.52
19.58
20.29
20.52
20.29
19.69
18.84
17.79
16.46
14.69
12.3
9.23
5.57
1.58
-2.42
-6.19
-9.62
-12.78
-15.79
-18.8
-21.78
-24.59
-27.05
-29.06
-30.62
-31.86
-32.89
-33.7
-34.17
-34.12
-33.44
-32.2
-30.61
-28.97
-27.53
-26.4
-25.6
-25.09
-24.85
-24.88
-25.2
-25.81
-26.65
-27.61
-28.55
-29.32
-29.75
-29.64
-28.88
-27.33
-25.01
-21.97
-18.4
-14.54
-10.58
-6.69
-2.94
0.65
4.08
7.38
10.59
13.76
16.89
19.93
22.73
25.07
26.74
27.74
28.15
28.23
28.26
28.44
28.8
29.28
29.7
29.87
29.6
28.79
27.48
25.96
24.66
24.07
24.62
26.46
29.48
33.28
37.28
40.8
43.23
44.09
43.14
40.45
36.38
31.53
26.55
21.96
18.02
14.77
12.0
9.46
7.0
4.58
2.3
0.34
-1.16
-2.16
-2.75
-3.15
-3.57
-4.19
-5.06
-6.13
-7.29
-8.48
-9.72
-11.12
-12.86
-15.01
-17.52
-20.2
-22.79
-25.07
-26.9
-28.24
-29.07
-29.34
-29.04
-28.26
-27.27
-26.45
-26.19
-26.63
-27.64
-28.7
-29.06
-28.07
-25.33
-20.91
-15.3
-9.25
-3.47
1.52
5.58
8.82
11.48
13.77
15.81
17.61
19.15
20.44
21.46
22.19
22.58
22.59
22.23
21.55
20.67
19.7
18.74
17.91
17.25
16.84
16.61
16.44
16.14
15.55
14.54
13.12
11.37
9.41
7.27
4.92
2.32
-0.54
-3.56
-6.5
-9.03
-10.86
-11.85
-12.08
-11.73
-11.11
-10.44
-9.93
-9.67
-9.69
-9.94
-10.21
-10.17
-9.45
-7.84
-5.37
-2.36
0.76
3.52
5.63
6.98
7.59
7.51
6.85
5.72
4.34
2.98
1.88
1.12
0.72
0.52
0.4
0.3
0.2
0.2
0.38
0.78
1.44
2.35
3.5
4.89
6.53
8.36
10.26
12.1
13.69
14.87
15.44
15.24
14.12
12.05
9.16
5.67
1.97
-1.56
-4.66
-7.19
-9.19
-10.73
-11.87
-12.61
-12.86
-12.52
-11.48
-9.67
-7.07
-3.79
-0.1
3.6
6.87
9.27
10.62
10.9
10.38
9.41
8.3
7.29
6.38
5.47
4.43
3.21
1.87
0.51
-0.71
-1.71
-2.49
-3.0
-3.23
-3.13
-2.75
-2.23
-1.86
-1.88
-2.41
-3.33
-4.32
-5.05
-5.33
-5.22
-4.98
-4.97
-5.42
-6.41
-7.86
-9.6
-11.47
-13.34
-15.08
-16.51
-17.45
-17.8
-17.6
-17.05
-16.45
-16.14
-16.26
-16.8
-17.56
-18.25
-18.54
-18.19
-17.06
-15.11
-12.39
-9.06
-5.34
-1.51
2.11
5.23
7.63
9.2
9.99
10.12
9.81
9.26
8.61
7.93
7.17
6.21
4.91
3.18
0.99
-1.59
-4.35
-7.0
-9.29
-11.08
-12.34
-13.23
-13.89
-14.41
-14.79
-14.91
-14.71
-14.19
-13.48
-12.67
-11.77
-10.61
-8.92
-6.5
-3.4
0.03
3.2
5.5
6.49
6.03
4.3
1.66
-1.49
-4.74
-7.86
-10.7
-13.15
-15.14
-16.5
-17.03
-16.45
-14.57
-11.38
-7.17
-2.45
2.15
6.13
9.17
11.19
12.25
12.42
11.78
10.39
8.41
6.0
3.33
0.45
-2.65
-6.03
-9.68
-13.5
-17.28
-20.79
-23.79
-25.98
-27.03
-26.57
-24.27
-20.0
-13.95
-6.56
1.52
9.71
17.51
24.58
30.68
35.61
39.23
41.46
42.32
42.01
40.8
39.09
37.28
35.7
34.61
34.07
33.98
34.07
33.97
33.31
31.85
29.49
26.37
22.79
19.2
16.08
13.83
12.67
12.55
13.11
13.76
13.76
12.45
9.44
4.77
-1.14
-7.58
-13.75
-18.95
-22.77
-25.08
-26.01
-25.86
-25.01
-23.77
-22.38
-20.94
-19.49
-18.05
-16.66
-15.44
-14.56
-14.18
-14.36
-15.0
-15.86
-16.66
-17.09
-17.02
-16.43
-15.43
-14.14
-12.64
-10.93
-8.94
-6.64
-4.04
-1.21
1.71
4.6
7.34
9.8
11.83
13.26
14.03
14.11
13.64
12.77
11.63
10.26
8.61
6.57
4.15
1.44
-1.3
-3.71
-5.37
-5.91
-5.14
-3.12
-0.18
3.19
6.48
9.29
11.42
12.85
13.76
14.37
14.94
15.65
16.55
17.58
18.57
19.31
19.64
19.41
18.62
17.28
15.48
13.33
11.01
8.69
6.55
4.67
3.04
1.6
0.18
-1.37
-3.2
-5.38
-7.88
-10.56
-13.21
-15.63
-17.75
-19.62
-21.39
-23.21
-25.17
-27.21
-29.15
-30.79
-31.98
-32.6
-32.58
-31.86
-30.35
-28.02
-24.93
-21.31
-17.49
-13.85
-10.7
-8.16
-6.2
-4.64
-3.25
-1.86
-0.35
1.36
3.23
5.18
7.0
8.45
9.34
9.58
9.34
8.91
8.63
8.74
9.24
9.98
10.71
11.2
11.33
11.08
10.46
9.49
8.13
6.37
4.23
1.88
-0.41
-2.28
-3.43
-3.67
-3.01
-1.58
0.42
2.82
5.51
8.44
11.55
14.8
18.09
21.31
24.35
27.03
29.19
30.63
31.19
30.85
29.7
27.97
25.97
24.02
22.3
20.9
19.75
18.71
17.63
16.32
14.65
12.57
10.11
7.44
4.81
2.44
0.42
-1.4
-3.31
-5.68
-8.71
-12.3
-16.08
-19.42
-21.76
-22.74
-22.3
-20.7
-18.42
-15.95
-13.75
-12.07
-11.01
-10.5
-10.38
-10.44
-10.51
-10.47
-10.23
-9.77
-9.13
-8.44
-7.93
-7.9
-8.63
-10.34
-13.04
-16.48
-20.18
-23.53
-25.98
-27.22
-27.25
-26.36
-24.89
-23.14
-21.26
-19.24
-17.06
-14.72
-12.28
-9.81
-7.31
-4.78
-2.19
0.47
3.12
5.72
8.25
10.75
13.28
15.88
18.58
21.31
24.06
26.76
29.32
31.59
33.36
34.43
34.7
34.23
33.24
32.06
31.03
30.37
30.13
30.25
30.59
31.03
31.5
31.92
32.2
32.12
31.38
29.62
26.6
22.37
17.2
11.61
6.11
1.11
-3.21
-6.8
-9.72
-12.07
-14.02
-15.76
-17.48
-19.32
-21.29
-23.27
-24.97
-26.13
-26.6
-26.44
-25.93
-25.42
-25.28
-25.75
-26.85
-28.35
-29.87
-30.93
-31.19
-30.53
-29.02
-26.94
-24.63
-22.37
-20.41
-18.91
-18.03
-17.8
-18.15
-18.85
-19.51
-19.66
-18.95
-17.19
-14.43
-10.88
-6.74
-2.22
2.56
7.47
12.34
16.92
20.89
24.04
26.28
27.74
28.66
29.27
29.63
29.64
29.08
27.77
25.69
22.98
19.88
16.58
13.2
9.77
6.31
2.97
-0.01
-2.31
-3.7
-4.1
-3.68
-2.72
-1.56
-0.48
0.35
0.79
0.73
0.14
-0.88
-2.03
-2.85
-2.87
-1.79
0.31
2.95
5.31
6.62
6.36
4.5
1.38
-2.36
-6.1
-9.35
-11.85
-13.51
-14.38
-14.61
-14.39
-13.87
-13.22
-12.54
-11.87
-11.18
-10.42
-9.51
-8.39
-7.06
-5.58
-4.09
-2.82
-2.02
-1.92
-2.61
-4.02
-5.97
-8.11
-10.12
-11.7
-12.69
-13.06
-12.88
-12.29
-11.46
-10.55
-9.62
-8.72
-7.78
-6.68
-5.3
-3.56
-1.52
0.7
2.9
4.97
6.91
8.88
11.11
13.85
17.2
21.02
24.93
28.36
30.78
31.81
31.4
29.79
27.47
24.98
22.85
21.4
20.76
20.88
21.52
22.35
23.05
23.39
23.31
22.84
22.13
21.25
20.23
19.08
17.85
16.62
15.51
14.55
13.72
12.86
11.8
10.37
8.48
6.07
3.08
-0.46
-4.46
-8.68
-12.78
-16.37
-19.21
-21.23
-22.54
-23.38
-23.9
-24.22
-24.39
-24.46
-24.52
-24.68
-24.97
-25.27
-25.43
-25.27
-24.81
-24.24
-23.85
-23.89
-24.36
-25.11
-25.74
-25.92
-25.41
-24.17
-22.33
-20.04
-17.43
-14.6
-11.63
-8.69
-5.97
-3.59
-1.49
0.59
3.12
6.5
10.9
16.12
21.7
26.98
31.49
34.99
37.47
39.05
39.85
39.92
39.27
37.9
35.85
33.26
30.3
27.16
24.05
21.17
18.7
16.8
15.58
15.04
15.05
15.35
15.59
15.41
14.54
12.8
10.27
7.15
3.78
0.55
-2.13
-3.97
-4.79
-4.63
-3.74
-2.55
-1.56
-1.19
-1.65
-2.88
-4.6
-6.43
-7.96
-8.86
-8.94
-8.17
-6.72
-4.86
-2.98
-1.47
-0.61
-0.49
-1.0
-1.84
-2.73
-3.57
-4.55
-6.15
-8.93
-13.34
-19.48
-27.02
-35.35
-43.72
-51.47
-58.08
-63.18
-66.47
-67.75
-67.05
-64.66
-61.15
-57.2
-53.37
-49.87
-46.56
-43.12
-39.26
-34.98
-30.53
-26.31
-22.62
-19.55
-17.01
-14.82
-12.89
-11.31
-10.36
-10.33
-11.46
-13.74
-16.92
-20.62
-24.35
-27.71
-30.46
-32.5
-33.94
-35.03
-36.16
-37.71
-40.02
-43.03
-46.18
-48.36
-48.1
-43.98
-35.12
-21.57
-4.33
14.86
34.0
51.29
65.43
75.72
81.99
84.46
83.67
80.45
75.75
70.59
65.8
61.87
58.93
56.75
54.84
52.78
50.21
47.06
43.46
39.7
36.01
32.54
29.27
26.05
22.77
19.42
16.1
12.98
10.17
7.68
5.39
3.16
0.89
-1.41
-3.64
-5.62
-7.18
-8.24
-8.81
-8.96
-8.72
-8.06
-6.89
-5.14
-2.89
-0.33
2.27
4.69
6.84
8.82
10.85
13.1
15.63
18.35
21.04
23.52
25.63
27.33
28.58
29.31
29.38
28.74
27.44
25.71
23.99
22.69
22.1
22.19
22.67
23.1
23.07
22.38
21.04
19.19
17.01
14.62
12.07
9.35
6.4
3.13
-0.6
-4.94
-9.96
-15.56
-21.41
-26.97
-31.68
-35.14
-37.26
-38.28
-38.63
-38.7
-38.73
-38.75
-38.66
-38.42
-38.1
-37.88
-37.9
-38.18
-38.6
-38.92
-38.99
-38.81
-38.55
-38.46
-38.77
-39.58
-40.8
-42.21
-43.5
-44.31
-44.25
-42.95
-40.12
-35.73
-29.93
-23.11
-15.74
-8.26
-0.99
5.87
12.19
17.85
22.7
26.63
29.69
32.03
33.87
35.43
36.77
37.87
38.7
39.25
39.63
39.98
40.41
40.99
41.7
42.48
43.19
43.69
43.83
43.46
42.58
41.27
39.76
38.27
36.93
35.78
34.72
33.62
32.3
30.58
28.29
25.29
21.53
17.12
12.33
7.45
2.71
-1.79
-6.07
-10.16
-13.99
-17.43
-20.33
-22.63
-24.4
-25.81
-26.95
-27.85
-28.46
-28.7
-28.59
-28.28
-27.88
-27.52
-27.21
-26.88
-26.48
-26.05
-25.69
-25.54
-25.7
-26.16
-26.87
-27.75
-28.72
-29.75
-30.79
-31.74
-32.52
-32.98
-33.08
-32.8
-32.21
-31.41
-30.49
-29.49
-28.37
-27.07
-25.46
-23.48
-21.11
-18.39
-15.44
-12.44
-9.51
-6.82
-4.44
-2.4
-0.62
1.1
3.06
5.58
8.87
12.93
17.52
22.18
26.41
29.79
32.07
33.26
33.49
32.97
31.89
30.38
28.5
26.33
23.95
21.44
18.94
16.56
14.37
12.41
10.66
9.1
7.66
6.27
4.85
3.31
1.64
-0.12
-1.85
-3.44
-4.82
-6.03
-7.25
-8.76
-10.79
-13.46
-16.61
-19.86
-22.71
-24.75
-25.79
-25.97
-25.69
-25.4
-25.42
-25.81
-26.33
-26.58
-26.22
-25.06
-23.12
-20.67
-18.0
-15.43
-13.27
-11.68
-10.78
-10.55
-10.89
-11.58
-12.34
-12.89
-13.05
-12.84
-12.48
-12.31
-12.61
-13.47
-14.67
-15.75
-16.18
-15.53
-13.63
-10.62
-6.86
-2.74
1.4
5.41
9.25
13.03
16.86
20.78
24.79
28.8
32.71
36.39
39.68
42.38
44.24
45.11
44.99
44.15
43.09
42.35
42.31
43.05
44.31
45.59
46.4
46.38
45.44
43.72
41.45
38.88
36.18
33.43
30.61
27.69
24.62
21.39
18.02
14.5
10.92
7.39
4.1
1.29
-0.91
-2.49
-3.65
-4.75
-6.1
-7.94
-10.22
-12.65
-14.75
-16.1
-16.44
-15.9
-14.91
-14.11
-14.08
-15.19
-17.41
-20.45
-23.89
-27.38
-30.69
-33.7
-36.29
-38.31
-39.58
-40.01
-39.71
-38.96
-38.09
-37.36
-36.85
-36.43
-35.81
-34.74
-32.96
-30.37
-26.88
-22.46
-17.14
-11.05
-4.44
2.31
8.73
14.42
19.11
22.72
25.37
27.18
28.3
28.83
28.9
28.66
28.36
28.29
28.68
29.56
30.74
31.84
32.37
31.94
30.36
27.81
24.76
21.78
19.37
17.79
17.02
16.87
17.0
17.11
16.91
16.16
14.76
12.74
10.32
7.88
5.77
4.22
3.23
2.51
1.66
0.33
-1.65
-4.23
-7.24
-10.46
-13.77
-17.11
-20.54
-24.13
-27.9
-31.74
-35.47
-38.9
-41.86
-44.33
-46.43
-48.39
-50.55
-53.21
-56.51
-60.34
-64.18
-67.11
-67.97
-65.54
-58.96
-47.88
-32.7
-14.56
4.83
23.44
39.25
50.61
56.56
57.03
52.83
45.48
36.77
28.33
21.34
16.36
13.38
12.09
12.04
12.76
13.88
15.09
16.16
17.0
17.61
18.06
18.43
18.81
19.2
19.54
19.71
19.55
18.92
17.78
16.18
14.32
12.44
10.69
9.11
7.5
5.59
3.14
0.03
-3.61
-7.51
-11.41
-15.21
-18.99
-23.01
-27.56
-32.72
-38.31
-43.91
-48.94
-52.83
-55.11
-55.45
-53.69
-49.96
-44.7
-38.67
-32.87
-28.27
-25.53
-24.82
-25.7
-27.28
-28.54
-28.55
-26.84
-23.4
-18.76
-13.69
-9.03
-5.33
-2.79
-1.17
0.01
1.25
2.94
5.29
8.34
12.01
16.05
20.08
23.62
26.26
27.9
28.83
29.74
31.45
34.65
39.6
46.06
53.42
60.93
67.94
74.03
79.04
82.97
85.87
87.86
89.05
89.61
89.8
89.89
90.11
90.54
91.08
91.5
91.45
90.7
89.1
86.66
83.4
79.4
74.65
69.22
63.26
57.08
51.14
45.87
41.58
38.22
35.38
32.41
28.58
23.35
16.49
8.22
-0.87
-9.95
-18.25
-25.21
-30.72
-35.02
-38.69
-42.37
-46.48
-51.2
-56.29
-61.31
-65.69
-68.94
-70.78
-71.17
-70.31
-68.48
-66.03
-63.24
-60.36
-57.56
-55.02
-52.92
-51.38
-50.42
-49.97
-49.91
-50.15
-50.71
-51.67
-53.09
-54.94
-56.99
-58.94
-60.41
-61.12
-60.85
-59.5
-57.04
-53.43
-48.74
-43.09
-36.67
-29.76
-22.68
-15.69
-8.99
-2.69
3.2
8.68
13.79
18.53
22.87
26.82
30.43
33.75
36.79
39.51
41.75
43.36
44.25
44.49
44.29
43.95
43.73
43.73
43.94
44.27
44.68
45.2
45.94
47.0
48.4
49.99
51.5
52.57
52.9
52.27
50.66
48.25
45.38
42.41
39.55
36.81
33.87
30.22
25.31
18.72
10.33
0.4
-10.45
-21.38
-31.49
-40.01
-46.42
-50.56
-52.57
-52.88
-52.06
-50.71
-49.38
-48.48
-48.22
-48.6
-49.41
-50.28
-50.87
-50.91
-50.34
-49.24
-47.79
-46.16
-44.38
-42.4
-40.01
-37.0
-33.18
-28.49
-23.04
-17.08
-10.95
-4.94
0.74
6.02
10.86
15.2
18.98
22.12
24.62
26.57
28.08
29.17
29.77
29.72
28.87
27.27
25.2
23.06
21.27
20.1
19.65
19.87
20.66
21.89
23.47
25.28
27.17
28.89
30.13
30.49
29.61
27.22
23.25
17.93
11.62
4.83
-1.99
-8.53
-14.69
-20.49
-26.09
-31.67
-37.35
-43.13
-48.75
-53.72
-57.45
-59.44
-59.5
-57.83
-54.92
-51.33
-47.41
-43.25
-38.7
-33.63
-28.15
-22.66
-17.77
-14.1
-11.96
-11.33
-11.87
-13.11
-14.68
-16.35
-18.05
-19.68
-21.09
-21.96
-21.99
-21.03
-19.12
-16.55
-13.73
-10.95
-8.28
-5.57
-2.55
0.93
4.76
8.55
11.81
14.11
15.27
15.41
14.84
13.93
13.05
12.5
12.56
13.38
15.0
17.27
19.79
22.14
23.94
25.07
25.61
25.8
25.92
26.1
26.41
26.74
26.93
26.82
26.27
25.2
23.64
21.75
19.73
17.86
16.31
15.16
14.25
13.16
11.24
7.73
1.89
-6.79
-18.4
-32.6
-48.46
-64.67
-79.66
-91.81
-99.82
-102.84
-100.72
-93.93
-83.37
-70.14
-55.25
-39.55
-23.65
-8.04
6.86
20.69
33.17
44.1
53.34
60.85
66.59
70.58
72.88
73.66
73.2
71.86
70.07
68.14
66.24
64.41
62.63
60.82
58.93
56.99
55.06
53.19
51.41
49.7
47.87
45.66
42.72
38.76
33.73
27.92
21.94
16.47
12.12
9.15
7.5
6.87
6.95
7.51
8.44
9.66
11.07
12.58
14.12
15.69
17.39
19.24
21.21
23.11
24.7
25.77
26.25
26.24
26.0
25.83
25.98
26.55
27.44
28.34
28.85
28.58
27.26
24.92
21.82
18.36
14.97
11.87
9.03
6.22
3.14
-0.52
-4.9
-10.01
-15.75
-21.86
-27.95
-33.5
-37.92
-40.79
-41.99
-41.79
-40.82
-39.84
-39.48
-40.01
-41.3
-42.98
-44.59
-45.79
-46.4
-46.41
-45.87
-44.88
-43.59
-42.15
-40.72
-39.43
-38.3
-37.23
-36.07
-34.6
-32.66
-30.18
-27.13
-23.55
-19.56
-15.28
-10.93
-6.75
-2.93
0.43
3.36
5.97
8.37
10.66
12.82
14.79
16.48
17.77
18.59
18.9
18.72
18.16
17.37
16.49
15.6
14.71
13.79
12.88
12.08
11.64
11.8
12.74
14.44
16.61
18.73
20.07
19.84
17.3
12.04
4.08
-6.04
-17.3
-28.54
-38.7
-47.07
-53.41
-57.92
-61.0
-63.17
-64.89
-66.54
-68.36
-70.42
-72.52
-74.26
-75.1
-74.51
-72.11
-67.74
-61.47
-53.54
-44.37
-34.43
-24.26
-14.37
-5.18
2.98
9.96
15.72
20.27
23.6
25.67
26.4
25.7
23.57
20.12
15.61
10.46
5.2
0.38
-3.53
-6.28
-7.77
-8.02
-7.07
-4.99
-1.81
2.32
7.19
12.49
17.88
23.03
27.7
31.76
35.14
37.86
39.96
41.58
42.9
44.11
45.38
46.77
48.18
49.42
50.29
50.66
50.49
49.87
48.84
47.47
45.81
43.92
41.94
39.96
38.05
36.15
34.12
31.85
29.37
26.91
24.84
23.54
23.28
24.09
25.72
27.67
29.24
29.63
28.15
24.37
18.29
10.34
1.31
-7.88
-16.35
-23.45
-28.85
-32.5
-34.64
-35.67
-36.02
-36.03
-35.82
-35.34
-34.39
-32.81
-30.56
-27.76
-24.57
-21.14
-17.58
-13.98
-10.46
-7.26
-4.66
-2.95
-2.3
-2.73
-4.02
-5.85
-7.84
-9.61
-10.9
-11.58
-11.68
-11.29
-10.56
-9.58
-8.43
-7.14
-5.72
-4.2
-2.61
-0.99
0.62
2.13
3.48
4.7
5.81
6.9
8.02
9.18
10.37
11.53
12.63
13.62
14.41
14.97
15.25
15.29
15.21
15.24
15.62
16.51
17.92
19.74
21.75
23.75
25.57
27.1
28.24
28.91
29.07
28.78
28.12
27.25
26.32
25.36
24.3
22.96
21.05
18.35
14.78
10.43
5.65
0.89
-3.36
-6.68
-8.84
-9.82
-9.77
-8.97
-7.72
-6.34
-5.12
-4.28
-3.92
-3.99
-4.38
-4.93
-5.6
-6.46
-7.64
-9.36
-11.71
-14.67
-18.03
-21.49
-24.79
-27.72
-30.13
-31.95
-33.14
-33.7
-33.64
-33.07
-32.09
-30.8
-29.29
-27.59
-25.7
-23.6
-21.33
-19.01
-16.84
-14.94
-13.36
-11.91
-10.25
-8.09
-5.28
-1.94
1.56
4.8
7.41
9.31
10.64
11.72
12.87
14.32
16.09
18.05
19.96
21.64
23.06
24.36
25.83
27.66
29.88
32.25
34.3
35.44
35.11
32.95
28.81
22.84
15.46
7.31
-0.88
-8.4
-14.75
-19.7
-23.33
-25.93
-27.9
-29.58
-31.13
-32.49
-33.43
-33.58
-32.69
-30.66
-27.68
-24.1
-20.38
-16.89
-13.91
-11.58
-9.91
-8.82
-8.17
-7.8
-7.47
-7.01
-6.29
-5.35
-4.31
-3.46
-3.07
-3.33
-4.26
-5.72
-7.45
-9.1
-10.38
-11.09
-11.16
-10.66
-9.8
-8.81
-7.93
-7.31
-6.98
-6.89
-6.93
-7.05
-7.23
-7.46
-7.71
-7.89
-7.83
-7.41
-6.52
-5.16
-3.42
-1.4
0.79
3.05
5.26
7.3
8.95
10.02
10.41
10.18
9.54
8.82
8.25
7.94
7.79
7.68
7.54
7.46
7.62
8.17
8.99
9.75
9.95
9.2
7.4
4.78
1.85
-0.89
-3.1
-4.69
-5.78
-6.59
-7.28
-7.91
-8.44
-8.8
-8.98
-9.02
-8.94
-8.72
-8.23
-7.33
-6.01
-4.4
-2.81
-1.61
-1.07
-1.21
-1.85
-2.63
-3.26
-3.59
-3.66
-3.61
-3.62
-3.79
-4.19
-4.84
-5.78
-7.04
-8.61
-10.41
-12.32
-14.23
-16.05
-17.77
-19.41
-20.99
-22.42
-23.56
-24.21
-24.22
-23.6
-22.54
-21.39
-20.54
-20.26
-20.56
-21.13
-21.54
-21.38
-20.51
-19.13
-17.66
-16.54
-16.01
-16.04
-16.34
-16.59
-16.46
-15.68
-14.08
-11.53
-7.96
-3.42
1.88
7.65
13.53
19.23
24.56
29.46
33.95
38.01
41.45
43.86
44.7
43.47
39.93
34.19
26.8
18.57
10.34
2.78
-3.73
-9.14
-13.62
-17.44
-20.92
-24.3
-27.7
-31.17
-34.58
-37.7
-40.16
-41.62
-41.72
-40.34
-37.61
-33.85
-29.59
-25.35
-21.55
-18.43
-16.05
-14.27
-12.88
-11.6
-10.18
-8.48
-6.47
-4.29
-2.16
-0.31
1.09
1.98
2.37
2.34
2.02
1.62
1.39
1.57
2.26
3.38
4.63
5.69
6.34
6.56
6.53
6.54
6.78
7.26
7.79
8.06
7.78
6.81
5.13
2.87
0.23
-2.63
-5.58
-8.56
-11.59
-14.71
-17.99
-21.53
-25.42
-29.82
-34.9
-40.82
-47.69
-55.48
-64.05
-73.02
-81.86
-89.82
-96.08
-99.81
-100.27
-97.03
-90.08
-79.86
-67.27
-53.49
-39.75
-27.1
-16.16
-6.99
0.83
8.12
15.83
24.69
34.93
46.16
57.53
68.03
76.89
83.78
88.84
92.43
94.87
96.31
96.78
96.43
95.61
94.87
94.74
95.43
96.73
98.04
98.61
97.78
95.12
90.55
84.21
76.41
67.52
57.96
48.15
38.52
29.48
21.33
14.33
8.52
3.81
0.02
-3.12
-5.79
-8.09
-10.03
-11.46
-12.21
-12.1
-11.07
-9.18
-6.63
-3.75
-0.85
1.9
4.46
6.93
9.44
12.02
14.54
16.75
18.46
19.55
20.07
20.23
20.25
20.35
20.64
21.16
21.87
22.67
23.45
24.11
24.64
25.04
25.36
25.68
26.02
26.39
26.75
27.02
27.07
26.71
25.72
23.92
21.29
17.92
14.08
10.02
5.91
1.8
-2.32
-6.42
-10.36
-13.88
-16.76
-18.89
-20.26
-21.06
-21.48
-21.61
-21.43
-20.8
-19.58
-17.71
-15.24
-12.39
-9.44
-6.64
-4.13
-1.91
0.13
2.08
3.97
5.66
7.0
7.79
7.97
7.51
6.43
4.73
2.38
-0.51
-3.73
-6.91
-9.72
-11.95
-13.64
-15.05
-16.44
-17.98
-19.61
-21.22
-22.69
-24.01
-25.27
-26.53
-27.7
-28.57
-28.94
-28.7
-28.01
-27.09
-26.2
-25.35
-24.34
-22.83
-20.53
-17.37
-13.51
-9.29
-5.05
-1.08
2.5
5.63
8.32
10.55
12.24
13.32
13.7
13.37
12.4
10.95
9.27
7.62
6.22
5.16
4.44
3.91
3.34
2.46
1.04
-1.05
-3.75
-6.8
-9.81
-12.37
-14.17
-15.11
-15.26
-14.86
-14.12
-13.23
-12.28
-11.33
-10.53
-10.06
-10.13
-10.82
-12.08
-13.71
-15.55
-17.51
-19.58
-21.73
-23.68
-24.97
-25.02
-23.35
-19.89
-15.01
-9.4
-3.79
1.36
6.02
10.41
14.83
19.34
23.7
27.43
30.04
31.28
31.2
30.17
28.73
27.43
26.69
26.76
27.71
29.42
31.62
33.92
35.88
37.14
37.54
37.11
36.01
34.46
32.59
30.47
28.2
25.85
23.63
21.7
20.18
18.99
17.91
16.63
14.94
12.79
10.28
7.58
4.8
1.94
-1.07
-4.22
-7.39
-10.26
-12.42
-13.55
-13.48
-12.3
-10.32
-8.0
-5.79
-4.1
-3.16
-3.01
-3.47
-4.21
-4.85
-5.11
-4.88
-4.24
-3.43
-2.74
-2.42
-2.6
-3.28
-4.31
-5.44
-6.43
-7.04
-7.11
-6.61
-5.69
-4.68
-4.01
-4.21
-5.68
-8.56
-12.66
-17.47
-22.38
-26.8
-30.43
-33.19
-35.24
-36.72
-37.72
-38.23
-38.21
-37.62
-36.39
-34.53
-32.03
-28.98
-25.55
-22.03
-18.72
-15.85
-13.46
-11.42
-9.45
-7.29
-4.78
-1.89
1.26
4.54
7.82
10.94
13.74
15.99
17.44
17.91
17.34
15.85
13.68
11.1
8.29
5.34
2.22
-1.08
-4.54
-8.07
-11.54
-14.8
-17.74
-20.27
-22.36
-24.05
-25.51
-26.86
-28.17
-29.41
-30.42
-31.06
-31.29
-31.25
-31.2
-31.43
-32.07
-33.0
-33.9
-34.35
-34.01
-32.79
-30.87
-28.65
-26.64
-25.22
-24.51
-24.29
-24.07
-23.19
-21.04
-17.23
-11.66
-4.61
3.37
11.55
19.18
25.69
30.75
34.34
36.62
37.82
38.12
37.65
36.5
34.79
32.73
30.56
28.48
26.67
25.14
23.89
22.94
22.34
22.22
22.65
23.59
24.82
25.98
26.67
26.61
25.73
24.19
22.32
20.44
18.78
17.45
16.48
15.82
15.47
15.41
15.64
16.12
16.81
17.6
18.38
19.07
19.59
19.85
19.75
19.19
18.12
16.54
14.55
12.36
10.23
8.38
6.95
5.97
5.35
4.96
4.67
4.34
3.9
3.23
2.28
1.04
-0.42
-1.97
-3.48
-4.9
-6.3
-7.84
-9.65
-11.81
-14.22
-16.71
-19.03
-20.95
-22.29
-22.93
-22.82
-22.0
-20.65
-19.05
-17.49
-16.21
-15.36
-14.99
-15.06
-15.54
-16.36
-17.41
-18.57
-19.72
-20.79
-21.76
-22.67
-23.57
-24.45
-25.28
-25.96
-26.39
-26.47
-26.16
-25.47
-24.41
-22.96
-21.07
-18.7
-15.85
-12.61
-9.19
-5.85
-2.77
-0.06
2.31
4.45
6.45
8.34
10.06
11.57
12.87
14.03
15.14
16.25
17.31
18.25
18.96
19.43
19.68
19.79
19.81
19.72
19.47
19.01
18.38
17.63
16.92
16.29
15.76
15.27
14.7
13.94
12.94
11.7
10.23
8.65
7.11
5.84
5.0
4.67
4.78
5.03
5.07
4.58
3.37
1.43
-1.09
-3.98
-7.05
-10.09
-12.96
-15.53
-17.72
-19.49
-20.86
-21.88
-22.62
-23.16
-23.53
-23.85
-24.25
-24.94
-26.11
-27.82
-29.95
-32.19
-34.19
-35.68
-36.59
-37.04
-37.23
-37.26
-37.06
-36.35
-34.75
-31.95
-27.83
-22.55
-16.53
-10.3
-4.44
0.58
4.51
7.38
9.43
11.02
12.49
14.08
15.87
17.79
19.69
21.44
22.93
24.05
24.74
24.96
24.7
24.06
23.19
22.29
21.57
21.17
21.1
21.29
21.52
21.55
21.22
20.45
19.29
17.88
16.36
14.81
13.29
11.86
10.61
9.69
9.26
9.41
10.08
11.03
11.93
12.4
12.14
10.95
8.76
5.72
2.11
-1.65
-5.1
-7.87
-9.72
-10.67
-10.92
-10.77
-10.51
-10.33
-10.39
-10.75
-11.47
-12.55
-13.99
-15.75
-17.73
-19.84
-21.97
-24.03
-25.9
-27.46
-28.59
-29.21
-29.32
-28.99
-28.39
-27.66
-26.86
-25.94
-24.68
-22.75
-19.85
-15.81
-10.59
-4.41
2.39
9.41
16.34
22.91
28.96
34.39
39.11
43.08
46.33
48.93
51.01
52.63
53.75
54.23
53.87
52.5
50.09
46.72
42.58
37.94
33.09
28.34
24.04
20.44
17.62
15.48
13.73
12.05
10.25
8.34
6.58
5.27
4.61
4.51
4.6
4.34
3.3
1.27
-1.62
-4.96
-8.17
-10.73
-12.3
-12.81
-12.44
-11.55
-10.59
-9.93
-9.85
-10.38
-11.42
-12.7
-13.96
-14.99
-15.72
-16.19
-16.46
-16.59
-16.53
-16.24
-15.69
-15.01
-14.38
-13.96
-13.77
-13.64
-13.3
-12.56
-11.42
-10.11
-9.0
-8.43
-8.55
-9.27
-10.23
-10.97
-11.03
-10.12
-8.16
-5.32
-1.94
1.56
4.76
7.3
8.96
9.6
9.25
8.06
6.35
4.51
2.92
1.78
1.06
0.51
-0.21
-1.34
-2.95
-4.95
-7.12
-9.25
-11.19
-12.84
-14.09
-14.83
-14.93
-14.32
-13.03
-11.2
-9.04
-6.79
-4.6
-2.58
-0.75
0.91
2.38
3.6
4.46
4.85
4.74
4.2
3.45
2.78
2.48
2.72
3.49
4.59
5.71
6.51
6.72
6.15
4.77
2.69
0.16
-2.45
-4.77
-6.5
-7.54
-7.99
-8.12
-8.29
-8.79
-9.77
-11.23
-13.01
-14.84
-16.44
-17.61
-18.24
-18.45
-18.55
-18.85
-19.59
-20.7
-21.82
-22.39
-21.86
-19.93
-16.65
-12.47
-8.03
-3.98
-0.77
1.43
2.73
3.51
4.23
5.41
7.46
10.53
14.5
18.93
23.21
26.77
29.24
30.54
30.81
30.34
29.38
28.18
26.91
25.74
24.82
24.22
23.84
23.46
22.79
21.56
19.66
17.15
14.24
11.18
8.18
5.33
2.61
-0.04
-2.7
-5.4
-8.09
-10.62
-12.68
-13.92
-14.04
-12.9
-10.63
-7.64
-4.48
-1.71
0.34
1.63
2.33
2.74
3.02
3.21
3.19
2.82
2.01
0.79
-0.76
-2.58
-4.7
-7.19
-10.11
-13.42
-16.89
-20.15
-22.87
-24.91
-26.32
-27.33
-28.2
-29.04
-29.75
-30.08
-29.68
-28.35
-26.09
-23.02
-19.39
-15.38
-11.13
-6.74
-2.32
1.94
5.83
9.1
11.67
13.57
15.01
16.21
17.36
18.54
19.77
21.02
22.31
23.71
25.26
26.9
28.46
29.7
30.38
30.38
29.81
28.94
28.17
27.84
28.13
28.99
30.13
31.19
31.86
32.04
31.85
31.6
31.68
32.41
33.94
36.06
38.28
39.88
40.1
38.35
34.4
28.44
20.99
12.79
4.5
-3.24
-10.04
-15.61
-19.83
-22.73
-24.4
-25.08
-24.99
-24.37
-23.44
-22.44
-21.6
-21.2
-21.5
-22.63
-24.59
-27.18
-30.1
-33.05
-35.74
-38.0
-39.71
-40.85
-41.38
-41.36
-40.85
-39.97
-38.87
-37.62
-36.21
-34.52
-32.45
-29.95
-27.07
-23.94
-20.69
-17.43
-14.19
-10.99
-7.86
-4.81
-1.9
0.85
3.48
6.03
8.54
10.97
13.22
15.18
16.67
17.57
17.79
17.34
16.29
14.83
13.17
11.52
10.06
8.89
8.09
7.73
7.82
8.31
9.07
9.87
10.47
10.63
10.21
9.19
7.69
5.92
4.17
2.78
1.99
1.96
2.64
3.81
5.15
6.38
7.29
7.8
7.87
7.53
6.73
5.42
3.59
1.4
-0.95
-3.16
-4.99
-6.35
-7.33
-8.13
-8.91
-9.73
-10.54
-11.21
-11.64
-11.91
-12.22
-12.9
-14.2
-16.15
-18.52
-20.84
-22.63
-23.54
-23.52
-22.75
-21.56
-20.27
-19.02
-17.79
-16.46
-14.84
-12.79
-10.26
-7.32
-4.16
-1.09
1.58
3.65
5.12
6.16
7.01
7.85
8.75
9.63
10.39
10.94
11.28
11.45
11.51
11.51
11.52
11.59
11.81
12.27
12.98
13.83
14.7
15.39
15.78
15.81
15.47
14.83
13.99
13.1
12.34
11.88
11.86
12.29
13.09
14.01
14.81
15.31
15.48
15.42
15.34
15.38
15.58
15.85
16.06
16.02
15.6
14.66
13.11
10.87
7.98
4.63
1.15
-2.04
-4.62
-6.42
-7.52
-8.17
-8.7
-9.38
-10.38
-11.76
-13.49
-15.49
-17.65
-19.85
-21.89
-23.53
-24.54
-24.76
-24.16
-22.92
-21.32
-19.7
-18.27
-17.09
-15.99
-14.73
-13.06
-10.86
-8.15
-5.08
-1.88
1.21
3.93
6.13
7.7
8.71
9.32
9.72
10.03
10.23
10.17
9.69
8.69
7.19
5.32
3.15
0.67
-2.21
-5.48
-8.95
-12.25
-14.9
-16.52
-16.99
-16.39
-15.03
-13.26
-11.37
-9.52
-7.81
-6.17
-4.56
-2.87
-1.04
0.96
3.08
5.21
7.18
8.78
9.85
10.26
10.03
9.3
8.35
7.46
6.92
6.91
7.51
8.77
10.66
13.14
16.02
19.0
21.58
23.21
23.48
22.23
19.7
16.38
12.85
9.56
6.66
4.03
1.42
-1.4
-4.49
-7.69
-10.79
-13.53
-15.77
-17.45
-18.57
-19.12
-19.07
-18.37
-16.93
-14.69
-11.66
-7.97
-3.85
0.4
4.5
8.35
11.97
15.55
19.26
23.17
27.2
31.16
34.83
38.05
40.74
42.9
44.5
45.43
45.48
44.39
41.92
38.01
32.84
26.86
20.69
14.97
10.18
6.62
4.34
3.22
2.99
3.27
3.52
3.15
1.64
-1.36
-5.85
-11.51
-17.72
-23.82
-29.16
-33.35
-36.28
-38.07
-39.03
-39.47
-39.58
-39.38
-38.82
-37.82
-36.41
-34.7
-32.83
-30.88
-28.85
-26.66
-24.29
-21.82
-19.44
-17.39
-15.94
-15.22
-15.25
-15.87
-16.84
-17.88
-18.77
-19.39
-19.74
-19.89
-19.98
-20.11
-20.39
-20.9
-21.66
-22.62
-23.61
-24.41
-24.82
-24.71
-24.03
-22.84
-21.17
-19.03
-16.46
-13.51
-10.36
-7.29
-4.57
-2.34
-0.65
0.66
1.75
2.68
3.42
3.86
3.88
3.43
2.61
1.57
0.48
-0.5
-1.23
-1.57
-1.33
-0.3
1.74
4.84
8.91
13.67
18.69
23.45
27.46
30.29
31.63
31.38
29.62
26.63
22.82
18.66
14.57
10.88
7.72
5.04
2.7
0.47
-1.85
-4.32
-6.81
-9.08
-10.75
-11.56
-11.37
-10.29
-8.62
-6.72
-4.92
-3.42
-2.26
-1.33
-0.51
0.35
1.34
2.51
3.86
5.37
7.01
8.69
10.36
11.96
13.46
14.84
16.13
17.4
18.75
20.29
22.05
24.03
26.09
28.05
29.72
30.96
31.7
31.97
31.85
31.39
30.7
29.89
29.16
28.73
28.78
29.29
30.02
30.55
30.42
29.26
26.91
23.46
19.11
14.11
8.75
3.35
-1.64
-5.82
-8.82
-10.51
-10.99
-10.55
-9.48
-7.96
-6.1
-3.92
-1.58
0.66
2.47
3.58
3.91
3.6
2.99
2.39
2.08
2.15
2.49
2.88
3.12
3.05
2.63
1.95
1.09
0.04
-1.25
-2.89
-4.89
-7.12
-9.32
-11.19
-12.53
-13.35
-13.84
-14.27
-14.89
-15.74
-16.73
-17.71
-18.63
-19.56
-20.7
-22.18
-23.96
-25.75
-27.14
-27.84
-27.76
-27.13
-26.24
-25.37
-24.57
-23.75
-22.72
-21.39
-19.79
-18.06
-16.34
-14.67
-12.99
-11.13
-8.99
-6.55
-3.93
-1.32
1.06
3.1
4.81
6.33
7.9
9.72
11.92
14.43
17.05
19.46
21.29
22.27
22.24
21.21
19.35
16.95
14.38
12.03
10.26
9.25
9.02
9.37
9.97
10.44
10.47
9.92
8.74
7.01
4.83
2.34
-0.29
-2.89
-5.3
-7.37
-9.06
-10.46
-11.71
-12.97
-14.26
-15.47
-16.36
-16.61
-16.02
-14.51
-12.19
-9.39
-6.5
-3.9
-1.87
-0.52
0.23
0.6
0.82
1.05
1.3
1.4
1.15
0.48
-0.53
-1.63
-2.56
-3.16
-3.42
-3.45
-3.38
-3.32
-3.28
-3.22
-3.14
-3.04
-2.98
-2.98
-3.02
-3.0
-2.77
-2.22
-1.26
0.08
1.65
3.2
4.47
5.25
5.49
5.32
5.0
4.83
5.02
5.7
6.81
8.2
9.64
10.89
11.77
12.17
12.05
11.45
10.43
9.08
7.56
6.03
4.63
3.49
2.63
1.96
1.35
0.61
-0.41
-1.76
-3.34
-4.87
-6.0
-6.37
-5.83
-4.5
-2.74
-1.05
0.17
0.81
1.0
1.11
1.48
2.32
3.66
5.4
7.37
9.41
11.33
12.96
14.15
14.83
15.03
14.84
14.43
13.87
13.12
12.03
10.4
8.09
5.09
1.51
-2.41
-6.37
-10.07
-13.29
-15.86
-17.76
-19.09
-20.07
-20.97
-21.97
-23.1
-24.2
-24.98
-25.17
-24.64
-23.56
-22.2
-20.96
-20.16
-19.96
-20.3
-20.92
-21.35
-20.98
-19.25
-15.69
-10.24
-3.14
5.01
13.55
21.85
29.47
36.16
41.79
46.28
49.6
51.79
53.0
53.44
53.36
52.91
52.07
50.67
48.48
45.34
41.25
36.4
31.11
25.73
20.56
15.77
11.42
7.51
3.96
0.66
-2.43
-5.35
-8.07
-10.53
-12.66
-14.45
-15.96
-17.28
-18.53
-19.74
-20.88
-21.8
-22.35
-22.43
-22.03
-21.26
-20.22
-19.0
-17.56
-15.86
-13.88
-11.77
-9.76
-8.12
-7.04
-6.58
-6.71
-7.36
-8.54
-10.24
-12.45
-15.06
-17.86
-20.58
-22.94
-24.75
-25.93
-26.45
-26.29
-25.42
-23.8
-21.46
-18.52
-15.17
-11.68
-8.23
-4.89
-1.56
1.94
5.76
9.89
14.15
18.17
21.57
24.06
25.53
26.12
26.05
25.65
25.21
24.91
24.81
24.87
25.02
25.15
25.22
25.17
24.97
24.63
24.17
23.62
23.04
22.46
21.8
20.93
19.61
17.58
14.69
10.95
6.6
2.03
-2.33
-6.12
-9.24
-11.8
-14.05
-16.22
-18.44
-20.68
-22.86
-24.9
-26.79
-28.57
-30.24
-31.79
-33.11
-34.07
-34.61
-34.8
-34.88
-35.15
-35.86
-37.08
-38.71
-40.45
-41.98
-43.02
-43.37
-42.91
-41.55
-39.25
-36.12
-32.44
-28.7
-25.43
-23.03
-21.59
-20.89
-20.57
-20.24
-19.71
-18.93
-18.02
-17.07
-16.13
-15.2
-14.27
-13.34
-12.43
-11.59
-10.81
-10.05
-9.27
-8.44
-7.59
-6.82
-6.32
-6.35
-7.23
-9.26
-12.72
-17.66
-23.78
-30.31
-36.09
-39.92
-40.92
-38.92
-34.47
-28.66
-22.66
-17.37
-13.18
-10.12
-7.93
-6.35
-5.14
-3.99
-2.53
-0.3
3.05
7.53
12.78
18.13
22.83
26.35
28.59
29.87
30.74
31.79
33.36
35.58
38.33
41.37
44.48
47.4
49.89
51.74
52.78
52.99
52.42
51.22
49.57
47.58
45.32
42.75
39.81
36.43
32.61
28.46
24.19
20.09
16.41
13.22
10.4
7.76
5.11
2.42
-0.12
-2.16
-3.38
-3.67
-3.2
-2.33
-1.46
-0.85
-0.52
-0.33
-0.14
0.1
0.26
0.14
-0.49
-1.76
-3.75
-6.45
-9.82
-13.77
-18.15
-22.75
-27.38
-31.94
-36.47
-41.11
-45.89
-50.72
-55.24
-59.0
-61.57
-62.77
-62.64
-61.46
-59.47
-56.82
-53.33
-48.61
-42.15
-33.56
-22.75
-10.04
3.89
18.13
31.78
44.12
54.84
63.94
71.65
78.25
83.89
88.49
91.77
93.39
93.04
90.67
86.51
81.0
74.73
68.24
61.87
55.81
50.07
44.61
39.34
34.15
28.9
23.38
17.48
11.23
4.94
-0.88
-5.67
-9.05
-10.91
-11.59
-11.65
-11.79
-12.56
-14.25
-16.85
-20.02
-23.25
-25.98
-27.76
-28.34
-27.83
-26.66
-25.41
-24.73
-24.96
-26.03
-27.45
-28.43
-28.26
-26.51
-23.2
-18.66
-13.36
-7.68
-1.79
4.23
10.29
16.14
21.46
25.87
29.13
31.21
32.25
32.46
32.08
31.28
30.2
28.98
27.79
26.76
26.0
25.53
25.27
25.09
24.81
24.24
23.24
21.76
19.93
17.98
16.26
15.03
14.41
14.34
14.58
14.89
15.15
15.41
15.8
16.33
16.86
17.01
16.38
14.71
12.07
8.84
5.52
2.55
0.13
-1.8
-3.45
-5.06
-6.81
-8.7
-10.66
-12.54
-14.15
-15.32
-15.89
-15.76
-14.92
-13.49
-11.63
-9.6
-7.62
-5.88
-4.47
-3.4
-2.55
-1.72
-0.65
0.93
3.18
6.19
9.86
13.94
18.1
21.95
25.16
27.55
29.07
29.79
29.94
29.81
29.7
29.8
30.13
30.49
30.56
29.95
28.33
25.61
21.95
17.75
13.56
10.01
7.6
6.63
7.1
8.71
10.96
13.19
14.78
15.21
14.2
11.75
8.17
4.08
0.19
-2.87
-4.76
-5.54
-5.63
-5.6
-5.96
-7.03
-8.86
-11.36
-14.32
-17.49
-20.57
-23.32
-25.58
-27.35
-28.8
-30.18
-31.71
-33.47
-35.36
-37.14
-38.55
-39.33
-39.33
-38.53
-37.02
-34.97
-32.53
-29.85
-27.02
-24.07
-21.06
-18.06
-15.26
-12.79
-10.77
-9.26
-8.17
-7.39
-6.72
-5.96
-4.95
-3.66
-2.17
-0.68
0.54
1.34
1.68
1.72
1.67
1.71
1.96
2.42
3.06
3.84
4.68
5.48
6.08
6.32
6.04
5.2
3.88
2.3
0.78
-0.38
-0.93
-0.81
-0.14
0.78
1.57
1.87
1.38
-0.1
-2.72
-6.56
-11.68
-18.01
-25.31
-33.1
-40.62
-47.07
-51.71
-54.05
-54.02
-51.88
-48.18
-43.51
-38.46
-33.48
-28.92
-25.08
-22.14
-20.2
-19.19
-18.88
-18.97
-19.15
-19.24
-19.17
-18.99
-18.83
-18.75
-18.83
-19.04
-19.39
-19.8
-20.24
-20.65
-20.94
-21.08
-20.98
-20.56
-19.71
-18.32
-16.29
-13.64
-10.42
-6.76
-2.81
1.29
5.38
9.37
13.22
16.9
20.37
23.56
26.29
28.38
29.7
30.22
30.09
29.56
28.81
27.96
26.97
25.8
24.48
23.16
22.07
21.38
21.17
21.4
21.96
22.74
23.6
24.35
24.78
24.69
23.98
22.82
21.56
20.65
20.52
21.35
23.01
25.12
27.06
28.15
27.79
25.62
21.6
15.97
9.23
2.0
-5.14
-11.68
-17.25
-21.63
-24.76
-26.67
-27.54
-27.64
-27.25
-26.64
-25.95
-25.22
-24.5
-23.84
-23.38
-23.25
-23.54
-24.15
-24.87
-25.4
-25.48
-24.98
-23.99
-22.74
-21.51
-20.53
-19.85
-19.39
-18.94
-18.29
-17.27
-15.75
-13.64
-10.83
-7.25
-2.94
1.92
6.99
11.82
16.08
19.59
22.42
24.79
26.93
28.96
30.79
32.28
33.24
33.61
33.48
33.04
32.5
31.97
31.49
30.98
30.35
29.64
28.93
28.42
28.28
28.57
29.17
29.72
29.75
28.72
26.22
22.03
16.24
9.14
1.16
-7.24
-15.61
-23.54
-30.68
-36.69
-41.36
-44.61
-46.51
-47.27
-47.1
-46.22
-44.78
-42.88
-40.58
-37.97
-35.12
-32.11
-29.09
-26.23
-23.63
-21.38
-19.42
-17.63
-15.87
-14.12
-12.42
-10.9
-9.67
-8.81
-8.36
-8.33
-8.72
-9.47
-10.45
-11.39
-12.03
-12.15
-11.7
-10.76
-9.54
-8.28
-7.1
-6.07
-5.17
-4.36
-3.5
-2.41
-0.83
1.51
4.76
8.92
13.75
18.91
24.1
29.05
33.62
37.67
41.1
43.8
45.75
46.99
47.71
48.13
48.44
48.74
49.03
49.28
49.47
49.66
49.96
50.47
51.23
52.08
52.68
52.5
51.03
47.89
43.05
36.85
29.94
23.07
16.83
11.58
7.31
3.72
0.33
-3.27
-7.35
-11.83
-16.4
-20.55
-23.88
-26.13
-27.35
-27.75
-27.6
-27.09
-26.34
-25.42
-24.45
-23.57
-22.93
-22.61
-22.57
-22.69
-22.89
-23.11
-23.44
-23.99
-24.84
-25.97
-27.2
-28.22
-28.73
-28.48
-27.49
-25.94
-24.1
-22.22
-20.39
-18.54
-16.5
-14.11
-11.3
-8.14
-4.77
-1.36
1.92
4.94
7.57
9.62
10.97
11.56
11.5
11.02
10.41
9.9
9.51
9.09
8.4
7.22
5.55
3.57
1.55
-0.15
-1.32
-1.82
-1.65
-0.92
0.19
1.44
2.62
3.55
4.15
4.45
4.53
4.54
4.55
4.6
4.68
4.73
4.7
4.57
4.33
4.0
3.57
3.04
2.42
1.73
1.04
0.47
0.13
0.06
0.19
0.35
0.28
-0.27
-1.53
-3.58
-6.38
-9.74
-13.48
-17.39
-21.29
-25.01
-28.36
-31.1
-33.1
-34.32
-34.92
-35.15
-35.24
-35.25
-35.09
-34.58
-33.61
-32.25
-30.68
-29.11
-27.62
-26.15
-24.55
-22.66
-20.43
-17.9
-15.15
-12.26
-9.27
-6.23
-3.16
-0.09
2.9
5.75
8.31
10.37
11.7
12.06
11.32
9.48
6.62
2.89
-1.54
-6.5
-11.86
-17.47
-23.28
-29.2
-35.16
-41.1
-46.92
-52.62
-58.32
-64.32
-71.01
-78.76
-87.74
-97.76
-108.21
-118.04
-125.95
-130.55
-130.55
-125.1
-113.98
-97.71
-77.47
-54.89
-31.61
-8.95
12.2
31.44
48.73
64.12
77.73
89.64
99.86
108.35
115.05
119.82
122.56
123.25
122.01
119.11
114.9
109.77
104.06
98.05
91.99
86.02
80.15
74.32
68.42
62.36
56.18
50.05
44.24
39.08
34.87
31.78
29.76
28.62
27.97
27.49
26.93
26.25
25.58
25.09
24.8
24.6
24.24
23.51
22.42
21.13
19.97
19.24
19.1
19.55
20.4
21.34
22.04
22.23
21.69
20.37
18.37
15.87
13.12
10.37
7.83
5.62
3.82
2.36
1.13
-0.11
-1.62
-3.58
-5.99
-8.67
-11.3
-13.47
-14.96
-15.68
-15.82
-15.68
-15.55
-15.61
-15.86
-16.16
-16.28
-15.98
-15.11
-13.68
-11.96
-10.31
-9.14
-8.65
-8.75
-9.14
-9.42
-9.31
-8.8
-8.09
-7.42
-6.92
-6.6
-6.36
-6.14
-5.94
-5.82
-5.76
-5.64
-5.22
-4.31
-2.77
-0.7
1.69
4.09
6.28
8.17
9.9
11.64
13.5
15.43
17.21
18.53
19.15
19.02
18.25
17.11
15.8
14.5
13.3
12.26
11.4
10.8
10.42
10.15
9.84
9.32
8.52
7.57
6.71
6.27
6.49
7.39
8.76
10.2
11.3
11.82
11.78
11.39
10.93
10.58
10.32
10.0
9.4
8.4
6.99
5.32
3.61
2.12
1.13
0.77
1.08
1.91
2.83
3.34
2.96
1.34
-1.48
-5.18
-9.24
-13.11
-16.39
-18.97
-20.95
-22.6
-24.25
-26.14
-28.45
-31.17
-34.18
-37.26
-40.14
-42.57
-44.36
-45.43
-45.72
-45.19
-43.86
-41.78
-39.13
-36.15
-33.09
-30.13
-27.38
-24.77
-22.26
-19.82
-17.39
-15.01
-12.68
-10.38
-8.11
-5.86
-3.6
-1.25
1.28
4.13
7.31
10.72
14.14
17.28
19.92
21.95
23.35
24.17
24.49
24.37
23.9
23.25
22.67
22.46
22.88
24.0
25.72
27.71
29.51
30.7
30.96
30.12
28.23
25.53
22.39
19.28
16.69
14.98
14.3
14.52
15.2
15.77
15.66
14.45
12.03
8.57
4.47
0.18
-3.92
-7.6
-10.81
-13.57
-15.91
-17.88
-19.53
-20.93
-22.27
-23.78
-25.6
-27.76
-30.14
-32.53
-34.71
-36.55
-38.04
-39.23
-40.15
-40.67
-40.62
-39.8
-38.16
-35.81
-33.06
-30.24
-27.62
-25.32
-23.32
-21.59
-20.08
-18.77
-17.52
-16.13
-14.25
-11.59
-8.02
-3.64
1.13
5.78
9.8
12.86
14.93
16.26
17.23
18.27
19.66
21.44
23.38
25.15
26.36
26.75
26.29
25.12
23.49
21.7
19.99
18.5
17.25
16.16
15.14
14.07
12.93
11.78
10.78
10.16
10.07
10.54
11.31
11.89
11.64
9.96
6.53
1.38
-5.01
-11.89
-18.36
-23.5
-26.69
-27.62
-26.42
-23.64
-20.06
-16.51
-13.57
-11.51
-10.22
-9.39
-8.75
-8.1
-7.46
-6.91
-6.56
-6.4
-6.37
-6.39
-6.41
-6.47
-6.63
-6.92
-7.32
-7.71
-7.95
-7.96
-7.74
-7.37
-7.0
-6.69
-6.47
-6.29
-6.03
-5.55
-4.69
-3.31
-1.32
1.21
4.08
7.01
9.73
12.13
14.28
16.36
18.59
21.03
23.51
25.69
27.13
27.43
26.35
23.83
20.04
15.33
10.26
5.42
1.39
-1.48
-3.12
-3.72
-3.7
-3.52
-3.47
-3.66
-3.99
-4.28
-4.37
-4.19
-3.77
-3.1
-2.18
-0.95
0.56
2.21
3.75
4.99
5.87
6.57
7.36
8.48
9.92
11.36
12.35
12.43
11.39
9.33
6.64
3.78
1.2
-0.82
-2.16
-2.87
-3.08
-2.95
-2.72
-2.59
-2.79
-3.5
-4.81
-6.7
-9.08
-11.76
-14.57
-17.36
-20.03
-22.46
-24.58
-26.24
-27.34
-27.73
-27.3
-25.98
-23.78
-20.86
-17.46
-13.9
-10.47
-7.36
-4.64
-2.28
-0.17
1.83
3.89
6.16
8.82
11.9
15.35
18.89
22.15
24.78
26.57
27.57
28.08
28.49
29.18
30.34
31.97
33.87
35.72
37.14
37.8
37.48
36.13
33.83
30.76
27.17
23.24
19.12
14.92
10.68
6.51
2.53
-1.19
-4.58
-7.59
-10.24
-12.5
-14.33
-15.66
-16.5
-16.98
-17.3
-17.72
-18.37
-19.26
-20.25
-21.09
-21.61
-21.7
-21.43
-20.94
-20.35
-19.69
-18.95
-18.05
-16.94
-15.6
-14.04
-12.33
-10.62
-9.09
-7.93
-7.29
-7.15
-7.39
-7.79
-8.1
-8.15
-7.92
-7.5
-7.09
-6.91
-7.11
-7.73
-8.63
-9.5
-10.01
-9.87
-9.01
-7.54
-5.71
-3.72
-1.69
0.43
2.75
5.37
8.28
11.36
14.47
17.46
20.31
23.03
25.63
28.11
30.4
32.47
34.33
36.04
37.68
39.29
40.73
41.74
42.03
41.36
39.7
37.27
34.41
31.42
28.53
25.78
23.14
20.51
17.8
14.94
11.81
8.32
4.37
-0.02
-4.69
-9.38
-13.78
-17.63
-20.83
-23.42
-25.57
-27.52
-29.5
-31.64
-33.93
-36.25
-38.4
-40.11
-41.1
-41.21
-40.36
-38.7
-36.52
-34.25
-32.35
-31.12
-30.68
-30.88
-31.39
-31.88
-32.08
-31.85
-31.16
-30.05
-28.56
-26.82
-25.01
-23.32
-22.02
-21.32
-21.35
-22.09
-23.34
-24.76
-26.02
-26.72
-26.57
-25.36
-23.01
-19.6
-15.38
-10.76
-6.12
-1.88
1.74
4.63
6.85
8.54
9.9
11.14
12.42
13.82
15.31
16.76
17.94
18.62
18.69
18.21
17.38
16.45
15.7
15.36
15.62
16.62
18.38
20.77
23.38
25.72
27.35
28.03
27.91
27.43
27.09
27.16
27.63
28.1
28.05
27.04
24.91
21.79
18.02
14.01
10.14
6.66
3.67
1.19
-0.85
-2.6
-4.14
-5.59
-6.96
-8.27
-9.42
-10.39
-11.14
-11.66
-12.02
-12.25
-12.46
-12.77
-13.31
-14.21
-15.58
-17.43
-19.63
-22.01
-24.3
-26.29
-27.81
-28.75
-29.08
-28.88
-28.26
-27.4
-26.45
-25.46
-24.37
-23.05
-21.33
-19.14
-16.53
-13.7
-10.87
-8.27
-5.98
-3.9
-1.85
0.43
3.1
6.16
9.41
12.55
15.23
17.2
18.28
18.38
17.47
15.66
13.19
10.46
7.97
6.07
4.82
3.96
2.99
1.54
-0.5
-2.91
-5.3
-7.38
-9.16
-11.0
-13.34
-16.53
-20.54
-25.01
-29.33
-32.87
-35.16
-35.9
-35.05
-32.64
-28.92
-24.26
-19.21
-14.4
-10.38
-7.45
-5.55
-4.3
-3.12
-1.51
0.76
3.65
6.86
10.06
13.0
15.58
17.83
19.77
21.35
22.48
23.09
23.14
22.76
22.16
21.56
21.09
20.68
20.12
19.19
17.79
16.02
14.23
12.76
11.89
11.63
11.82
12.2
12.5
12.63
12.63
12.64
12.77
13.09
13.54
13.99
14.21
13.94
12.92
10.93
7.92
4.03
-0.36
-4.65
-8.06
-9.85
-9.44
-6.66
-1.78
4.46
11.16
17.44
22.72
26.83
29.95
32.43
34.59
36.53
38.11
39.05
39.05
37.96
35.84
32.95
29.57
25.97
22.25
18.44
14.56
10.68
6.97
3.62
0.85
-1.26
-2.7
-3.57
-4.01
-4.21
-4.36
-4.59
-5.0
-5.63
-6.42
-7.32
-8.3
-9.45
-10.94
-13.01
-15.8
-19.2
-22.93
-26.49
-29.36
-31.15
-31.73
-31.19
-29.75
-27.66
-25.06
-21.97
-18.39
-14.32
-9.81
-5.01
-0.04
5.0
10.05
15.04
19.87
24.4
28.45
31.91
34.68
36.66
37.76
37.88
36.94
35.02
32.35
29.29
26.16
23.17
20.4
17.82
15.43
13.32
11.64
10.51
9.93
9.81
9.98
10.22
10.39
10.29
9.75
8.59
6.68
4.0
0.65
-3.17
-7.16
-10.98
-14.26
-16.69
-18.13
-18.62
-18.44
-18.02
-17.8
-18.12
-19.12
-20.72
-22.68
-24.64
-26.31
-27.39
-27.73
-27.31
-26.27
-24.83
-23.31
-21.99
-21.05
-20.55
-20.4
-20.39
-20.32
-19.99
-19.3
-18.27
-16.98
-15.56
-14.15
-12.82
-11.61
-10.39
-8.93
-6.95
-4.21
-0.64
3.6
8.16
12.66
16.79
20.41
23.6
26.43
28.98
31.19
32.96
34.21
35.02
35.61
36.23
37.04
37.98
38.78
39.07
38.5
36.89
34.26
30.77
26.73
22.45
18.27
14.48
11.31
8.85
7.02
5.56
4.07
2.27
0.02
-2.52
-5.01
-7.06
-8.31
-8.62
-8.07
-6.91
-5.5
-4.26
-3.55
-3.66
-4.69
-6.59
-9.06
-11.68
-14.05
-15.81
-16.85
-17.26
-17.25
-17.11
-17.07
-17.27
-17.71
-18.32
-18.97
-19.59
-20.11
-20.58
-21.08
-21.69
-22.53
-23.64
-24.99
-26.49
-27.91
-29.01
-29.54
-29.42
-28.73
-27.73
-26.7
-25.81
-24.97
-23.88
-22.15
-19.54
-16.03
-11.81
-7.19
-2.48
2.13
6.51
10.57
14.19
17.26
19.74
21.74
23.48
25.11
26.67
27.97
28.72
28.66
27.67
25.85
23.48
20.88
18.38
16.34
14.97
14.42
14.62
15.31
16.04
16.39
16.03
14.84
12.93
10.5
7.8
5.06
2.46
0.12
-1.88
-3.59
-5.11
-6.56
-8.0
-9.36
-10.51
-11.25
-11.44
-11.0
-9.92
-8.27
-6.19
-3.95
-1.89
-0.35
0.45
0.46
-0.16
-1.17
-2.31
-3.35
-4.17
-4.67
-4.77
-4.43
-3.71
-2.79
-2.03
-1.82
-2.48
-4.16
-6.69
-9.72
-12.78
-15.53
-17.75
-19.41
-20.59
-21.4
-21.89
-22.09
-21.95
-21.42
-20.46
-18.99
-17.01
-14.55
-11.71
-8.67
-5.66
-2.84
-0.27
2.18
4.74
7.74
11.45
16.0
21.27
26.98
32.66
37.78
41.79
44.19
44.69
43.21
39.96
35.41
30.21
24.99
20.3
16.47
13.65
11.81
10.83
10.49
10.51
10.57
10.33
9.52
7.99
5.72
2.78
-0.69
-4.57
-8.65
-12.72
-16.5
-19.65
-21.89
-22.98
-22.87
-21.64
-19.48
-16.69
-13.58
-10.47
-7.64
-5.31
-3.6
-2.53
-2.08
-2.24
-3.01
-4.45
-6.58
-9.33
-12.5
-15.78
-18.81
-21.28
-23.04
-24.01
-24.25
-23.88
-23.06
-21.99
-20.92
-20.04
-19.41
-18.9
-18.26
-17.18
-15.47
-13.14
-10.44
-7.7
-5.2
-3.12
-1.45
-0.11
1.02
2.03
2.92
3.61
3.96
3.8
2.97
1.39
-0.88
-3.64
-6.57
-9.28
-11.43
-12.79
-13.31
-13.16
-12.64
-12.13
-11.92
-12.18
-12.9
-13.92
-15.03
-15.97
-16.57
-16.69
-16.3
-15.46
-14.26
-12.82
-11.22
-9.51
-7.7
-5.76
-3.65
-1.37
1.06
3.54
5.93
8.08
9.91
11.45
12.87
14.4
16.32
18.74
21.64
24.79
27.85
30.46
32.32
33.23
33.14
32.12
30.31
27.9
25.06
22.0
18.88
15.83
12.92
10.17
7.5
4.87
2.28
-0.17
-2.29
-3.84
-4.66
-4.75
-4.27
-3.51
-2.83
-2.42
-2.36
-2.52
-2.75
-2.84
-2.68
-2.2
-1.38
-0.21
1.31
3.12
5.09
7.02
8.68
9.93
10.69
10.97
10.85
10.41
9.72
8.85
7.87
6.92
6.1
5.53
5.23
5.12
5.12
5.04
4.72
4.02
2.79
0.94
-1.46
-4.18
-6.79
-8.84
-9.99
-10.18
-9.65
-8.81
-8.07
-7.62
-7.42
-7.3
-7.05
-6.57
-5.8
-4.69
-3.15
-1.13
1.4
4.28
7.23
9.92
12.05
13.48
14.19
14.29
13.91
13.1
11.85
10.06
7.64
4.59
1.06
-2.6
-5.94
-8.51
-10.11
-10.78
-10.8
-10.52
-10.24
-10.0
-9.73
-9.3
-8.67
-7.96
-7.31
-6.8
-6.36
-5.8
-4.98
-3.92
-2.86
-2.1
-1.85
-2.12
-2.74
-3.45
-4.14
-4.87
-5.86
-7.33
-9.42
-12.11
-15.23
-18.54
-21.75
-24.58
-26.82
-28.31
-29.05
-29.17
-29.01
-28.95
-29.32
-30.2
-31.4
-32.43
-32.7
-31.66
-29.03
-24.83
-19.36
-13.17
-6.92
-1.25
3.32
6.49
8.26
8.93
9.04
9.2
9.94
11.52
13.92
16.92
20.19
23.41
26.35
28.84
30.78
32.06
32.57
32.22
30.94
28.76
25.79
22.25
18.41
14.55
10.91
7.65
4.84
2.5
0.63
-0.79
-1.84
-2.61
-3.24
-3.84
-4.41
-4.79
-4.76
-4.11
-2.68
-0.48
2.42
5.89
9.78
13.88
17.91
21.51
24.39
26.44
27.76
28.64
29.37
30.1
30.8
31.32
31.44
31.03
30.04
28.49
26.5
24.21
21.79
19.42
17.24
15.27
13.41
11.47
9.21
6.48
3.21
-0.46
-4.22
-7.64
-10.23
-11.59
-11.51
-10.04
-7.5
-4.37
-1.11
1.86
4.38
6.43
8.07
9.43
10.59
11.57
12.43
13.16
13.77
14.27
14.65
14.84
14.78
14.37
13.59
12.48
11.12
9.59
7.89
5.91
3.51
0.64
-2.66
-6.13
-9.46
-12.35
-14.67
-16.45
-17.88
-19.19
-20.53
-21.88
-23.1
-23.9
-24.02
-23.29
-21.69
-19.43
-16.84
-14.3
-12.1
-10.43
-9.31
-8.73
-8.58
-8.71
-8.88
-8.83
-8.34
-7.29
-5.81
-4.14
-2.63
-1.53
-0.97
-0.87
-1.06
-1.35
-1.55
-1.57
-1.34
-0.86
-0.21
0.53
1.26
1.95
2.6
3.3
4.1
5.06
6.12
7.1
7.71
7.62
6.55
4.47
1.62
-1.5
-4.33
-6.49
-7.88
-8.69
-9.27
-9.83
-10.48
-11.06
-11.4
-11.37
-11.0
-10.42
-9.76
-9.07
-8.24
-7.08
-5.4
-3.13
-0.41
2.45
5.07
7.06
8.14
8.11
6.85
4.41
0.97
-2.98
-6.83
-9.91
-11.78
-12.37
-11.96
-11.03
-10.02
-9.24
-8.8
-8.69
-8.78
-8.88
-8.76
-8.1
-6.7
-4.51
-1.74
1.24
4.01
6.24
7.79
8.74
9.3
9.73
10.27
11.05
12.01
12.96
13.64
13.83
13.5
12.79
11.92
11.17
10.63
10.26
9.85
9.2
8.11
6.55
4.6
2.44
0.27
-1.71
-3.38
-4.67
-5.61
-6.26
-6.73
-7.12
-7.5
-7.85
-8.08
-8.06
-7.7
-6.99
-6.02
-4.97
-4.02
-3.27
-2.73
-2.3
-1.81
-1.08
-0.05
1.28
2.77
4.26
5.55
6.55
7.26
7.78
8.22
8.67
9.12
9.52
9.74
9.64
9.08
7.95
6.19
3.87
1.11
-1.8
-4.57
-6.85
-8.42
-9.17
-9.18
-8.7
-8.05
-7.54
-7.4
-7.66
-8.17
-8.68
-8.96
-8.91
-8.6
-8.26
-8.14
-8.43
-9.1
-9.96
-10.69
-11.03
-10.86
-10.19
-9.13
-7.81
-6.32
-4.75
-3.19
-1.74
-0.45
0.68
1.7
2.68
3.65
4.57
5.38
6.06
6.63
7.2
7.83
8.55
9.27
9.89
10.33
10.66
11.01
11.53
12.19
12.78
12.94
12.38
10.99
9.02
6.87
4.99
3.61
2.67
1.93
1.13
0.18
-0.78
-1.54
-1.92
-1.95
-1.81
-1.73
-1.8
-1.97
-2.06
-1.91
-1.49
-0.93
-0.44
-0.2
-0.26
-0.57
-0.99
-1.36
-1.54
-1.45
-1.06
-0.42
0.37
1.12
1.64
1.76
1.37
0.55
-0.57
-1.78
-2.88
-3.79
-4.52
-5.21
-6.07
-7.33
-9.11
-11.35
-13.85
-16.3
-18.37
-19.87
-20.7
-20.88
-20.53
-19.78
-18.75
-17.57
-16.39
-15.31
-14.42
-13.73
-13.19
-12.67
-12.02
-11.16
-10.08
-8.77
-7.25
-5.46
-3.3
-0.73
2.14
5.08
7.83
10.18
12.08
13.66
15.01
16.14
16.9
17.16
16.84
16.08
15.15
14.33
13.81
13.59
13.57
13.57
13.51
13.41
13.33
13.35
13.48
13.63
13.63
13.36
12.73
11.77
10.53
9.1
7.5
5.7
3.74
1.75
-0.08
-1.55
-2.55
-3.1
-3.34
-3.39
-3.35
-3.21
-2.97
-2.63
-2.26
-1.96
-1.8
-1.78
-1.86
-1.99
-2.13
-2.26
-2.35
-2.29
-1.96
-1.31
-0.41
0.53
1.17
1.25
0.59
-0.75
-2.53
-4.44
-6.24
-7.76
-9.01
-10.1
-11.14
-12.18
-13.19
-14.09
-14.79
-15.27
-15.56
-15.73
-15.84
-15.88
-15.81
-15.6
-15.19
-14.58
-13.79
-12.82
-11.68
-10.42
-9.05
-7.66
-6.25
-4.78
-3.18
-1.34
0.73
2.93
5.07
6.97
8.51
9.64
10.43
10.92
11.21
11.36
11.45
11.5
11.51
11.52
11.59
11.8
12.22
12.83
13.48
13.95
14.01
13.58
12.67
11.43
10.01
8.53
7.05
5.61
4.27
3.03
1.95
0.97
0.11
-0.65
-1.27
-1.7
-1.94
-2.0
-1.94
-1.8
-1.55
-1.17
-0.63
-0.01
0.58
0.97
1.05
0.81
0.38
-0.03
-0.21
-0.05
0.46
1.15
1.77
1.96
1.41
-0.07
-2.46
-5.48
-8.68
-11.54
-13.71
-15.08
-15.77
-16.04
-16.13
-16.17
-16.18
-16.11
-15.96
-15.71
-15.3
-14.65
-13.69
-12.42
-10.99
-9.62
-8.55
-7.88
-7.52
-7.22
-6.7
-5.74
-4.33
-2.62
-0.89
0.57
1.6
2.26
2.73
3.28
4.05
4.99
5.84
6.31
6.24
5.65
4.8
3.99
3.43
3.14
3.05
2.99
2.87
2.66
2.31
1.74
0.79
-0.7
-2.74
-5.21
-7.83
-10.24
-12.14
-13.34
-13.77
-13.46
-12.47
-10.94
-9.07
-7.05
-5.04
-3.03
-0.95
1.32
3.79
6.27
8.45
10.05
10.97
11.36
11.55
11.81
12.31
13.03
13.84
14.66
15.5
16.44
17.48
18.53
19.3
19.49
18.84
17.25
14.79
11.68
8.28
4.98
2.12
-0.02
-1.37
-1.97
-1.98
-1.59
-0.99
-0.34
0.26
0.74
1.05
1.19
1.16
0.94
0.61
0.25
-0.03
-0.1
0.08
0.47
0.97
1.45
1.84
2.12
2.38
2.61
2.8
2.88
2.81
2.61
2.4
2.31
2.38
2.62
2.94
3.27
3.59
3.92
4.33
4.85
5.43
5.97
6.34
6.41
6.09
5.32
4.1
2.54
0.74
-1.14
-3.01
-4.86
-6.73
-8.64
-10.55
-12.35
-13.89
-14.97
-15.47
-15.31
-14.55
-13.32
-11.85
-10.4
-9.21
-8.36
-7.82
-7.48
-7.22
-7.05
-7.08
-7.49
-8.43
-9.91
-11.81
-13.91
-15.98
-17.84
-19.39
-20.58
-21.43
-22.02
-22.49
-22.94
-23.47
-24.04
-24.55
-24.88
-24.9
-24.55
-23.81
-22.68
-21.15
-19.17
-16.75
-13.87
-10.6
-7.05
-3.31
0.53
4.38
8.12
11.57
14.47
16.6
17.88
18.33
18.15
17.6
16.89
16.15
15.38
14.49
13.36
11.89
10.04
7.81
5.24
2.4
-0.66
-3.77
-6.79
-9.54
-11.87
-13.71
-15.04
-15.86
-16.24
-16.24
-15.98
-15.65
-15.43
-15.47
-15.83
-16.47
-17.26
-18.03
-18.63
-19.0
-19.18
-19.39
-19.83
-20.73
-22.22
-24.32
-27.03
-30.35
-34.32
-38.96
-44.22
-49.91
-55.69
-61.06
-65.51
-68.65
-70.31
-70.7
-70.34
-69.95
-70.19
-71.25
-72.64
-73.18
-71.27
-65.29
-53.84
-36.14
-12.16
17.11
49.6
82.36
112.2
136.61
154.61
166.96
175.7
183.17
190.91
199.19
207.03
212.9
215.24
212.82
204.72
190.28
169.15
141.53
108.48
71.97
34.6
-0.95
-32.52
-58.77
-79.16
-93.76
-102.95
-107.26
-107.38
-104.14
-98.5
-91.45
-83.79
-76.07
-68.65
-61.7
-55.32
-49.54
-44.29
-39.36
-34.56
-29.73
-24.85
-20.11
-15.79
-12.14
-9.33
-7.33
-6.02
-5.25
-4.84
-4.56
-4.17
-3.3
-1.61
1.11
4.88
9.42
14.27
18.97
23.16
26.73
29.75
32.36
34.58
36.26
37.1
36.74
35.02
32.1
28.42
24.61
21.21
18.5
16.53
15.03
13.68
12.2
10.45
8.38
6.02
3.4
0.47
-2.79
-6.36
-10.09
-13.73
-17.03
-19.78
-21.87
-23.29
-24.01
-23.94
-22.97
-21.01
-18.19
-14.83
-11.35
-8.16
-5.4
-2.99
-0.68
1.73
4.29
6.91
9.42
11.75
13.89
15.85
17.53
18.66
18.92
18.07
16.14
13.51
10.76
8.48
7.05
6.57
6.85
7.6
8.57
9.64
10.82
12.11
13.46
14.7
15.69
16.33
16.69
16.95
17.27
17.69
17.98
17.8
16.82
14.97
12.42
9.61
6.98
4.79
3.05
1.53
0.01
-1.71
-3.71
-6.03
-8.73
-11.89
-15.49
-19.29
-22.82
-25.54
-27.04
-27.26
-26.48
-25.1
-23.49
-21.74
-19.71
-17.24
-14.25
-10.89
-7.49
-4.35
-1.73
0.31
1.79
2.81
3.35
3.39
2.83
1.64
-0.11
-2.12
-4.01
-5.41
-6.11
-6.18
-5.85
-5.41
-4.95
-4.34
-3.26
-1.39
1.42
5.03
9.11
13.24
17.03
20.17
22.39
23.46
23.2
21.58
18.79
15.27
11.56
8.17
5.37
3.14
1.31
-0.4
-2.12
-3.87
-5.61
-7.35
-9.19
-11.26
-13.52
-15.69
-17.3
-17.85
-17.06
-14.98
-12.01
-8.72
-5.66
-3.24
-1.66
-0.89
-0.77
-1.01
-1.25
-1.14
-0.43
0.99
3.02
5.41
7.78
9.78
11.08
11.51
11.1
10.03
8.59
7.1
5.84
4.99
4.71
5.13
6.32
8.33
11.08
14.37
17.91
21.42
24.63
27.36
29.45
30.71
30.85
29.57
26.67
22.23
16.7
10.87
5.64
1.75
-0.46
-1.26
-1.35
-1.67
-3.02
-5.8
-9.86
-14.63
-19.39
-23.48
-26.57
-28.63
-29.78
-30.13
-29.77
-28.67
-26.83
-24.37
-21.46
-18.36
-15.18
-11.94
-8.59
-5.13
-1.65
1.61
4.36
6.33
7.35
7.42
6.56
4.84
2.35
-0.82
-4.48
-8.43
-12.4
-16.13
-19.36
-21.84
-23.33
-23.61
-22.48
-19.85
-15.83
-10.67
-4.79
1.32
7.21
12.54
17.13
20.86
23.65
25.44
26.19
25.9
24.72
22.96
21.0
19.2
17.81
16.88
16.25
15.67
14.89
13.66
11.86
9.45
6.48
3.09
-0.45
-3.86
-6.79
-8.97
-10.24
-10.58
-10.09
-9.0
-7.63
-6.26
-5.16
-4.51
-4.26
-4.23
-4.15
-3.75
-2.97
-1.94
-0.94
-0.3
-0.23
-0.79
-1.93
-3.51
-5.35
-7.26
-9.06
-10.61
-11.78
-12.57
-13.02
-13.21
-13.19
-12.88
-12.13
-10.8
-8.81
-6.2
-3.11
0.31
3.96
7.76
11.61
15.34
18.69
21.38
23.15
23.9
23.63
22.44
20.46
17.89
15.0
12.15
9.68
7.86
6.71
5.99
5.34
4.37
2.82
0.65
-2.08
-5.14
-8.26
-11.09
-13.26
-14.42
-14.43
-13.46
-11.92
-10.35
-9.21
-8.7
-8.69
-8.95
-9.14
-9.06
-8.6
-7.75
-6.56
-5.16
-3.76
-2.64
-2.12
-2.41
-3.66
-5.75
-8.46
-11.47
-14.43
-16.99
-18.84
-19.76
-19.62
-18.5
-16.57
-14.13
-11.43
-8.69
-5.99
-3.32
-0.61
2.17
4.98
7.7
10.16
12.15
13.58
14.43
14.75
14.65
14.25
13.59
12.67
11.47
9.97
8.21
6.26
4.27
2.35
0.63
-0.85
-2.14
-3.33
-4.66
-6.29
-8.28
-10.45
-12.36
-13.46
-13.25
-11.59
-8.71
-5.26
-2.04
0.27
1.33
1.17
0.16
-1.19
-2.42
-3.16
-3.26
-2.69
-1.58
-0.16
1.29
2.53
3.35
3.63
3.44
2.84
1.98
0.98
-0.11
-1.21
-2.19
-2.82
-2.88
-2.17
-0.71
1.3
3.56
5.74
7.63
9.18
10.45
11.56
12.61
13.61
14.48
15.1
15.24
14.74
13.48
11.51
9.04
6.4
3.93
1.85
0.29
-0.78
-1.42
-1.71
-1.69
-1.48
-1.17
-0.97
-1.07
-1.57
-2.43
-3.47
-4.41
-5.03
-5.24
-5.1
-4.77
-4.41
-4.13
-4.0
-4.09
-4.49
-5.29
-6.46
-7.87
-9.24
-10.27
-10.77
-10.76
-10.45
-10.14
-10.07
-10.35
-11.0
-12.01
-13.43
-15.32
-17.7
-20.41
-23.11
-25.34
-26.71
-27.0
-26.23
-24.59
-22.29
-19.56
-16.54
-13.37
-10.16
-6.97
-3.8
-0.57
2.75
6.1
9.26
11.83
13.41
13.75
12.89
11.14
9.0
6.98
5.42
4.46
4.03
3.95
3.99
3.97
3.82
3.49
3.0
2.38
1.61
0.7
-0.36
-1.54
-2.78
-3.92
-4.82
-5.36
-5.47
-5.13
-4.41
-3.36
-2.17
-0.99
-0.04
0.58
0.9
1.08
1.34
1.86
2.6
3.39
3.97
4.12
3.78
3.03
2.02
0.85
-0.4
-1.76
-3.2
-4.61
-5.77
-6.44
-6.43
-5.74
-4.56
-3.15
-1.82
-0.73
0.08
0.73
1.39
2.26
3.47
5.06
6.92
8.82
10.38
11.24
11.08
9.83
7.69
5.04
2.35
0.06
-1.59
-2.53
-2.84
-2.74
-2.53
-2.53
-3.02
-4.14
-5.75
-7.54
-9.03
-9.82
-9.71
-8.82
-7.46
-6.07
-5.05
-4.61
-4.76
-5.34
-6.06
-6.56
-6.54
-5.8
-4.34
-2.4
-0.34
1.39
2.52
2.98
2.94
2.66
2.41
2.3
2.28
2.23
2.02
1.61
1.09
0.63
0.45
0.72
1.52
2.8
4.42
6.16
7.88
9.51
11.09
12.68
14.32
15.97
17.46
18.61
19.25
19.3
18.72
17.53
15.83
13.77
11.58
9.52
7.77
6.44
5.41
4.5
3.48
2.19
0.63
-1.05
-2.62
-3.84
-4.56
-4.77
-4.56
-4.12
-3.59
-3.08
-2.63
-2.29
-2.11
-2.21
-2.66
-3.42
-4.28
-4.93
-5.05
-4.48
-3.34
-1.92
-0.61
0.33
0.76
0.76
0.49
0.02
-0.67
-1.71
-3.21
-5.21
-7.55
-9.98
-12.15
-13.72
-14.46
-14.29
-13.28
-11.62
-9.59
-7.45
-5.37
-3.42
-1.6
0.05
1.43
2.41
2.86
2.76
2.21
1.4
0.55
-0.19
-0.73
-1.0
-1.0
-0.76
-0.34
0.13
0.5
0.6
0.34
-0.38
-1.51
-2.94
-4.51
-6.05
-7.34
-8.23
-8.56
-8.26
-7.33
-5.87
-4.06
-2.13
-0.32
1.18
2.32
3.13
3.77
4.38
5.07
5.87
6.66
7.23
7.35
6.83
5.59
3.69
1.32
-1.29
-3.87
-6.19
-8.09
-9.48
-10.36
-10.79
-10.9
-10.8
-10.56
-10.2
-9.67
-8.87
-7.77
-6.42
-4.94
-3.52
-2.36
-1.62
-1.39
-1.7
-2.46
-3.47
-4.5
-5.33
-5.83
-5.99
-5.9
-5.71
-5.55
-5.54
-5.74
-6.24
-7.09
-8.28
-9.73
-11.28
-12.78
-14.13
-15.35
-16.54
-17.77
-19.1
-20.46
-21.7
-22.66
-23.27
-23.54
-23.65
-23.81
-24.2
-24.86
-25.62
-26.18
-26.27
-25.76
-24.77
-23.58
-22.49
-21.71
-21.31
-21.29
-21.69
-22.68
-24.46
-27.04
-30.1
-32.99
-34.83
-34.81
-32.43
-27.68
-20.97
-12.93
-4.26
4.49
12.89
20.73
27.9
34.41
40.27
45.52
50.11
53.99
57.05
59.16
60.27
60.37
59.54
57.91
55.69
53.1
50.44
47.95
45.81
44.03
42.4
40.59
38.34
35.53
32.36
29.23
26.55
24.6
23.41
22.82
22.62
22.73
23.15
23.98
25.16
26.45
27.45
27.79
27.23
25.74
23.52
20.83
17.89
14.87
11.89
9.04
6.4
4.0
1.82
-0.21
-2.12
-3.87
-5.34
-6.37
-6.96
-7.26
-7.61
-8.34
-9.62
-11.36
-13.16
-14.55
-15.09
-14.55
-12.99
-10.68
-7.98
-5.27
-2.85
-0.9
0.51
1.41
1.89
2.04
1.93
1.58
1.01
0.25
-0.67
-1.66
-2.6
-3.38
-3.92
-4.16
-4.09
-3.74
-3.3
-2.99
-3.0
-3.48
-4.42
-5.69
-7.12
-8.52
-9.71
-10.56
-10.94
-10.73
-9.85
-8.29
-6.15
-3.59
-0.94
1.48
3.36
4.47
4.83
4.64
4.19
3.79
3.61
3.58
3.52
3.29
2.8
2.16
1.47
0.77
-0.0
-0.94
-2.07
-3.24
-4.24
-4.86
-5.01
-4.78
-4.31
-3.7
-2.97
-2.08
-1.04
0.03
0.93
1.51
1.74
1.75
1.72
1.72
1.68
1.46
0.97
0.23
-0.54
-1.19
-1.56
-1.65
-1.56
-1.34
-1.06
-0.75
-0.45
-0.26
-0.25
-0.48
-0.89
-1.37
-1.83
-2.13
-2.25
-2.1
-1.66
-0.92
0.02
0.99
1.79
2.22
2.22
1.75
0.92
-0.18
-1.36
-2.46
-3.27
-3.61
-3.38
-2.63
-1.53
-0.41
0.37
0.52
-0.13
-1.51
-3.36
-5.28
-6.89
-7.88
-8.15
-7.77
-6.97
-6.06
-5.32
-4.96
-4.96
-5.17
-5.29
-5.03
-4.19
-2.75
-0.87
1.19
3.09
4.6
5.52
5.8
5.47
4.67
3.58
2.41
1.35
0.56
0.1
-0.01
0.15
0.41
0.57
0.43
-0.19
-1.32
-2.87
-4.67
-6.45
-7.94
-8.95
-9.39
-9.23
-8.54
-7.4
-5.95
-4.35
-2.8
-1.45
-0.42
0.24
0.6
0.74
0.77
0.76
0.76
0.85
1.06
1.32
1.48
1.3
0.57
-0.75
-2.47
-4.26
-5.77
-6.8
-7.39
-7.68
-7.83
-7.91
-7.82
-7.42
-6.58
-5.27
-3.55
-1.5
0.76
3.14
5.49
7.61
9.19
9.94
9.7
8.48
6.54
4.32
2.25
0.66
-0.29
-0.68
-0.65
-0.29
0.33
1.19
2.21
3.17
3.81
3.91
3.34
2.22
0.78
-0.73
-2.12
-3.32
-4.26
-4.86
-4.99
-4.5
-3.31
-1.48
0.73
2.99
5.06
6.8
8.26
9.52
10.67
11.68
12.39
12.64
12.31
11.4
10.01
8.3
6.47
4.59
2.73
0.84
-1.1
-3.09
-5.02
-6.75
-8.05
-8.74
-8.71
-7.99
-6.75
-5.28
-3.83
-2.61
-1.73
-1.17
-0.8
-0.44
0.04
0.73
1.58
2.48
3.27
3.78
3.87
3.43
2.47
1.05
-0.62
-2.31
-3.8
-4.95
-5.75
-6.31
-6.82
-7.47
-8.37
-9.53
-10.85
-12.13
-13.22
-13.97
-14.36
-14.47
-14.43
-14.35
-14.34
-14.42
-14.54
-14.56
-14.25
-13.35
-11.62
-9.04
-5.82
-2.49
0.34
2.16
2.76
2.3
1.23
0.07
-0.79
-1.22
-1.28
-1.16
-0.96
-0.72
-0.35
0.2
0.92
1.74
2.59
3.42
4.26
5.13
6.06
6.97
7.78
8.41
8.86
9.18
9.46
9.71
9.88
9.86
9.55
8.92
7.98
6.8
5.43
3.94
2.38
0.88
-0.42
-1.36
-1.87
-1.98
-1.82
-1.65
-1.73
-2.25
-3.26
-4.65
-6.14
-7.38
-8.01
-7.85
-6.89
-5.34
-3.56
-1.87
-0.49
0.49
1.12
1.48
1.66
1.72
1.78
1.94
2.32
2.91
3.62
4.27
4.65
4.63
4.23
3.56
2.78
2.07
1.54
1.28
1.33
1.64
2.09
2.45
2.55
2.26
1.67
0.96
0.36
0.07
0.1
0.39
0.74
1.03
1.14
1.02
0.65
0.03
-0.87
-2.08
-3.56
-5.23
-6.99
-8.73
-10.38
-11.93
-13.4
-14.83
-16.28
-17.79
-19.42
-21.2
-23.19
-25.42
-27.93
-30.67
-33.58
-36.55
-39.45
-42.2
-44.83
-47.44
-50.11
-52.88
-55.74
-58.56
-61.24
-63.75
-66.16
-68.6
-71.16
-73.85
-76.54
-78.98
-80.86
-81.93
-82.08
-81.39
-80.03
-78.15
-75.72
-72.52
-68.19
-62.37
-54.9
-45.8
-35.23
-23.33
-10.2
4.19
19.73
36.12
52.79
68.98
83.97
97.17
108.31
117.32
124.34
129.57
133.23
135.54
136.71
136.86
136.03
134.13
130.97
126.34
120.12
112.39
103.39
93.54
83.27
73.0
63.06
53.6
44.68
36.23
28.12
20.26
12.7
5.7
-0.34
-5.06
-8.21
-9.84
-10.25
-9.88
-9.14
-8.33
-7.6
-7.0
-6.51
-6.09
-5.7
-5.28
-4.81
-4.39
-4.2
-4.49
-5.49
-7.25
-9.72
-12.64
-15.69
-18.58
-21.08
-23.02
-24.33
-25.0
-25.08
-24.74
-24.12
-23.27
-22.1
-20.4
-17.94
-14.69
-10.94
-7.18
-4.0
-1.79
-0.61
-0.27
-0.43
-0.73
-1.0
-1.18
-1.35
-1.69
-2.35
-3.5
-5.21
-7.39
-9.87
-12.38
-14.73
-16.8
-18.66
-20.46
-22.35
-24.41
-26.65
-28.96
-31.14
-32.85
-33.6
-32.83
-30.12
-25.29
-18.61
-10.77
-2.66
4.76
10.81
15.19
18.0
19.62
20.64
21.58
22.82
24.46
26.34
28.12
29.33
29.55
28.51
26.17
22.67
18.41
13.88
9.65
6.25
4.07
3.19
3.42
4.29
5.23
5.81
5.82
5.36
4.62
3.86
3.24
2.77
2.44
2.24
2.22
2.49
3.04
3.78
4.47
4.86
4.76
4.2
3.29
2.32
1.52
1.05
0.9
0.98
1.09
1.09
0.89
0.48
-0.1
-0.78
-1.47
-2.15
-2.8
-3.4
-3.94
-4.39
-4.77
-5.1
-5.41
-5.74
-6.08
-6.36
-6.55
-6.59
-6.41
-5.98
-5.22
-4.14
-2.79
-1.32
0.08
1.22
1.97
2.32
2.3
1.99
1.54
1.08
0.75
0.65
0.78
1.03
1.27
1.44
1.57
1.79
2.2
2.84
3.61
4.35
4.95
5.41
5.86
6.43
7.18
8.04
8.79
9.2
9.12
8.53
7.54
6.28
4.91
3.48
1.97
0.35
-1.36
-3.07
-4.63
-5.93
-6.89
-7.55
-8.05
-8.49
-8.97
-9.44
-9.81
-9.93
-9.69
-9.02
-7.95
-6.61
-5.11
-3.61
-2.2
-1.02
-0.2
0.15
-0.04
-0.69
-1.63
-2.62
-3.5
-4.24
-4.98
-5.98
-7.45
-9.49
-11.98
-14.65
-17.1
-19.01
-20.16
-20.51
-20.16
-19.3
-18.1
-16.65
-15.0
-13.17
-11.22
-9.22
-7.28
-5.45
-3.72
-2.02
-0.26
1.6
3.48
5.22
6.64
7.54
7.89
7.77
7.39
6.99
6.72
6.54
6.32
5.88
5.16
4.22
3.29
2.53
2.05
1.82
1.72
1.71
1.81
2.16
2.88
4.01
5.48
7.17
8.9
10.5
11.84
12.78
13.27
13.36
13.19
12.94
12.8
12.8
12.85
12.72
12.18
11.1
9.45
7.39
5.18
3.12
1.53
0.56
0.25
0.49
1.01
1.56
1.87
1.83
1.43
0.85
0.27
-0.09
-0.1
0.3
1.12
2.31
3.81
5.51
7.28
8.94
10.26
11.04
11.18
10.69
9.75
8.6
7.5
6.63
6.03
5.65
5.34
4.92
4.29
3.41
2.31
0.99
-0.53
-2.22
-4.03
-5.76
-7.22
-8.21
-8.62
-8.5
-7.99
-7.22
-6.29
-5.22
-4.01
-2.62
-1.06
0.69
2.69
5.01
7.67
10.56
13.41
15.81
17.37
17.78
16.98
15.14
12.62
9.83
7.2
5.0
3.34
2.15
1.26
0.47
-0.37
-1.31
-2.27
-3.12
-3.73
-3.97
-3.83
-3.38
-2.82
-2.37
-2.17
-2.27
-2.58
-2.91
-3.01
-2.72
-1.98
-0.82
0.63
2.2
3.7
4.95
5.83
6.28
6.28
5.89
5.17
4.13
2.81
1.26
-0.33
-1.79
-2.95
-3.76
-4.32
-4.81
-5.39
-6.13
-6.95
-7.64
-8.03
-7.97
-7.44
-6.52
-5.33
-4.05
-2.86
-1.9
-1.19
-0.63
0.02
1.02
2.49
4.37
6.36
8.04
9.05
9.22
8.63
7.52
6.25
5.09
4.16
3.49
2.93
2.39
1.77
1.07
0.38
-0.2
-0.56
-0.69
-0.66
-0.65
-0.82
-1.26
-1.9
-2.59
-3.17
-3.58
-3.89
-4.26
-4.81
-5.52
-6.22
-6.66
-6.61
-6.01
-4.95
-3.66
-2.42
-1.45
-0.91
-0.85
-1.33
-2.33
-3.83
-5.72
-7.81
-9.81
-11.43
-12.45
-12.76
-12.46
-11.68
-10.58
-9.26
-7.76
-6.19
-4.63
-3.25
-2.13
-1.29
-0.59
0.17
1.14
2.32
3.54
4.51
4.94
4.63
3.58
2.03
0.33
-1.12
-2.03
-2.26
-1.85
-0.99
0.1
1.18
2.1
2.79
3.22
3.41
3.44
3.39
3.43
3.67
4.22
5.02
5.93
6.69
7.05
6.89
6.27
5.36
4.36
3.4
2.48
1.55
0.53
-0.56
-1.72
-2.94
-4.23
-5.69
-7.36
-9.23
-11.2
-13.09
-14.64
-15.63
-15.88
-15.2
-13.59
-11.19
-8.35
-5.51
-3.09
-1.33
-0.16
0.67
1.53
2.69
4.25
6.13
8.13
10.06
11.74
12.98
13.6
13.41
12.28
10.21
7.41
4.23
1.12
-1.57
-3.64
-5.02
-5.8
-6.13
-6.1
-5.81
-5.34
-4.79
-4.23
-3.67
-3.13
-2.58
-2.02
-1.48
-1.02
-0.65
-0.37
-0.13
0.09
0.29
0.44
0.56
0.7
0.96
1.4
2.02
2.76
3.49
4.08
4.43
4.49
4.2
3.52
2.4
0.88
-1.02
-3.17
-5.36
-7.36
-8.87
-9.66
-9.63
-8.93
-7.87
-6.86
-6.19
-5.89
-5.71
-5.34
-4.5
-3.11
-1.35
0.48
2.07
3.19
3.7
3.6
2.98
1.95
0.75
-0.45
-1.49
-2.37
-3.12
-3.82
-4.47
-4.93
-5.01
-4.56
-3.59
-2.22
-0.76
0.55
1.49
1.98
2.02
1.72
1.22
0.68
0.26
0.0
-0.16
-0.38
-0.81
-1.54
-2.49
-3.42
-4.08
-4.25
-3.84
-2.94
-1.72
-0.44
0.67
1.38
1.54
1.12
0.2
-1.01
-2.25
-3.23
-3.76
-3.72
-3.12
-2.05
-0.66
0.86
2.29
3.43
4.14
4.42
4.48
4.63
5.11
5.98
7.0
7.77
7.93
7.3
5.97
4.23
2.38
0.65
-0.86
-2.11
-3.08
-3.75
-4.15
-4.36
-4.49
-4.57
-4.59
-4.41
-3.96
-3.25
-2.39
-1.57
-0.92
-0.52
-0.29
-0.11
0.2
0.72
1.51
2.52
3.59
4.58
5.26
5.47
5.07
4.03
2.43
0.44
-1.67
-3.61
-5.15
-6.17
-6.68
-6.79
-6.64
-6.34
-5.99
-5.6
-5.19
-4.74
-4.23
-3.6
-2.81
-1.85
-0.8
0.14
0.76
0.9
0.6
0.1
-0.22
-0.02
0.83
2.19
3.71
4.96
5.64
5.67
5.18
4.43
3.64
2.97
2.41
1.87
1.22
0.31
-0.98
-2.67
-4.73
-6.99
-9.22
-11.12
-12.43
-12.92
-12.51
-11.2
-9.12
-6.49
-3.63
-0.83
1.62
3.52
4.82
5.62
6.05
6.21
6.15
5.84
5.28
4.59
3.95
3.55
3.54
3.88
4.43
5.01
5.54
5.98
6.34
6.53
6.37
5.65
4.31
2.53
0.58
-1.18
-2.54
-3.43
-3.93
-4.13
-4.11
-3.96
-3.78
-3.68
-3.79
-4.12
-4.56
-4.89
-4.92
-4.54
-3.79
-2.79
-1.69
-0.65
0.2
0.78
0.95
0.68
-0.04
-1.15
-2.53
-4.03
-5.51
-6.84
-7.88
-8.52
-8.65
-8.22
-7.29
-5.95
-4.37
-2.62
-0.74
1.26
3.36
5.43
7.24
8.49
9.02
8.83
8.12
7.23
6.42
5.8
5.32
4.81
4.09
3.13
2.0
0.86
-0.18
-1.11
-1.96
-2.83
-3.74
-4.65
-5.49
-6.19
-6.79
-7.29
-7.68
-7.85
-7.64
-6.89
-5.57
-3.8
-1.82
0.08
1.69
2.88
3.66
4.08
4.29
4.47
4.8
5.44
6.44
7.71
8.97
9.88
10.09
9.44
7.94
5.83
3.46
1.19
-0.71
-2.17
-3.27
-4.14
-4.93
-5.79
-6.77
-7.84
-8.89
-9.74
-10.14
-9.9
-8.95
-7.34
-5.33
-3.19
-1.12
0.77
2.58
4.4
6.33
8.35
10.36
12.15
13.52
14.29
14.31
13.59
12.21
10.35
8.27
6.16
4.1
2.03
-0.16
-2.56
-5.05
-7.36
-9.13
-10.07
-10.08
-9.28
-7.93
-6.3
-4.57
-2.8
-0.99
0.87
2.74
4.52
6.11
7.47
8.6
9.54
10.36
11.09
11.68
12.08
12.24
12.15
11.84
11.35
10.62
9.55
7.99
5.93
3.43
0.73
-1.89
-4.23
-6.13
-7.51
-8.26
-8.3
-7.6
-6.29
-4.64
-2.98
-1.61
-0.61
0.1
0.63
1.05
1.38
1.57
1.65
1.72
1.87
2.16
2.47
2.68
2.67
2.45
2.13
1.86
1.69
1.57
1.36
0.91
0.15
-0.85
-1.92
-2.87
-3.57
-3.99
-4.21
-4.3
-4.31
-4.17
-3.81
-3.15
-2.23
-1.19
-0.24
0.4
0.61
0.39
-0.18
-0.94
-1.79
-2.63
-3.38
-3.94
-4.24
-4.31
-4.31
-4.53
-5.3
-6.82
-9.0
-11.5
-13.79
-15.43
-16.14
-15.95
-15.05
-13.63
-11.84
-9.76
-7.48
-5.02
-2.51
-0.04
2.28
4.36
6.14
7.61
8.85
9.91
10.85
11.63
12.17
12.36
12.16
11.62
10.77
9.68
8.31
6.67
4.81
2.94
1.4
0.45
0.24
0.65
1.44
2.26
2.89
3.21
3.25
3.15
3.04
3.03
3.18
3.48
3.91
4.43
4.99
5.56
6.09
6.57
6.96
7.28
7.57
7.92
8.35
8.87
9.31
9.48
9.11
8.07
6.4
4.25
1.88
-0.48
-2.7
-4.76
-6.64
-8.26
-9.51
-10.25
-10.41
-10.09
-9.5
-8.83
-8.18
-7.5
-6.64
-5.48
-4.06
-2.53
-1.12
-0.01
0.8
1.43
2.07
2.87
3.85
4.91
5.84
6.42
6.52
6.13
5.37
4.47
3.62
3.0
2.63
2.4
2.15
1.66
0.83
-0.35
-1.79
-3.32
-4.73
-5.88
-6.67
-7.02
-6.96
-6.5
-5.74
-4.81
-3.9
-3.17
-2.69
-2.37
-1.99
-1.34
-0.28
1.13
2.67
4.01
4.89
5.14
4.78
3.9
2.7
1.4
0.24
-0.58
-0.93
-0.8
-0.33
0.28
0.82
1.19
1.34
1.3
1.11
0.8
0.42
0.05
-0.14
0.02
0.66
1.77
3.22
4.75
6.16
7.26
7.96
8.22
8.03
7.47
6.57
5.46
4.27
3.12
2.09
1.18
0.33
-0.56
-1.58
-2.76
-4.07
-5.39
-6.61
-7.62
-8.4
-8.98
-9.45
-9.84
-10.16
-10.26
-10.01
-9.24
-7.9
-6.07
-3.94
-1.74
0.35
2.19
3.71
4.88
5.67
6.07
6.07
5.73
5.13
4.4
3.61
2.82
2.11
1.58
1.36
1.49
1.93
2.46
2.84
2.9
2.68
2.4
2.32
2.62
3.26
4.02
4.64
4.93
4.84
4.48
4.02
3.63
3.42
3.4
3.52
3.69
3.76
3.63
3.17
2.34
1.14
-0.39
-2.15
-4.0
-5.74
-7.22
-8.35
-9.2
-9.99
-10.96
-12.28
-13.92
-15.68
-17.21
-18.22
-18.5
-18.03
-16.89
-15.16
-12.93
-10.29
-7.37
-4.43
-1.76
0.35
1.75
2.46
2.68
2.61
2.45
2.31
2.29
2.45
2.84
3.52
4.46
5.56
6.61
7.45
7.91
7.9
7.42
6.5
5.27
3.9
2.6
1.51
0.73
0.29
0.14
0.25
0.59
1.21
2.12
3.28
4.55
5.74
6.6
6.98
6.8
6.12
5.1
3.88
2.62
1.37
0.15
-1.07
-2.29
-3.47
-4.56
-5.49
-6.25
-6.88
-7.47
-8.1
-8.82
-9.56
-10.14
-10.35
-10.0
-9.05
-7.57
-5.79
-4.01
-2.47
-1.31
-0.58
-0.18
0.03
0.17
0.36
0.64
0.99
1.38
1.67
1.71
1.29
0.26
-1.44
-3.7
-6.26
-8.76
-10.87
-12.39
-13.23
-13.42
-13.05
-12.23
-11.09
-9.72
-8.22
-6.63
-4.93
-3.06
-0.97
1.3
3.6
5.75
7.52
8.77
9.4
9.4
8.86
7.93
6.83
5.82
5.04
4.54
4.28
4.15
4.09
4.11
4.23
4.46
4.74
4.94
4.92
4.6
3.96
3.09
2.11
1.17
0.39
-0.09
-0.15
0.28
1.25
2.66
4.38
6.21
7.95
9.51
10.9
12.19
13.46
14.72
15.84
16.6
16.73
16.06
14.53
12.27
9.52
6.53
3.57
0.88
-1.35
-2.9
-3.68
-3.69
-3.17
-2.47
-1.98
-1.89
-2.21
-2.67
-2.99
-2.96
-2.52
-1.76
-0.77
0.35
1.61
2.97
4.31
5.51
6.46
7.14
7.62
8.0
8.33
8.6
8.7
8.6
8.28
7.79
7.19
6.48
5.6
4.51
3.19
1.75
0.35
-0.86
-1.76
-2.31
-2.54
-2.46
-2.07
-1.35
-0.33
0.85
1.98
2.81
3.2
3.13
2.74
2.28
2.01
2.09
2.51
3.12
3.64
3.8
3.38
2.38
0.94
-0.66
-2.14
-3.3
-4.09
-4.52
-4.68
-4.65
-4.53
-4.41
-4.39
-4.53
-4.81
-5.16
-5.42
-5.45
-5.14
-4.5
-3.65
-2.8
-2.15
-1.88
-2.02
-2.5
-3.14
-3.74
-4.15
-4.29
-4.2
-3.92
-3.53
-3.07
-2.56
-2.03
-1.49
-1.0
-0.61
-0.37
-0.27
-0.3
-0.46
-0.74
-1.13
-1.57
-1.97
-2.18
-2.11
-1.67
-0.9
0.11
1.24
2.34
3.34
4.2
4.89
5.4
5.71
5.8
5.68
5.39
4.98
4.49
3.93
3.25
2.37
1.22
-0.17
-1.7
-3.18
-4.44
-5.31
-5.78
-5.9
-5.82
-5.66
-5.49
-5.29
-4.92
-4.3
-3.44
-2.44
-1.53
-0.97
-0.88
-1.21
-1.7
-1.95
-1.61
-0.56
1.09
2.95
4.54
5.46
5.53
4.86
3.72
2.52
1.56
1.05
0.99
1.29
1.71
2.02
1.98
1.44
0.37
-1.13
-2.82
-4.46
-5.76
-6.52
-6.65
-6.18
-5.19
-3.89
-2.51
-1.27
-0.35
0.2
0.48
0.66
0.96
1.55
2.44
3.52
4.58
5.39
5.76
5.62
4.95
3.88
2.47
0.83
-0.95
-2.74
-4.43
-5.84
-6.87
-7.51
-7.77
-7.74
-7.49
-7.02
-6.3
-5.33
-4.14
-2.8
-1.42
-0.1
1.09
2.04
2.75
3.18
3.37
3.37
3.25
3.03
2.69
2.14
1.31
0.24
-0.99
-2.28
-3.48
-4.49
-5.26
-5.76
-5.98
-6.03
-5.99
-6.0
-6.16
-6.48
-6.85
-7.1
-7.01
-6.45
-5.37
-3.85
-2.07
-0.29
1.32
2.65
3.68
4.48
5.16
5.81
6.45
7.05
7.54
7.85
7.88
7.56
6.81
5.6
4.01
2.17
0.32
-1.34
-2.71
-3.83
-4.83
-5.81
-6.72
-7.42
-7.66
-7.26
-6.16
-4.45
-2.32
0.03
2.39
4.53
6.22
7.31
7.76
7.73
7.51
7.45
7.75
8.39
9.13
9.7
9.86
9.5
8.66
7.41
5.88
4.17
2.39
0.73
-0.67
-1.74
-2.54
-3.27
-4.15
-5.37
-6.96
-8.8
-10.67
-12.3
-13.51
-14.15
-14.15
-13.44
-12.01
-9.92
-7.35
-4.61
-2.08
-0.07
1.2
1.7
1.53
0.84
-0.17
-1.27
-2.31
-3.11
-3.59
-3.8
-3.9
-4.18
-4.89
-6.15
-7.89
-9.87
-11.82
-13.5
-14.84
-15.91
-16.82
-17.68
-18.5
-19.23
-19.79
-20.12
-20.17
-19.91
-19.28
-18.21
-16.68
-14.69
-12.34
-9.74
-6.98
-4.11
-1.11
2.02
5.23
8.37
11.29
13.78
15.7
17.0
17.7
17.88
17.74
17.4
17.02
16.66
16.37
16.08
15.71
15.1
14.11
12.64
10.68
8.4
6.08
3.99
2.36
1.28
0.68
0.38
0.26
0.14
-0.06
-0.45
-1.11
-2.05
-3.19
-4.41
-5.52
-6.41
-7.05
-7.52
-8.0
-8.67
-9.63
-10.85
-12.18
-13.27
-13.78
-13.42
-12.1
-9.98
-7.4
-4.74
-2.33
-0.33
1.22
2.33
3.06
3.44
3.53
3.4
3.14
2.88
2.7
2.63
2.63
2.69
2.8
3.02
3.46
4.21
5.26
6.53
7.86
9.04
9.89
10.28
10.16
9.51
8.36
6.8
5.02
3.19
1.49
0.04
-1.11
-1.89
-2.26
-2.18
-1.64
-0.75
0.32
1.35
2.18
2.72
3.0
3.12
3.13
3.02
2.71
2.12
1.15
-0.16
-1.72
-3.34
-4.82
-6.0
-6.88
-7.52
-8.07
-8.64
-9.31
-10.03
-10.67
-11.1
-11.17
-10.78
-9.88
-8.49
-6.64
-4.42
-1.94
0.62
3.04
5.08
6.54
7.35
7.59
7.52
7.45
7.62
8.11
8.78
9.34
9.46
8.92
7.67
5.84
3.72
1.64
-0.08
-1.25
-1.83
-1.93
-1.8
-1.74
-2.03
-2.83
-4.15
-5.87
-7.63
-9.05
-9.76
-9.5
-8.32
-6.49
-4.39
-2.4
-0.69
0.79
2.2
3.64
5.01
6.09
6.6
6.46
5.8
4.93
4.2
3.81
3.84
4.25
4.96
5.91
6.88
7.57
7.57
6.56
4.44
1.41
-2.02
-5.27
-7.83
-9.38
-9.84
-9.3
-8.02
-6.37
-4.71
-3.33
-2.29
-1.45
-0.55
0.65
2.22
4.06
5.93
7.68
9.25
10.68
12.03
13.25
14.17
14.64
14.54
13.94
12.99
11.92
10.87
9.86
8.84
7.73
6.52
5.25
4.03
2.96
2.12
1.57
1.33
1.41
1.85
2.6
3.58
4.61
5.48
5.96
5.88
5.21
4.04
2.6
1.13
-0.18
-1.24
-2.12
-2.93
-3.83
-4.87
-6.07
-7.32
-8.49
-9.41
-9.95
-10.07
-9.85
-9.49
-9.22
-9.17
-9.31
-9.47
-9.36
-8.7
-7.39
-5.45
-3.01
-0.2
2.8
5.89
8.93
11.8
14.43
16.79
18.98
21.09
23.17
25.11
26.68
27.56
27.46
26.27
24.01
20.98
17.53
14.01
10.68
7.69
5.1
2.9
1.11
-0.37
-1.62
-2.81
-4.08
-5.48
-6.94
-8.24
-9.14
-9.44
-9.1
-8.22
-7.05
-5.9
-4.93
-4.19
-3.57
-2.92
-2.1
-1.19
-0.33
0.27
0.48
0.3
-0.1
-0.46
-0.52
-0.14
0.65
1.69
2.63
3.1
2.78
1.46
-0.85
-3.95
-7.48
-11.06
-14.3
-16.91
-18.65
-19.36
-18.99
-17.61
-15.45
-12.9
-10.39
-8.28
-6.73
-5.68
-4.84
-3.9
-2.62
-0.93
1.09
3.3
5.58
7.83
9.97
11.81
13.16
13.79
13.6
12.69
11.31
9.77
8.37
7.29
6.61
6.29
6.27
6.47
6.82
7.22
7.59
7.77
7.66
7.11
6.08
4.63
2.94
1.31
0.12
-0.36
-0.05
0.84
1.88
2.55
2.47
1.57
0.17
-1.19
-1.94
-1.76
-0.72
0.76
2.11
2.82
2.64
1.63
0.1
-1.57
-3.04
-4.14
-4.87
-5.37
-5.82
-6.37
-7.13
-8.1
-9.21
-10.39
-11.48
-12.39
-13.0
-13.23
-13.0
-12.27
-11.02
-9.23
-6.88
-4.04
-0.87
2.37
5.35
7.78
9.5
10.48
10.88
10.83
10.49
9.86
8.91
7.61
5.96
4.11
2.26
0.57
-0.91
-2.23
-3.55
-4.95
-6.37
-7.63
-8.5
-8.84
-8.64
-7.97
-6.94
-5.63
-4.18
-2.81
-1.84
-1.58
-2.19
-3.54
-5.21
-6.64
-7.28
-6.85
-5.34
-3.02
-0.29
2.4
4.71
6.38
7.33
7.58
7.2
6.35
5.2
4.02
3.08
2.56
2.49
2.75
3.12
3.46
3.8
4.28
5.09
6.27
7.62
8.8
9.5
9.65
9.41
9.17
9.26
9.84
10.74
11.59
11.93
11.46
10.15
8.18
5.86
3.43
1.0
-1.46
-4.02
-6.66
-9.17
-11.22
-12.51
-12.89
-12.48
-11.53
-10.34
-9.08
-7.77
-6.31
-4.63
-2.8
-1.03
0.35
1.12
1.22
0.83
0.28
-0.09
-0.01
0.58
1.59
2.84
4.07
4.98
5.22
4.47
2.53
-0.56
-4.37
-8.26
-11.56
-13.76
-14.69
-14.53
-13.63
-12.36
-10.98
-9.66
-8.49
-7.57
-6.97
-6.67
-6.48
-6.07
-5.07
-3.23
-0.53
2.8
6.38
9.79
12.75
15.08
16.75
17.76
18.09
17.74
16.7
15.06
12.98
10.71
8.54
6.73
5.48
4.85
4.76
4.95
5.05
4.73
3.78
2.22
0.31
-1.57
-3.09
-4.01
-4.3
-4.04
-3.45
-2.79
-2.3
-2.16
-2.45
-3.09
-3.86
-4.53
-4.97
-5.15
-5.23
-5.38
-5.7
-6.18
-6.72
-7.18
-7.54
-7.8
-8.01
-8.2
-8.29
-8.15
-7.65
-6.67
-5.19
-3.32
-1.26
0.78
2.58
4.05
5.24
6.26
7.26
8.3
9.33
10.25
10.95
11.43
11.75
12.03
12.28
12.4
12.15
11.34
9.89
7.91
5.69
3.53
1.69
0.21
-0.96
-2.0
-3.08
-4.28
-5.68
-7.25
-8.9
-10.5
-11.88
-12.82
-13.14
-12.74
-11.63
-9.96
-8.01
-6.06
-4.34
-2.97
-1.91
-1.01
-0.13
0.82
1.83
2.8
3.64
4.26
4.63
4.76
4.61
4.11
3.21
1.89
0.25
-1.58
-3.38
-4.89
-5.9
-6.28
-6.05
-5.37
-4.51
-3.75
-3.3
-3.2
-3.34
-3.54
-3.66
-3.64
-3.49
-3.24
-2.92
-2.51
-2.0
-1.3
-0.35
0.91
2.49
4.26
5.99
7.38
8.18
8.27
7.72
6.71
5.44
4.09
2.74
1.36
-0.06
-1.51
-2.99
-4.46
-5.9
-7.24
-8.36
-9.15
-9.49
-9.33
-8.71
-7.76
-6.64
-5.5
-4.46
-3.53
-2.69
-1.9
-1.16
-0.52
-0.07
0.03
-0.32
-1.15
-2.3
-3.46
-4.25
-4.32
-3.57
-2.12
-0.33
1.41
2.7
3.32
3.14
2.21
0.69
-1.15
-2.97
-4.45
-5.34
-5.57
-5.18
-4.27
-3.05
-1.72
-0.56
0.1
0.05
-0.67
-1.74
-2.57
-2.56
-1.35
1.01
4.04
7.05
9.39
10.67
10.79
9.96
8.52
6.84
5.27
4.05
3.33
3.15
3.43
4.0
4.7
5.31
5.68
5.71
5.34
4.6
3.59
2.46
1.37
0.46
-0.3
-1.05
-2.0
-3.26
-4.79
-6.38
-7.71
-8.57
-8.87
-8.66
-8.07
-7.21
-6.17
-5.08
-4.09
-3.44
-3.36
-4.01
-5.37
-7.25
-9.38
-11.44
-13.17
-14.34
-14.82
-14.54
-13.47
-11.66
-9.27
-6.52
-3.67
-1.0
1.33
3.19
4.58
5.51
6.06
6.3
6.35
6.37
6.45
6.62
6.8
6.87
6.76
6.48
6.15
5.91
5.77
5.6
5.14
4.18
2.67
0.72
-1.42
-3.44
-5.13
-6.38
-7.23
-7.78
-8.2
-8.59
-9.05
-9.54
-9.98
-10.17
-9.87
-8.87
-7.14
-4.8
-2.14
0.51
2.81
4.49
5.37
5.37
4.46
2.77
0.57
-1.69
-3.54
-4.54
-4.49
-3.43
-1.7
0.3
2.13
3.57
4.57
5.21
5.65
5.97
6.21
6.33
6.32
6.21
6.06
5.96
5.92
5.87
5.67
5.21
4.41
3.35
2.2
1.21
0.66
0.76
1.56
2.96
4.68
6.39
7.83
8.83
9.3
9.25
8.64
7.51
5.89
3.92
1.8
-0.26
-2.08
-3.55
-4.68
-5.54
-6.25
-7.0
-8.02
-9.48
-11.43
-13.68
-15.77
-17.13
-17.26
-15.94
-13.36
-10.08
-6.86
-4.35
-2.9
-2.45
-2.65
-3.02
-3.16
-2.95
-2.43
-1.83
-1.35
-1.19
-1.51
-2.44
-4.07
-6.32
-8.91
-11.4
-13.24
-14.04
-13.66
-12.25
-10.19
-7.88
-5.59
-3.48
-1.58
0.03
1.23
1.87
1.91
1.5
0.96
0.73
1.09
2.19
3.88
5.82
7.67
9.19
10.27
10.94
11.29
11.38
11.3
11.11
10.91
10.77
10.7
10.62
10.33
9.65
8.45
6.72
4.66
2.55
0.72
-0.6
-1.36
-1.6
-1.46
-1.04
-0.45
0.21
0.78
1.05
0.87
0.17
-0.92
-2.1
-3.06
-3.57
-3.64
-3.46
-3.27
-3.25
-3.42
-3.63
-3.7
-3.56
-3.27
-2.98
-2.92
-3.13
-3.5
-3.73
-3.6
-3.0
-2.11
-1.22
-0.61
-0.36
-0.31
-0.08
0.71
2.28
4.59
7.31
9.95
12.01
13.11
13.11
12.13
10.41
8.27
6.02
3.85
1.98
0.6
-0.17
-0.34
-0.19
-0.21
-0.93
-2.63
-5.16
-7.95
-10.18
-11.24
-10.89
-9.4
-7.39
-5.55
-4.41
-4.2
-4.83
-5.95
-7.07
-7.65
-7.32
-5.93
-3.69
-1.07
1.37
3.17
4.14
4.39
4.23
4.0
3.86
3.87
3.86
3.64
3.03
1.99
0.64
-0.78
-1.97
-2.64
-2.62
-1.87
-0.46
1.48
3.73
6.09
8.32
10.2
11.5
12.17
12.2
11.78
11.04
10.13
9.01
7.57
5.67
3.25
0.44
-2.42
-4.87
-6.42
-6.79
-5.95
-4.17
-1.92
0.25
1.81
2.43
2.02
0.68
-1.29
-3.49
-5.49
-6.94
-7.62
-7.5
-6.79
-5.77
-4.8
-4.2
-4.13
-4.66
-5.67
-6.95
-8.21
-9.13
-9.47
-9.14
-8.22
-6.99
-5.78
-4.96
-4.76
-5.23
-6.31
-7.79
-9.43
-10.99
-12.27
-13.1
-13.36
-13.02
-12.15
-10.91
-9.52
-8.22
-7.21
-6.53
-6.07
-5.56
-4.66
-3.07
-0.73
2.2
5.38
8.38
10.85
12.57
13.5
13.68
13.21
12.25
10.99
9.62
8.36
7.31
6.5
5.84
5.16
4.39
3.49
2.54
1.66
0.93
0.32
-0.26
-0.95
-1.84
-2.96
-4.22
-5.47
-6.57
-7.44
-8.1
-8.59
-9.0
-9.37
-9.72
-9.96
-9.95
-9.53
-8.49
-6.8
-4.56
-2.09
0.18
1.77
2.39
1.93
0.51
-1.56
-3.91
-6.13
-7.84
-8.73
-8.64
-7.61
-5.86
-3.8
-1.81
-0.23
0.82
1.3
1.24
0.74
-0.16
-1.36
-2.68
-3.93
-4.84
-5.27
-5.17
-4.68
-3.93
-3.06
-2.14
-1.14
-0.03
1.14
2.27
3.25
4.04
4.74
5.49
6.34
7.15
7.58
7.27
6.03
3.98
1.5
-0.93
-2.93
-4.37
-5.33
-6.02
-6.58
-7.01
-7.15
-6.8
-5.79
-4.16
-2.15
-0.13
1.5
2.47
2.8
2.72
2.63
2.88
3.71
5.09
6.87
8.75
10.37
11.4
11.57
10.72
8.94
6.49
3.87
1.66
0.32
0.07
0.82
2.21
3.78
5.12
6.04
6.5
6.61
6.46
6.13
5.67
5.17
4.76
4.54
4.56
4.76
4.94
4.81
4.09
2.54
0.06
-3.23
-7.0
-10.71
-13.68
-15.38
-15.58
-14.39
-12.25
-9.73
-7.35
-5.46
-4.27
-3.84
-4.16
-5.06
-6.24
-7.3
-7.87
-7.71
-6.84
-5.4
-3.68
-1.97
-0.56
0.31
0.46
-0.17
-1.41
-2.9
-4.1
-4.51
-3.88
-2.34
-0.33
1.54
2.7
2.76
1.57
-0.79
-4.05
-7.81
-11.59
-14.86
-17.16
-18.19
-17.84
-16.27
-13.79
-10.77
-7.58
-4.52
-1.85
0.22
1.59
2.27
2.42
2.26
2.03
1.8
1.49
0.85
-0.38
-2.4
-5.16
-8.43
-11.77
-14.75
-17.05
-18.55
-19.41
-20.05
-20.97
-22.66
-25.44
-29.34
-34.1
-39.19
-44.01
-48.07
-51.1
-53.12
-54.34
-55.1
-55.73
-56.47
-57.51
-58.98
-60.93
-63.37
-66.21
-69.36
-72.78
-76.51
-80.59
-84.97
-89.42
-93.47
-96.5
-97.91
-97.19
-94.15
-88.83
-81.49
-72.5
-62.32
-51.34
-39.88
-28.12
-16.04
-3.46
9.87
24.06
38.99
54.21
68.97
82.37
93.63
102.25
108.13
111.54
113.02
113.21
112.68
111.86
110.98
110.09
109.16
108.13
106.91
105.43
103.59
101.31
98.53
95.29
91.68
87.79
83.58
78.93
73.7
67.94
61.92
56.23
51.53
48.29
46.63
46.26
46.59
46.98
46.85
45.84
43.82
40.83
37.1
32.99
28.9
25.08
21.57
18.12
14.27
9.58
3.75
-3.2
-10.96
-18.99
-26.75
-33.71
-39.49
-43.83
-46.63
-47.88
-47.68
-46.21
-43.67
-40.29
-36.27
-31.77
-26.85
-21.56
-15.86
-9.79
-3.48
2.79
8.66
13.78
17.86
20.72
22.33
22.74
22.09
20.61
18.64
16.53
14.64
13.18
12.23
11.69
11.41
11.26
11.14
11.05
10.96
10.85
10.61
10.11
9.23
7.96
6.43
4.89
3.69
3.08
3.18
3.88
4.92
5.98
6.86
7.46
7.85
8.13
8.42
8.76
9.14
9.46
9.61
9.43
8.71
7.31
5.2
2.5
-0.48
-3.39
-5.93
-7.9
-9.25
-9.99
-10.23
-9.95
-9.18
-7.93
-6.22
-4.15
-1.88
0.43
2.65
4.72
6.64
8.41
9.96
11.22
12.08
12.47
12.42
12.04
11.42
10.59
9.52
8.14
6.46
4.61
2.76
1.08
-0.38
-1.73
-3.11
-4.62
-6.23
-7.68
-8.74
-9.24
-9.17
-8.71
-7.99
-7.07
-5.88
-4.36
-2.58
-0.82
0.49
0.94
0.28
-1.49
-4.09
-7.12
-10.11
-12.62
-14.35
-15.15
-15.1
-14.45
-13.6
-13.02
-13.13
-14.21
-16.33
-19.35
-22.93
-26.57
-29.83
-32.29
-33.74
-34.17
-33.75
-32.76
-31.53
-30.25
-28.93
-27.33
-25.12
-21.94
-17.61
-12.15
-5.86
0.8
7.3
13.16
18.03
21.72
24.16
25.38
25.5
24.71
23.24
21.42
19.57
17.99
16.85
16.04
15.35
14.49
13.23
11.49
9.28
6.67
3.68
0.4
-2.97
-6.01
-8.23
-9.2
-8.8
-7.32
-5.34
-3.53
-2.25
-1.52
-1.02
-0.37
0.73
2.3
4.14
5.91
7.22
7.76
7.32
5.78
3.17
-0.3
-4.27
-8.33
-12.06
-15.22
-17.69
-19.48
-20.63
-21.11
-20.85
-19.75
-17.77
-14.9
-11.26
-6.99
-2.29
2.57
7.27
11.45
14.82
17.19
18.63
19.32
19.48
19.23
18.57
17.4
15.65
13.39
10.84
8.34
6.27
4.86
4.23
4.3
4.8
5.4
5.65
5.22
3.92
1.88
-0.46
-2.46
-3.49
-3.17
-1.42
1.49
5.08
8.8
12.08
14.52
15.8
15.76
14.48
12.2
9.39
6.54
4.09
2.26
1.1
0.45
0.09
-0.27
-0.85
-1.85
-3.34
-5.28
-7.58
-10.05
-12.51
-14.74
-16.53
-17.65
-17.97
-17.42
-16.08
-14.18
-12.0
-9.74
-7.57
-5.53
-3.68
-2.08
-0.74
0.4
1.54
2.9
4.62
6.63
8.61
10.08
10.65
10.14
8.67
6.59
4.36
2.31
0.68
-0.48
-1.26
-1.84
-2.39
-3.1
-4.09
-5.32
-6.59
-7.55
-7.77
-6.97
-5.11
-2.43
0.57
3.3
5.24
6.08
5.74
4.38
2.37
0.18
-1.71
-2.99
-3.59
-3.77
-3.97
-4.66
-6.06
-8.09
-10.39
-12.5
-14.08
-15.01
-15.38
-15.39
-15.27
-15.09
-14.85
-14.45
-13.78
-12.71
-11.16
-9.14
-6.73
-4.14
-1.63
0.55
2.25
3.54
4.62
5.76
7.15
8.78
10.48
11.97
12.99
13.39
13.17
12.39
11.14
9.55
7.74
5.87
4.12
2.63
1.48
0.6
-0.07
-0.58
-0.92
-1.0
-0.77
-0.27
0.34
0.85
1.12
1.13
1.04
1.05
1.43
2.32
3.77
5.66
7.72
9.61
10.93
11.34
10.7
9.04
6.6
3.69
0.63
-2.38
-5.2
-7.68
-9.65
-10.88
-11.21
-10.63
-9.34
-7.66
-5.94
-4.4
-3.04
-1.72
-0.22
1.55
3.52
5.42
6.97
7.97
8.38
8.26
7.77
7.0
6.04
4.93
3.78
2.74
1.93
1.41
1.07
0.73
0.16
-0.73
-1.87
-3.08
-4.19
-5.1
-5.87
-6.6
-7.43
-8.4
-9.5
-10.62
-11.6
-12.24
-12.31
-11.67
-10.32
-8.41
-6.3
-4.39
-3.01
-2.33
-2.25
-2.52
-2.86
-3.07
-3.14
-3.18
-3.42
-4.01
-4.97
-6.18
-7.45
-8.56
-9.37
-9.84
-10.0
-9.92
-9.69
-9.33
-8.85
-8.23
-7.45
-6.46
-5.26
-3.82
-2.15
-0.26
1.79
3.9
5.88
7.59
8.82
9.45
9.46
8.92
8.01
6.91
5.8
4.74
3.75
2.79
1.86
1.01
0.32
-0.23
-0.77
-1.55
-2.86
-4.8
-7.17
-9.48
-11.1
-11.48
-10.39
-7.95
-4.54
-0.68
3.09
6.33
8.69
9.93
9.97
8.95
7.25
5.46
4.2
3.87
4.53
5.82
7.12
7.79
7.41
5.92
3.58
0.81
-1.97
-4.42
-6.27
-7.31
-7.44
-6.67
-5.24
-3.54
-2.0
-0.9
-0.27
0.08
0.43
1.01
1.87
2.91
3.96
4.88
5.53
5.81
5.62
4.88
3.59
1.89
0.03
-1.66
-2.85
-3.34
-3.16
-2.56
-1.86
-1.4
-1.37
-1.78
-2.43
-3.03
-3.32
-3.22
-2.85
-2.56
-2.77
-3.86
-5.98
-9.03
-12.66
-16.38
-19.72
-22.35
-24.14
-25.17
-25.64
-25.8
-25.93
-26.17
-26.54
-26.88
-26.91
-26.36
-25.09
-23.19
-20.95
-18.8
-17.07
-16.0
-15.6
-15.79
-16.36
-17.08
-17.69
-17.87
-17.27
-15.6
-12.71
-8.75
-4.14
0.58
4.88
8.43
11.19
13.31
15.05
16.54
17.81
18.74
19.21
19.13
18.52
17.45
16.03
14.36
12.46
10.4
8.26
6.22
4.46
3.13
2.26
1.69
1.15
0.41
-0.65
-1.9
-3.11
-3.96
-4.23
-3.84
-2.85
-1.44
0.2
1.82
3.21
4.19
4.69
4.73
4.44
3.94
3.35
2.76
2.21
1.76
1.45
1.26
1.08
0.75
0.08
-0.97
-2.31
-3.74
-5.07
-6.21
-7.21
-8.12
-8.94
-9.55
-9.73
-9.29
-8.25
-6.82
-5.4
-4.31
-3.74
-3.62
-3.67
-3.59
-3.12
-2.14
-0.65
1.21
3.27
5.35
7.27
8.85
9.98
10.62
10.77
10.55
10.06
9.38
8.5
7.32
5.78
3.89
1.85
-0.03
-1.37
-1.94
-1.67
-0.72
0.61
2.03
3.34
4.44
5.35
6.08
6.64
7.03
7.25
7.34
7.35
7.38
7.48
7.62
7.66
7.35
6.39
4.55
1.75
-1.81
-5.76
-9.68
-13.2
-16.18
-18.64
-20.77
-22.78
-24.73
-26.58
-28.13
-29.14
-29.43
-28.89
-27.54
-25.52
-23.01
-20.2
-17.22
-14.05
-10.58
-6.66
-2.19
2.76
7.89
12.72
16.67
19.27
20.29
19.86
18.35
16.35
14.45
13.13
12.63
12.97
13.94
15.21
16.43
17.29
17.67
17.57
17.13
16.56
16.05
15.73
15.67
15.87
16.32
17.01
17.91
18.9
19.83
20.47
20.69
20.4
19.7
18.71
17.53
16.13
14.37
12.11
9.29
6.0
2.43
-1.19
-4.7
-7.99
-11.06
-13.89
-16.45
-18.66
-20.41
-21.57
-22.03
-21.7
-20.6
-18.86
-16.69
-14.35
-12.1
-10.05
-8.22
-6.49
-4.65
-2.58
-0.21
2.28
4.63
6.46
7.52
7.67
6.92
5.46
3.45
1.0
-1.82
-4.95
-8.25
-11.52
-14.47
-16.88
-18.59
-19.55
-19.81
-19.45
-18.58
-17.27
-15.64
-13.8
-11.95
-10.21
-8.66
-7.19
-5.6
-3.69
-1.42
1.09
3.56
5.68
7.27
8.3
8.98
9.49
9.93
10.23
10.1
9.2
7.24
4.14
0.06
-4.58
-9.34
-13.86
-17.99
-21.86
-25.69
-29.67
-33.8
-37.81
-41.24
-43.53
-44.16
-42.73
-39.03
-33.14
-25.43
-16.6
-7.44
1.29
9.15
16.12
22.48
28.57
34.53
40.19
45.06
48.57
50.3
50.14
48.2
44.76
40.16
34.74
28.88
23.05
17.71
13.26
9.91
7.6
6.04
4.84
3.66
2.39
1.07
-0.09
-0.87
-1.15
-0.91
-0.24
0.73
1.89
3.19
4.6
6.11
7.63
9.05
10.28
11.38
12.42
13.52
14.66
15.68
16.37
16.55
16.15
15.24
13.89
12.11
9.78
6.78
3.05
-1.27
-5.93
-10.62
-15.0
-18.82
-21.8
-23.73
-24.43
-23.89
-22.22
-19.65
-16.43
-12.77
-8.84
-4.7
-0.42
3.89
8.11
12.15
15.9
19.39
22.61
25.54
28.18
30.45
32.35
33.88
35.09
36.02
36.67
36.92
36.59
35.46
33.4
30.45
26.84
22.91
18.99
15.36
12.14
9.35
6.95
4.83
2.85
0.85
-1.3
-3.66
-6.16
-8.65
-10.89
-12.69
-13.99
-14.86
-15.44
-15.87
-16.13
-16.12
-15.62
-14.48
-12.72
-10.58
-8.44
-6.77
-5.97
-6.3
-7.78
-10.23
-13.27
-16.41
-19.13
-20.94
-21.53
-20.75
-18.7
-15.58
-11.8
-7.79
-3.97
-0.61
2.25
4.72
7.07
9.43
11.77
13.8
15.11
15.3
14.2
11.92
8.88
5.68
2.91
1.13
0.58
1.14
2.4
3.69
4.38
4.15
3.1
1.79
0.99
1.34
3.14
6.13
9.69
13.04
15.62
17.21
18.04
18.53
19.14
20.13
21.58
23.37
25.43
27.61
29.79
31.62
32.63
32.28
30.23
26.47
21.37
15.53
9.58
3.86
-1.5
-6.54
-11.28
-15.62
-19.24
-21.89
-23.36
-23.67
-22.96
-21.41
-19.18
-16.37
-13.13
-9.65
-6.29
-3.37
-1.14
0.35
1.23
1.73
2.01
2.17
2.21
2.14
2.05
2.11
2.49
3.24
4.24
5.25
5.98
6.23
5.94
5.22
4.29
3.44
2.94
2.97
3.64
4.89
6.57
8.51
10.57
12.68
14.85
17.05
19.09
20.65
21.36
20.89
19.13
16.18
12.39
8.23
4.21
0.73
-1.93
-3.7
-4.72
-5.29
-5.85
-6.82
-8.49
-10.89
-13.79
-16.71
-19.12
-20.5
-20.59
-19.39
-17.22
-14.57
-11.94
-9.69
-7.94
-6.59
-5.44
-4.26
-2.92
-1.38
0.27
1.91
3.32
4.24
4.42
3.71
2.19
0.15
-2.0
-3.89
-5.37
-6.53
-7.58
-8.74
-10.14
-11.8
-13.61
-15.46
-17.15
-18.46
-19.09
-18.77
-17.34
-14.85
-11.52
-7.74
-3.92
-0.36
2.68
5.09
6.85
7.98
8.6
8.84
8.81
8.61
8.31
8.01
7.77
7.72
7.86
8.1
8.22
7.95
7.05
5.46
3.33
0.95
-1.3
-3.11
-4.21
-4.47
-3.88
-2.49
-0.5
1.8
4.09
6.05
7.45
8.31
8.79
9.14
9.48
9.7
9.43
8.25
5.86
2.27
-2.17
-6.9
-11.33
-15.07
-17.95
-19.96
-21.19
-21.68
-21.53
-20.85
-19.86
-18.74
-17.66
-16.66
-15.66
-14.53
-13.2
-11.66
-9.92
-8.01
-5.94
-3.71
-1.39
0.84
2.72
4.02
4.65
4.69
4.41
4.07
3.86
3.78
3.66
3.33
2.67
1.74
0.73
-0.2
-1.0
-1.82
-2.93
-4.57
-6.8
-9.44
-12.07
-14.15
-15.17
-14.83
-13.06
-10.06
-6.18
-1.81
2.73
7.2
11.43
15.3
18.65
21.3
23.05
23.79
23.51
22.41
20.8
19.05
17.51
16.33
15.5
14.86
14.16
13.19
11.84
10.05
7.9
5.51
3.14
1.04
-0.53
-1.48
-1.91
-2.09
-2.4
-3.13
-4.34
-5.82
-7.19
-8.05
-8.14
-7.49
-6.37
-5.22
-4.48
-4.37
-4.92
-5.9
-7.01
-8.0
-8.74
-9.28
-9.78
-10.41
-11.36
-12.75
-14.63
-16.93
-19.4
-21.59
-22.9
-22.85
-21.21
-18.12
-14.06
-9.59
-5.17
-1.03
2.8
6.36
9.6
12.38
14.46
15.69
16.06
15.66
14.7
13.33
11.74
10.13
8.69
7.57
6.81
6.28
5.71
4.82
3.45
1.68
-0.26
-2.11
-3.71
-5.01
-6.06
-6.97
-7.72
-8.26
-8.52
-8.57
-8.54
-8.67
-9.1
-9.8
-10.59
-11.14
-11.18
-10.64
-9.7
-8.68
-7.94
-7.7
-7.94
-8.48
-9.01
-9.27
-9.07
-8.37
-7.3
-6.08
-4.94
-4.09
-3.61
-3.45
-3.45
-3.49
-3.52
-3.59
-3.79
-4.23
-4.9
-5.71
-6.51
-7.1
-7.29
-6.88
-5.78
-4.02
-1.84
0.38
2.17
3.23
3.48
3.14
2.53
1.89
1.26
0.42
-0.9
-2.9
-5.48
-8.34
-11.12
-13.54
-15.51
-17.12
-18.49
-19.82
-21.24
-22.88
-24.8
-26.9
-28.78
-29.77
-29.03
-25.98
-20.53
-13.24
-5.15
2.64
9.3
14.52
18.42
21.32
23.5
25.09
26.08
26.55
26.64
26.6
26.67
26.87
27.08
27.02
26.48
25.37
23.7
21.63
19.32
16.92
14.52
12.16
9.82
7.47
5.12
2.78
0.52
-1.6
-3.54
-5.32
-6.96
-8.44
-9.73
-10.73
-11.36
-11.64
-11.64
-11.48
-11.26
-11.02
-10.79
-10.7
-10.93
-11.8
-13.58
-16.5
-20.59
-25.67
-31.35
-37.13
-42.51
-47.16
-51.04
-54.46
-57.9
-61.94
-66.93
-72.87
-79.27
-85.18
-89.32
-90.29
-86.95
-78.66
-65.63
-48.79
-29.68
-10.12
8.3
24.37
37.54
47.76
55.42
61.06
65.25
68.41
70.72
72.2
72.73
72.22
70.61
67.98
64.45
60.19
55.34
50.03
44.39
38.61
32.97
27.79
23.38
19.87
17.26
15.32
13.78
12.48
11.41
10.71
10.55
10.96
11.78
12.7
13.37
13.57
13.29
12.69
11.97
11.2
10.28
8.92
6.85
3.91
0.17
-4.12
-8.63
-13.1
-17.37
-21.37
-25.08
-28.51
-31.58
-34.26
-36.43
-38.04
-38.97
-39.1
-38.18
-35.91
-32.0
-26.29
-18.88
-10.2
-0.96
8.1
16.41
23.76
30.33
36.46
42.45
48.35
53.95
58.88
62.75
65.31
66.43
66.07
64.22
60.96
56.4
50.84
44.7
38.48
32.55
27.11
22.04
17.07
11.93
6.56
1.23
-3.51
-7.09
-9.18
-9.84
-9.44
-8.58
-7.72
-7.11
-6.76
-6.54
-6.35
-6.17
-6.04
-6.0
-6.02
-6.0
-5.88
-5.68
-5.53
-5.59
-5.97
-6.58
-7.22
-7.57
-7.38
-6.56
-5.21
-3.55
-1.89
-0.47
0.57
1.21
1.52
1.66
1.77
2.0
2.44
3.03
3.63
3.96
3.79
2.99
1.67
0.25
-0.65
-0.44
1.2
4.15
7.81
11.33
13.88
14.95
14.52
12.91
10.66
8.2
5.8
3.52
1.3
-0.98
-3.43
-6.17
-9.3
-12.83
-16.67
-20.53
-24.0
-26.61
-27.98
-27.88
-26.34
-23.62
-20.15
-16.4
-12.79
-9.64
-7.03
-4.85
-2.86
-0.73
1.8
4.81
8.2
11.66
14.71
16.91
17.89
17.49
15.81
13.11
9.81
6.29
2.88
-0.23
-2.96
-5.31
-7.38
-9.32
-11.3
-13.43
-15.72
-18.06
-20.25
-22.06
-23.37
-24.17
-24.5
-24.37
-23.7
-22.34
-20.13
-17.1
-13.46
-9.54
-5.75
-2.39
0.36
2.47
3.98
4.99
5.68
6.24
6.83
7.54
8.33
9.02
9.4
9.23
8.36
6.71
4.33
1.4
-1.79
-4.86
-7.4
-9.14
-9.98
-9.98
-9.34
-8.23
-6.83
-5.22
-3.49
-1.7
0.12
1.98
4.0
6.3
8.93
11.77
14.56
16.93
18.53
19.18
18.86
17.75
16.1
14.14
12.04
9.89
7.72
5.55
3.4
1.29
-0.7
-2.57
-4.25
-5.7
-6.77
-7.3
-7.07
-5.97
-4.1
-1.79
0.42
1.96
2.44
1.78
0.28
-1.53
-3.03
-3.78
-3.58
-2.5
-0.75
1.39
3.61
5.65
7.25
8.23
8.5
8.07
7.05
5.54
3.66
1.46
-0.98
-3.55
-6.08
-8.4
-10.29
-11.67
-12.49
-12.78
-12.58
-11.9
-10.71
-9.03
-6.94
-4.61
-2.27
-0.14
1.59
2.85
3.66
4.11
4.32
4.43
4.5
4.57
4.57
4.43
4.05
3.48
2.84
2.34
2.11
2.19
2.43
2.58
2.39
1.71
0.55
-0.95
-2.64
-4.36
-5.99
-7.42
-8.51
-9.16
-9.35
-9.14
-8.64
-7.96
-7.09
-6.01
-4.64
-3.02
-1.31
0.24
1.35
1.89
1.85
1.4
0.73
-0.05
-0.87
-1.77
-2.8
-3.92
-5.06
-6.1
-6.96
-7.61
-8.08
-8.39
-8.59
-8.67
-8.64
-8.51
-8.28
-7.96
-7.56
-7.12
-6.64
-6.17
-5.66
-5.07
-4.27
-3.22
-1.9
-0.44
1.01
2.28
3.25
3.81
3.95
3.64
2.96
2.03
1.07
0.27
-0.29
-0.65
-1.0
-1.52
-2.3
-3.27
-4.25
-5.01
-5.43
-5.47
-5.22
-4.83
-4.45
-4.17
-4.04
-4.03
-4.08
-4.12
-4.02
-3.66
-2.85
-1.4
0.77
3.61
6.79
9.82
12.16
13.37
13.3
12.08
10.01
7.47
4.74
2.02
-0.55
-2.82
-4.63
-5.84
-6.46
-6.63
-6.54
-6.4
-6.22
-5.85
-5.11
-3.89
-2.26
-0.49
1.09
2.27
3.1
3.82
4.74
6.02
7.64
9.36
10.92
12.16
13.07
13.7
14.02
13.93
13.22
11.77
9.64
7.04
4.32
1.78
-0.38
-2.15
-3.64
-5.04
-6.49
-8.06
-9.71
-11.28
-12.56
-13.3
-13.29
-12.34
-10.48
-7.87
-4.87
-1.95
0.48
2.13
2.99
3.24
3.18
3.08
3.11
3.31
3.58
3.84
3.9
3.59
2.76
1.31
-0.79
-3.38
-6.21
-8.94
-11.31
-13.07
-14.16
-14.59
-14.44
-13.9
-13.21
-12.59
-12.26
-12.26
-12.49
-12.63
-12.3
-11.11
-8.91
-5.78
-2.02
1.89
5.44
8.2
9.87
10.35
9.8
8.51
6.91
5.37
4.18
3.44
3.13
3.14
3.3
3.44
3.37
2.94
2.04
0.7
-0.93
-2.6
-3.98
-4.84
-5.13
-5.0
-4.82
-4.98
-5.8
-7.35
-9.43
-11.54
-13.2
-13.98
-13.7
-12.48
-10.59
-8.44
-6.46
-5.05
-4.51
-5.04
-6.61
-8.99
-11.78
-14.49
-16.71
-18.13
-18.61
-18.15
-16.86
-14.93
-12.61
-10.21
-7.97
-5.99
-4.11
-2.03
0.65
4.21
8.67
13.74
18.9
23.57
27.33
29.98
31.5
32.04
31.73
30.72
29.15
27.18
25.06
23.02
21.31
20.0
19.1
18.47
17.97
17.47
16.92
16.34
15.78
15.27
14.86
14.52
14.26
14.07
13.98
13.98
13.99
13.89
13.49
12.64
11.28
9.54
7.62
5.85
4.46
3.58
3.21
3.17
3.2
2.97
2.14
0.48
-2.08
-5.43
-9.26
-13.17
-16.73
-19.65
-21.76
-23.03
-23.5
-23.2
-22.14
-20.36
-17.91
-14.99
-11.82
-8.67
-5.73
-3.14
-0.94
0.93
2.61
4.25
6.0
7.88
9.78
11.46
12.67
13.31
13.46
13.35
13.24
13.19
13.08
12.7
11.86
10.53
8.84
6.9
4.81
2.59
0.33
-1.74
-3.28
-3.96
-3.66
-2.57
-1.09
0.35
1.53
2.46
3.27
4.04
4.72
5.13
5.17
4.87
4.41
4.02
3.78
3.52
2.9
1.55
-0.75
-3.92
-7.63
-11.43
-14.93
-17.84
-20.02
-21.4
-21.86
-21.29
-19.65
-17.05
-13.78
-10.27
-6.88
-3.82
-1.03
1.71
4.66
7.86
11.14
14.11
16.32
17.45
17.45
16.52
15.05
13.48
12.09
10.96
9.96
8.92
7.68
6.22
4.62
2.98
1.4
-0.14
-1.66
-3.23
-4.83
-6.34
-7.54
-8.18
-8.13
-7.39
-6.18
-4.85
-3.81
-3.36
-3.57
-4.29
-5.24
-6.07
-6.55
-6.64
-6.43
-6.06
-5.64
-5.19
-4.68
-4.1
-3.55
-3.2
-3.2
-3.57
-4.15
-4.63
-4.69
-4.19
-3.17
-1.85
-0.44
0.9
2.17
3.4
4.57
5.55
6.13
6.16
5.62
4.72
3.8
3.11
2.77
2.68
2.57
2.23
1.51
0.43
-0.92
-2.45
-4.09
-5.77
-7.43
-8.92
-10.07
-10.81
-11.17
-11.35
-11.54
-11.88
-12.32
-12.69
-12.75
-12.32
-11.33
-9.84
-7.94
-5.73
-3.3
-0.76
1.74
3.95
5.64
6.62
6.86
6.49
5.85
5.33
5.31
5.98
7.29
8.87
10.26
10.95
10.66
9.32
7.14
4.39
1.38
-1.66
-4.55
-7.08
-9.07
-10.41
-11.12
-11.34
-11.32
-11.27
-11.31
-11.44
-11.58
-11.63
-11.48
-11.06
-10.29
-9.12
-7.63
-5.96
-4.37
-3.15
-2.57
-2.75
-3.59
-4.91
-6.36
-7.65
-8.62
-9.33
-9.94
-10.69
-11.71
-12.98
-14.33
-15.53
-16.37
-16.74
-16.61
-16.08
-15.35
-14.63
-14.07
-13.68
-13.36
-12.92
-12.24
-11.4
-10.65
-10.27
-10.47
-11.21
-12.28
-13.44
-14.5
-15.46
-16.42
-17.51
-18.85
-20.47
-22.33
-24.27
-26.08
-27.49
-28.23
-28.15
-27.27
-25.79
-24.09
-22.47
-21.11
-19.98
-18.81
-17.24
-14.96
-11.81
-7.85
-3.32
1.41
6.02
10.25
13.98
17.23
20.09
22.65
25.03
27.22
29.16
30.73
31.83
32.41
32.55
32.33
31.83
31.12
30.18
29.03
27.76
26.5
25.33
24.26
23.21
22.05
20.72
19.26
17.8
16.49
15.46
14.77
14.51
14.78
15.7
17.31
19.44
21.71
23.58
24.48
24.02
22.1
18.93
14.93
10.61
6.46
2.81
-0.21
-2.65
-4.64
-6.37
-7.91
-9.29
-10.52
-11.78
-13.37
-15.66
-18.82
-22.6
-26.3
-28.92
-29.63
-28.12
-24.74
-20.3
-15.69
-11.48
-7.84
-4.62
-1.61
1.28
4.02
6.52
8.7
10.54
11.94
12.73
12.67
11.65
9.71
7.12
4.26
1.46
-1.05
-3.27
-5.3
-7.29
-9.4
-11.71
-14.12
-16.42
-18.27
-19.25
-19.11
-17.76
-15.3
-12.0
-8.11
-3.82
0.72
5.34
9.82
13.85
17.19
19.71
21.54
22.93
24.15
25.28
26.19
26.59
26.25
25.13
23.43
21.5
19.73
18.3
17.21
16.28
15.31
14.19
12.92
11.6
10.31
9.2
8.33
7.76
7.42
7.22
6.93
6.38
5.5
4.37
3.31
2.65
2.68
3.49
4.91
6.55
7.89
8.44
7.78
5.67
2.15
-2.39
-7.29
-11.66
-14.68
-15.87
-15.21
-13.19
-10.57
-8.16
-6.55
-6.05
-6.6
-8.02
-9.97
-12.16
-14.32
-16.25
-17.81
-18.87
-19.3
-18.98
-17.76
-15.66
-12.83
-9.71
-6.84
-4.8
-3.93
-4.32
-5.66
-7.41
-8.92
-9.63
-9.25
-7.83
-5.71
-3.45
-1.6
-0.64
-0.73
-1.81
-3.58
-5.69
-7.69
-9.19
-9.82
-9.34
-7.67
-4.98
-1.75
1.38
3.72
4.77
4.41
2.97
1.07
-0.58
-1.43
-1.32
-0.54
0.28
0.39
-0.85
-3.69
-8.0
-13.3
-18.99
-24.6
-29.94
-35.1
-40.38
-46.06
-52.23
-58.73
-65.24
-71.46
-77.24
-82.68
-88.11
-93.94
-100.47
-107.64
-114.96
-121.34
-125.23
-124.83
-118.52
-105.37
-85.5
-60.21
-31.76
-2.74
24.55
48.61
68.85
85.42
98.73
109.12
116.65
121.2
122.7
121.36
117.71
112.49
106.39
99.91
93.17
86.12
78.75
71.31
64.41
58.81
55.14
53.65
54.1
55.86
58.13
60.19
61.49
61.7
60.74
58.74
56.03
53.12
50.45
48.28
46.65
45.31
43.99
42.38
40.26
37.42
33.66
28.86
23.11
16.82
10.68
5.48
1.78
-0.3
-1.1
-1.3
-1.63
-2.65
-4.57
-7.25
-10.17
-12.68
-14.18
-14.28
-12.91
-10.37
-7.2
-3.97
-1.26
0.57
1.31
0.98
-0.25
-2.11
-4.24
-6.36
-8.3
-10.0
-11.56
-13.02
-14.43
-15.74
-16.89
-17.77
-18.35
-18.6
-18.57
-18.38
-18.15
-17.99
-17.85
-17.6
-17.04
-15.93
-14.24
-12.03
-9.51
-6.96
-4.66
-2.72
-1.21
0.02
1.17
2.5
4.18
6.24
8.52
10.66
12.32
13.15
12.99
11.88
10.05
7.87
5.76
4.04
2.87
2.2
1.79
1.41
0.88
0.23
-0.37
-0.66
-0.41
0.48
1.91
3.6
5.11
5.98
5.87
4.69
2.69
0.34
-1.82
-3.31
-3.93
-3.69
-2.79
-1.51
-0.1
1.3
2.59
3.74
4.65
5.13
4.89
3.66
1.33
-2.01
-6.07
-10.5
-14.93
-19.1
-22.8
-25.82
-27.93
-28.88
-28.45
-26.57
-23.37
-19.18
-14.43
-9.61
-5.12
-1.18
2.14
4.9
7.15
8.9
10.06
10.56
10.44
9.9
9.19
8.53
7.94
7.32
6.43
5.15
3.49
1.67
-0.06
-1.43
-2.35
-2.82
-2.98
-3.01
-3.08
-3.31
-3.75
-4.41
-5.22
-6.03
-6.7
-7.04
-6.97
-6.45
-5.56
-4.4
-3.06
-1.54
0.18
2.11
4.11
5.87
7.0
7.14
6.17
4.24
1.73
-0.89
-3.27
-5.29
-7.02
-8.66
-10.45
-12.4
-14.39
-16.08
-17.05
-16.94
-15.62
-13.23
-10.18
-7.04
-4.38
-2.62
-1.93
-2.29
-3.44
-4.98
-6.46
-7.47
-7.76
-7.29
-6.22
-4.92
-3.8
-3.23
-3.4
-4.28
-5.58
-6.89
-7.76
-7.86
-7.1
-5.66
-3.92
-2.33
-1.21
-0.63
-0.43
-0.31
0.03
0.68
1.58
2.5
3.23
3.65
3.75
3.53
3.04
2.25
1.17
-0.07
-1.23
-2.04
-2.26
-1.88
-1.11
-0.36
-0.05
-0.54
-1.96
-4.32
-7.41
-11.02
-14.86
-18.69
-22.25
-25.38
-27.99
-30.05
-31.63
-32.76
-33.42
-33.52
-32.91
-31.46
-29.15
-26.11
-22.56
-18.73
-14.79
-10.84
-6.93
-3.09
0.56
3.86
6.53
8.39
9.29
9.24
8.4
7.06
5.53
4.03
2.68
1.42
0.1
-1.47
-3.44
-5.91
-8.88
-12.23
-15.86
-19.58
-23.21
-26.51
-29.29
-31.36
-32.58
-32.96
-32.55
-31.43
-29.58
-26.86
-23.01
-17.87
-11.48
-4.26
3.11
9.91
15.58
19.91
22.96
24.95
26.06
26.35
25.85
24.61
22.79
20.63
18.34
15.99
13.52
10.77
7.66
4.25
0.73
-2.58
-5.41
-7.53
-8.76
-8.98
-8.13
-6.22
-3.43
-0.09
3.45
6.89
10.15
13.33
16.7
20.41
24.4
28.29
31.41
33.08
32.79
30.48
26.5
21.59
16.56
12.14
8.76
6.56
5.45
5.17
5.5
6.26
7.37
8.83
10.68
12.89
15.3
17.59
19.29
19.92
19.17
16.97
13.52
9.25
4.69
0.29
-3.61
-6.8
-9.24
-10.97
-12.08
-12.73
-13.05
-13.21
-13.37
-13.7
-14.38
-15.57
-17.39
-19.87
-22.86
-25.97
-28.66
-30.35
-30.59
-29.18
-26.28
-22.32
-17.81
-13.2
-8.77
-4.54
-0.48
3.5
7.39
11.1
14.52
17.55
20.16
22.33
24.12
25.63
26.96
28.19
29.28
30.12
30.51
30.19
28.96
26.69
23.43
19.43
15.08
10.78
6.89
3.57
0.74
-1.83
-4.44
-7.3
-10.35
-13.26
-15.51
-16.53
-15.88
-13.47
-9.61
-4.94
-0.31
3.42
5.63
6.05
4.82
2.53
0.01
-1.85
-2.36
-1.13
1.77
5.97
10.83
15.67
19.83
22.85
24.39
24.31
22.66
19.68
15.78
11.44
7.18
3.39
0.32
-1.97
-3.56
-4.64
-5.4
-5.95
-6.28
-6.25
-5.66
-4.41
-2.49
-0.12
2.42
4.88
7.19
9.46
11.85
14.49
17.36
20.32
23.22
25.9
28.2
29.93
30.86
30.77
29.55
27.3
24.3
20.88
17.42
14.16
11.26
8.68
6.22
3.56
0.23
-4.14
-9.65
-15.97
-22.39
-28.02
-32.16
-34.54
-35.43
-35.43
-35.14
-34.98
-35.0
-35.02
-34.8
-34.17
-33.14
-31.85
-30.48
-29.18
-28.07
-27.24
-26.85
-27.08
-28.12
-30.1
-32.93
-36.24
-39.4
-41.64
-42.39
-41.44
-39.06
-35.92
-32.77
-30.12
-28.01
-25.98
-23.33
-19.4
-13.89
-6.95
0.92
9.06
16.81
23.68
29.37
33.78
36.94
39.06
40.38
41.17
41.65
41.9
41.96
41.73
41.11
40.0
38.29
35.93
32.99
29.67
26.32
23.3
20.81
18.88
17.31
15.84
14.29
12.66
11.06
9.63
8.49
7.66
7.15
7.04
7.43
8.44
10.1
12.26
14.66
17.0
19.02
20.54
21.47
21.75
21.42
20.58
19.46
18.36
17.46
16.78
16.07
14.91
12.88
9.78
5.71
1.08
-3.55
-7.63
-10.78
-12.88
-14.04
-14.44
-14.29
-13.76
-12.94
-11.89
-10.72
-9.49
-8.19
-6.7
-4.82
-2.4
0.53
3.71
6.66
8.88
10.03
10.03
9.1
7.61
5.93
4.34
2.99
1.83
0.72
-0.56
-2.26
-4.52
-7.38
-10.71
-14.26
-17.64
-20.45
-22.27
-22.71
-21.56
-18.82
-14.77
-10.02
-5.32
-1.46
1.02
1.95
1.58
0.45
-0.8
-1.64
-1.8
-1.25
-0.18
1.14
2.42
3.39
3.76
3.36
2.14
0.21
-2.14
-4.47
-6.4
-7.67
-8.26
-8.35
-8.25
-8.2
-8.28
-8.34
-8.06
-7.12
-5.46
-3.29
-1.13
0.48
1.15
0.86
-0.13
-1.33
-2.31
-2.73
-2.47
-1.6
-0.27
1.28
2.89
4.43
5.91
7.33
8.68
9.82
10.52
10.62
10.09
9.15
8.18
7.52
7.4
7.76
8.39
9.08
9.66
10.11
10.44
10.65
10.71
10.53
10.07
9.36
8.56
7.89
7.52
7.5
7.74
8.0
7.95
7.25
5.68
3.17
-0.17
-4.04
-8.01
-11.67
-14.69
-16.95
-18.5
-19.46
-20.03
-20.26
-20.16
-19.64
-18.56
-16.76
-14.13
-10.55
-6.0
-0.59
5.36
11.34
16.7
20.87
23.46
24.41
24.03
22.82
21.39
20.27
19.77
19.91
20.49
21.14
21.42
20.93
19.38
16.69
13.08
8.97
4.9
1.33
-1.44
-3.43
-4.83
-5.96
-7.09
-8.27
-9.44
-10.3
-10.58
-10.1
-8.81
-6.9
-4.63
-2.27
0.07
2.37
4.61
6.67
8.23
8.84
8.19
6.25
3.34
0.0
-3.22
-6.01
-8.29
-10.16
-11.71
-12.96
-13.81
-14.14
-13.92
-13.28
-12.44
-11.56
-10.68
-9.65
-8.25
-6.33
-3.83
-0.92
2.14
5.03
7.44
9.09
9.79
9.43
8.11
6.1
3.86
1.83
0.4
-0.29
-0.26
0.29
1.12
2.01
2.79
3.32
3.54
3.45
3.13
2.68
2.2
1.75
1.27
0.67
-0.07
-0.94
-1.85
-2.71
-3.48
-4.15
-4.77
-5.32
-5.73
-5.86
-5.6
-5.0
-4.23
-3.6
-3.41
-3.83
-4.88
-6.46
-8.43
-10.7
-13.26
-16.03
-18.92
-21.69
-24.11
-25.97
-27.09
-27.38
-26.76
-25.22
-22.8
-19.74
-16.35
-13.04
-10.16
-7.93
-6.29
-5.07
-4.01
-2.96
-1.94
-1.09
-0.61
-0.65
-1.15
-1.95
-2.88
-3.83
-4.82
-5.99
-7.37
-8.9
-10.34
-11.37
-11.79
-11.68
-11.37
-11.39
-12.24
-14.27
-17.46
-21.44
-25.48
-28.7
-30.27
-29.62
-26.75
-22.06
-16.32
-10.33
-4.62
0.61
5.43
10.01
14.39
18.39
21.67
23.88
24.84
24.6
23.46
21.82
20.07
18.44
16.96
15.43
13.59
11.2
8.15
4.62
0.94
-2.42
-5.02
-6.57
-7.05
-6.61
-5.55
-4.2
-2.94
-2.05
-1.74
-2.04
-2.81
-3.68
-4.15
-3.76
-2.24
0.39
3.8
7.47
10.82
13.43
15.05
15.66
15.37
14.29
12.55
10.27
7.57
4.67
1.87
-0.49
-2.08
-2.67
-2.12
-0.44
2.15
5.29
8.44
11.04
12.58
12.79
11.66
9.48
6.66
3.54
0.34
-2.93
-6.37
-10.0
-13.7
-17.18
-20.06
-22.01
-22.85
-22.6
-21.36
-19.4
-16.94
-14.28
-11.73
-9.6
-8.22
-7.84
-8.57
-10.32
-12.8
-15.57
-18.17
-20.18
-21.36
-21.57
-20.79
-18.92
-15.89
-11.65
-6.24
0.08
6.87
13.66
20.01
25.61
30.26
33.79
35.99
36.67
35.73
33.31
29.76
25.55
21.12
16.73
12.5
8.49
4.78
1.54
-1.06
-2.9
-4.05
-4.71
-5.21
-5.81
-6.58
-7.38
-7.86
-7.65
-6.48
-4.36
-1.53
1.55
4.41
6.61
7.99
8.55
8.46
7.92
7.13
6.26
5.43
4.8
4.44
4.38
4.51
4.59
4.35
3.56
2.13
0.11
-2.34
-5.0
-7.66
-10.05
-11.91
-12.86
-12.55
-10.76
-7.54
-3.24
1.53
6.09
9.92
12.74
14.59
15.68
16.36
16.91
17.49
18.11
18.65
18.9
18.63
17.6
15.74
13.11
9.98
6.75
3.9
1.84
0.79
0.66
1.08
1.48
1.24
-0.08
-2.62
-6.26
-10.55
-14.93
-18.75
-21.43
-22.58
-22.07
-20.19
-17.55
-14.95
-13.07
-12.25
-12.45
-13.26
-14.23
-15.06
-15.66
-16.12
-16.53
-16.86
-17.0
-16.86
-16.46
-15.95
-15.53
-15.36
-15.44
-15.72
-16.07
-16.41
-16.69
-16.84
-16.79
-16.38
-15.42
-13.72
-11.15
-7.66
-3.36
1.54
6.71
11.8
16.53
20.73
24.34
27.42
30.01
32.17
33.89
35.11
35.73
35.6
34.63
32.8
30.2
27.07
23.68
20.34
17.28
14.69
12.68
11.3
10.49
10.02
9.59
8.85
7.61
5.92
4.08
2.55
1.75
1.94
3.08
4.85
6.76
8.23
8.73
7.86
5.57
2.15
-1.77
-5.41
-8.1
-9.52
-9.81
-9.48
-9.21
-9.6
-10.93
-13.17
-16.01
-19.04
-21.89
-24.29
-25.98
-26.79
-26.56
-25.27
-23.09
-20.31
-17.31
-14.31
-11.32
-8.12
-4.43
-0.06
4.92
10.21
15.34
19.86
23.42
25.9
27.36
27.99
27.98
27.46
26.49
25.01
22.96
20.34
17.28
14.03
10.91
8.23
6.16
4.69
3.67
2.87
1.99
0.83
-0.66
-2.36
-3.97
-5.21
-5.89
-6.09
-6.04
-6.12
-6.63
-7.62
-8.83
-9.78
-10.02
-9.31
-7.73
-5.64
-3.47
-1.52
0.13
1.55
2.84
3.94
4.6
4.41
2.96
0.05
-4.26
-9.53
-15.13
-20.27
-24.26
-26.57
-26.97
-25.5
-22.44
-18.24
-13.43
-8.55
-4.03
-0.07
3.27
6.17
8.83
11.38
13.83
16.05
17.84
19.04
19.53
19.24
18.15
16.31
13.9
11.21
8.64
6.5
4.93
3.83
2.91
1.85
0.36
-1.68
-4.26
-7.27
-10.56
-13.88
-16.94
-19.39
-20.85
-21.0
-19.72
-17.14
-13.6
-9.58
-5.45
-1.38
2.66
6.82
11.19
15.66
19.95
23.66
26.51
28.31
29.05
28.77
27.47
25.08
21.52
16.79
11.08
4.83
-1.4
-7.09
-11.88
-15.71
-18.73
-21.13
-23.03
-24.37
-25.01
-24.85
-23.87
-22.19
-20.0
-17.46
-14.63
-11.54
-8.21
-4.7
-1.18
2.13
4.99
7.15
8.46
8.85
8.39
7.25
5.65
3.85
2.07
0.47
-0.85
-1.86
-2.62
-3.22
-3.78
-4.4
-5.12
-5.88
-6.58
-7.07
-7.24
-7.09
-6.7
-6.28
-6.01
-6.07
-6.5
-7.28
-8.33
-9.57
-10.89
-12.14
-13.12
-13.51
-13.05
-11.62
-9.33
-6.55
-3.71
-1.25
0.59
1.69
2.04
1.65
0.52
-1.36
-3.9
-6.93
-10.2
-13.46
-16.48
-19.04
-20.88
-21.69
-21.11
-18.97
-15.31
-10.45
-4.86
0.96
6.64
11.94
16.72
20.83
24.07
26.27
27.39
27.54
26.98
26.07
25.06
24.04
22.98
21.78
20.36
18.68
16.75
14.48
11.78
8.5
4.6
0.23
-4.3
-8.57
-12.23
-15.05
-16.98
-18.08
-18.41
-18.0
-16.86
-15.1
-13.02
-11.09
-9.91
-9.99
-11.57
-14.44
-18.01
-21.53
-24.32
-26.07
-26.82
-26.96
-26.93
-27.0
-27.22
-27.47
-27.54
-27.29
-26.64
-25.48
-23.64
-20.87
-16.96
-11.9
-5.97
0.33
