2013-02-24 09:51:45
64.0
-0.0
-0.0
-0.0
-0.0
-0.0
-0.0
-0.0
-0.0
-0.0
-0.0
0.0
0.01
0.01
-0.0
-0.03
-0.05
-0.05
0.0
0.13
0.36
0.66
1.01
1.37
1.72
2.06
2.4
2.79
3.24
3.8
4.42
5.06
5.66
6.2
6.68
7.15
7.68
8.31
9.14
10.09
11.04
11.88
12.56
13.14
13.76
14.65
15.96
17.91
20.32
22.9
25.38
27.58
29.57
31.68
34.32
37.81
42.54
48.15
54.1
59.83
64.97
69.58
74.14
79.34
85.71
93.76
103.0
112.62
121.73
129.77
136.75
143.3
150.75
157.77
166.64
177.95
191.79
206.97
220.57
228.25
225.36
208.53
176.87
132.76
80.05
23.07
-34.94
-92.44
-149.16
-205.23
-260.37
-313.74
-363.87
-409.83
-450.91
-486.5
-515.74
-537.23
-549.22
-549.96
-538.37
-514.21
-478.67
-433.88
-382.45
-327.02
-269.84
-212.63
-156.66
-102.95
-52.37
-5.9
35.58
71.43
101.35
125.5
144.38
158.69
169.15
176.37
180.75
182.57
182.07
179.51
175.23
169.65
163.18
156.15
148.81
141.3
133.69
126.02
118.33
110.69
103.16
95.8
88.68
81.83
75.25
68.95
62.95
57.25
51.86
46.78
42.03
37.59
33.45
29.61
26.07
22.81
19.83
17.11
14.67
12.48
10.54
8.83
7.35
6.07
4.97
4.05
3.27
2.62
2.09
1.65
1.3
1.01
0.78
0.6
0.47
0.38
0.32
0.28
0.23
0.16
0.06
-0.04
-0.13
-0.18
-0.19
-0.16
-0.1
-0.05
-0.05
-0.09
-0.16
-0.22
-0.25
-0.21
-0.13
-0.03
0.03
-0.01
-0.16
-0.36
-0.55
-0.62
-0.54
-0.33
-0.09
0.03
-0.09
-0.47
-1.01
-1.49
-1.72
-1.57
-1.1
-0.54
-0.21
-0.38
-1.09
-2.14
-3.12
-3.61
-3.38
-2.53
-1.46
-0.74
-0.83
-1.82
-3.4
-4.94
-5.82
-5.67
-4.57
-2.99
-1.54
-0.81
-1.21
-3.02
-6.21
-10.26
-13.9
-15.28
-12.6
-4.98
6.72
19.98
31.54
38.63
40.09
36.68
30.41
23.44
17.21
12.04
7.6
3.46
-0.43
-3.71
-5.93
-6.89
-6.76
-5.98
-5.08
-4.43
-4.12
-4.05
-4.02
-3.86
-3.57
-3.26
-3.15
-3.42
-4.14
-5.15
-6.13
-6.68
-6.49
-5.5
-3.92
-2.2
-0.85
-0.23
-0.38
-1.14
-2.21
-3.37
-4.46
-5.35
-5.89
-5.82
-4.88
-2.99
-0.26
2.86
5.84
8.16
9.57
10.04
9.81
9.33
8.99
9.07
9.55
10.13
10.35
9.83
8.46
6.47
4.31
2.49
1.5
1.58
2.63
4.27
6.02
7.38
8.0
7.66
6.4
4.47
2.25
0.21
-1.28
-2.01
-2.08
-1.77
-1.56
-1.9
-3.08
-5.12
-7.71
-10.34
-12.49
-13.88
-14.55
-14.86
-15.31
-16.37
-18.27
-20.92
-23.8
-26.13
-27.05
-25.84
-22.33
-16.89
-10.44
-4.09
1.25
5.11
7.57
8.97
9.72
10.09
10.22
10.22
10.29
10.62
11.28
12.07
12.62
12.54
11.66
10.23
8.75
7.77
7.59
8.15
9.07
9.9
10.26
9.97
8.97
7.29
5.06
2.51
0.01
-2.03
-3.4
-4.14
-4.66
-5.44
-6.86
-8.94
-11.42
-13.93
-16.25
-18.34
-20.29
-22.05
-23.28
-23.49
-22.22
-19.32
-15.06
-10.06
-5.0
-0.35
3.69
7.13
10.05
12.4
14.01
14.67
14.27
12.91
10.86
8.61
6.62
5.29
4.8
5.06
5.78
6.53
7.0
7.06
6.81
6.47
6.25
6.14
5.92
5.26
3.87
1.67
-1.12
-4.06
-6.66
-8.52
-9.54
-9.92
-10.15
-10.86
-12.51
-15.24
-18.74
-22.3
-25.08
-26.31
-25.53
-22.64
-17.89
-11.84
-5.2
1.23
6.75
10.91
13.63
15.13
15.8
16.0
15.94
15.73
15.43
15.09
14.8
14.55
14.23
13.64
12.74
11.69
10.81
10.48
10.88
11.87
13.06
13.89
13.92
12.91
10.87
8.06
4.84
1.67
-1.03
-2.97
-4.06
-4.51
-4.69
-5.04
-5.9
-7.35
-9.36
-11.75
-14.43
-17.35
-20.39
-23.31
-25.65
-26.9
-26.61
-24.7
-21.4
-17.16
-12.45
-7.62
-2.94
1.35
4.94
7.52
8.91
9.25
8.94
8.49
8.32
8.59
9.2
9.93
10.57
11.03
11.35
11.62
11.96
12.46
13.08
13.66
13.8
12.99
10.75
6.95
1.97
-3.25
-7.57
-10.03
-10.27
-8.71
-6.32
-4.38
-3.93
-5.57
-9.26
-14.41
-20.13
-25.44
-29.61
-32.24
-33.31
-32.99
-31.49
-28.92
-25.29
-20.74
-15.55
-10.17
-5.05
-0.37
3.95
8.04
11.86
14.98
16.77
16.71
14.85
11.92
9.13
7.65
8.18
10.67
14.47
18.62
22.25
24.74
25.82
25.47
23.95
21.62
18.97
16.38
14.09
12.08
10.14
8.02
5.55
2.69
-0.44
-3.63
-6.64
-9.23
-11.2
-12.4
-12.86
-12.82
-12.79
-13.37
-15.05
-17.88
-21.33
-24.32
-25.6
-24.15
-19.65
-12.61
-4.28
3.77
10.23
14.39
16.4
17.08
17.58
18.95
21.71
25.65
29.81
32.89
33.73
31.83
27.6
22.27
17.44
14.48
14.1
16.04
19.22
22.17
23.55
22.64
19.54
15.03
10.27
6.35
3.94
3.14
3.53
4.39
4.98
4.71
3.27
0.69
-2.77
-6.71
-10.66
-14.25
-17.17
-19.27
-20.54
-21.16
-21.43
-21.67
-21.99
-22.2
-21.86
-20.52
-17.91
-14.09
-9.5
-4.74
-0.37
3.19
5.73
7.27
7.92
7.91
7.52
6.97
6.43
5.97
5.63
5.38
5.23
5.18
5.11
4.92
4.58
4.16
3.91
4.05
4.67
5.6
6.45
6.74
6.12
4.54
2.3
-0.07
-2.02
-3.23
-3.7
-3.81
-4.11
-5.04
-6.76
-9.09
-11.61
-13.96
-15.93
-17.51
-18.72
-19.49
-19.57
-18.65
-16.56
-13.39
-9.48
-5.3
-1.27
2.4
5.64
8.45
10.8
12.59
13.72
14.15
13.93
13.2
12.13
10.91
9.76
8.89
8.49
8.62
9.18
9.92
10.47
10.5
9.81
8.4
6.48
4.39
2.48
1.01
0.06
-0.49
-0.9
-1.38
-2.03
-2.77
-3.44
-4.0
-4.62
-5.62
-7.34
-9.86
-12.95
-16.15
-18.93
-20.9
-21.87
-21.8
-20.75
-18.76
-15.87
-12.22
-8.04
-3.63
0.65
4.51
7.8
10.43
12.43
13.79
14.46
14.36
13.47
11.93
10.1
8.48
7.5
7.39
8.08
9.29
10.65
11.87
12.71
13.03
12.74
11.89
10.61
9.18
7.82
6.6
5.35
3.76
1.62
-1.04
-3.93
-6.57
-8.57
-9.72
-10.06
-9.9
-9.68
-9.92
-11.06
-13.23
-16.18
-19.17
-21.23
-21.5
-19.59
-15.69
-10.52
-5.02
-0.05
3.83
6.4
7.7
7.98
7.51
6.63
5.63
4.76
4.16
3.85
3.71
3.57
3.23
2.61
1.81
1.09
0.75
1.01
1.83
2.9
3.82
4.23
4.02
3.31
2.37
1.41
0.48
-0.55
-1.84
-3.41
-5.13
-6.72
-8.0
-8.96
-9.86
-10.99
-12.65
-14.85
-17.39
-19.94
-22.04
-23.27
-23.28
-21.87
-19.06
-15.16
-10.72
-6.37
-2.62
0.35
2.63
4.44
5.96
7.14
7.81
7.82
7.17
6.2
5.35
5.04
5.37
6.08
6.75
7.0
6.82
6.49
6.42
6.81
7.48
7.9
7.46
5.82
3.17
0.06
-2.78
-4.83
-5.96
-6.45
-6.81
-7.55
-9.04
-11.35
-14.36
-17.71
-21.12
-24.34
-27.28
-29.97
-32.5
-35.02
-37.62
-40.35
-43.11
-45.63
-47.44
-48.07
-47.14
-44.61
-40.73
-35.99
-30.8
-25.4
-19.75
-13.74
-7.27
-0.4
6.61
13.35
19.39
24.4
28.29
31.3
33.87
36.4
39.08
41.68
43.73
44.71
44.35
42.76
40.32
37.49
34.57
31.69
28.74
25.65
22.32
18.81
15.26
11.86
8.82
6.27
4.2
2.42
0.69
-1.27
-3.59
-6.32
-9.37
-12.66
-16.04
-19.25
-21.82
-23.22
-22.95
-20.79
-16.99
-12.15
-7.12
-2.59
1.03
3.74
5.76
7.37
8.69
9.63
9.95
9.54
8.47
7.15
6.07
5.61
5.88
6.67
7.65
8.56
9.36
10.13
10.94
11.69
12.04
11.69
10.44
8.46
6.15
3.96
2.18
0.79
-0.39
-1.55
-2.74
-3.86
-4.73
-5.26
-5.63
-6.12
-7.06
-8.6
-10.66
-13.04
-15.5
-17.86
-20.0
-21.74
-22.75
-22.62
-21.05
-18.02
-13.89
-9.32
-5.01
-1.44
1.25
3.2
4.69
6.0
7.25
8.42
9.42
10.14
10.53
10.59
10.4
10.06
9.73
9.54
9.6
9.94
10.5
11.15
11.7
11.99
11.9
11.39
10.46
9.18
7.6
5.78
3.79
1.72
-0.29
-2.07
-3.54
-4.7
-5.69
-6.77
-8.21
-10.22
-12.87
-16.05
-19.55
-23.0
-25.98
-27.96
-28.51
-27.3
-24.27
-19.72
-14.18
-8.3
-2.7
2.2
6.12
8.97
10.72
11.46
11.32
10.54
9.43
8.34
7.66
7.67
8.51
10.05
11.92
13.62
14.67
14.84
14.18
13.0
11.67
10.44
9.35
8.26
6.96
5.28
3.24
0.98
-1.24
-3.21
-4.81
-6.14
-7.42
-8.97
-11.03
-13.73
-17.03
-20.73
-24.52
-27.95
-30.52
-31.7
-31.08
-28.53
-24.23
-18.65
-12.45
-6.31
-0.78
3.81
7.27
9.62
11.04
11.91
12.65
13.62
14.88
16.23
17.28
17.67
17.29
16.36
15.36
14.78
14.87
15.55
16.42
16.95
16.77
15.76
14.08
12.1
10.11
8.32
6.74
5.27
3.81
2.31
0.81
-0.68
-2.23
-3.97
-6.07
-8.6
-11.53
-14.7
-17.95
-21.18
-24.39
-27.57
-30.52
-32.83
-33.86
-33.04
-30.11
-25.27
-19.17
-12.62
-6.35
-0.8
3.9
7.81
11.04
13.66
15.7
17.16
18.08
18.5
18.48
18.18
17.8
17.58
17.69
18.16
18.85
19.5
19.96
20.21
20.33
20.35
20.21
19.67
18.51
16.73
14.57
12.43
10.69
9.43
8.41
7.23
5.55
3.33
0.8
-1.68
-3.89
-5.87
-7.88
-10.24
-13.15
-16.58
-20.39
-24.34
-28.15
-31.45
-33.75
-34.49
-33.24
-29.91
-24.85
-18.75
-12.41
-6.46
-1.19
3.46
7.59
11.27
14.32
16.41
17.28
16.88
15.49
13.71
12.22
11.59
12.03
13.38
15.17
16.91
18.27
19.11
19.47
19.34
18.68
17.41
15.52
13.15
10.59
8.15
6.01
4.19
2.52
0.78
-1.15
-3.33
-5.68
-8.13
-10.65
-13.24
-15.94
-18.83
-21.97
-25.33
-28.8
-32.02
-34.43
-35.33
-34.07
-30.26
-23.94
-15.71
-6.62
2.04
9.22
14.25
17.17
18.48
18.99
19.33
19.8
20.31
20.53
20.26
19.5
18.57
17.88
17.72
18.18
19.07
20.08
20.87
21.22
21.04
20.4
19.43
18.23
16.81
15.04
12.8
10.08
7.1
4.19
1.65
-0.46
-2.38
-4.51
-7.15
-10.35
-13.89
-17.42
-20.69
-23.56
-26.03
-27.98
-29.13
-29.06
-27.36
-23.85
-18.72
-12.47
-5.84
0.41
5.66
9.53
11.98
13.24
13.7
13.77
13.72
13.72
13.81
14.0
14.32
14.84
15.55
16.41
17.25
17.84
17.99
17.6
16.7
15.44
13.94
12.26
10.38
8.24
5.84
3.28
0.79
-1.35
-2.95
-3.99
-4.68
-5.3
-6.17
-7.43
-9.09
-11.1
-13.47
-16.32
-19.82
-23.9
-28.11
-31.61
-33.32
-32.39
-28.61
-22.49
-15.13
-7.68
-0.98
4.67
9.41
13.46
16.87
19.44
20.85
20.93
19.79
17.87
15.72
13.81
12.45
11.73
11.6
11.93
12.54
13.21
13.75
13.99
13.92
13.58
13.06
12.36
11.4
10.03
8.22
6.08
3.87
1.85
0.07
-1.6
-3.46
-5.76
-8.56
-11.76
-15.19
-18.78
-22.5
-26.26
-29.71
-32.16
-32.79
-30.9
-26.3
-19.47
-11.47
-3.6
3.1
8.11
11.52
13.77
15.36
16.55
17.29
17.41
16.84
15.83
14.85
14.41
14.76
15.76
16.97
17.91
18.29
18.12
17.67
17.21
16.92
16.76
16.57
16.14
15.31
13.97
12.11
9.76
7.03
4.1
1.23
-1.35
-3.43
-5.0
-6.19
-7.27
-8.59
-10.39
-12.82
-15.89
-19.53
-23.57
-27.7
-31.44
-34.09
-34.99
-33.63
-30.02
-24.58
-18.12
-11.48
-5.29
0.05
4.49
8.09
10.97
13.27
15.11
16.57
17.65
18.34
18.59
18.42
17.9
17.13
16.21
15.26
14.4
13.86
13.82
14.39
15.37
16.35
16.71
15.98
14.07
11.32
8.46
6.22
5.04
4.87
5.21
5.35
4.74
3.13
0.74
-2.04
-4.77
-7.21
-9.37
-11.38
-13.43
-15.67
-18.27
-21.41
-25.17
-29.35
-33.42
-36.61
-38.17
-37.66
-35.16
-31.19
-26.51
-21.78
-17.4
-13.42
-9.76
-6.29
-2.99
0.04
2.47
3.9
3.88
2.14
-1.18
-5.37
-9.19
-11.29
-10.76
-7.7
-3.31
0.43
1.63
-0.82
-6.73
-14.83
-23.39
-30.94
-36.99
-41.98
-46.96
-53.1
-61.14
-71.15
-82.56
-94.46
-105.96
-116.4
-125.66
-134.07
-142.39
-151.69
-163.29
-178.38
-197.37
-219.08
-240.27
-255.91
-260.53
-250.0
-223.05
-181.83
-130.91
-75.42
-19.03
37.12
94.12
153.55
215.66
277.79
334.36
378.06
401.91
401.11
374.15
323.18
253.65
173.65
92.95
21.93
-30.05
-56.3
-54.27
-26.09
21.85
79.98
137.54
184.62
214.4
224.67
217.87
199.31
174.27
145.47
112.61
74.49
32.21
-8.76
-39.82
-53.71
-48.86
-31.44
-12.83
-4.09
-10.84
-31.36
-58.85
-85.87
-107.92
-124.17
-135.48
-141.71
-140.61
-129.02
-105.67
-73.36
-38.77
-10.23
6.06
8.65
1.39
-8.65
-14.46
-12.19
-2.39
10.96
22.95
30.49
33.44
34.22
35.79
39.77
45.46
50.44
52.2
49.78
44.2
37.66
32.06
27.78
23.55
17.44
8.32
-3.11
-14.5
-22.9
-26.14
-23.53
-15.72
-4.17
9.58
24.47
40.17
56.88
74.86
94.01
113.61
132.44
148.59
159.87
164.41
161.63
152.58
139.59
125.59
113.3
104.8
100.71
100.13
100.86
100.31
95.93
85.2
65.99
37.58
2.35
-34.48
-65.63
-84.06
-85.58
-70.99
-46.24
-21.0
-5.66
-4.96
-14.91
-25.93
-30.39
-26.53
-17.49
-7.95
-1.05
1.95
3.19
4.12
4.81
4.04
0.31
-7.37
-19.36
-35.85
-57.52
-80.91
-105.14
-131.05
-160.6
-195.08
-233.25
-270.46
-299.68
-313.97
-309.35
-287.82
-256.14
-222.87
-194.55
-173.47
-158.16
-145.9
-135.15
-126.27
-121.08
-120.36
-122.69
-125.05
-124.59
-120.53
-114.43
-109.03
-106.45
-107.2
-109.78
-111.74
-110.86
-106.1
-98.03
-88.74
-81.57
-80.17
-87.58
-104.57
-128.73
-154.59
-175.02
-183.47
-176.05
-152.6
-116.1
-71.27
-22.81
25.43
70.49
109.86
141.23
163.06
175.24
179.68
180.0
180.38
184.22
192.79
205.02
218.12
228.87
235.04
236.08
233.01
227.63
221.57
215.68
210.13
205.0
200.67
197.96
197.58
199.54
202.95
206.47
209.05
210.56
211.75
213.53
216.3
219.61
222.57
224.65
226.45
229.66
236.34
247.69
262.99
279.36
292.57
298.6
295.26
283.17
265.34
245.77
227.47
211.14
195.03
176.09
151.67
120.92
84.86
45.57
4.85
-36.78
-80.24
-127.25
-179.54
-238.37
-304.05
-375.55
-449.7
-520.73
-580.68
-621.2
-636.27
-624.59
-590.3
-541.52
-487.27
-434.46
-386.29
-342.68
-302.01
-263.13
-226.29
-193.05
-165.25
-144.06
-129.41
-120.03
-113.9
-108.78
-102.97
-95.66
-87.08
-78.18
-69.95
-62.75
-56.22
-49.53
-42.15
-34.56
-28.0
-23.59
-21.09
-18.34
-11.79
1.83
23.74
52.32
83.78
113.97
140.11
161.38
178.29
191.31
200.08
203.51
201.0
193.52
184.02
176.35
173.09
173.85
175.13
172.27
162.11
144.92
124.24
104.86
89.93
79.46
71.12
62.33
52.47
43.36
37.58
35.95
36.3
34.4
26.49
11.86
-6.58
-23.85
-35.56
-39.94
-38.03
-32.43
-25.37
-17.47
-7.89
4.47
19.51
35.33
48.73
56.58
57.04
50.28
37.97
22.28
5.01
-12.82
-30.55
-47.41
-62.13
-73.29
-79.84
-81.62
-79.47
-74.69
-68.51
-61.7
-54.53
-47.09
-39.63
-32.61
-26.61
-22.07
-19.13
-17.54
-16.74
-15.96
-14.43
-11.59
-7.24
-1.64
4.55
10.55
15.75
19.93
23.16
25.54
26.89
26.82
25.0
21.5
17.02
12.7
9.62
8.31
8.58
9.74
11.15
12.52
13.99
15.75
17.74
19.47
20.26
19.69
17.87
15.39
13.08
11.54
10.96
11.05
11.29
11.18
10.41
8.86
6.56
3.6
0.14
-3.67
-7.55
-11.08
-13.72
-14.85
-13.92
-10.68
-5.25
1.78
9.5
16.87
23.0
27.28
29.56
30.03
29.16
27.54
25.79
24.39
23.71
23.8
24.45
25.17
25.33
24.41
22.29
19.31
16.23
13.83
12.53
12.11
11.87
11.0
9.01
6.03
2.61
-0.59
-3.14
-5.13
-6.96
-9.07
-11.65
-14.49
-17.08
-18.86
-19.49
-18.96
-17.57
-15.69
-13.64
-11.54
-9.38
-7.12
-4.78
-2.5
-0.45
1.23
2.48
3.36
4.03
4.67
5.57
7.0
9.11
11.69
14.15
15.61
15.26
12.8
8.69
4.06
0.27
-1.64
-1.39
0.45
2.75
4.35
4.57
3.47
1.77
0.45
0.27
1.38
3.23
4.81
5.09
3.49
0.2
-3.93
-7.63
-9.76
-9.66
-7.4
-3.64
0.61
4.43
7.18
8.7
9.15
8.92
8.35
7.62
6.7
5.49
3.85
1.81
-0.43
-2.55
-4.15
-4.96
-4.95
-4.34
-3.6
-3.14
-3.19
-3.65
-4.13
-4.22
-3.75
-2.87
-2.02
-1.69
-2.19
-3.49
-5.34
-7.47
-9.71
-12.12
-14.72
-17.44
-20.04
-22.2
-23.69
-24.5
-24.85
-25.11
-25.66
-26.71
-28.19
-29.66
-30.41
-29.6
-26.57
-21.12
-13.7
-5.36
2.56
8.82
12.69
14.17
13.87
12.66
11.3
10.12
9.07
7.86
6.24
4.31
2.34
0.67
-0.62
-1.76
-3.17
-5.07
-7.25
-9.1
-9.88
-9.16
-7.15
-4.61
-2.54
-1.64
-2.03
-3.22
-4.43
-4.9
-4.3
-2.69
-0.52
1.68
3.4
4.35
4.43
3.75
2.59
1.33
0.36
0.03
0.47
1.55
2.91
4.04
4.52
4.24
3.43
2.52
1.86
1.49
1.03
-0.17
-2.79
-7.23
-13.36
-20.34
-26.6
-30.06
-28.83
-22.07
-10.76
2.48
14.25
21.91
24.62
23.5
20.63
17.64
14.85
11.44
6.45
-0.22
-7.45
-13.53
-17.07
-17.77
-16.49
-14.72
-14.0
-15.38
-19.21
-25.04
-31.81
-38.09
-42.64
-45.05
-46.0
-47.14
-50.33
-56.75
-66.33
-77.75
-89.1
-98.86
-106.58
-113.06
-119.88
-128.54
-139.72
-152.88
-166.64
-179.47
-190.33
-198.67
-203.9
-205.0
-200.58
-189.87
-173.7
-154.55
-135.54
-118.75
-104.13
-89.68
-72.76
-51.79
-27.25
-1.14
24.5
49.26
74.97
104.91
142.01
187.02
237.66
288.24
330.99
358.52
366.53
355.53
330.59
299.22
268.52
243.78
226.42
214.66
205.63
197.45
189.9
183.53
178.24
172.76
166.97
160.09
151.26
140.2
128.22
117.75
111.13
109.22
111.41
118.99
131.64
147.39
163.52
178.51
192.48
206.75
222.48
240.52
264.57
295.17
328.48
357.54
375.9
380.16
370.99
351.98
302.59
217.66
109.23
0.62
-89.57
-155.67
-201.75
-232.94
-257.45
-278.67
-293.02
-298.27
-296.58
-294.94
-298.44
-312.07
-338.88
-379.65
-431.16
-483.28
-523.9
-542.3
-532.41
-494.65
-437.07
-373.45
-319.68
-287.64
-279.5
-289.34
-306.24
-318.61
-317.76
-300.48
-269.29
-231.37
-195.39
-167.69
-151.14
-144.32
-142.21
-138.32
-127.33
-107.11
-79.42
-48.91
-21.11
-1.29
6.67
1.07
-17.13
-44.35
-75.18
-103.87
-126.0
-139.54
-145.0
-144.34
-139.84
-133.44
-126.66
-120.72
-116.57
-114.42
-113.27
-110.96
-104.96
-93.62
-77.07
-57.08
-36.19
-16.4
1.74
19.2
37.8
59.11
83.72
110.89
139.0
166.29
191.64
214.9
237.17
260.3
286.26
316.15
349.28
382.86
412.37
432.87
440.62
434.52
416.39
390.24
360.75
331.74
305.29
281.85
261.03
242.3
225.39
210.19
196.37
183.17
169.64
155.12
139.64
124.05
109.7
97.84
89.04
82.92
78.34
73.86
68.23
60.82
51.69
41.43
30.93
21.06
12.48
5.51
0.13
-3.94
-7.05
-9.5
-11.52
-13.24
-14.74
-16.11
-17.42
-18.71
-19.99
-21.18
-22.24
-23.15
-23.95
-24.79
-25.78
-27.0
-28.41
-29.86
-31.13
-32.02
-32.47
-32.53
-32.44
-32.49
-32.91
-33.77
-34.86
-35.85
-36.31
-35.92
-34.54
-32.19
-29.08
-25.48
-21.69
-17.99
-14.64
-11.85
-9.69
-8.18
-7.24
-6.8
-6.84
-7.35
-8.25
-9.39
-10.51
-11.34
-11.74
-11.75
-11.56
-11.35
-11.29
-11.43
-11.75
-12.17
-12.62
-13.02
-13.32
-13.53
-13.7
-14.0
-14.53
-15.35
-16.39
-17.49
-18.52
-19.38
-20.1
-20.75
-21.41
-22.16
-23.07
-24.19
-25.48
-26.8
-27.86
-28.31
-27.84
-26.31
-23.8
-20.57
-16.98
-13.38
-10.07
-7.28
-5.15
-3.74
-3.04
-2.93
-3.26
-3.88
-4.64
-5.41
-6.06
-6.49
-6.64
-6.5
-6.14
-5.68
-5.23
-4.86
-4.55
-4.22
-3.79
-3.21
-2.57
-2.03
-1.79
-2.04
-2.79
-3.94
-5.31
-6.76
-8.28
-10.0
-12.18
-15.07
-18.85
-23.59
-29.27
-35.75
-42.73
-49.67
-55.81
-60.29
-62.38
-61.63
-58.03
-51.94
-43.93
-34.66
-24.75
-14.82
-5.46
2.75
9.36
14.13
17.11
18.62
19.16
19.2
19.02
18.68
18.16
17.38
16.32
15.0
13.42
11.65
9.77
7.82
5.85
3.87
1.91
-0.11
-2.34
-4.95
-7.89
-11.03
-14.35
-17.91
-21.74
-25.69
-29.38
-32.29
-33.93
-33.61
-31.3
-27.91
-24.79
-22.99
-22.54
-22.55
-21.62
-18.64
-12.12
-1.83
11.05
24.52
36.96
47.85
57.57
66.83
76.16
87.29
100.95
116.1
130.53
142.13
150.09
154.71
157.1
158.69
163.1
172.96
188.53
207.64
226.85
242.93
253.01
255.26
235.73
189.91
125.74
60.01
7.22
-27.4
-45.88
-53.41
-54.55
-52.23
-45.92
-35.29
-22.62
-10.7
-1.85
3.44
5.67
6.2
6.15
7.64
11.28
15.56
17.35
12.97
4.17
-8.1
-22.65
-38.63
-54.7
-70.54
-87.29
-106.97
-131.18
-159.62
-190.39
-219.89
-244.34
-260.97
-269.81
-273.59
-276.35
-281.3
-289.35
-299.8
-310.84
-320.69
-327.76
-330.37
-326.25
-312.51
-286.71
-248.19
-199.54
-146.1
-94.55
-50.94
-19.03
0.47
9.5
11.52
10.35
9.11
10.22
15.43
25.82
41.48
60.88
80.4
94.9
99.76
93.22
78.1
61.1
49.93
49.53
59.7
75.31
89.19
95.81
93.71
85.46
75.59
67.91
63.95
62.98
63.28
63.47
63.21
62.91
63.3
64.81
67.43
70.63
73.6
75.44
75.59
74.1
71.77
69.9
69.71
71.57
74.73
77.51
78.17
75.81
70.81
64.36
57.39
49.45
38.61
22.49
0.05
-27.0
-54.15
-75.65
-86.96
-86.68
-77.09
-62.87
-48.93
-38.51
-32.51
-30.08
-29.93
-31.39
-34.56
-39.75
-46.55
-53.31
-57.54
-56.84
-50.16
-38.49
-24.68
-12.43
-4.83
-3.29
-7.18
-14.46
-22.75
-30.31
-36.52
-41.58
-45.86
-49.36
-51.54
-51.75
-49.76
-46.19
-42.43
-40.01
-39.9
-41.9
-44.61
-45.99
-44.22
-38.53
-29.56
-19.02
-8.99
-1.1
3.93
6.4
7.17
7.19
7.08
7.01
6.83
6.35
5.5
4.49
3.7
3.7
5.07
8.12
12.76
18.32
23.71
27.78
29.8
29.76
28.3
26.29
24.39
22.67
20.73
18.05
14.34
9.76
4.73
-0.3
-5.14
-9.83
-14.55
-19.31
-23.88
-27.72
-30.15
-30.51
-28.38
-23.67
-16.71
-8.19
0.98
9.86
17.72
24.13
28.98
32.41
34.63
35.91
36.4
36.22
35.42
34.07
32.31
30.42
28.77
27.76
27.66
28.43
29.7
30.87
31.35
30.84
29.48
27.77
26.33
25.5
25.19
24.91
24.04
22.17
19.31
15.87
12.41
9.39
6.93
4.86
2.84
0.61
-1.92
-4.68
-7.6
-10.64
-13.88
-17.32
-20.73
-23.59
-25.09
-24.54
-21.58
-16.49
-10.12
-3.58
2.2
6.83
10.4
13.41
16.23
18.98
21.43
23.24
24.2
24.41
24.2
24.0
24.1
24.62
25.47
26.49
27.45
28.19
28.61
28.7
28.54
28.2
27.72
27.0
25.81
23.99
21.46
18.34
14.88
11.29
7.69
4.05
0.28
-3.66
-7.67
-11.56
-15.16
-18.44
-21.54
-24.66
-27.92
-31.16
-33.84
-35.23
-34.62
-31.64
-26.43
-19.65
-12.19
-5.02
1.17
6.09
9.8
12.61
14.9
16.91
18.69
20.01
20.53
20.04
18.64
16.89
15.69
15.81
17.48
20.16
22.7
23.9
23.13
20.6
17.32
14.48
12.96
13.02
14.4
16.54
18.49
18.78
15.33
6.17
-9.39
-29.63
-50.45
-66.67
-74.3
-72.43
-63.51
-51.9
-41.62
-34.59
-30.38
-27.37
-24.28
-20.98
-18.15
-16.26
-14.81
-12.49
-8.01
-1.14
7.02
14.51
19.45
20.85
18.98
15.01
10.5
6.67
4.17
3.05
3.07
4.02
5.93
8.97
13.25
18.6
24.48
30.06
34.38
36.49
35.58
31.19
23.64
14.28
5.58
0.58
1.76
9.9
23.52
39.32
53.43
62.91
66.68
65.42
60.8
54.37
47.07
39.19
30.87
22.47
14.65
8.14
3.37
0.24
-1.87
-3.95
-7.08
-11.96
-18.61
-26.17
-33.17
-38.0
-39.67
-38.22
-34.66
-30.46
-26.75
-23.94
-21.63
-19.11
-15.96
-12.37
-9.09
-6.84
-5.89
-5.66
-4.99
-2.64
2.06
8.89
16.84
24.47
30.54
34.42
36.23
36.56
36.06
35.13
33.72
31.62
28.62
24.84
20.69
16.72
13.3
10.46
7.92
5.29
2.33
-0.94
-4.21
-7.21
-9.83
-12.26
-14.85
-17.93
-21.67
-25.89
-30.17
-33.89
-36.37
-37.04
-35.58
-32.08
-27.03
-21.3
-15.84
-11.42
-8.35
-6.42
-5.05
-3.63
-1.87
0.08
1.64
2.23
1.59
0.08
-1.47
-2.07
-1.12
1.36
4.66
7.74
9.75
10.29
9.56
8.13
6.55
5.12
3.79
2.28
0.35
-2.12
-5.04
-8.23
-11.57
-15.04
-18.66
-22.36
-25.91
-28.92
-31.04
-32.24
-32.84
-33.5
-34.86
-37.18
-40.14
-42.89
-44.44
-44.11
-41.83
-38.14
-33.74
-29.12
-24.32
-18.95
-12.5
-4.7
4.37
14.35
24.66
34.69
43.8
51.31
56.63
59.4
59.65
57.79
54.51
50.5
46.3
42.24
38.49
35.11
32.07
29.19
26.18
22.83
19.14
15.36
11.92
9.11
6.96
5.19
3.38
1.28
-1.13
-3.62
-5.93
-7.95
-9.78
-11.64
-13.69
-16.0
-18.47
-21.01
-23.54
-26.0
-28.26
-29.97
-30.67
-29.82
-27.13
-22.68
-16.96
-10.75
-4.88
-0.1
3.03
4.19
3.34
0.84
-2.49
-5.59
-7.36
-7.14
-4.89
-1.19
3.07
7.05
10.25
12.55
14.04
14.87
15.15
14.95
14.35
13.46
12.39
11.16
9.71
7.97
5.88
3.48
0.91
-1.67
-4.06
-6.17
-7.96
-9.53
-10.96
-12.32
-13.59
-14.66
-15.51
-16.18
-16.87
-17.81
-19.19
-21.05
-23.3
-25.69
-27.87
-29.42
-29.89
-28.93
-26.4
-22.45
-17.54
-12.28
-7.25
-2.8
0.97
4.15
6.87
9.14
10.9
12.06
12.66
12.91
13.13
13.63
14.57
15.88
17.29
18.44
19.08
19.16
18.84
18.45
18.22
18.24
18.35
18.22
17.57
16.28
14.5
12.56
10.8
9.42
8.34
7.25
5.81
3.82
1.36
-1.2
-3.4
-4.92
-5.74
-6.16
-6.69
-7.77
-9.65
-12.27
-15.39
-18.7
-21.89
-24.64
-26.52
-27.02
-25.69
-22.35
-17.34
-11.45
-5.67
-0.84
2.73
5.31
7.52
9.94
12.76
15.57
17.58
17.97
16.35
12.95
8.68
4.69
2.0
1.1
1.82
3.57
5.61
7.35
8.56
9.24
9.4
9.03
7.98
6.17
3.72
0.93
-1.79
-4.14
-6.08
-7.78
-9.48
-11.23
-12.86
-13.93
-14.09
-13.26
-11.8
-10.47
-10.04
-11.01
-13.39
-16.77
-20.46
-23.79
-26.23
-27.41
-27.02
-24.79
-20.62
-14.79
-7.99
-1.16
4.81
9.41
12.68
14.99
16.83
18.47
19.93
21.04
21.66
21.79
21.62
21.42
21.45
21.84
22.49
23.11
23.35
22.96
21.93
20.47
18.94
17.5
16.16
14.72
12.99
10.89
8.49
5.89
3.08
-0.04
-3.6
-7.56
-11.71
-15.68
-19.08
-21.67
-23.36
-24.27
-24.61
-24.66
-24.73
-25.09
-25.95
-27.37
-29.22
-31.14
-32.6
-32.93
-31.51
-28.05
-22.7
-16.1
-9.17
-2.73
2.75
7.2
10.86
13.93
16.45
18.35
19.6
20.42
21.27
22.59
24.55
26.9
29.12
30.72
31.62
32.17
32.94
34.26
36.02
37.6
38.27
37.62
35.8
33.46
31.4
30.19
29.93
30.19
30.11
28.62
24.79
18.2
9.22
-0.95
-10.7
-18.59
-23.87
-26.77
-28.15
-28.94
-29.68
-30.34
-30.64
-30.43
-29.95
-29.67
-29.98
-30.88
-32.03
-32.96
-33.28
-32.74
-31.22
-28.59
-24.81
-20.09
-14.91
-9.96
-5.79
-2.57
0.05
2.64
5.61
8.87
11.86
13.92
14.7
14.46
13.92
13.92
14.94
16.97
19.5
21.63
22.35
20.73
16.18
8.69
-1.01
-11.45
-20.81
-27.46
-30.47
-29.96
-26.85
-22.5
-18.09
-14.29
-11.23
-8.72
-6.62
-4.95
-3.96
-3.88
-4.78
-6.49
-8.66
-10.97
-13.23
-15.42
-17.58
-19.61
-21.17
-21.73
-20.8
-18.17
-14.01
-8.92
-3.64
1.17
5.17
8.34
10.86
12.88
14.44
15.45
15.86
15.77
15.48
15.37
15.69
16.44
17.28
17.81
17.63
16.67
15.13
13.46
12.14
11.46
11.39
11.56
11.44
10.53
8.63
5.93
2.92
0.2
-1.81
-3.0
-3.69
-4.4
-5.69
-7.89
-11.09
-15.1
-19.53
-23.71
-26.81
-27.94
-26.58
-22.91
-18.02
-13.65
-11.42
-12.02
-14.71
-17.61
-18.57
-16.27
-10.8
-3.61
3.36
8.61
11.71
13.23
14.2
15.4
17.05
18.82
20.22
20.95
21.04
20.73
20.24
19.66
18.9
17.87
16.58
15.25
14.2
13.7
13.78
14.21
14.58
14.51
13.77
12.42
10.71
8.97
7.49
6.4
5.68
5.21
4.84
4.38
3.65
2.45
0.71
-1.41
-3.41
-4.58
-4.3
-2.41
0.54
3.44
5.02
4.39
1.42
-3.31
-8.81
-14.17
-18.91
-23.0
-26.71
-30.3
-33.74
-36.73
-38.74
-39.29
-38.08
-35.11
-30.72
-25.47
-20.0
-14.83
-10.25
-6.28
-2.79
0.42
3.43
6.19
8.56
10.38
11.58
12.19
12.39
12.41
12.52
12.85
13.43
14.13
14.77
15.2
15.41
15.52
15.74
16.14
16.66
17.01
16.85
15.91
14.12
11.7
9.02
6.51
4.45
2.94
1.83
0.88
-0.2
-1.53
-3.1
-4.74
-6.29
-7.65
-8.86
-10.1
-11.56
-13.38
-15.53
-17.91
-20.41
-23.04
-25.9
-28.98
-32.04
-34.38
-35.1
-33.38
-28.95
-22.38
-14.88
-7.82
-2.19
1.79
4.59
6.94
9.33
11.77
13.87
15.17
15.51
15.11
14.5
14.18
14.45
15.25
16.27
17.17
17.71
17.87
17.8
17.71
17.68
17.66
17.43
16.79
15.65
14.11
12.4
10.8
9.44
8.27
7.09
5.62
3.72
1.38
-1.19
-3.68
-5.85
-7.57
-8.93
-10.16
-11.53
-13.23
-15.26
-17.48
-19.76
-22.08
-24.58
-27.4
-30.5
-33.43
-35.4
-35.51
-33.16
-28.38
-21.81
-14.55
-7.65
-1.79
2.93
6.77
10.09
12.99
15.27
16.58
16.73
15.95
14.81
14.0
14.0
14.82
16.09
17.26
17.99
18.23
18.26
18.38
18.75
19.27
19.67
19.65
19.09
18.04
16.63
15.05
13.38
11.66
9.88
8.06
6.26
4.59
3.11
1.82
0.58
-0.79
-2.47
-4.52
-6.84
-9.2
-11.38
-13.23
-14.74
-16.03
-17.26
-18.64
-20.32
-22.52
-25.38
-28.84
-32.56
-35.77
-37.48
-36.84
-33.5
-27.8
-20.71
-13.37
-6.72
-1.21
3.15
6.61
9.36
11.44
12.83
13.55
13.77
13.73
13.64
13.56
13.5
13.43
13.45
13.7
14.35
15.42
16.77
18.11
19.09
19.44
19.05
18.03
16.69
15.39
14.38
13.69
13.12
12.35
11.09
9.33
7.27
5.24
3.47
1.95
0.46
-1.29
-3.46
-5.92
-8.4
-10.57
-12.28
-13.62
-14.88
-16.41
-18.4
-20.87
-23.7
-26.7
-29.66
-32.26
-34.09
-34.62
-33.32
-29.95
-24.67
-18.13
-11.25
-4.92
0.31
4.31
7.29
9.64
11.62
13.33
14.69
15.54
15.77
15.41
14.68
13.88
13.38
13.46
14.2
15.49
17.02
18.41
19.34
19.67
19.38
18.57
17.37
15.85
14.1
12.22
10.34
8.65
7.27
6.18
5.2
3.99
2.29
0.06
-2.48
-4.9
-6.87
-8.24
-9.2
-10.05
-11.11
-12.47
-14.1
-15.92
-17.96
-20.4
-23.41
-26.93
-30.58
-33.65
-35.4
-35.28
-33.13
-29.19
-23.91
-17.86
-11.57
-5.5
-0.02
4.55
8.06
10.51
12.04
12.9
13.25
13.23
12.91
12.4
11.92
11.71
11.99
12.85
14.12
15.5
16.64
17.31
17.47
17.23
16.7
15.97
14.99
13.61
11.74
9.42
6.93
4.68
3.04
2.13
1.7
1.22
0.14
-1.84
-4.59
-7.65
-10.48
-12.73
-14.36
-15.64
-16.96
-18.68
-21.04
-24.15
-27.91
-31.98
-35.76
-38.43
-39.19
-37.5
-33.34
-27.2
-19.97
-12.65
-6.1
-0.85
2.91
5.35
6.9
8.11
9.51
11.35
13.55
15.7
17.3
18.05
18.07
17.9
18.21
19.44
21.5
23.82
25.63
26.34
25.87
24.57
22.97
21.43
20.0
18.45
16.53
14.18
11.59
9.07
6.91
5.23
3.91
2.73
1.44
-0.17
-2.13
-4.36
-6.62
-8.69
-10.55
-12.3
-14.25
-16.57
-19.3
-22.25
-25.2
-28.04
-30.87
-33.8
-36.72
-39.1
-40.11
-38.96
-35.27
-29.31
-21.93
-14.2
-7.09
-1.19
3.35
6.69
9.13
10.95
12.28
13.17
13.63
13.74
13.73
13.89
14.5
15.68
17.28
18.98
20.39
21.27
21.61
21.62
21.51
21.37
21.13
20.56
19.5
17.92
15.98
13.94
11.99
10.2
8.43
6.53
4.35
1.93
-0.57
-2.92
-4.93
-6.6
-8.08
-9.67
-11.59
-13.93
-16.54
-19.16
-21.58
-23.81
-26.16
-29.05
-32.63
-36.59
-39.97
-41.59
-40.42
-36.13
-29.22
-20.82
-12.25
-4.6
1.61
6.37
10.01
12.91
15.29
17.17
18.42
18.93
18.76
18.18
17.61
17.47
17.95
18.97
20.25
21.4
22.21
22.66
22.89
23.06
23.2
23.13
22.58
21.3
19.26
16.62
13.7
10.87
8.37
6.3
4.6
3.11
1.61
-0.13
-2.31
-5.01
-8.14
-11.39
-14.37
-16.79
-18.59
-20.06
-21.67
-23.9
-26.97
-30.8
-34.94
-38.77
-41.56
-42.6
-41.35
-37.59
-31.57
-23.96
-15.75
-7.93
-1.2
4.19
8.41
11.79
14.64
17.03
18.87
19.98
20.37
20.26
20.11
20.39
21.34
22.91
24.7
26.26
27.28
27.77
28.0
28.33
28.9
29.56
29.91
29.52
28.13
25.77
22.79
19.62
16.64
14.05
11.76
9.61
7.33
4.85
2.14
-0.69
-3.51
-6.19
-8.63
-10.78
-12.66
-14.44
-16.42
-19.0
-22.51
-26.98
-32.07
-37.0
-40.72
-42.23
-40.8
-36.29
-29.29
-21.02
-13.02
-6.67
-2.76
-1.22
-1.24
-1.66
-1.49
-0.21
2.13
5.07
8.0
10.48
12.25
13.32
13.88
14.2
14.59
15.21
16.11
17.15
18.1
18.72
18.87
18.54
17.83
16.87
15.73
14.41
12.92
11.24
9.42
7.45
5.31
2.96
0.36
-2.45
-5.31
-7.97
-10.21
-11.99
-13.45
-14.91
-16.75
-19.29
-22.7
-26.94
-31.77
-36.69
-40.89
-43.43
-43.43
-40.42
-34.55
-26.61
-17.75
-9.15
-1.64
4.46
9.28
13.22
16.67
19.87
22.83
25.32
27.01
27.68
27.36
26.43
25.49
25.14
25.7
27.02
28.57
29.67
29.89
29.18
27.86
26.38
25.02
23.86
22.65
21.15
19.25
17.06
14.89
12.99
11.47
10.15
8.68
6.75
4.23
1.26
-1.89
-4.9
-7.58
-9.87
-11.84
-13.69
-15.64
-17.99
-20.92
-24.57
-28.91
-33.76
-38.8
-43.49
-47.15
-48.99
-48.26
-44.53
-37.94
-29.23
-19.63
-10.44
-2.6
3.58
8.35
12.25
15.73
18.92
21.63
23.55
24.51
24.62
24.24
23.84
23.85
24.45
25.57
26.95
28.27
29.28
29.86
30.06
29.97
29.65
29.11
28.27
27.01
25.28
23.15
20.81
18.48
16.32
14.36
12.52
10.67
8.77
6.88
5.08
3.43
1.83
0.07
-2.06
-4.68
-7.7
-10.89
-14.0
-16.79
-19.21
-21.31
-23.27
-25.35
-27.84
-31.02
-34.96
-39.47
-43.96
-47.52
-49.17
-48.2
-44.42
-38.25
-30.54
-22.28
-14.28
-7.06
-0.82
4.39
8.6
11.89
14.43
16.52
18.52
20.64
22.87
24.91
26.39
27.06
27.02
26.59
26.2
26.08
26.19
26.29
26.12
25.58
24.69
23.54
22.11
20.38
18.33
16.08
13.9
12.04
10.62
9.52
8.51
7.35
5.9
4.13
2.0
-0.54
-3.56
-6.99
-10.58
-13.95
-16.76
-18.95
-20.75
-22.62
-25.0
-28.13
-31.96
-36.18
-40.27
-43.54
-45.28
-44.83
-41.8
-36.24
-28.75
-20.33
-12.07
-4.81
1.1
5.73
9.41
12.45
14.97
16.9
18.16
18.76
18.88
18.74
18.59
18.52
18.57
18.74
19.02
19.46
20.08
20.86
21.67
22.31
22.52
22.04
20.75
18.63
15.89
12.87
9.92
7.33
5.18
3.38
1.71
-0.06
-2.12
-4.5
-7.15
-9.93
-12.65
-15.13
-17.27
-19.07
-20.72
-22.56
-24.87
-27.81
-31.21
-34.59
-37.24
-38.4
-37.53
-34.43
-29.32
-22.81
-15.69
-8.78
-2.74
2.07
5.63
8.18
10.09
11.74
13.3
14.78
15.98
16.74
17.03
17.02
17.09
17.57
18.61
20.05
21.51
22.54
22.84
22.43
21.53
20.46
19.44
18.48
17.43
16.07
14.32
12.27
10.13
8.12
6.29
4.58
2.79
0.79
-1.37
-3.57
-5.63
-7.48
-9.16
-10.85
-12.71
-14.8
-17.12
-19.57
-22.1
-24.72
-27.52
-30.53
-33.67
-36.59
-38.71
-39.33
-37.86
-34.06
-28.18
-20.95
-13.33
-6.22
-0.17
4.66
8.4
11.33
13.66
15.47
16.7
17.28
17.26
16.85
16.44
16.4
16.96
18.1
19.51
20.77
21.53
21.66
21.29
20.64
19.93
19.27
18.6
17.85
16.94
15.91
14.8
13.63
12.39
10.99
9.43
7.7
5.84
3.9
1.89
-0.19
-2.29
-4.35
-6.28
-8.02
-9.68
-11.43
-13.52
-16.09
-19.13
-22.48
-25.96
-29.44
-32.84
-36.06
-38.83
-40.74
-41.24
-39.93
-36.65
-31.65
-25.52
-18.99
-12.74
-7.25
-2.72
0.85
3.61
5.72
7.27
8.3
8.83
8.95
8.82
8.64
8.56
8.69
9.06
9.67
10.5
11.52
12.61
13.57
14.1
13.98
13.08
11.49
9.46
7.27
5.1
3.03
0.99
-1.08
-3.2
-5.3
-7.34
-9.28
-11.15
-13.08
-15.11
-17.33
-19.75
-22.38
-25.22
-28.12
-30.69
-32.36
-32.48
-30.57
-26.61
-21.1
-14.86
-8.74
-3.31
1.31
5.33
8.95
12.24
15.01
17.0
18.08
18.32
18.01
17.51
17.1
16.94
17.08
17.51
18.16
18.93
19.68
20.24
20.5
20.44
20.1
19.59
18.87
17.84
16.32
14.25
11.76
9.24
7.17
5.88
5.37
5.14
4.33
2.07
-2.16
-8.17
-15.04
-21.42
-26.05
-28.28
-28.34
-27.17
-26.02
-25.91
-27.25
-29.82
-32.89
-35.53
-36.82
-36.03
-32.71
-26.86
-19.12
-10.75
-3.36
1.59
3.33
2.16
-0.62
-3.26
-4.18
-2.59
1.38
6.85
12.69
17.94
22.06
24.96
26.77
27.69
27.9
27.5
26.65
25.55
24.43
23.52
22.89
22.49
22.1
21.46
20.39
18.86
17.0
15.09
13.42
12.17
11.24
10.38
9.26
7.66
5.67
3.54
1.63
0.1
-1.1
-2.27
-3.78
-5.86
-8.5
-11.44
-14.37
-17.01
-19.3
-21.37
-23.48
-25.92
-28.84
-32.21
-35.66
-38.59
-40.27
-40.08
-37.75
-33.42
-27.58
-20.94
-14.19
-7.89
-2.42
2.04
5.53
8.21
10.36
12.2
13.86
15.3
16.41
17.08
17.39
17.56
17.87
18.5
19.37
20.25
20.88
21.17
21.22
21.24
21.34
21.43
21.24
20.51
19.16
17.33
15.35
13.5
11.89
10.46
9.04
7.53
5.89
4.15
2.28
0.21
-2.15
-4.77
-7.48
-9.99
-12.01
-13.47
-14.53
-15.54
-16.87
-18.78
-21.36
-24.53
-28.12
-31.82
-35.2
-37.67
-38.54
-37.28
-33.75
-28.35
-21.86
-15.27
-9.37
-4.48
-0.55
2.72
5.59
8.14
10.22
11.62
12.25
12.25
11.96
11.78
12.03
12.79
14.0
15.47
17.01
18.51
19.91
21.07
21.76
21.71
20.61
18.42
15.31
11.69
8.04
4.8
2.16
0.15
-1.41
-2.84
-4.43
-6.35
-8.58
-10.85
-12.82
-14.16
-14.8
-14.9
-14.88
-15.19
-16.19
-17.95
-20.19
-22.36
-23.75
-23.77
-22.14
-18.99
-14.85
-10.36
-6.07
-2.26
1.11
4.19
7.05
9.61
11.62
12.83
13.21
12.94
12.41
12.06
12.21
12.99
14.23
15.65
16.93
17.85
18.35
18.49
18.34
18.01
17.51
16.82
15.9
14.64
12.96
10.84
8.34
5.66
3.06
0.75
-1.13
-2.69
-4.16
-5.78
-7.68
-9.81
-11.91
-13.78
-15.35
-16.83
-18.66
-21.32
-25.01
-29.51
-34.07
-37.64
-39.26
-38.41
-35.13
-30.06
-24.02
-17.8
-11.95
-6.7
-2.09
1.9
5.3
8.13
10.39
12.13
13.4
14.25
14.78
15.11
15.39
15.81
16.51
17.46
18.55
19.58
20.37
20.87
21.1
21.17
21.09
20.8
20.15
18.99
17.32
15.25
13.01
10.84
8.88
7.14
5.53
3.88
2.05
0.02
-2.16
-4.37
-6.5
-8.51
-10.42
-12.33
-14.35
-16.61
-19.23
-22.29
-25.83
-29.66
-33.36
-36.27
-37.64
-36.94
-34.07
-29.4
-23.66
-17.63
-11.93
-6.86
-2.5
1.21
4.34
6.92
8.96
10.44
11.38
11.79
11.82
11.69
11.69
12.14
13.18
14.75
16.55
18.19
19.28
19.63
19.27
18.37
17.14
15.79
14.36
12.86
11.3
9.71
8.15
6.68
5.26
3.73
1.88
-0.43
-3.15
-6.0
-8.62
-10.74
-12.43
-14.03
-16.08
-19.02
-22.86
-27.09
-30.78
-32.96
-32.95
-30.58
-26.24
-20.59
-14.36
-8.15
-2.33
2.86
7.3
10.92
13.67
15.6
16.8
17.44
17.69
17.74
17.72
17.73
17.79
17.91
18.06
18.3
18.68
19.26
19.94
20.5
20.66
20.18
19.06
17.47
15.72
14.0
12.33
10.57
8.51
6.11
3.48
0.92
-1.34
-3.16
-4.63
-6.01
-7.56
-9.42
-11.58
-13.93
-16.4
-19.06
-22.08
-25.64
-29.76
-34.14
-38.21
-41.25
-42.67
-42.17
-39.88
-36.23
-31.84
-27.21
-22.63
-18.18
-13.87
-9.83
-6.33
-3.72
-2.29
-2.06
-2.77
-4.04
-5.54
-7.0
-8.24
-8.98
-8.87
-7.62
-5.2
-1.85
2.03
6.15
10.58
15.63
21.58
28.32
35.2
41.28
45.75
48.31
49.29
49.34
49.08
48.69
48.02
46.72
44.64
41.98
39.17
36.66
34.65
32.99
31.31
29.2
26.44
23.0
18.97
14.53
9.92
5.52
1.85
-0.5
-1.08
0.2
3.04
6.83
10.89
14.69
17.92
20.44
22.24
23.28
23.49
22.72
20.71
17.17
11.88
4.86
-3.51
-12.52
-21.31
-29.1
-35.49
-40.36
-43.68
-45.28
-44.77
-41.83
-36.53
-29.59
-22.29
-16.06
-11.89
-10.04
-10.05
-11.11
-12.47
-13.73
-14.8
-15.69
-16.38
-16.76
-16.82
-16.72
-16.76
-17.31
-18.61
-20.57
-22.84
-24.82
-25.84
-25.33
-23.04
-19.09
-14.01
-8.49
-3.23
1.34
5.09
8.1
10.56
12.6
14.32
15.76
16.91
17.79
18.37
18.68
18.75
18.72
18.79
19.13
19.81
20.67
21.42
21.74
21.38
20.31
18.67
16.69
14.58
12.44
10.28
8.12
6.05
4.32
3.22
2.87
3.07
3.32
3.05
1.95
0.15
-1.8
-3.28
-4.0
-4.13
-4.28
-5.15
-7.23
-10.63
-15.07
-20.13
-25.29
-29.98
-33.61
-35.6
-35.47
-33.12
-28.81
-23.2
-17.11
-11.3
-6.26
-2.19
0.95
3.32
5.07
6.31
7.13
7.67
8.06
8.43
8.84
9.23
9.55
9.81
10.1
10.56
11.21
11.91
12.38
12.27
11.43
9.9
7.99
6.01
4.16
2.43
0.63
-1.48
-4.07
-7.13
-10.5
-13.84
-16.85
-19.33
-21.33
-23.16
-25.23
-27.93
-31.49
-35.94
-41.17
-46.85
-52.34
-56.55
-58.14
-55.99
-49.67
-39.84
-27.93
-15.47
-3.36
8.45
20.57
33.33
46.21
57.83
66.56
71.43
72.5
70.75
67.39
63.27
58.7
53.6
47.86
41.38
33.98
25.46
15.72
5.12
-5.32
-14.15
-20.02
-22.18
-20.76
-16.49
-10.22
-2.45
6.65
17.01
28.17
39.17
48.63
55.31
58.49
58.29
55.51
51.35
46.93
42.92
39.27
35.36
30.39
23.96
16.59
9.61
4.7
3.09
4.91
9.1
13.8
17.18
18.15
16.66
13.55
10.03
7.24
5.77
5.64
6.25
6.55
5.3
1.52
-5.06
-13.78
-23.09
-31.16
-36.59
-38.91
-38.69
-37.09
-35.22
-33.63
-32.26
-30.79
-29.1
-27.55
-26.91
-27.89
-30.75
-35.04
-39.76
-43.86
-46.6
-47.82
-47.8
-46.98
-45.66
-43.92
-41.64
-38.74
-35.33
-31.72
-28.26
-25.18
-22.55
-20.28
-18.29
-16.61
-15.33
-14.54
-14.17
-14.02
-13.87
-13.56
-13.16
-12.9
-13.03
-13.76
-15.13
-17.11
-19.57
-22.33
-25.07
-27.32
-28.47
-27.98
-25.53
-21.22
-15.59
-9.42
-3.54
1.5
5.44
8.37
10.56
12.3
13.8
15.14
16.29
17.17
17.66
17.75
17.5
17.14
16.94
17.16
17.93
19.17
20.62
21.93
22.78
23.01
22.56
21.51
19.97
18.14
16.21
14.42
12.94
11.82
10.94
10.07
9.0
7.62
5.99
4.28
2.66
1.15
-0.33
-1.91
-3.72
-5.75
-7.9
-10.03
-12.07
-13.98
-15.82
-17.71
-19.79
-22.23
-25.1
-28.31
-31.44
-33.81
-34.6
-33.21
-29.47
-23.8
-17.17
-10.72
-5.42
-1.72
0.54
1.98
3.37
5.31
8.06
11.51
15.33
19.22
22.96
26.5
29.78
32.59
34.6
35.38
34.71
32.67
29.71
26.54
23.74
21.61
20.07
18.71
17.15
15.16
12.84
10.45
8.32
6.54
4.96
3.24
1.07
-1.63
-4.62
-7.42
-9.58
-10.92
-11.66
-12.22
-13.06
-14.36
-16.05
-17.84
-19.55
-21.24
-23.22
-25.78
-28.97
-32.37
-35.21
-36.56
-35.78
-32.72
-27.82
-21.94
-15.93
-10.43
-5.66
-1.55
2.06
5.2
7.77
9.6
10.69
11.24
11.59
12.07
12.78
13.68
14.59
15.42
16.14
16.77
17.3
17.68
17.89
17.91
17.84
17.76
17.65
17.36
16.72
15.58
13.94
11.94
9.81
7.8
6.06
4.62
3.39
2.21
0.9
-0.66
-2.46
-4.42
-6.4
-8.31
-10.18
-12.12
-14.24
-16.6
-19.2
-22.02
-25.1
-28.5
-32.17
-35.78
-38.69
-40.11
-39.45
-36.52
-31.65
-25.5
-18.82
-12.22
-6.11
-0.77
3.55
6.6
8.32
8.88
8.84
8.88
9.64
11.47
14.34
17.97
21.87
25.57
28.62
30.73
31.8
31.91
31.27
30.1
28.62
26.89
24.96
22.81
20.52
18.18
15.89
13.73
11.71
9.8
7.92
6.0
4.02
1.92
-0.25
-2.51
-4.8
-7.12
-9.44
-11.72
-13.98
-16.29
-18.85
-21.92
-25.74
-30.31
-35.23
-39.75
-42.95
-44.01
-42.55
-38.68
-32.94
-26.11
-18.96
-12.15
-6.1
-0.99
3.22
6.76
9.93
12.96
15.87
18.39
20.14
20.83
20.42
19.28
17.98
17.12
16.99
17.53
18.36
19.06
19.34
19.16
18.57
17.64
16.37
14.7
12.63
10.29
7.88
5.59
3.52
1.63
-0.16
-1.89
-3.54
-5.07
-6.55
-8.16
-10.17
-12.79
-16.12
-20.12
-24.65
-29.44
-34.07
-37.87
-40.03
-39.8
-36.77
-31.11
-23.6
-15.41
-7.66
-1.08
4.13
8.23
11.57
14.43
16.81
18.59
19.65
20.07
20.14
20.23
20.7
21.67
23.01
24.47
25.72
26.56
26.9
26.83
26.41
25.65
24.47
22.82
20.67
18.14
15.45
12.86
10.59
8.72
7.16
5.67
3.99
1.91
-0.61
-3.38
-6.14
-8.66
-10.88
-12.93
-15.1
-17.68
-20.89
-24.81
-29.36
-34.24
-38.91
-42.59
-44.41
-43.63
-40.01
-33.93
-26.32
-18.28
-10.77
-4.3
1.12
5.75
9.89
13.74
17.24
20.22
22.46
23.84
24.45
24.6
24.67
24.99
25.68
26.62
27.58
28.33
28.79
29.06
29.27
29.46
29.46
29.01
27.9
26.16
24.03
21.86
19.98
18.47
17.21
15.93
14.39
12.49
10.29
7.99
5.76
3.71
1.8
-0.09
-2.12
-4.42
-7.01
-9.85
-12.81
-15.77
-18.6
-21.32
-23.99
-26.82
-30.05
-33.85
-38.26
-42.94
-47.2
-50.05
-50.55
-48.06
-42.56
-34.68
-25.51
-16.22
-7.76
-0.65
5.0
9.42
12.87
15.61
17.8
19.47
20.64
21.34
21.69
21.91
22.26
22.99
24.15
25.65
27.24
28.65
29.72
30.46
30.92
31.19
31.2
30.82
29.87
28.31
26.28
24.03
21.91
20.15
18.79
17.65
16.44
14.81
12.58
9.79
6.67
3.59
0.9
-1.19
-2.74
-4.0
-5.31
-6.96
-9.02
-11.36
-13.76
-16.02
-18.18
-20.4
-22.94
-25.92
-29.35
-33.05
-36.86
-40.69
-44.44
-47.91
-50.63
-51.96
-51.3
-48.39
-43.43
-37.02
-29.75
-21.98
-13.65
-4.58
5.21
15.12
24.04
30.76
34.49
35.27
34.0
32.0
30.46
29.93
30.32
31.14
31.85
32.16
32.02
31.53
30.73
29.58
28.01
26.04
23.84
21.61
19.52
17.59
15.82
14.15
12.52
10.91
9.27
7.52
5.61
3.6
1.63
-0.08
-1.44
-2.57
-3.81
-5.59
-8.17
-11.51
-15.2
-18.65
-21.4
-23.37
-24.82
-26.31
-28.37
-31.3
-35.14
-39.64
-44.38
-48.77
-52.12
-53.59
-52.43
-48.17
-40.88
-31.27
-20.54
-10.04
-0.88
6.36
11.64
15.32
17.83
19.48
20.36
20.52
20.13
19.54
19.25
19.7
21.11
23.37
26.16
28.99
31.47
33.27
34.31
34.61
34.27
33.44
32.16
30.43
28.25
25.66
22.83
19.95
17.21
14.58
11.98
9.27
6.41
3.54
0.86
-1.43
-3.34
-4.97
-6.58
-8.38
-10.47
-12.84
-15.35
-17.81
-20.08
-22.14
-24.17
-26.47
-29.42
-33.27
-38.03
-43.43
-48.97
-53.97
-57.62
-59.08
-57.63
-52.92
-45.12
-35.05
-23.98
-13.33
-4.24
2.75
7.75
11.31
14.08
16.53
18.74
20.58
21.85
22.54
22.86
23.19
23.82
24.85
26.11
27.23
27.91
28.02
27.69
27.19
26.77
26.55
26.39
25.99
24.99
23.12
20.36
16.96
13.39
10.22
7.91
6.68
6.44
6.83
7.39
7.62
7.2
5.9
3.71
0.72
-2.81
-6.59
-10.3
-13.78
-17.07
-20.42
-24.16
-28.56
-33.67
-39.25
-44.79
-49.57
-52.86
-54.04
-52.75
-48.94
-42.79
-34.69
-25.08
-14.45
-3.36
7.55
17.5
25.67
31.39
34.36
34.72
33.04
30.13
26.8
23.72
21.31
19.77
19.09
19.14
19.67
20.37
21.0
21.4
21.52
21.41
21.09
20.56
19.68
18.33
16.44
14.09
11.41
8.56
5.6
2.5
-0.81
-4.29
-7.77
-10.98
-13.63
-15.66
-17.2
-18.61
-20.33
-22.78
-26.22
-30.67
-35.86
-41.15
-45.61
-48.22
-48.16
-45.09
-39.32
-31.69
-23.32
-15.21
-7.94
-1.62
3.98
9.21
14.3
19.22
23.71
27.42
30.0
31.3
31.39
30.56
29.24
27.9
26.89
26.39
26.35
26.57
26.83
26.91
26.69
26.1
25.07
23.55
21.56
19.24
16.88
14.81
13.19
11.97
10.88
9.57
7.82
5.65
3.24
0.82
-1.5
-3.77
-6.14
-8.68
-11.39
-14.15
-16.83
-19.33
-21.68
-23.96
-26.38
-29.21
-32.66
-36.78
-41.33
-45.74
-49.15
-50.7
-49.72
-45.98
-39.74
-31.72
-22.9
-14.28
-6.63
-0.35
4.52
8.26
11.25
13.81
16.09
18.06
19.54
20.37
20.47
20.04
19.41
19.07
19.41
20.57
22.42
24.55
26.52
28.01
28.84
29.03
28.58
27.5
25.82
23.68
21.34
19.1
17.18
15.55
13.97
12.12
9.86
7.29
4.78
2.7
1.24
0.29
-0.48
-1.45
-2.88
-4.77
-6.99
-9.39
-11.88
-14.53
-17.45
-20.77
-24.57
-28.87
-33.63
-38.68
-43.7
-48.13
-51.21
-52.14
-50.36
-45.77
-38.87
-30.63
-22.16
-14.37
-7.68
-2.05
2.85
7.31
11.33
14.68
17.02
18.23
18.56
18.54
18.72
19.45
20.66
22.08
23.4
24.5
25.42
26.24
26.95
27.32
27.15
26.36
25.11
23.72
22.45
21.33
20.13
18.53
16.38
13.83
11.22
8.93
7.1
5.59
4.14
2.55
0.82
-0.95
-2.67
-4.38
-6.26
-8.48
-11.1
-14.0
-16.99
-19.93
-22.84
-25.85
-29.18
-32.89
-36.87
-40.77
-43.99
-45.8
-45.49
-42.69
-37.46
-30.4
-22.45
-14.6
-7.55
-1.61
3.24
7.25
10.58
13.27
15.3
16.63
17.35
17.62
17.69
17.84
18.3
19.23
20.64
22.42
24.3
25.96
27.14
27.68
27.6
27.02
26.1
25.0
23.71
22.25
20.57
18.72
16.83
15.06
13.49
12.08
10.65
8.96
6.9
4.56
2.24
0.33
-0.97
-1.74
-2.33
-3.23
-4.79
-7.13
-10.05
-13.2
-16.24
-18.97
-21.41
-23.72
-26.2
-29.14
-32.69
-36.85
-41.24
-45.17
-47.74
-48.07
-45.65
-40.49
-33.18
-24.66
-15.98
-7.95
-1.11
4.37
8.57
11.67
13.93
15.58
16.78
17.62
18.12
18.33
18.32
18.3
18.49
19.03
19.95
21.05
22.01
22.58
22.65
22.33
21.8
21.23
20.62
19.83
18.63
16.87
14.57
11.93
9.27
6.86
4.85
3.27
2.03
1.0
0.06
-0.86
-1.83
-2.91
-4.14
-5.56
-7.24
-9.21
-11.5
-14.11
-16.92
-19.8
-22.6
-25.28
-27.99
-31.0
-34.55
-38.58
-42.58
-45.59
-46.54
-44.62
-39.73
-32.5
-24.14
-15.94
-8.81
-3.1
1.35
4.92
7.91
10.4
12.27
13.39
13.79
13.68
13.45
13.53
14.2
15.51
17.23
18.96
20.32
21.15
21.53
21.73
21.98
22.26
22.29
21.71
20.25
18.03
15.42
12.89
10.77
9.03
7.4
5.51
3.14
0.34
-2.62
-5.42
-7.82
-9.81
-11.55
-13.25
-15.12
-17.27
-19.81
-22.86
-26.56
-30.88
-35.5
-39.69
-42.48
-42.97
-40.71
-35.93
-29.43
-22.28
-15.42
-9.36
-4.16
0.38
4.5
8.34
11.9
15.07
17.74
19.81
21.23
22.07
22.46
22.66
22.96
23.59
24.58
25.79
26.92
27.72
28.06
28.01
27.74
27.35
26.84
26.03
24.71
22.7
19.98
16.67
12.94
9.0
4.99
1.08
-2.55
-5.6
-7.82
-9.09
-9.55
-9.55
-9.61
-10.17
-11.45
-13.36
-15.58
-17.73
-19.57
-21.08
-22.42
-23.92
-25.84
-28.47
-31.9
-36.02
-40.44
-44.44
-47.06
-47.38
-44.81
-39.35
-31.66
-22.88
-14.21
-6.58
-0.34
4.59
8.61
12.07
15.15
17.8
19.86
21.18
21.77
21.84
21.69
21.69
22.05
22.85
23.95
25.11
26.08
26.67
26.81
26.52
25.89
24.96
23.73
22.15
20.21
17.94
15.46
12.94
10.5
8.25
6.23
4.36
2.54
0.66
-1.37
-3.54
-5.75
-7.85
-9.79
-11.56
-13.31
-15.2
-17.43
-20.11
-23.29
-26.98
-31.12
-35.54
-39.83
-43.32
-45.13
-44.48
-40.96
-34.84
-26.99
-18.62
-10.88
-4.42
0.69
4.82
8.47
11.9
15.02
17.49
18.95
19.3
18.83
18.1
17.71
18.07
19.25
21.03
23.05
25.01
26.74
28.08
28.93
29.11
28.47
27.05
25.03
22.77
20.54
18.45
16.37
14.09
11.51
8.72
5.94
3.37
1.04
-1.2
-3.56
-6.13
-8.9
-11.82
-14.88
-18.14
-21.63
-25.26
-28.8
-32.04
-34.96
-37.71
-40.46
-43.05
-44.86
-44.95
-42.47
-37.23
-29.82
-21.45
-13.41
-6.54
-1.04
3.4
7.22
10.7
13.78
16.22
17.83
18.59
18.79
18.8
19.0
19.64
20.76
22.24
23.88
25.52
27.0
28.24
29.13
29.56
29.42
28.67
27.35
25.57
23.51
21.32
19.1
16.87
14.7
12.66
10.81
9.13
7.53
5.81
3.75
1.3
-1.54
-4.59
-7.68
-10.65
-13.4
-15.89
-18.16
-20.27
-22.35
-24.56
-27.13
-30.23
-33.9
-37.91
-41.68
-44.39
-45.19
-43.46
-39.1
-32.55
-24.73
-16.71
-9.42
-3.35
1.5
5.47
8.96
12.21
15.17
17.63
19.35
20.3
20.69
20.98
21.55
22.6
24.0
25.45
26.6
27.24
27.36
27.11
26.64
26.03
25.29
24.38
23.29
22.02
20.62
19.05
17.27
15.21
12.91
10.55
8.37
6.57
5.17
3.97
2.61
0.82
-1.45
-4.0
-6.5
-8.72
-10.66
-12.54
-14.65
-17.21
-20.27
-23.75
-27.59
-31.72
-35.95
-39.86
-42.7
-43.62
-41.93
-37.48
-30.79
-22.91
-15.08
-8.24
-2.79
1.37
4.66
7.42
9.81
11.74
13.1
13.84
14.14
14.27
14.53
15.06
15.87
16.86
17.93
18.96
19.86
20.56
20.98
21.08
20.86
20.34
19.52
18.35
16.78
14.82
12.63
10.41
8.37
6.59
4.95
3.23
1.21
-1.18
-3.83
-6.47
-8.86
-10.84
-12.48
-14.12
-16.21
-19.17
-23.13
-27.78
-32.35
-35.8
-37.11
-35.73
-31.76
-25.93
-19.33
-12.91
-7.21
-2.32
1.99
5.91
9.4
12.2
14.05
14.87
14.93
14.64
14.41
14.48
14.82
15.3
15.81
16.34
16.99
17.8
18.73
19.65
20.35
20.62
20.33
19.42
17.92
15.88
13.44
10.75
7.9
4.95
1.92
-1.16
-4.17
-6.9
-9.04
-10.31
-10.58
-9.92
-8.69
-7.36
-6.45
-6.31
-7.11
-8.85
-11.49
-14.99
-19.33
-24.35
-29.61
-34.4
-37.84
-39.24
-38.28
-35.1
-30.13
-23.86
-16.64
-8.7
-0.26
8.3
16.35
23.19
28.17
31.02
31.83
31.07
29.35
27.21
25.06
23.1
21.48
20.32
19.75
19.88
20.62
21.72
22.74
23.26
22.99
21.96
20.43
18.76
17.3
16.13
15.14
14.06
12.67
10.95
9.1
7.46
6.35
5.85
5.78
5.68
5.11
3.84
1.88
-0.45
-2.8
-4.88
-6.62
-8.12
-9.54
-11.03
-12.65
-14.37
-16.14
-17.9
-19.65
-21.39
-23.11
-24.76
-26.38
-28.09
-30.12
-32.71
-35.88
-39.31
-42.27
-43.84
-43.24
-40.15
-34.86
-28.12
-20.92
-14.14
-8.33
-3.66
-0.03
2.83
5.15
7.07
8.61
9.74
10.46
10.9
11.29
11.86
12.75
13.9
15.17
16.37
17.46
18.47
19.44
20.32
20.92
20.95
20.26
18.87
17.03
15.15
13.59
12.58
12.07
11.87
11.6
10.94
9.68
7.8
5.53
3.2
1.17
-0.38
-1.48
-2.35
-3.33
-4.63
-6.32
-8.27
-10.27
-12.16
-13.92
-15.64
-17.5
-19.59
-21.96
-24.58
-27.39
-30.28
-33.03
-35.2
-36.22
-35.53
-32.82
-28.18
-22.21
-15.76
-9.7
-4.65
-0.81
2.0
4.14
5.91
7.49
8.85
9.91
10.62
11.06
11.37
11.76
12.34
13.12
14.05
15.06
16.05
16.92
17.55
17.83
17.67
17.08
16.18
15.09
13.86
12.5
10.93
9.18
7.39
5.79
4.58
3.73
2.98
1.93
0.25
-2.15
-5.02
-7.94
-10.53
-12.64
-14.42
-16.2
-18.27
-20.75
-23.62
-26.69
-29.69
-32.36
-34.34
-35.27
-34.9
-33.1
-29.96
-25.75
-20.77
-15.24
-9.28
-2.92
3.8
10.7
17.4
23.35
27.9
30.47
30.76
28.96
25.72
22.07
19.01
17.2
16.72
17.13
17.68
17.77
17.14
15.99
14.75
13.88
13.67
14.11
15.08
16.36
17.77
19.12
20.13
20.42
19.59
17.41
13.95
9.67
5.26
1.37
-1.72
-4.16
-6.43
-9.07
-12.33
-16.04
-19.68
-22.6
-24.35
-24.75
-24.04
-22.75
-21.52
-21.01
-21.65
-23.5
-26.12
-28.68
-30.15
-29.72
-27.08
-22.57
-17.0
-11.33
-6.3
-2.23
0.93
3.47
5.66
7.67
9.52
11.14
12.44
13.36
13.91
14.18
14.31
14.44
14.69
15.11
15.69
16.36
17.01
17.53
17.75
17.54
16.82
15.64
14.16
12.63
11.28
10.27
9.56
9.0
8.33
7.32
5.88
4.05
2.01
0.04
-1.68
-3.03
-4.1
-5.07
-6.16
-7.56
-9.33
-11.44
-13.72
-16.0
-18.11
-19.92
-21.46
-22.87
-24.33
-26.04
-27.99
-29.94
-31.41
-31.81
-30.69
-27.91
-23.66
-18.5
-13.05
-7.89
-3.41
0.22
3.03
5.11
6.61
7.65
8.32
8.67
8.79
8.72
8.57
8.45
8.5
8.79
9.35
10.06
10.78
11.33
11.64
11.7
11.58
11.29
10.79
9.92
8.53
6.52
3.94
0.93
-2.26
-5.36
-8.1
-10.12
-11.14
-10.94
-9.59
-7.38
-4.84
-2.57
-1.05
-0.62
-1.47
-3.67
-7.31
-12.33
-18.46
-25.11
-31.43
-36.47
-39.52
-40.32
-39.0
-35.88
-31.18
-24.87
-16.83
-7.12
3.73
14.7
24.52
32.1
36.84
38.73
38.21
35.89
32.38
28.31
24.27
20.88
18.58
17.53
17.4
17.42
16.71
14.71
11.54
8.2
6.25
7.29
12.19
20.64
31.09
41.24
48.86
52.5
51.91
47.92
41.88
35.08
28.35
21.96
15.86
10.02
4.54
-0.35
-4.45
-7.85
-10.92
-14.23
-18.21
-23.0
-28.39
-33.93
-39.15
-43.75
-47.56
-50.49
-52.32
-52.7
-51.2
-47.58
-41.94
-34.79
-27.02
-19.61
-13.44
-9.02
-6.45
-5.39
-5.22
-5.24
-4.9
-3.9
-2.28
-0.26
1.89
4.06
6.25
8.58
11.06
13.59
15.93
17.89
19.41
20.63
21.76
22.9
23.97
24.65
24.59
23.6
21.74
19.3
16.63
14.05
11.71
9.61
7.71
6.0
4.43
2.93
1.37
-0.4
-2.52
-4.95
-7.55
-10.15
-12.61
-14.96
-17.34
-19.92
-22.89
-26.36
-30.29
-34.54
-38.72
-42.24
-44.36
-44.37
-41.88
-37.05
-30.51
-23.24
-16.19
-10.03
-5.0
-1.03
2.16
4.82
7.11
9.08
10.71
11.96
12.82
13.4
13.91
14.66
15.85
17.49
19.37
21.09
22.3
22.79
22.61
22.0
21.27
20.6
19.99
19.27
18.19
16.6
14.53
12.2
9.93
7.97
6.39
5.07
3.72
2.05
-0.04
-2.47
-4.99
-7.31
-9.25
-10.8
-12.15
-13.57
-15.42
-17.94
-21.28
-25.4
-30.0
-34.5
-38.16
-40.17
-39.91
-37.16
-32.21
-25.74
-18.67
-11.77
-5.57
-0.29
4.13
7.83
10.95
13.54
15.54
16.88
17.53
17.62
17.46
17.48
18.06
19.36
21.21
23.17
24.74
25.6
25.72
25.38
24.93
24.68
24.65
24.67
24.44
23.73
22.46
20.79
18.97
17.2
15.56
13.99
12.3
10.4
8.3
6.11
4.02
2.13
0.43
-1.28
-3.22
-5.59
-8.44
-11.58
-14.64
-17.22
-19.05
-20.18
-21.01
-22.15
-24.21
-27.5
-31.9
-36.81
-41.33
-44.52
-45.61
-44.21
-40.39
-34.63
-27.66
-20.27
-13.12
-6.66
-1.16
3.31
6.8
9.45
11.45
13.0
14.25
15.24
15.96
16.39
16.63
16.88
17.35
18.21
19.46
20.97
22.52
24.0
25.39
26.76
28.14
29.47
30.44
30.63
29.62
27.27
23.78
19.74
15.94
13.01
11.2
10.25
9.58
8.52
6.59
3.74
0.21
-3.53
-6.97
-9.74
-11.72
-12.94
-13.65
-14.21
-15.04
-16.55
-19.14
-23.01
-28.04
-33.73
-39.2
-43.43
-45.49
-44.88
-41.63
-36.23
-29.43
-21.96
-14.42
-7.15
-0.36
5.76
11.0
15.09
17.79
19.03
19.0
18.14
17.11
16.5
16.64
17.46
18.53
19.33
19.53
19.13
18.55
18.39
19.21
21.2
24.12
27.36
30.17
31.88
32.15
30.9
28.31
24.64
20.19
15.21
9.95
4.66
-0.45
-5.19
-9.47
-13.27
-16.64
-19.62
-22.17
-24.21
-25.65
-26.51
-26.99
-27.4
-28.03
-28.91
-29.71
-29.87
-28.73
-25.94
-21.57
-16.11
-10.32
-4.86
-0.16
3.65
6.66
9.04
10.9
12.29
13.28
13.9
14.35
14.9
15.78
17.06
18.56
19.88
20.6
20.48
19.54
18.13
16.71
15.72
15.36
15.6
16.17
16.71
16.81
16.18
14.7
12.54
10.05
7.73
5.97
4.91
4.35
3.91
3.1
1.66
-0.52
-3.29
-6.44
-9.77
-13.12
-16.37
-19.45
-22.34
-25.14
-28.1
-31.54
-35.62
-40.1
-44.31
-47.2
-47.75
-45.31
-39.92
-32.24
-23.39
-14.55
-6.63
-0.2
4.58
7.83
9.83
10.95
11.56
11.97
12.39
12.9
13.53
14.26
15.18
16.42
18.11
20.24
22.61
24.89
26.69
27.78
28.14
27.96
27.43
26.71
25.73
24.33
22.4
19.98
17.29
14.69
12.47
10.72
9.3
7.93
6.34
4.39
2.07
-0.5
-3.18
-5.82
-8.41
-10.95
-13.46
-15.96
-18.49
-21.14
-24.11
-27.64
-31.86
-36.66
-41.57
-45.81
-48.43
-48.63
-46.03
-40.79
-33.58
-25.38
-17.18
-9.75
-3.53
1.43
5.27
8.27
10.62
12.46
13.82
14.74
15.31
15.65
15.96
16.4
17.15
18.34
19.97
21.94
23.95
25.63
26.62
26.72
25.92
24.43
22.51
20.38
18.12
15.76
13.32
10.92
8.66
6.59
4.61
2.47
-0.05
-3.02
-6.24
-9.33
-11.93
-13.9
-15.47
-17.12
-19.42
-22.77
-27.17
-32.15
-36.84
-40.19
-41.26
-39.53
-35.02
-28.29
-20.29
-12.07
-4.48
2.01
7.28
11.46
14.67
16.99
18.4
18.9
18.66
18.04
17.45
17.3
17.76
18.73
19.94
21.11
22.08
22.84
23.45
23.9
24.09
23.81
22.88
21.27
19.1
16.58
13.97
11.46
9.18
7.15
5.35
3.67
1.93
-0.06
-2.43
-5.17
-8.13
-11.11
-13.92
-16.49
-18.91
-21.4
-24.27
-27.75
-32.0
-36.89
-41.98
-46.5
-49.46
-49.93
-47.35
-41.75
-33.83
-24.69
-15.56
-7.41
-0.69
4.61
8.83
12.3
15.24
17.65
19.43
20.52
20.99
21.06
20.99
21.04
21.35
22.0
23.03
24.37
25.94
27.49
28.75
29.39
29.15
27.99
26.08
23.72
21.22
18.84
16.68
14.77
13.08
11.55
10.19
8.86
7.41
5.58
3.16
0.11
-3.36
-6.88
-10.03
-12.6
-14.61
-16.36
-18.26
-20.67
-23.85
-27.91
-32.77
-38.17
-43.53
-48.0
-50.59
-50.47
-47.21
-41.02
-32.72
-23.43
-14.32
-6.2
0.49
5.74
9.74
12.79
15.16
17.03
18.53
19.73
20.67
21.42
22.09
22.8
23.62
24.54
25.46
26.24
26.84
27.28
27.65
27.95
28.01
27.51
26.12
23.64
20.18
16.13
11.96
8.14
4.95
2.49
0.66
-0.73
-1.95
-3.26
-4.85
-6.8
-9.01
-11.33
-13.61
-15.85
-18.18
-20.86
-24.12
-28.06
-32.56
-37.26
-41.61
-44.89
-46.38
-45.52
-42.07
-36.24
-28.69
-20.32
-12.06
-4.61
1.69
6.82
10.94
14.2
16.68
18.35
19.23
19.49
19.42
19.43
19.87
20.9
22.41
24.11
25.63
26.68
27.16
27.07
26.57
25.78
24.81
23.72
22.56
21.33
20.04
18.68
17.21
15.58
13.83
12.02
10.24
8.59
7.01
5.32
3.28
0.7
-2.44
-5.95
-9.48
-12.72
-15.51
-17.94
-20.29
-22.99
-26.42
-30.84
-36.22
-42.19
-48.02
-52.75
-55.36
-55.07
-51.54
-45.04
-36.37
-26.67
-17.04
-8.3
-0.83
5.4
10.64
15.16
19.09
22.39
24.96
26.78
27.93
28.6
29.05
29.47
30.02
30.76
31.66
32.62
33.52
34.16
34.4
34.16
33.41
32.19
30.58
28.65
26.5
24.24
21.97
19.75
17.6
15.47
13.26
10.88
8.31
5.64
3.06
0.8
-0.98
-2.3
-3.42
-4.68
-6.42
-8.79
-11.66
-14.71
-17.61
-20.2
-22.61
-25.23
-28.48
-32.67
-37.76
-43.24
-48.18
-51.51
-52.3
-50.05
-44.89
-37.5
-28.84
-19.91
-11.48
-4.03
2.2
7.17
10.99
13.88
16.11
17.9
19.36
20.56
21.53
22.41
23.34
24.45
25.71
26.91
27.8
28.18
28.01
27.45
26.72
26.0
25.34
24.68
23.8
22.52
20.68
18.29
15.58
12.9
10.58
8.68
6.95
4.96
2.37
-0.83
-4.32
-7.62
-10.34
-12.41
-14.01
-15.5
-17.17
-19.24
-21.89
-25.28
-29.47
-34.33
-39.35
-43.73
-46.57
-47.25
-45.63
-42.12
-37.43
-32.22
-26.91
-21.62
-16.33
-11.13
-6.35
-2.53
-0.37
-0.45
-2.94
-7.4
-12.54
-16.41
-16.72
-11.67
-0.57
15.63
34.67
53.59
69.68
81.19
87.63
89.38
87.27
82.11
74.49
64.87
53.66
41.35
28.52
15.8
3.84
-6.71
-15.31
-21.56
-25.31
-26.79
-26.58
-25.61
-24.85
-25.11
-26.68
-29.21
-31.83
-33.46
-33.26
-30.89
-26.6
-21.06
-15.03
-9.08
-3.56
1.31
5.29
8.03
9.15
8.41
5.94
2.33
-1.56
-4.76
-6.57
-6.74
-5.42
-3.08
-0.24
2.71
5.55
8.11
10.24
11.73
12.34
11.94
10.53
8.32
5.74
3.25
1.26
-0.05
-0.79
-1.32
-2.07
-3.4
-5.49
-8.26
-11.49
-14.89
-18.24
-21.39
-24.35
-27.29
-30.53
-34.41
-39.05
-44.13
-48.78
-51.81
-52.03
-48.79
-42.26
-33.4
-23.66
-14.49
-6.86
-1.04
3.27
6.66
9.66
12.46
14.95
16.87
18.05
18.57
18.73
18.87
19.18
19.71
20.36
21.07
21.85
22.73
23.68
24.5
24.98
24.96
24.44
23.62
22.72
21.87
21.06
20.12
18.9
17.33
15.48
13.45
11.37
9.3
7.25
5.23
3.24
1.31
-0.58
-2.57
-4.85
-7.63
-10.97
-14.73
-18.57
-22.14
-25.29
-28.16
-31.15
-34.61
-38.57
-42.51
-45.48
-46.41
-44.51
-39.67
-32.5
-24.11
-15.76
-8.43
-2.64
1.64
4.79
7.28
9.49
11.54
13.38
14.87
15.93
16.63
17.09
17.53
18.07
18.79
19.67
20.7
21.86
23.11
24.32
25.31
25.81
25.63
24.73
23.26
21.52
19.79
18.26
16.93
15.66
14.27
12.63
10.72
8.59
6.39
4.22
2.17
0.28
-1.48
-3.16
-4.87
-6.68
-8.62
-10.64
-12.66
-14.61
-16.54
-18.58
-20.97
-23.88
-27.36
-31.16
-34.76
-37.44
-38.48
-37.37
-34.0
-28.72
-22.25
-15.39
-8.86
-3.07
1.85
5.97
9.41
12.27
14.59
16.41
17.77
18.74
19.4
19.84
20.15
20.43
20.75
21.16
21.64
22.13
22.55
22.81
22.88
22.75
22.5
22.11
21.51
20.55
19.09
17.15
14.97
12.93
11.43
10.65
10.44
10.37
9.96
8.89
7.16
5.09
3.05
1.35
0.05
-1.03
-2.16
-3.6
-5.42
-7.51
-9.62
-11.51
-13.08
-14.43
-15.84
-17.6
-19.88
-22.64
-25.65
-28.55
-30.92
-32.33
-32.46
-31.06
-28.03
-23.56
-18.05
-12.14
-6.49
-1.64
2.12
4.81
6.65
7.96
8.98
9.81
10.43
10.75
10.78
10.61
10.43
10.44
10.74
11.26
11.86
12.38
12.74
12.93
13.05
13.13
13.12
12.88
12.3
11.33
10.1
8.85
7.75
6.92
6.26
5.65
5.0
4.37
3.85
3.47
3.09
2.42
1.23
-0.52
-2.62
-4.68
-6.41
-7.73
-8.78
-9.79
-10.89
-12.07
-13.25
-14.48
-15.88
-17.64
-19.82
-22.16
-24.11
-25.01
-24.35
-21.97
-18.2
-13.66
-9.12
-5.24
-2.36
-0.46
0.73
1.63
2.52
3.53
4.57
5.48
6.13
6.5
6.66
6.79
6.99
7.31
7.68
8.02
8.31
8.59
8.98
9.52
10.17
10.71
10.87
10.42
9.32
7.68
5.75
3.77
1.99
0.53
-0.49
-1.02
-1.07
-0.74
-0.19
0.41
0.9
1.14
1.07
0.62
-0.2
-1.43
-2.98
-4.71
-6.47
-8.08
-9.46
-10.57
-11.52
-12.44
-13.51
-14.88
-16.58
-18.54
-20.52
-22.12
-22.9
-22.45
-20.57
-17.37
-13.28
-8.99
-5.19
-2.35
-0.52
0.59
1.43
2.37
3.55
4.86
6.03
6.83
7.13
6.9
6.22
5.2
4.1
3.21
2.89
3.35
4.59
6.31
8.01
9.19
9.51
8.95
7.74
6.2
4.61
3.13
1.82
0.72
-0.11
-0.6
-0.72
-0.59
-0.4
-0.4
-0.76
-1.48
-2.41
-3.3
-3.96
-4.32
-4.51
-4.76
-5.34
-6.29
-7.51
-8.72
-9.71
-10.46
-11.26
-12.59
-14.82
-17.93
-21.39
-24.3
-25.81
-25.48
-23.45
-20.35
-16.91
-13.63
-10.7
-8.0
-5.4
-2.92
-0.75
0.91
1.97
2.5
2.72
2.76
2.7
2.6
2.51
2.59
2.98
3.71
4.62
5.47
6.03
6.2
6.01
5.58
4.96
4.17
3.21
2.19
1.29
0.72
0.55
0.61
0.57
0.12
-0.8
-2.04
-3.29
-4.29
-5.01
-5.58
-6.27
-7.24
-8.48
-9.84
-11.22
-12.62
-14.27
-16.48
-19.31
-22.49
-25.31
-26.98
-26.97
-25.33
-22.59
-19.46
-16.44
-13.54
-10.51
-7.13
-3.59
-0.49
1.47
1.97
1.23
-0.01
-0.97
-1.16
-0.55
0.52
1.73
2.91
4.18
5.74
7.65
9.78
11.72
13.02
13.35
12.67
11.24
9.46
7.75
6.29
5.01
3.67
2.0
-0.13
-2.58
-5.01
-7.11
-8.7
-9.93
-11.17
-12.85
-15.29
-18.48
-22.12
-25.67
-28.54
-30.2
-30.28
-28.69
-25.59
-21.34
-16.43
-11.39
-6.63
-2.42
1.12
4.0
6.25
7.91
9.11
9.98
10.73
11.52
12.43
13.38
14.18
14.69
14.89
14.94
15.09
15.57
16.43
17.43
18.16
18.24
17.45
15.88
13.79
11.52
9.32
7.27
5.38
3.63
2.02
0.56
-0.83
-2.33
-4.17
-6.49
-9.21
-12.04
-14.65
-16.8
-18.55
-20.27
-22.35
-25.02
-28.07
-30.87
-32.57
-32.41
-30.07
-25.74
-20.03
-13.71
-7.48
-1.76
3.23
7.48
11.0
13.78
15.8
17.07
17.66
17.75
17.65
17.68
18.15
19.18
20.67
22.34
23.87
25.0
25.66
25.88
25.73
25.23
24.35
23.06
21.47
19.77
18.19
16.9
15.88
14.95
13.88
12.52
10.82
8.87
6.79
4.67
2.5
0.27
-2.05
-4.44
-6.82
-9.13
-11.4
-13.73
-16.33
-19.43
-23.14
-27.39
-31.84
-35.95
-39.11
-40.71
-40.37
-37.98
-33.69
-27.91
-21.18
-14.07
-7.08
-0.58
5.22
10.26
14.59
18.28
21.43
24.03
26.04
27.43
28.23
28.54
28.56
28.5
28.51
28.64
28.88
29.13
29.31
29.29
28.97
28.28
27.2
25.82
24.29
22.75
21.25
19.75
18.15
16.4
14.59
12.85
11.35
10.09
8.89
7.46
5.54
3.06
0.18
-2.83
-5.69
-8.28
-10.66
-13.06
-15.72
-18.85
-22.52
-26.7
-31.22
-35.83
-40.07
-43.32
-44.83
-43.96
-40.34
-34.13
-26.06
-17.24
-8.78
-1.54
4.16
8.44
11.66
14.15
16.11
17.59
18.61
19.24
19.63
19.99
20.48
21.17
22.03
23.0
24.03
25.06
26.0
26.72
27.05
26.87
26.16
24.99
23.45
21.6
19.49
17.17
14.73
12.39
10.32
8.63
7.17
5.62
3.61
0.91
-2.45
-6.13
-9.66
-12.67
-15.04
-17.0
-19.04
-21.75
-25.5
-30.21
-35.29
-39.69
-42.26
-42.09
-38.91
-33.1
-25.55
-17.33
-9.35
-2.16
4.02
9.22
13.54
17.05
19.83
21.92
23.34
24.06
24.12
23.61
22.77
22.01
21.72
22.21
23.49
25.3
27.21
28.79
29.72
29.86
29.27
28.04
26.35
24.4
22.38
20.44
18.63
16.97
15.36
13.72
11.98
10.07
7.98
5.68
3.2
0.63
-1.86
-4.1
-6.01
-7.64
-9.19
-10.92
-13.04
-15.64
-18.64
-21.88
-25.25
-28.74
-32.46
-36.44
-40.49
-44.05
-46.25
-46.21
-43.42
-37.96
-30.48
-22.03
-13.64
-6.07
0.34
5.58
9.82
13.22
15.91
18.0
19.57
20.75
21.64
22.36
23.02
23.73
24.55
25.53
26.66
27.85
29.02
30.0
30.67
30.93
30.78
30.23
29.31
28.07
26.47
24.53
22.37
20.2
18.24
16.6
15.15
13.61
11.68
9.28
6.63
4.16
2.24
1.05
0.35
-0.3
-1.37
-3.12
-5.52
-8.3
-11.12
-13.75
-16.11
-18.27
-20.41
-22.66
-25.16
-28.07
-31.51
-35.57
-40.1
-44.61
-48.27
-50.07
-49.17
-45.21
-38.5
-29.94
-20.77
-12.19
-5.01
0.47
4.42
7.29
9.56
11.54
13.33
14.84
15.9
16.51
16.8
17.03
17.44
18.14
19.07
20.13
21.22
22.3
23.36
24.32
25.01
25.19
24.67
23.44
21.66
19.61
17.58
15.66
13.86
12.09
10.3
8.55
6.95
5.56
4.34
3.12
1.71
-0.04
-2.19
-4.67
-7.34
-9.98
-12.36
-14.27
-15.65
-16.64
-17.66
-19.22
-21.79
-25.54
-30.15
-34.86
-38.62
-40.41
-39.59
-36.07
-30.34
-23.26
-15.77
-8.64
-2.36
2.89
7.1
10.36
12.76
14.42
15.44
15.95
16.08
15.95
15.68
15.41
15.34
15.63
16.36
17.49
18.86
20.2
21.27
21.87
21.89
21.31
20.21
18.73
17.06
15.36
13.68
12.02
10.35
8.66
7.04
5.58
4.34
3.26
2.17
0.87
-0.75
-2.7
-4.85
-7.04
-9.18
-11.27
-13.34
-15.42
-17.51
-19.57
-21.67
-23.95
-26.67
-30.0
-33.89
-37.88
-41.15
-42.71
-41.73
-37.94
-31.72
-24.01
-15.97
-8.65
-2.7
1.71
4.78
6.89
8.43
9.63
10.61
11.37
11.86
12.08
12.11
12.08
12.15
12.45
13.01
13.84
14.89
16.05
17.19
18.14
18.71
18.77
18.3
17.37
16.06
14.49
12.73
10.88
9.08
7.46
6.08
4.84
3.53
1.97
0.1
-1.93
-3.86
-5.49
-6.77
-7.9
-9.14
-10.71
-12.65
-14.86
-17.21
-19.62
-22.16
-24.94
-28.06
-31.46
-34.8
-37.49
-38.8
-38.11
-35.11
-30.01
-23.45
-16.33
-9.52
-3.66
1.03
4.58
7.18
8.99
10.13
10.66
10.72
10.5
10.23
10.14
10.36
10.92
11.78
12.85
14.02
15.16
16.13
16.8
17.09
16.96
16.41
15.45
14.06
12.27
10.16
7.89
5.7
3.75
2.13
0.74
-0.59
-2.07
-3.77
-5.68
-7.64
-9.52
-11.28
-13.01
-14.92
-17.22
-20.02
-23.33
-26.96
-30.52
-33.48
-35.21
-35.19
-33.06
-28.87
-23.12
-16.61
-10.3
-4.9
-0.71
2.43
5.03
7.5
10.03
12.36
14.05
14.73
14.32
13.19
11.99
11.34
11.61
12.7
14.23
15.72
16.85
17.57
18.04
18.41
18.6
18.24
16.84
14.09
10.16
5.73
1.66
-1.29
-2.9
-3.51
-3.79
-4.34
-5.44
-7.0
-8.69
-10.22
-11.47
-12.49
-13.49
-14.68
-16.34
-18.66
-21.8
-25.65
-29.84
-33.68
-36.31
-36.97
-35.23
-31.09
-25.05
-17.86
-10.42
-3.57
2.1
6.29
9.07
10.72
11.65
12.24
12.71
13.13
13.45
13.61
13.62
13.6
13.73
14.17
15.0
16.15
17.43
18.54
19.24
19.38
18.93
17.99
16.69
15.1
13.26
11.2
8.98
6.74
4.61
2.69
0.97
-0.66
-2.36
-4.22
-6.28
-8.48
-10.73
-12.91
-14.98
-17.01
-19.25
-22.08
-25.78
-30.29
-35.11
-39.31
-41.82
-41.86
-39.19
-34.21
-27.71
-20.62
-13.69
-7.43
-2.06
2.37
5.93
8.72
10.9
12.6
13.85
14.68
15.1
15.21
15.25
15.48
16.16
17.38
19.01
20.75
22.27
23.29
23.72
23.56
22.89
21.73
20.1
17.98
15.51
12.94
10.56
8.55
6.92
5.4
3.69
1.53
-1.13
-4.13
-7.17
-10.01
-12.47
-14.57
-16.47
-18.45
-20.84
-23.92
-27.74
-32.04
-36.18
-39.28
-40.48
-39.17
-35.29
-29.27
-21.96
-14.36
-7.26
-1.1
4.11
8.54
12.39
15.62
18.03
19.4
19.71
19.27
18.65
18.41
18.88
20.03
21.53
22.96
24.07
24.74
25.07
25.18
25.08
24.7
23.93
22.65
20.88
18.77
16.51
14.27
12.13
10.03
7.86
5.52
3.01
0.39
-2.17
-4.59
-6.84
-9.01
-11.18
-13.47
-15.95
-18.71
-21.89
-25.63
-29.93
-34.45
-38.49
-41.12
-41.46
-39.09
-34.2
-27.5
-20.01
-12.68
-6.12
-0.56
4.09
8.05
11.53
14.6
17.22
19.24
20.56
21.22
21.4
21.49
21.82
22.62
23.87
25.37
26.81
28.01
28.87
29.42
29.64
29.43
28.66
27.23
25.13
22.57
19.82
17.2
14.92
13.05
11.48
10.04
8.51
6.75
4.66
2.2
-0.6
-3.67
-6.86
-9.94
-12.7
-15.03
-16.99
-18.89
-21.12
-24.1
-28.02
-32.78
-37.93
-42.69
-46.13
-47.35
-45.76
-41.26
-34.33
-25.91
-17.09
-8.85
-1.84
3.77
8.12
11.54
14.38
16.81
18.89
20.52
21.6
22.13
22.26
22.29
22.56
23.31
24.55
26.04
27.45
28.42
28.8
28.64
28.13
27.5
26.82
26.01
24.9
23.35
21.4
19.26
17.25
15.58
14.24
12.99
11.48
9.52
7.15
4.68
2.47
0.72
-0.68
-2.03
-3.7
-5.89
-8.51
-11.34
-14.08
-16.57
-18.88
-21.21
-23.85
-26.98
-30.62
-34.53
-38.29
-41.31
-42.91
-42.53
-39.84
-34.88
-28.18
-20.52
-12.86
-5.98
-0.3
4.12
7.52
10.23
12.44
14.23
15.54
16.32
16.68
16.84
17.1
17.69
18.71
20.07
21.55
22.92
24.01
24.75
25.1
25.07
24.62
23.74
22.48
20.98
19.41
17.96
16.67
15.5
14.3
12.96
11.48
9.9
8.3
6.71
5.06
3.24
1.19
-1.02
-3.28
-5.47
-7.57
-9.65
-11.84
-14.21
-16.77
-19.46
-22.29
-25.35
-28.81
-32.71
-36.73
-40.2
-42.14
-41.66
-38.33
-32.43
-24.88
-16.85
-9.4
-3.11
1.94
6.02
9.42
12.28
14.5
15.89
16.38
16.11
15.45
14.9
14.86
15.47
16.57
17.81
18.88
19.62
20.12
20.5
20.86
21.15
21.19
20.79
19.92
18.62
17.06
15.36
13.63
11.88
10.13
8.41
6.74
5.14
3.55
1.88
0.03
-2.03
-4.29
-6.66
-8.98
-11.07
-12.82
-14.2
-15.36
-16.58
-18.2
-20.53
-23.71
-27.72
-32.2
-36.54
-39.91
-41.45
-40.57
-37.09
-31.42
-24.37
-16.94
-9.97
-4.0
0.77
4.42
7.11
9.02
10.37
11.36
12.19
12.96
13.67
14.29
14.8
15.28
15.96
17.06
18.7
20.76
22.95
24.84
26.05
26.41
25.93
24.83
23.34
21.71
20.01
18.2
16.24
14.09
11.87
9.75
7.85
6.13
4.43
2.59
0.55
-1.55
-3.47
-5.03
-6.26
-7.39
-8.71
-10.42
-12.5
-14.74
-16.91
-18.82
-20.52
-22.22
-24.23
-26.81
-30.04
-33.74
-37.34
-40.01
-40.82
-39.1
-34.71
-28.18
-20.57
-13.08
-6.64
-1.67
1.95
4.6
6.72
8.5
9.96
10.97
11.49
11.61
11.54
11.55
11.84
12.48
13.45
14.62
15.88
17.11
18.21
19.1
19.69
19.85
19.5
18.62
17.27
15.64
13.92
12.24
10.68
9.23
7.86
6.56
5.32
4.12
2.91
1.6
0.1
-1.7
-3.83
-6.2
-8.66
-10.97
-12.92
-14.44
-15.66
-16.91
-18.56
-20.88
-23.95
-27.56
-31.24
-34.38
-36.34
-36.55
-34.69
-30.76
-25.17
-18.63
-12.0
-6.03
-1.17
2.47
5.13
7.13
8.79
10.25
11.48
12.4
12.95
13.15
13.14
13.08
13.13
13.37
13.8
14.39
15.1
15.89
16.65
17.29
17.61
17.49
16.86
15.77
14.35
12.75
11.12
9.51
7.94
6.42
4.93
3.47
2.01
0.55
-0.96
-2.57
-4.28
-6.05
-7.76
-9.3
-10.6
-11.7
-12.81
-14.2
-16.14
-18.78
-22.05
-25.68
-29.17
-31.99
-33.64
-33.74
-32.14
-28.88
-24.19
-18.49
-12.33
-6.34
-1.13
2.87
5.55
7.08
7.91
8.49
9.11
9.79
10.34
10.54
10.33
9.95
9.74
10.04
10.97
12.37
13.91
15.21
15.99
16.2
15.92
15.32
14.55
13.66
12.62
11.35
9.83
8.14
6.47
5.04
3.95
3.08
2.14
0.84
-0.97
-3.18
-5.48
-7.49
-9.07
-10.32
-11.55
-13.12
-15.23
-17.85
-20.86
-24.11
-27.55
-31.1
-34.48
-37.11
-38.21
-37.12
-33.63
-28.14
-21.56
-14.95
-9.15
-4.48
-0.85
2.09
4.64
6.9
8.79
10.13
10.82
10.94
10.77
10.66
10.94
11.75
13.06
14.6
16.05
17.16
17.77
17.92
17.72
17.3
16.78
16.2
15.5
14.59
13.34
11.73
9.83
7.85
6.04
4.56
3.34
2.18
0.81
-0.91
-2.88
-4.82
-6.44
-7.69
-8.7
-9.85
-11.45
-13.66
-16.45
-19.67
-23.17
-26.8
-30.33
-33.39
-35.47
-35.96
-34.45
-30.82
-25.42
-18.95
-12.24
-6.06
-0.86
3.23
6.34
8.72
10.57
11.96
12.91
13.4
13.47
13.28
13.05
13.02
13.33
14.04
15.05
16.17
17.16
17.86
18.21
18.31
18.31
18.29
18.15
17.64
16.47
14.52
11.99
9.29
6.89
5.1
3.87
2.84
1.55
-0.31
-2.71
-5.38
-7.91
-9.98
-11.55
-12.75
-13.89
-15.25
-17.11
-19.64
-22.9
-26.8
-30.97
-34.75
-37.35
-38.03
-36.4
-32.52
-26.89
-20.32
-13.62
-7.41
-2.07
2.31
5.76
8.38
10.25
11.43
11.96
11.96
11.6
11.13
10.82
10.85
11.28
12.08
13.15
14.39
15.74
17.16
18.59
19.84
20.67
20.82
20.1
18.54
16.33
13.85
11.45
9.33
7.52
5.88
4.17
2.22
-0.01
-2.4
-4.75
-6.88
-8.69
-10.25
-11.78
-13.59
-15.92
-18.95
-22.62
-26.69
-30.79
-34.39
-36.86
-37.63
-36.23
-32.54
-26.8
-19.69
-12.12
-4.99
1.05
5.72
9.09
11.47
13.17
14.43
15.32
15.79
15.81
15.43
14.87
14.46
14.57
15.36
16.8
18.59
20.37
21.79
22.72
23.15
23.17
22.84
22.1
20.89
19.15
16.94
14.45
11.97
9.79
8.06
6.76
5.65
4.41
2.72
0.45
-2.32
-5.29
-8.11
-10.55
-12.51
-14.11
-15.59
-17.26
-19.41
-22.26
-25.88
-30.15
-34.7
-38.92
-42.09
-43.51
-42.69
-39.47
-34.12
-27.22
-19.61
-12.15
-5.54
-0.13
4.08
7.31
9.92
12.14
14.03
15.52
16.46
16.84
16.77
16.52
16.39
16.6
17.13
17.87
18.57
19.04
19.21
19.12
18.9
18.64
18.34
17.82
16.84
15.2
12.89
10.17
7.47
5.19
3.48
2.12
0.62
-1.44
-4.14
-7.09
-9.58
-10.97
-11.04
-10.21
-9.36
-9.48
-11.23
-14.64
-19.18
-23.89
-27.74
-29.85
-29.76
-27.37
-22.99
-17.14
-10.5
-3.75
2.5
7.81
11.92
14.85
16.76
17.94
18.68
19.15
19.41
19.47
19.36
19.21
19.21
19.54
20.29
21.36
22.52
23.46
23.85
23.5
22.41
20.75
18.81
16.84
14.97
13.16
11.31
9.33
7.21
5.02
2.81
0.56
-1.82
-4.4
-7.18
-10.01
-12.66
-14.95
-16.9
-18.77
-20.98
-23.92
-27.74
-32.22
-36.7
-40.21
-41.79
-40.77
-37.02
-30.97
-23.46
-15.47
-7.81
-1.03
4.61
9.08
12.44
14.81
16.33
17.2
17.57
17.61
17.41
17.09
16.8
16.72
17.04
17.8
18.93
20.21
21.35
22.1
22.3
21.89
20.86
19.27
17.21
14.83
12.37
10.01
7.87
5.87
3.83
1.59
-0.94
-3.7
-6.52
-9.23
-11.78
-14.23
-16.75
-19.5
-22.64
-26.22
-30.12
-34.03
-37.4
-39.53
-39.79
-37.76
-33.42
-27.21
-19.84
-12.18
-4.97
1.33
6.55
10.75
14.13
16.86
19.0
20.55
21.47
21.76
21.55
21.1
20.77
20.89
21.61
22.87
24.4
25.83
26.88
27.38
27.31
26.73
25.69
24.21
22.28
19.95
17.3
14.52
11.76
9.18
6.82
4.65
2.57
0.44
-1.84
-4.28
-6.74
-9.02
-11.02
-12.87
-15.06
-18.24
-22.94
-29.25
-36.63
-44.06
-50.33
-54.41
-55.69
-54.03
-49.65
-42.99
-34.61
-25.24
-15.63
-6.52
1.52
8.27
13.79
18.3
21.93
24.57
25.91
25.65
23.84
20.98
18.01
15.91
15.38
16.59
19.15
22.36
25.56
28.31
30.49
32.12
33.23
33.78
33.65
32.82
31.37
29.51
27.5
25.41
23.12
20.33
16.74
12.3
7.24
2.1
-2.61
-6.55
-9.67
-12.09
-13.92
-15.0
-15.02
-13.63
-10.78
-6.84
-2.64
0.79
2.49
1.79
-1.54
-7.28
-14.79
-23.07
-30.84
-36.75
-39.65
-38.93
-34.77
-28.04
-20.11
-12.39
-5.9
-1.05
2.35
4.81
6.93
9.09
11.38
13.68
15.73
17.35
18.5
19.27
19.86
20.42
20.98
21.49
21.85
22.01
22.01
21.91
21.72
21.33
20.55
19.17
17.05
14.18
10.77
7.19
4.01
1.88
1.4
2.89
6.31
11.14
16.47
21.2
24.33
25.16
23.45
19.42
13.66
6.98
0.19
-6.13
-11.73
-16.7
-21.44
-26.38
-31.79
-37.6
-43.27
-47.92
-50.57
-50.45
-47.32
-41.54
-33.98
-25.72
-17.76
-10.81
-5.18
-0.87
2.34
4.77
6.73
8.43
9.94
11.27
12.33
13.14
13.8
14.49
15.38
16.5
17.77
19.03
20.12
20.95
21.54
21.94
22.12
22.04
21.59
20.64
19.19
17.39
15.48
13.73
12.22
10.88
9.46
7.74
5.68
3.46
1.39
-0.29
-1.55
-2.61
-3.85
-5.55
-7.77
-10.3
-12.79
-14.96
-16.71
-18.18
-19.65
-21.42
-23.68
-26.53
-29.88
-33.56
-37.19
-40.24
-42.0
-41.76
-39.05
-33.89
-26.9
-19.09
-11.54
-5.05
0.04
3.83
6.62
8.73
10.32
11.48
12.3
12.91
13.47
14.14
14.97
15.96
17.03
18.06
18.97
19.74
20.39
20.99
21.59
22.18
22.62
22.73
22.33
21.38
19.92
18.19
16.43
14.88
13.67
12.77
12.0
11.15
10.01
8.48
6.6
4.52
2.39
0.32
-1.67
-3.62
-5.56
-7.51
-9.46
-11.43
-13.45
-15.53
-17.6
-19.51
-21.18
-22.63
-24.14
-26.09
-28.81
-32.33
-36.23
-39.67
-41.65
-41.35
-38.32
-32.7
-25.12
-16.65
-8.53
-2.03
1.83
2.56
0.35
-3.89
-8.78
-12.81
-14.82
-14.33
-11.52
-7.08
-1.83
3.48
8.45
12.9
16.79
20.08
22.7
24.56
25.66
26.08
25.98
25.51
24.72
23.54
21.88
19.67
17.08
14.32
11.75
9.55
7.73
6.14
4.52
2.7
0.66
-1.47
-3.53
-5.36
-6.89
-8.13
-9.17
-10.14
-11.19
-12.42
-13.87
-15.58
-17.58
-19.94
-22.78
-26.07
-29.59
-32.79
-34.95
-35.35
-33.61
-29.78
-24.43
-18.36
-12.4
-7.14
-2.81
0.69
3.58
6.07
8.21
9.89
10.94
11.25
10.89
10.17
9.49
9.25
9.65
10.7
12.19
13.8
15.26
16.41
17.18
17.6
17.68
17.4
16.69
15.49
13.87
11.96
10.01
8.19
6.61
5.21
3.88
2.46
0.85
-0.99
-3.03
-5.17
-7.3
-9.29
-11.08
-12.68
-14.21
-15.85
-17.74
-20.02
-22.72
-25.76
-28.91
-31.77
-33.8
-34.44
-33.31
-30.35
-25.85
-20.39
-14.6
-8.97
-3.82
0.69
4.5
7.57
9.9
11.59
12.8
13.69
14.37
14.88
15.22
15.45
15.66
16.06
16.8
17.88
19.21
20.54
21.63
22.27
22.3
21.59
20.08
17.72
14.61
10.97
7.18
3.77
1.15
-0.43
-1.06
-1.18
-1.35
-2.09
-3.65
-5.94
-8.57
-11.12
-13.27
-15.01
-16.53
-18.17
-20.24
-22.88
-26.12
-29.8
-33.65
-37.27
-40.13
-41.7
-41.53
-39.36
-35.23
-29.5
-22.82
-15.95
-9.62
-4.29
-0.07
3.31
6.35
9.49
12.9
16.43
19.65
22.22
23.96
24.95
25.42
25.51
25.23
24.45
23.09
21.21
19.06
16.93
15.0
13.3
11.7
10.01
8.19
6.27
4.36
2.51
0.67
-1.27
-3.45
-5.93
-8.58
-11.2
-13.54
-15.48
-17.11
-18.68
-20.51
-22.89
-25.97
-29.64
-33.49
-36.87
-38.96
-39.0
-36.58
-31.8
-25.28
-17.95
-10.76
-4.39
0.86
5.04
8.35
10.98
13.06
14.63
15.7
16.35
16.7
16.9
17.14
17.56
18.23
19.1
20.1
21.1
21.99
22.68
23.05
23.0
22.45
21.39
19.85
18.0
15.97
13.84
11.63
9.31
6.83
4.18
1.39
-1.45
-4.22
-6.78
-8.96
-10.69
-12.11
-13.56
-15.5
-18.35
-22.25
-26.99
-31.97
-36.38
-39.37
-40.27
-38.71
-34.77
-28.95
-21.97
-14.64
-7.62
-1.32
4.14
8.78
12.71
15.97
18.57
20.48
21.7
22.27
22.31
22.01
21.62
21.41
21.61
22.26
23.2
24.18
24.9
25.2
25.08
24.64
24.0
23.14
21.98
20.43
18.51
16.35
14.13
11.96
9.84
7.64
5.23
2.55
-0.35
-3.33
-6.19
-8.77
-11.0
-12.96
-14.92
-17.3
-20.51
-24.74
-29.72
-34.71
-38.62
-40.36
-39.25
-35.24
-28.89
-21.22
-13.26
-5.86
0.53
5.82
10.12
13.59
16.31
18.26
19.41
19.78
19.52
18.92
18.34
18.07
18.3
19.07
20.24
21.62
22.93
23.96
24.53
24.57
24.02
22.87
21.14
18.88
16.25
13.49
10.87
8.53
6.43
4.33
1.96
-0.82
-3.87
-6.86
-9.42
-11.38
-12.87
-14.3
-16.15
-18.76
-22.25
-26.41
-30.74
-34.54
-37.01
-37.42
-35.34
-30.76
-24.17
-16.44
-8.54
-1.33
4.58
8.9
11.71
13.3
14.16
14.79
15.57
16.63
17.85
19.04
20.07
20.95
21.83
22.82
23.86
24.79
25.37
25.51
25.28
24.81
24.24
23.54
22.56
21.16
19.31
17.16
14.93
12.83
10.95
9.21
7.44
5.47
3.19
0.59
-2.25
-5.2
-8.12
-10.85
-13.31
-15.56
-17.81
-20.41
-23.64
-27.6
-31.97
-36.02
-38.81
-39.55
-37.86
-33.95
-28.45
-22.18
-15.81
-9.74
-4.08
1.14
5.85
9.87
12.98
15.01
16.02
16.29
16.2
16.15
16.36
16.9
17.69
18.59
19.45
20.17
20.72
21.07
21.19
21.03
20.55
19.72
18.51
16.92
15.02
12.92
10.75
8.67
6.76
4.97
3.1
0.92
-1.68
-4.65
-7.72
-10.56
-12.93
-14.79
-16.4
-18.13
-20.39
-23.39
-27.18
-31.5
-35.82
-39.35
-41.23
-40.68
-37.38
-31.58
-24.17
-16.35
-9.33
-3.89
-0.19
2.23
4.26
6.87
10.75
16.18
22.85
30.04
36.8
42.26
45.76
47.02
46.1
43.35
39.33
34.7
30.14
26.17
23.07
20.82
19.14
17.68
16.14
14.32
12.24
10.04
7.93
6.14
4.81
3.97
3.48
3.09
2.52
1.55
0.12
-1.74
-3.95
-6.42
-9.08
-11.81
-14.43
-16.72
-18.56
-20.0
-21.27
-22.73
-24.68
-27.29
-30.5
-34.11
-37.77
-41.08
-43.53
-44.56
-43.68
-40.63
-35.51
-28.87
-21.5
-14.28
-7.85
-2.53
1.66
4.91
7.47
9.53
11.24
12.68
13.83
14.66
15.18
15.45
15.67
16.12
16.99
18.33
19.94
21.47
22.6
23.1
23.02
22.53
21.85
21.06
20.13
18.9
17.29
15.34
13.26
11.31
9.68
8.39
7.25
6.0
4.45
2.6
0.59
-1.38
-3.24
-5.05
-6.98
-9.16
-11.58
-14.08
-16.48
-18.66
-20.68
-22.77
-25.16
-27.99
-31.13
-34.09
-36.19
-36.73
-35.21
-31.6
-26.28
-19.99
-13.5
-7.45
-2.23
2.03
5.3
7.57
8.92
9.46
9.41
9.05
8.69
8.53
8.73
9.35
10.38
11.72
13.16
14.47
15.49
16.16
16.55
16.71
16.63
16.17
15.16
13.55
11.53
9.46
7.74
6.58
5.87
5.24
4.25
2.6
0.28
-2.48
-5.29
-7.84
-9.97
-11.76
-13.43
-15.25
-17.4
-19.93
-22.71
-25.46
-27.74
-29.05
-28.91
-27.03
-23.42
-18.44
-12.71
-7.0
-1.94
2.1
5.03
7.05
8.45
9.51
10.38
11.1
11.61
11.88
11.97
11.99
12.16
12.61
13.38
14.3
15.13
15.68
15.85
15.73
15.47
15.22
14.93
14.44
13.49
11.96
9.94
7.72
5.69
4.1
2.95
1.98
0.87
-0.66
-2.67
-5.01
-7.43
-9.66
-11.54
-13.08
-14.42
-15.77
-17.4
-19.5
-22.15
-25.29
-28.65
-31.84
-34.36
-35.69
-35.37
-33.19
-29.23
-23.91
-17.85
-11.76
-6.22
-1.59
1.99
4.57
6.38
7.67
8.71
9.68
10.59
11.39
11.98
12.34
12.58
12.9
13.46
14.26
15.18
15.99
16.53
16.74
16.65
16.33
15.84
15.14
14.19
12.94
11.43
9.73
7.95
6.23
4.63
3.18
1.85
0.57
-0.75
-2.18
-3.76
-5.5
-7.36
-9.3
-11.24
-13.12
-14.96
-16.86
-19.04
-21.63
-24.64
-27.8
-30.63
-32.5
-32.87
-31.43
-28.22
-23.53
-17.9
-11.96
-6.32
-1.46
2.36
5.16
7.14
8.56
9.64
10.46
11.01
11.25
11.22
11.06
11.02
11.24
11.78
12.52
13.27
13.84
14.15
14.24
14.18
14.05
13.86
13.52
12.86
11.79
10.32
8.6
6.87
5.35
4.11
3.02
1.85
0.39
-1.43
-3.49
-5.5
-7.18
-8.41
-9.29
-10.16
-11.4
-13.36
-16.13
-19.52
-23.01
-25.93
-27.61
-27.57
-25.68
-22.13
-17.4
-12.08
-6.7
-1.7
2.65
6.17
8.79
10.5
11.35
11.54
11.29
10.86
10.45
10.19
10.09
10.11
10.28
10.63
11.29
12.27
13.48
14.64
15.34
15.28
14.36
12.75
10.84
8.98
7.36
5.94
4.49
2.86
1.05
-0.8
-2.48
-3.89
-5.1
-6.31
-7.72
-9.41
-11.39
-13.57
-15.93
-18.47
-21.18
-23.93
-26.38
-27.99
-28.21
-26.62
-23.19
-18.29
-12.6
-6.9
-1.83
2.3
5.49
7.95
9.93
11.54
12.76
13.5
13.72
13.53
13.21
13.05
13.28
13.99
15.04
16.2
17.24
18.02
18.49
18.69
18.69
18.49
18.05
17.33
16.26
14.83
13.12
11.26
9.45
7.84
6.52
5.37
4.17
2.64
0.64
-1.73
-4.19
-6.39
-8.09
-9.31
-10.24
-11.17
-12.33
-13.84
-15.72
-18.04
-20.83
-24.02
-27.28
-30.01
-31.44
-30.89
-28.15
-23.53
-17.8
-11.92
-6.66
-2.43
0.75
3.14
5.06
6.75
8.32
9.72
10.86
11.65
12.12
12.34
12.51
12.83
13.42
14.32
15.39
16.43
17.23
17.67
17.73
17.47
16.99
16.37
15.67
14.95
14.25
13.62
13.03
12.4
11.56
10.32
8.66
6.71
4.78
3.17
2.04
1.27
0.56
-0.45
-1.96
-3.98
-6.29
-8.64
-10.81
-12.69
-14.29
-15.76
-17.36
-19.43
-22.23
-25.78
-29.72
-33.27
-35.49
-35.64
-33.4
-29.08
-23.38
-17.17
-11.19
-5.87
-1.41
2.2
4.99
7.07
8.55
9.61
10.41
11.09
11.69
12.16
12.49
12.67
12.84
13.18
13.85
14.86
16.09
17.28
18.17
18.56
18.38
17.72
16.7
15.42
13.96
12.41
10.85
9.36
7.98
6.73
5.6
4.57
3.6
2.59
1.41
-0.1
-2.02
-4.26
-6.55
-8.54
-10.01
-10.97
-11.75
-12.81
-14.56
-17.14
-20.39
-23.89
-27.1
-29.52
-30.68
-30.28
-28.17
-24.42
-19.37
-13.61
-7.85
-2.72
1.38
4.36
6.35
7.63
8.46
9.04
9.5
9.88
10.19
10.42
10.6
10.81
11.23
12.01
13.24
14.81
16.47
17.89
18.83
19.16
18.88
18.06
16.8
15.23
13.52
11.92
10.6
9.64
8.96
8.33
7.51
6.34
4.8
3.0
1.16
-0.53
-1.94
-3.09
-4.08
-5.1
-6.32
-7.88
-9.77
-11.91
-14.16
-16.42
-18.68
-21.05
-23.64
-26.54
-29.64
-32.61
-34.88
-35.82
-34.91
-31.92
-27.08
-20.98
-14.42
-8.15
-2.7
1.64
4.87
7.16
8.73
9.82
10.58
11.08
11.36
11.44
11.43
11.51
11.9
12.73
13.94
15.34
16.65
17.65
18.27
18.6
18.77
18.87
18.8
18.43
17.65
16.49
15.08
13.65
12.35
11.25
10.22
9.12
7.81
6.31
4.73
3.25
1.9
0.62
-0.81
-2.58
-4.71
-7.0
-9.13
-10.83
-12.03
-12.92
-13.84
-15.16
-17.07
-19.61
-22.63
-25.91
-29.07
-31.65
-33.12
-32.97
-30.9
-26.95
-21.57
-15.46
-9.41
-4.06
0.28
3.62
6.23
8.44
10.47
12.35
13.94
15.02
15.48
15.34
14.85
14.36
14.18
14.52
15.32
16.39
17.43
18.2
18.56
18.51
18.08
17.32
16.29
15.02
13.56
12.01
10.45
8.92
7.41
5.9
4.36
2.85
1.45
0.26
-0.74
-1.61
-2.53
-3.64
-5.05
-6.75
-8.64
-10.61
-12.54
-14.36
-16.08
-17.79
-19.67
-21.92
-24.67
-27.77
-30.76
-32.92
-33.5
-31.98
-28.33
-23.09
-17.09
-11.2
-6.03
-1.79
1.59
4.3
6.46
8.08
9.1
9.56
9.61
9.46
9.38
9.51
9.94
10.63
11.48
12.35
13.14
13.78
14.27
14.62
14.84
14.89
14.69
14.13
13.15
11.75
10.0
8.04
5.97
3.87
1.79
-0.26
-2.26
-4.17
-5.98
-7.7
-9.4
-11.17
-13.12
-15.24
-17.51
-19.83
-22.13
-24.46
-26.87
-29.43
-32.0
-34.31
-36.0
-36.77
-36.43
-34.73
-31.23
-25.21
-15.97
-3.28
12.15
28.64
43.94
55.96
63.41
66.03
64.41
59.47
52.15
43.26
33.56
23.98
15.49
8.94
4.74
2.73
2.22
2.36
2.43
2.07
1.31
0.37
-0.51
-1.2
-1.74
-2.22
-2.76
-3.43
-4.23
-5.12
-6.07
-7.04
-8.0
-8.94
-9.93
-11.02
-12.25
-13.63
-15.06
-16.46
-17.8
-19.17
-20.76
-22.8
-25.44
-28.68
-32.27
-35.74
-38.43
-39.63
-38.79
-35.63
-30.38
-23.64
-16.29
-9.22
-3.09
1.78
5.42
8.08
10.06
11.55
12.63
13.28
13.47
13.28
12.93
12.7
12.89
13.64
14.89
16.43
17.97
19.24
20.11
20.59
20.71
20.52
19.96
18.93
17.32
15.15
12.61
10.03
7.79
6.1
4.92
3.96
2.79
1.12
-1.08
-3.6
-6.11
-8.37
-10.36
-12.25
-14.26
-16.56
-19.25
-22.35
-25.81
-29.44
-32.83
-35.28
-36.03
-34.43
-30.36
-24.26
-17.05
-9.79
-3.35
1.88
5.94
9.08
11.58
13.57
15.08
16.08
16.56
16.59
16.33
15.99
15.82
16.05
16.85
18.18
19.84
21.47
22.76
23.55
23.86
23.84
23.57
23.05
22.09
20.55
18.42
15.87
13.24
10.86
8.89
7.29
5.8
4.11
1.99
-0.62
-3.59
-6.64
-9.46
-11.9
-13.97
-15.9
-17.98
-20.41
-23.3
-26.68
-30.43
-34.35
-38.05
-40.95
-42.31
-41.54
-38.3
-32.8
-25.69
-17.89
-10.33
-3.69
1.75
6.03
9.34
11.94
13.92
15.31
16.11
16.36
16.21
15.95
15.92
16.36
17.41
18.97
20.81
22.65
24.28
25.58
26.46
26.84
26.54
25.41
23.36
20.53
17.32
14.31
12.04
10.73
10.14
9.62
8.42
6.01
2.35
-2.1
-6.62
-10.55
-13.58
-15.76
-17.48
-19.23
-21.46
-24.44
-28.2
-32.48
-36.7
-40.0
-41.37
-40.02
-35.64
-28.66
-20.12
-11.34
-3.51
2.7
7.19
10.29
12.44
14.01
15.17
15.92
16.22
16.08
15.61
15.03
14.61
14.67
15.54
17.45
20.47
24.39
28.71
32.75
35.77
37.21
36.78
34.53
30.84
26.28
21.41
16.67
12.34
8.52
5.21
2.34
-0.19
-2.51
-4.71
-6.82
-8.8
-10.54
-11.98
-13.18
-14.41
-16.08
-18.63
-22.25
-26.78
-31.6
-35.76
-38.22
-38.22
-35.49
-30.39
-23.74
-16.57
-9.75
-3.79
1.16
5.2
8.43
10.93
12.67
13.62
13.91
13.79
13.68
13.94
14.82
16.32
18.23
20.18
21.81
22.9
23.42
23.54
23.44
23.19
22.62
21.46
19.47
16.65
13.33
9.99
7.09
4.84
3.11
1.52
-0.35
-2.75
-5.65
-8.79
-11.85
-14.58
-16.93
-19.07
-21.27
-23.83
-26.97
-30.79
-35.22
-40.0
-44.66
-48.56
-50.97
-51.28
-49.18
-44.8
-38.69
-31.72
-24.74
-18.44
-13.18
-9.08
-6.14
-4.37
-3.74
-4.02
-4.76
-5.11
-4.14
-1.08
4.32
11.57
19.45
26.3
30.5
30.92
27.39
20.88
13.24
6.67
3.04
3.21
6.81
12.39
18.09
22.28
24.09
23.55
21.38
18.43
15.42
12.56
9.76
6.86
3.95
1.41
-0.14
-0.28
0.95
2.86
4.41
4.61
3.0
-0.28
-4.67
-9.64
-14.94
-20.54
-26.33
-31.75
-35.77
-37.21
-35.3
-30.12
-22.62
-14.32
-6.75
-0.97
2.68
4.46
4.93
4.76
4.53
4.75
5.73
7.64
10.41
13.75
17.27
20.67
23.79
26.73
29.58
32.31
34.58
35.96
36.09
34.93
32.83
30.27
27.63
24.95
21.99
18.56
14.71
10.81
7.38
4.8
3.09
1.94
0.95
-0.17
-1.46
-2.79
-4.0
-5.09
-6.25
-7.85
-10.24
-13.64
-17.9
-22.47
-26.39
-28.57
-28.14
-24.82
-19.07
-11.95
-4.75
1.5
6.21
9.34
11.12
11.83
11.66
10.76
9.37
7.91
6.88
6.65
7.3
8.52
9.8
10.6
10.62
9.87
8.58
6.99
5.23
3.22
0.84
-2.02
-5.37
-9.14
-13.22
-17.56
-22.07
-26.73
-31.46
-36.26
-41.1
-45.96
-50.64
-54.83
-58.14
-60.36
-61.6
-62.42
-63.65
-66.06
-69.98
-74.99
-79.82
-82.53
-81.03
-73.76
-60.33
-41.87
-20.88
-0.49
16.54
28.7
36.07
40.03
42.5
45.14
48.66
52.74
56.29
58.23
58.16
56.74
55.59
56.56
60.94
68.84
79.13
89.97
99.38
105.47
106.4
100.46
86.65
65.46
39.39
12.55
-11.09
-29.27
-42.26
-52.1
-61.15
-70.74
-80.9
-90.87
-99.77
-107.26
-113.39
-118.29
-122.14
-125.82
-131.51
-142.1
-159.55
-182.41
-205.55
-221.71
-224.17
-209.24
-177.11
-131.29
-76.94
-19.36
37.42
88.78
129.09
153.27
159.98
153.35
141.38
131.71
127.58
129.18
132.58
132.86
127.92
121.17
120.21
132.39
160.57
201.8
253.33
310.14
364.9
409.45
438.11
449.77
447.52
436.62
422.51
415.08
421.31
442.25
473.68
510.21
547.88
583.65
613.99
597.69
511.98
366.02
197.96
47.95
-62.52
-131.48
-168.01
-184.29
-190.79
-189.36
-178.13
-157.43
-131.96
-108.08
-90.55
-81.96
-83.84
-92.32
-100.25
-101.96
-96.33
-86.82
-78.26
-73.8
-74.2
-78.51
-84.91
-89.34
-88.8
-83.41
-76.3
-71.29
-70.77
-75.12
-83.28
-93.46
-103.16
-110.71
-116.38
-122.2
-130.42
-142.29
-157.56
-174.95
-192.72
-209.19
-223.46
-235.82
-247.63
-260.71
-276.87
-297.44
-322.68
-351.17
-379.5
-402.59
-414.95
-412.73
-395.2
-365.18
-327.91
-289.08
-252.93
-221.4
-194.44
-171.01
-150.16
-131.4
-114.49
-99.06
-84.46
-70.01
-55.45
-41.11
-27.68
-15.92
-6.21
1.67
8.31
14.47
20.65
27.01
33.19
38.56
42.45
44.35
44.22
42.37
39.41
36.0
32.55
29.21
25.86
22.33
18.52
14.44
10.17
5.8
1.43
-2.72
-6.3
-8.85
-9.98
-9.59
-7.96
-5.59
-2.97
-0.3
2.58
5.95
9.95
14.32
18.52
22.02
24.59
26.51
28.38
30.72
33.55
36.37
38.38
38.97
38.15
36.64
35.57
35.91
37.92
40.92
43.54
44.26
42.2
37.43
30.97
24.29
18.58
14.28
10.92
7.56
3.34
-2.1
-8.48
-15.16
-21.39
-26.64
-30.51
-32.68
-32.84
-30.73
-26.42
-20.38
-13.49
-6.79
-1.02
3.66
7.65
11.69
16.44
22.25
29.09
36.66
44.57
52.34
59.47
65.37
69.47
71.44
71.34
69.72
67.28
64.64
62.03
59.34
56.27
52.7
48.82
45.1
42.08
40.19
39.43
39.46
39.63
39.3
38.1
36.07
33.71
31.65
30.33
29.67
29.08
27.79
25.22
21.34
16.64
11.84
7.44
3.53
-0.2
-4.22
-8.76
-13.7
-18.55
-22.84
-26.41
-29.52
-32.81
-36.89
-41.98
-47.64
-52.9
-56.68
-58.19
-57.34
-54.61
-50.57
-45.56
-39.38
-31.55
-21.89
-10.95
-0.18
8.56
13.76
14.99
13.12
9.95
7.38
6.61
7.81
10.24
12.85
14.74
15.49
15.07
13.62
11.34
8.42
5.13
1.88
-0.88
-2.88
-4.1
-4.77
-5.17
-5.52
-5.86
-6.13
-6.34
-6.57
-7.0
-7.74
-8.78
-9.96
-11.03
-11.75
-11.93
-11.49
-10.38
-8.59
-6.19
-3.29
-0.1
3.26
6.79
10.71
15.29
20.68
26.66
32.56
37.35
39.97
39.87
37.28
33.28
29.49
27.53
28.42
32.21
37.92
43.69
47.14
45.86
38.09
23.45
3.64
-17.62
-35.41
-45.38
-45.55
-37.43
-25.61
-15.92
-13.02
-18.55
-30.67
-45.12
-57.13
-63.07
-61.5
-53.1
-40.19
-25.92
-13.6
-5.84
-3.87
-7.09
-13.1
-18.53
-20.25
-16.56
-7.81
3.87
15.45
24.26
28.87
29.42
27.15
23.7
20.39
17.85
16.12
14.95
14.15
13.69
13.64
13.88
13.95
13.26
11.36
8.25
4.56
1.25
-0.81
-1.21
-0.24
1.31
2.51
2.66
1.54
-0.55
-3.0
-5.13
-6.49
-7.01
-7.0
-7.01
-7.56
-8.92
-10.97
-13.25
-15.28
-16.77
-17.75
-18.48
-19.11
-19.51
-19.23
-17.7
-14.58
-10.04
-4.69
0.66
5.33
9.01
11.81
14.0
15.74
16.95
17.31
16.56
14.67
12.0
9.21
7.04
6.03
6.39
7.99
10.42
13.25
16.07
18.55
20.41
21.39
21.31
20.14
18.04
15.3
12.24
9.11
6.05
3.15
0.48
-1.86
-3.76
-5.19
-6.22
-7.05
-7.96
-9.21
-10.97
-13.23
-15.81
-18.39
-20.58
-21.99
-22.32
-21.4
-19.27
-16.11
-12.23
-8.0
-3.81
-0.01
3.11
5.35
6.63
7.01
6.72
6.11
5.55
5.33
5.58
6.26
7.21
8.24
9.21
10.01
10.56
10.81
10.79
10.58
10.28
9.97
9.58
8.92
7.78
6.05
3.88
1.56
-0.58
-2.4
-3.97
-5.56
-7.43
-9.69
-12.26
-14.85
-17.15
-18.91
-20.01
-20.45
-20.22
-19.34
-17.76
-15.46
-12.52
-9.08
-5.4
-1.74
1.68
4.72
7.31
9.38
10.81
11.4
10.98
9.61
7.6
5.55
4.12
3.71
4.32
5.56
6.89
7.88
8.38
8.52
8.47
8.29
7.83
6.85
5.19
2.89
0.22
-2.52
-5.09
-7.5
-9.91
-12.52
-15.36
-18.15
-20.29
-21.12
-20.19
-17.58
-13.96
-10.32
-7.57
-6.11
-5.76
-5.88
-5.81
-5.15
-3.96
-2.53
-1.23
-0.31
0.08
-0.19
-1.26
-3.24
-5.96
-8.77
-10.49
-9.75
-5.46
2.62
13.68
26.03
37.67
46.94
52.91
55.46
54.99
52.08
47.24
41.04
34.08
27.14
20.89
15.73
11.6
8.03
4.48
0.68
-3.23
-6.64
-8.89
-9.55
-8.8
-7.4
-6.36
-6.61
-8.57
-12.15
-16.87
-22.08
-27.2
-31.72
-35.22
-37.27
-37.51
-35.75
-32.16
-27.24
-21.64
-15.96
-10.57
-5.53
-0.83
3.55
7.45
10.57
12.63
13.47
13.2
12.18
11.02
10.35
10.73
12.42
15.39
19.27
23.45
27.22
29.97
31.31
31.18
29.79
27.55
24.88
22.12
19.47
16.96
14.56
12.18
9.74
7.22
4.66
2.17
-0.12
-2.15
-3.96
-5.72
-7.67
-10.06
-13.03
-16.51
-20.28
-23.94
-26.98
-28.93
-29.46
-28.37
-25.67
-21.57
-16.36
-10.42
-4.22
1.7
6.85
10.83
13.52
15.08
15.87
16.31
16.67
17.05
17.38
17.62
17.75
17.85
17.95
18.05
18.07
17.98
17.84
17.79
17.94
18.27
18.52
18.33
17.36
15.42
12.65
9.41
6.16
3.32
1.07
-0.68
-2.21
-3.89
-6.02
-8.64
-11.6
-14.65
-17.61
-20.56
-23.74
-27.39
-31.51
-35.64
-38.94
-40.44
-39.38
-35.5
-29.17
-21.24
-12.72
-4.62
2.34
7.76
11.56
13.98
15.5
16.67
17.93
19.49
21.21
22.76
23.79
24.18
24.14
24.23
25.06
27.05
30.23
34.15
38.07
41.24
43.1
43.48
42.56
40.67
38.15
35.22
32.0
28.58
25.09
21.66
18.36
15.18
11.94
8.43
4.5
0.11
-4.65
-9.56
-14.4
-18.86
-22.62
-25.25
-26.32
-25.54
-22.89
-18.72
-13.66
-8.46
-3.69
0.39
3.77
6.59
8.87
10.46
11.1
10.63
9.15
7.1
5.12
3.82
3.59
4.49
6.23
8.35
10.37
11.85
12.55
12.39
11.47
10.01
8.25
6.45
4.86
3.65
2.93
2.73
2.84
2.94
2.63
1.55
-0.46
-3.31
-6.74
-10.43
-14.12
-17.66
-20.93
-23.71
-25.62
-26.2
-25.05
-22.07
-17.59
-12.25
-6.91
-2.21
1.51
4.33
6.55
8.44
10.09
11.38
12.05
11.92
11.04
9.71
8.36
7.38
6.91
6.85
6.97
7.01
6.89
6.67
6.54
6.6
6.87
7.17
7.3
7.04
6.3
5.11
3.58
1.86
0.08
-1.72
-3.51
-5.32
-7.19
-9.07
-10.93
-12.76
-14.65
-16.79
-19.38
-22.43
-25.63
-28.38
-29.89
-29.51
-26.95
-22.42
-16.59
-10.32
-4.48
0.32
3.74
5.8
6.7
6.79
6.48
6.13
5.99
6.17
6.62
7.21
7.79
8.29
8.79
9.43
10.38
11.67
13.19
14.67
15.76
16.17
15.72
14.4
12.43
10.19
8.13
6.55
5.45
4.62
3.7
2.39
0.63
-1.41
-3.47
-5.4
-7.25
-9.21
-11.47
-14.14
-17.11
-20.2
-23.2
-25.9
-28.05
-29.29
-29.25
-27.6
-24.21
-19.31
-13.44
-7.31
-1.56
3.38
7.36
10.45
12.77
14.43
15.47
15.96
15.99
15.82
15.7
15.86
16.34
17.05
17.79
18.42
18.92
19.41
19.99
20.68
21.29
21.51
21.08
19.89
18.12
16.16
14.48
13.4
13.07
13.31
13.72
13.64
12.3
8.94
3.13
-5.04
-14.75
-24.63
-33.15
-39.15
-42.22
-42.79
-41.81
-40.23
-38.62
-36.98
-34.9
-31.96
-27.95
-23.04
-17.69
-12.33
-7.23
-2.42
2.18
6.57
10.53
13.63
15.49
15.93
15.23
13.99
12.97
12.74
13.46
14.86
16.44
17.81
18.91
20.0
21.42
23.33
25.54
27.61
29.02
29.37
28.38
25.8
21.31
14.62
5.72
-4.82
-15.87
-25.89
-33.49
-37.88
-39.11
-37.94
-35.45
-32.68
-30.33
-28.76
-28.09
-28.33
-29.37
-30.96
-32.61
-33.66
-33.41
-31.35
-27.36
-21.78
-15.28
-8.75
-2.9
1.79
5.22
7.58
9.18
10.29
11.1
11.65
11.95
12.07
12.19
12.52
13.24
14.38
15.7
16.85
17.44
17.27
16.43
15.28
14.28
13.78
13.85
14.23
14.52
14.33
13.47
12.01
10.19
8.3
6.56
4.97
3.42
1.69
-0.41
-2.97
-5.91
-9.07
-12.17
-14.9
-17.0
-18.24
-18.53
-17.9
-16.59
-14.98
-13.48
-12.4
-11.85
-11.69
-11.66
-11.38
-10.58
-9.12
-6.97
-4.24
-1.16
1.88
4.4
5.99
6.51
6.25
5.87
6.11
7.47
9.87
12.8
15.47
17.3
18.09
18.07
17.65
17.15
16.66
16.1
15.33
14.37
13.3
12.26
11.2
9.96
8.33
6.19
3.63
0.88
-1.75
-4.08
-6.09
-7.91
-9.71
-11.63
-13.68
-15.74
-17.62
-19.09
-19.9
-19.85
-18.78
-16.63
-13.4
-9.23
-4.35
0.85
5.91
10.25
13.42
15.09
15.31
14.39
12.88
11.35
10.25
9.75
9.79
10.14
10.51
10.73
10.71
10.49
10.15
9.73
9.22
8.58
7.77
6.81
5.75
4.63
3.43
2.07
0.48
-1.26
-2.98
-4.44
-5.54
-6.28
-6.82
-7.3
-7.83
-8.46
-9.24
-10.29
-11.69
-13.43
-15.26
-16.78
-17.53
-17.22
-15.85
-13.64
-10.9
-7.92
-4.84
-1.75
1.25
3.97
6.1
7.38
7.68
7.1
5.93
4.54
3.23
2.18
1.44
1.01
0.92
1.24
2.02
3.23
4.68
6.07
7.06
7.38
6.89
5.57
3.52
0.97
-1.71
-4.13
-5.96
-7.1
-7.73
-8.24
-9.1
-10.62
-12.82
-15.46
-18.21
-20.77
-23.01
-24.81
-26.0
-26.31
-25.38
-23.06
-19.52
-15.3
-11.17
-7.87
-5.82
-5.04
-5.18
-5.71
-6.05
-5.77
-4.7
-2.9
-0.73
1.26
2.54
2.72
1.77
0.0
-2.1
-4.03
-5.42
-6.14
-6.29
-6.13
-5.95
-6.05
-6.59
-7.6
-8.9
-10.23
-11.3
-11.92
-12.07
-11.86
-11.46
-11.07
-10.88
-11.1
-11.92
-13.46
-15.72
-18.45
-21.26
-23.71
-25.43
-26.21
-25.95
-24.56
-21.91
-17.87
-12.49
-6.1
0.63
6.88
11.93
15.38
17.24
17.83
17.51
16.59
15.24
13.55
11.67
9.82
8.25
7.1
6.36
5.93
5.62
5.26
4.74
3.99
2.99
1.75
0.26
-1.43
-3.33
-5.36
-7.39
-9.13
-10.17
-10.12
-8.77
-6.3
-3.16
0.07
3.1
6.11
9.74
14.7
21.2
28.6
35.36
39.56
39.66
35.21
27.13
17.47
8.74
3.16
2.09
5.76
13.18
22.29
30.35
34.7
33.65
27.18
17.1
6.56
-1.13
-3.58
-0.09
8.22
18.92
29.04
35.78
37.24
32.82
23.47
11.46
-0.26
-9.03
-13.41
-13.71
-11.66
-9.55
-9.23
-11.43
-15.7
-20.88
-25.79
-29.72
-32.53
-34.5
-36.05
-37.61
-39.61
-42.52
-46.8
-52.61
-59.59
-66.91
-73.58
-78.9
-82.85
-86.04
-89.3
-93.19
-97.59
-101.75
-104.67
-105.42
-103.44
-98.6
-91.18
-81.97
-72.26
-63.82
-58.39
-57.14
-60.04
-65.54
-71.07
-73.81
-71.68
-64.01
-51.59
-36.07
-19.2
-2.22
14.27
29.92
44.15
56.0
64.35
68.6
69.19
67.56
65.75
65.44
67.26
70.63
74.13
76.34
76.36
74.18
70.47
66.09
61.66
57.34
52.83
47.57
41.07
33.22
24.42
15.61
8.0
2.71
0.4
1.02
3.92
8.11
12.62
16.8
20.32
23.1
25.05
26.02
25.71
23.87
20.49
15.93
10.95
6.56
3.73
3.03
4.44
7.36
10.9
14.3
17.27
20.04
23.1
26.7
30.58
33.98
35.97
35.97
34.05
30.83
27.2
23.88
21.19
19.1
17.37
15.8
14.15
12.25
9.76
6.25
1.37
-4.98
-12.5
-20.38
-27.54
-32.88
-35.44
-34.75
-30.84
-24.23
-15.78
-6.47
2.78
11.35
18.88
25.26
30.45
34.4
37.05
38.35
38.43
37.64
36.46
35.38
34.79
34.88
35.69
37.08
38.68
39.97
40.32
39.24
36.56
32.6
28.01
23.5
19.57
16.35
13.59
10.9
7.93
4.41
0.29
-4.38
-9.41
-14.44
-19.11
-23.15
-26.6
-29.87
-33.59
-38.36
-44.25
-50.65
-56.21
-59.32
-58.65
-53.7
-45.06
-34.17
-22.8
-12.49
-4.05
2.47
7.52
11.71
15.45
18.88
21.92
24.45
26.39
27.81
28.83
29.56
30.09
30.48
30.86
31.43
32.41
33.96
36.01
38.18
39.86
40.39
39.28
36.4
31.97
26.52
20.68
15.01
9.87
5.47
1.88
-0.91
-2.94
-4.38
-5.58
-7.04
-9.29
-12.72
-17.33
-22.69
-28.11
-32.85
-36.37
-38.41
-38.89
-37.68
-34.58
-29.4
-22.13
-13.16
-3.17
6.91
16.2
23.97
29.73
33.29
34.79
34.67
33.64
32.39
31.41
30.77
30.23
29.45
28.25
26.75
25.28
24.2
23.67
23.61
23.71
23.58
22.89
21.43
19.14
16.15
12.71
9.12
5.62
2.32
-0.82
-3.87
-6.82
-9.51
-11.66
-13.07
-13.81
-14.34
-15.35
-17.46
-20.87
-25.16
-29.37
-32.37
-33.21
-31.49
-27.42
-21.6
-14.75
-7.54
-0.41
6.31
12.31
17.26
20.81
22.71
22.94
21.71
19.48
16.8
14.19
12.0
10.39
9.39
8.94
8.95
9.34
10.05
11.0
12.1
13.21
14.17
14.82
15.09
14.94
14.44
13.66
12.59
11.16
9.25
6.85
4.1
1.23
-1.54
-4.16
-6.72
-9.36
-12.11
-14.83
-17.27
-19.24
-20.79
-22.19
-23.8
-25.76
-27.88
-29.58
-30.09
-28.82
-25.51
-20.48
-14.45
-8.33
-2.95
1.21
4.16
6.25
7.96
9.61
11.24
12.62
13.4
13.3
12.31
10.75
9.1
7.87
7.4
7.72
8.63
9.79
10.89
11.75
12.28
12.44
12.16
11.35
9.93
7.88
5.34
2.52
-0.32
-2.91
-5.06
-6.69
-7.88
-8.85
-9.87
-11.15
-12.74
-14.5
-16.2
-17.7
-19.02
-20.4
-22.09
-24.16
-26.36
-28.11
-28.72
-27.65
-24.72
-20.28
-14.98
-9.6
-4.76
-0.79
2.28
4.54
6.07
6.9
7.03
6.59
5.84
5.09
4.62
4.55
4.86
5.49
6.37
7.51
8.8
9.97
10.58
10.14
8.41
5.55
2.2
-0.76
-2.63
-3.11
-2.5
-1.52
-0.95
-1.31
-2.69
-4.84
-7.37
-9.95
-12.43
-14.74
-16.85
-18.61
-19.91
-20.61
-20.67
-20.06
-18.72
-16.6
-13.6
-9.74
-5.17
-0.2
4.74
9.19
12.76
15.22
16.57
17.05
17.06
17.06
17.41
18.23
19.41
20.64
21.52
21.71
21.11
19.95
18.77
18.19
18.68
20.35
22.79
25.16
26.36
25.28
20.95
12.91
1.34
-12.69
-27.27
-40.09
-48.98
-52.67
-51.18
-45.78
-38.46
-31.23
-25.49
-21.75
-19.82
-19.16
-19.19
-19.5
-19.89
-20.18
-20.1
-19.31
-17.41
-14.21
-9.81
-4.72
0.28
4.39
6.99
7.83
7.11
5.32
3.06
0.86
-0.96
-2.3
-3.24
-3.82
-4.04
-3.8
-2.89
-1.21
1.14
3.76
6.13
7.74
8.35
8.06
7.24
6.33
5.56
4.88
3.99
2.48
0.15
-2.9
-6.24
-9.3
-11.57
-12.86
-13.35
-13.62
-14.39
-16.31
-19.57
-23.75
-27.82
-30.46
-30.56
-27.7
-22.49
-16.49
-11.61
-9.39
-10.31
-13.62
-17.59
-20.31
-20.59
-18.57
-15.72
-14.17
-15.74
-20.91
-28.53
-36.18
-41.19
-41.93
-38.51
-32.84
-27.86
-26.52
-30.84
-41.31
-56.41
-72.47
-83.82
-84.11
-68.81
-37.89
2.52
41.33
65.96
67.42
44.14
2.89
-43.85
-82.49
-102.62
-99.57
-74.51
-33.03
17.14
67.84
111.85
143.99
161.72
165.27
156.95
140.03
117.67
92.38
66.17
40.79
17.77
-2.15
-19.64
-36.39
-53.77
-71.08
-84.91
-90.42
-84.08
-66.29
-42.32
-20.85
-10.59
-16.8
-39.44
-73.56
-111.28
-144.11
-165.04
-169.75
-157.78
-132.96
-103.12
-77.79
-64.81
-67.57
-83.42
-104.94
-122.41
-128.23
-119.7
-99.39
-73.29
-48.23
-29.69
-20.03
-17.97
-17.92
-13.5
-0.19
23.2
54.77
90.73
126.96
160.28
189.01
214.49
237.36
256.52
270.02
277.28
280.35
283.03
289.28
301.09
320.14
344.43
368.45
385.63
391.38
384.91
368.52
346.47
306.76
246.86
174.91
105.37
49.24
9.35
-16.51
-32.13
-40.36
-43.19
-39.82
-30.78
-19.38
-9.51
-3.95
-3.09
-6.08
-11.16
-16.77
-20.26
-21.14
-21.59
-25.66
-37.78
-55.67
-77.52
-101.18
-124.74
-145.95
-164.17
-180.53
-197.16
-216.17
-238.8
-266.18
-298.09
-332.57
-364.94
-389.24
-400.02
-394.2
-372.34
-338.32
-298.6
-259.1
-223.52
-192.44
-164.66
-138.79
-114.43
-92.21
-72.85
-56.68
-42.85
-29.87
-16.62
-2.95
10.28
21.63
29.98
35.11
37.63
38.8
39.91
41.71
44.15
46.47
47.63
46.82
43.88
39.27
34.06
29.41
26.09
24.15
22.81
20.96
17.55
12.09
4.86
-3.23
-10.96
-17.14
-20.96
-22.0
-20.24
-15.93
-9.56
-1.78
6.56
14.59
21.56
27.0
30.88
33.44
35.13
36.3
37.19
37.85
38.24
38.33
38.19
37.98
38.01
38.54
39.76
41.68
44.0
46.23
47.85
48.55
48.25
47.17
45.53
43.49
41.04
38.13
34.87
31.46
28.21
25.26
22.49
19.58
16.27
12.51
8.62
5.06
2.09
-0.45
-3.19
-6.84
-11.82
-17.82
-23.92
-28.81
-31.35
-30.96
-27.73
-22.28
-15.4
-7.85
-0.17
7.26
14.18
20.35
25.55
29.53
32.11
33.22
32.97
31.76
30.22
29.01
28.66
29.28
30.65
32.22
33.44
33.85
33.11
31.12
27.92
23.77
19.19
14.75
10.98
8.11
6.02
4.36
2.75
0.99
-0.9
-2.76
-4.5
-6.25
-8.26
-10.87
-14.32
-18.73
-23.98
-29.64
-35.01
-39.08
-40.81
-39.41
-34.75
-27.44
-18.67
-9.77
-1.69
5.23
11.2
16.58
21.53
25.8
28.93
30.57
30.78
30.0
28.95
28.2
28.07
28.53
29.35
30.27
31.06
31.61
31.82
31.59
30.85
29.48
27.41
24.62
21.2
17.34
13.34
9.57
6.29
3.54
1.13
-1.37
-4.35
-8.11
-12.62
-17.62
-22.65
-27.23
-30.88
-33.09
-33.41
-31.45
-27.05
-20.47
-12.38
-3.75
4.58
12.06
18.55
24.17
28.93
32.62
34.85
35.36
34.31
32.3
30.18
28.65
27.98
27.91
27.96
27.75
27.18
26.44
25.78
25.28
24.72
23.71
21.86
19.05
15.47
11.51
7.58
3.92
0.57
-2.61
-5.77
-9.06
-12.59
-16.43
-20.62
-25.09
-29.51
-33.36
-35.94
-36.64
-35.07
-31.29
-25.67
-18.85
-11.5
-4.22
2.54
8.49
13.39
17.08
19.43
20.39
20.1
18.9
17.3
15.85
15.05
15.15
16.14
17.71
19.4
20.76
21.46
21.37
20.62
19.47
18.17
16.8
15.28
13.41
11.1
8.42
5.66
3.11
0.89
-1.14
-3.36
-6.13
-9.64
-13.81
-18.32
-22.69
-26.35
-28.74
-29.39
-27.97
-24.41
-18.99
-12.27
-5.02
2.0
8.22
13.42
17.73
21.43
24.79
27.83
30.27
31.67
31.73
30.55
28.67
26.91
25.97
26.14
27.12
28.26
28.93
28.78
27.86
26.49
25.0
23.5
21.91
20.02
17.68
14.97
12.16
9.59
7.47
5.79
4.3
2.62
0.42
-2.46
-5.95
-9.79
-13.66
-17.28
-20.52
-23.36
-25.82
-27.79
-28.97
-28.98
-27.52
-24.58
-20.54
-16.02
-11.61
-7.62
-3.99
-0.42
3.34
7.23
10.85
13.61
15.07
15.2
14.38
13.27
12.51
12.48
13.14
14.19
15.26
16.05
16.5
16.67
16.62
16.29
15.48
14.04
12.01
9.7
7.56
5.91
4.76
3.81
2.64
0.97
-1.15
-3.41
-5.46
-7.12
-8.49
-9.87
-11.57
-13.71
-16.22
-18.94
-21.66
-24.21
-26.37
-27.77
-27.96
-26.56
-23.42
-18.87
-13.53
-8.17
-3.39
0.61
3.94
6.88
9.6
12.04
13.95
15.07
15.34
15.01
14.53
14.4
14.92
16.08
17.53
18.84
19.61
19.65
19.07
18.15
17.21
16.44
15.77
14.95
13.69
11.86
9.55
7.15
5.06
3.48
2.27
0.98
-0.81
-3.26
-6.06
-8.61
-10.42
-11.39
-11.96
-12.8
-14.44
-17.0
-20.17
-23.46
-26.44
-28.86
-30.59
-31.47
-31.29
-29.85
-27.16
-23.5
-19.37
-15.29
-11.61
-8.42
-5.69
-3.32
-1.29
0.37
1.61
2.39
2.77
2.87
2.84
2.84
3.0
3.37
3.96
4.7
5.5
6.24
6.79
7.06
6.99
6.58
5.9
5.07
4.21
3.39
2.64
1.96
1.31
0.68
0.04
-0.7
-1.65
-2.89
-4.44
-6.19
-7.95
-9.55
-10.96
-12.27
-13.71
-15.46
-17.58
-19.89
-21.98
-23.37
-23.6
-22.47
-20.05
-16.7
-12.95
-9.29
-6.01
-3.17
-0.64
1.71
3.87
5.63
6.72
6.92
6.25
5.03
3.78
3.01
3.03
3.81
5.07
6.37
7.36
7.85
7.84
7.44
6.81
6.15
5.62
5.37
5.47
5.92
6.61
7.3
7.69
7.51
6.59
4.94
2.77
0.38
-1.88
-3.73
-5.1
-6.07
-6.92
-7.98
-9.49
-11.56
-14.16
-17.14
-20.29
-23.33
-25.91
-27.61
-28.0
-26.78
-23.89
-19.63
-14.58
-9.51
-5.11
-1.87
0.05
0.81
0.7
0.12
-0.58
-1.12
-1.34
-1.21
-0.77
-0.1
0.71
1.66
2.75
3.97
5.25
6.43
7.4
8.06
8.4
8.47
8.34
8.01
7.47
6.71
5.75
4.64
3.41
2.1
0.7
-0.76
-2.17
-3.45
-4.57
-5.61
-6.8
-8.46
-10.75
-13.6
-16.67
-19.5
-21.73
-23.21
-24.02
-24.31
-24.11
-23.24
-21.49
-18.79
-15.4
-11.79
-8.5
-5.76
-3.46
-1.26
1.13
3.62
5.79
7.06
7.04
5.86
4.08
2.54
1.92
2.48
3.97
5.82
7.46
8.46
8.74
8.43
7.77
7.0
6.27
5.69
5.31
5.11
5.02
4.88
4.53
3.81
2.66
1.07
-0.86
-2.98
-5.11
-7.07
-8.77
-10.16
-11.41
-12.73
-14.39
-16.55
-19.18
-22.01
-24.55
-26.24
-26.6
-25.41
-22.74
-18.94
-14.53
-10.05
-5.89
-2.3
0.7
3.18
5.21
6.89
8.23
9.19
9.71
9.75
9.31
8.54
7.65
6.97
6.75
7.17
8.2
9.68
11.3
12.74
13.78
14.31
14.38
14.1
13.55
12.79
11.79
10.54
9.07
7.45
5.71
3.88
1.93
-0.13
-2.28
-4.38
-6.38
-8.26
-10.12
-12.13
-14.38
-16.83
-19.24
-21.21
-22.33
-22.27
-20.91
-18.35
-14.84
-10.74
-6.42
-2.23
1.55
4.73
7.24
9.02
10.17
10.75
10.84
10.47
9.68
8.6
7.48
6.71
6.58
7.18
8.28
9.45
10.24
10.41
10.03
9.32
8.51
7.67
6.64
5.19
3.22
0.8
-1.76
-4.09
-5.99
-7.45
-8.69
-10.06
-11.78
-13.92
-16.38
-18.9
-21.19
-23.0
-24.11
-24.39
-23.74
-22.1
-19.54
-16.2
-12.3
-8.11
-3.88
0.11
3.59
6.29
8.06
8.86
8.82
8.18
7.19
6.12
5.17
4.51
4.26
4.45
5.0
5.7
6.25
6.4
6.0
5.14
4.04
2.93
1.94
1.01
0.03
-1.15
-2.57
-4.15
-5.86
-7.72
-9.9
-12.59
-15.91
-19.75
-23.7
-27.15
-29.38
-29.84
-28.28
-24.88
-20.17
-14.88
-9.72
-5.07
-1.03
2.54
5.77
8.62
10.89
12.31
12.82
12.61
12.14
11.87
12.06
12.69
13.49
14.13
14.39
14.25
13.85
13.42
13.1
12.85
12.4
11.43
9.7
7.25
4.42
1.68
-0.58
-2.31
-3.77
-5.46
-7.84
-11.1
-15.09
-19.35
-23.22
-26.03
-27.26
-26.64
-24.19
-20.27
-15.37
-10.05
-4.74
0.25
4.79
8.8
12.2
14.9
16.91
18.28
19.15
19.7
20.04
20.22
20.25
20.13
19.91
19.7
19.59
19.62
19.74
19.76
19.5
18.85
17.87
16.73
15.65
14.77
14.03
13.21
12.02
10.24
7.9
5.18
2.41
-0.12
-2.32
-4.28
-6.28
-8.61
-11.51
-15.05
-19.1
-23.33
-27.2
-30.11
-31.48
-30.9
-28.24
-23.71
-17.82
-11.28
-4.85
0.87
5.46
8.86
11.23
12.89
14.13
15.13
15.9
16.4
16.6
16.68
16.93
17.61
18.8
20.33
21.85
22.98
23.55
23.59
23.26
22.73
22.06
21.15
19.82
17.88
15.34
12.36
9.26
6.4
4.05
2.27
0.95
-0.18
-1.4
-2.85
-4.55
-6.39
-8.26
-10.09
-11.96
-14.0
-16.39
-19.25
-22.52
-25.9
-28.91
-31.0
-31.73
-30.91
-28.56
-24.86
-20.05
-14.39
-8.23
-2.01
3.66
8.24
11.41
13.18
13.87
13.88
13.58
13.14
12.68
12.35
12.37
12.92
14.03
15.46
16.85
17.8
18.12
17.79
16.96
15.77
14.33
12.68
10.86
9.01
7.24
5.65
4.16
2.63
0.94
-0.93
-2.85
-4.64
-6.25
-7.76
-9.42
-11.47
-14.02
-17.02
-20.19
-23.16
-25.43
-26.56
-26.16
-24.05
-20.28
-15.19
-9.33
-3.34
2.22
6.9
10.48
12.94
14.41
15.15
15.5
15.73
16.06
16.51
16.95
17.19
17.07
16.57
15.85
15.16
14.72
14.64
14.88
15.31
15.8
16.25
16.55
16.53
15.99
14.82
13.08
11.03
9.07
7.5
6.35
5.4
4.25
2.58
0.31
-2.47
-5.52
-8.66
-11.8
-15.0
-18.28
-21.62
-24.81
-27.45
-29.04
-29.14
-27.54
-24.34
-20.03
-15.24
-10.53
-6.26
-2.54
0.7
3.51
5.86
7.62
8.66
8.89
8.4
7.43
6.39
5.69
5.68
6.45
7.78
9.1
9.76
9.16
6.99
3.25
-1.79
-7.72
-14.0
-20.02
-25.18
-28.94
-31.09
-31.77
-31.52
-31.09
-31.11
-31.76
-32.7
-33.21
-32.44
-29.87
-25.44
-19.66
-13.39
-7.59
-3.01
0.01
1.58
2.27
2.83
4.06
6.52
10.48
15.82
22.14
28.83
35.25
40.83
45.18
48.1
49.61
49.88
49.18
47.88
46.34
44.91
43.77
42.97
42.33
41.6
40.54
39.07
37.28
35.35
33.46
31.67
30.04
28.63
27.51
26.73
26.17
25.48
24.24
22.12
19.1
15.45
11.51
7.52
3.44
-0.84
-5.27
-9.37
-12.22
-12.76
-10.2
-4.39
4.09
14.06
24.01
32.43
38.01
39.71
36.92
29.5
17.85
2.95
-13.8
-30.87
-46.93
-61.1
-73.14
-83.24
-91.89
-99.48
-106.21
-111.97
-116.51
-119.72
-121.77
-123.1
-124.04
-124.32
-122.79
-117.65
-107.2
-90.79
-69.34
-45.25
-21.49
-0.57
16.26
28.97
38.11
43.97
46.26
44.44
38.49
29.5
19.7
11.57
6.94
6.22
8.36
11.51
13.85
14.39
13.09
10.67
8.06
5.93
4.47
3.44
2.36
0.67
-2.14
-6.44
-12.23
-19.07
-26.1
-32.2
-36.32
-37.85
-36.67
-33.16
-27.9
-21.53
-14.53
-7.2
0.22
7.6
14.8
21.73
28.23
34.08
38.95
42.54
44.79
46.04
46.97
48.37
50.66
53.64
56.56
58.38
58.37
56.46
53.26
49.7
46.49
43.77
41.08
37.79
33.56
28.68
23.96
20.26
18.02
16.93
16.14
14.71
12.08
8.35
4.15
0.3
-2.63
-4.61
-6.1
-7.78
-10.2
-13.54
-17.61
-21.95
-26.14
-29.85
-32.88
-34.97
-35.78
-34.95
-32.27
-27.85
-22.22
-16.2
-10.64
-6.07
-2.67
-0.21
1.66
3.2
4.44
5.23
5.46
5.18
4.74
4.59
5.07
6.17
7.52
8.65
9.2
9.18
8.93
8.85
9.15
9.62
9.79
9.17
7.56
5.13
2.4
-0.05
-1.88
-3.05
-3.84
-4.63
-5.67
-6.99
-8.4
-9.69
-10.71
-11.54
-12.41
-13.54
-15.03
-16.75
-18.5
-20.06
-21.4
-22.59
-23.66
-24.42
-24.34
-22.86
-19.6
-14.79
-9.22
-3.96
0.06
2.57
3.95
4.9
5.97
7.24
8.33
8.81
8.55
7.88
7.39
7.52
8.34
9.47
10.42
10.96
11.25
11.75
12.82
14.44
16.11
17.15
17.0
15.56
13.18
10.4
7.74
5.49
3.65
2.06
0.6
-0.82
-2.23
-3.63
-5.03
-6.46
-7.88
-9.26
-10.68
-12.25
-14.25
-16.84
-20.04
-23.55
-26.8
-29.06
-29.65
-28.16
-24.57
-19.27
-12.98
-6.54
-0.69
4.08
7.55
9.75
10.86
11.06
10.59
9.75
8.88
8.34
8.34
8.86
9.66
10.4
10.86
10.99
10.97
11.07
11.46
12.14
12.9
13.45
13.51
12.9
11.59
9.71
7.5
5.28
3.39
2.08
1.41
1.22
1.15
0.84
0.02
-1.35
-3.15
-5.19
-7.32
-9.49
-11.71
-13.96
-16.21
-18.43
-20.66
-22.99
-25.34
-27.41
-28.58
-28.13
-25.55
-20.83
-14.6
-7.88
-1.75
3.1
6.49
8.68
10.09
11.05
11.7
11.96
11.76
11.08
10.09
9.11
8.54
8.73
9.85
11.84
14.3
16.69
18.39
18.95
18.24
16.44
13.93
11.15
8.48
6.25
4.7
3.97
4.04
4.62
5.22
5.27
4.41
2.66
0.39
-1.83
-3.56
-4.66
-5.34
-6.0
-7.09
-8.9
-11.61
-15.16
-19.27
-23.45
-27.0
-29.21
-29.53
-27.78
-24.18
-19.31
-13.89
-8.58
-3.83
0.19
3.48
6.15
8.32
10.1
11.53
12.62
13.35
13.69
13.66
13.38
13.09
13.09
13.58
14.62
15.95
17.17
17.92
18.04
17.6
16.85
16.0
15.06
13.93
12.48
10.69
8.75
6.88
5.26
3.86
2.54
1.11
-0.53
-2.28
-3.93
-5.23
-6.08
-6.57
-7.0
-7.85
-9.52
-12.19
-15.71
-19.58
-23.1
-25.57
-26.5
-25.74
-23.42
-19.91
-15.67
-11.1
-6.5
-2.06
2.04
5.58
8.33
10.05
10.65
10.27
9.27
8.07
7.11
6.62
6.73
7.43
8.65
10.24
11.93
13.37
14.17
14.05
12.96
11.14
9.01
6.99
5.34
4.09
3.1
2.1
0.91
-0.55
-2.2
-3.91
-5.44
-6.58
-7.22
-7.43
-7.58
-8.17
-9.81
-12.81
-17.05
-21.87
-26.23
-29.06
-29.58
-27.6
-23.44
-17.81
-11.59
-5.63
-0.59
3.13
5.51
6.88
7.82
8.93
10.51
12.43
14.13
14.83
13.98
11.57
8.24
5.09
3.15
2.99
4.44
6.71
8.79
9.89
9.73
8.57
6.95
5.37
4.06
3.01
2.12
1.39
0.94
0.83
0.92
0.73
-0.38
-2.78
-6.34
-10.3
-13.61
-15.53
-16.13
-16.31
-17.34
-20.02
-24.17
-28.57
-31.55
-31.8
-28.99
-23.74
-17.31
-10.86
-5.12
-0.3
3.7
7.02
9.65
11.46
12.35
12.32
11.56
10.45
9.42
8.86
8.98
9.77
11.04
12.65
14.5
16.48
18.26
19.18
18.39
15.3
10.16
4.07
-1.27
-4.4
-4.7
-2.73
0.17
2.57
3.56
3.01
1.25
-1.21
-3.97
-6.79
-9.42
-11.63
-13.31
-14.57
-15.83
-17.5
-19.72
-22.1
-23.83
-23.96
-21.91
-17.68
-11.89
-5.43
0.87
6.48
11.14
14.77
17.3
18.66
18.89
18.26
17.23
16.3
15.81
15.79
16.03
16.26
16.38
16.51
16.88
17.66
18.78
19.9
20.6
20.47
19.31
17.14
14.15
10.65
7.03
3.69
1.01
-0.76
-1.6
-1.71
-1.48
-1.32
-1.53
-2.31
-3.7
-5.66
-8.07
-10.77
-13.52
-16.16
-18.58
-20.86
-23.15
-25.56
-28.01
-30.11
-31.28
-30.91
-28.6
-24.36
-18.64
-12.22
-5.97
-0.59
3.61
6.71
9.04
10.92
12.51
13.74
14.47
14.62
14.35
14.01
13.98
14.52
15.64
17.13
18.65
19.9
20.74
21.19
21.36
21.36
21.19
20.79
20.0
18.67
16.82
14.59
12.22
10.01
8.16
6.73
5.7
4.87
4.03
2.91
1.36
-0.72
-3.21
-5.99
-8.93
-12.04
-15.41
-19.01
-22.64
-25.74
-27.57
-27.47
-25.1
-20.64
-14.71
-8.14
-1.68
4.21
9.38
13.83
17.54
20.3
21.88
22.12
21.12
19.3
17.23
15.42
14.18
13.52
13.32
13.48
13.99
14.92
16.26
17.86
19.32
20.15
19.89
18.36
15.69
12.37
9.01
6.15
4.02
2.49
1.2
-0.24
-2.03
-4.14
-6.37
-8.55
-10.65
-12.78
-15.15
-17.94
-21.24
-25.0
-29.06
-33.13
-36.8
-39.62
-41.15
-41.09
-39.43
-36.47
-32.86
-29.36
-26.74
-25.52
-25.87
-27.6
-30.26
-33.4
-36.78
-40.44
-44.72
-50.03
-56.61
-64.25
-72.25
-79.56
-85.33
-89.72
-94.26
-101.56
-113.93
-131.68
-151.83
-168.31
-173.88
-162.95
-133.94
-90.07
-38.27
12.91
55.15
81.47
87.19
70.81
35.1
-12.51
-60.82
-97.58
-112.98
-103.23
-72.13
-29.67
11.61
41.45
55.6
56.84
53.01
53.12
62.83
81.92
105.18
125.69
138.52
142.9
141.41
137.4
133.16
128.1
119.87
106.83
90.02
73.16
60.87
56.44
60.52
72.92
91.78
114.59
139.2
164.6
190.64
217.07
242.6
264.85
283.53
298.13
308.01
312.96
314.07
313.74
314.46
317.59
322.72
330.87
340.72
348.58
349.78
341.35
323.51
299.33
273.0
227.97
158.82
72.61
-14.6
-88.35
-142.37
-177.17
-196.36
-204.25
-205.45
-201.38
-193.15
-183.03
-174.19
-169.2
-169.13
-174.16
-184.9
-198.61
-212.03
-223.66
-234.27
-246.4
-262.53
-283.53
-308.0
-332.49
-352.23
-361.42
-356.44
-337.49
-308.44
-274.85
-241.71
-211.97
-186.49
-164.65
-145.12
-127.18
-111.11
-97.64
-87.02
-78.66
-71.48
-64.54
-57.38
-50.03
-42.72
-35.63
-28.73
-21.78
-14.48
-6.71
1.37
9.46
17.16
24.29
30.81
36.65
41.57
45.22
47.29
47.76
46.98
45.48
43.79
42.24
40.85
39.52
38.22
37.11
36.4
36.17
36.2
35.99
35.07
33.2
30.59
27.8
25.39
23.72
22.69
21.81
20.46
18.22
15.07
11.38
7.83
5.01
3.19
2.11
1.14
-0.5
-3.31
-7.32
-12.1
-16.95
-21.18
-24.29
-25.99
-26.08
-24.42
-20.95
-15.9
-9.88
-3.81
1.37
5.08
7.28
8.47
9.31
10.27
11.39
12.32
12.66
12.12
10.83
9.21
7.77
6.96
7.01
7.87
9.32
11.03
12.67
13.98
14.78
15.01
14.65
13.68
12.1
9.95
7.34
4.5
1.71
-0.76
-2.77
-4.37
-5.79
-7.3
-9.2
-11.68
-14.83
-18.56
-22.64
-26.66
-30.0
-31.89
-31.66
-28.92
-23.83
-17.15
-10.01
-3.51
1.68
5.51
8.48
11.24
14.27
17.65
21.04
23.92
25.84
26.55
26.1
24.8
23.09
21.41
20.05
19.14
18.65
18.47
18.52
18.76
19.11
19.4
19.41
18.97
18.06
16.9
15.82
15.04
14.63
14.35
13.89
13.03
11.72
10.13
8.44
6.75
4.96
2.83
0.16
-3.08
-6.71
-10.43
-14.06
-17.56
-21.04
-24.49
-27.6
-29.69
-29.97
-27.95
-23.73
-18.04
-11.9
-6.18
-1.26
3.01
6.98
10.87
14.61
17.83
20.2
21.54
21.99
21.93
21.84
22.09
22.87
24.16
25.68
27.04
27.88
28.02
27.44
26.37
25.1
23.84
22.68
21.53
20.24
18.68
16.81
14.71
12.55
10.48
8.57
6.77
4.86
2.64
0.04
-2.73
-5.26
-7.15
-8.25
-8.78
-9.19
-9.95
-11.29
-13.2
-15.46
-17.9
-20.36
-22.68
-24.48
-25.19
-24.2
-21.22
-16.47
-10.72
-4.98
-0.05
3.8
6.84
9.61
12.6
15.94
19.38
22.47
24.86
26.45
27.41
27.98
28.38
28.65
28.71
28.46
27.9
27.15
26.37
25.65
24.97
24.22
23.26
22.04
20.53
18.82
16.95
14.99
13.03
11.15
9.45
7.99
6.71
5.48
4.1
2.37
0.21
-2.36
-5.2
-8.11
-10.84
-13.27
-15.3
-16.95
-18.4
-19.88
-21.73
-24.19
-27.42
-31.32
-35.48
-39.25
-41.79
-42.32
-40.38
-35.93
-29.51
-22.02
-14.46
-7.7
-2.19
2.01
5.14
7.53
9.42
10.89
11.92
12.46
12.62
12.59
12.67
13.1
14.0
15.28
16.76
18.26
19.63
20.81
21.72
22.29
22.38
21.92
20.93
19.54
17.98
16.44
15.05
13.84
12.77
11.77
10.7
9.41
7.74
5.6
3.04
0.25
-2.5
-4.92
-6.83
-8.25
-9.37
-10.49
-11.88
-13.74
-16.1
-18.88
-21.93
-25.02
-27.83
-29.97
-30.94
-30.29
-27.77
-23.52
-18.04
-12.1
-6.46
-1.65
2.1
4.8
6.61
7.7
8.21
8.31
8.18
7.98
7.83
7.76
7.76
7.82
7.93
8.16
8.56
9.19
10.02
10.91
11.63
11.95
11.69
10.83
9.56
8.14
6.86
5.85
5.14
4.61
4.17
3.75
3.3
2.78
2.08
1.12
-0.15
-1.71
-3.41
-5.13
-6.77
-8.33
-9.89
-11.66
-13.88
-16.7
-20.09
-23.7
-26.83
-28.68
-28.54
-26.14
-21.77
-16.24
-10.61
-5.72
-2.0
0.69
2.78
4.74
6.75
8.65
10.09
10.78
10.67
10.0
9.16
8.5
8.21
8.36
8.92
9.8
10.9
12.01
12.89
13.29
13.06
12.24
10.99
9.51
7.96
6.4
4.81
3.13
1.28
-0.82
-3.21
-5.83
-8.53
-11.06
-13.21
-14.9
-16.27
-17.64
-19.4
-21.76
-24.56
-27.28
-29.14
-29.43
-27.78
-24.33
-19.71
-14.73
-10.08
-6.09
-2.77
0.06
2.52
4.57
5.99
6.63
6.52
5.93
5.26
4.86
4.83
5.07
5.36
5.58
5.73
5.91
6.27
6.84
7.53
8.11
8.33
8.0
7.07
5.59
3.68
1.5
-0.78
-2.98
-4.98
-6.76
-8.44
-10.21
-12.25
-14.64
-17.29
-19.96
-22.26
-23.74
-24.0
-22.74
-19.87
-15.6
-10.35
-4.7
0.75
5.57
9.53
12.6
14.89
16.55
17.72
18.5
18.97
19.2
19.23
19.16
19.12
19.24
19.66
20.37
21.24
22.05
22.51
22.47
21.88
20.87
19.61
18.23
16.75
15.09
13.12
10.76
8.01
4.95
1.69
-1.68
-5.1
-8.45
-11.54
-14.12
-16.03
-17.36
-18.44
-19.73
-21.61
-24.09
-26.77
-28.97
-30.02
-29.52
-27.57
-24.64
-21.47
-18.68
-16.71
-15.6
-15.06
-14.59
-13.66
-11.82
-8.92
-5.13
-1.02
2.62
4.96
5.36
3.63
0.17
-4.13
-8.15
-10.85
-11.67
-10.7
-8.62
-6.43
-5.03
-4.83
-5.67
-6.89
-7.72
-7.66
-6.67
-5.13
-3.59
-2.5
-1.99
-1.97
-2.21
-2.49
-2.7
-2.76
-2.74
-2.77
-3.1
-3.87
-4.87
-5.36
-4.19
-0.27
6.97
17.2
29.25
41.45
52.11
59.76
63.32
62.15
56.11
45.8
32.62
18.62
5.98
-3.69
-9.85
-13.05
-14.55
-15.61
-16.96
-18.61
-20.09
-20.95
-21.09
-20.81
-20.62
-20.74
-21.05
-21.14
-20.81
-20.48
-21.22
-24.35
-30.84
-40.96
-54.47
-71.03
-90.38
-111.9
-133.94
-153.28
-165.8
-167.87
-158.02
-137.78
-110.98
-81.95
-53.73
-27.25
-1.98
22.64
46.03
66.42
81.76
90.88
94.13
92.99
89.14
83.62
76.53
67.4
56.04
43.07
30.1
19.23
12.25
9.84
11.27
14.64
17.63
18.42
16.26
11.65
5.87
0.27
-4.31
-7.7
-10.16
-11.93
-12.88
-12.66
-10.94
-7.92
-4.5
-1.94
-1.29
-2.8
-5.72
-8.61
-10.08
-9.62
-7.88
-6.39
-6.79
-9.93
-15.54
-22.45
-29.18
-34.55
-37.86
-38.68
-36.55
-30.89
-21.35
-8.35
6.74
21.81
34.84
44.71
51.63
56.83
61.72
67.06
72.56
77.06
79.26
78.33
74.44
68.55
62.07
56.19
51.57
48.17
45.53
43.07
40.4
37.39
34.09
30.52
26.63
22.48
18.35
14.98
13.37
14.35
18.1
23.76
29.59
33.45
33.62
29.39
21.4
11.38
1.58
-5.81
-9.38
-8.89
-5.34
-0.87
1.88
0.57
-5.97
-17.13
-30.49
-42.44
-49.47
-49.39
-42.18
-29.93
-15.89
-3.2
6.24
12.18
15.63
18.06
20.56
23.49
26.6
29.39
31.45
32.54
32.45
30.99
28.03
23.75
18.73
13.85
9.95
7.42
6.05
5.09
3.7
1.47
-1.25
-3.44
-3.87
-1.75
2.7
8.34
13.59
17.27
19.27
20.65
23.04
27.68
34.65
42.69
49.67
53.38
52.2
45.44
33.2
16.19
-4.33
-26.62
-48.54
-68.02
-83.54
-94.54
-101.43
-105.03
-105.89
-103.78
-97.86
-87.26
-72.06
-53.77
-35.26
-20.08
-11.55
-11.59
-19.9
-33.57
-47.31
-54.64
-49.7
-29.38
5.27
48.99
93.84
131.77
157.16
168.29
167.15
157.84
144.72
130.84
117.53
104.76
92.02
78.94
65.46
51.69
37.76
23.84
10.57
-0.71
-8.2
-10.39
-7.11
-0.07
7.44
11.65
9.84
1.35
-12.25
-27.89
-42.17
-52.32
-56.79
-55.26
-48.51
-38.14
-26.3
-15.25
-6.77
-1.76
0.04
-0.17
-0.71
0.08
3.22
8.84
15.93
22.49
25.93
23.86
14.98
-0.2
-19.39
-39.1
-55.79
-66.94
-71.63
-70.32
-64.23
-54.62
-42.41
-28.39
-13.51
0.87
13.18
22.15
27.26
28.95
28.34
26.7
24.95
23.45
22.15
20.78
19.1
16.95
14.23
10.85
6.72
1.97
-3.03
-7.76
-11.67
-14.4
-15.88
-16.24
-15.78
-14.77
-13.51
-12.28
-11.32
-10.78
-10.69
-10.98
-11.56
-12.38
-13.51
-15.0
-16.83
-18.78
-20.55
-21.79
-22.29
-22.01
-21.05
-19.61
-17.84
-15.93
-14.04
-12.27
-10.71
-9.38
-8.21
-7.07
-5.85
-4.52
-3.16
-1.96
-1.1
-0.65
-0.5
-0.44
-0.19
0.36
1.15
1.95
2.52
2.69
2.45
1.95
1.39
0.91
0.52
0.19
-0.15
-0.49
-0.84
-1.18
-1.53
-1.96
-2.5
-3.14
-3.82
-4.46
-5.01
-5.45
-5.87
-6.33
-6.9
-7.58
-8.38
-9.25
-10.12
-10.98
-11.83
-12.79
-13.98
-15.44
-16.98
-18.18
-18.55
-17.76
-15.79
-12.98
-9.8
-6.65
-3.69
-0.96
1.43
3.26
4.18
3.98
2.67
0.5
-2.33
-5.76
-9.87
-14.62
-19.57
-23.88
-26.52
-26.71
-24.25
-19.6
-13.69
-7.53
-1.97
2.43
5.44
7.11
7.72
7.71
7.6
7.83
8.64
10.1
12.14
14.61
17.3
19.88
21.9
22.89
22.46
20.49
17.07
12.37
6.42
-0.94
-9.9
-20.44
-32.01
-43.46
-53.36
-60.38
-63.76
-63.5
-60.33
-55.36
-49.72
-44.25
-39.4
-35.26
-31.7
-28.51
-25.49
-22.48
-19.34
-16.05
-12.66
-9.32
-6.29
-3.87
-2.27
-1.56
-1.55
-1.78
-1.69
-0.81
1.02
3.56
6.26
8.44
9.68
9.91
9.45
8.71
8.05
7.5
6.9
6.02
4.73
3.14
1.5
0.06
-1.03
-1.75
-2.23
-2.63
-3.19
-4.1
-5.58
-7.72
-10.42
-13.34
-15.87
-17.29
-16.91
-14.37
-9.77
-3.89
2.09
6.87
9.42
9.28
6.59
1.96
-3.68
-9.3
-13.9
-16.63
-16.97
-14.86
-10.82
-5.83
-1.01
2.78
5.22
6.56
7.38
8.29
9.57
11.17
12.74
13.88
14.28
13.81
12.59
10.94
9.25
7.9
7.13
6.99
7.29
7.64
7.63
6.99
5.61
3.66
1.46
-0.68
-2.5
-3.89
-4.87
-5.51
-5.99
-6.54
-7.49
-9.14
-11.65
-14.82
-18.05
-20.47
-21.22
-19.82
-16.39
-11.65
-6.62
-2.29
0.8
2.66
3.69
4.44
5.33
6.51
7.85
9.14
10.19
10.98
11.64
12.28
12.98
13.71
14.31
14.69
14.88
15.04
15.36
15.93
16.58
16.98
16.76
15.71
13.9
11.66
9.4
7.48
6.04
5.03
4.18
3.17
1.7
-0.38
-3.0
-5.87
-8.62
-10.91
-12.67
-14.07
-15.51
-17.35
-19.73
-22.48
-25.17
-27.32
-28.53
-28.55
-27.29
-24.77
-21.1
-16.49
-11.31
-6.05
-1.22
2.89
6.2
8.89
11.15
13.04
14.43
15.15
15.17
14.75
14.46
14.85
16.3
18.74
21.62
24.16
25.62
25.64
24.37
22.36
20.3
18.73
17.87
17.61
17.63
17.63
17.4
16.82
15.81
14.3
12.33
10.05
7.72
5.58
3.73
2.02
0.11
-2.27
-5.21
-8.5
-11.75
-14.61
-16.98
-19.02
-21.13
-23.6
-26.51
-29.54
-32.04
-33.32
-32.87
-30.62
-26.95
-22.52
-18.03
-13.89
-10.18
-6.72
-3.24
0.37
4.0
7.31
9.93
11.61
12.39
12.6
12.76
13.35
14.64
16.52
18.6
20.35
21.38
21.59
21.2
20.58
20.06
19.78
19.62
19.35
18.73
17.66
16.2
14.52
12.81
11.18
9.67
8.21
6.75
5.27
3.78
2.29
0.76
-0.87
-2.67
-4.64
-6.68
-8.65
-10.43
-12.05
-13.67
-15.56
-17.97
-21.04
-24.59
-28.23
-31.29
-33.05
-32.91
-30.6
-26.29
-20.53
-14.07
-7.64
-1.8
3.12
7.03
9.97
12.12
13.69
14.89
15.9
16.81
17.64
18.4
19.11
19.82
20.55
21.27
21.89
22.32
22.45
22.26
21.76
21.03
20.17
19.33
18.6
17.99
17.34
16.41
15.01
13.12
10.92
8.71
6.78
5.21
3.9
2.58
0.99
-0.97
-3.19
-5.46
-7.56
-9.38
-11.0
-12.58
-14.33
-16.39
-18.82
-21.65
-24.89
-28.42
-31.92
-34.81
-36.32
-35.77
-32.83
-27.7
-21.05
-13.8
-6.77
-0.52
4.73
8.97
12.31
14.86
16.66
17.76
18.2
18.1
17.63
17.02
16.53
16.37
16.6
17.16
17.93
18.68
19.19
19.26
18.76
17.65
16.04
14.17
12.26
10.4
8.49
6.33
3.77
0.92
-1.95
-4.48
-6.5
-8.14
-9.71
-11.53
-13.73
-16.25
-18.89
-21.42
-23.66
-25.41
-26.4
-26.25
-24.61
-21.28
-16.42
-10.56
-4.49
0.96
5.18
7.97
9.59
10.6
11.57
12.86
14.47
16.05
17.19
17.61
17.34
16.7
16.09
15.79
15.87
16.14
16.39
16.42
16.17
15.73
15.22
14.66
13.88
12.59
10.49
7.5
3.84
0.0
-3.47
-6.23
-8.28
-9.96
-11.74
-14.01
-16.93
-20.4
-24.19
-28.02
-31.57
-34.46
-36.22
-36.23
-34.02
-29.44
-22.8
-14.9
-6.75
0.7
6.93
11.78
15.43
18.08
19.81
20.57
20.31
19.21
17.66
16.2
15.31
15.25
16.02
17.39
19.05
20.68
22.03
22.89
23.12
22.61
21.38
19.57
17.39
15.08
12.77
10.49
8.15
5.67
3.04
0.34
-2.26
-4.66
-6.89
-9.08
-11.48
-14.3
-17.65
-21.54
-25.85
-30.3
-34.4
-37.43
-38.64
-37.4
-33.51
-27.32
-19.69
-11.71
-4.37
1.73
6.46
10.04
12.81
15.09
17.07
18.77
20.18
21.27
22.02
22.44
22.58
22.51
22.35
22.25
22.35
22.74
23.34
23.95
24.26
23.97
22.91
21.09
18.67
15.87
12.92
10.02
7.41
5.35
4.01
3.38
3.17
2.94
2.26
0.92
-1.02
-3.24
-5.48
-7.68
-10.07
-13.04
-16.92
-21.75
-27.16
-32.41
-36.55
-38.67
-38.15
-34.91
-29.41
-22.56
-15.45
-8.95
-3.55
0.75
4.21
7.17
9.82
12.16
14.05
15.42
16.23
16.57
16.55
16.3
15.97
15.74
15.86
16.56
17.99
20.14
22.83
25.76
28.5
30.6
31.65
31.36
29.62
26.6
22.76
18.69
14.99
12.05
9.97
8.53
7.29
5.73
3.42
0.21
-3.68
-7.78
-11.48
-14.29
-16.13
-17.35
-18.61
-20.59
-23.68
-27.79
-32.35
-36.45
-39.13
-39.62
-37.55
-33.07
-26.77
-19.53
-12.32
-5.95
-0.85
2.92
5.62
7.69
9.51
11.29
13.01
14.51
15.61
16.2
16.36
16.26
16.12
16.06
16.1
16.19
16.27
16.37
16.53
16.75
16.92
16.78
16.05
14.5
12.12
9.14
5.95
2.95
0.38
-1.69
-3.4
-4.92
-6.39
-7.81
-9.04
-9.93
-10.42
-10.64
-10.84
-11.33
-12.32
-13.9
-15.99
-18.44
-21.02
-23.38
-25.07
-25.53
-24.3
-21.11
-16.12
-9.82
-2.95
3.76
9.72
14.56
18.11
20.33
21.29
21.25
20.51
19.44
18.3
17.2
16.14
15.06
13.99
13.03
12.35
12.02
11.97
12.01
11.89
11.44
10.62
9.5
8.14
6.56
4.78
2.85
0.94
-0.72
-1.97
-2.78
-3.32
-3.87
-4.63
-5.68
-6.95
-8.34
-9.82
-11.49
-13.47
-15.83
-18.56
-21.43
-24.13
-26.24
-27.32
-26.96
-24.93
-21.25
-16.28
-10.61
-4.92
0.28
4.7
8.3
11.21
13.52
15.28
16.4
16.78
16.39
15.39
14.11
12.91
12.09
11.74
11.76
11.89
11.87
11.58
11.01
10.26
9.43
8.55
7.53
6.21
4.43
2.14
-0.57
-3.4
-5.99
-7.97
-9.16
-9.69
-9.9
-10.3
-11.35
-13.28
-16.04
-19.35
-22.82
-26.07
-28.86
-30.97
-32.2
-32.22
-30.7
-27.52
-22.91
-17.57
-12.43
-8.31
-5.58
-4.01
-2.97
-1.76
-0.01
2.19
4.38
6.01
6.72
6.56
5.88
5.22
5.05
5.56
6.66
7.98
9.06
9.54
9.38
8.74
7.95
7.26
6.73
6.21
5.51
4.49
3.13
1.49
-0.39
-2.53
-4.99
-7.82
-10.97
-14.21
-17.25
-19.77
-21.6
-22.81
-23.74
-24.86
-26.55
-28.85
-31.28
-33.02
-33.13
-31.07
-26.91
-21.39
-15.53
-10.27
-6.1
-3.01
-0.66
1.33
3.18
4.86
6.25
7.25
7.92
8.44
9.18
10.49
12.64
15.78
19.84
24.59
29.63
34.4
38.32
40.77
41.34
39.97
37.01
33.16
29.2
25.77
23.09
21.12
19.58
18.24
16.94
15.6
14.13
12.38
10.2
7.54
4.49
1.29
-1.79
-4.6
-7.18
-9.79
-12.74
-16.3
-20.46
-24.85
-28.78
-31.41
-32.02
-30.28
-26.44
-21.24
-15.68
-10.64
-6.66
-3.8
-1.79
-0.22
1.19
2.48
3.47
3.93
3.76
3.1
2.29
1.69
1.55
1.9
2.66
3.65
4.75
5.75
6.46
6.59
5.95
4.46
2.28
-0.35
-3.2
-6.2
-9.43
-12.99
-16.83
-20.71
-24.23
-27.01
-28.84
-29.74
-30.0
-30.15
-30.81
-32.54
-35.6
-39.76
-44.2
-47.66
-48.76
-46.44
-40.45
-31.51
-21.09
-10.9
-2.41
3.63
7.23
9.11
10.37
12.15
15.24
19.79
25.23
30.42
34.08
35.24
33.8
30.5
26.6
23.41
21.78
22.01
23.85
26.67
29.66
31.93
32.69
31.38
28.03
23.15
17.67
12.55
8.51
5.75
3.96
2.57
0.96
-1.26
-4.2
-7.63
-11.12
-14.12
-16.3
-17.59
-18.19
-18.33
-18.17
-17.75
-17.15
-16.49
-15.94
-15.59
-15.3
-14.74
-13.57
-11.71
-9.33
-6.78
-4.27
-1.74
1.07
4.33
7.87
11.2
13.7
14.98
15.1
14.41
13.44
12.57
11.97
11.74
11.94
12.66
13.88
15.42
16.86
17.74
17.8
17.06
15.83
14.47
13.19
11.99
10.7
9.16
7.37
5.49
3.72
2.16
0.77
-0.57
-1.98
-3.52
-5.13
-6.79
-8.58
-10.72
-13.49
-17.11
-21.5
-26.23
-30.55
-33.58
-34.56
-33.12
-29.4
-23.95
-17.63
-11.28
-5.53
-0.66
3.27
6.37
8.66
10.1
10.61
10.2
9.06
7.59
6.34
5.76
6.09
7.24
8.87
10.53
11.84
12.56
12.66
12.19
11.27
9.97
8.35
6.46
4.34
2.1
-0.2
-2.44
-4.52
-6.31
-7.73
-8.78
-9.61
-10.46
-11.6
-13.24
-15.44
-18.11
-21.02
-23.8
-25.96
-26.94
-26.22
-23.52
-19.01
-13.35
-7.52
-2.52
1.03
3.0
3.73
3.7
3.36
3.04
2.99
3.44
4.56
6.32
8.4
10.24
11.29
11.23
10.12
8.28
6.14
4.03
2.16
0.7
-0.09
0.06
1.32
3.62
6.57
9.62
12.22
14.01
14.89
15.0
14.55
13.74
12.69
11.38
9.74
7.63
4.94
1.59
-2.4
-6.92
-11.68
-16.21
-19.83
-21.87
-21.78
-19.44
-15.22
-9.94
-4.58
0.02
3.42
5.61
6.82
7.38
7.51
7.34
6.96
6.52
6.2
6.19
6.55
7.15
7.76
8.14
8.21
8.14
8.2
8.64
9.47
10.45
11.19
11.36
10.87
9.86
8.64
7.52
6.62
5.93
5.32
4.64
3.78
2.62
1.09
-0.87
-3.22
-5.81
-8.44
-10.97
-13.44
-16.03
-18.94
-22.19
-25.4
-27.85
-28.72
-27.45
-24.01
-18.95
-13.25
-7.95
-3.81
-1.13
0.24
0.82
1.22
1.92
3.16
4.86
6.69
8.28
9.35
9.88
10.15
10.57
11.53
13.2
15.4
17.63
19.27
19.76
18.92
16.94
14.37
11.78
9.62
7.99
6.73
5.62
4.54
3.54
2.7
2.0
1.21
0.02
-1.73
-3.93
-6.26
-8.39
-10.28
-12.18
-14.52
-17.58
-21.19
-24.69
-27.15
-27.75
-26.13
-22.46
-17.42
-11.85
-6.59
-2.24
0.84
2.65
3.44
3.68
3.92
4.56
5.7
7.12
8.37
9.04
8.99
8.4
7.63
7.06
6.84
6.92
7.12
7.27
7.26
7.05
6.62
5.96
5.08
4.02
2.86
1.69
0.54
-0.61
-1.79
-3.11
-4.61
-6.32
-8.23
-10.34
-12.63
-15.01
-17.32
-19.26
-20.41
-20.37
-18.91
-16.07
-12.23
-8.04
-4.16
-1.05
1.14
2.54
3.47
4.23
5.0
5.86
6.78
7.64
8.29
8.57
8.37
7.77
6.99
6.33
6.04
6.2
6.66
7.01
6.82
5.75
3.7
0.93
-2.13
-4.9
-6.9
-7.82
-7.65
-6.66
-5.58
-5.6
-8.13
-14.37
-24.63
-37.82
-51.53
-62.64
-68.5
-67.83
-61.13
-50.18
-37.11
-23.59
-10.47
1.89
13.11
22.38
28.66
31.19
29.96
25.91
20.56
15.47
11.73
9.68
9.05
9.2
9.51
9.5
8.98
8.03
7.0
6.4
6.72
8.19
10.58
13.22
15.26
16.06
15.46
13.83
11.8
10.0
8.77
8.09
7.64
7.0
5.75
3.67
0.75
-2.76
-6.41
-9.69
-12.19
-13.65
-13.97
-13.02
-10.68
-6.85
-1.7
4.18
9.78
14.01
16.13
16.08
14.51
12.53
11.17
11.0
11.88
13.15
13.98
13.77
12.39
10.19
7.78
5.76
4.44
3.81
3.66
3.72
3.85
4.04
4.25
4.33
3.96
2.82
0.72
-2.12
-5.16
-7.74
-9.42
-10.24
-10.71
-11.6
-13.54
-16.75
-20.96
-25.45
-29.32
-31.7
-31.95
-29.91
-25.95
-20.94
-16.0
-12.13
-9.86
-9.06
-9.1
-9.23
-8.91
-7.99
-6.61
-4.99
-3.24
-1.41
0.44
2.17
3.63
4.81
5.89
7.15
8.72
10.46
11.93
12.62
12.25
10.86
8.79
6.38
3.76
0.83
-2.53
-6.23
-9.84
-12.78
-14.65
-15.53
-15.96
-16.64
-18.02
-19.99
-21.96
-23.11
-22.75
-20.59
-16.76
-11.71
-6.02
-0.38
4.63
8.51
10.98
11.99
11.77
10.75
9.5
8.6
8.63
9.92
12.48
15.86
19.25
21.78
22.82
22.32
20.67
18.53
16.48
14.74
13.21
11.59
9.63
7.25
4.63
2.01
-0.38
-2.5
-4.5
-6.6
-8.96
-11.48
-13.77
-15.26
-15.42
-14.02
-11.25
-7.66
-3.97
-0.79
1.56
3.11
4.13
5.03
6.19
7.94
10.53
14.19
19.07
25.13
32.03
39.04
45.11
49.08
50.06
47.75
42.61
35.68
28.33
21.75
16.66
13.12
10.7
8.75
6.65
4.08
0.97
-2.53
-6.2
-9.81
-13.21
-16.26
-18.87
-20.94
-22.4
-23.19
-23.2
-22.33
-20.49
-17.72
-14.29
-10.61
-7.21
-4.49
-2.58
-1.21
0.12
1.88
4.28
7.09
9.82
11.95
13.25
13.85
14.14
14.5
15.08
15.75
16.27
16.44
16.29
16.03
15.92
16.07
16.41
16.6
16.26
15.14
13.22
10.81
8.39
6.45
5.31
4.95
5.16
5.52
5.52
4.59
2.2
-2.02
-8.05
-15.21
-22.26
-27.58
-29.84
-28.41
-23.62
-16.59
-8.79
-1.53
4.33
8.42
10.8
11.76
11.76
11.28
10.79
10.62
10.9
11.47
11.95
11.83
10.68
8.28
4.77
0.65
-3.34
-6.41
-7.88
-7.41
-5.09
-1.43
2.69
6.3
8.63
9.38
8.8
7.51
6.25
5.41
4.99
4.7
4.22
3.47
2.6
1.87
1.34
0.83
0.05
-1.2
-2.87
-4.74
-6.63
-8.58
-10.82
-13.58
-16.83
-20.07
-22.48
-23.19
-21.69
-18.0
-12.73
-6.83
-1.29
3.09
5.98
7.47
8.07
8.38
8.91
9.91
11.25
12.57
13.45
13.61
13.04
11.95
10.69
9.63
9.03
8.92
9.15
9.5
9.76
9.83
9.75
9.62
9.45
9.15
8.47
7.17
5.1
2.36
-0.75
-3.76
-6.21
-7.83
-8.57
-8.66
-8.56
-8.78
-9.8
-11.77
-14.46
-17.32
-19.74
-21.33
-22.04
-22.16
-21.95
-21.49
-20.59
-18.86
-16.14
-12.59
-8.77
-5.32
-2.67
-0.83
0.62
2.19
4.23
6.75
9.39
11.77
13.55
14.65
15.16
15.21
14.93
14.4
13.67
12.88
12.2
11.82
11.83
12.14
12.51
12.65
12.32
11.44
10.14
8.69
7.4
6.52
6.11
5.98
5.78
5.11
3.64
1.29
-1.76
-5.11
-8.33
-11.07
-13.2
-14.77
-15.94
-16.95
-17.94
-18.93
-19.76
-20.12
-19.53
-17.54
-13.92
-8.78
-2.7
3.35
8.25
10.99
11.11
8.78
4.87
0.63
-2.72
-4.43
-4.42
-3.2
-1.55
-0.04
1.23
2.59
4.39
6.59
8.56
9.28
7.93
4.53
0.14
-3.4
-4.43
-2.2
2.66
8.58
13.95
17.99
21.17
24.72
29.76
36.51
43.97
50.46
54.3
54.58
51.35
45.65
39.13
33.69
31.07
32.38
37.71
45.94
54.94
62.09
64.94
61.8
51.97
35.96
15.42
-7.04
-28.21
-44.95
-55.06
-57.97
-55.0
-48.85
-42.71
-39.12
-39.28
-42.83
-48.31
-53.92
-58.19
-60.46
-60.81
-59.76
-57.87
-55.41
-52.37
-48.66
-44.41
-40.13
-36.42
-33.76
-32.17
-31.24
-30.34
-28.92
-26.74
-23.96
-20.87
-17.79
-14.83
-11.93
-8.95
-5.91
-2.96
-0.41
1.45
2.55
3.02
3.21
3.49
4.12
5.26
6.91
8.91
10.96
12.61
13.36
12.92
11.35
9.17
7.22
6.26
6.66
8.25
10.36
12.26
13.41
13.64
13.07
11.94
10.47
8.78
6.93
4.97
2.91
0.69
-1.78
-4.46
-7.15
-9.48
-11.08
-11.82
-11.84
-11.49
-11.09
-10.7
-10.15
-9.12
-7.39
-5.03
-2.48
-0.4
0.58
0.17
-1.45
-3.58
-5.32
-5.86
-4.76
-2.21
1.07
4.18
6.39
7.42
7.55
7.33
7.36
7.87
8.8
9.77
10.35
10.33
9.66
8.53
7.09
5.46
3.7
1.83
-0.06
-1.82
-3.26
-4.18
-4.5
-4.28
-3.8
-3.46
-3.66
-4.67
-6.39
-8.39
-10.12
-11.16
-11.45
-11.31
-11.18
-11.34
-11.73
-12.02
-11.74
-10.61
-8.57
-5.81
-2.72
0.35
3.11
5.5
7.68
9.88
12.35
15.16
18.09
20.76
22.8
24.1
24.86
25.44
26.06
26.49
26.07
23.97
19.7
13.5
6.53
0.52
-2.85
-2.71
0.59
5.57
10.16
12.53
11.71
7.75
1.49
-5.98
-13.72
-21.1
-27.73
-33.21
-37.0
-38.58
-37.8
-35.11
-31.63
-28.91
-28.41
-30.89
-35.99
-42.3
-47.69
-50.24
-49.0
-44.46
-38.45
-33.34
-31.01
-32.02
-35.33
-38.88
-40.63
-39.63
-36.54
-33.29
-32.16
-34.64
-40.75
-49.0
-57.02
-62.65
-64.96
-64.57
-63.3
-63.57
-67.44
-76.06
-89.37
-106.05
-123.26
-136.57
-140.72
-131.54
-108.52
-76.54
-45.38
-26.37
-27.65
-50.08
-86.32
-123.58
-148.88
-154.02
-137.63
-104.13
-60.26
-11.97
36.93
84.26
128.32
166.13
193.59
207.33
206.84
196.15
182.5
173.2
172.33
180.01
191.37
199.18
197.65
185.37
167.19
151.29
145.3
153.24
175.78
208.83
244.98
276.41
297.14
306.39
306.7
302.1
296.41
294.06
296.74
302.98
309.2
310.99
307.07
297.78
284.28
255.47
208.24
148.5
88.2
42.41
8.84
-17.22
-39.81
-61.39
-83.04
-103.53
-122.36
-140.36
-159.26
-181.21
-205.86
-232.52
-260.9
-290.96
-320.42
-346.14
-364.75
-373.44
-371.2
-357.58
-334.34
-305.11
-274.05
-243.52
-214.76
-188.54
-165.64
-147.14
-132.8
-121.69
-112.4
-103.34
-92.84
-80.22
-66.02
-51.69
-39.06
-29.04
-21.75
-16.69
-13.0
-9.67
-6.04
-2.14
1.51
4.12
5.38
5.47
4.96
4.54
4.67
5.37
6.28
6.87
6.7
5.54
3.41
0.46
-3.02
-6.57
-9.49
-10.99
-10.4
-7.52
-2.76
2.94
8.42
12.75
15.58
17.16
18.14
19.24
20.84
22.88
24.95
26.53
27.31
27.28
26.71
25.95
25.26
24.73
24.33
23.98
23.69
23.53
23.59
23.86
24.28
24.67
24.81
24.44
23.39
21.59
19.22
16.65
14.3
12.45
11.1
9.96
8.62
6.74
4.29
1.52
-1.21
-3.68
-5.89
-8.14
-10.8
-14.13
-18.1
-22.26
-25.9
-28.15
-28.32
-26.12
-21.8
-16.11
-9.99
-4.31
0.44
4.26
7.42
10.32
13.2
16.03
18.58
20.53
21.67
21.98
21.64
20.99
20.41
20.13
20.26
20.7
21.25
21.71
21.94
21.87
21.49
20.72
19.51
17.84
15.81
13.7
11.77
10.16
8.76
7.23
5.24
2.66
-0.31
-3.24
-5.71
-7.51
-8.78
-9.9
-11.34
-13.42
-16.24
-19.64
-23.26
-26.58
-29.01
-29.91
-28.82
-25.54
-20.21
-13.41
-5.94
1.29
7.55
12.37
15.71
17.84
19.19
20.23
21.2
22.14
22.86
23.11
22.78
21.97
21.03
20.33
20.08
20.21
20.34
20.02
18.97
17.21
15.11
13.17
11.8
11.06
10.74
10.36
9.53
8.04
5.99
3.71
1.54
-0.3
-1.84
-3.28
-4.91
-6.92
-9.3
-11.94
-14.63
-17.24
-19.68
-21.78
-23.21
-23.51
-22.2
-19.06
-14.3
-8.59
-2.79
2.29
6.27
9.17
11.35
13.22
14.99
16.61
17.86
18.52
18.52
18.03
17.35
16.83
16.65
16.81
17.17
17.53
17.78
17.89
17.86
17.55
16.69
14.86
11.77
7.38
2.09
-3.32
-7.87
-10.73
-11.47
-10.27
-7.8
-5.11
-3.22
-2.88
-4.39
-7.58
-12.0
-17.06
-22.18
-26.74
-30.15
-31.83
-31.3
-28.36
-23.24
-16.56
-9.28
-2.37
3.42
7.7
10.52
12.16
13.0
13.32
13.2
12.56
11.23
9.1
6.18
2.68
-0.95
-4.1
-6.04
-6.1
-3.82
0.86
7.48
15.15
22.74
29.19
33.72
35.93
35.76
33.37
29.05
23.27
16.66
9.98
4.03
-0.6
-3.65
-5.32
-6.21
-7.02
-8.43
-10.79
-13.98
-17.48
-20.52
-22.32
-22.46
-21.0
-18.46
-15.52
-12.75
-10.34
-8.13
-5.81
-3.24
-0.54
1.98
3.96
5.24
5.89
6.11
6.14
6.15
6.23
6.43
6.76
7.22
7.76
8.33
8.88
9.29
