2013-06-20 12:53:18
64.0
-0.0
-0.0
-0.0
-0.0
-0.0
-0.0
-0.0
-0.0
-0.0
-0.0
0.0
0.01
0.01
-0.0
-0.03
-0.05
-0.05
0.0
0.13
0.36
0.66
1.01
1.37
1.72
2.06
2.4
2.79
3.24
3.8
4.42
5.06
5.66
6.2
6.68
7.15
7.68
8.31
9.14
10.09
11.04
11.88
12.56
13.14
13.76
14.65
15.96
17.91
20.32
22.9
25.38
27.58
29.57
31.68
34.32
37.81
42.54
48.15
54.1
59.83
64.97
69.58
74.14
79.34
85.71
93.76
103.0
112.62
121.73
129.77
136.75
143.3
150.75
157.77
166.64
177.95
191.79
206.97
220.57
228.25
225.36
208.53
176.87
132.76
80.05
23.07
-34.94
-92.44
-149.16
-205.23
-260.37
-313.74
-363.87
-409.83
-450.91
-486.5
-515.74
-537.23
-549.22
-549.96
-538.37
-514.21
-478.68
-433.88
-382.44
-326.99
-269.8
-212.6
-156.68
-103.06
-52.6
-6.25
35.15
70.96
100.9
125.08
143.98
158.26
168.63
175.73
179.98
181.73
181.22
178.71
174.51
168.94
162.37
155.12
147.48
139.67
131.88
124.2
116.65
109.17
101.65
94.02
86.3
78.63
71.25
64.43
58.31
52.86
47.81
42.8
37.51
31.86
26.08
20.61
15.95
12.39
9.82
7.78
5.59
2.69
-1.08
-5.37
-9.45
-12.59
-14.37
-14.88
-14.72
-14.65
-15.37
-17.32
-20.71
-25.38
-30.62
-34.98
-36.39
-32.75
-22.96
-7.73
10.32
27.47
40.31
47.07
48.13
45.52
41.73
38.5
36.27
34.51
32.38
29.51
26.17
23.06
20.77
19.45
18.76
18.0
16.6
14.44
11.88
9.57
8.04
7.4
7.24
6.85
5.66
3.6
1.16
-0.72
-1.2
0.12
2.89
6.2
8.92
10.23
9.86
8.16
5.8
3.48
1.62
0.27
-0.69
-1.49
-2.23
-2.94
-3.52
-3.92
-4.1
-4.07
-3.88
-3.52
-3.0
-2.29
-1.37
-0.3
0.89
2.1
3.25
4.32
5.31
6.35
7.64
9.38
11.61
14.12
16.44
17.95
18.18
16.78
13.86
9.85
5.37
0.95
-3.08
-6.67
-9.82
-12.54
-14.74
-16.25
-16.96
-16.96
-16.5
-15.89
-15.35
-14.89
-14.36
-13.61
-12.61
-11.47
-10.4
-9.6
-9.19
-9.16
-9.39
-9.63
-9.51
-8.61
-6.59
-3.42
0.54
4.62
8.08
10.4
11.49
11.6
11.13
10.36
9.4
8.16
6.63
4.95
3.35
2.1
1.27
0.65
-0.08
-1.2
-2.76
-4.53
-6.13
-7.18
-7.52
-7.24
-6.69
-6.21
-6.02
-6.14
-6.44
-6.73
-6.76
-6.28
-4.61
-1.36
3.54
9.75
16.52
22.87
27.88
31.05
32.42
32.45
31.73
30.75
29.76
28.75
27.71
26.71
25.97
25.73
26.04
26.71
27.35
27.58
27.22
26.33
25.2
24.14
23.32
22.64
21.81
20.5
18.5
15.8
12.54
8.99
5.51
2.5
0.33
-0.81
-0.9
-0.15
1.06
2.36
3.47
4.25
4.65
4.55
3.68
1.5
-2.6
-9.09
-17.93
-28.45
-39.54
-50.0
-59.0
-66.31
-72.13
-76.69
-79.84
-80.83
-78.47
-71.57
-59.47
-42.38
-21.52
1.03
22.62
40.48
52.24
56.52
53.31
44.08
31.38
18.13
6.88
-0.78
-4.46
-4.79
-2.93
-0.13
2.65
4.94
6.69
8.13
9.63
11.57
14.32
18.12
23.03
28.89
35.28
41.71
47.84
53.69
59.8
67.02
76.15
87.46
100.43
113.74
125.74
135.1
141.29
144.74
146.44
147.32
147.57
146.52
142.77
134.73
121.16
101.47
75.85
45.28
11.54
-22.93
-55.25
-82.71
-103.34
-116.4
-122.53
-123.41
-121.13
-117.67
-114.45
-112.19
-110.94
-110.29
-109.67
-108.55
-106.79
-104.59
-102.38
-100.49
-98.85
-96.96
-94.06
-89.56
-83.34
-75.83
-67.85
-60.25
-53.64
-48.27
-44.14
-41.08
-38.89
-37.33
-36.15
-35.12
-34.08
-32.97
-31.92
-31.1
-30.69
-30.75
-31.2
-31.79
-32.23
-32.23
-31.55
-30.15
-28.15
-25.84
-23.6
-21.68
-19.99
-18.08
-15.18
-10.59
-3.99
4.3
13.37
22.16
29.92
36.5
42.22
47.32
51.31
52.75
49.68
40.52
25.15
5.33
-15.72
-34.49
-48.61
-57.68
-63.21
-67.81
-73.83
-82.48
-93.47
-105.39
-116.5
-125.43
-131.7
-135.8
-138.81
-141.95
-146.18
-151.85
-158.58
-165.19
-169.53
-168.68
-159.38
-139.2
-107.75
-67.64
-24.21
15.87
46.77
65.55
72.89
72.46
69.13
66.99
68.01
71.78
76.33
79.32
79.27
76.07
71.02
66.12
63.27
63.45
66.53
71.51
77.34
83.48
89.94
96.87
103.78
109.05
110.38
105.83
95.13
80.38
65.57
55.09
51.83
55.87
64.45
73.29
78.46
78.03
72.47
63.99
55.08
47.26
40.65
34.31
27.23
19.07
10.47
2.67
-3.28
-7.1
-9.49
-11.76
-15.04
-19.66
-24.93
-29.39
-31.56
-30.59
-26.67
-20.88
-14.72
-9.52
-6.0
-4.27
-3.95
-4.64
-6.11
-8.39
-11.66
-16.14
-21.89
-28.8
-36.64
-45.03
-53.48
-61.31
-67.75
-72.13
-74.08
-73.75
-71.77
-69.01
-66.22
-63.81
-61.74
-59.68
-57.11
-53.46
-48.11
-40.59
-30.76
-19.02
-6.35
6.04
17.28
27.26
36.74
46.9
58.54
71.48
84.45
95.56
103.23
106.94
107.48
106.57
106.33
108.59
114.55
124.41
137.07
150.02
159.74
162.44
155.3
137.6
111.07
79.34
46.77
17.15
-6.82
-23.5
-31.9
-31.53
-22.66
-6.78
13.34
34.33
53.24
68.45
79.79
87.76
92.67
94.06
90.84
82.14
68.1
50.15
30.64
11.9
-4.52
-18.28
-30.16
-41.52
-53.73
-67.7
-83.84
-102.11
-121.95
-142.14
-160.56
-174.44
-181.0
-178.55
-167.36
-149.78
-129.42
-109.69
-92.52
-77.89
-64.36
-50.28
-34.89
-18.55
-2.33
12.98
27.28
41.09
54.91
68.61
81.37
92.14
100.06
104.84
106.54
105.39
101.6
95.48
87.61
78.67
69.44
60.29
51.24
42.16
33.17
24.93
18.39
14.3
12.61
12.35
11.98
10.21
6.63
1.87
-2.73
-5.75
-6.23
-3.97
0.61
6.67
13.32
19.77
25.28
29.11
30.49
28.8
23.8
15.91
6.22
-3.85
-12.89
-19.91
-24.41
-26.25
-25.39
-21.77
-15.27
-5.99
5.59
18.53
31.59
43.51
53.27
60.31
64.43
65.72
64.4
60.77
55.22
48.26
40.48
32.43
24.5
16.83
9.27
1.55
-6.54
-15.01
-23.63
-31.98
-39.63
-46.23
-51.63
-55.86
-59.09
-61.46
-63.06
-63.77
-63.37
-61.52
-57.92
-52.52
-45.64
-37.94
-30.25
-23.3
-17.5
-12.9
-9.31
-6.54
-4.59
-3.6
-3.73
-4.94
-6.97
-9.34
-11.59
-13.44
-14.89
-16.15
-17.46
-19.03
-20.96
-23.36
-26.33
-30.04
-34.59
-39.81
-45.15
-49.63
-52.1
-51.59
-47.81
-41.3
-33.31
-25.36
-18.66
-13.71
-10.22
-7.47
-4.82
-2.07
0.48
2.28
2.89
2.26
0.65
-1.57
-4.14
-7.0
-10.2
-13.73
-17.38
-20.8
-23.66
-25.81
-27.42
-28.94
-30.84
-33.33
-36.15
-38.52
-39.44
-38.05
-34.13
-28.13
-21.1
-14.21
-8.37
-3.93
-0.76
1.48
3.07
4.12
4.62
4.63
4.3
3.87
3.49
3.08
2.44
1.31
-0.35
-2.33
-4.23
-5.65
-6.4
-6.53
-6.39
-6.46
-7.17
-8.69
-10.81
-12.91
-14.08
-13.5
-10.67
-5.76
0.54
7.2
13.28
18.18
21.71
23.98
25.12
25.27
24.47
22.82
20.47
17.64
14.52
11.25
7.91
4.61
1.53
-1.15
-3.28
-4.85
-6.02
-7.06
-8.21
-9.62
-11.25
-12.97
-14.59
-15.89
-16.59
-16.31
-14.65
-11.25
-6.1
0.39
7.41
14.0
19.38
23.18
25.46
26.54
26.74
26.22
24.99
22.99
20.25
16.93
13.27
9.53
5.94
2.66
-0.15
-2.36
-3.92
-4.86
-5.37
-5.75
-6.39
-7.67
-9.86
-12.97
-16.7
-20.32
-22.83
-23.14
-20.51
-14.93
-7.18
1.29
8.87
14.31
17.08
17.45
16.21
14.27
12.24
10.3
8.26
5.82
2.78
-0.81
-4.6
-8.17
-11.15
-13.42
-15.15
-16.66
-18.31
-20.26
-22.36
-24.35
-25.98
-27.19
-28.17
-29.14
-30.1
-30.73
-30.46
-28.74
-25.4
-20.78
-15.61
-10.8
-7.11
-5.03
-4.75
-6.26
-9.27
-13.32
-17.84
-22.3
-26.41
-30.39
-34.84
-40.67
-48.86
-60.1
-74.32
-89.99
-103.99
-112.01
-109.9
-95.5
-70.26
-39.35
-10.34
9.16
13.99
2.95
-21.17
-52.68
-84.62
-110.46
-125.12
-125.68
-111.61
-84.77
-48.94
-9.12
29.63
63.06
88.35
104.28
111.12
110.02
102.64
90.73
75.91
59.7
43.66
29.62
19.51
15.01
16.93
24.53
35.07
44.04
46.4
38.68
20.86
-2.64
-23.8
-33.56
-24.88
4.67
52.21
110.56
170.45
222.84
260.58
279.22
277.26
256.17
219.96
174.39
125.67
79.15
38.58
6.07
-17.42
-31.62
-36.83
-34.29
-26.39
-16.44
-7.93
-3.47
-4.14
-9.54
-18.39
-29.3
-41.27
-53.56
-65.26
-74.97
-80.92
-81.43
-75.66
-64.13
-48.7
-32.09
-17.02
-5.39
2.08
5.82
6.83
6.09
4.22
1.44
-2.21
-6.54
-11.12
-15.36
-18.79
-21.2
-22.68
-23.49
-23.89
-24.02
-23.84
-23.38
-22.79
-22.48
-22.95
-24.58
-27.27
-30.3
-32.4
-32.18
-28.64
-21.58
-11.71
-0.4
10.77
20.46
27.8
32.42
34.39
34.11
32.19
29.41
26.54
24.07
22.06
20.15
17.74
14.4
10.11
5.39
0.99
-2.5
-4.9
-6.64
-8.39
-10.76
-14.05
-18.21
-23.04
-28.32
-33.76
-38.78
-42.4
-43.57
-41.69
-37.19
-31.64
-27.01
-24.81
-25.25
-27.21
-29.03
-29.57
-28.98
-28.56
-30.01
-34.44
-41.82
-51.05
-60.56
-69.11
-76.14
-81.95
-87.45
-93.82
-102.16
-113.0
-125.87
-139.07
-149.83
-155.06
-152.47
-141.49
-123.45
-101.07
-77.27
-54.03
-31.96
-10.54
11.01
32.95
54.67
74.91
92.06
104.53
111.07
111.09
104.89
93.78
79.66
64.29
48.71
32.9
16.41
-0.89
-18.17
-33.79
-46.1
-54.38
-59.27
-62.4
-65.38
-69.02
-73.12
-77.0
-80.11
-82.43
-84.22
-85.55
-86.0
-84.52
-79.88
-71.11
-57.94
-40.73
-20.38
2.08
25.68
49.61
73.15
95.53
115.85
133.15
146.76
156.63
163.58
169.2
175.27
183.15
193.16
204.31
214.65
221.93
224.36
220.98
211.74
197.16
178.18
156.13
133.01
111.63
95.36
87.31
89.13
100.29
118.04
138.28
156.88
170.85
178.93
181.43
179.62
175.03
168.92
161.79
153.15
141.51
124.65
100.23
66.48
22.98
-28.81
-85.34
-141.47
-191.61
-231.41
-259.62
-278.8
-294.6
-313.32
-338.89
-370.66
-403.38
-429.28
-441.14
-434.83
-410.15
-369.93
-318.37
-259.78
-198.21
-137.84
-83.1
-38.19
-5.96
13.16
21.6
23.9
25.16
29.29
37.83
49.71
62.0
71.21
74.94
72.82
66.87
60.89
59.06
64.38
77.41
96.09
116.66
135.17
149.01
157.55
161.87
163.85
165.29
167.34
170.5
174.64
179.06
182.68
184.14
182.26
176.37
166.42
152.77
135.73
115.21
90.88
62.7
31.42
-1.38
-33.63
-63.38
-89.18
-110.06
-125.4
-134.78
-138.29
-136.77
-131.93
-125.59
-118.59
-109.93
-96.65
-74.94
-42.01
2.15
53.89
106.62
152.75
186.17
203.84
206.25
196.26
177.14
151.17
119.49
83.18
44.71
8.5
-20.19
-37.33
-42.11
-37.22
-27.59
-17.85
-10.48
-5.41
-1.08
3.97
10.27
17.56
25.69
35.15
46.64
60.1
73.89
85.08
90.47
88.03
77.44
59.8
36.9
10.49
-17.61
-45.04
-68.83
-86.01
-94.85
-95.98
-92.39
-88.21
-86.75
-89.1
-94.03
-99.34
-103.63
-107.24
-112.03
-119.98
-131.87
-146.68
-162.08
-175.61
-185.59
-191.58
-193.95
-193.35
-190.27
-184.93
-177.4
-167.75
-156.13
-142.77
-127.96
-112.19
-96.2
-80.96
-67.33
-55.77
-46.25
-38.32
-31.47
-25.45
-20.34
-16.4
-13.72
-11.98
-10.4
-7.91
-3.51
3.36
12.67
23.78
35.7
47.41
58.11
67.29
74.79
80.47
84.03
85.34
84.67
82.91
81.13
79.95
79.18
77.93
75.05
69.78
62.25
53.51
45.0
37.8
32.2
27.96
25.32
24.68
25.99
27.99
28.31
24.24
14.07
-1.92
-21.14
-38.29
-48.65
-50.53
-45.83
-38.4
-31.87
-28.16
-26.97
-25.99
-19.05
-0.9
29.88
70.12
114.24
156.91
194.58
225.66
249.98
272.3
295.62
318.2
334.1
337.48
326.47
303.91
275.93
250.21
240.48
257.6
304.4
374.04
453.69
529.49
590.04
628.35
605.18
502.7
335.92
147.03
-22.71
-153.64
-245.71
-307.26
-346.89
-370.8
-377.34
-365.59
-340.0
-309.66
-283.47
-265.95
-256.9
-253.68
-253.33
-249.98
-239.0
-221.17
-201.35
-184.88
-174.42
-169.82
-169.5
-171.81
-172.9
-170.27
-165.29
-161.28
-161.02
-164.67
-169.98
-174.01
-174.98
-172.01
-161.38
-144.9
-126.12
-108.1
-91.97
-77.31
-63.68
-51.77
-43.0
-39.22
-42.52
-52.94
-68.01
-83.38
-94.19
-96.6
-88.82
-71.11
-45.35
-14.97
16.52
45.77
69.83
86.47
94.57
94.47
88.09
78.41
68.27
60.01
54.85
52.75
52.7
53.2
52.86
50.8
46.8
41.16
34.76
28.65
23.66
20.05
17.49
15.2
12.39
8.67
4.27
0.02
-2.95
-3.82
-2.35
0.99
5.27
9.58
13.27
16.09
18.04
19.04
18.9
17.37
14.34
10.02
5.02
0.07
-4.21
-7.53
-10.02
-11.99
-13.82
-15.63
-17.28
-18.43
-18.7
-17.94
-16.3
-14.21
-12.28
-11.06
-10.92
-11.95
-13.96
-16.47
-18.78
-20.09
-19.71
-17.31
-13.0
-7.37
-1.16
4.98
10.66
15.8
20.38
24.29
27.27
29.15
29.97
30.1
30.09
30.38
31.1
31.99
32.57
32.33
30.97
28.44
24.9
20.63
15.97
11.3
6.98
3.28
0.21
-2.49
-5.34
-8.79
-12.91
-17.27
-20.96
-22.96
-22.54
-19.61
-14.71
-8.8
-2.92
2.22
6.3
9.35
11.46
12.67
12.9
12.13
10.49
8.39
6.37
4.91
4.26
4.31
4.7
5.04
5.1
4.9
4.62
4.45
4.37
4.16
3.44
1.86
-0.82
-4.58
-9.1
-13.72
-17.5
-19.41
-18.65
-14.95
-8.7
-0.87
7.38
15.04
21.56
26.88
31.25
34.95
38.1
40.66
42.47
43.39
43.41
42.68
41.58
40.64
40.44
41.46
43.83
47.2
50.81
53.7
55.09
54.69
52.91
50.67
49.01
48.65
49.56
51.01
51.91
51.44
49.54
47.2
46.18
48.38
55.09
66.42
81.16
97.27
112.52
125.3
135.16
142.98
150.8
161.24
176.85
199.07
227.37
258.71
287.82
308.37
314.84
304.36
277.78
239.17
194.24
148.22
104.24
62.98
23.37
-16.2
-56.94
-99.23
-142.71
-186.71
-230.29
-272.09
-309.94
-340.64
-360.3
-365.27
-353.58
-326.28
-287.84
-245.28
-206.18
-176.36
-158.03
-149.68
-147.27
-146.32
-143.6
-137.88
-129.54
-119.66
-109.34
-99.37
-90.4
-82.97
-77.41
-73.64
-71.01
-68.59
-65.59
-61.82
-57.72
-54.12
-51.8
-51.19
-52.32
-54.82
-58.17
-61.79
-65.05
-67.36
-68.2
-67.2
-64.25
-59.43
-52.97
-45.33
-37.2
-29.58
-23.55
-20.0
-19.15
-20.35
-22.38
-24.08
-24.96
-25.5
-26.98
-30.72
-37.46
-47.2
-59.41
-73.16
-86.91
-98.18
-103.78
-101.09
-89.87
-73.5
-58.48
-51.98
-58.43
-77.15
-102.43
-126.06
-140.78
-142.87
-132.59
-112.84
-87.22
-58.76
-29.72
-1.91
23.2
44.86
63.37
79.88
95.59
111.03
125.56
137.79
146.54
151.48
153.4
153.61
153.23
152.65
151.52
149.17
145.19
139.66
133.12
126.04
118.53
110.17
100.45
89.29
77.52
66.85
59.37
56.68
59.14
65.58
73.73
81.06
85.78
87.27
85.94
82.6
77.83
71.55
63.31
52.74
40.05
26.21
12.72
1.19
-6.97
-10.78
-9.79
-4.14
5.29
16.77
27.94
36.27
39.85
37.95
31.27
21.46
10.39
-0.46
-10.32
-18.81
-25.5
-29.66
-30.43
-27.35
-20.87
-12.49
-4.25
1.96
5.18
5.56
4.14
2.13
0.37
-0.99
-2.28
-3.96
-6.23
-8.89
-11.51
-13.64
-15.05
-15.83
-16.22
-16.52
-16.91
-17.44
-18.04
-18.69
-19.5
-20.66
-22.42
-24.95
-28.22
-31.9
-35.4
-37.96
-38.87
-37.77
-34.71
-30.15
-24.73
-19.01
-13.24
-7.45
-1.59
4.24
9.63
13.98
16.75
17.71
17.05
15.34
13.21
11.15
9.31
7.58
5.78
3.85
1.97
0.51
-0.23
-0.12
0.61
1.46
1.79
1.08
-1.01
-4.49
-9.11
-14.28
-19.15
-22.69
-23.87
-21.99
-17.06
-9.87
-1.92
5.13
9.93
11.87
11.19
8.7
5.4
2.06
-0.92
-3.54
-5.97
-8.43
-11.14
-14.27
-17.9
-21.78
-25.14
-26.53
-23.95
-15.49
-0.02
22.14
48.97
77.24
103.29
123.95
137.02
141.37
136.65
123.04
101.37
73.33
41.65
9.98
-17.68
-37.78
-47.85
-47.13
-36.77
-19.74
-0.35
16.67
27.58
30.71
26.8
18.63
9.47
1.57
-4.67
-10.51
-18.27
-30.51
-49.3
-75.52
-107.88
-142.05
-170.64
-184.85
-177.61
-146.95
-97.7
-40.16
13.74
54.99
80.33
92.0
94.82
92.64
86.45
74.97
56.98
33.57
8.71
-12.17
-24.66
-27.4
-22.6
-14.61
-7.85
-5.03
-6.65
-11.61
-18.49
-26.28
-34.1
-40.57
-43.34
-39.68
-27.9
-8.89
13.39
32.95
44.04
43.49
31.89
13.08
-7.82
-26.63
-41.53
-53.12
-63.43
-74.55
-87.67
-102.73
-118.78
-134.32
-147.65
-156.9
-159.92
-154.68
-139.85
-115.86
-85.36
-52.95
-23.96
-2.66
9.39
13.83
14.57
16.01
21.24
31.11
44.63
60.07
76.13
92.41
109.19
126.78
144.98
163.0
179.83
194.69
207.26
217.66
226.11
232.7
237.37
240.13
241.25
241.33
241.26
241.95
244.21
248.4
254.18
260.28
264.43
263.75
255.41
237.51
209.65
173.01
129.83
82.82
34.57
-12.52
-56.11
-93.93
-124.03
-145.34
-158.16
-164.14
-165.79
-165.49
-164.82
-164.24
-163.38
-161.57
-158.39
-153.89
-148.59
-143.14
-137.97
-133.08
-127.95
-121.78
-113.85
-103.8
-91.85
-78.73
-65.41
-52.81
-41.54
-31.9
-23.97
-17.77
-13.29
-10.53
-9.42
-9.7
-10.89
-12.4
-13.66
-14.29
-14.13
-13.35
-12.25
-11.12
-10.15
-9.3
-8.42
-7.25
-5.51
-2.97
0.56
5.25
11.21
18.45
26.72
35.52
44.02
51.21
56.13
58.13
57.13
53.65
48.62
42.94
37.03
30.72
23.33
14.11
2.73
-10.45
-24.55
-38.48
-51.31
-62.57
-72.11
-79.99
-86.24
-90.74
-93.36
-93.98
-92.6
-89.39
-84.65
-78.74
-72.12
-65.29
-58.7
-52.73
-47.69
-43.73
-40.85
-38.81
-37.12
-35.09
-32.06
-27.6
-21.78
-15.15
-8.63
-3.12
0.81
3.03
3.85
3.78
3.24
2.45
1.45
0.2
-1.25
-2.8
-4.28
-5.53
-6.52
-7.37
-8.23
-9.19
-10.24
-11.26
-12.04
-12.42
-12.32
-11.8
-11.03
-10.23
-9.6
-9.21
-8.91
-8.28
-6.71
-3.58
1.45
8.32
16.52
25.32
34.04
42.31
50.13
57.81
65.73
74.16
83.14
92.54
102.05
111.15
119.05
124.59
126.4
123.37
115.06
102.15
86.37
69.93
54.69
41.51
29.99
18.79
6.43
-8.16
-25.24
-44.26
-64.15
-83.45
-100.54
-113.83
-122.01
-124.44
-121.45
-114.27
-104.69
-94.53
-85.07
-76.9
-70.04
-64.28
-59.42
-55.38
-52.13
-49.54
-47.35
-45.22
-42.92
-40.41
-37.82
-35.29
-32.86
-30.45
-27.91
-25.25
-22.7
-20.65
-19.49
-19.46
-20.45
-22.18
-24.28
-26.42
-28.34
-29.72
-30.13
-29.09
-26.22
-21.49
-15.33
-8.63
-2.4
2.55
5.83
7.58
8.2
8.1
7.44
6.2
4.27
1.73
-1.12
-3.87
-6.21
-8.11
-9.85
-11.79
-14.21
-17.01
-19.86
-22.23
-23.72
-24.18
-23.71
-22.6
-21.24
-20.05
-19.36
-19.41
-20.21
-21.47
-22.58
-22.71
-21.16
-17.49
-11.79
-4.62
3.2
10.79
17.45
22.71
26.34
28.27
28.56
27.4
25.1
22.09
18.88
15.88
13.35
11.29
9.49
7.59
5.35
2.65
-0.32
-3.16
-5.42
-6.87
-7.55
-7.85
-8.3
-9.42
-11.48
-14.41
-17.76
-20.78
-22.57
-22.36
-19.69
-14.6
-7.57
0.62
9.16
17.4
24.91
31.43
36.69
40.33
41.96
41.37
38.7
34.5
29.57
24.6
19.94
15.46
10.73
5.24
-1.32
-8.96
-17.4
-26.2
-34.79
-42.64
-49.17
-53.97
-56.87
-57.99
-57.66
-56.21
-53.62
-49.5
-43.32
-34.73
-24.0
-12.06
-0.24
10.23
18.61
24.87
29.47
32.96
35.75
37.85
39.05
39.16
38.13
36.17
33.5
30.23
26.19
20.96
14.13
5.51
-4.58
-15.37
-25.76
-34.76
-41.72
-46.58
-49.73
-51.81
-53.33
-54.54
-55.33
-55.35
-54.13
-51.22
-46.29
-39.26
-30.36
-20.17
-9.52
0.67
9.66
17.02
22.65
26.64
29.11
30.1
29.6
27.69
24.63
20.93
17.19
13.93
11.42
9.61
8.24
6.94
5.54
4.05
2.74
1.89
1.65
1.92
2.34
2.42
1.64
-0.35
-3.62
-7.95
-12.67
-16.87
-19.53
-19.85
-17.46
-12.58
-5.87
1.81
9.65
17.08
23.66
29.11
33.17
35.69
36.71
36.51
35.54
34.22
32.81
31.33
29.6
27.46
24.89
22.1
19.44
17.26
15.73
14.75
13.97
12.9
11.04
7.98
3.6
-1.93
-7.97
-13.53
-17.4
-18.52
-16.35
-11.04
-3.46
5.2
13.74
21.36
27.7
32.7
36.39
38.73
39.61
39.05
37.28
34.78
32.12
29.79
27.98
26.58
25.24
23.59
21.39
18.59
15.39
12.09
8.94
6.08
3.44
0.75
-2.37
-6.28
-11.19
-16.96
-23.02
-28.39
-31.9
-32.53
-29.72
-23.65
-15.17
-5.56
3.9
12.19
18.86
23.88
27.51
30.08
31.82
32.85
33.2
32.9
31.89
30.06
27.16
22.94
17.37
10.76
3.86
-2.44
-7.49
-11.25
-14.49
-18.46
-24.37
-32.81
-43.44
-55.21
-66.89
-77.75
-87.83
-97.76
-108.17
-119.06
-129.58
-138.36
-144.07
-146.26
-145.65
-143.91
-143.25
-145.8
-153.34
-166.91
-186.33
-209.66
-233.01
-251.12
-258.72
-252.39
-231.78
-199.65
-160.6
-119.13
-78.09
-38.22
1.33
41.86
84.06
127.56
170.8
211.35
246.3
272.97
289.66
296.37
294.81
287.83
278.34
268.32
258.39
248.29
237.64
226.7
216.27
207.17
199.54
192.55
184.84
175.41
164.3
152.76
142.72
135.75
132.16
130.78
129.43
125.96
119.3
109.96
99.8
91.23
86.18
85.4
88.04
92.11
95.2
95.47
92.33
86.62
80.15
74.89
72.1
71.84
73.14
74.54
74.8
73.41
70.62
67.23
64.12
61.95
60.9
60.64
60.25
58.36
53.39
44.04
29.69
10.8
-11.16
-34.08
-55.83
-74.79
-90.14
-101.86
-110.45
-116.6
-120.96
-123.93
-125.74
-126.42
-125.97
-124.39
-121.76
-118.17
-113.83
-108.95
-103.79
-98.67
-93.94
-89.97
-87.03
-85.23
-84.43
-84.34
-84.6
-84.93
-85.22
-85.4
-85.36
-84.69
-82.73
-78.69
-72.02
-62.67
-51.26
-38.87
-26.72
-15.8
-6.65
0.58
5.95
9.56
11.47
11.78
10.71
8.68
6.2
3.72
1.5
-0.38
-1.94
-3.19
-4.01
-4.3
-3.97
-3.04
-1.63
0.08
1.84
3.31
4.06
3.71
2.09
-0.63
-3.87
-6.79
-8.61
-8.82
-7.35
-4.53
-0.86
3.13
7.0
10.44
13.19
15.11
16.09
16.19
15.56
14.45
13.04
11.48
9.8
7.95
6.0
4.16
2.81
2.31
2.91
4.48
6.52
8.33
9.23
8.88
7.3
4.86
1.95
-1.12
-4.31
-7.68
-11.32
-15.17
-18.93
-22.2
-24.5
-25.45
-24.88
-22.86
-19.66
-15.72
-11.54
-7.55
-4.11
-1.4
0.51
1.59
1.84
1.32
0.18
-1.36
-2.98
-4.35
-5.27
-5.65
-5.61
-5.4
-5.27
-5.47
-6.11
-7.12
-8.33
-9.5
-10.45
-11.1
-11.56
-12.07
-12.92
-14.3
-16.24
-18.46
-20.4
-21.28
-20.3
-16.97
-11.24
-3.74
4.52
12.46
19.44
25.52
31.38
37.93
45.64
54.21
62.47
68.93
72.46
72.91
71.32
69.51
69.34
71.8
76.57
82.1
86.3
87.5
85.25
80.45
74.83
70.18
67.61
67.12
67.67
67.41
63.74
53.59
34.0
3.26
-37.7
-84.63
-130.59
-168.2
-192.68
-204.09
-207.29
-209.38
-215.85
-227.59
-240.42
-247.22
-241.52
-220.54
-186.25
-144.21
-101.03
-62.02
-29.93
-5.1
13.5
27.17
36.62
42.02
43.46
41.43
37.2
32.59
29.54
29.24
31.74
35.95
40.25
43.3
44.63
44.81
44.95
46.17
48.87
52.6
56.15
58.24
58.06
55.7
52.11
48.64
46.31
45.39
45.34
45.13
43.94
41.53
38.31
35.02
32.29
30.33
28.87
27.34
25.12
21.74
16.98
10.86
3.63
-4.26
-12.38
-20.55
-29.14
-39.02
-51.29
-66.63
-84.53
-103.1
-119.46
-130.67
-134.8
-131.64
-122.58
-109.94
-96.07
-82.68
-70.62
-60.09
-50.86
-42.5
-34.41
-25.85
-16.24
-5.45
5.87
16.45
24.82
30.04
32.13
32.01
31.08
30.48
30.54
30.82
30.45
28.8
25.94
22.64
20.16
19.69
21.96
27.15
34.97
44.78
55.71
66.71
76.73
85.09
91.98
98.75
107.54
120.59
139.05
162.19
187.38
210.89
229.32
240.79
245.31
244.04
237.94
226.87
209.81
186.0
155.89
121.29
84.45
46.93
9.36
-27.83
-63.19
-93.71
-115.7
-126.73
-127.23
-120.77
-112.31
-105.78
-102.34
-100.4
-97.14
-90.52
-80.44
-68.42
-56.48
-46.11
-37.61
-30.36
-23.45
-16.29
-8.97
-2.19
3.11
6.16
6.68
5.12
2.34
-0.62
-2.92
-4.1
-4.05
-2.93
-1.14
0.7
1.73
0.82
-3.16
-11.09
-23.23
-38.94
-56.72
-74.51
-90.18
-102.05
-109.25
-111.93
-111.1
-108.37
-105.45
-103.7
-103.73
-105.09
-106.36
-105.51
-100.43
-89.61
-72.68
-50.55
-25.35
0.13
23.17
42.02
56.55
68.32
79.96
93.95
111.51
131.91
152.96
172.15
187.99
200.77
212.19
224.27
238.07
253.08
267.57
279.53
287.56
291.2
290.44
285.18
274.75
258.15
234.61
204.18
167.88
127.29
84.09
39.83
-3.86
-44.9
-80.73
-108.78
-127.36
-136.44
-137.79
-134.31
-128.85
-123.34
-118.45
-114.03
-109.84
-105.99
-102.94
-101.02
-100.04
-99.17
-97.24
-93.29
-87.02
-78.92
-70.11
-61.88
-55.19
-50.37
-46.98
-44.05
-40.49
-35.52
-29.04
-21.62
-14.31
-8.25
-4.28
-2.64
-2.8
-3.5
-3.02
0.21
6.79
15.67
24.21
28.93
26.99
17.42
1.6
-17.43
-36.44
-53.32
-67.62
-80.07
-91.76
-103.62
-116.55
-131.75
-150.66
-174.09
-201.18
-228.79
-252.24
-267.02
-270.74
-264.09
-250.24
-233.12
-215.57
-198.55
-181.42
-163.26
-143.89
-124.19
-105.56
-89.08
-74.89
-62.24
-50.09
-37.78
-25.54
-14.35
-5.42
0.46
3.3
3.84
3.15
1.95
0.5
-1.24
-3.13
-4.32
-3.26
1.65
11.09
23.9
36.96
45.99
47.18
38.73
21.79
0.08
-21.47
-38.48
-48.44
-51.05
-47.7
-40.41
-31.06
-21.0
-11.18
-2.37
4.86
10.27
14.24
17.64
21.43
26.2
31.87
37.69
42.68
46.03
47.48
47.29
46.04
44.37
42.76
41.51
40.7
40.33
40.29
40.46
40.61
40.47
39.77
38.38
36.3
33.77
31.08
28.51
26.18
23.99
21.74
19.18
16.17
12.67
8.77
4.66
0.66
-2.73
-4.92
-5.32
-3.55
0.36
5.9
12.25
18.47
23.81
27.86
30.49
31.75
31.69
30.34
27.79
24.29
20.28
16.31
12.83
10.01
7.72
5.61
3.3
0.63
-2.32
-5.23
-7.81
-9.85
-11.45
-12.97
-14.91
-17.76
-21.78
-26.86
-32.44
-37.61
-41.28
-42.48
-40.62
-35.68
-28.19
-19.11
-9.55
-0.48
7.45
13.91
18.84
22.29
24.31
25.03
24.65
23.48
21.92
20.37
18.97
17.67
16.19
14.26
11.75
8.8
5.78
3.07
0.96
-0.59
-1.87
-3.39
-5.65
-9.05
-13.67
-19.23
-24.98
-29.81
-32.42
-31.75
-27.3
-19.42
-9.19
1.97
12.77
22.45
30.81
38.02
44.21
49.29
52.95
54.91
55.13
53.9
51.74
49.13
46.37
43.45
40.22
36.49
32.19
27.46
22.59
17.94
13.79
10.27
7.25
4.36
1.15
-2.89
-8.11
-14.61
-22.06
-29.67
-36.18
-40.16
-40.39
-36.3
-28.29
-17.59
-5.92
5.12
14.46
21.74
27.1
30.77
32.87
33.35
32.21
29.69
26.35
22.9
19.86
17.38
15.15
12.61
9.3
5.1
0.32
-4.47
-8.67
-12.0
-14.57
-16.83
-19.45
-23.05
-28.05
-34.58
-42.32
-50.46
-57.69
-62.39
-63.08
-58.93
-50.08
-37.72
-23.66
-9.7
2.91
13.68
22.71
30.27
36.41
40.92
43.47
43.93
42.53
39.91
36.78
33.72
30.97
28.41
25.76
22.73
19.28
15.58
11.99
8.88
6.47
4.72
3.3
1.71
-0.63
-4.19
-9.17
-15.4
-22.16
-28.29
-32.3
-32.77
-28.82
-20.43
-8.52
5.34
19.38
32.13
42.73
50.9
56.74
60.46
62.23
62.16
60.45
57.44
53.61
49.51
45.56
41.98
38.76
35.71
32.54
29.07
25.26
21.25
17.34
13.82
10.83
8.28
5.85
3.07
-0.5
-5.18
-11.1
-18.14
-25.85
-33.36
-39.46
-42.71
-41.94
-36.64
-27.25
-15.13
-2.07
10.22
20.62
28.75
34.74
38.86
41.25
41.85
40.58
37.63
33.51
29.05
25.0
21.85
19.64
17.99
16.34
14.21
11.39
8.01
4.37
0.88
-2.2
-4.8
-7.09
-9.42
-12.25
-15.96
-20.77
-26.63
-33.07
-39.19
-43.73
-45.38
-43.15
-36.74
-26.75
-14.56
-1.91
9.6
18.96
25.9
30.7
33.89
35.87
36.81
36.68
35.48
33.43
30.95
28.56
26.63
25.21
24.04
22.63
20.61
17.84
14.5
10.95
7.54
4.48
1.67
-1.11
-4.14
-7.63
-11.7
-16.41
-21.77
-27.68
-33.67
-38.86
-41.96
-41.68
-37.24
-28.82
-17.63
-5.48
5.83
15.14
22.11
27.08
30.57
32.88
34.02
33.76
31.99
28.9
24.94
20.69
16.64
13.0
9.68
6.46
3.12
-0.36
-3.79
-6.87
-9.25
-10.8
-11.56
-11.77
-11.74
-11.81
-12.25
-13.37
-15.5
-18.88
-23.46
-28.7
-33.52
-36.52
-36.44
-32.65
-25.44
-15.96
-5.79
3.7
11.67
17.97
22.88
26.7
29.49
31.05
31.17
29.88
27.61
25.09
23.06
22.05
22.25
23.48
25.42
27.72
30.08
32.15
33.6
34.04
33.09
30.53
26.45
21.23
15.33
9.02
2.23
-5.33
-13.89
-23.18
-32.35
-40.18
-45.58
-48.07
-47.92
-46.0
-43.35
-40.75
-38.58
-36.91
-35.6
-34.48
-33.29
-31.68
-29.08
-24.89
-18.58
-9.87
1.09
13.61
26.59
38.73
49.06
57.27
63.97
70.46
78.19
88.1
100.2
113.67
127.29
140.26
152.5
164.55
177.04
190.04
202.76
213.68
221.0
223.14
219.11
208.64
192.24
171.1
147.01
121.92
97.5
74.53
52.68
30.78
7.54
-17.67
-44.4
-71.44
-97.44
-121.62
-143.96
-164.89
-184.6
-202.46
-216.93
-225.97
-227.77
-221.55
-207.93
-188.99
-167.83
-148.03
-132.82
-124.47
-123.74
-129.78
-140.29
-152.14
-162.14
-167.74
-167.4
-160.59
-147.5
-128.58
-104.42
-75.64
-43.13
-8.11
27.98
63.78
98.43
131.47
162.47
190.43
213.43
228.9
234.5
229.16
213.72
190.69
163.3
134.45
105.97
78.56
52.24
26.8
1.91
-22.97
-48.63
-75.72
-104.1
-132.35
-157.88
-177.81
-190.13
-194.56
-192.58
-186.6
-178.86
-170.67
-162.45
-154.39
-147.16
-142.17
-141.01
-144.51
-151.89
-160.75
-167.79
-170.17
-166.66
-158.12
-146.94
-135.83
-126.38
-118.16
-108.86
-95.13
-74.08
-44.61
-8.23
30.74
65.64
88.59
92.41
73.17
32.48
-21.55
-75.65
-115.13
-128.78
-112.97
-72.93
-20.63
29.9
67.72
88.18
93.21
88.93
82.15
77.57
76.74
78.73
81.6
83.82
84.65
83.83
81.01
75.25
65.59
51.75
34.91
17.69
3.34
-5.48
-7.88
-5.16
-0.29
3.27
2.83
-2.52
-11.71
-22.13
-30.7
-34.96
-33.95
-28.44
-20.38
-12.06
-5.12
-0.02
3.81
7.51
11.89
17.0
22.13
26.17
28.28
28.31
26.77
24.58
22.59
21.18
20.23
19.3
17.93
15.92
13.44
10.88
8.65
6.96
5.64
4.27
2.29
-0.75
-5.05
-10.36
-15.95
-20.72
-23.46
-23.24
-19.72
-13.28
-4.91
4.13
12.74
20.16
26.06
30.38
33.15
34.42
34.25
32.83
30.52
27.8
25.16
22.89
21.02
19.34
17.5
15.21
12.39
9.18
5.88
2.82
0.16
-2.15
-4.35
-6.81
-9.92
-13.93
-18.82
-24.1
-28.82
-31.71
-31.64
-28.0
-21.08
-11.97
-2.14
7.09
14.98
21.38
26.5
30.5
33.27
34.55
34.14
32.19
29.26
26.06
23.19
20.88
18.91
16.82
14.1
10.48
6.06
1.2
-3.52
-7.56
-10.58
-12.55
-13.8
-14.94
-16.7
-19.7
-24.07
-29.22
-33.87
-36.29
-34.99
-29.4
-20.31
-9.76
-0.5
5.0
5.28
0.34
-8.53
-19.23
-29.44
-37.19
-41.2
-41.05
-37.2
-30.77
-23.24
-16.0
-10.03
-5.72
-2.95
-1.26
-0.04
1.38
3.82
8.19
15.4
25.99
39.72
55.31
70.53
82.61
89.05
88.47
81.14
69.21
56.08
45.47
40.18
41.29
47.85
57.43
66.94
73.66
75.89
73.2
66.35
56.95
47.11
39.0
34.49
34.7
39.68
48.3
58.5
67.79
73.84
75.13
71.23
62.99
52.29
41.5
32.75
27.19
24.67
23.91
23.19
21.18
17.6
13.25
9.85
9.47
14.09
24.92
41.66
61.73
80.17
90.72
87.91
69.6
38.38
0.94
-34.46
-61.51
-78.06
-86.32
-90.65
-94.73
-99.57
-103.61
-104.46
-100.95
-94.18
-86.97
-82.17
-81.07
-82.75
-84.84
-85.03
-82.37
-77.81
-73.62
-72.02
-74.05
-78.89
-84.02
-86.13
-82.37
-71.43
-54.12
-33.27
-13.02
2.49
10.4
10.13
3.55
-5.64
-13.17
-15.59
-11.27
-0.6
14.48
31.46
48.27
63.76
77.77
90.59
102.49
113.53
123.63
133.01
142.34
152.47
163.93
176.4
188.44
197.84
202.46
201.02
193.58
181.5
166.89
151.86
137.89
125.5
114.38
103.73
92.68
80.66
67.61
53.85
40.01
26.72
14.52
3.67
-5.84
-14.26
-21.98
-29.37
-36.62
-43.69
-50.27
-55.93
-60.32
-63.31
-65.16
-66.39
-67.53
-68.86
-70.25
-71.24
-71.33
-70.31
-68.37
-66.04
-63.99
-62.79
-62.88
-64.52
-67.8
-72.54
-78.18
-83.78
-88.27
-90.87
-91.33
-90.08
-87.89
-85.41
-82.91
-80.29
-77.32
-74.01
-70.65
-67.75
-65.77
-64.89
-64.92
-65.35
-65.43
-64.4
-61.8
-57.62
-52.38
-46.95
-42.17
-38.43
-35.53
-32.8
-29.53
-25.38
-20.64
-15.99
-12.16
-9.55
-8.11
-7.49
-7.31
-7.35
-7.53
-7.84
-8.21
-8.5
-8.56
-8.26
-7.56
-6.51
-5.26
-4.06
-3.25
-3.18
-4.14
-6.23
-9.35
-13.2
-17.32
-21.11
-23.86
-24.88
-23.61
-19.92
-14.14
-7.1
0.16
6.73
12.05
15.93
18.4
19.59
19.58
18.48
16.47
13.9
11.21
8.94
7.52
7.24
8.11
9.85
11.96
13.87
15.19
15.89
16.34
17.14
18.85
21.71
25.5
29.63
33.32
35.83
36.67
35.64
32.82
28.54
23.25
17.43
11.58
6.15
1.56
-1.76
-3.46
-3.35
-1.49
1.74
5.75
9.86
13.53
16.41
18.4
19.62
20.25
20.47
20.37
19.94
19.11
17.85
16.21
14.28
12.17
9.81
6.96
3.26
-1.53
-7.35
-13.69
-19.84
-25.11
-29.09
-31.71
-33.07
-33.23
-32.11
-29.53
-25.52
-20.31
-14.42
-8.32
-2.22
3.92
10.24
16.63
22.59
27.28
29.9
30.1
28.11
24.72
20.89
17.42
14.68
12.67
11.16
9.86
8.54
7.05
5.26
3.07
0.42
-2.65
-5.98
-9.31
-12.38
-14.95
-16.94
-18.38
-19.42
-20.32
-21.33
-22.58
-23.98
-25.19
-25.8
-25.46
-24.13
-22.16
-20.04
-18.26
-17.08
-16.48
-16.39
-16.81
-17.85
-19.61
-21.92
-24.3
-25.97
-26.18
-24.41
-20.5
-14.59
-7.08
1.52
10.6
19.5
27.7
34.96
41.5
47.89
54.82
62.74
71.55
80.47
88.17
93.05
93.63
88.99
79.17
65.42
50.07
35.98
25.75
20.83
21.06
24.84
29.88
33.99
35.87
35.24
32.66
29.03
25.37
22.63
21.43
21.72
22.36
21.02
14.87
1.86
-17.87
-41.32
-63.34
-78.54
-83.5
-78.06
-65.19
-49.38
-34.55
-22.81
-14.26
-8.07
-3.72
-1.67
-3.08
-8.85
-18.69
-30.66
-41.77
-48.99
-50.49
-46.23
-37.81
-27.67
-18.06
-10.28
-4.45
0.09
4.15
8.08
11.72
14.6
16.47
17.64
18.94
21.39
25.71
31.91
39.23
46.42
52.21
55.82
57.23
57.2
56.98
57.91
60.99
66.67
74.75
84.49
94.94
105.09
114.12
121.47
126.98
130.88
133.81
136.64
140.19
144.86
150.39
155.8
159.75
160.95
158.68
152.99
144.51
134.0
121.89
108.11
92.28
74.09
53.69
31.66
8.84
-14.03
-36.53
-58.38
-79.26
-98.63
-115.87
-130.52
-142.64
-152.74
-161.53
-169.48
-176.57
-182.23
-185.7
-186.34
-183.96
-179.01
-172.44
-165.47
-159.25
-154.45
-150.97
-148.04
-144.56
-139.58
-132.74
-124.23
-114.43
-103.47
-90.95
-76.23
-58.94
-39.56
-19.53
-0.94
14.18
24.55
29.93
31.17
29.72
27.17
24.79
23.3
22.82
22.99
23.14
22.52
20.58
16.98
11.71
4.97
-2.84
-11.21
-19.62
-27.57
-34.63
-40.6
-45.42
-49.23
-52.19
-54.35
-55.51
-55.26
-53.06
-48.52
-41.64
-32.93
-23.34
-14.05
-6.08
-0.06
3.85
5.97
6.79
6.82
6.45
5.9
5.27
4.59
3.9
3.25
2.66
2.16
1.73
1.34
0.96
0.56
0.13
-0.31
-0.75
-1.2
-1.67
-2.18
-2.73
-3.29
-3.83
-4.39
-5.14
-6.31
-8.02
-10.14
-12.11
-13.16
-12.53
-9.86
-5.38
0.16
5.77
10.63
14.32
16.81
18.35
19.21
19.56
19.44
18.9
18.04
17.05
16.16
15.49
15.04
14.65
14.16
13.42
12.42
11.28
10.16
9.21
8.48
7.9
7.33
6.61
5.65
4.43
3.02
1.49
-0.08
-1.69
-3.4
-5.33
-7.56
-10.03
-12.47
-14.44
-15.39
-14.88
-12.75
-9.2
-4.73
0.07
4.65
8.66
11.93
14.31
15.71
15.97
15.09
13.25
10.92
8.69
7.02
6.1
5.7
5.39
4.76
3.65
2.27
1.07
0.47
0.65
1.37
2.15
2.44
1.95
0.77
-0.66
-1.7
-1.83
-0.88
0.86
2.72
3.89
3.74
2.18
-0.19
-2.2
-2.5
-0.06
5.33
13.04
21.68
29.59
35.25
37.61
36.51
32.88
28.84
27.23
30.58
39.87
53.69
68.34
79.18
82.47
76.95
64.26
48.03
32.19
19.43
10.63
5.18
1.94
0.03
-0.93
-1.1
-0.78
-0.69
-1.77
-4.85
-10.14
-17.09
-24.51
-31.0
-35.48
-37.55
-37.43
-35.74
-33.1
-29.8
-25.76
-20.73
-14.58
-7.52
-0.19
6.52
11.74
14.92
16.04
15.47
13.87
11.83
9.67
7.45
5.01
2.19
-1.01
-4.32
-7.37
-9.75
-11.18
-11.59
-11.11
-10.0
-8.6
-7.28
-6.34
-5.99
-6.34
-7.42
-9.23
-11.8
-15.13
-19.22
-23.98
-29.21
-34.64
-39.93
-44.65
-48.34
-50.47
-50.47
-47.94
-42.8
-35.48
-26.83
-18.01
-10.08
-3.76
0.75
3.64
5.28
6.04
6.16
5.79
5.03
4.01
2.9
1.8
0.78
-0.18
-1.08
-1.94
-2.76
-3.55
-4.37
-5.31
-6.4
-7.63
-8.92
-10.18
-11.35
-12.47
-13.57
-14.69
-15.82
-16.96
-18.11
-19.23
-20.17
-20.61
-20.06
-18.03
-14.3
-9.07
-2.98
3.08
8.33
12.33
15.04
16.73
17.76
18.34
18.54
18.33
17.69
16.73
15.66
14.66
13.86
13.26
12.74
12.2
11.63
11.07
10.63
10.33
10.1
9.77
9.13
8.11
6.74
5.14
3.44
1.65
-0.37
-2.79
-5.68
-8.93
-12.12
-14.68
-15.98
-15.59
-13.41
-9.71
-5.07
-0.17
4.35
8.01
10.56
11.99
12.38
11.92
10.82
9.3
7.57
5.81
4.17
2.7
1.4
0.23
-0.85
-1.88
-2.82
-3.7
-4.56
-5.46
-6.5
-7.72
-9.1
-10.56
-11.99
-13.34
-14.58
-15.79
-17.1
-18.72
-20.82
-23.39
-26.15
-28.49
-29.63
-28.88
-25.91
-20.93
-14.58
-7.78
-1.41
3.91
7.9
10.57
12.15
12.95
13.24
13.24
13.15
13.17
13.56
14.56
16.34
18.89
21.91
24.89
27.28
28.68
29.02
28.54
27.59
26.5
25.32
23.95
22.12
19.65
16.48
12.67
8.31
3.44
-1.95
-7.81
-13.82
-19.28
-23.23
-24.7
-23.17
-18.79
-12.48
-5.59
0.54
4.99
7.52
8.49
8.58
8.43
8.41
8.48
8.41
7.91
6.86
5.44
4.04
3.05
2.71
2.95
3.45
3.83
3.82
3.43
2.84
2.25
1.69
0.97
-0.21
-2.07
-4.63
-7.66
-10.84
-13.86
-16.58
-18.94
-20.9
-22.25
-22.64
-21.64
-18.95
-14.6
-8.95
-2.63
3.63
9.16
13.41
16.02
16.74
15.57
12.74
8.85
4.71
1.14
-1.3
-2.54
-3.02
-3.61
-5.48
-9.78
-17.36
-28.41
-42.2
-56.98
-70.41
-80.16
-84.76
-84.15
-79.68
-73.59
-68.03
-64.25
-62.21
-60.65
-57.76
-51.85
-42.05
-28.56
-12.66
3.66
18.18
29.07
35.27
36.66
34.12
29.26
24.22
21.25
22.22
28.02
38.17
50.84
63.41
73.35
79.11
80.63
78.93
75.49
71.36
66.85
61.78
56.07
50.18
45.14
42.0
41.13
41.94
43.05
42.99
40.95
37.27
33.24
30.5
30.29
32.93
37.89
44.24
51.17
58.16
64.79
70.41
74.2
75.48
74.2
71.11
67.37
63.7
59.76
54.11
45.1
31.99
15.58
-1.98
-18.17
-31.39
-41.47
-49.25
-55.79
-61.51
-66.01
-68.49
-68.39
-65.73
-61.23
-55.9
-50.71
-46.33
-43.16
-41.34
-40.83
-41.32
-42.22
-42.68
-41.68
-38.2
-31.51
-21.33
-7.98
7.62
24.06
39.86
53.75
65.0
73.48
79.53
83.71
86.53
88.29
89.11
88.98
87.86
85.74
82.69
78.84
74.42
69.79
65.33
61.36
57.9
54.64
50.95
46.14
39.79
31.96
23.26
14.62
6.96
0.76
-4.09
-8.2
-12.35
-17.04
-21.98
-26.07
-27.63
-25.1
-17.71
-6.07
7.84
21.2
31.14
35.54
33.51
25.45
12.79
-2.51
-18.46
-33.5
-46.82
-58.37
-68.71
-78.43
-87.73
-96.09
-102.29
-104.88
-102.92
-96.54
-87.03
-76.32
-66.13
-57.36
-49.89
-43.07
-36.39
-29.88
-23.99
-19.18
-15.38
-11.99
-8.2
-3.71
0.99
4.74
6.36
5.36
2.32
-1.44
-4.51
-5.98
-5.84
-4.91
-4.44
-5.52
-8.59
-13.15
-18.0
-21.67
-23.15
-22.47
-20.68
-19.28
-19.16
-19.68
-18.51
-12.49
0.95
22.55
50.57
81.06
108.67
127.91
134.54
126.9
106.86
79.75
52.97
33.47
25.2
27.66
36.45
45.57
50.18
48.37
41.07
30.51
18.42
5.18
-9.58
-25.79
-41.9
-55.11
-62.24
-61.3
-52.38
-37.66
-20.5
-4.02
9.99
21.5
31.75
42.31
54.13
67.04
79.95
91.44
100.49
106.89
111.33
115.03
119.3
124.96
132.02
139.52
145.65
148.21
145.1
134.89
117.28
93.22
64.83
35.2
7.89
-13.74
-27.45
-32.97
-32.33
-29.53
-29.3
-35.56
-50.05
-71.87
-97.98
-124.47
-147.92
-166.21
-178.59
-185.18
-186.39
-182.62
-174.38
-162.5
-148.32
-133.52
-119.82
-108.49
-100.15
-94.8
-92.0
-91.18
-91.71
-93.03
-94.63
-95.98
-96.56
-95.87
-93.41
-88.78
-81.79
-72.64
-61.91
-50.61
-39.85
-30.61
-23.45
-18.46
-15.3
-13.5
-12.62
-12.5
-13.13
-14.58
-16.88
-19.87
-23.29
-26.76
-29.85
-32.06
-32.84
-31.7
-28.34
-22.87
-15.84
-8.19
-0.94
5.05
9.33
11.85
12.8
12.51
11.23
9.15
6.45
3.3
-0.06
-3.44
-6.66
-9.58
-12.05
-13.94
-15.16
-15.73
-15.87
-15.91
-16.3
-17.39
-19.3
-21.9
-24.86
-27.78
-30.46
-32.94
-35.46
-38.37
-41.94
-46.22
-50.97
-55.67
-59.63
-62.13
-62.61
-60.88
-57.15
-52.03
-46.35
-40.83
-35.74
-30.74
-24.94
-17.27
-6.95
6.15
21.35
37.31
52.49
65.63
76.06
83.77
89.15
92.61
94.22
93.74
90.89
85.77
79.2
72.64
67.71
65.53
66.18
68.63
71.15
72.07
70.39
66.09
59.88
52.79
45.76
39.43
34.21
30.37
28.08
27.26
27.5
28.06
28.02
26.62
23.43
18.37
11.69
3.75
-4.88
-13.54
-21.36
-27.46
-31.17
-32.31
-31.22
-28.68
-25.55
-22.51
-19.9
-17.8
-16.15
-14.93
-14.24
-14.21
-14.88
-16.13
-17.68
-19.17
-20.29
-20.89
-21.02
-20.88
-20.81
-21.1
-21.95
-23.31
-24.76
-25.6
-25.04
-22.54
-17.97
-11.84
-5.0
1.6
7.3
11.87
15.35
17.92
19.62
20.35
20.02
18.67
16.53
13.98
11.38
8.95
6.8
4.96
3.41
2.13
1.03
-0.01
-1.15
-2.44
-3.82
-5.13
-6.22
-7.06
-7.74
-8.44
-9.31
-10.46
-11.95
-13.88
-16.29
-19.06
-21.77
-23.69
-24.04
-22.25
-18.28
-12.67
-6.32
-0.17
5.1
9.2
12.16
14.15
15.28
15.65
15.29
14.32
12.93
11.32
9.66
8.06
6.5
4.98
3.46
1.93
0.41
-1.08
-2.52
-3.94
-5.38
-6.9
-8.46
-10.02
-11.48
-12.86
-14.28
-16.07
-18.58
-22.06
-26.44
-31.15
-35.2
-37.43
-36.91
-33.3
-27.11
-19.5
-11.98
-5.9
-2.05
-0.45
-0.54
-1.47
-2.49
-3.19
-3.66
-4.3
-5.72
-8.42
-12.55
-17.88
-23.75
-29.13
-32.74
-33.17
-29.23
-20.29
-6.64
10.36
28.53
45.46
59.23
68.81
74.17
76.04
75.48
73.52
71.01
68.66
67.14
67.13
69.27
74.03
81.52
91.46
103.11
115.46
127.41
138.06
146.9
153.78
158.84
162.38
164.96
167.63
172.13
180.76
195.68
217.78
245.72
275.57
301.57
317.76
319.99
307.26
281.83
248.12
210.92
173.73
138.03
103.55
69.04
33.12
-5.35
-47.03
-91.82
-138.46
-184.07
-224.36
-254.58
-271.1
-272.87
-261.94
-242.75
-220.53
-199.53
-181.94
-167.83
-156.01
-145.07
-134.18
-123.2
-112.45
-102.32
-93.08
-84.85
-77.74
-71.76
-66.59
-61.19
-53.77
-42.2
-24.92
-1.86
25.03
52.17
75.29
90.61
95.83
90.37
75.26
52.75
26.0
-1.16
-24.7
-40.93
-47.38
-43.46
-30.71
-12.39
7.36
24.48
35.74
39.3
34.75
23.02
5.99
-13.99
-34.61
-53.96
-70.68
-83.94
-93.32
-98.71
-100.32
-98.73
-94.88
-89.92
-84.92
-80.66
-77.4
-75.01
-73.08
-71.19
-69.04
-66.55
-63.8
-61.0
-58.38
-56.15
-54.52
-53.55
-53.19
-53.06
-52.53
-50.81
-47.18
-41.3
-33.39
-24.2
-14.75
-6.09
1.1
6.55
10.44
13.14
15.09
16.56
17.66
18.38
18.62
18.38
17.76
16.92
16.05
15.22
14.43
13.55
12.5
11.2
9.69
8.03
6.27
4.47
2.65
0.82
-1.01
-2.89
-4.85
-6.98
-9.38
-12.1
-15.09
-18.05
-20.47
-21.63
-20.83
-17.63
-12.12
-5.0
2.71
9.9
15.83
20.2
23.16
24.99
25.88
25.83
24.7
22.44
19.23
15.46
11.6
8.07
5.14
2.84
1.06
-0.41
-1.76
-3.19
-4.77
-6.49
-8.23
-9.81
-11.11
-12.11
-12.97
-13.91
-15.18
-16.97
-19.33
-22.21
-25.35
-28.27
-30.27
-30.53
-28.38
-23.55
-16.39
-7.79
1.04
8.96
15.23
19.63
22.36
23.86
24.56
24.8
24.74
24.42
23.81
22.86
21.55
19.93
18.08
16.11
14.06
11.93
9.69
7.31
4.87
2.47
0.21
-1.86
-3.76
-5.56
-7.35
-9.19
-11.17
-13.41
-16.12
-19.4
-23.22
-27.17
-30.45
-32.12
-31.3
-27.64
-21.39
-13.45
-5.03
2.71
9.01
13.62
16.67
18.56
19.61
20.07
19.99
19.38
18.29
16.8
15.04
13.17
11.33
9.59
8.0
6.55
5.21
3.92
2.58
1.15
-0.4
-2.07
-3.85
-5.68
-7.56
-9.49
-11.51
-13.67
-16.07
-18.83
-22.03
-25.61
-29.21
-32.17
-33.65
-32.85
-29.32
-23.2
-15.23
-6.52
1.78
8.79
14.11
17.76
20.06
21.37
22.02
22.19
21.98
21.38
20.37
18.93
17.05
14.78
12.26
9.72
7.45
5.69
4.59
4.06
3.83
3.49
2.64
1.04
-1.33
-4.18
-7.13
-9.81
-12.06
-13.99
-15.92
-18.28
-21.37
-25.19
-29.29
-32.82
-34.64
-33.73
-29.48
-22.0
-12.16
-1.33
8.98
17.64
24.11
28.45
31.12
32.64
33.43
33.66
33.38
32.59
31.37
29.83
28.13
26.37
24.6
22.78
20.88
18.9
16.87
14.83
12.81
10.8
8.75
6.68
4.68
2.87
1.38
0.24
-0.75
-1.91
-3.66
-6.28
-9.65
-13.17
-15.85
-16.6
-14.67
-9.94
-3.02
4.97
12.82
19.62
24.97
28.93
31.88
34.19
36.14
37.82
39.1
39.82
39.74
38.68
36.56
33.43
29.48
24.93
20.0
14.82
9.43
3.84
-1.87
-7.56
-12.99
-17.94
-22.28
-26.04
-29.43
-32.79
-36.47
-40.79
-45.94
-51.86
-58.25
-64.49
-69.67
-72.8
-73.13
-70.37
-64.92
-57.74
-49.97
-42.68
-36.51
-31.77
-28.46
-26.46
-25.6
-25.61
-26.02
-26.19
-25.39
-23.03
-18.9
-13.25
-6.7
-0.05
6.02
11.17
15.5
19.32
22.89
26.16
28.53
29.19
27.35
22.79
16.02
8.07
0.06
-7.34
-14.26
-21.48
-30.05
-40.67
-53.37
-67.43
-81.85
-95.84
-109.24
-122.54
-136.66
-152.4
-170.03
-189.15
-208.63
-226.7
-241.15
-249.47
-249.31
-239.33
-219.95
-193.79
-165.0
-137.61
-113.66
-91.91
-68.15
-36.91
5.88
60.78
123.95
188.28
245.58
289.21
315.87
325.93
322.51
309.76
291.35
269.58
245.46
219.42
191.92
163.82
136.19
109.8
84.91
61.49
39.65
20.12
4.06
-7.35
-13.49
-14.74
-12.37
-8.09
-3.48
0.44
3.39
5.63
7.69
10.07
12.95
16.23
19.52
22.36
24.33
25.18
24.85
23.49
21.39
18.92
16.45
14.25
12.39
10.76
9.1
7.09
4.57
1.48
-2.11
-6.17
-10.68
-15.49
-20.23
-24.05
-25.88
-24.66
-19.81
-11.57
-0.9
10.73
21.92
31.7
39.65
45.81
50.35
53.44
55.07
55.23
53.97
51.54
48.34
44.86
41.49
38.44
35.63
32.79
29.65
26.12
22.36
18.75
15.65
13.18
11.1
8.96
6.28
2.83
-1.33
-6.0
-11.02
-16.43
-22.35
-28.68
-34.8
-39.57
-41.61
-39.82
-33.9
-24.49
-13.02
-1.06
10.04
19.56
27.34
33.63
38.81
43.22
47.08
50.35
52.72
53.72
53.16
51.71
51.25
54.49
63.9
80.41
102.68
127.59
151.45
171.28
185.26
192.11
190.16
177.11
151.02
111.89
62.86
9.93
-39.94
-81.13
-110.95
-129.58
-138.68
-139.98
-134.57
-123.28
-107.44
-89.4
-72.04
-57.84
-47.99
-42.13
-38.88
-36.66
-34.56
-32.51
-31.12
-31.09
-32.76
-35.91
-39.9
-43.99
-47.72
-50.98
-54.01
-57.09
-60.25
-63.19
-65.44
-66.57
-66.5
-65.59
-64.51
-63.95
-64.43
-66.1
-68.67
-71.37
-73.11
-72.62
-68.86
-61.34
-50.44
-37.24
-23.23
-9.79
2.18
12.36
20.76
27.42
32.22
34.95
35.53
34.16
31.42
28.02
24.63
21.62
19.05
16.67
14.15
11.24
7.93
4.37
0.87
-2.36
-5.26
-7.97
-10.77
-13.91
-17.55
-21.77
-26.59
-31.94
-37.55
-42.85
-46.83
-48.31
-46.24
-40.22
-30.65
-18.76
-6.1
5.83
16.03
24.11
30.15
34.47
37.39
39.12
39.77
39.44
38.26
36.49
34.44
32.39
30.48
28.66
26.71
24.39
21.55
18.24
14.63
10.99
7.47
4.11
0.86
-2.41
-5.86
-9.69
-14.19
-19.6
-25.87
-32.49
-38.37
-42.13
-42.55
-39.06
-31.99
-22.43
-11.84
-1.55
7.57
15.21
21.39
26.27
29.91
32.32
33.47
33.48
32.58
31.15
29.57
28.12
26.91
25.83
24.58
22.82
20.3
16.97
13.0
8.69
4.39
0.31
-3.54
-7.31
-11.31
-15.87
-21.25
-27.45
-34.15
-40.59
-45.7
-48.4
-47.88
-43.93
-37.03
-28.2
-18.67
-9.5
-1.39
5.36
10.66
14.45
16.59
16.91
15.38
12.29
8.24
4.04
0.49
-1.88
-2.98
-3.16
-3.05
-3.32
-4.44
-6.52
-9.35
-12.49
-15.52
-18.13
-20.3
-22.22
-24.21
-26.58
-29.57
-33.3
-37.73
-42.62
-47.39
-51.18
-52.89
-51.59
-46.82
-38.82
-28.5
-17.11
-5.81
4.66
14.01
22.19
29.24
35.04
39.48
42.56
44.53
45.88
47.06
48.36
49.78
51.1
52.08
52.63
52.78
52.64
52.27
51.55
50.26
48.13
45.04
40.92
35.87
29.96
23.18
15.54
7.03
-2.11
-11.32
-19.65
-25.91
-29.04
-28.42
-24.18
-17.18
-8.79
-0.43
6.79
12.29
16.02
18.2
19.08
18.86
17.62
15.52
12.87
10.11
7.69
5.95
4.94
4.46
4.14
3.64
2.78
1.57
0.16
-1.3
-2.73
-4.19
-5.74
-7.48
-9.41
-11.56
-13.95
-16.61
-19.52
-22.41
-24.68
-25.49
-23.94
-19.48
-12.14
-2.68
7.72
17.78
26.65
33.95
39.78
44.42
47.99
50.38
51.25
50.25
47.16
42.02
35.07
26.73
17.49
7.83
-1.87
-11.43
-20.86
-30.24
-39.62
-48.84
-57.54
-65.23
-71.51
-76.18
-79.19
-80.53
-80.12
-77.83
-73.56
-67.37
-59.52
-50.31
-39.97
-28.46
-15.69
-1.72
13.02
27.57
40.78
51.79
60.51
67.68
74.53
82.02
90.25
98.29
104.54
107.41
106.08
100.61
91.64
79.71
64.89
46.94
26.04
3.48
-18.24
-36.14
-48.02
-53.41
-53.84
-51.97
-50.34
-50.33
-51.86
-53.87
-55.19
-55.24
-54.1
-52.31
-50.44
-48.84
-47.64
-46.71
-45.68
-43.94
-40.84
-35.86
-28.98
-20.71
-11.93
-3.52
4.01
10.58
16.4
21.65
26.27
30.04
32.77
34.53
35.71
36.84
38.32
40.17
41.97
43.09
42.96
41.41
38.71
35.46
32.29
29.55
27.27
25.19
22.98
20.4
17.45
14.26
11.07
8.04
5.23
2.6
0.14
-2.04
-3.62
-4.09
-2.9
0.29
5.43
11.98
19.07
25.79
31.44
35.71
38.56
40.02
40.1
38.73
35.91
31.86
27.01
21.91
17.01
12.53
8.48
4.76
1.23
-2.17
-5.53
-8.97
-12.69
-16.89
-21.73
-27.24
-33.32
-39.69
-45.99
-51.83
-56.81
-60.69
-63.38
-65.04
-65.92
-66.25
-66.02
-64.94
-62.5
-58.24
-52.02
-44.17
-35.45
-26.78
-18.97
-12.47
-7.31
-3.3
-0.25
1.84
2.67
1.81
-1.12
-6.1
-12.57
-19.45
-25.43
-29.47
-31.22
-31.16
-30.3
-29.72
-29.86
-30.45
-30.66
-29.7
-27.36
-24.12
-20.97
-18.7
-17.56
-17.09
-16.49
-15.13
-12.97
-10.51
-8.51
-7.41
-7.04
-6.61
-5.02
-1.36
4.75
12.99
22.43
31.83
39.78
44.82
45.53
40.67
29.44
12.09
-9.6
-32.23
-51.59
-64.08
-68.31
-65.96
-61.06
-58.04
-59.11
-62.65
-63.5
-55.36
-34.18
-0.69
39.41
77.58
106.02
120.62
121.88
113.52
99.89
83.77
65.69
44.81
20.63
-5.72
-31.42
-53.07
-67.91
-74.79
-74.18
-67.57
-56.67
-42.8
-26.79
-9.15
9.54
28.39
46.26
61.92
74.46
83.58
89.73
93.94
97.32
100.62
103.89
106.51
107.57
106.25
102.24
95.8
87.66
78.78
70.03
61.98
54.8
48.31
42.13
35.9
29.41
22.75
16.18
10.09
4.75
0.32
-3.23
-6.01
-8.09
-9.44
-9.96
-9.52
-8.1
-5.82
-2.9
0.44
3.96
7.5
10.85
13.74
15.91
17.17
17.52
17.14
16.33
15.38
14.39
13.32
11.97
10.15
7.74
4.75
1.24
-2.68
-6.9
-11.36
-15.94
-20.55
-25.08
-29.52
-33.95
-38.5
-43.29
-48.25
-53.13
-57.47
-60.83
-62.99
-63.98
-64.03
-63.34
-61.91
-59.45
-55.6
-50.11
-43.07
-34.89
-26.17
-17.48
-9.23
-1.71
4.81
10.02
13.68
15.67
16.18
15.67
14.73
13.88
13.42
13.38
13.52
13.58
13.36
12.91
12.48
12.38
12.7
13.06
12.7
10.7
6.49
0.1
-7.74
-15.84
-22.93
-27.89
-30.01
-29.02
-25.07
-18.72
-10.78
-2.14
6.34
13.97
20.24
24.81
27.53
28.44
27.84
26.25
24.21
22.17
20.43
19.25
18.99
20.19
23.39
28.84
36.15
44.36
52.22
58.73
63.47
66.68
68.97
71.05
73.42
76.35
79.97
84.32
89.36
94.84
100.24
104.87
108.05
109.46
109.18
107.52
104.74
100.78
95.27
87.78
78.18
66.74
54.09
40.89
27.61
14.35
1.06
-12.26
-25.31
-37.46
-47.89
-55.85
-60.94
-63.28
-63.47
-62.4
-61.07
-60.38
-61.03
-63.41
-67.49
-72.8
-78.36
-82.94
-85.38
-85.0
-81.79
-76.37
-69.68
-62.69
-56.08
-50.18
-45.01
-40.36
-35.95
-31.52
-27.03
-22.77
-19.28
-17.25
-17.19
-19.31
-23.43
-29.0
-35.24
-41.13
-45.45
-46.89
-44.6
-38.7
-30.69
-23.23
-19.25
-20.95
-28.91
-42.05
-58.13
-74.58
-89.18
-100.28
-106.86
-108.49
-105.36
-98.4
-89.29
-80.0
-72.23
-66.82
-63.57
-61.63
-60.16
-58.86
-58.22
-59.17
-62.55
-68.43
-75.94
-83.47
-89.19
-91.94
-91.62
-89.36
-86.95
-86.11
-87.54
-90.45
-92.81
-91.99
-85.9
-73.89
-57.17
-38.89
-23.76
-17.41
-25.05
-49.49
-89.12
-136.99
-181.75
-210.78
-214.44
-189.49
-139.97
-75.14
-5.56
60.75
119.74
170.64
213.74
248.69
274.26
289.32
293.97
289.83
279.23
264.05
245.08
222.37
196.05
167.4
138.9
113.43
93.12
78.46
68.22
60.12
51.7
40.95
26.66
8.52
-12.94
-36.26
-59.09
-78.59
-92.09
-97.95
-96.16
-88.32
-77.1
-65.18
-54.49
-45.81
-39.06
-33.87
-30.11
-28.05
-28.15
-30.61
-35.05
-40.52
-45.89
-50.25
-53.3
-55.27
-56.68
-57.93
-59.01
-59.53
-58.84
-56.41
-52.17
-46.51
-40.28
-34.48
-30.03
-27.56
-27.34
-29.36
-33.23
-38.21
-43.11
-46.42
-46.7
-43.01
-35.29
-24.42
-11.9
0.76
12.4
22.49
30.89
37.57
42.39
45.16
45.79
44.5
41.84
38.52
35.12
31.92
28.86
25.65
22.02
17.89
13.44
9.08
5.28
2.35
0.33
-1.07
-2.39
-4.31
-7.41
-11.93
-17.62
-23.64
-28.66
-31.2
-30.06
-24.81
-16.01
-5.08
6.07
15.65
22.51
26.32
27.48
26.69
24.57
21.47
17.63
13.42
9.48
6.67
5.65
6.54
8.77
11.28
13.05
13.51
12.77
11.36
9.9
8.66
7.5
6.0
3.7
0.23
-4.63
-10.97
-18.65
-27.13
-35.37
-41.93
-45.36
-44.71
-39.99
-32.24
-23.13
-14.39
-7.26
-2.25
0.74
2.0
1.74
-0.14
-3.78
-9.15
-15.87
-23.18
-30.17
-36.11
-40.58
-43.58
-45.31
-46.02
-45.84
-44.69
-42.39
-38.78
-33.88
-27.99
-21.69
-15.79
-11.07
-8.09
-6.96
-7.26
-8.02
-7.98
-5.85
-0.64
8.06
19.89
33.85
48.47
62.23
73.96
82.99
89.19
92.77
94.06
93.4
91.17
87.84
83.99
80.16
76.68
73.55
70.43
66.89
62.65
57.79
52.81
48.44
45.35
43.85
43.69
44.13
44.04
42.35
38.37
32.18
24.63
17.17
11.38
8.45
8.88
12.33
17.82
24.14
30.23
35.42
39.44
42.26
43.86
44.14
42.95
40.27
36.34
31.6
26.58
21.65
16.89
12.1
7.04
1.59
-4.04
-9.41
-14.02
-17.52
-19.93
-21.66
-23.35
-25.71
-29.26
-34.2
-40.25
-46.64
-52.18
-55.48
-55.39
-51.3
-43.4
-32.66
-20.5
-8.43
2.39
11.3
18.16
23.02
26.0
27.16
26.61
24.63
21.7
18.49
15.54
13.14
11.22
9.46
7.5
5.23
2.85
0.81
-0.44
-0.71
-0.2
0.56
0.85
0.04
-2.27
-6.06
-10.94
-16.08
-20.36
-22.59
-21.83
-17.71
-10.61
-1.58
7.99
16.84
24.13
29.57
33.24
35.35
36.08
35.51
33.78
31.13
27.86
24.3
20.63
16.89
12.97
8.8
4.39
-0.07
-4.33
-8.07
-11.12
-13.47
-15.34
-17.18
-19.56
-22.98
-27.67
-33.36
-39.26
-44.16
-46.81
-46.31
-42.46
-35.89
-27.8
-19.54
-12.21
-6.35
-2.05
0.85
2.45
2.63
1.21
-1.93
-6.61
-12.32
-18.37
-24.08
-28.89
-32.44
-34.55
-35.18
-34.46
-32.68
-30.28
-27.78
-25.61
-24.04
-23.12
-22.84
-23.16
-24.11
-25.58
-27.17
-28.05
-27.1
-23.26
-15.96
-5.41
7.51
21.54
35.4
48.19
59.44
69.05
77.07
83.64
88.85
92.81
95.72
97.79
99.24
100.16
100.51
100.06
98.49
95.59
91.34
85.97
79.93
73.71
67.63
61.8
56.19
50.76
45.48
40.35
35.25
29.96
24.27
18.19
12.07
6.54
2.26
-0.34
-1.26
-0.85
0.34
1.74
2.76
2.83
1.46
-1.65
-6.37
-12.03
-17.58
-21.93
-24.41
-24.91
-23.9
-22.03
-19.87
-17.67
-15.48
-13.26
-11.07
-9.15
-7.78
-7.16
-7.36
-8.24
-9.52
-10.78
-11.51
-11.02
-8.45
-2.94
6.07
18.51
33.36
48.67
61.92
70.72
73.49
69.99
61.21
49.05
35.53
22.41
10.86
1.48
-5.6
-10.67
-14.36
-17.55
-21.2
-25.89
-31.62
-37.72
-43.13
-46.95
-48.9
-49.4
-49.38
-49.69
-50.77
-52.44
-54.21
-55.54
-56.11
-55.75
-54.31
-51.48
-46.85
-40.15
-31.56
-21.83
-12.15
-3.7
2.71
6.84
8.94
9.51
8.97
7.56
5.4
2.58
-0.7
-4.16
-7.48
-10.5
-13.15
-15.5
-17.61
-19.46
-20.99
-22.1
-22.82
-23.27
-23.67
-24.33
-25.52
-27.4
-29.85
-32.37
-34.12
-34.1
-31.52
-26.17
-18.56
-9.79
-1.13
6.41
12.34
16.61
19.43
20.98
21.34
20.57
18.88
16.64
14.34
12.34
10.78
9.48
8.13
6.39
4.12
1.33
-1.84
-5.25
-8.85
-12.68
-16.83
-21.35
-26.23
-31.24
-35.98
-39.83
-42.07
-42.04
-39.4
-34.32
-27.44
-19.8
-12.4
-5.97
-0.81
3.25
6.52
9.2
11.22
12.39
12.58
11.95
10.89
9.85
9.01
8.09
6.56
3.86
-0.12
-4.94
-9.77
-13.82
-16.72
-18.7
-20.48
-22.85
-26.35
-31.05
-36.48
-41.84
-46.22
-48.85
-49.3
-47.57
-44.08
-39.46
-34.4
-29.51
-25.26
-22.01
-20.06
-19.59
-20.69
-23.3
-27.24
-32.34
-38.48
-45.54
-53.26
-61.09
-68.12
-73.32
-75.85
-75.36
-72.13
-66.95
-60.76
-54.38
-48.25
-42.51
-37.22
-32.55
-28.79
-26.21
-24.75
-23.76
-22.07
-18.36
-11.62
-1.53
11.38
25.99
40.92
54.97
67.34
77.57
85.53
91.38
95.52
98.51
100.9
102.89
103.93
102.6
96.75
84.02
62.66
32.4
-5.15
-46.55
-87.33
-123.25
-151.56
-171.67
-185.08
-194.55
-202.89
-211.94
-221.96
-231.69
-238.89
-241.02
-236.11
-223.08
-202.16
-174.54
-141.99
-106.17
-68.09
-27.75
15.67
62.83
112.95
162.99
207.8
241.66
260.53
264.1
256.29
243.91
233.84
229.86
231.1
232.39
226.41
206.58
169.28
114.75
46.82
-28.22
-102.84
-169.36
-220.92
-252.42
-261.47
-248.88
-218.94
-178.63
-135.99
-98.14
-69.57
-51.38
-41.69
-36.77
-32.65
-26.26
-15.97
-1.52
16.46
36.84
58.32
79.63
99.78
118.13
134.42
148.64
160.74
170.45
177.25
180.56
180.04
175.88
168.82
159.95
150.44
141.15
132.54
124.65
117.21
109.89
102.41
94.67
86.69
78.65
70.87
63.65
57.2
51.54
46.52
41.91
37.56
33.47
29.8
26.72
24.29
22.35
20.62
18.73
16.47
13.8
10.86
7.9
5.16
2.79
0.81
-0.85
-2.29
-3.59
-4.73
-5.69
-6.44
-6.99
-7.41
-7.83
-8.35
-9.09
-10.09
-11.35
-12.77
-14.2
-15.37
-15.96
-15.64
-14.15
-11.38
-7.47
-2.74
2.31
7.14
11.2
14.1
15.59
15.66
14.52
12.56
10.26
8.07
6.28
4.99
4.11
3.47
2.89
2.25
1.48
0.52
-0.68
-2.11
-3.73
-5.48
-7.32
-9.3
-11.56
-14.18
-17.12
-20.03
-22.31
-23.26
-22.34
-19.42
-14.86
-9.37
-3.8
1.17
5.13
8.01
9.87
10.82
10.91
10.12
8.53
6.28
3.67
0.96
-1.68
-4.26
-6.9
-9.7
-12.67
-15.64
-18.38
-20.74
-22.76
-24.69
-26.87
-29.63
-33.12
-37.23
-41.6
-45.62
-48.59
-49.91
-49.23
-46.65
-42.59
-37.74
-32.73
-27.91
-23.31
-18.73
-13.99
-9.11
-4.35
-0.14
3.22
5.67
7.49
9.11
10.89
12.96
15.12
16.97
18.2
18.66
18.56
18.23
18.0
17.99
18.11
18.13
17.87
17.28
16.46
15.6
14.88
14.45
14.41
14.82
15.71
17.03
18.7
20.62
22.69
24.84
27.03
29.22
31.39
33.55
35.78
38.25
41.13
44.51
48.28
52.11
55.55
58.17
59.67
59.97
59.15
57.38
54.82
51.56
47.65
43.14
38.12
32.67
26.93
21.01
14.97
8.87
2.8
-3.12
-8.74
-13.97
-18.77
-23.19
-27.36
-31.41
-35.41
-39.36
-43.2
-46.85
-50.24
-53.3
-56.0
-58.33
-60.31
-62.06
-63.68
-65.24
-66.65
-67.63
-67.74
-66.58
-63.9
-59.73
-54.39
-48.33
-41.98
-35.62
-29.34
-23.11
-16.89
-10.61
-4.22
2.4
9.4
16.91
24.93
33.27
41.48
49.01
55.37
60.31
63.91
66.43
68.23
69.49
70.17
69.99
68.67
66.1
62.46
58.16
53.66
49.27
44.97
40.49
35.51
29.85
23.6
17.09
10.77
4.97
-0.18
-4.84
-9.36
-14.26
-20.03
-26.94
-34.84
-43.01
-50.2
-54.9
-55.82
-52.34
-44.86
-34.77
-24.08
-14.82
-8.44
-5.42
-5.25
-6.76
-8.62
-9.79
-9.82
-8.79
-7.09
-5.25
-3.72
-2.92
-3.19
-4.83
-8.01
-12.71
-18.58
-25.05
-31.4
-36.97
-41.33
-44.45
-46.68
-48.64
-50.95
-53.91
-57.25
-60.2
-61.72
-61.02
-57.89
-52.79
-46.63
-40.38
-34.69
-29.8
-25.58
-21.89
-18.64
-15.92
-13.89
-12.58
-11.84
-11.4
-11.0
-10.53
-10.12
-10.08
-10.77
-12.41
-15.0
-18.22
-21.6
-24.61
-26.92
-28.46
-29.44
-30.16
-30.76
-31.07
-30.55
-28.54
-24.5
-18.25
-10.09
-0.63
9.36
19.22
28.41
36.45
42.84
47.1
48.84
48.09
45.36
41.68
38.24
36.04
35.59
36.8
39.19
42.21
45.56
49.31
53.72
59.02
65.15
71.72
78.14
83.8
88.32
91.61
93.8
95.2
96.31
97.86
100.91
106.74
116.46
130.34
147.23
164.36
177.7
183.05
177.2
158.76
128.13
87.11
38.28
-15.1
-68.96
-118.47
-158.67
-185.78
-198.62
-199.24
-192.25
-183.07
-175.87
-172.07
-170.33
-167.6
-160.89
-148.64
-131.31
-111.16
-91.24
-74.45
-62.79
-57.06
-56.96
-61.43
-68.98
-77.75
-85.55
-90.07
-89.41
-82.72
-70.73
-55.61
-40.27
-27.35
-18.38
-13.64
-12.46
-13.9
-17.11
-21.42
-26.14
-30.48
-33.56
-34.63
-33.27
-29.27
-22.53
-13.06
-1.21
11.93
24.42
33.81
38.02
36.19
29.26
19.73
10.77
5.08
4.04
7.41
13.72
20.9
26.91
30.28
30.48
28.01
24.21
20.68
18.45
17.43
16.43
14.01
9.5
3.76
-1.01
-2.25
1.63
10.49
22.66
36.06
49.29
62.13
75.18
88.91
102.84
115.57
125.33
130.97
132.43
130.72
127.17
122.59
116.66
107.97
94.61
75.14
49.34
18.54
-14.74
-47.46
-76.81
-100.76
-118.09
-128.4
-131.85
-129.06
-121.07
-109.1
-94.36
-77.76
-59.96
-41.62
-23.84
-8.46
2.16
5.9
1.74
-9.58
-25.78
-43.79
-60.89
-75.32
-86.46
-94.31
-98.89
-99.94
-97.11
-90.45
-80.79
-69.68
-58.86
-49.67
-42.6
-37.31
-32.97
-28.77
-24.28
-19.46
-14.6
-10.11
-6.32
-3.45
-1.61
-0.89
-1.39
-3.18
-6.23
-10.24
-14.59
-18.41
-20.81
-21.3
-20.09
-18.23
-17.33
-18.96
-24.11
-32.64
-43.28
-53.86
-61.91
-65.25
-62.58
-53.76
-39.89
-23.03
-5.64
9.97
22.19
30.28
34.45
35.52
34.59
32.69
30.46
28.05
25.1
21.01
15.32
8.16
0.39
-6.52
-11.06
-12.35
-10.51
-6.76
-2.85
-0.41
-0.36
-2.71
-6.65
-10.97
-14.35
-15.68
-14.17
-9.4
-1.51
8.9
20.76
32.79
43.71
52.48
58.48
61.61
62.3
61.38
59.9
58.87
58.98
60.4
62.82
65.62
68.1
69.75
70.35
69.98
68.92
67.47
65.82
63.98
61.82
59.19
56.02
52.6
49.62
48.1
49.08
53.28
60.62
70.06
79.74
87.37
90.76
88.41
79.86
65.98
48.79
31.07
15.66
4.75
-0.66
-0.83
2.94
8.9
15.3
20.72
23.98
24.16
20.65
13.37
3.0
-9.05
-21.06
-31.62
-40.2
-47.3
-54.08
-61.8
-71.26
-82.35
-94.06
-104.79
-112.78
-116.68
-115.95
-110.98
-102.92
-93.25
-83.38
-74.37
-66.87
-61.22
-57.46
-55.31
-54.08
-52.75
-50.23
-45.78
-39.32
-31.42
-23.04
-15.09
-8.12
-2.26
2.55
6.41
9.34
11.33
12.55
13.31
13.97
14.72
15.44
15.76
15.37
14.42
13.69
14.45
17.96
24.91
35.06
47.28
60.06
72.0
82.28
90.63
97.25
102.57
107.4
112.87
120.23
130.24
142.32
154.14
161.88
161.37
149.67
126.45
94.58
59.37
26.99
2.43
-11.97
-16.93
-15.58
-11.96
-9.49
-9.87
-12.85
-16.64
-18.87
-17.47
-11.6
-1.79
10.39
23.05
35.07
46.6
58.98
73.72
91.12
109.76
126.68
138.76
144.26
143.54
138.39
130.65
121.1
109.21
93.74
73.41
47.3
14.67
-24.74
-69.96
-117.68
-161.76
-193.82
-205.76
-192.91
-156.64
-104.88
-50.4
-7.25
13.47
7.22
-22.34
-64.23
-103.72
-127.55
-129.01
-110.49
-81.59
-54.06
-35.8
-27.33
-22.8
-14.89
-0.42
16.95
28.81
27.63
12.26
-10.08
-27.27
-28.86
-11.91
17.39
46.79
64.52
64.91
50.37
29.27
10.93
1.14
0.1
3.65
6.48
5.5
1.18
-2.99
-2.82
4.26
17.96
35.44
52.96
67.78
79.51
90.04
102.19
117.71
135.84
153.04
164.12
164.18
150.5
123.64
87.14
46.29
6.37
-28.82
-57.57
-79.87
-96.66
-108.9
-117.26
-122.18
-124.32
-124.85
-125.37
-127.39
-131.73
-137.97
-144.65
-149.66
-151.06
-147.65
-139.21
-126.39
-110.44
-92.87
-75.2
-58.87
-45.02
-34.46
-27.57
-24.34
-24.39
-27.12
-31.79
-37.62
-43.84
-49.79
-55.0
-59.2
-62.35
-64.62
-66.33
-67.81
-69.3
-70.81
-72.14
-72.87
-72.48
-70.52
-66.61
-60.55
-52.23
-41.74
-29.34
-15.6
-1.28
12.75
25.8
37.56
48.17
58.07
67.66
77.11
86.24
94.62
101.76
107.39
111.45
114.1
115.57
115.96
115.19
113.04
109.35
104.22
98.05
91.39
84.7
78.01
71.07
63.52
55.4
47.34
40.37
35.56
33.41
33.7
35.66
38.36
41.22
44.14
47.35
51.09
55.26
59.44
62.99
65.28
65.88
64.65
61.67
57.15
51.4
44.77
37.58
30.18
22.85
15.79
9.16
3.0
-2.68
-7.94
-12.86
-17.53
-22.04
-26.47
-30.82
-35.03
-39.09
-43.11
-47.24
-51.61
-56.2
-60.72
-64.66
-67.51
-69.02
-69.28
-68.66
-67.55
-66.01
-63.75
-60.3
-55.38
-49.25
-42.71
-36.84
-32.61
-30.52
-30.59
-32.47
-35.62
-39.38
-43.0
-45.64
-46.56
-45.39
-42.38
-38.4
-34.64
-32.16
-31.51
-32.57
-34.73
-37.23
-39.48
-41.14
-42.19
-42.79
-43.22
-43.78
-44.63
-45.67
-46.41
-46.05
-43.7
-38.77
-31.11
-21.2
-9.89
1.81
13.0
23.02
31.42
37.92
42.33
44.67
45.23
44.54
43.24
41.86
40.6
39.29
37.57
35.03
31.44
26.77
21.12
14.61
7.26
-0.97
-10.03
-19.71
-29.65
-39.34
-48.34
-56.23
-62.67
-67.27
-69.64
-69.46
-66.64
-61.42
-54.42
-46.47
-38.4
-30.92
-24.49
-19.39
-15.73
-13.45
-12.27
-11.73
-11.33
-10.76
-10.0
-9.28
-8.95
-9.18
-9.81
-10.49
-10.88
-10.82
-10.49
-10.21
-10.29
-10.84
-11.81
-13.11
-14.8
-16.92
-19.36
-21.62
-22.87
-22.17
-18.91
-13.1
-5.4
3.07
11.22
18.26
23.87
28.07
31.03
32.91
33.81
33.87
33.22
32.09
30.62
28.86
26.73
24.16
21.13
17.78
14.33
11.03
8.06
5.4
2.93
0.43
-2.39
-5.78
-9.82
-14.4
-19.08
-23.26
-26.32
-27.84
-27.82
-26.58
-24.67
-22.61
-20.68
-19.0
-17.57
-16.49
-15.93
-16.12
-17.12
-18.86
-21.14
-23.78
-26.66
-29.75
-32.92
-35.88
-38.17
-39.37
-39.26
-38.01
-36.26
-34.82
-34.45
-35.63
-38.44
-42.61
-47.63
-52.95
-58.08
-62.63
-66.37
-69.27
-71.49
-73.39
-75.51
-78.44
-82.75
-88.87
-97.06
-107.41
-119.91
-134.5
-151.12
-169.68
-189.82
-210.59
-230.32
-246.73
-257.5
-261.11
-257.4
-247.65
-234.07
-218.86
-203.51
-188.51
-173.5
-157.69
-140.36
-121.03
-99.46
-75.66
-49.75
-21.84
8.02
39.89
73.72
109.0
144.32
177.54
206.24
228.6
243.99
252.87
256.17
254.47
247.75
235.87
219.58
200.97
183.23
169.39
160.85
156.73
154.27
150.32
142.9
132.12
119.91
109.04
101.81
99.17
100.73
105.31
111.6
118.69
126.07
133.35
140.1
145.8
150.04
152.65
153.55
152.51
148.78
141.13
128.44
110.52
88.72
65.8
45.05
29.01
18.49
12.62
9.53
7.56
6.01
5.22
6.05
9.15
14.47
21.26
28.4
34.79
39.71
42.81
44.01
43.27
40.53
35.85
29.56
22.5
15.97
11.47
10.17
12.46
17.76
24.76
31.88
37.86
42.04
44.44
45.47
45.64
45.32
44.63
43.49
41.59
38.55
34.01
27.78
19.97
11.05
1.78
-7.06
-14.76
-20.87
-25.21
-27.78
-28.82
-28.8
-28.43
-28.56
-29.92
-32.66
-36.15
-38.94
-39.3
-35.97
-28.71
-18.51
-7.18
3.43
12.1
18.52
23.11
26.5
29.19
31.36
33.01
34.25
35.34
36.6
38.2
39.96
41.38
41.79
40.66
37.88
33.81
29.11
24.48
20.38
16.86
13.63
10.17
6.05
1.08
-4.47
-9.96
-14.47
-17.11
-17.35
-15.26
-11.5
-7.09
-3.05
0.01
1.99
3.15
3.81
4.11
3.96
3.22
1.85
-0.0
-2.13
-4.36
-6.65
-9.02
-11.42
-13.7
-15.62
-17.0
-17.81
-18.23
-18.61
-19.33
-20.78
-23.22
-26.68
-30.87
-35.11
-38.48
-40.17
-39.74
-37.29
-33.46
-29.04
-24.77
-21.09
-18.21
-16.21
-15.09
-14.77
-14.97
-15.21
-14.94
-13.75
-11.57
-8.71
-5.72
-3.11
-1.11
0.34
1.45
2.45
3.41
4.24
4.81
4.96
4.64
3.84
2.53
0.66
-1.84
-4.95
-8.47
-11.89
-14.59
-15.94
-15.68
-13.95
-11.3
-8.42
-5.83
-3.72
-1.95
-0.32
1.18
2.29
2.63
1.95
0.38
-1.57
-3.25
-4.17
-4.31
-4.03
-3.87
-4.24
-5.14
-6.29
-7.21
-7.55
-7.27
-6.63
-6.07
-6.04
-6.81
-8.45
-10.79
-13.38
-15.65
-16.97
-16.86
-15.2
-12.25
-8.59
-4.95
-1.96
0.02
0.93
0.95
0.4
-0.39
-1.13
-1.62
-1.84
-1.92
-2.11
-2.67
-3.73
-5.22
-6.89
-8.47
-9.74
-10.65
-11.23
-11.61
-11.93
-12.35
-13.06
-14.31
-16.24
-18.77
-21.45
-23.5
-24.09
-22.67
-19.17
-14.1
-8.35
-2.88
1.6
4.79
6.76
7.79
8.16
8.1
7.73
7.1
6.26
5.26
4.11
2.79
1.22
-0.65
-2.81
-5.12
-7.35
-9.23
-10.6
-11.43
-11.88
-12.29
-13.01
-14.3
-16.29
-18.85
-21.55
-23.74
-24.64
-23.62
-20.38
-15.16
-8.7
-1.98
4.02
8.67
11.76
13.4
13.91
13.57
12.62
11.22
9.54
7.82
6.25
4.94
3.89
2.95
1.93
0.68
-0.86
-2.58
-4.28
-5.69
-6.62
-7.03
-7.04
-6.97
-7.21
-8.11
-9.84
-12.25
-14.8
-16.67
-17.0
-15.18
-11.16
-5.48
0.86
6.71
11.17
13.83
14.75
14.27
12.82
10.73
8.15
5.23
2.13
-0.94
-3.77
-6.23
-8.32
-10.11
-11.68
-13.12
-14.4
-15.44
-16.17
-16.54
-16.69
-16.81
-17.13
-17.78
-18.69
-19.6
-20.2
-20.2
-19.45
-17.88
-15.51
-12.36
-8.52
-4.17
0.34
4.58
8.19
10.97
12.98
14.38
15.27
15.59
15.18
13.9
11.84
9.31
6.74
4.48
2.67
1.21
-0.08
-1.37
-2.73
-4.12
-5.47
-6.67
-7.66
-8.39
-8.86
-9.18
-9.56
-10.32
-11.71
-13.78
-16.23
-18.5
-19.86
-19.68
-17.58
-13.57
-8.15
-2.17
3.39
7.63
10.02
10.49
9.47
7.71
5.98
4.86
4.56
4.92
5.54
5.93
5.69
4.64
2.78
0.29
-2.51
-5.25
-7.59
-9.23
-10.05
-10.14
-9.82
-9.52
-9.63
-10.37
-11.66
-13.19
-14.54
-15.4
-15.59
-15.12
-14.05
-12.48
-10.48
-8.12
-5.58
-3.12
-1.01
0.51
1.32
1.41
0.88
-0.12
-1.4
-2.75
-3.96
-4.87
-5.34
-5.36
-4.96
-4.27
-3.42
-2.54
-1.75
-1.15
-0.88
-0.99
-1.52
-2.4
-3.44
-4.35
-4.77
-4.41
-3.11
-0.95
1.73
4.42
6.64
8.01
8.44
8.1
7.31
6.39
5.55
4.79
3.92
2.73
1.06
-1.08
-3.53
-6.02
-8.34
-10.38
-12.15
-13.76
-15.35
-17.06
-19.04
-21.48
-24.57
-28.35
-32.52
-36.41
-39.03
-39.45
-37.17
-32.43
-26.13
-19.49
-13.55
-8.83
-5.25
-2.4
0.15
2.55
4.59
5.93
6.22
5.33
3.3
0.26
-3.63
-8.24
-13.4
-18.88
-24.35
-29.44
-33.79
-37.1
-39.23
-40.18
-40.1
-39.2
-37.61
-35.35
-32.23
-27.97
-22.26
-15.02
-6.37
3.33
13.67
24.25
34.83
45.18
55.07
64.14
71.93
78.01
82.1
84.19
84.52
83.44
81.32
78.51
75.36
72.32
69.94
68.72
68.96
70.53
72.91
75.35
77.15
77.93
77.66
76.51
74.62
71.99
68.5
64.1
58.97
53.66
48.81
44.96
42.31
40.61
39.31
37.81
35.67
32.68
28.83
24.25
19.09
13.58
8.0
2.65
-2.32
-6.98
-11.67
-16.83
-22.65
-28.99
-35.26
-40.73
-44.82
-47.24
-48.12
-47.74
-46.43
-44.5
-42.25
-40.06
-38.32
-37.27
-36.89
-36.85
-36.65
-35.9
-34.47
-32.56
-30.51
-28.64
-27.1
-25.87
-24.8
-23.77
-22.68
-21.51
-20.25
-18.88
-17.4
-15.82
-14.19
-12.58
-11.05
-9.63
-8.26
-6.8
-5.07
-2.93
-0.35
2.49
5.25
7.55
9.03
9.6
9.43
8.87
8.37
8.3
8.85
10.02
11.67
13.6
15.59
17.41
18.89
19.92
20.5
20.71
20.74
20.66
20.43
19.89
18.88
17.43
15.75
14.2
13.04
12.32
11.81
11.15
10.08
8.6
6.92
5.33
3.96
2.76
1.5
-0.03
-1.86
-3.84
-5.77
-7.51
-9.09
-10.69
-12.48
-14.53
-16.7
-18.76
-20.46
-21.65
-22.35
-22.67
-22.79
-22.86
-23.0
-23.21
-23.47
-23.68
-23.75
-23.65
-23.34
-22.89
-22.37
-21.9
-21.54
-21.33
-21.29
-21.37
-21.51
-21.66
-21.75
-21.77
-21.72
-21.64
-21.56
-21.49
-21.37
-21.13
-20.74
-20.29
-20.11
-20.7
-22.65
-26.4
-32.01
-39.01
-46.38
-52.75
-56.7
-57.11
-53.56
-46.42
-36.84
-26.57
-17.42
-10.91
-7.81
-8.09
-11.02
-15.47
-20.19
-24.07
-26.19
-25.88
-22.72
-16.67
-8.13
1.95
12.29
21.53
28.63
33.19
35.4
35.94
35.5
34.61
33.37
31.62
29.12
25.78
21.74
17.29
12.74
8.28
3.96
-0.27
-4.48
-8.64
-12.62
-16.21
-19.29
-21.82
-24.0
-26.06
-28.23
-30.5
-32.64
-34.23
-34.86
-34.31
-32.68
-30.33
-27.77
-25.45
-23.66
-22.44
-21.72
-21.34
-21.2
-21.29
-21.7
-22.58
-24.13
-26.49
-29.8
-34.1
-39.33
-45.3
-51.74
-58.31
-64.8
-71.2
-77.72
-84.69
-92.36
-100.52
-108.39
-114.69
-117.97
-117.09
-111.63
-102.02
-89.42
-75.35
-61.33
-48.59
-37.92
-29.44
-22.67
-16.59
-10.03
-1.99
7.97
19.61
32.18
44.73
56.39
66.55
74.9
81.43
86.3
89.83
92.27
93.64
93.59
91.52
86.82
79.4
69.94
59.94
51.33
45.92
44.92
48.61
56.43
67.19
79.38
91.48
102.15
110.39
115.71
118.16
118.23
116.78
114.7
112.68
111.02
109.67
108.29
106.58
104.35
101.74
99.08
96.75
94.91
93.41
91.77
89.34
85.6
80.29
73.56
65.86
57.77
49.84
42.44
35.64
29.31
23.1
16.71
9.98
3.02
-3.89
-10.42
-16.46
-22.14
-27.79
-33.66
-39.77
-45.8
-51.21
-55.56
-58.7
-60.92
-62.91
-65.41
-68.97
-73.6
-78.79
-83.69
-87.46
-89.8
-91.15
-92.78
-96.42
-103.68
-115.17
-129.74
-144.11
-153.05
-150.41
-130.91
-92.27
-36.77
28.31
92.12
143.08
171.84
173.39
147.58
98.45
33.0
-39.95
-110.95
-171.2
-214.18
-237.17
-241.53
-231.54
-211.94
-185.74
-153.44
-114.31
-68.66
-19.41
28.11
68.33
97.81
116.66
128.12
136.72
146.2
158.31
172.66
187.3
199.74
207.61
208.99
202.93
189.86
171.96
153.01
137.52
129.3
130.07
138.5
150.36
159.82
161.47
152.5
133.93
110.31
87.6
70.15
58.34
48.1
32.86
7.15
-30.17
-74.67
-117.89
-150.95
-168.11
-168.69
-156.31
-136.46
-113.93
-91.4
-69.83
-49.63
-31.73
-17.65
-8.81
-5.53
-6.51
-9.24
-10.97
-9.89
-5.86
-0.36
4.31
6.15
4.31
-0.57
-6.7
-12.03
-15.1
-15.68
-14.79
-14.17
-15.43
-19.33
-25.35
-31.81
-36.56
-37.74
-34.53
-27.36
-17.72
-7.52
1.67
8.99
14.38
18.3
21.23
23.42
24.83
25.21
24.45
22.62
20.06
17.21
14.39
11.75
9.18
6.54
3.71
0.74
-2.21
-5.03
-7.78
-10.8
-14.62
-19.77
-26.48
-34.44
-42.75
-50.18
-55.57
-58.22
-58.13
-55.82
-52.02
-47.27
-41.78
-35.5
-28.56
-21.43
-15.08
-10.61
-8.8
-9.77
-12.94
-17.23
-21.52
-24.9
-26.89
-27.41
-26.73
-25.34
-23.86
-23.01
-23.54
-26.05
-30.58
-36.36
-41.73
-44.48
-42.69
-35.5
-23.56
-8.65
7.16
22.56
37.42
52.44
68.14
84.06
98.53
109.41
115.16
115.66
112.13
106.31
99.47
91.81
82.75
71.67
58.69
44.95
32.23
22.14
15.48
12.0
10.61
10.02
9.21
7.7
5.4
2.45
-0.92
-4.37
-7.38
-9.19
-8.99
-6.14
-0.39
8.01
18.49
30.27
42.65
54.95
66.54
76.84
85.31
91.57
95.52
97.22
96.82
94.35
89.58
82.15
71.88
58.97
44.3
29.26
15.41
3.86
-5.03
-11.91
-18.27
-25.8
-35.94
-49.41
-66.13
-85.24
-105.2
-123.7
-137.91
-144.94
-142.72
-131.04
-111.89
-89.2
-67.49
-50.31
-39.19
-33.44
-30.96
-29.45
-27.44
-24.49
-20.83
-16.76
-12.26
-7.07
-1.03
5.55
11.87
16.83
19.7
20.59
20.36
20.14
20.35
20.12
17.38
9.84
-3.62
-22.06
-42.54
-61.32
-75.39
-83.77
-87.48
-88.59
-88.88
-88.83
-87.62
-83.83
-76.42
-65.28
-51.22
-35.53
-19.53
-4.18
9.88
22.28
32.9
41.88
49.73
57.12
64.62
72.34
79.67
85.51
88.62
88.13
83.84
76.31
66.64
56.14
45.95
36.78
28.8
21.7
14.9
7.96
0.76
-6.45
-13.14
-18.68
-22.53
-24.08
-22.8
-18.38
-11.13
-2.27
6.2
12.14
14.24
12.71
9.36
6.92
8.04
14.28
25.92
42.13
61.25
80.94
97.95
108.03
106.37
89.06
55.04
7.77
-44.82
-92.3
-125.37
-139.31
-135.67
-121.11
-104.03
-90.7
-82.84
-78.0
-71.9
-61.56
-47.05
-31.22
-17.79
-9.21
-5.63
-5.31
-6.19
-7.29
-9.34
-14.33
-24.3
-40.21
-61.52
-86.43
-112.76
-138.69
-163.13
-185.47
-204.98
-220.28
-229.24
-229.44
-219.03
-197.58
-166.57
-129.18
-89.51
-51.55
-18.23
9.1
30.61
47.58
61.85
75.17
88.81
103.36
118.63
133.81
147.69
158.92
166.22
168.67
165.9
158.27
146.88
133.42
119.71
107.37
97.46
90.44
86.33
84.66
84.43
83.88
80.6
72.24
57.61
37.71
15.91
-2.94
-14.39
-16.06
-8.55
5.14
21.02
35.82
47.82
56.84
63.36
67.69
69.65
68.76
64.83
58.26
50.05
41.22
32.35
23.38
13.8
3.2
-8.26
-19.67
-29.65
-36.77
-40.13
-39.61
-35.88
-30.24
-24.2
-19.13
-15.97
-15.06
-16.19
-18.81
-22.32
-26.26
-30.42
-34.71
-39.03
-43.13
-46.73
-49.61
-51.66
-52.88
-53.13
-52.15
-49.5
-44.93
-38.58
-31.11
-23.58
-17.09
-12.48
-10.16
-10.16
-12.22
-15.97
-20.97
-26.65
-32.34
-37.28
-40.7
-41.97
-40.71
-36.85
-30.67
-22.97
-14.96
-8.14
-4.02
-3.76
-7.76
-15.48
-25.23
-34.43
-39.96
-38.88
-29.28
-11.1
13.45
39.94
62.62
75.95
76.43
63.9
41.91
16.7
-4.74
-16.72
-16.39
-4.07
17.41
43.94
71.24
95.43
113.41
123.18
124.5
119.2
110.86
103.62
100.43
101.85
105.91
109.29
109.03
103.86
94.51
82.95
71.27
60.77
51.82
44.14
37.27
30.75
24.13
16.73
7.77
-3.48
-17.58
-34.64
-54.16
-75.08
-95.97
-115.41
-132.43
-146.73
-158.49
-167.89
-174.63
-177.77
-176.19
-169.19
-157.23
-142.01
-125.92
-111.25
-99.36
-90.44
-83.73
-78.15
-72.78
-67.15
-61.19
-54.92
-48.31
-41.28
-33.84
-26.27
-19.14
-13.09
-8.6
-5.83
-4.53
-4.19
-4.25
-4.15
-3.46
-1.86
0.8
4.45
8.73
13.11
17.01
20.02
22.04
23.23
23.92
24.39
24.84
25.31
25.84
26.43
27.11
27.89
28.75
29.67
30.69
31.91
33.47
35.48
37.98
40.83
43.94
47.22
50.77
54.69
58.94
63.27
67.3
70.74
73.7
76.72
80.46
85.35
91.23
97.39
102.87
106.85
108.77
108.25
104.87
98.12
87.65
73.79
57.75
41.43
26.6
14.2
3.88
-5.75
-16.29
-28.75
-42.95
-57.68
-71.14
-81.67
-88.18
-90.25
-87.91
-81.53
-71.81
-60.0
-48.17
-38.93
-34.7
-36.7
-44.09
-53.99
-62.35
-65.48
-61.54
-51.16
-36.98
-22.43
-10.45
-2.58
1.02
1.2
-0.81
-3.79
-6.71
-8.82
-9.78
-9.72
-9.3
-9.57
-11.62
-16.23
-23.74
-33.84
-45.53
-57.07
-66.08
-70.15
-67.65
-58.69
-45.51
-31.82
-21.44
-16.68
-17.43
-21.51
-25.92
-28.46
-28.44
-26.29
-22.4
-16.14
-6.02
9.1
28.49
48.91
65.41
73.38
70.72
58.98
42.7
27.27
16.63
11.87
11.4
12.33
12.32
10.59
7.9
5.6
4.6
4.75
5.03
4.24
1.71
-2.36
-7.08
-11.28
-14.06
-14.95
-14.04
-11.74
-8.66
-5.4
-2.42
-0.06
1.47
1.97
1.17
-1.24
-5.39
-10.96
-17.04
-22.24
-25.23
-25.2
-22.26
-17.4
-12.01
-7.32
-3.95
-1.89
-0.68
0.23
1.17
2.22
3.32
4.43
5.54
6.67
7.74
8.65
9.34
9.99
11.09
13.24
17.02
22.55
29.5
37.09
44.43
50.8
55.87
59.7
62.52
64.58
66.02
66.84
67.05
66.67
65.71
64.17
61.95
58.97
55.16
50.63
45.61
40.44
35.41
30.75
26.51
22.68
19.14
15.72
12.24
8.48
4.36
0.06
-3.89
-6.68
-7.49
-5.76
-1.47
4.85
12.29
19.88
26.86
32.78
37.43
40.68
42.48
42.77
41.61
39.19
35.76
31.54
26.59
20.8
13.97
5.96
-3.18
-13.07
-23.02
-32.18
-39.72
-45.16
-48.53
-50.37
-51.59
-53.03
-55.16
-57.81
-60.26
-61.54
-60.88
-58.05
-53.4
-47.77
-42.03
-36.85
-32.44
-28.73
-25.48
-22.56
-20.0
-17.98
-16.64
-15.96
-15.79
-15.87
-15.99
-16.05
-16.07
-16.12
-16.21
-16.25
-16.09
-15.55
-14.54
-13.11
-11.45
-9.84
-8.61
-7.96
-7.9
-8.15
-8.1
-7.06
-4.53
-0.49
4.44
9.14
12.4
13.44
12.24
9.54
6.37
3.54
1.18
-1.25
-4.54
-9.22
-15.24
-21.9
-28.24
-33.41
-37.01
-39.05
-39.83
-39.62
-38.62
-36.98
-34.98
-33.09
-31.87
-31.7
-32.5
-33.62
-33.98
-32.49
-28.55
-22.33
-14.72
-6.9
0.09
5.76
10.09
13.23
15.23
16.02
15.72
14.98
15.17
18.02
24.91
36.2
50.82
66.6
80.91
91.56
97.44
98.69
96.48
92.5
88.47
85.74
85.15
86.92
90.78
96.02
101.67
106.65
110.03
111.24
110.27
107.76
104.77
102.48
101.71
102.58
104.37
105.66
104.82
100.61
92.65
81.68
69.25
57.25
47.06
39.18
33.07
27.65
21.78
14.71
6.09
-4.26
-16.51
-30.81
-46.91
-63.8
-79.76
-92.86
-101.92
-107.12
-109.94
-112.38
-115.82
-120.2
-124.1
-125.57
-123.18
-116.8
-107.49
-96.87
-86.32
-76.52
-67.42
-58.69
-50.19
-42.14
-35.05
-29.36
-25.26
-22.58
-20.89
-19.68
-18.6
-17.5
-16.44
-15.54
-14.82
-14.23
-13.7
-13.26
-13.21
-14.0
-15.94
-18.91
-22.23
-24.8
-25.54
-23.85
-19.83
-14.14
-7.73
-1.46
4.02
8.32
11.14
12.26
11.65
9.58
6.68
3.83
1.85
1.21
1.82
3.14
4.37
4.78
4.0
2.06
-0.65
-3.67
-6.66
-9.56
-12.53
-15.8
-19.47
-23.35
-26.92
-29.44
-30.15
-28.51
-24.42
-18.22
-10.68
-2.72
4.76
11.12
16.08
19.67
22.13
23.73
24.64
24.91
24.47
23.23
21.17
18.4
15.15
11.72
8.42
5.43
2.86
0.67
-1.21
-2.94
-4.73
-6.87
-9.67
-13.26
-17.47
-21.67
-24.88
-26.02
-24.33
-19.77
-12.99
-5.15
2.51
9.18
14.61
19.04
22.91
26.49
29.71
32.23
33.68
33.89
33.07
31.77
30.76
30.72
32.05
34.71
38.27
42.02
45.25
47.49
48.55
48.49
47.47
45.54
42.67
38.78
33.91
28.25
22.13
15.87
9.71
3.89
-1.31
-5.64
-8.98
-11.61
-14.27
-18.06
-24.07
-33.09
-45.32
-60.52
-78.25
-98.09
-119.82
-143.19
-167.7
-192.46
-216.17
-237.55
-255.72
-270.55
-282.71
-293.32
-303.52
-313.87
-324.12
-333.15
-339.2
-340.18
-334.11
-319.36
-295.1
-261.51
-219.91
-172.66
-122.57
-72.06
-22.42
26.45
75.45
125.03
174.09
219.61
257.34
283.47
296.13
296.18
286.64
271.33
253.44
234.78
215.99
197.38
179.55
163.5
150.14
139.66
131.29
123.57
115.02
104.96
93.89
83.46
75.79
72.59
74.37
80.17
87.9
95.21
100.36
102.71
102.66
101.11
98.85
96.22
93.17
89.51
85.22
80.43
75.33
69.98
64.24
57.88
50.81
43.17
35.38
28.01
21.66
16.71
13.3
11.19
9.93
8.97
7.85
6.51
5.32
5.14
7.11
12.24
21.01
33.12
47.52
62.74
77.41
90.73
102.56
113.18
122.85
131.47
138.56
143.65
146.78
148.82
151.37
156.29
164.92
177.49
192.86
208.55
221.25
227.53
224.58
210.93
186.65
153.23
112.95
68.0
19.88
-30.71
-83.26
-136.69
-188.73
-235.97
-274.68
-301.95
-316.64
-319.58
-313.19
-300.49
-284.24
-266.4
-248.08
-229.84
-212.05
-195.15
-179.6
-165.8
-153.85
-143.62
-134.67
-126.49
-118.64
-110.93
-103.41
-96.28
-89.74
-83.81
-78.3
-72.93
-67.54
-62.15
-56.86
-51.69
-46.37
-40.31
-32.86
-23.57
-12.53
-0.46
11.49
22.13
30.66
36.81
40.79
42.99
43.8
43.44
42.01
39.55
36.14
31.9
26.99
21.53
15.6
9.3
2.82
-3.51
-9.31
-14.21
-18.05
-20.94
-23.23
-25.4
-27.87
-30.76
-33.7
-35.8
-35.87
-32.69
-25.52
-14.43
-0.37
15.02
29.91
42.85
53.06
60.53
65.81
69.65
72.74
75.6
78.53
81.62
84.52
86.24
85.09
79.06
66.54
47.1
22.06
-5.62
-32.21
-54.16
-69.12
-76.19
-75.78
-69.05
-57.43
-42.47
-25.75
-8.82
6.99
20.89
32.71
42.7
51.06
57.57
61.58
62.35
59.57
53.67
45.73
36.98
28.39
20.42
13.2
6.81
1.44
-2.66
-5.42
-7.16
-8.43
-9.73
-11.33
-13.15
-15.04
-16.97
-19.19
-22.09
-25.93
-30.73
-36.2
-41.78
-46.72
-50.1
-50.95
-48.47
-42.3
-32.82
-21.14
-8.81
2.63
12.16
19.41
24.57
28.03
30.15
31.08
30.85
29.37
26.57
22.39
16.84
10.07
2.39
-5.64
-13.37
-20.17
-25.61
-29.62
-32.39
-34.36
-36.04
-37.89
-40.12
-42.65
-45.01
-46.37
-45.8
-42.57
-36.5
-28.04
-18.25
-8.37
0.45
7.45
12.33
15.15
16.22
15.92
14.7
12.99
11.13
9.29
7.47
5.54
3.37
0.95
-1.58
-3.97
-5.96
-7.38
-8.28
-8.79
-9.19
-9.84
-11.08
-13.17
-16.16
-19.76
-23.27
-25.67
-25.86
-23.01
-16.93
-8.1
2.33
12.98
22.6
30.34
35.85
39.06
39.96
38.53
34.82
29.14
22.16
14.62
6.88
-1.39
-11.16
-23.39
-38.29
-54.84
-71.06
-84.84
-94.86
-101.16
-104.96
-108.03
-111.99
-117.85
-125.82
-135.18
-144.42
-151.56
-155.03
-154.69
-152.51
-152.26
-158.04
-172.22
-193.79
-218.11
-238.22
-247.16
-239.99
-214.97
-173.55
-119.81
-59.69
-0.07
52.26
92.09
117.11
128.5
130.36
128.0
125.97
126.65
130.06
134.65
138.52
140.24
139.11
135.0
128.21
119.63
110.76
103.6
99.92
100.56
104.88
110.98
116.5
119.58
119.49
116.67
112.24
107.32
102.52
97.8
92.67
86.6
79.29
70.97
62.27
54.07
47.26
42.41
39.59
38.33
37.65
36.38
33.6
28.84
22.3
14.95
8.34
4.02
2.64
2.99
1.93
-4.64
-19.81
-43.74
-72.92
-101.18
-122.11
-131.63
-129.35
-118.07
-101.97
-84.65
-68.01
-52.43
-37.71
-23.73
-10.69
1.24
12.13
22.16
31.21
38.76
44.04
46.32
45.42
41.7
35.84
28.6
20.65
12.78
6.08
1.89
1.39
5.18
12.92
23.49
35.47
47.72
59.63
70.99
81.65
91.2
98.88
103.91
105.76
104.49
100.68
95.19
88.87
82.34
75.97
70.03
64.7
60.12
56.27
52.89
49.52
45.61
40.72
34.59
27.23
18.76
9.44
-0.36
-10.08
-18.98
-26.22
-31.06
-33.16
-32.77
-30.62
-27.75
-25.03
-22.87
-21.03
-18.86
-15.72
-11.4
-6.34
-1.43
2.35
4.37
4.55
3.29
1.13
-1.53
-4.46
-7.59
-10.78
-13.8
-16.41
-18.59
-20.59
-22.97
-26.3
-30.84
-36.26
-41.64
-45.67
-47.13
-45.36
-40.44
-33.16
-24.7
-16.12
-8.17
-1.2
4.67
9.45
13.2
16.03
18.18
20.02
21.9
24.11
26.67
29.43
31.97
33.78
34.37
33.46
31.11
27.77
24.07
20.56
17.43
14.38
10.82
6.21
0.51
-5.6
-10.92
-14.09
-14.17
-10.99
-5.21
1.93
9.1
15.34
20.2
23.75
26.23
27.84
28.55
28.18
26.63
23.98
20.49
16.5
12.28
7.94
3.45
-1.18
-5.89
-10.45
-14.52
-17.76
-19.99
-21.26
-21.92
-22.52
-23.67
-25.79
-28.88
-32.45
-35.58
-37.28
-36.79
-33.9
-28.97
-22.84
-16.51
-10.83
-6.38
-3.38
-1.81
-1.51
-2.25
-3.75
-5.64
-7.47
-8.74
-9.08
-8.35
-6.7
-4.49
-2.12
0.12
2.24
4.39
6.76
9.39
12.05
14.27
15.49
15.35
13.75
11.04
7.95
5.37
4.16
4.84
7.47
11.59
16.46
21.28
25.47
28.73
31.0
32.36
32.89
32.63
31.66
30.1
28.09
25.75
23.11
20.16
16.88
13.32
9.73
6.42
3.75
1.96
1.08
0.83
0.68
-0.06
-2.05
-5.63
-10.67
-16.46
-21.86
-25.71
-27.15
-26.07
-23.1
-19.36
-16.02
-13.76
-12.64
-12.16
-11.68
-10.84
-9.77
-9.09
-9.57
-11.75
-15.77
-21.3
-27.8
-34.87
-42.47
-51.19
-62.08
-76.29
-94.53
-116.36
-139.92
-161.81
-177.74
-183.51
-176.22
-155.25
-122.59
-82.58
-40.88
-3.16
26.29
45.63
55.84
60.34
63.62
69.62
80.21
94.78
110.81
125.21
135.74
141.61
143.14
140.81
134.5
123.35
106.6
84.54
59.04
33.25
10.48
-6.93
-18.34
-24.72
-27.92
-29.7
-31.11
-32.32
-32.95
-32.67
-31.56
-30.2
-29.37
-29.49
-30.31
-30.8
-29.62
-25.67
-18.66
-9.25
1.18
11.1
19.39
25.69
30.34
34.11
37.72
41.61
45.76
49.92
53.74
57.07
60.01
62.86
65.95
69.43
73.22
77.0
80.34
82.77
83.96
83.65
81.64
77.74
71.71
63.35
52.55
39.41
24.25
7.59
-10.0
-27.9
-45.37
-61.51
-75.14
-84.95
-89.87
-89.51
-84.4
-75.85
-65.56
-54.92
-44.63
-34.55
-24.1
-12.71
-0.21
13.05
26.42
39.19
50.75
60.7
68.69
74.43
77.71
78.52
77.03
73.46
68.04
60.82
51.9
41.65
31.0
21.54
15.23
13.84
18.15
27.3
38.5
47.48
49.63
41.47
21.99
-6.78
-40.31
-72.93
-99.64
-117.54
-126.39
-128.19
-126.04
-122.86
-120.51
-119.43
-118.98
-118.0
-115.5
-110.94
-104.4
-96.33
-87.26
-77.64
-67.86
-58.37
-49.74
-42.6
-37.29
-33.63
-30.75
-27.38
-22.24
-14.62
-4.65
6.71
18.08
28.14
36.1
41.81
45.7
48.42
50.58
52.51
54.19
55.31
55.47
54.33
51.7
47.65
42.35
36.09
29.19
22.02
15.01
8.64
3.29
-0.9
-4.11
-6.94
-10.09
-14.18
-19.34
-25.19
-30.85
-35.27
-37.57
-37.25
-34.3
-29.21
-22.69
-15.57
-8.6
-2.41
2.5
5.77
7.23
6.91
5.04
2.05
-1.58
-5.39
-9.05
-12.44
-15.53
-18.4
-21.07
-23.56
-25.86
-27.99
-30.03
-32.1
-34.32
-36.77
-39.46
-42.42
-45.59
-48.89
-52.11
-54.83
-56.52
-56.62
-54.81
-51.12
-45.95
-39.89
-33.53
-27.23
-21.16
-15.41
-10.12
-5.55
-1.96
0.51
2.0
2.88
3.55
4.28
5.01
5.47
5.25
4.18
2.35
0.18
-1.76
-2.98
-3.28
-2.81
-2.03
-1.5
-1.74
-3.03
-5.45
-8.75
-12.47
-15.89
-18.21
-18.73
-17.08
-13.37
-8.11
-2.04
4.19
10.04
15.14
19.1
21.46
21.76
19.87
16.15
11.51
7.2
4.44
3.98
5.93
9.59
13.57
16.05
15.31
10.24
0.8
-11.94
-26.21
-40.22
-52.73
-63.27
-71.89
-78.76
-83.73
-86.28
-85.74
-81.61
-73.86
-62.92
-49.62
-34.97
-19.99
-5.43
8.33
21.24
33.35
44.39
53.6
59.86
62.19
60.35
55.18
48.4
41.94
37.17
34.53
33.66
33.96
35.22
37.79
42.24
48.86
57.16
65.89
73.45
78.45
80.06
78.17
73.18
65.99
58.03
51.35
48.28
50.54
58.16
68.81
78.35
82.52
78.91
68.16
53.36
38.21
24.92
13.38
1.98
-10.58
-23.73
-35.04
-41.56
-41.78
-36.62
-29.0
-22.22
-18.29
-17.19
-17.34
-16.81
-14.4
-10.18
-5.15
-0.65
2.36
3.66
3.72
3.44
3.66
4.82
6.79
8.96
10.57
11.09
10.37
8.61
6.11
3.09
-0.37
-4.07
-7.58
-10.14
-10.94
-9.39
-5.51
0.04
6.16
11.78
16.14
18.95
20.3
20.43
19.58
17.99
15.86
13.44
10.88
8.18
5.16
1.57
-2.78
-7.76
-12.89
-17.44
-20.68
-22.11
-21.56
-19.22
-15.5
-11.0
-6.37
-2.31
0.62
2.21
2.79
3.22
4.72
8.43
14.97
24.26
35.49
47.56
59.54
71.03
82.25
93.83
106.25
119.45
132.52
143.78
151.21
153.17
148.92
138.78
123.94
105.92
86.14
65.7
45.48
26.39
9.43
-4.46
-14.78
-21.78
-26.48
-30.27
-34.39
-39.56
-45.97
-53.6
-62.4
-72.37
-83.2
-93.92
-102.94
-108.36
-108.73
-103.71
-94.33
-82.65
-71.06
-61.45
-54.79
-51.08
-49.7
-49.84
-50.81
-52.09
-53.32
-54.19
-54.42
-53.84
-52.49
-50.65
-48.87
-47.82
-47.98
-49.54
-52.23
-55.45
-58.41
-60.38
-60.8
-59.26
-55.58
-49.65
-41.6
-31.68
-20.42
-8.48
3.38
14.48
24.25
32.32
38.49
42.73
45.16
46.0
45.49
43.89
41.36
38.03
34.01
29.46
24.57
19.62
14.91
10.74
7.32
4.74
2.86
1.28
-0.53
-3.11
-6.75
-11.39
-16.55
-21.42
-25.11
-26.88
-26.33
-23.56
-18.98
-13.3
-7.17
-1.08
4.65
9.88
14.4
18.02
20.49
21.69
21.68
20.74
19.35
18.01
17.15
16.86
16.72
15.77
12.69
6.36
-3.47
-15.62
-27.43
-35.46
-36.69
-29.74
-15.64
2.41
20.05
33.39
40.4
41.62
39.71
38.22
40.03
46.07
54.97
63.74
68.92
67.89
59.77
45.66
28.49
12.44
2.2
1.77
12.96
34.12
59.86
82.28
93.69
89.51
70.19
40.81
8.8
-19.22
-39.72
-52.75
-60.64
-66.11
-70.83
-75.07
-78.25
-79.67
-78.93
-76.02
-71.12
-64.56
-56.79
-48.1
-38.58
-28.02
-16.16
-3.19
9.82
20.97
28.16
30.1
27.03
20.68
13.5
7.44
3.16
-0.09
-3.75
-8.98
-15.98
-23.85
-31.09
-36.41
-39.26
-40.01
-39.68
-39.43
-40.17
-42.32
-45.83
-50.22
-54.61
-57.69
-57.84
-53.53
-43.73
-28.31
-8.11
15.29
39.94
63.91
85.61
103.89
118.16
128.44
135.27
139.55
142.17
143.78
144.67
144.79
144.1
142.74
141.1
139.79
139.47
140.84
144.43
150.45
158.36
166.57
172.59
173.68
167.99
155.39
137.77
118.27
99.94
84.44
71.63
59.92
47.57
33.88
19.81
7.61
-0.22
-2.04
2.16
10.85
21.6
31.94
40.06
45.04
46.69
45.1
40.45
33.0
23.4
12.84
2.69
-6.27
-14.76
-25.32
-41.47
-65.94
-98.91
-137.19
-175.06
-206.53
-227.76
-238.39
-241.05
-239.52
-236.64
-233.21
-228.4
-220.96
-210.64
-198.47
-186.32
-175.73
-167.2
-160.03
-152.96
-145.02
-136.07
-126.84
-118.35
-111.39
-105.95
-101.31
-96.38
-90.27
-82.74
-74.37
-66.24
-59.46
-54.68
-51.89
-50.47
-49.61
-48.64
-47.28
-45.56
-43.59
-41.27
-38.24
-33.97
-28.06
-20.48
-11.74
-2.71
5.65
12.63
17.98
21.9
24.82
27.15
29.06
30.48
31.18
30.93
29.65
27.47
24.67
21.59
18.54
15.75
13.32
11.24
9.38
7.58
5.72
3.69
1.44
-1.04
-3.77
-6.61
-9.24
-11.05
-11.35
-9.58
-5.65
-0.04
6.3
12.3
17.15
20.54
22.62
23.8
24.42
24.63
24.38
23.55
22.14
20.3
18.32
16.44
14.77
13.24
11.7
10.02
8.18
6.32
4.66
3.3
2.15
0.94
-0.73
-3.18
-6.53
-10.5
-14.56
-17.93
-19.79
-19.51
-16.79
-11.81
-5.23
2.0
8.9
14.7
19.03
21.87
23.38
23.83
23.41
22.31
20.69
18.76
16.64
14.44
12.21
10.03
8.06
6.48
5.44
4.94
4.75
4.52
3.83
2.35
-0.1
-3.57
-7.99
-13.1
-18.37
-23.0
-26.04
-26.65
-24.43
-19.6
-12.94
-5.5
1.7
7.94
12.92
16.58
18.98
20.15
20.16
19.17
17.49
15.55
13.74
12.28
11.2
10.38
9.69
9.11
8.77
8.86
9.52
10.65
11.9
12.71
12.52
10.9
7.76
3.34
-1.71
-6.46
-9.9
-11.1
-9.53
-5.22
1.22
8.76
16.28
22.91
28.21
32.11
34.72
36.09
36.19
35.02
32.85
30.24
27.9
26.36
25.72
25.64
25.49
24.74
23.19
21.05
18.7
16.52
14.67
13.01
11.34
9.36
6.86
3.72
-0.07
-4.33
-8.62
-12.23
-14.38
-14.51
-12.47
-8.71
-4.05
0.54
4.36
7.12
8.99
10.41
11.73
13.07
14.26
14.95
14.82
13.74
11.83
9.37
6.57
3.58
0.38
-3.02
-6.47
-9.67
-12.19
-13.74
-14.34
-14.32
-14.23
-14.6
-15.74
-17.68
-20.23
-23.04
-25.65
-27.54
-28.21
-27.36
-25.01
-21.58
-17.77
-14.28
-11.59
-9.79
-8.74
-8.27
-8.34
-9.1
-10.65
-12.86
-15.27
-17.3
-18.46
-18.64
-18.09
-17.22
-16.36
-15.56
-14.7
-13.61
-12.25
-10.79
-9.52
-8.71
-8.5
-8.97
-10.19
-12.22
-15.03
-18.27
-21.21
-22.81
-22.07
-18.4
-11.94
-3.5
5.73
14.59
22.31
28.6
33.51
37.17
39.7
41.17
41.65
41.35
40.63
39.83
39.12
38.45
37.51
35.95
33.53
30.27
26.48
22.59
19.03
16.03
13.6
11.54
9.58
7.39
4.66
1.18
-3.13
-8.0
-12.82
-16.68
-18.59
-17.86
-14.35
-8.59
-1.57
5.5
11.66
16.31
19.34
20.89
21.27
20.71
19.38
17.42
15.0
12.39
9.91
7.86
6.39
5.39
4.61
3.7
2.41
0.69
-1.26
-3.11
-4.52
-5.32
-5.53
-5.42
-5.33
-5.69
-6.83
-8.92
-11.88
-15.31
-18.5
-20.58
-20.77
-18.59
-14.14
-7.98
-1.02
5.82
11.82
16.6
19.99
21.96
22.49
21.62
19.58
16.75
13.69
10.94
8.8
7.28
6.06
4.75
3.04
0.9
-1.47
-3.74
-5.61
-6.95
-7.83
-8.46
-9.13
-10.17
-11.88
-14.47
-17.97
-22.03
-25.96
-28.75
-29.43
-27.4
-22.7
-16.03
-8.46
-1.04
5.5
10.9
15.22
18.59
21.01
22.37
22.59
21.74
20.18
18.38
16.78
15.59
14.72
13.89
12.74
11.08
8.93
6.55
4.27
2.42
1.09
0.21
-0.5
-1.41
-2.89
-5.2
-8.44
-12.43
-16.63
-20.27
-22.38
-22.21
-19.44
-14.38
-7.87
-0.98
5.31
10.49
14.46
17.43
19.63
21.12
21.79
21.44
20.08
17.95
15.51
13.25
11.48
10.27
9.39
8.53
7.41
6.01
4.48
3.11
2.13
1.56
1.24
0.78
-0.18
-1.92
-4.51
-7.84
-11.61
-15.35
-18.44
-20.19
-19.99
-17.5
-12.87
-6.74
-0.07
6.13
11.21
14.91
17.37
18.81
19.33
18.84
17.21
14.52
11.17
7.79
4.98
3.02
1.76
0.76
-0.43
-2.01
-3.83
-5.52
-6.69
-7.22
-7.28
-7.24
-7.52
-8.44
-10.17
-12.74
-16.08
-19.98
-23.98
-27.37
-29.29
-28.97
-26.05
-20.7
-13.68
-6.04
1.12
7.03
11.37
14.2
15.78
16.37
16.12
15.14
13.53
11.54
9.53
7.89
6.84
6.3
5.97
5.4
4.25
2.46
0.27
-1.93
-3.74
-4.99
-5.77
-6.38
-7.25
-8.76
-11.12
-14.3
-17.94
-21.36
-23.71
-24.18
-22.23
-17.87
-11.61
-4.39
2.81
9.19
14.39
18.4
21.38
23.45
24.57
24.56
23.32
20.97
17.96
14.9
12.38
10.71
9.85
9.46
9.13
8.59
7.82
7.0
6.39
6.13
6.13
6.14
5.85
5.01
3.54
1.54
-0.82
-3.39
-5.93
-8.15
-9.63
-9.79
-8.2
-4.69
0.43
6.4
12.31
17.39
21.2
23.64
24.81
24.84
23.77
21.6
18.48
14.74
10.84
7.28
4.39
2.28
0.82
-0.21
-1.01
-1.64
-2.03
-2.04
-1.56
-0.59
0.71
2.03
3.02
3.33
2.72
1.09
-1.53
-4.9
-8.53
-11.74
-13.81
-14.13
-12.5
-9.16
-4.74
-0.03
4.3
7.89
10.69
12.85
14.6
16.03
17.11
17.71
17.71
17.14
16.14
14.93
13.7
12.46
11.12
9.47
7.38
4.87
2.2
-0.3
-2.39
-3.98
-5.25
-6.5
-8.04
-10.14
-12.95
-16.43
-20.32
-24.07
-26.89
-28.0
-26.8
-23.12
-17.32
-10.16
-2.54
4.69
10.96
15.93
19.47
21.55
22.28
21.85
20.55
18.72
16.71
14.76
13.01
11.51
10.21
9.06
7.98
6.95
5.98
5.16
4.56
4.27
4.26
4.41
4.43
3.98
2.67
0.22
-3.46
-8.13
-13.2
-17.82
-21.05
-22.12
-20.7
-16.99
-11.63
-5.47
0.69
6.31
11.07
14.85
17.59
19.28
19.95
19.76
18.96
17.86
16.73
15.74
15.0
14.52
14.38
14.65
15.37
16.46
17.76
18.96
19.81
20.19
20.17
20.03
20.11
20.62
21.52
22.55
23.33
23.7
23.97
24.91
27.64
33.24
42.31
54.65
69.25
84.51
98.7
110.42
118.87
124.01
126.48
127.57
128.98
132.64
140.2
152.43
168.68
186.7
202.95
213.7
216.31
210.36
197.78
181.87
165.6
150.2
134.59
116.15
92.23
61.39
23.77
-19.54
-67.32
-118.3
-170.4
-219.66
-260.13
-285.36
-291.1
-277.64
-250.53
-218.57
-190.38
-171.25
-161.71
-158.54
-157.54
-156.06
-153.83
-151.96
-150.96
-149.49
-144.72
-133.91
-116.24
-93.35
-68.61
-45.45
-26.0
-10.87
0.24
7.49
10.46
8.38
0.91
-11.24
-26.2
-41.41
-54.35
-63.12
-66.68
-64.92
-58.64
-49.15
-37.94
-26.3
-15.19
-5.18
3.28
9.78
14.01
15.94
15.95
14.7
12.84
10.85
8.92
7.08
5.43
4.29
4.04
5.0
7.15
10.09
13.14
15.71
17.53
18.82
20.12
22.03
24.88
28.51
32.41
35.95
38.78
40.93
42.85
45.16
48.36
52.72
58.41
65.61
74.59
85.5
98.0
110.99
122.86
132.02
137.6
139.89
140.1
139.56
138.81
137.23
133.4
125.98
114.47
99.29
81.14
60.19
35.69
6.46
-28.02
-66.57
-106.14
-142.57
-172.06
-192.44
-203.68
-207.53
-206.49
-202.7
-197.44
-191.06
-183.42
-174.36
-164.03
-152.97
-141.83
-131.13
-121.14
-112.08
-104.21
-97.94
-93.67
-91.37
-90.32
-89.16
-86.3
-80.61
-71.92
-61.12
-49.78
-39.53
-31.55
-26.3
-23.6
-22.81
-23.08
-23.59
-23.72
-23.1
-21.65
-19.45
-16.69
-13.57
-10.36
-7.43
-5.24
-4.23
-4.63
-6.38
-9.09
-12.18
-15.03
-17.1
-18.01
-17.53
-15.57
-12.25
-7.84
-2.85
2.15
6.55
9.89
11.95
12.75
12.58
11.85
10.98
10.26
9.81
9.56
9.27
8.57
7.02
4.22
0.02
-5.28
-10.91
-15.73
-18.64
-19.08
-17.23
-13.99
-10.64
-8.34
-7.79
-9.16
-12.14
-15.98
-19.57
-21.57
-20.58
-15.76
-7.27
3.54
14.56
23.74
29.98
33.23
34.05
32.78
29.15
22.73
13.84
4.29
-2.9
-4.75
0.07
10.36
22.84
33.77
40.66
42.99
41.77
38.41
33.73
27.95
21.35
15.01
10.79
10.56
15.05
23.22
32.67
40.75
45.93
48.35
49.55
51.4
55.02
60.32
66.29
71.69
75.75
78.38
79.88
80.5
80.09
78.13
74.07
67.79
59.77
50.99
42.63
35.6
30.21
26.13
22.58
18.71
13.95
8.21
1.78
-4.83
-11.25
-17.28
-22.89
-28.09
-32.79
-36.86
-40.2
-42.81
-44.7
-45.79
-45.76
-44.16
-40.66
-35.3
-28.63
-21.58
-15.13
-10.0
-6.43
-4.33
-3.36
-3.26
-3.89
-5.17
-6.98
-9.08
-11.14
-12.85
-14.04
-14.72
-15.06
-15.25
-15.38
-15.39
-15.17
-14.61
-13.7
-12.59
-11.54
-10.85
-10.81
-11.66
-13.48
-16.18
-19.36
-22.32
-24.24
-24.42
-22.49
-18.6
-13.27
-7.26
-1.22
4.46
9.66
14.45
18.87
22.85
26.24
28.82
30.46
31.15
30.93
29.89
28.14
25.76
22.88
19.68
16.42
13.37
10.75
8.68
7.12
5.86
4.59
2.86
0.25
-3.46
-8.21
-13.42
-18.14
-21.24
-21.83
-19.59
-14.96
-8.92
-2.63
2.92
7.28
10.37
12.44
13.77
14.59
15.04
15.26
15.46
15.83
16.44
17.21
17.85
17.99
17.39
16.03
14.15
12.15
10.45
9.26
8.61
8.26
7.91
7.27
6.13
4.41
2.15
-0.4
-2.72
-4.11
-3.83
-1.44
3.0
8.89
15.29
21.27
26.27
30.13
32.99
35.06
36.38
36.88
36.51
35.42
33.98
32.67
31.86
31.62
31.72
31.72
31.22
30.06
28.37
26.56
25.09
24.31
24.31
24.9
25.62
25.94
25.36
23.56
20.52
16.55
12.21
8.13
4.86
2.66
1.53
1.24
1.5
2.04
2.59
2.93
2.84
2.18
0.9
-0.92
-3.1
-5.47
-8.0
-10.83
-14.22
-18.46
-23.72
-29.96
-36.84
-43.84
-50.33
-55.81
-60.05
-63.16
-65.58
-67.9
-70.74
-74.45
-78.98
-83.77
-87.87
-90.22
-89.9
-86.5
-80.1
-71.23
-60.56
-48.73
-36.26
-23.6
-11.33
-0.06
9.71
17.84
24.7
31.11
37.9
45.49
53.63
61.41
67.67
71.56
72.9
72.26
70.76
69.55
69.43
70.55
72.35
73.79
73.72
71.35
66.68
60.71
55.27
52.22
52.46
55.14
57.75
56.84
49.33
33.49
9.51
-20.58
-53.39
-84.79
-110.75
-128.2
-135.96
-135.14
-128.82
-120.91
-114.6
-111.25
-110.15
-109.37
-106.85
-101.33
-92.25
-79.25
-61.78
-39.32
-12.26
17.32
45.59
67.86
80.29
81.33
72.27
56.73
39.36
24.44
14.93
12.14
15.92
25.0
37.39
50.82
63.05
72.35
77.8
79.29
77.31
72.59
65.83
57.61
48.43
38.64
28.42
17.71
6.21
-6.29
-19.76
-33.65
-46.96
-58.53
-67.38
-72.96
-75.3
-74.93
-72.68
-69.53
-66.41
-64.06
-62.93
-62.96
-63.56
-63.63
-61.9
-57.38
-49.77
-39.67
-28.38
-17.48
-8.26
-1.33
3.33
6.25
8.06
9.24
10.13
10.9
11.68
12.55
13.42
14.03
13.94
12.77
10.37
7.03
3.38
0.25
-1.69
-2.14
-1.35
-0.01
1.0
0.86
-0.82
-3.8
-7.11
-9.3
-8.91
-5.02
2.3
11.96
22.21
31.32
38.13
42.4
44.59
45.46
45.71
45.71
45.55
45.22
44.62
43.54
41.52
37.9
31.92
23.03
11.16
-3.27
-19.32
-35.72
-51.06
-63.96
-73.25
-78.17
-78.6
-75.22
-69.53
-63.52
-59.14
-57.64
-58.98
-61.75
-63.51
-61.59
-54.17
-41.1
-24.13
-6.47
8.34
17.59
20.32
17.57
11.8
6.05
2.89
3.85
9.14
17.81
28.15
38.11
45.84
50.1
50.6
47.97
43.46
38.38
33.5
28.92
24.16
18.73
12.55
6.06
0.14
-4.33
-6.46
-5.52
-1.09
6.39
15.13
21.87
22.82
15.36
-0.33
-20.72
-39.87
-51.89
-53.5
-45.44
-32.01
-18.89
-10.56
-8.54
-11.49
-16.59
-21.42
-25.18
-28.57
-32.82
-38.45
-44.6
-49.34
-50.83
-48.38
-43.03
-36.96
-32.42
-30.55
-30.9
-31.86
-31.56
-28.86
-23.73
-16.96
-9.54
-1.93
6.1
15.23
26.09
38.68
52.28
65.58
77.18
85.95
91.29
93.14
91.91
88.3
83.19
77.42
71.71
66.53
62.04
58.16
54.6
51.02
47.06
42.48
37.13
30.96
24.03
16.43
8.28
-0.29
-9.15
-18.12
-26.84
-34.64
-40.58
-43.56
-42.73
-37.84
-29.49
-19.02
-8.06
1.98
10.29
16.67
21.33
24.54
26.41
26.97
26.34
24.86
23.06
21.49
20.47
19.96
19.6
18.89
17.4
14.95
11.6
7.59
3.21
-1.31
-5.87
-10.49
-15.3
-20.5
-26.28
-32.77
-39.88
-47.2
-53.89
-58.89
-61.12
-59.87
-55.08
-47.26
-37.27
-25.98
-14.09
-2.28
8.62
17.43
22.82
23.95
21.02
15.61
10.37
8.09
10.64
18.17
28.97
40.12
48.64
52.61
51.86
47.92
43.24
40.12
39.81
42.15
45.69
48.51
48.94
46.27
40.99
34.84
30.44
30.74
38.28
54.13
77.13
103.47
127.31
142.33
143.95
131.22
107.44
79.12
53.56
36.21
28.87
29.71
34.68
39.54
41.38
39.07
32.63
22.48
9.05
-6.92
-23.9
-39.3
-50.14
-54.15
-50.84
-41.92
-30.72
-20.87
-14.78
-12.72
-12.78
-11.82
-6.9
3.4
18.39
35.49
51.31
62.85
68.42
67.84
62.03
52.2
39.18
23.29
4.59
-16.58
-39.2
-61.61
-81.75
-97.59
-107.51
-110.57
-106.68
-96.68
-82.23
-65.58
-49.01
-34.28
-22.17
-12.55
-4.72
2.01
7.9
12.79
16.43
18.84
20.56
22.37
24.9
28.24
31.84
34.8
36.38
36.32
34.91
32.82
30.58
28.4
26.05
23.09
19.2
14.35
8.93
3.46
-1.58
-5.99
-9.88
-13.53
-17.21
-20.99
-24.76
-28.25
-31.23
-33.59
-35.43
-37.07
-38.89
-41.26
-44.28
-47.72
-50.97
-53.14
-53.36
-51.07
-46.27
-39.52
-31.78
-24.03
-16.99
-10.97
-5.96
-1.88
1.29
3.39
4.26
3.9
2.54
0.64
-1.38
-3.25
-4.97
-6.7
-8.62
-10.83
-13.23
-15.69
-18.1
-20.5
-23.06
-26.01
-29.54
-33.7
-38.44
-43.55
-48.76
-53.67
-57.83
-60.75
-62.13
-62.01
-60.85
-59.41
-58.45
-58.5
-59.67
-61.71
-64.3
-67.36
-71.11
-75.96
-82.26
-90.01
-98.81
-108.04
-117.05
-125.32
-132.41
-137.92
-141.28
-141.87
-139.07
-132.5
-122.07
-108.02
-90.86
-71.24
-50.03
-28.24
-7.12
12.07
28.28
40.99
50.4
57.34
62.93
68.18
73.63
79.35
85.16
90.92
96.64
102.49
108.47
114.26
119.14
122.27
123.09
121.58
118.32
114.18
109.96
106.08
102.5
98.85
94.72
89.88
84.39
78.55
72.75
67.22
61.94
56.63
50.94
44.64
37.83
30.95
24.74
20.0
17.4
17.34
19.92
24.95
32.13
41.13
51.76
63.96
77.7
92.81
108.75
124.57
139.09
151.12
159.81
164.82
166.33
165.03
161.8
157.47
152.4
146.11
137.1
123.15
102.21
73.48
38.27
0.02
-36.63
-67.41
-89.8
-103.71
-111.03
-114.51
-116.55
-118.44
-120.25
-121.43
-121.33
-119.71
-116.77
-112.82
-108.06
-102.41
-95.66
-87.76
-79.12
-70.67
-63.6
-58.83
-56.6
-56.32
-56.79
-56.72
-55.32
-52.52
-49.02
-45.79
-43.68
-42.98
-43.36
-44.09
-44.34
-43.57
-41.69
-39.07
-36.33
-34.09
-32.83
-32.81
-34.04
-36.31
-39.12
-41.65
-42.88
-41.79
-37.73
-30.69
-21.35
-10.9
-0.63
8.42
15.68
20.99
24.49
26.35
26.79
26.0
24.2
21.63
18.52
15.06
11.32
7.36
3.19
-1.19
-5.66
-10.08
-14.15
-17.57
-20.08
-21.58
-22.3
-22.68
-23.29
-24.57
-26.7
-29.55
-32.77
-35.95
-38.6
-40.25
-40.4
-38.65
-34.77
-28.9
-21.63
-13.89
-6.72
-0.98
2.82
4.62
4.65
3.23
0.67
-2.76
-6.74
-10.87
-14.69
-17.95
-20.69
-23.45
-27.01
-32.11
-39.1
-47.7
-57.14
-66.5
-75.13
-82.89
-90.23
-97.94
-106.79
-117.39
-130.01
-144.67
-161.1
-178.67
-196.28
-212.17
-223.87
-228.44
-223.03
-205.67
-176.11
-136.15
-89.55
-41.07
4.48
43.0
71.67
88.62
92.57
82.72
59.14
23.56
-19.92
-65.16
-105.24
-134.44
-149.92
-152.19
-144.27
-130.06
-112.75
-94.03
-74.38
-53.83
-32.69
-11.68
8.64
28.48
49.15
72.6
100.29
132.14
165.99
198.15
224.49
242.25
251.05
252.81
250.79
247.91
245.58
243.43
239.98
233.8
224.42
212.48
199.22
185.83
172.85
160.27
147.77
135.12
122.36
109.92
98.37
88.12
79.33
71.77
64.96
58.36
51.57
44.49
37.28
30.26
23.64
17.48
11.66
6.07
0.78
-3.89
-7.43
-9.36
-9.51
-8.17
-5.94
-3.55
-1.58
-0.29
0.4
0.74
0.97
1.28
1.71
2.26
2.92
3.67
4.45
5.12
5.44
5.18
4.22
2.65
0.72
-1.21
-2.88
-4.16
-5.16
-6.13
-7.37
-9.09
-11.36
-14.09
-16.97
-19.62
-21.56
-22.42
-21.99
-20.3
-17.63
-14.38
-10.95
-7.62
-4.57
-1.86
0.35
1.92
2.69
2.61
1.88
0.83
-0.11
-0.63
-0.68
-0.47
-0.41
-0.85
-1.93
-3.5
-5.17
-6.56
-7.47
-7.96
-8.41
-9.32
-11.19
-14.46
-19.41
-26.06
-33.95
-42.02
-48.67
-52.13
-51.05
-45.15
-35.35
-23.5
-11.74
-1.69
5.92
11.21
14.75
17.12
18.58
19.15
18.75
17.46
15.53
13.29
11.0
8.72
6.34
3.61
0.3
-3.67
-8.2
-13.03
-17.8
-22.1
-25.59
-27.99
-29.21
-29.39
-28.93
-28.36
-28.19
-28.65
-29.66
-30.77
-31.42
-31.05
-29.31
-26.09
-21.51
-15.85
-9.49
-2.89
3.4
8.88
13.13
15.91
17.25
17.4
16.75
15.71
14.6
13.52
12.38
10.93
8.96
6.46
3.64
0.95
-1.19
-2.49
-2.98
-2.92
-2.72
-2.7
-3.04
-3.72
-4.62
-5.52
-6.16
-6.24
-5.45
-3.59
-0.63
3.16
7.36
11.45
15.05
17.99
20.31
22.22
23.92
25.53
26.99
28.13
28.77
28.81
28.4
27.98
28.16
29.49
32.2
35.98
40.05
43.49
45.65
46.49
46.64
47.06
48.49
51.08
54.21
56.81
57.83
56.61
53.01
47.32
40.04
31.84
23.51
16.01
10.16
6.45
4.84
4.86
5.94
7.85
10.98
16.21
24.31
35.33
48.06
60.12
68.58
71.02
66.58
56.45
43.52
31.12
21.51
14.74
8.69
0.55
-11.22
-25.36
-37.95
-44.17
-40.85
-28.37
-10.81
5.67
15.24
14.34
2.5
-18.04
-43.17
-67.95
-87.58
-98.3
-98.44
-88.95
-73.19
-55.79
-40.96
-31.25
-27.19
-27.96
-32.42
-39.77
-49.47
-60.75
-72.23
-82.16
-89.05
-92.29
-92.23
-89.75
-85.71
-80.58
-74.44
-67.48
-60.36
-54.26
-50.55
-50.16
-53.14
-58.65
-65.39
-72.01
-77.49
-81.0
-81.73
-78.67
-70.86
-57.85
-40.14
-19.33
2.31
22.47
39.55
52.91
62.76
69.67
74.1
76.27
76.23
74.15
70.55
66.25
62.19
59.08
57.12
55.84
54.37
51.81
47.68
42.21
36.25
31.01
27.43
25.86
25.87
26.45
26.34
24.51
20.4
14.02
5.87
-3.12
-11.86
-19.27
-24.45
-26.91
-26.68
-24.2
-20.25
-15.67
-11.15
-7.16
-3.84
-1.14
1.16
3.29
5.42
7.65
9.89
12.04
14.0
15.82
17.69
19.96
22.96
26.86
31.5
36.32
40.38
42.68
42.47
39.61
34.73
28.97
23.53
19.05
15.27
11.19
5.67
-1.87
-10.89
-19.88
-26.89
-30.3
-29.29
-23.9
-14.78
-3.12
9.18
19.26
23.52
18.74
3.58
-20.26
-48.15
-74.02
-92.58
-101.07
-99.57
-90.06
-74.86
-55.76
-34.11
-11.64
9.01
24.66
32.77
32.58
25.61
14.96
3.95
-5.17
-11.75
-16.52
-20.7
-25.17
-29.91
-34.09
-36.45
-35.89
-31.95
-25.06
-16.44
-7.63
-0.04
5.47
8.75
10.26
10.72
10.71
10.52
10.13
9.47
8.7
8.28
8.86
10.92
14.46
18.87
23.12
26.13
27.24
26.41
24.18
21.32
18.47
15.87
13.41
10.74
7.59
3.84
-0.43
-5.0
-9.69
-14.23
-18.29
-21.3
-22.58
-21.52
-17.85
-11.91
-4.62
2.76
9.02
13.43
15.91
16.91
17.16
17.29
17.63
18.13
18.48
18.32
17.37
15.54
12.92
9.78
6.49
3.46
1.05
-0.57
-1.46
-1.98
-2.59
-3.73
-5.66
-8.33
-11.54
-15.04
-18.73
-22.62
-26.72
-30.77
-34.19
-36.17
-36.01
-33.48
-28.98
-23.37
-17.65
-12.48
-7.91
-3.44
1.64
7.76
14.77
21.89
28.05
32.33
34.33
34.32
32.98
31.07
29.01
26.87
24.42
21.56
18.45
15.48
13.03
11.13
9.3
6.74
2.55
-3.85
-12.58
-23.21
-34.86
-46.3
-56.16
-63.09
-66.13
-64.98
-60.13
-52.79
-44.34
-35.79
-27.42
-18.75
-9.0
2.31
14.97
28.11
40.57
51.44
60.48
68.1
75.07
82.05
89.34
96.8
104.18
111.35
118.49
125.92
133.83
141.84
148.88
153.35
153.5
148.04
136.52
119.55
98.59
75.71
53.21
33.19
17.38
6.81
1.69
1.39
4.59
9.51
14.37
17.68
18.52
16.58
12.11
5.71
-1.79
-9.48
-16.51
-22.23
-26.28
-28.7
-29.92
-30.57
-31.25
-32.31
-33.74
-35.29
-36.59
-37.45
-37.99
-38.51
-39.42
-41.1
-43.75
-47.46
-52.11
-57.36
-62.61
-67.08
-70.0
-70.94
-69.99
-67.78
-65.29
-63.39
-62.56
-62.72
-63.41
-64.16
-64.82
-65.6
-66.9
-68.9
-71.27
-73.03
-72.88
-69.67
-62.97
-53.33
-42.16
-31.23
-22.01
-15.28
-10.99
-8.56
-7.22
-6.36
-5.79
-5.65
-6.37
-8.55
-12.75
-19.23
-27.7
-37.06
-45.63
-51.53
-53.38
-50.71
-44.06
-34.63
-23.77
-12.48
-1.35
9.31
19.18
27.78
34.52
38.97
41.07
41.26
40.32
39.06
38.02
37.32
36.75
36.0
34.92
33.58
32.22
30.96
29.63
27.65
24.22
18.48
9.74
-2.39
-18.01
-36.82
-58.06
-80.33
-101.63
-119.57
-131.9
-137.14
-135.02
-126.56
-113.78
-99.09
-84.54
-71.41
-60.02
-50.07
-41.02
-32.52
-24.53
-17.24
-10.86
-5.39
-0.71
3.3
6.66
9.31
11.43
13.77
17.69
24.82
36.35
52.37
71.51
91.21
108.6
121.45
128.96
131.94
132.32
132.39
133.94
137.77
143.66
150.65
157.56
163.36
167.4
169.43
169.55
168.14
165.68
162.63
159.06
154.48
147.76
137.48
122.56
102.83
79.34
54.08
29.36
7.15
-11.29
-25.31
-34.54
-38.72
-37.74
-32.13
-23.39
-13.85
-5.92
-1.13
0.65
1.0
2.23
6.09
13.03
22.12
31.66
40.02
46.14
49.66
50.55
48.95
45.09
39.37
32.37
24.72
16.65
7.93
-2.05
-13.83
-27.46
-42.34
-57.4
-71.42
-83.4
-92.72
-99.14
-102.76
-103.88
-102.89
-100.24
-96.31
-91.44
-86.0
-80.43
-75.28
-71.07
-68.19
-66.7
-66.42
-67.08
-68.35
-69.96
-71.55
-72.48
-71.92
-68.98
-63.14
-54.49
-43.87
-32.6
-22.03
-13.15
-6.31
-1.38
2.05
4.37
5.78
6.33
6.05
5.05
3.6
1.98
0.42
-1.0
-2.37
-3.87
-5.64
-7.73
-10.06
-12.51
-14.88
-17.03
-18.92
-20.59
-22.22
-24.02
-26.24
-29.02
-32.33
-35.93
-39.32
-41.85
-42.85
-41.83
-38.65
-33.61
-27.42
-21.01
-15.2
-10.53
-7.12
-4.74
-3.12
-2.09
-1.65
-1.93
-2.96
-4.54
-6.3
-7.81
-8.85
-9.44
-9.89
-10.52
-11.6
-13.13
-14.96
-16.85
-18.55
-19.91
-20.85
-21.41
-21.67
-21.82
-22.15
-22.91
-24.23
-25.93
-27.45
-28.0
-26.77
-23.34
-17.88
-11.14
-4.18
2.03
7.02
10.89
14.09
17.08
20.0
22.58
24.39
25.08
24.65
23.47
22.02
20.71
19.58
18.46
16.99
14.96
12.37
9.44
6.55
4.12
2.41
1.52
1.31
1.4
1.26
0.3
-1.94
-5.52
-10.01
-14.47
-17.68
-18.49
-16.2
-10.81
-3.01
6.04
15.1
23.18
29.79
34.88
38.67
41.42
43.28
44.3
44.51
44.1
43.35
42.53
41.85
41.35
40.9
40.37
39.52
38.1
35.81
32.38
27.75
22.14
16.07
10.09
4.59
-0.42
-5.25
-10.31
-15.94
-22.16
-28.76
-35.32
-41.27
-45.85
-48.26
-47.83
-44.3
-38.05
-30.06
-21.57
-13.7
-7.13
-2.0
1.88
4.81
6.97
8.4
9.05
8.92
8.06
6.65
4.92
3.18
1.61
0.28
-0.96
-2.41
-4.34
-6.87
-9.85
-13.02
-16.09
-18.93
-21.67
-24.58
-28.03
-32.35
-37.65
-43.78
-50.22
-56.13
-60.59
-62.89
-62.92
-61.17
-58.58
-56.06
-54.12
-52.78
-51.77
-50.86
-50.15
-50.07
-51.1
-53.51
-57.01
-60.88
-64.04
-65.43
-64.16
-59.73
-52.13
-41.93
-30.34
-19.09
-10.13
-5.09
-4.83
-9.09
-16.53
-25.28
-33.71
-41.19
-48.3
-56.46
-67.01
-80.17
-94.53
-107.18
-114.6
-113.89
-103.73
-84.78
-59.33
-30.54
-1.52
25.25
48.23
66.75
80.91
91.48
99.76
107.25
115.13
123.73
132.36
139.64
144.14
145.1
142.74
137.94
131.65
124.34
115.99
106.38
95.61
84.25
73.11
62.76
53.12
43.48
32.94
20.9
7.48
-6.34
-18.9
-28.26
-32.7
-31.29
-24.2
-12.76
0.91
14.54
26.27
35.0
40.29
42.15
40.82
36.79
30.88
24.24
18.13
13.37
9.99
7.15
3.54
-1.81
-8.97
-16.9
-23.85
-28.16
-28.98
-26.69
-22.64
-18.56
-15.73
-14.46
-14.13
-13.79
-12.86
-11.47
-10.18
-9.29
-8.17
-5.36
0.75
10.86
24.17
38.5
51.31
60.72
66.23
68.47
68.52
67.1
64.31
59.83
53.46
45.5
36.91
28.96
22.86
19.18
17.53
16.45
13.79
7.5
-3.51
-18.73
-36.15
-52.89
-66.26
-74.76
-78.49
-78.91
-78.03
-77.34
-77.16
-76.58
-73.93
-67.63
-56.81
-41.64
-23.09
-2.57
18.57
39.2
58.5
75.82
90.6
102.37
110.84
115.96
117.85
116.84
113.44
108.38
102.46
96.33
90.2
83.74
76.16
66.62
54.57
39.98
23.23
4.88
-14.39
-33.69
-51.65
-66.38
-75.76
-78.13
-72.95
-61.28
-45.6
-29.3
-16.05
-9.31
-11.81
-25.06
-48.56
-79.3
-111.96
-140.27
-158.9
-165.13
-159.21
-143.43
-120.5
-92.41
-60.41
-25.81
9.13
41.17
67.11
85.02
94.99
98.71
98.34
95.18
89.22
79.5
65.08
45.97
23.46
-0.09
-21.81
-39.03
-49.77
-53.0
-48.65
-37.35
-20.17
1.62
26.52
52.63
77.53
98.39
112.54
118.27
115.57
106.35
93.85
81.7
72.78
68.57
69.2
73.87
81.46
90.79
100.64
109.7
116.61
120.29
120.29
116.91
110.91
103.06
93.68
82.45
68.71
51.81
31.61
8.82
-15.01
-37.84
-57.72
-73.56
-85.76
-96.02
-106.66
-119.39
-134.18
-148.89
-159.71
-162.23
-152.8
-129.77
-94.29
-50.71
-6.16
30.97
53.31
57.03
43.22
17.5
-12.28
-39.18
-59.52
-73.43
-83.54
-92.78
-102.71
-113.06
-122.48
-129.53
-133.4
-134.03
-131.84
-127.39
-121.26
-113.94
-105.71
-96.51
-85.98
-73.8
-60.24
-46.54
-34.65
-26.72
-24.09
-26.49
-31.98
-37.58
-40.27
-38.2
-31.15
-20.29
-7.73
3.97
11.8
12.38
2.9
-17.25
-44.87
-72.74
-91.71
-94.31
-78.31
-47.87
-11.71
20.94
44.26
57.51
63.88
67.49
70.87
74.05
75.62
74.4
70.51
65.21
59.83
54.86
49.82
43.66
35.84
26.85
18.2
11.75
8.85
9.59
12.77
16.27
17.98
16.55
11.83
4.76
-3.08
-10.18
-15.57
-19.04
-21.0
-22.12
-22.87
-23.35
-23.28
-22.25
-20.01
-16.63
-12.5
-8.17
-4.14
-0.76
1.85
3.78
5.28
6.72
8.55
11.18
14.8
19.33
24.4
29.43
33.82
37.13
39.17
40.03
39.98
39.36
38.39
37.18
35.71
33.91
31.76
29.28
26.56
23.67
20.64
17.43
13.99
10.31
6.36
2.11
-2.52
-7.57
-12.9
-18.03
-22.16
-24.37
-23.93
-20.65
-14.99
-7.94
-0.64
6.01
11.53
15.88
19.24
21.74
23.37
24.0
23.55
22.14
20.15
18.04
16.24
14.9
13.94
13.09
12.08
10.79
9.25
7.68
6.29
5.2
4.42
3.77
3.01
1.94
0.42
-1.53
-3.8
-6.32
-9.08
-12.11
-15.38
-18.59
-21.14
-22.24
-21.21
-17.82
-12.4
-5.82
0.85
6.69
11.24
14.47
16.66
18.12
19.02
19.38
19.19
18.49
17.48
16.36
15.28
14.29
13.28
12.07
10.54
8.66
6.53
4.33
2.32
0.7
-0.39
-1.01
-1.36
-1.78
-2.58
-4.01
-6.11
-8.77
-11.67
-14.33
-16.17
-16.63
-15.36
-12.38
-8.09
-3.17
1.66
5.92
9.42
12.2
14.37
15.92
16.76
16.8
16.11
14.91
13.54
12.31
11.38
10.76
10.32
9.9
9.36
8.6
7.59
6.36
5.04
3.82
2.88
2.35
2.21
2.33
2.51
2.55
2.3
1.71
0.82
-0.22
-1.12
-1.45
-0.7
1.56
5.54
11.13
17.93
25.36
32.76
39.5
45.01
48.83
50.7
50.58
48.58
44.86
39.5
32.48
23.87
13.98
3.42
-6.99
-16.56
-25.02
-32.6
-39.9
-47.52
-55.85
-65.0
-75.05
-86.13
-98.3
-111.15
-123.45
-133.15
-137.96
-136.12
-127.04
-111.3
-89.9
-63.69
-33.17
0.94
36.83
71.23
99.99
119.49
128.15
127.0
118.96
107.34
94.38
80.77
66.32
51.0
35.82
22.64
13.38
9.04
9.2
12.28
16.2
19.16
20.05
18.58
15.02
10.01
4.42
-0.87
-5.03
-7.61
-8.62
-8.53
-8.16
-8.33
-9.62
-12.11
-15.3
-18.18
-19.5
-18.15
-13.54
-5.95
3.59
13.61
22.67
29.73
34.4
36.73
36.97
35.45
32.44
28.33
23.63
19.01
15.04
12.06
9.98
8.38
6.71
4.53
1.77
-1.31
-4.28
-6.75
-8.57
-9.96
-11.34
-13.1
-15.47
-18.38
-21.59
-24.74
-27.4
-29.13
-29.44
-27.89
-24.28
-18.69
-11.56
-3.53
4.7
12.57
19.54
25.12
28.7
29.71
27.88
23.38
16.98
9.79
2.96
-2.67
-6.73
-9.32
-10.87
-11.89
-12.9
-14.26
-16.14
-18.55
-21.3
-24.12
-26.76
-29.04
-30.95
-32.62
-34.28
-36.21
-38.53
-41.13
-43.49
-44.79
-44.15
-40.92
-35.05
-27.12
-18.14
-9.26
-1.36
5.05
9.8
12.84
14.08
13.4
10.84
6.74
1.85
-2.91
-6.76
-9.42
-11.16
-12.79
-15.16
-18.68
-23.1
-27.68
-31.5
-33.82
-34.32
-33.09
-30.67
-27.75
-24.98
-22.82
-21.56
-21.22
-21.47
-21.62
-20.79
-18.41
-14.26
-8.4
-1.16
6.97
15.37
23.46
30.75
36.9
40.91
42.05
40.45
37.21
33.88
31.68
31.1
31.93
33.33
32.82
28.34
19.61
8.55
-2.01
-9.75
-13.59
-13.61
-10.79
-8.67
-10.03
-15.01
-20.93
-24.6
-24.62
-21.99
-19.15
-18.98
-26.77
-46.4
-78.61
-120.94
-169.74
-221.58
-272.74
-318.14
-333.7
-302.2
-224.68
-122.11
-19.99
65.77
131.05
178.7
213.99
241.22
257.78
260.08
248.06
226.92
204.54
187.64
178.24
176.14
178.46
178.51
170.35
151.54
123.86
91.3
57.37
23.82
-9.13
-42.49
-78.7
-118.6
-159.82
-196.9
-223.63
-235.86
-233.0
-217.84
-195.57
-172.46
-153.08
-138.96
-128.77
-119.89
-110.22
-99.13
-87.23
-75.81
-66.08
-58.25
-51.39
-44.0
-35.07
-24.75
-14.27
-5.17
1.42
5.44
7.84
10.03
13.06
17.09
21.28
24.28
24.86
22.41
17.14
9.91
1.94
-5.52
-11.35
-14.6
-14.64
-11.16
-4.37
5.08
16.2
27.93
39.38
49.85
58.8
65.79
70.42
72.45
72.04
69.74
66.46
63.15
60.42
58.34
56.55
54.42
51.42
47.36
42.48
37.27
32.26
27.79
23.83
20.11
16.14
11.48
5.79
-1.09
-9.06
-17.69
-26.08
-32.98
-36.99
-36.99
-32.53
-24.07
-12.85
-0.44
11.78
22.89
32.56
40.75
47.46
52.56
55.83
57.12
56.54
54.51
51.63
48.5
45.52
42.8
40.16
37.3
33.94
30.05
25.86
21.77
18.2
15.35
13.07
10.93
8.37
4.95
0.46
-5.07
-11.42
-18.19
-24.76
-30.29
-33.73
-34.09
-30.79
-23.93
-14.31
-3.22
8.06
18.59
27.93
35.97
42.68
47.98
51.65
53.56
53.77
52.64
50.62
48.16
45.54
42.87
40.14
37.37
34.6
31.85
29.11
26.28
23.27
20.02
16.57
13.02
9.42
5.76
1.93
-2.18
-6.65
-11.5
-16.73
-22.33
-28.2
-33.98
-38.9
-41.89
-41.84
-38.05
-30.61
-20.4
-8.87
2.46
12.49
20.66
26.97
31.64
34.89
36.82
37.47
36.93
35.41
33.24
30.78
28.27
25.85
23.48
21.05
18.48
15.74
12.88
10.0
7.24
4.67
2.24
-0.15
-2.66
-5.41
-8.39
-11.5
-14.57
-17.53
-20.52
-23.83
-27.75
-32.19
-36.56
-39.73
-40.45
-37.88
-31.94
-23.45
-13.81
-4.45
3.66
10.18
15.28
19.31
22.51
24.89
26.29
26.56
25.72
23.98
21.66
19.06
16.37
13.65
10.87
8.0
5.04
2.03
-1.02
-4.17
-7.57
-11.33
-15.46
-19.8
-24.08
-28.06
-31.73
-35.42
-39.72
-45.27
-52.37
-60.75
-69.39
-76.76
-81.38
-82.34
-79.74
-74.71
-69.04
-64.65
-62.93
-64.35
-68.2
-72.56
-74.65
-71.6
-61.35
-43.56
-19.85
6.52
31.77
52.75
67.63
76.12
79.0
77.63
73.59
68.49
63.92
61.13
60.74
62.5
65.4
68.11
69.52
69.08
66.79
62.88
57.59
50.83
42.29
31.61
18.77
4.44
-9.96
-22.54
-31.45
-35.6
-35.12
-31.24
-25.89
-20.8
-17.07
-14.92
-13.95
-13.54
-13.12
-12.33
-10.88
-8.68
-5.76
-2.28
1.68
6.41
12.59
21.11
32.54
46.68
62.39
77.9
91.41
101.69
108.36
111.81
112.74
111.88
109.77
106.75
102.97
98.33
92.36
84.47
74.38
62.66
50.88
41.04
34.64
31.71
30.58
28.58
23.22
13.3
-0.75
-17.4
-35.07
-52.91
-70.89
-89.32
-108.24
-127.02
-144.44
-159.09
-169.65
-175.11
-175.01
-169.8
-161.08
-151.4
-143.55
-139.42
-139.05
-140.45
-140.53
-136.51
-127.19
-113.42
-97.47
-81.8
-68.09
-56.88
-48.01
-41.13
-35.97
-32.12
-28.72
-24.45
-18.0
-8.89
2.14
13.42
23.12
30.25
34.95
38.18
40.83
42.94
43.66
41.84
36.95
29.67
21.88
16.04
14.39
18.21
27.57
41.44
58.06
75.33
91.17
103.81
111.96
115.11
113.48
108.03
100.21
91.54
83.14
75.35
67.68
59.04
48.31
35.1
20.14
5.17
-7.67
-16.78
-21.77
-23.57
-23.82
-24.05
-24.87
-25.95
-26.47
-25.8
-24.1
-22.32
-21.69
-23.04
-26.16
-29.73
-31.66
-29.96
-23.66
-13.43
-1.62
8.4
13.32
11.04
1.42
-13.86
-31.8
-49.0
-62.33
-69.43
-68.88
-60.46
-45.3
-25.75
-5.03
13.66
27.98
37.01
41.21
41.87
40.38
37.79
34.77
31.81
29.5
28.61
29.89
33.89
40.73
49.98
60.68
71.4
80.44
86.06
86.72
81.45
70.17
53.88
34.52
14.59
-3.51
-18.15
-28.71
-35.54
-39.46
-41.23
-41.28
-39.85
-37.39
-34.77
-33.24
-33.98
-37.55
-43.6
-51.03
-58.36
-64.24
-67.55
-67.5
-63.52
-55.31
-43.03
-27.44
-9.88
8.0
24.75
39.46
51.96
62.56
71.71
79.58
85.91
90.15
91.9
91.29
89.17
86.97
86.23
88.04
92.74
99.87
108.48
117.58
126.45
134.71
142.3
149.38
156.46
164.39
174.08
185.72
197.91
207.37
209.52
200.07
176.77
140.5
95.03
45.69
-2.42
-45.84
-83.1
-114.31
-140.27
-161.81
-179.6
-194.22
-206.33
-216.53
-225.2
-232.19
-236.85
-238.09
-234.78
-226.15
-212.01
-192.88
-169.83
-144.3
-117.91
-92.32
-68.95
-48.78
-32.06
-18.31
-6.61
3.75
12.79
19.66
23.07
22.04
16.62
8.13
-1.03
-8.08
-10.58
-6.98
3.13
18.88
38.05
57.03
70.98
74.65
63.91
37.49
-1.71
-46.79
-88.57
-118.52
-131.51
-127.27
-109.85
-85.58
-60.59
-39.01
-22.65
-11.59
-5.27
-3.05
-4.25
-7.86
-12.34
-15.94
-17.26
-15.87
-12.44
-8.46
-5.55
-4.76
-6.22
-9.18
-12.43
-14.83
-15.62
-14.55
-11.76
-7.55
-2.34
3.44
9.35
15.04
20.27
24.93
29.02
32.47
35.06
36.51
36.57
35.25
32.92
30.19
27.76
26.1
25.31
25.07
24.86
24.18
22.79
20.73
18.28
15.82
13.59
11.65
9.89
8.08
5.99
3.49
0.58
-2.66
-6.08
-9.47
-12.51
-14.74
-15.69
-15.0
-12.63
-8.92
-4.51
-0.09
3.83
7.04
9.58
11.62
13.2
14.24
14.57
14.15
13.11
11.77
10.53
9.63
9.13
8.82
8.39
7.52
6.05
4.03
1.64
-0.81
-3.11
-5.12
-6.84
-8.32
-9.65
-10.88
-12.03
-13.17
-14.28
-15.31
-16.1
-16.35
-15.72
-13.93
-10.9
-6.83
-2.14
2.63
6.99
10.63
13.49
15.62
17.1
17.96
18.12
17.45
15.92
13.65
10.95
8.23
5.87
4.09
2.97
2.47
2.52
3.02
3.85
4.82
5.67
6.13
5.99
5.19
3.85
2.17
0.27
-1.83
-4.28
-7.22
-10.63
-14.14
-17.13
-18.83
-18.63
-16.32
-12.2
-6.95
-1.41
3.74
8.06
11.4
13.74
15.12
15.59
15.22
14.15
12.6
10.84
9.1
7.55
6.2
4.95
3.67
2.2
0.48
-1.46
-3.44
-5.23
-6.6
-7.45
-7.84
-8.04
-8.35
-9.13
-10.64
-12.97
-15.99
-19.36
-22.53
-24.86
-25.74
-24.8
-22.03
-17.75
-12.53
-7.03
-1.84
2.64
6.19
8.8
10.53
11.54
12.04
12.19
12.1
11.85
11.45
10.9
10.18
9.36
8.5
7.71
7.02
6.44
5.87
5.22
4.44
3.56
2.63
1.69
0.69
-0.54
-2.19
-4.39
-7.09
-10.02
-12.73
-14.66
-15.33
-14.46
-12.01
-8.26
-3.68
1.15
5.7
9.62
12.76
15.13
16.81
17.85
18.28
18.12
17.46
16.5
15.44
14.5
13.73
13.04
12.26
11.16
9.62
7.7
5.62
3.65
1.99
0.66
-0.54
-1.83
-3.42
-5.36
-7.58
-9.93
-12.33
-14.64
-16.67
-18.03
-18.24
-16.87
-13.83
-9.43
-4.36
0.64
4.99
8.44
11.0
12.79
13.87
14.28
14.04
13.26
12.12
10.84
9.62
8.53
7.59
6.76
5.93
5.0
3.85
2.44
0.83
-0.8
-2.21
-3.2
-3.74
-3.99
-4.3
-5.07
-6.58
-8.94
-11.97
-15.24
-18.13
-19.98
-20.27
-18.8
-15.75
-11.65
-7.15
-2.84
0.95
4.15
6.79
8.94
10.53
11.46
11.69
11.29
10.5
9.59
8.74
7.99
7.24
6.38
5.34
4.12
2.77
1.33
-0.11
-1.48
-2.65
-3.52
-4.09
-4.48
-4.94
-5.71
-6.96
-8.69
-10.81
-13.08
-15.25
-16.96
-17.83
-17.47
-15.63
-12.33
-7.95
-3.09
1.55
5.47
8.45
10.54
11.93
12.78
13.16
13.08
12.62
11.92
11.18
10.59
10.23
10.1
10.09
10.09
10.07
10.03
9.97
9.84
9.54
8.88
7.73
6.03
3.85
1.4
-1.05
-3.26
-5.15
-6.84
-8.63
-10.79
-13.4
-16.13
-18.4
-19.52
-19.02
-16.81
-13.23
-8.86
-4.29
0.09
4.1
7.62
10.54
12.67
13.76
13.74
12.7
10.95
8.89
6.89
5.19
3.9
3.03
2.51
2.28
2.29
2.42
2.57
2.63
2.5
2.1
1.4
0.35
-1.07
-2.88
-5.05
-7.53
-10.21
-12.98
-15.71
-18.18
-20.05
-20.9
-20.29
-17.98
-14.06
-9.02
-3.63
1.28
5.07
7.46
8.57
8.75
8.38
7.76
7.0
6.1
5.05
3.93
2.91
2.24
2.08
2.43
3.1
3.77
4.11
3.94
3.28
2.29
1.18
0.12
-0.81
-1.59
-2.22
-2.72
-3.13
-3.56
-4.19
-5.16
-6.5
-8.0
-9.24
-9.72
-9.0
-6.92
-3.63
0.44
4.74
8.76
12.17
14.84
16.79
18.09
18.78
18.88
18.41
17.46
16.2
14.81
13.41
12.07
10.8
9.58
8.47
7.54
6.84
6.32
5.75
4.91
3.57
1.7
-0.59
-3.05
-5.39
-7.36
-8.79
-9.64
-10.05
-10.28
-10.58
-11.11
-11.8
-12.37
-12.42
-11.66
-10.04
-7.78
-5.27
-2.91
-0.97
0.42
1.34
1.94
2.4
2.88
3.45
4.11
4.77
5.3
5.63
5.73
5.67
5.59
5.61
5.79
6.11
6.46
6.7
6.68
6.34
5.69
4.79
3.71
2.43
0.82
-1.32
-4.14
-7.7
-11.92
-16.56
-21.3
-25.75
-29.4
-31.74
-32.34
-30.99
-27.85
-23.45
-18.55
-13.89
-9.97
-6.95
-4.7
-2.99
-1.65
-0.66
-0.12
-0.13
-0.66
-1.53
-2.46
-3.18
-3.49
-3.44
-3.22
-3.06
-3.13
-3.45
-3.87
-4.2
-4.37
-4.39
-4.44
-4.66
-5.13
-5.84
-6.73
-7.8
-9.08
-10.63
-12.4
-14.15
-15.48
-15.93
-15.15
-13.07
-9.85
-5.88
-1.66
2.35
5.82
8.52
10.4
11.49
11.93
11.87
11.48
10.84
10.0
9.02
7.97
6.99
6.19
5.61
5.15
4.59
3.74
2.51
1.04
-0.46
-1.77
-2.82
-3.69
-4.55
-5.54
-6.7
-7.97
-9.34
-10.82
-12.46
-14.17
-15.69
-16.57
-16.35
-14.76
-11.82
-7.88
-3.49
0.79
4.49
7.37
9.37
10.61
11.25
11.5
11.47
11.24
10.83
10.23
9.51
8.78
8.15
7.65
7.24
6.76
6.07
5.1
3.89
2.62
1.5
0.66
0.1
-0.32
-0.86
-1.74
-3.1
-4.91
-6.99
-9.06
-10.76
-11.75
-11.76
-10.66
-8.51
-5.55
-2.16
1.31
4.55
7.36
9.62
11.24
12.09
12.09
11.24
9.7
7.77
5.8
4.15
2.97
2.25
1.84
1.49
1.0
0.3
-0.55
-1.34
-1.9
-2.16
-2.23
-2.4
-2.94
-4.04
-5.75
-7.95
-10.38
-12.65
-14.36
-15.1
-14.56
-12.71
-9.73
-6.04
-2.1
1.71
5.18
8.18
10.59
12.22
12.9
12.59
11.48
9.96
8.5
7.42
6.81
6.5
6.19
5.59
4.58
3.25
1.81
0.53
-0.4
-0.97
-1.33
-1.76
-2.52
-3.74
-5.35
-7.14
-8.86
-10.27
-11.2
-11.48
-10.9
-9.26
-6.5
-2.76
1.59
6.01
10.05
13.46
16.23
18.46
20.23
21.52
22.24
22.36
22.0
21.38
20.67
19.94
19.1
17.98
16.49
14.71
12.87
11.24
10.01
9.19
8.64
8.2
7.64
6.85
5.73
4.19
2.2
-0.24
-3.01
-5.9
-8.59
-10.72
-11.96
-12.16
-11.35
-9.8
-7.86
-5.84
-3.92
-2.11
-0.35
1.36
2.87
3.87
4.04
3.23
1.52
-0.75
-3.18
-5.45
-7.42
-9.08
-10.43
-11.42
-11.92
-11.8
-11.06
-9.89
-8.64
-7.74
-7.54
-8.24
-9.83
-12.11
-14.75
-17.42
-19.73
-21.29
-21.75
-20.81
-18.33
-14.46
-9.62
-4.44
0.45
4.56
7.69
9.87
11.24
11.93
11.97
11.43
10.4
9.12
7.89
6.96
6.49
6.44
6.67
6.96
7.14
7.07
6.71
6.12
5.43
4.77
4.24
3.79
3.25
2.38
0.92
-1.25
-4.06
-7.21
-10.19
-12.36
-13.19
-12.41
-10.14
-6.89
-3.33
-0.04
2.66
4.81
6.58
8.15
9.54
10.59
11.17
11.22
10.86
10.24
9.54
8.84
8.13
7.4
6.65
5.85
5.02
4.19
3.39
2.69
2.15
1.75
1.39
0.93
0.22
-0.83
-2.26
-4.04
-6.07
-8.2
-10.14
-11.5
-11.85
-10.85
-8.42
-4.82
-0.54
3.78
7.65
10.79
13.17
14.96
16.33
17.43
18.24
18.69
18.72
18.33
17.67
16.92
16.29
15.87
15.59
15.26
14.7
13.81
12.64
11.33
10.04
8.79
7.49
5.96
4.04
1.63
-1.27
-4.66
-8.44
-12.47
-16.42
-19.8
-22.07
-22.81
-21.99
-19.89
-17.06
-14.07
-11.33
-8.98
-7.01
-5.39
-4.13
-3.34
-3.11
-3.5
-4.42
-5.72
-7.18
-8.63
-9.92
-11.02
-11.96
-12.78
-13.49
-14.02
-14.25
-14.07
-13.46
-12.59
-11.73
-11.2
-11.21
-11.85
-13.06
-14.67
-16.46
-18.19
-19.52
-20.06
-19.44
-17.4
-13.9
-9.19
-3.71
2.02
7.57
12.69
17.29
21.32
24.73
27.4
29.27
30.4
31.03
31.51
32.18
33.22
34.59
36.09
37.48
38.62
39.56
40.49
41.71
43.39
45.56
48.05
50.54
52.73
54.42
55.6
56.46
57.49
59.4
62.98
68.64
75.87
82.9
86.84
84.42
73.0
51.59
21.18
-15.46
-54.61
-92.38
-125.34
-150.77
-166.83
-172.67
-168.6
-155.95
-136.82
-113.55
-88.28
-62.69
-38.0
-15.05
5.53
23.32
37.99
49.3
57.04
61.07
61.33
57.89
51.05
41.29
29.34
16.12
2.83
-9.15
-18.43
-23.94
-25.26
-22.55
-16.45
-7.75
2.73
14.14
25.5
35.67
43.56
48.32
49.52
46.98
40.66
30.54
16.95
0.82
-16.22
-32.24
-45.68
-55.88
-63.02
-67.58
-69.59
-68.28
-62.41
-51.14
-34.89
-15.67
3.42
19.12
29.12
32.76
31.15
26.58
21.81
19.15
19.89
24.32
31.94
41.79
52.5
62.21
68.86
71.06
68.97
64.58
60.87
59.93
61.39
62.09
57.52
44.38
22.57
-4.49
-31.59
-54.25
-70.58
-81.43
-89.08
-95.36
-100.67
-104.11
-104.51
-101.35
-95.1
-87.08
-78.6
-70.53
-62.94
-55.33
-47.13
-38.24
-29.27
-21.4
-15.93
-13.6
-14.18
-16.44
-18.67
-19.34
-17.66
-13.82
-8.7
-3.33
1.61
6.02
10.22
14.56
19.1
23.48
27.13
29.51
30.39
29.9
28.47
26.57
24.54
22.51
20.5
18.38
16.07
13.43
10.38
6.9
3.1
-0.72
-4.12
-6.65
-8.07
-8.47
-8.28
-8.11
-8.51
-9.74
-11.67
-13.85
-15.65
-16.51
-16.11
-14.41
-11.73
-8.52
-5.31
-2.45
-0.05
2.02
4.02
6.19
8.63
11.23
13.73
15.78
17.12
17.65
17.4
16.5
15.09
13.28
11.15
8.85
6.59
4.66
3.31
2.65
2.61
2.9
3.2
3.23
2.81
1.89
0.47
-1.41
-3.77
-6.62
-9.91
-13.48
-16.99
-19.9
-21.6
-21.53
-19.49
-15.69
-10.83
-5.82
-1.54
1.49
3.24
3.98
4.12
3.87
3.25
2.12
0.45
-1.61
-3.69
-5.38
-6.43
-6.84
-6.83
-6.73
-6.79
-7.09
-7.6
-8.18
-8.71
-9.19
-9.68
-10.33
-11.28
-12.58
-14.2
-16.02
-17.96
-19.93
-21.82
-23.4
-24.31
-24.05
-22.23
-18.76
-13.97
-8.53
-3.14
1.62
5.55
8.74
11.35
13.52
15.2
16.32
16.8
16.68
16.11
15.29
14.42
13.65
13.09
12.75
12.55
12.3
11.83
11.03
9.92
8.67
7.48
6.49
5.67
4.84
3.81
2.36
0.43
-2.0
-4.82
-7.8
-10.62
-12.78
-13.78
-13.19
-10.86
-7.01
-2.14
3.05
7.96
12.2
15.65
18.37
20.46
22.01
23.02
23.44
23.27
22.57
21.45
20.07
18.56
16.97
15.3
13.56
11.77
9.97
8.21
6.51
4.81
3.0
1.02
-1.12
-3.32
-5.44
-7.37
-9.15
-10.9
-12.8
-14.99
-17.47
-20.01
-22.17
-23.41
-23.23
-21.36
-17.9
-13.29
-8.24
-3.41
0.66
3.78
6.01
7.53
8.53
9.08
9.2
8.87
8.16
7.18
6.1
5.03
4.05
3.13
2.22
1.22
0.08
-1.19
-2.57
-3.97
-5.32
-6.56
-7.66
-8.61
-9.48
-10.4
-11.54
-13.08
-15.13
-17.68
-20.53
-23.26
-25.33
-26.14
-25.26
-22.52
-18.13
-12.56
-6.48
-0.51
4.86
9.43
13.15
16.11
18.37
19.94
20.84
21.08
20.78
20.1
19.26
18.41
17.62
16.84
15.99
15.0
13.9
12.74
11.61
10.49
9.31
7.96
6.4
4.65
2.83
1.04
-0.73
-2.58
-4.68
-7.18
-10.08
-13.19
-16.13
-18.37
-19.4
-18.85
-16.57
-12.79
-7.93
-2.63
2.55
7.16
10.98
13.95
16.14
17.7
18.78
19.52
20.01
20.24
20.13
19.57
18.5
16.95
15.11
13.25
11.63
10.45
9.74
9.43
9.3
9.13
8.67
7.77
6.41
4.67
2.74
0.84
-0.88
-2.36
-3.68
-5.05
-6.72
-8.85
-11.46
-14.24
-16.68
-18.08
-17.84
-15.65
-11.64
-6.35
-0.57
4.94
9.69
13.48
16.39
18.59
20.2
21.23
21.68
21.55
20.97
20.08
19.02
17.85
16.56
15.11
13.51
11.86
10.32
9.04
8.08
7.39
6.74
5.88
4.56
2.68
0.3
-2.34
-4.94
-7.24
-9.12
-10.69
-12.24
-14.15
-16.7
-19.94
-23.57
-27.0
-29.48
-30.36
-29.32
-26.43
-22.16
-17.2
-12.21
-7.68
-3.84
-0.74
1.68
3.46
4.61
5.15
5.13
4.63
3.74
2.57
1.25
-0.08
-1.22
-1.95
-2.15
-1.86
-1.36
-1.08
-1.36
-2.36
-3.9
-5.58
-7.02
-7.99
-8.55
-8.97
-9.57
-10.59
-12.13
-14.14
-16.4
-18.58
-20.18
-20.68
-19.61
-16.8
-12.43
-7.05
-1.35
4.08
8.96
13.33
17.35
21.1
24.47
27.16
28.91
29.75
30.0
30.28
31.17
32.95
35.48
38.19
40.4
41.54
41.45
40.29
38.42
36.14
33.5
30.28
26.11
20.6
13.52
4.77
-5.66
-17.56
-30.28
-42.41
-51.87
-56.52
-55.09
-47.96
-37.4
-26.75
-19.12
-16.15
-17.54
-21.44
-25.64
-28.51
-29.43
-28.47
-25.82
-21.53
-15.74
-9.16
-3.06
1.16
2.78
2.45
2.15
4.65
12.35
26.37
45.98
68.64
90.61
107.86
117.15
117.04
108.44
94.39
79.0
65.95
57.22
52.74
51.01
50.53
50.72
52.09
55.5
61.16
68.02
73.99
76.91
75.52
70.07
61.89
52.62
43.44
34.64
25.94
17.0
7.92
-0.66
-7.93
-13.31
-16.89
-19.4
-21.91
-25.3
-29.97
-35.61
-41.44
-46.58
-50.41
-52.82
-54.2
-55.17
-56.37
-58.15
-60.51
-63.14
-65.6
-67.52
-68.65
-68.98
-68.71
-68.19
-67.81
-67.83
-68.15
-68.26
-67.34
-64.61
-59.7
-52.81
-44.76
-36.61
-29.34
-23.51
-19.27
-16.45
-14.79
-14.09
-14.17
-14.85
-15.81
-16.54
-16.51
-15.23
-12.56
-8.77
-4.5
-0.6
2.28
3.87
4.41
4.44
4.48
4.76
5.08
5.05
4.31
2.77
0.6
-1.85
-4.31
-6.68
-8.99
-11.31
-13.55
-15.53
-16.98
-17.77
-17.96
-17.83
-17.72
-17.88
-18.33
-18.92
-19.45
-19.78
-19.85
-19.73
-19.46
-19.0
-18.25
-17.16
-15.8
-14.42
-13.47
-13.35
-14.4
-16.62
-19.8
-23.47
-27.12
-30.32
-32.79
-34.43
-35.31
-35.62
-35.59
-35.53
-35.75
-36.48
-37.6
-38.44
-37.82
-34.19
-26.27
-13.54
3.35
22.67
42.12
59.5
73.28
82.82
88.2
89.83
88.08
83.12
74.97
63.7
49.68
33.66
16.75
0.22
-14.81
-27.67
-38.33
-47.31
-55.35
-63.01
-70.4
-77.28
-83.35
-88.75
-94.17
-100.67
-109.26
-120.47
-134.17
-149.73
-166.24
-182.6
-197.46
-209.01
-215.16
-213.89
-203.98
-185.4
-159.33
-127.6
-91.8
-52.85
-11.1
32.8
77.13
118.74
153.66
178.34
191.1
192.83
186.66
176.87
167.27
160.13
155.89
153.59
151.79
149.35
145.76
141.03
135.23
128.22
119.53
108.59
95.13
79.49
62.62
45.72
29.78
15.27
2.07
-10.23
-21.94
-33.05
-43.2
-51.86
-58.53
-62.82
-64.43
-63.17
-58.99
-52.1
-43.01
-32.46
-21.19
-9.75
1.59
12.72
23.4
33.16
41.29
47.05
49.99
50.2
48.23
44.94
41.13
37.29
33.56
29.81
25.89
21.78
17.65
13.81
10.48
7.7
5.27
2.95
0.51
-2.08
-4.66
-7.02
-9.04
-10.78
-12.52
-14.68
-17.62
-21.52
-26.27
-31.37
-35.99
-39.14
-39.87
-37.46
-31.65
-22.74
-11.49
1.04
13.66
25.36
35.35
43.11
48.41
51.23
51.75
50.39
47.76
44.52
41.3
38.61
36.73
35.74
35.57
36.06
37.03
38.38
40.09
42.27
44.99
48.14
51.23
53.33
53.34
50.3
43.87
34.51
23.24
11.3
-0.32
-11.05
-20.59
-28.7
-35.02
-39.26
-41.43
-42.1
-42.33
-43.27
-45.67
-49.62
-54.76
-60.66
-67.47
-75.93
-87.04
-101.2
-117.68
-134.56
-149.4
-160.26
-166.32
-167.78
-164.98
-157.57
-144.24
-123.43
-94.78
-60.05
-23.1
11.47
39.95
60.8
74.39
81.78
83.62
80.11
72.1
62.03
53.77
50.95
54.89
63.48
72.14
76.34
74.07
66.89
58.83
54.01
54.66
60.44
69.42
79.5
89.5
99.04
107.94
115.53
120.62
122.13
119.59
113.52
105.26
96.44
88.08
80.14
71.42
60.13
44.82
25.17
2.32
-21.43
-43.64
-62.59
-77.81
-89.88
-99.69
-107.75
-113.65
-116.27
-114.35
-107.25
-95.36
-80.06
-63.2
-46.4
-30.69
-16.36
-3.37
8.27
18.25
26.05
31.22
33.74
34.07
33.05
31.49
29.89
28.28
26.33
23.56
19.66
14.67
9.01
3.28
-1.93
-6.31
-9.9
-13.08
-16.42
-20.5
-25.72
-32.21
-39.76
-47.75
-55.2
-60.84
-63.4
-61.99
-56.4
-47.3
-36.03
-24.19
-13.14
-3.69
3.97
9.98
14.61
17.96
20.02
20.82
20.54
19.5
18.12
16.69
15.32
13.94
12.39
10.55
8.38
5.98
3.47
1.04
-1.18
-3.15
-4.93
-6.7
-8.69
-11.07
-13.98
-17.42
-21.33
-25.47
-29.34
-32.15
-32.87
-30.51
-24.53
-15.16
-3.4
9.22
21.13
31.2
38.91
44.28
47.57
49.02
48.73
46.82
43.64
39.94
36.67
34.56
33.7
33.26
31.77
27.59
19.74
8.34
-5.31
-19.29
-31.73
-41.58
-48.75
-53.9
-57.9
-61.48
-65.26
-70.14
-77.43
-88.49
-103.72
-121.58
-138.38
-149.27
-150.01
-138.73
-116.65
-87.41
-55.35
-23.89
5.29
31.86
55.93
77.24
95.1
108.97
119.03
126.44
132.88
139.67
147.04
153.77
157.66
156.4
148.61
134.57
116.28
96.7
78.77
64.32
53.63
45.62
38.61
31.11
22.39
12.6
2.49
-6.94
-14.83
-20.62
-24.08
-25.24
-24.21
-21.22
-16.47
-10.27
-3.06
4.66
12.34
19.44
25.47
29.87
31.96
30.86
25.67
15.89
1.7
-15.81
-34.86
-53.43
-69.76
-82.66
-91.63
-96.73
-98.39
-97.27
-94.16
-89.89
-85.2
-80.6
-76.29
-72.09
-67.57
-62.21
-55.55
-47.29
-37.3
-25.58
-12.17
2.92
19.64
37.87
57.2
76.9
96.0
113.42
128.23
139.64
147.0
149.77
147.54
140.19
127.97
111.58
92.14
71.03
49.8
29.98
12.88
-0.68
-10.6
-17.45
-22.18
-25.75
-28.69
-31.11
-32.94
-34.36
-35.9
-38.26
-41.77
-46.09
-50.22
-53.0
-53.69
-52.35
-49.67
-46.6
-43.83
-41.56
-39.59
-37.6
-35.43
-33.13
-30.91
-28.84
-26.8
-24.49
-21.61
-18.02
-13.91
-9.8
-6.39
-4.37
-4.22
-6.03
-9.5
-13.96
-18.66
-22.91
-26.35
-28.97
-31.06
-33.05
-35.35
-38.19
-41.54
-45.05
-48.11
-49.98
-50.0
-47.85
-43.68
-38.05
-31.7
-25.26
-18.98
-12.72
-6.18
0.88
8.48
16.44
24.49
32.4
40.05
47.35
54.18
60.36
65.71
70.11
73.45
75.71
76.88
76.98
76.07
74.26
71.66
68.24
63.8
58.0
50.51
41.17
30.14
17.98
5.52
-6.16
-15.89
-22.64
-25.76
-25.13
-21.3
-15.31
-8.41
-1.68
4.16
8.87
12.52
15.31
17.39
18.84
19.7
20.08
20.16
20.18
20.44
21.17
22.57
24.7
27.48
30.68
33.91
36.8
39.09
40.85
42.49
44.71
48.26
53.7
61.04
69.42
77.05
81.33
79.41
68.97
49.02
20.36
-14.57
-52.25
-88.95
-121.45
-147.51
-166.04
-176.99
-181.22
-180.14
-175.36
-168.25
-159.69
-149.86
-138.38
-124.61
-107.93
-87.98
-64.79
-38.91
-11.41
16.24
42.49
66.06
86.19
102.78
116.1
126.5
134.13
138.83
140.34
138.47
133.43
125.92
117.17
108.66
101.69
96.99
94.44
93.14
91.91
89.74
86.22
81.53
76.15
70.42
64.3
57.56
49.98
41.7
33.14
24.9
17.44
10.9
5.11
-0.2
-5.24
-10.03
-14.42
-18.24
-21.37
-23.87
-25.92
-27.83
-29.9
-32.34
-35.28
-38.7
-42.52
-46.5
-50.29
-53.38
-55.19
-55.22
-53.19
-49.29
-44.13
-38.57
-33.45
-29.29
-26.21
-24.0
-22.35
-21.0
-19.83
-18.84
-18.04
-17.41
-16.93
-16.62
-16.55
-16.8
-17.4
-18.34
-19.51
-20.73
-21.9
-22.92
-23.75
-24.45
-25.11
-25.89
-26.97
-28.5
-30.56
-33.14
-36.07
-39.0
-41.47
-42.91
-42.86
-41.09
-37.66
-32.92
-27.37
-21.46
-15.51
-9.76
-4.45
0.05
3.27
4.75
4.33
2.32
-0.55
-3.25
-4.95
-5.33
-4.77
-4.19
-4.65
-6.87
-10.79
-15.58
-19.95
-22.63
-22.85
-20.74
-17.35
-14.46
-14.09
-17.8
-25.99
-37.56
-50.04
-60.32
-65.71
-64.86
-58.1
-47.14
-34.15
-20.92
-8.21
4.19
16.99
30.86
45.97
61.83
77.45
91.54
102.92
110.75
114.82
115.56
113.82
110.61
106.72
102.55
98.11
93.22
87.78
81.81
75.49
68.82
61.59
53.32
43.51
31.84
18.41
3.67
-11.62
-26.64
-40.58
-52.79
-62.75
-70.16
-74.95
-77.27
-77.48
-76.05
-73.43
-70.06
-66.36
-62.77
-59.67
-57.37
-55.97
-55.34
-55.21
-55.27
-55.25
-54.99
-54.41
-53.41
-51.95
-50.05
-47.83
-45.5
-43.28
-41.23
-39.3
-37.3
-35.12
-32.79
-30.57
-28.83
-27.87
-27.76
-28.37
-29.47
-30.93
-32.75
-34.99
-37.57
-40.17
-42.23
-43.2
-42.78
-41.0
-38.18
-34.58
-30.32
-25.28
-19.32
-12.55
-5.45
1.32
7.35
12.86
18.84
26.59
36.98
49.74
63.21
74.7
81.59
82.33
77.13
67.92
57.61
49.08
44.36
44.1
47.63
53.2
58.47
61.06
59.12
51.88
39.96
25.25
10.34
-2.36
-11.23
-15.66
-15.88
-12.49
-6.09
2.84
13.9
26.56
40.12
53.64
65.98
75.83
81.83
82.87
78.48
69.18
56.46
42.48
29.43
18.87
11.48
7.06
5.02
4.7
5.59
7.28
9.39
11.4
12.74
12.88
11.63
9.12
5.84
2.4
-0.73
-3.39
-5.79
-8.35
-11.52
-15.59
-20.54
-26.18
-32.13
-37.92
-42.95
-46.48
-47.74
-46.17
-41.69
-34.85
-26.74
-18.63
-11.56
-6.07
-2.14
0.55
2.38
3.55
4.1
4.05
3.53
2.79
2.14
1.79
1.79
2.0
2.2
2.18
1.78
0.98
-0.18
-1.67
-3.48
-5.69
-8.43
-11.76
-15.6
-19.63
-23.29
-25.94
-27.12
-26.73
-25.14
-23.02
-21.14
-20.07
-20.09
-21.19
-23.16
-25.71
-28.43
-30.8
-32.19
-31.94
-29.64
-25.24
-19.18
-12.23
-5.22
1.17
6.64
11.18
14.92
17.98
20.35
21.86
22.37
21.91
20.69
19.17
17.79
16.88
16.49
16.42
16.33
15.91
15.05
13.85
12.54
11.33
10.29
9.32
8.15
6.56
4.44
1.86
-0.92
-3.58
-5.84
-7.57
-8.84
-9.9
-11.1
-12.74
-15.03
-18.01
-21.51
-25.17
-28.46
-30.76
-31.46
-30.15
-26.76
-21.64
-15.5
-9.17
-3.34
1.53
5.35
8.17
10.11
11.27
11.7
11.51
10.92
10.22
9.64
9.29
9.06
8.78
8.3
7.62
6.89
6.31
5.97
5.82
5.65
5.2
4.31
2.94
1.2
-0.82
-2.97
-5.19
-7.43
-9.59
-11.64
-13.6
-15.65
-18.06
-21.01
-24.34
-27.5
-29.61
-29.79
-27.59
-23.18
-17.26
-10.83
-4.75
0.49
4.8
8.26
10.97
12.91
14.01
14.21
13.66
12.59
11.31
10.09
9.13
8.56
8.41
8.61
8.95
9.14
8.95
8.25
7.12
5.79
4.51
3.38
2.35
1.23
-0.18
-1.95
-4.08
-6.54
-9.32
-12.41
-15.63
-18.58
-20.59
-21.0
-19.39
-15.86
-10.97
-5.59
-0.53
3.73
7.06
9.58
11.47
12.83
13.64
13.86
13.49
12.58
11.27
9.69
8.02
6.38
4.86
3.49
2.24
1.04
-0.18
-1.41
-2.66
-3.91
-5.2
-6.6
-8.19
-9.96
-11.84
-13.71
-15.51
-17.3
-19.17
-21.14
-22.95
-24.08
-23.85
-21.67
-17.34
-11.16
-3.9
3.46
9.98
15.05
18.48
20.41
21.17
21.1
20.41
19.2
17.51
15.42
13.09
10.77
8.68
6.88
5.28
3.69
1.95
0.07
-1.78
-3.4
-4.73
-5.86
-7.08
-8.63
-10.58
-12.82
-15.11
-17.32
-19.46
-21.78
-24.57
-27.93
-31.59
-34.89
-36.93
-36.89
-34.36
-29.51
-23.11
-16.2
-9.74
-4.36
-0.21
2.87
5.15
6.8
7.82
8.21
8.01
7.39
6.64
6.0
5.58
5.34
5.13
4.8
4.25
3.48
2.55
1.51
0.35
-0.95
-2.43
-4.09
-5.9
