2013-06-30 12:03:41
64.0
-0.0
-0.0
-0.0
-0.0
-0.0
-0.0
-0.0
-0.0
-0.0
-0.0
0.0
0.01
0.01
-0.0
-0.03
-0.05
-0.05
0.0
0.13
0.36
0.66
1.01
1.37
1.72
2.06
2.4
2.79
3.24
3.8
4.42
5.06
5.66
6.2
6.68
7.15
7.68
8.31
9.14
10.09
11.04
11.88
12.56
13.14
13.76
14.65
15.96
17.91
20.32
22.9
25.38
27.58
29.57
31.68
34.32
37.81
42.54
48.15
54.1
59.83
64.97
69.58
74.14
79.34
85.71
93.76
103.0
112.62
121.73
129.77
136.75
143.3
150.75
157.77
166.64
177.95
191.79
206.97
220.57
228.25
225.36
208.53
176.87
132.76
80.05
23.07
-34.94
-92.44
-149.16
-205.23
-260.37
-313.74
-363.86
-409.81
-450.87
-486.45
-515.66
-537.11
-549.07
-549.77
-538.12
-513.91
-478.31
-433.46
-381.96
-326.47
-269.22
-211.94
-155.89
-102.1
-51.44
-4.89
36.69
72.64
102.67
126.94
145.95
160.41
171.03
178.43
183.01
185.06
184.81
182.53
178.57
173.33
167.24
160.63
153.76
146.76
139.71
132.65
125.62
118.69
111.92
105.39
99.16
93.25
87.68
82.46
77.6
73.11
69.0
65.27
61.93
58.99
56.45
54.3
52.53
51.11
49.98
49.07
48.26
47.4
46.33
44.85
42.8
40.04
36.46
32.04
26.83
20.91
14.45
7.7
0.92
-5.61
-11.63
-16.93
-21.33
-24.73
-27.11
-28.49
-28.95
-28.61
-27.6
-26.06
-24.13
-21.91
-19.49
-16.92
-14.26
-11.53
-8.78
-6.02
-3.27
-0.51
2.26
5.06
7.94
10.93
14.0
17.18
20.46
23.86
27.39
31.05
34.86
38.84
43.01
47.28
51.57
55.85
60.09
64.32
68.56
72.84
77.24
81.85
86.55
91.27
95.99
100.7
105.44
110.23
115.12
120.17
125.47
130.75
135.83
140.52
144.59
147.77
149.65
149.72
147.22
143.36
138.51
132.87
126.56
119.66
112.23
104.32
95.99
87.25
78.13
68.32
57.66
46.06
33.58
20.33
6.5
-7.66
-21.84
-35.61
-48.66
-60.49
-70.4
-77.62
-81.29
-80.75
-75.6
-65.88
-52.08
-35.3
-16.83
1.95
19.84
35.86
49.3
59.69
66.67
69.97
69.45
65.26
57.94
48.45
37.97
27.52
17.66
8.31
-1.21
-11.85
-24.31
-38.68
-54.31
-70.02
-84.69
-97.81
-109.83
-122.06
-136.1
-153.14
-173.37
-195.84
-218.96
-241.14
-261.63
-280.76
-299.82
-320.71
-345.55
-376.38
-414.5
-459.47
-507.97
-553.44
-587.01
-600.07
-587.25
-548.68
-490.01
-420.3
-348.68
-281.6
-221.89
-169.7
-124.35
-85.68
-54.2
-30.12
-12.37
1.68
15.37
31.4
50.71
72.18
93.24
111.16
124.33
132.79
138.02
142.04
146.4
151.41
156.16
159.06
158.71
154.51
146.88
136.98
126.22
115.65
105.77
96.53
87.58
78.65
69.72
61.07
53.16
46.39
40.95
36.7
33.2
29.83
25.88
20.63
13.48
4.06
-7.51
-20.46
-33.33
-44.22
-51.27
-53.16
-49.56
-41.09
-29.19
-15.67
-2.21
9.97
20.35
28.96
36.21
42.57
48.35
53.54
57.95
61.31
63.47
64.5
64.71
64.48
64.17
64.05
64.29
64.91
65.85
66.89
67.76
68.09
67.49
65.67
62.57
58.37
53.44
48.27
43.22
38.5
34.12
30.05
26.28
22.81
19.62
16.58
13.41
9.81
5.62
0.97
-3.81
-8.38
-12.56
-16.5
-20.67
-25.72
-32.23
-40.46
-50.12
-60.25
-69.29
-75.47
-77.24
-73.71
-65.0
-52.25
-37.16
-21.66
-7.31
4.97
14.89
22.65
28.68
33.39
37.09
39.98
42.22
44.02
45.63
47.3
49.16
51.22
53.32
55.22
56.75
57.8
58.39
58.54
58.22
57.32
55.66
53.06
49.36
44.52
38.64
32.05
25.31
19.18
14.37
11.23
9.55
8.57
7.35
5.25
2.28
-0.87
-3.27
-4.28
-4.0
-3.31
-3.48
-5.45
-9.46
-14.85
-20.4
-24.87
-27.6
-28.77
-29.33
-30.72
-34.3
-40.87
-50.33
-61.51
-72.31
-80.1
-82.26
-76.82
-63.01
-41.66
-15.13
13.13
39.55
61.28
76.97
86.94
92.64
95.83
97.68
98.43
97.77
95.68
93.18
92.38
95.54
103.65
115.67
128.69
139.37
145.49
146.86
144.92
141.43
137.24
131.7
123.43
111.4
95.84
78.19
60.48
44.4
30.82
19.86
11.2
4.41
-1.16
-6.38
-12.23
-19.48
-28.38
-38.37
-48.4
-57.29
-64.17
-68.72
-71.06
-71.53
-70.36
-67.71
-63.7
-58.63
-53.0
-47.39
-42.28
-37.89
-34.19
-31.13
-28.8
-27.47
-27.36
-28.29
-29.43
-29.31
-26.23
-18.9
-6.9
8.96
26.94
44.87
60.87
73.85
83.63
90.81
96.25
100.74
104.68
108.13
111.04
113.32
114.95
115.95
116.29
115.86
114.58
112.46
109.72
106.7
103.81
101.29
99.11
96.98
94.39
90.82
85.89
79.54
72.09
64.05
56.02
48.41
41.35
34.72
28.32
21.99
15.69
9.45
3.14
-3.53
-10.95
-19.37
-28.68
-38.36
-47.66
-55.84
-62.44
-67.29
-70.35
-71.57
-70.99
-68.97
-66.37
-64.61
-65.36
-69.95
-78.78
-90.97
-104.42
-116.27
-123.74
-124.89
-119.22
-107.85
-93.1
-77.76
-64.35
-54.46
-48.68
-46.85
-48.45
-52.9
-59.6
-67.77
-76.41
-84.41
-90.84
-95.29
-97.85
-99.08
-99.54
-99.58
-99.19
-98.09
-95.97
-92.63
-88.04
-82.4
-76.01
-69.3
-62.75
-56.81
-51.78
-47.7
-44.4
-41.58
-38.94
-36.31
-33.73
-31.47
-29.9
-29.37
-30.1
-32.1
-35.06
-38.45
-41.54
-43.72
-44.57
-44.18
-43.05
-41.98
-41.87
-43.45
-46.98
-51.94
-56.91
-59.78
-58.21
-50.39
-35.85
-15.83
7.03
29.35
48.18
61.71
69.67
72.96
73.17
71.82
70.0
68.26
66.73
65.34
63.91
62.31
60.42
58.12
55.34
52.01
48.25
44.24
40.36
36.89
33.87
30.98
27.58
23.01
16.94
9.67
2.08
-4.68
-9.73
-12.77
-14.27
-15.25
-16.89
-20.14
-25.43
-32.68
-41.33
-50.58
-59.66
-68.0
-75.45
-82.12
-88.35
-94.33
-100.03
-105.22
-109.58
-112.98
-115.57
-117.78
-120.2
-123.39
-127.61
-132.65
-137.54
-140.57
-139.58
-132.52
-118.23
-96.89
-70.16
-40.66
-11.3
15.56
38.48
57.06
71.59
82.72
91.14
97.39
101.87
104.84
106.52
107.14
106.89
105.95
104.32
101.82
98.2
93.3
87.06
79.65
71.35
62.38
52.91
43.01
32.76
22.28
11.86
1.87
-7.21
-14.93
-20.89
-24.9
-26.85
-26.82
-24.93
-21.38
-16.6
-11.29
-6.57
-3.74
-3.88
-7.47
-14.09
-22.5
-31.19
-38.86
-44.85
-49.26
-52.71
-56.12
-60.38
-66.28
-74.4
-84.96
-97.48
-110.58
-121.98
-128.95
-129.16
-121.5
-106.59
-86.6
-64.63
-43.72
-25.99
-12.32
-2.39
4.8
10.39
15.29
20.02
24.81
29.8
35.15
41.01
47.49
54.55
61.95
69.31
76.21
82.31
87.37
91.25
93.94
95.5
96.01
95.63
94.4
92.3
89.32
85.4
80.49
74.64
67.92
60.42
52.3
43.79
35.18
26.65
18.23
9.7
0.63
-9.28
-20.03
-31.18
-42.02
-51.88
-60.49
-68.11
-75.46
-83.39
-92.7
-103.79
-116.52
-130.07
-142.85
-152.63
-157.01
-154.0
-142.82
-124.27
-100.68
-75.16
-50.78
-29.73
-12.97
-0.35
9.01
16.15
21.98
27.14
32.05
37.01
42.23
47.86
53.84
59.95
65.82
71.07
75.51
79.15
82.18
84.86
87.27
89.2
90.23
89.96
88.23
85.31
81.81
78.43
75.69
73.73
72.27
70.79
68.74
65.75
61.74
56.91
51.65
46.45
41.61
37.31
33.4
29.64
25.84
21.99
18.34
15.35
13.34
12.22
11.35
9.55
5.4
-2.25
-13.81
-28.66
-44.98
-60.14
-71.2
-75.61
-72.0
-60.61
-43.31
-23.18
-3.67
12.26
22.94
28.14
28.87
26.7
23.2
19.39
15.72
12.26
8.98
5.98
3.49
1.75
0.88
0.74
1.08
1.72
2.68
4.18
6.51
9.73
13.52
17.16
19.84
20.94
20.28
18.21
15.41
12.58
10.16
8.21
6.5
4.66
2.48
-0.05
-2.65
-5.01
-6.89
-8.31
-9.52
-10.86
-12.6
-14.82
-17.41
-20.22
-23.16
-26.28
-29.79
-33.9
-38.78
-44.61
-51.5
-59.46
-68.04
-76.16
-81.87
-82.74
-76.5
-61.94
-39.44
-11.1
19.85
50.09
76.96
99.05
116.08
128.48
136.86
141.71
143.32
141.92
137.91
131.9
124.56
116.55
108.29
100.06
91.96
84.11
76.72
70.06
64.34
59.51
55.23
50.85
45.63
39.07
31.18
22.53
14.16
7.14
2.08
-1.11
-3.2
-5.26
-8.11
-12.05
-16.81
-21.84
-26.74
-31.44
-36.19
-41.44
-47.52
-54.51
-62.33
-70.75
-79.63
-88.85
-98.38
-108.19
-118.29
-128.73
-139.56
-150.73
-161.88
-171.97
-179.29
-181.61
-176.78
-163.48
-141.85
-113.6
-81.71
-49.63
-20.42
3.78
22.01
34.34
41.63
45.13
46.26
46.25
45.97
45.85
45.93
46.07
46.14
46.19
46.47
47.4
49.39
52.78
57.65
63.68
70.25
76.46
81.44
84.66
86.01
85.86
84.77
83.21
81.39
79.24
76.54
73.18
69.25
65.0
60.71
56.53
52.41
48.24
43.97
39.77
35.99
32.94
30.65
28.68
26.09
21.72
14.47
3.69
-10.64
-27.72
-45.87
-62.67
-75.25
-81.03
-78.51
-67.91
-51.32
-32.12
-13.93
0.44
9.67
13.96
14.45
12.53
9.25
5.1
0.2
-5.44
-11.76
-18.54
-25.48
-32.41
-39.27
-46.08
-52.86
-59.45
-65.53
-70.69
-74.62
-77.21
-78.59
-78.99
-78.6
-77.44
-75.33
-72.11
-67.69
-62.27
-56.21
-49.97
-43.89
-38.18
-32.9
-28.22
-24.37
-21.73
-20.55
-20.9
-22.49
-24.83
-27.45
-30.12
-32.96
-36.35
-40.81
-46.79
-54.53
-63.86
-73.93
-82.94
-88.28
-86.98
-76.64
-56.47
-27.85
5.85
40.14
70.76
94.78
111.08
120.17
123.54
123.03
120.38
117.08
114.24
112.62
112.54
113.92
116.49
120.0
124.42
129.94
136.84
145.16
154.57
164.34
173.54
181.34
187.29
191.52
194.77
198.17
202.98
210.17
219.91
231.14
241.34
246.98
244.5
231.67
208.69
178.34
145.02
112.94
84.4
58.87
33.71
5.77
-26.8
-63.6
-102.33
-139.86
-173.47
-201.38
-222.66
-236.52
-242.06
-238.36
-225.06
-203.05
-174.8
-144.0
-114.71
-90.43
-73.21
-63.4
-59.94
-60.94
-64.5
-69.28
-74.67
-80.5
-86.65
-92.76
-98.23
-102.5
-105.28
-106.58
-106.58
-105.36
-102.76
-98.5
-92.38
-84.63
-75.9
-67.06
-59.01
-52.26
-46.87
-42.55
-38.9
-35.57
-32.41
-29.46
-26.81
-24.5
-22.4
-20.23
-17.77
-14.98
-12.07
-9.5
-7.79
-7.3
-8.05
-9.71
-11.74
-13.64
-15.19
-16.6
-18.5
-21.73
-27.06
-34.86
-44.78
-55.63
-65.39
-71.57
-71.77
-64.45
-49.46
-28.28
-3.64
21.19
43.37
61.09
73.87
82.34
87.67
91.05
93.39
95.18
96.58
97.65
98.35
98.6
98.26
97.07
94.79
91.27
86.69
81.63
76.96
73.57
71.92
71.8
72.22
71.78
69.17
63.72
55.69
46.2
36.7
28.49
22.26
17.96
15.04
12.75
10.38
7.49
3.91
-0.19
-4.4
-8.12
-10.71
-11.62
-10.62
-7.98
-4.58
-1.7
-0.66
-2.17
-5.84
-10.2
-13.03
-12.44
-7.77
-0.06
8.17
14.0
15.11
10.57
0.82
-12.77
-28.68
-45.63
-62.69
-79.07
-94.01
-106.72
-116.49
-122.97
-126.2
-126.58
-124.68
-121.07
-116.28
-110.66
-104.49
-97.96
-91.22
-84.44
-77.8
-71.53
-65.91
-61.28
-57.91
-55.99
-55.45
-56.0
-57.17
-58.46
-59.51
-60.21
-60.75
-61.54
-63.11
-66.04
-70.76
-77.34
-85.1
-92.52
-97.36
-97.21
-90.26
-76.05
-55.77
-31.94
-7.69
14.19
31.87
44.76
53.25
58.31
61.0
62.27
62.77
62.91
62.95
62.95
62.97
63.02
63.09
63.17
63.22
63.24
63.17
62.98
62.56
61.79
60.45
58.34
55.34
51.49
46.93
41.89
36.53
30.9
24.97
18.77
12.45
6.28
0.52
-4.71
-9.6
-14.57
-20.28
-27.4
-36.3
-46.83
-58.03
-68.15
-74.95
-76.29
-70.85
-58.62
-41.02
-20.49
0.15
18.47
32.92
43.0
49.1
52.18
53.34
53.54
53.41
53.25
53.17
53.24
53.57
54.29
55.43
56.9
58.45
59.8
60.79
61.41
61.79
61.97
61.84
61.12
59.43
56.44
52.08
46.56
40.36
34.1
28.41
23.68
19.95
16.84
13.78
10.15
5.6
0.16
-5.8
-11.79
-17.4
-22.46
-27.08
-31.6
-36.49
-42.28
-49.41
-57.96
-67.4
-76.44
-83.04
-85.02
-80.74
-69.77
-53.24
-33.49
-13.36
4.7
19.22
29.91
37.29
42.27
45.69
48.1
49.82
51.06
52.01
52.81
53.57
54.27
54.87
55.3
55.57
55.79
56.16
56.84
57.85
59.02
59.99
60.32
59.65
57.86
55.09
51.77
48.41
45.38
42.79
40.4
37.86
34.83
31.27
27.46
23.82
20.73
18.21
15.94
13.31
9.79
5.16
-0.42
-6.51
-12.69
-18.74
-24.71
-30.81
-37.28
-44.3
-52.0
-60.39
-69.16
-77.51
-83.98
-86.74
-84.14
-75.45
-61.37
-43.96
-26.03
-10.23
1.74
9.49
13.76
15.89
17.22
18.73
20.83
23.49
26.44
29.32
31.87
33.97
35.58
36.71
37.4
37.7
37.78
37.91
38.4
39.42
40.89
42.43
43.51
43.64
42.62
40.58
37.94
35.23
32.83
30.89
29.23
27.53
25.49
22.94
19.95
16.83
13.97
11.75
10.38
9.78
9.61
9.33
8.44
6.62
3.86
0.46
-3.09
-6.32
-8.97
-11.24
-13.67
-17.08
-22.21
-29.4
-38.21
-47.34
-54.89
-58.94
-58.2
-52.54
-43.03
-31.63
-20.68
-12.29
-7.83
-7.6
-10.84
-15.84
-20.54
-23.19
-22.96
-20.25
-16.3
-12.66
-10.4
-9.68
-9.9
-10.25
-10.17
-9.66
-8.99
-8.37
-7.63
-6.4
-4.39
-1.76
0.79
2.31
2.17
0.46
-1.99
-4.04
-4.86
-4.39
-3.35
-2.75
-3.39
-5.38
-8.2
-10.99
-13.13
-14.55
-15.73
-17.33
-19.77
-22.91
-26.21
-29.0
-30.97
-32.46
-34.3
-37.43
-42.37
-48.83
-55.66
-61.16
-63.6
-61.74
-55.11
-44.07
-29.7
-13.45
3.16
18.78
32.4
43.44
51.69
57.26
60.57
62.18
62.74
62.94
63.48
65.0
68.02
72.74
78.96
86.04
93.0
98.84
102.82
104.64
104.34
102.15
98.3
93.05
86.68
79.55
72.13
64.84
57.86
51.08
44.06
36.12
26.42
14.19
-1.08
-19.36
-39.86
-61.06
-81.07
-98.04
-110.77
-118.89
-122.98
-124.29
-124.33
-124.61
-126.3
-130.05
-135.79
-142.77
-149.65
-154.94
-157.36
-156.26
-151.68
-144.17
-134.49
-123.26
-110.71
-96.65
-80.74
-62.92
-43.81
-24.78
-7.62
6.2
16.18
23.12
28.73
34.85
42.56
51.82
61.62
70.67
78.06
83.38
86.67
88.0
87.45
85.15
81.6
77.71
74.55
72.81
72.43
72.55
71.91
69.52
65.07
59.1
52.69
46.89
42.42
39.46
37.72
36.68
35.84
34.76
33.19
31.02
28.3
25.27
22.18
19.29
16.73
14.5
12.59
11.02
9.89
9.29
9.23
9.57
10.08
10.6
11.21
12.22
14.01
16.82
20.46
24.38
27.64
29.3
28.61
25.35
19.82
12.85
5.4
-1.69
-7.98
-13.37
-18.03
-22.12
-25.65
-28.54
-30.73
-32.35
-33.7
-35.22
-37.3
-40.39
-44.97
-51.55
-60.39
-71.07
-82.28
-91.99
-98.06
-99.05
-94.89
-86.88
-77.2
-68.08
-60.91
-56.02
-52.92
-50.91
-49.65
-49.3
-50.43
-53.54
-58.78
-65.81
-73.89
-82.09
-89.43
-94.9
-97.45
-96.04
-89.75
-78.2
-61.83
-42.1
-21.29
-1.89
14.05
25.61
33.12
37.85
41.15
43.78
45.6
45.94
44.38
41.26
37.63
34.82
33.72
34.46
36.69
40.05
44.52
50.43
58.02
67.08
76.83
86.27
94.64
101.77
107.9
113.39
118.23
121.99
124.03
123.9
121.54
117.42
112.34
107.26
102.99
100.07
98.7
98.7
99.59
100.66
101.08
99.99
96.68
90.66
81.78
70.29
56.71
41.78
26.29
10.98
-3.43
-16.13
-26.19
-32.65
-34.85
-32.73
-26.99
-18.92
-10.06
-1.7
5.33
10.73
14.52
16.82
17.74
17.4
15.97
13.78
11.28
8.91
7.06
5.84
5.23
4.99
4.82
4.47
3.77
2.69
1.16
-0.87
-3.57
-7.03
-11.33
-16.31
-21.66
-26.95
-31.8
-35.89
-39.11
-41.52
-43.3
-44.73
-46.1
-47.71
-49.78
-52.35
-55.31
-58.33
-61.05
-63.2
-64.79
-66.18
-67.92
-70.61
-74.61
-79.81
-85.6
-90.91
-94.39
-94.81
-91.38
-84.06
-73.64
-61.48
-49.17
-37.91
-28.24
-19.94
-12.34
-4.73
3.3
11.71
20.13
28.08
35.2
41.34
46.48
50.56
53.38
54.55
53.72
50.72
45.74
39.28
31.98
24.45
17.04
9.83
2.7
-4.52
-11.96
-19.64
-27.46
-35.29
-42.92
-50.03
-56.18
-60.84
-63.57
-64.27
-63.41
-62.09
-61.71
-63.54
-68.02
-74.52
-81.46
-86.96
-89.77
-89.77
-88.06
-86.27
-85.66
-86.42
-87.43
-86.86
-83.03
-75.23
-64.06
-51.14
-38.41
-27.39
-18.74
-12.18
-6.84
-1.73
3.83
10.01
16.46
22.54
27.63
31.52
34.61
37.86
42.78
51.02
64.12
82.98
107.32
135.0
161.84
182.16
190.41
183.24
161.04
128.19
91.44
57.33
29.96
10.04
-4.24
-15.27
-24.26
-30.76
-33.4
-31.25
-24.74
-15.7
-6.42
1.44
7.49
12.47
17.45
22.97
28.65
33.3
35.59
34.9
31.64
27.15
23.09
20.64
20.2
21.38
23.29
24.97
25.65
24.79
22.14
17.64
11.5
4.14
-3.73
-11.32
-17.93
-23.06
-26.55
-28.45
-29.06
-28.72
-27.71
-26.18
-24.21
-21.71
-18.65
-15.14
-11.39
-7.65
-4.12
-0.86
2.15
4.82
6.86
7.71
6.67
3.17
-2.88
-10.97
-20.0
-28.75
-36.25
-42.22
-47.04
-51.49
-56.31
-61.89
-68.18
-74.96
-82.08
-89.48
-97.1
-104.71
-111.87
-118.13
-123.41
-128.16
-133.11
-138.61
-143.98
-147.46
-146.7
-139.9
-126.67
-108.4
-87.59
-66.91
-48.32
-32.68
-20.1
-10.4
-3.47
0.66
2.13
1.49
-0.15
-1.22
0.04
5.12
14.78
28.67
45.4
62.85
79.1
93.16
105.29
116.48
127.44
137.76
145.64
148.66
145.18
135.37
121.54
107.31
96.23
90.45
90.09
93.6
98.56
102.73
104.63
103.7
100.0
93.88
85.79
76.24
65.9
55.6
46.3
38.71
33.09
28.95
25.24
20.66
14.26
6.06
-2.85
-10.44
-14.52
-13.5
-7.11
3.46
16.0
28.03
37.53
43.35
45.27
43.62
39.03
32.12
23.59
14.23
4.95
-3.3
-9.87
-14.58
-17.87
-20.59
-23.64
-27.59
-32.39
-37.42
-41.58
-43.8
-43.2
-39.5
-33.11
-25.02
-16.53
-8.86
-2.7
1.99
5.76
9.23
12.57
15.07
15.33
11.75
3.22
-10.25
-27.29
-45.33
-61.02
-70.96
-72.34
-63.5
-44.36
-16.57
16.74
51.5
83.45
108.95
125.55
132.21
129.22
117.61
98.8
74.19
44.96
12.31
-22.34
-57.15
-89.77
-117.61
-138.21
-149.83
-152.07
-146.15
-134.78
-121.48
-109.6
-101.26
-96.87
-95.36
-94.9
-93.86
-91.43
-87.63
-83.03
-78.15
-73.32
-68.56
-63.97
-59.8
-56.47
-54.22
-52.73
-51.06
-47.9
-41.99
-32.71
-20.22
-5.31
11.07
28.31
46.37
65.63
86.43
108.53
130.81
151.33
167.76
177.91
180.18
173.93
159.74
139.52
116.49
94.67
78.07
69.52
69.81
77.14
87.66
96.51
99.42
93.81
79.58
58.94
35.7
14.21
-1.39
-7.98
-3.92
10.5
32.67
57.87
80.1
93.43
93.69
80.0
55.63
27.49
4.22
-6.66
-1.27
19.38
50.24
84.42
116.04
142.21
163.17
180.99
197.68
213.8
228.29
239.44
246.14
248.54
247.78
245.21
241.69
237.36
231.9
224.86
216.01
205.34
192.84
178.25
160.95
139.87
113.85
81.89
43.47
-1.33
-51.82
-107.24
-167.21
-231.91
-301.65
-375.75
-451.51
-523.89
-586.29
-632.49
-658.66
-664.52
-653.13
-629.44
-598.59
-564.74
-530.77
-498.66
-469.87
-445.25
-424.85
-407.58
-391.46
-374.26
-354.35
-331.17
-305.2
-277.76
-250.32
-223.93
-198.93
-174.86
-150.69
-125.3
-98.04
-69.1
-39.51
-10.83
15.56
39.01
59.92
79.59
99.6
121.08
144.13
167.78
190.38
210.25
226.36
238.76
248.51
257.72
269.2
286.11
310.87
343.69
381.32
416.96
441.9
448.52
433.31
398.35
350.41
298.03
248.25
204.46
166.4
131.69
97.59
62.03
23.67
-18.17
-63.38
-110.35
-155.46
-193.49
-219.1
-228.79
-222.19
-202.36
-174.55
-144.64
-117.5
-96.24
-82.1
-74.68
-72.26
-72.11
-70.92
-65.43
-53.31
-33.89
-8.36
20.66
49.94
76.82
99.94
119.24
135.41
148.99
159.73
166.56
168.1
163.48
152.82
137.25
118.36
97.56
75.87
53.89
31.99
10.51
-10.2
-29.85
-48.08
-64.36
-77.96
-88.06
-94.31
-97.26
-98.39
-99.68
-102.79
-108.38
-115.97
-124.3
-131.85
-137.23
-139.11
-136.11
-126.88
-110.53
-87.27
-58.73
-27.58
3.21
31.48
56.37
78.38
98.57
117.6
135.1
149.47
158.61
160.82
155.72
144.66
130.44
116.46
105.84
100.61
101.39
107.45
117.26
129.06
141.35
153.24
164.31
174.32
182.83
188.96
191.69
190.27
184.76
175.95
165.15
153.61
142.26
131.66
122.11
113.48
105.09
95.72
84.01
69.37
52.71
36.22
22.32
12.06
4.07
-5.37
-20.96
-46.43
-82.8
-127.65
-175.69
-220.15
-254.8
-275.43
-280.7
-272.07
-252.91
-227.31
-199.21
-171.76
-147.03
-125.94
-108.01
-91.32
-73.09
-50.79
-23.23
8.57
41.68
72.33
97.31
114.74
124.37
127.23
125.28
121.18
117.7
117.02
119.92
125.28
130.55
132.92
130.66
123.68
113.18
100.7
87.26
73.34
59.18
45.06
31.26
17.28
1.65
-17.38
-40.15
-64.31
-85.06
-97.38
-98.96
-91.83
-81.42
-73.47
-70.53
-70.58
-68.49
-59.43
-42.18
-19.79
2.1
18.68
28.67
34.76
41.8
53.7
71.09
90.59
106.1
111.28
102.23
79.29
46.97
12.17
-18.36
-40.36
-52.85
-57.46
-56.75
-52.81
-46.73
-39.0
-30.37
-22.28
-16.79
-15.81
-20.43
-30.42
-44.21
-59.38
-73.39
-84.32
-91.49
-95.57
-98.19
-100.96
-104.61
-108.61
-111.52
-111.93
-109.26
-104.03
-97.6
-91.51
-87.14
-85.65
-88.08
-95.3
-107.73
-124.78
-144.46
-163.52
-178.19
-185.23
-182.84
-171.16
-152.09
-128.64
-104.04
-81.03
-61.39
-45.81
-34.16
-25.8
-19.85
-15.38
-11.32
-6.54
0.1
9.28
20.94
34.1
47.07
58.1
66.06
70.85
73.31
74.7
76.01
77.57
78.99
79.4
77.96
74.16
67.96
59.8
50.44
40.73
31.46
23.18
16.1
10.13
4.95
0.15
-4.71
-9.91
-15.5
-21.25
-26.59
-30.93
-33.82
-35.39
-36.38
-37.94
-41.09
-46.21
-52.64
-58.79
-62.63
-62.37
-57.0
-46.67
-32.57
-16.58
-0.73
13.32
24.52
32.55
37.53
39.87
39.93
38.06
34.62
30.06
24.99
20.06
15.77
12.38
9.94
8.31
7.4
7.14
7.58
8.74
10.53
12.72
14.92
16.73
17.77
17.82
16.86
15.04
12.6
9.81
6.87
3.91
0.92
-2.2
-5.61
-9.5
-14.12
-19.62
-26.05
-33.07
-39.89
-45.31
-47.81
-46.04
-39.17
-27.15
-10.8
8.24
27.86
45.9
60.53
70.53
75.53
75.89
72.49
66.51
59.18
51.65
44.85
39.46
35.7
33.4
31.98
30.74
29.23
27.42
25.73
24.72
24.77
25.72
26.89
27.36
26.31
23.28
18.39
12.11
5.13
-1.88
-8.49
-14.52
-20.09
-25.44
-30.7
-35.7
-39.84
-42.08
-41.13
-35.82
-25.65
-11.24
5.37
20.98
32.03
35.68
30.8
18.36
0.91
-18.38
-36.92
-53.33
-67.28
-78.87
-87.86
-93.42
-94.34
-89.77
-79.69
-65.06
-47.54
-28.77
-9.89
8.63
26.57
43.46
58.26
69.56
76.17
77.75
75.02
69.47
62.49
54.88
46.71
37.78
28.27
18.97
10.99
5.14
1.53
-0.4
-1.44
-2.03
-2.1
-1.32
0.45
2.77
4.8
5.63
4.82
2.61
-0.24
-2.9
-5.05
-7.0
-9.59
-13.64
-19.44
-26.51
-33.74
-39.8
-43.73
-45.04
-43.73
-40.03
-34.13
-26.11
-16.12
-4.47
8.21
21.04
33.11
43.74
52.46
59.11
63.86
67.18
69.96
73.4
78.76
86.88
97.77
110.3
122.3
131.23
134.81
131.93
122.85
109.04
92.48
75.01
57.83
41.5
26.24
12.23
-0.08
-10.02
-17.05
-20.96
-22.13
-21.37
-19.62
-17.53
-15.3
-12.68
-9.34
-5.21
-0.72
3.21
5.51
5.55
3.29
-0.6
-4.98
-8.64
-10.56
-9.94
-6.19
1.01
11.57
24.8
39.31
53.21
64.62
72.27
75.79
75.76
73.22
69.17
64.28
58.91
53.48
48.66
45.37
44.36
45.65
48.35
50.91
51.95
50.98
48.73
46.69
46.29
48.07
51.36
54.67
56.53
56.07
53.33
49.17
44.94
42.18
42.24
45.85
52.46
59.88
64.35
61.46
47.7
22.05
-13.11
-52.38
-88.96
-116.85
-132.69
-136.38
-130.52
-118.73
-104.23
-88.94
-73.65
-58.73
-44.77
-32.78
-23.76
-18.09
-15.3
-14.41
-14.73
-16.44
-20.68
-28.96
-42.14
-59.66
-79.41
-98.31
-113.31
-122.43
-125.4
-123.62
-119.53
-115.75
-114.21
-115.79
-120.32
-126.87
-134.11
-140.6
-145.03
-146.45
-144.44
-139.19
-131.43
-122.11
-111.99
-101.49
-90.73
-79.78
-69.05
-59.32
-51.54
-46.52
-44.59
-45.63
-49.31
-55.32
-63.35
-72.89
-82.88
-91.6
-96.91
-96.96
-90.83
-78.97
-63.02
-45.36
-28.28
-13.38
-1.32
8.12
15.62
22.0
27.83
33.34
38.45
42.96
46.69
49.61
51.91
53.84
55.64
57.34
58.82
59.88
60.41
60.45
60.23
59.97
59.74
59.4
58.69
57.46
55.78
53.97
52.46
51.56
51.26
51.25
50.97
49.92
47.84
44.8
41.21
37.62
34.48
32.01
30.06
28.24
26.13
23.39
19.96
16.02
11.87
7.78
3.91
0.28
-3.28
-7.08
-11.53
-16.94
-23.36
-30.26
-36.46
-40.36
-40.4
-35.63
-26.15
-13.1
1.62
15.94
28.09
36.93
42.04
43.58
42.18
38.7
34.12
29.31
24.92
21.32
18.57
16.62
15.3
14.41
13.79
13.36
13.14
13.25
13.91
15.28
17.35
19.83
22.19
23.89
24.51
23.96
22.45
20.41
18.32
16.44
14.82
13.19
11.14
8.29
4.5
-0.09
-5.08
-9.9
-14.13
-17.48
-19.98
-21.85
-23.51
-25.38
-27.85
-31.15
-35.16
-39.38
-42.84
-44.4
-43.0
-38.12
-30.04
-19.8
-8.94
1.03
9.02
14.62
18.09
19.98
21.0
21.65
22.29
23.07
24.08
25.33
26.77
28.25
29.57
30.49
30.86
30.64
29.88
28.71
27.26
25.67
24.1
22.65
21.39
20.25
19.18
18.09
16.95
15.76
14.54
13.24
11.76
10.01
8.0
5.88
3.86
2.12
0.64
-0.76
-2.31
-4.21
-6.46
-8.94
-11.42
-13.81
-16.15
-18.64
-21.6
-25.3
-29.81
-34.81
-39.53
-42.81
-43.46
-40.63
-34.19
-24.84
-13.96
-3.08
6.56
14.2
19.7
23.27
25.24
26.01
25.94
25.42
24.84
24.47
24.45
24.74
25.17
25.58
25.84
25.93
25.87
25.7
25.44
25.1
24.69
24.22
23.62
22.84
21.78
20.41
18.78
17.05
15.44
14.07
12.94
11.87
10.59
8.86
6.58
3.84
0.92
-1.89
-4.34
-6.4
-8.25
-10.2
-12.56
-15.38
-18.47
-21.47
-23.97
-25.85
-27.23
-28.53
-30.25
-32.8
-36.38
-40.91
-45.94
-50.74
-54.23
-55.3
-53.04
-47.16
-38.12
-27.13
-15.73
-5.32
3.17
9.44
13.72
16.48
18.19
19.24
19.84
20.1
20.13
20.02
19.9
19.88
20.05
20.42
20.97
21.71
22.59
23.61
24.67
25.63
26.27
26.38
25.82
24.56
22.77
20.69
18.58
16.58
14.75
13.01
11.29
9.48
7.5
5.32
2.94
0.48
-1.92
-4.14
-6.13
-7.98
-9.85
-11.9
-14.21
-16.74
-19.34
-21.86
-24.24
-26.51
-28.87
-31.63
-35.1
-39.46
-44.48
-49.37
-52.9
-53.69
-50.79
-44.05
-34.26
-22.93
-11.68
-1.8
5.97
11.55
15.2
17.35
18.46
18.93
19.13
19.31
19.69
20.36
21.31
22.5
23.81
25.06
26.12
26.88
27.38
27.77
28.23
28.77
29.28
29.42
28.86
27.39
25.07
22.16
19.05
16.09
13.51
11.37
9.59
7.97
6.31
4.42
2.21
-0.29
-2.9
-5.38
-7.5
-9.18
-10.55
-11.9
-13.58
-15.84
-18.72
-22.02
-25.39
-28.5
-31.17
-33.51
-35.85
-38.7
-42.52
-47.6
-53.79
-60.4
-66.27
-69.89
-69.78
-65.04
-55.66
-42.62
-27.73
-13.03
-0.23
9.72
16.67
21.14
23.88
25.59
26.72
27.51
28.02
28.29
28.35
28.31
28.28
28.3
28.42
28.64
28.92
29.26
29.69
30.26
30.98
31.79
32.44
32.67
32.2
30.93
28.94
26.49
23.89
21.41
19.18
17.23
15.42
13.58
11.5
9.04
6.19
3.05
-0.15
-3.14
-5.77
-8.05
-10.19
-12.5
-15.23
-18.51
-22.29
-26.36
-30.45
-34.31
-37.74
-40.68
-43.29
-45.98
-49.3
-53.77
-59.49
-65.89
-71.62
-74.82
-73.67
-67.01
-54.84
-38.34
-19.6
-0.89
15.84
29.38
39.4
46.12
50.18
52.27
53.0
52.92
52.51
52.19
52.28
52.9
53.89
54.81
55.06
54.13
51.81
48.27
44.05
39.82
36.08
32.99
30.36
27.74
24.6
20.61
15.68
10.0
3.96
-1.93
-7.18
-11.41
-14.41
-16.17
-16.84
-16.73
-16.12
-15.17
-13.8
-11.75
-8.73
-4.78
-0.37
3.5
5.6
4.86
0.81
-6.2
-15.12
-24.57
-33.31
-40.74
-46.91
-52.47
-58.31
-65.1
-72.95
-81.2
-88.42
-92.77
-92.49
-86.44
-74.56
-57.97
-38.67
-19.05
-1.28
13.19
23.76
30.56
34.2
35.53
35.47
34.84
34.31
34.29
34.93
36.11
37.56
38.97
40.14
40.98
41.48
41.74
41.81
41.7
41.34
40.58
39.22
37.13
34.31
30.96
27.45
24.25
21.73
20.09
19.25
18.87
18.45
17.5
15.63
12.75
9.08
5.17
1.66
-0.96
-2.62
-3.7
-4.93
-7.05
-10.56
-15.57
-21.8
-28.75
-35.94
-42.92
-49.38
-55.05
-59.88
-64.05
-68.05
-72.48
-77.68
-83.33
-88.17
-90.29
-87.76
-79.3
-64.95
-46.15
-25.28
-4.91
12.89
27.02
37.29
44.18
48.44
50.81
51.89
52.18
52.08
51.95
52.01
52.33
52.82
53.25
53.41
53.21
52.73
52.2
51.87
51.88
52.2
52.61
52.77
52.31
50.9
48.42
44.97
40.85
36.59
32.63
29.24
26.31
23.44
20.18
16.2
11.46
6.21
0.88
-4.15
-8.59
-12.34
-15.48
-18.25
-20.93
-23.92
-27.48
-31.73
-36.57
-41.74
-46.94
-51.93
-56.73
-61.64
-67.17
-73.93
-82.2
-91.6
-100.86
-107.88
-110.28
-106.21
-95.03
-77.66
-56.37
-33.98
-13.1
4.53
18.2
28.08
34.84
39.24
42.02
43.73
44.9
45.93
47.18
48.9
51.14
53.71
56.22
58.19
59.24
59.26
58.47
57.35
56.37
55.74
55.29
54.59
53.18
50.8
47.49
43.51
39.15
34.59
29.87
24.96
19.99
15.2
10.96
7.55
4.9
2.58
-0.17
-4.13
-9.83
-17.31
-26.05
-35.16
-43.62
-50.63
-55.88
-59.59
-62.53
-65.74
-70.33
-77.0
-85.7
-95.34
-103.92
-108.85
-107.74
-99.22
-83.49
-62.35
-38.74
-15.87
3.67
18.44
28.29
34.0
36.83
38.06
38.68
39.31
40.28
41.69
43.5
45.63
47.89
50.1
52.19
54.21
56.35
58.83
61.72
64.74
67.28
68.61
68.02
65.29
60.63
54.7
48.28
42.05
36.35
31.18
26.35
21.58
16.68
11.63
6.52
1.49
-3.37
-8.11
-12.86
-17.79
-22.96
-28.34
-33.73
-38.87
-43.56
-47.69
-51.37
-54.97
-59.04
-64.25
-71.03
-79.23
-87.87
-95.06
-98.46
-95.98
-86.59
-70.72
-50.25
-27.87
-6.36
12.18
26.69
36.99
43.54
46.91
47.65
46.22
43.12
39.0
34.64
30.76
27.92
26.26
25.62
25.65
26.03
26.67
27.69
29.23
31.33
33.71
35.92
37.48
38.12
37.82
36.8
35.31
33.47
31.2
28.37
24.97
21.25
17.62
14.46
11.84
9.46
6.73
3.03
-1.9
-7.87
-14.23
-20.13
-24.92
-28.36
-30.69
-32.54
-34.68
-37.9
-42.82
-49.82
-58.77
-68.86
-78.43
-85.15
-86.59
-81.04
-68.17
-49.34
-27.26
-5.21
13.95
28.45
37.89
42.88
44.59
44.21
42.62
40.34
37.71
35.05
32.75
31.26
30.9
31.73
33.42
35.39
37.11
38.21
38.64
38.49
37.88
36.71
34.76
31.85
27.97
23.38
18.5
13.73
9.22
4.93
0.78
-3.2
-6.82
-9.8
-11.97
-13.52
-14.94
-16.84
-19.6
-23.28
-27.58
-32.11
-36.68
-41.42
-46.77
-53.18
-61.02
-70.32
-80.74
-91.43
-100.94
-107.35
-108.53
-102.78
-89.45
-69.44
-45.07
-19.54
4.04
23.45
37.79
47.33
53.05
56.15
57.57
57.94
57.64
56.98
56.21
55.57
55.21
55.18
55.43
55.93
56.7
57.82
59.31
60.97
62.35
62.87
61.93
59.23
54.84
49.24
43.04
36.84
31.02
25.71
20.85
16.31
11.95
7.71
3.56
-0.48
-4.4
-8.22
-11.99
-15.83
-19.85
-24.12
-28.59
-33.06
-37.21
-40.67
-43.24
-45.05
-46.59
-48.74
-52.45
-58.29
-66.02
-74.36
-81.12
-83.82
-80.52
-70.48
-54.5
-34.72
-13.99
5.03
20.36
31.12
37.34
39.72
39.25
36.91
33.59
29.99
26.67
23.99
22.2
21.36
21.41
22.21
23.56
25.29
27.25
29.37
31.62
33.92
36.08
37.77
38.6
38.19
36.42
33.47
29.83
26.08
22.69
19.83
17.25
14.53
11.33
7.58
3.54
-0.3
-3.52
-5.94
-7.73
-9.28
-11.03
-13.29
-16.1
-19.32
-22.68
-25.92
-28.89
-31.64
-34.43
-37.76
-42.21
-48.22
-55.73
-63.96
-71.38
-75.96
-75.82
-69.8
-57.98
-41.78
-23.53
-5.84
9.1
20.03
26.76
29.87
30.4
29.46
27.9
26.33
25.0
23.94
23.07
22.37
21.96
22.14
23.27
25.55
28.92
32.97
37.1
40.67
43.25
44.66
44.98
44.35
42.89
40.61
37.53
33.73
29.48
25.15
21.08
17.52
14.48
11.81
9.25
6.56
3.53
0.04
-3.93
-8.25
-12.66
-16.83
-20.41
-23.21
-25.34
-27.28
-29.82
-33.84
-39.99
-48.24
-57.7
-66.65
-72.89
-74.37
-69.87
-59.41
-44.31
-26.79
-9.26
6.26
18.52
27.09
32.12
34.03
33.43
30.93
27.26
23.2
19.45
16.56
14.72
13.86
13.76
14.24
15.3
17.11
19.91
23.83
28.66
33.85
38.49
41.59
42.42
40.67
36.59
30.89
24.46
18.07
12.15
6.78
1.84
-2.91
-7.63
-12.39
-17.16
-21.92
-26.6
-31.13
-35.39
-39.31
-42.96
-46.57
-50.62
-55.61
-61.73
-68.62
-75.13
-79.54
-79.93
-74.93
-64.2
-48.62
-30.16
-11.25
5.89
19.79
29.82
36.19
39.56
40.73
40.45
39.22
37.44
35.35
33.19
31.19
29.52
28.23
27.3
26.63
26.09
25.59
25.15
24.83
24.65
24.53
24.26
23.53
22.12
19.86
16.79
13.09
9.07
5.1
1.48
-1.56
-4.03
-6.13
-8.29
-10.94
-14.41
-18.72
-23.61
-28.54
-32.94
-36.38
-38.73
-40.26
-41.57
-43.53
-46.97
-52.46
-59.89
-68.39
-76.28
-81.45
-81.98
-76.71
-65.69
-50.09
-32.01
-13.79
2.51
15.47
24.62
30.23
33.08
34.09
34.09
33.59
32.79
31.79
30.59
29.35
28.29
27.66
27.68
28.4
29.76
31.62
33.72
35.77
37.44
38.47
38.77
38.36
37.42
36.22
35.0
33.96
33.13
32.45
31.75
30.83
29.53
27.69
25.22
21.99
17.89
12.88
7.05
0.63
-6.06
-12.67
-18.95
-24.74
-29.96
-34.54
-38.49
-41.98
-45.45
-49.48
-54.54
-60.55
-66.61
-71.12
-72.28
-68.7
-60.07
-47.31
-32.28
-17.22
-4.02
6.2
13.14
17.13
18.83
18.91
18.01
16.7
15.46
14.66
14.5
14.98
15.89
16.97
17.95
18.78
19.53
20.34
21.3
22.3
23.14
23.61
23.64
23.29
22.72
22.01
21.1
19.79
17.92
15.49
12.71
9.9
7.37
5.22
3.34
1.45
-0.75
-3.45
-6.68
-10.25
-13.84
-17.15
-19.99
-22.4
-24.62
-27.06
-30.13
-34.14
-39.1
-44.6
-49.79
-53.33
-53.86
-50.25
-42.14
-30.15
-15.81
-1.1
12.07
22.39
29.25
32.72
33.28
31.41
27.56
21.92
14.78
6.44
-2.49
-11.22
-18.81
-24.46
-27.68
-28.44
-27.14
-24.45
-21.08
-17.66
-14.6
-12.14
-10.39
-9.4
-9.22
-9.88
-11.34
-13.53
-16.2
-18.93
-21.29
-22.8
-23.22
-22.6
-21.28
-19.82
-18.82
-18.7
-19.68
-21.74
-24.72
-28.3
-32.14
-35.96
-39.61
-43.3
-47.46
-52.74
-59.54
-67.71
-76.22
-83.26
-86.64
-84.51
-76.03
-61.67
-43.11
-22.77
-3.1
13.91
27.07
36.02
41.05
42.88
42.49
40.91
39.03
37.49
36.6
36.44
36.89
37.79
38.95
40.23
41.49
42.63
43.62
44.49
45.3
46.03
46.52
46.55
45.87
44.32
41.96
38.95
35.55
31.96
28.24
24.42
20.53
16.58
12.65
8.68
4.6
0.27
-4.39
-9.29
-14.18
-18.73
-22.69
-26.06
-29.05
-32.07
-35.59
-40.0
-45.59
-52.49
-60.44
-68.65
-75.65
-79.52
-78.35
-70.97
-57.45
-39.27
-18.92
0.86
17.84
30.82
39.73
45.24
48.36
49.99
50.77
51.04
51.01
50.81
50.58
50.38
50.17
49.89
49.48
48.97
48.53
48.37
48.57
49.03
49.39
49.26
48.27
46.32
43.5
40.07
36.31
32.4
28.46
24.54
20.63
16.77
13.07
9.66
6.64
3.98
1.5
-1.18
-4.41
-8.38
-12.99
-17.88
-22.54
-26.58
-29.89
-32.72
-35.53
-39.05
-43.93
-50.59
-58.92
-68.05
-76.35
-81.63
-81.78
-75.52
-62.82
-45.13
-24.94
-5.02
12.29
25.63
34.68
39.95
42.3
42.69
41.89
40.53
39.08
37.86
37.08
36.78
36.86
37.17
37.56
37.97
38.41
38.88
39.41
39.91
40.23
40.17
39.51
38.08
35.72
32.42
28.37
23.91
19.49
15.46
11.96
8.85
5.79
2.42
-1.45
-5.75
-10.16
-14.3
-17.88
-20.81
-23.33
-25.89
-29.05
-33.4
-39.28
-46.58
-54.61
-62.03
-67.08
-68.05
-63.72
-53.89
-39.55
-22.65
-5.56
9.72
21.92
30.74
36.55
39.95
41.43
41.19
39.37
36.29
32.59
29.21
27.1
26.81
28.21
30.62
32.97
34.29
34.14
32.67
30.56
28.56
27.12
26.17
25.06
23.05
19.58
14.59
8.53
2.16
-3.76
-8.59
-12.0
-13.9
-14.45
-14.15
-13.71
-13.98
-15.55
-18.49
-22.24
-25.78
-28.08
-28.62
-27.79
-26.75
-27.02
-29.89
-35.81
-44.13
-53.13
-60.47
-63.76
-61.31
-52.68
-38.8
-21.78
-4.24
11.43
23.62
31.75
36.05
37.28
36.37
34.16
31.45
28.93
27.18
26.54
26.97
28.07
29.27
30.02
30.05
29.44
28.53
27.66
27.04
26.59
26.04
25.14
23.76
22.01
20.13
18.32
16.64
14.95
13.01
10.56
7.53
4.02
0.22
-3.55
-7.06
-10.25
-13.13
-15.91
-18.79
-21.89
-25.19
-28.53
-31.7
-34.51
-36.9
-39.0
-41.04
-43.43
-46.61
-50.89
-56.28
-62.15
-67.21
-69.73
-67.97
-60.9
-48.59
-32.3
-14.16
3.55
18.98
31.03
39.43
44.46
46.74
46.99
45.93
44.14
42.05
39.88
37.74
35.7
33.81
32.18
30.89
29.97
29.43
29.26
29.44
29.9
30.45
30.76
30.43
29.18
26.97
24.07
20.92
17.92
15.29
12.96
10.68
8.2
5.41
2.42
-0.53
-3.16
-5.25
-6.77
-7.91
-9.0
-10.44
-12.55
-15.43
-18.95
-22.75
-26.41
-29.63
-32.36
-34.91
-37.82
-41.68
-46.91
-53.42
-60.44
-66.56
-70.0
-69.1
-62.88
-51.44
-36.03
-18.74
-1.87
12.66
23.76
31.21
35.42
37.06
36.75
35.02
32.29
29.02
25.73
22.94
21.02
20.09
20.03
20.49
21.13
21.71
22.2
22.76
23.6
24.79
26.21
27.48
28.13
27.7
26.01
23.19
19.6
15.72
11.95
8.52
5.5
2.77
0.18
-2.48
-5.42
-8.77
-12.6
-16.85
-21.24
-25.43
-28.99
-31.69
-33.5
-34.74
-36.01
-38.05
-41.56
-46.98
-54.18
-62.36
-70.02
-75.34
-76.57
-72.63
-63.49
-50.21
-34.69
-19.06
-5.17
5.84
13.61
18.42
20.88
21.71
21.57
20.99
20.37
20.06
20.24
21.02
22.39
24.23
26.41
28.75
31.1
33.23
34.96
36.15
36.77
36.86
36.55
35.87
34.75
33.0
30.4
26.92
22.75
18.36
14.29
10.94
8.43
6.54
4.82
2.75
-0.05
-3.73
-8.15
-12.94
-17.69
-22.0
-25.7
-28.77
-31.42
-34.09
-37.32
-41.7
-47.66
-55.09
-63.13
-70.22
-74.29
-73.48
-66.78
-54.47
-38.05
-19.89
-2.39
12.51
23.8
31.3
35.44
36.96
36.6
35.05
32.9
30.62
28.62
27.26
26.76
27.13
28.19
29.65
31.24
32.8
34.33
35.96
37.74
39.44
40.55
40.36
38.31
34.21
28.43
21.68
14.83
8.56
3.2
-1.26
-5.06
-8.52
-11.94
-15.55
-19.52
-23.82
-28.3
-32.65
-36.55
-39.76
-42.32
-44.56
-46.99
-50.26
-54.85
-60.88
-67.91
-74.81
-79.94
-81.59
-78.34
-69.68
-56.15
-39.31
-21.27
-4.22
10.15
20.95
28.06
31.98
33.49
33.38
32.24
30.52
28.54
26.57
24.85
23.53
22.67
22.21
22.07
22.23
22.72
23.59
24.8
26.13
27.22
27.71
27.28
25.7
22.96
19.24
14.89
10.42
6.3
2.79
-0.2
-3.03
-6.22
-10.08
-14.58
-19.32
-23.76
-27.5
-30.56
-33.3
-36.37
-40.42
-45.89
-52.79
-60.56
-67.98
-73.41
-75.17
-72.05
-63.84
-51.46
-36.69
-21.61
-7.94
3.33
12.0
18.39
22.94
25.97
27.62
27.97
27.26
25.9
24.5
23.58
23.48
24.24
25.65
27.38
29.17
30.91
32.66
34.4
35.99
36.99
36.88
35.2
31.8
27.07
21.74
16.67
12.47
9.29
6.83
4.53
1.84
-1.54
-5.6
-10.11
-14.71
-19.06
-22.92
-26.2
-29.01
-31.66
-34.7
-38.8
-44.54
-52.12
-61.0
-69.86
-76.68
-79.3
-76.03
-66.39
-51.21
-32.53
-13.02
4.83
19.3
29.67
36.13
39.44
40.59
40.44
39.66
38.58
37.31
35.89
34.38
32.95
31.9
31.55
32.05
33.3
34.95
36.64
38.03
38.97
39.43
39.39
38.72
37.27
34.97
31.89
28.35
24.74
21.35
18.27
15.39
12.5
9.45
6.17
2.63
-1.26
-5.63
-10.57
-15.96
-21.42
-26.37
-30.33
-33.17
-35.28
-37.49
-40.79
-45.96
-53.19
-61.84
-70.49
-77.17
-79.87
-77.15
-68.55
-54.81
-37.63
-19.18
-1.55
13.71
25.73
34.28
39.67
42.51
43.67
44.03
44.34
44.98
45.96
46.96
47.58
47.55
46.82
45.67
44.49
43.75
43.75
44.6
46.04
47.56
48.48
48.2
46.42
43.27
39.22
34.84
30.67
26.94
23.66
20.63
17.64
14.52
11.24
7.93
4.72
1.76
-1.01
-3.83
-6.99
-10.79
-15.23
-20.11
-25.02
-29.61
-33.72
-37.51
-41.34
-45.74
-51.16
-57.8
-65.43
-73.22
-79.75
-83.22
-81.98
-75.08
-62.72
-46.32
-28.09
-10.46
4.67
16.27
24.24
29.11
31.69
32.78
32.97
32.63
32.05
31.42
30.91
30.72
30.92
31.52
32.39
33.3
34.11
34.73
35.22
35.63
35.93
35.95
35.51
34.5
32.91
30.93
28.71
26.31
23.69
20.77
17.55
14.18
10.9
7.91
5.24
2.68
-0.04
-3.13
-6.63
-10.35
-13.99
-17.27
-20.09
-22.51
-24.85
-27.55
-31.16
-36.13
-42.65
-50.46
-58.66
-65.85
-70.29
-70.51
-65.65
-55.88
-42.37
-26.93
-11.59
1.92
12.52
19.86
24.22
26.36
27.12
27.25
27.22
27.25
27.4
27.71
28.26
29.15
30.44
32.01
33.67
35.18
36.43
37.44
38.28
38.95
39.35
39.31
38.7
37.51
35.88
33.93
31.71
29.22
26.45
23.55
20.87
18.86
17.9
18.15
19.43
21.32
23.35
25.15
26.64
27.91
29.14
30.43
31.76
33.0
34.05
34.95
35.85
36.9
38.2
39.83
41.98
45.19
50.31
58.27
69.73
84.62
102.09
120.58
138.12
152.85
163.25
168.36
167.89
162.13
151.91
138.3
122.36
104.85
86.21
66.67
46.47
25.95
5.64
-13.92
-32.25
-49.05
-64.14
-77.42
-88.82
-98.45
-106.53
-113.44
-119.54
-124.96
-129.45
-132.41
-133.17
-131.36
-127.13
-121.1
-113.91
-105.72
-95.97
-83.72
-68.32
-50.14
-30.8
-12.73
1.64
10.66
13.81
11.53
4.86
-4.99
-16.85
-29.56
-42.14
-53.74
-63.67
-71.2
-75.2
-74.2
-66.59
-51.41
-29.02
-1.25
29.04
58.9
85.98
108.81
126.36
137.5
140.63
134.14
117.19
90.64
57.24
21.02
-13.76
-43.85
-67.64
-85.04
-96.96
-104.59
-108.95
-110.89
-111.09
-110.16
-108.55
-106.48
-103.87
-100.69
-97.17
-94.04
-92.24
-92.39
-94.2
-96.27
-96.33
-92.12
-82.38
-67.47
-49.43
-31.34
-16.27
-6.25
-1.7
-1.55
-3.87
-6.87
-9.62
-12.35
-16.13
-22.16
-31.09
-42.57
-55.25
-67.11
-76.0
-80.05
-78.05
-69.67
-55.5
-37.26
-17.65
0.07
12.71
17.98
15.14
5.2
-9.32
-25.13
-39.02
-48.72
-53.21
-52.77
-48.59
-42.21
-35.03
-28.01
-21.58
-15.72
-10.21
-4.8
0.61
5.89
10.76
14.89
18.01
19.97
20.75
20.46
19.31
17.53
15.36
13.04
10.74
8.58
6.57
4.57
2.38
-0.27
-3.54
-7.43
-11.72
-16.05
-20.07
-23.57
-26.62
-29.55
-32.82
-36.93
-42.22
-48.78
-56.28
-63.87
-70.18
-73.54
-72.43
-65.94
-54.22
-38.45
-20.63
-2.95
12.76
25.46
34.85
41.23
45.21
47.43
48.42
48.6
48.29
47.79
47.39
47.37
47.9
49.0
50.52
52.22
53.92
55.51
56.97
58.31
59.4
59.99
59.74
58.41
55.93
52.44
48.25
43.65
38.76
33.56
27.9
21.7
15.04
8.2
1.54
-4.69
-10.44
-15.82
-21.09
-26.46
-32.15
-38.35
-45.15
-52.43
-59.57
-65.43
-68.45
-67.15
-60.67
-49.28
-34.32
-17.8
-1.65
12.67
24.47
33.59
40.11
44.16
45.86
45.52
43.65
40.97
38.17
35.77
33.98
32.78
31.99
31.43
30.95
30.38
29.55
28.26
26.43
24.08
21.4
18.68
16.15
13.93
11.97
9.98
7.59
4.42
0.28
-4.7
-10.11
-15.39
-19.99
-23.66
-26.54
-29.11
-32.07
-36.06
-41.39
-47.78
-54.27
-59.3
-61.12
-58.3
-50.23
-37.46
-21.65
-5.12
9.84
21.61
29.51
33.82
35.41
35.31
34.32
32.96
31.49
30.08
28.84
27.93
27.4
27.21
27.2
27.3
27.53
28.04
29.0
30.41
31.97
33.16
33.44
32.55
30.51
27.64
24.33
20.85
17.17
13.17
8.68
3.64
-1.78
-7.21
-12.29
-16.76
-20.53
-23.79
-26.86
-30.26
-34.47
-39.74
-45.91
-52.17
-57.16
-59.18
-56.8
-49.39
-37.47
-22.59
-6.91
7.55
19.43
28.23
34.15
37.8
39.82
40.78
41.11
41.19
41.33
41.73
42.49
43.57
44.78
45.96
46.94
47.65
48.12
48.44
48.77
49.23
49.79
50.21
49.97
48.36
44.65
38.39
29.59
18.84
7.2
-4.14
-14.15
-22.19
-28.26
-32.71
-36.1
-38.84
-40.96
-42.26
-42.45
-41.5
-39.87
-38.51
-38.52
-40.84
-45.79
-52.91
-61.04
-68.59
-73.85
-75.39
-72.22
-64.05
-51.42
-35.66
-18.71
-2.69
10.57
20.06
25.65
28.0
28.21
27.42
26.53
26.06
26.17
26.75
27.59
28.49
29.35
30.18
31.08
32.14
33.43
34.88
36.31
37.48
38.1
37.84
36.48
33.91
30.21
25.73
20.97
16.52
12.85
10.18
8.45
7.35
6.41
5.19
3.35
0.77
-2.4
-5.85
-9.18
-12.15
-14.68
-16.98
-19.4
-22.38
-26.3
-31.44
-37.91
-45.52
-53.7
-61.26
-66.63
-68.14
-64.65
-55.97
-43.07
-27.81
-12.34
1.45
12.42
20.25
25.22
27.9
28.88
28.65
27.63
26.21
24.77
23.68
23.13
23.14
23.6
24.26
24.97
25.63
26.24
26.81
27.31
27.58
27.38
26.5
24.84
22.44
19.46
16.12
12.61
9.04
5.38
1.62
-2.26
-6.17
-9.91
-13.23
-15.95
-18.01
-19.6
-21.13
-23.17
-26.29
-30.79
-36.47
-42.45
-47.33
-49.44
-47.52
-41.08
-30.66
-17.6
-3.64
9.55
20.76
29.29
34.92
37.75
38.15
36.74
34.3
31.62
29.33
27.73
26.72
25.99
25.23
24.3
23.3
22.5
22.12
22.22
22.71
23.32
23.79
23.87
23.36
22.17
20.24
17.66
14.61
11.33
8.0
4.66
1.2
-2.61
-6.89
-11.66
-16.75
-21.9
-26.9
-31.68
-36.36
-41.17
-46.49
-52.52
-59.28
-66.25
-72.37
-76.21
-76.34
-71.85
-62.8
-50.34
-36.36
-22.95
-11.81
-3.78
1.17
3.68
4.65
4.88
5.04
5.58
6.89
9.28
12.95
17.93
23.96
30.58
37.2
43.28
48.42
52.41
55.12
56.49
56.4
54.77
51.53
46.74
40.68
33.83
26.76
20.02
14.03
8.88
4.47
0.54
-3.15
-6.71
-10.13
-13.3
-16.2
-18.94
-21.81
-25.18
-29.48
-34.98
-41.72
-49.26
-56.65
-62.47
-65.14
-63.38
-56.68
-45.56
-31.48
-16.48
-2.56
8.82
17.03
22.16
24.81
25.74
25.6
24.83
23.71
22.47
21.34
20.57
20.34
20.67
21.43
22.35
23.16
23.62
23.65
23.27
22.56
21.62
20.43
18.92
17.01
14.64
11.77
8.42
4.68
0.68
-3.35
-7.11
-10.37
-13.03
-15.24
-17.37
-19.92
-23.35
-27.96
-33.73
-40.24
-46.59
-51.54
-53.71
-51.94
-45.69
-35.3
-22.05
-7.78
5.56
16.44
24.09
28.52
30.32
30.28
29.17
27.43
25.29
22.84
20.22
17.76
15.87
14.93
15.03
15.94
17.18
18.27
18.86
18.89
18.49
17.87
17.17
16.37
15.28
13.67
11.25
7.87
3.58
-1.33
-6.38
-11.06
-15.04
-18.31
-21.16
-24.11
-27.63
-32.12
-37.66
-43.96
-50.31
-55.52
-58.14
-56.82
-50.8
-40.31
-26.61
-11.64
2.55
14.33
22.9
28.2
30.77
31.35
30.74
29.57
28.32
27.29
26.55
26.14
25.99
26.03
26.22
26.55
26.95
27.33
27.66
27.84
27.86
27.62
26.96
25.71
23.73
20.99
17.63
13.85
9.83
5.64
1.26
-3.37
-8.16
-12.9
-17.28
-21.03
-24.1
-26.7
-29.29
-32.44
-36.64
-42.07
-48.37
-54.54
-59.02
-60.07
-56.3
-47.26
-33.71
-17.51
-1.08
13.41
24.56
31.98
36.08
37.67
37.53
36.24
34.22
31.86
29.54
27.69
26.6
26.32
26.63
27.12
27.44
27.37
26.97
26.49
26.24
26.4
26.92
27.46
27.51
26.59
24.42
21.08
16.93
12.52
8.41
4.96
2.22
-0.06
-2.34
-5.03
-8.38
-12.33
-16.55
-20.61
-24.1
-26.89
-29.12
-31.28
-34.03
-37.99
-43.55
-50.57
-58.24
-65.07
-69.24
-69.02
-63.45
-52.72
-38.22
-22.1
-6.6
6.5
16.33
22.87
26.66
28.45
28.93
28.61
27.92
27.2
26.7
26.63
27.0
27.68
28.47
29.17
29.64
29.87
29.88
29.77
29.6
29.33
28.89
28.09
26.79
24.87
22.39
19.52
16.57
13.87
11.6
9.77
8.14
6.39
4.14
1.22
-2.31
-6.21
-10.13
-13.82
-17.18
-20.28
-23.36
-26.76
-30.82
-35.81
-41.8
-48.43
-54.87
-59.81
-61.78
-59.59
-52.76
-41.79
-28.07
-13.48
0.15
11.4
19.62
24.77
27.34
27.98
27.35
25.98
24.27
22.52
20.98
19.83
19.22
19.2
19.68
20.46
21.29
21.96
22.37
22.5
22.4
22.01
21.22
19.88
17.95
15.57
13.01
10.58
8.38
6.25
3.82
0.73
-3.16
-7.64
-12.25
-16.44
-19.86
-22.48
-24.66
-26.99
-30.11
-34.47
-40.08
-46.4
-52.32
-56.33
-56.89
-52.94
-44.27
-31.75
-17.09
-2.34
10.63
20.7
27.49
31.33
32.85
32.72
31.45
29.43
26.99
24.42
22.05
20.16
18.94
18.48
18.74
19.56
20.67
21.79
22.67
23.17
23.3
23.13
22.74
22.11
21.13
19.57
17.36
14.53
11.39
8.31
5.64
3.51
1.76
0.01
-2.21
-5.26
-9.25
-13.96
-18.98
-23.73
-27.8
-30.97
-33.36
-35.36
-37.6
-40.72
-45.24
-51.25
-58.21
-64.94
-69.73
-70.82
-66.94
-57.72
-43.98
-27.48
-10.42
5.13
17.7
26.73
32.32
35.08
35.81
35.28
34.16
32.91
31.83
30.97
30.31
29.73
29.12
28.46
27.82
27.26
26.85
26.58
26.35
26.07
25.65
24.97
23.99
22.65
20.96
18.94
16.67
14.23
11.69
9.07
6.39
3.76
1.25
-1.01
-2.99
-4.75
-6.49
-8.4
-10.65
-13.25
-16.08
-18.93
-21.6
-24.04
-26.34
-28.74
-31.53
-35.07
-39.7
-45.6
-52.62
-60.02
-66.42
-70.02
-69.14
-62.9
-51.57
-36.68
-20.5
-5.35
7.14
16.22
22.05
25.25
26.61
26.77
26.27
25.54
24.96
24.81
25.24
26.24
27.67
29.29
30.92
32.39
33.68
34.75
35.56
36.06
36.11
35.55
34.3
32.34
29.82
26.94
23.99
21.17
18.59
16.21
13.92
11.55
9.06
6.48
3.9
1.41
-1.03
-3.53
-6.34
-9.64
-13.46
-17.68
-22.02
-26.21
-30.1
-33.75
-37.36
-41.24
-45.61
-50.71
-56.55
-62.84
-68.86
-73.42
-75.1
-72.59
-65.27
-53.52
-38.64
-22.56
-7.17
6.09
16.48
23.93
28.72
31.33
32.27
32.02
31.14
30.2
29.8
30.34
31.98
34.5
37.4
39.98
41.69
42.23
41.72
40.47
38.79
36.79
34.37
31.35
27.66
23.46
19.1
14.93
11.19
7.95
5.21
2.93
1.25
0.27
0.04
0.34
0.65
0.31
-1.3
-4.43
-8.92
-14.25
-19.73
-24.78
-29.11
-32.78
-36.08
-39.51
-43.52
-48.46
-54.33
-60.63
-66.27
-69.67
-69.17
-63.67
-53.04
-38.43
-21.9
-5.81
7.87
18.05
24.64
28.2
29.59
29.59
28.76
27.52
26.25
25.33
25.09
25.68
27.05
28.93
30.94
32.75
34.15
35.11
35.67
35.87
35.71
35.04
33.73
31.68
28.89
25.49
21.7
17.72
13.71
9.84
6.25
3.14
0.61
-1.35
-2.94
-4.51
-6.45
-9.01
-12.19
-15.79
-19.44
-22.83
-25.79
-28.37
-30.77
-33.37
-36.62
-41.0
-46.76
-53.73
-61.03
-67.08
-69.97
-67.99
-60.39
-47.65
-31.48
-14.27
1.62
14.54
23.77
29.42
32.08
32.55
31.52
29.6
27.28
25.0
23.16
22.02
21.72
22.16
23.08
24.17
25.18
26.04
26.86
27.88
29.2
30.67
31.84
32.09
30.92
28.21
24.28
19.8
15.5
11.84
8.84
6.11
3.0
-1.07
-6.35
-12.66
-19.43
-25.9
-31.43
-35.72
-38.88
-41.45
-44.2
-47.87
-53.01
-59.54
-66.68
-72.84
-76.0
-74.24
-66.48
-52.99
-35.38
-16.18
1.9
16.85
27.66
34.35
37.64
38.45
37.61
35.69
33.14
30.33
27.64
25.42
23.97
23.46
23.82
24.79
25.97
26.99
27.54
27.53
26.97
25.98
24.66
23.04
21.03
18.48
15.23
11.11
6.12
0.39
-5.71
-11.76
-17.29
-22.03
-25.95
-29.33
-32.65
-36.52
-41.5
-47.99
-55.82
-64.19
-71.53
-75.81
-75.08
-68.18
-55.3
-37.96
-18.65
-0.03
15.79
27.74
35.65
40.04
41.65
41.2
39.28
36.45
33.21
30.06
27.43
25.58
24.59
24.25
24.31
24.47
24.58
24.68
24.91
25.31
25.83
26.08
25.53
23.63
20.05
14.81
8.31
1.28
-5.5
-11.33
-15.91
-19.37
-22.32
-25.63
-30.19
-36.54
-44.57
-53.39
-61.39
-66.58
-67.04
-61.66
-50.42
-34.58
-16.38
1.63
17.2
29.01
36.76
41.02
42.73
42.81
41.87
40.27
38.24
35.99
33.87
32.24
31.36
31.35
32.11
33.45
35.09
36.7
37.94
38.46
37.94
36.27
33.61
30.21
26.42
22.37
18.01
13.13
7.57
1.41
-5.03
-11.21
-16.67
-21.21
-24.96
-28.35
-32.01
-36.53
-42.36
-49.65
-58.01
-66.46
-73.34
-76.62
-74.5
-65.98
-51.4
-32.56
-12.19
6.76
21.99
32.32
37.83
39.39
38.31
35.82
32.84
30.0
27.69
26.14
25.43
25.5
26.2
27.35
28.75
30.3
31.94
33.58
35.11
36.28
36.77
36.28
34.6
31.76
27.93
23.54
18.98
14.56
10.35
6.18
1.77
-3.08
-8.36
-13.78
-18.91
-23.43
-27.27
-30.78
-34.63
-39.59
-46.19
-54.3
-63.05
-70.67
-75.02
-74.11
-66.77
-53.25
-35.19
-15.22
3.8
19.63
31.08
38.12
41.48
42.21
41.25
39.28
36.8
34.23
31.99
30.48
29.97
30.47
31.77
33.48
35.24
36.79
38.03
38.96
39.55
39.63
38.89
36.99
33.71
29.14
23.68
17.91
12.39
7.43
2.93
-1.48
-6.28
-11.73
-17.67
-23.68
-29.18
-33.7
-37.14
-39.79
-42.28
-45.48
-50.19
-56.8
-65.03
-73.63
-80.53
-83.28
-79.84
-69.38
-52.65
-31.88
-10.11
9.74
25.67
36.88
43.68
47.04
48.09
47.72
46.51
44.81
42.84
40.89
39.2
37.97
37.26
36.96
36.79
36.53
36.08
35.46
34.83
34.28
33.77
33.13
32.15
30.67
28.62
26.07
23.1
19.85
16.46
13.1
9.94
7.12
4.64
2.39
0.04
-2.75
-6.27
-10.59
-15.54
-20.75
-25.78
-30.27
-34.12
-37.51
-40.83
-44.61
-49.4
-55.55
-63.01
-71.08
-78.36
-82.89
-82.69
-76.43
-63.99
-46.65
-26.71
-6.85
10.58
24.09
33.17
38.17
39.92
39.49
37.96
36.22
34.89
34.27
34.35
34.97
35.9
36.92
37.88
38.69
39.32
39.8
40.2
40.57
40.9
41.07
40.84
39.97
38.29
35.77
32.58
29.02
25.49
22.33
19.74
17.73
16.13
14.63
12.87
10.6
7.73
4.39
0.91
-2.42
-5.44
-8.26
-11.21
-14.68
-18.95
-23.92
-29.21
-34.22
-38.43
-41.6
-43.88
-45.71
-47.75
-50.71
-55.13
-61.16
-68.35
-75.46
-80.65
-81.87
-77.59
-67.37
-52.17
-34.07
-15.67
0.73
13.68
22.75
28.31
31.12
32.05
31.81
31.05
30.27
29.87
30.09
30.95
32.25
33.67
34.87
35.6
35.8
35.59
35.15
34.72
34.42
34.22
33.91
33.17
31.69
29.31
26.16
22.6
19.14
16.17
13.83
11.91
10.03
7.82
5.2
2.37
-0.26
-2.36
-3.88
-5.11
-6.58
-8.85
-12.18
-16.47
-21.29
-26.06
-30.26
-33.66
-36.34
-38.73
-41.46
-45.21
-50.45
-57.12
-64.56
-71.38
-75.79
-76.05
-71.01
-60.6
-45.9
-28.85
-11.78
3.28
14.97
22.81
27.07
28.52
28.19
27.0
25.72
24.79
24.41
24.56
25.13
25.97
26.98
28.03
29.03
29.88
30.5
30.85
30.94
30.76
30.22
29.19
27.5
25.1
22.08
18.73
15.43
12.53
10.18
8.37
6.86
5.42
3.86
2.06
0.07
-2.07
-4.32
-6.68
-9.21
-12.05
-15.29
-18.92
-22.81
-26.69
-30.25
-33.3
-35.88
-38.3
-41.14
-45.03
-50.37
-57.03
-64.22
-70.41
-73.73
-72.44
-65.62
-53.54
-37.73
-20.49
-4.22
9.28
19.11
25.37
28.72
30.01
30.04
29.38
28.51
27.78
27.47
27.75
28.57
29.76
31.05
32.23
33.18
33.96
34.66
35.4
36.19
36.83
37.04
36.46
34.9
32.41
29.22
25.72
22.24
18.98
15.88
12.87
9.83
6.82
3.96
1.42
-0.73
-2.58
-4.35
-6.29
-8.65
-11.55
-14.97
-18.73
-22.59
-26.27
-29.55
-32.44
-35.25
-38.5
-42.83
-48.7
-56.02
-64.06
-71.34
-76.01
-76.28
-71.05
-60.34
-45.33
-28.06
-10.87
4.22
15.97
23.99
28.59
30.47
30.49
29.39
27.82
26.27
25.06
24.34
24.09
24.24
24.67
25.33
26.21
27.28
28.49
29.7
30.72
31.33
31.37
30.72
29.33
27.19
24.29
20.71
16.66
12.51
8.7
5.64
3.54
2.23
1.28
0.09
-1.89
-4.97
-9.11
-14.0
-19.14
-24.07
-28.41
-32.05
-35.15
-38.12
-41.58
-46.19
-52.37
-60.04
-68.36
-75.78
-80.34
-80.19
-74.29
-62.84
-47.25
-29.74
-12.63
2.29
14.13
22.85
28.91
32.9
35.28
36.39
36.49
35.96
35.19
34.52
34.05
33.67
33.1
32.11
30.7
29.12
27.78
26.95
26.64
26.45
25.78
24.1
21.19
17.26
12.88
8.68
5.11
2.24
-0.24
-2.76
-5.67
-9.08
-12.74
-16.27
-19.33
-21.77
-23.75
-25.66
-28.12
-31.77
-37.1
-44.17
-52.52
-60.98
-67.76
-70.9
-68.78
-60.73
-47.33
-30.35
-12.23
4.57
18.23
27.92
33.76
36.43
36.87
35.92
34.23
32.3
30.48
29.01
28.03
27.5
27.33
27.35
27.48
27.72
28.19
28.98
30.08
31.28
32.18
32.26
31.1
28.5
24.62
19.92
14.92
10.04
5.42
0.87
-3.92
-9.12
-14.7
-20.29
-25.34
-29.39
-32.25
-34.19
-35.88
-38.22
-42.05
-47.76
-55.07
-62.84
-69.2
-72.04
-69.6
-61.12
-47.19
-29.67
-11.11
6.0
19.87
29.78
35.97
39.22
40.42
40.31
39.33
37.78
35.91
34.0
32.33
31.13
30.5
30.36
30.56
30.86
31.13
31.27
31.32
31.31
31.22
30.93
30.19
28.74
26.41
23.21
19.34
15.16
11.1
7.52
4.52
1.95
-0.58
-3.56
-7.39
-12.2
-17.79
-23.64
-29.14
-33.78
-37.39
-40.23
-42.9
-46.18
-50.77
-57.06
-64.85
-73.27
-80.77
-85.37
-85.15
-78.86
-66.42
-49.01
-28.86
-8.6
9.36
23.47
33.21
38.89
41.36
41.67
40.74
39.33
37.97
36.99
36.54
36.63
37.11
37.76
38.27
38.42
38.12
37.44
36.58
35.75
34.99
34.14
32.87
30.74
27.52
23.22
18.22
13.1
8.43
4.51
1.27
-1.71
-5.01
-9.07
-13.98
-19.46
-24.99
-30.09
-34.47
-38.21
-41.71
-45.52
-50.19
-56.11
-63.28
-71.05
-78.14
-82.71
-82.87
-77.25
-65.58
-48.93
-29.49
-9.84
7.65
21.44
31.01
36.62
39.07
39.27
38.07
36.21
34.2
32.49
31.33
30.88
31.17
32.08
33.39
34.77
35.98
36.91
37.61
38.24
38.85
39.27
39.09
37.75
34.88
30.41
24.67
18.33
12.08
6.52
1.9
-1.83
-5.03
-8.15
-11.61
-15.64
-20.15
-24.78
-29.03
-32.47
-35.03
-37.1
-39.44
-42.98
-48.45
-56.0
-64.93
-73.7
-80.14
-82.05
-77.86
-67.14
-50.9
-31.28
-10.99
7.42
22.18
32.58
38.86
41.86
42.59
41.95
40.61
39.03
37.59
36.55
36.12
36.36
37.16
38.3
39.45
40.38
40.99
41.28
41.39
41.42
41.32
40.87
39.74
37.53
34.04
29.28
23.63
17.68
12.05
7.21
3.25
-0.04
-3.17
-6.7
-10.97
-16.06
-21.69
-27.38
-32.6
-37.0
-40.51
-43.37
-46.1
-49.39
-53.91
-60.1
-67.91
-76.51
-84.24
-88.88
-88.18
-80.68
-66.36
-46.76
-24.54
-2.8
15.93
30.14
39.48
44.51
46.2
45.61
43.57
40.78
37.79
35.08
33.04
31.95
31.87
32.68
34.1
35.8
37.48
38.97
40.21
41.09
41.36
40.66
38.68
35.42
31.28
27.05
23.63
21.76
21.63
22.87
24.69
26.09
26.24
24.67
21.4
16.85
11.7
6.63
2.08
-1.84
-5.37
-8.97
-13.02
-17.67
-22.76
-27.9
-32.65
-36.64
-39.71
-42.0
-43.88
-45.98
-49.08
-53.87
-60.56
-68.48
-76.0
-80.75
-80.3
-73.09
-59.03
-39.68
-17.78
3.58
21.9
35.73
44.79
49.65
51.24
50.5
48.17
44.89
41.27
37.92
35.34
33.87
33.5
33.89
34.54
34.98
35.03
34.79
34.51
34.28
33.91
32.9
30.7
26.99
21.88
15.91
9.87
4.47
0.07
-3.37
-6.27
-9.2
-12.72
-17.13
-22.39
-28.12
-33.75
-38.69
-42.68
-45.86
-48.83
-52.51
-57.8
-65.21
-74.39
-83.98
-91.66
-94.8
-91.15
-79.8
-61.48
-38.55
-14.26
8.25
26.69
40.07
48.53
52.94
54.42
54.03
52.71
51.19
50.01
49.41
49.37
49.67
50.05
50.33
50.46
50.45
50.32
50.02
49.43
48.42
46.91
44.85
42.19
38.94
35.11
30.73
25.9
20.75
15.46
10.23
5.31
0.86
-2.99
-6.28
-9.21
-12.1
-15.21
-18.74
-22.6
-26.58
-30.36
-33.7
-36.52
-38.97
-41.43
-44.46
-48.7
-54.7
-62.57
-71.67
-80.41
-86.43
-87.19
-80.88
-67.15
-47.45
-24.65
-2.12
17.26
31.8
41.19
46.22
48.16
48.35
47.8
47.19
46.83
46.77
46.94
47.2
47.45
47.7
47.96
48.29
48.67
49.06
49.44
49.77
49.99
49.88
49.1
47.21
43.94
39.31
33.79
28.15
23.15
19.26
16.4
14.04
11.46
8.05
3.64
-1.48
-6.66
-11.24
-14.82
-17.42
-19.49
-21.64
-24.41
-28.01
-32.28
-36.69
-40.72
-43.96
-46.38
-48.35
-50.52
-53.68
-58.44
-65.01
-72.8
-80.46
-85.89
-86.85
-81.63
-69.71
-52.12
-31.2
-9.89
9.05
23.82
33.86
39.64
42.26
42.88
42.43
41.52
40.53
39.7
39.22
39.27
39.89
40.92
42.08
43.05
43.59
43.69
43.46
43.04
42.48
41.64
40.19
37.8
34.31
29.83
24.79
19.77
15.3
11.66
8.79
6.35
3.92
1.2
-1.82
-4.92
-7.79
-10.22
-12.34
-14.45
-16.97
-20.1
-23.79
-27.68
-31.33
-34.44
-36.97
-39.2
-41.69
-45.09
-49.95
-56.42
-64.02
-71.51
-76.97
-78.31
-73.96
-63.44
-47.68
-28.76
-9.36
8.09
21.93
31.55
37.23
39.71
39.9
38.56
36.29
33.58
30.9
28.65
27.12
26.44
26.52
27.13
28.03
29.02
30.0
30.98
31.92
32.78
33.42
33.61
33.1
31.64
29.14
25.71
21.68
17.55
13.75
10.48
7.62
4.82
1.75
-1.74
-5.43
-8.92
-11.84
-14.02
-15.65
-17.16
-19.01
-21.51
-24.66
-28.23
-31.82
-35.09
-37.85
-40.19
-42.48
-45.36
-49.54
-55.51
-63.18
-71.59
-78.93
-82.94
-81.64
-74.02
-60.48
-42.75
-23.34
-4.78
10.94
22.81
30.66
34.97
36.53
36.26
35.0
33.44
32.06
31.13
30.72
30.74
30.99
31.28
31.43
31.39
31.24
31.18
31.38
31.91
32.58
32.96
32.6
31.13
28.49
24.98
21.1
17.42
14.37
12.0
10.11
8.3
6.2
3.66
0.82
-1.97
-4.29
-5.95
-7.08
-8.1
-9.57
-11.86
-15.04
-18.82
-22.71
-26.26
-29.26
-31.78
-34.18
-36.98
-40.73
-45.85
-52.44
-60.06
-67.59
-73.28
-75.15
-71.63
-62.16
-47.57
-29.89
-11.72
4.49
17.1
25.57
30.28
32.14
32.14
31.15
29.75
28.35
27.23
26.59
26.51
26.93
27.67
28.49
29.19
29.67
29.93
29.96
29.77
29.29
28.43
27.12
25.42
23.42
21.24
18.94
16.47
13.74
10.72
7.42
3.99
0.64
-2.44
-5.17
-7.6
-9.9
-12.28
-14.9
-17.78
-20.78
-23.68
-26.25
-28.38
-30.21
-32.09
-34.57
-38.23
-43.46
-50.26
-57.97
-65.24
-70.27
-71.18
-66.72
-56.66
-42.01
-24.73
-7.18
8.49
20.84
29.31
34.04
35.66
34.96
32.76
29.84
26.87
24.33
22.52
21.51
21.2
21.43
22.02
22.84
23.78
24.77
25.78
26.78
27.71
28.47
28.82
28.42
26.91
24.05
19.86
14.71
9.23
4.09
-0.27
-3.77
-6.73
-9.61
-12.83
-16.49
-20.33
-23.95
-26.92
-29.07
-30.5
-31.63
-33.08
-35.55
-39.67
-45.8
-53.76
-62.64
-70.77
-76.02
-76.41
-70.73
-59.09
-42.92
-24.53
-6.44
9.3
21.57
30.14
35.4
38.05
38.81
38.27
36.94
35.21
33.47
32.02
31.06
30.63
30.6
30.78
30.99
31.19
31.44
31.89
32.59
33.39
33.94
33.79
32.66
30.49
27.58
24.35
21.18
18.28
15.6
12.95
10.07
6.82
3.16
-0.79
-4.82
-8.72
-12.34
-15.66
-18.79
-21.91
-25.17
-28.59
-32.07
-35.39
-38.33
-40.8
-43.03
-45.52
-48.97
-54.03
-60.85
-68.85
-76.53
-81.82
-82.58
-77.37
-65.97
-49.54
-30.29
-10.81
6.62
20.49
30.19
35.93
38.41
38.53
37.22
35.32
33.47
32.13
31.55
31.81
32.77
34.2
35.79
37.23
38.35
39.11
39.6
40.0
40.31
40.46
40.17
39.12
37.18
34.42
31.21
28.0
25.18
22.88
20.92
18.94
16.57
13.68
10.34
6.87
3.59
0.71
-1.83
-4.32
-7.16
-10.64
-14.84
-19.57
-24.42
-29.03
-33.17
-36.96
-40.76
-45.11
-50.56
-57.34
-65.2
-73.18
-79.72
-82.88
-80.93
-72.9
-59.07
-40.92
-20.87
-1.53
14.94
27.33
35.41
39.72
41.15
40.65
39.0
36.78
34.45
32.38
30.83
29.98
29.87
30.4
31.42
32.79
34.34
35.96
37.47
38.7
39.45
39.52
38.78
37.18
34.67
31.37
27.42
23.04
18.48
13.99
9.74
5.78
2.12
-1.35
-4.69
-7.97
-11.21
-14.42
-17.63
-20.81
-23.91
-26.84
-29.51
-31.93
-34.28
-36.95
-40.5
-45.44
-52.03
-59.95
-68.08
-74.7
-77.75
-75.53
-67.34
-53.8
-36.71
-18.56
-1.69
12.22
22.41
28.94
32.33
33.28
32.47
30.54
28.17
26.0
24.51
23.99
24.42
25.53
26.97
28.48
29.96
31.5
33.21
35.15
37.08
38.55
38.96
37.79
34.81
30.16
24.36
18.15
12.25
7.11
2.86
-0.79
-4.28
-8.04
-12.29
-16.94
-21.6
-25.8
-29.15
-31.62
-33.55
-35.62
-38.66
-43.34
-49.86
-57.65
-65.35
-70.99
-72.51
-68.43
-58.4
-43.41
-25.52
-7.28
9.07
22.06
31.22
36.88
39.82
40.91
40.92
40.46
39.95
39.62
39.55
39.65
39.75
39.67
39.29
38.58
37.6
36.51
35.45
34.54
33.86
33.35
32.88
32.18
30.91
28.76
25.55
21.38
16.59
11.69
7.19
3.36
0.14
-2.84
-6.1
-10.04
-14.75
-19.96
-25.18
-29.85
-33.65
-36.59
-39.09
-41.8
-45.38
-50.32
-56.6
-63.59
-70.05
-74.24
-74.38
-69.24
-58.56
-43.27
-25.28
-6.95
9.6
22.94
32.52
38.51
41.52
42.33
41.61
39.95
37.79
35.45
33.2
31.27
29.83
29.01
28.84
29.26
30.07
30.98
31.79
32.32
32.53
32.39
31.87
30.88
29.33
27.08
24.12
20.48
16.32
11.86
7.4
3.18
-0.61
-3.97
-7.08
-10.2
-13.56
-17.24
-21.17
-25.2
-29.07
-32.65
-35.86
-38.74
-41.48
-44.42
-48.05
-52.8
-58.8
-65.55
-71.79
-75.71
-75.49
-69.83
-58.52
-42.54
-23.78
-4.61
12.77
26.77
36.59
42.27
44.46
44.12
42.22
39.61
36.86
34.32
32.18
30.58
29.49
28.82
28.35
27.88
27.34
26.84
26.64
26.97
27.77
28.69
29.07
28.29
26.04
22.47
18.08
13.52
9.26
5.34
1.53
-2.62
-7.42
-12.85
-18.6
-24.16
-29.07
-33.08
-36.27
-38.95
-41.57
-44.62
-48.47
-53.26
-58.76
-64.23
-68.35
-69.56
-66.38
-58.06
-44.89
-28.24
-10.26
6.82
21.2
31.9
38.81
42.39
43.41
42.63
40.7
38.12
35.33
32.72
30.63
29.26
28.71
28.84
29.4
30.1
30.77
31.32
31.78
32.08
32.06
31.38
29.71
26.85
22.89
18.18
13.24
8.54
4.28
0.38
-3.53
-7.8
-12.59
-17.74
-22.81
-27.26
-30.7
-33.15
-35.08
-37.28
-40.62
-45.73
-52.63
-60.57
-68.07
-73.19
-74.06
-69.4
-59.04
-43.97
-26.17
-8.03
8.26
21.19
30.17
35.4
37.59
37.69
36.57
34.89
33.11
31.56
30.43
29.88
29.98
30.64
31.64
32.67
33.47
33.91
34.04
33.99
33.83
33.48
32.65
30.99
28.3
24.6
20.23
15.66
11.37
7.62
4.46
1.72
-0.95
-3.88
-7.38
-11.54
-16.27
-21.27
-26.1
-30.38
-33.92
-36.88
-39.82
-43.53
-48.76
-55.75
-63.94
-71.87
-77.47
-78.62
-73.89
-63.01
-47.16
-28.58
-9.91
6.51
19.24
27.93
33.09
35.64
36.52
36.42
35.75
34.72
33.52
32.36
31.49
31.08
31.17
31.69
32.44
33.22
33.88
34.35
34.62
34.72
34.64
34.28
33.45
31.91
29.46
26.08
21.95
17.4
12.88
8.75
5.2
2.23
-0.43
-3.15
-6.3
-10.05
-14.34
-18.78
-22.89
-26.26
-28.75
-30.6
-32.32
-34.56
-37.92
-42.81
-49.29
-56.89
-64.6
-70.83
-73.72
-71.67
-63.89
-50.82
-34.05
-15.89
1.3
15.72
26.49
33.59
37.57
39.21
39.25
38.26
36.68
34.83
32.98
31.34
30.02
28.99
28.15
27.37
26.58
25.85
25.33
25.22
25.55
26.2
26.71
26.57
25.27
22.63
18.81
14.36
9.99
6.29
3.44
1.2
-1.0
-3.73
-7.24
-11.41
-15.74
-19.66
-22.78
-25.04
-26.74
-28.39
-30.56
-33.73
-38.17
-43.79
-50.01
-55.74
-59.44
-59.52
-54.88
-45.33
-31.8
-16.13
-0.51
13.15
23.65
30.67
34.57
35.98
35.52
33.72
31.04
27.96
25.0
22.68
21.39
21.32
22.34
24.12
26.2
28.2
29.82
30.95
31.58
31.77
31.52
30.73
29.3
27.11
24.13
20.55
16.74
13.17
10.26
8.14
6.53
4.86
2.37
-1.51
-6.93
-13.48
-20.41
-26.86
-32.21
-36.33
-39.49
-42.36
-45.69
-50.09
-55.81
-62.58
-69.56
-75.36
-78.3
-76.83
-70.07
-58.07
-42.02
-23.91
-6.03
9.63
21.81
30.12
34.89
36.9
37.11
36.34
35.23
34.13
33.22
32.5
31.89
31.3
30.73
30.23
29.94
29.95
30.34
31.08
32.03
32.93
33.49
33.42
32.55
30.86
28.47
25.57
22.34
18.9
15.28
11.48
7.58
3.75
0.24
-2.75
-5.25
-7.49
-9.87
-12.76
-16.28
-20.25
-24.24
-27.84
-30.82
-33.29
-35.64
-38.43
-42.19
-47.31
-53.82
-61.26
-68.62
-74.28
-76.46
-73.65
-65.23
-51.8
-35.11
-17.53
-1.31
12.0
21.81
28.33
32.28
34.4
35.3
35.44
35.16
34.78
34.58
34.71
35.17
35.84
36.49
36.97
37.23
37.29
37.23
37.07
36.78
36.25
35.31
33.82
31.7
29.01
25.88
22.62
19.49
16.75
14.55
12.88
11.53
10.21
8.61
6.54
4.04
1.3
-1.39
-3.79
-5.87
-7.88
-10.24
-13.36
-17.41
-22.26
-27.42
-32.3
-36.42
-39.67
-42.27
-44.77
-47.85
-52.07
-57.6
-64.07
-70.41
-74.99
-76.04
-72.17
-62.92
-49.02
-32.26
-14.96
0.69
13.18
21.93
27.14
29.55
30.08
29.65
28.96
28.5
28.43
28.69
29.14
29.65
30.17
30.71
31.32
31.99
32.65
33.21
33.65
33.99
34.25
34.33
34.02
33.02
31.12
28.28
24.81
21.14
17.76
15.02
12.94
11.27
9.58
7.52
4.96
2.07
-0.84
-3.44
-5.6
-7.46
-9.38
-11.75
-14.82
-18.59
-22.79
-26.96
-30.68
-33.7
-36.06
-38.11
-40.41
-43.56
-47.99
-53.69
-60.09
-66.02
-69.86
-70.03
-65.38
-55.68
-41.79
-25.44
-8.77
6.27
18.36
26.98
32.28
34.83
35.3
34.32
32.46
30.22
28.09
26.42
25.48
25.32
25.88
26.96
28.36
29.9
31.46
32.92
34.19
35.17
35.7
35.64
34.77
32.93
30.06
26.3
22.06
17.85
14.19
11.33
9.16
7.24
5.09
2.44
-0.65
-3.86
-6.75
-9.1
-11.01
-12.81
-14.91
-17.6
-20.94
-24.8
-28.88
-32.9
-36.57
-39.69
-42.21
-44.36
-46.66
-49.83
-54.52
-60.96
-68.54
-75.78
-80.58
-80.86
-75.27
-63.73
-47.54
-29.0
-10.71
5.14
17.22
25.24
29.7
31.48
31.54
30.65
29.33
27.92
26.69
25.77
25.26
25.16
25.44
26.08
27.1
28.52
30.39
32.65
35.08
37.4
39.25
40.36
40.57
39.93
38.53
36.53
34.09
31.34
28.39
25.36
22.3
19.25
16.33
13.59
11.12
8.91
6.92
5.01
3.1
1.13
-0.84
-2.7
-4.43
-6.08
-7.87
-10.06
-12.87
-16.39
-20.54
-25.09
-29.78
-34.32
-38.54
-42.42
-46.24
-50.51
-55.9
-62.89
-71.38
-80.36
-87.98
-91.88
-89.98
-81.26
-66.24
-46.86
-25.89
-6.14
10.36
22.67
30.79
35.46
37.59
38.04
37.53
36.56
35.53
34.77
34.5
34.79
35.56
36.55
37.47
38.06
38.21
38.01
37.65
37.33
37.11
36.9
36.52
35.76
34.46
32.57
30.09
27.09
23.71
20.19
16.89
14.02
11.62
9.51
7.3
4.68
1.57
-1.82
-5.09
-7.88
-10.12
-12.07
-14.2
-16.91
-20.44
-24.69
-29.34
-34.0
-38.32
-42.12
-45.4
-48.32
-51.19
-54.44
-58.56
-63.88
-70.36
-77.28
-83.19
-86.11
-84.09
-75.9
-61.52
-42.34
-20.81
0.28
18.53
32.46
41.66
46.62
48.27
47.61
45.48
42.48
39.06
35.66
32.75
30.73
29.88
30.21
31.48
33.32
35.39
37.46
39.49
41.36
42.88
43.71
43.44
41.86
39.02
35.3
31.2
27.17
23.41
19.85
16.28
12.45
8.31
4.01
-0.11
-3.72
-6.65
-9.0
-11.15
-13.61
-16.74
-20.63
-25.06
-29.52
-33.52
-36.74
-39.23
-41.39
-43.9
-47.57
-52.99
-60.2
-68.42
-75.96
-80.53
-79.93
-72.81
-59.21
-40.64
-19.61
1.15
19.34
33.55
43.31
48.82
50.7
49.77
46.93
43.1
39.14
35.76
33.38
32.13
31.92
32.47
33.49
34.74
36.08
37.47
38.91
40.27
41.38
41.94
41.62
40.19
37.59
34.02
29.82
25.41
21.16
17.23
13.58
9.99
6.26
2.31
-1.75
-5.7
-9.33
-12.68
-15.98
-19.63
-23.95
-29.02
-34.58
-40.19
-45.4
-49.97
-53.92
-57.51
-61.14
-65.34
-70.63
-77.34
-85.34
-93.67
-100.5
-103.36
-99.9
-88.84
-70.51
-46.99
-21.46
2.76
23.18
38.53
48.78
54.64
57.11
57.15
55.53
52.92
49.92
47.11
44.94
43.66
43.29
43.61
44.32
45.13
45.89
46.62
47.45
48.48
49.64
50.59
50.83
49.84
47.41
43.66
39.11
34.4
30.12
26.51
23.45
20.53
17.35
13.62
9.38
4.9
0.55
-3.33
-6.64
-9.56
-12.53
-16.07
-20.52
-25.94
-31.99
-38.06
-43.56
-48.1
-51.74
-54.98
-58.67
-63.67
-70.55
-79.18
-88.5
-96.57
-100.92
-99.22
-90.04
-73.43
-51.14
-26.05
-1.49
19.75
35.96
46.7
52.54
54.55
53.95
51.82
49.02
46.25
44.0
42.54
41.95
42.08
42.64
43.34
43.94
44.33
44.52
44.61
44.71
44.88
45.02
44.85
43.97
42.02
38.88
34.8
30.32
26.12
22.69
20.22
18.47
16.92
14.97
12.23
8.63
4.43
0.09
-3.88
-7.19
-9.84
-12.16
-14.71
-18.0
-22.21
-27.17
-32.32
-37.02
-40.79
-43.55
-45.66
-47.85
-51.01
-55.97
-63.21
-72.48
-82.59
-91.45
-96.41
-95.02
-85.94
-69.48
-47.61
-23.41
-0.17
19.53
34.25
43.71
48.55
49.77
48.55
46.01
43.04
40.36
38.45
37.44
37.24
37.57
38.08
38.55
38.89
39.23
39.81
40.84
42.34
44.0
45.26
45.49
44.24
41.47
37.53
33.08
28.73
24.9
21.68
18.9
16.23
13.38
10.15
6.54
2.7
-1.07
-4.48
-7.36
-9.76
-11.96
-14.39
-17.46
-21.33
-25.84
-30.61
-35.1
-38.96
-42.11
-44.91
-48.06
-52.37
-58.5
-66.47
-75.45
-83.65
-88.73
-88.43
-81.29
-67.3
-47.96
-25.9
-4.09
14.91
29.59
39.47
45.03
47.14
46.83
45.0
42.39
39.6
37.03
34.96
33.56
32.9
33.02
33.86
35.31
37.13
38.99
40.49
41.37
41.41
40.57
38.88
36.43
33.28
29.55
25.34
20.85
16.33
12.01
8.05
4.49
1.31
-1.62
-4.42
-7.15
-9.92
-12.78
-15.84
-19.22
-22.97
-26.99
-31.06
-34.88
-38.22
-41.07
-43.77
-46.98
-51.49
-57.87
-66.17
-75.49
-84.04
-89.41
-89.27
-82.13
-67.94
-48.26
-25.85
-3.83
15.14
29.48
38.79
43.63
45.07
44.26
42.21
39.78
37.58
36.06
35.43
35.63
36.43
37.51
38.6
39.58
40.49
41.46
42.58
43.78
44.81
45.23
44.62
42.64
39.2
34.61
29.46
24.43
20.12
16.82
14.43
12.54
10.59
8.15
5.07
1.54
-2.0
-5.09
-7.52
-9.46
-11.4
-13.94
-17.49
-22.05
-27.22
-32.39
-36.95
-40.65
-43.67
-46.54
-50.03
-54.91
-61.63
-70.02
-79.12
-87.11
-91.68
-90.62
-82.55
-67.57
-47.32
-24.56
-2.44
16.43
30.51
39.5
44.07
45.41
44.72
42.99
40.9
38.93
37.39
36.53
36.45
37.05
38.03
38.94
39.39
39.2
38.45
37.48
36.66
36.2
35.98
35.57
34.48
32.32
29.05
25.03
20.87
17.18
14.38
12.48
11.08
9.66
7.78
5.25
2.26
-0.85
-3.76
-6.39
-8.99
-12.03
-15.96
-21.03
-27.1
-33.7
-40.16
-45.87
-50.5
-54.08
-57.01
-59.89
-63.42
-68.03
-73.75
-80.03
-85.52
-88.29
-86.17
-77.54
-62.0
-40.85
-16.88
6.35
25.62
38.96
46.03
47.87
46.18
42.71
38.69
34.88
31.72
29.47
28.27
28.07
28.64
29.57
30.49
31.24
31.92
32.81
34.15
36.04
38.27
40.44
42.0
42.39
41.24
38.44
34.26
29.17
23.75
18.46
13.55
9.02
4.79
0.87
-2.57
-5.26
-7.06
-8.12
-8.85
-9.83
-11.52
-14.05
-17.22
-20.61
-23.84
-26.69
-29.21
-31.64
-34.42
-38.05
-43.07
-49.87
-58.46
-68.01
-76.88
-82.73
-83.21
-76.79
-63.36
-44.41
-22.62
-1.1
17.53
31.67
40.92
45.85
47.56
47.27
45.99
44.46
43.09
42.09
41.49
41.26
41.28
41.46
41.69
41.9
42.12
42.43
42.96
43.71
44.56
45.18
45.08
43.84
41.25
37.44
32.89
28.26
24.1
20.64
17.73
14.94
11.82
8.18
4.09
-0.11
-4.13
-7.85
-11.44
-15.27
-19.67
-24.77
-30.39
-36.08
-41.31
-45.64
-48.91
-51.32
-53.35
-55.68
-59.08
-64.08
-70.76
-78.41
-85.41
-89.55
-88.54
-80.84
-66.26
-46.27
-23.49
-1.0
18.59
33.77
44.19
50.38
53.34
54.0
53.16
51.23
48.52
45.17
41.28
36.93
32.3
27.64
23.3
19.71
17.21
16.0
16.06
17.12
18.73
20.33
21.39
21.47
20.33
17.95
14.54
10.46
6.24
2.43
-0.55
-2.53
-3.67
-4.43
-5.43
-7.2
-10.01
-13.75
-17.99
-22.14
-25.69
-28.43
-30.5
-32.4
-34.86
-38.6
-44.14
-51.51
-60.05
-68.32
-74.31
-75.83
-71.22
-59.87
-42.63
-21.59
0.38
20.43
36.36
47.05
52.46
53.4
51.2
47.23
42.71
38.46
34.86
31.94
29.58
27.66
26.18
25.16
24.68
24.67
24.96
25.29
25.49
25.46
25.2
24.74
24.07
23.22
22.17
20.96
19.6
18.05
16.27
14.15
11.64
8.83
5.91
3.07
0.44
-2.05
-4.64
-7.66
-11.39
-15.9
-21.1
-26.66
-32.24
-37.6
-42.72
-47.87
-53.55
-60.33
-68.57
-78.14
-88.2
-97.12
-102.76
-103.03
-96.6
-83.4
-64.84
-43.49
-22.36
-4.14
9.53
18.11
22.1
22.56
20.68
17.47
13.67
9.68
5.67
1.67
-2.4
-6.63
-11.05
-15.69
-20.49
-25.45
-30.57
-35.9
-41.52
-47.57
-54.24
-61.74
-70.24
-79.74
-89.92
-100.12
-109.39
-116.63
-120.8
-121.03
-116.76
-107.69
-93.78
-75.32
-52.89
-27.44
-0.23
27.35
53.96
78.42
99.74
117.2
130.15
138.11
140.9
138.63
131.96
121.95
109.92
97.13
84.6
72.78
61.68
50.86
39.7
27.58
14.23
0.05
-13.76
-25.18
-31.97
-32.19
-25.14
-11.62
6.13
25.07
42.29
55.72
64.48
68.79
69.53
67.81
64.68
61.1
57.74
55.04
53.18
52.04
51.34
50.76
50.09
49.22
48.21
47.15
46.19
45.4
44.81
44.38
43.94
43.27
42.11
40.24
37.62
34.34
30.69
26.97
23.48
20.45
17.99
16.03
14.38
12.77
10.98
8.89
6.54
4.06
1.61
-0.72
-3.02
-5.42
-8.16
-11.43
-15.3
-19.72
-24.57
-29.62
-34.65
-39.41
-43.7
-47.47
-50.83
-54.16
-58.05
-63.21
-70.03
-78.28
-86.74
-93.32
-95.52
-91.3
-79.87
-62.06
-40.16
-17.17
4.08
21.67
34.79
43.63
48.92
51.57
52.44
52.25
51.56
50.79
50.17
49.8
49.57
49.35
48.97
48.36
47.49
46.4
45.18
43.93
42.65
41.32
39.81
37.95
35.56
32.55
28.98
25.05
21.03
17.3
14.13
11.66
9.77
8.13
6.28
3.83
0.66
-3.1
-6.96
-10.38
-13.0
-14.74
-15.92
-16.99
-18.43
-20.56
-23.44
-26.92
-30.7
-34.49
-38.02
-41.19
-44.08
-47.02
-50.56
-55.32
-61.65
-69.31
-77.19
-83.4
-85.72
-82.3
-72.43
-56.91
-37.84
-18.02
-0.04
14.36
24.58
30.88
33.91
34.43
33.03
30.3
26.85
23.41
20.71
19.32
19.49
21.13
23.92
27.48
31.43
35.48
39.37
42.87
45.73
47.75
48.84
48.97
48.21
46.64
44.37
41.54
38.35
35.07
32.0
29.4
27.37
25.79
24.39
22.77
20.56
17.54
13.72
9.42
5.03
0.97
-2.56
-5.56
-8.29
-11.1
-14.37
-18.4
-23.39
-29.2
-35.25
-40.33
-42.72
-40.69
-33.08
-19.89
-2.41
17.04
35.84
51.81
63.7
71.27
74.95
75.47
73.55
69.85
65.01
59.73
54.71
50.51
47.37
45.04
42.89
40.09
35.9
29.96
22.36
13.59
4.31
-4.89
-13.78
-22.48
-31.35
-40.75
-50.78
-61.09
-71.05
-79.87
-86.86
-91.74
-94.69
-96.33
-97.58
-99.31
-102.22
-106.5
-111.89
-117.72
-123.24
-127.84
-131.31
-133.91
-136.29
-139.17
-143.15
-148.3
-154.02
-158.89
-160.94
-158.12
-148.88
-132.77
-110.77
-84.97
-58.1
-32.71
-10.58
7.47
21.55
32.2
40.22
46.33
51.17
55.36
59.42
63.8
68.74
74.19
79.83
85.25
90.13
94.38
98.2
101.85
105.48
108.93
111.72
113.22
112.93
110.63
106.51
101.07
94.99
88.9
83.31
78.4
73.97
69.49
64.27
57.72
49.75
40.86
32.07
24.51
19.02
15.83
14.41
13.63
12.16
8.93
3.48
-3.65
-10.99
-16.38
-17.72
-13.68
-4.45
8.2
21.25
31.29
35.47
32.2
21.32
3.87
-18.3
-43.08
-68.36
-92.25
-113.25
-130.25
-142.67
-150.46
-153.99
-153.9
-150.86
-145.46
-138.12
-129.26
-119.33
-108.96
-98.93
-90.08
-83.03
-77.99
-74.76
-72.7
-71.03
-69.06
-66.46
-63.27
-59.89
-56.77
-54.2
-52.19
-50.45
-48.56
-46.29
-43.66
-41.03
-39.13
-38.78
-40.69
-45.12
-51.63
-58.95
-65.02
-67.52
-64.44
-54.8
-39.04
-18.88
3.13
24.41
42.98
57.76
68.6
75.95
80.49
82.91
83.77
83.54
82.63
81.37
80.11
79.12
78.57
78.42
78.49
78.52
78.23
77.56
76.6
75.47
74.19
72.56
70.18
66.66
61.85
55.95
49.53
43.27
37.74
33.11
29.2
25.53
21.57
17.0
11.8
6.23
0.66
-4.59
-9.5
-14.39
-19.74
-26.2
-34.25
-44.0
-54.88
-65.52
-73.81
-77.41
-74.43
-64.17
-47.48
-26.65
-4.6
15.93
33.04
45.94
54.77
60.2
63.07
64.06
63.81
62.76
61.29
59.65
57.99
56.39
54.87
53.44
52.04
50.66
49.42
48.55
48.29
48.76
49.72
50.53
50.41
48.64
45.1
40.1
34.49
29.1
24.49
20.69
17.31
13.75
9.58
4.7
-0.59
-5.77
-10.27
-13.76
-16.3
-18.39
-20.9
-24.8
-30.82
-39.0
-48.49
-57.45
-63.53
-64.42
-58.68
-46.28
-28.64
-8.29
11.92
29.57
43.25
52.62
58.16
60.77
61.34
60.55
58.89
56.67
54.17
51.67
49.49
47.89
47.17
47.47
48.76
50.77
53.0
54.91
56.05
56.16
55.2
53.25
50.34
46.38
41.25
34.91
27.59
19.74
11.89
4.41
-2.66
-9.55
-16.68
-24.49
-33.37
-43.6
-55.38
-68.75
-83.47
-98.99
-114.37
-128.47
-140.19
-148.78
-154.02
-156.1
-155.48
-152.44
-146.97
-138.66
-127.11
-112.28
-94.82
-76.09
-57.79
-41.41
-27.74
-16.68
-7.41
1.3
10.69
21.75
35.01
50.34
66.87
83.04
96.84
106.42
110.63
109.42
103.7
94.89
84.45
73.41
62.38
51.65
41.36
31.74
23.04
15.54
9.38
4.48
0.46
-3.49
-8.35
-14.98
-23.83
-34.59
-46.32
-57.68
-67.44
-74.82
-79.62
-82.05
-82.39
-80.7
-76.77
-70.2
-60.74
-48.67
-34.96
-21.16
-8.98
0.22
5.87
8.38
8.76
8.33
8.14
8.67
9.9
11.47
13.0
14.31
15.53
16.96
18.85
21.27
24.07
26.99
29.84
32.74
36.07
40.34
45.96
53.03
61.31
70.25
79.11
87.11
93.45
97.38
98.33
96.03
90.64
82.71
73.06
62.65
52.32
42.65
33.94
26.19
19.19
12.74
6.76
1.45
-2.79
-5.54
-6.57
-6.07
-4.72
-3.44
-3.18
-4.6
-7.84
-12.44
-17.39
-21.35
-22.84
-20.69
-14.34
-4.07
8.95
22.87
35.68
45.77
52.37
55.73
56.93
57.42
58.53
61.1
65.4
71.29
78.65
87.56
98.48
112.13
129.18
149.91
174.05
200.55
227.58
252.61
272.62
284.67
286.52
277.33
257.98
230.88
199.22
165.91
132.76
100.09
67.03
32.22
-5.24
-45.03
-85.28
-122.79
-153.78
-174.96
-184.71
-183.81
-175.45
-164.49
-155.83
-152.84
-156.43
-165.02
-175.51
-184.68
-190.15
-190.8
-186.54
-177.98
-166.21
-152.88
-140.07
-129.98
-124.14
-122.83
-124.89
-128.4
-131.72
-134.22
-136.47
-139.41
-143.45
-147.81
-150.71
-150.16
-144.79
-134.34
-119.45
-101.17
-80.35
-57.44
-32.63
-6.22
21.24
48.75
75.1
99.14
120.1
137.85
152.94
166.53
179.9
193.93
208.64
222.93
234.76
241.58
240.88
230.83
210.6
180.68
142.92
100.46
57.2
16.92
-17.58
-45.17
-66.38
-82.85
-96.43
-108.3
-118.76
-127.43
-133.92
-138.32
-141.28
-143.67
-145.99
-148.08
-149.06
-147.87
-143.92
-137.27
-128.62
-118.7
-107.98
-96.55
-84.66
-73.02
-62.99
-55.91
-52.34
-51.45
-51.24
-49.45
-44.59
-36.7
-27.07
-17.48
-9.3
-2.96
1.9
5.99
9.72
13.16
16.15
18.61
20.6
22.29
23.81
25.07
25.88
26.16
26.04
25.85
25.93
26.32
26.71
26.51
25.16
22.46
18.68
14.49
10.63
7.6
5.52
4.31
4.03
5.03
7.88
12.94
20.13
28.76
38.01
47.35
56.73
66.39
76.33
85.84
93.7
98.65
100.06
98.31
94.5
90.02
86.02
83.18
81.71
81.32
81.28
80.43
77.58
71.98
63.89
54.56
45.67
38.5
33.43
29.84
26.84
24.06
21.96
21.56
23.57
27.64
32.2
35.0
34.07
28.78
20.2
10.62
2.5
-2.65
-4.93
-5.78
-7.2
-10.85
-17.56
-27.38
-40.02
-55.05
-71.83
-88.94
-104.02
-114.15
-116.7
-110.56
-96.73
-78.12
-58.49
-41.13
-28.03
-19.7
-15.68
-15.09
-17.21
-21.39
-26.8
-32.19
-35.93
-36.24
-31.7
-21.61
-6.3
12.85
33.67
53.71
70.94
84.28
93.9
100.86
106.45
111.32
115.06
116.3
113.45
105.48
92.35
74.92
54.49
32.3
9.46
-12.88
-33.35
-50.47
-63.06
-70.65
-73.72
-73.59
-71.77
-69.73
-68.39
-68.22
-69.3
-71.36
-73.92
-76.45
-78.51
-79.9
-80.69
-81.0
-80.72
-79.39
-76.3
-70.86
-63.02
-53.39
-43.17
-33.67
-25.95
-20.59
-17.72
-17.29
-19.14
-23.04
-28.53
-34.86
-41.11
-46.42
-50.3
-52.8
-54.46
-56.05
-58.26
-61.46
-65.72
-70.85
-76.66
-82.98
-89.67
-96.5
-103.22
-109.55
-115.4
-120.89
-126.32
-131.96
-137.91
-143.97
-149.64
-154.22
-156.87
-156.69
-152.75
-144.28
-130.86
-112.65
-90.42
-65.48
-39.34
-13.38
11.29
33.97
54.14
71.41
85.43
95.84
102.31
104.54
102.38
96.05
86.23
74.17
61.5
49.88
40.59
34.15
30.38
28.5
27.56
26.83
25.87
24.52
22.67
20.11
16.63
12.07
6.67
0.95
-4.43
-8.97
-12.7
-16.09
-19.97
-25.13
-31.93
-40.01
-48.29
-55.09
-58.58
-57.19
-50.16
-37.77
-21.27
-2.55
16.41
34.06
49.48
62.36
72.8
81.02
87.2
91.47
93.97
94.82
94.14
92.04
88.61
83.99
78.48
72.52
66.67
61.49
57.45
54.85
53.85
54.53
56.8
60.29
64.3
67.79
69.57
68.72
64.86
58.32
49.91
40.53
30.75
20.63
9.76
-2.36
-15.93
-30.66
-45.64
-59.46
-70.45
-76.92
-77.47
-71.41
-59.09
-42.0
-22.62
-3.77
12.03
23.21
29.33
30.94
29.04
24.61
18.46
11.15
3.28
-4.37
-10.93
-15.56
-17.92
-18.25
-17.44
-16.64
-16.89
-18.69
-21.92
-26.02
-30.29
-34.3
-37.97
-41.44
-44.88
-48.32
-51.62
-54.62
-57.25
-59.59
-61.69
-63.46
-64.5
-64.3
-62.46
-59.05
-54.69
-50.57
-48.01
-48.13
-51.47
-57.75
-65.82
-73.84
-79.59
-80.91
-76.24
-65.01
-47.88
-26.55
-3.41
19.06
38.89
54.9
66.72
74.62
79.22
81.27
81.51
80.66
79.3
77.91
76.76
75.9
75.25
74.61
73.81
72.86
71.91
71.15
70.67
70.32
69.72
68.35
65.84
62.08
57.33
52.11
46.93
42.11
37.63
33.1
27.98
21.75
14.11
5.13
-4.81
-15.09
-25.08
-34.31
-42.64
-50.3
-57.8
-65.67
-74.19
-83.0
-90.93
-96.23
-96.91
-91.45
-79.32
-61.33
-39.46
-16.39
5.28
23.61
37.66
47.4
53.38
56.36
56.97
55.64
52.66
48.38
43.35
38.31
34.01
31.02
29.57
29.45
30.13
31.08
31.89
32.38
32.51
32.32
31.71
30.49
28.54
25.76
22.22
17.99
13.08
7.48
1.16
-5.77
-13.01
-20.06
-26.48
-32.07
-37.01
-41.82
-47.24
-53.92
-62.16
-71.58
-81.08
-88.8
-92.53
-90.37
-81.33
-65.71
-45.23
-22.46
-0.14
19.44
34.92
45.78
52.21
54.77
54.2
51.29
46.82
41.49
35.92
30.57
25.8
21.82
18.79
16.84
16.06
16.41
17.66
19.45
21.26
22.54
22.84
21.96
19.9
16.85
13.1
8.89
4.39
-0.39
-5.51
-11.04
-16.93
-23.01
-29.02
-34.65
-39.76
-44.5
-49.31
-54.91
-61.97
-70.87
-81.3
-92.12
-101.37
-106.66
-105.81
-97.6
-82.21
-61.27
-37.48
-13.87
6.97
23.48
35.19
42.5
46.32
47.59
47.11
45.46
43.1
40.44
37.93
35.94
34.7
34.19
34.27
34.68
35.25
35.91
36.63
37.28
37.58
37.11
35.55
32.76
28.94
24.54
20.1
15.97
12.23
8.6
4.6
-0.18
-6.0
-12.78
-20.14
-27.53
-34.49
-40.84
-46.79
-52.98
-60.17
-68.87
-78.92
-89.18
-97.58
-101.61
-99.13
-89.04
-71.83
-49.41
-24.63
-0.53
20.42
36.62
47.49
53.26
54.72
52.92
49.01
44.11
39.16
34.92
31.86
30.25
30.03
30.86
32.19
33.37
33.92
33.58
32.49
30.98
29.54
28.54
28.15
28.32
28.88
29.72
30.78
32.25
34.27
36.93
39.99
42.97
45.23
46.24
45.79
44.04
41.44
38.49
35.47
32.35
28.87
24.71
19.63
13.54
6.54
-1.12
-9.13
-17.03
-24.39
-30.79
-36.01
-40.22
-44.07
-48.55
-54.7
-63.08
-73.3
-83.75
-91.87
-94.81
-90.36
-77.76
-58.08
-33.9
-8.54
14.92
34.29
48.58
57.81
62.62
63.99
62.95
60.5
57.58
54.96
53.13
52.29
52.41
53.24
54.54
56.05
57.59
58.93
59.92
60.41
60.34
59.67
58.39
56.4
53.6
49.85
45.16
39.74
34.01
28.5
23.68
19.7
16.34
13.08
9.26
4.41
-1.59
-8.44
-15.56
-22.33
-28.3
-33.37
-37.76
-41.96
-46.62
-52.45
-59.96
-69.24
-79.55
-89.22
-95.89
-97.12
-91.21
-77.98
-58.92
-36.88
-15.11
3.66
17.84
27.07
31.95
33.51
32.78
30.58
27.56
24.24
21.11
18.54
16.75
15.72
15.29
15.27
15.52
16.1
17.09
18.5
20.18
21.77
22.83
23.05
22.33
20.84
18.85
16.55
13.94
10.9
7.31
3.21
-1.19
-5.58
-9.74
-13.67
-17.58
-21.79
-26.51
-31.78
-37.35
-42.87
-47.99
-52.48
-56.32
-59.79
-63.46
-68.13
-74.64
-83.55
-94.58
-106.43
-116.7
-122.41
-120.87
-110.6
-91.97
-67.2
-39.67
-13.0
9.95
27.65
39.91
47.47
51.51
53.21
53.54
53.27
53.0
53.16
53.99
55.52
57.54
59.73
61.76
63.39
64.47
64.92
64.77
64.02
62.69
60.74
58.16
54.92
50.99
46.45
41.4
36.01
30.49
25.04
19.79
14.91
10.43
6.23
2.08
-2.32
-7.26
-12.74
-18.55
-24.27
-29.42
-33.75
-37.37
-40.77
-44.69
-49.92
-57.08
-66.45
-77.75
-89.87
-100.86
-108.1
-108.89
-101.32
-84.98
-61.31
-33.33
-4.78
20.91
41.44
55.98
64.94
69.47
70.85
70.12
68.01
65.03
61.63
58.35
55.84
54.57
54.65
55.79
57.33
58.69
59.49
59.79
59.86
59.86
59.65
58.79
56.67
52.9
47.45
40.66
33.15
25.57
18.47
12.22
6.95
2.54
-1.4
-5.4
-10.01
-15.5
-21.79
-28.41
-34.75
-40.27
-44.77
-48.49
-51.98
-56.05
-61.51
-68.91
-78.32
-88.9
-98.84
-105.55
-106.28
-98.95
-83.07
-60.04
-32.93
-5.59
18.47
36.87
48.74
54.55
55.55
53.3
49.16
44.26
39.41
35.27
32.29
30.8
30.93
32.61
35.48
39.03
42.69
45.94
48.49
50.19
50.99
50.8
49.43
46.69
42.55
37.26
31.37
25.54
20.3
15.85
12.07
8.66
5.37
2.17
-0.84
-3.48
-5.84
-8.24
-11.21
-15.21
-20.44
-26.76
-33.67
-40.55
-46.94
-52.67
-58.01
-63.57
-70.19
-78.67
-89.36
-101.82
-114.46
-124.75
-129.63
-126.46
-113.96
-92.82
-65.59
-36.03
-7.99
15.63
33.36
45.19
52.1
55.41
56.41
56.13
55.38
54.74
54.63
55.23
56.51
58.19
59.96
61.64
63.2
64.79
66.51
68.41
70.26
71.73
72.37
71.81
69.82
66.39
61.73
56.26
50.53
45.06
40.22
36.05
32.23
28.21
23.43
17.61
10.88
3.76
-3.06
-9.05
-14.14
-18.7
-23.42
-28.95
-35.61
-43.26
-51.3
-58.94
-65.44
-70.47
-74.24
-77.56
-81.58
-87.56
-96.28
-107.54
-119.83
-130.36
-135.77
-133.03
-120.58
-98.96
-70.75
-39.83
-10.28
14.68
33.36
45.65
52.61
55.87
57.07
57.5
57.96
58.75
59.81
60.92
61.74
62.03
61.59
60.37
58.47
56.19
54.02
52.49
51.98
52.55
53.79
54.98
55.32
54.39
52.19
49.24
46.18
43.61
41.72
40.28
38.85
36.97
34.4
31.27
27.97
24.93
22.43
20.41
18.51
16.31
13.43
9.84
5.77
1.51
-2.76
-7.12
-11.83
-17.22
-23.48
-30.56
-38.18
-45.86
-53.04
-59.27
-64.29
-68.34
-72.2
-76.97
-83.83
-93.43
-105.27
-117.54
-127.29
-131.2
-126.68
-112.71
-90.42
-62.75
-33.64
-6.86
14.88
30.38
39.88
44.56
45.95
45.6
44.78
44.37
44.87
46.34
48.46
50.71
52.53
53.57
53.75
53.29
52.58
52.1
52.17
52.91
54.22
55.77
57.1
57.79
57.51
56.13
53.76
50.67
47.23
43.73
40.31
36.98
33.68
30.3
26.86
23.48
20.27
17.25
14.27
11.08
7.46
3.41
-0.87
-5.01
-8.75
-12.1
-15.43
-19.28
-24.1
-30.02
-36.69
-43.43
-49.6
-54.74
-58.9
-62.6
-66.73
-72.3
-80.1
-90.32
-102.17
-113.76
-122.3
-124.81
-118.99
-104.19
-81.7
-54.48
-26.3
-0.71
19.89
34.54
43.54
48.01
49.4
49.06
48.08
47.17
46.68
46.62
46.87
47.17
47.33
47.22
46.83
46.24
45.66
45.38
45.66
46.59
47.93
49.09
49.36
48.15
45.3
41.18
36.54
32.14
28.45
25.46
22.85
20.14
17.07
13.71
10.43
7.61
5.52
4.08
3.0
1.86
0.32
-1.79
-4.37
-7.26
-10.25
-13.28
-16.48
-20.14
-24.56
-29.9
-36.0
-42.37
-48.35
-53.38
-57.22
-60.06
-62.55
-65.58
-70.08
-76.75
-85.62
-95.81
-105.38
-111.57
-111.52
-103.22
-86.35
-62.59
-35.22
-8.09
15.49
33.55
45.62
52.37
55.02
54.86
52.97
50.23
47.34
44.9
43.35
42.87
43.42
44.73
46.45
48.24
49.88
51.32
52.61
53.8
54.87
55.64
55.77
54.96
53.05
50.16
46.68
43.1
39.85
37.13
34.87
32.76
30.51
27.91
24.99
21.94
18.99
16.25
13.63
10.88
7.68
3.86
-0.49
-5.01
-9.26
-12.89
-15.93
-18.69
-21.75
-25.66
-30.75
-36.96
-43.87
-50.86
-57.28
-62.76
-67.32
-71.47
-76.03
-81.92
-89.75
-99.39
-109.7
-118.51
-123.09
-120.89
-110.36
-91.63
-66.62
-38.6
-11.25
12.31
30.18
41.99
48.48
51.06
51.25
50.34
49.17
48.26
47.87
48.06
48.75
49.71
50.64
51.22
51.29
50.9
50.37
50.08
50.32
51.06
51.95
52.43
51.97
50.31
47.53
43.96
40.07
36.23
32.66
29.37
26.23
23.09
19.83
16.48
13.2
10.16
7.44
4.99
2.57
-0.1
-3.13
-6.4
-9.64
-12.59
-15.19
-17.75
-20.78
-24.71
-29.68
-35.45
-41.4
-46.94
-51.7
-55.73
-59.52
-63.78
-69.31
-76.73
-86.21
-97.22
-108.3
-117.14
-120.96
-117.4
-105.25
-85.12
-59.42
-31.67
-5.48
16.39
32.57
43.02
48.59
50.54
50.03
48.06
45.43
42.81
40.71
39.45
39.14
39.65
40.73
42.14
43.76
45.58
47.64
49.95
52.38
54.7
56.59
57.73
57.85
56.82
54.59
51.24
47.02
42.23
37.26
32.45
28.0
23.95
20.11
16.21
12.02
7.45
2.66
-1.91
-5.81
-8.76
-10.85
-12.59
-14.76
-18.0
-22.63
-28.45
-34.87
-41.16
-46.75
-51.48
-55.62
-59.75
-64.69
-71.2
-79.84
-90.53
-102.32
-113.25
-120.64
-121.67
-114.38
-98.34
-74.99
-47.36
-19.16
6.22
26.46
40.65
49.12
52.96
53.59
52.33
50.31
48.29
46.75
45.94
45.9
46.56
47.76
49.28
50.93
52.54
54.05
55.46
56.81
58.04
58.97
59.26
58.51
56.37
52.75
47.8
42.0
35.93
30.25
25.37
21.38
18.0
14.63
10.75
6.08
0.72
-4.8
-9.87
-14.04
-17.25
-19.91
-22.68
-26.23
-31.05
-37.23
-44.46
-52.12
-59.44
-65.75
-70.69
-74.38
-77.45
-80.93
-86.0
-93.44
-103.25
-114.22
-124.0
-129.57
-128.09
-117.85
-98.93
-73.29
-44.21
-15.44
9.8
29.51
43.0
50.73
53.83
53.68
51.58
48.66
45.81
43.66
42.56
42.52
43.3
44.52
45.83
47.02
48.2
49.61
51.49
53.85
56.32
58.29
59.03
58.06
55.26
51.04
46.08
41.1
36.59
32.66
29.05
25.35
21.24
16.64
11.78
7.04
2.65
-1.38
-5.36
-9.82
-15.2
-21.63
-28.81
-36.11
-42.83
-48.47
-52.96
-56.68
-60.4
-65.01
-71.31
-79.67
-89.67
-99.98
-108.28
-111.74
-107.86
-95.27
-74.42
-47.67
-18.55
9.15
32.47
49.83
61.1
67.13
69.13
68.33
65.73
62.15
58.34
54.98
52.6
51.48
51.66
52.92
54.9
57.22
59.54
61.63
63.32
64.44
64.78
64.08
62.13
58.87
54.45
49.24
43.71
38.25
33.1
28.3
23.74
19.38
15.29
11.64
8.59
6.13
3.99
1.63
-1.47
-5.68
-11.06
-17.33
-24.14
-31.15
-38.32
-45.92
-54.51
-64.69
-76.88
-90.96
-105.97
-120.02
-130.45
-134.42
-129.74
-115.73
-93.62
-66.24
-37.38
-10.62
11.45
27.68
38.11
43.6
45.32
44.45
42.06
39.11
36.44
34.68
34.12
34.72
36.16
37.99
39.92
41.83
43.81
46.07
48.63
51.26
53.46
54.6
54.21
52.14
48.66
44.3
39.66
35.25
31.28
27.7
24.22
20.45
16.07
11.02
5.51
-0.07
-5.4
-10.39
-15.3
-20.59
-26.67
-33.6
-41.06
-48.46
-55.14
-60.71
-65.17
-69.01
-73.1
-78.49
-86.08
-96.18
-108.07
-119.79
-128.39
-130.64
-124.09
-108.01
-83.77
-54.57
-24.46
2.77
24.52
39.8
48.93
53.17
54.04
53.01
51.31
49.81
49.07
49.26
50.26
51.7
53.13
54.19
54.74
54.88
54.87
55.03
55.58
56.46
57.32
57.58
56.55
53.85
49.44
43.79
37.72
31.99
27.05
22.82
18.85
14.55
9.55
3.95
-1.79
-6.99
-11.21
-14.38
-16.92
-19.55
-22.96
-27.44
-32.82
-38.5
-43.76
-48.15
-51.76
-55.24
-59.66
-66.17
-75.57
-87.94
-102.34
-116.68
-128.03
-133.15
-129.45
-115.83
-93.23
-64.51
-33.67
-4.77
19.11
36.49
47.46
53.24
55.46
55.71
55.14
54.42
53.89
53.64
53.71
54.04
54.58
55.29
56.08
56.93
57.86
58.89
60.04
61.21
62.17
62.55
61.94
60.06
56.87
52.67
47.96
43.31
39.09
35.37
31.86
28.06
23.57
18.23
12.23
6.02
0.07
-5.44
-10.61
-15.83
-21.52
-27.94
-34.99
-42.23
-49.09
-55.13
-60.29
-65.11
-70.63
-78.12
-88.42
-101.4
-115.56
-128.05
-135.39
-134.49
-123.72
-103.58
-76.55
-46.48
-17.4
7.49
26.45
39.2
46.62
50.14
51.23
51.11
50.71
50.55
50.9
51.81
53.11
54.58
55.94
56.97
57.5
57.45
56.88
55.95
54.87
53.83
52.88
51.88
50.49
48.29
45.01
40.62
35.48
30.1
25.07
20.75
17.23
14.21
11.22
7.69
3.21
-2.4
-9.01
-16.24
-23.48
-30.18
-35.91
-40.59
-44.61
-48.8
-54.22
-61.78
-71.89
-83.97
-96.34
-106.4
-111.23
-108.43
-96.92
-77.42
-52.33
-25.14
0.56
21.94
37.54
47.3
52.19
53.6
52.87
50.99
48.63
46.29
44.42
43.41
43.57
44.92
47.17
49.79
52.23
54.11
55.3
55.86
55.92
55.52
54.53
52.65
49.59
45.09
39.17
32.18
24.76
17.71
11.7
6.98
3.28
-0.07
-3.95
-8.96
-15.23
-22.36
-29.65
-36.39
-42.14
-46.85
-50.89
-54.94
-59.88
-66.61
-75.69
-87.03
-99.47
-110.75
-117.85
-117.84
-108.92
-91.13
-66.5
-38.5
-11.01
12.85
31.23
43.78
51.22
54.82
55.9
55.58
54.65
53.67
52.97
52.73
52.97
53.63
54.59
55.68
56.79
57.79
58.62
59.25
59.69
59.92
59.88
59.44
58.41
56.54
53.6
49.54
44.52
38.99
33.48
28.47
24.11
20.28
16.65
12.81
8.52
3.8
-1.1
-5.82
-10.04
-13.58
-16.5
-19.07
-21.78
-25.09
-29.37
-34.68
-40.76
-47.1
-53.2
-58.74
-63.81
-68.87
-74.66
-81.97
-91.34
-102.7
-115.09
-126.52
-134.26
-135.45
-128.0
-111.41
-87.18
-58.5
-29.38
-3.51
16.76
30.72
39.14
43.62
45.94
47.56
49.38
51.78
54.75
57.99
61.1
63.7
65.53
66.54
66.86
66.81
66.71
66.87
67.47
68.45
69.49
70.04
69.5
67.41
63.73
58.84
53.43
48.23
43.7
39.96
36.81
33.92
31.02
28.02
24.96
21.94
19.0
16.09
12.99
9.42
5.17
0.18
-5.36
-11.07
-16.44
-21.17
-25.18
-28.8
-32.57
-37.01
-42.35
-48.4
-54.66
-60.49
-65.41
-69.35
-72.68
-76.18
-80.88
-87.68
-96.92
-107.95
-118.88
-126.78
-128.5
-121.64
-105.59
-81.9
-53.84
-25.41
-0.13
19.81
33.72
42.2
46.54
48.19
48.41
48.16
48.09
48.51
49.5
50.91
52.48
53.97
55.23
56.23
57.05
57.86
58.8
59.99
61.35
62.6
63.3
63.0
61.41
58.52
54.63
50.22
45.83
41.87
38.53
35.72
33.15
30.43
27.28
23.61
19.65
15.83
12.56
10.07
8.23
6.55
4.48
1.61
-2.05
-6.14
-10.08
-13.39
-15.99
-18.2
-20.67
-23.98
-28.44
-33.91
-39.91
-45.78
-51.0
-55.37
-59.05
-62.61
-66.83
-72.53
-80.34
-90.28
-101.44
-111.89
-118.89
-119.64
-112.16
-96.14
-73.22
-46.56
-19.96
3.3
21.26
33.41
40.49
43.82
44.72
44.22
43.08
41.84
40.97
40.84
41.61
43.16
45.14
47.09
48.71
49.88
50.68
51.33
51.92
52.41
52.61
52.2
50.98
48.85
45.9
42.38
38.55
34.66
30.86
27.25
23.88
20.77
17.93
15.31
12.8
10.25
7.53
4.53
1.26
-2.2
-5.73
-9.18
-12.44
-15.51
-18.48
-21.61
-25.2
-29.46
-34.39
-39.76
-45.13
-50.08
-54.4
-58.16
-61.81
-66.04
-71.68
-79.4
-89.32
-100.66
-111.57
-119.28
-120.8
-113.9
-98.02
-74.69
-47.06
-19.14
5.62
24.98
38.3
46.2
49.94
50.91
50.26
48.86
47.31
46.02
45.25
45.08
45.44
46.21
47.22
48.31
49.38
50.33
51.16
51.88
52.48
52.85
52.81
52.1
50.49
47.91
44.52
40.64
36.69
32.96
29.57
26.45
23.44
20.41
17.35
14.34
11.52
8.92
6.49
4.06
1.46
-1.43
-4.61
-7.97
-11.44
-14.98
-18.66
-22.68
-27.24
-32.44
-38.21
-44.23
-50.07
-55.36
-59.85
-63.69
-67.34
-71.59
-77.32
-85.17
-95.19
-106.4
-116.77
-123.45
-123.59
-115.23
-98.13
-73.96
-45.93
-17.83
7.02
26.5
39.93
47.76
51.19
51.6
50.32
48.33
46.39
44.9
44.02
43.75
43.96
44.54
45.37
46.38
47.52
48.79
50.15
51.56
52.9
53.98
54.59
54.47
53.45
51.38
48.32
44.44
40.06
35.68
31.71
28.43
25.88
23.85
21.91
19.63
16.68
12.92
8.47
3.6
-1.3
-5.92
-10.11
-13.97
-17.84
-22.2
-27.44
-33.65
-40.59
-47.68
-54.25
-59.85
-64.44
-68.47
-72.81
-78.45
-86.13
-96.04
-107.35
-118.23
-126.08
-128.09
-122.05
-107.16
-84.4
-56.38
-26.67
1.18
24.44
41.64
52.61
58.14
59.54
58.22
55.5
52.38
49.6
47.53
46.3
45.83
45.97
46.51
47.26
48.12
49.01
49.94
50.93
52.0
53.05
53.85
54.05
53.23
51.15
47.82
43.6
39.03
34.65
30.73
27.23
23.81
20.02
15.61
10.58
5.25
0.08
-4.54
-8.45
-11.83
-15.13
-18.93
-23.64
-29.38
-35.82
-42.33
-48.19
-52.89
-56.37
-59.06
-61.83
-65.73
-71.69
-80.21
-90.97
-102.65
-112.93
-118.91
-117.91
-108.34
-90.34
-65.89
-38.25
-11.04
12.74
31.24
43.9
51.14
53.92
53.42
50.81
47.21
43.64
40.89
39.44
39.35
40.47
42.45
45.03
47.99
51.19
54.4
57.32
59.53
60.64
60.35
58.59
55.49
51.3
46.31
40.69
34.58
28.01
21.06
13.95
6.94
0.38
-5.46
-10.46
-14.75
-18.6
-22.41
-26.55
-31.21
-36.4
-41.92
-47.39
-52.35
-56.5
-59.79
-62.57
-65.59
-69.87
-76.32
-85.42
-96.67
-108.39
-117.81
-121.75
-117.57
-104.12
-82.28
-54.86
-25.71
1.35
23.52
39.55
49.52
54.53
55.99
55.24
53.4
51.28
49.44
48.21
47.72
48.02
48.95
50.3
51.82
53.29
54.64
55.92
57.17
58.36
59.23
59.28
58.05
55.22
50.92
45.64
40.04
34.67
29.75
25.16
20.56
15.66
10.38
4.89
-0.48
-5.43
-9.88
-14.06
-18.41
-23.44
-29.4
-36.14
-43.16
-49.8
-55.57
-60.38
-64.65
-69.2
-75.01
-82.9
-93.18
-105.22
-117.36
-126.95
-130.94
-126.73
-113.13
-90.94
-62.88
-32.81
-4.67
18.58
35.56
46.36
52.12
54.4
54.67
54.07
53.37
53.05
53.34
54.28
55.8
57.64
59.46
60.97
61.99
62.6
63.09
63.81
64.99
66.49
67.81
68.2
66.97
63.73
58.6
52.13
45.15
38.42
32.48
27.44
23.08
18.94
14.59
9.82
4.73
-0.29
-4.79
-8.44
-11.28
-13.73
-16.46
-20.2
-25.39
-32.01
-39.6
-47.33
-54.38
-60.24
-64.96
-69.19
-74.11
-80.92
-90.4
-102.35
-115.2
-126.17
-131.88
-129.37
-117.16
-95.89
-68.22
-38.1
-9.58
14.28
31.98
43.51
49.9
52.66
53.26
52.94
52.56
52.65
53.45
54.92
56.8
58.75
60.45
61.71
62.5
62.97
63.34
63.82
64.48
65.2
65.66
65.38
63.9
60.91
56.36
50.46
43.72
36.8
30.44
25.21
21.31
18.58
16.5
14.44
11.86
8.53
4.56
0.32
-3.74
-7.29
-10.29
-12.95
-15.68
-18.94
-23.04
-28.06
-33.76
-39.68
-45.29
-50.26
-54.54
-58.49
-62.77
-68.21
-75.6
-85.37
-97.18
-109.69
-120.48
-126.5
-124.87
-113.92
-93.94
-67.22
-37.56
-9.04
15.1
33.11
44.9
51.47
54.34
54.97
54.5
53.77
53.29
53.4
54.18
55.49
57.1
58.64
59.85
60.59
60.93
61.06
61.27
61.67
62.2
62.51
62.02
60.17
56.65
51.56
45.47
39.18
33.45
28.71
24.99
21.86
18.82
15.45
11.7
7.82
4.26
1.34
-0.95
-3.05
-5.64
-9.35
-14.45
-20.69
-27.4
-33.69
-38.95
-43.04
-46.41
-49.98
-54.83
-61.79
-71.01
-81.66
-91.89
-99.08
-100.53
-94.33
-80.02
-58.96
-34.01
-8.68
13.83
31.45
43.52
50.59
53.83
54.51
53.58
51.65
49.15
46.41
43.85
41.85
40.68
40.42
40.88
41.82
42.93
44.03
44.97
45.65
45.99
45.85
45.08
43.56
41.18
37.92
33.83
29.11
23.97
18.71
13.57
8.75
4.34
0.35
-3.34
-6.91
-10.6
-14.7
-19.4
-24.75
-30.53
-36.27
-41.41
-45.54
-48.58
-50.92
-53.39
-57.05
-62.93
-71.46
-82.15
-93.32
-102.28
-106.01
-102.05
-89.45
-69.16
-43.93
-17.45
6.78
26.29
40.09
48.48
52.56
53.65
52.96
51.41
49.69
48.29
47.48
47.37
47.84
48.63
49.4
49.94
50.17
50.2
50.23
50.41
50.79
51.2
51.32
50.73
49.09
46.21
42.13
37.14
31.67
26.27
21.41
17.4
14.17
11.38
8.52
5.18
1.26
-2.96
-6.93
-10.16
-12.46
-14.11
-15.77
-18.19
-21.91
-27.03
-33.16
-39.57
-45.48
-50.33
-54.03
-57.01
-60.05
-64.15
-70.17
-78.5
-88.77
-99.56
-108.54
-112.87
-110.06
-98.77
-79.52
-54.7
-27.88
-2.86
17.48
31.77
40.23
44.14
45.2
44.95
44.49
44.44
45.05
46.38
48.28
50.56
52.88
54.91
56.33
57.03
57.1
56.78
56.36
55.95
55.54
54.89
53.71
51.75
48.9
45.18
40.72
35.77
30.61
25.64
21.21
17.57
14.81
12.78
11.13
9.45
7.42
4.86
1.86
-1.34
-4.44
-7.27
-9.91
-12.67
-16.03
-20.39
-25.92
-32.4
-39.34
-46.06
-52.01
-56.85
-60.6
-63.63
-66.6
-70.36
-75.73
-83.15
-92.35
-102.0
-109.83
-113.06
-109.29
-97.31
-77.76
-53.01
-26.6
-2.15
17.58
31.27
39.09
42.25
42.38
41.04
39.38
38.13
37.69
38.2
39.54
41.48
43.65
45.64
47.14
48.06
48.57
49.02
49.72
50.79
52.0
52.78
52.51
50.7
47.33
42.82
37.85
33.15
29.09
25.66
22.49
19.14
15.37
11.28
7.25
3.7
0.84
-1.49
-3.77
-6.56
-10.29
-14.95
-20.2
-25.49
-30.3
-34.34
-37.73
-40.86
-44.41
-49.05
-55.4
-63.66
-73.38
-83.26
-91.18
-94.63
-91.47
-80.64
-62.77
-40.09
-15.82
6.72
24.96
37.66
44.82
47.43
46.83
44.34
40.97
37.4
34.06
31.24
29.24
28.28
28.53
29.93
32.22
34.98
37.78
40.27
42.18
43.37
43.69
43.05
41.35
38.56
34.77
30.11
24.82
19.16
13.42
7.87
2.76
-1.77
-5.69
-9.07
-12.06
-14.87
-17.71
-20.73
-23.99
-27.46
-30.99
-34.39
-37.56
-40.54
-43.63
-47.36
-52.38
-59.22
-67.94
-77.8
-87.15
-93.6
-94.64
-88.4
-74.44
-53.99
-29.68
-4.84
17.48
35.19
47.48
54.68
57.78
58.02
56.54
54.25
51.77
49.5
47.63
46.17
45.03
44.1
43.27
42.51
41.83
41.34
41.13
41.28
41.74
42.2
42.21
41.26
39.07
35.75
31.68
27.45
23.5
19.92
16.47
12.75
8.51
3.83
-0.94
-5.3
-8.95
-11.97
-14.79
-18.04
-22.21
-27.5
-33.66
-40.12
-46.28
-51.72
-56.41
-60.7
-65.3
-71.09
-78.82
-88.74
-100.2
-111.43
-119.75
-122.2
-116.47
-101.8
-79.42
-52.27
-24.14
1.4
21.9
36.36
45.05
49.1
49.91
48.89
47.2
45.75
45.12
45.49
46.68
48.27
49.78
50.89
51.48
51.68
51.75
51.91
52.33
53.04
53.92
54.74
55.13
54.74
53.32
50.84
47.47
43.54
39.4
35.27
31.23
27.27
23.35
19.52
15.89
12.53
9.47
6.57
3.64
0.48
-2.95
-6.51
-10.01
-13.27
-16.37
-19.63
-23.51
-28.41
-34.42
-41.26
-48.37
-55.16
-61.22
-66.48
-71.21
-75.99
-81.58
-88.75
-98.03
-109.18
-120.9
-130.8
-135.79
-133.06
-121.11
-100.43
-73.51
-44.14
-16.23
7.17
24.51
35.68
41.66
43.91
43.93
43.06
42.24
42.05
42.73
44.22
46.26
48.56
50.78
52.69
54.22
55.44
56.54
57.72
59.06
60.43
61.52
61.81
60.89
58.53
54.8
50.07
44.9
39.79
35.03
30.78
26.98
23.51
20.26
17.09
13.9
10.54
6.89
2.85
-1.48
-5.94
-10.27
-14.27
-17.9
-21.36
-24.96
-29.06
-33.9
-39.39
-45.19
-50.74
-55.52
-59.33
-62.31
-65.11
-68.67
-73.99
-81.72
-91.79
-103.02
-113.11
-119.07
-118.06
-108.31
-89.88
-64.78
-36.41
-8.57
15.57
34.12
46.55
53.41
55.82
55.12
52.62
49.54
46.8
45.06
44.5
44.98
46.09
47.4
48.6
49.62
50.52
51.51
52.77
54.3
55.88
57.11
57.4
56.28
53.53
49.34
44.24
38.93
34.01
29.82
26.29
23.13
20.0
16.69
13.16
9.59
6.2
3.15
0.46
-2.06
-4.69
-7.82
-11.68
-16.28
-21.43
-26.68
-31.55
-35.77
-39.45
-43.18
-47.84
-54.39
-63.4
-74.59
-86.67
-97.34
-103.76
-103.35
-94.57
-77.59
-54.33
-28.02
-2.22
20.01
36.86
47.84
53.58
55.29
54.26
51.63
48.23
44.58
41.1
38.17
36.15
35.38
36.0
37.87
40.54
43.43
45.95
47.75
48.73
48.9
48.36
47.05
44.89
41.8
37.85
33.27
28.43
23.66
19.14
14.89
10.81
6.8
2.77
-1.32
-5.56
-10.12
-15.24
-21.1
-27.67
-34.65
-41.53
-47.83
-53.24
-57.9
-62.39
-67.61
-74.6
-83.99
-95.53
-107.8
-118.18
-123.47
-120.85
-108.86
-88.15
-61.31
-32.21
-4.76
18.06
34.76
45.27
50.48
51.73
50.36
47.58
44.4
41.62
39.82
39.2
39.71
41.02
42.75
44.6
46.4
48.12
49.76
51.27
52.46
53.11
52.87
51.49
48.88
45.11
40.43
35.17
29.62
23.98
18.31
12.6
6.87
1.25
-4.08
-8.96
-13.36
-17.41
-21.42
-25.65
-30.26
-35.18
-40.11
-44.74
-48.83
-52.42
-55.86
-59.74
-64.78
-71.73
-81.0
-92.33
-104.38
-114.69
-120.11
-117.7
-105.87
-85.11
-58.1
-28.87
-1.59
20.63
36.43
46.04
50.74
52.13
51.72
50.68
49.82
49.67
50.49
52.18
54.41
56.65
58.4
59.37
59.57
59.37
59.24
59.6
60.56
61.83
62.81
62.76
61.09
57.61
52.6
46.66
40.57
34.94
30.07
25.89
22.04
18.01
13.49
8.5
3.38
-1.35
-5.33
-8.6
-11.6
-15.01
-19.41
-25.02
-31.51
-38.24
-44.54
-49.97
-54.64
-59.11
-64.29
-71.24
-80.76
-92.98
-106.93
-120.37
-130.08
-132.68
-125.73
-108.73
-83.47
-53.62
-23.59
2.71
22.89
36.37
43.93
47.16
47.81
47.25
46.45
45.98
46.06
46.66
47.6
48.6
49.36
49.7
49.57
49.13
48.7
48.61
49.04
49.9
50.74
50.88
49.72
46.91
42.59
37.26
31.67
26.51
22.17
18.71
15.9
13.42
10.92
8.28
5.51
2.76
0.1
-2.51
-5.37
-8.88
-13.33
-18.74
-24.76
-30.85
-36.49
-41.45
-45.97
-50.67
-56.4
-63.85
-73.33
-84.3
-95.32
-104.13
-108.11
-105.06
-93.92
-75.35
-51.61
-26.03
-1.96
17.98
32.47
41.5
45.97
47.2
46.49
44.89
43.15
41.76
41.01
41.05
41.87
43.31
45.09
46.84
48.29
49.26
49.81
50.08
50.19
50.07
49.36
47.52
44.03
38.72
31.9
24.39
17.24
11.34
7.11
4.23
1.91
-0.81
-4.59
-9.53
-15.11
-20.57
-25.22
-28.79
-31.6
-34.38
-38.12
-43.7
-51.55
-61.38
-71.99
-81.33
-86.94
-86.55
-78.75
-63.63
-42.85
-19.31
3.65
23.19
37.58
46.49
50.68
51.52
50.33
48.11
45.46
42.74
40.29
38.49
37.71
38.06
39.34
41.05
42.62
43.66
44.13
44.25
44.33
44.43
44.31
43.42
41.13
37.01
31.09
23.92
16.44
9.59
4.04
-0.21
-3.68
-7.2
-11.47
-16.66
-22.44
-28.08
-32.91
-36.64
-39.49
-42.14
-45.5
-50.52
-57.91
-67.87
-79.81
-92.12
-102.26
-107.31
-104.86
-93.91
-75.4
-52.01
-27.38
-4.91
13.13
25.92
33.96
38.51
40.95
42.41
43.6
44.83
46.14
47.48
48.7
49.64
50.16
50.17
49.66
48.72
47.56
46.45
45.63
45.13
44.77
44.08
42.55
39.82
35.83
31.0
25.98
21.47
17.91
15.35
13.45
11.62
9.37
6.44
2.93
-0.81
-4.38
-7.53
-10.31
-13.07
-16.27
-20.37
-25.54
-31.56
-37.92
-43.95
-49.13
-53.32
-56.83
-60.37
-64.86
-71.1
-79.43
-89.35
-99.39
-107.16
-109.96
-105.56
-93.09
-73.53
-49.57
-24.77
-2.53
14.88
26.76
33.8
37.43
39.19
40.21
41.13
42.25
43.63
45.27
47.07
48.77
50.05
50.59
50.3
49.36
48.15
47.08
46.48
46.41
46.69
46.96
46.83
46.0
44.31
41.8
38.65
35.18
31.7
28.49
25.68
23.3
21.2
19.2
17.11
14.77
12.11
9.17
5.99
2.68
-0.57
-3.64
-6.45
-9.03
-11.64
-14.61
-18.31
-22.98
-28.56
-34.68
-40.79
-46.25
-50.66
-54.05
-56.88
-59.97
-64.29
-70.56
-78.87
-88.5
-97.74
-104.18
-105.38
-99.58
-86.39
-67.05
-44.12
-20.83
-0.17
15.9
26.76
33.0
36.01
37.37
38.44
39.99
42.29
45.05
47.78
49.95
51.21
51.46
50.85
49.71
48.46
47.48
47.08
47.32
48.07
49.0
49.68
49.74
48.89
47.08
44.44
41.23
37.74
34.21
30.78
27.49
24.34
21.24
18.13
14.98
11.84
8.78
5.83
2.97
0.16
-2.67
-5.46
-8.17
-10.68
-13.06
-15.46
-18.19
-21.56
-25.75
-30.65
-35.91
-41.01
-45.44
-48.97
-51.76
-54.39
-57.76
-62.78
-70.04
-79.49
-90.13
-100.1
-106.96
-108.28
-102.44
-89.18
-69.88
-47.2
-24.38
-4.3
11.2
21.66
27.76
30.92
32.62
34.05
35.88
38.33
41.2
44.11
46.62
48.35
49.15
49.1
48.54
47.85
47.4
47.41
47.89
48.69
49.48
49.93
49.68
48.47
46.23
43.04
39.2
35.06
30.97
27.2
23.88
20.99
18.48
16.26
14.19
12.18
10.15
8.08
6.01
4.04
2.29
0.84
-0.36
-1.53
-3.03
-5.21
-8.29
-12.25
-16.77
-21.34
-25.51
-28.96
-31.81
-34.41
-37.36
-41.29
-46.64
-53.37
-60.84
-67.56
-71.5
-70.54
-63.15
-49.07
-29.53
-6.92
15.95
36.67
53.82
67.13
77.13
84.7
90.69
95.75
100.38
105.09
110.41
116.82
124.6
133.67
143.67
154.2
165.0
176.18
188.1
201.11
215.23
229.82
243.61
255.09
262.78
265.66
263.27
255.57
242.9
225.71
204.66
180.54
154.24
126.61
98.3
69.57
40.35
10.36
-20.52
-52.03
-83.43
-113.66
-141.61
-166.41
-187.59
-205.05
-219.09
-230.25
-239.16
-246.56
-253.08
-259.19
-265.04
-270.27
-273.9
-274.27
-269.41
-257.41
-237.16
-208.83
-174.14
-136.12
-98.43
-64.4
-36.2
-14.51
1.48
13.38
22.9
31.11
38.13
43.23
45.29
43.34
37.0
26.65
13.22
-2.06
-17.98
-33.4
-47.27
-58.77
-67.46
-73.61
-78.11
-82.33
-87.51
-94.34
-102.75
-112.09
-121.51
-130.34
-138.32
-145.5
-152.1
-158.27
-163.93
-168.77
-172.36
-174.23
-174.12
-172.11
-168.75
-165.06
-162.34
-161.76
-163.89
-168.14
-172.64
-174.45
-170.32
-157.8
-136.14
-106.81
-73.02
-38.81
-7.76
17.87
37.47
51.67
61.81
69.3
75.34
80.82
86.28
91.94
97.69
103.15
107.8
111.25
113.36
114.34
114.66
114.85
115.31
116.19
117.31
118.22
118.25
116.66
112.92
106.88
98.92
89.89
80.81
72.55
65.58
59.82
54.68
49.38
43.19
35.73
27.09
17.77
8.5
-0.03
-7.51
-14.17
-20.78
-28.37
-37.85
-49.37
-62.07
-73.97
-82.4
-84.8
-79.58
-66.71
-47.82
-25.72
-3.56
15.94
31.07
41.26
46.82
48.69
48.08
46.15
43.79
41.64
39.92
38.68
37.83
37.33
37.22
37.63
38.67
40.31
42.42
44.69
46.67
47.83
47.61
45.61
41.73
36.23
29.62
22.49
15.29
8.24
1.31
-5.61
-12.5
-19.18
-25.4
-31.0
-36.0
-40.72
-45.69
-51.55
-58.92
-68.22
-79.39
-91.48
-102.54
-109.87
-110.75
-103.3
-87.34
-64.64
-38.42
-12.42
10.24
27.69
39.58
46.68
50.32
51.87
52.48
52.95
53.73
54.99
56.65
58.43
59.99
61.02
61.43
61.31
61.03
60.95
61.32
62.0
62.51
62.13
60.21
56.43
50.95
44.41
37.55
30.96
24.83
18.93
12.81
6.15
-1.11
-8.65
-15.92
-22.41
-27.87
-32.44
-36.64
-41.3
-47.31
-55.36
-65.6
-77.24
-88.51
-96.77
-99.16
-93.47
-78.92
-56.7
-29.65
-1.59
23.81
43.93
57.63
65.29
68.21
68.09
66.44
64.37
62.55
61.28
60.7
60.88
61.81
63.43
65.62
68.14
70.75
73.24
75.53
77.62
79.6
81.44
82.99
84.02
84.24
83.46
81.58
78.57
74.48
69.32
63.1
55.85
47.66
38.7
29.22
19.46
9.69
0.1
-9.2
-18.16
-26.72
-34.81
-42.27
-48.97
-54.93
-60.47
-66.26
-73.18
-82.08
-93.3
-106.29
-119.39
-130.04
-135.35
-132.93
-121.82
-102.84
-78.58
-52.65
-28.64
-9.17
4.63
13.0
17.09
18.29
17.77
16.38
14.76
13.4
12.69
12.87
13.97
15.76
17.91
20.09
22.13
24.11
26.16
28.4
30.77
32.95
34.44
34.78
33.72
31.36
28.12
24.55
21.09
17.93
14.96
12.0
8.94
5.85
2.99
0.59
-1.28
-2.89
-4.87
-8.11
-13.53
-21.73
-32.5
-44.67
-56.04
-63.9
-65.75
-60.12
-47.17
-28.63
-7.43
13.24
30.8
43.78
51.91
55.82
56.48
54.79
51.33
46.44
40.5
34.11
28.15
23.6
21.23
21.15
22.83
25.19
27.07
27.62
26.58
24.24
21.14
17.74
14.12
9.95
4.72
-1.99
-10.2
-19.5
-29.13
-38.24
-46.14
-52.58
-57.79
-62.42
-67.35
-73.49
-81.59
-91.86
-103.68
-115.37
-124.33
-127.58
-122.68
-108.72
-86.9
-60.28
-32.92
-8.65
10.02
22.32
29.06
31.88
32.56
32.52
32.62
33.3
34.66
36.59
38.88
41.22
43.25
44.73
45.56
45.83
45.69
45.29
44.65
43.67
42.21
40.05
37.03
33.07
28.06
21.89
14.52
6.0
-3.32
-12.89
-21.96
-29.84
-36.09
-40.7
-44.17
-47.41
-51.45
-57.31
-65.58
-76.13
-87.89
-98.71
-105.76
-106.15
-97.95
-80.87
-56.63
-28.46
-0.27
24.52
43.64
56.37
63.21
65.47
64.71
62.44
59.85
57.75
56.55
56.33
56.93
58.13
59.6
61.07
62.24
62.85
62.79
62.13
61.05
59.78
58.32
56.47
53.7
49.43
43.35
35.58
26.76
17.87
9.9
3.57
-1.02
-4.35
-7.31
-10.82
-15.44
-21.17
-27.52
-33.79
-39.45
-44.36
-48.84
-53.55
-59.37
-67.1
-77.19
-89.45
-102.66
-114.49
-121.87
-121.74
-112.17
-93.25
-67.22
-37.91
-9.5
14.63
32.68
44.48
51.05
53.89
54.49
54.07
53.5
53.35
53.91
55.2
56.94
58.73
60.17
61.06
61.35
61.25
61.04
61.04
61.4
62.08
62.81
63.08
62.3
60.02
56.06
50.64
44.41
38.13
32.53
28.0
24.42
21.38
18.22
14.47
9.99
5.04
0.21
-3.89
-6.92
-8.95
-10.63
-12.81
-16.3
-21.47
-28.09
-35.39
-42.46
-48.56
-53.47
-57.57
-61.77
-67.19
-74.84
-85.16
-97.65
-110.63
-121.29
-126.33
-122.85
-109.43
-86.79
-57.69
-26.25
3.33
27.79
45.54
56.59
62.11
63.72
62.96
60.99
58.52
56.01
53.72
51.87
50.65
50.13
50.3
50.94
51.76
52.47
52.86
52.91
52.68
52.24
51.54
50.35
48.29
44.98
40.16
33.91
26.67
19.19
12.29
6.57
2.16
-1.31
-4.56
-8.31
-12.94
-18.29
-23.78
-28.69
-32.55
-35.36
-37.56
-39.91
-43.16
-47.95
-54.71
-63.59
-74.21
-85.37
-95.01
-100.43
-99.04
-89.28
-71.31
-47.21
-20.42
5.32
27.0
43.0
53.18
58.35
59.75
58.57
55.65
51.67
47.2
42.85
39.21
36.77
35.75
36.03
37.24
38.9
40.57
42.03
43.16
43.89
44.14
43.73
42.47
40.17
36.76
32.25
26.82
20.76
14.51
8.59
3.47
-0.61
-3.72
-6.3
-8.92
-12.16
-16.34
-21.45
-27.15
-32.94
-38.37
-43.16
-47.27
-51.0
-54.85
-59.54
-65.76
-74.0
-84.15
-95.2
-105.17
-111.3
-110.81
-101.77
-83.92
-58.97
-30.25
-1.8
22.79
41.28
53.0
58.72
59.93
58.3
55.18
51.57
48.17
45.52
43.94
43.57
44.26
45.63
47.17
48.45
49.21
49.51
49.6
49.74
50.04
50.35
50.23
49.22
46.93
43.3
38.57
33.26
27.95
23.1
18.91
15.28
11.87
8.33
4.39
0.07
-4.38
-8.56
-12.13
-14.98
-17.34
-19.69
-22.61
-26.49
-31.46
-37.27
-43.4
-49.29
-54.49
-58.91
-62.88
-67.15
-72.76
-80.63
-91.06
-103.28
-115.22
-123.79
-125.74
-118.68
-102.0
-77.24
-47.79
-17.83
8.79
29.46
43.25
50.67
53.05
52.04
49.14
45.57
42.26
39.86
38.72
38.9
40.16
42.06
44.17
46.22
48.09
49.87
51.65
53.51
55.44
57.29
58.82
59.66
59.34
57.46
53.88
48.79
42.77
36.59
30.97
26.31
22.54
19.2
15.67
11.49
6.46
0.78
-5.05
-10.51
-15.14
-18.83
-21.83
-24.65
-27.84
-31.77
-36.4
-41.37
-46.08
-49.99
-52.89
-54.96
-56.81
-59.24
-63.15
-69.22
-77.65
-87.85
-98.22
-106.32
-109.26
-104.63
-91.34
-70.18
-43.8
-15.92
9.74
30.43
44.89
53.26
56.55
56.1
53.22
49.01
44.43
40.32
37.33
35.8
35.66
36.55
37.99
39.59
41.15
42.72
44.37
46.1
47.71
48.78
48.82
47.43
44.47
40.14
34.94
29.52
24.37
19.75
15.63
11.77
7.93
4.05
0.27
-3.11
-5.88
-8.04
-9.86
-11.78
-14.18
-17.31
-21.14
-25.41
-29.8
-34.01
-37.92
-41.57
-45.28
-49.58
-55.17
-62.59
-71.85
-81.96
-90.86
-95.75
-93.91
-83.77
-65.6
-41.62
-15.33
9.55
30.18
45.11
54.28
58.41
58.53
55.61
50.53
44.16
37.46
31.44
26.92
24.35
23.73
24.67
26.6
28.93
31.19
33.14
34.67
35.83
36.6
36.9
36.47
35.01
32.27
28.23
23.08
17.26
11.24
5.43
0.05
-4.88
-9.57
-14.36
-19.6
-25.61
-32.48
-40.03
-47.83
-55.28
-61.85
-67.28
-71.69
-75.63
-79.92
-85.51
-93.05
-102.47
-112.76
-121.75
-126.58
-124.44
-113.51
-93.78
-67.19
-37.22
-7.89
17.44
36.71
49.47
56.44
58.96
58.39
55.91
52.43
48.7
45.31
42.66
40.95
40.16
40.15
40.8
42.01
43.64
45.52
47.38
48.93
49.93
50.28
49.93
48.82
46.82
43.73
39.45
34.08
27.94
21.51
15.28
9.58
4.54
0.05
-4.18
-8.47
-13.08
-18.16
-23.62
-29.22
-34.68
-39.8
-44.52
-48.98
-53.49
-58.51
-64.63
-72.41
-82.12
-93.36
-104.66
-113.51
-116.89
-112.15
-98.13
-75.72
-47.73
-18.07
9.35
31.73
47.76
57.57
62.17
62.97
61.39
58.65
55.7
53.26
51.76
51.32
51.82
52.91
54.21
55.36
56.13
56.44
56.37
56.03
55.44
54.45
52.77
50.07
46.23
41.42
36.13
30.88
26.12
21.95
18.21
14.59
10.92
7.2
3.63
0.38
-2.58
-5.57
-9.15
-13.82
-19.83
-26.93
-34.58
-42.05
-48.79
-54.64
-59.92
-65.3
-71.63
-79.65
-89.69
-101.33
-113.16
-122.86
-127.53
-124.53
-112.4
-91.53
-64.28
-34.44
-6.04
17.69
35.06
45.92
51.31
52.8
51.94
49.97
47.77
45.89
44.65
44.11
44.23
44.89
45.91
47.24
48.82
50.61
52.61
54.72
56.77
58.5
59.55
59.54
58.22
55.53
51.64
46.94
41.82
36.57
31.35
26.23
21.22
16.45
12.08
8.21
4.72
1.33
-2.35
-6.67
-11.69
-17.22
-22.88
-28.32
-33.36
-38.06
-42.74
-47.84
-53.93
-61.54
-70.89
-81.59
-92.31
-100.74
-104.1
-99.99
-87.37
-67.13
-41.96
-15.58
8.45
27.68
41.17
49.34
53.35
54.62
54.34
53.41
52.44
51.82
51.72
52.08
52.75
53.59
54.5
55.47
56.55
57.79
59.25
60.89
62.67
64.32
65.4
65.29
63.33
59.12
52.68
44.51
35.51
26.63
18.6
11.77
6.06
1.13
-3.47
-8.09
-12.97
-18.16
-23.5
-28.79
-33.74
-38.12
-41.84
-45.05
-48.15
-51.71
-56.45
-62.94
-71.35
-81.1
-90.67
-97.72
-99.62
-94.27
-80.95
-60.73
-36.29
-11.11
11.57
29.57
42.1
49.57
52.9
53.17
51.22
47.8
43.63
39.56
36.4
34.71
34.65
35.95
38.0
40.18
42.08
43.59
44.88
46.15
47.43
48.45
48.6
47.22
43.83
38.42
31.56
24.21
17.4
11.78
7.41
3.72
-0.16
-4.98
-11.03
-18.0
-25.15
-31.68
-37.12
-41.53
-45.51
-50.02
-56.04
-64.28
-74.7
-86.35
-97.22
-104.64
-105.9
-99.1
-84.02
-62.31
-37.13
-12.18
9.31
25.44
35.77
41.06
42.66
41.85
39.65
36.74
33.61
30.72
28.48
27.21
27.12
28.19
30.24
32.97
35.98
38.86
41.25
42.88
43.67
43.63
42.83
41.33
39.11
36.06
32.03
27.02
21.22
15.09
9.13
3.69
-1.17
-5.77
-10.63
-16.2
-22.61
-29.61
-36.68
-43.24
-48.91
-53.61
-57.57
-61.23
-65.23
-70.21
-76.81
-85.44
-95.91
-107.13
-116.99
-122.71
-121.5
-111.63
-93.19
-68.31
-40.57
-13.88
8.71
25.69
37.1
44.02
47.83
49.7
50.46
50.71
50.93
51.55
52.87
54.92
57.42
59.94
62.1
63.71
64.86
65.87
66.98
68.25
69.45
70.11
69.68
67.81
64.44
59.83
54.44
48.8
43.35
38.39
34.03
30.28
27.04
24.13
21.39
18.65
15.8
12.79
9.62
6.33
3.0
-0.26
-3.34
-6.21
-9.01
-12.11
-15.95
-20.93
-27.1
-34.13
-41.37
-48.12
-53.95
-58.9
-63.5
-68.6
-75.12
-83.75
-94.56
-106.77
-118.56
-127.2
-129.69
-123.59
-107.95
-83.97
-54.74
-24.36
3.18
25.18
40.58
49.89
54.54
56.12
55.98
55.02
53.82
52.71
51.98
51.7
51.84
52.24
52.67
52.95
53.07
53.17
53.42
53.94
54.66
55.28
55.37
54.52
52.51
49.33
45.15
40.29
35.06
29.78
24.73
20.09
16.04
12.63
9.75
7.22
4.8
2.28
-0.42
-3.27
-6.17
-9.03
-11.81
-14.57
-17.48
-20.73
-24.56
-29.01
-34.0
-39.22
-44.27
-48.74
-52.46
-55.63
-58.8
-62.8
-68.47
-76.43
-86.6
-97.98
-108.54
-115.52
-116.09
-108.28
-91.79
-68.2
-40.73
-13.22
10.84
29.24
41.31
47.69
49.78
49.13
47.05
44.52
42.2
40.5
39.67
39.75
40.67
42.23
44.1
46.1
48.16
50.36
52.81
55.55
58.34
60.67
61.95
61.71
59.83
56.53
52.32
47.75
43.18
38.7
34.23
29.59
24.72
19.64
14.52
9.52
4.7
0.01
-4.76
-9.87
-15.51
-21.7
-28.17
-34.55
-40.39
-45.47
-49.92
-54.28
-59.32
-65.98
-74.85
-85.81
-97.68
-108.17
-114.36
-113.54
-104.1
-86.26
-62.15
-35.18
-8.96
13.58
30.89
42.76
49.91
53.38
54.18
53.07
50.72
47.76
44.88
42.71
41.67
41.97
43.55
46.18
49.55
53.15
56.38
58.49
58.8
56.96
53.12
47.89
42.18
36.78
32.13
28.19
24.77
21.65
18.9
16.64
14.9
13.49
11.93
9.78
6.89
3.48
-0.05
-3.33
-6.37
-9.52
-13.34
-18.14
-23.84
-29.92
-35.78
-41.09
-46.02
-51.33
-58.11
-67.27
-79.19
-93.26
-107.79
-120.11
-127.08
-125.95
-115.2
-95.19
-68.32
-38.45
-9.82
14.04
31.19
41.47
46.11
46.98
45.92
44.27
42.7
41.5
40.69
40.27
40.35
41.0
42.21
43.84
45.68
47.5
49.21
50.77
52.11
53.11
53.56
53.18
51.79
49.3
45.82
41.59
36.92
32.19
27.72
23.78
20.49
17.77
15.4
13.06
10.41
7.26
3.63
-0.29
-4.12
-7.52
-10.28
-12.5
-14.64
-17.31
-21.17
-26.53
-33.23
-40.69
-48.12
-54.86
-60.67
-65.81
-71.0
-77.19
-85.27
-95.74
-108.34
-121.66
-133.18
-139.6
-137.78
-125.74
-103.67
-74.0
-40.87
-8.84
18.39
38.79
52.16
59.51
62.39
62.29
60.41
57.68
54.86
52.56
51.19
50.82
51.26
52.12
53.09
54.02
55.0
56.25
57.97
60.07
62.25
63.92
64.42
63.23
60.08
55.15
48.93
42.22
35.79
30.23
25.73
22.16
19.08
16.01
12.57
8.59
4.15
-0.53
-5.13
-9.34
-12.95
-15.92
-18.43
-20.94
-24.03
-28.18
-33.57
-39.94
-46.67
-52.98
-58.27
-62.42
-65.85
-69.47
-74.45
-81.86
-92.18
-104.85
-118.0
-128.58
-133.03
-128.34
-113.1
-88.2
-56.82
-23.41
7.54
32.69
50.53
61.22
66.08
66.8
64.89
61.51
57.52
53.6
50.31
48.05
47.02
47.12
48.08
49.54
51.2
52.9
54.56
56.09
57.33
58.04
57.94
56.82
54.6
51.37
47.25
42.37
36.86
30.83
24.49
18.13
12.12
6.76
2.1
-2.11
-6.32
-11.01
-16.41
-22.43
-28.68
-34.68
-40.01
-44.53
-48.45
-52.23
-56.62
-62.41
-70.39
-80.94
-93.66
-107.04
-118.43
-124.54
-122.35
-110.14
-88.32
-59.4
-27.4
3.43
29.66
49.42
62.4
69.41
71.7
70.52
66.96
61.98
56.52
51.5
47.66
45.45
44.9
45.69
47.32
49.27
51.16
52.77
53.95
54.66
54.77
54.12
52.51
49.71
45.63
40.27
33.83
26.68
19.23
11.92
5.07
-1.16
-6.78
-11.94
-16.94
-22.12
-27.81
-34.22
-41.31
-48.71
-55.87
-62.24
-67.5
-71.84
-75.95
-80.9
-87.86
-97.59
-109.98
-123.68
-136.02
-143.47
-142.53
-130.86
-108.24
-76.92
-41.02
-5.42
25.68
49.67
65.82
74.9
78.38
77.87
74.76
70.25
65.36
60.98
57.77
56.05
55.69
56.29
57.39
58.6
59.89
61.37
63.2
65.33
67.39
68.77
68.78
66.95
63.16
57.73
51.26
44.36
37.54
31.0
24.7
18.48
12.23
5.95
-0.22
-6.05
-11.41
-16.32
-21.17
-26.49
-32.79
-40.24
-48.57
-57.1
-65.02
-71.73
-77.12
-81.71
-86.53
-92.9
-101.94
-114.12
-128.68
-143.33
-154.48
-158.01
-150.65
-131.2
-101.19
-64.6
-26.63
7.84
35.47
54.98
66.84
72.57
73.94
72.53
69.64
66.36
63.58
61.93
61.61
62.43
63.92
65.53
66.91
68.01
69.08
70.39
72.11
74.05
75.74
76.52
75.72
72.95
68.11
61.56
53.97
46.24
39.2
33.36
28.78
24.98
21.21
16.8
11.42
5.26
-1.05
-6.82
-11.66
-15.64
-19.4
-23.74
-29.34
-36.42
-44.61
-53.13
-61.09
-67.84
-73.25
-77.82
-82.61
-88.93
-97.99
-110.28
-125.11
-140.26
-152.11
-156.51
-149.99
-131.14
-101.25
-64.27
-25.55
9.7
37.82
57.3
68.65
73.53
74.0
71.87
68.52
64.99
62.02
60.09
59.35
59.63
60.57
61.82
63.12
64.45
65.94
67.69
69.73
71.86
73.69
74.71
74.46
72.61
69.09
64.1
58.04
51.48
44.99
39.04
33.89
29.58
25.9
22.51
19.05
15.27
11.08
6.61
2.11
-2.15
-6.01
-9.45
-12.66
-15.99
-19.89
-24.77
-30.82
-37.89
-45.45
-52.72
-58.98
-63.85
-67.53
-70.89
-75.16
-81.63
-91.1
-103.43
-117.11
-129.31
-136.38
-134.76
-122.21
-98.75
-66.96
-31.29
3.15
32.11
53.15
65.88
71.48
71.78
68.62
63.43
57.31
51.11
45.67
41.66
39.5
39.26
40.58
42.89
45.67
48.56
51.5
54.47
57.41
59.95
61.53
61.5
59.49
55.56
50.2
44.08
37.81
31.64
25.51
19.24
12.72
6.12
-0.18
-5.82
-10.67
-14.98
-19.31
-24.24
-30.11
-36.87
-44.04
-50.99
-57.15
-62.31
-66.63
-70.75
-75.59
-82.22
-91.52
-103.61
-117.5
-130.67
-139.52
-140.2
-129.92
-108.16
-77.03
-40.83
-4.77
26.59
50.44
66.02
74.22
76.77
75.55
72.18
67.92
63.75
60.41
58.33
57.59
57.94
58.9
59.95
60.73
61.12
61.26
61.47
62.03
62.98
63.94
64.2
62.96
59.71
54.48
47.94
41.05
34.69
29.24
24.5
19.85
14.66
8.67
2.1
-4.44
-10.38
-15.43
-19.74
-23.86
-28.49
-34.15
-40.95
-48.56
-56.32
-63.52
-69.65
-74.67
-79.08
-83.87
-90.32
-99.54
-111.95
-126.58
-140.85
-150.86
-152.38
-142.24
-119.64
-86.67
-47.85
-8.77
25.55
51.91
69.34
78.71
81.91
80.97
77.69
73.42
69.16
65.65
63.32
62.28
62.33
63.04
63.97
64.74
65.32
65.8
66.49
67.61
69.16
70.87
72.2
72.46
71.01
67.54
62.14
55.44
48.33
41.71
36.2
31.9
28.46
25.24
21.61
17.18
11.93
6.14
0.27
-5.29
-10.32
-14.9
-19.41
-24.39
-30.38
-37.61
-45.88
-54.61
-62.98
-70.29
-76.19
-80.87
-85.02
-89.78
-96.44
-106.05
-118.77
-133.38
-147.0
-155.51
-154.72
-141.79
-116.5
-81.55
-41.85
-3.02
30.26
55.29
71.51
79.94
82.39
80.75
76.69
71.67
66.95
63.49
61.81
61.84
63.02
64.56
65.76
66.34
66.46
66.55
67.02
68.01
69.24
70.14
70.04
68.43
65.18
60.5
54.9
48.91
43.01
37.46
32.35
27.6
23.12
18.82
14.7
10.83
7.21
3.8
0.46
-3.08
-6.98
-11.3
-15.83
-20.26
-24.25
-27.71
-30.89
-34.35
-38.69
-44.26
-50.99
-58.32
-65.48
-71.74
-76.78
-80.85
-84.8
-89.84
-97.18
-107.65
-121.1
-136.0
-149.34
-157.1
-155.38
-141.66
-115.99
-81.17
-42.1
-4.33
27.59
51.14
65.98
73.39
75.34
73.75
70.09
65.47
60.73
56.65
53.84
52.64
53.0
54.52
56.64
58.85
60.89
62.76
64.62
66.61
68.63
70.37
71.32
70.96
68.89
65.02
59.5
52.82
45.68
38.82
32.87
28.12
24.4
21.14
17.68
13.46
8.28
2.39
-3.61
-9.04
-13.47
-16.9
-19.76
-22.76
-26.59
-31.66
-37.86
-44.66
-51.3
-57.1
-61.78
-65.56
-69.17
-73.62
-80.03
-89.28
-101.58
-116.06
-130.53
-141.59
-145.38
-138.74
-120.36
-91.58
-56.06
-18.88
15.11
42.49
61.79
73.33
78.37
78.45
74.96
69.08
61.98
54.79
48.66
44.4
42.35
42.39
44.01
46.58
49.55
52.57
55.5
58.34
61.05
63.45
65.12
65.47
63.94
60.25
54.55
47.49
40.03
33.15
27.58
23.55
20.76
18.54
16.04
12.55
7.8
1.94
-4.43
-10.49
-15.59
-19.56
-22.78
-26.07
-30.33
-36.1
-43.31
-51.37
-59.36
-66.47
-72.33
-77.19
-81.79
-87.25
-94.79
-105.33
-119.01
-134.72
-149.86
-160.61
-162.83
-153.32
-131.13
-98.16
-58.67
-18.21
18.05
46.55
65.89
76.58
80.32
79.26
75.39
70.38
65.44
61.44
58.86
57.77
57.96
58.95
60.27
61.58
62.78
64.0
65.46
67.36
69.61
71.88
73.53
73.84
72.29
68.72
63.43
57.06
50.32
43.84
37.93
32.61
27.72
23.1
18.75
14.8
11.5
9.02
7.33
6.13
4.86
2.96
0.1
-3.65
-7.75
-11.53
-14.5
-16.77
-19.01
-22.22
-27.24
-34.25
-42.72
-51.66
-60.09
-67.54
-74.16
-80.65
-88.02
-97.26
-109.11
-123.76
-140.3
-156.49
-168.7
-172.7
-164.96
-144.05
-111.57
-71.82
-30.61
6.59
36.05
56.37
68.17
73.2
73.49
70.84
66.71
62.25
58.39
55.74
54.48
54.29
54.59
54.73
54.37
53.58
52.81
52.66
53.58
55.59
58.27
60.85
62.45
62.42
60.47
56.76
51.79
46.26
40.85
36.05
32.02
28.62
25.55
22.46
19.19
15.85
12.78
10.33
8.7
7.69
6.79
5.32
2.69
-1.23
-6.11
-11.3
-16.1
-20.17
-23.65
-27.22
-31.69
-37.61
-45.04
-53.4
-61.83
-69.45
-75.8
-80.98
-85.68
-90.97
-98.02
-107.8
-120.6
-135.55
-150.35
-161.34
-164.31
-155.86
-134.62
-102.18
-62.7
-21.8
15.18
44.57
64.95
76.83
81.83
81.9
78.82
74.16
69.27
65.34
63.1
62.76
63.92
65.81
67.66
69.02
69.86
70.52
71.42
72.78
74.5
76.13
77.1
76.91
75.24
72.09
67.7
62.43
56.69
50.83
45.09
39.6
34.35
29.33
24.53
20.0
15.83
12.09
8.68
5.37
1.78
-2.4
-7.21
-12.39
-17.56
-22.4
-26.96
-31.61
-36.91
-43.28
-50.75
-58.84
-66.74
-73.62
-79.0
-82.99
-86.3
-90.1
-95.69
-104.02
-115.14
-127.78
-139.21
-145.69
-143.53
-130.35
-106.12
-73.38
-36.53
-0.6
30.22
53.46
68.54
76.25
78.14
75.94
71.26
65.54
60.01
55.53
52.59
51.22
51.17
52.03
53.39
55.0
56.75
58.63
60.7
62.96
65.26
67.31
68.68
68.85
67.36
64.01
58.95
52.7
46.02
39.73
34.38
30.12
26.62
23.25
19.39
14.73
9.4
3.99
-0.82
-4.53
-7.1
-9.03
-11.18
-14.43
-19.36
-26.03
-33.92
-42.2
-49.95
-56.53
-61.82
-66.26
-70.79
-76.61
-84.76
-95.7
-108.87
-122.36
-133.12
-137.46
-132.26
-116.01
-89.57
-56.12
-20.22
13.45
41.43
61.98
75.08
81.76
83.38
81.26
76.58
70.45
64.02
58.36
54.19
51.74
50.77
50.78
51.3
52.13
53.34
55.14
57.6
60.53
63.42
65.51
65.95
64.0
59.26
51.83
42.43
32.23
22.54
14.34
8.03
3.29
-0.62
-4.46
-8.62
-13.05
-17.4
-21.4
-25.17
-29.11
-33.82
-39.66
-46.63
-54.24
-61.77
-68.53
-74.16
-78.84
-83.3
-88.68
-96.17
-106.44
-119.11
-132.39
-143.12
-147.49
-142.24
-125.76
-98.94
-65.0
-28.63
5.42
33.5
53.76
66.1
71.64
72.1
69.27
64.68
59.57
54.87
51.19
48.83
47.77
47.75
48.34
49.1
49.75
50.27
50.94
52.09
53.88
56.07
57.92
58.47
56.97
53.09
47.23
40.27
33.25
26.98
21.71
17.19
12.79
7.83
1.96
-4.77
-11.9
-18.77
-24.8
-29.74
-33.8
-37.61
-41.9
-47.26
-53.82
-61.19
-68.58
-75.15
-80.36
-84.27
-87.63
-91.69
-97.89
-107.33
-120.2
-135.31
-149.91
-160.1
-161.87
-152.38
-131.09
-100.11
-63.75
-27.12
5.31
30.75
48.38
58.96
64.11
65.63
65.12
63.89
62.93
62.83
63.8
65.62
67.77
69.67
70.94
71.47
71.48
71.39
71.59
72.25
73.27
74.27
74.72
74.11
72.07
68.48
63.46
57.39
50.8
44.31
38.43
33.41
29.26
25.64
22.04
17.97
13.2
7.88
2.49
-2.39
-6.34
-9.41
-12.09
-15.2
-19.47
-25.3
-32.5
-40.46
-48.33
-55.41
-61.33
-66.25
-70.77
-75.82
-82.49
-91.66
-103.63
-117.59
-131.43
-141.87
-145.22
-138.61
-121.05
-94.03
-61.18
-27.18
3.59
28.13
45.22
55.31
59.81
60.56
59.28
57.43
56.08
55.75
56.5
57.99
59.72
61.27
62.39
63.09
63.48
63.74
64.02
64.45
65.06
65.77
66.26
65.99
64.42
61.2
56.46
50.73
44.81
39.44
35.05
31.63
28.95
26.75
24.89
23.38
22.16
21.06
19.65
17.59
14.68
11.09
7.21
3.46
-0.0
-3.37
-7.14
-11.84
-17.72
-24.63
-32.06
-39.32
-45.87
-51.46
-56.24
-60.73
-65.7
-72.08
-80.64
-91.56
-104.01
-115.86
-123.91
-124.76
-115.98
-97.16
-70.27
-39.21
-8.49
18.06
38.25
51.65
59.18
62.32
62.56
61.13
58.92
56.66
54.91
54.02
54.1
55.02
56.51
58.27
60.08
61.8
63.43
64.96
66.29
67.21
67.43
66.65
64.71
61.6
57.52
52.78
47.74
42.69
37.94
33.67
29.99
26.84
24.11
21.48
18.65
15.39
11.62
7.43
3.06
-1.17
-5.03
-8.47
-11.72
-15.16
-19.27
-24.38
-30.56
-37.48
-44.65
-51.47
-57.59
-63.1
-68.49
-74.59
-82.3
-92.26
-104.36
-117.47
-129.31
-136.76
-136.7
-126.95
-107.19
-79.31
-46.92
-14.39
14.31
36.57
51.49
59.61
62.38
61.59
58.91
55.68
52.89
51.12
50.61
51.28
52.81
54.74
56.56
57.92
58.75
59.27
59.8
60.67
61.88
63.1
63.76
63.3
61.37
58.03
53.65
48.82
44.08
39.77
35.95
32.45
29.02
25.48
21.9
18.47
15.45
12.95
10.85
8.78
6.38
3.39
-0.18
-4.03
-7.8
-11.25
-14.4
-17.6
-21.34
-26.09
-32.0
-38.95
-46.39
-53.7
-60.32
-66.05
-71.13
-76.21
-82.26
-90.17
-100.37
-112.39
-124.59
-134.24
-138.07
-133.31
-118.66
-94.92
-64.94
-32.86
-2.8
22.04
40.08
51.34
56.9
58.39
57.46
55.58
53.84
52.94
53.15
54.38
56.26
58.32
60.14
61.41
62.05
62.11
61.82
61.49
61.4
61.64
62.0
61.99
61.01
58.52
54.39
48.99
43.02
37.32
32.51
28.83
26.02
23.6
21.08
18.2
15.07
12.06
9.56
7.81
6.69
5.81
4.62
2.65
-0.27
-3.94
-7.91
-11.68
-14.95
-17.79
-20.61
-24.01
-28.52
-34.36
-41.31
-48.82
-56.12
-62.58
-67.9
-72.28
-76.43
-81.41
-88.25
-97.56
-109.02
-121.07
-130.98
-135.43
-131.45
-117.48
-94.06
-63.88
-31.07
0.04
26.04
45.16
57.23
63.32
65.05
64.11
62.0
59.9
58.63
58.61
59.81
61.83
64.1
66.03
67.27
67.73
67.63
67.34
67.28
67.66
68.45
69.31
69.65
68.84
66.46
62.43
57.15
51.28
45.57
40.51
36.26
32.63
29.26
25.93
22.59
19.42
16.66
14.38
12.45
10.49
8.1
5.03
1.27
-2.88
-7.06
-10.91
-14.35
-17.63
-21.2
-25.53
-30.81
-36.87
-43.2
-49.19
-54.36
-58.69
-62.49
-66.54
-71.73
-78.85
-88.32
-99.79
-111.94
-122.48
-128.45
-127.02
-116.45
-96.79
-70.1
-39.99
-10.56
14.74
33.8
46.14
52.5
54.31
53.05
50.03
46.3
42.72
39.92
38.28
37.94
38.71
40.23
42.1
44.06
45.99
47.94
49.99
52.12
54.13
55.65
56.21
55.42
53.11
49.37
44.57
39.23
33.92
29.09
25.01
21.72
19.09
16.91
14.91
12.83
10.5
7.8
4.74
1.43
-1.9
-5.02
-7.82
-10.42
-13.2
-16.68
-21.26
-26.95
-33.36
-39.77
-45.49
-50.17
-53.98
-57.54
-61.75
-67.45
-75.16
-84.8
-95.52
-105.52
-112.35
-113.39
-106.63
-91.46
-69.07
-42.15
-14.29
11.1
31.57
45.96
54.32
57.56
56.92
53.69
49.03
43.92
39.11
35.09
32.16
30.35
29.64
29.87
30.91
32.63
34.93
37.67
40.65
43.61
46.14
47.75
47.94
46.42
43.2
38.66
33.45
28.15
23.12
18.39
13.68
8.73
3.52
-1.69
-6.45
-10.48
-13.81
-16.84
-20.2
-24.43
-29.74
-35.92
-42.42
-48.69
-54.27
-59.1
-63.53
-68.25
-74.12
-81.96
-92.07
-103.84
-115.56
-124.48
-127.51
-122.14
-107.36
-84.24
-55.73
-25.76
1.83
24.31
40.44
50.32
54.89
55.37
53.02
49.0
44.42
40.36
37.6
36.55
37.03
38.51
40.29
41.85
42.98
43.89
44.93
46.34
48.11
49.85
50.93
50.72
48.85
45.36
40.69
35.53
30.57
26.28
22.71
19.58
16.47
12.95
8.84
4.3
-0.3
-4.53
-8.26
-11.62
-15.11
-19.34
-24.7
-31.2
-38.43
-45.72
-52.46
-58.29
-63.27
-67.83
-72.73
-78.87
-86.98
-97.2
-108.62
-119.07
-125.51
-124.8
-114.87
-95.65
-69.34
-39.75
-11.15
13.02
30.93
42.45
48.63
51.0
50.98
49.75
48.21
47.02
46.71
47.49
49.27
51.7
54.3
56.71
58.78
60.62
62.4
64.27
66.18
67.88
69.0
69.17
68.15
65.91
62.64
58.65
54.36
50.11
46.11
42.39
38.76
35.05
31.13
26.97
22.66
18.32
13.99
9.59
4.97
0.02
-5.22
-10.51
-15.58
-20.25
-24.59
-28.94
-33.72
-39.21
-45.37
-51.77
-57.83
-63.04
-67.25
-70.81
-74.45
-79.15
-85.87
-95.18
-106.91
-119.8
-131.39
-138.46
-137.81
-127.37
-107.06
-79.1
-47.4
-16.47
9.94
29.66
42.32
48.93
51.14
50.7
49.03
47.16
45.76
45.16
45.5
46.68
48.44
50.46
52.44
54.19
55.67
57.04
58.51
60.23
62.13
63.86
64.86
64.58
62.73
59.45
55.17
50.52
46.01
41.92
38.25
34.84
31.51
28.19
24.9
21.76
18.84
16.09
13.35
10.35
6.84
2.7
-1.89
-6.58
-10.96
-14.8
-18.24
-21.72
-25.83
-30.98
-37.2
-44.04
-50.82
-56.88
-61.84
-65.83
-69.43
-73.53
-79.14
-86.99
-97.26
-109.18
-120.88
-129.52
-131.95
-125.65
-109.66
-85.13
-55.14
-23.86
4.62
27.39
43.15
52.19
55.85
55.86
53.81
50.98
48.3
46.37
45.58
46.03
47.58
49.87
52.41
54.79
56.79
58.39
59.76
61.08
62.35
63.38
63.77
63.05
60.84
57.05
51.86
45.77
39.43
33.56
28.63
24.84
21.98
19.55
16.99
13.86
10.09
5.99
2.14
-0.97
-3.12
-4.57
-5.98
-8.21
-11.91
-17.34
-24.15
-31.63
-38.94
-45.45
-50.98
-55.78
-60.42
-65.69
-72.29
-80.78
-91.23
-102.91
-114.11
-122.17
-124.1
-117.44
-101.35
-77.06
-47.74
-17.56
9.51
30.74
45.08
53.01
55.87
55.31
52.8
49.54
46.4
43.97
42.64
42.51
43.45
45.15
47.24
49.42
51.53
53.51
55.36
57.03
58.39
59.23
59.2
57.94
55.14
50.68
44.74
37.79
30.55
23.77
18.04
13.52
9.99
6.88
3.6
-0.26
-4.69
-9.31
-13.58
-17.05
-19.63
-21.64
-23.72
-26.56
-30.62
-35.93
-42.04
-48.27
-53.98
-58.87
-63.11
-67.37
-72.6
-79.8
-89.58
-101.83
-115.34
-127.74
-135.84
-136.4
-127.2
-107.92
-80.47
-48.62
-16.86
10.8
31.91
45.77
53.23
56.01
56.04
54.95
53.97
53.7
54.3
55.59
57.22
58.86
60.29
61.42
62.28
62.88
63.35
63.85
64.61
65.81
67.3
68.69
69.29
68.42
65.67
61.15
55.35
49.01
42.84
37.29
32.57
28.56
25.01
21.61
18.05
14.18
9.97
5.58
1.27
-2.71
-6.21
-9.29
-12.26
-15.6
-19.77
-25.1
-31.53
-38.66
-45.84
-52.44
-58.09
-62.92
-67.57
-73.05
-80.47
-90.62
-103.5
-117.92
-131.44
-140.66
-142.18
-133.58
-114.46
-86.73
-54.21
-21.47
7.4
29.81
44.93
53.5
57.09
57.56
56.53
55.28
54.62
54.96
56.35
58.5
60.98
63.36
65.31
66.71
67.61
68.22
68.81
69.62
70.7
71.86
72.63
72.39
70.61
67.09
62.03
56.02
49.74
43.75
38.28
33.36
28.9
24.86
21.26
18.16
15.44
12.88
10.15
7.01
3.37
-0.68
-4.9
-9.08
-13.1
-17.09
-21.29
-26.03
-31.52
-37.84
-44.76
-51.81
-58.44
-64.19
-68.93
-73.0
-77.22
-82.64
-90.25
-100.4
-112.42
-124.35
-133.14
-135.39
-128.39
-111.18
-85.0
-53.19
-20.18
9.75
33.56
49.99
59.36
63.04
62.67
59.83
55.8
51.62
48.1
45.78
44.94
45.45
47.01
49.15
51.47
53.76
55.97
58.18
60.4
62.55
64.38
65.51
65.49
63.99
60.84
56.13
50.25
43.76
37.27
31.3
26.13
21.76
17.94
14.26
10.36
6.04
1.36
-3.41
-7.84
-11.58
-14.5
-16.85
-19.16
-22.09
-26.1
-31.3
-37.35
-43.6
-49.36
-54.22
-58.15
-61.52
-65.0
-69.39
-75.38
-83.28
-92.64
-102.07
-109.17
-111.06
-105.19
-90.38
-67.43
-39.11
-9.39
17.72
39.31
54.05
62.16
64.8
63.44
59.47
54.04
48.16
42.71
38.47
35.97
35.36
36.4
38.61
41.42
44.34
47.11
49.68
52.03
54.11
55.66
56.25
55.43
52.96
48.89
43.6
37.64
31.56
25.65
19.95
14.32
8.58
2.71
-3.06
-8.41
-13.12
-17.24
-21.11
-25.24
-30.01
-35.48
-41.32
-46.98
-51.97
-56.14
-59.79
-63.61
-68.45
-75.15
-84.17
-95.3
-107.33
-117.96
-124.12
-122.77
-111.92
-91.56
-63.83
-32.57
-2.16
23.77
43.09
55.4
61.58
63.13
61.63
58.36
54.3
50.18
46.57
43.86
42.23
41.68
42.03
43.03
44.46
46.16
48.08
50.13
52.14
53.78
54.6
54.18
52.26
48.88
44.32
39.04
33.49
27.94
22.47
17.05
11.6
6.19
0.93
-3.98
-8.49
-12.78
-17.22
-22.21
-28.05
-34.71
-41.85
-48.92
-55.4
-60.98
-65.73
-70.04
-74.65
-80.56
-88.62
-99.16
-111.48
-123.6
-132.49
-134.71
-127.61
-110.33
-84.33
-53.01
-20.78
8.24
31.32
47.37
56.8
60.9
61.26
59.37
56.6
54.03
52.52
52.55
54.07
56.59
59.35
61.59
62.93
63.41
63.4
63.38
63.62
64.02
64.11
63.27
60.97
57.06
51.78
45.71
39.5
33.66
28.32
23.31
18.29
12.97
7.32
1.62
-3.67
-8.17
-11.76
-14.76
-17.85
-21.78
-27.09
-33.85
-41.62
-49.63
-57.12
-63.59
-69.01
-73.77
-78.67
-84.62
-92.46
-102.53
-114.24
-125.81
-134.35
-136.53
-129.63
-112.65
-86.92
-55.82
-23.85
4.81
27.28
42.61
51.33
54.92
55.04
53.11
50.18
47.03
44.26
42.28
41.26
41.05
41.28
41.43
41.09
40.18
38.94
37.85
37.31
37.56
38.47
39.68
40.81
41.62
42.16
42.68
43.52
44.93
46.91
49.27
51.64
53.56
54.54
54.23
52.45
49.24
44.87
39.79
34.5
29.45
24.88
20.8
17.06
13.38
9.5
5.25
0.6
-4.31
-9.22
-13.79
-17.73
-20.92
-23.57
-26.17
-29.34
-33.56
-38.96
-45.19
-51.62
-57.61
-62.84
-67.52
-72.33
-78.26
-86.18
-96.52
-108.82
-121.5
-131.88
-136.66
-132.87
-118.86
-95.19
-64.63
-31.49
-0.28
25.53
44.26
55.94
61.77
63.32
62.02
59.01
55.25
51.62
48.89
47.52
47.56
48.62
50.12
51.54
52.6
53.37
54.06
54.98
56.14
57.4
58.38
58.58
57.58
55.17
51.39
46.56
41.22
35.97
31.3
27.4
24.08
20.88
17.27
12.91
7.82
2.42
-2.7
-7.01
-10.32
-12.85
-15.25
-18.25
-22.5
-28.23
-35.15
-42.53
-49.43
-55.1
-59.3
-62.44
-65.54
-69.9
-76.65
-86.2
-97.84
-109.62
-118.57
-121.45
-115.67
-100.26
-76.42
-47.26
-16.97
10.44
32.2
47.22
55.92
59.6
59.79
57.78
54.57
50.91
47.45
44.75
43.18
42.88
43.7
45.27
47.2
49.23
51.25
53.31
55.44
57.51
59.13
59.68
58.56
55.43
50.41
44.08
37.3
30.96
25.62
21.41
18.01
14.81
11.28
7.1
2.36
-2.54
-7.11
-11.0
-14.23
-17.24
-20.69
-25.16
-30.85
-37.47
-44.38
-50.87
-56.5
-61.31
-65.84
-71.04
-77.96
-87.33
-99.19
-112.42
-124.71
-132.84
-133.49
-124.29
-104.88
-77.19
-45.1
-13.2
14.46
35.39
48.98
56.09
58.39
57.68
55.47
52.88
50.67
49.36
49.2
50.14
51.9
54.03
56.08
57.8
59.18
60.36
61.6
63.05
64.6
65.97
66.72
66.43
64.83
61.93
57.91
53.08
47.85
42.59
37.61
33.1
29.05
25.27
21.43
17.22
12.43
7.06
1.27
-4.56
-10.03
-14.84
-18.86
-22.28
-25.57
-29.29
-33.94
-39.7
-46.33
-53.29
-59.92
-65.81
-70.91
-75.62
-80.64
-86.88
-95.17
-105.93
-118.77
-132.14
-143.24
-148.6
-145.01
-130.75
-106.38
-74.85
-40.66
-8.52
17.99
37.18
49.16
55.31
57.43
57.27
56.18
55.17
54.9
55.72
57.61
60.25
63.09
65.59
67.37
68.34
68.72
68.88
69.23
70.0
71.09
72.11
72.47
71.6
69.15
65.2
60.15
54.67
49.38
44.63
40.48
36.74
33.18
29.64
26.17
22.87
19.9
17.22
14.67
11.92
8.7
4.87
0.52
-4.03
-8.45
-12.5
-16.26
-20.09
-24.58
-30.16
-36.91
-44.49
-52.17
-59.23
-65.21
-70.11
-74.51
-79.36
-85.74
-94.53
-105.97
-119.28
-132.45
-142.45
-145.8
-139.71
-123.05
-96.97
-64.75
-30.92
0.13
25.18
42.89
53.62
58.8
60.25
59.64
58.26
56.99
56.38
56.68
57.81
59.41
60.99
62.14
62.66
62.69
62.57
62.7
63.32
64.4
65.53
66.14
65.64
63.64
60.12
55.42
50.17
45.02
40.44
36.61
33.39
30.48
27.55
24.46
21.24
18.04
14.97
12.09
9.26
6.31
3.09
-0.45
-4.18
-7.89
-11.36
-14.54
-17.6
-20.9
-24.86
-29.76
-35.6
-42.02
-48.45
-54.33
-59.27
-63.38
-67.21
-71.7
-77.86
-86.44
-97.36
-109.4
-120.12
-126.32
-124.94
-114.11
-93.93
-66.54
-35.65
-5.38
20.76
40.55
53.35
59.7
60.91
58.58
54.29
49.45
45.13
42.06
40.6
40.71
42.09
44.26
46.77
49.24
51.49
53.5
55.35
57.07
58.49
59.3
59.02
57.22
53.72
48.64
42.49
35.99
29.87
24.66
20.44
16.94
13.66
10.14
6.21
2.07
-1.81
-5.05
-7.5
-9.47
-11.61
-14.65
-19.06
-24.85
-31.57
-38.48
-44.86
-50.28
-54.8
-58.97
-63.64
-69.76
-78.04
-88.59
-100.61
-112.23
-120.67
-122.86
-116.37
-100.32
-75.93
-46.25
-15.34
12.92
35.8
52.09
61.96
66.39
66.67
64.03
59.63
54.57
49.8
46.06
43.75
