2013-06-20 12:56:14
64.0
-0.0
-0.0
-0.0
-0.0
-0.0
-0.0
-0.0
-0.0
-0.0
-0.0
0.0
0.01
0.01
-0.0
-0.03
-0.05
-0.05
0.0
0.13
0.36
0.66
1.01
1.37
1.72
2.06
2.4
2.79
3.24
3.8
4.42
5.06
5.66
6.2
6.68
7.15
7.68
8.31
9.14
10.09
11.04
11.88
12.56
13.14
13.76
14.65
15.96
17.91
20.32
22.9
25.38
27.58
29.57
31.68
34.32
37.81
42.54
48.15
54.1
59.83
64.97
69.58
74.14
79.34
85.71
93.76
103.0
112.62
121.73
129.77
136.75
143.3
150.75
157.77
166.64
177.95
191.79
206.97
220.57
228.25
225.36
208.53
176.87
132.76
80.05
23.07
-34.94
-92.44
-149.16
-205.23
-260.37
-313.74
-363.87
-409.83
-450.91
-486.5
-515.74
-537.23
-549.22
-549.96
-538.37
-514.21
-478.67
-433.88
-382.45
-327.02
-269.84
-212.63
-156.66
-102.95
-52.37
-5.9
35.58
71.43
101.35
125.5
144.38
158.69
169.15
176.37
180.75
182.57
182.07
179.51
175.23
169.65
163.18
156.15
148.81
141.3
133.69
126.02
118.33
110.69
103.16
95.8
88.68
81.83
75.25
68.95
62.95
57.25
51.86
46.78
42.03
37.59
33.45
29.61
26.07
22.81
19.83
17.11
14.67
12.48
10.54
8.83
7.35
6.07
4.97
4.05
3.27
2.62
2.09
1.65
1.3
1.01
0.79
0.61
0.47
0.37
0.28
0.22
0.18
0.15
0.13
0.12
0.12
0.12
0.14
0.16
0.18
0.21
0.25
0.29
0.33
0.38
0.42
0.47
0.51
0.57
0.62
0.67
0.73
0.79
0.86
0.93
1.02
1.11
1.21
1.32
1.45
1.58
1.74
1.92
2.11
2.33
2.57
2.84
3.13
3.45
3.81
4.2
4.62
5.08
5.57
6.11
6.68
7.29
7.95
8.65
9.4
10.19
11.02
11.9
12.82
13.8
14.83
15.93
17.09
18.31
19.58
20.87
22.13
23.29
24.26
24.91
25.13
24.79
23.8
22.09
19.64
16.5
12.72
8.49
3.97
-0.62
-5.06
-9.14
-12.69
-15.57
-17.7
-19.09
-19.73
-19.75
-19.24
-18.33
-17.13
-15.74
-14.25
-12.69
-11.07
-9.39
-7.66
-5.89
-4.08
-2.22
-0.27
1.78
3.95
6.27
8.76
11.28
13.73
16.09
18.35
20.61
22.99
25.65
28.73
32.41
36.44
40.7
45.1
49.63
54.38
59.51
65.16
71.49
78.59
85.92
93.05
99.62
105.5
110.77
115.69
120.57
125.69
131.14
136.13
139.91
141.92
141.9
139.9
136.05
130.1
120.77
110.63
99.55
86.87
71.96
54.82
36.29
17.79
0.82
-13.7
-25.84
-37.46
-50.72
-67.35
-87.8
-111.07
-134.92
-156.88
-175.2
-189.6
-202.03
-215.51
-233.47
-258.6
-291.78
-331.06
-371.28
-404.72
-422.83
-419.2
-391.64
-343.49
-282.55
-218.15
-157.71
-104.3
-56.57
-10.41
37.83
89.09
140.64
186.59
219.71
233.58
224.85
194.88
150.42
102.34
62.93
42.4
46.05
73.34
118.96
175.21
234.08
288.2
331.23
358.05
365.76
354.75
329.14
295.89
262.5
234.29
212.82
196.27
181.25
164.97
146.3
125.84
104.99
84.67
64.77
44.04
20.53
-8.0
-43.26
-85.69
-133.68
-183.21
-228.47
-263.55
-284.62
-291.78
-289.14
-283.21
-279.9
-281.78
-287.2
-291.6
-290.88
-283.36
-270.56
-255.97
-243.11
-233.64
-226.54
-218.92
-207.39
-190.16
-167.21
-139.66
-108.91
-76.15
-42.28
-8.25
24.69
55.35
82.13
105.4
128.54
156.73
194.2
241.32
293.37
341.53
376.35
387.93
372.46
333.92
281.78
226.31
174.93
131.32
96.16
69.12
42.54
10.44
-28.21
-69.63
-108.71
-141.39
-164.73
-176.84
-175.63
-171.72
-174.75
-188.33
-209.74
-234.87
-261.53
-289.01
-317.35
-344.29
-382.22
-440.17
-517.69
-605.77
-694.68
-779.3
-858.85
-935.5
-931.37
-807.99
-584.4
-324.77
-87.93
100.12
239.57
341.63
404.13
445.2
463.09
454.93
424.94
384.36
343.45
305.41
276.67
255.31
240.53
220.34
188.31
148.25
111.81
90.06
87.49
101.85
125.66
153.35
173.47
179.84
173.87
162.51
152.67
147.62
147.28
149.04
151.93
151.8
146.56
137.14
126.75
118.53
114.33
114.77
118.67
124.3
126.61
119.86
99.67
65.12
19.53
-30.17
-75.6
-110.29
-131.33
-140.39
-141.97
-140.81
-139.93
-140.1
-140.82
-141.71
-143.38
-147.11
-154.0
-164.19
-176.79
-190.2
-202.81
-213.3
-220.78
-224.58
-224.17
-219.22
-209.88
-196.98
-182.08
-167.23
-154.61
-146.2
-143.44
-147.03
-156.79
-171.47
-188.83
-205.88
-219.56
-227.49
-228.55
-223.08
-212.56
-198.89
-183.72
-168.06
-152.4
-136.99
-122.15
-108.34
-95.92
-84.94
-75.0
-65.4
-55.5
-45.0
-34.04
-23.1
-12.74
-3.31
5.03
12.34
18.74
24.32
29.09
33.08
36.34
38.96
41.07
42.78
44.25
45.53
46.69
47.74
48.63
49.3
49.7
49.86
49.91
50.09
50.66
51.84
53.73
56.2
58.99
61.78
64.38
66.85
69.53
72.89
77.37
83.17
90.11
97.7
105.36
112.7
119.73
126.93
135.06
144.82
156.5
169.8
184.05
198.37
212.19
225.39
238.36
251.85
266.89
284.67
306.27
332.07
361.03
390.11
414.65
429.55
431.06
418.35
393.79
362.13
328.58
297.19
269.91
246.96
227.6
211.06
196.94
184.94
174.62
165.29
156.13
146.54
136.41
125.94
115.69
106.17
97.71
90.32
83.71
77.36
70.76
63.52
55.5
46.73
37.24
26.84
15.13
1.71
-13.47
-29.82
-46.15
-61.03
-73.29
-82.52
-89.11
-93.75
-96.87
-98.09
-96.41
-90.75
-80.88
-67.93
-54.29
-42.73
-35.28
-32.4
-32.91
-34.73
-36.03
-36.12
-35.72
-36.46
-39.96
-46.93
-56.88
-68.39
-79.6
-88.9
-95.25
-98.33
-98.42
-96.25
-92.84
-89.16
-85.71
-82.1
-76.84
-67.58
-51.82
-28.2
2.42
36.42
68.15
91.53
102.1
98.47
82.55
58.57
31.4
5.18
-17.18
-33.7
-42.92
-43.76
-36.26
-22.36
-6.11
7.17
12.82
8.82
-3.18
-18.38
-30.59
-34.61
-28.12
-12.56
7.27
24.47
31.98
24.52
0.22
-38.57
-85.46
-131.83
-169.41
-193.21
-202.89
-202.06
-195.54
-186.31
-173.98
-155.9
-129.65
-95.4
-56.42
-17.73
16.22
42.87
61.63
72.82
76.7
73.62
64.9
53.51
43.69
39.44
42.81
53.17
68.01
84.25
99.58
112.82
123.47
131.14
135.35
135.61
131.82
124.6
115.25
105.43
96.54
89.26
83.41
78.24
73.2
68.55
65.78
67.19
74.97
90.23
112.28
138.76
166.22
191.02
210.13
221.69
225.47
223.22
218.63
216.44
220.8
233.54
253.26
276.0
297.04
312.85
321.94
324.55
321.21
311.91
296.07
273.6
245.9
216.01
187.69
163.98
146.13
133.42
124.01
115.88
107.45
97.75
86.3
72.89
57.62
40.86
23.29
5.7
-11.33
-27.65
-43.52
-59.51
-76.03
-93.08
-110.12
-126.37
-141.18
-154.49
-166.87
-179.42
-193.36
-209.82
-229.52
-252.57
-278.02
-303.53
-325.54
-340.02
-343.84
-336.08
-318.63
-295.67
-272.01
-251.33
-235.01
-222.22
-210.99
-199.67
-187.82
-176.11
-165.68
-157.1
-150.11
-143.71
-137.0
-129.67
-122.26
-115.79
-111.06
-108.11
-106.15
-103.93
-100.4
-95.17
-88.69
-81.95
-75.95
-71.27
-67.86
-65.19
-62.61
-59.61
-56.02
-52.02
-47.94
-44.11
-40.76
-37.92
-35.54
-33.48
-31.58
-29.64
-27.49
-25.05
-22.4
-19.71
-17.16
-14.86
-12.75
-10.56
-8.06
-5.2
-2.21
0.46
2.33
3.18
3.17
2.79
2.63
3.07
4.18
5.61
6.89
7.57
7.51
6.79
5.7
4.53
3.35
2.12
0.66
-1.21
-3.54
-6.29
-9.37
-12.69
-16.19
-19.82
-23.46
-26.92
-29.97
-32.44
-34.23
-35.39
-36.01
-36.18
-35.89
-34.93
-33.06
-30.03
-25.78
-20.51
-14.7
-8.91
-3.7
0.55
3.7
5.82
7.07
7.66
7.77
7.53
7.05
6.45
5.85
5.41
5.26
5.49
6.05
6.82
7.55
8.0
7.96
7.33
6.1
4.34
2.22
0.03
-1.8
-2.8
-2.59
-1.05
1.57
4.72
7.7
9.91
10.99
10.87
9.72
7.86
5.69
3.62
2.02
1.14
0.95
1.24
1.57
1.52
0.81
-0.56
-2.34
-4.25
-6.07
-7.76
-9.43
-11.32
-13.6
-16.42
-19.76
-23.5
-27.34
-30.77
-33.21
-34.12
-33.31
-31.04
-28.09
-25.5
-24.26
-25.0
-27.82
-32.34
-37.92
-43.95
-50.03
-56.12
-62.4
-69.28
-77.2
-86.34
-96.56
-107.31
-117.74
-127.01
-134.7
-141.06
-146.98
-153.67
-162.1
-172.53
-184.38
-196.32
-206.76
-214.28
-217.98
-217.35
-212.49
-203.92
-193.02
-182.0
-173.23
-168.04
-165.62
-163.03
-156.74
-144.55
-126.91
-106.52
-86.39
-67.72
-49.1
-27.44
-0.07
33.54
71.71
111.63
150.69
187.02
218.95
244.31
260.44
265.19
258.03
240.63
216.27
188.56
160.38
133.84
110.43
91.82
79.79
75.46
78.68
87.7
99.97
113.23
126.37
139.15
151.38
161.77
167.67
165.87
154.3
133.41
106.48
78.55
54.25
36.23
24.57
17.5
12.83
9.09
5.88
3.49
2.19
1.79
1.55
0.62
-1.58
-4.97
-8.9
-12.32
-14.24
-14.21
-12.4
-9.52
-6.39
-3.63
-1.38
0.53
2.33
4.03
5.38
6.01
5.83
5.21
4.88
5.61
7.86
11.46
15.79
20.03
23.56
26.15
27.9
29.01
29.55
29.49
28.75
27.42
25.76
24.09
22.61
21.35
20.25
19.38
19.04
19.63
21.33
23.96
26.8
29.05
30.13
30.02
29.19
28.3
27.73
27.47
27.2
26.54
25.37
23.88
22.36
21.04
20.03
19.27
18.68
18.27
18.06
18.04
18.07
17.89
17.19
15.78
13.63
10.84
7.63
4.25
0.98
-1.9
-4.12
-5.44
-5.78
-5.26
-4.23
-3.18
-2.52
-2.49
-3.02
-3.82
-4.6
-5.17
-5.52
-5.82
-6.15
-6.56
-6.96
-7.23
-7.34
-7.34
-7.33
-7.37
-7.39
-7.2
-6.57
-5.41
-3.72
-1.75
0.21
1.84
2.9
3.3
3.18
2.75
2.3
2.12
2.38
3.15
4.44
6.13
8.03
9.95
11.67
13.04
13.99
14.55
14.76
14.69
14.33
13.68
12.79
11.8
10.91
10.29
9.94
9.69
9.31
8.63
7.68
6.69
5.98
5.89
6.53
7.81
9.39
10.86
11.87
12.35
12.47
12.68
13.59
15.79
19.79
26.03
34.84
46.38
60.44
76.16
92.01
106.05
116.4
121.85
122.12
117.9
110.41
101.1
91.22
81.76
73.52
66.97
62.24
58.88
55.89
52.04
46.27
38.29
28.66
18.59
9.35
1.76
-4.17
-9.2
-14.45
-20.87
-28.82
-37.98
-47.41
-55.91
-62.31
-65.83
-66.37
-64.47
-61.25
-58.05
-55.96
-55.39
-55.86
-56.04
-54.28
-49.2
-40.32
-28.41
-15.28
-3.28
5.44
9.59
9.04
4.78
-1.57
-8.14
-13.35
-16.2
-16.46
-14.58
-11.59
-8.79
-7.47
-8.55
-12.36
-18.57
-26.15
-33.58
-39.24
-41.84
-40.83
-36.52
-29.94
-22.32
-14.72
-7.76
-1.68
3.47
7.69
10.94
13.11
14.01
13.36
10.94
6.98
2.5
-0.84
-1.4
1.5
6.93
12.58
15.83
15.1
10.76
4.75
-0.65
-4.14
-6.12
-8.18
-11.93
-17.9
-25.15
-31.83
-36.1
-37.0
-34.75
-30.45
-25.44
-20.76
-16.82
-13.46
-10.33
-7.29
-4.56
-2.7
-2.24
-3.31
-5.45
-7.79
-9.42
-9.92
-9.47
-8.83
-8.83
-9.98
-12.29
-15.33
-18.57
-21.67
-24.65
-27.69
-30.93
-34.24
-37.18
-39.28
-40.22
-40.03
-39.0
-37.37
-35.16
-32.17
-28.15
-23.2
-17.95
-13.32
-10.23
-9.05
-9.46
-10.6
-11.56
-11.66
-10.66
-8.62
-5.66
-1.88
2.56
7.29
11.62
14.65
15.59
14.15
10.68
6.07
1.44
-2.35
-4.95
-6.54
-7.58
-8.41
-9.0
-8.9
-7.58
-4.75
-0.63
4.06
8.36
11.5
13.14
13.38
12.62
11.31
9.84
8.6
7.96
8.33
10.09
13.33
17.81
22.95
28.04
32.48
35.94
38.3
39.53
39.45
37.65
33.58
26.57
16.17
2.32
-14.34
-32.38
-49.7
-63.9
-72.9
-75.44
-71.42
-61.82
-48.35
-32.98
-17.53
-3.45
8.27
17.02
22.6
25.08
24.82
22.32
18.17
13.0
7.49
2.28
-2.09
-5.35
-7.47
-8.62
-9.07
-8.99
-8.49
-7.68
-6.79
-6.24
-6.56
-8.23
-11.46
-16.09
-21.44
-26.53
-30.26
-31.77
-30.7
-27.31
-22.32
-16.64
-11.01
-5.83
-1.24
2.65
5.59
7.13
6.86
4.74
1.32
-2.31
-4.9
-5.54
-4.09
-1.26
1.71
3.56
3.52
1.72
-1.03
-3.51
-4.61
-3.66
-0.48
4.71
11.35
18.49
24.89
29.23
30.73
29.72
27.73
26.89
28.83
33.68
39.89
44.94
46.75
44.66
39.71
33.75
28.22
23.45
18.71
12.95
5.78
-2.22
-9.79
-15.68
-19.24
-20.59
-20.37
-19.39
-18.21
-17.09
-16.06
-15.07
-14.09
-13.18
-12.5
-12.11
-11.93
-11.65
-10.79
-8.87
-5.61
-1.19
3.73
8.21
11.39
12.97
13.52
14.43
17.39
23.69
33.48
45.53
57.57
67.15
72.59
73.5
70.67
65.35
58.62
50.95
42.37
33.03
23.52
14.91
8.17
3.73
1.08
-1.04
-4.0
-8.69
-15.22
-22.9
-30.72
-37.76
-43.53
-47.99
-51.4
-54.1
-56.36
-58.35
-60.22
-62.17
-64.35
-66.69
-68.64
-69.11
-66.79
-60.63
-50.42
-37.09
-22.45
-8.68
2.49
10.26
14.8
16.94
17.57
17.33
16.41
14.8
12.43
9.47
6.23
3.1
0.36
-1.8
-3.36
-4.38
-4.91
-5.06
-4.88
-4.47
-3.9
-3.23
-2.52
-1.73
-0.81
0.32
1.68
3.18
4.54
5.23
4.74
2.72
-0.67
-4.66
-8.01
-9.41
-8.0
-3.69
2.79
10.27
17.59
23.97
29.14
33.18
36.2
38.05
38.27
36.23
31.4
23.64
13.46
2.03
-9.09
-18.26
-24.33
-26.94
-26.69
-24.92
-23.25
-22.96
-24.59
-27.83
-31.68
-34.91
-36.61
-36.52
-35.12
-33.35
-32.11
-31.92
-32.74
-34.08
-35.21
-35.42
-34.0
-30.31
-23.95
-15.27
-5.72
2.21
5.9
3.88
-3.18
-12.3
-19.42
-21.12
-16.14
-5.66
7.56
20.7
32.02
41.13
48.38
53.98
57.62
58.72
57.04
53.17
48.49
44.57
42.4
41.9
41.98
41.11
38.1
32.68
25.62
18.31
12.07
7.54
4.53
2.28
0.05
-2.43
-4.82
-6.38
-6.43
-4.67
-1.32
3.03
7.7
12.02
15.54
18.06
19.61
20.45
21.0
21.68
22.77
24.27
25.95
27.4
28.35
28.66
28.46
27.93
27.17
26.1
24.55
22.42
19.78
16.94
14.28
12.08
10.34
8.77
6.86
4.22
0.57
-4.09
-9.61
-15.69
-21.92
-27.83
-32.88
-36.65
-38.97
-39.98
-39.96
-39.17
-37.69
-35.5
-32.57
-29.08
-25.4
-21.98
-19.23
-17.43
-16.79
-17.5
-19.57
-22.69
-26.0
-28.31
-28.37
-25.6
-20.37
-14.02
-8.27
-4.5
-3.27
-4.13
-6.06
-7.91
-8.88
-8.68
-7.55
-6.11
-5.06
-5.02
-6.18
-8.06
-9.4
-8.31
-2.79
8.44
25.35
46.34
68.56
88.73
104.07
112.93
114.85
110.22
99.79
84.32
64.69
42.14
18.34
-4.76
-25.41
-42.61
-56.25
-66.87
-75.2
-81.64
-86.03
-87.9
-86.93
-83.31
-77.84
-71.7
-66.03
-61.58
-58.58
-56.78
-55.63
-54.38
-52.24
-48.44
-42.46
-34.23
-24.33
-13.9
-4.25
3.61
9.38
13.49
16.7
19.58
22.21
24.15
24.88
24.16
22.25
19.78
17.33
15.16
13.15
11.05
8.69
6.22
4.09
2.8
2.56
3.13
3.82
3.59
1.39
-3.43
-10.95
-20.47
-30.73
-40.21
-47.54
-51.82
-52.75
-50.59
-45.95
-39.56
-32.04
-23.79
-15.04
-5.92
3.45
12.75
21.49
29.06
34.79
38.3
39.63
39.4
38.69
38.76
40.59
44.5
49.89
55.38
59.26
60.1
57.26
51.12
42.93
34.35
26.85
21.36
18.01
16.26
15.13
13.46
10.19
4.62
-3.38
-13.15
-23.29
-31.89
-37.13
-37.86
-34.13
-27.19
-19.08
-11.81
-6.65
-3.79
-2.55
-1.85
-0.85
0.84
3.21
6.06
9.33
13.16
17.73
23.08
28.95
34.82
40.11
44.36
47.4
49.3
50.24
50.24
49.17
46.68
42.43
36.26
28.27
18.82
8.41
-2.41
-13.0
-22.66
-30.63
-36.31
-39.6
-41.06
-41.83
-43.33
-46.58
-51.85
-58.42
-64.91
-69.81
-71.98
-70.9
-66.69
-59.84
-50.98
-40.75
-29.78
-18.75
-8.34
0.86
8.41
14.17
18.3
21.18
23.36
25.4
27.72
30.49
33.55
36.39
38.31
38.65
37.0
33.31
27.95
21.47
14.47
7.49
0.95
-4.75
-9.24
-12.19
-13.39
-12.82
-10.68
-7.41
-3.54
0.31
3.56
5.74
6.55
6.0
4.35
2.08
-0.31
-2.45
-4.24
-5.88
-7.69
-9.98
-12.84
-16.09
-19.27
-21.89
-23.64
-24.53
-24.98
-25.66
-27.28
-30.24
-34.52
-39.51
-44.25
-47.59
-48.49
-46.34
-41.1
-33.35
-24.11
-14.6
-5.89
1.31
6.64
10.05
11.65
11.65
10.31
8.07
5.42
2.81
0.48
-1.64
-3.83
-6.37
-9.38
-12.75
-16.19
-19.39
-22.17
-24.47
-26.35
-27.96
-29.5
-31.33
-33.87
-37.49
-42.34
-48.1
-53.97
-58.67
-60.76
-59.05
-52.93
-42.58
-29.0
-13.77
1.37
14.87
25.65
33.18
37.47
38.94
38.35
36.63
34.74
33.42
33.05
33.41
33.86
33.59
32.01
28.92
24.59
19.53
14.29
9.24
4.55
0.16
-4.09
-8.5
-13.39
-19.11
-25.82
-33.38
-41.26
-48.66
-54.66
-58.54
-59.97
-58.98
-55.86
-51.02
-45.03
-38.6
-32.53
-27.57
-24.07
-21.82
-20.06
-17.94
-15.07
-11.95
-9.8
-10.07
-13.66
-20.36
-29.0
-38.05
-46.38
-53.82
-61.14
-69.6
-80.27
-93.63
-109.57
-127.64
-147.42
-168.57
-190.54
-212.29
-232.16
-248.25
-259.04
-263.87
-262.98
-257.07
-246.65
-231.67
-211.68
-186.43
-156.34
-122.69
-87.17
-51.15
-14.97
22.02
60.82
101.57
142.72
180.82
211.4
230.41
235.59
227.29
208.28
182.93
156.0
131.7
113.28
102.98
102.13
111.4
130.73
159.13
194.4
233.15
271.25
304.68
330.52
347.7
357.02
360.34
359.18
353.6
342.03
322.38
293.78
257.99
219.22
182.54
151.59
126.91
106.16
85.68
62.7
36.55
8.51
-19.5
-46.39
-72.36
-98.28
-124.42
-149.47
-170.83
-185.66
-192.34
-191.47
-186.06
-180.6
-179.61
-186.07
-200.54
-221.2
-244.73
-267.44
-286.19
-298.78
-303.63
-299.72
-286.61
-264.85
-236.26
-203.77
-170.49
-138.69
-109.14
-81.16
-53.65
-25.99
1.34
26.93
49.12
66.64
78.92
86.13
88.82
87.69
83.66
78.13
73.12
70.84
72.98
79.92
90.39
101.89
111.57
117.18
117.68
113.3
105.19
95.04
84.63
75.57
69.09
65.88
65.93
68.54
72.52
76.51
79.23
79.61
76.92
70.97
62.42
52.81
44.3
38.93
37.77
40.38
44.99
49.21
51.16
50.46
48.58
48.66
54.63
69.81
95.29
128.68
163.61
190.72
200.14
184.96
144.14
83.55
14.49
-49.94
-98.67
-125.43
-129.54
-114.8
-87.61
-55.01
-23.42
2.17
18.65
24.88
21.67
11.28
-3.19
-18.41
-31.34
-39.49
-41.16
-35.85
-24.65
-10.08
4.61
16.58
24.47
28.76
31.17
33.61
37.13
41.59
45.83
48.47
48.53
45.82
40.83
34.44
27.55
20.81
14.56
8.87
3.64
-1.28
-5.85
-9.79
-12.58
-13.71
-12.96
-10.57
-7.26
-3.94
-1.4
-0.15
-0.21
-1.29
-2.96
-4.85
-6.74
-8.52
-10.01
-10.9
-10.75
-9.12
-5.88
-1.28
4.04
9.22
13.5
16.46
18.08
18.74
18.98
19.31
19.99
20.99
21.95
22.35
21.68
19.69
16.59
13.03
10.02
8.65
9.85
14.14
21.54
31.63
43.63
56.59
69.57
81.81
92.78
102.21
110.06
116.43
121.54
125.67
129.17
132.53
136.3
141.13
147.55
155.73
165.19
174.79
182.8
187.42
187.32
181.88
171.18
155.67
135.95
112.72
87.09
60.71
35.6
13.6
-4.33
-18.51
-30.3
-41.49
-53.51
-67.03
-81.94
-97.65
-113.28
-127.71
-139.51
-147.05
-148.93
-144.49
-134.34
-120.26
-104.73
-90.15
-78.13
-69.18
-62.83
-58.21
-54.54
-51.48
-49.15
-47.9
-47.91
-49.03
-50.62
-51.71
-51.13
-47.78
-40.95
-30.69
-17.93
-4.42
7.81
17.03
22.4
24.11
23.09
20.43
16.93
12.92
8.38
3.3
-2.12
-7.59
-12.89
-17.98
-23.03
-28.15
-33.14
-37.49
-40.54
-41.76
-41.02
-38.63
-35.28
-31.76
-28.74
-26.58
-25.27
-24.51
-23.78
-22.67
-20.93
-18.64
-16.21
-14.17
-13.01
-13.03
-14.17
-16.1
-18.34
-20.42
-22.1
-23.44
-24.79
-26.64
-29.37
-33.05
-37.46
-42.16
-46.75
-51.08
-55.28
-59.68
-64.61
-70.22
-76.43
-82.94
-89.32
-95.06
-99.59
-102.26
-102.48
-99.86
-94.36
-86.41
-76.81
-66.57
-56.65
-47.8
-40.46
-34.78
-30.7
-27.96
-26.08
-24.39
-22.15
-18.7
-13.68
-7.17
0.36
8.26
15.93
22.96
29.18
34.52
38.93
42.32
44.61
45.78
45.96
45.39
44.34
42.98
41.34
39.25
36.44
32.62
27.65
21.7
15.24
9.03
3.9
0.51
-0.88
-0.49
1.04
2.89
4.35
5.0
4.78
3.86
2.53
0.99
-0.74
-2.7
-4.93
-7.33
-9.51
-11.01
-11.39
-10.46
-8.31
-5.31
-1.9
1.52
4.6
7.07
8.6
8.95
7.92
5.59
2.33
-1.37
-5.03
-8.39
-11.41
-14.13
-16.56
-18.51
-19.74
-20.0
-19.29
-17.85
-15.97
-13.87
-11.52
-8.67
-5.06
-0.7
4.1
8.76
12.74
15.66
17.43
18.06
17.52
15.72
12.54
8.11
2.89
-2.41
-7.12
-10.86
-13.65
-15.83
-17.76
-19.64
-21.4
-22.85
-23.88
-24.59
-25.27
-26.24
-27.71
-29.67
-31.97
-34.3
-36.41
-38.02
-38.86
-38.61
-36.91
-33.57
-28.71
-22.81
-16.55
-10.53
-4.93
0.45
6.02
12.08
18.47
24.66
29.98
33.94
36.49
37.95
38.86
39.74
40.96
42.68
44.91
47.51
50.25
52.9
55.38
57.85
60.69
64.26
68.72
73.8
78.85
83.02
85.61
86.32
85.35
83.31
80.92
78.79
77.16
75.82
74.03
70.57
63.88
52.27
34.38
9.66
-21.0
-55.08
-88.77
-117.79
-138.52
-149.07
-149.6
-141.92
-128.65
-112.24
-94.45
-76.37
-58.87
-42.87
-29.38
-19.16
-12.25
-7.81
-4.33
-0.27
5.46
13.11
22.23
32.01
41.69
50.88
59.49
67.57
75.06
81.61
86.67
89.5
89.48
86.22
79.71
70.36
59.0
46.8
35.14
25.37
18.5
14.93
14.24
15.18
16.0
14.88
10.46
2.28
-9.13
-22.47
-35.99
-48.07
-57.58
-64.0
-67.38
-68.1
-66.68
-63.62
-59.42
-54.58
-49.66
-45.27
-41.91
-39.93
-39.34
-39.86
-40.89
-41.67
-41.46
-39.77
-36.42
-31.65
-25.97
-20.06
-14.6
-10.24
-7.42
-6.37
-7.01
-8.87
-11.14
-12.92
-13.39
-12.16
-9.35
-5.49
-1.28
2.66
6.04
8.9
11.55
14.38
17.74
21.86
26.76
32.19
37.64
42.39
45.73
47.2
46.73
44.68
41.56
37.77
33.37
28.16
21.94
14.68
6.65
-1.71
-10.01
-18.1
-26.0
-33.67
-40.85
-47.0
-51.4
-53.5
-53.1
-50.4
-45.91
-40.28
-34.19
-28.27
-23.11
-19.16
-16.67
-15.59
-15.6
-16.21
-16.92
-17.29
-17.03
-15.91
-13.75
-10.45
-6.12
-1.13
3.91
8.25
11.28
12.7
12.71
11.86
10.93
10.66
11.46
13.36
15.97
18.62
20.55
21.19
20.22
17.52
13.1
7.06
-0.38
-8.83
-17.73
-26.57
-35.12
-43.54
-52.28
-61.73
-71.89
-82.28
-92.16
-100.98
-108.65
-115.62
-122.48
-129.5
-136.28
-141.71
-144.29
-142.58
-135.72
-123.68
-107.36
-88.41
-68.76
-50.11
-33.44
-18.84
-5.69
6.88
19.48
32.23
44.9
57.26
69.44
81.92
95.18
109.32
123.93
138.34
152.13
165.7
180.15
196.71
215.86
236.61
256.44
272.0
280.15
279.06
268.66
250.48
226.98
200.83
174.33
149.4
127.56
110.08
97.83
91.01
88.92
90.11
92.86
95.74
98.07
99.64
100.16
98.58
93.01
81.32
62.26
36.28
5.52
-27.06
-59.13
-89.93
-120.25
-151.32
-183.58
-215.85
-245.71
-270.58
-288.91
-300.71
-307.02
-308.92
-306.62
-299.39
-286.18
-266.57
-241.41
-212.74
-183.09
-154.62
-128.52
-105.05
-83.99
-65.21
-48.93
-35.63
-25.63
-18.72
-14.07
-10.47
-6.72
-1.92
4.38
12.35
21.89
32.67
44.04
55.02
64.42
71.1
74.43
74.35
71.36
66.39
60.47
54.72
50.05
47.05
45.72
45.52
45.48
44.65
42.49
39.01
34.56
29.42
23.49
16.33
7.46
-3.29
-15.68
-29.24
-43.51
-58.25
-73.35
-88.59
-103.45
-117.1
-128.52
-136.69
-140.76
-140.16
-134.7
-124.62
-110.65
-93.98
-76.08
-58.48
-42.52
-29.26
-19.45
-13.49
-11.56
-13.46
-18.68
-26.35
-35.33
-44.27
-51.71
-56.17
-56.45
-51.76
-42.03
-28.04
-11.4
5.68
20.78
31.87
37.76
38.47
35.12
29.54
23.69
19.12
16.7
16.7
19.0
23.26
29.06
35.85
42.95
49.71
55.63
60.62
64.9
68.82
72.63
76.26
79.39
81.69
82.94
83.11
82.16
79.84
75.66
69.05
59.81
48.39
36.04
24.45
15.35
9.79
7.91
8.8
10.84
12.17
11.2
7.0
-0.65
-11.29
-24.1
-38.03
-51.99
-64.94
-75.97
-84.47
-90.35
-94.05
-96.53
-98.97
-102.35
-107.16
-113.36
-120.45
-127.84
-135.07
-141.9
-148.25
-154.15
-159.66
-164.8
-169.47
-173.28
-175.65
-175.97
-173.98
-169.96
-164.58
-158.4
-151.24
-141.8
-127.9
-107.37
-79.05
-43.6
-3.68
36.74
73.35
102.65
122.5
132.37
133.12
126.58
115.28
102.14
89.94
80.82
75.74
74.45
75.82
78.66
82.48
87.93
96.54
109.8
128.07
149.89
172.09
190.95
203.6
209.17
208.94
205.6
202.02
200.12
200.47
202.57
205.71
209.58
214.53
221.14
229.55
239.1
248.62
256.85
263.11
267.51
270.65
273.14
275.1
276.15
275.62
272.99
267.92
260.14
249.19
234.33
214.89
190.72
162.57
132.0
100.79
70.35
41.44
14.26
-11.01
-33.8
-53.17
-68.13
-78.31
-84.18
-87.04
-88.5
-89.9
-91.86
-94.19
-96.15
-96.87
-95.86
-93.15
-89.14
-84.29
-78.83
-72.64
-65.44
-57.22
-48.43
-39.93
-32.72
-27.52
-24.47
-23.22
-23.15
-23.67
-24.5
-25.59
-27.09
-29.1
-31.62
-34.56
-37.78
-41.12
-44.49
-47.78
-50.92
-53.85
-56.56
-59.1
-61.61
-64.21
-67.02
-70.13
-73.57
-77.3
-81.19
-85.02
-88.55
-91.53
-93.84
-95.54
-96.87
-98.16
-99.77
-101.93
-104.7
-108.01
-111.68
-115.47
-119.05
-122.03
-123.93
-124.25
-122.58
-118.77
-112.96
-105.69
-97.65
-89.48
-81.49
-73.48
-64.82
-54.74
-42.65
-28.45
-12.61
3.94
20.06
34.61
46.68
55.63
61.14
63.2
62.05
58.11
51.96
44.17
35.27
25.71
15.79
5.67
-4.61
-15.11
-25.85
-36.82
-47.97
-59.22
-70.4
-81.31
-91.6
-100.82
-108.41
-113.88
-116.97
-117.69
-116.44
-113.86
-110.68
-107.52
-104.76
-102.45
-100.36
-98.14
-95.51
-92.33
-88.57
-84.33
-79.66
-74.32
-67.46
-57.51
-42.59
-21.16
7.06
40.68
76.8
111.87
142.68
166.96
183.53
192.0
192.67
186.64
176.16
164.51
155.15
150.32
149.75
150.59
148.54
139.98
123.59
100.87
75.24
50.32
28.42
10.07
-5.44
-19.03
-31.02
-41.11
-48.98
-55.03
-60.6
-67.4
-76.49
-87.43
-98.14
-105.7
-107.53
-102.58
-91.63
-76.98
-61.36
-46.99
-34.79
-24.42
-14.78
-4.69
6.44
18.38
30.19
40.76
49.28
55.6
60.22
63.97
67.58
71.47
75.76
80.45
85.6
91.26
97.32
103.36
108.72
112.82
115.38
116.59
116.83
116.29
114.64
111.13
104.91
95.53
83.22
68.75
53.13
37.17
21.44
6.29
-7.88
-20.54
-31.14
-39.47
-45.91
-51.39
-57.16
-64.39
-73.81
-85.62
-99.54
-114.95
-131.09
-147.17
-162.56
-176.7
-189.03
-198.87
-205.47
-208.1
-206.27
-199.7
-188.42
-172.72
-153.18
-130.79
-106.86
-82.81
-59.87
-38.72
-19.45
-1.79
14.39
28.86
41.07
50.46
56.98
61.2
64.1
66.58
69.11
71.79
74.55
77.4
80.46
83.93
87.81
91.86
95.55
98.2
99.21
98.14
94.8
89.19
81.54
72.19
61.54
50.05
38.17
26.33
14.93
4.32
-5.2
-13.35
-19.98
-25.1
-28.95
-31.95
-34.61
-37.33
-40.31
-43.41
-46.39
-48.99
-51.13
-52.91
-54.56
-56.37
-58.59
-61.44
-65.05
-69.35
-73.99
-78.26
-81.14
-81.68
-79.31
-74.13
-66.91
-58.79
-50.86
-43.82
-37.87
-32.84
-28.45
-24.49
-20.87
-17.63
-14.81
-12.37
-10.24
-8.31
-6.48
-4.66
-2.8
-0.83
1.24
3.34
5.32
6.96
8.06
8.48
8.2
7.35
6.14
4.84
3.59
2.38
1.04
-0.57
-2.45
-4.34
-5.81
-6.43
-5.93
-4.12
-0.93
3.71
9.86
17.43
26.06
35.08
43.65
51.02
56.71
60.62
62.89
63.74
63.38
61.93
59.59
56.67
53.61
50.8
48.46
46.51
44.61
42.41
39.68
36.49
33.12
29.9
27.05
24.56
22.29
20.0
17.52
14.79
11.85
8.94
6.4
4.73
4.48
6.08
9.65
14.89
21.12
27.47
33.21
37.92
41.64
44.67
47.35
49.79
51.73
52.64
51.99
49.58
45.68
40.94
36.12
31.7
27.71
23.83
19.65
14.98
9.99
5.15
1.0
-2.16
-4.34
-5.86
-7.09
-8.33
-9.64
-10.98
-12.23
-13.4
-14.58
-15.85
-17.11
-18.11
-18.49
-18.02
-16.84
-15.36
-14.09
-13.35
-13.05
-12.81
-12.26
-11.42
-10.72
-10.88
-12.48
-15.66
-20.02
-24.82
-29.32
-33.02
-35.8
-37.75
-39.03
-39.74
-39.92
-39.63
-39.07
-38.56
-38.44
-38.93
-40.06
-41.65
-43.42
-45.04
-46.25
-46.8
-46.54
-45.29
-42.91
-39.33
-34.63
-29.09
-23.09
-17.03
-11.26
-6.04
-1.6
1.87
4.22
5.42
5.63
5.2
4.59
4.21
4.29
4.87
5.83
7.05
8.43
9.89
11.36
12.72
13.78
14.42
14.45
13.71
11.99
9.09
4.89
-0.6
-7.16
-14.39
-21.68
-28.34
-33.65
-37.1
-38.54
-38.27
-36.97
-35.48
-34.51
-34.41
-35.08
-36.18
-37.35
-38.4
-39.38
-40.44
-41.66
-42.95
-44.09
-44.91
-45.41
-45.71
-45.8
-45.3
-43.55
-39.9
-34.12
-26.64
-18.34
-10.04
-2.06
5.98
14.74
24.65
35.44
46.22
55.86
63.56
69.18
73.06
75.69
77.35
78.06
77.75
76.45
74.37
71.74
68.7
65.13
60.65
54.83
47.45
38.69
29.14
19.7
11.22
4.3
-0.92
-4.72
-7.59
-10.0
-12.24
-14.42
-16.49
-18.38
-20.07
-21.5
-22.65
-23.46
-23.93
-24.14
-24.31
-24.58
-24.96
-25.12
-24.54
-22.66
-19.21
-14.39
-8.85
-3.44
1.07
4.24
5.99
6.46
5.83
4.22
1.7
-1.63
-5.54
-9.67
-13.59
-16.99
-19.74
-21.92
-23.78
-25.63
-27.7
-30.09
-32.74
-35.48
-38.05
-40.27
-42.06
-43.44
-44.5
-45.19
-45.3
-44.5
-42.4
-38.81
-33.73
-27.42
-20.22
-12.54
-4.78
2.66
9.39
15.04
19.36
22.26
23.85
24.43
24.34
23.92
23.46
23.17
23.21
23.63
24.4
25.41
26.49
27.48
28.24
28.69
28.76
28.43
27.62
26.23
24.12
21.17
17.36
12.82
7.89
3.05
-1.11
-4.09
-5.59
-5.6
-4.44
-2.6
-0.65
1.01
2.07
2.41
2.04
0.95
-0.73
-2.84
-5.09
-7.14
-8.7
-9.61
-9.84
-9.44
-8.46
-6.96
-5.05
-2.97
-0.99
0.59
1.64
2.27
2.62
2.81
2.76
2.21
0.96
-1.03
-3.44
-5.76
-7.32
-7.61
-6.27
-3.18
1.57
7.54
14.07
20.24
25.15
28.16
29.06
28.13
25.96
23.25
20.51
18.06
16.07
14.58
13.63
13.2
13.22
13.47
13.7
13.67
13.27
12.54
11.59
10.53
9.41
8.16
6.67
4.81
2.62
0.27
-1.96
-3.72
-4.68
-4.67
-3.56
-1.42
1.61
5.22
8.95
12.25
14.63
15.75
15.6
14.43
12.7
10.88
9.33
8.25
7.68
7.56
7.79
8.25
8.79
9.28
9.6
9.7
9.61
9.35
8.9
8.25
7.37
6.32
5.23
4.19
3.13
1.87
0.17
-2.09
-4.73
-7.37
-9.47
-10.62
-10.68
-9.85
-8.56
-7.28
-6.34
-5.79
-5.52
-5.37
-5.25
-5.19
-5.24
-5.38
-5.47
-5.25
-4.5
-3.15
-1.33
0.63
2.41
3.81
4.85
5.69
6.55
7.56
8.7
9.87
10.96
11.89
12.68
13.34
13.85
14.13
14.1
13.75
13.18
12.67
12.58
13.23
14.81
17.25
20.2
23.18
25.74
27.6
28.68
29.1
29.04
28.58
27.76
26.55
25.03
23.45
22.15
21.39
21.25
21.58
22.04
22.28
22.07
21.39
20.37
19.18
18.04
17.01
16.04
14.97
13.65
11.99
10.04
7.95
5.92
4.15
2.79
1.98
1.8
2.26
3.21
4.29
5.0
4.81
3.43
0.86
-2.59
-6.49
-10.47
-14.29
-17.91
-21.31
-24.45
-27.26
-29.59
-31.37
-32.57
-33.23
-33.49
-33.49
-33.42
-33.42
-33.6
-33.98
-34.5
-35.05
-35.5
-35.76
-35.69
-35.12
-33.91
-32.04
-29.72
-27.39
-25.58
-24.64
-24.56
-24.9
-24.96
-24.17
-22.4
-20.12
-18.3
-18.07
-20.29
-25.29
-32.82
-42.17
-52.54
-63.16
-73.53
-83.39
-92.77
-101.87
-111.03
-120.55
-130.46
-140.21
-148.59
-153.95
-154.78
-150.24
-140.64
-127.14
-111.21
-94.0
-75.91
-56.83
-36.57
-15.36
6.15
27.15
47.12
66.18
85.03
104.54
125.32
147.32
169.85
191.82
212.17
230.43
247.01
263.17
280.5
300.27
322.7
346.49
368.78
385.5
392.21
385.16
362.49
325.21
277.56
226.31
179.26
142.83
120.05
109.53
106.18
103.39
95.62
80.43
58.9
34.43
10.61
-10.62
-29.72
-48.79
-69.91
-93.6
-118.25
-140.91
-158.76
-170.36
-175.92
-176.55
-173.18
-165.82
-153.74
-136.35
-114.18
-89.11
-63.95
-41.32
-22.8
-8.6
1.88
9.25
13.37
13.23
7.43
-5.07
-24.3
-49.18
-77.67
-107.28
-135.55
-160.55
-181.14
-197.13
-209.28
-218.85
-227.1
-234.62
-240.91
-244.53
-243.68
-237.11
-224.72
-207.77
-188.5
-169.46
-152.87
-140.22
-132.19
-128.48
-127.97
-128.71
-128.27
-124.2
-114.75
-99.47
-79.52
-57.48
-36.92
-21.72
-15.12
-18.75
-31.74
-50.45
-69.0
-80.9
-81.17
-68.11
-44.15
-14.82
13.32
35.19
48.77
55.26
57.72
59.06
60.44
60.77
57.78
49.69
36.92
22.5
11.1
7.09
12.54
26.43
45.36
65.38
83.89
100.63
117.26
135.97
157.74
181.55
204.56
223.34
235.41
240.27
239.47
235.79
231.86
229.12
227.37
225.46
222.37
218.12
213.99
211.83
212.85
216.56
220.42
220.48
212.86
195.1
167.24
131.78
92.71
54.05
18.42
-13.65
-43.43
-73.08
-104.44
-138.51
-175.44
-214.62
-254.55
-292.46
-323.97
-343.66
-346.72
-330.89
-297.98
-253.6
-205.27
-159.58
-120.45
-88.97
-64.85
-47.95
-38.75
-37.45
-42.39
-49.4
-52.74
-47.37
-31.12
-5.66
24.57
54.63
81.41
104.94
128.16
155.42
190.16
232.86
279.67
322.99
353.45
363.19
348.84
312.76
261.8
204.36
147.16
93.29
42.2
-8.67
-61.99
-119.2
-179.91
-241.92
-301.65
-354.78
-397.23
-426.22
-441.0
-442.79
-433.84
-416.43
-392.23
-362.4
-328.21
-291.54
-254.71
-219.75
-187.55
-157.63
-128.63
-99.18
-68.55
-36.69
-3.7
30.92
68.6
110.97
158.44
208.63
255.92
292.79
312.53
312.2
294.15
265.23
234.08
207.83
189.93
180.04
175.46
173.23
171.25
168.5
164.56
159.09
152.05
144.06
136.5
131.16
129.41
131.63
136.92
143.59
149.74
153.62
153.91
149.4
139.09
122.45
99.76
72.34
42.28
11.73
-17.87
-46.19
-73.77
-101.19
-128.13
-153.0
-173.19
-185.96
-189.32
-182.46
-165.74
-140.38
-108.27
-72.15
-35.65
-2.91
22.58
39.21
47.94
51.64
53.31
53.99
51.91
43.03
23.48
-8.22
-49.96
-96.69
-142.15
-181.03
-210.03
-227.89
-234.72
-231.34
-219.35
-201.61
-182.48
-167.07
-159.6
-161.37
-169.55
-177.83
-178.51
-165.51
-136.54
-93.91
-43.4
7.75
52.97
87.81
110.43
121.34
122.72
117.54
108.74
98.54
88.12
77.74
67.12
55.79
43.43
29.96
15.88
2.46
-8.13
-13.29
-11.0
-0.97
14.82
32.53
47.88
57.82
61.8
61.82
61.27
63.41
69.85
79.95
91.18
100.14
103.92
101.09
92.08
78.92
64.44
51.3
41.24
34.78
31.38
29.99
29.79
30.62
33.16
38.59
47.81
60.64
75.58
90.09
101.64
108.86
112.31
114.44
118.67
128.14
144.51
167.26
193.61
218.81
236.67
240.62
225.22
188.62
134.78
74.36
22.54
-6.14
-3.58
27.73
75.15
121.03
149.86
153.73
133.83
97.65
54.61
12.6
-23.24
-49.88
-65.65
-70.28
-65.64
-55.96
-46.74
-42.73
-46.22
-56.63
-71.36
-87.39
-102.1
-113.45
-119.48
-117.89
-106.45
-83.57
-49.16
-4.98
45.49
97.45
145.95
186.98
218.45
240.24
253.58
259.76
259.15
250.91
233.79
207.34
172.8
133.22
92.5
53.97
19.36
-11.5
-40.07
-68.0
-96.25
-124.82
-153.09
-180.65
-207.95
-236.34
-267.3
-301.4
-337.81
-374.2
-407.64
-435.15
-454.01
-461.64
-455.35
-432.87
-393.53
-339.8
-277.84
-216.41
-164.2
-126.47
-102.99
-88.34
-74.28
-52.86
-19.07
27.88
84.52
143.82
196.5
233.03
246.28
234.16
201.19
157.74
116.64
88.76
79.32
87.04
105.97
129.03
150.66
167.8
179.07
183.35
179.15
165.19
141.61
110.73
76.87
45.04
19.13
0.68
-11.24
-19.26
-26.28
-34.03
-42.56
-50.38
-55.69
-57.48
-56.32
-54.13
-53.16
-54.87
-59.22
-64.8
-69.46
-71.25
-69.04
-62.69
-52.88
-40.69
-27.32
-13.76
-0.74
11.36
22.3
31.95
40.19
47.05
52.93
58.82
66.14
76.3
90.07
107.04
125.36
142.0
153.46
156.62
149.6
132.47
107.35
78.15
49.76
26.88
12.87
8.87
13.41
22.66
31.4
34.49
28.69
13.86
-6.97
-28.96
-47.53
-60.33
-67.95
-72.99
-78.31
-85.46
-94.29
-103.82
-113.53
-124.01
-136.51
-151.67
-168.49
-184.26
-195.52
-199.17
-193.34
-177.52
-152.31
-119.41
-81.59
-42.71
-7.48
19.54
34.78
36.35
23.95
-1.65
-39.04
-86.16
-139.78
-195.12
-245.91
-285.57
-308.77
-312.85
-298.33
-268.13
-226.11
-175.84
-120.23
-61.99
-4.72
46.6
86.19
109.27
114.06
102.99
82.26
59.92
43.22
36.45
40.22
52.01
67.4
81.57
90.51
91.82
85.29
72.92
58.39
45.8
38.46
37.88
43.62
54.05
67.43
82.6
98.7
114.32
126.84
132.66
128.56
113.44
89.57
62.18
37.84
21.93
17.03
22.41
35.17
51.95
70.33
89.34
108.96
129.19
149.38
168.12
183.72
194.85
201.18
203.49
203.59
203.6
205.34
209.62
216.05
223.38
230.17
235.57
239.59
242.89
246.23
249.85
253.26
255.46
255.38
252.19
245.47
235.13
221.39
204.79
186.26
166.95
147.88
129.51
111.44
92.69
72.03
48.65
22.39
-6.31
-36.8
-68.44
-100.75
-133.19
-164.96
-195.0
-222.3
-246.44
-267.81
-287.57
-306.94
-326.38
-344.85
-359.78
-367.89
-366.47
-354.87
-335.17
-311.7
-289.77
-273.91
-266.74
-268.64
-278.29
-293.51
-311.77
-330.31
-346.04
-355.68
-356.18
-345.53
-323.35
-291.08
-251.55
-208.33
-164.95
-124.44
-88.98
-59.81
-37.15
-20.4
-8.43
0.11
6.45
11.64
16.62
22.16
28.86
36.95
46.18
55.85
65.12
73.19
79.59
84.23
87.3
89.21
90.29
90.73
90.5
89.39
87.11
83.46
78.39
71.98
64.38
55.8
46.53
37.04
27.92
19.76
12.96
7.53
3.07
-0.96
-4.94
-8.76
-11.85
-13.41
-12.78
-9.76
-4.72
1.59
8.27
14.55
19.92
24.1
27.0
28.64
29.09
28.47
26.97
24.84
22.42
20.06
18.08
16.73
16.11
16.11
16.36
16.38
15.68
13.94
11.09
7.33
2.94
-1.78
-6.61
-11.26
-15.37
-18.42
-19.92
-19.58
-17.45
-13.96
-9.77
-5.45
-1.34
2.54
6.28
9.95
13.38
16.29
18.34
19.37
19.49
19.02
18.29
17.56
16.94
16.41
16.0
15.76
15.75
15.9
15.97
15.57
14.32
11.98
8.63
4.63
0.5
-3.22
-6.07
-7.73
-7.98
-6.75
-4.07
-0.11
4.81
10.24
15.69
20.66
24.72
27.58
29.08
29.27
28.42
26.94
25.26
23.68
22.27
20.91
19.39
17.59
15.53
13.41
11.47
9.83
8.53
7.46
6.52
5.65
4.83
4.07
3.35
2.64
1.96
1.41
1.18
1.49
2.47
4.17
6.5
9.24
12.17
15.09
17.87
20.37
22.45
23.88
24.46
24.13
23.05
21.58
20.19
19.24
18.82
18.78
18.73
18.28
17.06
14.8
11.34
6.64
0.79
-5.92
-13.03
-20.06
-26.54
-32.23
-37.05
-40.99
-44.06
-46.19
-47.27
-47.23
-46.04
-43.75
-40.37
-35.93
-30.45
-24.08
-17.1
-10.0
-3.38
2.22
6.44
9.21
10.73
11.38
11.56
11.61
11.73
11.96
12.28
12.63
12.94
13.11
13.03
12.57
11.62
10.19
8.43
6.55
4.77
3.18
1.73
0.28
-1.26
-2.76
-3.86
-4.04
-2.86
-0.14
3.88
8.56
13.09
16.76
19.18
20.32
20.43
19.88
18.88
17.52
15.75
13.57
11.05
8.39
5.8
3.39
1.16
-0.95
-3.04
-5.16
-7.41
-9.96
-13.12
-17.24
-22.35
-27.94
-32.94
-35.94
-35.78
-32.02
-25.2
-16.61
-7.77
0.15
6.64
11.82
16.1
19.89
23.46
26.91
30.33
33.7
36.71
38.68
38.52
35.06
27.45
15.62
0.44
-16.31
-32.34
-45.42
-53.99
-57.6
-56.97
-53.69
-49.65
-46.4
-44.58
-43.96
-43.57
-42.31
-39.47
-35.03
-29.65
-24.34
-20.09
-17.47
-16.57
-16.99
-17.99
-18.64
-17.8
-14.33
-7.3
3.48
17.2
31.98
45.26
54.66
58.7
57.27
51.46
43.09
34.04
25.82
19.32
14.89
12.49
11.72
11.98
12.55
12.77
12.13
10.43
7.71
4.22
0.28
-3.75
-7.59
-11.0
-13.78
-15.82
-16.98
-17.15
-16.26
-14.32
-11.33
-7.3
-2.32
3.38
9.31
14.72
18.84
21.08
21.38
20.15
18.15
16.08
14.31
12.81
11.32
9.5
7.22
4.56
1.79
-0.78
-2.86
-4.22
-4.81
-4.7
-4.15
-3.5
-3.02
-2.74
-2.45
-1.79
-0.42
1.79
4.8
8.4
12.4
16.65
20.99
25.18
28.9
31.87
33.94
35.3
36.4
37.83
40.09
43.44
47.75
52.62
57.38
61.32
63.82
64.47
63.26
60.45
56.58
52.23
47.86
43.85
40.43
37.81
36.22
35.9
37.02
39.73
44.07
49.95
57.03
64.62
71.71
77.12
79.92
79.88
77.83
75.6
75.56
79.82
89.3
103.26
119.36
134.37
145.25
150.16
148.97
143.01
134.49
125.44
117.04
109.29
100.99
90.06
74.06
50.98
20.21
-16.81
-56.47
-93.67
-123.33
-142.07
-149.0
-145.93
-136.52
-124.9
-114.8
-108.78
-107.73
-110.57
-114.52
-115.99
-111.99
-101.15
-84.02
-62.44
-38.85
-15.61
4.99
20.66
29.91
33.16
33.72
37.15
48.84
70.65
98.75
124.29
137.1
130.42
103.97
63.69
18.44
-24.13
-60.06
-89.07
-112.64
-131.64
-145.18
-151.4
-148.94
-138.5
-122.97
-106.42
-92.73
-84.82
-84.46
-92.34
-108.08
-129.54
-152.62
-171.83
-182.07
-180.78
-169.07
-151.2
-132.46
-116.85
-105.82
-98.8
-94.79
-93.76
-96.91
-105.63
-119.96
-137.96
-156.28
-171.65
-182.18
-187.9
-190.2
-190.74
-190.37
-188.74
-184.56
-176.36
-163.13
-144.69
-121.59
-94.92
-66.07
-36.57
-8.13
17.63
39.35
56.3
68.44
76.33
80.8
82.69
82.76
81.67
80.02
78.25
76.56
74.77
72.45
69.1
64.39
58.32
51.29
43.98
37.29
32.1
29.11
28.65
30.59
34.3
38.92
43.62
47.89
51.53
54.6
57.16
59.14
60.41
60.85
60.54
59.8
59.02
58.52
58.38
58.57
59.03
59.87
61.35
63.77
67.19
71.26
75.34
78.68
80.65
80.95
79.67
77.22
74.24
71.54
70.0
70.45
73.37
78.61
85.3
92.06
97.48
100.77
101.99
101.96
101.68
101.71
101.82
101.12
98.61
93.82
87.07
79.37
71.97
65.84
61.35
58.29
55.88
53.02
48.48
41.23
30.82
17.62
2.7
-12.44
-26.45
-38.48
-48.23
-55.71
-60.98
-63.95
-64.44
-62.4
-58.13
-52.18
-45.34
-38.36
-31.87
-26.33
-22.11
-19.48
-18.72
-19.99
-23.34
-28.57
-35.23
-42.68
-50.24
-57.59
-64.9
-72.79
-81.85
-92.22
-103.16
-113.19
-120.61
-124.21
-123.61
-119.33
-112.39
-103.83
-94.43
-84.65
-74.77
-64.93
-55.09
-44.94
-33.83
-21.14
-6.57
9.47
25.77
40.63
52.27
59.31
61.06
57.67
50.18
40.27
29.97
21.16
15.09
12.1
11.66
12.74
14.27
15.67
16.85
18.05
19.47
21.08
22.63
23.89
24.88
25.81
26.72
27.07
25.6
20.61
10.58
-5.03
-25.4
-48.36
-70.92
-90.01
-103.1
-108.62
-106.08
-96.0
-79.74
-59.24
-36.58
-13.65
8.18
28.22
46.43
63.22
79.17
94.71
109.93
124.51
137.86
149.42
158.91
166.49
172.66
177.9
182.29
185.28
185.69
181.94
172.53
156.51
133.84
105.68
74.3
42.67
13.83
-9.89
-27.38
-38.8
-45.24
-48.05
-48.31
-46.69
-43.63
-39.69
-35.76
-32.94
-32.16
-33.85
-37.84
-43.57
-50.4
-57.86
-65.68
-73.62
-81.32
-88.33
-94.25
-98.95
-102.7
-106.07
-109.73
-114.21
-119.78
-126.42
-133.82
-141.41
-148.41
-153.93
-157.24
-157.97
-156.38
-153.28
-149.84
-147.06
-145.36
-144.32
-142.77
-139.22
-132.25
-120.89
-104.85
-84.52
-60.88
-35.5
-10.37
12.41
30.99
44.37
52.85
58.03
62.36
68.27
77.25
89.33
103.27
117.17
129.2
138.23
144.04
147.09
148.25
148.39
148.2
148.18
148.53
149.24
150.03
150.38
149.49
146.42
140.16
129.88
115.25
96.76
75.86
54.53
34.5
16.59
0.6
-14.27
-28.61
-42.25
-54.41
-64.21
-71.31
-75.98
-78.55
-78.77
-75.73
-68.58
-57.56
-44.55
-32.58
-24.39
-21.04
-21.36
-22.73
-22.58
-19.71
-14.51
-8.37
-2.89
0.62
1.16
-1.99
-8.97
-18.86
-29.36
-37.4
-40.46
-37.91
-31.38
-23.95
-18.45
-15.94
-15.17
-13.36
-7.63
3.84
21.37
44.12
70.69
99.59
129.31
158.38
185.27
208.51
226.86
239.54
246.49
248.54
247.32
244.87
242.91
242.17
242.15
241.39
238.1
230.87
218.9
202.15
181.15
157.07
131.62
106.96
85.22
67.94
55.44
46.73
39.81
32.25
22.0
7.86
-10.28
-31.56
-54.46
-77.13
-97.79
-115.0
-127.7
-135.31
-137.79
-135.64
-129.96
-122.19
-113.67
-105.19
-96.74
-87.91
-78.46
-68.98
-61.02
-56.64
-57.59
-64.37
-75.98
-90.14
-104.13
-115.67
-123.6
-128.02
-129.76
-129.76
-128.34
-125.13
-119.38
-110.57
-99.01
-85.83
-72.71
-61.23
-52.41
-46.57
-43.47
-42.62
-43.52
-45.78
-49.26
-53.92
-59.79
-66.91
-75.22
-84.59
-94.83
-105.75
-117.02
-128.08
-138.06
-145.99
-151.12
-153.41
-153.71
-153.53
-154.34
-156.94
-161.03
-165.42
-168.52
-168.96
-165.82
-158.68
-147.47
-132.46
-114.3
-94.11
-73.38
-53.57
-35.67
-19.84
-5.59
7.81
20.92
33.8
46.19
57.85
68.79
79.32
89.89
100.73
111.67
122.18
131.49
138.98
144.36
147.71
149.37
149.68
148.83
146.74
143.23
138.11
131.39
123.28
114.16
104.48
94.6
84.77
75.17
66.03
57.64
50.32
44.36
39.85
36.59
34.1
31.77
29.1
25.96
22.67
19.94
18.6
19.3
22.24
27.13
33.33
40.08
46.68
52.58
57.39
60.82
62.61
62.51
60.35
56.09
49.89
42.13
33.4
24.37
15.73
7.89
0.96
-5.23
-11.12
-17.2
-23.96
-31.69
-40.44
-49.93
-59.52
-68.36
-75.65
-80.89
-84.07
-85.66
-86.3
-86.54
-86.59
-86.35
-85.61
-84.28
-82.49
-80.51
-78.58
-76.7
-74.65
-72.11
-68.86
-64.99
-60.97
-57.51
-55.27
-54.57
-55.17
-56.28
-56.78
-55.64
-52.27
-46.75
-39.82
-32.51
-25.84
-20.48
-16.7
-14.38
-13.23
-12.87
-12.97
-13.24
-13.55
-13.92
-14.55
-15.67
-17.4
-19.55
-21.58
-22.72
-22.19
-19.53
-14.8
-8.58
-1.79
4.65
10.05
14.1
16.85
18.61
19.73
20.56
21.39
22.36
23.55
24.89
26.22
27.31
27.88
27.74
26.85
25.4
23.75
22.41
21.74
21.88
22.68
23.75
24.66
25.13
25.2
25.07
25.07
25.45
26.37
27.99
30.54
34.3
39.48
46.05
53.59
61.39
68.61
74.66
79.33
82.8
85.43
87.49
88.94
89.5
88.8
86.54
82.63
77.13
70.1
61.53
51.37
39.6
26.41
12.19
-2.56
-17.37
-31.9
-45.97
-59.51
-72.47
-84.93
-97.06
-109.12
-121.29
-133.42
-144.95
-154.93
-162.35
-166.46
-167.05
-164.54
-159.74
-153.58
-146.9
-140.35
-134.37
-129.12
-124.49
-120.09
-115.25
-109.21
-101.35
-91.29
-78.93
-64.47
-48.29
-30.9
-12.87
5.09
22.13
37.19
49.21
57.32
61.13
60.99
57.89
53.11
47.75
42.35
36.85
30.92
24.46
17.9
12.16
8.27
6.96
8.38
12.08
17.36
23.51
29.99
36.42
42.55
48.18
53.08
57.01
59.76
61.22
61.42
60.68
59.5
58.45
57.95
58.1
58.75
59.75
61.1
63.04
65.87
69.65
74.05
78.33
81.7
83.69
84.36
84.32
84.42
85.37
87.43
90.25
93.03
94.81
95.0
93.72
91.92
91.16
92.99
98.28
106.83
117.25
127.42
135.06
138.37
136.61
130.52
122.43
115.73
113.63
117.52
125.61
132.59
131.15
114.42
78.78
25.55
-38.96
-105.14
-162.68
-203.26
-222.6
-221.35
-204.78
-181.0
-158.57
-143.93
-139.65
-144.34
-153.83
-163.36
-169.35
-170.14
-165.72
-156.84
-144.44
-129.38
-112.6
-94.93
-76.65
-56.93
-33.92
-5.46
29.61
70.23
112.92
152.62
184.4
205.04
213.9
212.72
204.48
192.31
178.64
165.13
152.83
142.45
134.33
128.24
123.2
117.69
110.18
99.72
86.61
72.43
59.63
50.76
47.52
50.3
58.08
68.94
80.72
91.51
100.07
105.62
107.77
106.21
100.83
91.8
79.92
66.78
54.55
45.55
41.54
43.09
49.31
58.09
66.71
72.64
74.29
71.16
63.83
53.55
41.83
30.09
19.46
10.66
4.07
-0.03
-1.14
1.62
9.45
23.29
43.06
66.82
90.72
109.68
118.91
115.56
99.8
74.47
44.01
12.46
-17.79
-46.56
-75.3
-106.33
-141.94
-183.71
-231.48
-282.36
-330.35
-367.21
-385.02
-379.33
-351.5
-308.53
-260.41
-216.14
-180.71
-154.39
-134.51
-118.16
-104.08
-92.66
-84.57
-79.36
-75.0
-68.86
-59.27
-46.45
-32.44
-20.16
-11.93
-8.5
-8.87
-10.91
-12.52
-12.52
-11.11
-9.51
-9.2
-11.01
-14.67
-18.95
-22.29
-23.57
-22.56
-19.97
-17.03
-14.9
-14.17
-14.75
-16.03
-17.26
-17.96
-18.04
-17.66
-17.08
-16.38
-15.33
-13.49
-10.47
-6.1
-0.66
5.22
10.79
15.42
18.77
20.82
21.77
21.88
21.32
20.26
18.85
17.34
16.05
15.25
15.03
15.27
15.64
15.75
15.31
14.22
12.63
10.82
9.1
7.66
6.47
5.34
4.01
2.41
0.66
-0.81
-1.45
-0.82
1.29
4.71
9.0
13.54
17.73
21.1
23.35
24.4
24.31
23.33
21.71
19.8
17.86
16.11
14.69
13.67
13.05
12.77
12.72
12.68
12.45
11.86
10.78
9.28
7.48
5.57
3.65
1.81
0.04
-1.59
-2.87
-3.51
-3.11
-1.43
1.5
5.37
9.6
13.53
16.62
18.54
19.2
18.76
17.42
15.47
13.16
10.74
8.4
6.31
4.57
3.2
2.22
1.61
1.3
1.16
0.97
0.52
-0.38
-1.79
-3.67
-5.9
-8.28
-10.6
-12.57
-13.84
-14.09
-13.13
-10.97
-7.83
-4.07
-0.06
3.86
7.43
10.34
12.27
12.89
12.07
9.94
6.87
3.43
0.24
-2.19
-3.5
-3.54
-2.36
-0.17
2.74
6.04
9.49
12.88
16.06
18.77
20.73
21.65
21.46
20.38
19.02
18.28
19.03
21.89
26.92
33.45
40.23
45.57
47.87
45.92
39.35
28.6
14.79
-0.56
-15.9
-29.96
-41.79
-50.84
-56.98
-60.29
-61.15
-60.05
-57.55
-54.2
-50.45
-46.71
-43.27
-40.39
-38.19
-36.78
-36.18
-36.26
-36.68
-36.96
-36.53
-34.84
-31.65
-27.04
-21.45
-15.51
-9.83
-4.93
-1.1
1.5
2.87
3.12
2.47
1.21
-0.3
-1.74
-2.93
-3.76
-4.26
-4.54
-4.74
-4.99
-5.38
-5.88
-6.4
-6.81
-7.03
-7.07
-7.06
-7.13
-7.37
-7.71
-7.88
-7.57
-6.46
-4.44
-1.59
1.77
5.24
8.44
11.07
13.0
14.2
14.71
14.54
13.69
12.17
10.14
7.94
6.02
4.9
4.86
5.93
7.77
9.88
11.73
12.95
13.4
13.12
12.23
10.88
9.2
7.34
5.44
3.63
1.94
0.31
-1.33
-2.96
-4.39
-5.31
-5.27
-3.95
-1.22
2.71
7.38
12.09
16.18
19.11
20.58
20.6
19.36
17.14
14.22
10.94
7.57
4.5
2.03
0.35
-0.55
-0.86
-0.9
-0.89
-0.92
-0.95
-0.83
-0.54
-0.2
-0.01
-0.29
-1.28
-3.07
-5.63
-8.73
-12.03
-15.08
-17.41
-18.63
-18.53
-17.12
-14.63
-11.45
-8.02
-4.81
-2.19
-0.45
0.31
0.14
-0.8
-2.25
-3.97
-5.76
-7.5
-9.09
-10.44
-11.56
-12.49
-13.29
-14.05
-14.83
-15.66
-16.58
-17.68
-19.05
-20.84
-23.07
-25.64
-28.37
-30.97
-33.11
-34.44
-34.68
-33.61
-31.17
-27.37
-22.43
-16.62
-10.28
-3.69
2.82
8.95
14.42
19.05
22.81
25.76
28.08
29.91
31.27
32.11
32.31
31.78
30.57
28.82
26.76
24.57
22.37
20.16
17.9
15.54
13.03
10.37
7.5
4.43
1.23
-1.92
-4.73
-6.8
-7.74
-7.25
-5.29
-2.09
1.89
6.09
9.94
13.04
15.2
16.42
16.8
16.49
15.63
14.34
12.76
11.07
9.47
8.17
7.28
6.79
6.55
6.37
6.06
5.5
4.69
3.72
2.7
1.72
0.85
0.1
-0.51
-1.02
-1.5
-2.08
-2.92
-4.08
-5.43
-6.62
-7.16
-6.63
-4.83
-1.91
1.7
5.48
8.99
11.94
14.2
15.7
16.37
16.13
15.04
13.31
11.28
9.38
7.91
7.03
6.65
6.6
6.68
6.77
6.81
6.81
6.76
6.6
6.26
5.63
4.65
3.3
1.63
-0.24
-2.2
-4.2
-6.26
-8.41
-10.67
-12.89
-14.78
-15.96
-16.07
-14.94
-12.57
-9.25
-5.34
-1.29
2.45
5.51
7.6
8.58
8.46
7.43
5.75
3.75
1.73
-0.08
-1.45
-2.28
-2.52
-2.26
-1.7
-1.09
-0.67
-0.58
-0.84
-1.32
-1.92
-2.52
-3.14
-3.86
-4.77
-5.94
-7.31
-8.77
-10.14
-11.18
-11.68
-11.43
-10.3
-8.27
-5.53
-2.39
0.7
3.38
5.41
6.73
7.42
7.57
7.18
6.22
4.67
2.69
0.59
-1.24
-2.51
-3.12
-3.18
-2.98
-2.76
-2.67
-2.76
-2.98
-3.23
-3.51
-3.8
-4.14
-4.62
-5.33
-6.35
-7.7
-9.28
-10.85
-12.08
-12.6
-12.16
-10.65
-8.16
-4.97
-1.48
1.92
4.89
7.22
8.81
9.66
9.83
9.41
8.55
7.39
6.15
5.0
4.09
3.52
3.3
3.33
3.44
3.4
3.02
2.25
1.19
0.03
-1.1
-2.16
-3.27
-4.57
-6.17
-8.0
-9.89
-11.62
-13.01
-13.95
-14.38
-14.16
-13.18
-11.31
-8.56
-5.09
-1.23
2.64
6.13
8.96
10.99
12.14
12.43
11.91
10.7
8.97
7.02
5.22
3.89
3.25
3.28
3.8
4.49
5.08
5.44
5.56
5.52
5.4
5.26
5.11
4.97
4.83
4.63
4.33
3.82
3.09
2.19
1.33
0.81
0.91
1.88
3.83
6.77
10.59
15.03
19.77
24.45
28.71
32.32
35.2
37.33
38.79
39.59
39.79
39.44
38.66
37.62
36.41
35.0
33.19
30.8
27.77
24.24
20.51
16.84
13.36
9.96
6.38
2.42
-2.01
-6.84
-11.98
-17.44
-23.27
-29.47
-35.83
-41.84
-46.86
-50.3
-51.88
-51.7
-50.17
-47.82
-45.1
-42.33
-39.67
-37.22
-35.08
-33.36
-32.11
-31.32
-30.9
-30.76
-30.81
-30.97
-31.15
-31.21
-30.97
-30.27
-29.02
-27.26
-25.19
-23.12
-21.35
-20.1
-19.48
-19.48
-19.98
-20.8
-21.68
-22.32
-22.37
-21.48
-19.42
-16.12
-11.7
-6.5
-0.96
4.48
9.38
13.39
16.3
17.99
18.52
18.05
16.85
15.25
13.57
12.07
10.96
10.35
10.21
10.41
10.74
10.94
10.78
10.13
8.96
7.35
5.45
3.43
1.4
-0.58
-2.5
-4.34
-6.02
-7.36
-8.12
-8.02
-6.98
-5.06
-2.5
0.34
3.14
5.66
7.77
9.37
10.39
10.78
10.53
9.73
8.5
7.09
5.74
4.68
4.08
3.99
4.34
4.94
5.51
5.83
5.78
5.42
4.89
4.34
3.83
3.35
2.75
1.92
0.74
-0.82
-2.75
-4.92
-7.03
-8.65
-9.27
-8.52
-6.28
-2.85
1.19
5.15
8.43
10.74
12.04
12.47
12.21
11.41
10.19
8.69
7.07
5.57
4.42
3.74
3.61
3.96
4.69
5.67
6.82
8.07
9.35
10.6
11.75
12.69
13.36
13.74
13.84
13.66
13.18
12.35
11.16
9.7
8.18
6.85
5.98
5.68
5.97
6.73
7.78
8.88
9.77
10.11
9.59
8.02
5.42
2.06
-1.57
-4.97
-7.73
-9.65
-10.66
-10.86
-10.38
-9.44
-8.29
-7.19
-6.36
-5.85
-5.6
-5.51
-5.53
-5.67
-6.01
-6.62
-7.48
-8.57
-9.86
-11.34
-12.96
-14.52
-15.63
-15.86
-14.88
-12.67
-9.52
-5.95
-2.47
0.57
3.05
4.96
6.26
6.92
6.87
6.15
4.93
3.55
2.32
1.51
1.18
1.19
1.29
1.24
0.88
0.23
-0.53
-1.2
-1.67
-1.97
-2.24
-2.68
-3.36
-4.24
-5.19
-6.1
-6.87
-7.5
-7.92
-7.92
-7.2
-5.48
-2.62
1.27
5.86
10.73
15.48
19.85
23.7
26.98
29.62
31.66
33.21
34.45
35.62
36.95
38.5
40.24
42.0
43.64
45.05
46.27
47.37
48.42
49.46
50.37
50.97
51.05
50.46
49.17
47.3
45.11
42.8
40.49
38.14
35.58
32.67
29.36
25.76
22.12
18.73
15.87
13.76
12.53
12.17
12.5
13.08
13.24
12.13
9.0
3.4
-4.72
-14.97
-26.74
-39.36
-52.32
-65.22
-77.74
-89.5
-99.98
-108.59
-114.73
-118.07
-118.66
-117.01
-113.99
-110.63
-107.86
-106.36
-106.41
-107.88
-110.24
-112.68
-114.2
-113.84
-110.98
-105.51
-98.05
-89.7
-81.77
-75.24
-70.51
-67.3
-64.92
-62.62
-59.84
-56.31
-51.85
-46.25
-39.18
-30.29
-19.57
-7.45
5.14
17.13
27.64
36.31
43.35
49.32
54.83
60.28
65.72
70.96
75.68
79.56
82.37
83.97
84.3
83.44
81.65
79.32
76.88
74.79
73.34
72.67
72.73
73.37
74.32
75.28
75.98
76.19
75.88
75.25
74.72
74.83
76.05
78.69
82.77
88.03
94.0
100.1
105.79
110.67
114.6
117.71
120.36
122.88
125.35
127.49
128.52
127.56
123.92
117.51
109.0
99.61
90.67
83.04
76.74
70.97
64.43
55.88
44.71
31.09
15.89
0.37
-14.21
-26.87
-37.05
-44.79
-50.83
-56.66
-64.29
-75.48
-90.67
-108.04
-123.21
-130.22
-123.69
-101.56
-66.68
-26.87
7.45
26.78
25.57
3.44
-35.9
-86.83
-143.67
-201.17
-253.84
-295.24
-318.53
-318.4
-293.36
-246.94
-186.79
-121.9
-59.25
-1.89
51.04
102.07
152.76
201.81
245.18
277.74
295.66
298.22
288.1
270.21
249.62
229.81
212.29
197.19
184.41
174.36
167.8
165.01
165.05
165.59
163.67
156.82
143.96
125.57
103.35
79.23
54.55
29.62
3.67
-24.46
-55.46
-88.57
-121.25
-149.81
-170.82
-182.85
-187.14
-187.23
-187.24
-189.99
-195.86
-203.12
-209.36
-213.09
-214.59
-215.36
-216.93
-219.74
-222.74
-224.05
-221.92
-215.5
-204.99
-191.33
-175.54
-158.39
-140.47
-122.27
-104.41
-87.26
-70.51
-52.73
-31.63
-4.97
28.1
66.02
104.72
138.65
162.71
174.06
173.06
163.01
148.72
134.81
124.42
118.77
117.48
119.33
122.8
126.29
127.91
125.47
116.67
99.7
73.94
40.31
0.97
-41.48
-84.98
-128.45
-171.66
-214.47
-255.87
-293.51
-323.9
-343.34
-348.93
-339.46
-315.67
-279.93
-235.54
-185.89
-133.76
-80.75
-27.37
26.45
80.38
132.98
181.63
223.15
254.8
275.0
283.38
280.2
265.84
240.52
204.96
161.18
112.98
65.39
23.35
-9.85
-33.46
-49.09
-59.74
-68.6
-78.13
-89.7
-103.46
-118.41
-132.58
-143.32
-147.9
-144.23
-131.59
-111.09
-85.45
-58.07
-31.91
-8.51
12.26
31.88
52.38
75.61
102.62
133.43
166.98
201.2
233.14
259.34
276.55
282.45
276.26
258.65
231.19
195.7
153.85
107.52
59.49
13.84
-24.46
-50.87
-62.8
-60.71
-47.9
-29.4
-10.23
5.91
16.97
22.29
22.04
16.8
7.38
-5.05
-19.14
-33.5
-46.94
-58.78
-68.77
-77.2
-84.71
-92.04
-99.66
-107.37
-114.11
-118.2
-118.14
-113.51
-105.51
-96.73
-90.13
-87.76
-89.85
-94.8
-99.91
-102.61
-101.39
-96.16
-87.92
-77.99
-67.38
-56.33
-44.58
-31.84
-18.24
-4.55
8.17
19.02
27.7
34.5
39.99
44.55
48.06
50.02
50.0
47.96
44.5
40.57
37.15
34.8
33.5
32.79
31.99
30.6
28.48
25.78
22.73
19.24
14.6
7.51
-3.43
-19.06
-39.09
-61.98
-85.38
-106.9
-124.67
-137.63
-145.35
-147.69
-144.53
-136.09
-123.11
-107.01
-89.63
-72.71
-57.34
-43.82
-31.9
-21.33
-12.25
-5.17
-0.7
1.04
0.68
-0.38
-0.42
2.14
8.17
17.51
28.98
40.58
49.92
54.82
53.97
47.36
36.45
23.79
12.26
4.26
0.96
2.17
6.66
12.8
19.17
24.97
29.95
34.24
37.98
41.07
43.29
44.32
44.02
42.51
40.13
37.33
34.52
31.9
29.4
26.82
23.97
20.82
17.55
14.51
12.03
10.3
9.31
8.81
8.48
8.1
7.6
7.11
6.81
6.87
7.26
7.85
8.44
8.84
8.99
8.9
8.6
8.07
7.19
5.86
4.12
2.26
0.72
-0.03
0.33
1.73
3.74
5.68
6.83
6.75
5.36
2.95
-0.02
-3.05
-5.84
-8.24
-10.22
-11.77
-12.86
-13.48
-13.81
-14.14
-14.87
-16.24
-18.25
-20.52
-22.5
-23.66
-23.81
-23.05
-21.71
-20.11
-18.41
-16.68
-14.99
-13.62
-13.11
-14.05
-16.79
-21.18
-26.59
-32.02
-36.55
-39.6
-41.08
-41.25
-40.5
-39.05
-36.91
-33.91
-29.82
-24.51
-18.05
-10.65
-2.66
5.48
13.29
20.34
26.31
31.21
35.35
39.22
43.3
47.82
52.65
57.47
61.92
65.86
69.44
72.88
76.31
79.49
81.86
82.68
81.35
77.62
71.62
63.88
55.13
46.2
37.94
31.05
25.96
22.73
20.88
19.51
17.6
14.29
9.14
2.33
-5.51
-13.48
-20.61
-26.09
-29.45
-30.65
-30.1
-28.59
-26.95
-25.81
-25.3
-25.08
-24.56
-23.19
-20.81
-17.69
-14.46
-11.79
-10.08
-9.35
-9.19
-8.93
-7.93
-5.77
-2.4
1.84
6.35
10.41
13.37
14.86
14.9
14.0
12.93
12.53
13.35
15.54
18.9
23.05
27.64
32.43
37.26
41.86
45.96
49.34
52.17
55.08
59.0
64.82
72.96
83.1
94.24
105.0
114.04
120.5
124.26
125.81
125.97
125.18
122.98
117.84
107.7
90.79
66.69
36.84
4.33
-26.77
-52.27
-68.35
-72.04
-61.47
-36.46
1.0
46.77
95.27
140.87
179.42
208.84
228.85
239.85
241.89
234.52
217.41
191.21
158.09
121.2
83.63
47.24
12.16
-22.99
-60.22
-101.24
-146.48
-194.59
-242.46
-285.97
-321.08
-345.07
-357.29
-359.04
-352.7
-340.45
-323.39
-301.36
-273.46
-239.07
-198.54
-153.41
-106.2
-59.84
-17.21
19.18
47.44
66.5
76.38
78.2
74.1
66.85
59.21
53.38
50.54
50.77
53.31
57.05
60.95
64.3
66.72
68.03
68.16
67.12
64.96
61.87
58.13
54.1
50.07
46.27
42.9
40.11
38.0
36.55
35.62
34.89
33.93
32.32
29.75
26.16
21.76
17.0
12.46
8.64
5.87
4.2
3.38
3.05
2.75
2.21
1.33
0.26
-0.69
-1.22
-1.18
-0.62
0.25
1.11
1.76
2.09
2.15
1.95
1.53
0.86
-0.02
-1.03
-2.01
-2.83
-3.41
-3.81
-4.17
-4.68
-5.43
-6.41
-7.5
-8.59
-9.58
-10.49
-11.44
-12.56
-14.03
-15.86
-17.96
-20.17
-22.29
-24.26
-26.0
-27.47
-28.49
-28.83
-28.27
-26.89
-25.07
-23.41
-22.48
-22.56
-23.49
-24.76
-25.76
-26.08
-25.64
-24.71
-23.65
-22.79
-22.29
-22.09
-22.08
-22.11
-22.12
-22.22
-22.58
-23.42
-24.89
-26.97
-29.48
-32.06
-34.3
-35.89
-36.77
-37.19
-37.59
-38.49
-40.16
-42.41
-44.61
-45.86
-45.38
-42.99
-39.19
-35.06
-31.79
-30.03
-29.53
-29.15
-27.36
-23.03
-16.25
-8.49
-2.24
0.03
-2.73
-9.56
-17.61
-23.11
-22.81
-15.09
-0.52
18.38
37.54
52.19
57.66
50.66
30.83
1.78
-29.0
-52.12
-59.67
-48.71
-23.09
7.68
32.02
40.81
30.53
3.68
-33.51
-74.42
-114.72
-153.02
-189.66
-224.86
-257.37
-284.64
-303.87
-313.52
-314.11
-307.85
-297.46
-284.73
-269.75
-251.08
-226.93
-196.39
-160.32
-121.16
-81.97
-45.17
-11.8
18.36
46.0
71.4
93.97
112.56
126.03
133.73
135.75
132.63
125.14
114.28
101.29
87.71
75.16
64.94
57.61
52.87
49.81
47.43
45.14
43.1
42.02
42.84
46.14
51.71
58.59
65.26
70.11
72.02
70.57
66.13
59.63
52.26
45.13
39.03
34.34
30.91
28.22
25.43
21.78
16.73
10.18
2.43
-5.99
-14.41
-22.26
-29.03
-34.44
-38.46
-41.35
-43.65
-45.9
-48.36
-50.77
-52.3
-51.93
-48.92
-43.21
-35.52
-27.13
-19.36
-13.17
-8.95
-6.67
-6.12
-7.12
-9.55
-13.25
-17.8
-22.47
-26.28
-28.38
-28.3
-26.16
-22.64
-18.76
-15.45
-13.31
-12.27
-11.62
-10.27
-7.09
-1.46
6.49
15.83
25.17
33.21
39.2
43.14
45.68
47.74
50.13
53.37
57.62
62.78
68.62
74.74
80.59
85.51
88.87
90.29
89.75
87.6
84.5
81.2
78.43
76.63
75.96
76.22
76.94
77.46
77.13
75.46
72.28
67.8
62.51
57.04
51.84
47.07
42.55
37.94
32.99
27.74
22.46
17.55
13.27
9.69
6.63
4.03
2.01
1.09
1.96
5.14
10.71
18.13
26.46
34.56
41.51
46.64
49.65
50.51
49.47
47.03
43.87
40.69
37.95
35.75
33.81
31.76
29.47
27.22
25.59
25.11
25.87
27.29
28.3
27.72
24.61
18.64
10.2
0.37
-9.22
-16.83
-21.05
-21.21
-17.64
-11.44
-4.03
3.4
10.27
16.55
22.36
27.53
31.42
33.12
31.9
27.6
20.72
12.2
3.05
-5.97
-14.44
-22.23
-29.35
-35.84
-41.53
-45.96
-48.24
-47.19
-41.68
-31.17
-16.22
1.46
19.27
34.6
45.55
51.48
52.91
51.03
46.98
41.48
34.76
26.99
18.69
10.91
4.95
1.92
2.24
5.44
10.37
15.57
19.69
21.83
21.56
19.17
15.45
11.52
8.41
6.67
6.0
5.22
2.73
-2.74
-11.37
-22.16
-33.34
-43.13
-50.36
-54.85
-57.19
-58.27
-58.9
-59.28
-59.53
-59.9
-61.05
-63.81
-68.88
-76.56
-86.58
-98.1
-109.14
-117.72
-122.13
-121.16
-114.0
-100.2
-79.84
-53.83
-23.53
10.77
48.17
87.02
125.03
160.1
190.87
217.02
238.55
255.96
271.63
286.63
300.28
310.56
315.56
314.65
308.89
300.12
291.27
287.77
292.72
305.38
321.02
332.93
335.1
324.58
301.73
251.47
169.68
63.46
-50.53
-154.78
-239.23
-303.14
-348.26
-384.74
-419.88
-453.91
-484.02
-506.09
-516.66
-512.03
-491.12
-456.57
-415.0
-373.56
-335.83
-302.9
-273.79
-246.88
-220.99
-195.95
-172.27
-150.87
-131.4
-111.35
-88.4
-61.31
-30.34
3.37
38.67
75.21
112.97
151.96
191.39
228.22
257.7
275.19
278.32
268.25
249.38
227.24
206.38
188.82
173.85
159.45
144.05
127.69
111.72
97.6
85.72
75.11
63.84
50.16
33.22
13.16
-9.35
-33.84
-59.93
-86.87
-112.99
-135.66
-152.03
-160.13
-159.5
-151.22
-137.11
-118.93
-97.88
-75.0
-51.7
-30.02
-12.16
0.61
8.74
14.5
20.96
30.54
43.69
58.53
71.71
79.73
80.52
74.16
62.69
49.15
36.35
25.93
18.17
12.38
7.62
3.3
-0.59
-3.68
-5.6
-6.36
-6.26
-5.62
-4.48
-2.55
0.57
4.83
9.55
13.56
15.81
16.03
14.77
12.95
11.1
8.76
4.67
-2.5
-13.27
-26.9
-41.6
-55.26
-66.14
-73.2
-75.91
-74.04
-67.59
-56.98
-43.35
-28.58
-14.79
-3.68
4.09
9.06
12.41
15.24
18.01
20.52
22.21
22.66
21.81
19.82
16.88
13.08
8.66
4.22
0.78
-0.55
0.89
4.91
10.44
15.97
20.22
22.65
23.62
24.12
25.27
27.8
31.72
36.09
39.27
39.49
35.55
27.34
15.85
2.74
-10.42
-22.63
-33.57
-43.27
-51.77
-58.94
-64.54
-68.42
-70.46
-70.39
-67.6
-61.31
-51.0
-37.13
-21.43
-6.66
4.42
10.14
10.7
8.04
5.0
4.08
6.55
12.09
19.27
26.2
31.16
32.76
29.99
22.35
10.25
-4.69
-19.49
-30.54
-34.77
-30.83
-19.71
-4.31
11.81
25.53
35.07
40.06
41.12
39.44
36.47
33.7
32.48
33.73
37.55
43.21
49.38
54.58
57.69
58.17
56.1
51.85
45.88
38.58
30.29
21.31
12.0
2.75
-6.01
-13.91
-20.69
-26.32
-30.97
-34.95
-38.45
-41.47
-43.76
-44.95
-44.76
-43.22
-40.7
-37.77
-34.85
-31.95
-28.6
-24.05
-17.71
-9.68
-0.78
7.61
14.23
18.49
20.85
22.54
24.91
28.73
33.65
38.43
41.37
41.14
37.28
30.4
21.96
13.85
7.93
5.67
7.92
14.77
25.58
38.97
53.02
65.65
75.02
80.11
81.07
79.34
77.25
77.25
80.88
87.89
96.17
102.2
102.06
92.87
73.65
45.76
12.51
-21.86
-53.35
-79.18
-98.22
-110.69
-117.58
-119.91
-118.4
-113.23
-104.17
-90.75
-72.44
-49.15
-22.02
6.12
30.98
48.26
55.96
56.01
54.15
57.49
70.73
93.33
119.14
138.83
144.2
131.99
105.26
71.6
39.65
15.17
-0.99
-12.45
-24.92
-43.53
-70.89
-106.47
-147.4
-190.02
-231.45
-270.21
-305.73
-337.18
-362.32
-377.32
-378.03
-361.79
-329.02
-283.45
-230.91
-177.28
-126.86
-81.62
-41.93
-7.74
20.52
41.8
55.37
61.66
62.72
61.51
61.23
64.46
72.66
86.02
103.67
124.15
145.92
167.77
189.01
209.13
227.52
243.03
254.3
260.0
259.24
251.74
237.78
218.19
194.27
167.81
140.93
115.69
93.58
75.06
59.42
45.16
30.52
14.0
-5.28
-27.59
-52.38
-78.25
-102.94
-123.76
-138.16
-144.68
-143.37
-135.73
-123.85
-109.36
-92.89
-74.43
-54.24
-33.74
-15.73
-3.46
0.77
-3.42
-14.16
-27.97
-40.76
-48.7
-49.12
-41.55
-28.63
-16.18
-11.62
-20.89
-45.11
-78.81
-111.15
-129.9
-126.52
-99.48
-54.41
-1.4
49.17
90.22
119.43
138.52
151.14
160.46
167.76
172.3
172.56
168.12
160.77
154.19
152.15
156.07
163.82
170.27
169.71
158.47
136.45
106.78
73.84
41.27
10.82
-17.34
-43.51
-67.41
-87.76
-102.72
-110.94
-112.38
-108.61
-102.33
-96.48
-93.15
-92.99
-95.23
-98.23
-100.33
-100.45
-98.26
-94.05
-88.38
-81.84
-75.03
-68.55
-62.85
-58.08
-53.89
-49.54
-44.15
-37.21
-28.88
-19.95
-11.48
-4.29
1.44
6.03
10.04
13.76
17.07
19.54
20.85
20.99
20.3
19.29
18.26
17.19
15.77
13.72
11.1
8.32
6.08
4.92
5.06
6.16
7.62
8.77
9.21
8.86
7.87
6.41
4.6
2.5
0.17
-2.17
-4.26
-5.89
-7.07
-8.03
-9.14
-10.64
-12.57
-14.64
-16.46
-17.66
-18.1
-17.83
-17.02
-15.82
-14.3
-12.35
-9.77
-6.32
-1.8
3.8
10.25
17.13
23.9
30.03
35.07
38.7
40.72
41.18
40.54
39.77
40.28
43.61
50.95
62.73
78.48
96.85
115.83
133.07
146.14
152.84
151.46
141.1
121.92
95.19
63.12
28.56
-5.38
-35.77
-60.32
-77.8
-88.3
-93.2
-94.71
-95.05
-95.78
-97.3
-99.04
-99.92
-99.05
-96.12
-91.46
-85.76
-79.68
-73.63
-67.72
-61.94
-56.36
-51.24
-47.0
-43.99
-42.27
-41.55
-41.27
-40.78
-39.56
-37.36
-34.18
-30.15
-25.41
-20.11
-14.42
-8.58
-2.86
2.44
7.16
11.32
15.17
19.19
23.91
29.75
36.83
44.8
52.92
60.18
65.59
68.47
68.59
66.09
61.36
54.85
47.0
38.35
29.58
21.44
14.61
9.41
5.69
2.77
-0.21
-3.96
-8.65
-13.84
-18.73
-22.49
-24.69
-25.4
-25.12
-24.47
-23.9
-23.53
-23.16
-22.55
-21.47
-19.91
-18.03
-16.04
-14.15
-12.49
-11.08
-9.86
-8.67
-7.29
-5.48
-3.01
0.3
4.54
9.67
15.47
21.48
26.93
30.92
32.56
31.36
27.51
21.94
16.1
11.51
9.21
9.44
11.57
14.53
17.24
19.0
19.57
19.0
17.37
14.75
11.25
7.27
3.52
0.84
-0.32
-0.18
0.25
-0.34
-2.85
-7.18
-12.3
-16.78
-19.7
-21.1
-22.0
-23.68
-26.98
-31.81
-37.26
-42.12
-45.52
-47.27
-47.79
-47.68
-47.35
-46.81
-45.78
-43.99
-41.35
-38.09
-34.67
-31.56
-28.93
-26.67
-24.41
-21.85
-18.94
-16.03
-13.71
-12.56
-12.99
-15.12
-18.73
-23.26
-27.83
-31.29
-32.6
-31.2
-27.35
-22.09
-16.86
-12.91
-10.92
-10.82
-12.12
-14.18
-16.54
-18.88
-20.95
-22.35
-22.64
-21.38
-18.43
-14.05
-8.89
-3.87
0.15
2.54
3.12
2.15
0.09
-2.49
-5.2
-7.8
-10.15
-12.15
-13.72
-14.91
-15.92
-17.04
-18.55
-20.58
-23.06
-25.68
-28.08
-29.92
-31.09
-31.69
-31.98
-32.13
-31.91
-30.54
-26.93
-20.17
-10.05
2.54
15.9
28.0
37.33
43.24
46.01
46.48
45.55
43.93
41.98
39.78
37.21
34.15
30.61
26.91
23.73
21.93
22.12
24.32
27.82
31.55
34.57
36.51
37.54
38.07
38.22
37.7
35.96
32.66
28.0
22.74
17.88
14.16
11.91
10.99
11.05
11.83
13.21
15.26
18.1
21.76
26.12
30.91
35.7
40.05
43.63
46.32
48.15
49.18
49.4
48.66
46.79
43.77
39.73
34.87
29.3
22.95
15.72
7.82
-0.11
-7.01
-11.81
-13.87
-13.36
-11.15
-8.55
-6.8
-6.82
-9.08
-13.59
-20.14
-28.29
-37.53
-47.14
-56.33
-64.21
-69.95
-72.92
-72.77
-69.61
-63.93
-56.54
-48.38
-40.23
-32.59
-25.67
-19.47
-13.94
-9.18
-5.43
-3.01
-2.03
-2.2
-2.86
-3.19
-2.71
-1.53
-0.33
-0.08
-1.51
-4.82
-9.61
-15.11
-20.57
-25.55
-29.81
-33.24
-35.56
-36.37
-35.26
-32.06
-26.89
-20.11
-12.22
-3.82
4.37
11.45
16.34
18.02
15.85
10.0
1.63
-7.35
-14.77
-18.88
-18.82
-14.78
-7.71
1.14
10.66
20.11
29.11
37.46
44.96
51.31
56.24
59.62
61.57
62.41
62.42
61.71
60.1
57.27
53.02
47.46
41.11
34.68
28.81
23.81
19.65
16.1
12.93
10.11
7.74
5.99
4.87
4.22
3.73
3.07
2.09
0.77
-0.67
-1.97
-2.9
-3.34
-3.24
-2.72
-1.87
-0.79
0.43
1.72
3.01
4.16
5.05
5.58
5.74
5.62
5.44
5.45
5.86
6.73
7.94
9.25
10.37
11.1
11.37
11.23
10.74
10.0
9.09
8.12
7.22
6.52
6.06
5.73
5.35
4.71
3.64
2.1
0.19
-1.87
-3.8
-5.37
-6.44
-6.96
-7.0
-6.68
-6.14
-5.51
-4.86
-4.21
-3.53
-2.82
-2.1
-1.43
-0.88
-0.48
-0.25
-0.18
-0.24
-0.39
-0.63
-0.99
-1.52
-2.21
-3.02
-3.87
-4.64
-5.23
-5.56
-5.61
-5.42
-5.1
-4.83
-4.76
-5.05
-5.75
-6.84
-8.19
-9.6
-10.81
-11.58
-11.71
-11.19
-10.11
-8.7
-7.23
-5.88
-4.72
-3.69
-2.68
-1.6
-0.35
1.08
2.72
4.54
6.41
8.08
9.2
9.51
9.01
8.0
6.96
6.26
5.91
5.55
4.65
2.82
0.12
-2.92
-5.56
-7.22
-7.71
-7.33
-6.63
-6.1
-6.0
-6.3
-6.86
-7.6
-8.57
-9.88
-11.54
-13.41
-15.18
-16.53
-17.3
-17.6
-17.69
-17.83
-18.09
-18.35
-18.32
-17.75
-16.59
-14.92
-12.93
-10.76
-8.52
-6.34
-4.41
-3.01
-2.32
-2.39
-2.99
-3.7
-4.08
-3.86
-3.03
-1.79
-0.43
0.82
1.86
2.66
3.21
3.44
3.28
2.75
1.98
1.21
0.69
0.51
0.61
0.8
0.88
0.8
0.61
0.4
0.19
-0.11
-0.69
-1.63
-2.85
-4.03
-4.76
-4.7
-3.77
-2.12
-0.1
1.95
3.83
5.44
6.79
7.83
8.45
8.5
7.98
7.04
6.03
5.34
5.25
5.72
6.43
6.89
6.71
5.71
4.06
2.14
0.4
-0.85
-1.45
-1.47
-1.11
-0.58
-0.06
0.35
0.67
0.94
1.18
1.37
1.39
1.15
0.58
-0.26
-1.18
-1.96
-2.43
-2.49
-2.11
-1.35
-0.26
1.05
2.38
3.56
4.35
4.65
4.44
3.85
3.05
2.16
1.26
0.35
-0.57
-1.47
-2.22
-2.71
-2.83
-2.58
-2.06
-1.43
-0.84
-0.38
-0.07
0.12
0.26
0.42
0.64
0.96
1.4
1.9
2.4
2.81
3.11
3.28
3.37
3.38
3.28
3.0
2.51
1.95
1.59
1.75
2.62
4.18
6.18
8.24
10.1
11.66
13.0
14.28
15.53
16.69
17.59
18.2
18.53
18.74
18.92
19.07
19.04
18.61
17.55
15.73
13.16
9.97
6.39
2.73
-0.76
-3.88
-6.54
-8.74
-10.5
-11.85
-12.71
-13.0
-12.67
-11.85
-10.85
-10.1
-9.99
-10.71
-12.12
-13.8
-15.2
-15.83
-15.44
-14.08
-12.04
-9.81
-7.86
-6.59
-6.21
-6.77
-8.15
-10.15
-12.51
-14.99
-17.41
-19.56
-21.23
-22.2
-22.25
-21.29
-19.42
-16.97
-14.42
-12.24
-10.66
-9.63
-8.85
-7.97
-6.81
-5.41
-4.02
-2.85
-1.94
-1.11
-0.11
1.18
2.66
4.02
4.86
4.94
4.26
3.08
1.83
0.9
0.62
1.12
2.34
4.02
5.82
7.41
8.57
9.24
9.51
9.49
9.25
8.79
8.1
7.24
6.4
5.8
5.65
5.97
6.61
7.34
7.99
8.49
8.85
9.09
9.15
8.85
8.03
6.63
4.8
2.82
0.99
-0.47
-1.51
-2.21
-2.71
-3.09
-3.42
-3.71
-3.99
-4.32
-4.75
-5.32
-5.96
-6.58
-7.02
-7.16
-6.98
-6.61
-6.3
-6.35
-6.92
-7.92
-9.12
-10.22
-11.11
-11.89
-12.83
-14.11
-15.6
-16.88
-17.43
-16.93
-15.47
-13.58
-11.88
-10.78
-10.29
-10.02
-9.52
-8.52
-7.06
-5.4
-3.86
-2.58
-1.55
-0.74
-0.26
-0.23
-0.69
-1.39
-1.79
-1.27
0.52
3.48
7.01
10.33
12.82
14.22
14.6
14.2
13.13
11.36
8.76
5.38
1.51
-2.28
-5.41
-7.45
-8.39
-8.57
-8.48
-8.6
-9.14
-10.09
-11.31
-12.7
-14.28
-16.16
-18.5
-21.31
-24.39
-27.37
-29.71
-30.91
-30.61
-28.71
-25.4
-21.11
-16.39
-11.82
-7.89
-4.89
-2.84
-1.5
-0.42
0.99
3.23
6.49
10.62
15.19
19.74
24.01
28.03
31.99
36.08
40.25
44.21
47.63
50.25
52.08
53.31
54.2
54.89
55.33
55.43
55.16
54.57
53.85
53.19
52.68
52.39
52.4
52.78
53.61
54.73
55.71
55.94
54.88
52.32
48.58
44.32
40.2
36.57
33.28
29.94
26.14
21.65
16.36
10.23
3.15
-5.01
-14.25
-24.35
-34.89
-45.36
-55.27
-64.25
-72.01
-78.29
-82.9
-85.76
-86.98
-86.81
-85.46
-83.01
-79.38
-74.38
-68.0
-60.47
-52.29
-44.15
-36.75
-30.65
-26.16
-23.17
-21.05
-18.6
-14.3
-6.63
5.31
21.29
39.78
58.24
73.95
84.9
90.41
91.15
88.58
84.09
78.38
71.36
62.52
51.64
39.17
26.2
14.02
3.58
-4.87
-11.65
-17.28
-22.05
-25.85
-28.27
-28.92
-27.76
-25.25
-22.25
-19.71
-18.3
-18.27
-19.34
-20.96
-22.56
-23.83
-24.84
-25.86
-27.19
-28.93
-30.9
-32.77
-34.3
-35.44
-36.39
-37.42
-38.68
-40.03
-41.08
-41.33
-40.45
-38.38
-35.44
-32.13
-28.94
-26.24
-24.14
-22.5
-21.13
-19.78
-18.3
-16.54
-14.35
-11.57
-8.06
-3.77
1.18
6.5
11.81
16.77
21.2
25.03
28.31
31.12
33.5
35.43
36.88
37.87
38.43
38.57
38.28
37.48
36.13
34.25
31.98
29.5
27.02
24.66
22.41
20.19
17.86
15.35
12.59
9.6
6.43
3.18
-0.01
-2.99
-5.64
-7.91
-9.78
-11.28
-12.41
-13.18
-13.63
-13.86
-14.01
-14.24
-14.62
-15.03
-15.14
-14.45
-12.5
-9.09
-4.41
0.93
6.09
10.28
13.04
14.35
14.57
14.17
13.53
12.82
11.99
10.97
9.72
8.29
6.77
5.19
3.54
1.72
-0.33
-2.55
-4.76
-6.69
-8.07
-8.71
-8.63
-7.99
-7.05
-6.05
-5.19
-4.55
-4.18
-4.07
-4.18
-4.43
-4.71
-4.92
-4.98
-4.9
-4.74
-4.51
-4.22
-3.79
-3.14
-2.28
-1.32
-0.43
0.26
0.69
0.92
1.05
1.15
1.18
1.07
0.79
0.37
-0.07
-0.41
-0.64
-0.87
-1.28
-1.98
-2.89
-3.77
-4.34
-4.38
-3.89
-3.05
-2.14
-1.38
-0.87
-0.57
-0.42
-0.36
-0.39
-0.52
-0.72
-0.91
-0.96
-0.81
-0.5
-0.13
0.13
0.19
0.07
-0.14
-0.3
-0.32
-0.22
-0.04
0.14
0.31
0.53
0.81
1.19
1.6
1.97
2.2
2.27
2.2
2.04
1.83
1.58
1.25
0.87
0.5
0.24
0.21
0.5
1.06
1.78
2.44
2.88
3.04
2.97
2.82
2.73
2.74
2.81
2.86
2.82
2.77
2.82
3.08
3.58
4.2
4.76
5.02
4.88
4.33
3.53
2.65
1.86
1.22
0.72
0.24
-0.29
-0.94
-1.73
-2.6
-3.49
-4.33
-5.04
-5.58
-5.95
-6.11
-6.03
-5.68
-4.98
-3.95
-2.68
-1.36
-0.21
0.63
1.11
1.3
1.31
1.26
1.21
1.18
1.17
1.22
1.42
1.8
2.35
3.0
3.56
3.89
3.92
3.66
3.24
2.81
2.5
2.34
2.26
2.13
1.85
1.37
0.76
0.12
-0.42
-0.78
-0.98
-1.1
-1.28
-1.65
-2.27
-3.13
-4.15
-5.14
-5.92
-6.33
-6.33
-5.93
-5.3
-4.64
-4.11
-3.8
-3.68
-3.68
-3.71
-3.77
-3.85
-3.96
-4.02
-3.9
-3.49
-2.75
-1.84
-0.97
-0.35
-0.06
-0.02
-0.03
0.06
0.28
0.55
0.77
0.92
1.06
1.3
1.72
2.27
2.83
3.26
3.5
3.58
3.56
3.48
3.26
2.8
2.06
1.14
0.21
-0.53
-0.96
-1.11
-1.15
-1.22
-1.38
-1.6
-1.77
-1.82
-1.78
-1.77
-1.91
-2.25
-2.71
-3.1
-3.16
-2.74
-1.81
-0.53
0.85
2.06
2.94
3.48
3.81
4.12
4.51
4.94
5.18
4.93
3.98
2.28
0.07
-2.29
-4.43
-6.1
-7.31
-8.22
-9.09
-10.06
-11.16
-12.26
-13.19
-13.82
-14.11
-14.1
-13.91
-13.71
-13.73
-14.19
-15.24
-16.92
-19.06
-21.32
-23.22
-24.31
-24.28
-23.16
-21.29
-19.22
-17.46
-16.26
-15.45
-14.53
-12.87
-10.01
-5.87
-0.7
5.04
10.93
16.71
22.27
27.52
32.35
36.58
40.13
43.0
45.22
46.79
47.57
47.41
46.25
44.24
41.77
39.31
37.26
35.83
35.03
34.81
35.08
35.74
36.59
37.28
37.39
36.49
34.33
30.96
26.66
21.9
17.19
12.91
9.29
6.33
3.9
1.77
-0.26
-2.39
-4.71
-7.23
-9.89
-12.47
-14.72
-16.33
-17.13
-17.14
-16.68
-16.17
-16.02
-16.4
-17.17
-18.02
-18.56
-18.52
-17.83
-16.6
-15.03
-13.34
-11.66
-10.02
-8.32
-6.43
-4.21
-1.62
1.3
4.37
7.41
10.31
13.1
15.99
19.19
22.91
27.12
31.6
35.9
39.35
41.15
40.57
37.13
30.89
22.61
13.64
5.5
-0.68
-4.6
-6.89
-8.7
-11.21
-15.06
-20.18
-25.98
-31.72
-36.83
-41.01
-44.16
-46.25
-47.26
-47.29
-46.58
-45.57
-44.76
-44.46
-44.75
-45.37
-45.92
-45.98
-45.25
-43.63
-41.19
-38.17
-34.91
-31.81
-29.19
-27.27
-25.99
-25.09
-24.13
-22.67
-20.41
-17.31
-13.63
-9.8
-6.35
-3.69
-2.0
-1.24
-1.2
-1.67
-2.53
-3.68
-4.89
-5.7
-5.52
-3.96
-1.08
2.53
6.02
8.77
10.68
12.2
13.96
16.4
19.46
22.61
25.13
26.38
26.07
24.21
21.06
16.99
12.4
7.66
3.09
-1.02
-4.39
-6.75
-8.03
-8.46
-8.69
-9.55
-11.63
-14.81
-18.13
-20.14
-19.65
-16.32
-10.92
-4.86
0.5
4.59
7.7
10.65
14.11
18.21
22.43
25.99
28.34
29.4
29.59
29.4
29.13
28.64
27.56
25.44
22.12
17.8
13.03
8.4
4.38
1.16
-1.35
-3.39
-5.14
-6.66
-7.87
-8.62
-8.85
-8.64
-8.19
-7.71
-7.34
-7.1
-6.86
-6.47
-5.86
-5.08
-4.32
-3.8
-3.64
-3.83
-4.21
-4.59
-4.83
-4.89
-4.86
-4.82
-4.76
-4.56
-4.05
-3.14
-1.91
-0.6
0.47
1.1
1.26
1.05
0.64
0.12
-0.5
-1.21
-1.93
-2.44
-2.5
-1.94
-0.87
0.43
1.58
2.35
2.68
2.7
2.6
2.49
2.36
2.14
1.77
1.26
0.72
0.21
-0.21
-0.59
-1.0
-1.55
-2.28
-3.17
-4.1
-4.9
-5.39
-5.43
-4.97
-4.06
-2.79
-1.35
0.07
1.28
2.14
2.62
2.78
2.76
2.68
2.61
2.52
2.34
1.99
1.51
0.99
0.52
0.13
-0.23
-0.68
-1.27
-1.94
-2.56
-3.06
-3.45
-3.89
-4.46
-5.09
-5.49
-5.25
-4.05
-1.87
0.97
3.99
6.7
8.87
10.45
11.52
12.12
12.27
11.99
11.44
10.94
10.8
11.18
11.97
12.79
13.2
12.93
11.96
10.51
8.93
7.47
6.26
5.24
4.3
3.36
2.42
1.59
1.04
0.92
1.29
2.04
2.92
3.63
3.9
3.6
2.78
1.65
0.48
-0.45
-0.96
-0.99
-0.59
0.14
1.09
2.1
3.01
3.6
3.67
3.18
2.25
1.21
0.41
0.05
-0.03
-0.24
-1.01
-2.52
-4.47
-6.28
-7.31
-7.21
-6.06
-4.29
-2.4
-0.76
0.54
1.57
2.43
3.13
3.55
3.56
3.09
2.22
1.13
0.02
-0.88
-1.47
-1.67
-1.48
-0.92
-0.08
0.93
1.96
2.84
3.43
3.63
3.47
3.06
2.58
2.19
1.95
1.83
1.72
1.52
1.17
0.62
-0.15
-1.17
-2.4
-3.68
-4.77
-5.39
-5.4
-4.84
-3.93
-2.96
-2.13
-1.48
-0.96
-0.58
-0.44
-0.66
-1.25
-2.03
-2.64
-2.7
-2.07
-0.9
0.42
1.44
1.83
1.47
0.44
-1.04
-2.7
-4.24
-5.39
-5.96
-5.87
-5.2
-4.16
-2.99
-1.91
-1.01
-0.27
0.37
0.97
1.49
1.79
1.69
1.03
-0.24
-1.96
-3.84
-5.45
-6.42
-6.55
-5.8
-4.34
-2.53
-0.82
0.24
0.19
-1.31
-4.26
-8.24
-12.45
-16.0
-18.18
-18.79
-18.08
-16.62
-14.92
-13.26
-11.7
-10.23
-8.99
-8.17
-7.84
-7.81
-7.58
-6.55
-4.41
-1.31
2.19
5.4
7.9
9.62
10.82
11.8
12.71
13.52
14.11
14.43
14.53
14.48
14.32
13.98
13.38
12.41
11.07
9.41
7.56
5.65
3.82
2.16
0.66
-0.72
-2.12
-3.59
-5.09
-6.41
-7.27
-7.46
-6.9
-5.79
-4.46
-3.24
-2.44
-2.14
-2.33
-2.88
-3.57
-4.18
-4.49
-4.32
-3.56
-2.24
-0.52
1.34
3.07
4.42
5.29
5.72
5.84
5.86
5.99
6.4
7.16
8.25
9.56
10.86
11.94
12.58
12.74
12.52
12.14
11.78
11.48
11.16
10.66
9.88
8.76
7.31
5.49
3.29
0.7
-2.07
-4.62
-6.41
-7.03
-6.4
-4.84
-2.95
-1.33
-0.27
0.28
0.61
1.0
1.57
2.17
2.57
2.64
2.47
2.37
2.66
3.42
4.38
5.04
4.97
4.05
2.58
1.14
0.23
0.07
0.45
0.96
1.2
1.05
0.62
0.17
-0.11
-0.2
-0.22
-0.33
-0.62
-1.08
-1.6
-2.05
-2.37
-2.61
-2.9
-3.35
-4.0
-4.73
-5.39
-5.8
-5.95
-5.95
-5.96
-6.11
-6.4
-6.7
-6.87
-6.83
-6.59
-6.24
-5.89
-5.6
-5.43
-5.35
-5.29
-5.1
-4.58
-3.57
-2.03
-0.07
2.07
4.15
5.99
7.51
8.7
9.53
9.98
10.07
9.89
9.68
9.66
9.95
10.51
11.1
11.44
11.29
10.58
9.37
7.86
6.21
4.48
2.63
0.47
-2.14
-5.16
-8.32
-11.17
-13.25
-14.27
-14.27
-13.55
-12.5
-11.4
-10.29
-9.03
-7.42
-5.41
-3.2
-1.13
0.39
1.14
1.11
0.53
-0.27
-1.01
-1.56
-1.95
-2.27
-2.63
-3.03
-3.4
-3.63
-3.63
-3.38
-2.9
-2.3
-1.67
-1.14
-0.75
-0.53
-0.45
-0.48
-0.58
-0.69
-0.82
-0.91
-0.94
-0.91
-0.87
-0.87
-0.93
-1.03
-1.09
-1.01
-0.77
-0.38
0.09
0.56
1.01
1.43
1.87
2.29
2.65
2.88
2.95
2.88
2.72
2.53
2.35
2.21
2.16
2.19
2.31
2.4
2.38
2.11
1.54
0.72
-0.17
-0.91
-1.33
-1.34
-1.03
-0.56
-0.11
0.15
0.18
-0.01
-0.32
-0.62
-0.83
-0.96
-1.14
-1.56
-2.37
-3.53
-4.84
-5.95
-6.55
-6.48
-5.8
-4.75
-3.62
-2.64
-1.84
-1.18
-0.58
-0.0
0.51
0.87
1.01
0.93
0.74
0.62
0.74
1.21
2.04
3.05
4.0
4.63
4.79
4.49
3.88
3.18
2.57
2.09
1.72
1.39
1.04
0.72
0.53
0.55
0.73
0.91
0.86
0.44
-0.35
-1.35
-2.29
-2.96
-3.3
-3.36
-3.29
-3.19
-3.07
-2.86
-2.5
-2.02
-1.51
-1.12
-0.92
-0.87
-0.9
-0.91
-0.89
-0.89
-0.98
-1.2
-1.48
-1.72
-1.86
-1.88
-1.88
-1.96
-2.19
-2.55
-2.93
-3.12
-2.96
-2.3
-1.15
0.37
1.99
3.4
4.3
4.51
3.98
2.83
1.32
-0.29
-1.73
-2.9
-3.82
-4.55
-5.16
-5.63
-5.83
-5.63
-4.96
-3.9
-2.66
-1.49
-0.52
0.2
0.77
1.32
1.91
2.5
3.01
3.35
3.56
3.69
3.81
3.95
4.09
4.26
4.6
5.33
6.6
8.29
10.0
11.14
11.25
10.19
8.27
6.09
4.26
3.12
2.68
2.67
2.78
2.82
2.82
2.9
3.15
3.53
3.87
3.96
3.61
2.72
1.34
-0.34
-2.03
-3.4
-4.18
-4.27
-3.73
-2.83
-1.88
-1.12
-0.64
-0.35
-0.15
0.03
0.17
0.2
0.11
-0.04
-0.1
0.01
0.31
0.7
1.03
1.16
1.08
0.8
0.4
-0.09
-0.66
-1.31
-2.05
-2.83
-3.6
-4.3
-4.89
-5.38
-5.81
-6.19
-6.57
-6.88
-7.1
-7.17
-7.12
-7.01
-6.99
-7.17
-7.56
-8.1
-8.59
-8.84
-8.71
-8.16
-7.3
-6.31
-5.33
-4.46
-3.74
-3.16
-2.7
-2.33
-1.96
-1.5
-0.83
0.16
1.48
3.13
5.01
6.99
8.96
10.81
12.41
13.63
14.36
14.56
14.3
13.75
13.12
12.49
11.83
10.95
9.67
7.95
6.0
4.15
2.73
1.9
1.54
1.39
1.14
0.61
-0.26
-1.42
-2.82
-4.38
-5.95
-7.29
-8.07
-7.99
-6.93
-5.02
-2.66
-0.36
1.45
2.59
3.11
3.3
3.44
3.68
3.95
4.01
3.65
2.76
1.45
-0.01
-1.35
-2.41
-3.19
-3.8
-4.39
-5.04
-5.7
-6.25
-6.52
-6.43
-5.98
-5.3
-4.54
-3.85
-3.24
-2.58
-1.74
-0.58
0.81
2.24
3.47
4.34
4.88
5.24
5.63
6.14
6.74
7.26
7.56
7.59
7.42
7.23
7.19
7.36
7.72
8.11
8.35
8.3
7.99
7.52
7.06
6.73
6.51
6.34
6.14
5.84
5.51
5.25
5.1
5.03
4.87
4.44
3.59
2.33
0.79
-0.83
-2.4
-3.87
-5.29
-6.75
-8.34
-10.07
-11.85
-13.55
-15.01
-16.09
-16.69
-16.8
-16.57
-16.23
-16.09
-16.41
-17.22
-18.33
-19.38
-19.97
-19.87
-19.07
-17.73
-16.02
-14.03
-11.68
-8.88
-5.68
-2.33
0.84
3.54
5.67
7.41
9.0
10.65
12.35
13.9
15.0
15.49
15.37
14.84
14.16
13.5
12.93
12.4
11.84
11.25
10.74
10.45
10.46
10.77
11.23
11.65
11.89
11.89
11.74
11.54
11.32
11.02
10.47
9.49
7.97
5.92
3.48
0.84
-1.8
-4.32
-6.7
-8.97
-11.12
-13.11
-14.78
-15.93
-16.41
-16.24
-15.56
-14.63
-13.71
-12.89
-12.1
-11.15
-9.85
-8.17
-6.22
-4.16
-2.17
-0.34
1.34
2.92
4.43
5.81
6.94
7.67
7.91
7.68
7.1
6.36
5.7
5.3
5.19
5.28
5.4
5.37
5.09
4.52
3.68
2.6
1.28
-0.24
-1.88
-3.48
-4.86
-5.92
-6.7
-7.34
-7.96
-8.57
-9.07
-9.31
-9.22
-8.9
-8.58
-8.49
-8.73
-9.22
-9.76
-10.12
-10.2
-10.01
-9.67
-9.26
-8.83
-8.37
-7.87
-7.36
-6.91
-6.64
-6.64
-6.96
-7.56
-8.23
-8.67
-8.5
-7.48
-5.55
-2.83
0.41
3.99
7.83
11.94
16.26
20.51
24.23
26.94
28.29
28.29
27.27
25.73
24.15
22.81
21.7
20.64
19.31
17.39
14.65
11.12
7.03
2.85
-0.9
-3.69
-5.07
-4.76
-2.69
0.87
5.25
9.48
12.6
13.94
13.48
11.77
9.66
7.83
6.53
5.53
4.37
2.76
0.69
-1.59
-3.8
-5.83
-7.79
-9.8
-11.89
-13.88
-15.48
-16.41
-16.6
-16.09
-15.06
-13.66
-11.96
-10.02
-7.93
-5.8
-3.75
-1.9
-0.27
1.13
2.26
3.0
3.21
2.76
1.69
0.26
-1.09
-1.94
-2.09
-1.63
-0.97
-0.5
-0.46
-0.75
-1.02
-0.92
-0.25
0.92
2.4
4.02
5.74
7.62
9.67
11.66
13.2
13.86
13.38
11.86
9.74
7.65
6.15
5.58
5.95
6.98
8.2
9.13
9.37
8.79
7.39
5.37
2.84
-0.14
-3.56
-7.37
-11.35
-15.07
-17.98
-19.67
-19.97
-19.1
-17.5
-15.68
-13.99
-12.56
-11.28
-10.06
-8.89
-7.91
-7.37
-7.4
-7.96
-8.81
-9.59
-9.98
-9.87
-9.38
-8.71
-8.09
-7.59
-7.08
-6.37
-5.25
-3.72
-1.96
-0.27
1.06
1.89
2.3
2.5
2.7
3.02
3.49
4.08
4.74
5.5
6.36
7.29
8.16
8.83
9.22
9.35
9.32
9.19
8.91
8.21
6.77
4.28
0.66
-3.85
-8.73
-13.28
-16.83
-18.91
-19.37
-18.37
-16.33
-13.74
-11.05
-8.59
-6.5
-4.81
-3.47
-2.35
-1.18
0.44
2.91
6.45
10.89
15.66
19.97
23.13
24.81
25.18
24.66
23.62
22.16
20.13
17.35
13.83
9.89
6.04
2.65
-0.17
-2.58
-4.84
-7.01
-8.93
-10.27
-10.73
-10.13
-8.5
-6.01
-2.83
0.9
4.98
9.09
12.78
15.59
17.15
17.39
16.47
14.67
12.26
9.43
6.35
3.24
0.45
-1.67
-2.87
-3.18
-2.86
-2.32
-1.91
-1.71
-1.64
-1.45
-0.97
-0.1
1.06
2.26
3.17
3.48
2.93
1.42
-0.92
-3.83
-6.93
-9.84
-12.22
-13.82
-14.51
-14.28
-13.24
-11.62
-9.74
-7.86
-6.16
-4.66
-3.34
-2.16
-1.13
-0.35
0.09
0.18
0.0
-0.3
-0.58
-0.73
-0.73
-0.57
-0.29
0.09
0.49
0.85
1.09
1.14
0.99
0.64
0.17
-0.35
-0.83
-1.25
-1.58
-1.8
-1.92
-1.89
-1.71
-1.45
-1.24
-1.23
-1.53
-2.12
-2.83
-3.38
-3.55
-3.2
-2.4
-1.33
-0.25
0.62
1.14
1.29
1.14
0.78
0.38
0.07
-0.0
0.23
0.79
1.62
2.56
3.4
3.96
4.17
4.12
4.13
4.5
5.46
6.89
8.36
9.28
9.18
7.99
6.09
4.18
2.89
2.45
2.59
2.7
2.19
0.87
-0.97
-2.73
-3.88
-4.28
-4.16
-3.88
-3.7
-3.67
-3.76
-4.11
-4.99
-6.67
-9.08
-11.68
-13.77
-14.9
-15.22
-15.43
-16.3
-18.09
-20.29
-21.85
-21.78
-19.67
-15.79
-10.81
-5.35
0.3
6.08
11.96
17.73
23.01
27.45
30.9
33.44
35.22
36.15
35.94
34.22
30.87
26.22
20.94
15.77
11.07
6.76
2.48
-2.05
-6.74
-11.06
-14.36
-16.18
-16.47
-15.5
-13.64
-11.18
-8.31
-5.3
-2.63
-0.89
-0.45
-1.29
-2.86
-4.4
-5.28
-5.3
-4.63
-3.65
-2.59
-1.45
-0.08
1.58
3.38
5.03
6.23
6.93
7.31
7.72
8.42
9.44
10.52
11.29
11.39
10.58
8.78
6.03
2.47
-1.66
-5.97
-10.0
-13.29
-15.51
-16.55
-16.52
-15.7
-14.38
-12.84
-11.31
-9.99
-8.99
-8.36
-8.02
-7.73
-7.3
-6.57
-5.53
-4.28
-2.9
-1.49
-0.13
1.08
1.93
2.17
1.64
0.42
-1.21
-2.87
-4.25
-5.25
-5.97
-6.61
-7.27
-7.92
-8.44
-8.66
-8.48
-7.9
-6.96
-5.72
-4.26
-2.71
-1.23
-0.0
0.82
1.23
1.26
1.03
0.7
0.4
0.27
0.42
0.9
1.7
2.78
4.06
5.49
7.04
8.62
10.11
11.31
12.08
12.37
12.25
11.88
11.42
10.93
10.37
9.73
9.05
8.5
8.29
8.57
9.3
10.24
11.02
11.2
10.49
8.82
6.4
3.7
1.25
-0.53
-1.5
-1.82
-1.84
-1.94
-2.32
-2.99
-3.74
-4.35
-4.62
-4.44
-3.8
-2.72
-1.18
0.83
3.26
6.01
8.78
11.24
13.08
14.15
14.5
14.37
14.0
13.51
12.84
11.82
10.31
8.35
6.15
3.98
2.07
0.44
-1.02
-2.48
-4.04
-5.68
-7.27
-8.61
-9.58
-10.15
-10.4
-10.52
-10.73
-11.16
-11.84
-12.7
-13.59
-14.43
-15.1
-15.56
-15.73
-15.53
-14.95
-13.98
-12.71
-11.19
-9.45
-7.47
-5.3
-3.18
-1.53
-0.95
-1.88
-4.37
-7.98
-11.89
-15.23
-17.41
-18.3
-18.13
-17.26
-15.98
-14.42
-12.54
-10.31
-7.77
-5.02
-2.2
0.57
3.17
5.42
7.12
8.1
8.3
7.8
6.81
5.57
4.25
2.92
1.56
0.15
-1.29
-2.63
-3.71
-4.39
-4.56
-4.22
-3.45
-2.32
-0.88
0.85
2.9
5.21
7.66
10.01
12.0
13.39
14.15
14.4
14.41
14.45
14.78
15.47
16.47
17.68
18.96
20.21
21.33
22.19
22.62
22.42
21.5
19.88
17.67
15.01
12.1
9.08
6.14
3.47
1.22
-0.62
-2.28
-4.17
-6.68
-9.98
-13.87
-17.8
-21.1
-23.26
-24.07
-23.69
-22.45
-20.78
-19.04
-17.5
-16.41
-15.93
-16.15
-16.96
-18.0
-18.7
-18.46
-16.96
-14.48
-11.78
-9.94
-9.78
-11.47
-14.38
-17.37
-19.3
-19.49
-17.92
-15.02
-11.33
-7.26
-3.11
0.78
3.93
5.75
5.84
4.28
1.68
-1.02
-2.93
-3.55
-2.99
-1.76
-0.59
-0.04
-0.34
-1.32
-2.58
-3.64
-4.15
-3.95
-3.03
-1.43
0.8
3.59
6.74
9.92
12.65
14.54
15.37
15.3
14.73
14.12
13.78
13.74
13.77
13.54
12.75
11.31
9.33
7.1
4.93
3.1
1.76
0.97
0.69
0.85
1.34
2.01
2.64
3.0
2.86
2.12
0.78
-0.98
-2.91
-4.69
-6.03
-6.7
-6.57
-5.64
-4.08
-2.19
-0.29
1.36
2.72
3.9
5.15
6.68
8.61
10.93
13.52
16.22
18.89
21.35
23.44
24.95
25.72
25.66
24.79
23.22
21.09
18.53
15.56
12.16
8.3
3.94
-0.97
-6.4
-12.26
-18.33
-24.25
-29.69
-34.46
-38.7
-42.84
-47.4
-52.62
-58.15
-63.11
-66.4
-67.25
-65.6
-62.23
-58.36
-55.16
-53.33
-52.83
-53.11
-53.44
-53.15
-51.78
-48.92
-44.17
-37.02
-27.12
-14.46
0.37
16.15
31.3
44.32
54.18
60.51
63.54
63.78
61.79
58.01
52.81
46.66
40.16
34.0
28.83
25.08
22.82
21.78
21.55
21.69
21.95
22.39
23.2
24.57
26.48
28.53
30.12
30.72
30.15
28.75
27.24
26.34
26.5
27.7
29.54
31.56
33.48
35.24
36.87
38.32
39.33
39.52
38.58
36.38
33.14
29.27
25.25
21.45
18.04
14.98
12.14
9.42
6.81
4.41
2.37
0.72
-0.6
-1.82
-3.25
-5.14
-7.59
-10.53
-13.64
-16.42
-18.32
-18.92
-18.19
-16.65
-15.3
-15.33
-17.59
-22.31
-29.02
-36.86
-44.91
-52.48
-59.03
-63.98
-66.48
-65.58
-60.64
-51.66
-39.6
-26.0
-12.63
-0.93
8.21
14.5
18.12
19.61
19.82
19.77
20.49
22.62
26.19
30.6
34.83
37.9
39.26
38.97
37.55
35.69
33.9
32.39
31.14
30.09
29.27
28.79
28.8
29.28
30.02
30.69
30.97
30.69
29.88
28.76
27.61
26.67
26.0
25.52
24.97
24.03
22.33
19.64
15.91
11.36
6.52
2.03
-1.52
-3.77
-4.77
-4.92
-4.85
-5.23
-6.57
-9.17
-13.14
-18.47
-25.01
-32.5
-40.35
-47.75
-53.86
-58.09
-60.39
-61.23
-61.47
-61.83
-62.7
-63.92
-64.87
-64.76
-62.96
-59.13
-53.36
-46.14
-38.16
-30.16
-22.73
-16.13
-10.25
-4.78
0.55
5.74
10.48
14.26
16.62
17.39
16.76
15.18
13.23
11.37
9.88
8.78
7.95
7.19
6.4
5.59
4.93
4.57
4.6
5.0
5.67
6.49
7.29
7.78
7.48
5.97
3.1
-0.62
-4.07
-5.87
-5.04
-1.56
3.49
8.34
11.34
11.57
9.23
5.3
1.08
-2.37
-4.53
-5.32
-5.01
-3.94
-2.45
-0.87
0.52
1.47
1.81
1.55
0.89
0.16
-0.26
-0.18
0.38
1.13
1.69
1.71
1.02
-0.4
-2.37
-4.6
-6.75
-8.46
-9.44
-9.58
-9.02
-8.2
-7.69
-8.08
-9.65
-12.28
-15.46
-18.47
-20.65
-21.65
-21.48
-20.51
-19.32
-18.51
-18.47
-19.29
-20.72
-22.28
-23.44
-23.66
-22.55
-19.83
-15.29
-8.72
0.12
11.51
25.7
42.83
62.68
84.39
106.3
126.01
140.69
147.66
145.22
133.2
113.17
88.08
61.55
36.95
16.61
1.55
-8.45
-14.41
-17.67
-19.45
-20.67
-21.93
-23.5
-25.38
-27.41
-29.23
-30.48
-30.93
-30.56
-29.52
-28.1
-26.53
-25.01
-23.67
-22.57
-21.73
-21.12
-20.63
-20.05
-19.22
-18.03
-16.53
-14.94
-13.52
-12.54
-12.11
-12.16
-12.49
-12.84
-13.01
-12.91
-12.59
-12.14
-11.71
-11.4
-11.27
-11.35
-11.62
-12.04
-12.59
-13.18
-13.75
-14.17
-14.3
-14.04
-13.34
-12.3
-11.09
-9.93
-8.97
-8.19
-7.41
-6.44
-5.22
-3.88
-2.71
-1.94
-1.61
-1.57
-1.53
-1.26
-0.68
0.12
0.97
1.73
2.35
2.82
3.08
3.05
2.66
1.93
1.01
0.1
-0.65
-1.18
-1.54
-1.83
-2.14
-2.52
-2.98
-3.48
-3.94
-4.25
-4.33
-4.13
-3.68
-3.06
-2.32
-1.5
-0.59
0.42
1.48
2.44
3.19
3.59
3.65
3.49
3.33
3.34
3.66
4.27
5.12
6.04
6.85
7.4
7.58
7.39
6.92
6.32
5.78
5.44
5.37
5.56
5.97
6.56
7.3
8.12
8.86
9.27
9.1
8.25
6.86
5.28
3.87
2.82
2.08
1.34
0.26
-1.33
-3.33
-5.4
-7.12
-8.26
-8.74
-8.71
-8.37
-7.9
-7.37
-6.81
-6.24
-5.8
-5.71
-6.16
-7.18
-8.57
-9.87
-10.56
-10.28
-8.96
-6.89
-4.55
-2.37
-0.64
0.6
1.46
2.08
2.64
3.3
4.23
5.49
6.98
8.37
9.21
9.14
8.09
6.33
4.37
2.64
1.27
0.02
-1.58
-3.95
-7.17
-10.99
-14.96
-18.66
-21.88
-24.51
-26.42
-27.29
-26.63
-23.98
-19.13
-12.38
-4.48
3.53
10.72
16.47
20.64
23.51
25.63
27.54
29.65
32.06
34.4
35.89
35.53
32.44
26.36
17.94
8.55
-0.12
-6.77
-10.93
-13.05
-14.21
-15.51
-17.7
-20.87
-24.68
-28.52
-31.76
-33.85
-34.34
-32.93
-29.54
-24.46
-18.27
-11.83
-6.02
-1.52
1.31
2.53
2.46
1.6
0.43
-0.75
-1.88
-3.04
-4.33
-5.72
-6.99
-7.79
-7.78
-6.77
-4.8
-2.13
0.84
3.74
6.22
8.15
9.58
10.78
12.1
13.89
16.27
19.12
22.07
24.64
26.52
27.67
28.39
29.19
30.57
32.75
35.49
38.02
39.2
37.88
33.34
25.66
15.73
4.96
-5.19
-13.74
-20.33
-25.2
-28.84
-31.68
-33.93
-35.51
-36.2
-35.81
-34.24
-31.56
-28.02
-23.99
-19.92
-16.21
-13.15
-10.88
-9.4
-8.62
-8.37
-8.37
-8.28
-7.82
-6.82
-5.4
-3.84
-2.51
-1.59
-1.01
-0.47
0.42
1.87
3.87
6.19
8.58
10.87
13.06
15.22
17.38
19.42
21.06
22.0
22.1
21.49
20.53
19.72
19.45
19.85
20.74
21.69
22.24
22.04
20.97
19.07
16.47
13.27
9.52
5.3
0.78
-3.77
-7.98
-11.57
-14.35
-16.28
-17.46
-17.99
-17.97
-17.52
-16.76
-15.87
-14.99
-14.2
-13.48
-12.75
-12.02
-11.34
-10.85
-10.63
-10.63
-10.62
-10.39
-9.85
-9.09
-8.36
-7.9
-7.76
-7.81
-7.83
-7.59
-7.06
-6.34
-5.6
-4.99
-4.57
-4.3
-4.11
-3.94
-3.77
-3.65
-3.59
-3.6
-3.63
-3.62
-3.52
-3.35
-3.21
-3.22
-3.43
-3.8
-4.15
-4.3
-4.1
-3.56
-2.86
-2.18
-1.62
-1.21
-0.83
-0.39
0.1
0.48
0.56
0.21
-0.5
-1.32
-1.94
-2.12
-1.86
-1.33
-0.71
-0.02
1.01
2.83
5.84
10.16
15.46
21.0
25.86
29.16
30.27
28.88
25.09
19.39
12.69
6.14
0.86
-2.41
-3.63
-3.42
-2.82
-2.74
-3.62
-5.3
-7.26
-8.99
-10.2
-10.9
-11.07
-10.55
-8.94
-5.88
-1.36
4.13
9.65
14.21
17.22
18.68
19.14
19.35
19.87
20.85
21.99
22.74
22.53
20.94
17.74
12.92
6.69
-0.55
-8.18
-15.44
-21.62
-26.2
-28.98
-30.23
-30.46
-30.3
-30.25
-30.58
-31.31
-32.36
-33.74
-35.57
-37.99
-41.01
-44.23
-46.92
-48.15
-47.09
-43.37
-37.21
-29.39
-21.0
-13.18
-6.84
-2.55
-0.46
-0.34
-1.48
-2.63
-2.05
2.13
11.46
26.62
47.12
71.36
97.09
122.14
144.85
164.29
179.88
190.81
195.81
193.29
182.05
162.03
134.72
102.88
69.79
38.27
10.12
-13.96
-34.05
-50.42
-63.34
-73.03
-79.82
-84.27
-86.99
-88.47
-88.92
-88.25
-86.24
-82.82
-78.08
-72.3
-65.79
-58.81
-51.6
-44.43
-37.62
-31.52
-26.38
-22.26
-18.91
-15.94
-12.93
-9.68
-6.29
-3.08
-0.42
1.48
2.7
3.57
4.43
5.43
6.47
7.26
7.47
6.95
5.76
4.16
2.39
0.56
-1.33
-3.35
-5.47
-7.48
-9.07
-10.01
-10.27
-10.05
-9.67
-9.41
-9.37
-9.51
-9.71
-9.89
-10.02
-10.11
-10.12
-9.96
-9.64
-9.22
-8.95
-9.09
-9.77
-10.87
-12.0
-12.68
-12.6
-11.76
-10.53
-9.41
-8.86
-9.06
-9.89
-11.12
-12.5
-13.93
-15.37
-16.84
-18.26
-19.58
-20.78
-21.98
-23.37
-25.03
-26.74
-28.02
-28.21
-26.82
-23.67
-19.01
-13.34
-7.2
-1.03
4.92
10.62
16.23
22.08
28.59
36.16
44.97
54.86
65.28
75.34
83.99
90.17
93.02
91.95
86.93
78.57
68.13
57.2
47.22
39.03
32.76
27.88
23.7
19.66
15.55
11.42
7.39
3.56
-0.07
-3.5
-6.77
-9.94
-13.14
-16.57
-20.35
-24.45
-28.6
-32.4
-35.43
-37.42
-38.3
-38.17
-37.19
-35.58
-33.52
-31.21
-28.84
-26.57
-24.49
-22.58
-20.74
-18.91
-17.07
-15.27
-13.6
-12.13
-10.92
-9.92
-9.02
-8.07
-6.92
-5.48
-3.75
-1.83
0.12
1.86
3.19
3.95
4.1
3.76
3.09
2.35
1.71
1.27
1.04
0.95
0.89
0.76
0.49
0.04
-0.54
-1.19
-1.74
-2.04
-1.98
-1.55
-0.87
-0.13
0.5
0.99
1.41
1.88
2.47
3.11
3.61
3.76
3.49
2.91
2.35
2.14
2.4
3.04
3.72
4.11
4.05
3.66
3.25
3.09
3.26
3.59
3.82
3.71
3.24
2.55
1.81
1.16
0.55
-0.12
-0.97
-2.06
-3.37
-4.82
-6.27
-7.53
-8.4
-8.74
-8.55
-8.02
-7.43
-7.08
-7.05
-7.22
-7.32
-7.11
-6.52
-5.68
-4.89
-4.38
-4.26
-4.45
-4.78
-5.12
-5.36
-5.43
-5.19
-4.5
-3.25
-1.47
0.54
2.42
3.84
4.77
5.51
6.58
8.46
11.38
15.24
19.76
24.65
29.79
35.15
40.61
45.8
50.01
52.41
52.3
49.46
44.27
37.61
30.54
24.06
18.89
15.35
13.41
12.74
12.78
12.86
12.34
10.77
8.07
4.53
0.7
-2.88
-5.86
-8.22
-10.19
-12.06
-13.99
-15.95
-17.8
-19.37
-20.56
-21.35
-21.73
-21.64
-20.99
-19.72
-17.9
-15.81
-13.79
-12.11
-10.77
-9.53
-7.95
-5.69
-2.77
0.44
3.26
5.11
5.76
5.48
4.85
4.49
4.74
5.53
6.47
7.09
7.03
6.21
4.84
3.31
2.02
1.24
1.07
1.41
1.94
2.17
1.49
-0.55
-4.03
-8.51
-13.11
-16.89
-19.24
-20.27
-20.64
-21.24
-22.61
-24.64
-26.58
-27.45
-26.57
-23.85
-19.87
-15.63
-12.19
-10.44
-10.92
-13.72
-18.43
-24.23
-30.02
-34.87
-38.46
-41.36
-44.86
-50.42
-58.79
-69.45
-80.64
-89.98
-95.49
-96.38
-93.33
-88.05
-82.48
-78.03
-75.12
-73.2
-71.01
-67.02
-59.81
-48.6
-33.55
-15.84
2.65
19.93
34.55
46.03
54.66
61.08
65.78
68.89
70.37
70.21
68.61
65.89
62.25
57.58
51.7
44.7
37.17
30.26
25.16
22.71
22.87
24.75
26.84
27.64
26.01
21.64
15.06
7.5
0.49
-4.6
-7.04
-6.92
-5.08
-2.76
-1.03
-0.42
-0.68
-0.93
0.02
3.1
8.63
16.1
24.3
31.8
37.47
40.82
42.2
42.5
42.78
43.91
46.31
49.86
53.96
57.71
60.03
59.98
56.98
51.14
43.31
34.96
27.72
22.98
21.47
23.09
27.05
32.0
36.38
38.69
37.79
33.29
25.86
17.22
9.75
5.64
6.0
10.38
16.97
23.43
27.97
30.02
30.2
29.89
30.52
32.98
37.55
43.89
51.25
58.54
64.49
67.85
67.8
64.2
57.65
49.3
40.51
32.45
25.99
21.55
19.19
18.87
20.67
24.95
32.2
42.56
55.07
67.4
76.39
79.6
76.88
70.95
66.27
66.46
71.86
78.93
81.86
75.78
59.42
35.72
10.11
-12.47
-29.93
-43.25
-54.78
-66.09
-76.58
-83.9
-85.56
-80.59
-70.01
-56.35
-42.43
-30.06
-19.64
-10.4
-1.23
8.5
18.65
28.51
37.35
45.08
52.41
60.53
70.61
83.37
98.78
116.11
133.94
150.19
162.09
166.57
160.93
143.79
115.84
79.52
38.12
-5.56
-50.04
-94.95
-139.91
-183.73
-224.83
-261.78
-294.3
-323.61
-351.61
-379.72
-407.89
-434.69
-458.22
-476.9
-489.88
-496.61
-496.09
-486.7
-466.87
-436.05
-395.59
-348.54
-298.68
-249.12
-201.65
-156.7
-113.89
-72.9
-33.75
3.32
38.31
72.14
106.46
142.76
181.7
222.53
262.71
298.49
325.68
340.56
340.88
326.42
299.25
263.54
224.63
187.74
156.67
132.99
115.98
103.42
92.75
81.99
70.17
57.1
42.98
28.2
13.31
-0.9
-13.41
-23.52
-31.27
-37.71
-44.48
-53.02
-63.59
-74.88
-84.33
-89.2
-87.7
-79.77
-67.08
-52.28
-38.02
-26.03
-16.84
-10.0
-4.49
0.78
6.72
13.93
22.6
32.34
42.14
50.59
56.3
58.57
57.64
54.57
50.7
46.98
43.72
40.57
36.96
32.35
26.44
19.17
10.74
1.73
-6.9
-13.86
-17.99
-18.66
-16.09
-11.0
-3.9
5.35
17.38
32.45
49.43
65.62
77.69
83.25
82.07
76.38
69.7
65.31
64.9
68.26
73.81
79.49
83.34
83.79
79.84
71.2
58.75
44.48
30.99
20.44
13.7
10.14
8.29
6.9
5.55
4.6
4.5
5.08
5.46
4.46
1.34
-3.7
-9.68
-15.53
-20.72
-25.49
-30.57
-36.46
-42.94
-49.01
-53.4
-55.08
-53.76
-49.98
-44.71
-38.99
-33.66
-29.25
-26.11
-24.53
-24.66
-26.31
-28.81
-30.93
-31.24
-28.57
-22.51
-13.65
-3.39
6.55
14.73
20.41
23.57
24.67
24.34
23.11
21.38
19.47
17.69
16.27
15.34
14.75
14.16
13.11
11.22
8.42
4.99
1.51
-1.38
-3.28
-4.18
-4.44
-4.57
-5.03
-6.17
-8.23
-11.43
-15.85
-21.29
-27.18
-32.68
-37.04
-39.93
-41.49
-42.17
-42.29
-41.79
-40.32
-37.67
-34.16
-30.7
-28.39
-27.96
-29.36
-31.79
-34.12
-35.43
-35.26
-33.72
-31.23
-28.37
-25.62
-23.27
-21.38
-19.84
-18.38
-16.67
-14.35
-11.11
-6.79
-1.55
4.08
9.3
13.26
15.39
15.61
14.33
12.22
10.02
8.29
7.44
7.77
9.44
12.25
15.46
17.94
18.53
16.61
12.54
7.61
3.5
1.53
2.17
4.86
8.43
11.65
13.73
14.5
14.31
13.62
12.83
12.16
11.92
12.57
14.76
19.06
25.56
33.65
42.1
49.5
54.77
57.53
58.1
57.24
55.76
54.22
52.8
51.52
50.38
49.42
48.71
48.25
47.89
47.27
45.97
43.71
40.55
36.85
33.09
29.6
26.35
23.12
19.75
16.38
13.53
11.69
10.95
10.8
10.33
8.76
5.98
2.62
-0.42
-2.59
-4.16
-6.06
-9.22
-13.85
-19.16
-23.77
-26.53
-27.25
-26.89
-26.89
-28.3
-31.01
-33.79
-35.02
-33.68
-29.97
-25.28
-21.4
-19.57
-19.88
-21.34
-22.55
-22.51
-21.15
-19.23
-17.84
-17.68
-18.76
-20.46
-21.97
-22.78
-22.83
-22.42
-21.97
-21.65
-21.4
-20.98
-20.34
-19.72
-19.59
-20.38
-22.08
-24.09
-25.53
-25.64
-24.24
-21.83
-19.34
-17.57
-16.81
-16.74
-16.7
-16.15
-14.98
-13.52
-12.21
-11.27
-10.47
-9.31
-7.21
-3.93
0.32
4.92
9.0
11.76
12.73
11.94
9.92
7.48
5.42
4.23
3.87
3.8
3.28
1.68
-1.04
-4.05
-5.96
-5.26
-1.12
6.2
15.39
24.62
32.27
37.45
40.03
40.37
38.93
36.14
32.42
28.38
24.72
21.97
20.24
19.19
18.45
18.05
18.69
21.53
27.62
37.3
49.99
64.51
79.46
93.68
106.51
117.55
126.58
133.44
138.14
140.92
142.26
142.64
142.33
141.33
139.4
136.34
132.17
127.21
121.86
116.5
111.25
106.03
100.65
94.7
87.67
78.84
67.51
53.26
36.22
17.16
-2.75
-22.39
-41.12
-58.86
-75.74
-91.81
-106.63
-119.5
-129.78
-137.32
-142.52
-146.07
-148.5
-149.87
-149.82
-147.88
-143.87
-138.13
-131.4
-124.43
-117.71
-111.28
-104.95
-98.49
-92.02
-85.94
-80.84
-77.14
-74.78
-73.17
-71.43
-68.7
-64.56
-59.14
-53.07
-47.17
-42.1
-38.15
-35.27
-33.16
-31.55
-30.36
-29.64
-29.49
-29.98
-30.99
-32.21
-33.3
-33.91
-33.85
-33.11
-31.91
-30.6
-29.51
-28.82
-28.42
-28.02
-27.25
-25.94
-24.15
-22.14
-20.12
-18.14
-15.95
-13.22
-9.78
-5.85
-1.94
1.39
3.86
5.69
7.45
9.77
12.95
16.76
20.64
24.01
26.54
28.29
29.56
30.59
31.38
31.66
31.12
29.66
27.55
25.26
23.27
21.86
20.98
20.44
19.99
19.45
18.64
17.38
15.36
12.27
7.9
2.26
-4.3
-11.12
-17.31
-21.94
-24.25
-23.86
-20.94
-16.13
-10.4
-4.7
0.22
4.0
6.53
7.89
8.19
7.6
6.37
4.88
3.6
2.93
3.0
3.62
4.32
4.6
4.18
3.13
1.9
1.15
1.45
3.15
6.18
9.99
13.6
15.81
15.52
12.08
5.7
-2.4
-10.13
-15.08
-15.27
-9.88
0.35
13.36
26.47
37.29
44.43
47.71
47.87
45.99
42.93
39.17
34.95
30.67
27.02
24.85
24.89
27.3
31.61
36.83
41.7
44.86
44.99
40.84
31.48
16.59
-3.22
-26.21
-49.74
-70.81
-86.78
-96.09
-98.74
-96.21
-91.01
-85.83
-82.36
-80.49
-78.0
-71.02
-55.16
-26.77
15.87
71.68
136.53
203.61
264.53
311.06
337.39
341.72
326.89
299.2
266.05
233.43
204.33
178.86
155.4
132.21
108.26
83.38
57.73
31.43
4.52
-22.74
-49.7
-75.53
-99.85
-123.25
-147.39
-174.35
-205.63
-241.29
-279.51
-316.9
-349.37
-373.04
-385.23
-384.94
-372.9
-351.31
-323.19
-291.68
-259.31
-227.5
-196.41
-165.06
-132.04
-96.17
-57.15
-15.89
25.7
65.17
100.09
128.69
150.17
164.77
173.63
178.4
180.77
182.06
182.93
183.25
182.4
179.51
173.77
164.59
151.72
135.39
116.42
96.17
76.42
59.02
45.38
36.19
31.49
31.04
34.61
42.02
52.68
65.1
76.92
85.49
88.97
87.22
82.02
76.29
72.73
72.68
75.76
80.32
84.49
87.06
87.84
87.24
85.7
83.21
79.43
74.08
67.37
60.12
53.41
48.01
43.83
39.96
35.05
28.02
18.48
6.99
-5.32
-17.08
-27.05
-34.32
-38.54
-39.98
-39.74
-39.71
-42.19
-49.35
-62.47
-81.32
-104.2
-128.28
-150.48
-168.45
-181.24
-189.37
-194.36
-197.89
-201.02
-203.69
-204.84
-202.87
-196.23
-184.01
-166.07
-142.94
-115.59
-85.25
-53.29
-21.22
9.33
36.78
59.78
77.49
89.55
96.01
97.15
93.37
85.19
73.27
58.55
42.19
25.5
9.66
-4.46
-16.41
-26.39
-35.15
-43.95
-54.09
-66.36
-80.56
-95.36
-108.72
-118.58
-123.69
-124.02
-120.57
-114.94
-108.7
-102.96
-98.22
-94.41
-91.05
-87.32
-82.21
-74.72
-64.18
-50.65
-35.11
-19.33
-5.33
5.24
11.64
14.23
14.11
12.69
11.12
10.11
10.01
10.99
13.17
16.49
20.61
24.84
28.39
30.68
31.68
31.89
32.13
33.13
35.22
38.16
41.4
44.22
46.06
46.62
45.91
44.2
41.92
39.6
37.67
36.27
35.1
33.5
30.77
26.62
21.51
16.52
12.92
11.52
12.19
13.96
15.54
15.95
15.04
13.41
11.96
11.37
11.72
12.53
13.09
12.88
11.74
9.96
8.0
6.28
5.01
4.11
3.38
2.63
1.84
1.22
1.08
1.58
2.7
4.12
5.37
6.14
6.42
6.55
7.12
8.6
11.11
14.3
17.5
20.0
21.34
21.53
20.95
20.2
19.83
20.1
20.99
22.29
23.7
24.96
25.85
26.21
25.95
25.04
23.54
21.65
19.65
17.84
16.47
15.61
15.25
15.26
15.48
15.78
16.0
15.89
15.2
13.72
11.4
8.46
5.25
2.18
-0.5
-2.72
-4.63
-6.37
-8.06
-9.63
-10.97
-12.01
-12.7
-13.08
-13.19
-13.0
-12.43
-11.35
-9.7
-7.47
-4.79
-1.88
0.96
3.44
5.38
6.68
7.36
7.54
7.36
6.96
6.45
5.91
5.36
4.85
4.4
4.02
3.74
3.53
3.34
3.14
2.88
2.57
2.2
1.8
1.41
1.1
0.9
0.83
0.82
0.7
0.28
-0.49
-1.48
-2.36
-2.75
-2.38
-1.24
0.47
2.38
4.24
5.96
7.56
9.15
10.71
12.1
13.17
13.84
14.22
14.52
14.94
15.49
15.95
15.95
15.23
13.71
11.64
9.43
7.5
6.11
5.28
4.89
4.69
4.48
4.14
3.66
3.1
2.56
2.09
1.67
1.24
0.67
-0.06
-0.9
-1.73
-2.39
-2.82
-3.07
-3.2
-3.25
-3.17
-2.8
-2.06
-0.95
0.34
1.54
2.42
2.82
2.8
2.47
1.99
1.4
0.62
-0.48
-1.99
-3.84
-5.79
-7.51
-8.69
-9.11
-8.76
-7.78
-6.36
-4.64
-2.69
-0.55
1.7
3.91
5.96
7.86
9.83
12.2
15.22
18.88
22.72
26.0
27.98
28.15
26.48
23.34
19.27
14.78
10.25
5.92
2.04
-1.09
-3.17
-3.95
-3.4
-1.77
0.49
2.81
4.67
5.74
5.91
5.27
4.02
2.42
0.74
-0.77
-1.88
-2.43
-2.35
-1.68
-0.62
0.6
1.72
2.51
2.82
2.62
1.93
0.87
-0.3
-1.31
-1.94
-2.1
-1.89
-1.57
-1.43
-1.69
-2.45
-3.65
-5.17
-6.85
-8.5
-9.89
-10.73
-10.74
-9.77
-7.87
-5.37
-2.77
-0.57
0.87
1.45
1.32
0.82
0.26
-0.12
-0.31
-0.49
-0.96
-2.01
-3.83
-6.38
-9.44
-12.62
-15.54
-17.84
-19.28
-19.67
-18.87
-16.8
-13.43
-8.92
-3.61
2.02
7.49
12.46
16.79
20.49
23.61
26.1
27.81
28.59
28.42
27.56
26.5
25.76
25.72
26.42
27.64
29.06
30.39
31.58
32.71
33.87
35.02
35.96
36.38
36.06
34.97
33.3
31.34
29.29
27.22
25.05
22.75
20.36
18.09
16.13
14.58
13.34
12.16
10.81
9.13
7.19
5.16
3.24
1.54
0.06
-1.27
-2.5
-3.67
-4.79
-5.86
-6.86
-7.79
-8.61
-9.3
-9.83
-10.22
-10.48
-10.62
-10.62
-10.4
-9.81
-8.76
-7.26
-5.47
-3.66
-2.1
-0.96
-0.26
0.12
0.33
0.45
0.47
0.34
0.04
-0.35
-0.67
-0.82
-0.79
-0.73
-0.8
-1.05
-1.41
-1.67
-1.62
-1.21
-0.55
0.14
0.62
0.77
0.58
0.08
-0.72
-1.82
-3.28
-5.03
-6.9
-8.66
-10.04
-10.85
-11.03
-10.67
-9.9
-8.9
-7.72
-6.35
-4.68
-2.61
-0.15
2.55
5.19
7.46
9.09
9.99
10.21
9.93
9.34
8.58
7.78
7.03
6.4
5.97
5.71
5.57
5.44
5.21
4.8
4.13
3.12
1.61
-0.53
-3.37
-6.81
-10.63
-14.52
-18.24
-21.68
-24.86
-27.81
-30.49
-32.78
-34.48
-35.48
-35.77
-35.49
-34.76
-33.63
-32.0
-29.74
-26.75
-23.08
-18.99
-14.84
-11.01
-7.77
-5.23
-3.29
-1.78
-0.47
0.76
1.97
3.08
4.03
4.82
5.47
6.08
6.72
7.38
8.01
8.56
9.01
9.37
9.67
9.89
9.95
9.77
9.33
8.7
8.04
7.48
7.11
6.88
6.67
6.33
5.84
5.28
4.85
4.79
5.23
6.17
7.41
8.69
9.79
10.62
11.24
11.87
12.69
13.75
14.91
15.9
16.4
16.15
14.97
12.76
9.46
5.1
-0.22
-6.3
-12.89
-19.72
-26.53
-33.1
-39.2
-44.6
-49.02
-52.1
-53.39
-52.42
-48.96
-43.3
-36.43
-29.89
-25.22
-23.35
-24.17
-26.72
-29.75
-32.38
-34.42
-36.08
-37.39
-37.91
-36.74
-33.16
-27.07
-19.22
-10.76
-2.73
4.4
10.67
16.4
21.82
26.93
31.58
35.56
38.66
40.64
41.24
40.21
37.51
33.42
28.45
23.21
18.16
13.49
9.19
5.24
1.71
-1.17
-3.09
-3.91
-3.7
-2.72
-1.38
-0.04
1.06
1.84
2.37
2.83
3.36
4.0
4.71
5.33
5.77
6.0
6.18
6.51
7.17
8.15
9.32
10.45
11.44
12.36
13.33
14.4
15.32
15.66
15.1
13.67
11.92
10.69
10.71
12.12
14.41
16.61
17.71
17.12
14.85
11.41
7.42
3.39
-0.44
-4.04
-7.43
-10.58
-13.38
-15.73
-17.56
-18.87
-19.71
-20.14
-20.18
-19.87
-19.19
-18.17
-16.81
-15.12
-13.1
-10.8
-8.33
-5.87
-3.65
-1.85
-0.51
0.44
1.17
1.83
2.52
3.22
3.9
4.54
5.2
5.93
6.73
7.47
7.9
7.77
6.95
5.58
3.99
2.6
1.72
1.39
1.47
1.68
1.8
1.75
1.55
1.23
0.75
-0.01
-1.12
-2.54
-4.04
-5.33
-6.16
-6.43
-6.24
-5.83
-5.42
-5.12
-4.9
-4.61
-4.13
-3.47
-2.75
-2.16
-1.87
-1.86
-1.99
-2.03
-1.84
-1.41
-0.9
-0.53
-0.45
-0.65
-0.96
-1.14
-0.98
-0.44
0.36
1.21
1.87
2.2
2.13
1.7
1.0
0.11
-0.85
-1.79
-2.54
-2.93
-2.8
-2.11
-0.96
0.39
1.57
2.29
2.38
1.94
1.19
0.44
-0.1
-0.4
-0.6
-0.86
-1.26
-1.73
-2.08
-2.16
-1.92
-1.48
-1.03
-0.74
-0.66
-0.71
-0.79
-0.83
-0.82
-0.79
-0.74
-0.61
-0.32
0.14
0.68
1.08
1.1
0.65
-0.22
-1.27
-2.17
-2.69
-2.74
-2.41
-1.84
-1.14
-0.37
0.51
1.52
2.71
4.06
5.56
7.17
8.83
10.41
11.8
12.92
13.76
14.46
15.23
16.25
17.55
18.98
20.22
20.88
20.66
19.41
17.21
14.36
11.29
8.39
5.88
3.72
1.7
-0.5
-3.09
-6.11
-9.41
-12.74
-15.81
-18.45
-20.61
-22.41
-24.0
-25.51
-26.87
-27.89
-28.27
-27.78
-26.38
-24.31
-21.95
-19.65
-17.56
-15.63
-13.69
-11.66
-9.65
-7.9
-6.64
-5.88
-5.46
-5.2
-5.06
-5.27
-6.19
-8.09
-10.88
-14.07
-16.92
-18.71
-19.05
-17.99
-15.89
-13.34
-10.92
-9.2
-8.57
-9.17
-10.83
-13.11
-15.46
-17.38
-18.51
-18.62
-17.56
-15.18
-11.48
-6.66
-1.27
3.84
7.86
10.35
11.49
12.02
12.89
14.76
17.7
21.13
24.08
25.67
25.43
23.56
20.76
17.92
15.76
14.6
14.28
14.43
14.66
14.74
14.67
14.58
14.59
14.73
14.89
14.93
14.79
14.45
14.0
13.47
12.85
11.99
10.81
9.32
7.6
5.83
4.15
2.59
1.12
-0.35
-1.83
-3.2
-4.27
-4.72
-4.3
-2.86
-0.48
2.56
5.85
8.93
11.5
13.47
14.92
16.0
16.75
17.08
16.84
15.92
14.37
12.37
10.2
8.05
6.0
4.07
2.29
0.75
-0.41
-1.09
-1.32
-1.22
-0.99
-0.73
-0.42
0.07
0.83
1.86
2.91
3.67
3.81
3.19
1.85
0.07
-1.82
-3.52
-4.83
-5.74
-6.37
-6.9
-7.54
-8.4
-9.52
-10.73
-11.78
-12.41
-12.45
-11.86
-10.76
-9.33
-7.76
-6.15
-4.58
-3.1
-1.73
-0.54
0.4
1.1
1.56
1.9
2.17
2.4
2.53
2.48
2.13
1.49
0.62
-0.26
-0.89
-1.07
-0.75
-0.04
0.79
1.46
1.79
1.73
1.35
0.79
0.19
-0.34
-0.71
-0.88
-0.84
-0.63
-0.39
-0.31
-0.58
-1.23
-2.15
-3.06
-3.68
-3.86
-3.65
-3.28
-3.02
-3.02
-3.24
-3.47
-3.46
-3.09
-2.39
-1.54
-0.73
-0.08
0.45
0.95
1.52
2.18
2.84
3.36
3.58
3.42
2.88
2.09
1.19
0.36
-0.32
-0.82
-1.17
-1.42
-1.56
-1.52
-1.22
-0.62
0.19
1.01
1.62
1.85
1.67
1.24
0.74
0.37
0.21
0.2
0.23
0.23
0.24
0.4
0.91
1.82
2.99
4.12
4.85
4.94
4.42
3.52
2.56
1.73
1.05
0.36
-0.5
-1.53
-2.54
-3.24
-3.48
-3.3
-3.0
-2.88
-3.16
-3.83
-4.71
-5.65
-6.62
-7.67
-8.86
-10.11
-11.16
-11.73
-11.65
-10.98
-10.05
-9.18
-8.57
-8.12
-7.5
-6.37
-4.56
-2.12
0.74
3.8
6.9
10.03
13.24
16.47
19.45
21.71
22.83
22.65
21.42
19.71
18.07
16.82
15.89
15.0
13.88
12.56
11.26
10.19
9.37
8.48
7.13
5.09
2.5
-0.24
-2.72
-4.75
-6.46
-8.05
-9.66
-11.16
-12.34
-12.95
-13.0
-12.69
-12.35
-12.22
-12.31
-12.5
-12.51
-12.22
-11.67
-11.16
-11.07
-11.7
-13.09
-14.98
-16.85
-18.17
-18.56
-18.02
-16.82
-15.42
-14.23
-13.38
-12.74
-12.01
-10.91
-9.36
-7.54
-5.78
-4.39
-3.49
-2.95
-2.52
-2.0
-1.37
-0.81
-0.57
-0.73
-1.17
-1.62
-1.8
-1.63
-1.2
-0.75
-0.46
-0.43
-0.6
-0.86
-1.15
-1.42
-1.67
-1.85
-1.89
-1.73
-1.37
-0.91
-0.48
-0.27
-0.4
-0.86
-1.53
-2.16
-2.41
-2.03
-0.91
0.84
2.9
4.94
6.66
7.98
8.96
9.75
10.44
11.02
11.45
11.71
11.88
12.1
12.49
13.09
13.78
14.34
14.56
14.32
13.65
12.72
11.76
10.93
10.27
9.68
8.98
8.06
6.9
5.63
4.4
3.31
2.34
1.39
0.41
-0.59
-1.44
-1.99
-2.13
-1.9
-1.48
-1.05
-0.71
-0.49
-0.31
-0.08
0.27
0.74
1.27
1.81
2.24
2.47
2.34
1.72
0.58
-1.04
-2.92
-4.75
-6.23
-7.17
-7.5
-7.36
-6.89
-6.25
-5.59
-5.03
-4.73
-4.84
-5.46
-6.53
-7.82
-8.99
-9.73
-9.82
-9.28
-8.29
-7.07
-5.84
-4.71
-3.7
-2.78
-1.95
-1.23
-0.67
-0.31
-0.16
-0.18
-0.32
-0.47
-0.55
-0.53
-0.46
-0.5
-0.76
-1.3
-2.06
-2.83
-3.38
-3.55
-3.36
-3.0
-2.7
-2.65
-2.84
-3.15
-3.37
-3.33
-2.98
-2.4
-1.72
-1.16
-0.87
-0.96
-1.41
-2.1
-2.76
-3.06
-2.72
-1.59
0.25
2.49
4.66
6.29
7.06
6.85
5.85
4.41
2.91
1.6
0.53
-0.42
-1.44
-2.66
-4.1
-5.72
-7.41
-9.01
-10.31
-11.01
-10.9
-9.92
-8.29
-6.41
-4.77
-3.71
-3.32
-3.48
-4.0
-4.83
-6.03
-7.68
-9.7
-11.8
-13.47
-14.29
-14.07
-12.91
-11.17
-9.21
-7.28
-5.44
-3.65
-1.86
-0.13
1.47
2.85
4.06
5.22
6.5
7.98
9.64
11.31
12.83
14.1
15.18
16.28
17.71
19.8
22.76
26.68
31.46
36.87
42.66
48.56
54.32
59.76
64.73
69.11
72.93
76.39
79.88
83.85
88.69
94.49
101.09
108.29
116.13
125.09
135.98
149.56
166.03
184.84
204.7
224.11
241.63
256.19
266.94
273.14
274.09
269.43
259.57
245.92
230.52
215.34
201.48
188.78
176.09
162.1
146.15
128.64
110.83
94.24
79.98
68.51
59.77
53.54
49.76
48.49
49.69
52.83
56.84
60.35
62.02
61.03
57.24
51.13
43.35
34.3
23.86
11.42
-3.82
-22.28
-43.67
-66.87
-90.32
-112.6
-133.1
-152.29
-171.55
-192.58
-216.61
-243.83
-273.4
-303.85
-333.77
-362.48
-390.28
-418.27
-448.16
-482.0
-521.78
-568.69
-621.95
-677.66
-728.73
-766.29
-782.45
-773.26
-740.3
-690.14
-631.61
-572.66
-518.02
-468.94
-424.5
-383.42
-345.27
-310.38
-279.09
-250.96
-224.6
-198.26
-170.53
-140.94
-110.01
-78.92
-48.84
-20.5
6.19
31.92
57.72
84.41
112.29
141.06
170.17
199.32
228.65
258.4
288.17
316.33
339.93
355.63
361.01
355.61
341.13
320.67
297.4
273.63
250.52
228.53
208.06
189.74
174.25
161.88
152.15
143.75
134.86
123.88
109.94
93.36
75.73
59.29
46.13
37.32
32.48
30.05
28.18
25.61
22.23
18.86
16.46
15.43
15.27
15.0
13.84
11.72
9.4
8.0
8.37
10.69
14.35
18.33
21.74
24.18
25.8
27.17
28.82
31.11
34.16
37.89
42.21
47.07
52.27
57.49
62.33
66.59
70.39
74.21
78.61
83.83
89.53
94.78
98.42
99.61
98.09
94.24
88.83
82.66
76.33
70.26
64.8
60.33
57.22
55.6
55.26
55.62
55.93
55.5
53.85
50.86
46.7
41.76
36.48
31.27
26.47
22.33
18.92
16.22
14.11
12.38
10.86
9.4
7.92
6.38
4.78
3.09
1.27
-0.68
-2.8
-5.0
-7.18
-9.12
-10.62
-11.53
-11.73
-11.24
-10.1
-8.46
-6.49
-4.37
-2.28
-0.32
1.51
3.22
4.84
6.29
7.41
8.02
8.05
7.51
6.55
5.36
4.04
2.63
1.11
-0.48
-2.0
-3.25
-4.07
-4.44
-4.47
-4.32
-4.06
-3.64
-2.88
-1.57
0.37
2.74
5.13
6.94
7.68
7.04
5.01
1.86
-1.94
-5.87
-9.5
-12.49
-14.65
-15.87
-15.99
-14.87
-12.34
-8.37
-3.06
3.23
9.95
16.42
21.97
26.1
28.49
29.16
28.37
26.58
24.33
22.13
20.31
18.96
17.97
17.06
15.96
14.52
12.74
10.83
9.04
7.59
6.53
5.81
5.33
5.09
5.14
5.55
6.33
7.28
8.1
8.49
8.29
7.52
6.42
5.19
4.07
3.21
2.76
2.82
3.48
4.76
6.57
8.81
11.39
14.15
16.89
19.29
20.97
21.6
21.09
19.62
17.61
15.52
13.64
12.0
10.41
8.65
6.56
4.17
1.63
-0.82
-3.03
-4.87
-6.27
-7.24
-7.9
-8.4
-8.98
-9.82
-10.99
-12.49
-14.2
-15.95
-17.65
-19.27
-20.76
-22.06
-22.99
-23.33
-22.89
-21.56
-19.45
-16.82
-14.1
-11.72
-10.07
-9.34
-9.53
-10.51
-12.04
-13.93
-16.01
-18.07
-19.94
-21.49
-22.67
-23.59
-24.46
-25.44
-26.58
-27.7
-28.41
-28.36
-27.29
-25.22
-22.36
-19.04
-15.56
-12.14
-8.93
-6.01
-3.42
-1.15
0.81
2.43
3.63
4.32
4.48
4.22
3.84
3.73
4.28
5.63
7.66
9.96
11.99
13.3
13.67
13.17
12.04
10.64
9.23
7.96
6.93
6.23
6.02
6.49
7.82
10.0
12.77
15.67
18.15
19.79
20.37
19.95
18.7
16.83
14.49
11.76
8.72
5.51
2.35
-0.57
-3.09
-5.18
-6.85
-8.14
-9.07
-9.65
-9.9
-9.87
-9.62
-9.15
-8.48
-7.55
-6.44
-5.22
-4.04
-3.03
-2.19
-1.44
-0.61
0.47
1.86
3.5
5.23
6.79
7.93
8.5
8.47
7.92
7.1
6.23
5.53
5.03
4.62
4.0
2.86
1.03
-1.5
-4.47
-7.48
-10.14
-12.17
-13.43
-13.99
-14.03
-13.85
-13.79
-14.22
-15.46
-17.67
-20.71
-24.19
-27.5
-30.11
-31.76
-32.61
-33.2
-34.23
-36.23
-39.3
-43.09
-47.02
-50.6
-53.68
-56.49
-59.43
-62.72
-66.28
-69.61
-72.04
-73.0
-72.25
-69.82
-66.06
-61.34
-55.9
-49.71
-42.53
-33.98
-23.76
-11.72
2.04
17.02
32.37
46.94
59.46
69.02
75.34
78.98
81.12
83.06
85.65
89.03
92.66
95.88
98.4
100.47
102.75
105.82
109.74
113.99
117.58
119.24
117.62
111.55
100.13
83.06
60.84
34.78
6.77
-21.08
-46.83
-68.96
-86.39
-98.46
-104.94
-106.01
-102.32
-94.91
-85.05
-73.88
-62.25
-50.57
-39.0
-27.6
-16.53
-6.15
3.06
10.6
16.06
19.25
20.35
20.04
19.46
19.87
22.14
26.34
31.69
37.0
41.37
44.63
47.28
49.79
51.94
52.59
50.27
44.22
35.1
24.91
16.06
10.18
7.42
6.58
5.99
4.43
1.6
-1.96
-5.42
-8.17
-10.0
-11.04
-11.57
-11.77
-11.76
-11.54
-11.12
-10.61
-10.19
-10.17
-10.83
-12.27
-14.24
-16.23
-17.58
-17.8
-16.82
-14.98
-12.86
-10.96
-9.48
-8.28
-7.02
-5.45
-3.58
-1.66
-0.13
0.69
0.65
-0.11
-1.27
-2.44
-3.31
-3.72
-3.62
-3.1
-2.28
-1.37
-0.55
-0.01
0.1
-0.26
-1.03
-2.04
-3.02
-3.76
-4.1
-3.99
-3.5
-2.78
-2.03
-1.54
-1.55
-2.23
-3.57
-5.29
-6.96
-8.09
-8.37
-7.74
-6.47
-4.96
-3.59
-2.62
-2.13
-2.1
-2.48
-3.19
-4.1
-4.99
-5.61
-5.77
-5.42
-4.65
-3.63
-2.49
-1.26
0.07
1.45
2.74
3.71
4.16
4.09
3.63
3.01
2.39
1.75
0.99
0.03
-1.03
-1.99
-2.58
-2.69
-2.36
-1.85
-1.49
-1.56
-2.19
-3.34
-4.83
-6.34
-7.53
-8.07
-7.78
-6.64
-4.83
-2.71
-0.66
1.01
2.13
2.7
2.83
2.69
2.41
2.05
1.68
1.36
1.15
1.17
1.42
1.81
2.12
2.13
1.73
1.05
0.35
-0.03
0.12
0.8
1.84
2.94
3.82
4.33
4.43
4.19
3.72
3.15
2.63
2.31
2.28
2.52
2.84
2.95
2.52
1.35
-0.53
-2.77
-4.9
-6.37
-6.88
-6.36
-5.05
-3.36
-1.71
-0.44
0.28
0.38
-0.11
-1.12
-2.47
-3.93
-5.16
-5.85
-5.8
-5.01
-3.74
-2.42
-1.44
-1.06
-1.29
-1.86
-2.46
-2.8
-2.8
-2.53
-2.2
-1.98
-2.0
-2.27
-2.7
-3.16
-3.55
-3.81
-3.98
-4.23
-4.73
-5.58
-6.7
-7.78
-8.4
-8.21
-7.1
-5.22
-2.97
-0.78
1.06
2.48
3.59
4.58
5.58
6.67
7.81
8.96
10.07
11.14
12.1
12.87
13.27
13.15
12.44
11.16
9.46
7.57
5.73
4.13
2.9
2.14
1.91
2.2
2.86
3.6
4.03
3.84
2.94
1.47
-0.24
-1.88
-3.34
-4.66
-6.0
-7.42
-8.73
-9.61
-9.71
-8.94
-7.53
-5.96
-4.78
-4.3
-4.52
-5.1
-5.61
-5.64
-5.02
-3.87
-2.46
-1.05
0.18
1.22
2.15
3.05
3.85
4.43
4.62
4.34
3.64
2.66
1.56
0.42
-0.77
-2.05
-3.44
-4.89
-6.27
-7.44
-8.27
-8.71
-8.81
-8.75
-8.82
-9.31
-10.37
-11.88
-13.51
-14.8
-15.43
-15.32
-14.68
-13.77
-12.83
-11.87
-10.74
-9.23
-7.17
-4.46
-1.16
2.53
6.29
9.69
12.35
14.13
15.24
16.22
17.77
20.39
24.24
29.06
34.26
39.13
43.07
45.68
46.88
46.92
46.35
45.91
46.3
47.95
50.7
53.82
56.03
55.89
52.16
44.32
32.86
19.28
5.74
-5.58
-13.25
-17.03
-17.78
-16.98
-15.97
-15.44
-15.46
-15.82
-16.61
-18.32
-21.65
-26.87
-33.56
-40.63
-46.75
-51.02
-53.34
-54.35
-54.95
-55.86
-57.23
-58.7
-59.74
-60.02
-59.61
-58.8
-57.9
-56.89
-55.4
-52.78
-48.46
-42.21
-34.25
-25.32
-16.38
-8.44
-2.28
1.66
3.47
3.65
3.02
2.43
2.47
3.38
5.02
7.09
9.29
11.48
13.58
15.45
16.88
17.66
17.74
17.38
17.1
17.38
18.48
20.2
21.95
23.0
22.78
21.06
18.0
14.05
9.72
5.5
1.72
-1.44
-3.98
-6.05
-7.83
-9.54
-11.27
-13.07
-14.92
-16.83
-18.8
-20.89
-23.13
-25.47
-27.6
-29.06
-29.2
-27.43
-23.47
-17.54
-10.38
-3.09
3.26
8.11
11.51
14.16
17.02
20.91
26.15
32.43
38.93
44.62
48.54
50.08
49.07
45.78
40.81
34.83
28.35
21.62
14.64
7.43
0.2
-6.45
-11.7
-14.65
-14.65
-11.48
-5.34
3.2
13.32
23.9
33.6
40.83
44.12
42.49
35.95
25.66
13.69
2.37
-6.42
-11.78
-13.93
-13.83
-12.62
-11.18
-9.89
-8.74
-7.6
-6.44
-5.36
-4.48
-3.87
-3.42
-2.93
-2.18
-1.05
0.42
2.03
3.5
4.51
4.77
4.11
2.47
-0.08
-3.39
-7.2
-11.07
-14.39
-16.47
-16.76
-15.12
-11.98
-8.28
-5.11
-3.29
-3.03
-3.98
-5.49
-6.98
-8.2
-9.2
-10.13
-10.98
-11.56
-11.62
-11.0
-9.82
-8.36
-6.96
-5.82
-4.96
-4.21
-3.44
-2.57
-1.64
-0.79
-0.2
0.02
-0.15
-0.64
-1.33
-2.1
-2.87
-3.61
-4.31
-4.97
-5.54
-5.96
-6.21
-6.36
-6.5
-6.75
-7.21
-7.9
-8.78
-9.76
-10.72
-11.54
-12.15
-12.53
-12.7
-12.83
-13.19
-14.07
-15.65
-17.84
-20.12
-21.68
-21.66
-19.4
-14.75
-8.08
-0.22
7.88
15.41
21.94
27.5
32.38
36.99
41.59
46.19
50.52
54.2
56.97
58.75
59.7
60.0
59.69
58.6
56.45
53.08
48.61
43.48
38.21
33.1
28.08
22.74
16.72
10.05
3.33
-2.45
-6.42
-8.38
-8.98
-9.53
-11.46
-15.69
-22.32
-30.71
-39.8
-48.57
-56.33
-62.76
-67.79
-71.46
-73.73
-74.4
-73.1
-69.43
-63.1
-54.07
-42.69
-29.63
-15.73
-1.84
11.37
23.45
34.17
43.4
51.03
56.87
60.55
61.62
59.74
54.83
47.3
37.93
27.72
17.53
7.89
-1.13
-9.64
-17.73
-25.19
-31.46
-35.73
-37.18
-35.31
-30.13
-22.35
-13.18
-4.0
4.09
10.6
15.69
19.86
23.42
26.22
27.65
26.97
23.81
18.46
11.79
4.87
-1.48
-7.02
-12.08
-17.24
-23.01
-29.46
-36.2
-42.44
-47.26
-49.85
-49.65
-46.41
-40.2
-31.44
-20.86
-9.42
1.91
12.31
21.45
29.48
36.98
44.58
52.52
60.39
67.08
71.13
71.27
66.98
58.76
47.97
36.45
25.87
17.33
11.18
7.22
4.93
3.8
3.41
3.46
3.63
3.63
3.21
2.29
0.93
-0.65
-2.3
-3.97
-5.7
-7.62
-9.73
-11.85
-13.64
-14.71
-14.8
-13.99
-12.65
-11.38
-10.8
-11.43
-13.59
-17.35
-22.48
-28.42
-34.26
-38.91
-41.35
-41.09
-38.39
-34.26
-30.01
-26.77
-25.01
-24.52
-24.66
-24.85
-24.8
-24.57
-24.3
-24.05
-23.66
-22.93
-21.78
-20.31
-18.76
-17.3
-15.84
-14.08
-11.57
-7.88
-2.87
3.28
9.96
16.41
21.88
25.9
28.47
30.0
31.02
31.96
32.85
33.37
33.06
31.6
29.12
26.18
23.62
22.08
21.71
22.0
21.98
20.63
17.37
12.37
6.41
0.56
-4.4
-8.24
-11.31
-14.19
-17.24
-20.31
-22.82
-23.98
-23.3
-20.82
-17.14
-13.15
-9.66
-7.06
-5.27
-3.88
-2.5
-0.97
0.5
1.5
1.64
0.75
-0.99
-3.17
-5.25
-6.87
-7.85
-8.24
-8.17
-7.71
-6.86
-5.55
-3.84
-1.89
-0.03
1.43
2.28
2.57
2.48
2.27
2.14
2.2
2.42
2.66
2.75
2.43
1.47
-0.23
-2.6
-5.3
-7.8
-9.62
-10.47
-10.36
-9.55
-8.46
-7.44
-6.64
-5.97
-5.15
-3.86
-1.87
0.79
3.84
6.79
9.19
10.73
11.47
11.75
12.06
12.8
14.02
15.44
16.57
16.93
16.3
14.77
12.7
10.54
8.74
7.57
7.08
7.14
7.41
7.52
7.12
6.04
4.3
2.15
-0.01
-1.85
-3.11
-3.79
-4.06
-4.27
-4.71
-5.53
-6.62
-7.68
-8.29
-8.11
-7.05
-5.25
-3.06
-0.92
0.8
1.88
2.32
2.38
2.45
2.89
3.9
5.39
7.05
8.48
9.42
9.82
9.75
9.29
8.41
7.04
5.2
3.04
0.88
-1.0
-2.47
-3.6
-4.59
-5.56
-6.48
-7.24
-7.73
-7.98
-8.22
-8.73
-9.68
-10.99
-12.34
-13.26
-13.4
-12.61
-11.08
-9.19
-7.4
-6.02
-5.12
-4.57
-4.12
-3.57
-2.82
-1.81
-0.51
1.13
3.11
5.21
7.06
8.19
8.29
7.36
5.76
4.03
2.68
1.95
1.78
1.95
2.23
2.52
2.8
3.13
3.47
3.74
3.83
3.7
3.38
2.94
2.48
2.04
1.59
1.02
0.2
-0.94
-2.32
-3.73
-4.82
-5.29
-4.98
-3.95
-2.53
-1.12
-0.05
0.56
0.79
0.84
0.85
0.83
0.69
0.36
-0.1
-0.46
-0.45
0.11
1.13
2.3
3.23
3.6
3.37
2.72
1.96
1.31
0.86
0.52
0.18
-0.26
-0.77
-1.23
-1.49
-1.42
-1.0
-0.34
0.35
0.81
0.85
0.43
-0.3
-1.1
-1.69
-1.97
-1.97
-1.85
-1.75
-1.62
-1.31
-0.64
0.39
1.63
2.73
3.39
3.5
3.19
2.68
2.2
1.85
1.6
1.49
1.61
2.07
2.99
4.29
5.7
6.87
7.53
7.6
7.13
6.27
5.11
3.69
2.0
0.15
-1.62
-2.97
-3.61
-3.48
-2.8
-1.95
-1.32
-1.19
-1.53
-2.14
-2.73
-3.01
-2.84
-2.23
-1.27
-0.09
1.2
2.54
3.84
5.03
5.96
6.46
6.41
5.76
4.6
3.14
1.64
0.35
-0.59
-1.1
-1.18
-0.83
-0.11
0.88
2.0
3.01
3.69
3.88
3.54
2.78
1.86
1.06
0.61
0.6
0.94
1.38
1.52
0.97
-0.54
-3.04
-6.3
-9.83
-13.01
-15.29
-16.32
-16.03
-14.59
-12.35
-9.72
-7.08
-4.69
-2.7
-1.11
0.1
0.98
1.55
1.85
1.93
1.91
1.95
2.21
2.79
3.68
4.75
5.83
6.75
7.41
7.79
7.87
7.7
7.29
6.65
5.73
4.49
2.97
1.26
-0.44
-1.94
-3.09
-3.9
-4.45
-4.89
-5.33
-5.85
-6.51
-7.36
-8.34
-9.26
-9.77
-9.46
-8.09
-5.74
-2.87
-0.16
1.8
2.72
2.65
1.9
0.9
-0.01
-0.63
-0.88
-0.77
-0.36
0.25
0.94
1.62
2.24
2.76
3.16
3.37
3.31
2.9
2.18
1.28
0.4
-0.28
-0.72
-0.98
-1.12
-1.19
-1.23
-1.22
-1.22
-1.34
-1.74
-2.57
-3.8
-5.2
-6.41
-7.05
-6.87
-5.92
-4.46
-2.86
-1.48
-0.48
0.19
0.73
1.34
2.15
3.1
4.02
4.74
5.14
5.29
5.32
5.48
5.95
6.8
7.98
9.24
10.28
10.76
10.52
9.54
8.0
6.18
4.37
2.81
1.69
1.05
0.82
0.8
0.72
0.36
-0.4
-1.49
-2.7
-3.8
-4.66
-5.26
-5.72
-6.12
-6.49
-6.75
-6.84
-6.73
-6.5
-6.23
-5.94
-5.61
-5.15
-4.5
-3.63
-2.61
-1.5
-0.32
0.91
2.18
3.41
4.49
5.34
5.96
6.41
6.76
6.96
6.88
6.37
5.37
4.11
2.98
2.34
2.31
2.62
2.74
2.13
0.55
-1.87
-4.66
-7.29
-9.39
-10.86
-11.82
-12.39
-12.64
-12.48
-11.85
-10.77
-9.43
-8.15
-7.2
-6.73
-6.65
-6.66
-6.44
-5.77
-4.64
-3.24
-1.82
-0.6
0.36
1.12
1.86
2.77
3.86
5.02
5.98
6.47
6.31
5.51
4.33
3.17
2.51
2.6
3.39
4.55
5.48
5.73
5.09
3.77
2.22
0.95
0.24
0.04
0.08
-0.01
-0.41
-1.1
-1.81
-2.21
-2.14
-1.59
-0.81
-0.02
0.6
1.12
1.69
2.45
3.35
4.09
4.32
3.81
2.63
1.18
-0.0
-0.48
-0.17
0.66
1.56
2.13
2.24
2.09
1.97
2.12
2.53
2.94
3.04
2.63
1.79
0.81
0.05
-0.31
-0.3
-0.15
-0.12
-0.29
-0.62
-1.0
-1.4
-1.82
-2.31
-2.85
-3.32
-3.5
-3.23
-2.49
-1.44
-0.32
0.64
1.37
1.92
2.42
2.96
3.47
3.8
3.75
3.25
2.38
1.41
0.65
0.29
0.36
0.7
1.12
1.5
1.84
2.16
2.45
2.68
2.83
3.01
3.41
4.18
5.26
6.35
6.93
6.57
5.09
2.71
-0.12
-2.9
-5.28
-7.08
-8.3
-8.93
-8.96
-8.42
-7.4
-6.14
-4.84
-3.69
-2.7
-1.75
-0.69
0.54
1.81
2.84
3.31
3.04
2.03
0.58
-0.88
-1.95
-2.35
-2.08
-1.36
-0.55
0.0
0.11
-0.24
-0.89
-1.63
-2.18
-2.31
-1.87
-0.84
0.62
2.22
3.52
4.08
3.62
2.1
-0.22
-2.86
-5.26
-6.97
-7.77
-7.69
-6.95
-5.91
-4.86
-4.0
-3.35
-2.83
-2.27
-1.6
-0.77
0.18
1.16
2.04
2.71
3.05
3.04
2.62
1.87
0.86
-0.24
-1.28
-2.1
-2.67
-3.02
-3.25
-3.39
-3.35
-2.92
-1.96
-0.52
1.1
2.39
2.94
2.59
1.49
-0.01
-1.54
-2.88
-3.97
-4.83
-5.49
-5.9
-6.03
-5.88
-5.46
-4.79
-3.85
-2.58
-0.98
0.85
2.77
4.56
6.05
7.14
7.72
7.72
7.12
5.98
4.46
2.84
1.38
0.32
-0.3
-0.55
-0.64
-0.79
-1.21
-1.93
-2.76
-3.26
-2.97
-1.54
0.94
3.97
6.73
8.48
8.83
7.9
6.22
4.42
2.96
1.96
1.31
0.81
0.35
-0.03
-0.25
-0.22
0.03
0.43
0.94
1.58
2.37
3.3
4.25
5.02
5.35
5.07
4.18
2.89
1.53
0.51
0.2
0.78
2.11
3.81
5.24
5.83
5.23
3.49
1.08
-1.33
-3.16
-4.08
-4.18
-3.78
-3.29
-3.02
-3.13
-3.58
-4.22
-4.9
-5.5
-5.96
-6.26
-6.36
-6.15
-5.52
-4.42
-3.02
-1.62
-0.62
-0.25
-0.58
-1.41
-2.44
-3.37
-4.01
-4.24
-3.99
-3.19
-1.84
-0.14
1.58
2.97
3.75
3.94
3.74
3.46
3.31
3.38
3.6
3.81
3.94
3.91
3.77
3.52
3.18
2.68
1.98
1.04
-0.21
-1.75
-3.57
-5.56
-7.63
-9.57
-11.22
-12.41
-12.97
-12.79
-11.82
-10.14
-7.96
-5.65
-3.64
-2.29
-1.83
-2.15
-3.0
-3.93
-4.6
-4.79
-4.53
-3.97
-3.34
-2.88
-2.7
-2.85
-3.23
-3.73
-4.22
-4.66
-5.17
-5.9
-7.01
-8.5
-10.14
-11.53
-12.28
-12.22
-11.47
-10.31
-9.04
-7.81
-6.49
-4.88
-2.78
-0.23
2.52
5.15
7.44
9.34
10.87
12.08
12.89
13.12
12.63
11.51
10.1
8.93
8.46
8.87
9.95
11.27
12.29
12.67
12.37
11.55
10.48
9.42
8.5
7.82
7.4
7.24
7.3
7.47
7.61
7.58
7.29
6.74
6.0
5.09
4.1
3.08
2.09
1.23
0.51
-0.08
-0.65
-1.26
-1.96
-2.66
-3.19
-3.38
-3.11
-2.4
-1.4
-0.34
0.52
1.01
1.13
1.06
1.08
1.43
2.16
3.13
4.03
4.55
4.56
4.13
3.52
2.97
2.62
2.42
2.21
1.88
1.39
0.83
0.32
-0.07
-0.36
-0.6
-0.79
-0.83
-0.61
-0.16
0.34
0.52
0.04
-1.26
-3.26
-5.5
-7.44
-8.62
-8.86
-8.26
-7.11
-5.76
-4.48
-3.41
-2.6
-1.96
-1.39
-0.73
0.15
1.3
2.71
4.26
5.76
6.99
7.77
7.98
7.63
6.75
5.46
3.88
2.16
0.46
-1.04
-2.22
-3.01
-3.46
-3.71
-3.91
-4.1
-4.23
-4.1
-3.58
-2.72
-1.82
-1.33
-1.59
-2.66
-4.19
-5.63
-6.51
-6.63
-6.17
-5.46
-4.82
-4.26
-3.57
-2.49
-0.91
0.9
2.48
3.34
3.25
2.31
0.94
-0.33
-1.06
-1.06
-0.37
0.75
2.02
3.15
3.92
4.22
4.13
3.88
3.79
4.11
4.86
5.78
6.48
6.64
6.16
5.19
4.02
2.88
1.83
0.8
-0.34
-1.59
-2.77
-3.61
-3.79
-3.15
-1.72
0.32
2.62
4.76
6.38
7.32
7.61
7.46
7.09
6.63
6.05
5.31
4.49
3.79
3.49
3.73
4.36
5.0
5.2
4.71
3.58
2.13
0.73
-0.36
-1.08
-1.52
-1.8
-2.01
-2.19
-2.33
-2.47
-2.69
-3.06
-3.61
-4.25
-4.91
-5.49
-6.02
-6.57
-7.24
-8.03
-8.8
-9.3
-9.29
-8.67
-7.59
-6.37
-5.3
-4.51
-3.94
-3.4
-2.81
-2.26
-1.96
-2.17
-2.94
-4.06
-5.15
-5.85
-5.93
-5.38
-4.25
-2.6
-0.42
2.26
5.27
8.24
10.68
12.14
12.44
11.74
10.49
9.26
8.46
8.28
8.54
8.89
8.96
8.56
7.78
6.97
6.59
7.01
8.27
10.16
12.31
14.37
16.15
17.57
18.54
18.77
17.82
15.44
11.77
7.58
4.03
2.19
2.55
4.75
7.78
10.45
11.84
11.61
9.91
7.14
3.8
0.34
-2.83
-5.41
-7.23
-8.3
-8.88
-9.33
-9.99
-10.94
-12.0
-12.92
-13.41
-13.38
-12.95
-12.49
-12.51
-13.52
-15.79
-19.19
-23.14
-26.72
-28.98
-29.2
-27.11
-22.9
-17.18
-10.85
-4.9
-0.24
2.53
3.24
2.2
0.08
-2.33
-4.35
-5.57
-5.86
-5.25
-3.95
-2.28
-0.67
0.4
0.57
-0.17
-1.55
-2.99
-3.92
-3.98
-3.13
-1.61
0.2
1.85
2.99
3.38
2.95
1.82
0.29
-1.23
-2.38
-2.94
-2.87
-2.28
-1.29
0.03
1.67
3.61
5.73
7.71
9.17
9.7
9.06
7.29
4.65
1.61
-1.39
-4.02
-6.05
-7.43
-8.13
-8.24
-7.95
-7.61
-7.55
-7.95
-8.6
-8.99
-8.44
-6.48
-3.04
1.41
6.04
9.95
12.49
13.41
12.95
11.68
10.3
9.37
9.1
9.34
9.7
9.75
9.24
8.23
6.96
5.65
4.39
3.05
1.51
-0.27
-2.07
-3.59
-4.54
-4.82
-4.59
-4.16
-3.85
-3.82
-4.04
-4.3
-4.37
-4.1
-3.49
-2.69
-1.92
-1.33
-0.98
-0.81
-0.69
-0.51
-0.17
0.33
0.87
1.25
1.27
0.78
-0.21
-1.55
-3.02
-4.41
-5.64
-6.68
-7.55
-8.22
-8.6
-8.6
-8.24
-7.64
-6.93
-6.2
-5.42
-4.46
-3.26
-1.85
-0.43
0.76
1.56
1.99
2.18
2.32
2.51
2.77
2.97
2.98
2.7
2.12
1.32
0.4
-0.53
-1.38
-2.06
-2.44
-2.41
-1.85
-0.84
0.41
1.53
2.17
2.13
1.43
0.37
-0.76
-1.72
-2.47
-3.16
-3.95
-4.89
-5.87
-6.69
-7.17
-7.25
-7.02
-6.62
-6.21
-5.8
-5.36
-4.9
-4.47
-4.23
-4.36
-4.91
-5.77
-6.74
-7.64
-8.41
-9.11
-9.85
-10.61
-11.22
-11.37
-10.82
-9.48
-7.42
-4.84
-1.91
1.25
4.56
7.85
10.82
13.06
14.22
14.14
12.93
10.96
8.75
6.74
5.16
3.99
3.06
2.16
1.15
-0.02
-1.37
-2.93
-4.75
-6.8
-8.87
-10.62
-11.71
-11.99
-11.65
-11.21
-11.25
-12.2
-14.22
-17.13
-20.51
-23.74
-26.05
-26.63
-24.82
-20.35
-13.51
-5.09
3.9
12.53
20.23
26.86
32.51
37.4
41.68
45.48
48.87
51.9
54.58
56.8
58.31
58.69
57.38
53.72
47.17
37.59
25.48
12.04
-1.1
-12.37
-20.77
-26.08
-28.71
-29.16
-27.76
-24.52
-19.47
-12.92
-5.73
0.98
6.15
9.23
10.21
9.52
7.67
5.12
2.25
-0.62
-3.09
-4.74
-5.21
-4.29
-1.88
1.94
6.95
12.71
18.56
23.81
27.89
30.55
31.92
32.26
31.8
30.49
28.06
24.18
18.78
12.22
5.24
-1.25
-6.47
-10.06
-12.07
-12.9
-13.11
-13.2
-13.57
-14.47
-16.06
-18.48
-21.77
-25.78
-30.16
-34.31
-37.55
-39.29
-39.2
-37.32
-34.07
-30.05
-25.95
-22.31
-19.49
-17.6
-16.52
-16.0
-15.75
-15.48
-15.0
-14.22
-13.08
-11.56
-9.63
-7.26
-4.48
-1.37
1.95
5.44
9.21
13.51
18.62
24.64
31.35
38.19
44.36
49.06
51.72
52.22
50.85
48.15
44.7
40.9
36.78
32.13
26.64
20.18
12.93
5.46
-1.48
-7.18
-11.19
-13.47
-14.37
-14.42
-14.23
-14.27
-14.75
-15.64
-16.66
-17.36
-17.37
-16.58
-15.34
-14.43
-14.82
-17.25
-21.83
-27.9
-34.17
-39.25
-42.11
-42.43
-40.59
-37.31
-33.34
-29.15
-25.0
-21.05
-17.6
-15.04
-13.77
-14.01
-15.63
-18.19
-20.99
-23.25
-24.36
-23.98
-22.15
-19.26
-15.83
-12.35
-9.14
-6.34
-3.99
-2.21
-1.16
-1.01
-1.76
-3.05
-4.27
-4.75
-4.1
-2.38
-0.1
2.05
3.52
4.16
4.2
4.08
4.18
4.63
5.27
5.82
6.09
6.02
5.73
5.36
4.99
4.56
3.98
3.19
2.3
1.57
1.29
1.73
3.0
4.96
7.3
9.55
11.19
11.81
11.18
9.42
6.91
4.27
2.12
0.95
0.89
1.73
3.01
4.17
4.84
4.95
4.72
4.49
4.58
5.1
5.92
6.72
7.09
6.7
5.51
3.77
2.06
1.01
1.1
2.42
4.6
6.99
8.91
9.96
10.08
9.55
8.75
7.98
7.39
7.0
6.76
6.64
6.59
6.59
6.59
6.58
6.55
6.53
6.52
6.41
5.99
4.9
2.8
-0.5
-4.88
-9.86
-14.73
-18.78
-21.48
-22.69
-22.62
-21.77
-20.71
-19.96
-19.72
-19.83
-19.86
-19.18
-17.25
-13.77
-8.77
-2.49
4.68
12.24
19.55
25.74
29.89
31.25
29.71
26.0
21.53
17.8
15.8
15.54
16.21
16.66
16.13
14.52
12.4
10.53
9.43
9.12
9.26
9.49
9.63
9.7
9.93
10.49
11.47
12.86
14.5
16.09
17.23
17.59
17.16
16.36
16.02
17.08
20.09
24.89
30.6
35.93
39.66
40.95
39.54
35.62
29.78
22.79
15.53
8.73
2.74
-2.61
-7.86
-13.63
-20.17
-27.12
-33.6
-38.5
-40.88
-40.28
-36.79
-30.95
-23.63
-15.81
-8.5
-2.55
1.52
3.66
4.18
3.56
2.16
0.14
-2.52
-5.76
-9.25
-12.37
-14.47
-15.11
-14.33
-12.58
-10.56
-8.85
-7.81
-7.54
-7.99
-9.05
-10.55
-12.15
-13.33
-13.49
-12.23
-9.49
-5.6
-1.19
3.11
6.82
9.66
11.5
12.27
11.92
10.56
8.48
6.18
4.15
2.75
2.02
1.72
1.58
1.4
1.17
1.0
0.93
0.88
0.72
0.31
-0.36
-1.19
-2.12
-3.12
-4.29
-5.66
-7.15
-8.46
-9.2
-9.08
-8.1
-6.53
-4.88
-3.63
-3.0
-2.96
-3.26
-3.61
-3.8
-3.79
-3.71
-3.71
-3.88
-4.24
-4.65
-4.97
-5.05
-4.81
-4.22
-3.28
-2.05
-0.62
0.83
2.08
2.89
3.09
2.55
1.34
-0.35
-2.19
-3.75
-4.69
-4.83
-4.27
-3.38
-2.68
-2.64
-3.5
-5.18
-7.32
-9.4
-10.87
-11.33
-10.51
-8.38
-5.13
-1.1
3.21
7.27
10.68
13.21
14.86
15.82
16.34
16.67
16.96
17.23
17.46
17.57
17.45
17.01
16.19
15.02
13.64
12.24
11.04
10.14
9.5
8.94
8.26
7.35
6.19
4.9
3.54
2.16
0.8
-0.45
-1.43
-1.95
-1.93
-1.56
-1.18
-1.23
-1.92
-3.1
-4.34
-5.13
-5.16
-4.47
-3.4
-2.32
-1.42
-0.7
0.02
0.88
1.86
2.72
3.19
3.05
2.33
1.24
0.14
-0.61
-0.84
-0.54
0.09
0.76
1.24
1.39
1.25
0.95
0.65
0.47
0.48
0.67
1.02
1.47
1.96
2.4
2.72
2.81
2.61
2.04
1.05
-0.41
-2.29
-4.45
-6.6
-8.4
-9.54
-9.92
-9.71
-9.27
-9.02
-9.28
-10.16
-11.64
-13.69
-16.29
-19.39
-22.83
-26.17
-28.81
-30.2
-30.1
-28.83
-27.12
-25.84
-25.61
-26.44
-27.74
-28.52
-27.85
-25.26
-21.0
-15.9
-11.12
-7.71
-6.24
-6.7
-8.51
-10.81
-12.75
-13.72
-13.46
-11.91
-9.14
-5.2
-0.29
5.12
10.23
14.07
15.86
15.48
13.59
11.47
10.45
11.38
14.3
18.55
23.14
27.2
30.31
32.46
33.94
35.1
36.3
37.83
39.87
42.43
45.3
47.98
49.75
49.87
47.81
43.46
37.22
29.96
22.79
16.74
12.48
10.24
9.73
10.37
11.47
12.47
13.01
12.99
12.51
11.68
10.53
8.96
6.84
4.08
0.81
-2.64
-5.85
-8.45
-10.3
-11.44
-12.03
-12.25
-12.13
-11.65
-10.8
-9.65
-8.41
-7.34
-6.6
-6.28
-6.33
-6.62
-7.07
-7.73
-8.67
-9.96
-11.53
-13.16
-14.51
-15.27
-15.28
-14.63
-13.57
-12.48
-11.65
-11.24
-11.19
-11.35
-11.48
-11.44
-11.13
-10.57
-9.78
-8.87
-7.94
-7.08
-6.37
-5.88
-5.65
-5.66
-5.85
-6.06
-6.12
-5.87
-5.22
-4.24
-3.08
-1.98
-1.16
-0.74
-0.67
-0.8
-0.96
-1.02
-0.97
-0.9
-0.89
-1.01
-1.18
-1.25
-1.06
-0.51
0.37
1.38
2.29
2.87
2.98
2.64
2.0
1.31
0.86
0.81
1.17
1.8
2.48
2.98
3.18
2.99
2.43
1.53
0.37
-0.9
-2.1
-2.98
-3.38
-3.27
-2.8
-2.23
-1.84
-1.72
-1.83
-2.0
-2.1
-2.07
-2.0
-2.03
-2.27
-2.71
-3.25
-3.71
-3.87
-3.61
-2.92
-1.9
-0.74
0.34
1.12
1.5
1.49
1.24
0.93
0.72
0.67
0.72
0.75
0.65
0.35
-0.15
-0.83
-1.64
-2.55
-3.52
-4.45
-5.19
-5.56
-5.39
-4.64
-3.42
-1.93
-0.46
0.76
1.64
2.15
2.35
2.23
1.79
0.99
-0.11
-1.34
-2.43
-3.07
-3.09
-2.49
-1.41
-0.07
1.3
2.59
3.72
4.66
5.41
5.89
6.03
5.73
4.92
3.58
1.81
-0.12
-1.89
-3.18
-3.83
-3.9
-3.61
-3.27
-3.11
-3.21
-3.46
-3.7
-3.72
-3.41
-2.73
-1.78
-0.71
0.28
1.03
1.45
1.53
1.33
0.97
0.55
0.15
-0.2
-0.43
-0.5
-0.3
0.19
0.97
1.87
2.67
3.17
3.26
3.03
2.64
2.28
2.03
1.87
1.72
1.53
1.33
1.15
0.99
0.76
0.3
-0.5
-1.65
-3.05
-4.57
-6.09
-7.58
-8.96
-10.12
-10.83
-10.85
-10.06
-8.54
-6.54
-4.45
-2.63
-1.28
-0.44
-0.02
0.13
0.18
0.23
0.35
0.53
0.78
1.06
1.37
1.67
1.85
1.79
1.42
0.78
0.06
-0.47
-0.64
-0.43
-0.04
0.21
0.1
-0.43
-1.24
-2.11
-2.86
-3.43
-3.79
-3.96
-3.95
-3.76
-3.48
-3.22
-3.09
-3.06
-2.98
-2.59
-1.76
-0.5
0.97
2.41
3.64
4.66
5.58
6.47
7.28
7.82
7.9
7.46
6.62
5.71
5.06
4.87
5.12
5.59
5.98
6.05
5.64
4.81
3.7
2.51
1.42
0.52
-0.18
-0.72
-1.16
-1.49
-1.7
-1.71
-1.54
-1.28
-1.08
-1.11
-1.44
-2.04
-2.75
-3.34
-3.68
-3.67
-3.36
-2.81
-2.12
-1.37
-0.6
0.16
0.86
1.43
1.8
1.9
1.73
1.32
0.81
0.35
0.08
0.1
0.43
1.0
1.67
2.29
2.66
2.69
2.41
1.94
1.5
1.3
1.39
1.68
1.95
2.0
1.68
1.01
0.1
-0.93
-1.96
-2.93
-3.81
-4.61
-5.34
-5.98
-6.48
-6.79
-6.79
-6.39
-5.57
-4.38
-2.93
-1.39
0.12
1.47
2.6
3.46
4.0
4.22
4.13
3.83
3.38
2.89
2.4
1.92
1.48
1.15
0.97
1.01
1.26
1.64
2.07
2.45
2.8
3.18
3.61
4.02
4.21
3.97
3.16
1.86
0.34
-1.06
-2.09
-2.76
-3.26
-3.87
-4.73
-5.75
-6.62
-6.98
-6.62
-5.59
-4.16
-2.72
-1.52
-0.68
-0.07
0.47
1.04
1.63
2.12
2.36
2.23
1.75
1.06
0.42
0.11
0.27
0.89
1.78
2.67
3.32
3.65
3.69
3.56
3.34
3.04
2.62
2.02
1.28
0.48
-0.23
-0.77
-1.14
-1.4
-1.63
-1.93
-2.37
-2.95
-3.68
-4.5
-5.31
-5.96
-6.26
-6.12
-5.52
-4.54
-3.42
-2.38
-1.59
-1.11
-0.9
-0.83
-0.75
-0.59
-0.35
-0.11
0.07
0.15
0.18
0.28
0.56
1.08
1.78
2.55
3.25
3.82
4.27
4.7
5.19
5.76
6.32
6.73
6.86
6.68
6.22
5.58
4.86
4.09
3.26
2.31
1.17
-0.12
-1.48
-2.74
-3.69
-4.21
-4.25
-3.86
-3.19
-2.41
-1.7
-1.19
-0.92
-0.88
-0.99
-1.16
-1.32
-1.41
-1.42
-1.29
-1.0
-0.5
0.2
1.03
1.81
2.43
2.79
2.94
3.03
3.23
3.6
4.06
4.42
4.43
3.99
3.16
2.12
1.13
0.35
-0.21
-0.68
-1.27
-2.18
-3.44
-4.93
-6.33
-7.27
-7.48
-6.9
-5.67
-4.13
-2.57
-1.19
-0.0
1.07
2.07
2.92
3.49
3.68
3.49
3.09
2.66
2.33
2.08
1.78
1.34
0.76
0.21
-0.13
-0.09
0.36
1.11
2.0
2.82
3.41
3.67
3.51
2.92
1.94
0.73
-0.51
-1.61
-2.46
-3.12
-3.68
-4.27
-4.91
-5.54
-5.99
-6.12
-5.86
-5.24
-4.39
-3.44
-2.48
-1.52
-0.55
0.41
1.26
1.9
2.25
2.36
2.34
2.37
2.54
2.83
3.12
3.25
3.1
2.7
2.15
1.57
1.04
0.62
0.29
0.03
-0.17
-0.34
-0.5
-0.68
-0.94
-1.33
-1.89
-2.64
-3.58
-4.67
-5.82
-6.91
-7.76
-8.19
-8.02
-7.21
-5.86
-4.23
-2.63
-1.34
-0.46
0.07
0.39
0.63
0.82
0.9
0.81
0.61
0.45
0.53
0.98
1.74
2.63
3.4
3.88
4.01
3.89
3.66
3.5
3.52
3.74
4.12
4.49
4.69
4.59
4.15
3.39
2.38
1.17
-0.2
-1.69
-3.18
-4.45
-5.27
-5.45
-4.97
-3.99
-2.76
-1.46
-0.15
1.22
2.72
4.31
5.83
6.99
7.54
7.34
6.49
5.27
4.0
2.95
2.26
1.87
1.69
1.61
1.54
1.47
1.39
1.24
0.93
0.41
-0.32
-1.14
-1.91
-2.48
-2.79
-2.91
-2.97
-3.14
-3.56
-4.24
-5.07
-5.79
-6.12
-5.81
-4.83
-3.36
-1.7
-0.2
0.92
1.63
1.95
1.98
1.74
1.21
0.38
-0.58
-1.45
-1.96
-1.92
-1.33
-0.34
0.81
1.94
2.94
3.78
4.51
5.14
5.69
6.12
6.4
6.47
6.25
5.67
4.67
3.25
1.5
-0.47
-2.5
-4.46
-6.24
-7.72
-8.76
-9.25
-9.15
-8.48
-7.37
-5.96
-4.43
-2.91
-1.47
-0.19
0.88
1.73
2.36
2.89
3.43
4.09
4.84
5.57
6.07
6.2
5.93
5.37
4.7
4.1
3.62
3.23
2.86
2.48
2.09
1.72
1.37
0.97
0.47
-0.18
-0.95
-1.82
-2.81
-4.01
-5.46
-7.13
-8.76
-9.95
-10.31
-9.62
-7.98
-5.74
-3.36
-1.21
0.59
2.04
3.25
4.21
4.82
4.91
4.35
3.2
1.74
0.34
-0.69
-1.19
-1.22
-0.96
-0.61
-0.29
-0.04
0.18
0.42
0.69
0.98
1.25
1.44
1.51
1.47
1.37
1.26
1.15
1.03
0.76
0.2
-0.71
-1.88
-3.02
-3.74
-3.74
-2.89
-1.36
0.56
2.53
4.32
5.85
7.13
8.14
8.79
8.97
8.59
7.72
6.57
5.4
4.46
3.82
3.47
3.29
3.18
3.08
2.98
2.9
2.86
2.88
3.0
3.21
3.4
3.43
3.15
2.52
1.65
0.76
0.05
-0.41
-0.75
-1.18
-1.89
-2.83
-3.81
-4.5
-4.67
-4.28
-3.51
-2.65
-1.89
-1.3
-0.82
-0.32
0.24
0.79
1.16
1.17
0.77
0.07
-0.68
-1.18
-1.25
-0.9
-0.35
0.14
0.37
0.26
-0.12
-0.6
-1.04
-1.35
-1.51
-1.58
-1.61
-1.67
-1.8
-2.02
-2.35
-2.81
-3.44
-4.31
-5.42
-6.65
-7.74
-8.36
-8.22
-7.19
-5.42
-3.22
-1.02
0.9
2.4
3.51
4.28
4.74
4.78
4.31
3.33
2.01
0.7
-0.24
-0.6
-0.4
0.17
0.82
1.31
1.53
1.47
1.17
0.72
0.14
-0.47
-1.06
-1.58
-2.03
-2.45
-2.91
-3.42
-3.95
-4.47
-5.01
-5.64
-6.49
-7.6
-8.85
-9.97
-10.62
-10.52
-9.6
-8.09
-6.35
-4.73
-3.4
-2.31
-1.31
-0.27
0.79
1.69
2.21
2.24
1.86
1.3
0.9
0.9
1.41
2.4
3.74
5.2
6.5
7.43
7.85
7.78
7.37
6.83
6.31
5.84
5.35
4.78
4.13
3.52
3.02
2.63
2.2
1.55
0.56
-0.63
-1.71
-2.31
-2.23
-1.52
-0.48
0.55
1.34
1.85
2.2
2.58
3.03
3.51
3.89
4.07
4.03
3.83
3.56
3.28
3.08
3.02
3.18
3.61
4.27
5.01
5.61
5.85
5.62
4.99
4.16
3.37
2.75
2.3
1.88
1.38
0.74
-0.02
-0.84
-1.72
-2.75
-4.05
-5.68
-7.5
-9.25
-10.57
-11.2
-11.1
-10.38
-9.25
-7.9
-6.46
-4.99
-3.55
-2.24
-1.18
-0.45
-0.04
0.13
0.23
0.42
0.81
1.45
2.28
3.21
4.13
4.95
5.64
6.17
6.55
6.73
6.65
6.25
5.52
4.53
3.43
2.42
1.63
1.1
0.73
0.31
-0.35
-1.43
-2.91
-4.64
-6.33
-7.69
-8.49
-8.59
-8.02
-6.91
-5.46
-3.95
-2.65
-1.74
-1.27
-1.18
-1.32
-1.55
-1.83
-2.19
-2.68
-3.26
-3.78
-4.0
-3.73
-2.92
-1.72
-0.41
0.72
1.49
1.85
1.9
1.78
1.64
1.6
1.72
1.99
2.4
2.88
3.34
3.68
3.8
3.55
2.85
1.67
0.14
-1.54
-3.14
-4.5
-5.51
-6.17
-6.43
-6.25
-5.6
-4.5
-3.15
-1.78
-0.68
0.01
0.27
0.25
0.1
-0.05
-0.12
-0.09
0.08
0.44
1.03
1.81
2.72
3.62
4.43
5.09
5.61
6.08
6.56
7.04
7.44
7.59
7.34
6.66
5.65
4.52
3.43
2.45
1.53
0.53
-0.6
-1.77
-2.74
-3.27
-3.22
-2.65
-1.77
-0.86
-0.08
0.54
1.09
1.71
2.47
3.32
4.11
4.62
4.72
4.36
3.65
2.8
2.04
1.56
1.39
1.43
1.51
1.45
1.2
0.81
0.39
0.02
-0.29
-0.61
-0.97
-1.37
-1.74
-2.0
-2.14
-2.27
-2.54
-3.03
-3.71
-4.41
-4.95
-5.14
-4.92
-4.34
-3.56
-2.75
-2.05
-1.53
-1.16
-0.87
-0.55
-0.13
0.36
0.89
1.38
1.79
