2013-07-04 13:23:46
64.0
-0.0
-0.0
-0.0
-0.0
-0.0
-0.0
-0.0
-0.0
-0.0
-0.0
0.0
0.01
0.01
-0.0
-0.03
-0.05
-0.05
0.0
0.13
0.36
0.66
1.01
1.37
1.72
2.06
2.4
2.79
3.24
3.8
4.42
5.06
5.66
6.2
6.68
7.15
7.68
8.31
9.14
10.09
11.04
11.88
12.56
13.14
13.76
14.65
15.96
17.91
20.32
22.9
25.38
27.58
29.57
31.68
34.32
37.81
42.54
48.15
54.1
59.83
64.97
69.58
74.14
79.34
85.71
93.76
103.0
112.62
121.73
129.77
136.75
143.3
150.75
157.77
166.64
177.95
191.79
206.97
220.57
228.25
225.36
208.53
176.87
132.76
80.05
23.07
-34.94
-92.44
-149.16
-205.23
-260.37
-313.74
-363.87
-409.83
-450.91
-486.5
-515.74
-537.23
-549.22
-549.96
-538.37
-514.21
-478.67
-433.88
-382.45
-327.02
-269.84
-212.63
-156.66
-102.95
-52.37
-5.9
35.58
71.43
101.35
125.5
144.38
158.69
169.15
176.37
180.75
182.57
182.07
179.51
175.23
169.65
163.18
156.15
148.81
141.3
133.69
126.02
118.33
110.69
103.16
95.8
88.68
81.83
75.25
68.95
62.95
57.25
51.86
46.78
42.03
37.59
33.45
29.61
26.07
22.8
19.82
17.12
14.69
12.51
10.56
8.83
7.29
5.93
4.76
3.77
2.96
2.31
1.79
1.36
0.98
0.65
0.34
0.08
-0.13
-0.26
-0.32
-0.35
-0.38
-0.46
-0.61
-0.8
-1.0
-1.14
-1.18
-1.12
-1.04
-1.02
-1.17
-1.52
-2.02
-2.52
-2.9
-3.02
-2.92
-2.72
-2.66
-2.94
-3.63
-4.63
-5.69
-6.49
-6.84
-6.73
-6.41
-6.25
-6.6
-7.6
-9.1
-10.7
-11.95
-12.58
-12.56
-12.14
-11.71
-11.67
-12.29
-13.77
-16.16
-19.19
-22.07
-23.45
-21.81
-16.09
-6.37
5.86
18.2
28.22
34.53
37.11
37.12
36.09
35.16
34.73
34.61
34.48
34.2
33.89
33.59
33.06
31.88
29.6
26.06
21.72
17.19
13.28
10.55
9.1
8.59
8.34
7.59
5.77
2.7
-1.43
-6.06
-10.52
-14.2
-16.79
-18.32
-19.07
-19.38
-19.48
-19.36
-18.88
-17.88
-16.4
-14.74
-13.32
-12.47
-12.33
-12.72
-13.28
-13.63
-13.5
-12.82
-11.73
-10.43
-9.19
-8.15
-7.48
-7.23
-7.34
-7.61
-7.71
-7.26
-5.96
-3.71
-0.67
2.75
6.1
8.98
11.21
12.74
13.65
14.07
14.14
13.97
13.67
13.35
13.17
13.2
13.42
13.71
13.95
14.07
14.16
14.41
14.78
15.29
15.89
16.37
16.4
15.67
13.98
11.3
7.82
3.88
-0.07
-3.63
-6.49
-8.6
-10.07
-11.14
-12.0
-12.63
-12.81
-12.17
-10.46
-7.75
-4.43
-1.1
1.64
3.39
4.05
3.75
2.73
1.17
-0.82
-3.2
-5.91
-8.84
-11.89
-14.97
-18.08
-21.18
-24.22
-27.07
-29.51
-31.32
-32.35
-32.59
-32.16
-31.21
-29.92
-28.32
-26.42
-24.12
-21.41
-18.21
-14.57
-10.58
-6.45
-2.49
1.02
3.9
6.26
8.49
11.12
14.61
19.09
24.32
29.8
34.99
39.56
43.42
46.66
49.32
51.35
52.5
52.49
51.1
48.32
44.35
39.56
34.4
29.27
24.52
20.28
16.57
13.28
10.24
7.3
4.33
1.23
-2.09
-5.74
-9.74
-14.03
-18.42
-22.67
-26.61
-30.26
-33.8
-37.52
-41.55
-45.81
-49.8
-52.84
-54.22
-53.52
-50.74
-46.33
-40.99
-35.44
-30.21
-25.53
-21.37
-17.54
-13.9
-10.41
-7.15
-4.26
-1.8
0.23
1.96
3.6
5.35
7.3
9.45
11.65
13.69
15.41
16.74
17.71
18.45
19.08
19.68
20.21
20.57
20.64
20.31
19.52
18.24
16.45
14.24
11.84
9.67
8.22
7.95
9.01
11.19
13.96
16.61
18.54
19.42
19.25
18.27
16.77
15.01
13.04
10.9
8.56
6.09
3.63
1.32
-0.77
-2.69
-4.57
-6.6
-8.85
-11.35
-13.99
-16.68
-19.34
-21.92
-24.39
-26.64
-28.59
-30.1
-31.1
-31.61
-31.71
-31.49
-30.97
-30.07
-28.52
-25.99
-22.15
-16.86
-10.29
-2.86
4.75
11.94
18.31
23.76
28.39
32.32
35.51
37.81
39.08
39.32
38.79
37.84
36.73
35.48
33.81
31.34
27.78
23.2
17.94
12.52
7.47
3.02
-0.79
-4.22
-7.58
-11.14
-15.0
-19.13
-23.38
-27.55
-31.54
-35.21
-38.43
-40.96
-42.47
-42.65
-41.26
-38.28
-33.97
-28.78
-23.24
-17.89
-13.13
-9.16
-6.08
-3.85
-2.38
-1.53
-1.15
-1.01
-0.93
-0.71
-0.24
0.48
1.38
2.33
3.15
3.73
4.04
4.15
4.12
3.99
3.64
2.83
1.26
-1.36
-5.08
-9.76
-15.03
-20.38
-25.3
-29.33
-32.16
-33.58
-33.63
-32.51
-30.67
-28.67
-27.08
-26.29
-26.47
-27.58
-29.35
-31.43
-33.41
-34.92
-35.69
-35.51
-34.32
-32.1
-28.91
-24.81
-19.93
-14.43
-8.52
-2.49
3.42
8.95
13.92
18.06
21.08
22.63
22.47
20.57
17.22
13.01
8.62
4.67
1.6
-0.3
-0.85
0.04
2.47
6.32
11.3
16.91
22.6
27.97
32.81
37.14
41.06
44.68
48.03
51.05
53.61
55.59
56.85
57.36
57.15
56.36
55.16
53.61
51.68
49.22
46.06
42.13
37.52
32.4
26.96
21.36
15.66
9.94
4.31
-1.09
-6.18
-10.97
-15.53
-19.95
-24.12
-27.75
-30.39
-31.67
-31.48
-30.05
-27.91
-25.65
-23.74
-22.39
-21.56
-21.05
-20.67
-20.27
-19.83
-19.31
-18.73
-18.06
-17.34
-16.59
-15.85
-15.07
-14.15
-12.94
-11.28
-9.13
-6.55
-3.69
-0.73
2.16
4.86
7.19
8.89
9.6
8.99
6.93
3.7
0.03
-3.04
-4.45
-3.5
-0.03
5.46
12.09
18.84
24.89
29.8
33.48
36.1
37.91
39.01
39.37
38.87
37.37
34.92
31.78
28.34
25.02
22.0
19.23
16.44
13.37
9.83
5.86
1.58
-2.87
-7.39
-11.92
-16.39
-20.63
-24.4
-27.6
-30.34
-33.01
-36.13
-40.09
-44.8
-49.62
-53.45
-55.11
-53.72
-49.06
-41.61
-32.42
-22.69
-13.49
-5.55
0.82
5.56
8.85
10.9
12.04
12.64
13.14
13.91
15.17
16.87
18.72
20.35
21.44
21.89
21.81
21.53
21.36
21.61
22.4
23.66
25.16
26.53
27.42
27.5
26.62
24.71
21.77
17.79
12.7
6.59
-0.24
-7.08
-12.96
-16.9
-18.23
-16.91
-13.44
-8.73
-3.76
0.7
4.22
6.69
8.18
8.85
8.84
8.28
7.24
5.84
4.26
2.71
1.46
0.66
0.31
0.21
0.02
-0.56
-1.66
-3.17
-4.83
-6.34
-7.47
-8.12
-8.26
-7.9
-7.13
-6.06
-4.93
-3.98
-3.33
-2.81
-1.93
-0.02
3.49
8.8
15.57
23.01
30.1
35.94
39.91
41.82
41.83
40.31
37.68
34.36
30.68
26.89
23.14
19.53
16.08
12.76
9.5
6.24
2.89
-0.6
-4.2
-7.81
-11.27
-14.46
-17.39
-20.19
-23.11
-26.37
-30.03
-34.0
-38.06
-42.02
-45.8
-49.37
-52.69
-55.5
-57.31
-57.47
-55.42
-50.93
-44.26
-36.06
-27.17
-18.33
-10.02
-2.43
4.46
10.64
16.02
20.46
23.84
26.23
27.84
28.99
29.95
30.86
31.65
32.16
32.22
31.73
30.69
29.11
27.06
24.61
21.86
18.94
16.02
13.22
10.59
8.02
5.26
2.08
-1.7
-6.04
-10.63
-14.98
-18.5
-20.69
-21.18
-19.95
-17.26
-13.62
-9.68
-6.0
-3.02
-0.96
0.16
0.46
0.06
-0.95
-2.44
-4.34
-6.48
-8.73
-10.87
-12.8
-14.41
-15.69
-16.62
-17.2
-17.39
-17.15
-16.5
-15.49
-14.29
-13.09
-12.09
-11.39
-10.93
-10.56
-10.0
-8.96
-7.11
-4.2
-0.08
5.2
11.41
18.17
25.0
31.44
37.15
41.87
45.42
47.67
48.52
47.9
45.88
42.67
38.57
33.9
28.89
23.64
18.14
12.34
6.25
-0.03
-6.3
-12.3
-17.8
-22.64
-26.79
-30.33
-33.5
-36.63
-40.08
-44.03
-48.4
-52.65
-55.91
-57.13
-55.41
-50.32
-42.05
-31.43
-19.71
-8.19
2.06
10.44
16.8
21.41
24.72
27.22
29.33
31.3
33.27
35.18
36.84
37.94
38.13
37.17
35.07
32.14
28.92
26.04
23.97
22.89
22.59
22.6
22.45
21.83
20.73
19.36
17.91
16.4
14.62
12.22
8.96
4.84
0.16
-4.54
-8.64
-11.65
-13.27
-13.48
-12.53
-10.88
-9.03
-7.42
-6.23
-5.39
-4.62
-3.69
-2.58
-1.51
-0.93
-1.14
-2.21
-3.86
-5.63
-7.11
-8.17
-8.96
-9.83
-11.1
-12.94
-15.3
-17.97
-20.69
-23.2
-25.3
-26.8
-27.57
-27.65
-27.22
-26.71
-26.56
-27.03
-27.98
-28.69
-28.15
-25.31
-19.64
-11.32
-1.25
9.29
19.11
27.41
33.92
38.66
41.77
43.28
43.15
41.44
38.37
34.36
29.91
25.41
21.06
16.82
12.58
8.23
3.79
-0.59
-4.6
-7.79
-9.79
-10.38
-9.69
-8.19
-6.71
-6.09
-7.06
-9.96
-14.78
-21.18
-28.64
-36.49
-43.91
-49.91
-53.41
-53.51
-49.86
-42.81
-33.48
-23.35
-13.91
-6.08
-0.15
4.16
7.44
10.2
12.66
14.81
16.51
17.65
18.3
18.62
18.84
19.09
19.42
19.83
20.25
20.66
21.01
21.21
21.17
20.73
19.77
18.22
16.13
13.6
10.78
7.77
4.56
1.06
-2.81
-7.05
-11.47
-15.65
-19.06
-21.2
-21.77
-20.8
-18.62
-15.77
-12.79
-10.06
-7.72
-5.71
-3.95
-2.47
-1.46
-1.19
-1.85
-3.4
-5.48
-7.55
-9.05
-9.66
-9.4
-8.62
-7.88
-7.66
-8.28
-9.72
-11.68
-13.64
-15.05
-15.49
-14.82
-13.21
-11.09
-9.04
-7.55
-6.88
-6.93
-7.25
-7.11
-5.72
-2.51
2.64
9.4
17.0
24.58
31.37
36.93
41.13
44.13
46.14
47.34
47.85
47.77
47.21
46.29
45.06
43.52
41.52
38.92
35.63
31.69
27.32
22.77
18.2
13.61
8.85
3.72
-1.89
-7.93
-14.14
-20.25
-25.99
-31.27
-36.1
-40.6
-44.95
-49.24
-53.47
-57.39
-60.56
-62.35
-62.18
-59.77
-55.21
-49.05
-42.06
-35.05
-28.54
-22.68
-17.36
-12.32
-7.39
-2.54
2.11
6.45
10.43
14.11
17.6
20.95
24.1
26.92
29.29
31.2
32.75
34.07
35.2
36.0
36.21
35.57
33.92
31.35
28.1
24.46
20.65
16.71
12.53
7.95
2.82
-2.9
-9.04
-15.17
-20.66
-24.76
-26.84
-26.61
-24.24
-20.33
-15.73
-11.25
-7.53
-4.92
-3.52
-3.29
-4.05
-5.53
-7.41
-9.4
-11.24
-12.82
-14.08
-15.02
-15.65
-16.0
-16.17
-16.3
-16.58
-17.1
-17.86
-18.71
-19.47
-19.93
-19.98
-19.6
-18.8
-17.68
-16.45
-15.32
-14.51
-14.11
-13.98
-13.75
-12.89
-10.91
-7.48
-2.58
3.44
9.96
16.22
21.5
25.3
27.44
28.0
27.26
25.57
23.23
20.5
17.55
14.55
11.7
9.21
7.34
6.3
6.24
7.13
8.82
10.99
13.29
15.4
17.05
18.06
18.22
17.31
15.12
11.54
6.62
0.63
-6.02
-12.89
-19.5
-25.42
-30.17
-33.28
-34.38
-33.25
-29.96
-24.86
-18.46
-11.34
-4.01
3.1
9.66
15.4
20.08
23.6
25.98
27.43
28.29
28.89
29.48
30.11
30.69
31.03
30.91
30.19
28.74
26.48
23.32
19.23
14.28
8.63
2.6
-3.45
-9.24
-14.57
-19.44
-23.89
-27.96
-31.58
-34.51
-36.38
-36.85
-35.69
-33.02
-29.27
-25.14
-21.37
-18.58
-17.15
-17.2
-18.71
-21.58
-25.7
-30.96
-37.15
-43.87
-50.57
-56.66
-61.69
-65.46
-68.1
-69.94
-71.35
-72.59
-73.64
-74.32
-74.25
-73.17
-70.88
-67.41
-62.94
-57.75
-52.12
-46.24
-40.18
-33.85
-27.07
-19.66
-11.54
-2.72
6.72
16.7
27.21
38.25
49.71
61.31
72.47
82.35
89.99
94.56
95.47
92.62
86.43
77.8
68.02
58.44
50.33
44.52
41.31
40.32
40.73
41.5
41.76
41.08
39.58
37.76
36.2
35.17
34.52
33.81
32.58
30.56
27.81
24.59
21.13
17.53
13.78
9.89
5.97
2.25
-1.01
-3.69
-5.82
-7.54
-8.91
-9.78
-9.71
-8.09
-4.43
1.38
8.87
17.03
24.5
30.07
33.04
33.44
31.98
29.62
27.27
25.41
24.16
23.27
22.47
21.52
20.28
18.66
16.57
13.96
10.78
7.12
3.15
-0.85
-4.59
-7.85
-10.52
-12.69
-14.56
-16.46
-18.64
-21.17
-23.94
-26.63
-28.84
-30.18
-30.4
-29.37
-27.12
-23.8
-19.67
-15.08
-10.37
-5.83
-1.56
2.48
6.4
10.19
13.63
16.25
17.45
16.8
14.27
10.35
6.02
2.28
-0.09
-0.86
-0.33
0.94
2.42
3.94
5.61
7.62
9.92
12.11
13.51
13.55
12.0
9.16
5.67
2.24
-0.65
-2.87
-4.54
-5.8
-6.65
-6.94
-6.48
-5.33
-3.83
-2.52
-1.96
-2.38
-3.66
-5.32
-6.76
-7.58
-7.64
-7.15
-6.45
-5.88
-5.65
-5.77
-6.14
-6.6
-6.99
-7.23
-7.36
-7.49
-7.75
-8.15
-8.52
-8.49
-7.65
-5.73
-2.77
0.68
3.79
5.57
5.23
2.37
-2.9
-9.94
-17.79
-25.31
-31.39
-35.14
-35.98
-33.8
-28.88
-21.87
-13.56
-4.68
4.18
12.61
20.25
26.64
31.26
33.61
33.49
31.21
27.52
23.43
19.81
17.05
15.01
13.12
10.77
7.55
3.46
-1.11
-5.65
-9.68
-12.91
-15.21
-16.52
-16.82
-16.07
-14.42
-12.23
-10.12
-8.78
-8.7
-9.92
-11.9
-13.76
-14.56
-13.69
-11.04
-6.89
-1.76
3.74
9.05
13.58
16.73
18.04
17.36
15.04
11.86
8.85
6.88
6.41
7.38
9.36
11.78
14.12
16.03
17.35
18.01
18.02
17.47
16.49
15.26
13.93
12.61
11.28
9.83
8.06
5.74
2.64
-1.31
-6.0
-11.05
-15.96
-20.22
-23.46
-25.54
-26.6
-26.85
-26.52
-25.66
-24.2
-21.99
-18.96
-15.17
-10.85
-6.23
-1.48
3.33
8.24
13.15
17.77
21.52
23.71
23.83
21.86
18.38
14.47
11.29
9.67
9.74
10.96
12.36
13.01
12.35
10.38
7.52
4.25
0.91
-2.46
-5.91
-9.42
-12.68
-15.17
-16.33
-15.73
-13.3
-9.28
-4.15
1.52
7.31
12.95
18.4
23.77
29.17
34.53
39.62
43.97
47.09
48.6
48.4
46.66
43.67
39.76
35.16
30.05
24.59
19.0
13.5
8.24
3.29
-1.38
-5.69
-9.43
-12.3
-14.04
-14.68
-14.6
-14.43
-14.76
-15.92
-17.84
-20.12
-22.26
-23.78
-24.4
-23.89
-22.07
-18.89
-14.51
-9.48
-4.69
-1.22
0.01
-1.6
-6.05
-12.87
-21.12
-29.57
-36.83
-41.57
-42.83
-40.39
-34.91
-27.9
-21.17
-16.31
-14.13
-14.55
-16.84
-20.1
-23.64
-27.09
-30.27
-32.99
-34.94
-35.84
-35.59
-34.42
-32.87
-31.62
-31.21
-31.89
-33.43
-35.2
-36.17
-35.25
-31.65
-25.23
-16.72
-7.56
0.54
6.17
8.63
8.09
5.32
1.32
-3.01
-7.07
-10.54
-13.2
-14.96
-15.78
-15.79
-15.29
-14.69
-14.39
-14.63
-15.38
-16.35
-17.06
-16.95
-15.59
-12.81
-8.89
-4.52
-0.65
1.8
2.27
0.78
-2.06
-5.39
-8.29
-10.15
-10.69
-9.88
-7.76
-4.31
0.51
6.68
13.89
21.6
29.12
35.83
41.5
46.25
50.53
54.83
59.45
64.34
69.11
73.28
76.44
78.36
79.02
78.44
76.59
73.44
69.0
63.4
56.98
50.14
43.29
36.68
30.37
24.26
18.17
11.86
5.08
-2.47
-11.06
-20.86
-31.81
-43.68
-55.93
-67.89
-78.71
-87.46
-93.23
-95.29
-93.22
-87.15
-77.77
-66.28
-54.13
-42.69
-32.95
-25.28
-19.48
-14.95
-10.97
-6.98
-2.72
1.72
6.13
10.31
14.2
17.87
21.39
24.74
27.74
30.19
31.95
33.04
33.69
34.14
34.6
35.12
35.61
35.94
36.02
35.76
35.07
33.77
31.56
28.2
23.64
18.24
12.79
8.29
5.58
5.0
6.26
8.58
10.99
12.72
13.4
13.09
11.99
10.33
8.16
5.44
2.08
-1.85
-6.15
-10.48
-14.5
-17.9
-20.42
-21.98
-22.6
-22.49
-22.06
-21.74
-21.93
-22.8
-24.23
-25.93
-27.56
-28.91
-29.97
-30.83
-31.6
-32.27
-32.73
-32.88
-32.61
-31.88
-30.55
-28.39
-25.03
-20.09
-13.39
-5.13
4.16
13.7
22.74
30.68
37.27
42.48
46.42
49.27
51.12
52.03
52.01
51.11
49.35
46.78
43.44
39.39
34.74
29.71
24.58
19.69
15.23
11.22
7.43
3.56
-0.68
-5.38
-10.41
-15.54
-20.51
-25.11
-29.29
-33.07
-36.55
-39.82
-42.88
-45.58
-47.59
-48.45
-47.68
-45.02
-40.54
-34.7
-28.18
-21.62
-15.47
-9.87
-4.78
-0.12
4.15
7.97
11.23
13.93
16.15
18.05
19.8
21.49
23.08
24.42
25.4
25.92
26.02
25.81
25.45
24.99
24.42
23.55
22.15
20.02
17.02
13.18
8.65
3.66
-1.58
-6.87
-12.03
-16.82
-20.89
-23.77
-24.99
-24.31
-21.83
-18.04
-13.69
-9.52
-6.07
-3.58
-2.02
-1.22
-0.96
-1.1
-1.54
-2.19
-2.99
-3.84
-4.74
-5.66
-6.67
-7.83
-9.17
-10.7
-12.4
-14.19
-15.92
-17.41
-18.45
-18.89
-18.62
-17.67
-16.21
-14.5
-12.96
-11.96
-11.79
-12.54
-14.02
-15.71
-16.9
-16.82
-14.85
-10.65
-4.27
3.84
12.93
22.07
30.44
37.49
43.05
47.21
50.14
51.88
52.21
50.8
47.51
42.55
36.56
30.4
24.82
20.22
16.48
13.15
9.6
5.28
-0.07
-6.46
-13.56
-20.92
-28.07
-34.64
-40.41
-45.32
-49.4
-52.68
-55.13
-56.74
-57.46
-57.19
-55.81
-53.22
-49.41
-44.5
-38.85
-32.89
-27.01
-21.4
-16.05
-10.77
-5.41
0.04
5.4
10.37
14.69
18.24
21.11
23.55
25.93
28.59
31.8
35.66
40.04
44.6
48.87
52.39
54.74
55.69
55.11
52.99
49.43
44.64
38.93
32.67
26.17
19.55
12.75
5.63
-1.84
-9.39
-16.48
-22.4
-26.56
-28.7
-29.01
-27.94
-26.09
-23.91
-21.69
-19.53
-17.47
-15.58
-14.0
-12.89
-12.31
-12.2
-12.3
-12.27
-11.82
-10.82
-9.48
-8.14
-7.24
-7.0
-7.37
-8.0
-8.46
-8.42
-7.85
-7.03
-6.33
-5.98
-5.95
-5.97
-5.72
-4.96
-3.63
-1.76
0.67
3.79
7.77
12.68
18.34
24.23
29.67
33.98
36.75
37.86
37.5
35.99
33.68
30.84
27.7
24.47
21.31
18.37
15.68
13.18
10.74
8.17
5.3
1.99
-1.86
-6.22
-10.89
-15.47
-19.42
-22.3
-23.94
-24.66
-25.1
-26.0
-27.79
-30.44
-33.36
-35.72
-36.75
-35.98
-33.4
-29.29
-24.14
-18.47
-12.78
-7.51
-3.0
0.59
3.33
5.5
7.44
9.39
11.43
13.45
15.22
16.54
17.32
17.53
17.2
16.35
15.05
13.47
11.91
10.74
10.24
10.46
11.16
11.81
11.79
10.51
7.65
3.14
-2.67
-9.17
-15.51
-20.83
-24.41
-25.86
-25.18
-22.81
-19.37
-15.55
-11.86
-8.56
-5.76
-3.54
-2.07
-1.6
-2.29
-4.06
-6.44
-8.74
-10.28
-10.7
-10.14
-9.2
-8.64
-9.09
-10.76
-13.37
-16.27
-18.73
-20.23
-20.57
-19.88
-18.56
-17.06
-15.79
-15.04
-14.9
-15.22
-15.6
-15.45
-14.19
-11.39
-6.95
-1.1
5.83
13.65
22.52
32.85
44.98
58.8
73.42
87.24
98.4
105.38
107.38
104.62
98.05
88.97
78.64
67.9
57.26
46.84
36.59
26.39
16.09
5.6
-5.07
-15.7
-25.85
-34.95
-42.5
-48.32
-52.67
-56.22
-59.8
-63.98
-68.84
-73.8
-77.8
-79.63
-78.4
-73.8
-66.17
-56.32
-45.22
-33.8
-22.73
-12.49
-3.38
4.42
10.87
16.04
20.14
23.41
26.1
28.34
30.19
31.62
32.61
33.14
33.22
32.94
32.45
31.96
31.71
31.85
32.29
32.66
32.43
31.01
28.07
23.6
17.99
11.95
6.31
1.93
-0.52
-0.59
1.75
6.1
11.7
17.52
22.61
26.26
28.2
28.55
27.6
25.65
22.87
19.31
14.98
10.04
4.75
-0.5
-5.38
-9.65
-13.17
-15.87
-17.61
-18.24
-17.69
-16.07
-13.75
-11.21
-8.9
-7.04
-5.5
-4.0
-2.23
-0.09
2.27
4.53
6.4
7.74
8.76
9.84
11.35
13.5
16.17
19.0
21.56
23.57
24.99
25.92
26.57
26.99
27.12
26.77
25.83
24.3
22.32
20.07
17.71
15.33
12.94
10.56
8.21
5.89
3.53
1.03
-1.78
-5.05
-8.85
-13.2
-18.05
-23.33
-28.94
-34.78
-40.68
-46.46
-51.91
-56.84
-61.08
-64.4
-66.54
-67.18
-65.98
-62.76
-57.55
-50.74
-42.9
-34.68
-26.55
-18.71
-11.13
-3.69
3.69
10.95
17.93
24.43
30.26
35.34
39.57
42.85
45.09
46.25
46.43
45.82
44.7
43.31
41.77
40.11
38.22
36.02
33.43
30.47
27.2
23.74
20.26
16.91
13.79
10.83
7.77
4.27
0.04
-4.96
-10.51
-16.09
-21.09
-25.02
-27.57
-28.71
-28.59
-27.51
-25.8
-23.77
-21.7
-19.81
-18.19
-16.87
-15.85
-15.16
-14.94
-15.3
-16.28
-17.78
-19.49
-21.0
-21.92
-22.05
-21.41
-20.21
-18.77
-17.35
-16.01
-14.61
-12.87
-10.57
-7.64
-4.24
-0.64
2.85
6.02
8.75
10.98
12.62
13.49
13.38
12.1
9.66
6.29
2.45
-1.29
-4.33
-6.27
-6.89
-6.21
-4.44
-1.94
0.87
3.57
5.82
7.34
7.98
7.68
6.46
4.41
1.74
-1.38
-4.75
-8.22
-11.66
-14.93
-17.84
-20.11
-21.47
-21.82
-21.3
-20.35
-19.55
-19.42
-20.17
-21.66
-23.49
-25.19
-26.41
-27.0
-26.98
-26.53
-25.87
-25.28
-24.96
-25.01
-25.27
-25.44
-25.03
-23.62
-20.92
-16.89
-11.67
-5.58
0.99
7.63
14.05
20.04
25.53
30.51
34.92
38.55
41.06
42.1
41.47
39.31
36.02
32.18
28.25
24.51
20.91
17.34
13.63
9.76
5.79
1.8
-2.18
-6.19
-10.26
-14.36
-18.37
-22.06
-25.28
-27.91
-29.96
-31.45
-32.32
-32.43
-31.54
-29.54
-26.49
-22.71
-18.66
-14.86
-11.64
-9.05
-6.87
-4.68
-2.05
1.31
5.39
9.88
14.25
17.94
20.6
22.12
22.69
22.57
22.05
21.28
20.36
19.35
18.32
17.34
16.4
15.46
14.42
13.3
12.22
11.41
11.01
11.04
11.29
11.45
11.26
10.66
9.8
8.93
8.35
8.22
8.55
9.24
10.05
10.74
11.01
10.61
9.43
7.53
5.17
2.68
0.38
-1.6
-3.34
-5.1
-7.21
-9.86
-13.07
-16.65
-20.28
-23.56
-26.23
-28.14
-29.33
-30.0
-30.38
-30.67
-30.97
-31.34
-31.82
-32.47
-33.36
-34.5
-35.79
-36.95
-37.66
-37.58
-36.46
-34.2
-30.8
-26.37
-21.09
-15.27
-9.25
-3.41
1.96
6.72
10.9
14.64
18.03
21.1
23.79
26.04
27.82
29.21
30.33
31.2
31.82
32.09
31.91
31.2
29.91
28.04
25.58
22.55
19.04
15.19
11.19
7.29
3.63
0.25
-2.96
-6.19
-9.63
-13.32
-17.1
-20.58
-23.26
-24.64
-24.5
-22.9
-20.23
-17.04
-13.83
-10.94
-8.52
-6.59
-5.21
-4.45
-4.33
-4.79
-5.6
-6.44
-7.06
-7.35
-7.41
-7.45
-7.61
-7.89
-8.06
-7.84
-7.01
-5.54
-3.64
-1.64
0.17
1.64
2.8
3.75
4.59
5.33
5.9
6.26
6.52
6.99
8.14
10.37
13.85
18.37
23.41
28.31
32.49
35.6
37.5
38.16
37.55
35.57
32.1
27.17
21.11
14.51
8.11
2.57
-1.79
-5.0
-7.41
-9.47
-11.49
-13.54
-15.48
-17.04
-17.99
-18.28
-18.02
-17.48
-16.95
-16.67
-16.73
-17.11
-17.74
-18.53
-19.48
-20.55
-21.7
-22.69
-23.13
-22.63
-20.87
-17.83
-13.78
-9.24
-4.72
-0.62
2.91
5.91
8.47
10.66
12.49
13.93
14.98
15.75
16.4
17.1
17.96
18.95
19.95
20.76
21.18
21.07
20.39
19.13
17.3
14.96
12.13
8.93
5.54
2.24
-0.69
-3.08
-4.99
-6.67
-8.49
-10.75
-13.49
-16.48
-19.23
-21.23
-22.09
-21.7
-20.22
-17.96
-15.24
-12.35
-9.49
-6.91
-4.91
-3.78
-3.74
-4.78
-6.63
-8.85
-10.89
-12.34
-12.98
-12.87
-12.27
-11.51
-10.88
-10.53
-10.44
-10.45
-10.31
-9.83
-8.94
-7.71
-6.32
-5.0
-3.95
-3.25
-2.85
-2.54
-1.98
-0.75
1.45
4.69
8.73
13.12
17.31
20.87
23.56
25.39
26.42
26.75
26.38
25.23
23.26
20.51
17.12
13.32
9.36
5.4
1.6
-1.98
-5.33
-8.49
-11.54
-14.54
-17.49
-20.26
-22.66
-24.42
-25.3
-25.18
-24.18
-22.66
-21.13
-20.12
-20.0
-20.84
-22.4
-24.14
-25.42
-25.6
-24.25
-21.17
-16.44
-10.43
-3.6
3.45
10.17
16.12
21.07
24.99
28.05
30.6
32.97
35.46
38.2
41.14
44.04
46.59
48.5
49.57
49.76
49.09
47.64
45.43
42.45
38.59
33.82
28.13
21.64
14.64
7.52
0.74
-5.34
-10.57
-15.08
-19.27
-23.6
-28.41
-33.69
-38.98
-43.58
-46.73
-47.98
-47.19
-44.61
-40.65
-35.72
-30.18
-24.37
-18.7
-13.64
-9.66
-7.05
-5.77
-5.43
-5.4
-5.14
-4.34
-3.09
-1.7
-0.57
0.13
0.45
0.66
1.09
1.93
3.2
4.7
6.2
7.54
8.71
9.82
11.05
12.54
14.25
16.02
17.61
18.84
19.69
20.32
21.03
22.05
23.41
24.9
26.07
26.45
25.73
23.91
21.27
18.27
15.33
12.65
10.17
7.64
4.74
1.25
-2.86
-7.47
-12.31
-17.06
-21.41
-25.03
-27.73
-29.4
-30.1
-30.02
-29.4
-28.42
-27.2
-25.8
-24.26
-22.72
-21.43
-20.69
-20.79
-21.86
-23.82
-26.28
-28.62
-30.09
-29.98
-27.79
-23.37
-16.98
-9.26
-1.04
6.83
13.7
19.32
23.79
27.54
31.07
34.73
38.6
42.48
45.95
48.56
49.92
49.82
48.17
45.05
40.61
35.21
29.29
23.36
17.86
13.11
9.11
5.67
2.47
-0.84
-4.54
-8.79
-13.64
-19.07
-25.04
-31.37
-37.73
-43.56
-48.07
-50.42
-49.97
-46.48
-40.33
-32.36
-23.73
-15.54
-8.56
-3.12
0.89
3.84
6.14
8.1
9.84
11.28
12.32
12.86
12.92
12.68
12.42
12.37
12.71
13.42
14.41
15.52
16.66
17.83
19.08
20.55
22.3
24.3
26.43
28.44
30.02
30.88
30.73
29.41
26.8
22.89
17.83
12.03
6.12
0.89
-2.95
-5.03
-5.42
-4.61
-3.29
-2.07
-1.29
-0.98
-1.02
-1.29
-1.73
-2.33
-3.1
-3.92
-4.59
-4.96
-4.96
-4.69
-4.35
-4.19
-4.41
-5.13
-6.35
-8.02
-9.96
-12.0
-13.96
-15.77
-17.47
-19.23
-21.2
-23.42
-25.76
-27.96
-29.72
-30.81
-31.07
-30.39
-28.58
-25.43
-20.78
-14.66
-7.41
0.42
8.13
15.19
21.27
26.33
30.45
33.7
36.07
37.38
37.47
36.29
34.04
31.14
28.11
25.36
23.04
20.95
18.66
15.7
11.79
6.94
1.4
-4.38
-9.94
-14.84
-18.8
-21.71
-23.64
-24.85
-25.68
-26.48
-27.54
-28.98
-30.69
-32.39
-33.58
-33.75
-32.43
-29.48
-25.08
-19.79
-14.43
-9.71
-6.06
-3.51
-1.71
-0.14
1.56
3.55
5.63
7.57
9.18
10.48
11.74
13.26
15.24
17.59
19.99
22.03
23.42
24.13
24.34
24.34
24.4
24.64
25.02
25.41
25.58
25.23
24.0
21.47
17.41
11.87
5.35
-1.24
-6.8
-10.42
-11.71
-10.95
-8.99
-6.87
-5.44
-4.99
-5.25
-5.6
-5.44
-4.55
-3.21
-1.95
-1.38
-1.76
-3.0
-4.66
-6.22
-7.26
-7.63
-7.38
-6.71
-5.83
-4.91
-4.06
-3.31
-2.71
-2.3
-2.16
-2.41
-3.17
-4.46
-6.19
-8.16
-10.12
-11.92
-13.43
-14.57
-15.17
-14.9
-13.32
-10.08
-5.06
1.47
8.91
16.48
23.5
29.57
34.61
38.8
42.34
45.28
47.44
48.45
47.99
45.93
42.47
38.07
33.28
28.55
24.14
20.08
16.25
12.49
8.72
4.84
0.8
-3.46
-8.0
-12.81
-17.73
-22.53
-26.9
-30.68
-33.86
-36.62
-39.19
-41.68
-43.9
-45.37
-45.54
-44.01
-40.77
-36.23
-31.06
-25.86
-21.0
-16.56
-12.41
-8.46
-4.73
-1.39
1.38
3.53
5.2
6.61
8.0
9.46
10.92
12.3
13.54
14.67
15.85
17.23
18.86
20.65
22.43
23.97
25.12
25.76
25.85
25.35
24.18
22.2
19.26
15.17
9.9
3.58
-3.29
-9.96
-15.51
-19.13
-20.34
-19.17
-16.08
-11.82
-7.16
-2.77
0.92
3.72
5.53
6.39
6.43
5.97
5.36
5.04
5.28
6.09
7.13
7.85
7.66
6.19
3.47
-0.14
-4.03
-7.63
-10.54
-12.63
-13.92
-14.54
-14.56
-14.08
-13.17
-12.03
-10.91
-10.05
-9.64
-9.71
-10.2
-11.0
-11.9
-12.68
-12.98
-12.38
-10.39
-6.67
-1.13
5.92
13.83
21.74
28.83
34.47
38.31
40.27
40.45
38.98
36.04
31.85
26.78
21.29
15.97
11.28
7.45
4.34
1.64
-0.93
-3.47
-5.86
-7.88
-9.41
-10.55
-11.56
-12.67
-13.99
-15.39
-16.65
-17.6
-18.29
-18.95
-19.91
-21.43
-23.57
-26.07
-28.44
-30.02
-30.16
-28.41
-24.68
-19.29
-12.9
-6.29
-0.09
5.35
9.91
13.7
16.81
19.32
21.25
22.64
23.57
24.1
24.3
24.18
23.78
23.23
22.76
22.62
22.96
23.68
24.39
24.61
23.89
22.05
19.15
15.4
11.05
6.25
1.04
-4.6
-10.61
-16.89
-23.18
-29.12
-34.18
-37.78
-39.41
-38.88
-36.46
-32.82
-28.88
-25.43
-22.82
-20.91
-19.21
-17.19
-14.54
-11.27
-7.68
-4.19
-1.19
1.04
2.37
2.83
2.59
1.94
1.21
0.67
0.53
0.85
1.63
2.83
4.37
6.13
7.94
9.57
10.87
11.76
12.3
12.6
12.75
12.69
12.2
11.04
9.1
6.59
4.12
2.44
2.21
3.67
6.5
10.03
13.35
15.77
16.93
16.9
15.99
14.58
13.0
11.44
9.96
8.6
7.34
6.15
4.96
3.64
2.09
0.23
-1.98
-4.45
-7.0
-9.41
-11.39
-12.71
-13.22
-12.92
-12.01
-10.81
-9.71
-9.05
-9.07
-9.85
-11.35
-13.45
-15.99
-18.76
-21.5
-23.81
-25.22
-25.23
-23.41
-19.6
-13.92
-6.91
0.66
7.94
14.26
19.29
23.11
26.09
28.66
31.06
33.28
35.1
36.27
36.67
36.37
35.61
34.57
33.33
31.77
29.7
26.91
23.36
19.17
14.51
9.57
4.42
-0.92
-6.41
-11.93
-17.28
-22.21
-26.57
-30.44
-34.08
-37.8
-41.74
-45.69
-49.07
-51.1
-51.07
-48.58
-43.77
-37.18
-29.64
-21.92
-14.6
-7.92
-1.91
3.38
7.88
11.34
13.53
14.33
13.85
12.39
10.33
8.0
5.66
3.5
1.72
0.53
0.11
0.49
1.49
2.77
3.95
4.73
5.02
4.93
4.67
4.48
4.51
4.75
5.13
5.48
5.74
5.96
6.33
7.14
8.64
10.89
13.7
16.63
19.09
20.62
20.96
20.18
18.53
16.34
13.88
11.34
8.81
6.34
3.99
1.74
-0.44
-2.65
-4.98
-7.45
-10.07
-12.75
-15.41
-17.94
-20.15
-21.75
-22.44
-22.01
-20.49
-18.26
-15.94
-14.23
-13.64
-14.37
-16.26
-18.96
-22.04
-25.1
-27.7
-29.33
-29.42
-27.47
-23.28
-17.09
-9.58
-1.69
5.75
12.19
17.52
21.92
25.67
28.98
31.89
34.31
36.07
37.05
37.21
36.67
35.66
34.5
33.55
33.07
33.2
33.85
34.66
35.0
34.09
31.19
25.93
18.48
9.6
0.43
-7.92
-14.79
-20.27
-25.05
-30.11
-36.15
-43.24
-50.78
-57.67
-62.76
-65.28
-64.99
-62.24
-57.74
-52.28
-46.55
-41.01
-35.84
-31.01
-26.36
-21.75
-17.1
-12.49
-8.12
-4.25
-1.05
1.43
3.28
4.69
5.86
6.94
8.04
9.27
10.69
12.38
14.34
16.47
18.57
20.35
21.54
21.95
21.51
20.25
18.23
15.5
12.13
8.33
4.52
1.33
-0.5
-0.41
1.83
5.91
11.11
16.42
20.9
23.88
25.12
24.71
22.97
20.3
17.01
13.35
9.59
6.02
2.96
0.63
-0.98
-2.12
-3.23
-4.75
-6.93
-9.71
-12.77
-15.68
-18.12
-19.97
-21.31
-22.29
-23.0
-23.47
-23.72
-23.92
-24.45
-25.82
-28.39
-32.12
-36.36
-39.92
-41.4
-39.67
-34.28
-25.64
-14.9
-3.54
7.06
16.01
23.01
28.21
31.98
34.69
36.6
37.92
38.84
39.6
40.44
41.49
42.61
43.47
43.63
42.75
40.79
37.98
34.7
31.23
27.58
23.57
19.09
14.23
9.44
5.3
2.11
-0.34
-2.79
-6.25
-11.44
-18.41
-26.49
-34.48
-41.13
-45.56
-47.47
-47.13
-45.11
-41.98
-38.23
-34.06
-29.55
-24.7
-19.58
-14.39
-9.45
-5.13
-1.75
0.54
1.84
2.43
2.71
3.08
3.78
4.9
6.39
8.12
9.98
11.92
13.9
15.87
17.73
19.31
20.44
20.98
20.97
20.6
20.16
19.89
19.82
19.72
19.27
18.28
16.9
15.64
15.17
15.98
18.13
21.11
24.15
26.43
27.5
27.27
25.99
23.95
21.3
18.0
13.94
9.13
3.81
-1.53
-6.38
-10.35
-13.43
-15.89
-18.12
-20.46
-23.0
-25.58
-27.98
-29.97
-31.46
-32.48
-33.14
-33.5
-33.61
-33.56
-33.51
-33.73
-34.45
-35.75
-37.37
-38.82
-39.38
-38.46
-35.74
-31.28
-25.52
-19.02
-12.38
-6.06
-0.43
4.23
7.7
9.93
11.06
11.49
11.82
12.68
14.56
17.62
21.67
26.21
30.68
34.6
37.77
40.29
42.42
44.46
46.56
48.71
50.78
52.65
54.25
55.53
56.35
56.44
55.46
53.11
49.31
44.21
38.12
31.45
24.53
17.66
11.03
4.74
-1.23
-7.01
-12.84
-18.92
-25.24
-31.46
-36.98
-41.15
-43.45
-43.77
-42.28
-39.42
-35.61
-31.23
-26.56
-21.83
-17.31
-13.35
-10.36
-8.62
-8.22
-8.93
-10.23
-11.45
-12.0
-11.57
-10.18
-8.15
-5.93
-3.85
-2.07
-0.51
0.97
2.49
4.09
5.71
7.26
8.68
9.89
10.82
11.32
11.2
10.35
8.87
7.3
6.52
7.49
10.88
16.63
23.84
30.99
36.53
39.36
39.27
36.84
33.11
29.12
25.54
22.5
19.76
16.91
13.63
9.77
5.42
0.83
-3.73
-8.01
-11.92
-15.44
-18.61
-21.46
-24.0
-26.19
-27.96
-29.27
-30.11
-30.53
-30.64
-30.68
-30.9
-31.51
-32.64
-34.27
-36.24
-38.31
-40.07
-41.06
-40.71
-38.57
-34.37
-28.23
-20.61
-12.21
-3.75
4.2
11.3
17.32
22.15
25.76
28.24
29.84
30.97
31.99
33.17
34.46
35.58
36.13
35.76
34.31
31.89
28.84
25.64
22.77
20.53
18.9
17.59
16.02
13.65
10.06
5.16
-0.81
-7.38
-14.03
-20.31
-25.88
-30.53
-34.09
-36.46
-37.57
-37.45
-36.3
-34.38
-31.99
-29.3
-26.38
-23.14
-19.51
-15.54
-11.47
-7.68
-4.54
-2.33
-1.09
-0.69
-0.79
-1.05
-1.11
-0.76
0.08
1.41
3.07
4.89
6.66
8.14
9.21
9.83
10.09
10.17
10.24
10.4
10.61
10.65
10.23
9.08
7.1
4.47
1.69
-0.5
-1.31
-0.15
3.1
8.03
13.74
19.09
23.02
24.81
24.25
21.55
17.26
12.15
6.99
2.44
-1.06
-3.37
-4.67
-5.39
-6.02
-7.05
-8.8
-11.35
-14.54
-18.04
-21.38
-24.07
-25.68
-25.99
-25.03
-23.16
-20.97
-19.13
-18.28
-18.78
-20.67
-23.69
-27.22
-30.5
-32.68
-33.0
-30.94
-26.42
-19.75
-11.62
-2.91
5.55
13.16
19.67
25.12
29.69
33.54
36.74
39.25
41.01
41.96
42.14
41.64
40.55
39.0
37.09
34.96
32.72
30.43
28.07
25.45
22.34
18.45
13.61
7.85
1.37
-5.45
-12.11
-18.17
-23.32
-27.48
-30.79
-33.55
-36.0
-38.18
-39.88
-40.71
-40.33
-38.54
-35.43
-31.33
-26.69
-21.95
-17.39
-13.22
-9.52
-6.4
-3.91
-2.11
-0.98
-0.42
-0.17
0.1
0.69
1.84
3.57
5.77
8.15
10.48
12.56
14.37
15.94
17.35
18.62
19.73
20.62
21.2
21.41
21.14
20.26
18.6
16.07
12.69
8.74
4.65
0.98
-1.73
-3.1
-2.96
-1.45
1.13
4.28
7.49
10.3
12.34
13.36
13.23
11.99
9.84
7.12
4.22
1.47
-0.98
-3.21
-5.41
-7.77
-10.36
-13.03
-15.48
-17.36
-18.37
-18.34
-17.31
-15.5
-13.37
-11.5
-10.48
-10.77
-12.52
-15.55
-19.44
-23.62
-27.5
-30.5
-32.1
-31.87
-29.52
-25.07
-18.88
-11.61
-4.04
3.07
9.28
14.42
18.65
22.19
25.24
27.91
30.16
31.94
33.19
33.9
34.09
33.78
33.01
31.74
29.94
27.57
24.59
21.03
16.98
12.54
7.92
3.29
-1.1
-5.05
-8.36
-11.0
-13.11
-15.04
-17.31
-20.48
-24.93
-30.59
-36.83
-42.53
-46.38
-47.28
-44.79
-39.25
-31.66
-23.35
-15.5
-8.82
-3.51
0.66
4.07
7.06
9.83
12.41
14.67
16.41
17.46
17.71
17.22
16.2
14.97
13.85
13.13
12.97
13.4
14.36
15.68
17.11
18.41
19.34
19.85
20.02
20.07
20.22
20.47
20.6
20.13
18.52
15.44
10.93
5.48
-0.12
-5.07
-8.79
-11.12
-12.28
-12.77
-13.09
-13.55
-14.25
-15.09
-15.9
-16.58
-17.12
-17.62
-18.17
-18.85
-19.67
-20.59
-21.57
-22.5
-23.22
-23.53
-23.15
-21.91
-19.71
-16.69
-13.15
-9.57
-6.51
-4.45
-3.76
-4.45
-6.23
-8.58
-10.95
-12.98
-14.58
-15.84
-16.86
-17.5
-17.36
-15.91
-12.77
-7.9
-1.66
5.33
12.41
19.06
25.0
30.11
34.28
37.42
39.39
40.14
39.76
38.47
36.58
34.33
31.86
29.15
26.11
22.71
18.95
14.94
10.79
6.62
2.48
-1.54
-5.32
-8.74
-11.69
-14.22
-16.47
-18.69
-21.13
-23.93
-27.1
-30.52
-33.9
-36.88
-39.04
-39.92
-39.15
-36.53
-32.15
-26.42
-19.95
-13.44
-7.45
-2.33
1.84
5.22
7.99
10.34
12.36
14.07
15.44
16.51
17.37
18.2
19.15
20.28
21.51
22.65
23.47
23.8
23.61
23.02
22.11
20.99
19.72
18.37
17.06
15.92
15.04
14.29
13.35
11.72
9.0
5.03
0.02
-5.41
-10.42
-14.17
-16.11
-16.09
-14.49
-12.04
-9.56
-7.63
-6.43
-5.73
-5.15
-4.44
-3.63
-3.06
-3.1
-3.95
-5.52
-7.41
-9.17
-10.46
-11.1
-11.1
-10.57
-9.67
-8.51
-7.23
-5.95
-4.81
-3.97
-3.6
-3.84
-4.72
-6.15
-7.88
-9.61
-11.09
-12.28
-13.32
-14.4
-15.67
-16.96
-17.88
-17.89
-16.52
-13.58
-9.27
-4.09
1.23
6.04
9.86
12.53
14.24
15.37
16.29
17.23
18.21
19.09
19.71
19.96
19.79
19.1
17.72
15.37
11.78
6.89
0.94
-5.59
-12.17
-18.36
-23.99
-29.11
-33.89
-38.52
-43.08
-47.59
-51.99
-56.24
-60.3
-64.11
-67.45
-69.89
-70.71
-69.11
-64.37
-56.13
-44.61
-30.59
-15.32
-0.22
13.43
24.73
33.26
39.08
42.6
44.35
44.89
44.63
43.82
42.62
41.22
39.83
38.64
37.76
37.16
36.65
36.01
35.09
33.92
32.68
31.59
30.74
30.04
29.24
28.1
26.52
24.58
22.55
20.64
18.89
17.11
15.02
12.43
9.42
6.39
3.91
2.52
2.47
3.63
5.57
7.69
9.47
10.58
10.91
10.5
9.43
7.81
5.77
3.5
1.21
-0.89
-2.68
-4.17
-5.53
-6.94
-8.47
-10.11
-11.68
-13.05
-14.16
-15.04
-15.75
-16.32
-16.71
-16.86
-16.79
-16.64
-16.62
-16.93
-17.67
-18.8
-20.21
-21.8
-23.42
-24.84
-25.7
-25.5
-23.76
-20.22
-15.0
-8.59
-1.66
5.18
11.55
17.27
22.27
26.41
29.51
31.41
32.18
32.1
31.65
31.17
30.84
30.57
30.15
29.44
28.45
27.25
25.9
24.31
22.28
19.58
16.16
12.16
7.91
3.74
-0.17
-3.8
-7.32
-10.91
-14.75
-18.89
-23.31
-27.9
-32.41
-36.48
-39.59
-41.23
-41.03
-38.96
-35.37
-30.92
-26.32
-22.04
-18.23
-14.67
-11.09
-7.29
-3.36
0.38
3.53
5.7
6.75
6.69
5.73
4.14
2.27
0.37
-1.36
-2.81
-3.96
-4.84
-5.42
-5.69
-5.63
-5.26
-4.67
-3.99
-3.34
-2.85
-2.56
-2.6
-3.1
-4.21
-5.99
-8.26
-10.5
-11.98
-11.87
-9.59
-4.95
1.71
9.6
17.68
24.9
30.43
33.83
35.1
34.57
32.82
30.39
27.71
24.98
22.27
19.59
16.99
14.54
12.29
10.21
8.22
6.25
4.31
2.46
0.82
-0.67
-2.15
-3.92
-6.24
-9.19
-12.61
-16.08
-19.04
-21.07
-21.99
-21.96
-21.43
-20.92
-20.76
-20.95
-21.11
-20.66
-19.06
-16.13
-12.04
-7.28
-2.41
2.18
6.42
10.46
14.49
18.6
22.66
26.4
29.54
31.94
33.6
34.61
35.08
35.01
34.37
33.07
31.14
28.71
26.02
23.33
20.79
18.44
16.18
13.87
11.38
8.6
5.52
2.15
-1.43
-5.16
-8.96
-12.79
-16.69
-20.75
-25.1
-29.71
-34.33
-38.44
-41.31
-42.29
-40.95
-37.34
-31.99
-25.75
-19.51
-13.99
-9.58
-6.26
-3.76
-1.72
0.19
2.11
4.05
5.91
7.58
8.94
9.96
10.61
10.92
11.0
10.97
10.98
11.14
11.49
12.01
12.66
13.34
13.99
14.51
14.81
14.82
14.53
14.01
13.43
12.94
12.59
12.29
11.78
10.77
9.02
6.48
3.35
0.08
-2.7
-4.35
-4.42
-2.78
0.24
3.99
7.65
10.58
12.46
13.33
13.39
12.91
11.98
10.59
8.7
6.39
3.9
1.53
-0.45
-1.96
-3.14
-4.21
-5.38
-6.74
-8.2
-9.56
-10.67
-11.47
-12.05
-12.57
-13.22
-14.06
-15.06
-16.1
-17.14
-18.17
-19.3
-20.59
-22.03
-23.55
-25.07
-26.57
-28.03
-29.36
-30.23
-30.13
-28.49
-24.92
-19.44
-12.48
-4.75
3.0
10.22
16.63
22.15
26.82
30.62
33.5
35.36
36.15
35.98
35.06
33.74
32.31
30.95
29.62
28.1
26.14
23.58
20.47
17.04
13.56
10.15
6.76
3.29
-0.36
-4.07
-7.64
-10.86
-13.65
-16.13
-18.58
-21.29
-24.49
-28.21
-32.28
-36.37
-39.95
-42.43
-43.3
-42.22
-39.15
-34.37
-28.37
-21.77
-15.2
-9.19
-4.17
-0.43
1.99
3.22
3.58
3.41
3.01
2.56
2.14
1.86
1.83
2.24
3.18
4.64
6.46
8.39
10.19
11.73
13.02
14.1
15.0
15.72
16.16
16.23
15.9
15.24
14.33
13.26
12.02
10.46
8.36
5.44
1.55
-3.2
-8.39
-13.35
-17.34
-19.75
-20.36
-19.32
-17.13
-14.38
-11.59
-9.08
-6.99
-5.35
-4.13
-3.32
-2.93
-3.01
-3.62
-4.81
-6.61
-8.95
-11.64
-14.34
-16.65
-18.16
-18.55
-17.63
-15.39
-12.0
-7.86
-3.54
0.27
2.91
3.95
3.31
1.28
-1.55
-4.48
-6.92
-8.52
-9.3
-9.52
-9.6
-9.79
-10.1
-10.2
-9.52
-7.59
-4.13
0.7
6.42
12.39
18.03
22.97
27.06
30.28
32.62
33.96
34.19
33.24
31.25
28.56
25.59
22.75
20.22
17.95
15.73
13.26
10.32
6.81
2.78
-1.54
-5.8
-9.64
-12.8
-15.18
-16.94
-18.44
-20.08
-22.21
-24.96
-28.24
-31.87
-35.56
-38.97
-41.58
-42.71
-41.63
-37.8
-31.25
-22.62
-13.16
-4.3
2.82
7.65
10.37
11.61
12.2
12.78
13.65
14.81
16.12
17.39
18.51
19.46
20.25
20.95
21.61
22.27
22.95
23.66
24.38
25.08
25.7
26.16
26.39
26.36
26.05
25.42
24.4
22.86
20.56
17.27
12.8
7.19
0.75
-5.85
-11.74
-16.06
-18.28
-18.37
-16.8
-14.31
-11.61
-9.23
-7.32
-5.84
-4.67
-3.75
-3.13
-2.89
-3.1
-3.76
-4.8
-6.11
-7.53
-8.83
-9.74
-10.07
-9.75
-8.86
-7.62
-6.32
-5.26
-4.65
-4.61
-5.13
-6.09
-7.25
-8.38
-9.28
-9.86
-10.19
-10.46
-10.89
-11.63
-12.69
-13.85
-14.71
-14.74
-13.4
-10.38
-5.73
0.14
6.57
12.89
18.65
23.68
27.98
31.64
34.6
36.68
37.7
37.61
36.56
34.78
32.49
29.76
26.6
23.01
19.14
15.23
11.53
8.13
4.96
1.81
-1.43
-4.79
-8.14
-11.36
-14.44
-17.54
-20.86
-24.59
-28.72
-33.09
-37.45
-41.47
-44.75
-46.8
-47.11
-45.26
-41.12
-35.01
-27.62
-19.91
-12.81
-6.95
-2.56
0.52
2.72
4.51
6.22
8.01
9.82
11.44
12.59
13.11
12.98
12.44
11.91
11.75
12.22
13.2
14.34
15.14
15.3
14.76
13.74
12.59
11.54
10.62
9.65
8.4
6.7
4.53
1.91
-1.07
-4.27
-7.45
-10.15
-11.81
-11.93
-10.36
-7.41
-3.78
-0.29
2.45
4.23
5.21
5.74
6.08
6.34
6.5
6.52
6.41
6.28
6.17
6.02
5.68
4.9
3.56
1.69
-0.46
-2.51
-4.11
-5.05
-5.32
-5.15
-4.88
-4.82
-5.18
-5.95
-7.0
-8.19
-9.44
-10.78
-12.35
-14.31
-16.7
-19.41
-22.14
-24.38
-25.55
-25.11
-22.77
-18.56
-12.89
-6.42
0.15
6.23
11.53
15.94
19.49
22.25
24.25
25.59
26.41
26.9
27.25
27.58
27.87
27.98
27.68
26.76
25.12
22.83
20.09
17.23
14.56
12.2
10.09
7.89
5.25
1.92
-2.03
-6.24
-10.23
-13.66
-16.49
-19.0
-21.67
-24.88
-28.75
-33.04
-37.3
-40.92
-43.31
-44.03
-42.78
-39.53
-34.53
-28.31
-21.53
-14.86
-8.81
-3.63
0.65
4.09
6.79
8.85
10.39
11.58
12.62
13.66
14.76
15.88
16.89
17.72
18.38
18.89
19.34
19.69
19.9
19.87
19.5
18.76
17.63
16.19
14.49
12.68
10.91
9.31
7.88
6.44
4.72
2.43
-0.48
-3.73
-6.71
-8.77
-9.37
-8.41
-6.27
-3.58
-1.02
0.98
2.33
3.17
3.75
4.17
4.41
4.34
3.86
2.95
1.71
0.24
-1.35
-3.04
-4.77
-6.4
-7.77
-8.66
-8.94
-8.62
-7.85
-6.83
-5.76
-4.77
-3.93
-3.27
-2.85
-2.8
-3.26
-4.32
-5.99
-8.2
-10.76
-13.43
-15.86
-17.59
-18.09
-16.86
-13.63
-8.54
-2.13
4.83
11.51
17.37
22.13
25.8
28.53
30.47
31.79
32.65
33.23
33.6
33.72
33.36
32.25
30.22
27.28
23.75
20.1
16.77
14.05
11.95
10.2
8.39
6.12
3.14
-0.54
-4.68
-8.85
-12.72
-16.07
-18.99
-21.81
-24.94
-28.7
-33.1
-37.88
-42.4
-45.9
-47.64
-47.17
-44.37
-39.53
-33.23
-26.21
-19.15
-12.62
-7.0
-2.45
1.04
3.57
5.39
6.75
7.91
9.03
10.15
11.24
12.17
12.9
13.47
14.01
14.72
15.77
17.22
19.02
21.05
23.11
24.92
26.16
26.52
25.76
23.88
21.07
17.75
14.31
11.03
7.93
4.83
1.54
-2.01
-5.63
-8.91
-11.37
-12.64
-12.57
-11.33
-9.27
-6.87
-4.52
-2.52
-1.0
-0.01
0.48
0.5
0.04
-0.87
-2.18
-3.74
-5.36
-6.86
-8.04
-8.76
-8.9
-8.43
-7.42
-6.07
-4.64
-3.47
-2.85
-2.94
-3.82
-5.4
-7.55
-10.05
-12.76
-15.48
-18.07
-20.45
-22.55
-24.29
-25.48
-25.84
-25.0
-22.62
-18.56
-13.02
-6.47
0.46
7.15
13.17
18.33
22.64
26.22
29.19
31.62
33.46
34.57
34.76
33.91
31.98
29.16
25.71
21.89
17.92
13.91
9.95
6.22
2.93
0.27
-1.77
-3.46
-5.22
-7.41
-10.07
-12.93
-15.5
-17.39
-18.61
-19.55
-20.82
-22.87
-25.76
-29.03
-31.91
-33.61
-33.6
-31.7
-28.11
-23.27
-17.67
-11.76
-5.92
-0.45
4.33
8.12
10.67
11.87
11.87
11.08
10.09
9.45
9.54
10.38
11.79
13.42
15.03
16.44
17.64
18.58
19.22
19.49
19.37
18.9
18.23
17.48
16.68
15.77
14.58
12.95
10.79
8.12
5.08
1.79
-1.59
-4.93
-8.06
-10.75
-12.75
-13.85
-13.98
-13.26
-12.0
-10.57
-9.31
-8.43
-8.02
-8.1
-8.6
-9.37
-10.22
-10.82
-10.85
-10.1
-8.6
-6.6
-4.57
-2.91
-1.9
-1.54
-1.63
-1.93
-2.24
-2.52
-2.84
-3.25
-3.77
-4.32
-4.83
-5.26
-5.71
-6.34
-7.3
-8.72
-10.6
-12.85
-15.28
-17.54
-19.19
-19.68
-18.56
-15.55
-10.77
-4.71
1.92
8.36
14.01
18.57
22.0
24.42
26.0
26.82
26.95
26.39
25.25
23.68
21.9
20.18
18.69
17.5
16.47
15.38
13.97
12.04
9.53
6.51
3.17
-0.32
-3.78
-7.13
-10.31
-13.35
-16.3
-19.23
-22.31
-25.7
-29.52
-33.69
-37.8
-41.2
-43.13
-43.03
-40.72
-36.47
-30.91
-24.77
-18.68
-13.02
-7.96
-3.54
0.17
3.1
5.16
6.41
7.03
7.28
7.4
7.5
7.59
7.59
7.53
7.58
7.99
8.97
10.51
12.38
14.21
15.71
16.82
17.62
18.29
18.89
19.3
19.25
18.46
16.75
14.14
10.8
7.04
3.24
-0.18
-2.77
-4.13
-4.04
-2.49
0.25
3.69
7.25
10.39
12.68
13.86
13.9
12.93
11.25
9.23
7.22
5.43
3.87
2.4
0.81
-1.01
-3.09
-5.27
-7.39
-9.29
-10.85
-12.02
-12.76
-13.0
-12.71
-11.99
-11.02
-10.14
-9.62
-9.6
-10.07
-10.85
-11.8
-12.87
-14.13
-15.65
-17.33
-18.77
-19.33
-18.37
-15.47
-10.69
-4.55
2.16
8.71
14.61
19.76
24.29
28.39
32.14
35.41
37.98
39.66
40.44
40.49
40.06
39.38
38.5
37.29
35.52
32.98
29.63
25.62
21.23
16.71
12.25
7.87
3.54
-0.75
-4.99
-9.11
-13.04
-16.79
-20.42
-24.07
-27.9
-32.03
-36.46
-40.99
-45.14
-48.2
-49.39
-48.16
-44.38
-38.44
-31.15
-23.43
-16.06
-9.58
-4.24
-0.16
2.62
4.07
4.3
3.54
2.21
0.77
-0.38
-1.06
-1.28
-1.15
-0.79
-0.24
0.57
1.69
3.08
4.54
5.82
6.7
7.17
7.38
7.64
8.17
9.02
9.94
10.54
10.35
9.11
6.82
3.86
0.9
-1.26
-1.96
-0.91
1.69
5.15
8.56
11.02
11.99
11.35
9.38
6.58
3.48
0.52
-1.99
-3.88
-5.06
-5.52
-5.41
-4.96
-4.47
-4.2
-4.34
-4.9
-5.74
-6.64
-7.36
-7.79
-7.85
-7.58
-7.05
-6.36
-5.67
-5.2
-5.21
-5.95
-7.63
-10.27
-13.76
-17.79
-21.88
-25.46
-27.88
-28.54
-26.99
-23.08
-17.13
-9.76
-1.87
5.69
12.32
17.76
22.09
25.61
28.59
31.19
33.42
35.08
35.97
35.99
35.17
33.75
32.09
30.55
29.34
28.46
27.63
26.48
24.64
21.95
18.49
14.57
10.58
6.79
3.25
-0.19
-3.8
-7.76
-12.15
-16.85
-21.69
-26.48
-30.99
-34.95
-37.96
-39.58
-39.48
-37.53
-33.97
-29.22
-23.82
-18.13
-12.33
-6.44
-0.53
5.18
10.22
14.05
16.17
16.34
14.69
11.72
8.12
4.6
1.72
-0.22
-1.22
-1.47
-1.26
-0.84
-0.39
0.04
0.42
0.68
0.71
0.34
-0.56
-2.05
-4.08
-6.48
-9.03
-11.48
-13.61
-15.22
-16.04
-15.76
-14.1
-10.93
-6.41
-1.08
4.34
9.06
12.47
14.28
14.49
13.29
11.05
8.27
5.66
4.1
4.46
7.32
12.62
19.58
26.75
32.47
35.34
34.58
30.29
23.32
14.95
6.5
-0.98
-6.86
-10.95
-13.38
-14.5
-14.79
-14.75
-14.95
-15.81
-17.59
-20.2
-23.23
-26.01
-27.81
-28.01
-26.27
-22.6
-17.33
-11.05
-4.39
2.14
8.27
13.96
19.3
24.3
28.83
32.64
35.49
37.32
38.29
38.7
38.83
38.82
38.71
38.41
37.89
37.16
36.22
35.02
33.37
31.03
27.79
23.58
18.56
13.03
7.42
2.1
-2.7
-6.94
-10.78
-14.48
-18.25
-22.18
-26.15
-29.82
-32.77
-34.58
-34.95
-33.79
-31.29
-27.88
-24.17
-20.72
-17.91
-15.85
-14.38
-13.2
-12.03
-10.71
-9.29
-7.88
-6.61
-5.57
-4.81
-4.36
-4.26
-4.52
-5.08
-5.78
-6.38
-6.66
-6.49
-5.93
-5.12
-4.26
-3.45
-2.72
-2.01
-1.27
-0.49
0.2
0.61
0.51
-0.29
-1.78
-3.72
-5.67
-7.05
-7.37
-6.33
-3.92
-0.38
3.91
8.58
13.31
17.84
21.88
25.09
27.08
27.6
26.6
24.27
21.03
17.35
13.61
9.98
6.49
3.06
-0.37
-3.78
-7.11
-10.28
-13.26
-16.13
-18.97
-21.83
-24.63
-27.22
-29.37
-30.95
-32.01
-32.77
-33.54
-34.6
-36.05
-37.69
-39.09
-39.63
-38.78
-36.17
-31.78
-25.89
-19.05
-11.94
-5.16
0.91
6.12
10.53
14.24
17.34
19.79
21.59
22.78
23.51
23.97
24.31
24.57
24.77
24.9
25.04
25.3
25.74
26.29
26.79
27.01
26.79
26.03
24.7
22.69
19.85
16.0
11.09
5.29
-1.03
-7.28
-12.81
-17.04
-19.55
-20.18
-19.09
-16.69
-13.63
-10.58
-8.09
-6.43
-5.56
-5.24
-5.16
-5.16
-5.24
-5.57
-6.29
-7.41
-8.7
-9.81
-10.38
-10.25
-9.48
-8.38
-7.3
-6.53
-6.26
-6.52
-7.25
-8.32
-9.56
-10.76
-11.71
-12.24
-12.3
-11.96
-11.5
-11.28
-11.7
-12.96
-14.95
-17.17
-18.83
-19.01
-17.06
-12.75
-6.41
1.24
9.29
16.87
23.39
28.52
32.22
34.71
36.37
37.68
39.07
40.75
42.67
44.48
45.71
45.91
44.86
42.61
39.42
35.6
31.38
26.88
22.16
17.31
12.57
8.24
4.63
1.9
-0.07
-1.59
-3.12
-5.1
-7.89
-11.68
-16.52
-22.29
-28.68
-35.1
-40.74
-44.71
-46.3
-45.22
-41.79
-36.83
-31.43
-26.53
-22.73
-20.14
-18.48
-17.3
-16.14
-14.66
-12.68
-10.17
-7.16
-3.78
-0.19
3.44
6.89
9.99
12.62
14.75
16.49
18.05
19.65
21.41
23.31
25.16
26.72
27.84
28.56
29.1
29.72
30.61
31.69
32.61
32.9
32.19
30.45
28.0
25.38
23.1
21.35
19.97
18.62
16.99
15.02
12.96
11.1
9.58
8.24
6.68
4.41
1.12
-3.27
-8.6
-14.49
-20.5
-26.2
-31.28
-35.58
-39.11
-41.97
-44.25
-45.89
-46.71
-46.51
-45.23
-43.04
-40.27
-37.27
-34.28
-31.31
-28.31
-25.31
-22.42
-19.77
-17.3
-14.57
-10.91
-5.61
1.65
10.66
20.68
30.71
39.89
47.75
54.22
59.47
63.67
66.85
68.89
69.64
69.04
67.12
63.96
59.64
54.28
48.02
41.15
34.1
27.33
21.2
15.76
10.81
5.97
0.93
-4.45
-10.08
-15.7
-21.04
-25.96
-30.55
-35.08
-39.88
-45.22
-51.17
-57.45
-63.47
-68.41
-71.45
-71.98
-69.82
-65.21
-58.79
-51.28
-43.34
-35.41
-27.68
-20.14
-12.76
-5.55
1.34
7.68
13.26
17.98
21.89
25.2
28.15
30.88
33.42
35.66
37.44
38.67
39.32
39.45
39.04
37.99
36.12
33.32
29.7
25.63
21.64
18.11
15.12
12.34
9.21
5.24
0.23
-5.63
-11.83
-17.73
-22.69
-26.18
-27.79
-27.3
-24.74
-20.47
-15.1
-9.42
-4.16
0.1
2.99
4.4
4.4
3.18
1.09
-1.49
-4.16
-6.62
-8.68
-10.29
-11.5
-12.4
-13.06
-13.51
-13.73
-13.59
-12.99
-11.87
-10.26
-8.31
-6.25
-4.3
-2.62
-1.23
-0.06
1.05
2.25
3.59
4.96
6.11
6.68
6.35
4.9
2.41
-0.69
-3.67
-5.61
-5.71
-3.5
0.95
6.98
13.52
19.42
23.76
26.11
26.62
25.81
24.38
22.91
21.68
20.69
19.67
18.35
16.54
14.21
11.49
8.56
5.56
2.58
-0.41
-3.45
-6.58
-9.85
-13.28
-16.88
-20.62
-24.38
-27.99
-31.23
-33.94
-36.08
-37.78
-39.22
-40.58
-41.86
-42.93
-43.5
-43.27
-41.95
-39.36
-35.38
-29.99
-23.28
-15.53
-7.15
1.37
9.59
17.21
24.06
30.07
35.15
39.18
42.04
43.7
44.26
43.91
42.89
41.39
39.49
37.24
34.7
31.96
29.14
26.27
23.36
20.28
16.93
13.22
9.11
4.68
0.02
-4.7
-9.34
-13.76
-17.94
-21.95
-25.88
-29.93
-34.29
-39.09
-44.32
-49.65
-54.47
-57.89
-59.04
-57.32
-52.69
-45.73
-37.48
-29.08
-21.45
-15.08
-10.04
-6.13
-3.07
-0.61
1.46
3.41
5.48
7.92
10.9
14.45
18.42
22.47
26.22
29.24
31.27
32.28
32.49
32.3
32.15
32.3
32.74
33.22
33.34
32.69
31.06
28.41
24.8
20.32
15.01
8.95
2.41
-4.11
-9.88
-14.2
-16.59
-17.06
-16.06
-14.31
-12.49
-11.06
-10.13
-9.61
-9.34
-9.23
-9.32
-9.69
-10.46
-11.62
-13.14
-14.87
-16.65
-18.27
-19.53
-20.25
-20.33
-19.73
-18.48
-16.66
-14.44
-12.12
-10.06
-8.69
-8.33
-9.07
-10.72
-12.71
-14.35
-15.04
-14.44
-12.71
-10.31
-7.83
-5.63
-3.66
-1.49
1.47
5.57
10.69
16.19
21.24
25.16
27.74
29.22
30.13
30.88
31.62
32.19
32.26
31.54
29.84
27.19
23.7
19.53
14.84
9.8
4.57
-0.67
-5.72
-10.44
-14.73
-18.52
-21.81
-24.57
-26.85
-28.71
-30.36
-32.04
-34.06
-36.68
-39.92
-43.54
-47.01
-49.62
-50.74
-49.98
-47.35
-43.21
-38.1
-32.58
-26.99
-21.4
-15.7
-9.73
-3.55
2.54
8.07
12.61
15.96
18.25
19.84
21.18
22.6
24.22
25.91
27.44
28.56
29.16
29.26
28.97
28.43
27.73
26.9
25.89
24.57
22.8
20.41
17.23
13.09
7.99
2.07
-4.22
-10.14
-14.81
-17.49
-17.81
-15.93
-12.56
-8.67
-5.18
-2.66
-1.23
-0.7
-0.82
-1.47
-2.73
-4.79
-7.74
-11.38
-15.31
-19.03
-22.09
-24.3
-25.7
-26.53
-27.08
-27.65
-28.4
-29.32
-30.23
-30.86
-30.93
-30.31
-29.04
-27.35
-25.6
-24.13
-23.19
-22.91
-23.25
-24.02
-24.78
-24.93
-23.71
-20.5
-14.96
-7.26
1.99
11.98
22.01
31.64
40.71
49.2
56.97
63.72
69.05
72.63
74.4
74.49
73.25
70.99
67.97
64.35
60.19
55.57
50.5
45.02
39.15
32.91
26.36
19.51
12.39
4.99
-2.7
-10.63
-18.72
-26.84
-34.82
-42.48
-49.56
-55.73
-60.52
-63.39
-63.86
-61.65
-56.82
-49.84
-41.48
-32.69
-24.28
-16.83
-10.51
-5.21
-0.69
3.2
6.42
8.81
10.24
10.82
10.9
10.95
11.35
12.13
13.04
13.63
13.64
13.14
12.5
12.24
12.7
13.86
15.33
16.53
16.91
16.07
13.83
10.16
5.26
-0.46
-6.31
-11.45
-15.09
-16.77
-16.57
-15.0
-12.86
-10.81
-9.24
-8.15
-7.28
-6.29
-4.91
-3.12
-0.98
1.19
3.06
4.23
4.35
3.17
0.68
-2.93
-7.3
-11.91
-16.22
-19.73
-22.11
-23.21
-23.08
-21.95
-20.18
-18.18
-16.37
-15.15
-14.78
-15.28
-16.33
-17.26
-17.25
-15.53
-11.66
-5.62
2.19
11.11
20.42
29.51
37.91
45.28
51.42
56.17
59.46
61.29
61.67
60.69
58.45
55.12
50.91
46.07
40.86
35.46
30.07
24.8
19.73
14.8
9.93
4.98
-0.18
-5.55
-11.01
-16.37
-21.43
-26.11
-30.59
-35.18
-40.32
-46.29
-53.09
-60.25
-66.88
-71.82
-73.93
-72.49
-67.43
-59.39
-49.57
-39.38
-30.04
-22.26
-16.22
-11.61
-7.92
-4.61
-1.27
2.36
6.36
10.64
14.93
18.86
22.16
24.68
26.61
28.28
30.07
32.21
34.64
37.08
39.11
40.33
40.46
39.43
37.35
34.42
30.92
27.11
23.15
19.06
14.72
9.94
4.65
-1.0
-6.57
-11.37
-14.65
-15.84
-14.76
-11.75
-7.6
-3.24
0.5
3.24
4.97
5.93
6.33
6.2
5.47
4.17
2.66
1.59
1.68
3.31
6.25
9.74
12.75
14.52
14.79
13.87
12.37
10.79
9.41
8.18
6.93
5.51
3.9
2.21
0.55
-1.03
-2.64
-4.42
-6.44
-8.58
-10.35
-11.08
-10.03
-6.7
-1.06
6.36
14.74
23.19
31.1
38.21
44.49
49.93
54.31
57.27
58.33
57.24
54.02
48.98
42.63
35.47
28.0
20.64
13.79
7.8
2.91
-0.88
-3.84
-6.44
-9.21
-12.46
-16.25
-20.39
-24.64
-28.82
-32.95
-37.14
-41.49
-45.99
-50.42
-54.46
-57.7
-59.71
-60.07
-58.45
-54.68
-48.84
-41.39
-33.05
-24.61
-16.84
-10.16
-4.62
-0.01
4.04
7.88
11.67
15.4
18.95
22.18
25.03
27.48
29.6
31.43
32.94
34.14
35.05
35.72
36.23
36.6
36.81
36.82
36.67
36.47
36.34
36.32
36.21
35.66
34.18
31.36
26.93
20.88
13.39
4.89
-3.92
-12.13
-18.71
-22.84
-24.18
-23.07
-20.4
-17.33
-14.82
-13.42
-13.16
-13.78
-14.97
-16.47
-18.09
-19.63
-20.84
-21.46
-21.32
-20.46
-19.13
-17.72
-16.58
-15.92
-15.79
-16.07
-16.56
-17.07
-17.45
-17.68
-17.8
-17.86
-17.8
-17.4
-16.23
-13.9
-10.13
-5.0
1.11
7.6
13.95
19.82
25.13
29.96
34.32
38.15
41.3
43.65
45.18
46.05
46.45
46.54
46.34
45.75
44.58
42.63
39.69
35.68
30.58
24.58
17.98
11.16
4.49
-1.75
-7.44
-12.58
-17.2
-21.34
-25.02
-28.3
-31.36
-34.48
-37.94
-41.83
-46.05
-50.27
-54.11
-57.27
-59.63
-61.18
-61.89
-61.55
-59.82
-56.41
-51.28
-44.76
-37.46
-30.01
-22.83
-16.04
-9.59
-3.41
2.38
7.5
11.71
14.96
17.52
19.85
22.39
25.29
28.39
31.3
33.59
35.01
35.56
35.53
35.26
35.05
35.02
35.03
34.81
34.03
32.4
29.77
26.11
21.48
15.95
9.64
2.75
-4.34
-11.04
-16.7
-20.85
-23.36
-24.52
-24.91
-25.12
-25.62
-26.59
-27.98
-29.67
-31.53
-33.46
-35.32
-36.88
-37.8
-37.71
-36.36
-33.78
-30.35
-26.73
-23.68
-21.8
-21.34
-22.12
-23.62
-25.18
-26.24
-26.53
-26.06
-25.1
-23.96
-22.9
-22.04
-21.4
-20.84
-20.15
-19.01
-17.02
-13.76
-8.92
-2.42
5.46
14.1
22.68
30.44
36.82
41.61
44.86
46.73
47.35
46.74
44.84
41.66
37.37
32.29
26.86
21.49
16.47
11.88
7.65
3.66
-0.21
-3.99
-7.63
-11.05
-14.18
-17.03
-19.72
-22.49
-25.62
-29.23
-33.22
-37.14
-40.24
-41.67
-40.78
-37.28
-31.4
-23.83
-15.44
-7.13
0.41
6.74
11.64
14.96
16.69
16.88
15.78
13.89
11.85
10.29
9.62
9.9
10.88
12.2
13.57
14.84
16.06
17.28
18.46
19.44
20.02
20.04
19.46
18.36
16.83
14.93
12.64
9.86
6.58
2.96
-0.59
-3.47
-5.1
-5.14
-3.74
-1.49
0.77
2.27
2.56
1.73
0.2
-1.5
-2.98
-4.14
-5.14
-6.22
-7.52
-9.05
-10.7
-12.34
-13.9
-15.38
-16.84
-18.26
-19.56
-20.54
-21.03
-20.88
-20.11
-18.88
-17.51
-16.38
-15.89
-16.3
-17.73
-20.05
-22.92
-25.76
-27.9
-28.64
-27.46
-24.14
-18.82
-12.03
-4.51
3.03
10.08
16.43
22.13
27.32
32.01
36.08
39.24
41.3
42.26
42.32
41.77
40.85
39.61
37.91
35.55
32.4
28.48
23.93
18.98
13.87
8.81
4.0
-0.44
-4.42
-7.96
-11.26
-14.61
-18.31
-22.59
-27.5
-32.79
-38.02
-42.53
-45.63
-46.78
-45.73
-42.56
-37.63
-31.5
-24.74
-17.88
-11.41
-5.69
-0.95
2.74
5.5
7.56
9.13
10.36
11.26
11.81
12.05
12.1
12.2
12.63
13.56
15.07
17.06
19.39
21.88
24.41
26.93
29.38
31.76
33.98
35.91
37.41
38.26
38.29
37.29
35.09
31.6
26.93
21.54
16.25
12.05
9.74
9.61
11.19
13.42
15.06
15.12
13.25
9.81
5.59
1.41
-2.17
-5.03
-7.33
-9.37
-11.32
-13.21
-14.95
-16.4
-17.48
-18.25
-18.8
-19.25
-19.61
-19.8
-19.68
-19.18
-18.32
-17.3
-16.4
-15.88
-15.89
-16.38
-17.11
-17.76
-18.03
-17.79
-17.09
-16.17
-15.35
-14.85
-14.69
-14.64
-14.25
-12.97
-10.31
-6.03
-0.18
6.82
14.35
21.76
28.51
34.28
38.99
42.59
45.06
46.33
46.29
44.95
42.4
38.89
34.75
30.26
25.63
20.99
16.38
11.83
7.34
2.96
-1.24
-5.17
-8.76
-11.99
-14.89
-17.55
-20.09
-22.55
-24.93
-27.17
-29.25
-31.22
-33.26
-35.58
-38.36
-41.5
-44.56
-46.78
-47.32
-45.56
-41.41
-35.29
-28.1
-20.8
-14.1
-8.36
-3.5
0.74
4.64
8.34
11.8
14.92
17.58
19.74
21.43
22.75
23.87
24.89
25.93
27.03
28.22
29.5
30.84
32.19
33.4
34.37
34.95
35.07
34.7
33.82
32.41
30.37
27.54
23.73
18.73
12.41
4.8
-3.75
-12.57
-20.66
-26.96
-30.68
-31.53
-29.97
-26.95
-23.57
-20.69
-18.69
-17.5
-16.77
-16.19
-15.57
-14.84
-13.93
-12.76
-11.24
-9.41
-7.5
-5.87
-4.92
-4.75
-5.2
-5.75
-5.81
-4.91
-2.98
-0.37
2.34
4.57
5.99
6.66
6.87
7.01
7.29
7.74
8.15
8.29
7.89
6.8
5.0
2.6
0.01
-2.19
-3.2
-2.37
0.61
5.49
11.48
17.52
22.56
25.89
27.3
27.05
25.75
24.1
22.68
21.76
21.29
20.85
19.95
18.1
15.1
11.09
6.52
1.98
-2.1
-5.54
-8.55
-11.54
-14.87
-18.56
-22.23
-25.31
-27.33
-28.25
-28.46
-28.6
-29.28
-30.81
-33.11
-35.85
-38.57
-40.81
-42.11
-42.02
-40.22
-36.59
-31.3
-24.81
-17.69
-10.49
-3.56
2.92
8.88
14.26
18.96
22.96
26.35
29.31
32.08
34.81
37.42
39.63
41.12
41.64
41.28
40.34
39.17
37.95
36.5
34.39
31.21
26.8
21.39
15.46
9.49
3.76
-1.73
-7.12
-12.53
-17.97
-23.33
-28.47
-33.24
-37.41
-40.62
-42.42
-42.44
-40.61
-37.24
-32.97
-28.5
-24.32
-20.58
-17.15
-13.83
-10.48
-7.2
-4.18
-1.68
0.13
1.22
1.72
1.82
1.76
1.75
1.95
2.45
3.32
4.58
6.25
8.26
10.48
12.65
14.5
15.82
16.56
16.83
16.82
16.69
16.44
15.94
14.89
13.09
10.45
7.17
3.69
0.68
-1.17
-1.35
0.35
3.63
7.79
11.91
15.14
17.01
17.52
17.01
15.94
14.63
13.18
11.47
9.36
6.83
4.04
1.18
-1.58
-4.21
-6.76
-9.31
-11.87
-14.37
-16.68
-18.69
-20.39
-21.83
-23.11
-24.27
-25.27
-26.05
-26.53
-26.69
-26.64
-26.55
-26.71
-27.39
-28.75
-30.74
-32.96
-34.67
-34.96
-32.98
-28.32
-21.23
-12.52
-3.35
5.22
12.53
18.48
23.32
27.43
31.1
34.39
37.23
39.49
41.07
41.95
42.16
41.81
41.02
39.91
38.54
36.87
34.7
31.77
27.85
22.91
17.11
10.84
4.57
-1.32
-6.66
-11.54
-16.26
-21.18
-26.58
-32.49
-38.67
-44.58
-49.58
-53.04
-54.52
-53.87
-51.21
-46.83
-41.06
-34.17
-26.44
-18.13
-9.66
-1.55
5.61
11.33
15.26
17.33
17.75
16.99
15.77
14.82
14.82
16.15
18.82
22.56
26.85
31.17
35.05
38.14
40.18
40.98
40.44
38.59
35.57
31.65
27.15
22.42
17.77
13.41
9.43
5.79
2.37
-1.02
-4.46
-7.87
-10.97
-13.33
-14.54
-14.39
-13.02
-10.81
-8.3
-5.9
-3.82
-1.97
-0.1
1.99
4.3
6.46
7.83
7.72
5.66
1.67
-3.59
-9.01
-13.33
-15.63
-15.67
-13.97
-11.52
-9.42
-8.49
-9.11
-11.22
-14.46
-18.25
-21.86
-24.53
-25.59
-24.67
-21.77
-17.29
-11.85
-6.09
-0.48
4.58
8.88
12.25
14.73
16.57
18.32
20.7
24.31
29.35
35.42
41.66
46.98
50.47
51.53
49.9
45.53
38.43
28.72
16.81
3.53
-9.88
-22.1
-32.01
-39.02
-43.09
-44.56
-43.97
-41.87
-38.74
-35.09
-31.44
-28.22
-25.73
-23.94
-22.56
-21.08
-19.0
-16.04
-12.21
-7.81
-3.35
0.64
3.79
5.95
7.2
7.85
8.3
8.95
10.15
12.07
14.62
17.51
20.23
22.22
22.96
22.09
19.51
15.35
9.93
3.68
-2.94
-9.46
-15.48
-20.63
-24.61
-27.17
-28.18
-27.61
-25.58
-22.39
-18.53
-14.65
-11.41
-9.31
-8.55
-8.85
-9.63
-10.1
-9.7
-8.3
-6.26
-4.26
-3.02
-2.98
-4.14
-6.1
-8.24
-9.91
-10.62
-10.09
-8.25
-5.25
-1.34
3.2
8.1
13.16
18.2
23.02
27.45
31.25
34.24
36.2
36.88
35.98
33.19
28.38
21.71
13.77
5.47
-2.2
-8.44
-12.86
-15.53
-16.78
-17.04
-16.64
-15.75
-14.51
-13.01
-11.4
-9.89
-8.73
-8.17
-8.44
-9.59
-11.51
-13.81
-15.86
-16.94
-16.4
-13.83
-9.19
-2.9
4.29
11.45
17.71
22.59
26.19
29.1
32.09
35.72
40.02
44.54
48.59
51.72
53.82
55.14
55.93
56.16
55.53
53.59
50.14
45.36
39.88
34.43
29.54
25.44
21.91
18.59
15.08
11.24
7.29
3.85
1.76
1.75
4.23
9.08
15.8
23.73
32.44
41.76
51.76
62.44
73.41
83.82
92.56
98.75
102.23
103.73
104.7
106.66
110.53
116.18
122.57
128.25
132.04
133.45
132.63
129.92
125.36
118.57
108.91
95.9
79.35
59.3
35.67
7.98
-24.6
-62.8
-106.49
-154.29
-203.6
-251.3
-294.48
-330.98
-359.15
-377.4
-383.84
-376.55
-354.48
-318.51
-271.98
-220.41
-170.1
-126.59
-93.14
-70.37
-56.51
-48.52
-43.09
-37.57
-30.43
-21.32
-10.8
0.14
10.47
19.46
26.75
32.2
35.78
37.54
37.61
36.38
34.43
32.44
31.0
30.39
30.44
30.68
30.47
29.32
26.99
23.6
19.4
14.63
9.42
3.82
-2.01
-7.66
-12.44
-15.61
-16.61
-15.35
-12.26
-8.15
-3.96
-0.44
2.0
3.33
3.79
3.7
3.34
2.83
2.2
1.4
0.41
-0.73
-1.98
-3.22
-4.35
-5.32
-6.11
-6.7
-7.12
-7.33
-7.33
-7.13
-6.76
-6.31
-5.91
-5.7
-5.82
-6.37
-7.35
-8.7
-10.23
-11.59
-12.28
-11.78
-9.7
-5.88
-0.55
5.9
13.03
20.51
28.12
35.64
42.8
49.15
54.3
57.94
60.0
60.52
59.52
56.93
52.6
46.53
39.02
30.64
22.12
14.08
6.91
0.71
-4.6
-9.16
-13.05
-16.36
-19.08
-21.27
-22.98
-24.3
-25.37
-26.35
-27.48
-28.96
-30.82
-32.8
-34.32
-34.59
-32.85
-28.64
-22.03
-13.63
-4.41
4.58
12.51
18.96
23.88
27.47
29.99
31.6
32.38
32.42
31.86
30.94
29.95
29.03
28.17
27.13
25.58
23.23
19.98
15.96
11.42
6.71
2.11
-2.25
-6.44
-10.64
-15.12
-20.08
-25.56
-31.41
-37.38
-43.16
-48.36
-52.56
-55.23
-55.76
-53.74
-49.1
-42.33
-34.31
-26.06
-18.33
-11.43
-5.27
0.43
5.79
10.71
14.88
18.06
20.19
21.5
22.38
23.12
23.85
24.44
24.65
24.22
23.05
21.16
18.69
15.85
12.81
9.69
6.53
3.29
-0.1
-3.74
-7.7
-11.98
-16.42
-20.71
-24.35
-26.81
-27.61
-26.51
-23.58
-19.22
-14.02
-8.59
-3.36
1.49
5.97
10.19
14.17
17.86
21.16
23.99
26.45
28.73
31.0
33.29
35.43
37.09
38.0
38.02
37.35
36.31
35.32
34.63
34.3
34.16
34.01
33.61
32.81
31.47
29.49
26.77
23.3
19.22
14.9
10.8
7.36
4.86
3.35
2.69
2.6
2.8
3.07
3.22
3.07
2.51
1.45
-0.13
-2.21
-4.71
-7.57
-10.77
-14.27
-18.02
-21.86
-25.54
-28.71
-31.06
-32.45
-33.02
-33.11
-33.17
-33.52
-34.21
-35.02
-35.64
-35.82
-35.59
-35.2
-35.06
-35.47
-36.54
-38.04
-39.43
-39.95
-38.76
-35.18
-28.9
-20.19
-9.87
0.91
11.04
19.81
27.0
32.82
37.63
41.62
44.73
46.8
47.75
47.76
47.35
47.05
47.14
47.42
47.24
45.79
42.49
37.26
30.6
23.31
16.19
9.71
3.93
-1.45
-6.82
-12.52
-18.69
-25.27
-32.02
-38.49
-44.02
-47.84
-49.21
-47.6
-42.88
-35.47
-26.23
-16.34
-6.89
1.27
7.82
12.85
16.77
19.98
22.7
24.99
26.78
28.05
28.95
29.7
30.45
31.18
31.64
31.54
30.7
29.17
27.24
25.3
23.66
22.3
20.96
19.15
16.34
12.08
6.1
-1.56
-10.54
-20.12
-29.23
-36.72
-41.61
-43.38
-42.15
-38.68
-34.02
-29.19
-24.85
-21.19
-18.02
-15.03
-12.02
-8.97
-6.0
-3.25
-0.77
1.53
3.74
5.92
7.96
9.65
10.73
11.09
10.76
9.95
8.96
8.09
7.55
7.39
7.55
7.9
8.31
8.65
8.83
8.83
8.67
8.56
8.79
9.75
11.71
14.74
18.62
22.85
26.76
29.74
31.38
31.44
29.9
26.84
22.46
17.06
11.07
5.02
-0.62
-5.51
-9.59
-12.95
-15.85
-18.49
-20.93
-23.06
-24.64
-25.4
-25.14
-23.86
-21.74
-19.11
-16.38
-14.0
-12.39
-11.88
-12.74
-14.95
-18.2
-21.76
-24.59
-25.53
-23.73
-18.95
-11.66
-2.89
6.16
14.51
21.61
27.43
32.17
36.05
39.13
41.24
42.15
41.7
40.01
37.38
34.25
30.96
27.54
23.72
19.01
12.96
5.44
-3.17
-12.13
-20.56
-27.75
-33.46
-37.87
-41.49
-44.92
-48.56
-52.52
-56.55
-60.11
-62.44
-62.82
-60.72
-56.08
-49.24
-40.99
-32.25
-23.77
-15.99
-9.0
-2.73
2.85
7.65
11.52
14.36
16.29
17.68
18.97
20.56
22.61
24.97
27.35
29.36
30.78
31.59
31.97
32.3
33.04
34.69
37.68
42.28
48.41
55.59
62.82
68.75
71.96
71.34
66.46
57.73
46.24
33.53
21.14
10.24
1.47
-5.04
-9.6
-12.66
-14.75
-16.31
-17.72
-19.21
-20.87
-22.63
-24.24
-25.43
-25.97
-25.77
-24.99
-23.93
-22.96
-22.33
-22.06
-21.97
-21.7
-20.84
-19.08
-16.41
-13.0
-9.3
-5.78
-2.83
-0.7
0.65
1.41
1.98
2.88
4.65
7.64
11.93
17.2
22.81
27.96
31.97
34.43
35.31
34.82
33.27
30.92
27.89
24.19
19.84
14.94
9.73
4.52
-0.39
-4.87
-9.03
-13.04
-17.13
-21.29
-25.25
-28.59
-30.84
-31.83
-31.7
-31.02
-30.51
-30.78
-32.17
-34.58
-37.63
-40.74
-43.28
-44.68
-44.45
-42.21
-37.83
-31.46
-23.62
-15.12
-6.86
0.41
6.27
10.69
13.95
16.39
18.28
19.76
20.73
21.05
20.57
19.25
17.14
14.37
11.16
7.79
4.63
2.15
0.85
0.99
2.42
4.49
6.07
6.02
3.52
-1.61
-8.83
-17.1
-25.18
-31.96
-36.62
-38.79
-38.45
-36.01
-32.16
-27.75
-23.48
-19.77
-16.61
-13.66
-10.48
-6.89
-3.01
0.66
3.59
5.45
6.29
6.48
6.57
6.98
7.86
9.14
10.69
12.48
14.58
17.1
20.02
23.07
25.85
27.88
28.87
28.73
27.58
25.63
23.11
20.3
17.54
15.28
13.98
13.93
15.17
17.34
19.85
22.04
23.4
23.66
22.85
21.15
18.77
15.85
12.41
8.42
3.86
-1.1
-6.15
-10.88
-14.92
-18.13
-20.58
-22.52
-24.13
-25.45
-26.35
-26.6
-26.12
-25.06
-23.78
-22.72
-22.23
-22.43
-23.23
-24.4
-25.69
-26.81
-27.45
-27.14
-25.37
-21.59
-15.55
-7.36
2.39
12.79
22.89
31.94
39.51
45.49
49.94
52.9
54.39
54.38
52.92
50.22
46.65
42.61
38.4
34.13
29.67
24.82
19.41
13.46
7.14
0.73
-5.47
-11.31
-16.72
-21.77
-26.58
-31.27
-35.97
-40.8
-45.8
-50.85
-55.61
-59.44
-61.55
-61.19
-57.88
-51.68
-43.19
-33.44
-23.54
-14.42
-6.55
-0.02
5.4
10.0
14.01
17.62
20.95
24.19
27.47
30.83
34.16
37.21
39.72
41.47
42.44
42.74
42.56
42.09
41.4
40.45
39.08
37.1
34.29
30.44
25.42
19.19
11.9
3.96
-3.95
-10.98
-16.31
-19.44
-20.34
-19.48
-17.64
-15.59
-13.86
-12.71
-12.22
-12.45
-13.48
-15.34
-17.89
-20.78
-23.47
-25.36
-25.99
-25.13
-22.92
-19.76
-16.21
-12.89
-10.22
-8.32
-6.97
-5.74
-4.12
-1.81
1.23
4.74
8.21
11.08
12.85
13.25
12.43
10.99
9.82
9.9
12.02
16.35
22.55
29.75
36.87
42.9
47.12
49.22
49.25
47.5
44.28
39.81
34.14
27.24
19.14
10.1
0.63
-8.54
-16.68
-23.41
-28.64
-32.7
-36.06
-39.16
-42.31
-45.59
-48.91
-52.08
-54.79
-56.67
-57.41
-56.85
-55.18
-52.91
-50.67
-48.97
-47.82
-46.69
-44.64
-40.7
-34.31
-25.57
-15.23
-4.36
6.01
15.23
23.17
30.03
36.14
41.62
46.38
50.14
52.7
54.0
54.19
53.49
52.01
49.72
46.46
42.18
37.03
31.41
25.84
20.66
15.9
11.21
6.07
0.04
-7.01
-14.86
-23.06
-31.12
-38.64
-45.29
-50.74
-54.64
-56.61
-56.42
-54.12
-50.08
-44.86
-38.98
-32.82
-26.57
-20.39
-14.47
-9.13
-4.67
-1.24
1.22
3.0
4.47
5.95
7.6
9.43
11.32
13.17
14.98
16.9
19.22
22.19
25.88
30.02
34.09
37.36
39.2
39.26
37.62
34.73
31.26
27.92
25.27
23.62
22.96
22.98
23.25
23.26
22.68
21.45
19.78
18.03
16.48
15.12
13.65
11.51
8.17
3.43
-2.47
-8.79
-14.61
-19.1
-21.85
-23.02
-23.12
-22.84
-22.66
-22.73
-22.92
-22.97
-22.68
-22.03
-21.08
-19.96
-18.85
-17.9
-17.23
-16.84
-16.42
-15.36
-12.87
-8.31
-1.46
7.21
16.72
25.91
33.78
39.77
43.75
45.82
46.12
44.74
41.73
37.23
31.55
25.1
18.35
11.63
5.14
-1.06
-6.92
-12.38
-17.27
-21.4
-24.69
-27.22
-29.25
-31.13
-33.13
-35.36
-37.74
-40.05
-42.03
-43.46
-44.23
-44.28
-43.6
-42.09
-39.63
-36.03
-31.19
-25.2
-18.33
-10.96
-3.49
3.82
10.79
17.31
23.16
28.06
31.75
34.1
35.32
35.85
36.23
36.78
37.49
37.94
37.55
35.79
32.45
27.71
22.06
16.08
10.17
4.47
-1.16
-7.02
-13.36
-20.37
-28.0
-36.05
-44.01
-51.2
-56.83
-60.15
-60.76
-58.77
-54.9
-50.23
-45.92
-42.79
-41.07
-40.49
-40.44
-40.36
-39.99
-39.45
-39.19
-39.71
-41.37
-44.22
-48.03
-52.29
-56.46
-60.02
-62.56
-63.8
-63.58
-61.9
-58.97
-55.27
-51.49
-48.17
-45.41
-42.42
-37.59
-28.92
-14.74
5.45
30.72
58.9
87.29
113.4
135.53
152.74
164.54
170.57
170.43
163.9
151.33
133.84
113.26
91.82
71.52
53.77
39.13
27.45
18.11
10.39
3.71
-2.33
-8.04
-13.77
-19.93
-26.88
-34.69
-43.04
-51.18
-58.14
-63.06
-65.44
-65.2
-62.55
-57.71
-50.74
-41.58
-30.24
-16.99
-2.49
12.35
26.57
39.37
50.25
58.91
65.19
69.02
70.4
69.53
66.91
63.24
59.34
55.83
52.98
50.6
48.24
45.32
41.46
36.63
31.15
25.62
20.73
17.0
14.63
13.44
12.92
12.42
11.35
9.32
6.24
2.22
-2.44
-7.39
-12.14
-16.13
-18.77
-19.54
-18.23
-15.05
-10.61
-5.72
-1.16
2.53
5.15
6.69
7.31
7.21
6.69
6.19
6.18
7.06
8.96
11.56
14.24
16.27
17.13
16.74
15.38
13.55
11.66
9.84
7.95
5.66
2.71
-1.05
-5.52
-10.53
-15.79
-20.98
-25.73
-29.58
-32.03
-32.67
-31.28
-27.96
-23.14
-17.49
-11.82
-6.83
-3.05
-0.78
0.02
-0.41
-1.68
-3.44
-5.43
-7.61
-9.97
-12.53
-15.18
-17.68
-19.79
-21.35
-22.32
-22.78
-22.83
-22.52
-21.87
-20.91
-19.73
-18.51
-17.4
-16.52
-15.82
-15.16
-14.28
-12.85
-10.56
-7.15
-2.6
2.86
8.72
14.36
19.2
22.88
25.28
26.48
26.7
26.2
25.18
23.79
22.09
20.06
17.63
14.76
11.49
7.91
4.28
0.9
-1.89
-3.74
-4.36
-3.69
-1.92
0.44
2.62
3.85
3.57
1.63
-1.64
-5.51
-9.1
-11.57
-12.38
-11.36
-8.76
-5.16
-1.25
2.32
5.14
7.15
8.56
9.81
11.35
13.54
16.56
20.4
24.88
29.67
34.32
38.3
41.12
42.39
42.0
40.18
37.47
34.51
31.87
29.8
28.19
26.66
24.73
21.99
18.27
13.53
7.89
1.55
-5.2
-11.93
-18.14
-23.32
-27.16
-29.59
-30.77
-31.03
-30.72
-30.16
-29.63
-29.44
-29.91
-31.24
-33.47
-36.41
-39.68
-42.89
-45.74
-48.17
-50.25
-52.1
-53.75
-55.07
-55.79
-55.58
-54.22
-51.62
-47.95
-43.59
-39.09
-35.06
-31.99
-30.2
-29.65
-30.01
-30.6
-30.53
-28.9
-24.96
-18.48
-9.73
0.49
11.13
21.22
30.06
37.47
43.54
48.5
52.52
55.54
57.42
57.97
57.11
54.8
51.02
45.7
38.78
30.38
20.87
10.88
1.13
-7.76
-15.5
-22.13
-27.96
-33.35
-38.56
-43.7
-48.77
-53.71
-58.38
-62.52
-65.68
-67.3
-66.81
-63.91
-58.72
-51.74
-43.71
-35.32
-26.95
-18.75
-10.68
-2.79
4.67
11.37
16.95
21.3
24.55
27.04
29.19
31.3
33.5
35.68
37.59
38.9
39.31
38.69
37.14
34.93
32.39
29.74
26.98
23.87
19.96
14.75
7.83
-0.91
-11.23
-22.39
-33.23
-42.32
-48.36
-50.53
-48.74
-43.72
-36.73
-29.16
-22.21
-16.58
-12.49
-9.83
-8.27
-7.45
-7.04
-6.8
-6.5
-5.99
-5.21
-4.15
-2.93
-1.73
-0.74
-0.15
0.02
-0.06
-0.01
0.62
2.15
4.6
7.62
10.61
12.93
14.12
14.05
12.92
11.19
9.39
8.09
7.74
8.63
10.76
13.87
17.45
20.94
23.81
25.72
26.53
26.18
24.68
22.03
18.31
13.68
8.46
2.96
-2.46
-7.58
-12.24
-16.36
-19.92
-22.94
-25.39
-27.29
-28.6
-29.31
-29.48
-29.23
-28.79
-28.53
-28.79
-29.9
-31.88
-34.42
-36.78
-38.0
-37.14
-33.51
-26.96
-17.83
-6.87
4.97
16.76
27.74
37.35
45.27
51.44
55.98
59.16
61.33
62.69
63.38
63.37
62.63
61.06
58.59
55.12
50.55
44.79
37.89
30.06
21.66
13.08
4.6
-3.72
-11.96
-20.3
-28.77
-37.19
-45.04
-51.62
-56.11
-57.84
-56.47
-52.12
-45.39
-37.15
-28.33
-19.7
-11.78
-4.81
1.08
5.79
9.18
11.16
11.72
11.09
9.66
7.94
6.45
5.52
5.32
5.74
6.56
7.5
8.37
9.12
9.87
10.72
11.74
12.85
13.82
14.41
14.36
13.44
11.56
8.79
5.43
2.11
-0.39
-1.31
-0.17
2.94
7.38
12.14
16.16
18.71
19.56
18.95
17.39
15.33
12.98
10.33
7.28
3.85
0.23
-3.3
-6.52
-9.43
-12.21
-15.02
-17.83
-20.38
-22.27
-23.19
-23.17
-22.52
-21.81
-21.59
-22.28
-24.04
-26.86
-30.5
-34.44
-37.89
-39.84
-39.3
-35.59
-28.64
-19.01
-7.79
3.82
14.8
24.47
32.6
39.15
44.14
47.58
49.49
49.98
49.33
47.91
46.03
43.8
41.02
37.34
32.41
26.14
18.8
11.01
3.46
-3.25
-8.88
-13.51
-17.52
-21.39
-25.57
-30.33
-35.7
-41.44
-46.97
-51.41
-53.82
-53.36
-49.64
-42.87
-33.89
-23.91
-14.23
-5.86
0.68
5.32
8.37
10.23
11.35
12.11
12.91
14.1
15.92
18.39
21.25
24.03
26.23
27.59
28.16
28.26
28.34
28.71
29.45
30.37
31.1
31.22
30.32
28.15
24.66
20.11
15.01
10.03
5.82
2.79
1.07
0.44
0.49
0.79
0.97
0.85
0.42
-0.22
-0.94
-1.7
-2.59
-3.77
-5.4
-7.43
-9.61
-11.51
-12.73
-13.09
-12.7
-11.89
-11.0
-10.29
-9.79
-9.43
-9.16
-8.96
-8.97
-9.29
-10.05
-11.26
-12.82
-14.46
-15.7
-15.88
-14.26
-10.31
-3.86
4.67
14.45
24.42
33.58
41.32
47.34
51.68
54.43
55.61
55.1
52.8
48.8
43.46
37.37
31.13
25.13
19.45
13.88
8.15
2.1
-4.2
-10.45
-16.27
-21.41
-25.77
-29.49
-32.84
-36.11
-39.55
-43.22
-47.0
-50.48
-53.03
-53.97
-52.67
-48.81
-42.4
-33.85
-23.8
-13.03
-2.26
7.89
16.94
24.58
30.59
34.92
37.61
38.87
39.07
38.65
38.05
37.63
37.54
37.72
37.95
37.94
37.54
36.78
35.78
34.66
33.34
31.58
28.95
25.07
19.63
12.55
3.99
-5.65
-15.64
-24.97
-32.49
-37.19
-38.58
-36.94
-33.26
-28.9
-25.05
-22.36
-20.81
-19.89
-19.02
-17.82
-16.27
-14.59
-13.05
-11.79
-10.85
-10.22
-9.9
-9.92
-10.32
-11.02
-11.82
-12.43
-12.59
-12.15
-11.17
-9.85
-8.56
-7.63
-7.32
-7.71
-8.71
-9.96
-10.93
-10.97
-9.44
-5.96
-0.48
6.57
14.48
22.35
29.34
34.86
38.56
40.45
40.66
39.42
36.91
33.27
28.61
23.09
17.01
10.71
4.59
-1.13
-6.38
-11.3
-16.05
-20.69
-25.1
-28.99
-32.02
-33.88
-34.56
-34.27
-33.48
-32.76
-32.66
-33.47
-35.11
-37.15
-38.84
-39.29
-37.76
-33.83
-27.56
-19.42
-10.19
-0.71
8.29
16.39
23.42
29.42
34.52
38.79
42.28
45.0
47.01
48.45
49.46
50.09
50.18
49.32
47.03
42.98
37.21
30.17
22.58
15.13
8.23
1.88
-4.18
-10.29
-16.71
-23.52
-30.65
-37.88
-44.78
-50.71
-54.8
-56.2
-54.29
-49.05
-41.17
-31.92
-22.83
-15.21
-9.83
-6.76
-5.44
-5.05
-4.75
-3.96
-2.46
-0.34
2.19
4.89
7.58
10.16
12.57
14.78
16.71
18.34
19.69
20.82
21.82
22.7
23.35
23.51
22.8
20.83
17.31
12.19
5.75
-1.42
-8.53
-14.67
-19.13
-21.51
-21.83
-20.42
-17.85
-14.66
-11.28
-8.05
-5.18
-2.94
-1.58
-1.28
-1.98
-3.33
-4.72
-5.46
-5.1
-3.57
-1.24
1.28
3.35
4.55
4.79
4.21
3.06
1.56
-0.09
-1.75
-3.3
-4.71
-6.09
-7.63
-9.52
-11.77
-14.03
-15.62
-15.72
-13.66
-9.21
-2.68
5.17
13.39
21.13
27.81
33.17
37.12
39.61
40.5
39.61
36.78
32.04
25.68
18.21
10.16
2.02
-5.9
-13.41
-20.41
-26.78
-32.35
-36.97
-40.48
-42.85
-44.1
-44.37
-43.87
-42.89
-41.77
-40.88
-40.59
-41.08
-42.25
-43.56
-44.14
-42.95
-39.16
-32.55
-23.6
-13.35
-3.02
6.48
14.74
21.78
27.85
33.07
37.35
40.5
42.45
43.41
43.83
44.21
44.9
45.89
46.93
47.64
47.68
46.92
45.43
43.39
40.97
38.16
34.77
30.48
24.94
17.98
9.63
0.17
-9.87
-19.8
-28.82
-36.12
-41.07
-43.33
-43.0
-40.6
-36.92
-32.73
-28.56
-24.63
-20.93
-17.42
-14.17
-11.41
-9.38
-8.28
-8.09
-8.57
-9.38
-10.1
-10.45
-10.28
-9.65
-8.75
-7.82
-7.04
-6.47
-6.02
-5.55
-4.88
-3.98
-3.01
-2.24
-2.05
-2.67
-4.02
-5.59
-6.54
-5.94
-3.14
1.96
8.86
16.63
24.22
30.77
35.79
39.08
40.58
40.27
38.08
34.05
28.43
21.73
14.66
7.94
2.07
-2.83
-6.96
-10.72
-14.4
-18.08
-21.5
-24.26
-26.01
-26.67
-26.51
-25.99
-25.57
-25.6
-26.18
-27.3
-28.84
-30.6
-32.22
-33.14
-32.68
-30.2
-25.41
-18.49
-10.09
-1.12
7.55
15.32
21.93
27.38
31.77
35.19
37.66
39.16
39.68
39.31
38.22
36.63
34.81
32.96
31.2
29.47
27.61
25.37
22.55
19.01
14.68
9.59
3.78
-2.7
-9.84
-17.59
-25.84
-34.38
-42.84
-50.69
-57.28
-61.99
-64.3
-63.97
-61.03
-55.82
-48.96
-41.16
-33.11
-25.39
-18.39
-12.3
-7.16
-2.97
0.31
2.81
4.72
6.32
7.89
9.7
11.82
14.16
16.46
18.48
20.1
21.37
22.54
23.9
25.62
27.65
29.77
31.58
32.69
32.8
31.72
29.46
26.27
22.61
19.16
16.66
15.71
16.49
18.77
21.89
25.0
27.39
28.57
28.39
26.86
24.1
20.19
15.25
9.52
3.36
-2.76
-8.34
-13.03
-16.7
-19.47
-21.62
-23.38
-24.89
-26.14
-27.04
-27.57
-27.81
-27.98
-28.32
-28.97
-30.02
-31.5
-33.38
-35.61
-37.94
-39.9
-40.68
-39.43
-35.51
-28.76
-19.67
-9.22
1.44
11.28
19.68
26.45
31.67
35.58
38.37
40.17
41.08
41.26
40.96
40.49
40.12
40.04
40.19
40.31
39.99
38.75
36.26
32.39
27.27
21.24
14.69
7.95
1.18
-5.65
-12.69
-20.08
-27.82
-35.65
-43.04
-49.24
-53.48
-55.07
-53.69
-49.49
-43.13
-35.6
-27.98
-21.07
-15.27
-10.51
-6.42
-2.61
1.15
4.87
8.45
11.85
15.19
18.69
22.53
26.64
30.69
34.19
36.66
37.84
37.75
36.62
34.74
32.34
29.5
26.15
22.14
17.3
11.54
4.92
-2.26
-9.48
-16.03
-21.14
-24.25
-25.17
-24.11
-21.62
-18.46
-15.33
-12.78
-11.11
-10.37
-10.48
-11.28
-12.6
-14.23
-15.94
-17.42
-18.32
-18.39
-17.56
-16.08
-14.43
-13.2
-12.76
-13.19
-14.11
-14.95
-15.09
-14.18
-12.19
-9.44
-6.44
-3.73
-1.68
-0.48
0.02
0.27
0.94
2.85
6.67
12.72
20.79
30.14
39.69
48.34
55.3
60.17
62.93
63.68
62.51
59.41
54.38
47.6
39.46
30.53
21.34
12.2
3.2
-5.7
-14.48
-22.95
-30.71
-37.33
-42.44
-45.93
-47.93
-48.8
-48.97
-48.9
-49.02
-49.6
-50.79
-52.41
-54.03
-54.91
-54.25
-51.39
-46.07
-38.55
-29.48
-19.74
-10.07
-0.96
7.41
15.0
21.79
27.65
32.42
36.02
38.59
40.49
42.14
43.82
45.5
46.83
47.23
46.23
43.6
39.52
34.47
29.03
23.66
18.59
13.66
8.52
2.73
-4.12
-12.16
-21.23
-30.78
-39.93
-47.63
-52.9
-55.11
-54.2
-50.65
-45.35
-39.25
-33.06
-27.14
-21.49
-16.06
-10.98
-6.55
-3.25
-1.42
-1.1
-1.97
-3.48
-5.07
-6.31
-7.01
-7.13
-6.74
-5.86
-4.53
-2.71
-0.38
2.49
5.83
9.44
12.97
15.99
18.03
18.8
18.19
16.45
14.12
11.97
10.8
11.15
13.13
16.37
20.15
23.7
26.39
27.89
28.12
27.09
24.85
21.42
16.94
11.71
6.23
1.01
-3.6
-7.52
-10.93
-14.16
-17.41
-20.75
-23.96
-26.72
-28.67
-29.62
-29.61
-28.87
-27.81
-26.81
-26.22
-26.28
-27.06
-28.35
-29.66
-30.19
-29.0
-25.34
-18.86
-9.87
0.79
12.01
22.78
32.49
40.99
48.42
54.97
60.69
65.4
68.82
70.74
71.11
70.08
67.97
65.09
61.7
57.9
53.68
48.89
43.4
37.15
30.18
22.66
14.8
6.78
-1.26
-9.27
-17.25
-25.22
-33.1
-40.7
-47.63
-53.31
-57.1
-58.47
-57.19
-53.5
-48.03
-41.66
-35.21
-29.24
-24.01
-19.56
-15.87
-12.96
-10.95
-9.83
-9.51
-9.72
-10.04
-10.06
-9.44
-8.03
-5.86
-3.16
-0.24
2.64
5.32
7.84
10.37
13.09
16.07
19.16
22.04
24.31
25.57
25.56
24.14
21.4
17.68
13.61
10.05
7.87
7.65
9.39
12.45
15.71
17.96
18.33
16.56
12.95
8.18
2.89
-2.48
-7.76
-12.94
-18.0
-22.81
-27.18
-30.91
-33.91
-36.13
-37.53
-37.98
-37.39
-35.71
-33.09
-29.85
-26.43
-23.24
-20.57
-18.51
-17.01
-15.96
-15.23
-14.78
-14.57
-14.49
-14.27
-13.38
-11.1
-6.68
0.39
10.12
21.91
34.65
47.03
57.9
66.54
72.76
76.72
78.84
79.48
78.97
77.54
75.33
72.38
68.61
63.79
57.62
49.87
40.58
30.19
19.45
9.27
0.42
-6.68
-12.04
-16.06
-19.34
-22.48
-26.01
-30.25
-35.32
-41.1
-47.15
-52.76
-56.98
-58.87
-57.75
-53.49
-46.54
-37.9
-28.73
-20.07
-12.51
-6.22
-1.03
3.34
7.04
10.16
12.68
14.68
16.39
18.18
20.43
23.36
26.92
30.8
34.58
37.88
40.48
42.38
43.66
44.37
44.39
43.4
40.99
36.79
30.57
22.26
12.05
0.34
-12.16
-24.49
-35.49
-44.16
-49.85
-52.51
-52.67
-51.15
-48.78
-46.07
-43.19
-40.1
-36.87
-33.72
-31.06
-29.18
-28.07
-27.34
-26.43
-24.83
-22.42
-19.46
-16.53
-14.16
-12.63
-11.87
-11.55
-11.28
-10.8
-10.06
-9.11
-8.04
-6.95
-5.89
-4.96
-4.33
-4.2
-4.62
-5.39
-5.93
-5.4
-3.0
1.81
9.02
18.05
27.89
37.38
45.51
51.58
55.26
56.48
55.35
52.04
46.82
40.06
32.27
24.0
15.84
8.19
1.23
-5.05
-10.8
-16.16
-21.15
-25.67
-29.52
-32.49
-34.52
-35.75
-36.46
-37.03
-37.83
-39.11
-40.92
-43.08
-45.2
-46.72
-47.01
-45.53
-41.95
-36.34
-29.12
-20.97
-12.65
-4.77
2.28
8.36
13.41
17.41
20.29
22.08
22.94
23.22
23.37
23.77
24.52
25.45
26.19
26.37
25.89
24.9
23.75
22.75
21.9
20.89
19.19
16.27
11.85
5.88
-1.45
-9.82
-18.77
-27.59
-35.32
-40.84
-43.26
-42.22
-38.13
-32.07
-25.35
-19.08
-13.87
-9.85
-6.95
-5.15
-4.52
-5.1
-6.71
-8.85
-10.83
-11.98
-11.97
-10.84
-9.02
-7.05
-5.47
-4.62
-4.61
-5.29
-6.31
-7.27
-7.81
-7.8
-7.32
-6.69
-6.2
-6.08
-6.25
-6.37
-5.93
-4.33
-1.08
4.05
10.96
19.2
28.09
36.74
44.32
50.06
53.44
54.18
52.33
48.21
42.36
35.45
28.15
21.02
14.46
8.68
3.72
-0.53
-4.32
-7.9
-11.47
-15.07
-18.56
-21.7
-24.31
-26.43
-28.33
-30.36
-32.82
-35.75
-38.9
-41.75
-43.68
-44.12
-42.65
-39.11
-33.59
-26.43
-18.13
-9.28
-0.46
7.86
15.24
21.34
25.94
28.97
30.63
31.29
31.49
31.69
32.2
33.04
34.02
34.82
35.15
34.86
33.96
32.55
30.8
28.77
26.42
23.54
19.86
15.15
9.29
2.35
-5.43
-13.59
-21.53
-28.5
-33.76
-36.7
-37.02
-34.87
-30.78
-25.63
-20.28
-15.5
-11.78
-9.37
-8.27
-8.36
-9.42
-11.05
-12.8
-14.15
-14.68
-14.18
-12.79
-10.9
-9.08
-7.92
-7.82
-8.85
-10.74
-13.0
-15.03
-16.37
-16.81
-16.41
-15.45
-14.27
-13.09
-11.91
-10.45
-8.21
-4.63
0.69
7.8
16.33
25.55
34.56
42.51
48.77
53.01
55.18
55.43
54.09
51.44
47.81
43.53
38.82
33.83
28.56
22.9
16.68
9.84
2.51
-5.01
-12.27
-18.91
-24.68
-29.57
-33.71
-37.26
-40.36
-43.11
-45.59
-47.84
-49.72
-50.88
-50.71
-48.59
-44.05
-37.11
-28.27
-18.4
-8.41
0.96
9.36
16.68
22.96
28.21
32.39
35.45
37.44
38.6
39.26
39.72
40.11
40.33
40.06
39.04
37.16
34.52
31.43
28.14
24.74
21.05
16.69
11.19
4.16
-4.55
-14.73
-25.77
-36.64
-45.99
-52.5
-55.21
-53.86
-49.04
-41.99
-34.21
-27.02
-21.19
-16.89
-13.85
-11.61
-9.83
-8.33
-7.1
-6.12
-5.26
-4.28
-2.92
-1.01
1.39
3.98
6.32
8.02
8.9
9.12
9.06
9.17
9.69
10.59
11.55
12.2
12.21
11.46
9.99
8.01
5.83
3.86
2.63
2.65
4.27
7.48
11.86
16.7
21.22
24.91
27.6
29.41
30.54
31.02
30.57
28.72
25.1
19.7
13.01
5.91
-0.73
-6.32
-10.85
-14.73
-18.5
-22.45
-26.46
-30.11
-32.92
-34.66
-35.47
-35.73
-35.9
-36.35
-37.28
-38.68
-40.36
-41.93
-42.81
-42.3
-39.81
-35.02
-28.03
-19.3
-9.53
0.59
10.46
19.66
27.89
34.94
40.67
45.08
48.35
50.83
53.0
55.24
57.67
60.08
61.93
62.6
61.65
59.03
55.06
50.26
45.06
39.57
33.59
26.71
18.52
8.8
-2.34
-14.47
-26.74
-38.01
-46.97
-52.46
-53.85
-51.26
-45.65
-38.48
-31.22
-24.93
-20.02
-16.31
-13.32
-10.6
-7.97
-5.58
-3.71
-2.64
-2.42
-2.86
-3.58
-4.11
-4.12
-3.44
-2.13
-0.36
1.68
3.85
6.08
8.28
10.3
11.88
12.75
12.74
11.8
10.07
7.82
5.4
3.27
2.02
2.26
4.54
9.07
15.62
23.46
31.52
38.7
44.05
46.95
47.08
44.37
39.04
31.5
22.44
12.72
3.22
-5.36
-12.61
-18.47
-23.1
-26.83
-29.97
-32.68
-35.01
-36.81
-37.9
-38.16
-37.6
-36.42
-34.91
-33.41
-32.21
-31.58
-31.69
-32.54
-33.86
-35.0
-35.05
-32.98
-28.12
-20.35
-10.28
1.0
12.22
22.35
30.84
37.56
42.71
46.61
49.51
51.52
52.72
53.12
52.78
51.81
50.34
48.38
45.84
42.51
38.17
32.74
26.43
19.64
12.91
6.69
1.16
-3.8
-8.51
-13.38
-18.76
-24.84
-31.6
-38.77
-45.75
-51.64
-55.38
-56.07
-53.26
-47.19
-38.76
-29.24
-19.87
-11.49
-4.41
1.47
6.4
10.52
13.83
16.23
17.69
18.39
18.66
18.84
19.19
19.76
20.39
20.86
20.95
20.63
20.02
19.39
18.98
18.84
18.85
18.65
17.81
15.96
12.84
8.4
2.72
-3.9
-10.95
-17.57
-22.73
-25.38
-24.87
-21.3
-15.49
-8.81
-2.72
1.71
4.06
4.62
4.07
3.21
2.48
2.04
1.72
1.2
0.18
-1.44
-3.48
-5.45
-6.81
-7.28
-6.83
-5.82
-4.82
-4.48
-5.1
-6.43
-7.59
-7.43
-5.39
-1.39
3.77
8.7
11.85
12.12
9.53
5.27
1.3
-1.25
-1.45
0.94
5.92
13.29
22.6
32.98
42.92
50.47
52.34
46.77
34.35
19.17
6.26
-1.66
-4.61
-4.0
-0.85
0.92
-0.2
-6.2
-19.28
-41.47
-74.34
-118.63
-174.42
-228.98
-269.2
-282.66
-263.52
-215.28
-149.37
-80.58
-21.61
20.85
47.19
61.07
67.66
70.29
69.96
66.41
59.81
51.79
45.08
42.32
43.43
46.67
49.23
48.69
44.34
37.29
29.78
24.19
22.07
22.8
24.7
25.64
24.18
20.28
15.07
10.29
7.43
7.16
8.88
11.42
13.58
14.79
15.37
16.25
18.61
23.65
31.8
42.57
54.35
64.5
70.02
68.58
59.6
44.73
27.38
11.39
-0.39
-7.04
-9.54
-9.77
-9.41
-9.23
-9.19
-8.95
-8.5
-8.19
-8.45
-9.34
-10.4
-10.81
-9.89
-7.44
-3.91
-0.19
2.84
4.65
5.21
4.94
4.44
4.27
4.69
5.57
6.49
6.9
6.31
4.45
1.42
-2.3
-6.02
-8.82
-10.13
-9.86
-8.41
-6.55
-5.06
-4.51
-5.05
-6.5
-8.44
-10.46
-12.24
-13.67
-14.78
-15.68
-16.48
-17.21
-17.75
-17.93
-17.61
-16.79
-15.64
-14.48
-13.61
-13.21
-13.27
-13.53
-13.7
-13.51
-12.86
-11.79
-10.45
-9.03
-7.66
-6.35
-4.9
-2.97
-0.12
3.96
9.34
15.77
22.64
29.29
35.07
39.55
42.6
44.25
44.65
44.0
42.5
40.39
37.9
35.2
32.27
28.91
24.71
19.25
12.28
3.89
-5.42
-14.85
-23.46
-30.54
-35.73
-39.14
-41.25
-42.65
-43.85
-45.13
-46.47
-47.57
-47.96
-47.14
-44.68
-40.4
-34.39
-27.11
-19.21
-11.44
-4.39
1.57
6.39
10.18
13.19
15.69
17.89
19.98
22.06
24.22
26.44
28.66
30.71
32.42
33.61
34.18
34.16
33.61
32.64
31.34
29.75
27.82
25.46
22.56
18.99
14.59
9.22
2.79
-4.59
-12.52
-20.22
-26.72
-31.08
-32.77
-31.85
-28.99
-25.22
-21.55
-18.67
-16.76
-15.61
-14.79
-13.91
-12.78
-11.37
-9.77
-8.08
-6.39
-4.78
-3.39
-2.42
-2.11
-2.55
-3.66
-5.08
-6.32
-6.91
-6.57
-5.34
-3.53
-1.56
0.16
1.32
1.84
1.78
1.42
1.11
1.27
2.26
4.29
7.38
11.32
15.79
20.34
24.53
27.97
30.36
31.48
31.2
29.43
26.2
21.65
16.09
9.98
3.85
-1.79
-6.61
-10.57
-13.83
-16.63
-19.19
-21.56
-23.63
-25.19
-26.13
-26.43
-26.24
-25.8
-25.37
-25.11
-25.13
-25.44
-25.93
-26.38
-26.41
-25.57
-23.4
-19.7
-14.53
-8.31
-1.63
4.9
10.87
16.05
20.46
24.19
27.3
29.86
31.86
33.32
34.36
35.08
35.57
35.74
35.37
34.14
31.82
28.37
24.06
19.34
14.59
9.96
5.33
0.34
-5.34
-11.78
-18.78
-25.85
-32.36
-37.65
-41.11
-42.33
-41.17
-37.9
-33.14
-27.72
-22.41
-17.73
-13.75
-10.29
-7.04
-3.89
-0.92
1.61
3.46
4.54
4.95
4.96
4.81
4.7
4.7
4.81
5.02
5.36
5.88
6.66
7.74
9.05
10.49
11.85
12.93
13.6
13.73
13.27
12.2
10.63
8.83
7.2
6.2
6.13
7.01
8.48
9.95
10.87
10.93
10.13
8.62
6.63
4.22
1.35
-2.03
-5.81
-9.62
-13.0
-15.52
-16.98
-17.55
-17.67
-17.89
-18.6
-19.9
-21.51
-22.94
-23.72
-23.54
-22.42
-20.7
-18.87
-17.5
-17.01
-17.67
-19.51
-22.21
-25.13
-27.38
-27.98
-26.23
-21.93
-15.49
-7.81
0.08
7.33
13.49
18.51
22.52
25.67
28.02
29.63
30.56
31.0
31.12
30.98
30.43
29.19
26.96
23.62
19.34
14.56
9.8
5.5
1.85
-1.24
-4.09
-7.09
-10.56
-14.62
-19.13
-23.71
-27.79
-30.81
-32.29
-31.98
-29.92
-26.44
-22.04
-17.33
-12.84
-8.9
-5.62
-2.91
-0.64
1.28
2.78
3.74
4.05
3.78
3.21
2.71
2.62
2.98
3.61
4.22
4.6
4.77
4.99
5.55
6.55
7.81
8.94
9.5
9.29
8.38
7.09
5.83
4.95
4.67
5.06
6.11
7.66
9.5
11.33
12.87
13.93
14.44
14.48
14.15
13.49
12.45
10.9
8.79
6.22
3.43
0.75
-1.52
-3.31
-4.75
-6.18
-7.89
-10.01
-12.39
-14.62
-16.28
-17.07
-17.01
-16.38
-15.66
-15.29
-15.61
-16.73
-18.52
-20.59
-22.38
-23.27
-22.7
-20.34
-16.23
-10.73
-4.39
2.27
8.9
15.32
21.43
27.08
32.01
35.87
38.39
39.55
39.56
38.78
37.59
36.16
34.43
32.15
29.06
25.06
20.29
15.08
9.78
4.69
-0.09
-4.6
-8.96
-13.31
-17.72
-22.22
-26.71
-31.04
-34.86
-37.74
-39.22
-38.96
-36.89
-33.26
-28.6
-23.48
-18.37
-13.52
-8.99
-4.78
-0.98
2.21
4.47
5.56
5.47
4.44
2.97
1.6
0.72
0.46
0.71
1.25
1.95
2.78
3.84
5.23
6.87
8.52
9.78
10.3
9.83
8.38
6.19
3.73
1.6
0.46
0.83
2.96
6.65
11.3
16.03
20.02
22.71
23.93
23.86
22.85
21.23
19.19
16.82
14.16
11.29
8.37
5.57
2.99
0.61
-1.68
-3.99
-6.29
-8.39
-9.95
-10.7
-10.54
-9.67
-8.59
-7.87
-8.04
-9.39
-11.94
-15.39
-19.18
-22.52
-24.55
-24.45
-21.8
-16.65
-9.61
-1.62
6.35
13.63
19.94
25.27
29.76
33.42
36.19
37.98
38.77
38.71
37.98
36.74
35.06
32.82
29.89
26.1
21.4
15.85
9.69
3.3
-2.87
-8.39
-13.02
-16.76
-19.82
-22.59
-25.45
-28.61
-31.99
-35.23
-37.66
-38.58
-37.41
-33.99
-28.58
-21.86
-14.59
-7.44
-0.77
5.27
10.62
15.16
18.71
21.07
22.24
22.42
22.0
21.44
21.06
20.98
21.1
21.21
21.12
20.77
20.23
19.67
19.27
19.05
18.94
18.67
17.97
16.57
14.25
10.83
6.18
0.24
-6.78
-14.34
-21.53
-27.29
-30.73
-31.43
-29.6
-26.02
-21.65
-17.36
-13.6
-10.44
-7.68
-5.14
-2.79
-0.79
0.69
1.59
2.09
2.51
3.13
4.0
4.97
5.66
5.75
5.1
3.86
2.4
1.13
0.39
0.27
0.7
1.46
2.33
3.14
3.75
4.08
4.0
3.42
2.33
0.95
-0.2
-0.46
0.81
3.83
8.36
13.61
18.61
22.42
24.46
24.57
22.94
19.97
16.14
11.92
7.74
3.95
0.77
-1.73
-3.69
-5.3
-6.78
-8.3
-9.91
-11.54
-13.0
-14.07
-14.49
-14.15
-13.08
-11.57
-10.1
-9.21
-9.36
-10.74
-13.19
-16.22
-19.04
-20.8
-20.77
-18.52
-14.11
-7.99
-0.96
6.17
12.75
18.44
23.26
27.37
30.96
34.08
36.62
38.41
39.36
39.45
38.77
37.39
35.34
32.56
28.98
24.65
19.66
14.27
8.68
3.05
-2.51
-7.94
-13.08
-17.77
-21.85
-25.28
-28.2
-30.85
-33.44
-35.96
-38.04
-39.08
-38.4
-35.58
-30.67
-24.25
-17.21
-10.52
-4.9
-0.68
2.13
3.77
4.5
4.57
4.25
3.85
3.72
4.22
5.52
7.54
9.96
12.29
14.1
15.16
15.54
15.47
15.24
15.01
14.77
14.44
13.92
13.16
12.17
10.86
9.04
6.45
2.91
-1.49
-6.37
-11.09
-14.94
-17.41
-18.32
-17.88
-16.55
-14.91
-13.4
-12.28
-11.57
-11.18
-11.01
-11.03
-11.25
-11.64
-12.09
-12.34
-12.09
-11.17
-9.62
-7.74
-5.99
-4.78
-4.33
-4.61
-5.37
-6.31
-7.17
-7.8
-8.14
-8.23
-8.14
-7.99
-7.92
-8.03
-8.3
-8.51
-8.28
-7.13
-4.75
-1.09
3.56
8.6
13.4
17.43
20.36
22.12
22.78
22.48
21.35
19.43
16.78
13.48
9.72
5.76
1.89
-1.71
-4.97
-7.94
-10.7
-13.27
-15.57
-17.48
-18.91
-19.86
-20.5
-21.07
-21.82
-22.88
-24.22
-25.7
-27.09
-28.14
-28.6
-28.28
-26.99
-24.68
-21.43
-17.45
-13.06
-8.54
-4.08
0.31
4.65
8.91
12.94
16.42
19.08
20.79
21.73
22.26
22.82
23.7
24.93
26.34
27.62
28.55
29.02
29.12
28.95
28.57
27.89
26.69
24.69
21.71
17.64
12.44
6.17
-1.05
-8.93
-16.85
-23.94
-29.23
-32.01
-32.15
-30.19
-27.2
-24.27
-22.12
-20.87
-20.13
-19.34
-18.09
-16.26
-14.02
-11.64
-9.3
-7.07
-4.97
-3.1
-1.62
-0.71
-0.48
-0.84
-1.52
-2.11
-2.2
-1.53
-0.13
1.68
3.39
4.48
4.64
3.89
2.52
1.07
0.03
-0.2
0.6
2.45
5.19
8.5
11.95
15.01
17.27
18.51
18.73
18.11
16.85
14.99
12.44
9.01
4.64
-0.45
-5.83
-10.95
-15.35
-18.84
-21.52
-23.67
-25.53
-27.26
-28.83
-30.11
-30.96
-31.32
-31.21
-30.75
-30.12
-29.48
-28.91
-28.29
-27.37
-25.76
-23.12
-19.29
-14.34
-8.6
-2.5
3.59
9.48
15.12
20.55
25.79
30.74
35.24
39.08
42.15
44.46
46.08
47.1
47.51
47.22
46.03
43.81
40.55
36.42
31.75
26.81
21.78
16.66
11.26
5.31
-1.39
-8.9
-17.1
-25.66
-34.09
-41.79
-48.15
-52.62
-54.87
-54.83
-52.75
-49.22
-44.93
-40.51
-36.27
-32.22
-28.04
-23.37
-18.01
-12.05
-5.9
-0.08
4.97
9.04
12.24
14.84
17.15
19.35
21.48
23.47
25.2
26.67
27.93
29.09
30.2
31.23
32.02
32.31
31.84
30.47
28.18
25.1
21.49
17.75
14.25
11.31
9.1
7.63
6.73
6.15
5.6
4.87
3.81
2.39
0.63
-1.36
-3.44
-5.46
-7.33
-8.99
-10.5
-11.96
-13.48
-15.1
-16.82
-18.56
-20.24
-21.82
-23.21
-24.33
-25.0
-25.04
-24.33
-22.86
-20.83
-18.62
-16.71
-15.49
-15.19
-15.75
-16.81
-17.78
-17.94
-16.63
-13.37
-8.01
-0.79
7.72
16.75
25.45
33.15
39.4
44.0
46.93
48.28
48.13
46.58
43.78
39.93
35.3
30.2
24.87
19.43
13.92
8.27
2.52
-3.22
-8.65
-13.45
-17.4
-20.45
-22.8
-24.8
-26.85
-29.3
-32.3
-35.84
-39.66
-43.29
-46.05
-47.21
-46.18
-42.69
-36.95
-29.63
-21.64
-13.85
-6.85
-0.81
4.41
9.05
13.29
17.13
20.42
23.04
24.94
26.25
27.23
28.18
29.26
30.41
31.35
31.67
31.04
29.31
26.61
23.25
19.57
15.74
11.73
7.36
2.44
-3.1
-9.18
-15.55
-21.89
-27.78
-32.71
-36.13
-37.6
-36.91
-34.27
-30.27
-25.68
-21.26
-17.5
-14.54
-12.23
-10.36
-8.72
-7.24
-5.9
-4.66
-3.48
-2.25
-0.94
0.43
1.82
3.2
4.59
6.02
7.55
9.18
10.82
12.39
13.8
15.06
16.18
17.15
17.91
18.31
18.18
17.42
16.05
14.27
12.42
10.91
10.17
10.43
11.7
13.68
15.85
17.63
18.54
18.37
17.17
15.11
12.4
9.15
5.45
1.41
-2.74
-6.71
-10.16
-12.92
-15.01
-16.61
-17.98
-19.3
-20.58
-21.67
-22.32
-22.34
-21.62
-20.31
-18.7
-17.27
-16.51
-16.77
-18.11
-20.24
-22.49
-24.03
-24.07
-22.06
-17.86
-11.72
-4.24
3.82
11.69
18.75
24.71
29.53
33.41
36.55
39.07
40.92
41.87
41.68
40.2
37.53
33.88
29.57
24.85
19.85
14.64
9.25
3.87
-1.26
-5.84
-9.67
-12.7
-15.11
-17.26
-19.52
-22.22
-25.48
-29.16
-32.83
-35.84
-37.48
-37.25
-34.97
-30.87
-25.52
-19.54
-13.48
-7.68
-2.31
2.51
6.65
10.0
12.54
14.44
15.99
17.52
19.18
20.88
22.39
23.44
23.86
23.66
22.95
21.92
20.72
19.51
18.39
17.47
16.76
16.12
15.2
13.56
10.8
6.69
1.39
-4.65
-10.73
-16.06
-19.97
-22.04
-22.2
-20.73
-18.19
-15.26
-12.55
-10.43
-8.94
-7.89
-7.05
-6.29
-5.71
-5.52
-5.89
-6.78
-7.87
-8.77
-9.1
-8.73
-7.85
-6.83
-6.01
-5.59
-5.51
-5.56
-5.47
-5.07
-4.33
-3.39
-2.47
-1.8
-1.57
-1.83
-2.52
-3.35
-3.91
-3.68
-2.19
0.9
5.62
11.68
18.49
25.32
31.43
36.24
39.45
41.0
41.04
39.79
37.46
34.21
30.16
25.54
20.6
15.64
10.87
6.37
2.09
-2.03
-5.95
-9.5
-12.45
-14.7
-16.31
-17.59
-18.95
-20.7
-22.99
-25.72
-28.68
-31.57
-34.11
-36.0
-36.91
-36.5
-34.57
-31.11
-26.39
-20.86
-15.07
-9.45
-4.25
0.49
4.86
8.92
12.65
15.99
18.86
21.22
23.15
24.77
26.22
27.57
28.74
29.53
29.69
29.04
27.57
25.57
23.49
21.8
20.73
20.18
19.7
18.63
16.43
12.81
7.91
2.24
-3.46
-8.38
-11.91
-13.71
-13.82
-12.62
-10.7
-8.68
-7.02
-6.01
-5.67
-5.86
-6.37
-6.96
-7.42
-7.64
-7.6
-7.35
-7.02
-6.71
-6.47
-6.31
-6.17
-6.01
-5.71
-5.16
-4.24
-2.88
-1.15
0.74
2.47
3.72
4.31
4.22
3.58
2.59
1.48
0.48
-0.11
0.01
1.12
3.31
6.43
10.0
13.39
15.96
17.24
17.04
15.37
12.45
8.62
4.25
-0.2
-4.25
-7.47
-9.64
-10.79
-11.25
-11.53
-12.09
-13.21
-14.88
-16.86
-18.8
-20.37
-21.37
-21.78
-21.71
-21.38
-21.1
-21.18
-21.85
-23.1
-24.63
-25.82
-25.95
-24.33
-20.63
-14.97
-7.89
-0.16
7.49
14.54
20.7
25.9
30.12
33.31
35.44
36.45
36.43
35.55
34.01
32.02
29.68
26.98
23.87
20.3
16.28
11.91
7.3
2.55
-2.24
-7.03
-11.78
-16.45
-20.98
-25.31
-29.35
-32.98
-36.04
-38.27
-39.33
-38.95
-36.98
-33.54
-28.99
-23.85
-18.64
-13.71
-9.23
-5.24
-1.76
1.1
3.19
4.42
4.88
4.87
4.82
5.14
6.05
7.47
9.13
10.67
11.82
12.51
12.85
13.11
13.53
14.18
14.91
15.38
15.12
13.79
11.24
7.64
3.5
-0.52
-3.71
-5.54
-5.9
-5.04
-3.59
-2.19
-1.34
-1.16
-1.47
-1.96
-2.41
-2.84
-3.5
-4.63
-6.32
-8.38
-10.43
-12.14
-13.35
-14.18
-14.9
-15.74
-16.69
-17.58
-18.14
-18.23
-17.93
-17.48
-17.19
-17.23
-17.59
-18.13
-18.71
-19.23
-19.62
-19.75
-19.35
-17.99
-15.27
-10.97
-5.2
1.57
8.72
15.57
21.6
26.46
29.93
31.84
32.02
30.42
27.22
22.94
18.33
14.3
11.56
10.45
10.77
11.9
12.97
13.15
11.91
9.13
5.07
0.22
-4.86
-9.76
-14.28
-18.49
-22.62
-26.92
-31.52
-36.21
-40.52
-43.7
-44.97
-43.78
-40.03
-34.08
-26.68
-18.71
-10.93
-3.89
2.18
7.2
11.24
14.44
17.01
19.25
21.43
23.77
26.34
29.05
31.71
34.13
36.2
37.92
39.38
40.7
41.97
43.19
44.26
45.06
45.34
44.91
43.58
41.26
38.02
34.02
29.54
24.86
20.26
15.89
11.87
8.2
4.89
2.0
-0.41
-2.28
-3.7
-4.9
-6.31
-8.4
-11.48
-15.56
-20.26
-24.95
-28.94
-31.76
-33.25
-33.61
-33.16
-32.22
-31.0
-29.53
-27.78
-25.71
-23.34
-20.75
-18.05
-15.34
-12.76
-10.43
-8.45
-6.86
-5.53
-4.16
-2.32
0.37
4.09
8.67
13.66
18.52
22.84
26.49
29.54
32.13
34.21
35.52
35.64
34.26
31.35
27.25
22.57
17.91
13.68
9.92
6.42
2.82
-1.09
-5.32
-9.62
-13.64
-17.15
-20.1
-22.68
-25.15
-27.71
-30.33
-32.88
-35.14
-36.92
-38.1
-38.57
-38.13
-36.53
-33.52
-29.0
-23.07
-16.13
-8.67
-1.19
5.95
12.51
18.36
23.4
27.53
30.68
32.92
34.46
35.59
36.6
37.54
38.28
38.45
37.71
35.88
33.06
29.6
25.99
22.57
19.49
16.55
13.42
9.75
5.32
0.22
-5.18
-10.28
-14.32
-16.55
-16.46
-13.86
-9.01
-2.66
4.1
10.12
14.46
16.61
16.53
14.52
11.05
6.6
1.59
-3.6
-8.63
-13.19
-17.04
-20.04
-22.18
-23.54
-24.18
-24.21
-23.69
-22.72
-21.41
-19.89
-18.25
-16.54
-14.8
-13.14
-11.75
-10.86
-10.64
-11.0
-11.55
-11.67
-10.72
-8.36
-4.69
-0.26
4.15
7.85
10.4
11.77
12.11
11.63
10.4
8.34
5.36
1.5
-3.02
-7.76
-12.23
-16.05
-19.06
-21.37
-23.28
-25.2
-27.44
-30.13
-33.13
-36.16
-38.88
-41.09
-42.71
-43.84
-44.63
-45.2
-45.65
-46.0
-46.21
-46.14
-45.52
-44.0
-41.3
-37.31
-32.24
-26.53
-20.69
-15.14
-10.03
-5.28
-0.73
3.78
8.34
12.93
17.53
22.04
26.24
29.88
32.68
34.53
35.53
36.04
36.52
37.36
38.79
40.84
43.45
46.51
49.9
53.38
56.53
58.68
59.13
57.38
53.47
48.06
42.29
37.4
34.24
33.02
33.31
34.23
34.94
34.83
33.75
31.81
29.27
26.35
23.14
19.66
15.98
12.29
8.88
6.11
4.28
3.48
3.57
4.21
5.0
5.64
6.04
6.24
6.34
6.37
6.22
5.73
4.82
3.54
2.1
0.69
-0.6
-1.85
-3.18
-4.6
-5.9
-6.72
-6.7
-5.67
-3.74
-1.22
1.62
4.63
7.81
11.18
14.58
17.67
20.01
21.27
21.4
20.57
19.09
17.21
15.06
12.63
9.91
6.93
3.73
0.36
-3.18
-6.92
-10.82
-14.76
-18.49
-21.74
-24.29
-26.06
-27.19
-27.91
-28.45
-28.88
-28.98
-28.33
-26.54
-23.45
-19.3
-14.67
-10.21
-6.41
-3.39
-0.95
1.2
3.25
5.1
6.5
7.2
7.1
6.35
5.22
4.02
2.9
1.83
0.66
-0.78
-2.54
-4.46
-6.29
-7.75
-8.67
-9.08
-9.14
-9.1
-9.16
-9.38
-9.76
-10.19
-10.53
-10.66
-10.41
-9.64
-8.23
-6.16
-3.59
-0.84
1.67
3.55
4.51
4.45
3.47
1.83
-0.14
-2.11
-3.83
-5.13
-5.91
-6.15
-5.89
-5.27
-4.49
-3.75
-3.18
-2.79
-2.45
-1.99
-1.25
-0.19
1.08
2.38
3.48
4.16
4.25
3.67
2.5
0.96
-0.56
-1.57
-1.62
-0.39
2.13
5.72
9.96
14.46
18.96
23.32
27.54
31.57
35.26
38.31
40.34
41.0
40.17
38.0
34.82
31.04
26.92
22.54
17.74
12.32
6.1
-0.93
-8.58
-16.54
-24.38
-31.7
-38.18
-43.61
-47.94
-51.22
-53.56
-55.04
-55.69
-55.4
-54.0
-51.37
-47.45
-42.39
-36.43
-29.87
-23.01
-16.09
-9.34
-2.99
2.7
7.49
11.13
13.5
14.54
14.39
13.24
11.36
9.01
6.36
3.53
0.55
-2.55
-5.74
-8.97
-12.16
-15.27
-18.29
-21.32
-24.48
-27.92
-31.69
-35.72
-39.75
-43.34
-45.98
-47.23
-46.82
-44.81
-41.52
-37.49
-33.3
-29.36
-25.87
-22.79
-19.94
-17.13
-14.26
-11.34
-8.45
-5.61
-2.75
0.34
3.88
7.96
12.46
17.01
21.15
24.52
27.02
28.8
30.17
31.4
32.55
33.48
33.88
33.54
32.36
30.44
27.99
25.18
22.17
19.1
16.21
13.74
11.94
10.91
10.51
10.38
10.04
9.14
7.55
5.38
2.85
0.18
-2.56
-5.46
-8.63
-12.12
-15.88
-19.72
-23.48
-27.12
-30.69
-34.3
-37.98
-41.53
-44.66
-47.03
-48.48
-49.02
-48.81
-48.02
-46.71
-44.84
-42.28
-38.97
-34.91
-30.16
-24.78
-18.87
-12.52
-5.87
0.88
7.5
13.86
19.93
25.8
31.55
37.21
42.66
47.67
51.95
55.32
57.8
59.68
61.43
63.59
66.49
70.11
74.04
77.63
80.15
80.98
79.74
76.32
70.82
63.48
54.68
44.9
34.65
24.4
14.5
5.13
-3.63
-11.68
-18.85
-24.94
-29.76
-33.27
-35.58
-36.91
-37.42
-37.19
-36.14
-34.19
-31.36
-27.84
-23.95
-20.01
-16.19
-12.47
-8.75
-4.9
-0.94
2.99
6.65
9.82
12.4
14.34
15.66
16.37
16.42
15.74
14.25
11.94
8.88
5.23
1.2
-2.98
-7.13
-11.09
-14.77
-18.14
-21.19
-24.02
-26.68
-29.24
-31.71
-34.0
-35.99
-37.6
-38.87
-40.0
-41.24
-42.78
-44.52
-46.06
-46.78
-46.09
-43.65
-39.56
-34.27
-28.39
-22.54
-17.13
-12.33
-8.15
-4.48
-1.18
1.92
5.01
8.24
11.65
15.12
18.27
20.64
21.73
21.37
19.77
17.62
15.85
15.29
16.38
18.94
22.35
25.75
28.38
29.79
29.83
28.52
25.9
22.0
16.87
10.76
4.11
-2.47
-8.36
-13.12
-16.61
-18.99
-20.61
-21.88
-23.14
-24.58
-26.26
-28.16
-30.23
-32.41
-34.59
-36.61
-38.35
-39.7
-40.62
-41.05
-40.86
-39.73
-37.19
-32.86
-26.6
-18.66
-9.68
-0.49
8.2
15.98
22.76
28.63
33.68
37.88
41.12
43.32
44.54
45.06
45.17
45.1
44.8
44.05
42.54
40.09
36.81
33.01
29.08
25.29
21.63
17.8
13.36
7.91
1.24
-6.55
-15.13
-24.02
-32.72
-40.67
-47.37
-52.35
-55.24
-55.92
-54.54
-51.54
-47.54
-43.15
-38.76
-34.52
-30.35
-26.13
-21.8
-17.4
-13.14
-9.16
-5.54
-2.28
0.67
3.31
5.52
7.17
8.18
8.62
8.76
8.98
9.56
10.68
12.22
13.87
15.26
16.16
16.54
16.72
17.29
19.0
22.57
28.46
36.69
46.69
57.33
67.08
74.39
78.04
77.43
72.75
64.84
54.95
44.36
34.12
24.93
17.07
10.5
4.98
0.12
-4.61
-9.7
-15.55
-22.28
-29.59
-36.79
-43.02
-47.45
-49.65
-49.68
-48.03
-45.41
-42.47
-39.65
-37.15
-35.01
-33.21
-31.66
-30.15
-28.3
-25.58
-21.49
-15.75
-8.45
-0.07
8.7
17.16
24.8
31.34
36.68
40.79
43.64
45.19
45.52
44.82
43.45
41.81
40.22
38.81
37.42
35.66
33.01
29.01
23.4
16.27
7.98
-0.86
-9.62
-17.83
-25.32
-32.16
-38.63
-44.99
-51.3
-57.3
-62.42
-65.89
-66.99
-65.27
-60.75
-53.85
-45.32
-35.97
-26.47
-17.3
-8.76
-1.11
5.45
10.72
14.67
17.43
19.36
20.92
22.55
24.44
26.55
28.6
30.2
31.12
31.34
31.16
30.97
31.09
31.57
32.15
32.35
31.69
29.86
26.8
22.69
17.86
12.76
7.88
3.71
0.61
-1.31
-2.24
-2.6
-2.89
-3.45
-4.4
-5.58
-6.77
-7.8
-8.66
-9.51
-10.53
-11.87
-13.57
-15.52
-17.53
-19.38
-20.88
-21.89
-22.35
-22.26
-21.64
-20.5
-18.88
-16.81
-14.42
-11.93
-9.63
-7.85
-6.84
-6.7
-7.31
-8.31
-9.11
-9.03
-7.43
-3.89
1.61
8.67
16.6
24.61
32.04
38.52
43.88
48.07
51.04
52.68
52.86
51.6
49.05
45.53
41.36
36.83
32.04
26.92
21.39
15.38
8.99
2.47
-3.83
-9.59
-14.61
-18.93
-22.76
-26.39
-30.08
-33.95
-37.94
-41.85
-45.33
-47.98
-49.37
-49.15
-47.09
-43.23
-37.86
-31.47
-24.62
-17.74
-11.09
-4.8
1.06
6.38
10.96
14.62
17.31
19.16
20.51
21.75
23.15
24.75
26.38
27.78
28.72
29.18
29.27
29.23
29.19
29.13
28.82
27.89
25.91
22.55
17.68
11.4
4.12
-3.47
-10.52
-16.18
-19.8
-21.2
-20.64
-18.82
-16.53
-14.4
-12.74
-11.47
-10.4
-9.4
-8.58
-8.22
-8.56
-9.61
-11.08
-12.48
-13.33
-13.4
-12.79
-11.82
-10.84
-10.06
-9.44
-8.81
-7.97
-6.85
-5.56
-4.3
-3.3
-2.7
-2.51
-2.62
-2.77
-2.55
-1.52
0.74
4.49
9.7
16.03
22.96
29.87
36.23
41.62
45.77
48.46
49.58
49.1
47.15
43.98
39.9
35.21
30.15
24.91
19.59
14.28
9.0
3.76
-1.41
-6.47
-11.26
-15.59
-19.24
-22.16
-24.44
-26.39
-28.48
-31.09
-34.4
-38.18
-41.78
-44.27
-44.76
-42.7
-38.15
-31.72
-24.4
-17.14
-10.61
-5.06
-0.35
3.78
7.54
11.0
14.05
16.57
18.53
20.06
21.39
22.69
24.03
25.24
26.11
26.44
26.23
25.67
25.04
24.51
24.09
23.49
22.31
20.19
16.91
12.51
7.21
1.35
-4.64
-10.3
-15.12
-18.61
-20.42
-20.47
-18.99
-16.52
-13.72
-11.18
-9.2
-7.86
-7.01
-6.5
-6.3
-6.42
-6.88
-7.53
-8.07
-8.1
-7.36
-5.87
-3.99
-2.24
-1.11
-0.78
-1.08
-1.53
-1.63
-1.09
0.12
1.73
3.34
4.54
5.01
4.61
3.36
1.51
-0.47
-1.92
-2.15
-0.65
2.73
7.72
13.67
19.78
25.31
29.76
32.9
34.68
35.21
34.56
32.83
30.17
26.82
23.09
19.28
15.59
11.99
8.3
4.29
-0.14
-4.84
-9.41
-13.41
-16.52
-18.8
-20.58
-22.34
-24.48
-27.12
-30.13
-33.17
-35.93
-38.12
-39.47
-39.66
-38.35
-35.26
-30.43
-24.28
-17.59
-11.22
-5.77
-1.39
2.21
5.46
8.67
11.87
14.8
17.18
18.86
19.96
20.77
21.58
22.53
23.55
24.46
25.06
25.27
25.14
24.73
24.03
22.92
21.23
18.79
15.54
11.52
6.9
1.89
-3.26
-8.19
-12.51
-15.81
-17.77
-18.33
-17.67
-16.2
-14.36
-12.52
-10.85
-9.44
-8.27
-7.36
-6.77
-6.48
-6.46
-6.55
-6.63
-6.56
-6.34
-6.03
-5.77
-5.69
-5.9
-6.45
-7.28
-8.2
-8.97
-9.29
-8.99
-8.07
-6.72
-5.3
-4.2
-3.73
-3.97
-4.71
-5.45
-5.53
-4.31
-1.4
3.18
9.04
15.54
22.04
28.04
33.21
37.35
40.27
41.73
41.57
39.81
36.71
32.75
28.4
24.01
19.72
15.48
11.17
6.72
2.13
-2.47
-6.88
-10.91
-14.44
-17.38
-19.8
-21.81
-23.6
-25.38
-27.37
-29.66
-32.23
-34.86
-37.22
-38.88
-39.47
-38.71
-36.55
-33.15
-28.84
-24.01
-19.05
-14.27
-9.84
-5.79
-2.11
1.3
4.49
7.45
10.18
12.63
14.78
16.65
18.25
19.62
20.74
21.64
22.33
22.87
23.32
23.7
23.91
23.72
22.83
21.01
18.18
14.41
9.89
4.83
-0.56
-6.01
-11.13
-15.43
-18.4
-19.71
-19.38
-17.81
-15.63
-13.46
-11.69
-10.41
-9.46
-8.7
-8.0
-7.39
-6.92
-6.58
-6.25
-5.76
-5.0
-4.01
-3.05
-2.47
-2.58
-3.42
-4.73
-6.03
-6.86
-6.97
-6.4
-5.38
-4.23
-3.1
-2.11
-1.29
-0.78
-0.67
-0.97
-1.39
-1.36
-0.25
2.35
6.39
11.28
16.19
20.32
23.25
24.94
25.62
25.53
24.79
23.37
21.21
18.35
14.98
11.37
7.78
4.41
1.33
-1.48
-4.14
-6.76
-9.43
-12.17
-14.88
-17.37
-19.46
-20.99
-21.98
-22.54
-22.92
-23.35
-24.02
-25.01
-26.22
-27.42
-28.21
-28.15
-26.84
-24.06
-19.89
-14.68
-8.93
-3.13
2.3
7.18
11.47
15.23
18.54
21.42
23.84
25.72
26.99
27.67
27.85
27.64
27.15
26.4
25.33
23.84
21.86
19.39
16.49
13.26
9.81
6.18
2.35
-1.69
-6.0
-10.61
-15.46
-20.4
-25.07
-29.0
-31.69
-32.78
-32.21
-30.25
-27.41
-24.25
-21.16
-18.34
-15.7
-13.09
-10.42
-7.75
-5.3
-3.29
-1.82
-0.86
-0.25
0.22
0.71
1.32
2.06
2.88
3.75
4.65
5.62
6.72
8.06
9.66
11.51
13.47
15.27
16.61
17.22
16.98
16.01
14.6
13.22
12.29
12.12
12.72
13.82
14.98
15.75
15.82
15.15
13.86
12.15
10.17
7.93
5.37
2.42
-0.88
-4.32
-7.66
-10.68
-13.35
-15.83
-18.37
-21.22
-24.44
-27.87
-31.2
-34.02
-35.99
-36.9
-36.72
-35.56
-33.72
-31.63
-29.73
-28.34
-27.5
-26.89
-25.9
-23.84
-20.24
-15.0
-8.46
-1.23
5.98
12.61
18.38
23.28
27.42
30.99
34.09
36.72
38.86
40.42
41.4
41.79
41.6
40.78
39.21
36.76
33.36
29.06
24.06
18.73
13.44
8.53
4.19
0.42
-2.92
-6.1
-9.43
-13.15
-17.32
-21.75
-25.99
-29.42
-31.48
-31.83
-30.46
-27.68
-23.96
-19.72
-15.31
-10.95
-6.79
-3.09
-0.08
2.01
3.12
3.4
3.2
2.97
3.13
3.86
5.13
6.74
8.39
9.86
11.08
12.08
13.01
13.97
15.04
16.19
17.34
18.31
18.86
18.72
17.65
15.56
12.6
9.23
6.06
3.72
2.58
2.64
3.53
4.66
5.48
5.62
5.03
3.85
2.3
0.52
-1.46
-3.62
-5.96
-8.35
-10.64
-12.65
-14.29
-15.61
-16.77
-17.98
-19.34
-20.84
-22.33
-23.55
-24.25
-24.33
-23.87
-23.15
-22.55
-22.43
-22.97
-24.05
-25.25
-25.94
-25.48
-23.38
-19.49
-14.03
-7.5
-0.52
6.36
12.76
18.5
23.55
27.9
31.57
34.57
36.86
38.47
39.41
39.74
39.45
38.5
36.84
34.38
31.09
27.06
22.44
17.47
12.35
7.2
2.04
-3.18
-8.52
-14.01
-19.58
-25.12
-30.43
-35.27
-39.32
-42.21
-43.59
-43.25
-41.22
-37.75
-33.29
-28.31
-23.21
-18.24
-13.52
-9.15
-5.28
-2.02
0.52
2.34
3.58
4.51
5.41
6.57
8.09
9.94
11.89
13.64
15.0
15.94
16.63
17.38
18.42
19.81
21.33
22.58
23.11
22.53
20.72
17.8
14.13
10.26
6.8
4.29
3.07
3.14
4.23
5.82
7.33
8.26
8.38
7.7
6.43
4.85
3.12
1.27
-0.79
-3.1
-5.6
-8.09
-10.29
-12.02
-13.26
-14.18
-15.02
-15.95
-16.94
-17.77
-18.18
-18.03
-17.39
-16.53
-15.81
-15.52
-15.79
-16.5
-17.35
-17.94
-17.75
-16.32
-13.31
-8.64
-2.51
4.56
11.84
18.63
24.39
28.86
32.04
34.03
34.96
34.9
33.9
32.05
29.53
26.58
23.47
20.36
17.29
14.18
10.84
7.09
2.95
-1.44
-5.73
-9.52
-12.59
-14.95
-16.9
-18.95
-21.54
-24.83
-28.58
-32.18
-34.85
-35.88
-34.91
-32.0
-27.59
-22.36
-16.92
-11.72
-6.95
-2.6
1.4
5.08
8.42
11.33
13.74
15.65
17.1
18.17
18.95
19.5
19.86
20.0
19.92
19.69
19.48
19.44
19.64
19.95
20.01
19.37
17.66
14.75
10.77
6.08
1.09
-3.81
-8.23
-11.77
-14.0
-14.65
-13.67
-11.36
-8.32
-5.22
-2.6
-0.68
0.53
1.21
1.47
1.33
0.75
-0.32
-1.82
-3.56
-5.27
-6.7
-7.65
-8.04
-7.95
-7.5
-6.89
-6.27
-5.71
-5.21
-4.74
-4.24
-3.69
-3.18
-2.88
-3.04
-3.84
-5.28
-7.09
-8.8
-9.81
-9.55
-7.66
-4.11
0.81
6.59
12.56
18.06
22.57
25.71
27.32
27.41
26.19
23.95
21.04
17.75
14.29
10.76
7.16
3.48
-0.27
-4.06
-7.83
-11.49
-14.98
-18.17
-20.92
-23.04
-24.47
-25.35
-25.99
-26.84
-28.28
-30.41
-33.01
-35.54
-37.31
-37.66
-36.14
-32.66
-27.46
-21.07
-14.16
-7.3
-0.93
4.8
9.94
14.61
18.87
22.68
25.9
28.39
30.12
31.24
31.97
32.53
33.04
33.41
33.41
32.8
31.44
29.34
26.6
23.39
19.83
15.89
11.51
6.58
1.08
-4.93
-11.25
-17.53
-23.35
-28.19
-31.61
-33.32
-33.27
-31.71
-29.08
-25.89
-22.6
-19.5
-16.74
-14.33
-12.26
-10.51
-9.06
-7.91
-6.98
-6.17
-5.31
-4.29
-3.05
-1.64
-0.18
1.13
2.13
2.82
3.34
3.98
5.01
6.57
8.56
10.65
12.45
13.68
14.22
14.21
13.93
13.72
13.88
14.61
16.01
18.01
20.44
22.97
25.25
26.93
27.79
27.68
26.57
24.48
21.46
17.63
13.21
8.48
3.79
-0.57
-4.39
-7.65
-10.48
-13.11
-15.76
-18.52
-21.29
-23.83
-25.83
-27.15
-27.83
-28.16
-28.58
-29.43
-30.87
-32.73
-34.58
-35.86
-36.02
-34.67
-31.64
-27.01
-21.06
-14.28
-7.22
-0.35
6.01
11.73
16.87
21.55
25.85
29.7
32.91
35.25
36.53
36.72
35.88
34.17
31.71
28.61
24.97
20.89
16.52
12.04
7.55
3.09
-1.45
-6.25
-11.43
-16.99
-22.75
-28.32
-33.21
-36.89
-38.93
-39.13
-37.55
-34.49
-30.42
-25.84
-21.16
-16.58
-12.18
-7.95
-3.89
-0.02
3.58
6.89
9.9
12.62
14.98
16.87
18.2
18.94
19.24
19.37
19.62
20.21
21.23
22.61
24.18
25.64
26.6
26.65
25.45
22.91
19.24
14.96
10.74
7.14
4.39
2.34
0.54
-1.45
-3.86
-6.58
-9.25
-11.47
-13.01
-13.91
-14.41
-14.79
-15.25
-15.8
-16.34
-16.76
-17.01
-17.11
-17.14
-17.14
-17.07
-16.83
-16.26
-15.2
-13.58
-11.4
-8.8
-6.03
-3.41
-1.24
0.21
0.78
0.49
-0.48
-1.75
-2.89
-3.42
-2.99
-1.48
1.03
4.28
8.02
12.1
16.49
21.2
26.1
30.75
34.36
35.99
34.78
30.39
23.18
14.18
4.82
-3.59
-10.22
-15.0
-18.45
-21.41
-24.6
-28.36
-32.6
-36.9
-40.73
-43.69
-45.47
-45.97
-45.16
-43.15
-40.2
-36.7
-33.12
-29.81
-26.95
-24.4
-21.87
-18.99
-15.47
-11.17
-6.02
-0.02
6.83
14.4
22.41
30.45
38.1
45.13
51.64
58.02
64.61
71.48
78.0
82.95
84.78
82.11
74.26
61.58
45.34
27.44
9.88
-5.76
-18.58
-28.44
-35.79
-41.37
-45.87
-49.67
-52.77
-54.76
-55.0
-52.9
-48.14
-40.91
-31.88
-22.11
-12.77
-4.92
0.84
4.4
6.14
6.75
6.96
7.37
8.24
9.55
11.08
12.51
13.6
14.23
14.46
14.55
14.92
16.09
18.58
22.75
28.56
35.48
42.38
47.73
49.98
48.01
41.5
31.1
18.22
4.62
-8.07
-18.66
-26.54
-31.54
-33.85
-33.83
-31.98
-28.87
-25.12
-21.27
-17.7
-14.53
-11.65
-8.82
-5.7
-2.06
2.22
7.05
12.09
16.85
20.79
23.56
25.07
25.62
25.73
25.95
26.58
27.5
28.17
27.87
25.91
21.97
16.17
9.02
1.32
-6.02
-12.06
-15.98
-17.27
-15.89
-12.5
-8.32
-4.83
-3.23
-4.02
-6.8
-10.53
-14.01
-16.37
-17.39
-17.4
-16.97
-16.64
-16.69
-17.14
-17.9
-18.91
-20.08
-21.25
-22.11
-22.15
-20.82
-17.76
-13.06
-7.34
-1.62
2.97
5.6
6.01
4.56
2.03
-0.68
-2.8
-3.86
-3.65
-2.1
0.72
4.6
9.2
14.08
18.83
23.3
27.6
32.05
36.89
42.03
46.9
50.6
52.2
51.11
47.28
41.22
33.76
25.87
18.31
11.62
5.99
1.41
-2.3
-5.37
-7.99
-10.26
-12.19
-13.72
-14.79
-15.37
-15.4
-14.78
-13.28
-10.51
-6.11
0.13
8.06
17.11
26.48
35.44
43.61
51.16
58.66
66.73
75.55
84.71
93.23
99.91
103.84
104.74
103.03
99.73
95.95
92.51
89.64
87.02
84.13
80.68
76.85
73.23
70.2
67.54
64.03
57.77
46.77
29.58
5.35
-26.6
-67.12
-116.7
-174.22
-235.54
-293.19
-337.97
-361.88
-360.98
-336.61
-294.46
-242.05
-186.27
-132.04
-82.63
-40.45
-7.65
14.31
25.53
28.12
25.67
21.99
19.75
19.88
21.98
24.92
27.7
29.75
30.94
31.32
31.04
30.29
29.25
27.97
26.38
24.32
21.67
18.62
15.71
13.63
12.93
13.64
15.12
16.31
16.18
14.21
10.64
6.24
1.97
-1.46
-3.91
-5.63
-7.08
-8.57
-10.18
-11.82
-13.35
-14.79
-16.21
-17.75
-19.34
-20.73
-21.52
-21.38
-20.16
-17.94
-15.06
-11.91
-8.94
-6.54
-5.05
-4.6
-5.05
-5.93
-6.45
-5.82
-3.44
0.8
6.51
12.97
19.3
24.77
28.88
31.42
32.41
32.01
30.48
28.19
25.6
23.21
21.44
20.53
20.32
20.3
19.65
17.58
13.63
7.92
1.14
-5.74
-11.79
-16.58
-20.22
-23.24
-26.29
-29.85
-34.05
-38.69
-43.41
-47.72
-51.12
-53.06
-52.98
-50.47
-45.39
-38.12
-29.4
-20.27
-11.68
-4.3
1.63
6.22
9.74
12.49
14.69
16.5
18.03
19.43
20.77
22.04
23.08
23.55
23.15
21.74
19.52
17.09
15.38
15.28
17.35
21.45
26.62
31.32
33.86
32.94
28.15
20.14
10.38
0.68
-7.38
-12.94
-15.88
-16.76
-16.38
-15.48
-14.55
-13.83
-13.38
-13.15
-13.03
-12.82
-12.2
-10.86
-8.53
-5.25
-1.32
2.67
6.11
8.58
9.98
10.61
10.99
11.65
12.96
15.03
17.68
20.5
22.95
24.4
24.38
22.63
19.3
14.96
10.47
6.72
4.37
3.67
4.42
6.13
8.16
9.87
10.74
10.37
8.62
5.61
1.68
-2.68
-7.0
-11.01
-14.6
-17.84
-20.8
-23.5
-25.9
-27.9
-29.44
-30.48
-30.95
-30.79
-29.91
-28.29
-26.02
-23.35
-20.67
-18.39
-16.87
-16.22
-16.26
-16.44
-15.95
-13.98
-10.0
-3.9
3.9
12.66
21.49
29.63
36.51
41.76
45.12
46.42
45.63
42.93
38.78
33.87
28.92
24.43
20.55
17.07
13.54
9.53
4.93
-0.07
-4.98
-9.33
-12.84
-15.6
-18.02
-20.56
-23.56
-27.05
-30.75
-34.21
-36.96
-38.6
-38.9
-37.7
-34.96
-30.73
-25.24
-18.83
-11.98
-5.19
1.12
6.69
11.43
15.38
18.65
21.34
23.54
25.39
27.02
28.58
30.14
31.61
32.77
33.23
32.61
30.66
27.36
22.95
17.86
12.53
7.26
2.12
-2.97
-8.16
-13.48
-18.69
-23.34
-26.85
-28.72
-28.73
-27.03
-24.1
-20.55
-16.96
-13.72
-10.93
-8.59
-6.66
-5.19
-4.22
-3.71
-3.41
-2.91
-1.76
0.29
3.15
6.35
9.31
11.56
12.98
13.79
14.47
15.42
16.81
18.53
20.18
21.31
21.53
20.61
18.58
15.66
12.32
9.14
6.66
5.2
4.75
4.97
5.35
5.44
4.96
3.9
2.39
0.61
-1.28
-3.12
-4.76
-6.02
-6.78
-7.05
-7.03
-7.01
-7.32
-8.16
-9.5
-11.17
-12.9
-14.44
-15.63
-16.4
-16.74
-16.75
-16.54
-16.26
-16.04
-15.85
-15.49
-14.62
-12.82
-9.78
-5.39
0.16
6.43
12.84
18.84
24.06
28.32
31.62
33.97
35.32
35.6
34.71
32.67
29.7
26.11
22.25
18.31
14.29
10.04
5.41
0.39
-4.87
-10.07
-14.91
-19.2
-22.89
-26.13
-29.11
-32.0
-34.88
-37.64
-40.0
-41.57
-41.94
-40.81
-38.16
-34.18
-29.27
-23.82
-18.13
-12.3
-6.34
-0.24
5.8
11.38
15.99
19.23
21.02
21.62
21.55
21.38
21.51
22.03
22.78
23.5
23.91
23.81
23.13
21.86
20.1
18.04
15.93
14.09
12.78
12.07
11.78
11.55
10.89
9.37
6.81
3.3
-0.86
-5.19
-9.23
-12.58
-15.0
-16.39
-16.84
-16.57
-15.88
-15.06
-14.32
-13.69
-13.09
-12.37
-11.37
-9.98
-8.13
-5.75
-2.81
0.64
4.39
8.04
11.09
13.1
13.81
13.26
11.71
9.62
7.54
6.01
5.51
6.31
8.47
11.71
15.47
19.07
21.83
23.33
23.44
22.36
20.44
18.05
15.45
12.71
9.72
6.27
2.21
-2.46
-7.51
-12.58
-17.26
-21.23
-24.37
-26.72
-28.48
-29.87
-31.11
-32.35
-33.67
-35.12
-36.6
-37.91
-38.67
-38.35
-36.45
-32.63
-26.96
-19.89
-12.17
-4.59
2.26
8.1
12.98
17.11
20.71
23.93
26.78
29.28
31.41
33.12
34.36
35.0
34.88
33.89
32.02
29.38
26.22
22.78
19.23
15.59
11.69
7.24
1.94
-4.36
-11.49
-18.93
-25.84
-31.28
-34.47
-35.04
-33.15
-29.45
-24.84
-20.16
-15.93
-12.34
-9.27
-6.51
-3.94
-1.55
0.6
2.47
4.06
5.46
6.7
7.76
8.54
8.91
8.81
8.34
7.75
7.32
7.3
7.7
8.35
8.95
9.14
8.75
7.83
6.68
5.74
5.46
6.11
7.73
10.17
13.11
16.25
19.35
22.22
24.69
26.53
27.37
26.84
24.65
20.8
15.6
9.63
3.57
-2.0
-6.77
-10.65
-13.74
-16.14
-17.95
-19.2
-19.97
-20.39
-20.64
-20.92
-21.36
-22.04
-22.98
-24.08
-25.12
-25.7
-25.32
-23.45
-19.82
-14.53
-8.1
-1.29
5.2
10.91
15.74
19.85
23.46
26.69
29.5
31.77
33.32
34.08
34.0
33.07
31.35
28.95
26.07
22.98
19.99
17.32
15.01
12.88
10.59
7.67
3.75
-1.38
-7.64
-14.65
-21.7
-27.93
-32.45
-34.66
-34.34
-31.82
-27.79
-23.11
-18.48
-14.35
-10.85
-7.91
-5.47
-3.49
-1.92
-0.66
0.49
1.71
3.11
4.58
5.87
6.74
7.13
7.19
7.2
7.47
8.21
9.45
11.09
12.92
14.68
16.02
16.6
16.21
14.89
12.96
11.03
9.75
9.56
10.54
12.41
14.63
16.61
17.89
18.22
17.54
15.93
13.52
10.52
7.11
3.55
0.07
-3.06
-5.67
-7.7
-9.27
-10.61
-11.99
-13.6
-15.45
-17.39
-19.16
-20.54
-21.46
-22.0
-22.38
-22.83
-23.49
-24.37
-25.25
-25.75
-25.37
-23.65
-20.29
-15.32
-9.1
-2.22
4.69
11.2
17.13
22.5
27.41
31.87
35.78
38.93
41.15
42.34
42.47
41.58
39.75
37.09
33.83
30.24
26.6
23.06
19.52
15.72
11.28
5.94
-0.31
-7.26
-14.53
-21.76
-28.62
-34.81
-39.95
-43.66
-45.57
-45.48
-43.54
-40.17
-35.96
-31.44
-26.97
-22.7
-18.66
-14.86
-11.33
-8.12
-5.21
-2.57
-0.12
2.17
4.32
6.3
8.12
9.75
11.2
12.48
13.58
14.55
15.48
16.44
17.38
18.14
18.37
17.73
16.01
13.24
9.75
6.02
2.6
-0.09
-1.85
-2.7
-2.88
-2.72
-2.55
-2.66
-3.17
-4.05
-5.19
-6.42
-7.59
-8.65
-9.56
-10.41
-11.26
-12.22
-13.38
-14.77
-16.31
-17.86
-19.17
-20.04
-20.32
-20.02
-19.26
-18.26
-17.24
-16.38
-15.79
-15.44
-15.19
-14.71
-13.6
-11.46
-8.06
-3.49
1.95
7.78
13.55
19.0
23.99
28.44
32.15
34.86
36.24
36.13
34.69
32.4
29.94
27.91
26.58
25.81
25.09
23.79
21.33
17.41
12.07
5.6
-1.53
-8.85
-15.96
-22.59
-28.61
-33.99
-38.7
-42.66
-45.68
-47.44
-47.58
-45.88
-42.3
-37.1
-30.74
-23.82
-16.91
-10.44
-4.69
0.23
4.29
7.56
10.15
12.24
14.07
15.82
17.62
19.45
21.12
22.43
23.15
23.23
22.75
21.88
20.82
19.62
18.22
16.37
13.82
10.31
5.77
0.34
-5.61
-11.51
-16.72
-20.67
-23.01
-23.72
-23.1
-21.62
-19.77
-17.9
-16.13
-14.47
-12.89
-11.47
-10.37
-9.74
-9.63
-9.84
-10.07
-9.98
-9.42
-8.42
-7.19
-5.99
-4.92
-3.92
-2.79
-1.35
0.45
2.5
4.53
6.23
7.36
7.85
7.8
7.54
7.51
8.26
10.22
13.54
17.99
22.95
27.57
31.03
32.79
32.75
31.23
28.75
25.87
22.96
20.17
17.46
14.7
11.77
8.61
5.18
1.52
-2.35
-6.32
-10.26
-13.97
-17.21
-19.81
-21.71
-23.05
-24.12
-25.31
-26.94
-29.12
-31.66
-34.1
-35.77
-35.99
-34.31
-30.67
-25.36
-19.04
-12.44
-6.14
-0.49
4.53
9.06
13.28
17.25
20.91
24.14
26.87
29.15
31.06
32.64
33.78
34.28
33.91
32.56
30.27
27.21
23.56
19.46
14.95
10.02
4.68
-1.04
-7.14
-13.58
-20.2
-26.67
-32.42
-36.77
-39.17
-39.4
-37.71
-34.64
-30.85
-26.87
-22.97
-19.19
-15.5
-11.93
-8.56
-5.49
-2.82
-0.56
1.34
2.93
4.26
5.39
6.37
7.27
8.19
9.21
10.4
11.83
13.46
15.2
16.91
18.39
19.46
19.91
19.56
18.29
16.05
13.01
9.52
6.11
3.3
1.46
0.68
0.72
1.25
1.89
2.4
2.63
2.47
1.82
0.53
-1.4
-3.87
-6.54
-9.06
-11.11
-12.61
-13.7
-14.63
-15.63
-16.74
-17.79
-18.5
-18.63
-18.14
-17.18
-16.07
-15.12
-14.62
-14.68
-15.35
-16.54
-17.99
-19.28
-19.77
-18.79
-15.78
-10.61
-3.6
4.52
12.79
20.32
26.45
30.77
33.12
33.57
32.35
29.9
26.86
23.85
21.38
19.59
18.2
16.61
14.17
10.47
5.52
-0.28
-6.27
-11.84
-16.59
-20.44
-23.58
-26.33
-28.97
-31.66
-34.36
-36.85
-38.76
-39.6
-38.93
-36.42
-32.01
-25.96
-18.83
-11.32
-4.07
2.51
8.31
13.44
18.12
22.45
26.37
29.72
32.33
34.17
35.35
36.06
36.41
36.33
35.61
34.01
31.47
28.13
24.34
20.47
16.72
13.02
9.1
4.58
-0.83
-7.21
-14.36
-21.82
-28.82
-34.5
-38.09
-39.15
-37.74
-34.37
-29.83
-24.84
-19.85
-15.0
-10.3
-5.81
-1.7
1.76
4.41
6.28
7.59
8.56
9.29
9.68
9.56
8.85
7.62
6.15
4.75
3.74
3.3
3.51
4.31
5.52
6.81
7.79
8.05
7.3
5.49
2.86
-0.08
-2.67
-4.27
-4.47
-3.16
-0.55
2.9
6.66
10.23
13.21
15.28
16.13
15.5
13.21
9.39
4.48
-0.81
-5.76
-9.9
-13.09
-15.53
-17.45
-18.96
-19.91
-20.04
-19.15
-17.27
-14.75
-12.12
-9.92
-8.59
-8.33
-9.17
-10.87
-12.97
-14.74
-15.32
-13.92
-10.07
-3.85
4.1
12.79
21.19
28.51
34.42
38.93
42.18
44.27
45.23
45.07
43.97
42.24
40.23
38.14
35.9
33.16
29.58
25.01
19.63
13.92
8.42
3.55
-0.61
-4.23
-7.64
-11.19
-15.1
-19.48
-24.26
-29.2
-33.81
-37.46
-39.46
-39.28
-36.71
-31.96
-25.6
-18.4
-11.09
-4.21
1.97
7.38
12.06
16.08
19.49
22.31
24.62
26.53
28.17
29.61
30.84
31.73
32.11
31.81
30.8
29.16
27.07
24.65
21.94
18.82
15.07
10.54
5.12
-1.07
-7.81
-14.65
-21.04
-26.32
-29.88
-31.32
-30.64
-28.18
-24.6
-20.6
-16.77
-13.46
-10.75
-8.62
-7.0
-5.83
-5.03
-4.46
-3.92
-3.24
-2.34
-1.28
-0.2
0.71
1.32
1.61
1.63
1.51
1.43
1.56
2.0
2.75
3.62
4.33
4.6
4.36
3.87
3.72
4.58
6.95
10.84
15.77
20.92
25.43
28.7
30.49
30.84
29.93
27.94
25.02
21.33
17.13
12.75
8.54
4.71
1.31
-1.77
-4.7
-7.61
-10.51
-13.32
-15.9
-18.15
-20.0
-21.46
-22.58
-23.46
-24.26
-25.17
-26.3
-27.6
-28.74
-29.13
-28.17
-25.44
-20.88
-14.89
-8.14
-1.29
5.2
11.15
16.61
21.64
26.22
30.2
33.38
35.65
37.06
37.8
38.05
37.9
37.25
35.92
33.72
30.6
26.68
22.18
17.36
12.43
7.49
2.51
-2.62
-8.05
-13.92
-20.24
-26.79
-33.11
-38.5
-42.24
-43.82
-43.1
-40.46
-36.58
-32.26
-28.09
-24.31
-20.84
-17.46
-14.01
-10.55
-7.29
-4.47
-2.22
-0.43
1.09
2.55
4.0
5.37
6.5
7.3
7.93
8.65
9.78
11.46
13.63
15.94
17.94
19.15
19.26
18.22
16.21
13.62
10.96
8.7
7.18
6.47
6.38
6.53
6.5
5.96
4.79
3.02
0.79
-1.77
-4.61
-7.67
-10.88
-14.07
-17.06
-19.68
-21.89
-23.77
-25.43
-26.93
-28.18
-28.99
-29.19
-28.76
-27.89
-26.96
-26.35
-26.36
-27.05
-28.16
-29.22
-29.68
-29.01
-26.87
-23.14
-17.99
-11.75
-4.89
2.09
8.71
14.62
19.64
23.75
27.09
29.91
32.58
35.47
38.93
43.21
48.38
54.18
59.93
64.59
66.91
65.76
60.52
51.32
39.09
25.34
11.68
-0.64
-10.97
-19.33
-26.12
-31.74
-36.36
-39.83
-41.83
-42.11
-40.69
-37.81
-33.84
-29.11
-23.81
-18.0
-11.78
-5.33
1.0
6.76
11.59
15.3
17.97
19.9
21.44
22.84
24.19
25.31
25.92
25.73
24.58
22.51
19.72
16.49
13.06
9.63
6.28
3.04
-0.11
-3.24
-6.39
-9.61
-12.87
-16.03
-18.85
-21.03
-22.38
-22.85
-22.66
-22.13
-21.56
-21.11
-20.7
-20.13
-19.24
-18.0
-16.63
-15.36
-14.38
-13.69
-13.1
-12.36
-11.31
-9.88
-8.13
-6.13
-3.94
-1.51
1.22
4.24
7.47
10.66
13.42
15.34
16.07
15.53
13.91
11.78
9.88
8.91
9.24
10.81
13.13
15.56
17.55
18.85
19.46
19.44
18.71
17.03
14.13
9.94
4.77
-0.77
-6.01
-10.47
-14.09
-17.06
-19.67
-22.01
-23.96
-25.24
-25.61
-25.04
-23.76
-22.22
-20.93
-20.27
-20.38
-21.05
-21.73
-21.69
-20.22
-16.92
-11.81
-5.38
1.68
8.7
15.24
21.11
26.32
30.81
34.44
36.95
38.14
38.0
36.76
34.76
32.31
29.48
26.2
22.28
17.65
12.4
6.85
1.38
-3.66
-8.1
-11.98
-15.47
-18.84
-22.31
-26.02
-29.91
-33.72
-36.99
-39.12
-39.54
-37.89
-34.14
-28.65
-22.07
-15.17
-8.64
-2.93
1.73
5.34
8.05
10.01
11.4
12.38
13.1
13.73
14.43
15.3
16.36
17.56
18.74
19.77
20.56
21.09
21.41
21.57
21.5
20.99
19.65
17.1
13.05
7.51
0.87
-6.1
-12.43
-17.21
-19.85
-20.28
-18.91
-16.48
-13.73
-11.19
-9.11
-7.43
-6.04
-4.89
-4.04
-3.58
-3.54
-3.79
-4.11
-4.27
-4.17
-3.91
-3.67
-3.66
-3.9
-4.29
-4.58
-4.55
-4.16
-3.55
-3.01
-2.81
-3.16
-4.05
-5.25
-6.35
-6.86
-6.26
-4.21
-0.63
4.26
9.88
15.52
20.45
24.15
26.36
27.11
26.58
24.99
22.54
19.45
15.9
12.15
8.43
4.9
1.6
-1.52
-4.56
-7.6
-10.58
-13.33
-15.63
-17.28
-18.19
-18.37
-18.01
-17.41
-16.92
-16.81
-17.16
-17.75
-18.13
-17.72
-16.05
-12.93
-8.57
-3.46
1.79
6.73
11.15
15.05
18.55
21.74
24.55
26.8
28.25
28.75
28.31
27.03
25.09
22.59
19.54
15.84
11.44
6.46
1.22
-3.79
-8.09
-11.45
-13.96
-16.01
-18.2
-20.98
-24.47
-28.37
-32.0
-34.55
-35.36
-34.14
-31.12
-26.87
-22.13
-17.51
-13.37
-9.8
-6.75
-4.11
-1.74
0.54
3.03
6.01
9.61
13.66
17.63
20.8
22.57
22.7
21.35
19.04
16.4
13.95
11.98
10.52
9.39
8.29
6.79
4.49
1.07
-3.54
-9.07
-14.87
-20.0
-23.52
-24.73
-23.48
-20.15
-15.63
-10.95
-7.04
-4.41
-3.14
-2.94
-3.39
-4.13
-5.03
-6.07
-7.36
-8.83
-10.27
-11.36
-11.8
-11.48
-10.5
-9.11
-7.55
-6.01
-4.5
-3.05
-1.67
-0.5
0.32
0.64
0.45
-0.12
-0.77
-1.08
-0.59
1.09
4.1
8.33
13.31
18.44
23.11
26.89
29.62
31.32
32.05
31.84
30.64
28.38
25.09
20.96
16.29
11.45
6.69
2.14
-2.22
-6.4
-10.36
-13.91
-16.88
-19.16
-20.84
-22.18
-23.49
-25.04
-26.95
-29.16
-31.43
-33.4
-34.57
-34.4
-32.42
-28.39
-22.39
-14.94
-6.79
1.24
8.54
14.78
19.91
24.02
27.22
29.6
31.27
32.42
33.28
34.05
34.73
35.07
34.69
33.25
30.64
27.07
22.9
18.48
13.96
9.25
4.16
-1.54
-7.85
-14.63
-21.51
-28.0
-33.55
-37.59
-39.73
-39.81
-38.07
-34.98
-31.17
-27.12
-23.05
-18.88
-14.46
-9.74
-4.89
-0.3
3.61
6.56
8.54
9.79
10.61
11.24
11.75
12.1
12.21
12.15
12.1
12.31
12.97
14.11
15.53
16.81
17.43
16.94
15.12
12.13
8.47
4.92
2.24
0.94
1.05
2.18
3.68
4.96
5.68
5.82
5.53
4.92
3.97
2.56
0.56
-1.99
-4.86
-7.74
-10.36
-12.61
-14.49
-16.09
-17.38
-18.23
-18.45
-17.89
-16.61
-14.85
-13.03
-11.52
-10.62
-10.47
-10.98
-11.85
-12.6
-12.61
-11.3
-8.24
-3.38
2.97
10.21
17.6
24.51
30.48
35.24
38.62
40.49
40.78
39.56
37.07
33.76
30.12
26.56
23.22
19.95
16.44
12.4
7.71
2.51
-2.87
-8.05
-12.75
-16.9
-20.63
-24.19
-27.8
-31.59
-35.45
-39.09
-42.03
-43.73
-43.72
-41.79
-38.02
-32.75
-26.43
-19.4
-11.83
-3.71
4.92
13.81
22.43
30.03
35.91
39.74
41.62
42.04
41.57
40.64
39.35
37.57
35.11
31.89
28.05
23.87
19.65
15.54
11.57
7.61
3.5
-0.91
-5.76
-11.1
-16.82
-22.64
-28.02
-32.3
-34.92
-35.57
-34.38
-31.84
-28.59
-25.17
-21.83
-18.59
-15.34
-12.09
-8.96
-6.2
-3.97
-2.26
-0.8
0.79
2.84
5.46
8.43
11.31
13.62
15.02
15.47
15.24
14.74
14.29
14.0
13.62
12.67
10.71
7.54
3.49
-0.79
-4.45
-6.85
-7.74
-7.26
-5.78
-3.7
-1.31
1.19
3.58
5.53
6.66
6.69
5.57
3.62
1.36
-0.71
-2.3
-3.43
-4.39
-5.48
-6.88
-8.49
-10.0
-11.07
-11.5
-11.35
-10.88
-10.44
-10.29
-10.54
-11.13
-11.93
-12.7
-13.16
-12.9
-11.47
-8.51
-3.92
2.0
8.65
15.29
21.23
26.05
29.56
31.75
32.63
32.22
30.53
27.7
23.98
19.73
15.3
10.93
6.69
2.51
-1.69
-5.91
-10.0
-13.76
-16.97
-19.52
-21.47
-22.97
-24.24
-25.45
-26.73
-28.1
-29.45
-30.51
-30.86
-30.05
-27.71
-23.74
-18.41
-12.27
-6.02
-0.22
4.8
9.04
12.69
15.92
18.8
21.22
23.01
24.09
24.5
24.44
24.05
23.37
22.29
20.59
18.17
15.07
11.51
7.75
3.93
0.01
-4.23
-9.02
-14.53
-20.69
-27.17
-33.4
-38.64
-42.18
-43.53
-42.56
-39.63
-35.41
-30.73
-26.24
-22.25
-18.69
-15.26
-11.64
-7.7
-3.48
0.82
4.95
8.69
11.85
14.22
15.67
16.14
15.76
14.87
13.89
13.21
12.99
13.14
13.38
13.35
12.75
11.36
9.13
6.18
2.87
-0.26
-2.59
-3.58
-3.02
-1.15
1.41
3.85
5.42
5.65
4.42
1.84
-1.78
-6.08
-10.67
-15.16
-19.17
-22.43
-24.9
-26.8
-28.54
-30.57
-33.13
-36.13
-39.14
-41.51
-42.65
-42.28
-40.53
-37.95
-35.34
-33.47
-32.86
-33.59
-35.24
-37.03
-38.04
-37.5
-35.08
-31.0
-25.92
-20.73
-16.22
-12.86
-10.61
-9.01
-7.36
-4.96
-1.4
3.37
9.07
15.28
21.64
28.04
34.63
41.57
48.87
56.14
62.66
67.65
70.6
71.46
70.66
68.87
66.64
64.28
61.82
59.25
56.65
54.33
52.74
52.24
52.91
54.52
56.6
58.69
60.46
61.79
62.77
63.51
64.14
64.72
65.23
65.66
65.94
65.98
65.59
64.49
62.33
58.73
53.42
46.34
37.8
28.46
19.24
11.12
4.8
0.55
-1.82
-2.69
-2.35
-0.83
2.1
6.71
12.98
20.39
27.87
34.04
37.57
37.51
33.5
25.86
15.36
2.98
-10.32
-23.81
-36.92
-49.2
-60.25
-69.69
-77.24
-82.9
-86.9
-89.59
-91.28
-92.0
-91.56
-89.66
-86.15
-81.18
-75.18
-68.79
-62.66
-57.3
-52.97
-49.65
-47.01
-44.46
-41.35
-37.1
-31.44
-24.48
-16.7
-8.8
-1.49
4.64
9.22
12.08
13.28
12.96
11.42
9.07
6.38
3.82
1.77
0.46
-0.1
-0.07
0.25
0.55
0.54
0.11
-0.79
-2.12
-3.87
-6.07
-8.8
-12.11
-15.89
-19.84
-23.47
-26.16
-27.39
-26.83
-24.49
-20.66
-15.78
-10.32
-4.66
0.96
6.36
11.34
15.69
19.22
21.83
23.58
24.65
25.26
25.62
25.79
25.73
25.23
24.12
22.23
19.56
16.23
12.41
8.29
3.94
-0.75
-5.93
-11.72
-18.04
-24.46
-30.28
-34.63
-36.84
-36.58
-34.08
-30.0
-25.22
-20.53
-16.46
-13.2
-10.72
-8.94
-7.81
-7.31
-7.37
-7.84
-8.5
-9.15
-9.7
-10.16
-10.56
-10.84
-10.82
-10.25
-8.95
-6.9
-4.33
-1.6
0.85
2.65
3.58
3.66
3.19
2.73
2.98
4.52
7.64
12.09
17.2
22.04
25.77
27.87
28.31
27.38
25.5
23.0
19.99
16.41
12.2
7.42
2.35
-2.61
-7.05
-10.75
-13.69
-16.05
-18.05
-19.81
-21.38
-22.74
-23.95
-25.2
-26.75
-28.81
-31.35
-34.03
-36.19
-37.07
-36.02
-32.71
-27.23
-20.05
-11.84
-3.26
5.13
12.96
19.99
26.06
31.06
34.94
37.76
39.72
41.04
41.91
42.36
42.27
41.41
39.57
36.7
32.91
28.42
23.48
18.31
13.06
7.84
2.75
-2.13
-6.8
-11.33
-15.77
-20.05
-23.82
-26.57
-27.73
-27.0
-24.51
-20.82
-16.73
-12.99
-10.06
-8.05
-6.75
-5.87
-5.2
-4.68
-4.33
-4.18
-4.12
-3.96
-3.49
-2.58
-1.22
0.44
2.26
4.17
6.2
8.48
11.06
13.86
16.6
18.94
20.5
21.05
20.57
19.26
17.51
15.84
14.71
14.4
14.91
15.98
17.2
18.1
18.31
17.61
15.89
13.19
9.67
5.58
1.24
-3.01
-6.9
-10.27
-13.12
-15.57
-17.8
-19.95
-22.08
-24.17
-26.14
-27.93
-29.49
-30.85
-32.02
-33.04
-33.96
-34.81
-35.55
-35.97
-35.69
-34.17
-30.9
-25.61
-18.41
-9.8
-0.58
8.42
16.54
23.37
28.81
32.88
35.69
37.36
38.01
37.87
37.2
36.26
35.2
33.91
32.11
29.38
25.46
20.36
14.41
8.1
1.85
-4.16
-10.05
-16.12
-22.58
-29.38
-36.13
-42.14
-46.65
-49.05
-49.05
-46.83
-42.95
-38.25
-33.59
-29.56
-26.4
-23.97
-21.99
-20.22
-18.64
-17.46
-16.89
-17.01
-17.61
-18.3
-18.67
-18.58
-18.24
-18.11
-18.69
-20.28
-22.87
-26.19
-29.9
-33.76
-37.68
-41.74
-46.07
-50.8
-56.0
-61.68
-67.68
-73.53
-78.31
-80.64
-78.9
-71.65
-58.14
-38.64
-14.48
12.35
39.74
65.92
89.7
110.31
127.21
139.86
147.8
150.83
149.24
143.78
135.48
125.36
114.17
102.3
89.98
77.5
65.3
54.05
44.4
36.83
31.51
28.24
26.61
26.09
26.19
26.56
27.01
27.44
27.83
28.16
28.36
28.3
27.86
26.93
25.46
23.51
21.13
18.45
15.6
12.74
9.99
7.47
5.21
3.2
1.38
-0.3
-1.81
-3.05
-3.88
-4.24
-4.2
-4.04
-4.12
-4.83
-6.49
-9.22
-12.94
-17.4
-22.2
-26.88
-30.94
-34.0
-35.81
-36.32
-35.65
-34.08
-31.85
-29.16
-26.07
-22.57
-18.66
-14.39
-10.01
-5.8
-2.08
0.95
3.23
4.8
5.79
6.27
6.33
5.97
5.25
4.2
2.86
1.22
-0.75
-3.12
-5.88
-8.95
-12.05
-14.73
-16.41
-16.46
-14.42
-10.11
-3.75
4.09
12.66
21.12
28.77
35.11
39.92
43.15
44.93
45.46
44.94
43.54
41.38
38.53
35.06
31.09
26.85
22.63
18.75
15.55
13.32
12.24
12.37
13.6
15.67
18.23
20.82
22.97
24.24
24.3
23.04
20.57
17.33
14.0
11.33
9.95
10.18
11.89
14.54
17.37
19.59
20.57
19.98
17.8
14.18
9.44
3.9
-2.18
-8.62
-15.34
-22.33
-29.55
-36.81
-43.76
-49.89
-54.75
-58.15
-60.29
-61.77
-63.43
-65.98
-69.81
-74.8
-80.32
-85.46
-89.16
-90.54
-88.94
-84.14
-76.34
-66.09
-54.23
-41.67
-29.22
-17.46
-6.67
3.13
12.04
20.16
27.42
33.61
38.39
41.44
42.57
41.83
39.54
36.19
32.25
28.03
23.64
18.99
13.93
8.36
2.29
-4.18
-10.88
-17.54
-23.81
-29.2
-33.14
-35.13
-34.98
-32.9
-29.51
-25.69
-22.34
-20.05
-19.05
-19.15
-19.9
-20.78
-21.34
-21.4
-20.97
-20.23
-19.3
-18.2
-16.74
-14.71
-11.99
-8.73
-5.32
-2.23
0.17
1.78
2.72
3.22
3.42
3.34
2.95
2.37
1.94
2.19
3.67
6.68
11.1
16.46
22.06
27.25
31.55
34.67
36.41
36.5
34.62
30.54
24.22
16.03
6.71
-2.75
-11.37
-18.43
-23.62
-27.03
-29.04
-30.13
-30.75
-31.21
-31.69
-32.29
-33.05
-33.98
-35.02
-36.02
-36.71
-36.66
-35.35
-32.32
-27.32
-20.46
-12.21
-3.31
5.42
13.32
20.0
25.38
29.5
32.49
34.46
35.5
35.72
35.3
34.41
33.22
31.81
30.19
28.32
26.24
24.06
21.95
20.05
18.39
16.75
14.69
11.59
6.86
0.09
-8.71
-19.01
-29.79
-39.68
-47.4
-52.04
-53.35
-51.75
-48.11
-43.41
-38.47
-33.73
-29.32
-25.15
-21.12
-17.13
-13.18
-9.28
-5.45
-1.65
2.07
5.68
9.08
12.13
14.76
16.98
18.91
20.69
22.44
24.13
25.52
26.26
25.98
24.47
21.79
18.33
14.72
11.67
9.82
9.46
10.51
12.48
14.68
16.39
17.09
16.54
14.75
11.88
8.19
3.92
-0.63
-5.22
-9.63
-13.7
-17.38
-20.68
-23.55
-25.92
-27.62
-28.5
-28.51
-27.75
-26.4
-24.75
-23.1
-21.72
-20.8
-20.4
-20.34
-20.18
-19.26
-16.89
-12.56
-6.23
1.72
10.49
19.26
27.29
34.16
39.67
43.8
46.55
47.92
47.92
46.61
44.17
40.83
36.84
32.43
27.71
22.71
17.4
11.81
6.05
0.3
-5.2
-10.32
-15.07
-19.6
-24.15
-28.91
-33.9
-38.97
-43.72
-47.63
-50.1
-50.56
-48.66
-44.37
-38.07
-30.53
-22.68
-15.36
-9.1
-4.03
0.01
3.35
6.27
8.96
11.52
13.96
16.26
18.4
20.31
21.87
22.97
23.58
23.75
23.62
23.27
22.71
21.75
20.09
17.37
13.32
7.88
1.22
-6.16
-13.55
-20.01
-24.66
-26.78
-26.13
-23.01
-18.19
-12.71
-7.57
-3.5
-0.82
0.52
0.8
0.37
-0.4
-1.25
-1.98
-2.51
-2.88
-3.17
-3.51
-3.95
-4.47
-4.96
-5.28
-5.26
-4.8
-3.86
-2.57
-1.16
-0.01
0.57
0.47
-0.1
-0.56
-0.17
1.76
5.6
11.22
18.01
25.13
31.67
36.92
40.46
42.12
41.96
40.11
36.8
32.33
27.13
21.72
16.62
12.13
8.28
4.76
1.1
-3.03
-7.7
-12.61
-17.26
-21.19
-24.21
-26.39
-28.05
-29.58
-31.2
-32.95
-34.57
-35.61
-35.43
-33.43
-29.2
-22.7
-14.3
-4.71
5.16
14.43
22.39
28.59
32.88
35.39
36.46
36.57
36.21
35.67
35.0
33.96
32.19
29.38
25.47
20.65
15.32
9.93
4.87
0.31
-3.77
-7.57
-11.48
-15.88
-21.01
-26.78
-32.64
-37.65
-40.76
-41.13
-38.54
-33.41
-26.69
-19.52
-12.84
-7.2
-2.75
0.61
3.08
4.87
6.2
7.28
8.38
9.69
11.26
12.93
14.42
15.44
15.86
15.72
15.28
14.8
14.39
14.01
13.42
12.26
10.2
7.05
2.89
-1.88
-6.52
-10.17
-12.07
-11.86
-9.69
-6.22
-2.32
1.22
3.88
5.51
6.19
6.03
5.12
3.49
1.26
-1.4
-4.24
-7.05
-9.73
-12.3
-14.82
-17.27
-19.53
-21.39
-22.67
-23.3
-23.4
-23.2
-22.98
-22.96
-23.24
-23.76
-24.26
-24.28
-23.19
-20.4
-15.45
-8.29
0.72
10.84
21.09
30.54
38.42
44.28
47.99
49.67
49.6
48.14
45.67
42.53
38.95
35.06
30.82
26.11
20.81
14.9
8.57
2.18
-3.89
-9.38
-14.34
-19.1
-24.04
-29.43
-35.15
-40.66
-45.1
-47.6
-47.49
-44.58
-39.13
-31.82
-23.52
-15.09
-7.18
-0.15
5.9
11.08
15.56
19.49
23.0
26.14
28.98
31.57
33.95
36.11
37.99
39.46
40.4
40.73
40.47
39.79
38.9
37.93
36.84
35.36
33.1
29.73
25.12
19.45
13.23
7.15
1.88
-2.08
-4.49
-5.49
-5.48
-5.0
-4.63
-4.75
-5.48
-6.66
-7.99
-9.16
-10.07
-10.78
-11.45
-12.24
-13.14
-14.0
-14.6
-14.77
-14.45
-13.69
-12.54
-11.06
-9.3
-7.37
-5.51
-4.04
-3.29
-3.36
-4.02
-4.65
-4.43
-2.59
1.24
6.88
13.64
20.5
26.47
30.87
33.4
34.15
33.39
31.41
28.44
24.65
20.18
15.29
10.27
5.38
0.81
-3.42
-7.47
-11.5
-15.58
-19.61
-23.28
-26.24
-28.28
-29.39
-29.92
-30.34
-31.02
-32.03
-32.95
-33.02
-31.41
-27.51
-21.21
-12.88
-3.28
6.7
16.29
24.94
32.37
38.45
43.15
46.47
48.42
49.07
48.57
47.12
44.96
42.27
39.17
35.67
31.77
27.43
22.64
17.46
11.93
6.13
0.06
-6.26
-12.82
-19.55
-26.22
-32.42
-37.59
-41.22
-42.94
-42.73
-40.84
-37.77
-34.0
-29.84
-25.47
-20.97
-16.51
-12.33
-8.74
-5.93
-3.91
-2.44
-1.18
0.17
1.75
3.58
5.61
7.85
10.37
13.24
16.43
19.75
22.87
25.4
27.04
27.57
26.87
24.88
21.67
17.51
12.92
8.59
5.23
3.25
2.64
2.94
3.49
3.68
3.19
2.01
0.36
-1.58
-3.75
-6.25
-9.23
-12.75
-16.69
-20.76
-24.55
-27.65
-29.82
-30.97
-31.24
-30.85
-30.06
-29.05
-27.84
-26.36
-24.48
-22.13
-19.31
-16.1
-12.57
-8.76
-4.59
0.05
5.31
11.22
17.67
24.4
31.04
37.15
42.34
46.27
48.72
49.61
49.01
47.14
44.37
41.15
37.98
35.36
33.67
33.0
33.11
33.37
32.91
30.79
26.37
19.45
10.39
-0.08
-11.06
-21.82
-31.87
-40.99
-49.02
-55.69
-60.53
-63.06
-62.88
-59.99
-54.87
-48.33
-41.29
-34.48
-28.24
-22.63
-17.54
-12.95
-8.93
-5.6
-2.99
-0.92
0.95
3.0
5.45
8.31
11.43
14.6
17.68
20.61
23.36
25.79
27.72
28.88
29.02
27.93
25.45
21.46
16.02
9.41
2.25
-4.59
-10.22
-13.96
-15.62
-15.47
-14.17
-12.43
-10.85
-9.82
-9.52
-9.98
-11.21
-13.11
-15.46
-17.92
-20.1
-21.62
-22.26
-21.97
-20.83
-19.02
-16.73
-14.14
-11.47
-8.89
-6.57
-4.62
-3.07
-1.94
-1.21
-0.9
-0.96
-1.23
-1.39
-0.95
0.53
3.3
7.28
11.96
16.56
20.31
22.6
23.16
22.09
19.69
16.36
12.46
8.25
3.9
-0.47
-4.79
-8.94
-12.9
-16.65
-20.24
-23.74
-27.19
-30.56
-33.73
-36.58
-38.97
-40.89
-42.36
-43.49
-44.34
-44.87
-44.8
-43.62
-40.7
-35.5
-27.83
-18.02
-6.93
4.32
14.64
23.31
30.09
35.17
38.93
41.65
43.49
44.44
44.47
43.66
42.17
40.14
37.6
34.49
30.71
26.25
21.28
16.08
10.99
6.29
2.0
-2.04
-6.12
-10.6
-15.66
-21.28
-27.14
-32.72
-37.37
-40.51
-41.78
-41.12
-38.76
-35.15
-30.79
-26.15
-21.63
-17.5
-13.92
-10.98
-8.66
-6.89
-5.53
-4.38
-3.22
-1.83
-0.09
2.03
4.42
6.9
9.2
11.12
12.56
13.5
14.04
14.27
14.23
13.84
12.93
11.33
9.01
6.14
3.14
0.61
-0.84
-0.81
0.82
3.78
7.53
11.37
14.61
16.69
17.21
15.99
13.03
8.53
2.87
-3.45
-9.83
-15.76
-20.83
-24.79
-27.57
-29.19
-29.72
-29.27
-28.01
-26.13
-23.88
-21.49
-19.14
-16.94
-14.9
-12.97
-11.01
-8.81
-6.01
-2.24
2.79
9.12
16.43
24.09
31.3
37.36
41.79
44.45
45.41
44.88
43.04
40.1
36.28
31.83
27.03
22.11
17.23
12.48
7.87
3.44
-0.77
-4.65
-8.14
-11.19
-13.87
-16.36
-18.94
-21.91
-25.49
-29.7
-34.18
-38.25
-41.0
-41.56
-39.43
-34.69
-27.95
-20.24
-12.58
-5.73
0.01
4.77
8.89
12.73
16.45
20.04
23.32
26.12
28.36
30.01
31.08
31.57
31.38
30.42
28.64
26.12
23.07
19.69
16.13
12.36
8.19
3.43
-2.0
-7.91
-13.86
-19.22
-23.35
-25.78
-26.27
-24.87
-21.89
-17.84
-13.39
-9.19
-5.88
-3.86
-3.26
-3.93
-5.45
-7.3
-8.98
-10.12
-10.54
-10.25
-9.41
-8.24
-7.0
-5.84
-4.83
-3.94
-3.0
-1.89
-0.57
0.86
2.16
3.06
3.4
3.17
2.59
2.03
1.95
2.74
4.66
7.74
11.73
16.2
20.55
24.26
26.93
28.38
28.53
27.34
24.68
20.46
14.7
7.66
-0.11
-7.98
-15.37
-21.94
-27.62
-32.52
-36.8
-40.52
-43.69
-46.24
-48.16
-49.56
-50.68
-51.81
-53.2
-54.85
-56.41
-57.21
-56.42
-53.31
-47.58
-39.52
-29.99
-20.22
-11.41
-4.42
0.45
3.48
5.35
6.85
8.61
11.0
14.06
17.6
21.33
24.87
27.94
30.53
33.12
36.77
42.93
52.85
66.75
83.27
99.37
111.16
115.11
109.34
94.22
72.2
46.87
21.83
-0.17
-17.59
-29.96
-37.52
-40.94
-41.08
-38.94
-35.62
-32.16
-29.4
-27.74
-27.14
-27.1
-26.93
-26.0
-23.95
-20.84
-17.08
-13.24
-9.76
-6.74
-4.01
-1.18
2.06
5.81
9.92
14.06
17.83
20.91
23.15
24.61
25.58
26.54
28.08
30.7
34.62
39.69
45.33
50.69
54.87
57.14
57.08
54.62
49.96
43.45
35.5
26.54
16.95
7.06
-2.84
-12.49
-21.69
-30.31
-38.28
-45.57
-52.18
-58.06
-63.11
-67.19
-70.18
-72.0
-72.72
-72.39
-71.0
-68.35
-64.04
-57.65
-48.92
-38.02
-25.53
-12.33
0.69
12.97
24.27
34.73
44.57
53.91
62.65
70.5
77.15
82.3
85.7
87.09
86.21
82.83
76.89
68.71
58.94
48.51
38.28
28.78
20.1
11.91
3.68
-4.98
-14.19
-23.66
-32.86
-41.18
-48.03
-53.02
-55.97
-56.98
-56.28
-54.29
-51.41
-48.01
-44.29
-40.34
-36.22
-32.0
-27.86
-24.02
-20.66
-17.8
-15.23
-12.65
-9.73
-6.28
-2.34
1.93
6.28
10.51
14.5
18.29
21.96
25.57
29.08
32.29
34.89
36.57
37.18
36.89
36.16
35.6
35.77
36.89
38.76
40.83
42.42
42.91
41.9
39.24
35.0
29.35
22.54
14.88
6.78
-1.25
-8.72
-15.24
-20.63
-24.99
-28.62
-31.81
-34.74
-37.39
-39.57
-41.07
-41.81
-41.9
-41.61
-41.22
-40.91
-40.63
-40.04
-38.59
-35.64
-30.63
-23.31
-13.84
-2.82
8.89
20.34
30.78
39.69
46.82
52.11
55.58
57.3
57.39
56.0
53.35
49.69
45.29
40.38
35.11
29.63
23.99
18.27
12.55
6.85
1.16
-4.68
-10.96
-18.0
-26.04
-35.0
-44.36
-53.18
-60.33
-64.82
-66.08
-64.17
-59.64
-53.42
-46.4
-39.32
-32.6
-26.4
-20.75
-15.67
-11.17
-7.26
-3.84
-0.71
2.42
5.82
9.66
13.88
18.22
22.28
25.68
28.19
29.79
30.64
31.0
31.08
30.98
30.62
29.82
28.33
26.04
23.01
19.52
15.96
12.67
9.8
7.29
4.91
2.41
-0.36
-3.41
-6.69
-10.16
-13.78
-17.46
-21.0
-24.08
-26.34
-27.5
-27.5
-26.45
-24.54
-21.93
-18.65
-14.7
-10.11
-5.02
0.3
5.49
10.21
14.18
17.2
19.14
19.96
19.73
18.72
17.38
16.29
16.02
16.89
18.89
21.63
24.4
26.49
27.28
26.49
24.16
20.62
16.34
11.77
7.25
2.97
-1.02
-4.75
-8.28
-11.71
-15.14
-18.69
-22.42
-26.31
