2013-02-24 12:23:49
64.0
-0.0
-0.0
-0.0
-0.0
-0.0
-0.0
-0.0
-0.0
-0.0
-0.0
0.0
0.01
0.01
-0.0
-0.03
-0.05
-0.05
0.0
0.13
0.36
0.66
1.01
1.37
1.72
2.06
2.4
2.79
3.24
3.8
4.42
5.06
5.66
6.2
6.68
7.15
7.68
8.31
9.14
10.09
11.04
11.88
12.56
13.14
13.76
14.65
15.96
17.91
20.32
22.9
25.38
27.58
29.57
31.68
34.32
37.81
42.54
48.15
54.1
59.83
64.97
69.59
74.15
79.35
85.7
93.75
102.99
112.63
121.76
129.81
136.8
143.31
150.66
157.56
166.29
177.46
191.22
206.37
219.97
227.66
224.76
207.86
176.08
131.84
79.02
21.99
-36.01
-93.45
-150.15
-206.29
-261.62
-315.3
-365.77
-412.01
-453.21
-488.76
-517.88
-539.32
-551.51
-552.79
-542.03
-518.81
-484.07
-439.7
-388.28
-332.63
-275.35
-218.51
-163.59
-111.53
-62.83
-17.98
22.58
58.28
88.56
112.96
131.37
144.14
152.1
156.43
158.25
158.45
157.45
155.22
151.49
145.99
138.52
129.01
117.51
104.5
91.28
80.09
73.64
74.09
81.92
95.31
110.61
123.7
131.53
133.17
129.63
122.88
114.67
105.84
96.5
86.59
76.62
67.27
59.31
53.13
48.48
44.65
40.76
36.23
31.02
25.57
20.55
16.57
13.92
12.41
11.49
10.47
8.83
6.45
3.65
0.94
-1.12
-2.2
-2.4
-2.05
-1.65
-1.6
-2.01
-2.83
-3.85
-4.86
-5.68
-6.11
-6.0
-5.22
-3.85
-2.23
-0.87
-0.25
-0.6
-1.74
-3.21
-4.5
-5.33
-5.7
-5.8
-5.86
-5.97
-6.03
-5.93
-5.55
-4.88
-3.94
-2.79
-1.5
-0.2
0.96
1.81
2.27
2.3
1.99
1.45
0.79
0.1
-0.57
-1.13
-1.5
-1.6
-1.39
-0.87
-0.16
0.59
1.23
1.65
1.86
1.97
2.14
2.51
3.12
3.91
4.73
5.48
6.07
6.55
6.99
7.46
7.98
8.51
8.94
9.14
8.98
8.39
7.37
5.96
4.25
2.27
0.1
-2.15
-4.33
-6.27
-7.86
-9.09
-10.01
-10.69
-11.21
-11.52
-11.6
-11.38
-10.96
-10.45
-10.01
-9.68
-9.38
-8.96
-8.27
-7.29
-6.21
-5.27
-4.7
-4.62
-4.94
-5.48
-6.0
-6.26
-6.09
-5.37
-4.03
-2.17
-0.05
1.97
3.5
4.24
4.21
3.62
2.81
2.08
1.58
1.26
1.04
0.86
0.77
0.86
1.17
1.65
2.15
2.56
2.81
2.93
3.02
3.13
3.25
3.33
3.29
3.15
2.92
2.65
2.37
2.09
1.8
1.53
1.29
1.06
0.86
0.69
0.57
0.52
0.6
0.77
0.97
1.09
1.04
0.81
0.43
0.02
-0.34
-0.6
-0.81
-1.03
-1.29
-1.61
-1.97
-2.34
-2.7
-3.07
-3.5
-4.05
-4.77
-5.63
-6.52
-7.29
-7.86
-8.18
-8.33
-8.44
-8.67
-9.11
-9.8
-10.73
-11.84
-13.11
-14.47
-15.82
-16.94
-17.51
-17.14
-15.53
-12.56
-8.41
-3.51
1.59
6.38
10.54
13.97
16.69
18.73
20.08
20.7
20.59
19.91
18.95
18.05
17.44
17.22
17.3
17.55
17.86
18.24
18.75
19.51
20.56
21.91
23.49
25.12
26.62
27.81
28.66
29.27
29.94
31.0
32.68
35.04
37.86
40.71
43.08
44.48
44.5
42.89
39.62
34.88
28.98
22.39
15.52
8.71
2.16
-4.12
-10.2
-16.22
-22.26
-28.35
-34.34
-40.03
-45.15
-49.53
-53.07
-55.8
-57.77
-59.03
-59.61
-59.56
-58.98
-58.0
-56.75
-55.35
-53.89
-52.48
-51.19
-50.01
-48.77
-47.19
-44.88
-41.57
-37.19
-31.95
-26.22
-20.45
-15.03
-10.2
-6.11
-2.79
-0.21
1.7
3.06
4.0
4.69
5.32
6.07
7.07
8.37
9.9
11.48
12.87
13.93
14.62
15.05
15.36
15.65
15.88
15.99
15.88
15.55
15.02
14.36
13.61
12.77
11.88
11.02
10.3
9.83
9.56
9.36
8.97
8.2
6.93
5.22
3.27
1.33
-0.39
-1.74
-2.66
-3.21
-3.47
-3.55
-3.56
-3.58
-3.66
-3.86
-4.23
-4.78
-5.45
-6.16
-6.76
-7.17
-7.37
-7.45
-7.55
-7.8
-8.24
-8.87
-9.64
-10.54
-11.6
-12.84
-14.24
-15.63
-16.7
-17.11
-16.56
-14.91
-12.29
-9.01
-5.5
-2.13
0.83
3.25
5.16
6.59
7.61
8.26
8.57
8.62
8.48
8.23
7.99
7.84
7.86
8.07
8.5
9.07
9.66
10.15
10.42
10.46
10.33
10.09
9.8
9.46
9.0
8.37
7.55
6.59
5.63
4.81
4.26
3.97
3.9
3.95
4.06
4.22
4.47
4.82
5.22
5.52
5.57
5.24
4.55
3.65
2.75
1.98
1.38
0.9
0.43
-0.11
-0.69
-1.23
-1.68
-1.99
-2.23
-2.44
-2.63
-2.73
-2.64
-2.27
-1.61
-0.8
-0.11
0.14
-0.35
-1.64
-3.56
-5.74
-7.64
-8.81
-8.92
-7.89
-5.84
-3.05
0.07
3.05
5.5
7.16
7.99
8.19
8.09
8.01
8.13
8.45
8.87
9.27
9.56
9.75
9.89
10.07
10.32
10.67
11.13
11.67
12.21
12.65
12.86
12.72
12.18
11.25
10.06
8.77
7.63
6.82
6.42
6.37
6.52
6.65
6.6
6.32
5.82
5.19
4.5
3.8
3.13
2.46
1.75
0.95
-0.04
-1.23
-2.6
-4.03
-5.39
-6.59
-7.58
-8.41
-9.17
-9.94
-10.76
-11.68
-12.73
-13.95
-15.33
-16.83
-18.31
-19.61
-20.6
-21.19
-21.37
-21.17
-20.63
-19.84
-18.93
-18.06
-17.35
-16.9
-16.6
-16.19
-15.28
-13.52
-10.78
-7.23
-3.32
0.36
3.35
5.51
7.0
8.2
9.39
10.63
11.73
12.39
12.43
11.9
11.08
10.35
9.94
9.88
10.01
10.12
10.09
9.97
9.95
10.17
10.68
11.32
11.86
12.04
11.74
11.04
10.17
9.4
8.91
8.72
8.67
8.56
8.23
7.65
6.92
6.15
5.46
4.85
4.29
3.72
3.13
2.57
2.13
1.91
1.96
2.18
2.43
2.5
2.29
1.81
1.17
0.54
-0.02
-0.52
-1.07
-1.75
-2.53
-3.28
-3.86
-4.22
-4.48
-4.84
-5.45
-6.38
-7.57
-8.91
-10.32
-11.75
-13.09
-14.12
-14.54
-14.03
-12.45
-9.88
-6.64
-3.23
-0.11
2.37
4.1
5.16
5.76
6.13
6.45
6.74
6.98
7.08
7.08
7.06
7.17
7.47
7.95
8.51
9.03
9.44
9.73
9.92
9.99
9.89
9.57
9.05
8.41
7.76
7.19
6.7
6.26
5.79
5.27
4.67
4.03
3.39
2.82
2.39
2.19
2.24
2.49
2.79
2.95
2.81
2.23
1.22
-0.08
-1.48
-2.73
-3.67
-4.27
-4.66
-5.06
-5.65
-6.49
-7.51
-8.55
-9.48
-10.29
-11.05
-11.86
-12.76
-13.73
-14.7
-15.68
-16.75
-17.98
-19.34
-20.57
-21.28
-21.06
-19.7
-17.34
-14.39
-11.4
-8.82
-6.78
-5.18
-3.71
-2.05
-0.02
2.35
4.89
7.36
9.6
11.52
13.15
14.57
15.82
16.88
17.66
18.11
18.22
18.07
17.77
17.41
17.02
16.53
15.79
14.75
13.44
12.01
10.7
9.69
9.02
8.62
8.32
7.98
7.49
6.86
6.14
5.42
4.74
4.13
3.56
2.99
2.36
1.61
0.71
-0.29
-1.29
-2.19
-2.9
-3.42
-3.83
-4.22
-4.66
-5.14
-5.6
-5.98
-6.27
-6.52
-6.83
-7.2
-7.59
-7.92
-8.11
-8.18
-8.26
-8.52
-9.11
-10.04
-11.19
-12.37
-13.41
-14.13
-14.41
-14.08
-13.01
-11.11
-8.45
-5.33
-2.19
0.5
2.42
3.52
4.01
4.2
4.36
4.61
4.94
5.28
5.6
5.92
6.3
6.76
7.23
7.6
7.77
7.71
7.45
7.1
6.79
6.6
6.57
6.66
6.76
6.75
6.53
6.06
5.4
4.68
4.05
3.6
3.37
3.32
3.4
3.53
3.66
3.66
3.46
2.97
2.19
1.22
0.21
-0.68
-1.37
-1.85
-2.17
-2.39
-2.59
-2.81
-3.1
-3.49
-3.97
-4.49
-5.0
-5.45
-5.82
-6.12
-6.37
-6.57
-6.78
-7.06
-7.57
-8.44
-9.73
-11.33
-13.01
-14.36
-15.04
-14.79
-13.61
-11.65
-9.22
-6.67
-4.26
-2.21
-0.63
0.48
1.15
1.51
1.7
1.91
2.26
2.75
3.28
3.66
3.78
3.66
3.49
3.49
3.84
4.5
5.29
5.94
6.29
6.34
6.22
6.06
5.95
5.83
5.64
5.33
4.91
4.48
4.07
3.69
3.31
2.91
2.51
2.17
1.93
1.8
1.74
1.69
1.6
1.46
1.21
0.8
0.21
-0.57
-1.43
-2.18
-2.68
-2.88
-2.93
-3.06
-3.5
-4.32
-5.43
-6.65
-7.76
-8.7
-9.46
-10.14
-10.88
-11.77
-12.91
-14.33
-16.07
-18.03
-20.06
-21.92
-23.36
-24.2
-24.42
-24.06
-23.21
-21.95
-20.31
-18.32
-16.04
-13.67
-11.43
-9.62
-8.49
-8.27
-8.96
-10.25
-11.29
-10.76
-7.08
1.01
13.9
30.69
49.3
67.0
81.2
90.21
93.52
91.66
85.76
77.07
66.64
55.36
44.02
33.33
23.9
16.0
9.5
3.87
-1.62
-7.53
-14.09
-20.97
-27.53
-32.94
-36.51
-37.84
-36.92
-34.07
-29.91
-25.25
-20.85
-17.35
-15.04
-13.89
-13.59
-13.71
-13.91
-14.08
-14.29
-14.76
-15.65
-16.99
-18.62
-20.23
-21.46
-22.0
-21.68
-20.53
-18.69
-16.36
-13.81
-11.21
-8.7
-6.33
-4.12
-2.12
-0.37
1.03
2.04
2.63
2.93
3.12
3.4
3.92
4.69
5.6
6.48
7.18
7.64
7.87
7.94
7.93
7.9
7.86
7.77
7.57
7.19
6.61
5.86
4.98
4.0
2.98
1.98
1.11
0.48
0.16
0.11
0.21
0.28
0.21
-0.03
-0.36
-0.67
-0.96
-1.28
-1.75
-2.42
-3.27
-4.18
-5.06
-5.81
-6.41
-6.89
-7.3
-7.71
-8.23
-8.97
-9.99
-11.28
-12.69
-13.92
-14.62
-14.45
-13.23
-11.01
-8.08
-4.86
-1.77
0.89
2.99
4.52
5.57
6.23
6.57
6.7
6.72
6.78
6.96
7.3
7.78
8.35
8.96
9.54
10.0
10.18
9.97
9.35
8.45
7.53
6.82
6.45
6.35
6.36
6.28
6.06
5.72
5.37
5.05
4.71
4.26
3.66
2.97
2.41
2.16
2.3
2.69
3.05
3.09
2.64
1.79
0.75
-0.18
-0.85
-1.23
-1.42
-1.56
-1.77
-2.09
-2.51
-3.01
-3.58
-4.23
-4.99
-5.82
-6.7
-7.55
-8.34
-9.1
-9.92
-10.93
-12.24
-13.81
-15.47
-16.91
-17.77
-17.75
-16.73
-14.79
-12.24
-9.48
-6.9
-4.79
-3.21
-2.03
-1.02
0.05
1.26
2.61
3.98
5.33
6.65
8.02
9.5
11.09
12.69
14.14
15.3
16.09
16.53
16.66
16.55
16.27
15.82
15.22
14.49
13.69
12.93
12.28
11.72
11.17
10.48
9.58
8.5
7.4
6.49
5.92
5.68
5.64
5.58
5.33
4.81
4.06
3.2
2.38
1.69
1.17
0.77
0.43
0.08
-0.33
-0.79
-1.3
-1.86
-2.47
-3.11
-3.77
-4.38
-4.9
-5.37
-5.86
-6.52
-7.48
-8.78
-10.35
-11.98
-13.38
-14.21
-14.19
-13.2
-11.32
-8.84
-6.17
-3.74
-1.83
-0.52
0.29
0.81
1.26
1.76
2.31
2.85
3.29
3.61
3.83
4.04
4.3
4.63
5.0
5.36
5.69
5.96
6.19
6.4
6.56
6.63
6.57
6.37
6.04
5.63
5.19
4.76
4.38
4.06
3.79
3.56
3.31
3.03
2.71
2.39
2.13
1.94
1.81
1.64
1.37
0.94
0.35
-0.34
-1.07
-1.7
-2.12
-2.22
-1.99
-1.5
-0.95
-0.57
-0.56
-1.02
-1.89
-2.95
-3.97
-4.76
-5.31
-5.69
-6.02
-6.36
-6.7
-6.97
-7.2
-7.48
-8.0
-8.88
-10.11
-11.46
-12.55
-13.05
-12.73
-11.6
-9.83
-7.72
-5.53
-3.53
-1.88
-0.69
0.05
0.42
0.54
0.59
0.71
1.03
1.63
2.53
3.67
4.89
5.99
6.79
7.2
7.28
7.19
7.07
7.06
7.19
7.43
7.72
7.95
8.03
7.89
7.52
6.98
6.39
5.87
5.51
5.29
5.12
4.9
4.54
4.06
3.52
3.04
2.71
2.61
2.75
3.06
3.39
3.58
3.49
3.09
2.48
1.84
1.41
1.38
1.79
2.6
3.54
4.23
4.23
3.2
1.1
-1.71
-4.55
-6.7
-7.7
-7.5
-6.47
-5.14
-3.99
-3.3
-3.13
-3.51
-4.42
-5.84
-7.62
-9.4
-10.74
-11.3
-11.01
-10.12
-9.08
-8.31
-8.04
-8.24
-8.7
-9.17
-9.53
-9.75
-9.94
-10.22
-10.68
-11.29
-11.93
-12.42
-12.57
-12.28
-11.54
-10.44
-9.07
-7.55
-5.97
-4.42
-2.91
-1.38
0.32
2.32
4.67
7.19
9.46
10.98
11.34
10.46
8.65
6.44
4.35
2.66
1.36
0.26
-0.82
-1.93
-2.98
-3.88
-4.67
-5.56
-6.85
-8.72
-11.17
-13.92
-16.6
-18.92
-20.82
-22.42
-23.94
-25.45
-26.87
-28.0
-28.57
-28.43
-27.52
-25.89
-23.64
-20.86
-17.68
-14.3
-10.98
-7.99
-5.53
-3.66
-2.29
-1.21
-0.18
1.01
2.4
3.94
5.41
6.57
7.24
7.4
7.18
6.9
6.88
7.41
8.56
10.17
11.9
13.3
14.08
14.25
14.1
14.13
14.78
16.2
18.21
20.43
22.47
24.15
25.52
26.85
28.43
30.49
33.14
36.38
40.17
44.46
49.21
54.39
60.03
66.17
72.86
80.11
87.76
95.44
102.59
108.5
112.51
114.13
113.13
109.55
103.56
95.4
85.27
73.45
60.36
46.56
32.7
19.39
7.09
-3.91
-13.41
-21.23
-27.18
-31.19
-33.34
-34.03
-33.88
-33.61
-33.88
-35.18
-37.66
-41.19
-45.28
-49.28
-52.49
-54.44
-54.99
-54.42
-53.23
-51.94
-50.94
-50.36
-50.08
-49.84
-49.34
-48.26
-46.37
-43.54
-39.82
-35.45
-30.88
-26.63
-23.22
-20.99
-20.12
-20.58
-22.16
-24.58
-27.42
-30.26
-32.64
-34.24
-34.87
-34.54
-33.41
-31.66
-29.44
-26.84
-23.88
-20.73
-17.62
-14.88
-12.73
-11.23
-10.23
-9.43
-8.57
-7.5
-6.2
-4.74
-3.17
-1.45
0.56
2.96
5.76
8.8
11.74
14.19
15.81
16.42
16.01
14.74
12.8
10.42
7.79
5.08
2.47
0.08
-2.05
-4.02
-5.99
-8.1
-10.27
-12.25
-13.57
-13.8
-12.7
-10.37
-7.25
-3.92
-0.95
1.28
2.66
3.29
3.41
3.31
3.27
3.53
4.25
5.47
7.07
8.78
10.26
11.31
11.94
12.36
12.92
13.81
15.03
16.34
17.32
17.64
17.1
15.73
13.69
11.3
8.84
6.54
4.55
2.91
1.56
0.36
-0.87
-2.27
-3.87
-5.63
-7.4
-9.03
-10.38
-11.39
-12.07
-12.51
-12.82
-13.12
-13.55
-14.17
-15.02
-16.06
-17.22
-18.35
-19.35
-20.13
-20.69
-21.08
-21.33
-21.47
-21.5
-21.41
-21.27
-21.19
-21.32
-21.74
-22.44
-23.25
-23.93
-24.2
-23.88
-22.9
-21.31
-19.29
-17.12
-15.11
-13.53
-12.56
-12.23
-12.44
-13.05
-13.92
-14.95
-16.08
-17.21
-18.14
-18.66
-18.59
-17.93
-16.87
-15.72
-14.78
-14.14
-13.77
-13.51
-13.17
-12.56
-11.37
-9.03
-4.77
2.26
12.64
26.53
43.65
63.34
84.76
106.91
128.49
147.9
163.35
173.28
176.81
174.08
166.26
155.07
142.27
129.17
116.4
103.92
91.15
77.2
61.27
43.12
23.47
4.25
-11.77
-21.79
-24.04
-18.48
-6.86
7.98
23.15
36.57
47.38
55.68
62.01
66.78
69.97
71.32
70.78
68.94
67.19
67.32
70.76
77.61
86.3
93.78
96.53
91.8
78.58
57.84
31.98
3.88
-23.86
-49.27
-70.8
-87.11
-97.0
-99.85
-96.18
-87.99
-78.57
-71.62
-69.9
-74.06
-82.34
-91.3
-97.27
-97.74
-92.06
-81.37
-68.14
-55.67
-47.62
-47.35
-56.89
-75.8
-100.58
-125.27
-143.44
-150.69
-146.43
-133.92
-118.38
-104.48
-94.49
-88.04
-83.31
-78.55
-73.08
-67.19
-61.61
-56.88
-53.16
-50.36
-48.32
-46.66
-44.68
-41.35
-35.69
-27.44
-17.51
-7.85
-0.83
1.74
-0.6
-6.7
-14.21
-20.39
-23.13
-21.54
-16.16
-8.48
-0.26
7.11
13.09
18.02
23.02
29.79
40.45
57.27
82.14
115.67
156.4
200.38
241.71
273.86
291.5
291.87
275.43
245.41
206.71
164.72
124.22
88.77
60.4
39.47
24.89
14.5
5.71
-3.72
-15.04
-28.18
-42.11
-55.21
-65.95
-73.31
-76.9
-76.85
-73.72
-68.64
-63.33
-60.05
-61.18
-68.41
-82.02
-100.48
-120.78
-139.27
-152.89
-159.98
-160.56
-155.8
-147.31
-136.49
-124.38
-111.75
-99.47
-88.55
-80.03
-74.54
-71.95
-71.3
-70.94
-68.95
-63.85
-54.97
-42.7
-28.21
-12.89
2.33
17.33
32.71
49.25
67.06
85.11
101.01
111.37
112.46
101.31
76.93
41.34
-0.16
-40.06
-70.63
-86.54
-86.61
-73.93
-54.26
-33.54
-15.81
-2.53
6.66
12.46
14.94
13.53
7.81
-1.67
-13.16
-24.39
-33.48
-39.69
-43.43
-45.69
-47.34
-48.56
-48.9
-47.73
-44.79
-40.61
-36.36
-33.32
-32.23
-32.8
-33.92
-34.27
-33.17
-31.09
-29.38
-29.51
-32.0
-35.9
-38.94
-38.43
-32.36
-20.03
-2.15
19.55
42.95
66.04
87.43
106.76
125.08
144.43
166.79
192.51
219.05
240.94
251.44
245.08
220.11
179.45
129.78
79.3
35.4
3.03
-15.92
-22.44
-19.98
-13.74
-9.65
-12.95
-26.69
-50.76
-81.97
-115.12
-144.7
-166.29
-177.46
-177.88
-168.98
-153.44
-134.56
-115.73
-99.75
-88.25
-81.38
-77.94
-75.93
-73.3
-68.63
-61.43
-52.27
-42.29
-32.79
-24.71
-18.41
-13.62
-9.7
-6.01
-2.17
1.88
5.98
9.92
13.57
16.89
19.81
22.21
23.84
24.49
24.06
22.64
20.48
17.89
15.15
12.4
9.71
7.13
4.68
2.35
0.03
-2.45
-5.22
-8.18
-10.95
-12.91
-13.51
-12.48
-9.95
-6.31
-1.99
2.64
7.39
11.99
16.04
19.0
20.41
20.11
18.47
16.17
14.0
12.4
11.43
10.88
10.46
10.14
10.08
10.57
11.76
13.53
15.47
17.07
18.02
18.3
18.19
18.13
18.42
19.03
19.63
19.72
18.94
17.22
14.9
12.51
10.52
9.09
8.05
6.93
5.27
2.67
-1.07
-5.99
-11.79
-17.75
-22.62
-24.77
-22.64
-15.41
-3.39
11.91
28.29
43.5
55.92
64.69
69.59
70.64
67.97
61.9
53.14
42.9
32.71
23.96
17.51
13.45
11.29
10.24
9.63
9.08
8.54
8.11
7.92
7.97
8.15
8.27
8.12
7.58
6.61
5.26
3.67
1.99
0.37
-1.08
-2.32
-3.39
-4.42
-5.56
-6.96
-8.75
-10.94
-13.49
-16.24
-18.87
-20.97
-22.0
-21.54
-19.35
-15.57
-10.65
-5.25
-0.03
4.56
8.32
11.27
13.53
15.23
16.43
17.2
17.6
17.68
17.56
17.35
17.12
16.93
16.81
16.77
16.74
16.64
16.36
15.84
15.12
14.31
13.53
12.86
12.25
11.54
10.56
9.17
7.41
5.44
3.47
1.64
-0.07
-1.76
-3.57
-5.56
-7.73
-10.04
-12.47
-14.96
-17.35
-19.25
-20.16
-19.58
-17.26
-13.41
-8.61
-3.63
0.9
4.64
7.61
10.01
12.04
13.78
15.2
16.24
16.84
17.03
16.86
16.39
15.72
14.96
14.22
13.65
13.34
13.3
13.45
13.58
13.51
13.07
12.21
11.01
9.63
8.23
6.91
5.66
4.41
3.02
1.43
-0.34
-2.2
-4.04
-5.77
-7.34
-8.72
-9.95
-11.08
-12.24
-13.63
-15.44
-17.71
-20.2
-22.36
-23.49
-22.96
-20.55
-16.49
-11.45
-6.23
-1.5
2.43
5.53
7.97
9.87
11.28
12.13
12.4
12.18
11.7
11.23
11.02
11.17
11.64
12.25
12.76
13.02
12.96
12.66
12.27
11.92
11.68
11.5
11.28
10.86
10.19
9.32
8.37
7.5
6.81
6.3
5.89
5.39
4.59
3.28
1.26
-1.53
-5.01
-8.93
-12.96
-16.77
-20.18
-23.14
-25.7
-27.83
-29.38
-30.12
-29.74
-28.01
-24.72
-19.78
-13.2
-5.24
3.51
12.12
19.51
24.73
27.27
27.16
24.93
21.38
17.3
13.34
9.93
7.29
5.46
4.32
3.74
3.73
4.52
6.52
10.07
15.19
21.33
27.48
32.42
35.08
34.9
31.96
26.88
20.57
13.98
7.94
3.01
-0.55
-2.73
-3.86
-4.43
-5.07
-6.31
-8.44
-11.37
-14.7
-17.81
-20.13
-21.36
-21.59
-21.3
-21.12
-21.63
-23.07
-25.28
-27.66
-29.41
-29.74
-28.19
-24.74
-19.81
-14.11
-8.4
-3.31
0.83
3.97
6.26
7.93
9.22
10.33
11.34
12.28
13.09
13.73
14.18
14.46
14.63
14.73
14.82
14.91
15.0
15.12
15.28
15.46
15.6
15.56
15.16
14.32
13.02
11.42
9.75
8.19
6.88
5.79
4.81
3.84
2.83
1.79
0.8
-0.09
-0.88
-1.59
-2.33
-3.19
-4.24
-5.49
-6.87
-8.26
-9.55
-10.69
-11.68
-12.62
-13.66
-14.97
-16.71
-18.92
-21.46
-23.99
-26.01
-26.95
-26.39
-24.2
-20.58
-16.04
-11.19
-6.58
-2.58
0.7
3.28
5.27
6.77
7.85
8.51
8.76
8.68
8.4
8.18
8.29
8.89
10.03
11.54
13.18
14.67
15.82
16.59
17.04
17.2
17.09
16.63
15.74
14.35
12.55
10.51
8.48
6.69
5.3
4.31
3.58
2.9
2.11
1.12
-0.01
-1.15
-2.15
-2.98
-3.73
-4.57
-5.63
-6.95
-8.39
-9.77
-10.93
-11.85
-12.64
-13.52
-14.71
-16.32
-18.29
-20.44
-22.4
-23.79
-24.2
-23.34
-21.08
-17.55
-13.1
-8.27
-3.64
0.32
3.36
5.53
7.08
8.37
9.62
10.91
12.09
12.91
13.2
12.95
12.3
11.56
10.98
10.72
10.8
11.14
11.61
12.08
12.49
12.79
13.0
13.09
13.04
12.77
12.23
11.43
10.46
9.52
8.75
8.25
7.91
7.55
6.98
6.18
5.24
4.36
3.65
3.09
2.54
1.84
0.97
0.01
-0.88
-1.62
-2.23
-2.82
-3.52
-4.35
-5.25
-6.11
-6.88
-7.59
-8.29
-9.06
-9.9
-10.77
-11.67
-12.68
-13.97
-15.65
-17.72
-19.88
-21.6
-22.24
-21.37
-18.91
-15.21
-10.96
-6.88
-3.49
-0.98
0.79
2.1
3.2
4.24
5.24
6.12
6.84
7.38
7.77
8.07
8.33
8.57
8.79
8.96
9.05
9.06
9.06
9.15
9.45
9.99
10.67
11.28
11.57
11.38
10.71
9.75
8.84
8.26
8.14
8.39
8.73
8.85
8.56
7.77
6.6
5.21
3.76
2.42
1.31
0.54
0.16
0.15
0.35
0.49
0.28
-0.47
-1.74
-3.32
-4.91
-6.23
-7.2
-7.87
-8.44
-9.1
-10.0
-11.2
-12.68
-14.4
-16.29
-18.18
-19.77
-20.67
-20.5
-19.03
-16.34
-12.79
-8.94
-5.36
-2.37
-0.05
1.78
3.37
4.89
6.35
7.63
8.57
9.08
9.22
9.12
8.94
8.79
8.74
8.79
8.96
9.27
9.68
10.1
10.37
10.32
9.94
9.3
8.59
8.01
7.62
7.39
7.2
6.97
6.64
6.26
5.83
5.38
4.86
4.27
3.67
3.16
2.84
2.76
2.82
2.84
2.63
2.08
1.22
0.21
-0.74
-1.51
-2.05
-2.42
-2.72
-3.07
-3.56
-4.29
-5.28
-6.51
-7.84
-9.07
-9.99
-10.52
-10.73
-10.86
-11.2
-11.95
-13.22
-14.94
-16.95
-19.02
-20.86
-22.15
-22.56
-21.84
-19.89
-16.85
-13.07
-9.03
-5.19
-1.92
0.6
2.39
3.63
4.55
5.29
5.9
6.31
6.47
6.36
6.12
5.95
5.97
6.21
6.59
6.97
7.28
7.56
7.9
8.34
8.88
9.42
9.84
10.07
10.1
9.96
9.68
9.27
8.71
7.99
7.11
6.1
5.07
4.12
3.31
2.71
2.28
1.97
1.71
1.51
1.46
1.68
2.23
3.07
4.01
4.8
5.2
5.08
4.47
3.48
2.26
0.95
-0.35
-1.6
-2.73
-3.7
-4.49
-5.15
-5.76
-6.49
-7.44
-8.62
-9.91
-11.15
-12.15
-12.81
-13.16
-13.38
-13.68
-14.3
-15.36
-16.86
-18.57
-20.16
-21.19
-21.29
-20.27
-18.17
-15.26
-11.88
-8.43
-5.2
-2.38
-0.06
1.76
3.14
4.16
4.95
5.62
6.27
6.93
7.57
8.15
8.59
8.89
9.09
9.25
9.44
9.73
10.11
10.53
10.89
11.12
11.19
11.09
10.84
10.43
9.87
9.17
8.34
7.47
6.66
5.99
5.52
5.27
5.21
5.28
5.38
5.43
5.34
5.01
4.42
3.55
2.48
1.33
0.25
-0.6
-1.11
-1.25
-1.11
-0.86
-0.7
-0.8
-1.23
-1.94
-2.8
-3.66
-4.39
-4.93
-5.26
-5.47
-5.62
-5.84
-6.23
-6.83
-7.6
-8.44
-9.26
-10.02
-10.77
-11.64
-12.73
-14.11
-15.68
-17.23
-18.47
-19.14
-19.04
-18.08
-16.27
-13.79
-10.86
-7.83
-5.0
-2.61
-0.74
0.67
1.76
2.71
3.61
4.48
5.25
5.85
6.23
6.41
6.49
6.53
6.64
6.86
7.2
7.61
8.03
8.39
8.65
8.83
8.92
8.92
8.74
8.32
7.65
6.81
6.01
5.43
5.2
5.29
5.53
5.73
5.73
5.48
5.04
4.55
4.12
3.83
3.65
3.5
3.3
2.99
2.6
2.16
1.75
1.33
0.88
0.32
-0.37
-1.14
-1.9
-2.61
-3.25
-3.89
-4.58
-5.34
-6.19
-7.09
-8.02
-8.95
-9.84
-10.61
-11.23
-11.71
-12.16
-12.75
-13.69
-15.04
-16.65
-18.16
-19.08
-18.99
-17.65
-15.17
-11.94
-8.47
-5.28
-2.65
-0.66
0.85
2.11
3.3
4.51
5.67
6.69
7.45
7.91
8.08
8.05
7.94
7.86
7.94
8.26
8.83
9.56
10.33
10.92
11.19
11.01
10.38
9.39
8.17
6.92
5.8
4.95
4.49
4.47
4.87
5.56
6.3
6.82
6.9
6.46
5.65
4.74
4.06
3.84
4.07
4.55
4.98
5.11
4.78
4.03
2.98
1.81
0.7
-0.2
-0.82
-1.14
-1.27
-1.38
-1.61
-2.06
-2.72
-3.5
-4.31
-5.07
-5.74
-6.32
-6.8
-7.12
-7.26
-7.26
-7.23
-7.36
-7.82
-8.65
-9.82
-11.24
-12.85
-14.61
-16.5
-18.4
-20.07
-21.16
-21.3
-20.3
-18.21
-15.34
-12.15
-9.07
-6.37
-4.1
-2.15
-0.37
1.35
2.97
4.35
5.36
5.94
6.16
6.19
6.25
6.45
6.83
7.33
7.86
8.34
8.74
9.05
9.26
9.4
9.46
9.43
9.3
9.04
8.64
8.11
7.49
6.87
6.33
5.92
5.6
5.31
5.0
4.71
4.51
4.49
4.69
5.0
5.28
5.36
5.15
4.69
4.12
3.61
3.26
3.08
2.98
2.82
2.52
2.02
1.36
0.59
-0.2
-0.93
-1.55
-2.06
-2.5
-2.96
-3.54
-4.3
-5.23
-6.23
-7.17
-7.96
-8.6
-9.14
-9.67
-10.28
-11.05
-12.03
-13.3
-14.86
-16.62
-18.34
-19.62
-20.03
-19.31
-17.45
-14.71
-11.5
-8.21
-5.14
-2.47
-0.27
1.44
2.67
3.53
4.18
4.82
5.57
6.4
7.22
7.89
8.3
8.5
8.58
8.68
8.89
9.24
9.67
10.15
10.58
10.86
10.82
10.31
9.25
7.75
6.06
4.52
3.45
2.96
2.99
3.35
3.82
4.27
4.65
5.02
5.39
5.73
5.99
6.14
6.23
6.37
6.64
7.04
7.43
7.58
7.26
6.37
4.99
3.36
1.79
0.51
-0.43
-1.11
-1.72
-2.39
-3.14
-3.9
-4.59
-5.14
-5.6
-6.08
-6.66
-7.39
-8.18
-8.88
-9.39
-9.67
-9.84
-10.05
-10.5
-11.32
-12.57
-14.21
-16.09
-17.98
-19.59
-20.55
-20.55
-19.43
-17.24
-14.29
-11.04
-7.94
-5.27
-3.09
-1.31
0.22
1.59
2.85
4.03
5.14
6.23
7.27
8.18
8.84
9.11
8.98
8.57
8.07
7.71
7.63
7.87
8.37
8.96
9.44
9.65
9.45
8.86
7.97
7.02
6.22
5.76
5.68
5.93
6.4
6.95
7.45
7.78
7.88
7.71
7.33
6.82
6.33
5.97
5.76
5.65
5.53
5.25
4.74
4.0
3.1
2.15
1.2
0.26
-0.64
-1.46
-2.11
-2.5
-2.63
-2.58
-2.56
-2.75
-3.25
-4.01
-4.9
-5.76
-6.49
-7.09
-7.67
-8.31
-9.1
-10.04
-11.13
-12.35
-13.69
-15.16
-16.7
-18.19
-19.34
-19.84
-19.39
-17.91
-15.52
-12.55
-9.43
-6.48
-3.89
-1.67
0.25
1.95
3.49
4.9
6.15
7.25
8.2
9.01
9.73
10.39
11.0
11.54
11.97
12.2
12.15
11.84
11.35
10.81
10.32
9.92
9.53
9.07
8.44
7.65
6.76
5.85
5.04
4.42
4.04
3.88
3.91
4.09
4.37
4.72
5.11
5.52
5.92
6.28
6.61
6.92
7.18
7.36
7.39
7.18
6.68
5.93
5.01
3.99
2.95
1.91
0.85
-0.25
-1.37
-2.48
-3.56
-4.61
-5.68
-6.78
-7.87
-8.9
-9.78
-10.46
-10.94
-11.3
-11.59
-11.85
-12.15
-12.54
-13.11
-13.95
-15.08
-16.39
-17.65
-18.54
-18.74
-18.08
-16.53
-14.24
-11.49
-8.61
-5.87
-3.47
-1.53
-0.03
1.11
1.97
2.65
3.21
3.65
3.94
4.06
4.07
4.05
4.16
4.49
5.08
5.84
6.64
7.35
7.92
8.38
8.81
9.26
9.67
9.94
9.96
9.72
9.27
8.74
8.21
7.75
7.35
6.99
6.68
6.43
6.24
6.08
5.87
5.55
5.1
4.55
3.97
3.41
2.89
2.42
1.95
1.44
0.84
0.11
-0.7
-1.52
-2.25
-2.86
-3.4
-3.98
-4.67
-5.46
-6.23
-6.87
-7.31
-7.62
-8.01
-8.68
-9.75
-11.22
-13.0
-14.92
-16.75
-18.23
-19.08
-18.99
-17.79
-15.51
-12.44
-9.05
-5.81
-3.11
-1.08
0.37
1.5
2.54
3.66
4.82
5.89
6.73
7.27
7.55
7.73
8.0
8.45
9.07
9.72
10.23
10.49
10.5
10.39
10.33
10.43
10.66
10.89
10.93
10.64
10.07
9.39
8.83
8.54
8.53
8.63
8.6
8.24
7.5
6.44
5.3
4.3
3.63
3.35
3.39
3.56
3.64
3.5
3.08
2.44
1.7
0.96
0.3
-0.29
-0.82
-1.28
-1.65
-1.94
-2.18
-2.45
-2.87
-3.53
-4.46
-5.58
-6.81
-8.0
-9.09
-10.02
-10.81
-11.52
-12.2
-12.94
-13.8
-14.83
-16.08
-17.51
-18.97
-20.17
-20.78
-20.47
-19.07
-16.65
-13.55
-10.23
-7.13
-4.53
-2.5
-0.91
0.44
1.71
2.95
4.09
5.05
5.76
6.27
6.66
7.07
7.56
8.17
8.82
9.43
9.93
10.31
10.61
10.89
11.16
11.37
11.42
11.24
10.8
10.18
9.5
8.86
8.34
7.9
7.5
7.14
6.84
6.64
6.53
6.41
6.16
5.7
5.02
4.22
3.47
2.88
2.51
2.33
2.26
2.19
2.01
1.66
1.13
0.49
-0.16
-0.71
-1.09
-1.36
-1.63
-2.06
-2.72
-3.62
-4.65
-5.67
-6.53
-7.18
-7.64
-8.02
-8.49
-9.19
-10.24
-11.7
-13.5
-15.48
-17.37
-18.8
-19.36
-18.8
-17.06
-14.36
-11.12
-7.82
-4.83
-2.35
-0.38
1.22
2.62
3.94
5.23
6.46
7.51
8.24
8.56
8.49
8.18
7.9
7.9
8.28
9.01
9.91
10.8
11.58
12.26
12.92
13.56
14.06
14.18
13.68
12.47
10.69
8.7
6.92
5.66
5.01
4.81
4.78
4.65
4.33
3.88
3.48
3.27
3.26
3.33
3.33
3.14
2.81
2.48
2.3
2.33
2.45
2.43
2.08
1.33
0.31
-0.72
-1.49
-1.84
-1.77
-1.41
-0.95
-0.57
-0.41
-0.56
-1.05
-1.84
-2.8
-3.73
-4.43
-4.81
-4.94
-5.03
-5.37
-6.16
-7.44
-8.99
-10.5
-11.64
-12.26
-12.46
-12.53
-12.81
-13.57
-14.88
-16.61
-18.46
-20.06
-21.06
-21.17
-20.22
-18.21
-15.31
-11.86
-8.29
-5.03
-2.39
-0.51
0.64
1.23
1.51
1.75
2.16
2.85
3.79
4.79
5.61
6.05
6.04
5.72
5.32
5.14
5.38
6.07
7.07
8.13
8.93
9.14
8.55
7.18
5.31
3.64
3.07
4.48
8.34
14.49
22.05
29.65
35.86
39.59
40.41
38.51
34.53
29.34
23.75
18.39
13.68
9.84
6.88
4.7
3.05
1.61
0.05
-1.93
-4.43
-7.41
-10.58
-13.57
-15.99
-17.62
-18.44
-18.67
-18.65
-18.69
-18.96
-19.43
-19.87
-20.08
-19.98
-19.69
-19.5
-19.71
-20.44
-21.54
-22.59
-23.16
-22.91
-21.75
-19.79
-17.24
-14.34
-11.29
-8.32
-5.63
-3.44
-1.87
-0.91
-0.39
-0.12
0.14
0.52
1.08
1.79
2.58
3.35
4.09
4.78
5.45
6.12
6.79
7.43
7.99
8.46
8.83
9.12
9.32
9.41
9.35
9.15
8.84
8.53
8.3
8.17
8.13
8.12
8.08
7.94
7.64
7.15
6.49
5.76
5.14
4.77
4.7
4.87
5.1
5.21
5.1
4.79
4.39
3.98
3.58
3.15
2.6
1.91
1.1
0.28
-0.45
-0.99
-1.34
-1.55
-1.73
-1.97
-2.29
-2.68
-3.07
-3.43
-3.77
-4.18
-4.75
-5.54
-6.5
-7.54
-8.52
-9.36
-10.03
-10.61
-11.2
-11.94
-12.92
-14.12
-15.45
-16.71
-17.65
-18.02
-17.68
-16.57
-14.78
-12.45
-9.79
-7.02
-4.36
-2.04
-0.21
1.07
1.85
2.31
2.64
2.99
3.46
4.07
4.78
5.49
6.13
6.66
7.05
7.3
7.46
7.55
7.61
7.64
7.64
7.63
7.63
7.69
7.76
7.78
7.64
7.25
6.61
5.83
5.07
4.51
4.22
4.21
4.36
4.58
4.76
4.91
5.04
5.16
5.24
5.18
4.87
4.2
3.19
1.99
0.85
0.01
-0.4
-0.42
-0.27
-0.22
-0.53
-1.25
-2.33
-3.61
-4.9
-6.08
-7.08
-7.86
-8.42
-8.85
-9.27
-9.9
-10.9
-12.28
-13.89
-15.4
-16.43
-16.65
-15.92
-14.29
-12.04
-9.49
-6.99
-4.73
-2.79
-1.13
0.36
1.75
3.08
4.28
5.28
6.01
6.43
6.61
6.68
6.8
7.08
7.55
8.11
8.64
9.02
9.22
9.29
9.34
9.42
9.54
9.61
9.56
9.35
8.99
8.51
7.97
7.36
6.69
5.98
5.31
4.79
4.51
4.48
4.6
4.68
4.53
4.06
3.35
2.66
2.28
2.39
2.91
3.52
3.74
3.24
1.99
0.32
-1.24
-2.23
-2.47
-2.12
-1.55
-1.17
-1.26
-1.95
-3.31
-5.28
-7.52
-9.29
-9.5
-7.03
-1.33
7.03
16.38
24.39
28.9
28.77
24.16
16.37
7.16
-1.86
-9.67
-15.77
-20.07
-22.6
-23.44
-22.79
-21.02
-18.7
-16.43
-14.69
-13.68
-13.24
-12.98
-12.46
-11.45
-10.0
-8.43
-7.1
-6.23
-5.8
-5.55
-5.13
-4.33
-3.08
-1.52
0.11
1.55
2.62
3.19
3.24
2.88
2.27
1.63
1.14
0.93
1.03
1.41
2.01
2.76
3.57
4.36
5.01
5.45
5.67
5.72
5.73
5.84
6.12
6.53
6.97
7.29
7.35
7.06
6.42
5.51
4.53
3.67
3.06
2.77
2.72
2.72
2.56
2.03
1.05
-0.34
-1.99
-3.68
-5.17
-6.33
-7.12
-7.65
-8.11
-8.7
-9.57
-10.75
-12.17
-13.62
-14.87
-15.63
-15.64
-14.73
-12.9
-10.31
-7.31
-4.33
-1.78
0.11
1.34
2.14
2.83
3.71
4.87
6.23
7.55
8.65
9.4
9.85
10.07
10.11
10.02
9.79
9.51
9.33
9.39
9.71
10.19
10.6
10.72
10.48
9.96
9.35
8.76
8.26
7.8
7.36
6.95
6.66
6.56
6.63
6.73
6.7
6.43
5.96
5.42
4.95
4.65
4.51
4.42
4.27
3.99
3.57
3.05
2.46
1.85
1.27
0.76
0.4
0.21
0.15
0.12
-0.02
-0.37
-0.97
-1.74
-2.56
-3.29
-3.9
-4.4
-4.92
-5.55
-6.36
-7.31
-8.31
-9.21
-9.92
-10.37
-10.66
-10.95
-11.51
-12.57
-14.26
-16.46
-18.84
-20.94
-22.27
-22.55
-21.75
-20.09
-17.96
-15.72
-13.64
-11.82
-10.28
-8.92
-7.6
-6.13
-4.29
-1.96
0.87
4.04
7.37
10.75
14.24
18.0
22.11
26.35
30.18
32.98
34.29
34.12
32.9
31.28
29.71
28.29
26.73
24.61
21.69
18.05
13.99
9.82
5.55
0.72
-5.52
-13.97
-24.92
-37.56
-49.88
-58.99
-62.02
-57.29
-45.1
-27.9
-9.64
5.55
14.73
16.87
13.01
5.77
-1.39
-4.96
-2.13
8.48
26.33
49.09
73.29
95.51
113.45
126.5
135.59
142.36
148.12
153.26
157.08
158.23
155.39
147.82
135.63
119.71
101.44
82.27
63.34
45.24
28.06
11.76
-3.55
-17.49
-29.5
-39.18
-46.43
-51.47
-54.57
-55.87
-55.16
-52.09
-46.57
-39.04
-30.59
-22.74
-16.84
-13.65
-13.05
-14.29
-16.48
-19.02
-21.79
-25.03
-28.9
-33.15
-37.14
-39.96
-40.85
-39.5
-36.11
-31.39
-26.22
-21.5
-17.84
-15.41
-13.89
-12.63
-10.95
-8.43
-5.16
-1.78
0.78
1.69
0.56
-2.39
-6.36
-10.28
-13.17
-14.45
-14.13
-12.75
-11.11
-9.86
-9.21
-8.93
-8.57
-7.89
-7.15
-7.09
-8.53
-11.85
-16.67
-21.93
-26.43
-29.38
-30.78
-31.32
-31.93
-33.26
-35.48
-38.36
-41.58
-44.94
-48.33
-51.54
-54.13
-55.4
-54.63
-51.47
-46.18
-39.73
-33.64
-29.64
-29.2
-33.05
-40.97
-51.77
-63.52
-74.08
-81.55
-84.68
-82.98
-76.67
-66.48
-53.35
-38.4
-22.72
-7.3
7.2
20.35
31.82
40.96
46.45
46.52
39.56
25.18
4.88
-18.04
-39.41
-55.47
-63.82
-63.63
-55.25
-39.71
-18.51
6.16
31.18
52.78
67.3
72.37
67.67
55.03
37.66
19.12
2.39
-10.62
-19.0
-22.75
-22.46
-19.08
-13.62
-6.94
0.36
7.86
15.15
21.81
27.33
31.34
33.69
34.51
34.1
32.73
30.55
27.67
24.3
20.95
18.39
17.38
18.41
21.33
25.39
29.46
32.42
33.52
32.5
29.58
25.23
19.95
14.1
7.86
1.24
-5.83
-13.37
-21.28
-29.23
-36.63
-42.7
-46.61
-47.75
-45.92
-41.48
-35.25
-28.24
-21.41
-15.32
-10.12
-5.66
-1.77
1.62
4.32
6.08
6.68
6.0
3.96
0.41
-4.88
-12.01
-20.67
-29.9
-37.97
-42.77
-42.46
-36.19
-24.62
-9.75
5.62
18.97
28.79
35.0
38.63
41.04
43.22
45.33
46.92
47.45
46.89
45.86
45.43
46.5
49.35
53.45
57.65
60.63
61.47
60.01
56.89
53.32
50.61
49.72
50.92
53.77
57.33
60.51
62.41
62.47
60.62
57.27
53.3
49.96
48.53
49.83
53.6
58.05
60.14
56.47
44.64
24.47
-1.63
-29.62
-55.58
-77.46
-95.8
-112.85
-130.7
-149.49
-166.77
-178.37
-180.41
-171.08
-151.33
-124.62
-95.85
-70.44
-53.41
-48.56
-57.41
-78.33
-106.58
-135.52
-158.93
-173.09
-177.67
-174.85
-167.47
-157.5
-145.49
-131.39
-115.68
-99.93
-86.2
-76.01
-69.39
-64.96
-60.86
-55.82
-49.83
-44.06
-40.03
-38.7
-39.99
-42.89
-45.95
-48.09
-49.03
-49.26
-49.65
-50.78
-52.53
-54.04
-54.04
-51.36
-45.51
-36.78
-26.19
-15.1
-4.77
3.99
10.98
16.48
21.07
25.27
29.35
33.3
36.92
40.05
42.64
44.81
46.76
48.67
50.62
52.6
54.56
56.49
58.39
60.25
61.98
63.35
64.1
63.97
62.89
60.99
58.63
56.25
54.2
52.64
51.52
50.62
49.7
48.62
47.31
45.82
44.19
42.44
40.55
38.45
36.07
33.32
30.18
26.74
23.14
19.56
16.12
12.79
9.39
5.64
1.22
-3.98
-9.81
-15.73
-20.92
-24.38
-25.22
-22.98
-17.75
-10.27
-1.66
6.87
14.44
20.6
25.43
29.3
32.67
35.85
38.96
41.88
44.4
46.33
47.6
48.33
48.77
49.18
49.73
50.4
51.07
51.61
51.96
52.18
52.35
52.45
52.34
51.79
50.59
48.74
46.44
44.01
41.78
39.98
38.67
37.86
37.49
37.52
37.84
38.28
38.53
38.26
37.19
35.22
32.43
29.06
25.41
21.75
18.25
14.99
11.97
9.11
6.3
3.4
0.29
-3.02
-6.44
-9.75
-12.76
-15.33
-17.58
-19.79
-22.39
-25.66
-29.59
-33.78
-37.41
-39.55
-39.38
-36.52
-31.16
-24.01
-16.05
-8.28
-1.37
4.36
8.96
12.68
15.78
18.42
20.69
22.59
24.15
25.4
26.41
27.27
28.0
28.63
29.16
29.58
29.93
30.27
30.63
31.01
31.34
31.51
31.35
30.79
29.81
28.53
27.08
25.62
24.2
22.82
21.41
19.92
18.35
16.74
15.15
13.6
12.07
10.55
8.99
7.41
5.82
4.24
2.65
1.03
-0.67
-2.5
-4.43
-6.43
-8.4
-10.24
-11.86
-13.22
-14.39
-15.53
-16.9
-18.74
-21.21
-24.27
-27.62
-30.73
-32.92
-33.53
-32.06
-28.36
-22.7
-15.79
-8.57
-1.95
3.47
7.51
10.43
12.68
14.7
16.71
18.72
20.6
22.22
23.54
24.64
25.64
26.72
27.98
29.54
31.44
33.68
36.21
38.91
41.6
44.11
46.25
47.96
49.28
50.4
51.59
53.02
54.65
56.25
57.56
58.52
59.4
60.75
63.22
67.31
73.24
80.85
89.51
98.07
104.88
107.93
105.26
95.51
78.4
54.93
27.06
-2.88
-32.79
-61.14
-86.91
-109.32
-127.7
-141.47
-150.26
-154.07
-153.33
-148.85
-141.67
-132.92
-123.68
-114.8
-106.7
-99.29
-91.91
-83.75
-74.26
-63.58
-52.68
-42.9
-35.32
-30.13
-26.54
-23.17
-18.71
-12.55
-4.92
3.4
11.69
19.62
27.35
35.04
42.34
48.17
51.04
49.74
44.11
35.39
25.89
18.23
14.44
15.37
20.62
28.88
38.42
47.44
54.41
58.09
57.81
53.57
46.14
36.84
27.16
18.33
10.97
5.2
0.83
-2.27
-4.05
-4.32
-3.01
-0.41
2.69
5.19
5.97
4.34
0.36
-5.24
-11.24
-16.45
-20.09
-21.91
-22.13
-21.21
-19.62
-17.69
-15.64
-13.66
-12.02
-11.09
-11.28
-12.92
-16.07
-20.42
-25.2
-29.44
-32.21
-32.94
-31.61
-28.69
-24.97
-21.22
-18.08
-15.87
-14.51
-13.56
-12.24
-9.68
-5.26
1.09
8.77
16.67
23.63
28.77
31.77
32.74
32.03
29.98
26.84
22.86
18.41
14.0
10.16
7.31
5.51
4.44
3.56
2.33
0.43
-2.03
-4.58
-6.59
-7.51
-7.17
-5.83
-4.07
-2.56
-1.75
-1.75
-2.39
-3.41
-4.59
-5.94
-7.54
-9.55
-12.01
-14.88
-18.03
-21.25
-24.25
-26.67
-28.05
-28.01
-26.34
-23.22
-19.15
-14.82
-10.86
-7.63
-5.17
-3.31
-1.81
-0.54
0.52
1.32
1.85
2.2
2.51
2.92
3.54
4.33
5.22
6.07
6.79
7.29
7.59
7.7
7.69
7.6
7.45
7.22
6.85
6.24
5.37
4.25
3.04
1.92
1.1
0.63
0.39
0.1
-0.53
-1.66
-3.23
-4.94
-6.45
-7.53
-8.19
-8.69
-9.38
-10.54
-12.24
-14.28
-16.32
-18.06
-19.41
-20.52
-21.7
-23.23
-25.18
-27.36
-29.37
-30.72
-30.93
-29.43
-25.59
-18.81
-8.89
3.57
17.0
29.13
37.7
41.34
40.03
35.0
28.13
21.11
14.96
9.98
6.17
3.57
2.42
2.92
4.95
7.91
10.81
12.7
13.0
11.76
9.47
6.89
4.65
3.03
1.96
1.17
0.37
-0.55
-1.53
-2.4
-2.98
-3.21
-3.14
-2.89
-2.61
-2.4
-2.34
-2.48
-2.86
-3.44
-4.16
-4.88
-5.47
-5.86
-6.11
-6.39
-6.91
-7.79
-9.0
-10.38
-11.71
-12.81
-13.66
-14.4
-15.23
-16.37
-17.99
-20.07
-22.49
-24.91
-26.84
-27.75
-27.23
-25.13
-21.7
-17.53
-13.3
-9.62
-6.75
-4.62
-2.93
-1.31
0.44
2.32
4.13
5.62
6.62
7.1
7.19
7.11
7.09
7.31
7.81
8.53
9.3
9.93
10.28
10.29
10.05
9.71
9.44
9.3
9.28
9.28
9.18
8.92
8.49
7.97
7.39
6.78
6.15
5.54
5.0
4.55
4.21
3.92
3.61
3.23
2.74
2.14
1.4
0.49
-0.59
-1.78
-2.92
-3.86
-4.52
-4.98
-5.43
-6.09
-7.07
-8.32
-9.69
-11.06
-12.4
-13.75
-15.17
-16.67
-18.18
-19.62
-21.02
-22.56
-24.49
-26.99
-30.02
-33.22
-36.03
-37.84
-38.23
-37.06
-34.65
-31.62
-28.86
-27.19
-27.16
-28.79
-31.52
-34.42
-36.56
-37.37
-36.75
-34.98
-32.42
-29.21
-25.2
-20.16
-13.92
-6.65
1.12
8.58
14.89
19.39
21.89
22.74
22.88
23.72
26.98
34.27
46.65
64.13
85.23
107.11
126.16
139.16
144.38
142.28
135.19
126.18
117.63
110.26
103.17
94.79
84.0
70.87
56.63
43.04
31.75
23.79
19.49
18.45
19.58
21.22
21.47
18.82
12.77
4.16
-5.05
-12.64
-16.97
-17.55
-15.06
-10.97
-7.08
-5.26
-7.41
-15.22
-29.87
-51.39
-78.38
-108.03
-136.64
-160.59
-177.18
-185.24
-185.27
-179.18
-169.57
-158.91
-148.75
-139.45
-130.48
-121.05
-110.63
-98.93
-85.52
-69.68
-50.83
-29.58
-8.38
9.04
19.58
22.82
21.79
21.52
26.18
36.56
49.68
60.79
66.31
65.88
62.28
59.44
60.1
64.5
70.64
75.61
76.91
73.18
64.48
52.06
38.14
25.26
15.51
9.73
7.26
6.48
5.79
4.43
2.65
1.1
0.02
-1.13
-3.34
-7.36
-13.04
-19.39
-25.04
-29.06
-31.31
-32.35
-32.96
-33.58
-34.14
-34.18
-33.12
-30.52
-26.2
-20.34
-13.45
-6.44
-0.4
3.69
5.37
4.97
3.47
2.04
1.38
1.41
1.34
0.24
-2.35
-6.04
-9.86
-12.83
-14.5
-15.15
-15.39
-15.73
-16.12
-16.1
-15.08
-12.87
-9.81
-6.62
-4.07
-2.63
-2.36
-3.08
-4.54
-6.51
-8.68
-10.68
-12.04
-12.45
-11.99
-11.19
-10.91
-12.04
-15.06
-19.93
-25.99
-32.36
-38.22
-43.23
-47.69
-52.48
-58.74
-67.34
-78.48
-91.54
-105.14
-117.68
-127.65
-134.12
-136.89
-136.6
-134.56
-132.47
-131.86
-133.4
-136.41
-138.88
-138.09
-131.8
-119.35
-102.05
-82.57
-63.52
-46.05
-29.24
-10.68
12.1
40.28
73.11
108.52
144.37
179.59
214.47
249.94
286.32
322.4
355.28
381.24
396.91
400.29
391.1
370.66
341.33
306.21
268.79
232.57
200.59
174.7
155.13
140.57
128.86
117.9
106.33
93.77
80.48
67.01
54.03
42.45
33.52
28.61
28.59
33.15
40.57
48.1
53.07
53.98
50.91
45.28
38.9
32.91
27.39
21.6
14.71
6.56
-2.1
-9.89
-15.57
-18.68
-19.76
-20.12
-21.18
-23.81
-28.06
-33.19
-38.19
-42.22
-44.9
-46.3
-46.76
-46.6
-45.9
-44.54
-42.34
-39.13
-34.93
-29.95
-24.52
-19.09
-14.17
-10.25
-7.75
-6.95
-7.84
-10.1
-13.14
-16.22
-18.6
-19.78
-19.58
-18.17
-16.03
-13.76
-11.93
-11.0
-11.17
-12.49
-14.78
-17.74
-20.98
-24.14
-27.0
-29.6
-32.21
-35.2
-38.82
-42.98
-47.24
-50.9
-53.44
-54.7
-55.02
-55.03
-55.27
-55.93
-56.77
-57.38
-57.46
-57.15
-56.94
-57.51
-59.39
-62.69
-67.13
-72.12
-76.99
-81.17
-84.24
-85.93
-86.09
-84.69
-81.86
-77.93
-73.43
-68.89
-64.68
-60.84
-57.14
-53.19
-48.68
-43.53
-37.88
-32.05
-26.33
-21.03
-16.38
-12.47
-9.14
-5.9
-2.03
3.12
9.68
17.08
24.2
29.95
33.77
36.0
37.61
39.67
42.76
46.64
50.47
53.2
54.06
52.79
49.56
44.61
38.08
29.79
19.33
6.31
-9.3
-26.92
-45.23
-62.43
-76.64
-86.61
-92.04
-93.69
-92.9
-90.93
-88.41
-85.14
-80.44
-73.76
-65.32
-56.32
-48.61
-44.04
-43.75
-47.72
-54.76
-63.02
-70.53
-75.68
-77.48
-75.52
-69.82
-60.76
-49.26
-37.1
-27.12
-22.79
-27.23
-41.99
-66.13
-96.13
-127.02
-153.71
-172.35
-180.71
-178.03
-164.76
-142.96
-117.06
-93.99
-81.68
-86.11
-108.11
-141.91
-176.83
-201.41
-208.1
-195.68
-168.52
-133.05
-93.94
-52.48
-7.7
40.48
88.7
130.08
156.92
164.65
154.71
134.82
116.2
109.32
119.83
146.85
184.02
222.52
254.45
274.77
281.23
272.92
248.95
208.73
153.65
89.01
24.35
-28.45
-59.11
-62.37
-39.36
3.8
58.98
118.62
176.51
226.72
262.72
277.97
268.42
235.3
186.2
133.05
87.85
58.16
44.82
42.76
43.95
41.25
30.78
12.51
-10.78
-35.1
-56.61
-72.51
-81.21
-82.35
-76.74
-66.22
-53.34
-40.78
-30.75
-24.38
-21.26
-19.32
-15.24
-5.35
13.09
40.76
75.77
113.95
150.05
178.98
196.62
200.12
188.19
161.39
122.64
77.31
32.43
-4.99
-30.21
-42.21
-43.94
-40.75
-38.1
-39.47
-45.42
-54.03
-62.35
-67.91
-69.87
-69.23
-68.18
-68.98
-72.66
-78.34
-83.5
-85.2
-81.47
-72.26
-59.4
-45.94
-35.28
-30.53
-34.11
-47.14
-68.64
-94.96
-120.07
-137.23
-141.5
-131.82
-111.64
-87.4
-65.78
-51.02
-43.77
-41.69
-41.21
-39.28
-34.28
-25.96
-14.76
-1.39
13.31
28.12
41.29
50.76
54.6
51.77
42.54
28.64
12.86
-1.65
-12.37
-18.05
-18.98
-16.65
-12.93
-9.18
-5.63
-1.49
4.49
13.01
23.58
34.39
42.99
47.34
46.65
41.7
34.33
26.61
19.95
14.7
10.38
6.16
1.47
-3.82
-9.47
-15.08
-20.39
-25.35
-29.99
-34.42
-38.67
-42.78
-46.62
-49.94
-52.21
-52.72
-50.76
-46.09
-39.3
-31.79
-25.37
-21.42
-20.3
-21.1
-22.22
-22.23
-20.65
-18.05
-15.54
-13.86
-12.87
-11.62
-8.91
-4.16
2.28
9.25
15.5
20.26
23.59
26.07
28.35
30.74
33.08
34.99
36.2
36.78
37.08
37.52
38.25
39.1
39.51
38.85
36.6
32.64
27.25
21.09
14.95
9.5
5.12
1.77
-0.95
-3.67
-6.9
-10.92
-15.67
-20.71
-25.46
-29.28
-31.58
-31.95
-30.1
-26.05
-20.1
-12.89
-5.29
1.8
7.65
11.97
14.89
16.88
18.49
20.14
21.95
23.78
25.38
26.54
27.21
27.54
27.75
28.09
28.69
29.57
30.62
31.66
32.5
32.99
33.12
32.97
32.68
32.34
31.92
31.24
30.09
28.35
26.06
23.46
20.84
18.45
16.34
14.45
12.61
10.7
8.67
6.58
4.49
2.47
0.55
-1.31
-3.14
-5.04
-7.12
-9.5
-12.3
-15.55
-19.15
-22.74
-25.78
-27.6
-27.65
-25.67
-21.8
-16.6
-10.87
-5.35
-0.54
3.4
6.64
9.44
12.03
14.48
16.69
18.5
19.82
20.7
21.31
21.87
22.55
23.34
24.16
24.83
25.26
25.47
25.61
25.84
26.25
26.74
27.06
26.89
26.06
24.6
22.77
20.9
19.26
17.9
16.69
15.41
13.94
12.31
10.69
9.22
7.96
6.8
5.55
4.02
2.18
0.13
-1.91
-3.75
-5.24
-6.44
-7.52
-8.75
-10.38
-12.58
-15.41
-18.74
-22.28
-25.53
-27.9
-28.8
-27.87
-25.02
-20.61
-15.27
-9.76
-4.72
-0.53
2.72
5.16
7.06
8.71
10.32
11.98
13.63
15.08
16.13
16.67
16.78
16.64
16.52
16.58
16.87
17.33
17.85
18.34
18.8
19.21
19.54
19.7
19.53
18.86
17.61
15.84
13.79
11.75
10.0
8.67
7.73
6.97
6.18
5.22
4.1
2.93
1.82
0.81
-0.18
-1.28
-2.56
-4.01
-5.57
-7.11
-8.55
-9.84
-11.01
-12.14
-13.34
-14.76
-16.49
-18.64
-21.17
-23.86
-26.27
-27.83
-28.02
-26.53
-23.42
-19.15
-14.37
-9.72
-5.63
-2.23
0.55
2.85
4.76
6.27
7.32
7.91
8.09
8.02
7.9
7.92
8.19
8.72
9.44
10.26
11.1
11.92
12.71
13.43
14.03
14.37
14.38
14.0
13.31
12.41
11.41
10.35
9.23
8.03
6.78
5.53
4.39
3.38
2.47
1.57
0.62
-0.41
-1.48
-2.55
-3.6
-4.7
-5.96
-7.45
-9.11
-10.82
-12.37
-13.64
-14.63
-15.52
-16.56
-18.02
-20.05
-22.57
-25.25
-27.53
-28.75
-28.4
-26.29
-22.66
-18.12
-13.41
-9.13
-5.58
-2.75
-0.41
1.61
3.42
4.97
6.24
7.26
8.1
8.84
9.51
10.07
10.49
10.75
10.93
11.13
11.47
11.98
12.53
12.94
13.01
12.67
11.96
11.08
10.25
9.55
8.98
8.39
7.64
6.69
5.59
4.47
3.45
2.55
1.72
0.89
0.03
-0.83
-1.6
-2.23
-2.73
-3.17
-3.72
-4.53
-5.69
-7.19
-8.9
-10.62
-12.16
-13.44
-14.51
-15.55
-16.8
-18.47
-20.61
-23.11
-25.65
-27.79
-29.04
-29.01
-27.51
-24.62
-20.7
-16.3
-11.97
-8.15
-5.05
-2.67
-0.87
0.58
1.87
3.1
4.33
5.52
6.6
7.49
8.16
8.62
9.0
9.41
9.92
10.54
11.16
11.65
11.92
12.01
11.99
11.98
12.04
12.09
12.0
11.65
11.01
10.17
9.23
8.29
7.37
6.44
5.5
4.58
3.75
3.09
2.62
2.26
1.89
1.36
0.61
-0.37
-1.53
-2.76
-3.94
-4.99
-5.86
-6.59
-7.32
-8.2
-9.33
-10.67
-12.09
-13.4
-14.47
-15.33
-16.14
-17.19
-18.72
-20.82
-23.38
-26.07
-28.4
-29.79
-29.81
-28.23
-25.11
-20.87
-16.1
-11.44
-7.39
-4.22
-1.89
-0.2
1.14
2.42
3.78
5.24
6.67
7.86
8.63
8.94
8.91
8.84
9.0
9.57
10.54
11.75
13.01
14.15
15.09
15.79
16.21
16.28
15.91
15.1
13.95
12.62
11.34
10.3
9.57
9.17
9.0
8.89
8.7
8.32
7.75
7.1
6.48
5.95
5.44
4.78
3.81
2.47
0.82
-0.94
-2.61
-4.05
-5.23
-6.22
-7.14
-8.1
-9.18
-10.39
-11.69
-13.01
-14.27
-15.4
-16.43
-17.49
-18.74
-20.36
-22.37
-24.58
-26.59
-27.85
-27.86
-26.34
-23.36
-19.31
-14.79
-10.43
-6.67
-3.7
-1.5
0.11
1.32
2.33
3.26
4.18
5.09
5.98
6.77
7.44
8.04
8.62
9.31
10.12
11.03
11.92
12.69
13.27
13.67
13.93
14.08
14.1
13.96
13.61
13.08
12.44
11.77
11.12
10.51
9.86
9.1
8.16
7.08
5.93
4.83
3.89
3.16
2.58
2.02
1.38
0.58
-0.34
-1.28
-2.12
-2.85
-3.52
-4.28
-5.3
-6.6
-8.09
-9.56
-10.76
-11.59
-12.12
-12.59
-13.33
-14.6
-16.52
-18.98
-21.68
-24.19
-26.0
-26.64
-25.77
-23.36
-19.69
-15.31
-10.91
-7.07
-4.06
-1.88
-0.28
1.06
2.34
3.63
4.89
6.01
6.95
7.73
8.39
8.96
9.46
9.88
10.22
10.52
10.85
11.27
11.76
12.25
12.61
12.74
12.61
12.27
11.82
11.31
10.76
10.12
9.36
8.46
7.52
6.65
5.96
5.45
5.1
4.78
4.41
3.95
3.39
2.81
2.26
1.73
1.17
0.5
-0.31
-1.25
-2.23
-3.16
-4.05
-4.97
-6.0
-7.17
-8.39
-9.49
-10.37
-11.07
-11.82
-12.91
-14.56
-16.73
-19.16
-21.34
-22.74
-22.94
-21.77
-19.34
-15.99
-12.19
-8.38
-4.93
-2.03
0.26
2.0
3.3
4.26
5.0
5.59
6.09
6.52
6.93
7.33
7.82
8.46
9.29
10.28
11.31
12.26
13.0
13.49
13.73
13.75
13.55
13.14
12.51
11.68
10.76
9.87
9.12
8.57
8.17
7.83
7.43
6.95
6.41
5.91
5.5
5.17
4.83
4.37
3.75
3.0
2.22
1.51
0.89
0.29
-0.38
-1.22
-2.29
-3.54
-4.87
-6.16
-7.28
-8.13
-8.75
-9.25
-9.86
-10.83
-12.32
-14.35
-16.8
-19.41
-21.86
-23.76
-24.76
-24.56
-23.01
-20.18
-16.43
-12.26
-8.3
-5.03
-2.64
-1.04
0.11
1.19
2.46
3.96
5.53
6.9
7.86
8.38
8.57
8.69
8.97
9.53
10.29
11.05
11.59
11.84
11.83
11.74
11.69
11.68
11.6
11.27
10.65
9.86
9.16
8.78
8.78
8.95
9.0
8.65
7.84
6.74
5.67
4.88
4.5
4.44
4.53
4.55
4.37
3.92
3.2
2.29
1.32
0.4
-0.42
-1.2
-2.03
-3.08
-4.39
-5.9
-7.45
-8.82
-9.92
-10.76
-11.5
-12.36
-13.52
-15.09
-17.02
-19.12
-21.07
-22.47
-22.91
-22.1
-20.0
-16.84
-13.11
-9.38
-6.12
-3.55
-1.64
-0.19
1.02
2.13
3.15
4.03
4.71
5.16
5.44
5.66
5.92
6.33
6.93
7.71
8.59
9.47
10.27
10.98
11.6
12.12
12.49
12.59
12.31
11.62
10.61
9.45
8.34
7.39
6.64
6.04
5.51
4.97
4.35
3.62
2.8
1.93
1.1
0.36
-0.28
-0.86
-1.48
-2.19
-3.04
-4.0
-5.0
-5.97
-6.83
-7.53
-8.07
-8.54
-9.08
-9.91
-11.2
-13.01
-15.24
-17.63
-19.84
-21.5
-22.26
-21.9
-20.33
-17.67
-14.24
-10.49
-6.89
-3.79
-1.35
0.44
1.78
2.89
3.9
4.88
5.81
6.6
7.21
7.66
8.0
8.35
8.78
9.32
9.93
10.55
11.13
11.73
12.39
13.09
13.72
14.06
13.91
13.22
12.12
10.91
9.87
9.18
8.77
8.45
7.98
7.29
6.47
5.71
5.19
5.01
5.1
5.31
5.49
5.5
5.28
4.83
4.19
3.45
2.71
2.06
1.51
1.0
0.37
-0.52
-1.74
-3.19
-4.67
-5.94
-6.87
-7.51
-8.08
-8.89
-10.22
-12.14
-14.53
-17.06
-19.33
-20.92
-21.52
-21.01
-19.4
-16.88
-13.81
-10.61
-7.71
-5.44
-3.9
-2.97
-2.33
-1.68
-0.79
0.37
1.63
2.76
3.59
4.08
4.36
4.61
5.04
5.7
6.53
7.34
8.01
8.44
8.71
8.91
9.13
9.35
9.45
9.24
8.61
7.57
6.27
4.92
3.69
2.68
1.88
1.22
0.66
0.17
-0.19
-0.37
-0.36
-0.25
-0.2
-0.37
-0.87
-1.61
-2.41
-3.05
-3.41
-3.51
-3.51
-3.57
-3.84
-4.32
-5.0
-5.8
-6.68
-7.62
-8.61
-9.63
-10.69
-11.8
-12.97
-14.26
-15.72
-17.35
-19.09
-20.81
-22.26
-23.06
-22.85
-21.35
-18.46
-14.32
-9.35
-4.16
0.64
4.48
7.07
8.39
8.72
8.46
8.0
7.54
7.07
6.47
5.67
4.76
3.96
3.54
3.67
4.31
5.29
6.4
7.54
8.71
9.97
11.3
12.55
13.47
13.8
13.47
12.55
11.27
9.85
8.45
7.12
5.88
4.75
3.81
3.14
2.81
2.75
2.88
3.02
3.06
2.87
2.38
1.53
0.31
-1.22
-2.92
-4.6
-6.14
-7.55
-8.95
-10.55
-12.55
-14.97
-17.62
-20.13
-22.05
-22.98
-22.71
-21.24
-18.77
-15.67
-12.37
-9.3
-6.8
-5.02
-3.85
-3.0
-2.07
-0.75
1.04
3.12
5.13
6.73
7.71
8.14
8.25
8.33
8.6
9.12
9.76
10.38
10.87
11.22
11.52
11.85
12.23
12.52
12.47
11.9
10.82
9.45
8.14
7.2
6.71
6.49
6.27
5.82
5.08
4.17
3.28
2.53
1.87
1.15
0.17
-1.13
-2.66
-4.18
-5.44
-6.29
-6.83
-7.3
-8.1
-9.51
-11.64
-14.27
-16.97
-19.17
-20.35
-20.2
-18.71
-16.12
-12.88
-9.45
-6.21
-3.4
-1.09
0.76
2.23
3.42
4.41
5.27
6.07
6.8
7.44
7.93
8.25
8.41
8.5
8.65
8.93
9.37
9.91
10.4
10.71
10.76
10.59
10.32
10.09
9.95
9.84
9.63
9.23
8.65
8.01
7.46
7.1
6.92
6.79
6.53
5.98
5.09
3.9
2.56
1.29
0.29
-0.3
-0.55
-0.67
-0.96
-1.68
-2.89
-4.46
-6.11
-7.56
-8.67
-9.44
-10.06
-10.8
-11.92
-13.57
-15.69
-18.0
-20.0
-21.15
-21.04
-19.54
-16.83
-13.39
-9.75
-6.44
-3.76
-1.76
-0.3
0.88
1.98
3.11
4.24
5.23
5.98
6.45
6.78
7.14
7.67
8.4
9.23
10.01
10.63
11.12
11.58
12.11
12.75
13.43
13.98
14.24
14.1
13.58
12.76
11.77
10.74
9.77
8.92
8.19
7.59
7.11
6.71
6.37
6.01
5.57
4.93
4.03
2.85
1.47
0.02
-1.32
-2.4
-3.18
-3.69
-4.07
-4.48
-5.08
-5.94
-7.05
-8.34
-9.72
-11.14
-12.6
-14.19
-15.99
-18.01
-20.12
-22.03
-23.33
-23.64
-22.73
-20.63
-17.59
-14.05
-10.47
-7.21
-4.48
-2.33
-0.68
0.58
1.58
2.41
3.14
3.75
4.24
4.59
4.82
5.02
5.34
5.88
6.7
7.74
8.87
9.89
10.66
11.16
11.4
11.46
11.4
11.2
10.82
10.26
9.53
8.73
7.98
7.4
7.05
6.92
6.9
6.82
6.5
5.87
5.0
4.04
3.18
2.51
1.96
1.4
0.67
-0.34
-1.58
-2.93
-4.28
-5.51
-6.59
-7.49
-8.23
-8.84
-9.46
-10.24
-11.38
-13.02
-15.17
-17.68
-20.18
-22.16
-23.06
-22.49
-20.33
-16.88
-12.73
-8.59
-5.05
-2.42
-0.67
0.49
1.42
2.45
3.73
5.23
6.77
8.13
9.15
9.79
10.18
10.52
10.95
11.47
11.95
12.27
12.37
12.34
12.31
12.41
12.63
12.83
12.85
12.59
12.06
11.38
10.71
10.17
9.77
9.44
9.03
8.41
7.5
6.33
5.03
3.82
2.9
2.36
2.11
1.98
1.75
1.3
0.64
-0.1
-0.81
-1.45
-2.12
-2.99
-4.15
-5.59
-7.1
-8.49
-9.62
-10.51
-11.34
-12.36
-13.7
-15.34
-17.06
-18.49
-19.26
-19.09
-17.88
-15.79
-13.11
-10.25
-7.55
-5.21
-3.3
-1.72
-0.39
0.8
1.89
2.93
3.9
4.78
5.52
6.07
6.41
6.58
6.64
6.71
6.91
7.31
7.93
8.72
9.56
10.28
10.73
10.78
10.42
9.76
9.0
8.31
7.82
7.54
7.39
7.25
7.07
6.79
6.42
5.97
5.46
4.91
4.36
3.83
3.37
2.94
2.49
1.92
1.14
0.09
-1.18
-2.58
-3.98
-5.24
-6.33
-7.25
-8.07
-8.87
-9.73
-10.72
-11.85
-13.08
-14.36
-15.58
-16.55
-17.08
-16.98
-16.16
-14.61
-12.45
-9.84
-7.02
-4.22
-1.67
0.47
2.13
3.36
4.3
5.11
5.92
6.73
7.46
7.99
8.26
8.34
8.4
8.61
9.06
9.71
10.39
10.95
11.3
11.42
11.38
11.25
11.02
10.69
10.21
9.59
8.9
8.21
7.6
7.08
6.59
6.08
5.53
4.97
4.47
4.08
3.81
3.6
3.37
3.06
2.62
2.06
1.4
0.68
-0.01
-0.57
-0.91
-0.95
-0.75
-0.48
-0.34
-0.53
-1.1
-1.99
-3.08
-4.26
-5.61
-7.25
-9.34
-11.85
-14.54
-16.9
-18.38
-18.48
-17.01
-14.12
-10.25
-5.98
-1.88
1.61
4.3
6.24
7.6
8.58
9.35
9.98
10.46
10.75
10.82
10.7
10.41
10.02
9.53
8.92
8.19
7.34
6.46
5.68
5.15
4.94
4.99
5.16
5.22
5.01
4.49
3.71
2.85
2.09
1.56
1.3
1.26
1.33
1.37
1.22
0.76
0.01
-0.9
-1.74
-2.3
-2.53
-2.56
-2.66
-3.01
-3.64
-4.36
-4.93
-5.28
-5.49
-5.85
-6.58
-7.73
-9.12
-10.41
-11.36
-11.9
-12.18
-12.47
-13.0
-13.83
-14.89
-16.07
-17.26
-18.43
-19.51
-20.33
-20.62
-20.08
-18.57
-16.19
-13.3
-10.39
-7.91
-6.06
-4.76
-3.8
-2.95
-2.08
-1.21
-0.46
0.09
0.42
0.63
0.86
1.26
1.89
2.73
3.71
4.69
5.56
6.24
6.71
6.99
7.13
7.17
7.12
6.98
6.72
6.28
5.65
4.88
4.1
3.49
3.24
3.36
3.75
4.17
4.31
3.93
2.93
1.43
-0.27
-1.74
-2.53
-2.3
-0.87
1.66
4.95
8.4
11.35
13.22
13.66
12.71
10.73
8.28
5.89
3.9
2.32
0.93
-0.52
-2.15
-3.83
-5.25
-6.05
-6.0
-5.11
-3.66
-2.08
-0.84
-0.28
-0.5
-1.37
-2.53
-3.54
-4.12
-4.19
-3.89
-3.48
-3.18
-3.14
-3.35
-3.75
-4.26
-4.82
-5.37
-5.79
-6.0
-5.89
-5.41
-4.58
-3.46
-2.2
-0.98
0.02
0.64
0.83
0.66
0.32
0.02
-0.09
0.06
0.41
0.86
1.32
1.74
2.15
2.58
2.99
3.36
3.58
3.58
3.35
2.94
2.46
2.01
1.61
1.22
0.76
0.14
-0.66
-1.6
-2.66
-3.79
-4.96
-6.09
-7.1
-7.89
-8.46
-8.94
-9.6
-10.7
-12.39
-14.55
-16.79
-18.58
-19.42
-19.04
-17.45
-14.91
-11.84
-8.65
-5.67
-3.15
-1.21
0.18
1.17
1.99
2.88
3.95
5.18
6.37
7.32
7.91
8.21
8.4
8.65
9.02
9.45
9.8
10.0
10.1
10.22
10.48
10.89
11.3
11.51
11.34
10.73
9.8
8.74
7.77
7.04
6.56
6.26
6.03
5.77
5.4
4.94
4.43
3.96
3.57
3.25
2.97
2.65
2.23
1.71
1.18
0.74
0.45
0.27
0.05
-0.43
-1.32
-2.61
-4.09
-5.51
-6.63
-7.38
-7.9
-8.4
-9.12
-10.19
-11.63
-13.33
-15.14
-16.85
-18.19
-18.87
-18.6
-17.22
-14.74
-11.46
-7.86
-4.48
-1.73
0.2
1.44
2.24
2.9
3.58
4.28
4.9
5.32
5.52
5.57
5.62
5.76
6.04
6.42
6.82
7.17
7.44
7.64
7.82
7.99
8.11
8.06
7.66
6.84
5.59
4.12
2.67
1.48
0.62
0.01
-0.61
-1.49
-2.73
-4.29
-5.95
-7.45
-8.6
-9.41
-10.07
-10.86
-12.05
-13.71
-15.61
-17.26
-17.95
-17.03
-14.06
-8.96
-2.02
6.17
14.95
23.66
31.8
39.05
45.27
50.48
54.75
58.13
60.54
61.73
61.36
59.22
55.35
50.18
44.42
38.77
33.71
29.4
25.74
22.58
19.84
17.56
15.67
13.99
12.11
9.62
6.18
1.62
-4.16
-11.22
-19.58
-29.08
-39.09
-48.5
-55.91
-60.13
-60.74
-58.25
-53.85
-48.8
-43.79
-38.73
-32.98
-26.03
-18.04
-9.95
-3.09
1.54
3.72
4.07
3.65
3.34
3.46
3.73
3.65
2.84
1.33
-0.54
-2.27
-3.47
-4.02
-4.14
-4.18
-4.55
-5.46
-6.86
-8.51
-10.08
-11.42
-12.64
-14.01
-15.75
-17.83
-19.91
-21.51
-22.32
-22.41
-22.23
-22.36
-23.26
-25.06
-27.52
-30.24
-32.76
-34.77
-36.14
-36.93
-37.25
-37.19
-36.65
-35.36
-33.02
-29.54
-25.33
-21.3
-18.58
-18.05
-19.87
-23.32
-26.99
-29.22
-28.49
-23.79
-14.9
-2.52
11.74
25.82
37.98
47.68
56.15
66.12
80.53
101.0
126.56
153.43
176.13
189.3
189.51
176.22
151.73
120.23
86.48
54.71
27.99
8.05
-4.47
-9.76
-8.69
-2.7
6.26
15.95
24.31
29.92
32.44
32.59
31.76
31.4
32.45
35.07
38.69
42.29
44.86
45.78
45.0
43.07
40.85
39.11
38.16
37.63
36.78
34.9
31.76
27.79
23.69
20.05
16.9
13.92
10.83
7.85
5.75
5.41
7.15
10.47
14.24
17.37
19.45
20.82
22.08
23.32
23.73
21.88
16.61
7.87
-2.94
-13.5
-21.53
-25.76
-26.31
-24.27
-21.0
-17.37
-13.68
-9.92
-6.34
-3.72
-3.21
-5.77
-11.53
-19.58
-28.15
-35.31
-39.75
-41.36
-41.15
-40.8
-41.82
-44.84
-49.35
-53.96
-57.11
-57.84
-56.26
-53.58
-51.52
-51.55
-54.23
-58.92
-64.09
-67.84
-68.55
-65.26
-57.9
-47.41
-35.76
-25.83
-20.82
-23.41
-34.77
-53.94
-77.85
-102.25
-122.97
-137.14
-143.8
-143.67
-138.46
-130.02
-119.82
-108.9
-98.06
-88.1
-79.89
-74.08
-70.82
-69.42
-68.58
-66.79
-63.02
-57.2
-50.19
-43.21
-37.08
-31.76
-26.35
-19.58
-10.56
0.73
13.44
26.2
37.65
46.81
53.17
56.5
56.7
53.74
47.8
39.42
29.5
19.14
9.23
0.25
-7.79
-15.13
-21.86
-27.62
-31.68
-33.29
-32.27
-29.23
-25.44
-22.17
-20.21
-19.32
-18.37
-15.79
-10.26
-1.21
11.06
25.62
41.27
56.56
70.02
80.28
86.41
88.22
86.45
82.59
78.33
74.74
71.21
65.68
55.6
39.35
17.18
-8.58
-34.31
-56.33
-72.02
-81.29
-85.79
-87.59
-87.91
-86.82
-83.8
-78.52
-71.5
-63.92
-58.73
-58.56
-63.74
-71.26
-75.57
-71.16
-55.12
-28.55
4.17
35.0
56.32
63.7
57.09
39.41
14.02
-16.9
-52.41
-83.13
-100.22
-98.96
-82.94
-61.13
-41.73
-28.62
-21.06
-18.48
-14.37
-5.4
8.62
25.57
42.56
57.19
68.16
74.97
77.58
77.71
75.96
72.49
67.41
61.3
55.33
50.66
48.03
47.53
49.19
51.36
52.1
50.15
45.67
40.07
35.12
32.13
31.51
33.06
35.3
36.58
35.81
32.96
28.88
24.75
21.55
19.73
19.37
19.75
19.92
19.05
16.8
13.35
9.26
5.19
1.74
-0.79
-2.57
-4.14
-6.19
-9.28
-13.61
-18.86
-24.27
-28.83
-31.58
-31.94
-29.84
-25.7
-20.18
-13.93
-7.38
-0.73
5.9
12.32
18.2
23.15
26.85
29.29
30.82
32.07
33.78
36.44
40.1
44.37
48.48
51.62
53.28
53.43
52.57
51.71
52.17
55.19
61.53
70.89
81.66
90.95
95.32
91.89
79.5
59.55
35.71
12.78
-4.98
-15.26
-18.23
-16.06
-11.72
-7.74
-5.53
-5.41
-7.03
-9.98
-13.97
-18.87
-24.37
-29.84
-34.48
-37.65
-39.22
-39.68
-40.08
-41.52
-44.66
-49.34
-54.48
-58.43
-59.57
-56.95
-50.66
-41.83
-32.17
-23.37
-16.51
-11.82
-8.77
-6.43
-3.88
-0.62
3.34
7.54
11.38
14.45
16.7
18.43
20.12
22.12
24.47
26.95
29.21
31.02
32.32
33.19
33.69
33.79
33.37
32.27
30.48
28.17
25.64
23.25
21.25
19.76
18.71
17.92
17.12
16.12
14.76
13.07
11.15
9.2
7.4
5.82
4.44
3.12
1.69
0.02
-1.91
-4.07
-6.32
-8.57
-10.75
-12.88
-15.04
-17.37
-20.05
-23.19
-26.73
-30.37
-33.56
-35.62
-35.93
-34.2
-30.48
-25.18
-18.9
-12.28
-5.88
-0.15
4.62
8.39
11.3
13.66
15.77
17.79
19.66
21.19
22.24
22.87
23.32
23.87
24.68
25.66
26.54
27.01
26.94
26.42
25.66
24.86
24.11
23.29
22.25
20.86
19.19
17.45
15.9
14.75
14.02
13.57
13.22
12.82
12.31
11.69
10.98
10.16
9.19
8.04
6.73
5.35
3.97
2.61
1.27
-0.06
-1.32
-2.46
-3.46
-4.36
-5.28
-6.3
-7.44
-8.61
-9.71
-10.73
-11.72
-12.78
-14.02
-15.43
-16.91
-18.32
-19.63
-20.92
-22.38
-24.22
-26.55
-29.25
-31.96
-34.12
-35.15
-34.53
-32.09
-27.98
-22.7
-16.94
-11.33
-6.3
-2.03
1.5
4.39
6.75
8.68
10.22
11.47
12.56
13.59
14.63
15.64
16.48
16.98
17.02
16.62
15.96
15.33
15.08
15.43
16.39
17.66
18.74
19.11
18.46
16.82
14.53
12.09
9.92
8.2
6.91
5.93
5.11
4.39
3.71
3.04
2.38
1.77
1.36
1.3
1.65
2.29
2.88
2.99
2.23
0.43
-2.39
-5.96
-9.85
-13.49
-16.27
-17.74
-17.8
-16.77
-15.37
-14.33
-14.15
-14.82
-15.94
-17.02
-17.81
-18.49
-19.49
-21.17
-23.52
-26.07
-28.1
-29.0
-28.53
-26.89
-24.59
-22.07
-19.5
-16.77
-13.61
-9.89
-5.8
-1.76
1.69
4.23
5.86
6.94
7.95
9.24
10.89
12.7
14.32
15.41
15.8
15.51
14.75
13.8
12.94
12.38
12.17
12.28
12.58
12.96
13.31
13.53
13.54
13.24
12.54
11.42
9.95
8.29
6.64
5.19
4.12
3.47
3.2
3.21
3.31
3.32
3.12
2.66
1.95
1.03
-0.06
-1.25
-2.44
-3.48
-4.25
-4.72
-4.99
-5.31
-5.92
-6.95
-8.35
-9.93
-11.44
-12.7
-13.67
-14.4
-15.03
-15.71
-16.59
-17.81
-19.45
-21.47
-23.63
-25.49
-26.53
-26.3
-24.57
-21.47
-17.42
-13.0
-8.81
-5.28
-2.61
-0.76
0.48
1.38
2.19
3.02
3.85
4.53
4.91
4.92
4.59
4.11
3.7
3.57
3.82
4.47
5.49
6.82
8.37
9.99
11.44
12.44
12.77
12.35
11.28
9.85
8.38
7.19
6.46
6.26
6.49
6.96
7.39
7.51
7.13
6.2
4.81
3.1
1.23
-0.72
-2.7
-4.65
-6.46
-7.98
-9.2
-10.22
-11.33
-12.78
-14.7
-16.97
-19.23
-21.0
-21.83
-21.45
-19.75
-16.89
-13.19
-9.09
-5.05
-1.47
1.43
3.6
5.13
6.18
6.91
7.45
7.85
8.11
8.21
8.16
8.05
7.98
8.1
8.49
9.13
9.88
10.55
11.01
11.2
11.16
10.89
10.38
9.61
8.55
7.29
6.01
4.9
4.08
3.57
3.27
3.01
2.68
2.22
1.65
1.04
0.39
-0.33
-1.18
-2.27
-3.64
-5.21
-6.8
-8.22
-9.35
-10.24
-11.13
-12.35
-14.15
-16.57
-19.45
-22.46
-25.14
-27.09
-27.94
-27.45
-25.55
-22.32
-18.12
-13.41
-8.77
-4.65
-1.28
1.37
3.48
5.31
6.98
8.49
9.73
10.59
11.04
11.17
11.14
11.14
11.3
11.67
12.23
12.9
13.61
14.28
14.88
15.37
15.68
15.74
15.43
14.69
13.57
12.21
10.8
9.54
8.52
7.72
7.06
6.43
5.73
4.92
3.97
2.89
1.71
0.55
-0.51
-1.39
-2.09
-2.68
-3.25
-3.91
-4.76
-5.87
-7.27
-8.94
-10.73
-12.42
-13.83
-14.92
-15.87
-17.04
-18.75
-21.1
-23.83
-26.35
-27.95
-28.05
-26.42
-23.2
-18.86
-14.02
-9.24
-4.93
-1.27
1.69
4.04
5.89
7.41
8.7
9.84
10.82
11.6
12.11
12.35
12.43
12.56
12.93
13.64
14.63
15.74
16.75
17.48
17.86
17.92
17.71
17.27
16.64
15.8
14.76
13.52
12.19
10.87
9.68
8.68
7.82
6.95
5.92
4.67
3.28
1.87
0.58
-0.55
-1.56
-2.55
-3.59
-4.68
-5.76
-6.77
-7.71
-8.61
-9.49
-10.4
-11.38
-12.49
-13.84
-15.55
-17.67
-20.12
-22.64
-24.82
-26.19
-26.35
-25.09
-22.5
-18.86
-14.64
-10.36
-6.43
-3.09
-0.44
1.64
3.3
4.73
6.06
7.31
8.38
9.17
9.61
9.74
9.72
9.74
9.99
10.52
11.3
12.16
12.91
13.42
13.64
13.62
13.45
13.23
12.96
12.62
12.12
11.41
10.48
9.39
8.23
7.09
6.02
5.04
4.13
3.28
2.51
1.87
1.33
0.86
0.35
-0.31
-1.22
-2.42
-3.83
-5.33
-6.78
-8.07
-9.18
-10.2
-11.27
-12.53
-14.1
-16.07
-18.4
-20.9
-23.23
-24.94
-25.58
-24.84
-22.7
-19.41
-15.42
-11.26
-7.37
-4.03
-1.33
0.77
2.41
3.73
4.89
5.93
6.86
7.62
8.17
8.55
8.85
9.21
9.74
10.45
11.33
12.26
13.15
13.94
14.57
15.01
15.22
15.1
14.58
13.61
12.25
10.69
9.18
7.96
7.15
6.69
6.37
5.96
5.32
4.48
3.56
2.69
1.88
1.08
0.17
-0.9
-2.08
-3.32
-4.55
-5.74
-6.91
-8.08
-9.24
-10.37
-11.48
-12.68
-14.09
-15.88
-18.05
-20.44
-22.66
-24.2
-24.59
-23.51
-21.02
-17.46
-13.36
-9.24
-5.48
-2.26
0.43
2.7
4.64
6.33
7.84
9.18
10.35
11.35
12.14
12.74
13.22
13.64
14.05
14.44
14.74
14.86
14.81
14.72
14.75
14.96
15.27
15.44
15.18
14.35
13.01
11.45
10.0
8.88
8.11
7.53
6.91
6.09
5.08
4.01
3.04
2.3
1.75
1.29
0.71
-0.12
-1.27
-2.69
-4.25
-5.77
-7.18
-8.47
-9.68
-10.93
-12.27
-13.74
-15.39
-17.23
-19.26
-21.38
-23.35
-24.75
-25.18
-24.32
-22.16
-18.98
-15.27
-11.53
-8.13
-5.17
-2.54
0.01
2.69
5.57
8.5
11.24
13.45
14.9
15.55
15.49
15.0
14.34
13.73
13.26
12.96
12.8
12.77
12.84
12.96
13.02
12.9
12.49
11.73
10.67
9.45
8.25
7.22
6.42
5.76
5.12
4.37
3.46
2.48
1.58
0.86
0.34
-0.1
-0.63
-1.43
-2.56
-3.95
-5.44
-6.86
-8.12
-9.13
-9.94
-10.59
-11.21
-11.93
-12.92
-14.33
-16.23
-18.46
-20.67
-22.32
-22.86
-21.95
-19.62
-16.24
-12.4
-8.7
-5.51
-2.95
-0.9
0.84
2.45
4.0
5.5
6.86
7.99
8.8
9.24
9.33
9.21
9.09
9.17
9.61
10.42
11.49
12.61
13.54
14.09
14.16
13.76
12.98
11.95
10.79
9.62
8.52
7.52
6.67
5.99
5.48
5.14
4.88
4.62
4.26
3.7
2.95
2.06
1.12
0.23
-0.58
-1.32
-2.05
-2.85
-3.79
-4.85
-6.03
-7.27
-8.55
-9.79
-10.95
-11.96
-12.83
-13.66
-14.64
-15.93
-17.61
-19.55
-21.46
-22.92
-23.57
-23.18
-21.69
-19.22
-16.0
-12.39
-8.79
-5.52
-2.8
-0.62
1.16
2.74
4.25
5.64
6.77
7.54
7.95
8.18
8.46
9.02
9.91
11.01
12.11
12.97
13.45
13.53
13.27
12.85
12.38
11.97
11.62
11.31
10.95
10.48
9.83
8.98
7.96
6.85
5.76
4.83
4.16
3.78
3.62
3.61
3.61
3.51
3.19
2.59
1.66
0.41
-1.05
-2.55
-3.89
-4.94
-5.66
-6.15
-6.56
-7.05
-7.71
-8.56
-9.53
-10.55
-11.61
-12.71
-13.95
-15.39
-17.05
-18.8
-20.38
-21.43
-21.62
-20.73
-18.73
-15.85
-12.46
-9.01
-5.87
-3.26
-1.22
0.37
1.73
3.04
4.38
5.7
6.84
7.63
8.0
8.05
7.96
7.98
8.22
8.67
9.16
9.51
9.56
9.31
8.85
8.28
7.71
7.13
6.51
5.8
4.98
4.08
3.13
2.16
1.21
0.3
-0.5
-1.13
-1.62
-2.04
-2.51
-3.13
-3.94
-4.89
-5.88
-6.84
-7.8
-8.9
-10.31
-12.16
-14.51
-17.28
-20.34
-23.63
-27.12
-30.87
-34.93
-39.25
-43.72
-48.17
-52.44
-56.52
-60.55
-64.68
-68.95
-73.04
-76.29
-77.96
-77.72
-76.04
-74.31
-74.36
-77.45
-83.49
-90.89
-97.24
-100.38
-99.13
-93.17
-82.31
-65.71
-42.07
-10.63
27.84
70.79
115.0
158.1
199.49
239.78
279.03
315.19
343.84
359.79
359.42
342.54
312.47
274.75
234.99
197.43
164.32
136.2
112.69
92.93
75.95
60.89
47.17
34.46
22.6
11.37
0.5
-10.24
-20.7
-30.28
-38.11
-43.49
-46.37
-47.47
-48.04
-49.29
-51.88
-55.71
-60.04
-63.86
-66.39
-67.37
-67.17
-66.49
-66.04
-66.07
-66.24
-65.68
-63.37
-58.67
-51.66
-43.2
-34.51
-26.63
-20.0
-14.36
-9.02
-3.37
2.75
8.94
14.49
18.73
21.39
22.68
23.24
23.9
25.44
28.31
32.51
37.65
43.08
48.15
52.37
55.25
56.02
53.49
46.33
33.81
16.59
-3.05
-21.63
-35.86
-43.79
-45.4
-42.28
-36.64
-30.67
-26.65
-27.5
-37.01
-58.83
-94.41
-141.06
-191.59
-236.11
-265.64
-275.35
-266.11
-243.51
-215.12
-187.6
-164.92
-148.34
-137.33
-130.82
-127.64
-126.63
-126.49
-125.97
-124.19
-121.09
-117.47
-114.5
-113.16
-113.59
-114.71
-114.15
-108.79
-95.6
-72.93
-41.49
-4.57
32.79
65.39
89.67
104.73
112.1
114.55
114.65
113.76
111.99
108.88
104.24
98.49
92.49
87.01
82.32
78.25
74.47
70.82
67.46
64.77
63.1
62.62
63.26
64.73
66.52
67.97
68.33
67.0
63.84
59.35
54.47
50.21
47.18
45.27
43.98
42.81
41.65
40.73
40.14
39.47
37.76
34.0
27.69
19.2
9.49
-0.61
-10.82
-21.48
-32.79
-44.21
-54.17
-60.73
-62.6
-60.04
-54.96
-50.25
-48.52
-51.03
-57.11
-64.46
-70.06
-71.22
-66.66
-56.89
-43.86
-30.2
-18.19
-9.04
-2.68
1.84
5.66
9.55
13.81
18.52
23.88
30.33
38.3
47.74
57.74
66.52
72.17
73.39
70.4
65.0
59.92
57.52
58.51
61.48
63.48
61.48
53.92
41.48
26.5
11.71
-1.26
-12.4
-22.87
-33.89
-45.67
-57.26
-67.04
-73.63
-76.52
-76.2
-73.76
-70.4
-67.34
-66.08
-68.62
-77.14
-93.07
-115.91
-142.64
-168.18
-187.07
-195.44
-192.42
-180.13
-162.43
-143.08
-124.3
-106.45
-88.68
-69.93
-49.58
-27.47
-3.4
23.06
52.38
84.5
118.33
151.65
181.5
204.97
220.12
226.46
224.98
217.67
206.84
194.39
181.5
168.74
156.35
144.63
133.99
124.81
117.22
110.99
105.64
100.7
95.89
91.11
86.36
81.59
76.77
71.98
67.43
63.39
60.02
57.21
54.6
51.76
48.39
44.42
40.01
35.42
30.89
26.58
22.54
18.82
15.47
12.62
10.45
9.14
8.72
8.93
9.2
8.82
7.16
3.99
-0.37
-5.29
-10.05
-14.24
-17.82
-21.08
-24.27
-27.51
-30.64
-33.4
-35.59
-37.18
-38.39
-39.53
-40.93
-42.81
-45.22
-47.95
-50.62
-52.68
-53.56
-52.79
-50.11
-45.49
-39.09
-31.29
-22.6
-13.71
-5.4
1.59
6.67
9.61
10.45
9.49
7.18
4.08
0.72
-2.34
-4.64
-5.9
-6.1
-5.53
-4.62
-3.79
-3.38
-3.46
-3.88
-4.24
-4.0
-2.71
-0.3
2.77
5.57
7.04
6.54
4.1
0.53
-3.04
-5.55
-6.49
-6.09
-5.24
-5.18
-6.93
-10.78
-15.88
-20.43
-22.43
-20.83
-16.18
-10.61
-6.75
-6.28
-9.16
-13.84
-18.33
-21.26
-22.3
-21.71
-19.65
-15.91
-10.38
-3.73
2.29
5.6
5.03
1.23
-3.37
-5.78
-4.05
1.71
9.46
16.37
20.27
20.45
17.61
13.03
7.64
1.59
-5.48
-13.78
-22.64
-30.51
-35.59
-36.79
-34.44
-30.34
-26.98
-26.4
-29.24
-34.46
-39.9
-43.32
-43.48
-40.68
-36.58
-33.37
-32.67
-34.78
-38.59
-42.28
-44.23
-43.86
-41.7
-38.95
-36.61
-34.96
-33.52
-31.47
-28.34
-24.36
-20.34
-17.2
-15.46
-14.96
-15.01
-14.79
-13.83
-12.2
-10.52
-9.6
-10.03
-11.93
-14.86
-18.1
-20.96
-23.12
-24.74
-26.22
-27.95
-29.96
-31.79
-32.6
-31.53
-28.18
-22.76
-16.16
-9.51
-3.78
0.66
4.08
7.18
10.61
14.6
18.8
22.53
25.14
26.37
26.46
25.98
25.59
25.73
26.5
27.77
29.3
30.91
32.54
34.13
35.58
36.64
36.97
36.22
34.23
31.16
27.44
23.66
20.37
17.85
16.0
14.45
12.76
10.64
8.14
5.55
3.32
1.81
1.07
0.89
0.83
0.46
-0.55
-2.25
-4.43
-6.79
-8.98
-10.77
-12.15
-13.25
-14.36
-15.78
-17.8
-20.61
-24.21
-28.4
-32.67
-36.31
-38.51
-38.6
-36.32
-31.85
-25.82
-19.05
-12.31
-6.15
-0.81
3.69
7.45
10.55
13.06
15.03
16.53
17.67
18.58
19.4
20.24
21.16
22.2
23.32
24.5
25.67
26.76
27.73
28.51
29.06
29.31
29.21
28.72
27.84
26.65
25.26
23.82
22.46
21.23
20.13
19.04
17.85
16.41
14.64
12.54
10.2
7.79
5.44
3.21
1.04
-1.25
-3.82
-6.76
-9.95
-13.11
-15.86
-17.87
-19.03
-19.54
-19.85
-20.48
-21.86
-24.15
-27.17
-30.48
-33.45
-35.44
-35.92
-34.51
-31.1
-25.89
-19.33
-12.13
-5.02
1.37
6.7
10.92
14.19
16.79
18.92
20.61
21.72
22.08
21.58
20.4
18.96
17.82
17.5
18.19
19.74
21.69
23.55
24.97
25.9
26.44
26.72
26.73
26.34
25.4
23.88
21.91
19.78
17.78
16.14
14.87
13.84
12.85
11.67
10.22
8.51
6.73
5.09
3.72
2.62
1.6
0.39
-1.2
-3.24
-5.57
-7.91
-10.0
-11.7
-13.07
-14.34
-15.83
-17.83
-20.5
-23.82
-27.6
-31.44
-34.85
-37.22
-38.03
-36.87
-33.65
-28.63
-22.39
-15.68
-9.26
-3.69
0.81
4.32
7.11
9.41
11.35
12.89
13.9
14.35
14.3
14.02
13.89
14.21
15.12
16.52
18.17
19.76
21.04
21.91
22.36
22.4
22.05
21.3
20.13
18.62
16.9
15.13
13.49
12.11
10.99
10.05
9.13
8.07
6.77
5.26
3.67
2.19
0.95
-0.08
-1.08
-2.32
-3.98
-6.07
-8.41
-10.73
-12.76
-14.41
-15.79
-17.16
-18.82
-21.01
-23.84
-27.17
-30.7
-33.9
-36.15
-36.85
-35.6
-32.28
-27.22
-21.06
-14.61
-8.59
-3.47
0.61
3.81
6.38
8.56
10.49
12.23
13.75
15.01
15.97
16.63
17.06
17.38
17.75
18.28
19.01
19.82
20.57
21.13
21.45
21.59
21.61
21.51
21.17
20.4
19.1
17.31
15.27
13.31
11.73
10.68
10.07
9.62
9.03
8.07
6.72
5.1
3.41
1.84
0.45
-0.83
-2.14
-3.64
-5.41
-7.43
-9.54
-11.53
-13.18
-14.4
-15.29
-16.12
-17.27
-19.04
-21.61
-24.88
-28.49
-31.86
-34.37
-35.44
-34.7
-32.09
-27.87
-22.57
-16.83
-11.27
-6.34
-2.25
1.01
3.64
5.93
8.11
10.27
12.32
14.03
15.2
15.77
15.89
15.85
15.91
16.21
16.73
17.35
17.97
18.54
19.07
19.54
19.8
19.69
19.09
17.93
16.34
14.53
12.75
11.23
10.1
9.35
8.85
8.35
7.62
6.51
5.05
3.43
1.91
0.71
-0.12
-0.68
-1.22
-1.98
-3.16
-4.76
-6.7
-8.77
-10.74
-12.48
-13.93
-15.21
-16.49
-18.01
-19.95
-22.41
-25.33
-28.46
-31.34
-33.37
-33.91
-32.51
-29.07
-23.95
-17.89
-11.75
-6.3
-1.95
1.27
3.61
5.43
7.01
8.46
9.69
10.57
11.0
11.04
10.91
10.9
11.29
12.17
13.43
14.83
16.08
16.98
17.5
17.71
17.69
17.47
16.93
15.97
14.52
12.73
10.86
9.18
7.86
6.86
5.97
4.98
3.78
2.42
1.07
-0.11
-1.1
-1.95
-2.85
-3.95
-5.31
-6.92
-8.66
-10.4
-12.05
-13.59
-15.1
-16.76
-18.75
-21.2
-24.03
-26.98
-29.56
-31.17
-31.28
-29.63
-26.33
-21.9
-17.04
-12.41
-8.4
-5.12
-2.54
-0.7
0.12
-0.43
-2.55
-6.06
-10.28
-14.22
-16.93
-17.8
-16.74
-14.08
-10.4
-6.28
-2.17
1.68
5.19
8.43
11.55
14.77
18.22
21.91
25.6
28.87
31.28
32.55
32.72
32.22
31.61
31.38
31.66
32.19
32.51
32.18
31.07
29.34
27.36
25.43
23.65
21.9
19.91
17.42
14.37
10.8
6.96
3.1
-0.54
-3.85
-6.88
-9.81
-12.89
-16.34
-20.2
-24.38
-28.56
-32.38
-35.36
-37.11
-37.29
-35.77
-32.63
-28.23
-23.13
-17.93
-13.18
-9.21
-6.1
-3.72
-1.8
-0.09
1.61
3.35
5.03
6.46
7.44
7.87
7.83
7.55
7.32
7.41
7.92
8.76
9.71
10.53
11.05
11.26
11.19
10.94
10.49
9.82
8.87
7.72
6.58
5.69
5.2
5.08
5.08
4.87
4.21
3.08
1.7
0.37
-0.62
-1.18
-1.47
-1.77
-2.41
-3.58
-5.27
-7.29
-9.37
-11.26
-12.83
-14.13
-15.27
-16.47
-17.93
-19.8
-22.14
-24.83
-27.54
-29.76
-30.89
-30.48
-28.38
-24.8
-20.22
-15.22
-10.31
-5.78
-1.79
1.65
4.58
7.05
9.1
10.73
11.89
12.58
12.81
12.72
12.56
12.61
13.07
13.96
15.15
16.34
17.3
17.88
18.12
18.14
18.06
17.89
17.52
16.78
15.59
14.01
12.3
10.73
9.48
8.53
7.69
6.73
5.5
4.06
2.6
1.33
0.33
-0.48
-1.28
-2.31
-3.68
-5.39
-7.32
-9.25
-10.96
-12.33
-13.38
-14.31
-15.42
-17.0
-19.22
-21.95
-24.84
-27.36
-28.97
-29.24
-27.99
-25.29
-21.4
-16.75
-11.85
-7.22
-3.22
-0.02
2.43
4.36
6.04
7.67
9.29
10.76
11.91
12.6
12.83
12.76
12.61
12.58
12.81
13.32
14.0
14.74
15.35
15.74
15.84
15.66
15.23
14.59
13.73
12.65
11.37
9.98
8.61
7.38
6.29
5.2
3.9
2.21
0.13
-2.2
-4.49
-6.49
-8.05
-9.17
-9.94
-10.5
-11.01
-11.6
-12.45
-13.73
-15.53
-17.86
-20.54
-23.26
-25.59
-27.12
-27.49
-26.5
-24.15
-20.64
-16.36
-11.8
-7.41
-3.54
-0.36
2.15
4.14
5.8
7.24
8.53
9.62
10.48
11.1
11.51
11.8
12.07
12.42
12.93
13.61
14.42
15.23
15.9
16.31
16.4
16.23
15.85
15.33
14.64
13.72
12.51
10.99
9.24
7.4
5.64
4.07
2.77
1.74
0.9
0.16
-0.64
-1.59
-2.75
-4.09
-5.55
-7.07
-8.61
-10.2
-11.91
-13.82
-15.97
-18.34
-20.82
-23.16
-24.98
-25.88
-25.49
-23.65
-20.46
-16.32
-11.82
-7.58
-4.0
-1.19
1.02
2.91
4.7
6.44
7.96
9.09
9.72
9.93
9.97
10.09
10.43
10.98
11.6
12.1
12.41
12.53
12.57
12.65
12.81
12.99
13.04
12.76
12.01
10.77
9.17
7.42
5.78
4.39
3.31
2.47
1.72
0.92
-0.07
-1.29
-2.73
-4.25
-5.71
-6.98
-8.05
-9.02
-10.08
-11.44
-13.24
-15.53
-18.2
-21.01
-23.54
-25.27
-25.65
-24.34
-21.31
-16.94
-11.89
-6.87
-2.43
1.17
3.99
6.21
8.04
9.55
10.75
11.56
11.95
11.97
11.79
11.62
11.68
12.07
12.75
13.56
14.3
14.81
15.07
15.16
15.19
15.2
15.08
14.67
13.82
12.54
11.0
9.53
8.38
7.66
7.28
6.97
6.48
5.68
4.58
3.31
2.02
0.83
-0.24
-1.19
-2.1
-3.07
-4.19
-5.53
-7.14
-8.92
-10.74
-12.39
-13.8
-15.0
-16.19
-17.61
-19.47
-21.77
-24.29
-26.59
-28.17
-28.57
-27.52
-25.03
-21.37
-17.02
-12.54
-8.45
-5.03
-2.31
-0.11
1.87
3.81
5.76
7.58
9.08
10.12
10.74
11.14
11.53
12.07
12.72
13.36
13.84
14.11
14.24
14.37
14.59
14.85
15.0
14.83
14.25
13.27
12.05
10.76
9.53
8.44
7.51
6.78
6.25
5.91
5.67
5.38
4.87
4.03
2.87
1.56
0.28
-0.81
-1.68
-2.44
-3.26
-4.28
-5.53
-6.97
-8.44
-9.76
-10.83
-11.63
-12.25
-12.9
-13.81
-15.19
-17.11
-19.46
-21.86
-23.79
-24.69
-24.17
-22.11
-18.75
-14.57
-10.16
-6.03
-2.48
0.42
2.74
4.57
6.02
7.11
7.9
8.48
8.94
9.38
9.82
10.29
10.76
11.27
11.84
12.44
13.03
13.49
13.76
13.84
13.78
13.65
13.45
13.08
12.48
11.56
10.39
9.08
7.81
6.69
5.82
5.19
4.77
4.52
4.35
4.18
3.88
3.35
2.53
1.43
0.14
-1.2
-2.42
-3.44
-4.29
-5.09
-6.03
-7.24
-8.69
-10.25
-11.7
-12.91
-13.91
-14.85
-15.92
-17.31
-19.02
-20.95
-22.81
-24.23
-24.8
-24.17
-22.18
-18.95
-14.92
-10.67
-6.81
-3.72
-1.48
0.13
1.49
2.92
4.54
6.28
7.92
9.18
9.95
10.28
10.4
10.59
11.03
11.74
12.54
13.23
13.68
13.88
13.95
13.99
14.05
14.04
13.83
13.3
12.47
11.44
10.39
9.5
8.88
8.5
8.23
7.84
7.16
6.13
4.87
3.66
2.73
2.22
1.98
1.75
1.23
0.31
-0.92
-2.22
-3.32
-4.12
-4.66
-5.1
-5.65
-6.45
-7.57
-8.98
-10.58
-12.25
-13.85
-15.3
-16.54
-17.61
-18.57
-19.54
-20.64
-21.99
-23.59
-25.32
-26.82
-27.64
-27.29
-25.49
-22.31
-18.21
-13.88
-9.95
-6.82
-4.49
-2.7
-1.08
0.63
2.47
4.28
5.84
6.93
7.49
7.62
7.54
7.47
7.6
8.07
8.96
10.36
12.35
14.95
18.04
21.3
24.24
26.33
27.14
26.58
24.82
22.28
19.45
16.73
14.33
12.32
10.63
9.18
7.91
6.8
5.87
5.1
4.41
3.68
2.8
1.72
0.5
-0.75
-1.94
-3.06
-4.21
-5.51
-7.02
-8.68
-10.31
-11.7
-12.74
-13.47
-14.1
-14.92
-16.21
-18.11
-20.61
-23.51
-26.4
-28.75
-30.03
-29.79
-27.87
-24.42
-19.91
-14.96
-10.23
-6.15
-2.88
-0.29
1.85
3.78
5.56
7.07
8.17
8.76
8.96
9.01
9.21
9.74
10.57
11.51
12.35
12.99
13.49
13.98
14.56
15.19
15.7
15.85
15.48
14.6
13.37
12.04
10.86
9.97
9.39
9.0
8.66
8.23
7.67
6.99
6.27
5.58
4.97
4.44
3.93
3.41
2.78
2.03
1.11
0.06
-1.06
-2.18
-3.27
-4.34
-5.47
-6.74
-8.18
-9.77
-11.38
-12.87
-14.13
-15.15
-16.02
-17.01
-18.35
-20.26
-22.76
-25.64
-28.48
-30.7
-31.79
-31.38
-29.38
-26.04
-21.79
-17.21
-12.84
-9.05
-5.98
-3.52
-1.43
0.55
2.61
4.76
6.91
8.86
10.42
11.46
11.96
12.01
11.81
11.63
11.72
12.25
13.21
14.44
15.68
16.64
17.15
17.17
16.78
16.11
15.26
14.33
13.37
12.48
11.76
11.25
10.89
10.55
10.08
9.4
8.54
7.63
6.82
6.17
5.66
5.2
4.66
3.97
3.1
2.03
0.83
-0.43
-1.64
-2.76
-3.75
-4.71
-5.77
-7.02
-8.48
-10.02
-11.43
-12.52
-13.23
-13.7
-14.22
-15.18
-16.84
-19.24
-22.14
-25.0
-27.16
-28.06
-27.33
-24.93
-21.16
-16.52
-11.6
-6.94
-2.91
0.33
2.83
4.74
6.27
7.59
8.77
9.78
10.57
11.09
11.38
11.59
11.93
12.62
13.74
15.2
16.76
18.06
18.85
19.06
18.84
18.42
18.03
17.72
17.37
16.77
15.79
14.5
13.08
11.77
10.69
9.81
8.99
8.09
7.04
5.89
4.75
3.69
2.75
1.87
0.98
-0.0
-1.14
-2.46
-3.93
-5.53
-7.17
-8.79
-10.33
-11.78
-13.18
-14.6
-16.2
-18.11
-20.45
-23.17
-26.05
-28.66
-30.38
-30.68
-29.21
-26.03
-21.59
-16.58
-11.67
-7.34
-3.76
-0.83
1.63
3.81
5.73
7.39
8.74
9.79
10.66
11.47
12.33
13.28
14.28
15.25
16.11
16.8
17.33
17.73
18.04
18.29
18.44
18.48
18.39
18.17
17.81
17.25
16.43
15.29
13.84
12.25
10.73
9.52
8.75
8.36
8.16
7.94
7.54
6.93
6.13
5.14
3.93
2.45
0.71
-1.13
-2.84
-4.26
-5.37
-6.36
-7.49
-8.96
-10.78
-12.73
-14.53
-15.98
-17.09
-18.07
-19.24
-20.9
-23.17
-25.93
-28.89
-31.57
-33.47
-34.12
-33.2
-30.68
-26.79
-22.05
-17.05
-12.33
-8.23
-4.84
-2.01
0.49
2.86
5.19
7.43
9.41
10.96
11.95
12.43
12.58
12.7
13.08
13.85
14.93
16.1
17.1
17.77
18.11
18.23
18.21
18.04
17.61
16.81
15.66
14.35
13.13
12.24
11.71
11.4
11.08
10.55
9.74
8.73
7.62
6.53
5.5
4.55
3.65
2.78
1.92
1.05
0.17
-0.74
-1.7
-2.7
-3.78
-4.91
-6.08
-7.24
-8.35
-9.37
-10.34
-11.35
-12.54
-14.06
-16.0
-18.37
-20.97
-23.44
-25.24
-25.84
-24.84
-22.18
-18.16
-13.35
-8.38
-3.82
0.01
2.97
5.16
6.74
7.91
8.83
9.55
10.06
10.33
10.37
10.32
10.39
10.82
11.69
12.96
14.4
15.73
16.71
17.24
17.34
17.1
16.61
15.92
15.03
13.91
12.55
11.06
9.59
8.36
7.52
7.09
6.91
6.71
6.22
5.3
4.01
2.57
1.25
0.2
-0.56
-1.2
-1.94
-3.02
-4.53
-6.4
-8.45
-10.43
-12.17
-13.61
-14.84
-16.07
-17.5
-19.33
-21.62
-24.35
-27.29
-30.06
-32.1
-32.84
-31.84
-28.99
-24.61
-19.32
-13.91
-8.98
-4.88
-1.61
1.05
3.35
5.48
7.47
9.28
10.85
12.14
13.15
13.92
14.53
15.06
15.61
16.29
17.13
18.14
19.19
20.14
20.83
21.18
21.17
20.84
20.2
19.26
18.05
16.67
15.25
13.96
12.89
12.01
11.21
10.36
9.41
8.37
7.33
6.35
5.41
4.47
3.45
2.33
1.14
-0.03
-1.09
-2.01
-2.81
-3.63
-4.67
-6.1
-8.01
-10.31
-12.78
-15.12
-17.12
-18.78
-20.25
-21.83
-23.76
-26.12
-28.73
-31.22
-33.03
-33.65
-32.66
-29.95
-25.7
-20.42
-14.78
-9.43
-4.89
-1.36
1.25
3.23
4.96
6.7
8.53
10.35
11.99
13.27
14.12
14.63
14.97
15.31
15.77
16.36
16.97
17.49
17.85
18.06
18.14
18.15
18.08
17.83
17.27
16.3
14.92
13.29
11.66
10.28
9.27
8.6
8.11
7.61
6.98
6.17
5.22
4.17
3.03
1.83
0.58
-0.66
-1.8
-2.8
-3.69
-4.56
-5.56
-6.79
-8.26
-9.9
-11.57
-13.18
-14.65
-15.99
-17.22
-18.43
-19.73
-21.24
-23.07
-25.32
-27.91
-30.57
-32.81
-34.03
-33.67
-31.43
-27.44
-22.21
-16.53
-11.26
-7.04
-4.17
-2.5
-1.55
-0.72
0.48
2.2
4.23
6.1
7.34
7.74
7.42
6.8
6.39
6.52
7.26
8.44
9.71
10.71
11.15
10.77
9.41
7.17
4.57
2.65
2.82
6.28
13.44
23.43
34.18
43.12
48.17
48.56
45.07
39.46
33.61
28.64
24.67
21.03
16.89
11.73
5.61
-1.03
-7.66
-13.88
-19.47
-24.33
-28.42
-31.75
-34.47
-36.88
-39.39
-42.25
-45.39
-48.28
-49.96
-49.39
-45.88
-39.39
-30.69
-21.2
-12.46
-5.68
-1.3
1.15
2.81
4.98
8.63
13.95
20.29
26.42
31.08
33.51
33.83
32.97
32.3
33.03
35.74
40.16
45.29
49.61
51.47
49.34
42.08
29.25
11.41
-9.72
-31.37
-50.28
-63.62
-69.84
-69.11
-63.1
-54.25
-44.85
-36.35
-29.25
-23.39
-18.36
-13.92
-10.01
-6.71
-4.06
-2.02
-0.55
0.23
0.07
-1.34
-4.16
-8.21
-12.97
-17.7
-21.67
-24.46
-26.09
-26.95
-27.52
-28.06
-28.37
-27.9
-25.97
-22.22
-16.77
-10.3
-3.73
2.08
6.57
9.59
11.26
11.85
11.77
11.43
11.28
11.64
12.59
13.91
15.17
16.01
16.32
16.39
16.69
17.63
19.3
21.46
23.69
25.64
27.21
28.57
29.97
31.57
33.35
35.1
36.58
37.54
37.86
37.42
36.11
33.85
30.63
26.53
21.75
16.6
11.44
6.6
2.3
-1.4
-4.56
-7.36
-10.0
-12.68
-15.58
-18.79
-22.3
-25.94
-29.31
-31.89
-33.13
-32.72
-30.61
-27.12
-22.75
-18.08
-13.61
-9.66
-6.37
-3.72
-1.51
0.52
2.61
4.83
7.09
9.21
11.09
12.8
14.64
16.9
19.66
22.67
25.4
27.24
27.81
27.14
25.59
23.71
21.95
20.55
19.52
18.73
18.04
17.42
16.89
16.4
15.84
15.02
13.74
11.92
9.6
7.0
4.4
2.07
0.16
-1.31
-2.44
-3.4
-4.38
-5.51
-6.86
-8.49
-10.46
-12.88
-15.85
-19.31
-22.94
-26.11
-28.06
-28.15
-26.09
-22.16
-17.03
-11.56
-6.55
-2.49
0.5
2.57
4.0
5.03
5.76
6.14
6.12
5.69
5.1
4.75
5.06
6.31
8.47
11.2
14.04
16.54
18.37
19.32
19.25
18.07
15.81
12.76
9.38
6.21
3.57
1.45
-0.47
-2.61
-5.12
-7.85
-10.41
-12.51
-14.11
-15.42
-16.68
-17.86
-18.6
-18.38
-16.85
-14.16
-10.88
-7.81
-5.51
-4.07
-3.14
-2.16
-0.71
1.27
3.43
5.17
5.91
5.31
3.35
0.4
-3.04
-6.48
-9.6
-12.41
-15.12
-17.85
-20.45
-22.44
-23.05
-21.58
-17.81
-12.21
-6.06
-0.93
2.01
2.74
2.43
3.14
6.81
14.33
25.18
37.48
48.53
55.37
55.34
46.84
29.98
7.14
-17.16
-37.37
-48.61
-48.36
-37.31
-18.85
2.56
23.04
40.4
54.21
65.2
74.28
81.92
87.9
91.58
92.62
91.62
90.34
91.2
96.08
104.84
114.95
122.26
123.04
116.01
103.14
88.72
77.01
70.22
67.62
66.51
64.19
59.68
53.94
49.02
46.68
47.46
50.8
55.92
62.64
71.44
82.86
96.62
111.25
124.5
134.07
138.33
136.34
127.65
111.85
88.64
58.37
22.67
-15.71
-53.74
-89.39
-122.49
-154.43
-186.83
-219.91
-251.16
-275.5
-286.94
-281.02
-256.97
-218.62
-173.34
-129.57
-93.94
-69.39
-54.97
-47.39
-43.12
-40.1
-38.07
-37.74
-39.32
-41.77
-43.13
-41.75
-37.49
-31.95
-27.71
-26.82
-29.75
-35.25
-41.1
-45.37
-47.22
-47.07
-45.93
-44.73
-43.8
-42.86
-41.43
-39.08
-35.69
-31.37
-26.35
-20.91
-15.48
-10.58
-6.78
-4.47
-3.7
-4.15
-5.35
-6.78
-8.17
-9.45
-10.68
-11.91
-13.05
-13.96
-14.58
-14.98
-15.36
-15.91
-16.68
-17.49
-18.09
-18.29
-18.08
-17.67
-17.32
-17.21
-17.31
-17.42
-17.23
-16.43
-14.75
-12.02
-8.21
-3.52
1.66
6.75
11.16
14.49
16.64
17.81
18.36
18.64
18.8
18.79
18.45
17.65
16.44
15.1
13.96
13.31
13.24
13.63
14.28
15.04
15.91
17.03
18.48
20.15
21.7
22.66
22.66
21.67
19.99
18.1
16.41
15.08
14.0
12.93
11.51
9.36
6.02
1.07
-5.72
-14.02
-22.86
-30.78
-36.32
-38.61
-37.75
-34.75
-31.06
-27.95
-26.07
-25.49
-25.86
-26.79
-28.04
-29.45
-30.84
-31.9
-32.3
-31.77
-30.35
-28.36
-26.38
-24.98
-24.49
-24.83
-25.52
-25.8
-25.03
-22.87
-19.48
-15.42
-11.45
-8.23
-6.21
-5.5
-5.95
-7.21
-8.73
-9.9
-10.17
-9.31
-7.5
-5.31
-3.44
-2.42
-2.4
-3.07
-3.94
-4.53
-4.62
-4.21
-3.47
-2.6
-1.71
-0.89
-0.21
0.19
0.18
-0.41
-1.62
-3.39
-5.47
-7.51
-9.24
-10.56
-11.6
-12.59
-13.66
-14.66
-15.28
-15.09
-13.82
-11.41
-8.01
-3.93
0.49
4.88
8.87
12.09
14.28
15.37
15.48
14.88
13.89
12.8
11.88
11.31
11.26
11.76
12.62
13.51
13.96
13.63
12.38
10.41
8.17
6.25
5.18
5.28
6.58
8.74
11.23
13.45
15.0
15.73
15.86
15.79
15.92
16.48
17.42
18.45
19.25
19.57
19.38
18.86
18.28
17.88
17.76
17.9
18.19
18.57
19.06
19.69
20.46
21.26
21.84
21.98
21.56
20.67
19.57
18.53
17.77
17.29
16.98
16.67
16.25
15.7
15.09
14.45
13.81
13.23
12.78
12.48
12.19
11.56
9.98
6.81
1.65
-5.41
-13.74
-22.33
-30.15
-36.43
-40.87
-43.61
-45.04
-45.55
-45.49
-45.07
-44.48
-43.82
-43.15
-42.34
-41.09
-38.9
-35.33
-30.2
-23.78
-16.69
-9.7
-3.42
1.98
6.74
11.29
15.95
20.69
25.13
28.72
31.1
32.27
32.68
32.95
33.63
34.98
36.91
39.05
40.98
42.37
43.06
43.07
42.5
41.43
39.93
38.03
35.74
33.14
30.4
27.73
25.33
23.28
21.51
19.89
18.26
16.57
14.89
13.27
11.75
10.24
8.61
6.81
4.93
3.17
1.71
0.52
-0.59
-1.91
-3.65
-5.76
-7.99
-10.0
-11.53
-12.54
-13.18
-13.69
-14.35
-15.36
-16.85
-18.88
-21.39
-24.15
-26.73
-28.56
-29.08
-27.96
-25.26
-21.38
-16.97
-12.7
-9.0
-6.01
-3.58
-1.46
0.56
2.59
4.63
6.6
8.43
10.11
11.63
12.99
14.2
15.25
16.15
16.96
17.78
18.74
19.91
21.25
22.56
23.56
23.99
23.71
22.81
21.54
20.22
19.14
18.42
18.01
17.76
17.48
17.03
16.32
15.33
14.02
12.44
10.62
8.66
6.65
4.72
2.95
1.4
0.11
-0.94
-1.82
-2.66
-3.62
-4.87
-6.47
-8.38
-10.41
-12.31
-13.86
-14.95
-15.63
-16.13
-16.78
-17.88
-19.66
-22.11
-25.0
-27.84
-30.0
-30.86
-29.95
-27.13
-22.65
-17.08
-11.18
-5.73
-1.23
2.08
4.32
5.82
6.99
8.12
9.33
10.56
11.67
12.54
13.2
13.78
14.44
15.27
16.19
17.05
17.68
18.02
18.18
18.29
18.45
18.61
18.61
18.29
17.56
16.49
15.23
13.99
12.89
11.99
11.25
10.57
9.84
9.02
8.08
7.08
6.09
5.16
4.3
3.45
2.5
1.42
0.23
-0.92
-1.9
-2.63
-3.17
-3.72
-4.5
-5.64
-7.14
-8.83
-10.42
-11.72
-12.64
-13.25
-13.73
-14.31
-15.2
-16.55
-18.47
-20.91
-23.7
-26.42
-28.51
-29.35
-28.49
-25.81
-21.59
-16.43
-11.1
-6.27
-2.4
0.38
2.23
3.51
4.61
5.83
7.26
8.8
10.23
11.37
12.13
12.61
12.99
13.42
13.99
14.66
15.32
15.85
16.21
16.41
16.49
16.44
16.25
15.83
15.14
14.19
13.06
11.91
10.9
10.13
9.62
9.29
9.0
8.62
8.04
7.24
6.25
5.19
4.19
3.36
2.73
2.24
1.76
1.15
0.33
-0.69
-1.84
-3.02
-4.13
-5.13
-6.05
-6.92
-7.79
-8.71
-9.72
-10.83
-12.02
-13.24
-14.41
-15.5
-16.52
-17.58
-18.82
-20.38
-22.24
-24.2
-25.83
-26.61
-26.06
-23.94
-20.38
-15.85
-11.04
-6.63
-3.09
-0.54
1.19
2.5
3.75
5.18
6.78
8.37
9.65
10.46
10.77
10.73
10.56
10.47
10.6
10.95
11.47
12.04
12.55
12.91
13.07
13.07
12.93
12.7
12.37
11.92
11.29
10.48
9.55
8.62
7.78
7.09
6.53
6.02
5.48
4.85
4.12
3.34
2.52
1.71
0.93
0.15
-0.66
-1.51
-2.43
-3.42
-4.54
-5.82
-7.31
-8.94
-10.58
-12.01
-13.12
-13.92
-14.64
-15.6
-17.06
-19.05
-21.32
-23.38
-24.66
-24.7
-23.27
-20.46
-16.65
-12.37
-8.17
-4.5
-1.58
0.58
2.14
3.32
4.32
5.29
6.29
7.29
8.2
8.91
9.34
9.47
9.34
9.12
8.96
8.97
9.19
9.57
10.01
10.43
10.75
10.92
10.88
10.59
10.02
9.21
8.22
7.2
6.27
5.49
4.86
4.34
3.88
3.47
3.12
2.87
2.72
2.63
2.5
2.25
1.79
1.1
0.19
-0.87
-1.98
-3.03
-3.92
-4.59
-5.08
-5.48
-5.98
-6.73
-7.83
-9.23
-10.74
-12.13
-13.19
-13.89
-14.39
-14.98
-15.99
-17.61
-19.75
-22.07
-24.0
-24.96
-24.5
-22.51
-19.23
-15.16
-10.93
-7.11
-4.05
-1.8
-0.24
0.92
1.91
2.92
4.0
5.12
6.19
7.15
7.95
8.61
9.16
9.67
10.2
10.83
11.58
12.43
13.26
13.89
14.13
13.92
13.31
12.45
11.51
10.54
9.48
8.23
6.77
5.2
3.72
2.5
1.55
0.75
-0.06
-0.94
-1.77
-2.35
-2.55
-2.42
-2.19
-2.13
-2.42
-2.99
-3.63
-4.12
-4.3
-4.22
-4.03
-3.94
-4.08
-4.51
-5.22
-6.17
-7.3
-8.51
-9.71
-10.85
-11.94
-13.13
-14.57
-16.35
-18.37
-20.3
-21.64
-21.86
-20.63
-17.95
-14.19
-9.97
-5.97
-2.71
-0.37
1.16
2.2
3.05
3.88
4.7
5.43
6.03
6.56
7.11
7.78
8.57
9.35
9.96
10.28
10.3
10.13
9.97
10.01
10.34
10.88
11.44
11.73
11.52
10.76
9.55
8.15
6.86
5.9
5.32
5.04
4.89
4.7
4.4
3.96
3.4
2.76
2.07
1.39
0.78
0.29
-0.06
-0.29
-0.42
-0.51
-0.61
-0.76
-1.03
-1.51
-2.3
-3.47
-4.99
-6.72
-8.47
-10.09
-11.55
-12.96
-14.53
-16.42
-18.66
-21.08
-23.33
-24.95
-25.52
-24.78
-22.7
-19.56
-15.78
-11.85
-8.19
-5.04
-2.45
-0.34
1.44
3.07
4.7
6.37
8.07
9.69
11.1
12.21
13.04
13.69
14.27
14.87
15.47
15.99
16.37
16.59
16.67
16.66
16.55
16.31
15.85
15.13
14.13
12.9
11.52
10.05
8.51
6.93
5.35
3.86
2.61
1.7
1.14
0.83
0.54
0.09
-0.62
-1.57
-2.61
-3.62
-4.53
-5.4
-6.31
-7.31
-8.42
-9.54
-10.57
-11.41
-12.07
-12.58
-13.06
-13.65
-14.51
-15.76
-17.41
-19.32
-21.18
-22.55
-22.99
-22.19
-20.06
-16.84
-12.98
-9.05
-5.52
-2.69
-0.57
0.98
2.2
3.22
4.1
4.79
5.25
5.52
5.71
5.98
6.47
7.23
8.21
9.32
10.39
11.32
12.0
12.41
12.57
12.54
12.42
12.32
12.29
12.33
12.37
12.34
12.15
11.82
11.41
11.03
10.73
10.53
10.36
10.12
9.76
9.28
8.72
8.11
7.42
6.62
5.71
4.72
3.74
2.86
2.12
1.47
0.83
0.09
-0.82
-1.89
-3.07
-4.29
-5.55
-6.91
-8.5
-10.47
-12.93
-15.89
-19.22
-22.6
-25.59
-27.64
-28.27
-27.24
-24.6
-20.78
-16.48
-12.49
-9.43
-7.59
-6.88
-7.01
-7.58
-8.3
-8.99
-9.55
-9.88
-9.84
-9.27
-8.11
-6.45
-4.49
-2.4
-0.24
2.07
4.66
7.53
10.56
13.46
15.95
17.9
19.38
20.57
21.66
22.68
23.54
24.09
24.22
23.98
23.53
23.11
22.93
23.1
23.59
24.22
24.76
25.0
24.84
24.33
23.69
23.2
23.07
23.29
23.6
23.55
22.65
20.57
17.3
13.11
8.44
3.77
-0.62
-4.65
-8.44
-12.2
-16.07
-20.04
-23.98
-27.7
-30.93
-33.38
-34.72
-34.62
-32.91
-29.74
-25.71
-21.82
-19.22
-18.8
-20.87
-25.08
-30.55
-36.3
-41.52
-45.64
-48.28
-48.95
-47.05
-41.99
-33.63
-22.52
-10.04
1.99
11.95
18.96
23.2
25.56
27.14
28.68
30.31
31.77
32.75
33.32
33.81
34.49
35.22
35.27
33.64
29.66
23.51
16.35
9.91
5.71
4.45
5.67
8.06
10.18
11.04
10.46
8.86
6.87
4.91
3.16
1.65
0.57
0.31
1.26
3.49
6.6
9.96
13.04
15.72
18.31
21.25
24.64
27.98
30.35
30.79
28.78
24.49
18.69
12.35
6.28
0.93
-3.61
-7.34
-10.22
-12.07
-12.75
-12.32
-11.15
-9.89
-9.22
-9.55
-10.92
-12.97
-15.14
-16.94
-18.05
-18.41
-18.15
-17.55
-16.94
-16.57
-16.57
-16.84
-17.06
-16.86
-16.02
-14.6
-12.98
-11.67
-11.11
-11.43
-12.42
-13.67
-14.67
-15.02
-14.44
-12.86
-10.4
-7.42
-4.43
-1.98
-0.47
0.04
-0.19
-0.73
-1.21
-1.5
-1.71
-1.99
-2.37
-2.58
-2.22
-0.97
1.15
3.68
5.89
7.14
7.16
6.27
5.17
4.7
5.46
7.66
11.08
15.2
19.4
23.03
25.58
26.65
26.09
23.96
20.62
16.63
12.66
9.23
6.52
4.24
1.7
-1.94
-7.25
-14.17
-21.9
-29.1
-34.36
-36.8
-36.36
-33.73
-29.95
-25.86
-21.85
-17.83
-13.6
-9.16
-4.82
-1.1
1.6
3.39
4.89
7.11
10.98
16.84
24.17
31.55
37.07
39.06
36.71
30.44
21.68
12.29
3.84
-2.88
-7.81
-11.3
-13.63
-14.81
-14.71
-13.37
-11.12
-8.69
-6.81
-5.91
-5.97
-6.57
-7.14
-7.33
-7.11
-6.73
-6.64
-7.21
-8.61
-10.73
-13.2
-15.58
-17.48
-18.68
-19.24
-19.34
-19.29
-19.32
-19.61
-20.21
-21.13
-22.33
-23.7
-25.1
-26.28
-26.91
-26.66
-25.28
-22.7
-19.1
-14.93
-10.75
-7.1
-4.34
-2.48
-1.28
-0.35
0.68
2.0
3.63
5.49
7.44
9.36
11.14
12.67
13.83
14.57
14.97
15.18
15.4
15.72
16.09
16.38
16.44
16.2
15.69
15.04
14.35
13.72
13.2
12.84
12.7
12.81
13.18
13.74
14.36
14.86
15.08
14.87
14.18
13.0
11.41
9.51
7.47
5.51
3.8
2.45
1.45
0.62
-0.33
-1.68
-3.59
-6.03
-8.71
-11.15
-12.81
-13.28
-12.37
-10.2
-7.16
-3.77
-0.58
2.03
3.88
4.96
5.39
5.34
5.01
4.65
4.44
4.55
5.01
5.74
6.59
7.44
8.17
8.75
9.1
9.16
8.86
8.24
7.36
6.36
5.35
4.38
3.39
2.36
1.29
0.24
-0.68
-1.41
-1.92
-2.22
-2.34
-2.33
-2.23
-2.13
-2.13
-2.29
-2.66
-3.21
-3.89
-4.64
-5.43
-6.23
-7.02
-7.76
-8.42
-8.93
-9.31
-9.6
-9.91
-10.4
-11.2
-12.32
-13.64
-14.85
-15.59
-15.51
-14.43
-12.36
-9.55
-6.38
-3.28
-0.62
1.34
2.56
3.15
3.37
3.5
3.74
4.12
4.56
4.91
5.08
5.02
4.75
4.36
3.92
3.55
3.36
3.46
3.88
4.54
5.27
5.8
5.96
5.66
4.95
4.02
3.06
2.21
1.53
0.99
0.5
0.0
-0.54
-1.08
-1.54
-1.86
-2.04
-2.17
-2.33
-2.6
-2.98
-3.45
-3.96
-4.46
-4.92
-5.36
-5.82
-6.37
-7.09
-7.98
-9.06
-10.23
-11.47
-12.74
-13.99
-15.12
-15.91
-16.03
-15.21
-13.35
-10.62
-7.45
-4.31
-1.58
0.61
2.3
3.62
4.65
5.43
5.93
6.15
6.13
5.93
5.6
5.22
4.84
4.54
4.4
4.49
4.83
5.39
6.05
6.65
7.08
7.25
7.16
6.86
6.42
5.9
5.32
4.72
4.16
3.69
3.37
3.18
3.05
2.83
2.45
1.91
1.26
0.62
0.03
-0.55
-1.2
-2.04
-3.11
-4.35
-5.69
-7.0
-8.2
-9.21
-10.02
-10.67
-11.3
-12.1
-13.26
-14.88
-16.81
-18.7
-20.04
-20.34
-19.31
-16.99
-13.71
-9.98
-6.3
-3.07
-0.44
1.55
3.0
4.01
4.67
5.02
5.13
5.08
5.01
5.07
5.35
5.83
6.41
6.89
7.16
7.24
7.29
7.49
7.95
8.61
9.26
9.65
9.65
9.26
8.64
7.98
7.37
6.82
6.22
5.47
4.5
3.4
2.31
1.41
0.79
0.41
0.11
-0.31
-0.98
-1.97
-3.21
-4.6
-6.03
-7.39
-8.61
-9.64
-10.51
-11.31
-12.23
-13.52
-15.32
-17.6
-20.09
-22.31
-23.65
-23.63
-21.98
-18.79
-14.51
-9.83
-5.48
-1.99
0.45
2.02
3.09
4.04
5.04
6.06
6.93
7.51
7.78
7.87
7.92
8.04
8.21
8.39
8.52
8.6
8.7
8.92
9.34
9.95
10.69
11.37
11.78
11.7
11.03
9.88
8.49
7.17
6.11
5.34
4.72
4.02
3.08
1.88
0.49
-0.96
-2.42
-3.89
-5.44
-7.11
-8.84
-10.5
-11.87
-12.77
-13.12
-12.95
-12.43
-11.82
-11.37
-11.28
-11.71
-12.71
-14.17
-15.75
-16.93
-17.05
-15.59
-12.41
-7.84
-2.61
2.48
6.82
10.21
12.75
14.72
16.36
17.77
18.92
19.75
20.22
20.34
20.22
20.0
19.92
20.22
21.1
22.63
24.66
26.84
28.71
29.9
30.23
29.82
28.95
27.92
26.92
25.96
24.85
23.38
21.44
19.01
16.23
13.25
10.23
7.29
4.54
2.04
-0.21
-2.31
-4.51
-7.1
-10.37
-14.51
-19.52
-25.28
-31.5
-37.86
-43.95
-49.44
-54.07
-57.71
-60.32
-61.9
-62.32
-61.38
-58.85
-54.68
-49.12
-42.72
-36.22
-30.26
-25.21
-21.06
-17.63
-14.76
-12.5
-11.09
-10.86
-12.01
-14.4
-17.61
-20.98
-23.82
-25.59
-25.98
-25.01
-23.03
-20.61
-18.37
-16.77
-15.93
-15.64
-15.45
-14.84
-13.37
-10.68
-6.52
-0.73
6.67
15.3
24.43
33.11
40.49
46.05
49.81
52.06
53.11
53.03
51.71
49.16
45.83
42.71
41.11
42.11
46.17
52.95
61.52
70.69
79.43
87.0
92.96
97.06
99.22
99.46
97.92
94.81
90.27
84.3
76.73
67.4
56.4
44.24
31.91
20.64
11.61
5.55
2.55
2.04
2.95
4.06
4.33
3.01
-0.19
-5.22
-11.61
-18.66
-25.53
-31.47
-36.06
-39.35
-41.77
-43.91
-46.27
-49.09
-52.3
-55.67
-58.91
-61.68
-63.68
-64.7
-64.74
-64.13
-63.38
-62.91
-62.67
-62.01
-59.84
-55.17
-47.66
-37.93
-27.31
-17.3
-8.89
-2.24
3.24
8.43
14.0
20.15
26.67
33.14
39.16
44.34
48.13
49.96
49.38
46.56
42.44
38.57
36.41
36.63
38.68
41.04
42.05
40.67
37.0
32.0
26.87
22.36
18.44
14.48
9.71
3.73
-3.21
-10.32
-16.61
-21.19
-23.68
-24.2
-23.38
-22.1
-21.4
-22.33
-25.72
-31.97
-40.8
-51.23
-61.82
-71.17
-78.44
-83.53
-86.82
-88.68
-89.01
-87.23
-82.72
-75.29
-65.41
-54.07
-42.27
-30.75
-19.85
-9.8
-0.9
6.51
12.22
16.38
19.48
22.09
24.61
27.12
29.49
31.6
33.4
34.87
35.89
36.15
35.35
33.45
30.83
28.22
26.35
25.58
25.72
26.14
26.17
25.45
24.07
22.44
20.99
19.9
18.97
17.8
16.02
13.52
10.48
7.26
4.18
1.45
-0.9
-2.88
-4.44
-5.48
-5.91
-5.76
-5.29
-4.93
-5.28
-6.91
-10.22
-15.41
-22.29
-30.28
-38.4
-45.45
-50.19
-51.66
-49.44
-43.76
-35.49
-25.89
-16.27
-7.67
-0.56
5.11
9.74
13.79
17.56
21.09
24.25
26.93
29.09
30.83
32.21
33.23
33.77
33.71
33.05
31.97
30.78
29.82
29.27
29.11
29.02
28.52
27.11
24.51
20.83
16.65
12.85
10.33
9.64
10.8
13.23
16.03
18.31
19.49
19.47
18.57
17.31
16.13
15.16
14.13
12.52
9.79
5.68
0.42
-5.31
-10.72
-15.22
-18.66
-21.37
-23.92
-26.81
-30.28
-34.2
-38.2
-41.76
-44.38
-45.58
-45.0
-42.44
-37.95
-31.87
-24.82
-17.58
-10.87
-5.18
-0.68
2.79
5.56
7.99
10.29
12.47
14.41
15.94
17.01
17.72
18.26
18.87
19.73
20.9
22.35
24.01
25.75
27.37
28.66
29.43
29.57
29.15
28.4
27.62
27.1
26.99
27.19
27.37
26.98
25.48
22.51
18.02
12.3
5.87
-0.76
-7.22
-13.38
-19.25
-24.76
-29.64
-33.48
-35.85
-36.55
-35.78
-34.11
-32.29
-30.95
-30.44
-30.7
-31.42
-32.22
-32.97
-33.79
-35.08
-37.17
-40.11
-43.45
-46.28
-47.5
-46.24
-42.1
-35.38
-26.86
-17.62
-8.63
-0.58
6.22
11.76
16.22
19.7
22.25
23.78
24.33
24.1
23.54
23.2
23.54
24.69
26.39
28.15
29.48
30.12
30.15
29.83
29.47
29.19
28.91
28.39
27.47
26.11
24.45
22.75
21.19
19.86
18.69
17.53
16.25
14.8
13.25
11.72
10.31
9.03
7.77
6.46
5.05
3.58
2.13
0.7
-0.81
-2.61
-4.81
-7.4
-10.12
-12.64
-14.71
-16.29
-17.51
-18.65
-19.89
-21.33
-22.94
-24.66
-26.41
-28.07
-29.37
-29.91
-29.2
-26.88
-22.93
-17.74
-12.03
-6.61
-2.15
1.0
2.94
4.04
4.78
5.53
6.41
7.29
7.96
8.28
8.31
8.28
8.41
8.78
9.26
9.63
9.77
9.82
10.14
11.13
13.01
15.58
18.27
20.39
21.38
21.01
19.48
17.26
14.86
12.64
10.64
8.62
6.18
2.92
-1.3
-6.29
-11.51
-16.26
-19.94
-22.29
-23.54
-24.27
-25.31
-27.41
-31.1
-36.53
-43.19
-49.61
-53.22
-50.69
-38.95
-16.6
14.98
51.47
86.72
114.8
131.92
137.45
133.43
123.26
110.09
95.9
81.54
67.28
53.47
40.79
30.02
21.66
15.69
11.6
8.59
5.92
3.15
0.23
-2.58
-4.89
-6.51
-7.59
-8.57
-9.97
-11.98
-14.35
-16.48
-17.69
-17.67
-16.63
-15.22
-14.18
-13.9
-14.28
-14.76
-14.72
-13.75
-11.87
-9.51
-7.23
-5.53
-4.64
-4.53
-4.95
-5.63
-6.4
-7.2
-8.05
-8.94
-9.8
-10.47
-10.77
-10.64
-10.14
-9.45
-8.8
-8.4
-8.39
-8.87
-9.87
-11.37
-13.27
-15.33
-17.23
-18.59
-19.11
-18.6
-17.09
-14.69
-11.59
-7.92
-3.8
0.71
5.51
10.43
15.32
20.01
24.4
28.44
32.1
35.32
38.0
40.01
41.31
41.91
41.93
41.45
40.48
38.95
36.75
33.85
30.45
26.85
23.36
20.11
16.89
13.2
8.49
2.34
-5.25
-13.9
-22.99
-31.91
-40.21
-47.68
-54.28
-60.0
-64.83
-68.72
-71.6
-73.44
-74.2
-73.92
-72.61
-70.42
-67.54
-64.28
-60.97
-57.87
-55.16
-52.89
-51.04
-49.52
-48.13
-46.57
-44.46
-41.4
-37.17
-31.83
-25.71
-19.31
-13.19
-7.75
-3.21
0.39
3.08
4.89
5.81
5.83
5.02
3.63
2.07
0.89
0.63
1.62
3.86
7.03
10.64
14.22
17.46
20.3
22.73
24.69
25.94
26.16
25.1
22.77
19.45
15.71
12.11
9.09
6.83
5.29
4.3
3.61
2.97
2.14
0.87
-1.06
-3.75
-7.21
-11.31
-15.84
-20.51
-25.03
-29.18
-32.81
-35.84
-38.26
-40.05
-41.06
-41.08
-39.8
-36.97
-32.52
-26.62
-19.73
-12.5
-5.68
0.1
4.47
7.51
9.82
12.32
16.02
21.61
29.28
38.63
48.9
59.18
68.64
76.57
82.36
85.49
85.59
82.6
76.91
69.36
61.02
52.87
45.54
39.14
33.33
27.57
21.43
14.76
7.8
0.98
-5.24
-10.5
-14.64
-17.62
-19.44
-20.2
-20.03
-19.23
-18.23
-17.51
-17.53
-18.6
-20.88
-24.29
-28.63
-33.53
-38.57
-43.25
-47.07
-49.57
-50.44
-49.59
-47.25
-44.08
-41.04
-39.14
-39.14
-41.13
-44.37
-47.47
-48.9
-47.55
-43.18
-36.46
-28.55
-20.65
-13.47
-7.1
-1.26
4.4
9.95
15.03
18.97
21.06
20.8
18.08
13.29
7.21
0.86
-4.74
-8.83
-11.0
-11.24
-9.79
-7.08
-3.52
0.48
4.48
8.08
10.91
12.74
13.54
13.44
12.7
11.6
10.4
9.31
8.44
7.85
7.48
7.25
7.03
6.77
6.47
6.17
5.92
5.66
5.28
4.65
3.65
2.31
0.75
-0.81
-2.1
-2.86
-2.98
-2.49
-1.64
-0.79
-0.34
-0.54
-1.46
-3.0
-5.0
-7.39
-10.15
-13.25
-16.46
-19.34
-21.33
-21.97
-21.1
-18.93
-15.94
-12.65
-9.43
-6.41
-3.53
-0.73
2.03
4.69
7.17
9.47
11.6
13.59
15.33
16.68
17.47
17.67
17.43
17.01
16.63
16.4
16.25
15.98
15.44
14.63
13.69
12.84
12.26
11.98
11.92
11.93
11.88
11.65
11.19
10.49
9.59
8.6
7.68
7.0
6.6
6.39
6.16
5.7
4.87
3.72
2.42
1.15
-0.02
-1.16
-2.42
-3.92
-5.63
-7.4
-8.99
-10.17
-10.83
-11.04
-10.96
-10.9
-11.15
-12.0
-13.74
-16.5
-20.24
-24.62
-29.02
-32.57
-34.43
-34.02
-31.25
-26.55
-20.74
-14.71
-9.2
-4.58
-0.87
2.12
4.61
6.82
8.8
10.53
11.9
12.74
12.96
12.62
11.96
11.41
11.39
12.15
13.68
15.68
17.72
19.44
20.62
21.23
21.33
20.98
20.21
19.08
17.7
16.23
14.89
13.79
12.92
12.13
11.28
10.36
9.61
9.42
10.18
12.11
15.01
18.36
21.42
23.5
24.16
23.35
21.37
18.74
16.05
13.7
11.85
10.33
8.72
6.6
3.72
0.1
-3.97
-8.14
-12.16
-15.94
-19.49
-22.79
-25.77
-28.37
-30.66
-32.87
-35.27
-37.92
-40.44
-42.09
-42.0
-39.54
-34.65
-27.9
-20.27
-12.81
-6.33
-1.11
2.99
6.43
9.66
12.96
16.38
19.74
22.86
25.68
28.28
30.81
33.35
35.8
37.95
39.54
40.34
40.27
39.36
37.78
35.71
33.41
31.09
28.9
26.92
25.16
23.62
22.3
21.08
19.79
18.2
16.23
14.18
12.93
13.68
17.57
25.06
35.59
47.6
58.97
67.66
72.39
72.83
69.58
63.77
56.6
48.95
41.27
33.62
25.78
17.47
8.46
-1.34
-11.8
-22.56
-33.02
-42.45
-50.18
-55.77
-59.15
-60.67
-60.92
-60.5
-59.84
-59.13
-58.35
-57.38
-56.07
-54.27
-51.82
-48.63
-44.78
-40.62
-36.67
-33.5
-31.44
-30.38
-29.79
-28.93
-27.23
-24.5
-21.08
-17.55
-14.5
-12.18
-10.49
-9.04
-7.47
-5.63
-3.62
-1.74
-0.27
0.66
1.16
1.42
1.68
1.99
2.28
2.38
2.18
1.69
1.1
0.6
0.39
0.49
0.8
1.12
1.27
1.18
0.9
0.57
0.33
0.24
0.25
0.19
-0.11
-0.76
-1.76
-3.0
-4.28
-5.44
-6.36
-7.04
-7.55
-8.04
-8.65
-9.48
-10.57
-11.85
-13.2
-14.46
-15.51
-16.38
-17.21
-18.27
-19.8
-21.93
-24.51
-27.13
-29.18
-30.0
-29.11
-26.36
-21.97
-16.52
-10.79
-5.49
-1.19
1.96
4.12
5.69
7.11
8.67
10.39
12.04
13.35
14.12
14.42
14.5
14.75
15.39
16.47
17.82
19.14
20.21
20.95
21.37
21.55
21.56
21.38
20.94
20.23
19.26
18.14
17.0
15.93
14.95
13.98
12.88
11.52
9.94
8.32
7.09
6.73
7.64
9.91
13.24
16.96
20.24
22.35
22.84
21.7
19.19
15.78
11.91
7.98
4.25
0.91
-1.95
-4.31
-6.25
-7.91
-9.45
-11.01
-12.7
-14.55
-16.57
-18.69
-20.79
-22.73
-24.44
-25.98
-27.49
-29.16
-31.02
-32.79
-33.95
-33.87
-32.09
-28.6
-23.87
-18.72
-13.97
-10.21
-7.64
-6.05
-5.04
-4.18
-3.18
-1.87
-0.2
1.79
3.98
6.22
8.34
10.2
11.76
13.08
14.27
15.42
16.55
17.64
18.65
19.57
20.41
21.18
21.79
22.1
22.01
21.48
20.64
19.7
18.82
18.08
17.41
16.75
16.02
15.22
14.38
13.5
12.57
11.57
10.5
9.4
8.28
7.15
5.96
4.67
3.25
1.69
-0.0
-1.86
-3.91
-6.16
-8.58
-11.06
-13.53
-15.89
-18.16
-20.33
-22.44
-24.5
-26.51
-28.54
-30.67
-33.02
-35.65
-38.45
-41.1
-43.08
-43.76
-42.68
-39.72
-35.16
-29.69
-24.15
-19.24
-15.37
-12.65
-10.99
-10.18
-9.91
-9.58
-8.23
-4.71
1.95
12.06
25.0
39.33
53.26
65.25
74.52
81.06
85.37
87.96
89.11
88.8
86.95
83.63
79.11
73.63
67.16
59.33
49.65
38.05
25.32
13.24
3.98
-0.7
-0.37
3.85
9.77
15.12
18.57
20.07
20.56
21.22
22.66
24.61
26.21
26.46
24.74
20.97
15.48
8.8
1.4
-6.32
-14.0
-21.34
-28.15
-34.54
-40.85
-47.45
-54.39
-61.2
-66.84
-70.15
-70.34
-67.46
-62.45
-56.8
-51.93
-48.73
-47.29
-47.08
-47.29
-47.15
-46.17
-44.19
-41.4
-38.24
-35.3
-33.17
-32.19
-32.35
-33.38
-34.84
-36.39
-37.78
-38.71
-38.69
-37.08
-33.27
-27.08
-18.94
-9.84
-0.95
6.84
13.19
18.29
22.52
26.16
29.19
31.37
32.44
32.34
31.23
29.4
27.19
24.87
22.71
20.94
19.78
19.32
19.38
19.49
18.93
17.03
13.44
8.32
2.34
-3.63
-8.78
-12.74
-15.59
-17.69
-19.44
-20.96
-22.13
-22.7
-22.54
-21.78
-20.79
-19.99
-19.65
-19.82
-20.36
-21.01
-21.59
-21.92
-21.84
-21.15
-19.68
-17.4
-14.49
-11.3
-8.26
-5.65
-3.55
-1.87
-0.43
0.89
2.13
3.3
4.46
5.73
7.28
9.17
11.28
13.27
14.67
15.04
14.13
11.97
8.87
5.25
1.55
-1.92
-5.1
-8.11
-11.17
-14.49
-18.14
-21.92
-25.3
-27.4
-27.22
-23.96
-17.42
-8.27
2.06
11.75
19.24
23.73
25.28
24.6
22.58
19.94
17.05
14.05
11.08
8.31
5.89
3.81
1.87
-0.21
-2.57
-5.11
-7.63
-9.92
-11.92
-13.69
-15.28
-16.62
-17.54
-17.98
-18.17
-18.61
-19.86
-22.2
-25.35
-28.53
-30.73
-31.14
-29.48
-26.05
-21.52
-16.66
-12.1
-8.18
-5.0
-2.43
-0.23
1.92
4.28
7.02
10.09
13.31
16.46
19.46
22.43
25.58
29.09
32.95
36.87
40.52
43.65
46.31
48.82
51.56
54.75
58.28
61.77
64.75
66.84
67.9
68.01
67.39
66.32
64.99
63.54
61.96
60.17
58.06
55.54
52.63
49.43
46.09
42.77
39.53
36.36
33.18
29.94
26.63
23.33
20.13
17.12
14.31
11.63
8.99
6.27
3.46
0.61
-2.18
-4.83
-7.34
-9.74
-12.1
-14.44
-16.75
-19.02
-21.24
-23.38
-25.46
-27.43
-29.31
-31.17
-33.16
-35.43
-37.96
-40.47
-42.39
-43.03
-41.84
-38.64
-33.68
-27.59
-21.18
-15.19
-10.1
-6.1
-3.06
-0.7
1.33
3.3
5.34
7.41
9.34
10.92
11.98
12.45
12.36
11.86
11.18
10.6
10.38
10.72
11.71
13.21
14.88
16.13
16.34
15.0
11.92
7.37
1.99
-3.4
-7.98
-11.24
-12.98
-13.33
-12.62
-11.2
-9.34
-7.21
-4.86
-2.32
0.37
3.1
5.68
7.86
9.43
10.21
10.04
8.83
6.5
3.1
-1.15
-5.83
-10.35
-14.07
-16.51
-17.49
-17.19
-16.07
-14.73
-13.74
-13.49
-14.12
-15.56
-17.49
-19.5
-21.15
-22.07
-22.09
-21.31
-20.06
-18.88
-18.34
-18.82
-20.34
-22.52
-24.67
-25.98
-25.78
-23.75
-19.97
-14.86
-9.01
-3.09
2.38
7.01
10.63
13.29
15.14
16.39
17.22
17.72
17.89
17.73
17.3
16.7
16.09
15.65
15.48
15.57
15.81
16.03
16.09
15.89
15.44
14.84
14.21
13.69
13.31
13.03
12.76
12.43
11.98
11.49
11.02
10.66
10.4
10.2
10.03
9.91
9.94
10.23
10.89
11.86
12.91
13.75
14.11
13.9
13.19
12.17
11.04
9.88
8.72
7.48
6.13
4.68
3.17
1.64
0.13
-1.33
-2.72
-4.03
-5.23
-6.37
-7.52
-8.77
-10.21
-11.81
-13.48
-15.05
-16.36
-17.35
-18.06
-18.69
-19.49
-20.74
-22.58
-24.96
-27.63
-30.11
-31.87
-32.39
-31.38
-28.79
-24.93
-20.35
-15.67
-11.45
-7.98
-5.31
-3.22
-1.49
0.07
1.49
2.71
3.66
4.34
4.86
5.38
6.01
6.79
7.69
8.65
9.58
10.42
11.11
11.61
11.86
11.87
11.67
11.32
10.91
10.49
10.11
9.75
9.4
9.03
8.59
8.02
7.32
6.52
5.71
5.0
4.51
4.27
4.22
4.23
4.13
3.78
3.17
2.36
1.49
0.61
-0.29
-1.28
-2.41
-3.61
-4.71
-5.52
-6.02
-6.34
-6.77
-7.55
-8.73
-10.19
-11.67
-12.99
-14.1
-15.05
-15.96
-16.95
-18.13
-19.63
-21.63
-24.18
-27.2
-30.29
-32.92
-34.5
-34.63
-33.15
-30.22
-26.18
-21.52
-16.75
-12.3
-8.45
-5.31
-2.79
-0.7
1.14
2.82
4.34
5.63
6.72
7.69
8.67
9.72
10.78
11.69
12.24
12.36
12.09
11.62
11.13
10.72
10.42
10.15
9.83
9.41
8.9
8.34
7.79
7.32
7.03
6.99
7.23
7.69
8.28
8.95
9.73
10.74
12.06
13.66
15.35
16.85
17.92
18.46
18.5
18.16
17.49
16.51
15.19
13.55
11.68
9.71
7.75
5.81
3.8
1.62
-0.79
-3.35
-5.86
-8.05
-9.77
-11.02
-12.02
-13.12
-14.74
-17.13
-20.3
-23.92
-27.48
-30.41
-32.37
-33.35
-33.66
-33.73
-33.86
-34.11
-34.23
-33.89
-32.87
-31.23
-29.25
-27.26
-25.47
-23.86
-22.21
-20.32
-18.08
-15.5
-12.71
-9.79
-6.74
-3.52
-0.12
3.4
6.84
9.93
12.43
14.22
15.36
16.04
16.53
17.01
17.56
18.1
18.46
18.51
18.23
17.71
17.13
16.65
16.35
16.15
15.92
15.48
14.69
13.52
12.01
10.26
8.4
6.59
4.93
3.54
2.43
1.51
0.56
-0.63
-2.24
-4.25
-6.51
-8.75
-10.86
-12.9
-15.13
-17.88
-21.27
-25.16
-29.16
-32.77
-35.53
-37.12
-37.38
-36.18
-33.56
-29.71
-25.09
-20.31
-15.92
-12.23
-9.16
-6.39
-3.56
-0.51
2.7
5.83
8.69
11.26
13.62
15.92
18.19
20.37
22.34
23.97
25.2
26.03
26.47
26.5
26.11
25.27
23.96
22.22
20.14
17.91
15.79
14.05
12.86
12.27
12.14
12.28
12.5
12.74
13.01
13.39
13.91
14.51
15.07
15.42
15.43
15.07
14.38
13.48
12.46
11.41
10.36
9.29
8.16
6.95
5.61
4.09
2.32
0.24
-2.14
-4.75
-7.42
-9.98
-12.33
-14.51
-16.65
-18.97
-21.61
-24.61
-27.81
-30.92
-33.5
-35.06
-35.16
-33.59
-30.45
-26.19
-21.49
-17.04
-13.3
-10.36
-8.01
-5.91
-3.77
-1.48
0.89
3.16
5.19
6.89
8.3
9.47
10.46
11.35
12.17
12.97
13.75
14.46
15.04
15.39
15.53
15.49
15.4
15.38
15.53
15.89
16.44
17.15
17.97
18.85
19.74
20.55
21.17
21.42
21.21
20.52
19.45
18.18
16.89
15.69
14.59
13.55
12.47
11.33
10.15
8.97
7.77
6.55
5.27
3.93
2.63
1.46
0.49
-0.33
-1.13
-2.05
-3.16
-4.38
-5.59
-6.64
-7.53
-8.37
-9.4
-10.82
-12.78
-15.26
-18.14
-21.19
-24.1
-26.49
-27.94
-28.04
-26.58
-23.6
-19.52
-15.0
-10.76
-7.31
-4.81
-3.05
-1.56
0.07
2.04
4.27
6.45
8.25
9.52
10.29
10.82
11.38
12.17
13.21
14.4
15.6
16.72
17.75
18.72
19.61
20.33
20.72
20.65
20.08
19.15
18.09
17.16
16.55
16.33
16.45
16.84
17.37
17.91
18.26
18.17
17.4
15.81
13.49
10.69
7.77
5.06
2.77
0.96
-0.45
-1.55
-2.43
-3.2
-3.93
-4.71
-5.62
-6.65
-7.76
-8.86
-9.86
-10.67
-11.24
-11.56
-11.67
-11.68
-11.76
-12.06
-12.66
-13.54
-14.61
-15.74
-16.79
-17.67
-18.37
-18.95
-19.54
-20.33
-21.51
-23.19
-25.32
-27.65
-29.76
-31.13
-31.34
-30.19
-27.8
-24.51
-20.82
-17.21
-13.99
-11.3
-9.06
-7.12
-5.31
-3.47
-1.55
0.4
2.28
3.94
5.28
6.29
7.1
7.86
8.72
9.73
10.77
11.67
12.29
12.62
12.73
12.79
12.9
13.12
13.39
13.61
13.66
13.49
13.09
12.5
11.81
11.12
10.5
9.97
9.48
8.95
8.32
7.5
6.48
5.18
3.58
1.62
-0.65
-3.08
-5.4
-7.27
-8.37
-8.53
-7.75
-6.22
-4.25
-2.2
-0.36
1.06
1.97
2.4
2.43
2.17
1.69
1.02
0.22
-0.69
-1.64
-2.61
-3.59
-4.64
-5.84
-7.22
-8.76
-10.34
-11.8
-12.97
-13.8
-14.37
-14.91
-15.69
-16.96
-18.79
-21.08
-23.49
-25.56
-26.78
-26.75
-25.33
-22.69
-19.23
-15.44
-11.7
-8.12
-4.57
-0.81
3.31
7.68
11.98
15.74
18.61
20.42
21.28
21.4
20.99
20.19
19.12
17.9
16.74
15.85
15.36
15.27
15.41
15.49
15.28
14.67
13.7
12.55
11.41
10.43
9.65
9.06
8.57
8.08
7.5
6.81
6.05
5.38
4.96
4.86
5.0
5.11
4.85
3.97
2.48
0.64
-1.1
-2.37
-3.08
-3.47
-4.02
-5.2
-7.28
-10.28
-13.96
-17.88
-21.41
-23.65
-23.61
-20.45
-13.94
-4.79
5.36
14.44
20.61
22.95
21.63
17.63
12.09
5.8
-1.0
-8.36
-16.24
-24.2
-31.4
-36.91
-40.06
-40.73
-39.31
-36.5
-33.01
-29.35
-25.8
-22.46
-19.42
-16.71
-14.37
-12.4
-10.72
-9.24
-7.85
-6.48
-5.04
-3.5
-1.79
0.08
2.0
3.85
5.48
6.82
7.94
8.96
10.0
11.1
12.24
13.3
14.17
14.78
15.11
15.14
14.85
14.15
12.93
11.2
9.16
7.31
6.28
6.62
8.52
11.62
15.14
18.13
19.9
20.2
19.26
17.51
15.3
12.74
9.78
6.38
2.75
-0.67
-3.43
-5.43
-7.09
-9.34
-13.15
-19.14
-27.16
-36.29
-45.05
-51.87
-55.48
-55.21
-50.99
-43.37
-33.32
-22.06
-10.94
-1.16
6.4
11.32
13.65
13.85
12.58
10.53
8.3
6.28
4.72
3.74
3.46
4.05
5.73
8.71
12.97
18.25
23.99
29.43
33.86
36.77
38.01
37.77
36.52
34.74
32.8
30.8
28.63
26.1
23.16
19.96
16.86
14.19
12.16
10.66
9.37
7.94
6.16
4.11
2.06
0.28
-1.18
-2.51
-4.15
-6.64
-10.44
-15.88
-23.03
-31.7
-41.37
-51.2
-60.17
-67.22
-71.59
-73.06
-72.13
-69.95
-68.01
-67.66
-69.65
-73.9
-79.5
-85.07
-89.15
-90.56
-88.6
-83.11
-74.32
-62.69
-48.83
-33.45
-17.37
-1.49
13.34
26.51
37.74
47.15
55.11
62.02
68.12
73.39
77.56
80.34
81.58
81.36
79.94
77.66
74.75
71.38
67.6
63.38
58.67
53.41
47.58
41.31
34.96
29.05
24.1
20.48
18.14
16.64
15.37
13.78
11.64
9.07
6.44
4.1
2.21
0.67
-0.71
-2.08
-3.44
-4.58
-5.28
-5.4
-5.02
-4.43
-3.98
-3.94
-4.42
-5.34
-6.43
-7.44
-8.2
-8.72
-9.16
-9.84
-11.02
-12.92
-15.58
-18.87
-22.54
-26.19
-29.34
-31.53
-32.35
-31.55
-29.15
-25.51
-21.24
-17.07
-13.64
-11.3
-9.98
-9.33
-8.85
-8.19
-7.24
-6.08
-4.87
-3.74
-2.69
-1.64
-0.5
0.84
2.41
4.17
6.03
7.82
9.3
10.25
10.52
10.11
9.09
7.67
6.02
4.31
2.7
1.39
0.55
0.26
0.47
0.97
1.55
2.01
2.28
2.3
2.06
1.49
0.51
-0.82
-2.26
-3.33
-3.43
-2.04
1.08
5.69
11.05
16.0
19.29
19.95
17.65
12.78
6.31
-0.61
-7.11
-12.79
-17.68
-21.91
-25.35
-27.44
-27.45
-24.75
-19.21
-11.23
-1.61
8.88
19.66
30.33
40.55
49.85
57.71
63.81
68.18
71.25
73.64
75.79
77.78
79.38
80.26
80.29
79.59
78.43
77.01
75.36
73.38
70.95
68.08
64.9
61.52
57.95
54.01
49.43
43.95
37.43
29.97
21.95
13.95
6.58
0.14
-5.45
-10.66
-16.07
-21.88
-27.73
-32.76
-36.06
-37.25
-36.86
-36.18
-36.69
-39.38
-44.27
-50.46
-56.57
-61.35
-64.15
-65.01
-64.46
-63.18
-61.65
-60.1
-58.53
-56.85
-55.01
-53.04
-51.06
-49.21
-47.66
-46.54
-45.95
-45.98
-46.6
-47.68
-48.91
-49.8
-49.71
-48.02
-44.31
-38.61
-31.44
-23.68
-16.36
-10.22
-5.57
-2.17
0.49
2.98
5.68
8.69
11.87
15.01
17.87
20.32
22.33
23.99
25.45
26.9
28.38
29.84
31.08
31.95
32.41
32.6
32.75
33.04
33.39
33.53
33.12
31.93
30.08
27.91
25.84
24.18
22.94
21.92
20.79
19.29
17.29
14.8
11.9
8.63
5.03
1.1
-3.03
-7.16
-10.99
-14.25
-16.7
-18.28
-19.09
-19.31
-19.24
-19.13
-19.17
-19.43
-19.86
-20.37
-20.85
-21.26
-21.66
-22.24
-23.23
-24.88
-27.27
-30.26
-33.43
-36.13
-37.63
-37.32
-34.98
-30.78
-25.29
-19.3
-13.52
-8.43
-4.19
-0.68
2.34
5.13
7.88
10.71
13.67
16.77
20.02
23.41
26.87
30.32
33.64
36.65
39.16
40.98
41.94
41.93
40.9
38.9
36.15
33.02
29.97
27.46
25.76
24.86
24.51
24.38
24.21
23.88
23.42
22.87
22.2
21.28
19.99
18.28
16.21
13.97
11.73
9.65
7.82
6.3
5.05
3.94
2.63
0.7
-2.2
-6.23
-11.19
-16.57
-21.71
-26.06
-29.27
-31.3
-32.34
-32.73
-32.81
-32.9
-33.27
-34.07
-35.38
-37.19
-39.48
-42.24
-45.48
-49.2
-53.15
-56.82
-59.36
-59.82
-57.5
-52.22
-44.4
-35.0
-25.14
-15.79
-7.55
-0.62
5.09
9.75
13.56
16.65
19.13
21.11
22.73
24.11
25.38
26.7
28.19
29.92
31.82
33.7
35.27
36.23
36.41
35.79
34.57
33.0
31.37
29.83
28.44
27.12
25.74
24.15
22.22
19.85
16.98
13.63
9.93
6.17
2.73
-0.01
-1.77
-2.5
-2.34
-1.6
-0.58
0.49
1.43
2.11
2.38
2.09
1.13
-0.48
-2.57
-4.88
-7.11
-9.07
-10.69
-12.08
-13.43
-15.02
-17.05
-19.59
-22.61
-25.92
-29.37
-32.9
-36.55
-40.43
-44.56
-48.78
-52.65
-55.6
-57.06
-56.59
-54.04
-49.54
-43.5
-36.48
-29.13
-22.07
-15.73
-10.3
-5.75
-1.85
1.66
4.96
8.09
10.97
13.41
15.27
16.49
17.15
17.45
17.63
17.86
18.13
18.34
18.31
17.92
17.2
16.3
15.37
14.45
13.4
12.02
10.22
8.14
6.1
4.47
3.37
2.65
2.01
1.25
0.44
-0.08
0.1
1.17
2.98
5.1
7.07
8.59
9.6
10.13
10.16
9.54
8.08
5.77
2.83
-0.28
-3.11
-5.45
-7.42
-9.45
-12.03
-15.49
-19.83
-24.76
-29.74
-34.1
-37.18
-38.39
-37.41
-34.23
-29.24
-23.18
-16.9
-11.18
-6.38
-2.5
0.8
3.91
7.06
10.22
13.18
15.69
17.64
19.12
20.31
21.38
22.4
23.29
23.98
24.45
24.8
25.23
25.87
26.76
27.74
28.53
28.8
28.28
26.89
24.76
22.17
19.53
17.13
15.11
13.41
11.82
10.14
8.23
6.02
3.51
0.77
-2.06
-4.7
-6.77
-7.94
-8.1
-7.45
-6.46
-5.61
-5.21
-5.23
-5.38
-5.22
-4.29
-2.23
1.21
6.1
12.21
18.99
25.56
30.98
34.4
35.34
33.72
29.8
24.05
17.0
9.16
0.98
-7.06
-14.47
-20.72
-25.32
-27.93
-28.5
-27.36
-25.12
-22.5
-20.08
-18.07
-16.34
-14.53
-12.29
-9.47
-6.15
-2.58
0.93
4.17
7.07
9.73
12.33
15.1
18.1
21.26
24.31
26.97
29.02
30.43
31.31
31.84
32.11
32.13
31.81
31.08
29.96
28.62
27.24
26.01
24.96
24.03
23.07
22.0
20.82
19.61
18.47
17.44
16.43
15.27
13.77
11.87
9.61
7.13
4.61
2.22
0.1
-1.62
-2.83
-3.5
-3.69
-3.6
-3.54
-3.76
-4.43
-5.55
-7.01
-8.61
-10.17
-11.63
-13.0
-14.39
-15.92
-17.61
-19.39
-21.1
-22.61
-23.95
-25.27
-26.8
-28.66
-30.86
-33.27
-35.7
-37.99
-39.94
-41.22
-41.37
-39.94
-36.69
-31.82
-25.97
-20.07
-14.93
-11.01
-8.3
-6.5
-5.19
-4.08
-3.01
-1.95
-0.94
0.05
1.09
2.31
3.85
5.76
7.91
10.0
11.61
12.45
12.42
11.77
10.95
10.31
9.96
9.68
9.03
7.7
5.71
3.45
1.52
0.39
0.17
0.63
1.36
2.02
2.51
2.93
3.38
3.84
4.11
3.98
3.34
2.32
1.19
0.16
-0.74
-1.73
-3.05
-4.82
-6.87
-8.79
-10.12
-10.56
-10.12
-9.02
-7.63
-6.24
-5.02
-4.03
-3.28
-2.83
-2.82
-3.38
-4.53
-6.12
-7.88
-9.51
-10.86
-12.01
-13.22
-14.83
-17.05
-19.87
-23.02
-26.05
-28.44
-29.72
-29.53
-27.71
-24.36
-19.86
-14.82
-9.97
-5.92
-3.01
-1.21
-0.12
0.84
2.18
4.16
6.7
9.41
11.83
13.62
14.7
15.24
15.59
16.04
16.73
17.67
18.76
19.89
21.04
22.18
23.26
24.17
24.76
24.92
24.67
24.12
23.45
22.82
22.31
21.86
21.39
20.78
19.97
18.9
17.56
15.92
13.95
11.7
9.23
6.64
4.04
1.54
-0.77
-2.81
-4.49
-5.76
-6.63
-7.17
-7.56
-8.01
-8.72
-9.86
-11.5
-13.62
-16.04
-18.49
-20.63
-22.15
-22.85
-22.65
-21.66
-20.07
-18.11
-16.0
-13.86
-11.74
-9.6
-7.4
-5.12
-2.84
-0.75
0.98
2.22
3.04
3.61
4.07
4.35
4.07
2.73
-0.07
-4.22
-9.03
-13.35
-16.03
-16.34
-14.3
-10.65
-6.54
-3.1
-1.12
-0.86
-2.13
-4.42
-7.1
-9.65
-11.69
-13.05
-13.75
-13.87
-13.5
-12.72
-11.56
-10.09
-8.44
-6.74
-5.1
-3.57
-2.06
-0.51
1.09
2.61
3.85
4.58
4.76
4.59
4.51
5.04
6.5
8.83
11.58
14.06
15.71
16.34
16.22
15.84
15.62
15.58
15.37
14.5
12.67
10.09
7.44
5.53
4.81
5.09
5.6
5.45
4.18
2.02
-0.23
-1.7
-1.96
-1.34
-0.67
-0.85
-2.29
-4.76
-7.59
-10.16
-12.23
-14.05
-16.15
-18.97
-22.61
-26.73
-30.73
-33.93
-35.85
-36.28
-35.39
-33.53
-31.12
-28.45
-25.65
-22.7
-19.57
-16.27
-12.91
-9.68
-6.72
-4.1
-1.83
0.13
1.89
3.57
5.37
7.44
9.83
12.5
15.24
17.86
20.19
22.2
23.91
25.34
26.47
27.26
27.71
27.87
27.81
27.56
27.11
26.42
25.47
24.38
23.31
22.43
21.81
21.42
21.14
20.87
20.56
20.21
19.82
19.32
18.67
17.85
16.98
16.27
15.84
15.7
15.58
15.15
14.15
12.55
10.62
8.78
7.35
6.35
5.53
4.38
2.36
-0.92
-5.63
-11.67
-18.68
-26.16
-33.51
-40.19
-45.81
-50.16
-53.12
-54.68
-54.81
-53.53
-50.92
-47.17
-42.44
-36.88
-30.52
-23.44
-15.89
-8.36
-1.53
3.99
7.96
10.58
12.41
14.04
15.81
17.63
19.17
20.06
20.18
19.68
18.97
18.44
18.36
18.81
19.71
20.93
22.32
23.75
25.01
25.9
26.21
25.85
24.88
23.44
21.74
19.81
17.53
14.66
10.96
6.44
1.4
-3.62
-7.96
-11.09
-12.68
-12.78
-11.71
-10.01
-8.28
-6.96
-6.2
-5.82
-5.43
-4.69
-3.45
-1.89
-0.36
0.77
1.3
1.31
0.98
0.45
-0.33
-1.53
-3.26
-5.45
-7.75
-9.67
-10.84
-11.08
-10.56
-9.67
-8.86
-8.51
-8.86
-9.95
-11.66
-13.75
-15.83
-17.54
-18.52
-18.58
-17.7
-16.02
-13.8
-11.28
-8.66
-6.1
-3.68
-1.39
0.83
3.12
5.59
8.26
10.99
13.59
15.86
17.74
19.37
20.98
22.73
24.66
26.55
28.09
28.98
29.09
28.49
27.35
25.91
24.3
22.61
20.88
19.14
17.43
15.78
14.18
12.6
11.01
9.37
7.65
5.83
3.87
1.76
-0.38
-2.31
-3.73
-4.45
-4.53
-4.3
-4.23
-4.67
-5.71
-7.1
-8.45
-9.44
-9.94
-10.06
-9.97
-9.84
-9.73
-9.67
-9.71
-9.89
-10.22
-10.64
-11.06
-11.41
-11.75
-12.18
-12.82
-13.67
-14.57
-15.35
-15.93
-16.36
-16.9
-17.81
-19.3
-21.4
-23.94
-26.54
-28.71
-29.88
-29.56
-27.48
-23.69
-18.61
-12.91
-7.34
-2.55
1.12
3.64
5.31
6.6
8.01
9.9
12.45
15.61
19.16
22.81
26.24
29.15
31.29
32.53
32.83
32.3
31.12
29.49
27.54
25.28
22.7
19.82
16.75
13.73
10.98
8.69
6.93
5.65
4.74
4.06
3.46
2.85
2.19
1.52
1.02
0.89
1.33
2.37
3.85
5.46
6.8
7.57
7.65
7.18
6.45
5.78
5.41
5.4
5.68
6.04
6.28
6.21
5.74
4.86
3.68
2.35
1.03
-0.23
-1.47
-2.82
-4.45
-6.46
-8.87
-11.64
-14.74
-18.18
-21.99
-26.12
-30.4
-34.54
-38.22
-41.17
-43.18
-44.14
-43.95
-42.5
-39.82
-36.09
-31.75
-27.41
-23.65
-20.81
-18.83
-17.37
-15.88
-13.92
-11.3
-8.1
-4.63
-1.32
1.48
3.51
4.72
5.28
5.53
5.94
6.94
8.79
11.44
14.54
17.57
19.98
21.49
22.05
21.94
21.55
21.24
21.21
21.44
21.78
22.08
22.21
22.09
21.69
20.95
19.79
18.22
16.33
14.32
12.45
10.96
9.87
9.02
8.05
6.61
4.55
1.93
-0.88
-3.47
-5.49
-6.84
-7.63
-8.04
-8.2
-8.07
-7.5
-6.43
-4.97
-3.43
-2.22
-1.71
-2.03
-3.06
-4.55
-6.15
-7.63
-8.88
-9.99
-11.09
-12.35
-13.91
-15.77
-17.79
-19.68
-21.06
-21.51
-20.8
-18.89
-15.98
-12.46
-8.75
-5.16
-1.9
1.0
3.53
5.71
7.54
9.09
10.45
11.76
13.08
14.33
15.32
15.87
15.87
15.38
14.52
13.43
12.17
10.74
9.2
7.69
6.37
5.31
4.41
3.3
1.59
-0.94
-4.16
-7.54
-10.4
-12.17
-12.66
-12.16
-11.25
-10.49
-10.11
-9.98
-9.69
-8.83
-7.33
-5.46
-3.72
-2.54
-2.04
-1.99
-1.98
-1.71
-1.19
-0.74
-0.84
-1.8
-3.62
-5.88
-8.02
-9.52
-10.17
-10.13
-9.84
-9.69
-9.94
-10.55
-11.25
-11.74
-11.84
-11.56
-11.06
-10.59
-10.31
-10.33
-10.7
-11.43
-12.52
-13.92
-15.48
-16.92
-17.85
-17.86
-16.66
-14.15
-10.56
-6.34
-2.08
1.68
4.7
6.97
8.75
10.33
11.87
13.31
14.49
15.24
15.58
15.66
15.76
16.09
16.68
17.4
18.08
18.59
18.97
19.29
19.62
19.89
19.96
19.67
18.98
18.0
16.89
15.76
14.62
13.41
12.14
10.95
10.07
9.67
9.72
9.96
10.07
9.83
9.29
8.68
8.31
8.3
8.59
8.92
9.04
8.82
8.28
7.56
6.85
6.21
5.66
5.13
4.53
3.83
3.01
2.14
1.26
0.37
-0.62
-1.84
-3.39
-5.26
-7.32
-9.35
-11.12
-12.49
-13.44
-14.04
-14.39
-14.57
-14.65
-14.74
-15.0
-15.68
-16.99
-19.05
-21.69
-24.51
-26.92
-28.32
-28.31
-26.83
-24.1
-20.61
-16.86
-13.25
-10.03
-7.3
-4.99
-2.91
-0.86
1.31
3.6
5.83
7.71
8.98
9.57
9.6
9.29
8.86
8.39
7.87
7.33
6.9
6.8
7.22
8.17
9.44
10.66
11.45
11.54
10.84
9.42
7.49
5.44
3.76
2.99
3.5
5.24
7.7
10.07
11.57
11.78
10.79
9.13
7.36
5.87
4.75
3.86
3.09
2.47
2.12
2.18
2.64
3.27
3.78
3.9
3.58
2.94
2.28
1.9
1.95
2.33
2.71
2.7
2.02
0.71
-0.94
-2.5
-3.73
-4.69
-5.79
-7.52
-10.13
-13.5
-17.11
-20.3
-22.53
-23.58
-23.56
-22.79
-21.65
-20.43
-19.31
-18.33
-17.42
-16.4
-15.02
-13.09
-10.58
-7.72
-4.95
-2.82
-1.73
-1.79
-2.75
-4.09
-5.27
-5.93
-6.0
-5.68
-5.28
-5.01
-4.81
-4.38
-3.34
-1.47
1.1
3.94
6.42
8.03
8.56
8.2
7.41
6.69
6.37
6.52
6.95
7.39
7.62
7.57
7.27
6.83
6.34
5.81
5.3
4.89
4.77
5.15
6.15
7.65
9.28
10.52
10.93
10.37
9.08
7.57
6.4
5.88
5.91
6.02
5.58
4.09
1.5
-1.8
-5.12
-7.87
-9.82
-11.23
-12.72
-14.87
-17.92
-21.55
-24.95
-27.15
-27.35
-25.25
-21.08
-15.52
-9.41
-3.49
1.74
6.08
9.47
11.98
13.65
14.57
14.93
14.97
15.02
15.3
15.86
16.51
16.92
16.74
15.82
14.23
12.27
10.31
8.63
7.33
6.35
5.48
4.51
3.26
1.69
-0.13
-2.01
-3.71
-4.92
-5.39
-5.0
-3.83
-2.15
-0.42
0.93
1.66
1.85
1.85
2.22
3.4
5.56
8.51
11.74
14.71
17.04
18.6
19.51
19.98
20.14
20.03
19.58
18.74
17.52
16.0
14.31
12.56
10.84
9.19
7.67
6.28
4.99
3.68
2.16
0.2
-2.39
-5.67
-9.54
-13.61
-17.3
-19.91
-20.83
-19.78
-16.94
-12.95
-8.68
-5.03
-2.58
-1.47
-1.43
-1.95
-2.55
-2.94
-3.11
-3.24
-3.59
-4.33
-5.43
-6.71
-7.86
-8.58
-8.62
-7.91
-6.55
-4.76
-2.88
-1.24
-0.13
0.32
0.13
-0.51
-1.34
-2.08
-2.54
-2.68
-2.62
-2.62
-2.97
-3.89
-5.37
-7.16
-8.9
-10.17
-10.78
-10.75
-10.42
-10.18
-10.45
-11.45
-13.2
-15.53
-18.11
-20.44
-21.88
-21.71
-19.35
-14.59
-7.66
0.76
9.81
18.71
26.96
34.26
40.28
44.52
46.34
45.18
41.01
34.51
26.99
20.03
14.93
12.35
12.23
13.93
16.59
19.44
21.98
24.08
25.87
27.58
29.38
31.22
32.84
33.85
33.93
33.05
31.45
29.55
27.72
26.15
24.75
23.32
21.67
19.81
17.9
16.18
14.72
13.39
11.85
9.72
6.77
3.04
-1.1
-5.11
-8.48
-10.97
-12.66
-13.9
-15.05
-16.3
-17.6
-18.7
-19.38
-19.6
-19.55
-19.54
-19.79
-20.34
-21.0
-21.49
-21.63
-21.42
-21.03
-20.69
-20.61
-20.86
-21.43
-22.25
-23.26
-24.39
-25.57
-26.72
-27.86
-29.09
-30.65
-32.79
-35.58
-38.81
-41.9
-44.1
-44.68
-43.22
-39.75
-34.7
-28.75
-22.64
-16.99
-12.21
-8.46
-5.66
-3.59
-1.96
-0.55
0.73
1.79
2.53
2.93
3.13
3.4
4.0
5.04
6.41
7.84
9.03
9.83
10.27
10.5
10.68
10.84
10.91
10.76
10.33
9.65
8.86
8.13
7.57
7.26
7.19
7.33
7.61
7.97
8.29
8.48
8.46
8.2
7.69
6.88
5.7
4.07
1.99
-0.4
-2.81
-4.88
-6.43
-7.52
-8.49
-9.81
-11.81
-14.51
-17.59
-20.5
-22.73
-23.98
-24.36
-24.27
-24.29
-24.89
-26.31
-28.41
-30.73
-32.62
-33.43
-32.75
-30.47
-26.8
-22.15
-17.08
-12.11
-7.66
-3.95
-1.05
1.16
2.88
4.32
5.59
6.7
7.58
8.15
8.43
8.53
8.68
9.14
10.1
11.58
13.45
15.41
17.1
18.28
18.92
19.17
19.27
19.43
19.68
19.91
19.88
19.44
18.46
16.97
15.04
12.8
10.39
7.99
5.75
3.74
1.88
-0.03
-2.17
-4.59
-7.15
-9.49
-11.2
-11.99
-11.79
-10.75
-9.22
-7.58
-6.21
-5.35
-5.11
-5.46
-6.28
-7.36
-8.49
-9.45
-10.13
-10.57
-11.0
-11.77
-13.16
-15.23
-17.67
-19.86
-21.03
-20.52
-17.95
-13.28
-6.79
1.11
9.9
18.99
27.8
35.7
42.13
46.68
49.15
49.67
48.59
46.46
43.8
40.99
38.1
34.97
31.33
27.06
22.32
17.57
13.38
10.21
8.27
7.47
7.51
8.08
8.87
9.62
10.08
10.05
9.39
8.12
6.38
4.47
2.7
1.3
0.39
-0.05
-0.15
-0.1
-0.13
-0.48
-1.35
-2.76
-4.55
-6.4
-7.91
-8.84
-9.19
-9.23
-9.35
-9.8
-10.54
-11.26
-11.49
-10.81
-8.93
-5.79
-1.48
3.73
9.4
14.91
19.61
22.99
24.83
25.24
24.56
23.14
21.18
18.62
15.32
11.14
6.08
0.35
-5.62
-11.3
-16.07
-19.31
-20.62
-19.93
-17.65
-14.55
-11.56
-9.43
-8.51
-8.7
-9.56
-10.58
-11.42
-11.97
-12.29
-12.48
-12.54
-12.33
-11.66
-10.44
-8.73
-6.76
-4.83
-3.14
-1.75
-0.59
0.47
1.54
2.67
3.9
5.25
6.79
8.56
10.61
12.94
15.53
18.32
21.16
23.81
25.95
27.24
27.42
26.41
24.35
21.52
18.22
14.7
11.13
7.59
4.1
0.71
-2.57
-5.69
-8.66
-11.49
-14.28
-17.12
-20.13
-23.37
-26.77
-30.15
-33.27
-35.92
-37.96
-39.43
-40.49
-41.41
-42.53
-44.18
-46.62
-49.92
-53.93
-58.21
-62.08
-64.75
-65.47
-63.66
-59.09
-51.91
-42.68
-32.21
-21.4
-10.98
-1.39
7.18
14.73
21.24
26.62
30.69
33.31
34.5
34.51
33.76
32.67
31.61
30.75
30.1
29.57
29.02
28.33
27.39
26.11
24.38
22.18
19.56
16.69
13.79
11.09
8.71
6.67
4.94
3.46
2.23
1.21
0.32
-0.53
-1.42
-2.33
-3.13
-3.64
-3.8
-3.75
-3.75
-4.07
-4.82
-5.93
-7.23
-8.59
-9.99
-11.49
-13.06
-14.59
-15.85
-16.66
-16.97
-16.94
-16.87
-17.04
-17.7
-18.94
-20.73
-22.82
-24.87
-26.43
-27.17
-27.05
-26.32
-25.57
-25.39
-26.17
-27.84
-29.89
-31.43
-31.52
-29.45
-25.09
-18.88
-11.84
-5.19
0.05
3.33
4.71
4.74
4.18
3.65
3.46
3.61
3.89
4.13
4.31
4.61
5.29
6.53
8.37
10.65
13.12
15.5
17.65
19.5
21.07
22.33
23.2
23.62
23.56
23.05
22.22
21.16
20.0
18.87
17.89
17.19
16.8
16.61
16.4
15.9
14.93
13.44
11.55
9.48
7.42
5.49
3.7
2.0
0.29
-1.48
-3.29
-5.06
-6.65
-7.86
-8.62
-8.97
-9.06
-9.17
-9.53
-10.38
-11.86
-14.09
-17.0
-20.43
-23.96
-27.11
-29.41
-30.62
-30.84
-30.44
-30.01
-30.08
-30.88
-32.23
-33.53
-33.95
-32.67
-29.22
-23.65
-16.56
-8.92
-1.69
4.42
9.21
12.91
15.99
18.87
21.71
24.37
26.49
27.7
27.85
27.08
25.78
24.49
23.68
23.62
24.4
25.86
27.78
29.88
31.92
33.67
34.95
35.64
35.7
35.18
34.24
33.09
31.94
30.97
30.24
29.72
29.33
28.95
28.49
27.91
27.24
26.48
25.61
24.6
23.44
22.16
20.89
19.8
18.99
18.47
18.08
17.6
16.82
15.67
14.23
12.71
11.29
10.06
8.97
7.92
6.75
5.39
3.83
2.18
0.6
-0.73
-1.69
-2.25
-2.55
-2.83
-3.44
-4.61
-6.46
-8.86
-11.46
-13.81
-15.42
-15.91
-15.1
-13.02
-9.92
-6.22
-2.42
1.01
3.77
5.69
6.81
7.31
7.42
7.38
7.36
7.45
7.62
7.84
8.05
8.19
8.28
8.32
8.32
8.32
8.36
8.52
8.87
9.44
10.2
10.98
11.59
11.84
11.63
11.01
10.18
9.39
8.89
8.82
9.21
9.91
10.75
11.51
12.01
12.16
11.93
11.31
10.34
9.05
7.52
5.89
4.31
2.89
1.66
0.55
-0.57
-1.8
-3.19
-4.69
-6.1
-7.22
-7.9
-8.14
-8.11
-8.1
-8.41
-9.21
-10.52
-12.17
-13.96
-15.66
-17.11
-18.24
-19.04
-19.62
-20.18
-20.94
-22.08
-23.6
-25.25
-26.56
-27.03
-26.31
-24.32
-21.29
-17.64
-13.86
-10.37
-7.49
-5.33
-3.86
-2.86
-2.07
-1.2
-0.13
1.09
2.26
3.2
3.81
4.18
4.5
4.94
5.54
6.2
6.76
7.09
7.21
7.26
7.36
7.54
7.69
7.67
7.37
6.82
6.19
5.69
5.45
5.41
5.43
5.33
5.0
4.49
3.95
3.56
3.38
3.38
3.38
3.16
2.57
1.6
0.38
-0.82
-1.77
-2.34
-2.6
-2.79
-3.26
-4.31
-6.08
-8.44
-11.04
-13.47
-15.45
-16.95
-18.21
-19.56
-21.25
-23.31
-25.56
-27.78
-29.78
-31.6
-33.37
-35.29
-37.48
-39.98
-42.78
-45.83
-48.98
-51.92
-54.16
-55.1
-54.22
-51.29
-46.5
-40.4
-33.8
-27.48
-22.0
-17.53
-13.89
-10.61
-7.21
-3.38
0.87
5.21
9.17
12.37
14.67
16.25
17.47
18.72
20.26
22.11
24.18
26.24
28.1
29.6
30.65
31.19
31.15
30.49
29.21
27.43
25.45
23.66
22.44
21.93
22.04
22.41
22.66
22.52
21.98
21.22
20.5
19.99
19.71
19.53
19.28
18.77
17.88
16.55
14.82
12.85
10.9
9.21
7.94
7.08
6.46
5.86
5.06
3.97
2.55
0.78
-1.4
-4.05
-7.14
-10.54
-13.98
-17.14
-19.77
-21.8
-23.39
-24.83
-26.46
-28.5
-30.96
-33.63
-36.12
-38.01
-38.97
-38.79
-37.41
-34.86
-31.3
-26.97
-22.21
-17.37
-12.75
-8.54
-4.79
-1.41
1.7
4.61
7.35
9.91
12.27
14.45
16.46
18.32
20.07
21.67
23.12
24.4
25.5
26.4
27.1
27.55
27.75
27.7
27.44
26.98
26.28
25.23
23.74
21.77
19.45
17.01
14.67
12.5
10.4
8.16
5.63
2.8
-0.21
-3.19
-6.02
-8.69
-11.21
-13.58
-15.68
-17.34
-18.37
-18.68
-18.28
-17.34
-16.06
-14.69
-13.45
-12.46
-11.7
-11.02
-10.23
-9.19
-7.91
-6.56
-5.32
-4.33
-3.62
-3.15
-2.88
-2.83
-3.1
-3.84
-5.15
-7.1
-9.62
-12.53
-15.55
-18.28
-20.35
-21.53
-21.8
-21.34
-20.46
-19.48
-18.62
-18.09
-18.03
-18.5
-19.44
-20.61
-21.59
-21.96
-21.49
-20.24
-18.5
-16.64
-14.83
-13.02
-11.03
-8.66
-5.9
-2.9
0.15
3.1
6.01
9.02
12.26
15.69
19.04
21.94
24.04
25.28
25.92
26.52
27.66
29.74
32.78
36.43
40.15
43.41
45.86
47.42
48.17
48.29
47.91
47.09
45.84
44.17
42.1
39.73
37.1
34.18
30.86
27.0
22.57
17.8
13.09
8.84
5.18
1.78
-2.08
-7.13
-13.74
-21.64
-29.95
-37.64
-43.96
-48.85
-52.85
-56.86
-61.58
-67.31
-73.79
-80.39
-86.33
-90.81
-93.1
-92.57
-88.85
-81.98
-72.54
-61.6
-50.4
-39.93
-30.73
-22.75
-15.63
-9.02
-2.77
3.01
8.12
12.45
16.09
19.27
22.25
25.24
28.31
31.45
34.57
37.58
40.38
42.89
45.05
46.83
48.2
49.08
49.42
49.19
48.48
47.46
46.33
45.25
44.2
43.11
41.81
40.26
38.49
36.61
34.71
32.87
31.1
29.36
27.67
26.02
24.42
22.83
21.22
19.57
17.85
16.03
14.05
11.82
9.27
6.46
3.52
0.63
-2.06
-4.52
-6.92
-9.48
-12.41
-15.83
-19.65
-23.69
-27.68
-31.41
-34.79
-37.89
-40.92
-44.24
-48.23
-53.16
-58.93
-64.97
-70.24
-73.41
-73.32
-69.38
-61.83
-51.7
-40.46
-29.57
-20.09
-12.45
-6.52
-1.82
2.16
5.79
9.19
12.21
14.63
16.29
17.32
18.14
19.28
21.2
23.97
27.28
30.56
33.24
35.05
35.99
36.3
36.22
35.9
35.35
34.55
33.51
32.32
31.1
29.99
29.0
28.09
27.11
25.89
24.34
22.45
20.34
18.18
16.1
14.11
12.12
10.03
7.83
5.62
3.62
1.98
0.71
-0.33
-1.42
-2.8
-4.59
-6.76
-9.12
-11.44
-13.53
-15.31
-16.91
-18.6
-20.7
-23.42
-26.74
-30.4
-33.99
-37.13
-39.68
-41.82
-44.0
-46.79
-50.69
-55.87
-62.0
-68.25
-73.32
-75.77
-74.4
-68.63
-58.84
-46.23
-32.57
-19.58
-8.49
0.27
6.99
12.42
17.3
22.01
26.51
30.45
33.46
35.45
36.7
37.77
39.19
41.23
43.74
46.33
48.61
50.41
51.83
53.06
54.16
54.92
54.93
53.82
51.55
48.47
45.23
42.46
40.52
39.36
38.63
37.88
36.85
35.47
33.88
32.22
30.58
28.93
27.17
25.28
23.27
21.22
19.13
16.93
14.54
11.93
9.24
6.7
4.55
2.84
1.41
-0.06
-1.86
-4.14
-6.75
-9.43
-11.9
-14.06
-16.08
-18.29
-20.98
-24.23
-27.89
-31.58
-34.94
-37.78
-40.13
-42.24
-44.47
-47.21
-50.79
-55.46
-61.23
-67.68
-73.83
-78.26
-79.43
-76.2
-68.39
-56.89
-43.43
-29.99
-18.14
-8.63
-1.39
4.24
9.02
13.52
17.92
22.05
25.63
28.41
30.39
31.76
32.82
33.8
34.77
35.6
36.11
36.23
36.06
35.89
35.96
36.35
36.89
37.21
36.93
35.93
34.34
32.52
30.89
29.68
28.87
28.23
27.5
26.53
25.39
24.25
23.27
22.4
21.45
20.14
18.34
16.11
13.73
11.56
9.86
8.7
7.95
7.33
6.62
5.62
4.28
2.67
0.92
-0.86
-2.58
-4.24
-5.92
-7.76
-9.91
-12.47
-15.42
-18.61
-21.79
-24.7
-27.14
-29.12
-30.89
-32.88
-35.6
-39.37
-44.11
-49.25
-53.74
-56.22
-55.5
-50.93
-42.69
-31.8
-19.82
-8.31
1.62
9.58
15.79
20.77
25.02
28.79
32.12
34.94
37.22
39.01
40.43
41.53
42.36
42.88
43.05
42.86
42.37
41.74
41.17
40.89
40.98
41.31
41.6
41.45
40.53
38.75
36.27
33.46
30.75
28.43
26.56
25.0
23.55
21.99
20.24
18.32
16.31
14.29
12.25
10.12
7.8
5.25
2.57
-0.07
-2.45
-4.48
-6.2
-7.82
-9.59
-11.74
-14.31
-17.18
-20.06
-22.62
-24.62
-26.03
-27.07
-28.04
-29.24
-30.82
-32.74
-34.83
-36.95
-39.09
-41.34
-43.86
-46.83
-50.34
-54.46
-59.12
-64.12
-68.92
-72.69
-74.39
-73.05
-68.19
-60.02
-49.47
-37.95
-26.85
-17.16
-9.3
-3.08
1.94
6.22
9.99
13.25
15.9
17.93
19.5
20.95
22.61
24.64
26.95
29.25
31.24
32.78
33.9
34.79
35.62
36.37
36.85
36.76
35.85
34.05
31.57
28.78
26.12
23.88
22.16
20.83
19.66
18.42
17.01
15.45
13.81
12.14
10.47
8.8
7.13
5.53
4.05
2.73
1.51
0.29
-1.07
-2.65
-4.46
-6.37
-8.18
-9.66
-10.65
-11.21
-11.56
-12.08
-13.12
-14.84
-17.14
-19.73
-22.27
-24.58
-26.72
-28.92
-31.44
-34.49
-38.08
-42.09
-46.21
-49.99
-52.76
-53.75
-52.23
-47.76
-40.45
-31.03
-20.66
-10.65
-2.02
4.74
9.75
13.51
16.6
19.39
21.94
24.08
25.59
26.39
26.66
26.7
26.82
27.16
27.66
28.13
28.44
28.58
28.75
29.19
30.0
31.08
32.11
32.67
32.51
31.6
30.18
28.61
27.17
25.94
24.82
23.58
22.1
20.43
18.78
17.34
16.2
15.21
14.1
12.62
10.67
8.38
5.99
3.78
1.89
0.24
-1.35
-3.16
-5.37
-8.02
-11.01
-14.13
-17.19
-20.12
-23.02
-26.06
-29.37
-32.92
-36.47
-39.65
-42.15
-43.9
-45.12
-46.25
-47.79
-50.07
-53.23
-57.12
-61.39
-65.48
-68.64
-70.04
-68.89
-64.7
-57.56
-48.16
-37.67
-27.41
-18.46
-11.35
-6.05
-2.04
1.34
4.61
8.01
11.42
14.51
16.95
18.6
19.61
20.36
21.29
22.7
24.57
26.6
28.39
29.62
30.2
30.26
30.02
29.64
29.12
28.36
27.22
25.65
23.75
21.75
19.9
18.38
17.23
16.33
15.48
14.49
13.28
11.9
10.44
8.97
7.5
5.96
4.32
2.62
1.0
-0.4
-1.52
-2.47
-3.43
-4.56
-5.96
-7.56
-9.3
-11.11
-13.0
-14.97
-17.02
-19.04
-20.89
-22.47
-23.83
-25.2
-26.9
-29.3
-32.61
-36.82
-41.61
-46.38
-50.33
-52.6
-52.46
-49.47
-43.58
-35.22
-25.25
-14.77
-4.87
3.67
10.58
16.01
20.4
24.15
27.4
30.01
31.75
32.48
32.33
31.75
31.27
31.32
32.02
33.21
34.56
35.73
36.52
36.9
36.93
36.67
36.09
35.09
33.6
31.69
29.55
27.5
25.81
24.55
23.58
22.63
21.37
19.64
17.41
14.77
11.87
8.86
5.83
2.82
-0.16
-3.19
-6.42
-10.03
-14.06
-18.35
-22.53
-26.11
-28.71
-30.23
-30.89
-31.15
-31.53
-32.44
-33.98
-36.03
-38.31
-40.54
-42.56
-44.42
-46.36
-48.71
-51.74
-55.5
-59.68
-63.6
-66.31
-66.79
-64.33
-58.69
-50.34
-40.3
-29.85
-20.16
-11.95
-5.34
-0.01
4.58
8.89
13.09
17.05
20.49
23.17
25.08
26.45
27.65
29.02
30.66
32.45
34.06
35.21
35.79
35.89
35.74
35.53
35.25
34.74
33.78
32.22
30.07
27.53
24.88
22.38
20.22
18.51
17.29
16.53
16.11
15.86
15.56
15.02
14.19
13.19
12.22
11.5
11.08
10.86
10.57
9.93
8.76
7.1
5.13
3.07
1.13
-0.65
-2.3
-3.92
-5.59
-7.37
-9.25
-11.22
-13.18
-15.06
-16.82
-18.53
-20.4
-22.73
-25.84
-29.84
-34.54
-39.38
-43.49
-45.89
-45.73
-42.52
-36.33
-27.81
-18.06
-8.31
0.41
7.55
13.17
17.71
21.73
25.57
29.21
32.27
34.33
35.1
34.7
33.61
32.48
31.9
32.14
33.07
34.28
35.29
35.8
35.77
35.36
34.78
34.05
33.02
31.41
29.0
25.84
22.24
18.63
15.42
12.71
10.34
7.91
5.08
1.74
-1.94
-5.53
-8.63
-11.01
-12.73
-14.05
-15.28
-16.59
-18.0
-19.41
-20.7
-21.81
-22.76
-23.64
-24.58
-25.75
-27.34
-29.52
-32.4
-35.91
-39.8
-43.71
-47.26
-50.28
-52.85
-55.34
-58.29
-62.2
-67.3
-73.35
-79.57
-84.76
-87.57
-86.93
-82.37
-74.19
-63.33
-51.1
-38.76
-27.23
-16.96
-7.98
-0.1
6.89
13.08
18.38
22.67
25.87
28.15
29.9
31.61
33.72
36.37
39.39
42.35
44.83
46.59
47.65
48.25
48.63
48.87
48.8
48.16
46.76
44.63
42.08
39.54
37.4
35.81
34.66
33.67
32.58
31.25
29.71
28.04
26.36
24.77
23.36
22.25
21.57
21.33
21.38
21.43
21.16
20.33
18.88
16.93
14.68
12.3
9.87
7.41
4.88
2.24
-0.56
-3.58
-6.88
-10.46
-14.23
-17.99
-21.52
-24.74
-27.68
-30.59
-33.81
-37.6
-42.05
-46.88
-51.46
-54.85
-56.03
-54.23
-49.19
-41.33
-31.74
-21.81
-12.79
-5.39
0.37
5.01
9.22
13.43
17.57
21.2
23.75
24.9
24.7
23.57
22.02
20.47
19.13
18.01
17.09
16.34
15.76
15.27
14.72
13.91
12.7
11.09
9.25
7.42
5.84
4.68
3.99
3.75
3.89
4.31
4.87
5.34
5.5
5.13
4.12
2.53
0.61
-1.25
-2.67
-3.4
-3.45
-3.06
-2.61
-2.45
-2.83
-3.78
-5.21
-6.91
-8.68
-10.33
-11.77
-12.97
-14.01
-15.08
-16.41
-18.22
-20.6
-23.45
-26.56
-29.63
-32.38
-34.72
-36.72
-38.7
-41.09
-44.34
-48.7
-54.05
-59.71
-64.52
-67.07
-66.11
-61.05
-52.13
-40.39
-27.3
-14.28
-2.27
8.39
17.82
26.36
34.25
41.52
47.95
53.26
57.25
59.93
61.54
62.45
63.03
63.54
64.11
64.7
65.23
65.59
65.67
65.4
64.66
63.36
61.45
58.95
55.96
52.63
49.11
45.54
42.01
38.54
35.14
31.83
28.62
25.59
22.83
20.42
18.41
16.8
15.52
14.49
13.6
12.73
11.73
10.45
8.74
6.5
3.71
0.45
-3.1
-6.71
-10.19
-13.47
-16.62
-19.84
-23.34
-27.21
-31.37
-35.6
-39.7
-43.56
-47.26
-51.04
-55.15
-59.77
-64.94
-70.59
-76.54
-82.54
-88.12
-92.53
-94.77
-93.82
-89.01
-80.34
-68.69
-55.6
-42.8
-31.67
-22.81
-15.98
-10.39
-5.18
0.11
5.43
10.3
14.25
17.1
19.13
20.89
22.9
25.38
28.12
30.72
32.84
34.4
35.6
36.72
37.91
39.05
39.77
39.72
38.72
36.87
34.55
32.2
30.18
28.63
27.48
26.54
25.62
24.65
23.65
22.69
21.81
20.96
20.04
18.89
17.45
15.72
13.77
11.74
9.8
8.08
6.63
5.39
4.14
2.6
0.58
-1.93
-4.67
-7.18
-9.0
-9.84
-9.75
-9.07
-8.29
-7.85
-8.02
-8.8
-10.04
-11.51
-13.1
-14.82
-16.88
-19.53
-23.02
-27.46
-32.73
-38.36
-43.56
-47.26
-48.39
-46.2
-40.56
-32.11
-22.13
-12.15
-3.46
3.24
8.02
11.46
14.31
17.18
20.3
23.51
26.44
28.73
30.24
31.05
31.44
31.69
31.91
32.08
32.06
31.75
31.23
30.65
30.15
29.77
29.29
28.36
26.65
23.98
20.4
16.21
11.84
7.68
4.01
0.88
-1.82
-4.31
-6.8
-9.38
-12.05
-14.73
-17.3
-19.67
-21.76
-23.5
-24.8
-25.58
-25.78
-25.46
-24.75
-23.91
-23.23
-22.96
-23.28
-24.18
-25.5
-26.97
-28.27
-29.24
-29.85
-30.23
-30.57
-30.97
-31.46
-31.99
-32.5
-33.03
-33.78
-35.02
-37.07
-40.16
-44.33
-49.35
-54.66
-59.4
-62.49
-62.93
-60.01
-53.66
-44.46
-33.56
-22.35
-12.06
-3.42
3.4
8.68
12.91
16.42
19.32
21.49
22.85
23.48
23.72
24.07
24.92
26.46
28.49
30.7
32.73
34.44
35.9
37.26
38.65
39.98
41.02
41.49
41.24
40.39
39.24
38.19
37.5
37.22
37.16
37.03
36.58
35.73
34.59
33.39
32.34
31.46
30.57
29.28
27.14
23.8
19.18
13.54
7.37
1.28
-4.28
-9.08
-13.24
-17.08
-20.94
-25.04
-29.34
-33.56
-37.27
-40.12
-41.98
-43.04
-43.76
-44.63
-45.94
-47.53
-48.87
-49.21
-48.04
-45.3
-41.57
-37.88
-35.33
-34.75
-36.38
-39.82
-44.01
-47.44
-48.45
-45.72
-38.64
-27.65
-14.21
-0.32
12.06
21.72
28.39
32.62
35.29
37.1
38.29
38.76
38.36
37.19
35.67
34.38
33.77
33.9
34.46
34.9
34.76
33.88
32.47
30.97
29.73
28.85
28.12
27.19
25.84
24.12
22.38
21.07
20.53
20.83
21.72
22.77
23.55
23.78
23.41
22.57
21.5
20.4
19.39
18.43
17.4
16.18
14.72
13.09
11.44
9.9
8.48
7.1
5.6
3.88
1.9
-0.24
-2.44
-4.55
-6.45
-8.1
-9.49
-10.7
-11.85
-13.11
-14.63
-16.43
-18.41
-20.27
-21.54
-21.72
-20.36
-17.22
-12.37
-6.24
0.47
6.89
12.22
15.93
17.89
18.33
17.79
16.94
16.43
16.84
18.57
21.78
26.32
31.67
37.02
41.49
44.34
45.2
44.17
41.69
38.38
34.82
31.4
28.34
25.66
23.26
20.94
18.51
15.86
13.08
10.34
7.86
5.76
3.98
2.36
0.74
-0.87
-2.33
-3.49
-4.37
-5.25
-6.66
-9.13
-12.98
-18.14
-24.2
-30.55
-36.67
-42.32
-47.53
-52.38
-56.8
-60.32
-62.12
-61.29
-57.21
-49.87
-39.98
-28.74
-17.47
-7.27
1.3
8.13
13.48
17.66
20.92
23.4
25.2
26.51
27.72
29.37
31.87
35.33
39.37
43.27
46.3
48.09
48.67
48.29
46.99
44.37
39.84
33.03
24.36
15.02
6.47
-0.35
-5.59
-10.39
-16.11
-23.43
-31.84
-39.93
-46.21
-50.12
-52.47
-55.29
-61.04
-71.71
-88.05
-109.19
-132.84
-155.68
-174.25
-185.71
-188.45
-182.39
-168.78
-149.75
-127.71
-104.89
-83.09
-63.58
-47.09
-33.77
