2013-02-24 17:37:41
64.0
-0.0
-0.0
-0.0
-0.0
-0.0
-0.0
-0.0
-0.0
-0.0
-0.0
0.0
0.01
0.01
-0.0
-0.03
-0.05
-0.05
0.0
0.13
0.36
0.66
1.01
1.37
1.72
2.06
2.4
2.79
3.24
3.8
4.42
5.06
5.66
6.2
6.68
7.15
7.68
8.31
9.14
10.09
11.04
11.88
12.56
13.14
13.76
14.65
15.96
17.91
20.32
22.9
25.38
27.58
29.57
31.68
34.32
37.81
42.54
48.15
54.1
59.83
64.97
69.58
74.14
79.34
85.71
93.76
103.0
112.62
121.73
129.77
136.75
143.3
150.75
157.77
166.64
177.95
191.79
206.97
220.57
228.25
225.36
208.53
176.87
132.76
80.05
23.07
-34.94
-92.44
-149.16
-205.23
-260.37
-313.74
-363.87
-409.83
-450.91
-486.5
-515.74
-537.23
-549.22
-549.96
-538.37
-514.21
-478.67
-433.88
-382.45
-327.02
-269.84
-212.63
-156.66
-102.95
-52.37
-5.9
35.58
71.42
101.35
125.5
144.39
158.72
169.19
176.41
180.75
182.5
181.89
179.22
174.86
169.23
162.75
155.74
148.43
140.92
133.26
125.49
117.7
109.97
102.41
95.09
88.02
81.19
74.55
68.1
61.84
55.87
50.28
45.14
40.47
36.17
32.1
28.1
24.11
20.16
16.44
13.16
10.49
8.43
6.79
5.26
3.5
1.34
-1.11
-3.52
-5.48
-6.66
-7.04
-6.95
-6.95
-7.58
-9.12
-11.4
-13.87
-15.89
-16.97
-17.04
-16.45
-15.82
-15.73
-16.63
-18.77
-22.2
-26.54
-30.77
-33.13
-31.53
-24.45
-11.82
4.52
21.31
35.06
43.46
46.11
44.39
40.41
35.95
31.81
27.95
24.11
20.37
17.27
15.45
15.18
16.05
17.17
17.5
16.37
13.85
10.61
7.65
5.81
5.36
5.92
6.71
6.87
5.92
3.93
1.43
-0.82
-2.23
-2.57
-2.0
-0.95
0.08
0.76
0.94
0.68
0.23
-0.03
0.33
1.73
4.45
8.53
13.64
19.13
24.16
27.93
29.94
30.03
28.48
25.75
22.31
18.49
14.53
10.35
6.0
1.67
-2.38
-5.88
-8.7
-10.91
-12.69
-14.23
-15.62
-16.76
-17.5
-17.74
-17.48
-16.9
-16.23
-15.68
-15.36
-15.25
-15.21
-15.09
-14.78
-14.24
-13.5
-12.63
-11.74
-10.98
-10.47
-10.31
-10.55
-11.1
-11.74
-12.12
-11.79
-10.29
-7.37
-3.11
2.04
7.24
11.58
14.32
15.15
14.3
12.36
9.98
7.66
5.6
3.74
2.01
0.47
-0.69
-1.24
-1.11
-0.46
0.3
0.82
0.9
0.63
0.27
0.14
0.29
0.56
0.53
-0.24
-1.97
-4.52
-7.49
-10.34
-12.66
-14.34
-15.5
-16.54
-17.89
-19.9
-22.74
-26.33
-30.27
-33.87
-36.27
-36.6
-34.22
-28.97
-21.24
-11.95
-2.33
6.45
13.55
18.6
21.7
23.18
23.37
22.49
20.65
18.02
14.9
11.8
9.26
7.69
7.12
7.24
7.51
7.34
6.34
4.45
1.89
-0.94
-3.67
-6.08
-8.2
-10.23
-12.43
-15.03
-18.16
-21.86
-26.13
-30.83
-35.52
-39.49
-41.77
-41.43
-37.93
-31.39
-22.59
-12.73
-3.08
5.43
12.31
17.54
21.36
24.0
25.57
26.06
25.49
24.04
22.07
20.13
18.69
17.96
17.82
17.85
17.58
16.63
14.84
12.24
9.01
5.34
1.42
-2.64
-6.81
-11.18
-15.94
-21.23
-27.02
-32.94
-38.27
-42.01
-43.11
-40.86
-35.06
-26.16
-15.13
-3.22
8.4
18.81
27.45
34.1
38.72
41.4
42.26
41.49
39.37
36.28
32.65
28.88
25.29
22.06
19.22
16.71
14.45
12.41
10.69
9.42
8.68
8.36
8.14
7.54
6.06
3.31
-0.87
-6.47
-13.35
-21.27
-29.8
-38.23
-45.46
-50.23
-51.39
-48.45
-41.72
-32.34
-21.85
-11.65
-2.67
4.81
10.92
15.95
20.01
23.1
25.14
26.19
26.48
26.39
26.22
26.1
25.97
25.68
25.14
24.37
23.58
22.91
22.39
21.75
20.55
18.31
14.79
10.08
4.61
-1.05
-6.4
-11.22
-15.56
-19.69
-24.01
-28.98
-34.96
-42.13
-50.21
-58.36
-65.17
-69.08
-68.8
-63.87
-54.89
-43.3
-30.93
-19.37
-9.54
-1.54
5.07
10.9
16.26
21.01
24.6
26.4
26.07
23.78
20.22
16.28
12.71
9.78
7.35
5.04
2.6
0.0
-2.57
-4.91
-6.78
-7.79
-7.18
-3.84
3.38
15.11
30.9
49.1
67.3
83.11
94.92
102.22
105.35
104.98
101.52
95.02
85.37
72.72
57.7
41.37
24.79
8.64
-6.88
-21.79
-35.84
-48.16
-57.3
-61.75
-60.65
-54.29
-44.12
-32.23
-20.63
-10.58
-2.42
4.27
10.11
15.57
20.66
25.07
28.39
30.36
31.05
30.82
30.2
29.7
29.64
30.04
30.71
31.32
31.56
31.24
30.28
28.7
26.56
23.88
20.68
17.0
12.93
8.63
4.39
0.51
-2.78
-5.42
-7.61
-9.74
-12.32
-15.67
-19.81
-24.39
-28.83
-32.59
-35.46
-37.62
-39.58
-42.01
-45.49
-50.3
-56.24
-62.54
-67.95
-71.03
-70.51
-65.71
-56.86
-44.98
-31.63
-18.35
-6.31
3.92
12.31
19.09
24.54
28.79
31.84
33.68
34.39
34.25
33.69
33.17
33.01
33.26
33.73
34.08
33.93
33.05
31.39
29.02
26.15
22.98
19.71
16.45
13.3
10.32
7.57
5.13
3.04
1.2
-0.56
-2.5
-4.8
-7.47
-10.33
-13.11
-15.66
-17.98
-20.26
-22.7
-25.34
-28.05
-30.57
-32.76
-34.67
-36.63
-39.13
-42.61
-47.21
-52.62
-58.01
-62.13
-63.64
-61.48
-55.27
-45.48
-33.33
-20.43
-8.25
2.26
10.83
17.65
23.14
27.54
30.91
33.17
34.33
34.6
34.44
34.32
34.57
35.2
36.01
36.65
36.89
36.69
36.17
35.54
34.93
34.35
33.68
32.67
31.11
28.83
25.8
22.17
18.25
14.44
11.11
8.41
6.23
4.2
1.88
-1.09
-4.76
-8.97
-13.36
-17.57
-21.39
-24.77
-27.77
-30.54
-33.33
-36.42
-40.09
-44.41
-49.02
-53.07
-55.34
-54.67
-50.38
-42.64
-32.47
-21.33
-10.67
-1.42
6.1
12.11
17.01
21.05
24.24
26.39
27.33
27.14
26.17
24.95
23.92
23.29
22.97
22.65
22.05
21.04
19.7
18.24
16.83
15.5
14.13
12.45
10.22
7.32
3.78
-0.16
-4.18
-7.98
-11.36
-14.34
-17.07
-19.82
-22.81
-26.2
-29.98
-33.98
-37.83
-40.98
-42.71
-42.33
-39.38
-33.8
-26.05
-17.03
-7.79
0.71
7.84
13.32
17.15
19.41
20.2
19.63
17.93
15.51
12.9
10.67
9.15
8.41
8.26
8.38
8.5
8.47
8.24
7.7
6.67
4.94
2.37
-0.94
-4.67
-8.4
-11.75
-14.63
-17.18
-19.76
-22.8
-26.58
-31.1
-35.97
-40.47
-43.61
-44.42
-42.27
-37.01
-29.13
-19.62
-9.67
-0.43
7.29
13.07
16.91
19.1
20.08
20.29
20.08
19.6
18.9
18.0
16.95
15.88
14.99
14.42
14.18
14.11
13.98
13.54
12.63
11.19
9.23
6.77
3.84
0.54
-3.06
-6.78
-10.48
-14.08
-17.63
-21.35
-25.49
-30.23
-35.36
-40.19
-43.64
-44.54
-42.04
-36.02
-27.19
-16.83
-6.41
2.88
10.39
16.02
20.02
22.7
24.32
25.06
25.07
24.51
23.65
22.74
21.97
21.43
21.05
20.68
20.14
19.36
18.41
17.45
16.58
15.83
15.02
13.91
12.24
9.85
6.81
3.32
-0.29
-3.73
-6.81
-9.55
-12.16
-15.01
-18.49
-22.9
-28.26
-34.2
-39.9
-44.27
-46.12
-44.61
-39.59
-31.63
-21.95
-12.0
-3.03
4.23
9.61
13.4
16.07
18.05
19.62
20.91
21.93
22.65
23.03
23.03
22.66
21.94
20.91
19.57
17.94
16.04
13.95
11.79
9.65
7.6
5.58
3.52
1.33
-1.06
-3.64
-6.4
-9.38
-12.64
-16.23
-20.09
-23.96
-27.41
-30.03
-31.58
-32.18
-32.37
-32.94
-34.78
-38.5
-44.19
-51.26
-58.49
-64.24
-66.94
-65.61
-60.14
-51.36
-40.65
-29.46
-18.8
-9.13
-0.37
7.68
15.17
22.03
28.07
33.17
37.28
40.51
42.99
44.83
46.16
47.08
47.68
48.04
48.17
48.04
47.6
46.84
45.72
44.24
42.36
40.06
37.3
34.14
30.72
27.25
23.95
20.95
18.18
15.4
12.3
8.59
4.15
-0.89
-6.22
-11.51
-16.5
-21.15
-25.55
-29.71
-33.43
-36.1
-36.88
-35.03
-30.21
-22.77
-13.61
-3.89
5.38
13.63
20.74
26.77
31.7
35.33
37.28
37.31
35.49
32.31
28.48
24.73
21.54
19.0
16.94
15.01
12.97
10.7
8.36
6.22
4.55
3.46
2.82
2.22
1.13
-0.9
-4.05
-8.17
-12.76
-17.23
-21.06
-23.99
-26.07
-27.59
-28.87
-30.21
-31.78
-33.66
-35.89
-38.39
-40.86
-42.74
-43.23
-41.5
-37.03
-29.94
-20.97
-11.37
-2.43
4.85
10.1
13.46
15.43
16.58
17.29
17.74
17.98
18.03
17.95
17.91
18.04
18.43
19.03
19.69
20.17
20.23
19.72
18.56
16.86
14.79
12.57
10.44
8.48
6.7
4.94
3.0
0.69
-2.04
-5.11
-8.32
-11.43
-14.32
-16.99
-19.55
-22.18
-25.04
-28.22
-31.71
-35.38
-38.87
-41.61
-42.82
-41.75
-37.96
-31.57
-23.26
-14.16
-5.39
2.18
8.14
12.53
15.56
17.5
18.56
18.93
18.81
18.46
18.13
17.97
18.01
18.11
18.1
17.88
17.46
17.0
16.65
16.47
16.41
16.35
16.14
15.73
15.14
14.38
13.44
12.29
10.86
9.17
7.3
5.39
3.53
1.71
-0.12
-2.11
-4.38
-7.05
-10.19
-13.78
-17.59
-21.14
-23.69
-24.4
-22.63
-18.17
-11.46
-3.45
4.63
11.71
17.09
20.64
22.63
23.47
23.58
23.19
22.48
21.62
20.79
20.13
19.68
19.33
18.81
17.92
16.56
14.9
13.22
11.78
10.63
9.51
7.96
5.52
1.98
-2.5
-7.42
-12.09
-15.87
-18.43
-19.85
-20.58
-21.31
-22.74
-25.28
-28.88
-32.92
-36.36
-38.07
-37.26
-33.76
-28.11
-21.32
-14.47
-8.38
-3.38
0.52
3.51
5.69
7.08
7.67
7.52
6.87
6.05
5.39
5.09
5.21
5.7
6.47
7.46
8.56
9.6
10.34
10.49
9.94
8.79
7.4
6.18
5.46
5.23
5.22
5.0
4.13
2.34
-0.42
-4.02
-8.14
-12.26
-15.71
-17.74
-17.74
-15.48
-11.24
-5.79
-0.11
4.87
8.63
11.07
12.48
13.27
13.79
14.2
14.51
14.67
14.64
14.42
14.06
13.55
12.93
12.27
11.71
11.41
11.43
11.68
11.84
11.5
10.29
8.06
4.94
1.26
-2.51
-5.98
-8.93
-11.4
-13.68
-16.24
-19.49
-23.61
-28.27
-32.62
-35.5
-35.84
-33.07
-27.42
-19.87
-11.77
-4.39
1.55
5.98
9.35
12.25
15.13
18.06
20.83
23.11
24.61
25.2
24.92
23.86
22.21
20.14
17.85
15.56
13.45
11.65
10.16
8.89
7.7
6.4
4.87
2.96
0.65
-2.02
-4.88
-7.68
-10.14
-12.06
-13.45
-14.49
-15.48
-16.76
-18.51
-20.82
-23.67
-26.98
-30.74
-34.86
-39.08
-42.85
-45.36
-45.78
-43.53
-38.64
-31.75
-23.98
-16.53
-10.29
-5.64
-2.45
-0.26
1.43
2.9
4.15
5.0
5.2
4.62
3.35
1.67
-0.06
-1.52
-2.61
-3.4
-4.13
-5.03
-6.23
-7.73
-9.4
-10.99
-12.25
-12.95
-12.94
-12.19
-10.8
-8.93
-6.8
-4.66
-2.78
-1.37
-0.55
-0.21
0.05
0.87
2.9
6.52
11.68
17.91
24.49
30.76
36.32
41.08
45.03
48.12
50.08
50.56
49.3
46.34
42.08
37.25
32.57
28.6
25.52
23.14
21.0
18.65
15.76
12.29
8.5
4.81
1.63
-0.71
-2.14
-2.75
-2.76
-2.42
-2.0
-1.8
-2.1
-3.18
-5.13
-7.66
-10.09
-11.47
-10.93
-7.99
-2.84
3.79
10.91
17.68
23.65
28.77
33.24
37.23
40.79
43.82
46.15
47.65
48.25
47.94
46.8
45.0
42.79
40.41
37.93
35.2
31.9
27.83
23.07
18.1
13.65
10.34
8.32
7.24
6.34
4.87
2.41
-1.03
-5.16
-9.6
-14.16
-18.75
-23.27
-27.4
-30.49
-31.74
-30.48
-26.55
-20.36
-12.85
-5.16
1.74
7.2
10.92
12.84
13.05
11.77
9.45
6.69
4.15
2.3
1.2
0.5
-0.47
-2.43
-5.8
-10.61
-16.4
-22.35
-27.48
-30.86
-31.81
-30.17
-26.38
-21.41
-16.56
-13.0
-11.42
-11.78
-13.33
-14.85
-15.14
-13.44
-9.67
-4.41
1.35
6.72
11.19
14.82
17.98
21.06
24.13
26.83
28.53
28.62
26.79
23.21
18.45
13.24
8.24
3.91
0.46
-2.12
-3.99
-5.44
-6.77
-8.25
-9.98
-11.83
-13.54
-14.86
-15.81
-16.68
-18.02
-20.27
-23.53
-27.34
-30.78
-32.89
-32.97
-30.91
-27.06
-22.04
-16.43
-10.62
-4.84
0.67
5.51
9.19
11.3
11.73
10.72
8.76
6.34
3.64
0.53
-3.33
-8.17
-13.97
-20.36
-26.85
-33.09
-39.04
-44.94
-51.1
-57.67
-64.42
-70.89
-76.58
-81.26
-85.02
-88.16
-90.97
-93.49
-95.48
-96.59
-96.52
-95.05
-91.9
-86.45
-77.73
-64.59
-46.27
-22.91
4.19
32.77
60.29
84.67
104.78
120.54
132.47
141.2
147.06
150.01
149.91
146.72
140.73
132.55
122.88
112.35
101.42
90.37
79.35
68.46
57.67
46.87
35.92
24.82
13.85
3.63
-5.16
-12.05
-17.05
-20.71
-23.76
-26.77
-29.77
-32.33
-33.79
-33.75
-32.39
-30.39
-28.72
-28.17
-29.1
-31.21
-33.73
-35.6
-35.8
-33.61
-28.95
-22.32
-14.69
-7.1
-0.23
5.85
11.6
17.66
24.38
31.45
37.96
42.74
44.96
44.54
42.16
38.97
36.04
33.92
32.66
31.94
31.42
30.95
30.34
29.25
27.0
22.78
16.05
6.97
-3.5
-13.94
-22.99
-29.86
-34.5
-37.4
-39.22
-40.46
-41.38
-42.08
-42.72
-43.5
-44.64
-46.2
-48.0
-49.72
-51.09
-52.08
-52.98
-54.3
-56.45
-59.55
-63.14
-66.32
-67.93
-66.97
-62.88
-55.81
-46.55
-36.27
-26.22
-17.31
-9.96
-4.15
0.4
3.98
6.78
8.86
10.29
11.19
11.82
12.53
13.56
15.04
16.83
18.7
20.38
21.71
22.68
23.44
24.12
24.75
25.24
25.37
24.96
23.93
22.38
20.52
18.55
16.58
14.59
12.46
10.03
7.22
4.07
0.75
-2.45
-5.24
-7.47
-9.18
-10.56
-11.85
-13.25
-14.93
-17.0
-19.51
-22.37
-25.18
-27.27
-27.75
-25.91
-21.56
-15.2
-7.92
-0.95
4.69
8.61
10.92
12.04
12.44
12.34
11.78
10.72
9.15
7.22
5.21
3.44
2.17
1.54
1.6
2.37
3.76
5.55
7.41
8.84
9.38
8.76
7.04
4.58
1.94
-0.31
-1.79
-2.41
-2.34
-1.95
-1.7
-1.95
-2.89
-4.46
-6.35
-8.14
-9.44
-10.03
-9.96
-9.46
-8.83
-8.22
-7.58
-6.61
-4.98
-2.45
0.9
4.66
8.16
10.63
11.51
10.54
7.86
3.95
-0.54
-4.88
-8.51
-11.04
-12.33
-12.47
-11.63
-10.05
-7.88
-5.26
-2.31
0.82
3.95
6.95
9.73
12.29
14.69
16.99
19.25
21.5
23.7
25.76
27.5
28.7
29.28
29.36
29.28
29.46
30.17
31.31
32.43
32.9
32.19
30.16
27.04
23.36
19.77
16.95
15.56
16.22
19.28
24.67
31.73
39.28
45.98
50.75
53.09
53.16
51.54
48.85
45.51
41.65
37.25
32.33
27.11
21.97
17.33
13.44
10.36
7.94
5.97
4.31
2.95
1.94
1.3
0.92
0.54
-0.14
-1.32
-3.0
-5.02
-7.09
-8.96
-10.54
-11.8
-12.82
-13.68
-14.48
-15.35
-16.47
-18.0
-20.03
-22.5
-25.26
-28.09
-30.86
-33.44
-35.58
-36.86
-36.66
-34.5
-30.36
-24.94
-19.54
-15.61
-14.27
-15.8
-19.61
-24.57
-29.53
-33.76
-37.17
-40.2
-43.49
-47.59
-52.76
-58.98
-65.98
-73.24
-79.97
-85.12
-87.6
-86.7
-82.52
-76.19
-69.6
-64.83
-63.33
-65.44
-70.34
-76.54
-82.52
-87.19
-89.99
-90.78
-89.55
-86.33
-81.36
-75.18
-68.75
-63.27
-59.9
-59.32
-61.41
-65.16
-68.95
-70.92
-69.57
-64.18
-54.91
-42.73
-29.01
-15.14
-2.24
8.98
18.17
25.22
30.24
33.46
35.21
35.85
35.66
34.87
33.66
32.21
30.8
29.68
29.07
29.03
29.44
30.08
30.73
31.18
31.3
30.9
29.75
27.56
24.26
20.28
16.69
15.06
16.88
22.79
32.1
42.87
52.64
59.56
63.14
64.46
65.41
67.68
71.86
77.17
81.94
84.44
83.64
79.4
72.28
63.12
52.66
41.44
29.88
18.42
7.56
-2.26
-10.77
-18.0
-24.22
-29.69
-34.47
-38.24
-40.32
-39.99
-36.73
-30.56
-22.2
-12.89
-4.08
2.97
7.45
9.16
8.21
4.83
-0.87
-8.86
-18.87
-30.08
-40.97
-49.56
-54.04
-53.45
-48.02
-39.14
-28.88
-19.23
-11.63
-6.78
-4.76
-5.34
-8.13
-12.65
-18.24
-24.04
-29.11
-32.72
-34.61
-34.97
-34.35
-33.27
-32.04
-30.64
-28.89
-26.73
-24.3
-22.03
-20.44
-19.9
-20.51
-22.09
-24.22
-26.48
-28.59
-30.56
-32.75
-35.75
-40.2
-46.55
-54.73
-63.98
-72.78
-79.19
-81.22
-77.5
-67.68
-52.67
-34.31
-14.8
3.9
20.59
34.87
46.89
56.95
65.2
71.6
75.99
78.42
79.24
79.03
78.47
78.06
77.98
78.14
78.22
77.93
77.06
75.6
73.65
71.32
68.68
65.69
62.22
58.14
53.37
47.89
41.86
35.48
29.06
22.91
17.2
11.98
7.1
2.29
-2.82
-8.57
-15.24
-22.87
-31.1
-39.01
-45.2
-48.08
-46.39
-39.67
-28.59
-14.71
-0.03
13.67
25.29
34.57
41.77
47.3
51.4
54.07
55.22
54.92
53.51
51.61
49.87
48.78
48.48
48.77
49.21
49.36
48.93
47.87
46.34
44.57
42.72
40.82
38.75
36.35
33.48
30.14
26.45
22.63
18.88
15.38
12.19
9.27
6.45
3.55
0.33
-3.44
-7.92
-13.06
-18.43
-23.12
-25.82
-25.16
-20.19
-10.86
1.84
16.02
29.45
40.19
46.96
49.39
47.82
43.1
36.29
28.56
21.05
14.69
10.15
7.62
6.92
7.51
8.68
9.73
10.13
9.64
8.26
6.27
4.03
1.86
-0.05
-1.75
-3.49
-5.58
-8.27
-11.6
-15.38
-19.21
-22.68
-25.54
-27.78
-29.66
-31.6
-34.04
-37.33
-41.62
-46.76
-52.19
-56.94
-59.73
-59.32
-54.9
-46.53
-35.12
-22.2
-9.44
1.92
11.24
18.49
23.91
27.81
30.39
31.75
32.0
31.37
30.17
28.84
27.76
27.19
27.18
27.52
27.82
27.71
26.93
25.47
23.51
21.32
19.11
16.9
14.6
12.02
8.97
5.35
1.19
-3.4
-8.22
-13.05
-17.74
-22.19
-26.45
-30.65
-34.98
-39.67
-44.88
-50.56
-56.28
-61.18
-64.0
-63.47
-58.75
-49.82
-37.62
-23.76
-10.01
2.25
12.33
20.25
26.41
31.23
34.93
37.46
38.78
38.96
38.39
37.59
37.02
36.89
37.05
37.11
36.76
35.92
34.8
33.77
33.07
32.66
32.2
31.16
29.17
26.14
22.37
18.36
14.6
11.32
8.45
5.67
2.61
-0.89
-4.8
-8.84
-12.72
-16.23
-19.3
-22.03
-24.6
-27.33
-30.6
-34.84
-40.28
-46.72
-53.26
-58.41
-60.45
-58.02
-50.75
-39.41
-25.74
-11.79
0.68
10.68
18.04
23.18
26.74
29.22
30.89
31.81
32.03
31.69
31.02
30.34
29.89
29.77
29.91
30.09
30.08
29.74
29.05
28.1
27.0
25.8
24.44
22.78
20.72
18.21
15.26
11.94
8.31
4.46
0.5
-3.42
-7.13
-10.46
-13.36
-15.93
-18.39
-21.0
-23.99
-27.55
-31.78
-36.57
-41.54
-45.89
-48.52
-48.29
-44.45
-36.96
-26.64
-14.94
-3.44
6.57
14.36
19.79
23.04
24.42
24.22
22.78
20.53
18.03
15.87
14.44
13.87
13.94
14.22
14.31
13.99
13.33
12.56
11.91
11.41
10.83
9.73
7.67
4.33
-0.25
-5.73
-11.56
-17.13
-21.97
-25.88
-28.93
-31.53
-34.21
-37.43
-41.36
-45.63
-49.32
-51.21
-50.14
-45.48
-37.42
-26.96
-15.58
-4.76
4.43
11.5
16.45
19.55
21.13
21.45
20.77
19.37
17.64
15.99
14.75
14.07
13.85
13.84
13.78
13.49
12.96
12.24
11.39
10.34
8.92
6.94
4.31
1.13
-2.36
-5.82
-9.05
-12.01
-14.89
-18.03
-21.81
-26.48
-31.95
-37.72
-42.81
-46.01
-46.17
-42.64
-35.55
-25.79
-14.77
-3.96
5.53
13.13
18.82
22.86
25.57
27.2
27.89
27.78
27.06
25.94
24.65
23.35
22.18
21.17
20.28
19.45
18.56
17.53
16.31
14.84
13.08
10.89
8.13
4.73
0.74
-3.57
-7.86
-11.82
-15.3
-18.44
-21.63
-25.35
-30.01
-35.61
-41.67
-47.12
-50.61
-50.86
-47.22
-39.86
-29.83
-18.67
-7.94
1.31
8.67
14.33
18.72
22.22
25.03
27.11
28.33
28.66
28.2
27.15
25.81
24.38
22.96
21.58
20.17
18.69
17.05
15.21
13.06
10.55
7.66
4.45
1.06
-2.37
-5.81
-9.34
-13.16
-17.47
-22.35
-27.62
-32.88
-37.65
-41.61
-44.75
-47.51
-50.52
-54.32
-59.0
-64.04
-68.32
-70.25
-67.96
-59.62
-43.85
-20.3
9.87
43.86
77.72
107.37
129.75
143.64
149.62
149.43
144.86
137.08
126.45
113.01
96.99
79.18
60.78
43.06
26.92
12.66
0.09
-11.26
-21.85
-31.95
-41.62
-50.71
-59.03
-66.39
-72.69
-77.94
-82.21
-85.67
-88.53
-91.03
-93.38
-95.72
-98.01
-100.03
-101.35
-101.37
-99.41
-94.86
-87.33
-76.77
-63.41
-47.53
-29.34
-8.92
13.56
37.46
61.57
84.12
103.34
117.95
127.53
132.46
133.61
131.85
127.78
121.66
113.64
104.05
93.58
83.22
74.03
66.79
61.73
58.48
56.25
54.11
51.35
47.62
43.01
37.87
32.62
27.56
22.82
18.35
13.93
9.3
4.26
-1.26
-7.2
-13.47
-20.1
-27.4
-35.88
-46.02
-57.85
-70.67
-83.0
-92.89
-98.5
-98.61
-93.11
-82.96
-69.91
-55.97
-42.86
-31.74
-23.04
-16.59
-11.81
-7.99
-4.46
-0.81
3.02
6.7
9.69
11.42
11.47
9.65
6.07
1.12
-4.58
-10.18
-14.82
-17.78
-18.79
-18.15
-16.71
-15.57
-15.67
-17.42
-20.54
-24.29
-27.83
-30.58
-32.56
-34.21
-36.26
-39.39
-43.99
-50.02
-56.9
-63.57
-68.61
-70.64
-68.66
-62.45
-52.73
-40.92
-28.69
-17.42
-7.91
-0.32
5.58
10.16
13.68
16.29
18.1
19.25
19.93
20.35
20.63
20.83
20.95
20.94
20.77
20.38
19.7
18.65
17.21
15.47
13.55
11.55
9.4
6.9
3.74
-0.2
-4.78
-9.57
-14.05
-17.86
-20.99
-23.77
-26.7
-30.23
-34.59
-39.78
-45.51
-51.22
-56.02
-58.82
-58.55
-54.54
-46.87
-36.38
-24.5
-12.73
-2.19
6.59
13.61
19.21
23.72
27.35
30.13
32.05
33.12
33.52
33.5
33.35
33.27
33.27
33.29
33.21
32.97
32.64
32.31
32.03
31.67
30.92
29.49
27.22
24.24
20.91
17.67
14.81
12.35
10.04
7.51
4.44
0.74
-3.4
-7.62
-11.56
-15.01
-17.95
-20.56
-23.18
-26.18
-29.93
-34.66
-40.3
-46.29
-51.55
-54.65
-54.24
-49.51
-40.62
-28.69
-15.5
-2.91
7.67
15.62
21.13
24.87
27.63
29.92
31.92
33.54
34.65
35.22
35.38
35.32
35.17
34.89
34.39
33.59
32.6
31.64
30.98
30.72
30.7
30.49
29.63
27.76
24.84
21.13
17.1
13.25
9.88
7.03
4.48
1.83
-1.23
-4.82
-8.82
-12.92
-16.73
-19.99
-22.71
-25.15
-27.76
-31.01
-35.19
-40.16
-45.31
-49.58
-51.79
-50.93
-46.51
-38.75
-28.53
-17.06
-5.67
4.67
13.32
20.1
25.06
28.36
30.23
30.89
30.65
29.81
28.73
27.66
26.81
26.27
26.07
26.16
26.42
26.68
26.78
26.63
26.23
25.67
25.0
24.15
22.95
21.19
18.82
15.99
12.98
10.11
7.49
5.03
2.45
-0.48
-3.88
-7.65
-11.55
-15.31
-18.7
-21.6
-24.07
-26.29
-28.6
-31.42
-35.05
-39.48
-44.16
-48.01
-49.71
-48.15
-42.87
-34.31
-23.62
-12.27
-1.58
7.63
15.03
20.59
24.39
26.45
26.85
25.8
23.8
21.5
19.58
18.52
18.49
19.3
20.52
21.66
22.33
22.39
21.91
21.08
20.11
19.13
18.13
16.96
15.44
13.4
10.75
7.52
3.88
0.1
-3.53
-6.81
-9.7
-12.31
-14.85
-17.53
-20.51
-23.88
-27.57
-31.32
-34.6
-36.67
-36.67
-33.96
-28.38
-20.37
-10.96
-1.43
7.08
13.84
18.6
21.54
22.94
23.07
22.08
20.11
17.43
14.52
11.95
10.22
9.54
9.71
10.24
10.62
10.51
9.9
8.99
8.01
7.09
6.16
4.99
3.33
1.02
-1.93
-5.38
-9.08
-12.74
-16.11
-19.08
-21.67
-24.02
-26.35
-28.86
-31.78
-35.23
-39.19
-43.29
-46.8
-48.7
-47.96
-43.95
-36.74
-27.13
-16.37
-5.75
3.78
11.78
18.21
23.16
26.72
28.86
29.58
28.99
27.45
25.45
23.5
21.93
20.82
19.99
19.13
17.97
16.43
14.67
12.97
11.63
10.68
9.93
8.95
7.34
4.9
1.72
-1.82
-5.28
-8.32
-10.88
-13.12
-15.42
-18.19
-21.73
-26.16
-31.3
-36.59
-41.09
-43.71
-43.51
-40.03
-33.55
-24.97
-15.53
-6.42
1.58
8.18
13.43
17.48
20.4
22.16
22.71
22.17
20.86
19.3
17.97
17.21
17.05
17.31
17.68
17.9
17.83
17.48
16.91
16.17
15.19
13.84
11.98
9.53
6.56
3.27
-0.05
-3.14
-5.84
-8.16
-10.22
-12.22
-14.38
-16.93
-20.08
-23.93
-28.32
-32.74
-36.35
-38.12
-37.21
-33.23
-26.41
-17.58
-7.86
1.6
9.9
16.49
21.18
24.01
25.21
25.14
24.2
22.79
21.27
19.91
18.84
18.08
17.56
17.18
16.86
16.59
16.33
16.03
15.54
14.68
13.29
11.32
8.85
6.05
3.1
0.18
-2.64
-5.36
-8.09
-11.0
-14.33
-18.2
-22.58
-27.07
-30.93
-33.19
-32.96
-29.78
-23.8
-15.81
-6.98
1.46
8.6
14.0
17.6
19.6
20.24
19.71
18.14
15.74
12.85
9.93
7.49
5.89
5.24
5.32
5.67
5.8
5.32
4.13
2.39
0.38
-1.61
-3.46
-5.21
-7.01
-9.1
-11.66
-14.87
-18.81
-23.38
-28.15
-32.39
-35.11
-35.43
-32.83
-27.41
-19.88
-11.32
-2.87
4.61
10.7
15.35
18.75
21.1
22.47
22.84
22.19
20.65
18.53
16.29
14.36
12.99
12.17
11.64
11.04
10.04
8.49
6.4
3.93
1.24
-1.52
-4.3
-7.13
-10.09
-13.3
-16.9
-21.05
-25.88
-31.39
-37.27
-42.78
-46.83
-48.23
-46.12
-40.39
-31.7
-21.36
-10.8
-1.19
6.86
13.23
18.14
21.83
24.44
26.05
26.76
26.76
26.27
25.53
24.69
23.81
22.86
21.85
20.83
19.88
19.06
18.32
17.46
16.19
14.26
11.51
8.03
4.11
0.16
-3.44
-6.51
-9.15
-11.83
-15.14
-19.57
-25.21
-31.45
-37.16
-40.88
-41.4
-38.18
-31.56
-22.61
-12.69
-3.06
5.51
12.7
18.49
22.99
26.29
28.51
29.83
30.52
30.87
31.1
31.23
31.15
30.74
29.96
28.96
27.98
27.26
26.9
26.79
26.63
26.09
24.93
23.11
20.84
18.39
16.04
13.84
11.68
9.32
6.51
3.17
-0.62
-4.63
-8.59
-12.3
-15.6
-18.49
-21.05
-23.5
-26.18
-29.46
-33.58
-38.46
-43.55
-47.82
-50.05
-49.22
-44.92
-37.51
-28.01
-17.76
-7.97
0.62
7.74
13.5
18.09
21.66
24.28
25.95
26.75
26.89
26.69
26.46
26.47
26.82
27.4
28.01
28.41
28.45
28.11
27.53
26.87
26.22
25.58
24.81
23.68
22.07
19.91
17.31
14.51
11.75
9.23
6.95
4.77
2.45
-0.23
-3.28
-6.52
-9.67
-12.4
-14.59
-16.33
-17.92
-19.76
-22.21
-25.47
-29.53
-34.08
-38.52
-42.03
-43.66
-42.64
-38.64
-31.87
-23.12
-13.51
-4.23
3.88
10.37
15.27
18.85
21.41
23.22
24.39
25.03
25.25
25.17
24.96
24.74
24.6
24.55
24.55
24.53
24.45
24.29
24.09
23.83
23.45
22.78
21.63
19.89
17.56
14.89
12.18
9.77
7.79
6.18
4.67
2.9
0.63
-2.18
-5.35
-8.54
-11.42
-13.79
-15.67
-17.32
-19.09
-21.33
-24.22
-27.72
-31.5
-34.97
-37.35
-37.86
-35.92
-31.35
-24.52
-16.26
-7.65
0.29
6.81
11.61
14.75
16.45
17.0
16.66
15.68
14.32
12.96
11.94
11.58
11.97
12.97
14.21
15.31
15.93
15.99
15.61
15.0
14.37
13.75
13.03
11.97
10.39
8.24
5.68
3.01
0.54
-1.53
-3.22
-4.76
-6.43
-8.46
-10.87
-13.53
-16.16
-18.52
-20.5
-22.17
-23.7
-25.32
-27.25
-29.66
-32.67
-36.32
-40.41
-44.44
-47.6
-48.92
-47.56
-43.2
-36.14
-27.33
-17.94
-9.08
-1.42
4.78
9.59
13.19
15.68
17.14
17.64
17.39
16.7
15.95
15.49
15.47
15.86
16.44
16.96
17.24
17.22
17.06
16.92
16.89
16.89
16.66
15.98
14.75
13.11
11.36
9.81
8.57
7.51
6.29
4.56
2.13
-0.9
-4.26
-7.55
-10.43
-12.76
-14.57
-16.08
-17.59
-19.39
-21.75
-24.8
-28.48
-32.47
-36.16
-38.73
-39.3
-37.27
-32.46
-25.27
-16.65
-7.75
0.36
7.0
11.95
15.39
17.63
18.94
19.45
19.2
18.3
16.96
15.52
14.32
13.56
13.2
13.06
12.87
12.48
11.87
11.2
10.59
10.06
9.43
8.39
6.64
4.08
0.89
-2.51
-5.71
-8.43
-10.7
-12.81
-15.15
-18.05
-21.64
-25.74
-29.94
-33.64
-36.13
-36.78
-35.11
-31.04
-24.89
-17.36
-9.35
-1.79
4.59
9.33
12.25
13.43
13.12
11.68
9.5
6.97
4.44
2.18
0.41
-0.69
-1.01
-0.55
0.5
1.79
2.87
3.31
2.91
1.74
0.05
-1.84
-3.68
-5.45
-7.3
-9.5
-12.27
-15.66
-19.52
-23.51
-27.21
-30.16
-31.98
-32.37
-31.07
-28.01
-23.27
-17.18
-10.31
-3.32
3.17
8.71
13.12
16.34
18.38
19.2
18.82
17.41
15.36
13.2
11.42
10.32
9.89
9.91
10.1
10.27
10.33
10.26
10.03
9.58
8.76
7.55
5.91
3.94
1.68
-0.82
-3.59
-6.66
-10.15
-14.18
-18.84
-24.02
-29.23
-33.62
-36.12
-35.7
-31.79
-24.38
-13.99
-1.53
11.95
25.41
37.88
48.55
56.88
62.76
66.61
69.23
71.42
73.55
75.46
76.51
75.99
73.55
69.23
63.38
56.3
48.13
38.87
28.62
17.72
6.86
-3.17
-11.76
-18.65
-24.02
-28.36
-32.18
-35.93
-39.82
-43.86
-47.93
-51.91
-55.79
-59.7
-63.86
-68.29
-72.65
-76.16
-77.74
-76.38
-71.59
-63.6
-53.34
-42.1
-31.12
-21.16
-12.42
-4.67
2.46
9.22
15.54
21.13
25.58
28.65
30.28
30.66
30.13
29.07
27.81
26.66
25.88
25.64
26.01
26.85
27.76
28.23
27.69
25.79
22.49
18.15
13.38
8.91
5.29
2.75
1.06
-0.41
-2.54
-6.12
-11.6
-18.75
-26.65
-33.75
-38.35
-39.06
-35.28
-27.47
-17.04
-5.86
4.25
12.09
17.22
19.97
21.02
21.12
20.85
20.56
20.49
20.8
21.53
22.59
23.67
24.28
23.94
22.36
19.52
15.79
11.72
7.94
4.92
2.91
1.8
1.26
0.76
-0.2
-2.02
-4.89
-8.85
-13.8
-19.55
-25.69
-31.6
-36.32
-38.8
-38.14
-34.03
-26.84
-17.65
-7.81
1.46
9.38
15.73
20.7
24.6
27.64
29.86
31.17
31.52
31.0
29.87
28.48
27.17
26.12
25.32
24.63
23.87
22.92
21.78
20.52
19.26
17.99
16.6
14.88
12.63
9.76
6.39
2.78
-0.73
-3.87
-6.57
-8.93
-11.26
-13.9
-17.1
-21.0
-25.58
-30.65
-35.87
-40.62
-44.1
-45.44
-43.96
-39.46
-32.34
-23.58
-14.37
-5.8
1.48
7.32
11.94
15.7
18.84
21.44
23.42
24.72
25.41
25.73
25.97
26.35
26.89
27.43
27.72
27.62
27.14
26.47
25.82
25.32
24.88
24.31
23.33
21.76
19.55
16.85
13.91
11.07
8.66
6.81
5.44
4.27
2.87
0.9
-1.78
-5.02
-8.51
-11.92
-15.03
-17.81
-20.36
-22.84
-25.43
-28.31
-31.64
-35.47
-39.67
-43.66
-46.57
-47.38
-45.31
-40.16
-32.43
-23.21
-13.71
-4.99
2.36
8.19
12.64
15.93
18.23
19.68
20.39
20.55
20.39
20.16
20.02
20.04
20.19
20.35
20.43
20.32
19.98
19.4
18.58
17.54
16.29
14.86
13.28
11.63
9.91
8.1
6.16
4.04
1.74
-0.7
-3.17
-5.56
-7.79
-9.85
-11.83
-13.89
-16.25
-19.05
-22.36
-26.09
-29.95
-33.41
-35.78
-36.32
-34.5
-30.16
-23.65
-15.8
-7.72
-0.45
5.37
9.53
12.26
13.95
14.93
15.33
15.16
14.41
13.23
11.92
10.87
10.37
10.48
10.97
11.44
11.54
11.09
10.2
9.11
8.07
7.2
6.36
5.31
3.74
1.46
-1.44
-4.67
-7.81
-10.51
-12.61
-14.23
-15.73
-17.56
-20.03
-23.29
-27.22
-31.41
-35.25
-38.0
-38.91
-37.53
-33.78
-28.13
-21.4
-14.54
-8.27
-2.91
1.58
5.47
8.99
12.22
15.07
17.39
19.05
20.02
20.36
20.2
19.69
18.96
18.12
17.19
16.18
15.06
13.87
12.69
11.65
10.84
10.29
9.93
9.6
9.08
8.16
6.69
4.62
1.98
-1.09
-4.44
-7.88
-11.28
-14.53
-17.62
-20.61
-23.6
-26.72
-29.95
-33.04
-35.54
-36.82
-36.37
-33.9
-29.59
-23.92
-17.53
-11.05
-4.92
0.62
5.51
9.75
13.34
16.25
18.42
19.76
20.25
19.95
19.08
17.98
17.02
16.48
16.45
16.79
17.3
17.75
18.02
18.09
17.94
17.55
16.81
15.67
14.12
12.31
10.44
8.71
7.2
5.9
4.61
3.13
1.29
-0.99
-3.63
-6.48
-9.35
-12.05
-14.47
-16.6
-18.56
-20.56
-22.89
-25.76
-29.2
-32.92
-36.28
-38.4
-38.45
-35.9
-30.79
-23.68
-15.53
-7.39
-0.12
5.78
10.2
13.29
15.33
16.6
17.29
17.58
17.59
17.51
17.49
17.61
17.83
17.97
17.81
17.26
16.44
15.62
15.13
15.12
15.46
15.82
15.79
15.1
13.71
11.8
9.65
7.48
5.45
3.54
1.69
-0.26
-2.37
-4.69
-7.13
-9.53
-11.71
-13.59
-15.26
-16.97
-19.07
-21.88
-25.46
-29.55
-33.52
-36.52
-37.71
-36.55
-32.93
-27.25
-20.27
-12.87
-5.87
0.21
5.11
8.8
11.36
12.92
13.63
13.65
13.22
12.6
12.03
11.69
11.68
12.0
12.55
13.17
13.7
14.01
14.04
13.81
13.35
12.7
11.83
10.68
9.2
7.43
5.49
3.61
2.01
0.81
-0.03
-0.74
-1.69
-3.18
-5.39
-8.21
-11.3
-14.21
-16.58
-18.28
-19.5
-20.63
-22.12
-24.34
-27.39
-31.12
-35.07
-38.52
-40.66
-40.7
-38.19
-33.13
-26.09
-18.01
-9.94
-2.77
3.0
7.26
10.21
12.22
13.65
14.73
15.56
16.15
16.45
16.52
16.49
16.53
16.78
17.26
17.87
18.42
18.77
18.87
18.82
18.71
18.61
18.43
18.0
17.16
15.81
14.04
12.06
10.14
8.48
7.14
6.01
4.82
3.36
1.44
-0.95
-3.66
-6.47
-9.18
-11.59
-13.65
-15.38
-16.92
-18.5
-20.35
-22.71
-25.64
-28.95
-32.11
-34.38
-34.95
-33.21
-29.01
-22.69
-15.03
-6.97
0.62
7.12
12.22
15.9
18.31
19.68
20.25
20.27
19.97
19.52
19.08
18.69
18.36
18.07
17.81
17.59
17.48
17.52
17.67
17.8
17.7
17.22
16.29
14.97
13.43
11.83
10.26
8.72
7.1
5.3
3.23
0.91
-1.59
-4.09
-6.41
-8.4
-10.03
-11.44
-12.92
-14.85
-17.54
-21.09
-25.28
-29.5
-32.81
-34.24
-33.01
-28.89
-22.28
-14.12
-5.62
2.14
8.4
12.9
15.71
17.09
17.34
16.67
15.33
13.63
11.9
10.49
9.65
9.42
9.63
10.01
10.24
10.1
9.58
8.82
8.02
7.36
6.84
6.32
5.56
4.29
2.41
-0.02
-2.79
-5.61
-8.22
-10.49
-12.44
-14.2
-15.98
-18.05
-20.68
-24.05
-28.1
-32.43
-36.28
-38.69
-38.76
-35.99
-30.5
-23.0
-14.62
-6.5
0.51
6.04
10.11
13.02
15.02
16.31
16.98
17.11
16.89
16.54
16.3
16.27
16.39
16.48
16.35
15.88
15.09
14.06
12.93
11.82
10.81
9.93
9.06
7.98
6.38
4.01
0.86
-2.83
-6.61
-10.03
-12.84
-15.12
-17.2
-19.5
-22.37
-25.97
-30.25
-34.82
-39.07
-42.16
-43.19
-41.54
-37.08
-30.25
-22.01
-13.44
-5.47
1.39
7.04
11.61
15.25
18.0
19.88
20.92
21.29
21.28
21.19
21.23
21.44
21.73
21.93
21.94
21.78
21.54
21.31
21.1
20.77
20.15
19.09
17.57
15.69
13.62
11.5
9.37
7.19
4.85
2.26
-0.64
-3.82
-7.19
-10.63
-14.03
-17.33
-20.54
-23.77
-27.2
-31.0
-35.29
-39.99
-44.8
-49.02
-51.74
-51.95
-48.94
-42.55
-33.38
-22.62
-11.73
-1.95
5.96
11.87
16.07
19.0
21.06
22.48
23.38
23.82
23.92
23.83
23.74
23.79
24.08
24.61
25.24
25.79
26.1
26.07
25.73
25.14
24.37
23.39
22.13
20.49
18.45
16.04
13.34
10.46
7.48
4.46
1.4
-1.65
-4.66
-7.57
-10.38
-13.2
-16.23
-19.78
-24.11
-29.17
-34.38
-38.74
-40.97
-39.99
-35.36
-27.51
-17.6
-7.15
2.48
10.42
16.42
20.67
23.5
25.14
25.66
25.06
23.48
21.28
19.09
17.5
16.91
17.28
18.19
19.06
19.41
19.04
18.09
16.88
15.68
14.53
13.21
11.39
8.75
5.19
0.85
-3.9
-8.62
-12.92
-16.62
-19.73
-22.47
-25.19
-28.27
-32.06
-36.7
-42.07
-47.63
-52.46
-55.41
-55.38
-51.69
-44.33
-34.05
-22.16
-10.16
0.65
9.49
16.14
20.82
23.99
26.05
27.3
27.85
27.76
27.14
26.19
25.21
24.5
24.25
24.4
24.68
24.72
24.24
23.16
21.61
19.85
18.08
16.34
14.52
12.45
10.06
7.35
4.46
1.51
-1.42
-4.31
-7.16
-9.98
-12.78
-15.61
-18.59
-21.94
-25.93
-30.79
-36.46
-42.45
-47.78
-51.14
-51.29
-47.47
-39.74
-28.98
-16.6
-4.12
7.23
16.71
24.03
29.27
32.66
34.45
34.98
34.55
33.51
32.16
30.74
29.43
28.34
27.52
27.01
26.79
26.82
26.99
27.13
27.0
26.42
25.25
23.49
21.2
18.5
15.5
12.25
8.74
4.9
0.64
-4.06
-9.1
-14.25
-19.18
-23.58
-27.28
-30.32
-33.05
-35.94
-39.48
-43.87
-48.84
-53.54
-56.68
-56.87
-53.12
-45.19
-33.78
-20.32
-6.51
6.11
16.53
24.35
29.58
32.46
33.29
32.43
30.35
27.63
24.92
22.77
21.51
21.09
21.27
21.71
22.11
22.38
22.5
22.49
22.26
21.57
20.14
17.75
14.35
10.15
5.53
0.94
-3.22
-6.81
-9.92
-12.87
-16.04
-19.82
-24.41
-29.74
-35.41
-40.68
-44.55
-45.94
-44.01
-38.48
-29.78
-18.96
-7.28
4.19
14.81
24.31
32.51
39.01
43.15
44.24
42.06
37.13
30.69
24.21
18.86
15.06
12.52
10.65
9.02
7.68
7.02
7.34
8.47
9.67
9.94
8.51
5.3
0.99
-3.33
-6.65
-8.49
-9.07
-9.08
-9.33
-10.41
-12.58
-15.81
-19.91
-24.55
-29.17
-32.83
-34.31
-32.43
-26.48
-16.63
-4.02
9.72
22.95
34.64
44.53
52.92
60.14
66.26
70.9
73.58
74.06
72.59
69.9
66.91
64.34
62.44
61.01
59.57
57.61
54.73
50.67
45.24
38.3
29.83
20.06
9.47
-1.27
-11.44
-20.47
-28.01
-33.98
-38.53
-42.01
-44.93
-48.01
-51.98
-57.52
-64.99
-74.26
-84.53
-94.39
-101.95
-105.31
-103.1
-94.92
-81.59
-64.99
-47.5
-31.34
-18.02
-8.16
-1.59
2.27
4.15
4.74
4.7
4.66
5.19
6.66
9.1
12.21
15.39
18.01
19.62
20.18
20.18
20.61
22.71
27.53
35.46
45.9
57.3
67.59
74.87
78.05
77.1
72.81
66.28
58.35
49.51
40.05
30.43
21.56
14.72
11.15
11.56
15.87
23.17
32.02
40.82
48.14
52.9
54.37
52.28
46.71
38.17
27.49
15.73
3.93
-7.1
-16.87
-25.14
-31.87
-37.04
-40.58
-42.48
-42.87
-42.2
-41.08
-40.2
-40.06
-40.84
-42.38
-44.3
-46.25
-47.99
-49.51
-50.97
-52.67
-54.95
-58.07
-62.1
-66.71
-71.05
-73.87
-73.78
-69.77
-61.61
-50.01
-36.48
-22.77
-10.38
-0.2
7.58
13.26
17.35
20.29
22.34
23.6
24.04
23.7
22.7
21.35
20.0
19.02
18.57
18.58
18.74
18.64
17.93
16.47
14.32
11.67
8.75
5.72
2.59
-0.68
-4.17
-8.0
-12.25
-17.06
-22.51
-28.57
-34.89
-40.66
-44.68
-45.71
-42.88
-36.16
-26.44
-15.25
-4.25
5.37
13.06
18.87
23.18
26.26
28.24
29.09
28.86
27.77
26.23
24.72
23.56
22.8
22.26
21.62
20.65
19.34
17.91
16.6
15.57
14.64
13.43
11.47
8.5
4.61
0.21
-4.14
-7.95
-11.02
-13.53
-15.86
-18.53
-21.95
-26.35
-31.63
-37.33
-42.55
-46.1
-46.75
-43.63
-36.62
-26.45
-14.62
-2.85
7.4
15.38
21.13
25.24
28.41
31.14
33.56
35.53
36.88
37.59
37.85
37.98
38.23
38.64
39.06
39.28
39.16
38.75
38.22
37.82
37.73
37.92
38.16
38.06
37.21
35.37
32.64
29.41
26.26
23.66
21.78
20.4
19.03
17.18
14.59
11.3
7.61
3.89
0.61
-1.7
-2.3
-0.4
4.62
12.72
22.97
33.49
42.02
46.5
45.71
39.69
29.52
16.92
3.64
-8.98
-20.25
-29.99
-38.31
-45.4
-51.41
-56.47
-60.72
-64.34
-67.43
-69.96
-71.78
-72.59
-72.17
-70.44
-67.52
-63.73
-59.49
-55.26
-51.42
-48.28
-45.96
-44.39
-43.32
-42.42
-41.43
-40.37
-39.53
-39.44
-40.61
-43.26
-47.05
-51.12
-54.27
-55.3
-53.43
-48.48
-40.95
-31.86
-22.41
-13.67
-6.21
0.05
5.8
11.96
19.21
27.54
36.16
43.78
49.24
52.03
52.63
52.19
52.08
53.26
56.0
59.99
64.66
69.5
74.14
78.31
81.63
83.63
83.8
81.76
77.43
71.08
63.25
54.68
46.16
38.34
31.62
26.02
21.14
16.37
11.07
4.87
-2.29
-10.12
-18.13
-25.7
-32.08
-36.49
-38.22
-36.81
-32.35
-25.53
-17.51
-9.59
-2.85
2.07
5.03
6.25
6.05
4.72
2.54
-0.21
-3.1
-5.64
-7.33
-7.88
-7.31
-5.98
-4.39
-2.97
-1.91
-1.13
-0.42
0.41
1.33
2.11
2.39
1.9
0.53
-1.65
-4.44
-7.63
-11.03
-14.51
-17.96
-21.32
-24.58
-27.77
-31.02
-34.46
-38.06
-41.53
-44.27
-45.5
-44.44
-40.64
-34.18
-25.7
-16.31
-7.22
0.52
6.28
9.99
11.96
12.73
12.83
12.61
12.24
11.7
10.89
9.68
8.05
6.12
4.14
2.41
1.16
0.47
0.18
0.03
-0.28
-0.91
-1.78
-2.71
-3.46
-3.92
-4.15
-4.41
-5.11
-6.67
-9.38
-13.32
-18.28
-23.7
-28.72
-32.42
-33.95
-32.84
-29.12
-23.3
-16.23
-8.81
-1.69
4.74
10.36
15.06
18.57
20.55
20.75
19.24
16.52
13.39
10.63
8.68
7.49
6.62
5.48
3.73
1.35
-1.34
-3.92
-6.08
-7.79
-9.23
-10.71
-12.53
-14.89
-17.95
-21.84
-26.62
-32.25
-38.37
-44.23
-48.78
-50.88
-49.72
-45.09
-37.43
-27.66
-16.97
-6.38
3.27
11.44
17.79
22.16
24.56
25.22
24.57
23.17
21.55
20.15
19.21
18.83
18.9
19.21
19.39
19.07
17.98
16.08
13.61
10.94
8.43
6.24
4.24
2.13
-0.45
-3.74
-7.8
-12.5
-17.47
-22.1
-25.61
-27.12
-25.95
-21.89
-15.39
-7.46
0.6
7.62
12.91
16.41
18.55
19.89
20.77
21.17
20.76
19.19
16.41
12.79
9.07
6.03
4.23
3.79
4.37
5.38
6.22
6.44
5.83
4.46
2.49
0.17
-2.31
-4.85
-7.44
-10.08
-12.85
-15.77
-18.92
-22.45
-26.46
-30.82
-34.97
-37.96
-38.55
-35.69
-28.94
-18.71
-6.2
6.89
18.91
28.62
35.36
39.07
40.09
38.96
36.31
32.85
29.24
26.04
23.62
22.06
21.17
20.59
19.96
19.04
17.84
16.55
15.4
14.51
13.82
13.1
11.99
10.23
7.69
4.45
0.77
-3.0
-6.55
-9.68
-12.37
-14.79
-17.25
-20.11
-23.69
-28.12
-33.13
-38.03
-41.74
-43.13
-41.32
-36.04
-27.79
-17.74
-7.33
2.1
9.69
15.13
18.57
20.36
20.87
20.38
19.07
17.12
14.76
12.31
10.11
8.42
7.35
6.9
6.9
7.09
7.23
7.11
6.63
5.84
4.84
3.7
2.4
0.83
-1.17
-3.67
-6.59
-9.73
-12.82
-15.62
-17.98
-19.82
-21.08
-21.79
-22.04
-22.05
-22.16
-22.64
-23.53
-24.5
-24.89
-23.93
-21.09
-16.28
-9.92
-2.79
4.25
10.56
15.79
19.84
22.75
24.57
25.41
25.46
25.03
24.53
24.31
24.55
25.16
25.81
26.08
25.62
24.31
22.28
19.85
17.38
15.16
13.26
11.58
9.85
7.84
5.4
2.56
-0.61
-4.08
-7.95
-12.46
-17.85
-24.12
-30.83
-37.1
-41.71
-43.49
-41.7
-36.3
-28.02
-18.07
-7.81
1.68
9.8
16.43
21.72
25.87
28.94
30.91
31.76
31.59
30.73
29.52
28.28
27.1
25.88
24.51
22.95
21.41
20.14
19.34
18.9
18.43
17.39
15.37
12.29
8.39
4.16
0.07
-3.6
-6.84
-9.81
-12.72
-15.71
-18.9
-22.38
-26.27
-30.57
-35.11
-39.39
-42.67
-44.14
-43.33
-40.21
-35.34
-29.53
-23.61
-18.14
-13.42
-9.58
-6.75
-5.09
-4.7
-5.53
-7.24
-9.35
-11.41
-13.14
-14.6
-16.04
-17.77
-19.94
-22.36
-24.53
-25.76
-25.4
-23.16
-19.32
-14.7
-10.53
-8.01
-7.9
-10.13
-13.66
-16.84
-17.95
-15.88
-10.59
-3.06
5.09
12.28
17.47
20.44
21.69
22.14
22.87
24.83
28.73
34.89
43.1
52.61
62.18
70.43
76.15
78.61
77.71
73.88
67.88
60.64
53.09
46.08
40.34
36.36
34.29
33.79
34.14
34.46
34.05
32.71
30.79
28.93
27.67
27.08
26.7
25.76
23.66
20.3
16.17
12.1
8.9
6.99
6.25
6.06
5.54
3.74
-0.06
-6.2
-14.41
-23.8
-32.84
-39.76
-43.03
-41.84
-36.43
-28.06
-18.63
-10.19
-4.39
-2.16
-3.59
-7.98
-14.17
-20.76
-26.56
-30.78
-33.22
-34.16
-34.11
-33.55
-32.64
-31.28
-29.25
-26.46
-23.06
-19.44
-16.03
-13.2
-11.12
-9.8
-9.2
-9.28
-9.98
-11.21
-12.81
-14.56
-16.35
-18.1
-19.81
-21.24
-21.87
-20.93
-17.63
-11.52
-2.79
7.69
18.56
28.41
36.13
41.23
43.8
44.45
43.96
43.06
42.26
41.82
41.72
41.77
41.69
41.19
40.01
38.07
35.42
32.38
29.38
26.81
24.93
23.7
22.84
21.98
20.8
19.15
17.11
14.83
12.41
9.58
5.73
0.07
-7.98
-18.4
-30.36
-42.52
-53.48
-62.31
-68.74
-73.03
-75.53
-76.41
-75.59
-72.96
-68.7
-63.42
-57.96
-53.11
-49.35
-46.68
-44.8
-43.28
-41.69
-39.79
-37.5
-34.87
-32.05
-29.1
-25.95
-22.46
-18.51
-14.25
-10.12
-6.76
-4.71
-4.13
-4.7
-5.69
-6.34
-6.14
-5.07
-3.59
-2.41
-2.13
-3.0
-4.71
-6.41
-6.94
-5.22
-0.57
6.96
16.66
27.45
38.28
48.46
57.83
66.48
74.42
81.43
87.02
90.69
92.27
91.96
90.29
87.96
85.79
84.74
85.71
89.07
93.96
98.06
97.96
90.49
74.18
50.13
21.78
-6.54
-31.35
-51.16
-66.41
-78.54
-88.78
-97.49
-104.41
-109.39
-112.88
-115.91
-119.41
-123.49
-127.1
-128.35
-125.35
-117.17
-104.3
-88.55
-72.36
-57.84
-46.17
-37.36
-30.63
-24.97
-19.71
-14.66
-10.08
-6.32
-3.54
-1.65
-0.3
0.93
2.36
4.11
6.11
8.19
10.1
11.63
12.61
12.93
12.54
11.41
9.63
7.3
4.59
1.7
-1.21
-4.12
-7.19
-10.71
-14.92
-19.78
-24.72
-28.7
-30.44
-28.91
-23.8
-15.72
-6.05
3.58
11.86
18.14
22.46
25.25
26.96
27.85
27.98
27.36
26.16
24.66
23.22
22.03
21.09
20.27
19.4
18.36
17.18
15.94
14.71
13.48
12.08
10.33
8.07
5.29
2.12
-1.2
-4.41
-7.35
-10.04
-12.65
-15.52
-18.98
-23.26
-28.25
-33.45
-37.91
-40.49
-40.12
-36.21
-28.9
-19.06
-8.06
2.69
12.1
19.61
25.18
29.09
31.71
33.31
34.03
33.98
33.31
32.28
31.2
30.29
29.61
29.02
28.32
27.34
26.14
24.94
23.96
23.29
22.75
21.94
20.42
17.91
14.43
10.25
5.83
1.62
-2.05
-5.04
-7.42
-9.52
-11.8
-14.81
-18.96
-24.32
-30.36
-36.05
-40.03
-41.03
-38.32
-31.95
-22.76
-12.09
-1.37
8.25
16.15
22.21
26.65
29.84
32.0
33.24
33.57
33.07
31.97
30.66
29.57
28.93
28.7
28.52
27.95
26.7
24.79
22.55
20.39
18.59
17.19
15.93
14.47
12.57
10.18
7.43
4.51
1.57
-1.34
-4.21
-7.07
-9.9
-12.7
-15.56
-18.67
-22.26
-26.48
-31.18
-35.89
-39.7
-41.54
-40.47
-35.99
-28.33
-18.37
-7.41
3.16
12.3
19.47
24.64
28.11
30.25
31.38
31.7
31.39
30.64
29.68
28.71
27.86
27.12
26.42
25.64
24.7
23.6
22.39
21.14
19.9
18.69
17.52
16.38
15.2
13.89
12.31
10.35
7.9
4.97
1.67
-1.83
-5.27
-8.38
-10.94
-12.88
-14.3
-15.47
-16.86
-18.97
-22.11
-26.29
-31.0
-35.25
-37.8
-37.49
-33.69
-26.59
-17.14
-6.8
2.98
11.17
17.36
21.66
24.47
26.18
27.07
27.29
26.97
26.26
25.31
24.26
23.2
22.2
21.32
20.6
20.07
19.66
19.27
18.75
17.9
16.59
14.77
12.51
10.0
7.46
5.09
2.95
0.95
-1.09
-3.32
-5.77
-8.33
-10.79
-12.99
-14.88
-16.57
-18.24
-20.1
-22.36
-25.15
-28.49
-32.18
-35.7
-38.24
-38.82
-36.6
-31.28
-23.29
-13.74
-4.12
4.23
10.5
14.58
16.9
18.08
18.65
18.9
18.92
18.73
18.39
17.99
17.56
17.08
16.42
15.55
14.53
13.59
12.96
12.76
12.9
13.09
12.99
12.35
11.17
9.63
7.95
6.29
4.63
2.87
0.92
-1.19
-3.39
-5.57
-7.68
-9.74
-11.79
-13.87
-16.04
-18.41
-21.14
-24.41
-28.21
-32.19
-35.64
-37.58
-37.13
-33.82
-27.81
-19.92
-11.42
-3.6
2.57
6.7
9.03
10.18
10.85
11.49
12.16
12.67
12.75
12.35
11.66
11.08
10.95
11.38
12.23
13.16
13.81
13.99
13.69
13.07
12.31
11.49
10.52
9.22
7.42
5.11
2.48
-0.17
-2.54
-4.45
-5.95
-7.21
-8.48
-9.92
-11.57
-13.41
-15.41
-17.59
-19.99
-22.54
-24.95
-26.7
-27.13
-25.65
-22.0
-16.34
-9.29
-1.77
5.23
10.92
14.86
17.01
17.64
17.16
15.99
14.42
12.67
10.96
9.5
8.52
8.15
8.35
8.89
9.45
9.76
9.73
9.42
8.97
8.42
7.67
6.47
4.64
2.16
-0.73
-3.66
-6.26
-8.34
-9.89
-11.11
-12.24
-13.51
-15.13
-17.23
-19.83
-22.73
-25.45
-27.25
-27.32
-25.04
-20.3
-13.56
-5.76
1.94
8.59
13.59
16.79
18.34
18.55
17.69
16.05
13.93
11.7
9.74
8.34
7.58
7.31
7.24
7.11
6.81
6.39
5.96
5.56
5.05
4.15
2.63
0.4
-2.35
-5.27
-7.97
-10.19
-11.91
-13.32
-14.77
-16.6
-19.13
-22.48
-26.48
-30.64
-34.13
-36.01
-35.48
-32.22
-26.54
-19.28
-11.56
-4.39
1.58
6.11
9.26
11.21
12.1
12.11
11.4
10.21
8.82
7.51
6.46
5.73
5.23
4.75
4.1
3.17
2.0
0.76
-0.36
-1.3
-2.21
-3.39
-5.18
-7.72
-10.88
-14.34
-17.67
-20.61
-23.12
-25.43
-27.91
-30.98
-34.96
-39.94
-45.63
-51.33
-56.02
-58.58
-58.16
-54.47
-47.89
-39.34
-30.04
-21.11
-13.33
-7.05
-2.21
1.43
4.15
6.16
7.56
8.43
8.84
8.92
8.81
8.67
8.56
8.43
8.2
7.82
7.36
6.99
6.9
7.12
7.48
7.59
7.09
5.74
3.62
1.06
-1.49
-3.69
-5.44
-6.94
-8.59
-10.86
-14.07
-18.29
-23.23
-28.21
-32.25
-34.31
-33.56
-29.69
-22.98
-14.27
-4.73
4.48
12.43
18.63
23.0
25.74
27.2
27.7
27.49
26.74
25.6
24.24
22.89
21.8
21.09
20.78
20.66
20.46
19.91
18.85
17.31
15.44
13.36
11.15
8.76
6.11
3.13
-0.16
-3.65
-7.34
-11.31
-15.74
-20.75
-26.13
-31.23
-34.98
-36.23
-34.2
-28.78
-20.66
-11.1
-1.49
7.0
13.77
18.74
22.18
24.47
25.84
26.38
26.04
24.85
22.97
20.75
18.64
17.0
16.02
15.64
15.53
15.33
14.69
13.42
11.52
9.13
6.46
3.7
0.96
-1.8
-4.71
-7.99
-11.85
-16.46
-21.78
-27.53
-33.09
-37.5
-39.7
-38.76
-34.25
-26.43
-16.23
-5.07
5.66
14.92
22.25
27.69
31.63
34.51
36.67
38.3
39.49
40.3
40.79
41.0
40.94
40.59
39.89
38.89
37.72
36.57
35.62
34.88
34.21
33.25
31.56
28.76
24.67
19.37
13.27
6.94
0.94
-4.41
-9.24
-14.11
-19.85
-27.11
-35.92
-45.47
-54.22
-60.38
-62.55
-60.27
-54.13
-45.52
-36.11
-27.31
-19.89
-14.03
-9.42
-5.65
-2.38
0.53
3.03
4.98
6.22
6.63
6.12
4.69
2.49
-0.12
-2.55
-4.06
-4.01
-2.09
1.41
5.62
9.29
11.26
10.75
7.7
2.65
-3.39
-9.28
-14.08
-17.26
-18.82
-19.18
-19.06
-19.21
-20.25
-22.51
-26.02
-30.5
-35.27
-39.36
-41.56
-40.71
-35.98
-27.21
-15.03
-0.7
14.21
28.25
40.4
50.18
57.58
62.87
66.46
68.75
70.1
70.77
70.93
70.66
69.96
68.81
67.16
65.0
62.32
59.23
55.92
52.65
49.66
47.09
44.89
42.76
40.33
37.24
33.35
28.71
23.57
18.23
12.98
8.04
3.56
-0.33
-3.6
-6.32
-8.74
-11.17
-13.95
-17.27
-21.11
-25.33
-29.68
-33.98
-38.02
-41.54
-44.0
-44.56
-42.23
-36.16
-26.09
-12.6
2.94
18.74
33.18
45.25
54.86
62.59
69.37
75.99
82.78
89.45
95.26
99.18
100.2
97.67
91.44
81.99
70.3
57.6
45.03
33.46
23.29
14.52
6.88
-0.04
-6.58
-12.92
-19.02
-24.67
-29.62
-33.61
-36.58
-38.61
-39.95
-40.94
-41.89
-43.01
-44.36
-45.85
-47.25
-48.33
-48.95
-49.15
-49.14
-49.28
-49.91
-51.2
-53.02
-54.83
-55.78
-54.87
-51.3
-44.75
-35.63
-24.95
-14.03
-4.1
4.09
10.33
14.87
18.14
20.49
22.07
22.95
23.2
22.97
22.48
22.04
21.9
22.24
23.12
24.47
26.07
27.57
28.56
28.64
27.46
24.83
20.68
15.13
8.37
0.71
-7.49
-15.84
-24.01
-31.73
-38.81
-45.14
-50.61
-55.17
-58.82
-61.69
-64.03
-66.17
-68.38
-70.67
-72.71
-73.85
-73.27
-70.33
-64.76
-56.82
-47.22
-36.94
-26.95
-18.02
-10.61
-4.94
-1.0
1.32
2.25
2.11
1.31
0.34
-0.38
-0.54
-0.02
1.12
2.64
4.26
5.69
6.64
6.94
6.46
5.19
3.2
0.65
-2.23
-5.26
-8.32
-11.4
-14.52
-17.8
-21.39
-25.46
-30.14
-35.38
-40.76
-45.46
-48.33
-48.26
-44.54
-37.24
-27.19
-15.83
-4.69
4.97
12.42
17.48
20.38
21.52
21.33
20.23
18.59
16.76
15.05
13.74
12.99
12.92
13.53
14.72
16.26
17.83
19.03
19.47
18.85
17.02
14.05
10.18
5.79
1.39
-2.46
-5.22
-6.54
-6.46
-5.56
-4.71
-4.83
-6.32
-8.79
-11.1
-11.84
-9.94
-5.14
1.9
9.93
17.61
23.97
28.56
31.37
32.59
32.45
31.14
28.9
26.1
23.23
20.78
19.07
18.11
17.62
17.2
16.54
15.55
14.41
13.31
12.36
11.43
10.25
8.58
6.32
3.54
0.42
-2.84
-6.08
-9.17
-11.99
-14.5
-16.78
-19.13
-21.98
-25.74
-30.48
-35.71
-40.32
-42.88
-42.09
-37.28
-28.72
-17.56
-5.43
6.1
15.96
23.73
29.5
33.54
36.05
37.05
36.55
34.73
32.07
29.22
26.89
25.52
25.13
25.35
25.66
25.61
25.02
24.06
23.01
22.07
21.17
20.01
18.19
15.47
11.95
7.99
4.1
0.69
-2.14
-4.56
-6.96
-9.76
-13.27
-17.63
-22.75
-28.33
-33.78
-38.28
-40.85
-40.59
-36.99
-30.16
-20.85
-10.3
0.17
9.45
16.9
22.29
25.68
27.27
27.29
26.08
24.1
21.89
19.95
18.62
17.87
17.38
16.65
15.24
12.94
9.85
6.29
2.59
-1.05
-4.62
-8.26
-12.12
-16.26
-20.65
-25.19
-29.77
-34.39
-39.13
-44.11
-49.45
-55.2
-61.28
-67.39
-72.88
-76.79
-77.9
-75.13
-67.76
-55.87
-40.31
-22.57
-4.46
12.34
26.55
37.48
44.99
49.44
51.5
51.95
51.51
50.76
50.07
49.67
49.66
50.04
50.68
51.31
51.59
51.13
49.72
47.32
44.07
40.14
35.61
30.43
24.55
18.07
11.32
4.91
-0.51
-4.49
-6.98
-8.46
-9.78
-11.76
-14.73
-18.28
-21.24
-22.12
-19.68
-13.54
-4.39
6.28
16.7
25.45
31.77
35.6
37.27
37.29
36.17
34.48
32.85
31.87
31.86
32.67
33.64
33.96
32.97
30.61
27.39
24.11
21.39
19.23
17.0
13.75
8.7
1.68
-6.73
-15.47
-23.5
-30.2
-35.55
-40.04
-44.36
-49.06
-54.34
-60.07
-65.81
-70.97
-74.84
-76.62
-75.61
-71.34
-63.86
-53.8
-42.24
-30.35
-19.06
-8.8
0.42
8.76
16.22
22.57
27.43
30.55
32.06
32.46
32.4
32.36
32.46
32.45
31.95
30.71
28.74
26.29
23.66
21.02
18.32
15.32
11.81
7.7
3.15
-1.49
-5.85
-9.64
-12.81
-15.52
-18.13
-21.09
-24.69
-28.92
-33.29
-36.9
-38.61
-37.49
-33.15
-25.95
-16.94
-7.43
1.39
8.85
14.76
19.28
22.62
24.79
25.67
25.16
23.39
20.82
18.13
15.99
14.79
14.54
14.89
15.38
15.63
15.52
15.16
14.74
14.32
13.78
12.82
11.14
8.61
5.33
1.61
-2.16
-5.67
-8.78
-11.52
-14.03
-16.49
-19.14
-22.23
-26.06
-30.75
-36.15
-41.64
-46.14
-48.38
-47.3
-42.5
-34.46
-24.45
-14.11
-4.95
2.1
6.78
9.37
10.31
10.04
8.84
6.92
4.62
2.33
0.5
-0.58
-0.8
-0.19
1.21
3.5
6.86
11.38
16.86
22.75
28.23
32.45
34.86
35.24
33.79
30.88
27.02
22.64
18.13
13.73
9.53
5.43
1.13
-3.69
-9.24
-15.33
-21.36
-26.33
-29.14
-28.94
-25.46
-19.09
-10.77
-1.71
6.91
14.23
19.7
23.13
24.51
24.04
22.02
18.92
15.24
11.44
7.73
4.04
0.12
-4.3
-9.22
-14.37
-19.32
-23.71
-27.51
-31.03
-34.79
-39.2
-44.34
-49.88
-55.31
-60.13
-64.03
-66.98
-69.03
-70.26
-70.69
-70.4
-69.54
-68.23
-66.41
-63.63
-59.08
-51.85
-41.4
-27.89
-12.34
3.74
18.81
31.79
42.3
50.5
56.81
61.66
65.27
67.73
69.14
69.62
69.36
68.58
67.41
65.94
64.2
62.2
60.07
57.92
55.84
53.85
51.79
49.37
46.26
42.24
37.28
31.59
25.53
19.48
13.62
7.97
2.3
-3.68
-10.19
-17.22
-24.38
-30.99
-36.13
-38.88
-38.59
-35.04
-28.61
-20.23
-11.15
-2.65
4.28
9.15
12.01
13.26
13.44
12.98
12.12
11.0
9.72
8.5
7.56
7.08
7.04
7.23
7.34
7.16
6.64
5.91
5.15
4.4
3.54
2.31
0.49
-1.95
-4.84
-7.82
-10.56
-12.89
-14.85
-16.7
-18.83
-21.58
-25.2
-29.65
-34.49
-38.87
-41.7
-41.89
-38.82
-32.57
-23.96
-14.26
-4.81
3.41
9.91
14.62
17.73
19.46
20.01
19.54
18.33
16.72
15.1
13.81
13.06
12.88
13.14
13.59
13.95
13.97
13.57
12.76
11.72
10.61
9.52
8.35
6.83
4.72
1.88
-1.53
-5.15
-8.55
-11.43
-13.8
-15.91
-18.07
-20.57
-23.52
-26.97
-30.98
-35.53
-40.42
-45.08
-48.55
-49.67
-47.55
-41.96
-33.46
-23.24
-12.71
-3.06
5.0
11.28
15.88
19.0
20.77
21.28
20.7
19.3
17.55
16.0
15.06
14.9
15.39
16.14
16.7
16.79
16.32
15.47
14.48
13.5
12.55
11.41
9.79
7.41
4.2
0.31
-3.88
-7.91
-11.38
-14.13
-16.28
-18.21
-20.42
-23.38
-27.38
-32.39
-37.98
-43.37
-47.45
-49.07
-47.33
-41.9
-33.16
-22.19
-10.42
0.68
10.0
16.96
21.47
23.82
24.46
23.84
22.42
20.63
18.92
17.64
17.06
17.18
17.79
18.52
18.99
18.96
18.45
17.59
16.58
15.49
14.18
12.35
9.69
6.06
1.6
-3.27
-8.01
-12.17
-15.58
-18.42
-21.16
-24.38
-28.57
-33.94
-40.23
-46.73
-52.27
-55.51
-55.26
-50.9
-42.63
-31.48
-19.0
-6.83
3.79
12.28
18.67
23.3
26.55
28.61
29.55
29.45
28.54
27.24
26.04
25.32
25.19
25.47
25.8
25.84
25.39
24.46
23.22
21.93
20.71
19.51
18.07
15.99
12.98
8.94
4.11
-1.0
-5.84
-10.02
-13.5
-16.56
-19.67
-23.34
-27.92
-33.54
-40.13
-47.25
-54.1
-59.47
-61.97
-60.39
-54.23
-43.91
-30.76
-16.62
-3.23
8.2
17.22
24.01
28.99
32.62
35.2
36.86
37.69
37.75
37.18
36.18
35.01
33.97
33.3
33.15
33.43
33.89
34.17
33.94
32.97
31.22
28.79
25.84
22.56
19.1
15.57
11.98
8.29
4.4
0.22
-4.23
-8.8
-13.24
-17.32
-20.93
-24.18
-27.41
-31.12
-35.78
-41.67
-48.67
-56.08
-62.69
-66.89
-67.15
-62.5
-52.92
-39.5
-24.11
-8.87
4.5
15.08
22.88
28.43
32.48
35.55
37.78
39.13
39.56
39.22
38.51
37.9
37.69
37.88
38.17
38.18
37.67
36.68
35.51
34.48
33.72
33.01
31.88
29.87
26.79
22.83
18.5
14.37
10.82
7.85
5.14
2.23
-1.29
-5.56
-10.4
-15.38
-20.0
-23.91
-27.03
-29.61
-32.2
-35.44
-39.92
-45.86
-52.9
-60.03
-65.72
-68.21
-66.14
-58.95
-47.22
-32.5
-16.88
-2.34
9.73
18.79
25.0
28.93
31.19
32.27
32.43
31.85
30.72
29.35
28.15
27.53
27.76
28.84
30.51
32.28
33.66
34.24
33.85
32.56
30.56
28.16
25.6
23.07
20.61
18.15
15.51
12.5
9.01
5.08
0.88
-3.38
-7.56
-11.64
-15.75
-20.13
-25.07
-30.84
-37.55
-44.99
-52.53
-59.0
-62.97
-63.12
-58.66
-49.71
-37.31
-23.14
-8.99
3.69
14.08
21.99
27.62
31.32
33.37
33.94
33.13
31.14
28.27
25.02
21.91
19.42
17.78
16.98
16.72
16.54
15.99
14.65
12.27
8.66
3.85
-1.98
-8.4
-14.76
-20.4
-24.81
-27.85
-29.8
-31.3
-33.16
-36.04
-40.28
-45.78
-52.08
-58.52
-64.54
-69.89
-74.76
-79.61
-84.83
-90.26
-94.92
-97.07
-94.75
-86.53
-72.13
-52.68
-30.41
-7.97
12.34
29.01
41.49
49.96
54.91
56.98
56.77
54.92
52.14
49.13
46.49
44.58
43.45
42.94
42.81
42.88
43.1
43.44
43.86
44.12
43.85
42.7
40.44
37.14
33.11
28.75
24.42
20.29
16.29
12.25
7.99
3.43
-1.33
-6.06
-10.51
-14.49
-17.98
-21.18
-24.54
-28.58
-33.75
-40.03
-46.77
-52.57
-55.53
-53.8
-46.2
-32.77
-14.85
5.19
24.68
41.41
54.09
62.51
67.21
69.03
68.85
67.4
65.38
63.52
62.47
62.66
64.11
66.51
69.45
72.72
76.32
80.3
84.37
87.83
89.64
88.8
84.77
77.59
67.71
55.69
41.93
26.65
10.15
-6.98
-23.74
-38.97
-51.67
-61.4
-68.39
-73.46
-77.72
-82.11
-87.1
-92.42
-97.11
-99.85
-99.35
-94.84
-86.31
-74.52
-60.72
-46.3
-32.42
-19.79
-8.8
0.36
7.46
12.2
14.26
13.53
10.21
4.9
-1.6
-8.5
-15.1
-21.01
-25.97
-29.69
-31.85
-32.14
-30.55
-27.52
-24.04
-21.29
-20.26
-21.35
-24.23
-28.03
-31.73
-34.54
-36.17
-36.93
-37.59
-39.14
-42.51
-48.09
-55.4
-63.01
-68.81
-70.65
-67.14
-58.12
-44.79
-29.18
-13.55
0.38
11.74
20.48
26.99
31.75
35.02
36.93
37.67
37.72
37.82
38.75
40.9
44.02
47.32
49.85
51.0
50.77
49.74
48.63
47.93
47.63
47.21
45.98
43.37
39.13
33.48
26.91
20.08
13.56
7.68
2.39
-2.67
-8.12
-14.61
-22.48
-31.54
-40.9
-49.06
-54.28
-55.08
-50.75
-41.62
-28.96
-14.55
-0.21
12.67
23.26
31.2
36.49
39.33
40.03
39.09
37.13
34.82
32.76
31.3
30.52
30.19
30.0
29.61
28.88
27.86
26.72
25.64
24.59
23.32
21.43
18.56
14.58
9.67
4.28
-1.07
-5.98
-10.37
-14.45
-18.72
-23.67
-29.59
-36.27
-42.88
-48.0
-50.04
-47.75
-40.68
-29.48
-15.69
-1.33
11.78
22.4
29.98
34.59
36.53
36.21
34.01
30.35
25.81
21.08
16.91
13.87
12.27
12.01
12.62
13.41
13.68
12.94
11.05
8.16
4.66
0.95
-2.72
-6.3
-9.88
-13.61
-17.63
-22.08
-27.11
-32.85
-39.24
-45.78
-51.44
-54.74
-54.26
-49.16
-39.58
-26.76
-12.58
1.06
12.73
21.8
28.24
32.35
34.36
34.39
32.54
29.1
24.68
20.1
16.23
13.68
12.58
12.56
12.96
12.99
12.11
10.14
7.27
3.94
0.63
-2.37
-5.07
-7.78
-10.95
-15.09
-20.48
-27.18
-34.8
-42.52
-49.1
-53.04
-53.03
-48.3
-38.99
-26.23
-11.8
2.37
14.7
24.31
31.07
35.35
37.69
38.59
38.34
37.09
34.98
32.2
29.05
25.92
23.14
20.91
19.18
17.77
16.33
14.57
12.29
9.47
6.19
2.59
-1.21
-5.16
-9.31
-13.76
-18.65
-24.18
-30.49
-37.57
-45.03
-52.04
-57.28
-59.25
-56.78
-49.44
-37.82
-23.4
-8.12
6.19
18.27
27.54
34.05
38.15
40.35
41.05
40.57
39.17
37.04
34.32
31.11
27.55
23.83
20.19
16.93
14.34
12.58
11.6
11.15
10.84
10.25
9.08
7.21
4.69
1.64
-1.81
-5.62
-9.82
-14.51
-19.79
-25.78
-32.54
-39.97
-47.63
-54.62
-59.6
-61.05
-57.75
-49.34
-36.52
-20.98
-4.85
9.92
22.06
31.17
37.5
41.64
44.14
45.39
45.62
45.01
43.74
42.04
40.12
38.17
36.28
34.46
32.58
30.51
28.13
25.5
22.8
20.27
18.03
15.97
13.72
10.83
6.94
1.99
-3.74
-9.73
-15.42
-20.38
-24.48
-27.92
-31.2
-35.05
-40.23
-47.31
-56.35
-66.63
-76.7
-84.66
-88.77
-88.01
-82.48
-73.31
-62.16
-50.62
-39.67
-29.63
-20.35
-11.59
-3.29
4.41
11.36
17.51
23.02
28.15
33.08
37.85
42.33
46.32
49.6
51.96
53.23
53.25
51.98
49.5
46.1
42.18
38.09
33.95
29.68
25.01
19.74
13.88
7.75
1.81
-3.5
-8.01
-11.84
-15.34
-18.91
-22.87
-27.39
-32.55
-38.29
-44.35
-50.15
-54.75
-56.96
-55.69
-50.35
-41.1
-28.91
-15.33
-2.01
9.66
18.88
25.41
29.48
31.49
31.9
31.09
29.43
27.29
25.08
23.21
22.03
21.7
22.11
22.95
23.8
24.28
24.22
23.65
22.83
21.98
21.21
20.37
19.15
17.18
14.26
10.49
6.25
2.08
-1.57
-4.49
-6.78
-8.83
-11.09
-13.97
-17.76
-22.54
-28.16
-34.18
-39.84
-44.1
-45.81
-44.08
-38.61
-29.85
-18.92
-7.27
3.75
13.22
20.73
26.19
29.68
31.29
31.11
29.4
26.66
23.6
20.96
19.31
18.86
19.45
20.65
21.93
22.89
23.31
23.22
22.78
22.16
21.41
20.45
19.05
16.99
14.14
10.57
6.55
2.45
-1.4
-4.79
-7.77
-10.52
-13.38
-16.69
-20.69
-25.45
-30.79
-36.14
-40.59
-43.03
-42.41
-38.13
-30.28
-19.73
-7.89
3.65
13.58
21.07
25.81
27.91
27.67
25.56
22.13
18.04
14.01
10.68
8.42
7.27
6.97
7.13
7.35
7.46
7.42
7.27
6.96
6.3
4.98
2.8
-0.27
-3.98
-7.92
-11.66
-14.9
-17.55
-19.75
-21.86
-24.33
-27.64
-32.11
-37.66
-43.66
-48.9
-51.87
-51.21
-46.23
-37.17
-25.22
-12.13
0.34
10.83
18.67
23.78
26.45
27.04
25.84
23.16
19.42
15.21
11.26
8.22
6.44
5.92
6.27
7.01
7.74
8.27
8.61
8.79
8.73
8.24
7.03
4.94
2.0
-1.46
-4.97
-8.05
-10.45
-12.26
-13.93
-16.12
-19.49
-24.44
-30.88
-38.13
-45.0
-50.01
-51.78
-49.39
-42.65
-32.25
-19.56
-6.32
5.8
15.56
22.37
26.26
27.69
27.28
25.6
23.2
20.56
18.14
16.4
15.58
15.65
16.24
16.88
17.12
16.83
16.15
15.39
14.75
14.17
13.31
11.66
8.87
4.9
0.11
-4.89
-9.45
-13.18
-16.09
-18.62
-21.44
-25.26
-30.49
-37.02
-44.11
-50.5
-54.62
-55.01
-50.79
-41.95
-29.45
-14.9
-0.19
13.05
23.77
31.57
36.57
39.15
39.76
38.86
36.88
34.32
31.67
29.4
27.77
26.82
26.33
25.96
25.42
24.6
23.53
22.28
20.79
18.85
16.14
12.48
7.96
3.0
-1.89
-6.27
-10.02
-13.27
-16.35
-19.64
-23.51
-28.23
-33.89
-40.15
-46.07
-50.16
-50.76
-46.64
-37.63
-24.81
-10.24
3.76
15.35
23.66
28.79
31.38
32.19
31.67
30.01
27.27
23.66
19.64
15.84
12.84
10.94
10.08
9.85
9.74
9.27
8.19
6.44
4.16
1.5
-1.44
-4.62
-8.05
-11.74
-15.67
-19.84
-24.28
-29.11
-34.45
-40.25
-46.05
-50.86
-53.33
-52.13
-46.47
-36.53
-23.53
-9.31
4.2
15.63
24.37
30.48
34.35
36.26
36.36
34.69
31.43
27.1
22.46
18.34
15.37
13.77
13.34
13.52
13.62
13.03
11.44
8.91
5.82
2.65
-0.27
-2.94
-5.69
-8.97
-13.2
-18.63
-25.23
-32.68
-40.33
-47.1
-51.65
-52.54
-48.75
-40.13
-27.57
-12.84
1.93
15.0
25.39
32.98
38.2
41.52
43.23
43.36
41.94
39.24
35.84
32.52
29.93
28.35
27.6
27.16
26.41
24.95
22.72
19.94
17.02
14.22
11.56
8.73
5.15
0.22
-6.49
-15.03
-25.06
-35.84
-46.35
-55.29
-61.32
-63.23
-60.31
-52.57
-40.92
-26.97
-12.61
0.45
11.07
18.81
23.83
26.62
27.71
27.53
26.33
24.33
21.73
18.88
16.23
14.17
12.89
12.29
11.96
11.34
9.96
7.57
4.22
0.15
-4.33
-9.0
-13.72
-18.45
-23.16
-27.78
-32.28
-36.75
-41.35
-46.17
-50.95
-54.85
-56.54
-54.5
-47.69
-36.03
-20.53
-3.06
14.34
29.99
42.94
52.94
60.21
65.22
68.48
70.47
71.67
72.41
72.9
73.08
72.75
71.64
69.58
66.62
63.1
59.54
56.43
54.06
52.35
50.85
48.96
46.09
41.91
36.38
29.63
21.86
13.24
3.96
-5.7
-15.27
-24.23
-32.16
-38.97
-44.98
-50.89
-57.56
-65.63
-75.33
-86.14
-96.79
-105.38
-109.82
-108.41
-100.36
-86.18
-67.51
-46.79
-26.51
-8.63
5.7
16.18
23.11
27.07
28.64
28.39
26.84
24.59
22.25
20.48
19.79
20.47
22.5
25.58
29.29
33.21
37.02
40.58
43.77
46.44
48.25
48.83
47.85
45.23
41.19
36.21
30.79
25.19
19.34
12.82
5.14
-4.06
-14.73
-26.37
-38.15
-49.15
-58.66
-66.33
-72.19
-76.52
-79.79
-82.54
-85.38
-88.82
-93.08
-97.78
-101.72
-103.01
-99.5
-89.52
-72.63
-49.98
-24.09
1.82
24.82
42.94
55.51
63.0
66.54
67.37
66.52
64.7
62.31
59.58
56.67
53.71
50.84
48.19
45.83
43.77
41.92
40.16
38.34
36.34
34.11
31.66
29.01
26.1
22.78
18.88
14.25
8.89
2.97
-3.17
-9.2
-14.83
-19.93
-24.5
-28.69
-32.67
-36.63
-40.78
-45.4
-50.79
-57.08
-63.99
-70.55
-75.23
-76.19
-72.01
-62.22
-47.67
-30.26
-12.41
3.74
16.9
26.72
33.51
37.81
40.05
40.44
39.16
36.59
33.41
30.46
28.45
27.73
28.14
29.13
30.02
30.28
29.7
28.39
26.69
24.95
23.35
21.76
19.83
17.11
13.23
8.13
2.13
-4.17
-10.14
-15.29
-19.51
-23.04
-26.35
-30.03
-34.59
-40.37
-47.42
-55.27
-62.91
-68.85
-71.43
-69.34
-62.09
-50.24
-35.25
-19.03
-3.4
10.34
21.6
30.33
36.73
41.04
43.42
44.04
43.15
41.23
38.88
36.72
35.14
34.25
33.81
33.42
32.75
31.66
30.19
28.53
26.85
25.2
23.46
21.37
18.62
14.97
10.37
5.0
-0.73
-6.29
-11.3
-15.59
-19.33
-22.92
-26.86
-31.56
-37.29
-44.06
-51.48
-58.68
-64.34
-66.92
-65.08
-58.19
-46.66
-31.85
-15.76
-0.34
12.93
23.37
30.94
36.0
38.97
40.25
40.15
39.04
37.33
35.5
33.91
32.79
32.15
31.87
31.72
31.5
31.08
30.37
29.32
27.91
26.12
23.99
21.49
18.6
15.26
11.42
7.12
2.46
-2.32
-6.92
-11.14
-14.86
-18.19
-21.35
-24.66
-28.41
-32.87
-38.15
-44.21
-50.65
-56.6
-60.79
-61.81
-58.53
-50.62
-38.76
-24.47
-9.68
3.85
14.95
23.19
28.62
31.57
32.4
31.44
29.11
25.97
22.74
20.07
18.39
17.74
17.82
18.13
18.27
18.04
17.52
16.88
16.22
15.42
14.2
12.21
9.26
5.4
0.93
-3.72
-8.16
-12.16
-15.72
-19.07
-22.6
-26.74
-31.76
-37.62
-43.78
-49.15
-52.34
-52.01
-47.37
-38.54
-26.56
-13.13
-0.06
11.26
20.13
26.44
30.46
32.51
32.79
31.46
28.78
25.22
21.39
17.92
15.22
13.43
12.41
11.86
11.53
11.24
10.88
10.32
9.36
7.76
5.29
1.89
-2.31
-6.96
-11.62
-15.93
-19.7
-23.1
-26.56
-30.7
-35.96
-42.33
-49.03
-54.65
-57.46
-56.03
-49.81
-39.36
-26.2
-12.28
0.65
11.47
19.76
25.63
29.38
31.31
31.63
30.61
28.64
26.23
23.87
21.89
20.36
19.18
18.16
17.19
16.27
15.46
14.76
14.04
13.05
11.51
9.21
6.11
2.35
-1.84
-6.15
-10.33
-14.28
-18.08
-22.04
-26.57
-32.04
-38.48
-45.41
-51.74
-55.97
-56.6
-52.69
-44.23
-32.2
-18.28
-4.28
8.3
18.61
26.35
31.61
34.62
35.69
35.19
33.6
31.46
29.24
27.25
25.6
24.28
23.15
22.1
21.03
19.9
18.74
17.65
16.73
15.99
15.23
14.03
11.92
8.57
4.07
-1.14
-6.38
-11.05
-14.86
-17.92
-20.72
-23.91
-28.08
-33.53
-40.11
-47.03
-52.97
-56.28
-55.54
-50.04
-40.11
-27.06
-12.79
0.88
12.63
21.9
28.7
33.31
36.0
36.93
36.25
34.25
31.41
28.4
25.87
24.25
23.64
23.79
24.22
24.5
24.33
23.71
22.76
21.68
20.52
19.16
17.39
14.98
11.82
7.98
3.71
-0.65
-4.73
-8.32
-11.38
-14.11
-16.84
-19.94
-23.74
-28.41
-33.88
-39.73
-45.13
-48.92
-49.83
-46.89
-39.83
-29.28
-16.7
-3.92
7.4
16.18
22.12
25.49
26.86
26.74
25.5
23.38
20.67
17.77
15.15
13.23
12.22
11.98
12.19
12.42
12.36
11.89
11.06
9.99
8.66
6.95
4.72
1.84
-1.61
-5.43
-9.37
-13.25
-17.04
-20.94
-25.26
-30.24
-35.83
-41.46
-46.07
-48.28
-46.89
-41.35
-32.03
-20.19
-7.56
4.18
13.88
21.09
25.92
28.71
29.78
29.33
27.55
24.76
21.45
18.25
15.69
14.08
13.38
13.29
13.38
13.29
12.85
12.06
11.01
9.72
8.05
5.76
2.64
-1.32
-5.85
-10.47
-14.71
-18.29
-21.32
-24.27
-27.72
-32.22
-37.93
-44.46
-50.84
-55.69
-57.51
-55.23
-48.53
-38.09
-25.32
-11.97
0.42
10.86
18.97
24.83
28.67
30.71
31.22
30.48
28.92
27.03
25.3
24.04
23.39
23.25
23.37
23.43
23.19
22.54
21.56
20.43
19.32
18.22
16.9
15.02
12.25
8.47
3.93
-0.91
-5.5
-9.43
-12.64
-15.35
-18.05
-21.31
-25.61
-31.18
-37.77
-44.57
-50.27
-53.29
-52.29
-46.67
-36.82
-24.12
-10.46
2.35
13.04
21.17
26.93
30.81
33.25
34.46
34.47
33.34
31.37
29.11
27.22
26.22
26.23
26.98
27.87
28.31
27.96
26.83
25.24
23.61
22.22
21.09
19.99
18.53
16.39
13.39
9.64
5.43
1.15
-2.9
-6.6
-9.98
-13.21
-16.47
-19.91
-23.68
-27.96
-32.85
-38.25
-43.68
-48.13
-50.33
-49.04
-43.64
-34.38
-22.43
-9.5
2.69
12.82
20.28
25.01
27.34
27.73
26.64
24.45
21.62
18.64
16.06
14.32
13.64
13.92
14.77
15.68
16.19
16.13
15.57
14.73
13.76
12.59
10.97
8.58
5.28
1.25
-3.13
-7.34
-11.07
-14.26
-17.2
-20.41
-24.39
-29.46
-35.5
-41.86
-47.41
-50.79
-50.78
-46.74
-38.86
-28.15
-16.14
-4.44
5.74
13.78
19.56
23.34
25.38
25.89
25.07
23.18
20.71
18.25
16.36
15.32
15.02
15.11
15.16
14.91
14.36
13.72
13.2
12.85
12.44
11.57
9.86
7.1
3.37
-1.03
-5.65
-10.13
-14.22
-17.89
-21.27
-24.6
-28.21
-32.44
-37.56
-43.63
-50.27
-56.52
-60.96
-62.05
-58.73
-50.81
-39.23
-25.75
-12.34
-0.53
8.93
16.06
21.26
24.94
27.28
28.22
27.78
26.21
24.1
22.15
20.92
20.63
21.05
21.71
22.11
22.02
21.47
20.75
20.15
19.75
19.37
18.57
16.92
14.1
10.14
5.36
0.28
-4.57
-8.86
-12.51
-15.73
-18.87
-22.33
-26.47
-31.51
-37.45
-43.97
-50.31
-55.26
-57.39
-55.44
-48.86
-38.1
-24.59
-10.31
2.87
13.71
21.83
27.53
31.43
34.03
35.58
36.1
35.59
34.25
32.47
30.78
29.63
29.23
29.43
29.83
29.96
29.49
28.43
27.06
25.72
24.64
23.68
22.46
20.46
17.32
13.03
7.97
2.76
-1.98
-5.88
-8.92
-11.44
-13.94
-16.95
-20.87
-25.92
-32.04
-38.87
-45.67
-51.3
-54.41
-53.76
-48.61
-39.12
-26.38
-12.12
1.75
13.68
22.82
29.01
32.64
34.24
34.31
33.18
31.14
28.5
25.74
23.36
21.77
21.03
20.9
20.9
20.6
19.84
18.75
17.62
16.64
15.65
14.23
11.85
8.26
3.68
-1.32
-6.0
-9.87
-12.89
-15.44
-18.17
-21.68
-26.32
-31.91
-37.82
-42.96
-46.05
-45.93
-41.88
-33.95
-22.98
-10.4
2.16
13.32
22.22
28.6
32.55
34.35
34.31
32.72
29.96
26.53
23.06
20.11
18.05
16.95
16.61
16.7
16.87
16.89
16.58
15.78
14.28
11.89
8.48
4.15
-0.79
-5.87
-10.64
-14.83
-18.43
-21.76
-25.31
-29.59
-34.95
-41.32
-48.1
-54.07
-57.66
-57.41
-52.44
-42.9
-29.95
-15.42
-1.2
11.23
21.13
28.32
32.99
35.42
35.86
34.65
32.32
29.56
27.09
25.39
24.59
24.47
24.6
24.57
24.19
23.47
22.54
21.51
20.35
18.85
16.66
13.48
9.22
4.09
-1.43
-6.73
-11.38
-15.23
-18.53
-21.75
-25.46
-30.12
-35.89
-42.5
-49.21
-54.75
-57.64
-56.55
-50.8
-40.67
-27.4
-12.78
1.39
13.78
23.74
31.22
36.49
39.88
41.62
41.91
40.97
39.12
36.81
34.55
32.8
31.83
31.63
31.9
32.15
31.92
30.98
29.36
27.37
25.32
23.4
21.49
19.24
16.27
12.32
7.42
1.95
-3.54
-8.55
-12.81
-16.41
-19.73
-23.28
-27.51
-32.64
-38.56
-44.84
-50.66
-54.94
-56.48
-54.3
-47.92
-37.69
-24.73
-10.68
2.74
14.25
23.22
29.61
33.75
36.02
36.72
36.09
34.39
32.04
29.56
27.48
26.15
25.66
25.8
26.2
26.48
26.37
25.85
25.03
24.1
23.11
21.94
20.29
17.83
14.38
10.02
5.12
0.17
-4.35
-8.19
-11.37
-14.16
-16.96
-20.14
-23.97
-28.53
-33.69
-39.15
-44.33
-48.39
-50.35
-49.26
-44.57
-36.33
-25.38
-13.1
-1.04
9.45
17.58
23.09
26.13
27.02
26.11
23.81
20.64
17.25
14.32
12.36
11.59
11.82
12.61
13.44
13.9
13.86
13.37
12.59
11.6
10.3
8.44
5.76
2.11
-2.39
-7.41
-12.45
-17.03
-20.89
-24.06
-26.92
-30.02
-33.89
-38.83
-44.66
-50.59
-55.39
-57.54
-55.72
-49.19
-38.09
-23.5
-7.14
9.08
23.62
35.65
45.05
52.18
57.47
61.18
63.3
63.8
62.84
60.86
58.48
56.22
54.32
52.67
50.97
48.89
46.21
42.92
39.16
35.19
31.3
27.77
24.68
21.83
18.78
14.98
10.13
4.39
-1.58
-6.91
-10.98
-13.8
-16.06
-18.84
-23.21
-29.77
-38.54
-48.94
-59.96
-70.22
-78.15
-82.22
-81.49
-76.0
-67.0
-56.65
-47.25
-40.42
-36.53
-34.78
-33.81
-32.46
-30.32
-27.67
-25.12
-23.05
-21.45
-19.94
-18.17
-16.19
-14.46
-13.61
-13.95
-15.21
-16.55
-16.99
-16.07
-14.1
-12.0
-10.66
-10.18
-9.63
-7.47
-2.41
5.72
15.68
25.38
32.76
36.74
37.47
35.95
33.32
30.24
26.72
22.33
16.6
9.39
1.0
-7.88
-16.29
-23.23
-27.83
-29.49
-28.02
-23.71
-17.24
-9.59
-1.77
5.23
10.68
14.21
15.79
15.85
15.03
14.05
13.41
13.32
13.67
14.21
14.76
15.28
15.87
16.66
17.65
18.7
19.54
19.88
19.55
18.5
16.8
14.51
11.67
8.26
4.24
-0.28
-5.05
-9.73
-14.08
-18.09
-22.09
-26.58
-31.93
-38.07
-44.35
-49.6
-52.45
-51.8
-47.19
-38.98
-28.27
-16.57
-5.32
4.44
12.31
18.46
23.36
27.51
31.18
34.38
37.03
39.05
40.5
41.5
42.17
42.51
42.44
41.81
40.54
38.62
36.1
33.04
29.45
25.29
20.49
15.07
9.14
2.92
-3.31
-9.35
-15.14
-20.75
-26.39
-32.28
-38.59
-45.29
-52.01
-57.99
-62.12
-63.15
-60.14
-52.88
-42.15
-29.56
-17.11
-6.52
1.3
6.41
9.55
11.62
13.22
14.46
15.15
15.06
14.22
12.99
11.83
11.11
10.89
10.98
11.07
10.96
10.64
10.32
10.18
10.26
10.32
9.97
8.78
6.49
3.18
-0.83
-5.02
-8.95
-12.38
-15.31
-17.91
-20.42
-23.02
-25.94
-29.36
-33.43
-38.01
-42.58
-46.1
-47.3
-45.11
-39.13
-29.88
-18.69
-7.23
2.96
10.95
16.47
19.84
21.6
22.27
22.24
21.73
20.97
20.21
19.69
19.6
19.91
20.44
20.9
21.06
20.91
20.57
20.25
20.07
19.87
19.35
18.2
16.25
13.56
10.39
6.96
3.44
-0.17
-3.92
-7.81
-11.71
-15.38
-18.63
-21.34
-23.61
-25.63
-27.68
-30.04
-32.95
-36.5
-40.56
-44.64
-47.9
-49.23
-47.63
-42.57
-34.3
-23.77
-12.42
-1.61
7.66
15.0
20.5
24.49
27.31
29.16
30.14
30.32
29.87
29.05
28.2
27.64
27.55
27.94
28.6
29.24
29.59
29.49
28.95
28.14
27.22
26.24
25.06
23.43
21.09
18.03
14.42
10.59
6.87
3.44
0.29
-2.69
-5.63
-8.54
-11.41
-14.26
-17.21
-20.53
-24.48
-29.06
-33.82
-37.84
-39.94
-39.1
-34.83
-27.42
-17.91
-7.67
1.95
10.03
16.15
20.26
22.57
23.29
22.72
21.19
19.14
17.05
15.34
14.26
13.84
13.9
14.13
14.24
14.03
13.49
12.66
11.65
10.47
9.05
7.23
4.92
2.15
-0.9
-3.98
-6.92
-9.66
-12.3
-15.1
-18.36
-22.31
-26.98
-32.05
-36.8
-40.2
-41.17
-38.92
-33.31
-24.92
-14.97
-4.89
4.1
11.23
16.34
19.59
21.32
21.79
21.15
19.52
17.07
14.09
10.95
8.07
5.78
4.29
3.68
3.9
4.75
5.93
7.08
7.85
7.96
7.27
5.75
3.53
0.8
-2.22
-5.37
-8.6
-12.0
-15.73
-19.93
-24.46
-28.86
-32.31
-33.87
-32.81
-28.84
-22.28
-13.9
-4.75
4.14
12.0
18.32
22.93
25.91
27.47
27.89
27.41
26.2
24.37
22.05
19.44
16.8
14.45
12.66
11.49
10.83
10.41
9.9
9.05
7.72
5.93
3.82
1.52
-0.84
-3.16
-5.43
-7.73
-10.18
-13.01
-16.49
-20.79
-25.79
-31.0
-35.55
-38.33
-38.31
-34.9
-28.15
-18.77
-8.01
2.76
12.29
19.76
24.92
27.96
29.41
29.84
29.74
29.39
28.89
28.24
27.47
26.58
25.65
24.66
23.58
22.36
20.97
19.44
17.84
16.24
14.6
12.78
10.55
7.74
4.3
0.4
-3.65
-7.5
-10.91
-13.88
-16.62
-19.57
-23.18
-27.75
-33.18
-38.85
-43.68
-46.36
-45.81
-41.55
-33.99
-24.29
-13.98
-4.49
3.29
9.13
13.24
15.97
17.61
18.26
17.95
16.87
15.38
13.99
13.18
13.2
13.99
15.22
16.46
17.31
17.54
17.16
16.34
15.29
14.23
13.21
12.16
10.88
9.14
6.81
3.91
0.68
-2.55
-5.51
-8.1
-10.42
-12.74
-15.34
-18.44
-22.16
-26.52
-31.4
-36.44
-40.96
-44.02
-44.61
-42.01
-36.1
-27.53
-17.57
-7.67
0.94
7.63
12.33
15.43
17.37
18.5
18.96
18.78
18.06
17.01
15.97
15.3
15.21
15.69
16.53
17.41
18.04
18.28
18.15
17.76
17.25
16.7
16.06
15.19
13.91
12.12
9.87
7.28
4.6
2.03
-0.31
-2.47
-4.58
-6.77
-9.11
-11.58
-14.17
-16.96
-20.13
-23.84
-28.0
-32.11
-35.27
-36.35
-34.49
-29.43
-21.74
-12.66
-3.63
4.17
10.16
14.4
17.24
19.08
20.07
20.16
19.31
17.68
15.72
14.05
13.18
13.31
14.24
15.52
16.61
17.16
17.05
16.35
15.27
14.02
12.72
11.43
10.14
8.75
7.15
5.25
3.01
0.53
-2.02
-4.46
-6.64
-8.55
-10.26
-11.95
-13.79
-16.0
-18.75
-22.15
-26.07
-30.08
-33.39
-35.04
-34.16
-30.36
-23.9
-15.63
-6.75
1.54
8.45
13.61
17.04
18.94
19.53
19.01
17.64
15.74
13.76
12.13
11.19
11.04
11.57
12.54
13.62
14.54
15.12
15.3
15.08
14.53
13.69
12.54
11.03
9.11
6.8
4.2
1.52
-1.03
-3.29
-5.22
-6.92
-8.51
-10.17
-11.99
-14.07
-16.52
-19.4
-22.7
-26.17
-29.22
-31.06
-30.85
-28.1
-22.9
-15.93
-8.26
-0.95
5.22
9.97
13.35
15.52
16.57
16.47
15.19
12.96
10.24
7.71
5.98
5.42
5.98
7.3
8.87
10.18
10.95
11.1
10.73
10.08
9.32
8.54
7.67
6.52
4.92
2.84
0.46
-1.89
-3.9
-5.43
-6.61
-7.76
-9.22
-11.22
-13.8
-16.89
-20.36
-24.0
-27.5
-30.31
-31.68
-30.87
-27.45
-21.53
-13.86
-5.57
2.15
8.41
12.84
15.51
16.7
16.76
15.88
14.23
12.04
9.65
7.56
6.2
5.84
6.45
7.7
9.13
10.33
11.09
11.41
11.47
11.45
11.38
11.09
10.31
8.76
6.41
3.45
0.29
-2.62
-4.96
-6.66
-7.92
-9.07
-10.49
-12.44
-15.08
-18.37
-22.07
-25.69
-28.5
-29.73
-28.74
-25.28
-19.66
-12.65
-5.27
1.54
7.12
11.18
13.71
14.81
14.62
13.35
11.32
9.01
6.97
5.7
5.47
6.23
7.67
9.29
10.66
11.53
11.92
11.99
11.93
11.86
11.64
11.07
9.87
7.92
5.24
2.03
-1.44
-4.86
-7.88
-10.23
-11.76
-12.57
-12.98
-13.55
-14.76
-16.8
-19.34
-21.63
-22.69
-21.7
-18.35
-12.87
-5.99
1.34
8.24
14.08
18.5
21.39
22.74
22.6
21.13
18.65
15.72
13.03
11.27
10.9
11.97
14.16
16.81
19.2
20.79
21.3
20.76
19.34
17.28
14.76
11.9
8.81
5.65
2.65
0.07
-1.89
-3.17
-3.95
-4.58
-5.44
-6.85
-8.92
-11.52
-14.27
-16.66
-18.11
-18.11
-16.31
-12.64
-7.35
-0.99
5.69
11.84
16.78
20.05
21.54
21.41
20.02
17.81
15.21
12.66
10.48
9.0
8.42
8.83
10.2
12.32
14.88
17.48
19.74
21.41
22.36
22.71
22.77
22.9
23.45
24.62
26.4
28.63
30.98
33.02
34.24
34.1
32.2
28.4
22.94
16.44
9.73
3.67
-1.18
-4.63
-6.89
-8.39
-9.64
-10.96
-12.51
-14.27
-16.14
-18.11
-20.31
-23.0
-26.46
-30.82
-35.95
-41.43
-46.77
-51.47
-55.18
-57.64
-58.51
-57.26
-53.16
-45.64
-34.75
-21.41
-7.34
5.43
15.19
21.09
23.08
21.64
17.24
10.11
0.47
-11.01
-22.95
-33.28
-39.94
-41.56
-38.08
-30.65
-21.14
-11.46
-2.97
3.66
8.3
11.06
12.07
11.48
9.52
6.6
3.29
0.15
-2.4
-4.17
-5.23
-5.81
-6.2
-6.69
-7.52
-8.81
-10.59
-12.72
-14.99
-17.14
-18.96
-20.33
-21.26
-21.88
-22.39
-22.97
-23.81
-25.08
-26.95
-29.44
-32.31
-34.91
-36.2
-35.1
-30.84
-23.35
-13.41
-2.36
8.23
17.11
23.57
27.51
29.24
29.27
28.17
26.5
24.72
23.2
22.08
21.33
20.7
19.88
18.56
16.59
14.02
11.07
8.1
5.43
3.21
1.29
-0.73
-3.3
-6.71
-10.94
-15.6
-20.09
-23.88
-26.75
-28.93
-31.03
-33.85
-38.0
-43.49
-49.52
-54.4
-56.02
-52.41
-42.64
-27.2
-8.15
11.55
28.88
41.7
49.21
51.91
51.19
48.67
45.76
43.39
42.05
41.8
42.42
43.44
44.23
44.19
42.97
40.62
37.54
34.32
31.45
29.11
27.04
24.62
21.19
16.22
9.57
1.54
-7.22
-15.87
-23.65
-30.07
-35.07
-38.9
-41.94
-44.4
-46.18
-46.81
-45.73
-42.61
-37.49
-30.88
-23.53
-16.21
-9.52
-3.82
0.68
3.89
5.8
6.54
6.38
5.71
4.89
4.21
3.78
3.54
3.4
3.26
3.09
2.92
2.81
2.75
2.66
2.38
1.71
0.56
-1.01
-2.82
-4.65
-6.35
-7.89
-9.36
-10.95
-12.85
-15.18
-17.96
-21.03
-23.98
-26.17
-26.88
-25.58
-22.2
-17.21
-11.5
-6.04
-1.49
1.97
4.5
6.36
7.59
7.94
7.1
4.94
1.76
-1.76
-4.76
-6.6
-7.04
-6.31
-4.86
-3.18
-1.47
0.24
2.06
4.02
5.94
7.48
8.25
7.99
6.62
4.29
1.25
-2.24
-5.92
-9.66
-13.4
-17.16
-21.11
-25.48
-30.5
-36.29
-42.71
-49.26
-55.1
-59.18
-60.52
-58.52
-53.1
-44.8
-34.52
-23.11
-11.06
1.7
15.61
31.14
48.24
66.2
83.7
99.3
111.91
121.11
127.16
130.62
132.04
131.71
129.59
125.52
119.32
110.96
100.63
88.64
75.52
61.94
48.68
36.51
26.03
17.52
10.92
5.85
1.78
-1.87
-5.61
-9.79
-14.58
-19.91
-25.5
-30.93
-35.73
-39.5
-42.0
-43.26
-43.57
-43.41
-43.28
-43.63
-44.78
-46.81
-49.52
-52.37
-54.52
-55.03
-53.08
-48.27
-40.72
-31.01
-19.96
-8.38
3.13
14.15
24.4
33.63
41.61
48.12
53.0
56.15
57.61
57.54
56.22
54.06
51.51
48.95
46.6
44.47
42.47
40.43
38.27
35.97
33.56
31.04
28.37
25.52
22.49
19.39
16.33
13.38
10.39
7.08
3.09
-1.77
-7.43
-13.48
-19.43
-24.91
-29.87
-34.62
-39.62
-45.19
-51.22
-57.07
-61.68
-63.98
-63.22
-59.36
-53.09
-45.62
-38.27
-32.04
-27.39
-24.21
-22.1
-20.67
-19.66
-19.02
-18.73
-18.65
-18.56
-18.22
-17.55
-16.56
-15.29
-13.61
-11.23
-7.83
-3.38
1.64
6.32
9.63
10.82
9.79
7.02
3.36
-0.36
-3.63
-6.32
-8.53
-10.49
-12.4
-14.45
-16.72
-19.23
-21.93
-24.68
-27.4
-30.02
-32.45
-34.47
-35.71
-35.64
-33.84
-30.2
-25.07
-19.18
-13.41
-8.5
-4.83
-2.39
-0.85
0.27
1.42
2.87
4.72
6.83
8.89
10.59
11.66
11.94
11.38
10.08
8.44
7.26
7.58
10.35
15.95
23.81
32.39
39.65
43.84
44.14
40.85
35.11
28.33
21.65
15.72
10.82
7.02
4.32
2.61
1.57
0.67
-0.69
-2.95
-6.32
-10.59
-15.22
-19.43
-22.36
-23.27
-21.69
-17.64
-11.62
-4.4
3.4
11.6
20.6
31.12
43.58
57.72
72.37
85.75
96.07
102.16
103.84
101.82
97.25
91.22
84.44
77.08
69.06
60.34
51.13
41.94
33.37
25.83
19.31
13.42
7.58
1.33
-5.38
-12.31
-18.97
-24.98
-30.32
-35.28
-40.39
-46.08
-52.52
-59.53
-66.66
-73.44
-79.42
-84.26
-87.74
-89.74
-90.41
-90.09
-89.36
-88.8
-88.65
-88.57
-87.73
-85.0
-79.49
-70.9
-59.7
-46.93
-33.88
-21.66
-11.02
-2.28
4.47
9.27
12.21
13.47
13.31
12.19
10.66
9.3
8.55
8.6
9.39
10.6
11.87
12.85
13.35
13.43
13.26
13.04
12.88
12.69
12.25
11.34
9.81
7.68
5.13
2.43
-0.16
-2.4
-4.13
-5.24
-5.73
-5.67
-5.24
-4.67
-4.17
-3.77
-3.28
-2.26
-0.09
3.84
9.95
18.34
28.71
40.41
52.61
64.43
75.07
83.91
90.4
94.17
94.95
92.7
87.59
80.11
70.87
60.55
49.73
38.82
28.07
17.64
7.7
-1.57
-10.0
-17.42
-23.78
-29.09
-33.54
-37.5
-41.51
-46.13
-51.68
-58.04
-64.6
-70.41
-74.49
-76.27
-75.81
-73.77
-71.25
-69.34
-68.78
-69.73
-71.63
-73.43
-73.84
-71.74
-66.53
-58.27
-47.66
-35.81
-23.9
-12.98
-3.7
3.56
8.77
12.07
13.73
14.13
13.7
12.92
12.24
11.96
12.19
12.83
13.62
14.25
14.49
14.25
13.55
12.53
11.3
9.92
8.36
6.52
4.25
1.46
-1.86
-5.6
-9.53
-13.37
-16.89
-19.96
-22.6
-24.99
-27.38
-30.12
-33.6
-38.12
-43.75
-50.08
-56.17
-60.67
-62.2
-59.77
-53.19
-43.16
-31.03
-18.45
-6.81
2.98
10.63
16.22
20.06
22.44
23.59
23.69
22.92
21.56
19.96
18.51
17.51
17.12
17.32
17.88
18.49
18.87
18.84
18.4
17.63
16.62
15.36
13.72
11.49
8.5
4.77
0.51
-3.91
-8.08
-11.81
-15.1
-18.15
-21.26
-24.69
-28.65
-33.28
-38.68
-44.76
-51.12
-56.9
-60.85
-61.64
-58.3
-50.64
-39.43
-26.08
-12.26
0.63
11.73
20.75
27.79
33.04
36.7
38.9
39.78
39.64
38.93
38.16
37.78
38.06
38.96
40.16
41.21
41.71
41.48
40.63
39.45
38.29
37.36
36.65
35.98
35.02
33.47
31.12
27.95
24.11
19.86
15.5
11.27
7.31
3.58
-0.09
-3.98
-8.43
-13.64
-19.55
-25.7
-31.13
-34.59
-34.87
-31.23
-23.83
-13.69
-2.4
8.43
17.71
25.0
30.45
34.41
37.08
38.44
38.42
37.15
35.04
32.78
30.97
29.93
29.59
29.59
29.54
29.2
28.62
27.95
27.37
26.89
26.34
25.41
23.8
21.37
18.14
14.32
10.2
6.11
2.27
-1.16
-4.17
-6.9
-9.67
-12.94
-17.2
-22.72
-29.33
-36.28
-42.31
-45.98
-46.11
-42.22
-34.65
-24.52
-13.37
-2.67
6.49
13.57
18.54
21.65
23.23
23.53
22.75
21.09
18.87
16.52
14.54
13.34
13.09
13.72
14.96
16.41
17.69
18.48
18.61
18.06
16.96
15.55
14.07
12.71
11.45
10.11
8.34
5.77
2.08
-2.78
-8.54
-14.48
-19.49
-22.34
-22.0
-18.01
-10.71
-1.23
8.89
18.14
25.53
30.74
34.01
35.73
36.18
35.35
33.12
29.56
25.11
20.52
16.6
13.85
12.28
11.33
10.23
8.29
5.24
1.28
-3.03
-7.12
-10.64
-13.67
-16.6
-19.97
-24.21
-29.42
-35.27
-41.12
-46.05
-49.1
-49.44
-46.65
-40.82
-32.62
-23.07
-13.34
-4.3
3.54
10.09
15.41
19.59
22.57
24.27
24.76
24.42
23.98
24.35
26.28
30.0
35.04
40.31
44.47
46.41
45.66
42.52
37.78
32.36
26.84
21.37
15.68
9.38
2.17
-5.95
-14.66
-23.29
-30.96
-36.63
-39.41
-38.78
-34.78
-28.07
-19.73
-11.03
-3.05
3.47
8.17
11.04
12.22
11.97
10.57
8.4
5.9
3.59
1.94
1.26
1.59
2.68
4.11
5.38
6.09
6.06
5.3
4.03
2.48
0.84
-0.81
-2.54
-4.46
-6.71
-9.38
-12.56
-16.32
-20.67
-25.35
-29.76
-32.98
-33.96
-31.95
-26.86
-19.33
-10.54
-1.76
6.03
12.3
16.89
19.82
21.1
20.78
18.99
16.1
12.68
9.36
6.64
4.78
3.71
3.13
2.64
1.92
0.82
-0.56
-1.95
-3.02
-3.47
-3.15
-2.05
-0.32
1.75
3.82
5.5
6.43
6.34
5.0
2.27
-1.87
-7.21
-13.14
-18.68
-22.57
-23.65
-21.26
-15.52
-7.33
1.88
10.6
17.7
22.61
25.36
26.38
26.19
25.19
23.61
21.52
18.98
16.18
13.38
10.94
9.1
7.93
7.24
6.69
5.84
4.38
2.22
-0.5
-3.43
-6.25
-8.75
-10.9
-12.81
-14.63
-16.47
-18.41
-20.57
-23.13
-26.2
-29.54
-32.45
-33.81
-32.47
-27.82
-20.17
-10.75
-1.33
6.44
11.63
14.15
14.52
13.53
11.73
9.48
6.99
4.64
2.96
2.53
3.66
6.14
9.3
12.28
14.41
15.47
15.7
15.61
15.69
16.19
16.97
17.59
17.48
16.13
13.35
9.32
4.5
-0.62
-5.75
-10.78
-15.65
-20.04
-23.27
-24.63
-23.76
-21.08
-17.67
-14.84
-13.36
-13.12
-13.21
-12.54
-10.5
-7.29
-3.84
-1.17
0.05
-0.14
-1.13
-2.15
-2.69
-2.69
-2.55
-2.73
-3.57
-5.01
-6.59
-7.63
-7.46
-5.74
-2.65
1.15
4.59
6.52
6.03
2.72
-3.19
-10.96
-19.48
-27.6
-34.32
-38.88
-40.8
-39.86
-35.98
-29.35
-20.42
-9.9
1.26
12.07
21.71
29.71
36.0
40.78
44.22
46.26
46.57
44.76
40.68
34.74
27.84
21.02
15.06
10.18
6.03
2.1
-1.89
-5.77
-8.94
-10.8
-11.14
-10.32
-9.17
-8.56
-9.03
-10.59
-12.76
-14.95
-16.73
-18.05
-19.19
-20.6
-22.67
-25.65
-29.53
-34.03
-38.58
-42.37
-44.47
-44.1
-40.88
-34.96
-27.07
-18.25
-9.54
-1.73
4.8
9.93
13.73
16.29
17.64
17.88
17.19
15.9
14.43
13.18
12.4
12.14
12.27
12.55
12.77
12.8
12.6
12.13
11.37
10.22
8.62
6.55
4.16
1.66
-0.68
-2.68
-4.35
-5.85
-7.52
-9.68
-12.64
-16.51
-21.12
-25.96
-30.14
-32.65
-32.59
-29.54
-23.74
-16.04
-7.57
0.58
7.67
13.4
17.76
20.88
22.85
23.78
23.87
23.41
22.81
22.38
22.29
22.48
22.74
22.82
22.58
22.02
21.27
20.52
19.89
19.4
18.91
18.22
17.08
15.28
12.78
9.71
6.38
3.2
0.49
-1.63
-3.37
-5.14
-7.45
-10.59
-14.54
-18.92
-23.07
-26.29
-28.03
-28.03
-26.35
-23.32
-19.49
-15.43
-11.66
-8.46
-5.87
-3.79
-2.01
-0.41
1.05
2.42
3.84
5.53
7.86
11.29
16.19
22.68
30.36
38.23
44.85
48.72
48.8
44.92
37.89
29.19
20.48
13.0
7.34
3.37
0.64
-1.42
-3.22
-5.05
-7.2
-9.93
-13.4
-17.57
-22.07
-26.33
-29.76
-32.11
-33.67
-35.23
-37.6
-41.13
-45.37
-49.12
-50.75
-48.73
-42.12
-30.89
-16.05
0.5
16.38
29.33
37.98
42.23
43.2
42.58
41.83
41.49
41.24
40.37
38.52
35.97
33.4
31.37
29.8
28.05
25.33
21.39
16.67
12.12
8.75
6.97
6.52
6.6
6.34
5.18
3.11
0.56
-1.82
-3.54
-4.45
-4.78
-5.05
-5.81
-7.36
-9.7
-12.5
-15.34
-17.92
-20.21
-22.51
-25.24
-28.71
-32.87
-37.22
-40.87
-42.77
-42.04
-38.28
-31.73
-23.15
-13.66
-4.41
3.67
10.01
14.33
16.65
17.14
16.16
14.16
11.67
9.19
7.08
5.56
4.68
4.37
4.54
5.05
5.75
6.47
7.02
7.26
7.15
6.72
6.06
5.3
4.48
3.56
2.46
1.12
-0.46
-2.17
-3.85
-5.34
-6.64
-7.84
-9.11
-10.64
-12.49
-14.62
-16.92
-19.31
-21.77
-24.33
-26.91
-29.19
-30.65
-30.62
-28.6
-24.48
-18.68
-11.99
-5.36
0.47
5.11
8.5
10.8
12.19
12.79
12.66
11.93
10.81
9.57
8.46
7.68
7.26
7.14
7.19
7.24
7.17
6.92
6.51
5.98
5.37
4.65
3.72
2.47
0.87
-1.0
-2.97
-4.89
-6.75
-8.67
-10.85
-13.37
-16.13
-18.84
-21.16
-22.9
-24.11
-25.17
-26.58
-28.89
-32.41
-37.06
-42.32
-47.21
-50.45
-50.81
-47.57
-40.79
-31.4
-20.93
-11.03
-2.99
2.5
5.4
6.11
5.23
3.43
1.32
-0.65
-2.35
-3.96
-5.92
-8.62
-12.06
-15.69
-18.51
-19.6
-18.51
-15.67
-12.15
-9.24
-7.82
-7.91
-8.62
-8.46
-5.78
0.74
11.8
27.25
45.98
65.84
84.03
97.69
104.66
104.25
97.35
86.26
73.84
62.87
55.41
52.62
54.76
61.33
71.13
82.43
93.14
101.19
105.01
103.89
98.13
88.91
77.97
67.18
58.11
51.68
47.98
46.37
45.79
45.14
43.58
40.79
36.94
32.65
28.87
26.59
26.52
28.74
32.53
36.58
39.47
40.28
39.06
36.6
33.97
31.93
30.65
29.98
29.8
30.28
31.61
33.5
34.82
33.84
29.01
19.84
7.26
-6.69
-19.77
-30.4
-38.06
-43.1
-46.15
-47.72
-48.0
-47.1
-45.25
-42.84
-40.39
-38.28
-36.69
-35.6
-34.9
-34.57
-34.68
-35.38
-36.76
-38.71
-40.92
-42.93
-44.29
-44.79
-44.56
-43.99
-43.6
-43.75
-44.63
-46.19
-48.26
-50.61
-52.98
-55.08
-56.57
-57.28
-57.25
-56.82
-56.38
-56.11
-55.74
-54.54
-51.63
-46.5
-39.36
-31.19
-23.39
-17.11
-12.7
-9.51
-6.18
-1.13
6.73
17.53
30.31
43.24
54.22
61.45
63.82
61.0
53.3
41.46
26.5
9.67
-7.5
-23.31
-36.26
-45.35
-50.47
-52.41
-52.56
-52.41
-53.09
-55.15
-58.57
-62.82
-67.05
-70.13
-71.12
-69.46
-65.36
-59.72
-53.85
-48.87
-45.27
-42.84
-40.92
-39.03
-37.19
-36.03
-36.27
-38.32
-41.89
-46.08
-49.64
-51.49
-50.93
-47.79
-42.42
-35.62
-28.58
-22.77
-19.68
-20.41
-25.4
-34.3
-46.02
-58.99
-71.46
-81.8
-88.68
-91.41
-90.12
-85.75
-79.76
-73.67
-68.5
-64.53
-61.45
-58.81
-56.36
-54.33
-53.33
-54.13
-57.2
-62.41
-68.69
-74.06
-76.11
-72.7
-62.89
-47.53
-28.95
-10.33
5.56
17.03
23.58
25.36
22.81
16.75
8.84
1.75
-1.55
0.83
8.4
18.12
25.73
27.95
24.1
16.31
8.03
1.97
-1.29
-3.11
-5.42
-9.22
-14.0
-18.34
-21.26
-23.08
-25.41
-30.25
-38.82
-50.77
-64.1
-75.88
-83.25
-84.38
-78.9
-67.96
-53.69
-38.5
-24.24
-11.85
-1.41
7.44
15.04
21.32
26.02
28.88
30.05
30.08
29.71
29.54
29.73
30.13
30.42
30.33
29.78
28.73
27.14
24.94
22.19
19.12
16.24
14.12
13.15
13.26
13.92
14.22
13.15
9.86
3.96
-4.27
-13.81
-23.0
-29.95
-33.07
-31.62
-25.98
-17.42
-7.73
1.55
9.52
16.12
21.93
27.8
34.46
42.17
50.67
59.29
67.16
73.55
78.14
81.11
82.97
84.34
85.71
87.28
89.03
90.7
91.88
92.02
90.55
87.1
81.82
75.45
69.19
64.19
61.03
59.46
58.54
57.09
54.15
49.24
42.24
33.3
22.69
10.99
-0.67
-10.67
-17.18
-18.81
-15.16
-7.02
3.96
15.86
27.11
36.89
44.98
51.53
56.66
60.33
62.37
62.74
61.64
59.61
57.33
55.4
54.2
53.81
54.03
54.49
54.85
54.79
54.13
52.75
50.57
47.57
43.73
39.18
34.1
28.78
23.5
18.46
13.69
9.0
4.12
-1.22
-7.1
-13.24
-18.92
-23.11
-24.69
-22.79
-17.14
-8.2
2.95
14.99
26.72
37.3
46.31
53.55
58.88
62.15
63.3
62.51
60.27
57.39
54.7
52.85
52.04
52.02
52.15
51.61
49.66
45.81
39.95
32.36
23.6
14.4
5.47
-2.56
-9.35
-14.82
-19.2
-22.95
-26.63
-30.73
-35.57
-41.15
-47.12
-52.74
-57.0
-58.77
-57.14
-51.65
-42.54
-30.66
-17.27
-3.69
9.0
20.07
29.1
35.95
40.63
43.25
44.09
43.47
41.73
39.1
35.77
31.88
27.71
23.59
19.88
16.85
14.55
12.85
11.55
10.44
9.24
7.59
5.03
1.14
-4.16
-10.4
-16.6
-21.66
-24.8
-26.02
-26.05
-26.1
-27.27
-30.14
-34.63
-40.06
-45.38
-49.45
-51.23
-49.96
-45.27
-37.39
-27.12
-15.65
-4.31
5.77
13.88
19.84
23.85
26.4
27.98
29.01
29.67
29.98
29.87
29.3
28.37
27.29
26.28
25.49
24.98
24.67
24.48
24.29
24.0
23.51
22.66
21.32
19.46
17.17
14.61
11.94
9.22
6.38
3.26
-0.26
-4.17
-8.3
-12.37
-16.1
-19.39
-22.33
-25.24
-28.5
-32.49
-37.3
-42.68
-47.98
-52.24
-54.4
-53.64
-49.58
-42.44
-32.98
-22.33
-11.65
-1.94
6.18
12.52
17.15
20.35
22.4
23.56
24.03
23.99
23.58
22.98
22.34
21.78
21.33
20.97
20.65
20.3
19.92
19.52
19.13
18.69
18.06
17.11
15.71
13.85
11.65
9.26
6.81
4.32
1.73
-1.06
-4.11
-7.36
-10.68
-13.9
-16.89
-19.61
-22.08
-24.47
-27.01
-30.02
-33.73
-38.1
-42.66
-46.5
-48.46
-47.58
-43.45
-36.4
-27.46
-17.97
-9.14
-1.73
4.04
8.32
11.42
13.55
14.76
15.04
14.45
13.18
11.58
10.07
8.95
8.38
8.32
8.63
9.13
9.72
10.36
11.02
11.59
11.9
11.7
10.78
9.0
6.4
3.14
-0.51
-4.24
-7.75
-10.79
-13.23
-15.09
-16.57
-18.0
-19.74
-22.08
-25.16
-28.92
-33.02
-36.93
-39.91
-41.18
-40.12
-36.46
-30.41
-22.64
-14.1
-5.77
1.55
7.39
11.62
14.33
15.78
16.19
15.79
14.75
13.26
11.56
9.97
8.77
8.11
7.98
8.17
8.43
8.58
8.54
8.34
8.01
7.52
6.78
5.61
3.89
1.58
-1.2
-4.21
-7.1
-9.52
-11.31
-12.53
-13.53
-14.76
-16.62
-19.36
-23.01
-27.42
-32.27
-36.99
-40.82
-42.82
-42.18
-38.52
-32.08
-23.73
-14.72
-6.29
0.74
6.01
9.66
11.98
13.31
13.84
13.69
12.96
11.88
10.72
9.81
9.33
9.3
9.52
9.71
9.63
9.26
8.78
8.46
8.54
8.98
9.45
9.46
8.55
6.52
3.48
-0.18
-3.96
-7.45
-10.4
-12.74
-14.58
-16.17
-17.88
-20.09
-23.06
-26.74
-30.65
-33.92
-35.55
-34.73
-31.17
-25.28
-17.95
-10.32
-3.33
2.47
6.96
10.32
12.79
14.5
15.45
15.59
14.93
13.69
12.21
10.88
10.0
9.67
9.76
10.02
10.18
10.06
9.61
8.92
8.16
7.47
6.88
6.25
5.37
3.99
1.96
-0.63
-3.53
-6.43
-9.04
-11.23
-13.04
-14.61
-16.18
-17.99
-20.25
-23.1
-26.47
-29.98
-32.98
-34.62
-34.12
-31.05
-25.54
-18.21
-10.06
-2.14
4.7
9.96
13.51
15.44
16.03
15.55
14.29
12.53
10.62
8.88
7.61
6.95
6.82
6.99
7.2
7.28
7.23
7.17
7.16
7.09
6.71
5.71
3.97
1.59
-1.1
-3.72
-6.01
-7.93
-9.66
-11.44
-13.52
-16.05
-19.1
-22.59
-26.21
-29.43
-31.49
-31.65
-29.39
-24.64
-17.9
-10.08
-2.23
4.69
10.09
13.78
15.87
16.65
16.42
15.44
13.91
12.04
10.11
8.38
7.15
6.58
6.63
7.08
7.61
7.93
7.89
7.5
6.82
5.89
4.61
2.83
0.49
-2.28
-5.13
-7.65
-9.57
-10.93
-12.1
-13.6
-15.91
-19.2
-23.29
-27.58
-31.25
-33.45
-33.51
-31.16
-26.53
-20.19
-12.95
-5.64
1.03
6.64
11.02
14.18
16.21
17.25
17.45
17.0
16.09
14.92
13.69
12.58
11.71
11.1
10.71
10.42
10.13
9.84
9.59
9.44
9.36
9.15
8.51
7.16
5.02
2.27
-0.68
-3.47
-5.85
-7.88
-9.83
-12.02
-14.74
-18.1
-21.99
-26.02
-29.62
-32.01
-32.46
-30.5
-26.1
-19.75
-12.29
-4.67
2.31
8.18
12.79
16.19
18.52
19.88
20.33
19.93
18.86
17.43
16.02
15.03
14.68
14.98
15.67
16.34
16.66
16.46
15.8
14.87
13.88
12.88
11.77
10.35
8.42
5.98
3.18
0.29
-2.42
-4.82
-6.95
-9.03
-11.3
-13.99
-17.25
-21.09
-25.27
-29.32
-32.54
-34.12
-33.42
-30.22
-24.83
-18.01
-10.7
-3.7
2.48
7.64
11.76
14.86
16.91
17.9
17.89
17.14
16.0
14.89
14.09
13.75
13.79
13.99
14.09
13.89
13.35
12.6
11.86
11.31
10.95
10.63
10.05
8.96
7.24
4.97
2.38
-0.28
-2.79
-5.09
-7.17
-9.17
-11.28
-13.73
-16.68
-20.1
-23.63
-26.62
-28.28
-27.93
-25.29
-20.55
-14.34
-7.52
-0.93
4.8
9.28
12.43
14.32
15.17
15.23
14.68
13.71
12.42
10.96
9.53
8.32
7.49
7.1
7.1
7.38
7.84
8.37
8.85
9.1
8.87
7.95
6.29
4.05
1.54
-0.9
-3.1
-5.06
-6.99
-9.16
-11.95
-15.69
-20.6
-26.73
-33.71
-40.75
-46.71
-50.39
-50.96
-48.29
-42.96
-36.06
-28.72
-21.86
-16.09
-11.85
-9.59
-9.78
-12.74
-18.37
-26.03
-34.64
-43.04
-50.36
-56.31
-61.13
-65.23
-68.73
-70.98
-70.53
-65.38
-53.49
-33.55
-5.46
29.32
68.01
107.03
142.76
172.21
193.37
205.32
208.04
202.22
188.98
169.78
146.3
120.44
94.2
69.5
47.95
30.63
17.92
9.56
4.72
2.29
1.2
0.57
-0.07
-0.9
-1.85
-2.86
-3.94
-5.16
-6.56
-8.08
-9.54
-10.76
-11.71
-12.6
-13.81
-15.68
-18.3
-21.42
-24.56
-27.34
-29.74
-32.14
-35.03
-38.55
-42.24
-45.05
-45.87
-44.12
-40.13
-35.02
-30.27
-27.01
-25.69
-26.02
-27.35
-29.01
-30.55
-31.64
-31.97
-31.1
-28.53
-23.86
-17.08
-8.61
0.62
9.47
16.87
22.19
25.51
27.51
29.25
31.6
34.79
38.3
40.97
41.52
39.13
33.79
26.44
18.6
11.92
7.73
6.62
8.33
11.94
16.13
19.54
21.0
19.85
16.08
10.38
4.14
-0.97
-3.5
-2.75
0.98
6.54
12.57
18.23
23.66
29.89
38.23
49.42
63.04
77.55
90.77
100.65
105.75
105.29
98.96
86.74
69.07
47.16
23.22
0.04
-19.76
-34.75
-45.01
-51.89
-57.11
-61.81
-66.12
-69.44
-71.08
-70.82
-69.1
-66.69
-64.29
-62.24
-60.55
-59.07
-57.69
-56.41
-55.26
-54.29
-53.48
-52.76
-52.1
-51.57
-51.33
-51.56
-52.27
-53.19
-53.69
-52.9
-49.97
-44.45
-36.45
-26.65
-16.16
-6.14
2.45
9.03
13.51
16.16
17.52
18.18
18.72
19.53
20.8
22.46
24.24
25.72
26.46
26.16
24.72
22.33
19.31
16.12
13.11
10.46
8.09
5.75
3.02
-0.52
-5.06
-10.46
-16.13
-21.21
-24.96
-27.07
-27.95
-28.59
-30.23
-33.75
-39.34
-46.32
-53.42
-59.26
-62.68
-63.06
-60.33
-54.88
-47.41
-38.83
-30.13
-22.2
-15.75
-11.13
-8.37
-7.09
-6.72
-6.63
-6.32
-5.54
-4.37
-3.1
-2.1
-1.67
-1.89
-2.62
-3.56
-4.39
-4.86
-4.85
-4.45
-3.86
-3.32
-3.01
-3.01
-3.27
-3.71
-4.36
-5.44
-7.33
-10.39
-14.84
-20.6
-27.26
-34.1
-40.19
-44.53
-46.21
-44.63
-39.78
-32.32
-23.42
-14.38
-6.24
0.59
6.2
10.99
15.24
18.89
21.59
22.91
22.65
20.92
18.2
15.11
12.27
10.13
9.01
9.08
10.35
12.6
15.33
17.81
19.23
18.99
16.93
13.34
8.86
4.17
-0.28
-4.32
-8.02
-11.48
-14.72
-17.61
-19.9
-21.31
-21.59
-20.54
-18.08
-14.23
-9.14
-3.09
3.59
10.56
17.52
24.23
30.42
35.76
39.85
42.26
42.77
41.53
39.12
36.45
34.42
33.56
33.76
34.33
34.28
32.79
29.58
25.09
20.17
15.67
12.07
9.28
6.82
4.15
0.94
-2.8
-6.84
-10.86
-14.73
-18.33
-21.47
-23.72
-24.42
-22.91
-18.87
-12.58
-4.84
3.24
10.65
16.76
21.38
24.65
26.84
28.2
28.89
29.03
28.75
28.25
27.68
27.14
26.55
25.65
24.15
21.8
18.62
14.83
10.84
7.09
3.85
1.18
-1.11
-3.35
-5.92
-9.12
-12.99
-17.28
-21.41
-24.62
-26.16
-25.6
-22.96
-18.67
-13.46
-8.01
-2.75
2.17
6.78
11.11
15.01
18.16
20.17
20.81
20.21
18.84
17.36
16.31
15.99
16.28
16.82
17.24
17.33
17.06
16.57
15.99
15.4
14.79
14.09
13.21
11.99
10.25
7.82
4.66
1.0
-2.67
-5.64
-7.27
-7.17
-5.34
-2.13
1.86
5.98
9.69
12.66
14.76
16.02
16.55
16.45
15.8
14.7
13.28
11.74
10.34
9.3
8.69
8.4
8.18
7.8
7.13
6.23
5.24
4.3
3.41
2.43
1.16
-0.54
-2.74
-5.42
-8.54
-11.99
-15.58
-18.93
-21.49
-22.69
-22.08
-19.59
-15.56
-10.61
-5.48
-0.75
3.32
6.73
9.62
12.07
14.08
15.51
16.29
16.41
16.04
15.41
14.7
14.03
13.41
12.83
12.31
11.89
11.61
11.4
11.1
10.47
9.35
7.67
5.54
3.22
1.01
-0.88
-2.36
-3.54
-4.64
-5.95
-7.73
-10.06
-12.87
-15.8
-18.34
-19.89
-19.94
-18.22
-14.82
-10.16
-4.95
0.05
4.25
7.28
9.08
9.83
9.79
9.26
8.47
7.57
6.65
5.75
4.86
3.98
3.14
2.38
1.81
1.49
1.47
1.67
1.94
2.09
1.96
1.42
0.5
-0.72
-2.09
-3.42
-4.53
-5.27
-5.64
-5.77
-5.93
-6.46
-7.58
-9.37
-11.64
-13.92
-15.63
-16.18
-15.18
-12.61
-8.9
-4.88
-1.55
0.29
0.34
-1.1
-3.25
-5.28
-6.64
-7.25
-7.36
-7.31
-7.25
-7.13
-6.76
-6.03
-5.0
-3.85
-2.72
-1.67
-0.61
0.53
1.68
2.64
3.1
2.81
1.7
-0.07
-2.17
-4.15
-5.65
-6.46
-6.6
-6.29
-5.92
-5.85
-6.37
-7.57
-9.33
-11.32
-13.07
-14.07
-13.87
-12.24
-9.2
-5.13
-0.6
3.77
7.39
9.92
11.29
11.68
11.38
10.75
10.01
9.31
8.67
8.07
7.49
6.94
6.49
6.18
6.02
5.98
5.95
5.84
5.55
5.03
4.25
3.22
1.97
0.55
-0.94
-2.44
-3.92
-5.3
-6.57
-7.72
-8.79
-9.85
-10.93
-11.94
-12.65
-12.74
-11.89
-9.99
-7.2
-3.92
-0.67
2.09
4.07
5.18
5.48
5.07
4.09
2.69
1.04
-0.63
-2.08
-3.09
-3.52
-3.37
-2.76
-1.94
-1.21
-0.8
-0.79
-1.15
-1.73
-2.38
-3.03
-3.64
-4.22
-4.83
-5.51
-6.36
-7.49
-9.01
-10.91
-12.96
-14.74
-15.67
-15.28
-13.4
-10.29
-6.56
-2.96
-0.07
1.91
3.12
3.87
4.46
4.93
5.17
4.99
4.35
3.4
2.43
1.69
1.31
1.23
1.29
1.31
1.19
0.86
0.33
-0.4
-1.34
-2.45
-3.65
-4.85
-5.95
-6.91
-7.83
-8.86
-10.19
-11.87
-13.72
-15.33
-16.2
-15.91
-14.34
-11.7
-8.47
-5.19
-2.23
0.25
2.27
3.91
5.21
6.13
6.64
6.75
6.52
6.04
5.39
4.6
3.74
2.89
2.16
1.64
1.38
1.32
1.37
1.47
1.55
1.62
1.6
1.39
0.84
-0.16
-1.66
-3.6
-5.94
-8.57
-11.35
-14.0
-16.08
-17.12
-16.76
-14.97
-12.02
-8.46
-4.9
-1.74
0.87
3.0
4.82
6.4
7.69
8.53
8.75
8.3
7.31
6.08
4.9
4.03
3.56
3.44
3.55
3.77
4.04
4.25
4.28
3.98
3.22
1.96
0.3
-1.56
-3.42
-5.18
-6.86
-8.55
-10.34
-12.15
-13.82
-15.11
-15.78
-15.58
-14.36
-12.01
-8.57
-4.25
0.56
5.38
9.78
13.54
16.68
19.4
21.83
23.88
25.19
25.33
23.96
21.08
17.04
12.48
8.1
4.5
2.03
0.79
0.57
0.99
1.58
1.93
1.74
0.89
-0.66
-2.84
-5.59
-8.83
-12.49
-16.49
-20.69
-24.83
-28.51
-31.27
-32.64
-32.44
-30.73
-27.84
-24.12
-19.76
-14.78
-9.15
-3.04
3.06
8.52
12.82
15.91
18.22
20.48
23.28
26.73
30.4
33.53
35.37
35.56
34.21
31.75
28.71
25.51
22.34
19.33
16.61
14.42
12.96
12.28
12.09
11.83
10.79
8.43
4.54
-0.69
-6.89
-13.64
-20.69
-27.85
-34.82
-41.02
-45.66
-48.05
-47.97
-45.78
-42.2
-37.86
-32.96
-27.24
-20.29
-12.18
-3.64
4.08
9.82
13.09
14.44
15.18
16.79
20.2
25.44
31.65
37.57
42.03
44.38
44.58
43.05
40.36
37.0
33.29
29.4
25.48
21.72
18.28
15.24
12.52
9.84
6.86
3.27
-1.09
-6.2
-11.86
-17.76
-23.6
-29.17
-34.31
-38.81
-42.39
-44.7
-45.44
-44.57
-42.33
-39.11
-35.32
-31.15
-26.68
-21.93
-17.1
-12.58
-8.89
-6.42
-5.24
-5.13
-5.6
-6.21
-6.65
-6.86
-6.92
-6.93
-6.86
-6.51
-5.61
-4.0
-1.76
0.69
2.79
3.98
3.95
2.68
0.39
-2.68
-6.35
-10.5
-14.93
-19.15
-22.34
-23.6
-22.35
-18.67
-13.37
-7.57
-2.18
2.52
6.92
11.66
17.13
23.12
29.01
34.08
37.98
40.82
42.9
44.38
45.04
44.49
42.46
39.1
35.01
30.91
27.26
24.05
20.81
16.94
12.08
6.32
0.21
-5.52
-10.17
-13.29
-14.65
-14.23
-12.06
-8.32
-3.36
2.18
7.48
11.66
14.11
14.7
13.75
11.83
9.45
6.83
3.93
0.64
-3.02
-6.76
-10.08
-12.42
-13.5
-13.32
-12.18
-10.47
-8.46
-6.29
-3.96
-1.55
0.79
2.8
4.27
5.17
5.66
6.08
6.68
7.55
8.46
8.98
8.61
7.1
4.53
1.35
-1.82
-4.47
-6.38
-7.73
-8.89
-10.23
-11.94
-13.88
-15.81
-17.44
-18.7
-19.71
-20.71
-21.91
-23.43
-25.3
-27.51
-30.01
-32.6
-34.95
-36.55
-36.8
-35.24
-31.77
-26.75
-20.92
-15.24
-10.5
-7.02
-4.57
-2.54
-0.21
2.89
6.83
11.34
15.98
20.37
24.29
27.61
30.18
31.75
32.1
31.11
28.96
26.07
23.03
20.34
18.26
16.74
15.49
14.11
12.27
9.82
6.9
3.77
0.77
-1.85
-3.99
-5.67
-7.04
-8.3
-9.67
-11.34
-13.43
-15.9
-18.51
-20.8
-22.17
-22.07
-20.22
-16.69
-11.92
-6.56
-1.23
3.61
7.75
11.17
13.91
15.96
17.29
17.85
17.75
17.25
16.7
16.41
16.52
16.98
17.58
18.07
18.25
18.01
17.31
16.16
14.59
12.65
10.51
8.41
6.61
5.32
4.59
4.25
3.99
3.45
2.39
0.66
-1.68
-4.55
-7.87
-11.53
-15.32
-18.87
-21.62
-23.0
-22.61
-20.39
-16.68
-12.05
-7.12
-2.39
1.85
5.44
8.27
10.19
11.05
10.75
9.4
7.31
5.01
3.09
2.09
2.34
3.87
6.3
9.04
11.4
12.88
13.25
12.61
11.2
9.26
6.91
4.2
1.14
-2.12
-5.36
-8.34
-10.91
-13.16
-15.32
-17.59
-19.91
-21.99
-23.28
-23.18
-21.37
-17.82
-12.94
-7.35
-1.75
3.28
7.39
10.45
12.51
13.69
14.12
13.92
13.12
11.83
10.19
8.53
7.24
6.67
6.94
7.88
9.1
10.13
10.63
10.44
9.64
8.35
6.65
4.56
2.04
-0.79
-3.67
-6.15
-7.83
-8.57
-8.62
-8.61
-9.3
-11.18
-14.2
-17.71
-20.61
-21.84
-20.77
-17.44
-12.5
-6.9
-1.54
3.03
6.64
9.37
11.4
12.82
13.65
13.89
13.59
12.9
12.0
11.08
10.2
9.35
8.47
7.58
6.79
6.27
6.09
6.15
6.22
6.01
5.38
4.37
3.17
1.95
0.7
-0.76
-2.74
-5.5
-9.12
-13.43
-18.07
-22.45
-25.9
-27.72
-27.35
-24.56
-19.57
-13.05
-5.96
0.76
6.44
10.75
13.69
15.49
16.41
16.72
16.66
16.49
16.54
17.18
18.85
22.08
27.3
34.76
44.28
55.14
66.16
75.96
83.36
87.7
88.89
87.3
83.43
77.71
70.42
61.85
52.52
43.21
34.84
28.1
23.21
19.77
16.99
14.1
10.66
6.73
2.79
-0.61
-3.12
-4.72
-5.67
-6.3
-6.93
-7.8
-9.15
-11.24
-14.28
-18.24
-22.8
-27.43
-31.63
-35.08
-37.76
-39.81
-41.36
-42.45
-42.96
-42.86
-42.26
-41.52
-41.01
-40.97
-41.33
-41.75
-41.81
-41.24
-40.1
-38.78
-37.83
-37.67
-38.41
-39.75
-41.16
-42.06
-42.18
-41.57
-40.58
-39.65
-39.19
-39.38
-40.12
-41.07
-41.64
-41.11
-38.8
-34.26
-27.45
-18.78
-9.0
1.0
10.49
18.97
26.25
32.29
37.15
40.81
43.25
44.45
44.47
43.48
41.72
39.48
36.96
34.32
31.59
28.76
25.85
22.89
19.96
17.15
14.49
11.9
9.23
6.3
2.96
-0.8
-4.75
-8.54
-11.76
-14.17
-15.8
-16.98
-18.19
-19.86
-22.21
-25.17
-28.41
-31.5
-33.94
-35.26
-35.03
-32.91
-28.82
-22.95
-15.91
-8.52
-1.65
4.01
8.16
10.86
12.37
13.01
12.99
12.43
11.47
10.31
9.26
8.62
8.57
9.12
10.17
11.5
12.89
14.15
15.1
15.55
15.35
14.41
12.76
10.47
7.73
4.68
1.45
-1.87
-5.2
-8.47
-11.67
-14.87
-18.2
-21.75
-25.38
-28.67
-30.88
-31.19
-29.04
-24.4
-17.89
-10.58
-3.59
2.24
6.59
9.56
11.44
12.47
12.73
12.21
10.98
9.26
7.45
5.96
5.09
4.91
5.27
5.83
6.24
6.25
5.74
4.75
3.45
2.01
0.56
-0.87
-2.35
-3.99
-5.89
-8.14
-10.79
-13.85
-17.24
-20.71
-23.8
-25.89
-26.31
-24.54
-20.48
-14.5
-7.42
-0.27
6.08
11.07
14.59
16.83
18.09
18.64
18.6
17.97
16.76
15.07
13.14
11.33
9.97
9.28
9.22
9.54
9.8
9.61
8.71
7.1
5.03
2.83
0.77
-1.08
-2.86
-4.82
-7.22
-10.19
-13.75
-17.73
-21.82
-25.52
-28.24
-29.31
-28.23
-24.78
-19.25
-12.34
-5.02
1.75
7.31
11.39
14.15
15.96
17.23
18.23
18.99
19.43
19.38
18.81
17.83
16.72
15.76
15.11
14.75
14.49
14.14
13.56
12.73
11.66
10.29
8.55
6.33
3.67
0.77
-2.07
-4.58
-6.72
-8.7
-10.91
-13.77
-17.45
-21.78
-26.15
-29.67
-31.39
-30.58
-27.04
-21.16
-13.82
-6.09
1.07
7.04
11.63
14.94
17.2
18.65
19.42
19.65
19.44
18.96
18.42
17.99
17.82
17.89
18.09
18.19
17.98
17.37
16.42
15.26
14.05
12.84
11.61
10.23
8.6
6.65
4.39
1.9
-0.7
-3.27
-5.68
-7.91
-10.02
-12.2
-14.71
-17.77
-21.41
-25.45
-29.43
-32.72
-34.6
-34.43
-31.87
-26.95
-20.19
-12.45
-4.72
2.11
7.49
11.24
13.55
14.79
15.32
15.41
15.19
14.71
14.02
13.23
12.54
12.11
12.05
12.28
12.68
13.01
13.08
12.83
12.22
11.31
10.13
8.66
6.89
4.82
2.58
0.35
-1.54
-2.79
-3.22
-2.89
-2.09
-1.32
-1.07
-1.73
-3.5
-6.4
-10.28
-14.87
-19.76
-24.35
-27.86
-29.52
-28.78
-25.55
-20.33
-14.05
-7.75
-2.19
2.31
5.9
8.89
11.57
13.92
15.73
16.73
16.81
16.11
14.96
13.77
12.84
12.31
12.07
11.86
11.37
10.33
8.82
7.22
6.19
6.33
7.88
10.46
13.17
14.87
14.63
11.99
7.12
0.62
-6.68
-13.9
-20.33
-25.44
-28.94
-30.91
-31.81
-32.32
-33.08
-34.34
-35.69
-36.21
-34.69
-30.15
-22.23
-11.38
1.29
14.34
26.33
36.24
43.58
48.41
51.29
53.04
54.59
56.71
59.94
64.39
69.71
75.11
79.49
81.67
80.71
76.25
68.67
59.04
48.82
39.45
31.93
26.64
23.34
21.36
19.84
17.93
15.02
10.78
5.24
-1.26
-8.22
-15.09
-21.45
-27.07
-31.96
-36.33
-40.43
-44.47
-48.48
-52.2
-55.11
-56.54
-55.81
-52.49
-46.57
-38.54
-29.31
-20.02
-11.78
-5.41
-1.26
0.75
1.06
0.22
-1.2
-2.7
-3.85
-4.31
-3.8
-2.29
-0.01
2.6
4.96
6.63
7.45
7.61
7.48
7.46
7.77
8.4
9.1
9.52
9.31
8.24
6.2
3.25
-0.5
-4.94
-10.0
-15.65
-21.88
-28.66
-35.81
-43.08
-50.12
-56.52
-61.84
-65.61
-67.44
-67.04
-64.39
-59.77
-53.79
-47.3
-41.23
-36.36
-33.24
-32.11
-32.89
-35.2
-38.39
-41.58
-43.84
-44.4
-42.87
-39.42
-34.73
-29.66
-24.98
-20.9
-16.82
-11.46
-3.4
8.28
23.4
40.49
57.34
71.72
82.3
88.98
92.65
94.56
95.61
96.06
95.62
93.78
90.09
84.03
74.9
61.97
45.0
24.92
4.08
-14.18
-26.64
-31.47
-28.84
-20.74
-10.01
0.77
9.89
16.49
20.17
20.61
17.61
11.4
2.88
-6.39
-14.73
-20.93
-24.67
-26.46
-27.18
-27.65
-28.19
-28.71
-29.03
-29.09
-29.14
-29.62
-30.85
-32.82
-35.18
-37.39
-39.05
-40.07
-40.67
-41.26
-42.2
-43.63
-45.5
-47.69
-50.05
-52.33
-54.17
-55.04
-54.38
-51.79
-47.25
-41.04
-33.49
-24.73
-14.56
-2.71
10.8
25.27
39.32
51.2
59.41
63.21
62.81
59.21
53.7
47.44
41.15
35.13
29.48
24.27
19.75
16.22
13.86
12.48
11.58
10.46
8.58
5.84
2.63
-0.44
-2.88
-4.64
-6.06
-7.75
-10.28
-13.97
-18.86
-24.72
-31.1
-37.29
-42.34
-45.15
-44.77
-40.79
-33.57
-24.31
-14.71
-6.37
-0.26
3.49
5.51
6.66
7.6
8.46
8.99
8.84
7.99
6.84
6.06
6.17
7.23
8.77
10.04
10.49
10.07
9.27
8.8
9.14
10.23
11.47
12.07
11.46
9.66
7.24
5.15
4.4
5.79
9.72
16.04
23.98
32.12
38.78
42.51
42.72
39.94
35.61
31.4
28.43
26.73
25.49
23.53
20.09
15.14
9.3
3.27
-2.54
-8.17
-13.82
-19.47
-24.64
-28.47
-30.1
-29.04
-25.38
-19.74
-13.07
-6.45
-0.95
2.48
3.11
0.65
-4.7
-12.23
-20.92
-29.72
-37.81
-44.65
-49.97
-53.65
-55.78
-56.66
-56.76
-56.58
-56.38
-55.97
-54.74
-51.86
-46.71
-39.12
-29.55
-18.8
-7.8
2.76
12.58
21.69
30.27
38.41
46.03
52.96
59.01
64.1
68.18
71.13
72.63
72.2
69.33
63.78
55.73
45.83
35.02
24.28
14.34
5.58
-1.91
-8.28
-13.75
-18.61
-23.16
-27.81
-32.95
-38.85
-45.49
-52.39
-58.57
-62.79
-63.87
-61.14
-54.67
-45.28
-34.29
-23.12
-12.94
-4.45
2.16
7.05
10.56
13.12
15.11
16.79
18.33
19.74
20.95
21.87
22.43
22.68
22.78
22.91
23.21
23.68
24.13
24.23
23.58
21.9
19.07
15.2
10.6
5.75
1.16
-2.75
-5.8
-8.14
-10.27
-12.75
-16.03
-20.0
-23.92
-26.52
-26.47
-22.95
-16.1
-7.02
2.53
10.76
16.33
18.75
18.32
15.93
12.77
9.93
8.22
8.04
9.41
12.12
15.74
19.87
24.02
27.77
30.72
32.61
33.4
33.29
32.6
31.61
30.41
28.93
27.04
24.76
22.37
20.26
18.74
17.8
17.1
16.17
14.63
12.38
9.62
6.68
3.83
1.12
-1.6
-4.6
-8.19
-12.62
-18.08
-24.6
-31.97
-39.52
-46.15
-50.43
-51.09
-47.49
-39.96
-29.77
-18.74
-8.59
-0.45
5.4
9.37
12.15
14.35
16.25
17.85
19.0
19.63
19.79
19.72
19.68
19.91
20.5
21.39
22.39
23.25
23.81
23.98
23.79
23.31
22.57
21.58
20.34
18.88
17.26
15.51
13.56
11.27
8.47
5.08
1.18
-2.92
-6.72
-9.62
-11.14
-11.14
-9.97
-8.47
-7.66
-8.37
-10.75
-14.14
-17.28
-18.8
-17.75
-13.91
-7.8
-0.33
7.5
14.91
21.32
26.33
29.64
31.05
30.52
28.29
24.77
20.52
16.06
11.82
8.03
4.78
2.01
-0.39
-2.56
-4.62
-6.68
-8.82
-11.11
-13.62
-16.45
-19.71
-23.48
-27.73
-32.22
-36.4
-39.53
-40.81
-39.66
-35.93
-30.07
-23.0
-16.0
-10.35
-7.09
-6.76
-9.26
-13.84
-19.24
-23.9
-26.41
-25.88
-22.1
-15.65
-7.56
0.95
8.76
15.11
19.68
22.62
24.5
26.1
28.12
30.88
34.11
37.06
38.8
38.68
36.65
33.24
29.33
25.79
23.15
21.51
20.59
19.91
18.94
17.26
14.7
11.32
7.41
3.32
-0.7
-4.58
-8.43
-12.44
-16.7
-21.04
-25.01
-28.0
-29.31
-28.42
-25.17
-19.92
-13.61
-7.69
-3.79
-3.17
-6.29
-12.56
-20.42
-27.86
-33.05
-34.89
-33.25
-28.87
-22.99
-16.88
-11.45
-7.17
-4.11
-2.22
-1.47
-1.99
-3.88
-6.99
-10.74
-14.16
-16.21
-16.15
-13.9
-10.06
-5.63
-1.6
1.48
3.58
5.11
6.57
8.36
10.52
12.88
15.1
16.94
18.4
19.77
21.56
24.3
28.27
33.27
38.63
43.42
46.84
48.49
48.53
47.5
45.99
44.38
42.62
40.36
37.11
32.43
25.96
17.53
7.22
-4.49
-16.61
-27.7
-36.14
-40.65
-40.75
-36.95
-30.63
-23.53
-17.29
-13.04
-11.41
-12.69
-16.94
-24.1
-33.83
-45.41
-57.74
-69.46
-79.24
-86.06
-89.32
-88.8
-84.53
-76.59
-65.15
-50.59
-33.73
-15.96
0.97
15.38
26.19
33.29
37.43
39.93
42.07
44.61
47.7
50.95
53.78
55.63
56.2
55.38
53.32
50.35
46.91
43.48
40.44
37.96
36.08
34.63
33.4
32.18
30.85
29.53
28.64
28.83
30.84
35.12
41.65
49.74
58.3
66.1
72.26
76.38
78.48
78.71
77.04
73.25
67.15
58.95
49.41
39.7
30.93
23.59
17.38
11.38
4.72
-2.96
-11.21
-19.03
-25.32
-29.31
-30.79
-29.99
-27.42
-23.8
-20.0
-17.03
-15.9
-17.37
-21.76
-28.85
-37.93
-48.12
-58.48
-68.3
-77.12
-84.78
-91.34
-96.93
-101.58
-104.99
-106.63
-105.88
-102.34
-96.03
-87.4
-77.17
-66.02
-54.43
-42.76
-31.47
-21.3
-13.19
-8.0
-6.09
-6.99
-9.47
-12.0
-13.24
-12.5
-9.83
-5.9
-1.52
2.61
6.13
8.97
11.19
12.78
13.63
13.54
12.37
10.21
7.35
4.2
1.21
-1.35
-3.4
-5.13
-6.85
-8.94
-11.69
-15.21
-19.29
-23.39
-26.67
-28.17
-27.16
-23.38
-17.17
-9.43
-1.31
6.16
12.37
17.15
20.72
23.3
25.03
25.91
25.91
25.16
24.03
23.0
22.51
22.77
23.66
24.81
25.83
26.43
26.56
26.36
26.08
25.9
25.81
25.55
24.68
22.76
19.58
15.22
10.09
4.72
-0.43
-5.15
-9.51
-13.74
-18.12
-22.85
-28.02
-33.58
-39.26
-44.54
-48.72
-51.02
-50.84
-47.98
-42.78
-36.02
-28.69
-21.72
-15.76
-11.04
-7.48
-4.86
-2.88
-1.27
0.23
1.87
3.86
6.28
9.07
12.1
15.19
18.24
21.24
24.17
26.94
29.31
31.04
31.92
31.9
31.07
29.59
27.68
25.45
22.92
20.02
16.56
12.29
7.02
0.74
-6.24
-13.27
-19.51
-24.22
-26.94
-27.71
-27.03
-25.7
-24.58
-24.41
-25.45
-27.46
-29.63
-30.81
-29.92
-26.29
-19.93
-11.57
-2.47
6.06
12.95
17.74
20.49
21.66
21.81
21.38
20.59
19.5
18.14
16.59
15.04
13.71
12.75
12.18
11.84
11.5
10.91
9.96
8.61
6.9
4.92
2.76
0.52
-1.64
-3.53
-4.96
-5.82
-6.21
-6.4
-6.74
-7.45
-8.53
-9.8
-11.03
-12.16
-13.41
-15.15
-17.81
-21.58
-26.38
-31.79
-37.18
-41.77
-44.73
-45.38
-43.35
-38.73
-32.18
-24.71
-17.47
-11.26
-6.39
-2.6
0.62
3.69
6.74
9.56
11.82
13.31
14.14
14.8
15.97
18.34
22.29
27.7
34.0
40.39
46.15
50.93
54.81
58.03
60.67
62.41
62.59
60.64
56.51
50.89
45.04
40.18
36.9
34.91
33.27
30.91
27.23
22.27
16.56
10.76
5.37
0.69
-3.0
-5.39
-6.08
-4.94
-2.24
1.29
4.7
7.29
8.91
10.05
11.42
13.56
16.46
19.62
22.31
24.06
24.87
25.21
25.71
26.79
28.34
29.8
30.3
29.03
25.51
19.71
11.97
2.94
-6.7
-16.33
-25.53
-34.05
-41.82
-48.85
-55.15
-60.81
-65.96
-70.9
-75.96
-81.44
-87.41
-93.53
-99.01
-102.73
-103.5
-100.38
-93.06
-81.97
-68.24
-53.5
-39.39
-27.19
-17.54
-10.51
-5.74
-2.81
-1.37
-1.2
-2.08
-3.63
-5.33
-6.59
-6.97
-6.33
-4.85
-2.86
-0.73
1.25
2.9
4.04
4.46
3.95
2.33
-0.4
-4.02
-8.13
-12.22
-15.91
-19.03
-21.78
-24.59
-28.06
-32.65
-38.44
-44.91
-50.96
-55.14
-56.11
-53.06
-46.04
-35.91
-24.12
-12.21
-1.47
7.33
13.91
18.4
21.19
22.78
23.73
24.58
25.79
27.63
30.11
33.05
36.07
38.76
40.77
41.9
42.12
41.59
40.53
39.12
37.37
35.17
32.26
28.5
23.87
18.6
13.06
7.62
2.6
-1.9
-5.95
-9.78
-13.76
-18.29
-23.7
-30.01
-36.76
-42.99
-47.37
-48.59
-45.84
-39.07
-29.08
-17.27
-5.18
5.89
15.16
22.33
27.49
30.82
32.57
32.95
32.24
30.86
29.34
28.22
27.89
28.49
29.83
31.48
32.95
33.82
33.87
33.11
31.7
29.91
27.95
26.0
24.07
22.11
19.95
17.39
14.31
10.71
6.72
2.58
-1.45
-5.21
-8.64
-11.79
-14.85
-18.11
-21.87
-26.35
-31.5
-36.81
-41.28
-43.62
-42.64
-37.71
-29.03
-17.6
-4.93
7.37
18.04
26.3
31.93
35.08
36.12
35.49
33.66
31.17
28.61
26.59
25.59
25.88
27.33
29.48
31.65
33.24
33.88
33.6
32.73
31.63
30.52
29.31
27.68
25.22
21.7
17.22
12.23
7.36
3.17
-0.07
-2.54
-4.72
-7.22
-10.57
-15.02
-20.45
-26.36
-31.89
-35.96
-37.43
-35.5
-29.93
-21.23
-10.56
0.59
10.83
19.2
25.26
29.05
30.82
30.92
29.68
27.47
24.76
22.13
20.12
19.12
19.19
20.03
21.15
22.04
22.4
22.21
21.6
20.67
19.38
17.51
14.83
11.3
7.13
2.74
-1.38
-4.89
-7.69
-10.0
-12.25
-14.95
-18.56
-23.32
-29.07
-35.15
-40.47
-43.64
-43.45
-39.24
-31.24
-20.54
-8.78
2.42
11.88
19.11
24.19
27.47
29.28
29.79
29.11
27.45
25.22
23.01
21.37
20.64
20.83
21.61
22.48
22.96
22.78
21.91
20.56
19.02
17.45
15.85
14.04
11.73
8.73
5.05
0.92
-3.29
-7.24
-10.75
-13.83
-16.69
-19.61
-22.94
-26.92
-31.72
-37.24
-43.06
-48.33
-51.9
-52.57
-49.5
-42.58
-32.52
-20.7
-8.71
2.11
10.99
17.71
22.5
25.68
27.55
28.35
28.3
27.7
26.92
26.35
26.23
26.62
27.37
28.23
28.92
29.27
29.26
28.99
28.55
27.97
27.14
25.91
24.13
21.8
19.08
16.14
13.11
10.01
6.76
3.26
-0.46
-4.25
-7.84
-11.01
-13.69
-15.98
-18.17
-20.68
-23.9
-28.08
-33.17
-38.65
-43.48
-46.35
-46.01
-41.77
-33.8
-23.13
-11.33
-0.0
9.7
17.24
22.64
26.25
28.47
29.63
29.99
29.78
29.28
28.75
28.42
28.4
28.68
29.1
29.45
29.55
29.34
28.87
28.3
27.74
27.13
26.27
24.89
22.76
19.9
16.56
13.12
9.93
7.15
4.67
2.25
-0.4
-3.45
-6.87
-10.47
-13.95
-17.02
-19.52
-21.46
-23.01
-24.51
-26.4
-29.01
-32.41
-36.18
-39.42
-40.95
-39.69
-35.1
-27.45
-17.75
-7.43
2.12
9.92
15.53
19.0
20.62
20.79
19.84
18.03
15.68
13.12
10.78
9.09
8.33
8.58
9.57
10.82
11.76
12.0
11.39
10.11
8.51
6.91
5.48
4.17
2.77
1.04
-1.19
-3.92
-7.0
-10.13
-13.05
-15.59
-17.74
-19.66
-21.57
-23.71
-26.32
-29.54
-33.38
-37.58
-41.56
-44.41
-45.08
-42.77
-37.25
-29.0
-19.15
-9.12
-0.15
6.94
11.92
14.95
16.37
16.49
15.56
13.8
11.52
9.15
7.18
6.01
5.84
6.6
7.96
9.46
10.66
11.27
11.26
10.74
9.91
8.89
7.65
6.02
3.79
0.87
-2.65
-6.45
-10.11
-13.28
-15.8
-17.77
-19.47
-21.22
-23.33
-26.03
-29.41
-33.44
-37.79
-41.78
-44.42
-44.61
-41.52
-34.93
-25.46
-14.4
-3.37
6.19
13.42
18.12
20.64
21.58
21.55
20.97
20.11
19.13
18.16
17.36
16.91
16.93
17.45
18.42
19.62
20.79
21.7
22.19
22.21
21.82
21.1
20.1
18.84
17.3
15.46
13.32
10.88
8.2
5.36
2.52
-0.18
-2.64
-4.93
-7.3
-10.17
-13.95
-18.95
-25.16
-32.25
-39.5
-45.92
-50.36
-51.79
-49.52
-43.49
-34.37
-23.43
-12.25
-2.32
5.34
10.32
12.75
13.12
12.03
10.06
7.64
5.12
2.73
0.67
-0.91
-1.91
-2.29
-2.05
-1.3
-0.26
0.73
1.21
0.71
-1.06
-4.16
-8.27
-12.86
-17.28
-21.01
-23.86
-25.95
-27.62
-29.31
-31.35
-33.82
-36.67
-39.71
-42.76
-45.75
-48.67
-51.61
-54.71
-58.14
-61.97
-66.08
-70.01
-72.94
-73.75
-71.34
-65.04
-54.87
-41.67
-26.78
-11.7
2.33
14.59
24.79
32.93
39.1
43.36
45.83
46.72
46.41
45.41
44.24
43.29
42.73
42.49
42.36
42.02
41.23
39.82
37.82
35.39
32.78
30.25
27.93
25.78
23.67
21.38
18.82
16.06
13.3
10.76
8.59
6.7
4.89
2.86
0.35
-2.76
-6.53
-10.85
-15.49
-19.99
-23.64
-25.6
-25.1
-21.74
-15.68
-7.68
1.15
9.6
16.76
22.14
25.68
27.57
28.09
27.46
25.91
23.66
21.05
18.52
16.47
15.17
14.63
14.63
14.84
14.95
14.83
14.5
14.05
13.47
12.63
11.27
9.13
6.16
2.57
-1.23
-4.76
-7.66
-9.9
-11.72
-13.59
-16.03
-19.44
-23.81
-28.67
-33.09
-35.88
-35.98
-32.78
-26.39
-17.64
-7.81
1.83
10.29
17.08
22.17
25.74
28.01
29.15
29.26
28.51
27.22
25.81
24.74
24.33
24.66
25.52
26.51
27.26
27.52
27.27
26.61
25.66
24.36
22.5
19.74
15.9
11.01
5.44
-0.28
-5.66
-10.46
-14.74
-18.79
-22.97
-27.56
-32.65
-38.17
-43.78
-48.84
-52.45
-53.56
-51.34
-45.56
-36.77
-26.27
-15.63
-6.23
1.2
6.62
10.42
13.09
14.93
15.98
16.26
15.86
15.13
14.48
14.3
14.76
15.75
17.0
18.17
19.03
19.47
19.48
19.11
18.44
17.54
16.46
15.22
13.81
12.15
10.13
7.69
4.82
1.64
-1.69
-4.95
-8.0
-10.78
-13.28
-15.63
-18.06
-20.9
-24.47
-28.89
-33.91
-38.76
-42.31
-43.35
-41.06
-35.34
-26.89
-17.0
-7.15
1.45
8.1
12.69
15.49
16.94
17.43
17.31
16.83
16.22
15.69
15.41
15.47
15.88
16.56
17.4
18.24
18.93
19.36
19.48
19.31
18.92
18.33
17.57
16.57
15.31
13.82
12.19
10.48
8.74
6.88
4.79
2.38
-0.31
-3.14
-5.92
-8.49
-10.86
-13.19
-15.77
-18.97
-22.99
-27.69
-32.46
-36.26
-37.89
-36.41
-31.53
-23.73
-14.18
-4.3
4.65
11.91
17.24
20.84
23.01
24.04
24.08
23.27
21.85
20.21
18.86
18.19
18.41
19.38
20.75
22.04
22.89
23.1
22.71
21.9
20.88
19.81
18.74
17.56
16.09
14.14
11.6
8.48
4.97
1.32
-2.22
-5.46
-8.34
-10.92
-13.32
-15.72
-18.33
-21.39
-25.08
-29.3
-33.65
-37.28
-39.14
-38.29
-34.29
-27.47
-18.8
-9.62
-1.15
5.77
10.84
14.1
15.74
15.97
14.98
13.1
10.81
8.7
7.27
6.79
7.2
8.16
9.21
9.91
10.05
9.66
8.97
8.27
7.75
7.34
6.73
5.5
3.36
0.3
-3.34
-7.03
-10.3
-12.89
-14.86
-16.54
-18.34
-20.67
-23.82
-27.85
-32.57
-37.43
-41.5
-43.68
-42.97
-38.91
-31.75
-22.51
-12.58
-3.34
4.26
9.88
13.63
15.87
16.91
16.99
16.24
14.87
13.19
11.61
10.55
10.27
10.77
11.79
12.86
13.5
13.37
12.42
10.9
9.18
7.59
6.23
4.94
3.42
1.4
-1.23
-4.34
-7.67
-10.96
-14.03
-16.87
-19.53
-22.17
-24.96
-28.11
-31.81
-36.09
-40.59
-44.57
-46.94
-46.67
-43.14
-36.47
-27.49
-17.51
-7.87
0.44
6.95
11.63
14.7
16.45
17.09
16.8
15.81
14.38
12.87
11.7
11.18
11.5
12.63
14.31
16.12
17.68
18.68
19.08
18.99
18.6
18.08
17.48
16.69
15.57
13.97
11.83
9.21
6.23
3.08
-0.11
-3.23
-6.24
-9.16
-12.01
-14.91
-18.01
-21.52
-25.57
-30.09
-34.63
-38.35
-40.2
-39.24
-35.08
-28.06
-19.16
-9.73
-1.04
6.07
11.28
14.74
16.71
17.48
17.23
16.11
14.42
12.54
10.9
9.8
9.26
9.1
9.0
8.7
8.08
7.15
5.94
4.46
2.68
0.63
-1.6
-3.8
-5.74
-7.29
-8.44
-9.24
-9.71
-9.82
-9.44
-8.47
-6.9
-4.88
-2.71
-0.73
0.73
1.45
1.28
0.12
-2.06
-5.1
-8.57
-11.66
-13.4
-12.89
-9.63
-3.79
3.84
12.11
19.85
26.17
30.65
33.23
34.14
33.73
32.4
30.54
28.48
26.5
24.81
23.57
22.89
22.79
23.16
23.71
24.05
23.84
22.86
21.19
19.06
16.8
14.6
12.48
10.35
8.0
5.35
2.37
-0.88
-4.31
-7.77
-11.09
-14.06
-16.52
-18.39
-19.78
-20.9
-22.05
-23.46
-25.25
-27.29
-29.21
-30.35
-29.91
-27.19
-21.85
-14.15
-4.93
4.56
13.12
19.89
24.58
27.41
28.84
29.31
29.15
28.52
27.5
26.2
24.79
23.48
22.46
21.76
21.28
20.81
20.15
19.24
18.14
17.02
15.95
14.82
13.36
11.28
8.42
4.86
0.92
-3.04
-6.69
-9.86
-12.58
-15.0
-17.38
-20.04
-23.28
-27.15
-31.34
-35.11
-37.48
-37.49
-34.63
-29.0
-21.31
-12.62
-4.05
3.54
9.63
13.99
16.65
17.73
17.45
16.12
14.11
11.86
9.74
8.03
6.87
6.23
6.03
6.11
6.33
6.54
6.58
6.26
5.39
3.87
1.74
-0.83
-3.57
-6.19
-8.54
-10.62
-12.58
-14.67
-17.2
-20.4
-24.37
-28.95
-33.63
-37.58
-39.77
-39.27
-35.59
-28.95
-20.24
-10.78
-1.92
5.35
10.61
13.96
15.81
16.6
16.63
16.07
15.03
13.66
12.2
10.95
10.15
9.85
9.94
10.15
10.25
10.11
9.77
9.31
8.76
7.96
6.62
4.47
1.42
-2.33
-6.27
-9.89
-12.81
-14.96
-16.64
-18.37
-20.67
-23.88
-28.02
-32.65
-36.97
-39.98
-40.7
-38.52
-33.41
-25.91
-17.04
-7.96
0.37
7.38
12.89
16.97
19.7
21.12
21.25
20.16
18.17
15.82
13.76
12.54
12.38
13.12
14.27
15.27
15.67
15.32
14.37
13.14
11.96
10.98
10.12
9.16
7.84
6.02
3.72
1.18
-1.36
-3.68
-5.75
-7.68
-9.7
-12.06
-14.93
-18.45
-22.64
-27.33
-32.07
-36.08
-38.36
-38.01
-34.53
-28.14
-19.68
-10.41
-1.51
6.17
12.32
16.98
20.4
22.77
24.19
24.64
24.19
23.0
21.44
19.94
18.89
18.49
18.71
19.26
19.78
19.99
19.77
19.17
18.39
17.62
16.91
16.23
15.37
14.1
12.22
9.61
6.35
2.69
-1.01
-4.4
-7.19
-9.32
-10.88
-12.15
-13.49
-15.28
-17.82
-21.23
-25.35
-29.63
-33.22
-35.11
-34.43
-30.79
-24.39
-16.03
-6.88
1.86
9.32
15.05
18.98
21.23
21.98
21.35
19.52
16.73
13.36
9.88
6.73
4.26
2.61
1.7
1.35
1.23
1.03
0.51
-0.4
-1.6
-2.88
-4.05
-5.04
-5.93
-6.94
-8.27
-9.99
-12.08
-14.46
-17.08
-19.95
-23.14
-26.68
-30.5
-34.51
-38.59
-42.64
-46.57
-50.12
-52.81
-53.94
-52.78
-48.82
-41.98
-32.76
-22.11
-11.25
-1.32
6.84
12.76
16.42
18.12
18.4
17.94
17.4
17.35
18.14
19.84
22.21
24.72
26.74
27.74
27.49
26.15
24.24
22.31
20.74
19.51
18.22
16.34
13.53
9.84
5.81
2.18
-0.33
-1.39
-1.19
-0.35
0.21
-0.35
-2.58
-6.45
-11.37
-16.23
-19.77
-20.94
-19.22
-14.82
-8.56
-1.59
5.05
10.75
15.43
19.4
23.04
26.57
29.86
32.51
34.04
34.13
32.7
30.02
26.52
22.68
18.9
15.44
12.45
9.95
8.01
6.64
5.87
5.62
5.67
5.67
5.22
3.97
1.76
-1.38
-5.29
-9.7
-14.33
-18.9
-23.18
-27.06
-30.59
-33.96
-37.28
-40.41
-42.8
-43.58
-41.93
-37.53
-30.78
-22.74
-14.74
-7.82
-2.48
1.43
4.38
6.8
8.88
10.53
11.61
12.12
12.32
12.54
13.06
13.85
14.64
15.1
15.05
14.61
14.08
13.82
13.98
14.49
15.11
15.59
15.73
15.43
14.54
12.88
10.32
6.88
2.82
-1.45
-5.48
-9.07
-12.26
-15.33
-18.61
-22.17
-25.69
-28.47
-29.7
-28.75
-25.53
-20.53
-14.62
-8.77
-3.69
0.29
3.18
5.08
6.02
5.89
4.59
2.15
-1.14
-4.79
-8.18
-10.8
-12.3
-12.52
-11.5
-9.37
-6.35
-2.66
1.53
6.11
11.02
16.15
21.28
26.03
29.88
32.35
33.13
32.28
30.22
27.55
24.9
22.71
21.1
19.97
19.03
17.94
16.29
13.65
9.65
4.13
-2.72
-10.25
-17.37
-22.79
-25.38
-24.51
-20.3
-13.53
-5.46
2.59
9.6
15.04
18.84
21.19
22.25
22.08
20.72
18.38
15.53
12.85
11.0
10.3
10.61
11.37
11.89
11.7
10.69
9.11
7.43
6.01
4.94
3.98
2.69
0.68
-2.2
-5.75
-9.5
-12.94
-15.77
-18.0
-19.9
-21.82
-24.04
-26.64
-29.56
-32.59
-35.4
-37.52
-38.34
-37.28
-33.96
-28.39
-21.12
-13.03
-5.13
1.79
7.29
11.32
14.08
15.9
17.07
17.83
18.35
18.73
19.02
19.28
19.53
19.82
20.22
20.72
21.26
21.68
21.84
21.63
21.06
20.22
19.17
17.92
16.44
14.72
12.86
11.04
9.36
7.77
6.0
3.71
0.67
-3.1
-7.33
-11.63
-15.71
-19.38
-22.46
-24.58
-25.11
-23.35
-18.82
-11.62
-2.61
6.84
15.27
21.57
25.34
26.83
26.64
25.44
23.64
21.47
19.1
16.83
15.09
14.35
14.81
16.32
18.3
20.03
20.92
20.77
19.78
18.37
16.98
15.78
14.63
13.21
11.19
8.43
5.04
1.26
-2.62
-6.39
-9.88
-13.01
-15.78
-18.27
-20.64
-23.08
-25.77
-28.77
-32.01
-35.3
-38.3
-40.59
-41.68
-41.1
-38.54
-34.01
-27.88
-20.77
-13.43
-6.48
-0.34
4.78
8.8
11.68
13.42
14.09
13.96
13.48
13.23
13.78
15.39
17.9
20.71
22.98
23.97
23.37
21.42
18.8
16.3
14.5
13.49
12.94
12.36
11.36
9.83
7.91
5.85
3.82
1.85
-0.19
-2.43
-4.9
-7.49
-9.94
-12.06
-13.84
-15.54
-17.66
-20.68
-24.84
-29.93
-35.28
-39.88
-42.67
-42.84
-40.11
-34.75
-27.52
-19.42
-11.4
-4.19
1.83
6.5
9.75
11.57
11.93
10.94
8.95
6.55
4.49
3.43
3.68
5.07
7.04
8.89
10.05
10.3
9.74
8.68
7.43
6.21
5.06
3.94
2.79
1.57
0.32
-0.96
-2.24
-3.59
-5.11
-6.9
-9.05
-11.6
-14.54
-17.89
-21.65
-25.76
-29.96
-33.67
-35.99
-35.97
-32.99
-27.01
-18.69
-9.23
0.14
8.43
15.2
20.36
24.06
26.39
27.4
27.13
25.71
23.52
21.07
18.92
17.47
16.83
16.86
17.23
17.6
17.74
17.58
17.15
16.44
15.38
13.87
11.81
9.24
6.33
3.36
0.57
-1.88
-3.95
-5.69
-7.19
-8.62
-10.22
-12.25
-14.97
-18.55
-22.93
-27.77
-32.43
-36.11
-38.01
-37.53
-34.5
-29.17
-22.19
-14.48
-6.93
-0.26
5.13
9.15
11.91
13.58
14.3
14.2
13.44
12.28
11.13
10.36
10.27
10.9
12.1
13.57
15.01
16.25
17.24
17.96
18.37
18.37
17.82
16.63
14.85
12.64
10.25
7.88
5.64
3.56
1.62
-0.22
-1.98
-3.71
-5.55
-7.67
-10.29
-13.58
-17.57
-22.03
-26.43
-30.03
-31.95
-31.49
-28.33
-22.67
-15.22
-7.02
0.88
7.67
12.88
16.42
18.45
19.29
19.29
18.81
18.17
17.6
17.23
17.11
17.21
17.53
18.05
18.74
19.52
20.28
20.86
21.13
21.01
20.53
19.71
18.62
17.28
15.68
13.82
11.72
9.46
7.15
4.87
2.69
0.57
-1.55
-3.76
-6.1
-8.59
-11.23
-14.11
-17.35
-21.05
-25.07
-28.94
-31.86
-32.93
-31.47
-27.32
-20.95
-13.35
-5.68
1.04
6.28
9.99
12.42
13.92
14.7
14.86
14.37
13.33
11.96
10.62
9.64
9.25
9.46
10.1
10.97
11.9
12.77
13.5
13.99
14.11
13.77
12.9
11.58
9.96
8.24
6.57
5.02
3.5
1.88
-0.0
-2.19
-4.61
-7.11
-9.52
-11.8
-14.0
-16.34
-19.07
-22.37
-26.29
-30.66
-35.0
-38.6
-40.63
-40.37
-37.46
-32.04
-24.75
-16.55
-8.4
-1.08
4.97
9.58
12.75
14.53
15.02
14.38
12.9
10.99
9.13
7.72
7.03
7.11
7.84
8.97
10.23
11.33
12.03
12.11
11.47
10.14
8.35
6.41
4.66
3.23
2.0
0.66
-1.11
-3.49
-6.39
-9.51
-12.51
-15.14
-17.36
-19.3
-21.18
-23.22
-25.62
-28.47
-31.78
-35.35
-38.7
-41.17
-41.94
-40.35
-36.09
-29.37
-20.91
-11.78
-3.12
4.19
9.62
13.07
14.75
15.01
14.18
12.61
10.6
8.51
6.76
5.74
5.74
6.79
8.61
10.7
12.49
13.54
13.65
12.89
11.56
9.96
8.35
6.8
5.27
3.61
1.68
-0.6
-3.22
-6.09
-9.07
-12.03
-14.88
-17.61
-20.3
-23.07
-26.13
-29.64
-33.7
-38.18
-42.64
-46.38
-48.56
-48.37
-45.33
-39.4
-31.09
-21.33
-11.24
-1.92
5.81
11.51
15.13
16.89
17.17
16.42
15.02
13.36
11.74
10.42
9.62
9.45
9.94
10.99
12.37
13.78
14.82
15.21
14.79
13.61
11.95
10.12
8.33
6.57
4.65
2.33
-0.52
-3.85
-7.4
-10.9
-14.12
-16.99
-19.55
-21.96
-24.38
-27.0
-30.06
-33.79
-38.27
-43.26
-48.04
-51.48
-52.28
-49.47
-42.74
-32.73
-20.79
-8.59
2.38
11.22
17.69
22.03
24.7
26.12
26.57
26.28
25.46
24.42
23.51
22.99
23.01
23.53
24.37
25.35
26.34
27.25
28.03
28.59
28.76
28.35
27.19
25.24
22.63
19.61
16.45
13.36
10.41
7.52
4.5
1.24
-2.26
-5.88
-9.38
-12.58
-15.47
-18.21
-21.16
-24.73
-29.23
-34.7
-40.73
-46.41
-50.46
-51.58
-48.88
-42.22
-32.32
-20.57
-8.58
2.3
11.23
17.93
22.55
25.39
26.76
26.94
26.23
24.95
23.54
22.43
21.95
22.31
23.44
25.11
27.0
28.85
30.5
31.91
33.02
33.72
33.79
33.03
31.35
28.9
25.99
23.03
20.33
18.03
15.96
13.83
11.32
8.28
4.83
1.3
-1.9
-4.54
-6.66
-8.61
-10.81
-13.64
-17.3
-21.82
-27.09
-32.78
-38.25
-42.47
-44.17
-42.21
-36.04
-26.04
-13.48
-0.16
12.12
22.06
29.12
33.41
35.44
35.88
35.3
34.18
32.87
31.7
30.94
30.8
31.33
32.43
33.8
35.14
36.2
36.88
37.18
37.14
36.73
35.81
34.23
31.97
29.16
26.08
22.97
19.95
16.93
13.67
9.98
5.84
1.41
-3.01
-7.13
-10.83
-14.17
-17.35
-20.68
-24.46
-28.95
-34.29
-40.29
-46.36
-51.39
-54.05
-53.1
-47.93
-38.84
-27.08
-14.46
-2.8
6.54
12.95
16.47
17.57
16.76
14.5
11.2
7.33
3.54
0.56
-0.97
-0.71
1.28
4.49
8.27
11.94
14.99
17.18
18.42
18.76
18.3
17.17
15.47
13.25
10.53
7.29
3.54
-0.65
-5.15
-9.76
-14.28
-18.52
-22.35
-25.77
-28.91
-32.08
-35.72
-40.28
-45.99
-52.6
-59.27
-64.62
-67.06
-65.35
-59.01
-48.58
-35.45
-21.41
-8.14
3.22
12.16
18.66
22.91
25.12
25.49
24.31
22.02
19.2
16.46
14.32
13.06
12.76
13.27
14.29
15.42
16.26
16.51
16.0
14.73
12.82
10.37
7.45
4.07
0.25
-3.95
-8.37
-12.84
-17.23
-21.51
-25.67
-29.68
-33.46
-36.93
-40.07
-43.03
-46.15
-49.93
-54.71
-60.46
-66.49
-71.55
-74.09
-72.72
-66.76
-56.47
-43.0
-27.98
-13.08
0.44
11.86
20.88
27.49
31.76
33.87
34.17
33.18
31.58
30.06
29.12
29.04
29.77
31.06
32.54
33.84
34.64
34.71
33.96
32.43
30.26
27.72
25.04
22.39
19.82
17.17
14.24
10.78
6.66
1.97
-3.07
-8.09
-12.79
-16.93
-20.52
-23.7
-26.8
-30.22
-34.29
-39.11
-44.3
-48.95
-51.74
-51.24
-46.44
-37.13
-24.06
-8.72
7.06
21.68
34.05
43.67
50.48
54.68
56.56
56.48
54.94
52.6
50.17
48.25
47.25
47.24
47.97
49.03
49.98
50.51
50.5
49.99
49.06
47.83
46.31
44.48
42.25
39.47
35.99
31.66
26.52
20.78
14.89
9.34
4.48
0.36
-3.26
-6.79
-10.58
-14.87
-19.74
-25.23
-31.33
-37.79
-43.94
-48.6
-50.36
-48.02
-41.2
-30.56
-17.66
-4.4
7.59
17.35
24.71
29.91
33.25
34.84
34.65
32.73
29.51
25.86
22.8
21.19
21.34
22.93
25.16
27.13
28.18
28.07
26.95
25.19
23.1
20.8
18.18
14.95
10.87
5.86
0.14
-5.86
-11.56
-16.49
-20.46
-23.65
-26.58
-29.99
-34.58
-40.74
-48.23
-56.07
-62.64
-66.12
-65.08
-58.96
-48.38
-34.89
-20.55
-7.32
3.38
10.82
14.9
15.89
14.26
10.65
5.8
0.55
-4.29
-8.04
-10.32
-11.07
-10.5
-8.95
-6.82
-4.45
-2.21
-0.45
0.52
0.55
-0.29
-1.69
-3.19
-4.45
-5.35
-6.08
-7.07
-8.73
-11.31
-14.71
-18.51
-22.17
-25.21
-27.5
-29.23
-30.89
-33.08
-36.25
-40.58
-45.76
-50.96
-54.89
-56.07
-53.25
-45.8
-34.06
-19.3
-3.42
11.64
24.37
33.94
40.29
43.79
45.06
44.75
43.46
41.72
40.0
38.65
37.86
37.7
38.05
38.67
39.29
39.66
39.65
39.3
38.68
37.87
36.81
35.3
33.09
30.06
26.26
22.0
17.73
13.86
10.56
7.79
5.24
2.54
-0.56
-4.09
-7.8
-11.36
-14.47
-17.14
-19.63
-22.44
-26.12
-31.05
-37.27
-44.32
-51.2
-56.52
-58.75
-56.68
-49.83
-38.7
-24.74
-9.89
3.96
15.5
24.16
30.02
33.5
35.1
35.29
34.49
33.15
31.76
30.79
30.55
31.12
32.32
33.84
35.32
36.48
37.2
37.51
37.5
37.25
36.73
35.74
34.03
31.41
27.87
23.7
19.36
15.37
12.06
9.49
7.4
5.34
2.9
-0.17
-3.84
-7.86
-11.89
-15.65
-19.03
-22.09
-25.12
-28.43
-32.36
-37.02
-42.2
-47.2
-50.9
-52.0
-49.42
-42.69
-32.21
-19.24
-5.53
7.21
17.72
25.41
30.35
32.94
33.71
33.1
31.48
29.23
26.8
24.67
23.32
23.02
23.74
25.18
26.87
28.33
29.26
29.55
29.21
28.34
26.95
24.97
22.28
18.82
14.64
9.93
4.97
-0.04
-4.95
-9.76
-14.51
-19.27
-23.99
-28.6
-32.94
-36.94
-40.67
-44.39
-48.48
-53.27
-58.78
-64.5
-69.32
-71.76
-70.49
-64.81
-54.99
-42.26
-28.37
-15.05
-3.49
5.81
12.91
18.04
21.42
23.08
23.06
21.59
19.24
16.84
15.26
15.14
16.66
19.49
22.91
26.13
28.51
29.79
30.06
29.61
28.71
27.47
25.82
23.6
20.68
17.08
12.95
8.49
3.95
-0.47
-4.57
-8.26
-11.52
-14.51
-17.54
-21.01
-25.27
-30.41
-36.05
-41.34
-45.07
-46.04
-43.43
-37.2
-28.08
-17.39
-6.66
2.82
10.22
15.31
18.29
19.66
19.94
19.59
18.91
18.09
17.25
16.56
16.23
16.51
17.58
19.34
21.48
23.46
24.8
25.14
24.43
22.79
20.45
17.65
14.59
11.41
8.2
4.98
1.73
-1.61
-5.08
-8.71
-12.43
-16.13
-19.71
-23.07
-26.21
-29.19
-32.22
-35.57
-39.6
-44.44
-49.85
-55.02
-58.66
-59.38
-56.19
-48.99
-38.67
-26.82
-15.19
-5.14
2.7
8.31
12.04
14.29
15.38
15.52
15.02
14.28
13.77
13.82
14.57
15.84
17.35
18.83
20.19
21.48
22.8
24.16
25.35
26.07
26.03
25.13
23.45
21.21
18.64
15.88
12.96
9.86
6.58
3.17
-0.32
-3.84
-7.33
-10.71
-13.93
-16.97
-19.94
-23.06
-26.66
-30.99
-36.08
-41.51
-46.43
-49.69
-50.14
-47.0
-40.17
-30.35
-18.82
-7.13
3.36
11.78
17.85
21.77
23.95
24.84
24.81
24.15
23.18
22.17
21.41
21.11
21.35
22.15
23.41
24.97
26.67
28.31
29.69
30.6
30.79
30.06
28.27
25.48
22.0
18.27
14.78
11.83
9.42
7.26
4.97
2.27
-0.87
-4.21
-7.42
-10.28
-12.77
-15.07
-17.51
-20.4
-24.0
-28.45
-33.7
-39.44
-44.95
-49.2
-51.01
-49.48
-44.29
-35.9
-25.45
-14.41
-4.14
4.46
11.01
15.6
18.56
20.26
21.03
21.15
20.89
20.54
20.38
20.64
21.42
22.64
24.09
25.55
26.82
27.84
28.6
29.09
29.22
28.82
27.71
25.86
23.42
20.68
17.95
15.38
12.9
10.27
7.24
3.78
0.07
-3.52
-6.69
-9.34
-11.71
-14.21
-17.28
-21.21
-25.94
-31.12
-36.09
-40.04
-42.12
-41.63
-38.24
-32.11
-23.88
-14.56
-5.28
3.01
9.67
14.45
17.32
18.43
17.99
16.34
13.92
11.28
9.0
7.53
7.06
7.52
8.55
9.68
10.52
10.89
10.83
10.52
10.07
9.44
8.42
6.74
4.29
1.19
-2.25
-5.67
-8.83
-11.68
-14.33
-16.92
-19.6
-22.51
-25.83
-29.72
-34.2
-38.93
-43.16
-45.81
-45.83
-42.59
-36.14
-27.28
-17.25
-7.38
1.29
8.21
13.31
16.79
18.87
19.69
19.34
17.96
15.87
13.6
11.76
10.81
10.9
11.8
13.01
14.01
14.46
14.26
13.54
12.52
11.37
10.13
8.66
6.76
4.26
1.09
-2.66
-6.71
-10.74
-14.42
-17.61
-20.37
-22.95
-25.73
-29.04
-33.13
-38.01
-43.43
-48.75
-53.05
-55.21
-54.27
-49.73
-41.82
-31.47
-20.09
-9.14
0.27
7.61
12.89
16.48
18.85
20.37
21.22
21.51
21.35
20.95
20.59
20.55
21.0
21.88
22.94
23.85
24.33
24.28
23.75
22.9
21.85
20.62
19.16
17.38
15.25
12.74
9.9
6.72
3.26
-0.44
-4.26
-8.06
-11.69
-15.03
-18.06
-20.88
-23.72
-26.93
-30.86
-35.71
-41.28
-46.89
-51.36
-53.36
-51.84
-46.46
-37.73
-26.91
-15.49
-4.83
4.27
11.53
17.12
21.35
24.45
26.53
27.65
27.93
27.65
27.19
26.93
27.1
27.71
28.57
29.41
30.07
30.53
30.88
31.18
31.35
31.2
30.46
28.96
26.74
24.03
21.16
18.37
15.75
13.25
10.71
7.98
4.94
1.6
-1.98
-5.69
-9.37
-12.87
-16.09
-19.07
-22.01
-25.29
-29.3
-34.17
-39.62
-44.84
-48.62
-49.75
-47.37
-41.34
-32.27
-21.38
-10.13
0.13
8.47
14.48
18.24
20.19
20.86
20.76
20.2
19.35
18.32
17.29
16.57
16.43
17.01
18.16
19.46
20.4
20.6
20.0
18.87
17.59
16.43
15.44
14.37
12.9
10.71
7.71
3.98
-0.18
-4.37
-8.24
-11.54
-14.23
-16.45
-18.51
-20.76
-23.55
-27.15
-31.68
-36.99
-42.58
-47.55
-50.72
-50.97
-47.6
-40.62
-30.83
-19.58
-8.35
1.64
9.7
15.61
19.55
21.85
22.83
22.76
21.88
20.53
19.06
17.86
17.22
17.24
17.8
18.64
19.45
20.05
20.32
20.23
19.77
18.86
17.45
15.53
13.16
10.47
7.53
4.34
0.86
-2.94
-7.01
-11.18
-15.23
-18.98
-22.36
-25.41
-28.3
-31.26
-34.57
-38.53
-43.29
-48.76
-54.39
-59.12
-61.64
-60.71
-55.65
-46.67
-34.83
-21.71
-8.97
2.18
11.12
17.8
22.52
25.65
27.55
28.49
28.69
28.42
27.97
27.61
27.53
27.81
28.37
29.07
29.77
30.4
30.92
31.29
31.36
30.88
29.58
27.33
24.21
20.58
16.89
13.56
10.72
8.24
5.77
2.91
-0.56
-4.64
-9.09
-13.56
-17.73
-21.46
-24.79
-28.04
-31.61
-35.9
-41.12
-47.04
-52.96
-57.73
-59.98
-58.57
-52.99
-43.56
-31.41
-18.08
-5.12
6.31
15.61
22.67
27.73
31.12
33.2
34.28
34.63
34.51
34.18
33.9
33.82
34.01
34.4
34.88
35.32
35.71
36.1
36.5
36.82
36.8
36.07
34.32
31.47
27.76
23.67
19.74
16.35
13.57
11.14
8.6
5.55
1.78
-2.59
-7.24
-11.74
-15.78
-19.26
-22.31
-25.27
-28.6
-32.77
-38.02
-44.2
-50.6
-55.98
-58.81
-57.76
-52.19
-42.45
-29.77
-15.93
-2.67
8.74
17.72
24.23
28.56
31.02
31.88
31.33
29.66
27.26
24.67
22.45
21.0
20.49
20.75
21.39
21.92
21.97
21.4
20.32
19.01
17.72
16.49
15.13
13.26
10.55
6.89
2.51
-2.11
-6.47
-10.21
-13.27
-15.86
-18.34
-21.09
-24.45
-28.62
-33.61
-39.15
-44.62
-49.0
-51.1
-49.86
-44.75
-35.98
-24.5
-11.77
0.7
11.68
20.42
26.61
30.3
31.7
31.12
29.01
25.89
22.42
19.26
16.97
15.86
15.92
16.82
18.0
18.88
19.04
18.35
16.98
15.29
13.57
11.91
10.1
7.76
4.54
0.33
-4.66
-10.01
-15.22
-19.91
-23.95
-27.46
-30.76
-34.24
-38.3
-43.24
-49.17
-55.8
-62.42
-67.82
-70.56
-69.35
-63.5
-53.23
-39.71
-24.68
-9.99
2.98
13.52
21.57
27.41
31.37
33.69
34.49
33.99
32.57
30.8
29.27
28.44
28.46
29.18
30.22
31.14
31.58
31.34
30.4
28.87
26.91
24.61
22.03
19.11
15.74
11.82
7.35
2.45
-2.65
-7.62
-12.19
-16.22
-19.77
-23.07
-26.45
-30.28
-34.89
-40.49
-46.98
-53.83
-60.03
-64.2
-64.93
-61.21
-52.88
-40.67
-26.07
-10.92
3.13
14.95
24.07
30.62
35.02
37.74
39.16
39.55
39.15
38.31
37.43
36.91
36.92
37.41
38.08
38.56
38.64
38.33
37.8
37.23
36.66
35.89
34.6
32.49
29.49
25.79
21.79
17.93
14.47
11.41
8.47
5.24
1.41
-3.12
-8.13
-13.2
-17.9
-21.94
-25.35
-28.38
-31.54
-35.38
-40.34
-46.56
-53.64
-60.54
-65.75
-67.6
-64.84
-57.04
-44.86
-29.85
-14.02
0.75
13.12
22.55
29.12
33.29
35.62
36.6
36.65
36.13
35.41
34.8
34.49
34.49
34.68
34.89
35.01
35.05
35.02
34.96
34.76
34.24
33.22
31.53
29.15
26.16
22.72
19.03
15.26
11.52
7.83
4.1
0.23
-3.89
-8.2
-12.52
-16.54
-20.05
-23.0
-25.62
-28.36
-31.77
-36.25
-41.84
-48.03
-53.72
-57.46
-57.79
-53.84
-45.58
-33.95
-20.5
-7.01
5.11
15.0
22.4
27.4
30.24
31.11
30.25
27.97
24.81
21.49
18.8
17.35
17.35
18.54
20.25
21.7
22.27
21.76
20.4
18.62
16.81
15.05
13.11
10.58
7.21
3.0
-1.74
-6.52
-10.89
-14.6
-17.65
-20.29
-22.89
-25.86
-29.55
-34.17
-39.66
-45.62
-51.2
-55.28
-56.64
-54.37
-48.19
-38.6
-26.77
-14.18
-2.21
8.18
16.5
22.6
26.49
28.18
27.8
25.71
22.59
19.44
17.29
16.86
18.37
21.38
24.95
27.97
29.61
29.5
27.88
25.33
22.52
19.86
17.38
14.82
11.83
8.19
3.94
-0.62
-5.09
-9.07
-12.39
-15.1
-17.49
-20.04
-23.23
-27.45
-32.82
-39.09
-45.61
-51.42
-55.4
-56.51
-54.08
-47.94
-38.62
-27.14
-14.83
-3.02
7.3
15.62
21.89
26.43
29.68
31.96
33.43
34.1
33.91
32.93
31.42
29.76
28.39
27.55
27.24
27.2
27.1
26.64
25.7
24.32
22.62
20.68
18.49
15.96
12.97
9.52
5.68
1.66
-2.3
-6.03
-9.49
-12.75
-15.99
-19.38
-23.12
-27.32
-32.1
-37.55
-43.64
-50.06
-56.1
-60.7
-62.58
-60.74
-54.79
-45.24
-33.38
-20.89
-9.33
0.27
7.57
12.83
16.58
19.39
21.66
23.6
25.24
26.54
27.47
28.06
28.43
28.73
29.09
29.55
30.08
30.53
30.78
30.71
30.22
29.24
27.68
25.48
22.67
19.39
15.86
12.33
9.0
5.9
2.95
-0.02
-3.17
-6.52
-10.02
-13.52
-16.91
-20.2
-23.56
-27.32
-31.79
-37.06
-42.77
-48.08
-51.78
-52.67
-49.9
-43.37
-33.78
-22.44
-10.9
-0.49
7.94
14.18
18.49
21.36
23.24
24.4
24.94
24.93
24.52
24.0
23.73
23.94
24.66
25.71
26.77
27.55
27.9
27.78
27.24
26.35
25.14
23.64
21.89
19.94
17.8
15.46
12.87
10.02
6.99
3.94
1.02
-1.69
-4.25
-6.81
-9.55
-12.63
-16.17
-20.3
-25.06
-30.42
-35.95
-40.86
-44.01
-44.29
-41.03
-34.32
-25.05
-14.63
-4.51
4.23
11.09
16.07
19.4
21.34
21.99
21.47
19.94
17.8
15.6
13.9
13.15
13.43
14.52
15.93
17.12
17.67
17.44
16.56
15.3
13.96
12.67
11.32
9.65
7.37
4.37
0.8
-2.97
-6.56
-9.72
-12.44
-14.93
-17.46
-20.27
-23.51
-27.25
-31.45
-35.85
-39.91
-42.8
-43.58
-41.53
-36.41
-28.64
-19.18
-9.24
0.06
7.95
14.04
18.22
20.57
21.24
20.5
18.74
16.45
14.18
12.39
11.4
11.31
12.0
13.2
14.51
15.56
16.02
15.77
14.86
13.47
11.82
10.02
8.04
5.74
2.99
-0.22
-3.72
-7.25
-10.56
-13.52
-16.16
-18.64
-21.15
-23.87
-26.97
-30.62
-34.9
-39.67
-44.4
-48.16
-49.8
-48.36
-43.38
-35.26
-25.05
-14.18
-3.97
4.69
11.43
16.29
19.49
21.28
21.93
21.72
20.98
20.09
19.36
18.99
19.01
19.31
19.71
20.04
20.24
20.29
20.19
19.92
19.4
18.49
17.06
15.1
12.71
10.07
7.4
4.85
2.43
0.04
-2.47
-5.28
-8.5
-12.11
-15.97
-19.79
-23.33
-26.43
-29.22
-32.06
-35.45
-39.76
-44.99
-50.61
-55.64
-58.87
-59.2
-56.07
-49.61
-40.68
-30.59
-20.76
-12.29
-5.77
-1.22
1.69
3.43
4.4
4.87
5.09
5.41
6.34
8.49
12.35
18.06
25.26
33.17
40.96
48.06
54.32
59.92
65.08
69.72
73.49
75.89
76.59
75.71
73.71
71.17
