2013-02-25 12:16:22
64.0
-0.0
-0.0
-0.0
-0.0
-0.0
-0.0
-0.0
-0.0
-0.0
-0.0
0.0
0.01
0.01
-0.0
-0.03
-0.05
-0.05
0.0
0.13
0.36
0.66
1.01
1.37
1.72
2.06
2.4
2.79
3.24
3.8
4.42
5.06
5.66
6.2
6.68
7.15
7.68
8.31
9.14
10.09
11.04
11.88
12.56
13.14
13.76
14.65
15.96
17.91
20.32
22.9
25.38
27.58
29.57
31.68
34.32
37.81
42.54
48.15
54.1
59.83
64.97
69.58
74.14
79.34
85.71
93.76
103.0
112.62
121.73
129.77
136.75
143.3
150.75
157.77
166.64
177.95
191.79
206.97
220.57
228.25
225.36
208.53
176.87
132.76
80.05
23.07
-34.94
-92.44
-149.16
-205.23
-260.37
-313.74
-363.87
-409.83
-450.91
-486.5
-515.74
-537.23
-549.22
-549.96
-538.37
-514.21
-478.67
-433.88
-382.45
-327.02
-269.84
-212.63
-156.66
-102.95
-52.37
-5.9
35.58
71.43
101.35
125.5
144.38
158.69
169.15
176.37
180.75
182.57
182.07
179.51
175.23
169.65
163.18
156.15
148.81
141.3
133.69
126.02
118.33
110.69
103.16
95.8
88.68
81.83
75.25
68.95
62.95
57.25
51.86
46.78
42.03
37.59
33.45
29.61
26.07
22.81
19.83
17.11
14.67
12.48
10.54
8.83
7.35
6.07
4.97
4.05
3.27
2.62
2.09
1.65
1.3
1.01
0.79
0.61
0.47
0.37
0.29
0.23
0.18
0.15
0.14
0.13
0.14
0.15
0.17
0.2
0.23
0.27
0.31
0.36
0.4
0.45
0.5
0.54
0.59
0.65
0.7
0.76
0.82
0.89
0.96
1.04
1.13
1.23
1.35
1.47
1.62
1.78
1.95
2.16
2.38
2.62
2.9
3.2
3.54
3.9
4.3
4.74
5.21
5.73
6.28
6.87
7.5
8.18
8.9
9.66
10.47
11.32
12.21
13.14
14.13
15.19
16.33
17.53
18.77
20.03
21.24
22.35
23.31
24.06
24.51
24.53
24.01
22.77
20.71
17.77
13.99
9.48
4.49
-0.71
-5.84
-10.66
-15.03
-18.83
-22.03
-24.55
-26.32
-27.25
-27.29
-26.47
-24.99
-23.16
-21.36
-19.87
-18.82
-18.07
-17.31
-16.22
-14.62
-12.64
-10.71
-9.38
-9.07
-9.87
-11.42
-13.04
-14.06
-14.13
-13.48
-12.8
-13.08
-15.0
-18.69
-23.5
-28.31
-32.06
-34.12
-34.64
-34.44
-34.64
-36.26
-40.02
-46.25
-54.74
-64.35
-72.67
-76.37
-72.38
-59.42
-39.2
-16.24
3.82
16.58
20.83
18.74
14.34
11.26
11.12
13.2
15.54
16.39
15.17
11.98
7.46
2.44
-2.05
-4.56
-3.31
3.39
16.25
34.31
54.71
73.59
87.16
93.05
90.94
82.52
70.87
59.44
51.21
48.01
50.29
57.12
66.33
74.94
79.95
79.14
71.78
58.92
42.98
26.91
13.12
2.5
-5.79
-13.7
-23.2
-35.01
-48.01
-59.49
-66.42
-66.91
-61.26
-51.82
-42.07
-35.01
-32.23
-33.59
-37.86
-43.51
-49.18
-53.66
-55.48
-52.78
-43.7
-27.25
-4.27
21.99
46.42
63.34
68.43
60.55
42.47
20.3
1.61
-7.21
-3.02
13.21
37.05
62.19
82.22
92.02
88.64
71.86
44.45
11.93
-18.52
-40.06
-48.46
-43.55
-29.29
-12.09
1.81
8.49
7.34
0.45
-8.99
-18.28
-26.08
-32.47
-38.34
-44.57
-51.47
-58.53
-64.64
-68.59
-69.69
-67.96
-63.86
-57.71
-49.17
-37.33
-21.53
-2.29
18.1
36.02
47.81
51.29
46.67
36.27
23.39
10.85
0.25
-8.07
-14.1
-17.49
-17.19
-12.04
-1.69
12.72
28.43
41.76
49.34
49.31
41.93
29.4
14.72
0.48
-12.12
-23.38
-34.42
-46.18
-58.67
-70.93
-81.72
-90.12
-95.86
-98.84
-98.53
-93.54
-82.28
-63.95
-39.63
-12.43
13.71
35.66
52.43
65.15
75.99
86.09
94.37
97.76
92.78
77.74
54.24
27.01
2.25
-14.68
-21.13
-17.68
-7.26
6.37
20.04
31.65
39.91
43.61
41.52
32.72
17.54
-1.87
-21.9
-38.61
-49.44
-54.3
-55.48
-56.6
-60.7
-68.92
-80.16
-91.86
-101.26
-106.29
-105.93
-99.75
-87.58
-69.59
-46.58
-20.46
5.93
29.45
47.63
59.41
65.36
67.09
66.33
64.29
61.19
56.64
50.14
41.77
32.48
23.88
17.64
14.79
15.36
18.6
23.7
30.53
39.79
52.21
67.33
82.72
94.01
96.33
86.53
64.84
35.33
4.44
-21.35
-37.96
-44.77
-44.36
-40.94
-38.66
-40.27
-46.51
-56.09
-65.91
-71.83
-69.53
-55.89
-30.11
5.6
46.3
85.64
117.61
138.24
146.24
142.87
130.9
113.58
93.68
73.27
53.83
36.49
22.0
10.75
2.6
-2.9
-6.23
-7.34
-5.63
-0.28
9.02
21.36
34.45
45.26
51.22
51.24
46.3
39.05
32.57
28.84
27.85
27.75
25.74
19.67
9.07
-4.47
-17.95
-28.11
-32.5
-29.87
-20.02
-3.41
18.93
45.33
73.08
98.45
117.6
127.82
128.69
122.22
111.87
100.55
89.2
76.11
57.86
31.32
-4.41
-46.96
-91.14
-130.36
-158.65
-172.31
-171.13
-158.48
-140.85
-126.3
-122.22
-132.7
-156.77
-188.23
-217.33
-234.04
-231.53
-208.56
-170.08
-125.52
-85.55
-58.91
-49.58
-55.86
-71.01
-85.57
-90.26
-78.75
-49.16
-4.19
50.06
105.99
156.13
194.19
215.61
218.07
202.01
171.08
131.84
92.33
59.84
38.43
27.56
22.75
17.93
8.35
-7.41
-27.05
-46.49
-61.92
-71.68
-76.36
-77.69
-77.1
-75.09
-71.61
-67.05
-63.08
-62.24
-66.95
-78.25
-95.3
-115.71
-136.54
-155.04
-168.97
-176.55
-176.41
-167.89
-151.3
-128.11
-100.57
-71.26
-42.42
-15.78
7.22
25.3
37.31
42.66
41.7
35.9
27.75
20.55
17.93
23.11
38.18
62.96
94.7
128.34
157.94
178.62
188.04
186.84
177.59
163.36
146.53
128.46
109.99
92.12
76.1
63.06
53.39
46.22
39.85
32.23
21.7
7.64
-9.22
-26.91
-42.76
-53.99
-58.71
-56.42
-48.12
-35.92
-22.21
-8.95
2.7
12.36
20.29
26.94
32.85
38.55
44.37
50.41
56.51
62.08
66.24
68.02
66.77
62.5
56.03
48.82
42.49
38.03
35.33
33.09
29.5
23.0
13.03
0.07
-14.75
-30.32
-45.9
-61.04
-75.22
-87.55
-96.81
-101.82
-102.21
-98.58
-92.37
-85.23
-78.29
-71.61
-64.17
-54.52
-41.45
-24.7
-5.14
15.24
33.67
47.28
53.82
52.42
44.06
31.44
18.24
7.89
2.66
3.28
9.23
19.36
32.37
46.88
61.25
73.43
81.45
84.02
81.06
73.74
63.82
52.83
41.52
29.82
17.29
3.58
-11.41
-27.53
-44.66
-62.87
-82.12
-102.02
-121.53
-139.06
-152.88
-161.6
-164.22
-160.07
-148.5
-128.96
-101.51
-67.54
-30.31
5.38
34.37
53.05
60.71
59.82
54.85
50.34
48.96
50.71
53.33
54.01
50.83
43.74
34.39
25.32
18.84
16.34
18.1
23.74
32.67
44.33
57.95
72.25
85.17
94.14
96.88
92.45
81.75
67.24
51.89
37.84
25.6
14.23
2.1
-12.05
-28.5
-46.96
-66.87
-87.67
-108.16
-125.94
-137.31
-138.17
-126.01
-101.39
-68.31
-32.96
-1.4
22.52
37.79
45.48
47.29
44.44
37.52
27.18
14.88
2.91
-6.51
-12.41
-15.66
-18.63
-23.9
-32.75
-44.34
-55.99
-64.39
-66.87
-62.25
-51.01
-34.78
-15.76
3.82
21.99
37.09
48.03
54.21
55.67
53.02
47.18
39.05
29.26
17.97
5.12
-9.08
-23.71
-36.82
-45.77
-48.11
-42.52
-29.5
-11.25
9.3
29.56
48.22
65.15
80.81
95.26
107.69
116.5
119.95
116.9
107.39
92.72
75.22
57.7
42.81
32.38
26.9
25.29
25.29
24.25
20.1
12.22
1.5
-10.12
-20.55
-28.26
-32.42
-32.8
-29.51
-23.07
-14.63
-6.27
-0.85
-1.22
-9.08
-24.02
-43.22
-62.21
-76.74
-84.32
-85.48
-83.43
-82.35
-85.38
-92.81
-101.68
-106.88
-103.22
-87.39
-59.1
-20.99
22.32
65.29
102.51
129.37
142.81
141.88
128.24
105.95
80.49
57.21
39.65
28.57
22.04
16.65
9.23
-1.42
-14.0
-25.18
-31.08
-29.16
-19.2
-3.58
13.56
27.7
35.12
33.56
22.47
3.18
-21.19
-46.1
-66.34
-77.42
-77.15
-66.53
-49.58
-32.15
-19.56
-14.86
-17.7
-24.65
-30.6
-30.68
-21.94
-4.28
19.66
45.44
68.26
84.31
91.43
89.34
79.25
63.35
44.44
25.46
8.98
-3.51
-11.86
-17.29
-21.6
-26.21
-31.32
-36.07
-39.32
-40.38
-39.56
-37.7
-35.52
-33.3
-30.77
-27.61
-23.73
-19.35
-14.78
-10.48
-7.2
-6.13
-8.66
-15.41
-25.27
-35.03
-40.25
-37.11
-24.3
-3.73
20.51
44.15
64.43
80.65
93.16
102.03
106.36
104.67
96.34
82.56
66.06
49.69
34.64
19.64
1.91
-20.85
-48.49
-77.72
-103.3
-120.07
-124.85
-117.31
-99.56
-75.26
-48.86
-25.08
-8.53
-2.98
-10.2
-29.05
-55.14
-81.96
-102.61
-111.79
-107.11
-89.26
-61.37
-27.97
6.02
35.86
57.86
70.02
72.63
68.39
61.68
57.12
57.96
65.0
76.62
89.68
101.04
108.85
112.84
113.87
112.81
109.48
102.51
89.85
69.93
42.84
10.76
-22.55
-52.83
-76.9
-93.57
-103.73
-109.72
-114.07
-118.44
-122.94
-126.06
-125.41
-118.54
-103.93
-81.68
-53.48
-22.1
9.45
38.76
64.11
84.34
98.18
104.12
100.75
87.65
66.21
39.83
13.06
-9.65
-25.25
-32.61
-32.28
-25.73
-14.7
-0.9
13.77
27.2
37.12
41.77
40.48
34.01
24.19
13.04
1.63
-10.37
-24.46
-42.32
-64.6
-90.11
-115.89
-137.85
-152.05
-155.62
-147.25
-127.25
-97.11
-59.42
-17.52
24.47
62.15
91.67
110.67
119.08
119.16
114.59
108.96
104.37
100.61
95.66
86.84
72.46
52.71
29.66
6.44
-13.57
-27.47
-32.87
-28.14
-13.03
10.41
37.1
59.41
69.2
60.82
33.72
-6.61
-50.31
-86.63
-107.89
-112.03
-102.98
-88.6
-77.21
-74.46
-81.32
-94.14
-106.42
-111.48
-104.84
-85.54
-55.79
-19.7
18.25
54.43
86.26
111.87
129.87
139.31
140.2
133.95
123.14
110.6
98.13
85.66
71.16
51.92
26.19
-5.32
-38.92
-68.76
-88.58
-93.9
-83.57
-60.36
-30.19
-0.56
21.47
31.06
26.71
10.55
-12.25
-35.16
-52.24
-60.12
-59.34
-54.0
-50.19
-53.28
-65.33
-83.95
-102.83
-114.2
-111.85
-93.32
-60.63
-19.11
24.65
64.82
97.53
121.05
135.3
141.42
141.24
136.95
130.33
121.87
110.34
93.09
67.37
32.24
-10.11
-54.18
-92.42
-117.45
-124.16
-111.01
-80.28
-37.4
10.2
54.42
87.98
105.88
106.52
92.06
67.8
40.63
16.92
0.79
-6.92
-8.69
-9.33
-14.35
-28.08
-51.96
-83.48
-116.39
-142.21
-152.93
-143.53
-113.78
-68.25
-14.71
38.22
83.4
116.42
135.8
142.46
138.88
128.28
114.19
99.7
86.9
76.24
66.36
54.9
39.57
19.57
-3.69
-26.72
-45.16
-55.18
-54.93
-44.97
-27.96
-7.71
12.04
28.24
38.95
43.2
40.84
32.55
19.76
4.46
-11.23
-25.77
-38.69
-50.75
-63.41
-77.72
-93.1
-106.86
-114.66
-112.08
-96.58
-68.8
-32.72
5.69
40.49
67.61
85.65
95.39
98.57
96.7
90.53
80.5
67.47
53.03
39.15
27.1
16.73
6.4
-6.07
-21.93
-40.51
-59.15
-74.23
-82.71
-83.2
-76.13
-63.22
-46.45
-27.45
-7.32
13.18
33.34
52.42
69.52
83.6
93.47
97.79
95.19
84.65
65.93
40.01
9.35
-22.19
-49.91
-69.19
-76.65
-71.21
-54.57
-30.76
-4.95
18.19
35.77
47.04
52.71
53.96
51.53
45.7
36.95
26.48
16.34
8.72
4.83
4.2
4.74
3.73
-0.98
-10.06
-22.62
-36.77
-50.36
-61.41
-68.25
-69.47
-64.1
-52.04
-34.65
-14.83
3.41
15.96
19.83
14.02
-0.26
-19.95
-41.04
-59.52
-72.22
-77.32
-74.53
-64.89
-50.27
-32.79
-14.23
4.26
22.09
39.01
54.67
68.33
78.91
85.17
86.2
81.82
72.68
60.11
45.81
31.4
18.23
7.18
-1.28
-7.19
-11.17
-14.47
-18.85
-26.09
-37.4
-52.81
-71.01
-89.6
-105.7
-116.65
-120.46
-116.26
-104.39
-86.6
-65.88
-45.97
-30.52
-21.9
-20.25
-23.28
-26.98
-27.11
-20.76
-7.42
10.85
30.35
47.09
58.1
62.29
60.45
54.71
47.7
41.72
38.28
37.86
40.07
43.91
48.0
50.92
51.38
48.47
41.85
31.87
19.53
6.27
-6.55
-18.03
-28.1
-37.55
-47.66
-59.74
-74.71
-92.73
-113.23
-135.01
-156.34
-175.24
-189.45
-196.71
-194.93
-182.52
-158.78
-123.9
-79.04
-26.23
31.67
90.93
147.0
195.04
230.7
251.24
256.23
247.54
228.63
203.31
174.76
145.22
116.19
88.97
64.99
45.52
31.24
21.82
16.11
12.68
10.5
9.22
8.91
9.32
9.31
6.76
-0.88
-15.56
-37.79
-65.97
-96.38
-123.88
-143.06
-149.94
-143.62
-127.13
-107.14
-91.76
-87.31
-95.58
-112.68
-130.46
-139.88
-134.61
-113.36
-79.71
-40.1
-1.07
32.74
59.12
77.58
88.46
92.28
90.1
83.91
76.73
71.99
72.26
78.21
87.98
97.76
103.19
101.11
90.75
74.08
54.9
37.36
24.48
17.21
14.25
12.8
9.67
2.43
-9.77
-25.93
-43.58
-59.72
-71.91
-79.19
-82.4
-83.95
-87.03
-94.66
-108.75
-129.47
-154.94
-181.41
-203.96
-217.63
-218.78
-206.07
-180.79
-146.11
-105.66
-62.07
-16.24
32.2
83.33
135.31
184.03
223.91
250.15
260.67
257.02
243.52
225.12
205.29
184.95
162.99
137.73
108.45
75.94
42.26
9.67
-20.07
-46.06
-68.01
-85.96
-100.12
-110.91
-118.94
-124.89
-129.14
-131.48
-131.17
-127.22
-119.0
-106.62
-90.85
-72.82
-53.43
-33.14
-12.17
9.08
29.35
46.38
57.36
59.96
53.28
38.62
19.32
0.03
-14.31
-19.54
-12.99
5.98
35.88
73.0
111.73
145.43
167.61
173.45
161.11
132.37
92.34
48.22
7.52
-23.8
-42.68
-49.47
-47.45
-41.83
-38.14
-40.87
-52.37
-72.28
-97.62
-123.45
-143.99
-154.19
-151.12
-134.67
-107.58
-74.14
-38.75
-4.61
26.75
55.06
80.45
102.54
120.23
131.96
136.44
133.29
123.33
108.44
91.03
73.41
57.19
43.28
31.96
23.32
17.59
15.13
16.12
20.06
25.48
30.21
31.94
29.18
21.79
11.06
-0.82
-11.6
-20.01
-26.11
-31.28
-37.6
-47.17
-61.3
-80.08
-102.28
-125.31
-145.48
-158.36
-159.86
-147.48
-121.61
-86.01
-46.79
-10.61
17.77
36.64
47.25
52.42
54.82
56.1
57.04
58.25
60.65
65.26
72.33
80.64
87.59
90.13
86.24
75.82
60.89
44.61
30.06
18.98
11.08
4.35
-4.07
-16.53
-33.65
-53.56
-72.21
-84.41
-85.65
-73.77
-49.87
-18.52
13.53
39.01
52.14
50.29
34.44
8.79
-20.8
-48.52
-70.15
-83.58
-88.7
-86.41
-77.87
-64.01
-45.8
-24.68
-2.91
16.66
31.38
39.72
41.85
39.63
35.99
33.87
35.38
41.29
50.9
62.39
73.24
80.82
83.0
78.56
67.61
51.45
32.29
12.62
-5.37
-20.13
-30.86
-37.61
-41.21
-43.05
-44.59
-46.34
-47.09
-43.81
-32.71
-11.3
19.56
54.92
86.91
107.58
112.0
100.21
76.76
48.46
21.66
0.42
-13.75
-20.72
-20.7
-13.82
-0.7
16.79
35.26
50.64
59.67
61.38
57.56
51.98
48.71
50.44
57.37
67.47
77.44
84.07
85.21
80.25
69.91
55.65
39.35
22.84
7.72
-4.82
-14.24
-20.79
-25.36
-29.24
-33.67
-39.31
-46.15
-53.45
-60.0
-64.49
-65.87
-63.62
-57.99
-49.89
-40.87
-32.72
-27.38
-26.7
-32.02
-43.78
-60.92
-80.7
-99.14
-112.07
-116.6
-112.08
-100.07
-83.57
-65.49
-47.6
-30.18
-12.58
5.74
24.57
42.64
58.13
69.33
75.29
76.08
72.65
66.4
58.82
51.11
44.19
38.83
35.76
35.63
38.76
44.6
51.58
57.33
59.23
55.48
45.7
31.2
14.71
-0.56
-11.81
-17.4
-17.26
-12.78
-6.34
-0.68
1.88
-0.14
-7.03
-18.06
-31.78
-46.48
-60.77
-73.95
-86.12
-98.05
-110.49
-123.47
-135.8
-144.95
-147.8
-141.79
-126.03
-101.82
-72.31
-41.28
-11.9
14.23
37.11
57.55
76.37
93.48
107.9
118.23
123.3
122.69
116.7
106.12
91.86
74.87
56.22
37.38
20.04
5.88
-3.93
-9.06
-9.94
-7.54
-2.92
2.98
9.39
15.64
21.11
25.16
27.2
26.72
23.27
16.4
5.7
-8.9
-26.81
-46.74
-66.8
-85.06
-100.08
-111.14
-118.05
-120.81
-119.16
-112.66
-101.03
-84.73
-65.35
-45.37
-27.52
-13.62
-3.85
3.39
10.76
20.68
34.17
50.18
65.89
77.67
82.3
77.67
63.02
38.87
7.07
-28.87
-63.56
-90.14
-101.7
-93.6
-65.37
-21.51
29.7
78.85
118.19
143.59
154.54
152.82
140.6
119.01
88.18
48.24
0.88
-49.48
-95.89
-130.51
-147.12
-143.59
-122.96
-92.55
-61.36
-36.93
-22.96
-18.86
-21.1
-25.44
-28.85
-30.23
-29.86
-28.31
-25.62
-21.28
-14.85
-6.67
1.99
9.56
15.0
18.45
21.07
24.18
28.19
31.96
33.05
28.94
18.47
3.1
-13.15
-24.9
-27.45
-18.62
0.34
25.4
51.3
73.69
90.42
101.62
108.62
112.45
112.79
108.08
96.61
78.07
54.32
29.08
6.65
-9.69
-18.57
-20.6
-17.41
-10.72
-1.81
8.28
18.35
26.71
31.53
31.67
27.31
20.24
13.32
9.4
10.25
15.94
24.83
34.28
41.39
43.84
40.45
31.4
18.17
3.22
-10.58
-20.85
-26.41
-27.82
-27.14
-27.18
-30.36
-37.67
-48.26
-59.69
-68.99
-73.67
-72.71
-66.85
-58.28
-50.01
-44.99
-45.24
-51.05
-60.65
-70.47
-76.17
-74.13
-62.9
-43.94
-21.21
0.38
16.82
26.36
29.75
29.36
27.72
26.54
26.3
26.64
26.92
26.65
25.55
23.58
20.84
17.64
14.7
12.99
13.52
16.92
22.85
29.93
35.78
37.69
33.39
21.85
3.74
-18.71
-42.29
-63.76
-80.7
-92.07
-98.36
-101.19
-102.5
-103.69
-104.9
-104.67
-100.57
-90.14
-72.03
-46.75
-16.51
15.45
45.72
71.41
90.38
101.15
102.99
96.02
81.48
61.81
40.24
20.22
4.58
-5.02
-8.39
-6.65
-1.68
4.56
10.64
15.8
19.76
22.4
23.65
23.47
22.17
20.56
19.68
20.35
22.59
25.27
26.36
23.44
14.62
-0.82
-21.94
-46.21
-69.84
-88.7
-99.29
-99.59
-89.49
-70.47
-45.14
-16.48
12.51
39.08
60.89
76.15
84.01
84.83
80.17
72.4
63.97
56.65
51.15
47.05
43.25
38.66
32.61
25.22
17.2
9.59
3.23
-1.56
-5.08
-8.15
-11.73
-16.64
-23.3
-31.66
-41.39
-52.06
-63.27
-74.62
-85.51
-94.82
-100.89
-101.88
-96.43
-84.42
-67.35
-48.01
-29.68
-14.98
-5.08
0.35
2.56
2.79
1.73
-0.62
-4.23
-8.39
-11.31
-10.57
-4.18
8.29
25.26
43.53
59.46
70.23
74.55
72.69
65.87
55.53
43.01
29.48
16.07
3.76
-6.91
-16.27
-25.51
-36.46
-50.72
-68.94
-90.12
-111.48
-128.92
-138.06
-135.58
-120.41
-94.18
-60.77
-25.01
8.84
38.16
62.05
80.86
95.25
105.73
112.59
116.02
116.21
113.24
106.89
96.77
82.64
64.92
44.85
24.28
5.15
-11.07
-23.57
-32.07
-36.5
-36.82
-33.04
-25.62
-15.69
-5.1
3.97
9.53
10.34
6.17
-2.38
-14.29
-28.38
-43.29
-57.23
-67.68
-71.72
-66.84
-52.05
-28.69
-0.39
27.86
51.32
66.89
73.73
73.08
67.32
59.02
50.29
42.58
36.84
33.63
33.28
35.78
40.71
47.26
54.33
60.74
65.42
67.58
66.63
62.41
54.96
44.72
32.39
18.82
4.92
-8.52
-20.97
-32.3
-42.9
-53.75
-66.2
-81.6
-100.57
-122.11
-143.35
-159.9
-167.0
-161.24
-141.83
-111.01
-73.24
-33.75
2.97
34.13
58.54
76.14
87.37
92.92
93.8
91.54
88.03
85.15
84.0
84.61
85.94
86.42
84.63
79.87
72.17
62.17
50.72
38.49
25.88
13.04
0.07
-12.73
-24.75
-35.11
-42.93
-47.61
-49.15
-48.34
-46.67
-46.2
-48.87
-55.83
-66.57
-78.62
-87.89
-90.09
-82.4
-64.71
-39.97
-12.97
11.54
30.57
43.76
52.71
59.67
66.11
71.86
75.39
74.74
68.65
57.41
42.93
28.13
15.81
7.65
3.81
3.23
4.59
7.07
10.68
15.69
21.99
28.54
33.71
36.08
35.08
31.29
25.89
19.96
13.98
7.84
1.2
-6.18
-14.37
-23.53
-34.19
-47.14
-62.9
-81.01
-99.54
-115.27
-124.58
-124.62
-114.47
-95.57
-71.27
-45.62
-21.91
-1.73
15.1
29.69
43.02
55.17
65.44
72.95
77.45
79.7
81.11
83.02
86.01
89.61
92.66
93.86
92.35
88.06
81.53
73.63
65.2
56.76
48.22
38.98
28.02
14.46
-1.92
-20.28
-38.75
-54.98
-67.12
-74.58
-78.33
-80.36
-82.94
-87.79
-95.53
-105.68
-116.72
-126.29
-131.54
-129.62
-118.48
-97.65
-68.67
-34.8
-0.01
32.09
59.14
80.17
95.19
104.57
108.69
107.91
102.86
94.66
84.76
74.72
65.73
58.42
52.77
48.35
44.58
40.92
37.1
33.1
28.98
24.7
19.92
13.98
6.17
-3.95
-16.13
-29.26
-41.55
-51.08
-56.46
-57.49
-55.2
-51.61
-49.01
-49.17
-52.95
-59.96
-68.61
-76.33
-80.17
-77.46
-66.67
-48.16
-24.23
1.49
25.31
44.6
58.56
67.77
73.43
76.36
76.66
74.04
68.54
60.94
52.59
44.72
37.9
31.74
25.35
17.96
9.4
0.13
-9.05
-17.41
-24.55
-30.33
-34.86
-38.31
-40.84
-42.63
-44.03
-45.41
-47.13
-49.4
-52.17
-55.12
-57.64
-59.16
-59.34
-58.48
-57.55
-57.96
-60.84
-66.13
-72.06
-75.52
-73.18
-62.93
-44.96
-21.76
2.85
25.2
42.92
55.47
63.59
68.47
71.08
71.89
71.05
68.7
65.26
61.33
57.57
54.5
52.43
51.41
51.16
51.19
50.92
49.85
47.7
44.43
40.13
34.96
28.91
21.87
13.78
4.62
-5.56
-16.61
-28.37
-40.71
-53.48
-66.53
-79.8
-93.26
-106.79
-119.78
-130.84
-137.67
-137.64
-128.67
-110.26
-84.03
-53.43
-22.67
4.57
26.05
41.21
50.76
55.87
57.68
57.08
54.89
51.96
49.26
47.6
47.41
48.58
50.46
52.17
52.9
52.22
50.13
46.97
42.99
38.11
31.82
23.44
12.56
-0.48
-14.6
-28.23
-39.96
-49.02
-55.59
-60.52
-65.06
-70.39
-77.37
-86.29
-96.45
-105.97
-111.71
-110.08
-98.22
-75.4
-43.81
-8.21
25.59
52.72
70.84
80.38
83.6
83.04
80.33
75.9
69.63
61.76
53.38
46.04
40.94
38.19
36.64
34.51
30.53
24.69
18.31
13.32
11.11
11.69
13.56
14.26
11.47
3.84
-8.47
-23.97
-40.58
-56.33
-70.08
-81.53
-91.02
-99.15
-106.3
-112.34
-116.48
-117.27
-112.85
-101.58
-82.74
-57.14
-27.33
3.07
30.32
51.81
66.67
75.64
80.28
82.09
81.87
79.9
76.21
71.18
65.55
59.98
54.83
49.88
44.64
38.86
32.87
27.5
23.66
21.72
21.25
21.18
20.13
17.06
11.53
3.74
-5.55
-15.36
-24.67
-32.72
-39.3
-45.0
-51.2
-59.41
-70.53
-83.87
-96.87
-105.67
-106.44
-96.88
-77.29
-50.55
-20.99
7.03
30.6
48.67
61.74
70.9
77.01
80.46
81.44
80.42
78.52
77.26
77.98
81.19
86.15
90.96
93.29
91.26
84.16
72.65
58.37
43.24
28.75
15.67
4.08
-6.34
-16.04
-25.55
-35.49
-46.52
-59.28
-74.12
-90.85
-108.7
-126.29
-141.9
-153.55
-159.32
-157.56
-147.33
-128.68
-102.87
-72.04
-38.86
-6.03
24.15
49.88
70.06
84.17
92.36
95.39
94.44
90.85
85.74
79.93
73.92
68.21
63.34
60.04
58.93
60.18
63.42
67.6
71.32
72.93
70.66
62.69
47.43
24.23
-5.52
-37.85
-66.44
-84.37
-86.88
-73.7
-49.9
-24.38
-6.47
-2.34
-12.69
-32.98
-55.71
-73.49
-81.42
-77.89
-63.87
-41.71
-14.06
16.47
47.0
74.28
94.88
106.1
106.93
98.61
84.45
68.84
55.82
47.92
45.62
47.54
51.42
55.19
57.75
59.29
60.79
63.31
67.05
70.9
72.43
68.55
56.66
35.53
5.83
-30.0
-68.38
-105.61
-138.55
-165.21
-184.53
-195.91
-198.68
-191.88
-174.73
-147.35
-111.57
-71.02
-30.41
5.82
34.72
55.32
68.32
74.9
75.94
71.67
62.29
48.83
33.58
19.66
9.91
5.81
6.9
11.07
15.73
19.01
20.57
21.48
23.32
26.98
31.86
35.73
35.7
29.46
16.41
-1.9
-22.29
-40.92
-54.42
-60.76
-59.48
-51.64
-39.53
-26.11
-14.34
-6.48
-3.33
-4.05
-6.49
-7.97
-6.41
-0.95
7.87
18.41
28.51
36.0
39.09
36.69
28.72
16.17
1.11
-13.78
-25.81
-33.0
-34.64
-31.3
-24.63
-16.85
-10.08
-5.61
-3.43
-2.11
0.6
6.7
16.68
28.9
39.84
45.36
42.27
29.57
8.62
-17.43
-44.92
-70.66
-92.56
-109.46
-120.77
-126.05
-124.85
-116.97
-102.76
-83.48
-61.18
-38.27
-16.93
1.55
16.91
29.59
40.16
48.73
54.83
57.91
58.02
56.23
54.52
54.84
58.12
63.76
69.81
73.94
74.38
70.62
63.18
53.1
41.23
28.01
13.64
-1.47
-16.5
-30.35
-42.15
-51.6
-59.07
-65.4
-71.36
-77.51
-84.02
-90.92
-97.86
-103.96
-107.38
-105.46
-95.47
-75.83
-47.24
-12.94
22.17
53.26
77.18
93.2
102.55
107.22
108.78
107.85
104.44
98.72
91.46
84.01
77.75
73.46
70.94
69.12
66.52
61.99
55.24
47.0
38.74
32.07
27.94
26.12
25.31
23.62
19.42
11.99
1.65
-10.6
-23.62
-36.52
-48.72
-59.95
-70.22
-79.82
-89.28
-99.07
-108.95
-117.62
-122.79
-122.02
-113.88
-98.8
-79.15
-58.25
-39.07
-23.26
-11.01
-1.62
5.61
11.1
14.97
17.54
19.6
22.33
26.91
33.98
43.37
54.13
64.82
74.02
80.65
84.0
83.8
79.89
72.24
61.04
46.87
31.01
15.2
1.22
-9.71
-17.52
-23.18
-28.29
-34.39
-42.43
-52.59
-64.34
-76.46
-87.04
-93.63
-93.62
-85.2
-68.07
-43.91
-15.87
12.63
39.11
62.72
83.73
102.45
118.02
128.11
129.74
120.94
102.19
76.89
50.39
27.93
12.73
4.96
2.12
0.72
-2.07
-7.21
-13.84
-20.25
-25.13
-28.16
-29.98
-31.42
-32.67
-33.1
-31.45
-26.71
-18.75
-8.67
1.41
8.95
11.61
7.73
-3.36
-21.09
-43.45
-66.84
-86.52
-97.52
-96.16
-81.4
-55.4
-23.1
9.35
36.51
55.17
65.08
68.4
68.66
69.4
73.2
81.12
92.7
106.13
118.84
128.04
131.49
128.16
118.5
104.3
87.91
71.42
55.87
41.01
25.74
9.02
-9.37
-28.4
-46.08
-60.26
-69.48
-73.59
-73.85
-72.45
-71.85
-74.1
-80.48
-91.33
-106.03
-122.85
-138.98
-150.7
-154.09
-146.07
-125.56
-94.34
-56.73
-18.55
14.65
39.2
54.03
60.52
61.5
60.08
58.83
59.35
62.3
67.59
74.52
81.87
87.96
90.96
89.36
82.59
71.38
57.6
43.68
31.76
22.99
17.24
13.28
9.46
4.39
-2.55
-11.06
-20.13
-28.68
-36.21
-43.43
-52.36
-65.64
-85.33
-111.54
-141.69
-170.98
-193.94
-206.18
-205.75
-193.28
-171.19
-142.37
-109.3
-73.81
-37.46
-2.04
30.35
57.62
78.43
92.55
100.95
105.31
107.26
107.74
106.72
103.5
97.4
88.46
77.79
67.29
58.72
52.83
48.9
45.18
39.78
31.66
21.05
9.08
-3.12
-15.11
-27.36
-40.83
-56.28
-73.52
-91.18
-106.8
-117.42
-120.23
-113.4
-96.53
-70.8
-38.71
-3.47
31.65
63.65
89.92
108.12
116.33
113.78
101.34
81.9
59.72
39.13
23.1
12.44
6.05
1.91
-1.61
-5.04
-7.65
-8.08
-5.04
1.99
12.36
24.12
34.39
39.96
38.31
28.45
11.43
-10.07
-32.56
-53.02
-69.76
-82.66
-92.62
-100.73
-107.3
-111.41
-111.27
-104.98
-91.61
-71.92
-48.36
-24.45
-3.54
12.21
22.21
27.16
28.12
25.84
20.67
13.01
4.05
-3.88
-7.61
-3.98
9.06
31.61
61.52
94.62
125.67
149.45
161.98
161.51
148.75
126.52
98.83
69.62
41.96
17.68
-2.58
-19.12
-32.96
-45.65
-59.08
-74.98
-94.11
-115.5
-136.26
-152.06
-158.6
-153.08
-135.59
-109.21
-78.98
-50.27
-26.74
-9.12
4.73
18.49
35.35
56.16
79.05
100.38
116.69
126.59
131.24
133.44
135.82
139.09
141.72
140.85
134.07
120.95
103.37
84.69
68.25
56.0
48.06
42.95
38.42
32.35
23.35
11.28
-2.74
-16.66
-28.1
-35.14
-37.15
-35.2
-31.92
-31.05
-36.52
-51.54
-77.49
-113.25
-154.8
-195.72
-228.47
-246.43
-245.74
-226.58
-192.8
-150.46
-105.78
-63.38
-25.71
6.58
33.63
55.52
72.09
83.32
89.63
92.1
92.05
90.32
86.9
80.92
71.34
57.83
41.45
24.66
10.62
2.12
0.32
4.19
10.7
15.77
15.48
7.39
-8.7
-30.56
-53.95
-73.71
-85.09
-85.04
-73.15
-51.7
-24.94
2.3
26.09
44.31
56.8
64.67
69.27
71.4
70.98
67.3
59.55
47.33
31.12
12.3
-7.06
-24.75
-39.16
-49.8
-57.42
-63.6
-69.83
-76.8
-84.12
-90.72
-95.41
-97.22
-95.2
-88.34
-75.8
-57.97
-37.27
-18.09
-5.21
-1.35
-5.23
-11.68
-14.02
-7.47
8.18
28.52
46.81
57.49
58.69
52.66
44.14
37.81
36.36
40.12
47.9
58.12
69.7
82.0
94.47
106.21
116.07
123.08
127.01
128.57
129.12
130.15
132.55
136.21
140.14
142.82
142.85
139.22
131.39
118.87
100.96
76.64
45.04
6.12
-38.67
-86.37
-133.1
-175.0
-208.92
-232.72
-245.1
-245.4
-233.67
-211.08
-180.31
-145.51
-111.4
-82.09
-59.85
-44.64
-34.62
-27.22
-20.39
-13.19
-5.74
1.54
8.68
16.23
24.34
31.52
34.05
26.94
6.5
-26.89
-67.52
-105.55
-130.66
-136.13
-121.22
-90.87
-52.74
-13.69
22.48
55.08
84.89
112.25
136.29
155.42
168.51
175.65
178.06
177.22
174.04
168.63
160.76
150.73
139.8
130.07
123.79
122.47
126.33
134.15
143.7
152.22
157.08
156.24
148.54
133.92
113.28
88.17
60.37
31.45
2.72
-24.74
-49.91
-71.7
-88.97
-100.89
-107.24
-108.89
-107.82
-106.81
-108.59
-114.85
-125.4
-137.96
-148.89
-154.53
-152.8
-144.27
-132.32
-122.08
-118.68
-125.35
-141.88
-164.26
-185.51
-197.57
-193.76
-171.15
-131.63
-81.48
-29.3
16.8
51.77
74.62
87.84
95.53
101.27
106.72
111.49
113.89
112.07
104.87
92.18
74.84
54.31
32.12
9.4
-13.43
-36.74
-61.22
-87.33
-114.69
-142.08
-167.97
-191.26
-211.77
-230.07
-246.74
-261.68
-273.77
-281.32
-282.73
-277.1
-264.28
-244.59
-218.45
-186.14
-147.95
-104.34
-56.01
-3.83
51.47
109.74
171.6
237.95
308.86
382.1
452.36
511.78
552.14
567.75
557.74
526.45
481.66
431.64
382.56
337.51
297.19
261.36
229.9
202.69
178.84
156.04
131.03
100.98
65.09
25.26
-14.55
-49.88
-77.86
-98.41
-114.17
-129.34
-148.01
-172.64
-203.38
-238.08
-272.91
-303.08
-323.7
-330.63
-321.49
-296.37
-258.12
-211.69
-162.84
-116.69
-76.66
-44.27
-19.74
-2.62
7.71
12.1
11.99
9.56
7.41
7.97
12.64
21.57
33.57
46.67
58.68
67.67
72.24
71.61
65.64
54.89
40.7
25.09
10.46
-1.04
-8.29
-11.75
-13.64
-17.23
-25.83
-41.38
-63.49
-89.19
-113.55
-131.19
-137.95
-132.28
-115.71
-92.28
-67.15
-45.01
-28.86
-19.65
-16.78
-18.91
-24.75
-33.28
-43.55
-54.41
-64.37
-71.85
-75.58
-74.98
-70.13
-61.69
-50.59
-37.83
-24.4
-11.19
1.04
11.81
20.84
28.07
33.39
36.53
37.1
34.83
29.88
23.0
15.22
7.43
0.15
-6.5
-12.29
-16.41
-17.63
-14.68
-7.21
3.76
16.0
26.97
34.91
39.6
42.33
45.16
49.95
57.45
67.15
77.4
86.03
90.93
90.59
84.56
73.52
59.05
43.28
28.15
14.92
3.92
-5.31
-13.54
-21.3
-28.8
-35.93
-42.67
-49.38
-56.68
-65.32
-75.6
-87.49
-100.62
-114.57
-128.78
-142.19
-152.61
-156.82
-151.39
-134.42
-106.95
-73.17
-39.05
-9.93
11.69
26.63
37.94
48.53
59.45
69.49
76.35
78.43
75.97
70.95
66.02
63.06
62.48
63.33
64.13
63.66
61.39
57.41
52.28
46.48
40.35
34.03
27.55
20.92
14.16
7.12
-0.58
-9.49
-20.08
-32.07
-44.08
-53.5
-57.22
-52.8
-39.52
-19.0
5.29
29.21
49.22
63.26
70.84
72.4
68.85
61.15
50.39
38.02
25.73
15.14
7.29
2.24
-0.77
-2.96
-5.49
-9.16
-14.33
-21.12
-29.36
-38.52
-47.44
-54.41
-57.63
-55.87
-49.36
-39.9
-30.56
-24.82
-25.47
-33.68
-48.65
-67.55
-86.03
-99.02
-101.97
-92.2
-69.75
-37.36
0.48
39.07
74.67
104.96
128.68
145.05
153.56
154.35
148.74
139.37
129.52
121.99
118.04
117.15
117.57
117.51
115.88
112.59
108.13
102.91
96.84
89.09
78.28
62.86
41.69
14.58
-17.55
-52.82
-88.94
-123.89
-155.99
-183.68
-204.96
-217.06
-217.09
-203.12
-175.49
-137.48
-94.71
-53.57
-19.23
5.9
22.56
33.95
44.32
57.32
75.0
97.37
122.45
146.86
166.57
177.61
177.0
163.47
138.23
105.09
69.89
39.35
19.25
12.87
20.04
37.09
57.95
75.76
84.56
80.66
63.12
33.59
-4.39
-46.44
-87.98
-124.75
-153.01
-169.71
-172.96
-162.59
-140.55
-110.78
-78.33
-48.01
-23.25
-5.53
5.43
10.72
11.48
8.44
2.13
-6.6
-16.29
-24.86
-30.31
-31.47
-28.47
-22.77
-16.52
-11.69
-9.41
-9.63
-11.58
-14.45
-17.89
-22.25
-28.22
-36.26
-46.04
-56.46
-65.78
-72.04
-73.56
-69.16
-58.2
-40.57
-16.78
12.02
44.04
77.16
109.34
139.03
165.35
187.92
206.4
220.25
228.66
230.78
226.12
214.82
197.68
176.08
151.57
125.92
100.93
78.43
60.05
46.79
38.84
35.39
35.15
36.62
38.51
39.93
40.19
38.64
34.6
27.44
16.83
2.83
-14.25
-34.04
-56.25
-80.71
-107.16
-135.03
-163.32
-190.48
-214.41
-232.52
-241.96
-240.14
-225.52
-198.32
-160.69
-116.31
-69.39
-23.48
19.04
56.97
89.58
115.89
134.4
143.46
142.02
130.35
110.24
84.73
57.44
31.91
10.93
-3.66
-11.09
-11.61
-6.36
2.73
13.22
22.61
28.73
30.2
26.67
18.76
7.8
-4.59
-16.92
-28.12
-37.72
-45.93
-53.63
-62.21
-73.14
-87.27
-104.06
-121.14
-134.58
-140.04
-134.27
-116.52
-89.01
-56.42
-24.43
1.82
18.87
25.41
22.13
11.35
-3.52
-18.43
-29.39
-33.3
-28.74
-16.42
1.09
20.17
37.26
49.8
56.68
58.25
55.84
51.23
46.11
41.67
38.4
36.07
33.96
31.18
26.92
20.68
12.37
2.17
-9.55
-22.5
-36.51
-51.65
-68.06
-85.64
-103.53
-119.66
-130.81
-133.33
-124.39
-103.3
-72.09
-35.01
2.82
37.19
65.91
88.8
106.93
121.48
132.9
141.0
145.39
146.09
143.66
138.75
131.57
121.59
107.93
90.2
69.21
47.14
26.91
11.07
0.71
-4.99
-8.52
-13.07
-21.37
-34.76
-52.78
-73.44
-93.99
-111.73
-124.99
-133.38
-138.06
-141.14
-144.91
-150.85
-158.64
-165.83
-168.13
-160.58
-139.4
-103.62
-55.94
-2.35
49.7
93.35
124.18
140.87
144.57
137.78
123.23
103.47
81.07
58.88
40.0
27.13
21.63
22.76
27.77
32.66
33.76
29.12
19.14
6.48
-5.28
-13.02
-15.39
-13.31
-9.52
-7.75
-11.51
-23.27
-43.78
-71.64
-103.05
-132.24
-152.45
-157.86
-145.39
-115.76
-73.16
-23.79
26.01
71.11
107.89
133.91
147.62
148.52
137.76
118.55
95.66
74.01
57.16
46.19
39.88
35.92
32.47
29.35
28.3
32.29
44.25
65.63
95.48
130.2
164.19
191.19
205.82
204.8
187.65
156.53
115.62
70.25
26.05
-11.9
-39.91
-56.38
-62.24
-60.89
-57.32
-56.97
-64.3
-81.61
-108.41
-141.45
-175.27
-203.33
-219.52
-219.67
-202.69
-170.95
-129.7
-85.49
-44.45
-10.8
13.64
29.16
37.39
40.52
40.98
41.14
43.12
48.26
56.68
66.97
76.61
82.88
83.94
79.63
71.41
61.55
51.99
43.59
35.88
27.65
17.83
6.08
-6.88
-19.68
-30.84
-39.35
-44.97
-48.28
-50.37
-52.48
-55.53
-59.63
-63.8
-65.95
-63.47
-54.19
-37.53
-15.18
9.14
30.79
46.0
53.16
53.32
49.4
44.7
41.3
39.48
38.12
35.65
31.18
24.93
17.96
11.53
6.45
2.99
1.07
0.74
2.28
6.03
11.87
18.82
24.99
28.02
25.86
17.36
2.69
-16.82
-39.13
-62.18
-84.46
-105.27
-124.82
-143.72
-162.44
-180.57
-196.43
-207.17
-209.66
-201.69
-183.04
-155.92
-124.3
-92.5
-63.63
-38.56
-15.99
6.59
31.44
59.56
90.28
121.71
151.42
177.16
197.16
210.13
215.27
212.33
201.9
185.49
165.52
144.78
125.69
109.71
96.9
86.12
75.55
63.37
48.39
30.3
9.7
-12.32
-34.47
-55.8
-75.78
-94.33
-111.73
-128.42
-144.7
-160.42
-174.53
-185.03
-189.13
-184.11
-168.26
-141.74
-106.66
-66.33
-24.26
16.77
54.93
88.89
117.21
138.15
150.08
152.37
146.12
134.03
119.61
105.93
94.63
85.64
77.58
68.69
57.67
44.19
28.87
12.91
-2.44
-16.29
-28.33
-38.77
-47.96
-56.15
-63.19
-68.63
-71.94
-72.79
-71.21
-67.59
-62.63
-57.33
-52.97
-51.15
-53.45
-60.69
-72.38
-86.26
-98.67
-105.55
-103.65
-91.56
-69.95
-41.13
-8.23
25.69
58.07
87.02
111.27
130.04
143.07
150.62
153.24
151.54
145.71
135.34
119.64
98.04
70.97
40.33
9.51
-17.36
-36.59
-46.11
-46.2
-39.47
-30.13
-22.7
-20.79
-26.29
-39.05
-57.16
-77.62
-97.24
-113.38
-124.65
-131.37
-135.4
-139.82
-147.9
-161.82
-181.58
-204.34
-224.83
-236.78
-234.83
-216.22
-181.58
-134.51
-80.29
-24.31
28.94
76.28
115.65
145.79
165.97
176.21
177.34
171.0
159.39
144.75
128.9
113.04
97.71
83.02
68.83
55.11
41.98
29.74
18.76
9.25
1.04
-6.34
-13.51
-21.01
-28.86
-36.75
-44.15
-50.66
-56.27
-61.36
-66.56
-72.51
-79.71
-88.35
-98.12
-107.96
-116.02
-119.77
-116.84
-105.79
-86.93
-62.47
-35.77
-10.3
11.47
28.58
41.34
50.75
57.84
63.43
68.22
72.92
78.21
84.32
90.46
94.55
93.82
86.13
71.53
53.11
36.43
27.52
30.18
44.08
64.7
85.08
98.87
102.74
97.15
85.18
70.27
54.44
37.76
19.04
-2.89
-28.35
-56.62
-86.09
-114.53
-139.01
-156.09
-162.4
-155.73
-136.17
-106.58
-71.96
-37.82
-8.41
14.43
31.15
43.61
53.89
63.6
73.72
84.64
96.05
106.7
114.23
115.59
108.02
90.33
63.87
32.37
0.87
-25.84
-44.68
-54.84
-57.49
-54.88
-49.24
-42.2
-34.6
-26.73
-18.76
-11.05
-4.35
0.25
1.46
-1.88
-10.34
-23.35
-38.91
-53.51
-62.75
-62.47
-50.06
-25.68
7.59
44.35
78.35
104.1
118.04
119.03
108.24
88.57
63.99
38.77
16.6
-0.17
-10.95
-16.87
-20.19
-23.36
-28.19
-35.41
-44.69
-55.01
-65.02
-73.4
-78.98
-81.07
-79.71
-75.88
-71.44
-68.68
-69.67
-75.6
-86.52
-101.56
-119.16
-137.38
-153.81
-165.44
-168.65
-160.01
-137.24
-100.53
-52.98
-0.15
51.3
95.5
128.62
149.44
158.89
159.04
152.23
140.54
125.84
110.06
95.34
83.63
76.17
72.91
72.52
72.86
71.99
69.04
64.42
59.4
55.22
52.36
50.28
47.75
43.47
36.47
26.35
12.96
-3.75
-23.9
-47.54
-74.25
-102.79
-130.64
-154.18
-169.35
-172.79
-163.13
-141.8
-112.88
-81.89
-53.99
-32.32
-17.33
-7.24
0.77
9.17
19.21
30.77
42.84
54.12
63.6
70.69
75.28
77.6
77.94
76.49
73.47
69.25
64.55
60.49
58.44
59.51
64.05
71.07
78.43
83.16
82.18
73.1
54.69
26.89
-9.2
-51.56
-96.96
-140.85
-177.45
-200.58
-205.25
-189.36
-154.88
-107.5
-54.91
-4.35
39.38
74.67
102.36
124.14
141.19
153.48
160.28
160.95
155.73
145.88
133.3
119.93
107.17
95.73
85.86
77.72
71.64
68.12
67.41
69.02
71.31
71.65
67.2
55.97
37.83
14.86
-9.2
-30.19
-45.02
-52.75
-54.88
-54.85
-56.85
-64.42
-79.1
-99.66
-122.01
-140.12
-147.62
-139.73
-114.83
-75.21
-26.66
23.1
66.46
97.9
115.15
119.34
114.0
103.71
92.62
83.45
77.15
73.11
69.93
66.1
60.57
53.04
43.9
33.91
23.74
13.51
2.56
-10.36
-26.52
-46.41
-69.28
-93.02
-114.8
-132.04
-143.36
-148.95
-150.48
-150.26
-150.36
-151.79
-153.93
-154.74
-151.21
-140.28
-119.9
-89.95
-52.66
-12.24
26.13
57.91
80.57
94.35
101.82
106.63
111.92
119.05
127.34
134.58
138.25
136.6
129.22
117.17
102.44
87.35
73.89
63.26
55.65
50.32
45.9
40.88
33.96
24.39
12.14
-2.29
-17.96
-33.81
-49.03
-63.24
-76.8
-90.72
-106.38
-124.88
-146.28
-168.88
-189.26
-202.86
-205.29
-193.82
-168.45
-132.13
-89.84
-47.04
-8.1
24.67
51.01
72.0
89.05
103.11
114.48
122.98
128.29
130.18
128.6
123.53
115.13
103.77
90.39
76.48
63.86
54.08
47.79
44.34
41.9
38.14
31.12
20.04
5.46
-10.98
-27.33
-42.0
-54.22
-64.27
-73.24
-82.69
-93.98
-107.64
-122.82
-137.11
-147.0
-148.83
-139.95
-119.8
-90.27
-55.49
-20.6
9.6
31.84
44.99
49.85
48.43
43.0
35.73
28.35
22.38
19.23
20.17
26.06
37.2
53.08
72.57
93.94
114.84
132.38
143.17
143.96
132.66
109.29
76.52
39.2
3.06
-26.92
-47.86
-59.42
-63.53
-63.51
-63.27
-66.43
-75.7
-91.93
-113.58
-136.5
-154.78
-162.48
-155.6
-133.51
-99.03
-57.23
-13.51
27.8
64.09
94.09
117.19
133.0
141.29
142.4
137.36
127.69
114.92
100.12
83.79
66.08
47.27
28.17
10.07
-5.49
-17.2
-24.51
-27.72
-27.95
-26.9
-26.11
-26.66
-28.71
-31.63
-34.21
-35.27
-34.23
-31.5
-28.73
-28.41
-33.23
-44.94
-63.22
-85.15
-105.52
-118.26
-118.51
-104.39
-77.67
-43.05
-6.45
27.06
54.39
74.63
88.23
96.05
98.81
97.27
92.68
87.09
83.05
82.63
86.56
93.66
101.3
106.27
106.11
99.91
88.49
73.85
58.21
43.12
29.15
16.0
3.01
-10.3
-23.89
-37.24
-49.61
-60.48
-69.8
-77.99
-85.81
-94.1
-103.69
-115.17
-128.66
-143.22
-156.43
-164.5
-163.22
-149.37
-122.23
-84.27
-40.45
3.18
41.41
71.05
91.21
102.64
106.91
105.75
100.99
94.61
88.69
85.07
84.79
87.62
92.12
96.08
97.35
94.59
87.76
78.03
67.26
57.18
48.67
41.42
34.03
24.69
12.07
-4.0
-22.25
-40.39
-55.97
-67.38
-74.37
-78.23
-81.28
-86.14
-95.04
-109.03
-127.34
-147.14
-163.8
-172.1
-167.93
-149.88
-120.03
-83.23
-45.5
-11.92
14.63
33.67
46.31
54.27
59.18
62.47
65.53
69.65
75.67
83.48
91.88
98.9
102.53
101.52
95.81
86.49
75.29
63.96
53.73
45.1
37.77
30.88
23.34
14.21
2.99
-10.2
-24.69
-39.51
-53.69
-66.72
-78.82
-90.87
-103.88
-118.16
-132.27
-142.92
-145.59
-136.17
-112.78
-76.94
-33.32
11.56
51.3
81.08
98.17
101.76
92.57
72.75
45.95
17.18
-7.92
-24.52
-29.95
-24.44
-10.76
7.02
24.94
40.27
51.97
60.64
67.88
75.76
85.71
97.43
108.23
113.12
106.28
83.55
44.9
-4.32
-54.35
-93.98
-114.55
-113.03
-93.07
-63.56
-35.47
-18.26
-17.29
-32.72
-60.09
-91.93
-119.92
-136.85
-138.14
-122.45
-91.57
-49.61
-1.84
46.25
89.71
124.62
148.21
159.21
158.05
146.92
129.4
109.52
90.57
74.12
59.82
45.99
30.96
14.34
-2.44
-16.64
-25.49
-27.59
-23.78
-16.81
-10.28
-7.23
-9.04
-15.31
-24.18
-33.42
-41.27
-46.94
-50.69
-53.58
-57.18
-63.09
-72.45
-85.2
-99.56
-111.81
-117.09
-110.91
-90.9
-58.07
-16.58
27.63
68.9
103.41
129.51
147.01
156.1
156.84
149.5
135.38
117.22
98.99
84.66
76.83
75.92
80.1
86.28
91.31
92.99
90.58
84.6
76.22
66.6
56.26
44.82
31.05
13.24
-10.27
-40.47
-77.15
-118.58
-161.61
-202.21
-236.45
-261.36
-275.44
-278.45
-270.82
-253.05
-225.65
-189.51
-146.5
-99.8
-53.34
-11.07
23.68
48.32
60.61
58.69
41.85
11.82
-26.11
-63.46
-90.79
-100.98
-91.85
-66.93
-33.75
-0.61
26.46
45.07
56.22
62.55
66.62
70.03
73.51
77.52
82.78
90.21
100.12
111.42
121.1
124.76
118.19
99.11
68.36
29.66
-11.81
-51.38
-86.24
-115.47
-139.03
-156.6
-166.95
-168.37
-159.69
-141.15
-114.54
-82.74
-48.96
-16.31
12.46
34.85
48.96
54.01
51.16
43.78
37.08
36.49
45.98
66.37
94.55
124.05
146.61
154.56
143.27
112.89
68.75
20.18
-22.2
-49.58
-57.78
-48.18
-26.72
-1.56
19.82
32.65
35.24
28.28
13.36
-7.88
-33.98
-63.08
-92.32
-117.66
-134.48
-138.88
-129.03
-106.1
-73.91
-37.99
-3.73
24.76
45.28
57.17
60.6
56.04
44.31
27.06
6.86
-12.66
-27.92
-36.12
-36.49
-30.45
-21.17
-12.04
-4.96
0.83
8.69
22.92
46.37
78.49
114.9
148.77
173.49
184.95
182.65
169.15
148.51
124.71
100.79
78.44
58.08
38.92
19.31
-2.58
-27.72
-55.38
-82.94
-106.69
-123.03
-129.68
-126.18
-113.71
-94.5
-70.93
-45.45
-20.43
1.72
18.54
27.94
28.83
21.66
8.77
-6.02
-18.41
-24.87
-23.9
-16.33
-4.84
7.31
17.41
23.84
25.95
23.51
16.4
4.73
-10.64
-27.78
-44.01
-56.64
-63.81
-65.12
-61.68
-55.76
-50.05
-46.83
-46.86
-48.56
-47.82
-38.71
-15.64
24.23
78.97
141.49
201.27
247.36
271.56
270.48
245.93
203.63
151.2
96.27
45.11
2.11
-30.29
-51.31
-61.56
-62.76
-57.44
-48.52
-38.79
-30.46
-24.86
-22.33
-22.54
-24.92
-28.89
-34.25
-40.97
-49.13
-58.87
-70.29
-83.44
-98.48
-115.78
-135.96
-159.41
-185.59
-212.22
-234.95
-248.31
-247.23
-229.09
-194.99
-149.32
-98.0
-46.14
3.42
50.07
94.01
134.6
169.6
195.87
210.86
213.87
206.31
190.7
169.37
143.68
114.08
81.26
47.17
15.24
-10.36
-26.37
-31.84
-28.7
-21.09
-13.78
-10.5
-12.91
-20.38
-31.05
-42.86
-54.58
-66.28
-78.98
-93.93
-111.68
-131.28
-150.19
-164.73
-171.1
-166.68
-150.86
-125.27
-93.12
-58.16
-23.67
7.94
35.0
56.16
70.39
77.33
77.81
74.11
69.4
66.65
67.36
70.98
75.29
77.53
75.84
70.17
62.28
55.11
51.6
53.73
61.91
74.67
88.85
100.18
104.18
97.56
79.38
51.67
19.11
-12.41
-37.85
-54.62
-63.11
-65.92
-66.03
-65.21
-63.3
-58.73
-49.8
-35.92
-18.02
1.96
22.02
40.92
58.12
73.31
85.61
93.57
95.62
91.03
80.6
66.49
51.46
37.82
26.57
17.33
8.76
-0.51
-11.29
-23.41
-35.86
-47.18
-55.92
-61.11
-62.6
-61.19
-58.46
-56.38
-56.49
-59.18
-63.26
-66.26
-65.11
-57.22
-41.41
-18.27
9.95
40.06
68.62
92.71
110.25
120.23
122.86
119.39
111.98
103.08
94.88
88.68
84.57
81.62
78.3
73.21
65.66
56.09
45.94
37.22
31.84
30.9
34.35
40.81
47.87
52.56
52.09
44.52
29.45
8.16
-16.69
-42.07
-65.78
-87.28
-107.8
-129.49
-154.18
-182.12
-211.53
-238.76
-259.12
-268.04
-262.03
-239.59
-201.62
-151.49
-94.45
-36.62
16.35
60.37
93.4
115.28
127.01
130.09
126.12
116.69
103.62
88.92
74.6
62.41
53.39
47.64
44.46
42.63
40.94
38.53
35.06
30.61
25.38
19.43
12.66
4.86
-3.96
-13.55
-23.54
-33.82
-44.87
-57.62
-72.8
-90.07
-107.38
-121.13
-127.32
-123.04
-107.86
-84.12
-56.05
-28.28
-4.19
14.72
28.69
38.76
45.92
50.68
53.23
53.96
53.8
54.26
56.83
62.41
70.66
79.84
87.4
90.69
88.01
79.15
65.45
49.34
33.54
20.2
10.43
4.03
-0.28
-4.45
-10.53
-20.14
-34.22
-52.96
-75.6
-100.39
-124.36
-143.53
-153.67
-151.41
-135.62
-108.01
-72.88
-35.74
-1.57
26.53
47.76
63.09
74.11
82.03
87.28
89.51
88.08
82.56
73.06
60.53
46.66
33.58
23.24
16.81
14.3
14.48
15.45
15.37
13.18
8.92
3.51
-1.91
-6.57
-10.41
-14.07
-18.58
-25.08
-34.59
-47.84
-65.05
-85.38
-106.64
-125.22
-136.83
-137.82
-126.52
-103.93
-73.59
-40.22
-8.22
19.66
42.71
61.64
77.53
90.76
100.89
107.1
109.15
107.96
105.41
103.46
102.94
102.99
101.36
95.78
85.37
71.49
57.24
46.04
39.93
38.55
39.36
38.76
33.77
23.17
7.84
-9.92
-27.47
-42.9
-55.66
-66.29
-75.95
-85.86
-96.82
-108.96
-121.52
-132.7
-139.8
-139.81
-130.42
-111.06
-83.53
-51.49
-19.29
9.63
33.76
53.48
70.09
84.49
96.5
104.94
108.52
106.77
100.39
91.02
80.49
70.22
61.0
53.14
46.95
42.94
41.71
43.58
48.15
54.05
59.17
61.27
58.71
51.07
39.23
25.14
10.95
-1.7
-12.24
-21.23
-29.89
-39.41
-50.42
-62.88
-76.42
-90.81
-106.07
-122.21
-138.46
-152.73
-161.77
-162.08
-151.24
-129.03
-97.59
-60.77
-22.92
12.12
41.54
63.68
77.98
85.1
87.11
87.22
89.02
95.09
105.83
119.17
131.29
138.28
137.72
129.56
115.81
99.55
83.6
69.73
58.39
49.07
41.05
33.77
27.14
21.29
16.27
11.79
7.32
2.29
-3.52
-9.99
-16.88
-24.2
-32.57
-43.09
-56.9
-74.65
-96.17
-120.33
-145.08
-167.58
-184.37
-191.86
-187.06
-168.62
-137.48
-97.03
-52.3
-8.69
29.32
58.95
79.23
90.55
94.21
91.96
85.93
78.37
71.46
66.77
65.04
65.88
68.08
70.03
70.34
68.24
63.74
57.4
50.09
42.7
36.04
30.74
27.26
25.78
26.22
28.3
31.64
35.82
40.32
44.12
45.5
42.2
31.9
13.24
-13.53
-46.41
-82.3
-117.95
-150.58
-177.93
-197.87
-207.92
-205.57
-189.4
-160.07
-120.93
-77.25
-34.53
3.27
34.77
60.9
83.59
104.16
122.4
136.56
144.34
144.0
135.44
120.46
102.25
84.53
70.33
61.21
56.94
55.9
55.85
54.76
51.41
45.55
37.63
28.47
18.89
9.42
0.33
-8.41
-16.97
-25.52
-34.07
-42.46
-50.29
-57.15
-62.66
-66.52
-68.65
-69.33
-69.43
-70.5
-74.36
-82.45
-94.75
-109.28
-122.32
-129.47
-127.31
-114.61
-92.68
-64.51
-33.51
-2.32
27.37
54.42
77.51
94.94
105.12
107.27
102.05
91.52
78.34
64.93
52.77
42.36
33.65
26.55
21.19
17.86
16.59
16.92
17.88
18.34
17.32
14.27
9.09
2.06
-6.36
-15.4
-24.07
-31.23
-36.04
-38.45
-39.29
-39.89
-41.36
-43.92
-46.9
-49.35
-50.97
-52.49
-55.15
-59.58
-64.91
-68.65
-67.95
-61.13
-48.75
-33.47
-18.69
-6.88
1.33
6.98
11.66
16.19
20.08
21.86
20.06
14.21
5.31
-4.48
-12.78
-17.91
-19.38
-18.01
-15.29
-12.81
-11.74
-12.69
-15.95
-21.73
-30.28
-41.85
-56.56
-74.03
-93.15
-111.87
-127.25
-136.02
-135.4
-124.04
-102.79
-74.48
-43.15
-12.63
14.57
37.66
56.96
72.86
85.09
92.56
94.11
89.44
79.68
67.11
54.39
43.62
35.81
31.04
28.86
28.9
31.06
35.43
41.87
49.74
57.69
64.03
67.0
65.51
59.4
49.47
36.94
22.56
5.9
-14.65
-41.12
-74.32
-112.34
-150.0
-179.81
-194.35
-188.81
-162.77
-120.27
-68.35
-14.66
34.68
76.17
108.87
133.46
151.08
162.41
167.42
165.5
156.03
138.82
114.36
83.88
49.21
12.63
-23.19
-55.36
-81.08
-98.12
-105.58
-104.16
-95.93
-83.51
-68.85
-52.55
-33.97
-12.33
11.96
36.32
56.15
65.97
61.4
40.89
6.73
-35.17
-76.68
-109.31
-126.44
-124.81
-105.22
-72.22
-32.84
5.2
35.41
53.95
60.26
56.6
46.98
35.7
26.21
20.6
19.52
22.66
29.1
37.68
47.4
57.71
68.73
81.06
95.03
109.57
121.49
125.67
116.69
91.24
50.18
-0.84
-52.91
-96.73
-125.74
-138.06
-136.57
-127.13
-116.01
-107.56
-102.81
-99.66
-94.15
-82.49
-62.71
-35.53
-4.09
27.43
55.28
77.26
92.88
102.71
107.55
107.92
104.2
97.15
88.22
79.34
72.23
67.68
65.37
64.26
63.28
61.88
60.04
58.05
55.96
53.54
50.37
46.21
40.97
34.71
27.31
18.28
6.86
-7.83
-26.67
-50.48
-79.81
-114.44
-152.54
-190.08
-221.03
-238.75
-238.19
-217.79
-180.25
-131.7
-79.49
-30.0
12.79
47.37
73.71
92.2
102.96
106.08
102.16
92.99
81.49
71.16
65.05
64.86
70.26
79.09
88.09
94.06
94.87
90.02
80.55
68.34
55.39
43.3
33.07
25.25
20.03
17.14
15.59
13.49
8.17
-3.18
-22.33
-48.73
-78.8
-106.53
-125.25
-130.24
-120.91
-101.42
-79.37
-62.68
-56.47
-61.07
-72.2
-83.04
-87.06
-80.29
-62.25
-35.45
-4.01
27.62
55.68
77.52
91.7
98.07
97.49
91.75
83.1
73.83
65.71
59.64
55.38
51.68
46.64
38.39
25.87
9.37
-9.47
-28.2
-44.43
-56.67
-64.64
-68.76
-69.38
-66.12
-57.96
-43.87
-23.78
0.89
27.49
52.83
74.08
89.3
97.5
98.4
92.21
79.64
61.95
41.07
19.38
-0.6
-16.71
-27.53
-32.38
-31.34
-25.09
-14.63
-1.15
14.14
30.04
45.27
58.43
68.0
72.48
70.74
62.37
47.83
28.52
6.38
-16.59
-38.9
-59.91
-79.66
-98.25
-115.09
-128.39
-135.34
-133.19
-120.42
-97.89
-68.84
-38.04
-10.21
11.61
26.75
36.64
43.72
49.95
55.85
60.37
61.45
57.17
46.82
31.43
13.57
-3.58
-17.26
-26.15
-30.66
-32.6
-34.37
-37.94
-44.11
-52.24
-60.53
-66.59
-68.36
-64.76
-56.25
-45.11
-35.08
-30.58
-35.08
-49.62
-71.76
-95.67
-113.72
-118.83
-106.88
-78.18
-37.3
8.53
51.54
85.5
106.69
114.02
108.52
92.62
69.6
43.39
18.43
-0.54
-8.98
-3.45
17.15
50.49
90.55
128.56
154.98
162.3
147.31
112.12
63.46
10.31
-38.89
-78.52
-106.71
-124.85
-135.94
-142.85
-146.85
-147.24
-141.92
-128.67
-106.56
-76.68
-42.09
-6.73
25.84
53.49
75.65
92.73
105.22
112.99
115.34
111.71
102.47
89.32
75.08
62.82
54.78
51.62
52.15
53.97
54.55
52.34
47.37
41.13
35.71
32.65
32.16
32.85
32.12
26.94
14.62
-6.58
-37.02
-75.34
-118.19
-160.31
-195.12
-216.0
-218.0
-199.47
-162.91
-114.58
-62.77
-15.43
22.12
48.28
64.91
75.7
84.18
92.35
100.16
106.35
109.65
109.67
107.17
103.56
100.04
96.88
93.3
87.68
78.28
63.88
44.43
21.24
-3.2
-25.91
-44.16
-56.27
-62.03
-62.68
-60.52
-58.43
-59.39
-65.82
-78.95
-97.96
-119.7
-139.11
-150.63
-150.21
-136.8
-112.8
-82.95
-52.36
-24.71
-1.56
17.38
33.22
47.03
59.5
70.99
81.68
91.62
100.67
108.38
114.26
117.95
119.3
118.19
114.41
107.57
97.56
84.92
71.04
57.76
46.48
37.37
29.14
19.56
6.55
-10.99
-32.77
-57.38
-82.66
-106.23
-125.49
-137.67
-140.22
-131.47
-111.53
-82.75
-49.3
-15.97
13.33
36.57
53.78
66.2
75.12
80.98
83.34
81.37
74.84
64.54
52.27
40.17
30.07
22.93
18.94
17.81
19.29
23.15
29.07
36.24
43.18
48.06
49.31
46.25
39.32
29.77
19.0
7.91
-3.4
-15.46
-29.08
-44.92
-63.12
-83.11
-103.39
-121.61
-134.91
-140.61
-136.93
-123.61
-101.94
-74.21
-43.1
-10.98
20.13
48.41
72.05
89.36
99.14
101.1
96.07
85.78
72.49
58.45
45.54
35.05
27.5
22.73
19.86
17.61
14.57
9.58
2.08
-7.79
-19.1
-30.31
-39.58
-45.32
-46.61
-43.66
-37.89
-31.66
-27.78
-28.88
-36.64
-51.05
-69.91
-88.85
-102.25
-105.0
-94.35
-71.21
-39.85
-6.42
23.51
46.74
63.15
74.74
83.99
92.42
99.94
105.44
107.83
106.99
103.97
100.48
97.95
96.69
95.66
92.99
87.0
77.06
63.82
48.85
33.76
19.49
6.14
-6.58
-18.77
-29.94
-39.26
-46.12
-50.63
-53.81
-57.06
-61.61
-68.1
-76.47
-86.24
-96.62
-106.48
-114.06
-117.2
-113.74
-102.42
-83.54
-58.93
-31.3
-3.24
23.55
48.23
70.21
88.52
101.54
107.63
106.12
98.02
86.08
73.78
64.21
58.98
57.84
59.06
60.23
59.15
54.44
45.76
33.64
19.17
3.67
-11.6
-25.57
-37.49
-46.96
-54.02
-59.2
-63.42
-67.88
-73.75
-81.94
-92.89
-106.47
-121.83
-137.33
-150.41
-157.98
-157.01
-145.53
-123.45
-92.81
-57.42
-21.72
10.52
36.88
56.63
70.16
78.32
81.9
81.44
77.46
70.71
62.23
53.22
44.83
37.94
33.01
30.24
29.5
30.33
31.85
32.8
31.77
27.74
20.57
11.13
1.07
-7.92
-14.93
-20.37
-25.86
-33.76
-46.17
-64.02
-86.42
-110.38
-131.43
-144.72
-146.67
-136.16
-115.11
-87.77
-59.2
-33.59
-12.84
3.45
17.27
30.81
45.3
60.6
75.42
88.01
96.85
101.03
100.34
95.19
86.52
75.72
64.62
55.09
48.65
45.73
45.28
44.93
41.67
33.17
18.66
-0.48
-21.14
-39.45
-52.19
-57.87
-57.3
-53.33
-49.87
-50.41
-56.53
-67.08
-78.48
-86.08
-86.05
-76.93
-60.15
-39.25
-18.22
0.25
15.73
29.93
45.59
64.7
87.14
109.85
127.21
132.29
119.14
85.23
33.43
-27.75
-85.94
-128.41
-145.86
-134.95
-98.83
-45.43
15.35
74.36
124.84
162.66
185.72
193.17
185.23
163.33
130.53
91.54
52.03
17.45
-8.03
-21.98
-23.81
-14.31
4.62
29.96
57.37
81.56
97.35
101.42
93.53
76.5
54.63
31.33
7.43
-18.88
-50.24
-87.68
-129.02
-169.06
-201.45
-220.92
-224.81
-213.29
-188.3
-152.47
-108.45
-59.15
-8.38
38.64
75.8
97.44
100.13
84.2
54.17
17.66
-16.86
-42.54
-56.2
-58.83
-54.55
-48.72
-45.75
-47.79
-54.23
-62.32
-68.16
-67.99
-59.25
-41.29
-15.7
13.89
42.55
65.29
78.41
80.6
73.44
60.91
48.04
39.1
36.23
38.92
44.55
49.84
52.2
50.53
45.13
36.97
26.97
15.97
4.9
-4.85
-11.51
-13.65
-10.92
-4.52
3.12
9.34
12.37
12.04
9.64
7.03
5.46
4.72
3.01
-2.32
-13.55
-31.17
-53.24
-75.62
-93.14
-101.36
-98.04
-83.91
-62.2
-37.45
-13.89
5.6
20.0
29.62
35.37
38.15
38.68
37.74
36.41
36.02
37.58
41.23
45.98
50.08
51.71
49.79
44.27
35.85
25.38
13.29
-0.42
-15.92
-33.02
-50.86
-67.98
-82.66
-93.47
-99.66
-101.31
-99.46
-95.94
-93.07
-93.07
-97.11
-104.54
-112.56
-116.83
-112.79
-97.48
-70.89
-36.32
0.59
33.78
58.74
73.73
79.84
79.77
76.45
71.91
66.95
61.66
56.12
50.81
46.68
44.63
45.0
47.37
50.72
53.85
55.82
56.08
54.28
50.06
42.95
32.57
18.99
3.0
-13.92
-30.0
-43.88
-55.03
-64.19
-73.03
-83.6
-97.22
-113.41
-129.4
-140.42
-141.3
-128.37
-101.19
-63.1
-20.28
20.37
53.46
76.47
89.83
95.63
96.32
93.61
88.34
80.92
71.81
61.89
52.21
43.75
37.05
32.14
28.57
25.66
22.75
19.45
15.66
11.59
7.67
4.44
2.33
1.66
2.37
3.94
5.11
3.82
-2.58
-16.72
-40.16
-72.15
-108.89
-143.97
-169.85
-180.31
-172.65
-148.63
-113.78
-75.32
-39.73
-10.93
10.06
24.37
34.02
40.8
45.91
50.04
53.57
56.72
59.4
61.17
61.38
59.52
55.62
50.39
44.97
40.55
37.81
36.64
36.19
35.24
32.56
27.29
19.25
8.85
-2.94
-15.04
-26.68
-37.8
-49.15
-61.95
-77.05
-93.9
-110.03
-121.34
-123.5
-113.72
-92.07
-61.64
-27.35
5.91
34.82
58.05
75.73
88.3
95.65
97.19
92.36
81.61
66.59
49.98
34.64
22.73
15.18
11.58
10.55
10.31
9.41
7.28
4.55
2.82
4.1
9.87
20.24
33.6
46.86
56.31
58.78
52.49
37.49
15.36
-11.3
-39.33
-65.33
-85.97
-98.32
-100.57
-92.63
-76.49
-55.7
-34.11
-14.5
2.35
17.49
32.63
48.65
64.78
78.86
88.73
93.79
95.77
98.09
104.02
114.73
128.14
139.27
142.01
131.3
104.87
63.95
12.8
-42.36
-94.79
-138.44
-168.98
-184.28
-184.72
-172.8
-152.55
-128.87
-106.84
-90.96
-84.45
-88.25
-100.44
-116.24
-129.22
-132.99
-123.29
-99.24
-63.5
-21.27
21.46
59.58
89.99
111.85
126.03
134.16
137.62
137.08
132.48
123.68
111.04
95.83
79.98
65.46
53.65
45.08
39.59
36.67
35.82
36.47
37.79
38.62
37.59
33.56
26.0
15.19
1.91
-12.98
-29.08
-46.58
-66.07
-87.99
-111.91
-136.16
-157.78
-173.1
-178.68
-172.27
-153.39
-123.41
-85.16
-42.2
1.78
43.44
79.98
109.35
130.39
143.11
148.64
149.12
147.09
144.81
143.55
143.34
143.17
141.55
137.2
129.55
118.78
105.44
89.99
72.54
53.01
31.56
9.06
-12.88
-32.35
-47.95
-59.36
-67.58
-74.43
-81.98
-91.65
-103.77
-117.19
-129.37
-136.91
-136.59
-126.55
-107.17
-81.14
-52.55
-25.38
-2.07
17.01
32.95
47.1
59.82
70.28
77.03
79.13
77.0
72.36
67.69
65.14
65.89
69.87
76.05
82.78
88.26
90.74
88.89
82.25
71.55
58.82
46.85
38.11
33.71
32.89
33.25
31.78
26.07
15.0
-1.19
-21.31
-43.68
-66.13
-86.01
-100.14
-105.4
-99.63
-82.66
-56.58
-25.3
6.56
34.85
56.67
70.47
75.78
72.82
62.48
46.58
27.95
10.25
-2.93
-9.25
-8.54
-2.96
3.83
8.26
8.42
4.86
0.19
-2.31
-0.43
5.77
13.96
20.62
22.67
18.74
9.62
-2.48
-15.02
-26.2
-35.47
-43.32
-50.87
-59.32
-69.61
-82.07
-96.22
-110.43
-122.05
-127.87
-125.15
-112.62
-90.89
-62.34
-30.18
2.48
33.24
60.55
83.41
101.08
113.05
119.1
119.52
114.97
106.33
94.4
79.8
63.02
44.83
26.35
9.15
-5.27
-15.99
-23.05
-27.52
-31.01
-34.85
-39.49
-44.32
-48.05
-49.51
-48.24
-44.84
-40.74
-37.8
-37.85
-42.34
-51.8
-65.41
-80.66
-93.68
-100.2
-97.13
-83.82
-62.47
-37.31
-12.89
7.58
23.02
34.08
42.12
48.01
51.75
52.91
51.32
47.7
43.6
40.74
40.28
42.28
45.77
49.3
51.59
51.98
50.39
46.92
41.39
33.19
21.57
6.25
-12.08
-31.55
-49.69
-64.23
-73.96
-79.09
-81.05
-81.92
-83.57
-86.94
-91.64
-95.86
-96.7
-91.04
-76.6
-52.98
-22.14
11.97
44.65
71.92
91.7
104.04
110.5
113.04
113.12
111.38
107.84
102.49
95.53
87.5
78.93
70.15
61.22
51.96
42.33
32.61
23.41
15.52
9.62
5.92
4.14
3.56
3.24
2.35
0.26
-3.3
-8.33
-14.65
-22.05
-30.53
-40.43
-52.43
-67.15
-84.49
-103.08
-120.02
-131.59
-134.33
-126.31
-107.87
-81.33
-50.15
-17.89
12.53
38.84
59.24
72.27
76.97
73.44
63.18
49.17
35.21
24.94
20.75
23.05
30.13
38.72
45.07
46.09
40.38
28.56
12.91
-3.55
-18.07
-29.03
-36.2
-40.52
-43.54
-46.85
-51.62
-58.5
-67.69
-79.12
-92.51
-107.17
-121.67
-133.81
-140.86
-140.33
-130.91
-113.23
-89.84
-64.49
-40.93
-21.68
-7.54
2.32
9.59
15.99
22.78
30.66
39.93
50.59
62.27
74.0
83.99
89.82
89.12
80.48
64.21
42.63
19.55
-0.76
-14.85
-21.09
-20.06
-14.32
-7.73
-4.45
-8.06
-20.86
-43.45
-74.3
-109.69
-143.88
-170.0
-181.61
-174.6
-148.78
-108.2
-60.04
-12.36
28.22
58.12
76.93
86.43
89.19
87.5
82.89
76.36
68.62
60.23
51.61
43.02
34.62
26.68
19.52
13.46
8.64
4.87
1.77
-1.01
-3.56
-5.71
-7.22
-8.02
-8.55
-9.67
-12.7
-19.05
-30.15
-47.03
-69.9
-97.54
-126.92
-153.28
-171.19
-176.07
-165.75
-141.46
-107.51
-70.09
-35.44
-8.35
8.72
15.63
14.01
6.6
-3.44
-13.1
-20.0
-22.81
-21.54
-17.41
-12.47
-8.99
-8.89
-13.37
-22.63
-35.67
-50.15
-62.49
-68.32
-63.46
-44.88
-11.38
36.37
96.26
165.2
239.16
312.89
379.56
431.32
460.69
462.71
436.93
388.05
324.88
257.98
196.81
147.63
112.59
90.31
77.11
68.75
61.66
53.69
44.24
33.93
24.09
16.18
11.42
10.37
12.66
17.01
21.45
23.73
21.92
14.86
2.45
-14.39
-33.93
-54.06
-72.7
-88.25
-99.86
-107.64
-112.44
-115.55
-118.21
-121.23
-124.93
-129.36
-134.38
-139.71
-144.75
-148.4
-149.15
-145.51
-136.63
-122.57
-104.27
-82.95
-59.67
-35.15
-10.0
14.69
37.23
55.52
67.79
73.32
72.76
67.89
60.97
54.17
49.11
46.72
47.3
50.46
55.17
59.9
62.88
62.66
58.55
50.89
40.8
29.57
18.02
6.17
-6.67
-21.44
-38.77
-58.7
-80.66
-103.64
-126.11
-146.06
-160.95
-168.14
-165.7
-153.38
-132.97
-107.93
-82.11
-58.4
-37.86
-19.91
-3.39
12.34
26.75
38.3
45.37
47.1
43.87
37.09
28.64
20.1
12.42
5.77
-0.13
-5.57
-10.41
-13.84
-14.54
-11.09
-2.58
10.92
28.23
47.39
66.02
81.78
92.4
95.78
90.14
74.8
51.02
22.65
-4.35
-23.55
-30.38
-24.0
-7.72
12.37
29.91
40.59
43.42
40.17
33.92
27.33
21.84
17.62
14.44
12.31
11.65
13.0
16.4
21.07
25.54
28.15
27.79
24.26
18.3
11.1
3.82
-3.01
-9.54
-16.59
-25.25
-36.55
-51.2
-69.52
-91.39
-116.08
-142.05
-166.65
-186.13
-196.19
-193.16
-175.27
-143.73
-102.7
-58.27
-16.61
17.75
43.0
60.01
71.35
79.98
88.07
96.5
104.83
111.76
115.64
114.92
108.53
96.2
78.55
57.12
34.14
12.16
-6.37
-19.5
-25.97
-25.36
-18.1
-5.4
10.76
27.78
42.72
52.6
54.81
47.48
29.89
2.79
-31.25
-67.77
-100.94
-124.66
-134.22
-127.68
-106.53
-75.12
-39.29
-4.59
24.99
47.43
62.48
71.14
75.29
77.42
80.34
86.54
97.32
112.23
128.96
144.09
154.37
157.86
154.47
145.7
133.65
119.95
105.11
88.48
68.96
45.9
19.79
-7.62
-33.8
-56.26
-73.51
-85.53
-93.76
-100.49
-107.81
-116.54
-125.64
-132.24
-132.6
-123.45
-103.55
-74.47
-40.55
-7.73
18.13
32.92
35.32
26.8
10.83
-8.32
-26.56
-40.67
-48.49
-48.89
-41.76
-27.92
-9.18
11.99
32.84
50.93
64.54
72.85
75.85
74.03
68.16
59.21
48.21
36.23
24.26
12.98
2.65
-6.87
-16.08
-25.82
-37.15
-51.12
-68.41
-88.57
-109.58
-127.88
-139.0
-138.99
-125.77
-100.01
-65.14
-26.35
10.84
41.93
64.13
76.48
79.63
75.43
66.63
56.54
48.35
44.31
44.89
48.54
52.14
52.25
46.56
35.02
20.05
5.68
-3.99
-6.44
-1.8
7.07
15.62
19.21
14.75
1.81
-17.46
-38.98
-58.27
-71.74
-77.68
-76.44
-69.78
-59.9
-48.46
-36.2
-23.01
-8.55
7.21
23.74
39.95
54.59
66.58
75.17
79.97
80.88
78.09
72.1
63.87
54.59
45.59
38.0
32.48
29.07
27.14
25.45
22.5
17.04
8.57
-2.34
-14.27
-25.54
-34.96
-42.19
-47.65
-52.01
-55.57
-58.13
-59.21
-58.7
-57.26
-56.29
-57.4
-61.64
-68.87
-77.54
-84.98
-88.12
-84.4
-72.53
-52.86
-27.22
1.65
30.8
57.64
80.08
96.5
105.73
107.18
101.25
89.57
74.8
59.95
47.32
37.92
31.4
26.68
22.75
19.26
16.47
14.76
14.06
13.56
11.89
7.71
0.16
-10.67
-23.86
-37.82
-50.88
-61.74
-70.01
-76.4
-82.62
-90.85
-102.73
-118.31
-135.34
-149.29
-154.66
-146.72
-123.5
-86.79
-41.88
4.01
43.97
73.27
90.36
96.61
95.28
90.12
84.39
80.2
78.44
78.88
80.53
82.0
81.98
79.58
74.54
67.13
57.95
47.56
36.22
23.83
10.16
-4.9
-21.04
-37.35
-52.46
-64.88
-73.52
-78.11
-79.69
-80.6
-84.06
-93.13
-109.26
-131.1
-154.32
-172.64
-180.04
-173.19
-152.89
-123.89
-93.13
-67.19
-50.25
-43.25
-44.29
-49.98
-56.7
-61.61
-62.99
-60.34
-54.21
-45.91
-37.0
-28.9
-22.52
-18.19
-15.84
-15.28
-16.46
-19.55
-24.98
-33.27
-44.34
-57.15
-68.87
-75.14
-71.13
-53.13
-20.32
24.63
76.18
127.74
173.69
210.81
238.47
257.84
270.73
278.7
282.92
284.28
283.74
282.34
281.0
280.09
279.21
277.12
272.07
262.4
247.27
227.13
203.74
179.71
157.34
137.49
119.34
100.39
78.03
50.75
19.13
-14.44
-46.87
-76.08
-102.09
-126.89
-153.4
-183.81
-218.37
-255.07
-290.47
-320.78
-343.02
-355.47
-357.73
-351.0
-338.38
-325.02
-317.29
-320.61
-336.61
-361.29
-385.36
-397.19
-387.45
-352.62
-296.06
-225.86
-151.04
-77.98
-9.13
56.11
119.41
182.0
244.46
307.24
370.9
435.37
498.68
556.11
600.89
626.34
628.42
607.7
569.42
521.69
472.89
429.34
394.03
366.81
345.52
327.34
309.92
291.85
272.76
252.9
232.65
212.01
190.45
166.91
140.31
110.06
76.41
40.45
3.71
-31.9
-64.81
-93.7
-117.94
-137.78
-154.41
-169.83
-185.88
-203.11
-219.82
-232.24
-236.06
-228.48
-209.97
-184.29
-157.09
-133.69
-117.21
-108.19
-105.61
-108.45
-116.93
-132.72
-158.17
-194.82
-241.75
-294.67
-346.16
-387.31
-410.1
-409.89
-386.93
-345.74
-293.25
-236.31
-179.95
-127.18
-79.84
-39.77
-9.15
9.97
16.76
12.4
0.12
-15.6
-30.3
-40.66
-45.31
-44.96
-41.82
-38.56
-37.24
-38.55
-41.89
-45.94
-49.46
-52.06
-54.3
-57.53
-63.49
-73.81
-89.54
-110.44
-134.45
-157.58
-174.74
-181.35
-175.14
-157.13
-131.32
-103.04
-76.78
-54.77
-36.68
-20.62
-4.51
12.99
32.15
52.33
72.16
89.64
102.17
107.07
102.31
87.5
64.41
36.59
8.36
-16.49
-35.62
-48.61
-56.73
-62.54
-69.29
-80.17
-97.25
-120.41
-146.86
-171.54
-188.73
-193.91
-185.45
-165.07
-137.14
-106.98
-79.09
-55.86
-37.41
-22.14
-7.94
6.76
22.14
36.88
48.38
53.62
50.22
37.69
18.18
-3.62
-21.65
-30.27
-25.78
-7.23
23.83
64.38
110.55
158.07
202.1
237.38
258.99
263.56
250.51
222.31
183.69
140.15
96.53
56.55
22.89
-2.43
-18.13
-24.06
-21.68
-13.91
-4.1
5.16
13.13
20.8
30.0
42.2
57.63
75.24
93.4
110.46
125.12
136.43
143.45
145.47
142.3
134.61
124.05
112.64
102.15
93.54
87.13
82.84
80.47
79.49
78.52
75.14
66.46
50.3
26.39
-3.24
-35.13
-65.93
-93.87
-119.29
-143.68
-167.87
-190.62
-208.32
-216.25
-210.67
-190.64
-158.55
-119.1
-77.29
-36.57
1.86
38.36
73.25
105.5
132.47
150.91
158.54
155.37
143.8
127.59
110.43
94.88
82.08
72.35
65.79
62.71
63.53
68.29
76.42
86.65
97.19
105.96
110.82
109.91
102.1
87.31
66.69
42.4
17.02
-7.22
-28.95
-47.7
-63.87
-78.51
-93.17
-109.52
-128.57
-149.68
-169.93
-184.37
-187.62
-175.96
-149.04
-110.23
-65.35
-20.45
20.06
54.16
81.75
103.37
119.4
129.85
134.93
135.65
133.88
131.98
131.97
134.77
140.03
146.2
151.11
152.74
149.74
141.91
130.11
115.93
101.09
86.91
74.04
62.46
51.57
40.72
29.45
17.88
6.81
-2.48
-8.72
-11.43
-11.42
-10.76
-12.06
-17.53
-28.09
-43.21
-61.3
-80.22
-97.81
-111.75
-119.73
-119.65
-110.36
-92.33
-67.73
-39.6
-10.52
18.64
48.75
81.19
116.11
151.16
181.83
203.04
211.2
205.81
189.42
166.48
141.64
118.44
98.95
84.2
74.97
72.01
75.75
85.52
98.92
111.94
119.88
118.91
107.44
86.66
59.99
31.51
4.31
-20.76
-45.14
-71.68
-103.15
-140.79
-183.52
-228.18
-270.55
-307.06
-335.87
-357.01
-371.58
-380.0
-380.9
-371.18
-347.1
-306.02
-247.55
-173.82
-89.22
0.16
86.92
162.87
220.22
253.38
260.84
246.16
217.04
182.97
152.16
129.28
114.91
106.5
100.12
92.15
80.24
63.69
43.57
22.29
3.1
-10.84
-17.42
-16.16
-8.59
2.34
13.06
20.38
22.33
18.41
9.56
-2.37
-15.46
-28.42
-41.1
-54.82
-71.81
-94.42
-123.93
-159.35
-196.98
-230.72
-253.62
-260.05
-247.45
-217.18
-173.83
-123.57
-72.25
-24.25
17.86
52.65
79.34
97.5
107.57
111.25
111.53
111.63
113.55
116.77
118.21
113.3
98.04
70.84
33.46
-9.64
-53.08
-92.78
-127.33
-157.86
-186.47
-214.11
-239.15
-257.39
-263.75
-254.52
-229.17
-190.86
-145.33
-99.12
-57.84
-25.17
-2.68
9.93
14.51
14.1
12.44
13.13
18.55
29.19
43.65
59.37
73.79
85.26
93.41
98.76
102.14
104.32
105.87
107.39
109.64
113.36
119.01
126.36
134.46
142.04
148.16
152.79
156.88
161.69
167.67
173.67
176.84
173.61
161.18
138.72
107.64
70.71
30.67
-10.61
-52.17
-92.91
-130.9
-163.32
-187.65
-203.02
-210.89
-214.18
-215.49
-215.3
-211.49
-200.63
-179.96
-149.41
-111.93
-72.45
-35.98
-5.98
16.14
30.46
37.72
38.66
33.95
24.72
12.82
0.83
-8.53
-13.38
-13.28
-9.44
-4.19
-0.02
1.16
-1.34
-7.16
-15.33
-24.72
-34.4
-43.72
-52.19
-59.56
-65.78
-70.97
-75.33
-78.84
-81.33
-82.67
-83.1
-83.49
-84.67
-86.6
-87.55
-84.26
-73.22
-52.63
-23.74
9.1
39.99
63.92
78.5
84.57
85.07
83.18
80.98
78.84
76.22
72.95
70.02
69.71
74.62
86.36
104.44
125.97
146.34
160.63
165.18
158.74
142.64
120.12
95.24
71.62
51.94
37.72
29.29
25.78
24.9
22.87
14.8
-4.1
-37.02
-83.96
-141.27
-202.19
-258.52
-302.63
-329.07
-335.46
-322.31
-292.4
-249.87
-199.38
-145.48
-91.98
-41.51
4.7
46.68
85.35
121.53
155.21
184.99
208.36
222.57
225.72
217.92
201.52
180.43
158.83
139.8
124.49
112.25
101.51
90.67
79.01
66.67
54.4
42.88
32.23
21.93
11.02
-1.28
-15.21
-30.27
-45.4
-59.41
-71.56
-81.81
-90.88
-99.93
-109.99
-121.49
-133.78
-145.09
-152.76
-153.91
-146.38
-129.45
-104.32
-73.9
-42.08
-12.68
11.43
28.81
39.45
44.43
45.55
44.85
44.36
45.61
49.44
55.74
63.68
72.22
80.6
88.6
96.4
103.99
110.73
115.19
115.56
110.32
98.97
82.22
61.86
40.23
19.65
2.0
-11.57
-20.56
-25.22
-26.44
-25.66
-24.69
-25.38
-29.25
-37.31
-49.76
-65.88
-83.95
-101.38
-115.04
-121.93
-119.86
-108.28
-88.53
-63.65
-37.72
-14.77
2.17
11.56
13.49
9.25
0.94
-9.01
-18.29
-24.99
-28.02
-27.37
-24.13
-20.48
-18.98
-21.83
-29.82
-41.37
-52.23
-56.13
-46.49
-19.01
26.06
83.04
142.08
192.32
225.53
238.54
233.42
215.41
190.09
161.2
130.25
97.57
63.67
29.92
-1.83
-29.95
-53.46
-71.72
-83.88
-88.57
-84.46
-71.26
-50.26
-24.62
1.76
25.19
43.08
54.26
58.62
56.73
49.66
38.88
26.22
13.6
2.58
-5.93
-11.85
-15.76
-18.53
-21.06
-23.86
-26.93
-29.74
-31.52
-31.68
-30.24
-27.91
-25.82
-24.73
-24.45
-23.79
-21.05
-15.09
-6.2
3.71
11.62
14.64
11.22
1.7
-11.58
-25.04
-34.76
-37.61
-32.12
-18.85
-0.28
20.05
38.6
52.78
61.45
64.74
63.49
58.82
51.84
43.72
35.83
29.45
25.48
24.1
24.65
25.97
26.9
26.51
24.19
19.54
12.25
2.33
-9.84
-23.27
-36.46
-47.83
-56.11
-60.77
-62.21
-61.75
-61.26
-62.57
-66.84
-74.17
-83.5
-93.19
-101.42
-106.69
-107.88
-104.03
-94.34
-78.48
-56.98
-31.73
-5.81
17.4
35.25
46.73
52.47
54.03
52.98
50.08
45.43
38.86
30.54
21.28
12.24
4.43
-1.78
-6.72
-11.07
-15.38
-19.64
-23.33
-25.71
-26.36
-25.48
-23.95
-23.03
-23.96
-27.65
-34.5
-44.55
-57.71
-73.53
-91.08
-108.42
-122.54
-129.91
-127.64
-114.57
-92.17
-64.17
-35.57
-10.87
7.15
17.91
22.81
24.13
24.05
24.07
24.86
26.51
28.98
32.29
36.48
41.5
46.96
52.08
55.81
57.14
55.45
50.51
42.57
32.1
19.64
5.82
-8.65
-22.89
-35.93
-47.08
-56.3
-64.28
-72.25
-81.06
-90.5
-98.77
-102.91
-99.97
-88.18
-67.86
-41.39
-12.28
16.0
40.89
61.08
76.0
85.46
89.27
87.39
80.41
69.7
57.26
45.21
35.09
27.74
23.24
21.28
21.4
22.99
25.15
26.63
26.03
22.38
15.38
5.72
-5.24
-16.21
-26.32
-35.42
-44.09
-53.31
-64.13
-77.22
-91.95
-105.96
-115.08
-114.44
-100.47
-72.73
-34.71
7.05
45.29
74.56
92.78
100.98
101.82
97.99
91.17
82.2
71.96
61.91
54.0
49.92
50.2
54.03
59.35
63.57
64.31
59.78
49.0
32.18
10.98
-11.1
-29.2
-38.38
-35.5
-20.8
1.84
25.93
44.71
53.36
50.32
37.25
18.45
-0.36
-13.32
-15.78
-5.67
15.94
45.0
75.96
103.87
125.91
141.73
152.32
158.54
160.2
156.41
146.68
131.96
114.58
97.23
81.67
67.81
54.28
39.57
23.26
6.46
-8.76
-20.34
-27.6
-31.59
-34.67
-39.25
-46.72
-56.76
-67.61
-77.09
-83.51
-86.46
-86.62
-85.37
-84.22
-84.39
-86.54
-90.5
-95.11
-98.33
-97.69
-91.16
-77.98
-58.94
-36.11
-12.03
11.18
32.07
49.78
63.59
72.59
76.05
73.83
66.89
57.37
48.06
41.38
38.66
39.64
42.75
45.86
47.3
46.58
44.34
42.02
40.9
41.3
42.39
42.38
39.43
32.39
21.22
7.04
-8.24
-22.76
-35.1
-44.67
-51.87
-57.87
-64.42
-73.31
-85.76
-101.73
-119.46
-135.63
-146.21
-147.76
-138.65
-119.59
-93.21
-63.07
-32.34
-3.23
22.95
45.22
62.33
72.88
75.89
71.76
62.59
51.84
43.28
39.61
41.64
48.11
56.62
64.55
70.21
73.12
73.85
73.37
72.48
71.57
70.73
69.76
68.44
66.4
63.14
58.27
51.55
43.25
34.15
25.21
17.29
10.56
4.25
-3.18
-13.94
-30.17
-53.27
-82.98
-116.81
-150.03
-176.55
-190.61
-188.61
-170.49
-139.62
-101.7
-62.73
-27.34
2.08
25.1
42.13
53.7
60.05
61.54
59.32
55.41
52.28
51.86
54.67
59.58
64.44
67.17
66.86
64.13
60.67
58.36
58.14
59.71
61.78
62.8
61.77
58.61
54.08
49.24
44.89
41.19
37.69
33.42
27.46
19.09
8.07
-5.32
-20.57
-36.94
-53.68
-70.12
-85.67
-100.05
-113.34
-126.04
-138.85
-151.99
-164.43
-173.6
-175.77
-167.47
-147.08
-115.83
-77.83
-38.48
-2.67
26.67
48.95
65.12
76.37
83.34
86.02
84.48
79.59
73.25
67.89
65.41
66.35
69.62
72.93
73.97
71.32
64.97
56.17
46.66
38.13
31.73
28.0
27.03
28.66
32.23
36.72
40.76
42.86
41.94
37.5
29.86
19.81
8.35
-3.65
-15.57
-27.03
-37.85
-48.11
-58.17
-68.62
-80.25
-93.68
-109.09
-125.7
-141.53
-153.49
-157.86
-151.46
-132.75
-102.67
-64.63
-23.7
14.9
47.26
71.5
87.85
97.57
101.99
101.83
97.23
88.57
76.87
64.23
53.09
45.42
41.93
41.83
43.35
44.62
44.39
42.46
39.43
36.12
33.19
30.88
29.22
28.14
27.52
27.22
26.89
25.93
23.67
19.47
12.96
4.09
-6.89
-19.4
-32.57
-45.48
-57.33
-67.89
-77.71
-87.9
-100.03
-115.1
-132.88
-151.33
-166.71
-174.54
-171.03
-154.52
-126.24
-89.99
-50.89
-13.68
18.51
44.47
64.32
78.51
86.93
89.12
84.98
75.59
63.53
52.21
44.68
42.47
45.16
50.76
56.84
61.49
63.93
64.31
63.28
61.46
59.1
56.28
53.01
49.39
45.57
41.54
37.04
31.65
24.93
16.74
7.48
-2.05
-10.78
-17.86
-23.07
-26.96
-30.98
-36.93
-46.58
-60.92
-79.5
-100.18
-119.21
-132.26
-135.7
-127.91
-109.84
-84.65
-56.44
-28.84
-3.99
17.55
36.0
51.55
63.78
71.89
75.31
74.31
69.97
63.75
56.75
49.43
41.64
33.08
23.84
14.51
5.92
-1.27
-7.15
-12.35
-17.83
-24.25
-31.56
-39.05
-45.6
-50.22
-52.46
-52.53
-51.08
-49.11
-47.69
-47.95
-51.02
-57.74
-68.29
-81.48
-94.48
-103.19
-103.42
-92.57
-70.79
-41.31
-9.3
20.08
43.4
59.7
70.16
76.65
80.55
82.26
81.41
77.88
72.36
66.39
61.76
59.59
59.8
61.13
61.75
60.17
55.89
49.51
42.21
34.94
27.84
20.32
11.49
1.02
-10.42
-21.39
-30.45
-37.07
-42.15
-47.7
-55.96
-68.34
-84.82
-104.0
-123.58
-140.75
-152.59
-156.25
-149.47
-131.16
-102.15
-65.26
-24.84
14.43
48.83
76.38
96.84
111.02
119.98
124.43
124.73
121.18
114.21
104.56
92.97
80.18
66.82
53.55
41.09
30.18
21.34
14.76
10.08
6.53
3.25
-0.5
-5.09
-10.55
-16.79
-23.68
-31.3
-39.74
-49.04
-59.08
-69.65
-80.73
-92.52
-105.27
-118.71
-131.42
-140.68
-143.1
-135.85
-117.97
-91.13
-59.07
-26.3
3.62
29.05
50.33
68.72
85.29
100.12
112.47
121.42
126.6
128.53
128.18
126.41
123.41
118.66
111.46
101.42
88.96
75.14
61.21
47.99
35.5
23.09
9.89
-4.58
-20.01
-35.34
-49.07
-59.9
-67.29
-71.76
-74.76
-78.54
-85.49
-97.46
-114.89
-136.13
-157.36
-173.33
-178.89
-170.83
-149.1
-116.84
-79.24
-41.63
-7.97
19.92
41.92
58.67
70.85
78.96
83.62
85.93
87.42
89.64
93.47
98.69
104.16
108.29
109.83
108.45
104.74
99.73
94.33
88.73
82.38
74.38
64.03
51.34
37.09
22.39
8.21
-5.14
-18.1
-31.62
-46.74
-64.09
-83.78
-105.15
-126.62
-145.82
-159.65
-164.94
-159.34
-142.3
-115.62
-83.19
-49.8
-19.73
4.63
23.13
37.23
48.89
59.41
68.94
76.68
81.54
82.98
81.46
78.41
75.73
75.02
76.91
80.76
85.17
88.61
90.28
90.3
89.39
88.08
86.08
82.33
75.42
64.61
50.33
34.02
17.46
1.79
-12.9
-27.46
-43.06
-60.45
-79.57
-99.62
-119.18
-136.31
-148.55
-153.2
-147.94
-131.71
-105.49
-72.47
-37.28
-4.63
22.14
41.69
54.44
61.63
64.37
63.2
58.51
50.99
42.1
33.85
28.04
25.57
26.12
28.35
30.75
32.32
33.05
33.73
35.23
37.96
41.43
44.48
45.82
44.66
41.01
35.67
29.74
24.22
19.65
15.92
12.44
8.22
2.11
-7.05
-20.23
-37.86
-59.31
-82.54
-104.01
-119.36
-124.63
-117.61
-98.84
-71.44
-40.04
-9.2
17.88
39.58
55.36
64.96
67.88
63.92
53.92
40.29
26.72
16.92
12.98
14.5
18.63
21.46
19.61
11.68
-1.35
-16.64
-30.59
-40.05
-43.13
-39.41
-29.67
-15.51
1.17
18.36
34.07
46.46
53.81
54.88
49.05
36.4
17.81
-5.34
-31.13
-57.11
-80.2
-96.9
-104.0
-99.59
-83.94
-59.79
-31.61
-4.11
19.03
36.1
47.12
53.04
54.87
53.23
48.47
41.18
32.39
23.56
16.18
11.3
9.4
10.31
13.5
18.09
22.88
26.56
27.93
26.32
22.03
16.12
10.0
4.75
0.53
-3.47
-8.65
-16.36
-27.33
-41.63
-58.7
-77.43
-96.06
-111.95
-121.83
-122.48
-111.93
-90.39
-60.55
-26.84
5.86
33.71
54.72
68.66
76.43
79.22
78.1
73.94
67.66
60.36
53.22
47.03
41.93
37.23
31.72
24.41
15.02
4.35
-5.94
-14.09
-18.88
-20.14
-18.72
-16.02
-13.47
-11.99
-11.91
-13.19
-15.77
-19.98
-26.51
-36.34
-50.33
-68.61
-90.01
-111.74
-129.7
-139.53
-137.92
-123.85
-99.03
-67.33
-33.39
-1.05
27.78
53.06
75.82
96.81
115.6
130.51
139.44
140.84
134.69
122.57
107.16
91.38
77.32
65.84
56.44
47.69
37.69
24.58
7.04
-15.26
-41.14
-67.83
-91.39
-107.84
-114.3
-110.2
-97.53
-80.29
-63.32
-50.94
-45.92
-48.8
-57.83
-69.36
-78.76
-81.58
-74.9
-58.22
-33.61
-5.11
22.57
45.24
60.23
66.81
65.85
59.58
50.7
41.89
35.23
31.82
31.65
33.95
37.62
41.72
45.64
48.9
51.02
51.4
49.42
44.76
37.49
28.17
17.6
6.37
-5.25
-17.36
-30.24
-44.11
-59.17
-75.58
-93.37
-112.1
-130.11
-144.31
-150.54
-144.91
-125.62
-94.14
-55.34
-16.09
17.18
40.58
53.66
58.89
59.78
59.16
58.37
57.43
56.22
55.22
55.56
58.26
63.28
69.19
73.74
74.91
72.05
66.08
58.88
52.21
46.74
41.88
36.25
28.62
18.68
7.1
-4.9
-16.24
-26.8
-37.49
-49.99
-65.74
-84.72
-104.79
-121.81
-130.85
-128.06
-112.28
-85.47
-52.09
-17.26
14.86
41.97
63.48
79.5
90.05
94.62
92.68
84.34
70.73
53.93
36.25
19.67
5.43
-5.99
-14.71
-21.22
-26.25
-30.5
-34.48
-38.45
-42.31
-45.74
-48.31
-49.39
-48.33
-44.56
-37.92
-29.17
-20.19
-13.68
-12.23
-16.99
-26.74
-37.94
-45.92
-46.77
-38.78
-22.85
-1.81
21.06
43.1
62.85
79.77
93.69
104.49
112.03
116.43
118.24
118.3
117.38
116.03
114.27
112.05
109.41
106.62
104.24
102.6
101.54
100.19
97.12
90.85
80.6
66.68
50.54
34.14
19.12
6.12
-5.44
-17.04
-30.68
-48.34
-71.41
-100.01
-132.18
-163.57
-188.05
-199.57
-194.36
-172.78
-139.17
-100.14
-61.9
-28.04
0.75
25.75
48.24
68.12
83.9
93.5
95.71
91.05
81.82
71.36
62.77
57.75
55.77
54.46
50.77
42.49
29.41
13.54
-1.97
-14.32
-22.34
-26.89
-30.17
-34.65
-42.32
-54.16
-70.06
-88.82
-107.93
-123.89
-132.71
-130.98
-117.08
-91.66
-57.55
-18.96
19.72
54.86
84.22
107.26
124.94
139.2
152.11
165.18
178.94
192.89
205.92
216.57
223.3
224.55
218.85
205.26
183.72
155.2
121.54
84.74
46.38
7.48
-31.16
-68.68
-103.67
-134.74
-161.11
-183.21
-202.91
-223.1
-247.11
-277.69
-315.67
-358.8
-401.51
-436.05
-454.9
-453.56
-432.29
-395.73
-350.64
-302.97
-255.82
-209.51
-163.13
-116.41
-70.69
-28.08
10.09
44.58
78.43
115.89
160.81
215.03
277.36
342.94
404.24
452.57
480.66
484.75
465.7
428.36
379.4
324.75
267.9
209.52
148.26
82.38
11.24
-63.63
-138.06
-205.84
-259.92
-294.48
-306.72
-297.93
-273.04
-238.61
-200.75
-163.44
-128.44
-95.9
-65.57
-37.11
-9.71
18.56
50.74
89.68
136.3
188.01
238.82
280.91
307.37
314.73
303.96
279.71
248.14
214.61
182.27
152.0
123.16
94.75
66.15
37.14
7.82
-22.0
-52.8
-85.21
-119.54
-155.03
-189.33
-218.54
-238.39
-245.63
-239.48
-222.15
-198.05
-172.07
-147.83
-126.8
-108.43
-91.53
-75.41
-60.64
-48.86
-41.83
-40.49
-44.34
-51.45
-59.13
-64.9
-67.33
-66.57
-64.19
-62.39
-63.17
-67.64
-75.83
-86.87
-99.59
-113.07
-126.84
-140.71
-154.28
-166.34
-174.8
-176.86
-169.73
-151.57
-122.21
-83.21
-37.31
12.97
66.03
120.89
176.44
230.44
279.3
318.74
345.32
357.46
356.35
345.39
328.0
306.94
284.27
261.7
240.72
222.39
206.17
190.87
175.32
157.79
137.4
114.93
91.9
69.46
47.35
22.85
-6.68
-42.49
-85.97
-136.84
-191.97
-245.41
-289.6
-317.36
-325.42
-313.44
-283.21
-240.51
-191.23
-138.42
-81.81
-19.56
55.93
138.82
209.09
257.73
280.45
276.97
253.08
218.85
184.88
158.55
140.75
129.03
120.44
110.79
97.29
79.52
58.43
35.29
11.34
-12.95
-35.77
-53.72
-65.34
-70.92
-72.62
-74.33
-80.72
-95.72
-121.45
-155.99
-193.26
-226.21
-248.67
-257.37
-253.27
-241.31
-228.48
-221.3
-222.81
-231.39
-242.26
-249.39
-247.65
-234.61
-211.0
-179.92
-145.54
-111.53
-80.3
-53.27
-30.97
-13.43
-0.22
9.56
17.12
23.76
30.52
37.92
46.0
54.51
63.09
71.46
79.26
85.9
90.53
92.01
89.32
82.01
70.3
55.26
38.34
20.97
4.14
-11.86
-27.43
-43.47
-61.08
-80.91
-102.61
-124.26
-142.32
-152.32
-149.97
-132.77
-101.0
-57.93
-9.09
39.21
81.51
114.26
136.25
148.19
151.88
149.36
142.24
131.61
118.23
102.77
86.19
69.61
54.12
40.48
29.03
19.74
12.48
7.2
4.02
3.0
3.96
6.3
8.9
10.44
9.69
5.82
-1.23
-11.0
-23.05
-37.54
-55.33
-77.41
-103.64
-131.69
-157.04
-174.21
-178.88
-169.73
-148.85
-120.4
-88.4
-55.17
-21.02
14.41
50.58
85.4
115.67
138.55
152.63
158.21
156.57
149.08
136.64
120.17
101.1
81.94
65.82
55.5
52.25
55.13
61.2
66.58
67.57
61.84
48.8
29.68
6.79
-17.26
-40.26
-60.86
-78.85
-94.97
-110.36
-125.93
-141.38
-154.75
-162.78
-161.83
-149.46
-125.36
-91.55
-51.67
-9.64
31.19
68.29
99.77
123.96
139.36
145.18
141.69
130.6
114.82
97.72
82.56
71.98
67.66
70.06
78.15
89.43
100.5
107.95
109.58
104.95
95.31
82.7
68.75
54.0
38.06
20.53
1.97
-15.77
-30.26
-40.01
-45.76
-50.51
-58.01
-70.47
-86.48
-100.88
-106.58
-97.57
-72.06
-33.36
11.44
54.44
90.12
116.71
135.6
149.32
159.32
165.19
165.35
158.47
144.75
126.06
105.12
84.27
64.54
45.72
26.9
7.15
-13.92
-36.23
-59.15
-81.58
-101.83
-117.72
-127.03
-128.29
-121.45
-108.24
-91.96
-76.83
-67.28
-66.97
-78.03
-100.11
-129.83
-160.95
-185.47
-195.7
-186.55
-157.21
-111.36
-56.08
0.44
50.91
90.36
116.57
129.51
130.79
123.13
110.03
95.52
83.63
77.53
78.74
86.52
98.09
109.5
116.92
117.98
112.25
101.09
86.69
70.96
54.82
38.01
19.4
-2.29
-27.93
-57.63
-90.77
-126.14
-161.86
-195.31
-223.12
-241.39
-246.67
-236.88
-211.94
-173.94
-126.26
-72.77
-17.18
37.3
87.65
131.0
164.76
187.08
197.38
196.48
186.31
169.45
148.71
127.03
107.37
92.32
83.49
80.78
82.15
84.12
83.08
76.68
64.66
48.6
31.04
14.18
-0.9
-14.11
-25.91
-36.68
-46.63
-56.19
-66.01
-76.66
-87.85
-97.72
-103.13
-100.92
-89.61
-70.49
-47.33
-24.7
-5.98
7.84
18.0
26.53
34.69
42.15
47.33
48.56
45.22
38.27
29.85
22.39
17.77
16.56
18.18
21.28
24.44
26.81
28.32
29.46
30.68
31.86
32.2
30.57
26.1
18.67
8.84
-2.69
-15.53
-29.65
-44.67
-59.11
-70.02
-73.56
-66.66
-48.5
-21.36
10.04
40.34
65.35
83.24
94.35
99.96
100.98
97.2
87.46
70.72
47.18
18.74
-11.22
-38.99
-61.72
-78.38
-89.84
-98.13
-105.16
-111.8
-117.32
-119.96
-117.94
-110.41
-98.09
-82.99
-67.89
-55.68
-48.82
-48.89
-56.05
-68.43
-82.07
-91.29
-90.25
-74.84
-44.18
-1.21
48.21
97.17
139.53
171.32
191.03
199.18
197.68
189.14
176.45
162.44
149.39
138.61
130.15
122.8
114.6
103.68
89.08
71.25
51.79
32.66
15.08
-1.26
-18.06
-37.7
-61.99
-91.29
-124.49
-159.58
-194.6
-228.03
-258.5
-284.02
-301.58
-307.52
-298.74
-273.95
-234.28
-182.94
-124.06
-61.79
0.14
58.22
108.76
148.26
174.23
186.29
186.78
180.19
171.74
165.64
163.75
165.46
168.35
169.31
165.66
155.81
139.33
116.83
89.77
60.31
31.12
5.06
-15.43
-29.2
-36.85
-40.78
-44.67
-52.32
-66.67
-88.88
-117.72
-149.59
-178.98
-199.69
-206.55
-197.09
-172.38
-136.71
-95.78
-54.52
-15.56
21.07
56.67
92.23
127.29
159.76
186.89
206.28
216.67
217.94
210.83
196.71
177.45
155.39
133.06
112.5
94.71
79.34
64.99
50.03
33.46
15.47
-2.56
-18.67
-31.18
-39.4
-44.15
-47.59
-52.43
-60.86
-73.25
-87.52
-99.45
-104.08
-97.71
-79.35
-51.26
-18.01
15.21
44.04
65.77
79.14
83.74
79.52
66.95
47.33
23.33
-1.15
-21.7
-34.45
-37.23
-30.07
-15.29
3.24
21.18
34.83
42.0
42.39
37.33
29.05
19.89
11.4
4.09
-2.76
-10.68
-21.42
-36.51
-56.54
-80.71
-106.56
-130.05
-146.24
-150.56
-140.36
-116.08
-81.42
-42.25
-4.74
26.64
50.13
66.46
77.51
84.69
88.18
87.03
80.27
67.96
51.62
33.82
17.16
3.24
-7.84
-17.11
-26.0
-35.31
-44.76
-52.95
-58.04
-58.65
-54.49
-46.65
-37.37
-29.3
-24.82
-25.49
-31.74
-42.8
-56.69
-70.37
-80.24
-82.84
-76.05
-59.84
-36.48
-10.01
15.27
35.98
50.47
58.75
61.7
60.35
55.47
47.72
38.17
28.49
20.66
16.22
15.54
17.41
19.49
19.03
14.11
4.19
-9.88
-26.4
-43.7
-60.73
-77.07
-92.86
-108.52
-124.58
-141.72
-160.2
-179.26
-196.31
-206.91
-205.94
-189.4
-156.45
-110.2
-57.01
-4.36
41.36
76.44
99.86
112.49
116.1
112.59
104.07
92.9
81.56
72.07
65.28
60.65
56.51
50.93
42.7
31.88
19.6
7.36
-3.95
-14.43
-25.16
-37.49
-52.28
-69.64
-88.99
-109.44
-129.89
-148.8
-163.87
-172.2
-171.15
-159.54
-138.54
-111.59
-83.21
-57.21
-35.53
-18.23
-4.36
6.64
14.5
18.67
19.41
18.75
20.22
27.46
42.45
64.14
88.52
109.96
123.16
125.11
115.79
97.94
75.83
53.7
34.48
19.18
6.74
-5.26
-19.53
-37.81
-59.74
-82.49
-101.41
-111.42
-108.91
-92.91
-65.3
-30.04
8.21
45.24
77.89
103.99
122.15
131.74
133.09
127.74
118.35
107.9
98.67
91.27
84.36
75.37
61.83
42.73
19.23
-5.64
-28.23
-45.69
-57.09
-63.54
-67.5
-71.7
-78.15
-87.66
-99.75
-112.7
-123.8
-129.72
-127.21
-114.0
-89.6
-55.69
-15.65
26.41
66.61
102.23
131.81
154.99
172.05
183.58
190.3
192.94
192.17
188.39
181.58
171.16
156.24
136.05
110.61
81.3
50.66
21.74
-3.2
-23.62
-40.93
-57.83
-77.03
-100.07
-126.78
-155.14
-181.85
-203.01
-214.95
-215.23
-203.51
-181.93
-154.87
-127.44
-103.74
-85.42
-71.44
-59.18
-46.11
-31.22
-15.28
-0.03
13.11
23.83
32.91
41.33
49.35
56.22
60.54
61.37
58.97
54.87
51.0
48.51
46.79
43.63
36.25
22.33
1.37
-25.02
-53.27
-78.61
-95.85
-100.4
-89.43
-62.74
-23.19
23.89
72.31
116.78
154.15
183.42
204.61
217.61
221.73
216.29
201.93
181.3
158.62
138.19
122.58
111.75
103.35
94.21
82.03
66.31
48.31
30.1
13.79
0.51
-9.71
-17.91
-25.76
-35.23
-47.96
-64.82
-85.52
-108.33
-130.09
-146.8
-154.52
-150.53
-134.28
-107.64
-74.32
-38.72
-4.49
26.11
52.16
73.23
88.51
96.6
96.19
87.39
72.6
56.26
43.42
37.69
39.68
46.73
54.14
57.12
52.56
39.74
20.1
-3.9
-29.79
-55.75
-80.74
-104.27
-126.15
-146.17
-163.84
-177.97
-186.53
-186.81
-176.15
-153.12
-118.43
-75.28
-28.59
16.38
55.57
87.14
111.2
129.14
142.3
151.29
155.84
155.3
149.33
138.32
123.38
106.04
87.79
69.7
52.44
36.28
21.4
7.97
-3.83
-13.9
-22.3
-29.41
-35.76
-41.89
-48.16
-54.67
-61.42
-68.69
-77.27
-88.49
-103.67
-123.23
-145.78
-167.76
-184.12
-189.7
-180.95
-157.29
-121.19
-77.41
-31.47
11.65
48.22
76.09
94.52
104.11
106.79
105.49
103.57
103.84
107.47
113.64
119.89
123.09
120.68
111.57
96.58
78.15
59.78
45.1
36.89
36.12
41.41
49.05
53.96
51.36
38.32
14.73
-17.09
-53.66
-91.71
-128.76
-162.71
-190.99
-210.24
-216.96
-208.97
-186.81
-153.86
-115.42
-76.7
-41.27
-10.66
15.12
36.47
53.4
65.62
73.06
76.35
76.88
76.14
75.09
73.66
70.83
65.33
56.54
45.15
33.47
24.73
21.99
26.67
37.53
50.64
60.29
60.78
48.26
21.68
-17.12
-64.17
-114.4
-162.41
-202.9
-231.12
-243.42
-238.31
-217.02
-183.47
-143.2
-101.62
-62.44
-27.0
5.37
36.06
65.85
94.07
118.47
135.94
143.58
139.89
125.68
104.29
81.03
61.71
50.75
49.63
56.16
65.2
70.28
65.72
48.44
18.98
-18.35
-56.1
-85.11
-96.72
-85.46
-51.59
-1.99
51.28
94.97
119.67
123.5
112.56
97.59
88.62
90.34
100.73
113.16
120.67
119.58
110.47
96.63
81.17
65.11
47.36
26.49
2.69
-21.53
-42.09
-55.34
-59.78
-56.6
-48.88
-39.95
-32.02
-25.65
-20.29
-15.3
-10.87
-8.12
-8.43
-12.59
-20.09
-29.41
-38.84
-47.58
-56.57
-68.22
-85.27
-108.98
-137.52
-165.64
-185.85
-191.16
-177.95
-147.63
-106.13
-61.65
-21.35
10.67
33.77
49.33
58.83
62.63
60.27
51.83
39.3
26.69
18.85
19.36
28.72
43.98
59.84
70.96
74.27
70.29
62.9
57.54
58.84
68.49
84.52
102.19
115.77
121.27
116.98
103.69
83.75
60.18
36.34
16.08
4.01
4.62
21.33
53.79
97.21
143.38
183.49
211.29
224.97
226.61
219.46
206.97
190.02
168.39
142.45
114.57
88.52
67.57
52.45
39.14
24.28
3.3
-25.19
-58.14
-88.9
-110.24
-117.75
-112.05
-101.36
-90.3
-85.33
-88.66
-98.12
-108.99
-117.52
-123.32
-129.59
-145.54
-170.11
-204.74
-248.17
-297.48
-349.04
-399.0
-442.95
-476.19
-500.19
-505.75
-492.85
-463.74
-421.73
-369.57
-308.93
-241.33
-134.56
-42.2
35.0
89.05
115.65
116.8
100.84
79.18
61.35
50.6
36.98
18.31
-13.04
-58.12
-109.73
-155.3
-182.76
-186.17
-167.86
-140.77
-110.01
-82.77
-60.94
-42.32
-23.35
-1.64
23.29
51.3
80.6
117.21
164.47
223.46
290.38
356.22
408.96
437.9
437.9
409.9
363.77
310.05
257.05
207.93
160.54
109.75
51.3
-15.06
-84.74
-148.14
-195.31
-218.8
-215.73
-187.74
-139.64
-77.54
-8.01
61.75
123.56
168.92
190.88
186.05
155.8
105.38
42.0
-26.95
-94.38
-153.32
-196.99
-220.03
-220.39
-200.97
-169.05
-133.56
-101.55
-75.53
-53.06
-28.46
4.57
49.75
106.3
168.37
226.24
269.16
288.77
281.42
248.59
196.36
133.75
70.92
17.72
-17.86
-31.72
-25.61
-7.72
8.46
10.39
-7.38
-40.71
-77.3
-102.01
-103.17
-75.77
-22.7
45.73
117.31
181.63
230.62
259.17
265.3
250.26
218.75
176.53
125.7
67.28
3.52
-61.98
-123.21
-172.62
-203.07
-209.47
-191.65
-157.75
-117.36
-76.06
-35.32
7.58
57.15
106.54
144.69
179.51
209.7
220.56
204.18
159.17
90.91
9.62
-71.54
-138.13
-178.58
-189.9
-173.64
-133.45
-77.14
-15.97
35.92
65.75
67.57
43.77
1.86
-45.42
-83.5
-102.4
-98.06
-78.6
-58.16
-45.84
-41.81
-42.54
-43.65
-41.82
-35.83
-24.42
-7.23
16.17
45.05
75.76
101.0
113.34
109.07
85.02
49.34
13.91
-11.55
-22.94
-22.21
-15.21
-7.54
-1.89
1.7
5.01
8.46
11.27
12.84
13.3
13.21
13.17
13.87
15.43
17.66
19.47
19.25
16.32
11.15
4.78
-1.7
-7.03
-10.28
-10.81
-8.97
-5.95
-2.34
2.2
7.6
13.83
21.37
30.8
42.17
57.49
74.24
89.59
100.53
105.8
105.02
99.32
90.66
80.12
66.81
51.44
34.6
17.86
0.11
-19.12
-37.93
-53.15
-62.97
-67.96
-70.43
-72.73
-76.14
-85.5
-104.42
-132.88
-168.37
-208.98
-254.76
-306.9
-366.66
-404.89
-403.95
-367.73
-314.18
-255.84
-193.42
-122.86
-43.49
38.41
111.01
157.36
166.62
140.18
90.18
32.58
-19.31
-57.34
-77.87
-79.75
-66.68
-42.83
-11.74
22.68
54.96
79.2
91.76
93.26
87.82
78.55
67.8
57.53
49.2
43.56
40.66
40.36
42.45
46.56
51.02
54.19
55.88
56.87
58.25
60.6
64.17
69.03
75.57
84.18
95.04
107.15
117.47
121.77
116.11
99.44
74.81
48.37
26.41
12.15
4.47
-1.15
-9.46
-23.71
-44.18
-68.45
-92.21
-110.43
-118.07
-111.11
-87.53
-47.77
3.39
57.43
104.31
135.56
147.01
139.66
119.08
88.82
54.87
21.24
-11.58
-46.4
-87.28
-136.69
-193.38
-251.74
-303.46
-339.64
-354.67
-347.49
-321.4
-282.34
-236.71
-189.65
-143.9
-99.82
-55.44
-8.55
42.23
96.41
150.73
199.49
235.75
253.26
248.19
220.35
172.24
108.11
33.29
-45.83
-121.59
-185.71
-231.0
-253.74
-255.26
-241.85
-222.07
-203.27
-188.94
-178.04
-166.68
-150.51
-127.17
-97.28
-64.21
-32.74
-7.35
9.45
18.06
21.55
24.3
30.37
41.56
57.18
74.89
92.29
108.59
125.1
144.28
168.17
197.26
230.32
265.43
300.81
334.95
365.98
390.94
405.63
405.75
388.6
354.05
304.64
244.23
176.5
104.51
31.57
-37.53
-96.45
-138.89
-161.64
-166.5
-159.85
-149.56
-140.73
-133.05
-120.93
-96.75
-55.72
0.55
63.61
120.79
159.44
170.7
151.43
104.46
37.35
-38.99
-112.24
-170.71
-205.29
-211.27
-188.8
-142.96
-82.42
-17.86
40.08
82.99
106.98
114.37
113.43
115.86
131.66
164.21
207.58
248.12
269.7
260.35
217.29
148.49
70.41
2.35
-39.39
-46.79
-22.39
21.99
69.06
101.87
108.4
84.4
33.57
-34.0
-104.45
-163.0
-197.02
-199.65
-172.26
-125.08
-74.64
-38.89
-31.4
-57.41
-112.72
-185.65
-260.88
-323.19
-360.95
-368.22
-345.79
-300.54
-243.41
-186.03
-137.18
-100.96
-76.03
-56.99
-36.24
-6.41
36.86
92.71
153.9
207.75
239.44
237.43
198.24
129.09
46.39
-29.4
-80.51
-97.45
-80.77
-39.6
12.63
62.55
100.13
120.26
123.32
114.73
103.35
98.85
107.92
131.59
164.08
194.7
211.57
205.57
172.98
115.91
41.76
-38.58
-112.22
-166.94
-193.62
-188.75
-155.32
-101.27
-36.82
28.49
86.91
132.48
160.79
170.02
163.07
148.38
137.98
142.53
166.08
203.22
241.44
266.74
269.48
247.8
206.39
152.98
94.54
35.72
-20.08
-68.56
-103.54
-118.03
-107.54
-73.75
-25.6
22.22
54.84
63.61
50.58
28.44
14.89
24.31
60.75
116.18
174.57
219.72
242.25
242.33
227.15
205.75
184.48
164.87
145.32
123.64
99.16
73.14
47.14
21.2
-7.08
-41.9
-86.86
-141.71
-200.23
-250.51
-278.75
-275.2
-239.26
-181.13
-118.41
-69.38
-45.89
-49.89
-74.95
-111.23
-150.92
-190.64
-230.24
-269.55
-305.6
-332.45
-344.04
-337.52
-315.17
-283.64
-250.47
-220.26
-192.27
-161.08
-120.25
-66.83
-4.34
57.54
106.31
131.66
128.83
99.4
49.68
-11.98
-77.03
-137.68
-186.89
-218.86
-229.74
-218.67
-188.37
-144.95
-96.73
-52.49
-19.34
-0.7
5.11
5.24
10.12
29.26
66.48
116.98
167.95
203.0
208.64
179.46
120.25
44.18
-31.72
-91.57
-124.33
-125.22
-95.27
-40.12
30.96
105.74
169.97
209.52
214.3
182.57
123.59
56.18
2.64
-19.81
-6.18
34.28
82.31
116.76
122.48
94.47
37.55
-37.13
-116.02
-185.93
-235.53
-256.56
-245.31
-204.91
-146.01
-84.74
-37.66
-15.62
-19.28
-38.4
-56.41
-57.73
-34.97
7.72
56.35
93.03
103.39
82.04
34.06
-27.73
-88.12
-134.56
-160.06
-163.42
-147.23
-115.08
-69.58
-12.25
54.81
126.53
193.86
245.35
271.29
268.14
240.88
201.23
162.3
132.63
112.87
96.51
73.88
37.24
-15.84
-81.8
-152.69
-218.8
-271.13
-303.12
-311.77
-298.06
-266.8
-225.14
-180.68
-139.28
-103.77
-73.77
-46.28
-17.06
17.83
60.24
108.58
157.28
197.84
221.07
219.85
191.33
137.62
65.61
-14.42
-90.59
-151.49
-188.41
-197.17
-178.97
-139.92
-89.19
-36.14
12.39
53.74
89.45
123.44
159.21
197.47
234.82
264.51
278.98
272.86
244.91
198.1
137.79
69.92
0.04
-66.33
-122.89
-162.67
-179.67
-171.23
-139.86
-92.93
-39.82
11.57
57.62
99.22
139.47
180.51
221.03
256.28
280.07
287.72
278.06
253.45
217.79
174.28
124.04
67.43
6.42
-53.31
-102.43
-130.62
-130.51
-101.08
-49.03
13.15
71.63
116.32
144.44
160.58
173.1
189.05
209.93
230.93
243.72
241.24
221.45
188.17
148.73
110.11
76.1
46.85
20.52
-4.64
-29.26
-53.58
-78.72
-107.42
-142.93
-186.79
-236.59
-285.07
-321.19
-333.4
-313.7
-261.24
-183.63
-95.33
-13.57
46.94
77.99
78.94
54.83
13.34
-37.82
-91.93
-142.81
-184.24
-210.48
-217.82
-206.54
-181.86
-152.98
-130.21
-121.37
-129.2
-150.31
-176.52
-197.27
-203.17
-188.38
-151.95
-97.5
-32.01
35.7
96.36
141.0
162.1
155.68
123.8
75.59
25.42
-12.02
-27.84
-22.71
-5.97
9.6
14.29
5.56
-12.43
-33.14
-52.26
-69.59
-87.33
-106.25
-122.63
-128.32
-114.47
-76.57
-18.06
49.4
109.26
145.63
148.78
118.34
63.41
-0.74
-57.54
-94.04
-103.96
-87.65
-50.25
0.9
57.66
111.56
153.71
175.59
171.25
140.32
89.94
33.86
-11.45
-33.04
-26.65
1.36
36.34
61.09
62.51
36.29
-11.93
-69.0
-119.22
-149.74
-154.3
-133.94
-95.0
-45.87
5.6
53.17
91.52
115.59
120.75
105.13
72.25
32.0
-1.99
-17.91
-11.31
12.22
39.11
53.42
43.18
4.68
-57.19
-131.39
-204.41
-263.92
-300.91
-310.52
-291.88
-247.62
-183.63
-109.08
-36.12
21.4
51.08
46.03
8.63
-48.92
-107.94
-149.96
-163.34
-146.68
-107.52
-57.35
-6.35
39.63
78.74
111.15
137.14
157.08
172.98
189.41
212.58
247.44
294.28
346.99
394.51
424.71
428.87
404.47
355.07
288.11
212.3
136.44
69.42
20.26
-3.04
3.42
36.83
86.8
138.32
176.98
193.99
188.26
164.67
129.93
88.75
42.71
-8.21
-62.52
-115.19
-158.17
-183.42
-186.58
-169.36
-139.72
-109.03
-87.95
-82.37
-91.14
-106.3
-115.85
-108.14
-76.37
-21.67
47.09
116.01
171.03
202.6
208.0
190.68
157.48
115.62
70.97
27.97
-9.64
-38.6
-56.98
-65.68
-69.09
-74.59
-90.46
-122.92
-173.33
-237.18
-304.78
-363.69
-402.32
-413.25
-395.0
-351.46
-289.77
-217.79
-142.7
-71.21
-10.68
30.19
43.29
24.42
-23.33
-88.73
-155.07
-205.58
-228.79
-221.18
-186.39
-132.14
-67.14
0.46
62.69
111.68
140.77
147.09
134.16
112.47
97.05
101.83
133.98
190.39
258.6
321.52
363.29
374.01
351.52
300.39
229.94
152.34
81.22
29.77
7.69
18.04
55.09
105.15
150.79
176.65
174.25
143.36
90.2
24.06
-45.23
-107.89
-154.22
-175.65
-167.08
-130.12
-74.27
-14.72
32.49
55.52
49.64
17.05
-35.34
-98.13
-160.89
-212.66
-242.82
-243.02
-210.24
-148.98
-71.39
5.64
64.91
93.69
86.53
46.07
-18.27
-92.78
-162.24
-212.65
-233.78
-220.81
-175.61
-106.57
-26.93
47.75
102.87
127.86
118.2
76.3
11.22
-62.83
-129.48
-174.12
-187.22
-166.65
-117.76
-51.49
18.22
77.28
113.65
119.29
91.85
36.01
-36.6
-109.51
-165.92
-193.38
-187.08
-150.33
-92.3
-24.8
39.97
90.69
117.62
114.15
79.15
19.08
-52.5
-118.25
-162.43
-175.38
-155.4
-107.43
-40.21
35.58
108.31
165.45
195.15
189.71
149.78
86.41
19.08
-30.33
-45.72
-22.79
29.61
93.33
147.56
176.1
171.88
137.98
85.62
30.28
-12.9
-33.2
-27.09
1.66
44.02
88.92
126.29
148.56
150.52
129.44
85.75
24.59
-43.16
-101.79
-134.59
-129.45
-84.17
-8.46
78.82
155.82
204.59
215.95
190.64
137.32
69.18
0.67
-54.98
-87.31
-90.26
-63.52
-13.21
49.09
108.99
153.17
172.6
163.78
128.21
70.83
-1.01
-77.36
-145.68
-192.17
-204.93
-178.57
-117.57
-36.27
44.88
105.79
132.81
122.07
79.58
18.77
-43.7
-92.38
-116.91
-114.75
-91.61
-59.44
-32.45
-22.72
-37.12
-76.23
-135.14
-205.25
-276.12
-337.31
-379.64
-397.06
-388.09
-355.93
-307.15
-249.48
-190.15
-135.49
-91.25
-62.32
-51.35
-56.69
-71.73
-86.5
-91.46
-81.39
-56.91
-22.64
16.19
56.41
96.71
135.4
168.27
188.92
191.89
176.84
150.72
126.18
116.49
130.08
166.84
218.06
270.01
308.78
323.95
310.48
268.57
203.04
122.66
39.59
-32.17
-79.38
-93.14
-72.02
-23.37
38.07
94.25
129.03
132.86
105.05
53.29
-9.28
-68.25
-111.81
-132.81
-128.96
-101.72
-54.85
6.11
73.77
138.48
189.22
215.58
210.52
172.72
107.78
27.12
-54.44
-122.03
-163.73
-172.86
-149.31
-99.6
-35.63
27.91
76.88
101.05
96.5
66.46
20.01
-30.38
-72.43
-97.13
-100.3
-82.34
-46.23
4.39
65.95
133.88
201.53
259.81
299.22
312.77
298.64
260.9
207.76
148.3
90.12
38.84
-1.1
-25.8
-32.84
-23.68
-5.11
11.3
13.03
-8.1
-51.65
-107.97
-161.09
-194.51
-197.22
-166.45
-107.76
-33.16
42.19
103.56
139.37
143.46
115.69
61.08
-9.48
-80.8
-136.9
-165.4
-161.17
-128.09
-77.25
-24.22
14.16
26.18
9.06
-31.77
-84.98
-137.25
-177.04
-196.39
-192.88
-171.05
-137.99
-99.56
-59.59
-18.89
24.01
64.97
97.83
127.34
153.37
168.22
169.85
162.33
154.34
154.95
168.24
191.08
213.82
222.98
209.11
171.38
115.23
48.97
-19.58
-84.27
-138.77
-175.59
-187.89
-170.39
-122.09
-49.6
33.01
107.67
157.69
173.58
155.79
113.3
60.65
12.83
-20.62
-38.29
-45.81
-52.27
-65.96
-91.96
-132.24
-185.35
-246.49
-308.13
-360.83
-395.39
-406.03
-392.51
-360.73
-320.41
-280.75
-246.62
-217.38
-188.31
-153.4
-108.76
-54.62
4.03
58.97
101.38
125.22
130.04
121.96
112.31
113.14
132.24
169.42
215.87
257.21
278.78
270.84
231.87
169.36
97.66
33.94
-6.74
-16.11
4.65
45.38
90.4
123.48
132.41
111.68
62.96
-5.99
-83.27
-154.94
-207.06
-228.32
-213.11
-163.99
-91.95
-14.07
51.29
89.54
93.96
66.95
18.51
-37.05
-85.3
-115.02
-119.96
-98.92
-55.07
5.36
73.78
139.84
192.86
223.56
226.2
199.99
149.2
82.2
9.71
-57.08
-108.46
-137.75
-142.8
-126.83
-98.13
-67.98
-47.25
-42.82
-55.27
-79.31
-106.2
-127.22
-136.53
-132.03
-114.3
-84.52
-43.41
8.43
68.79
132.08
189.01
228.8
242.48
226.08
181.87
117.54
43.98
-27.14
-85.25
-122.14
-133.32
-119.13
-85.34
-42.45
-3.13
21.46
25.07
8.06
-23.31
-59.51
-90.96
-111.01
-117.11
-110.76
-95.89
-77.01
-57.53
-38.72
-19.53
3.15
33.51
75.07
128.51
190.15
251.89
303.32
335.24
343.16
328.88
299.4
263.76
229.35
199.75
174.46
150.12
122.31
87.04
42.08
-11.83
-70.16
-124.82
-165.66
-183.41
-172.62
-133.55
-72.53
-0.33
70.46
128.29
164.99
176.99
165.38
135.03
92.58
44.27
-5.68
-55.33
-103.45
-147.69
-183.5
-205.47
-210.29
-199.65
-180.86
-164.3
-158.67
-166.53
-182.84
-197.26
-199.02
-181.3
-143.21
-88.89
-24.91
41.73
104.46
156.79
192.17
204.81
191.43
152.99
95.47
28.93
-34.79
-84.78
-113.78
-119.67
-105.73
-79.71
-51.66
-31.4
-25.89
-37.45
-63.13
-95.69
-125.71
-144.26
-145.22
-126.19
-88.28
-35.08
27.88
93.84
154.66
201.58
227.13
226.92
201.15
154.29
93.48
26.51
-39.28
-97.08
-140.43
-164.04
-165.98
-149.58
-123.85
-100.62
-89.77
-94.75
-111.12
-128.94
-137.65
-130.61
-106.73
-68.97
-21.26
33.4
92.66
152.92
207.8
248.75
267.58
259.9
226.66
173.45
108.26
39.31
-25.32
-77.47
-109.17
-114.79
-94.18
-55.02
-11.9
18.61
24.36
2.93
-37.6
-82.3
-115.65
-126.79
-111.68
-72.13
-13.39
57.46
132.16
201.27
255.11
285.95
290.59
271.64
236.64
195.12
155.03
120.56
91.72
65.7
38.53
6.04
-34.92
-85.5
-143.32
-201.94
-251.66
-282.49
-287.7
-266.25
-222.66
-164.28
-97.94
-28.01
43.0
112.25
174.82
224.03
253.83
261.69
250.09
225.51
195.63
166.45
140.91
119.38
101.11
85.54
72.4
60.91
48.57
30.77
2.14
-41.04
-97.85
-161.03
-217.57
-252.6
-254.9
-222.2
-163.31
-95.6
-39.05
-9.23
-12.48
-45.08
-96.3
-153.43
-205.87
-246.74
-272.36
-281.2
-273.72
-253.2
-226.23
-201.27
-186.11
-184.2
-192.96
-204.78
-210.25
-201.48
-174.13
-127.53
-64.13
11.01
89.98
162.29
216.48
243.04
237.85
203.34
147.17
79.63
11.13
-49.23
-94.49
-120.97
-129.63
-126.68
-122.22
-126.36
-144.47
-174.51
-208.11
-235.15
-249.01
-249.31
-241.05
-230.96
-223.56
-219.38
-215.99
-210.4
-201.23
-189.17
-176.09
-163.3
-150.43
-135.27
-114.8
-86.74
-50.71
-8.4
37.24
83.4
128.6
172.68
215.69
256.36
291.22
315.08
322.88
312.04
284.01
244.41
201.64
164.53
140.28
133.35
145.36
175.38
220.0
273.14
326.38
370.09
395.88
399.07
380.36
345.27
301.77
257.02
214.68
174.14
131.6
82.79
25.78
-37.29
-100.21
-154.33
-191.66
-207.61
-202.54
-181.36
-151.05
-117.02
-80.67
-39.35
10.58
69.83
133.27
190.44
229.33
241.32
224.41
183.2
126.21
62.75
1.15
-51.52
-88.84
-105.95
-101.44
-79.37
-49.34
-23.49
-11.84
-18.32
-40.03
-69.65
-99.62
-124.64
-142.6
-153.03
-155.45
-148.96
-132.7
-106.54
-70.89
-26.15
27.2
87.69
151.39
211.36
258.98
286.99
292.48
278.21
251.26
219.58
188.8
160.41
132.51
101.59
64.66
20.22
-31.64
-89.46
-150.47
-210.48
-264.15
-305.93
-331.75
-340.17
-332.92
-313.97
-287.72
-257.18
-222.76
-182.5
-134.17
-77.44
-15.86
42.89
89.04
113.7
112.37
86.81
44.61
-3.21
-45.55
-74.43
-86.45
-82.44
-66.06
-42.29
-16.27
6.92
22.98
29.2
25.65
15.99
7.3
8.72
28.56
70.98
133.73
207.94
280.52
338.21
371.91
379.49
365.48
338.75
308.69
281.66
259.71
240.93
221.56
198.32
169.28
133.52
90.06
37.38
-25.71
-98.13
-174.8
-247.01
-304.35
-338.49
-346.19
-330.01
-296.09
-250.47
-196.12
-132.94
-60.42
18.85
97.52
165.18
212.56
235.65
237.38
225.54
208.8
192.9
179.0
164.68
146.48
121.73
88.73
46.35
-5.88
-66.79
-132.03
-193.73
-241.98
-267.82
-265.92
-236.16
-182.76
-112.45
-32.85
47.99
121.4
178.95
214.2
224.97
213.91
187.74
154.7
121.39
91.0
62.84
34.92
5.78
-24.28
-55.58
-89.92
-130.77
-181.25
-241.59
-308.23
-371.95
-419.46
-436.79
-416.93
-362.27
-284.42
-200.43
-127.9
-82.47
-72.13
-96.2
-145.09
-207.79
-273.3
-332.07
-376.32
-400.95
-407.06
-398.18
-378.62
-350.13
-316.95
-284.1
-256.65
-238.41
-214.0
-175.5
-123.54
-81.08
-48.14
-18.21
18.24
63.18
114.45
168.49
217.8
255.12
275.0
278.72
271.11
261.2
259.44
272.59
301.27
335.14
358.78
358.65
332.25
287.46
239.1
201.47
180.88
176.48
180.04
182.69
179.19
162.15
130.64
90.06
59.42
41.49
33.38
28.36
26.49
31.82
49.78
83.04
127.61
172.81
203.37
208.6
184.76
135.7
69.58
-3.79
-74.74
-135.88
-182.46
-213.3
-227.68
-226.54
-213.19
-193.06
-171.3
-150.02
-128.38
-103.7
-73.58
-35.34
12.01
66.09
120.95
168.87
203.44
221.26
222.88
211.97
194.5
175.72
157.48
138.69
117.91
95.91
75.53
59.88
49.87
43.86
37.43
24.0
-2.63
-46.0
-105.59
-177.48
-255.77
-333.58
-403.29
-449.15
-456.77
-423.26
-361.47
-291.42
-228.38
-177.87
-140.22
-108.74
-79.32
-51.92
-27.97
-7.53
12.82
37.02
68.57
108.47
154.68
201.48
240.36
263.1
264.8
246.21
212.92
172.61
132.41
97.81
72.21
57.55
55.56
67.72
95.47
138.15
191.35
246.62
293.64
322.83
328.41
310.07
271.99
222.22
169.01
117.42
67.83
16.97
-39.2
-102.5
-170.48
-237.63
-295.47
-336.11
-355.22
-353.54
-336.08
-309.86
-281.08
-246.97
-207.47
-164.22
-121.17
-83.14
-54.15
-35.8
-26.54
-22.25
-17.89
-10.16
3.84
25.13
54.14
89.51
128.22
165.42
195.28
212.73
211.16
191.73
162.1
132.52
110.52
98.63
94.56
93.87
92.85
89.16
82.25
70.92
53.17
27.82
-2.17
-29.06
-42.73
-35.75
-7.88
33.02
73.16
99.85
103.42
82.42
42.9
-5.7
-54.7
-98.0
-130.8
-148.58
-147.36
-126.22
-89.25
-45.92
-8.27
13.98
17.04
3.63
-20.45
-50.74
-86.8
-130.6
-183.01
-240.45
-294.44
-334.45
-352.61
-347.35
-323.66
-290.57
-256.44
-225.65
-197.79
-169.43
-136.77
-97.69
-52.28
-2.41
48.97
98.61
143.09
179.16
204.42
217.95
220.46
213.99
201.22
184.72
166.7
148.91
132.6
118.31
105.75
93.88
81.53
68.11
54.11
40.98
30.44
23.62
20.67
20.78
22.56
24.58
25.64
24.93
22.12
17.4
11.58
5.83
1.4
-1.04
-1.74
-1.89
-3.04
-6.39
-12.09
-19.16
-25.92
-30.84
-33.13
-32.92
-30.85
-27.48
-22.94
-17.05
-9.8
-1.6
6.63
13.78
19.07
22.34
23.81
23.89
22.57
19.55
14.5
7.45
-0.86
-9.07
-15.41
-18.34
-17.08
-11.97
-4.45
3.54
10.34
15.39
19.41
23.85
29.87
37.49
45.18
50.65
52.1
49.26
43.77
38.38
35.6
36.39
39.67
42.8
42.87
37.96
27.89
14.45
0.41
-11.51
-19.64
-23.97
-26.01
-28.17
-32.9
-41.75
-54.88
-70.92
-87.46
-101.72
-111.39
-115.23
-113.13
-105.98
-95.16
-82.1
-68.08
-54.2
-41.41
-30.5
-21.94
-15.86
-12.01
-9.95
-9.31
-9.85
-11.38
-13.43
-14.95
-14.4
-10.2
-1.32
12.07
28.57
45.94
61.63
73.6
80.47
81.96
78.74
72.28
64.76
58.36
54.53
53.65
54.83
56.38
56.84
55.43
51.95
46.3
38.07
26.76
12.44
-3.61
-18.93
-30.74
-37.25
-38.48
-36.23
-33.18
-31.65
-32.84
-36.7
-42.62
-49.81
-57.66
-65.73
-73.36
-79.85
-84.33
-86.11
-84.82
-80.46
-73.43
-64.64
-55.01
-45.39
-36.36
-28.16
-20.85
-14.4
-8.96
-4.46
-0.45
4.21
11.36
22.89
39.8
61.24
84.3
104.77
118.84
124.75
123.53
118.32
112.94
110.17
110.92
114.56
119.81
125.35
129.79
131.53
128.69
119.9
105.24
86.65
67.47
50.93
38.76
30.44
23.75
16.16
5.77
-8.12
-25.21
-44.89
-66.37
-88.62
-110.19
-129.1
-143.33
-151.49
-153.38
-150.02
-143.37
-135.7
-128.63
-122.69
-117.23
-110.96
-102.77
-92.31
-80.16
-67.46
-55.22
-43.8
-32.84
-21.75
-10.22
1.45
12.45
21.98
29.49
35.09
39.38
43.27
47.77
53.73
61.56
70.94
80.64
88.72
93.0
91.91
85.06
73.42
58.88
43.6
29.34
17.34
8.32
2.71
0.67
1.83
5.1
8.63
10.29
8.35
2.13
-7.79
-19.76
-31.87
-42.57
-51.1
-57.56
-62.56
-66.89
-71.19
-75.84
-80.84
-85.81
-89.93
-92.13
-91.29
-86.59
-77.83
-65.54
-50.87
-35.22
-19.88
-5.8
6.56
17.24
26.68
35.59
44.58
53.77
62.49
69.26
72.32
70.39
63.52
53.38
42.81
34.8
31.28
32.36
36.43
41.01
43.8
43.52
40.15
34.61
28.21
22.12
17.14
13.68
11.86
11.53
12.14
12.62
11.51
7.31
-0.99
-13.32
-28.35
-43.72
-56.83
-65.79
-70.07
-70.79
-70.06
-70.14
-72.41
-76.94
-82.67
-87.94
-91.14
-91.03
-86.86
-78.28
-65.6
-49.87
-33.11
-17.81
-6.17
0.87
4.21
6.16
9.48
16.09
26.32
38.93
51.92
63.43
72.43
78.82
83.01
85.45
86.26
85.2
81.83
75.78
67.09
56.33
44.61
33.47
24.4
18.46
15.92
15.99
17.15
17.55
15.63
10.69
3.13
-5.71
-13.96
-19.94
-22.68
-22.12
-19.05
-14.68
-10.29
-6.89
-5.2
-5.73
-8.95
-15.21
-24.55
-36.27
-48.82
-59.93
-67.27
-69.21
-65.23
-55.95
-42.62
-26.49
-8.59
10.03
27.8
42.09
49.79
48.31
37.05
18.39
-2.6
-19.61
-27.32
-23.33
-8.98
11.33
31.83
47.42
55.13
54.5
47.12
35.46
22.12
9.21
-1.61
-8.92
-11.56
-8.81
-0.85
10.83
23.47
33.47
37.28
32.43
18.28
-3.72
-30.44
-57.97
-82.51
-101.17
-112.24
-115.17
-110.35
-98.94
-82.76
-64.24
-46.03
-30.54
-19.32
-12.58
-9.37
-8.03
-6.96
-5.34
-3.09
-0.69
1.44
3.26
5.21
7.91
11.89
17.34
24.01
31.36
38.54
44.46
47.84
47.36
42.05
31.54
16.48
-1.43
-19.65
-35.24
-45.6
-49.22
-46.16
-38.15
-28.04
-18.9
-13.17
-11.99
-15.17
-21.56
-29.41
-36.87
-42.36
-44.97
-45.01
-44.15
-45.23
-51.11
-63.2
-80.27
-98.17
-110.93
-112.71
-99.69
-71.21
-29.76
19.98
72.25
121.41
162.69
192.85
210.55
216.56
213.43
204.81
194.38
184.95
178.01
173.61
170.71
167.58
162.25
152.98
138.71
119.56
96.89
73.02
50.74
32.38
19.27
11.44
7.76
6.38
5.33
2.97
-1.78
-9.36
-19.73
-32.48
-47.08
-62.8
-78.77
-94.06
-107.68
-118.9
-127.29
-132.82
-135.77
-136.6
-135.79
-133.67
-130.31
-125.41
-118.31
-108.05
-93.88
-75.6
-53.99
-30.93
-9.01
9.17
21.93
29.13
32.44
34.77
39.35
48.4
62.18
78.67
94.05
104.1
105.55
97.52
81.86
62.59
44.55
31.67
25.74
26.09
30.09
34.46
36.49
34.7
28.97
20.07
9.07
-3.11
-15.97
-29.4
-43.58
-58.86
-75.34
-92.69
-109.86
-125.28
-137.23
-144.36
-145.99
-142.19
-133.38
-120.02
-102.32
-80.1
-53.12
-21.34
14.36
51.59
86.25
112.98
126.69
124.61
107.8
81.56
54.06
33.58
25.97
32.86
51.74
77.28
103.11
123.4
133.64
130.99
114.64
86.06
49.28
10.43
-23.41
-46.01
-53.7
-46.44
-27.78
-3.83
18.39
32.68
34.81
23.16
-1.31
-35.54
-74.93
-114.32
-148.92
-175.18
-191.32
-197.35
-194.43
-184.15
-167.75
-145.93
-119.07
-87.74
-53.28
-18.02
14.96
42.26
60.89
68.9
65.94
53.55
35.33
16.49
2.99
0.05
10.68
34.43
67.27
102.73
133.84
155.36
165.18
164.38
156.13
143.88
130.03
115.34
99.44
81.64
61.79
40.26
17.75
-5.3
-28.8
-52.64
-76.48
-99.51
-120.76
-139.59
-156.16
-171.34
-186.12
-200.76
-214.16
-223.95
-227.05
-220.76
-203.44
-174.74
-135.49
-87.4
-33.43
21.99
72.88
112.58
135.59
139.62
126.92
103.88
78.92
59.48
49.64
49.11
54.29
60.29
62.97
60.3
52.29
40.3
26.08
11.24
-2.82
-14.63
-22.47
-24.64
-20.16
-9.45
5.33
20.75
33.16
39.91
39.98
34.0
23.4
9.65
-6.26
-23.64
-41.75
-59.47
-75.5
-88.69
-98.61
-105.62
-110.42
-113.54
-114.74
-113.02
-107.11
-96.3
-81.35
-64.77
-50.47
-42.79
-44.93
-57.72
-78.87
-103.37
-124.98
-138.1
-139.47
-128.91
-108.8
-82.67
-53.74
-23.78
7.1
40.21
77.33
119.59
166.37
214.55
258.76
292.45
309.88
307.91
287.08
251.19
205.71
155.91
105.74
57.74
13.62
-24.92
-56.4
-79.97
-95.91
-106.17
-113.65
-121.41
-131.45
-143.64
-155.47
-163.3
-164.37
-158.57
-148.77
-139.22
-132.92
-129.09
-122.98
-107.69
-77.48
-30.43
31.06
102.01
177.7
255.16
332.74
408.03
476.31
530.71
564.67
575.0
563.37
536.04
501.01
464.84
430.85
398.91
367.34
335.0
302.13
270.0
239.79
211.4
183.55
154.5
123.08
89.09
52.99
15.25
-24.14
-65.41
-108.4
-151.93
-193.51
-229.95
-258.37
-277.22
-286.77
-288.88
-286.13
-281.02
-275.25
-269.56
-263.94
-257.68
-249.83
-239.62
-226.95
-212.98
-200.34
-192.69
-193.35
-203.58
-221.06
-239.85
-251.94
-250.14
-230.92
-195.88
-151.21
-105.05
-64.3
-32.3
-8.52
9.82
25.35
38.72
48.39
51.99
48.27
38.4
26.15
16.6
14.2
20.9
35.21
52.65
67.22
73.24
67.16
48.54
20.4
-11.25
-38.77
-54.6
-53.17
-32.55
4.71
51.87
99.6
138.48
161.31
164.92
150.5
122.74
88.25
53.81
25.19
6.35
-0.92
3.06
16.08
34.52
54.08
70.68
81.37
84.88
81.69
73.6
62.83
51.17
39.48
27.62
15.11
1.74
-11.99
-24.83
-35.24
-42.03
-44.78
-44.02
-41.12
-37.8
-35.82
-36.44
-40.33
-47.41
-56.88
-67.36
-77.08
-84.09
-86.74
-84.06
-76.25
-64.8
-52.11
-40.75
-32.58
-28.15
-26.74
-26.88
-27.27
-27.3
-27.17
-27.63
-29.36
-32.6
-37.12
-42.34
-47.67
-52.66
-56.88
-59.89
-61.13
-60.14
-56.99
-52.44
-47.91
-45.08
-45.2
-48.53
-54.24
-60.74
-66.35
-69.87
-70.86
-69.52
-66.38
-62.0
-56.81
-51.22
-45.72
-40.79
-36.53
-32.32
-26.59
-17.34
-3.03
16.43
39.12
61.63
80.25
92.45
97.78
97.66
94.41
89.99
85.31
80.41
75.27
70.58
67.76
68.3
72.67
79.57
86.07
88.61
84.42
72.71
54.93
34.18
13.88
-3.47
-17.02
-27.33
-35.6
-42.88
-49.45
-54.97
-58.8
-60.62
-60.68
-59.6
-58.13
-56.65
-54.95
-52.29
-47.85
-41.21
-32.74
-23.56
-15.26
-9.41
-7.29
-9.81
-17.46
-29.98
-45.87
-61.79
-72.77
-73.36
-59.63
-31.07
8.68
52.87
94.17
127.38
151.19
167.75
180.79
193.06
204.56
212.55
212.84
201.78
177.66
141.17
95.04
43.32
-9.15
-57.09
-95.35
-119.67
-127.89
-120.79
-102.15
-77.89
-54.26
-36.26
-26.6
-25.67
-32.24
-44.19
-59.05
-74.2
-86.87
-94.22
-93.86
-84.39
-66.07
-41.05
-12.9
14.21
36.7
52.39
60.76
62.57
59.24
52.15
42.47
31.2
19.39
8.33
-0.8
-7.16
-10.75
-12.33
-13.17
-14.4
-16.56
-19.49
-22.65
-25.63
-28.54
-32.0
-36.79
-43.41
-51.73
-61.07
-70.49
-78.97
-85.63
-89.58
-90.0
-86.25
-78.17
-66.19
-51.37
-35.01
-18.4
-2.71
11.03
21.79
28.67
31.27
29.84
25.44
19.67
14.08
9.9
7.76
7.84
10.01
13.93
18.99
24.39
29.24
32.93
35.36
36.86
37.87
38.46
38.18
36.18
31.68
24.53
15.31
5.18
-4.48
-12.51
-18.22
-21.41
-22.46
-22.26
-22.33
-24.31
-29.22
-36.76
-44.94
-50.49
-50.09
-41.66
-25.26
-2.96
21.97
46.35
67.88
85.41
98.58
107.36
111.87
112.42
109.8
105.17
99.89
94.96
90.77
87.1
83.4
79.13
74.07
68.32
62.15
55.85
49.48
42.9
35.81
27.89
19.01
9.26
-0.92
-10.86
-19.75
-26.74
-31.16
-32.51
-30.74
-26.28
-20.12
-13.74
-8.74
-6.33
-6.89
-9.79
-13.48
-16.3
-17.1
-15.79
-13.45
-11.8
-12.59
-16.92
-24.83
-35.41
-47.09
-58.11
-66.95
-72.55
-74.44
-72.61
-67.37
-59.35
-49.46
-38.94
-29.36
-22.36
-19.34
-20.89
-26.62
-35.07
-44.11
-51.49
-55.53
-55.45
-51.7
-45.7
-39.29
-34.12
-31.08
-30.16
-30.73
-31.97
-33.44
-35.01
-36.68
-38.05
-38.06
-35.23
-28.3
-16.73
-1.08
17.32
36.87
56.01
73.49
88.18
98.96
104.91
105.48
100.91
92.25
81.34
70.51
62.18
58.14
59.04
63.77
69.57
72.89
70.63
61.68
47.51
31.75
18.75
11.72
11.65
17.13
25.11
32.08
35.09
32.21
22.94
8.23
-9.6
-27.36
-41.98
-51.48
-55.53
-55.34
-52.76
-49.38
-45.97
-42.65
-39.52
-37.06
-36.09
-37.2
-40.1
-43.56
-45.83
-45.41
-41.67
-34.92
-26.03
-16.02
-5.7
4.37
13.77
22.19
29.35
34.99
38.87
40.72
40.42
38.13
34.39
30.02
25.76
21.87
18.02
13.45
7.56
0.31
-7.62
-15.17
-21.6
-26.7
-30.92
-34.93
-39.02
-42.94
-45.95
-47.26
-46.43
-43.52
-39.01
-33.66
-28.19
-23.3
-19.57
-17.36
-16.77
-17.6
-19.39
-21.67
-24.09
-26.61
-29.34
-32.39
-35.69
-38.94
-41.68
-43.39
-43.54
-41.55
-36.85
-29.06
-18.38
-5.74
7.25
18.78
27.44
32.66
34.66
34.15
31.68
27.48
21.65
14.46
6.74
-0.31
-5.68
-9.3
-12.28
-16.59
-24.05
-35.42
-49.67
-64.23
-75.99
-82.46
-82.79
-77.91
-70.11
-62.19
-56.54
-54.66
-56.76
-61.53
-66.28
-67.34
-61.24
-46.09
-22.71
5.19
32.12
52.88
64.5
67.34
64.66
61.11
60.89
66.36
77.72
93.56
111.61
129.73
146.28
160.24
171.08
178.46
182.07
181.61
176.87
167.91
155.12
139.15
120.69
100.26
78.08
54.18
28.76
2.54
-23.06
-46.02
-64.15
-75.69
-79.91
-77.32
-69.56
-58.96
-47.81
-37.86
-30.0
-24.53
-21.45
-20.79
-22.55
-26.32
-31.06
-35.09
-36.65
-34.74
-29.73
-23.2
-17.38
-13.86
-12.96
-13.58
-13.83
-12.07
-7.6
-0.96
6.39
12.69
16.51
17.22
15.08
11.07
6.49
2.78
1.33
3.37
9.64
19.93
32.56
44.31
51.09
49.25
37.09
15.84
-10.47
-36.3
-56.24
-66.65
-66.37
-56.59
-40.14
-20.56
-1.41
14.4
24.98
29.82
29.65
26.14
21.38
17.15
14.56
13.81
14.45
15.52
16.0
15.04
12.08
6.97
-0.14
-8.78
-18.16
-27.32
-35.24
-40.99
-43.84
-43.37
-39.48
-32.45
-22.9
-11.8
-0.27
10.54
19.56
25.9
28.86
27.92
22.79
13.42
0.18
-16.01
-33.67
-50.82
-65.46
-76.06
-82.04
-84.17
-84.26
-84.51
-86.63
-90.97
-96.3
-100.34
-100.51
-95.02
-83.45
-66.79
-47.19
-27.35
-9.88
3.24
11.06
13.88
13.05
10.56
8.4
8.09
10.37
15.27
22.36
30.88
39.92
48.46
55.42
59.88
61.29
59.68
55.7
50.53
45.64
42.63
42.8
46.84
54.49
64.45
74.67
83.14
88.54
90.7
90.44
88.93
86.89
84.13
79.64
72.2
60.99
46.12
28.57
9.88
-8.32
-24.63
-38.04
-47.93
-54.19
-57.21
-57.93
-57.64
-57.63
-58.75
-61.15
-64.28
-67.09
-68.46
-67.53
-63.93
-57.78
-49.56
-39.94
-29.71
-19.67
-10.73
-3.77
0.46
1.65
0.08
-3.21
-6.68
-8.52
-7.15
-1.63
8.24
21.71
37.22
52.68
65.66
74.08
76.63
73.25
65.22
54.88
44.94
37.71
34.36
34.58
36.66
38.08
36.35
29.88
18.47
3.37
-13.17
-28.62
-40.81
-48.49
-51.38
-50.14
-46.13
-41.0
-36.37
-33.43
-32.58
-33.4
-34.78
-35.28
-33.72
-29.34
-22.03
-12.18
-0.5
12.02
24.17
34.54
41.68
44.43
42.22
35.35
24.93
12.49
-0.38
-12.44
-22.83
-30.79
-35.58
-36.38
-32.67
-24.64
-13.4
-0.79
11.24
21.36
29.23
35.47
41.12
46.85
52.52
57.16
59.33
57.69
51.54
41.04
27.2
11.66
-3.66
-16.93
-26.78
-32.51
-34.23
-32.83
-29.64
-26.17
-23.67
-22.92
-24.15
-27.02
-30.8
-34.56
-37.48
-39.1
-39.43
-38.84
-37.82
-36.72
-35.64
-34.5
-33.26
-32.14
-31.53
-31.85
-33.15
-34.88
-35.94
-35.03
-31.08
-23.63
-12.95
0.1
14.22
28.03
40.21
49.66
55.7
58.14
57.38
54.26
49.72
44.48
38.71
32.01
23.67
13.13
0.36
-13.92
-28.32
-41.0
-50.12
-54.29
-53.04
-47.03
-37.84
-27.55
-17.96
-10.05
-4.09
-0.09
1.54
-0.28
-6.69
-17.98
-32.95
-49.0
-63.0
-72.27
-74.93
-70.02
-57.23
-37.11
-11.64
15.53
39.59
56.11
62.86
60.77
53.3
44.7
37.89
33.48
30.08
25.75
19.15
9.89
-1.72
-15.0
-28.8
-40.99
-48.68
-49.2
-41.42
-26.8
-8.94
8.02
21.22
29.98
35.28
38.41
39.87
39.47
37.3
34.81
34.56
38.99
48.52
60.85
71.75
77.37
76.35
70.53
64.02
60.94
63.4
70.53
79.07
84.81
84.26
75.76
59.69
38.12
13.92
-9.84
-30.46
-45.86
-54.83
-57.18
-53.66
-45.87
-35.8
-25.47
-16.6
-10.49
-7.96
-9.36
-14.61
-22.98
-33.28
-44.02
-53.89
-62.19
-69.0
-74.89
-80.49
-85.92
-90.67
-93.82
-94.43
-92.06
-86.74
-78.79
-68.4
-55.42
-39.57
-20.91
-0.3
20.39
38.76
52.64
60.8
63.39
61.6
56.98
50.79
43.61
35.62
27.1
18.7
11.46
6.27
3.49
2.73
3.27
4.54
6.48
9.53
14.27
21.04
29.71
39.79
50.48
60.9
70.05
76.95
80.79
81.07
77.76
71.24
62.1
50.93
38.22
24.38
10.0
-4.18
-17.31
-28.57
-37.45
-43.75
-47.53
-49.01
-48.45
-46.1
-42.11
-36.55
-29.42
-20.84
-11.27
-1.69
6.6
12.23
14.29
12.66
7.88
0.86
-7.47
-16.38
-25.09
-32.63
-37.79
-39.46
-37.22
-31.65
-24.16
-16.41
-9.58
-4.07
0.35
4.13
7.34
9.72
10.9
10.69
9.39
7.64
6.24
5.84
6.67
8.34
9.82
9.66
6.53
-0.18
-9.94
-21.06
-31.28
-38.42
-41.02
-38.62
-31.53
-20.68
-7.38
6.72
19.72
29.67
35.12
35.45
31.05
22.98
12.34
-0.24
-14.74
-31.42
-50.12
-69.68
-87.8
-101.53
-108.2
-106.46
-96.9
-81.97
-65.2
-50.15
-39.16
-32.92
-30.64
-30.72
-31.74
-33.01
-34.64
-37.25
-41.35
-47.15
-54.57
-63.28
-72.58
-80.92
-85.61
-83.19
-70.51
-46.35
-12.52
26.26
63.73
94.27
114.66
124.53
125.61
120.28
110.42
97.15
81.35
64.32
48.15
35.32
27.94
26.78
30.77
37.03
41.68
41.25
34.29
22.26
9.45
1.32
2.26
13.53
32.58
54.08
72.16
82.71
84.58
79.27
69.61
58.27
46.87
36.16
26.67
19.27
15.26
15.7
20.61
28.53
36.71
42.09
42.51
37.65
29.15
19.89
12.79
9.76
10.97
15.11
20.01
23.53
24.35
22.25
18.05
13.18
8.89
5.81
3.65
1.5
-1.52
-5.69
-10.47
-14.89
-18.28
-20.69
-22.84
-25.49
-28.61
-31.1
-31.3
-27.99
-21.28
-12.83
-5.12
-0.42
0.28
-2.69
-8.1
-14.63
-21.54
-28.65
-35.95
-43.18
-49.63
-54.47
-57.19
-57.89
-57.19
-55.87
-54.18
-51.74
-47.54
-40.64
-30.64
-18.09
-4.55
8.08
18.05
24.29
26.57
25.32
21.23
14.98
7.07
-2.01
-11.62
-20.99
-29.23
-35.82
-40.66
-44.12
-46.65
-48.3
-48.53
-46.27
-40.4
-30.39
-16.75
-1.08
14.39
27.49
36.78
41.84
43.28
42.19
39.73
36.8
33.78
30.71
27.43
23.72
19.38
14.15
7.83
0.42
-7.6
-15.15
-20.64
-22.52
-19.75
-12.37
-1.49
11.06
23.29
33.62
41.18
45.63
47.08
45.68
41.62
35.29
27.34
18.77
10.79
4.36
-0.17
-3.34
-6.34
-10.41
-16.16
-23.05
-29.51
-33.59
-33.8
-29.82
-22.56
-13.69
-4.94
2.51
8.25
12.38
15.22
16.97
17.6
16.99
14.98
11.6
7.1
1.94
-3.21
-7.63
-10.66
-11.7
-10.35
-6.3
0.47
9.57
20.05
30.35
38.55
42.93
42.56
37.67
29.65
20.5
12.3
6.53
3.77
3.69
5.07
6.14
4.95
-0.13
-9.84
-23.64
-39.54
-54.48
-65.21
-69.21
-65.41
-54.49
-38.57
-20.56
-3.36
10.65
19.99
24.24
23.96
20.59
16.06
12.38
11.0
12.55
16.52
21.58
25.99
28.17
27.26
23.36
17.66
12.09
8.74
9.22
14.02
22.38
32.5
42.17
49.36
52.74
51.66
46.25
37.23
25.83
13.72
2.73
-5.57
-10.31
-11.65
-10.66
-8.97
-8.11
-8.87
-10.97
-13.07
-13.21
-9.63
-1.52
10.5
24.44
37.55
47.15
51.37
49.57
42.13
30.3
15.73
0.32
-13.9
-24.96
-31.3
-32.16
-28.07
-20.77
-12.8
-6.76
-4.36
-5.94
-10.38
-15.69
-19.74
-21.09
-19.31
-15.02
-9.47
-4.08
-0.19
1.25
-0.31
-4.88
-11.82
-20.01
-28.06
-34.85
-39.87
-43.31
-45.78
-47.82
-49.51
-50.35
-49.55
-46.46
-40.87
-33.03
-23.43
-12.46
-0.38
12.52
25.68
38.1
48.5
55.71
59.06
58.52
54.67
48.26
40.04
30.47
19.82
8.4
-3.4
-15.0
-25.7
-34.77
-41.5
-45.32
-45.95
-43.52
-38.68
-32.43
-25.88
-19.89
-14.87
-10.77
-7.17
-3.52
0.6
5.33
10.49
15.57
19.96
22.99
24.08
22.77
18.69
11.67
1.83
-10.17
-22.91
-34.39
-42.39
-45.12
-41.85
-33.17
-20.7
-6.64
6.9
18.18
26.04
29.95
29.89
26.46
20.77
14.24
8.22
3.45
-0.22
-3.73
-8.45
-15.45
-24.81
-35.49
-45.45
-52.41
-54.69
-51.7
-44.14
-33.6
-21.96
-10.73
-0.82
7.42
13.94
18.75
21.83
23.31
23.51
22.96
22.18
21.36
20.16
17.86
13.7
7.51
0.12
-6.71
-10.76
-10.29
-4.78
4.78
16.11
26.56
34.11
38.0
38.89
38.3
37.8
38.35
39.94
41.91
43.38
43.71
42.7
40.32
36.52
31.21
24.36
16.55
9.14
4.03
3.01
6.87
14.88
24.9
34.11
40.07
41.47
38.31
31.53
22.34
11.72
0.3
-11.45
-22.89
-33.09
-41.05
-46.09
-48.29
-48.57
-48.35
-48.9
-50.57
-52.48
-52.79
-49.43
-41.2
-28.42
-12.9
2.65
15.69
24.73
29.49
30.71
29.36
26.19
21.45
15.11
7.25
-1.71
-11.06
-20.03
-28.22
-35.62
-42.39
-48.57
-53.55
-56.15
-55.03
-49.37
-39.46
-26.83
-13.83
-2.9
4.31
7.36
6.95
4.5
1.39
-1.41
-3.59
-5.4
-7.33
-9.91
-13.62
-18.75
-25.3
-32.8
-40.09
-45.42
-46.78
-42.6
-32.53
-17.68
-0.44
16.25
29.94
39.09
43.36
43.29
39.85
34.29
27.84
21.67
16.62
12.9
9.99
6.94
2.86
-2.33
-7.63
-11.2
-11.08
-6.16
3.37
16.01
29.5
41.68
51.05
56.93
59.31
58.47
54.87
49.18
42.38
35.77
30.5
27.2
25.56
24.3
21.67
16.15
7.15
-4.55
-17.08
-28.03
-35.43
-38.48
-37.78
-34.92
-31.63
-28.87
-26.34
-22.77
-16.71
-7.47
4.36
17.05
28.41
36.54
40.2
38.96
32.88
22.36
8.18
-8.24
-24.85
-39.14
-48.74
-52.12
-48.98
-40.39
-28.34
-15.17
-2.95
6.88
13.63
17.24
18.11
16.77
13.73
9.4
4.02
-2.13
-8.7
-15.27
-21.44
-27.11
-32.44
-37.64
-42.66
-46.7
-48.36
-46.07
-38.82
-26.81
-11.58
4.58
19.39
31.4
40.17
46.14
50.07
52.65
54.32
55.33
55.72
55.47
54.31
51.75
47.14
39.85
29.64
16.84
2.49
-11.7
-23.79
-32.01
-35.41
-34.21
-29.73
-23.98
-19.01
-16.18
-16.03
-18.34
-22.44
-27.6
-33.01
-37.88
-41.38
-42.77
-41.68
-38.36
-33.65
-28.79
-24.9
-22.48
-21.27
-20.35
-18.65
-15.41
-10.58
-4.88
0.58
4.76
7.17
8.1
8.37
9.03
10.96
14.51
19.47
25.14
30.53
34.54
36.08
34.28
28.65
19.29
7.22
-5.63
-16.7
-23.28
-23.48
-16.86
-4.76
9.84
23.29
32.42
35.55
32.97
26.52
18.64
11.31
5.31
0.29
-4.63
-10.29
-16.94
-24.48
-32.6
-40.96
-49.05
-55.71
-59.11
-57.23
-48.79
-34.27
-16.16
1.68
15.38
22.46
22.72
17.87
10.74
4.05
-0.39
-1.84
-0.46
3.12
8.07
13.43
18.16
21.13
21.41
18.64
13.34
7.06
2.06
0.55
3.98
12.33
24.07
36.69
47.59
55.07
58.78
59.55
58.65
56.91
54.13
49.09
40.1
25.87
6.2
-17.76
-43.63
-68.38
-88.94
-102.73
-108.17
-104.83
-93.62
-76.69
-56.98
-37.63
-21.22
-9.19
-1.6
2.6
5.04
7.26
10.26
14.29
19.01
23.82
28.05
31.32
33.58
34.99
35.75
35.78
34.64
31.62
26.1
18.08
8.5
-0.92
-8.1
-11.44
-10.43
-5.85
0.42
6.21
9.8
10.51
8.83
6.06
3.58
2.29
2.17
2.35
1.65
-0.88
-5.55
-12.01
-19.6
-27.62
-35.56
-42.84
-48.63
-51.65
-50.49
-44.29
-33.34
-19.33
-5.04
6.64
13.83
16.24
15.2
12.82
10.98
10.52
10.97
11.08
9.58
5.76
-0.23
-7.68
-15.7
-23.45
-30.21
-35.12
-37.1
-35.18
-28.83
-18.53
-5.84
6.92
17.33
23.71
25.54
23.45
18.93
13.62
8.95
5.77
4.36
4.52
5.66
6.94
7.39
6.04
2.26
-3.87
-11.46
-18.82
-23.85
-24.7
-20.31
-10.8
2.64
17.98
32.89
45.27
53.62
57.18
56.06
50.97
42.99
33.3
22.84
12.18
1.58
-8.89
-19.21
-29.3
-38.87
-47.36
-54.01
-57.85
-57.86
-53.29
-43.87
-30.21
-13.83
2.99
17.71
28.19
33.28
32.97
28.38
21.13
12.84
4.74
-2.47
-8.38
-12.67
-15.1
-15.69
-15.0
-14.13
-14.32
-16.48
-20.77
-26.49
-32.45
-37.43
-40.61
-41.58
-40.28
-37.0
-32.41
-27.85
-25.16
-26.14
-31.78
-41.58
-53.4
-64.2
-71.09
-72.52
-68.91
-62.31
-55.55
-51.0
-49.51
-49.95
-49.47
-44.58
-32.57
-12.8
12.58
39.14
61.62
75.68
79.43
73.94
62.67
50.04
39.84
34.45
34.68
40.25
50.25
63.19
76.85
88.38
94.78
94.01
86.0
72.81
57.99
45.07
36.03
30.92
28.15
25.76
22.44
18.01
13.19
9.02
6.33
5.61
6.94
10.13
14.69
19.85
24.67
28.15
29.53
28.65
26.03
22.83
20.61
20.69
23.76
29.48
36.49
42.96
47.15
48.04
45.6
40.48
33.66
25.96
17.84
9.5
0.93
-7.92
-17.09
-26.78
-37.12
-48.09
-59.19
-69.38
-77.32
-81.72
-81.79
-77.5
-69.46
-58.8
-46.89
-35.13
-24.89
-17.15
-12.15
-9.03
-5.82
-0.0
10.37
25.86
44.96
64.51
80.76
90.52
92.1
85.58
72.44
55.08
36.23
18.63
4.63
-4.13
-7.02
-4.63
1.4
8.88
15.48
19.44
20.03
17.55
13.41
9.55
7.69
8.77
12.31
16.61
19.31
18.28
12.49
2.27
-10.93
-25.07
-38.09
-48.27
-54.25
-55.1
-50.4
-40.45
-26.37
-9.97
6.55
21.15
32.36
39.36
42.04
40.69
35.85
28.2
18.49
7.56
-3.53
-13.79
-22.32
-28.56
-32.51
-34.45
-34.76
-33.5
-30.28
-24.51
-15.8
-4.42
8.55
21.49
32.79
41.32
46.73
49.24
49.47
48.12
45.69
42.45
38.26
32.77
25.47
15.97
4.22
-9.34
-23.7
-37.39
-48.75
-56.31
-59.22
-57.77
-53.31
-47.82
-43.2
-40.34
-38.8
-36.96
-32.57
-23.86
-10.12
7.8
27.58
45.89
59.03
63.92
59.02
44.7
23.1
-2.64
-29.49
-55.05
-77.76
-96.4
-109.61
-116.0
-114.6
-105.78
-91.69
-76.07
-63.14
-56.01
-55.22
-58.4
-61.07
-58.48
-47.7
-28.71
-4.43
20.74
42.8
59.83
72.62
84.49
100.16
124.38
160.43
208.62
265.6
324.19
374.8
407.58
414.9
393.55
345.57
277.81
200.17
123.19
55.58
2.3
-35.66
-60.09
-73.43
-77.31
-72.39
-60.26
-45.27
-34.85
-37.19
-57.01
-92.2
-133.54
-168.39
-186.37
-183.98
-165.45
-139.74
-115.54
-97.34
-84.65
-73.98
-62.35
-49.39
-37.4
-29.73
-28.49
-33.22
-41.2
-49.01
-54.39
-57.31
-59.72
-64.14
-72.13
-82.97
-93.97
-101.55
-102.85
-96.99
-85.32
-70.81
-56.67
-45.4
-37.84
-33.69
-31.85
-31.29
-31.55
-32.83
-35.55
-39.86
-45.19
-50.28
-54.0
-55.88
-56.54
-57.29
-59.11
-61.98
-64.63
-65.28
-62.66
-56.84
-49.15
-41.35
-34.57
-28.78
-23.14
-16.96
-10.7
-6.0
-5.03
-9.12
-17.64
-28.02
-36.47
-40.01
-38.21
-33.82
-32.09
-38.83
-58.22
-91.43
-136.34
-188.1
-240.38
-286.4
-320.0
-336.62
-334.19
-313.73
-279.19
-236.32
-191.11
-148.16
-109.91
-76.88
-48.59
-24.49
-4.25
12.35
25.81
37.25
48.08
59.64
72.7
87.26
102.69
118.21
133.26
147.89
162.81
179.12
198.2
221.47
250.22
285.15
325.64
369.09
410.55
443.42
461.16
459.49
438.19
401.5
356.7
311.76
272.95
243.59
224.19
213.48
209.31
208.88
208.47
203.53
189.42
163.06
124.32
76.42
24.99
-23.77
-64.92
-95.64
-115.1
-124.01
-124.13
-118.26
-109.99
-102.98
-99.82
-100.85
-103.85
-105.04
-100.75
-89.19
-71.0
-48.77
-25.74
-4.56
13.29
27.49
38.36
46.38
51.77
54.34
53.31
47.48
35.59
16.84
-8.64
-39.55
-73.8
-109.33
-144.73
-179.67
-214.82
-251.36
-290.02
-330.38
-370.61
-407.87
-439.47
-463.76
-480.54
-490.4
-493.54
-488.96
-474.56
-448.42
-410.31
-362.34
-308.39
-252.47
-197.24
-143.86
-92.92
-45.59
-4.03
29.57
54.71
73.43
89.83
108.49
132.48
162.54
197.5
235.65
275.91
317.82
360.95
403.53
441.76
470.15
482.83
475.84
448.99
406.29
355.1
303.45
257.52
220.08
190.91
168.61
152.53
143.39
142.23
148.11
156.58
160.19
151.34
125.98
86.01
38.67
-6.48
-41.41
-62.15
-69.02
-64.95
-53.47
-37.6
-20.04
-3.7
8.21
13.17
10.73
2.91
-6.31
-12.83
-14.47
-11.49
-6.13
-1.02
2.26
3.78
4.93
7.48
12.51
19.82
27.82
34.3
37.49
36.96
34.15
31.78
32.71
38.82
50.41
66.29
84.66
103.58
121.41
136.74
148.15
154.45
154.77
149.21
138.61
124.36
108.02
90.76
73.17
55.27
36.8
17.78
-1.28
-19.73
-37.23
-54.15
-71.82
-91.73
-114.52
-139.01
-162.12
-180.23
-190.91
-194.18
-192.24
-187.81
-182.46
-175.44
-164.68
-148.61
-127.7
-104.82
-84.12
-68.86
-60.0
-55.51
-51.75
-45.86
-37.35
-28.68
-23.74
-25.73
-35.32
-50.13
-65.73
-77.82
-84.03
-84.5
-81.29
-76.78
-72.48
-68.75
-65.06
-60.91
-56.09
-50.65
-44.62
-37.72
-29.73
-20.51
-10.5
-0.74
7.41
12.6
13.96
11.45
5.72
-2.09
-10.72
-19.22
-26.84
-32.9
-36.55
-36.66
-32.22
-22.73
-8.75
8.0
24.91
39.14
48.32
51.14
47.48
38.13
24.5
8.09
-9.63
-27.46
-44.38
-59.46
-71.93
-81.12
-86.69
-88.83
-88.42
-86.71
-84.9
-83.41
-81.54
-77.67
-70.01
-57.67
-41.34
-23.27
-6.51
6.24
13.43
14.97
11.79
5.22
-3.29
-12.15
-19.54
-23.45
-22.32
-15.75
-5.03
6.9
16.52
20.95
19.16
12.49
4.03
-2.56
-4.56
-1.14
6.53
16.02
24.59
30.1
31.3
27.71
19.39
6.79
-8.99
-26.03
-41.78
-53.58
-59.59
-59.41
-54.22
-46.35
-38.35
-32.12
-28.39
-26.46
-24.51
-20.29
-11.86
1.6
19.45
39.75
59.89
77.52
91.11
100.1
104.58
104.73
100.58
92.16
79.85
64.79
48.78
33.92
21.88
13.21
7.21
2.08
-4.19
-12.92
-23.97
-35.52
-44.72
-48.82
-46.25
-37.31
-24.01
-9.18
4.52
15.28
22.4
25.88
26.22
24.14
20.5
16.38
12.64
9.61
6.86
3.34
-1.9
-9.04
-17.21
-24.85
-30.51
-33.53
-34.15
-33.15
-31.05
-27.55
-21.49
-11.25
4.36
25.36
50.09
75.04
95.23
105.01
99.38
75.84
35.87
-14.29
-64.42
-102.97
-120.6
-113.52
-85.13
-44.86
-4.78
24.86
39.05
38.86
29.8
18.57
9.99
5.75
4.85
5.36
5.95
6.32
6.68
6.79
5.36
0.55
-9.03
-23.18
-39.83
-55.68
-67.48
-73.48
-74.23
-72.14
-70.27
-70.54
-72.38
-72.83
-67.73
-53.79
-30.36
0.03
32.37
61.02
81.45
91.36
91.08
83.12
71.4
60.37
53.89
54.21
61.13
71.8
81.62
85.84
81.14
66.87
45.03
19.53
-4.99
-24.2
-34.9
-35.25
-25.14
-6.02
19.15
46.38
71.48
90.84
102.16
104.83
99.71
88.8
74.38
58.4
41.96
25.29
8.31
-8.68
-24.53
-37.33
-45.23
-47.33
-44.01
-36.71
-26.98
-15.83
-3.66
9.21
21.8
32.35
38.92
40.38
37.15
31.12
24.73
19.92
17.53
17.34
18.73
21.1
23.97
26.77
28.47
27.68
22.93
13.38
-0.72
-17.65
-34.29
-46.72
-51.27
-45.72
-30.34
-8.2
15.64
35.6
47.55
49.97
43.9
32.1
17.42
1.81
-13.88
-29.31
-43.73
-55.47
-62.35
-62.46
-55.37
-42.67
-27.63
-14.18
-5.37
-2.4
-4.29
-8.52
-12.17
-12.99
-9.87
-2.82
7.62
20.73
35.61
50.99
65.03
75.47
80.39
78.83
71.36
59.87
46.81
34.28
23.26
13.47
3.79
-6.86
-18.76
-30.92
-41.41
-48.0
-49.08
-44.28
-34.6
-22.14
-9.35
1.55
8.88
11.7
9.58
2.52
-8.89
-23.36
-38.73
-52.11
-60.53
-61.73
-55.07
-41.99
-25.76
-10.62
-0.39
2.77
-1.02
-9.47
-18.92
-25.49
-26.01
-18.68
-3.36
18.54
44.32
70.56
93.64
110.53
119.4
119.85
112.93
100.72
85.76
70.51
56.77
45.35
35.97
27.43
18.2
7.26
-5.34
-18.12
-28.79
-35.19
-36.27
-32.72
-26.61
-20.55
-16.77
-16.39
-19.44
-25.13
-32.38
-40.13
-47.53
-53.86
-58.68
-61.69
-62.92
-62.6
-61.05
-58.68
-55.86
-52.82
-49.67
-46.13
-41.66
-35.69
-28.08
-19.48
-11.27
-4.98
-1.56
-0.64
-0.68
0.38
4.12
10.9
19.7
28.64
35.73
39.5
39.22
34.83
26.67
15.29
1.51
-13.56
-28.51
-41.58
-51.12
-55.86
-55.31
-50.12
-41.74
-31.89
-22.05
-12.96
-4.92
1.73
6.07
6.59
1.77
-8.93
-24.55
-42.58
-59.7
-72.68
-79.11
-78.08
-70.48
-59.4
-49.96
-47.95
-57.62
-79.18
-107.57
-133.53
-146.81
-140.37
-113.21
-70.65
-21.86
23.81
60.01
84.42
97.95
102.96
101.68
95.84
86.83
76.14
65.36
55.66
47.25
39.11
29.51
17.1
2.0
-13.83
-26.95
-33.83
-32.11
-21.6
-4.44
15.67
34.51
48.41
55.04
53.52
44.45
29.53
11.14
-8.08
-25.74
-40.13
-50.51
-57.18
-61.33
-64.69
-68.93
-74.88
-82.07
-88.5
-91.08
-86.63
-73.05
-50.17
-20.1
13.38
45.8
73.24
93.16
104.61
108.02
104.71
96.37
84.8
71.83
59.23
48.51
40.64
35.8
33.31
31.71
29.24
24.45
17.0
8.14
0.6
-2.07
3.1
17.13
38.37
62.77
85.19
101.15
108.1
105.88
96.16
81.23
63.13
43.15
22.09
0.85
-19.46
-37.54
-52.47
-64.22
-73.8
-82.93
-93.1
-104.56
-115.81
-123.79
-124.86
-116.32
-97.41
-69.82
-37.09
-3.47
27.17
52.13
70.1
80.8
84.62
82.24
74.52
62.58
47.87
32.16
17.35
5.14
-3.37
-8.04
-9.67
-9.51
-8.66
-7.36
-4.95
-0.23
7.82
19.32
33.3
47.91
60.83
69.95
73.72
71.4
63.23
50.36
34.58
18.0
2.33
-11.47
-23.43
-34.43
-45.66
-58.29
-73.05
-89.82
-107.34
-122.94
-132.86
-133.35
-122.02
-99.27
-68.52
-35.25
-5.16
17.89
32.93
41.61
46.83
51.07
55.19
58.18
57.88
52.08
39.61
21.01
-1.24
-23.16
-40.08
-47.78
-43.61
-27.0
0.49
35.71
74.69
113.18
147.15
173.09
188.4
191.77
183.56
165.71
141.3
113.6
85.18
57.39
30.39
3.78
-22.4
-47.12
-68.22
-83.1
-89.79
-88.02
-79.68
-68.2
-57.29
-49.5
-45.3
-43.3
-41.3
-37.42
-31.03
-22.53
-12.71
-2.03
9.68
22.84
37.48
52.65
66.41
76.27
80.15
77.16
68.14
55.49
42.51
32.43
27.25
27.22
31.01
36.45
41.5
44.91
46.21
45.28
41.81
35.29
25.44
12.78
-0.95
-13.36
-22.3
-26.86
-27.95
-27.74
-28.69
-32.5
-39.32
-48.13
-57.4
-66.06
-74.08
-82.31
-91.82
-102.89
-114.35
-123.62
-127.48
-123.22
-109.91
-88.7
-62.51
-34.95
-9.09
13.25
31.51
45.97
57.02
64.94
69.9
72.22
72.72
72.45
72.36
72.84
73.41
73.0
70.35
64.61
55.88
45.22
34.43
25.41
19.46
16.92
17.19
19.13
21.71
24.35
26.87
29.3
31.35
32.54
32.31
30.36
26.86
22.13
16.3
9.09
-0.14
-11.8
-25.68
-40.89
-56.14
-70.28
-82.47
-91.83
-97.2
-96.75
-88.61
-71.75
-46.81
-16.51
15.07
43.67
66.11
81.0
88.63
90.23
87.1
80.03
69.25
54.89
37.37
17.92
-1.54
-18.84
-32.26
-41.17
-46.14
-48.43
-49.11
-48.26
-44.87
-37.42
-24.99
-8.26
10.28
27.15
38.91
43.5
40.72
31.89
19.04
3.99
-12.1
-28.68
-45.56
-62.46
-78.95
-94.63
-109.36
-123.41
-137.26
-150.94
-163.54
-172.8
-175.65
-169.18
-151.87
-124.53
-90.32
-53.94
-20.38
6.44
24.58
34.09
36.75
35.2
32.14
29.68
28.93
29.9
31.85
33.64
34.22
32.85
29.21
23.41
16.02
8.16
1.35
-2.84
-3.25
0.37
7.26
15.91
24.36
30.87
34.16
33.54
29.08
21.43
11.81
1.67
-7.67
-15.4
-21.43
-26.34
-31.09
-36.74
-44.09
-53.43
-64.19
-74.61
-81.8
-82.32
-73.15
-53.07
-23.44
11.81
47.09
76.82
96.9
105.66
103.85
94.02
79.43
63.29
48.08
35.39
25.95
19.38
14.67
10.1
3.72
-6.17
-20.33
-38.01
-56.76
-72.94
-82.74
-83.47
-74.46
-57.31
-35.38
-12.55
7.8
23.42
33.3
37.22
35.46
28.51
17.1
2.41
-13.96
-30.17
-44.47
-55.67
-63.47
-68.42
-71.72
-74.44
-76.68
-77.48
-74.79
-66.4
-50.97
-28.73
-1.68
27.04
54.1
76.81
93.51
103.57
107.05
104.5
96.78
85.19
71.41
57.29
44.5
33.95
25.41
17.46
7.97
-4.8
-21.04
-38.73
-53.87
-61.97
-59.96
-47.59
-27.87
-5.87
13.17
25.57
30.22
28.13
21.51
12.67
3.37
-5.18
-12.19
-17.29
-20.68
-23.36
-27.03
-33.54
-44.19
-58.85
-75.49
-90.46
-99.17
-97.59
-83.55
-57.55
-22.8
15.78
52.94
84.47
108.08
123.25
130.7
131.71
127.52
119.44
108.96
97.74
87.42
79.02
72.65
67.46
62.01
54.85
45.08
32.71
18.82
5.47
-4.78
-9.49
-7.17
2.06
16.35
32.42
46.64
55.98
58.77
54.92
45.47
32.06
16.39
-0.06
-16.07
-30.71
-43.47
-54.2
-63.18
-70.92
-77.95
-84.55
-90.52
-95.14
-97.2
-95.29
-88.28
-75.75
-58.33
-37.64
-15.89
4.66
22.25
35.97
45.52
50.96
52.35
49.67
43.06
33.17
21.43
9.9
0.73
-4.51
-5.44
-3.11
0.38
2.6
1.87
-2.0
-7.64
-12.57
-14.33
-11.44
-3.95
6.57
17.75
27.25
33.42
35.61
34.01
29.33
22.47
14.28
5.48
-3.38
-12.13
-20.84
-29.92
-39.98
-51.52
-64.67
-78.79
-92.16
-102.13
-105.69
-100.44
-85.63
-62.65
-34.84
-6.51
18.45
37.5
49.96
56.68
59.19
58.95
56.73
52.61
46.26
37.42
26.32
13.88
1.5
-9.31
-17.51
-22.64
-24.7
-23.91
-20.33
-13.94
-5.01
5.66
16.6
26.15
33.03
36.77
37.78
36.97
35.18
33.0
30.79
28.96
28.14
28.86
31.12
34.07
36.07
35.34
30.52
21.2
7.93
-8.07
-25.15
-41.27
-54.1
-61.23
-60.83
-52.35
-37.01
-17.81
1.44
17.32
27.82
32.73
33.22
30.95
27.26
22.54
16.31
7.6
-4.61
-20.72
-40.35
-62.05
-83.55
-101.99
-114.33
-117.61
-109.52
-88.82
-56.15
-14.4
31.37
74.84
110.1
133.38
144.09
144.73
139.5
132.4
125.85
120.07
113.88
105.75
94.71
80.72
64.25
45.9
26.16
5.42
-15.75
-36.47
-55.62
-71.95
-84.34
-91.86
-93.94
-90.52
-82.16
-70.0
-55.67
-40.66
-26.18
-12.89
-1.12
8.76
16.16
20.39
21.06
18.44
13.52
7.62
1.88
-3.17
-7.71
-12.38
-17.82
-24.11
-30.46
-35.23
-36.35
-32.17
-22.12
-7.19
10.28
27.29
41.08
49.9
53.24
51.53
45.78
37.25
27.28
17.39
8.99
