2013-06-12 16:18:58
64.0
-0.0
-0.0
-0.0
-0.0
-0.0
-0.0
-0.0
-0.0
-0.0
-0.0
0.0
0.01
0.01
-0.0
-0.03
-0.05
-0.05
0.0
0.13
0.36
0.66
1.01
1.37
1.72
2.06
2.4
2.79
3.24
3.8
4.42
5.06
5.66
6.2
6.68
7.15
7.68
8.31
9.14
10.09
11.04
11.88
12.56
13.14
13.76
14.65
15.96
17.91
20.32
22.9
25.38
27.58
29.57
31.68
34.32
37.81
42.54
48.15
54.1
59.83
64.97
69.58
74.14
79.34
85.71
93.76
103.0
112.62
121.73
129.77
136.75
143.3
150.75
157.77
166.64
177.95
191.79
206.97
220.57
228.25
225.36
208.53
176.87
132.76
80.05
23.07
-34.94
-92.44
-149.16
-205.23
-260.37
-313.74
-363.87
-409.83
-450.89
-486.48
-515.7
-537.16
-549.13
-549.84
-538.2
-514.0
-478.41
-433.56
-382.07
-326.58
-269.34
-212.06
-156.02
-102.24
-51.59
-5.04
36.53
72.46
102.48
126.73
145.72
160.16
170.75
178.12
182.67
184.68
184.39
182.06
178.05
172.76
166.6
159.93
152.98
145.9
138.77
131.63
124.51
117.49
110.64
104.02
97.68
91.67
86.0
80.67
75.7
71.1
66.87
63.02
59.56
56.48
53.79
51.48
49.56
48.02
46.83
45.96
45.36
44.92
44.53
44.02
43.2
41.9
39.95
37.23
33.68
29.29
24.11
18.29
12.03
5.58
-0.79
-6.81
-12.24
-16.89
-20.62
-23.37
-25.14
-25.99
-26.03
-25.39
-24.19
-22.58
-20.67
-18.54
-16.25
-13.82
-11.27
-8.63
-5.89
-3.06
-0.14
2.87
5.96
9.12
12.33
15.53
18.66
21.68
24.59
27.41
30.18
32.97
35.89
39.05
42.42
46.01
49.84
53.93
58.28
62.91
67.83
73.07
78.69
84.5
90.41
96.35
102.28
108.19
114.08
119.97
125.89
131.88
137.65
142.98
147.63
151.38
153.93
154.93
153.89
150.12
144.95
138.86
132.13
124.98
117.58
110.08
102.62
95.33
88.37
81.85
75.58
69.44
63.38
57.38
51.51
45.87
40.53
35.58
31.05
26.72
22.4
17.98
13.45
8.88
4.41
0.17
-3.78
-7.48
-11.2
-15.21
-19.64
-24.44
-29.34
-34.0
-38.1
-41.56
-44.58
-47.68
-51.42
-56.15
-61.88
-68.25
-74.72
-80.84
-86.54
-92.27
-98.84
-107.13
-117.65
-130.33
-144.52
-159.29
-173.85
-187.89
-201.67
-215.96
-231.75
-250.1
-271.97
-297.87
-327.33
-358.4
-387.56
-410.35
-422.81
-422.93
-411.46
-391.55
-367.29
-341.96
-317.0
-291.98
-265.67
-237.24
-206.99
-176.2
-146.34
-118.41
-92.63
-68.76
-46.55
-26.14
-8.02
7.31
19.71
29.58
37.83
45.45
53.19
61.21
69.17
76.44
82.5
87.08
90.35
92.62
94.28
95.52
96.32
96.54
95.98
94.52
92.09
88.74
84.63
79.97
75.02
69.94
64.78
59.4
53.58
47.16
40.08
32.48
24.54
16.35
7.78
-1.41
-11.43
-22.07
-32.54
-41.47
-47.23
-48.47
-44.57
-35.88
-23.6
-9.46
4.77
17.61
28.17
36.2
42.02
46.31
49.84
53.13
56.33
59.27
61.63
63.21
64.06
64.41
64.44
64.16
63.44
62.12
60.21
57.97
55.77
53.88
52.33
50.96
49.39
47.26
44.29
40.4
35.65
30.29
24.67
19.15
13.97
9.14
4.52
-0.2
-5.33
-11.18
-17.89
-25.49
-33.71
-41.89
-48.95
-53.58
-54.64
-51.53
-44.42
-34.23
-22.34
-10.14
1.33
11.45
20.06
27.27
33.28
38.25
42.31
45.53
47.89
49.44
50.25
50.5
50.4
50.15
49.81
49.35
48.69
47.79
46.73
45.59
44.41
43.05
41.26
38.77
35.5
31.63
27.55
23.66
20.18
17.03
13.9
10.45
6.45
1.98
-2.7
-7.2
-11.21
-14.66
-17.63
-20.47
-23.62
-27.55
-32.54
-38.52
-44.86
-50.43
-53.82
-53.78
-49.71
-41.9
-31.45
-19.93
-8.83
0.85
8.74
14.98
19.9
23.83
26.93
29.29
30.93
31.92
32.35
32.29
31.79
30.93
29.82
28.65
27.66
27.03
26.84
27.04
27.43
27.75
27.71
27.06
25.7
23.65
21.05
18.06
14.81
11.31
7.48
3.26
-1.31
-6.02
-10.6
-14.81
-18.52
-21.83
-24.92
-28.09
-31.66
-35.92
-40.96
-46.53
-51.87
-55.83
-57.07
-54.57
-47.84
-37.14
-23.36
-7.65
8.79
24.96
40.1
53.62
64.99
73.78
79.65
82.47
82.43
80.09
76.35
72.23
68.68
66.24
64.89
64.15
63.28
61.62
58.8
54.79
49.83
44.27
38.44
32.59
26.93
21.57
16.62
12.01
7.51
2.77
-2.63
-9.02
-16.5
-24.89
-33.82
-42.8
-51.4
-59.39
-66.76
-73.62
-80.05
-85.86
-90.48
-92.99
-92.35
-87.82
-79.29
-67.46
-53.74
-39.75
-26.94
-16.12
-7.43
-0.51
5.17
10.0
14.11
17.34
19.36
19.87
18.59
15.44
10.6
4.56
-1.97
-8.05
-12.83
-15.72
-16.55
-15.61
-13.52
-11.0
-8.7
-7.01
-6.04
-5.71
-5.82
-6.24
-6.94
-7.95
-9.34
-11.1
-13.15
-15.34
-17.57
-19.78
-21.99
-24.28
-26.81
-29.8
-33.46
-37.87
-42.83
-47.72
-51.53
-53.17
-51.74
-46.95
-39.19
-29.42
-18.84
-8.56
0.59
8.22
14.26
18.86
22.36
25.08
27.34
29.36
31.25
32.99
34.5
35.64
36.28
36.38
36.01
35.29
34.43
33.61
32.92
32.26
31.43
30.19
28.37
25.97
23.17
20.24
17.41
14.75
12.13
9.3
6.05
2.29
-1.86
-6.04
-9.86
-13.01
-15.37
-17.04
-18.38
-19.86
-22.03
-25.31
-29.84
-35.28
-40.7
-44.78
-46.2
-44.07
-38.35
-29.81
-19.83
-9.87
-1.03
6.12
11.52
15.35
17.85
19.21
19.6
19.24
18.4
17.44
16.66
16.34
16.54
17.17
18.01
18.81
19.35
19.56
19.45
19.08
18.45
17.48
16.04
14.14
11.87
9.54
7.41
5.58
3.87
1.92
-0.59
-3.8
-7.54
-11.36
-14.85
-17.71
-20.0
-22.05
-24.37
-27.48
-31.64
-36.75
-42.16
-46.83
-49.52
-49.15
-45.24
-38.09
-28.66
-18.38
-8.63
-0.36
6.04
10.72
14.14
16.85
19.24
21.53
23.74
25.84
27.77
29.48
30.89
31.88
32.3
32.04
31.15
29.87
28.53
27.43
26.7
26.23
25.68
24.73
23.15
20.93
18.29
15.5
12.84
10.41
8.18
5.96
3.6
0.92
-2.18
-5.73
-9.64
-13.79
-17.98
-21.97
-25.62
-28.88
-31.94
-35.16
-38.94
-43.61
-49.11
-54.95
-60.21
-63.69
-64.29
-61.35
-54.92
-45.67
-34.77
-23.41
-12.55
-2.73
5.9
13.39
19.91
25.57
30.5
34.72
38.27
41.16
43.37
44.93
45.97
46.63
47.03
47.26
47.32
47.14
46.69
45.92
44.88
43.58
42.02
40.17
37.94
35.25
32.03
28.23
23.91
19.29
14.7
10.47
6.8
3.66
0.82
-2.06
-5.23
-8.77
-12.54
-16.3
-19.87
-23.12
-26.04
-28.68
-31.12
-33.51
-36.14
-39.39
-43.56
-48.66
-54.14
-59.0
-62.03
-62.13
-58.78
-52.16
-43.12
-32.91
-22.75
-13.49
-5.55
1.04
6.53
11.19
15.24
18.73
21.63
23.93
25.69
27.07
28.33
29.69
31.2
32.77
34.14
35.06
35.35
35.02
34.19
32.94
31.32
29.17
26.28
22.56
18.07
13.13
8.17
3.59
-0.37
-3.7
-6.64
-9.45
-12.35
-15.43
-18.61
-21.75
-24.61
-27.02
-28.87
-30.1
-30.82
-31.31
-31.94
-33.12
-35.18
-38.15
-41.66
-44.91
-46.82
-46.36
-42.91
-36.47
-27.76
-17.96
-8.29
0.29
7.32
12.83
17.09
20.38
22.83
24.45
25.2
25.23
24.84
24.44
24.38
24.78
25.55
26.43
27.15
27.61
27.82
27.88
27.81
27.51
26.75
25.25
22.92
19.82
16.3
12.75
9.58
6.99
4.99
3.34
1.76
-0.04
-2.21
-4.72
-7.37
-9.87
-12.01
-13.72
-15.15
-16.67
-18.72
-21.8
-26.11
-31.47
-37.19
-42.08
-44.84
-44.36
-40.23
-32.85
-23.34
-13.12
-3.41
5.03
11.96
17.46
21.69
24.72
26.6
27.47
27.64
27.49
27.42
27.64
28.11
28.65
29.02
29.13
29.07
29.06
29.37
30.05
30.95
31.71
31.91
31.27
29.75
27.51
24.87
22.09
19.39
16.88
14.65
12.7
10.95
9.17
7.06
4.34
0.92
-3.02
-7.11
-10.83
-13.83
-16.01
-17.63
-19.21
-21.46
-24.96
-29.92
-36.08
-42.57
-48.21
-51.69
-52.0
-48.74
-42.17
-33.19
-23.03
-12.92
-3.81
3.83
10.01
15.07
19.5
23.65
27.67
31.49
34.94
37.82
39.99
41.42
42.08
42.04
41.35
40.17
38.67
37.04
35.42
33.85
32.25
30.51
28.54
26.36
24.05
21.73
19.47
17.27
15.0
12.52
9.75
6.73
3.59
0.5
-2.46
-5.37
-8.4
-11.71
-15.31
-19.03
-22.57
-25.69
-28.32
-30.53
-32.53
-34.53
-36.72
-39.3
-42.52
-46.59
-51.54
-56.96
-61.94
-65.22
-65.59
-62.37
-55.69
-46.5
-36.17
-26.07
-17.1
-9.61
-3.5
1.51
5.68
9.19
12.1
14.54
16.64
18.5
20.15
21.51
22.47
22.94
22.95
22.58
21.99
21.3
20.64
20.12
19.81
19.79
19.97
20.17
20.07
19.39
18.0
15.97
13.58
11.16
9.05
7.39
6.15
5.13
4.08
2.72
0.78
-1.87
-5.27
-9.27
-13.61
-17.99
-22.16
-25.99
-29.54
-32.95
-36.51
-40.44
-44.81
-49.41
-53.64
-56.57
-57.15
-54.6
-48.71
-40.03
-29.74
-19.28
-9.89
-2.21
3.7
8.27
11.98
15.21
18.06
20.43
22.23
23.5
24.41
25.16
25.92
26.68
27.32
27.71
27.78
27.58
27.25
26.87
26.45
25.82
24.79
23.22
21.1
18.57
15.89
13.29
10.87
8.53
6.16
3.65
1.03
-1.48
-3.69
-5.49
-7.04
-8.65
-10.67
-13.31
-16.52
-20.03
-23.45
-26.5
-29.08
-31.31
-33.52
-36.12
-39.47
-43.76
-48.86
-54.19
-58.68
-61.13
-60.43
-56.06
-48.34
-38.35
-27.62
-17.52
-8.95
-2.15
3.2
7.65
11.66
15.53
19.31
22.92
26.25
29.16
31.52
33.21
34.11
34.22
33.67
32.75
31.8
31.16
31.02
31.36
31.91
32.33
32.3
31.64
30.41
28.82
27.1
25.39
23.69
21.85
19.69
17.12
14.17
11.04
7.95
5.09
2.56
0.34
-1.68
-3.68
-5.8
-8.1
-10.51
-12.93
-15.3
-17.68
-20.36
-23.73
-28.16
-33.78
-40.25
-46.67
-51.76
-54.19
-53.05
-48.16
-40.11
-30.08
-19.44
-9.3
-0.28
7.41
13.88
19.33
23.86
27.53
30.33
32.26
33.44
34.02
34.16
34.03
33.68
33.09
32.2
30.98
29.48
27.81
26.12
24.46
22.78
20.92
18.73
16.16
13.31
10.38
7.61
5.12
2.93
0.97
-0.84
-2.48
-3.93
-5.18
-6.3
-7.51
-9.04
-11.05
-13.55
-16.3
-18.99
-21.36
-23.29
-24.91
-26.54
-28.59
-31.44
-35.26
-39.9
-44.9
-49.42
-52.45
-53.02
-50.51
-44.87
-36.67
-27.0
-17.15
-8.18
-0.78
4.93
9.22
12.46
14.99
16.98
18.47
19.49
20.13
20.56
20.99
21.5
22.1
22.73
23.3
23.81
24.22
24.52
24.63
24.42
23.79
22.7
21.19
19.37
17.31
15.02
12.41
9.41
5.97
2.18
-1.83
-5.87
-9.75
-13.36
-16.63
-19.56
-22.3
-25.1
-28.34
-32.32
-37.09
-42.22
-46.83
-49.78
-50.01
-46.98
-40.86
-32.54
-23.25
-14.12
-5.9
1.11
7.0
11.95
16.09
19.46
22.05
23.92
25.27
26.37
27.44
28.6
29.78
30.82
31.58
32.03
32.23
32.27
32.21
32.01
31.53
30.6
29.11
27.03
24.45
21.62
18.81
16.25
14.13
12.38
10.76
8.88
6.39
3.11
-0.82
-5.03
-9.07
-12.59
-15.46
-17.84
-20.06
-22.51
-25.63
-29.72
-34.85
-40.75
-46.68
-51.55
-54.15
-53.6
-49.62
-42.69
-33.87
-24.48
-15.61
-7.9
-1.53
3.71
8.16
12.13
15.85
19.35
22.55
25.24
27.23
28.34
28.52
27.83
26.45
24.59
22.51
20.42
18.5
16.87
15.56
14.52
13.65
12.81
11.88
10.82
9.61
8.28
6.92
5.59
4.38
3.27
2.17
0.89
-0.8
-3.08
-5.97
-9.35
-12.97
-16.55
-19.9
-23.0
-25.98
-29.04
-32.41
-36.31
-40.84
-45.9
-51.12
-55.76
-58.81
-59.24
-56.47
-50.47
-41.97
-32.13
-22.15
-12.91
-4.77
2.35
8.74
14.66
20.25
25.43
30.09
34.08
37.3
39.73
41.4
42.42
42.91
42.99
42.64
41.87
40.64
39.02
37.17
35.26
33.39
31.43
29.11
26.06
22.06
17.14
11.66
6.19
1.31
-2.6
-5.47
-7.55
-9.29
-11.07
-13.11
-15.43
-17.8
-19.96
-21.77
-23.23
-24.55
-26.02
-27.96
-30.57
-33.96
-37.91
-41.95
-45.3
-47.05
-46.33
-42.72
-36.36
-27.93
-18.48
-9.09
-0.58
6.6
12.37
16.86
20.29
22.83
24.64
25.85
26.65
27.2
27.69
28.24
28.86
29.44
29.85
30.02
30.02
30.02
30.27
30.9
31.88
32.9
33.5
33.23
31.85
29.38
26.15
22.65
19.3
16.3
13.53
10.67
7.33
3.28
-1.49
-6.78
-12.26
-17.65
-22.76
-27.59
-32.23
-36.95
-42.08
-47.92
-54.57
-61.69
-68.41
-73.38
-75.17
-72.76
-65.97
-55.62
-43.32
-30.9
-19.91
-11.14
-4.55
0.44
4.64
8.75
13.18
18.0
23.08
28.15
32.96
37.25
40.81
43.48
45.19
45.94
45.89
45.23
44.21
43.05
41.92
40.85
39.74
38.42
36.66
34.25
31.1
27.26
22.95
18.53
14.37
10.71
7.59
4.81
1.99
-1.27
-5.27
-10.13
-15.75
-21.84
-27.9
-33.28
-37.25
-39.15
-38.58
-35.51
-30.34
-23.73
-16.5
-9.4
-3.06
2.02
5.5
7.21
7.18
5.76
3.51
1.11
-0.79
-1.76
-1.66
-0.56
1.25
3.43
5.61
7.52
8.95
9.76
9.88
9.28
7.88
5.61
2.42
-1.58
-6.14
-10.9
-15.41
-19.4
-22.84
-25.98
-29.22
-32.92
-37.18
-41.71
-45.84
-48.7
-49.48
-47.67
-43.28
-36.73
-28.74
-20.07
-11.33
-2.89
5.07
12.47
19.14
24.83
29.26
32.24
33.8
34.28
34.22
34.17
34.55
35.48
36.84
38.27
39.43
40.08
40.21
39.92
39.4
38.77
38.07
37.15
35.83
33.89
31.25
28.07
24.69
21.56
19.1
17.52
16.8
16.64
16.55
15.89
14.1
10.83
6.21
0.91
-3.99
-7.26
-7.97
-5.9
-1.52
4.15
9.93
14.85
18.34
20.28
20.82
20.27
18.97
17.26
15.39
13.59
12.01
10.66
9.52
8.56
7.81
7.31
7.15
7.39
8.02
8.98
10.21
11.57
12.84
13.74
14.0
13.46
12.14
10.28
8.32
6.61
5.31
4.3
3.23
1.76
-0.3
-2.86
-5.65
-8.4
-11.0
-13.56
-16.33
-19.55
-23.31
-27.52
-31.92
-36.18
-39.99
-43.2
-45.84
-48.07
-50.2
-52.56
-55.36
-58.55
-61.71
-64.07
-64.71
-62.8
-58.0
-50.52
-41.15
-31.0
-21.12
-12.23
-4.61
1.92
7.64
12.86
17.7
22.14
26.11
29.59
32.59
35.16
37.34
39.01
40.04
40.27
39.66
38.38
36.7
35.0
33.52
32.25
30.95
29.25
26.86
23.72
20.01
16.12
12.4
9.1
6.26
3.79
1.58
-0.47
-2.32
-3.87
-5.06
-5.85
-6.3
-6.63
-7.07
-7.84
-9.04
-10.67
-12.65
-14.96
-17.58
-20.55
-23.94
-27.73
-31.9
-36.35
-40.87
-45.14
-48.57
-50.42
-49.95
-46.73
-40.8
-32.83
-23.89
-15.12
-7.41
-1.16
3.68
7.43
10.5
13.22
15.75
18.09
20.13
21.75
22.81
23.31
23.32
23.06
22.83
22.84
23.2
23.85
24.63
25.34
25.78
25.8
25.33
24.35
22.9
21.08
19.04
16.9
14.74
12.64
10.59
8.61
6.72
4.91
3.19
1.49
-0.29
-2.22
-4.4
-6.8
-9.26
-11.57
-13.53
-15.08
-16.39
-17.83
-19.77
-22.55
-26.32
-31.07
-36.48
-41.96
-46.52
-48.97
-48.18
-43.48
-35.04
-23.87
-11.54
0.34
10.65
18.98
25.55
30.87
35.44
39.47
42.98
45.83
47.88
49.12
49.56
49.31
48.48
47.22
45.65
43.89
42.08
40.31
38.58
36.78
34.67
31.95
28.37
23.8
18.42
12.65
7.09
2.29
-1.4
-3.94
-5.56
-6.65
-7.56
-8.5
-9.59
-10.83
-12.26
-13.88
-15.75
-17.81
-19.98
-22.11
-24.06
-25.77
-27.31
-28.82
-30.5
-32.52
-34.96
-37.75
-40.57
-42.85
-43.91
-43.12
-40.19
-35.31
-29.14
-22.54
-16.31
-10.98
-6.65
-3.21
-0.4
1.99
4.03
5.77
7.24
8.53
9.74
10.92
12.12
13.28
14.38
15.35
16.2
16.95
17.62
18.2
18.6
18.74
18.55
18.0
17.16
16.11
14.96
13.7
12.31
10.71
8.86
6.82
4.78
2.94
1.44
0.28
-0.68
-1.68
-2.92
-4.47
-6.29
-8.25
-10.2
-12.09
-13.92
-15.8
-17.91
-20.43
-23.45
-26.91
-30.47
-33.5
-35.29
-35.23
-33.07
-29.02
-23.69
-17.88
-12.29
-7.38
-3.37
-0.26
2.03
3.56
4.46
4.85
4.97
5.04
5.29
5.86
6.77
7.94
9.2
10.34
11.23
11.86
12.37
12.93
13.64
14.43
15.03
15.17
14.65
13.52
12.02
10.44
9.02
7.82
6.71
5.54
4.15
2.48
0.57
-1.42
-3.32
-4.99
-6.38
-7.61
-8.97
-10.82
-13.45
-16.93
-20.98
-24.97
-28.14
-29.74
-29.24
-26.56
-21.97
-16.1
-9.73
-3.61
1.7
5.92
9.06
11.31
12.96
14.23
15.28
16.17
16.9
17.46
17.83
18.01
17.95
17.57
16.86
15.85
14.66
13.43
12.24
11.05
9.72
8.02
5.82
3.13
0.13
-2.9
-5.66
-7.95
-9.78
-11.24
-12.5
-13.71
-14.87
-15.91
-16.75
-17.31
-17.63
-17.84
-18.12
-18.66
-19.62
-21.01
-22.73
-24.41
-25.49
-25.36
-23.51
-19.84
-14.65
-8.7
-2.84
2.18
6.05
8.76
10.6
11.83
12.6
12.89
12.67
12.0
11.14
10.4
10.05
10.16
10.59
11.08
11.37
11.29
10.81
9.98
8.95
7.84
6.76
5.77
4.89
4.14
3.5
3.0
2.62
2.32
2.06
1.72
1.19
0.36
-0.84
-2.49
-4.62
-7.23
-10.19
-13.37
-16.56
-19.62
-22.58
-25.55
-28.67
-31.9
-34.97
-37.31
-38.24
-37.22
-34.04
-28.9
-22.37
-15.21
-8.2
-1.97
3.06
6.73
9.13
10.5
11.2
11.53
11.67
11.71
11.64
11.5
11.38
11.39
11.63
12.11
12.73
13.37
13.9
14.26
14.46
14.52
14.45
14.23
13.88
13.4
12.82
12.14
11.32
10.35
9.24
8.08
6.93
5.82
4.67
3.4
1.93
0.25
-1.58
-3.42
-5.16
-6.74
-8.15
-9.43
-10.64
-11.88
-13.37
-15.3
-17.81
-20.79
-23.82
-26.25
-27.35
-26.63
-24.01
-19.86
-14.88
-9.8
-5.17
-1.27
1.91
4.52
6.73
8.65
10.33
11.78
13.02
14.09
15.08
15.99
16.85
17.55
18.02
18.21
18.2
18.12
18.04
18.03
17.93
17.55
16.71
15.35
13.62
11.73
9.9
8.21
6.61
5.02
3.4
1.81
0.41
-0.62
-1.27
-1.69
-2.07
-2.66
-3.52
-4.61
-5.75
-6.79
-7.68
-8.48
-9.37
-10.55
-12.2
-14.46
-17.4
-21.0
-25.06
-29.18
-32.77
-35.13
-35.66
-34.03
-30.27
-24.86
-18.52
-12.04
-6.1
-1.11
2.82
5.79
8.0
9.63
10.87
11.85
12.76
13.8
15.11
16.73
18.53
20.29
21.73
22.74
23.34
23.67
23.86
23.91
23.69
22.99
21.68
19.75
17.38
14.81
12.32
10.11
8.28
6.81
5.65
4.7
3.91
3.23
2.61
2.0
1.31
0.45
-0.7
-2.2
-4.1
-6.35
-8.79
-11.28
-13.67
-15.87
-17.93
-20.05
-22.46
-25.37
-28.79
-32.41
-35.59
-37.54
-37.59
-35.39
-31.11
-25.35
-18.93
-12.67
-7.16
-2.69
0.75
3.34
5.36
7.07
8.71
10.48
12.43
14.52
16.58
18.35
19.59
20.16
20.07
19.5
18.7
17.86
17.15
16.6
16.2
15.87
15.55
15.17
14.69
14.09
13.43
12.76
12.17
11.61
10.96
10.13
9.05
7.79
6.59
5.64
5.05
4.72
4.4
3.84
2.84
1.39
-0.43
-2.49
-4.68
-6.93
-9.23
-11.64
-14.33
-17.53
-21.48
-26.23
-31.51
-36.68
-40.89
-43.35
-43.53
-41.36
-37.22
-31.78
-25.76
-19.84
-14.5
-10.01
-6.37
-3.48
-1.1
1.03
3.17
5.49
8.09
10.99
14.08
17.13
19.87
22.01
23.4
24.04
24.09
23.79
23.29
22.64
21.75
20.46
18.66
16.34
13.64
10.8
8.1
5.71
3.72
2.09
0.73
-0.46
-1.54
-2.51
-3.36
-4.14
-4.94
-5.86
-6.96
-8.26
-9.75
-11.44
-13.46
-15.97
-19.13
-23.01
-27.43
-31.95
-35.84
-38.29
-38.58
-36.31
-31.58
-24.96
-17.31
-9.56
-2.47
3.59
8.53
12.47
15.55
17.93
19.68
20.9
21.68
22.18
22.56
22.92
23.3
23.68
23.99
24.19
24.18
23.9
23.36
22.58
21.66
20.64
19.55
18.32
16.84
15.1
13.17
11.27
9.71
8.71
8.33
8.43
8.71
8.85
8.63
7.95
6.86
5.52
4.13
2.8
1.55
0.24
-1.39
-3.61
-6.62
-10.47
-14.97
-19.62
-23.66
-26.22
-26.53
-24.29
-19.71
-13.58
-7.04
-1.17
3.24
5.87
6.84
6.48
5.17
3.27
1.11
-1.0
-2.75
-3.97
-4.52
-4.45
-3.88
-3.01
-2.03
-1.13
-0.39
0.23
0.81
1.46
2.13
2.67
2.87
2.55
1.67
0.38
-1.08
-2.46
-3.57
-4.28
-4.57
-4.48
-4.13
-3.7
-3.42
-3.45
-3.88
-4.73
-5.97
-7.61
-9.7
-12.34
-15.55
-19.32
-23.53
-28.04
-32.65
-37.03
-40.66
-42.92
-43.17
-40.97
-36.29
-29.54
-21.54
-13.22
-5.45
1.18
6.41
10.25
12.93
14.69
15.81
16.48
16.86
17.0
16.91
16.56
15.94
15.07
14.0
12.77
11.37
9.69
7.63
5.02
1.81
-1.95
-6.14
-10.58
-15.13
-19.69
-24.23
-28.84
-33.83
-39.55
-46.4
-54.42
-63.16
-71.57
-78.21
-81.62
-80.81
-75.53
-66.39
-54.61
-41.78
-29.47
-18.96
-11.12
-6.13
-3.57
-2.47
-1.54
0.49
4.48
10.62
18.48
27.15
35.57
42.95
48.85
53.27
56.4
58.48
59.68
60.06
59.72
58.74
57.27
55.49
53.55
51.63
49.97
48.84
48.58
49.35
51.06
53.3
55.48
57.01
57.56
57.12
55.98
54.52
53.02
51.55
49.96
47.95
45.2
41.48
36.68
30.91
24.44
17.65
11.01
4.83
-0.74
-5.85
-10.82
-16.06
-21.82
-28.06
-34.37
-40.03
-44.16
-46.05
-45.3
-42.03
-36.85
-30.61
-24.25
-18.54
-13.87
-10.37
-7.92
-6.32
-5.38
-4.96
-4.99
-5.43
-6.27
-7.42
-8.83
-10.37
-11.94
-13.36
-14.4
-14.77
-14.13
-12.18
-8.7
-3.74
2.37
9.07
15.7
21.6
26.4
29.91
32.23
33.58
34.17
34.15
33.58
32.4
30.56
28.05
24.98
21.56
18.01
14.5
11.08
7.63
3.86
-0.62
-6.16
-12.97
-20.95
-29.53
-37.71
-44.23
-47.89
-48.0
-44.57
-38.3
-30.33
-21.85
-13.79
-6.72
-0.87
3.69
6.99
9.1
10.21
10.62
10.76
11.01
11.64
12.75
14.26
15.96
17.62
19.09
20.34
21.44
22.5
23.59
24.65
25.52
25.94
25.62
24.43
22.35
19.57
16.39
13.2
10.35
7.99
6.12
4.55
3.0
1.22
-0.9
-3.44
-6.37
-9.57
-12.92
-16.23
-19.33
-22.12
-24.77
-27.57
-30.94
-35.25
-40.54
-46.4
-51.97
-56.09
-57.63
-55.89
-50.89
-43.37
-34.56
-25.7
-17.73
-10.99
-5.4
-0.65
3.47
7.0
9.89
12.17
14.02
15.68
17.39
19.23
21.01
22.53
23.61
24.2
24.39
24.31
24.1
23.84
23.53
23.18
22.72
22.1
21.23
20.05
18.59
16.93
15.24
13.67
12.24
10.93
9.57
8.07
6.44
4.78
3.25
1.96
0.94
0.11
-0.65
-1.52
-2.67
-4.34
-6.83
-10.43
-15.25
-21.12
-27.47
-33.32
-37.58
-39.29
-38.04
-33.98
-27.85
-20.67
-13.4
-6.74
-1.02
3.73
7.6
10.67
12.9
14.24
14.71
14.53
14.09
13.83
14.14
15.17
16.8
18.75
20.67
22.3
23.56
24.46
25.04
25.3
25.16
24.51
23.27
21.49
19.25
16.75
14.17
11.64
9.27
7.09
5.04
2.95
0.62
-2.15
-5.48
-9.3
-13.37
-17.36
-20.9
-23.77
-25.9
-27.46
-28.82
-30.42
-32.7
-35.89
-39.84
-43.95
-47.27
-48.78
-47.68
-43.69
-37.12
-28.8
-19.79
-11.1
-3.46
2.83
7.84
11.89
15.34
18.46
21.38
24.02
26.24
27.97
29.18
29.99
30.52
30.88
31.05
30.92
30.39
29.45
28.16
26.67
25.11
23.49
21.78
19.91
17.86
15.65
13.33
10.95
8.61
6.4
4.41
2.71
1.24
-0.19
-1.82
-3.89
-6.4
-9.17
-11.85
-14.14
-15.96
-17.44
-18.88
-20.6
-22.8
-25.57
-28.92
-32.73
-36.7
-40.34
-42.91
-43.61
-41.85
-37.44
-30.79
-22.77
-14.44
-6.71
-0.16
5.02
8.98
11.96
14.23
15.95
17.23
18.2
18.95
19.55
20.02
20.29
20.32
20.15
19.92
19.89
20.25
21.06
22.18
23.33
24.23
24.64
24.5
23.76
22.42
20.5
18.06
15.27
12.36
9.58
7.07
4.83
2.7
0.51
-1.88
-4.51
-7.34
-10.24
-13.08
-15.65
-17.79
-19.42
-20.65
-21.78
-23.25
-25.46
-28.55
-32.36
-36.36
-39.75
-41.71
-41.49
-38.65
-33.26
-25.86
-17.38
-8.91
-1.34
4.82
9.56
13.15
15.94
18.18
19.93
21.16
21.83
22.06
22.0
21.81
21.55
21.21
20.77
20.21
19.64
19.14
18.77
18.44
17.99
17.19
15.85
13.88
11.29
8.27
5.09
2.15
-0.22
-1.83
-2.71
-3.1
-3.41
-4.04
-5.25
-7.08
-9.37
-11.85
-14.27
-16.52
-18.67
-20.98
-23.81
-27.47
-32.03
-37.13
-41.99
-45.52
-46.68
-44.81
-39.81
-32.26
-23.22
-13.9
-5.3
1.93
7.63
11.96
15.3
17.96
20.2
22.12
23.78
25.22
26.55
27.84
29.13
30.36
31.39
32.11
32.5
32.66
32.78
32.97
33.15
33.12
32.59
31.38
29.44
26.98
24.34
21.9
20.0
18.77
18.12
17.74
17.24
16.36
15.01
13.4
11.9
10.88
10.49
10.48
10.31
9.11
5.92
-0.06
-9.23
-21.31
-35.14
-48.89
-60.42
-67.9
-70.36
-67.92
-61.67
-53.19
-44.04
-35.36
-27.79
-21.5
-16.39
-12.25
-8.77
-5.66
-2.69
0.3
3.28
6.09
8.52
10.34
11.49
12.0
12.08
12.0
12.0
12.25
12.83
13.65
14.55
15.31
15.71
15.57
14.79
13.45
11.77
10.06
8.63
7.67
7.19
7.03
6.9
6.61
6.09
5.43
4.86
4.62
4.82
5.46
6.35
7.12
7.38
6.82
5.46
3.79
2.76
3.57
7.4
15.04
26.68
41.76
58.97
76.33
91.44
102.01
106.51
104.61
97.43
87.16
76.16
66.06
57.21
48.89
39.93
29.55
17.77
5.31
-6.96
-18.53
-29.23
-39.0
-47.45
-53.7
-56.73
-55.91
-51.58
-45.03
-38.12
-32.47
-28.7
-26.45
-24.72
-22.61
-19.93
-17.11
-14.82
-13.31
-12.24
-11.03
-9.64
-8.9
-10.31
-15.2
-23.8
-34.87
-46.13
-55.31
-61.18
-63.84
-64.35
-63.9
-63.31
-62.75
-62.13
-61.39
-60.72
-60.4
-60.63
-61.4
-62.48
-63.58
-64.28
-64.22
-63.02
-60.09
-54.79
-46.33
-34.18
-18.25
0.93
22.2
43.92
64.34
81.92
95.53
104.52
108.67
108.21
103.79
96.41
87.33
77.79
68.76
60.73
53.66
47.11
40.43
32.97
24.25
14.09
2.71
-9.26
-20.94
-31.23
-39.15
-43.96
-45.4
-43.63
-39.17
-32.7
-24.79
-15.85
-6.08
4.36
15.2
25.99
36.13
45.09
52.65
59.01
64.72
70.54
77.09
84.58
92.72
100.74
107.55
112.06
113.51
111.81
107.62
102.21
96.98
92.93
90.28
88.48
86.63
84.01
80.4
76.08
71.54
67.06
62.58
57.79
52.39
46.45
40.4
35.18
31.86
31.26
33.47
37.24
39.85
37.49
26.33
4.02
-29.01
-69.17
-110.59
-146.9
-173.3
-187.86
-191.54
-187.18
-177.97
-166.32
-153.55
-140.28
-127.1
-114.91
-104.7
-97.07
-91.83
-87.94
-84.0
-78.88
-72.24
-64.49
-56.66
-49.71
-44.23
-40.23
-37.23
-34.55
-31.66
-28.38
-24.84
-21.46
-18.68
-16.79
-15.76
-15.32
-15.0
-14.37
-13.21
-11.57
-9.68
-7.82
-6.12
-4.58
-3.15
-1.78
-0.62
0.14
0.3
-0.16
-1.09
-2.15
-3.01
-3.43
-3.33
-2.74
-1.85
-0.9
-0.11
0.32
0.37
0.15
-0.11
-0.15
0.15
0.74
1.36
1.73
1.6
0.88
-0.42
-2.2
-4.31
-6.56
-8.67
-10.33
-11.34
-11.7
-11.66
-11.64
-11.96
-12.69
-13.58
-14.15
-14.01
-13.03
-11.48
-9.93
-9.05
-9.38
-11.22
-14.53
-19.04
-24.21
-29.41
-33.91
-37.08
-38.58
-38.47
-37.33
-36.07
-35.62
-36.64
-39.26
-43.17
-47.88
-53.01
-58.52
-64.47
-70.86
-77.32
-83.03
-87.05
-88.63
-87.51
-83.99
-78.72
-72.43
-65.66
-58.75
-51.92
-45.41
-39.53
-34.5
-30.33
-26.74
-23.18
-19.2
-14.69
-10.0
-5.78
-2.79
-1.56
-2.29
-4.83
-8.77
-13.5
-18.26
-22.15
-24.35
-24.29
-21.85
-17.43
-11.74
-5.59
0.36
5.68
10.14
13.65
16.3
18.35
20.27
22.62
25.89
30.32
35.78
41.83
47.96
53.73
59.09
64.35
70.02
76.54
84.01
92.11
100.25
107.88
114.72
120.7
125.63
128.86
129.23
125.44
116.75
103.62
87.79
71.76
57.88
47.46
40.45
35.7
31.61
26.73
20.27
12.06
2.41
-8.01
-18.4
-27.86
-35.46
-40.41
-42.18
-40.67
-36.31
-30.04
-23.15
-16.88
-12.14
-9.2
-7.81
-7.48
-7.95
-9.43
-12.51
-17.84
-25.6
-35.22
-45.33
-54.26
-60.55
-63.4
-62.9
-59.72
-54.75
-48.73
-42.15
-35.26
-28.3
-21.71
-15.98
-11.61
-8.91
-8.08
-9.31
-12.97
-19.6
-29.58
-42.72
-57.81
-72.67
-84.57
-91.01
-90.47
-82.78
-69.1
-51.45
-31.99
-12.63
5.32
21.07
34.17
44.14
50.34
52.09
48.91
40.97
29.29
15.82
3.02
-6.69
-11.58
-11.0
-5.5
3.57
14.58
26.16
37.55
48.48
58.81
68.11
75.48
79.73
79.86
75.52
67.19
56.19
44.26
33.21
24.66
19.63
18.51
20.95
25.78
31.35
35.82
37.78
36.59
32.6
26.85
20.67
15.13
10.75
7.38
4.57
1.94
-0.46
-1.96
-1.62
1.39
7.25
15.2
23.72
30.99
35.3
35.39
30.66
21.1
7.35
-9.34
-27.14
-43.84
-57.11
-65.09
-66.84
-62.66
-53.93
-42.79
-31.54
-22.15
-15.88
-13.16
-13.64
-16.35
-19.9
-22.75
-23.39
-20.62
-13.86
-3.38
9.58
23.03
34.77
43.02
46.87
46.34
42.15
35.33
26.87
17.6
8.29
-0.34
-7.65
-13.46
-18.18
-22.7
-28.0
-34.63
-42.32
-50.1
-56.68
-60.95
-62.33
-60.72
-56.39
-49.68
-41.02
-30.93
-20.16
-9.67
-0.51
6.44
10.69
12.28
11.77
10.08
8.29
7.39
7.98
10.23
14.0
19.08
25.49
33.62
44.13
57.51
73.6
91.25
108.38
122.34
130.64
131.63
125.01
111.8
94.0
73.95
53.68
34.62
17.54
2.73
-9.78
-20.07
-28.14
-33.94
-37.37
-38.29
-36.6
-32.43
-26.23
-18.75
-10.88
-3.37
3.4
9.41
14.77
19.44
23.06
25.22
25.79
25.14
24.12
23.56
23.73
24.02
23.19
20.11
14.47
7.1
-0.45
-6.62
-10.62
-12.56
-13.1
-12.88
-12.09
-10.55
-8.01
-4.6
-0.89
2.29
4.2
4.45
3.01
0.08
-4.06
-9.14
-14.82
-20.53
-25.52
-28.81
-29.56
-27.32
-22.27
-15.26
-7.46
0.01
6.53
12.05
16.79
20.82
23.73
24.69
22.96
18.43
11.92
4.95
-0.87
-4.52
-5.99
-6.04
-5.76
-5.93
-6.81
-8.03
-8.98
-9.15
-8.3
-6.49
-4.0
-1.13
1.8
4.64
7.28
9.67
11.8
13.65
15.22
16.5
17.45
18.01
18.04
17.39
15.99
13.9
11.32
8.53
5.61
2.45
-1.26
-5.79
-11.27
-17.48
-24.02
-30.39
-36.16
-40.92
-44.23
-45.59
-44.54
-40.83
-34.6
-26.5
-17.46
-8.47
-0.18
7.14
13.63
19.49
24.79
29.33
32.66
34.4
34.41
32.94
30.61
28.14
26.1
24.75
23.99
23.49
22.95
22.18
21.11
19.85
18.48
17.1
15.81
14.65
13.59
12.57
11.38
9.81
7.68
4.97
1.82
-1.49
-4.72
-7.71
-10.52
-13.42
-16.81
-21.12
-26.55
-32.9
-39.49
-45.18
-48.67
-48.97
-45.72
-39.38
-31.01
-21.9
-13.1
-5.09
2.17
9.01
15.69
22.06
27.64
31.74
33.75
33.44
31.0
26.95
21.96
16.57
11.2
6.14
1.69
-1.79
-3.84
-4.03
-2.03
2.18
8.36
16.02
24.48
32.99
40.8
47.29
51.95
54.52
55.03
53.78
51.35
48.53
46.18
45.03
45.5
47.51
50.52
53.68
56.16
57.58
58.19
58.92
60.92
64.92
70.6
76.42
79.79
77.86
68.51
51.04
26.52
-2.5
-32.43
-59.48
-80.22
-92.17
-94.17
-86.66
-71.58
-52.0
-31.38
-12.75
1.81
11.52
16.63
18.04
16.86
14.07
10.46
6.67
3.22
0.58
-0.96
-1.41
-1.05
-0.38
0.05
-0.2
-1.31
-3.26
-5.95
-9.27
-13.13
-17.47
-22.12
-26.87
-31.51
-36.01
-40.45
-45.06
-49.96
-55.06
-60.13
-64.79
-68.59
-71.04
-71.62
-69.82
-65.39
-58.44
-49.67
-40.19
-31.28
-23.97
-18.73
-15.47
-13.69
-12.76
-12.11
-11.3
-10.1
-8.34
-6.1
-3.76
-1.94
-1.36
-2.38
-4.74
-7.55
-9.88
-11.4
-12.82
-15.51
-20.46
-27.5
-35.07
-41.01
-43.82
-43.49
-41.39
-39.37
-38.5
-38.7
-39.2
-39.6
-40.56
-43.54
-49.64
-58.52
-68.03
-75.09
-77.16
-73.43
-65.14
-54.72
-44.57
-35.87
-28.34
-20.79
-12.08
-1.98
8.69
18.57
26.48
31.91
35.1
36.75
37.69
38.72
40.49
43.44
47.66
52.69
57.52
60.87
61.59
59.18
53.93
46.69
38.36
29.58
20.65
11.76
3.29
-4.12
-9.78
-13.38
-15.24
-16.29
-17.76
-20.68
-25.52
-31.92
-38.84
-44.82
-48.52
-49.08
-46.4
-41.12
-34.3
-27.06
-20.14
-13.72
-7.54
-1.24
5.37
12.05
18.23
23.28
26.76
28.73
29.52
29.65
29.58
29.48
29.29
28.87
28.06
26.9
25.57
24.32
23.29
22.48
21.72
20.77
19.39
17.44
14.94
11.99
8.79
5.51
2.33
-0.67
-3.53
-6.38
-9.36
-12.68
-16.51
-20.96
-26.03
-31.45
-36.67
-40.79
-42.89
-42.26
-38.72
-32.73
-25.22
-17.25
-9.67
-2.91
3.02
8.3
13.09
17.45
21.32
24.57
27.1
28.91
29.98
30.36
30.13
29.32
28.03
26.37
24.51
22.61
20.81
19.18
17.71
16.26
14.71
13.01
11.18
9.37
7.66
6.12
4.59
2.8
0.51
-2.39
-5.79
-9.43
-12.98
-16.26
-19.25
-22.12
-25.13
-28.4
-31.84
-35.05
-37.38
-38.04
-36.33
-31.9
-24.75
-15.43
-4.75
6.38
17.17
27.21
36.47
45.18
53.62
61.91
69.83
76.91
82.57
86.34
88.1
88.08
86.67
84.27
81.11
77.23
72.64
67.42
61.86
56.42
51.49
47.13
42.97
38.3
32.41
24.89
15.87
5.94
-4.06
-13.47
-21.98
-29.6
-36.54
-42.94
-48.85
-54.27
-59.36
-64.48
-70.02
-76.11
-82.38
-88.03
-92.07
-93.71
-92.73
-89.45
-84.57
-78.73
-72.31
-65.42
-58.09
-50.45
-42.83
-35.62
-29.02
-22.95
-17.02
-10.79
-4.05
3.05
10.06
16.45
21.78
25.87
28.71
30.35
30.79
29.95
27.73
24.16
19.45
13.98
8.21
2.53
-2.88
-7.98
-12.86
-17.55
-21.96
-25.82
-28.84
-30.87
-32.08
-32.93
-34.07
-36.04
-39.01
-42.62
-46.08
-48.45
-48.93
-47.22
-43.45
-38.18
-32.04
-25.6
-19.19
-13.01
-7.14
-1.62
3.44
8.05
12.25
16.12
19.73
23.1
26.14
28.69
30.63
31.83
32.28
32.03
31.21
29.97
28.48
26.87
25.2
23.5
21.76
20.05
18.4
16.83
15.3
13.65
11.74
9.47
6.86
4.07
1.35
-1.07
-3.09
-4.78
-6.31
-7.93
-9.84
-12.12
-14.62
-16.97
-18.57
-18.75
-16.93
-12.87
-6.77
0.79
9.09
17.4
25.32
32.64
39.33
45.34
50.56
54.86
58.18
60.57
62.25
63.52
64.64
65.74
66.78
67.54
67.7
66.91
64.89
61.5
56.81
51.01
44.4
37.34
30.05
22.75
15.58
8.67
2.2
-3.58
-8.44
-12.28
-15.18
-17.49
-19.67
-22.2
-25.38
-29.29
-33.7
-38.24
-42.44
-45.96
-48.64
-50.5
-51.75
-52.57
-53.01
-52.99
-52.19
-50.33
-47.3
-43.23
-38.49
-33.58
-28.93
-24.79
-21.19
-18.05
-15.27
-12.83
-10.78
-9.19
-8.03
-7.13
-6.13
-4.64
-2.37
0.68
4.18
7.55
10.18
11.61
11.7
10.58
8.52
5.7
2.03
-2.81
-9.2
-17.45
-27.53
-39.04
-51.32
-63.63
-75.36
-86.23
-96.34
-106.06
-115.93
-126.43
-137.76
-149.75
-161.82
-173.11
-182.8
-190.38
-195.79
-199.41
-201.79
-203.37
-204.17
-203.77
-201.3
-195.74
-186.1
-171.54
-151.53
-125.8
-94.52
-58.28
-18.14
24.32
67.17
108.27
145.57
177.34
202.52
220.76
232.36
238.06
238.8
235.46
228.83
219.52
208.21
195.58
182.26
168.8
155.55
142.59
129.85
117.24
104.67
92.11
79.49
66.68
53.48
39.78
25.77
11.99
-0.65
-11.08
-18.36
-21.89
-21.6
-17.87
-11.34
-2.78
7.12
17.75
28.49
38.72
47.86
55.43
61.23
65.39
68.21
70.08
71.22
71.58
70.91
68.97
65.65
61.16
55.98
50.72
45.88
41.72
38.15
34.81
31.21
26.9
21.62
15.37
8.39
1.1
-6.0
-12.39
-17.66
-21.59
-24.2
-25.77
-26.83
-27.97
-29.59
-31.85
-34.45
-36.77
-37.98
-37.35
-34.39
-29.07
-21.84
-13.45
-4.88
2.93
9.25
13.61
15.91
16.36
15.33
13.3
10.73
7.95
5.2
2.58
0.2
-1.89
-3.62
-4.98
-6.06
-7.09
-8.37
-10.17
-12.54
-15.22
-17.6
-18.8
-17.95
-14.37
-7.85
1.36
12.6
24.86
37.08
48.28
57.76
65.08
70.08
72.76
73.17
71.34
67.37
61.49
54.18
46.19
38.34
31.37
25.65
21.09
17.27
13.57
9.49
4.74
-0.69
-6.62
-12.82
-18.97
-24.75
-29.77
-33.67
-36.17
-37.21
-36.96
-35.72
-33.87
-31.69
-29.33
-26.85
-24.26
-21.63
-19.03
-16.55
-14.31
-12.51
-11.35
-11.02
-11.59
-13.05
-15.21
-17.85
-20.7
-23.56
-26.26
-28.64
-30.61
-32.07
-32.99
-33.48
-33.7
-33.81
-33.9
-33.86
-33.43
-32.29
-30.19
-27.15
-23.42
-19.37
-15.25
-10.96
-6.14
-0.34
6.61
14.39
22.14
28.84
33.68
36.37
37.26
37.07
36.51
36.09
35.92
35.9
35.79
35.43
34.72
33.54
31.76
29.19
25.76
21.51
16.7
11.8
7.27
3.43
0.36
-2.16
-4.53
-7.15
-10.19
-13.56
-16.89
-19.75
-21.86
-23.28
-24.36
-25.56
-27.24
-29.52
-32.25
-35.18
-38.05
-40.75
-43.24
-45.54
-47.61
-49.43
-50.99
-52.28
-53.26
-53.71
-53.17
-50.91
-46.21
-38.64
-28.3
-15.93
-2.76
9.79
20.49
28.47
33.38
35.3
34.62
32.0
28.35
24.69
21.98
20.94
21.83
24.47
28.34
32.76
37.05
40.67
43.24
44.59
44.74
43.89
42.38
40.61
38.88
37.37
36.15
35.26
34.71
34.57
34.75
35.01
34.82
33.57
30.75
26.17
20.07
13.09
6.05
-0.3
-5.57
-9.83
-13.69
-18.05
-23.87
-31.69
-41.41
-52.12
-62.4
-70.77
-76.1
-77.94
-76.45
-72.13
-65.63
-57.52
-48.33
-38.59
-28.9
-19.84
-11.8
-4.94
0.97
6.37
11.74
17.47
23.78
30.65
37.93
45.36
52.72
59.91
66.88
73.58
79.82
85.2
89.28
91.75
92.62
92.26
91.24
90.1
89.03
87.88
86.16
83.37
79.2
73.62
66.85
59.25
51.23
43.06
34.88
26.61
18.01
8.75
-1.36
-12.26
-23.55
-34.52
-44.32
-52.25
-57.92
-61.35
-62.8
-62.74
-61.65
-60.04
-58.43
-57.4
-57.46
-59.0
-62.11
-66.61
-72.19
-78.42
-84.81
-90.66
-94.93
-96.24
-93.18
-84.87
-71.35
-53.73
-33.92
-13.93
4.58
20.57
33.46
42.85
48.35
49.71
47.14
41.5
34.27
27.0
20.84
16.17
12.62
9.46
6.1
2.49
-0.79
-2.76
-2.49
0.49
5.85
12.51
18.85
23.16
24.1
21.03
14.33
5.21
-4.49
-12.8
-18.16
-19.78
-17.83
-13.37
-7.98
-3.23
-0.11
1.31
1.87
2.57
3.84
4.85
3.68
-1.7
-12.13
-26.42
-41.56
-54.01
-61.14
-62.05
-57.38
-48.25
-35.42
-19.23
-0.43
18.96
35.47
45.14
45.39
36.38
21.41
5.84
-4.74
-6.48
1.59
17.57
37.61
57.22
72.57
81.4
83.3
79.62
72.81
65.51
59.8
56.55
55.49
55.71
56.49
57.66
59.56
62.44
65.71
67.76
66.44
59.99
48.05
31.79
13.45
-4.74
-21.44
-36.34
-49.76
-62.07
-73.24
-82.95
-90.97
-97.49
-103.11
-108.54
-114.08
-119.2
-122.45
-121.67
-114.51
-99.19
-75.14
-43.59
-7.65
28.17
58.84
79.96
88.84
85.05
70.31
47.97
21.98
-3.92
-26.75
-44.68
-57.01
-64.03
-66.82
-66.89
-65.74
-64.55
-63.93
-63.86
-63.84
-63.1
-60.91
-56.88
-51.13
-44.33
-37.54
-31.9
-28.31
-27.22
-28.55
-31.86
-36.7
-42.77
-49.89
-57.65
-65.2
-71.01
-73.3
-70.56
-62.13
-48.43
-30.8
-10.94
9.43
28.82
45.92
59.38
67.96
70.91
68.39
61.72
53.05
44.68
38.19
34.01
31.53
29.61
27.26
24.01
19.99
15.76
12.06
9.6
8.89
10.14
13.13
17.15
21.32
24.73
26.87
27.94
28.87
31.07
35.95
44.23
55.45
67.8
78.41
84.42
84.21
78.38
69.73
62.35
59.79
63.62
72.79
84.06
93.33
97.12
93.55
82.58
65.84
46.26
27.57
13.65
7.41
9.8
19.08
31.05
40.5
42.8
35.41
18.47
-5.73
-33.86
-62.56
-89.17
-111.74
-128.87
-139.62
-143.66
-141.43
-134.2
-123.75
-111.85
-99.94
-88.99
-79.54
-71.93
-66.57
-63.95
-64.42
-68.0
-74.15
-81.77
-89.37
-95.38
-98.54
-98.17
-94.38
-88.06
-80.67
-73.67
-68.05
-63.89
-60.41
-56.39
-50.79
-43.24
-34.2
-24.81
-16.38
-10.07
-6.48
-5.69
-7.26
-10.54
-14.75
-19.09
-22.81
-25.18
-25.52
-23.39
-18.73
-12.05
-4.41
2.85
8.56
12.0
13.14
12.5
10.82
8.91
7.44
6.97
7.9
10.48
14.67
20.23
26.73
33.67
40.55
46.79
51.85
55.15
56.33
55.31
52.41
48.22
43.35
38.31
33.34
28.5
23.74
19.02
14.24
9.3
4.06
-1.57
-7.63
-14.01
-20.49
-26.76
-32.6
-37.97
-43.01
-47.93
-52.74
-57.06
-60.15
-61.13
-59.43
-55.1
-48.85
-41.95
-35.69
-30.98
-28.1
-26.81
-26.47
-26.13
-24.58
-20.52
-12.82
-1.13
13.77
29.9
44.78
56.22
63.21
66.17
66.59
66.2
66.22
67.05
68.44
69.95
71.31
72.46
73.26
73.39
72.21
69.12
63.83
56.51
47.76
38.41
29.1
20.19
11.75
3.73
-3.86
-10.88
-17.12
-22.43
-26.9
-30.91
-35.11
-40.22
-46.84
-55.01
-64.07
-72.66
-79.06
-81.74
-80.02
-74.29
-65.87
-56.49
-47.59
-39.8
-33.01
-26.62
-20.08
-13.31
-6.65
-0.59
4.48
8.53
11.86
14.81
17.51
19.84
21.53
22.41
22.56
22.34
22.26
22.7
23.62
24.59
24.96
24.19
22.07
18.94
15.46
12.28
9.84
8.06
6.52
4.69
2.15
-1.2
-5.12
-9.22
-13.1
-16.49
-19.37
-21.89
-24.37
-27.26
-31.08
-36.21
-42.71
-50.09
-57.24
-62.67
-64.86
-62.81
-56.4
-46.35
-33.99
-20.85
-8.14
3.37
13.36
21.76
28.66
34.17
38.43
41.62
44.0
45.75
47.05
47.94
48.48
48.65
48.46
47.94
47.11
46.01
44.64
43.08
41.38
39.63
37.94
36.31
34.73
33.02
30.92
28.11
24.39
19.7
14.3
8.65
3.3
-1.32
-5.06
-8.12
-11.03
-14.41
-18.84
-24.62
-31.62
-39.22
-46.25
-51.35
-53.17
-50.87
-44.45
-34.72
-23.13
-11.18
-0.08
9.62
17.91
25.05
31.26
36.51
40.6
43.32
44.75
45.23
45.37
45.72
46.63
48.06
49.66
50.91
51.25
50.33
48.05
44.61
40.42
35.94
31.48
27.17
22.89
18.45
13.72
8.81
4.03
-0.21
-3.69
-6.44
-8.77
-11.21
-14.37
-18.69
-24.37
-31.22
-38.58
-45.35
-50.18
-51.86
-49.66
-43.6
-34.39
-23.19
-11.31
0.25
10.81
20.05
27.86
34.26
39.33
43.12
45.79
47.46
48.26
48.3
47.73
46.75
45.56
44.35
43.21
42.1
40.87
39.4
37.58
35.39
32.89
30.2
27.39
24.46
21.37
18.04
14.37
10.31
5.9
1.28
-3.37
-7.88
-12.12
-16.07
-19.79
-23.51
-27.5
-32.12
-37.62
-43.93
-50.44
-56.06
-59.39
-59.21
-54.93
-46.9
-36.23
-24.46
-12.98
-2.71
6.01
13.29
19.25
24.04
27.67
30.17
31.7
32.58
33.18
33.74
34.3
34.68
34.64
34.02
32.91
31.5
30.05
28.72
27.44
25.99
24.14
21.7
18.6
14.64
9.54
3.09
-4.64
-12.98
-20.75
-26.67
-29.87
-30.35
-28.96
-27.01
-25.63
-25.43
-26.37
-28.18
-30.64
-33.74
-37.35
-40.89
-43.19
-42.67
-37.94
-28.42
-14.58
2.14
19.78
36.52
51.12
63.11
72.73
80.62
87.55
94.1
100.52
106.62
111.85
115.39
116.44
114.41
109.16
100.88
90.15
77.74
64.48
51.24
38.76
27.63
18.25
10.66
4.61
-0.36
-4.75
-8.97
-13.21
-17.46
-21.55
-25.29
-28.56
-31.25
-33.37
-34.93
-35.98
-36.57
-36.72
-36.3
-35.02
-32.39
-27.83
-20.91
-11.46
0.18
13.28
26.82
39.68
50.93
60.02
66.89
71.84
75.4
77.99
79.81
80.68
80.24
78.16
74.37
69.05
62.61
55.45
47.87
40.1
32.4
25.16
18.9
14.18
11.34
10.39
10.93
12.26
13.56
14.1
13.36
11.14
7.48
2.55
-3.4
-10.07
-17.12
-24.19
-30.84
-36.68
-41.49
-45.32
-48.37
-50.86
-52.78
-53.75
-53.13
-50.34
-45.18
-38.05
-29.87
-21.77
-14.72
-9.27
-5.52
-3.29
-2.28
-2.23
-2.9
-3.97
-5.01
-5.53
-5.11
-3.56
-1.05
1.98
4.81
6.82
7.56
6.97
5.26
2.86
0.25
-2.21
-4.34
-6.06
-7.4
-8.36
-9.0
-9.42
-9.8
-10.3
-11.1
-12.28
-13.91
-16.05
-18.75
-22.08
-26.0
-30.43
-35.1
-39.7
-43.75
-46.75
-48.11
-47.43
-44.54
-39.69
-33.5
-26.84
-20.56
-15.27
-11.26
-8.48
-6.7
-5.57
-4.77
-4.0
-3.03
-1.81
-0.42
0.94
2.05
2.71
2.89
2.62
2.01
1.18
0.22
-0.84
-1.97
-3.15
-4.3
-5.27
-5.87
-5.97
-5.55
-4.85
-4.2
-4.01
-4.51
-5.71
-7.45
-9.46
-11.53
-13.55
-15.49
-17.33
-19.06
-20.69
-22.31
-24.0
-25.78
-27.47
-28.58
-28.55
-26.87
-23.35
-18.28
-12.25
-5.99
-0.14
4.95
9.1
12.26
14.38
15.37
15.23
14.11
12.35
10.4
8.61
7.16
5.96
4.81
3.54
2.2
0.99
0.19
-0.1
-0.06
-0.06
-0.49
-1.52
-3.0
-4.55
-5.8
-6.56
-6.98
-7.4
-8.17
-9.44
-11.12
-12.92
-14.5
-15.57
-16.04
-15.97
-15.56
-15.06
-14.68
-14.58
-14.87
-15.65
-16.97
-18.77
-20.8
-22.66
-23.78
-23.64
-21.92
-18.66
-14.24
-9.27
-4.4
-0.19
3.03
5.13
6.06
5.91
4.85
3.21
1.37
-0.22
-1.26
-1.66
-1.59
-1.39
-1.41
-1.91
-2.99
-4.6
-6.64
-8.93
-11.27
-13.48
-15.42
-17.15
-18.82
-20.72
-23.07
-25.94
-29.21
-32.68
-36.23
-39.87
-43.79
-48.12
-52.87
-57.87
-62.79
-67.48
-72.06
-76.94
-82.6
-89.32
-96.84
-104.43
-111.06
-115.95
-118.94
-120.56
-121.9
-124.08
-127.79
-132.99
-138.91
-144.26
-147.54
-147.32
-142.42
-132.08
-116.33
-96.27
-73.95
-51.91
-32.23
-15.75
-1.88
11.04
24.62
39.7
55.97
72.35
87.71
101.45
113.65
124.72
134.78
143.3
149.15
151.08
148.31
140.98
130.23
117.88
105.76
95.01
85.68
76.8
66.85
54.55
39.38
21.9
3.61
-13.44
-27.11
-35.7
-38.24
-34.72
-26.06
-13.83
0.17
14.35
27.5
38.85
47.92
54.42
58.15
59.07
57.35
53.38
47.77
41.23
34.44
27.92
22.03
16.85
12.42
8.69
5.76
3.73
2.65
2.34
2.36
2.19
1.32
-0.4
-2.76
-5.26
-7.4
-8.89
-9.75
-10.26
-10.78
-11.59
-12.89
-14.82
-17.48
-20.85
-24.73
-28.61
-31.71
-33.17
-32.34
-28.94
-23.14
-15.45
-6.57
2.83
12.09
20.71
28.22
34.26
38.63
41.25
42.22
41.81
40.34
38.16
35.58
32.89
30.26
27.91
26.0
24.75
24.29
24.64
25.65
26.97
28.18
28.88
28.84
27.96
26.28
23.87
20.79
17.13
13.13
9.29
6.26
4.69
5.02
7.19
10.67
14.57
17.9
19.81
19.7
17.32
12.79
6.44
-1.18
-9.41
-17.56
-25.08
-31.54
-36.69
-40.38
-42.47
-42.79
-41.18
-37.56
-32.09
-25.11
-17.13
-8.7
-0.3
7.74
15.2
21.87
27.6
32.31
36.02
38.97
41.56
44.22
47.13
50.21
52.97
54.79
55.02
53.34
49.84
45.05
39.75
34.94
31.48
29.96
30.46
32.39
34.6
35.59
34.02
29.17
21.28
11.39
0.93
-8.8
-17.11
-23.95
-29.67
-34.66
-39.12
-43.08
-46.52
-49.56
-52.3
-54.7
-56.41
-56.65
-54.48
-49.1
-40.21
-28.24
-14.24
0.25
13.65
24.73
32.92
38.46
42.14
44.94
47.52
50.02
52.0
52.8
51.91
49.27
45.34
40.89
36.63
32.96
29.78
26.55
22.5
17.03
10.01
1.98
-5.89
-12.17
-15.7
-16.3
-15.01
-14.06
-16.16
-23.42
-36.23
-52.93
-70.14
-84.13
-92.12
-93.38
-89.11
-81.68
-73.57
-66.52
-61.23
-57.46
-54.1
-49.37
-41.18
-27.99
-10.01
10.03
27.24
36.37
34.28
21.86
4.15
-11.46
-18.2
-12.59
4.44
28.29
53.05
73.87
88.44
97.03
101.42
103.34
103.56
101.85
97.7
91.1
82.92
74.53
66.94
60.29
53.78
46.39
37.64
28.04
18.82
11.29
6.14
3.17
1.4
-0.57
-4.14
-10.21
-19.07
-30.21
-42.59
-54.92
-66.01
-75.13
-82.02
-86.69
-89.31
-90.02
-88.89
-85.99
-81.51
-75.74
-69.09
-62.1
-55.4
-49.58
-45.09
-42.04
-40.07
-38.48
-36.49
-33.57
-29.66
-25.21
-20.92
-17.51
-15.39
-14.55
-14.62
-15.07
-15.49
-15.68
-15.75
-15.9
-16.33
-17.07
-18.03
-19.06
-20.07
-21.17
-22.63
-24.77
-27.83
-31.72
-36.08
-40.16
-43.12
-44.26
-43.19
-39.96
-35.03
-28.98
-22.34
-15.49
-8.58
-1.74
4.83
10.8
15.79
19.52
21.95
23.34
24.14
24.81
25.65
26.66
27.7
28.6
29.29
29.79
30.15
30.3
29.9
28.54
25.86
21.89
17.02
11.94
7.34
3.65
0.79
-1.66
-4.33
-7.79
-12.32
-17.98
-24.54
-31.47
-37.98
-43.01
-45.48
-44.6
-40.22
-32.84
-23.41
-12.89
-1.87
9.46
21.13
32.9
44.17
53.88
60.94
64.57
64.57
61.26
55.24
47.11
37.31
26.18
14.13
1.86
-9.62
-19.17
-25.81
-29.04
-29.11
-27.0
-24.13
-21.95
-21.45
-22.91
-25.79
-29.13
-31.85
-33.19
-32.97
-31.61
-29.85
-28.53
-28.23
-29.14
-31.04
-33.25
-34.87
-34.97
-32.8
-28.1
-21.22
-13.0
-4.55
3.03
9.05
13.22
15.7
16.8
16.85
16.08
14.69
12.82
10.63
8.33
6.09
4.07
2.3
0.67
-1.14
-3.5
-6.74
-10.95
-15.83
-20.78
-25.08
-28.22
-30.09
-31.1
-31.91
-33.2
-35.37
-38.48
-42.24
-46.06
-49.11
-50.31
-48.64
-43.47
-34.92
-24.06
-12.54
-2.02
6.5
13.08
18.53
23.88
29.76
36.11
42.32
47.62
51.35
53.15
52.88
50.42
45.77
39.13
30.95
21.96
13.02
4.95
-1.65
-6.52
-9.72
-11.6
-12.73
-13.64
-14.76
-16.26
-18.06
-19.93
-21.69
-23.2
-24.55
-25.94
-27.73
-30.32
-34.03
-38.99
-44.94
-51.11
-56.32
-59.29
-59.0
-55.04
-47.73
-37.99
-27.0
-15.77
-4.98
5.09
14.44
23.14
31.21
38.57
45.1
50.71
55.39
59.21
62.29
64.68
66.42
67.48
67.94
68.05
68.21
68.87
70.31
72.47
74.9
77.04
78.4
78.88
78.78
78.63
78.84
79.52
80.35
80.68
79.82
77.31
72.98
67.06
60.1
52.93
46.53
41.92
39.86
40.62
43.79
48.38
53.02
56.41
57.63
56.21
52.05
45.11
35.4
22.95
8.1
-8.29
-24.87
-40.09
-52.7
-62.05
-68.37
-72.49
-75.61
-78.81
-82.69
-87.33
-92.26
-96.65
-99.6
-100.51
-99.25
-96.3
-92.58
-89.16
-86.9
-86.14
-86.65
-87.61
-87.83
-85.88
-80.45
-70.78
-57.06
-40.84
-24.67
-11.5
-3.65
-1.89
-5.09
-10.69
-15.66
-17.58
-15.4
-9.52
-1.27
7.75
16.31
23.84
30.38
36.37
42.44
49.12
56.79
65.47
74.81
84.11
92.45
98.94
102.96
104.2
102.68
98.65
92.5
84.73
76.02
67.06
58.48
50.62
43.46
36.67
29.9
22.95
15.93
9.19
3.11
-2.13
-6.58
-10.51
-14.25
-17.99
-21.76
-25.47
-28.94
-32.1
-35.01
-37.9
-41.13
-45.09
-49.93
-55.41
-60.76
-64.83
-66.41
-64.62
-59.3
-51.08
-41.24
-31.23
-22.24
-14.78
-8.79
-3.78
0.68
4.77
8.32
11.04
12.77
13.61
13.95
14.14
14.39
14.63
14.6
14.18
13.51
13.02
13.19
14.3
16.24
18.57
20.74
22.36
23.34
23.92
24.44
25.12
25.97
26.71
26.98
26.51
25.24
23.31
20.98
18.49
16.0
13.52
11.02
8.46
5.88
3.42
1.17
-0.79
-2.5
-4.07
-5.58
-7.02
-8.2
-8.9
-8.92
-8.19
-6.86
-5.15
-3.31
-1.52
0.14
1.64
2.95
4.04
4.92
5.61
6.15
6.58
6.92
7.22
7.51
7.85
8.3
8.93
9.74
10.73
11.84
13.01
14.09
14.95
15.43
15.48
15.15
14.6
13.99
13.41
12.79
12.03
11.01
9.77
8.52
7.52
7.0
6.98
7.31
7.67
7.75
7.38
6.59
5.55
4.52
3.69
3.14
2.82
2.61
2.4
2.15
1.84
1.44
0.93
0.3
-0.4
-1.03
-1.42
-1.41
-0.93
-0.01
1.29
2.87
4.6
6.34
7.88
9.02
9.62
9.71
9.41
8.95
8.51
8.19
7.98
7.82
7.64
7.44
7.18
6.84
6.41
5.86
5.24
4.62
4.05
3.56
3.11
2.64
2.09
1.48
0.84
0.2
-0.37
-0.86
-1.25
-1.48
-1.52
-1.38
-1.14
-0.94
-0.92
-1.13
-1.54
-2.07
-2.67
-3.35
-4.2
-5.33
-6.81
-8.59
-10.54
-12.41
-13.96
-14.99
-15.4
-15.19
-14.52
-13.53
-12.39
-11.21
-10.01
-8.81
-7.63
-6.55
-5.63
-4.91
-4.35
-3.87
-3.34
-2.64
-1.74
-0.68
0.44
1.49
2.33
2.85
2.99
2.74
2.21
1.54
0.91
0.42
0.07
-0.19
-0.47
-0.81
-1.22
-1.68
-2.17
-2.7
-3.34
-4.17
-5.19
-6.37
-7.58
-8.68
-9.51
-9.93
-9.87
-9.39
-8.7
-8.04
-7.63
-7.57
-7.75
-7.94
-7.88
-7.41
-6.51
-5.31
-3.97
-2.56
-1.1
0.48
2.19
3.98
5.73
7.28
8.58
9.63
10.5
11.31
12.11
12.87
13.48
13.81
13.77
13.36
12.71
12.01
11.41
10.99
10.67
10.34
9.88
9.25
8.5
7.73
6.96
6.09
4.93
3.35
1.32
-0.96
-3.24
-5.29
-7.01
-8.47
-9.76
-10.92
-11.93
-12.7
-13.19
-13.44
-13.54
-13.51
-13.29
-12.69
-11.55
-9.88
-7.92
-6.0
-4.48
-3.48
-2.88
-2.39
-1.74
-0.86
0.05
0.52
0.18
-1.2
-3.51
-6.31
-9.09
-11.35
-12.83
-13.46
-13.38
-12.83
-12.13
-11.57
-11.39
-11.75
-12.63
-13.83
-15.04
-15.94
-16.41
-16.47
-16.36
-16.32
-16.52
-17.01
-17.76
-18.72
-19.87
-21.26
-22.95
-25.05
-27.66
-30.96
-35.04
-39.86
-45.11
-50.12
-54.0
-55.85
-55.05
-51.49
-45.58
-38.08
-29.85
-21.67
-14.04
-7.27
-1.48
3.25
6.92
9.52
11.08
11.79
11.84
11.51
11.01
10.54
10.2
10.09
10.3
10.81
11.53
12.27
12.77
12.81
12.28
11.23
9.79
8.07
6.02
3.44
0.11
-4.07
-8.96
-14.16
-19.22
-23.72
-27.53
-30.69
-33.47
-36.17
-39.08
-42.43
-46.33
-50.72
-55.27
-59.35
-62.06
-62.5
-60.04
-54.61
-46.82
-37.74
-28.55
-20.11
-12.74
-6.21
-0.08
5.97
11.95
17.55
22.4
26.26
29.14
31.23
32.76
33.88
34.68
35.29
35.86
36.54
37.23
37.43
36.26
32.85
26.77
18.59
9.98
3.28
0.63
3.1
10.14
19.84
29.8
38.16
44.17
48.11
50.48
51.27
49.61
44.15
33.87
18.67
-0.43
-21.59
-42.5
-60.41
-72.06
-74.1
-64.05
-41.84
-10.79
22.67
50.88
67.72
70.69
61.55
45.13
27.24
12.75
4.51
3.33
8.1
16.2
23.98
27.53
23.92
12.41
-5.15
-25.0
-42.93
-55.91
-62.92
-64.64
-62.61
-58.32
-52.78
-46.67
-40.67
-35.46
-31.66
-29.45
-28.43
-27.92
-27.37
-26.62
-25.98
-26.04
-27.23
-29.61
-32.76
-36.02
-38.79
-40.8
-42.28
-43.87
-46.35
-50.22
-55.35
-60.88
-65.36
-67.19
-65.15
-58.84
-48.82
-36.42
-23.23
-10.61
0.66
10.37
18.63
25.61
31.23
35.2
37.17
37.07
35.22
32.36
29.37
27.0
25.59
25.01
24.74
24.18
22.86
20.6
17.54
13.99
10.17
6.12
1.58
-3.83
-10.4
-18.09
-26.52
-35.04
-43.05
-50.29
-56.93
-63.43
-70.35
-78.1
-86.92
-96.9
-108.01
-119.91
-131.66
-141.6
-147.59
-147.73
-141.08
-128.11
-110.4
-89.85
-67.93
-45.25
-21.9
1.97
25.67
48.08
68.09
85.28
100.06
113.42
126.14
138.39
149.55
158.72
165.24
169.11
170.93
171.51
171.44
170.77
168.98
165.39
159.54
151.5
141.83
131.42
121.02
111.1
101.8
93.05
84.81
77.13
70.16
64.02
58.71
54.05
49.68
45.16
40.08
34.29
27.96
21.67
16.42
13.32
13.31
16.75
23.31
31.98
41.45
50.47
58.21
64.3
68.76
71.65
72.9
72.31
69.74
65.42
60.01
54.48
49.78
46.38
44.15
42.45
40.5
37.83
34.49
30.98
27.97
25.82
24.38
23.02
20.93
17.47
12.47
6.28
-0.4
-6.85
-12.58
-17.51
-21.83
-25.87
-29.88
-33.89
-37.75
-41.23
-44.14
-46.5
-48.58
-50.88
-53.99
-58.46
-64.5
-71.77
-79.29
-85.55
-88.8
-87.62
-81.34
-70.3
-55.78
-39.71
-24.22
-11.09
-1.31
5.12
9.16
12.32
16.13
21.43
28.13
35.22
41.25
45.01
46.03
44.72
42.11
39.3
37.04
35.55
34.63
33.91
33.16
32.32
31.42
30.41
29.06
26.96
23.75
19.34
14.12
8.85
4.4
1.34
-0.28
-0.93
-1.32
-2.07
-3.45
-5.3
-7.31
-9.14
-10.73
-12.25
-14.11
-16.76
-20.53
-25.59
-31.82
-38.86
-45.97
-52.27
-56.72
-58.47
-57.07
-52.65
-45.88
-37.75
-29.3
-21.27
-14.06
-7.73
-2.2
2.56
6.44
9.25
10.92
11.52
11.37
10.87
10.37
10.06
9.97
10.0
10.02
9.98
9.83
9.58
9.3
8.93
8.48
7.86
6.99
5.8
4.2
2.17
-0.27
-3.15
-6.34
-9.73
-13.17
-16.5
-19.59
-22.45
-25.16
-27.96
-31.12
-34.92
-39.53
-44.9
-50.67
-56.14
-60.34
-62.32
-61.42
-57.57
-51.33
-43.71
-35.87
-28.74
-22.75
-17.88
-13.85
-10.36
-7.32
-4.85
-3.17
-2.44
-2.61
-3.5
-4.81
-6.36
-8.13
-10.22
-12.8
-15.98
-19.68
-23.66
-27.56
-30.98
-33.65
-35.44
-36.49
-37.08
-37.6
-38.32
-39.49
-41.17
-43.44
-46.32
-49.87
-54.1
-58.96
-64.28
-69.83
-75.22
-80.0
-83.65
-85.68
-85.7
-83.41
-78.6
-71.05
-60.53
-47.03
-30.84
-12.75
6.02
24.1
40.33
53.94
64.62
72.39
77.46
80.18
81.12
81.05
80.85
81.29
82.69
84.82
87.01
88.44
88.41
86.48
82.56
76.79
69.38
60.7
51.18
41.28
31.47
22.18
13.71
6.22
-0.19
-5.52
-9.83
-13.33
-16.29
-19.05
-21.89
-25.02
-28.42
-31.89
-35.05
-37.41
-38.43
-37.69
-34.98
-30.39
-24.38
-17.62
-10.84
-4.63
0.76
5.29
9.07
12.25
14.86
16.91
18.41
19.46
20.2
20.75
21.16
21.35
21.18
20.61
19.71
18.73
17.87
17.27
16.9
16.59
16.14
15.44
14.41
13.08
11.47
9.59
7.41
4.94
2.22
-0.68
-3.67
-6.72
-9.8
-12.82
-15.69
-18.32
-20.69
-23.01
-25.57
-28.61
-32.09
-35.53
-38.1
-38.87
-37.14
-32.8
-26.38
-18.84
-11.28
-4.48
1.19
5.83
9.78
13.35
16.65
19.56
21.84
23.3
23.88
23.73
23.15
22.38
21.63
20.91
20.11
19.15
17.96
16.63
15.31
14.16
13.21
12.39
11.51
10.44
9.14
7.73
6.38
5.24
4.27
3.25
1.95
0.18
-2.05
-4.63
-7.44
-10.38
-13.55
-17.07
-21.02
-25.22
-29.23
-32.32
-33.74
-32.96
-29.88
-24.82
-18.44
-11.49
-4.61
1.72
7.25
11.8
15.28
17.63
18.88
19.19
18.83
18.14
17.36
16.65
16.06
15.58
15.22
15.01
15.04
15.34
15.86
16.45
16.9
17.02
16.63
15.68
14.12
11.99
9.36
6.39
3.32
0.32
-2.52
-5.21
-7.86
-10.54
-13.19
-15.62
-17.68
-19.35
-20.8
-22.35
-24.37
-27.08
-30.46
-34.25
-37.97
-41.01
-42.71
-42.54
-40.21
-35.77
-29.61
-22.42
-14.95
-7.84
-1.53
3.83
8.25
11.83
14.74
17.07
18.95
20.47
21.7
22.69
23.46
23.95
24.16
24.04
23.64
23.06
22.48
22.05
21.87
21.91
21.99
21.83
21.13
19.7
17.51
14.75
11.76
8.85
6.29
4.13
2.23
0.39
-1.58
-3.71
-5.93
-8.08
-10.02
-11.67
-13.18
-14.73
-16.61
-19.07
-22.27
-26.15
-30.43
-34.46
-37.4
-38.43
-36.98
-33.0
-27.01
-19.95
-12.85
-6.47
-1.2
3.04
6.55
9.61
12.37
14.75
16.57
17.77
18.44
18.88
19.38
20.14
21.14
22.22
23.16
23.84
24.2
24.33
24.27
24.0
23.45
22.57
21.36
19.88
18.25
16.56
14.88
13.24
11.65
10.19
8.88
7.74
6.7
5.68
4.53
3.15
1.45
-0.59
-2.94
-5.48
-8.06
-10.55
-12.93
-15.29
-17.85
-20.9
-24.64
-29.05
-33.83
-38.37
-41.88
-43.55
-42.88
-39.79
-34.7
-28.37
-21.68
-15.39
-9.9
-5.27
-1.33
2.16
5.32
8.12
10.44
12.12
13.09
13.48
13.55
13.62
13.97
14.64
15.48
16.2
16.53
16.42
16.04
15.64
15.44
15.44
15.4
15.04
14.21
13.04
11.88
11.05
10.62
10.35
9.76
8.44
6.24
3.42
0.47
-2.15
-4.28
-6.14
-8.22
-11.01
-14.78
-19.51
-24.9
-30.46
-35.62
-39.75
-42.28
-42.73
-40.92
-37.0
-31.46
-25.02
-18.35
-11.87
-5.77
-0.05
5.33
10.26
14.54
17.91
20.2
21.43
21.84
21.81
21.66
21.61
21.62
21.59
21.32
20.73
19.86
18.83
17.83
16.99
16.35
15.89
15.46
14.91
14.11
13.0
11.64
10.21
8.9
7.85
6.98
6.09
4.87
3.15
0.86
-1.85
-4.7
-7.44
-9.9
-12.08
-14.09
-16.14
-18.53
-21.53
-25.32
-29.84
-34.74
-39.3
-42.62
-43.83
-42.41
-38.39
-32.37
-25.31
-18.23
-11.89
-6.63
-2.38
1.16
4.31
7.26
10.04
12.51
14.6
16.24
17.48
18.44
19.27
20.09
21.0
21.99
22.99
23.93
24.76
25.42
25.93
26.28
26.46
26.39
26.01
25.29
24.2
22.73
20.83
18.52
15.79
12.77
9.67
6.74
4.21
2.16
0.56
-0.74
-1.97
-3.35
-5.02
-7.04
-9.41
-11.99
-14.6
-17.09
-19.32
-21.31
-23.23
-25.41
-28.19
-31.78
-36.03
-40.39
-43.98
-45.83
-45.21
-41.9
-36.25
-29.14
-21.64
-14.65
-8.74
-4.06
-0.4
2.56
5.11
7.37
9.41
11.21
12.81
14.3
15.74
17.14
18.4
19.37
19.97
20.23
20.32
20.45
20.79
21.31
21.88
22.19
22.05
21.32
20.05
18.41
16.6
14.78
13.08
11.52
10.07
8.67
7.24
5.66
3.87
1.82
-0.41
-2.63
-4.63
-6.29
-7.69
-9.14
-11.1
-14.0
-18.05
-23.08
-28.51
-33.52
-37.25
-38.98
-38.34
-35.35
-30.42
-24.23
-17.51
-10.98
-5.11
-0.09
4.09
7.57
10.5
12.96
14.93
16.33
17.09
17.21
16.87
16.34
15.85
15.68
15.94
16.62
17.66
18.93
20.27
21.54
22.59
23.24
23.42
23.06
22.18
20.87
19.21
17.31
15.24
13.06
10.8
8.49
6.12
3.67
1.16
-1.41
-4.02
-6.58
-9.06
-11.37
-13.46
-15.3
-16.93
-18.47
-20.17
-22.35
-25.27
-29.02
-33.38
-37.8
-41.54
-43.86
-44.31
-42.74
-39.37
-34.63
-29.03
-23.04
-17.0
-11.12
-5.51
-0.19
4.75
9.18
13.04
16.25
18.81
20.83
22.45
23.76
24.78
25.49
25.83
25.86
25.64
25.28
24.79
24.15
23.32
22.34
21.33
20.41
19.64
18.93
18.07
16.85
15.21
13.29
11.32
9.56
8.09
6.79
5.39
3.65
1.45
-1.14
-3.87
-6.5
-8.83
-10.82
-12.58
-14.32
-16.3
-18.72
-21.74
-25.4
-29.57
-33.88
-37.77
-40.46
-41.29
-39.85
-36.21
-30.91
-24.77
-18.63
-12.99
-8.03
-3.61
0.45
4.23
7.63
10.48
12.68
14.22
15.26
15.99
16.55
17.0
17.33
17.5
17.5
17.39
17.26
17.26
17.51
18.0
18.64
19.19
19.36
18.95
17.86
16.2
14.2
12.15
10.22
8.43
6.64
4.72
2.55
0.2
-2.21
-4.48
-6.49
-8.21
-9.77
-11.42
-13.41
-15.96
-19.12
-22.78
-26.64
-30.18
-32.83
-34.01
-33.34
-30.75
-26.47
-21.0
-14.96
-8.91
-3.28
1.73
6.06
9.67
12.57
14.71
16.08
16.75
16.82
16.47
15.92
15.4
15.08
15.11
15.53
16.2
16.92
17.45
17.64
17.47
17.05
16.53
15.93
15.16
14.09
12.63
10.72
8.47
6.04
3.6
1.28
-0.82
-2.67
-4.29
-5.76
-7.24
-8.85
-10.62
-12.48
-14.27
-15.83
-17.16
-18.37
-19.72
-21.46
-23.75
-26.62
-29.9
-33.26
-36.18
-38.06
-38.39
-36.84
-33.48
-28.67
-23.02
-17.18
-11.62
-6.53
-1.92
2.33
6.31
9.98
13.28
16.11
18.4
20.23
21.6
22.58
23.18
23.4
23.3
23.04
22.77
22.68
22.79
23.03
23.19
23.08
22.6
21.74
20.53
19.05
17.32
15.41
13.37
11.28
9.17
7.04
4.8
2.39
-0.22
-2.94
-5.65
-8.2
-10.57
-12.93
-15.49
-18.56
-22.28
-26.59
-31.12
-35.23
-38.17
-39.24
-38.09
-34.78
-29.79
-23.83
-17.67
-11.86
-6.75
-2.37
1.4
4.68
7.53
9.9
11.74
12.98
13.68
14.05
14.35
14.83
15.58
16.58
17.62
18.52
19.11
19.32
19.17
18.66
17.85
16.75
15.41
13.91
12.35
10.82
9.39
8.05
6.77
5.45
3.94
2.21
0.3
-1.64
-3.39
-4.8
-5.88
-6.89
-8.18
-10.15
-13.02
-16.81
-21.2
-25.67
-29.55
-32.19
-33.06
-31.88
-28.73
-23.97
-18.23
-12.2
-6.47
-1.35
3.06
6.84
10.13
12.96
15.26
16.91
17.88
18.24
18.22
18.08
17.94
17.83
17.65
17.33
16.89
16.48
16.25
16.29
16.51
16.66
16.46
15.68
14.28
12.39
10.24
8.12
6.18
4.48
2.94
1.46
-0.06
-1.63
-3.21
-4.8
-6.36
-7.88
-9.31
-10.56
-11.63
-12.62
-13.77
-15.36
-17.58
-20.35
-23.23
-25.57
-26.64
-25.99
-23.56
-19.66
-14.86
-9.76
-4.84
-0.36
3.6
7.03
9.91
12.19
13.86
14.91
15.41
15.54
15.47
15.38
15.38
15.53
15.86
16.32
16.86
17.37
17.73
17.78
17.45
16.81
16.05
15.36
14.84
14.33
13.47
11.83
9.07
5.19
0.44
-4.71
-9.85
-14.72
-19.22
-23.35
-27.09
-30.39
-33.15
-35.39
-37.18
-38.59
-39.55
-39.81
-38.98
-36.77
-33.18
-28.58
-23.63
-18.98
-15.03
-11.79
-8.99
-6.23
-3.28
-0.12
3.13
6.28
9.23
11.93
14.37
16.49
18.21
19.44
20.18
20.58
20.82
21.15
21.68
22.35
22.92
23.06
22.46
21.0
18.76
16.06
13.26
10.71
8.52
6.6
4.7
2.66
0.4
-1.98
-4.32
-6.49
-8.44
-10.2
-11.92
-13.81
-16.1
-19.04
-22.77
-27.15
-31.75
-35.84
-38.63
-39.51
-38.21
-34.9
-30.09
-24.44
-18.59
-13.02
-7.93
-3.34
0.89
4.91
8.73
12.21
15.15
17.39
18.93
19.95
20.7
21.4
22.08
22.65
23.02
23.13
23.07
22.95
22.81
22.62
22.23
21.54
20.51
19.21
17.7
16.03
14.2
12.26
10.22
8.16
6.16
4.21
2.23
0.11
-2.26
-4.88
-7.61
-10.24
-12.53
-14.38
-15.82
-17.03
-18.26
-19.76
-21.72
-24.24
-27.23
-30.48
-33.53
-35.83
-36.81
-36.04
-33.37
-29.01
-23.5
-17.51
-11.75
-6.69
-2.57
0.71
3.4
5.75
7.95
10.03
11.97
13.76
15.42
16.97
18.32
19.26
19.58
19.17
18.12
16.71
15.3
14.19
13.5
13.18
13.05
12.92
12.61
12.02
11.05
9.63
7.8
5.55
2.96
0.11
-2.94
-6.16
-9.43
-12.61
-15.58
-18.2
-20.46
-22.44
-24.39
-26.56
-29.21
-32.61
-36.89
-42.2
-48.49
-55.54
-62.84
-69.66
-75.25
-79.03
-80.85
-80.98
-80.07
-78.83
-77.89
-77.65
-78.38
-80.18
-83.01
-86.5
-89.84
-91.79
-90.9
-85.95
-76.26
-61.83
-43.15
-20.88
4.38
32.2
62.12
93.49
125.34
156.51
185.84
212.21
234.67
252.36
264.58
270.87
271.23
266.15
256.56
243.6
228.45
212.16
195.55
179.23
163.43
148.01
132.33
115.55
96.91
76.09
53.38
29.63
5.94
-16.58
-37.07
-54.82
-69.19
-79.49
-85.18
-86.1
-82.82
-76.63
-69.31
-62.56
-57.52
-54.33
-52.28
-50.17
-46.85
-41.66
-34.62
-26.38
-17.88
-10.05
-3.54
1.34
4.52
6.04
5.93
4.1
0.51
-4.7
-11.14
-18.2
-25.1
-31.18
-36.01
-39.49
-41.87
-43.59
-45.15
-46.94
-49.15
-51.76
-54.6
-57.41
-59.99
-62.24
-64.08
-65.46
-66.31
-66.51
-66.0
-64.85
-63.3
-61.71
-60.47
-59.69
-59.19
-58.49
-56.92
-53.93
-49.29
-43.13
-35.87
-28.12
-20.4
-13.11
-6.44
-0.42
5.06
10.04
14.51
18.38
21.45
23.57
24.78
25.33
25.6
25.95
26.57
27.35
27.97
28.02
27.23
25.54
23.15
20.47
17.95
15.98
14.74
14.13
13.67
12.59
10.02
5.22
-2.17
-12.0
-23.57
-35.75
-47.21
-56.75
-63.67
-67.95
-70.2
-71.4
-72.39
-73.53
-74.52
-74.66
-73.2
-69.76
-64.44
-57.7
-50.05
-41.73
-32.79
-23.15
-12.91
-2.4
7.8
17.14
25.25
32.07
37.78
42.68
46.99
50.74
53.79
55.97
57.19
57.54
57.21
56.48
55.47
54.13
52.22
49.49
45.88
41.56
37.0
32.74
29.21
26.43
24.06
21.44
17.88
12.87
6.23
-1.94
-11.35
-21.53
-31.93
-41.88
-50.6
-57.44
-61.95
-64.06
-64.09
-62.62
-60.2
-57.27
-54.04
-50.6
-47.01
-43.32
-39.56
-35.71
-31.69
-27.43
-22.98
-18.5
-14.22
-10.35
-6.94
-3.86
-0.9
2.15
5.39
8.81
12.31
15.78
19.02
21.78
23.75
24.58
24.04
22.09
18.9
14.83
10.31
5.67
1.11
-3.26
-7.4
-11.31
-14.96
-18.27
-21.0
-22.84
-23.35
-22.18
-19.22
-14.71
-9.23
-3.51
1.73
6.02
9.21
11.43
12.94
14.01
14.84
15.52
16.05
16.44
16.73
16.96
17.18
17.45
17.76
18.08
18.31
18.4
18.32
18.13
17.86
17.53
17.06
16.26
14.94
12.91
10.21
6.95
3.41
-0.11
-3.35
-6.18
-8.67
-11.04
-13.65
-16.81
-20.69
-25.12
-29.64
-33.54
-36.1
-36.76
-35.23
-31.53
-25.9
-18.77
-10.7
-2.38
5.57
12.67
18.84
24.39
29.94
36.01
42.75
49.8
56.43
61.82
65.45
67.15
67.08
65.49
62.59
58.52
53.4
47.44
40.92
34.17
27.49
21.08
15.1
9.61
4.6
-0.01
-4.27
-8.22
-11.77
-14.76
-17.05
-18.67
-19.92
-21.23
-23.06
-25.74
-29.27
-33.38
-37.59
-41.3
-43.92
-44.99
-44.18
-41.45
-37.0
-31.27
-24.87
-18.42
-12.42
-7.15
-2.66
1.13
4.36
7.14
9.49
11.45
13.07
14.43
15.63
16.74
17.7
18.45
18.89
19.01
18.93
18.75
18.56
18.33
17.93
17.23
16.15
14.68
12.85
10.66
8.13
5.34
2.44
-0.34
-2.77
-4.7
-6.17
-7.35
-8.49
-9.89
-11.76
-14.22
-17.24
-20.62
-23.91
-26.53
-27.84
-27.35
-24.88
-20.64
-15.17
-9.17
-3.33
1.85
6.11
9.42
11.89
13.7
15.1
16.31
17.5
18.8
20.12
21.27
21.98
22.08
21.58
20.68
19.67
18.79
18.13
17.58
16.94
16.04
14.82
13.27
11.52
9.65
7.73
5.79
3.91
2.11
0.39
-1.27
-2.94
-4.67
-6.45
-8.25
-9.98
-11.59
-13.09
-14.57
-16.18
-18.14
-20.62
-23.72
-27.32
-31.08
-34.35
-36.39
-36.52
-34.35
-29.94
-23.78
-16.69
-9.54
-3.01
2.49
6.86
10.25
12.94
15.16
17.13
18.95
20.61
22.01
23.05
23.65
23.78
23.45
22.77
21.84
20.79
19.75
18.87
18.22
17.73
17.25
16.47
15.13
13.15
10.66
8.04
5.63
3.65
2.04
0.6
-0.92
-2.66
-4.56
-6.47
-8.3
-10.1
-11.98
-14.09
-16.52
-19.28
-22.41
-25.86
-29.52
-33.02
-35.78
-37.08
-36.36
-33.43
-28.61
-22.61
-16.22
-10.09
-4.59
0.17
4.23
7.64
10.51
12.96
15.09
16.97
18.59
19.84
20.66
21.05
21.07
20.85
20.5
20.07
19.57
19.02
18.45
17.9
17.34
16.67
15.73
14.37
12.51
10.23
7.72
5.19
2.83
0.69
-1.29
-3.27
-5.4
-7.72
-10.11
-12.39
-14.35
-15.88
-17.07
-18.18
-19.54
-21.43
-23.99
-27.15
-30.61
-33.86
-36.27
-37.21
-36.28
-33.35
-28.71
-22.9
-16.64
-10.58
-5.15
-0.56
3.21
6.28
8.86
11.09
13.09
14.86
16.31
17.41
18.14
18.58
18.82
18.92
18.84
18.54
18.04
17.45
16.94
16.62
16.49
16.3
15.81
14.79
13.28
11.52
9.87
8.63
7.84
7.35
6.83
5.9
4.35
2.15
-0.51
-3.34
-6.05
-8.43
-10.44
-12.23
-14.06
-16.26
-19.1
-22.65
-26.7
-30.67
-33.75
-35.11
-34.19
-30.84
-25.42
-18.66
-11.45
-4.61
1.3
6.0
9.55
12.13
14.0
15.38
16.42
17.21
17.79
18.22
18.5
18.62
18.54
18.2
17.6
16.8
15.93
15.12
14.54
14.27
14.27
14.38
14.3
13.73
12.47
10.58
8.29
5.96
3.81
1.91
0.13
-1.7
-3.64
-5.58
-7.29
-8.55
-9.26
-9.57
-9.75
-10.14
-11.14
-13.02
-15.92
-19.76
-24.17
-28.51
-32.11
-34.28
-34.6
-32.98
-29.67
-25.1
-19.88
-14.58
-9.74
-5.73
-2.82
-1.09
-0.48
-0.75
-1.62
-2.76
-3.87
-4.77
-5.45
-6.04
-6.74
-7.67
-8.82
-10.0
-10.94
-11.41
-11.39
-11.08
-10.79
-10.86
-11.52
-12.78
-14.37
-15.63
-15.49
-12.65
-5.91
5.2
20.14
37.24
54.21
68.88
79.98
87.37
91.78
94.16
95.04
94.28
91.38
85.94
78.02
68.17
57.16
45.61
33.83
22.02
10.44
-0.45
-10.01
-17.71
-23.37
-27.14
-29.38
-30.41
-30.5
-29.8
-28.49
-26.81
-25.02
-23.32
-21.81
-20.58
-19.71
-19.37
-19.67
-20.57
-21.85
-23.13
-24.03
-24.38
-24.25
-23.82
-23.29
-22.78
-22.34
-22.04
-21.96
-22.23
-22.89
-23.9
-25.09
-26.26
-27.24
-27.98
-28.63
-29.38
-30.46
-32.03
-34.2
-37.0
-40.37
-44.02
-47.47
-50.04
-50.97
-49.74
-46.23
-40.78
-34.09
-26.99
-20.16
-14.03
-8.75
-4.24
-0.31
3.19
6.38
9.26
11.8
13.99
15.87
17.53
19.12
20.76
22.42
23.99
25.32
26.25
26.76
26.84
26.57
25.95
24.93
23.51
21.72
19.7
17.62
15.65
13.84
12.07
10.16
7.9
5.21
2.13
-1.1
-4.24
-7.12
-9.71
-12.15
-14.72
-17.71
-21.31
-25.51
-30.06
-34.49
-38.15
-40.42
-40.84
-39.17
-35.52
-30.3
-24.16
-17.95
-12.49
-8.39
-5.91
-4.9
-4.88
-5.21
-5.25
-4.5
-2.62
0.47
4.61
9.33
13.88
17.49
19.6
20.24
20.19
20.84
23.73
29.96
39.76
52.17
65.4
77.28
85.95
90.37
90.49
87.04
81.22
74.24
67.05
60.26
54.1
48.48
43.06
37.28
30.58
22.59
13.23
2.76
-8.32
-19.51
-30.35
-40.46
-49.46
-56.89
-62.23
-65.02
-65.07
-62.54
-57.95
-51.99
-45.31
-38.4
-31.54
-24.89
-18.6
-12.89
-8.01
-4.13
-1.21
0.95
2.71
4.43
6.37
8.55
10.91
13.24
15.38
17.23
18.8
20.13
21.33
22.39
23.23
23.71
23.75
23.36
22.73
22.13
21.76
21.6
21.42
20.83
19.51
17.26
14.18
10.55
6.75
3.1
-0.17
-3.02
-5.62
-8.34
-11.58
-15.67
-20.7
-26.34
-31.91
-36.5
-39.24
-39.5
-37.13
-32.47
-26.26
-19.37
-12.62
-6.56
-1.39
2.92
6.56
9.67
12.26
14.3
15.71
16.41
16.54
16.28
15.86
15.53
15.45
15.68
16.22
17.03
18.02
19.03
19.88
20.29
20.06
19.05
17.26
14.86
12.13
9.37
6.81
4.61
2.75
1.12
-0.43
-2.06
-3.83
-5.79
-7.97
-10.49
-13.47
-17.01
-20.97
-24.94
-28.24
-30.09
-29.95
-27.66
-23.5
-18.07
-12.09
-6.19
-0.79
3.88
7.78
10.91
13.36
15.16
16.38
17.1
17.48
17.77
18.23
19.1
20.4
21.93
23.33
24.21
24.33
23.65
22.34
20.65
18.78
16.8
14.64
12.15
9.21
5.83
2.19
-1.43
-4.75
-7.6
-9.97
-12.02
-13.96
-16.03
-18.5
-21.58
-25.39
-29.88
-34.71
-39.27
-42.72
-44.29
-43.5
-40.29
-35.14
-28.79
-22.11
-15.78
-10.21
-5.45
-1.33
2.41
5.98
9.39
12.5
15.07
16.93
18.09
18.68
18.92
18.95
18.89
18.72
18.44
18.1
17.78
17.54
17.42
17.35
17.18
16.79
16.03
14.79
12.99
10.62
7.83
4.81
1.91
-0.65
-2.76
-4.6
-6.5
-8.85
-12.0
-16.07
-20.95
-26.24
-31.32
-35.44
-37.88
-38.17
-36.15
-32.11
-26.6
-20.27
-13.74
-7.47
-1.73
3.34
7.73
11.47
14.61
17.21
19.26
20.73
21.63
22.07
22.26
22.47
22.93
23.76
24.85
26.01
26.97
27.51
27.49
26.92
25.84
24.37
22.58
20.51
18.2
15.63
12.79
9.74
6.55
3.34
0.25
-2.65
-5.37
-7.95
-10.51
-13.16
-16.03
-19.28
-23.07
-27.47
-32.36
-37.25
-41.37
-43.82
-43.9
-41.39
-36.68
-30.52
-23.79
-17.15
-10.91
-5.06
0.46
5.64
10.29
14.09
16.87
18.66
19.71
20.4
21.07
21.85
22.63
23.17
23.21
22.66
21.62
20.29
18.94
17.73
16.73
15.87
15.05
14.12
12.98
11.55
9.81
7.76
5.46
2.96
0.28
-2.57
-5.58
-8.68
-11.81
-14.95
-18.19
-21.72
-25.74
-30.18
-34.61
-38.24
-40.12
-39.52
-36.24
-30.67
-23.63
-16.15
-9.05
-2.81
2.44
6.83
10.55
13.78
16.6
19.0
20.89
22.18
22.77
22.66
21.98
20.9
19.7
18.62
17.82
17.38
17.29
17.44
17.63
17.66
17.33
16.52
15.23
13.6
11.8
9.98
8.22
6.5
4.76
2.93
0.96
-1.22
-3.67
-6.37
-9.23
-12.08
-14.78
-17.31
-19.84
-22.66
-26.07
-30.21
-34.89
-39.54
-43.34
-45.38
-45.0
-41.94
-36.5
-29.48
-21.89
-14.66
-8.37
-3.17
1.14
4.86
8.29
11.51
14.54
17.31
19.69
21.59
22.92
23.71
24.03
24.09
24.12
24.31
24.72
25.27
25.8
26.15
26.29
26.23
26.01
25.6
24.92
23.86
22.33
20.37
18.08
15.66
13.31
11.16
9.23
7.48
5.74
3.88
1.84
-0.4
-2.76
-5.16
-7.51
-9.74
-11.81
-13.72
-15.51
-17.37
-19.64
-22.7
-26.73
-31.61
-36.71
-41.08
-43.67
-43.77
-41.19
-36.37
-30.15
-23.46
-17.05
-11.36
-6.5
-2.34
1.35
4.85
8.25
11.55
14.62
17.2
19.11
20.27
20.83
21.02
21.16
21.48
22.06
22.89
23.86
24.89
25.9
26.78
27.41
27.58
27.06
25.7
23.51
20.73
17.75
14.93
12.49
10.43
8.59
6.82
5.14
3.69
2.62
1.99
1.68
1.35
0.7
-0.46
-2.11
-4.1
-6.19
-8.21
-10.13
-12.03
-14.02
-16.28
-18.97
-22.06
-25.38
-28.5
-30.8
-31.69
-30.76
-28.01
-23.86
-18.96
-14.02
-9.55
-5.79
-2.68
0.02
2.55
5.12
7.79
10.5
13.13
15.52
17.57
19.25
20.59
21.62
22.4
22.87
23.05
22.97
22.75
22.53
22.41
22.35
22.2
21.81
21.07
20.01
18.74
17.42
16.1
14.76
13.29
11.54
9.44
6.98
4.22
1.26
-1.79
-4.8
-7.68
-10.41
-13.01
-15.55
-18.12
-20.81
-23.71
-26.85
-30.2
-33.67
-37.17
-40.68
-44.24
-48.01
-52.01
-56.07
-59.68
-62.16
-62.78
-61.12
-57.13
-51.18
-43.86
-35.8
-27.53
-19.55
-12.35
-6.36
-1.73
1.96
5.76
11.02
18.83
29.24
41.07
52.16
60.29
64.12
63.66
60.21
55.51
51.01
47.36
44.61
42.61
41.5
41.72
43.72
47.6
52.75
58.18
62.85
66.13
67.99
68.78
68.92
68.53
67.39
65.04
61.1
55.51
48.61
41.06
33.57
26.69
20.78
16.02
12.65
10.94
11.27
13.83
18.43
24.34
30.5
35.73
39.1
40.03
38.3
33.9
26.95
17.84
7.2
-3.97
-14.49
-23.31
-29.81
-34.06
-36.66
-38.57
-40.69
-43.5
-46.98
-50.7
-54.09
-56.69
-58.36
-59.23
-59.56
-59.52
-59.08
-58.05
-56.34
-54.02
-51.45
-49.09
-47.31
-46.23
-45.67
-45.27
-44.69
-43.73
-42.46
-41.13
-40.07
-39.53
-39.67
-40.52
-41.91
-43.53
-44.93
-45.56
-44.87
-42.52
-38.48
-33.1
-27.04
-20.98
-15.46
-10.71
-6.69
-3.16
0.1
3.23
6.17
8.72
10.7
11.98
12.59
12.67
12.47
12.17
11.87
11.58
11.22
10.82
10.4
10.13
10.14
10.54
11.28
12.23
13.14
13.82
14.18
14.21
14.02
13.73
13.39
12.91
12.16
10.96
9.24
7.08
4.67
2.2
-0.14
-2.26
-4.23
-6.18
-8.36
-10.99
-14.29
-18.3
-22.84
-27.44
-31.45
-34.12
-34.9
-33.56
-30.25
-25.47
-19.86
-14.01
-8.43
-3.38
1.03
4.78
7.83
10.15
11.75
12.66
13.06
13.23
13.47
13.98
14.82
15.84
16.81
17.53
17.91
17.99
17.9
17.8
17.73
17.61
17.23
16.36
14.9
12.87
10.48
7.98
5.63
3.51
1.57
-0.36
-2.43
-4.64
-6.88
-8.94
-10.65
-12.01
-13.24
-14.65
-16.57
-19.2
-22.54
-26.43
-30.56
-34.73
-38.76
-42.57
-46.02
-48.92
-50.96
-51.82
-51.26
-49.23
-45.9
-41.58
-36.72
-31.78
-27.16
-23.26
-20.51
-19.25
-19.52
-20.71
-21.4
-19.53
-13.12
-1.16
15.83
35.75
55.78
73.45
87.43
97.6
104.64
109.25
111.87
112.69
112.06
110.66
109.32
108.6
108.38
107.89
106.19
102.73
97.7
91.88
86.3
81.77
78.57
76.34
74.19
70.73
64.3
53.32
36.9
15.4
-9.32
-34.34
-56.57
-73.81
-85.53
-92.59
-96.64
-99.12
-100.67
-101.15
-99.98
-96.76
-91.43
-84.37
-76.14
-67.38
-58.73
-50.78
-43.99
-38.53
-34.32
-31.05
-28.38
-26.06
-24.01
-22.16
-20.37
-18.43
-16.13
-13.41
-10.42
-7.54
-5.14
-3.44
-2.42
-1.83
-1.34
-0.75
-0.03
0.57
0.71
0.03
-1.6
-4.03
-6.78
-9.29
-11.13
-12.11
-12.41
-12.47
-12.75
-13.63
-15.38
-18.09
-21.76
-26.22
-31.05
-35.54
-38.77
-39.81
-38.08
-33.57
-26.91
-19.23
-11.78
-5.6
-1.19
1.52
3.05
4.12
5.34
7.11
9.53
12.47
15.76
19.17
22.51
25.58
28.17
30.13
31.34
31.78
31.56
30.93
30.15
29.52
29.21
29.23
29.44
29.54
29.27
28.37
26.73
24.35
21.35
17.85
14.0
9.93
5.8
1.79
-1.95
-5.34
-8.34
-11.0
-13.43
-15.76
-18.03
-20.25
-22.39
-24.48
-26.6
-28.92
-31.56
-34.46
-37.27
-39.42
-40.3
-39.5
-36.98
-33.11
-28.51
-23.77
-19.31
-15.21
-11.29
-7.23
-2.78
2.11
7.23
12.19
16.56
20.07
22.67
24.52
25.78
26.57
26.89
26.68
25.92
24.76
23.43
22.17
21.11
20.23
19.35
18.31
17.0
15.4
13.63
11.83
10.18
8.79
7.69
6.81
5.95
4.92
3.54
1.76
-0.35
-2.61
-4.87
-7.0
-8.99
-10.92
-12.96
-15.29
-18.07
-21.38
-25.12
-28.95
-32.32
-34.61
-35.31
-34.22
-31.47
-27.49
-22.87
-18.13
-13.66
-9.63
-6.03
-2.78
0.21
2.97
5.46
7.6
9.35
10.73
11.84
12.86
13.88
14.97
16.06
17.09
18.01
18.86
19.74
20.68
21.64
22.5
23.03
23.05
22.51
21.45
20.03
18.44
16.81
15.17
13.46
11.61
9.56
7.36
5.08
2.83
0.69
-1.34
-3.29
-5.26
-7.34
-9.7
-12.52
-15.91
-19.94
-24.45
-29.04
-33.09
-35.86
-36.77
-35.48
-32.06
-26.96
-20.83
-14.38
-8.17
-2.56
2.29
6.32
9.52
11.82
13.23
13.82
13.81
13.51
13.17
13.01
13.08
13.35
13.75
14.28
14.93
15.71
16.48
17.06
17.26
16.94
16.14
15.0
13.66
12.25
10.78
9.15
7.23
4.91
2.19
-0.85
-3.99
-6.96
-9.61
-11.87
-13.89
-15.9
-18.22
-20.99
-24.19
-27.52
-30.51
-32.67
-33.57
-32.96
-30.8
-27.23
-22.56
-17.2
-11.59
-6.15
-1.18
3.2
6.97
10.22
13.0
15.32
17.17
18.58
19.64
20.47
21.19
21.82
22.33
22.68
22.87
23.0
23.15
23.35
23.46
23.28
22.58
21.24
19.24
16.72
13.86
10.89
8.01
5.38
3.1
1.16
-0.51
-2.09
-3.78
-5.7
-7.88
-10.2
-12.53
-14.77
-16.96
-19.27
-21.97
-25.22
-28.93
-32.72
-35.85
-37.52
-37.09
-34.37
-29.68
-23.67
-17.14
-10.72
-4.75
0.7
5.65
10.1
13.93
16.99
19.16
20.49
21.17
21.48
21.67
21.9
22.22
22.53
22.72
22.71
22.56
22.39
22.35
22.5
22.76
22.86
22.56
21.63
20.06
18.0
15.73
13.56
11.71
10.29
9.25
8.42
7.6
6.59
5.31
3.76
2.01
0.18
-1.67
-3.54
-5.54
-7.79
-10.41
-13.5
-17.1
-21.18
-25.59
-30.0
-33.88
-36.57
-37.46
-36.19
-32.81
-27.77
-21.78
-15.54
-9.59
-4.23
0.46
4.48
7.87
10.67
12.97
14.87
16.49
17.91
19.22
20.41
21.53
22.54
23.33
23.81
23.9
23.58
22.98
22.25
21.51
20.78
19.96
18.86
17.33
15.34
13.06
10.72
8.56
6.69
5.08
3.54
1.94
0.19
-1.63
-3.35
-4.84
-6.09
-7.23
-8.47
-9.97
-11.8
-13.95
-16.4
-19.21
-22.41
-25.94
-29.57
-32.78
-35.0
-35.65
-34.44
-31.41
-26.93
-21.57
-15.91
-10.38
-5.29
-0.78
3.07
6.2
8.56
10.15
11.03
11.38
11.47
11.59
11.94
12.57
13.42
14.34
15.18
15.82
16.21
16.37
16.28
15.93
15.24
14.21
12.86
11.31
9.7
8.14
6.64
5.08
3.32
1.18
-1.43
-4.42
-7.6
-10.69
-13.38
-15.49
-17.01
-18.12
-19.17
-20.54
-22.62
-25.55
-29.29
-33.42
-37.3
-40.16
-41.31
-40.38
-37.42
-32.91
-27.55
-22.03
-16.83
-12.14
-7.91
-4.06
-0.52
2.71
5.58
8.06
10.21
12.11
13.87
15.6
17.32
19.02
20.64
22.09
23.33
24.32
25.12
25.82
26.49
27.12
27.56
27.57
26.92
25.49
23.37
20.78
18.03
15.33
12.76
10.27
7.77
5.19
2.45
-0.42
-3.37
-6.28
-8.95
-11.24
-13.12
-14.81
-16.71
-19.26
-22.67
-26.81
-31.12
-34.8
-37.08
-37.51
-36.04
-33.02
-29.03
-24.61
-20.15
-15.82
-11.65
-7.59
-3.64
0.13
3.61
6.74
9.55
12.11
14.49
16.68
18.52
19.87
20.59
20.71
20.44
20.11
19.97
20.14
20.5
20.78
20.7
20.08
18.91
17.29
15.43
13.48
11.56
9.74
8.01
6.35
4.71
3.06
1.33
-0.52
-2.51
-4.61
-6.79
-8.99
-11.19
-13.46
-15.94
-18.84
-22.3
-26.19
-30.06
-33.18
-34.81
-34.4
-31.91
-27.71
-22.49
-16.98
-11.72
-6.9
-2.46
1.74
5.8
9.64
13.07
15.83
17.78
18.9
19.32
19.28
18.99
18.52
17.89
17.13
16.28
15.47
14.82
14.33
13.84
13.14
12.03
10.48
8.65
6.69
4.73
2.77
0.7
-1.58
-4.09
-6.72
-9.27
-11.51
-13.33
-14.69
-15.69
-16.55
-17.53
-18.89
-20.76
-23.03
-25.37
-27.25
-28.11
-27.51
-25.28
-21.54
-16.63
-11.02
-5.21
0.39
5.46
9.82
13.39
16.21
18.38
20.04
21.32
22.34
23.17
23.89
24.51
24.97
25.19
25.05
24.52
23.63
22.54
21.41
20.35
19.36
18.32
17.0
15.27
13.05
10.46
7.68
4.98
2.48
0.26
-1.7
-3.4
-4.84
-6.0
-6.86
-7.59
-8.37
-9.49
-11.26
-13.93
-17.59
-22.12
-27.13
-31.98
-35.9
-38.17
-38.34
-36.41
-32.8
-28.22
-23.36
-18.73
-14.46
-10.5
-6.65
-2.8
1.02
4.67
7.95
10.76
13.1
15.08
16.82
18.43
19.88
21.1
22.0
22.58
22.88
23.01
23.11
23.18
23.17
22.95
22.42
21.54
20.4
19.15
17.89
16.64
15.32
13.79
12.05
10.18
8.42
6.95
5.85
4.99
4.13
3.0
1.46
-0.43
-2.56
-4.75
-6.94
-9.18
-11.62
-14.42
-17.74
-21.62
-25.96
-30.43
-34.44
-37.27
-38.28
-37.13
-33.92
-29.19
-23.69
-18.16
-13.12
-8.87
-5.44
-2.72
-0.52
1.39
3.21
5.06
6.95
8.81
10.53
12.02
13.34
14.58
15.83
17.18
18.56
19.86
20.97
21.8
22.37
22.66
22.7
22.45
21.9
21.06
19.99
18.78
17.58
16.52
15.64
14.93
14.3
13.59
12.67
11.45
9.97
8.35
6.79
5.37
4.1
2.79
1.2
-0.86
-3.41
-6.26
-9.13
-11.72
-13.86
-15.54
-16.93
-18.29
-19.91
-22.07
-24.88
-28.23
-31.71
-34.63
-36.19
-35.72
-32.91
-27.97
-21.58
-14.68
-8.2
-2.8
1.25
4.0
5.77
6.93
7.81
8.61
9.4
10.17
10.84
11.36
11.7
11.92
12.05
12.17
12.25
12.29
12.27
12.16
12.02
11.88
11.77
11.62
11.42
11.09
10.64
10.07
9.41
8.73
8.07
7.48
6.93
6.37
5.63
4.57
3.07
1.1
-1.24
-3.81
-6.38
-8.77
-10.86
-12.58
-13.95
-15.13
-16.41
-18.13
-20.55
-23.62
-26.99
-29.98
-31.84
-31.96
-30.1
-26.44
-21.51
-15.93
-10.28
-4.98
-0.32
3.57
6.57
8.65
9.88
10.42
10.54
10.54
10.68
11.07
11.69
12.4
13.06
13.57
13.91
14.1
14.18
14.16
13.99
13.57
12.83
11.72
10.35
8.81
7.23
5.71
4.24
2.78
1.24
-0.43
-2.26
-4.18
-6.15
-8.06
-9.9
-11.62
-13.31
-15.08
-17.11
-19.54
-22.47
-25.82
-29.35
-32.63
-35.07
-36.07
-35.17
-32.23
-27.48
-21.5
-15.05
-8.88
-3.52
0.77
4.03
6.48
8.4
10.02
11.48
12.86
14.18
15.43
16.57
17.6
18.44
19.02
19.24
19.06
18.51
17.73
16.9
16.17
15.53
14.85
13.9
12.53
10.73
8.67
6.62
4.85
3.51
2.58
1.94
1.43
0.9
0.22
-0.7
-1.91
-3.4
-5.12
-6.98
-8.88
-10.84
-12.93
-15.35
-18.27
-21.79
-25.8
-29.99
-33.78
-36.51
-37.57
-36.63
-33.69
-29.19
-23.77
-18.12
-12.81
-8.11
-4.1
-0.62
2.5
5.45
8.3
11.01
13.45
15.39
16.7
17.35
17.46
17.22
16.81
16.29
15.7
14.98
14.14
13.26
12.4
11.65
11.02
10.48
9.96
9.39
8.73
7.95
7.08
6.17
5.34
4.7
4.36
4.34
4.5
4.64
4.45
3.78
2.6
1.04
-0.7
-2.4
-4.02
-5.63
-7.4
-9.57
-12.33
-15.78
-19.85
-24.32
-28.81
-32.74
-35.52
-36.63
-35.82
-33.06
-28.67
-23.18
-17.24
-11.45
-6.3
-2.05
1.34
4.07
6.46
8.74
11.01
13.23
15.29
17.04
18.4
19.39
19.95
20.12
19.94
19.52
19.06
18.75
18.71
18.91
19.21
19.48
19.6
19.59
19.47
19.3
19.05
18.75
18.4
18.07
17.78
17.49
17.06
16.33
15.15
13.52
11.54
9.36
7.08
4.72
2.25
-0.32
-2.93
-5.48
-7.93
-10.37
-13.03
-16.13
-19.75
-23.7
-27.45
-30.34
-31.76
-31.41
-29.38
-26.09
-22.11
-17.95
-13.97
-10.34
-7.19
-4.54
-2.47
-0.96
0.05
0.69
1.13
1.53
2.05
2.79
3.83
5.15
6.63
8.03
9.15
9.81
10.02
9.96
9.78
9.6
9.34
8.8
7.8
6.24
4.26
2.09
0.05
-1.67
-3.07
-4.3
-5.67
-7.41
-9.7
-12.52
-15.76
-19.16
-22.48
-25.34
-27.42
-28.36
-27.92
-26.05
-22.95
-19.0
-14.68
-10.41
-6.43
-2.87
0.26
2.9
4.9
6.15
6.65
6.57
6.2
5.86
5.82
6.14
6.74
7.43
8.06
8.53
8.77
8.78
8.52
8.0
7.15
5.95
4.38
2.48
0.36
-1.81
-3.82
-5.47
-6.65
-7.42
-8.02
-8.75
-9.95
-11.79
-14.2
-16.85
-19.25
-20.83
-21.12
-19.87
-17.08
-13.07
-8.32
-3.38
1.29
5.42
8.94
11.9
14.39
16.44
18.06
19.21
19.92
20.27
20.39
20.39
20.35
20.33
20.36
20.42
20.54
20.74
21.01
21.32
21.64
21.86
21.89
21.62
21.04
20.19
19.24
18.29
17.47
16.69
15.84
14.81
13.53
12.04
10.42
8.77
7.14
5.55
4.01
2.51
0.96
-0.75
-2.71
-4.98
-7.51
-10.18
-12.84
-15.49
-18.22
-21.17
-24.47
-28.15
-32.09
-36.08
-39.77
-42.7
-44.34
-44.23
-42.08
-37.98
-32.39
-26.08
-19.82
-14.18
-9.29
-5.0
-1.0
2.9
6.7
10.22
13.26
15.72
17.68
19.31
20.76
22.08
23.19
23.95
24.27
24.22
23.98
23.83
23.91
24.24
24.68
24.99
24.96
24.52
23.7
22.62
21.43
20.21
18.93
17.46
15.7
13.63
11.32
8.99
6.83
5.05
3.64
2.48
1.37
0.04
-1.63
-3.61
-5.76
-7.89
-9.81
-11.47
-12.9
-14.2
-15.53
-17.08
-19.06
-21.7
-25.12
-29.22
-33.52
-37.27
-39.57
-39.74
-37.58
-33.42
-28.09
-22.5
-17.39
-13.06
-9.43
-6.14
-2.87
0.53
4.0
7.35
10.39
13.06
15.36
17.31
18.93
20.13
20.9
21.27
21.41
21.54
21.85
22.4
23.09
23.7
23.98
23.79
23.11
22.08
20.9
19.77
18.78
17.97
17.24
16.49
15.54
14.34
12.85
11.17
9.47
7.94
6.63
5.48
4.26
2.73
0.8
-1.46
-3.79
-5.91
-7.63
-8.97
-10.11
-11.34
-12.9
-14.97
-17.62
-20.8
-24.31
-27.8
-30.74
-32.58
-32.82
-31.26
-28.02
-23.59
-18.61
-13.75
-9.49
-6.09
-3.46
-1.39
0.43
2.23
4.07
5.91
7.64
9.18
10.46
11.51
12.31
12.83
12.99
12.76
12.16
11.35
10.57
10.05
9.94
10.21
10.71
11.31
11.87
12.37
12.85
13.34
13.79
14.12
14.2
13.97
13.46
12.72
11.81
10.72
9.37
7.68
5.62
3.29
0.82
-1.61
-3.95
-6.24
-8.66
-11.43
-14.64
-18.22
-21.85
-25.03
-27.18
-27.85
-26.81
-24.22
-20.48
-16.17
-11.82
-7.85
-4.5
-1.85
0.12
1.51
2.47
3.18
3.82
4.5
5.22
5.91
6.53
7.06
7.57
8.11
8.72
9.34
9.89
10.3
10.52
10.54
10.35
9.97
9.4
8.7
8.01
7.41
6.94
6.54
6.05
5.32
4.31
3.07
1.76
0.52
-0.61
-1.69
-2.81
-4.07
-5.52
-7.16
-8.93
-10.8
-12.72
-14.68
-16.6
-18.36
-19.76
-20.51
-20.41
-19.3
-17.21
-14.39
-11.21
-8.08
-5.25
-2.86
-0.79
1.13
3.06
5.01
6.88
8.51
9.73
10.49
10.84
10.9
10.79
10.6
10.33
9.99
9.53
8.96
8.35
7.76
7.26
6.86
6.49
6.07
5.49
4.8
4.12
3.6
3.3
3.14
2.97
2.56
1.84
0.86
-0.25
-1.34
-2.31
-3.2
-4.08
-5.03
-6.08
-7.25
-8.56
-10.08
-11.76
-13.47
-14.94
-15.81
-15.76
-14.72
-12.88
-10.63
-8.46
-6.69
-5.42
-4.5
-3.67
-2.74
-1.62
-0.38
0.84
1.88
2.74
3.42
3.96
4.38
4.72
4.98
5.24
5.53
5.88
6.23
6.55
6.75
6.75
6.5
5.98
5.15
4.05
2.74
1.32
-0.1
-1.39
-2.41
-3.13
-3.55
-3.69
-3.68
-3.59
-3.47
-3.33
-3.13
-2.89
-2.69
-2.72
-3.17
-4.16
-5.6
-7.27
-8.86
-10.07
-10.62
-10.42
-9.44
-7.79
-5.64
-3.26
-0.95
1.11
2.81
4.19
5.33
6.33
7.16
7.75
8.01
7.95
7.65
7.3
7.02
6.83
6.71
6.53
6.24
5.82
5.33
4.81
4.23
3.55
2.66
1.46
-0.05
-1.75
-3.47
-4.91
-5.87
-6.3
-6.33
-6.22
-6.23
-6.5
-6.98
-7.54
-8.03
-8.44
-8.86
-9.41
-10.21
-11.22
-12.35
-13.48
-14.49
-15.27
-15.62
-15.34
-14.19
-12.14
-9.33
-6.15
-3.09
-0.53
1.33
2.54
3.26
3.73
4.07
4.34
4.59
4.87
5.28
5.87
6.66
7.56
8.36
8.86
8.92
8.53
7.84
7.07
6.4
5.93
5.54
5.09
4.39
3.39
2.22
1.14
0.42
0.18
0.37
0.71
0.92
0.79
0.26
-0.63
-1.81
-3.24
-4.93
-6.86
-8.93
-10.96
-12.82
-14.41
-15.85
-17.27
-18.76
-20.22
-21.33
-21.66
-20.88
-18.9
-15.98
-12.49
-8.89
-5.48
-2.43
0.24
2.53
4.42
5.88
6.92
7.61
8.09
8.47
8.82
9.11
9.32
9.36
9.2
8.83
8.26
7.49
6.61
5.77
5.11
4.7
4.5
4.35
4.05
3.5
2.76
2.01
1.44
1.11
1.01
1.03
1.11
1.23
1.42
1.65
1.75
1.52
0.76
-0.57
-2.38
-4.45
-6.55
-8.57
-10.44
-12.15
-13.69
-15.02
-16.17
-17.27
-18.46
-19.81
-21.1
-21.92
-21.78
-20.33
-17.61
-14.04
-10.27
-6.84
-3.97
-1.54
0.81
3.34
6.09
8.77
10.98
12.35
12.79
12.51
11.87
11.22
10.71
10.29
9.82
9.18
8.42
7.67
7.09
6.79
6.75
6.89
7.1
7.28
7.4
7.44
7.37
7.2
6.93
6.53
5.99
5.23
4.23
2.97
1.49
-0.13
-1.86
-3.68
-5.57
-7.47
-9.18
-10.53
-11.36
-11.7
-11.79
-11.93
-12.43
-13.39
-14.77
-16.34
-17.82
-18.89
-19.25
-18.63
-16.93
-14.22
-10.81
-7.18
-3.83
-1.05
1.09
2.7
3.99
5.05
5.91
6.48
6.72
6.68
6.47
6.26
6.19
6.28
6.52
6.86
7.24
7.64
8.0
8.31
8.56
8.77
8.97
9.14
9.22
9.08
8.61
7.85
6.91
5.98
5.17
4.48
3.75
2.75
1.37
-0.39
-2.35
-4.31
-6.1
-7.65
-8.97
-10.13
-11.26
-12.45
-13.8
-15.36
-17.05
-18.73
-20.13
-20.94
-20.9
-19.88
-17.92
-15.21
-12.03
-8.71
-5.5
-2.54
0.14
2.61
4.93
7.11
9.07
10.62
11.62
11.93
11.56
10.68
9.55
8.44
7.61
7.14
6.97
6.99
7.04
7.07
7.07
7.15
7.36
7.67
7.97
8.18
8.26
8.3
8.44
8.71
9.03
9.18
9.0
8.38
7.38
6.18
4.9
3.54
2.04
0.3
-1.7
-3.88
-6.12
-8.33
-10.49
-12.66
-14.9
-17.3
-19.97
-22.91
-26.01
-28.97
-31.32
-32.57
-32.32
-30.56
-27.62
-24.06
-20.48
-17.27
-14.54
-12.2
-10.0
-7.79
-5.47
-2.99
-0.37
2.33
5.09
7.81
10.43
12.88
15.13
17.13
18.83
20.12
20.94
21.3
21.3
21.09
20.72
20.17
19.32
18.07
16.46
14.69
12.98
11.49
10.21
8.98
7.71
6.35
5.02
3.88
3.0
2.33
1.7
1.04
0.3
-0.44
-1.13
-1.87
-2.85
-4.35
-6.67
-9.97
-14.21
-19.19
-24.5
-29.56
-33.71
-36.34
-37.04
-35.7
-32.57
-28.13
-22.98
-17.66
-12.59
-8.06
-4.2
-1.02
1.63
3.98
6.25
8.57
10.9
13.06
14.85
16.14
16.92
17.39
17.75
18.21
18.83
19.61
20.44
21.21
21.79
22.08
22.0
21.54
20.7
19.61
18.32
16.91
15.4
13.74
11.93
9.97
7.89
5.75
3.58
1.39
-0.79
-2.93
-4.95
-6.76
-8.25
-9.45
-10.53
-11.71
-13.32
-15.63
-18.78
-22.67
-26.95
-30.99
-34.12
-35.72
-35.4
-33.15
-29.34
-24.56
-19.44
-14.46
-9.84
-5.56
-1.47
2.57
6.58
10.45
14.01
17.12
19.72
21.81
23.43
24.58
25.21
25.26
24.76
23.85
22.79
21.83
21.08
20.46
19.79
18.85
17.54
15.96
14.38
13.04
12.05
11.34
10.71
9.94
8.86
7.44
5.7
3.68
1.42
-1.04
-3.63
-6.23
-8.7
-10.97
-13.05
-15.05
-17.22
-19.85
-23.15
-27.15
-31.56
-35.77
-38.96
-40.39
-39.58
-36.48
-31.53
-25.42
-18.9
-12.61
-6.94
-2.01
2.21
5.81
8.88
11.42
13.42
14.89
15.92
16.68
17.34
18.03
18.7
19.24
19.5
19.48
19.26
19.04
18.89
18.78
18.49
17.78
16.47
14.56
12.33
10.15
8.42
7.38
7.09
7.33
7.79
8.11
7.98
7.23
5.83
3.88
1.56
-0.89
-3.23
-5.31
-7.18
-9.04
-11.3
-14.37
-18.47
-23.42
-28.66
-33.27
-36.34
-37.21
-35.72
-32.2
-27.27
-21.62
-15.74
-9.88
-4.12
1.43
6.51
10.75
13.81
15.59
16.32
16.51
16.65
17.09
17.88
18.87
19.81
20.56
21.1
21.48
21.71
21.75
21.48
20.87
19.96
18.88
17.79
16.79
15.92
15.11
14.24
13.17
11.83
10.26
8.55
6.83
5.16
3.53
1.84
-0.01
-2.08
-4.34
-6.76
-9.24
-11.76
-14.29
-16.83
-19.41
-22.14
-25.16
-28.57
-32.3
-36.0
-39.03
-40.68
-40.37
-37.83
-33.29
-27.3
-20.59
-13.85
-7.56
-1.96
2.92
7.12
10.7
13.69
16.12
18.02
19.41
20.36
21.0
21.46
21.89
22.42
23.08
23.81
24.55
25.26
25.95
26.64
27.34
27.93
28.22
27.95
27.01
25.41
23.34
21.01
18.62
16.22
13.75
11.18
8.5
5.84
3.3
1.01
-0.96
-2.68
-4.28
-5.95
-7.86
-10.19
-13.04
-16.42
-20.27
-24.39
-28.49
-32.13
-34.77
-35.92
-35.24
-32.67
-28.51
-23.37
-17.93
-12.76
-8.13
-3.99
-0.13
3.62
7.26
10.6
13.36
15.36
16.67
17.52
18.2
18.91
19.68
20.43
21.08
21.65
22.22
22.89
23.65
24.32
24.74
24.79
24.45
23.82
23.01
22.07
20.95
19.6
17.98
16.16
14.24
12.3
10.37
8.43
6.46
4.47
2.46
0.37
-1.84
-4.3
-7.02
-9.99
-13.08
-16.18
-19.25
-22.34
-25.57
-29.06
-32.79
-36.55
-39.89
-42.2
-42.9
-41.59
-38.21
-33.11
-26.92
-20.34
-13.92
-7.99
-2.69
1.98
6.04
9.52
12.43
14.8
16.7
18.18
19.31
20.17
20.84
21.44
22.02
22.56
22.96
23.1
22.91
22.43
21.83
21.24
20.77
20.35
19.87
19.2
18.29
17.14
15.74
14.08
12.15
9.93
7.51
5.11
2.94
1.17
-0.18
-1.31
-2.47
-3.92
-5.81
-8.07
-10.57
-13.11
-15.61
-18.14
-20.84
-23.89
-27.26
-30.7
-33.71
-35.68
-36.07
-34.57
-31.21
-26.36
-20.6
-14.59
-8.9
-3.9
0.29
3.69
6.42
8.56
10.16
11.24
11.84
12.11
12.31
12.68
13.43
14.57
15.99
17.47
18.8
19.89
20.74
21.46
22.15
22.85
23.4
23.6
23.14
21.89
19.9
17.41
14.79
12.35
10.24
8.44
6.85
5.28
3.59
1.77
-0.23
-2.35
-4.55
-6.72
-8.78
-10.68
-12.47
-14.28
-16.28
-18.69
-21.63
-25.09
-28.89
-32.6
-35.61
-37.29
-37.14
-34.97
-31.02
-25.84
-20.19
-14.72
-9.86
-5.69
-1.99
1.51
5.02
8.57
11.99
15.04
17.53
19.45
20.86
21.92
22.74
23.39
23.89
24.32
24.73
25.18
25.56
25.69
25.34
24.42
23.02
21.38
19.74
18.27
16.94
15.6
14.1
12.41
10.62
8.88
7.31
5.94
4.68
3.43
2.09
0.63
-0.92
-2.52
-4.1
-5.67
-7.28
-9.02
-11.02
-13.35
-16.06
-19.15
-22.56
-26.19
-29.82
-33.12
-35.61
-36.77
-36.14
-33.52
-29.12
-23.46
-17.29
-11.33
-6.14
-1.97
1.19
3.56
5.43
7.11
8.82
10.62
12.43
14.14
15.58
16.66
17.39
17.87
18.22
18.55
18.89
19.19
19.42
19.44
19.21
18.68
17.82
16.68
15.27
13.68
12.06
10.55
9.25
8.21
7.34
6.54
5.65
4.61
3.42
2.15
0.89
-0.36
-1.64
-3.08
-4.78
-6.82
-9.08
-11.38
-13.49
-15.26
-16.75
-18.19
-19.94
-22.3
-25.33
-28.72
-31.85
-33.99
-34.54
-33.22
-30.18
-25.93
-21.13
-16.35
-11.92
-7.88
-4.14
-0.56
2.81
5.84
8.32
10.17
11.44
12.32
13.05
13.77
14.51
15.18
15.67
15.89
15.85
15.53
14.95
14.06
12.92
11.61
10.26
9.0
7.92
7.0
6.15
5.26
4.34
3.48
2.75
2.19
1.67
0.99
-0.03
-1.44
-3.15
-4.95
-6.64
-8.13
-9.46
-10.76
-12.19
-13.94
-16.21
-19.1
-22.64
-26.56
-30.3
-33.14
-34.34
-33.53
-30.75
-26.51
-21.58
-16.7
-12.4
-8.84
-5.92
-3.39
-1.0
1.41
3.93
6.5
9.04
11.41
13.48
15.13
16.28
16.89
16.97
16.68
16.2
15.76
15.49
15.43
15.45
15.38
15.04
14.32
13.26
12.01
10.85
10.0
9.57
9.47
9.41
9.09
8.25
6.82
4.94
2.83
0.76
-1.11
-2.71
-4.06
-5.24
-6.36
-7.61
-9.24
-11.5
-14.54
-18.26
-22.24
-25.83
-28.29
-29.03
-27.86
-24.96
-20.86
-16.15
-11.37
-6.86
-2.83
0.71
3.79
6.46
8.79
10.83
12.57
13.95
14.96
15.61
16.03
16.31
16.53
16.67
16.71
16.66
16.64
16.8
17.22
17.84
18.43
18.73
18.57
17.92
16.89
15.7
14.46
13.22
11.9
10.4
8.63
6.58
4.31
1.97
-0.29
-2.32
-4.1
-5.7
-7.19
-8.68
-10.23
-11.88
-13.69
-15.75
-18.13
-20.76
-23.33
-25.35
-26.19
-25.39
-22.82
-18.78
-13.91
-8.97
-4.59
-1.12
1.43
3.22
4.44
5.26
5.8
6.18
6.48
6.79
7.16
7.57
7.97
8.29
8.57
8.85
9.23
9.71
10.13
10.32
10.12
9.51
8.62
7.68
6.84
6.1
5.26
4.05
2.28
-0.01
-2.54
-4.92
-6.85
-8.27
-9.36
-10.42
-11.8
-13.73
-16.3
-19.47
-23.1
-26.87
-30.3
-32.78
-33.7
-32.69
-29.76
-25.37
-20.23
-15.12
-10.56
-6.76
-3.63
-0.94
1.5
3.77
5.87
7.77
9.49
11.09
12.61
14.04
15.31
16.34
17.09
17.63
18.11
18.64
19.23
19.7
19.84
19.45
18.46
16.99
15.23
13.4
11.65
9.97
8.35
6.73
5.05
3.27
1.39
-0.65
-2.83
-5.13
-7.41
-9.54
-11.42
-13.1
-14.76
-16.63
-18.86
-21.31
-23.57
-25.06
-25.22
-23.77
-20.81
-16.8
-12.36
-8.03
-4.13
-0.72
2.27
4.99
7.47
9.73
11.69
13.32
14.62
15.69
16.63
17.49
18.3
18.96
19.41
19.55
19.37
18.87
18.07
17.0
15.64
14.03
12.23
10.34
8.49
6.81
5.41
4.32
3.57
3.17
3.06
3.11
3.11
2.9
2.31
1.29
-0.11
-1.75
-3.54
-5.41
-7.43
-9.68
-12.24
-15.14
-18.34
-21.66
-24.79
-27.32
-28.74
-28.65
-26.81
-23.34
-18.65
-13.34
-8.03
-3.19
0.98
4.53
7.59
10.25
12.51
14.3
15.52
16.2
16.44
16.39
16.22
15.99
15.72
15.39
14.99
14.62
14.39
14.31
14.32
14.29
14.07
13.65
13.09
12.56
12.1
11.73
11.28
10.61
9.65
8.44
7.15
5.93
4.85
3.84
2.78
1.52
-0.0
-1.72
-3.5
-5.18
-6.65
-7.92
-9.1
-10.37
-11.93
-13.93
-16.46
-19.49
-22.81
-26.08
-28.81
-30.51
-30.78
-29.44
-26.59
-22.59
-17.98
-13.29
-8.97
-5.25
-2.17
0.4
2.59
4.56
6.39
8.1
9.64
10.95
12.0
12.76
13.25
13.46
13.41
13.12
12.63
11.99
11.3
10.61
9.96
9.37
8.83
8.32
7.86
7.48
7.24
7.24
7.47
7.85
8.23
8.41
8.27
7.74
6.89
5.81
4.62
3.36
2.02
0.6
-0.99
-2.86
-5.13
-7.91
-11.28
-15.14
-19.23
-23.18
-26.48
-28.67
-29.4
-28.57
-26.3
-22.95
-18.99
-14.93
-11.18
-7.92
-5.15
-2.7
-0.35
1.98
4.26
6.33
8.04
9.35
10.41
11.44
12.61
13.9
15.15
16.11
16.65
16.84
16.86
16.95
17.24
17.65
17.97
17.96
17.49
16.56
15.27
13.75
12.06
10.25
8.3
6.23
4.08
1.92
-0.18
-2.18
-4.05
-5.83
-7.55
-9.26
-10.98
-12.76
-14.65
-16.79
-19.34
-22.46
-26.11
-29.99
-33.58
-36.15
-37.1
-36.19
-33.51
-29.53
-24.84
-19.96
-15.22
-10.74
-6.56
-2.68
0.89
4.07
6.81
9.09
10.87
12.22
13.23
14.01
14.66
15.28
15.84
16.25
16.42
16.29
15.9
15.38
14.9
14.54
14.34
14.16
13.82
13.16
12.14
10.81
9.37
8.02
6.88
6.0
5.31
4.65
3.85
2.74
1.24
-0.65
-2.79
-4.96
-7.0
-8.78
-10.3
-11.66
-13.05
-14.67
-16.68
-19.17
-22.03
-24.92
-27.31
-28.64
-28.49
-26.81
-23.89
-20.28
-16.56
-13.15
-10.21
-7.74
-5.59
-3.65
-1.85
-0.18
1.39
2.9
4.36
5.82
7.29
8.79
10.24
11.55
12.6
13.32
13.72
13.9
14.06
14.35
14.82
15.36
15.7
15.57
14.83
13.51
11.87
10.2
8.75
7.53
6.41
5.15
3.56
1.67
-0.39
-2.37
-4.03
-5.29
-6.2
-6.98
-7.87
-9.07
-10.73
-12.89
-15.55
-18.5
-21.46
-23.96
-25.5
-25.69
-24.34
-21.58
-17.83
-13.64
-9.52
-5.75
-2.39
0.65
3.49
6.14
8.51
10.44
11.85
12.79
13.42
13.95
14.55
15.3
16.17
17.06
17.86
18.45
18.74
18.7
18.38
17.84
17.12
16.28
15.3
14.15
12.85
11.43
9.95
8.41
6.8
5.09
3.29
1.43
-0.39
-2.12
-3.76
-5.38
-7.01
-8.65
-10.23
-11.69
-13.06
-14.51
-16.29
-18.67
-21.76
-25.44
-29.25
-32.56
-34.68
-35.13
-33.77
-30.81
-26.83
-22.47
-18.2
-14.33
-10.88
-7.77
-4.94
-2.29
0.21
2.63
5.09
7.62
10.12
12.4
14.23
15.48
16.18
16.54
16.76
16.93
17.0
16.84
16.44
15.92
15.53
15.46
15.7
16.08
16.27
16.01
15.24
14.07
12.7
11.27
9.82
8.27
6.52
4.48
2.11
-0.53
-3.32
-6.1
-8.66
-10.86
-12.62
-14.03
-15.29
-16.66
-18.36
-20.47
-22.82
-25.11
-26.87
-27.65
-27.1
-25.12
-21.89
-17.83
-13.49
-9.39
-5.8
-2.8
-0.28
1.93
3.94
5.76
7.36
8.73
9.95
11.14
12.39
13.72
14.99
16.01
16.65
16.88
16.79
16.51
16.2
15.9
15.65
15.4
15.16
14.93
14.68
14.38
13.99
13.49
12.9
12.21
11.42
10.45
9.15
7.42
5.27
2.81
0.22
-2.31
-4.72
-7.02
-9.28
-11.56
-13.92
-16.38
-18.93
-21.56
-24.21
-26.67
-28.63
-29.67
-29.45
-27.81
-24.88
-21.02
-16.75
-12.51
-8.62
-5.14
-2.01
0.82
3.39
5.59
7.31
8.48
9.19
9.68
10.21
11.0
12.03
13.13
14.05
14.65
14.98
15.25
15.69
16.42
17.27
17.88
17.88
17.03
15.35
13.1
10.6
8.18
6.0
4.09
2.36
0.67
-1.07
-2.88
-4.68
-6.33
-7.73
-8.91
-9.96
-11.12
-12.59
-14.54
-17.02
-20.05
-23.55
-27.34
-31.04
-34.12
-35.89
-35.9
-34.01
-30.48
-25.92
-21.04
-16.36
-12.17
-8.48
-5.15
-2.06
0.87
3.58
6.03
8.18
10.06
11.74
13.32
14.85
16.33
17.67
18.78
19.6
20.1
20.36
20.42
20.38
20.3
20.19
20.04
19.8
19.33
18.56
17.49
16.21
14.96
13.96
13.29
12.88
12.5
11.9
10.96
9.79
8.62
7.63
6.83
5.99
4.81
3.07
0.81
-1.76
-4.25
-6.42
-8.17
-9.6
-10.96
-12.47
-14.35
-16.74
-19.71
-23.18
-26.88
-30.31
-32.84
-33.91
-33.22
-30.88
-27.3
-23.07
-18.69
-14.47
-10.47
-6.63
-2.9
0.7
4.03
6.98
9.47
11.52
13.23
14.72
16.1
17.43
18.7
19.83
20.77
21.5
22.04
22.42
22.64
22.67
22.44
21.87
20.93
19.7
18.36
17.05
15.92
14.98
14.17
13.35
12.48
11.49
10.39
9.22
7.98
6.72
5.48
4.33
3.32
2.36
1.34
0.06
-1.57
-3.49
-5.5
-7.34
-8.85
-10.07
-11.17
-12.41
-14.02
-16.04
-18.43
-21.09
-23.9
-26.71
-29.28
-31.27
-32.26
-31.88
-29.97
-26.7
-22.48
-17.88
-13.41
-9.4
-5.93
-2.87
0.02
2.93
5.95
9.05
12.1
14.88
17.2
18.91
19.96
20.39
20.32
19.89
19.3
18.67
18.16
17.83
17.72
17.8
18.02
18.25
18.36
18.24
17.83
17.15
16.22
15.12
13.82
12.3
10.56
8.65
6.67
4.77
3.09
1.65
0.41
-0.78
-2.08
-3.55
-5.18
-6.83
-8.36
-9.61
-10.51
-11.08
-11.48
-11.93
-12.76
-14.23
-16.52
-19.61
-23.21
-26.74
-29.47
-30.73
-30.11
-27.63
-23.71
-19.04
-14.29
-9.95
-6.24
-3.16
-0.59
1.54
3.26
4.57
5.54
6.33
7.15
8.2
9.52
11.05
12.59
13.95
15.06
15.91
16.63
17.32
18.06
18.73
19.17
19.21
18.7
17.63
16.14
14.45
12.77
11.24
9.89
8.75
7.78
6.95
6.21
5.49
4.65
3.57
2.25
0.72
-0.89
-2.5
-4.09
-5.73
-7.47
-9.34
-11.2
-12.88
-14.23
-15.22
-16.01
-16.93
-18.29
-20.27
-22.82
-25.58
-28.0
-29.53
-29.78
-28.68
-26.44
-23.45
-20.09
-16.6
-13.08
-9.53
-5.95
-2.43
0.91
3.9
6.46
8.55
10.21
11.54
12.68
13.69
14.6
15.37
15.92
16.25
16.42
16.58
16.85
17.24
17.66
17.94
17.92
17.6
17.09
16.56
16.13
15.77
15.35
14.68
13.58
12.03
10.11
7.99
5.84
3.84
2.05
0.51
-0.83
-2.06
-3.23
-4.37
-5.5
-6.57
-7.52
-8.33
-8.96
-9.47
-9.95
-10.57
-11.54
-13.08
-15.33
-18.26
-21.59
-24.75
-27.1
-28.04
-27.29
-24.96
-21.49
-17.5
-13.5
-9.83
-6.54
-3.62
-1.03
1.17
2.93
4.25
5.17
5.8
6.22
6.48
6.54
6.4
6.11
5.77
5.5
5.38
5.45
5.72
6.2
6.84
7.57
8.22
8.6
8.53
7.95
6.9
5.58
4.25
3.15
2.38
1.91
1.54
1.08
0.42
-0.42
-1.26
-1.91
-2.29
-2.48
-2.76
-3.43
-4.68
-6.6
-9.12
-12.04
-15.08
-17.88
-19.94
-20.78
-20.05
-17.69
-14.07
-9.85
-5.75
-2.3
0.33
2.29
3.82
5.14
6.25
7.12
7.7
8.05
8.34
8.64
9.01
9.35
9.64
9.9
10.23
10.77
11.52
12.34
13.0
13.27
12.96
12.07
10.68
8.92
6.92
4.81
2.66
0.53
-1.55
-3.58
-5.6
-7.63
-9.64
-11.54
-13.21
-14.49
-15.34
-15.82
-16.21
-16.88
-18.18
-20.22
-22.79
-25.37
-27.31
-27.96
-26.98
-24.4
-20.56
-16.06
-11.52
-7.45
-4.16
-1.67
0.14
1.54
2.83
4.27
6.0
7.97
10.03
11.94
13.51
14.58
15.11
15.15
14.82
14.29
13.71
13.21
12.85
12.66
12.56
12.43
12.16
11.67
10.97
10.14
9.22
8.25
7.17
5.94
4.56
3.07
1.53
0.02
-1.51
-3.17
-5.12
-7.48
-10.32
-13.62
-17.28
-21.2
-25.15
-28.74
-31.41
-32.56
-31.77
-28.99
-24.63
-19.43
-14.19
-9.53
-5.68
-2.61
-0.08
2.07
3.93
5.45
6.61
7.47
8.14
8.72
9.26
9.73
10.05
10.16
10.08
9.91
9.82
10.04
10.7
11.81
13.24
14.67
15.71
16.01
15.39
13.9
11.84
9.6
7.53
5.81
4.41
3.2
2.0
0.68
-0.82
-2.44
-4.08
-5.62
-6.96
-8.11
-9.13
-10.19
-11.55
-13.36
-15.71
-18.47
-21.31
-23.73
-25.26
-25.5
-24.3
-21.78
-18.29
-14.24
-10.11
-6.28
-2.97
-0.29
1.76
3.29
4.47
5.46
6.39
7.26
8.09
8.81
9.4
9.91
10.43
11.06
11.89
12.88
13.98
15.06
15.95
16.45
16.44
15.8
14.57
12.87
10.92
8.97
7.19
5.71
4.47
3.4
2.36
1.25
0.07
-1.16
-2.36
-3.44
-4.38
-5.2
-6.07
-7.25
-8.97
-11.34
-14.32
-17.56
-20.55
-22.66
-23.41
-22.54
-20.12
-16.55
-12.35
-8.1
-4.17
-0.7
2.32
5.03
7.51
9.7
11.46
12.67
13.27
13.37
13.21
13.02
12.93
12.96
13.03
13.06
13.01
12.93
12.89
12.89
12.91
12.93
12.91
12.84
12.72
12.54
12.31
12.03
11.68
11.19
10.46
9.32
7.67
5.48
2.9
0.14
-2.57
-5.11
-7.48
-9.77
-12.15
-14.73
-17.65
-20.99
-24.72
-28.67
-32.38
-35.26
-36.67
-36.27
-34.04
-30.4
-25.96
-21.31
-16.87
-12.81
-9.17
-5.92
-3.02
-0.43
1.93
4.2
6.54
9.03
11.6
14.02
16.01
17.4
18.17
18.48
18.59
18.71
18.86
18.96
18.87
18.47
17.87
17.23
16.72
16.35
15.96
15.26
14.11
12.6
10.99
9.58
8.55
7.78
6.97
5.83
4.29
2.49
0.74
-0.68
-1.75
-2.62
-3.56
-4.84
-6.67
-9.12
-12.27
-16.08
-20.4
-24.89
-28.94
-31.84
-32.93
-31.88
-28.8
-24.26
-19.07
-14.01
-9.55
-5.82
-2.67
0.25
3.19
6.24
9.29
12.18
14.76
16.93
18.67
19.95
20.73
20.97
20.7
20.03
19.21
18.48
18.02
17.89
17.94
17.96
17.75
17.12
16.03
14.51
12.66
10.6
8.55
6.73
5.32
4.46
4.09
4.01
3.89
3.42
2.46
1.04
-0.63
-2.29
-3.83
-5.31
-6.94
-8.95
-11.5
-14.58
-18.06
-21.68
-25.13
-28.06
-30.06
-30.74
-29.86
-27.41
-23.66
-19.1
-14.3
-9.72
-5.66
-2.24
0.58
2.86
4.67
6.09
7.2
8.07
8.8
9.47
10.11
10.75
11.42
12.07
12.75
13.46
14.19
14.95
15.67
16.3
16.72
16.85
16.64
16.09
15.25
14.21
13.06
11.89
10.72
9.5
8.14
6.52
4.62
2.43
0.05
-2.41
-4.8
-6.99
-8.95
-10.72
-12.49
-14.5
-17.0
-20.03
-23.34
-26.37
-28.41
-28.83
-27.41
-24.32
-20.1
-15.42
-10.84
-6.68
-3.07
-0.03
2.48
4.52
6.15
7.57
8.99
10.6
12.41
14.24
15.86
17.01
17.61
17.72
17.53
17.2
16.82
16.36
15.79
15.09
14.3
13.55
12.91
12.38
11.88
11.3
10.59
9.77
8.93
8.08
7.19
6.11
4.68
2.83
0.58
-1.87
-4.29
-6.46
-8.27
-9.76
-11.08
-12.47
-14.14
-16.26
-18.92
-22.12
-25.66
-29.16
-32.03
-33.62
-33.42
-31.25
-27.41
-22.6
-17.63
-13.12
-9.24
-5.87
-2.68
0.55
3.81
6.92
9.66
11.93
13.67
14.93
15.75
16.17
16.28
16.23
16.21
16.38
16.74
17.19
17.5
17.52
17.23
16.76
16.28
15.9
15.6
15.28
14.77
13.9
12.65
11.14
9.57
8.15
7.0
6.06
5.1
3.87
2.26
0.35
-1.69
-3.62
-5.35
-6.97
-8.66
-10.59
-12.89
-15.58
-18.63
-22.0
-25.57
-29.1
-32.15
-34.15
-34.54
-33.08
-29.85
-25.35
-20.19
-15.01
-10.24
-6.1
-2.57
0.42
2.94
5.1
6.91
8.42
9.69
10.77
11.76
12.8
13.98
15.3
16.74
18.17
19.51
20.73
21.82
22.73
23.36
23.54
23.1
21.94
20.12
17.82
15.31
12.8
10.43
8.2
6.08
4.02
2.05
0.23
-1.34
-2.58
-3.54
-4.34
-5.18
-6.24
-7.58
-9.14
-10.78
-12.33
-13.71
-14.94
-16.1
-17.35
-18.81
-20.56
-22.68
-25.11
-27.57
-29.57
-30.49
-29.75
-27.13
-22.85
-17.52
-11.95
-6.86
-2.7
0.47
2.8
4.55
5.89
6.88
7.56
8.01
8.37
8.8
9.46
10.33
11.29
12.09
12.56
12.68
12.6
12.52
12.62
12.93
13.34
13.64
13.68
13.41
12.85
12.16
11.48
10.9
10.4
9.84
9.04
7.78
5.97
3.63
0.97
-1.7
-4.07
-5.92
-7.19
-8.04
-8.82
-9.95
-11.82
-14.63
-18.3
-22.44
-26.41
-29.5
-31.13
-30.94
-28.92
-25.38
-20.82
-15.84
-10.94
-6.48
-2.69
0.4
2.82
4.63
5.98
7.04
8.02
9.16
10.57
12.3
14.22
16.12
17.79
19.12
20.06
20.67
21.02
21.15
21.05
20.68
19.95
18.82
17.26
15.37
13.27
11.17
9.2
7.5
6.05
4.76
3.51
2.22
0.81
-0.73
-2.37
-4.05
-5.71
-7.3
-8.82
-10.31
-11.89
-13.77
-16.07
-18.88
-22.04
-25.17
-27.73
-29.09
-28.83
-26.78
-23.19
-18.51
-13.36
-8.24
-3.51
0.65
4.17
6.99
9.06
10.36
10.96
11.04
10.84
10.61
10.48
10.52
10.62
10.64
10.46
10.05
9.46
8.8
8.24
7.8
7.49
7.17
6.74
6.1
5.24
4.22
3.15
2.15
1.3
0.61
0.0
-0.73
-1.75
-3.21
-5.04
-7.03
-8.85
-10.2
-10.99
-11.37
-11.69
-12.36
-13.69
-15.75
-18.35
-21.04
-23.25
-24.37
-23.98
-21.92
-18.42
-14.0
-9.28
-4.82
-0.94
2.27
4.83
6.76
8.1
8.87
9.2
9.31
9.43
9.69
10.08
10.41
10.48
10.2
9.69
9.21
9.06
9.42
10.22
11.18
11.92
12.11
11.63
10.58
9.19
7.73
6.37
5.18
4.15
3.25
2.45
1.72
1.01
0.21
-0.78
-1.99
-3.4
-4.93
-6.6
-8.56
-11.1
-14.51
-18.85
-23.83
-28.79
-32.89
-35.34
-35.72
-34.03
-30.63
-26.11
-21.06
-15.99
-11.28
-7.18
-3.79
-1.04
1.27
3.38
5.48
7.61
9.62
11.32
12.62
13.57
14.35
15.1
15.83
16.45
16.81
16.82
16.53
16.06
15.51
14.9
14.2
13.38
12.41
11.32
10.16
8.94
7.58
6.03
4.27
2.35
0.37
-1.53
-3.29
-4.9
-6.42
-7.97
-9.61
-11.4
-13.34
-15.44
-17.81
-20.57
-23.77
-27.27
-30.62
-33.15
-34.18
-33.3
-30.55
-26.41
-21.57
-16.71
-12.24
-8.29
-4.81
-1.67
1.14
3.69
5.94
7.88
9.51
10.82
11.85
12.72
13.62
14.69
16.04
17.56
19.03
20.22
20.99
21.34
21.4
21.27
21.0
20.57
19.91
18.97
17.75
16.25
14.45
12.31
9.81
6.99
3.98
1.0
-1.74
-4.05
-5.9
-7.35
-8.61
-9.91
-11.46
-13.43
-15.94
-18.98
-22.35
-25.7
-28.51
-30.14
-30.09
-28.2
-24.69
-20.17
-15.43
-11.07
-7.43
-4.44
-1.91
0.34
2.33
3.9
4.89
5.29
5.33
5.33
5.61
6.29
7.29
8.35
9.2
9.68
9.77
9.58
9.27
8.93
8.52
7.88
6.86
5.33
3.29
0.9
-1.56
-3.82
-5.72
-7.28
-8.66
-10.12
-11.91
-14.2
-17.07
-20.4
-23.97
-27.34
-29.93
-31.11
-30.38
-27.58
-22.93
-17.05
-10.75
-4.74
0.52
4.85
8.31
11.0
12.98
14.22
14.72
14.57
14.06
13.56
13.45
13.88
14.81
15.95
16.92
17.48
17.53
17.19
16.64
16.03
15.31
14.3
12.79
10.65
7.9
4.76
1.53
-1.51
-4.16
-6.41
-8.34
-10.21
-12.33
-15.02
-18.52
-22.88
-27.82
-32.77
-36.93
-39.43
-39.6
-37.19
-32.43
-26.0
-18.83
-11.85
-5.74
-0.75
3.26
6.68
9.89
13.09
16.2
19.0
21.24
22.83
23.89
24.64
25.32
26.08
26.87
27.56
27.98
28.02
27.73
27.26
26.76
26.27
25.66
24.64
22.91
20.27
16.76
12.64
8.32
4.18
0.47
-2.75
-5.58
-8.26
-11.06
-14.2
-17.8
-21.81
-25.99
-29.91
-33.0
-34.7
-34.62
-32.6
-28.85
-23.85
-18.24
-12.61
-7.35
-2.65
1.54
5.35
8.88
12.12
14.97
17.32
19.12
20.41
21.36
22.16
22.98
23.93
24.96
25.94
26.74
27.29
27.64
27.89
28.08
28.17
27.98
27.28
25.92
23.94
21.52
18.95
16.47
14.2
12.06
9.88
7.46
4.72
1.71
-1.44
-4.59
-7.65
-10.71
-14.02
-17.88
-22.6
-28.23
-34.51
-40.78
-46.16
-49.72
-50.82
-49.3
-45.53
-40.31
-34.58
-29.12
-24.44
-20.67
-17.7
-15.26
-13.09
-10.95
-8.64
-6.0
-3.01
0.3
3.74
7.12
10.29
13.22
16.04
18.89
21.81
24.67
27.17
29.01
30.06
30.4
30.31
30.18
30.24
30.57
31.06
31.47
31.63
31.45
30.92
30.12
29.08
27.83
26.34
24.56
22.47
20.07
17.41
14.57
11.6
8.61
5.67
2.84
0.17
-2.34
-4.79
-7.3
-10.12
-13.45
-17.42
-22.0
-26.93
-31.7
-35.59
-37.85
-37.88
-35.49
-30.97
-25.03
-18.58
-12.42
-6.98
-2.3
1.87
5.85
9.76
13.49
16.81
19.48
21.42
22.72
23.52
23.93
24.02
23.76
23.13
22.21
21.11
19.95
18.84
17.76
16.68
15.47
14.04
12.31
10.29
8.04
5.71
3.48
1.45
-0.35
-1.98
-3.57
-5.21
-6.93
-8.76
-10.72
-12.91
-15.5
-18.57
-22.05
-25.63
-28.75
-30.76
-31.13
-29.55
-26.1
-21.16
-15.27
-9.09
-3.12
2.26
6.86
10.67
13.74
16.17
18.04
19.39
20.25
20.68
20.77
20.69
20.62
20.66
20.84
21.07
21.23
21.15
20.77
20.07
19.06
17.8
16.3
14.59
12.67
10.52
8.19
5.8
3.45
1.25
-0.72
-2.47
-4.09
-5.7
-7.48
-9.62
-12.28
-15.62
-19.62
-24.07
-28.47
-32.12
-34.28
-34.39
-32.29
-28.23
-22.86
-16.87
-10.9
-5.33
-0.31
4.14
8.05
11.39
14.13
16.26
17.84
19.0
19.83
20.45
20.9
21.21
21.43
21.65
21.97
22.47
23.15
23.9
24.52
24.85
24.76
24.27
23.44
22.37
21.12
19.7
18.1
16.31
14.31
12.12
9.7
7.02
4.05
0.8
-2.68
-6.36
-10.24
-14.45
-19.13
-24.35
-29.88
-35.18
-39.46
-41.87
-41.78
-39.03
-33.98
-27.43
-20.37
-13.66
-7.81
-2.95
1.09
4.55
7.56
10.08
11.99
13.27
14.06
14.67
15.45
16.59
18.08
19.64
21.0
21.93
22.38
22.43
22.21
21.77
21.05
19.85
17.99
15.39
12.15
8.54
4.92
1.67
-1.01
-3.1
-4.78
-6.33
-8.02
-10.03
-12.44
-15.27
-18.41
-21.64
-24.58
-26.74
-27.6
-26.79
-24.29
-20.45
-15.86
-11.25
-7.12
-3.71
-0.99
1.2
3.0
4.4
5.36
5.84
5.94
5.92
6.1
6.68
7.67
8.93
10.23
11.39
12.39
13.27
14.06
14.71
15.01
14.71
13.67
11.9
9.59
6.96
4.2
1.43
-1.38
-4.27
-7.32
-10.59
-14.14
-18.0
-22.13
-26.3
-30.01
-32.57
-33.31
-31.81
-28.1
-22.69
-16.4
-10.1
-4.46
0.17
3.68
6.16
7.72
8.52
8.75
8.64
8.45
8.42
8.63
9.03
9.44
9.64
9.43
8.8
7.84
6.77
5.78
4.9
3.97
2.73
0.96
-1.38
-4.12
-6.83
-9.11
-10.69
-11.58
-12.09
-12.67
-13.81
-15.82
-18.79
-22.43
-26.21
-29.38
-31.21
-31.2
-29.13
-25.24
-20.03
-14.21
-8.42
-3.08
1.61
5.71
9.32
12.54
15.37
17.73
19.5
20.56
20.93
20.68
19.98
18.99
17.83
16.62
15.46
14.48
13.79
13.37
13.04
12.5
11.4
9.54
6.9
3.71
0.3
-3.08
-6.32
-9.43
-12.54
-15.8
-19.31
-23.2
-27.51
-32.17
-36.79
-40.71
-43.04
-43.02
-40.37
-35.35
-28.79
-21.67
-14.76
-8.47
-2.81
2.4
7.28
11.76
15.66
18.76
21.0
22.43
23.23
23.55
23.51
23.18
22.61
21.86
20.97
19.98
18.94
17.91
16.92
16.03
15.19
14.28
13.13
11.57
9.57
7.21
4.68
2.15
-0.32
-2.69
-4.99
-7.23
-9.4
-11.59
-13.98
-16.8
-20.22
-24.13
-28.07
-31.29
-32.99
-32.58
-29.9
-25.31
-19.46
-13.16
-7.09
-1.67
2.95
6.79
9.96
12.52
14.53
16.04
17.11
17.84
18.32
18.6
18.68
18.58
18.33
18.02
17.77
17.62
17.59
17.59
17.5
17.2
16.67
15.87
14.81
13.45
11.75
9.68
7.23
4.43
1.36
-1.89
-5.22
-8.5
-11.6
-14.39
-16.76
-18.68
-20.26
-21.65
-23.12
-24.93
-27.21
-29.9
-32.68
-34.98
-36.16
-35.65
-33.17
-28.84
-23.18
-16.93
-10.83
-5.36
-0.63
3.51
7.34
11.02
14.46
17.47
19.82
21.48
22.59
23.42
24.18
24.91
25.53
25.83
25.69
25.06
24.05
22.81
21.54
20.37
19.37
18.48
17.59
16.55
15.26
13.74
12.02
10.22
8.39
6.57
4.71
2.81
0.89
-1.02
-2.83
-4.52
-6.09
-7.54
-8.91
-10.21
-11.49
-12.82
-14.37
-16.35
-19.0
-22.39
-26.35
-30.43
-33.93
-36.08
-36.26
-34.25
-30.31
-25.11
-19.5
-14.22
-9.75
-6.14
-3.26
-0.85
1.24
3.09
4.71
6.14
7.52
9.0
10.68
12.61
14.69
16.82
18.86
20.79
22.59
24.3
25.85
27.14
28.01
28.36
28.16
27.48
26.41
25.05
23.45
21.6
19.52
17.23
14.79
12.3
9.82
7.45
5.27
3.28
1.5
-0.15
-1.74
-3.44
-5.38
-7.65
-10.21
-12.93
-15.57
-17.86
-19.64
-20.87
-21.71
-22.49
-23.59
-25.32
-27.74
-30.56
-33.16
-34.76
-34.66
-32.53
-28.57
-23.39
-17.86
-12.7
-8.3
-4.69
-1.66
1.05
3.55
5.8
7.7
9.21
10.38
11.36
12.3
13.26
14.2
14.95
15.4
15.45
15.14
14.61
14.02
13.51
13.14
12.85
12.55
12.17
11.63
10.94
10.19
9.52
9.04
8.8
8.76
8.75
8.55
7.96
6.89
5.33
3.43
1.37
-0.73
-2.78
-4.77
-6.74
-8.78
-10.99
-13.52
-16.45
-19.82
-23.45
-26.98
-29.9
-31.64
-31.74
-30.01
-26.58
-21.94
-16.73
-11.57
-6.88
-2.84
0.63
3.71
6.51
9.03
11.12
12.6
13.44
13.76
13.87
14.12
14.73
15.67
16.76
17.79
18.55
19.0
19.2
19.18
18.94
18.39
17.44
16.04
14.27
12.24
10.13
8.06
6.11
4.35
2.8
1.45
0.25
-0.92
-2.13
-3.51
-5.12
-7.0
-9.07
-11.25
-13.36
-15.31
-17.09
-18.82
-20.73
-23.11
-26.12
-29.76
-33.7
-37.38
-40.1
-41.2
-40.3
-37.34
-32.67
-26.9
-20.73
-14.81
-9.6
-5.28
-1.79
1.1
3.67
6.16
8.64
11.01
13.1
14.72
15.84
16.5
16.89
17.15
17.35
17.47
17.47
17.34
17.2
17.18
17.31
17.47
17.43
16.96
15.96
14.54
12.89
11.22
9.63
8.06
6.47
4.84
3.18
1.57
-0.02
-1.67
-3.43
-5.34
-7.29
-9.1
-10.61
-11.76
-12.65
-13.55
-14.84
-16.85
-19.79
-23.61
-27.93
-32.1
-35.27
-36.7
-35.98
-33.12
-28.56
-23.02
-17.22
-11.74
-6.89
-2.78
0.62
3.36
5.59
7.43
9.02
10.53
12.02
13.51
14.95
16.25
17.4
18.41
19.4
20.45
21.57
22.68
23.63
24.26
24.43
24.07
23.24
22.02
20.56
18.99
17.41
15.84
14.2
12.35
10.18
7.66
4.88
2.08
-0.48
-2.63
-4.4
-5.98
-7.65
-9.66
-12.06
-14.75
-17.48
-19.99
-22.08
-23.72
-25.0
-26.11
-27.31
-28.81
-30.74
-32.96
-35.12
-36.65
-36.91
-35.46
-32.17
-27.3
-21.42
-15.23
-9.35
-4.23
-0.03
3.28
5.86
7.86
9.36
10.41
11.01
11.3
11.5
11.86
12.52
13.42
14.33
14.95
15.15
15.01
14.76
14.59
14.57
14.56
14.37
13.93
13.28
12.59
12.05
11.72
11.54
11.35
11.03
10.51
9.75
8.81
7.7
6.48
5.14
3.68
2.07
0.21
-1.94
-4.41
-7.13
-9.99
-12.83
-15.62
-18.38
-21.25
-24.34
-27.66
-31.05
-34.14
-36.42
-37.38
-36.56
-33.74
-29.04
-22.96
-16.2
-9.59
-3.77
0.94
4.55
7.24
9.21
10.6
11.42
11.75
11.73
11.59
11.57
11.77
12.21
12.78
13.36
13.87
14.32
14.69
14.99
15.14
15.06
14.66
13.94
12.91
11.65
10.21
8.59
6.78
4.74
2.47
0.01
-2.53
-5.03
-7.38
-9.53
-11.53
-13.48
-15.52
-17.81
-20.42
-23.4
-26.57
-29.62
-32.04
-33.27
-32.83
-30.48
-26.36
-20.91
-14.79
-8.68
-3.06
1.8
5.85
9.09
11.55
13.26
14.22
14.55
14.43
14.11
13.82
13.67
13.65
13.63
13.5
13.27
13.08
13.15
13.65
14.54
15.62
16.57
17.1
17.07
16.48
15.46
14.12
12.62
11.02
9.38
7.75
6.11
4.38
2.42
0.12
-2.57
-5.54
-8.54
-11.36
-13.82
-15.9
-17.79
-19.77
-22.19
-25.31
-29.16
-33.47
-37.65
-40.92
-42.54
-42.03
-39.35
-34.92
-29.48
-23.82
-18.5
-13.77
-9.52
-5.51
-1.57
2.36
6.2
9.77
12.98
15.77
18.14
20.1
21.64
22.73
23.41
23.79
24.02
24.27
24.6
25.0
25.39
25.69
25.85
25.83
25.62
25.18
24.48
23.51
22.38
21.24
20.24
19.4
18.62
17.7
16.44
14.85
13.04
11.2
9.46
7.73
5.77
3.26
0.09
-3.58
-7.31
-10.63
-13.19
-14.99
-16.34
-17.73
-19.64
-22.38
-26.07
-30.59
-35.58
-40.53
-44.72
-47.39
-47.88
-45.91
-41.69
-35.91
-29.49
-23.25
-17.68
-12.88
-8.67
-4.79
-1.05
2.59
6.08
9.27
12.04
14.34
16.17
17.59
18.7
19.6
20.36
21.02
21.65
22.25
22.91
23.63
24.42
25.17
25.77
26.1
26.06
25.65
24.93
24.0
23.0
22.01
21.04
20.02
18.82
17.35
15.61
13.67
11.7
9.83
8.14
6.59
5.07
3.45
1.58
-0.59
-3.03
-5.63
-8.17
-10.45
-12.27
-13.7
-14.98
-16.54
-18.82
-22.11
-26.33
-31.01
-35.36
-38.51
-39.75
-38.78
-35.74
-31.15
-25.71
-20.08
-14.73
-9.87
-5.54
-1.67
1.84
5.0
7.83
10.28
12.35
14.07
15.48
16.62
17.49
18.08
18.4
18.5
18.46
18.39
18.33
18.29
18.26
18.23
18.21
18.18
18.18
18.21
18.27
18.32
18.28
18.01
17.42
16.43
15.06
13.45
11.71
9.95
8.15
6.28
4.28
2.21
0.14
-1.88
-3.86
-5.85
-7.97
-10.26
-12.69
-15.23
-17.89
-20.7
-23.66
-26.57
-28.97
-30.24
-29.8
-27.43
-23.33
-18.06
-12.37
-6.93
-2.15
1.76
4.82
7.09
8.67
9.7
10.33
10.78
11.24
11.85
12.61
13.44
14.21
14.81
15.22
15.53
15.88
16.4
17.12
17.87
18.39
18.41
17.81
16.61
14.99
13.18
11.31
9.45
7.55
5.62
3.7
1.9
0.37
-0.8
-1.66
-2.34
-3.03
-3.87
-4.87
-5.95
-6.99
-7.91
-8.76
-9.69
-10.9
-12.59
-14.86
-17.73
-21.2
-25.18
-29.44
-33.52
-36.77
-38.5
-38.17
-35.62
-31.2
-25.59
-19.66
-14.08
-9.27
-5.3
-1.98
0.91
3.61
6.2
8.65
10.9
12.9
14.65
16.17
17.56
18.83
20.0
21.08
22.04
22.96
23.84
24.63
25.23
25.52
25.41
24.88
23.98
22.8
21.44
20.0
18.54
17.11
15.73
14.34
12.89
11.27
9.43
7.44
5.46
3.63
2.04
0.6
-0.93
-2.8
-5.13
-7.86
-10.72
-13.42
-15.72
-17.62
-19.26
-20.9
-22.82
-25.22
-28.19
-31.63
-35.25
-38.59
-40.97
-41.76
-40.51
-37.12
-31.91
-25.49
-18.67
-12.14
-6.43
-1.75
1.94
4.83
7.24
9.4
11.47
13.5
15.47
17.34
19.13
20.84
22.42
23.77
24.77
25.3
25.34
25.01
24.45
23.81
23.14
22.41
21.58
20.63
19.6
18.54
17.51
16.43
15.21
13.74
11.94
9.85
7.59
5.3
3.08
0.99
-1.0
-2.96
-5.0
-7.14
-9.33
-11.45
-13.33
-14.85
-15.96
-16.8
-17.64
-18.85
-20.76
-23.59
-27.21
-31.22
-34.91
-37.55
-38.49
-37.4
-34.39
-29.86
-24.4
-18.6
-12.96
-7.75
-3.14
0.82
4.18
7.01
9.41
11.51
13.44
15.25
16.91
18.35
19.41
19.97
19.97
19.51
18.77
18.04
17.52
17.28
17.31
17.4
17.39
17.09
16.43
15.36
13.91
12.15
10.2
8.26
6.55
5.2
4.16
3.27
2.22
0.77
-1.12
-3.32
-5.51
-7.4
-8.78
-9.67
-10.29
-10.97
-12.02
-13.62
-15.84
-18.65
-21.93
-25.51
-29.02
-31.97
-33.78
-33.89
-32.04
-28.38
-23.43
-17.91
-12.52
-7.75
-3.81
-0.65
1.86
3.83
5.33
6.42
7.2
7.85
8.58
9.51
10.63
11.8
12.85
13.68
14.32
14.87
15.43
16.05
16.65
17.06
17.14
16.77
15.95
14.73
13.23
11.53
9.74
7.92
6.12
4.39
2.67
0.91
-1.0
-3.09
-5.39
-7.77
-10.13
-12.33
-14.34
-16.23
-18.14
-20.3
-22.88
-25.92
-29.25
-32.51
-35.16
-36.64
-36.53
-34.67
-31.24
-26.66
-21.44
-16.09
-10.99
-6.35
-2.26
1.28
4.31
6.92
9.18
11.19
13.01
14.66
16.16
17.45
18.47
19.12
19.32
18.96
18.07
16.74
15.17
13.6
12.17
10.9
9.73
8.57
7.38
6.26
5.38
4.93
5.02
5.57
6.37
7.15
7.66
7.8
7.58
7.05
6.22
5.05
3.43
1.32
-1.2
-3.99
-6.93
-10.05
-13.47
-17.34
-21.57
-25.79
-29.39
-31.66
-32.11
-30.64
-27.55
-23.4
-18.82
-14.33
-10.21
-6.59
-3.45
-0.73
1.68
3.85
5.86
7.79
9.67
11.46
13.14
14.63
15.88
16.88
17.67
18.28
18.71
19.02
19.21
19.32
19.41
19.47
19.48
19.37
19.06
18.43
17.45
16.11
14.52
12.82
11.15
9.58
8.06
6.55
4.93
3.16
1.28
-0.61
-2.49
-4.43
-6.49
-8.76
-11.21
-13.69
-16.05
-18.25
-20.44
-22.89
-25.8
-29.07
-32.27
-34.66
-35.49
-34.29
-31.08
-26.31
-20.75
-15.16
-10.02
-5.61
-1.96
1.05
3.5
5.54
7.25
8.77
10.17
11.48
12.66
13.64
14.37
14.84
15.1
15.16
15.01
14.65
14.15
13.62
13.21
13.04
13.07
13.13
13.0
12.52
11.66
10.59
9.48
8.52
7.67
6.77
5.6
3.97
1.88
-0.52
-2.96
-5.19
-7.09
-8.68
-10.11
-11.61
-13.34
-15.36
-17.65
-20.07
-22.4
-24.32
-25.48
-25.56
-24.33
-21.76
-18.02
-13.5
-8.64
-3.93
0.23
3.57
5.98
7.52
8.35
8.68
8.73
8.68
8.68
8.84
9.27
10.02
11.07
12.32
13.61
14.82
15.88
16.84
17.76
18.68
19.5
20.06
20.17
19.7
18.65
17.13
15.32
13.46
11.71
10.14
8.73
7.35
5.82
4.01
1.86
-0.57
-3.13
-5.69
-8.17
-10.57
-13.0
-15.57
-18.45
-21.79
-25.71
-30.12
-34.67
-38.71
-41.41
-42.02
-40.17
-36.05
-30.34
-23.99
-17.85
-12.43
-7.89
-4.1
-0.88
1.96
4.55
6.96
9.27
11.49
13.59
15.47
17.03
18.22
19.05
19.62
20.02
20.32
20.55
20.73
20.85
20.97
21.05
20.99
20.62
19.72
18.17
16.07
13.67
11.31
9.27
7.64
6.34
5.23
4.16
3.11
2.11
1.22
0.4
-0.42
-1.35
-2.5
-3.91
-5.64
-7.79
-10.44
-13.67
-17.42
-21.52
-25.61
-29.17
-31.66
-32.59
-31.72
-29.07
-25.0
-20.09
-15.01
-10.32
-6.33
-3.06
-0.3
2.17
4.5
6.71
8.73
10.52
12.1
13.54
14.95
16.31
17.61
18.79
19.85
20.87
21.89
22.86
23.61
23.89
23.54
22.5
20.88
18.88
16.76
14.67
12.71
10.94
9.39
8.1
7.09
6.36
5.79
5.26
4.6
3.69
2.46
0.93
-0.78
-2.58
-4.35
-6.06
-7.73
-9.49
-11.53
-14.09
-17.37
-21.37
-25.85
-30.21
-33.71
-35.57
-35.37
-33.06
-29.05
-24.01
-18.61
-13.41
-8.71
-4.66
-1.27
1.44
3.54
5.15
6.4
7.45
8.39
9.3
10.21
11.12
12.05
12.95
13.75
14.32
14.58
14.53
14.31
14.09
14.01
14.05
14.07
13.87
13.35
12.55
11.63
10.76
10.04
9.4
8.67
7.61
6.09
4.03
1.59
-1.04
-3.63
-6.02
-8.19
-10.24
-12.35
-14.7
-17.43
-20.54
-23.93
-27.32
-30.3
-32.4
-33.17
-32.35
-29.94
-26.26
-21.82
-17.12
-12.57
-8.3
-4.28
-0.4
3.39
7.02
10.36
13.26
15.61
17.43
18.84
19.97
20.93
21.76
22.47
22.97
23.22
23.17
22.85
22.38
21.83
21.24
20.5
19.44
17.93
15.95
13.66
11.29
9.12
7.24
5.63
4.07
2.34
0.24
-2.24
-4.97
-7.68
-10.1
-12.06
-13.56
-14.81
-16.17
-18.03
-20.56
-23.74
-27.22
-30.46
-32.85
-33.87
-33.15
-30.65
-26.56
-21.3
-15.42
-9.49
-4.01
0.71
4.52
7.51
9.82
11.65
13.14
14.38
15.37
16.1
16.58
16.81
16.85
16.76
16.63
16.55
16.55
16.66
16.83
16.95
16.95
16.72
16.26
15.52
14.52
13.24
11.64
9.72
7.52
5.17
2.8
0.54
-1.53
-3.41
-5.15
-6.88
-8.75
-10.95
-13.67
-17.03
-20.98
-25.22
-29.17
-32.1
-33.33
-32.48
-29.62
-25.21
-19.96
-14.56
-9.46
-4.86
-0.72
3.06
6.53
9.64
12.3
14.4
15.88
16.79
17.2
17.25
17.04
16.65
16.12
15.45
14.67
13.82
12.99
12.22
11.56
10.94
10.26
9.44
8.38
7.06
5.57
4.0
2.49
1.12
-0.11
-1.29
-2.57
-4.15
-6.15
-8.66
-11.66
-15.03
-18.55
-21.89
-24.64
-26.39
-26.81
-25.7
-23.13
-19.41
-15.04
-10.6
-6.57
-3.2
-0.45
1.93
4.23
6.63
9.09
11.38
13.21
14.46
15.15
15.52
15.81
16.17
16.56
16.79
16.69
16.15
15.28
14.26
13.34
12.64
12.13
11.6
10.78
9.5
7.69
5.51
3.21
1.05
-0.84
-2.46
-3.94
-5.49
-7.29
-9.5
-12.14
-15.23
-18.61
-22.02
-25.03
-27.09
-27.64
-26.29
-23.02
-18.19
-12.48
-6.66
-1.36
3.05
6.46
8.95
10.64
11.58
11.79
11.33
10.37
9.2
8.16
7.52
7.4
7.68
8.12
8.5
8.71
8.85
9.14
9.75
10.69
11.73
12.48
12.61
11.94
10.51
8.54
6.38
4.28
2.43
0.87
-0.43
-1.57
-2.72
-4.04
-5.73
-7.89
-10.5
-13.42
-16.31
-18.7
-20.13
-20.2
-18.69
-15.7
-11.6
-6.92
-2.31
1.77
5.04
7.53
9.41
10.94
12.31
13.54
14.56
15.25
15.57
15.51
15.15
14.61
13.92
13.14
12.3
11.44
10.58
9.75
8.88
7.88
6.69
5.26
3.67
1.99
0.35
-1.15
-2.43
-3.43
-4.21
-4.85
-5.57
-6.51
-7.79
-9.41
-11.3
-13.41
-15.78
-18.61
-22.05
-26.06
-30.28
-34.04
-36.52
-37.05
-35.35
-31.63
-26.48
-20.62
-14.72
-9.17
-4.12
0.45
4.61
8.37
11.68
14.41
16.47
17.82
18.52
18.72
18.66
18.49
18.3
18.09
17.81
17.42
16.98
16.59
16.42
16.52
16.8
17.04
17.02
16.56
15.67
14.46
13.11
11.79
10.54
9.35
8.18
7.03
5.87
4.66
3.31
1.65
-0.46
-3.06
-6.04
-9.13
-12.05
-14.59
-16.72
-18.62
-20.66
-23.19
-26.38
-30.04
-33.69
-36.55
-37.89
-37.21
-34.47
-30.0
-24.41
-18.35
-12.37
-6.86
-2.04
2.02
5.3
7.89
9.9
11.48
12.7
13.66
14.41
15.02
15.57
16.12
16.69
17.25
17.79
18.33
18.92
19.6
20.31
20.92
21.25
21.19
20.75
20.05
19.25
18.47
17.65
16.65
15.29
13.47
11.24
8.76
6.24
3.89
1.78
-0.05
-1.69
-3.15
-4.49
-5.67
-6.68
-7.53
-8.29
-9.03
-9.9
-10.98
-12.33
-14.02
-16.14
-18.7
-21.56
-24.42
-26.69
-27.81
-27.3
-25.04
-21.32
-16.73
-11.95
-7.56
-3.88
-0.95
1.31
3.0
4.2
4.92
5.17
5.05
4.75
4.54
4.67
5.24
6.2
7.36
8.51
9.57
10.57
11.61
12.75
13.97
15.03
15.68
15.74
15.16
14.02
12.48
10.7
8.77
6.81
4.88
3.13
1.59
0.2
-1.13
-2.57
-4.16
-5.78
-7.22
-8.29
-8.96
-9.46
-10.19
-11.52
-13.67
-16.48
-19.59
-22.45
-24.54
-25.52
-25.17
-23.51
-20.71
-17.09
-13.09
-9.14
-5.63
-2.75
-0.46
1.47
3.28
5.15
7.13
9.08
10.85
12.29
13.39
14.26
15.03
15.84
16.71
17.57
18.27
18.66
18.69
18.33
17.71
16.94
16.11
15.21
14.19
12.95
11.5
9.9
8.26
6.7
5.24
3.79
2.19
0.33
-1.83
-4.18
-6.57
-8.82
-10.81
-12.55
-14.12
-15.63
-17.18
-18.88
-20.84
-23.17
-25.92
-28.95
-31.89
-34.15
-35.06
-34.18
-31.41
-27.12
-22.01
-16.83
-12.14
-8.18
-4.86
-1.96
0.72
3.23
5.58
7.67
9.44
10.9
12.1
13.1
13.92
14.55
15.05
15.46
15.85
16.24
16.65
17.0
17.28
17.49
17.71
17.98
18.3
18.53
18.4
17.67
16.19
14.02
11.46
8.86
6.48
4.4
2.56
0.76
-1.06
-2.9
-4.64
-6.12
-7.26
-8.09
-8.7
-9.22
-9.72
-10.29
-11.09
-12.36
-14.42
-17.46
-21.39
-25.66
-29.41
-31.71
-31.91
-29.89
-26.05
-21.13
-15.91
-10.98
-6.64
-2.99
-0.03
2.27
3.98
5.23
6.23
7.22
8.3
9.52
10.72
11.74
12.48
12.97
13.37
13.87
14.59
15.49
16.45
17.25
17.74
17.8
17.42
16.62
15.43
13.9
12.11
10.21
8.4
6.85
5.6
4.59
3.62
2.49
1.03
-0.81
-2.98
-5.34
-7.76
-10.08
-12.24
-14.25
-16.19
-18.22
-20.49
-23.03
-25.74
-28.24
-30.04
-30.59
-29.47
-26.62
-22.31
-17.11
-11.7
-6.66
-2.37
1.06
3.66
5.57
6.94
7.91
8.66
9.35
10.15
11.14
12.26
13.36
14.23
14.67
14.65
14.29
13.81
13.41
13.2
13.14
13.04
12.75
12.16
11.33
10.36
9.38
8.42
7.46
6.39
5.18
3.78
2.22
0.51
-1.4
-3.55
-5.94
-8.42
-10.78
-12.79
-14.46
-16.03
-17.92
-20.52
-23.96
-27.99
-32.04
-35.29
-37.06
-36.87
-34.66
-30.75
-25.71
-20.23
-14.91
-10.18
-6.23
-3.03
-0.41
1.79
3.7
5.35
6.78
8.01
9.09
10.13
11.25
12.48
13.79
15.04
16.09
16.84
17.33
17.69
18.11
18.71
19.5
20.31
20.88
20.94
20.34
19.1
17.38
15.42
13.51
11.79
10.29
8.88
7.37
5.55
3.34
0.77
-2.0
-4.78
-7.42
-9.83
-12.09
-14.36
-16.78
-19.5
-22.57
-25.89
-29.17
-31.96
-33.75
-34.07
-32.64
-29.53
-25.08
-19.9
-14.69
-10.03
-6.28
-3.5
-1.44
0.27
1.97
3.8
5.68
7.42
8.89
10.07
11.07
11.98
12.85
13.62
14.23
14.7
15.14
15.66
16.33
17.07
17.69
18.02
17.99
17.66
17.2
16.71
16.23
15.71
15.1
14.33
13.4
12.33
11.19
10.01
8.83
7.58
6.11
4.27
1.94
-0.82
-3.83
-6.79
-9.49
-11.93
-14.31
-16.93
-20.0
-23.61
-27.53
-31.37
-34.6
-36.65
-37.07
-35.57
-32.13
-27.11
-21.15
-15.02
-9.45
-4.91
-1.51
0.91
2.63
3.93
4.96
5.88
6.78
7.82
9.13
10.75
12.54
14.27
15.65
16.53
16.94
17.11
17.32
17.78
18.48
19.2
19.63
19.4
18.41
16.78
14.82
12.86
11.14
9.7
8.42
7.09
5.53
3.67
1.49
-0.91
-3.37
-5.7
-7.77
-9.48
-10.89
-12.19
-13.7
-15.7
-18.36
-21.6
-25.11
-28.32
-30.58
-31.34
-30.3
-27.58
-23.72
-19.43
-15.39
-11.97
-9.14
-6.63
-4.11
-1.44
1.34
4.02
6.46
8.58
10.5
12.34
14.15
15.9
17.43
18.61
19.39
19.9
20.33
20.87
21.61
22.42
23.05
23.21
22.68
21.47
19.74
17.75
15.72
13.74
11.76
9.7
7.47
5.07
2.5
-0.17
-2.91
-5.7
-8.46
-11.12
-13.51
-15.58
-17.36
-19.07
-21.05
-23.66
-27.01
-30.86
-34.57
-37.33
-38.38
-37.3
-34.17
-29.49
-23.89
-18.0
-12.26
-6.91
-2.1
2.07
5.59
8.55
11.08
13.38
15.56
17.63
19.42
20.75
21.53
21.81
21.76
21.61
21.51
21.56
21.71
21.89
22.06
22.18
22.27
22.31
22.24
21.98
21.42
20.56
19.44
18.16
16.8
15.41
13.97
12.41
10.62
8.55
6.11
3.29
0.08
-3.44
-7.1
-10.69
-13.95
-16.68
-18.87
-20.67
-22.38
-24.32
-26.69
-29.41
-32.11
-34.25
-35.21
-34.52
-32.04
-27.96
-22.8
-17.23
-11.88
-7.23
-3.47
-0.54
1.78
3.72
5.42
6.95
8.32
9.58
10.79
12.07
13.5
15.04
16.61
18.05
19.23
20.08
20.6
20.86
20.95
20.93
20.8
20.55
20.11
19.4
18.39
17.11
15.67
14.16
12.7
11.22
9.66
7.92
5.99
3.93
1.87
-0.1
-2.0
-3.9
-5.94
-8.22
-10.75
-13.48
-16.33
-19.24
-22.2
-25.15
-27.98
-30.42
-32.11
-32.73
-32.01
-29.93
-26.65
-22.48
-17.77
-12.84
-7.9
-3.13
1.32
5.29
8.65
11.38
13.54
15.27
16.75
18.11
19.39
20.49
21.26
21.51
21.2
20.43
19.39
18.34
17.42
16.71
16.11
15.47
14.71
13.82
12.93
12.19
11.74
11.53
11.43
11.13
10.33
8.85
6.66
3.93
0.96
-1.99
-4.78
-7.43
-10.1
-12.96
-16.19
-19.86
-23.98
-28.37
-32.65
-36.29
-38.65
-39.16
-37.53
-33.9
-28.87
-23.2
-17.63
-12.63
-8.28
-4.39
-0.72
2.92
6.53
9.99
13.2
16.08
18.65
20.91
22.86
24.35
25.29
25.65
25.54
25.14
24.66
24.23
23.8
23.23
22.39
21.21
19.76
18.19
16.62
15.1
13.6
12.07
10.48
8.85
7.24
5.66
4.09
2.41
0.57
-1.4
-3.38
-5.22
-6.83
-8.26
-9.67
-11.27
-13.23
-15.66
-18.62
-22.06
-25.87
-29.8
-33.4
-36.08
-37.21
-36.38
-33.52
-28.95
-23.29
-17.26
-11.5
-6.44
-2.24
1.16
3.94
6.39
8.74
11.14
13.61
16.01
18.13
19.75
20.75
21.13
21.07
20.78
20.47
20.2
19.96
19.69
19.31
18.84
18.32
17.82
17.39
17.02
16.65
16.21
15.67
14.93
14.0
12.86
11.57
10.23
8.92
7.74
6.67
5.63
4.44
2.92
1.0
-1.26
-3.62
-5.84
-7.76
-9.47
-11.25
-13.48
-16.44
-20.21
-24.53
-28.85
-32.47
-34.69
-34.97
-33.11
-29.32
-24.13
-18.38
-12.81
-7.99
-4.12
-1.07
1.41
3.54
5.39
6.94
8.12
8.95
9.54
9.99
10.39
10.72
10.9
10.89
10.72
10.51
10.41
10.55
10.92
11.43
11.9
12.15
12.07
11.67
11.03
10.25
9.39
8.44
7.38
6.13
4.69
3.1
1.41
-0.26
-1.85
-3.33
-4.78
-6.38
-8.35
-10.92
-14.22
-18.07
-22.03
-25.42
-27.53
-27.85
-26.27
-23.09
-18.91
-14.35
-9.89
-5.83
-2.25
0.86
3.53
5.78
7.64
9.15
10.38
11.38
12.21
12.83
13.23
13.42
13.46
13.41
13.36
13.37
13.49
13.76
14.16
14.52
14.66
14.33
13.4
11.88
9.97
7.93
5.97
4.21
2.56
0.87
-1.01
-3.11
-5.33
-7.53
-9.53
-11.22
-12.61
-13.81
-15.05
-16.58
-18.58
-21.16
-24.28
-27.67
-30.86
-33.22
-34.13
-33.12
-30.1
-25.39
-19.68
-13.79
-8.41
-3.95
-0.43
2.39
4.79
7.02
9.13
11.03
12.6
13.8
14.65
15.25
15.71
16.05
16.25
16.22
15.92
15.45
14.91
14.44
14.07
13.7
13.16
12.23
10.87
9.19
7.43
5.85
4.58
3.58
2.65
1.56
0.19
-1.44
-3.14
-4.66
-5.89
-6.87
-7.82
-9.04
-10.82
-13.27
-16.34
-19.74
-23.03
-25.71
-27.28
-27.4
-25.89
-22.89
-18.76
-14.05
-9.3
-4.95
-1.21
1.92
4.54
6.76
8.61
10.1
11.18
11.89
12.33
12.61
12.86
13.13
13.4
13.56
13.54
13.34
13.04
12.74
12.51
12.34
12.11
11.7
10.99
9.96
8.65
7.1
5.35
3.42
1.32
-0.82
-2.87
-4.68
-6.2
-7.48
-8.64
-9.82
-11.19
-12.86
-14.91
-17.29
-19.79
-22.01
-23.46
-23.73
-22.54
-19.97
-16.38
-12.25
-8.02
-4.02
-0.32
3.06
6.09
8.71
10.78
12.17
12.82
12.86
12.5
12.01
11.58
11.3
11.09
10.76
10.2
9.32
8.22
7.08
6.11
5.51
5.31
5.42
5.57
5.52
5.08
4.21
3.03
1.72
0.45
-0.75
-1.94
-3.25
-4.78
-6.62
-8.86
-11.59
-14.88
-18.71
-22.82
-26.68
-29.6
-30.88
-30.14
-27.39
-23.06
-17.88
-12.58
-7.71
-3.48
0.11
3.24
6.03
8.56
10.79
12.62
13.97
14.81
15.22
15.28
15.09
14.74
14.26
13.7
13.12
12.65
12.41
12.49
12.85
13.33
13.65
13.61
13.12
12.27
11.19
9.97
8.63
7.09
5.29
3.27
1.14
-0.92
-2.78
-4.43
-5.92
-7.4
-9.0
-10.84
-13.02
-15.58
-18.5
-21.61
-24.55
-26.8
-27.87
-27.37
-25.27
-21.85
-17.65
-13.26
-9.14
-5.49
-2.27
0.68
3.53
6.29
8.91
11.22
13.1
14.53
15.55
16.28
16.8
17.11
17.15
16.87
16.26
15.43
14.58
13.92
13.54
13.42
13.35
13.13
12.58
11.72
10.71
9.75
9.0
8.46
7.96
7.32
6.29
4.81
2.94
0.85
-1.23
-3.15
-4.81
-6.28
-7.68
-9.23
-11.15
-13.58
-16.55
-19.82
-22.99
-25.48
-26.76
-26.47
-24.53
-21.17
-16.83
-12.11
-7.52
-3.5
-0.28
2.07
3.7
4.85
5.76
6.64
7.52
8.43
9.36
10.31
11.33
12.45
13.65
14.8
15.78
16.49
16.96
17.31
17.66
17.96
18.08
17.72
16.67
14.88
12.5
9.84
7.25
4.96
3.03
1.37
-0.13
-1.61
-3.09
-4.57
-5.94
-7.11
-8.03
-8.76
-9.4
-10.12
-11.11
-12.48
-14.23
-16.27
-18.4
-20.28
-21.57
-21.91
-21.06
-18.99
-15.88
-12.1
-8.09
-4.26
-0.86
2.02
4.46
6.54
8.31
9.77
10.82
11.45
11.72
11.78
11.86
12.07
12.45
12.87
13.19
13.28
13.18
12.95
12.74
12.56
12.34
11.95
11.28
10.33
9.22
8.11
7.18
6.51
6.11
5.86
5.64
5.29
4.7
3.81
2.6
1.08
-0.72
-2.73
-4.92
-7.23
-9.6
-12.03
-14.59
-17.38
-20.49
-23.9
-27.32
-30.27
-32.17
-32.52
-31.14
-28.17
-24.06
-19.4
-14.75
-10.47
-6.7
-3.35
-0.27
2.68
5.51
8.11
10.35
12.1
13.35
14.17
14.71
15.11
15.42
15.59
15.54
15.21
14.62
13.94
13.38
13.15
13.3
13.74
14.2
14.45
14.26
13.61
12.59
11.37
10.05
8.73
7.42
6.13
4.83
3.53
2.2
0.79
-0.75
-2.41
-4.13
-5.83
-7.36
-8.63
-9.61
-10.46
-11.43
-12.85
-14.93
-17.67
-20.81
-23.85
-26.21
-27.4
-27.16
-25.48
-22.64
-19.01
-15.04
-11.1
-7.45
-4.17
-1.26
1.3
3.58
5.58
7.3
8.7
9.8
10.62
11.19
11.55
11.75
11.79
11.7
11.48
11.18
10.86
10.61
10.48
10.47
10.52
10.48
10.2
9.61
8.67
7.42
6.04
4.66
3.48
2.61
2.09
1.86
1.79
1.7
1.45
1.0
0.4
-0.29
-0.98
-1.66
-2.4
-3.29
-4.48
-6.11
-8.34
-11.23
-14.71
-18.53
-22.19
-25.05
-26.53
-26.21
-24.08
-20.52
-16.15
-11.71
-7.67
-4.3
-1.53
0.83
2.93
4.81
6.38
7.51
8.17
8.41
8.36
8.15
7.92
7.77
7.8
8.08
8.7
9.68
11.0
12.49
13.93
15.1
15.83
16.01
15.65
14.86
13.78
12.57
11.31
9.97
8.53
6.86
4.92
2.67
0.15
-2.6
-5.47
-8.4
-11.33
-14.24
-17.13
-20.03
-22.87
-25.46
-27.49
-28.56
-28.3
-26.55
-23.4
-19.22
-14.48
-9.64
-5.05
-0.95
2.52
5.23
7.05
7.99
8.14
7.76
7.18
6.65
6.31
6.12
5.97
5.79
5.6
5.6
5.97
6.9
8.38
10.23
12.12
13.66
14.56
14.68
14.13
13.12
11.94
10.83
9.93
9.23
8.57
7.68
6.36
4.44
1.98
-0.76
-3.45
-5.84
-7.8
-9.41
-10.9
-12.52
-14.51
-17.0
-19.99
-23.3
-26.64
-29.45
-31.17
-31.3
-29.61
-26.29
-21.89
-17.12
-12.66
-8.91
-5.97
-3.68
-1.78
-0.0
1.8
3.65
5.45
7.11
8.59
9.93
11.15
12.23
13.1
13.62
13.76
13.59
13.3
13.12
13.2
13.49
13.78
13.83
13.43
12.59
11.41
10.13
8.93
7.91
7.04
6.21
5.23
3.94
2.26
0.27
-1.89
-3.99
-5.84
-7.34
-8.5
-9.47
-10.43
-11.62
-13.24
-15.37
-17.86
-20.38
-22.39
-23.31
-22.76
-20.67
-17.35
-13.36
-9.32
-5.69
-2.7
-0.32
1.58
3.16
4.51
5.67
6.66
7.52
8.29
9.02
9.7
10.31
10.81
11.16
11.36
11.46
11.5
11.57
11.67
11.73
11.66
11.29
10.55
9.39
7.86
6.08
4.18
2.32
0.58
-0.98
-2.37
-3.67
-4.9
-6.06
-7.04
-7.74
-8.08
-8.12
-8.06
-8.21
-8.85
-10.15
-12.1
-14.49
-16.91
-18.9
-20.01
-19.91
-18.49
-15.86
-12.36
-8.41
-4.44
-0.79
2.38
5.01
7.09
8.63
9.69
10.33
10.67
10.9
11.14
11.47
11.83
12.13
12.33
12.42
12.43
12.39
12.26
11.94
11.35
10.46
9.32
8.04
6.68
5.3
3.87
2.37
0.81
-0.74
-2.21
-3.54
-4.66
-5.65
-6.6
-7.64
-8.94
-10.64
-12.88
-15.7
-19.04
-22.67
-26.19
-29.09
-30.83
-31.02
-29.51
-26.45
-22.23
-17.34
-12.3
-7.47
-3.08
0.82
4.26
7.33
10.16
12.81
15.35
17.77
19.99
21.88
23.26
23.95
23.87
23.08
21.73
20.04
18.23
16.42
14.63
12.84
11.0
9.11
7.2
5.41
3.84
2.59
1.66
0.98
0.45
-0.1
-0.81
-1.74
-2.97
-4.44
-6.09
-7.76
-9.35
-10.78
-12.14
-13.64
-15.54
-17.96
-20.83
-23.74
-26.15
-27.51
-27.51
-26.13
-23.59
-20.21
-16.37
-12.35
-8.35
-4.54
-0.98
2.26
5.17
7.8
10.17
12.24
13.97
15.25
16.01
16.26
16.1
15.7
15.24
14.92
14.86
15.07
15.54
16.12
16.6
16.79
16.51
15.68
14.37
12.75
11.01
9.3
7.77
6.5
5.55
4.94
4.62
4.45
4.22
3.75
2.97
1.98
0.97
0.08
-0.68
-1.49
-2.7
-4.6
-7.42
-11.12
-15.51
-20.24
-24.79
-28.56
-30.93
-31.45
-29.94
-26.66
-22.2
-17.33
-12.73
-8.79
-5.56
-2.86
-0.49
1.72
3.74
5.5
6.9
7.92
8.62
9.08
9.4
9.66
9.94
10.27
10.69
11.18
11.71
12.27
12.78
13.18
13.37
13.33
13.05
12.67
12.31
12.11
12.09
12.18
12.28
12.25
12.05
11.63
10.95
9.98
8.67
7.02
5.13
3.16
1.29
-0.37
-1.82
-3.21
-4.76
-6.68
-9.09
-12.0
-15.22
-18.38
-21.02
-22.72
-23.18
-22.32
-20.3
-17.44
-14.16
-10.82
-7.75
-5.12
-3.04
-1.48
-0.35
0.51
1.23
1.95
2.72
3.53
4.34
5.1
5.82
6.49
7.15
7.8
8.44
9.05
9.58
9.97
10.18
10.14
9.8
9.2
8.41
7.59
6.9
6.43
6.19
6.03
5.76
5.22
4.36
3.21
1.89
0.49
-0.93
-2.45
-4.2
-6.27
-8.7
-11.42
-14.22
-16.8
-18.78
-19.83
-19.71
-18.37
-15.98
-12.87
-9.43
-6.02
-2.83
0.08
2.71
5.02
6.94
8.38
9.36
10.02
10.59
11.26
11.99
12.59
12.71
12.14
10.9
9.26
7.63
6.38
5.67
5.44
5.47
5.49
5.32
4.89
4.18
3.24
2.08
0.7
-0.88
-2.62
-4.41
-6.15
-7.67
-8.89
-9.82
-10.58
-11.4
-12.56
-14.23
-16.41
-18.92
-21.39
-23.38
-24.43
-24.25
-22.75
-20.09
-16.61
-12.8
-9.11
-5.87
-3.19
-1.01
0.85
2.6
4.41
6.33
8.41
10.59
12.78
14.84
16.62
17.96
18.81
19.2
19.21
18.92
18.41
17.73
16.91
15.93
14.77
13.4
11.81
10.02
8.08
6.08
4.13
2.3
0.62
-0.92
-2.38
-3.81
-5.25
-6.68
-8.04
-9.25
-10.21
-10.95
-11.56
-12.28
-13.4
-15.19
-17.7
-20.77
-23.95
-26.64
-28.19
-28.16
-26.37
-23.09
-18.82
-14.27
-10.03
-6.41
-3.47
-0.95
1.42
3.83
6.31
8.71
10.89
12.73
14.23
15.4
16.27
16.81
17.0
16.84
16.41
15.8
15.16
14.59
14.17
13.89
13.69
13.47
13.12
12.49
11.49
10.12
8.51
6.81
5.24
3.9
2.77
1.76
0.76
-0.29
-1.38
-2.42
-3.33
-4.07
-4.67
-5.19
-5.72
-6.38
-7.31
-8.71
-10.76
-13.51
-16.81
-20.33
-23.51
-25.78
-26.65
-25.9
-23.58
-20.0
-15.71
-11.29
-7.24
-3.84
-1.13
1.13
3.23
5.39
7.65
9.85
11.76
13.22
14.19
14.79
15.17
15.4
15.48
15.37
15.04
14.58
14.12
13.8
13.68
13.7
13.72
13.57
13.14
12.39
11.38
10.2
8.97
7.77
6.6
5.4
4.07
2.52
0.75
-1.16
-3.09
-4.86
-6.35
-7.47
-8.24
-8.79
-9.37
-10.26
-11.75
-13.94
-16.64
-19.38
-21.52
-22.42
-21.78
-19.69
-16.53
-12.83
-9.07
-5.55
-2.36
0.44
2.81
4.68
6.01
6.86
7.37
7.79
8.32
9.08
10.04
11.12
12.21
13.2
14.05
14.76
15.31
15.71
15.93
15.95
15.72
15.23
14.45
13.4
12.09
10.57
8.84
6.9
4.73
2.31
-0.31
-3.04
-5.7
-8.02
-9.81
-10.94
-11.47
-11.65
-11.84
-12.39
-13.52
-15.24
-17.36
-19.49
-21.2
-22.03
-21.68
-20.05
-17.25
-13.66
-9.73
-5.93
-2.64
-0.04
1.87
3.24
4.24
5.05
5.8
6.51
7.18
7.73
8.12
8.33
8.42
8.47
8.58
8.89
9.54
10.57
11.96
13.55
15.14
16.49
17.44
17.94
18.01
17.72
17.1
16.19
15.0
13.53
11.79
9.83
7.59
5.04
2.14
-1.03
-4.32
-7.51
-10.41
-12.97
-15.22
-17.32
-19.45
-21.82
-24.56
-27.72
-31.21
-34.7
-37.65
-39.43
-39.48
-37.54
-33.71
-28.46
-22.43
-16.24
-10.38
-5.1
-0.49
3.45
6.78
9.6
12.03
14.17
16.09
17.77
19.15
20.1
20.56
20.53
20.1
19.41
18.62
17.86
17.2
16.68
16.24
15.81
15.33
14.7
13.87
12.8
11.52
10.1
8.6
7.15
5.85
4.77
3.88
3.03
2.01
0.64
-1.08
-3.02
-4.94
-6.59
-7.89
-8.88
-9.79
-10.87
-12.37
-14.44
-17.09
-20.18
-23.32
-26.06
-27.89
-28.45
-27.56
-25.31
-21.98
-17.92
-13.52
-9.16
-5.14
-1.7
1.09
3.31
5.11
6.68
8.1
9.39
10.49
11.37
12.0
12.39
12.52
12.35
11.88
11.19
10.53
10.22
10.48
11.32
12.48
13.49
13.9
13.5
12.38
10.88
9.38
8.16
7.25
6.48
5.61
4.52
3.24
1.93
0.75
-0.2
-0.98
-1.77
-2.8
-4.23
-6.21
-8.72
-11.66
-14.84
-18.02
-20.9
-23.14
-24.48
-24.72
-23.84
-21.94
-19.23
-15.98
-12.38
-8.6
-4.78
-1.01
2.53
5.69
8.36
10.48
12.1
13.34
14.27
14.97
15.5
15.9
16.2
16.38
16.36
15.99
15.21
14.02
12.6
11.22
10.13
9.4
8.93
8.49
7.83
6.85
5.57
4.12
2.68
1.28
-0.08
-1.5
-3.06
-4.87
-6.99
-9.51
-12.46
-15.79
-19.29
-22.54
-24.98
-26.06
-25.43
-23.08
-19.36
-14.86
-10.18
-5.82
-1.98
1.32
4.2
6.75
9.0
10.86
12.23
12.98
13.09
12.61
11.72
10.6
9.48
8.52
7.8
7.34
7.1
6.99
6.95
6.89
6.75
6.49
6.11
5.65
5.23
4.96
4.9
5.02
5.17
5.16
4.83
4.06
2.85
1.23
-0.73
-2.94
-5.34
-7.87
-10.5
-13.27
-16.25
-19.49
-22.82
-25.83
-27.98
-28.71
-27.72
-25.09
-21.19
-16.62
-11.9
-7.36
-3.18
0.56
3.83
6.59
8.87
10.7
12.2
13.43
14.42
15.16
15.66
15.94
16.07
16.08
15.98
15.79
15.55
15.36
15.31
15.46
15.71
15.84
15.57
14.7
13.2
11.21
8.97
6.76
4.76
3.05
1.61
0.36
-0.76
-1.86
-2.98
-4.14
-5.29
-6.32
-7.22
-8.0
-8.86
-10.04
-11.78
-14.13
-16.96
-19.88
-22.39
-24.01
-24.33
-23.19
-20.65
-17.0
-12.71
-8.32
-4.32
-1.04
1.46
3.32
4.75
5.94
6.95
7.72
8.13
8.16
7.91
7.58
7.39
7.47
7.82
8.36
9.03
9.81
10.7
11.68
12.67
13.57
14.27
14.73
15.02
15.26
15.55
15.87
16.06
15.9
15.22
13.9
11.99
9.66
7.16
4.67
2.29
0.02
-2.2
-4.47
-6.83
-9.33
-11.97
-14.83
-17.89
-21.05
-24.02
-26.31
-27.38
-26.77
-24.39
-20.48
-15.63
-10.53
-5.76
-1.63
1.87
4.87
7.52
9.84
11.71
12.93
13.43
13.28
12.72
12.05
11.44
10.9
10.3
9.49
8.51
7.58
6.99
6.95
7.41
8.08
8.57
8.61
8.18
7.46
6.7
6.01
5.34
4.51
3.38
1.93
0.3
-1.4
-3.1
-4.81
-6.55
-8.3
-9.96
-11.49
-12.96
-14.55
-16.48
-18.79
-21.2
-23.2
-24.18
-23.66
-21.55
-18.13
-13.9
-9.45
-5.25
-1.62
1.34
3.6
5.26
6.47
7.44
8.32
9.2
10.09
10.84
11.31
11.47
11.4
11.28
11.29
11.54
12.03
12.6
13.16
13.6
13.85
13.83
13.44
12.6
11.27
9.54
7.63
5.78
4.21
2.93
1.89
0.88
-0.23
-1.49
-2.85
-4.14
-5.23
-6.07
-6.66
-7.14
-7.64
-8.32
-9.32
-10.82
-13.0
-15.88
-19.25
-22.64
-25.34
-26.59
-25.94
-23.36
-19.3
-14.53
-9.83
-5.77
-2.59
-0.24
1.47
2.76
3.79
4.67
5.46
6.25
7.09
8.03
9.04
10.07
10.96
11.59
11.9
11.88
11.65
11.4
11.31
11.47
11.79
12.14
12.36
12.34
12.08
11.69
11.24
10.73
10.06
9.08
7.72
5.99
4.01
1.95
-0.08
-2.0
-3.82
-5.58
-7.38
-9.3
-11.42
-13.79
-16.39
-19.11
-21.68
-23.8
-25.06
