2013-02-24 11:15:28
64.0
-0.0
-0.0
-0.0
-0.0
-0.0
-0.0
-0.0
-0.0
-0.0
-0.0
0.0
0.01
0.01
-0.0
-0.03
-0.05
-0.05
0.0
0.13
0.36
0.66
1.01
1.37
1.72
2.06
2.4
2.79
3.24
3.8
4.42
5.06
5.66
6.2
6.68
7.15
7.68
8.31
9.14
10.09
11.04
11.88
12.56
13.14
13.76
14.65
15.96
17.91
20.32
22.9
25.38
27.58
29.57
31.68
34.32
37.81
42.54
48.15
54.1
59.83
64.97
69.58
74.14
79.34
85.71
93.76
103.0
112.62
121.73
129.77
136.75
143.3
150.75
157.77
166.64
177.95
191.79
206.97
220.57
228.25
225.36
208.53
176.87
132.76
80.05
23.07
-34.94
-92.44
-149.16
-205.23
-260.37
-313.74
-363.87
-409.83
-450.91
-486.5
-515.74
-537.23
-549.22
-549.96
-538.37
-514.21
-478.67
-433.88
-382.45
-327.02
-269.84
-212.63
-156.66
-102.95
-52.37
-5.9
35.58
71.43
101.35
125.5
144.38
158.69
169.15
176.37
180.75
182.57
182.07
179.51
175.23
169.65
163.18
156.15
148.81
141.3
133.69
126.02
118.33
110.69
103.16
95.8
88.68
81.83
75.25
68.95
62.95
57.25
51.86
46.78
42.03
37.59
33.45
29.61
26.07
22.81
19.83
17.11
14.67
12.48
10.54
8.83
7.35
6.07
4.97
4.05
3.27
2.62
2.09
1.65
1.3
1.01
0.79
0.61
0.47
0.37
0.29
0.23
0.19
0.16
0.15
0.15
0.16
0.17
0.19
0.22
0.26
0.29
0.33
0.38
0.42
0.47
0.52
0.56
0.61
0.67
0.73
0.79
0.85
0.93
1.01
1.1
1.2
1.31
1.43
1.57
1.73
1.9
2.09
2.31
2.55
2.81
3.1
3.42
3.78
4.16
4.58
5.04
5.53
6.06
6.63
7.24
7.89
8.59
9.33
10.11
10.95
11.83
12.74
13.71
14.75
15.84
17.0
18.22
19.48
20.77
22.02
23.17
24.13
24.76
24.97
24.61
23.62
21.89
19.44
16.3
12.53
8.31
3.83
-0.72
-5.11
-9.13
-12.61
-15.41
-17.46
-18.74
-19.29
-19.19
-18.54
-17.49
-16.12
-14.54
-12.82
-11.0
-9.14
-7.22
-5.34
-3.51
-1.75
-0.02
1.71
3.51
5.41
7.45
9.66
11.91
14.12
16.28
18.43
20.62
22.97
25.57
28.48
31.81
35.27
38.73
42.14
45.55
49.09
52.91
57.12
61.79
66.91
71.93
76.53
80.58
84.22
87.76
91.54
95.79
100.52
105.55
109.91
112.88
114.04
113.37
111.01
106.98
100.65
90.32
78.22
64.2
47.97
29.54
9.5
-11.31
-31.91
-51.62
-70.27
-88.01
-106.02
-125.43
-147.37
-172.69
-201.45
-232.27
-261.96
-285.92
-299.38
-299.61
-286.53
-262.95
-233.51
-202.94
-174.5
-149.42
-127.34
-107.26
-88.82
-71.98
-56.86
-43.23
-30.49
-17.94
-5.24
7.28
18.81
28.14
34.45
37.59
38.09
36.9
35.07
33.32
31.94
30.82
29.62
28.07
26.13
23.92
21.58
19.13
16.38
13.02
8.83
3.81
-1.73
-7.34
-12.67
-17.6
-22.43
-27.7
-34.1
-42.09
-51.73
-62.36
-72.56
-80.24
-83.14
-79.43
-68.35
-50.58
-28.18
-4.0
19.04
38.69
53.74
64.0
70.05
72.75
73.01
71.6
69.15
66.22
63.32
60.9
59.3
58.62
58.77
59.5
60.51
61.51
62.31
62.78
62.81
62.23
60.76
58.13
54.03
48.42
41.51
33.83
26.13
19.1
13.13
8.18
3.77
-0.82
-6.17
-12.47
-19.43
-26.43
-32.84
-38.25
-42.72
-46.67
-50.8
-55.85
-62.5
-71.1
-81.38
-92.31
-102.0
-108.07
-108.25
-101.15
-86.77
-66.57
-43.11
-19.21
2.66
20.88
34.73
44.19
49.67
51.78
51.18
48.56
44.72
40.5
36.74
34.17
33.25
34.02
36.14
38.98
41.82
44.06
45.35
45.54
44.56
42.32
38.67
33.42
26.53
18.21
8.98
-0.42
-9.19
-16.75
-22.91
-27.99
-32.68
-37.89
-44.51
-52.98
-63.11
-73.9
-83.57
-89.89
-90.77
-84.88
-72.12
-53.73
-31.92
-9.3
11.81
29.81
43.86
53.78
59.66
61.75
60.44
56.38
50.57
44.26
38.74
34.93
33.2
33.29
34.49
36.02
37.31
38.14
38.55
38.6
38.17
36.89
34.22
29.68
23.08
14.62
4.87
-5.38
-15.32
-24.34
-32.23
-39.23
-46.02
-53.57
-62.78
-74.0
-86.68
-99.15
-108.9
-113.16
-109.73
-97.8
-78.26
-53.47
-26.59
-0.73
21.81
39.78
52.88
61.46
66.09
67.45
66.25
63.33
59.62
56.0
53.17
51.47
50.81
50.76
50.78
50.42
49.5
48.12
46.52
44.85
43.0
40.49
36.63
30.83
22.87
13.12
2.48
-7.92
-17.14
-24.78
-31.11
-36.98
-43.54
-51.81
-62.33
-74.78
-87.86
-99.28
-106.31
-106.52
-98.53
-82.69
-60.99
-36.55
-12.65
8.15
24.52
36.33
44.24
49.23
52.15
53.56
53.71
52.74
50.81
48.36
46.17
45.31
46.85
51.47
59.22
69.68
82.19
96.34
111.87
128.5
145.35
160.71
172.2
177.49
175.0
164.45
146.9
124.3
99.03
73.39
49.24
27.79
9.36
-6.7
-21.99
-38.52
-58.05
-81.5
-108.64
-138.11
-167.72
-194.77
-216.29
-229.51
-232.39
-224.29
-206.26
-180.72
-150.71
-118.84
-86.85
-55.59
-25.61
2.26
26.86
47.17
62.99
75.24
85.64
95.85
106.59
117.37
127.01
134.47
139.65
143.48
147.3
151.86
156.56
159.43
157.96
150.57
137.63
121.54
105.74
92.87
83.59
76.23
67.69
55.03
36.65
12.9
-14.15
-41.43
-65.54
-83.63
-94.22
-98.11
-98.74
-101.79
-113.41
-137.71
-174.42
-217.98
-258.76
-286.2
-292.49
-275.05
-237.06
-185.93
-130.58
-78.72
-35.07
-0.79
25.98
48.75
71.23
95.87
123.12
151.43
178.0
199.93
215.27
223.54
225.53
222.53
215.65
205.36
191.44
173.05
149.11
118.94
83.09
43.94
5.62
-27.15
-50.68
-63.76
-68.17
-67.59
-65.92
-65.55
-66.92
-69.05
-70.73
-71.48
-71.59
-71.64
-71.67
-71.1
-69.14
-65.49
-60.94
-57.15
-56.11
-59.13
-66.05
-74.89
-82.29
-84.51
-78.67
-63.96
-42.04
-16.68
7.39
26.01
36.91
40.29
38.37
34.29
30.79
29.35
30.09
32.26
34.97
37.62
39.96
41.86
43.02
42.99
41.4
38.44
34.96
32.25
31.45
32.91
35.95
39.07
40.52
38.99
33.99
25.93
15.91
5.33
-4.54
-12.89
-19.37
-24.06
-27.09
-28.46
-27.92
-25.25
-20.54
-14.53
-8.71
-4.95
-4.95
-9.59
-18.55
-30.34
-42.84
-54.01
-62.56
-68.38
-72.25
-75.41
-78.76
-82.42
-85.57
-86.88
-85.18
-79.93
-71.44
-60.59
-48.43
-35.84
-23.38
-11.38
-0.1
10.13
18.82
25.51
29.85
31.79
31.65
30.13
28.1
26.39
25.56
25.76
26.68
27.75
28.38
28.15
26.94
24.91
22.38
19.67
17.07
14.77
12.86
11.41
10.4
9.86
9.76
10.06
10.65
11.32
11.77
11.68
10.79
9.06
6.68
4.05
1.61
-0.46
-2.27
-4.22
-6.79
-10.25
-14.53
-19.23
-23.75
-27.62
-30.65
-32.99
-35.09
-37.57
-40.92
-45.36
-50.64
-55.99
-60.26
-62.12
-60.52
-55.03
-46.01
-34.53
-22.03
-9.92
0.78
9.46
15.87
20.03
22.11
22.5
21.76
20.53
19.43
18.85
18.91
19.47
20.3
21.17
21.95
22.66
23.31
23.91
24.39
24.61
24.38
23.61
22.29
20.58
18.74
17.01
15.43
13.9
12.16
9.97
7.24
4.12
0.93
-1.94
-4.22
-5.89
-7.16
-8.44
-10.13
-12.47
-15.43
-18.81
-22.28
-25.56
-28.47
-31.0
-33.32
-35.76
-38.71
-42.46
-46.94
-51.57
-55.23
-56.5
-54.13
-47.49
-36.89
-23.59
-9.36
3.99
15.09
23.26
28.37
30.59
30.3
27.94
24.17
19.83
15.87
13.08
11.87
12.22
13.75
15.91
18.24
20.31
21.8
22.5
22.32
21.39
19.96
18.27
16.35
13.97
10.88
7.01
2.7
-1.5
-5.02
-7.69
-9.75
-11.7
-14.01
-16.85
-20.05
-23.29
-26.25
-28.78
-30.97
-33.01
-35.18
-37.79
-41.21
-45.7
-51.34
-57.82
-64.24
-69.2
-71.09
-68.59
-61.17
-49.35
-34.63
-18.98
-4.3
8.09
17.56
24.01
27.65
28.79
27.87
25.48
22.45
19.73
18.09
17.95
19.22
21.41
23.91
26.22
28.13
29.69
31.1
32.53
33.94
34.98
35.15
33.97
31.21
27.08
22.11
16.98
12.24
8.16
4.66
1.41
-1.95
-5.77
-10.19
-15.23
-20.7
-26.31
-31.7
-36.63
-41.19
-45.77
-51.0
-57.42
-65.09
-73.34
-80.77
-85.52
-85.75
-80.23
-68.77
-52.37
-33.03
-13.26
4.65
19.13
29.62
36.45
40.42
42.38
42.87
42.23
40.7
38.7
36.85
35.77
35.81
36.94
38.79
40.88
42.88
44.7
46.36
47.71
48.42
47.96
45.89
42.16
37.15
31.57
26.11
21.11
16.43
11.6
6.16
-0.13
-7.08
-14.19
-20.84
-26.55
-31.18
-34.9
-38.25
-41.99
-46.97
-53.81
-62.62
-72.58
-81.9
-88.15
-88.92
-82.7
-69.42
-50.63
-28.98
-7.44
11.56
26.58
37.22
43.81
47.0
47.47
45.89
42.9
39.21
35.47
32.27
29.97
28.79
28.81
29.96
32.08
34.77
37.5
39.68
40.83
40.75
39.52
37.36
34.41
30.63
25.83
19.83
12.68
4.76
-3.42
-11.33
-18.62
-25.11
-30.83
-35.9
-40.55
-45.23
-50.53
-56.96
-64.63
-72.75
-79.63
-82.98
-80.74
-71.85
-56.8
-37.48
-16.53
3.43
20.55
33.85
43.07
48.32
49.84
47.99
43.44
37.27
30.89
25.69
22.66
22.1
23.61
26.32
29.33
31.98
34.0
35.41
36.27
36.57
36.05
34.36
31.15
26.27
19.78
12.01
3.43
-5.39
-13.94
-21.82
-28.92
-35.56
-42.5
-50.7
-60.89
-72.94
-85.5
-96.13
-101.89
-100.28
-90.2
-72.33
-48.98
-23.37
1.27
22.41
38.62
49.48
55.37
57.05
55.45
51.54
46.36
40.94
36.37
33.51
32.8
34.12
36.79
39.9
42.56
44.27
44.95
44.81
44.03
42.59
40.14
36.2
30.36
22.57
13.26
3.25
-6.53
-15.34
-22.88
-29.42
-35.7
-42.71
-51.35
-62.08
-74.6
-87.55
-98.7
-105.34
-105.02
-96.42
-79.88
-57.42
-32.12
-7.2
14.76
32.35
45.21
53.64
58.24
59.58
58.29
55.08
50.82
46.53
43.16
41.41
41.6
43.55
46.64
50.0
52.79
54.44
54.79
54.02
52.41
50.09
46.88
42.36
36.15
28.15
18.78
8.8
-0.86
-9.51
-16.82
-22.9
-28.16
-33.11
-38.34
-44.44
-52.01
-61.38
-72.24
-83.28
-92.19
-96.11
-92.58
-80.45
-60.48
-35.25
-8.37
16.62
37.2
52.28
62.01
67.24
68.99
68.04
65.07
60.75
55.94
51.56
48.43
46.94
47.07
48.38
50.36
52.56
54.62
56.24
56.99
56.34
53.83
49.28
42.97
35.56
27.96
20.85
14.57
8.95
3.52
-2.21
-8.4
-14.84
-21.09
-26.77
-31.83
-36.64
-41.85
-48.12
-55.94
-65.46
-76.39
-87.82
-98.1
-104.92
-105.74
-98.69
-83.3
-61.02
-34.87
-8.55
14.68
32.8
45.19
52.25
54.85
53.98
50.61
45.82
40.75
36.47
33.74
32.88
33.84
36.31
39.86
44.04
48.28
51.91
54.22
54.67
53.02
49.42
44.31
38.23
31.64
24.88
18.09
11.29
4.43
-2.52
-9.51
-16.32
-22.63
-28.09
-32.49
-35.94
-38.9
-42.16
-46.68
-53.32
-62.5
-73.8
-85.75
-95.86
-101.12
-98.93
-87.95
-68.77
-43.8
-16.65
9.01
30.4
46.17
56.26
61.48
62.91
61.52
58.12
53.48
48.44
43.95
40.9
39.91
41.08
43.99
47.85
51.72
54.85
56.75
57.37
56.8
55.19
52.53
48.71
43.59
37.24
29.96
22.32
14.91
8.13
2.13
-3.32
-8.54
-13.86
-19.46
-25.34
-31.35
-37.29
-43.08
-48.74
-54.53
-60.82
-68.08
-76.7
-86.96
-98.77
-111.49
-123.61
-132.85
-136.52
-132.26
-118.92
-97.12
-69.23
-38.76
-9.27
16.41
36.73
51.3
60.55
65.3
66.59
65.55
63.44
61.48
60.7
61.75
64.78
69.42
74.93
80.35
84.68
87.16
87.4
85.39
81.41
75.92
69.4
62.29
55.09
48.23
42.05
36.62
31.73
27.04
22.24
17.24
12.26
7.61
3.45
-0.45
-4.62
-9.67
-15.91
-23.22
-31.04
-38.68
-45.58
-51.48
-56.47
-60.91
-65.32
-70.33
-76.63
-84.79
-94.98
-106.47
-117.49
-125.28
-126.83
-119.84
-103.64
-79.63
-50.92
-21.43
5.22
26.64
41.91
51.44
56.29
57.67
56.62
53.96
50.47
46.99
44.4
43.48
44.62
47.66
51.93
56.59
60.88
64.41
67.13
69.09
70.2
70.06
68.14
64.11
58.13
50.89
43.43
36.69
31.14
26.62
22.49
17.94
12.42
5.92
-1.02
-7.44
-12.31
-14.89
-15.02
-13.25
-10.69
-8.77
-8.73
-11.32
-16.58
-23.9
-32.3
-40.85
-49.01
-56.88
-65.15
-74.74
-86.19
-99.0
-111.27
-119.95
-121.65
-113.92
-96.32
-70.81
-41.22
-11.97
13.22
32.27
44.78
51.52
53.65
52.29
48.4
43.0
37.3
32.61
30.01
29.97
32.37
36.46
41.29
45.97
49.92
52.89
54.86
55.92
56.13
55.48
53.91
51.29
47.54
42.61
36.56
29.58
22.07
14.53
7.52
1.46
-3.53
-7.67
-11.46
-15.43
-19.97
-25.19
-30.97
-37.08
-43.29
-49.4
-55.2
-60.52
-65.29
-69.73
-74.54
-80.69
-89.0
-99.44
-110.6
-119.71
-123.36
-118.66
-104.41
-81.7
-53.61
-24.21
2.69
24.57
40.48
50.76
56.46
58.7
58.47
56.55
53.7
50.66
48.23
47.08
47.61
49.89
53.57
58.06
62.67
66.82
70.15
72.48
73.72
73.77
72.47
69.68
65.4
59.79
53.21
46.1
38.92
32.02
25.73
20.28
15.78
12.11
8.88
5.46
1.01
-5.34
-14.25
-25.89
-39.74
-54.58
-68.64
-80.23
-88.35
-93.18
-96.09
-99.1
-104.15
-112.1
-122.36
-132.9
-140.82
-143.09
-137.43
-122.85
-99.93
-70.82
-38.75
-7.47
19.6
39.96
52.48
57.41
56.15
50.79
43.6
36.58
31.18
28.15
27.52
28.84
31.39
34.41
37.42
40.24
42.86
45.33
47.61
49.47
50.64
50.93
50.31
48.87
46.65
43.61
39.56
34.4
28.32
21.83
15.64
10.28
5.88
2.02
-2.0
-6.78
-12.61
-19.24
-26.11
-32.6
-38.23
-42.8
-46.49
-49.76
-53.38
-58.32
-65.52
-75.43
-87.51
-99.93
-109.76
-113.68
-109.06
-94.92
-72.38
-44.34
-14.64
13.05
36.05
53.05
63.92
69.36
70.53
68.71
65.17
61.02
57.16
54.19
52.46
52.16
53.31
55.78
59.18
62.92
66.23
68.4
69.01
67.98
65.54
62.02
57.66
52.55
46.58
39.68
31.9
23.53
15.13
7.41
1.02
-3.68
-6.83
-9.08
-11.43
-14.81
-19.71
-25.9
-32.52
-38.51
-43.08
-46.15
-48.32
-50.77
-54.78
-61.33
-70.86
-82.9
-96.04
-107.84
-115.24
-115.33
-106.24
-87.94
-62.47
-33.39
-4.76
19.96
38.71
50.9
57.09
58.37
55.97
51.08
44.9
38.66
33.47
30.18
29.18
30.35
33.2
37.03
41.23
45.23
48.61
51.0
52.02
51.28
48.53
43.74
37.2
29.46
21.29
13.44
6.42
0.36
-5.03
-10.34
-16.19
-22.88
-30.3
-37.85
-44.79
-50.48
-54.76
-58.08
-61.41
-65.99
-72.81
-82.05
-92.7
-102.6
-108.81
-108.54
-100.05
-83.25
-59.87
-32.95
-5.92
18.2
37.46
51.1
59.31
62.84
62.65
59.78
55.23
50.07
45.3
41.82
40.19
40.55
42.58
45.69
49.26
52.81
56.04
58.73
60.59
61.11
59.72
55.97
49.82
41.77
32.75
23.82
15.74
8.76
2.62
-3.26
-9.42
-16.06
-23.05
-29.95
-36.33
-41.92
-46.79
-51.31
-56.1
-61.93
-69.5
-79.18
-90.46
-101.8
-110.56
-113.64
-108.5
-94.06
-71.36
-43.36
-14.04
12.81
34.54
50.12
59.83
64.68
65.79
64.13
60.49
55.66
50.64
46.4
43.8
43.2
44.39
46.66
49.11
51.07
52.28
52.91
53.26
53.48
53.31
52.15
49.3
44.36
37.45
29.28
20.89
13.25
6.9
1.75
-2.77
-7.46
-12.92
-19.27
-26.2
-33.07
-39.27
-44.49
-48.84
-52.85
-57.3
-63.05
-70.76
-80.53
-91.57
-102.08
-109.46
-110.92
-104.44
-89.52
-67.44
-41.02
-13.69
11.39
32.04
47.3
57.18
62.26
63.37
61.45
57.53
52.76
48.32
45.19
43.92
44.54
46.6
49.39
52.23
54.69
56.59
57.97
58.87
59.23
58.79
57.16
53.98
49.04
42.43
34.53
25.95
17.36
9.34
2.18
-4.17
-10.0
-15.69
-21.48
-27.35
-33.06
-38.29
-42.86
-46.84
-50.64
-54.9
-60.39
-67.82
-77.46
-88.79
-100.27
-109.41
-113.32
-109.6
-97.2
-76.94
-51.38
-24.02
1.66
23.07
38.89
48.98
53.96
54.83
52.7
48.71
44.02
39.69
36.55
35.06
35.28
36.92
39.48
42.46
45.49
48.29
50.66
52.33
52.92
52.01
49.26
44.58
38.22
30.83
23.17
15.96
9.6
4.1
-0.9
-5.93
-11.37
-17.34
-23.6
-29.73
-35.25
-39.94
-43.89
-47.61
-51.85
-57.46
-65.01
-74.37
-84.41
-92.98
-97.37
-95.1
-84.87
-67.14
-44.07
-18.93
4.96
25.04
39.99
49.64
54.52
55.44
53.24
48.77
42.99
37.0
31.91
28.63
27.65
28.87
31.77
35.54
39.37
42.65
45.01
46.2
46.05
44.36
40.99
35.97
29.55
22.25
14.64
7.25
0.33
-6.19
-12.6
-19.21
-26.14
-33.21
-39.88
-45.54
-49.76
-52.67
-55.08
-58.32
-63.76
-72.22
-83.34
-95.39
-105.53
-110.54
-107.83
-96.34
-76.91
-52.03
-25.08
0.61
22.6
39.55
51.19
57.95
60.63
60.19
57.74
54.46
51.43
49.43
48.74
49.16
50.19
51.31
52.2
52.81
53.23
53.58
53.83
53.75
52.92
50.86
47.17
41.7
34.64
26.62
18.41
10.77
4.02
-2.01
-7.85
-14.11
-21.03
-28.44
-35.76
-42.42
-48.08
-52.81
-57.06
-61.53
-67.0
-74.18
-83.4
-94.28
-105.42
-114.33
-118.02
-113.85
-100.58
-79.02
-51.95
-23.22
3.41
25.26
41.25
51.64
57.45
59.83
59.77
58.05
55.43
52.7
50.67
49.9
50.54
52.23
54.32
56.14
57.28
57.72
57.75
57.64
57.43
56.77
55.05
51.66
46.35
39.31
31.29
23.18
15.8
9.54
4.24
-0.65
-5.81
-11.65
-18.19
-25.01
-31.51
-37.17
-41.86
-45.96
-50.19
-55.53
-62.8
-72.44
-83.99
-96.04
-106.17
-111.51
-109.53
-98.9
-80.12
-55.46
-28.35
-2.36
19.7
36.33
47.37
53.5
55.76
55.21
52.76
49.25
45.53
42.44
40.63
40.45
41.8
44.24
47.12
49.87
52.02
53.29
53.43
52.25
49.55
45.26
39.56
32.83
25.61
18.33
11.23
4.33
-2.53
-9.45
-16.41
-23.2
-29.49
-34.98
-39.52
-43.21
-46.48
-50.02
-54.72
-61.39
-70.31
-80.88
-91.4
-99.2
-101.43
-95.91
-82.02
-61.09
-36.0
-10.28
12.86
31.37
44.5
52.55
56.36
56.91
55.12
51.83
47.86
43.97
40.86
39.03
38.73
39.93
42.29
45.26
48.09
50.07
50.66
49.68
47.26
43.74
39.44
34.55
29.04
22.8
15.76
7.99
-0.24
-8.55
-16.56
-23.92
-30.42
-36.01
-40.84
-45.22
-49.65
-54.72
-61.09
-69.24
-79.21
-90.18
-100.37
-107.2
-108.0
-100.9
-85.63
-63.74
-38.25
-12.63
10.13
28.22
41.2
49.59
54.4
56.68
57.26
56.81
55.92
55.14
54.95
55.69
57.4
59.82
62.44
64.65
65.95
66.18
65.49
64.23
62.65
60.66
57.82
53.51
47.29
39.29
30.22
21.22
13.39
7.32
2.87
-0.73
-4.51
-9.32
-15.48
-22.66
-30.15
-37.15
-43.14
-48.05
-52.27
-56.56
-61.8
-68.77
-77.91
-88.91
-100.52
-110.46
-115.89
-114.18
-103.85
-85.22
-60.44
-32.91
-6.25
16.7
34.35
46.46
53.72
57.28
58.37
58.08
57.29
56.6
56.4
56.81
57.76
59.1
60.62
62.16
63.58
64.77
65.59
65.89
65.53
64.39
62.36
59.4
55.48
50.65
45.02
38.78
32.24
25.74
19.61
14.1
9.26
5.03
1.22
-2.34
-5.85
-9.51
-13.55
-18.24
-23.69
-29.84
-36.31
-42.58
-48.2
-53.04
-57.45
-62.2
-68.25
-76.28
-86.21
-96.96
-106.41
-111.9
-110.93
-102.04
-85.38
-62.75
-37.12
-11.77
10.59
28.3
40.84
48.56
52.29
53.01
51.76
49.52
47.2
45.53
44.99
45.71
47.49
49.88
52.37
54.54
56.15
57.2
57.75
57.84
57.34
56.01
53.6
50.02
45.46
40.25
34.75
29.19
23.6
17.94
12.17
6.43
0.95
-3.97
-8.2
-11.78
-14.96
-18.11
-21.57
-25.49
-29.82
-34.34
-38.73
-42.75
-46.38
-49.9
-53.8
-58.79
-65.42
-73.82
-83.42
-92.74
-99.64
-101.75
-97.26
-85.51
-67.39
-45.09
-21.58
0.27
18.36
31.69
40.29
44.84
46.25
45.36
42.89
39.5
35.93
32.97
31.3
31.36
33.13
36.19
39.79
43.17
45.7
47.08
47.26
46.35
44.47
41.66
37.87
33.04
27.18
20.53
13.56
6.88
1.09
-3.49
-6.93
-9.72
-12.57
-16.15
-20.74
-26.18
-31.87
-37.09
-41.29
-44.39
-46.75
-49.13
-52.41
-57.33
-64.18
-72.55
-81.23
-88.23
-91.31
-88.54
-78.99
-63.2
-43.06
-21.29
-0.69
16.67
29.73
38.42
43.26
45.03
44.49
42.34
39.24
35.91
33.0
31.06
30.36
30.89
32.31
34.19
36.06
37.61
38.79
39.62
40.12
40.17
39.41
37.41
33.82
28.67
22.35
15.61
9.29
3.96
-0.23
-3.62
-6.88
-10.69
-15.44
-21.06
-27.07
-32.8
-37.74
-41.79
-45.3
-48.96
-53.53
-59.61
-67.47
-76.82
-86.71
-95.44
-100.83
-100.69
-93.54
-79.27
-59.32
-36.36
-13.48
6.72
22.68
34.0
41.07
44.63
45.47
44.28
41.75
38.54
35.37
32.81
31.19
30.62
30.98
32.04
33.52
35.14
36.6
37.56
37.71
36.85
34.83
31.67
27.53
22.63
17.2
11.38
5.24
-1.15
-7.71
-14.25
-20.49
-26.16
-31.08
-35.26
-38.88
-42.28
-45.94
-50.4
-56.13
-63.34
-71.7
-80.05
-86.52
-88.88
-85.35
-75.18
-59.13
-39.24
-18.22
1.38
17.72
29.98
38.1
42.52
43.8
42.55
39.39
35.05
30.31
25.97
22.7
20.93
20.8
22.1
24.41
27.14
29.67
31.52
32.35
32.09
30.78
28.57
25.5
21.52
16.5
10.35
3.21
-4.48
-12.11
-19.1
-25.13
-30.35
-35.25
-40.53
-46.82
-54.44
-63.25
-72.52
-80.92
-86.7
-88.05
-83.6
-72.95
-56.88
-37.2
-16.32
3.36
19.99
32.5
40.47
44.11
43.97
40.89
35.91
30.16
24.71
20.46
17.91
17.19
18.06
20.04
22.55
25.11
27.4
29.18
30.31
30.45
29.22
26.21
21.28
14.61
6.8
-1.36
-9.15
-16.14
-22.3
-27.99
-33.81
-40.41
-48.28
-57.41
-67.07
-75.74
-81.28
-81.56
-75.19
-62.06
-43.63
-22.51
-1.74
16.08
29.43
37.96
42.23
43.15
41.55
38.03
33.07
27.25
21.38
16.43
13.33
12.61
14.3
17.81
22.18
26.31
29.2
30.14
28.85
25.39
20.12
13.58
6.29
-1.29
-8.86
-16.29
-23.59
-30.94
-38.68
-47.12
-56.27
-65.45
-73.12
-77.15
-75.4
-66.6
-50.97
-30.37
-7.79
13.57
31.2
43.84
51.46
54.81
54.92
52.67
48.66
43.4
37.48
31.68
26.95
24.1
23.6
25.3
28.48
32.08
34.95
36.2
35.38
32.43
27.63
21.41
14.2
6.43
-1.58
-9.56
-17.35
-24.98
-32.74
-41.09
-50.38
-60.51
-70.44
-78.19
-81.24
-77.43
-65.83
-47.37
-24.61
-1.0
20.26
37.12
48.95
56.21
59.89
60.88
59.84
57.27
53.77
50.12
47.15
45.5
45.32
46.26
47.57
48.48
48.52
47.65
46.14
44.31
42.22
39.52
35.64
30.01
22.44
13.31
3.51
-5.9
-14.07
-20.67
-25.98
-30.8
-36.16
-43.02
-51.88
-62.43
-73.37
-82.6
-87.57
-86.1
-77.12
-61.16
-40.28
-17.45
4.33
22.83
37.03
46.99
53.47
57.4
59.53
60.36
60.3
59.76
59.19
59.02
59.49
60.54
61.88
63.14
64.0
64.32
64.1
63.35
61.96
59.63
56.05
51.14
45.17
38.8
32.82
27.87
24.21
21.62
19.54
17.27
14.22
10.07
4.83
-1.21
-7.49
-13.36
-18.3
-22.12
-25.21
-28.46
-33.06
-40.02
-49.5
-60.47
-70.74
-77.44
-77.96
-70.84
-56.31
-36.26
-13.65
8.5
27.85
43.23
54.61
62.61
68.12
71.91
74.53
76.31
77.4
77.9
77.81
77.12
75.82
73.92
71.52
68.89
66.38
64.29
62.66
60.99
58.32
53.46
45.48
34.09
19.81
3.8
-12.57
-28.08
-41.85
-53.23
-61.76
-67.08
-69.21
-68.83
-67.39
-66.89
-69.18
-75.32
-85.1
-97.24
-109.93
-121.71
-132.01
-141.21
-150.2
-159.6
-169.21
-177.76
-183.27
-183.44
-176.11
-159.58
-133.04
-97.08
-53.99
-7.83
36.33
73.59
100.52
115.96
121.02
118.24
110.54
100.4
89.61
79.52
71.23
65.62
63.21
63.81
66.57
70.15
73.18
74.71
74.38
72.5
69.76
66.86
64.23
61.85
59.45
56.65
53.25
49.32
45.16
41.02
36.97
32.69
27.63
21.14
12.74
2.41
-9.31
-21.25
-31.8
-39.26
-42.3
-40.31
-33.6
-23.39
-11.44
0.33
10.29
17.3
20.75
20.54
16.91
10.42
1.92
-7.51
-16.68
-24.47
-29.94
-32.46
-31.88
-28.5
-23.11
-16.87
-11.01
-6.62
-4.36
-4.33
-6.19
-9.4
-13.43
-17.9
-22.6
-27.33
-31.85
-35.84
-39.03
-41.33
-42.94
-44.31
-46.03
-48.65
-52.48
-57.51
-63.39
-69.39
-74.53
-77.63
-77.58
-73.59
-65.45
-53.71
-39.61
-24.72
-10.61
1.62
11.43
18.89
24.36
28.3
31.1
32.97
34.09
34.65
34.87
35.02
35.36
36.03
37.04
38.26
39.4
40.16
40.22
39.37
37.56
34.92
31.7
28.2
24.66
21.15
17.59
13.79
9.65
5.22
0.74
-3.48
-7.18
-10.34
-13.2
-16.2
-19.84
-24.55
-30.59
-37.89
-45.98
-53.89
-60.22
-63.44
-62.3
-56.34
-46.06
-32.89
-18.69
-5.27
6.1
14.84
21.05
25.09
27.43
28.45
28.47
27.79
26.78
25.84
25.28
25.28
25.8
26.64
27.51
28.15
28.4
28.18
27.55
26.54
25.16
23.35
21.04
18.16
14.74
10.93
6.9
2.88
-0.93
-4.34
-7.22
-9.54
-11.39
-12.97
-14.53
-16.42
-18.95
-22.41
-27.0
-32.71
-39.26
-45.93
-51.59
-54.82
-54.33
-49.34
-39.93
-27.09
-12.53
1.84
14.37
24.0
30.4
33.84
34.93
34.34
32.67
30.33
27.71
25.1
22.85
21.18
20.23
19.94
20.12
20.5
20.85
21.09
21.18
21.1
20.75
19.93
18.39
16.04
12.97
9.52
6.09
3.01
0.34
-2.14
-4.87
-8.2
-12.26
-16.79
-21.25
-25.05
-27.83
-29.63
-30.88
-32.32
-34.69
-38.52
-43.83
-50.08
-56.11
-60.4
-61.43
-58.14
-50.36
-38.89
-25.28
-11.34
1.36
11.8
19.6
24.81
27.71
28.63
27.94
26.14
23.82
21.66
20.18
19.69
20.1
21.07
22.1
22.73
22.7
21.99
20.79
19.35
17.84
16.27
14.49
12.27
9.44
5.94
1.84
-2.67
-7.25
-11.52
-15.15
-18.0
-20.22
-22.29
-24.9
-28.66
-33.79
-39.92
-46.11
-50.98
-53.21
-51.84
-46.59
-37.92
-26.91
-14.9
-3.24
7.03
15.26
21.21
24.89
26.55
26.55
25.36
23.54
21.63
20.12
19.26
19.09
19.38
19.85
20.21
20.31
20.18
19.93
19.6
19.09
18.09
16.22
13.16
8.89
3.66
-2.02
-7.56
-12.55
-16.86
-20.66
-24.27
-28.04
-32.26
-37.03
-42.22
-47.34
-51.53
-53.69
-52.67
-47.73
-38.91
-27.09
-13.85
-0.93
10.2
18.73
24.53
27.95
29.48
29.53
28.43
26.38
23.66
20.62
17.68
15.18
13.37
12.33
12.05
12.47
13.49
14.9
16.36
17.37
17.42
16.11
13.34
9.28
4.41
-0.74
-5.73
-10.27
-14.24
-17.71
-20.92
-24.23
-28.0
-32.41
-37.29
-41.99
-45.49
-46.67
-44.68
-39.2
-30.61
-19.91
-8.42
2.48
11.73
18.66
23.09
25.22
25.46
24.3
22.23
19.68
17.05
14.66
12.78
11.58
11.1
11.28
12.0
13.06
14.21
15.18
15.66
15.38
14.17
11.97
8.87
5.07
0.79
-3.69
-8.13
-12.44
-16.65
-21.0
-25.8
-31.33
-37.5
-43.69
-48.79
-51.41
-50.34
-45.06
-35.95
-24.18
-11.39
0.77
11.14
19.08
24.51
27.68
28.96
28.81
27.58
25.63
23.26
20.74
18.31
16.22
14.67
13.8
13.56
13.81
14.19
14.35
13.92
12.69
10.65
7.96
4.84
1.55
-1.81
-5.28
-9.1
-13.59
-19.02
-25.49
-32.76
-40.22
-46.87
-51.5
-52.91
-50.24
-43.34
-32.89
-20.32
-7.45
4.05
13.06
19.18
22.67
24.12
24.12
23.04
21.07
18.28
14.9
11.34
8.15
5.85
4.74
4.74
5.49
6.44
7.11
7.2
6.65
5.52
3.96
1.98
-0.44
-3.42
-7.15
-11.82
-17.56
-24.36
-31.88
-39.42
-45.85
-49.9
-50.37
-46.65
-38.86
-27.93
-15.34
-2.7
8.59
17.65
24.07
27.78
28.89
27.55
24.06
18.98
13.16
7.68
3.57
1.48
1.5
3.12
5.49
7.65
8.92
8.94
7.76
5.69
3.08
0.24
-2.72
-5.91
-9.6
-14.17
-19.9
-26.79
-34.28
-41.3
-46.39
-48.06
-45.31
-37.98
-26.9
-13.67
-0.13
12.16
22.27
29.87
35.02
37.82
38.24
36.24
31.98
26.08
19.58
13.7
9.42
7.21
6.86
7.65
8.72
9.35
9.2
8.31
6.93
5.33
3.58
1.47
-1.42
-5.52
-11.2
-18.51
-27.09
-36.1
-44.27
-49.99
-51.75
-48.59
-40.36
-27.99
-13.15
2.14
16.12
27.59
36.04
41.43
44.01
44.03
41.88
38.08
33.37
28.63
24.68
22.1
21.01
21.13
21.84
22.41
22.26
21.05
18.79
15.8
12.46
9.05
5.62
1.9
-2.58
-8.32
-15.54
-24.06
-33.1
-41.38
-47.32
-49.43
-46.77
-39.31
-27.92
-14.19
0.06
13.18
24.06
32.16
37.41
40.03
40.32
38.68
35.62
31.78
27.94
24.88
23.21
23.19
24.63
26.93
29.27
30.89
31.26
30.26
28.09
25.1
21.61
17.78
13.64
9.09
4.04
-1.6
-7.87
-14.73
-21.97
-29.07
-35.12
-38.94
-39.35
-35.61
-27.72
-16.56
-3.63
9.29
20.69
29.64
35.87
39.59
41.24
41.29
40.12
38.1
35.63
33.19
31.26
30.12
29.79
29.99
30.3
30.32
29.82
28.76
27.21
25.19
22.68
19.57
15.79
11.43
6.72
2.04
-2.3
-6.14
-9.57
-12.93
-16.61
-20.91
-25.83
-31.0
-35.64
-38.77
-39.45
-37.07
-31.56
-23.53
-14.07
-4.45
4.16
11.03
15.96
19.09
20.76
21.26
20.82
19.61
17.94
16.24
15.05
14.75
15.39
16.74
18.23
19.34
19.69
19.2
18.01
16.37
14.45
12.28
9.75
6.71
3.08
-1.03
-5.35
-9.51
-13.17
-16.17
-18.64
-20.96
-23.68
-27.2
-31.71
-36.98
-42.47
-47.35
-50.72
-51.79
-50.06
-45.44
-38.3
-29.39
-19.66
-10.05
-1.3
6.15
12.15
16.78
20.25
22.84
24.91
26.83
28.9
31.26
33.88
36.56
39.03
41.03
42.37
42.96
42.77
41.8
40.12
37.81
34.94
31.62
27.9
23.85
19.53
15.06
10.54
6.12
1.9
-2.02
-5.47
-8.29
-10.32
-11.48
-11.92
-11.95
-12.11
-12.97
-15.02
-18.51
-23.28
-28.75
-33.93
-37.66
-38.9
-37.02
-32.09
-24.75
-16.09
-7.23
0.94
7.95
13.69
18.3
21.98
24.9
27.22
29.12
30.84
32.61
34.59
36.73
38.74
40.33
41.28
41.72
42.09
42.87
44.36
46.4
48.44
49.76
49.66
47.65
43.53
37.34
29.33
19.99
10.04
0.38
-8.08
-14.59
-18.75
-20.56
-20.29
-18.43
-15.53
-12.38
-10.06
-10.09
-14.13
-23.49
-38.51
-58.01
-79.34
-98.91
-113.48
-121.22
-122.46
-119.49
-115.57
-113.6
-114.93
-118.85
-123.01
-124.48
-121.01
-111.97
-98.46
-82.78
-67.31
-53.61
-42.06
-32.19
-23.47
-16.08
-10.98
-9.54
-12.71
-20.39
-31.29
-43.32
-53.98
-60.56
-60.29
-50.71
-30.66
-1.43
32.59
64.7
87.95
97.84
94.02
80.26
62.5
46.14
34.22
27.0
23.12
21.0
19.79
19.23
19.0
18.26
15.78
10.58
2.5
-7.58
-18.05
-27.13
-33.47
-36.47
-36.29
-33.74
-29.87
-25.65
-21.61
-17.81
-13.91
-9.57
-4.74
0.19
4.44
7.29
8.42
8.2
7.66
8.08
10.53
15.42
22.3
29.99
36.96
41.87
43.9
42.9
39.3
33.93
27.73
21.52
15.87
11.1
7.2
3.98
1.14
-1.57
-4.33
-7.35
-10.84
-15.09
-20.27
-26.34
-32.99
-39.81
-46.56
-53.3
-60.31
-67.63
-74.67
-80.04
-81.94
-78.88
-70.4
-57.38
-41.7
-25.45
-10.18
3.55
15.87
27.13
37.34
45.99
52.38
55.99
57.0
56.19
54.72
53.57
53.23
53.64
54.4
55.14
55.68
55.99
55.94
55.17
53.07
49.1
43.09
35.41
26.9
18.51
10.92
4.32
-1.49
-6.92
-12.25
-17.53
-22.55
-27.13
-31.23
-35.03
-38.94
-43.53
-49.38
-56.91
-66.13
-76.39
-86.24
-93.63
-96.45
-93.2
-83.62
-68.84
-51.05
-32.75
-15.97
-1.8
9.62
18.76
26.19
32.34
37.39
41.46
44.71
47.38
49.68
51.73
53.52
55.08
56.53
58.15
60.19
62.7
65.37
67.62
68.77
68.42
66.56
63.54
59.81
55.64
50.98
45.55
39.01
31.25
22.43
12.97
3.33
-6.11
-15.17
-23.87
-32.39
-41.0
-50.01
-59.63
-69.68
-79.44
-87.55
-92.19
-91.72
-85.2
-72.94
-56.44
-37.96
-19.79
-3.64
9.7
20.17
28.14
34.04
38.21
40.92
42.47
43.27
43.77
44.39
45.38
46.84
48.68
50.64
52.47
53.89
54.68
54.76
54.06
52.58
50.3
47.2
43.28
38.64
33.39
27.68
21.59
15.1
8.19
0.94
-6.47
-13.65
-20.24
-26.0
-30.97
-35.56
-40.44
-46.32
-53.64
-62.22
-71.06
-78.43
-82.3
-80.95
-73.54
-60.48
-43.25
-24.04
-5.1
11.8
25.61
36.01
43.21
47.71
50.14
51.13
51.29
51.11
50.95
51.03
51.46
52.21
53.16
54.09
54.77
54.96
54.48
53.27
51.32
48.68
45.41
41.55
37.2
32.45
27.44
22.23
16.85
11.26
5.44
-0.55
-6.52
-12.21
-17.38
-21.94
-26.02
-30.0
-34.44
-39.91
-46.74
-54.72
-62.96
-69.94
-73.83
-73.01
-66.64
-54.96
-39.3
-21.71
-4.38
10.87
22.95
31.5
36.67
38.95
38.89
37.1
34.25
31.05
28.22
26.38
25.85
26.57
28.14
29.98
31.56
32.54
32.83
32.5
31.65
30.28
28.21
25.2
21.05
15.77
9.62
3.11
-3.21
-8.92
-13.89
-18.32
-22.67
-27.51
-33.27
-40.09
-47.57
-54.72
-60.08
-62.03
-59.37
-51.64
-39.42
-24.08
-7.4
8.94
23.66
35.93
45.19
51.03
53.17
51.65
47.11
40.75
34.12
28.62
25.13
23.83
24.26
25.69
27.42
29.07
30.52
31.79
32.86
33.41
32.91
30.75
26.62
20.64
13.44
5.98
-0.82
-6.43
-10.82
-14.47
-18.1
-22.42
-27.84
-34.35
-41.42
-48.05
-52.92
-54.76
-52.64
-46.37
-36.55
-24.46
-11.7
0.25
10.37
18.13
23.49
26.69
28.06
28.01
26.98
25.4
23.74
22.39
21.58
21.33
21.44
21.6
21.48
20.85
19.72
18.28
16.76
15.24
13.58
11.42
8.32
4.07
-1.2
-7.02
-12.74
-17.87
-22.2
-25.93
-29.53
-33.52
-38.25
-43.74
-49.53
-54.72
-58.14
-58.59
-55.28
-48.12
-37.78
-25.5
-12.76
-0.85
9.38
17.52
23.51
27.42
29.41
29.72
28.7
26.87
24.82
23.07
21.9
21.35
21.2
21.11
20.83
20.22
19.32
18.24
17.1
15.84
14.31
12.24
9.43
5.82
1.55
-3.06
-7.62
-11.84
-15.6
-19.0
-22.37
-26.1
-30.57
-35.96
-42.13
-48.48
-54.03
-57.5
-57.77
-54.16
-46.71
-36.28
-24.21
-11.96
-0.76
8.67
16.07
21.47
25.0
26.85
27.24
26.49
25.04
23.39
21.92
20.8
19.98
19.25
18.43
17.41
16.22
14.9
13.51
12.03
10.38
8.38
5.89
2.78
-0.99
-5.34
-10.11
-15.04
-19.9
-24.53
-28.91
-33.22
-37.71
-42.62
-47.96
-53.41
-58.23
-61.39
-61.8
-58.68
-51.85
-41.81
-29.61
-16.61
-4.13
6.76
15.31
21.2
24.45
25.46
24.95
23.72
22.6
22.11
22.44
23.46
24.85
26.32
27.65
28.76
29.59
30.06
29.99
29.23
27.66
25.23
22.01
18.12
13.69
8.85
3.74
-1.5
-6.71
-11.79
-16.73
-21.69
-26.92
-32.61
-38.68
-44.59
-49.35
-51.75
-50.68
-45.61
-36.78
-25.24
-12.58
-0.39
10.03
18.02
23.5
26.72
28.1
27.96
26.54
24.09
20.92
17.52
14.38
11.94
10.42
9.73
9.61
9.7
9.72
9.5
8.99
8.12
6.82
4.96
2.51
-0.48
-3.83
-7.38
-11.05
-14.97
-19.4
-24.62
-30.68
-37.2
-43.33
-47.91
-49.78
-48.1
-42.68
-34.04
-23.28
-11.79
-0.92
8.37
15.57
20.61
23.7
25.05
24.83
23.16
20.24
16.45
12.37
8.69
5.9
4.19
3.36
2.89
2.23
1.05
-0.68
-2.73
-4.77
-6.58
-8.13
-9.63
-11.4
-13.8
-17.13
-21.58
-27.18
-33.7
-40.47
-46.44
-50.34
-50.98
-47.68
-40.58
-30.61
-19.19
-7.86
2.27
10.56
16.9
21.39
24.17
25.27
24.71
22.58
19.18
14.99
10.55
6.37
2.68
-0.48
-3.3
-5.97
-8.62
-11.23
-13.61
-15.63
-17.21
-18.5
-19.82
-21.53
-23.96
-27.35
-31.74
-36.91
-42.34
-47.13
-50.03
-49.79
-45.5
-36.97
-24.96
-10.97
3.17
15.79
25.76
32.6
36.31
37.21
35.79
32.63
28.48
24.1
20.23
17.37
15.64
14.79
14.32
13.66
12.35
10.22
7.34
4.04
0.71
-2.38
-5.17
-7.94
-11.22
-15.67
-21.84
-29.87
-39.28
-48.88
-56.95
-61.71
-61.82
-56.84
-47.32
-34.55
-20.2
-5.76
7.64
19.31
28.83
35.9
40.32
42.08
41.41
38.9
35.34
31.61
28.43
26.15
24.74
23.8
22.81
21.31
19.07
16.19
12.95
9.68
6.48
3.2
-0.59
-5.43
-11.76
-19.66
-28.66
-37.66
-45.08
-49.26
-48.94
-43.61
-33.77
-20.69
-6.09
8.35
21.29
31.82
39.44
43.93
45.34
43.97
40.45
35.67
30.6
26.12
22.77
20.7
19.64
19.11
18.56
17.64
16.23
14.51
12.71
10.99
9.21
6.94
3.6
-1.39
-8.27
-16.81
-26.17
-34.96
-41.5
-44.19
-42.0
-34.81
-23.52
-9.77
4.51
17.65
28.57
36.83
42.42
45.5
46.24
44.82
41.65
37.38
32.85
28.82
25.7
23.49
21.8
20.13
18.14
15.79
13.25
10.73
8.29
5.72
2.55
-1.72
-7.46
-14.7
-22.98
-31.29
-38.17
-42.07
-41.69
-36.56
-27.1
-14.6
-0.86
12.41
23.89
32.82
38.9
42.13
42.62
40.63
36.64
31.33
25.53
20.07
15.57
12.27
10.06
8.54
7.21
5.68
3.77
1.52
-0.94
-3.49
-6.18
-9.28
-13.23
-18.37
-24.66
-31.47
-37.48
-40.96
-40.33
-34.62
-23.95
-9.52
6.68
22.49
36.05
46.2
52.54
55.22
54.82
52.05
47.76
42.79
37.95
33.83
30.71
28.45
26.56
24.42
21.51
17.7
13.22
8.53
4.07
0.0
-3.88
-8.03
-12.98
-18.98
-25.82
-32.73
-38.45
-41.5
-40.72
-35.65
-26.8
-15.57
-3.78
6.84
15.13
20.64
23.48
24.05
22.8
20.2
16.79
13.18
9.92
7.37
5.53
4.16
2.88
1.46
-0.08
-1.57
-2.89
-4.18
-5.83
-8.36
-12.17
-17.32
-23.45
-29.86
-35.62
-39.76
-41.39
-39.85
-34.94
-26.98
-16.89
-5.96
4.39
12.95
19.01
22.36
23.25
22.16
19.67
16.36
12.72
9.24
6.32
4.19
2.91
2.32
2.07
1.85
1.43
0.76
-0.1
-1.13
-2.48
-4.46
-7.39
-11.37
-16.02
-20.58
-23.94
-25.09
-23.33
-18.51
-11.02
-1.64
8.69
18.99
28.39
36.15
41.67
44.57
44.78
42.6
38.63
33.7
28.56
23.75
19.54
15.88
12.65
9.68
6.91
4.34
1.96
-0.24
-2.38
-4.69
-7.49
-11.21
-16.21
-22.62
-30.1
-37.78
-44.37
-48.46
-48.98
-45.52
-38.48
-28.92
-18.24
-7.81
1.36
8.71
14.12
17.75
19.84
20.64
20.32
19.06
17.12
14.83
12.59
10.77
9.53
8.8
8.21
7.35
5.93
3.98
1.81
-0.15
-1.62
-2.7
-3.83
-5.63
-8.61
-12.96
-18.48
-24.62
-30.71
-35.95
-39.58
-40.9
-39.38
-34.87
-27.68
-18.62
-8.82
0.59
8.74
15.14
19.75
22.75
24.4
25.0
24.77
23.97
22.8
21.5
20.22
19.06
18.04
17.1
16.17
15.17
14.06
12.81
11.42
9.87
8.06
5.91
3.27
0.05
-3.7
-7.78
-11.88
-15.7
-19.03
-21.9
-24.56
-27.47
-31.11
-35.79
-41.4
-47.28
-52.29
-55.1
-54.58
-50.26
-42.5
-32.4
-21.4
-10.83
-1.58
6.01
11.98
16.44
19.53
21.24
21.65
20.98
19.69
18.32
17.34
16.98
17.14
17.51
17.71
17.49
16.86
15.98
15.06
14.19
13.24
11.9
9.81
6.76
2.74
-2.0
-7.07
-12.07
-16.7
-20.86
-24.61
-28.17
-31.84
-35.93
-40.57
-45.71
-50.92
-55.42
-58.18
-58.21
-54.85
-48.06
-38.48
-27.28
-15.84
-5.31
3.54
10.41
15.35
18.55
20.22
20.62
20.1
19.15
18.33
18.14
18.82
20.34
22.39
24.56
26.5
27.96
28.89
29.34
29.45
29.38
29.23
28.99
28.44
27.22
24.96
21.44
16.73
11.21
5.28
-0.75
-6.9
-13.47
-20.79
-29.05
-38.01
-46.91
-54.67
-60.12
-62.27
-60.63
-55.3
-46.92
-36.51
-25.22
-14.01
-3.69
5.23
12.34
17.36
20.15
20.81
19.77
17.77
15.64
14.08
13.41
13.61
14.33
15.19
15.92
16.42
16.67
16.65
16.24
15.24
13.45
10.72
7.04
2.54
-2.51
-7.73
-12.7
-17.04
-20.57
-23.41
-26.0
-29.04
-33.2
-38.9
-46.08
-54.02
-61.37
-66.42
-67.56
-63.78
-55.07
-42.44
-27.68
-12.75
0.7
11.63
19.67
24.92
27.72
28.52
27.79
26.09
23.96
21.92
20.31
19.23
18.58
18.12
17.66
17.2
16.87
16.92
17.53
18.6
19.74
20.32
19.68
17.43
13.63
8.71
3.33
-1.93
-6.83
-11.45
-16.16
-21.42
-27.55
-34.62
-42.41
-50.23
-57.07
-61.63
-62.59
-59.04
-50.73
-38.29
-23.07
-6.81
8.87
22.81
34.4
43.52
50.25
54.71
57.06
57.46
56.22
53.85
51.01
48.34
46.36
45.25
44.88
44.84
44.62
43.73
41.83
38.77
34.6
29.54
23.87
17.9
11.9
6.04
0.33
-5.33
-11.21
-17.67
-25.07
-33.58
-42.93
-52.17
-59.77
-63.87
-62.94
-56.31
-44.52
-29.28
-12.84
2.7
15.87
26.12
33.46
38.23
40.63
40.74
38.6
34.5
29.04
23.11
17.69
13.53
11.04
10.13
10.31
10.86
11.06
10.39
8.65
5.98
2.69
-0.82
-4.35
-7.96
-11.95
-16.79
-22.98
-30.75
-39.9
-49.6
-58.45
-64.65
-66.51
-62.96
-53.94
-40.45
-24.26
-7.4
8.35
21.77
32.22
39.51
43.67
44.87
43.39
39.76
34.68
29.05
23.76
19.47
16.52
14.82
13.94
13.34
12.54
11.24
9.38
7.04
4.39
1.44
-1.93
-6.03
-11.28
-18.13
-26.84
-37.21
-48.41
-58.88
-66.61
-69.61
-66.59
-57.37
-43.03
-25.56
-7.2
10.06
24.9
36.74
45.45
51.13
53.88
53.88
51.4
47.06
41.74
36.5
32.25
29.51
28.19
27.73
27.27
26.04
23.65
20.15
15.97
11.61
7.43
3.47
-0.59
-5.29
-11.2
-18.81
-28.31
-39.35
-50.97
-61.56
-69.09
-71.63
-67.86
-57.62
-42.02
-23.14
-3.54
14.51
29.42
40.56
47.97
52.15
53.69
53.17
51.11
48.0
44.35
40.65
37.35
34.74
32.98
31.91
31.21
30.39
28.97
26.57
23.03
18.45
13.08
7.27
1.31
-4.67
-10.68
-16.94
-23.7
-31.34
-40.13
-50.02
-60.4
-69.93
-76.73
-78.77
-74.6
-63.85
-47.52
-27.69
-6.93
12.41
28.7
41.17
49.8
54.99
57.3
57.33
55.61
52.71
49.18
45.58
42.38
39.9
38.18
37.03
36.17
35.35
34.46
33.49
32.49
31.26
29.4
26.32
21.58
15.11
7.31
-1.03
-9.07
-16.28
-22.59
-28.48
-34.74
-42.21
-51.42
-62.18
-73.48
-83.47
-89.88
-90.59
-84.41
-71.46
-53.24
-32.21
-11.01
8.2
24.12
36.36
45.07
50.67
53.57
54.17
52.93
50.46
47.47
44.7
42.73
41.89
42.12
43.1
44.31
45.21
45.37
44.58
42.88
40.49
37.63
34.43
30.83
26.6
21.47
15.33
8.3
0.75
-6.81
-13.94
-20.37
-26.1
-31.35
-36.51
-42.06
-48.45
-56.03
-64.81
-74.24
-83.07
-89.47
-91.44
-87.44
-76.98
-60.91
-41.2
-20.33
-0.67
16.11
29.21
38.52
44.35
47.22
47.67
46.31
43.81
40.88
38.19
36.23
35.25
35.24
35.94
36.96
37.86
38.32
38.14
37.34
36.06
34.45
32.57
30.33
27.51
23.8
18.95
12.91
5.92
-1.57
-8.98
-15.8
-21.8
-27.07
-32.01
-37.18
-43.15
-50.26
-58.52
-67.37
-75.63
-81.65
-83.65
-80.21
-70.82
-56.14
-37.88
-18.35
0.24
16.23
28.76
37.69
43.26
45.86
45.9
43.87
40.37
36.24
32.34
29.44
27.93
27.74
28.4
29.23
29.64
29.36
28.48
27.32
26.15
25.0
23.54
21.21
17.5
12.22
5.6
-1.73
-9.02
-15.65
-21.34
-26.21
-30.72
-35.51
-41.21
-48.22
-56.49
-65.42
-73.72
-79.63
-81.37
-77.63
-68.05
-53.48
-35.71
-17.03
0.43
15.13
26.31
33.94
38.36
40.07
39.5
37.07
33.23
28.57
23.82
19.7
16.79
15.33
15.21
16.03
17.21
18.19
18.51
17.86
16.06
13.08
9.02
4.1
-1.37
-7.04
-12.63
-18.05
-23.5
-29.43
-36.41
-44.71
-54.07
-63.38
-70.8
-74.24
-72.06
-63.7
-49.98
-32.89
-14.93
1.67
15.45
25.91
33.26
37.94
40.32
40.58
38.83
35.29
30.45
25.05
19.9
15.7
12.84
11.37
11.02
11.32
11.67
11.51
10.41
8.17
4.82
0.58
-4.24
-9.42
-14.89
-20.79
-27.37
-34.96
-43.8
-53.79
-64.32
-74.12
-81.34
-84.03
-80.68
-70.81
-55.31
-36.18
-16.06
2.61
18.13
29.77
37.66
42.35
44.43
44.3
42.25
38.59
33.89
29.0
24.89
22.31
21.5
22.06
23.16
23.82
23.33
21.47
18.42
14.57
10.24
5.58
0.52
-5.07
-11.36
-18.47
-26.62
-36.04
-46.8
-58.53
-70.13
-79.74
-85.14
-84.39
-76.56
-62.18
-43.08
-21.95
-1.44
16.42
30.59
40.9
47.75
51.65
53.05
52.25
49.53
45.38
40.49
35.7
31.8
29.24
28.01
27.65
27.49
26.86
25.34
22.86
19.52
15.53
11.02
6.01
0.44
-5.77
-12.7
-20.4
-29.02
-38.76
-49.65
-61.3
-72.57
-81.57
-86.01
-83.92
-74.39
-58.09
-37.09
-14.34
7.27
25.57
39.5
48.99
54.61
57.14
57.29
55.64
52.67
48.82
44.65
40.71
37.49
35.29
34.1
33.61
33.3
32.66
31.28
28.95
25.65
21.45
16.4
10.61
4.19
-2.68
-9.84
-17.16
-24.77
-33.05
-42.45
-53.11
-64.46
-74.98
-82.38
-84.26
-78.94
-66.1
-47.05
-24.36
-1.1
19.96
36.95
49.05
56.33
59.45
59.3
56.82
52.85
48.16
43.41
39.12
35.78
33.68
32.9
33.27
34.3
35.39
35.85
35.14
32.93
29.22
24.22
18.33
11.93
5.38
-1.16
-7.65
-14.21
-21.1
-28.77
-37.67
-48.06
-59.55
-70.85
-79.8
-83.88
-81.08
-70.68
-53.69
-32.56
-10.42
9.89
26.54
38.79
46.81
51.17
52.45
51.16
47.81
43.01
37.58
32.42
28.37
26.01
25.49
26.51
28.34
30.14
31.03
30.46
28.22
24.46
19.53
13.85
7.76
1.43
-5.11
-11.99
-19.42
-27.71
-37.11
-47.6
-58.6
-68.76
-76.12
-78.54
-74.42
-63.37
-46.44
-25.98
-4.83
14.4
30.02
41.38
48.6
52.22
52.78
50.79
46.77
41.47
35.82
30.82
27.31
25.74
26.01
27.55
29.49
30.87
30.93
29.32
26.05
21.45
15.98
10.03
3.78
-2.77
-9.78
-17.4
-25.75
-34.87
-44.7
-54.95
-64.88
-73.18
-78.13
-77.97
-71.58
-58.97
-41.47
-21.39
-1.31
16.76
31.83
43.91
53.52
61.16
66.87
70.35
71.2
69.37
65.36
60.03
54.39
49.21
44.89
41.46
38.75
36.55
34.54
32.39
29.65
25.92
21.0
14.91
7.99
0.66
-6.68
-13.84
-20.89
-28.14
-36.04
-44.87
-54.52
-64.16
-72.2
-76.58
-75.41
-67.67
-53.72
-35.34
-15.13
4.22
20.73
33.45
42.36
47.99
50.96
51.79
50.94
48.84
46.03
43.1
40.59
38.8
37.76
37.23
36.91
36.48
35.77
34.67
33.1
30.85
27.63
23.21
17.52
10.84
3.69
-3.31
-9.69
-15.32
-20.45
-25.6
-31.39
-38.27
-46.32
-54.99
-63.11
-68.97
-70.83
-67.37
-58.23
-44.26
-27.25
-9.49
6.94
20.56
30.7
37.36
40.95
42.04
41.23
39.13
36.36
33.46
30.85
28.76
27.21
26.13
25.47
25.18
25.24
25.58
25.95
26.0
25.32
23.57
20.62
16.53
11.56
6.04
0.34
-5.32
-10.84
-16.32
-22.02
-28.26
-35.26
-42.91
-50.58
-57.14
-61.12
-61.13
-56.31
-46.75
-33.53
-18.54
-3.82
8.88
18.56
25.06
28.78
30.34
30.28
28.96
26.64
23.61
20.31
17.29
15.01
13.76
13.44
13.73
14.17
14.34
13.97
12.96
11.31
9.08
6.35
3.21
-0.23
-3.84
-7.55
-11.36
-15.38
-19.82
-24.94
-30.91
-37.63
-44.55
-50.64
-54.51
-54.84
-50.85
-42.62
-31.22
-18.35
-5.85
4.81
12.85
18.21
21.23
22.37
21.99
20.34
17.68
14.4
11.03
8.18
6.35
5.76
6.3
7.51
8.8
9.57
9.46
8.38
6.49
4.07
1.36
-1.56
-4.79
-8.47
-12.7
-17.5
-22.85
-28.72
-35.04
-41.53
-47.49
-51.82
-53.22
-50.69
-43.95
-33.72
-21.52
-9.16
1.78
10.36
16.35
20.01
21.85
22.28
21.62
20.03
17.76
15.14
12.66
10.82
9.99
10.21
11.14
12.21
12.75
12.3
10.73
8.23
5.16
1.84
-1.58
-5.12
-8.97
-13.31
-18.24
-23.83
-30.06
-36.78
-43.69
-50.2
-55.37
-58.11
-57.42
-52.75
-44.29
-32.95
-20.19
-7.51
3.8
13.0
19.78
24.22
26.61
27.34
26.84
25.54
23.86
22.13
20.61
19.43
18.63
18.14
17.83
17.53
17.08
16.29
14.97
13.0
10.31
6.93
2.97
-1.36
-5.87
-10.4
-14.89
-19.38
-24.07
-29.21
-34.98
-41.29
-47.66
-53.14
-56.47
-56.49
-52.49
-44.57
-33.58
-20.95
-8.23
3.35
12.99
20.39
25.56
28.72
30.15
30.21
29.31
27.87
26.33
24.97
23.95
23.23
22.65
22.03
21.25
20.3
19.27
18.27
17.27
16.11
14.48
12.08
8.74
4.52
-0.28
-5.19
-9.79
-13.88
-17.54
-21.17
-25.26
-30.26
-36.25
-42.82
-48.99
-53.46
-54.92
-52.49
-46.05
-36.33
-24.62
-12.43
-1.02
8.81
16.71
22.64
26.68
28.92
29.52
28.82
27.34
25.66
24.31
23.57
23.43
23.67
23.99
24.08
23.77
23.01
21.82
20.29
18.48
16.39
13.91
10.95
7.38
3.26
-1.21
-5.69
-9.82
-13.41
-16.48
-19.3
-22.25
-25.7
-29.77
-34.2
-38.31
-41.13
-41.68
-39.25
-33.68
-25.48
-15.67
-5.5
3.93
11.85
17.92
22.12
24.6
25.56
25.22
23.82
21.74
19.47
17.47
16.13
15.59
15.8
16.43
17.14
17.61
17.7
17.44
16.91
16.17
15.14
13.59
11.25
7.99
3.91
-0.64
-5.15
-9.17
-12.5
-15.23
-17.76
-20.56
-24.04
-28.32
-33.19
-38.02
-41.91
-43.85
-43.05
-39.12
-32.33
-23.47
-13.7
-4.21
4.07
10.59
15.22
18.04
19.28
19.2
18.13
16.39
14.36
12.36
10.64
9.34
8.5
8.09
8.04
8.23
8.47
8.56
8.22
7.28
5.67
3.48
0.91
-1.79
-4.46
-7.04
-9.63
-12.4
-15.55
-19.24
-23.55
-28.33
-33.17
-37.34
-39.96
-40.18
-37.5
-31.94
-24.12
-15.04
-5.84
2.53
9.41
14.52
17.88
19.65
20.07
19.41
17.91
15.82
13.39
10.88
8.63
6.92
5.96
5.79
6.19
6.77
7.06
6.69
5.48
3.53
1.08
-1.59
-4.31
-7.09
-10.08
-13.51
-17.56
-22.33
-27.74
-33.51
-39.07
-43.6
-46.08
-45.64
-41.74
-34.52
-24.8
-13.83
-2.98
6.69
14.6
20.6
24.8
27.31
28.24
27.67
25.86
23.22
20.3
17.6
15.43
13.86
12.74
11.87
11.07
10.16
8.99
7.44
5.38
2.8
-0.25
-3.6
-7.09
-10.61
-14.12
-17.73
-21.65
-26.13
-31.4
-37.43
-43.78
-49.51
-53.38
-54.19
-51.21
-44.49
-34.85
-23.61
-12.15
-1.61
7.29
14.25
19.24
22.43
24.1
24.57
24.23
23.38
22.26
21.04
19.85
18.79
17.98
17.44
17.1
16.77
16.2
15.19
13.58
11.29
8.33
4.71
0.53
-4.06
-8.81
-13.46
-17.73
-21.52
-24.91
-28.21
-31.84
-36.12
-40.98
-45.81
-49.5
-50.66
-48.08
-41.22
-30.38
-16.74
-1.97
12.25
24.68
34.61
41.86
46.52
48.79
48.94
47.34
44.49
41.04
37.61
34.63
32.26
30.44
28.95
27.63
26.35
25.01
23.53
21.78
19.61
16.89
13.54
9.54
4.98
0.05
-4.96
-9.72
-14.01
-17.81
-21.37
-25.2
-29.87
-35.68
-42.47
-49.43
-55.24
-58.43
-57.87
-53.09
-44.5
-33.19
-20.61
-8.14
3.17
12.65
19.93
24.82
27.27
27.49
25.92
23.27
20.32
17.82
16.24
15.79
16.42
17.89
19.9
22.09
24.09
25.58
26.25
25.85
24.19
21.18
16.88
11.51
5.52
-0.54
-6.17
-11.03
-15.1
-18.62
-22.11
-26.08
-30.87
-36.42
-42.12
-46.79
-49.06
-47.68
-42.08
-32.57
-20.35
-7.08
5.56
16.38
24.78
30.66
34.23
35.73
35.38
33.47
30.33
26.47
22.44
18.79
15.92
14.02
13.15
13.13
13.64
14.22
14.38
13.74
12.09
9.41
5.9
1.81
-2.61
-7.17
-11.8
-16.51
-21.43
-26.75
-32.59
-38.81
-44.85
-49.74
-52.3
-51.44
-46.66
-38.19
-27.0
-14.49
-2.15
8.85
17.77
24.31
28.43
30.17
29.68
27.18
23.14
18.25
13.42
9.45
6.92
5.93
6.16
7.02
7.83
8.08
7.48
6.02
3.86
1.19
-1.8
-5.08
-8.78
-13.2
-18.75
-25.62
-33.67
-42.2
-50.0
-55.57
-57.5
-55.0
-48.06
-37.56
-24.92
-11.71
0.7
11.48
20.2
26.72
30.98
32.9
32.48
29.96
25.99
21.55
17.75
15.44
14.85
15.57
16.66
17.11
16.25
13.94
10.54
6.58
2.49
-1.59
-5.81
-10.49
-15.95
-22.48
-30.26
-39.29
-49.2
-59.16
-67.77
-73.31
-74.23
-69.62
-59.63
-45.42
-28.86
-11.97
3.58
16.74
27.09
34.59
39.41
41.73
41.83
40.12
37.19
33.79
30.7
28.51
27.49
27.56
28.25
28.97
29.12
28.27
26.21
23.04
19.01
14.46
9.67
4.74
-0.44
-6.16
-12.83
-20.81
-30.27
-41.01
-52.23
-62.57
-70.28
-73.55
-71.1
-62.6
-48.83
-31.54
-12.98
4.78
20.2
32.56
41.77
48.12
51.97
53.72
53.76
52.61
50.88
49.15
47.88
47.24
47.07
47.05
46.84
46.25
45.33
44.25
43.17
41.98
40.31
37.51
33.0
26.49
18.24
8.98
-0.32
-8.82
-16.11
-22.35
-28.19
-34.49
-42.01
-51.04
-61.16
-71.18
-79.28
-83.45
-82.12
-74.59
-61.37
-44.04
-24.78
-5.71
11.5
25.96
37.4
45.92
51.78
55.2
56.46
55.95
54.21
51.96
49.91
48.59
48.24
48.68
49.47
50.06
50.02
49.16
47.53
45.37
42.88
40.17
37.14
33.57
29.18
23.84
17.59
10.73
3.71
-3.01
-9.15
-14.65
-19.78
-24.96
-30.66
-37.3
-45.08
-53.88
-63.08
-71.55
-77.7
-79.89
-76.84
-68.19
-54.65
-37.86
-19.9
-2.74
12.21
24.22
33.17
39.3
43.05
44.9
45.32
44.8
43.82
42.82
42.19
42.19
42.87
44.11
45.56
46.83
47.55
47.5
46.62
44.95
42.56
39.53
35.9
31.73
27.09
22.05
16.66
10.99
5.09
-0.96
-7.04
-12.98
-18.63
-23.96
-29.08
-34.24
-39.81
-46.15
-53.46
-61.53
-69.57
-76.2
-79.75
-78.71
-72.29
-60.73
-45.28
-27.82
-10.28
5.79
19.44
30.31
38.34
43.63
46.33
46.68
45.16
42.49
39.55
37.16
35.92
35.99
37.11
38.74
40.23
41.06
40.95
39.91
38.12
35.87
33.3
30.45
27.19
23.31
18.67
13.25
7.28
1.11
-4.86
-10.36
-15.32
-19.88
-24.41
-29.37
-35.19
-42.14
-50.1
-58.44
-65.97
-71.15
-72.55
-69.2
-61.02
-48.79
-33.96
-18.21
-3.06
10.35
21.33
29.52
34.83
37.4
37.59
35.99
33.32
30.3
27.54
25.45
24.18
23.69
23.8
24.26
24.81
25.17
25.09
24.29
22.57
19.79
15.95
11.18
5.78
0.14
-5.38
-10.53
-15.28
-19.73
-24.19
-29.04
-34.67
-41.27
-48.66
-56.09
-62.25
-65.56
-64.61
-58.73
-48.24
-34.47
-19.33
-4.69
8.05
18.2
25.68
30.71
33.62
34.63
33.98
31.94
28.92
25.48
22.22
19.69
18.19
17.76
18.1
18.75
19.16
18.9
17.69
15.48
12.32
8.39
3.8
-1.29
-6.72
-12.32
-17.91
-23.41
-28.89
-34.66
-41.13
-48.52
-56.58
-64.38
-70.37
-72.82
-70.42
-62.82
-50.76
-35.91
-20.29
-5.63
6.9
16.85
24.26
29.33
32.36
33.56
33.24
31.82
29.85
27.93
26.52
25.83
25.8
26.21
26.77
27.27
27.55
27.42
26.64
24.87
21.84
17.5
12.07
6.0
-0.16
-6.03
-11.47
-16.66
-22.01
-28.02
-35.09
-43.21
-51.87
-59.85
-65.52
-67.19
-63.7
-54.88
-41.67
-25.85
-9.48
5.64
18.33
28.12
35.05
39.44
41.72
42.33
41.72
40.37
38.71
37.09
35.73
34.71
34.05
33.65
33.47
33.4
33.28
32.86
31.8
29.76
26.47
21.91
16.24
9.85
3.21
-3.28
-9.36
-15.03
-20.47
-26.08
-32.32
-39.51
-47.6
-55.92
-63.13
-67.51
-67.45
-62.03
-51.45
-37.01
-20.68
-4.58
9.67
21.13
29.55
35.08
38.08
38.97
38.21
36.37
34.05
31.86
30.19
29.28
29.08
29.39
29.95
30.53
30.95
31.1
30.86
30.07
28.55
26.08
22.59
18.12
12.91
7.32
1.7
-3.73
-8.98
-14.26
-19.97
-26.5
-34.07
-42.44
-50.87
-58.09
-62.59
-62.99
-58.52
-49.24
-36.13
-20.88
-5.37
8.75
20.42
29.23
35.25
38.82
40.21
39.74
37.76
34.76
31.4
28.39
26.19
24.93
24.4
24.2
24.0
23.69
23.28
22.81
22.14
20.96
18.89
15.66
11.31
6.17
0.8
-4.27
-8.69
-12.49
-16.03
-19.95
-24.83
-31.01
-38.23
-45.66
-51.93
-55.49
-55.13
-50.28
-41.25
-29.12
-15.44
-1.87
10.21
19.83
26.53
30.32
31.47
30.49
27.99
24.58
20.83
17.25
14.27
12.21
11.26
11.35
12.17
13.21
13.91
13.8
12.71
10.71
8.12
5.25
2.36
-0.5
-3.43
-6.62
-10.27
-14.58
-19.67
-25.54
-31.9
-38.13
-43.24
-46.04
-45.48
-40.97
-32.71
-21.66
-9.3
2.7
12.97
20.6
25.35
27.42
27.28
25.45
22.4
18.55
14.38
10.46
7.37
5.59
5.25
6.03
7.26
8.14
8.07
6.88
4.83
2.37
-0.11
-2.49
-4.93
-7.75
-11.23
-15.51
-20.58
-26.34
-32.56
-38.82
-44.35
-48.1
-48.94
-46.09
-39.44
-29.68
-18.12
-6.25
4.7
13.95
21.22
26.44
29.64
30.88
30.26
28.13
25.03
21.66
18.7
16.57
15.4
14.98
14.89
14.64
13.82
12.15
9.59
6.26
2.47
-1.42
-5.12
-8.46
-11.49
-14.42
-17.57
-21.28
-25.74
-30.9
-36.37
-41.34
-44.71
-45.32
-42.31
-35.46
-25.35
-13.25
-0.71
10.86
20.48
27.78
32.78
35.74
36.91
36.47
34.55
31.34
27.14
22.44
17.82
13.82
10.82
8.93
7.95
7.48
7.04
6.24
4.85
2.85
0.35
-2.45
-5.37
-8.33
-11.42
-14.83
-18.86
-23.73
-29.46
-35.75
-41.93
-46.95
-49.66
-49.04
-44.57
-36.44
-25.55
-13.37
-1.43
9.0
17.2
23.07
26.88
29.01
29.77
29.34
27.89
25.67
23.09
20.64
18.73
17.59
17.14
17.06
17.0
16.62
15.78
14.52
13.0
11.33
9.55
7.54
5.04
1.83
-2.19
-6.98
-12.39
-18.23
-24.31
-30.44
-36.21
-40.94
-43.69
-43.54
-39.88
-32.79
-23.1
-12.16
-1.4
8.0
15.41
20.66
23.93
25.53
25.78
24.95
23.32
21.19
18.9
16.78
15.13
14.06
13.5
13.23
12.89
12.16
10.87
9.07
6.94
4.7
2.45
0.12
-2.52
-5.63
-9.3
-13.43
-17.86
-22.43
-27.03
-31.53
-35.57
-38.55
-39.67
-38.25
-33.99
-27.22
-18.78
-9.85
-1.52
5.48
10.81
14.47
16.59
17.26
16.58
14.7
11.91
8.71
5.67
3.36
2.07
1.81
2.23
2.79
3.02
2.61
1.54
0.03
-1.62
-3.19
-4.68
-6.27
-8.25
-10.93
-14.49
-18.93
-23.98
-29.05
-33.31
-35.77
-35.66
-32.63
-26.95
-19.39
-11.03
-2.82
4.55
10.71
15.48
18.73
20.3
20.16
18.45
15.64
12.38
9.39
7.2
6.02
5.73
5.97
6.26
6.16
5.4
3.94
1.92
-0.38
-2.77
-5.16
-7.68
-10.67
-14.49
-19.43
-25.5
-32.37
-39.26
-45.13
-48.81
-49.38
-46.35
-39.92
-30.84
-20.31
-9.6
0.2
8.4
14.76
19.26
22.06
23.27
23.01
21.47
19.06
16.35
13.96
12.34
11.6
11.47
11.44
11.03
10.0
8.4
6.46
4.39
2.23
-0.15
-2.95
-6.34
-10.41
-15.19
-20.69
-26.87
-33.45
-39.82
-44.97
-47.76
-47.18
-42.77
-34.84
-24.39
-12.8
-1.49
8.42
16.32
22.04
25.71
27.57
27.86
26.84
24.82
22.23
19.6
17.41
16.02
15.5
15.72
16.33
16.92
17.15
16.75
15.55
13.52
10.72
7.27
3.38
-0.79
-5.15
-9.7
-14.52
-19.69
-25.23
-31.03
-36.75
-41.78
-45.29
-46.32
-44.11
-38.31
-29.26
-17.94
-5.78
5.78
15.63
23.15
28.31
31.4
32.89
33.21
32.65
31.48
29.92
28.27
26.79
25.74
25.19
25.07
25.2
25.37
25.37
25.04
24.25
22.87
20.75
17.8
14.01
9.52
4.57
-0.53
-5.53
-10.34
-15.05
-19.96
-25.41
-31.54
-38.11
-44.35
-49.04
-50.9
-48.95
-42.9
-33.27
-21.28
-8.52
3.52
13.69
21.4
26.53
29.35
30.22
29.54
27.71
25.1
22.21
19.55
17.63
16.72
16.73
17.25
17.72
17.66
16.85
15.36
13.4
11.1
8.47
5.47
2.12
-1.4
-4.74
-7.6
-9.89
-11.9
-14.13
-17.15
-21.26
-26.34
-31.79
-36.56
-39.48
-39.47
-35.89
-28.71
-18.6
-6.75
5.36
16.37
25.24
31.47
34.99
36.15
35.48
33.65
31.27
28.88
26.84
25.3
24.22
23.48
22.93
22.47
22.04
21.58
21.0
20.12
18.74
16.69
13.86
10.29
6.15
1.74
-2.65
-6.76
-10.47
-13.89
-17.29
-21.03
-25.49
-30.77
-36.61
-42.33
-46.83
-48.95
-47.69
-42.67
-34.22
-23.37
-11.52
-0.1
9.79
17.6
23.21
26.85
28.86
29.54
29.21
28.14
26.67
25.12
23.77
22.76
22.15
21.88
21.86
21.98
22.15
22.23
22.01
21.24
19.68
17.18
13.84
9.93
5.84
1.89
-1.8
-5.32
-8.97
-13.14
-18.12
-24.0
-30.48
-36.87
-42.12
-45.04
-44.68
-40.59
-33.02
-22.89
-11.54
-0.42
9.27
16.76
21.8
24.58
25.52
25.16
23.9
22.08
19.93
17.7
15.69
14.24
13.56
13.65
14.28
15.08
15.7
15.9
15.63
14.88
13.65
11.88
9.57
6.8
3.74
0.63
-2.42
-5.46
-8.74
-12.61
-17.37
-22.97
-28.93
-34.34
-38.03
-38.94
-36.47
-30.68
-22.3
-12.42
-2.22
7.33
15.51
21.91
26.29
28.52
28.65
26.9
23.7
19.66
15.4
11.48
8.3
6.06
4.76
4.27
4.25
4.33
4.15
3.39
1.94
-0.15
-2.74
-5.65
-8.81
-12.28
-16.24
-20.86
-26.24
-32.25
-38.47
-44.21
-48.63
-50.88
-50.35
-46.82
-40.53
-32.14
-22.56
-12.76
-3.6
4.28
10.43
14.62
16.81
17.18
16.13
14.23
12.13
10.4
9.39
9.11
9.25
9.34
8.9
7.62
5.51
2.75
-0.32
-3.46
-6.64
-10.01
-13.89
-18.6
-24.29
-30.79
-37.54
-43.65
-47.99
-49.59
-47.82
-42.67
-34.7
-24.98
-14.69
-4.95
3.45
10.11
15.02
18.38
20.4
21.22
20.92
19.55
17.35
14.71
12.15
10.11
8.8
8.14
7.86
7.65
7.3
6.71
5.84
4.6
2.79
0.16
-3.49
-8.21
-13.82
-19.87
-25.62
-30.14
-32.51
-32.08
-28.64
-22.48
-14.28
-4.89
4.81
14.12
22.48
29.46
34.74
38.11
39.55
39.26
37.66
35.24
32.49
29.74
27.12
24.58
22.01
19.37
16.69
14.05
11.51
8.97
6.24
3.12
-0.49
-4.6
-9.1
-13.84
-18.54
-22.75
-25.81
-26.9
-25.38
-20.98
-14.01
-5.31
3.95
12.64
19.88
25.12
28.16
29.0
27.79
24.85
20.65
15.82
11.04
6.93
3.86
1.87
0.67
-0.19
-1.1
-2.26
-3.57
-4.81
-5.75
-6.42
-7.1
-8.28
-10.4
-13.7
-18.0
-22.67
-26.76
-29.19
-29.07
-25.95
-19.97
-11.87
-2.67
6.62
15.29
22.99
29.63
35.19
39.57
42.59
44.14
44.26
43.23
41.47
39.41
37.43
35.74
34.45
33.55
32.94
32.39
31.66
30.48
28.65
26.14
22.97
19.22
14.97
10.22
4.99
-0.65
-6.47
-12.1
-17.08
-21.02
-23.68
-24.95
-24.84
-23.34
-20.34
-15.8
-9.8
-2.83
4.28
10.48
14.81
16.66
16.01
13.36
9.53
5.51
2.16
0.03
-0.74
-0.3
0.93
2.42
3.66
4.15
3.54
1.71
-1.23
-4.93
-8.9
-12.6
-15.64
-17.88
-19.47
-20.75
-22.17
-24.2
-27.27
-31.57
-36.84
-42.32
-46.87
-49.27
-48.47
-43.98
-36.2
-26.43
-16.37
-7.45
-0.49
4.48
7.97
10.98
14.7
19.75
25.72
31.46
35.73
37.39
35.77
30.36
21.18
8.45
-7.99
-28.84
-53.94
-80.96
-105.41
-121.65
-125.16
-113.56
-87.17
-48.94
-3.79
43.45
89.36
131.44
167.71
191.99
197.6
183.83
158.3
130.82
106.97
87.51
67.47
43.57
16.2
-10.01
-28.3
-30.93
-15.59
13.25
45.79
70.46
78.82
67.85
40.34
2.3
-40.54
-84.85
-128.21
-166.84
-195.16
-207.39
-201.0
-178.34
-145.98
-112.04
-83.35
-62.61
-48.28
-36.52
-23.73
-8.71
7.17
20.71
28.15
26.43
14.88
-3.97
-24.84
-41.47
-49.2
-46.52
-35.24
-19.09
-1.76
14.37
28.55
40.64
49.93
54.5
51.92
40.64
21.18
-3.39
-28.56
-49.6
-62.92
-67.25
-64.36
-58.73
-56.45
-63.13
-81.27
-109.38
-141.05
-166.13
-174.19
-158.14
-116.49
-53.57
21.64
98.3
164.37
209.58
227.99
219.39
189.33
147.58
105.15
67.31
39.9
23.39
13.34
5.21
-2.24
-7.9
-10.74
-11.21
-10.93
-9.79
-6.84
-0.18
11.78
29.08
49.6
70.2
88.58
103.16
116.43
132.48
155.78
188.72
229.28
270.01
299.9
308.16
288.07
239.87
169.1
86.05
3.56
-65.76
-112.58
-132.98
-129.66
-110.65
-86.47
-68.03
-62.02
-69.23
-85.27
-104.27
-121.77
-136.2
-147.38
-154.62
-157.36
-154.33
-144.8
-129.52
-111.65
-95.09
-83.16
-76.16
-62.74
-33.86
13.15
72.53
134.78
191.32
237.61
271.19
292.36
303.3
305.95
303.01
295.91
286.61
276.32
266.23
253.49
235.51
211.19
180.43
144.05
102.29
61.41
25.13
-4.21
-31.78
-63.21
-102.07
-148.66
-200.52
-254.17
-305.85
-353.38
-395.28
-439.11
-492.15
-558.25
-635.82
-719.94
-805.84
-890.26
-971.94
-1003.05
-953.51
-820.58
-631.74
-424.62
-228.63
-60.28
74.27
175.84
251.73
302.57
335.68
357.86
376.39
394.76
413.7
430.84
438.09
432.4
410.84
375.41
330.24
280.16
230.52
183.9
144.08
116.07
105.17
109.21
121.42
133.23
135.08
121.78
94.88
61.34
29.59
6.35
-8.27
-17.81
-26.82
-37.82
-50.2
-61.61
-69.95
-74.52
-75.42
-74.72
-74.23
-74.89
-76.24
-76.37
-72.9
-64.33
-51.11
-33.42
-12.64
9.47
31.3
51.41
68.89
83.15
93.2
97.74
95.79
86.64
70.36
48.05
21.43
-8.92
-39.57
-67.69
-91.52
-110.19
-123.76
-133.0
-138.31
-140.12
-138.95
-135.19
-129.78
-123.71
-117.83
-112.88
-109.41
-107.26
-106.22
-106.07
-106.33
-106.85
-107.45
-107.81
-107.3
-107.86
-110.14
-114.34
-120.38
-127.75
-135.95
-144.36
-152.35
-159.34
-164.87
-168.13
-168.58
-165.88
-159.86
-150.76
-139.13
-125.82
-111.83
-98.18
-85.31
-73.33
-62.0
-50.79
-39.17
-26.85
-13.84
-0.49
12.77
25.87
39.11
53.07
68.48
85.86
105.18
125.77
146.56
166.35
184.43
200.61
215.33
229.42
243.97
260.15
278.94
300.62
324.16
346.94
365.03
374.36
372.32
358.88
336.89
311.0
285.87
264.75
248.5
235.99
225.1
214.0
201.78
188.44
174.46
160.32
146.55
133.66
122.14
112.52
104.98
99.09
93.52
86.29
75.35
59.93
40.61
19.37
-1.02
-17.95
-29.68
-35.87
-37.53
-36.77
-35.02
-33.84
-34.64
-38.34
-44.93
-53.31
-61.57
-67.92
-71.63
-70.75
-64.69
-53.94
-39.63
-22.88
-4.47
14.96
34.24
51.29
68.22
87.37
110.73
139.23
172.45
209.07
247.72
287.67
328.66
376.38
434.53
501.82
570.94
631.03
672.34
690.41
687.42
643.23
552.1
419.84
263.42
104.36
-39.88
-160.03
-254.05
-319.27
-365.18
-395.8
-413.96
-422.44
-424.94
-425.76
-428.83
-436.12
-448.89
-468.95
-493.14
-518.14
-540.96
-559.04
-570.01
-571.67
-562.39
-542.19
-513.52
-476.84
-433.16
-383.84
-330.31
-273.69
-214.64
-153.65
-92.03
-32.83
21.18
66.45
99.62
118.75
124.29
118.95
106.59
90.67
73.18
55.56
38.72
23.78
12.28
5.81
5.32
10.54
19.97
31.34
42.56
52.15
59.33
63.85
65.6
64.41
60.15
52.96
43.52
33.12
23.43
16.07
12.05
11.46
13.47
16.6
19.26
20.32
19.32
16.52
12.57
8.09
3.42
-1.44
-6.54
-11.68
-16.19
-19.05
-19.26
-16.29
-10.27
-2.04
7.32
16.72
25.45
33.03
39.1
43.25
45.01
44.12
40.74
35.55
29.58
23.88
19.12
15.47
12.68
10.34
8.16
6.14
4.45
3.28
2.66
2.39
2.16
1.65
0.67
-0.87
-3.03
-5.88
-9.47
-13.72
-18.22
-22.32
-25.19
-26.1
-24.71
-21.15
-15.98
-9.97
-3.86
1.68
6.23
9.53
11.49
12.17
11.82
10.78
9.43
8.1
6.95
6.02
5.27
4.68
4.24
3.95
3.73
3.37
2.64
1.36
-0.45
-2.53
-4.49
-6.0
-6.98
-7.67
-8.47
-9.76
-11.62
-13.71
-15.42
-16.04
-15.05
-12.37
-8.29
-3.4
1.75
6.8
11.62
16.22
20.59
24.64
28.15
30.94
32.92
34.13
34.69
34.7
34.21
33.25
31.91
30.42
29.04
28.04
27.5
27.23
26.84
25.9
24.09
21.33
17.81
13.77
9.37
4.47
-1.24
-8.03
-15.79
-23.88
-31.3
-36.98
-40.3
-41.23
-40.28
-38.14
-35.36
-32.15
-28.55
-24.62
-20.64
-17.16
-14.72
-13.63
-13.76
-14.64
-15.65
-16.25
-16.16
-15.39
-14.13
-12.62
-11.11
-9.74
-8.59
-7.7
-7.07
-6.72
-6.66
-6.93
-7.55
-8.52
-9.8
-11.38
-13.23
-15.36
-17.69
-20.0
-21.81
-22.5
-21.49
-18.48
-13.57
-7.37
-0.64
5.82
11.48
16.03
19.38
21.5
22.37
22.04
20.61
18.42
15.89
13.5
11.64
10.5
10.01
9.97
10.07
10.03
9.64
8.82
7.62
6.14
4.53
2.9
1.29
-0.31
-1.95
-3.7
-5.69
-8.0
-10.71
-13.83
-17.2
-20.48
-23.15
-24.57
-24.21
-21.8
-17.48
-11.74
-5.35
0.94
6.52
11.0
14.25
16.29
17.24
17.33
16.77
15.81
14.67
13.49
12.39
11.45
10.75
10.34
10.21
10.21
10.13
9.71
8.81
7.4
5.61
3.61
1.57
-0.47
-2.51
-4.65
-6.95
-9.48
-12.28
-15.38
-18.71
-22.07
-24.99
-26.85
-26.98
-24.94
-20.72
-14.8
-8.05
-1.43
4.29
8.71
11.8
13.81
15.04
15.69
15.87
15.59
14.89
13.87
12.74
11.75
11.09
10.85
10.96
11.23
11.39
11.19
10.48
9.22
7.47
5.37
3.02
0.51
-2.17
-5.01
-8.08
-11.39
-14.97
-18.75
-22.53
-25.97
-28.57
-29.79
-29.19
-26.58
-22.1
-16.23
-9.62
-2.96
3.17
8.39
12.49
15.42
17.24
18.06
18.02
17.3
16.1
14.69
13.37
12.45
12.09
12.26
12.74
13.21
13.33
12.92
11.93
10.46
8.65
6.58
4.3
1.86
-0.69
-3.3
-5.95
-8.69
-11.66
-15.05
-18.99
-23.51
-28.42
-33.25
-37.33
-39.85
-40.09
-37.65
-32.63
-25.59
-17.39
-8.98
-1.03
6.0
12.02
17.0
20.96
23.89
25.75
26.58
26.54
25.9
25.02
24.26
23.88
23.94
24.28
24.52
24.23
23.1
21.12
18.49
15.57
12.68
9.96
7.34
4.69
1.87
-1.16
-4.3
-7.44
-10.5
-13.44
-16.29
-19.11
-21.97
-24.99
-28.28
-31.96
-36.09
-40.55
-44.95
-48.59
-50.58
-50.12
-46.75
-40.54
-32.14
-22.53
-12.75
-3.59
4.5
11.35
16.99
21.48
24.85
27.17
28.59
29.37
29.79
30.1
30.45
30.86
31.32
31.78
32.22
32.65
33.01
33.17
32.88
31.95
30.26
27.85
24.91
21.71
18.45
15.23
12.03
8.74
5.24
1.4
-2.8
-7.34
-12.04
-16.71
-21.12
-25.22
-29.15
-33.22
-37.77
-42.89
-48.24
-52.99
-56.04
-56.38
-53.45
-47.37
-38.85
-28.93
-18.65
-8.78
0.22
8.13
14.78
20.06
23.91
26.47
28.05
29.07
29.88
30.69
31.47
32.11
32.49
32.61
32.57
32.44
32.25
31.91
31.25
30.1
28.41
26.22
23.64
20.83
17.86
14.76
11.48
7.95
4.19
0.27
-3.63
-7.32
-10.69
-13.72
-16.57
-19.54
-22.99
-27.19
-32.22
-37.8
-43.31
-47.76
-50.09
-49.39
-45.22
-37.78
-27.9
-16.79
-5.72
4.25
12.54
18.97
23.69
26.94
28.92
29.76
29.62
28.73
27.48
26.35
25.7
25.72
26.32
27.23
28.09
28.65
28.77
28.47
27.85
26.96
25.8
24.27
22.2
19.43
15.88
11.58
6.76
1.76
-3.07
-7.46
-11.38
-14.97
-18.52
-22.31
-26.52
-31.15
-35.99
-40.68
-44.61
-47.1
-47.48
-45.24
-40.27
-32.87
-23.74
-13.81
-4.03
4.84
12.25
17.9
21.69
23.74
24.33
23.83
22.7
21.35
20.09
19.18
18.72
18.73
19.1
19.65
20.11
20.27
19.98
19.17
17.85
15.98
13.54
10.47
6.81
2.73
-1.5
-5.63
-9.54
-13.33
-17.28
-21.73
-26.87
-32.58
-38.35
-43.33
-46.53
-47.05
-44.36
-38.5
-30.1
-20.2
-9.99
-0.51
7.6
14.04
18.84
22.15
24.13
24.95
24.81
23.99
22.76
21.41
20.16
19.07
18.17
17.4
16.74
16.15
15.6
15.01
14.25
13.12
11.41
8.97
5.81
2.07
-1.98
-6.01
-9.83
-13.36
-16.75
-20.29
-24.32
-29.08
-34.5
-40.2
-45.35
-48.91
-49.83
-47.43
-41.64
-33.03
-22.63
-11.64
-1.12
8.2
15.94
21.99
26.39
29.27
30.81
31.25
30.88
29.94
28.67
27.28
25.93
24.79
23.9
23.26
22.73
22.11
21.18
19.73
17.61
14.77
11.26
7.25
3.0
-1.26
-5.36
-9.28
-13.19
-17.31
-21.93
-27.29
-33.5
-40.42
-47.55
-54.0
-58.59
-60.16
-57.94
-51.85
-42.6
-31.49
-19.95
-9.21
-0.09
7.05
12.17
15.43
17.12
17.64
17.46
16.97
16.42
15.76
14.76
13.09
10.59
7.39
3.93
0.9
-0.97
-1.07
0.84
4.57
9.46
14.53
18.67
20.91
20.77
18.25
13.85
8.27
2.12
-4.26
-10.85
-17.8
-25.16
-32.63
-39.47
-44.58
-46.85
-45.47
-40.28
-31.78
-21.06
-9.46
1.75
11.58
19.44
25.08
28.48
29.77
29.17
27.01
23.76
20.06
16.57
13.85
12.23
11.69
11.95
12.59
13.29
13.92
14.58
15.36
16.22
16.88
16.92
15.95
13.87
10.88
7.42
3.93
0.67
-2.35
-5.36
-8.72
-12.71
-17.5
-23.07
-29.13
-35.08
-40.09
-43.16
-43.38
-40.22
-33.67
-24.33
-13.27
-1.73
9.0
17.92
24.38
28.16
29.45
28.77
26.81
24.27
21.67
19.34
17.42
16.0
15.17
15.05
15.65
16.8
18.12
19.09
19.21
18.17
15.94
12.71
8.8
4.53
0.15
-4.19
-8.36
-12.32
-16.12
-19.96
-24.18
-29.12
-34.84
-40.88
-46.23
-49.53
-49.55
-45.6
-37.84
-27.2
-15.09
-2.95
8.09
17.35
24.51
29.51
32.39
33.35
32.71
30.98
28.76
26.63
24.99
23.94
23.37
23.03
22.7
22.34
22.01
21.78
21.53
20.94
19.57
17.06
13.31
8.58
3.35
-1.86
-6.7
-11.09
-15.19
-19.34
-23.89
-29.1
-35.06
-41.45
-47.58
-52.34
-54.47
-52.94
-47.32
-38.0
-26.08
-13.1
-0.56
10.5
19.53
26.48
31.5
34.77
36.4
36.51
35.31
33.25
30.9
28.86
27.51
26.94
26.97
27.25
27.43
27.32
26.9
26.22
25.3
24.01
22.11
19.31
15.47
10.69
5.34
-0.06
-5.02
-9.33
-13.04
-16.54
-20.36
-24.98
-30.58
-36.94
-43.35
-48.66
-51.62
-51.12
-46.66
-38.46
-27.49
-15.14
-2.85
8.29
17.61
24.88
30.12
33.48
35.15
35.36
34.43
32.77
30.8
28.96
27.55
26.74
26.51
26.64
26.8
26.7
26.18
25.24
24.02
22.63
21.07
19.21
16.86
13.86
10.2
6.04
1.63
-2.72
-6.75
-10.33
-13.45
-16.31
-19.25
-22.74
-27.1
-32.38
-38.08
-43.24
-46.58
-47.0
-43.84
-37.24
-27.97
-17.23
-6.26
3.98
12.87
20.14
25.7
29.53
31.67
32.24
31.5
29.82
27.67
25.52
23.74
22.55
21.99
21.94
22.13
22.28
22.18
21.71
20.92
19.9
18.76
17.5
16.03
14.14
11.68
8.58
4.98
1.14
-2.59
-5.91
-8.69
-11.01
-13.18
-15.62
-18.73
-22.74
-27.56
-32.72
-37.42
-40.68
-41.6
-39.64
-34.82
-27.67
-19.12
-10.2
-1.77
5.58
11.57
16.14
19.25
20.95
21.33
20.6
19.14
17.41
15.89
14.94
14.67
14.94
15.47
15.9
15.99
15.66
15.04
14.32
13.58
12.72
11.44
9.45
6.58
2.98
-1.0
-4.89
-8.35
-11.3
-13.88
-16.35
-18.93
-21.78
-24.9
-28.22
-31.54
-34.49
-36.52
-36.97
-35.26
-31.15
-24.9
-17.21
-9.02
-1.29
5.36
10.64
14.6
17.42
19.35
20.51
21.02
21.0
20.67
20.29
20.12
20.32
20.86
21.52
22.0
21.99
21.33
20.03
18.29
16.3
14.21
12.0
9.58
6.81
3.67
0.24
-3.28
-6.67
-9.79
-12.66
-15.44
-18.39
-21.73
-25.51
-29.58
-33.59
-37.01
-39.23
-39.72
-38.18
-34.52
-29.06
-22.38
-15.2
-8.24
-2.05
3.04
6.92
9.67
11.38
12.17
12.19
11.63
10.8
10.05
9.67
9.83
10.46
11.32
12.07
12.44
12.32
11.73
10.79
9.61
8.22
6.62
4.8
2.76
0.56
-1.76
-4.19
-6.7
-9.24
-11.72
-14.02
-16.06
-17.92
-19.8
-22.02
-24.8
-28.13
-31.68
-34.83
-36.84
-37.02
-34.98
-30.74
-24.73
-17.7
-10.47
-3.74
2.05
6.72
10.27
12.82
14.45
15.25
15.3
14.74
13.77
12.67
11.67
10.96
10.6
10.57
10.73
10.88
10.87
10.56
9.93
9.0
7.86
6.62
5.35
4.08
2.79
1.36
-0.28
-2.17
-4.25
-6.42
-8.54
-10.58
-12.55
-14.62
-16.98
-19.76
-23.03
-26.62
-30.12
-32.97
-34.54
-34.33
-32.07
-27.88
-22.2
-15.69
-9.04
-2.81
2.61
7.0
10.26
12.38
13.37
13.37
12.54
11.2
9.73
8.5
7.78
7.64
7.98
8.49
8.91
9.05
8.89
8.53
8.07
7.53
6.79
5.73
4.24
2.32
0.11
-2.23
-4.53
-6.71
-8.73
-10.6
-12.35
-14.03
-15.74
-17.66
-20.01
-22.97
-26.55
-30.5
-34.17
-36.72
-37.31
-35.39
-30.92
-24.42
-16.76
-8.92
-1.69
4.46
9.31
12.86
15.16
16.3
16.37
15.6
14.27
12.76
11.46
10.61
10.32
10.49
10.88
11.23
11.39
11.3
11.06
10.78
10.52
10.2
9.64
8.65
7.1
4.99
2.47
-0.27
-3.06
-5.83
-8.6
-11.5
-14.69
-18.26
-22.21
-26.42
-30.61
-34.34
-37.09
-38.31
-37.56
-34.59
-29.51
-22.75
-15.04
-7.23
-0.11
5.73
10.0
12.72
14.1
14.44
14.06
13.21
12.15
11.1
10.31
9.96
10.12
10.69
11.46
12.15
12.55
12.58
12.24
11.52
10.4
8.78
6.57
3.75
0.48
-2.99
-6.38
-9.53
-12.45
-15.3
-18.33
-21.81
-25.81
-30.16
-34.4
-37.78
-39.47
-38.77
-35.4
-29.59
-22.04
-13.7
-5.51
1.82
7.93
12.74
16.29
18.72
20.08
20.48
20.03
18.91
17.36
15.65
14.07
12.78
11.87
11.24
10.74
10.13
9.21
7.87
6.04
3.79
1.21
-1.58
-4.45
-7.29
-10.06
-12.77
-15.6
-18.79
-22.61
-27.16
-32.24
-37.21
-41.13
-42.91
-41.71
-37.19
-29.69
-20.13
-9.79
0.11
8.64
15.31
20.02
22.89
24.15
24.03
22.8
20.82
18.5
16.33
14.7
13.86
13.78
14.24
14.89
15.39
15.47
14.97
13.82
12.04
9.68
6.82
3.52
-0.12
-4.05
-8.16
-12.41
-16.86
-21.71
-27.13
-33.19
-39.55
-45.42
-49.65
-51.04
-48.75
-42.64
-33.32
-21.99
-10.04
1.23
10.91
18.47
23.77
26.96
28.35
28.38
27.54
26.3
25.05
24.03
23.38
23.08
23.09
23.27
23.5
23.63
23.53
23.07
22.12
20.55
18.22
14.99
10.86
5.99
0.7
-4.6
-9.53
-13.91
-17.83
-21.62
-25.74
-30.54
-36.1
-42.12
-47.84
-52.2
-54.0
-52.28
-46.63
-37.38
-25.57
-12.63
-0.09
10.92
19.77
26.36
30.89
33.67
34.96
34.95
33.87
32.12
30.22
28.76
28.19
28.61
29.75
31.03
31.82
31.7
30.54
28.55
26.12
23.56
21.0
18.35
15.35
11.69
7.22
1.98
-3.71
-9.38
-14.53
-18.85
-22.41
-25.71
-29.52
-34.6
-41.28
-49.13
-56.93
-62.87
-65.16
-62.62
-55.09
-43.56
-29.81
-15.94
-3.77
5.51
11.58
15.0
17.06
19.4
23.38
29.41
36.63
43.12
46.66
45.72
40.31
32.0
23.37
16.85
13.77
13.99
16.25
18.97
21.12
22.52
23.56
24.71
25.88
26.52
25.93
23.89
20.98
18.44
17.59
19.04
22.4
26.3
29.06
29.28
26.2
19.78
10.55
-0.52
-12.11
-22.53
-29.98
-32.91
-30.49
-22.96
-11.51
2.1
16.09
29.1
40.29
49.19
55.44
58.69
58.74
55.75
50.35
43.62
36.7
30.47
25.27
20.91
16.9
12.81
8.51
4.25
0.52
-2.29
-4.12
-5.32
-6.52
-8.28
-10.86
-14.12
-17.61
-20.83
-23.48
-25.51
-27.13
-28.7
-30.63
-33.31
-37.08
-42.04
-47.9
-53.8
-58.34
-59.94
-57.43
-50.47
-39.8
-26.98
-13.82
-1.88
7.95
15.36
20.39
23.15
23.69
22.13
18.86
14.6
10.22
6.56
4.12
2.92
2.61
2.71
2.83
2.79
2.58
2.19
1.43
-0.05
-2.7
-6.79
-12.2
-18.41
-24.62
-30.16
-34.74
-38.64
-42.43
-46.75
-51.93
-57.86
-63.98
-69.54
-73.78
-76.08
-76.0
-73.12
-66.86
-56.26
-39.81
-15.39
19.27
65.57
122.73
186.64
249.81
302.77
336.49
345.02
327.12
286.46
230.48
168.26
108.56
57.99
20.02
-5.45
-21.65
-33.64
-46.42
-62.98
-83.31
-104.64
-123.04
-135.32
-140.34
-138.94
-133.18
-125.08
-115.98
-106.62
-97.58
-89.7
-84.06
-81.5
-82.19
-85.41
-89.8
-93.84
-96.31
-96.48
-94.06
-89.02
-81.42
-71.43
-59.33
-45.62
-31.02
-16.4
-2.7
9.29
18.98
26.08
30.71
33.29
34.47
34.93
35.27
35.87
36.86
38.19
39.67
41.07
42.21
42.96
43.3
43.25
42.84
42.08
40.88
39.14
36.76
33.69
29.99
25.77
21.21
16.47
11.74
7.11
2.66
-1.63
-5.8
-9.93
-14.12
-18.55
-23.44
-28.96
-35.13
-41.54
-47.29
-51.08
-51.57
-47.87
-39.93
-28.66
-15.69
-2.81
8.55
17.66
24.45
29.3
32.63
34.76
35.83
35.93
35.26
34.15
33.04
32.3
32.15
32.54
33.27
34.0
34.44
34.42
33.88
32.94
31.73
30.35
28.77
26.86
24.4
21.26
17.41
13.02
8.43
4.02
0.05
-3.4
-6.48
-9.47
-12.69
-16.41
-20.81
-25.91
-31.54
-37.24
-42.26
-45.62
-46.38
-43.91
-38.13
-29.63
-19.49
-8.99
0.7
8.84
15.08
19.49
22.34
23.98
24.71
24.79
24.38
23.63
22.7
21.76
21.0
20.57
20.49
20.66
20.92
21.08
21.0
20.63
19.95
18.92
17.45
15.4
12.66
9.27
5.44
1.49
-2.26
-5.65
-8.77
-11.98
-15.68
-20.14
-25.25
-30.49
-34.99
-37.76
-38.0
-35.28
-29.78
-22.1
-13.25
-4.28
3.9
10.67
15.75
19.13
20.94
21.38
20.66
19.07
17.0
14.94
13.39
12.67
12.84
13.61
14.5
15.07
15.04
14.47
13.59
12.63
11.63
10.41
8.63
6.04
2.64
-1.26
-5.16
-8.63
-11.5
-13.92
-16.33
-19.2
-22.82
-27.11
-31.65
-35.67
-38.28
-38.7
-36.45
-31.52
-24.39
-15.9
-7.08
1.14
8.09
13.44
17.16
19.42
20.47
20.58
20.05
19.16
18.14
17.22
16.53
16.09
15.86
15.68
15.44
15.06
14.59
14.09
13.64
13.21
12.64
11.7
10.17
7.95
5.14
1.97
-1.24
-4.2
-6.77
-9.07
-11.39
-14.13
-17.57
-21.7
-26.05
-29.78
-31.94
-31.77
-28.97
-23.81
-17.07
-9.68
-2.51
3.88
9.24
13.5
16.71
18.86
19.91
19.94
19.17
18.02
16.92
16.25
16.07
16.23
16.45
16.45
16.1
15.44
14.61
13.72
12.84
11.93
10.86
9.52
7.8
5.66
3.18
0.52
-2.14
-4.63
-6.88
-8.96
-11.02
-13.25
-15.81
-18.78
-22.16
-25.77
-29.25
-32.01
-33.36
-32.67
-29.65
-24.47
-17.76
-10.43
-3.37
2.81
7.81
11.61
14.27
15.85
16.39
16.0
14.95
13.63
12.44
11.7
11.5
11.71
12.1
12.37
12.34
11.98
11.34
10.55
9.67
8.74
7.65
6.31
4.62
2.58
0.31
-2.02
-4.23
-6.22
-8.01
-9.71
-11.51
-13.59
-16.05
-18.9
-22.03
-25.15
-27.81
-29.49
-29.67
-28.01
-24.46
-19.35
-13.28
-7.01
-1.21
3.61
7.23
9.62
10.91
11.3
10.97
10.18
9.15
8.12
7.25
6.64
6.3
6.17
6.19
6.27
6.39
6.5
6.56
6.48
6.16
5.46
4.28
2.55
0.31
-2.32
-5.12
-7.87
-10.42
-12.78
-15.08
-17.55
-20.3
-23.23
-25.94
-27.84
-28.31
-26.95
-23.73
-18.99
-13.33
-7.43
-1.93
2.75
6.42
9.05
10.71
11.48
11.42
10.59
9.11
7.21
5.22
3.52
2.44
2.08
2.36
2.97
3.52
3.66
3.15
1.9
0.02
-2.25
-4.63
-6.86
-8.81
-10.47
-11.99
-13.59
-15.48
-17.81
-20.63
-23.78
-26.9
-29.41
-30.64
-29.92
-26.89
-21.68
-14.9
-7.58
-0.76
4.75
8.62
10.96
12.13
12.56
12.52
12.13
11.42
10.44
9.31
8.23
7.38
6.88
6.73
6.8
6.93
6.95
6.73
6.16
5.2
3.82
2.06
-0.04
-2.37
-4.86
-7.47
-10.25
-13.27
-16.63
-20.35
-24.33
-28.28
-31.77
-34.24
-35.14
-34.06
-30.83
-25.59
-18.84
-11.3
-3.79
2.99
8.51
12.56
15.14
16.43
16.71
16.29
15.48
14.53
13.64
12.92
12.37
11.96
11.62
11.32
11.05
10.81
10.53
10.09
9.3
8.02
6.18
3.84
1.2
-1.49
-4.08
-6.5
-8.83
-11.29
-14.15
-17.63
-21.76
-26.31
-30.73
-34.25
-35.99
-35.23
-31.7
-25.62
-17.78
-9.22
-1.0
6.17
11.95
16.33
19.46
21.41
22.18
21.8
20.45
18.57
16.76
15.56
15.26
15.76
16.7
17.61
18.2
18.38
18.26
17.95
17.5
16.75
15.5
13.55
10.9
7.68
4.22
0.84
-2.22
-4.87
-7.21
-9.45
-11.84
-14.64
-18.03
-22.05
-26.48
-30.83
-34.35
-36.16
-35.56
-32.21
-26.33
-18.65
-10.17
-1.87
5.47
11.44
15.91
18.94
20.68
21.31
21.01
20.05
18.74
17.41
16.34
15.67
15.36
15.28
15.26
15.17
14.97
14.67
14.26
13.68
12.79
11.42
9.44
6.82
3.69
0.29
-3.06
-6.12
-8.78
-11.07
-13.22
-15.59
-18.51
-22.19
-26.53
-31.05
-34.9
-37.03
-36.53
-32.91
-26.39
-17.79
-8.36
0.65
8.28
14.07
17.94
20.13
20.99
20.85
20.0
18.68
17.13
15.61
14.37
13.66
13.63
14.27
15.4
16.69
17.68
17.98
17.32
15.68
13.19
10.16
6.85
3.45
0.02
-3.47
-7.08
-10.9
-14.99
-19.43
-24.22
-29.24
-34.09
-38.03
-40.17
-39.63
-35.95
-29.3
-20.46
-10.67
-1.16
7.08
13.52
18.04
20.78
22.0
22.06
21.31
20.14
18.88
17.76
16.87
16.22
15.73
15.35
15.05
14.81
14.59
14.26
13.67
12.62
10.99
8.74
5.96
2.88
-0.27
-3.24
-5.94
-8.44
-10.98
-13.9
-17.53
-21.99
-27.01
-31.92
-35.74
-37.46
-36.3
-32.04
-25.08
-16.35
-7.01
1.86
9.5
15.6
20.15
23.34
25.38
26.46
26.69
26.19
25.15
23.83
22.56
21.61
21.1
21.0
21.08
21.14
20.99
20.61
20.02
19.27
18.24
16.72
14.47
11.37
7.54
3.33
-0.77
-4.41
-7.47
-10.1
-12.63
-15.45
-18.79
-22.67
-26.87
-30.93
-34.2
-35.93
-35.46
-32.38
-26.73
-19.01
-10.08
-0.94
7.52
14.65
20.06
23.61
25.31
25.38
24.18
22.25
20.19
18.5
17.49
17.15
17.27
17.47
17.41
16.91
15.9
14.52
13.0
11.54
10.25
9.07
7.78
6.08
3.69
0.49
-3.45
-7.78
-12.05
-15.83
-18.84
-21.03
-22.65
-24.11
-25.87
-28.25
-31.26
-34.5
-37.22
-38.52
-37.62
-34.13
-28.16
-20.25
-11.2
-1.88
6.92
14.56
20.56
24.6
26.66
27.0
26.21
25.01
24.03
23.65
23.89
24.47
24.97
24.98
24.3
23.0
21.34
19.69
18.33
17.37
16.64
15.9
14.83
13.25
11.1
8.4
5.25
1.77
-1.84
-5.35
-8.5
-11.11
-13.21
-15.11
-17.25
-20.08
-23.74
-27.91
-31.85
-34.58
-35.24
-33.38
-29.09
-22.93
-15.74
-8.39
-1.6
4.13
8.52
11.46
13.0
13.33
12.74
11.57
10.16
8.76
7.58
6.77
6.39
6.44
6.78
7.22
7.5
7.48
7.11
6.47
5.57
4.42
2.89
0.89
-1.57
-4.3
-7.05
-9.58
-11.89
-14.17
-16.77
-19.99
-23.8
-27.74
-31.05
-32.83
-32.35
-29.25
-23.67
-16.11
-7.37
1.63
10.06
17.24
22.76
26.48
28.48
29.05
28.51
27.15
25.2
22.81
20.19
17.58
15.29
13.55
12.43
11.86
11.61
11.39
10.93
10.04
8.57
6.45
3.65
0.26
-3.55
-7.52
-11.32
-14.78
-17.85
-20.72
-23.67
-27.0
-30.77
-34.64
-37.88
-39.53
-38.71
-34.98
-28.5
-20.07
-10.84
-1.99
5.56
11.36
15.34
17.72
18.8
18.87
18.17
16.92
15.31
13.52
11.79
10.32
9.27
8.67
8.42
8.29
7.99
7.3
6.07
4.29
2.02
-0.65
-3.64
-6.91
-10.35
-13.83
-17.17
-20.29
-23.25
-26.25
-29.49
-32.95
-36.26
-38.67
-39.28
-37.39
-32.74
-25.68
-17.01
-7.77
1.07
8.79
14.94
19.34
21.99
23.05
22.85
21.76
20.2
18.57
17.14
16.04
15.31
14.89
14.69
14.61
14.51
14.25
13.65
12.56
10.84
8.45
5.45
2.01
-1.66
-5.32
-8.86
-12.25
-15.62
-19.19
-23.15
-27.6
-32.35
-36.92
-40.53
-42.3
-41.48
-37.7
-31.15
-22.53
-12.87
-3.25
5.42
12.51
17.78
21.23
23.04
23.49
22.94
21.74
20.23
18.72
17.37
16.26
15.37
14.6
13.9
13.25
12.66
12.13
11.57
10.78
9.53
7.64
5.05
1.9
-1.54
-5.02
-8.41
-11.7
-15.01
-18.53
-22.38
-26.59
-31.07
-35.57
-39.57
-42.34
-43.01
-40.83
-35.45
-27.18
-16.98
-6.18
3.92
12.37
18.78
23.18
25.85
27.07
27.06
26.02
24.25
22.09
19.94
18.13
16.83
16.03
15.61
15.43
15.36
15.28
15.04
14.43
13.22
11.23
8.43
4.92
0.98
-3.05
-6.87
-10.32
-13.49
-16.65
-20.23
-24.62
-29.91
-35.79
-41.43
-45.65
-47.18
-45.11
-39.18
-29.98
-18.77
-7.17
3.34
11.8
17.91
21.9
24.31
25.62
26.08
25.77
24.76
23.27
21.69
20.5
20.06
20.43
21.34
22.31
22.83
22.53
21.27
19.11
16.24
12.87
9.24
5.56
1.99
-1.4
-4.64
-7.92
-11.54
-15.84
-21.0
-26.95
-33.14
-38.59
-42.06
-42.4
-38.96
-31.84
-21.94
-10.67
0.43
10.14
17.75
23.08
26.3
27.75
27.77
26.72
24.98
22.94
20.97
19.34
18.12
17.33
16.9
16.79
16.94
17.2
17.34
17.03
15.94
13.84
10.68
6.6
1.92
-3.01
-7.82
-12.28
-16.33
-20.13
-24.11
-28.69
-34.2
-40.55
-47.09
-52.72
-56.1
-56.08
-52.01
-44.0
-32.88
-20.02
-6.91
5.13
15.23
22.97
28.35
31.58
33.01
33.03
32.11
30.71
29.32
28.28
27.75
27.67
27.85
28.04
28.05
27.83
27.45
26.98
26.43
25.61
24.2
21.88
18.47
14.05
8.97
3.76
-1.09
-5.28
-8.84
-12.03
-15.33
-19.27
-24.25
-30.37
-37.32
-44.25
-49.89
-52.85
-51.98
-46.82
-37.79
-26.09
-13.36
-1.18
9.29
17.52
23.53
27.67
30.34
31.88
32.52
32.5
32.05
31.44
30.94
30.69
30.75
31.03
31.42
31.77
31.96
31.9
31.48
30.65
29.36
27.62
25.46
22.93
20.07
16.92
13.5
9.82
5.93
1.86
-2.33
-6.56
-10.68
-14.57
-18.16
-21.52
-24.92
-28.74
-33.34
-38.84
-44.99
-51.09
-56.06
-58.71
-58.02
-53.45
-45.13
-33.88
-21.02
-8.03
3.82
13.7
21.31
26.75
30.33
32.41
33.29
33.25
32.59
31.67
30.88
30.5
30.66
31.3
32.15
32.97
33.51
33.71
33.54
33.03
32.08
30.53
28.25
25.17
21.49
17.54
13.69
10.2
7.1
4.2
1.21
-2.09
-5.77
-9.69
-13.62
-17.29
-20.53
-23.32
-25.86
-28.48
-31.58
-35.42
-39.92
-44.59
-48.45
-50.31
-49.05
-44.07
-35.48
-24.18
-11.59
0.7
11.36
19.61
25.28
28.66
30.29
30.65
30.13
28.9
27.18
25.19
23.3
21.88
21.2
21.31
22.06
23.1
24.01
24.46
24.27
23.41
21.95
20.05
17.82
15.35
12.64
9.6
6.21
2.47
-1.5
-5.5
-9.3
-12.72
-15.72
-18.39
-21.0
-23.83
-27.15
-31.12
-35.74
-40.79
-45.73
-49.72
-51.71
-50.72
-46.16
-38.13
-27.42
-15.36
-3.39
7.24
15.83
22.14
26.3
28.59
29.34
28.88
27.59
25.92
24.38
23.37
23.12
23.62
24.65
25.86
26.95
27.72
28.07
27.95
27.36
26.26
24.63
22.47
19.87
16.93
13.73
10.32
6.69
2.81
-1.31
-5.59
-9.87
-13.98
-17.76
-21.1
-24.05
-26.77
-29.55
-32.72
-36.52
-41.04
-46.04
-50.88
-54.65
-56.3
-54.9
-50.0
-41.79
-31.11
-19.22
-7.49
2.98
11.47
17.76
21.97
24.37
25.29
25.05
23.99
22.48
20.96
19.77
19.16
19.15
19.59
20.29
21.06
21.79
22.42
22.87
22.97
22.51
21.33
19.45
17.09
14.62
12.31
10.23
8.15
5.7
2.54
-1.41
-5.93
-10.52
-14.67
-18.05
-20.6
-22.61
-24.57
-27.0
-30.31
-34.6
-39.58
-44.53
-48.46
-50.28
-49.14
-44.72
-37.29
-27.73
-17.18
-6.84
2.37
9.89
15.54
19.43
21.81
23.01
23.31
22.97
22.17
21.1
19.96
18.96
18.31
18.14
18.44
19.05
19.73
20.19
20.26
19.88
19.08
17.95
16.53
14.8
12.69
10.12
7.09
3.73
0.23
-3.27
-6.66
-10.03
-13.47
-17.13
-21.09
-25.36
-29.92
-34.77
-39.83
-44.8
-49.14
-52.03
-52.62
-50.26
-44.81
-36.68
-26.74
-16.05
-5.59
3.87
11.81
17.97
22.29
24.81
25.71
25.23
23.68
21.43
18.91
16.59
14.83
13.83
13.54
13.62
13.69
13.43
12.71
11.62
10.37
9.08
7.75
6.25
4.4
2.1
-0.6
-3.54
-6.47
-9.2
-11.65
-13.92
-16.25
-18.95
-22.32
-26.48
-31.35
-36.49
-41.23
-44.73
-46.14
-44.82
-40.49
-33.35
-24.07
-13.67
-3.31
5.96
13.45
18.89
22.4
24.32
25.0
24.67
23.45
21.46
18.88
16.05
13.4
11.25
9.74
8.84
8.34
7.95
7.48
6.75
5.59
3.91
1.6
-1.31
-4.71
-8.36
-12.01
-15.43
-18.6
-21.7
-25.08
-29.1
-33.95
-39.43
-44.89
-49.27
-51.41
-50.34
-45.58
-37.39
-26.63
-14.6
-2.7
7.86
16.3
22.31
25.98
27.65
27.71
26.56
24.5
21.81
18.78
15.81
13.27
11.51
10.7
10.76
11.34
11.92
11.98
11.14
9.28
6.55
3.26
-0.27
-3.85
-7.49
-11.35
-15.65
-20.64
-26.44
-33.08
-40.31
-47.5
-53.63
-57.43
-57.62
-53.42
-44.82
-32.77
-18.83
-4.85
7.62
17.6
24.77
29.3
31.63
32.19
31.34
29.4
26.69
23.61
20.65
18.25
16.73
16.15
16.25
16.59
16.65
16.06
14.7
12.63
10.02
7.05
3.76
0.12
-3.95
-8.54
-13.75
-19.65
-26.35
-33.85
-41.85
-49.64
-56.1
-59.8
-59.49
-54.47
-44.89
-31.82
-16.96
-2.17
10.95
21.44
29.0
33.83
36.43
37.29
36.82
35.37
33.3
30.99
28.88
27.31
26.44
26.18
26.21
26.13
25.62
24.53
22.85
20.68
18.08
15.01
11.39
7.15
2.32
-2.88
-8.2
-13.41
-18.46
-23.58
-29.19
-35.67
-43.08
-50.85
-57.7
-61.9
-61.82
-56.53
-46.2
-32.16
-16.43
-1.11
12.26
22.95
30.97
36.72
40.6
42.86
43.59
42.91
41.19
39.0
37.04
35.87
35.69
36.3
37.19
37.81
37.78
37.05
35.84
34.44
33.05
31.58
29.72
27.06
23.31
18.45
12.77
6.75
0.91
-4.4
-9.07
-13.22
-17.1
-21.04
-25.35
-30.37
-36.32
-43.19
-50.51
-57.23
-61.83
-62.7
-58.69
-49.62
-36.42
-20.85
-4.98
9.46
21.4
30.52
36.98
41.14
43.37
43.94
43.14
41.39
39.21
37.22
35.94
35.67
36.34
37.63
39.0
39.99
40.26
39.74
38.51
36.74
34.58
32.1
29.31
26.13
22.48
18.32
13.7
8.73
3.64
-1.37
-6.1
-10.46
-14.41
-17.99
-21.3
-24.53
-27.97
-32.05
-37.16
-43.4
-50.31
-56.75
-61.12
-61.78
-57.62
-48.52
-35.45
-20.19
-4.76
9.06
20.19
28.26
33.42
36.13
36.9
36.16
34.39
32.07
29.71
27.81
26.73
26.6
27.31
28.59
30.05
31.35
32.23
32.52
32.17
31.16
29.55
27.42
24.86
21.94
18.7
15.13
11.22
7.02
2.58
-1.99
-6.57
-10.98
-15.05
-18.69
-21.95
-25.1
-28.6
-32.92
-38.35
-44.68
-51.12
-56.37
-58.98
-57.75
-52.19
-42.64
-30.24
-16.56
-3.19
8.63
18.2
25.32
30.17
33.13
34.53
34.72
34.04
32.84
31.52
30.48
29.98
30.13
30.82
31.77
32.67
33.28
33.49
33.28
32.66
31.59
29.94
27.54
24.35
20.46
16.19
11.91
7.93
4.33
1.01
-2.25
-5.67
-9.27
-12.94
-16.45
-19.62
-22.45
-25.1
-27.95
-31.41
-35.79
-41.18
-47.27
-53.25
-57.98
-60.07
-58.45
-52.64
-43.02
-30.76
-17.48
-4.8
6.11
14.66
20.85
25.0
27.54
28.86
29.27
29.07
28.57
28.11
27.95
28.22
28.88
29.72
30.49
30.99
31.14
31.02
30.75
30.42
30.0
29.33
28.15
26.23
23.5
20.06
16.22
12.4
8.99
6.16
3.83
1.64
-0.86
-3.97
-7.76
-11.94
-16.11
-19.9
-23.16
-26.01
-28.69
-31.53
-34.86
-38.92
-43.84
-49.45
-55.15
-59.87
-62.24
-61.04
-55.63
-46.31
-34.23
-21.04
-8.37
2.6
11.27
17.58
21.79
24.29
25.48
25.78
25.6
25.3
25.09
25.04
25.13
25.26
25.4
25.54
25.74
26.02
26.35
26.67
26.87
26.87
26.56
25.82
24.5
22.51
19.87
16.72
13.39
10.18
7.29
4.69
2.18
-0.53
-3.68
-7.26
-11.1
-14.87
-18.28
-21.18
-23.65
-25.91
-28.24
-30.91
-34.11
-37.97
-42.47
-47.4
-52.22
-56.03
-57.72
-56.32
-51.31
-42.92
-32.12
-20.3
-8.86
1.14
9.15
15.08
19.13
21.58
22.75
22.92
22.39
21.49
20.49
19.67
19.15
18.99
19.17
19.62
20.23
20.93
21.64
22.23
22.55
22.39
21.56
19.94
17.57
14.62
11.4
8.17
5.08
2.13
-0.83
-3.94
-7.25
-10.71
-14.18
-17.44
-20.32
-22.81
-25.02
-27.27
-29.95
-33.42
-37.83
-42.91
-47.92
-51.8
-53.37
-51.74
-46.61
-38.4
-28.11
-17.08
-6.53
2.64
10.0
15.52
19.34
21.61
22.46
22.08
20.74
18.89
17.03
15.62
14.92
14.88
15.27
15.74
16.02
15.97
15.64
15.14
14.6
14.0
13.21
12.0
10.13
7.46
4.03
0.06
-4.11
-8.13
-11.77
-14.96
-17.79
-20.51
-23.47
-27.0
-31.36
-36.58
-42.31
-47.77
-51.85
-53.4
-51.57
-46.15
-37.68
-27.25
-16.24
-5.87
3.08
10.3
15.78
19.69
22.15
23.26
23.18
22.18
20.64
19.05
17.8
17.1
16.95
17.17
17.52
17.77
17.8
17.6
17.2
16.63
15.89
14.87
13.37
11.15
8.04
4.05
-0.59
-5.45
-10.1
-14.25
-17.86
-21.16
-24.52
-28.31
-32.79
-38.03
-43.84
-49.78
-55.08
-58.75
-59.73
-57.21
-50.97
-41.49
-29.9
-17.63
-6.07
3.82
11.61
17.33
21.24
23.68
24.9
25.11
24.5
23.37
22.08
21.03
20.53
20.68
21.34
22.22
22.95
23.25
23.04
22.38
21.37
20.04
18.25
15.78
12.47
8.3
3.51
-1.52
-6.38
-10.77
-14.62
-18.11
-21.54
-25.34
-29.86
-35.37
-41.84
-48.86
-55.53
-60.58
-62.65
-60.68
-54.36
-44.21
-31.5
-17.84
-4.76
6.65
15.82
22.65
27.27
29.91
30.86
30.49
29.29
27.77
26.46
25.71
25.68
26.25
27.16
28.09
28.75
28.98
28.79
28.24
27.44
26.39
25.0
23.08
20.36
16.66
11.94
6.42
0.52
-5.19
-10.23
-14.41
-17.88
-21.15
-24.89
-29.73
-35.91
-43.16
-50.63
-57.02
-60.88
-60.96
-56.63
-48.04
-36.13
-22.38
-8.41
4.41
15.14
23.41
29.18
32.65
34.11
33.83
32.18
29.66
26.91
24.63
23.36
23.35
24.46
26.22
27.99
29.26
29.78
29.59
28.88
27.81
26.41
24.54
22.01
18.66
14.47
9.54
4.11
-1.51
-6.96
-11.97
-16.37
-20.21
-23.79
-27.56
-32.07
-37.65
-44.17
-50.87
-56.43
-59.3
-58.16
-52.4
-42.39
-29.34
-14.96
-0.97
11.34
21.24
28.54
33.32
35.76
36.15
34.84
32.42
29.62
27.18
25.73
25.46
26.19
27.37
28.37
28.69
28.24
27.21
25.99
24.84
23.76
22.43
20.38
17.21
12.87
7.61
1.94
-3.58
-8.57
-12.92
-16.75
-20.38
-24.28
-28.88
-34.49
-41.12
-48.21
-54.72
-59.12
-59.93
-56.13
-47.64
-35.4
-21.11
-6.71
6.24
16.83
24.84
30.46
34.06
35.92
36.27
35.42
33.75
31.81
30.12
29.07
28.81
29.28
30.22
31.32
32.31
33.0
33.28
33.07
32.3
30.86
28.69
25.8
22.32
18.45
14.39
10.28
6.1
1.78
-2.76
-7.52
-12.34
-16.96
-21.18
-24.95
-28.47
-32.19
-36.64
-42.21
-48.87
-56.0
-62.36
-66.37
-66.54
-61.98
-52.75
-39.86
-24.98
-9.96
3.62
14.77
23.13
28.83
32.29
34.02
34.57
34.43
34.0
33.59
33.36
33.36
33.55
33.85
34.18
34.47
34.67
34.76
34.69
34.39
33.73
32.54
30.65
27.98
24.65
20.88
17.01
13.28
9.77
6.36
2.84
-1.0
-5.18
-9.6
-14.0
-18.16
-21.94
-25.41
-28.81
-32.49
-36.83
-42.08
-48.2
-54.76
-60.84
-65.18
-66.43
-63.58
-56.26
-44.97
-31.0
-16.07
-1.9
10.21
19.56
26.09
30.16
32.32
33.09
32.92
32.16
31.11
30.04
29.2
28.79
28.85
29.34
30.11
30.99
31.81
32.43
32.7
32.51
31.73
30.27
28.09
25.26
21.93
18.35
14.76
11.29
7.93
4.51
0.78
-3.45
-8.17
-13.16
-18.04
-22.41
-26.07
-29.06
-31.75
-34.71
-38.52
-43.55
-49.68
-56.24
-62.02
-65.51
-65.38
-60.8
-51.84
-39.42
-25.09
-10.63
2.45
13.21
21.29
26.83
30.23
31.97
32.44
32.0
30.96
29.67
28.47
27.65
27.35
27.54
28.08
28.77
29.44
29.99
30.37
30.45
30.06
28.98
27.06
24.3
20.85
16.99
12.97
8.95
4.92
0.78
-3.51
-7.91
-12.19
-16.09
-19.48
-22.43
-25.22
-28.27
-31.97
-36.59
-42.13
-48.27
-54.31
-59.18
-61.63
-60.53
-55.28
-46.05
-33.82
-20.14
-6.69
5.21
14.75
21.72
26.24
28.62
29.17
28.29
26.42
24.09
21.85
20.13
19.15
18.9
19.14
19.55
19.83
19.81
19.52
19.1
18.69
18.32
17.84
16.9
15.09
12.11
7.94
2.85
-2.62
-7.91
-12.6
-16.57
-20.01
-23.35
-27.06
-31.57
-37.03
-43.22
-49.47
-54.68
-57.53
-56.86
-52.02
-43.22
-31.44
-18.22
-5.14
6.51
16.01
23.11
27.9
30.57
31.38
30.64
28.81
26.45
24.1
22.18
20.87
20.12
19.73
19.47
19.21
18.9
18.61
18.34
18.01
17.42
16.26
14.22
11.14
7.02
2.11
-3.17
-8.36
-13.07
-17.2
-20.88
-24.53
-28.67
-33.72
-39.83
-46.65
-53.34
-58.6
-61.08
-59.63
-53.8
-44.0
-31.4
-17.62
-4.26
7.47
16.95
24.06
28.96
31.87
33.0
32.57
30.9
28.45
25.81
23.55
22.12
21.77
22.43
23.75
25.24
26.39
26.9
26.7
25.95
24.84
23.39
21.42
18.6
14.65
9.58
3.72
-2.34
-8.05
-13.05
-17.35
-21.18
-24.93
-28.96
-33.51
-38.74
-44.66
-51.02
-57.18
-62.01
-64.09
-62.1
-55.42
-44.42
-30.48
-15.54
-1.5
10.35
19.49
26.07
30.48
33.09
34.16
33.89
32.6
30.79
29.05
27.88
27.54
28.0
29.0
30.19
31.22
31.87
32.03
31.7
30.89
29.65
27.93
25.6
22.5
18.53
13.67
8.15
2.34
-3.34
-8.5
-12.95
-16.79
-20.28
-23.83
-27.88
-32.78
-38.71
-45.56
-52.78
-59.39
-64.0
-65.23
-62.1
-54.36
-42.74
-28.68
-14.0
-0.34
11.17
20.06
26.37
30.48
32.79
33.7
33.5
32.52
31.09
29.61
28.44
27.91
28.13
29.04
30.38
31.78
32.86
33.37
33.21
32.39
30.99
29.07
26.64
23.71
20.31
16.56
12.56
8.41
4.13
-0.26
-4.78
-9.33
-13.74
-17.82
-21.46
-24.72
-27.87
-31.33
-35.55
-40.8
-46.92
-53.21
-58.38
-60.91
-59.44
-53.33
-42.96
-29.69
-15.43
-2.04
9.16
17.66
23.57
27.32
29.33
29.89
29.22
27.65
25.69
23.97
23.05
23.23
24.43
26.23
28.03
29.27
29.63
29.07
27.83
26.24
24.58
22.89
21.0
18.59
15.4
11.4
6.81
2.01
-2.61
-6.83
-10.62
-14.09
-17.4
-20.67
-24.08
-27.83
-32.17
-37.19
-42.62
-47.68
-51.15
-51.78
-48.67
-41.72
-31.66
-19.8
-7.64
3.55
13.01
20.43
25.86
29.44
31.3
31.58
30.47
28.34
25.74
23.34
21.72
21.2
21.77
23.04
24.46
25.49
25.82
25.4
24.39
22.99
21.33
19.41
17.06
14.08
10.32
5.82
0.81
-4.34
-9.22
-13.56
-17.28
-20.53
-23.57
-26.79
-30.51
-34.99
-40.26
-46.0
-51.42
-55.36
-56.48
-53.75
-46.86
-36.41
-23.73
-10.53
1.67
11.87
19.7
25.26
28.87
30.89
31.69
31.62
31.04
30.26
29.52
28.97
28.66
28.57
28.71
29.04
29.54
30.14
30.71
31.06
30.99
30.26
28.7
26.25
22.95
19.06
14.88
10.73
6.79
3.07
-0.62
-4.46
-8.55
-12.85
-17.08
-20.95
-24.26
-27.03
-29.59
-32.47
-36.26
-41.28
-47.38
-53.81
-59.34
-62.5
-62.06
-57.38
-48.68
-36.99
-23.86
-10.89
0.63
10.03
17.16
22.29
25.81
28.02
29.14
29.33
28.86
28.09
27.46
27.28
27.65
28.45
29.37
30.14
30.62
30.85
30.95
31.01
30.91
30.42
29.25
27.21
24.32
20.78
16.95
13.2
9.8
6.81
4.17
1.63
-1.06
-4.1
-7.56
-11.35
-15.24
-18.97
-22.32
-25.22
-27.77
-30.26
-33.1
-36.73
-41.45
-47.19
-53.41
-59.06
-62.79
-63.3
-59.73
-52.02
-40.98
-28.06
-14.98
-3.18
6.45
13.7
18.89
22.51
25.02
26.64
27.44
27.5
27.02
26.38
26.05
26.36
27.39
28.93
30.54
31.79
32.4
32.35
31.8
30.96
29.96
28.72
27.09
24.89
22.03
18.67
15.04
11.46
8.16
5.24
2.67
0.33
-1.99
-4.49
-7.29
-10.43
-13.79
-17.18
-20.36
-23.22
-25.86
-28.54
-31.59
-35.35
-39.97
-45.39
-51.22
-56.76
-61.0
-62.82
-61.23
-55.75
-46.6
-34.76
-21.66
-8.86
2.41
11.41
17.94
22.2
24.56
25.45
25.27
24.35
23.04
21.64
20.44
19.68
19.47
19.78
20.47
21.39
22.42
23.5
24.56
25.47
25.97
25.74
24.48
22.11
18.85
15.11
11.4
8.02
5.02
2.12
-1.07
-4.81
-9.16
-13.83
-18.4
-22.42
-25.73
-28.43
-30.94
-33.83
-37.63
-42.56
-48.36
-54.26
-59.02
-61.24
-59.79
-54.19
-44.81
-32.78
-19.7
-7.12
3.8
12.48
18.89
23.3
26.06
27.47
27.81
27.26
26.08
24.54
22.95
21.57
20.65
20.33
20.65
21.5
22.67
23.85
24.74
25.1
24.74
23.58
21.63
18.93
15.6
11.82
7.75
3.58
-0.59
-4.71
-8.81
-12.91
-17.05
-21.19
-25.28
-29.27
-33.22
-37.34
-41.93
-47.24
-53.18
-59.18
-64.16
-66.73
-65.68
-60.37
-51.02
-38.69
-24.92
-11.32
0.85
10.84
18.47
23.92
27.52
29.66
30.62
30.64
29.9
28.65
27.19
25.88
25.04
24.87
25.37
26.35
27.47
28.41
28.9
28.83
28.14
26.89
25.08
22.72
19.78
16.26
12.18
7.61
2.7
-2.36
-7.36
-12.15
-16.62
-20.78
-24.72
-28.62
-32.73
-37.36
-42.82
-49.19
-56.28
-63.32
-69.09
-72.1
-71.06
-65.33
-55.19
-41.8
-26.86
-12.15
0.97
11.71
19.86
25.61
29.31
31.34
32.04
31.7
30.68
29.33
28.0
27.04
26.65
26.87
27.62
28.67
29.76
30.64
31.08
30.92
30.05
28.43
26.09
23.14
19.68
15.83
11.6
7.04
2.25
-2.58
-7.21
-11.46
-15.3
-18.87
-22.5
-26.53
-31.28
-36.91
-43.4
-50.48
-57.51
-63.45
-66.92
-66.59
-61.59
-51.94
-38.67
-23.51
-8.45
4.92
15.69
23.69
29.21
32.7
34.5
34.86
34.02
32.33
30.31
28.54
27.53
27.52
28.45
29.91
31.38
32.36
32.59
32.06
30.95
29.53
27.93
26.08
23.76
20.66
16.56
11.46
5.63
-0.46
-6.29
-11.47
-15.87
-19.63
-23.09
-26.67
-30.77
-35.68
-41.52
-48.16
-55.1
-61.36
-65.6
-66.35
-62.58
-54.06
-41.6
-26.84
-11.7
2.2
13.88
22.99
29.55
33.69
35.44
35.01
32.8
29.63
26.52
24.42
23.84
24.68
26.4
28.19
29.38
29.62
28.96
27.71
26.26
24.84
23.34
21.4
18.49
14.27
8.77
2.43
-4.05
-10.0
-15.03
-19.19
-22.79
-26.42
-30.61
-35.81
-42.15
-49.31
-56.41
-62.07
-64.66
-62.82
-56.0
-44.72
-30.45
-15.14
-0.61
11.87
21.73
28.99
33.94
36.87
38.08
37.82
36.5
34.65
32.86
31.7
31.47
32.21
33.67
35.42
36.97
37.9
37.95
37.01
35.16
32.6
29.57
26.27
22.8
19.1
15.03
10.48
5.44
0.04
-5.45
-10.73
-15.64
-20.13
-24.31
-28.39
-32.62
-37.35
-42.88
-49.42
-56.82
-64.39
-70.76
-74.17
-72.99
-66.33
-54.48
-38.96
-21.95
-5.67
8.32
19.38
27.63
33.55
37.67
40.3
41.65
41.97
41.6
41.03
40.72
40.96
41.76
42.87
43.93
44.59
44.73
44.42
43.92
43.38
42.78
41.79
39.95
36.86
32.51
27.29
21.9
17.03
13.07
9.94
7.17
4.16
0.39
-4.29
-9.7
-15.38
-20.82
-25.62
-29.66
-33.13
-36.47
-40.34
-45.37
-51.92
-59.78
-67.96
-74.78
-78.27
-76.72
-69.35
-56.63
-40.19
-22.32
-5.27
9.28
20.54
28.53
33.73
36.82
38.42
39.04
39.1
38.94
38.87
39.14
39.88
41.08
42.58
44.1
45.29
45.92
45.87
45.23
44.21
43.02
41.69
40.09
37.92
34.92
31.0
26.34
21.37
16.62
12.46
9.05
6.19
3.52
0.61
-2.84
-6.89
-11.37
-15.96
-20.29
-24.14
-27.48
-30.62
-34.01
-38.23
-43.74
-50.69
-58.72
-66.91
-73.83
-77.76
-77.22
-71.35
-60.3
-45.28
-28.29
-11.48
3.36
15.2
23.86
29.73
33.44
35.54
36.46
36.51
35.99
35.34
34.96
35.21
36.18
37.7
39.44
40.99
42.06
42.53
42.43
41.9
41.09
40.02
38.62
36.69
34.02
30.47
26.14
21.36
16.64
12.51
9.25
6.8
4.75
2.52
-0.38
-4.17
-8.7
-13.57
-18.35
-22.72
-26.6
-30.11
-33.55
-37.26
-41.56
-46.72
-52.81
-59.55
-66.22
-71.62
-74.27
-72.82
-66.55
-55.67
-41.34
-25.41
-9.77
4.05
15.2
23.51
29.21
32.72
34.47
34.84
34.25
33.18
32.12
31.48
31.5
32.13
33.17
34.27
35.16
35.71
35.96
36.03
35.97
35.68
34.86
33.14
30.25
26.23
21.44
16.46
11.91
8.12
5.09
2.47
-0.19
-3.26
-6.85
-10.83
-14.92
-18.85
-22.46
-25.82
-29.1
-32.59
-36.65
-41.61
-47.61
-54.45
-61.42
-67.27
-70.48
-69.64
-63.99
-53.69
-39.93
-24.47
-9.23
4.23
15.04
22.95
28.2
31.23
32.55
32.64
32.04
31.27
30.78
30.83
31.42
32.26
33.03
33.46
33.51
33.41
33.44
33.76
34.31
34.79
34.72
33.7
31.51
28.14
23.9
19.2
14.52
10.19
6.38
2.99
-0.27
-3.74
-7.64
-11.98
-16.55
-21.03
-25.14
-28.76
-32.02
-35.19
-38.7
-42.95
-48.24
-54.5
-61.18
-67.17
-70.97
-71.12
-66.66
-57.59
-44.88
-30.26
-15.54
-2.2
8.96
17.77
24.39
29.11
32.14
33.66
33.94
33.41
32.55
31.82
31.49
31.61
32.02
32.53
32.95
33.23
33.35
33.35
33.23
32.93
32.29
31.11
29.2
26.43
22.8
18.53
14.02
9.71
5.92
2.69
-0.26
-3.39
-7.06
-11.36
-16.01
-20.54
-24.55
-27.85
-30.63
-33.33
-36.46
-40.44
-45.48
-51.48
-57.93
-63.94
-68.22
-69.43
-66.5
-59.06
-47.67
-33.69
-18.9
-5.02
6.81
16.12
22.98
27.79
30.89
32.56
32.96
32.35
31.12
29.76
28.73
28.29
28.44
29.01
29.72
30.38
30.96
31.46
31.87
32.02
31.6
30.3
27.95
24.64
20.73
16.68
12.88
9.5
6.47
3.52
0.38
-3.15
-7.06
-11.21
-15.37
-19.33
-22.98
-26.3
-29.44
-32.67
-36.37
-40.89
-46.31
-52.31
-58.0
-62.05
-63.06
-59.99
-52.6
-41.59
-28.39
-14.75
-2.24
8.12
15.93
21.31
24.65
26.37
26.83
26.33
25.18
23.75
22.47
21.72
21.73
22.51
23.85
25.41
26.83
27.86
28.35
28.28
27.67
26.51
24.78
22.45
19.51
15.98
11.94
7.54
2.94
-1.64
-6.01
-10.02
-13.61
-16.81
-19.75
-22.62
-25.61
-28.99
-32.97
-37.72
-43.11
-48.67
-53.48
-56.29
-55.94
-51.71
-43.67
-32.73
-20.36
-8.16
2.6
11.23
17.63
22.02
24.73
26.03
26.11
25.21
23.66
21.95
20.59
19.96
20.19
21.13
22.46
23.8
24.85
25.41
25.38
24.73
23.43
21.5
19.02
16.06
12.66
8.84
4.63
0.06
-4.72
-9.48
-13.93
-17.89
-21.3
-24.34
-27.31
-30.64
-34.68
-39.58
-45.2
-51.04
-56.16
-59.4
-59.62
-56.05
-48.58
-37.89
-25.32
-12.44
-0.68
9.02
16.35
21.44
24.68
26.5
27.25
27.23
26.82
26.42
26.43
27.09
28.37
29.95
31.4
32.33
32.63
32.41
31.96
31.51
31.09
30.44
29.19
27.06
23.97
20.17
16.05
12.01
8.3
4.9
1.61
-1.82
-5.56
-9.58
-13.7
-17.66
-21.29
-24.58
-27.7
-30.93
-34.6
-39.02
-44.28
-50.2
-56.17
-61.17
-63.93
-63.26
-58.48
-49.7
-37.89
-24.6
-11.5
0.08
9.4
16.32
21.06
24.05
25.71
26.46
26.68
26.71
26.85
27.29
28.11
29.28
30.66
32.06
33.26
34.1
34.5
34.52
34.28
33.87
33.25
32.18
30.35
27.51
23.69
19.24
14.75
10.76
7.6
5.2
3.18
1.0
-1.75
-5.25
-9.33
-13.63
-17.77
-21.46
-24.65
-27.53
-30.46
-33.89
-38.21
-43.58
-49.77
-56.05
-61.22
-63.92
-62.95
-57.75
-48.59
-36.58
-23.3
-10.33
1.13
10.46
17.6
22.75
26.19
28.16
28.91
28.77
28.2
27.69
27.66
28.29
29.5
30.99
32.37
33.41
34.0
34.21
34.16
33.94
33.49
32.68
31.34
29.34
26.73
23.65
20.31
16.94
13.7
10.67
7.85
5.2
2.63
0.03
-2.71
-5.7
-8.95
-12.43
-16.03
-19.58
-22.93
-26.0
-28.8
-31.53
-34.5
-38.12
-42.71
-48.3
-54.45
-60.19
-64.19
-65.08
-61.93
-54.56
-43.67
-30.68
-17.26
-4.93
5.27
12.96
18.24
21.54
23.38
24.2
24.36
24.12
23.75
23.52
23.68
24.4
25.65
27.25
28.88
30.22
31.1
31.53
31.64
31.58
31.35
30.79
29.61
27.57
24.61
20.89
16.79
12.77
9.24
6.37
4.07
2.05
-0.15
-2.89
-6.31
-10.25
-14.3
-17.97
-20.96
-23.3
-25.32
-27.63
-30.79
-35.17
-40.78
-47.13
-53.27
-57.94
-59.83
-57.92
-51.88
-42.21
-30.11
-17.22
-5.06
5.25
13.2
18.83
22.48
24.56
25.4
25.27
24.44
23.18
21.83
20.71
20.05
19.89
20.14
20.59
21.05
21.42
21.71
21.97
22.13
22.05
21.44
20.05
17.77
14.76
11.36
8.01
5.01
2.43
0.08
-2.36
-5.24
-8.77
-12.92
-17.49
-22.14
-26.52
-30.4
-33.78
-36.93
-40.27
-44.29
-49.18
-54.72
-60.09
-64.09
-65.37
-62.9
-56.31
-46.08
-33.4
-19.83
-6.91
4.29
13.21
19.89
24.62
27.82
29.84
30.94
31.3
31.13
30.71
30.31
30.16
30.34
30.81
31.41
31.98
32.41
32.66
32.71
32.48
31.79
30.38
28.05
24.79
20.84
16.66
12.72
9.3
6.38
3.62
0.59
-3.03
-7.27
-11.86
-16.36
-20.39
-23.81
-26.8
-29.78
-33.29
-37.77
-43.32
-49.55
-55.54
-59.95
-61.43
-59.02
-52.48
-42.36
-29.87
-16.52
-3.7
7.54
16.64
23.47
28.15
30.99
32.32
32.49
31.82
30.68
29.39
28.25
27.46
27.07
27.0
27.1
27.22
27.25
27.13
26.85
26.37
25.65
24.58
22.99
20.67
17.46
13.33
8.45
3.22
-1.86
-6.4
-10.28
-13.7
-17.1
-20.98
-25.69
-31.36
-37.81
-44.52
-50.67
-55.18
-56.9
-54.91
-48.87
-39.17
-26.97
-13.83
-1.3
9.46
17.91
24.03
28.12
30.57
31.66
31.63
30.66
29.01
26.99
24.98
23.28
22.08
21.43
21.2
21.19
21.17
20.89
20.12
18.65
16.34
13.16
9.22
4.78
0.17
-4.34
-8.63
-12.77
-17.03
-21.79
-27.35
-33.68
-40.24
-45.94
-49.36
-49.18
-44.66
-35.93
-24.09
-10.82
2.11
13.25
21.8
27.58
30.84
32.14
32.04
31.07
29.62
27.93
26.12
24.29
22.54
21.01
19.83
19.06
18.6
18.21
17.64
16.66
15.18
13.16
10.62
7.57
4.03
0.09
-4.13
-8.52
-13.05
-17.84
-23.1
-29.03
-35.5
-41.95
-47.35
-50.39
-49.88
-45.21
-36.58
-25.02
-12.1
0.52
11.51
20.12
26.17
29.9
31.65
31.8
30.65
28.55
25.87
23.1
20.68
18.96
18.04
17.8
17.98
18.25
18.34
18.02
17.16
15.65
13.42
10.43
6.8
2.71
-1.59
-5.84
-9.9
-13.74
-17.53
-21.55
-26.14
-31.52
-37.63
-43.92
-49.31
-52.43
-51.99
-47.29
-38.5
-26.76
-13.71
-1.11
9.7
18.02
23.76
27.18
28.71
28.74
27.61
25.66
23.25
20.76
18.6
17.04
16.26
16.25
16.85
17.73
18.54
18.94
18.63
17.44
15.32
12.3
8.52
4.16
-0.52
-5.25
-9.79
-14.05
-18.14
-22.39
-27.2
-32.85
-39.24
-45.68
-50.96
-53.65
-52.51
-47.01
-37.55
-25.37
-12.22
0.21
10.71
18.79
24.49
28.22
30.39
31.28
31.06
29.94
28.27
26.54
25.26
24.78
25.07
25.81
26.46
26.56
25.95
24.77
23.4
22.16
21.14
20.07
18.45
15.74
11.72
6.53
0.68
-5.17
-10.46
-14.92
-18.64
-21.99
-25.45
-29.46
-34.3
-39.98
-46.16
-52.11
-56.77
-58.9
-57.43
-51.84
-42.41
-30.18
-16.71
-3.64
7.7
16.59
22.88
26.87
29.06
29.98
30.08
29.72
29.14
28.52
28.0
27.7
27.7
27.99
28.51
29.07
29.46
29.48
29.03
28.07
26.68
24.93
22.83
20.35
17.47
14.13
10.37
6.3
2.06
-2.21
-6.42
-10.53
-14.53
-18.43
-22.24
-26.06
-30.07
-34.53
-39.67
-45.49
-51.53
-56.84
-60.11
-60.04
-55.82
-47.46
-35.86
-22.58
-9.34
2.48
12.07
19.27
24.33
27.66
29.6
30.41
30.33
29.63
28.69
27.89
27.49
27.55
27.95
28.45
28.83
29.02
29.01
28.88
28.6
28.05
27.03
25.37
23.01
20.05
16.74
13.33
9.98
6.71
3.43
-0.01
-3.71
-7.67
-11.77
-15.8
-19.61
-23.12
-26.42
-29.79
-33.58
-38.13
-43.51
-49.38
-54.86
-58.76
-59.78
-56.99
-50.19
-40.0
-27.71
-14.9
-2.99
7.09
14.95
20.67
24.55
26.93
28.13
28.46
28.24
27.79
27.42
27.34
27.62
28.19
28.9
29.57
30.04
30.25
30.14
29.69
28.86
27.56
25.74
23.36
20.56
17.52
14.47
11.58
8.85
6.11
3.13
-0.27
-4.15
-8.37
-12.72
-16.92
-20.79
-24.25
-27.41
-30.55
-34.06
-38.36
-43.6
-49.45
-54.98
-58.87
-59.74
-56.62
-49.41
-38.89
-26.51
-13.9
-2.44
7.04
14.25
19.24
22.3
23.71
23.83
23.04
21.79
20.51
19.55
19.08
19.12
19.46
19.87
20.11
20.06
19.71
19.2
18.67
18.2
17.7
16.88
15.36
12.86
9.3
4.92
0.14
-4.54
-8.76
-12.4
-15.55
-18.52
-21.66
-25.31
-29.74
-34.98
-40.72
-46.24
-50.44
-52.12
-50.34
-44.77
-35.89
-24.81
-13.01
-1.83
7.8
15.47
21.13
24.9
26.93
27.36
26.43
24.52
22.21
20.14
18.83
18.55
19.19
20.38
21.62
22.46
22.67
22.26
21.37
20.15
18.64
16.72
14.2
10.88
6.74
1.97
-3.08
-8.02
-12.53
-16.52
-20.13
-23.71
-27.64
-32.3
-37.84
-44.1
-50.51
-56.04
-59.44
-59.5
-55.52
-47.53
-36.44
-23.71
-10.94
0.59
10.18
17.67
23.25
27.17
29.64
30.81
30.83
30.02
28.82
27.73
27.09
27.03
27.4
27.9
28.2
28.09
27.56
26.74
25.76
24.67
23.36
21.6
19.18
15.91
11.8
6.99
1.76
-3.52
-8.51
-12.95
-16.84
-20.4
-24.07
-28.28
-33.35
-39.32
-45.81
-52.02
-56.85
-59.13
-57.88
-52.67
-43.77
-32.19
-19.35
-6.77
4.32
13.25
19.89
24.51
27.52
29.27
30.03
29.97
29.33
28.4
27.55
27.08
27.16
27.69
28.39
28.91
28.97
28.47
27.49
26.17
24.6
22.81
20.74
18.29
15.43
12.18
8.55
4.61
0.44
-3.84
-8.06
-12.06
-15.74
-19.13
-22.4
-25.86
-29.89
-34.81
-40.73
-47.37
-53.9
-59.03
-61.27
-59.46
-53.18
-42.96
-30.19
-16.65
-3.96
6.81
15.29
21.61
26.11
29.11
30.79
31.33
30.97
30.07
29.1
28.44
28.33
28.75
29.46
30.14
30.53
30.5
30.03
29.24
28.2
26.92
25.35
23.37
20.82
17.59
13.65
9.09
4.15
-0.85
-5.52
-9.63
-13.08
-16.07
-18.98
-22.24
-26.23
-31.11
-36.83
-42.99
-48.9
-53.55
-55.81
-54.69
-49.71
-41.17
-30.08
-17.95
-6.24
3.93
12.09
18.22
22.61
25.5
27.05
27.42
26.78
25.52
24.12
23.08
22.7
23.01
23.79
24.64
25.21
25.34
25.06
24.51
23.85
23.07
21.99
20.32
17.82
14.39
10.16
5.46
0.64
-3.93
-8.02
-11.55
-14.63
-17.47
-20.41
-23.86
-28.11
-33.28
-39.08
-44.78
-49.21
-51.09
-49.4
-43.77
-34.72
-23.45
-11.56
-0.49
8.8
15.97
21.11
24.49
26.34
26.82
26.12
24.58
22.68
21.0
19.99
19.84
20.42
21.36
22.25
22.78
22.83
22.46
21.79
20.88
19.62
17.78
15.12
11.49
6.99
1.95
-3.16
-7.86
-11.88
-15.15
-17.9
-20.54
-23.5
-27.18
-31.77
-37.15
-42.83
-47.92
-51.31
-51.87
-48.85
-42.13
-32.36
-20.79
-8.89
2.03
11.14
18.16
23.25
26.74
28.98
30.21
30.58
30.23
29.34
28.24
27.27
26.74
26.79
27.33
28.09
28.69
28.79
28.14
26.7
24.62
22.14
19.49
16.83
14.19
11.49
8.57
5.32
1.72
-2.15
-6.08
-9.9
-13.49
-16.83
-20.05
-23.34
-26.95
-31.12
-36.05
-41.7
-47.68
-53.15
-56.9
-57.7
-54.62
-47.5
-37.01
-24.55
-11.78
-0.14
9.48
16.91
22.41
26.46
29.43
31.53
32.83
33.39
33.4
33.13
32.84
32.73
32.8
32.9
32.84
32.54
32.01
31.43
30.91
30.44
29.78
28.58
26.55
23.62
19.99
16.06
12.29
8.97
6.15
3.65
1.18
-1.52
-4.6
-8.05
-11.73
-15.42
-18.9
-22.05
-24.88
-27.68
-30.86
-34.86
-39.86
-45.56
-51.07
-55.14
-56.43
-54.04
-47.79
-38.33
-26.91
-15.02
-3.92
5.57
13.09
18.71
22.62
25.07
26.36
26.77
26.63
26.29
26.07
26.15
26.57
27.25
28.0
28.65
29.08
29.27
29.29
29.21
29.04
28.64
27.77
26.16
23.72
20.58
17.11
13.77
10.87
8.39
6.05
3.43
0.2
-3.65
-7.81
-11.82
-15.32
-18.13
-20.4
-22.48
-24.79
-27.72
-31.56
-36.37
-41.88
-47.35
-51.68
-53.56
-51.93
-46.36
-37.3
-25.92
-13.82
-2.48
7.07
14.39
19.52
22.7
24.28
24.61
24.1
23.18
22.31
21.83
21.85
22.26
22.84
23.32
23.56
23.57
23.52
23.57
23.76
24.0
23.99
23.4
21.97
19.64
16.62
13.25
9.93
6.88
4.16
1.61
-1.0
-3.84
-6.97
-10.28
-13.59
-16.74
-19.68
-22.44
-25.16
-28.08
-31.42
-35.35
-39.79
-44.31
-48.16
-50.34
-49.91
-46.34
-39.71
-30.73
-20.54
-10.32
-1.01
6.78
12.81
17.06
19.62
20.66
20.45
19.38
17.9
16.42
15.23
14.47
14.1
14.07
14.22
14.46
14.67
14.76
14.68
14.37
13.83
12.99
11.77
10.01
7.59
4.49
0.82
-3.17
-7.12
-10.75
-13.91
-16.61
-19.04
-21.51
-24.34
-27.76
-31.79
-36.13
-40.1
-42.83
-43.41
-41.23
-36.19
-28.75
-19.8
-10.4
-1.51
6.18
12.36
16.91
19.89
21.39
21.56
20.63
18.92
16.85
14.84
13.21
12.11
11.48
11.18
11.0
10.86
10.77
10.8
10.92
11.01
10.73
9.69
7.6
4.41
0.36
-4.07
-8.37
-12.2
-15.48
-18.41
-21.37
-24.78
-28.95
-33.94
-39.44
-44.75
-48.86
-50.7
-49.49
-44.96
-37.47
-27.95
-17.55
-7.37
1.79
9.43
15.38
19.62
22.28
23.57
23.77
23.25
22.35
21.37
20.5
19.83
19.31
18.82
18.26
17.54
16.74
15.96
15.31
14.77
14.17
13.19
11.51
8.96
5.57
1.62
-2.56
-6.61
-10.41
-13.98
-17.56
-21.52
-26.16
-31.62
-37.7
-43.78
-48.9
-51.94
-51.94
-48.4
-41.47
-31.89
-20.84
-9.59
0.78
9.58
16.51
21.58
24.93
26.8
27.43
27.11
26.21
25.08
24.02
23.22
22.68
22.31
21.95
21.52
20.99
20.47
20.03
19.67
19.23
18.42
16.87
14.29
10.62
6.06
1.0
-4.02
-8.6
-12.58
-16.05
-19.4
-23.15
-27.74
-33.38
-39.79
-46.21
-51.43
-54.13
-53.27
-48.44
-39.97
-28.9
-16.63
-4.53
6.36
15.41
22.42
27.37
30.32
31.44
30.99
29.41
27.32
25.3
23.82
23.04
22.8
22.81
22.76
22.5
22.03
21.49
20.98
20.5
19.89
18.87
17.15
14.51
10.89
6.49
1.7
-2.99
-7.2
-10.74
-13.73
-16.47
-19.46
-23.13
-27.77
-33.4
-39.66
-45.72
-50.39
-52.35
-50.53
-44.52
-34.79
-22.58
-9.58
2.59
12.77
20.43
25.63
28.75
30.26
30.53
29.86
28.5
26.76
25.04
23.69
22.99
22.95
23.34
23.75
23.82
23.4
22.59
21.66
20.85
20.19
19.35
17.84
15.25
11.46
6.74
1.68
-3.12
-7.28
-10.75
-13.8
-16.83
-20.23
-24.26
-29.05
-34.54
-40.34
-45.74
-49.67
-50.99
-48.82
-42.92
-33.78
-22.54
-10.56
0.9
10.93
19.01
24.89
28.54
30.01
29.61
27.8
25.3
22.8
20.89
19.9
19.75
20.15
20.66
20.91
20.76
20.26
19.57
18.79
17.81
16.36
14.15
11.04
7.2
3.01
-1.09
-4.81
-8.14
-11.29
-14.6
-18.34
-22.65
-27.5
-32.68
-37.76
-42.08
-44.77
-44.93
-41.88
-35.47
-26.22
-15.26
-3.97
6.38
14.99
21.52
26.07
28.88
30.19
30.16
28.98
26.97
24.55
22.28
20.58
19.68
19.52
19.75
19.98
19.88
19.37
18.57
17.63
16.58
15.25
13.33
10.52
6.74
2.19
-2.7
-7.45
-11.75
-15.51
-18.95
-22.45
-26.47
-31.38
-37.24
-43.65
-49.69
-54.05
-55.41
-52.87
-46.26
-36.29
-24.24
-11.65
0.11
10.17
18.14
24.02
28.04
30.45
31.48
31.33
30.23
28.48
26.52
24.78
23.63
23.23
23.42
23.85
24.12
23.96
23.35
22.5
21.63
20.84
19.93
18.51
16.15
12.61
8.01
2.77
-2.54
-7.37
-11.44
-14.79
-17.72
-20.68
-24.11
-28.35
-33.52
-39.43
-45.55
-50.97
-54.58
-55.28
-52.32
-45.55
-35.53
-23.44
-10.77
1.06
11.0
18.57
23.8
27.08
28.92
29.78
29.98
29.73
29.19
28.57
28.06
27.87
28.03
28.41
28.77
28.84
28.46
27.62
26.43
25.01
23.39
21.54
19.4
16.86
13.88
10.43
6.56
2.33
-2.09
-6.46
-10.55
-14.2
-17.43
-20.46
-23.64
-27.34
-31.82
-37.17
-43.16
-49.19
-54.3
-57.26
-56.94
-52.67
-44.52
-33.42
-20.89
-8.52
2.42
11.31
18.08
22.97
26.28
28.2
28.89
28.6
27.73
26.75
26.11
25.99
26.3
26.79
27.13
27.2
26.99
26.67
26.35
26.04
25.6
24.79
23.42
21.38
18.75
15.71
12.44
9.1
5.75
2.39
-1.0
-4.42
-7.86
-11.29
-14.68
-18.07
-21.46
-24.96
-28.7
-32.86
-37.61
-42.95
-48.57
-53.76
-57.45
-58.49
-56.01
-49.79
-40.32
-28.77
-16.55
-4.99
5.02
13.06
19.11
23.33
25.89
26.95
26.68
25.39
23.53
21.71
20.47
20.13
20.68
21.74
22.8
23.4
23.35
22.72
21.82
20.86
19.88
18.69
16.96
14.47
11.12
7.1
2.68
-1.83
-6.2
-10.31
-14.13
-17.7
-21.16
-24.74
-28.74
-33.36
-38.62
-44.13
-49.04
-52.24
-52.61
-49.46
-42.78
-33.24
-22.04
-10.47
0.34
9.61
16.97
22.3
25.68
27.29
27.39
26.36
24.67
22.76
21.04
19.75
18.98
18.64
18.58
18.59
18.54
18.4
18.19
17.89
17.34
16.23
14.2
10.99
6.64
1.49
-3.86
-8.84
-13.12
-16.71
-20.02
-23.64
-28.1
-33.67
-40.15
-46.88
-52.79
-56.6
-57.17
-53.82
-46.61
-36.3
-24.16
-11.6
0.12
10.18
18.16
23.98
27.74
29.65
29.96
29.06
27.45
25.64
24.12
23.19
22.91
23.1
23.4
23.47
23.08
22.22
21.13
20.06
19.11
18.1
16.57
14.01
10.15
5.11
-0.6
-6.31
-11.51
-16.05
-20.18
-24.4
-29.21
-34.94
-41.61
-48.85
-55.85
-61.45
-64.31
-63.28
-57.8
-48.16
-35.52
-21.53
-7.86
4.28
14.29
22.08
27.84
31.74
33.96
34.67
34.19
32.98
31.59
30.49
29.92
29.86
30.09
30.35
30.39
30.13
29.58
28.84
27.97
26.9
25.44
23.29
20.18
16.02
10.89
5.14
-0.76
-6.35
-11.37
-15.76
-19.7
-23.55
-27.75
-32.75
-38.81
-45.85
-53.21
-59.64
-63.57
-63.53
-58.73
-49.34
-36.53
-22.04
-7.7
5.13
15.72
23.91
29.95
34.19
36.97
38.54
39.1
38.82
37.93
36.72
35.52
34.61
34.2
34.28
34.69
35.13
35.3
35.03
34.25
33.02
31.4
29.42
27.02
24.02
20.28
15.7
10.4
4.73
-0.88
-6.05
-10.58
-14.58
-18.37
-22.38
-26.99
-32.44
-38.73
-45.55
-52.17
-57.47
-60.08
-58.77
-52.9
-42.73
-29.49
-14.97
-0.99
11.1
20.68
27.75
32.61
35.63
37.07
37.18
36.27
34.82
33.34
32.26
31.81
31.96
32.46
33.02
33.33
33.2
32.56
31.47
30.05
28.42
26.58
24.44
21.74
18.3
14.04
9.15
4.01
-0.93
-5.31
-8.99
-12.12
-15.04
-18.18
-21.92
-26.55
-32.17
-38.59
-45.22
-51.06
-54.84
-55.35
-51.83
-44.27
-33.47
-20.85
-7.97
3.84
13.74
21.42
26.86
30.19
31.57
31.27
29.69
27.4
25.07
23.27
22.35
22.33
22.92
23.68
24.16
24.09
23.42
22.31
21.01
19.65
18.12
16.12
13.24
9.3
4.4
-0.96
-6.16
-10.69
-14.4
-17.47
-20.32
-23.44
-27.2
-31.78
-37.09
-42.67
-47.66
-50.9
-51.21
-47.79
-40.61
-30.45
-18.73
-6.97
3.63
12.44
19.32
24.41
27.81
29.55
29.69
28.47
26.39
24.14
22.33
21.37
21.21
21.52
21.84
21.79
21.2
20.19
18.96
17.69
16.42
15.0
13.14
10.59
7.19
3.04
-1.54
-6.16
-10.43
-14.18
-17.49
-20.7
-24.27
-28.64
-34.01
-40.19
-46.54
-51.99
-55.25
-55.16
-51.04
-42.93
-31.74
-18.92
-6.13
5.24
14.35
21.03
25.59
28.58
30.47
31.61
32.12
32.06
31.52
30.68
29.81
29.18
28.94
29.1
29.53
29.95
30.09
29.7
28.69
27.03
24.88
22.41
19.76
16.98
14.03
10.8
7.17
3.12
-1.26
-5.77
-10.21
-14.36
-18.13
-21.48
-24.5
-27.38
-30.47
-34.15
-38.69
-44.04
-49.58
-54.17
-56.43
-55.12
-49.67
-40.46
-28.66
-15.9
-3.76
6.67
14.89
20.92
25.08
27.75
29.3
30.06
30.32
30.36
30.38
30.46
30.56
30.53
30.27
29.77
29.16
28.63
28.3
28.14
27.92
27.31
26.03
23.94
21.11
17.8
14.32
10.89
7.61
4.49
1.44
-1.61
-4.7
-7.84
-11.0
-14.13
-17.19
-20.14
-23.05
-26.07
-29.44
-33.43
-38.15
-43.34
-48.27
-51.88
-52.94
-50.57
-44.52
-35.33
-24.18
-12.52
-1.64
7.61
14.91
20.36
24.2
26.71
28.08
28.48
28.16
27.43
26.64
26.05
25.79
25.82
25.98
26.1
26.09
25.98
25.83
25.73
25.62
25.34
24.62
23.2
20.96
18.04
14.73
11.5
8.72
6.51
4.7
2.87
0.59
-2.41
-6.03
-9.9
-13.57
-16.68
-19.19
-21.32
-23.5
-26.2
-29.76
-34.27
-39.47
-44.77
-49.21
-51.75
-51.44
-47.72
-40.67
-30.99
-19.88
-8.73
1.24
9.25
15.02
18.73
20.83
21.82
22.15
22.12
21.9
21.58
21.22
20.86
20.52
20.23
20.02
19.93
19.98
20.15
20.35
20.38
20.06
19.21
17.79
15.87
13.58
11.07
8.46
5.81
3.16
0.47
-2.26
-5.05
-7.93
-10.82
-13.68
-16.37
-18.81
-21.0
-23.09
-25.39
-28.23
-31.81
-36.0
-40.18
-43.4
-44.59
-43.0
-38.41
-31.3
-22.61
-13.47
-4.84
2.63
8.67
13.21
16.31
18.05
18.52
17.93
16.58
14.91
13.33
12.2
11.63
11.53
11.64
11.66
11.43
11.0
10.54
10.24
10.12
10.0
9.56
8.47
6.54
3.79
0.43
-3.2
-6.79
-10.07
-12.95
-15.4
-17.58
-19.72
-22.13
-25.09
-28.74
-32.93
-37.15
-40.57
-42.22
-41.32
-37.55
-31.17
-22.99
-14.06
-5.42
2.2
8.38
13.01
16.1
17.72
18.0
17.17
15.61
13.79
12.13
10.92
10.22
9.85
9.57
9.15
8.5
7.69
6.89
6.26
5.8
5.34
4.58
3.21
1.04
-1.89
-5.35
-8.97
-12.44
-15.6
-18.52
-21.46
-24.78
-28.82
-33.68
-39.13
-44.5
-48.76
-50.84
-49.89
-45.61
-38.42
-29.24
-19.26
-9.5
-0.69
6.85
12.96
17.59
20.7
22.3
22.58
21.89
20.71
19.45
18.42
17.69
17.24
16.92
16.6
16.21
15.73
15.23
14.72
14.21
13.51
12.37
10.5
7.68
3.95
-0.44
-5.03
-9.34
-13.0
-15.97
-18.5
-21.1
-24.36
-28.76
-34.39
-40.87
-47.23
-52.18
-54.37
-52.89
-47.51
-38.84
-28.07
-16.62
-5.8
3.55
11.07
16.77
20.86
23.58
25.14
25.76
25.73
25.37
24.98
24.77
24.73
24.76
24.65
24.26
23.57
22.67
21.71
20.8
19.96
19.01
17.68
15.66
12.77
8.97
4.5
-0.25
-4.83
-8.95
-12.56
-15.9
-19.39
-23.49
-28.48
-34.37
-40.77
-46.9
-51.66
-53.87
-52.56
-47.33
-38.51
-27.13
-14.66
-2.54
8.15
16.84
23.41
28.01
30.87
32.2
32.23
31.26
29.68
27.96
26.49
25.5
25.01
24.84
24.71
24.4
23.78
22.9
21.93
21.05
20.28
19.45
18.19
16.09
12.93
8.75
3.91
-1.06
-5.73
-9.88
-13.56
-17.07
-20.79
-25.11
-30.27
-36.23
-42.52
-48.21
-52.06
-52.81
-49.69
-42.65
-32.47
-20.51
-8.26
3.08
12.73
20.39
26.0
29.59
31.24
31.16
29.7
27.48
25.15
23.29
22.18
21.79
21.83
21.93
21.81
21.4
20.85
20.34
19.97
19.63
18.99
17.62
15.19
11.65
7.2
2.28
-2.61
-7.11
-11.1
-14.7
-18.25
-22.16
-26.79
-32.3
-38.46
-44.53
-49.36
-51.64
-50.32
-45.03
-36.2
-24.99
-12.91
-1.37
8.58
16.42
22.03
25.55
27.26
27.51
26.67
25.17
23.37
21.56
19.93
18.59
17.59
16.92
16.55
16.38
16.29
16.08
15.62
14.75
13.4
11.52
9.08
6.07
2.55
-1.38
-5.57
-9.88
-14.28
-18.89
-23.97
-29.69
-35.97
-42.23
-47.38
-50.1
-49.24
-44.26
-35.53
-24.21
-11.91
-0.17
9.89
17.75
23.37
27.01
28.97
29.53
28.98
27.58
25.69
23.62
21.64
19.93
18.54
17.39
16.4
15.48
14.55
13.55
12.4
10.96
9.09
6.69
3.74
0.31
-3.43
-7.32
-11.29
-15.37
-19.77
-24.78
-30.57
-37.05
-43.64
-49.27
-52.57
-52.26
-47.61
-38.79
-26.84
-13.4
-0.21
11.35
20.58
27.33
31.85
34.51
35.63
35.48
34.35
32.56
30.46
28.38
26.5
24.91
23.58
22.47
21.54
20.72
19.91
18.9
17.44
15.3
12.39
8.81
4.78
0.61
-3.47
-7.36
-11.14
-15.07
-19.5
-24.79
-31.11
-38.3
-45.71
-52.24
-56.49
-57.16
-53.45
-45.4
-33.88
-20.38
-6.59
6.04
16.61
24.76
30.54
34.2
36.04
36.4
35.59
33.99
32.06
30.19
28.72
27.77
27.26
26.94
26.52
25.8
24.78
23.58
22.37
21.16
19.77
17.83
14.98
11.11
6.37
1.17
-4.01
-8.86
-13.31
-17.54
-21.96
-26.97
-32.92
-39.78
-47.08
-53.83
-58.65
-60.11
-57.23
-49.82
-38.63
-25.11
-10.97
2.25
13.55
22.51
29.12
33.57
36.09
36.89
36.23
34.51
32.28
30.14
28.6
27.87
27.84
28.13
28.25
27.86
26.86
25.37
23.67
22.01
20.44
18.77
16.65
13.71
9.78
4.95
-0.34
-5.55
-10.21
-14.1
-17.38
-20.51
-24.08
-28.64
-34.46
-41.4
-48.76
-55.36
-59.68
-60.34
-56.48
-48.12
-36.21
-22.33
-8.23
4.66
15.41
23.69
29.56
33.26
35.08
35.35
34.4
32.64
30.53
28.53
27.03
26.33
26.44
27.16
28.04
28.61
28.53
27.75
26.51
25.18
23.98
22.83
21.36
19.05
15.57
10.93
5.54
-0.01
-5.17
-9.65
-13.46
-16.88
-20.29
-24.05
-28.46
-33.7
-39.76
-46.3
-52.52
-57.21
-59.05
-56.94
-50.52
-40.31
-27.62
-14.09
-1.24
9.95
19.01
25.89
30.69
33.51
34.47
33.77
31.89
29.45
27.09
25.27
24.14
23.57
23.29
22.97
22.48
21.81
21.09
20.44
19.88
19.23
18.22
16.5
13.8
10.06
5.46
0.4
-4.59
-9.05
-12.75
-15.8
-18.6
-21.78
-25.93
-31.38
-37.96
-44.88
-50.84
-54.32
-54.03
-49.36
-40.58
-28.76
-15.5
-2.4
9.24
18.67
25.6
30.06
32.29
32.6
31.42
29.25
26.6
23.96
21.65
19.82
18.49
17.53
16.82
16.31
15.98
15.83
15.78
15.66
15.15
13.89
11.64
8.35
4.21
-0.45
-5.23
-9.78
-13.95
-17.81
-21.62
-25.81
-30.81
-36.8
-43.41
-49.68
-54.17
-55.39
-52.32
-44.88
-33.95
-21.07
-7.93
4.13
14.29
22.25
27.94
31.42
32.81
32.38
30.63
28.17
25.66
23.56
22.02
21.01
20.33
19.79
19.3
18.84
18.44
18.1
17.72
17.13
16.11
14.38
11.75
8.15
3.72
-1.2
-6.19
-10.88
-15.08
-18.87
-22.57
-26.6
-31.44
-37.3
-44.04
-50.93
-56.72
-59.87
-59.04
-53.57
-43.82
-31.07
-17.16
-3.82
7.74
17.05
24.12
29.26
32.69
34.59
35.1
34.5
33.18
31.63
30.26
29.33
28.85
28.68
28.53
28.14
27.35
26.17
24.73
23.23
21.8
20.4
18.85
16.85
14.16
10.64
6.39
1.72
-2.98
-7.4
-11.39
-14.99
-18.48
-22.17
-26.39
-31.34
-37.07
-43.36
-49.72
-55.3
-58.96
-59.57
-56.27
-48.92
-38.17
-25.35
-12.11
0.11
10.41
18.54
24.63
28.99
31.81
33.16
33.12
31.94
30.09
28.14
26.61
25.75
25.48
25.54
25.55
25.28
24.64
23.73
22.67
21.59
20.46
19.06
17.1
14.3
10.54
5.96
0.98
-3.92
-8.29
-11.97
-15.07
-17.97
-21.14
-25.01
-29.82
-35.56
-41.81
-47.81
-52.42
-54.46
-52.96
-47.51
-38.43
-26.72
-13.82
-1.2
9.94
18.96
25.65
30.16
32.79
33.83
33.57
32.29
30.35
28.18
26.22
24.75
23.84
23.31
22.86
22.28
21.47
20.59
19.81
19.25
18.76
18.0
16.48
13.83
9.99
5.25
0.11
-4.83
-9.19
-12.82
-15.92
-18.9
-22.26
-26.41
-31.54
-37.47
-43.58
-48.8
-51.88
-51.67
-47.57
-39.67
-28.91
-16.7
-4.55
6.31
15.16
21.77
26.26
28.84
29.76
29.23
27.52
25.01
22.14
19.41
17.16
15.57
14.57
13.97
13.57
13.23
12.85
12.35
11.6
10.39
8.55
6.02
2.9
-0.58
-4.19
-7.75
-11.21
-14.7
-18.39
-22.52
-27.26
-32.57
-38.08
-43.0
-46.23
-46.61
-43.36
-36.43
-26.6
-15.28
-4.08
5.68
13.31
18.69
22.12
24.0
24.63
24.15
22.66
20.38
17.65
14.95
12.76
11.38
10.84
10.91
11.17
11.18
10.6
9.27
7.26
4.77
2.05
-0.71
-3.46
-6.27
-9.31
-12.77
-16.83
-21.65
-27.23
-33.33
-39.44
-44.67
-47.89
-48.0
-44.28
-36.74
-26.17
-14.04
-2.04
8.42
16.51
22.08
25.47
27.2
27.73
27.28
25.97
23.93
21.4
18.77
16.5
14.92
14.11
13.91
13.96
13.83
13.15
11.72
9.54
6.77
3.58
0.21
-3.22
-6.63
-10.04
-13.62
-17.63
-22.39
-28.07
-34.55
-41.16
-46.77
-50.02
-49.71
-45.26
-36.9
-25.7
-13.17
-0.96
9.67
17.98
23.81
27.49
29.53
30.41
30.49
29.91
28.75
27.09
25.16
23.28
21.74
20.72
20.15
19.81
19.43
18.78
17.75
16.28
14.34
11.89
8.89
5.36
1.38
-2.92
-7.37
-11.84
-16.3
-20.9
-25.88
-31.47
-37.65
-43.88
-49.1
-51.9
-51.03
-45.85
-36.71
-24.84
-11.99
0.2
10.62
18.84
24.96
29.31
32.19
33.74
34.06
33.36
32.02
30.5
29.22
28.38
27.95
27.72
27.45
26.96
26.22
25.3
24.34
23.41
22.43
21.17
19.31
16.5
12.64
7.89
2.68
-2.44
-7.04
-10.94
-14.34
-17.64
-21.34
-25.84
-31.32
-37.6
-44.11
-49.95
-53.96
-55.01
-52.34
-45.77
-35.94
-24.03
-11.52
0.22
10.24
18.08
23.77
27.56
29.84
30.92
31.1
30.63
29.79
28.89
28.23
28.03
28.38
29.18
30.16
30.99
31.38
31.18
30.42
29.23
27.74
25.96
23.81
21.18
18.0
14.32
10.27
6.07
1.88
-2.14
-5.94
-9.48
-12.84
-16.13
-19.54
-23.26
-27.46
-32.27
-37.62
-43.23
-48.47
-52.38
-53.86
-51.98
-46.4
-37.5
-26.38
-14.52
-3.31
6.28
13.87
19.5
23.45
25.99
27.32
27.59
27.0
25.84
24.45
23.17
22.25
21.8
21.83
22.19
22.62
22.83
22.6
21.86
20.68
19.25
17.71
16.05
14.11
11.66
8.58
4.92
0.92
-3.09
-6.85
-10.24
-13.34
-16.31
-19.35
-22.61
-26.17
-30.16
-34.58
-39.34
-44.0
-47.78
-49.65
-48.6
-44.09
-36.32
-26.18
-15.06
-4.35
4.9
12.23
17.6
21.22
23.3
24.01
23.52
22.1
20.19
18.28
16.83
16.03
15.83
15.97
16.13
16.09
15.8
15.35
14.8
14.12
13.12
11.54
9.13
5.85
1.89
-2.36
-6.47
-10.09
-13.14
-15.76
-18.35
-21.4
-25.33
-30.27
-35.95
-41.58
-46.07
-48.21
-47.14
-42.59
-35.01
-25.44
-15.17
-5.38
3.1
9.88
14.9
18.31
20.29
21.05
20.87
20.09
19.08
18.18
17.53
17.13
16.79
16.34
15.67
14.84
14.02
13.37
12.92
12.53
11.92
10.75
8.77
5.93
2.36
-1.63
-5.67
-9.44
-12.79
-15.81
-18.77
-22.06
-26.03
-30.81
-36.2
-41.61
-46.08
-48.58
-48.2
-44.49
-37.61
-28.29
-17.73
-7.21
2.2
9.82
15.46
19.26
21.55
22.68
22.97
22.65
21.92
20.99
20.06
19.3
18.81
18.56
18.39
18.12
17.64
16.97
16.24
15.54
14.81
13.83
12.24
9.76
6.35
2.2
-2.27
-6.62
-10.62
-14.31
-18.0
-22.08
-26.89
-32.53
-38.75
-44.89
-49.97
-52.86
-52.6
-48.71
-41.48
-31.8
-20.99
-10.32
-0.72
7.38
13.94
19.05
22.78
25.12
26.04
25.71
24.5
22.93
21.5
20.53
20.06
19.92
19.81
19.49
18.89
18.07
17.2
16.43
15.78
15.07
14.02
12.29
9.67
6.14
1.92
-2.57
-6.92
-10.82
-14.14
-17.03
-19.83
-23.0
-26.95
-31.94
-37.85
-44.1
-49.63
-53.18
-53.55
-50.07
-42.79
-32.59
-20.87
-9.16
1.32
9.91
16.51
21.33
24.71
26.83
27.77
27.58
26.47
24.8
23.12
21.91
21.43
21.61
22.13
22.55
22.59
22.17
21.47
20.71
19.98
19.18
17.93
15.81
12.6
8.35
3.48
-1.46
-5.95
-9.77
-13.02
-16.1
-19.5
-23.67
-28.83
-34.88
-41.37
-47.5
-52.22
-54.41
-53.17
-48.16
-39.7
-28.75
-16.67
-4.86
5.56
13.94
20.08
24.12
26.37
27.15
26.85
25.79
24.33
22.79
21.43
20.4
19.73
19.36
19.22
19.23
19.32
19.38
19.22
18.58
17.17
14.87
11.72
7.94
3.84
-0.33
-4.41
-8.4
-12.38
-16.56
-21.25
-26.75
-33.19
-40.24
-46.98
-52.0
-53.77
-51.22
-44.16
-33.4
-20.52
-7.29
4.75
14.65
22.04
27.01
29.89
31.04
30.82
29.54
27.52
25.07
22.51
20.17
18.31
17.13
16.64
16.68
17.02
17.31
17.25
16.58
15.1
12.75
9.54
5.61
1.19
-3.47
-8.16
-12.78
-17.48
-22.52
-28.24
-34.8
-41.92
-48.68
-53.73
-55.51
-52.88
-45.56
-34.3
-20.69
-6.64
6.15
16.65
24.48
29.81
33.03
34.52
34.6
33.6
31.84
29.71
27.55
25.56
23.83
22.36
21.13
20.21
19.67
19.52
19.6
19.55
18.89
17.2
14.27
10.2
5.33
0.11
-5.12
-10.16
-15.01
-19.89
-25.15
-31.13
-38.02
-45.56
-52.93
-58.72
-61.39
-59.7
-53.23
-42.62
-29.35
-15.22
-1.84
9.76
19.16
26.38
31.56
34.81
36.28
36.2
35.0
33.29
31.63
30.41
29.72
29.34
28.97
28.35
27.41
26.3
25.28
24.5
23.87
23.07
21.56
18.89
14.83
9.56
3.61
-2.35
-7.73
-12.27
-16.14
-19.86
-24.06
-29.32
-35.86
-43.38
-51.07
-57.6
-61.49
-61.41
-56.65
-47.37
-34.67
-20.25
-5.96
6.73
17.0
24.75
30.3
34.1
36.46
37.49
37.29
36.07
34.31
32.61
31.54
31.34
31.84
32.55
32.98
32.81
32.08
31.05
29.99
29.02
27.95
26.41
24.04
20.63
16.24
11.16
5.77
0.45
-4.5
-8.96
-12.91
-16.52
-20.09
-24.0
-28.69
-34.41
-41.09
-48.18
-54.6
-58.93
-59.8
-56.31
-48.36
-36.75
-22.95
-8.7
4.45
15.45
23.89
29.87
33.78
36.05
37.03
36.96
36.02
34.5
32.77
31.24
30.27
30.0
30.39
31.14
31.92
32.36
32.22
31.41
29.94
27.93
25.52
22.82
19.86
16.58
12.88
8.7
4.11
-0.69
-5.43
-9.86
-13.88
-17.56
-21.09
-24.76
-28.81
-33.47
-38.83
-44.76
-50.8
-56.07
-59.38
-59.45
-55.42
-47.19
-35.6
-22.19
-8.78
3.15
12.74
19.85
24.78
27.94
29.59
29.86
28.85
26.82
24.31
22.0
20.47
20.04
20.57
21.6
22.51
22.87
22.54
21.7
20.65
19.51
18.15
16.19
13.22
9.13
4.12
-1.27
-6.39
-10.8
-14.37
-17.35
-20.2
-23.48
-27.59
-32.73
-38.68
-44.82
-50.14
-53.43
-53.58
-49.93
-42.47
-31.91
-19.48
-6.6
5.42
15.66
23.6
29.14
32.43
33.74
33.47
32.07
30.04
27.91
26.11
24.96
24.5
24.53
24.7
24.67
24.22
23.34
22.19
20.95
19.66
18.24
16.42
13.92
10.52
6.23
1.25
-4.05
-9.22
-13.91
-17.95
-21.44
-24.73
-28.33
-32.71
-38.19
-44.61
-51.31
-57.11
-60.57
-60.38
-55.85
-47.16
-35.33
-21.97
-8.72
3.1
12.78
20.16
25.47
29.01
31.07
31.86
31.64
30.7
29.48
28.4
27.8
27.8
28.29
28.94
29.4
29.44
29.0
28.22
27.26
26.21
24.98
23.37
21.13
18.11
14.29
9.83
5.0
0.07
-4.73
-9.24
-13.44
-17.34
-21.02
-24.66
-28.51
-32.86
-37.98
-43.87
-50.11
-55.76
-59.52
-60.08
-56.58
-48.95
-37.98
-25.12
-11.98
0.1
10.3
18.39
24.48
28.83
31.62
33.0
33.1
32.2
30.75
29.24
28.11
27.58
27.6
27.92
28.26
28.4
28.3
27.98
27.47
26.76
25.79
24.42
22.61
20.33
17.58
14.38
10.75
6.7
2.31
-2.26
-6.8
-11.1
-15.03
-18.59
-21.91
-25.24
-28.91
-33.25
-38.45
-44.38
-50.45
-55.58
-58.45
-57.84
-53.08
-44.36
-32.72
-19.74
-7.04
4.16
13.19
20.0
24.86
28.13
30.17
31.21
31.46
31.1
30.37
29.52
28.84
28.52
28.6
28.96
29.3
29.34
28.88
27.94
26.7
25.36
23.98
22.42
20.43
17.78
14.37
10.29
5.81
1.21
-3.28
-7.51
-11.43
-15.04
-18.42
-21.72
-25.22
-29.23
-33.98
-39.44
-45.17
-50.29
-53.64
-54.1
-51.01
-44.4
-34.97
-23.92
-12.52
-1.86
7.33
14.66
20.02
23.44
25.1
25.32
24.51
23.13
21.61
20.25
19.24
18.63
18.38
18.34
18.4
18.42
18.32
18.06
17.59
16.82
15.6
13.75
11.22
8.01
4.28
0.31
-3.67
-7.43
-10.93
-14.28
-17.78
-21.81
-26.68
-32.38
-38.45
-43.93
-47.58
-48.27
-45.38
-39.02
-30.02
-19.61
-9.09
0.54
8.68
15.12
19.87
23.02
24.69
25.0
24.18
22.58
20.62
18.69
17.08
15.91
15.17
14.74
14.47
14.26
13.99
13.57
12.88
11.76
10.04
7.62
4.47
0.73
-3.37
-7.52
-11.5
-15.27
-19.02
-23.09
-27.82
-33.32
-39.29
-44.96
-49.2
-50.86
-49.1
-43.71
-35.19
-24.67
-13.53
-3.09
5.71
12.45
17.14
20.12
21.77
22.47
22.43
21.8
20.76
19.51
18.31
17.37
16.77
16.45
16.23
15.93
15.42
14.71
13.81
12.66
11.13
9.05
6.29
2.87
-1.02
-5.11
-9.14
-13.01
-16.81
-20.82
-25.34
-30.56
-36.34
-42.1
-46.87
-49.54
-49.18
-45.41
-38.49
-29.29
-18.97
-8.71
0.57
8.33
14.33
18.62
21.39
22.9
23.45
23.36
22.92
22.32
21.69
21.05
20.36
19.63
18.89
18.26
17.84
17.66
17.62
17.45
16.8
15.36
12.96
9.63
5.59
1.21
-3.15
-7.19
-10.79
-14.09
-17.45
-21.37
-26.21
-32.01
-38.26
-43.97
-47.87
-48.78
-46.01
-39.59
-30.3
-19.39
-8.24
2.01
10.63
17.34
22.17
25.32
26.98
27.38
26.79
25.58
24.17
22.98
22.24
22.0
22.08
22.2
22.13
21.76
21.11
20.3
19.43
18.49
17.38
15.87
13.72
10.76
6.99
2.66
-1.84
-6.02
-9.54
-12.32
-14.65
-17.14
-20.46
-25.12
-31.19
-38.18
-45.09
-50.65
-53.58
-53.01
-48.67
-40.92
-30.67
-19.16
-7.6
2.95
11.79
18.57
23.24
25.97
27.11
27.07
26.28
25.2
24.2
23.52
23.26
23.34
23.52
23.52
23.15
22.39
21.41
20.49
19.78
19.2
18.37
16.78
14.05
10.08
5.18
-0.1
-5.18
-9.67
-13.46
-16.72
-19.85
-23.32
-27.54
-32.63
-38.31
-43.81
-48.01
-49.71
-48.01
-42.67
-34.19
-23.67
-12.52
-2.0
7.0
14.03
19.06
22.28
23.94
24.34
23.75
22.5
20.9
19.3
17.94
17.0
16.5
16.35
16.44
16.6
16.73
16.69
16.37
15.63
14.33
12.36
9.67
6.34
2.55
-1.42
-5.32
-9.03
-12.65
-16.54
-21.14
-26.76
-33.24
-39.96
-45.76
-49.36
-49.65
-46.16
-39.11
-29.38
-18.23
-6.93
3.45
12.22
19.08
23.95
26.97
28.35
28.4
27.47
25.98
24.34
22.88
21.8
21.11
20.67
20.32
19.9
19.4
18.85
18.29
17.67
16.78
15.35
13.1
9.91
5.88
1.32
-3.33
-7.7
-11.67
-15.32
-19.07
-23.39
-28.69
-35.01
-41.89
-48.41
-53.23
-55.06
-52.98
-46.8
-37.19
-25.45
-13.17
-1.72
7.99
15.67
21.43
25.56
28.34
29.95
30.5
30.15
29.17
27.92
26.78
26.06
25.89
26.17
26.67
27.01
26.95
26.38
25.37
24.12
22.78
21.34
19.59
17.19
13.87
9.54
4.45
-0.91
-5.99
-10.37
-14.0
-17.15
-20.34
-24.12
-28.85
-34.59
-41.01
-47.42
-52.8
-56.01
-55.97
-52.08
-44.41
-33.81
-21.66
-9.49
1.49
10.57
17.62
22.84
26.55
28.99
30.38
30.92
30.86
30.46
29.93
29.4
28.91
28.43
27.97
27.52
27.11
26.77
26.45
26.09
25.59
24.78
23.57
21.87
19.61
16.77
13.39
9.58
5.5
1.34
-2.79
-6.79
-10.68
-14.47
-18.23
-22.08
-26.18
-30.72
-35.87
-41.59
-47.45
-52.57
-55.78
-55.93
-52.32
-44.98
-34.68
-22.72
-10.55
0.62
10.01
17.34
22.69
26.32
28.54
29.62
29.81
29.38
28.62
27.8
27.17
26.86
26.93
27.31
27.83
28.34
28.64
28.61
28.16
27.26
25.96
24.28
22.24
19.77
16.8
13.25
9.16
4.72
0.22
-4.05
-7.87
-11.24
-14.29
-17.25
-20.34
-23.77
-27.68
-32.19
-37.33
-42.91
-48.31
-52.54
-54.36
-52.73
-47.24
-38.3
-27.1
-15.21
-4.09
5.32
12.63
17.95
21.6
23.86
24.95
25.02
24.24
22.91
21.42
20.18
19.53
19.55
20.09
20.78
21.18
21.05
20.37
19.37
18.31
17.3
16.18
14.59
12.19
8.84
4.7
0.18
-4.26
-8.32
-11.88
-15.08
-18.15
-21.39
-25.03
-29.24
-34.01
-39.09
-43.89
-47.56
-49.12
-47.8
-43.23
-35.7
-26.01
-15.32
-4.77
4.72
12.62
18.67
22.81
25.09
25.66
24.81
22.96
20.7
18.6
17.09
16.31
16.14
16.27
16.39
16.33
16.08
15.74
15.34
14.78
13.84
12.23
9.79
6.53
2.66
-1.48
-5.6
-9.5
-13.15
-16.73
-20.51
-24.8
-29.84
-35.65
-41.85
-47.68
-52.06
-53.85
-52.23
-46.95
-38.51
-27.95
-16.6
-5.7
3.89
11.7
17.6
21.67
24.07
25.02
24.8
23.81
22.43
20.99
19.71
18.69
17.94
17.4
17.04
16.81
16.66
16.46
16.04
15.18
13.7
11.47
8.5
4.94
1.0
-3.03
-6.95
-10.69
-14.36
-18.26
-22.72
-28.06
-34.31
-41.11
-47.61
-52.6
-54.81
-53.3
-47.82
-38.9
-27.77
-15.9
-4.68
4.96
12.59
18.2
21.97
24.25
25.39
25.75
25.68
25.45
25.2
24.97
24.74
24.46
24.17
23.88
23.57
23.21
22.68
21.87
20.61
18.78
16.24
12.93
8.87
4.23
-0.7
-5.55
-10.08
-14.22
-18.18
-22.34
-27.18
-32.92
-39.39
-45.87
-51.17
-53.96
-53.18
-48.42
-40.05
-29.13
-17.08
-5.28
5.27
14.04
20.89
25.92
29.3
31.15
31.63
31.01
29.67
28.14
26.91
26.28
26.23
26.45
26.54
26.21
25.42
24.41
23.51
22.87
22.39
21.64
20.11
17.44
13.61
8.94
3.95
-0.87
-5.25
-9.18
-12.89
-16.69
-20.94
-25.89
-31.67
-38.13
-44.75
-50.59
-54.43
-55.08
-51.8
-44.61
-34.33
-22.34
-10.13
1.08
10.56
18.05
23.59
27.32
29.42
30.18
29.95
29.2
28.4
27.91
27.88
28.26
28.85
29.43
29.8
29.86
29.58
29.02
28.26
27.34
26.25
24.84
22.91
20.25
16.79
12.6
7.96
3.19
-1.37
-5.52
-9.23
-12.64
-16.0
-19.67
-23.94
-29.0
-34.8
-40.97
-46.77
-51.2
-53.21
-51.94
-47.03
-38.77
-28.07
-16.25
-4.69
5.51
13.71
19.78
23.97
26.61
27.99
28.29
27.65
26.32
24.72
23.32
22.51
22.42
22.88
23.51
23.89
23.77
23.17
22.32
21.44
20.62
19.7
18.31
16.04
12.68
8.3
3.29
-1.77
-6.37
-10.24
-13.45
-16.35
-19.45
-23.2
-27.82
-33.19
-38.77
-43.69
-46.86
-47.32
-44.45
-38.24
-29.29
-18.68
-7.66
2.64
11.41
18.19
22.88
25.62
26.65
26.34
25.12
23.48
21.91
20.74
20.12
19.96
20.05
20.18
20.27
20.32
20.34
20.26
19.82
18.71
16.67
13.61
9.71
5.3
0.7
-3.8
-8.07
-12.03
-15.67
-19.07
-22.45
-26.17
-30.5
-35.46
-40.55
-44.81
-47.03
-46.19
-41.87
-34.43
-24.86
-14.42
-4.32
4.64
12.05
17.79
21.88
24.38
25.42
25.22
24.13
22.64
21.21
20.19
19.71
19.64
19.73
19.71
19.45
18.99
18.49
18.08
17.76
17.24
16.15
14.13
11.05
7.06
2.53
-2.08
-6.45
-10.45
-14.14
-17.73
-21.49
-25.65
-30.38
-35.69
-41.25
-46.36
-49.99
-51.05
-48.72
-42.85
-34.05
-23.56
-12.79
-2.91
5.46
12.18
17.44
21.4
24.12
25.6
25.91
25.34
24.32
23.36
22.78
22.63
22.71
22.74
22.46
21.82
20.92
20.01
19.27
18.74
18.23
17.33
15.63
12.84
8.96
4.29
-0.69
-5.48
-9.77
-13.48
-16.8
-20.09
-23.74
-28.06
-33.17
-38.86
-44.51
-49.13
-51.56
-50.79
-46.38
-38.63
-28.52
-17.49
-6.92
2.26
9.66
15.39
19.75
23.01
25.29
26.62
27.02
26.68
25.94
25.16
24.65
24.53
24.68
24.88
24.9
24.63
24.11
23.47
22.82
22.15
21.24
19.8
17.52
14.3
10.25
5.73
1.2
-2.98
-6.66
-9.91
-12.97
-16.14
-19.7
-23.85
-28.7
-34.15
-39.83
-45.04
-48.78
-49.99
-47.88
-42.25
-33.61
-23.09
-12.06
-1.73
7.07
14.04
19.23
22.89
25.27
26.58
27.0
26.76
26.12
25.44
25.01
25.0
25.41
26.08
26.74
27.08
26.94
26.24
25.06
23.57
21.9
20.11
18.15
15.86
13.08
9.68
5.72
1.42
-2.84
-6.71
-10.0
-12.78
-15.38
-18.21
-21.65
-25.86
-30.77
-36.02
-41.03
-45.04
-47.18
-46.72
-43.21
-36.75
-27.99
-18.01
-8.0
1.02
8.47
14.17
18.22
20.83
22.22
22.6
22.2
21.35
20.37
19.55
19.04
18.82
18.75
18.68
18.53
18.32
18.14
17.98
17.72
17.12
15.89
13.87
11.05
7.64
4.0
0.44
-2.86
-5.86
-8.73
-11.66
-14.89
-18.64
-23.01
-27.89
-32.91
-37.31
-40.09
-40.29
-37.32
-31.25
-22.86
-13.39
-4.16
3.87
10.25
14.99
18.31
20.39
21.32
21.16
20.04
18.28
16.33
14.6
13.34
12.62
12.28
12.15
12.08
11.95
11.66
11.13
10.21
8.78
6.79
4.3
1.43
-1.65
-4.79
-7.93
-11.08
-14.35
-17.93
-22.01
-26.71
-31.84
-36.86
-40.85
-42.71
-41.57
-37.11
-29.73
-20.52
-10.81
-1.85
5.58
11.23
15.26
17.99
19.71
20.59
20.69
20.08
18.94
17.53
16.12
14.94
14.08
13.54
13.26
13.13
13.03
12.77
12.15
10.95
9.02
6.38
3.19
-0.33
-3.92
-7.44
-10.89
-14.4
-18.18
-22.49
-27.44
-32.92
-38.43
-43.11
-45.89
-45.8
-42.35
-35.68
-26.58
-16.26
-5.98
3.2
10.62
16.03
19.56
21.54
22.44
22.66
22.54
22.26
21.91
21.51
21.06
20.54
19.92
19.2
18.41
17.65
17.05
16.69
16.43
15.93
14.75
12.57
9.33
5.29
0.97
-3.18
-6.88
-10.15
-13.24
-16.5
-20.29
-24.84
-30.18
-36.02
-41.62
-45.93
-47.76
-46.21
-41.02
-32.74
-22.53
-11.81
-1.8
6.75
13.59
18.83
22.64
25.19
26.59
27.03
26.76
26.1
25.36
24.74
24.29
23.93
23.5
22.87
21.94
20.79
19.53
18.36
17.37
16.53
15.64
14.41
12.58
10.02
6.79
3.13
-0.68
-4.37
-7.79
-10.94
-13.9
-16.89
-20.15
-23.93
-28.4
-33.52
-38.99
-44.1
-47.87
-49.25
-47.41
-42.12
-33.85
-23.71
-13.1
-3.26
5.02
11.5
16.33
19.85
22.34
23.99
24.9
25.23
25.17
24.95
24.75
24.68
24.74
24.85
24.89
24.75
24.33
23.62
22.67
21.55
20.35
19.08
17.64
15.84
13.49
10.48
6.84
2.81
-1.26
-5.06
-8.39
-11.28
-13.98
-16.87
-20.33
-24.61
-29.72
-35.34
-40.82
-45.27
-47.73
-47.4
-43.89
-37.38
-28.62
-18.68
-8.74
0.27
7.77
13.59
17.77
20.47
21.85
22.09
21.42
20.19
18.84
17.8
17.28
17.31
17.67
18.05
18.21
18.05
17.67
17.23
16.82
16.41
15.8
14.72
12.96
10.43
7.25
3.65
-0.06
-3.62
-6.89
-9.86
-12.69
-15.58
-18.79
-22.53
-26.87
-31.61
-36.25
-40.0
-41.99
-41.47
-38.09
-32.06
-24.07
-15.11
-6.2
1.87
8.59
13.75
17.28
19.19
19.58
18.68
16.94
14.92
13.17
12.07
11.69
11.88
12.31
12.71
12.92
12.9
12.69
12.26
11.58
10.57
9.18
7.39
5.22
2.69
-0.2
-3.46
-7.05
-10.87
-14.85
