2013-06-30 09:59:44
64.0
-0.0
-0.0
-0.0
-0.0
-0.0
-0.0
-0.0
-0.0
-0.0
-0.0
0.0
0.01
0.01
-0.0
-0.03
-0.05
-0.05
0.0
0.13
0.36
0.66
1.01
1.37
1.72
2.06
2.4
2.79
3.24
3.8
4.42
5.06
5.66
6.2
6.68
7.15
7.68
8.31
9.14
10.09
11.04
11.88
12.56
13.14
13.76
14.65
15.96
17.91
20.32
22.9
25.38
27.58
29.57
31.68
34.32
37.81
42.54
48.15
54.1
59.83
64.97
69.58
74.14
79.34
85.71
93.76
103.0
112.62
121.73
129.77
136.75
143.3
150.75
157.77
166.64
177.95
191.79
206.97
220.57
228.25
225.36
208.53
176.87
132.76
80.05
23.07
-34.94
-92.44
-149.16
-205.23
-260.37
-313.74
-363.87
-409.83
-450.91
-486.5
-515.74
-537.23
-549.22
-549.96
-538.37
-514.21
-478.67
-433.88
-382.45
-327.02
-269.84
-212.63
-156.66
-102.95
-52.37
-5.9
35.58
71.43
101.35
125.5
144.38
158.69
169.15
176.37
180.75
182.57
182.07
179.51
175.23
169.65
163.18
156.15
148.81
141.3
133.69
126.02
118.33
110.69
103.16
95.8
88.68
81.83
75.25
68.95
62.95
57.25
51.86
46.78
42.03
37.59
33.45
29.61
26.07
22.81
19.83
17.11
14.67
12.48
10.54
8.83
7.35
6.07
4.97
4.05
3.27
2.62
2.09
1.65
1.3
1.01
0.79
0.61
0.47
0.37
0.29
0.23
0.19
0.17
0.16
0.16
0.17
0.19
0.21
0.25
0.28
0.32
0.36
0.41
0.45
0.5
0.55
0.6
0.65
0.71
0.77
0.83
0.9
0.98
1.06
1.16
1.27
1.39
1.52
1.67
1.84
2.03
2.23
2.47
2.72
3.0
3.31
3.65
4.02
4.43
4.86
5.34
5.86
6.41
7.0
7.64
8.32
9.04
9.82
10.63
11.5
12.41
13.36
14.37
15.45
16.59
17.79
19.05
20.33
21.62
22.82
23.86
24.64
25.03
24.93
24.21
22.8
20.63
17.69
14.05
9.79
5.13
0.31
-4.44
-8.86
-12.79
-16.09
-18.71
-20.63
-21.9
-22.52
-22.58
-22.14
-21.3
-20.2
-19.01
-17.86
-16.84
-15.99
-15.22
-14.45
-13.57
-12.52
-11.34
-10.18
-9.22
-8.61
-8.3
-8.12
-7.88
-7.36
-6.42
-5.18
-3.97
-3.24
-3.26
-4.06
-5.29
-6.65
-7.67
-8.1
-8.1
-8.23
-9.18
-11.44
-15.0
-19.28
-23.82
-27.88
-30.99
-33.19
-35.05
-37.41
-41.18
-47.19
-55.88
-67.46
-80.62
-92.68
-100.32
-100.71
-92.77
-77.76
-58.99
-37.43
-16.51
1.29
15.24
26.1
35.08
42.89
49.44
54.2
56.9
57.49
57.01
56.89
58.16
61.09
65.06
69.07
72.18
73.9
73.88
72.47
70.22
67.6
64.87
62.12
59.51
57.36
56.1
55.87
56.73
58.47
60.49
62.08
62.53
61.4
58.53
54.06
48.21
41.46
34.52
28.11
22.79
18.78
15.77
13.14
10.18
6.38
1.65
-3.79
-9.68
-15.96
-22.74
-30.13
-38.03
-45.98
-53.34
-59.5
-64.11
-67.1
-68.62
-68.87
-67.95
-65.9
-62.68
-58.31
-52.9
-46.7
-40.17
-33.92
-28.64
-25.05
-23.6
-24.4
-27.08
-30.82
-34.4
-36.47
-35.86
-31.88
-24.57
-14.7
-3.54
7.5
17.15
24.5
29.05
30.66
29.54
26.1
20.95
14.74
8.12
1.6
-4.3
-9.12
-12.42
-13.87
-13.39
-11.21
-7.78
-3.67
0.6
4.71
8.41
11.32
12.96
12.77
10.42
6.09
0.58
-4.84
-8.8
-10.38
-9.43
-6.58
-2.96
0.29
2.47
3.51
3.75
3.67
3.55
3.31
2.73
1.51
-0.43
-2.87
-5.28
-7.01
-7.44
-6.21
-3.34
0.8
5.62
10.5
14.99
18.84
21.93
24.2
25.48
25.56
24.33
21.94
18.82
15.55
12.69
10.58
9.27
8.58
8.17
7.71
6.95
5.76
4.14
2.2
0.13
-1.9
-3.77
-5.57
-7.52
-9.97
-13.04
-16.56
-19.94
-22.29
-22.76
-20.8
-16.41
-10.02
-2.41
5.6
13.31
20.17
25.72
29.63
31.7
32.01
30.92
29.03
26.97
25.13
23.58
22.13
20.49
18.47
16.02
13.18
9.94
6.16
1.74
-3.26
-8.44
-13.26
-17.18
-20.13
-22.6
-25.58
-30.1
-36.66
-44.89
-53.37
-60.12
-63.23
-61.5
-55.0
-44.93
-33.33
-22.3
-13.43
-7.38
-3.92
-2.3
-1.74
-1.81
-2.41
-3.56
-5.12
-6.6
-7.34
-6.76
-4.68
-1.47
2.08
5.03
6.63
6.49
4.6
1.22
-3.32
-8.91
-15.58
-23.5
-32.56
-42.27
-51.69
-59.58
-64.83
-66.76
-65.28
-60.78
-53.83
-45.07
-35.04
-24.35
-13.73
-4.05
3.84
9.32
12.21
12.81
11.89
10.58
10.16
11.94
16.85
25.22
36.51
49.27
61.24
69.74
72.34
67.41
54.74
35.59
12.67
-10.63
-31.02
-46.13
-55.14
-58.73
-58.75
-57.4
-56.54
-57.11
-59.02
-61.36
-62.77
-61.92
-57.78
-49.88
-38.36
-23.96
-7.96
8.07
22.62
34.57
43.48
49.5
53.25
55.51
56.98
58.15
59.3
60.42
61.36
61.79
61.35
59.76
56.95
53.02
48.16
42.51
36.15
29.18
21.83
14.49
7.68
1.79
-3.01
-6.86
-10.07
-12.92
-15.48
-17.61
-19.05
-19.59
-19.14
-17.74
-15.46
-12.29
-8.2
-3.23
2.5
8.56
14.33
19.04
22.03
22.92
21.8
19.13
15.63
12.04
8.91
6.55
4.97
4.03
3.5
3.1
2.6
1.79
0.57
-1.13
-3.26
-5.72
-8.35
-10.97
-13.48
-15.9
-18.33
-20.83
-23.2
-24.97
-25.42
-23.85
-19.93
-13.78
-6.06
2.31
10.44
17.61
23.36
27.35
29.33
29.18
27.05
23.49
19.27
15.3
12.21
10.31
9.51
9.51
9.91
10.37
10.71
10.88
10.97
11.11
11.38
11.77
12.1
12.1
11.39
9.67
6.82
2.99
-1.38
-5.62
-9.01
-11.02
-11.44
-10.48
-8.67
-6.69
-5.05
-3.93
-3.23
-2.63
-1.92
-1.06
-0.22
0.3
0.28
-0.28
-1.23
-2.26
-3.12
-3.69
-3.99
-4.12
-4.2
-4.29
-4.44
-4.65
-4.94
-5.35
-6.0
-7.12
-8.98
-11.76
-15.31
-19.06
-22.08
-23.43
-22.49
-19.26
-14.27
-8.41
-2.55
2.79
7.38
11.26
14.43
16.84
18.37
18.96
18.73
17.96
17.07
16.43
16.29
16.62
17.18
17.58
17.45
16.62
15.17
13.34
11.41
9.59
7.89
6.21
4.31
1.9
-1.23
-5.13
-9.51
-13.75
-16.97
-18.36
-17.45
-14.36
-9.69
-4.23
1.26
6.35
10.79
14.4
16.94
18.04
17.46
15.21
11.65
7.37
3.06
-0.74
-3.77
-6.02
-7.77
-9.33
-10.97
-12.83
-14.91
-17.11
-19.31
-21.37
-23.16
-24.49
-25.18
-25.23
-24.95
-24.92
-25.75
-27.67
-30.17
-32.11
-32.12
-29.24
-23.45
-15.67
-7.36
0.18
6.29
11.02
14.79
17.89
20.21
21.32
20.88
18.97
16.23
13.63
12.0
11.75
12.68
14.18
15.58
16.38
16.48
16.02
15.16
13.96
12.31
10.08
7.24
4.02
0.77
-2.19
-4.86
-7.53
-10.66
-14.5
-18.84
-22.88
-25.51
-25.77
-23.22
-18.21
-11.65
-4.66
1.82
7.29
11.69
15.23
18.08
20.33
21.82
22.43
22.15
21.28
20.34
19.91
20.36
21.64
23.33
24.83
25.55
25.26
24.0
22.0
19.47
16.51
13.11
9.28
5.1
0.74
-3.6
-7.82
-12.04
-16.59
-21.84
-27.96
-34.64
-41.04
-45.92
-47.98
-46.46
-41.32
-33.41
-24.08
-14.77
-6.57
-0.01
4.79
8.03
9.86
10.43
9.87
8.46
6.62
4.88
3.82
3.81
4.96
7.01
9.41
11.49
12.65
12.62
11.49
9.66
7.59
5.55
3.5
1.19
-1.65
-5.07
-8.86
-12.75
-16.64
-20.69
-25.06
-29.66
-33.84
-36.54
-36.68
-33.61
-27.6
-19.62
-11.04
-3.1
3.47
8.46
11.97
14.18
15.17
14.94
13.59
11.48
9.16
7.4
6.84
7.78
9.98
12.75
15.14
16.35
16.05
14.55
12.5
10.56
9.06
7.83
6.42
4.37
1.42
-2.39
-6.87
-11.76
-16.73
-21.28
-24.77
-26.45
-25.72
-22.47
-17.11
-10.51
-3.63
2.75
8.17
12.4
15.33
16.85
16.87
15.53
13.23
10.63
8.46
7.28
7.25
8.11
9.25
10.0
9.81
8.43
5.99
2.87
-0.39
-3.28
-5.38
-6.43
-6.34
-5.14
-3.08
-0.54
2.01
4.18
5.76
6.89
7.96
9.41
11.49
14.08
16.65
18.45
18.86
17.67
15.18
12.07
9.05
6.62
4.82
3.43
2.15
0.84
-0.46
-1.7
-3.09
-5.25
-9.06
-15.31
-24.3
-35.5
-47.57
-58.71
-67.13
-71.45
-71.0
-65.98
-57.37
-46.78
-36.07
-26.98
-20.54
-16.89
-15.18
-14.06
-12.14
-8.54
-3.05
3.98
11.94
20.26
28.44
35.93
42.01
45.81
46.55
43.94
38.43
31.26
24.14
18.7
16.02
16.27
18.81
22.42
25.74
27.81
28.25
27.28
25.46
23.34
21.18
18.93
16.38
13.28
9.45
4.79
-0.8
-7.37
-14.8
-22.59
-29.83
-35.36
-38.1
-37.44
-33.54
-27.29
-20.07
-13.21
-7.73
-3.98
-1.81
-0.77
-0.47
-0.69
-1.4
-2.57
-3.98
-5.16
-5.56
-4.76
-2.69
0.27
3.5
6.32
8.27
9.18
9.19
8.58
7.67
6.6
5.28
3.47
0.83
-2.94
-7.86
-13.64
-19.62
-24.95
-28.75
-30.29
-29.16
-25.34
-19.27
-11.69
-3.62
3.98
10.4
15.27
18.6
20.58
21.43
21.31
20.42
19.12
17.88
17.29
17.78
19.36
21.67
24.06
25.86
26.71
26.51
25.44
23.7
21.43
18.68
15.54
12.11
8.48
4.6
0.25
-4.82
-10.59
-16.57
-21.78
-25.04
-25.47
-22.88
-17.84
-11.43
-4.81
1.16
6.04
9.68
12.1
13.38
13.63
13.09
12.02
10.71
9.38
8.29
7.68
7.78
8.71
10.27
12.0
13.27
13.61
12.9
11.37
9.45
7.45
5.39
3.05
0.23
-3.07
-6.58
-9.92
-12.88
-15.54
-18.23
-21.16
-24.15
-26.5
-27.17
-25.29
-20.52
-13.3
-4.63
4.26
12.3
18.82
23.59
26.58
27.93
27.8
26.41
24.1
21.35
18.81
17.13
16.83
18.12
20.79
24.34
28.13
31.55
34.18
35.69
35.9
34.65
31.91
27.87
22.96
17.81
13.07
9.13
6.06
3.58
1.2
-1.63
-5.3
-9.82
-14.69
-18.95
-21.4
-21.02
-17.39
-10.97
-2.94
5.21
12.23
17.43
20.75
22.55
23.2
22.96
21.81
19.69
16.69
13.1
9.42
6.16
3.67
2.04
1.09
0.52
0.14
-0.12
-0.29
-0.62
-1.73
-4.51
-9.81
-17.88
-28.07
-38.86
-48.31
-54.69
-57.14
-55.82
-51.72
-46.29
-40.89
-36.48
-33.49
-31.85
-31.04
-30.28
-28.75
-25.77
-21.02
-14.62
-7.11
0.65
7.68
13.05
16.15
16.77
15.24
12.23
8.63
5.23
2.53
0.75
-0.14
-0.19
0.6
2.24
4.53
7.05
9.18
10.35
10.29
9.1
7.12
4.7
1.95
-1.23
-4.98
-9.19
-13.47
-17.28
-20.18
-22.16
-23.71
-25.67
-28.83
-33.68
-40.09
-47.35
-54.29
-59.56
-62.09
-61.33
-57.53
-51.58
-44.81
-38.56
-33.84
-31.13
-30.37
-31.14
-32.86
-35.09
-37.55
-40.24
-43.24
-46.6
-50.14
-53.45
-55.99
-57.32
-57.26
-55.94
-53.6
-50.4
-46.17
-40.55
-33.15
-23.88
-13.01
-1.16
11.01
22.98
34.39
44.92
54.02
60.93
64.83
65.32
62.74
58.21
53.34
49.61
47.92
48.21
49.74
51.45
52.49
52.43
51.31
49.36
46.82
43.73
40.03
35.74
31.13
26.74
23.27
21.28
20.96
22.02
23.8
25.52
26.54
26.47
25.2
22.76
19.25
14.9
10.04
5.18
0.83
-2.61
-5.08
-6.88
-8.62
-11.0
-14.6
-19.62
-25.61
-31.55
-36.01
-37.75
-36.12
-31.42
-24.79
-17.73
-11.54
-6.86
-3.6
-1.17
1.15
3.87
7.19
11.01
15.04
18.94
22.41
25.18
27.09
28.1
28.21
27.49
26.08
24.24
22.38
20.93
20.23
20.36
21.04
21.85
22.39
22.48
22.17
21.53
20.47
18.75
16.03
12.13
7.13
1.44
-4.43
-9.91
-14.52
-17.84
-19.48
-19.23
-17.04
-13.25
-8.41
-3.27
1.52
5.49
8.4
10.2
10.93
10.79
10.23
10.03
11.26
14.95
21.62
30.88
41.46
51.51
59.25
63.58
64.34
62.1
57.76
52.08
45.46
38.11
30.19
22.09
14.32
7.33
1.22
-4.36
-10.12
-16.83
-24.96
-34.38
-44.28
-53.4
-60.39
-64.18
-64.39
-61.34
-55.9
-49.16
-42.05
-35.2
-28.89
-23.25
-18.37
-14.4
-11.54
-9.89
-9.33
-9.52
-9.97
-10.14
-9.62
-8.19
-5.83
-2.77
0.64
3.95
6.76
8.78
10.0
10.57
10.72
10.65
10.37
9.79
8.65
6.74
3.89
0.14
-4.21
-8.62
-12.31
-14.54
-14.79
-12.94
-9.31
-4.51
0.78
6.07
11.04
15.51
19.29
22.12
23.63
23.61
22.07
19.32
16.01
12.83
10.37
8.9
8.31
8.18
8.02
7.45
6.38
4.98
3.49
2.08
0.71
-0.81
-2.68
-4.96
-7.58
-10.46
-13.57
-17.05
-20.99
-25.31
-29.57
-33.01
-34.8
-34.31
-31.36
-26.3
-19.79
-12.61
-5.42
1.34
7.38
12.48
16.4
18.95
20.01
19.66
18.28
16.36
14.44
12.93
11.96
11.45
11.13
10.73
10.04
9.01
7.7
6.28
4.88
3.56
2.26
0.87
-0.79
-2.84
-5.4
-8.53
-12.28
-16.62
-21.35
-26.02
-29.99
-32.48
-32.86
-30.8
-26.44
-20.31
-13.21
-5.94
0.81
6.58
11.17
14.52
16.66
17.71
17.81
17.17
16.0
14.58
13.13
11.81
10.73
9.91
9.36
9.05
8.92
8.78
8.38
7.46
5.87
3.63
0.98
-1.67
-3.92
-5.62
-6.85
-8.02
-9.69
-12.3
-15.97
-20.36
-24.71
-28.1
-29.64
-28.8
-25.51
-20.15
-13.35
-5.86
1.6
8.47
14.3
18.8
21.82
23.31
23.45
22.54
21.07
19.44
17.91
16.55
15.3
14.08
12.89
11.81
10.95
10.25
9.55
8.6
7.23
5.45
3.42
1.36
-0.62
-2.56
-4.55
-6.74
-9.19
-11.94
-15.04
-18.45
-22.09
-25.64
-28.58
-30.27
-30.15
-27.92
-23.74
-18.1
-11.73
-5.34
0.47
5.24
8.71
10.72
11.31
10.68
9.25
7.49
5.85
4.59
3.76
3.25
2.91
2.57
2.18
1.76
1.42
1.2
1.15
1.2
1.22
0.99
0.4
-0.56
-1.72
-2.78
-3.61
-4.29
-5.22
-6.85
-9.35
-12.37
-14.9
-15.7
-13.61
-8.18
0.17
10.3
20.74
30.28
38.36
45.22
51.59
58.41
66.23
74.96
83.76
91.37
96.59
98.91
98.87
98.05
98.66
102.86
112.0
125.95
142.82
159.06
170.23
172.16
162.1
139.54
106.21
65.28
20.07
-27.16
-75.97
-127.68
-184.37
-247.12
-314.24
-380.36
-437.14
-475.61
-489.19
-476.07
-439.65
-386.92
-325.67
-262.04
-199.7
-140.6
-86.31
-38.79
0.06
29.47
50.62
66.33
79.76
92.96
106.11
117.94
126.57
130.68
130.17
125.97
119.59
112.47
105.49
98.84
92.13
84.66
75.77
65.14
52.81
39.24
25.04
10.89
-2.59
-14.8
-25.11
-32.88
-37.61
-39.12
-37.61
-33.73
-28.37
-22.36
-16.35
-10.68
-5.59
-1.3
1.88
3.7
4.14
3.69
3.3
4.22
7.57
13.85
22.81
33.36
44.04
53.46
60.82
66.22
70.58
75.28
81.55
89.88
99.69
109.42
117.09
120.88
119.79
113.85
103.97
91.52
77.79
63.7
49.68
35.74
21.5
6.21
-11.07
-31.06
-53.85
-78.49
-103.31
-126.81
-148.64
-170.12
-193.67
-221.52
-253.93
-288.0
-318.46
-339.46
-346.52
-337.9
-314.85
-280.56
-238.91
-193.11
-144.91
-94.94
-43.05
11.35
68.76
128.71
188.96
245.12
291.66
324.39
341.52
344.16
336.31
323.23
309.52
297.95
288.81
281.53
277.68
278.93
285.31
295.62
307.38
317.76
325.0
327.54
325.18
322.01
320.75
319.99
317.07
309.4
295.87
277.45
254.14
226.31
200.32
180.98
168.21
160.81
156.7
153.15
147.02
131.83
101.32
58.82
8.46
-49.19
-112.99
-181.96
-255.66
-312.28
-331.16
-344.63
-371.58
-401.85
-431.12
-456.3
-476.13
-491.25
-503.85
-520.59
-548.8
-586.54
-630.25
-677.5
-721.94
-754.52
-766.28
-751.56
-712.8
-658.02
-591.51
-517.34
-439.87
-359.86
-276.15
-188.18
-97.36
-8.59
72.89
147.51
217.72
285.48
353.43
423.75
497.48
573.68
648.15
713.96
764.33
792.5
793.38
766.77
717.6
654.12
584.91
515.84
449.2
385.18
322.9
261.63
201.73
144.26
90.35
41.1
-2.14
-37.53
-63.33
-78.89
-85.57
-86.9
-87.78
-92.97
-106.01
-128.45
-159.98
-198.52
-240.46
-280.72
-313.36
-332.94
-336.16
-323.43
-298.96
-269.43
-241.74
-220.71
-207.99
-202.22
-200.18
-198.24
-193.46
-184.37
-171.25
-156.29
-143.33
-137.14
-141.9
-159.46
-188.02
-222.06
-253.96
-276.65
-286.09
-282.36
-268.85
-250.09
-229.49
-208.17
-185.41
-160.07
-132.08
-102.61
-73.42
-45.53
-18.32
10.35
43.18
82.47
129.64
185.01
247.71
315.27
383.14
444.83
492.9
520.86
525.01
505.44
465.68
411.33
348.51
282.88
219.39
162.25
114.84
79.01
54.43
38.52
27.15
16.16
2.68
-14.06
-32.99
-51.73
-67.62
-78.27
-81.92
-77.95
-67.17
-52.08
-36.48
-24.27
-17.93
-17.22
-18.98
-18.38
-10.84
5.94
31.12
61.05
90.87
116.18
134.26
144.51
147.9
146.2
141.05
133.48
123.77
111.79
97.62
81.83
65.52
49.91
35.75
23.2
11.95
1.76
-7.33
-15.07
-21.33
-26.3
-30.35
-33.47
-35.05
-34.03
-29.74
-22.55
-14.19
-7.16
-3.64
-4.72
-10.15
-18.85
-29.69
-41.95
-55.47
-70.27
-86.28
-103.11
-120.01
-135.95
-149.6
-159.58
-164.76
-164.66
-159.78
-151.58
-141.97
-132.55
-123.88
-115.29
-105.07
-91.45
-73.71
-52.93
-31.96
-14.39
-2.97
1.77
1.88
0.85
1.86
6.13
12.49
18.5
22.25
23.91
25.79
30.68
40.13
53.03
66.03
75.52
79.5
78.41
74.13
67.92
59.12
45.96
27.71
6.71
-11.93
-23.31
-26.34
-25.44
-28.44
-41.78
-66.05
-95.23
-120.39
-135.4
-140.9
-143.58
-151.28
-167.31
-187.91
-204.48
-209.06
-199.04
-178.27
-154.35
-133.93
-119.29
-108.3
-96.64
-81.14
-61.75
-40.99
-22.1
-7.15
3.85
12.44
20.68
30.28
42.15
56.29
71.78
86.95
99.76
108.72
113.74
116.36
119.21
124.6
133.25
143.91
154.11
161.6
165.53
166.63
166.44
166.32
166.69
167.15
167.07
166.13
164.58
163.08
162.34
162.9
165.07
168.92
174.2
180.08
185.03
186.85
183.38
173.27
156.64
135.16
111.26
87.04
63.44
40.18
16.63
-7.14
-29.77
-48.98
-62.8
-70.65
-73.9
-75.02
-76.35
-78.77
-81.47
-82.69
-80.97
-76.19
-69.67
-63.58
-59.93
-59.68
-62.52
-67.01
-71.15
-73.07
-71.47
-65.96
-56.96
-45.61
-33.52
-22.49
-14.08
-9.17
-7.63
-8.3
-9.42
-9.31
-7.11
-2.96
2.29
7.75
13.01
18.31
24.04
30.28
36.57
42.08
46.25
49.13
51.48
54.27
58.25
63.6
69.95
76.56
82.43
86.14
85.67
78.62
62.98
38.27
6.36
-28.71
-62.0
-89.39
-108.95
-121.04
-127.47
-130.06
-129.75
-126.62
-120.47
-111.79
-101.84
-92.35
-84.74
-79.56
-76.46
-74.45
-72.45
-69.71
-65.97
-61.61
-57.47
-54.45
-53.09
-53.21
-53.99
-54.4
-53.51
-50.61
-45.18
-36.96
-26.25
-14.33
-3.59
3.08
3.45
-2.56
-12.51
-22.02
-26.64
-23.8
-13.85
0.31
14.81
26.46
33.86
37.23
37.52
35.59
31.92
26.83
21.09
16.18
13.99
15.88
22.03
31.15
40.93
48.88
53.08
52.45
46.7
36.19
21.86
5.18
-11.96
-27.68
-40.62
-50.27
-56.86
-60.78
-62.04
-60.14
-54.41
-44.83
-32.51
-19.58
-8.51
-1.16
1.82
1.13
-1.65
-4.71
-6.44
-5.84
-2.62
2.77
9.34
15.83
21.04
24.2
25.1
23.97
21.22
17.25
12.44
7.37
2.94
0.17
-0.23
1.54
4.16
5.59
3.86
-1.86
-10.83
-20.95
-29.65
-34.94
-36.05
-33.5
-28.54
-22.56
-16.64
-11.53
-7.75
-5.72
-5.66
-7.4
-10.31
-13.5
-16.05
-17.38
-17.31
-16.02
-13.94
-11.6
-9.58
-8.44
-8.51
-9.78
-11.78
-13.69
-14.76
-14.69
-13.85
-13.16
-13.46
-14.98
-16.88
-17.53
-15.09
-8.37
2.67
17.02
33.22
50.06
66.96
83.92
101.07
118.23
134.57
148.72
159.06
164.12
163.14
156.4
145.45
132.79
121.18
112.58
107.33
104.0
99.9
92.23
78.93
59.32
34.03
4.85
-25.65
-54.43
-78.51
-95.87
-106.33
-111.77
-115.36
-120.08
-127.0
-134.38
-138.31
-134.67
-121.41
-100.01
-75.04
-52.18
-35.71
-26.89
-24.12
-24.56
-26.06
-28.19
-31.76
-37.35
-44.04
-49.42
-50.67
-46.34
-37.31
-26.59
-17.84
-13.8
-15.41
-22.01
-32.29
-44.83
-58.27
-70.67
-79.23
-80.84
-73.57
-58.09
-38.3
-20.01
-8.52
-6.14
-11.0
-18.1
-21.83
-18.74
-8.94
4.46
17.33
26.72
31.94
34.27
35.58
36.99
38.36
38.61
36.77
32.75
27.61
22.96
19.99
18.73
17.89
15.54
10.13
1.42
-9.37
-20.03
-28.14
-31.82
-29.99
-22.57
-10.52
4.14
18.45
29.24
34.11
32.5
26.09
18.06
11.68
8.9
9.65
12.28
14.76
15.7
14.69
11.95
7.79
2.32
-4.18
-10.94
-16.59
-19.54
-18.81
-14.47
-7.72
-0.33
6.04
10.37
12.74
14.21
16.55
21.36
29.32
39.59
49.9
57.45
60.31
58.52
54.31
51.04
51.54
56.64
64.89
73.32
78.94
79.99
76.23
68.6
58.53
47.52
37.06
28.63
23.55
22.6
25.58
31.08
36.77
40.07
39.02
32.98
22.85
10.81
-0.44
-8.56
-12.33
-11.9
-8.56
-4.15
-0.33
1.86
2.25
1.21
-0.57
-2.49
-4.06
-5.06
-5.68
-6.49
-8.34
-12.04
-17.83
-25.07
-32.43
-38.28
-41.24
-40.61
-36.46
-29.37
-20.25
-10.22
-0.48
7.86
14.25
18.89
22.65
26.55
31.11
35.85
39.65
41.43
40.98
39.26
38.0
38.77
42.27
48.02
54.8
61.43
67.13
71.59
74.62
75.81
74.43
69.78
61.53
50.05
36.44
22.27
9.04
-2.51
-12.65
-22.67
-34.32
-49.17
-67.87
-89.71
-112.6
-133.34
-148.22
-153.64
-147.03
-127.8
-98.06
-62.52
-27.58
0.47
17.37
22.03
16.4
4.21
-10.68
-25.53
-38.99
-50.56
-59.79
-65.85
-67.75
-64.78
-57.17
-46.15
-33.56
-21.26
-10.56
-2.16
3.75
7.03
7.42
4.67
-1.02
-8.61
-16.17
-21.47
-22.85
-19.98
-14.19
-7.82
-3.3
-1.96
-3.68
-7.12
-10.73
-13.51
-15.41
-16.93
-18.49
-19.96
-20.71
-20.22
-18.61
-16.74
-15.82
-16.64
-19.05
-21.95
-23.99
-24.33
-23.14
-21.54
-20.99
-22.59
-26.52
-31.98
-37.56
-41.74
-43.47
-42.47
-39.26
-34.77
-30.07
-25.89
-22.62
-20.28
-18.75
-17.8
-17.2
-16.7
-16.13
-15.48
-14.98
-15.07
-16.11
-18.1
-20.4
-21.88
-21.36
-18.09
-12.1
-4.1
4.84
13.79
22.12
29.38
35.21
39.12
40.75
40.08
37.66
34.52
31.78
30.2
29.78
29.79
29.16
27.05
23.34
18.75
14.55
11.92
11.29
11.89
12.07
10.08
5.05
-2.44
-10.55
-17.07
-20.51
-20.77
-19.07
-17.08
-15.98
-15.85
-15.81
-14.67
-11.76
-7.23
-1.86
3.55
8.66
13.66
18.97
24.71
30.59
35.98
40.43
44.06
47.6
52.02
57.89
64.9
71.84
77.08
79.25
77.88
73.46
67.13
60.02
52.62
44.7
35.65
25.08
13.15
0.61
-11.48
-22.08
-30.29
-35.21
-36.01
-32.21
-24.21
-13.46
-2.11
8.09
16.74
25.13
35.41
49.14
66.06
83.89
99.45
110.17
115.34
116.07
114.49
112.43
111.04
110.92
112.96
118.67
129.76
147.01
169.5
194.31
217.37
234.78
243.82
243.32
233.3
214.74
189.47
160.3
130.68
103.83
81.42
62.76
45.15
25.35
1.42
-26.35
-55.58
-83.15
-106.59
-124.59
-136.74
-143.01
-143.7
-140.05
-134.69
-131.36
-133.37
-141.94
-155.19
-168.79
-177.93
-179.44
-172.82
-159.93
-143.5
-126.07
-109.49
-95.07
-83.84
-76.23
-71.28
-65.97
-55.72
-36.15
-5.49
33.86
75.31
109.89
129.41
129.05
108.66
72.16
25.73
-24.36
-73.35
-118.45
-158.5
-193.01
-221.23
-241.96
-253.79
-255.73
-247.86
-231.65
-209.66
-184.87
-159.8
-136.12
-114.87
-96.85
-82.78
-72.84
-65.97
-59.61
-50.35
-35.55
-14.85
9.36
32.81
51.4
63.07
68.4
69.74
69.4
68.38
66.0
60.77
51.55
38.18
21.4
2.29
-18.03
-38.44
-57.43
-73.08
-83.44
-87.28
-84.74
-77.54
-68.4
-59.98
-53.79
-49.69
-46.12
-40.85
-31.98
-18.59
-1.03
19.09
39.12
55.76
65.65
66.33
57.14
39.71
17.48
-5.5
-26.06
-42.99
-57.02
-70.1
-83.93
-99.09
-114.84
-129.73
-142.31
-151.5
-156.55
-156.81
-151.79
-141.4
-126.34
-108.1
-88.82
-70.73
-55.49
-43.58
-34.21
-25.63
-15.95
-4.06
9.88
24.59
38.42
50.24
60.01
68.87
78.76
91.76
109.45
132.4
159.89
189.68
218.27
241.66
256.66
262.09
259.13
250.56
239.08
226.11
211.37
193.81
172.78
148.84
123.4
97.87
72.98
48.86
25.98
5.96
-8.34
-13.94
-9.45
3.64
21.01
36.94
46.45
47.11
39.49
26.39
11.18
-3.57
-16.75
-28.42
-38.99
-48.63
-57.09
-64.0
-69.26
-73.15
-76.01
-77.75
-77.68
-74.89
-68.88
-60.22
-50.61
-42.18
-36.42
-33.17
-30.53
-25.59
-15.73
0.08
20.82
43.75
65.45
82.91
94.31
99.25
98.45
93.26
85.22
75.67
65.57
55.38
45.19
34.8
24.05
12.92
1.57
-9.78
-21.08
-32.42
-44.05
-56.15
-68.78
-81.88
-95.32
-108.83
-121.77
-132.91
-140.37
-142.01
-136.09
-122.07
-101.08
-75.79
-49.67
-26.02
-7.13
6.16
14.21
18.1
18.97
17.64
14.6
10.24
5.18
0.44
-2.74
-3.3
-0.77
4.47
11.41
18.63
24.82
28.94
30.34
28.75
24.41
18.1
11.21
5.46
2.49
3.34
8.09
15.9
25.3
34.66
42.64
48.42
51.73
52.79
52.06
50.03
47.08
43.33
38.7
33.03
26.22
18.52
10.56
3.22
-2.61
-6.33
-7.87
-7.7
-6.64
-5.56
-5.09
-5.6
-7.2
-9.8
-13.1
-16.35
-18.26
-17.15
-11.55
-0.94
13.74
30.11
45.12
56.09
61.67
62.05
58.65
53.2
46.98
40.49
33.65
26.29
18.62
11.38
5.52
1.82
0.4
0.68
1.65
2.28
1.87
0.14
-2.97
-7.43
-13.22
-20.09
-27.28
-33.46
-37.06
-36.72
-31.9
-23.13
-11.77
0.43
11.89
21.56
28.97
34.09
37.14
38.37
38.01
36.2
33.07
28.75
23.55
17.95
12.65
8.26
5.15
3.29
2.3
1.67
1.06
0.41
-0.11
-0.36
-0.41
-0.59
-1.17
-2.15
-3.04
-3.1
-1.6
1.7
6.5
12.06
17.51
22.16
25.56
27.51
27.9
26.71
24.02
20.13
15.63
11.26
7.7
5.29
3.89
2.97
1.76
-0.38
-3.81
-8.48
-13.95
-19.41
-23.93
-26.63
-26.94
-24.85
-20.96
-16.28
-11.8
-8.1
-5.02
-1.8
2.42
8.02
14.58
20.95
25.87
28.49
28.5
26.11
21.67
15.52
8.25
1.02
-4.44
-6.38
-3.84
2.63
11.18
19.42
25.57
29.08
30.27
29.64
27.15
22.29
14.74
5.18
-4.63
-12.38
-16.34
-16.09
-12.62
-7.58
-2.47
1.92
5.48
8.4
10.84
12.79
14.06
14.29
12.99
9.53
3.36
-5.5
-16.06
-26.31
-33.66
-35.86
-32.0
-23.05
-11.65
-1.01
6.47
10.21
11.45
12.21
13.83
16.04
17.03
14.61
7.71
-2.66
-13.53
-21.18
-22.65
-16.99
-5.34
9.5
24.12
35.31
40.52
38.21
28.13
11.81
-7.48
-25.2
-36.99
-40.16
-34.92
-24.42
-13.54
-6.93
-7.22
-14.32
-25.93
-38.98
-50.95
-60.42
-66.68
-68.79
-65.03
-53.21
-31.93
-2.05
32.44
65.01
88.68
98.8
95.24
82.67
68.64
60.19
60.72
68.63
78.45
83.66
79.85
66.46
46.44
24.35
4.17
-11.8
-22.77
-28.42
-28.49
-23.11
-13.72
-3.51
3.42
3.8
-3.09
-14.86
-27.09
-35.44
-37.78
-35.11
-30.94
-29.45
-33.66
-44.14
-58.91
-74.57
-87.82
-97.0
-102.74
-107.57
-114.5
-125.4
-140.05
-156.33
-171.53
-183.75
-192.59
-198.68
-202.56
-203.83
-201.35
-194.37
-183.76
-172.63
-165.3
-165.27
-173.23
-186.33
-199.47
-207.67
-208.42
-202.51
-192.87
-182.35
-171.88
-160.29
-145.65
-127.24
-106.41
-85.83
-67.56
-51.44
-34.84
-14.08
13.39
47.36
84.8
121.36
153.23
178.62
198.04
213.61
228.19
244.41
264.21
288.17
315.12
341.96
364.34
378.35
382.29
377.9
369.66
362.73
360.17
361.46
363.02
360.76
352.97
341.71
331.73
327.56
330.79
338.88
346.53
348.4
341.63
326.7
306.41
283.72
260.06
234.94
206.81
174.51
138.35
100.07
61.95
25.6
-8.58
-41.33
-73.66
-106.06
-137.87
-167.47
-192.9
-212.55
-225.69
-232.57
-234.0
-231.05
-224.73
-215.92
-205.57
-194.64
-183.92
-173.74
-163.71
-152.78
-139.74
-123.78
-105.07
-84.78
-64.62
-46.12
-30.05
-16.31
-4.31
6.34
15.35
21.72
24.2
21.89
14.7
3.3
-11.12
-27.2
-43.57
-58.76
-71.18
-79.44
-82.67
-80.9
-74.9
-65.73
-54.13
-40.24
-23.88
-5.28
14.42
33.18
48.83
60.12
67.25
71.73
75.37
79.11
82.49
83.78
80.93
72.64
58.96
41.36
22.27
4.5
-9.11
-15.85
-13.32
-0.03
23.7
55.11
89.09
119.39
140.51
149.42
146.28
133.82
115.69
94.88
72.75
49.29
24.11
-2.59
-29.49
-54.52
-75.73
-91.99
-103.33
-110.69
-115.18
-117.49
-117.61
-114.97
-108.99
-99.61
-87.42
-73.41
-58.42
-42.57
-25.2
-5.16
18.44
45.67
75.4
105.47
133.21
156.01
171.74
178.92
176.69
164.82
143.85
115.24
81.45
45.48
10.22
-22.44
-52.0
-79.15
-105.03
-130.34
-154.71
-176.96
-195.63
-209.93
-220.02
-226.93
-231.82
-235.27
-236.9
-235.53
-229.79
-218.8
-202.71
-182.79
-161.16
-140.23
-122.13
-108.32
-99.27
-94.55
-92.93
-92.67
-91.96
-89.37
-84.17
-76.46
-66.87
-56.05
-44.36
-31.68
-17.79
-2.84
12.37
26.59
38.76
48.63
56.9
64.66
72.61
80.61
87.9
93.79
98.18
101.57
104.45
106.64
107.25
105.27
100.4
93.54
86.46
80.77
76.92
74.02
70.36
64.49
56.02
45.63
34.59
24.09
14.84
7.12
0.86
-4.23
-8.76
-13.8
-20.66
-30.52
-43.8
-59.77
-76.49
-91.23
-100.87
-102.59
-94.35
-75.68
-48.21
-15.88
15.79
41.23
56.83
62.28
60.62
56.74
55.16
58.1
64.97
73.38
80.6
84.9
85.74
83.19
77.34
68.15
55.86
41.68
27.78
16.5
9.13
5.14
2.28
-2.26
-10.46
-22.78
-38.43
-56.3
-75.83
-97.12
-120.39
-145.17
-170.08
-193.16
-212.73
-228.07
-239.48
-247.87
-254.12
-258.71
-262.04
-264.67
-267.61
-271.95
-278.35
-286.44
-294.8
-301.45
-304.63
-303.37
-297.6
-287.61
-273.39
-254.13
-228.41
-194.94
-153.63
-106.3
-56.69
-9.64
30.28
60.17
79.5
90.03
94.8
96.85
98.04
98.64
97.81
94.45
88.26
79.96
70.93
62.4
54.82
47.76
40.39
32.06
22.72
12.9
3.48
-4.57
-10.23
-12.34
-9.67
-1.29
13.02
32.52
55.69
80.95
107.44
135.3
165.21
197.3
230.0
259.78
281.83
291.77
287.34
269.28
240.99
207.08
171.65
137.14
104.34
73.27
44.25
18.47
-2.4
-17.2
-26.21
-31.22
-34.8
-38.92
-43.97
-48.53
-50.08
-46.4
-36.63
-21.79
-4.34
12.77
27.19
37.71
44.32
47.68
48.43
46.86
42.85
36.19
27.04
16.17
4.85
-5.49
-13.7
-19.4
-22.89
-25.03
-26.98
-29.75
-34.09
-40.22
-47.73
-55.54
-62.06
-65.54
-64.66
-58.9
-48.82
-35.84
-21.87
-8.72
2.26
10.3
15.2
17.05
16.06
12.52
6.7
-1.01
-10.12
-20.01
-30.0
-39.38
-47.56
-54.08
-58.77
-61.76
-63.46
-64.63
-66.18
-69.0
-73.54
-79.46
-85.48
-89.52
-89.29
-83.01
-70.12
-51.49
-29.28
-6.27
14.86
32.15
44.63
52.21
55.44
55.13
52.14
47.21
40.96
33.84
26.29
18.73
11.6
5.3
0.11
-3.89
-6.86
-9.13
-11.14
-13.39
-16.38
-20.53
-25.99
-32.38
-38.61
-42.96
-43.49
-38.69
-28.06
-12.43
6.28
25.7
43.56
58.31
69.15
75.96
79.02
78.78
75.82
70.8
64.48
57.63
51.0
45.15
40.37
36.71
34.01
32.05
30.66
29.66
28.88
28.0
26.49
23.65
18.95
12.43
4.96
-1.75
-5.62
-4.86
1.33
12.46
26.9
42.46
57.08
69.32
78.49
84.47
87.45
87.76
85.78
82.02
77.05
71.53
66.1
61.36
57.8
55.8
55.4
56.35
58.1
60.03
61.72
63.06
64.13
64.89
65.05
64.28
62.57
60.6
59.6
60.77
64.52
70.14
75.92
79.89
80.59
77.39
70.41
60.0
46.52
30.24
11.64
-8.4
-28.67
-47.88
-64.96
-79.27
-90.53
-98.69
-103.84
-106.14
-105.81
-103.11
-98.26
-91.47
-83.07
-73.63
-64.06
-55.37
-48.43
-43.59
-40.55
-38.4
-35.92
-31.91
-25.5
-16.32
-4.55
9.11
23.54
37.39
49.35
58.4
64.02
66.24
65.51
62.49
57.83
52.07
45.59
38.75
31.87
25.29
19.32
14.16
9.84
6.18
2.9
-0.41
-4.08
-8.39
-13.48
-19.21
-25.14
-30.51
-34.35
-35.71
-34.02
-29.21
-21.86
-12.94
-3.61
5.12
12.46
17.94
21.33
22.57
21.83
19.46
16.02
12.17
8.47
5.28
2.67
0.5
-1.54
-3.68
-5.97
-8.37
-10.7
-12.87
-14.96
-17.14
-19.71
-22.92
-26.87
-31.39
-36.0
-39.94
-42.26
-42.13
-39.06
-33.16
-25.18
-16.31
-7.87
-0.97
3.72
6.09
6.37
5.06
2.66
-0.39
-3.76
-7.22
-10.65
-13.91
-16.88
-19.42
-21.33
-22.45
-22.68
-22.08
-20.85
-19.36
-18.05
-17.33
-17.54
-18.89
-21.35
-24.58
-27.88
-30.26
-30.61
-28.1
-22.44
-14.13
-4.26
5.77
14.68
21.64
26.34
28.88
29.54
28.66
26.55
23.52
19.89
16.02
12.22
8.74
5.77
3.41
1.67
0.47
-0.38
-1.09
-1.87
-2.89
-4.3
-6.28
-9.05
-12.73
-17.21
-21.9
-25.79
-27.68
-26.58
-22.15
-14.82
-5.74
3.65
12.01
18.47
22.68
24.73
24.92
23.57
20.99
17.42
13.13
8.48
3.88
-0.28
-3.72
-6.34
-8.25
-9.63
-10.69
-11.59
-12.4
-13.2
-14.14
-15.53
-17.71
-20.91
-24.99
-29.31
-32.81
-34.23
-32.61
-27.56
-19.5
-9.47
1.19
11.26
19.86
26.52
31.05
33.41
33.63
31.87
28.54
24.26
19.74
15.56
12.04
9.21
6.85
4.74
2.69
0.69
-1.18
-2.84
-4.24
-5.5
-6.89
-8.79
-11.59
-15.45
-20.11
-24.82
-28.41
-29.64
-27.65
-22.23
-13.97
-4.05
6.13
15.3
22.58
27.54
30.19
30.76
29.63
27.25
24.04
20.41
16.7
13.12
9.73
6.51
3.41
0.4
-2.42
-4.86
-6.73
-7.91
-8.5
-8.8
-9.24
-10.33
-12.44
-15.63
-19.54
-23.38
-26.03
-26.39
-23.66
-17.7
-9.09
1.01
11.25
20.4
27.71
32.83
35.8
36.74
35.87
33.42
29.85
25.8
21.95
18.89
16.8
15.51
14.51
13.34
11.79
10.03
8.58
8.06
8.96
11.36
14.85
18.58
21.48
22.63
21.56
18.47
14.08
9.43
5.44
2.72
1.46
1.52
2.62
4.44
6.84
9.84
13.68
18.7
25.23
33.3
42.61
52.51
62.31
71.46
79.76
87.18
93.59
98.47
100.8
99.28
92.79
80.77
63.55
42.18
18.2
-6.85
-31.79
-55.87
-78.75
-100.19
-119.84
-137.14
-151.34
-161.65
-167.49
-168.62
-165.23
-157.89
-147.5
-135.12
-121.89
-108.95
-97.23
-87.47
-80.0
-74.84
-71.61
-69.72
-68.48
-67.23
-65.45
-62.78
-59.05
-54.36
-49.01
-43.55
-38.64
-34.96
-33.06
-33.24
-35.47
-39.3
-43.9
-48.12
-50.79
-50.9
-47.95
-42.0
-33.61
-23.69
-13.2
-2.97
6.38
14.5
21.27
26.81
31.48
35.75
40.15
45.09
50.74
57.12
64.22
72.12
81.06
91.27
102.84
115.5
128.73
141.88
154.43
166.13
176.92
186.79
195.56
202.93
208.51
212.04
213.45
212.83
210.3
205.85
199.39
190.87
180.44
168.55
155.88
143.18
131.11
120.16
110.57
102.49
96.06
91.4
88.63
87.7
88.32
89.98
92.1
94.2
96.11
97.95
99.89
101.76
102.56
100.43
92.95
77.81
53.6
20.29
-20.65
-66.47
-113.54
-157.89
-195.68
-223.77
-240.21
-244.61
-238.14
-223.25
-203.02
-180.53
-158.37
-138.49
-122.18
-110.01
-101.7
-96.0
-90.84
-83.88
-73.15
-57.88
-38.71
-17.66
2.53
19.1
29.98
34.25
32.15
24.97
14.58
2.98
-8.15
-17.88
-26.01
-32.98
-39.47
-46.07
-53.1
-60.54
-68.15
-75.48
-81.82
-86.24
-87.78
-85.75
-80.15
-71.8
-62.12
-52.72
-44.97
-39.7
-37.21
-37.44
-39.98
-44.23
-49.34
-54.35
-58.42
-61.07
-62.39
-62.94
-63.71
-65.65
-69.6
-75.94
-84.68
-95.3
-106.92
-118.35
-128.31
-135.54
-139.05
-138.28
-133.14
-124.04
-111.82
-97.57
-82.5
-67.78
-54.46
-43.34
-34.74
-28.39
-23.24
-17.64
-9.75
1.82
17.44
36.12
55.9
74.5
90.22
102.49
111.64
118.29
122.63
124.07
121.28
112.45
95.76
69.9
34.86
-7.19
-51.47
-91.3
-119.84
-132.57
-129.16
-113.75
-93.63
-76.79
-69.84
-76.86
-99.18
-135.52
-181.91
-231.85
-277.12
-309.61
-323.76
-318.14
-295.47
-260.89
-220.01
-177.59
-137.4
-102.69
-76.22
-59.26
-50.35
-44.85
-36.17
-18.48
10.58
48.55
89.42
126.34
154.53
172.73
182.8
188.04
191.18
193.5
195.02
195.54
195.63
196.64
199.96
205.83
212.5
216.59
214.52
204.28
186.78
165.9
146.82
133.61
127.42
126.24
126.19
123.66
117.07
107.28
97.27
89.74
85.58
83.5
81.02
75.99
67.62
56.62
44.76
35.22
30.44
31.26
36.81
45.29
54.83
63.99
71.82
77.88
83.94
91.45
100.68
110.55
119.59
127.06
133.27
139.15
145.55
155.17
169.14
186.24
203.44
217.42
226.33
229.68
227.61
204.82
153.42
76.69
-10.64
-91.1
-154.11
-198.39
-229.55
-254.87
-279.08
-299.68
-310.78
-308.57
-292.23
-265.16
-233.0
-201.82
-175.31
-154.15
-135.17
-115.2
-93.25
-70.5
-51.32
-37.81
-29.53
-23.48
-16.42
-5.97
7.26
20.17
28.95
30.85
28.48
22.63
14.83
6.86
0.34
-4.0
-6.42
-7.77
-9.0
-10.11
-10.5
-9.84
-6.3
1.99
15.84
34.47
55.67
76.53
94.6
108.25
117.58
124.19
130.08
137.02
145.97
156.81
168.23
178.1
183.75
183.09
175.29
160.61
140.45
116.76
91.56
66.4
42.32
19.68
-1.32
-20.55
-38.08
-54.15
-69.19
-83.52
-97.14
-109.47
-119.47
-125.81
-127.33
-123.67
-115.42
-104.03
-91.35
-79.26
-69.13
-61.75
-57.28
-55.42
-55.63
-57.25
-59.67
-62.34
-64.85
-66.91
-68.32
-68.94
-68.66
-67.48
-65.47
-62.81
-59.76
-56.63
-53.71
-51.29
-49.67
-49.13
-49.92
-52.12
-55.51
-59.37
-62.52
-63.51
-61.01
-54.21
-43.16
-28.76
-12.59
3.52
17.92
29.43
37.49
42.07
43.52
42.43
39.5
35.39
30.66
25.74
20.89
16.25
11.87
7.78
4.01
0.58
-2.48
-5.19
-7.61
-9.92
-12.4
-15.51
-19.76
-25.45
-32.46
-39.95
-46.49
-50.38
-50.22
-45.41
-36.37
-24.45
-11.45
0.94
11.43
19.34
24.44
26.8
26.68
24.43
20.54
15.63
10.38
5.43
1.22
-2.1
-4.63
-6.62
-8.33
-9.84
-11.07
-11.88
-12.27
-12.45
-12.97
-14.5
-17.6
-22.45
-28.63
-35.11
-40.41
-43.0
-41.69
-36.04
-26.46
-14.07
-0.34
13.32
25.78
36.31
44.44
49.9
52.53
52.48
50.22
46.51
42.25
38.17
34.66
31.71
29.06
26.38
23.51
20.49
17.46
14.65
12.15
9.93
7.77
5.35
2.24
-1.89
-7.18
-13.34
-19.57
-24.7
-27.41
-26.65
-22.05
-13.96
-3.48
7.98
19.04
28.63
36.05
40.95
43.17
42.71
39.8
34.86
28.61
21.87
15.46
9.94
5.55
2.17
-0.53
-2.93
-5.28
-7.67
-9.99
-12.03
-13.69
-15.01
-16.26
-17.89
-20.34
-23.92
-28.48
-33.43
-37.67
-39.96
-39.19
-34.79
-26.92
-16.37
-4.37
7.82
19.11
28.73
36.18
41.1
43.27
42.63
39.47
34.43
28.58
23.05
18.87
16.47
15.64
15.57
15.08
13.15
9.24
3.63
-2.58
-7.88
-10.92
-11.28
-9.8
-8.51
-9.93
-16.09
-27.64
-43.45
-60.92
-76.71
-87.75
-92.06
-89.13
-79.83
-65.94
-49.57
-32.51
-16.0
-0.65
13.23
25.34
35.21
42.17
45.6
45.19
41.07
33.86
24.65
14.85
6.06
-0.13
-2.5
-0.45
5.79
15.33
26.79
38.73
49.84
59.0
65.29
68.11
67.38
63.72
58.61
54.01
51.86
53.42
58.91
67.51
77.83
88.39
98.13
106.51
113.31
118.34
121.25
121.55
118.88
113.25
105.24
95.84
86.21
77.32
69.71
63.45
58.27
53.81
49.72
45.76
41.69
37.3
32.32
26.55
19.93
12.54
4.65
-3.3
-10.77
-17.12
-21.69
-23.86
-23.14
-19.36
-12.74
-3.98
5.88
15.62
24.09
30.5
34.47
36.1
35.73
33.87
31.02
27.69
24.38
21.57
19.67
18.82
18.89
19.51
20.18
20.52
20.32
19.54
18.19
16.09
12.88
7.97
0.82
-8.84
-20.8
-34.16
-47.55
-59.26
-67.77
-72.08
-72.05
-68.42
-62.55
-55.98
-50.06
-45.61
-42.91
-41.83
-42.06
-43.24
-45.06
-47.24
-49.43
-51.29
-52.53
-53.01
-52.79
-52.12
-51.31
-50.61
-50.05
-49.48
-48.68
-47.51
-46.03
-44.64
-43.94
-44.58
-46.97
-50.99
-55.83
-60.13
-62.27
-60.93
-55.47
-46.22
-34.3
-21.23
-8.48
2.87
12.16
19.06
23.36
24.93
23.87
20.54
15.63
10.0
4.39
-0.76
-5.42
-9.79
-14.15
-18.6
-23.01
-27.03
-30.3
-32.63
-34.21
-35.65
-37.82
-41.62
-47.6
-55.64
-64.86
-73.77
-80.64
-83.97
-82.95
-77.64
-68.93
-58.23
-47.06
-36.73
-28.16
-21.88
-18.07
-16.64
-17.23
-19.24
-21.9
-24.45
-26.35
-27.44
-27.96
-28.41
-29.25
-30.75
-32.82
-35.2
-37.45
-39.29
-40.6
-41.57
-42.6
-44.25
-46.96
-50.79
-55.22
-59.18
-61.28
-60.2
-55.28
-46.64
-35.27
-22.66
-10.33
0.52
9.16
15.3
18.95
20.3
19.72
17.75
14.97
12.02
9.35
7.25
5.75
4.78
4.18
3.79
3.42
2.87
1.94
0.44
-1.78
-4.86
-9.0
-14.37
-20.95
-28.36
-35.67
-41.54
-44.56
-43.64
-38.38
-29.18
-17.08
-3.48
10.27
23.02
33.9
42.3
47.91
50.72
51.07
49.63
47.2
44.54
42.13
40.17
38.61
37.33
36.27
35.54
35.4
36.08
37.69
40.03
42.62
44.79
45.77
44.96
42.17
37.82
32.9
28.85
27.04
28.37
32.95
40.1
48.64
57.32
65.2
71.68
76.42
79.08
79.18
76.13
69.43
58.89
44.81
28.18
10.58
-5.89
-18.99
-26.87
-28.53
-24.18
-15.11
-3.27
9.36
21.18
31.25
39.02
44.14
46.23
44.96
40.32
32.79
23.56
14.29
6.86
2.82
3.09
7.69
15.75
25.86
36.42
46.09
53.99
59.65
62.91
63.72
62.07
58.07
52.11
44.88
37.31
30.31
24.43
19.75
15.88
12.3
8.56
4.56
0.54
-3.13
-6.2
-8.74
-11.18
-14.18
-18.35
-23.97
-30.75
-37.76
-43.59
-46.68
-45.9
-40.88
-32.22
-21.31
-9.88
0.5
8.81
14.58
17.8
18.65
17.34
14.16
9.54
4.13
-1.27
-5.98
-9.62
-12.24
-14.24
-16.09
-18.12
-20.33
-22.52
-24.38
-25.83
-27.07
-28.61
-31.15
-35.22
-40.93
-47.71
-54.28
-58.93
-59.95
-56.33
-48.05
-36.19
-22.58
-9.18
2.44
11.35
17.24
20.15
20.29
17.92
13.53
7.81
1.7
-3.89
-8.37
-11.6
-13.88
-15.73
-17.56
-19.48
-21.29
-22.68
-23.49
-23.87
-24.31
-25.51
-28.13
-32.54
-38.6
-45.6
-52.26
-57.03
-58.4
-55.38
-47.81
-36.5
-22.95
-9.01
3.66
13.92
21.29
25.76
27.65
27.33
25.19
21.71
17.43
13.05
9.18
6.2
4.15
2.69
1.42
0.03
-1.48
-2.87
-3.88
-4.45
-4.91
-5.87
-7.99
-11.77
-17.36
-24.55
-32.7
-40.81
-47.58
-51.55
-51.53
-46.91
-37.99
-25.92
-12.47
0.59
11.89
20.76
27.09
31.05
32.83
32.52
30.19
26.13
21.01
15.76
11.34
8.4
6.99
6.64
6.54
6.01
4.7
2.76
0.56
-1.42
-2.97
-4.2
-5.43
-7.16
-9.85
-13.81
-19.17
-25.65
-32.53
-38.64
-42.55
-42.97
-39.15
-31.23
-20.17
-7.48
5.23
16.65
25.92
32.62
36.61
37.83
36.41
32.67
27.22
21.0
14.96
9.95
6.35
4.08
2.67
1.56
0.37
-1.05
-2.49
-3.73
-4.68
-5.49
-6.58
-8.35
-11.13
-15.0
-19.89
-25.52
-31.46
-37.04
-41.27
-43.07
-41.43
-35.87
-26.67
-14.88
-1.94
10.61
21.58
30.27
36.3
39.6
40.17
38.19
34.05
28.42
22.2
16.31
11.51
8.14
6.14
5.07
4.35
3.47
2.16
0.42
-1.47
-3.21
-4.67
-6.02
-7.79
-10.64
-15.14
-21.36
-28.81
-36.28
-42.2
-45.02
-43.64
-37.82
-28.2
-16.08
-3.06
9.43
20.33
29.03
35.14
38.43
38.73
36.06
30.85
23.92
16.43
9.54
4.07
0.28
-2.16
-3.88
-5.51
-7.42
-9.58
-11.72
-13.52
-14.85
-15.9
-17.08
-18.87
-21.73
-25.89
-31.41
-37.98
-44.89
-51.01
-54.92
-55.22
-51.0
-42.17
-29.57
-14.82
0.22
13.86
24.99
33.08
38.09
40.21
39.69
36.8
31.94
25.79
19.25
13.26
8.6
5.56
3.9
2.98
2.08
0.65
-1.39
-3.8
-6.14
-8.12
-9.69
-11.15
-12.95
-15.59
-19.51
-24.93
-31.74
-39.34
-46.55
-51.83
-53.59
-50.73
-43.05
-31.36
-17.23
-2.47
11.34
23.2
32.55
39.19
42.99
43.88
41.89
37.4
31.13
24.04
17.12
11.14
6.51
3.18
0.81
-1.07
-2.86
-4.84
-7.04
-9.34
-11.58
-13.6
-15.44
-17.28
-19.45
-22.33
-26.29
-31.57
-38.04
-45.18
-51.9
-56.75
-58.22
-55.16
-47.3
-35.32
-20.74
-5.44
8.84
20.95
30.31
36.85
40.71
42.05
41.05
37.94
33.14
27.28
21.11
15.33
10.43
6.48
3.3
0.52
-2.2
-4.91
-7.53
-9.78
-11.44
-12.52
-13.26
-14.12
-15.65
-18.39
-22.75
-28.84
-36.42
-44.68
-52.32
-57.67
-59.12
-55.6
-46.92
-33.9
-18.1
-1.36
14.59
28.48
39.47
47.13
51.28
51.97
49.53
44.58
38.07
31.08
24.63
19.44
15.83
13.66
12.41
11.48
10.33
8.67
6.52
4.03
1.47
-1.04
-3.63
-6.61
-10.48
-15.74
-22.59
-30.77
-39.38
-47.03
-52.01
-52.8
-48.53
-39.19
-25.71
-9.75
6.84
22.4
35.68
45.99
53.0
56.62
56.82
53.77
47.87
40.0
31.35
23.25
16.79
12.43
9.96
8.59
7.4
5.65
3.13
0.04
-3.18
-6.16
-8.84
-11.47
-14.6
-18.9
-24.93
-32.98
-42.86
-53.68
-63.89
-71.46
-74.41
-71.32
-61.87
-46.93
-28.38
-8.5
10.52
27.06
40.14
49.38
54.78
56.52
55.05
50.94
44.98
38.03
30.99
24.53
19.05
14.66
11.2
8.4
5.99
3.8
1.74
-0.21
-2.06
-3.87
-5.79
-8.14
-11.37
-16.09
-22.84
-31.8
-42.49
-53.55
-62.92
-68.29
-67.82
-60.68
-47.43
-29.72
-9.86
9.86
27.65
42.36
53.43
60.7
64.24
64.25
61.23
55.92
49.27
42.32
35.96
30.79
26.95
24.19
22.0
19.86
17.45
14.67
11.73
8.84
6.12
3.4
0.3
-3.64
-8.86
-15.6
-23.91
-33.57
-43.96
-54.0
-62.15
-66.58
-65.69
-58.67
-45.8
-28.56
-9.1
10.23
27.57
41.69
52.08
58.61
61.37
60.61
56.74
50.48
42.88
35.2
28.6
23.86
21.11
19.84
19.14
18.09
16.16
13.33
10.04
6.83
3.98
1.31
-1.8
-6.14
-12.38
-20.72
-30.68
-41.01
-49.86
-55.18
-55.17
-48.93
-36.74
-20.03
-0.96
18.23
35.63
50.0
60.63
67.18
69.54
67.83
62.65
55.04
46.4
38.11
31.19
26.06
22.47
19.81
17.42
14.89
12.19
9.54
7.28
5.54
4.11
2.37
-0.57
-5.58
-13.24
-23.53
-35.62
-47.88
-58.11
-64.0
-63.81
-56.85
-43.85
-26.72
-8.09
9.57
24.45
35.72
43.41
47.92
49.68
48.91
45.73
40.42
33.63
26.41
19.92
15.1
12.29
11.11
10.66
9.94
8.23
5.47
2.11
-1.11
-3.69
-5.61
-7.49
-10.27
-14.9
-21.96
-31.41
-42.58
-54.1
-64.07
-70.24
-70.52
-63.67
-49.76
-30.42
-8.4
13.25
32.06
46.72
57.01
63.35
66.26
66.06
62.92
57.2
49.69
41.57
34.11
28.24
24.32
22.05
20.75
19.58
17.96
15.7
13.0
10.22
7.62
5.25
2.84
-0.07
-3.93
-9.13
-15.9
-24.28
-33.97
-44.11
-53.16
-59.12
-59.95
-54.39
-42.42
-25.5
-6.1
13.11
29.96
43.26
52.7
58.48
60.96
60.39
56.99
51.13
43.62
35.57
28.28
22.76
19.44
18.05
17.76
17.58
16.78
15.11
12.78
10.21
7.72
5.34
2.83
-0.15
-3.91
-8.63
-14.42
-21.4
-29.6
-38.69
-47.69
-54.94
-58.31
-55.98
-47.07
-32.23
-13.47
6.43
24.85
40.03
51.38
59.15
63.95
66.21
66.03
63.44
58.56
52.02
44.81
38.07
32.66
28.82
26.16
23.89
21.2
17.65
13.31
8.66
4.2
0.2
-3.5
-7.4
-12.12
-18.17
-25.86
-35.21
-45.92
-57.23
-67.84
-75.94
-79.55
-77.02
-67.71
-52.33
-32.82
-11.83
8.03
24.86
37.66
46.27
51.03
52.45
51.11
47.58
42.54
36.76
31.05
26.13
22.5
20.38
19.63
19.81
20.24
20.21
19.15
16.86
13.52
9.59
5.53
1.54
-2.48
-6.96
-12.35
-19.03
-27.19
-36.76
-47.31
-57.84
-66.82
-72.24
-72.27
-65.76
-52.91
-35.25
-15.27
4.3
21.3
34.44
43.39
48.32
49.58
47.41
41.95
33.45
22.43
9.81
-3.14
-14.99
-24.45
-30.63
-33.27
-32.71
-29.73
-25.32
-20.43
-15.75
-11.74
-8.62
-6.42
-5.05
-4.35
-4.16
-4.37
-5.04
-6.49
-9.25
-13.86
-20.46
-28.41
-36.13
-41.35
-41.82
-36.1
-24.16
-7.49
11.34
29.55
44.96
56.33
63.47
66.8
67.01
64.75
60.58
55.08
48.84
42.53
36.72
31.92
28.37
26.04
24.75
24.21
24.11
24.16
24.1
23.63
22.43
20.21
16.82
12.39
7.21
1.72
-3.74
-9.13
-14.75
-21.14
-28.79
-37.75
-47.27
-55.83
-61.4
-62.15
-56.98
-46.09
-30.89
-13.58
3.52
18.66
30.83
39.76
45.55
48.39
48.46
45.94
41.32
35.36
29.15
23.72
19.83
17.74
17.17
17.44
17.82
17.71
16.84
15.21
12.96
10.2
6.94
3.09
-1.45
-6.68
-12.52
-18.91
-25.83
-33.28
-41.04
-48.47
-54.39
-57.28
-55.79
-49.32
-38.36
-24.47
-9.78
3.72
14.68
22.61
27.65
30.24
30.79
29.56
26.84
23.06
18.88
15.09
12.28
10.73
10.28
10.45
10.62
10.24
8.94
6.52
3.03
-1.32
-6.15
-11.05
-15.63
-19.7
-23.3
-26.72
-30.5
-35.21
-41.33
-48.85
-57.14
-64.81
-69.98
-70.79
-66.08
-55.89
-41.51
-25.09
-8.92
5.18
16.35
24.53
30.14
33.67
35.36
35.19
33.08
29.23
24.26
19.3
15.74
14.71
16.7
21.22
27.0
32.41
36.1
37.46
36.65
34.32
31.19
27.64
23.7
19.16
13.77
7.45
0.19
-8.01
-17.09
-26.75
-36.15
-43.99
-48.59
-48.49
-43.04
-32.69
-18.99
-4.17
9.53
20.4
27.55
30.97
31.21
29.0
25.04
19.82
13.69
6.98
0.17
-6.11
-11.18
-14.59
-16.24
-16.47
-15.9
-15.16
-14.73
-14.77
-15.27
-16.09
-17.16
-18.49
-20.14
-22.23
-24.89
-28.32
-32.72
-38.16
-44.46
-50.93
-56.44
-59.55
-58.94
-53.84
-44.35
-31.47
-16.8
-2.15
10.96
21.54
29.14
33.75
35.56
34.85
31.96
27.42
21.88
16.16
11.06
7.16
4.7
3.52
3.17
3.12
2.98
2.52
1.78
0.89
-0.07
-1.13
-2.48
-4.42
-7.3
-11.39
-16.86
-23.59
-31.05
-38.24
-43.77
-46.14
-44.2
-37.62
-27.03
-13.83
0.24
13.59
25.14
34.35
41.02
45.02
46.18
44.42
39.89
33.21
25.43
17.79
11.4
6.91
4.35
3.2
2.68
2.1
1.07
-0.41
-2.12
-3.83
-5.52
-7.43
-9.91
-13.37
-18.07
-24.14
-31.5
-39.82
-48.4
-56.1
-61.47
-63.03
-59.82
-51.75
-39.79
-25.66
-11.33
1.54
11.97
19.68
24.84
27.71
28.46
27.18
24.13
19.75
14.83
10.24
6.66
4.4
3.29
2.85
2.49
1.77
0.5
-1.26
-3.29
-5.42
-7.6
-9.96
-12.79
-16.43
-21.22
-27.42
-35.0
-43.55
-52.12
-59.29
-63.39
-63.0
-57.43
-47.03
-33.13
-17.63
-2.46
10.96
21.88
30.07
35.61
38.52
38.86
36.71
32.46
26.85
20.86
15.46
11.32
8.64
7.15
6.28
5.42
4.14
2.38
0.28
-1.81
-3.69
-5.33
-6.98
-9.07
-12.12
-16.52
-22.52
-30.03
-38.57
-47.22
-54.61
-59.23
-59.71
-55.3
-46.13
-33.17
-18.07
-2.59
11.76
23.96
33.45
39.95
43.35
43.6
40.94
36.02
29.93
24.01
19.42
16.81
15.99
16.18
16.39
15.9
14.6
12.98
11.78
11.57
12.41
13.77
14.76
14.49
12.36
8.34
3.1
-2.01
-5.05
-3.95
2.86
15.82
33.85
54.61
75.16
92.95
106.51
115.63
121.04
123.78
124.63
124.05
122.33
119.96
117.67
116.37
116.75
119.01
122.77
127.16
131.15
133.88
134.88
134.17
132.12
129.14
125.43
120.69
114.18
104.93
92.19
75.74
56.2
34.94
13.71
-5.79
-22.38
-35.72
-46.13
-54.44
-61.57
-68.15
-74.38
-80.14
-85.11
-89.11
-92.16
-94.46
-96.21
-97.4
-97.69
-96.46
-93.05
-87.19
-79.53
-71.63
-65.72
-64.04
-68.14
-78.43
-94.23
-114.02
-135.97
-158.27
-179.23
-197.32
-211.27
-220.34
-224.52
-224.61
-221.81
-217.13
-210.87
-202.52
-191.08
-175.73
-156.39
-133.83
-109.56
-85.3
-62.55
-42.25
-24.86
-10.47
0.93
9.41
15.12
18.32
19.56
19.48
18.78
18.01
17.41
16.91
16.32
15.38
14.03
12.36
10.56
8.82
7.21
5.63
3.89
1.78
-0.84
-4.1
-8.15
-13.08
-18.9
-25.17
-30.96
-34.92
-35.54
-31.74
-23.27
-10.88
3.98
19.54
34.28
47.22
57.83
65.88
71.19
73.63
73.23
70.43
66.12
61.51
57.75
55.51
54.72
54.72
54.5
53.19
50.37
46.14
40.91
35.13
29.14
23.13
17.19
11.42
5.86
0.52
-4.8
-10.2
-15.54
-20.29
-23.55
-24.41
-22.28
-17.15
-9.55
-0.38
9.4
18.89
27.31
34.01
38.56
40.81
41.02
39.79
37.87
35.98
34.63
34.15
34.64
36.09
38.31
40.98
43.62
45.7
46.73
46.34
44.27
40.43
34.83
27.63
19.03
9.29
-1.43
-12.97
-25.04
-37.03
-47.88
-56.17
-60.5
-60.02
-54.75
-45.67
-34.37
-22.59
-11.63
-2.21
5.49
11.54
15.95
18.63
19.46
18.51
16.23
13.37
10.84
9.37
9.31
10.44
12.17
13.73
14.5
14.25
13.23
11.94
10.8
9.97
9.14
7.8
5.51
2.07
-2.41
-7.63
-13.3
-19.03
-24.18
-27.73
-28.39
-25.08
-17.51
-6.48
6.18
18.4
28.55
35.96
40.86
43.87
45.4
45.43
43.62
39.76
34.08
27.4
20.89
15.88
13.38
13.85
16.91
21.42
25.66
27.99
27.48
24.34
19.83
15.65
13.04
12.18
12.17
11.57
9.2
4.67
-1.49
-8.1
-13.94
-17.91
-19.29
-17.65
-12.8
-4.84
5.85
18.45
31.84
44.66
55.59
63.56
68.01
68.91
66.78
62.49
57.01
51.31
46.13
41.96
38.99
37.11
35.93
34.9
33.45
31.11
27.69
23.21
17.92
12.15
6.22
0.35
-5.47
-11.41
-17.84
-25.03
-32.98
-41.16
-48.55
-53.85
-55.9
-54.12
-48.67
-40.41
-30.6
-20.52
-11.2
-3.26
2.92
7.15
9.26
9.18
6.93
2.91
-2.14
-7.19
-11.18
-13.37
-13.55
-12.08
-9.68
-7.12
-4.9
-3.18
-1.95
-1.14
-0.91
-1.48
-3.17
-6.12
-10.38
-15.83
-22.19
-29.01
-35.49
-40.5
-42.78
-41.31
-35.65
-26.29
-14.43
-1.73
10.25
20.41
28.23
33.62
36.71
37.65
36.64
33.94
30.07
25.7
21.63
18.48
16.59
15.94
16.21
16.91
17.52
17.65
17.09
15.83
14.0
11.75
9.18
6.27
2.91
-1.11
-5.97
-11.8
-18.57
-25.95
-33.14
-38.92
-41.9
-40.94
-35.57
-26.25
-14.27
-1.31
11.01
21.52
29.62
35.11
38.01
38.45
36.65
33.04
28.24
23.05
18.27
14.48
11.89
10.35
9.39
8.49
7.22
5.38
3.03
0.34
-2.48
-5.35
-8.31
-11.52
-15.14
-19.32
-24.15
-29.68
-35.83
-42.29
-48.48
-53.41
-55.91
-54.85
-49.56
-40.17
-27.62
-13.54
0.25
12.22
21.48
27.83
31.52
33.05
32.81
31.18
28.45
25.03
21.46
18.28
15.96
14.67
14.27
14.35
14.4
13.96
12.85
11.19
9.29
7.47
5.88
4.43
2.8
0.67
-2.22
-5.92
-10.33
-15.22
-20.1
-24.26
-26.7
-26.36
-22.34
-14.34
-2.73
11.41
26.66
41.59
55.05
66.32
75.05
81.24
85.2
87.45
88.71
89.61
90.54
91.43
91.83
90.98
88.16
82.86
75.02
64.96
53.33
40.92
28.49
16.69
6.0
-3.27
-10.89
-16.64
-20.29
-21.64
-20.66
-17.6
-12.99
-7.44
-1.48
4.65
10.87
17.1
23.04
28.21
32.05
34.17
34.48
33.1
30.17
25.8
20.08
13.34
6.24
-0.34
-5.61
-9.33
-11.89
-14.28
-17.64
-22.91
-30.53
-40.44
-52.2
-65.16
-78.65
-92.06
-104.98
-117.21
-128.65
-139.19
-148.47
-155.75
-160.01
-160.25
-155.96
-147.33
-135.32
-121.43
-107.29
-94.47
-84.14
-77.13
-73.7
-73.56
-75.77
-78.83
-81.05
-80.99
-78.0
-72.35
-65.02
-57.3
-50.19
-44.2
-39.27
-35.1
-31.46
-28.25
-25.51
-23.3
-21.48
-19.77
-17.8
-15.38
-12.57
-9.79
-7.66
-6.86
-7.86
-10.7
-14.87
-19.34
-22.73
-23.72
-21.47
-15.94
-7.89
1.41
10.6
18.73
25.31
30.32
33.9
36.13
36.9
36.06
33.69
30.16
26.21
22.65
20.1
18.72
18.22
18.01
17.52
16.48
14.95
13.3
11.87
10.84
10.08
9.23
7.87
5.71
2.64
-1.29
-5.83
-10.59
-15.0
-18.29
-19.65
-18.38
-14.2
-7.38
1.26
10.6
19.44
26.85
32.3
35.6
36.81
36.08
33.65
29.89
25.33
20.68
16.71
13.99
12.73
12.75
13.46
14.2
14.42
13.94
12.91
11.69
10.62
9.82
9.11
8.02
6.03
2.71
-2.03
-7.79
-13.69
-18.52
-21.06
-20.47
-16.52
-9.72
-1.1
8.09
16.69
23.85
29.17
32.46
33.76
33.22
31.07
27.71
23.68
19.63
16.13
13.56
11.95
10.98
10.03
8.52
5.97
2.27
-2.34
-7.4
-12.4
-17.05
-21.27
-25.29
-29.4
-33.78
-38.28
-42.26
-44.68
-44.29
-40.15
-31.85
-19.9
-5.44
9.88
24.46
37.05
46.94
53.91
58.03
59.53
58.71
55.93
51.7
46.73
41.82
37.72
34.91
33.4
32.81
32.49
31.85
30.57
28.72
26.6
24.57
22.77
21.15
19.44
17.24
14.16
9.86
4.22
-2.5
-9.56
-15.72
-19.52
-19.73
-15.75
-7.93
2.57
14.09
25.06
34.29
41.25
45.91
48.49
49.26
48.39
46.04
42.38
37.83
33.03
28.71
25.44
23.42
22.4
21.74
20.68
18.71
15.73
12.03
8.04
4.05
0.06
-4.17
-8.87
-14.07
-19.57
-25.09
-30.47
-35.75
-40.93
-45.74
-49.4
-50.78
-48.74
-42.77
-33.25
-21.42
-9.06
2.2
11.22
17.58
21.44
23.26
23.54
22.66
20.93
18.6
15.95
13.32
11.01
9.31
8.33
8.06
8.32
8.78
9.01
8.57
7.18
4.81
1.77
-1.45
-4.3
-6.51
-8.11
-9.45
-10.99
-13.14
-16.11
-19.86
-24.19
-28.6
-32.39
-34.64
-34.39
-31.0
-24.41
-15.29
-4.87
5.37
14.2
20.82
24.96
26.77
26.62
24.94
22.19
18.75
14.94
11.05
7.38
4.21
1.75
0.1
-0.87
-1.45
-1.99
-2.73
-3.62
-4.36
-4.56
-4.01
-2.87
-1.71
-1.27
-2.16
-4.61
-8.37
-12.73
-16.72
-19.23
-19.2
-15.82
-8.75
1.57
13.89
26.32
36.92
44.21
47.57
47.24
43.94
38.4
31.09
22.29
12.37
2.03
-7.72
-15.82
-21.61
-24.99
-26.47
-26.73
-26.4
-25.81
-24.96
-23.8
-22.33
-20.76
-19.42
-18.56
-18.27
-18.37
-18.53
-18.48
-18.1
-17.55
-17.17
-17.38
-18.56
-20.94
-24.53
-29.07
-33.92
-38.15
-40.64
-40.39
-36.76
-29.75
-20.08
-8.95
2.21
12.19
20.08
25.46
28.21
28.47
26.55
22.86
17.94
12.44
6.96
2.05
-1.96
-4.93
-6.87
-7.93
-8.33
-8.28
-8.06
-7.92
-8.11
-8.76
-9.94
-11.55
-13.42
-15.35
-17.22
-19.05
-20.97
-23.08
-25.48
-28.17
-31.1
-34.21
-37.48
-40.73
-43.63
-45.57
-45.78
-43.63
-38.92
-32.06
-24.01
-15.99
-9.17
-4.38
-2.01
-1.89
-3.39
-5.41
-6.61
-5.72
-2.01
4.44
12.63
20.95
27.66
31.45
31.8
29.01
23.95
17.72
11.27
5.24
-0.09
-4.71
-8.78
-12.42
-15.73
-18.76
-21.48
-23.84
-25.81
-27.4
-28.58
-29.36
-29.61
-29.06
-27.39
-24.29
-19.69
-13.75
-6.87
0.52
8.06
15.49
22.55
28.83
33.81
36.89
37.7
36.2
32.74
27.89
22.37
16.86
11.93
8.12
5.72
4.82
5.13
6.15
7.29
8.07
8.33
8.16
7.83
7.65
7.82
8.37
9.17
9.99
10.58
10.76
10.58
10.32
10.47
11.71
14.68
19.92
27.57
37.34
48.38
59.38
68.86
75.49
78.48
77.74
73.76
67.28
58.88
48.85
37.3
24.46
10.87
-2.58
-14.93
-25.52
-34.09
-40.86
-46.17
-50.34
-53.51
-55.75
-57.12
-57.79
-57.99
-57.94
-57.8
-57.69
-57.75
-58.19
-59.34
-61.53
-64.96
-69.61
-75.02
-80.4
-84.68
-86.95
-86.67
-83.9
-79.2
-73.28
-66.71
-59.66
-51.95
-43.39
-34.02
-24.31
-14.97
-6.69
0.24
5.93
10.85
15.43
19.88
24.05
27.64
30.53
32.91
35.28
38.17
41.85
46.13
50.37
53.7
55.3
54.58
51.25
45.3
36.75
25.72
12.47
-2.42
-17.87
-32.41
-44.25
-51.7
-53.4
-48.66
-37.64
-21.49
-2.33
17.06
33.78
45.53
51.25
51.28
47.14
41.03
35.21
31.51
31.08
34.21
40.3
47.99
55.46
61.02
63.66
63.39
61.05
57.93
55.14
53.37
52.88
53.76
56.08
59.88
64.89
70.34
74.96
77.39
76.58
72.18
64.7
55.28
45.3
35.85
27.39
19.69
11.99
3.45
-6.44
-17.52
-28.94
-39.32
-47.13
-51.07
-50.32
-44.74
-34.85
-21.73
-6.91
7.82
20.66
30.04
34.97
35.21
31.28
24.28
15.56
6.37
-2.33
-9.93
-16.07
-20.66
-23.85
-26.1
-28.08
-30.44
-33.53
-37.2
-40.94
-44.09
-46.24
-47.42
-48.01
-48.48
-49.19
-50.28
-51.67
-53.22
-54.71
-55.74
-55.66
-53.66
-48.96
-41.24
-30.85
-18.81
-6.51
4.78
14.16
21.21
25.9
28.34
28.72
27.25
24.35
20.63
16.84
13.67
11.49
10.34
9.88
9.66
9.32
8.63
7.58
6.27
4.85
3.35
1.72
-0.27
-2.95
-6.62
-11.39
-17.01
-22.8
-27.72
-30.68
-30.79
-27.73
-21.75
-13.61
-4.32
5.16
14.07
21.88
28.2
32.72
35.2
35.53
33.89
30.75
26.82
22.85
19.36
16.56
14.36
12.44
10.47
8.26
5.85
3.44
1.31
-0.33
-1.45
-2.24
-3.07
-4.36
-6.45
-9.5
-13.36
-17.65
-21.67
-24.55
-25.32
-23.19
-17.76
-9.23
1.56
13.34
24.67
34.36
41.7
46.47
48.83
49.14
47.79
45.12
41.46
37.16
32.6
28.24
24.43
21.45
19.3
17.82
16.68
15.56
14.27
12.82
11.36
10.05
8.94
7.81
6.26
3.81
0.13
-4.74
-10.36
-15.88
-20.27
-22.52
-21.99
-18.5
-12.43
-4.52
4.26
12.97
20.81
27.2
31.77
34.36
34.96
33.8
31.26
27.88
24.25
20.94
18.3
16.52
15.57
15.27
15.37
15.58
15.58
15.12
14.05
12.37
10.25
7.91
5.6
3.39
1.19
-1.26
-4.3
-8.16
-12.89
-18.19
-23.42
-27.68
-29.99
-29.63
-26.32
-20.42
-12.86
-4.87
2.37
8.14
12.25
15.03
17.05
18.83
20.62
22.39
23.93
24.94
25.21
24.53
22.77
19.82
15.74
10.82
5.61
0.78
-3.07
-5.61
-6.86
-7.1
-6.67
-5.86
-4.84
-3.8
-3.07
-3.22
-4.86
-8.52
-14.33
-21.92
-30.46
-38.8
-45.72
-50.14
-51.3
-48.84
-42.85
-33.92
-23.09
-11.7
-1.17
7.27
12.84
15.37
15.24
13.17
10.05
6.67
3.6
1.2
-0.36
-1.07
-1.03
-0.42
0.54
1.57
2.47
3.01
3.09
2.66
1.77
0.55
-0.83
-2.2
-3.52
-4.84
-6.36
-8.31
-10.88
-14.12
-17.82
-21.55
-24.63
-26.31
-25.95
-23.28
-18.45
-12.08
-5.01
1.91
8.03
12.98
16.56
18.72
19.42
18.8
17.09
14.72
12.2
10.01
8.47
7.66
7.48
7.66
7.93
8.02
7.79
7.18
6.24
5.04
3.64
2.02
0.15
-1.98
-4.37
-6.96
-9.75
-12.77
-16.02
-19.32
-22.23
-24.06
-24.07
-21.79
-17.25
-11.07
-4.24
2.25
7.67
11.75
14.6
16.5
17.67
18.16
17.87
16.73
14.83
12.49
10.17
8.31
7.11
6.45
6.01
5.43
4.48
3.2
1.78
0.41
-0.84
-2.07
-3.48
-5.22
-7.26
-9.47
-11.69
-13.86
-16.01
-18.2
-20.38
-22.18
-23.0
-22.17
-19.24
-14.2
-7.58
-0.33
6.61
12.46
16.9
19.94
21.81
22.72
22.8
22.1
20.7
18.84
16.88
15.2
14.06
13.51
13.33
13.19
12.81
12.05
11.0
9.89
9.02
8.56
8.51
8.67
8.7
8.19
6.8
4.35
0.88
-3.33
-7.8
-11.94
-15.14
-16.94
-17.05
-15.4
-12.16
-7.63
-2.29
3.35
8.77
13.54
17.29
19.82
21.04
20.94
19.57
17.05
13.57
9.44
5.04
0.8
-2.86
-5.72
-7.72
-8.93
-9.49
-9.58
-9.38
-9.13
-9.13
-9.68
-11.0
-13.15
-15.96
-19.22
-22.71
-26.37
-30.17
-33.96
-37.32
-39.53
-39.83
-37.68
-33.07
-26.58
-19.12
-11.68
-4.99
0.52
4.69
7.47
8.89
9.01
8.08
6.48
4.7
3.18
2.24
2.0
2.37
3.17
4.13
4.98
5.48
5.48
4.93
3.86
2.34
0.42
-1.86
-4.46
-7.29
-10.27
-13.35
-16.59
-20.06
-23.8
-27.56
-30.8
-32.77
-32.77
-30.45
-25.96
-19.89
-13.05
-6.23
-0.05
5.08
8.9
11.28
12.22
11.82
10.34
8.14
5.64
3.31
1.53
0.57
0.43
0.88
1.47
1.76
1.47
0.6
-0.63
-1.91
-3.08
-4.18
-5.42
-7.11
-9.47
-12.56
-16.25
-20.29
-24.34
-27.94
-30.61
-31.9
-31.45
-29.09
-24.95
-19.39
-12.99
-6.45
-0.42
4.6
8.31
10.66
11.77
11.84
11.07
9.73
8.08
6.5
5.37
5.01
5.48
6.55
7.73
8.47
8.42
7.52
6.04
4.36
2.8
1.43
0.11
-1.45
-3.52
-6.27
-9.63
-13.25
-16.61
-19.01
-19.76
-18.41
-14.86
-9.52
-3.16
3.3
9.05
13.57
16.62
18.22
18.46
17.52
15.6
13.02
10.21
7.63
5.7
4.6
4.26
4.35
4.43
4.16
3.37
2.16
0.78
-0.46
-1.37
-1.94
-2.39
-3.05
-4.3
-6.32
-9.05
-12.16
-15.01
-16.86
-17.09
-15.35
-11.67
-6.47
-0.38
5.96
11.97
17.22
21.35
24.14
25.42
25.18
23.62
21.09
18.03
14.88
11.97
9.49
7.5
5.99
4.87
4.01
3.25
2.42
1.35
-0.05
-1.78
-3.74
-5.78
-7.8
-9.8
-11.98
-14.53
-17.56
-20.85
-23.82
-25.66
-25.65
-23.38
-18.94
-12.92
-6.1
0.73
6.91
12.04
15.86
18.24
19.15
18.76
17.33
15.28
13.05
11.03
9.49
8.54
8.19
8.31
8.69
9.09
9.31
9.2
8.74
7.97
6.97
5.78
4.31
2.42
-0.05
-3.11
-6.49
-9.65
-11.87
-12.54
-11.27
-8.13
-3.56
1.76
7.1
11.87
15.67
18.29
19.66
19.78
18.71
16.61
13.81
10.71
7.8
5.47
3.9
2.99
2.47
1.97
1.25
0.23
-0.99
-2.28
-3.61
-5.04
-6.71
-8.72
-11.1
-13.75
-16.53
-19.22
-21.47
-22.86
-22.85
-21.06
-17.36
-12.06
-5.78
0.66
6.48
11.12
14.28
15.89
16.05
14.95
12.86
10.13
7.16
4.37
2.16
0.77
0.24
0.37
0.76
0.93
0.54
-0.49
-2.02
-3.75
-5.41
-6.94
-8.47
-10.26
-12.56
-15.45
-18.71
-21.87
-24.31
-25.43
-24.83
-22.44
-18.51
-13.54
-8.09
-2.62
2.54
7.22
11.3
14.62
16.98
18.19
18.2
17.15
15.44
13.54
11.95
10.91
10.43
10.2
9.82
8.95
7.49
5.59
3.53
1.56
-0.25
-2.11
-4.35
-7.29
-11.07
-15.57
-20.49
-25.36
-29.67
-32.9
-34.54
-34.25
-31.85
-27.49
-21.58
-14.8
-7.92
-1.64
3.53
7.3
9.65
10.66
10.57
9.61
8.06
6.22
4.45
3.07
2.35
2.35
2.93
3.72
4.34
4.42
3.87
2.82
1.56
0.39
-0.52
-1.16
-1.73
-2.49
-3.71
-5.53
-7.84
-10.28
-12.22
-12.95
-11.91
-8.89
-4.12
1.78
7.99
13.71
18.35
21.66
23.59
24.21
23.64
22.02
19.55
16.59
13.62
11.12
9.51
8.91
9.13
9.74
10.19
10.1
9.33
8.04
6.52
5.03
3.67
2.32
0.77
-1.17
-3.61
-6.55
-9.84
-13.31
-16.71
-19.68
-21.79
-22.55
-21.55
-18.62
-13.96
-8.1
-1.88
3.89
8.57
11.82
13.66
14.29
14.01
13.1
11.8
10.26
8.67
7.16
5.89
4.96
4.39
4.16
4.17
4.28
4.31
4.09
3.5
2.49
1.14
-0.42
-2.08
-3.75
-5.42
-7.15
-8.99
-10.97
-13.12
-15.46
-17.98
-20.56
-22.85
-24.34
-24.38
-22.48
-18.48
-12.74
-6.06
0.52
6.09
10.04
12.29
13.11
12.99
12.43
11.71
10.91
9.95
8.73
7.3
5.86
4.75
4.2
4.28
4.81
5.44
5.79
5.63
4.96
3.95
2.87
1.85
0.87
-0.21
-1.57
-3.35
-5.5
-7.93
-10.54
-13.28
-16.2
-19.26
-22.28
-24.77
-26.09
-25.6
-23.0
-18.46
-12.6
-6.31
-0.47
4.27
7.61
9.51
10.13
9.68
8.41
6.63
4.64
2.82
1.43
0.64
0.47
0.78
1.33
1.86
2.17
2.13
1.73
1.09
0.35
-0.34
-0.99
-1.69
-2.66
-4.06
-5.94
-8.16
-10.44
-12.52
-14.29
-15.92
-17.73
-20.11
-23.23
-26.91
-30.51
-33.09
-33.66
-31.43
-26.12
-17.99
-7.78
3.42
14.38
23.94
31.11
35.11
35.42
31.88
24.73
14.7
2.92
-9.1
-19.81
-27.87
-32.47
-33.5
-31.48
-27.46
-22.63
-18.17
-14.98
-13.61
-14.19
-16.49
-19.87
-23.45
-26.27
-27.59
-27.03
-24.65
-20.84
-16.05
-10.59
-4.6
1.91
8.85
15.93
22.66
28.51
33.02
35.97
37.33
37.25
35.97
33.78
31.04
28.18
25.68
23.96
23.31
23.78
25.11
26.81
28.2
28.61
27.49
24.5
19.59
12.95
5.07
-3.5
-12.1
-20.07
-26.75
-31.65
-34.37
-34.78
-33.04
-29.67
-25.6
-21.98
-19.96
-20.27
-22.96
-27.21
-31.57
-34.42
-34.45
-31.15
-24.79
-16.3
-6.79
2.79
11.82
19.94
26.85
32.2
35.55
36.54
35.09
31.54
26.64
21.34
16.59
13.08
11.08
10.45
10.79
11.52
12.19
12.53
12.54
12.35
12.1
11.78
11.21
10.07
8.02
4.78
0.2
-5.77
-13.06
-21.44
-30.45
-39.31
-46.96
-52.25
-54.25
-52.51
-47.29
-39.41
-30.08
-20.53
-11.71
-4.21
1.8
6.39
9.71
11.92
13.15
13.54
13.31
12.71
12.06
11.65
11.68
12.16
12.9
13.57
13.77
13.19
11.75
9.62
7.14
4.62
2.25
-0.09
-2.64
-5.74
-9.59
-14.19
-19.32
-24.55
-29.29
-32.83
-34.37
-33.3
-29.28
-22.49
-13.65
-3.86
5.7
13.97
20.34
24.55
26.72
27.15
26.23
24.35
21.85
19.01
16.05
13.21
10.71
8.76
7.54
6.99
6.87
6.67
5.84
3.94
0.79
-3.46
-8.43
-13.63
-18.62
-23.13
-27.08
-30.59
-33.88
-37.09
-40.13
-42.59
-43.71
-42.63
-38.68
-31.65
-21.91
-10.38
1.75
13.34
23.49
31.64
37.52
41.04
42.27
41.39
38.8
35.06
30.88
26.93
23.74
21.54
20.22
19.44
18.73
17.68
16.06
13.86
11.28
8.6
6.06
3.79
1.71
-0.48
-3.17
-6.69
-11.15
-16.24
-21.21
-25.01
-26.52
-24.93
-20.0
-12.15
-2.39
8.02
17.87
26.31
32.81
37.22
39.5
39.66
37.77
34.02
28.89
23.14
17.67
13.35
10.65
9.54
9.48
9.71
9.52
8.55
6.89
4.92
3.07
1.55
0.28
-1.14
-3.14
-6.12
-10.19
-15.14
-20.45
-25.31
-28.76
-29.91
-28.12
-23.2
-15.49
-5.85
4.64
14.84
23.82
30.95
35.94
38.76
39.55
38.6
36.24
32.88
28.97
25.02
21.45
18.6
16.58
15.27
14.41
13.59
12.46
10.81
8.65
6.1
3.42
0.74
-1.9
-4.66
-7.84
-11.79
-16.79
-22.9
-29.79
-36.73
-42.66
-46.41
-47.01
-44.0
-37.56
-28.53
-18.09
-7.47
2.25
10.34
16.39
20.25
22.04
22.05
20.7
18.48
15.83
13.06
10.43
8.12
6.35
5.25
4.85
4.96
5.25
5.39
5.18
4.64
3.93
3.22
2.52
1.69
0.49
-1.32
-3.92
-7.46
-11.93
-17.27
-23.09
-28.6
-32.76
-34.41
-32.74
-27.55
-19.44
-9.61
0.46
9.49
16.64
21.62
24.58
25.86
25.81
24.71
22.76
20.17
17.28
14.5
12.27
10.87
10.35
10.45
10.7
10.66
10.06
8.9
7.44
6.0
4.83
3.94
3.13
2.04
0.26
-2.59
-6.77
-12.29
-18.86
-25.69
-31.67
-35.45
-35.93
-32.55
-25.56
-15.97
-5.2
5.28
14.35
21.39
26.24
29.05
30.09
29.65
27.96
25.26
21.8
17.84
13.59
9.22
4.79
0.39
-3.85
-7.72
-10.89
-13.06
-14.07
-13.99
-13.18
-12.17
-11.51
-11.64
-12.79
-14.95
-17.88
-21.2
-24.28
-26.38
-26.72
-24.73
-20.16
-13.35
-5.04
3.73
11.98
18.99
24.39
28.1
30.2
30.81
30.03
28.0
24.96
21.33
17.66
14.51
12.34
11.31
11.22
11.61
11.88
11.6
10.57
8.95
7.0
5.05
3.25
1.62
0.03
-1.71
-3.78
-6.34
-9.47
-13.15
-17.12
-20.85
-23.6
-24.57
-23.11
-19.04
-12.71
-4.96
3.06
10.25
15.85
19.53
21.47
22.02
21.64
20.62
19.16
17.42
15.6
13.97
12.78
12.15
12.0
12.11
12.21
12.13
11.81
11.28
10.61
9.85
8.98
7.96
6.75
5.25
3.42
1.24
-1.31
-4.17
-7.31
-10.63
-13.97
-16.95
-19.03
-19.57
-18.03
-14.28
-8.71
-2.19
4.26
9.71
13.66
16.05
17.08
17.07
16.28
14.92
13.24
11.56
10.3
9.83
10.4
11.99
14.38
17.17
19.9
22.07
23.21
22.86
20.67
16.51
10.55
3.4
-4.06
-10.71
-15.4
-17.23
-15.78
-11.22
-4.37
3.38
10.5
15.65
18.03
17.64
15.12
11.51
7.92
5.21
3.83
3.89
5.12
7.05
9.1
10.73
11.5
11.23
10.03
8.19
6.16
4.37
3.15
2.69
2.99
3.94
5.36
7.07
8.89
10.7
12.34
13.68
14.59
14.97
14.89
14.56
14.3
14.37
14.89
15.73
16.53
16.84
16.23
14.47
11.61
7.97
4.1
0.66
-1.76
-2.82
-2.51
-1.19
0.55
2.07
2.95
3.09
2.67
2.02
1.38
0.74
-0.12
-1.49
-3.6
-6.35
-9.39
-12.23
-14.43
-15.85
-16.6
-16.97
-17.28
-17.67
-18.12
-18.46
-18.55
-18.39
-18.17
-18.22
-18.87
-20.25
-22.21
-24.45
-26.65
-28.67
-30.57
-32.5
-34.41
-35.96
-36.49
-35.31
-32.0
-26.71
-20.11
-13.17
-6.87
-1.88
1.53
3.41
4.06
3.85
3.12
2.15
1.19
0.37
-0.21
-0.59
-0.92
-1.39
-2.24
-3.6
-5.42
-7.45
-9.3
-10.64
-11.28
-11.31
-11.01
-10.77
-10.95
-11.82
-13.45
-15.84
-18.76
-21.87
-24.69
-26.68
-27.42
-26.68
-24.46
-21.02
-16.76
-12.16
-7.66
-3.71
-0.65
1.34
2.25
2.21
1.47
0.18
-1.55
-3.68
-6.06
-8.4
-10.29
-11.32
-11.29
-10.36
-8.92
-7.47
-6.4
-5.84
-5.71
-5.84
-6.1
-6.49
-7.14
-8.18
-9.78
-12.02
-14.89
-18.24
-21.68
-24.61
-26.33
-26.28
-24.16
-20.18
-14.91
-9.16
-3.7
0.89
4.33
6.57
7.67
7.77
7.03
5.69
4.09
2.64
1.77
1.79
2.82
4.64
6.81
8.78
10.13
10.61
10.3
9.44
8.33
7.25
6.28
5.39
4.4
3.03
1.06
-1.61
-4.82
-8.13
-10.84
-12.2
-11.71
-9.26
-5.22
-0.28
4.76
9.21
12.7
15.08
16.45
16.95
16.71
15.74
14.08
11.78
9.06
6.23
3.66
1.6
0.13
-0.87
-1.65
-2.36
-3.04
-3.59
-3.86
-3.86
-3.7
-3.7
-4.2
-5.51
-7.79
-11.0
-14.81
-18.64
-21.7
-23.24
-22.75
-20.16
-15.86
-10.6
-5.17
-0.22
3.87
6.96
9.03
10.05
9.97
8.75
6.56
3.73
0.78
-1.72
-3.38
-4.04
-3.88
-3.27
-2.63
-2.29
-2.33
-2.65
-3.0
-3.21
-3.22
-3.17
-3.29
-3.81
-4.92
-6.62
-8.81
-11.2
-13.39
-14.87
-15.16
-13.93
-11.08
-6.84
-1.66
3.83
9.04
13.45
16.75
18.81
19.62
19.32
18.04
15.99
13.37
10.49
7.7
5.4
3.89
3.27
3.39
3.78
3.89
3.3
1.9
-0.06
-2.12
-3.84
-4.99
-5.63
-6.09
-6.76
-7.96
-9.82
-12.23
-14.88
-17.32
-18.99
-19.38
-18.07
-14.84
-9.85
-3.65
2.96
9.02
13.8
16.91
18.39
18.61
18.05
17.12
16.04
14.87
13.63
12.37
11.27
10.54
10.32
10.57
11.06
11.42
11.36
10.64
9.29
7.49
5.49
3.53
1.74
0.12
-1.43
-3.01
-4.73
-6.67
-8.86
-11.26
-13.77
-16.12
-17.85
-18.42
-17.3
-14.21
-9.27
-2.99
3.75
10.04
15.09
18.47
20.13
20.31
19.4
17.78
15.81
13.72
11.72
9.96
8.6
7.76
7.48
7.69
8.26
8.95
9.54
9.85
9.78
9.36
8.62
7.67
6.56
5.3
3.87
2.24
0.44
-1.49
-3.46
-5.42
-7.42
-9.53
-11.81
-14.15
-16.22
-17.44
-17.25
-15.33
-11.71
-6.89
-1.61
3.37
7.51
10.53
12.44
13.36
13.45
12.86
11.74
10.29
8.76
7.46
6.65
6.51
7.09
8.26
9.71
11.01
11.76
11.72
10.86
9.41
7.73
6.15
4.84
3.79
2.77
1.48
-0.39
-3.04
-6.51
-10.68
-15.3
-20.08
-24.71
-28.92
-32.42
-34.8
-35.59
-34.29
-30.62
-24.68
-17.12
-8.9
-1.1
5.42
10.22
13.3
14.91
15.39
15.03
14.06
12.66
11.05
9.51
8.38
7.92
8.22
9.09
10.12
10.71
10.3
8.62
5.74
2.11
-1.68
-5.06
-7.7
-9.54
-10.71
-11.38
-11.73
-11.93
-12.18
-12.78
-14.05
-16.24
-19.35
-23.03
-26.61
-29.21
-30.06
-28.64
-24.98
-19.52
-13.04
-6.41
-0.35
4.62
8.3
10.67
11.84
11.98
11.3
10.05
8.49
6.94
5.58
4.6
4.07
4.0
4.32
4.9
5.57
6.12
6.37
6.22
5.68
4.81
3.72
2.48
1.14
-0.29
-1.78
-3.31
-4.93
-6.74
-8.92
-11.56
-14.56
-17.48
-19.62
-20.2
-18.67
-14.98
-9.62
-3.49
2.44
7.45
11.23
13.84
15.52
16.45
16.66
16.1
14.78
12.91
10.86
9.09
7.91
7.4
7.4
7.56
7.6
7.32
6.7
5.89
4.98
4.05
3.04
1.87
0.4
-1.36
-3.35
-5.47
-7.68
-10.05
-12.75
-15.87
-19.33
-22.7
-25.29
-26.33
-25.18
-21.66
-16.11
-9.32
-2.28
4.1
9.23
12.9
15.2
16.37
16.68
16.31
15.44
14.24
12.95
11.83
11.05
10.66
10.53
10.46
10.3
10.01
9.7
9.48
9.42
9.41
9.23
8.6
7.36
5.49
3.15
0.6
-1.98
-4.47
-6.95
-9.59
-12.65
-16.25
-20.28
-24.33
-27.74
-29.74
-29.71
-27.38
-22.93
-16.95
-10.24
-3.63
2.27
7.09
10.68
13.1
14.43
14.79
14.31
13.14
11.53
9.8
8.28
7.26
6.86
7.03
7.57
8.19
8.66
8.88
8.9
8.83
8.73
8.54
8.04
7.02
5.36
3.14
0.58
-2.03
-4.49
-6.78
-9.03
-11.52
-14.5
-18.07
-22.09
-26.08
-29.31
-31.0
-30.52
-27.6
-22.42
-15.61
-8.01
-0.52
6.16
11.55
15.45
17.89
19.0
19.0
18.11
16.63
14.86
13.2
11.94
11.28
11.18
11.42
11.68
11.7
11.45
10.98
10.45
9.94
9.38
8.62
7.53
6.07
4.27
2.17
-0.2
-2.83
-5.65
-8.53
-11.39
-14.3
-17.46
-21.11
-25.28
-29.57
-33.18
-35.1
-34.54
-31.2
-25.41
-17.95
-9.76
-1.74
5.46
11.42
15.89
18.77
20.1
20.07
18.98
17.19
15.1
13.07
11.37
10.19
9.55
9.33
9.26
9.12
8.79
8.32
7.87
7.53
7.3
6.99
6.33
5.11
3.26
0.9
-1.74
-4.41
-6.95
-9.41
-11.98
-14.97
-18.63
-22.97
-27.65
-31.93
-34.85
-35.5
-33.35
-28.46
-21.45
-13.35
-5.19
2.17
8.22
12.78
15.85
17.55
18.0
17.41
16.07
14.35
12.65
11.3
10.45
10.07
9.93
9.76
9.37
8.77
8.13
7.71
7.61
7.74
7.74
7.22
5.92
3.87
1.37
-1.15
-3.4
-5.34
-7.29
-9.77
-13.21
-17.75
-23.09
-28.49
-32.99
-35.65
-35.79
-33.16
-28.0
-20.9
-12.68
-4.19
3.83
10.82
16.41
20.42
22.84
23.76
23.39
22.06
20.14
18.03
16.03
14.35
13.05
12.1
11.4
10.91
10.56
10.27
9.94
9.4
8.51
7.19
5.41
3.24
0.77
-1.86
-4.54
-7.23
-10.01
-13.1
-16.79
-21.35
-26.71
-32.34
-37.25
-40.28
-40.4
-37.14
-30.71
-21.99
-12.16
-2.47
6.16
13.21
18.51
22.18
24.39
25.35
25.24
24.24
22.59
20.55
18.38
16.33
14.6
13.33
12.59
12.37
12.54
12.83
12.94
12.58
11.59
9.95
7.76
5.21
2.45
-0.4
-3.29
-6.22
-9.33
-12.81
-16.9
-21.75
-27.25
-32.9
-37.79
-40.8
-40.93
-37.61
-30.94
-21.71
-11.15
-0.6
8.86
16.57
22.29
26.12
28.28
29.02
28.54
27.04
24.73
21.9
18.9
16.16
14.02
12.72
12.27
12.45
12.89
13.23
13.18
12.61
11.49
9.86
7.79
5.29
2.43
-0.7
-4.0
-7.4
-10.99
-14.95
-19.49
-24.71
-30.31
-35.59
-39.48
-40.87
-38.93
-33.44
-24.86
-14.28
-3.08
7.45
16.36
23.2
27.92
30.71
31.8
31.38
29.64
26.85
23.44
19.96
16.95
14.76
13.45
12.85
12.62
12.47
12.19
11.73
11.06
10.12
8.81
7.05
4.76
2.0
-1.11
-4.41
-7.77
-11.19
-14.84
-19.01
-23.98
-29.71
-35.7
-40.97
-44.24
-44.34
-40.68
-33.45
-23.62
-12.58
-1.71
7.94
15.82
21.79
25.92
28.35
29.21
28.62
26.8
24.08
20.89
17.76
15.16
13.47
12.84
13.13
13.93
14.72
15.03
14.58
13.36
11.55
9.35
6.94
4.37
1.64
-1.28
-4.44
-7.92
-11.89
-16.54
-21.91
-27.7
-33.14
-37.07
-38.25
-35.78
-29.5
-20.08
-8.85
2.61
12.91
21.22
27.35
31.49
34.0
35.13
34.94
33.41
30.64
27.0
23.05
19.5
16.86
15.34
14.73
14.58
14.33
13.58
12.23
10.39
8.31
6.18
4.06
1.83
-0.66
-3.58
-7.09
-11.31
-16.27
-21.83
-27.45
-32.23
-35.01
-34.76
-30.99
-23.95
-14.63
-4.37
5.5
14.05
20.83
25.76
28.92
30.39
30.26
28.65
25.8
22.11
18.13
14.39
11.35
9.27
8.17
7.82
7.85
7.83
7.45
6.56
5.2
3.52
1.68
-0.28
-2.41
-4.83
-7.66
-11.01
-14.95
-19.59
-25.01
-31.07
-37.25
-42.49
-45.47
-44.94
-40.21
-31.52
-19.98
-7.25
4.95
15.28
23.09
28.32
31.25
32.32
31.9
30.28
27.73
24.54
21.11
17.86
15.16
13.24
12.08
11.53
11.33
11.23
11.03
10.56
9.73
8.46
6.72
4.54
1.97
-0.88
-3.97
-7.26
-10.87
-14.97
-19.75
-25.29
-31.29
-37.03
-41.39
-43.14
-41.3
-35.54
-26.36
-15.01
-3.14
7.7
16.42
22.62
26.42
28.3
28.74
28.11
26.62
24.46
21.9
19.31
17.06
15.42
14.39
13.76
13.24
12.61
11.84
11.05
10.36
9.72
8.86
7.43
5.15
2.02
-1.65
-5.43
-8.93
-12.03
-14.97
-18.23
-22.33
-27.53
-33.63
-39.86
-44.99
-47.72
-47.02
-42.56
-34.82
-24.99
-14.58
-4.94
3.08
9.2
13.6
16.61
18.47
19.29
19.12
18.07
16.44
14.6
12.97
11.8
11.12
10.8
10.69
10.68
10.75
10.89
11.05
11.04
10.69
9.85
8.49
6.7
4.61
2.31
-0.18
-2.89
-5.95
-9.46
-13.47
-17.86
-22.11
-25.39
-26.62
-24.87
-19.7
-11.48
-1.33
9.2
18.66
26.08
31.15
34.09
35.35
35.33
34.26
32.23
29.35
25.85
22.13
18.69
15.93
14.08
13.06
12.62
12.41
12.1
11.48
10.47
9.05
7.23
5.05
2.58
-0.04
-2.7
-5.29
-7.88
-10.69
-14.02
-18.07
-22.77
-27.57
-31.53
-33.58
-32.85
-29.02
-22.47
-14.17
-5.35
2.79
9.46
14.27
17.23
18.6
18.71
17.9
16.5
14.84
13.23
11.93
11.08
10.64
10.47
10.32
10.01
9.49
8.91
8.49
8.36
8.47
8.5
8.05
6.72
4.38
1.19
-2.46
-6.12
-9.42
-12.27
-14.83
-17.47
-20.63
-24.56
-29.14
-33.73
-37.36
-38.89
-37.48
-32.84
-25.37
-16.11
-6.36
2.66
10.03
15.33
18.55
19.98
20.05
19.26
18.06
16.85
15.88
15.25
14.91
14.75
14.7
14.93
15.86
18.09
22.1
27.93
34.85
41.38
45.63
45.85
41.07
31.44
18.27
3.56
-10.59
-22.63
-31.79
-38.2
-42.63
-46.08
-49.48
-53.39
-57.9
-62.52
-66.38
-68.44
-67.75
-63.88
-56.98
-47.84
-37.6
-27.41
-18.06
-9.81
-2.44
4.52
11.5
18.6
25.55
31.81
36.75
39.96
41.32
41.12
39.91
38.28
36.62
34.95
33.02
30.37
26.76
22.22
17.22
12.44
8.55
6.0
4.8
4.58
4.67
4.18
2.28
-1.66
-7.81
-15.66
-24.08
-31.47
-36.32
-37.67
-35.41
-30.29
-23.56
-16.4
-9.63
-3.47
2.21
7.62
12.71
17.05
20.02
21.01
19.79
16.63
12.35
8.02
4.64
2.85
2.68
3.7
5.2
6.54
7.35
7.49
7.07
6.15
4.84
3.16
1.21
-0.93
-3.21
-5.77
-8.84
-12.62
-17.03
-21.55
-25.27
-27.1
-26.27
-22.56
-16.44
-8.92
-1.17
5.78
11.35
15.42
18.25
20.26
21.91
23.48
25.05
26.51
27.6
27.97
27.29
25.33
21.98
17.25
11.33
4.54
-2.67
-9.69
-15.82
-20.38
-22.83
-22.95
-20.94
-17.38
-13.24
-9.6
-7.58
-8.04
-11.39
-17.35
-24.93
-32.6
-38.6
-41.52
-40.68
-36.3
-29.32
-21.02
-12.52
-4.52
2.69
9.03
14.36
18.41
20.76
21.12
19.43
16.04
11.53
6.63
1.97
-2.05
-5.27
-7.69
-9.36
-10.27
-10.45
-10.01
-9.18
-8.34
-7.92
-8.25
-9.46
-11.47
-14.08
-17.13
-20.52
-24.27
-28.32
-32.37
-35.84
-37.93
-37.86
-35.2
-30.1
-23.23
-15.63
-8.39
-2.39
1.81
4.07
4.56
3.69
2.12
0.58
-0.23
0.14
1.79
4.52
7.95
11.73
15.61
19.4
22.92
25.96
28.29
29.87
30.76
31.18
31.24
30.91
29.97
28.13
25.14
20.97
15.73
9.66
3.11
-3.44
-9.45
-14.23
-17.21
-18.03
-16.72
-13.76
-9.82
-5.6
-1.65
1.76
4.52
6.57
7.81
8.14
7.54
6.15
4.38
2.71
1.62
1.4
2.02
3.16
4.4
5.31
5.71
5.61
5.23
4.81
4.5
4.29
3.99
3.3
1.96
-0.23
-3.2
-6.69
-10.19
-13.06
-14.69
-14.59
-12.61
-8.94
-4.03
1.51
7.05
12.03
16.08
18.92
20.45
20.73
19.95
18.43
16.52
14.56
12.83
11.54
10.8
10.58
10.72
10.95
11.02
10.74
10.09
9.23
8.42
7.83
7.56
7.47
7.33
6.78
5.55
3.53
0.8
-2.26
-5.13
-7.26
-8.24
-7.98
-6.69
-4.81
-2.82
-1.14
0.03
0.59
0.58
0.04
-1.02
-2.54
-4.4
-6.4
-8.22
-9.53
-10.07
-9.74
-8.64
-7.03
-5.22
-3.46
-1.81
-0.26
1.31
2.92
4.45
5.68
6.29
6.01
4.69
2.37
-0.66
-3.93
-6.82
-8.78
-9.42
-8.65
-6.7
-4.01
-1.12
1.53
3.62
4.98
5.48
5.02
3.53
0.98
-2.51
-6.66
-10.99
-14.95
-17.98
-19.65
-19.78
-18.5
-16.1
-12.92
-9.04
-4.13
2.54
11.97
24.97
41.93
62.55
85.9
110.59
135.02
157.65
177.22
192.92
204.45
212.0
216.09
217.32
216.05
212.31
205.89
196.71
185.14
172.18
159.14
147.22
136.89
127.74
118.63
108.31
95.89
81.32
65.28
48.8
32.87
18.05
4.54
-7.71
-18.6
-27.93
-35.42
-40.97
-44.94
-48.05
-51.24
-55.35
-60.85
-67.78
-75.86
-84.72
-93.96
-103.24
-112.14
-120.07
-126.22
-129.74
-129.86
-126.07
-118.12
-105.98
-89.72
-69.42
-45.36
-18.35
9.88
36.84
59.77
76.48
85.98
88.44
84.59
74.84
58.75
35.23
3.36
-36.56
-82.36
-130.16
-175.25
-213.3
-241.47
-259.05
-267.58
-270.27
-270.95
-272.54
-275.77
-278.76
-277.83
-269.23
-250.98
-223.98
-191.63
-158.43
-128.19
-102.91
-82.81
-67.09
-55.02
-46.34
-41.01
-38.62
-37.99
-37.41
-35.35
-31.17
-25.46
-19.72
-15.63
-14.23
-15.6
-18.87
-22.76
-26.12
-28.32
-29.36
-29.63
-29.66
-29.79
-30.13
-30.43
-30.19
-28.79
-25.67
-20.59
-13.75
-5.88
2.07
9.2
15.0
19.37
22.52
24.64
25.72
25.64
24.27
21.81
18.75
15.77
13.39
11.77
10.65
9.57
8.19
6.44
4.51
2.69
1.1
-0.36
-2.0
-4.11
-6.84
-10.13
-13.8
-17.54
-21.05
-23.92
-25.68
-25.84
-24.04
-20.24
-14.81
-8.44
-1.91
4.13
9.24
13.19
15.86
17.15
17.08
15.83
13.81
11.61
9.81
8.77
8.52
8.83
9.3
9.57
9.45
8.89
7.97
6.83
5.58
4.29
3.02
1.81
0.63
-0.56
-1.75
-2.91
-3.85
-4.31
-3.99
-2.63
-0.07
3.65
8.29
13.45
18.65
23.43
27.44
30.52
32.66
33.89
34.33
34.06
33.22
31.98
30.55
29.16
28.03
27.31
27.09
27.27
27.66
27.89
27.59
26.48
24.49
21.86
18.92
15.99
13.15
10.23
6.93
3.12
-1.03
-4.95
-7.87
-9.08
-8.14
-5.04
-0.14
5.97
12.61
19.1
24.84
29.35
32.27
33.4
32.76
30.62
27.4
23.72
20.19
17.37
15.66
15.12
15.53
16.43
17.26
17.58
17.19
16.16
14.7
13.04
11.26
9.27
6.87
3.96
0.57
-3.02
-6.4
-9.01
-10.33
-9.91
-7.52
-3.26
2.45
8.89
15.24
20.78
25.05
27.87
29.33
29.62
28.96
27.54
25.56
23.32
21.12
19.32
18.11
17.5
17.33
17.3
17.1
16.54
15.53
14.08
12.25
10.09
7.67
5.07
2.29
-0.73
-4.03
-7.57
-11.11
-14.1
-15.83
-15.59
-12.95
-7.95
-1.13
6.64
14.4
21.34
26.98
31.18
34.04
35.85
36.95
37.66
38.18
38.54
38.62
38.19
37.08
35.24
32.83
30.1
27.32
24.6
21.9
19.11
16.14
13.0
9.8
6.66
3.56
0.35
-3.22
-7.29
-11.77
-16.27
-20.15
-22.79
-23.76
-23.05
-20.99
-18.14
-14.99
-11.8
-8.6
-5.33
-2.03
1.08
3.68
5.53
6.65
7.3
7.82
8.48
9.36
10.4
11.56
12.84
14.28
15.86
17.41
18.66
19.35
19.34
18.65
17.44
15.87
14.06
12.0
9.59
6.76
3.46
-0.19
-3.85
-7.0
-9.09
-9.67
-8.57
-6.03
-2.55
1.24
4.8
7.76
9.95
11.3
11.79
11.42
10.28
8.58
6.64
4.77
3.29
2.39
2.12
2.45
3.23
4.23
5.13
5.59
5.38
4.44
2.94
1.19
-0.57
-2.28
-4.07
-6.21
-8.87
-11.99
-15.26
-18.25
-20.53
-21.83
-22.06
-21.19
-19.25
-16.29
-12.52
-8.36
-4.41
-1.3
0.54
0.99
0.29
-1.13
-2.85
-4.55
-6.12
-7.45
-8.49
-9.07
-9.08
-8.5
-7.48
-6.33
-5.39
-4.88
-4.88
-5.31
-6.02
-6.9
-7.92
-9.16
-10.65
-12.41
-14.37
-16.38
-18.25
-19.66
-20.22
-19.5
-17.18
-13.21
-7.9
-1.9
4.04
9.27
13.43
16.47
18.54
19.77
20.26
20.02
19.11
17.72
16.18
14.9
14.18
14.15
14.64
15.28
15.62
15.3
14.19
12.41
10.25
8.01
5.91
4.0
2.18
0.27
-1.88
-4.35
-7.1
-9.87
-12.28
-13.83
-14.08
-12.81
-10.12
-6.38
-2.17
1.92
5.47
8.19
9.97
10.69
10.32
8.92
6.72
4.13
1.68
-0.2
-1.29
-1.6
-1.4
-1.02
-0.71
-0.58
-0.68
-0.96
-1.43
-2.12
-3.05
-4.23
-5.57
-6.98
-8.35
-9.72
-11.23
-13.02
-15.15
-17.38
-19.26
-20.19
-19.73
-17.69
-14.32
-10.1
-5.61
-1.34
2.39
5.38
7.42
8.31
7.92
6.37
4.1
1.83
0.35
0.2
1.48
3.8
6.45
8.68
9.97
10.13
9.28
7.74
5.84
3.9
2.12
0.73
-0.07
-0.12
0.66
2.14
3.98
5.66
6.7
6.81
6.04
4.76
3.49
2.65
2.4
2.55
2.7
2.41
1.36
-0.48
-2.93
-5.57
-7.84
-9.18
-9.03
-7.1
-3.4
1.69
7.48
13.17
18.03
21.66
23.94
25.08
25.32
24.89
23.91
22.39
20.37
17.97
15.4
12.88
10.63
8.77
7.31
6.16
5.2
4.24
3.11
1.69
-0.06
-2.07
-4.19
-6.17
-7.85
-9.13
-10.08
-10.87
-11.75
-12.96
-14.6
-16.61
-18.68
-20.34
-21.03
-20.31
-17.99
-14.22
-9.44
-4.28
0.63
4.79
7.9
9.88
10.8
10.83
10.17
9.03
7.62
6.08
4.6
3.3
2.31
1.68
1.35
1.15
0.81
0.08
-1.13
-2.79
-4.66
-6.49
-8.01
-9.14
-9.95
-10.68
-11.56
-12.73
-14.16
-15.71
-17.22
-18.59
-19.82
-20.87
-21.6
-21.63
-20.5
-17.78
-13.4
-7.75
-1.56
4.29
9.16
12.81
15.35
17.12
18.37
19.15
19.31
18.66
17.19
15.13
12.9
10.89
9.35
8.23
7.31
6.29
4.96
3.34
1.57
-0.13
-1.58
-2.73
-3.69
-4.59
-5.57
-6.72
-8.09
-9.76
-11.76
-14.09
-16.54
-18.69
-19.97
-19.8
-17.86
-14.17
-9.19
-3.6
1.88
6.72
10.66
13.71
15.98
17.64
18.79
19.55
19.93
20.0
19.81
19.45
19.04
18.63
18.23
17.75
17.01
15.83
14.07
11.69
8.85
5.78
2.76
-0.04
-2.63
-5.2
-8.04
-11.44
-15.54
-20.19
-24.94
-29.12
-31.98
-32.92
-31.71
-28.5
-23.79
-18.24
-12.51
-7.09
-2.31
1.64
4.65
6.7
7.87
8.37
8.49
8.54
8.73
9.17
9.77
10.37
10.8
10.95
10.79
10.37
9.78
9.11
8.39
7.58
6.58
5.23
3.44
1.19
-1.43
-4.28
-7.29
-10.46
-13.89
-17.52
-21.06
-23.87
-25.11
-24.11
-20.65
-15.2
-8.66
-2.17
3.4
7.65
10.59
12.53
13.76
14.44
14.59
14.29
13.68
13.09
12.84
13.17
14.06
15.24
16.31
16.86
16.65
15.71
14.24
12.52
10.79
9.1
7.35
5.4
3.14
0.55
-2.32
-5.41
-8.69
-12.19
-15.89
-19.63
-22.94
-25.17
-25.64
-23.84
-19.7
-13.59
-6.29
1.28
8.25
14.06
18.45
21.46
23.25
24.01
23.93
23.14
21.8
20.1
18.28
16.6
15.28
14.45
14.1
14.1
14.25
14.33
14.14
13.59
12.65
11.39
9.9
8.25
6.41
4.35
1.99
-0.7
-3.77
-7.26
-11.2
-15.51
-19.87
-23.68
-26.08
-26.27
-23.77
-18.73
-11.86
-4.26
2.93
8.91
13.32
16.22
17.87
18.58
18.56
17.88
16.6
14.82
12.75
10.66
8.83
7.42
6.45
5.75
5.13
4.41
3.49
2.39
1.16
-0.14
-1.52
-3.0
-4.62
-6.41
-8.33
-10.32
-12.35
-14.45
-16.76
-19.48
-22.76
-26.53
-30.36
-33.51
-35.03
-34.14
-30.55
-24.54
-16.98
-8.98
-1.57
4.57
9.23
12.52
14.7
15.99
16.48
16.13
14.92
12.96
10.58
8.31
6.72
6.25
7.01
8.69
10.68
12.31
13.12
13.02
12.19
10.94
9.49
7.8
5.73
3.09
-0.14
-3.88
-7.97
-12.26
-16.61
-20.81
-24.44
-26.88
-27.42
-25.6
-21.38
-15.27
-8.23
-1.29
4.73
9.42
12.79
15.05
16.46
17.15
17.11
16.35
14.95
13.18
11.44
10.17
9.62
9.76
10.29
10.69
10.52
9.58
7.96
6.03
4.13
2.46
0.9
-0.8
-3.0
-5.9
-9.49
-13.62
-17.97
-22.1
-25.47
-27.43
-27.4
-25.05
-20.46
-14.22
-7.2
-0.36
5.62
10.38
13.87
16.24
17.6
18.06
17.7
16.68
15.22
13.64
12.24
11.21
10.65
10.49
10.55
10.64
10.51
10.04
9.16
7.95
6.54
5.07
3.61
2.08
0.34
-1.8
-4.46
-7.63
-11.22
-15.04
-18.82
-22.2
-24.71
-25.78
-24.92
-21.83
-16.6
-9.74
-2.07
5.55
12.35
17.86
21.9
24.53
25.89
26.21
25.71
24.65
23.28
21.88
20.67
19.79
19.26
19.0
18.9
18.86
18.81
18.68
18.41
17.9
17.02
15.69
13.83
11.48
8.7
5.59
2.28
-1.13
-4.64
-8.31
-12.31
-16.77
-21.68
-26.67
-31.02
-33.8
-34.17
-31.7
-26.58
-19.58
-11.85
-4.5
1.66
6.3
9.48
11.51
12.68
13.16
13.02
12.35
11.29
10.18
9.35
9.02
9.19
9.6
9.91
9.82
9.23
8.21
6.92
5.44
3.72
1.61
-1.11
-4.48
-8.38
-12.51
-16.5
-20.09
-23.24
-26.16
-29.22
-32.7
-36.63
-40.58
-43.81
-45.42
-44.69
-41.33
-35.6
-28.22
-20.15
-12.32
-5.41
0.21
4.46
7.44
9.29
10.13
10.09
9.34
8.13
6.88
5.92
5.55
5.75
6.28
6.73
6.74
6.16
5.1
3.88
2.78
1.93
1.17
0.12
-1.62
-4.23
-7.51
-10.98
-14.04
-16.32
-17.8
-18.86
-20.03
-21.68
-23.78
-25.82
-27.06
-26.69
-24.05
-18.6
-10.06
1.62
15.98
31.91
47.8
61.86
72.72
79.94
84.03
86.12
87.4
88.59
89.93
91.37
92.94
94.86
97.33
100.3
103.28
105.41
105.88
104.2
100.43
95.0
88.54
81.56
74.37
67.06
59.53
51.55
42.75
32.67
20.94
7.53
-6.98
-21.3
-33.67
-42.26
-45.75
-43.71
-36.74
-26.27
-14.05
-1.72
9.57
19.33
27.63
34.94
41.81
48.46
54.26
57.36
54.66
42.47
17.76
-20.39
-69.62
-124.34
-176.94
-220.01
-248.53
-261.21
-260.38
-250.53
-236.5
-221.82
-208.13
-195.46
-183.11
-170.46
-157.42
-144.29
-131.46
-118.97
-106.59
-93.95
-81.01
-68.29
-56.8
-47.77
-42.04
-39.56
-39.36
-39.84
-39.48
-37.6
-34.75
-32.6
-33.17
-38.04
-47.5
-60.16
-73.02
-82.16
-83.8
-75.46
-56.82
-29.9
1.56
33.34
62.06
86.11
105.83
122.93
139.44
156.72
174.88
192.74
208.34
219.67
225.37
225.05
219.39
209.89
198.38
186.69
176.23
167.89
162.0
158.19
155.57
152.75
148.25
140.83
129.93
115.85
99.65
82.8
66.65
52.14
39.52
28.52
18.59
9.11
-0.45
-10.48
-21.37
-33.41
-46.73
-61.17
-76.02
-90.12
-102.03
-110.49
-114.78
-114.98
-112.02
-107.41
-102.87
-99.82
-98.93
-100.0
-101.89
-103.01
-101.85
-97.6
-90.49
-81.83
-73.48
-67.26
-64.35
-64.82
-67.7
-71.28
-73.69
-73.47
-69.91
-63.31
-54.73
-45.56
-36.97
-29.46
-22.68
-15.7
-7.53
2.28
13.35
24.59
34.68
42.66
48.2
51.64
53.65
54.83
55.55
55.78
55.37
54.07
51.74
48.22
43.47
37.54
30.63
23.24
16.17
10.52
7.49
7.88
11.74
18.19
25.62
32.33
37.14
39.77
40.63
40.3
39.01
36.49
32.42
27.01
21.35
17.1
15.44
16.28
17.93
17.84
13.85
5.2
-7.05
-20.53
-32.23
-39.46
-40.41
-34.5
-22.63
-7.15
8.45
20.36
25.45
22.31
11.78
-3.4
-19.55
-33.3
-42.47
-46.41
-45.69
-41.56
-35.4
-28.38
-21.34
-14.91
-9.66
-6.08
-4.62
-5.31
-7.67
-10.67
-13.1
-14.08
-13.46
-11.92
-10.59
-10.49
-11.99
-14.64
-17.44
-19.43
-20.11
-19.7
-18.86
-18.34
-18.54
-19.38
-20.54
-21.67
-22.61
-23.4
-24.11
-24.72
-25.0
-24.67
-23.55
-21.69
-19.45
-17.37
-16.06
-15.92
-17.07
-19.34
-22.28
-25.33
-27.96
-29.73
-30.4
-29.92
-28.38
-25.94
-22.74
-18.89
-14.38
-9.17
-3.24
3.29
10.22
17.44
24.97
33.04
41.76
50.93
59.82
67.37
72.69
75.47
76.28
76.22
76.44
77.54
79.4
81.38
82.81
83.37
83.12
82.33
81.16
79.6
77.54
74.96
72.05
69.11
66.36
63.77
61.12
58.05
54.27
49.63
44.16
38.05
31.58
25.12
18.97
13.33
8.2
3.44
-1.18
-5.88
-10.73
-15.69
-20.65
-25.49
-30.07
-34.27
-38.0
-41.25
-44.2
-47.19
-50.58
-54.47
-58.54
-62.01
-63.91
-63.41
-60.22
-54.75
-47.96
-41.0
-34.87
-30.12
-26.86
-24.89
-23.89
-23.58
-23.78
-24.31
-25.04
-25.76
-26.29
-26.41
-26.0
-25.08
-23.84
-22.58
-21.66
-21.31
-21.52
-22.01
-22.41
-22.41
-21.92
-21.08
-20.24
-19.67
-19.57
-19.99
-20.85
-22.05
-23.46
-24.81
-25.69
-25.58
-23.99
-20.67
-15.76
-9.78
-3.49
2.33
7.07
10.48
12.56
13.51
13.6
13.09
12.14
10.89
9.49
8.05
6.72
5.65
4.95
4.66
4.75
5.06
5.35
5.36
4.91
3.96
2.59
0.96
-0.78
-2.58
-4.45
-6.47
-8.68
-11.09
-13.65
-16.26
-18.76
-20.87
-22.19
-22.23
-20.6
-17.18
-12.23
-6.43
-0.67
4.24
7.79
9.82
10.5
10.14
9.08
7.61
5.97
4.34
2.8
1.43
0.25
-0.69
-1.3
-1.47
-1.14
-0.42
0.4
0.87
0.59
-0.59
-2.53
-4.84
-7.12
-9.1
-10.8
-12.42
-14.23
-16.34
-18.75
-21.29
-23.71
-25.74
-27.03
-27.23
-26.01
-23.14
-18.65
-12.86
-6.35
0.17
5.98
10.53
13.5
14.89
14.86
13.76
11.99
9.91
7.84
5.96
4.42
3.25
2.45
1.88
1.4
0.89
0.28
-0.38
-1.03
-1.66
-2.39
-3.41
-4.88
-6.77
-8.87
-10.84
-12.4
-13.51
-14.32
-15.22
-16.54
-18.48
-21.04
-23.97
-26.83
-29.02
-29.94
-29.07
-26.19
-21.44
-15.37
-8.72
-2.31
3.24
7.55
10.42
11.88
12.02
11.1
9.46
7.54
5.78
4.52
3.91
3.84
4.01
4.06
3.72
2.94
1.92
1.0
0.41
0.18
0.07
-0.31
-1.26
-2.87
-4.95
-7.21
-9.38
-11.37
-13.22
-15.09
-17.08
-19.27
-21.64
-24.14
-26.62
-28.76
-30.14
-30.24
-28.68
-25.34
-20.48
-14.65
-8.55
-2.86
1.97
5.71
8.31
9.87
10.49
10.32
9.52
8.3
6.95
5.76
4.96
4.69
4.9
5.43
6.02
6.45
6.55
6.25
5.55
4.54
3.31
2.02
0.71
-0.56
-1.87
-3.29
-4.89
-6.71
-8.72
-10.95
-13.45
-16.34
-19.62
-23.07
-26.12
-27.96
-27.77
-25.07
-19.97
-13.15
-5.68
1.42
7.43
12.1
15.5
17.87
19.38
20.09
20.0
19.15
17.67
15.84
13.99
12.41
11.31
10.74
10.61
10.72
10.86
10.82
10.45
9.69
8.55
7.06
5.28
3.26
1.06
-1.29
-3.78
-6.49
-9.54
-13.04
-17.01
-21.17
-25.01
-27.78
-28.7
-27.21
-23.21
-17.13
-9.81
-2.25
4.69
10.48
14.96
18.21
20.38
21.58
21.84
21.2
19.77
17.81
15.67
13.73
12.24
11.3
10.8
10.54
10.27
9.82
9.14
8.25
7.19
5.92
4.31
2.24
-0.37
-3.4
-6.62
-9.72
-12.58
-15.34
-18.4
-22.18
-26.85
-32.09
-37.0
-40.39
-41.11
-38.47
-32.54
-24.06
-14.25
-4.38
4.52
11.88
17.55
21.66
24.46
26.13
26.83
26.67
25.82
24.5
22.97
21.46
20.14
19.04
18.16
17.42
16.76
16.11
15.34
14.37
13.08
11.43
9.39
7.02
4.37
1.52
-1.49
-4.65
-8.1
-12.01
-16.6
-21.98
-27.9
-33.71
-38.37
-40.69
-39.74
-35.2
-27.51
-17.71
-7.12
3.03
11.95
19.24
24.85
28.87
31.36
32.37
32.01
30.47
28.08
25.24
22.31
19.52
16.96
14.6
12.39
10.32
8.44
6.82
5.51
4.46
3.52
2.44
0.99
-1.0
-3.55
-6.58
-9.97
-13.65
-17.68
-22.23
-27.4
-33.09
-38.79
-43.59
-46.33
-46.03
-42.16
-34.97
-25.34
-14.56
-3.93
5.59
13.47
19.58
23.99
26.8
28.1
27.98
26.59
24.27
21.45
18.64
16.24
14.52
13.52
13.15
13.19
13.39
13.51
13.39
12.9
11.98
10.64
8.85
6.69
4.17
1.35
-1.75
-5.19
-9.05
-13.45
-18.35
-23.37
-27.74
-30.38
-30.21
-26.55
-19.47
-9.75
1.26
12.15
21.8
29.59
35.34
39.11
41.08
41.37
40.15
37.66
34.29
30.55
27.0
24.05
21.95
20.71
20.07
19.7
19.19
18.27
16.79
14.76
12.33
9.62
6.74
3.73
0.5
-3.06
-7.1
-11.77
-17.1
-22.97
-28.94
-34.24
-37.85
-38.77
-36.3
-30.32
-21.36
-10.5
0.91
11.63
20.73
27.74
32.58
35.38
36.42
36.0
34.42
31.99
29.11
26.17
23.57
21.58
20.31
19.65
19.33
19.01
18.4
17.27
15.57
13.31
10.57
7.47
4.12
0.64
-2.92
-6.61
-10.67
-15.41
-21.12
-27.78
-34.88
-41.38
-45.92
-47.24
-44.54
-37.89
-28.1
-16.56
-4.77
6.05
15.11
22.11
27.06
30.08
31.31
30.95
29.25
26.59
23.48
20.42
17.83
15.93
14.72
14.06
13.68
13.36
12.87
12.05
10.75
8.95
6.67
4.06
1.26
-1.63
-4.7
-8.18
-12.39
-17.6
-23.81
-30.63
-37.23
-42.48
-45.17
-44.44
-39.96
-32.18
-22.15
-11.26
-0.83
8.21
15.43
20.79
24.43
26.45
26.91
25.85
23.51
20.33
16.98
14.09
12.09
11.07
10.81
10.92
10.97
10.7
9.99
8.82
7.2
5.12
2.54
-0.51
-3.99
-7.72
-11.53
-15.39
-19.39
-23.78
-28.7
-34.01
-39.07
-42.82
-44.04
-41.8
-35.84
-26.72
-15.7
-4.33
6.05
14.62
21.15
25.8
28.9
30.67
31.17
30.48
28.74
26.3
23.68
21.41
19.89
19.23
19.28
19.64
19.9
19.73
19.0
17.78
16.24
14.48
12.48
10.1
7.14
3.47
-0.94
-5.99
-11.4
-16.77
-21.5
-24.86
-26.09
-24.64
-20.3
-13.34
-4.53
5.13
14.59
22.98
29.71
34.52
37.41
38.56
38.27
36.89
34.75
32.18
29.47
26.91
24.75
23.18
22.3
22.07
22.3
22.68
22.85
22.49
21.36
19.39
16.62
13.18
9.25
5.02
0.67
-3.71
-8.13
-12.72
-17.66
-23.04
-28.66
-33.88
-37.79
-39.35
-37.86
-33.15
-25.71
-16.54
-6.84
2.25
9.95
15.84
19.85
22.12
22.9
22.47
21.18
19.33
17.19
15.02
12.97
11.19
9.71
8.56
7.71
7.11
6.64
6.09
5.31
4.12
2.52
0.59
-1.5
-3.55
-5.48
-7.32
-9.26
-11.5
-14.24
-17.59
-21.53
-25.89
-30.23
-33.85
-35.91
-35.57
-32.35
-26.3
-18.09
-8.81
0.33
8.42
14.91
19.72
22.94
24.71
25.14
24.35
22.57
20.17
17.58
15.21
13.25
11.72
10.52
9.58
8.84
8.32
8.0
7.77
7.36
6.49
4.92
2.58
-0.43
-3.91
-7.57
-11.18
-14.54
-17.49
-20.01
-22.2
-24.37
-26.87
-30.0
-33.74
-37.7
-41.05
-42.82
-42.2
-38.77
-32.76
-24.88
-16.19
-7.73
-0.34
5.58
9.97
13.02
15.02
16.16
16.54
16.22
15.3
13.97
12.47
11.07
9.92
9.12
8.68
8.59
8.81
9.24
9.71
9.93
9.58
8.41
6.35
3.53
0.29
-2.95
-5.82
-8.1
-9.86
-11.33
-12.97
-15.19
-18.18
-21.76
-25.32
-27.95
-28.69
-26.88
-22.36
-15.65
-7.66
0.47
7.81
13.77
18.25
21.41
23.52
24.8
25.34
25.2
24.45
23.29
21.94
20.61
19.42
18.36
17.39
16.45
15.57
14.77
14.04
13.29
12.36
11.12
9.5
7.55
5.36
3.05
0.67
-1.78
-4.29
-6.85
-9.51
-12.35
-15.56
-19.28
-23.37
-27.36
-30.39
-31.55
-30.19
-26.21
-20.15
-12.97
-5.71
0.87
6.41
10.86
14.33
16.85
18.42
19.01
18.67
17.66
16.31
14.98
13.94
13.31
13.02
12.93
12.9
12.83
12.69
12.51
12.28
11.9
11.17
9.81
7.63
4.59
0.86
-3.18
-7.12
-10.6
-13.5
-15.89
-18.1
-20.59
-23.75
-27.74
-32.27
-36.58
-39.62
-40.42
-38.41
-33.66
-26.87
-19.06
-11.27
-4.27
1.56
6.12
9.48
11.79
13.18
13.85
14.01
13.92
13.81
13.79
13.9
14.07
14.2
14.21
14.07
13.84
13.55
13.22
12.79
12.07
10.84
8.88
6.11
2.63
-1.2
-4.99
-8.32
-11.08
-13.39
-15.67
-18.35
-21.76
-25.93
-30.51
-34.86
-38.14
-39.62
-38.73
-35.4
-29.99
-23.22
-16.08
-9.47
-4.03
-0.06
2.5
3.93
4.59
4.79
4.72
4.49
4.1
3.56
2.89
2.17
1.51
1.03
0.78
0.7
0.66
0.43
-0.19
-1.26
-2.73
-4.46
-6.3
-8.17
-10.03
-11.9
-13.77
-15.64
-17.58
-19.74
-22.29
-25.26
-28.35
-30.93
-32.14
-31.23
-27.88
-22.35
-15.41
-8.07
-1.22
4.54
8.99
12.12
14.06
14.95
14.93
14.18
12.89
11.25
9.42
7.6
5.95
4.7
4.05
4.04
4.56
5.25
5.68
5.52
4.73
3.52
2.21
1.08
0.16
-0.73
-1.93
-3.76
-6.36
-9.66
-13.31
-16.8
-19.47
-20.7
-20.01
-17.26
-12.63
-6.7
-0.22
6.01
11.39
15.59
18.5
20.26
21.04
21.04
20.4
19.24
17.7
15.98
14.33
13.0
12.16
11.88
12.03
12.41
12.7
12.6
11.91
10.59
8.7
6.43
3.91
1.27
-1.49
-4.39
-7.45
-10.66
-14.02
-17.56
-21.26
-24.97
-28.28
-30.53
-30.97
-29.03
-24.6
-18.12
-10.46
-2.65
4.43
10.27
14.68
17.74
19.64
20.58
20.69
20.12
19.0
17.48
15.71
13.9
12.28
11.05
10.27
9.92
9.79
9.66
9.3
8.6
7.51
6.05
4.24
2.1
-0.35
-2.99
-5.66
-8.16
-10.38
-12.36
-14.35
-16.72
-19.76
-23.49
-27.48
-30.87
-32.62
-31.87
-28.26
-22.13
-14.38
-6.13
1.6
8.22
13.51
17.55
20.48
22.36
23.22
23.12
22.27
20.96
19.57
18.37
17.47
16.83
16.33
15.88
15.44
15.04
14.66
14.26
13.67
12.75
11.35
9.41
6.98
4.2
1.31
-1.46
-3.89
-5.89
-7.5
-8.97
-10.66
-12.95
-16.13
-20.2
-24.83
-29.3
-32.72
-34.2
-33.18
-29.59
-23.84
-16.79
-9.35
-2.37
3.66
8.51
12.18
14.79
16.45
17.26
17.3
16.69
15.6
14.26
12.95
11.9
11.18
10.72
10.32
9.76
8.93
7.8
6.52
5.18
3.81
2.35
0.68
-1.26
-3.5
-5.95
-8.5
-11.02
-13.4
-15.59
-17.56
-19.45
-21.48
-23.95
-27.09
-30.91
-35.1
-38.99
-41.74
-42.5
-40.76
-36.47
-30.08
-22.39
-14.33
-6.71
-0.07
5.31
9.41
12.27
14.02
14.82
14.94
14.66
14.27
14.02
14.01
14.25
14.7
15.3
16.04
16.91
17.87
18.79
19.5
19.73
19.26
17.95
15.8
12.9
9.46
5.68
1.79
-2.07
-5.84
-9.58
-13.42
-17.57
-22.1
-26.76
-30.96
-33.81
-34.36
-32.06
-26.9
-19.56
-11.14
-2.83
4.44
10.21
14.36
17.03
18.4
18.6
17.73
15.97
13.61
11.01
8.63
6.83
5.82
5.62
6.07
6.88
7.77
8.48
8.86
8.87
8.5
7.73
6.56
5.01
3.17
1.21
-0.73
-2.64
-4.71
-7.28
-10.62
-14.76
-19.25
-23.26
-25.75
-25.85
-23.12
-17.77
-10.49
-2.31
5.77
12.97
18.81
23.12
25.88
27.2
27.22
26.13
24.27
22.04
19.89
18.12
16.83
15.89
15.05
14.08
12.87
11.49
10.08
8.72
7.39
5.94
4.2
2.07
-0.44
-3.21
-6.1
-8.97
-11.76
-14.51
-17.34
-20.47
-24.17
-28.51
-33.31
-37.91
-41.31
-42.47
-40.59
-35.57
-27.95
-18.82
-9.41
-0.79
6.39
11.9
15.83
18.4
19.87
20.45
20.27
19.5
18.29
16.88
15.52
14.42
13.74
13.49
13.52
13.62
13.57
13.2
12.42
11.19
9.53
7.49
5.1
2.44
-0.4
-3.32
-6.2
-9.07
-12.1
-15.61
-19.94
-25.16
-30.94
-36.39
-40.35
-41.61
-39.47
-33.9
-25.67
-15.99
-6.12
2.9
10.48
16.43
20.8
23.72
25.31
25.69
24.95
23.29
21.0
18.46
16.05
14.07
12.64
11.76
11.3
11.13
11.08
10.99
10.65
9.81
8.3
5.98
2.97
-0.5
-4.13
-7.61
-10.85
-13.96
-17.29
-21.25
-26.17
-32.0
-38.19
-43.68
-47.2
-47.63
-44.45
-37.94
-29.06
-19.16
-9.47
-0.85
6.35
12.14
16.61
19.85
21.8
22.47
21.92
20.4
18.28
15.96
13.84
12.12
10.91
10.16
9.74
9.46
9.08
8.43
7.39
5.99
4.35
2.65
1.01
-0.59
-2.37
-4.65
-7.75
-11.84
-16.79
-22.1
-26.93
-30.26
-31.15
-28.95
-23.56
-15.48
-5.69
4.63
14.36
22.69
29.18
33.71
36.36
37.25
36.55
34.52
31.51
28.05
24.67
21.87
19.93
18.87
18.47
18.36
18.13
17.45
16.16
14.29
12.01
9.53
6.98
4.3
1.33
-2.26
-6.74
-12.22
-18.53
-25.15
-31.33
-36.08
-38.5
-37.91
-34.07
-27.27
-18.3
-8.23
1.82
10.94
18.57
24.44
28.5
30.8
31.41
30.49
28.32
25.34
22.06
18.98
16.44
14.5
13.02
11.72
10.34
8.69
6.77
4.67
2.53
0.45
-1.55
-3.53
-5.62
-7.93
-10.68
-14.06
-18.27
-23.42
-29.29
-35.3
-40.41
-43.38
-43.14
-39.12
-31.52
-21.3
-9.89
1.25
10.99
18.73
24.33
27.93
29.7
29.75
28.15
25.11
21.09
16.74
12.83
9.93
8.25
7.58
7.46
7.37
6.94
6.05
4.76
3.27
1.7
0.1
-1.6
-3.57
-5.92
-8.75
-12.11
-16.1
-20.77
-26.12
-31.84
-37.23
-41.24
-42.66
-40.59
-34.78
-25.8
-14.88
-3.56
6.83
15.42
21.91
26.35
28.96
29.94
29.47
27.69
24.87
21.41
17.81
14.6
12.15
10.63
9.93
9.7
9.52
9.03
8.09
6.76
5.2
3.51
1.7
-0.37
-2.84
-5.76
-9.13
-12.95
-17.27
-22.2
-27.72
-33.49
-38.72
-42.3
-43.05
-40.19
-33.65
-24.12
-12.92
-1.57
8.62
16.83
22.79
26.62
28.62
29.09
28.26
26.32
23.57
20.44
17.46
15.09
13.61
12.98
12.9
12.94
12.68
11.94
10.72
9.2
7.57
5.98
4.45
2.87
1.09
-1.13
-3.99
-7.61
-11.97
-16.77
-21.33
-24.73
-25.93
-24.16
-19.16
-11.37
-1.71
8.58
18.35
26.78
33.4
38.1
40.9
41.94
41.4
39.52
36.59
33.03
29.24
25.61
22.45
19.9
17.99
16.62
15.54
14.45
13.1
11.31
9.03
6.36
3.41
0.3
-2.92
-6.28
-9.81
-13.59
-17.75
-22.47
-27.8
-33.57
-39.15
-43.48
-45.39
-43.89
-38.64
-30.09
-19.33
-7.78
3.23
12.79
20.38
25.89
29.36
30.98
30.9
29.36
26.65
23.07
18.99
14.76
10.78
7.37
4.77
3.13
2.4
2.41
2.85
3.38
3.73
3.73
3.34
2.6
1.51
0.06
-1.81
-4.22
-7.3
-11.16
-15.86
-21.24
-26.84
-31.82
-35.05
-35.44
-32.27
-25.5
-15.92
-4.87
6.13
15.81
23.41
28.73
31.95
33.42
33.5
32.44
30.45
27.77
24.69
21.6
18.81
16.56
14.86
13.58
12.46
11.25
9.78
7.97
5.81
3.3
0.45
-2.73
-6.13
-9.62
-13.04
-16.23
-19.25
-22.34
-25.89
-30.19
-35.26
-40.56
-45.03
-47.41
-46.59
-42.11
-34.31
-24.29
-13.49
-3.25
5.54
12.47
17.49
20.7
22.16
21.95
20.28
17.51
14.25
11.11
8.6
6.93
6.04
5.7
5.63
5.65
5.66
5.64
5.49
5.05
4.15
2.66
0.6
-1.89
-4.59
-7.35
-10.14
-13.11
-16.54
-20.66
-25.5
-30.74
-35.58
-38.91
-39.58
-36.82
-30.57
-21.54
-11.05
-0.51
8.91
16.59
22.38
26.4
28.8
29.63
28.92
26.81
23.66
20.1
16.79
14.23
12.61
11.78
11.38
11.02
10.46
9.68
8.78
7.83
6.78
5.46
3.65
1.25
-1.69
-4.98
-8.43
-12.04
-15.89
-20.07
-24.43
-28.38
-31.02
-31.35
-28.65
-22.87
-14.61
-5.04
4.59
13.24
20.3
25.61
29.23
31.25
31.72
30.71
28.41
25.22
21.66
18.33
15.65
13.85
12.85
12.37
12.05
11.53
10.61
9.21
7.42
5.4
3.3
1.18
-0.97
-3.22
-5.6
-8.15
-10.86
-13.82
-17.24
-21.35
-26.19
-31.42
-36.18
-39.22
-39.4
-35.98
-29.1
-19.7
-9.15
1.13
10.17
17.51
23.09
27.02
29.38
30.17
29.49
27.6
24.99
22.22
19.79
17.98
16.72
15.82
14.95
13.93
12.73
11.51
10.44
9.61
8.91
8.06
6.73
4.7
1.97
-1.24
-4.56
-7.66
-10.39
-12.86
-15.36
-18.31
-22.04
-26.61
-31.72
-36.66
-40.45
-42.07
-40.73
-36.22
-28.89
-19.6
-9.47
0.43
9.3
16.69
22.43
26.5
28.96
29.9
29.51
28.09
26.05
23.85
21.89
20.41
19.45
18.84
18.34
17.7
16.87
15.95
15.17
14.7
14.47
14.19
13.36
11.59
8.71
4.91
0.66
-3.55
-7.37
-10.71
-13.69
-16.54
-19.51
-22.81
-26.67
-31.19
-36.21
-41.19
-45.19
-47.15
-46.14
-41.83
-34.58
-25.36
-15.39
-5.77
2.75
9.78
15.17
18.88
20.88
21.22
20.13
18.07
15.61
13.34
11.64
10.54
9.85
9.22
8.4
7.33
6.15
5.13
4.44
4.12
3.96
3.63
2.77
1.2
-1.09
-3.88
-6.82
-9.61
-12.04
-14.14
-16.11
-18.29
-21.04
-24.6
-28.92
-33.57
-37.75
-40.46
-40.73
-37.98
-32.26
-24.23
-14.97
-5.67
2.79
9.87
15.47
19.63
22.42
23.87
24.05
23.13
21.41
19.28
17.09
15.06
13.31
11.91
10.96
10.53
10.62
11.05
11.51
11.63
11.17
10.09
8.55
6.79
4.99
3.2
1.31
-0.81
-3.28
-6.18
-9.55
-13.32
-17.24
-20.82
-23.35
-24.04
-22.3
-18.0
-11.55
-3.78
4.28
11.69
17.81
22.34
25.23
26.59
26.64
25.6
23.77
21.47
19.04
16.77
14.85
13.34
12.2
11.28
10.41
9.48
8.45
7.36
6.22
5.01
3.61
1.88
-0.26
-2.77
-5.51
-8.27
-10.85
-13.23
-15.58
-18.21
-21.44
-25.38
-29.77
-33.93
-36.93
-37.8
-35.94
-31.3
-24.39
-16.14
-7.6
0.31
6.99
12.18
15.86
18.14
19.2
19.16
18.18
16.45
14.24
11.88
9.68
7.93
6.8
6.3
6.35
6.75
7.27
7.63
7.58
6.97
5.72
3.93
1.75
-0.61
-3.0
-5.36
-7.71
-10.12
-12.75
-15.78
-19.35
-23.51
-28.02
-32.32
-35.53
-36.72
-35.15
-30.65
-23.68
-15.24
-6.59
1.22
7.5
12.09
15.11
16.83
17.49
17.25
16.3
14.87
13.25
11.74
10.53
9.64
8.91
8.13
7.17
6.03
4.82
3.7
2.71
1.78
0.71
-0.68
-2.44
-4.57
-6.92
-9.37
-11.83
-14.26
-16.77
-19.53
-22.81
-26.8
-31.48
-36.37
-40.54
-42.84
-42.3
-38.52
-31.9
-23.52
-14.7
-6.59
0.18
5.43
9.3
12.0
13.62
14.18
13.72
12.39
10.48
8.36
6.35
4.71
3.58
2.95
2.75
2.79
2.84
2.7
2.23
1.45
0.47
-0.53
-1.43
-2.23
-2.99
-3.92
-5.2
-7.03
-9.59
-12.92
-16.87
-20.97
-24.43
-26.35
-25.93
-22.81
-17.22
-9.9
-1.86
5.99
12.97
18.75
23.23
26.42
28.3
28.83
28.04
26.07
23.27
20.11
17.07
14.62
12.97
12.14
11.89
11.91
11.8
11.29
10.28
8.84
7.15
5.36
3.59
1.75
-0.26
-2.6
-5.37
-8.59
-12.18
-15.95
-19.53
-22.38
-23.86
-23.37
-20.56
-15.48
-8.64
-0.96
6.58
13.09
18.07
21.37
23.16
23.74
23.37
22.22
20.36
17.94
15.16
12.4
10.07
8.48
7.79
7.81
8.21
8.53
8.39
7.55
6.0
3.85
1.34
-1.33
-4.05
-6.77
-9.55
-12.47
-15.64
-19.14
-23.04
-27.21
-31.3
-34.65
-36.38
-35.68
-32.16
-25.97
-17.91
-9.11
-0.75
6.37
11.85
15.74
18.28
19.76
20.4
20.34
19.64
18.35
16.55
14.37
12.03
9.79
7.91
6.56
5.74
5.35
5.13
4.84
4.3
3.47
2.37
1.06
-0.42
-2.07
-3.9
-5.92
-8.16
-10.68
-13.56
-16.87
-20.59
-24.35
-27.52
-29.24
-28.72
-25.55
-19.89
-12.45
-4.32
3.44
10.08
15.29
19.09
21.7
23.32
24.04
23.87
22.81
20.95
18.52
15.85
13.32
11.25
9.82
9.1
8.95
9.15
9.43
9.52
9.24
8.49
7.34
5.85
4.18
2.4
0.53
-1.49
-3.83
-6.61
-9.93
-13.74
-17.8
-21.65
-24.66
-26.16
-25.51
-22.43
-17.0
-9.78
-1.68
6.24
13.06
18.19
21.4
22.79
22.6
21.16
18.71
15.58
12.09
8.64
5.62
3.32
1.86
1.14
0.92
0.92
0.85
0.55
-0.04
-0.83
-1.73
-2.63
-3.54
-4.56
-5.91
-7.86
-10.6
-14.13
-18.19
-22.22
-25.45
-27.1
-26.6
-23.75
-18.86
-12.63
-5.97
0.33
5.67
9.81
12.68
14.26
14.53
13.47
11.15
7.89
4.28
1.03
-1.16
-1.87
-1.17
0.5
2.45
3.99
4.67
4.39
3.37
2.16
1.48
2.07
4.43
8.53
13.6
18.16
20.35
18.6
12.34
2.41
-9.1
-19.45
-26.24
-28.17
-25.33
-18.94
-10.71
-2.22
5.48
11.87
16.68
19.68
20.62
19.38
16.2
11.7
6.84
2.5
-0.72
-2.75
-3.95
-4.82
-5.81
-7.04
-8.37
-9.48
-10.08
-9.94
-9.0
-7.32
-5.04
-2.34
0.54
3.34
5.78
7.73
9.24
10.63
12.41
15.13
19.2
24.76
31.6
39.26
47.14
54.61
61.11
66.17
69.5
71.0
70.82
69.24
66.59
63.17
59.11
54.5
49.38
43.83
37.93
31.75
25.28
18.4
11.15
3.76
-3.35
-9.91
-15.95
-21.82
-28.08
-35.28
-43.67
-53.21
-63.67
-74.86
-87.05
-100.49
-114.88
-128.97
-140.74
-148.13
-149.68
-145.16
-135.66
-123.89
-112.7
-103.9
-97.81
-93.58
-90.13
-86.87
-83.72
-80.72
-78.5
-76.91
-74.67
-69.81
-60.85
-47.51
-30.68
-11.59
8.62
27.46
42.06
50.21
51.2
45.87
36.26
24.92
14.62
15.76
34.69
70.11
113.63
155.72
191.16
219.32
241.34
258.76
272.67
282.42
286.82
285.86
281.17
275.26
270.22
266.49
263.68
261.04
256.82
247.73
231.68
208.44
178.59
146.61
114.79
84.48
56.63
31.46
5.52
-23.58
-55.57
-87.75
-116.78
-140.98
-159.69
-172.71
-180.31
-188.82
-203.55
-226.08
-254.34
-284.62
-314.46
-342.49
-367.92
-390.52
-418.15
-457.83
-511.95
-578.18
-651.72
-729.47
-810.64
-895.92
-938.2
-907.7
-802.62
-648.43
-477.52
-311.74
-162.74
-36.96
62.2
135.06
178.65
192.54
185.74
168.48
149.61
133.97
123.33
118.45
120.05
122.96
122.72
118.53
110.32
100.46
91.24
84.25
80.76
81.73
83.89
83.9
80.35
73.6
65.64
58.29
52.8
50.01
50.36
52.01
53.04
52.54
50.52
48.11
46.47
46.37
48.17
51.81
56.23
60.34
63.67
66.37
69.36
73.59
79.67
87.68
97.14
107.26
117.31
126.93
136.19
145.67
156.21
168.7
183.84
201.87
222.08
242.51
260.07
271.23
273.31
265.54
249.6
229.04
207.97
189.51
174.91
163.58
153.93
144.48
134.49
124.02
113.46
103.03
92.58
81.73
70.26
58.39
46.86
36.65
28.56
22.87
19.21
16.75
14.57
12.02
8.94
5.6
2.48
-0.06
-1.93
-3.38
-4.84
-6.73
-9.28
-12.48
-16.12
-19.98
-23.85
-27.6
-31.08
-34.05
-36.21
-37.34
-37.44
-36.85
-36.19
-36.15
-37.29
-39.82
-43.6
-48.18
-52.83
-56.7
-58.87
-58.53
-55.14
-48.65
-39.59
-29.09
-18.54
-9.26
-2.09
2.73
5.54
6.96
7.51
7.47
6.82
5.47
3.46
1.14
-0.9
-2.1
-2.13
-1.1
0.59
2.39
3.86
4.78
5.13
5.05
4.65
3.93
2.81
1.15
-1.19
-4.28
-8.15
-12.68
-17.65
-22.61
-26.93
-29.88
-30.78
-29.24
-25.25
-19.24
-11.95
-4.18
3.33
10.08
15.74
20.08
22.87
23.92
23.18
20.82
17.36
13.48
9.91
7.12
5.28
4.24
3.69
3.34
3.04
2.71
2.33
1.84
1.17
0.26
-0.86
-2.14
-3.57
-5.24
-7.42
-10.36
-14.21
-18.8
-23.56
-27.64
-30.05
-30.0
-27.09
-21.5
-13.92
-5.38
3.09
10.66
16.83
21.45
24.53
26.15
26.39
25.43
23.5
21.07
18.65
16.72
15.56
15.21
15.47
16.01
16.52
16.71
16.44
15.64
14.35
12.61
10.56
8.22
5.6
2.65
-0.79
-4.85
-9.65
-15.16
-21.09
-26.86
-31.62
-34.39
-34.34
-31.04
-24.68
-16.1
-6.51
2.84
10.95
17.35
21.95
24.96
26.6
27.01
26.28
24.51
21.97
19.09
16.39
14.37
13.28
13.08
13.53
14.2
14.71
14.73
14.09
12.77
10.88
8.59
6.11
3.65
1.29
-0.95
-3.22
-5.85
-9.16
-13.37
-18.36
-23.53
-27.93
-30.42
-30.11
-26.66
-20.44
-12.35
-3.6
4.72
11.88
17.59
21.87
24.86
26.59
27.03
26.1
23.83
20.54
16.73
13.1
10.22
8.43
7.72
7.8
8.25
8.68
8.83
8.58
7.87
6.74
5.17
3.2
0.86
-1.8
-4.76
-8.08
-11.86
-16.22
-21.15
-26.36
-31.18
-34.68
-35.89
-34.11
-29.23
-21.78
-12.78
-3.4
5.32
12.7
18.38
22.31
24.55
25.25
24.65
23.06
20.85
18.41
16.11
14.29
13.19
12.92
13.4
14.35
15.35
16.08
16.34
16.19
15.72
14.96
13.68
11.55
8.24
3.65
-2.04
-8.45
-15.09
-21.42
-26.9
-30.87
-32.62
-31.55
-27.4
-20.42
-11.44
-1.64
7.78
15.84
21.99
26.07
28.14
28.46
27.27
24.87
21.62
17.93
14.23
10.91
8.22
6.26
5.03
4.4
4.19
4.15
4.02
3.54
2.5
0.8
-1.48
-4.14
-6.93
-9.64
-12.2
-14.76
-17.64
-21.16
-25.44
-30.22
-34.76
-37.96
-38.68
-36.11
-30.09
-21.16
-10.48
0.62
10.92
19.61
26.31
31.0
33.76
34.7
33.94
31.71
28.46
24.78
21.32
18.53
16.58
15.3
14.42
13.67
12.91
12.15
11.4
10.68
9.86
8.77
7.27
5.28
2.87
0.15
-2.79
-5.98
-9.59
-13.86
-18.88
-24.35
-29.52
-33.22
-34.27
-31.86
-25.89
-17.06
-6.65
3.93
13.51
21.42
27.44
31.61
34.02
34.72
33.77
31.39
28.01
24.34
21.03
18.58
17.13
16.48
16.28
16.24
16.24
16.25
16.27
16.17
15.71
14.6
12.7
10.08
7.0
3.76
0.53
-2.76
-6.35
-10.57
-15.57
-21.13
-26.6
-30.98
-33.17
-32.31
-28.11
-20.95
-11.76
-1.82
7.68
15.86
22.24
26.74
29.44
30.46
29.93
28.0
24.97
21.25
17.45
14.13
11.72
10.38
9.99
10.15
10.43
10.5
10.18
9.49
8.52
7.36
5.97
4.3
2.24
-0.24
-3.19
-6.62
-10.53
-14.79
-19.07
-22.82
-25.31
-25.81
-23.89
-19.49
-13.04
-5.3
2.85
10.57
17.22
22.38
25.85
27.63
27.87
26.81
24.78
22.1
19.1
16.12
13.47
11.43
10.16
9.63
9.63
9.77
9.65
8.97
7.66
5.86
3.85
1.86
0.03
-1.75
-3.71
-6.13
-9.25
-13.12
-17.62
-22.37
-26.79
-30.13
-31.68
-30.86
-27.44
-21.66
-14.16
-5.87
2.26
9.43
15.1
19.06
21.3
21.98
21.31
19.64
17.32
14.78
12.38
10.36
8.83
7.79
7.17
6.88
6.82
6.86
6.8
6.46
5.67
4.36
2.61
0.55
-1.7
-4.07
-6.61
-9.42
-12.61
-16.28
-20.41
-24.77
-28.91
-32.13
-33.66
-32.85
-29.4
-23.5
-15.84
-7.35
1.01
8.45
14.44
18.75
21.3
22.25
21.83
20.39
18.3
15.86
13.3
10.81
8.55
6.69
5.38
4.72
4.63
4.93
5.34
5.58
5.4
4.74
3.62
2.18
0.56
-1.12
-2.87
-4.82
-7.19
-10.22
-14.02
-18.48
-23.16
-27.41
-30.41
-31.39
-29.89
-25.88
-19.77
-12.35
-4.55
2.79
9.06
13.93
17.31
19.21
19.73
19.01
17.26
14.82
12.08
9.41
7.08
5.2
3.75
2.7
2.03
1.73
1.74
1.87
1.86
1.41
0.42
-1.02
-2.63
-4.1
-5.3
-6.32
-7.49
-9.19
-11.76
-15.23
-19.34
-23.49
-26.84
-28.49
-27.71
-24.23
-18.25
-10.54
-2.1
6.05
13.12
18.7
22.7
25.2
26.31
26.14
24.76
22.31
19.09
15.56
12.29
9.79
8.37
8.02
8.43
9.12
9.65
9.69
9.17
8.19
6.92
5.48
3.94
2.21
0.18
-2.27
-5.24
-8.77
-12.72
-16.79
-20.4
-22.85
-23.43
-21.69
-17.65
-11.78
-4.92
1.97
8.07
12.89
16.29
18.35
19.3
19.32
18.59
17.26
15.53
13.59
11.7
10.09
8.92
8.23
7.89
7.63
7.15
6.23
4.82
3.05
1.1
-0.89
-2.89
-5.07
-7.6
-10.68
-14.44
-18.89
-23.95
-29.34
-34.54
-38.77
-41.17
-40.98
-37.86
-32.02
-24.19
-15.43
-6.81
0.81
6.89
11.22
13.82
14.86
14.58
13.25
11.22
8.86
6.51
4.47
2.96
2.03
1.62
1.56
1.64
1.67
1.52
1.16
0.57
-0.21
-1.2
-2.4
-3.9
-5.83
-8.39
-11.75
-15.93
-20.69
-25.48
-29.47
-31.77
-31.69
-28.93
-23.73
-16.77
-8.97
-1.21
5.8
11.65
16.15
19.27
21.0
21.41
20.65
19.0
16.87
14.75
13.01
11.86
11.26
11.04
10.96
10.81
10.5
10.01
9.33
8.44
7.3
5.88
4.15
2.16
-0.06
-2.52
-5.27
-8.41
-11.99
-15.88
-19.67
-22.66
-24.07
-23.24
-19.94
-14.49
-7.62
-0.35
6.46
12.23
16.76
20.06
22.19
23.13
22.83
21.29
18.73
15.62
12.58
10.18
8.75
8.26
8.38
8.65
8.64
8.17
7.24
6.03
4.68
3.26
1.75
0.06
-1.92
-4.24
-6.95
-10.12
-13.74
-17.68
-21.57
-24.83
-26.7
-26.55
-24.07
-19.39
-13.13
-6.14
0.67
6.55
11.06
13.98
15.35
15.31
14.11
12.02
9.43
6.71
4.28
2.47
1.39
0.98
0.97
1.04
0.96
0.63
0.13
-0.36
-0.71
-0.93
-1.17
-1.76
-2.99
-5.06
-7.97
-11.46
-14.98
-17.83
-19.3
-18.87
-16.36
-12.01
-6.42
-0.36
5.43
10.39
14.21
16.78
18.11
18.23
17.24
15.27
12.58
9.56
6.64
4.22
2.49
1.44
0.84
0.43
-0.03
-0.6
-1.18
-1.68
-2.05
-2.42
-3.05
-4.24
-6.13
-8.74
-11.93
-15.48
-19.16
-22.62
-25.4
-26.91
-26.57
-24.0
-19.25
-12.85
-5.75
1.04
6.71
10.82
13.35
14.55
14.68
13.97
12.53
10.49
8.02
5.45
3.15
1.45
0.5
0.19
0.23
0.2
-0.22
-1.18
-2.58
-4.17
-5.64
-6.74
-7.44
-7.86
-8.32
-9.07
-10.31
-12.05
-14.15
-16.28
-17.94
-18.59
-17.67
-14.81
-9.96
-3.44
4.05
11.57
18.24
23.33
26.51
27.78
27.41
25.76
23.2
20.01
16.41
12.62
8.86
5.35
2.29
-0.27
-2.38
-4.22
-6.01
-7.89
-9.92
-12.06
-14.24
-16.44
-18.65
-20.88
-23.13
-25.43
-27.81
-30.39
-33.34
-36.74
-40.44
-43.98
-46.55
-47.34
-45.8
-41.88
-36.15
-29.55
-23.06
-17.42
-12.95
-9.63
-7.24
-5.62
-4.69
-4.46
-4.85
-5.61
-6.36
-6.62
-6.06
-4.63
-2.59
-0.39
1.51
2.84
3.61
4.05
4.43
4.89
5.39
5.72
5.64
4.98
3.69
1.85
-0.41
-2.89
-5.3
-7.22
-8.13
-7.56
-5.27
-1.35
3.74
9.29
14.63
19.17
22.61
24.8
25.76
25.56
24.33
22.34
19.92
17.51
15.49
14.14
13.46
13.26
13.2
12.95
12.34
11.37
10.19
8.96
7.81
6.72
5.57
4.14
2.22
-0.34
-3.53
-7.1
-10.53
-13.17
-14.33
-13.59
-10.91
-6.69
-1.63
3.5
8.08
11.77
14.41
16.02
16.61
16.21
14.85
12.68
9.99
7.15
4.59
2.65
1.49
1.05
1.08
1.21
1.1
0.54
-0.46
-1.73
-3.07
-4.29
-5.4
-6.52
-7.89
-9.75
-12.22
-15.25
-18.57
-21.64
-23.8
-24.41
-23.03
-19.63
-14.61
-8.72
-2.84
2.28
6.23
8.93
10.54
11.32
11.4
10.83
9.64
7.9
5.84
3.81
2.13
0.97
0.28
-0.18
-0.69
-1.45
-2.51
-3.79
-5.13
-6.42
-7.66
-8.94
-10.37
-12.08
-14.12
-16.55
-19.39
-22.62
-26.13
-29.61
-32.57
-34.4
-34.6
-32.9
-29.47
-24.84
-19.77
-15.06
-11.26
-8.66
-7.25
-6.8
-7.04
-7.76
-8.82
-10.1
-11.51
-12.89
-14.05
-14.85
-15.28
-15.41
-15.41
-15.42
-15.49
-15.63
-15.76
-15.87
-15.93
-15.97
-16.01
-16.03
-16.07
-16.17
-16.48
-17.12
-18.17
-19.58
-21.08
-22.22
-22.45
-21.24
-18.28
-13.53
-7.28
-0.13
7.17
13.89
19.44
23.51
26.01
27.05
26.82
25.6
23.69
21.43
19.21
17.34
16.02
15.27
14.93
14.67
14.24
13.45
12.31
11.0
9.71
8.59
7.6
6.57
5.26
3.48
1.16
-1.6
-4.64
-7.71
-10.55
-12.78
-13.99
-13.77
-11.84
-8.26
-3.43
1.96
7.17
11.64
15.07
17.38
18.63
18.88
18.19
16.68
14.57
12.18
9.86
7.93
6.55
5.75
5.44
5.47
5.68
5.93
6.09
6.07
5.79
5.16
4.11
2.57
0.52
-2.02
-4.91
-7.88
-10.45
-12.13
-12.42
-11.08
-8.18
-4.11
0.5
5.05
9.08
12.38
14.92
16.66
17.55
17.49
16.44
14.54
12.14
9.72
7.72
6.4
5.76
5.57
5.45
5.1
4.34
3.25
2.05
0.99
0.25
-0.22
-0.61
-1.28
-2.59
-4.72
-7.63
-10.99
-14.23
-16.67
-17.69
-16.9
-14.27
-10.1
-4.94
0.52
5.69
10.09
13.46
15.71
16.87
17.05
16.43
15.24
13.77
12.27
10.92
9.82
8.95
8.21
7.48
6.68
5.8
4.88
3.99
3.19
2.49
1.82
1.1
0.23
-0.89
-2.33
-4.18
-6.47
-9.2
-12.19
-15.07
-17.31
-18.3
-17.61
-15.12
-11.15
-6.27
-1.18
3.59
7.72
11.1
13.75
15.67
16.85
17.26
16.98
16.13
14.95
13.69
12.56
11.71
11.18
10.93
10.83
10.75
10.57
10.23
9.78
9.23
8.64
7.94
7.07
5.96
4.59
2.96
1.08
-1.1
-3.65
-6.52
-9.46
-11.96
-13.42
-13.28
-11.35
-7.86
-3.43
1.12
5.1
8.06
9.95
10.96
11.34
11.29
10.85
10.03
8.85
7.44
5.96
4.6
3.48
2.63
2.09
1.82
1.81
1.99
2.22
2.33
2.16
1.61
0.74
-0.3
-1.41
-2.53
-3.7
-5.07
-6.75
-8.85
-11.36
-14.17
-16.97
-19.29
-20.6
-20.44
-18.62
-15.25
-10.84
-6.03
-1.52
2.19
4.83
6.33
6.85
6.59
5.85
4.89
3.95
3.11
2.43
1.91
1.59
1.53
1.76
2.24
2.76
3.05
2.92
2.33
1.43
0.52
-0.18
-0.6
-0.91
-1.39
-2.3
-3.74
-5.66
-7.87
-10.13
-12.2
-13.79
-14.59
-14.26
-12.59
-9.63
-5.75
-1.54
2.38
5.55
7.81
9.19
9.78
9.63
8.76
7.26
5.4
3.54
2.04
1.06
0.58
0.38
0.24
0.04
-0.22
-0.49
-0.79
-1.22
-1.91
-2.92
-4.17
-5.49
-6.72
-7.79
-8.79
-9.96
-11.5
-13.45
-15.57
-17.4
-18.36
-18.0
-16.15
-13.0
-8.99
-4.69
-0.63
2.84
5.54
7.4
8.45
8.71
8.24
7.13
5.55
3.78
2.11
0.83
0.09
-0.09
0.16
0.64
1.17
1.66
2.07
2.37
2.53
2.46
2.09
1.37
0.39
-0.71
-1.77
-2.71
-3.58
-4.55
-5.86
-7.61
-9.68
-11.67
-13.01
-13.14
-11.76
-8.95
-5.16
-1.05
2.74
5.83
8.11
9.7
10.7
11.14
10.88
9.75
7.71
5.04
2.18
-0.36
-2.21
-3.33
-3.86
-4.08
-4.2
-4.29
-4.32
-4.25
-4.11
-3.95
-3.89
-3.98
-4.28
-4.75
-5.36
-6.02
-6.68
-7.31
-8.0
-8.96
-10.38
-12.3
-14.47
-16.32
-17.14
-16.43
-14.09
-10.49
-6.34
-2.38
0.92
3.42
5.21
6.47
7.23
7.39
6.84
5.54
3.69
1.65
-0.16
-1.44
-2.05
-2.07
-1.7
-1.18
-0.63
-0.1
0.49
1.21
2.04
2.89
3.58
3.94
3.84
3.24
2.21
0.83
-0.82
-2.7
-4.78
-6.96
-9.04
-10.68
-11.47
-11.07
-9.32
-6.36
-2.64
1.24
4.71
7.45
9.5
11.11
12.57
14.05
15.44
16.49
16.89
16.52
15.46
13.94
12.23
10.51
8.92
7.55
6.49
5.78
5.38
5.13
4.77
4.1
3.09
1.87
0.69
-0.3
-1.15
-2.13
-3.61
-5.87
-8.93
-12.49
-15.99
-18.74
-20.11
-19.72
-17.53
-13.92
-9.52
-5.1
-1.34
1.35
2.9
3.43
3.21
2.47
1.34
-0.06
-1.62
-3.08
-4.21
-4.73
-4.55
-3.78
-2.75
-1.84
-1.42
-1.59
-2.26
-3.18
-4.1
-4.92
-5.76
-6.88
-8.46
-10.55
-13.01
-15.68
-18.47
-21.41
-24.51
-27.56
-30.04
-31.23
-30.52
-27.73
-23.18
-17.67
-12.05
-6.97
-2.7
0.81
3.7
6.1
7.94
9.04
9.27
8.62
7.26
5.55
3.93
2.79
2.36
2.63
3.4
4.32
5.08
5.44
5.33
4.81
3.94
2.81
1.39
-0.37
-2.58
-5.28
-8.5
-12.17
-16.16
-20.24
-24.04
-27.11
-28.89
-28.92
-26.95
-23.06
-17.7
-11.58
-5.45
0.08
4.61
7.97
10.13
11.15
11.09
10.11
8.45
6.43
4.41
2.68
1.42
0.66
0.3
0.19
0.16
0.04
-0.27
-0.84
-1.69
-2.8
-4.15
-5.69
-7.39
-9.23
-11.24
-13.5
-16.1
-19.11
-22.41
-25.66
-28.29
-29.59
-28.98
-26.17
-21.38
-15.21
-8.49
-1.98
3.81
8.67
12.58
15.55
17.51
18.37
18.08
16.79
14.82
12.65
10.7
9.26
8.38
7.97
7.85
7.86
7.88
7.85
7.71
7.36
6.74
5.77
4.49
2.95
1.26
-0.59
-2.7
-5.26
-8.42
-12.09
-15.87
-19.04
-20.78
-20.47
-17.89
-13.33
-7.44
-1.03
5.21
10.84
15.64
19.46
22.14
23.5
23.38
21.82
19.08
15.7
12.34
9.6
7.85
7.11
7.12
7.41
7.58
7.4
6.85
6.07
5.17
4.2
3.02
1.47
-0.58
-3.16
-6.2
-9.64
-13.37
-17.22
-20.8
-23.56
-24.81
-23.97
-20.81
-15.57
-8.96
-1.88
4.78
10.43
14.79
17.85
19.7
20.44
20.18
19.08
17.36
15.36
13.41
11.77
10.55
9.72
9.19
8.86
8.6
8.36
8.01
7.46
6.66
5.62
4.38
3.0
1.5
-0.19
-2.2
-4.7
-7.81
-11.53
-15.63
-19.61
-22.77
-24.33
-23.7
-20.69
-15.61
-9.14
-2.16
4.56
10.48
15.27
18.8
21.01
21.89
21.53
20.14
18.11
15.82
13.65
11.79
10.33
9.27
8.6
8.31
8.33
8.53
8.66
8.46
7.71
6.35
4.51
2.44
0.36
-1.66
-3.71
-6.02
-8.82
-12.21
-16.05
-19.95
-23.32
-25.44
-25.77
-23.97
-20.13
-14.68
-8.3
-1.73
4.41
9.71
13.94
17.0
18.86
19.53
19.09
17.74
15.78
13.6
11.55
9.88
8.7
7.96
7.52
7.15
6.68
5.99
5.09
4.08
3.08
2.14
1.25
0.29
-0.9
-2.45
-4.51
-7.15
-10.43
-14.27
-18.4
-22.25
-25.07
-26.11
-24.88
-21.42
-16.28
-10.36
-4.57
0.45
4.39
7.25
9.14
10.12
10.18
9.31
7.65
5.49
3.24
1.33
0.05
-0.53
-0.5
-0.11
0.41
0.87
1.16
1.26
1.16
0.82
0.2
-0.76
-2.09
-3.82
-5.9
-8.35
-11.11
-14.08
-17.03
-19.6
-21.32
-21.75
-20.61
-17.87
-13.81
-8.86
-3.58
1.56
6.13
9.82
12.45
13.91
14.22
13.48
11.93
9.87
7.68
5.72
4.3
3.61
3.65
4.22
5.0
5.65
5.96
5.85
5.45
4.89
4.3
3.56
2.48
0.73
-1.82
-5.09
-8.74
-12.16
-14.69
-15.75
-15.03
-12.5
-8.48
-3.48
1.86
6.97
11.36
14.75
16.98
17.99
17.81
16.57
14.5
12.03
9.64
7.77
6.65
6.23
6.18
6.1
5.69
4.91
3.97
3.13
2.62
2.38
2.18
1.62
0.35
-1.86
-4.98
-8.72
-12.62
-16.06
-18.37
-19.03
-17.74
-14.57
-9.9
-4.37
1.39
6.81
11.54
15.39
18.21
19.9
20.39
19.78
18.31
16.38
14.41
12.72
11.42
10.42
9.55
8.62
7.55
6.38
5.19
4.09
3.12
2.25
1.36
0.26
-1.22
-3.25
-5.89
-9.08
-12.67
-16.25
-19.29
-21.17
-21.33
-19.45
-15.64
-10.4
-4.48
1.29
6.29
10.18
12.9
14.57
15.34
15.33
14.65
13.46
11.99
10.51
9.27
8.45
8.06
7.96
7.94
7.78
7.37
6.72
5.94
5.18
4.47
3.79
2.98
1.89
0.36
-1.66
-4.18
-7.15
-10.44
-13.77
-16.67
-18.52
-18.71
-16.85
-12.94
-7.43
-1.1
5.18
10.67
14.91
17.74
19.25
19.64
19.16
18.09
16.64
15.04
13.42
11.93
10.66
9.67
9.0
8.64
8.52
8.5
8.41
8.09
7.43
6.41
5.09
3.59
2.07
0.64
-0.68
-1.93
-3.22
-4.67
-6.41
-8.51
-10.99
-13.74
-16.47
-18.71
-19.85
-19.35
-16.93
-12.69
-7.19
-1.22
4.38
9.0
12.32
14.39
15.46
15.85
15.81
15.5
15.03
14.49
13.93
13.47
13.16
13.05
13.1
13.29
13.58
13.97
14.5
15.13
15.75
16.19
16.24
15.79
14.89
13.69
12.43
11.34
10.51
9.93
9.42
8.68
7.41
5.38
2.53
-0.9
-4.35
-7.07
-8.34
-7.71
-5.16
-1.17
3.45
7.84
11.32
13.58
14.6
14.62
13.9
12.71
11.19
9.47
7.67
5.99
4.64
3.85
3.77
4.33
5.3
6.33
7.01
7.11
6.58
5.56
4.28
2.89
1.37
-0.4
-2.52
-4.98
-7.58
-10.08
-12.31
-14.32
-16.36
-18.8
-21.83
-25.28
-28.58
-30.95
-31.69
-30.44
-27.39
-23.13
-18.46
-14.01
-10.14
-6.9
-4.2
-1.99
-0.36
0.5
0.47
-0.37
-1.74
-3.21
-4.38
-5.01
-5.09
-4.78
-4.3
-3.84
-3.51
-3.28
-3.1
-2.91
-2.75
-2.71
-2.89
-3.35
-4.06
-4.93
-5.9
-6.92
-8.01
-9.15
-10.22
-10.89
-10.78
-9.6
-7.25
-3.96
-0.17
3.62
7.02
9.8
11.88
13.2
13.72
13.41
12.29
10.56
8.57
6.7
5.27
4.42
4.05
3.9
3.74
3.35
2.73
1.94
1.09
0.24
-0.68
-1.8
-3.28
-5.25
-7.77
-10.76
-13.98
-17.07
-19.51
-20.8
-20.58
-18.82
-15.81
-12.07
-8.23
-4.82
-2.12
-0.25
0.79
1.02
0.42
-0.99
-3.08
-5.52
-7.84
-9.62
-10.64
-10.94
-10.78
-10.48
-10.23
-10.07
-9.89
-9.58
-9.15
-8.8
-8.77
-9.31
-10.55
-12.42
-14.73
-17.19
-19.43
-21.09
-21.79
-21.26
-19.36
-16.18
-12.03
-7.35
-2.65
1.62
5.14
7.69
9.19
9.65
9.14
7.84
6.0
3.86
1.72
-0.2
-1.68
-2.64
-3.11
-3.23
-3.22
-3.27
-3.56
-4.13
-4.95
-5.96
-7.09
-8.37
-9.85
-11.61
-13.7
-16.11
-18.71
-21.24
-23.28
-24.28
-23.73
-21.38
-17.34
-12.15
-6.59
-1.45
2.71
5.68
7.54
8.56
8.96
8.9
8.41
7.52
6.32
4.99
3.74
2.81
2.32
2.22
2.37
2.55
2.6
2.41
1.99
1.31
0.39
-0.78
-2.2
-3.84
-5.63
-7.56
-9.67
-12.04
-14.75
-17.74
-20.75
-23.29
-24.74
-24.5
-22.24
-17.97
-12.12
-5.41
1.37
7.54
12.64
16.5
19.17
20.74
21.35
21.13
20.22
18.86
17.35
15.94
14.86
14.15
13.72
13.46
13.3
13.24
13.37
13.69
14.1
14.34
14.05
12.98
11.05
8.38
5.26
2.03
-1.02
-3.74
-6.07
-8.17
-10.27
-12.72
-15.79
-19.51
-23.54
-27.21
-29.65
-30.12
-28.27
-24.27
-18.76
-12.61
-6.67
-1.54
2.54
5.62
7.86
9.42
10.39
10.76
10.56
9.92
9.06
8.25
7.67
7.37
7.27
7.21
7.12
6.98
6.9
6.92
7.07
7.21
7.14
6.68
5.7
4.24
2.5
0.76
-0.72
-1.77
-2.49
-3.15
-4.18
-5.93
-8.49
-11.55
-14.44
-16.35
-16.66
-15.15
-12.08
-7.99
-3.53
0.81
4.8
8.33
11.33
13.67
15.19
15.8
15.57
14.79
13.83
13.02
12.49
12.2
11.97
11.61
11.03
10.25
9.4
8.65
8.15
7.92
7.83
7.71
7.33
6.58
5.44
4.06
2.59
1.15
-0.24
-1.65
-3.21
-4.98
-7.02
-9.3
-11.78
-14.34
-16.72
-18.52
-19.27
-18.59
-16.31
-12.68
-8.22
-3.57
0.7
4.23
6.94
8.84
10.03
10.57
10.5
9.93
8.98
7.85
6.76
5.89
5.38
5.24
5.44
5.84
6.32
6.72
6.98
7.09
7.05
6.88
6.54
5.97
5.09
3.87
2.32
0.53
-1.35
-3.16
-4.78
-6.28
-7.82
-9.69
-12.07
-14.89
-17.74
-19.97
-20.91
-20.14
-17.66
-13.87
-9.4
-4.84
-0.63
3.03
6.06
8.42
10.1
11.06
11.34
11.04
10.38
9.58
8.86
8.3
7.86
7.46
6.99
6.42
5.87
5.5
5.47
5.76
6.2
6.47
6.27
5.41
3.95
2.12
0.27
-1.34
-2.62
-3.6
-4.47
-5.42
-6.64
-8.24
-10.2
-12.44
-14.68
-16.47
-17.33
-16.83
-14.83
-11.56
-7.52
-3.35
0.42
3.49
5.83
7.53
8.65
9.19
9.14
8.56
7.63
6.59
5.7
5.07
4.71
4.5
4.31
4.15
4.02
4.01
4.14
4.37
4.55
4.53
4.17
3.43
2.36
1.1
-0.24
-1.56
-2.89
-4.32
-5.97
-7.92
-10.11
-12.36
-14.3
-15.55
-15.75
-14.68
-12.3
-8.78
-4.51
0.0
4.22
7.67
10.09
11.38
11.65
11.09
9.93
8.34
6.49
4.57
2.81
1.46
0.72
0.62
1.01
1.62
2.12
2.3
2.12
1.7
1.22
0.84
0.57
0.3
-0.13
-0.9
-2.14
-3.91
-6.22
-8.92
-11.74
-14.2
-15.8
-16.1
-14.87
-12.26
-8.67
-4.63
-0.66
2.94
6.06
8.68
10.83
12.44
13.39
13.54
12.87
11.46
9.58
7.57
5.81
4.57
3.91
3.76
3.88
4.0
3.92
3.58
3.0
2.24
1.35
0.33
-0.79
-2.04
-3.41
-4.93
-6.69
-8.81
-11.24
-13.74
-15.78
-16.72
-16.03
-13.56
-9.63
-4.89
-0.09
4.15
7.55
10.09
11.87
12.97
13.39
13.06
12.01
10.41
8.58
6.89
5.63
4.93
4.74
4.91
5.26
5.68
6.06
6.36
6.55
6.56
6.33
5.8
4.91
3.65
2.01
0.04
-2.23
-4.78
-7.61
-10.71
-13.95
-16.94
-19.14
-19.94
-18.89
-15.94
-11.46
-6.14
-0.75
4.09
8.13
11.35
13.89
15.86
17.26
18.06
18.27
18.04
17.66
17.41
17.55
18.15
19.14
20.31
21.45
22.41
23.08
23.45
23.5
23.28
22.87
22.36
21.86
21.41
21.04
20.66
20.09
19.1
17.49
15.16
12.2
8.96
5.97
3.91
3.4
4.75
7.93
12.47
17.6
22.45
26.28
28.68
29.73
29.87
29.53
28.99
28.31
27.34
25.9
23.9
21.53
19.28
17.88
17.75
19.01
21.48
24.73
28.08
30.64
31.53
30.25
26.99
22.18
16.75
12.11
9.75
10.68
14.69
20.14
24.37
24.64
18.41
4.57
-16.04
-40.83
-66.5
-90.26
-110.45
-126.83
-135.32
-132.38
-116.73
-90.88
-59.87
-28.58
-0.12
24.36
44.63
61.34
74.9
85.59
93.72
99.86
104.73
108.98
113.24
116.93
119.93
121.99
123.13
123.65
124.1
125.14
127.32
131.01
134.52
136.55
136.45
134.41
131.1
127.07
122.31
115.84
109.55
100.85
87.51
69.14
47.23
24.39
2.98
-15.51
-30.5
-42.03
-55.56
-75.61
-103.14
-136.14
-170.78
-203.74
-233.19
-258.88
-281.65
-309.23
-348.28
-400.51
-463.8
-533.37
-604.94
-675.88
-745.31
-777.01
-749.46
-663.7
-542.78
-417.52
-308.87
-224.04
-160.3
-109.67
-62.51
-16.37
21.83
55.59
87.57
118.93
148.7
174.91
196.11
212.3
220.13
217.73
207.31
191.71
175.09
160.7
150.13
143.55
140.31
136.74
129.71
119.08
105.97
92.77
81.5
73.24
67.98
65.1
62.2
57.23
49.86
40.45
30.26
20.45
11.68
3.93
-3.25
-10.98
-19.96
-29.74
-39.18
-46.47
-49.93
-48.52
-42.2
-31.89
-19.22
-6.07
5.93
15.48
21.93
25.19
25.61
23.74
20.17
15.43
10.08
4.71
-0.05
-3.62
-5.72
-6.44
-6.28
-5.91
-5.88
-6.37
-7.18
-7.92
-8.38
-8.72
-9.52
-11.54
-15.46
-21.51
-29.45
-38.44
-47.34
-54.76
-59.42
-60.23
-56.6
-48.5
-36.58
-22.05
-6.41
8.8
22.32
33.27
41.25
46.2
48.39
48.25
46.41
43.58
40.54
38.02
36.49
36.17
36.84
38.08
39.31
40.05
40.03
39.21
37.77
35.92
33.75
31.13
27.69
22.87
16.14
7.28
-3.38
-14.82
-25.42
-33.31
-36.91
-35.39
-28.86
-18.39
-5.55
8.02
21.03
32.68
42.59
50.67
56.76
60.67
62.19
61.3
58.27
53.82
48.96
44.73
41.86
40.55
40.48
40.98
41.42
41.45
41.06
40.47
39.85
39.15
38.05
36.1
32.9
28.23
22.08
14.69
6.61
-1.34
-8.0
-12.09
-12.51
-8.71
-1.01
9.47
21.13
32.35
41.96
49.37
54.52
57.54
58.57
57.67
54.95
50.77
45.78
40.87
36.88
34.36
33.38
33.54
34.16
34.56
34.28
33.17
31.42
29.3
27.08
24.81
22.33
19.3
15.34
10.13
3.6
-4.02
-12.12
-19.72
-25.62
-28.66
-28.03
-23.54
-15.74
-5.72
5.1
15.4
24.23
31.11
36.02
39.14
40.66
40.73
39.45
36.95
33.58
29.88
26.47
23.89
22.4
21.89
21.98
22.15
22.01
21.33
20.12
18.47
16.5
14.31
11.93
9.34
6.49
3.23
-0.65
-5.28
-10.66
-16.45
-21.84
-25.72
-26.89
-24.48
-18.34
-9.14
1.82
12.95
22.94
30.98
36.87
40.81
43.05
43.74
42.91
40.68
37.34
33.51
29.89
27.12
25.49
24.91
24.99
25.21
25.16
24.6
23.47
21.87
19.88
17.53
14.79
11.61
8.01
4.05
-0.17
-4.61
-9.35
-14.53
-20.2
-26.05
-31.33
-34.91
-35.65
-32.78
-26.29
-17.0
-6.31
4.26
13.5
20.77
25.91
29.07
30.48
30.31
28.77
26.18
23.01
19.86
17.28
15.65
15.04
15.21
15.75
16.21
16.22
15.66
14.59
13.27
11.94
10.74
9.58
8.14
6.01
2.87
-1.38
-6.51
-11.97
-16.93
-20.53
-21.95
-20.72
-16.75
-10.39
-2.38
6.38
14.99
22.66
28.81
33.1
35.35
35.6
34.1
31.27
27.7
24.0
20.74
18.33
16.95
16.51
16.75
17.28
17.74
17.85
17.48
16.64
15.39
13.79
11.86
9.53
6.62
2.94
-1.65
-7.12
-13.11
-18.83
-23.23
-25.13
-23.73
-18.84
-11.06
-1.57
8.24
17.2
24.65
30.39
34.51
37.11
38.17
37.59
35.39
31.9
27.73
23.69
20.47
18.44
17.5
17.22
17.01
16.38
15.13
13.38
11.41
9.49
7.68
5.81
3.57
0.68
-2.97
-7.25
-11.95
-16.79
-21.46
-25.56
-28.47
-29.45
-27.78
-23.15
-15.83
-6.69
2.99
11.98
19.37
24.72
28.05
29.59
29.66
28.57
26.57
23.94
20.95
17.9
15.06
12.68
10.95
9.96
9.65
9.79
10.07
10.14
9.76
8.83
7.36
5.43
3.16
0.63
-2.05
-4.81
-7.62
-10.58
-13.85
-17.67
-22.1
-26.87
-31.31
-34.4
-35.06
-32.56
-26.81
-18.46
-8.74
0.96
9.45
16.02
20.53
23.19
24.4
24.53
23.82
22.49
20.74
18.82
17.01
15.51
14.39
13.65
13.2
12.91
12.65
12.23
11.46
10.19
8.36
6.05
3.47
0.87
-1.63
-4.04
-6.58
-9.56
-13.3
-18.0
-23.66
-30.0
-36.43
-42.06
-45.94
-47.25
-45.58
-41.13
-34.63
-27.17
-19.87
-13.61
-8.84
-5.61
-3.72
-2.81
-2.62
-2.97
-3.73
-4.75
-5.76
-6.4
-6.3
-5.26
-3.33
-0.81
1.84
4.18
5.93
7.03
7.59
7.77
7.63
7.19
6.3
4.82
2.61
-0.37
-4.02
-8.0
-11.76
-14.58
-15.8
-14.98
-12.11
-7.62
-2.24
3.22
8.1
11.99
14.72
16.25
16.49
15.45
13.18
9.96
6.27
2.72
-0.16
-2.04
-2.89
-3.01
-2.81
-2.7
-2.91
-3.39
-3.98
-4.47
-4.87
-5.37
-6.36
-8.22
-11.15
-15.06
-19.57
-24.09
-27.9
-30.32
-30.81
-29.11
-25.32
-19.91
-13.64
-7.32
-1.69
2.83
6.07
8.06
8.91
8.74
7.7
5.99
3.95
2.01
0.57
-0.12
-0.09
0.39
0.92
1.14
0.9
0.25
-0.65
-1.62
-2.66
-3.89
-5.54
-7.81
-10.79
-14.45
-18.6
-22.87
-26.73
-29.54
-30.65
-29.64
-26.47
-21.48
-15.37
-8.99
-3.05
2.0
5.98
8.88
10.78
11.69
11.59
10.49
8.56
6.18
3.86
2.16
1.43
1.71
2.67
3.78
4.55
4.71
4.29
3.54
2.75
2.07
1.49
0.81
-0.2
-1.73
-3.89
-6.68
-9.96
-13.44
-16.64
-18.97
-19.79
-18.69
-15.6
-10.9
-5.27
0.43
5.48
9.38
12.01
13.47
13.99
13.79
12.99
11.63
9.79
7.63
5.42
3.51
2.12
1.32
0.98
0.8
0.51
-0.12
-1.11
-2.38
-3.78
-5.17
-6.55
-7.97
-9.6
-11.62
-14.29
-17.79
-22.15
-27.11
-32.08
-36.2
-38.52
-38.35
-35.46
-30.18
-23.32
-15.84
-8.66
-2.36
2.78
6.77
9.72
11.77
13.0
13.48
13.3
12.6
11.62
10.67
10.09
10.13
10.86
12.11
13.55
14.74
15.34
15.17
14.28
12.84
11.1
9.24
7.41
5.62
3.87
2.04
-0.03
-2.53
-5.52
-8.81
-11.93
-14.19
-14.94
-13.81
-10.88
-6.66
-1.92
2.63
6.54
9.62
11.86
13.23
13.69
13.15
11.69
9.59
7.28
5.28
3.95
3.39
3.51
4.03
4.64
5.06
5.15
4.86
4.22
3.28
2.16
0.9
-0.46
-1.9
-3.36
-4.77
-6.06
-7.25
-8.5
-10.02
-11.94
-14.11
-16.06
-17.15
-16.75
-14.62
-10.94
-6.39
-1.78
2.17
5.05
6.82
7.7
7.91
7.6
6.85
5.69
4.25
2.78
1.58
0.91
0.84
1.28
1.94
2.56
2.88
2.8
2.29
1.43
0.32
-0.89
-2.08
-3.13
-4.06
-4.96
-6.05
-7.52
-9.44
-11.64
-13.7
-15.07
-15.21
-13.83
-10.92
-6.81
-2.03
2.79
7.09
10.41
12.49
13.25
12.78
11.3
9.15
6.7
4.29
2.19
0.55
-0.58
-1.21
-1.46
-1.43
-1.26
-1.04
-0.89
-0.83
-0.94
-1.26
-1.84
-2.65
-3.62
-4.65
-5.6
-6.37
-6.91
-7.24
-7.44
-7.58
-7.77
-8.06
-8.52
-9.15
-9.99
-11.04
-12.34
-13.92
-15.71
-17.57
-19.2
-20.24
-20.31
-19.16
-16.79
-13.44
-9.51
-5.43
-1.6
1.72
4.37
6.26
7.36
7.68
7.27
6.26
4.88
3.43
2.2
1.37
0.94
0.75
0.54
0.1
-0.68
-1.69
-2.79
-3.83
-4.84
-5.94
-7.3
-9.0
-11.01
-13.26
-15.68
-18.24
-20.95
-23.73
-26.31
-28.25
-29.09
-28.53
-26.62
-23.67
-20.25
-16.93
-14.16
-12.22
-11.18
-11.0
-11.49
-12.47
-13.64
-14.74
-15.48
-15.6
-14.91
-13.26
-10.66
-7.22
-3.26
0.84
4.68
7.98
10.67
12.86
14.73
16.37
17.72
18.56
18.66
17.84
16.15
13.87
11.4
9.19
7.66
7.12
7.71
9.36
11.82
14.64
17.34
19.48
20.76
21.04
20.32
18.69
16.29
13.31
10.03
6.79
3.93
1.68
0.09
-0.99
-1.78
-2.47
-3.14
-3.71
-4.07
-4.17
-4.1
-4.1
-4.45
-5.4
-7.02
-9.24
-11.82
-14.36
-16.44
-17.64
-17.64
-16.34
-13.88
-10.63
-7.06
-3.65
-0.76
1.43
2.84
3.47
3.32
2.41
0.87
-1.04
-2.95
-4.5
-5.44
-5.75
-5.61
-5.27
-4.9
-4.55
-4.15
-3.65
-3.11
-2.73
-2.77
-3.4
-4.65
-6.42
-8.54
-10.81
-13.01
-14.79
-15.76
-15.49
-13.75
-10.65
-6.65
-2.43
1.33
4.19
6.02
6.96
7.19
6.84
5.96
4.58
2.75
0.68
-1.34
-3.03
-4.22
-4.91
-5.22
-5.35
-5.44
-5.58
-5.78
-6.03
-6.36
-6.85
-7.59
-8.7
-10.24
-12.23
-14.56
-16.95
-18.96
-20.06
-19.76
-17.78
-14.25
-9.63
-4.61
0.14
4.2
7.42
9.85
11.6
12.64
12.88
12.2
10.65
8.49
6.11
3.88
1.95
0.23
-1.64
-3.99
-6.96
-10.36
-13.74
-16.56
-18.4
-19.12
-18.87
-18.03
-17.05
-16.32
-16.08
-16.29
-16.69
-16.82
-16.17
-14.35
-11.24
-6.98
-1.96
3.32
8.44
13.1
17.11
20.38
22.84
24.37
24.86
24.3
22.81
20.74
18.56
16.74
15.62
15.23
15.34
15.55
15.51
15.03
14.16
13.06
11.89
10.71
9.41
7.84
5.87
3.43
0.5
-2.86
-6.55
-10.32
-13.79
-16.42
-17.65
-17.11
-14.74
-10.89
-6.21
-1.42
2.87
6.33
8.9
10.69
11.83
12.38
12.38
11.89
11.06
10.16
9.45
9.11
9.1
9.23
9.22
8.88
8.14
7.13
6.06
5.12
4.38
3.83
3.31
2.69
1.84
0.64
-1.06
-3.43
-6.58
-10.44
-14.7
-18.74
-21.79
-23.08
-22.2
-19.1
-14.23
-8.34
-2.29
3.2
7.67
10.98
13.22
14.54
15.08
14.92
14.1
12.71
10.99
9.21
7.68
6.61
6.03
5.81
5.74
5.57
5.14
4.37
3.32
2.08
0.81
-0.38
-1.43
-2.4
-3.37
-4.43
-5.69
-7.22
-9.1
-11.39
-13.96
-16.5
-18.45
-19.16
-18.09
-15.08
-10.42
-4.8
0.93
5.97
9.85
12.39
13.66
13.88
13.2
11.77
9.65
7.0
3.98
0.86
-2.08
-4.63
-6.66
-8.19
-9.29
-10.09
-10.64
-11.0
-11.21
-11.37
-11.63
-12.17
-13.12
-14.5
-16.19
-17.94
-19.48
-20.63
-21.37
-21.89
-22.55
-23.71
-25.54
-27.89
-30.26
-31.89
-32.02
-30.17
-26.27
-20.67
-14.02
-7.07
-0.46
5.32
10.04
13.61
16.06
17.5
18.03
17.73
16.7
15.11
13.26
11.49
10.17
9.46
9.24
9.23
9.0
8.28
7.0
5.23
3.12
0.71
-2.04
-5.19
-8.67
-12.28
-15.76
-18.95
-21.85
-24.58
-27.22
-29.56
-31.18
-31.48
-30.03
-26.78
-22.08
-16.64
-11.23
-6.46
-2.65
0.11
1.93
2.96
3.34
3.19
2.66
1.87
0.96
0.09
-0.62
-1.05
-1.14
-0.9
-0.43
0.12
0.67
1.18
1.71
2.32
2.97
3.51
3.66
3.2
2.0
0.09
-2.36
-5.22
-8.35
-11.71
-15.16
-18.49
-21.26
-22.97
-23.19
-21.72
-18.75
-14.79
-10.56
-6.76
-3.88
-2.08
-1.26
-1.14
-1.43
-1.9
-2.43
-2.99
-3.57
-4.12
-4.58
-4.85
-4.83
-4.45
-3.77
-2.9
-2.07
-1.49
-1.32
-1.57
-2.17
-2.96
-3.8
-4.63
-5.46
-6.35
-7.33
-8.45
-9.75
-11.23
-12.92
-14.74
-16.49
-17.81
-18.26
-17.42
-15.1
-11.41
-6.73
-1.68
3.09
7.08
10.04
11.95
13.0
13.5
13.77
14.05
14.49
15.12
15.84
16.5
16.95
17.12
17.02
16.75
16.49
16.34
16.35
16.42
16.32
15.78
14.61
12.75
10.35
7.7
5.13
2.87
0.98
-0.65
-2.24
-4.08
-6.35
-9.07
-12.07
-14.95
-17.19
-18.24
-17.73
-15.51
-11.74
-6.89
-1.57
3.54
7.89
11.14
13.21
14.24
14.47
14.17
13.53
12.71
11.81
11.04
10.62
10.76
11.5
12.7
14.01
15.06
15.6
15.65
15.37
15.0
14.69
14.39
13.91
13.04
11.71
10.02
8.18
6.4
4.82
3.44
2.17
0.9
-0.47
-2.04
-3.92
-6.21
-8.9
-11.87
-14.74
-16.98
-18.05
-17.58
-15.5
-12.08
-7.83
-3.28
1.1
5.0
8.22
10.7
12.36
13.17
13.18
12.52
11.43
10.19
9.1
8.37
8.15
8.45
9.15
10.09
11.01
11.74
12.18
12.33
12.26
12.0
11.54
10.76
9.57
7.91
5.9
3.7
1.55
-0.39
-2.03
-3.45
-4.77
-6.21
-7.96
-10.17
-12.88
-15.88
-18.76
-20.93
-21.86
-21.2
-18.94
-15.41
-11.12
-6.6
-2.28
1.59
4.89
7.55
9.51
10.67
10.98
10.53
9.55
8.37
7.35
6.76
6.7
7.06
7.59
8.03
8.2
8.12
7.89
7.72
7.7
7.81
7.83
7.5
6.64
5.18
3.29
1.23
-0.69
-2.23
-3.3
-3.95
-4.35
-4.71
-5.28
-6.22
-7.58
-9.3
-11.11
-12.57
-13.19
-12.53
-10.36
-6.78
-2.18
2.85
7.71
11.93
15.28
17.71
19.28
20.09
20.19
19.67
18.64
17.26
15.73
14.13
12.55
11.05
9.71
8.69
8.1
7.94
8.08
8.29
8.31
7.98
7.24
6.1
4.65
2.91
0.94
-1.19
-3.31
-5.31
-7.17
-8.93
-10.76
-12.82
-15.21
-17.88
-20.46
-22.4
-23.25
-22.69
-20.6
-17.03
-12.27
-6.83
-1.31
3.78
8.22
11.56
13.46
13.87
13.15
12.01
11.19
11.23
12.4
14.66
17.0
18.24
17.64
15.46
12.74
10.61
9.72
9.86
10.15
8.23
1.59
-11.47
-31.01
-55.56
-82.75
-110.05
-135.34
-150.5
-148.74
-127.47
-90.49
-45.75
-0.84
39.72
74.4
103.13
126.55
144.47
156.6
162.93
164.53
163.34
161.49
160.59
160.93
162.43
164.04
164.72
163.69
161.12
158.05
155.73
155.16
156.27
158.73
161.59
163.79
163.91
161.03
154.85
145.0
134.46
124.32
115.0
106.38
98.16
88.39
75.77
60.44
43.85
27.95
13.68
1.45
-8.77
-17.19
-27.65
-43.12
-63.96
-88.03
-112.04
-133.87
-152.46
-167.57
-179.23
-193.49
-215.17
-245.17
-280.62
-316.89
-350.89
-381.27
-407.96
-431.53
-460.37
-501.54
-557.25
-624.9
-699.32
-776.08
-852.52
-927.2
-951.37
-895.9
-761.53
-578.2
-383.68
-203.01
-46.4
84.0
188.75
269.55
322.09
342.84
339.4
322.35
301.86
284.41
272.54
266.6
266.39
265.77
259.57
246.66
228.88
209.79
192.47
178.59
168.92
163.8
159.6
153.1
143.41
131.34
118.75
106.95
96.37
87.01
78.96
70.68
61.06
50.19
38.79
27.85
17.93
8.93
0.41
-8.05
-17.35
-27.77
-38.7
-48.75
-56.1
-59.08
-56.76
-49.21
-37.48
-23.37
-8.94
4.08
14.5
21.93
26.56
28.84
29.22
28.05
25.62
22.28
18.49
14.85
11.92
10.1
9.45
9.72
10.48
11.28
11.75
11.7
11.12
10.09
8.69
6.92
4.65
1.71
-2.14
-7.07
-13.15
-20.22
-27.86
-35.24
-41.19
-44.39
-43.69
-38.49
-29.01
-16.26
-1.75
12.93
26.51
38.23
47.75
54.97
59.78
62.07
61.87
59.5
55.66
51.22
47.08
43.86
41.78
40.7
40.22
39.89
39.37
38.48
37.16
35.39
33.14
30.35
26.95
22.89
18.08
12.36
5.51
-2.64
-11.94
-21.65
-30.43
-36.54
-38.44
-35.27
-27.37
-16.0
-3.0
9.9
21.53
31.32
39.12
44.86
48.41
49.64
48.6
45.66
41.54
37.12
33.25
30.52
29.17
29.11
29.94
31.13
32.12
32.48
32.02
30.75
28.87
26.58
24.04
21.23
17.99
14.08
9.22
3.22
-3.87
-11.57
-18.96
-24.71
-27.39
-25.92
-19.94
-9.94
2.79
16.62
30.0
41.78
51.36
58.53
63.32
65.83
66.22
64.77
61.97
58.43
54.82
51.72
49.43
47.98
47.13
46.48
45.63
44.31
42.39
39.9
36.96
33.66
29.99
25.9
21.25
15.94
9.82
2.79
-5.2
-13.99
-23.02
-31.32
-37.52
-40.3
-38.8
-32.96
-23.65
-12.34
-0.67
10.01
18.83
25.48
29.93
32.33
32.9
31.91
29.78
27.02
24.17
21.66
19.77
18.53
17.84
17.58
17.61
17.84
18.17
18.42
18.34
17.59
15.89
13.08
9.28
4.8
0.11
-4.36
-8.4
-12.11
-15.87
-20.18
-25.41
-31.46
-37.65
-42.73
-45.25
-44.01
-38.53
-29.21
-17.26
-4.29
8.2
19.09
27.85
34.41
38.96
41.76
43.05
43.08
42.12
40.47
38.49
36.48
34.68
33.29
32.37
31.93
31.92
32.15
32.4
32.34
31.65
30.1
27.61
24.3
20.47
16.52
12.72
9.2
5.84
2.33
-1.71
-6.57
-12.18
-18.05
-23.2
-26.41
-26.57
-23.08
-16.1
-6.54
4.22
14.73
23.8
30.81
35.59
38.26
39.05
38.18
35.91
32.61
28.8
25.09
22.08
20.12
19.27
19.25
19.61
19.94
19.96
19.7
19.25
18.79
18.34
17.79
16.92
15.48
13.3
10.3
6.42
1.71
-3.66
-9.27
-14.37
-17.95
-19.07
-17.12
-12.1
