2013-07-04 13:21:30
64.0
-0.0
-0.0
-0.0
-0.0
-0.0
-0.0
-0.0
-0.0
-0.0
-0.0
0.0
0.01
0.01
-0.0
-0.03
-0.05
-0.05
0.0
0.13
0.36
0.66
1.01
1.37
1.72
2.06
2.4
2.79
3.24
3.8
4.42
5.06
5.66
6.2
6.68
7.15
7.68
8.31
9.14
10.09
11.04
11.88
12.56
13.14
13.76
14.65
15.96
17.91
20.32
22.9
25.38
27.58
29.57
31.68
34.32
37.81
42.54
48.15
54.1
59.83
64.97
69.58
74.14
79.34
85.71
93.76
103.0
112.62
121.73
129.77
136.75
143.3
150.75
157.77
166.64
177.95
191.79
206.97
220.57
228.25
225.36
208.53
176.87
132.76
80.05
23.07
-34.94
-92.44
-149.16
-205.23
-260.37
-313.74
-363.87
-409.83
-450.91
-486.5
-515.74
-537.23
-549.22
-549.96
-538.37
-514.21
-478.67
-433.88
-382.45
-327.02
-269.84
-212.63
-156.66
-102.95
-52.37
-5.9
35.58
71.43
101.35
125.5
144.38
158.69
169.15
176.37
180.75
182.57
182.07
179.51
175.23
169.65
163.18
156.15
148.81
141.3
133.69
126.02
118.33
110.69
103.16
95.8
88.68
81.83
75.25
68.95
62.95
57.25
51.86
46.78
42.03
37.59
33.45
29.61
26.07
22.81
19.83
17.11
14.67
12.48
10.54
8.83
7.35
6.07
4.97
4.05
3.27
2.62
2.09
1.65
1.3
1.01
0.79
0.61
0.47
0.37
0.29
0.23
0.18
0.16
0.14
0.14
0.14
0.15
0.17
0.2
0.23
0.27
0.31
0.35
0.4
0.44
0.49
0.54
0.59
0.64
0.7
0.76
0.82
0.89
0.97
1.05
1.15
1.25
1.37
1.5
1.65
1.81
1.99
2.2
2.43
2.68
2.95
3.26
3.59
3.96
4.36
4.8
5.28
5.79
6.34
6.93
7.56
8.24
8.96
9.73
10.54
11.4
12.3
13.24
14.25
15.33
16.47
17.67
18.9
20.13
21.32
22.42
23.37
24.08
24.46
24.39
23.75
22.42
20.33
17.46
13.88
9.67
5.05
0.23
-4.55
-9.09
-13.22
-16.83
-19.84
-22.16
-23.78
-24.63
-24.77
-24.3
-23.41
-22.35
-21.34
-20.54
-19.96
-19.51
-19.0
-18.3
-17.36
-16.29
-15.34
-14.74
-14.66
-15.06
-15.73
-16.29
-16.48
-16.2
-15.64
-15.2
-15.32
-16.29
-18.09
-20.36
-22.55
-24.18
-24.97
-25.03
-24.77
-24.83
-25.93
-28.56
-32.91
-38.34
-43.49
-46.27
-44.5
-36.7
-22.85
-4.57
15.29
33.53
47.69
56.64
60.68
61.04
59.27
56.58
53.72
50.93
48.08
45.13
41.78
37.81
33.24
28.38
23.71
19.58
16.05
12.87
9.7
6.32
2.77
-0.8
-4.45
-8.28
-12.37
-16.31
-19.31
-20.41
-19.22
-16.23
-12.85
-10.79
-11.27
-14.56
-19.94
-26.11
-31.67
-35.59
-37.23
-36.3
-32.88
-27.36
-20.53
-13.35
-6.72
-1.19
3.29
7.16
11.1
15.58
20.58
25.59
29.75
32.28
32.7
31.05
27.79
23.6
19.18
14.97
11.2
7.85
4.84
2.05
-0.61
-3.21
-5.82
-8.56
-11.64
-15.13
-19.06
-23.24
-27.41
-31.32
-34.98
-38.54
-42.33
-46.53
-51.1
-55.66
-59.59
-62.28
-63.37
-62.8
-60.86
-57.82
-53.82
-48.78
-42.57
-35.27
-27.33
-19.59
-13.05
-8.62
-6.9
-8.02
-11.76
-17.55
-24.62
-32.14
-39.43
-46.03
-51.93
-57.51
-63.38
-70.02
-77.72
-86.45
-96.07
-106.39
-117.27
-128.55
-140.11
-151.97
-164.27
-177.03
-189.9
-201.95
-211.96
-219.0
-223.17
-225.67
-228.23
-231.94
-236.46
-239.98
-240.15
-235.37
-225.49
-211.56
-194.93
-176.22
-155.15
-131.01
-103.61
-73.81
-43.31
-13.83
13.6
39.17
64.06
89.97
118.36
149.74
183.09
215.51
242.63
259.58
262.66
250.51
224.78
189.6
150.36
111.97
77.73
49.03
25.9
8.11
-4.08
-10.1
-9.69
-3.83
5.21
14.52
21.88
26.77
30.48
35.4
43.66
56.26
72.77
92.08
113.26
135.93
160.02
185.28
210.82
235.33
257.44
276.02
290.26
299.7
304.16
303.88
299.58
292.27
282.76
271.4
257.98
242.16
224.1
204.65
185.25
167.08
150.7
135.79
121.59
107.6
93.86
80.86
69.09
58.67
49.16
39.84
29.98
19.18
7.43
-4.81
-16.76
-27.5
-36.25
-42.75
-47.37
-50.98
-54.49
-58.29
-62.01
-64.71
-65.44
-63.69
-59.65
-54.06
-47.8
-41.58
-35.76
-30.45
-25.69
-21.5
-17.93
-14.98
-12.56
-10.46
-8.52
-6.67
-4.96
-3.46
-2.17
-0.95
0.39
1.96
3.65
5.21
6.31
6.78
6.77
6.64
6.84
7.6
8.87
10.25
11.22
11.31
10.2
7.77
4.02
-0.84
-6.44
-12.17
-17.28
-21.04
-22.94
-22.85
-21.07
-18.24
-14.99
-11.89
-9.2
-6.98
-5.17
-3.7
-2.52
-1.58
-0.83
-0.22
0.23
0.38
0.04
-1.1
-3.19
-6.16
-9.69
-13.32
-16.61
-19.3
-21.41
-23.11
-24.63
-26.11
-27.62
-29.14
-30.69
-32.28
-33.89
-35.47
-36.87
-38.01
-38.89
-39.78
-41.0
-42.81
-45.19
-47.71
-49.65
-50.24
-49.02
-45.97
-41.51
-36.27
-30.74
-25.13
-19.38
-13.44
-7.46
-1.89
2.68
5.85
7.65
8.57
9.26
10.29
11.73
13.31
14.51
15.01
14.83
14.38
14.21
14.78
16.17
18.08
20.01
21.45
22.04
21.76
20.77
19.35
17.76
16.2
14.76
13.44
12.1
10.57
8.63
6.12
3.0
-0.56
-4.24
-7.58
-10.04
-11.17
-10.68
-8.54
-4.97
-0.36
4.88
10.39
15.9
21.21
26.09
30.3
33.63
35.99
37.44
38.15
38.25
37.78
36.7
35.03
32.91
30.62
28.45
26.53
24.73
22.75
20.33
17.45
14.29
11.2
8.36
5.74
3.08
0.08
-3.39
-7.32
-11.59
-16.18
-21.2
-26.74
-32.73
-38.69
-43.93
-47.68
-49.49
-49.3
-47.43
-44.4
-40.68
-36.61
-32.35
-28.06
-23.82
-19.8
-16.1
-12.8
-9.99
-7.71
-6.09
-5.17
-4.95
-5.33
-6.15
-7.25
-8.41
-9.53
-10.46
-11.17
-11.66
-12.08
-12.68
-13.73
-15.5
-18.11
-21.5
-25.35
-29.33
-33.1
-36.56
-39.78
-42.95
-46.25
-49.58
-52.61
-54.83
-55.77
-55.11
-52.75
-48.82
-43.5
-36.97
-29.39
-20.96
-11.94
-2.76
6.11
14.18
21.05
26.52
30.52
33.14
34.56
35.0
34.7
33.93
32.91
31.8
30.68
29.51
28.19
26.64
24.8
22.66
20.24
17.59
14.73
11.73
8.61
5.45
2.31
-0.79
-3.82
-6.8
-9.76
-12.77
-15.8
-18.77
-21.43
-23.43
-24.37
-24.0
-22.31
-19.55
-16.11
-12.33
-8.37
-4.21
0.18
4.71
9.08
12.88
15.71
17.33
17.78
17.29
16.24
15.01
13.92
13.13
12.66
12.47
12.49
12.7
13.1
13.65
14.17
14.37
13.89
12.46
10.08
6.93
3.38
-0.21
-3.51
-6.3
-8.41
-9.85
-10.84
-11.76
-12.99
-14.7
-16.7
-18.49
-19.52
-19.45
-18.3
-16.28
-13.57
-10.1
-5.66
-0.07
6.49
13.43
19.98
25.54
29.88
33.22
35.97
38.45
40.71
42.55
43.64
43.77
42.9
41.23
39.06
36.71
34.44
32.34
30.3
28.12
25.51
22.34
18.69
14.84
11.17
8.0
5.44
3.37
1.48
-0.66
-3.4
-6.93
-11.17
-15.73
-20.03
-23.44
-25.49
-25.92
-24.78
-22.21
-18.53
-14.09
-9.31
-4.71
-0.75
2.23
4.16
5.18
5.55
5.54
5.31
4.95
4.46
3.82
3.0
1.99
0.72
-0.76
-2.38
-4.05
-5.7
-7.38
-9.14
-11.03
-13.0
-15.02
-17.14
-19.51
-22.37
-25.82
-29.8
-34.01
-38.13
-41.84
-44.93
-47.26
-48.7
-49.12
-48.38
-46.41
-43.21
-38.89
-33.59
-27.56
-21.07
-14.5
-8.22
-2.56
2.25
6.18
9.27
11.57
13.01
13.49
12.94
11.42
9.19
6.56
3.89
1.41
-0.74
-2.58
-4.11
-5.34
-6.28
-6.92
-7.32
-7.55
-7.76
-8.03
-8.4
-8.88
-9.51
-10.4
-11.65
-13.34
-15.26
-17.0
-17.99
-17.68
-15.93
-12.95
-9.39
-6.02
-3.49
-2.14
-1.89
-2.42
-3.28
-4.11
-4.7
-5.05
-5.26
-5.47
-5.81
-6.32
-6.94
-7.6
-8.24
-8.86
-9.51
-10.25
-11.05
-11.82
-12.43
-12.94
-13.58
-14.86
-17.31
-21.24
-26.48
-32.29
-37.62
-41.51
-43.51
-43.92
-43.58
-43.47
-44.22
-45.81
-47.53
-48.38
-47.49
-44.51
-39.82
-34.38
-29.43
-26.09
-24.95
-25.94
-28.33
-30.98
-32.76
-33.01
-31.84
-30.09
-29.07
-29.86
-32.72
-36.93
-40.9
-43.04
-42.47
-39.42
-35.06
-30.99
-28.62
-28.65
-30.72
-33.26
-33.58
-28.62
-15.89
5.15
32.43
61.56
87.51
106.7
118.57
125.69
132.15
141.39
154.35
169.3
183.21
193.63
200.12
204.4
209.36
217.51
229.89
245.65
262.53
277.67
288.29
292.17
287.84
274.6
252.51
222.34
185.29
142.73
95.94
46.13
-5.13
-55.38
-101.18
-138.76
-165.26
-179.95
-184.61
-182.84
-178.42
-173.81
-169.5
-164.51
-157.68
-148.73
-138.51
-128.39
-119.29
-111.15
-103.12
-94.34
-84.61
-74.65
-65.65
-58.67
-54.05
-51.28
-49.26
-46.79
-42.96
-37.55
-31.04
-24.45
-18.96
-15.38
-13.89
-13.91
-14.37
-14.21
-12.82
-10.29
-7.28
-4.61
-2.96
-2.6
-3.45
-5.17
-7.37
-9.64
-11.62
-13.06
-13.89
-14.24
-14.33
-14.35
-14.29
-14.0
-13.28
-12.02
-10.22
-8.03
-5.52
-2.76
0.21
3.27
6.16
8.65
10.63
12.27
13.9
15.86
18.31
21.1
23.87
26.2
27.77
28.41
28.16
27.18
25.73
24.13
22.62
21.37
20.29
19.16
17.64
15.5
12.73
9.63
6.66
4.23
2.55
1.49
0.7
-0.26
-1.75
-4.0
-7.08
-10.87
-14.98
-18.69
-21.12
-21.45
-19.3
-14.95
-9.31
-3.62
0.87
3.33
3.51
1.75
-1.23
-4.58
-7.59
-9.85
-11.37
-12.33
-12.95
-13.37
-13.57
-13.55
-13.37
-13.23
-13.3
-13.69
-14.33
-15.07
-15.84
-16.69
-17.78
-19.31
-21.29
-23.56
-25.76
-27.45
-28.27
-28.11
-27.2
-26.04
-25.36
-25.58
-26.72
-28.17
-28.99
-28.34
-25.8
-21.6
-16.46
-11.25
-6.63
-2.9
0.09
2.71
5.3
7.99
10.6
12.78
14.15
14.62
14.43
14.05
14.03
14.59
15.64
16.82
17.76
18.32
18.62
18.9
19.4
20.22
21.29
22.55
23.89
25.24
26.46
27.34
27.57
26.89
25.04
21.82
17.19
11.27
4.6
-1.96
-7.32
-10.65
-11.76
-11.22
-10.11
-9.47
-9.93
-11.57
-14.05
-16.97
-19.99
-22.77
-24.96
-26.12
-25.88
-24.17
-21.37
-18.2
-15.48
-13.78
-13.27
-13.68
-14.44
-14.92
-14.66
-13.58
-11.99
-10.48
-9.47
-8.97
-8.55
-7.67
-6.09
-4.06
-2.28
-1.45
-1.93
-3.56
-5.77
-7.88
-9.31
-9.71
-8.79
-6.3
-2.09
3.65
10.36
17.15
23.2
28.03
31.64
34.31
36.26
37.4
37.35
35.68
32.28
27.55
22.33
17.56
13.97
11.8
10.92
10.96
11.51
12.19
12.67
12.71
12.24
11.45
10.67
10.18
10.03
9.97
9.51
8.14
5.55
1.64
-3.42
-9.22
-15.18
-20.65
-24.98
-27.75
-28.84
-28.42
-26.87
-24.63
-22.09
-19.51
-17.08
-14.8
-12.56
-10.12
-7.36
-4.42
-1.83
-0.26
-0.12
-1.31
-3.14
-4.7
-5.34
-5.01
-4.17
-3.41
-3.02
-2.9
-2.64
-2.0
-1.07
-0.25
0.02
-0.45
-1.61
-3.28
-5.35
-7.8
-10.58
-13.47
-15.99
-17.57
-17.68
-16.03
-12.61
-7.58
-1.25
5.89
13.1
19.48
24.18
26.63
26.88
25.42
23.04
20.43
17.96
15.76
13.75
11.92
10.32
9.08
8.28
7.83
7.6
7.41
7.22
7.02
6.8
6.45
5.75
4.51
2.75
0.83
-0.78
-1.81
-2.39
-3.09
-4.48
-6.73
-9.45
-11.84
-13.09
-12.77
-10.97
-8.15
-4.84
-1.48
1.56
3.89
5.05
4.65
2.58
-0.85
-4.91
-8.74
-11.67
-13.4
-13.94
-13.52
-12.39
-10.76
-8.8
-6.63
-4.47
-2.5
-1.01
-0.21
-0.29
-1.25
-2.93
-4.97
-6.87
-8.23
-8.88
-8.93
-8.77
-8.85
-9.52
-10.81
-12.4
-13.78
-14.38
-13.79
-11.93
-9.12
-5.92
-3.01
-0.79
0.66
1.76
3.02
4.81
7.05
9.2
10.56
10.77
10.04
9.02
8.29
7.88
7.26
5.67
2.74
-1.15
-5.09
-8.05
-9.44
-9.3
-8.09
-6.3
-4.21
-2.02
0.03
1.3
1.02
-1.4
-5.86
-11.5
-16.91
-20.63
-21.75
-20.04
-16.07
-10.89
-5.65
-1.19
2.17
4.63
6.63
8.52
10.39
11.9
12.65
12.36
11.2
9.63
8.17
7.0
5.93
4.59
2.83
1.04
-0.02
0.31
2.06
4.5
6.52
7.14
6.2
4.37
2.74
2.27
3.2
5.04
6.77
7.38
6.24
3.39
-0.59
-4.68
-7.81
-9.13
-8.26
-5.4
-1.17
3.64
8.46
12.94
16.95
20.29
22.72
23.91
23.71
22.27
20.03
17.55
15.21
13.05
10.87
8.47
5.89
3.48
1.65
0.61
0.16
-0.15
-0.71
-1.7
-2.94
-4.15
-5.13
-5.79
-6.17
-6.31
-6.26
-6.16
-6.39
-7.35
-9.32
-12.01
-14.65
-16.16
-15.78
-13.38
-9.54
-5.15
-0.97
2.65
5.72
8.29
10.36
11.8
12.65
13.14
13.65
14.55
15.91
17.6
19.37
20.98
22.21
22.7
22.04
19.93
16.48
12.13
7.47
2.9
-1.47
-5.57
-9.17
-11.74
-12.73
-11.98
-9.99
-7.73
-6.22
-6.0
-6.99
-8.69
-10.54
-12.25
-13.77
-15.04
-15.79
-15.65
-14.47
-12.39
-9.94
-7.74
-6.29
-5.88
-6.48
-7.91
-10.01
-12.63
-15.58
-18.4
-20.45
-20.96
-19.55
-16.43
-12.49
-8.92
-6.59
-5.72
-5.81
-6.11
-6.06
-5.62
-5.11
-4.93
-5.27
-5.97
-6.83
-7.8
-9.13
-11.1
-13.75
-16.7
-19.18
-20.39
-19.8
-17.38
-13.58
-9.13
-4.8
-1.08
1.86
4.16
6.01
7.58
8.92
10.08
11.09
12.03
12.9
13.44
13.23
11.82
8.96
4.87
0.22
-4.02
-7.03
-8.45
-8.59
-8.16
-7.92
-8.27
-9.15
-10.21
-11.17
-12.11
-13.34
-15.2
-17.69
-20.45
-22.96
-24.74
-25.57
-25.34
-23.97
-21.17
-16.65
-10.36
-2.78
5.17
12.38
18.01
21.8
23.99
25.07
25.52
25.63
25.62
25.8
26.51
28.05
30.48
33.5
36.54
38.94
40.17
39.98
38.3
35.28
31.13
26.23
21.17
16.66
13.31
11.36
10.53
10.23
9.8
8.86
7.3
5.22
2.76
-0.02
-2.97
-5.77
-7.89
-8.91
-8.52
-6.84
-4.31
-1.51
1.02
2.86
3.83
3.92
3.37
2.48
1.57
0.9
0.71
1.21
2.49
4.58
7.29
10.22
12.96
15.28
17.19
18.93
20.63
22.15
22.96
22.44
20.22
16.36
11.35
5.84
0.43
-4.49
-8.73
-12.19
-14.92
-17.05
-18.88
-20.63
-22.3
-23.57
-24.05
-23.68
-22.81
-22.11
-22.0
-22.35
-22.44
-21.41
-18.84
-15.0
-10.75
-6.98
-4.25
-2.44
-1.12
0.1
1.3
2.27
2.87
3.09
3.21
3.34
3.36
2.82
1.17
-1.88
-6.24
-11.32
-16.17
-19.91
-22.1
-22.95
-23.09
-23.25
-23.69
-24.26
-24.42
-23.74
-22.09
-19.65
-16.63
-13.05
-8.83
-4.06
0.69
4.47
6.36
6.13
4.43
2.61
2.02
3.31
6.33
10.28
14.08
16.64
17.17
15.32
11.38
6.15
0.63
-4.42
-8.78
-12.65
-16.3
-19.72
-22.41
-23.78
-23.49
-21.83
-19.59
-17.72
-16.85
-17.31
-19.18
-22.5
-27.21
-32.84
-38.4
-42.4
-43.56
-41.35
-36.1
-28.87
-20.84
-12.9
-5.38
1.72
8.44
14.63
19.96
24.12
27.09
29.08
30.46
31.59
32.67
33.83
35.13
36.62
38.26
39.75
40.49
39.69
36.73
31.43
24.26
16.23
8.52
2.08
-2.63
-5.62
-7.35
-8.41
-9.5
-11.26
-14.2
-18.54
-23.91
-29.37
-33.66
-35.73
-35.11
-31.89
-26.36
-18.74
-9.12
2.18
14.29
25.68
34.65
39.94
41.3
39.61
36.27
32.71
29.8
27.86
26.75
26.25
26.17
26.38
26.87
27.67
28.73
29.7
29.91
28.57
25.34
20.54
15.2
10.44
6.92
4.52
2.58
0.44
-2.05
-4.46
-6.06
-6.25
-4.99
-2.72
-0.12
2.25
4.14
5.65
6.98
8.33
9.76
11.21
12.47
13.18
13.08
12.04
10.21
7.8
4.97
1.74
-1.98
-6.12
-10.31
-13.91
-16.14
-16.34
-14.32
-10.52
-5.95
-1.96
0.23
-0.1
-3.03
-8.04
-14.35
-21.19
-28.04
-34.54
-40.42
-45.21
-48.16
-48.56
-46.17
-41.34
-35.02
-28.19
-21.58
-15.55
-10.16
-5.38
-1.12
2.81
6.63
10.57
14.62
18.54
21.91
24.45
26.16
27.21
27.66
27.32
25.71
22.44
17.63
12.09
7.03
3.56
2.14
2.5
3.83
5.0
4.89
2.54
-2.81
-11.43
-22.85
-35.84
-48.44
-58.49
-64.2
-64.57
-59.61
-50.28
-38.19
-25.21
-13.0
-2.63
5.38
11.14
15.07
17.7
19.43
20.48
20.86
20.48
19.45
18.02
16.66
15.72
15.25
15.0
14.44
13.05
10.49
6.86
2.5
-2.24
-7.14
-12.13
-17.0
-21.3
-24.48
-26.28
-26.97
-27.39
-28.42
-30.44
-33.06
-35.21
-35.8
-34.12
-30.12
-24.24
-17.05
-9.05
-0.59
7.97
16.23
23.69
29.95
34.62
37.46
38.33
37.37
35.01
31.92
28.74
25.81
23.14
20.53
17.96
15.78
14.48
14.35
15.17
16.14
16.2
14.61
11.19
6.33
0.73
-5.13
-11.03
-17.08
-23.45
-29.98
-36.12
-40.95
-43.52
-43.04
-39.4
-33.1
-25.11
-16.42
-7.71
0.76
9.0
17.01
24.61
31.4
36.97
41.05
43.69
45.2
46.03
46.65
47.27
47.88
48.11
47.62
46.22
44.06
41.64
39.63
38.5
38.36
38.83
39.16
38.59
36.46
32.36
26.2
18.15
8.71
-1.5
-11.69
-21.1
-28.92
-34.36
-36.6
-34.97
-29.29
-20.13
-8.83
2.77
12.87
20.27
24.63
26.32
26.16
24.94
23.17
21.06
18.61
15.73
12.43
8.89
5.42
2.4
0.05
-1.46
-2.22
-2.43
-2.4
-2.3
-2.11
-1.64
-0.71
0.6
1.87
2.35
1.26
-1.91
-7.12
-13.66
-20.3
-25.63
-28.49
-28.25
-24.89
-18.95
-11.26
-2.7
5.85
13.67
20.33
25.52
29.14
31.24
32.05
31.85
30.85
29.19
26.95
24.22
21.1
17.69
14.07
10.31
6.62
3.43
1.24
0.45
0.97
2.1
2.74
1.72
-1.62
-7.27
-14.65
-23.0
-31.65
-40.19
-48.27
-55.24
-60.25
-62.47
-61.38
-57.1
-50.26
-41.89
-33.18
-25.26
-18.85
-14.11
-10.51
-7.05
-2.7
3.02
9.82
16.76
22.85
27.44
30.35
31.61
31.13
28.61
23.95
17.66
11.07
5.81
3.11
3.18
5.09
7.44
8.87
8.51
5.88
0.72
-7.01
-17.06
-28.62
-40.41
-50.94
-58.86
-63.17
-63.28
-59.08
-50.88
-39.52
-26.25
-12.61
-0.07
10.29
17.98
23.03
25.81
26.87
26.88
26.43
26.06
26.03
26.06
25.65
24.23
21.48
17.43
12.37
6.87
1.53
-3.05
-6.4
-8.2
-8.44
-7.44
-5.85
-4.45
-3.88
-4.48
-6.26
-9.1
-12.77
-17.03
-21.45
-25.37
-27.95
-28.36
-26.26
-21.77
-15.52
-8.26
-0.68
6.82
14.01
20.5
25.83
29.51
31.41
31.86
31.51
31.11
31.14
31.78
32.91
34.33
35.75
36.93
37.59
37.48
36.52
34.71
32.19
29.07
25.38
21.21
16.8
12.57
9.04
6.54
4.97
3.75
2.02
-0.98
-5.58
-11.52
-17.91
-23.58
-27.33
-28.24
-25.96
-20.75
-13.49
-5.42
2.23
8.65
13.62
17.41
20.49
23.12
25.18
26.17
25.6
23.26
19.43
14.81
10.14
6.06
2.82
0.39
-1.39
-2.7
-3.74
-4.76
-6.17
-8.37
-11.65
-16.07
-21.42
-27.42
-33.84
-40.55
-47.35
-53.83
-59.18
-62.4
-62.55
-59.19
-52.61
-43.83
-34.27
-25.24
-17.59
-11.62
-7.11
-3.68
-0.96
1.31
3.12
4.49
5.43
5.99
6.26
6.35
6.31
6.16
5.88
5.48
4.96
4.36
3.71
3.0
2.21
1.23
-0.02
-1.65
-3.7
-6.24
-9.3
-12.88
-16.88
-21.16
-25.58
-29.99
-34.31
-38.23
-41.17
-42.26
-40.58
-35.63
-27.73
-18.05
-8.24
0.31
6.88
11.6
14.87
16.95
17.63
16.6
13.86
10.2
7.02
5.85
7.65
12.35
18.93
25.8
31.35
34.41
34.57
32.09
27.86
23.02
18.6
15.31
13.29
12.29
11.79
11.36
10.66
9.43
7.47
4.53
0.56
-4.15
-8.85
-12.46
-13.87
-12.41
-8.27
-2.36
3.99
9.65
14.18
17.83
21.24
24.9
28.74
32.0
33.6
32.48
28.21
21.18
12.61
4.14
-2.74
-7.06
-8.75
-8.48
-7.43
-6.73
-7.21
-9.21
-12.65
-17.25
-22.58
-28.24
-33.77
-38.68
-42.4
-44.4
-44.41
-42.48
-39.03
-34.71
-30.19
-25.83
-21.69
-17.54
-13.14
-8.5
-3.88
0.26
3.64
6.26
8.48
10.7
13.07
15.39
17.16
17.84
17.05
14.83
11.52
7.63
3.67
0.12
-2.61
-4.26
-4.72
-4.27
-3.42
-2.78
-2.72
-3.16
-3.65
-3.63
-2.96
-2.05
-1.89
-3.61
-7.93
-14.59
-22.54
-29.93
-34.92
-36.27
-33.59
-27.55
-19.59
-11.42
-4.44
0.74
4.25
6.68
8.51
9.91
10.74
11.1
11.48
12.72
15.47
19.72
24.64
28.85
31.17
31.11
29.03
25.87
22.49
19.37
16.52
13.84
11.35
9.36
8.1
7.72
8.1
9.01
10.19
11.41
12.32
12.48
11.51
9.37
6.57
4.04
2.73
3.2
5.34
8.56
12.2
15.91
19.7
23.79
28.22
32.52
35.82
37.29
36.55
34.06
30.93
28.33
27.0
26.87
27.33
27.62
27.26
26.3
25.08
23.75
22.03
19.28
15.01
9.37
3.26
-2.12
-5.84
-7.74
-8.37
-8.53
-8.88
-9.68
-10.88
-12.28
-13.67
-14.82
-15.41
-15.13
-13.79
-11.55
-8.83
-6.16
-3.95
-2.43
-1.63
-1.58
-2.27
-3.57
-5.12
-6.37
-6.89
-6.58
-5.79
-5.1
-4.96
-5.43
-6.11
-6.5
-6.2
-5.19
-3.76
-2.38
-1.4
-0.92
-0.98
-1.67
-3.25
-5.93
-9.7
-14.14
-18.44
-21.84
-23.76
-24.05
-22.86
-20.6
-17.68
-14.62
-12.05
-10.69
-11.19
-13.63
-17.44
-21.53
-24.78
-26.46
-26.41
-24.77
-21.67
-17.17
-11.44
-5.02
1.13
5.79
8.07
7.72
5.26
1.7
-1.97
-4.99
-7.06
-8.14
-8.27
-7.75
-6.95
-6.39
-6.56
-7.86
-10.39
-13.97
-18.21
-22.59
-26.44
-29.06
-29.74
-28.05
-24.05
-18.41
-12.17
-6.35
-1.49
2.46
5.85
8.79
10.89
11.28
9.28
5.02
-0.27
-4.59
-6.12
-4.08
0.88
7.06
12.48
15.6
15.62
12.54
6.94
-0.15
-7.49
-13.75
-17.89
-19.41
-18.49
-15.89
-12.54
-9.22
-6.47
-4.64
-4.05
-4.86
-6.89
-9.5
-11.69
-12.6
-11.84
-9.61
-6.57
-3.28
-0.06
2.95
5.71
8.12
9.97
11.0
11.08
10.3
8.81
6.66
3.86
0.56
-2.68
-4.99
-5.53
-4.04
-0.97
2.65
5.7
7.48
7.94
7.47
6.55
5.35
3.67
1.21
-2.07
-5.74
-8.98
-11.04
-11.64
-10.91
-9.11
-6.42
-2.89
1.29
5.49
8.52
9.16
6.82
1.98
-3.94
-9.08
-12.06
-12.38
-10.39
-6.98
-3.07
0.62
3.58
5.52
6.4
6.43
6.14
6.08
6.63
7.58
8.45
8.65
7.89
6.34
4.39
2.36
0.31
-1.82
-3.96
-5.84
-7.12
-7.63
-7.64
-7.76
-8.52
-9.97
-11.4
-11.57
-9.32
-4.24
2.98
10.85
17.77
22.73
25.57
26.79
27.07
26.94
26.65
26.36
26.29
26.63
27.55
29.0
30.74
32.36
33.4
33.4
31.95
28.75
23.77
17.41
10.44
3.84
-1.5
-5.03
-6.53
-6.04
-3.82
-0.34
3.69
7.31
9.65
10.2
9.15
7.17
5.26
4.16
4.15
5.16
6.84
8.79
10.63
12.03
12.61
11.97
9.75
5.75
0.16
-6.53
-13.44
-19.5
-23.78
-25.69
-25.3
-23.21
-20.35
-17.53
-15.24
-13.45
-11.89
-10.39
-9.14
-8.7
-9.59
-11.94
-15.29
-18.75
-21.5
-23.1
-23.8
-23.97
-23.87
-23.39
-22.33
-20.74
-19.13
-18.12
-18.03
-18.56
-18.81
-17.9
-15.33
-11.24
-6.23
-0.95
4.03
8.17
10.84
11.44
9.62
5.75
0.93
-3.38
-5.91
-6.21
-4.7
-2.33
-0.07
1.48
2.13
1.93
0.87
-1.05
-3.85
-7.43
-11.61
-16.16
-20.79
-25.16
-28.81
-31.15
-31.6
-29.72
-25.4
-19.03
-11.36
-3.29
4.35
11.04
16.54
20.87
23.99
25.89
26.58
26.15
24.88
22.96
20.78
18.67
16.98
15.84
15.13
14.32
12.62
9.33
4.27
-1.86
-7.71
-11.82
-13.27
-12.06
-9.0
-5.23
-1.77
0.75
2.08
2.14
0.83
-1.84
-5.59
-9.89
-13.94
-16.94
-18.34
-17.95
-15.92
-12.72
-8.91
-5.17
-2.02
0.27
1.72
2.45
2.53
1.76
-0.02
-2.77
-5.93
-8.54
-9.67
-8.87
-6.44
-3.19
-0.13
1.96
2.69
2.05
0.34
-2.0
-4.47
-6.47
-7.38
-6.8
-4.58
-0.95
3.51
8.1
12.14
15.04
16.35
15.86
13.73
10.66
7.64
5.57
5.03
6.06
8.36
11.39
14.62
17.54
19.78
21.22
21.99
22.51
23.2
24.23
25.3
25.76
24.98
22.76
19.59
16.38
14.19
13.37
13.62
14.1
14.04
13.08
11.16
8.35
4.51
-0.5
-6.57
-12.94
-18.25
-21.09
-20.6
-16.94
-11.0
-4.0
3.23
10.33
17.17
23.44
28.4
31.17
31.2
28.75
24.77
20.56
17.23
15.17
14.37
14.25
14.32
14.35
14.3
14.23
14.0
13.19
11.24
7.94
3.59
-1.05
-5.13
-8.13
-10.05
-11.36
-12.63
-14.26
-16.35
-18.88
-21.76
-24.92
-28.15
-30.94
-32.49
-32.07
-29.39
-24.71
-18.78
-12.51
-6.54
-1.43
2.52
5.03
5.89
5.03
2.6
-1.02
-5.07
-8.7
-11.15
-12.01
-11.36
-9.83
-8.32
-7.54
-7.73
-8.43
-8.75
-7.83
-5.32
-1.66
2.11
4.72
5.23
3.34
-0.56
-5.53
-10.52
-14.51
-16.77
-16.85
-14.67
-10.48
-4.96
0.87
5.72
8.54
8.85
6.96
3.79
0.36
-2.62
-4.92
-6.6
-7.73
-8.26
-8.03
-7.07
-5.7
-4.41
-3.65
-3.56
-3.92
-4.41
-4.92
-5.57
-6.6
-8.03
-9.4
-10.21
-10.06
-9.12
-8.02
-7.64
-8.63
-11.05
-14.34
-17.64
-20.13
-21.34
-21.17
-19.67
-16.93
-12.97
-7.84
-1.72
4.98
11.77
18.24
24.11
29.25
33.38
36.07
36.7
34.77
30.38
24.33
17.95
12.63
9.3
8.21
8.94
10.65
12.43
13.45
12.96
10.54
6.14
0.3
-6.05
-11.83
-16.37
-19.68
-22.31
-24.98
-27.91
-30.54
-31.67
-30.07
-25.16
-17.43
-8.36
0.27
6.92
10.95
12.74
13.29
13.7
14.71
16.31
17.96
18.99
18.98
18.0
16.38
14.55
12.83
11.16
9.3
6.98
4.2
1.22
-1.37
-2.98
-3.17
-1.95
0.29
2.9
5.07
6.19
5.85
3.96
0.73
-3.37
-7.69
-11.6
-14.49
-16.15
-16.59
-16.16
-15.14
-13.67
-11.69
-9.1
-6.15
-3.63
-2.8
-4.95
-10.83
-20.26
-31.96
-43.89
-53.77
-60.05
-62.38
-61.95
-61.13
-62.73
-68.82
-79.73
-93.69
-107.18
-116.21
-117.94
-111.86
-99.98
-85.94
-73.08
-62.67
-53.33
-41.51
-23.02
5.45
45.15
94.29
147.75
197.84
236.25
256.15
254.44
232.91
197.87
158.34
122.9
96.77
80.66
72.0
66.82
61.68
54.78
45.72
34.96
22.78
8.88
-6.99
-23.63
-38.49
-48.72
-51.93
-47.35
-35.88
-20.03
-3.44
9.81
17.49
20.9
24.06
34.02
53.72
82.52
116.22
148.69
170.69
176.38
164.53
137.19
99.77
58.6
19.14
-16.04
-47.41
-76.74
-104.61
-130.22
-153.81
-175.56
-195.61
-213.47
-228.24
-238.79
-243.75
-241.47
-221.1
-180.51
-127.48
-75.22
-33.65
-5.75
10.38
18.35
21.79
23.47
23.52
21.72
18.22
12.9
6.07
-2.29
-11.72
-20.57
-25.98
-25.98
-18.96
-4.16
17.78
44.57
72.74
99.46
121.73
137.92
147.32
150.5
148.61
142.69
133.4
121.21
106.98
92.14
78.62
67.75
60.4
56.93
57.15
60.01
63.33
64.21
59.85
48.95
32.17
12.14
-7.56
-23.7
-34.61
-40.37
-42.08
-40.86
-37.05
-30.39
-20.51
-7.52
7.88
24.62
41.56
57.69
72.02
83.44
90.69
92.76
89.45
81.92
72.53
63.99
58.05
54.49
51.16
45.02
33.74
16.96
-3.6
-24.9
-44.0
-59.11
-70.07
-77.98
-84.51
-91.2
-98.89
-107.51
-115.98
-122.51
-125.12
-122.39
-114.02
-101.11
-85.8
-70.56
-57.38
-47.16
-39.83
-34.39
-29.53
-23.83
-16.22
-6.18
6.01
19.26
31.88
41.92
47.83
48.86
45.33
38.38
29.7
20.81
12.62
5.17
-2.29
-10.85
-21.37
-33.99
-47.94
-61.72
-73.58
-82.0
-85.94
-84.98
-79.2
-69.39
-57.11
-44.87
-35.93
-33.35
-38.8
-51.63
-68.67
-85.25
-96.86
-100.66
-96.06
-84.41
-67.86
-48.57
-28.27
-8.47
9.34
23.78
33.98
40.26
44.09
47.72
53.14
61.11
70.62
79.27
84.32
84.06
78.79
70.82
63.32
58.72
57.46
57.86
57.23
53.4
45.96
36.17
26.0
17.01
9.59
3.22
-2.82
-8.6
-13.34
-15.91
-15.55
-12.39
-7.34
-1.7
3.55
8.11
12.14
15.95
19.56
22.66
24.79
25.72
25.8
25.84
26.69
28.69
31.39
33.76
34.72
33.67
30.71
26.28
20.83
14.51
7.13
-1.47
-11.22
-21.72
-32.3
-42.16
-50.47
-56.43
-59.55
-59.98
-58.54
-56.75
-56.33
-58.45
-63.32
-70.1
-77.49
-84.15
-89.24
-92.24
-92.77
-90.28
-84.34
-74.91
-62.75
-49.32
-36.34
-25.12
-16.06
-8.73
-2.2
4.46
11.7
19.34
26.73
32.94
37.22
39.36
39.9
40.0
40.93
43.41
47.17
50.99
53.36
53.2
50.36
45.51
39.62
33.27
26.39
18.71
10.29
1.97
-4.98
-9.57
-11.7
-12.23
-12.34
-12.83
-13.55
-13.77
-12.63
-9.83
-5.86
-1.62
2.2
5.48
8.77
12.79
17.99
24.34
31.41
38.75
45.95
52.59
58.06
61.46
61.97
59.13
53.26
45.41
36.9
28.79
21.49
14.75
8.02
0.96
-6.46
-13.95
-21.22
-28.11
-34.54
-40.48
-45.62
-49.47
-51.68
-52.25
-51.6
-50.29
-48.68
-46.53
-43.21
-38.02
-30.8
-22.11
-13.1
-4.95
1.62
6.38
9.48
11.07
11.21
9.88
7.25
3.72
-0.18
-4.01
-7.52
-10.61
-13.21
-15.17
-16.42
-16.94
-16.98
-16.95
-17.31
-18.47
-20.54
-23.44
-26.8
-30.15
-32.93
-34.7
-35.4
-35.34
-35.12
-35.34
-36.38
-38.19
-40.34
-42.08
-42.54
-41.0
-37.14
-31.18
-23.82
-16.0
-8.52
-1.71
4.5
10.37
15.93
20.86
24.5
26.18
25.64
23.12
19.27
14.81
10.35
6.27
2.86
0.32
-1.17
-1.43
-0.54
1.17
3.0
4.1
3.72
1.41
-2.84
-8.66
-15.5
-22.8
-30.14
-37.26
-43.94
-49.85
-54.41
-56.85
-56.42
-52.7
-45.99
-37.27
-27.91
-19.34
-12.54
-7.79
-4.68
-2.5
-0.59
1.29
3.06
4.56
5.89
7.48
9.77
12.88
16.5
19.94
22.44
23.62
23.52
22.5
20.97
19.19
17.31
15.49
14.15
13.75
14.49
16.02
17.36
17.43
15.44
11.38
6.06
0.79
-2.98
-4.08
-1.93
3.36
11.1
20.26
29.85
39.08
47.5
54.75
60.41
63.94
64.94
63.47
60.06
55.55
50.57
45.32
39.68
33.55
27.16
21.05
15.85
11.83
8.79
6.16
3.36
0.08
-3.68
-7.69
-11.64
-15.27
-18.41
-20.97
-23.02
-24.87
-27.02
-29.93
-33.73
-38.08
-42.04
-44.41
-44.04
-40.31
-33.3
-23.84
-13.15
-2.51
7.17
15.55
22.68
28.82
34.04
38.22
41.07
42.41
42.24
40.75
38.34
35.4
32.3
29.31
26.63
24.44
22.76
21.52
20.49
19.32
17.66
15.23
11.94
7.89
3.24
-1.82
-7.2
-12.86
-18.86
-25.24
-31.93
-38.54
-44.35
-48.34
-49.58
-47.55
-42.39
-34.9
-26.2
-17.36
-9.13
-1.84
4.43
9.62
13.66
16.46
18.2
19.34
20.5
22.23
24.85
28.44
32.74
37.26
41.28
43.97
44.71
43.25
39.89
35.35
30.46
25.86
21.84
18.38
15.33
12.55
9.9
7.18
3.98
-0.14
-5.54
-12.1
-19.23
-25.91
-31.08
-33.87
-33.76
-30.78
-25.39
-18.35
-10.43
-2.33
5.5
12.78
19.24
24.51
28.11
29.6
28.78
25.87
21.43
16.23
11.05
6.5
2.86
0.17
-1.81
-3.43
-5.13
-7.18
-9.66
-12.4
-15.04
-17.16
-18.47
-18.88
-18.6
-18.07
-17.87
-18.59
-20.65
-24.06
-28.31
-32.36
-34.98
-35.18
-32.49
-27.18
-20.11
-12.43
-5.18
1.02
5.96
9.79
12.82
15.35
17.56
19.47
21.0
22.08
22.72
23.01
23.0
22.63
21.71
20.04
17.57
14.4
10.89
7.32
3.77
0.14
-3.73
-7.85
-11.89
-15.38
-17.99
-19.87
-21.68
-24.41
-28.85
-35.18
-42.87
-50.73
-57.37
-61.65
-63.04
-61.74
-58.47
-54.19
-49.62
-45.12
-40.64
-35.92
-30.75
-24.99
-18.68
-12.0
-5.26
1.07
6.38
10.27
12.73
14.37
16.3
19.72
25.27
32.58
40.38
47.02
51.28
52.76
51.92
49.58
46.47
43.07
39.68
36.63
34.27
32.82
32.05
31.33
29.92
27.46
24.23
21.09
19.02
18.6
19.8
22.06
24.8
27.67
30.61
33.72
36.92
39.89
42.06
43.01
42.59
40.93
38.37
35.19
31.62
27.8
23.91
20.13
16.55
13.07
9.35
4.97
-0.3
-6.27
-12.38
-17.91
-22.29
-25.33
-27.25
-28.42
-29.19
-29.94
-31.04
-32.86
-35.65
-39.37
-43.42
-46.72
-47.93
-46.01
-40.6
-32.24
-22.25
-12.26
-3.66
2.84
7.33
10.44
12.89
15.06
16.93
18.26
18.95
19.13
19.17
19.39
19.81
20.18
20.12
19.47
18.32
16.95
15.57
13.99
11.85
8.81
4.92
0.63
-3.27
-6.01
-7.19
-7.03
-6.32
-6.13
-7.52
-11.0
-16.37
-22.64
-28.39
-32.29
-33.55
-32.21
-28.97
-24.82
-20.55
-16.56
-12.9
-9.53
-6.57
-4.32
-3.07
-2.77
-2.89
-2.44
-0.38
3.75
9.65
16.25
22.12
25.99
27.1
25.3
20.98
14.97
8.32
2.23
-2.23
-4.42
-4.43
-3.03
-1.43
-0.85
-1.97
-4.89
-9.07
-13.65
-17.68
-20.27
-20.67
-18.35
-13.29
-6.05
2.25
10.26
16.82
21.38
24.08
25.46
26.05
26.07
25.42
23.97
21.87
19.67
18.16
17.96
19.21
21.37
23.48
24.58
24.06
21.83
18.21
13.74
8.94
4.3
0.19
-3.14
-5.66
-7.6
-9.41
-11.65
-14.68
-18.5
-22.69
-26.53
-29.15
-29.94
-28.7
-25.72
-21.6
-17.14
-12.92
-9.26
-6.18
-3.62
-1.55
-0.07
0.74
0.84
0.34
-0.6
-1.89
-3.52
-5.48
-7.59
-9.45
-10.6
-10.86
-10.48
-10.18
-10.76
-12.6
-15.44
-18.58
-21.27
-23.18
-24.51
-25.88
-27.87
-30.73
-34.25
-38.03
-41.69
-44.9
-47.31
-48.46
-47.91
-45.37
-41.09
-35.83
-30.61
-26.24
-22.95
-20.28
-17.45
-13.84
-9.33
-4.38
0.34
4.35
7.56
10.21
12.49
14.44
15.86
16.52
16.28
15.33
14.13
13.27
13.22
14.16
15.92
18.05
19.91
20.83
20.25
17.88
13.71
8.09
1.7
-4.53
-9.56
-12.37
-12.16
-8.6
-2.09
6.29
15.06
22.71
28.34
31.79
33.56
34.38
34.78
34.84
34.31
32.95
30.91
28.78
27.29
26.93
27.62
28.6
28.81
27.28
23.54
17.87
11.08
4.22
-1.85
-6.75
-10.46
-13.25
-15.41
-17.12
-18.52
-19.85
-21.49
-23.93
-27.37
-31.56
-35.56
-38.1
-38.05
-34.97
-29.24
-21.87
-13.91
-6.13
1.08
7.48
12.7
16.26
17.85
17.66
16.47
15.33
14.99
15.55
16.44
16.89
16.51
15.44
14.24
13.31
12.7
12.03
10.89
9.19
7.25
5.54
4.36
3.62
2.87
1.5
-0.85
-4.02
-7.3
-9.69
-10.18
-8.24
-4.1
1.29
6.46
10.07
11.33
10.46
8.44
6.62
6.1
7.36
10.03
13.21
15.85
17.28
17.41
16.55
15.16
13.5
11.51
9.08
6.17
3.0
0.04
-2.2
-3.41
-3.68
-3.43
-3.21
-3.6
-5.07
-7.92
-12.36
-18.32
-25.36
-32.52
-38.47
-41.84
-41.68
-37.86
-31.09
-22.75
-14.23
-6.58
-0.26
4.75
8.66
11.67
13.86
15.42
16.63
17.87
19.45
21.39
23.42
25.01
25.75
25.56
24.55
22.87
20.51
17.3
13.07
7.91
2.26
-3.17
-7.76
-11.17
-13.54
-15.53
-17.98
-21.5
-26.17
-31.35
-35.84
-38.42
-38.35
-35.66
-31.08
-25.49
-19.49
-13.16
-6.25
1.31
9.06
16.03
21.29
24.36
25.55
25.58
25.07
24.23
22.8
20.48
17.33
13.98
11.31
10.03
10.27
11.45
12.58
12.6
10.87
7.26
2.23
-3.53
-9.29
-14.64
-19.42
-23.49
-26.59
-28.14
-27.52
-24.35
-18.96
-12.4
-6.13
-1.35
1.5
2.86
3.63
4.4
5.12
5.16
3.88
1.3
-1.77
-3.99
-4.31
-2.52
0.5
3.24
4.42
3.53
1.07
-1.92
-4.46
-6.14
-7.05
-7.64
-8.3
-9.2
-10.36
-11.87
-14.12
-17.57
-22.37
-28.01
-33.35
-37.05
-38.16
-36.48
-32.3
-26.13
-18.31
-9.05
1.31
11.96
21.67
29.13
33.45
34.59
33.36
31.05
28.83
27.37
26.75
26.67
26.82
26.96
27.0
26.86
26.42
25.38
23.34
19.99
15.26
9.4
2.82
-4.11
-11.32
-18.94
-27.02
-35.16
-42.43
-47.59
-49.53
-47.84
-42.95
-35.93
-28.15
-20.71
-14.31
-9.15
-5.18
-2.16
0.22
2.38
4.73
7.5
10.67
13.98
17.03
19.45
20.99
21.45
20.64
18.39
14.66
9.82
4.66
0.29
-2.35
-2.95
-1.99
-0.61
-0.1
-1.5
-5.27
-11.19
-18.54
-26.17
-32.66
-36.58
-36.72
-32.6
-24.79
-14.8
-4.58
4.13
10.43
14.46
17.05
19.3
22.04
25.6
29.8
33.96
37.3
39.07
38.93
37.08
34.2
31.18
28.64
26.62
24.58
21.89
18.17
13.6
8.8
4.21
-0.16
-4.78
-10.2
-16.6
-23.4
-29.45
-33.5
-34.89
-33.8
-31.15
-28.04
-25.17
-22.57
-19.75
-16.02
-10.94
-4.44
3.02
10.82
18.2
24.48
29.16
31.97
32.9
32.22
30.46
28.24
26.13
24.35
22.89
21.52
20.05
18.35
16.48
14.58
12.66
10.55
7.88
4.3
-0.4
-6.12
-12.54
-19.19
-25.56
-31.16
-35.43
-37.79
-37.7
-34.82
-29.31
-21.74
-13.02
-4.19
3.89
10.58
15.54
18.7
20.12
20.05
18.99
17.52
16.31
15.89
16.57
18.35
20.77
23.02
24.14
23.4
20.55
16.02
10.68
5.53
1.24
-2.04
-4.66
-7.2
-10.12
-13.58
-17.37
-21.0
-23.95
-25.79
-26.24
-25.21
-22.69
-18.77
-13.67
-7.63
-0.98
5.92
12.77
19.29
25.29
30.48
34.42
36.61
36.74
34.93
31.87
28.54
25.62
23.12
20.3
16.29
10.72
4.23
-1.7
-5.52
-6.45
-4.98
-2.64
-1.22
-1.94
-5.06
-9.94
-15.59
-21.2
-26.16
-30.12
-32.72
-33.53
-32.16
-28.43
-22.58
-15.22
-7.22
0.6
7.57
13.18
17.08
19.15
19.61
19.11
18.57
18.85
20.38
22.82
25.21
26.41
25.62
22.86
18.9
14.9
11.87
10.23
9.67
9.5
9.01
7.71
5.48
2.48
-1.08
-4.98
-8.99
-12.78
-15.91
-17.88
-18.39
-17.5
-15.52
-12.94
-10.07
-6.88
-3.0
1.99
8.19
15.17
22.06
27.81
31.61
33.14
32.52
30.13
26.4
21.73
16.4
10.86
5.61
1.21
-1.91
-3.61
-4.19
-4.39
-5.19
-7.5
-11.85
-18.12
-25.56
-32.92
-38.8
-42.05
-42.04
-38.88
-33.34
-26.62
-19.95
-14.27
-9.96
-6.75
-4.02
-1.06
2.53
6.71
11.06
15.08
18.46
21.11
23.07
24.4
25.06
24.96
24.09
22.46
20.14
17.09
13.28
8.77
3.91
-0.73
-4.46
-6.86
-8.03
-8.55
-9.21
-10.61
-12.89
-15.66
-18.27
-20.09
-20.76
-20.23
-18.69
-16.48
-13.95
-11.39
-8.92
-6.51
-3.98
-1.15
1.96
4.97
7.16
7.82
6.61
3.81
0.29
-2.88
-4.89
-5.55
-5.27
-4.7
-4.35
-4.34
-4.46
-4.46
-4.26
-4.09
-4.31
-5.15
-6.59
-8.38
-10.26
-12.05
-13.61
-14.79
-15.29
-14.71
-12.73
-9.31
-4.76
0.35
5.37
9.79
13.32
15.97
17.84
19.09
19.84
20.18
20.18
19.85
19.32
18.76
18.52
19.01
20.56
23.17
26.4
29.37
31.14
31.09
29.15
25.78
21.79
17.92
14.59
11.79
9.28
6.71
3.88
0.64
-2.99
-6.85
-10.65
-14.0
-16.39
-17.33
-16.38
-13.25
-7.88
-0.56
8.05
16.81
24.37
29.52
31.7
31.3
29.55
28.01
27.85
29.35
31.77
33.9
34.64
33.59
31.07
27.87
24.8
22.24
20.02
17.51
13.9
8.5
1.06
-8.23
-18.77
-29.76
-40.43
-50.05
-57.9
-63.17
-65.09
-63.2
-57.6
-49.07
-38.91
-28.5
-18.85
-10.44
-3.3
2.67
7.44
10.97
13.32
14.73
15.61
16.25
16.65
16.54
15.32
12.46
7.58
0.82
-7.25
-15.7
-23.5
-29.91
-34.69
-38.17
-41.07
-44.21
-48.1
-52.75
-57.69
-62.01
-64.69
-64.83
-61.97
-56.21
-48.21
-38.94
-29.39
-20.22
-11.76
-4.07
2.78
8.49
12.57
14.52
14.06
11.32
6.82
1.38
-4.16
-9.22
-13.66
-17.76
-21.94
-26.4
-30.88
-34.73
-37.18
-37.84
-36.76
-34.44
-31.53
-28.68
-26.38
-24.96
-24.67
-25.46
-27.0
-28.58
-29.39
-28.77
-26.47
-22.7
-17.86
-12.36
-6.5
-0.55
5.08
9.86
13.36
15.43
16.3
16.42
16.22
15.88
15.32
14.36
12.86
10.8
8.29
5.49
2.6
-0.15
-2.5
-4.3
-5.67
-6.96
-8.74
-11.51
-15.46
-20.13
-24.53
-27.4
-27.8
-25.49
-21.04
-15.56
-10.18
-5.6
-1.94
1.17
4.23
7.64
11.56
15.98
20.78
25.83
30.88
35.49
39.04
40.83
40.35
37.58
32.99
27.43
21.92
17.23
13.55
10.41
6.89
2.1
-4.33
-12.04
-20.22
-28.13
-35.49
-42.49
-49.27
-55.62
-60.76
-63.71
-63.77
-60.86
-55.41
-48.03
-39.1
-28.7
-16.87
-3.98
9.17
21.5
32.12
40.55
46.83
51.27
54.29
56.19
57.12
57.15
56.27
54.51
51.92
48.63
44.72
40.2
34.96
28.87
21.92
14.32
6.4
-1.72
-10.25
-19.63
-30.07
-40.97
-50.75
-57.27
-58.76
-54.66
-45.99
-34.74
-22.97
-11.76
-1.03
10.01
22.02
34.78
47.2
57.77
65.33
69.57
70.97
70.39
68.49
65.45
61.08
55.17
47.9
39.9
32.09
25.32
20.08
16.33
13.61
11.25
8.52
4.73
-0.73
-8.29
-18.1
-29.7
-41.92
-53.0
-60.98
-64.3
-62.28
-55.31
-44.7
-31.99
-18.41
-4.6
9.35
23.5
37.57
50.73
61.71
69.21
72.37
71.11
66.15
58.79
50.62
43.12
37.35
33.66
31.62
30.19
28.14
24.59
19.43
13.3
7.03
1.26
-4.06
-9.64
-16.47
-25.28
-36.08
-48.03
-59.68
-69.33
-75.55
-77.54
-75.21
-69.17
-60.42
-50.01
-38.85
-27.52
-16.32
-5.3
5.55
16.26
26.7
36.49
45.0
51.57
55.71
57.33
56.87
54.95
52.23
49.06
45.51
41.71
37.98
34.82
32.6
31.37
30.71
29.96
28.45
25.58
20.76
13.35
2.87
-10.63
-26.0
-41.09
-53.12
-59.72
-59.86
-54.19
-44.66
-33.48
-22.16
-11.09
0.17
12.06
24.29
35.62
44.28
48.84
49.06
46.15
42.24
39.4
38.74
39.89
41.4
41.45
38.7
32.7
23.86
12.99
0.92
-11.73
-24.49
-36.92
-48.62
-59.34
-69.12
-78.21
-86.77
-94.47
-100.38
-103.14
-101.39
-94.29
-81.87
-65.01
-45.19
-23.97
-2.66
17.9
37.25
55.0
70.58
83.15
91.6
94.97
92.69
85.04
73.2
58.94
44.26
30.83
19.82
11.76
6.69
4.24
3.73
4.37
5.33
5.98
5.91
4.8
2.41
-1.58
-7.47
-15.27
-24.38
-33.47
-40.66
-44.08
-42.66
-36.63
-27.49
-17.35
-8.13
-0.81
4.8
9.71
14.96
21.08
27.81
34.39
39.99
44.18
47.01
48.79
49.69
49.53
47.77
43.87
37.68
29.62
20.71
12.27
5.5
1.1
-0.92
-1.12
-0.41
0.21
-0.2
-2.52
-7.48
-15.55
-26.6
-39.63
-52.78
-63.81
-70.75
-72.57
-69.46
-62.59
-53.46
-43.23
-32.48
-21.28
-9.72
1.81
12.48
21.26
27.32
30.47
31.09
29.89
27.58
24.7
21.53
18.16
14.68
11.34
8.38
5.98
4.07
2.19
-0.41
-4.62
-11.11
-20.05
-30.86
-42.39
-53.23
-62.16
-68.42
-71.78
-72.39
-70.54
-66.5
-60.52
-52.97
-44.29
-34.88
-24.91
-14.33
-2.95
9.37
22.43
35.68
48.3
59.48
68.47
74.7
77.81
77.76
74.92
69.94
63.65
56.69
49.35
41.63
33.47
25.07
16.97
10.04
5.08
2.51
2.0
2.5
2.47
0.48
-4.17
-11.24
-19.48
-27.16
-32.6
-34.79
-33.62
-29.72
-24.01
-17.3
-10.17
-3.0
3.67
9.11
12.57
13.72
12.94
11.37
10.47
11.29
13.89
17.22
19.58
19.45
16.26
10.6
3.95
-2.12
-6.68
-9.7
-11.91
-14.16
-16.86
-19.84
-22.46
-23.97
-23.91
-22.3
-19.54
-16.37
-13.59
-11.83
-11.4
-12.07
-13.21
-14.0
-13.82
-12.41
-9.96
-6.81
-3.32
0.29
3.84
7.0
9.41
10.82
11.34
11.38
11.45
11.82
12.24
12.1
10.9
8.64
5.93
3.62
2.12
1.18
-0.18
-3.08
-8.24
-15.68
-24.8
-34.92
-45.51
-56.11
-65.92
-73.64
-77.67
-76.78
-70.83
-60.96
-49.22
-37.58
-27.16
-17.97
-9.34
-0.75
7.74
15.43
21.44
25.39
27.64
29.12
30.88
33.61
37.33
41.46
44.98
46.87
46.39
43.18
37.3
29.15
19.38
8.74
-2.02
-12.34
-21.85
-30.31
-37.53
-43.3
-47.32
-49.23
-48.8
-46.08
-41.45
-35.56
-29.11
-22.64
-16.29
-9.9
-3.14
4.16
11.89
19.6
26.61
32.25
35.98
37.43
36.35
32.66
26.48
18.39
9.52
1.3
-4.89
-8.3
-8.98
-7.76
-5.81
-4.09
-3.16
-3.18
-4.16
-6.2
-9.49
-14.13
-19.81
-25.56
-29.92
-31.36
-28.86
-22.34
-12.6
-1.12
10.5
20.79
28.79
34.15
37.17
38.55
39.06
39.18
38.85
37.66
35.24
31.69
27.73
24.38
22.4
21.72
21.44
20.32
17.53
13.12
7.89
2.8
-1.72
-5.87
-10.25
-15.28
-20.98
-26.89
-32.51
-37.54
-41.98
-45.99
-49.64
-52.85
-55.46
-57.32
-58.25
-57.84
-55.37
-50.02
-41.33
-29.66
-16.47
-3.83
6.33
12.89
15.99
16.78
16.71
16.98
18.1
19.86
21.67
23.0
23.73
24.21
25.17
27.31
30.91
35.52
39.95
42.62
42.19
38.02
30.32
20.04
8.55
-2.53
-11.47
-16.56
-16.43
-10.48
0.74
15.75
32.49
49.15
64.82
79.46
93.53
107.27
120.04
130.15
135.24
133.19
123.09
105.58
82.85
57.74
32.8
9.38
-12.64
-34.23
-56.37
-79.1
-101.26
-120.89
-136.07
-145.85
-150.57
-151.85
-151.98
-153.2
-156.95
-163.34
-171.0
-177.43
-179.95
-176.45
-166.1
-149.42
-127.87
-103.24
-77.1
-50.32
-23.21
4.2
31.87
59.4
86.14
111.03
132.75
149.87
161.14
165.76
163.65
155.51
142.61
126.57
109.02
91.43
75.07
60.83
49.19
40.05
32.8
26.37
19.55
11.32
1.18
-10.73
-23.85
-37.23
-49.83
-60.53
-68.26
-72.25
-72.18
-68.37
-61.69
-53.32
-44.29
-35.29
-26.62
-18.47
-11.11
-4.97
-0.46
2.31
3.7
4.49
5.4
6.75
8.18
8.89
8.04
5.21
0.64
-4.85
-10.08
-13.96
-15.74
-15.29
-13.18
-10.51
-8.58
-8.49
-10.83
-15.48
-21.94
-29.44
-37.19
-44.41
-50.21
-53.55
-53.44
-49.26
-41.09
-29.75
-16.56
-2.88
10.32
22.6
33.91
44.35
53.87
62.15
68.61
72.57
73.4
70.73
64.65
55.61
44.42
31.98
19.16
6.74
-4.52
-13.85
-20.63
-24.62
-26.36
-27.13
-28.69
-32.54
-39.39
-48.97
-60.34
-72.39
-84.12
-94.61
-102.6
-106.41
-104.15
-94.55
-77.83
-55.89
-32.0
-9.5
9.37
24.07
35.66
45.78
55.79
65.99
75.83
84.37
90.99
95.6
98.49
99.83
99.28
96.03
89.23
78.5
64.41
48.42
32.48
18.43
7.47
-0.09
-4.85
-8.01
-11.06
-15.47
-22.22
-31.54
-42.63
-53.71
-62.49
-66.88
-65.64
-58.85
-47.83
-34.61
-21.21
-9.05
1.23
9.57
16.09
20.8
23.52
24.08
22.56
19.47
15.65
11.95
8.91
6.51
4.13
0.93
-3.74
-9.93
-16.97
-23.71
-28.87
-31.64
-32.04
-30.96
-29.87
-30.29
-33.25
-38.92
-46.49
-54.4
-60.65
-63.35
-61.16
-53.58
-41.09
-24.93
-6.71
11.94
29.82
46.3
61.14
74.24
85.31
93.9
99.6
102.47
103.11
102.41
101.17
99.6
97.4
93.91
88.7
81.86
74.02
66.05
58.56
51.63
44.74
37.07
27.93
17.06
4.57
-9.22
-24.22
-40.61
-58.67
-78.36
-98.76
-118.0
-133.52
-142.92
-144.64
-138.47
-125.4
-107.04
-85.08
-60.85
-35.47
-9.98
14.47
36.62
55.32
69.75
79.58
84.9
86.14
83.93
78.99
72.24
64.57
56.93
50.09
44.54
40.41
37.49
35.18
32.74
29.39
24.49
17.75
9.22
-0.58
-10.85
-20.63
-29.18
-36.18
-41.82
-46.55
-50.56
-53.56
-54.62
-52.57
-46.66
-37.03
-24.87
-12.01
-0.32
8.93
15.24
18.86
20.41
20.6
20.12
19.5
18.98
18.45
17.43
15.24
11.32
5.55
-1.65
-9.37
-16.65
-22.75
-27.43
-30.83
-33.34
-35.31
-36.96
-38.4
-39.73
-41.16
-43.01
-45.58
-48.98
-52.93
-56.54
-58.47
-57.21
-51.56
-41.24
-27.09
-10.85
5.49
20.44
33.57
45.49
57.28
69.81
83.22
96.79
109.25
119.23
125.88
129.04
129.21
127.21
123.72
118.98
112.82
104.93
95.33
84.63
73.89
64.29
56.47
50.4
45.25
39.96
33.58
25.6
15.81
3.98
-10.11
-26.54
-44.73
-63.14
-79.39
-90.98
-96.21
-94.88
-88.43
-79.18
-69.41
-60.53
-52.86
-45.98
-39.33
-32.56
-25.59
-18.37
-10.62
-1.93
7.96
18.8
29.66
39.1
45.59
48.17
46.73
42.19
36.24
30.87
27.93
28.64
33.35
41.53
51.82
62.41
71.36
76.88
77.59
72.57
61.5
44.82
23.92
1.28
-19.74
-35.47
-42.96
-41.02
-30.95
-16.27
-1.63
8.77
12.57
9.77
2.3
-7.21
-16.74
-25.48
-33.81
-42.58
-52.16
-62.13
-71.25
-78.17
-81.96
-82.29
-79.3
-73.25
-64.47
-53.87
-43.27
-35.42
-33.22
-38.2
-49.52
-63.88
-76.66
-83.92
-83.88
-77.32
-66.61
-54.12
-41.05
-27.14
-11.51
6.15
24.79
42.17
55.64
63.41
65.3
62.77
58.21
53.82
50.81
49.01
47.34
44.24
38.12
27.47
11.29
-10.39
-35.55
-59.96
-78.31
-86.31
-82.76
-70.14
-53.55
-38.26
-27.59
-21.91
-18.93
-14.64
-4.21
16.99
52.03
100.75
158.56
216.89
265.57
296.61
307.02
299.39
279.62
253.6
224.74
193.93
161.27
127.75
96.04
69.14
48.64
33.4
19.68
2.43
-22.84
-58.33
-102.81
-151.12
-195.07
-225.32
-234.41
-219.6
-184.48
-138.2
-92.36
-56.94
-37.09
-32.35
-38.35
-49.76
-62.81
-76.19
-90.09
-104.57
-118.44
-129.2
-134.23
-131.88
-122.23
-106.95
-88.32
-68.37
-48.36
-28.97
-10.66
5.85
19.56
29.38
34.49
34.77
30.92
24.41
17.15
10.95
6.91
5.05
4.32
3.09
-0.07
-5.66
-13.0
-20.55
-26.58
-30.09
-31.16
-30.76
-30.07
-29.98
-30.92
-33.02
-36.5
-41.74
-49.05
-58.29
-68.48
-77.81
-84.0
-85.06
-79.89
-68.76
-53.16
-35.36
-17.77
-2.29
9.97
18.69
24.14
26.83
27.39
26.5
24.98
23.61
22.94
23.07
23.8
24.74
25.67
26.56
27.54
28.81
30.53
32.84
35.66
38.4
39.83
38.28
32.43
22.18
9.06
-4.31
-15.43
-23.17
-28.15
-31.97
-35.85
-39.52
-41.23
-38.88
-31.38
-19.57
-5.93
6.48
15.37
19.93
20.79
19.33
16.9
14.22
11.31
7.74
3.15
-2.5
-8.69
-14.65
-19.67
-23.52
-26.5
-29.3
-32.54
-36.45
-40.7
-44.57
-47.32
-48.53
-48.26
-46.92
-44.98
-42.91
-41.13
-40.0
-39.83
-40.53
-41.46
-41.51
-39.37
-34.03
-25.17
-13.17
1.12
16.57
32.09
46.58
59.04
68.63
74.92
77.97
78.32
76.69
73.59
69.22
63.54
56.56
48.61
40.33
32.4
25.26
18.95
13.16
7.59
2.16
-2.9
-7.24
-10.74
-13.58
-16.34
-19.68
-24.09
-29.7
-36.17
-42.76
-48.42
-52.0
-52.5
-49.4
-42.91
-34.03
-24.38
-15.63
-8.86
-4.09
-0.37
3.75
9.29
16.15
22.84
27.15
27.16
22.28
13.74
4.12
-3.67
-7.76
-7.93
-5.49
-2.39
-0.29
-0.05
-1.69
-4.86
-9.19
-14.35
-20.03
-25.72
-30.83
-34.81
-37.5
-39.1
-40.05
-40.63
-40.56
-38.89
-34.22
-25.49
-12.54
3.42
20.22
35.44
47.37
55.51
60.3
62.51
62.67
60.94
57.46
52.79
48.16
45.04
44.36
46.05
48.99
51.53
52.39
51.04
47.7
42.89
37.01
30.21
22.44
13.77
4.44
-5.04
-14.13
-22.4
-29.69
-36.24
-42.54
-49.2
-56.55
-64.41
-71.95
-77.76
-80.27
-78.31
-71.72
-61.47
-49.43
-37.55
-27.24
-18.94
-12.25
-6.33
-0.47
5.46
11.12
15.84
19.16
21.08
22.14
23.13
24.64
26.89
29.63
32.51
35.24
37.7
39.79
41.23
41.5
39.95
36.04
29.57
20.77
10.07
-1.93
-14.56
-26.92
-37.75
-45.57
-48.89
-46.93
-39.9
-29.14
-16.6
-4.29
6.38
14.89
21.29
25.94
29.07
30.55
30.15
27.78
23.83
19.09
14.48
10.53
7.28
4.22
0.61
-4.1
-10.0
-16.66
-23.23
-28.8
-32.72
-34.84
-35.59
-35.85
-36.53
-38.48
-42.16
-47.6
-54.42
-61.72
-68.09
-71.8
-71.2
-65.19
-53.8
-38.25
-20.58
-2.77
13.81
28.83
42.63
55.64
67.73
77.98
85.2
88.55
88.12
84.85
80.01
74.42
68.2
61.08
52.9
44.13
35.8
28.97
24.14
20.93
18.29
15.03
10.45
4.5
-2.4
-9.86
-17.72
-25.99
-34.67
-43.59
-52.37
-60.24
-66.27
-69.44
-68.91
-64.38
-56.35
-46.16
-35.53
-25.93
-18.05
-11.69
-6.06
-0.27
6.11
12.99
19.88
26.16
31.28
35.01
37.29
38.38
38.66
38.44
37.77
36.44
34.15
30.77
26.6
22.37
18.85
16.5
15.24
14.59
13.81
12.18
8.99
3.6
-4.38
-14.86
-26.95
-38.94
-48.6
-53.79
-53.14
-46.47
-34.78
-19.87
-3.81
11.66
25.33
36.51
44.86
50.14
52.15
50.83
46.53
40.12
32.9
26.16
20.85
17.26
14.99
13.28
11.31
8.46
4.43
-0.77
-6.84
-13.22
-19.27
-24.43
-28.35
-31.13
-33.38
-36.02
-39.93
-45.46
-51.99
-57.81
-60.68
-58.62
-50.94
-38.49
-23.3
-7.64
6.81
19.61
31.3
42.86
54.99
67.62
79.83
89.97
96.36
97.86
94.27
86.33
75.44
63.14
50.69
38.97
28.61
20.15
14.08
10.59
9.23
8.89
8.16
5.75
1.08
-5.74
-14.28
-24.02
-34.53
-45.32
-55.58
-64.1
-69.56
-70.81
-67.25
-59.08
-47.28
-33.47
-19.43
-6.69
3.88
12.19
18.83
24.52
29.72
34.4
38.09
40.28
40.75
39.76
37.91
35.72
33.43
30.88
27.84
24.07
19.79
15.6
12.33
10.82
11.66
14.83
19.47
24.09
26.72
25.46
19.08
7.54
-7.8
-24.43
-39.37
-50.02
-54.88
-53.95
-48.43
-40.19
-31.07
-22.35
-14.52
-7.38
-0.49
6.5
13.45
19.82
24.95
28.38
30.16
30.92
31.48
32.38
33.48
33.96
32.82
29.47
24.11
17.61
11.11
5.46
0.96
-2.65
-5.87
-9.17
-12.95
-17.52
-23.16
-30.11
-38.27
-47.02
-55.09
-60.82
-62.61
-59.46
-51.21
-38.55
-22.81
-5.64
11.36
26.91
40.19
50.97
59.51
66.19
71.18
74.29
75.0
72.81
67.75
60.52
52.32
44.41
37.58
31.96
27.31
23.33
19.96
17.33
15.52
14.17
12.61
9.86
5.22
-1.46
-9.8
-19.08
-28.46
-37.15
-44.5
-49.86
-52.56
-52.05
-48.15
-41.4
-32.89
-24.03
-16.0
-9.32
-3.81
1.1
5.86
10.45
14.35
16.89
17.6
16.45
13.84
10.43
6.96
4.14
2.51
2.38
3.88
6.87
11.01
15.93
21.23
26.34
30.45
32.57
31.72
27.26
19.12
7.91
-5.27
-19.01
-31.78
-42.11
-48.7
-50.78
-48.3
-42.08
-33.59
-24.37
-15.63
-7.88
-1.12
4.84
10.03
14.31
17.52
19.72
21.32
22.83
24.67
26.8
28.69
29.44
28.24
24.69
18.99
11.93
4.53
-2.24
-7.82
-12.21
-15.88
-19.63
-24.2
-30.07
-37.26
-45.37
-53.54
-60.69
-65.58
-67.13
-64.65
-58.12
-48.21
-36.13
-23.2
-10.37
2.12
14.62
27.53
40.55
52.31
60.76
64.06
61.64
54.6
45.29
36.25
29.01
23.67
19.21
14.38
8.71
2.74
-2.36
-5.54
-6.6
-6.24
-5.7
-6.15
-8.2
-11.75
-16.27
-21.22
-26.35
-31.63
-37.08
-42.34
-46.44
-48.18
-46.67
-41.95
-35.14
-27.94
-21.84
-17.25
-13.39
-8.81
-2.49
5.52
13.89
20.79
24.82
25.64
24.05
21.44
19.12
17.81
17.56
17.96
18.53
18.94
19.09
19.22
19.6
20.36
21.18
21.27
19.57
15.13
7.66
-2.29
-13.5
-24.54
-34.1
-41.21
-45.18
-45.5
-41.88
-34.43
-23.91
-11.68
0.55
11.29
19.54
25.08
28.32
29.97
30.68
30.72
30.07
28.56
26.22
23.37
20.52
18.07
15.95
13.62
10.35
5.8
0.34
-5.01
-9.04
-11.03
-11.18
-10.52
-10.31
-11.41
-13.99
-17.72
-22.22
-27.27
-32.63
-37.77
-41.53
-42.17
-38.0
-28.08
-12.75
6.35
26.83
46.25
62.66
74.63
81.29
82.29
78.0
69.62
59.01
48.2
38.76
31.31
25.58
20.78
16.21
11.57
7.0
2.79
-1.0
-4.63
-8.53
-12.99
-18.1
-23.73
-29.67
-35.69
-41.5
-46.67
-50.73
-53.18
-53.66
-52.04
-48.56
-43.81
-38.49
-33.31
-28.74
-24.86
-21.37
-17.69
-13.23
-7.72
-1.4
4.97
10.33
13.81
15.16
14.81
13.83
13.38
14.26
16.68
20.33
24.55
28.55
31.55
32.73
31.43
27.22
20.12
10.63
-0.35
-11.92
-23.39
-34.53
-45.4
-55.92
-65.54
-73.08
-76.95
-75.79
-69.02
-57.3
-42.31
-26.35
-11.51
0.92
10.72
18.36
24.49
29.63
33.86
37.02
38.77
38.96
37.5
34.52
30.22
24.9
19.0
13.01
7.5
2.88
-0.65
-3.25
-5.35
-7.39
-9.67
-12.15
-14.64
-16.96
-19.25
-21.82
-25.02
-28.85
-32.64
-35.26
-35.48
-32.6
-26.56
-18.02
-7.93
2.68
12.85
21.69
28.37
32.36
33.58
32.62
30.55
28.61
27.66
27.86
28.83
29.88
30.45
30.28
29.4
27.8
25.38
21.97
17.51
12.42
7.48
3.64
1.5
1.02
1.37
1.3
-0.42
-4.64
-11.57
-20.72
-31.0
-41.0
-49.16
-54.11
-54.94
-51.47
-44.43
-35.2
-25.59
-17.16
-10.84
-6.7
-4.13
-2.24
-0.3
2.04
4.92
8.28
12.22
16.85
22.04
27.17
31.26
33.4
33.16
30.81
27.07
22.61
17.74
12.25
5.79
-1.81
-10.25
-19.06
-27.73
-35.99
-43.68
-50.47
-55.78
-58.84
-59.06
-56.44
-51.6
-45.62
-39.5
-33.82
-28.45
-22.83
-16.26
-8.46
0.16
8.58
15.45
19.59
20.44
18.28
14.04
9.02
4.37
0.8
-1.54
-2.92
-3.77
-4.55
-5.54
-6.91
-8.76
-11.15
-14.08
-17.49
-21.26
-25.25
-29.31
-33.31
-36.92
-39.58
-40.62
-39.32
-35.19
-28.25
-19.14
-9.1
0.36
7.88
12.75
15.01
15.49
15.43
16.01
17.96
21.18
24.9
28.04
29.92
30.67
31.35
33.3
37.33
43.1
49.05
53.1
53.53
49.79
42.59
33.44
23.81
14.43
5.2
-4.43
-14.83
-25.74
-36.22
-44.95
-50.79
-53.05
-51.82
-47.74
-41.88
-35.2
-28.31
-21.39
-14.31
-6.97
0.5
7.58
13.56
17.77
20.04
20.81
21.03
21.9
24.34
28.68
34.57
41.25
47.74
53.07
56.32
56.81
54.25
48.93
41.63
33.38
25.02
16.8
8.33
-1.04
-11.6
-23.0
-34.24
-44.01
-51.24
-55.35
-56.38
-54.79
-51.32
-46.73
-41.6
-36.22
-30.35
-23.59
-15.61
-6.64
2.52
10.67
16.74
20.22
21.35
20.83
19.34
17.18
14.25
10.4
5.78
1.05
-2.89
-5.45
-6.64
-7.17
-8.01
-9.97
-13.26
-17.64
-22.59
-27.63
-32.37
-36.26
-38.29
-37.03
-31.24
-20.45
-5.4
12.0
29.23
43.92
54.47
60.38
62.15
60.88
57.73
53.62
49.02
44.19
39.4
35.01
31.47
28.97
27.35
25.92
23.78
20.2
14.97
8.53
1.73
-4.66
-10.15
-14.63
-18.28
-21.43
-24.54
-28.05
-32.45
-37.97
-44.35
-50.84
-56.34
-59.77
-60.46
-58.24
-53.34
-46.12
-36.98
-26.4
-15.08
-3.95
5.84
13.3
18.04
20.33
21.17
21.73
22.94
25.16
28.09
31.2
33.92
35.78
36.49
36.0
34.32
31.57
27.96
23.8
19.31
14.53
9.25
2.97
-4.83
-14.37
-25.36
-36.8
-47.25
-55.07
-58.93
-58.06
-52.61
-43.48
-32.21
-20.49
-9.8
-1.04
5.59
10.4
13.97
16.75
18.98
20.73
21.96
22.62
22.61
21.79
19.96
17.0
12.98
8.25
3.36
-1.01
-4.33
-6.37
-7.23
-7.28
-7.04
-7.09
-7.98
-10.19
-13.9
-19.07
-25.23
-31.61
-37.22
-40.86
-41.45
-38.23
-31.04
-20.41
-7.42
6.5
19.87
31.38
40.12
45.7
48.33
48.78
48.0
46.82
45.69
44.67
43.6
42.39
41.19
40.28
39.81
39.48
38.58
36.19
31.66
24.98
16.97
8.88
1.93
-3.16
-6.49
-8.86
-11.51
-15.58
-21.58
-29.15
-37.14
-44.06
-48.56
-49.93
-48.15
-43.78
-37.65
-30.45
-22.68
-14.57
-6.28
1.99
9.82
16.62
21.8
25.06
26.62
27.16
27.67
29.14
32.13
36.5
41.54
46.36
50.32
53.11
54.44
53.86
50.67
44.25
34.58
22.43
9.18
-3.83
-15.91
-27.14
-38.02
-48.79
-58.93
-67.12
-71.81
-71.97
-67.72
-60.15
-50.9
-41.37
-32.27
-23.64
-15.25
-7.06
0.56
6.87
11.15
13.0
12.58
10.48
7.38
3.91
0.45
-2.75
-5.51
-7.63
-8.93
-9.38
-9.12
-8.52
-8.12
-8.61
-10.57
-14.45
-20.4
-28.08
-36.6
-44.56
-50.3
-51.93
-47.85
-37.15
-19.95
2.5
27.91
53.31
75.64
92.44
102.43
105.6
103.07
96.57
88.0
79.05
70.99
64.63
60.24
57.54
55.74
53.85
50.87
46.19
39.64
31.56
22.73
14.19
6.89
1.47
-1.82
-3.19
-3.32
-2.99
-2.84
-3.18
-4.03
-5.26
-6.76
-8.53
-10.59
-12.78
-14.75
-16.24
-17.34
-18.63
-21.03
-25.38
-32.03
-40.68
-50.32
-59.49
-66.59
-70.15
-69.17
-63.42
-53.58
-41.28
-28.65
-17.68
-9.54
-4.2
-0.54
2.94
7.33
12.88
19.1
25.22
30.57
34.83
37.97
40.03
40.96
40.54
38.54
34.9
29.87
24.06
18.16
12.72
7.99
3.84
-0.02
-3.96
-8.42
-13.76
-20.26
-28.01
-36.69
-45.65
-53.91
-60.17
-62.99
-60.97
-53.1
-39.38
-21.21
-1.54
15.71
26.87
29.98
25.67
16.92
7.94
2.58
3.08
9.71
20.93
34.11
46.18
54.27
56.42
52.11
42.54
30.27
18.34
9.1
3.35
0.23
-2.19
-5.8
-11.49
-18.93
-26.72
-33.2
-37.21
-38.55
-38.01
-36.9
-36.31
-36.39
-36.29
-34.41
-29.36
-20.77
-9.6
2.06
11.89
18.25
20.77
20.29
18.52
17.28
17.87
20.54
24.31
27.13
26.69
21.45
11.58
-0.78
-12.33
-20.13
-23.02
-22.23
-20.73
-21.82
-27.54
-37.83
-50.75
-63.42
-73.21
-78.52
-79.07
-75.62
-69.41
-61.54
-52.54
-42.41
-31.01
-18.51
-5.63
6.53
17.09
25.8
33.09
39.71
46.17
52.49
58.06
62.04
63.54
61.95
56.94
48.55
37.3
24.29
11.09
-0.83
-10.52
-17.9
-23.52
-28.12
-32.3
-36.43
-40.76
-45.54
-50.92
-56.6
-61.69
-64.82
-64.65
-60.5
-52.69
-42.46
-31.43
-20.99
-11.86
-4.08
2.59
8.23
12.68
15.71
17.18
17.33
16.59
15.44
14.22
13.03
11.89
10.88
10.14
9.79
9.82
10.04
10.16
9.98
9.45
8.71
7.94
7.21
6.41
5.4
4.17
2.82
1.53
0.48
-0.11
-0.13
0.36
1.11
1.8
2.23
2.5
3.11
4.59
7.31
11.13
15.43
19.31
22.08
23.46
23.67
23.19
22.44
21.58
20.57
19.27
17.52
15.3
12.66
9.72
6.7
3.76
1.06
-1.46
-4.01
-6.93
-10.54
-15.07
-20.57
-26.91
-33.65
-40.07
-45.29
-48.38
-48.59
-45.59
-39.59
-31.26
-21.52
-11.4
-1.7
6.99
14.55
21.22
27.45
33.56
39.59
45.38
50.65
55.34
59.63
63.93
68.42
72.63
75.51
75.56
71.57
63.15
51.1
37.1
23.12
10.73
0.55
-7.66
-14.8
-21.79
-29.18
-36.91
-44.48
-51.14
-56.09
-58.67
-58.28
-54.52
-47.31
-37.14
-25.01
-12.21
-0.03
10.6
19.21
25.77
30.33
32.87
33.21
31.16
26.94
21.29
15.5
10.9
8.46
8.26
9.47
10.83
11.2
10.21
8.28
6.33
5.2
5.2
5.97
6.68
6.54
5.13
2.67
-0.15
-2.18
-2.27
0.48
6.32
14.65
24.04
32.49
38.13
39.77
37.39
31.9
24.81
17.72
11.82
7.7
5.27
3.95
2.93
1.45
-0.91
-4.15
-7.87
-11.66
-15.26
-18.71
-22.12
-25.46
-28.23
-29.73
-29.51
-27.83
-25.84
-25.15
-27.12
-32.2
-39.75
-48.32
-56.25
-62.18
-65.21
-64.98
-61.45
-54.96
-46.17
-36.09
-25.71
-15.81
-6.63
2.13
10.86
19.67
28.08
35.34
40.83
44.58
47.39
50.44
54.74
60.51
66.98
72.49
75.12
73.24
66.26
54.81
40.67
26.26
13.79
4.55
-1.51
-5.46
-8.75
-12.55
-17.38
-23.13
-29.27
-35.13
-39.96
-42.94
-43.33
-40.77
-35.49
-28.36
-20.62
-13.36
-7.21
-2.17
2.01
5.57
8.5
10.69
12.05
12.62
12.5
11.73
10.45
8.84
7.18
5.71
4.45
3.26
1.88
0.23
-1.45
-2.81
-3.59
-3.96
-4.38
-5.43
-7.44
-10.25
-13.26
-15.73
-16.95
-16.35
-13.54
-8.33
-1.03
7.46
15.68
22.15
25.99
27.29
26.98
26.23
25.8
25.67
25.3
24.16
22.26
20.16
18.65
18.16
18.33
18.17
16.44
12.46
6.52
-0.31
-6.62
-11.36
-14.29
-15.94
-17.24
-19.02
-21.66
-25.14
-29.31
-34.11
-39.4
-44.67
-48.77
-50.15
-47.54
-40.71
-30.82
-19.98
-10.3
-2.85
2.64
7.46
12.97
19.73
27.41
35.03
41.73
47.34
52.26
57.12
62.18
67.11
70.97
72.67
71.33
66.66
58.95
48.88
37.36
25.16
12.91
1.02
-10.24
-20.67
-30.25
-39.05
-47.22
-54.79
-61.48
-66.71
-69.75
-70.09
-67.73
-63.07
-56.74
-49.28
-40.89
-31.64
-21.74
-11.94
-3.39
2.7
5.61
5.52
3.28
0.13
-2.85
-4.99
-6.01
-6.02
-5.3
-4.34
-3.62
-3.56
-4.29
-5.59
-7.11
-8.53
-9.77
-11.08
-12.91
-15.47
-18.4
-20.8
-21.43
-19.25
-13.84
-5.69
3.93
13.24
20.61
24.94
26.09
24.76
22.05
19.01
16.15
13.61
11.2
8.95
7.05
5.76
5.13
4.81
4.23
2.82
0.57
-1.94
-3.56
-3.1
0.23
6.4
14.38
22.26
27.62
28.28
23.03
12.22
-2.3
-17.85
-31.73
-42.06
-48.0
-49.65
-47.43
-41.92
-33.66
-23.42
-12.17
-0.98
9.13
17.65
24.53
30.22
35.46
41.0
47.48
55.14
63.71
72.34
79.78
84.72
86.14
83.71
77.97
70.47
63.43
59.27
59.6
64.51
72.04
78.67
80.44
74.36
59.52
37.36
11.16
-15.09
-37.68
-53.94
-62.52
-63.28
-57.19
-46.07
-32.35
-18.6
-7.07
0.6
3.72
2.42
-2.46
-9.64
-17.59
-24.75
-29.62
-31.04
-28.48
-22.35
-14.07
-5.81
0.11
1.96
-0.82
-7.45
-16.1
-24.65
-31.41
-35.66
-37.76
-38.91
-40.62
-44.14
-49.94
-57.45
-65.27
-71.68
-75.32
-75.71
-73.37
-69.55
-65.63
-62.58
-60.48
-58.43
-54.78
-47.71
-35.85
-18.91
2.11
25.13
47.61
67.16
82.12
91.74
95.95
95.15
89.96
81.25
70.15
58.0
46.07
35.22
25.88
17.87
10.73
3.82
-3.48
-11.72
-21.29
-32.15
-43.69
-54.54
-62.94
-67.18
-66.21
-60.02
-49.67
-36.87
-23.51
-11.14
-0.71
7.43
13.44
17.65
20.4
21.86
22.03
20.95
18.77
16.05
13.57
12.07
11.78
12.31
12.83
12.56
11.3
9.38
7.3
4.94
1.37
-4.86
-14.83
-28.41
-44.08
-59.36
-71.96
-80.56
-85.16
-86.53
-85.4
-81.88
-75.51
-65.95
-53.45
-39.26
-25.23
-13.13
-3.95
2.38
6.74
10.32
13.96
17.87
21.67
24.87
27.06
28.08
27.81
26.02
22.52
17.32
10.98
4.49
-1.11
-5.21
-8.02
-10.28
-12.94
-16.5
-20.97
-25.89
-30.81
-35.37
-39.28
-42.15
-43.37
-42.32
-38.58
-32.22
-23.85
-14.42
-4.88
4.22
12.87
21.39
29.98
38.3
45.27
49.49
50.02
47.0
41.94
37.02
34.15
33.93
35.37
36.36
34.93
30.32
23.32
15.77
9.58
5.82
4.33
4.08
3.94
3.17
1.63
-0.46
-3.0
-6.08
-9.77
-13.74
-16.77
-17.04
-12.91
-3.89
8.77
22.37
33.73
40.52
42.17
40.09
37.21
36.98
42.27
54.29
72.0
92.06
109.7
120.18
120.49
110.5
92.93
72.31
53.04
37.85
27.06
19.18
12.22
4.8
-3.32
-11.59
-19.37
-26.51
-33.37
-40.39
-47.42
-53.41
-56.74
-55.96
-50.65
-41.79
-31.47
-21.93
-14.65
-9.76
-6.23
-2.65
1.94
7.61
13.61
18.8
22.32
23.72
23.02
20.43
16.11
10.19
2.74
-6.08
-16.02
-26.63
-37.31
-47.38
-56.19
-63.29
-68.49
-71.97
-74.11
-75.38
-76.19
-76.85
-77.51
-78.09
-78.22
-77.2
-74.09
-68.0
-58.42
-45.55
-30.29
-13.93
2.38
17.89
32.34
45.59
57.28
66.66
72.59
74.12
71.07
64.44
56.37
49.45
45.7
45.63
47.98
50.2
49.7
44.91
35.98
24.44
12.41
1.57
-7.48
-15.28
-23.0
-31.89
-42.85
-56.13
-71.26
-87.02
-101.48
-112.45
-117.91
-116.65
-108.7
-95.43
-79.19
-62.67
-48.31
-37.64
-31.11
-28.0
-26.87
-25.95
-23.75
-19.42
-12.99
-5.38
2.04
7.88
11.34
12.47
12.23
11.95
12.85
15.48
19.55
24.28
28.72
32.18
34.27
34.85
33.81
30.93
25.92
18.61
9.28
-1.17
-11.02
-18.15
-20.49
-16.85
-7.45
6.03
21.0
34.85
45.8
53.24
57.47
59.1
58.47
55.53
50.05
42.15
32.57
22.65
13.85
7.23
2.97
0.31
-2.16
-5.9
-11.83
-19.88
-29.01
-37.65
-44.39
-48.56
-50.49
-51.21
-51.92
-53.57
-56.56
-60.68
-65.31
-69.43
-71.91
-71.56
-67.48
-59.17
-46.85
-31.45
-14.44
2.69
18.83
33.4
46.24
57.13
65.52
70.59
71.65
68.74
62.83
55.61
48.72
43.13
38.77
34.92
30.81
26.34
22.15
19.08
17.58
17.21
16.93
15.64
12.84
8.74
3.87
-1.52
-7.72
-15.29
-24.3
-33.7
-41.34
-44.68
-41.96
-33.12
-19.94
-5.43
7.4
16.53
21.52
23.15
22.78
21.47
19.62
17.08
13.56
9.14
4.34
-0.02
-3.26
-5.21
-6.32
-7.43
-9.21
-11.76
-14.41
-16.07
-15.63
-12.55
-7.06
-0.06
7.17
13.35
17.43
18.79
17.29
13.33
8.01
2.93
-0.02
0.63
5.4
13.69
24.02
34.69
44.39
52.53
58.99
63.8
66.78
67.55
65.78
61.45
54.92
46.8
37.71
28.17
18.6
9.32
0.59
-7.5
-15.07
-22.24
-28.91
-34.62
-38.82
-41.27
-42.61
-44.36
-48.26
-55.41
-65.47
-76.5
-85.63
-90.06
-88.07
-79.51
-65.7
-48.83
-31.22
-14.71
-0.38
11.51
21.31
29.67
37.13
43.87
49.79
54.73
58.78
62.28
65.47
68.17
69.66
68.88
65.03
58.0
48.51
37.9
27.54
18.46
11.07
5.24
0.47
-3.98
-8.91
-15.02
-22.43
-30.39
-37.2
-40.77
-39.44
-32.77
-21.9
-9.02
3.46
13.93
21.87
27.65
31.82
34.6
35.75
34.98
32.34
28.42
24.1
20.0
16.12
11.73
5.86
-2.18
-12.27
-23.42
-34.09
-42.73
-48.39
-51.03
-51.46
-50.9
-50.54
-51.13
-52.81
-55.29
-57.94
-59.84
-59.89
-56.98
-50.27
-39.69
-26.08
-10.99
3.83
17.08
28.13
36.9
43.48
47.88
50.12
50.41
49.3
47.53
45.77
44.17
42.35
39.65
35.59
30.21
24.18
18.52
14.13
11.41
10.02
9.04
7.32
3.92
-1.39
-8.08
-15.17
-21.87
-27.89
-33.41
-38.48
-42.56
-44.54
-43.18
-38.04
-29.89
-20.59
-12.17
-5.85
-1.54
1.87
5.53
9.81
13.95
16.65
17.03
15.29
12.67
10.69
10.22
11.0
11.94
11.82
10.17
7.49
4.9
3.33
2.98
3.21
2.89
1.08
-2.74
-8.38
-15.21
-22.41
-29.02
-34.18
-37.06
-37.13
-34.23
-28.8
-21.61
-13.6
-5.49
2.41
10.05
17.46
24.36
30.26
34.5
36.74
37.14
36.41
35.44
34.74
34.14
32.81
29.88
24.91
18.26
10.95
4.09
-1.64
-6.28
-10.38
-14.63
-19.5
-25.18
-31.75
-39.23
-47.54
-56.1
-63.7
-68.56
-69.01
-64.21
-54.63
-41.93
-28.4
-16.04
-5.86
2.18
8.84
15.12
21.7
28.79
35.98
42.43
47.11
49.17
48.22
44.51
38.76
31.93
24.84
18.06
11.8
6.2
1.33
-2.69
-5.77
-8.12
-10.32
-13.25
-17.84
-24.58
-33.2
-42.51
-50.61
-55.5
-55.81
-51.39
-43.43
-33.92
-24.84
-17.34
-11.57
-6.91
-2.64
1.58
5.65
9.2
11.97
13.96
15.26
15.94
15.82
14.6
12.14
8.68
4.8
1.17
-1.7
-3.65
-4.97
-6.21
-8.03
-10.99
-15.42
-21.31
-28.36
-35.92
-43.29
-49.86
-55.16
-58.9
-60.62
-59.75
-55.73
-48.38
-38.28
-26.75
-15.4
-5.46
2.66
9.38
15.44
21.39
27.22
32.41
36.4
38.95
40.14
40.23
39.33
37.3
33.98
29.47
24.29
19.18
14.81
11.44
8.77
6.17
2.84
-1.9
-8.48
-16.99
-27.03
-37.7
-47.65
-55.3
-59.28
-58.85
-54.07
-45.7
-34.91
-22.88
-10.6
1.25
12.16
21.79
30.03
36.94
42.69
47.35
50.97
53.56
55.16
55.86
55.62
54.14
50.96
45.78
38.76
30.61
22.36
14.97
8.76
3.51
-1.4
-6.49
-11.95
-17.73
-23.77
-30.09
-36.72
-43.44
-49.37
-53.06
-52.89
-47.71
-37.39
-22.92
-6.1
10.94
26.34
38.86
47.92
53.55
56.12
56.27
54.69
52.14
49.21
46.19
43.04
39.45
35.1
29.86
24.01
18.18
12.96
8.7
5.25
1.97
-1.94
-6.88
-12.66
-18.64
-24.05
-28.28
-30.82
-31.1
-28.46
-22.57
-13.76
-3.27
7.15
16.09
23.13
28.98
34.81
41.35
48.24
54.23
57.93
58.75
57.16
54.34
51.46
49.04
46.87
44.28
40.54
35.31
28.7
21.34
14.09
7.74
2.58
-1.8
-6.49
-12.89
-22.11
-34.47
-49.25
-64.87
-79.26
-90.46
-97.06
-98.38
-94.51
-86.04
-73.89
-59.1
-42.75
-26.05
-10.22
3.59
14.57
22.38
27.26
30.01
31.81
33.83
36.91
41.4
47.03
53.12
58.6
62.17
62.58
58.89
50.83
39.05
24.96
10.33
-3.28
-15.0
-24.79
-33.13
-40.73
-47.92
-54.66
-60.61
-65.3
-68.19
-68.77
-66.39
-60.31
-50.02
-35.48
-17.36
3.0
23.67
42.61
57.94
68.39
73.58
74.09
71.25
66.7
61.89
57.66
54.11
50.8
47.07
42.44
36.77
30.35
23.66
17.2
11.31
5.98
0.95
-4.36
-10.66
-18.53
-28.04
-38.43
-48.16
-55.15
-57.36
-53.49
-43.6
-29.25
-13.17
1.77
13.47
21.36
26.29
29.87
33.58
38.02
42.86
47.11
49.85
50.63
49.62
47.43
44.67
41.73
38.62
35.03
30.56
24.93
18.17
10.76
3.48
-2.93
-8.23
-12.8
-17.53
-23.35
-30.68
-39.27
-48.31
-56.85
-64.1
-69.49
-72.48
-72.33
-68.21
-59.57
-46.73
-31.04
-14.51
0.91
14.1
24.87
33.61
40.62
45.72
48.44
48.54
46.54
43.72
41.59
41.1
42.24
44.01
45.19
44.9
42.9
39.48
35.03
29.8
23.87
17.27
10.03
2.17
-6.5
-16.32
-27.53
-39.79
-51.69
-60.92
-64.82
-61.43
-50.42
-33.39
-13.35
6.38
23.29
36.29
45.53
51.76
55.51
56.73
55.06
50.56
44.1
37.2
31.42
27.44
24.7
21.69
16.89
9.68
0.64
-8.64
-16.38
-21.42
-23.64
-23.88
-23.51
-23.86
-25.92
-30.25
-36.81
-44.97
-53.5
-60.77
-65.19
-65.72
-62.17
-55.09
-45.31
-33.38
-19.47
-3.63
13.62
31.11
47.05
59.52
67.12
69.24
66.14
58.62
47.81
34.83
20.89
7.12
-5.34
-15.46
-22.35
-25.49
-24.87
-21.12
-15.6
-10.08
-6.28
-5.38
-7.78
-13.22
-21.01
-30.24
-39.7
-47.93
-53.35
-54.74
-51.7
-44.97
-36.17
-27.25
-19.75
-14.42
-11.18
-9.49
-8.81
-8.8
-9.26
-9.98
-10.53
-10.36
-9.03
-6.49
-3.21
-0.06
1.93
2.09
0.29
-2.94
-6.62
-9.7
-11.48
-11.87
-11.26
-10.45
-10.23
-11.09
-12.96
-15.14
-16.59
-16.37
-14.11
-10.21
-5.72
-1.79
0.86
2.4
3.73
6.03
10.18
16.22
23.34
30.22
35.73
39.28
40.97
41.38
41.13
40.63
39.84
38.41
35.93
32.25
27.61
22.5
17.51
13.05
9.31
6.24
3.69
1.38
-1.18
-4.72
-9.92
-17.1
-25.74
-34.32
-40.83
-43.42
-41.19
-34.6
-25.14
-14.65
-4.62
4.26
11.93
18.57
24.25
28.89
32.33
34.59
35.97
36.91
37.84
39.03
40.55
42.41
44.58
46.81
48.67
49.56
48.98
46.71
42.94
38.04
32.32
25.83
18.43
10.09
1.06
-7.95
-15.89
-21.65
-24.5
-24.29
-21.48
-16.92
-11.61
-6.45
-2.06
1.26
3.57
5.18
6.46
7.67
8.82
9.66
9.84
9.07
7.31
4.76
1.83
-1.07
-3.68
-6.1
-8.61
-11.51
-14.78
-18.06
-20.83
-22.67
-23.63
-24.14
-24.97
-26.92
-30.53
-35.94
-42.65
-49.57
-55.25
-58.18
-57.1
-51.41
-41.32
-27.85
-12.56
2.91
17.2
29.33
38.53
44.34
46.51
45.46
42.08
37.61
33.05
28.84
24.73
20.18
14.91
9.12
3.53
-1.1
-4.43
-6.71
-8.54
-10.43
-12.48
-14.47
-16.28
-18.07
-20.29
-23.36
-27.31
-31.75
-35.92
-39.07
-40.66
-40.51
-38.56
-34.96
-29.95
-23.97
-17.7
-11.79
-6.74
-2.52
1.28
5.21
9.52
13.87
17.43
19.29
18.99
16.76
13.52
10.3
7.79
6.02
4.55
2.8
0.43
-2.36
-4.96
-6.52
-6.25
-3.75
0.67
5.87
10.1
11.48
8.79
1.94
-8.03
-19.41
-30.48
-39.93
-46.82
-50.31
-49.67
-44.53
-35.38
-23.69
-11.56
-0.96
7.11
12.71
16.73
20.15
23.45
26.52
28.96
30.32
30.38
29.22
27.13
24.47
21.62
18.89
16.39
13.96
11.18
7.54
2.67
-3.47
-10.45
-17.59
-24.13
-29.51
-33.56
-36.52
-38.89
-41.12
-43.4
-45.36
-46.33
-45.51
-42.39
-36.88
-29.25
-20.01
-9.8
0.72
10.96
20.39
28.75
36.0
42.11
46.92
50.01
50.94
49.53
46.19
41.76
37.21
33.15
29.58
26.12
22.42
18.57
15.07
12.48
11.12
10.65
10.33
9.38
7.31
4.05
-0.13
-4.83
-9.68
-14.55
-19.33
-23.83
-27.65
-30.11
-30.51
-28.45
-24.08
-18.23
-12.07
-6.74
-2.88
-0.57
0.58
1.19
1.73
2.26
2.54
2.1
0.58
-1.94
-5.02
-8.02
-10.35
-11.75
-12.3
-12.27
-11.88
-11.17
-9.93
-7.94
-5.04
-1.4
2.44
5.59
7.07
6.0
2.07
-4.28
-11.86
-19.09
-24.54
-27.39
-27.53
-25.41
-21.74
-17.18
-12.23
-7.21
-2.19
2.9
8.05
13.16
17.85
21.6
23.88
24.41
23.27
20.96
18.19
15.64
13.62
12.06
10.59
8.7
5.98
2.33
-1.89
-5.95
-8.79
-9.4
-7.32
-2.94
2.47
7.26
9.94
9.78
7.02
2.56
-2.44
-6.99
-10.4
-12.13
-11.58
-7.98
-0.89
9.48
22.09
35.34
47.44
56.98
63.05
65.22
63.32
57.45
48.04
35.97
22.68
9.74
-1.51
-10.57
-17.82
-24.16
-30.33
-36.38
-41.56
-44.73
-45.13
-42.93
-39.34
-36.01
-34.18
-33.98
-34.46
-34.27
-32.55
-29.36
-25.7
-22.83
-21.57
-21.85
-22.91
-23.69
-23.42
-21.88
-19.42
-16.63
-14.18
-12.66
-12.39
-13.37
-15.2
-17.13
-18.35
-18.37
-17.36
-15.99
-15.12
-15.19
-16.03
-16.88
-16.76
-14.86
-10.68
-4.03
4.98
15.74
26.83
36.2
41.54
41.27
35.38
25.5
14.26
4.11
-3.62
-8.91
-12.35
-14.25
-14.23
-11.41
-5.26
3.82
14.44
24.57
32.53
37.49
39.51
39.26
37.53
34.86
31.52
27.72
23.71
19.83
16.31
13.01
9.44
4.86
-1.21
-8.65
-16.7
-24.32
-30.56
-35.13
-38.35
-40.83
-43.07
-45.2
-47.01
-48.37
-49.45
-50.6
-51.99
-53.2
-53.16
-50.72
-45.19
-36.81
-26.65
-16.05
-6.02
3.13
11.74
20.19
28.25
34.9
38.78
38.94
35.47
29.59
23.09
17.55
13.63
10.99
8.73
6.08
2.86
-0.45
-3.07
-4.48
-4.72
-4.4
-4.42
-5.55
-8.22
-12.32
-17.29
-22.32
-26.74
-30.28
-33.01
-35.19
-36.8
-37.48
-36.66
-34.1
-30.23
-26.16
-23.01
-21.25
-20.43
-19.4
-17.17
-13.6
-9.54
-6.26
-4.67
-4.81
-5.9
-6.9
-7.02
-6.07
-4.24
-1.83
0.99
4.13
7.41
10.53
13.12
15.03
16.29
16.99
17.11
16.3
14.02
9.81
3.61
-4.12
-12.5
-20.47
-26.93
-30.93
-31.79
-29.25
-23.61
-15.83
-7.32
0.62
7.05
11.78
15.25
18.01
20.58
23.12
25.62
27.97
30.15
32.13
33.85
35.16
35.72
35.11
32.88
28.7
22.55
14.9
6.58
-1.46
-8.43
-14.08
-18.64
-22.74
-26.92
-31.61
-36.91
-42.73
-48.65
-53.97
-57.68
-58.67
-56.23
-50.33
-41.6
-31.08
-19.67
-7.85
4.17
16.16
27.51
37.15
43.99
47.41
47.56
45.37
41.99
38.33
34.65
30.77
26.35
21.27
15.81
10.53
5.91
2.14
-1.0
-3.99
-7.32
-11.37
-16.24
-21.87
-28.1
-34.7
-41.35
-47.55
-52.74
-56.29
-57.65
-56.53
-52.98
-47.39
-40.43
-32.81
-25.06
-17.5
-10.23
-3.2
3.55
9.84
15.23
19.15
21.1
21.03
19.44
17.35
15.88
15.7
16.6
17.64
17.8
16.65
14.94
14.22
15.99
20.71
27.3
33.46
36.55
34.67
27.19
14.76
-1.15
-18.75
-36.15
-51.42
-62.52
-67.72
-65.99
-57.6
-44.15
-28.15
-12.13
2.19
14.26
24.5
33.6
41.93
49.22
54.85
58.42
60.14
60.81
61.24
61.73
61.83
60.57
57.08
51.11
43.13
34.03
24.61
15.2
5.65
-4.43
-15.21
-26.58
-38.28
-49.99
-61.53
-72.6
-82.49
-89.98
-93.59
-92.13
-85.08
-72.92
-56.8
-38.16
-18.19
2.23
22.52
42.07
59.91
74.72
85.04
89.79
88.82
83.13
74.65
65.57
57.62
51.43
46.46
41.43
35.07
26.84
17.29
7.79
-0.14
-5.54
-8.54
-10.14
-11.58
-13.8
-17.13
-21.43
-26.37
-31.64
-36.89
-41.38
-43.86
-42.84
-37.27
-27.36
-14.67
-1.66
9.45
17.58
23.08
27.32
31.69
36.88
42.65
48.12
52.35
54.8
55.44
54.67
52.95
50.52
47.38
43.45
38.86
34.14
30.15
27.74
27.41
29.01
31.59
33.66
33.6
30.28
23.37
13.3
0.96
-12.76
-27.01
-40.81
-52.68
-60.55
-62.26
-56.4
-43.15
-24.46
-3.47
16.6
33.55
46.7
56.52
63.89
69.41
73.17
75.05
75.13
73.88
71.96
69.82
67.27
63.51
57.52
48.62
37.03
23.83
10.65
-0.95
-9.99
-16.41
-20.88
-24.52
-28.57
-34.12
-41.96
-52.38
-64.89
-78.13
-89.92
-97.62
-98.91
-92.56
-78.63
-58.51
-34.45
-8.72
16.93
41.39
63.81
83.2
98.19
107.28
109.52
105.07
95.33
82.65
69.62
58.31
49.77
43.97
40.04
36.82
33.31
29.09
24.32
19.41
14.56
9.66
4.28
-1.91
-8.79
-15.74
-21.83
-26.49
-29.76
-32.3
-35.01
-38.38
-42.16
-45.46
-47.24
-46.65
-43.41
-37.71
-30.16
-21.51
-12.51
-3.84
3.97
10.55
15.68
19.2
21.1
21.46
20.55
18.78
16.66
14.64
13.02
11.98
11.45
11.32
11.46
11.77
11.97
11.42
9.16
4.16
-4.19
-15.69
-29.35
-43.64
-57.0
-68.12
-76.04
-80.06
-79.75
-75.11
-66.75
-55.88
-44.06
-32.73
-22.73
-14.2
-6.66
0.43
7.42
14.27
20.72
26.48
31.32
35.12
37.8
39.39
39.93
39.43
37.8
34.79
30.07
23.42
14.98
5.37
-4.4
-13.25
-20.37
-25.51
-29.01
-31.67
-34.47
-38.25
-43.51
-50.23
-57.82
-65.15
-70.74
-73.03
-70.77
-63.4
-51.22
-35.31
-17.23
1.27
18.57
33.37
44.89
52.96
57.92
60.59
61.86
62.48
62.9
63.17
63.15
62.58
61.37
59.43
56.77
53.35
49.15
44.09
38.23
31.67
24.66
17.56
10.82
4.83
-0.43
-5.58
-11.62
-19.53
-29.53
-40.84
-51.7
-60.09
-64.44
-64.18
-59.76
-52.33
-43.24
-33.68
-24.58
-16.63
-10.25
-5.6
-2.47
-0.44
1.01
2.13
2.9
3.33
3.67
4.52
6.65
10.47
15.64
21.13
25.49
27.57
26.91
23.85
19.23
13.81
7.96
1.63
-5.27
-12.61
-19.86
-26.37
-31.7
-35.78
-38.78
-40.74
-41.35
-39.99
-36.18
-29.87
-21.61
-12.38
-3.1
5.59
13.57
20.9
27.46
32.69
35.78
35.97
33.08
27.64
20.79
13.78
7.5
2.19
-2.6
-7.62
-13.56
-20.68
-28.64
-36.71
-44.08
-50.2
-55.04
-59.18
-63.46
-68.87
-75.98
-84.48
-93.14
-99.93
-102.73
-99.91
-90.87
-76.34
-58.32
-39.64
-23.28
-11.51
-5.14
-3.28
-3.77
-4.05
-2.24
2.29
8.81
15.87
22.0
26.3
28.54
29.09
28.58
27.67
26.96
26.84
27.35
28.25
29.22
30.08
30.8
31.31
31.29
30.07
26.93
21.48
13.98
5.25
-3.72
-12.11
-19.38
-25.08
-28.59
-29.26
-26.73
-21.34
-14.22
-6.94
-0.91
3.22
5.64
7.12
8.6
10.99
14.96
20.95
29.14
39.31
50.79
62.46
72.83
80.35
83.76
82.51
76.99
68.4
58.3
48.1
38.6
29.95
21.94
14.41
7.46
1.42
-3.35
-7.0
-10.14
-13.57
-17.83
-22.72
-27.24
-30.02
-29.7
-25.49
-17.49
-6.71
5.17
16.25
24.87
30.02
31.51
29.93
26.4
22.21
18.44
15.68
13.89
12.72
11.67
10.43
8.9
7.03
4.58
1.07
-3.98
-10.67
-18.32
-25.52
-30.4
-31.15
-26.63
-16.8
-2.82
13.0
27.66
38.14
42.23
39.36
30.75
18.94
6.68
-4.05
-12.48
-18.84
-23.61
-26.92
-28.37
-27.52
-24.38
-19.7
-14.7
-10.54
-7.82
-6.3
-5.28
-3.87
-1.3
2.88
8.71
15.73
22.88
28.68
31.61
30.45
24.95
15.86
4.69
-6.79
-17.31
-26.45
-34.59
-42.49
-50.89
-59.9
-68.98
-76.98
-82.47
-84.32
-82.0
-76.03
-67.74
-58.77
-50.36
-42.79
-35.2
-26.05
-14.2
0.25
15.74
29.83
40.16
45.33
45.17
40.6
33.05
23.97
14.55
5.61
-2.33
-8.95
-13.99
-17.24
-18.48
-17.48
-14.29
-9.18
-2.82
3.7
9.06
12.12
12.22
9.59
5.36
1.3
-0.81
-0.06
3.34
8.09
12.51
15.36
16.38
16.19
15.69
15.42
15.24
14.58
12.92
10.23
6.96
3.89
1.75
0.87
1.07
1.63
1.41
-0.82
-5.98
-14.11
-24.17
-34.15
-41.55
-44.07
-40.6
-31.6
-19.15
-6.26
4.07
9.72
9.98
5.7
-0.95
-6.99
-9.37
-6.02
3.29
16.53
29.95
39.5
42.61
39.61
33.6
28.96
29.1
34.72
43.8
52.94
59.57
63.43
66.58
71.95
81.4
94.41
108.24
119.4
125.28
125.3
120.82
114.11
106.98
100.07
92.84
84.58
75.19
65.37
56.07
47.6
39.31
29.87
18.17
3.88
-12.11
-28.0
-41.93
-52.63
-59.48
-62.41
-61.82
-58.8
-55.79
-55.64
-60.56
-71.24
-86.2
-101.99
-114.25
-119.5
-116.63
-108.1
-97.33
-86.66
-76.72
-67.2
-57.89
-49.34
-42.91
-39.91
-42.28
-49.71
-59.57
-69.14
-77.74
-86.76
-97.78
-111.17
-125.75
-141.65
-158.19
-173.59
-185.75
-193.19
-194.96
-190.17
-179.08
-150.71
-105.94
-57.17
-18.76
3.69
13.29
16.13
17.47
19.66
22.94
24.75
24.01
22.09
21.97
25.47
32.74
43.82
58.29
75.28
91.87
105.7
116.06
123.7
130.17
132.09
128.94
121.33
110.53
97.03
81.93
67.1
54.52
45.2
38.83
35.01
32.82
31.4
29.84
27.93
26.16
25.14
25.09
25.67
26.84
28.2
29.13
28.87
26.93
23.23
18.17
12.39
6.52
1.56
-1.77
-3.14
-2.61
-0.73
1.63
3.45
3.73
1.68
-2.92
-9.94
-18.83
-28.61
-37.97
-45.4
-49.52
-49.33
-44.62
-35.82
-24.05
-10.81
2.44
14.62
25.17
33.94
40.98
46.35
50.04
52.06
52.58
52.03
51.0
49.9
48.65
46.55
42.63
36.07
26.77
15.4
3.17
-8.64
-19.23
-28.26
-35.76
-41.85
-46.62
-50.28
-53.23
-56.03
-59.0
-61.88
-63.6
-62.67
-57.79
-48.51
-35.57
-20.53
-5.18
9.14
21.73
32.54
41.79
49.73
56.48
61.97
66.09
68.7
69.62
68.79
66.38
62.82
58.74
54.66
50.77
46.82
42.24
36.41
29.05
20.31
10.72
0.94
-8.49
-17.17
-24.86
-31.36
-36.48
-40.06
-42.09
-42.72
-42.15
-40.52
-37.75
-33.56
-27.7
-20.2
-11.61
-2.84
5.12
11.64
16.56
20.08
22.51
23.95
24.34
23.53
21.51
18.47
14.83
10.97
7.11
3.07
-1.56
-7.1
-13.41
-19.69
-24.72
-27.42
-27.51
-25.95
-24.56
-25.35
-29.37
-36.11
-43.64
-49.43
-51.43
-48.9
-42.53
-33.83
-24.42
-15.31
-6.8
1.32
9.41
17.64
25.8
33.41
39.97
45.2
49.14
52.02
53.87
54.36
52.72
48.2
40.51
30.46
19.83
10.82
5.19
3.41
4.55
6.67
7.75
6.43
2.37
-4.15
-12.5
-22.1
-32.24
-41.76
-49.07
-52.36
-50.34
-42.78
-30.77
-16.31
-1.58
11.72
22.8
31.61
38.63
44.35
49.13
53.02
55.94
57.73
58.2
57.29
54.95
51.27
46.33
40.21
33.0
24.91
16.38
8.07
0.68
-5.28
-9.69
-12.92
-15.57
-18.34
-21.79
-26.18
-31.53
-37.52
-43.53
-48.8
-52.63
-54.59
-54.66
-53.03
-49.83
-44.94
-37.94
-28.48
-16.67
-3.36
9.87
21.24
29.28
33.41
33.91
31.79
28.38
24.91
22.27
20.86
20.54
20.65
20.38
18.95
16.01
11.7
6.58
1.49
-2.97
-6.57
-9.69
-13.1
-17.72
-24.22
-32.63
-42.17
-51.24
-57.78
-59.89
-56.47
-47.59
-34.52
-19.17
-3.54
10.88
23.31
33.65
42.22
49.45
55.62
60.76
64.67
66.98
67.15
64.67
59.14
50.48
38.92
25.2
10.41
-4.09
-16.91
-27.05
-34.18
-38.69
-41.58
-44.01
-46.82
-50.37
-54.59
-59.28
-64.48
-70.35
-76.93
-83.69
-89.24
-91.62
-89.07
-80.83
-67.66
-51.6
-35.09
-20.15
-7.64
2.58
11.21
18.74
25.14
29.9
32.39
32.42
30.3
26.84
23.02
19.56
16.74
14.39
12.14
9.63
6.86
4.12
1.76
-0.04
-1.52
-3.22
-5.67
-8.99
-12.9
-16.81
-20.29
-23.31
-26.22
-29.39
-32.71
-35.42
-36.34
-34.41
-29.19
-21.1
-11.11
-0.29
10.62
21.27
31.35
40.45
47.86
52.83
54.96
54.38
51.81
48.29
44.92
42.38
40.73
39.36
37.26
33.61
28.17
21.6
15.14
9.88
6.09
2.97
-1.03
-7.31
-16.4
-27.69
-39.77
-51.05
-60.21
-66.27
-68.4
-65.81
-57.95
-44.94
-27.97
-9.15
9.06
24.66
36.74
45.54
51.84
56.36
59.37
60.85
60.99
60.51
60.63
62.37
65.86
69.96
72.56
71.46
65.34
54.39
40.19
25.09
11.4
0.74
-6.28
-10.08
-11.84
-13.28
-16.06
-21.45
-29.71
-39.96
-50.37
-58.68
-62.96
-62.23
-56.73
-47.73
-37.03
-26.31
-16.69
-8.55
-1.6
4.77
11.12
17.58
23.77
28.91
32.24
33.32
32.27
29.73
26.4
22.82
19.12
15.11
10.53
5.32
-0.35
-6.14
-11.77
-17.16
-22.41
-27.6
-32.85
-38.16
-43.67
-49.53
-55.77
-62.05
-67.65
-71.43
-72.26
-69.48
-63.2
-54.26
-43.93
-33.49
-23.84
-15.44
-8.33
-2.31
3.0
8.05
13.24
18.77
24.5
30.03
34.75
38.21
40.29
41.2
41.36
41.24
41.19
41.38
41.79
42.09
41.68
39.71
35.4
28.42
19.1
8.39
-2.52
-12.6
-21.2
-27.94
-32.45
-34.3
-33.11
-29.05
-22.9
-15.91
-9.24
-3.43
1.77
6.97
12.67
18.77
24.57
29.28
32.48
34.32
35.37
36.24
37.21
38.16
38.73
38.51
37.15
34.46
30.54
25.78
20.89
16.65
13.63
11.83
10.58
8.73
4.99
-1.56
-11.23
-23.57
-37.49
-51.52
-63.98
-73.48
-79.06
-80.51
-78.26
-73.2
-66.38
-58.63
-50.46
-42.14
-33.84
-25.73
-18.06
-11.07
-5.0
0.04
4.04
7.08
9.34
11.02
12.36
13.54
14.72
15.98
17.31
18.63
19.74
20.37
20.18
18.86
16.16
12.02
6.62
0.25
-6.65
-13.6
-20.06
-25.39
-28.88
-29.93
-28.18
-23.72
-17.21
-9.68
-2.34
3.9
8.64
12.06
14.75
17.31
20.05
22.75
24.79
25.29
23.58
19.5
13.62
7.17
1.69
-1.45
-1.6
1.04
5.41
9.96
13.15
13.87
11.67
6.79
-0.04
-7.9
-15.73
-22.63
-27.84
-30.97
-32.05
-31.61
-30.53
-29.7
-29.75
-30.81
-32.6
-34.69
-36.66
-38.21
-38.95
-38.23
-35.26
-29.44
-20.76
-10.07
1.24
11.74
20.64
27.94
34.18
39.91
45.26
50.0
53.82
56.72
58.93
60.66
61.75
61.48
58.92
53.5
45.49
36.0
26.6
18.72
13.06
9.47
7.16
5.1
2.35
-1.82
-7.89
-16.03
-26.03
-37.13
-47.95
-56.76
-61.88
-62.32
-58.26
-51.16
-43.21
-36.58
-32.57
-31.16
-31.29
-31.39
-30.18
-27.18
-22.66
-17.26
-11.61
-6.05
-0.6
4.7
9.6
13.66
16.39
17.64
17.75
17.51
17.93
19.93
23.89
29.4
35.12
39.14
39.52
35.04
25.6
12.32
-2.6
-16.6
-27.24
-32.86
-32.91
-27.86
-18.98
-7.92
3.73
14.57
23.51
29.83
33.17
33.68
32.05
29.33
26.66
24.83
23.92
23.43
22.63
20.99
18.49
15.56
12.79
10.69
9.4
8.72
8.13
7.03
4.85
1.18
-4.09
-10.9
-18.95
-27.71
-36.38
-43.84
-48.82
-50.21
-47.54
-41.28
-32.77
-23.65
-15.33
-8.54
-3.21
1.12
4.8
7.75
9.62
10.11
9.37
8.13
7.41
8.08
10.36
13.77
17.3
19.79
20.41
18.84
15.31
10.5
5.33
0.62
-3.08
-5.76
-7.87
-10.2
-13.49
-18.09
-23.79
-29.82
-35.1
-38.59
-39.61
-38.0
-34.03
-28.28
-21.42
-13.95
-6.11
2.02
10.39
18.52
25.55
30.33
31.95
30.17
25.77
20.27
15.28
11.87
10.13
9.34
8.44
6.77
4.42
2.08
0.6
0.4
1.25
2.35
2.75
1.67
-1.24
-6.01
-12.35
-19.64
-26.95
-33.05
-36.72
-37.05
-33.69
-27.07
-18.17
-8.34
1.12
9.1
14.94
18.5
20.23
20.99
21.68
22.91
24.65
26.33
27.15
26.6
24.7
22.01
19.18
16.64
14.38
12.2
9.91
7.53
5.32
3.46
1.87
0.3
-1.6
-4.1
-7.39
-11.7
-17.34
-24.43
-32.6
-40.64
-46.77
-49.27
-47.26
-41.09
-32.11
-21.95
-11.82
-2.17
7.05
15.85
23.81
30.11
33.95
35.06
33.97
31.8
29.72
28.5
28.23
28.36
28.17
27.07
24.81
21.47
17.26
12.35
6.72
0.22
-7.23
-15.61
-24.78
-34.47
-44.4
-54.06
-62.73
-69.45
-73.22
-73.34
-69.79
-63.31
-55.12
-46.48
-38.22
-30.61
-23.44
-16.46
-9.68
-3.36
2.13
6.82
11.16
15.78
20.94
26.07
29.89
31.0
28.73
23.74
17.84
13.13
10.98
11.35
12.93
13.95
13.12
10.21
5.87
1.03
-3.83
-8.79
-14.21
-20.13
-25.93
-30.42
-32.35
-30.94
-26.16
-18.72
-9.61
0.24
10.03
19.14
26.97
32.98
36.8
38.34
37.81
35.72
32.65
29.18
25.78
22.77
20.25
18.07
15.9
13.36
10.28
6.76
3.1
-0.31
-3.25
-5.74
-8.05
-10.43
-13.1
-16.22
-19.84
-23.71
-27.19
-29.27
-28.99
-25.93
-20.57
-14.16
-8.15
-3.45
-0.05
2.9
6.45
11.31
17.49
24.39
31.21
37.19
41.86
45.02
46.67
46.98
46.3
45.07
43.6
42.05
40.36
38.39
36.03
33.31
30.35
27.28
24.04
20.29
15.57
9.43
1.68
-7.51
-17.59
-27.72
-36.88
-44.03
-48.31
-49.14
-46.38
-40.46
-32.27
-22.99
-13.72
-5.18
2.34
8.93
14.75
19.71
23.45
25.63
26.13
25.29
23.92
23.02
23.35
25.13
27.73
29.87
30.1
27.36
21.5
13.34
4.36
-3.97
-10.71
-15.71
-19.49
-22.82
-26.39
-30.55
-35.18
-39.81
-43.74
-46.1
-46.19
-43.6
-38.4
-31.09
-22.44
-13.25
-4.1
4.59
12.62
19.85
26.2
31.55
35.72
38.43
39.45
38.7
36.47
33.36
30.12
27.26
24.83
22.47
19.66
16.15
12.15
8.15
4.63
1.69
-0.97
-3.92
-7.56
-12.02
-17.22
-22.84
-28.52
-33.78
-38.03
-40.58
-40.86
-38.67
-34.38
-28.79
-22.89
-17.46
-12.84
-8.94
-5.33
-1.47
2.96
8.05
13.53
18.88
23.56
27.11
29.34
30.42
30.79
30.96
31.3
31.98
32.94
33.96
34.75
35.1
34.79
33.69
31.74
29.06
25.87
22.36
18.52
14.02
8.32
0.96
-8.04
-17.91
-27.2
-34.13
-37.34
-36.34
-31.81
-25.28
-18.63
-13.31
-9.97
-8.3
-7.32
-5.87
-3.02
1.54
7.41
13.77
19.7
24.51
27.89
29.83
30.32
29.32
26.72
22.68
17.75
12.84
8.9
6.37
5.07
4.23
3.04
1.13
-1.23
-3.44
-5.03
-6.13
-7.41
-9.73
-13.59
-18.64
-23.78
-27.57
-28.8
-26.96
-22.28
-15.65
-8.14
-0.78
5.73
11.03
15.04
17.81
19.44
20.01
19.56
18.24
16.29
14.08
12.01
10.4
9.41
8.9
8.62
8.16
7.25
5.8
3.95
2.01
0.38
-0.54
-0.57
0.22
1.3
1.78
0.51
-3.59
-11.03
-21.36
-32.98
-43.43
-50.15
-51.42
-47.01
-38.28
-27.51
-17.03
-8.29
-1.59
3.64
8.19
12.41
16.08
18.54
19.29
18.32
16.11
13.45
11.02
9.22
8.08
7.39
6.75
5.73
3.86
0.82
-3.44
-8.62
-14.12
-19.29
-23.59
-26.81
-28.98
-30.31
-31.1
-31.7
-32.61
-34.34
-37.2
-40.87
-44.45
-46.53
-45.87
-41.89
-34.94
-26.08
-16.37
-6.53
3.2
12.71
21.64
29.09
33.89
35.06
32.42
26.72
19.5
12.44
6.89
3.52
2.19
2.25
2.87
3.29
3.09
2.18
0.74
-0.95
-2.69
-4.47
-6.51
-9.09
-12.46
-16.62
-21.3
-26.02
-30.24
-33.42
-35.13
-35.08
-33.11
-29.23
-23.64
-16.81
-9.47
-2.4
3.81
9.01
13.54
17.99
22.77
27.87
32.67
36.26
37.83
37.05
34.23
30.14
25.67
21.47
17.84
14.8
12.29
10.41
9.36
9.46
10.84
13.17
15.58
16.76
15.53
11.24
4.22
-4.52
-13.68
-22.42
-30.45
-37.87
-44.58
-49.89
-52.64
-51.75
-46.94
-39.03
-29.74
-20.96
-13.96
-9.01
-5.57
-2.68
0.45
4.08
7.99
11.62
14.46
16.22
17.02
17.22
17.16
17.0
16.51
15.33
13.18
10.12
6.62
3.29
0.7
-0.93
-1.69
-1.96
-2.25
-3.09
-4.93
-8.1
-12.74
-18.65
-25.2
-31.44
-36.25
-38.59
-37.78
-33.64
-26.47
-17.05
-6.26
5.0
16.02
26.24
35.15
42.04
46.07
46.55
43.26
36.81
28.56
20.18
13.11
8.03
4.82
2.84
1.29
-0.42
-2.54
-5.2
-8.4
-12.11
-16.16
-20.19
-23.75
-26.48
-28.46
-30.11
-32.18
-35.29
-39.6
-44.6
-49.13
-51.8
-51.38
-47.3
-39.83
-30.04
-19.41
-9.37
-0.92
5.64
10.57
14.53
18.16
21.86
25.63
29.12
31.84
33.34
33.42
32.17
29.87
26.84
23.36
19.49
15.25
10.6
5.5
0.07
-5.53
-11.04
-16.17
-20.67
-24.38
-27.43
-30.22
-33.49
-38.11
-44.75
-53.48
-63.5
-73.22
-80.68
-84.14
-82.66
-76.44
-66.6
-54.74
-42.26
-30.0
-18.18
-6.72
4.35
14.7
23.75
31.02
36.32
39.87
42.19
43.77
44.96
45.82
46.24
46.08
45.25
43.85
41.98
39.7
37.01
33.86
30.18
25.97
21.26
16.11
10.51
4.35
-2.61
-10.56
-19.33
-28.19
-35.71
-40.11
-39.9
-34.45
-24.34
-11.22
2.9
16.29
27.99
37.9
46.37
53.81
60.32
65.75
69.77
72.15
72.88
72.18
70.42
67.98
65.08
61.69
57.47
51.98
44.93
36.41
26.87
17.09
7.84
-0.33
-7.22
-13.04
-18.29
-23.6
-29.58
-36.72
-45.23
-54.93
-65.12
-74.53
-81.5
-84.25
-81.5
-72.89
-59.24
-42.4
-24.69
-8.2
5.82
17.2
26.52
34.59
41.89
48.42
53.73
57.3
58.82
58.45
56.57
53.74
50.28
46.28
41.63
36.26
30.24
23.91
17.65
11.72
6.18
0.78
-4.81
-10.91
-17.73
-25.36
-33.81
-42.96
-52.48
-61.59
-68.97
-72.96
-72.09
-65.6
-53.83
-38.27
-21.01
-4.22
10.51
22.31
30.99
36.78
39.97
40.83
39.64
36.74
32.66
28.06
23.59
19.78
16.83
14.6
12.67
10.48
7.6
3.89
-0.42
-4.78
-8.61
-11.56
-13.7
-15.49
-17.61
-20.71
-25.24
-31.32
-38.65
-46.55
-53.95
-59.54
-61.95
-60.1
-53.59
-42.89
-29.31
-14.61
-0.47
12.09
22.81
32.07
40.36
48.0
54.86
60.59
64.93
67.97
70.15
71.94
73.56
74.66
74.52
72.38
67.94
61.57
54.06
46.42
39.23
32.63
26.32
19.97
13.46
6.92
0.55
-5.71
-12.3
-19.94
-29.21
-40.06
-51.48
-61.61
-68.29
-69.86
-65.78
-56.84
-44.79
-31.67
-19.14
-8.06
1.51
9.92
17.57
24.62
31.01
36.57
41.22
44.92
47.76
49.82
51.0
51.18
50.09
47.52
43.41
37.98
31.67
25.07
18.78
13.24
8.63
4.84
1.55
-1.63
-5.0
-8.79
-13.15
-18.2
-23.99
-30.31
-36.49
-41.37
-43.56
-41.87
-35.85
-26.07
-13.96
-1.35
10.23
19.93
27.67
33.8
38.71
42.56
45.23
46.54
46.44
45.22
43.45
41.78
40.66
40.17
40.0
39.59
38.38
35.98
32.19
27.07
20.78
13.6
5.89
-1.91
-9.47
-16.6
-23.32
-29.8
-36.18
-42.29
-47.59
-51.26
-52.55
-51.06
-46.98
-41.07
-34.39
-27.98
-22.64
-18.69
-16.08
-14.34
-12.9
-11.18
-8.81
-5.76
-2.25
1.33
4.69
7.67
10.3
12.57
14.3
15.06
14.38
12.04
8.32
3.95
-0.12
-3.18
-5.07
-6.2
-7.32
-9.16
-12.11
-16.19
-21.06
-26.33
-31.55
-36.12
-39.31
-40.17
-37.93
-32.16
-23.24
-12.24
-0.69
9.99
19.01
26.31
32.4
37.74
42.33
45.46
46.04
43.23
37.01
28.39
19.08
10.79
4.53
0.32
-2.71
-5.69
-9.4
-13.95
-18.91
-23.72
-28.01
-31.8
-35.38
-39.08
-43.02
-47.13
-51.29
-55.53
-60.01
-64.86
-69.91
-74.49
-77.47
-77.64
-74.21
-67.12
-57.1
-45.4
-33.38
-22.1
-12.12
-3.58
3.66
9.81
15.07
19.55
23.4
26.78
29.81
32.49
34.63
35.92
35.95
34.46
31.49
27.46
23.01
18.8
15.23
12.18
9.18
5.56
0.87
-4.88
-11.19
-17.17
-21.84
-24.33
-24.09
-21.01
-15.47
-8.42
-1.28
4.49
7.89
8.92
8.81
9.55
13.11
20.43
30.94
42.72
53.35
60.96
64.79
65.27
63.43
60.28
56.37
51.81
46.67
41.22
35.99
31.51
27.91
24.8
21.34
16.69
10.45
2.85
-5.27
-12.77
-18.68
-22.53
-24.68
-26.16
-28.33
-32.23
-37.97
-44.51
-49.9
-52.03
-49.5
-42.16
-31.2
-18.53
-6.06
4.95
14.0
21.19
26.77
30.89
33.58
34.87
34.9
34.0
32.56
30.9
29.19
27.46
25.65
23.74
21.79
19.97
18.42
17.12
15.7
13.53
9.87
4.27
-3.1
-11.38
-19.3
-25.67
-30.0
-32.67
-34.75
-37.32
-40.95
-45.28
-49.22
-51.44
-51.04
-47.81
-42.29
-35.4
-27.97
-20.59
-13.33
-6.16
0.93
7.61
13.2
16.98
18.43
17.69
15.51
13.16
11.8
12.03
13.64
15.72
17.12
16.96
14.93
11.34
6.94
2.48
-1.43
-4.53
-6.95
-9.04
-11.36
-14.47
-18.83
-24.6
-31.67
-39.44
-46.92
-52.85
-55.84
-54.95
-49.91
-41.4
-30.89
-20.16
-10.66
-3.0
3.11
8.56
14.24
20.52
27.04
32.92
37.25
39.51
39.7
38.17
35.34
31.47
26.79
21.61
16.53
12.31
9.45
7.9
6.86
5.21
2.04
-2.82
-8.73
-14.72
-20.02
-24.63
-29.18
-34.44
-40.5
-46.49
-50.76
-51.7
-48.59
-41.88
-33.12
-24.14
-16.33
-10.22
-5.62
-2.04
0.9
3.21
4.77
5.42
5.2
4.34
3.15
1.95
0.97
0.37
0.04
-0.35
-1.26
-3.09
-5.91
-9.42
-13.02
-16.08
-18.18
-19.4
-20.18
-21.22
-23.05
-25.99
-30.01
-34.9
-40.36
-45.96
-51.05
-54.7
-55.81
-53.54
-47.75
-39.28
-29.82
-21.29
-15.04
-11.31
-9.14
-7.0
-3.54
1.7
8.21
14.86
20.48
24.37
26.46
27.17
27.12
26.84
26.64
26.56
26.5
26.28
25.79
25.03
24.07
22.99
21.77
20.24
18.15
15.39
11.95
8.05
3.88
-0.42
-4.76
-8.95
-12.51
-14.67
-14.56
-11.65
-5.92
1.92
10.75
19.4
27.02
33.27
38.2
42.05
44.9
46.69
47.21
46.32
44.16
41.06
37.47
33.78
30.17
26.65
23.28
20.13
17.41
15.34
13.97
13.19
12.77
12.45
11.97
11.0
9.17
6.19
2.07
-2.82
-7.93
-12.73
-16.88
-20.16
-22.17
-22.3
-19.82
-14.31
-6.15
3.5
12.98
20.93
26.75
30.8
33.94
36.84
39.64
41.87
42.94
42.52
40.78
38.24
35.49
32.84
30.25
27.41
24.08
20.21
15.86
11.08
5.78
-0.23
-7.11
-14.94
-23.7
-33.33
-43.71
-54.57
-65.33
-74.98
-82.33
-86.37
-86.67
-83.45
-77.4
-69.3
-59.86
-49.7
-39.58
-30.4
-22.95
-17.47
-13.48
-10.06
-6.42
-2.41
1.4
4.2
5.56
5.71
5.41
5.35
5.66
5.83
5.15
3.16
0.04
-3.64
-7.2
-10.29
-12.87
-15.15
-17.33
-19.69
-22.59
-26.44
-31.43
-37.11
-42.33
-45.37
-44.69
-39.47
-29.99
-17.57
-4.0
9.01
20.36
29.7
37.25
43.42
48.47
52.31
54.6
55.01
53.49
50.37
46.24
41.65
36.81
31.52
25.4
18.22
10.22
2.16
-4.95
-10.22
-13.22
-14.11
-13.58
-12.61
-12.18
-13.01
-15.47
-19.54
-24.99
-31.32
-37.77
-43.25
-46.46
-46.36
-42.49
-35.32
-26.05
-16.14
-6.75
1.69
9.26
16.14
22.11
26.56
28.78
28.52
26.35
23.51
21.37
20.75
21.57
22.96
23.79
23.24
21.16
18.06
14.78
12.11
10.36
9.32
8.35
6.7
3.86
-0.21
-5.14
-10.29
-15.05
-19.05
-22.08
-24.02
-24.71
-23.81
-20.9
-15.59
-7.71
2.64
15.22
29.76
45.91
62.71
78.21
89.37
92.84
86.31
69.75
45.9
19.59
-3.97
-20.95
-29.86
-31.54
-28.03
-21.56
-13.82
-5.93
1.24
6.91
10.41
11.38
9.73
5.57
-0.97
-9.75
-20.45
-32.43
-44.63
-55.93
-65.28
-72.06
-75.84
-76.3
-73.25
-66.65
-56.9
-44.92
-31.95
-19.16
-7.24
3.69
13.89
23.52
32.39
39.76
44.76
46.85
46.12
43.34
39.63
36.12
33.52
32.02
31.07
29.65
26.57
20.91
12.32
1.2
-11.53
-24.82
-37.82
-50.14
-61.55
-71.85
-80.42
-86.37
-88.83
-87.34
-82.29
-74.72
-66.0
-57.15
-48.61
-40.17
-31.39
-22.08
-12.56
-3.57
4.12
9.93
13.68
15.43
15.37
13.68
10.62
6.69
2.57
-1.04
-3.7
-5.28
-5.9
-5.68
-4.74
-3.41
-2.23
-1.91
-2.96
-5.54
-9.42
-14.33
-20.25
-27.4
-35.84
-44.98
-53.53
-59.78
-62.52
-61.57
-57.92
-53.17
-48.51
-44.34
-40.15
-35.25
-29.23
-22.32
-15.06
-8.01
-1.41
4.84
10.85
16.55
21.54
25.32
27.56
28.36
28.17
27.48
26.61
25.61
24.53
23.6
23.31
24.08
25.92
28.36
30.48
31.26
29.82
25.56
18.2
7.87
-4.62
-17.69
-29.06
-36.41
-38.05
-33.6
-24.05
-11.23
2.88
16.65
28.95
39.12
46.71
51.62
54.06
54.65
54.1
52.97
51.44
49.48
47.04
44.12
40.83
37.26
33.41
29.26
24.95
20.91
17.77
16.16
16.33
18.01
20.38
22.29
22.59
20.53
16.0
9.54
2.33
-4.24
-8.75
-10.17
-7.96
-2.16
6.68
17.61
29.43
40.94
51.14
59.3
65.11
68.57
69.95
69.66
68.17
65.94
63.38
60.77
58.28
56.01
53.97
52.06
49.95
46.98
42.35
35.5
26.53
16.36
6.37
-2.22
-8.95
-14.37
-19.63
-25.77
-33.16
-41.29
-49.03
-55.23
-59.08
-60.33
-59.1
-55.76
-50.66
-44.14
-36.5
-28.0
-18.95
-9.69
-0.59
7.9
15.38
21.55
26.32
29.74
31.91
32.77
32.1
29.55
24.93
18.51
11.09
3.81
-2.32
-6.81
-9.99
-12.73
-15.94
-20.1
-25.14
-30.65
-36.27
-41.86
-47.39
-52.57
-56.6
-58.32
-56.67
-51.12
-42.02
-30.44
-17.73
-5.06
6.73
17.28
26.51
34.51
41.43
47.42
52.46
56.42
59.02
60.06
59.5
57.57
54.65
51.1
47.11
42.63
37.56
31.9
25.93
20.14
15.01
10.74
7.05
3.27
-1.45
-7.77
-15.87
-25.26
-34.89
-43.36
-49.19
-51.36
-49.42
-43.75
-35.37
-25.6
-15.54
-5.77
3.7
13.24
23.11
33.18
42.92
51.66
58.87
64.29
67.79
69.18
68.25
64.89
59.41
52.47
44.92
37.38
30.05
22.86
15.78
9.1
3.32
-1.18
-4.62
-7.8
-11.8
-17.34
-24.3
-31.85
-38.79
-44.12
-47.22
-47.96
-46.38
-42.6
-36.84
-29.52
-21.41
-13.48
-6.57
-1.04
3.38
7.5
12.21
17.89
24.07
29.54
32.87
33.12
30.28
25.18
18.95
12.49
6.13
-0.1
-6.13
-11.55
-15.77
-18.4
-19.61
-20.15
-21.04
-23.17
-26.95
-32.33
-38.86
-45.9
-52.61
-58.02
-61.11
-61.08
-57.54
-50.67
-41.23
-30.21
-18.6
-7.16
3.63
13.34
21.51
27.61
31.15
32.05
30.79
28.37
25.96
24.45
23.97
23.87
23.02
20.44
15.72
9.25
2.05
-4.65
-9.64
-12.21
-12.47
-11.32
-10.31
-11.16
-15.05
-22.18
-31.69
-41.97
-51.4
-58.77
-63.53
-65.63
-65.15
-62.23
-57.13
-50.49
-43.45
-37.31
-33.03
-30.86
-30.46
-31.25
-32.81
-34.98
-37.62
-40.2
-41.79
-41.35
-38.24
-32.67
-25.58
-18.16
-11.24
-5.07
0.43
5.13
8.42
9.6
8.41
5.61
2.61
0.89
1.02
2.54
4.51
6.28
8.15
11.17
16.44
24.23
33.71
43.51
52.44
59.9
65.71
69.81
71.86
71.74
69.98
68.0
67.71
70.81
77.95
88.49
100.83
112.98
123.11
129.6
130.75
125.03
111.73
91.54
66.32
38.57
10.57
-15.87
-39.21
-58.2
-71.71
-79.15
-81.3
-80.74
-81.1
-85.02
-92.08
-98.65
-100.02
-93.15
-78.41
-59.63
-42.2
-30.41
-25.73
-26.76
-29.0
-28.06
-23.68
-19.43
-19.55
-25.63
-35.33
-44.02
-46.11
-38.01
-19.98
3.93
28.05
47.5
59.9
65.8
65.36
60.96
55.68
52.22
52.22
56.44
64.52
74.75
84.12
88.95
87.05
77.84
62.6
43.81
24.69
7.98
-3.88
-9.24
-10.37
-11.26
-14.44
-18.99
-23.8
-26.65
-26.91
-25.46
-24.07
-24.49
-24.51
-22.56
-17.36
-8.57
3.2
16.29
28.4
36.93
39.63
35.78
26.2
13.33
0.24
-10.29
-17.15
-21.13
-24.39
-29.1
-35.84
-43.39
-49.36
-51.82
-50.41
-46.57
-42.39
-39.38
-37.81
-36.75
-35.21
-32.92
-30.61
-29.55
-30.69
-33.79
-37.59
-40.47
-41.39
-40.48
-38.89
-38.11
-39.22
-42.39
-46.82
-51.2
-54.22
-55.1
-53.81
-50.88
-47.0
-42.73
-38.37
-34.11
-30.13
-26.7
-23.92
-21.37
-18.07
-12.71
-4.31
7.16
20.53
33.71
44.63
52.03
56.02
57.81
59.0
60.88
63.74
66.91
68.99
68.64
65.04
58.42
49.88
40.93
32.77
25.9
19.97
14.28
8.35
2.23
-3.5
-8.18
-11.56
-13.99
-16.17
-18.71
-21.76
-25.0
-27.97
-30.37
-32.13
-33.25
-33.46
-32.24
-28.99
-23.48
-16.03
-7.56
0.82
8.19
14.18
18.93
22.82
26.1
28.73
30.38
30.66
29.5
27.27
24.67
22.51
21.3
21.03
21.07
20.49
18.46
14.71
9.63
4.2
-0.52
-3.83
-5.73
-6.8
-7.92
-9.88
-13.05
-17.38
-22.49
-27.69
-32.22
-35.23
-35.92
-33.77
-28.74
-21.33
-12.43
-3.0
6.25
15.01
23.17
30.59
36.89
41.44
43.65
43.24
40.38
35.72
30.11
24.48
19.51
15.52
12.42
9.81
7.21
4.34
1.23
-1.81
-4.38
-6.25
-7.53
-8.64
-10.11
-12.39
-15.65
-19.76
-24.29
-28.57
-31.73
-32.81
-30.9
-25.5
-16.67
-5.15
7.77
20.63
32.1
41.4
48.14
52.33
54.12
53.66
51.14
46.95
41.64
35.85
30.11
24.68
19.51
14.36
9.08
3.79
-1.11
-5.17
-8.21
-10.42
-12.31
-14.36
-16.83
-19.76
-23.1
-26.95
-31.6
-37.29
-43.75
-50.08
-54.7
-56.05
-53.17
-46.22
-36.42
-25.51
-15.05
-5.89
1.93
8.87
15.35
21.3
26.12
28.87
28.82
25.82
20.6
14.45
8.72
4.25
1.0
-1.68
-4.65
-8.37
-12.68
-17.0
-20.82
-23.98
-26.82
-29.84
-33.33
-37.19
-41.03
-44.58
-47.81
-50.85
-53.57
-55.26
-54.72
-50.73
-42.76
-31.36
-18.06
-4.74
7.02
16.52
23.81
29.34
33.5
36.37
37.84
37.89
36.8
35.05
33.17
31.4
29.62
27.52
24.73
21.14
16.85
12.14
7.36
2.85
-1.09
-4.3
-6.66
-8.34
-9.74
-11.53
-14.46
-19.05
-25.32
-32.54
-39.42
-44.29
-45.72
-42.99
-36.4
-27.22
-17.26
-8.27
-1.46
2.84
5.09
6.26
7.29
8.72
10.45
11.86
12.17
10.87
8.04
4.29
0.49
-2.51
-4.22
-4.51
-3.62
-1.94
0.13
2.21
4.03
5.38
6.08
5.99
4.99
2.94
-0.25
-4.57
-9.8
-15.47
-20.83
-25.0
-27.1
-26.53
-23.19
-17.6
-10.71
-3.58
3.17
9.48
15.67
22.0
28.23
33.64
37.39
39.04
38.78
37.35
35.49
33.55
31.41
28.71
25.25
21.18
16.95
12.93
9.28
5.96
2.85
0.04
-2.24
-3.76
-4.52
-4.82
-5.27
-6.58
-9.27
-13.54
-18.96
-24.68
-29.48
-32.16
-31.85
-28.34
-22.13
-14.28
-6.03
1.66
8.19
13.45
17.39
19.92
20.86
20.05
17.66
14.12
10.26
6.88
4.59
3.56
3.49
3.74
3.6
2.67
0.95
-1.12
-3.03
-4.44
-5.41
-6.43
-8.05
-10.73
-14.56
-19.4
-24.86
-30.43
-35.37
-38.77
-39.77
-37.82
-32.98
-25.79
-17.12
-7.73
1.77
10.86
19.0
25.44
29.54
30.93
29.77
26.59
22.13
17.04
11.8
6.81
2.47
-0.82
-2.8
-3.58
-3.57
-3.3
-3.11
-3.07
-2.96
-2.58
-1.94
-1.42
-1.58
-2.91
-5.59
-9.41
-13.91
-18.48
-22.47
-25.17
-25.83
-23.88
-19.22
-12.41
-4.54
3.15
9.72
14.84
18.69
21.64
23.89
25.31
25.55
24.37
21.85
18.5
15.02
12.01
9.75
8.07
6.6
4.87
2.63
-0.11
-3.18
-6.29
-9.23
-11.78
-13.83
-15.29
-16.31
-17.27
-18.74
-21.23
-24.94
-29.55
-34.26
-38.06
-39.97
-39.35
-35.92
-29.83
-21.66
-12.29
-2.76
6.04
13.61
19.95
25.4
30.32
34.83
38.8
42.03
44.41
46.04
47.05
47.49
47.19
45.86
43.34
39.66
35.19
30.43
25.83
21.67
18.1
15.09
12.42
9.66
6.16
1.33
-5.2
-13.33
-22.38
-31.22
-38.45
-42.75
-43.1
-39.16
-31.28
-20.62
-8.79
2.58
12.22
19.59
24.8
28.31
30.43
31.22
30.38
27.71
23.44
18.46
14.22
12.2
13.21
16.82
21.4
24.79
25.3
22.45
17.11
10.86
5.02
0.03
-4.62
-9.76
-15.91
-22.79
-29.53
-35.24
-39.43
-42.24
-43.92
-44.48
-43.41
-39.82
-32.97
-22.81
-10.2
3.29
15.87
26.18
33.63
38.42
41.18
42.47
42.62
41.65
39.6
36.64
33.06
29.13
24.94
20.43
15.44
9.97
4.21
-1.43
-6.47
-10.44
-13.06
-14.35
-14.65
-14.55
-14.74
-15.79
-18.04
-21.52
-25.9
-30.65
-35.08
-38.41
-39.89
-38.79
-34.61
-27.25
-17.25
-5.79
5.64
15.72
23.75
29.68
33.81
36.31
37.0
35.38
31.13
24.48
16.42
8.34
1.54
-3.28
-6.23
-7.88
-8.89
-9.58
-9.89
-9.61
-8.56
-6.91
-5.09
-3.8
-3.7
-5.27
-8.6
-13.36
-18.88
-24.3
-28.78
-31.51
-31.84
-29.32
-23.97
-16.39
-7.78
0.4
6.92
11.17
13.3
14.0
14.06
13.98
13.82
13.27
12.06
10.18
8.04
6.3
5.52
5.85
6.91
7.83
7.61
5.53
1.67
-3.18
-7.71
-10.86
-12.21
-12.17
-11.57
-11.11
-11.16
-11.63
-12.37
-13.32
-14.5
-15.76
-16.61
-16.32
-14.3
-10.54
-5.62
-0.35
4.63
9.25
13.9
19.02
24.66
30.4
35.5
39.29
41.46
42.18
41.83
40.78
39.23
37.12
34.31
30.58
25.92
20.54
14.98
9.94
6.0
3.27
1.32
-0.66
-3.48
-7.5
-12.49
-17.8
-22.7
-26.88
-30.37
-33.4
-35.92
-37.35
-36.72
-33.2
-26.65
-17.79
-8.12
0.68
7.29
11.27
13.05
13.51
13.44
13.13
12.46
11.39
10.34
10.17
11.76
15.34
20.23
25.02
28.2
28.9
27.11
23.56
19.16
14.56
9.95
5.41
1.14
-2.49
-5.15
-6.97
-8.55
-10.83
-14.52
-19.73
-25.74
-31.17
-34.46
-34.45
-30.85
-24.28
-16.01
-7.46
0.29
6.69
11.74
15.65
18.63
20.59
21.25
20.29
17.69
13.86
9.49
5.35
1.9
-0.79
-3.01
-5.13
-7.38
-9.76
-12.03
-13.94
-15.29
-16.06
-16.3
-16.19
-15.98
-16.05
-16.86
-18.86
-22.24
-26.63
-31.09
-34.17
-34.5
-31.32
-24.81
-15.99
-6.18
3.51
12.49
20.51
27.31
32.27
34.57
33.57
29.31
22.72
15.34
8.77
4.12
1.71
1.14
1.57
2.19
2.42
2.04
1.14
-0.08
-1.42
-2.87
-4.58
-6.83
-9.72
-13.19
-17.04
-21.11
-25.42
-30.02
-34.78
-39.21
-42.43
-43.42
-41.43
-36.31
-28.65
-19.63
-10.61
-2.72
3.47
7.96
11.18
13.63
15.73
17.62
19.15
19.92
19.57
17.96
15.33
12.18
9.04
6.19
3.61
1.2
-0.97
-2.6
-3.5
-3.88
-4.36
-5.69
-8.24
-11.72
-15.39
-18.72
-21.81
-25.44
-30.54
-37.39
-45.14
-51.99
-55.89
-55.39
-50.13
-40.85
-28.96
-16.03
-3.34
8.26
18.42
27.16
34.53
40.36
44.2
45.61
44.49
41.4
37.37
33.46
30.26
27.61
24.89
21.44
16.99
11.81
6.48
1.6
-2.57
-6.17
-9.52
-12.93
-16.55
-20.43
-24.68
-29.52
-35.11
-41.29
-47.32
-52.08
-54.28
-53.02
-48.13
-40.26
-30.66
-20.65
-11.18
-2.52
5.56
13.35
20.77
27.37
32.55
35.98
37.84
38.67
39.09
39.35
39.25
38.2
35.61
31.24
25.29
18.33
11.05
4.16
-1.76
-6.28
-9.22
-10.7
-11.12
-11.1
-11.22
-12.03
-13.9
-17.05
-21.32
-26.1
-30.21
-32.15
-30.63
-25.1
-16.2
-5.48
5.18
14.29
21.2
26.02
29.22
31.09
31.6
30.44
27.51
23.11
17.92
12.8
8.48
5.38
3.7
3.55
4.86
7.36
10.4
13.07
14.51
14.18
12.07
8.53
4.04
-1.12
-6.86
-13.27
-20.33
-27.84
-35.3
-41.97
-46.86
-48.88
-47.14
-41.33
-32.0
-20.61
-8.99
1.22
9.21
15.07
19.51
23.29
26.76
29.73
31.77
32.51
31.9
30.27
28.1
25.87
23.82
21.93
19.98
17.69
14.94
11.74
8.3
4.84
1.61
-1.31
-3.98
-6.65
-9.82
-14.14
-20.31
-28.64
-38.76
-49.28
-58.01
-62.68
-61.67
-54.67
-42.78
-27.99
-12.44
2.22
15.14
26.15
35.37
42.85
48.37
51.5
51.95
49.77
45.54
40.12
34.55
29.55
25.47
22.18
19.38
16.69
13.96
11.15
8.3
5.41
2.35
-1.04
-5.08
-10.11
-16.55
-24.77
-34.9
-46.55
-58.61
-69.37
-76.87
-79.5
-76.48
-68.03
-55.24
-39.61
-22.61
-5.44
11.11
26.44
39.94
50.93
58.79
63.13
64.0
61.99
58.07
53.33
48.59
44.23
40.1
35.88
31.33
26.54
21.87
17.76
14.44
11.79
9.38
6.57
2.83
-2.31
-9.1
-17.7
-27.94
-39.07
-49.7
-57.94
-61.93
-60.45
-53.38
-41.69
-27.18
-11.76
3.1
16.73
29.11
40.41
50.55
58.97
64.93
67.94
68.18
66.49
64.02
61.64
59.57
57.31
54.02
49.12
42.59
35.02
27.28
20.05
13.62
7.91
2.71
-2.12
-6.62
-10.89
-15.18
-19.82
-25.03
-30.6
-35.79
-39.43
-40.28
-37.52
-31.07
-21.72
-10.73
0.51
10.95
20.03
27.67
34.04
39.36
43.73
47.05
49.06
49.49
48.27
45.61
42.0
37.97
33.9
29.89
25.79
21.44
16.79
12.09
7.66
3.74
0.26
-3.11
-6.77
-11.05
-16.09
-21.89
-28.24
-34.7
-40.43
-44.2
-44.69
-41.03
-33.35
-22.77
-11.02
0.48
11.12
21.1
30.83
40.25
48.5
54.25
56.44
54.85
50.25
44.04
37.51
31.39
25.77
20.41
15.14
10.12
5.77
2.43
0.27
-0.92
-1.58
-2.32
-3.75
-6.39
-10.62
-16.64
-24.36
-33.21
-42.12
-49.7
-54.62
-56.06
-53.87
-48.6
-41.11
-32.27
-22.7
-12.75
-2.67
7.15
16.11
23.48
28.58
31.09
31.19
29.54
27.03
24.48
22.34
20.6
18.87
16.61
13.5
9.53
4.98
0.18
-4.58
-9.24
-13.83
-18.33
-22.54
-26.25
-29.4
-32.21
-35.1
-38.3
-41.39
-43.31
-42.7
-38.64
-31.2
-21.58
-11.54
-2.62
4.49
10.05
14.78
19.19
23.2
26.25
27.67
27.22
25.27
22.64
20.31
18.96
18.79
19.4
20.03
19.96
18.77
16.61
14.01
11.64
9.92
8.87
8.03
6.77
4.6
1.35
-2.93
-8.12
-14.16
-21.03
-28.42
-35.58
-41.39
-44.75
-45.02
-42.34
-37.5
-31.5
-25.14
-18.64
-11.89
-4.75
2.6
9.53
15.27
19.26
21.34
21.74
20.91
19.2
16.9
14.23
11.45
8.87
6.76
5.16
3.88
2.64
1.27
-0.16
-1.47
-2.53
-3.5
-4.86
-7.23
-11.08
-16.51
-23.19
-30.38
-37.17
-42.72
-46.3
-47.42
-45.83
-41.55
-34.85
-26.25
-16.41
-6.03
4.21
13.7
21.99
28.78
33.92
37.27
38.73
38.26
36.05
32.57
28.52
24.53
21.02
18.1
15.57
13.13
10.52
7.63
4.44
1.01
-2.63
-6.47
-10.41
-14.24
-17.64
-20.42
-22.64
-24.66
-26.93
-29.56
-32.11
-33.59
-32.94
-29.52
-23.56
-16.09
-8.47
-1.76
3.65
7.96
11.66
14.99
17.84
19.75
20.32
19.5
17.74
15.82
14.57
14.45
15.27
16.28
16.43
15.0
11.92
7.87
3.83
0.5
-2.12
-4.68
-8.03
-12.64
-18.31
-24.32
-29.84
-34.26
-37.23
-38.52
-37.87
-34.96
-29.7
-22.43
-14.0
-5.55
1.88
7.65
11.72
14.43
16.19
17.22
17.45
16.72
14.96
12.38
9.36
6.34
3.55
1.07
-1.21
-3.45
-5.82
-8.4
-11.17
-14.02
-16.73
-19.01
-20.61
-21.44
-21.66
-21.63
-21.88
-22.88
-24.99
-28.31
-32.69
-37.59
-42.08
-44.92
-44.91
-41.45
-34.82
-26.17
-16.98
-8.49
-1.28
4.81
10.24
15.26
19.72
23.03
24.56
24.08
21.82
18.44
14.65
10.92
7.38
3.98
0.64
-2.52
-5.2
-6.94
-7.49
-6.88
-5.56
-4.25
-3.6
-3.94
-5.26
-7.31
-9.8
-12.71
-16.32
-21.0
-26.71
-32.72
-37.6
-39.73
-37.96
-32.18
-23.44
-13.52
-4.32
2.92
7.88
11.05
13.28
15.19
16.94
18.22
18.61
17.96
16.55
14.95
13.68
12.98
12.61
12.11
10.99
9.1
6.64
4.04
1.67
-0.29
-1.99
-3.74
-5.82
-8.21
-10.57
-12.44
-13.65
-14.52
-15.83
-18.24
-21.81
-25.65
-28.29
-28.34
-25.19
-19.32
-11.97
-4.51
2.07
7.49
11.9
15.58
18.72
21.38
23.52
25.17
26.38
27.19
27.73
28.18
28.71
29.38
30.0
30.15
29.4
27.47
24.39
20.44
16.07
11.68
7.59
3.98
0.9
-1.71
-4.07
-6.55
-9.5
-13.15
-17.46
-22.16
-26.75
-30.59
-32.94
-33.12
-30.63
-25.47
-18.17
-9.7
-1.16
6.65
13.35
18.96
23.6
27.23
29.62
30.49
29.77
27.73
25.0
22.29
20.29
19.36
19.43
19.98
20.17
19.28
17.03
13.74
10.07
6.6
3.5
0.45
-3.05
-7.31
-12.33
-17.97
-24.23
-31.33
-39.35
-47.87
-55.64
-60.88
-61.91
-57.93
-49.36
-37.72
-24.98
-12.92
-2.65
5.46
11.55
16.04
19.32
21.72
23.42
24.47
24.82
24.44
23.35
21.62
19.35
16.61
13.39
9.69
5.59
1.21
-3.18
-7.3
-10.94
-14.0
-16.63
-19.11
-21.75
-24.75
-28.21
-32.13
-36.55
-41.5
-46.94
-52.61
-57.84
-61.54
-62.45
-59.55
-52.67
-42.62
-31.01
-19.54
-9.33
-0.61
7.1
14.37
21.43
27.92
33.09
36.22
36.95
35.41
32.06
27.39
21.83
15.71
9.43
3.54
-1.31
-4.63
-6.23
-6.27
-5.28
-3.86
-2.55
-1.69
-1.42
-1.83
-3.07
-5.34
-8.91
-13.85
-19.94
-26.58
-32.74
-37.19
-38.73
-36.56
-30.64
-21.74
-11.25
-0.63
9.07
17.52
24.89
31.49
37.31
41.96
44.95
45.97
45.2
43.17
40.5
37.51
34.18
30.32
25.7
20.41
14.67
8.79
2.99
-2.57
-7.88
-12.9
-17.37
-20.87
-22.85
-23.12
-22.08
-20.69
-20.12
-21.23
-24.26
-28.75
-33.96
-39.02
-43.26
-46.08
-46.95
-45.4
-41.17
-34.39
-25.59
-15.6
-5.21
4.97
14.57
23.28
30.77
36.73
40.98
43.5
44.36
43.63
41.4
37.82
33.24
28.17
23.18
18.68
14.84
11.57
8.79
6.47
4.58
3.04
1.56
-0.21
-2.63
-5.85
-9.89
-14.71
-20.36
-26.87
-33.97
-40.84
-46.03
-47.87
-45.16
-37.79
-26.83
-14.22
-1.92
8.81
17.6
24.76
30.73
35.75
39.78
42.84
45.28
47.65
50.38
53.22
55.3
55.5
53.21
48.77
43.31
38.09
33.81
30.38
27.23
23.9
20.26
16.45
12.42
7.66
1.35
-7.23
-18.22
-31.1
-44.72
-57.68
-68.47
-75.7
-78.29
-75.8
-68.65
-58.12
-45.96
-33.78
-22.5
-12.35
-3.12
5.31
12.67
18.39
21.96
23.27
22.73
21.08
19.04
16.99
14.9
12.5
9.49
5.92
2.13
-1.25
-3.65
-4.84
-5.04
-4.92
-5.32
-7.02
-10.45
-15.67
-22.53
-30.76
-40.06
-49.78
-58.76
-65.26
-67.5
-64.47
-56.53
-45.41
-33.35
-22.09
-12.13
-2.91
6.48
16.38
26.09
34.24
39.5
41.41
40.47
37.89
34.89
32.15
29.68
27.03
23.79
19.8
15.32
10.83
6.75
3.26
0.11
-3.12
-6.84
-11.12
-15.64
-19.95
-23.96
-28.08
-32.99
-39.07
-45.91
-52.25
-56.31
-56.48
-51.82
-42.44
-29.41
-14.41
0.72
14.51
26.1
35.37
42.69
48.59
53.46
57.35
59.99
61.01
60.26
57.98
54.65
50.81
46.76
42.55
38.03
33.03
27.35
21.01
14.18
7.31
0.91
-4.61
-9.13
-12.84
-16.22
-19.93
-24.66
-30.95
-38.86
-47.76
-56.31
-62.65
-64.96
-61.98
-53.44
-40.17
-23.77
-6.11
11.16
27.01
41.02
53.12
63.37
71.74
78.04
82.14
83.96
83.76
81.96
79.06
75.44
71.23
66.39
60.82
54.49
47.51
40.16
32.79
25.77
19.38
13.72
8.61
3.63
-1.81
-8.27
-16.06
-25.15
-35.07
-44.92
-53.44
-59.23
-61.08
-58.34
-51.27
-40.87
-28.64
-15.97
-3.76
7.71
18.58
28.96
38.67
47.09
53.48
57.24
58.2
56.72
53.51
49.51
45.46
41.68
37.97
33.92
29.1
23.48
17.42
11.44
6.01
1.21
-3.22
-7.76
-12.89
-19.0
-26.27
-34.66
-43.79
-52.77
-60.39
-65.21
-66.04
-62.27
-54.14
-42.54
-28.73
-14.05
0.41
13.83
25.63
35.4
43.0
48.49
52.13
54.34
55.43
55.65
55.01
53.54
51.27
48.36
44.98
41.13
36.62
31.21
24.83
17.77
10.74
4.55
-0.24
-3.56
-5.95
-8.27
-11.52
-16.46
-23.52
-32.36
-41.94
-50.6
-56.52
-58.27
-55.25
-47.87
-37.36
-25.37
-13.42
-2.57
6.75
14.66
21.49
27.53
32.82
37.12
40.0
41.08
40.21
37.55
33.59
28.83
23.65
18.17
12.38
6.3
0.24
-5.25
-9.63
-12.52
-14.05
-14.81
-15.7
-17.6
-21.01
-25.91
-31.88
-38.25
-44.41
-49.86
-54.06
-56.31
-55.79
-51.81
-44.24
-33.71
-21.66
-9.8
0.4
8.2
13.7
17.6
20.65
23.32
25.65
27.44
28.53
28.99
29.06
28.89
28.36
27.28
25.41
22.77
19.65
16.5
13.71
11.4
9.43
7.49
5.35
2.84
-0.1
-3.5
-7.3
-11.49
-16.11
-21.29
-27.05
-33.04
-38.36
-41.68
-41.8
-38.21
-31.45
-22.99
-14.51
-7.18
-1.23
3.79
8.48
13.01
17.01
19.88
21.31
21.62
21.52
21.83
22.99
24.93
27.14
28.91
29.57
28.77
26.52
23.1
18.96
14.58
10.33
6.39
2.7
-0.94
-4.74
-8.82
-13.23
-18.02
-23.35
-29.36
-35.89
-42.22
-47.11
-49.12
-47.21
-41.22
-32.04
-21.24
-10.45
-0.83
7.21
13.74
19.01
23.09
25.83
27.07
26.71
24.92
22.1
18.82
15.7
13.17
11.35
9.96
8.53
6.68
4.31
1.72
-0.72
-2.77
-4.67
-6.99
-10.34
-15.03
-20.88
-27.44
-34.22
-40.96
-47.43
-53.26
-57.6
-59.24
-57.07
-50.61
-40.38
-27.74
-14.43
-1.93
8.89
17.77
24.87
30.34
34.17
36.22
36.46
35.05
32.5
29.44
26.4
23.62
20.97
18.19
15.02
11.39
7.44
3.41
-0.49
-4.24
-7.97
-11.94
-16.3
-21.16
-26.44
-31.98
-37.47
-42.54
-46.84
-50.08
-52.04
-52.48
-51.05
-47.38
-41.26
-32.93
-23.25
-13.5
-4.81
2.32
8.19
13.51
18.78
23.79
27.79
30.07
30.49
29.68
28.53
27.64
26.85
25.41
22.52
17.85
11.82
5.24
-1.02
-6.44
-10.89
-14.39
-17.05
-18.9
-20.15
-21.11
-22.27
-24.12
-27.06
-31.07
-35.6
-39.63
-41.81
-41.05
-36.89
-29.76
-20.74
-11.18
-2.11
5.94
12.86
18.84
23.98
28.26
31.45
33.3
33.62
32.49
30.25
27.37
24.31
21.32
18.45
15.59
12.69
9.86
7.32
5.3
3.76
2.49
1.11
-0.66
-2.86
-5.39
-8.22
-11.48
-15.48
-20.43
-26.14
-31.85
-36.35
-38.37
-37.08
-32.43
-25.16
-16.37
-7.14
1.87
10.39
18.32
25.5
31.54
36.05
38.76
39.73
39.25
37.67
35.21
31.98
28.09
23.83
19.66
16.1
13.45
11.67
10.43
9.34
8.1
6.64
5.02
3.33
1.5
-0.63
-3.32
-6.75
-10.95
-15.89
-21.36
-27.02
-32.24
-36.1
-37.6
-36.04
-31.41
-24.47
-16.51
-8.83
-2.22
3.25
8.01
12.63
17.35
21.95
25.86
28.45
29.41
28.79
27.0
24.57
22.0
19.58
17.34
15.12
12.7
9.91
6.79
3.62
0.78
-1.5
-3.24
-4.84
-6.86
-9.72
-13.52
-18.01
-22.72
-27.13
-30.81
-33.3
-34.12
-32.8
-29.1
-23.23
-15.9
-8.21
-1.19
4.51
8.93
12.55
16.03
19.78
23.73
27.41
30.17
31.61
31.7
30.85
29.59
28.35
27.2
25.89
24.02
21.31
17.77
13.62
9.17
4.62
0.05
-4.52
-9.07
-13.56
-18.0
-22.43
-27.08
-32.22
-37.98
-44.2
-50.23
-55.03
-57.42
-56.52
-52.07
-44.58
-35.13
-24.98
-15.16
-6.18
1.89
9.19
15.64
20.92
24.53
26.12
25.79
24.08
21.78
19.52
17.63
15.99
14.28
12.24
9.86
7.4
5.21
3.47
2.13
1.03
0.04
-0.8
-1.36
-1.72
-2.21
-3.47
-6.18
-10.81
-17.34
-25.22
-33.31
-40.21
-44.49
-45.13
-41.8
-34.96
-25.63
-15.1
-4.5
5.43
14.38
22.2
28.79
34.0
37.68
39.69
40.1
39.08
36.89
33.89
30.48
27.04
23.86
20.99
18.3
15.61
12.92
10.32
7.92
5.58
2.89
-0.61
-5.17
-10.6
-16.35
-21.79
-26.62
-30.79
-34.41
-37.28
-38.82
-38.2
-34.82
-28.63
-20.36
-11.17
-2.19
5.77
12.41
17.67
21.65
24.44
26.08
26.73
26.6
25.98
25.06
23.98
22.82
21.62
20.46
19.29
18.0
16.3
13.85
10.42
6.15
1.48
-2.97
-6.78
-9.94
-12.93
-16.44
-21.06
-26.86
-33.28
-39.24
-43.59
-45.43
-44.36
-40.51
-34.37
-26.55
-17.75
-8.67
-0.02
7.52
13.49
17.75
20.57
22.52
24.2
25.87
27.46
28.68
29.19
28.83
27.57
25.4
22.25
18.08
12.91
7.02
0.86
-5.01
-10.19
-14.49
-17.93
-20.66
-22.83
-24.66
-26.45
-28.6
-31.49
-35.21
-39.34
-43.0
-45.11
-44.74
-41.51
-35.75
-28.3
-20.06
-11.77
-3.9
3.2
9.25
14.05
17.6
20.12
22.0
23.5
24.68
25.34
25.27
24.52
23.38
22.19
20.94
19.22
16.32
11.77
5.69
-1.14
-7.59
-12.68
-15.95
-17.48
-17.77
-17.43
-17.09
-17.24
-18.23
-20.19
-22.9
-25.72
-27.76
-28.17
-26.38
-22.32
-16.39
-9.28
-1.72
5.62
12.28
17.88
22.12
24.85
26.13
26.19
25.33
23.78
21.57
18.67
15.13
11.25
7.57
4.65
2.86
2.14
2.03
1.9
1.18
-0.33
-2.52
-5.08
-7.73
-10.4
-13.2
-16.38
-20.16
-24.51
-29.03
-32.99
-35.49
-35.62
-32.8
-26.88
-18.34
-8.25
2.03
11.13
18.17
22.96
25.94
27.91
29.49
30.84
31.58
31.19
29.42
26.59
23.46
20.92
19.49
19.07
19.11
18.93
18.13
16.7
14.91
13.04
11.16
9.12
6.65
3.58
-0.01
-3.8
-7.38
-10.56
-13.33
-15.83
-18.02
-19.66
-20.25
-19.36
-16.81
-12.91
-8.25
-3.51
0.77
4.37
7.39
10.09
12.71
15.28
17.59
19.2
19.71
18.96
17.19
15.02
13.15
11.94
11.18
10.23
8.39
5.39
1.59
-2.23
-5.32
-7.35
-8.4
-8.86
-9.11
-9.47
-10.23
-11.64
-13.8
-16.5
-19.16
-20.97
-21.24
-19.64
-16.41
-12.17
-7.73
-3.68
-0.26
2.69
5.53
8.56
11.82
15.02
17.59
19.01
19.09
18.09
16.57
15.1
13.88
12.68
11.07
8.66
5.46
1.86
-1.52
-4.13
-5.71
-6.45
-6.89
-7.73
-9.63
-13.0
-17.9
-23.98
-30.56
-36.77
-41.7
-44.53
-44.71
-42.01
-36.68
-29.39
-21.15
-12.99
-5.69
0.42
5.44
9.77
13.73
17.4
20.41
22.2
22.27
20.6
17.78
14.78
12.51
11.18
10.26
8.75
5.99
2.13
-1.77
-4.42
-5.13
-4.3
-3.3
-3.66
-6.26
-11.02
-17.16
-23.82
-30.46
-36.83
-42.54
-46.72
-48.13
-45.71
-39.18
-29.31
-17.62
-5.68
5.38
15.07
23.35
30.23
35.53
38.93
40.27
39.62
37.43
34.37
31.11
28.1
25.47
23.07
20.68
18.13
15.32
12.25
8.92
5.32
1.46
-2.53
-6.52
-10.44
-14.27
-18.14
-22.2
-26.55
-31.01
-35.09
-38.01
-38.99
-37.48
-33.4
-27.25
-19.86
-12.2
-5.05
1.22
6.59
11.28
15.44
18.99
21.64
23.1
23.25
22.35
20.93
19.56
18.64
18.2
17.96
17.39
16.08
13.87
10.96
7.7
4.45
1.38
-1.58
-4.64
-7.98
-11.56
-15.22
-18.73
-21.89
-24.55
-26.58
-27.72
-27.64
-26.03
-22.77
-18.05
-12.23
-5.75
1.0
7.79
14.34
20.35
25.43
29.24
31.57
32.39
31.85
30.22
27.84
25.09
22.35
19.92
17.92
16.21
14.47
12.41
9.91
7.25
4.86
3.16
2.16
1.48
0.44
-1.56
-4.85
-9.32
-14.5
-19.73
-24.25
-27.34
-28.33
-26.81
-22.66
-16.21
-8.22
0.12
7.56
13.18
16.72
18.61
19.61
20.39
21.1
21.34
20.5
18.2
14.67
10.53
6.52
3.03
0.01
-2.8
-5.55
-8.06
-9.9
-10.77
-10.75
-10.28
-9.94
-10.29
-11.65
-14.24
-18.13
-23.26
-29.16
-34.84
-39.0
-40.36
-38.21
-32.66
-24.66
-15.62
-6.99
0.23
5.65
9.51
12.33
14.68
16.89
18.94
20.54
21.3
20.96
19.57
17.46
15.07
12.71
10.35
7.71
4.53
0.78
-3.25
-7.04
-10.15
-12.48
-14.46
-16.6
-19.24
-22.29
-25.45
-28.61
-31.93
-35.68
-39.65
-42.96
-44.15
-42.03
-36.3
-27.87
-18.43
-9.6
-2.21
3.85
9.19
14.35
19.32
23.74
27.2
29.57
31.06
31.94
32.43
32.51
32.07
30.88
28.75
25.58
21.39
16.42
11.18
6.27
2.16
-1.02
-3.6
-6.05
-8.84
-12.22
-16.25
-20.94
-26.28
-32.15
-38.1
-43.29
-46.57
-46.84
-43.52
-36.78
-27.62
-17.42
-7.48
1.5
9.45
16.66
23.35
29.39
34.34
37.64
39.02
38.53
36.54
33.5
29.83
26.0
22.47
19.7
17.91
16.93
16.17
14.96
12.86
9.87
6.4
2.87
-0.56
-4.23
-8.68
-14.45
-21.64
-29.85
-38.21
-45.51
-50.45
-52.0
-49.71
-43.86
-35.35
-25.45
-15.26
-5.53
3.45
11.67
19.15
25.75
31.19
35.12
37.33
37.85
36.92
35.02
32.68
30.4
28.37
26.37
23.86
20.26
15.33
9.35
3.06
-2.71
-7.4
-10.94
-13.7
-16.2
-18.92
-22.12
-25.99
-30.61
-35.87
-41.38
-46.19
-49.01
-48.65
-44.61
-37.31
-27.96
-17.91
-8.17
0.86
9.23
16.99
23.98
29.74
33.84
36.04
36.44
35.47
33.6
31.28
28.75
26.03
22.9
19.06
14.31
8.72
2.77
-2.84
-7.41
-10.66
-12.72
-14.05
-15.13
-16.27
-17.7
-19.79
-22.98
-27.53
-33.12
-38.61
-42.38
-42.97
-39.79
-33.46
-25.37
-17.02
-9.26
-2.2
4.51
11.11
17.34
22.48
25.75
26.8
25.88
23.79
21.35
19.1
17.05
14.94
12.49
9.63
6.53
3.34
0.1
-3.22
-6.55
-9.68
-12.3
-14.32
-16.08
-18.4
-22.25
-28.16
-35.89
-44.31
-51.85
-57.21
-59.75
-59.6
-57.25
-53.15
-47.42
-39.99
-30.93
-20.62
-9.76
0.94
11.06
20.59
29.66
38.26
46.01
52.22
56.35
58.28
58.55
58.0
57.34
56.66
55.52
53.16
49.02
43.07
35.85
28.35
21.51
15.87
11.45
7.85
4.51
0.9
-3.41
-8.76
-15.44
-23.44
-32.27
-40.79
-47.39
-50.45
-48.97
-43.01
-33.71
-22.72
-11.47
-0.6
10.08
20.95
31.99
42.45
51.09
56.78
59.07
58.31
55.4
51.27
46.54
41.63
36.94
32.97
30.12
28.37
27.14
25.44
22.45
17.93
12.39
6.66
1.35
-3.56
-8.72
-15.04
-23.14
-33.02
-43.9
-54.37
-62.7
-67.2
-66.66
-60.71
-50.0
-36.04
-20.74
-5.85
7.51
18.9
28.3
35.87
41.62
45.56
47.8
48.63
48.48
47.78
46.78
45.46
43.51
40.49
36.0
29.87
22.3
13.84
5.26
-2.7
-9.62
-15.53
-20.86
-26.13
-31.66
-37.55
-43.75
-50.32
-57.28
-64.38
-70.79
-75.16
-76.05
-72.45
-64.18
-51.95
-37.19
-21.66
-7.03
5.64
16.05
24.58
31.88
38.29
43.51
46.8
47.48
45.5
41.71
37.4
33.67
30.85
28.44
25.67
22.09
17.93
13.93
10.79
8.74
7.49
6.35
4.44
0.83
-5.25
-14.21
-25.69
-38.36
-50.08
-58.5
-61.94
-59.91
-53.07
-42.92
-30.95
-18.32
-5.7
6.49
17.86
27.9
36.09
42.26
46.56
49.41
51.27
52.37
52.69
52.02
50.15
46.95
42.51
36.99
30.67
23.82
16.64
9.29
1.91
-5.46
-12.96
-20.81
-29.26
-38.36
-47.89
-57.46
-66.55
-74.58
-80.87
-84.73
-85.47
-82.67
-76.31
-66.88
-55.31
-42.58
-29.36
-15.88
-2.07
12.02
25.94
38.81
49.68
57.9
63.39
66.46
67.59
67.17
65.32
62.0
57.11
50.79
43.44
35.69
28.1
20.98
14.41
8.23
2.19
-4.04
-10.8
-18.46
-27.31
-37.31
-47.95
-58.11
-66.28
-70.75
-70.12
-63.65
-51.41
-34.09
-12.57
12.28
39.64
68.36
96.8
122.85
144.43
160.21
170.29
176.19
180.2
184.43
189.84
195.84
200.55
201.54
196.84
185.68
168.72
147.59
124.14
99.61
74.5
48.77
22.46
-3.9
-29.49
-53.65
-76.37
-98.15
-119.44
-139.8
-157.53
-170.04
-175.07
-171.77
-161.19
-145.86
-128.7
-112.04
-96.93
-83.33
-70.59
-58.12
-45.86
-34.24
-23.97
-15.57
-9.21
-4.64
-1.42
0.84
2.32
2.98
2.62
1.07
-1.65
-5.21
-9.03
-12.51
-15.25
-17.31
-19.25
-21.88
-25.96
-31.87
-39.49
-48.16
-56.96
-64.8
-70.63
-73.54
-72.82
-68.04
-59.18
-46.8
-32.09
-16.54
-1.58
11.97
23.84
34.1
42.67
49.06
52.55
52.71
49.8
44.83
39.21
34.03
29.67
25.74
21.61
16.86
11.58
6.22
1.21
-3.3
-7.53
-11.93
-17.03
-23.35
-31.23
-40.7
-51.24
-61.74
-70.6
-76.06
-76.74
-71.98
-62.16
-48.56
-33.05
-17.43
-2.97
9.92
21.42
31.88
41.37
49.5
55.79
59.96
62.22
63.1
63.17
62.57
61.02
57.98
53.11
46.54
38.77
30.53
22.47
15.01
8.29
2.18
-3.72
-9.98
-17.08
-25.24
-34.26
-43.66
-52.81
-61.03
-67.6
-71.67
-72.38
-69.13
-61.87
-51.31
-38.59
-24.94
-11.16
2.43
15.74
28.5
40.09
49.59
56.24
59.68
60.14
58.33
55.04
51.02
46.72
42.35
37.84
32.96
27.49
21.38
14.87
8.34
2.06
-4.09
-10.63
-18.27
-27.56
-38.63
-51.03
-63.88
-76.0
-86.03
-92.6
-94.43
-90.66
-81.08
-66.39
-48.11
-28.18
-8.4
9.94
26.22
40.19
51.79
60.82
67.06
70.36
70.88
69.15
66.06
62.46
59.02
55.96
53.09
49.92
45.84
40.46
33.73
25.99
17.84
9.81
2.11
-5.45
-13.33
-21.99
-31.57
-41.83
-52.11
-61.48
-68.92
-73.46
-74.32
-70.98
-63.38
-52.04
-38.15
-23.23
-8.73
4.36
15.69
25.3
33.33
39.72
44.35
47.13
48.2
47.94
46.73
44.84
42.26
38.87
34.58
29.54
24.13
18.87
14.18
10.22
6.95
4.12
1.48
-1.19
-4.12
-7.54
-11.7
-16.76
-22.65
-28.87
-34.53
-38.43
-39.46
-36.9
-30.67
-21.38
-10.06
1.94
13.45
23.63
32.16
39.1
44.57
48.46
50.34
49.8
46.84
42.15
36.87
32.06
28.15
24.8
21.32
17.17
12.46
7.78
3.86
1.0
-1.09
-3.02
-5.51
-8.96
-13.69
-19.93
-27.97
-37.76
-48.63
-59.11
-67.24
-71.23
-70.03
-63.75
-53.51
-41.0
-27.9
-15.42
-4.26
5.36
13.38
19.75
24.48
27.71
29.77
31.1
32.01
32.6
32.82
32.52
31.6
29.95
27.49
24.17
20.07
15.37
10.35
5.34
0.48
-4.43
-9.78
-16.12
-23.85
-33.17
-43.84
-55.16
-65.8
-74.08
-78.36
-77.69
-72.19
-63.0
-51.81
-40.12
-28.79
-17.94
-7.32
3.3
13.85
23.96
33.19
41.15
47.59
52.35
55.38
56.75
56.7
55.55
53.53
50.71
47.0
42.36
36.89
30.99
25.14
19.8
15.05
10.53
5.67
-0.01
-6.72
-14.32
-22.49
-30.87
-39.01
-46.24
-51.57
-53.73
-51.72
-45.32
-35.41
-23.72
-12.01
-1.39
8.0
16.61
24.84
32.63
39.46
44.76
48.22
49.87
49.85
48.25
45.09
40.61
35.37
30.27
26.06
22.96
20.63
18.33
15.51
11.94
7.73
3.05
-2.0
-7.38
-12.98
-18.6
-24.05
-29.3
-34.54
-39.86
-45.01
-49.04
-50.6
-48.45
-42.08
-32.0
-19.56
-6.43
5.96
16.73
25.49
32.19
36.85
39.47
40.06
38.84
36.13
32.43
28.25
24.05
20.12
16.39
12.61
8.37
3.43
-2.18
-7.99
-13.37
-17.71
-20.77
-22.81
-24.5
-26.6
-29.57
-33.4
-37.7
-41.95
-45.85
-49.2
-51.8
-53.07
-52.19
-48.4
-41.48
-32.04
-21.37
-10.91
-1.55
6.51
13.62
20.09
25.87
30.48
33.37
34.34
33.66
31.93
29.74
27.53
25.39
23.15
20.5
17.1
12.82
7.88
2.86
-1.5
-4.63
-6.54
-7.77
-9.15
-11.37
-14.69
-19.03
-24.24
-30.3
-37.29
-45.01
-52.72
-58.97
-62.14
-60.94
-55.13
-45.62
-34.18
-22.7
-12.5
-4.08
2.77
8.51
13.49
17.74
21.07
23.27
24.28
24.31
23.65
22.63
21.48
20.32
19.2
18.12
17.02
15.77
14.22
12.24
9.82
6.94
3.58
-0.33
-4.86
-9.98
-15.55
-21.34
-27.24
-33.34
-39.91
-46.98
-53.92
-59.34
-61.5
-59.13
-52.06
-41.46
-29.26
-17.32
-6.73
2.37
10.35
17.52
23.75
28.68
32.0
33.79
34.5
34.67
34.62
34.39
33.86
32.87
31.27
28.91
25.65
21.43
16.43
11.13
6.14
1.99
-1.2
-3.72
-6.07
-8.74
-11.95
-15.66
-19.72
-24.05
-28.59
-33.14
-37.13
-39.54
-39.17
-35.11
-27.22
-16.24
-3.65
8.94
20.26
29.71
37.36
43.62
48.9
53.25
56.4
57.94
57.55
55.32
51.67
47.31
42.86
38.67
34.71
30.64
26.11
21.0
15.53
10.18
5.35
1.13
-2.86
-7.21
-12.42
-18.59
-25.38
-32.29
-39.03
-45.65
-52.42
-59.36
-65.87
-70.67
-72.14
-69.07
-61.19
-49.42
-35.55
-21.58
-9.06
1.35
9.76
16.65
22.35
26.88
30.04
31.84
32.61
32.92
33.19
33.42
33.15
31.8
28.99
24.78
19.57
13.85
8.01
2.3
-3.01
-7.61
-11.25
-13.87
-15.86
-17.9
-20.76
-24.9
-30.48
-37.29
-44.81
-52.27
-58.6
-62.63
-63.36
-60.35
-53.87
-44.79
-34.28
-23.53
-13.48
-4.66
2.89
9.53
15.75
21.78
27.29
31.36
33.0
31.66
27.76
22.55
17.58
13.9
11.67
10.33
9.17
7.91
6.71
5.9
5.44
4.79
3.21
0.27
-3.94
-8.92
-14.11
-19.44
-25.27
-32.13
-40.18
-48.88
-56.95
-62.78
-65.01
-62.92
-56.7
-47.23
-35.89
-24.2
-13.42
-4.31
3.1
9.28
14.95
20.6
26.26
31.46
35.59
38.2
39.23
38.94
37.65
35.66
33.16
30.42
27.78
25.51
23.58
21.67
19.35
16.4
12.97
9.45
6.22
3.33
0.49
-2.67
-6.48
-11.09
-16.53
-22.63
-28.98
-34.74
-38.76
-39.9
-37.47
-31.65
-23.28
-13.49
-3.12
7.48
18.24
28.99
39.15
47.88
54.43
58.44
60.1
59.88
58.21
55.34
51.47
46.93
42.27
38.0
34.39
31.27
28.12
24.41
19.89
14.65
8.99
3.28
-2.29
-7.59
-12.6
-17.26
-21.53
-25.45
-29.07
-32.39
-35.1
-36.64
-36.19
-33.08
-27.05
-18.49
-8.45
1.67
10.57
17.61
23.03
27.71
32.53
37.81
43.02
47.05
48.91
48.2
45.32
41.14
36.52
31.91
27.31
22.49
17.35
12.15
7.4
3.52
0.68
-1.28
-2.82
-4.59
-7.22
-11.07
-16.01
-21.66
-27.61
-33.79
-40.31
-47.23
-54.16
-60.18
-63.72
-63.13
-57.48
-47.33
-34.67
-22.24
-12.55
-6.88
-5.29
-6.2
-7.05
-5.82
-1.94
3.88
10.57
17.8
26.17
36.01
47.68
60.67
72.89
80.74
80.68
70.9
52.01
26.24
-5.19
-40.52
-76.76
-109.65
-134.04
-144.9
-139.38
-119.44
-92.68
-71.79
-66.65
-79.03
-102.3
-125.2
-137.33
-133.83
-117.16
-84.36
-43.15
-6.53
18.18
34.36
49.11
65.73
82.13
93.66
97.29
91.9
81.24
71.64
67.98
71.01
77.68
83.65
85.49
82.06
73.26
61.95
52.47
47.83
48.13
50.84
52.5
50.26
42.74
28.76
8.92
-14.66
-39.1
-60.85
-75.97
-80.73
-73.25
-53.43
-28.21
-5.16
10.25
16.33
15.17
10.86
7.12
5.54
5.37
4.48
1.85
-1.94
-5.31
-6.73
-5.8
-3.24
-0.37
1.65
2.46
2.74
3.22
3.73
3.12
-0.2
-7.11
-16.97
-27.71
-36.63
-41.39
-41.3
-37.39
-31.44
-24.93
-18.23
-10.86
-2.1
7.95
18.14
26.46
31.16
31.67
28.99
25.1
21.88
20.14
19.33
18.16
15.45
10.91
5.3
-0.14
-4.46
-7.36
-9.11
-9.95
-9.85
-8.67
-6.53
-4.11
-2.46
-2.43
-4.19
-7.28
-10.97
-14.67
-18.32
-22.15
-26.29
-30.64
-34.92
-38.92
-42.41
-44.98
-45.48
-42.57
-35.23
-23.64
-9.44
4.81
16.76
25.28
30.72
34.31
37.19
39.66
41.24
41.29
39.67
36.97
34.12
31.65
29.38
26.54
22.34
16.47
9.18
1.2
-6.68
-13.81
-19.73
-24.22
-27.25
-29.07
-30.2
-31.53
-33.96
-38.14
-44.12
-51.22
-58.26
-63.91
-66.97
-66.55
-62.03
-53.13
-39.97
-23.28
-4.33
15.34
34.21
51.01
64.7
74.34
79.2
79.04
74.58
67.56
60.05
53.48
47.9
42.32
35.79
28.44
21.6
16.83
14.72
14.14
12.87
8.93
1.77
-7.58
-17.38
-26.42
-34.7
-43.13
-52.52
-62.72
-72.37
-79.52
-82.47
-80.37
-73.39
-62.54
-49.42
-35.9
-23.45
-12.72
-3.35
5.6
14.79
24.03
32.25
38.18
41.15
41.51
40.48
39.38
39.02
39.32
39.54
38.8
36.66
33.2
29.0
24.69
20.77
17.5
14.89
12.62
9.96
6.0
0.03
-8.2
-18.46
-30.22
-42.66
-54.63
-64.45
-69.99
-69.37
-61.78
-48.1
-30.75
-12.78
3.37
16.63
27.32
36.38
44.55
51.86
57.76
61.71
63.53
63.59
62.43
60.49
57.95
54.73
50.65
45.52
39.42
32.61
25.54
18.66
12.24
6.36
0.89
-4.47
-9.97
-15.78
-22.01
-28.76
-36.14
-44.09
-52.2
-59.55
-64.79
-66.45
-63.35
-55.03
-41.94
-25.31
-6.96
11.32
28.04
42.51
54.6
64.46
72.05
77.02
79.03
78.25
75.66
72.67
70.29
68.36
65.79
61.38
54.88
47.26
40.13
34.52
30.13
25.47
18.92
9.88
-0.76
-11.3
-20.31
-27.57
-33.99
-40.87
-48.79
-57.13
-64.31
-68.46
-68.2
-63.2
-54.24
-42.88
-30.78
-19.2
-8.65
0.97
9.96
18.37
25.83
31.58
34.94
35.59
33.82
30.44
26.52
23.07
20.67
19.32
18.51
17.48
15.66
12.92
9.54
6.01
2.71
-0.27
-3.04
-5.82
-8.95
-12.89
-18.16
-25.08
-33.48
-42.42
-50.3
-55.26
-55.99
-52.14
-44.29
-33.55
-20.95
-7.28
6.89
20.77
33.34
43.31
49.6
51.8
50.27
46.12
40.75
35.5
31.2
28.06
25.77
23.68
21.16
17.7
13.17
7.7
1.55
-5.05
-11.9
-18.85
-25.75
-32.35
-38.49
-44.14
-49.63
-55.45
-62.01
-69.18
-75.99
-80.9
-82.17
-78.67
-70.36
-58.24
-43.97
-29.15
-14.89
-1.63
10.52
21.47
30.99
38.73
44.43
48.03
49.69
49.63
48.16
45.68
42.68
39.41
35.75
31.15
25.11
17.65
9.69
2.79
-1.61
-3.03
-2.34
-1.48
-2.57
-7.07
-15.31
-26.69
-40.0
-53.74
-66.06
-74.82
-77.79
-73.5
-61.93
-44.83
-25.29
-6.58
8.8
19.89
27.16
31.9
35.37
38.29
40.75
42.54
43.44
43.4
42.53
40.89
38.42
34.93
30.19
24.24
17.39
10.34
3.86
-1.41
-5.2
-7.55
-8.72
-9.14
-9.33
-10.02
-11.94
-15.59
-20.86
-26.79
-31.94
-34.77
-34.45
-30.94
-24.82
-16.65
-6.72
4.69
16.98
29.07
39.83
48.53
55.11
59.85
62.83
63.68
61.78
56.92
49.82
41.96
34.83
29.21
24.91
21.17
17.39
13.56
10.06
7.07
4.27
0.87
-3.79
-9.87
-17.09
-25.02
-33.47
-42.29
-51.14
-59.07
-64.75
-66.94
-65.02
-59.33
-50.89
-41.02
-30.84
-20.91
-11.37
-2.05
7.04
15.59
23.02
28.67
32.09
33.3
32.84
31.55
30.37
29.68
29.03
27.23
23.18
16.73
8.94
1.57
-3.99
-7.32
-9.02
-9.92
-10.54
-10.95
-11.37
-12.56
-15.78
-22.06
-31.17
-41.27
-49.46
-53.07
-50.88
-43.53
-32.87
-20.91
-8.92
2.62
13.41
22.98
30.51
35.3
37.13
36.32
33.6
29.69
25.29
20.9
16.92
13.54
10.66
7.9
4.73
0.65
-4.57
-10.78
-17.37
-23.54
-28.59
-32.19
-34.49
-36.12
-37.91
-40.57
-44.26
-48.29
-51.28
-51.69
-48.63
-42.38
-34.28
-25.93
-18.27
-11.22
-4.01
4.1
13.36
23.48
34.02
44.58
54.67
63.34
69.12
70.36
66.15
57.04
45.14
33.27
23.74
17.47
13.93
11.94
10.47
9.1
7.82
6.5
4.76
2.05
-1.95
-7.47
-14.72
-23.8
-34.3
-44.83
-53.18
-57.17
-55.76
-49.63
-40.98
-32.25
-24.85
-18.64
-12.4
-5.03
3.6
12.47
20.13
25.65
29.08
31.21
32.9
34.52
35.75
35.96
34.41
30.74
25.27
18.95
13.12
8.85
6.5
5.5
4.8
3.37
0.68
-3.28
-8.42
-14.78
-22.67
-32.12
-42.46
-52.05
-58.64
-60.28
-56.14
-46.97
-34.71
-21.82
-10.18
-0.67
6.96
13.58
19.85
25.67
30.18
32.59
32.82
31.97
31.68
33.16
36.41
40.09
42.26
41.33
36.92
30.0
22.57
16.79
14.29
15.63
20.19
26.51
32.96
38.31
42.0
44.04
44.46
43.16
40.07
35.83
32.43
32.8
39.6
53.58
72.79
93.27
110.99
123.9
132.65
139.82
147.83
157.14
165.75
170.05
166.68
153.87
131.97
102.66
68.06
29.92
-10.12
-49.92
-86.31
-115.49
-134.12
-140.78
-136.69
-125.12
-109.86
-93.56
-77.03
-60.09
-42.51
-25.01
-9.11
3.82
13.78
22.44
32.24
44.83
59.62
74.12
85.28
91.02
91.16
87.14
81.11
74.91
69.51
64.45
58.57
50.25
37.64
19.1
-5.83
-35.67
-67.03
-95.82
-120.23
-140.12
-156.51
-170.79
-184.25
-197.51
-210.44
-222.52
-233.29
-245.15
-259.45
-275.42
-290.96
-304.35
-314.61
-320.59
-320.23
-311.08
-295.76
-277.07
-256.71
-235.28
-213.78
-193.65
-176.13
-162.12
-152.55
-153.59
-168.09
-192.91
-220.36
-243.38
-258.6
-266.42
-269.62
-237.85
-161.59
-56.77
47.31
130.86
189.36
226.85
249.82
264.15
273.66
274.12
262.83
240.49
211.83
182.51
157.16
138.93
129.27
128.07
130.21
132.81
136.28
143.36
155.35
170.27
183.87
191.94
192.41
183.53
166.93
146.69
127.21
110.66
96.82
84.76
74.23
65.99
59.67
54.63
50.16
45.65
40.73
35.25
29.54
24.0
18.65
12.65
5.01
-4.54
-15.51
-26.91
-37.95
-48.21
-57.44
-65.25
-70.78
-72.79
-70.22
-62.76
-51.29
-37.74
-24.36
-12.86
-4.07
2.11
6.21
8.68
9.61
8.98
7.05
4.57
2.69
2.36
3.8
6.08
7.47
6.19
1.25
-7.02
-17.22
-27.45
-36.27
-43.15
-48.49
-53.04
-57.23
-60.77
-62.73
-62.09
-58.29
-51.47
-42.21
-31.19
-18.77
-4.9
10.55
27.44
45.08
62.36
77.99
90.96
100.71
107.16
110.55
111.33
110.02
107.17
103.37
99.13
94.77
90.37
85.67
80.18
73.36
64.92
54.88
43.71
32.07
20.51
9.38
-1.31
-11.64
-21.69
-31.38
-40.49
-48.58
-55.13
-59.51
-61.11
-59.54
-54.89
-47.89
-39.67
-31.45
-24.13
-18.05
-13.11
-8.98
-5.42
-2.28
0.36
2.48
4.03
5.06
5.67
5.96
6.15
6.42
6.93
7.69
8.48
8.99
8.87
7.85
5.78
2.69
-1.32
-5.97
-10.98
-16.1
-21.23
-26.45
-31.85
-37.34
-42.42
-46.34
-48.28
-47.77
-44.82
-39.91
-33.63
-26.48
-18.68
-10.32
-1.65
6.8
14.27
19.98
23.52
25.0
25.04
24.54
24.37
25.01
26.42
28.11
29.41
29.79
29.09
27.46
25.2
22.46
19.23
15.46
11.16
6.48
1.54
-3.66
-9.26
-15.35
-21.7
-27.67
-32.34
-35.0
-35.42
-33.89
-30.97
-27.11
-22.45
-16.9
-10.36
-2.92
5.11
13.25
20.92
27.52
32.52
35.64
37.04
37.33
37.33
37.71
38.72
40.06
41.22
41.83
41.91
41.8
41.85
42.07
42.01
40.9
37.92
32.51
24.71
15.29
5.66
-2.45
-7.6
-9.12
-7.39
-3.54
1.18
5.9
10.44
15.0
19.67
24.2
28.03
30.65
31.96
32.33
32.35
32.39
32.47
32.18
30.99
28.5
24.53
19.24
13.02
6.41
-0.05
-5.81
-10.55
-14.09
-16.47
-17.97
-19.06
-20.53
-23.24
-27.87
-34.45
-42.09
-49.13
-53.63
-54.2
-50.46
-43.23
-33.96
-24.16
-14.87
-6.49
0.9
7.3
12.47
16.12
17.96
18.01
16.66
14.55
12.47
11.05
10.56
10.78
11.07
10.66
9.0
6.07
2.34
-1.47
-4.82
-7.6
-10.14
-12.94
-16.44
-20.74
-25.56
-30.36
-34.42
-37.1
-37.88
-36.53
-33.24
-28.48
-22.96
-17.26
-11.7
-6.25
-0.76
4.88
10.47
15.52
19.43
21.66
22.01
20.66
18.15
15.17
12.35
10.07
8.36
7.08
5.98
4.86
3.65
2.4
1.17
-0.13
-1.78
-4.24
-7.95
-13.11
-19.35
-25.77
-31.0
-33.65
-32.84
-28.48
-21.38
-12.89
-4.45
2.88
8.62
12.66
15.15
16.25
16.18
15.22
13.83
12.5
11.62
11.32
11.34
11.29
10.71
9.39
7.33
4.7
1.81
-1.07
-3.69
-5.93
-7.85
-9.71
-11.95
-14.95
-18.77
-23.01
-26.85
-29.33
-29.77
-27.98
-24.41
-19.82
-14.9
-9.99
-5.07
0.02
5.23
10.17
14.21
16.84
17.9
17.68
16.72
15.53
14.31
12.92
11.07
8.5
5.25
1.65
-1.75
-4.43
-6.07
-6.69
-6.63
-6.5
-6.99
-8.63
-11.69
-15.99
-20.96
-25.69
-29.18
-30.56
-29.36
-25.69
-20.13
-13.55
-6.83
-0.66
4.58
8.68
11.55
13.12
13.53
13.14
12.54
12.38
13.07
14.63
16.71
18.71
20.01
20.17
18.97
16.5
13.17
9.61
6.57
4.59
3.9
4.18
4.73
4.67
3.44
0.99
-2.03
-4.61
-5.77
-4.88
-1.99
2.32
7.31
12.36
17.35
22.54
28.28
34.52
40.69
45.77
48.78
49.27
47.52
44.28
40.41
36.42
32.42
28.29
23.96
19.65
15.76
12.59
10.11
7.9
5.33
1.86
-2.74
-8.51
-15.28
-22.88
-31.14
-39.68
-47.86
-54.68
-59.08
-60.25
-57.87
-52.28
-44.3
-35.0
-25.35
-16.18
-8.15
-1.84
2.27
3.94
3.27
0.82
-2.55
-5.9
-8.59
-10.37
-11.47
-12.36
-13.55
-15.32
-17.61
-20.2
-22.66
-24.59
-25.64
-25.67
-24.86
-23.76
-23.32
-24.45
-27.62
-32.42
-37.56
-41.31
-42.22
-39.75
-34.43
-27.47
-20.09
-12.88
-5.81
1.55
9.38
17.41
24.87
30.94
35.07
37.28
37.93
37.58
36.62
35.18
33.25
30.65
27.28
23.14
18.41
13.47
8.82
4.96
2.14
0.3
-1.09
-2.75
-5.53
-10.02
-16.38
-24.22
-32.6
-40.2
-45.58
-47.56
-45.52
-39.62
-30.66
-19.89
-8.57
2.21
11.71
19.52
25.44
29.51
31.96
33.14
33.44
33.15
32.45
31.28
29.49
26.93
23.59
19.65
15.46
11.49
8.17
5.81
4.53
4.26
4.74
5.61
6.48
6.9
6.42
4.69
1.61
-2.52
-6.98
-10.74
-12.84
-12.66
-10.12
-5.66
0.03
6.18
12.21
17.75
22.58
26.56
29.47
31.08
31.13
29.52
26.52
22.68
18.82
15.69
13.65
12.5
11.58
10.14
7.82
4.73
1.4
-1.55
-3.77
-5.25
-6.14
-6.67
-7.04
-7.51
-8.44
-10.25
-13.07
-16.57
-19.84
-21.68
-21.11
-17.67
-11.61
-3.65
5.32
14.51
23.28
31.08
37.37
41.6
43.39
42.67
39.76
35.3
30.03
24.6
19.42
14.74
10.62
7.04
3.87
0.84
-2.35
-6.04
-10.4
-15.42
-20.89
-26.59
-32.31
-37.9
-43.22
-47.97
-51.64
-53.61
-53.29
-50.44
-45.28
-38.44
-30.72
-22.84
-15.21
-7.83
-0.58
6.55
13.23
18.81
22.58
24.12
23.6
21.69
19.27
17.1
15.46
14.26
13.22
12.11
10.9
9.7
8.64
7.71
6.75
5.54
3.9
1.71
-1.04
-4.33
-8.07
-12.06
-15.99
-19.41
-21.88
-23.03
-22.68
-20.88
-17.88
-14.07
-9.86
-5.74
-2.14
0.52
1.94
2.11
1.28
-0.0
-1.2
-1.94
-2.17
-2.18
-2.43
-3.34
-5.1
-7.65
-10.69
-13.79
-16.45
-18.27
-18.94
-18.44
-17.07
-15.49
-14.49
-14.65
-16.1
-18.35
-20.41
-21.18
-19.69
-15.52
-8.85
-0.42
8.67
17.28
24.53
30.09
34.12
37.15
39.73
42.18
44.49
46.47
47.94
48.86
49.24
48.94
47.57
44.59
39.61
32.73
24.63
16.31
8.7
2.32
-2.86
-7.19
-11.18
-15.17
-19.31
-23.67
-28.22
-32.8
-37.06
-40.4
-42.19
-42.02
-39.96
-36.56
-32.57
-28.53
-24.42
-19.74
-13.85
-6.5
1.89
10.37
17.88
23.77
28.02
31.02
33.2
34.77
35.64
35.58
34.54
32.66
30.27
27.62
24.78
21.56
17.78
13.37
8.37
2.98
-2.68
-8.48
-14.29
-19.84
-24.61
-27.92
-29.09
-27.84
-24.43
-19.74
-14.99
-11.28
-9.16
-8.45
-8.4
-8.14
-7.1
-5.21
-2.83
-0.49
1.44
2.81
3.67
4.09
4.03
3.38
2.01
-0.08
-2.72
-5.5
-7.98
-9.71
-10.45
-10.19
-9.24
-8.11
-7.41
-7.7
-9.32
-12.27
-16.05
-19.78
-22.33
-22.68
-20.26
-15.16
-8.15
-0.33
7.17
13.62
18.74
22.59
25.33
26.97
27.44
26.6
24.53
21.57
18.25
15.17
12.79
11.33
10.76
10.81
10.98
10.63
9.07
5.86
0.97
-5.13
-11.59
-17.57
-22.58
-26.64
-30.2
-33.84
-37.86
-42.07
-45.88
-48.46
-49.13
-47.59
-43.98
-38.78
-32.64
-26.18
-19.89
-14.13
-9.1
-5.01
-1.99
-0.07
0.91
1.28
1.42
1.63
2.03
2.55
3.01
3.32
3.45
3.47
3.45
3.39
3.27
3.08
2.95
3.05
3.59
4.58
5.72
6.43
5.97
3.81
-0.1
-5.13
-10.15
-13.83
-15.26
-14.24
-11.35
-7.66
-4.17
-1.41
0.8
3.06
6.06
10.16
15.19
20.61
25.77
30.17
33.64
36.2
38.03
39.3
40.01
40.08
39.3
37.51
34.65
30.84
26.44
21.86
17.39
13.11
8.77
4.03
-1.35
-7.28
-13.43
-19.36
-24.64
-28.97
-32.06
-33.63
-33.35
-31.04
-26.91
-21.51
-15.69
-10.24
-5.67
-2.11
0.54
2.34
3.19
2.92
1.46
-1.0
-4.05
-7.15
-9.88
-12.08
-13.77
-15.16
-16.45
-17.79
-19.15
-20.39
-21.41
-22.07
-22.47
-22.86
-23.61
-25.07
-27.43
-30.71
-34.6
-38.64
-42.26
-44.78
-45.49
-43.82
-39.43
-32.52
-23.84
-14.61
-6.18
0.44
4.81
7.14
8.07
8.29
8.29
8.25
8.22
8.23
8.49
9.32
10.92
13.3
16.1
18.8
20.81
21.76
21.54
20.32
18.41
15.99
13.09
9.59
5.33
0.31
-5.36
-11.49
-17.87
-24.3
-30.45
-35.76
-39.51
-41.04
-40.12
-37.09
-32.75
-27.9
-23.0
-17.97
-12.38
-5.98
1.01
7.83
13.45
17.06
18.37
17.64
15.57
12.94
10.38
8.29
6.78
5.76
4.96
4.08
2.82
0.95
-1.6
-4.84
-8.68
-12.99
-17.65
-22.55
-27.64
-32.86
-38.13
-43.09
-47.13
-49.37
-49.01
-45.58
-39.21
-30.63
-20.9
-11.07
-1.8
6.61
14.26
21.29
