timestamp,EDA,TEMP,HR,BVP,ACC_mag
1371050785.0,1.5542869166666666,32.41,,11.168333333333335,66.61553630319297
1371050785.25,1.5607827857142857,32.41,,10.560714285714285,66.19911526842513
1371050785.5,1.5656546875,32.41,,10.1210546875,65.94398192119316
1371050785.75,1.5701552777777779,32.407777777777774,,10.005833333333333,65.70577270615594
1371050786.0,1.5738838000000002,32.403999999999996,,9.64825,65.50884070990742
1371050786.25,1.5769344090909092,32.40090909090909,,9.039176136363636,65.36571832002157
1371050786.5,1.5794765833333333,32.39833333333333,,8.582656250000001,65.35026154817312
1371050786.75,1.5985840833333331,32.395,,8.459114583333333,65.3797034810534
1371050787.0,1.6018919583333335,32.391666666666666,,8.180338541666666,65.23881504507806
1371050787.25,1.6040260416666667,32.38833333333333,,7.349348958333334,65.07423027930678
1371050787.5,1.6037592083333336,32.385,,5.933359375000001,64.89924379347926
1371050787.75,1.601785125,32.38166666666666,,4.916979166666667,64.84220086433736
1371050788.0,1.5992242083333332,32.37833333333333,,4.340755208333333,65.0332934067537
1371050788.25,1.5970367083333332,32.375,,3.9674218750000008,65.34495456601651
1371050788.5,1.5948492083333334,32.37166666666666,,3.404010416666667,65.55427964195141
1371050788.75,1.5919147916666665,32.37,,2.6415885416666667,65.80815156263093
1371050789.0,1.5878066249999998,32.37,,2.492890625,66.13107925301264
1371050789.25,1.5828447916666668,32.37,,2.4615885416666665,66.40711521985763
1371050789.5,1.577136,32.37,,1.4902864583333333,66.436455320939
1371050789.75,1.5714272083333334,32.37,,0.2754166666666666,66.2702196674294
1371050790.0,1.5656117083333332,32.37,,-0.30466145833333336,66.2350715220298
1371050790.25,1.5599029166666665,32.37,,-0.7192447916666667,66.16316774660426
1371050790.5,1.5555279583333335,32.37,,-0.6192708333333333,66.13815862362459
1371050790.75,1.55232675,32.37,,0.24596354166666665,66.03168629771189
1371050791.0,1.549178875,32.37,,0.83109375,65.80663194609257
1371050791.25,1.5469380416666667,32.37,,1.5073437499999998,65.5461325470841
1371050791.5,1.5454975,32.37,,2.0162239583333332,65.37477189716579
1371050791.75,1.5482185416666667,32.37,,1.7719791666666669,65.20318894912086
1371050792.0,1.5552078333333335,32.37,,1.1825520833333336,64.94291796570356
1371050792.25,1.5630507916666667,32.37,,1.43484375,64.70645190420714
1371050792.5,1.5716407083333335,32.37,,3.0627083333333336,64.61832548824405
1371050792.75,1.5802306250000002,32.37083333333333,,4.457942708333333,64.6205379483323
1371050793.0,1.58892725,32.372499999999995,,5.205260416666667,64.5875971745954
1371050793.25,1.597623875,32.37416666666666,,5.4695833333333335,64.60122379866624
1371050793.5,1.60605375,32.37583333333333,,4.9526562499999995,64.62564107554061
1371050793.75,1.61389675,32.3775,,3.787994791666667,64.6623239131722
1371050794.0,1.6206726666666669,32.37916666666666,,2.9063020833333333,64.72018374684886
1371050794.25,1.62574125,32.38083333333333,,1.7754427083333335,64.77730623160967
1371050794.5,1.6289958333333334,32.3825,,1.3368750000000003,64.80950443137897
1371050794.75,1.6272885416666665,32.385,,1.9783593750000001,64.82720720992286
1371050795.0,1.6213129583333332,32.38833333333333,54.0,2.5240625,64.86984610765256
1371050795.25,1.614377,32.391666666666666,53.972500014080005,2.3818489583333338,64.91906833387374
1371050795.5,1.6066407500000002,32.395,53.94500000000001,1.5751562500000003,64.95368646786939
1371050795.75,1.59826425,32.39833333333333,53.91749998592,0.9884114583333333,64.95156952948882
1371050796.0,1.5889807500000002,32.401666666666664,53.89000000000001,0.5744010416666667,64.93043655664381
1371050796.25,1.578043291666667,32.405,53.862500014080005,0.741328125,64.89344788712064
1371050796.5,1.5664122083333332,32.40833333333333,53.83500000000001,1.1822916666666667,64.8483886769484
1371050796.75,1.5548878333333331,32.41166666666667,53.80749998592,1.5262760416666667,64.80328906416865
1371050797.0,1.5437369583333334,32.415,53.78,1.9174479166666665,64.75778542531363
1371050797.25,1.533173,32.41833333333333,54.313333060266665,2.4218229166666663,64.71232218906614
1371050797.5,1.5233026250000001,32.42166666666666,54.846666666666664,2.5846354166666665,64.66665693978099
1371050797.75,1.514019125,32.42333333333333,55.38000027306667,2.350546875,64.62042599076642
1371050798.0,1.5054825833333334,32.42333333333333,55.913333333333334,1.8532552083333333,64.57407381933909
1371050798.25,1.497693,32.42333333333333,56.94083280725334,1.3542708333333335,64.52772164791178
1371050798.5,1.4902235,32.42333333333333,57.968333333333334,1.0351562499999998,64.49051790255051
1371050798.75,1.4830207499999999,32.4225,58.99583385941333,0.9577343749999999,64.46439588342817
1371050799.0,1.4764049166666666,32.420833333333334,60.02333333333333,1.026796875,64.45136989581555
1371050799.25,1.470962875,32.41916666666666,61.253332703573335,0.7732291666666667,64.44886507508183
1371050799.5,1.4661077083333334,32.4175,62.483333333333334,0.7469791666666666,64.44757211382674
1371050799.75,1.461305875,32.41583333333333,63.71333396309334,0.9128906250000001,64.44631955517916
1371050800.0,1.4569842083333333,32.41416666666667,64.94333333333334,0.6806770833333333,64.44547102260687
1371050800.25,1.4526625416666665,32.412499999999994,65.77499957418667,0.637109375,64.44458208742704
1371050800.5,1.448180833333333,32.410833333333336,66.60666666666667,0.616875,64.44389516528484
1371050800.75,1.4439125416666665,32.41,67.43833375914667,0.5105729166666667,64.4437739428721
1371050801.0,1.4398042916666667,32.41,68.27,0.8834114583333332,64.4437739428721
1371050801.25,1.4356960416666666,32.41,68.76083308202666,1.3659114583333334,64.4437739428721
1371050801.5,1.4316945416666667,32.41,69.25166666666667,1.9042447916666667,64.4437739428721
1371050801.75,1.4277997916666667,32.41,69.74250025130667,2.396354166666667,64.4437739428721
1371050802.0,1.4241184166666665,32.41,70.23333333333333,2.7309635416666667,64.4437739428721
1371050802.25,1.4205437083333334,32.41,70.62249980074667,3.1907812500000006,64.4437739428721
1371050802.5,1.4167556250000002,32.41,71.01166666666667,3.471588541666667,64.4437739428721
1371050802.75,1.4130209166666665,32.41,71.40083353258667,3.6516145833333336,64.4437739428721
1371050803.0,1.4089660833333333,32.41,71.79,4.133958333333333,64.4437739428721
1371050803.25,1.4045910833333333,32.41,72.07666651989334,4.449010416666666,64.4437739428721
1371050803.5,1.4002694166666665,32.41,72.36333333333334,4.659739583333333,64.4437739428721
1371050803.75,1.3957877083333334,32.41083333333333,72.65000014677334,5.027578125,64.4437739428721
1371050804.0,1.3911459583333334,32.412499999999994,72.93666666666667,5.330703125,64.4437739428721
1371050804.25,1.3865042083333332,32.41416666666667,73.13999989589334,5.374270833333333,64.4437739428721
1371050804.5,1.3816490416666667,32.41583333333333,73.34333333333333,5.37546875,64.4437739428721
1371050804.75,1.3764203750000001,32.4175,73.54666677077333,5.57375,64.4437739428721
1371050805.0,1.3709782916666668,32.41916666666666,73.75,5.390546875000001,64.4437739428721
1371050805.25,1.365589625,32.420833333333334,73.89583325866667,5.386796874999999,64.4437739428721
1371050805.5,1.3606811250000002,32.42249999999999,74.04166666666666,5.6183854166666665,64.4437739428721
1371050805.75,1.3561460833333332,32.424166666666665,74.18750007466666,5.3801041666666665,64.4437739428721
1371050806.0,1.3519845416666667,32.42583333333333,74.33333333333333,4.953020833333333,64.4437739428721
1371050806.25,1.348143125,32.4275,74.46166660096,4.0788802083333335,64.4437739428721
1371050806.5,1.3444084166666668,32.42916666666667,74.59,3.0270833333333336,64.44676287102996
1371050806.75,1.3409404583333335,32.43,74.71833339904,2.4212239583333335,64.4577817475413
1371050807.0,1.33773925,32.43,74.84666666666668,1.7063541666666666,64.48639348250562
1371050807.25,1.33464475,32.43,74.97499993429334,1.11859375,64.51842303255611
1371050807.5,1.332137125,32.43,75.10333333333334,0.7857812500000002,64.55129689646589
1371050807.75,1.3295761666666668,32.43,75.23166673237334,-0.42976562499999993,64.58328628008479
1371050808.0,1.3264816666666668,32.43,75.36,-1.3005208333333333,64.61607885859648
1371050808.25,1.3234404583333335,32.43,75.49249993216,-2.2251041666666667,64.65023781905413
1371050808.5,1.3202392083333334,32.43,75.625,-3.585546875,64.67937205830611
1371050808.75,1.3164510833333334,32.43,75.75750006784,-4.365520833333333,64.70069594575823
1371050809.0,1.312236125,32.43,75.89,-4.410208333333333,64.70586592480893
1371050809.25,1.3080745416666666,32.43,76.02166659925334,-3.8098177083333336,64.71103590385964
1371050809.5,1.3035928333333333,32.43,76.15333333333334,-3.0374218749999997,64.71321695475248
1371050809.75,1.2985775833333333,32.43,76.28500006741334,-2.7329166666666667,64.7033279968113
1371050810.0,1.2934556666666666,32.43,76.41666666666667,-2.438828125,64.65690622515798
1371050810.25,1.2880136666666666,32.43,76.54749993301334,-2.367526041666667,64.60674242097862
1371050810.5,1.28198475,32.43,76.67833333333334,-2.461640625,64.55573430293997
1371050810.75,1.2760624999999999,32.43,76.80916673365333,-1.7010156250000001,64.5056106651922
1371050811.0,1.2705137499999999,32.43,76.94,-1.085703125,64.45468383255162
1371050811.25,1.265018375,32.43,77.05666660693333,-1.0624739583333331,64.40239061796511
1371050811.5,1.2595229583333332,32.43,77.17333333333332,-0.7711979166666666,64.35512212458426
1371050811.75,1.25413425,32.43,77.29000005973332,-0.31882812499999996,64.31566398300328
1371050812.0,1.2488522499999999,32.43,77.40666666666665,-0.4370572916666666,64.29235974982369
1371050812.25,1.24357025,32.43,77.52833327103998,-0.48041666666666666,64.26905551664413
1371050812.5,1.2382882499999999,32.43,77.64999999999999,-0.4721614583333333,64.24575128346454
1371050812.75,1.2330596249999999,32.43,77.77166672896,-0.9872135416666666,64.22648711076552
1371050813.0,1.2278843333333334,32.43,77.89333333333333,-1.3965625,64.22616289332565
1371050813.25,1.22297575,32.43,78.01916660223999,-1.2859895833333332,64.24415244630303
1371050813.5,1.218547375,32.43,78.145,-1.859140625,64.29049225690098
1371050813.75,1.2145992083333332,32.43,78.27083339776,-2.4634895833333332,64.34278547148749
1371050814.0,1.2110245,32.43,78.39666666666666,-2.5710937499999997,64.395078686074
1371050814.25,1.2075565,32.43,78.52749993301333,-2.2122395833333335,64.44737190066051
1371050814.5,1.2040885416666667,32.43,78.65833333333333,-2.06796875,64.49966511524704
1371050814.75,1.2008873333333334,32.43,78.78916673365333,-2.3213020833333333,64.55195832983355
1371050815.0,1.1981129166666669,32.43,78.92,-2.58015625,64.60425154442008
1371050815.25,1.1956052916666666,32.43,79.03166660949334,-3.3383333333333334,64.65742777152963
1371050815.5,1.1936312083333334,32.43,79.14333333333335,-3.5833333333333335,64.73611250049133
1371050815.75,1.192190625,32.43083333333333,79.25500005717333,-2.6016927083333337,64.8203138525421
1371050816.0,1.19085675,32.4325,79.36666666666667,-1.8223697916666668,64.90623061964844
1371050816.25,1.1896829583333335,32.43416666666666,79.46416661674667,-0.8542968749999998,64.98715229604834
1371050816.5,1.18866925,32.43583333333333,79.56166666666667,1.9810677083333335,65.03590067481021
1371050816.75,1.1877622500000002,32.4375,79.65916671658667,5.404166666666668,65.0788556192454
1371050817.0,1.1869619583333335,32.43916666666667,79.75666666666666,8.494583333333333,65.11539290337353
1371050817.25,1.1864817916666668,32.44083333333334,79.84583328768,11.711067708333333,65.14749846817641
1371050817.5,1.1870153333333335,32.4425,79.935,15.318125,65.16745852835727
1371050817.75,1.1892561666666668,32.4425,80.02416671232,18.766458333333336,65.19025739959976
1371050818.0,1.1927775,32.44083333333334,80.11333333333333,22.14830729166667,65.21073694909963
1371050818.25,1.1985396666666668,32.439166666666665,80.17499996842666,25.501458333333336,65.2225659448195
1371050818.5,1.206382625,32.43750000000001,80.23666666666668,27.530937500000004,65.20323700643206
1371050818.75,1.2142789583333333,32.435,80.29833336490668,28.855416666666667,65.17839144495555
1371050819.0,1.2221752916666666,32.431666666666665,80.36000000000001,31.000338541666668,65.15183046842348
1371050819.25,1.2300716250000001,32.428333333333335,80.39166665045335,32.11559895833333,65.11227502962048
1371050819.5,1.2379145833333334,32.425000000000004,80.42333333333335,30.568750000000005,65.07654263083494
1371050819.75,1.2457575416666666,32.419999999999995,80.45500001621335,27.397447916666668,65.0406502623875
1371050820.0,1.2535471666666667,32.413333333333334,80.48666666666668,23.875520833333336,65.01117555424712
1371050820.25,1.26080325,32.406666666666666,80.48666666666668,20.056953125,64.98613256543199
1371050820.5,1.266672125,32.4,80.48666666666668,16.028802083333332,64.97323508123888
1371050820.75,1.27046025,32.394999999999996,80.48666666666666,12.185156249999999,64.95749878598414
1371050821.0,1.2725944166666665,32.39166666666666,80.48666666666666,8.368802083333334,64.94408181247204
1371050821.25,1.2719008333333333,32.38833333333333,80.48666666666666,4.917317708333333,64.93843238021688
1371050821.5,1.268753,32.385,80.48666666666668,2.2340104166666666,64.93658516203513
1371050821.75,1.265445125,32.38166666666667,80.48666666666668,-0.45789062499999983,64.93658516203513
1371050822.0,1.2617104166666666,32.37833333333333,80.48666666666668,-3.8570052083333337,64.93566155294425
1371050822.25,1.257548875,32.375,80.46750000981335,-6.682708333333334,64.92365463476287
1371050822.5,1.25322725,32.37166666666666,80.44833333333335,-8.0509375,64.90887688930884
1371050822.75,1.248638875,32.36875,80.42916665685334,-8.142265624999999,64.89409914385485
1371050823.0,1.2436770416666667,32.36625,80.41000000000001,-7.633489583333333,64.8802450074917
1371050823.25,1.2387152083333333,32.363749999999996,80.37833334954668,-7.131848958333332,64.8802450074917
1371050823.5,1.2342335416666665,32.361250000000005,80.34666666666666,-6.469583333333333,64.8802450074917
1371050823.75,1.2301786666666665,32.35875,80.31499998378666,-5.4464322916666665,64.8802450074917
1371050824.0,1.2263905833333333,32.35625,80.28333333333333,-4.6850781249999995,64.8802450074917
1371050824.25,1.2230293333333333,32.35375,80.23833335637333,-4.018541666666667,64.8802450074917
1371050824.5,1.219828125,32.35125,80.19333333333333,-2.7475520833333333,64.88209222567345
1371050824.75,1.2165735416666665,32.348333333333336,80.14833331029334,-1.6518749999999998,64.88209222567345
1371050825.0,1.2135857083333332,32.345,80.10333333333334,-0.8639843749999999,64.88301583476432
1371050825.25,1.210597875,32.34166666666667,80.06333335381333,0.3581250000000001,64.8950227529457
1371050825.5,1.20745,32.33833333333333,80.02333333333334,1.7142968750000003,64.90980049839973
1371050825.75,1.2044621666666666,32.33625,79.98333331285333,2.175234375,64.92457824385373
1371050826.0,1.2015276666666665,32.33541666666667,79.94333333333333,2.683854166666667,64.93843238021688
1371050826.25,1.1986465416666667,32.334583333333335,79.90583335253334,3.8877343749999995,64.93843238021688
1371050826.5,1.1955520416666665,32.33375,79.86833333333334,4.508098958333334,64.93843238021688
1371050826.75,1.1922441666666668,32.33291666666667,79.83083331413333,4.5178125,64.93843238021688
1371050827.0,1.1890963333333333,32.33208333333333,79.79333333333334,5.347031250000001,64.93843238021688
1371050827.25,1.1858951249999998,32.331250000000004,79.75750001834668,6.125546875,64.93843238021688
1371050827.5,1.1826939166666668,32.330416666666665,79.72166666666666,5.880468750000001,64.93843238021688
1371050827.75,1.1794927083333333,32.33,79.68583331498667,6.183593750000001,64.93843238021688
1371050828.0,1.1762381666666666,32.33,79.65,7.082838541666667,64.9338143347625
1371050828.25,1.17330375,32.33,79.61416668501334,7.2109114583333325,64.91903658930849
1371050828.5,1.1702092916666667,32.33,79.57833333333335,7.160208333333333,64.90425884385446
1371050828.75,1.16679475,32.33,79.54249998165334,7.788385416666666,64.88948109840047
1371050829.0,1.1637002916666666,32.33,79.50666666666667,7.8469010416666665,64.87470335294644
1371050829.25,1.1604990833333333,32.33,79.46583335424,7.320833333333334,64.85992560749243
1371050829.5,1.157297875,32.33,79.425,7.391770833333333,64.84414226480844
1371050829.75,1.1543634166666665,32.329166666666666,79.38416664575999,7.71625,64.82614660821851
1371050830.0,1.1513755833333332,32.3275,79.34333333333332,7.404869791666666,64.80815095162856
1371050830.25,1.1486012083333332,32.32583333333333,79.29833335637332,7.202708333333334,64.7946542091861
1371050830.5,1.1459335416666667,32.32416666666666,79.25333333333333,7.527291666666666,64.79368543599774
1371050830.75,1.1432125,32.3225,79.20833331029334,7.555989583333332,64.79689265256074
1371050831.0,1.1405981666666667,32.32083333333333,79.16333333333334,7.345052083333333,64.80471791457812
1371050831.25,1.1377704166666667,32.31916666666667,79.11583335765334,7.491901041666666,64.82270287659513
1371050831.5,1.134996,32.3175,79.06833333333333,7.314817708333333,64.84068783861214
1371050831.75,1.1324883333333333,32.31583333333334,79.02083330901333,7.119088541666667,64.85867280062915
1371050832.0,1.1299273333333335,32.31416666666667,78.97333333333333,7.6410937500000005,64.87665776264616
1371050832.25,1.127633125,32.3125,78.93083335509333,7.766276041666667,64.89464272466317
1371050832.5,1.125445625,32.310833333333335,78.88833333333332,7.7906249999999995,64.91363328391016
1371050832.75,1.1230447083333333,32.31,78.84583331157333,8.755416666666667,64.93483615706309
1371050833.0,1.120537125,32.31,78.80333333333333,9.458229166666667,64.95603903021602
1371050833.25,1.1177094166666668,32.31,78.76750001834667,9.481276041666666,64.97274298922147
1371050833.5,1.1146682916666666,32.31,78.73166666666667,10.3425,64.97615663197257
1371050833.75,1.1116805416666666,32.31,78.69583331498667,11.008828124999999,64.96472142696867
1371050834.0,1.1085860833333332,32.31,78.66000000000001,10.752656250000001,64.95252387496451
1371050834.25,1.1056516666666665,32.31,78.63000001536001,10.826796875,64.94032632296036
1371050834.5,1.1030907083333334,32.31,78.60000000000001,11.998151041666667,64.9281287709562
1371050834.75,1.10052975,32.31,78.56999998464,12.587499999999999,64.91593121895204
1371050835.0,1.0976486666666665,32.31,78.54,12.084062500000002,64.90373366694789
1371050835.25,1.0946075,32.31,78.51083334826667,12.870885416666667,64.89153611494372
1371050835.5,1.0916197083333332,32.31,78.48166666666667,13.377005208333335,64.87777131166956
1371050835.75,1.0886852916666667,32.31,78.45249998506667,12.37015625,64.85978634965255
1371050836.0,1.0858575416666667,32.31,78.42333333333333,11.861041666666667,64.84180138763554
1371050836.25,1.0832432083333334,32.31,78.39333334869333,12.065677083333334,64.82381642561853
1371050836.5,1.0805755416666667,32.31,78.36333333333334,11.272682291666667,64.80659381060178
1371050836.75,1.0776944583333334,32.30916666666667,78.33333331797334,10.632526041666667,64.80004405358868
1371050837.0,1.0748667083333334,32.3075,78.30333333333334,11.405,64.79425664357582
1371050837.25,1.071985625,32.30583333333333,78.27083334997334,11.633645833333334,64.78846923356296
1371050837.5,1.0688911666666665,32.30416666666667,78.23833333333334,10.688958333333334,64.78103183619982
1371050837.75,1.0657966666666665,32.3025,78.20583331669334,10.192317708333334,64.76171627312597
1371050838.0,1.063075625,32.30083333333334,78.17333333333335,10.366354166666666,64.74815918935265
1371050838.25,1.060621375,32.29916666666667,78.13916668416002,9.479348958333334,64.73560770280932
1371050838.5,1.0583271666666667,32.2975,78.10500000000002,8.847578125,64.73054203450015
1371050838.75,1.056193,32.295,78.07083331584,8.920286458333333,64.71701388143916
1371050839.0,1.0540588333333332,32.291666666666664,78.03666666666668,8.717109375,64.70348572837817
1371050839.25,1.0520313749999999,32.288333333333334,77.99833335296,8.710651041666667,64.68995757531718
1371050839.5,1.05043075,32.285000000000004,77.96000000000001,8.726432291666667,64.67642942225619
1371050839.75,1.0490435416666666,32.2825,77.92166664704001,8.496484375,64.6629012691952
1371050840.0,1.047549625,32.280833333333334,77.88333333333334,7.677552083333333,64.64937311613421
1371050840.25,1.0458956666666668,32.27916666666667,77.84500001962667,7.467604166666667,64.63584496307323
1371050840.5,1.044135,32.277499999999996,77.80666666666667,7.648828124999999,64.61722094789606
1371050840.75,1.0423743333333333,32.27583333333334,77.76833331370668,7.782578125,64.58896760062851
1371050841.0,1.040507,32.274166666666666,77.73,8.576927083333333,64.55215922926872
1371050841.25,1.0385863333333334,32.2725,77.69500001792,9.901979166666667,64.51434526067895
1371050841.5,1.0366656250000001,32.270833333333336,77.66,11.341562500000002,64.47061272512501
1371050841.75,1.0347449166666667,32.27,77.62499998208,13.083880208333333,64.43956283306575
1371050842.0,1.0327175416666667,32.27,77.58999999999999,14.854036458333333,64.40709319973597
1371050842.25,1.0305834166666668,32.27,77.56166668117332,15.978203125,64.37178408386515
1371050842.5,1.0283959166666665,32.27,77.53333333333333,17.625859375,64.33619101974023
1371050842.75,1.0262617916666665,32.27,77.50499998549334,19.52869791666667,64.3005979556153
1371050843.0,1.0243944583333333,32.27,77.47666666666667,21.059166666666666,64.26500489149039
1371050843.25,1.0226871666666666,32.27,77.45416667818667,22.1221875,64.22941182736547
1371050843.5,1.0213533333333333,32.27,77.43166666666667,23.11645833333333,64.20056461270701
1371050843.75,1.020072875,32.27,77.40916665514668,23.694765625000002,64.19322489584964
1371050844.0,1.0188990833333333,32.27,77.38666666666667,23.351875000000003,64.188681723784
1371050844.25,1.01772525,32.27,77.37000000853334,22.543125,64.18413855171833
1371050844.5,1.0166047916666665,32.27,77.35333333333332,21.14421875,64.17959537965268
1371050844.75,1.0155377083333332,32.270833333333336,77.33666665813332,19.502786458333333,64.17505220758702
1371050845.0,1.0145773333333332,32.2725,77.32,18.35651041666667,64.17192877679189
1371050845.25,1.0137770416666667,32.274166666666666,77.30750000639999,17.128828125000002,64.17164482853778
1371050845.5,1.0128700416666667,32.27583333333334,77.29499999999999,15.366744791666667,64.17164482853778
1371050845.75,1.0119096666666667,32.276666666666664,77.2824999936,13.918515625,64.17164482853778
1371050846.0,1.0107358750000002,32.27666666666667,77.27,12.619427083333333,64.17164482853778
1371050846.25,1.0094553750000002,32.27666666666667,77.26000000511999,11.163359375,64.17164482853778
1371050846.5,1.0080681666666667,32.276666666666664,77.25,10.029973958333334,64.17217196931043
1371050846.75,1.0067343333333334,32.27666666666667,77.23999999488001,9.156692708333333,64.17375339162837
1371050847.0,1.0054005416666667,32.27666666666667,77.23,8.164322916666666,64.17375339162835
1371050847.25,1.004120125,32.276666666666664,77.22000000512,7.7430208333333335,64.174280532401
1371050847.5,1.0027863333333333,32.27666666666667,77.21000000000001,7.779036458333334,64.174280532401
1371050847.75,1.0013991666666666,32.27583333333333,77.19999999488,7.249505208333333,64.174280532401
1371050848.0,0.9999052916666665,32.27416666666667,77.19,6.482916666666667,64.1741587812075
1371050848.25,0.9980912916666665,32.2725,77.18000000512,6.240859374999999,64.17350944150878
1371050848.5,0.9961172083333333,32.270833333333336,77.16999999999999,5.717760416666667,64.17286010181007
1371050848.75,0.99408975,32.27,77.15999999488,4.852890625,64.17221076211136
1371050849.0,0.992169,32.27,77.14999999999999,4.706458333333333,64.17156142241264
1371050849.25,0.990301625,32.27,77.14000000511999,4.553697916666667,64.17091208271393
1371050849.5,0.9882742083333333,32.27,77.13,3.9074739583333336,64.16973560224257
1371050849.75,0.986300125,32.27,77.11999999488,3.8672135416666666,64.16750484022592
1371050850.0,0.984379375,32.27,77.11,4.134322916666667,64.1668555005272
1371050850.25,0.9824586249999999,32.27,77.10000000512,3.6586458333333334,64.16567902005585
1371050850.5,0.9805912500000001,32.27,77.09,3.4930468749999997,64.16502968035714
1371050850.75,0.9788305833333334,32.27,77.07999999488001,3.8675,64.16438034065843
1371050851.0,0.9775459583333334,32.27,77.07000000000001,3.7553125000000005,64.18761327785188
1371050851.25,0.9768974583333333,32.27,77.06083333802667,3.852890625,64.23480965939987
1371050851.5,0.9766224583333334,32.27,77.05166666666668,4.5411979166666665,64.28200604094785
1371050851.75,0.97661425,32.27,77.04249999530667,5.055911458333333,64.32920242249584
1371050852.0,0.9767127499999999,32.27,77.03333333333333,5.1202604166666665,64.37639880404383
1371050852.25,0.977078,32.27,77.02750000298667,5.950520833333333,64.42359518559182
1371050852.5,0.97771,32.27,77.02166666666668,6.830677083333334,64.4707915671398
1371050852.75,0.9782352916666667,32.27,77.01583333034667,6.921848958333334,64.51798794868779
1371050853.0,0.97833375,32.27,77.01,7.299322916666667,64.56518433023577
1371050853.25,0.9780587083333333,32.27,77.03416665429334,7.903046875,64.59534852083581
1371050853.5,0.9776235833333332,32.27,77.05833333333334,7.679739583333333,64.61053882730364
1371050853.75,0.97708175,32.27,77.08250001237333,7.737473958333333,64.64144755957606
1371050854.0,0.9761172083333333,32.27,77.10666666666667,8.326692708333335,64.66025100412212
1371050854.25,0.974676625,32.27,77.16083330560001,8.108567708333332,64.63435420178327
1371050854.5,0.9731293333333332,32.27,77.215,7.5027083333333335,64.60619222214108
1371050854.75,0.9715820416666667,32.27,77.2691666944,7.09859375,64.56860612650763
1371050855.0,0.9700347500000001,32.27,77.32333333333334,6.6578124999999995,64.53085797122695
1371050855.25,0.9684874583333333,32.27,77.40499995818666,5.688671875000001,64.49306930103447
1371050855.5,0.9669401666666667,32.27,77.48666666666666,4.9984375000000005,64.45540216577284
1371050855.75,0.9654995833333334,32.27,77.56833337514666,4.402473958333333,64.418342690464
1371050856.0,0.9649126666666668,32.27,77.64999999999999,3.2271875,64.38022934601496
1371050856.25,0.9659263750000001,32.27,77.71499996672,2.352604166666667,64.35959379772525
1371050856.5,0.9685940833333334,32.27,77.78,1.7208593749999999,64.35696761974204
1371050856.75,0.9724355833333332,32.26916666666667,77.84500003328,0.423984375,64.33327602281433
1371050857.0,0.97713075,32.267500000000005,77.91000000000001,-1.0138020833333334,64.29403192963467
1371050857.25,0.9823060833333334,32.26583333333334,77.9474999808,-1.8778645833333334,64.2991966559762
1371050857.5,0.9875881250000001,32.264166666666675,77.98500000000001,-2.612135416666667,64.29624409758357
1371050857.75,0.9928701666666666,32.263333333333335,78.02250001920001,-2.8156250000000003,64.30829308063183
1371050858.0,0.9981522083333333,32.263333333333335,78.06,-3.2840104166666673,64.33185479777505
1371050858.25,1.00343425,32.26333333333334,78.04250000896,-3.998333333333333,64.35953514234518
1371050858.5,1.0087162916666668,32.263333333333335,78.025,-4.702526041666666,64.38294127913366
1371050858.75,1.0138382499999998,32.26416666666667,78.00749999103999,-5.010546875,64.39216905972916
1371050859.0,1.0179998333333333,32.26583333333333,77.99,-4.7814322916666665,64.40677406806704
1371050859.25,1.0204541249999999,32.267500000000005,77.95083335338666,-4.2683333333333335,64.41774159028267
1371050859.5,1.0212010833333334,32.26916666666667,77.91166666666666,-3.2729687500000004,64.42809721622604
1371050859.75,1.020454125,32.27166666666667,77.87249997994667,-1.8312760416666665,64.44194198425296
1371050860.0,1.0184800416666666,32.275,77.83333333333333,-0.41354166666666664,64.45742105517688
1371050860.25,1.0159190833333334,32.27833333333333,77.78166669312,0.8912239583333336,64.4497556976152
1371050860.5,1.0130913333333333,32.28166666666667,77.72999999999999,2.531588541666667,64.45247280209101
1371050860.75,1.0101035,32.284166666666664,77.67833330687999,3.5985937499999996,64.4496124811172
1371050861.0,1.0070623333333335,32.285833333333336,77.62666666666667,4.877239583333333,64.43540148569565
1371050861.25,1.0039144583333333,32.2875,77.59000001877334,6.598802083333333,64.41711237775901
1371050861.5,1.0006065,32.28916666666667,77.55333333333334,8.146458333333333,64.40297594267314
1371050861.75,0.9973519166666667,32.28916666666667,77.51666664789333,9.413958333333333,64.40241020382747
1371050862.0,0.9945241666666668,32.2875,77.48,10.436484375,64.39752110637966
1371050862.25,0.9920165416666666,32.28583333333333,77.44416668501333,11.173802083333333,64.39582388984266
1371050862.5,0.9895622916666666,32.28416666666667,77.40833333333333,11.63953125,64.39129839921215
1371050862.75,0.9873214583333333,32.2825,77.37249998165333,11.702760416666665,64.38256049676559
1371050863.0,0.9855607916666665,32.28083333333334,77.33666666666666,11.802447916666667,64.37649023389318
1371050863.25,0.984066875,32.27916666666667,77.30750001493332,12.530911458333334,64.37284807616973
1371050863.5,0.98283975,32.277499999999996,77.27833333333332,12.826041666666667,64.36677781329732
1371050863.75,0.9817727083333333,32.27583333333334,77.24916665173332,12.521927083333333,64.36030286623341
1371050864.0,0.9807589999999999,32.274166666666666,77.21999999999998,12.400494791666665,64.3538279191695
1371050864.25,0.9804922500000001,32.2725,77.19916667733332,12.325598958333332,64.35034776698937
1371050864.5,0.9814526250000001,32.270833333333336,77.17833333333333,12.173619791666667,64.34386884181701
1371050864.75,0.9834800416666667,32.270833333333336,77.15749998933333,12.600208333333335,64.28909787973001
1371050865.0,0.9864145,32.2725,77.13666666666667,12.892161458333334,64.21966720773973
1371050865.25,0.9900959166666666,32.274166666666666,77.12250000725334,12.397421875000001,64.09121549189368
1371050865.5,0.994204125,32.27583333333333,77.10833333333333,12.763125,63.97472706843021
1371050865.75,0.9987391250000001,32.2775,77.09416665941333,13.958541666666667,64.01385164934749
1371050866.0,1.0037542916666666,32.27916666666667,77.08,14.053671875,64.0499829949121
1371050866.25,1.0090895833333333,32.280833333333334,77.06500000768,12.276562499999999,64.00683000843348
1371050866.5,1.01447825,32.282500000000006,77.05,11.227760416666667,63.890984158610195
1371050866.75,1.0205071666666667,32.284166666666664,77.03499999232,12.335729166666667,63.76693030196884
1371050867.0,1.0272830416666667,32.285833333333336,77.02,13.264817708333334,63.65530114870603
1371050867.25,1.0336854583333333,32.2875,76.99833334442667,11.691119791666667,63.52833193389693
1371050867.5,1.040461375,32.28916666666667,76.97666666666666,9.829583333333334,63.48650348958335
1371050867.75,1.0477708333333333,32.29,76.95499998890666,8.030703125,63.55737105639647
1371050868.0,1.0550802499999998,32.29,76.93333333333334,7.1621354166666675,63.64996596719976
1371050868.25,1.0624963333333335,32.29,76.89916668416001,6.896041666666666,63.80319188577568
1371050868.5,1.0699124166666667,32.29,76.86500000000001,5.7695052083333325,63.92327428446583
1371050868.75,1.0775419583333332,32.29208333333333,76.83083331584,3.97515625,63.889977507550675
1371050869.0,1.0850114583333332,32.29625,76.79666666666667,3.756901041666667,63.859269281796664
1371050869.25,1.0922675416666667,32.30041666666667,76.76750001493333,4.686848958333333,63.90541728293695
1371050869.5,1.099523625,32.30458333333333,76.73833333333334,4.533151041666668,64.02705009510215
1371050869.75,1.1065129583333333,32.30875,76.70916665173334,2.603489583333334,64.16238939371505
1371050870.0,1.1131821666666666,32.312916666666666,76.68,0.8550781250000002,64.27984635097997
1371050870.25,1.1195845833333333,32.317083333333336,76.66166667605334,1.7094270833333336,64.4100124174387
1371050870.5,1.1245464583333333,32.32125,76.64333333333335,2.7610156250000006,64.45767264386285
1371050870.75,1.1280677916666666,32.32541666666667,76.62499999061333,3.083828125,64.44202042366884
1371050871.0,1.1314824166666668,32.32958333333333,76.60666666666667,2.8361718750000002,64.42403052229473
1371050871.25,1.1357507083333334,32.33375,76.60500000085334,2.5395572916666667,64.40261144434731
1371050871.5,1.1414062083333332,32.337916666666665,76.60333333333332,2.219557291666667,64.39950269531293
1371050871.75,1.1478086666666667,32.34,76.60166666581333,1.9661979166666665,64.4020490664551
1371050872.0,1.154851375,32.34,76.6,1.1276041666666667,64.40544449126646
1371050872.25,1.1618940833333333,32.34,76.6124999936,0.6251302083333333,64.40786949380207
1371050872.5,1.1688834166666666,32.34,76.625,0.56671875,64.4090411488166
1371050872.75,1.1754992499999999,32.33958333333334,76.63750000639999,1.1254427083333334,64.40172253042789
1371050873.0,1.1816882499999999,32.338750000000005,76.64999999999999,2.1361458333333334,64.39929498245286
1371050873.25,1.1878772499999999,32.337916666666665,76.67333332138666,3.0603125,64.37886919461491
1371050873.5,1.1940662499999999,32.33708333333333,76.69666666666666,4.742473958333334,64.3451904091931
1371050873.75,1.198387875,32.33625,76.72000001194667,6.679140625,64.30903647830839
1371050874.0,1.1996683333333333,32.33541666666667,76.74333333333334,8.412630208333333,64.26815259451685
1371050874.25,1.197640875,32.334583333333335,76.77833331541333,10.124244791666666,64.22908792338177
1371050874.5,1.1927323333333335,32.33375,76.81333333333333,11.3309375,64.19329783502835
1371050874.75,1.18638325,32.33208333333334,76.84833335125333,12.433958333333335,64.15568906059534
1371050875.0,1.1790737916666667,32.32958333333334,76.88333333333333,13.544583333333334,64.11723123249315
1371050875.25,1.1716576250000001,32.32708333333333,76.91916664831999,14.417630208333334,64.07974382666673
1371050875.5,1.1642414583333334,32.32458333333333,76.95499999999998,15.407578125,64.04314592583006
1371050875.75,1.156611875,32.3225,76.99083335168,15.958958333333333,64.00994450295852
1371050876.0,1.14882225,32.32083333333333,77.02666666666666,15.824869791666664,63.97730964764273
1371050876.25,1.1407125,32.31916666666667,77.06416664746666,15.38765625,63.962309189658555
1371050876.5,1.13260275,32.3175,77.10166666666666,14.186640625,63.96129193929573
1371050876.75,1.12641375,32.31583333333333,77.13916668586666,12.664088541666667,63.97949492414505
1371050877.0,1.1225723333333333,32.314166666666665,77.17666666666666,10.966015624999999,63.97920808182095
1371050877.25,1.1204915833333333,32.3125,77.20999998293333,9.268125,64.01151900842375
1371050877.5,1.1196379583333333,32.310833333333335,77.24333333333334,8.551796874999999,64.04814524883008
1371050877.75,1.1187309583333331,32.31,77.27666668373334,7.891953125000001,64.11067119119836
1371050878.0,1.1175572083333332,32.31,77.31,6.5933593749999995,64.15265045321108
1371050878.25,1.1163834583333332,32.31,77.34499998208,4.9201041666666665,64.20512025673557
1371050878.5,1.1152097083333332,32.31,77.38,3.704375,64.2960347117233
1371050878.75,1.114249375,32.31,77.41500001792001,3.1040885416666666,64.3856270438901
1371050879.0,1.1134490833333333,32.31,77.45,3.0323437499999994,64.44964653765005
1371050879.25,1.1132356666666667,32.31,77.48916664661334,2.760052083333333,64.49297730597957
1371050879.5,1.1128088333333332,32.31,77.52833333333334,2.369010416666667,64.56571895656721
1371050879.75,1.1119551666666667,32.31,77.56750002005333,2.6563020833333333,64.6011410782188
1371050880.0,1.1111015,32.31,77.60666666666667,3.664036458333333,64.64166093817055
1371050880.25,1.110141125,32.31,77.65499997525333,4.5325,64.64700051898127
1371050880.5,1.1090740416666667,32.31,77.70333333333333,4.746093749999999,64.64802478598844
1371050880.75,1.1083270833333334,32.31,77.75166669141333,4.682161458333333,64.62314935103367
1371050881.0,1.1076334583333334,32.31,77.8,5.488489583333333,64.61882059643447
1371050881.25,1.1063529583333334,32.31,77.85166664021332,6.831979166666667,64.60400130032349
1371050881.5,1.1045922916666668,32.31,77.90333333333334,7.2803125,64.55073735274927
1371050881.75,1.1026715416666668,32.31,77.95500002645333,7.109114583333334,64.49879552799598
1371050882.0,1.1003239583333333,32.31,78.00666666666666,6.716484375,64.4702420967334
1371050882.25,1.0972294583333333,32.31,78.06749996885333,6.284947916666667,64.4592209411153
1371050882.5,1.0941349583333333,32.31,78.12833333333333,6.497968750000001,64.39304784641767
1371050882.75,1.0910938333333333,32.31,78.18916669781333,6.456458333333334,64.3309472892975
1371050883.0,1.0877859583333334,32.31,78.25,5.69875,64.2822388210506
1371050883.25,1.0843713750000001,32.31,78.31916663125332,5.274036458333334,64.23611286301782
1371050883.5,1.0809034166666667,32.31,78.38833333333332,5.026041666666667,64.18998690498505
1371050883.75,1.0772220416666667,32.31,78.45750003541333,5.135052083333334,64.14386094695227
1371050884.0,1.073380625,32.31,78.52666666666666,5.256093750000001,64.0977349889195
1371050884.25,1.0698592916666667,32.31,78.60166662826666,5.079401041666666,64.05160903088674
1371050884.5,1.0666580416666667,32.31,78.67666666666666,5.510572916666667,64.00548307285396
1371050884.75,1.0634034583333334,32.31125,78.75166670506667,6.331015625,63.959357114821195
1371050885.0,1.0604156666666666,32.313750000000006,78.82666666666667,6.685156250000001,63.915415601704545
1371050885.25,1.0575879166666666,32.316250000000004,78.89666663082667,7.610598958333334,63.87463053837388
1371050885.5,1.0546534583333333,32.31875,78.96666666666667,8.425052083333334,63.87845813669532
1371050885.75,1.0518257083333333,32.32125,79.03666670250666,8.504713541666666,63.90968513232235
1371050886.0,1.0489979166666668,32.323750000000004,79.10666666666667,9.225,63.94220899770887
1371050886.25,1.0461167916666667,32.32625000000001,79.16416663722667,9.843489583333334,63.9760297328549
1371050886.5,1.0432890833333333,32.32875,79.22166666666666,9.985026041666666,64.01082312032055
1371050886.75,1.0405147083333333,32.331250000000004,79.27916669610666,10.552395833333334,64.04658916010582
1371050887.0,1.037847,32.33375,79.33666666666666,10.86046875,64.0823551998911
1371050887.25,1.0352326666666667,32.33625000000001,79.38333330943999,11.130703125000002,64.11812123967637
1371050887.5,1.032565,32.33875,79.42999999999999,11.422031250000002,64.15388727946164
1371050887.75,1.029790625,32.34,79.47666669056,11.244427083333333,64.18965331924691
1371050888.0,1.0268028333333332,32.34,79.52333333333333,11.235703125,64.2254193590322
1371050888.25,1.0239217500000002,32.34,79.56499997866666,11.080729166666666,64.26118539881747
1371050888.5,1.0212007083333334,32.34,79.60666666666665,10.769348958333333,64.27771346626584
1371050888.75,1.0181595416666667,32.34,79.64833335466666,11.205520833333333,64.28225251042409
1371050889.0,1.0149583750000002,32.34,79.69,10.909427083333332,64.28549468482284
1371050889.25,1.0118639166666668,32.34,79.73666664277333,9.823437499999999,64.28598089308535
1371050889.5,1.0086093333333335,32.34,79.78333333333333,9.055572916666666,64.28630511052523
1371050889.75,1.0053014166666667,32.34,79.83000002389335,7.416432291666666,64.28435957009138
1371050890.0,1.00210025,32.34,79.87666666666668,5.883489583333333,64.27527776607802
1371050890.25,0.998739,32.34,79.92666664106667,5.0105989583333335,64.26359885925275
1371050890.5,0.9952710416666668,32.34,79.97666666666667,3.9819531250000004,64.25191995242749
1371050890.75,0.9918030833333334,32.34,80.02666669226667,3.1502343749999997,64.24145848369955
1371050891.0,0.9883350833333334,32.34,80.07666666666667,2.479921875,64.23075352735215
1371050891.25,0.9849737916666665,32.34,80.12666664106666,1.542890625,64.2222388972163
1371050891.5,0.9817725833333332,32.34,80.17666666666668,0.04466145833333343,64.21055999039105
1371050891.75,0.9789982083333332,32.34,80.22666669226668,-1.9658854166666666,64.19863747761916
1371050892.0,0.976650625,32.34,80.27666666666667,-3.52984375,64.18695857079389
1371050892.25,0.9744630833333333,32.34,80.31999997781334,-3.7866145833333333,64.17738802122156
1371050892.5,0.9725423333333333,32.34,80.36333333333334,-3.7191145833333334,64.16952288832911
1371050892.75,0.970835,32.34125,80.40666668885333,-3.07640625,64.16368532384918
1371050893.0,0.9692877083333333,32.34375000000001,80.45,-2.3951302083333332,64.16498402294873
1371050893.25,0.968220625,32.346250000000005,80.48666664789333,-2.4901041666666663,64.1688798248602
1371050893.5,0.9675803749999999,32.34875,80.52333333333334,-2.7646875000000004,64.17277562677167
1371050893.75,0.9673669583333333,32.35125,80.56000001877334,-3.31125,64.17545399058581
1371050894.0,0.9675270416666666,32.35375,80.59666666666666,-4.3721875,64.1783758420194
1371050894.25,0.9677938333333332,32.356249999999996,80.6258333184,-4.381354166666666,64.17910736724146
1371050894.5,0.968060625,32.35875,80.655,-3.0124479166666664,64.18300316915291
1371050894.75,0.9683807499999998,32.36125,80.68416668159999,-1.2225781249999998,64.187142577011
1371050895.0,0.968700875,32.36375,80.71333333333332,0.8641927083333334,64.19103837892247
1371050895.25,0.9688609166666665,32.36625,80.74083331925333,2.2600520833333335,64.19428491995774
1371050895.5,0.9688609166666667,32.36875,80.76833333333333,3.39,64.19501538281614
1371050895.75,0.9685941666666666,32.37,80.79583334741334,4.375078125,64.19501538281614
1371050896.0,0.9679539166666666,32.37,80.82333333333334,5.2219010416666665,64.19501538281614
1371050896.25,0.9669935416666666,32.37,80.85083331925334,6.299192708333333,64.19501538281614
1371050896.5,0.9657130833333333,32.37,80.87833333333333,7.305026041666667,64.19501538281614
1371050896.75,0.964165875,32.37083333333333,80.90583334741333,9.080078125000002,64.19501538281614
1371050897.0,0.9625119583333333,32.372499999999995,80.93333333333334,11.513880208333333,64.19501538281614
1371050897.25,0.9606979583333333,32.37416666666667,80.96333331797334,12.173463541666665,64.19501538281614
1371050897.5,0.9588839583333333,32.37583333333333,80.99333333333334,10.818932291666664,64.19501538281614
1371050897.75,0.9570699583333333,32.3775,81.02333334869334,9.053333333333333,64.19598827093036
1371050898.0,0.9552559583333332,32.37916666666666,81.05333333333334,6.405208333333333,64.1944810126508
1371050898.25,0.9536020416666666,32.380833333333335,81.08583331669334,4.0070572916666665,64.18782918061969
1371050898.5,0.9521615416666666,32.3825,81.11833333333334,2.1751822916666668,64.16705865870544
1371050898.75,0.9510945,32.384166666666665,81.15083334997334,-0.4819010416666669,64.1593828087908
1371050899.0,0.950561,32.38583333333333,81.18333333333334,-2.8654687500000002,64.18507570663361
1371050899.25,0.9503476249999999,32.3875,81.21916664832,-2.7106250000000007,64.21145836097973
1371050899.5,0.9503476249999999,32.38916666666667,81.255,-3.5416666666666674,64.23542006079623
1371050899.75,0.9505076666666666,32.39,81.29083335168,-5.486302083333334,64.25137716652203
1371050900.0,0.9507744166666666,32.39,81.32666666666667,-7.758515625,64.2677811678893
1371050900.25,0.9512546250000001,32.39,81.36166664874666,-8.6846875,64.28907565294558
1371050900.5,0.9517881666666668,32.39,81.39666666666668,-7.076536458333333,64.29924789373747
1371050900.75,0.9522683750000001,32.39,81.43166668458667,-4.892760416666667,64.3093374979259
1371050901.0,0.9526952083333334,32.39,81.46666666666667,-2.330755208333334,64.32101699699733
1371050901.25,0.9530686666666668,32.39,81.49666665130667,-0.4488802083333339,64.33739594406494
1371050901.5,0.9533354166666667,32.39,81.52666666666667,0.8082552083333329,64.36789358101571
1371050901.75,0.953442125,32.39,81.55666668202666,3.2836718749999996,64.38529654596682
1371050902.0,0.9532287083333334,32.39,81.58666666666666,5.152786458333333,64.36933076316052
1371050902.25,0.9526951666666666,32.39,81.61083332096,4.329375,64.35267522385088
1371050902.5,0.9521082916666667,32.39,81.63499999999999,4.906145833333333,64.34511752540165
1371050902.75,0.9514147083333334,32.39,81.65916667904,5.731640625,64.34600954679847
1371050903.0,0.950721125,32.39,81.68333333333334,7.360833333333333,64.34645467255385
1371050903.25,0.9499741666666667,32.39,81.70249999018667,8.54140625,64.3420093146202
1371050903.5,0.949173875,32.39,81.72166666666666,7.944661458333333,64.34868620095094
1371050903.75,0.9484269166666667,32.39,81.74083334314668,7.616692708333333,64.35447283577092
1371050904.0,0.9477333333333333,32.39,81.76,7.078463541666667,64.36114972210167
1371050904.25,0.9475199583333332,32.39,81.77416665941334,7.272890625,64.36827173418781
1371050904.5,0.9478934166666666,32.39,81.78833333333333,7.91390625,64.37539374627396
1371050904.75,0.9485869583333333,32.39,81.80250000725333,7.697656249999999,64.38251575836009
1371050905.0,0.9498674166666667,32.39,81.81666666666666,8.066770833333333,64.38963777044623
1371050905.25,0.9519481666666666,32.39,81.82333332992,8.575026041666666,64.39675978253237
1371050905.5,0.954402375,32.39,81.83,8.555078125,64.39720490828775
1371050905.75,0.9571767083333333,32.39,81.83666667007999,9.196458333333334,64.4083067371193
1371050906.0,0.9601111250000001,32.39,81.84333333333333,8.858697916666667,64.42832719849277
1371050906.25,0.9630989166666666,32.39,81.84666666496,8.4265625,64.44834765986622
1371050906.5,0.9660867083333334,32.39,81.85,8.640651041666667,64.46836812123968
1371050906.75,0.9691812083333332,32.38916666666667,81.85333333504,8.041979166666666,64.48838858261313
1371050907.0,0.973022625,32.3875,81.85666666666667,7.800677083333333,64.5084090439866
1371050907.25,0.9777176666666668,32.38583333333333,81.8608333312,7.584088541666667,64.52842950536005
1371050907.5,0.9832664166666666,32.384166666666665,81.86500000000001,6.913541666666667,64.54844996673351
1371050907.75,0.9899889583333334,32.38333333333333,81.8691666688,6.64390625,64.56847042810698
1371050908.0,0.9972983749999998,32.38333333333333,81.87333333333333,5.795859375,64.58957797274246
1371050908.25,1.00482125,32.38333333333333,81.88166666240001,4.855546875000001,64.62207308237616
1371050908.5,1.0128242916666668,32.38333333333333,81.89000000000001,4.539765625,64.66288247521956
1371050908.75,1.020987375,32.38333333333333,81.89833333760001,3.792265625,64.70016493496591
1371050909.0,1.0294705833333333,32.38333333333333,81.90666666666668,3.1055729166666666,64.74525793883846
1371050909.25,1.039554375,32.38333333333333,81.91916666026668,2.85796875,64.79562394346455
1371050909.5,1.0505985416666668,32.38333333333333,81.93166666666667,2.26984375,64.84694910675894
1371050909.75,1.061749375,32.384166666666665,81.94416667306666,1.845546875,64.8982742700533
1371050910.0,1.07226,32.38583333333333,81.95666666666666,1.5779947916666666,64.94768111601111
1371050910.25,1.0814901666666665,32.387499999999996,81.9733333248,0.581171875,64.9830994065424
1371050910.5,1.0893331250000002,32.38916666666666,81.99,-0.42898437500000003,65.01843764934932
1371050910.75,1.0957355416666668,32.39,82.0066666752,-0.941484375,65.05477596937983
1371050911.0,1.1010708750000002,32.39,82.02333333333333,-0.8493750000000001,65.09826511446134
1371050911.25,1.1053924583333334,32.39,82.05249998506666,-0.7982291666666667,65.13136575838107
1371050911.5,1.1087537083333334,32.39,82.08166666666666,-0.8035156250000001,65.15355455311634
1371050911.75,1.1116348333333335,32.38916666666666,82.11083334826667,-0.6450781250000001,65.16300884288573
1371050912.0,1.1139824166666668,32.387499999999996,82.14,-0.2389322916666667,65.1525730854289
1371050912.25,1.1143559166666666,32.38583333333333,82.17749998080001,-0.5379166666666667,65.13878334277935
1371050912.5,1.1132355,32.384166666666665,82.215,-1.0232552083333333,65.10836649844674
1371050912.75,1.1116349166666668,32.3825,82.2525000192,-1.5205989583333333,65.07698765919113
1371050913.0,1.1097675416666668,32.380833333333335,82.29,-2.5861458333333336,65.05734112146284
1371050913.25,1.1072065833333335,32.37916666666666,82.33333331114667,-2.753541666666667,65.05252526546188
1371050913.5,1.104005375,32.3775,82.37666666666667,-2.6011458333333333,65.04085806872368
1371050913.75,1.1006974583333333,32.374583333333334,82.42000002218666,-2.86984375,65.0080200855102
1371050914.0,1.0974429166666666,32.370416666666664,82.46333333333332,-3.147005208333333,64.9528656913085
1371050914.25,1.0943484583333334,32.36625,82.50249997994666,-3.1193489583333336,64.86063017052557
1371050914.5,1.0913606666666666,32.36208333333334,82.54166666666666,-3.494895833333333,64.79475167182206
1371050914.75,1.0883728333333333,32.35875,82.58083335338665,-4.502239583333333,64.729812955889
1371050915.0,1.0854383333333335,32.35625,82.61999999999999,-5.478958333333334,64.68555142322572
1371050915.25,1.0828239583333334,32.35375,82.65583331498667,-5.578255208333334,64.62974609148175
1371050915.5,1.0808498333333334,32.35125,82.69166666666666,-5.047838541666667,64.61168862210639
1371050915.75,1.0792492083333334,32.34875,82.72750001834666,-3.6809375,64.58288999381128
1371050916.0,1.0778619999999999,32.346250000000005,82.76333333333334,-1.461666666666667,64.51747574926294
1371050916.25,1.0794625833333333,32.34375000000001,82.79749998250666,-0.09296875000000017,64.47779701257886
1371050916.5,1.0854381666666668,32.34125000000001,82.83166666666668,1.2063020833333333,64.42114181282027
1371050916.75,1.0946149583333333,32.34,82.86583335082668,2.600625,64.37882434131728
1371050917.0,1.10597925,32.34,82.9,3.2257812500000003,64.35058537248949
1371050917.25,1.1181438333333333,32.34,82.93333331626667,4.40140625,64.37805383026269
1371050917.5,1.1305752083333334,32.34,82.96666666666667,5.762526041666667,64.3631103256011
1371050917.75,1.1431132916666666,32.33958333333334,83.00000001706668,7.796822916666667,64.34227360573131
1371050918.0,1.155651375,32.33875,83.03333333333335,10.33140625,64.30700808749353
1371050918.25,1.1681894583333332,32.33791666666667,83.06666664960001,11.935885416666666,64.2872170546102
1371050918.5,1.1806208333333335,32.33708333333333,83.10000000000001,12.820208333333333,64.24380336815561
1371050918.75,1.1927854166666667,32.33625,83.13333335040001,12.862552083333334,64.21209283554377
1371050919.0,1.2049500416666667,32.33541666666667,83.16666666666667,12.634843750000002,64.2096966643714
1371050919.25,1.214660375,32.334583333333335,83.19916665002667,13.058020833333332,64.19130043519934
1371050919.5,1.22052925,32.33375,83.23166666666667,13.3275,64.22017027617946
1371050919.75,1.223303625,32.33291666666667,83.26416668330667,12.38421875,64.25894682546031
1371050920.0,1.2238904999999998,32.33208333333333,83.29666666666667,11.47625,64.28617507413827
1371050920.25,1.2237304166666667,32.331250000000004,83.3258333184,9.771875,64.27822437150844
1371050920.5,1.2233569166666667,32.330416666666665,83.35499999999999,8.055963541666667,64.29967265022533
1371050920.75,1.2230367916666667,32.32833333333333,83.3841666816,6.211562499999999,64.35422832106997
1371050921.0,1.2229300833333332,32.324999999999996,83.41333333333333,3.4915625000000006,64.40976137146961
1371050921.25,1.2231435000000002,32.321666666666665,83.44083331925333,1.3612239583333334,64.46000745188495
1371050921.5,1.2236236666666667,32.318333333333335,83.46833333333333,-0.2146614583333332,64.51537622605528
1371050921.75,1.2246373750000001,32.315,83.49583334741332,-1.7789583333333334,64.57074500022561
1371050922.0,1.2262379583333334,32.31166666666667,83.52333333333333,-3.6019270833333334,64.62360104501897
1371050922.25,1.2291190416666666,32.30833333333333,83.54916665344,-5.544843749999999,64.66479294869102
1371050922.5,1.2324269583333334,32.305,83.57499999999999,-7.262135416666666,64.6837131987029
1371050922.75,1.2357348750000001,32.3025,83.60083334656,-7.360520833333332,64.69747315645422
1371050923.0,1.2390427916666666,32.30083333333334,83.62666666666667,-6.847395833333334,64.72386797976438
1371050923.25,1.2423507083333334,32.299166666666665,83.64999998805334,-6.162395833333332,64.76581639052614
1371050923.5,1.2456586250000001,32.2975,83.67333333333333,-5.543932291666667,64.79267206644748
1371050923.75,1.2489131666666666,32.29833333333333,83.69666667861333,-4.878359375,64.78675430730665
1371050924.0,1.2513140833333334,32.30166666666667,83.72,-3.7764843750000003,64.77197674868263
1371050924.25,1.2532348333333332,32.305,83.73833332394666,-2.9152083333333336,64.73667871889178
1371050924.5,1.2540885,32.30833333333333,83.75666666666666,-2.2335156250000003,64.69473030813002
1371050924.75,1.2536616666666667,32.312083333333334,83.77500000938667,-1.3155208333333333,64.65278189736827
1371050925.0,1.2521144166666667,32.316250000000004,83.79333333333334,-0.3332031249999998,64.61083348660651
1371050925.25,1.2486464583333334,32.32041666666667,83.80583332693334,0.6738802083333334,64.5699716408007
1371050925.5,1.244218125,32.32458333333334,83.81833333333333,1.5632031250000002,64.52802323003894
1371050925.75,1.2395230416666667,32.32791666666667,83.83083333973332,1.9871354166666668,64.48716138423315
1371050926.0,1.234134375,32.33041666666667,83.84333333333332,2.4271354166666668,64.44521297347138
1371050926.25,1.2279454166666666,32.33291666666667,83.85416666111999,2.7408333333333332,64.40326456270962
1371050926.5,1.2214897083333331,32.33541666666667,83.865,3.379947916666667,64.36566241177167
1371050926.75,1.2146071666666667,32.33708333333333,83.87583333888,4.1860156250000005,64.33783934543729
1371050927.0,1.207884625,32.33791666666667,83.88666666666667,4.787473958333333,64.31481118468743
1371050927.25,1.2008419166666666,32.33875,83.89666666154667,5.578255208333332,64.31174076325411
1371050927.5,1.1941727083333333,32.33958333333334,83.90666666666667,6.431927083333332,64.31174076325411
1371050927.75,1.1882504999999999,32.34,83.91666667178666,6.880781250000001,64.31174076325411
1371050928.0,1.1825950416666668,32.34,83.92666666666666,7.383333333333333,64.31174076325411
1371050928.25,1.1775797916666668,32.34,83.93416666282667,8.085833333333333,64.31174076325411
1371050928.5,1.17304475,32.34,83.94166666666666,8.58,64.31174076325411
1371050928.75,1.1685097083333333,32.34125,83.94916667050666,8.923932291666667,64.31174076325411
1371050929.0,1.1641880833333333,32.34375,83.95666666666666,9.590625000000001,64.31174076325411
1371050929.25,1.1599197916666666,32.346250000000005,83.94333334016,10.130052083333332,64.31174076325411
1371050929.5,1.1554380416666667,32.34875,83.92999999999999,9.929322916666665,64.31174076325411
1371050929.75,1.1511697083333334,32.35125,83.91666665983999,10.071067708333333,64.31634639540407
1371050930.0,1.147008125,32.35375,83.90333333333332,10.243203124999999,64.33323371328731
1371050930.25,1.1430066250000002,32.35625,83.87000001706666,9.613906250000001,64.35779708475384
1371050930.5,1.1388984166666667,32.35874999999999,83.83666666666666,9.192552083333334,64.38236045622035
1371050930.75,1.1342033333333335,32.36,83.80333331626666,9.518020833333333,64.40692382768688
1371050931.0,1.1292415,32.36,83.77,9.158776041666668,64.43213197465167
1371050931.25,1.1241196249999998,32.36,83.7200000256,8.176276041666666,64.4639013035182
1371050931.5,1.1187842916666666,32.36,83.66999999999999,8.077187499999999,64.50584971427996
1371050931.75,1.1132355,32.35875,83.61999997439999,7.894791666666666,64.54779812504171
1371050932.0,1.107900125,32.35625,83.57,6.631744791666666,64.58974653580347
1371050932.25,1.1029915833333332,32.35375,83.50416670037333,6.1020312500000005,64.63169494656523
1371050932.5,1.0980830833333333,32.35125,83.43833333333333,6.362916666666667,64.66994187300145
1371050932.75,1.0930145416666666,32.34875,83.37249996629333,5.461979166666667,64.6923175204365
1371050933.0,1.0879459583333333,32.346250000000005,83.30666666666667,4.781744791666666,64.70192790051459
1371050933.25,1.082877375,32.34375,83.22333337600001,5.501822916666666,64.70402342088397
1371050933.5,1.078235625,32.34125,83.14000000000001,5.743255208333333,64.70704511986435
1371050933.75,1.0742874583333333,32.34,83.056666624,4.711614583333334,64.70946302798284
1371050934.0,1.070766125,32.34,82.97333333333334,3.9317708333333337,64.70191770203525
1371050934.25,1.0675115416666667,32.34,82.87166671872001,3.430651041666667,64.6823228915694
1371050934.5,1.0643103333333335,32.34,82.77000000000001,2.15015625,64.65254899920832
1371050934.75,1.061215875,32.34,82.66833328128001,1.2112760416666668,64.62188610350968
1371050935.0,1.05817475,32.34,82.56666666666668,1.5381250000000002,64.59057654713261
1371050935.25,1.05545375,32.34,82.46250005333334,1.3573697916666667,64.56213235429804
1371050935.5,1.0532129166666666,32.34,82.35833333333333,-0.0584635416666666,64.56008476424947
1371050935.75,1.0513455416666666,32.34,82.25416661333333,-0.6304166666666665,64.56326491243338
1371050936.0,1.0498516666666666,32.34,82.14999999999999,-0.9981510416666666,64.56692864224101
1371050936.25,1.048784625,32.34,82.04416672085333,-2.6365625,64.57646908679276
1371050936.5,1.047931,32.34,81.93833333333333,-4.07328125,64.58387577100977
1371050936.75,1.047610875,32.34,81.83249994581334,-3.615442708333333,64.59369761867426
1371050937.0,1.0483577916666666,32.34,81.72666666666667,-2.5737760416666666,64.61283792490659
1371050937.25,1.0504385833333332,32.34,81.62000005461334,-1.227265625,64.64192488255098
1371050937.5,1.0535330833333332,32.34,81.51333333333334,0.42671875000000004,64.66832070604026
1371050937.75,1.0570010416666666,32.34,81.40666661205333,1.5580208333333332,64.7039992263526
1371050938.0,1.0606824166666666,32.34,81.3,2.0010937500000003,64.74494300194603
1371050938.25,1.0643637916666668,32.34,81.19500005376,2.4628125,64.78302141399698
1371050938.5,1.0680451666666666,32.34,81.09,3.7969531250000004,64.79840470758747
1371050938.75,1.0717265416666668,32.34,80.98499994624001,4.760130208333333,64.81982590979665
1371050939.0,1.0752478333333333,32.34,80.88000000000001,5.323307291666667,64.84124711200583
1371050939.25,1.077862125,32.34,80.77833338538667,6.373645833333334,64.85719183481864
1371050939.5,1.0796227916666667,32.34,80.67666666666668,7.400625000000001,64.87506597692673
1371050939.75,1.08036975,32.34,80.57499994794668,7.170260416666667,64.89112874644921
1371050940.0,1.0797295,32.34,80.47333333333334,6.44234375,64.90719151597169
1371050940.25,1.0772752083333332,32.34,80.37750004906667,5.500546875,64.9187959366986
1371050940.5,1.0735404583333334,32.34,80.28166666666667,4.353619791666667,64.93309149158064
1371050940.75,1.0695922916666667,32.34,80.18583328426666,3.5214062499999996,64.9389933529772
1371050941.0,1.0651639166666667,32.34,80.08999999999999,2.651041666666667,64.94027661977107
1371050941.25,1.0603620833333334,32.34,79.99833338026666,1.7523177083333332,64.94155988656492
1371050941.5,1.0554002083333334,32.34,79.90666666666667,1.046171875,64.94083530716848
1371050941.75,1.0501182083333334,32.34,79.81499995306667,0.612421875,64.91534601812974
1371050942.0,1.0445694583333334,32.34,79.72333333333334,0.33716145833333333,64.88832675961814
1371050942.25,1.039821,32.34,79.63583337813334,0.12924479166666672,64.86074607188421
1371050942.5,1.0358194583333333,32.34,79.54833333333335,-0.05348958333333331,64.83244354657873
1371050942.75,1.0323514583333333,32.33958333333334,79.46083328853334,0.13932291666666666,64.80414102127325
1371050943.0,1.0292569583333333,32.33875,79.37333333333333,0.7951562499999999,64.77583849596779
1371050943.25,1.026696,32.33791666666667,79.27833338197333,1.4036197916666666,64.74753597066231
1371050943.5,1.0249353333333333,32.33708333333333,79.18333333333334,2.004375,64.71923344535683
1371050943.75,1.0242950833333333,32.33625,79.08833328469333,2.717708333333334,64.69093092005136
1371050944.0,1.0250954166666666,32.33541666666667,78.99333333333333,3.5690625,64.6626283947459
1371050944.25,1.0266427083333334,32.334583333333335,78.89416671744,4.437552083333333,64.63432586944042
1371050944.5,1.0283500416666667,32.33375,78.795,5.05078125,64.60803119032525
1371050944.75,1.0303775000000002,32.33291666666667,78.69583328256,5.707213541666667,64.60650122085238
1371050945.0,1.0328317916666667,32.33208333333333,78.59666666666668,6.313125,64.60650122085238
1371050945.25,1.0352860833333335,32.331250000000004,78.49666671786667,7.020026041666667,64.60650122085238
1371050945.5,1.037740375,32.330416666666665,78.39666666666668,7.70171875,64.60987862816633
1371050945.75,1.0400345833333333,32.33,78.29666661546666,8.181197916666667,64.63786033677334
1371050946.0,1.0419019583333335,32.33,78.19666666666666,8.661822916666667,64.6661628620788
1371050946.25,1.0432891666666666,32.33,78.11666670762666,9.159114583333333,64.69446538738428
1371050946.5,1.0440895,32.33,78.03666666666666,9.438880208333332,64.72276791268976
1371050946.75,1.043609375,32.33,77.95666662570666,10.038411458333334,64.75107043799524
1371050947.0,1.0417953750000002,32.33,77.87666666666667,10.741614583333332,64.7793729633007
1371050947.25,1.0391276666666667,32.33,77.80916670122667,10.97875,64.80767548860618
1371050947.5,1.036033125,32.33,77.74166666666667,11.626302083333334,64.83597801391166
1371050947.75,1.0325651249999999,32.33,77.67416663210666,12.35015625,64.86428053921713
1371050948.0,1.0286169583333333,32.33,77.60666666666667,12.675026041666667,64.8925830645226
1371050948.25,1.0242953333333333,32.33,77.54750003029334,12.573567708333334,64.92088558982807
1371050948.5,1.0197069583333334,32.33,77.48833333333334,12.966796875,64.9458107078196
1371050948.75,1.0149585416666667,32.33,77.42916663637334,12.867890625000001,64.94613152451807
1371050949.0,1.0103701666666667,32.33,77.37,11.826380208333333,64.94613152451807
1371050949.25,1.0059951666666667,32.33,77.30583336618668,11.293880208333334,64.94613152451807
1371050949.5,1.0015667916666666,32.33,77.24166666666667,11.451328125000002,64.94613152451807
1371050949.75,0.9971384166666666,32.329166666666666,77.17749996714667,10.629661458333333,64.94613152451807
1371050950.0,0.9929235,32.3275,77.11333333333334,8.949427083333333,64.94613152451807
1371050950.25,0.9890287083333335,32.32583333333333,77.04666670080002,7.6977343750000005,64.94613152451807
1371050950.5,0.9854540416666667,32.32416666666666,76.98000000000002,6.124765625000001,64.94613152451807
1371050950.75,0.9819327083333333,32.3225,76.9133332992,4.11671875,64.94412367832776
1371050951.0,0.9785714166666666,32.32083333333333,76.84666666666668,2.7316406250000003,64.92806090880528
1371050951.25,0.9754235416666667,32.31916666666667,76.77583336960001,1.9353906250000001,64.9119981392828
1371050951.5,0.9722756666666666,32.3175,76.70500000000001,0.4572916666666668,64.89593536976032
1371050951.75,0.9692345000000001,32.31583333333334,76.6341666304,-0.5505468749999999,64.88388829261847
1371050952.0,0.9662467083333334,32.31416666666667,76.56333333333333,-0.4457552083333332,64.87083729238144
1371050952.25,0.9633122916666667,32.3125,76.49250003626666,-0.8507812499999999,64.86180198452504
1371050952.5,0.9607513333333334,32.310833333333335,76.42166666666665,-2.0910416666666665,64.86180198452504
1371050952.75,0.9585638333333333,32.30916666666667,76.35083329706666,-2.492578125,64.86180198452504
1371050953.0,0.9564296666666667,32.3075,76.27999999999999,-1.8153385416666667,64.86180198452506
1371050953.25,0.9542955416666666,32.30583333333333,76.21416670037333,-0.8546093749999999,64.86180198452504
1371050953.5,0.9522147916666666,32.30416666666667,76.14833333333333,-0.218984375,64.86180198452504
1371050953.75,0.9504007916666667,32.3025,76.08249996629333,0.5978385416666666,64.86380983071537
1371050954.0,0.9488002083333335,32.30083333333334,76.01666666666667,1.43359375,64.87987260023783
1371050954.25,0.9473063333333333,32.29916666666667,75.95916669610666,1.6207552083333334,64.89593536976031
1371050954.5,0.9460792083333334,32.2975,75.90166666666667,2.1188541666666665,64.9119981392828
1371050954.75,0.9450655,32.295833333333334,75.84416663722668,3.0985156249999997,64.92404521642466
1371050955.0,0.9442652083333333,32.29416666666666,75.78666666666668,3.616822916666667,64.93709621666167
1371050955.25,0.9436783333333333,32.2925,75.73416669354667,3.958984375,64.94512760142291
1371050955.5,0.9431448333333332,32.29083333333333,75.68166666666667,4.928515625,64.92064999979962
1371050955.75,0.9431982083333333,32.29083333333333,75.62916663978667,5.638619791666667,64.89234747449414
1371050956.0,0.944372,32.2925,75.57666666666667,5.490338541666667,64.86404494918867
1371050956.25,0.9465594999999999,32.29416666666666,75.52416669354668,4.842031250000001,64.8357424238832
1371050956.5,0.9489603750000001,32.29583333333333,75.47166666666666,5.12015625,64.80743989857773
1371050956.75,0.951414625,32.29666666666667,75.41916663978667,5.5917708333333325,64.77913737327225
1371050957.0,0.9539755833333333,32.29666666666667,75.36666666666667,5.511223958333333,64.75083484796677
1371050957.25,0.956589875,32.29666666666666,75.31250002773335,5.8823437499999995,64.72253232266131
1371050957.5,0.9592041666666665,32.29666666666667,75.25833333333335,6.4273437499999995,64.69422979735583
1371050957.75,0.9618184583333332,32.2975,75.20416663893334,6.248619791666667,64.66592727205035
1371050958.0,0.963739125,32.29916666666667,75.15000000000002,5.72390625,64.63762474674488
1371050958.25,0.9650195833333334,32.30083333333334,75.09666669397335,5.848072916666666,64.61032614453457
1371050958.5,0.9658198750000001,32.3025,75.04333333333335,5.93640625,64.60650122085238
1371050958.75,0.965446375,32.3025,74.98999997269335,5.657942708333333,64.60650122085238
1371050959.0,0.9633655833333333,32.30083333333334,74.93666666666668,6.069348958333333,64.60650122085238
1371050959.25,0.9598442500000001,32.29916666666667,74.88416669354667,7.1460937499999995,64.60650122085238
1371050959.5,0.95584275,32.2975,74.83166666666668,7.161119791666667,64.60650122085238
1371050959.75,0.9515211249999999,32.2975,74.77916663978668,6.5129166666666665,64.60650122085238
1371050960.0,0.9469327499999999,32.299166666666665,74.72666666666667,6.8508072916666665,64.60650122085238
1371050960.25,0.9421843333333334,32.30083333333334,74.67666669226668,7.478255208333334,64.60650122085238
1371050960.5,0.9372758333333334,32.3025,74.62666666666667,7.216276041666667,64.60650122085238
1371050960.75,0.9321539166666667,32.3025,74.57666664106667,7.212552083333333,64.60650122085238
1371050961.0,0.9275655833333333,32.30083333333334,74.52666666666667,8.280052083333334,64.60650122085238
1371050961.25,0.9235640833333333,32.299166666666665,74.4808333568,8.505703125,64.60650122085238
1371050961.5,0.9198826666666666,32.2975,74.435,8.009713541666667,64.60650122085238
1371050961.75,0.916628125,32.29666666666666,74.3891666432,8.649244791666668,64.60650122085238
1371050962.0,0.9140138333333333,32.29666666666667,74.34333333333333,9.173932291666667,64.60650122085238
1371050962.25,0.9119864166666667,32.29666666666667,74.301666688,8.608359375000001,64.60650122085238
1371050962.5,0.91022575,32.29666666666667,74.25999999999999,8.995833333333334,64.60650122085238
1371050962.75,0.9087318333333334,32.295833333333334,74.218333312,10.346197916666666,64.60650122085238
1371050963.0,0.9073979583333335,32.29416666666666,74.17666666666666,10.480234375,64.60650122085238
1371050963.25,0.9060640833333333,32.2925,74.13833335295999,10.12234375,64.60650122085238
1371050963.5,0.9047835833333333,32.29083333333333,74.1,10.995651041666667,64.60650122085238
1371050963.75,0.9036097916666667,32.29,74.06166664704,11.683437500000002,64.60650122085238
1371050964.0,0.9024893333333334,32.29,74.02333333333333,11.15875,64.60650122085238
1371050964.25,0.901102125,32.29,73.98750001834667,11.621250000000002,64.60650122085238
1371050964.5,0.8995548750000001,32.29,73.95166666666665,12.575494791666666,64.60650122085238
1371050964.75,0.8979009166666666,32.29,73.91583331498666,12.12734375,64.60650122085238
1371050965.0,0.8959268333333332,32.29,73.88,12.017864583333335,64.60650122085238
1371050965.25,0.8937393333333333,32.29,73.84916668245333,13.001614583333335,64.60650122085238
1371050965.5,0.8914985,32.29,73.81833333333334,12.734114583333335,64.60650122085238
1371050965.75,0.8891509583333334,32.28916666666667,73.78749998421334,11.681875,64.60650122085238
1371050966.0,0.8866433749999999,32.2875,73.75666666666667,11.908098958333333,64.60650122085238
1371050966.25,0.8841357916666666,32.285833333333336,73.73000001365334,11.888151041666667,64.60650122085238
1371050966.5,0.8817349166666667,32.284166666666664,73.70333333333335,10.605807291666666,64.60650122085238
1371050966.75,0.8793340416666666,32.282500000000006,73.67666665301334,10.032161458333333,64.60650122085238
1371050967.0,0.87671975,32.280833333333334,73.65,10.337213541666666,64.60650122085238
1371050967.25,0.8741587916666668,32.27916666666667,73.62333334698667,9.307473958333334,64.60650122085238
1371050967.5,0.8718645833333333,32.2775,73.59666666666666,8.392630208333333,64.60650122085238
1371050967.75,0.8698371250000001,32.27583333333333,73.56999998634667,8.714062499999999,64.60650122085238
1371050968.0,0.8680764166666667,32.274166666666666,73.54333333333334,8.040833333333333,64.60650122085238
1371050968.25,0.8663157083333334,32.2725,73.5141666816,6.762057291666667,64.60650122085238
1371050968.5,0.8645016666666666,32.270833333333336,73.48500000000001,6.929479166666667,64.60650122085238
1371050968.75,0.8626876666666666,32.27,73.45583331840001,7.28609375,64.60650122085238
1371050969.0,0.8609803333333333,32.27,73.42666666666668,6.345286458333334,64.60650122085238
1371050969.25,0.8592729583333334,32.27,73.39500001621334,6.226380208333333,64.60650122085238
1371050969.5,0.857458875,32.27,73.36333333333334,7.086927083333333,64.60650122085238
1371050969.75,0.8556981666666666,32.27,73.33166665045333,6.887369791666667,64.60650122085238
1371050970.0,0.8540442083333333,32.27,73.3,6.416927083333333,64.60650122085238
1371050970.25,0.8524970000000001,32.27,73.26666668373333,7.272265625,64.60650122085238
1371050970.5,0.8508430833333334,32.27,73.23333333333333,7.7206770833333325,64.60650122085238
1371050970.75,0.8490290833333333,32.270833333333336,73.19999998293333,7.221276041666667,64.60650122085238
1371050971.0,0.8473217916666668,32.2725,73.16666666666667,7.881406249999999,64.60650122085238
1371050971.25,0.8457212083333334,32.274166666666666,73.12333335552,8.492578125,64.60650122085238
1371050971.5,0.8442806666666667,32.27583333333334,73.08,7.742682291666667,64.60650122085238
1371050971.75,0.8430001666666667,32.277499999999996,73.03666664448,7.6304687499999995,64.60650122085238
1371050972.0,0.84187975,32.27916666666667,72.99333333333333,8.116666666666667,64.60650122085238
1371050972.25,0.841026125,32.28083333333334,72.94333335893333,7.229427083333333,64.60650122085238
1371050972.5,0.8402792083333334,32.2825,72.89333333333333,6.005885416666666,64.58771238559225
1371050972.75,0.8398524166666667,32.28416666666667,72.84333330773333,6.281901041666667,64.52474460519558
1371050973.0,0.8407594166666668,32.28583333333333,72.79333333333334,6.126640625,64.43666703570726
1371050973.25,0.8440139166666666,32.2875,72.73833336149333,5.123125,64.36196319227922
1371050973.5,0.8502028749999999,32.28916666666667,72.68333333333334,5.284921875,64.25974562519333
1371050973.75,0.8600199166666668,32.28916666666667,72.62833330517334,5.668307291666667,64.19761151721595
1371050974.0,0.8732515833333333,32.2875,72.57333333333334,4.16125,64.160560933506
1371050974.25,0.8900045833333333,32.285833333333336,72.52333335893334,3.5396354166666666,64.14427237277106
1371050974.5,0.9102789166666666,32.284166666666664,72.47333333333333,4.64671875,64.16337585103186
1371050974.75,0.9334876666666667,32.28166666666667,72.42333330773333,5.396354166666668,64.19223767833374
1371050975.0,0.9596842083333333,32.278333333333336,72.37333333333333,5.9719010416666665,64.22679062230542
1371050975.25,0.9870545416666667,32.275,72.32833335637334,7.4062760416666675,64.26134356627706
1371050975.5,1.0149050416666667,32.27166666666667,72.28333333333333,8.377135416666667,64.30923506882509
1371050975.75,1.04339575,32.26833333333334,72.23833331029334,7.418567708333334,64.40635121343881
1371050976.0,1.0717264166666667,32.26500000000001,72.19333333333334,6.0019791666666675,64.52056172071583
1371050976.25,1.098243125,32.26166666666667,72.151666688,5.351927083333334,64.61838062938877
1371050976.5,1.1221455,32.25833333333333,72.11000000000001,3.910286458333333,64.75322046087307
1371050976.75,1.1426332083333335,32.255,72.06833331200001,3.7286197916666666,64.83614632677286
1371050977.0,1.1605065833333335,32.251666666666665,72.02666666666667,5.116744791666666,64.91375245695023
1371050977.25,1.177953125,32.248333333333335,71.98416668842667,5.2821875,64.9730365124323
1371050977.5,1.1943859583333334,32.245,71.94166666666666,2.8098437499999993,64.99152994219081
1371050977.75,1.2092715833333332,32.2425,71.89916664490667,0.10315104166666655,65.00142442747814
1371050978.0,1.2244773333333334,32.240833333333335,71.85666666666667,-1.1727083333333335,64.98128126040541
1371050978.25,1.2442714583333334,32.23916666666666,71.81416668842667,-1.1372395833333335,64.95703732559014
1371050978.5,1.269561,32.2375,71.77166666666668,0.3647656249999997,64.94700105091202
1371050978.75,1.29901625,32.235833333333325,71.72916664490667,2.890989583333333,64.93336654964413
1371050979.0,1.3314100416666668,32.23416666666666,71.68666666666667,6.148723958333334,64.93136095861148
1371050979.25,1.3652977083333333,32.232499999999995,71.6408333568,7.629713541666667,64.93919188700875
1371050979.5,1.3991854166666666,32.23083333333333,71.595,7.424192708333333,64.94144391445974
1371050979.75,1.4330197916666665,32.23,71.5491666432,5.680572916666666,64.95728811333232
1371050980.0,1.466053875,32.23,71.50333333333333,4.068802083333333,64.95028492031331
1371050980.25,1.4961001666666665,32.23,71.461666688,3.090234374999999,64.94003979937888
1371050980.5,1.5236388333333333,32.23,71.41999999999999,3.7288020833333326,64.93078413404332
1371050980.75,1.5497902916666668,32.23,71.378333312,4.469583333333333,64.91150052275091
1371050981.0,1.5710332083333334,32.23,71.33666666666666,3.6081249999999994,64.92875463354724
1371050981.25,1.58459325,32.23,71.29333335551999,1.2540104166666661,64.95731214096013
1371050981.5,1.592177708333333,32.23,71.25,-2.044505208333334,64.97222387340697
1371050981.75,1.5946894583333335,32.23,71.20666664448001,-5.3671875,64.98761122019428
1371050982.0,1.593302291666667,32.23,71.16333333333334,-8.380208333333334,64.98295657473503
1371050982.25,1.59004775,32.23,71.12416668672,-9.707786458333333,64.9693956203881
1371050982.5,1.5866331250000003,32.23,71.08500000000001,-9.264375,64.95190636783393
1371050982.75,1.5836453333333333,32.23,71.04583331328,-8.240234375,64.93265545033417
1371050983.0,1.5860995833333333,32.23,71.00666666666666,-7.314895833333334,64.916488136181
1371050983.25,1.5973571666666668,32.23,70.97000001877333,-6.3211458333333335,64.90112280166356
1371050983.5,1.6169378749999999,32.23,70.93333333333334,-5.2488020833333335,64.89016659827502
1371050983.75,1.6418539166666666,32.23083333333333,70.89666664789333,-4.1089843749999995,64.88807893627346
1371050984.0,1.6708782083333336,32.232499999999995,70.86,-2.654609375,64.87380008787342
1371050984.25,1.7029519166666667,32.23416666666666,70.83083334826667,-0.861979166666667,64.8523186105994
1371050984.5,1.7350256250000002,32.23583333333333,70.80166666666666,0.8379427083333332,64.83572552483801
1371050984.75,1.7670993333333334,32.2375,70.77249998506666,2.4772916666666664,64.81720935439677
1371050985.0,1.7991730416666665,32.23916666666667,70.74333333333333,4.0936458333333325,64.81512169239521
1371050985.25,1.83124675,32.240833333333335,70.72500000938666,5.197708333333333,64.81512169239521
1371050985.5,1.8633204583333336,32.2425,70.70666666666666,6.042708333333334,64.81512169239521
1371050985.75,1.893695125,32.244166666666665,70.68833332394667,6.727005208333334,64.81512169239521
1371050986.0,1.9159067500000002,32.24583333333333,70.67,7.172473958333334,64.82819213247276
1371050986.25,1.9264873333333334,32.247499999999995,70.66166667093333,7.537473958333334,64.8498349693728
1371050986.5,1.9255969166666669,32.24916666666667,70.65333333333334,7.660494791666667,64.87472126363843
1371050986.75,1.9193711666666669,32.25083333333333,70.64499999573334,7.811979166666667,64.90505087499601
1371050987.0,1.9106377916666668,32.252500000000005,70.63666666666667,8.076640625000001,64.92553973405906
1371050987.25,1.900669,32.25416666666667,70.63500000085334,7.909218750000001,64.93292101986997
1371050987.5,1.8907002083333335,32.255833333333335,70.63333333333333,7.777604166666667,64.94928731647927
1371050987.75,1.8807314166666667,32.25666666666667,70.63166666581333,7.725104166666667,64.95690890160901
1371050988.0,1.870976041666667,32.25666666666667,70.63,7.4363802083333335,64.95690890160901
1371050988.25,1.8643685416666667,32.25666666666667,70.64166666069333,7.314609375,64.95690890160901
1371050988.5,1.860375333333333,32.25666666666667,70.65333333333334,7.346276041666666,64.95690890160901
1371050988.75,1.8577610416666666,32.25666666666667,70.66500000597333,7.321276041666667,64.96236594265996
1371050989.0,1.8578677499999998,32.25666666666667,70.67666666666666,7.134817708333333,64.96486068078154
1371050989.25,1.8608021666666665,32.25666666666667,70.69749998933332,6.836614583333333,64.96118786547828
1371050989.5,1.866884458333333,32.25666666666667,70.71833333333333,6.979062499999999,64.9542715928094
1371050989.75,1.8729667499999998,32.255833333333335,70.73916667733333,6.615234375,64.9419120030486
1371050990.0,1.8790490416666665,32.25416666666667,70.75999999999999,6.127135416666667,64.94099308224246
1371050990.25,1.8828371666666666,32.252500000000005,70.78916665173332,6.3203125,64.95958140132898
1371050990.5,1.88481125,32.25083333333334,70.81833333333333,6.086744791666667,64.97398445959749
1371050990.75,1.88571825,32.25083333333333,70.84750001493333,6.074999999999999,64.99713222934557
1371050991.0,1.8848645833333333,32.2525,70.87666666666667,6.233463541666667,65.02790158422339
1371050991.25,1.8793691666666668,32.25416666666667,70.90249998677334,5.896770833333334,65.0586709391012
1371050991.5,1.8701924166666668,32.255833333333335,70.92833333333334,5.923984375,65.08944029397902
1371050991.75,1.8596284583333336,32.25833333333333,70.95416667989333,6.0394531250000005,65.1147526078059
1371050992.0,1.84751725,32.26166666666666,70.98,6.000911458333334,65.12995678448458
1371050992.25,1.834285625,32.265,71.00499998720001,6.633463541666667,65.14275611776564
1371050992.5,1.82004025,32.26833333333333,71.03,6.6653125000000015,65.15555545104668
1371050992.75,1.8044610416666667,32.27166666666667,71.0550000128,6.984322916666667,65.16835478432775
1371050993.0,1.7881349166666667,32.275,71.08,7.742005208333333,65.17955420094866
1371050993.25,1.7729291666666667,32.27833333333333,71.11083331754666,8.000885416666668,65.18435395092905
1371050993.5,1.7583103333333332,32.281666666666666,71.14166666666667,8.635885416666666,65.18435395092905
1371050993.75,1.7443317499999997,32.284166666666664,71.17250001578667,9.020963541666667,65.18435395092905
1371050994.0,1.730940041666667,32.285833333333336,71.20333333333333,9.40234375,65.18435395092905
1371050994.25,1.7181885416666667,32.2875,71.24249997994667,10.216067708333334,65.18435395092905
1371050994.5,1.7063973749999999,32.28916666666667,71.28166666666667,10.377604166666666,65.18435395092905
1371050994.75,1.69551325,32.29,71.32083335338666,10.812552083333335,65.18435395092905
1371050995.0,1.6858029166666666,32.29,71.36,11.507656250000002,65.18435395092905
1371050995.25,1.6771062916666668,32.29,71.40499997696,11.008776041666666,65.17467331179593
1371050995.5,1.6690499166666666,32.29,71.44999999999999,11.152005208333334,65.1649926726628
1371050995.75,1.6619539166666666,32.28916666666667,71.49500002303999,11.590052083333333,65.15091174301462
1371050996.0,1.6553914166666666,32.2875,71.53999999999999,11.021614583333331,65.13683081336644
1371050996.25,1.6497892916666668,32.285833333333336,71.58333331114666,10.616249999999999,65.14097059846047
1371050996.5,1.6453075833333333,32.284166666666664,71.62666666666667,10.535390625,65.14687049976052
1371050996.75,1.6412527083333333,32.28333333333334,71.67000002218666,10.101770833333333,65.13806991873041
1371050997.0,1.6381582083333335,32.28333333333334,71.71333333333332,9.499374999999999,65.12398898908224
1371050997.25,1.635917375,32.28333333333333,71.75749997738666,9.159973958333333,65.10990805943403
1371050997.5,1.6337832499999998,32.28333333333334,71.80166666666666,8.749505208333334,65.09582712978586
1371050997.75,1.6319692083333333,32.28333333333333,71.84583335594667,7.9125000000000005,65.0835063163437
1371050998.0,1.6305820000000002,32.28333333333333,71.89,7.3257812499999995,65.06942538669553
1371050998.25,1.6293015000000002,32.28333333333334,71.93833330858666,7.190078124999999,65.06502509618046
1371050998.5,1.6283411249999997,32.28333333333333,71.98666666666666,6.504270833333333,65.0606248056654
1371050998.75,1.6277542083333334,32.28416666666667,72.03500002474667,5.848958333333333,65.06062480566541
1371050999.0,1.6273807083333331,32.285833333333336,72.08333333333333,5.672291666666666,65.06062480566541
1371050999.25,1.6272206249999999,32.2875,72.13416664064,5.179557291666667,65.0424040909232
1371050999.5,1.6269538333333333,32.28916666666667,72.185,4.664010416666667,65.02242325997496
1371050999.75,1.6261535416666666,32.29,72.23583335936,4.621380208333333,65.01453859046984
1371051000.0,1.6249264583333334,32.29,72.28666666666668,4.273463541666667,65.00964788405315
1371051000.25,1.623325875,32.29,72.32749997909335,3.9750260416666667,65.00644256603832
1371051000.5,1.6209249583333334,32.29,72.36833333333334,4.203411458333333,65.00323724802348
1371051000.75,1.618043875,32.29,72.40916668757333,4.206302083333333,64.99827181380262
1371051001.0,1.61462925,32.29,72.45,4.3210677083333335,64.99759038512764
1371051001.25,1.6106810833333334,32.29,72.47666665301334,4.75875,64.99887198149476
1371051001.5,1.6067862916666666,32.29,72.50333333333333,4.896484375,65.0001535778619
1371051001.75,1.6028915,32.28916666666667,72.53000001365334,4.903411458333333,65.00143517422903
1371051002.0,1.5989967083333336,32.2875,72.55666666666667,5.632760416666667,65.0167119205386
1371051002.25,1.5951019166666667,32.285833333333336,72.57083332608,6.426432291666667,65.02599074544428
1371051002.5,1.5914205416666667,32.284166666666664,72.58500000000001,6.615859374999999,65.03566860906231
1371051002.75,1.5889662500000001,32.282500000000006,72.59916667392,7.241744791666666,65.06113552536688
1371051003.0,1.5893930416666666,32.280833333333334,72.61333333333333,8.129895833333334,65.08968690462582
1371051003.25,1.5948884583333334,32.27916666666667,72.63249999018666,8.218723958333333,65.11655289548293
1371051003.5,1.6078000416666667,32.2775,72.65166666666667,8.558645833333333,65.14341888634003
1371051003.75,1.627167375,32.27666666666667,72.67083334314667,9.144348958333333,65.17028487719712
1371051004.0,1.6516566250000002,32.276666666666664,72.69,8.818645833333333,65.19462697871437
1371051004.25,1.6783867499999998,32.27666666666667,72.7149999872,8.699348958333333,65.21700605518951
1371051004.5,1.705116875,32.276666666666664,72.74000000000001,9.331822916666667,65.23798643938494
1371051004.75,1.7318470000000001,32.2775,72.7650000128,9.353515625000002,65.25896682358038
1371051005.0,1.7585771249999997,32.27916666666667,72.79,8.252682291666666,65.26035728871459
1371051005.25,1.78530725,32.280833333333334,72.82083331754667,7.9082291666666675,65.27473913665119
1371051005.5,1.812037375,32.282500000000006,72.85166666666667,8.003046875,65.28872194587541
1371051005.75,1.8360998333333336,32.285000000000004,72.88250001578668,6.986276041666667,65.28952002330017
1371051006.0,1.8546135000000001,32.288333333333334,72.91333333333334,6.445260416666667,65.28952002330017
1371051006.25,1.8658177083333332,32.291666666666664,72.93583332181333,6.428359374999999,65.28952002330017
1371051006.5,1.868752125,32.295,72.95833333333334,5.4203125000000005,65.28672263874077
1371051006.75,1.8640036666666668,32.29666666666666,72.98083334485334,4.769479166666667,65.28672263874078
1371051007.0,1.8529594999999999,32.29666666666667,73.00333333333333,5.038749999999999,65.28672263874077
1371051007.25,1.8402080000000003,32.29666666666667,73.01999999146666,4.398098958333334,65.28672263874077
1371051007.5,1.8274565,32.29666666666667,73.03666666666666,3.510833333333333,65.28812133102048
1371051007.75,1.814705,32.29666666666667,73.05333334186666,3.668645833333333,65.28952002330017
1371051008.0,1.8019535,32.29666666666666,73.07,4.240520833333333,65.29651348469865
1371051008.25,1.7892020000000002,32.29666666666667,73.08333332650666,3.9561718749999994,65.29651348469864
1371051008.5,1.7770907500000002,32.29666666666667,73.09666666666666,3.7918229166666664,65.29651348469865
1371051008.75,1.77180875,32.29583333333333,73.11000000682667,4.2843229166666665,65.29511479241894
1371051009.0,1.77799775,32.29416666666666,73.12333333333333,3.9769531249999996,65.29511479241896
1371051009.25,1.795871166666667,32.2925,73.13833332565333,3.959661458333333,65.29511479241894
1371051009.5,1.8224412083333335,32.29083333333333,73.15333333333334,4.659739583333333,65.29791217697834
1371051009.75,1.8536530000000002,32.29,73.16833334101334,4.695911458333334,65.29791217697833
1371051010.0,1.8865187500000002,32.29,73.18333333333334,4.534869791666667,65.29791217697834
1371051010.25,1.9193844999999998,32.29,73.20249999018667,5.33640625,65.29791217697834
1371051010.5,1.9522502499999999,32.29,73.22166666666666,5.7257291666666665,65.29791217697833
1371051010.75,1.9851159999999999,32.29,73.24083334314668,5.472708333333333,65.29791217697834
1371051011.0,2.01798175,32.29,73.26,5.794401041666666,65.29791217697834
1371051011.25,2.0494069166666664,32.29,73.28499998720001,6.326901041666667,65.29791217697834
1371051011.5,2.0770439583333333,32.29,73.31,6.189270833333333,65.29791217697834
1371051011.75,2.0966246666666666,32.29,73.3350000128,6.32828125,65.29931086925804
1371051012.0,2.105001166666667,32.29,73.36,7.1063020833333335,65.29931086925804
1371051012.25,2.1018532916666666,32.29,73.39083331754667,7.026432291666667,65.29931086925804
1371051012.5,2.0898487083333332,32.29,73.42166666666667,6.913177083333334,65.29931086925804
1371051012.75,2.0737892916666665,32.28916666666667,73.45250001578667,7.6066666666666665,65.29931086925804
1371051013.0,2.0563960416666665,32.2875,73.48333333333333,7.665286458333334,65.29931086925804
1371051013.25,2.0378823333333336,32.285833333333336,73.51249998506667,7.166171875,65.29931086925804
1371051013.5,2.018408291666667,32.284166666666664,73.54166666666667,7.56765625,65.29931086925804
1371051013.75,1.9979739166666668,32.282500000000006,73.57083334826667,7.777942708333334,65.29931086925804
1371051014.0,1.9768459166666668,32.280833333333334,73.60000000000001,7.1390625000000005,65.29931086925804
1371051014.25,1.956731666666667,32.27916666666667,73.62499998720001,7.002395833333334,65.29931086925804
1371051014.5,1.9394985416666666,32.2775,73.65,7.405364583333334,65.29931086925804
1371051014.75,1.9249864166666668,32.276666666666664,73.6750000128,6.963151041666666,65.29931086925804
1371051015.0,1.9129285416666668,32.276666666666664,73.7,6.434036458333332,65.29931086925804
1371051015.25,1.9030048333333334,32.27666666666667,73.72166665557334,6.881666666666667,65.29931086925804
1371051015.5,1.8944683333333332,32.276666666666664,73.74333333333334,6.792161458333333,65.29931086925804
1371051015.75,1.8868921666666667,32.2775,73.76500001109333,6.169765625,65.29931086925804
1371051016.0,1.8803297083333332,32.27916666666667,73.78666666666668,6.614739583333333,65.29931086925804
1371051016.25,1.8740340416666665,32.280833333333334,73.80999998805333,7.057942708333333,65.29931086925804
1371051016.5,1.8681117916666665,32.282500000000006,73.83333333333334,6.500286458333334,65.29931086925804
1371051016.75,1.862989791666667,32.28333333333333,73.85666667861334,6.826666666666667,65.29931086925804
1371051017.0,1.85808125,32.28333333333334,73.88,7.558125,65.29931086925804
1371051017.25,1.8531193749999997,32.28333333333333,73.9049999872,7.242291666666667,65.29931086925804
1371051017.5,1.8483175416666668,32.28333333333333,73.93,7.157421875,65.29931086925804
1371051017.75,1.8438891666666668,32.282500000000006,73.9550000128,8.000286458333333,65.29931086925804
1371051018.0,1.8394607916666665,32.280833333333334,73.98,8.208463541666667,65.28812133102046
1371051018.25,1.8350857916666665,32.27916666666667,74.00416665429334,7.970598958333333,65.28812133102046
1371051018.5,1.830390666666667,32.2775,74.02833333333334,8.682994791666667,65.28812133102046
1371051018.75,1.8243083333333334,32.27583333333333,74.05250001237333,9.20328125,65.281127869622
1371051019.0,1.8174790416666669,32.274166666666666,74.07666666666667,8.314348958333333,65.2513600156381
1371051019.25,1.8103296666666668,32.2725,74.09916665514667,7.863072916666667,65.20479052418867
1371051019.5,1.8027001666666667,32.270833333333336,74.12166666666667,8.077890625,65.1372894515453
1371051019.75,1.7950173333333332,32.26916666666667,74.14416667818666,6.945078124999999,65.06081974671376
1371051020.0,1.7878146666666668,32.267500000000005,74.16666666666667,5.720651041666667,64.98851111012681
1371051020.25,1.781092166666667,32.26583333333334,74.18749998933333,5.671822916666667,64.92375695514154
1371051020.5,1.7744763749999999,32.264166666666675,74.20833333333334,5.238489583333333,64.86086090373834
1371051020.75,1.7679672916666664,32.2625,74.22916667733334,4.4533072916666665,64.79796485233516
1371051021.0,1.7618316666666667,32.26083333333334,74.25,4.933333333333333,64.74625833916953
1371051021.25,1.7559627916666667,32.259166666666665,74.26916665685333,4.89953125,64.68336228776633
1371051021.5,1.7511076250000002,32.2575,74.28833333333333,4.3790625,64.62046623636313
1371051021.75,1.7480665000000002,32.255833333333335,74.30750000981334,4.86546875,64.56456364635842
1371051022.0,1.7460924583333333,32.25416666666667,74.32666666666667,6.224322916666666,64.53143544893912
1371051022.25,1.7452921666666665,32.252500000000005,74.34499999061333,7.37953125,64.51510888898535
1371051022.5,1.745558916666667,32.25083333333334,74.36333333333334,8.702708333333334,64.51971391022552
1371051022.75,1.7460390833333335,32.25,74.38166667605334,10.764140625000001,64.53328756365387
1371051023.0,1.7465192500000002,32.25,74.4,12.957786458333333,64.54270014883762
1371051023.25,1.746732625,32.25,74.41666665813334,14.980494791666665,64.5445582524197
1371051023.5,1.74667925,32.25,74.43333333333334,16.778723958333334,64.5445582524197
1371051023.75,1.7463057500000003,32.24833333333333,74.45000000853334,17.959348958333333,64.5445582524197
1371051024.0,1.7456654583333335,32.245,74.46666666666667,18.334817708333336,64.5445582524197
1371051024.25,1.7445450000000002,32.24166666666667,74.48499999061333,19.10109375,64.5445582524197
1371051024.5,1.742464208333333,32.23833333333334,74.50333333333333,19.350052083333335,64.5445582524197
1371051024.75,1.7397965416666665,32.235,74.52166667605334,19.073697916666667,64.5445582524197
1371051025.0,1.736542,32.23166666666666,74.54,18.878828125000002,64.5445582524197
1371051025.25,1.7328072500000002,32.22833333333333,74.56083332266667,18.077473958333332,64.5445582524197
1371051025.5,1.7289124166666665,32.225,74.58166666666668,17.033020833333335,64.5445582524197
1371051025.75,1.7246974583333332,32.221666666666664,74.60250001066667,16.29716145833333,64.5445582524197
1371051026.0,1.7200023333333334,32.218333333333334,74.62333333333333,14.929635416666668,64.5445582524197
1371051026.25,1.7150938333333334,32.214999999999996,74.64583332181333,13.100286458333334,64.5445582524197
1371051026.5,1.7101319583333334,32.211666666666666,74.66833333333332,11.958072916666667,64.5445582524197
1371051026.75,1.7052234583333332,32.20791666666667,74.69083334485333,10.998359375000001,64.5445582524197
1371051027.0,1.7003683333333333,32.20375,74.71333333333332,9.900416666666667,64.5445582524197
1371051027.25,1.695619875,32.19958333333333,74.73499998890667,9.168932291666666,64.5445582524197
1371051027.5,1.691191541666667,32.19541666666667,74.75666666666666,8.695338541666667,64.5445582524197
1371051027.75,1.6870833333333335,32.19125,74.77833334442666,7.964609375000001,64.5445582524197
1371051028.0,1.683508625,32.187083333333334,74.8,7.285963541666667,64.5445582524197
1371051028.25,1.68036075,32.182916666666664,74.82083332266666,6.973437499999999,64.5445582524197
1371051028.5,1.6773196250000002,32.17875,74.84166666666667,6.37546875,64.5445582524197
1371051028.75,1.6744919166666667,32.17458333333334,74.86250001066666,5.741953124999999,64.5445582524197
1371051029.0,1.672091,32.17041666666666,74.88333333333333,5.697734375,64.5445582524197
1371051029.25,1.6701169166666665,32.16625,74.90249999018666,5.4406510416666665,64.5445582524197
1371051029.5,1.6683562499999998,32.16208333333333,74.92166666666665,4.9075,64.5445582524197
1371051029.75,1.6667556250000002,32.15958333333333,74.94083334314666,4.911744791666667,64.5445582524197
1371051030.0,1.66488825,32.15875,74.96,4.70484375,64.5445582524197
1371051030.25,1.6629141666666667,32.157916666666665,74.97833332394666,4.343333333333333,64.5445582524197
1371051030.5,1.6612601666666666,32.15708333333333,74.99666666666666,4.708541666666666,64.5445582524197
1371051030.75,1.6596061666666666,32.15625,75.01500000938665,4.671197916666666,64.5445582524197
1371051031.0,1.6576320833333333,32.15541666666666,75.03333333333332,4.3425520833333335,64.5445582524197
1371051031.25,1.6553379166666666,32.15458333333333,75.04833332565333,4.79921875,64.5445582524197
1371051031.5,1.65304375,32.153749999999995,75.06333333333333,5.233932291666666,64.5445582524197
1371051031.75,1.6503760833333334,32.15291666666666,75.07833334101333,4.901302083333333,64.5445582524197
1371051032.0,1.6472282499999997,32.15208333333333,75.09333333333335,4.851354166666667,64.5445582524197
1371051032.25,1.643867,32.15125,75.10583332693335,5.537708333333334,64.5445582524197
1371051032.5,1.6403456666666667,32.150416666666665,75.11833333333334,5.615390625,64.5445582524197
1371051032.75,1.6367709583333332,32.15,75.13083333973333,5.310390624999999,64.5445582524197
1371051033.0,1.6335697083333331,32.15,75.14333333333333,5.968307291666666,64.5445582524197
1371051033.25,1.6306352916666667,32.15,75.15333332821334,6.446770833333333,64.5445582524197
1371051033.5,1.6274875,32.15,75.16333333333333,5.867630208333334,64.5445582524197
1371051033.75,1.6238595,32.15,75.17333333845333,6.076875,64.5445582524197
1371051034.0,1.6200714166666668,32.15,75.18333333333334,6.518958333333333,64.5445582524197
1371051034.25,1.6164967083333333,32.15,75.18916666368,5.9288541666666665,64.5445582524197
1371051034.5,1.6127619166666667,32.15,75.195,5.451614583333332,64.5445582524197
1371051034.75,1.6093472916666665,32.15,75.20083333632,5.940520833333333,64.5445582524197
1371051035.0,1.6060393750000002,32.15,75.20666666666666,5.897291666666667,64.5445582524197
1371051035.25,1.6026247083333336,32.15,75.20999999829333,5.048567708333334,64.5445582524197
1371051035.5,1.5992634166666668,32.15,75.21333333333334,5.035234375,64.5445582524197
1371051035.75,1.5955820416666666,32.15,75.21666666837334,5.4233593749999995,64.5445582524197
1371051036.0,1.591687291666667,32.15,75.22,4.868203125,64.5445582524197
1371051036.25,1.587685791666667,32.15,75.22,4.315598958333333,64.5445582524197
1371051036.5,1.5836309166666664,32.15,75.22,4.691770833333333,64.5445582524197
1371051036.75,1.5797894583333332,32.149166666666666,75.22,4.771145833333334,64.5445582524197
1371051037.0,1.57621475,32.1475,75.22,4.3703385416666665,64.5445582524197
1371051037.25,1.5726400833333332,32.145833333333336,75.21833333418667,4.825677083333333,64.5445582524197
1371051037.5,1.5689587083333334,32.14416666666666,75.21666666666667,5.583750000000001,64.5445582524197
1371051037.75,1.5652239583333334,32.1425,75.21499999914666,5.367526041666667,64.5445582524197
1371051038.0,1.561756,32.14083333333334,75.21333333333332,5.618124999999999,64.5445582524197
1371051038.25,1.5582880416666667,32.13916666666667,75.20750000298666,6.695755208333334,64.5445582524197
1371051038.5,1.5547667083333332,32.1375,75.20166666666667,7.010000000000001,64.5445582524197
1371051038.75,1.5515655,32.13583333333333,75.19583333034667,6.907708333333333,64.5445582524197
1371051039.0,1.548471,32.134166666666665,75.19000000000001,7.764114583333334,64.5445582524197
1371051039.25,1.545429875,32.1325,75.18250000384,8.65984375,64.5445582524197
1371051039.5,1.5424420833333334,32.130833333333335,75.17500000000001,8.596328125000001,64.5445582524197
1371051039.75,1.5397210416666667,32.13,75.16749999616002,8.7525,64.5445582524197
1371051040.0,1.5372667916666665,32.13,75.16000000000001,9.625052083333333,64.5445582524197
1371051040.25,1.53491925,32.13,75.15000000512,9.500781250000001,64.54548495163178
1371051040.5,1.5328385000000002,32.13,75.14000000000001,9.048958333333333,64.55753204138873
1371051040.75,1.5309177916666667,32.13,75.12999999488001,9.638567708333333,64.57050583035773
1371051041.0,1.5290504166666665,32.13,75.12,9.554635416666668,64.5853330177509
1371051041.25,1.5275032083333333,32.13,75.11000000512,8.631822916666666,64.60016020514406
1371051041.5,1.5262227916666669,32.13,75.1,8.607838541666666,64.61498739253722
1371051041.75,1.525102416666667,32.13,75.08999999488,8.762578125,64.62981457993037
1371051042.0,1.5239820000000002,32.13,75.08,7.867395833333333,64.64464176732353
1371051042.25,1.5227548333333332,32.13,75.0675000064,7.132083333333334,64.6594689547167
1371051042.5,1.5215276666666666,32.13,75.055,7.345729166666666,64.67429614210987
1371051042.75,1.5200337500000003,32.13,75.0424999936,7.018072916666667,64.68912332950302
1371051043.0,1.5182730833333336,32.13,75.03,6.10640625,64.70395051689617
1371051043.25,1.5164057083333333,32.13,75.0175000064,6.103072916666666,64.71785100507726
1371051043.5,1.51437825,32.13,75.005,6.149140625,64.72063110271348
1371051043.75,1.5121374166666666,32.13,74.9924999936,5.339765624999999,64.72248450113763
1371051044.0,1.5096298333333333,32.13,74.98,5.19328125,64.72248450113763
1371051044.25,1.5068554583333331,32.13,74.96666667349334,5.581666666666666,64.72248450113763
1371051044.5,1.5038676666666666,32.13,74.95333333333335,5.126536458333333,64.72248450113763
1371051044.75,1.5006664583333331,32.12916666666667,74.93999999317334,4.674713541666667,64.72248450113763
1371051045.0,1.497411875,32.127500000000005,74.92666666666668,5.095260416666666,64.72248450113763
1371051045.25,1.4942106666666668,32.12583333333333,74.90500001109334,5.140026041666666,64.72248450113763
1371051045.5,1.4909027916666668,32.12416666666667,74.88333333333334,4.4383333333333335,64.72248450113763
1371051045.75,1.4875949166666667,32.123333333333335,74.86166665557334,4.392708333333333,64.71877770428934
1371051046.0,1.4845537916666667,32.123333333333335,74.84,4.843619791666667,64.70765731374446
1371051046.25,1.4816727083333336,32.123333333333335,74.81000001536,4.4698697916666665,64.69931702083582
1371051046.5,1.4788983333333334,32.123333333333335,74.78,4.261354166666667,64.69283012635131
1371051046.75,1.4762757083333333,32.123333333333335,74.74999998464,4.808098958333333,64.67800293895816
1371051047.0,1.4739115416666666,32.12333333333334,74.72,4.7696875,64.66317575156499
1371051047.25,1.471814125,32.123333333333335,74.68333335210667,4.44859375,64.64834856417183
1371051047.5,1.4697250000000002,32.123333333333335,74.64666666666668,4.971354166666667,64.63722817362695
1371051047.75,1.4675825416666666,32.12416666666667,74.60999998122666,5.373776041666667,64.6224009862338
1371051048.0,1.465591875,32.12583333333333,74.57333333333334,5.007578125,64.60757379884063
1371051048.25,1.4639213333333332,32.127500000000005,74.53833335125334,5.276354166666667,64.59274661144748
1371051048.5,1.46262425,32.12916666666667,74.50333333333333,6.043359374999999,64.57791942405431
1371051048.75,1.4616472916666667,32.13,74.46833331541333,6.150911458333333,64.56679903350944
1371051049.0,1.4606169583333333,32.13,74.43333333333334,6.0230989583333345,64.56309223666115
1371051049.25,1.4592131666666666,32.13,74.40000001706667,6.622005208333333,64.55660534217664
1371051049.5,1.457596,32.13,74.36666666666667,6.876718750000001,64.548265049268
1371051049.75,1.4560404583333335,32.12916666666667,74.33333331626666,6.653984375,64.548265049268
1371051050.0,1.4542264166666667,32.127500000000005,74.3,7.0753385416666665,64.54826504926798
1371051050.25,1.4519855833333333,32.12583333333333,74.26833334954667,7.488932291666667,64.548265049268
1371051050.5,1.4497898333333332,32.12416666666667,74.23666666666666,7.303411458333333,64.5445582524197
1371051050.75,1.4478074583333334,32.1225,74.20499998378666,7.428645833333333,64.5445582524197
1371051051.0,1.4456732916666668,32.12083333333334,74.17333333333333,7.890364583333334,64.5445582524197
1371051051.25,1.443272375,32.119166666666665,74.14166668288,7.971223958333333,64.5445582524197
1371051051.5,1.440818125,32.1175,74.11,7.908255208333333,64.5445582524197
1371051051.75,1.4380970833333333,32.115833333333335,74.07833331712,8.17890625,64.5445582524197
1371051052.0,1.4349492083333333,32.11416666666667,74.04666666666667,8.403411458333332,64.5445582524197
1371051052.25,1.4319080416666665,32.1125,74.01416668330667,8.33203125,64.5445582524197
1371051052.5,1.4290269166666665,32.11083333333333,73.98166666666667,8.485208333333333,64.5445582524197
1371051052.75,1.4259324166666667,32.11083333333333,73.94916665002667,8.627578125,64.5445582524197
1371051053.0,1.4228379583333333,32.1125,73.91666666666667,8.436588541666667,64.5445582524197
1371051053.25,1.4199568749999998,32.11416666666667,73.88166668458666,8.368411458333332,64.5445582524197
1371051053.5,1.417129125,32.115833333333335,73.84666666666666,8.277682291666666,64.5445582524197
1371051053.75,1.4141413333333333,32.1175,73.81166664874667,8.093020833333334,64.5445582524197
1371051054.0,1.4111535416666667,32.119166666666665,73.77666666666666,7.97125,64.5445582524197
1371051054.25,1.40816575,32.12083333333334,73.74000001877333,7.6340625000000015,64.5445582524197
1371051054.5,1.4048578333333335,32.1225,73.70333333333332,7.393802083333334,64.5445582524197
1371051054.75,1.4016032916666665,32.12416666666667,73.66666664789332,7.270677083333333,64.5445582524197
1371051055.0,1.3987755833333333,32.12583333333333,73.63,6.805572916666667,64.54548495163178
1371051055.25,1.3960012083333335,32.127500000000005,73.59583335082667,6.383541666666667,64.55382524454043
1371051055.5,1.3931734583333333,32.12916666666667,73.56166666666667,6.30609375,64.56031213902493
1371051055.75,1.3903990416666667,32.13,73.52749998250667,6.123697916666667,64.56309223666115
1371051056.0,1.387678,32.13,73.49333333333334,5.749583333333333,64.56309223666116
1371051056.25,1.3850103333333335,32.13,73.46333334869334,5.839583333333334,64.56309223666115
1371051056.5,1.3822359583333332,32.13,73.43333333333334,6.007786458333334,64.56309223666115
1371051056.75,1.3794615833333335,32.13,73.40333331797333,5.651354166666667,64.56309223666115
1371051057.0,1.3766872083333332,32.13,73.37333333333333,5.531848958333334,64.56309223666116
1371051057.25,1.3739661666666665,32.13,73.34750001322666,5.711171874999999,64.56309223666115
1371051057.5,1.37156525,32.13,73.32166666666666,5.346328124999999,64.56309223666115
1371051057.75,1.3692177083333332,32.13,73.29583332010667,5.061536458333333,64.56309223666115
1371051058.0,1.3668168333333333,32.13,73.27,5.453984375,64.56216553744909
1371051058.25,1.364629375,32.13,73.24500001279999,5.457656249999999,64.55382524454042
1371051058.5,1.36249525,32.13,73.22,5.048880208333333,64.54733835005592
1371051058.75,1.3604144583333333,32.13,73.1949999872,5.259739583333333,64.5445582524197
1371051059.0,1.3584937083333333,32.13,73.17,5.471979166666667,64.54548495163178
1371051059.25,1.3565729583333332,32.13,73.14583334570666,4.904036458333334,64.54641165084385
1371051059.5,1.3547589166666667,32.13,73.12166666666667,4.782291666666667,64.54641165084385
1371051059.75,1.3530515833333334,32.13,73.09749998762668,5.30484375,64.55567864296458
1371051060.0,1.3514509583333334,32.13,73.07333333333334,5.136822916666667,64.55567864296457
1371051060.25,1.3498503333333334,32.13,73.0566666752,5.126770833333333,64.55567864296458
1371051060.5,1.3481963333333333,32.13,73.04,5.919583333333333,64.55567864296458
1371051060.75,1.346489,32.13,73.0233333248,6.097864583333333,64.55567864296458
1371051061.0,1.344621625,32.13,73.00666666666667,5.890000000000001,64.55567864296457
1371051061.25,1.3425408333333333,32.13,72.99666667178667,6.531874999999999,64.55567864296458
1371051061.5,1.340406708333333,32.13,72.98666666666666,6.943307291666667,64.55567864296458
1371051061.75,1.3383259583333331,32.13,72.97666666154666,6.700598958333333,64.55567864296458
1371051062.0,1.3363519166666666,32.13,72.96666666666665,7.181848958333334,64.55475194375249
1371051062.25,1.3344312083333332,32.13,72.96250000213332,7.971380208333333,64.55382524454043
1371051062.5,1.332190375,32.13,72.95833333333333,7.896744791666666,64.55382524454043
1371051062.75,1.329736125,32.12916666666667,72.95416666453333,7.842838541666666,64.5445582524197
1371051063.0,1.3274419583333332,32.127500000000005,72.95,8.561484375,64.5445582524197
1371051063.25,1.3253078333333332,32.12583333333333,72.94416666965334,8.563541666666667,64.5445582524197
1371051063.5,1.3231737083333333,32.12416666666667,72.93833333333333,8.093828125,64.5445582524197
1371051063.75,1.32114625,32.123333333333335,72.93249999701334,8.666302083333333,64.5445582524197
1371051064.0,1.3193322083333332,32.123333333333335,72.92666666666668,9.08703125,64.5445582524197
1371051064.25,1.3176248750000001,32.123333333333335,72.9183333376,8.557942708333334,64.5445582524197
1371051064.5,1.3158641666666666,32.12333333333334,72.91,8.788203125,64.5445582524197
1371051064.75,1.3139434166666666,32.123333333333335,72.9016666624,9.264635416666666,64.5445582524197
1371051065.0,1.3119159583333333,32.123333333333335,72.89333333333333,8.645624999999999,64.5445582524197
1371051065.25,1.3098884999999998,32.123333333333335,72.88250000554666,8.185,64.5445582524197
1371051065.5,1.308021125,32.123333333333335,72.87166666666667,8.609348958333333,64.55382524454042
1371051065.75,1.3061537916666668,32.12416666666667,72.86083332778668,8.383463541666666,64.561238838237
1371051066.0,1.30380625,32.12583333333333,72.85000000000001,7.581171875,64.56123883823702
1371051066.25,1.3011385833333333,32.1275,72.83916667221334,7.779739583333334,64.561238838237
1371051066.5,1.2985242916666666,32.12916666666667,72.82833333333333,7.932291666666667,64.561238838237
1371051066.75,1.2957499583333334,32.12916666666667,72.81749999445333,7.037187499999999,64.561238838237
1371051067.0,1.2927621666666667,32.127500000000005,72.80666666666666,6.546718749999999,64.56123883823702
1371051067.25,1.289774375,32.12583333333333,72.79833333759998,6.885416666666667,64.561238838237
1371051067.5,1.2870000416666667,32.12416666666667,72.78999999999999,6.363307291666666,64.561238838237
1371051067.75,1.2844924583333333,32.1225,72.7816666624,5.747812499999999,64.561238838237
1371051068.0,1.2821449166666665,32.12083333333333,72.77333333333333,6.205963541666667,64.56123883823702
1371051068.25,1.2798507499999998,32.119166666666665,72.76500000426665,6.408776041666666,64.561238838237
1371051068.5,1.27766325,32.1175,72.75666666666666,5.790052083333332,64.55197184611629
1371051068.75,1.2755824166666667,32.115833333333335,72.74833332906667,5.932421875,64.5445582524197
1371051069.0,1.2736617083333333,32.11416666666667,72.74,6.408619791666666,64.5445582524197
1371051069.25,1.2719010833333333,32.112500000000004,72.73166667093332,5.887604166666666,64.5445582524197
1371051069.5,1.2700870833333333,32.11083333333333,72.72333333333333,5.638567708333333,64.5445582524197
1371051069.75,1.2684864999999999,32.11,72.71499999573334,6.3015625,64.5445582524197
1371051070.0,1.267046,32.11,72.70666666666666,6.4334375,64.5445582524197
1371051070.25,1.265552125,32.11,72.69666667178666,5.802734375,64.5445582524197
1371051070.5,1.2639515000000001,32.11,72.68666666666667,6.084270833333334,64.5445582524197
1371051070.75,1.2619240416666668,32.11,72.67666666154668,6.559661458333334,64.5445582524197
1371051071.0,1.259523125,32.11,72.66666666666667,6.021718749999999,64.5445582524197
1371051071.25,1.2569621666666666,32.11,72.65666667178667,5.588567708333334,64.5445582524197
1371051071.5,1.2544545833333334,32.11,72.64666666666668,6.142812500000001,64.5445582524197
1371051071.75,1.2521070416666666,32.11,72.63666666154667,6.224635416666666,64.5445582524197
1371051072.0,1.2500795833333334,32.11,72.62666666666667,5.848177083333334,64.5445582524197
1371051072.25,1.2482655416666666,32.11,72.61500000597333,6.325598958333334,64.5445582524197
1371051072.5,1.2465582083333333,32.11,72.60333333333332,6.750494791666667,64.5445582524197
1371051072.75,1.2449042083333333,32.10916666666666,72.59166666069333,6.391614583333332,64.5445582524197
1371051073.0,1.2434636249999997,32.1075,72.58,6.322838541666667,64.5445582524197
1371051073.25,1.242183125,32.10583333333333,72.56666667349333,6.760755208333333,64.5445582524197
1371051073.5,1.2410627083333332,32.104166666666664,72.55333333333334,6.665963541666667,64.5445582524197
1371051073.75,1.240369125,32.1025,72.53999999317334,6.239869791666666,64.5445582524197
1371051074.0,1.240049,32.100833333333334,72.52666666666667,6.472812500000001,64.5445582524197
1371051074.25,1.239995625,32.09916666666667,72.51000000853334,6.924453124999999,64.5445582524197
1371051074.5,1.239888875,32.097500000000004,72.49333333333334,6.555963541666667,64.5445582524197
1371051074.75,1.2396220833333331,32.09583333333333,72.47666665813333,6.092812500000001,64.5445582524197
1371051075.0,1.2389818333333333,32.09416666666667,72.46,6.308828124999999,64.5445582524197
1371051075.25,1.2380748333333333,32.0925,72.44083334314666,6.205572916666667,64.5445582524197
1371051075.5,1.2370077499999999,32.090833333333336,72.42166666666665,5.678385416666667,64.5445582524197
1371051075.75,1.2357272499999998,32.09,72.40249999018666,5.488203125000001,64.5445582524197
1371051076.0,1.2341266666666666,32.09,72.38333333333333,5.856744791666666,64.5445582524197
1371051076.25,1.2321526250000001,32.09,72.36250001066666,5.867213541666666,64.5445582524197
1371051076.5,1.2299651666666667,32.09,72.34166666666667,5.6081770833333335,64.5445582524197
1371051076.75,1.2275642916666667,32.09,72.32083332266666,6.021718749999999,64.5445582524197
1371051077.0,1.2248966250000002,32.09,72.3,6.270416666666666,64.5445582524197
1371051077.25,1.2219621666666667,32.09,72.27916667733332,5.854427083333333,64.5445582524197
1371051077.5,1.218974375,32.09,72.25833333333333,5.934010416666666,64.5445582524197
1371051077.75,1.215879875,32.089166666666664,72.23749998933333,6.632447916666666,64.5445582524197
1371051078.0,1.2127320000000001,32.0875,72.21666666666665,6.562213541666668,64.5445582524197
1371051078.25,1.2096908333333334,32.08583333333334,72.19750000981333,6.198958333333333,64.5445582524197
1371051078.5,1.2067564166666667,32.08416666666667,72.17833333333331,6.754166666666666,64.53563268143363
1371051078.75,1.2039287083333334,32.0825,72.15916665685332,7.472447916666667,64.51355663210656
1371051079.0,1.2011009583333334,32.08083333333334,72.13999999999999,7.007890625000001,64.48463083061974
1371051079.25,1.1982198333333334,32.079166666666666,72.12166667605332,6.5571093750000005,64.45550225815279
1371051079.5,1.195232,32.0775,72.10333333333332,6.628541666666666,64.42580551339917
1371051079.75,1.1924575833333335,32.075833333333335,72.08499999061333,6.234635416666666,64.38936875819495
1371051080.0,1.1899499583333333,32.07416666666666,72.06666666666666,6.094895833333333,64.34903111997671
1371051080.25,1.1877091249999998,32.0725,72.05000000853333,6.881770833333334,64.30483053118712
1371051080.5,1.1856817083333333,32.07083333333333,72.03333333333333,7.099635416666666,64.259327873741
1371051080.75,1.1839744166666666,32.07,72.01666665813333,6.5320833333333335,64.21488339756623
1371051081.0,1.1837610416666666,32.07,72.0,6.673697916666666,64.16718334004075
1371051081.25,1.1849348333333334,32.07,71.98333334186667,6.890442708333334,64.11854728332158
1371051081.5,1.1869622499999999,32.07,71.96666666666667,6.216171875000001,64.07883679758847
1371051081.75,1.1898433333333334,32.07,71.94999999146667,5.446249999999999,64.05227679019636
1371051082.0,1.1933646666666666,32.07,71.93333333333334,5.815963541666666,64.03256653496399
1371051082.25,1.1982732083333334,32.07,71.91833334101334,6.6972395833333325,64.00506864377307
1371051082.5,1.2045155833333334,32.07,71.90333333333334,7.287239583333332,63.960780597443055
1371051082.75,1.2119850833333332,32.07,71.88833332565333,7.624453125,63.89530116166051
1371051083.0,1.2211085416666667,32.07,71.87333333333333,7.270026041666667,63.83002295202923
1371051083.25,1.2320460000000002,32.07,71.86000000682667,6.145364583333333,63.76860769296931
1371051083.5,1.244744125,32.07,71.84666666666666,5.56640625,63.70532418764281
1371051083.75,1.2589361666666667,32.07083333333333,71.83333332650668,5.335989583333333,63.63954144880719
1371051084.0,1.2733949583333335,32.0725,71.82000000000001,4.817578125,63.57701429132226
1371051084.25,1.2886007083333333,32.07416666666666,71.8075000064,5.024947916666666,63.51542313303105
1371051084.5,1.3042866666666668,32.075833333333335,71.795,5.383802083333332,63.45383197473984
1371051084.75,1.3192256666666666,32.0775,71.7824999936,5.400546875,63.39224081644863
1371051085.0,1.3337378333333334,32.07916666666667,71.77,4.711510416666666,63.33064965815742
1371051085.25,1.3472896250000002,32.08083333333333,71.7575000064,3.5536979166666662,63.277048906804886
1371051085.5,1.3598277083333332,32.0825,71.745,2.4669010416666666,63.240806482878135
1371051085.75,1.3711386666666667,32.08583333333333,71.73249999360002,1.7903645833333333,63.232495458854494
1371051086.0,1.3802621249999998,32.090833333333336,71.72000000000001,1.9062760416666664,63.227884091693625
1371051086.25,1.3867712499999998,32.09583333333334,71.70833333930668,2.238177083333333,63.22327272453274
1371051086.5,1.390719375,32.100833333333334,71.69666666666667,2.1972916666666666,63.221831672294975
1371051086.75,1.3926934166666667,32.10583333333334,71.68499999402667,2.7222395833333333,63.221831672294975
1371051087.0,1.3932802916666667,32.11083333333334,71.67333333333333,3.126484375,63.221831672294975
1371051087.25,1.391519625,32.115833333333335,71.66500000426666,2.6511979166666664,63.221831672294975
1371051087.5,1.3879449166666664,32.12083333333333,71.65666666666667,2.7396354166666668,63.21956546165816
1371051087.75,1.3840500833333333,32.12583333333334,71.64833332906667,2.737838541666667,63.21626915527736
1371051088.0,1.3798351249999998,32.130833333333335,71.64,2.7130729166666665,63.21297284889655
1371051088.25,1.37540675,32.13583333333333,71.63416666965333,3.3917968749999994,63.209676542515744
1371051088.5,1.3708716666666667,32.14083333333333,71.62833333333333,4.542552083333334,63.206380236134926
1371051088.75,1.366229875,32.14458333333333,71.62249999701334,4.986041666666666,63.20308392975412
1371051089.0,1.3616414583333334,32.147083333333335,71.61666666666666,4.726119791666666,63.19978762337331
1371051089.25,1.3573198333333334,32.14958333333333,71.61250000213333,5.218489583333333,63.19649131699251
1371051089.5,1.3536385,32.15208333333333,71.60833333333332,6.110598958333333,63.193195010611696
1371051089.75,1.350330625,32.153749999999995,71.60416666453332,5.838046875,63.18989870423087
1371051090.0,1.3467559583333333,32.15458333333333,71.6,5.923541666666666,63.186602397850066
1371051090.25,1.343288,32.15541666666666,71.59250000384,7.046953125000001,63.183306091469255
1371051090.5,1.3401935,32.15625,71.58500000000001,7.095963541666666,63.182275995725256
1371051090.75,1.3372057083333333,32.157916666666665,71.57749999616,7.783515625,63.182275995725256
1371051091.0,1.334484708333333,32.16041666666666,71.57000000000001,9.3959375,63.182275995725256
1371051091.25,1.33192375,32.16291666666667,71.56166667093333,10.265703125,63.182275995725256
1371051091.5,1.329416125,32.165416666666665,71.55333333333334,10.046093749999999,63.182275995725256
1371051091.75,1.3270152083333333,32.166666666666664,71.54499999573335,10.975182291666668,63.182275995725256
1371051092.0,1.325041125,32.166666666666664,71.53666666666668,12.471692708333334,63.182275995725256
1371051092.25,1.3233871666666668,32.166666666666664,71.52750000469334,12.590833333333334,63.182275995725256
1371051092.5,1.3217331666666665,32.166666666666664,71.51833333333335,12.504010416666667,63.182275995725256
1371051092.75,1.3200791666666667,32.1675,71.50916666197334,13.811197916666666,63.182275995725256
1371051093.0,1.3185852500000002,32.16916666666666,71.5,14.271927083333333,63.182275995725256
1371051093.25,1.3170913333333334,32.170833333333334,71.49083333802666,13.322968750000001,63.182275995725256
1371051093.5,1.3152772916666666,32.1725,71.48166666666665,13.568515624999998,63.182275995725256
1371051093.75,1.313409875,32.17333333333333,71.47249999530666,13.672395833333335,63.18178130203416
1371051094.0,1.3114890833333332,32.17333333333333,71.46333333333332,12.436718750000002,63.179802527269764
1371051094.25,1.3093015833333332,32.17333333333334,71.45333333845332,11.265130208333334,63.17782375250537
1371051094.5,1.3069540833333333,32.17333333333333,71.44333333333333,11.334947916666666,63.17584497774097
1371051094.75,1.3046065833333333,32.174166666666665,71.43333332821334,10.478723958333333,63.173866202976576
1371051095.0,1.3022590416666666,32.17583333333333,71.42333333333333,9.041171875,63.17188742821218
1371051095.25,1.3000715416666668,32.1775,71.41166667264,8.581953125,63.169908653447784
1371051095.5,1.298044125,32.17916666666667,71.4,8.241510416666667,63.16792987868339
1371051095.75,1.2961234166666666,32.18,71.38833332736,6.923828125,63.16595110391899
1371051096.0,1.2942560416666666,32.18,71.37666666666667,6.270546875,63.163972329154596
1371051096.25,1.2925487083333334,32.18,71.36666667178666,6.498723958333333,63.1619935543902
1371051096.5,1.2912148749999999,32.18,71.35666666666665,5.853307291666667,63.160014779625804
1371051096.75,1.290041125,32.18125,71.34666666154666,4.458177083333333,63.15853069855251
1371051097.0,1.288867375,32.183749999999996,71.33666666666666,4.302213541666667,63.15853069855251
1371051097.25,1.2877469583333332,32.186249999999994,71.32750000469332,4.6471875,63.15853069855251
1371051097.5,1.2865731666666667,32.188750000000006,71.31833333333333,3.993802083333333,63.15853069855251
1371051097.75,1.2852926666666666,32.191250000000004,71.30916666197334,3.3305989583333333,63.15853069855251
1371051098.0,1.2840121666666666,32.19375,71.3,3.8539322916666663,63.15853069855251
1371051098.25,1.2826783333333334,32.19625,71.29500000255999,4.5922656250000005,63.15853069855251
1371051098.5,1.2811844583333334,32.19875,71.28999999999999,5.0929947916666665,63.15853069855251
1371051098.75,1.279583875,32.201249999999995,71.28499999744,5.661927083333334,63.15853069855251
1371051099.0,1.2778765833333334,32.20375,71.27999999999999,5.755390625,63.15853069855251
1371051099.25,1.2760092083333332,32.20625,71.27583333546666,5.302760416666667,63.158077115662856
1371051099.5,1.2740885,32.20875,71.27166666666665,5.200390625,63.15741735873247
1371051099.75,1.272061125,32.21,71.26749999786665,5.57375,63.15675760180207
1371051100.0,1.27003375,32.21,71.26333333333332,5.018151041666667,63.15609784487168
1371051100.25,1.2681664166666666,32.21,71.25916666879999,3.8234114583333336,63.155438087941285
1371051100.5,1.2664591250000001,32.21,71.255,3.0820833333333333,63.154778331010895
1371051100.75,1.2648585416666667,32.21083333333333,71.2508333312,3.4391145833333336,63.15411857408049
1371051101.0,1.2632579583333332,32.2125,71.24666666666667,2.63984375,63.1534588171501
1371051101.25,1.2615506666666667,32.214166666666664,71.23916667050668,0.724453125,63.15279906021971
1371051101.5,1.25979,32.215833333333336,71.23166666666668,-1.1171093749999998,63.15213930328932
1371051101.75,1.2580293333333334,32.217499999999994,71.22416666282668,-2.3324479166666667,63.15147954635892
1371051102.0,1.2564820833333332,32.219166666666666,71.21666666666668,-3.248203125,63.15081978942853
1371051102.25,1.255201625,32.22083333333333,71.20833333760001,-3.3905729166666667,63.150613615387776
1371051102.5,1.2540812083333333,32.2225,71.20000000000002,-2.6128385416666666,63.150613615387776
1371051102.75,1.2531741666666667,32.225,71.19166666240001,-1.4603906249999998,63.150613615387776
1371051103.0,1.2523738333333332,32.22833333333333,71.18333333333334,0.0003906249999999685,63.150613615387776
1371051103.25,1.2526939166666666,32.23166666666666,71.17333333845333,1.7880989583333333,63.150613615387776
1371051103.5,1.2552548333333333,32.235,71.16333333333333,3.4946874999999995,63.150613615387776
1371051103.75,1.2606968333333333,32.2375,71.15333332821334,3.7916145833333332,63.150613615387776
1371051104.0,1.2686464583333334,32.23916666666667,71.14333333333333,4.42421875,63.150613615387776
1371051104.25,1.2794772083333334,32.240833333333335,71.13250000554666,6.309661458333334,63.150613615387776
