timestamp,EDA,TEMP,HR,BVP,ACC_mag
1371054522.0,1.1100717500000001,33.27,,11.160989583333333,65.48043330131468
1371054522.25,1.2181439285714286,33.27,,10.554419642857143,65.4258000551338
1371054522.5,1.3595558125,33.27,,10.1628515625,65.36745969992045
1371054522.75,1.506676,33.27,,10.554340277777778,65.31326374247747
1371054523.0,1.635567,33.27,,10.53425,65.2629176996851
1371054523.25,1.7418380909090911,33.27,,9.749573863636364,65.21238085577077
1371054523.5,1.8303973333333332,33.27,,8.87296875,65.1642272379685
1371054523.75,2.002010041666667,33.26833333333334,,8.44140625,65.04727110826812
1371054524.0,2.165406791666667,33.265,,7.981119791666667,64.95395789429136
1371054524.25,2.3179623333333335,33.26166666666667,,6.860937500000001,64.87464677995486
1371054524.5,2.4596766666666667,33.25833333333333,,5.195520833333333,64.82619228958555
1371054524.75,2.5777539583333335,33.255,,3.9691145833333334,64.79027471144647
1371054525.0,2.672674375,33.25166666666667,,2.859140625,64.76164503306255
1371054525.25,2.7465707083333335,33.24833333333333,,2.2637239583333333,64.73320653824162
1371054525.5,2.778894791666667,33.245,,2.1579687499999998,64.71111056862472
1371054525.75,2.782195291666667,33.24166666666667,,0.8292968749999999,64.6905158998707
1371054526.0,2.774832958333333,33.23833333333333,,-0.48666666666666675,64.68742188342411
1371054526.25,2.766296875,33.235,,-0.32096354166666674,64.69285387676364
1371054526.5,2.757760791666667,33.23166666666666,,1.1118229166666664,64.70991052729933
1371054526.75,2.749224708333333,33.23,,1.2441145833333334,64.7269633296553
1371054527.0,2.740688625,33.23,,1.8280729166666667,64.74796523309944
1371054527.25,2.7321525416666668,33.23,,4.7638541666666665,64.769410446322
1371054527.5,2.7236164583333333,33.23,,5.96796875,64.7820784872083
1371054527.75,2.718761583333333,33.23,,5.428307291666666,64.78404945342335
1371054528.0,2.717534541666667,33.23,,7.948619791666666,64.78417008192626
1371054528.25,2.718494833333333,33.23,,9.645625,64.78662367657658
1371054528.5,2.720788875,33.23,,8.604973958333334,64.79993666743822
1371054528.75,2.724256625,33.23,,9.583020833333334,64.81836345164474
1371054529.0,2.7290581666666665,33.23,,12.279088541666665,64.82511398090885
1371054529.25,2.7342865416666666,33.23,,13.464192708333334,64.83190440854735
1371054529.5,2.7395149166666664,33.23,,12.133932291666666,64.83310976019668
1371054529.75,2.7444765416666663,33.23,,12.793541666666668,64.83310976019668
1371054530.0,2.7487979583333337,33.23,,14.175078124999999,64.83310976019668
1371054530.25,2.751999,33.23,,12.338411458333333,64.83310976019668
1371054530.5,2.7538662916666667,33.23,,11.841979166666667,64.83471689572912
1371054530.75,2.7530660416666666,33.23,,14.57203125,64.84150732336762
1371054531.0,2.74906475,33.23,,14.565052083333335,64.84805649400029
1371054531.25,2.7430361666666667,33.23,,14.178776041666667,64.85368146836385
1371054531.5,2.736367375,33.23,,16.525442708333333,64.85368146836385
1371054531.75,2.729165083333333,33.229166666666664,,17.004895833333332,64.85368146836385
1371054532.0,2.720895791666667,33.2275,76.0,15.331953125,64.85368146836385
1371054532.25,2.7115061249999997,33.225833333333334,75.05583381674667,14.5840625,64.85380191036838
1371054532.5,2.701689625,33.22416666666666,74.11166666666668,15.928776041666667,64.85773503926706
1371054532.75,2.692086541666667,33.2225,73.16749951658667,17.495078125,64.86371368233908
1371054533.0,2.683123666666667,33.22083333333333,72.22333333333334,16.82752604166667,64.86776725320833
1371054533.25,2.6752811666666667,33.219166666666666,71.02916727808001,16.619453125,64.87097865848055
1371054533.5,2.6687724166666666,33.2175,69.83500000000001,17.889609375,64.87419006375278
1371054533.75,2.663170625,33.21583333333333,68.64083272192,17.545494791666666,64.87740146902499
1371054534.0,2.658795875,33.214166666666664,67.44666666666667,16.149505208333334,64.88061287429721
1371054534.25,2.6553814166666667,33.2125,66.97416690858667,16.1875,64.88382427956942
1371054534.5,2.655168,33.21083333333333,66.50166666666667,15.757916666666667,64.88703568484165
1371054534.75,2.6609298333333338,33.21,66.02916642474668,16.46890625,64.89024709011387
1371054535.0,2.674480791666667,33.21,65.55666666666667,19.039661458333335,64.8934584953861
1371054535.25,2.695820916666667,33.21,65.77833321984001,20.414166666666667,64.89654945865378
1371054535.5,2.721252541666667,33.21,66.0,20.450234374999997,64.89582773502732
1371054535.75,2.7467375,33.21,66.22166678015999,19.406171875000002,64.89306049722751
1371054536.0,2.7722224583333333,33.21,66.44333333333333,20.136354166666667,64.89221833163049
1371054536.25,2.7977074166666664,33.21,66.43500000426666,21.510703125000003,64.89221833163049
1371054536.5,2.8231923749999996,33.21,66.42666666666666,20.822083333333335,64.89221833163049
1371054536.75,2.8485706250000002,33.21,66.41833332906667,19.480572916666667,64.89221833163049
1371054537.0,2.8721718333333333,33.21,66.41,20.254453125,64.89366200749343
1371054537.25,2.8937457499999995,33.21,66.10500015616,19.473958333333336,64.90200126960976
1371054537.5,2.912758833333333,33.21,65.8,18.675963541666665,64.91850918169264
1371054537.75,2.925796666666667,33.21,65.49499984383999,18.199036458333335,64.92960834853392
1371054538.0,2.931472166666667,33.21,65.19,15.934661458333332,64.94647019021843
1371054538.25,2.9294652083333332,33.21,64.88500015616,13.935338541666667,64.97087723419412
1371054538.5,2.923793583333333,33.21,64.58,12.5078125,64.99405307687556
1371054538.75,2.9181219583333338,33.21083333333333,64.27499984383999,10.910729166666668,65.00943971715078
1371054539.0,2.9125570416666666,33.2125,63.97,7.685624999999999,65.02090408065114
1371054539.25,2.906992125,33.214166666666664,63.93083335338667,3.030703125,65.03076456731766
1371054539.5,2.9014272083333332,33.215833333333336,63.891666666666666,0.09458333333333362,65.04302873946159
1371054539.75,2.8959156249999993,33.21666666666666,63.852499979946664,-0.022630208333333058,65.05204961636998
1371054540.0,2.8944217916666664,33.21666666666667,63.81333333333333,-1.4002343749999995,65.05702303646477
1371054540.25,2.8970359166666664,33.21666666666666,63.878333300053335,-1.4634374999999997,65.05662330176234
1371054540.5,2.8996500416666664,33.21666666666667,63.943333333333335,0.7897916666666669,65.04897642718016
1371054540.75,2.9027976666666664,33.21666666666667,64.00833336661334,2.160885416666667,65.05122403765336
1371054541.0,2.9065855,33.21666666666666,64.07333333333334,2.0296875,65.04214120154849
1371054541.25,2.9113869999999995,33.21666666666667,64.14916662784,5.100729166666667,65.02415125353052
1371054541.5,2.9161885,33.21666666666666,64.225,10.17015625,65.0073925068068
1371054541.75,2.920776625,33.21583333333333,64.30083337216,13.339921875,64.99842296248929
1371054542.0,2.9241910416666665,33.214166666666664,64.37666666666667,18.82135416666667,64.99549949797854
1371054542.25,2.927178625,33.2125,64.53499991893332,26.85549479166667,64.99277741766515
1371054542.5,2.9296860416666664,33.21083333333333,64.69333333333333,33.65419270833333,64.98785200796526
1371054542.75,2.931713333333333,33.20875,64.85166674773333,37.61377604166667,64.99109368653451
1371054543.0,2.9303262500000002,33.206250000000004,65.00999999999999,42.4059375,65.00726154434314
1371054543.25,2.9256847916666664,33.20375,65.24666654549333,46.115026041666674,65.01398467476498
1371054543.5,2.921043333333333,33.20125,65.48333333333332,45.51322916666667,65.01166097534464
1371054543.75,2.916401875,33.19875,65.72000012117333,45.13096354166667,65.00473129398792
1371054544.0,2.9117604166666666,33.19625,65.95666666666666,47.035234374999995,65.003369384366
1371054544.25,2.9071189583333332,33.19375,66.27499983701333,44.973880208333334,65.003369384366
1371054544.5,2.9024775,33.191250000000004,66.59333333333333,41.62265625,65.00340946507355
1371054544.75,2.8983695,33.188750000000006,66.91166682965334,41.22643229166666,65.0035297071962
1371054545.0,2.8981560833333333,33.18625,67.23,37.87575520833334,65.00044373922245
1371054545.25,2.9029042916666667,33.183749999999996,67.50583319210666,33.64760416666667,64.99900080512062
1371054545.5,2.912774125,33.18125,67.78166666666667,30.998593749999998,64.98972702109349
1371054545.75,2.9268052499999997,33.18125,68.05750014122667,27.636145833333334,64.96138831118724
1371054546.0,2.9437706249999995,33.18375,68.33333333333333,23.663255208333336,64.92272720299228
1371054546.25,2.962443208333333,33.18625,68.56916654592,22.122031249999996,64.90162549616834
1371054546.5,2.9813825416666666,33.18875,68.805,21.88890625,64.92270578498638
1371054546.75,3.0008020416666668,33.191250000000004,69.04083345408,19.368333333333332,64.94510597149282
1371054547.0,3.0206483333333334,33.19375,69.27666666666667,18.742005208333335,64.96750615799924
1371054547.25,3.041614958333333,33.19625,69.46999990101334,21.057630208333332,64.98990634450568
1371054547.5,3.06572925,33.19875,69.66333333333333,20.903333333333332,65.01226645030457
1371054547.75,3.0940582500000002,33.201249999999995,69.85666676565333,18.96619791666667,65.03454639468835
1371054548.0,3.1214802916666673,33.20375000000001,70.05,20.307135416666664,65.05790874613666
1371054548.25,3.1443675416666665,33.206250000000004,70.22999990784,21.188750000000002,65.06618854545884
1371054548.5,3.1626133333333333,33.20875,70.41,20.198880208333332,65.0726163331159
1371054548.75,3.177124625,33.21083333333333,70.59000009216,20.99109375,65.09318525361846
1371054549.0,3.18955525,33.2125,70.77,21.774270833333333,65.11375417412104
1371054549.25,3.201452375,33.214166666666664,70.93499991552,19.73901041666667,65.1131159714005
1371054549.5,3.2118023333333334,33.215833333333336,71.1,18.338151041666666,65.06942219007347
1371054549.75,3.2198582083333336,33.2175,71.26500008448,20.687421875000002,65.02452875318072
1371054550.0,3.225833416666667,33.219166666666666,71.42999999999999,20.449791666666666,64.9834919888822
1371054550.25,3.229407875,33.22083333333333,71.56083326634666,16.91013020833333,64.959167472492
1371054550.5,3.228607625,33.2225,71.69166666666666,16.685624999999998,64.9348429561018
1371054550.75,3.2220455416666667,33.22416666666667,71.82250006698666,19.247395833333332,64.91512246530077
1371054551.0,3.212602541666666,33.225833333333334,71.95333333333333,18.387369791666668,64.90412277558531
1371054551.25,3.202145875,33.2275,72.03916662272,16.795703125,64.90096503847725
1371054551.5,3.1915824999999995,33.229166666666664,72.125,18.011979166666666,64.91688948492752
1371054551.75,3.181019125,33.23083333333333,72.21083337728,18.864843750000002,64.94121400131772
1371054552.0,3.17045575,33.232499999999995,72.29666666666667,17.764453125,64.95853845942464
1371054552.25,3.159892375,33.23416666666667,72.33999997781333,19.475677083333334,64.9720328070911
1371054552.5,3.1506094166666667,33.23583333333333,72.38333333333334,22.14729166666667,64.99592606913409
1371054552.75,3.143140375,33.237500000000004,72.42666668885335,21.354505208333336,65.03801948271352
1371054553.0,3.1389790833333326,33.23916666666667,72.47000000000001,21.609296875,65.07265725700157
1371054553.25,3.136898458333333,33.240833333333335,72.49749998592002,24.239713541666664,65.07458158688532
1371054553.5,3.136044875,33.2425,72.525,24.373046875,65.07369426047079
1371054553.75,3.136418333333333,33.2425,72.55250001408,22.95388020833333,65.07101456476538
1371054554.0,3.1377520833333334,33.240833333333335,72.58,23.8996875,65.05796769858979
1371054554.25,3.1400995,33.23916666666667,72.58833332906667,24.881874999999997,65.04445307225578
1371054554.5,3.142553625,33.237500000000004,72.59666666666666,23.917890625000002,65.02531571107492
1371054554.75,3.143727333333333,33.235,72.60500000426666,23.415677083333335,65.00231417147982
1371054555.0,3.143620625,33.23166666666666,72.61333333333333,24.656093749999997,64.9867937726389
1371054555.25,3.1427669999999996,33.22833333333333,72.60000000682666,24.119322916666665,64.9867937726389
1371054555.5,3.141006416666667,33.225,72.58666666666666,22.76447916666667,64.98130028628603
1371054555.75,3.1381788333333334,33.2225,72.57333332650666,22.848124999999996,64.94596001114905
1371054556.0,3.1325770416666665,33.22083333333333,72.55999999999999,22.029479166666665,64.92714965111047
1371054556.25,3.125161375,33.219166666666666,72.54666667349332,21.495442708333332,64.92714965111048
1371054556.5,3.116678708333333,33.217499999999994,72.53333333333333,21.447916666666668,64.92996130740876
1371054556.75,3.107289083333333,33.2175,72.51999999317333,20.4828125,64.92911851314291
1371054557.0,3.0975793333333335,33.219166666666666,72.50666666666666,19.622057291666668,64.91699401092424
1371054557.25,3.087709541666667,33.22083333333333,72.50166666922667,19.21828125,64.91029192833976
1371054557.5,3.077092875,33.2225,72.49666666666667,18.467630208333336,64.90089911798474
1371054557.75,3.0671164166666665,33.22333333333333,72.49166666410666,17.156796875,64.88680995679455
1371054558.0,3.0584203750000003,33.223333333333336,72.48666666666666,16.093932291666665,64.87051071841007
1371054558.25,3.04993775,33.22333333333333,72.49999999317333,15.182265625000001,64.85670446826812
1371054558.5,3.041508458333333,33.22333333333333,72.51333333333334,13.969322916666668,64.84731323471063
1371054558.75,3.0336126666666665,33.2225,72.52666667349334,13.419192708333332,64.84924709651251
1371054559.0,3.0266238333333337,33.22083333333333,72.54,13.716770833333333,64.83688307342088
1371054559.25,3.020648625,33.219166666666666,72.56583332010668,12.485234375,64.81909658003794
1371054559.5,3.0157404166666666,33.2175,72.59166666666667,13.332760416666666,64.80046548565534
1371054559.75,3.0117391666666666,33.21666666666667,72.61750001322666,13.257239583333332,64.78561282511414
1371054560.0,3.0080580416666667,33.21666666666666,72.64333333333333,11.272057291666668,64.78429118324564
1371054560.25,3.004536958333333,33.21666666666667,72.67333331797333,10.097682291666667,64.78284416840317
1371054560.5,3.0024562916666664,33.21666666666666,72.70333333333333,9.416171875,64.7793871239663
1371054560.75,3.0014959583333334,33.2175,72.73333334869334,9.649088541666666,64.77609053883891
1371054561.0,3.000535625,33.219166666666666,72.76333333333334,9.587890625,64.77452294843489
1371054561.25,3.0001087916666673,33.22083333333333,72.79999998122668,9.272473958333332,64.7703420991706
1371054561.5,3.0005355833333334,33.2225,72.83666666666667,9.197317708333333,64.76583970801808
1371054561.75,3.001495875,33.22416666666666,72.87333335210667,8.830729166666666,64.76165885875382
1371054562.0,3.0026695416666667,33.225833333333334,72.91000000000001,8.043645833333333,64.75884494598186
1371054562.25,3.003523083333333,33.2275,72.94916664661335,7.648854166666666,64.75864433995855
1371054562.5,3.0039498333333334,33.229166666666664,72.98833333333334,5.160677083333334,64.75928833493492
1371054562.75,3.004003166666667,33.23,73.02750002005334,6.008177083333334,64.75699669033574
1371054563.0,3.003629708333334,33.23,73.06666666666668,9.393619791666666,64.75410210440128
1371054563.25,3.0027227083333337,33.23,73.10916664490668,12.365026041666665,64.75438347986987
1371054563.5,3.0001085,33.23,73.15166666666667,13.205755208333331,64.76410325591839
1371054563.75,2.9958938333333336,33.23,73.19416668842666,12.941328125,64.77984517073772
1371054564.0,2.991679166666667,33.23,73.23666666666666,14.891380208333333,64.79767189981631
1371054564.25,2.9874644999999997,33.23,73.27916664490667,16.986197916666665,64.81565899922255
1371054564.5,2.9832498333333333,33.23,73.32166666666666,18.15625,64.83364609862879
1371054564.75,2.9790351666666672,33.23083333333333,73.36416668842665,21.476223958333332,64.85035023541393
1371054565.0,2.9748205,33.232499999999995,73.40666666666665,24.660677083333336,64.86577140957796
1371054565.25,2.9745004166666664,33.23416666666666,73.43999998293333,28.402682291666668,64.88067085420853
1371054565.5,2.9841034583333332,33.23583333333333,73.47333333333333,34.26721354166666,64.89063305653491
1371054565.75,3.006403833333333,33.2375,73.50666668373333,36.21526041666667,64.905010771632
1371054566.0,3.041721666666667,33.23916666666666,73.54,34.205781249999994,64.92219601940006
1371054566.25,3.0807817916666664,33.240833333333335,73.56249998848,31.796145833333338,64.93917792918474
1371054566.5,3.120855583333333,33.2425,73.58500000000001,33.004296875,64.94744525254247
1371054566.75,3.162049708333333,33.244166666666665,73.60750001152,34.76192708333333,64.94832623740714
1371054567.0,3.2060636666666666,33.24583333333333,73.63,33.36666666666667,64.94527507117922
1371054567.25,3.250077625,33.247499999999995,73.63916666197333,32.54471354166667,64.93183018969656
1371054567.5,3.2940915833333335,33.24916666666667,73.64833333333334,33.617031250000004,64.92091651548857
1371054567.75,3.3377398333333326,33.25,73.65750000469333,30.39473958333333,64.91216936510098
1371054568.0,3.379581875,33.25,73.66666666666667,26.23296875,64.90554757155432
1371054568.25,3.4159288333333335,33.25,73.66916666538667,21.536432291666667,64.91119993606972
1371054568.5,3.441765833333333,33.25,73.67166666666668,14.708593749999999,64.92102746720373
1371054568.75,3.4544786666666667,33.25,73.67416666794668,10.03265625,64.91881872871095
1371054569.0,3.4525201666666665,33.25,73.67666666666668,9.089192708333334,64.90653683793458
1371054569.25,3.4448987916666667,33.25,73.66750000469334,8.821458333333334,64.89562280041037
1371054569.5,3.4372774166666673,33.25,73.65833333333333,7.046197916666666,64.88599429918041
1371054569.75,3.4296560416666666,33.25,73.64916666197334,6.483020833333334,64.87833220769537
1371054570.0,3.417774375,33.25,73.64,5.3476822916666675,64.87227656903458
1371054570.25,3.4043989166666666,33.25,73.62416667477333,1.1119010416666666,64.87886094436227
1371054570.5,3.3897964166666665,33.25,73.60833333333333,-2.755859375,64.89394047281645
1371054570.75,3.3751328333333332,33.25,73.59249999189333,-0.27552083333333327,64.93131746510856
1371054571.0,3.362275458333333,33.25,73.57666666666667,6.854062499999999,64.96865051605572
1371054571.25,3.3513387083333335,33.25,73.55666667690667,14.629973958333332,64.98864055765264
1371054571.5,3.341415583333333,33.25,73.53666666666666,21.53903645833333,65.01338635000707
1371054571.75,3.3319192500000003,33.25,73.51666665642666,24.73375,65.04734980496728
1371054572.0,3.3239167083333334,33.25,73.49666666666667,27.137083333333337,65.09430892660795
1371054572.25,3.317888125,33.25,73.48333334016,29.455755208333333,65.15612633276366
1371054572.5,3.3113794166666675,33.25,73.47,29.174765625000003,65.22471596728924
1371054572.75,3.304870708333333,33.25,73.45666665984,28.190807291666662,65.29484278359068
1371054573.0,3.2998024583333336,33.25,73.44333333333333,32.85489583333333,65.36318614007308
1371054573.25,3.295740125,33.25,73.43666667008,36.344661458333334,65.42460511714063
1371054573.5,3.2929048333333335,33.25,73.43,35.93776041666667,65.4342037344188
1371054573.75,3.2896427083333335,33.25,73.42333332992,30.860572916666666,65.3861308706092
1371054574.0,3.2856947499999998,33.25,73.41666666666667,17.116432291666666,65.34224668923748
1371054574.25,3.279346041666667,33.25,73.41749999957334,7.486145833333333,65.3170402158349
1371054574.5,3.272997333333333,33.25,73.41833333333334,2.7494270833333334,65.28755817412376
1371054574.75,3.265581625,33.25,73.41916666709334,3.493307291666667,65.24769579129192
1371054575.0,3.2526796250000003,33.25,73.42,2.1423697916666664,65.20246495010393
1371054575.25,3.2402577916666666,33.25,73.42583333034668,3.9502343749999995,65.1510366531082
1371054575.5,3.2279348749999994,33.25,73.43166666666667,8.877057291666667,65.08092078008745
1371054575.75,3.2156119583333336,33.25,73.43750000298667,11.143385416666668,65.00368228949091
1371054576.0,3.2032890416666664,33.25,73.44333333333334,7.239218749999999,64.92508823009024
1371054576.25,3.187186,33.25,73.45166666240002,6.919713541666666,64.84271659072564
1371054576.5,3.1709229166666666,33.25,73.46000000000001,7.4090625,64.7834254526624
1371054576.75,3.157824,33.24916666666667,73.4683333376,8.251848958333333,64.76048404475928
1371054577.0,3.147528416666667,33.2475,73.47666666666667,15.002864583333333,64.72855467940305
1371054577.25,3.1450055,33.24583333333333,73.48499999573335,17.262447916666666,64.68353818689936
1371054577.5,3.1424825833333334,33.244166666666665,73.49333333333334,15.748828124999998,64.64058173080578
1371054577.75,3.1457215,33.24333333333333,73.50166667093333,12.228203125,64.6046305669097
1371054578.0,3.1554070000000003,33.24333333333333,73.51,10.30265625,64.56831781430195
1371054578.25,3.1650925,33.24333333333333,73.51916666197334,4.93375,64.52133626510141
1371054578.5,3.1751592083333335,33.24333333333333,73.52833333333334,-1.170338541666667,64.48878341911592
1371054578.75,3.1787870416666664,33.24166666666667,73.53750000469333,-5.203437500000001,64.46436574274254
1371054579.0,3.1867197500000004,33.23833333333334,73.54666666666667,-6.913203125,64.44332797900138
1371054579.25,3.1989204583333337,33.235,73.55416666282667,-8.362760416666667,64.43058550557767
1371054579.5,3.2112812083333337,33.23166666666666,73.56166666666667,-8.044348958333334,64.43555653024077
1371054579.75,3.2175435416666667,33.23,73.56916667050666,-7.754140625000001,64.43866828079435
1371054580.0,3.220141208333333,33.23,73.57666666666667,-8.41453125,64.4457808534882
1371054580.25,3.2173669583333333,33.23,73.58166666410666,-9.022135416666666,64.45386233116106
1371054580.5,3.2145927083333334,33.23,73.58666666666667,-9.105,64.46504901836754
1371054580.75,3.207497083333333,33.22833333333333,73.59166666922667,-8.855651041666667,64.47886097922034
1371054581.0,3.2000280416666667,33.225,73.59666666666666,-8.318723958333333,64.49436720101887
1371054581.25,3.193465958333333,33.22166666666667,73.59250000213333,-7.685182291666667,64.50914693216399
1371054581.5,3.1884510416666667,33.21833333333333,73.58833333333334,-6.899244791666667,64.51843351050921
1371054581.75,3.1912087916666665,33.2175,73.58416666453333,-5.852447916666667,64.52230913042526
1371054582.0,3.189715041666666,33.219166666666666,73.58,-4.8578125,64.52291371226568
1371054582.25,3.1882212916666663,33.22083333333333,73.57083333802666,-4.081015625,64.48521298688293
1371054582.5,3.1867275416666665,33.222500000000004,73.56166666666667,-3.5190885416666666,64.44393828101737
1371054582.75,3.1890216666666666,33.22333333333333,73.55249999530668,-2.836276041666667,64.39794291307157
1371054583.0,3.192862958333334,33.22333333333333,73.54333333333334,-1.9436197916666667,64.35056365844534
1371054583.25,3.19670425,33.223333333333336,73.53000000682667,-1.14234375,64.30359938552056
1371054583.5,3.199958666666667,33.22333333333333,73.51666666666667,-0.5002604166666668,64.25451953324963
1371054583.75,3.2022527499999995,33.22416666666667,73.50333332650666,0.009973958333333276,64.21179648492756
1371054584.0,3.203373125,33.22583333333333,73.49,0.3594270833333333,64.16823267871798
1371054584.25,3.203053041666667,33.2275,73.48000000511999,0.7697135416666666,64.12904628883719
1371054584.5,3.2010790833333336,33.229166666666664,73.47,1.0978645833333334,64.11514757386927
1371054584.75,3.1977713333333333,33.23,73.45999999488001,1.1334375,64.11223764877587
1371054585.0,3.1941968333333333,33.23,73.45,1.0928645833333335,64.1155086868515
1371054585.25,3.1906223333333337,33.23,73.44333333674666,1.1688281249999999,64.1570850321503
1371054585.5,3.187047833333333,33.23,73.43666666666667,1.548203125,64.20223535793194
1371054585.75,3.183580041666666,33.23,73.42999999658667,2.009088541666667,64.25210634579378
1371054586.0,3.1803256249999996,33.23,73.42333333333333,2.201380208333333,64.30336122033607
1371054586.25,3.1771245416666667,33.23,73.41750000298666,2.413671875,64.3532322081979
1371054586.5,3.1746170416666666,33.23,73.41166666666666,2.619244791666667,64.40061779952309
1371054586.75,3.173763458333333,33.23,73.40583333034667,3.062265625,64.44051707960227
1371054587.0,3.1776047083333334,33.23,73.39999999999999,3.6924999999999994,64.47956285662323
1371054587.25,3.187695666666667,33.23,73.38666667349332,4.412994791666667,64.51479597096399
1371054587.5,3.2011477083333335,33.23,73.37333333333333,4.66984375,64.5264356713376
1371054587.75,3.2198736666666665,33.23,73.35999999317333,4.427864583333333,64.529345596431
1371054588.0,3.2442090833333332,33.23,73.34666666666666,4.46390625,64.529345596431
1371054588.25,3.2685445000000004,33.23,73.32250001237333,4.716953125000001,64.529345596431
1371054588.5,3.2928799166666667,33.23,73.29833333333333,4.329947916666667,64.529345596431
1371054588.75,3.317108625,33.23,73.27416665429334,3.5865364583333332,64.529345596431
1371054589.0,3.3411239583333336,33.23,73.25,3.3964322916666667,64.529345596431
1371054589.25,3.3642934583333335,33.23,73.21916668245333,3.621588541666666,64.529345596431
1371054589.5,3.384795458333333,33.23,73.18833333333333,3.813125,64.52906321960671
1371054589.75,3.4026832499999995,33.23,73.15749998421333,3.790885416666667,64.52906321960671
1371054590.0,3.4170499166666666,33.23,73.12666666666667,3.5831250000000003,64.52906321960671
1371054590.25,3.4243666249999998,33.23,73.09083335168,3.108697916666666,64.52906321960671
1371054590.5,3.4274152916666663,33.23,73.055,3.041484375,64.52906321960671
1371054590.75,3.4246565416666663,33.23083333333333,73.01916664832,3.4492187499999996,64.52906321960671
1371054591.0,3.415328,33.232499999999995,72.98333333333333,3.4406770833333336,64.52906321960671
1371054591.25,3.404879083333334,33.23416666666666,72.95916667904,3.1591666666666662,64.52906321960671
1371054591.5,3.393629916666667,33.235833333333325,72.935,3.362447916666667,64.52906321960671
1371054591.75,3.381207041666667,33.237500000000004,72.91083332096001,3.822890625,64.52906321960671
1371054592.0,3.36787725,33.23916666666667,72.88666666666667,3.8847135416666667,64.52906321960671
1371054592.25,3.3543796666666665,33.240833333333335,72.90583332352,3.5642708333333335,64.52906321960671
1371054592.5,3.3422691249999996,33.2425,72.925,3.135364583333333,64.52906321960671
1371054592.75,3.33170575,33.244166666666665,72.94416667648,2.579895833333333,64.52906321960671
1371054593.0,3.3208756249999998,33.24583333333333,72.96333333333332,1.9513802083333331,64.52906321960671
1371054593.25,3.31137925,33.2475,72.9966666496,1.3031249999999999,64.52906321960671
1371054593.5,3.3028965416666662,33.24916666666667,73.03,0.3984895833333333,64.52966838538522
1371054593.75,3.2949473333333335,33.25,73.0633333504,-0.5261718750000001,64.53450724672525
1371054594.0,3.288171833333333,33.25,73.09666666666668,-1.345859375,64.53511241250378
1371054594.25,3.282143291666666,33.25,73.14666664106667,-2.2333072916666667,64.54511091835523
1371054594.5,3.2769150000000002,33.25,73.19666666666667,-3.228619791666667,64.56041678379457
1371054594.75,3.2728604166666666,33.25,73.24666669226667,-4.079270833333333,64.60570550681173
1371054595.0,3.2694993333333335,33.25,73.29666666666667,-5.0903125000000005,64.65786697932747
1371054595.25,3.2668317916666667,33.25,73.3133333248,-6.849088541666667,64.70903037893659
1371054595.5,3.264110958333333,33.25,73.33000000000001,-9.390182291666667,64.73748651696918
1371054595.75,3.2592561250000003,33.25083333333333,73.34666667520001,-11.872994791666668,64.78629323342149
1371054596.0,3.24959975,33.2525,73.36333333333334,-14.165833333333332,64.84556797090819
1371054596.25,3.2399433749999997,33.25416666666666,73.41666663936,-15.108723958333334,64.89704861987587
1371054596.5,3.230287,33.255833333333335,73.47,-14.980624999999998,64.93499508380049
1371054596.75,3.2206306249999996,33.2575,73.52333336064001,-14.504088541666668,64.9659466183101
1371054597.0,3.21097425,33.25916666666667,73.57666666666667,-12.192083333333334,65.07051123024581
1371054597.25,3.2067595833333336,33.26083333333333,73.64916662954667,-9.233802083333332,65.17487199018097
1371054597.5,3.207125291666667,33.262499999999996,73.72166666666666,-6.190078124999999,65.24362257879507
1371054597.75,3.2138852916666667,33.26416666666667,73.79416670378667,-4.732239583333333,65.2277083099912
1371054598.0,3.2252334166666667,33.26583333333334,73.86666666666667,-1.380859375,65.2216467930527
1371054598.25,3.2394168333333333,33.267500000000005,73.94749995861334,8.533854166666666,65.21950541198139
1371054598.5,3.255581958333334,33.26916666666667,74.02833333333334,21.044088541666667,65.26340738215387
1371054598.75,3.2750470833333334,33.26916666666667,74.10916670805334,32.57510416666666,65.26888598401403
1371054599.0,3.3007008333333334,33.267500000000005,74.19,43.83044270833333,65.23906370725473
1371054599.25,3.3271092083333333,33.26583333333334,74.24249997311999,51.90505208333334,65.22817789198253
1371054599.5,3.3537843333333335,33.26416666666667,74.29499999999999,57.69830729166666,65.26660562353227
1371054599.75,3.380726208333334,33.2625,74.34750002688,60.33833333333334,65.29962655367531
1371054600.0,3.407721458333333,33.26083333333333,74.39999999999999,57.91333333333333,65.25608732929341
1371054600.25,3.4296484166666663,33.259166666666665,74.4249999872,57.704375,65.19948882200191
1371054600.5,3.4469416250000005,33.2575,74.44999999999999,59.90825520833332,65.17706326865458
1371054600.75,3.4575737916666665,33.255833333333335,74.4750000128,65.87252604166666,65.21729709579695
1371054601.0,3.463404458333333,33.25416666666667,74.5,68.24143229166667,65.24048663943017
1371054601.25,3.466666583333333,33.2525,74.54416664405333,63.246796875,65.25915871344766
1371054601.5,3.4691740416666668,33.25083333333333,74.58833333333334,55.06739583333333,65.25672766874342
1371054601.75,3.46971525,33.25,74.63250002261334,47.46669270833333,65.26439203328225
1371054602.0,3.4678557083333335,33.25,74.67666666666668,39.93169270833334,65.30247427403755
1371054602.25,3.464227875,33.25,74.71666664618668,34.858776041666665,65.33116893955254
1371054602.5,3.4588928333333335,33.25,74.75666666666667,32.061588541666666,65.3140250120061
1371054602.75,3.452490791666667,33.25,74.79666668714667,31.869583333333335,65.30070005632648
1371054603.0,3.445982041666667,33.25,74.83666666666667,35.02143229166666,65.29479550758526
1371054603.25,3.439473291666667,33.25,74.87249998165333,34.97861979166667,65.29228148512512
1371054603.5,3.433017916666667,33.25,74.90833333333333,31.796458333333334,65.28589732045401
1371054603.75,3.426829291666667,33.25,74.94416668501334,26.26953125,65.27153577513333
1371054604.0,3.421067458333333,33.25,74.98,22.006796874999996,65.25749301195785
1371054604.25,3.4153056250000002,33.25,74.99416665941334,19.402395833333333,65.24504565543752
1371054604.5,3.4101839999999997,33.25,75.00833333333333,19.131484375,65.24229309403768
1371054604.75,3.4069296249999996,33.25,75.02250000725333,18.240156250000002,65.25027047468724
1371054605.0,3.4052224166666663,33.25,75.03666666666666,18.265130208333336,65.25266283670537
1371054605.25,3.404528875,33.25,75.0533333248,17.764218749999998,65.25330040099576
1371054605.5,3.4055959166666665,33.25,75.07,15.93171875,65.26339203079017
1371054605.75,3.4075699166666666,33.25,75.08666667520001,15.414348958333335,65.27783272397797
1371054606.0,3.4096505833333333,33.25,75.10333333333334,13.920677083333333,65.29203378288769
1371054606.25,3.4119446250000003,33.25,75.124166656,13.603072916666667,65.30671411035355
1371054606.5,3.414505416666666,33.25,75.14500000000001,13.907031250000001,65.32139443781942
1371054606.75,3.4172796250000004,33.25,75.165833344,13.563463541666666,65.33607476528529
1371054607.0,3.421761041666667,33.25,75.18666666666667,14.791302083333333,65.35075509275116
1371054607.25,3.4306171666666665,33.25,75.21416665258667,15.123307291666665,65.36543542021703
1371054607.5,3.4444348750000002,33.25,75.24166666666667,14.744921875000001,65.36818798161687
1371054607.75,3.4604399583333336,33.25,75.26916668074666,16.277109375,65.36818798161687
1371054608.0,3.476178291666667,33.25,75.29666666666667,15.80140625,65.36818798161687
1371054608.25,3.491916625,33.25,75.3258333184,15.931380208333332,65.36818798161687
1371054608.5,3.507334833333333,33.25,75.355,17.244348958333333,65.36818798161687
1371054608.75,3.522646333333333,33.25,75.38416668160001,16.352213541666668,65.36818798161687
1371054609.0,3.5379045,33.25,75.41333333333334,17.032109375,65.36818798161687
1371054609.25,3.5518822916666664,33.25,75.44583331669334,17.081484375,65.36818798161687
1371054609.5,3.565326583333333,33.25,75.47833333333334,16.807838541666666,65.36818798161687
1371054609.75,3.5785574583333326,33.25,75.51083334997334,17.758567708333334,65.36818798161687
1371054610.0,3.5900811249999993,33.25,75.54333333333334,17.365078125,65.36818798161687
1371054610.25,3.597230083333333,33.25,75.58499997866667,17.794088541666667,65.36818798161687
1371054610.5,3.5987772499999995,33.25,75.62666666666667,18.563203124999998,65.36818798161687
1371054610.75,3.5974434999999994,33.25083333333333,75.66833335466666,17.687734375,65.36818798161687
1371054611.0,3.599950958333333,33.252500000000005,75.71,18.697656249999998,65.36818798161687
1371054611.25,3.607313291666667,33.25416666666667,75.76166664021333,19.260182291666666,65.36818798161687
1371054611.5,3.6157426249999998,33.255833333333335,75.81333333333333,17.653723958333334,65.36818798161687
1371054611.75,3.624171958333333,33.2575,75.86500002645333,18.570390624999998,65.36818798161687
1371054612.0,3.6326012916666666,33.259166666666665,75.91666666666667,18.774583333333332,65.36818798161687
1371054612.25,3.642097625,33.26083333333334,75.97333330432001,17.646588541666667,65.36818798161687
1371054612.5,3.651860708333333,33.2625,76.03,18.344088541666668,65.36818798161687
1371054612.75,3.661623791666667,33.26416666666667,76.08666669568,18.276666666666667,65.36818798161687
1371054613.0,3.6693062083333334,33.26583333333334,76.14333333333333,17.686484375,65.3636003792838
1371054613.25,3.674481166666667,33.267500000000005,76.20333330261333,18.400520833333335,65.34892005181793
1371054613.5,3.6776288333333333,33.26916666666667,76.26333333333332,17.993359375,65.33423972435206
1371054613.75,3.679549416666667,33.26916666666667,76.32333336405333,17.771067708333334,65.31955939688619
1371054614.0,3.6762416666666664,33.267500000000005,76.38333333333333,17.7246875,65.30487906942032
1371054614.25,3.6666386249999996,33.26583333333334,76.44749996714665,16.926901041666667,65.29019874195446
1371054614.5,3.655061625,33.264166666666675,76.51166666666666,17.627682291666666,65.27551841448859
1371054614.75,3.642417583333333,33.263333333333335,76.57583336618667,17.191953125,65.26083808702273
1371054615.0,3.6289732916666666,33.263333333333335,76.64,16.955052083333335,65.24615775955687
1371054615.25,3.6155290000000004,33.263333333333335,76.71083329706667,17.723411458333334,65.231477432091
1371054615.5,3.6020847083333334,33.263333333333335,76.78166666666667,16.788046875,65.21679710462513
1371054615.75,3.5886404166666668,33.26333333333334,76.85250003626666,16.499270833333334,65.20211677715928
1371054616.0,3.5772767916666672,33.263333333333335,76.92333333333333,17.003385416666667,65.19202405202648
1371054616.25,3.568420625,33.263333333333335,76.98749996714666,15.753749999999998,65.19202405202648
1371054616.5,3.562338666666667,33.263333333333335,77.05166666666668,14.303489583333333,65.19202405202648
1371054616.75,3.5604180833333334,33.26416666666667,77.11583336618668,13.105885416666666,65.19202405202648
1371054617.0,3.5637792083333335,33.26583333333333,77.18,10.181822916666667,65.19202405202648
1371054617.25,3.5721018333333334,33.267500000000005,77.23416663893333,8.826875,65.19202405202648
1371054617.5,3.5813314166666665,33.26916666666667,77.28833333333333,7.930625,65.19202405202648
1371054617.75,3.591628041666667,33.26916666666667,77.34250002773334,4.778880208333334,65.17499945506665
1371054618.0,3.602724916666667,33.267500000000005,77.39666666666666,2.3154687499999995,65.14359092509739
1371054618.25,3.6138217916666666,33.26583333333333,77.438333312,3.2198437499999994,65.11081542060265
1371054618.5,3.6249186666666673,33.26416666666667,77.47999999999999,1.6139062499999997,65.09896923958773
1371054618.75,3.635802125,33.262499999999996,77.521666688,-2.9283072916666666,65.11933998206827
1371054619.0,3.644178125,33.26083333333333,77.56333333333333,-3.0731510416666663,65.12392919402969
1371054619.25,3.6516471666666668,33.259166666666665,77.59249998506667,-0.3287239583333334,65.10966817188415
1371054619.5,3.6575157083333334,33.2575,77.62166666666667,7.170208333333332,65.09164092899347
1371054619.75,3.6594362916666667,33.255833333333335,77.65083334826666,15.592317708333333,65.06728537453778
1371054620.0,3.654741416666667,33.25416666666667,77.67999999999999,22.919635416666665,65.06723522501461
1371054620.25,3.645565166666667,33.2525,77.70583332010666,24.49533854166667,65.04957650932657
1371054620.5,3.6360688333333333,33.25083333333333,77.73166666666665,30.101848958333335,65.02667007096063
1371054620.75,3.6263590833333335,33.25083333333334,77.75750001322666,40.73278645833333,65.0329629008741
1371054621.0,3.615315583333333,33.252500000000005,77.78333333333333,50.36265624999999,65.0515950064361
1371054621.25,3.6032050833333336,33.25416666666667,77.80666665472,52.75299479166666,65.04881995225728
1371054621.5,3.591094583333333,33.255833333333335,77.83,62.40190104166667,65.02728775452196
1371054621.75,3.5799444166666667,33.2575,77.85333334527999,75.30380208333334,64.98269283152344
1371054622.0,3.5718352083333333,33.259166666666665,77.87666666666667,80.41903645833334,64.97442367983916
1371054622.25,3.5656465833333333,33.26083333333334,77.89833332223999,79.79463541666667,64.98720532108453
1371054622.5,3.561058458333333,33.2625,77.91999999999999,72.97885416666666,64.9967088865039
1371054622.75,3.557590708333333,33.26333333333334,77.94166667776,64.77510416666668,65.01077968934548
1371054623.0,3.5571105833333334,33.26333333333334,77.96333333333332,59.139453124999996,65.00715269100579
1371054623.25,3.5575907499999997,33.26333333333334,77.97999999146666,58.561822916666664,65.02472919731521
1371054623.5,3.5584443333333335,33.26333333333334,77.99666666666667,52.28388020833333,65.05537922868862
1371054623.75,3.5598847916666667,33.262499999999996,78.01333334186667,42.237864583333334,65.07385457000383
1371054624.0,3.562765708333334,33.26083333333333,78.03,32.17723958333333,65.09716603309543
1371054624.25,3.5668736666666665,33.259166666666665,78.0424999936,26.043619791666668,65.14504588925585
1371054624.5,3.5720486250000003,33.2575,78.055,14.367630208333333,65.19314429168334
1371054624.75,3.5778637916666667,33.255833333333335,78.0675000064,2.6385677083333334,65.23268617742617
1371054625.0,3.583892375,33.25416666666667,78.08,-5.057083333333334,65.25168382237386
1371054625.25,3.589814291666667,33.2525,78.09583332522666,-9.593619791666667,65.26848090849889
1371054625.5,3.596909875,33.25083333333333,78.11166666666666,-11.837005208333332,65.29232229119505
1371054625.75,3.6062995000000004,33.25,78.12750000810667,-13.726067708333334,65.317924748034
1371054626.0,3.6180365416666667,33.25,78.14333333333333,-15.836067708333333,65.33640136761517
1371054626.25,3.6330279583333334,33.25,78.16999998634667,-18.050260416666667,65.34610071364676
1371054626.5,3.648926375,33.25,78.19666666666666,-18.655364583333334,65.34538308975962
1371054626.75,3.6644513333333335,33.25,78.22333334698666,-17.099114583333332,65.3446654846111
1371054627.0,3.6798695833333332,33.25,78.25,-13.396145833333334,65.34115641504708
1371054627.25,3.6951277916666663,33.25,78.28916664661334,-9.409322916666667,65.33585308668053
1371054627.5,3.7093190000000003,33.25,78.32833333333333,-3.402213541666667,65.32815903212362
1371054627.75,3.7221230833333334,33.25,78.36750002005333,1.8133854166666659,65.3198672960191
1371054628.0,3.7330065416666667,33.25,78.40666666666667,6.0709374999999985,65.31157555991457
1371054628.25,3.7421294166666663,33.25,78.45499997525333,9.673567708333332,65.30328382381005
1371054628.5,3.7487448333333333,33.25,78.50333333333333,13.201458333333333,65.29499208770552
1371054628.75,3.752799458333333,33.25,78.55166669141335,18.205859375,65.286700351601
1371054629.0,3.75413325,33.25,78.60000000000001,21.20825520833333,65.27892684900301
1371054629.25,3.751679166666666,33.25,78.65249997312,24.278411458333334,65.27633568147036
1371054629.5,3.7474111249999997,33.25,78.70500000000001,27.812109375000002,65.27633568147036
1371054629.75,3.7423428333333333,33.25,78.75750002688001,27.961874999999996,65.27633568147036
1371054630.0,3.7362608749999997,33.25,78.81,26.410234374999998,65.27633568147036
1371054630.25,3.7301789166666666,33.25,78.86583330474667,26.014505208333333,65.27633568147036
1371054630.5,3.7240969583333334,33.25,78.92166666666667,23.250078125,65.27633568147036
1371054630.75,3.718015,33.24916666666667,78.97750002858666,19.315546875,65.27633568147036
1371054631.0,3.7131067499999997,33.2475,79.03333333333333,18.020989583333332,65.27633568147036
1371054631.25,3.709052125,33.24583333333334,79.08999997098667,17.73630208333333,65.27633568147036
1371054631.5,3.705851125,33.244166666666665,79.14666666666668,15.352604166666667,65.27633568147036
1371054631.75,3.7032369583333336,33.2425,79.20333336234667,12.206041666666666,65.27633568147036
1371054632.0,3.7007294583333334,33.24083333333333,79.26,12.862734375000002,65.27633568147036
1371054632.25,3.6987554583333337,33.23916666666667,79.30499997696,11.131510416666666,65.27633568147036
1371054632.5,3.6976350833333336,33.237500000000004,79.35,7.944296874999999,65.27633568147036
1371054632.75,3.6973149583333336,33.23583333333333,79.39500002304,9.427135416666667,65.27633568147036
1371054633.0,3.6980085000000003,33.23416666666666,79.44,8.725989583333332,65.27633568147036
1371054633.25,3.6978484166666674,33.232499999999995,79.4649999872,5.810468749999999,65.27633568147036
1371054633.5,3.6965680000000005,33.23083333333333,79.49000000000001,7.2241406249999995,65.27633568147036
1371054633.75,3.694060541666666,33.23,79.5150000128,9.232161458333334,65.27633568147036
1371054634.0,3.690699458333334,33.23,79.54,6.865755208333333,65.27633568147036
1371054634.25,3.6869115833333335,33.23,79.54749999616,6.089557291666666,65.27633568147036
1371054634.5,3.6828569583333333,33.23,79.555,9.317421874999999,65.27633568147036
1371054634.75,3.6783755416666666,33.229166666666664,79.56250000384,10.113463541666667,65.27633568147036
1371054635.0,3.673894125,33.2275,79.57,8.229609375,65.27633568147036
1371054635.25,3.669412708333333,33.225833333333334,79.56833333418666,10.581848958333333,65.27633568147036
1371054635.5,3.6649312916666665,33.22416666666666,79.56666666666666,12.663072916666666,65.27633568147036
1371054635.75,3.6610367499999996,33.222500000000004,79.56499999914665,10.559166666666666,65.27633568147036
1371054636.0,3.659809708333333,33.22083333333333,79.56333333333332,12.775729166666665,65.27633568147036
1371054636.25,3.662744,33.21916666666666,79.56000000170665,16.539244791666665,65.27633568147036
1371054636.5,3.6681323750000003,33.2175,79.55666666666666,15.084088541666667,65.27633568147036
1371054636.75,3.674747791666667,33.21583333333333,79.55333333162666,15.038411458333334,65.27633568147036
1371054637.0,3.682216833333333,33.21416666666667,79.55,18.608854166666667,65.27633568147036
1371054637.25,3.6901126666666664,33.2125,79.54416666965332,18.539583333333333,65.27633568147036
1371054637.5,3.6980085000000003,33.21083333333333,79.53833333333333,17.199453125,65.27633568147036
1371054637.75,3.705904333333333,33.21083333333333,79.53249999701333,18.9959375,65.27633568147036
1371054638.0,3.712946583333333,33.2125,79.52666666666666,20.270625,65.27633568147036
1371054638.25,3.7185483749999997,33.214166666666664,79.5183333376,19.762265625,65.27633568147036
1371054638.5,3.7233498750000003,33.215833333333336,79.50999999999999,20.759635416666665,65.27633568147036
1371054638.75,3.727031,33.217499999999994,79.5016666624,22.64638020833333,65.27633568147036
1371054639.0,3.7274577916666662,33.219166666666666,79.49333333333334,21.934322916666662,65.27633568147036
1371054639.25,3.7242034166666667,33.22083333333333,79.48500000426667,20.457161458333335,65.27633568147036
1371054639.5,3.7193485416666667,33.2225,79.47666666666666,21.272395833333334,65.27633568147036
1371054639.75,3.7141202083333336,33.22416666666667,79.46833332906667,21.061979166666667,65.27633568147036
1371054640.0,3.7087318333333337,33.225833333333334,79.46,20.031354166666667,65.27633568147036
1371054640.25,3.7032900833333335,33.2275,79.45416666965333,21.17828125,65.27633568147036
1371054640.5,3.697848333333333,33.229166666666664,79.44833333333332,19.548567708333334,65.27633568147036
1371054640.75,3.6921398333333335,33.23,79.44249999701333,17.59984375,65.27633568147036
1371054641.0,3.6872849166666666,33.23,79.43666666666667,18.642447916666665,65.27633568147036
1371054641.25,3.6838171250000005,33.23,79.43916666538667,16.88505208333333,65.27633568147036
1371054641.5,3.6801359999999996,33.23,79.44166666666666,14.4196875,65.27633568147036
1371054641.75,3.676241458333333,33.23,79.44416666794667,15.041484375000001,65.27789038198996
1371054642.0,3.672453583333334,33.23,79.44666666666667,13.785729166666668,65.28618211809447
1371054642.25,3.668345625,33.23,79.45416666282668,11.1821875,65.294473854199
1371054642.5,3.6640776250000004,33.23,79.46166666666667,11.005260416666667,65.30276559030351
1371054642.75,3.65959625,33.229166666666664,79.46916667050667,11.775520833333331,65.31105732640803
1371054643.0,3.6547414166666665,33.2275,79.47666666666667,9.235182291666668,65.31934906251256
1371054643.25,3.649246375,33.225833333333334,79.48666666154668,6.492864583333333,65.32764079861708
1371054643.5,3.6430577500000005,33.22416666666666,79.49666666666667,9.066770833333335,65.33593253472161
1371054643.75,3.6370291666666668,33.222500000000004,79.50666667178666,9.420260416666666,65.34422427082613
1371054644.0,3.6307338333333337,33.22083333333333,79.51666666666667,5.665026041666668,65.35251600693064
1371054644.25,3.623958333333333,33.21916666666666,79.52416666282667,6.792604166666667,65.36080774303517
1371054644.5,3.6178763750000003,33.2175,79.53166666666667,8.104843749999999,65.36909947913968
1371054644.75,3.6124880000000004,33.21458333333333,79.53916667050666,4.70234375,65.37583651472461
1371054645.0,3.607259708333333,33.21041666666667,79.54666666666667,5.233463541666667,65.37583651472461
1371054645.25,3.60208475,33.206250000000004,79.5508333312,8.177734375,65.37583651472461
1371054645.5,3.596856416666667,33.20208333333333,79.555,7.389635416666668,65.37583651472461
1371054645.75,3.5917881250000003,33.2,79.5591666688,6.51078125,65.37583651472461
1371054646.0,3.5872533333333334,33.2,79.56333333333333,9.077682291666667,65.37583651472461
1371054646.25,3.583412125,33.199999999999996,79.56749999786666,11.055130208333333,65.37583651472461
1371054646.5,3.5802645,33.2,79.57166666666666,9.932552083333333,65.37583651472461
1371054646.75,3.5772235833333337,33.19875,79.57583333546667,10.606901041666667,65.37583651472461
1371054647.0,3.574449416666667,33.19625,79.58,13.271510416666665,65.37583651472461
1371054647.25,3.5742360416666674,33.19375,79.5924999936,13.5165625,65.37583651472461
1371054647.5,3.5788775000000004,33.19125,79.60499999999999,14.264270833333335,65.37583651472461
1371054647.75,3.5886405833333335,33.191250000000004,79.6175000064,16.832578125,65.37583651472461
1371054648.0,3.604272208333334,33.19375,79.63,17.187005208333336,65.37583651472461
1371054648.25,3.625132166666667,33.19625,79.6549999872,17.004973958333334,65.37583651472461
1371054648.5,3.6489263750000003,33.19875,79.68,17.553515625,65.37583651472461
1371054648.75,3.6739476250000003,33.199999999999996,79.7050000128,17.13278645833333,65.37583651472461
1371054649.0,3.699235625,33.199999999999996,79.73,16.67020833333333,65.37583651472461
1371054649.25,3.7245769583333335,33.2,79.76333331626667,16.307161458333333,65.37583651472461
1371054649.5,3.7517322083333333,33.199999999999996,79.79666666666667,15.6309375,65.37583651472461
1371054649.75,3.7829420833333334,33.20125,79.83000001706667,15.383541666666666,65.36961771264622
1371054650.0,3.819352041666667,33.20375,79.86333333333333,15.003750000000002,65.36132597654169
1371054650.25,3.8550935833333333,33.20625,79.8966666496,13.886276041666664,65.35303424043717
1371054650.5,3.886300375,33.20875,79.93,13.120572916666665,65.34474250433266
1371054650.75,3.912438875,33.21,79.9633333504,13.148125,65.33645076822813
1371054651.0,3.9330289166666663,33.21,79.99666666666667,11.771458333333333,65.32815903212362
1371054651.25,3.949030833333333,33.21,80.0258333184,10.824739583333333,65.3198672960191
1371054651.5,3.962578666666666,33.21,80.055,12.097656249999998,65.31209379342111
1371054651.75,3.972231958333333,33.21,80.0841666816,11.786796875,65.31209379342111
1371054652.0,3.9791110416666666,33.21,80.11333333333333,9.955677083333333,65.3120937934211
1371054652.25,3.9840695,33.21,80.13583332181334,11.026666666666666,65.3120937934211
1371054652.5,3.985240083333333,33.21,80.15833333333333,10.705026041666668,65.3120937934211
1371054652.75,3.9805421249999995,33.21,80.18083334485333,8.475546875000001,65.3183125954995
1371054653.0,3.9697371249999995,33.21,80.20333333333333,8.883385416666668,65.32660433160402
1371054653.25,3.9572531666666664,33.21,80.21833332565333,9.292604166666667,65.33489606770854
1371054653.5,3.9446624999999997,33.21,80.23333333333333,7.3780729166666665,65.34318780381305
1371054653.75,3.9315916666666664,33.21,80.24833334101334,6.76984375,65.34888837238492
1371054654.0,3.9176672499999996,33.21,80.26333333333334,8.040963541666667,65.34940660589145
1371054654.25,3.902835916666666,33.21,80.26999999658668,7.997682291666666,65.34940660589145
1371054654.5,3.8872576666666667,33.21,80.27666666666667,6.41734375,65.34888837238492
1371054654.75,3.8744002500000003,33.20875,80.28333333674667,6.941822916666666,65.3405966362804
1371054655.0,3.863730208333333,33.206250000000004,80.29,9.228776041666666,65.33230490017588
1371054655.25,3.8542338750000003,33.20375000000001,80.29666666325333,8.346015625,65.32401316407136
1371054655.5,3.8462313333333333,33.201249999999995,80.30333333333334,8.801640625000001,65.31572142796684
1371054655.75,3.8400427083333337,33.19875,80.31000000341334,11.726953125,65.30742969186231
1371054656.0,3.8346010000000006,33.19625,80.31666666666666,12.026223958333333,65.29913795575779
1371054656.25,3.829212625,33.19375,80.32499999573334,12.806953125,65.29084621965326
1371054656.5,3.823664208333333,33.191250000000004,80.33333333333334,15.615260416666665,65.28255448354875
1371054656.75,3.8183825833333334,33.19,80.34166667093334,16.426015625,65.27685391497688
1371054657.0,3.8138478333333334,33.19,80.35000000000001,16.99833333333333,65.27633568147036
1371054657.25,3.8100599583333334,33.190000000000005,80.35999999488001,18.514583333333334,65.27633568147036
1371054657.5,3.80675225,33.19,80.37,19.787265625,65.27633568147036
1371054657.75,3.8038179999999997,33.191250000000004,80.38000000512,21.014635416666668,65.27737214848342
1371054658.0,3.800830375,33.19375,80.39,21.502213541666666,65.28307271705528
1371054658.25,3.7980028333333333,33.19625,80.39666666325334,22.94841145833333,65.2913644531598
1371054658.5,3.7935214583333337,33.19875,80.40333333333334,25.26502604166667,65.29965618926433
1371054658.75,3.787172833333333,33.2,80.41000000341333,26.699427083333333,65.30794792536885
1371054659.0,3.7809308749999997,33.2,80.41666666666667,27.395520833333336,65.31623966147336
1371054659.25,3.774955666666667,33.2,80.42333332992001,29.1159375,65.32453139757789
1371054659.5,3.769247208333334,33.199999999999996,80.43,30.466927083333335,65.3328231336824
1371054659.75,3.76369875,33.19875,80.43666667008,30.970703125,65.34111486978692
1371054660.0,3.7582570000000004,33.19625,80.44333333333334,32.825833333333335,65.34940660589145
1371054660.25,3.7529219583333338,33.19375,80.44999999658668,33.715703125,65.35769834199597
1371054660.5,3.7478536666666664,33.191250000000004,80.45666666666668,34.02333333333333,65.3659900781005
1371054660.75,3.742678666666667,33.18875,80.46333333674667,35.469609375,65.37324534719194
1371054661.0,3.737823791666667,33.18625,80.47000000000001,35.64302083333333,65.37583651472461
1371054661.25,3.7334490833333334,33.18375,80.47583333034667,34.423854166666665,65.37583651472461
1371054661.5,3.7309949583333335,33.18125,80.48166666666668,33.924557291666666,65.37583651472461
1371054661.75,3.7304080833333337,33.17916666666667,80.48750000298668,31.338515625,65.37583651472461
1371054662.0,3.729181,33.1775,80.49333333333334,30.318515625,65.37583651472461
1371054662.25,3.7270469583333337,33.17583333333333,80.49083333461334,29.188333333333333,65.37583651472461
1371054662.5,3.724272708333333,33.174166666666665,80.48833333333334,26.27091145833333,65.37583651472461
1371054662.75,3.7210716666666666,33.1725,80.48583333205333,25.849791666666665,65.37583651472461
1371054663.0,3.717443833333333,33.170833333333334,80.48333333333333,23.351744791666665,65.37583651472461
1371054663.25,3.7131757916666666,33.16916666666666,80.47500000426666,20.55244791666667,65.37583651472461
1371054663.5,3.708480958333334,33.1675,80.46666666666667,20.017942708333333,65.37583651472461
1371054663.75,3.7036260833333334,33.16583333333333,80.45833332906668,17.27796875,65.37583651472461
1371054664.0,3.6983977083333333,33.16416666666667,80.45,15.411015625,65.37583651472461
1371054664.25,3.6925824583333333,33.162499999999994,80.4375000064,15.8803125,65.37583651472461
1371054664.5,3.6865004999999997,33.160833333333336,80.42500000000001,14.074713541666666,65.37583651472461
1371054664.75,3.680151791666667,33.16,80.41249999360001,14.223255208333333,65.37583651472461
1371054665.0,3.6738031250000005,33.16,80.4,14.492578125,65.37583651472461
1371054665.25,3.6677745833333333,33.16,80.38916667221334,12.748255208333333,65.37583651472461
1371054665.5,3.6620661250000004,33.16,80.37833333333333,13.676250000000001,65.37583651472461
1371054665.75,3.656517708333334,33.16083333333333,80.36749999445334,13.041666666666666,65.37583651472461
1371054666.0,3.651129333333333,33.162499999999994,80.35666666666667,12.761067708333334,65.37583651472461
1371054666.25,3.64616775,33.16416666666667,80.34583333888,14.604296875000001,65.37583651472461
1371054666.5,3.64152625,33.16583333333333,80.33500000000001,14.099817708333333,65.37583651472461
1371054666.75,3.6371515,33.166666666666664,80.32416666112,14.036979166666667,65.37583651472461
1371054667.0,3.6330969166666667,33.166666666666664,80.31333333333333,15.653567708333334,65.37583651472461
1371054667.25,3.629469166666667,33.166666666666664,80.30250000554666,14.683697916666667,65.37583651472461
1371054667.5,3.6261614583333337,33.166666666666664,80.29166666666666,14.885755208333334,65.3764334980861
1371054667.75,3.622587,33.166666666666664,80.28083332778667,16.011223958333336,65.38598523187004
1371054668.0,3.618959208333333,33.166666666666664,80.27,14.843411458333334,65.39553696565396
1371054668.25,3.6156515,33.166666666666664,80.25583334058666,15.860494791666666,65.4050886994379
1371054668.5,3.6123971666666663,33.166666666666664,80.24166666666666,16.12684895833333,65.41464043322183
1371054668.75,3.608982791666666,33.16583333333333,80.22749999274666,15.279739583333333,65.42419216700576
1371054669.0,3.605568416666667,33.16416666666667,80.21333333333332,16.364140625,65.43374390078968
1371054669.25,3.6022607500000006,33.1625,80.19666667519999,15.400104166666665,65.44329563457362
1371054669.5,3.5987930416666667,33.16083333333333,80.17999999999999,14.803463541666668,65.45284736835754
1371054669.75,3.5950585833333335,33.15958333333333,80.16333332479999,16.260963541666666,65.46239910214148
1371054670.0,3.5912707083333335,33.15875,80.14666666666666,14.687083333333334,65.4719508359254
1371054670.25,3.5875361666666663,33.157916666666665,80.12666667690667,15.161953124999998,65.48150256970933
1371054670.5,3.583748333333333,33.15708333333333,80.10666666666665,16.370390625000002,65.49045732013177
1371054670.75,3.580494,33.15624999999999,80.08666665642666,14.736328125,65.48806938668578
1371054671.0,3.5775063750000005,33.15541666666667,80.06666666666666,16.221276041666666,65.47851765290186
1371054671.25,3.5741986250000006,33.15458333333333,80.05000000853333,17.152135416666667,65.4725478192869
1371054671.5,3.570570791666667,33.15375,80.03333333333333,16.27583333333333,65.46777195239493
1371054671.75,3.5671030416666674,33.15291666666666,80.01666665813333,18.206171875,65.46239910214148
1371054672.0,3.5637953333333336,33.15208333333333,80.0,18.301796875,65.45642926852652
1371054672.25,3.5606476666666667,33.15125,79.9875000064,18.535286458333335,65.44687753474258
1371054672.5,3.5577667500000003,33.150416666666665,79.975,20.238046875,65.43732580095866
1371054672.75,3.5549924999999996,33.15,79.9624999936,20.039895833333336,65.43016200062071
1371054673.0,3.5523783333333334,33.15,79.95,21.374375,65.42658010045174
1371054673.25,3.5498175,33.15,79.94333333674666,21.743359375,65.42658010045174
1371054673.5,3.5474700416666667,33.15,79.93666666666667,19.348411458333334,65.42658010045174
1371054673.75,3.5451225833333333,33.15,79.92999999658667,19.182161458333333,65.42896803389773
1371054674.0,3.543255291666666,33.15,79.92333333333333,18.063151041666668,65.43851976768165
1371054674.25,3.5419748749999997,33.15,79.9191666688,15.372838541666667,65.44448960129661
1371054674.5,3.5411212499999998,33.15,79.91499999999999,14.925312500000002,65.44926546818857
1371054674.75,3.540267625,33.15,79.9108333312,13.185625,65.45463831844204
1371054675.0,3.5391472499999996,33.15,79.90666666666667,10.257083333333332,65.46060815205699
1371054675.25,3.5377601249999997,33.15,79.90500000085333,9.664817708333333,65.47015988584091
1371054675.5,3.5363729999999998,33.15,79.90333333333334,6.642916666666667,65.47971161962485
1371054675.75,3.535145958333333,33.15,79.90166666581334,2.2144791666666666,65.4868754199628
1371054676.0,3.5339189166666665,33.15,79.9,-0.4435677083333336,65.49045732013177
1371054676.25,3.5327985833333333,33.15,79.90416666453334,-3.770286458333334,65.49045732013177
1371054676.5,3.53167825,33.15,79.90833333333333,-3.279296875,65.49045732013177
1371054676.75,3.530557916666666,33.15,79.91250000213334,-1.8729427083333337,65.49045732013177
1371054677.0,3.5294375833333334,33.15,79.91666666666667,-2.9875781250000006,65.49045732013177
1371054677.25,3.527997166666666,33.15,79.92499999573334,-1.6245052083333336,65.49045732013177
1371054677.5,3.5267167916666664,33.15,79.93333333333334,-0.2936458333333337,65.49045732013177
1371054677.75,3.5257565,33.15,79.94166667093333,-1.0866145833333338,65.49045732013177
1371054678.0,3.5251696666666663,33.15,79.95,1.1650781249999997,65.49045732013177
1371054678.25,3.5248495833333333,33.15,79.96416665941334,1.8136718749999996,65.49045732013177
1371054678.5,3.524156041666666,33.15,79.97833333333332,3.4210156249999994,65.49045732013177
1371054678.75,3.5230890416666667,33.15125,79.99250000725333,7.738307291666666,65.49045732013177
1371054679.0,3.5212751250000003,33.15375,80.00666666666666,9.975260416666666,65.49045732013177
1371054679.25,3.519461208333333,33.15624999999999,80.02333332479999,12.582994791666666,65.49045732013177
1371054679.5,3.5176472916666666,33.15875,80.03999999999999,13.75,65.49045732013177
1371054679.75,3.515833375,33.16125,80.0566666752,12.89421875,65.49045732013177
1371054680.0,3.5140194583333333,33.16375,80.07333333333334,13.947317708333332,65.49045732013177
1371054680.25,3.5125256250000003,33.16625,80.08833332565334,14.285520833333335,65.49045732013177
1371054680.5,3.511031791666667,33.16875,80.10333333333334,12.751953125,65.49045732013177
1371054680.75,3.5105516249999997,33.17125,80.11833334101334,13.693802083333333,65.49045732013177
1371054681.0,3.5113518750000003,33.173750000000005,80.13333333333334,13.184140625,65.49045732013177
1371054681.25,3.5130057499999996,33.176249999999996,80.14416666112001,11.245156249999999,65.49045732013177
1371054681.5,3.5151397916666665,33.17875,80.155,10.876614583333334,65.49045732013177
1371054681.75,3.5176472916666666,33.17916666666667,80.16583333888,9.742916666666668,65.49045732013177
1371054682.0,3.520901708333333,33.1775,80.17666666666668,7.517760416666666,65.49045732013177
1371054682.25,3.5241561249999998,33.17583333333334,80.18499999573334,7.106171875,65.47866850153983
1371054682.5,3.527410541666667,33.17416666666667,80.19333333333333,6.366223958333333,65.43834579942444
1371054682.75,3.53055825,33.1725,80.20166667093334,4.942734375,65.38528114511045
1371054683.0,3.5335458749999997,33.17083333333333,80.21,5.459114583333332,65.33221649079645
1371054683.25,3.535893291666666,33.16916666666666,80.22166666069333,4.668281250000001,65.27915183648247
1371054683.5,3.5376005,33.1675,80.23333333333332,4.2059114583333335,65.22608718216847
1371054683.75,3.538187333333333,33.165416666666665,80.24500000597332,4.540130208333333,65.17302252785449
1371054684.0,3.537333708333333,33.16291666666666,80.25666666666666,4.424244791666666,65.11995787354049
1371054684.25,3.535039625,33.16041666666667,80.27083332608,6.074010416666667,65.06689321922649
1371054684.5,3.5319452916666663,33.157916666666665,80.285,7.133802083333332,65.01382856491249
1371054684.75,3.5284241249999995,33.15625,80.29916667392,6.990963541666667,64.9607639105985
1371054685.0,3.52426275,33.15541666666667,80.31333333333333,8.912135416666667,64.90769925628452
1371054685.25,3.5195145416666667,33.15458333333333,80.32749999274667,9.968984375,64.86642342056246
1371054685.5,3.5147663333333328,33.153749999999995,80.34166666666667,11.6228125,64.86569088211127
1371054685.75,3.5101248333333337,33.15291666666666,80.35583334058667,14.61,64.88617842161221
1371054686.0,3.5056434166666666,33.15208333333333,80.37,14.804791666666667,64.92837056029494
1371054686.25,3.5018022083333338,33.15125,80.37833332906668,17.385520833333334,64.99231689009562
1371054686.5,3.4986012083333335,33.150416666666665,80.38666666666667,20.88057291666667,65.06118183040117
1371054686.75,3.495908625,33.15,80.39500000426666,21.034140625000003,65.1256844173663
1371054687.0,3.495378291666667,33.15,80.40333333333334,20.2496875,65.1789393445771
1371054687.25,3.4992226250000003,33.15,80.40333333333334,19.696067708333334,65.23939305901473
1371054687.5,3.5079217916666674,33.15,80.40333333333334,19.028593750000002,65.2929348542737
1371054687.75,3.520995708333334,33.15,80.40333333333334,22.586875000000003,65.34663569651431
1371054688.0,3.5376974583333336,33.15,80.40333333333334,23.843333333333334,65.40033653875493
1371054688.25,3.5550394166666663,33.15,80.39750000298667,23.234947916666666,65.45403738099554
1371054688.5,3.5723813750000004,33.15,80.39166666666668,19.255182291666667,65.49051440296161
1371054688.75,3.5897233333333336,33.15,80.38583333034667,17.2303125,65.5125014819265
1371054689.0,3.607065291666667,33.15,80.38000000000001,17.749427083333334,65.51752390658542
1371054689.25,3.6244072500000004,33.15,80.37000000512,14.505494791666669,65.50162742899242
1371054689.5,3.6417492083333336,33.15,80.36,12.383932291666666,65.48137019064058
1371054689.75,3.6575690833333336,33.15,80.34999999488,16.465911458333334,65.46850025072983
1371054690.0,3.67138675,33.15,80.33999999999999,23.598541666666666,65.46568463119044
1371054690.25,3.6814165833333337,33.15,80.33000000511998,30.358489583333334,65.44658979229735
1371054690.5,3.6872851250000003,33.15,80.32,35.309895833333336,65.43082183042662
1371054690.75,3.6892057500000006,33.15,80.30999999488,33.83638020833333,65.41489482157425
1371054691.0,3.6881387500000002,33.15,80.3,33.83567708333333,65.39896781272189
1371054691.25,3.687125083333333,33.15,80.29166667093332,36.25697916666667,65.38304080386952
1371054691.5,3.6852578333333335,33.15,80.28333333333333,42.758098958333335,65.37328387785213
1371054691.75,3.683177166666667,33.149166666666666,80.27499999573334,48.423046875000004,65.37336147431382
1371054692.0,3.6793815833333334,33.1475,80.26666666666667,50.576328125,65.36583209697615
1371054692.25,3.6832227916666667,33.145833333333336,80.26500000085333,55.831171875,65.35555607815671
1371054692.5,3.6916521249999996,33.14416666666666,80.26333333333332,60.00013020833333,65.34472220959127
1371054692.75,3.701682,33.141666666666666,80.26166666581332,58.418932291666664,65.3308633959251
1371054693.0,3.7129922500000005,33.138333333333335,80.25999999999999,52.364010416666666,65.31819792164195
1371054693.25,3.727930333333333,33.135,80.27083332778666,46.464192708333336,65.30926235679884
1371054693.5,3.754445458333334,33.13166666666667,80.28166666666667,42.15908854166667,65.26020188493632
1371054693.75,3.797863458333334,33.12916666666667,80.29250000554666,42.4165625,65.17434731138341
1371054694.0,3.849968375,33.127500000000005,80.30333333333333,42.912890624999996,65.07302950167961
1371054694.25,3.9019665833333335,33.12583333333334,80.32416665599999,40.19450520833333,64.96862570874588
1371054694.5,3.9548183750000003,33.12416666666667,80.345,35.33177083333333,64.86781617484817
1371054694.75,4.007883583333333,33.1225,80.365833344,29.283593749999998,64.74964294418915
1371054695.0,4.062663708333333,33.12083333333334,80.38666666666666,26.005104166666666,64.63910085425569
1371054695.25,4.109807041666667,33.119166666666665,80.41916665002665,21.72575520833333,64.53189450273342
1371054695.5,4.148894458333333,33.1175,80.45166666666665,16.817135416666666,64.42729154425793
1371054695.75,4.183447083333333,33.11666666666667,80.48416668330667,13.156953125,64.32358338118836
1371054696.0,4.214585333333333,33.11666666666667,80.51666666666667,13.026979166666665,64.22011907611731
1371054696.25,4.240601916666667,33.11666666666667,80.55416664746667,10.961666666666666,64.12176143573456
1371054696.5,4.253761083333333,33.11666666666667,80.59166666666667,9.864557291666666,64.06479460871815
1371054696.75,4.248416874999999,33.115833333333335,80.62916668586666,8.218177083333332,64.04706294820075
1371054697.0,4.2328919166666665,33.11416666666667,80.66666666666667,6.3721875,64.0424750596131
1371054697.25,4.216139916666667,33.1125,80.71249997653334,7.813489583333333,64.04317068947725
1371054697.5,4.198160875,33.11083333333333,80.75833333333334,10.883489583333334,64.03931638399753
1371054697.75,4.1786346666666665,33.11,80.80416669013334,12.322604166666666,64.047457053932
1371054698.0,4.157668,33.11,80.85000000000001,10.985338541666666,64.04098519988328
1371054698.25,4.132681,33.11,80.8999999744,9.624270833333332,64.03276320048595
1371054698.5,4.107408166666667,33.11,80.95,9.48328125,64.01740539900659
1371054698.75,4.086189958333333,33.11,81.0000000256,10.619166666666667,63.977865708227675
1371054699.0,4.0671057500000005,33.11,81.05,9.568098958333334,63.91974214250548
1371054699.25,4.0495153749999995,33.11,81.10416663893334,10.353958333333333,63.86140998475424
1371054699.5,4.0332053750000005,33.11,81.15833333333333,10.377083333333333,63.8164813292257
1371054699.75,4.018335791666667,33.11,81.21250002773333,8.485390624999999,63.765169089555535
1371054700.0,4.005120125,33.11,81.26666666666667,9.458697916666667,63.719663289866226
1371054700.25,3.9938250833333337,33.11,81.31916663978667,7.19140625,63.67647654935907
1371054700.5,3.984343916666667,33.11,81.37166666666667,1.2595312499999995,63.622454322269355
1371054700.75,3.977423541666667,33.11083333333333,81.42416669354667,-1.2668229166666671,63.57075675517237
1371054701.0,3.9737575416666666,33.1125,81.47666666666667,0.7242968749999997,63.56726922549217
1371054701.25,3.975925791666667,33.11416666666667,81.53166663850668,3.7597916666666666,63.5949178368929
1371054701.5,3.9835015000000005,33.115833333333335,81.58666666666667,4.908229166666666,63.626537548004414
1371054701.75,3.993851416666667,33.1175,81.64166669482667,4.1358854166666665,63.653691712178336
1371054702.0,4.007722458333333,33.119166666666665,81.69666666666667,4.9034635416666665,63.701626422309516
1371054702.25,4.0231406666666665,33.12083333333334,81.75499997013334,6.491901041666666,63.78986903209452
1371054702.5,4.03861225,33.1225,81.81333333333333,7.882291666666666,63.88486454946756
1371054702.75,4.054243916666667,33.123333333333335,81.87166669653334,9.575,63.99169984501689
1371054703.0,4.0697155,33.123333333333335,81.93,8.109947916666666,64.09504816480651
1371054703.25,4.0844935,33.123333333333335,81.99416663381334,9.761588541666665,64.1938798901921
1371054703.5,4.098684666666666,33.123333333333335,82.05833333333334,14.358541666666666,64.30354710216025
1371054703.75,4.1117555,33.1225,82.12250003285334,17.5509375,64.41243567025133
1371054704.0,4.122318833333333,33.12083333333334,82.18666666666667,16.536614583333332,64.48296261310686
1371054704.25,4.129094291666666,33.11916666666667,82.2533332992,13.743645833333332,64.5226791744346
1371054704.5,4.132455375,33.1175,82.32,12.063619791666666,64.56295704508678
1371054704.75,4.132348708333334,33.115833333333335,82.3866667008,11.147109375,64.63098755657019
1371054705.0,4.1287209166666665,33.11416666666667,82.45333333333333,10.179401041666665,64.6965775390411
1371054705.25,4.123545958333334,33.112500000000004,82.52583329621334,7.649062499999999,64.72231207188575
1371054705.5,4.117624083333333,33.11083333333333,82.59833333333333,4.78734375,64.73020933072904
1371054705.75,4.1111687083333335,33.11,82.67083337045334,3.0320572916666664,64.73020933072904
1371054706.0,4.1042865,33.11,82.74333333333334,0.898411458333333,64.73020933072904
1371054706.25,4.096924125,33.11,82.82083329365334,-3.1676562500000003,64.72831734213314
1371054706.5,4.089295,33.11,82.89833333333334,-7.804739583333333,64.71913596684938
1371054706.75,4.081772583333334,33.11,82.97583337301334,-13.121588541666666,64.70031125887307
1371054707.0,4.074837083333334,33.11,83.05333333333334,-15.939817708333331,64.65863095777293
1371054707.25,4.070248958333333,33.11,83.13416662528,-17.13083333333333,64.61443255394997
1371054707.5,4.067634791666666,33.11,83.215,-17.978593749999998,64.57676032776347
1371054707.75,4.065714166666667,33.11,83.29583337472,-17.500026041666665,64.55179642401
1371054708.0,4.063793541666667,33.11,83.37666666666667,-18.215625,64.53410477198167
1371054708.25,4.061872916666666,33.11,83.45833329151999,-18.162916666666664,64.53719400718471
1371054708.5,4.062353083333333,33.11,83.53999999999999,-17.53924479166667,64.54643374126236
1371054708.75,4.0661409583333326,33.11,83.62166670848,-16.057421875,64.56947584359914
1371054709.0,4.071689416666667,33.11,83.70333333333333,-13.282109375,64.60607246676389
1371054709.25,4.077931458333333,33.11,83.78583329109334,-8.084427083333333,64.66940944557668
1371054709.5,4.084600291666667,33.11,83.86833333333334,1.4662760416666671,64.74003581107733
1371054709.75,4.091535874999999,33.11,83.95083337557334,10.848854166666667,64.82030550927051
1371054710.0,4.098951583333333,33.11,84.03333333333335,16.674348958333333,64.92343080058754
1371054710.25,4.106527375,33.11,84.116666624,19.830182291666667,65.02907419462738
1371054710.5,4.114209833333334,33.11,84.20000000000002,21.001458333333336,65.12819141103078
1371054710.75,4.121892291666666,33.11,84.28333337600002,20.72458333333333,65.21460030500111
1371054711.0,4.12957475,33.11,84.36666666666667,21.578776041666668,65.29373694724633
1371054711.25,4.137630625,33.11,84.44916662442667,22.302630208333337,65.35209270226018
1371054711.5,4.144672791666667,33.11,84.53166666666667,23.09122395833333,65.4042979583994
1371054711.75,4.149367583333333,33.11,84.61416670890668,21.81236979166667,65.44270084627951
1371054712.0,4.152942041666667,33.11,84.69666666666667,20.383125000000003,65.46754921333164
1371054712.25,4.156303083333333,33.11,84.7758332928,18.497395833333332,65.46754921333164
1371054712.5,4.159290666666666,33.11,84.855,11.831614583333334,65.46754921333164
1371054712.75,4.162224916666666,33.11,84.9341667072,5.4558333333333335,65.46754921333164
1371054713.0,4.163878749999999,33.11,85.01333333333334,2.2552343749999997,65.46754921333164
1371054713.25,4.165159125,33.11,85.08833329493334,1.092578125,65.46754921333164
1371054713.5,4.167453166666666,33.11,85.16333333333333,1.2780208333333334,65.46754921333164
1371054713.75,4.170814208333333,33.11,85.23833337173332,-0.3561718750000001,65.46754921333164
1371054714.0,4.176202583333333,33.11,85.31333333333332,-2.3941927083333336,65.46667364717734
1371054714.25,4.184792,33.11,85.38416663039999,-5.444114583333334,65.46177707539832
1371054714.5,4.19396825,33.11,85.45499999999998,-9.708125,65.45632305885786
1371054714.75,4.200903749999999,33.10916666666667,85.52583336959998,-12.025755208333335,65.44445212004028
1371054715.0,4.206932291666667,33.107499999999995,85.59666666666665,-13.39359375,65.42404763863608
1371054715.25,4.212960833333334,33.10583333333333,85.65999996757333,-16.725494791666666,65.40344346199463
1371054715.5,4.219202791666667,33.104166666666664,85.72333333333333,-16.7965625,65.38224019964143
1371054715.75,4.225231333333333,33.1025,85.78666669909333,-15.511249999999999,65.35923968015298
1371054716.0,4.232273541666666,33.100833333333334,85.85000000000001,-20.410859375,65.33683824637627
1371054716.25,4.239955958333334,33.09916666666667,85.90999996928001,-27.646848958333337,65.31443681259957
1371054716.5,4.246304625,33.097500000000004,85.97,-29.85151041666667,65.29303385500911
1371054716.75,4.2515862916666665,33.09583333333334,86.03000003071999,-26.440390625000003,65.27306829044107
1371054717.0,4.254840625,33.094166666666666,86.08999999999999,-21.492005208333335,65.25485612569963
1371054717.25,4.2545205,33.0925,86.14083330730666,-11.594609375000003,65.23934821607446
1371054717.5,4.253773625,33.090833333333336,86.19166666666666,-0.170807291666668,65.22439775121073
1371054717.75,4.25926875,33.09,86.24250002602666,6.509505208333333,65.21586420862413
1371054718.0,4.270899125,33.09,86.29333333333334,12.089218749999999,65.21286755732093
1371054718.25,4.287971208333333,33.09,86.34083330901333,17.060468750000002,65.20475601790638
1371054718.5,4.309117,33.09,86.38833333333335,17.194479166666664,65.18715274474447
1371054718.75,4.330262791666667,33.09,86.43583335765335,16.863515624999998,65.16606019480669
1371054719.0,4.351301875,33.09,86.48333333333335,22.546041666666667,65.14436855915717
1371054719.25,4.371540708333334,33.09,86.52083331413334,31.769921874999998,65.12267692350765
1371054719.5,4.391779541666666,33.09,86.55833333333334,35.643984374999995,65.09998681167187
1371054719.75,4.412018375,33.09,86.59583335253335,34.83927083333334,65.07377238867977
1371054720.0,4.432222958333333,33.09,86.63333333333334,34.64924479166667,65.0435497548145
1371054720.25,4.450880375,33.09,86.66249998506667,28.898750000000003,65.01151349425685
1371054720.5,4.46740375,33.09,86.69166666666666,21.413177083333334,64.97947723369917
1371054720.75,4.477845208333334,33.09,86.72083334826667,19.728515625,64.9474409731415
1371054721.0,4.481564541666667,33.09,86.75,16.918958333333332,64.91840136388703
1371054721.25,4.479201958333333,33.09,86.76666665813333,14.619817708333334,64.89467633798115
1371054721.5,4.471698666666667,33.09,86.78333333333333,15.97625,64.88104213153441
1371054721.75,4.46227475,33.09,86.80000000853333,16.547265625,64.8726944589988
1371054722.0,4.451463708333333,33.09,86.81666666666666,16.583098958333334,64.86434678646314
1371054722.25,4.440225874999999,33.09,86.82333332991999,14.13572916666667,64.85599911392752
1371054722.5,4.428988041666666,33.09,86.82999999999998,12.523020833333334,64.8476514413919
1371054722.75,4.4177502083333335,33.09,86.83666667007999,13.782890625,64.84139068699017
1371054723.0,4.406546625,33.09,86.84333333333332,11.185546875,64.8382603097893
1371054723.25,4.396890208333333,33.09,86.84499999914665,8.822838541666668,64.8382603097893
1371054723.5,4.3885142083333335,33.09,86.84666666666666,9.601744791666667,64.8382603097893
1371054723.75,4.382912416666667,33.09,86.84833333418666,7.557291666666667,64.8382603097893
1371054724.0,4.379924791666666,33.09,86.85,4.925572916666666,64.8382603097893
1371054724.25,4.3775773749999995,33.09,86.84833333418666,4.731875,64.8382603097893
1371054724.5,4.3762969583333335,33.09,86.84666666666666,3.95296875,64.8382603097893
1371054724.75,4.376937166666667,33.09,86.84499999914665,1.6660156249999998,64.8382603097893
1371054725.0,4.3789644999999995,33.09,86.84333333333332,-0.634375,64.8382603097893
1371054725.25,4.381418625,33.09,86.82416667647999,0.5567187499999999,64.83878203932278
1371054725.5,4.382965791666667,33.09,86.80499999999999,1.469348958333333,64.84608625279145
1371054725.75,4.383125833333334,33.09,86.78583332352,-1.0634114583333336,64.85443392532709
1371054726.0,4.382485625,33.09,86.76666666666667,-0.8258333333333333,64.86278159786272
1371054726.25,4.381098541666667,33.09,86.72750002005333,3.2170312500000002,64.87112927039836
1371054726.5,4.379444708333334,33.09,86.68833333333333,3.297838541666667,64.87947694293398
1371054726.75,4.37640375,33.08916666666667,86.64916664661334,2.028515625,64.88782461546961
1371054727.0,4.371655625,33.087500000000006,86.61,4.211901041666667,64.90289988010473
1371054727.25,4.36664075,33.08583333333333,86.55583336106666,6.292343750000001,64.92662490601059
1371054727.5,4.361465791666666,33.08416666666667,86.50166666666667,4.701875,64.94458342440262
1371054727.75,4.3561841249999995,33.0825,86.44749997226667,3.81984375,64.96558332710222
1371054728.0,4.350689041666667,33.08083333333334,86.39333333333333,4.867630208333333,64.9777753379804
1371054728.25,4.345193958333334,33.079166666666666,86.3391666944,2.8586458333333327,64.98548095331722
1371054728.5,4.340605833333333,33.07750000000001,86.285,-1.6033072916666669,64.98122623436582
1371054728.75,4.337404833333333,33.074999999999996,86.2308333056,-2.530286458333333,64.99488030412488
1371054729.0,4.335004083333334,33.071666666666665,86.17666666666668,-0.4363020833333331,65.01529379157724
1371054729.25,4.333670333333333,33.068333333333335,86.12666669226668,-1.1027343749999996,65.0434098526153
1371054729.5,4.3372257083333325,33.065000000000005,86.07666666666668,-0.8615104166666662,65.07969944582497
1371054729.75,4.352518125,33.06333333333333,86.02666664106667,1.628697916666667,65.12124609329219
1371054730.0,4.379993458333334,33.06333333333333,85.97666666666667,2.1778125000000004,65.15383454988938
1371054730.25,4.415311291666666,33.06333333333333,85.92666669226668,-0.8574739583333328,65.17984165403828
1371054730.5,4.455964166666667,33.06333333333333,85.87666666666668,-0.16955729166666625,65.22628293678073
1371054730.75,4.500725,33.06333333333333,85.82666664106668,1.4918489583333336,65.27142985521117
1371054731.0,4.547280208333333,33.06333333333333,85.77666666666669,0.9170052083333337,65.32566251232451
1371054731.25,4.593835416666667,33.06333333333333,85.7308333568,1.4156250000000004,65.38385983544576
1371054731.5,4.640390624999999,33.06333333333333,85.685,4.549765625,65.44723500892003
1371054731.75,4.686945833333334,33.06416666666667,85.6391666432,5.643151041666666,65.49165793461688
1371054732.0,4.733501041666666,33.06583333333334,85.59333333333332,2.49796875,65.52932144262043
1371054732.25,4.779736125,33.0675,85.55333335381333,-0.97015625,65.55928237703826
1371054732.5,4.819141958333334,33.06916666666667,85.51333333333332,-3.1234114583333334,65.5810697792845
1371054732.75,4.842649458333334,33.07,85.47333331285333,-4.716796875,65.5976001272732
1371054733.0,4.847251875,33.07,85.43333333333334,-6.185026041666667,65.61636107403241
1371054733.25,4.8387301250000005,33.07,85.4041666816,-5.402083333333334,65.63245794883292
1371054733.5,4.824446541666667,33.07,85.375,-5.895442708333333,65.62899837741564
1371054733.75,4.804614541666667,33.07,85.3458333184,-6.265182291666666,65.61134987963017
1371054734.0,4.781761125,33.07,85.31666666666666,-3.7863281250000007,65.5933425308795
1371054734.25,4.758907708333333,33.07,85.30083334144,-2.976067708333334,65.57011560252236
1371054734.5,4.735734166666667,33.07,85.285,-1.5985677083333336,65.55429867874155
1371054734.75,4.712453916666667,33.07,85.26916665856,2.1767968749999995,65.5426997338042
1371054735.0,4.689440416666667,33.07,85.25333333333333,8.617734375,65.53376478676022
1371054735.25,4.6665336250000005,33.07,85.24666667008,14.953828125000001,65.52899948167008
1371054735.5,4.645887083333334,33.07,85.24000000000001,20.188333333333333,65.51946887148982
1371054735.75,4.629615208333333,33.07,85.23333332992,22.863489583333333,65.51649055580849
1371054736.0,4.620332208333333,33.07,85.22666666666667,21.983255208333333,65.51112958758209
1371054736.25,4.616330875,33.07,85.22583333376001,22.861770833333335,65.50874693503702
1371054736.5,4.612703041666667,33.07,85.225,28.79091145833333,65.51423137331136
1371054736.75,4.610462333333333,33.07,85.22416666624,34.91697916666667,65.53215771795834
1371054737.0,4.609662083333333,33.07,85.22333333333333,36.03143229166667,65.55016506670903
1371054737.25,4.608595083333333,33.07,85.22250000042666,40.797916666666666,65.57339199506616
1371054737.5,4.607314708333333,33.07,85.22166666666666,45.116796875000006,65.58920891884698
1371054737.75,4.60571425,33.07,85.22083333290666,42.92005208333333,65.60485085953874
1371054738.0,4.60342025,33.07,85.22,36.83026041666667,65.6218717980916
1371054738.25,4.601019541666667,33.07,85.22416666453333,35.62966145833333,65.63472294926311
1371054738.5,4.598565458333334,33.07,85.22833333333332,33.271328125000004,65.65701248538889
1371054738.75,4.596164750000001,33.07083333333333,85.23250000213334,34.444270833333334,65.6475336774976
1371054739.0,4.59387075,33.0725,85.23666666666666,40.065546875,65.6455859339503
1371054739.25,4.591896833333333,33.07416666666666,85.24333332992,42.53458333333333,65.63727673664125
1371054739.5,4.59424425,33.075833333333335,85.25,36.021015625,65.60598933283414
1371054739.75,4.607901916666667,33.0775,85.25666667008,28.036458333333332,65.57079562419462
1371054740.0,4.631109291666667,33.07916666666667,85.26333333333334,23.967734375000003,65.54074832823815
1371054740.25,4.656343958333333,33.08083333333333,85.27249999530667,17.224609375,65.52071118220117
1371054740.5,4.682112125000001,33.0825,85.28166666666667,10.259010416666667,65.50370220105516
1371054740.75,4.708307083333334,33.08416666666667,85.29083333802666,9.183255208333334,65.48567527927105
1371054741.0,4.734928833333334,33.08583333333333,85.3,10.064427083333333,65.4636053617325
1371054741.25,4.761550583333333,33.0875,85.30833332906667,5.257838541666667,65.44153558962147
1371054741.5,4.788172333333333,33.08916666666667,85.31666666666666,2.0729947916666664,65.41479273764627
1371054741.75,4.814794083333333,33.09,85.32500000426666,-2.7807031250000005,65.4132659351892
1371054742.0,4.8414158333333335,33.09,85.33333333333333,-8.737994791666667,65.40659072093322
1371054742.25,4.86798425,33.09,85.33999999658667,-12.438984374999999,65.40389430789394
1371054742.5,4.890444708333334,33.09,85.34666666666666,-10.682734375,65.42119778567135
1371054742.75,4.901754958333333,33.09,85.35333333674666,-7.760390625,65.4424075682812
1371054743.0,4.903675541666667,33.09,85.36,-3.578723958333334,65.45751593241326
1371054743.25,4.903622166666667,33.09,85.36416666453333,2.039270833333333,65.46309164952321
1371054743.5,4.903568791666667,33.09,85.36833333333334,7.1771875,65.46834336256426
1371054743.75,4.903515416666667,33.09,85.37250000213334,10.25671875,65.46623418031801
1371054744.0,4.903462041666667,33.09,85.37666666666667,12.143671875,65.46985249944566
1371054744.25,4.9034086666666665,33.09,85.37749999957333,17.02265625,65.47008998419709
1371054744.5,4.903248625,33.09,85.37833333333333,22.792682291666665,65.47426496780592
1371054744.75,4.900314375,33.09,85.37916666709333,26.382578125,65.47680953876313
1371054745.0,4.895352791666666,33.09,85.38,31.124635416666663,65.4729895155842
1371054745.25,4.888470583333333,33.09,85.37500000256,34.98960937499999,65.46916949240527
1371054745.5,4.8794010000000005,33.09,85.37,36.54908854166667,65.46534946922634
1371054745.75,4.868837625,33.08916666666667,85.36499999744,39.250781249999996,65.45375430062406
1371054746.0,4.856887166666667,33.0875,85.36,37.63755208333333,65.44933330965097
1371054746.25,4.844136458333334,33.08583333333333,85.35500000255999,35.657578125,65.42940633114414
1371054746.5,4.830692208333333,33.08416666666667,85.35,34.982734375,65.40677519181524
1371054746.75,4.816020916666667,33.083333333333336,85.34499999744,33.03736979166666,65.38847989265729
1371054747.0,4.800335958333333,33.083333333333336,85.33999999999999,32.77625,65.36445709212545
1371054747.25,4.784010791666667,33.083333333333336,85.33500000256,31.932447916666664,65.34381512596981
1371054747.5,4.767205458333334,33.083333333333336,85.32999999999998,29.132812499999996,65.31923566095679
1371054747.75,4.7528542499999995,33.0825,85.32499999743999,28.366380208333336,65.2962866085954
1371054748.0,4.740103541666667,33.08083333333334,85.32,26.49078125,65.27970215037013
1371054748.25,4.728313125000001,33.07916666666667,85.32249999871999,25.62369791666666,65.26311769214486
1371054748.5,4.717643083333333,33.0775,85.32499999999999,25.541197916666665,65.2465332339196
1371054748.75,4.707773291666666,33.07666666666667,85.32750000128,22.767578125,65.2377239211177
1371054749.0,4.6984903749999996,33.07666666666667,85.33,23.444531249999997,65.22269543648132
1371054749.25,4.689047416666666,33.07666666666667,85.33833332906667,22.657734375,65.22269543648132
1371054749.5,4.679444375,33.07666666666667,85.34666666666666,19.747838541666663,65.22269543648132
1371054749.75,4.670588208333333,33.074999999999996,85.35500000426667,20.442604166666666,65.22269543648132
1371054750.0,4.662212208333334,33.071666666666665,85.36333333333334,19.861406249999998,65.22269543648132
1371054750.25,4.653196041666667,33.068333333333335,85.37416666112001,17.118489583333332,65.22269543648132
1371054750.5,4.643539666666666,33.065000000000005,85.38500000000002,16.710182291666666,65.22269543648132
1371054750.75,4.63388325,33.06333333333334,85.39583333888001,16.93609375,65.22269543648132
1371054751.0,4.624280208333333,33.06333333333333,85.40666666666668,15.9615625,65.22269543648132
1371054751.25,4.614890625,33.06333333333333,85.41499999573334,14.308463541666667,65.22269543648132
1371054751.5,4.606034541666667,33.06333333333333,85.42333333333335,14.2784375,65.22269543648132
1371054751.75,4.597711916666667,33.0625,85.43166667093334,14.804270833333332,65.22269543648132
1371054752.0,4.589549291666667,33.060833333333335,85.44,12.955703125,65.22269543648132
1371054752.25,4.582080250000001,33.05916666666667,85.44249999872,13.538802083333332,65.22269543648132
1371054752.5,4.575144750000001,33.0575,85.445,14.532239583333334,65.22269543648132
1371054752.75,4.568422666666667,33.0575,85.44750000128,12.623776041666666,65.22269543648132
1371054753.0,4.561700583333333,33.05916666666666,85.45,13.413932291666667,65.22269543648132
1371054753.25,4.555725333333333,33.060833333333335,85.44583333546667,15.307447916666666,65.22269543648132
1371054753.5,4.550763708333332,33.0625,85.44166666666666,14.206093749999999,65.22269543648132
1371054753.75,4.545588708333333,33.0625,85.43749999786667,14.565130208333334,65.22269543648132
1371054754.0,4.540627083333333,33.06083333333333,85.43333333333334,16.89453125,65.22269543648132
1371054754.25,4.536412333333334,33.05916666666666,85.42083333973333,16.88674479166667,65.22269543648132
1371054754.5,4.532464333333333,33.0575,85.40833333333333,16.7225,65.22269543648132
1371054754.75,4.528676416666666,33.0575,85.39583332693333,19.104505208333332,65.22269543648132
1371054755.0,4.525368666666666,33.05916666666666,85.38333333333333,20.398828124999998,65.22269543648132
1371054755.25,4.522541041666666,33.06083333333333,85.35833334613334,19.779791666666668,65.22269543648132
1371054755.5,4.52014025,33.0625,85.33333333333334,21.834817708333333,65.22269543648132
1371054755.75,4.518272958333333,33.06333333333333,85.30833332053334,24.041171875000003,65.22269543648132
1371054756.0,4.5172592499999995,33.06333333333333,85.28333333333335,23.28708333333333,65.22269543648132
1371054756.25,4.516939166666666,33.06333333333333,85.25000001706667,23.329739583333335,65.22269543648132
1371054756.5,4.5168325,33.06333333333333,85.21666666666667,25.043359374999998,65.22269543648132
1371054756.75,4.517259333333333,33.064166666666665,85.18333331626667,24.39229166666667,65.22269543648132
1371054757.0,4.51784625,33.06583333333334,85.14999999999999,22.754713541666664,65.22269543648132
1371054757.25,4.518326458333333,33.0675,85.11000002047999,23.63158854166667,65.22269543648132
1371054757.5,4.519073416666666,33.06916666666667,85.07,23.88940104166667,65.22269543648132
1371054757.75,4.519820374999999,33.07,85.02999997952,21.750208333333333,65.22269543648132
1371054758.0,4.520033833333334,33.07,84.99,22.057682291666666,65.22269543648132
1371054758.25,4.5198205,33.07,84.94833335466666,23.204791666666665,65.22269543648132
1371054758.5,4.518593458333333,33.07,84.90666666666667,21.336796875,65.22269543648132
1371054758.75,4.517099666666667,33.07,84.86499997866667,20.78033854166667,65.22269543648132
1371054759.0,4.515285791666667,33.07,84.82333333333334,21.77658854166667,65.22269543648132
1371054759.25,4.513311833333334,33.07,84.781666688,21.492968750000003,65.22269543648132
1371054759.5,4.511337875,33.07,84.74000000000001,21.173828125,65.22269543648132
1371054759.75,4.5093639166666675,33.07,84.698333312,20.697578125,65.22269543648132
1371054760.0,4.508777041666667,33.07,84.65666666666667,20.709088541666667,65.22269543648132
1371054760.25,4.512404833333334,33.07,84.61583335424,19.617630208333335,65.22269543648132
1371054760.5,4.522114583333334,33.07,84.575,17.011197916666667,65.22281519729545
1371054760.75,4.537159375000001,33.068333333333335,84.53416664576001,16.899635416666666,65.22544867079434
1371054761.0,4.5531110833333335,33.065,84.49333333333334,15.61390625,65.24043842016358
1371054761.25,4.5694895833333335,33.06166666666667,84.451666688,11.457942708333334,65.27593314068515
1371054761.5,4.587521958333333,33.05833333333333,84.41,9.382421875,65.30923975163577
1371054761.75,4.6058744166666665,33.055,84.368333312,6.44125,65.33853723462995
1371054762.0,4.627321208333333,33.05166666666667,84.32666666666667,0.178307291666667,65.37669110592577
1371054762.25,4.651862333333333,33.04833333333334,84.28250002261333,-5.585807291666666,65.41456784389696
1371054762.5,4.676403458333334,33.045,84.23833333333333,-8.439244791666665,65.44697204121874
1371054762.75,4.700944583333333,33.042500000000004,84.19416664405333,-10.855078124999999,65.47897933753363
1371054763.0,4.724098625,33.04083333333333,84.14999999999999,-11.726328125,65.51082787344576
1371054763.25,4.745598833333333,33.03916666666667,84.10333335722666,-10.585494791666667,65.5426764093579
1371054763.5,4.766245375,33.0375,84.05666666666667,-7.764296874999999,65.5744051844559
1371054763.75,4.784117666666666,33.0375,84.00999997610667,-7.5090625,65.60362024686914
1371054764.0,4.801616541666667,33.03916666666667,83.96333333333334,-6.597005208333333,65.62047903341202
1371054764.25,4.8191154166666665,33.04083333333333,83.91333335893334,-2.422682291666666,65.61683284880259
1371054764.5,4.835867375,33.0425,83.86333333333334,-0.33179687499999955,65.61537477376409
1371054764.75,4.852299250000001,33.045,83.81333330773333,3.285338541666667,65.6081335317818
1371054765.0,4.865636791666667,33.04833333333333,83.76333333333334,9.606432291666666,65.55292335040885
1371054765.25,4.874866375,33.05166666666666,83.7091666944,14.526848958333334,65.48172494961152
1371054765.5,4.8832423333333335,33.055,83.655,16.469661458333334,65.41539630609505
1371054765.75,4.887563666666667,33.0575,83.6008333056,19.2153125,65.35311709696558
1371054766.0,4.890624166666666,33.05916666666667,83.54666666666667,19.37684895833333,65.29998492923103
1371054766.25,4.890376916666667,33.060833333333335,83.48500003157334,17.7590625,65.24119744336173
1371054766.5,4.884261166666667,33.0625,83.42333333333333,15.629479166666664,65.18417588810223
1371054766.75,4.872223583333334,33.064166666666665,83.36166663509333,14.411588541666665,65.12727491750846
1371054767.0,4.857038333333333,33.06583333333334,83.3,13.077838541666665,65.07149673888661
1371054767.25,4.840732708333333,33.0675,83.22916670293333,11.0646875,65.01383373097751
1371054767.5,4.823432958333334,33.06916666666667,83.15833333333333,10.456458333333332,64.95721345837673
1371054767.75,4.805012875,33.07,83.08749996373334,8.206744791666667,64.91683835489799
1371054768.0,4.786592791666666,33.07,83.01666666666667,6.353828125,64.92729824261004
1371054768.25,4.769186333333334,33.07,82.93416670890667,6.6580989583333325,64.9599810309562
1371054768.5,4.753220333333333,33.07,82.85166666666666,6.631588541666666,64.99022837344732
1371054768.75,4.741575708333333,33.07,82.76916662442666,4.728958333333333,65.02010096155774
1371054769.0,4.731191916666666,33.07,82.68666666666667,4.013463541666666,65.04086549378808
1371054769.25,4.72166175,33.07,82.59833337856,5.090494791666666,65.0877672399739
1371054769.5,4.7127717916666665,33.07,82.50999999999999,5.10265625,65.14419285488289
1371054769.75,4.7072428749999995,33.07,82.42166662144,3.2214843749999993,65.20109382547666
1371054770.0,4.704861625,33.07,82.33333333333333,1.0220312499999995,65.25687200409851
1371054770.25,4.7038675,33.07,82.2416667136,-1.6689062500000007,65.31453501200761
1371054770.5,4.704294333333333,33.07,82.14999999999999,-4.577005208333334,65.3711552846084
1371054770.75,4.7065884166666665,33.07,82.05833328639999,-6.320703125000001,65.42132268298737
1371054771.0,4.711763375,33.07,81.96666666666665,-8.322421875000002,65.4597676412646
1371054771.25,4.7228602083333335,33.07,81.87416671402666,-11.326796875,65.49225505165673
1371054771.5,4.740092375000001,33.07,81.78166666666667,-12.429869791666668,65.52778069127241
1371054771.75,4.763867083333333,33.07,81.68916661930668,-12.636171875,65.56002855188872
1371054772.0,4.789436125000001,33.07,81.59666666666668,-13.224609375,65.59239618739292
1371054772.25,4.8150051666666664,33.07,81.50166671530667,-15.519114583333334,65.60428192707641
1371054772.5,4.840574208333334,33.07,81.40666666666667,-16.252265625000003,65.60487786742691
1371054772.75,4.86614325,33.07,81.31166661802666,-14.095755208333335,65.60344835945529
1371054773.0,4.891712291666667,33.07,81.21666666666665,-11.332994791666666,65.59963633819764
1371054773.25,4.917014583333334,33.07,81.12250004821333,-7.898776041666668,65.59089502599396
1371054773.5,4.938422291666667,33.07,81.02833333333334,-3.332630208333334,65.57940981832986
1371054773.75,4.95278775,33.06916666666667,80.93416661845333,-0.3890625000000005,65.56593616069358
1371054774.0,4.959630833333334,33.0675,80.84,2.4879687499999994,65.55130849333699
1371054774.25,4.959965208333334,33.06583333333334,80.74833338026667,5.104869791666666,65.53174212752036
1371054774.5,4.953043916666666,33.064166666666665,80.65666666666667,6.4214062499999995,65.51169888982646
1371054774.75,4.93845975,33.0625,80.56499995306667,8.450963541666667,65.49524019000609
1371054775.0,4.921120958333334,33.06083333333333,80.47333333333334,10.068645833333333,65.4822042736096
1371054775.25,4.9036220833333335,33.05916666666666,80.38583337813334,14.128697916666667,65.46470985803471
1371054775.5,4.886123208333333,33.0575,80.29833333333335,18.853463541666667,65.44163683468183
1371054775.75,4.868624333333333,33.05583333333333,80.21083328853334,21.662447916666668,65.42589091403556
1371054776.0,4.851125458333333,33.05416666666667,80.12333333333333,23.738932291666668,65.4149164719884
1371054776.25,4.833626583333333,33.0525,80.03416671232,23.489817708333334,65.4090305628917
1371054776.5,4.819595458333333,33.05083333333334,79.945,21.175859374999998,65.41153555417532
1371054776.75,4.814580541666667,33.049166666666665,79.85583328768,21.770755208333338,65.42167369321116
1371054777.0,4.821622791666667,33.0475,79.76666666666667,21.3165625,65.43344234462451
1371054777.25,4.838108041666667,33.04583333333333,79.68000004437333,21.82421875,65.45253220778393
1371054777.5,4.8598216249999995,33.04416666666667,79.59333333333333,21.114244791666668,65.47209894282064
1371054777.75,4.882388791666667,33.04333333333333,79.50666662229334,20.12528645833333,65.48593687802637
1371054778.0,4.90591625,33.04333333333333,79.42,20.091484375,65.4951607731652
1371054778.25,4.929603791666667,33.04333333333333,79.34000004096,17.017578125,65.50884316748242
1371054778.5,4.9532913333333335,33.04333333333333,79.26,12.583020833333334,65.52810416957766
1371054778.75,4.976978875,33.0425,79.17999995904,8.128151041666666,65.54146757693789
1371054779.0,4.999439333333333,33.04083333333333,79.10000000000001,4.1959375,65.55244201898505
1371054779.25,5.018485375,33.03916666666667,79.03166670165334,3.1137499999999996,65.56325721902778
1371054779.5,5.034597166666667,33.0375,78.96333333333334,2.63515625,65.56842541415058
1371054779.75,5.045480625,33.03666666666667,78.89499996501334,0.337942708333333,65.56794891149339
1371054780.0,5.046494291666666,33.03666666666667,78.82666666666667,-0.903307291666667,65.56699590617897
1371054780.25,5.036624458333333,33.03666666666667,78.7683333632,-2.2466927083333337,65.56366038757854
1371054780.5,5.020566,33.03666666666667,78.71,-1.8346614583333336,65.56032486897807
1371054780.75,5.002586958333333,33.035833333333336,78.65166663679999,-1.7416406250000003,65.55913361233506
1371054781.0,4.9826339583333334,33.03416666666667,78.59333333333332,-1.898776041666667,65.55913361233506
1371054781.25,4.961774,33.0325,78.53750002858665,-0.5941927083333337,65.55913361233506
1371054781.5,4.940327166666667,33.03083333333334,78.48166666666665,0.2803906249999995,65.55913361233506
1371054781.75,4.917653291666666,33.03,78.42583330474666,2.9164843749999996,65.55913361233506
1371054782.0,4.895246208333334,33.03,78.36999999999999,5.662838541666666,65.55913361233506
1371054782.25,4.875986791666667,33.03,78.31500002815999,6.8428125,65.55913361233506
1371054782.5,4.8593415,33.03,78.25999999999999,9.034895833333332,65.55913361233506
1371054782.75,4.844830208333334,33.03,78.20499997184,10.128098958333334,65.55913361233506
1371054783.0,4.831652708333333,33.03,78.14999999999999,12.073463541666667,65.55913361233506
1371054783.25,4.8194355416666665,33.03,78.09500002816,13.348697916666666,65.55913361233506
1371054783.5,4.808338708333333,33.03,78.03999999999999,13.126822916666667,65.55913361233506
1371054783.75,4.7986289583333335,33.03,77.98499997184,14.613697916666666,65.55913361233506
1371054784.0,4.790573041666667,33.03,77.93,15.300364583333332,65.55913361233506
1371054784.25,4.783210666666666,33.03,77.87750002688,14.376770833333332,65.55913361233506
1371054784.5,4.775795,33.03,77.825,15.678255208333333,65.55913361233506
1371054784.75,4.7687527916666665,33.03,77.77249997312,15.904401041666667,65.55913361233506
1371054785.0,4.762297416666667,33.03,77.72,15.245052083333333,65.55913361233506
1371054785.25,4.755148458333333,33.03,77.68666668373334,15.191510416666665,65.55913361233506
1371054785.5,4.7473059583333335,33.03,77.65333333333334,14.731744791666666,65.55913361233506
1371054785.75,4.73935675,33.03,77.61999998293332,16.012109374999998,65.55913361233506
1371054786.0,4.731460875,33.03,77.58666666666666,15.361145833333332,65.55913361233506
1371054786.25,4.723351625,33.03,77.58333333504,15.008671875,65.55913361233506
1371054786.5,4.714922291666666,33.03,77.57999999999998,16.52138020833333,65.55913361233506
1371054786.75,4.70638625,33.03,77.57666666495999,15.382109374999999,65.55913361233506
1371054787.0,4.698010291666667,33.03,77.57333333333332,14.839635416666667,65.55913361233506
1371054787.25,4.68984775,33.03,77.59499998890666,16.024505208333334,65.55913361233506
1371054787.5,4.6823253750000005,33.03,77.61666666666667,14.710494791666664,65.55913361233506
1371054787.75,4.675656583333334,33.03,77.63833334442667,13.632213541666665,65.55913361233506
1371054788.0,4.669361250000001,33.03,77.66000000000001,13.76638020833333,65.55913361233506
1371054788.25,4.663919541666667,33.03,77.68916665173334,13.731171875,65.55913361233506
1371054788.5,4.659598208333334,33.03,77.71833333333335,13.29921875,65.55913361233506
1371054788.75,4.655757041666667,33.03,77.74750001493335,11.776901041666667,65.55913361233506
1371054789.0,4.652982875,33.03,77.77666666666669,11.841484375,65.55913361233506
1371054789.25,4.651489083333334,33.03,77.80166665386669,12.210677083333332,65.55913361233506
1371054789.5,4.650688833333334,33.03,77.82666666666668,10.889062500000001,65.55913361233506
1371054789.75,4.650528791666667,33.03,77.85166667946667,11.363515624999998,65.55913361233506
1371054790.0,4.6499952916666665,33.03,77.87666666666668,12.070572916666668,65.55913361233506
1371054790.25,4.648821583333333,33.03,77.90499998549335,11.746249999999998,65.55913361233506
1371054790.5,4.647274416666666,33.03,77.93333333333334,12.762578125,65.55913361233506
1371054790.75,4.645620541666666,33.03,77.96166668117334,13.876380208333332,65.55913361233506
1371054791.0,4.643859958333333,33.03,77.99000000000001,14.302630208333333,65.55913361233506
1371054791.25,4.642206083333333,33.03,78.01083332266667,14.707552083333333,65.55913361233506
1371054791.5,4.640338791666666,33.03,78.03166666666667,15.214869791666667,65.55913361233506
1371054791.75,4.638418166666667,33.03,78.05250001066668,16.612786458333336,65.55913361233506
1371054792.0,4.6364975416666665,33.03,78.07333333333334,16.890833333333333,65.55913361233506
1371054792.25,4.6345235833333325,33.03,78.08499999402667,16.742734375,65.55913361233506
1371054792.5,4.632549624999999,33.03,78.09666666666666,17.846432291666666,65.55913361233506
1371054792.75,4.6305223333333325,33.03,78.10833333930667,18.010520833333334,65.55913361233506
1371054793.0,4.628921833333333,33.03,78.12,17.621796874999998,65.55913361233506
1371054793.25,4.627854791666667,33.03,78.11166667093333,17.446848958333334,65.55913361233506
1371054793.5,4.626894458333333,33.03,78.10333333333332,17.475234375,65.55913361233506
1371054793.75,4.625774083333333,33.03,78.09499999573333,16.871223958333335,65.55913361233506
1371054794.0,4.624386958333333,33.03,78.08666666666666,16.080078125,65.55913361233506
1371054794.25,4.622306291666667,33.03,78.06666667690666,16.603151041666667,65.55913361233506
1371054794.5,4.619585416666667,33.03,78.04666666666665,16.343359375000002,65.55913361233506
1371054794.75,4.616384375,33.03,78.02666665642666,15.140208333333334,65.55913361233506
1371054795.0,4.6124897916666665,33.03,78.00666666666666,15.89625,65.55913361233506
1371054795.25,4.6080617083333335,33.03,77.97416668330666,16.001640625,65.55913361233506
1371054795.5,4.603473583333334,33.03,77.94166666666666,15.327473958333334,65.55913361233506
1371054795.75,4.598672041666667,33.03,77.90916665002666,16.253203125,65.55913361233506
1371054796.0,4.593817166666667,33.03,77.87666666666667,16.744765625000003,65.55913361233506
1371054796.25,4.5890156666666675,33.03,77.84583334912,17.286302083333332,65.55913361233506
1371054796.5,4.584374208333333,33.03,77.81500000000001,17.797395833333333,65.55913361233506
1371054796.75,4.579946166666667,33.03,77.78416665088001,18.756770833333334,65.55913361233506
1371054797.0,4.575571458333333,33.03,77.75333333333334,19.869583333333335,65.55913361233506
1371054797.25,4.5714635,33.03,77.72833334613334,19.434401041666664,65.55913361233506
1371054797.5,4.567835708333333,33.03,77.70333333333333,19.94981770833333,65.55913361233506
1371054797.75,4.564421291666666,33.03,77.67833332053333,20.763802083333335,65.55913361233506
1371054798.0,4.56106025,33.03,77.65333333333332,19.953802083333333,65.55913361233506
1371054798.25,4.557645833333333,33.03,77.62833334613333,19.73421875,65.55913361233506
1371054798.5,4.554071333333334,33.03,77.60333333333332,20.020052083333333,65.55913361233506
1371054798.75,4.550603541666667,33.030833333333334,77.57833332053333,18.864296875,65.55913361233506
1371054799.0,4.547082416666666,33.0325,77.55333333333334,17.750390624999998,65.55913361233506
1371054799.25,4.542974458333333,33.03416666666667,77.52583334741334,17.49247395833333,65.55913361233506
1371054799.5,4.538066208333333,33.03583333333333,77.49833333333333,16.73828125,65.55913361233506
1371054799.75,4.532571083333333,33.0375,77.47083331925333,15.02578125,65.55913361233506
1371054800.0,4.5273960833333335,33.03916666666667,77.44333333333333,14.159687499999999,65.55913361233506
1371054800.25,4.522221083333333,33.04083333333333,77.41333334869333,14.162760416666664,65.55913361233506
1371054800.5,4.516939375000001,33.0425,77.38333333333333,13.351197916666663,65.55913361233506
1371054800.75,4.511871083333333,33.04416666666666,77.35333331797334,12.849661458333332,65.55913361233506
1371054801.0,4.507389625,33.04583333333333,77.32333333333334,12.666171875000002,65.55913361233506
1371054801.25,4.503495041666667,33.0475,77.30000001194666,13.256979166666666,65.55913361233506
1371054801.5,4.49986725,33.04916666666666,77.27666666666667,13.198958333333332,65.55913361233506
1371054801.75,4.496346166666667,33.05,77.25333332138668,12.892187499999999,65.55913361233506
1371054802.0,4.492451583333334,33.05,77.23,14.101770833333333,65.55913361233506
1371054802.25,4.488343583333333,33.05,77.20916667733333,13.848906249999999,65.55913361233506
1371054802.5,4.484875833333333,33.05,77.18833333333333,13.334739583333333,65.55913361233506
1371054802.75,4.481834916666666,33.05,77.16749998933334,14.489322916666667,65.55913361233506
1371054803.0,4.478333416666667,33.05,77.14666666666666,14.5965625,65.55913361233506
1371054803.25,4.474958125,33.05,77.12833334272,14.154765625000001,65.55913361233506
1371054803.5,4.471902916666667,33.05,77.10999999999999,14.401744791666665,65.55913361233506
1371054803.75,4.4689348749999995,33.05,77.09166665727999,14.780208333333334,65.55913361233506
1371054804.0,4.465166583333334,33.05,77.07333333333332,15.09578125,65.55913361233506
1371054804.25,4.4604574999999995,33.05,77.05500000938666,14.267734375000002,65.55913361233506
1371054804.5,4.455428291666666,33.05,77.03666666666666,14.366666666666665,65.55913361233506
1371054804.75,4.450132333333333,33.049166666666665,77.01833332394666,15.305286458333335,65.55913361233506
1371054805.0,4.44488975,33.0475,77.0,14.639895833333334,65.55913361233506
1371054805.25,4.440500791666667,33.04583333333333,76.9875000064,14.719088541666666,65.55913361233506
1371054805.5,4.436378583333333,33.04416666666667,76.975,14.989114583333333,65.55913361233506
1371054805.75,4.43246975,33.0425,76.9624999936,15.147864583333332,65.55913361233506
1371054806.0,4.4290215,33.04083333333333,76.95,15.416510416666666,65.55913361233506
1371054806.25,4.425873833333333,33.03916666666667,76.93916667221333,15.059765624999999,65.55913361233506
1371054806.5,4.423633124999999,33.0375,76.92833333333334,15.57390625,65.55913361233506
1371054806.75,4.424186166666666,33.035833333333336,76.91749999445335,15.376328124999999,65.55913361233506
1371054807.0,4.4288471666666664,33.03416666666667,76.90666666666668,14.68453125,65.55913361233506
1371054807.25,4.435569291666667,33.0325,76.89416667306668,15.111953125,65.55913361233506
1371054807.5,4.442664874999999,33.03083333333334,76.88166666666667,14.895026041666666,65.55913361233506
1371054807.75,4.450080541666667,33.03,76.86916666026667,14.141927083333334,65.55913361233506
1371054808.0,4.458029708333333,33.03,76.85666666666667,14.316484375,65.55913361233506
1371054808.25,4.465978875,33.03,76.835833344,14.821171875,65.55913361233506
1371054808.5,4.4739280416666665,33.03,76.815,15.56151041666667,65.55913361233506
1371054808.75,4.4807035,33.03,76.794166656,15.080078125,65.55913361233506
1371054809.0,4.48630525,33.03,76.77333333333333,15.009010416666667,65.55913361233506
1371054809.25,4.490893375,33.03,76.74916667903999,16.1740625,65.55913361233506
1371054809.5,4.49361425,33.03,76.725,16.797994791666667,65.55913361233506
1371054809.75,4.492707291666667,33.03,76.70083332096,18.031302083333333,65.55913361233506
1371054810.0,4.4881725,33.03,76.67666666666666,18.551875,65.55913361233506
1371054810.25,4.4819305,33.03,76.65500001109332,19.139062499999998,65.55913361233506
1371054810.5,4.475101666666666,33.03,76.63333333333333,20.727604166666666,65.55913361233506
1371054810.75,4.468272833333333,33.03,76.61166665557333,20.744817708333333,65.55913361233506
1371054811.0,4.460697125,33.03,76.58999999999999,20.826588541666666,65.55913361233506
1371054811.25,4.453121416666666,33.03,76.57333334186666,21.868125000000003,65.55913361233506
1371054811.5,4.445545708333333,33.03,76.55666666666666,21.149427083333332,65.55913361233506
1371054811.75,4.438290125,33.03,76.53999999146666,20.725546875,65.55913361233506
1371054812.0,4.431888125,33.03,76.52333333333333,20.975104166666668,65.55913361233506
1371054812.25,4.42649975,33.03,76.50833334101333,20.255546875,65.55913361233506
1371054812.5,4.422125041666667,33.03,76.49333333333333,18.15458333333333,65.55913361233506
1371054812.75,4.419670958333334,33.03,76.47833332565332,16.266822916666666,65.55913361233506
1371054813.0,4.421805,33.03,76.46333333333332,16.047109375,65.5573451672256
1371054813.25,4.42922075,33.03,76.45083333973332,14.784322916666666,65.54564924132893
1371054813.5,4.438698041666666,33.03,76.43833333333333,13.094322916666664,65.50640526944919
1371054813.75,4.449882541666667,33.030833333333334,76.42583332693334,13.251874999999998,65.46680036687465
1371054814.0,4.46370025,33.0325,76.41333333333334,11.958932291666665,65.44207047081224
1371054814.25,4.477891416666666,33.03416666666667,76.40333333845334,8.108411458333332,65.41202275884349
1371054814.5,4.492082583333333,33.03583333333333,76.39333333333335,5.279921875,65.38318655201262
1371054814.75,4.507127333333333,33.03666666666667,76.38333332821334,3.2978385416666662,65.35734500019602
1371054815.0,4.522492208333333,33.03666666666667,76.37333333333333,-0.3120052083333338,65.33337946737683
1371054815.25,4.537857083333333,33.03666666666667,76.3691666688,-3.4766927083333337,65.3114477614443
1371054815.5,4.5528485000000005,33.03666666666667,76.36500000000001,-5.143958333333334,65.28963602626145
1371054815.75,4.566186083333333,33.0375,76.3608333312,-6.675963541666667,65.27113220073107
1371054816.0,4.574348708333333,33.03916666666667,76.35666666666667,-8.8346875,65.25824267410584
1371054816.25,4.5769095,33.04083333333333,76.35500000085334,-10.206302083333334,65.25657552788874
1371054816.5,4.577248666666667,33.0425,76.35333333333332,-12.559895833333334,65.28245642765471
1371054816.75,4.575453833333333,33.0425,76.35166666581333,-14.394036458333334,65.30869825811548
1371054817.0,4.570865708333334,33.04083333333333,76.35,-14.650625,65.32006508206412
1371054817.25,4.565050541666667,33.03916666666667,76.35,-13.392916666666666,65.3375459319413
1371054817.5,4.558968624999999,33.0375,76.35,-10.529765625000001,65.35556693872947
1371054817.75,4.552566583333333,33.03666666666667,76.35,-9.018359375000001,65.37476876209767
1371054818.0,4.5460045,33.03666666666667,76.35,-5.826041666666668,65.39746302994693
1371054818.25,4.539175666666666,33.03666666666667,76.34416666965333,-1.9438281250000005,65.4181234709095
1371054818.5,4.532293458333333,33.03666666666667,76.33833333333334,0.7553906249999994,65.43866394112241
1371054818.75,4.525624666666666,33.035833333333336,76.33249999701333,3.106588541666666,65.45589650168286
1371054819.0,4.519542708333334,33.03416666666667,76.32666666666667,5.947213541666666,65.4693032084476
1371054819.25,4.513514125,33.0325,76.32000000341333,7.231328125,65.48139501559143
1371054819.5,4.507485583333334,33.03083333333334,76.31333333333333,10.096927083333332,65.49348682273525
1371054819.75,4.5012969583333335,33.03,76.30666666325334,12.357994791666668,65.50557862987908
1371054820.0,4.4952150416666665,33.03,76.3,13.562838541666665,65.51767043702291
1371054820.25,4.489666625,33.03,76.29333333674666,14.968255208333334,65.52896603414455
1371054820.5,4.484171541666667,33.03,76.28666666666666,15.658020833333332,65.53850996921732
1371054820.75,4.478569749999999,33.030833333333334,76.27999999658667,17.396041666666665,65.54387843269576
1371054821.0,4.472754541666666,33.0325,76.27333333333333,17.75778645833333,65.54387843269576
1371054821.25,4.467206083333333,33.03416666666667,76.27250000042666,17.85528645833333,65.54387843269576
1371054821.5,4.462084458333333,33.03583333333333,76.27166666666666,18.455885416666664,65.54387843269576
1371054821.75,4.45733625,33.03666666666667,76.27083333290666,18.120546875,65.54387843269576
1371054822.0,4.4529615,33.03666666666667,76.27,17.2615625,65.54387843269576
1371054822.25,4.449493708333333,33.03666666666667,76.27,17.78184895833333,65.54387843269576
1371054822.5,4.447999875,33.03666666666667,76.27,17.733984375,65.54387843269576
1371054822.75,4.450240583333333,33.03666666666667,76.27,17.047682291666664,65.54387843269576
1371054823.0,4.4573895,33.03666666666667,76.27,17.06552083333333,65.54387843269576
1371054823.25,4.466512375,33.03666666666667,76.27,17.435026041666664,65.54387843269576
1371054823.5,4.475848666666667,33.03666666666667,76.27,16.697968749999998,65.54395788675639
1371054823.75,4.485611791666667,33.035833333333336,76.27,16.221901041666666,65.55209456386041
1371054824.0,4.495748375,33.03416666666667,76.27,16.88734375,65.56542812479417
1371054824.25,4.505884958333334,33.0325,76.27,15.843359375,65.57876168572791
1371054824.5,4.5160215416666665,33.03083333333334,76.27,16.200911458333334,65.59209524666167
1371054824.75,4.525571291666666,33.03,76.27,17.889140625,65.60542880759543
1371054825.0,4.5333605,33.03,76.27,18.983723958333332,65.61876236852918
1371054825.25,4.539015666666667,33.03,76.27083333290666,21.430234375,65.63209592946293
1371054825.5,4.5424300833333335,33.03,76.27166666666666,23.225625000000004,65.6454294903967
1371054825.75,4.541949916666667,33.030833333333334,76.27250000042666,24.345026041666667,65.65876305133044
1371054826.0,4.536614875000001,33.0325,76.27333333333333,26.277005208333332,65.6720966122642
1371054826.25,4.529145833333334,33.03416666666667,76.28583332693333,27.403671875,65.68543017319796
1371054826.5,4.521303333333333,33.03583333333333,76.29833333333333,28.490494791666666,65.69868428007108
1371054826.75,4.51276725,33.0375,76.31083333973334,28.874687500000004,65.70388116390082
1371054827.0,4.503270875,33.03916666666667,76.32333333333334,28.362421875,65.70388116390082
1371054827.25,4.4929742500000005,33.04083333333333,76.35083331925334,28.947083333333335,65.70388116390082
1371054827.5,4.48209075,33.0425,76.37833333333333,28.131953125,65.70388116390082
1371054827.75,4.471153875,33.04208333333333,76.40583334741332,26.489869791666667,65.70388116390082
1371054828.0,4.461604125,33.03958333333333,76.43333333333332,25.55986979166667,65.70388116390082
1371054828.25,4.453921666666667,33.037083333333335,76.47416664576,23.34390625,65.70388116390082
1371054828.5,4.447039458333333,33.03458333333333,76.51499999999999,20.8096875,65.70388116390082
1371054828.75,4.4407974999999995,33.03125,76.55583335423998,19.689609375,65.70388116390082
1371054829.0,4.435195749999999,33.02708333333333,76.59666666666665,18.24536458333333,65.70388116390082
1371054829.25,4.43002075,33.02291666666667,76.64083331071998,16.179765625,65.70388116390082
1371054829.5,4.4251125,33.018750000000004,76.68499999999999,15.005885416666665,65.70388116390082
1371054829.75,4.420311000000001,33.014583333333334,76.72916668927999,14.905911458333334,65.70388116390082
1371054830.0,4.415349458333333,33.010416666666664,76.77333333333333,14.401380208333334,65.70388116390082
1371054830.25,4.410387916666666,33.00625,76.81749997738666,14.114973958333332,65.70388116390082
1371054830.5,4.40601325,33.00208333333333,76.86166666666666,14.627890625,65.70388116390082
1371054830.75,4.402278791666666,33.0,76.90583335594667,15.384609375000002,65.70388116390082
1371054831.0,4.39891775,33.0,76.95,16.138984375,65.70388116390082
1371054831.25,4.395823458333333,33.0,76.99666664277333,16.559583333333332,65.70388116390082
1371054831.5,4.392942583333333,33.0,77.04333333333332,17.086744791666664,65.70388116390082
1371054831.75,4.391555458333333,33.00125,77.09000002389332,17.394739583333333,65.70388116390082
1371054832.0,4.3945964166666664,33.003750000000004,77.13666666666666,17.060104166666665,65.70388116390082
1371054832.25,4.404626291666666,33.00625,77.18499997525332,17.11703125,65.70388116390082
1371054832.5,4.421965125,33.00875,77.23333333333332,17.552864583333335,65.70388116390082
1371054832.75,4.442718375,33.01125,77.28166669141334,16.989973958333334,65.70388116390082
1371054833.0,4.464591958333333,33.01375,77.33,16.713723958333333,65.70388116390082
1371054833.25,4.487265791666666,33.01625,77.38166664021334,17.412473958333333,65.70388116390082
1371054833.5,4.5099396249999995,33.018750000000004,77.43333333333334,17.489453125,65.70388116390082
1371054833.75,4.532613458333333,33.02,77.48500002645333,16.751588541666667,65.70388116390082
1371054834.0,4.555287291666667,33.02,77.53666666666668,16.559765625,65.70388116390082
1371054834.25,4.576734083333333,33.02,77.58999997269333,16.705572916666664,65.70388116390082
1371054834.5,4.5959935,33.02,77.64333333333335,17.440572916666667,65.70388116390082
1371054834.75,4.611518416666667,33.018750000000004,77.69666669397334,18.175572916666663,65.70388116390082
1371054835.0,4.620908083333333,33.01625,77.75,18.99921875,65.70388116390082
1371054835.25,4.622135166666667,33.01375,77.80333330602666,20.082890625,65.70388116390082
1371054835.5,4.6147195,33.01125,77.85666666666665,20.524427083333332,65.70388116390082
1371054835.75,4.6031425,33.00875,77.91000002730667,20.965,65.70388116390082
1371054836.0,4.590658583333333,33.00625,77.96333333333332,21.703697916666666,65.70388116390082
1371054836.25,4.577747875,33.003750000000004,78.01583330645333,21.616875000000004,65.70388116390082
1371054836.5,4.564730458333333,33.00125,78.06833333333333,21.1234375,65.70388116390082
1371054836.75,4.5509661249999995,33.0,78.12083336021333,21.336223958333335,65.70388116390082
1371054837.0,4.535974708333334,33.0,78.17333333333333,21.39140625,65.7016194834076
1371054837.25,4.521623458333333,33.0,78.22583330645334,21.141145833333333,65.68955718744378
1371054837.5,4.508979458333333,33.0,78.27833333333334,20.713645833333334,65.67749489147998
1371054837.75,4.497989333333334,33.0,78.33083336021333,20.083567708333334,65.66543259551617
1371054838.0,4.4884929583333335,33.0,78.38333333333334,19.436354166666668,65.65337029955235
1371054838.25,4.479690125,33.0,78.43416664064,19.347421875,65.64130800358853
1371054838.5,4.471474208333333,33.0,78.485,18.89361979166667,65.62924570762472
1371054838.75,4.46363175,33.0,78.53583335936,18.526093749999998,65.61718341166092
1371054839.0,4.455842583333333,33.0,78.58666666666666,18.784713541666665,65.60662890269258
1371054839.25,4.448000041666666,33.0,78.63416664234666,17.601770833333333,65.59456660672875
1371054839.5,4.439730708333333,33.0,78.68166666666666,16.342161458333333,65.58250431076495
1371054839.75,4.432101583333334,33.0,78.72916669098666,17.25609375,65.57044201480113
1371054840.0,4.425699541666666,33.0,78.77666666666666,17.012604166666666,65.56000576684558
1371054840.25,4.419884375,33.0,78.81666664618666,15.416536458333333,65.55968795060308
1371054840.5,4.414549333333333,33.0,78.85666666666665,15.509531249999997,65.55531594057537
1371054840.75,4.4099078333333335,33.0,78.89666668714666,16.463984375,65.55301114340034
1371054841.0,4.405586458333333,33.0,78.93666666666667,15.682161458333333,65.5409982501094
1371054841.25,4.405586458333333,33.0,78.97416664746666,12.946276041666666,65.52022160823209
1371054841.5,4.4064400416666665,33.0,79.01166666666666,12.818333333333333,65.49561407808085
1371054841.75,4.413002083333333,33.00125,79.04916668586667,13.200703125000002,65.47140535261524
1371054842.0,4.4223917083333335,33.003750000000004,79.08666666666666,11.789791666666666,65.43242967713286
1371054842.25,4.433381875,33.00625,79.12166664874667,14.277447916666667,65.39859790905342
1371054842.5,4.445865875,33.00875,79.15666666666667,17.221093749999998,65.37019774722037
1371054842.75,4.460091333333334,33.01125,79.19166668458666,15.147369791666664,65.34578788202613
1371054843.0,4.475170375,33.01375,79.22666666666667,13.49796875,65.32648611219727
1371054843.25,4.490249416666667,33.01625,79.26166664874667,15.169635416666667,65.30067835152383
1371054843.5,4.5053284583333335,33.018750000000004,79.29666666666668,14.136041666666666,65.27573097140295
1371054843.75,4.5204075,33.02,79.33166668458668,11.224973958333331,65.25809836626415
1371054844.0,4.535486541666667,33.02,79.36666666666667,9.573463541666667,65.25001439147745
1371054844.25,4.546777708333333,33.02,79.40166664874667,9.707317708333333,65.25248746218949
1371054844.5,4.5588157916666665,33.02,79.43666666666667,7.680989583333333,65.26504448402741
1371054844.75,4.566765,33.018750000000004,79.47166668458667,5.542083333333333,65.28038592102949
1371054845.0,4.57274025,33.01625,79.50666666666666,7.729817708333332,65.31511205920128
1371054845.25,4.577595124999999,33.01375,79.53166665386667,5.329713541666666,65.34548548866819
1371054845.5,4.581489666666666,33.01125,79.55666666666667,4.724244791666666,65.37237596785829
