timestamp,EDA,TEMP,HR,BVP,ACC_mag
1371318264.0,0.07859300000000001,29.83,,11.168333333333335,62.05199934778579
1371318264.25,0.078715,29.83,,10.560714285714285,62.08365514206797
1371318264.5,0.0788065,29.83,,10.1658203125,62.1073969877796
1371318264.75,0.07887766666666668,29.83,,10.295625,62.12586286777754
1371318265.0,0.0789346,29.83,,10.1243125,62.140635571775896
1371318265.25,0.07898118181818183,29.83,,9.52036931818182,62.15272232959273
1371318265.5,0.07901999999999999,29.83,,8.885963541666667,62.16279462777342
1371318265.75,0.07912675000000001,29.83,,8.73796875,62.211194848357785
1371318266.0,0.0792335,29.83,,8.576145833333333,62.25112699857149
1371318266.25,0.07928687499999999,29.83,,7.705989583333334,62.272584714390824
1371318266.5,0.07939362500000001,29.83,,6.297734375000001,62.27358990776106
1371318266.75,0.079447,29.83,,5.376796875,62.27358990776106
1371318267.0,0.079447,29.83,,4.947421875000001,62.27358990776106
1371318267.25,0.079447,29.83,,4.976796875000001,62.26164690439416
1371318267.5,0.079447,29.83,,5.010338541666667,62.23056501526295
1371318267.75,0.079447,29.829166666666666,,4.680416666666667,62.19325263998832
1371318268.0,0.079447,29.8275,,4.629140625000001,62.15530870249726
1371318268.25,0.079447,29.825833333333332,,5.027395833333333,62.11618577189093
1371318268.5,0.079447,29.824166666666667,,5.667317708333333,62.08257863859731
1371318268.75,0.079447,29.823333333333334,,5.896223958333334,62.05238171033859
1371318269.0,0.079447,29.823333333333327,,5.953255208333334,62.02218478207987
1371318269.25,0.079447,29.823333333333334,,6.358151041666667,61.99249221435789
1371318269.5,0.079447,29.823333333333334,,6.547239583333333,61.96733889146654
1371318269.75,0.079447,29.823333333333334,,6.4551041666666675,61.94521173179562
1371318270.0,0.079447,29.823333333333327,,6.315494791666667,61.9230845721247
1371318270.25,0.079447,29.823333333333334,,5.832447916666667,61.91617288026023
1371318270.5,0.079447,29.823333333333334,,5.217890625,61.935867738046674
1371318270.75,0.079447,29.824166666666667,,4.632890625,61.96179308197654
1371318271.0,0.079447,29.825833333333332,,3.952083333333333,61.98834998812284
1371318271.25,0.079447,29.8275,,3.212890625,62.01608588738441
1371318271.5,0.079447,29.829166666666666,,2.3915104166666667,62.038305989333274
1371318271.75,0.079447,29.83,,1.7803385416666666,62.05711588624724
1371318272.0,0.079447,29.83,,1.362421875,62.0759257831612
1371318272.25,0.079447,29.83,,0.8929427083333333,62.094231319538416
1371318272.5,0.079447,29.83,,0.68734375,62.107997611085004
1371318272.75,0.079447,29.83,,0.8392708333333333,62.11873773941116
1371318273.0,0.079447,29.83,,1.0315625,62.12947786773733
1371318273.25,0.079447,29.83,,1.01328125,62.13694553162394
1371318273.5,0.079447,29.83,,1.04984375,62.13694553162394
1371318273.75,0.079447,29.83,,1.1756770833333334,62.13694553162394
1371318274.0,0.079447,29.83,73.375,1.3607812499999998,62.13694553162394
1371318274.25,0.07950041666666667,29.83,74.64958268074668,1.623125,62.13694553162394
1371318274.5,0.07955383333333334,29.83,75.92416666666668,1.8621614583333332,62.13392549120211
1371318274.75,0.07971404166666667,29.83,77.19875065258667,1.8372135416666666,62.112504160180585
1371318275.0,0.08003441666666666,29.83,78.47333333333334,1.9989583333333334,62.07806362537206
1371318275.25,0.08046158333333334,29.83,82.11916480000001,2.035364583333333,62.032981638315455
1371318275.5,0.08088875,29.83,85.76500000000001,1.9779947916666665,61.987857375491636
1371318275.75,0.08131591666666667,29.83,89.41083520000001,1.9954427083333333,61.94273311266781
1371318276.0,0.08174308333333334,29.83,93.05666666666667,1.7485156250000002,61.89760884984398
1371318276.25,0.08217025,29.83,95.54249872725333,1.8287760416666667,61.85248458702014
1371318276.5,0.08259741666666666,29.83,98.02833333333334,2.1459895833333333,61.80736032419631
1371318276.75,0.08302458333333333,29.83,100.51416793941334,2.1723697916666667,61.76223606137248
1371318277.0,0.08345174999999999,29.83,103.0,2.222265625,61.71711179854864
1371318277.25,0.0838255,29.83,104.80499907584,2.2461458333333333,61.67198753572482
1371318277.5,0.08419924999999999,29.83,106.60999999999999,2.2298697916666668,61.629883313322814
1371318277.75,0.08446620833333333,29.83,108.41500092415998,2.6601041666666667,61.60618038152051
1371318278.0,0.084573,29.83,110.21999999999998,2.741979166666667,61.5954966535052
1371318278.25,0.084573,29.83,109.52916702037332,2.970833333333333,61.59545437773797
1371318278.5,0.084573,29.83,108.83833333333332,3.2243749999999998,61.59545437773797
1371318278.75,0.084573,29.83,108.14749964629333,3.226276041666667,61.59545437773797
1371318279.0,0.084573,29.83,107.45666666666666,3.6263541666666668,61.59545437773797
1371318279.25,0.084573,29.83,106.29416726186666,3.8736458333333332,61.59545437773797
1371318279.5,0.084573,29.83,105.13166666666666,3.9503645833333336,61.59545437773797
1371318279.75,0.084573,29.83083333333333,103.96916607146666,4.543671874999999,61.59545437773797
1371318280.0,0.084573,29.8325,102.80666666666666,4.800494791666666,61.59545437773797
1371318280.25,0.084573,29.834166666666665,101.30666743466666,5.265052083333333,61.59545437773797
1371318280.5,0.084573,29.83583333333333,99.80666666666667,5.92671875,61.59545437773797
1371318280.75,0.084573,29.837500000000002,98.30666589866667,6.015703125000001,61.59545437773797
1371318281.0,0.084573,29.839166666666667,96.80666666666667,6.5578385416666665,61.59545437773797
1371318281.25,0.08462637499999999,29.840833333333332,95.75583387136001,7.0003125,61.59545437773797
1371318281.5,0.084733125,29.8425,94.70500000000001,7.430234375,61.59545437773797
1371318281.75,0.084839875,29.844166666666666,93.65416612864,8.05796875,61.60119913918913
1371318282.0,0.084946625,29.845833333333335,92.60333333333334,8.360052083333333,61.6190517108009
1371318282.25,0.085053375,29.847499999999997,91.7991670784,8.7003125,61.638925232857126
1371318282.5,0.08516012499999999,29.849166666666665,90.995,9.106953125,61.67049476360659
1371318282.75,0.085266875,29.849166666666672,90.19083292159999,9.160442708333333,61.702190376243806
1371318283.0,0.085373625,29.8475,89.38666666666666,9.483411458333334,61.733885988881035
1371318283.25,0.085480375,29.845833333333335,88.76916698282666,9.34984375,61.76558160151826
1371318283.5,0.085587125,29.844166666666666,88.15166666666667,8.523645833333333,61.797277214155486
1371318283.75,0.08569387499999999,29.8425,87.53416635050667,8.035755208333333,61.828972826792715
1371318284.0,0.085800625,29.840833333333336,86.91666666666667,7.305,61.860668439429936
1371318284.25,0.085854,29.839166666666667,86.44666690730666,6.411666666666666,61.89236405206716
1371318284.5,0.085854,29.837499999999995,85.97666666666666,5.561848958333333,61.92405966470438
1371318284.75,0.085854,29.835833333333337,85.50666642602667,4.779010416666667,61.950010515890455
1371318285.0,0.085854,29.834166666666665,85.03666666666666,3.746927083333333,61.9638535569159
1371318285.25,0.085854,29.832499999999996,84.74833348096,2.867395833333333,61.97567564749691
1371318285.5,0.085854,29.83083333333333,84.46,1.8845572916666669,61.97580172938467
1371318285.75,0.08590741666666667,29.83083333333333,84.17166651903999,0.69984375,61.97580172938467
1371318286.0,0.08601425,29.832499999999996,83.88333333333333,-0.35492187500000005,61.97580172938467
1371318286.25,0.08612108333333333,29.834166666666665,83.74416673792,-1.02265625,61.97580172938467
1371318286.5,0.08622791666666667,29.835833333333337,83.60499999999999,-1.1334114583333335,61.97580172938467
1371318286.75,0.08633475,29.837499999999995,83.46583326207998,-0.8265625,61.97580172938467
1371318287.0,0.08644158333333334,29.839166666666667,83.32666666666665,-0.6692447916666668,61.97580172938467
1371318287.25,0.08654841666666667,29.840833333333336,83.30916667562666,-0.6750781250000001,61.97580172938467
1371318287.5,0.08665525,29.8425,83.29166666666666,-0.2789322916666667,61.97580172938467
1371318287.75,0.08676208333333334,29.845,83.27416665770666,0.04684895833333324,61.97580172938467
1371318288.0,0.08686891666666667,29.848333333333333,83.25666666666666,0.8019010416666665,61.97580172938467
1371318288.25,0.08697575,29.85166666666667,83.25416666794666,1.6048958333333332,61.97580172938467
1371318288.5,0.08708258333333334,29.855000000000004,83.25166666666667,2.2352343749999997,61.974960250805076
1371318288.75,0.087136,29.8575,83.24916666538667,3.025130208333333,61.960358442275776
1371318289.0,0.087136,29.85916666666667,83.24666666666667,3.912109375,61.94082464497143
1371318289.25,0.087136,29.860833333333336,83.24416666794667,4.374661458333333,61.92129084766708
1371318289.5,0.087136,29.862499999999997,83.24166666666667,5.01,61.90175705036273
1371318289.75,0.087136,29.863333333333333,83.23916666538666,5.046536458333334,61.88222325305839
1371318290.0,0.087136,29.863333333333333,83.23666666666666,4.85078125,61.862689455754044
1371318290.25,0.087136,29.86333333333333,83.23333333503999,5.143463541666667,61.843155658449696
1371318290.5,0.087136,29.863333333333333,83.22999999999999,5.1340625,61.82362186114535
1371318290.75,0.087136,29.8625,83.22666666495999,4.681536458333333,61.804088063841014
1371318291.0,0.087136,29.860833333333332,83.22333333333331,4.204947916666667,61.78455426653667
1371318291.25,0.087136,29.859166666666667,83.22083333461332,3.6412499999999994,61.76502046923232
1371318291.5,0.087136,29.8575,83.21833333333332,3.219583333333333,61.746834094896826
1371318291.75,0.087136,29.855833333333333,83.21583333205332,3.0044791666666666,61.74734003928609
1371318292.0,0.087136,29.854166666666668,83.21333333333332,2.638984375,61.75341017931691
1371318292.25,0.087136,29.852499999999996,83.21499999914666,2.4331770833333333,61.75948031934772
1371318292.5,0.087136,29.850833333333338,83.21666666666665,1.7725520833333333,61.76555045937855
1371318292.75,0.087136,29.85,83.21833333418665,1.281015625,61.77162059940937
1371318293.0,0.087136,29.85,83.21999999999998,1.375078125,61.77769073944018
1371318293.25,0.087136,29.85,83.22416666453333,1.2787239583333332,61.78376087947101
1371318293.5,0.087136,29.85,83.22833333333332,0.88140625,61.78983101950183
1371318293.75,0.087136,29.85083333333333,83.23250000213332,0.7444531249999998,61.79590115953264
1371318294.0,0.087136,29.852500000000003,83.23666666666666,0.38247395833333325,61.81387732840863
1371318294.25,0.087136,29.854166666666668,83.2408333312,-0.242421875,61.83857666250686
1371318294.5,0.087136,29.855833333333333,83.245,-0.7248697916666668,61.863651723802754
1371318294.75,0.087136,29.8575,83.2491666688,-1.1724739583333335,61.87850017741144
1371318295.0,0.087136,29.859166666666667,83.25333333333333,-1.7427343749999997,61.89217201649161
1371318295.25,0.087136,29.860833333333336,83.25083333461333,-2.2779166666666666,61.90882812411084
1371318295.5,0.087136,29.8625,83.24833333333333,-2.398046875,61.91787497432932
1371318295.75,0.087136,29.864166666666666,83.24583333205332,-2.7921874999999994,61.92057051950954
1371318296.0,0.087136,29.865833333333338,83.24333333333333,-3.5626302083333337,61.92326606468975
1371318296.25,0.087136,29.867500000000003,83.23500000426665,-4.368906249999999,61.92596160986995
1371318296.5,0.087136,29.86916666666667,83.22666666666666,-5.142526041666667,61.92865715505017
1371318296.75,0.087136,29.87,83.21833332906667,-5.068333333333333,61.931352700230384
1371318297.0,0.087136,29.87,83.21,-4.628020833333333,61.92214221656544
1371318297.25,0.087136,29.87,83.19833333930666,-4.052630208333333,61.90620856767824
1371318297.5,0.087136,29.87,83.18666666666667,-3.3380989583333336,61.88939324720411
1371318297.75,0.087136,29.870833333333337,83.17499999402668,-3.0526822916666667,61.877872545642155
1371318298.0,0.087136,29.872500000000002,83.16333333333334,-2.7357552083333334,61.867779285859854
1371318298.25,0.087136,29.874166666666667,83.15500000426667,-2.0010677083333337,61.866181201068
1371318298.5,0.087136,29.875833333333333,83.14666666666668,-1.60671875,61.8739584419122
1371318298.75,0.087136,29.877499999999998,83.13833332906667,-0.7533854166666667,61.88808698779468
1371318299.0,0.087136,29.879166666666666,83.13,0.2740885416666666,61.90221553367716
1371318299.25,0.087136,29.88083333333333,83.12583333546667,1.3734374999999999,61.91634407955963
1371318299.5,0.087136,29.882499999999997,83.12166666666667,2.9610156249999995,61.9304726254421
1371318299.75,0.08718937500000001,29.88416666666667,83.11749999786666,3.439427083333333,61.944601171324585
1371318300.0,0.08724275,29.885833333333334,83.11333333333333,3.7165364583333336,61.958729717207056
1371318300.25,0.08734950000000001,29.887500000000003,83.09750000810666,4.3320052083333325,61.97285826308953
1371318300.5,0.08745625,29.889166666666668,83.08166666666666,4.409296875,61.97374129720719
1371318300.75,0.087563,29.89,83.06583332522666,4.801770833333333,61.9617539786369
1371318301.0,0.08761637500000001,29.89,83.05,5.368515625,61.926820194295395
1371318301.25,0.08761637500000001,29.89,83.02166668117333,5.293098958333333,61.87998320242871
1371318301.5,0.08761637500000001,29.89,82.99333333333334,5.5203645833333335,61.831380142326715
1371318301.75,0.08761637500000001,29.889166666666664,82.96499998549334,5.606458333333333,61.78277708222472
1371318302.0,0.08761637500000001,29.8875,82.93666666666667,5.397135416666667,61.73417402212272
1371318302.25,0.08766974999999999,29.885833333333334,82.89500002133333,5.334921875,61.68557096202073
1371318302.5,0.087723125,29.88416666666667,82.85333333333332,4.9246614583333335,61.636967901918744
1371318302.75,0.08772312500000001,29.882500000000004,82.81166664533333,4.695807291666667,61.58836484181674
1371318303.0,0.0877765,29.88083333333333,82.77,4.622760416666666,61.53976178171475
1371318303.25,0.0877765,29.879166666666666,82.72916668757333,4.133020833333334,61.491158721612756
1371318303.5,0.0877765,29.8775,82.68833333333333,3.80265625,61.45580117327558
1371318303.75,0.0877765,29.877499999999998,82.64749997909334,3.573515625,61.43331397762635
1371318304.0,0.087829875,29.879166666666666,82.60666666666667,3.1640104166666667,61.43289021363068
1371318304.25,0.08793662499999999,29.88083333333333,82.56750002005333,2.9912239583333338,61.43289021363068
1371318304.5,0.088043375,29.882500000000004,82.52833333333334,2.8083333333333336,61.43289021363068
1371318304.75,0.08815012500000001,29.885,82.48916664661334,2.4472916666666666,61.43289021363068
1371318305.0,0.088256875,29.888333333333335,82.45,2.2797395833333334,61.43289021363068
1371318305.25,0.08831024999999999,29.89166666666667,82.41416668501334,2.1492187499999997,61.43289021363068
1371318305.5,0.088363625,29.895,82.37833333333333,1.8430989583333333,61.43289021363068
1371318305.75,0.088417,29.897499999999997,82.34249998165333,1.7272395833333334,61.43289021363068
1371318306.0,0.088417,29.89916666666667,82.30666666666667,1.5049218750000002,61.43289021363068
1371318306.25,0.088417,29.900833333333335,82.27000001877335,1.3101302083333335,61.43289021363068
1371318306.5,0.088417,29.9025,82.23333333333335,1.3316406250000001,61.43289021363068
1371318306.75,0.088417,29.902500000000003,82.19666664789334,1.337265625,61.43289021363068
1371318307.0,0.088417,29.900833333333335,82.16000000000001,1.2162760416666667,61.43289021363068
1371318307.25,0.088417,29.89916666666667,82.1350000128,1.2596614583333332,61.43289021363068
1371318307.5,0.088417,29.897499999999997,82.11000000000001,1.3043229166666668,61.43289021363068
1371318307.75,0.088417,29.895833333333332,82.0849999872,1.497734375,61.43289021363068
1371318308.0,0.088417,29.894166666666667,82.06,1.739453125,61.43289021363068
1371318308.25,0.088417,29.8925,82.04916667221333,1.8412239583333332,61.43289021363068
1371318308.5,0.088417,29.890833333333333,82.03833333333333,2.2152864583333334,61.43289021363068
1371318308.75,0.08847041666666666,29.89,82.02749999445334,2.5089843750000003,61.44216471320102
1371318309.0,0.08857725,29.89,82.01666666666667,2.6630208333333334,61.45232832756926
1371318309.25,0.08863066666666668,29.89,82.02333332992,3.0213802083333334,61.46249194193751
1371318309.5,0.08863066666666668,29.89,82.03,3.260677083333333,61.472655556305746
1371318309.75,0.08863066666666668,29.89,82.03666667008,3.3655989583333334,61.482819170673984
1371318310.0,0.08863066666666665,29.89,82.04333333333334,3.718880208333333,61.49298278504222
1371318310.25,0.08863066666666668,29.89,82.04999999658668,3.9191406250000003,61.50314639941047
1371318310.5,0.08868408333333333,29.89,82.05666666666667,3.978880208333333,61.513310013778714
1371318310.75,0.08879091666666666,29.89,82.06333333674667,4.091796875,61.523473628146945
1371318311.0,0.08889775,29.89,82.07000000000001,4.167630208333334,61.53363724251519
1371318311.25,0.08900458333333333,29.89,82.07166666581334,4.190364583333333,61.54380085688343
1371318311.5,0.08911141666666667,29.89,82.07333333333334,4.147447916666667,61.55396447125168
1371318311.75,0.08916483333333332,29.89,82.07500000085334,4.186171875,61.554853586049575
1371318312.0,0.08916483333333332,29.89,82.07666666666667,4.323645833333333,61.554853586049575
1371318312.25,0.08921825,29.89,82.07583333376,4.325729166666666,61.554853586049575
1371318312.5,0.08932508333333333,29.89,82.07499999999999,4.48203125,61.554853586049575
1371318312.75,0.08943191666666667,29.890833333333333,82.07416666623999,4.494765625,61.554853586049575
1371318313.0,0.08953875,29.8925,82.07333333333332,4.177005208333333,61.56275603616255
1371318313.25,0.08964558333333333,29.894166666666667,82.07250000042666,4.153125,61.57425050905414
1371318313.5,0.089699,29.895833333333332,82.07166666666666,4.101848958333333,61.58574498194574
1371318313.75,0.089699,29.897500000000004,82.07083333290666,3.870755208333333,61.597239454837336
1371318314.0,0.089699,29.899166666666662,82.07,3.9924479166666664,61.60873392772893
1371318314.25,0.089699,29.900833333333335,82.06583333546666,3.860078125,61.620228400620526
1371318314.5,0.089699,29.902500000000003,82.06166666666667,3.6823697916666664,61.63172287351211
1371318314.75,0.089699,29.90416666666667,82.05749999786666,3.8553125,61.64321734640372
1371318315.0,0.089699,29.905833333333334,82.05333333333333,3.6173437500000003,61.65471181929531
1371318315.25,0.089699,29.9075,82.04750000298665,3.5593750000000006,61.66620629218691
1371318315.5,0.089699,29.909166666666668,82.04166666666666,3.6026562499999994,61.6777007650785
1371318315.75,0.089699,29.909166666666664,82.03583333034666,3.5796875,61.689195237970104
1371318316.0,0.089699,29.9075,82.02999999999999,4.3775,61.69278726074872
1371318316.25,0.089699,29.905833333333334,82.02416666965333,4.8006770833333325,61.69430590192248
1371318316.5,0.089699,29.90416666666667,82.01833333333332,5.176666666666667,61.706995983465646
1371318316.75,0.089699,29.9025,82.01249999701332,5.9522916666666665,61.719812410425334
1371318317.0,0.089699,29.900833333333335,82.00666666666666,6.018645833333333,61.73262883738502
1371318317.25,0.089699,29.89916666666667,82.00833333247999,6.602473958333334,61.7454452643447
1371318317.5,0.089699,29.897499999999997,82.00999999999999,7.091848958333333,61.75826169130439
1371318317.75,0.08975237500000001,29.896666666666665,82.01166666752,7.100104166666667,61.771078118264064
1371318318.0,0.08980575,29.896666666666665,82.01333333333334,7.810729166666667,61.783894545223745
1371318318.25,0.089859125,29.896666666666665,82.02416666112,8.150598958333333,61.796710972183426
1371318318.5,0.089859125,29.896666666666665,82.035,8.342473958333333,61.809527399143114
1371318318.75,0.0899125,29.897500000000004,82.04583333888,8.863541666666666,61.82234382610279
1371318319.0,0.09001925,29.89916666666667,82.05666666666667,8.537786458333334,61.835160253062476
1371318319.25,0.090126,29.900833333333335,82.07916665514666,8.614973958333332,61.8464580388484
1371318319.5,0.09023275000000001,29.9025,82.10166666666666,8.657864583333334,61.84658438426491
1371318319.75,0.09033950000000002,29.90416666666667,82.12416667818667,8.251432291666667,61.84658438426491
1371318320.0,0.09044625,29.905833333333334,82.14666666666666,8.609661458333333,61.84658438426491
1371318320.25,0.090553,29.9075,82.17916665002666,8.331484375,61.84658438426491
1371318320.5,0.09065975,29.909166666666664,82.21166666666666,8.501432291666665,61.8345689839902
1371318320.75,0.090713125,29.91,82.24416668330666,8.72546875,61.82175255703052
1371318321.0,0.09076650000000001,29.91,82.27666666666666,8.271614583333333,61.80893613007084
1371318321.25,0.090819875,29.91,82.31416664746666,8.3365625,61.79611970311117
1371318321.5,0.090926625,29.91,82.35166666666666,8.003671875,61.78330327615148
1371318321.75,0.09098,29.91,82.38916668586666,7.531302083333333,61.7704868491918
1371318322.0,0.09098,29.91,82.42666666666666,7.5534895833333335,61.75767042223211
1371318322.25,0.09098,29.91,82.46666664618667,6.919453125,61.74485399527243
1371318322.5,0.09098,29.91,82.50666666666666,6.611328125,61.732037568312755
1371318322.75,0.09098,29.91,82.54666668714665,6.614244791666667,61.71922114135307
1371318323.0,0.09098,29.91,82.58666666666666,5.8825,61.706404714393386
1371318323.25,0.09098,29.91,82.62416664746667,5.774062499999999,61.6935882874337
1371318323.5,0.09098,29.91,82.66166666666666,5.2133593750000005,61.69278726074872
1371318323.75,0.09098,29.91,82.69916668586666,4.639947916666666,61.69278726074872
1371318324.0,0.09098,29.91,82.73666666666666,4.574895833333334,61.69278726074872
1371318324.25,0.09098,29.91,82.77333331455999,3.9037239583333334,61.69278726074872
1371318324.5,0.09098,29.91,82.81,3.7626041666666663,61.69278726074872
1371318324.75,0.09098,29.91,82.84666668544,3.665729166666667,61.69278726074872
1371318325.0,0.09098,29.91,82.88333333333333,3.150859375,61.69278726074872
1371318325.25,0.09098,29.91,82.91666664959999,3.2962239583333335,61.69278726074872
1371318325.5,0.09098,29.91,82.94999999999999,3.0541666666666667,61.69278726074872
1371318325.75,0.09098,29.91083333333333,82.9833333504,2.3769010416666663,61.69278726074872
1371318326.0,0.09098,29.912499999999998,83.01666666666667,1.9560677083333333,61.69278726074872
1371318326.25,0.09098,29.914166666666663,83.04916665002666,1.2465364583333334,61.69278726074872
1371318326.5,0.09098,29.915833333333335,83.08166666666666,1.0872656250000001,61.69278726074872
1371318326.75,0.09098,29.918333333333333,83.11416668330666,1.110625,61.69278726074872
1371318327.0,0.09098,29.921666666666667,83.14666666666666,0.6637500000000001,61.69278726074872
1371318327.25,0.09098,29.925,83.17749998421333,0.9570052083333334,61.69278726074872
1371318327.5,0.09098,29.928333333333338,83.20833333333333,0.8869010416666668,61.69278726074872
1371318327.75,0.09103337500000001,29.930833333333336,83.23916668245333,0.6591666666666667,61.69278726074872
1371318328.0,0.09108675,29.9325,83.27,0.9782812499999999,61.69278726074872
1371318328.25,0.09108675,29.934166666666666,83.29999998464,0.7505989583333332,61.69278726074872
1371318328.5,0.09108675000000001,29.93583333333333,83.33,0.8476041666666666,61.69278726074872
1371318328.75,0.09108675,29.937499999999996,83.36000001536,1.8652083333333334,61.69278726074872
1371318329.0,0.09108675,29.939166666666665,83.39,3.0266927083333335,61.69278726074872
1371318329.25,0.09108675,29.940833333333334,83.41916665173333,3.949895833333333,61.69278726074872
1371318329.5,0.09108675000000001,29.9425,83.44833333333334,4.410729166666667,61.69278726074872
1371318329.75,0.09108675,29.94333333333333,83.47750001493334,4.4332031249999995,61.69278726074872
1371318330.0,0.09108675,29.94333333333333,83.50666666666667,4.977447916666667,61.69278726074872
1371318330.25,0.09108675,29.94333333333333,83.53333331968001,5.189453124999999,61.69278726074872
1371318330.5,0.09108675000000001,29.94333333333333,83.56,5.356875,61.69278726074872
1371318330.75,0.09103337500000001,29.944166666666664,83.58666668032,5.83953125,61.69278726074872
1371318331.0,0.09103337500000001,29.94583333333333,83.61333333333333,5.977604166666667,61.69278726074872
1371318331.25,0.09108675,29.9475,83.63583332181334,6.263828125,61.69278726074872
1371318331.5,0.0911935,29.949166666666667,83.65833333333333,6.57015625,61.69278726074872
1371318331.75,0.09130024999999999,29.95,83.68083334485333,6.29375,61.69278726074872
1371318332.0,0.091407,29.95,83.70333333333333,5.944817708333333,61.69278726074872
1371318332.25,0.09151375,29.95,83.73333331797333,6.014244791666666,61.69278726074872
1371318332.5,0.0916205,29.95,83.76333333333334,6.072630208333333,61.69278726074872
1371318332.75,0.09172724999999998,29.95,83.79333334869334,6.37890625,61.69278726074872
1371318333.0,0.09183400000000001,29.95,83.82333333333334,6.555,61.69278726074872
1371318333.25,0.09194075,29.95,83.84583332181334,6.6386458333333325,61.69278726074872
1371318333.5,0.09204749999999999,29.95,83.86833333333334,6.923645833333334,61.69278726074872
1371318333.75,0.09215425,29.95,83.89083334485333,7.0792447916666665,61.69278726074872
1371318334.0,0.092207625,29.95,83.91333333333334,7.295104166666666,61.69278726074872
1371318334.25,0.092261,29.95,83.90250000554667,7.721770833333334,61.69278726074872
1371318334.5,0.092261,29.95,83.89166666666668,7.956536458333333,61.69278726074872
1371318334.75,0.092261,29.949166666666667,83.88083332778668,8.200312499999999,61.69278726074872
1371318335.0,0.092261,29.9475,83.87,8.620729166666667,61.69278726074872
1371318335.25,0.092261,29.94583333333333,83.71583341226668,8.667213541666667,61.69278726074872
1371318335.5,0.092261,29.944166666666664,83.56166666666667,8.791380208333333,61.69278726074872
1371318335.75,0.092261,29.94333333333333,83.40749992106666,9.123880208333334,61.69278726074872
1371318336.0,0.092261,29.94333333333333,83.25333333333333,9.269895833333333,61.69278726074872
1371318336.25,0.092261,29.94333333333333,83.01750012074666,9.396770833333333,61.69278726074872
1371318336.5,0.092261,29.94333333333333,82.78166666666667,9.547604166666668,61.69278726074872
1371318336.75,0.092261,29.94333333333333,82.54583321258667,9.599244791666667,61.69278726074872
1371318337.0,0.092261,29.94333333333333,82.31,9.551848958333334,61.69278726074872
1371318337.25,0.092261,29.94333333333333,82.10166677333333,9.303098958333333,61.69278726074872
1371318337.5,0.092261,29.94333333333333,81.89333333333335,9.169166666666667,61.69278726074872
1371318337.75,0.092261,29.944166666666664,81.68499989333334,8.983151041666668,61.69278726074872
1371318338.0,0.092261,29.94583333333333,81.47666666666667,8.463151041666666,61.69278726074872
1371318338.25,0.092261,29.9475,81.43666668714667,8.310598958333333,61.69278726074872
1371318338.5,0.092261,29.949166666666667,81.39666666666668,8.185859375000001,61.69278726074872
1371318338.75,0.092261,29.95,81.35666664618668,7.783359375,61.69278726074872
1371318339.0,0.092261,29.95,81.31666666666668,7.68875,61.69278726074872
1371318339.25,0.092261,29.95,81.38749996373335,7.570963541666667,61.69278726074872
1371318339.5,0.092261,29.95,81.45833333333334,7.250546875,61.69278726074872
1371318339.75,0.092261,29.949166666666667,81.52916670293334,7.057994791666666,61.69278726074872
1371318340.0,0.092261,29.9475,81.60000000000001,6.9323958333333335,61.69278726074872
1371318340.25,0.092261,29.945833333333336,81.69833328298668,6.9203125000000005,61.69278726074872
1371318340.5,0.092261,29.944166666666664,81.79666666666668,6.884921875,61.69278726074872
1371318340.75,0.092261,29.94333333333333,81.89500005034667,6.902864583333333,61.69278726074872
1371318341.0,0.09231441666666666,29.94333333333333,81.99333333333334,7.166197916666667,61.69278726074872
1371318341.25,0.09242125000000001,29.94333333333333,82.07833328981334,7.18765625,61.69278726074872
1371318341.5,0.09252808333333333,29.94333333333333,82.16333333333333,7.147265624999999,61.69278726074872
1371318341.75,0.0925815,29.9425,82.24833337685332,7.388515625,61.69278726074872
1371318342.0,0.09263491666666666,29.94083333333333,82.33333333333333,7.34390625,61.69278726074872
1371318342.25,0.09263491666666668,29.939166666666665,82.41249995946666,7.358072916666667,61.69278726074872
1371318342.5,0.09263491666666666,29.9375,82.49166666666666,7.622239583333333,61.69278726074872
1371318342.75,0.09263491666666666,29.938333333333333,82.57083337386666,7.683411458333333,61.69278726074872
1371318343.0,0.09263491666666668,29.941666666666666,82.64999999999999,7.676015625000001,61.69278726074872
1371318343.25,0.09263491666666666,29.944999999999997,82.72249996288,7.846432291666666,61.69278726074872
1371318343.5,0.09263491666666666,29.948333333333334,82.79499999999999,7.885234375,61.69278726074872
1371318343.75,0.09263491666666668,29.95,82.86750003712,7.862239583333334,61.69278726074872
1371318344.0,0.0925815,29.95,82.94,7.78265625,61.69278726074872
1371318344.25,0.09247466666666665,29.95,83.00333330090666,7.814166666666668,61.69278726074872
1371318344.5,0.09236783333333333,29.95,83.06666666666666,7.861927083333334,61.69278726074872
1371318344.75,0.09231441666666666,29.950833333333335,83.13000003242666,7.73484375,61.69278726074872
1371318345.0,0.092261,29.9525,83.19333333333333,7.6525,61.69278726074872
1371318345.25,0.092261,29.954166666666666,83.23333331285333,7.5124739583333335,61.69278726074872
1371318345.5,0.092261,29.95583333333333,83.27333333333334,7.269557291666666,61.69278726074872
1371318345.75,0.09231441666666668,29.95583333333333,83.31333335381333,7.2896875,61.69278726074872
1371318346.0,0.09242125,29.954166666666666,83.35333333333334,7.3811979166666655,61.69278726074872
1371318346.25,0.09252808333333333,29.9525,83.36749999274667,7.077916666666667,61.69278726074872
1371318346.5,0.09263491666666668,29.950833333333332,83.38166666666667,7.029010416666666,61.69278726074872
1371318346.75,0.09274175,29.95,83.39583334058668,6.955729166666665,61.69278726074872
1371318347.0,0.09284858333333333,29.95,83.41000000000001,6.654036458333333,61.69278726074872
1371318347.25,0.09295541666666667,29.95,83.40166667093334,6.661979166666666,61.69278726074872
1371318347.5,0.09306225,29.95,83.39333333333335,6.656875,61.69278726074872
1371318347.75,0.09316908333333333,29.950833333333332,83.38499999573335,6.554791666666667,61.69278726074872
1371318348.0,0.09327591666666667,29.9525,83.37666666666668,6.735911458333334,61.69278726074872
1371318348.25,0.09338275000000001,29.954166666666666,83.36583333888001,6.957630208333334,61.69278726074872
1371318348.5,0.09348958333333333,29.955833333333334,83.355,7.128411458333333,61.69278726074872
1371318348.75,0.093543,29.9575,83.34416666112,7.381744791666666,61.69278726074872
1371318349.0,0.093543,29.959166666666665,83.33333333333333,7.510130208333334,61.69278726074872
1371318349.25,0.093543,29.96083333333333,83.32500000426666,7.757161458333333,61.69278726074872
1371318349.5,0.093543,29.962500000000002,83.31666666666666,7.9219791666666675,61.69278726074872
1371318349.75,0.093543,29.964166666666667,83.30833332906667,8.1396875,61.69278726074872
1371318350.0,0.093543,29.965833333333336,83.3,8.555572916666668,61.69278726074872
1371318350.25,0.093543,29.967499999999998,83.29166667093332,8.535130208333333,61.69278726074872
1371318350.5,0.093543,29.969166666666666,83.28333333333333,8.531640625,61.69278726074872
1371318350.75,0.093543,29.97,83.27499999573334,8.662890625000001,61.69278726074872
1371318351.0,0.093543,29.97,83.26666666666667,8.444374999999999,61.69278726074872
1371318351.25,0.093543,29.97,83.25833333759999,8.259010416666667,61.69278726074872
1371318351.5,0.093543,29.97,83.25,8.2090625,61.69278726074872
1371318351.75,0.093543,29.969166666666666,83.24166666240001,7.943697916666667,61.69278726074872
1371318352.0,0.093543,29.967499999999998,83.23333333333333,7.814166666666666,61.69278726074872
1371318352.25,0.093543,29.965833333333332,83.22333333845333,7.803750000000001,61.69278726074872
1371318352.5,0.093543,29.964166666666667,83.21333333333334,7.621692708333334,61.69278726074872
1371318352.75,0.093596375,29.962500000000002,83.20333332821335,7.460052083333333,61.69278726074872
1371318353.0,0.093703125,29.96083333333333,83.19333333333334,7.340026041666667,61.69278726074872
1371318353.25,0.093809875,29.959166666666665,83.18250000554667,7.259166666666668,61.69278726074872
1371318353.5,0.09386325,29.957499999999996,83.17166666666668,7.201588541666667,61.69278726074872
1371318353.75,0.09386325,29.955833333333334,83.16083332778668,7.210755208333334,61.69278726074872
1371318354.0,0.09386325000000001,29.954166666666666,83.15,7.257083333333334,61.69278726074872
1371318354.25,0.09386325,29.9525,83.13916667221334,7.253854166666667,61.69278726074872
1371318354.5,0.09386325,29.950833333333332,83.12833333333333,7.210651041666666,61.69278726074872
1371318354.75,0.09386325000000001,29.951666666666668,83.11749999445334,7.071484375000001,61.69278726074872
1371318355.0,0.09386325000000001,29.955,83.10666666666667,6.92171875,61.69278726074872
1371318355.25,0.09391662499999999,29.958333333333332,83.0983333376,6.774218749999999,61.69278726074872
1371318355.5,0.094023375,29.961666666666662,83.09,6.770963541666666,61.69278726074872
1371318355.75,0.094023375,29.965,83.0816666624,6.721302083333334,61.69278726074872
1371318356.0,0.09391662500000002,29.968333333333334,83.07333333333332,6.600052083333334,61.69278726074872
1371318356.25,0.093809875,29.971666666666664,83.06666667008,6.718645833333333,61.69278726074872
1371318356.5,0.0937565,29.974999999999998,83.06,6.762604166666667,61.69278726074872
1371318356.75,0.09380987499999999,29.977500000000003,83.05333332992,6.6371875,61.69278726074872
1371318357.0,0.09391662499999999,29.97916666666666,83.04666666666667,6.716874999999999,61.69278726074872
1371318357.25,0.09397,29.980833333333333,83.03916667050666,6.8121093749999995,61.69278726074872
1371318357.5,0.09407675,29.982499999999998,83.03166666666667,6.852421875,61.69278726074872
1371318357.75,0.09418349999999999,29.982499999999998,83.02416666282667,7.235520833333332,61.69278726074872
1371318358.0,0.09429025,29.980833333333333,83.01666666666667,7.385703125,61.69641335792409
1371318358.25,0.094343625,29.979166666666668,83.00583333888,7.440364583333333,61.709229784883775
1371318358.5,0.094343625,29.977499999999996,82.995,7.599583333333334,61.722046211843455
1371318358.75,0.09439700000000001,29.97583333333333,82.98416666112,7.547838541666667,61.73486263880314
1371318359.0,0.09450375,29.97416666666666,82.97333333333333,7.590807291666667,61.74767906576283
1371318359.25,0.0946105,29.9725,82.96166667263999,7.756276041666666,61.76070595836208
1371318359.5,0.09471725000000002,29.97083333333333,82.94999999999999,7.560494791666666,61.78365669189512
1371318359.75,0.09477062500000001,29.97083333333333,82.93833332736,7.746770833333333,61.81060166473727
1371318360.0,0.09477062500000001,29.9725,82.92666666666666,7.956406250000001,61.83754663757943
1371318360.25,0.094824,29.974166666666665,82.91833333759999,7.671640624999999,61.864491610421574
1371318360.5,0.094824,29.97583333333333,82.91,7.834557291666667,61.89143658326375
1371318360.75,0.094824,29.977499999999996,82.9016666624,7.517447916666668,61.908668180811695
1371318361.0,0.094824,29.979166666666668,82.89333333333333,7.277734374999999,61.91785851059601
1371318361.25,0.094824,29.980833333333333,82.89416666624,7.574557291666667,61.917858510596005
1371318361.5,0.094824,29.9825,82.895,7.322916666666667,61.917858510596005
1371318361.75,0.094824,29.984166666666663,82.89583333376,7.429947916666666,61.917858510596005
1371318362.0,0.094824,29.985833333333332,82.89666666666666,7.702682291666666,61.917858510596005
1371318362.25,0.094824,29.987499999999997,82.90833332736,7.2846874999999995,61.91764804495643
1371318362.5,0.094824,29.989166666666666,82.91999999999999,7.6625000000000005,61.90751373838308
1371318362.75,0.094824,29.99,82.93166667263999,7.641171875,61.8933851925006
1371318363.0,0.094824,29.99,82.94333333333333,7.158098958333333,61.87925664661813
1371318363.25,0.094824,29.99,82.96583332181334,7.688515625000001,61.86512810073566
1371318363.5,0.094824,29.99,82.98833333333334,7.473723958333333,61.85099955485318
1371318363.75,0.094824,29.99,83.01083334485334,7.497239583333333,61.84658438426491
1371318364.0,0.094824,29.99,83.03333333333335,7.98421875,61.84658438426491
1371318364.25,0.094824,29.99,83.06249998506668,7.691953125,61.84658438426491
1371318364.5,0.094824,29.99,83.09166666666667,7.875651041666667,61.84658438426491
1371318364.75,0.094824,29.99,83.12083334826666,8.086927083333334,61.84658438426491
1371318365.0,0.094824,29.99,83.14999999999999,7.855651041666667,61.84658438426491
1371318365.25,0.094824,29.99,83.18333331626667,8.147291666666668,61.84658438426491
1371318365.5,0.094824,29.99,83.21666666666667,8.029114583333333,61.84658438426491
1371318365.75,0.094824,29.99,83.25000001706667,7.889166666666667,61.84658438426491
1371318366.0,0.09487741666666667,29.99,83.28333333333335,8.137734374999999,61.84658438426491
1371318366.25,0.09487741666666667,29.99,83.32333331285334,7.849479166666666,61.84658438426491
1371318366.5,0.09487741666666667,29.99,83.36333333333334,7.820911458333334,61.84658438426491
1371318366.75,0.09487741666666666,29.99,83.40333335381334,7.860182291666667,61.84658438426491
1371318367.0,0.09487741666666666,29.99,83.44333333333333,7.500234375000001,61.84658438426491
1371318367.25,0.09493083333333334,29.99,83.47583331669333,7.331432291666666,61.84658438426491
1371318367.5,0.09498424999999999,29.99,83.50833333333333,7.372916666666666,61.84658438426491
1371318367.75,0.09509108333333333,29.99,83.54083334997334,7.003281250000001,61.84658438426491
1371318368.0,0.0951445,29.99,83.57333333333334,6.721197916666667,61.84658438426491
1371318368.25,0.09519791666666667,29.99,83.59833332053334,6.645234375,61.84658438426491
1371318368.5,0.09525133333333334,29.99,83.62333333333333,6.201536458333333,61.84658438426491
1371318368.75,0.09525133333333334,29.99083333333333,83.64833334613333,6.070104166666667,61.84658438426491
1371318369.0,0.09519791666666666,29.992500000000003,83.67333333333333,6.16890625,61.84658438426491
1371318369.25,0.09519791666666666,29.99416666666667,83.68583332693333,5.761067708333333,61.84658438426491
1371318369.5,0.09519791666666666,29.995833333333334,83.69833333333334,5.787604166666667,61.84658438426491
1371318369.75,0.09519791666666667,29.9975,83.71083333973334,5.861744791666666,61.84658438426491
1371318370.0,0.09519791666666667,29.999166666666664,83.72333333333334,5.537187500000001,61.84658438426491
1371318370.25,0.0951445,30.000833333333336,83.73999999146668,5.821119791666667,61.84658438426491
1371318370.5,0.09509108333333334,30.0025,83.75666666666667,5.7214583333333335,61.84658438426491
1371318370.75,0.09498425,30.004166666666666,83.77333334186667,5.693098958333334,61.84658438426491
1371318371.0,0.09493083333333334,30.00583333333333,83.79,6.308151041666666,61.84658438426491
1371318371.25,0.09493083333333334,30.007499999999997,83.80749999104,6.2101041666666665,61.84658438426491
1371318371.5,0.09493083333333334,30.00916666666667,83.82500000000002,6.598828125,61.84658438426491
1371318371.75,0.09503766666666667,30.01,83.84250000896002,7.129895833333333,61.84658438426491
1371318372.0,0.0951445,30.01,83.86000000000001,6.866145833333333,61.84658438426491
1371318372.25,0.09525133333333334,30.01,83.87833332394668,7.541302083333334,61.84658438426491
1371318372.5,0.09535816666666667,30.01,83.89666666666668,7.921770833333333,61.84658438426491
1371318372.75,0.09546500000000001,30.01,83.91500000938667,7.779348958333333,61.84658438426491
1371318373.0,0.09557183333333334,30.01,83.93333333333334,8.556041666666667,61.84658438426491
1371318373.25,0.09567866666666665,30.01,83.94999999146667,8.664036458333333,61.84658438426491
1371318373.5,0.09578549999999998,30.01,83.96666666666667,8.528958333333334,61.84658438426491
1371318373.75,0.09589233333333332,30.01,83.98333334186667,9.091536458333334,61.84658438426491
1371318374.0,0.09599916666666665,30.01,84.0,8.763359375,61.84658438426491
1371318374.25,0.09605258333333333,30.01,84.01999998976,8.816145833333334,61.84658438426491
1371318374.5,0.096106,30.01,84.03999999999999,9.190755208333334,61.84658438426491
1371318374.75,0.096106,30.01,84.06000001024,8.810625,61.84658438426491
1371318375.0,0.096106,30.01,84.08,8.947708333333333,61.84658438426491
1371318375.25,0.096106,30.01,84.10083332266667,8.833020833333334,61.84418130420997
1371318375.5,0.096106,30.01,84.12166666666667,8.357161458333334,61.83136487725029
1371318375.75,0.096106,30.010833333333338,84.14250001066667,8.243333333333334,61.8185484502906
1371318376.0,0.096106,30.0125,84.16333333333334,7.676328124999999,61.80573202333091
1371318376.25,0.096106,30.014166666666668,84.184166656,7.267005208333333,61.792915596371245
1371318376.5,0.096106,30.015833333333333,84.20500000000001,7.138437499999999,61.78009916941156
1371318376.75,0.096106,30.01666666666667,84.22583334400001,6.379973958333333,61.774491982616695
1371318377.0,0.096106,30.01666666666667,84.24666666666667,5.810338541666666,61.774491982616695
1371318377.25,0.096106,30.016666666666666,84.25999999317334,5.208723958333333,61.774491982616695
1371318377.5,0.096106,30.016666666666666,84.27333333333334,4.165494791666666,61.774491982616695
1371318377.75,0.096106,30.01666666666667,84.28666667349333,3.7862499999999994,61.774491982616695
1371318378.0,0.096106,30.01666666666667,84.3,3.3740104166666662,61.774491982616695
1371318378.25,0.096159375,30.01666666666667,84.30666666325334,2.574765625,61.776895062671635
1371318378.5,0.09621275,30.01666666666667,84.31333333333333,2.1227604166666665,61.789711489631316
1371318378.75,0.0963195,30.015833333333333,84.32000000341333,1.7091927083333331,61.802527916591
1371318379.0,0.09642624999999999,30.014166666666668,84.32666666666667,1.2808593750000001,61.81534434355069
1371318379.25,0.096533,30.012500000000003,84.32083333631999,0.8022135416666667,61.82816077051036
1371318379.5,0.09663974999999998,30.010833333333338,84.315,0.32614583333333336,61.840977197470046
1371318379.75,0.0967465,30.01,84.30916666368,-0.01333333333333335,61.84658438426491
1371318380.0,0.09685325,30.01,84.30333333333333,-0.03500000000000001,61.84658438426491
1371318380.25,0.09696,30.01,84.28583334229333,0.028619791666666655,61.845994618002784
1371318380.5,0.09706675,30.01,84.26833333333333,0.13833333333333334,61.84510996860961
1371318380.75,0.09717350000000001,30.01,84.25083332437333,0.045833333333333316,61.84182321636262
1371318381.0,0.09728025,30.01,84.23333333333333,0.14244791666666665,61.837903660048134
1371318381.25,0.097333625,30.01,84.20333334869333,0.45796875000000004,61.83056748973033
1371318381.5,0.097387,30.01,84.17333333333333,0.5521614583333333,61.820363009503346
1371318381.75,0.097387,30.01,84.14333331797333,0.8447916666666666,61.805771190269134
1371318382.0,0.097387,30.01,84.11333333333333,1.108125,61.789660341936894
1371318382.25,0.097387,30.01,84.07583335253332,1.8170572916666667,61.76927869886713
1371318382.5,0.097387,30.01,84.03833333333333,2.7384635416666665,61.73412589282379
1371318382.75,0.097387,30.010833333333334,84.00083331413333,3.497578125,61.698973086780455
1371318383.0,0.097387,30.012500000000003,83.96333333333332,4.28015625,61.660635292429475
1371318383.25,0.097387,30.014166666666668,83.92583335253333,4.980130208333334,61.61014731111005
1371318383.5,0.097387,30.015833333333333,83.88833333333332,5.483463541666667,61.55889255015248
1371318383.75,0.097387,30.0175,83.85083331413333,5.85296875,61.510039892048724
1371318384.0,0.097387,30.019166666666667,83.81333333333333,5.713515624999999,61.463943363550875
1371318384.25,0.097387,30.020833333333332,83.77833335125334,5.782604166666666,61.434862869440686
1371318384.5,0.097387,30.022500000000004,83.74333333333334,6.138307291666667,61.43013682093139
1371318384.75,0.097387,30.024166666666662,83.70833331541333,6.151354166666667,61.46619821058203
1371318385.0,0.097387,30.025833333333335,83.67333333333333,6.424401041666666,61.51186754025352
1371318385.25,0.097387,30.0275,83.64583334741333,6.162057291666667,61.561807664662545
1371318385.5,0.097387,30.02916666666667,83.61833333333334,5.627369791666666,61.62651895204513
1371318385.75,0.097387,30.03,83.59083331925333,5.437812500000001,61.69123023942772
1371318386.0,0.097387,30.03,83.56333333333333,4.857864583333333,61.75912651511796
1371318386.25,0.097387,30.03,83.54250001066667,4.475390625,61.83976274403876
1371318386.5,0.097387,30.03,83.52166666666668,4.290364583333333,61.92146063572876
1371318386.75,0.097387,30.03,83.50083332266667,3.9747916666666665,62.00315852741877
1371318387.0,0.097387,30.03,83.48,4.215104166666666,62.08273309357035
1371318387.25,0.097387,30.03,83.4675000064,4.175130208333333,62.148708239337594
1371318387.5,0.097387,30.03,83.455,3.8890104166666664,62.193197249413124
1371318387.75,0.097387,30.03,83.4424999936,3.9528906249999998,62.20128616033595
1371318388.0,0.097387,30.03,83.42999999999999,3.7288802083333334,62.20128616033595
1371318388.25,0.097387,30.03,83.42416666965333,3.5872395833333335,62.20128616033595
1371318388.5,0.097387,30.03,83.41833333333332,3.6999479166666664,62.20128616033595
1371318388.75,0.097387,30.03,83.41249999701333,3.5518750000000003,62.20128616033595
1371318389.0,0.09744037500000001,30.03,83.40666666666667,3.578619791666666,62.20128616033595
1371318389.25,0.097547125,30.03,83.40500000085333,3.4968229166666664,62.20128616033595
1371318389.5,0.097653875,30.03,83.40333333333334,3.378515625,62.194830536405874
1371318389.75,0.097760625,30.03,83.40166666581334,3.528020833333333,62.18078475318125
1371318390.0,0.09781400000000001,30.03,83.4,3.490989583333333,62.16535481772448
1371318390.25,0.09792075,30.03,83.39833333418667,3.4569531249999996,62.1499248822677
1371318390.5,0.0980275,30.03,83.39666666666668,3.6007031250000003,62.13449494681092
1371318390.75,0.09813424999999999,30.03,83.39499999914666,3.385026041666667,62.11347449105177
1371318391.0,0.09824100000000001,30.03,83.39333333333333,3.032083333333333,62.08644159738741
1371318391.25,0.09834775,30.03,83.38750000298667,2.7502604166666664,62.05688311604816
1371318391.5,0.09845450000000001,30.03,83.38166666666666,2.29,62.026734868446795
1371318391.75,0.09856125,30.02916666666667,83.37583333034667,1.9038541666666668,61.98317408208652
1371318392.0,0.09861462500000001,30.027500000000003,83.37,1.7141145833333333,61.91773801345291
1371318392.25,0.09861462500000001,30.02583333333334,83.36333333674666,1.5702083333333334,61.84827616428033
1371318392.5,0.09861462500000001,30.02416666666667,83.35666666666665,1.2602604166666667,61.77970700170348
1371318392.75,0.098614625,30.023333333333337,83.34999999658666,0.921953125,61.71681683818462
1371318393.0,0.098668,30.023333333333337,83.34333333333332,0.41091145833333337,61.6553108268979
1371318393.25,0.098668,30.023333333333337,83.33416667135998,-0.18307291666666667,61.59231690619014
1371318393.5,0.098668,30.023333333333337,83.32499999999999,-0.6584635416666665,61.5260911780172
1371318393.75,0.098668,30.023333333333337,83.31583332864,-0.987421875,61.46405236978146
1371318394.0,0.098668,30.023333333333337,83.30666666666666,-1.1798177083333332,61.40802599945095
1371318394.25,0.098668,30.023333333333337,83.29750000469332,-0.9789322916666667,61.35452521679533
1371318394.5,0.098668,30.023333333333337,83.28833333333333,-0.7938020833333334,61.301614200401815
1371318394.75,0.09872141666666667,30.02583333333334,83.27916666197333,-0.7789062499999999,61.26211572276722
1371318395.0,0.09872141666666667,30.030833333333337,83.27,-0.84,61.244492527405946
1371318395.25,0.09877483333333333,30.035833333333333,83.26166667093332,-1.1121354166666666,61.23089511258365
1371318395.5,0.09888166666666669,30.040833333333335,83.25333333333333,-1.1181249999999998,61.22286063509569
1371318395.75,0.09893508333333334,30.045,83.24499999573334,-0.7772395833333334,61.2167373178443
1371318396.0,0.09893508333333334,30.048333333333332,83.23666666666666,-0.20213541666666676,61.210614000592905
1371318396.25,0.09893508333333334,30.051666666666666,83.23333333504,0.8322395833333333,61.205978592762584
1371318396.5,0.09893508333333334,30.054999999999996,83.23,1.607734375,61.204574992397426
1371318396.75,0.0989885,30.0575,83.22666666496,2.2651302083333333,61.204574992397426
1371318397.0,0.09909533333333333,30.059166666666666,83.22333333333334,3.31203125,61.204574992397426
1371318397.25,0.09920216666666666,30.060833333333335,83.23833332565334,3.738072916666667,61.204574992397426
1371318397.5,0.099309,30.0625,83.25333333333334,4.174869791666667,61.204574992397426
1371318397.75,0.099309,30.0625,83.26833334101335,4.936145833333334,61.204574992397426
1371318398.0,0.09941583333333333,30.060833333333335,83.28333333333335,5.2971875,61.204574992397426
1371318398.25,0.09941583333333336,30.059166666666666,83.30499998890667,5.898359374999999,61.204574992397426
1371318398.5,0.099309,30.0575,83.32666666666668,6.412291666666666,61.204574992397426
1371318398.75,0.099309,30.05666666666667,83.34833334442668,6.295807291666666,61.204574992397426
1371318399.0,0.09936241666666668,30.05666666666667,83.37,6.276822916666666,61.204574992397426
1371318399.25,0.09946925000000001,30.05666666666667,83.4074999808,5.800182291666666,61.204574992397426
1371318399.5,0.09957608333333333,30.056666666666672,83.445,5.322526041666666,61.204574992397426
1371318399.75,0.0996295,30.057500000000005,83.4825000192,5.1965625,61.204574992397426
1371318400.0,0.0996295,30.05916666666667,83.52,4.471588541666667,61.204574992397426
1371318400.25,0.0996295,30.060833333333335,83.55333331626667,4.0812760416666665,61.204574992397426
1371318400.5,0.09957608333333334,30.0625,83.58666666666667,3.8378385416666667,61.204574992397426
1371318400.75,0.09957608333333334,30.064166666666665,83.62000001706667,3.152890625,61.204574992397426
1371318401.0,0.09946925000000001,30.065833333333334,83.65333333333335,3.046744791666667,61.204574992397426
1371318401.25,0.09941583333333333,30.0675,83.69416664576,2.8088541666666664,61.204574992397426
1371318401.5,0.09946925,30.06916666666667,83.73500000000001,2.453984375,61.204574992397426
1371318401.75,0.09946925000000001,30.07,83.77583335424,2.6152604166666666,61.204574992397426
1371318402.0,0.09952266666666666,30.07,83.81666666666666,2.305,61.204574992397426
1371318402.25,0.09952266666666666,30.07,83.85333331455999,2.1872656249999998,61.204574992397426
1371318402.5,0.09952266666666666,30.07,83.88999999999999,2.31109375,61.204574992397426
1371318402.75,0.09952266666666666,30.07,83.92666668544,1.9432812499999998,61.204574992397426
1371318403.0,0.09946925000000001,30.07,83.96333333333332,2.0817447916666665,61.204574992397426
1371318403.25,0.09941583333333336,30.07,84.00249997994666,2.1585677083333334,61.204574992397426
1371318403.5,0.09946925000000001,30.07,84.04166666666666,1.93375,61.204574992397426
1371318403.75,0.09952266666666666,30.07,84.08083335338665,2.262734375,61.204574992397426
1371318404.0,0.0996295,30.07,84.11999999999999,2.1659635416666667,61.204574992397426
1371318404.25,0.09973633333333333,30.07,84.1574999808,2.0847916666666664,61.204574992397426
1371318404.5,0.09978975,30.07,84.195,2.31203125,61.204574992397426
1371318404.75,0.09984316666666666,30.07083333333333,84.23250001919999,2.06703125,61.204574992397426
1371318405.0,0.09984316666666666,30.0725,84.27,2.4161979166666665,61.25199385454089
1371318405.25,0.09984316666666666,30.074166666666667,84.3074999808,2.7621875,61.320966744931376
1371318405.5,0.09984316666666666,30.075833333333335,84.345,2.7853385416666665,61.389939635321866
1371318405.75,0.09984316666666666,30.076666666666668,84.3825000192,3.4309895833333335,61.45891252571235
1371318406.0,0.09989658333333333,30.076666666666668,84.42,3.6366666666666667,61.52788541610284
1371318406.25,0.09995,30.076666666666668,84.45833331370667,3.8348437499999997,61.596858306493324
1371318406.5,0.09995,30.076666666666668,84.49666666666667,4.365755208333334,61.66583119688382
1371318406.75,0.09995,30.076666666666664,84.53500001962666,4.362369791666667,61.73480408727431
1371318407.0,0.09995,30.076666666666664,84.57333333333334,4.704869791666667,61.8037769776648
1371318407.25,0.09995,30.076666666666668,84.61166664704001,4.8946875,61.87274986805528
1371318407.5,0.09995,30.076666666666668,84.65,4.676822916666667,61.94172275844577
1371318407.75,0.09995,30.075833333333335,84.68833335296,4.9878906249999995,62.01090553945869
1371318408.0,0.09995,30.074166666666667,84.72666666666667,4.737604166666666,62.03350892269353
1371318408.25,0.09995,30.0725,84.76499998037335,4.503307291666666,62.03594319600018
1371318408.5,0.09995,30.07083333333333,84.80333333333334,4.459557291666667,62.038755141616015
1371318408.75,0.09995,30.07,84.84166668629334,3.9058072916666666,62.041525130905704
1371318409.0,0.09995,30.07,84.88000000000001,3.722109375,62.04421120754305
1371318409.25,0.09995,30.07,84.9174999808,3.403723958333334,62.04513466086551
1371318409.5,0.09995,30.07,84.95500000000001,2.872916666666667,62.04580631085727
1371318409.75,0.100003375,30.07,84.99250001920001,2.5648958333333334,62.046477960849025
1371318410.0,0.10000337499999999,30.07,85.03,2.0795052083333334,62.04714961084078
1371318410.25,0.10000337499999999,30.07,85.06749998080001,1.783203125,62.047821260832556
1371318410.5,0.10000337499999999,30.07,85.105,1.730182291666667,62.04849291082431
1371318410.75,0.10000337499999999,30.07,85.1425000192,1.3775000000000002,62.04895467019364
1371318411.0,0.10000337499999999,30.07,85.18,1.2413802083333334,62.04857696519759
1371318411.25,0.10000337499999999,30.07,85.2174999808,1.0666666666666667,62.04681434188269
1371318411.5,0.100003375,30.07,85.255,0.8508854166666665,62.04467404625861
1371318411.75,0.100003375,30.070833333333336,85.2925000192,0.7981770833333334,62.04257570696069
1371318412.0,0.100003375,30.0725,85.33,0.56453125,62.0405612803151
1371318412.25,0.100003375,30.074166666666667,85.36916664661334,0.4483333333333333,62.04064519296742
1371318412.5,0.100003375,30.075833333333332,85.40833333333333,0.40533854166666666,62.04064519296741
1371318412.75,0.09995,30.0775,85.44750002005334,0.41549479166666664,62.04064519296742
1371318413.0,0.100003375,30.079166666666666,85.48666666666668,0.4777604166666667,62.04140052125293
1371318413.25,0.100110125,30.080833333333334,85.52583331328,0.45789062500000005,62.04215593124503
1371318413.5,0.100216875,30.0825,85.565,0.465,62.04215593124503
1371318413.75,0.10032362500000001,30.085000000000004,85.60416668672,0.44007812499999993,61.97265642661464
1371318414.0,0.100430375,30.088333333333335,85.64333333333333,0.4799479166666667,61.89278998822442
1371318414.25,0.100537125,30.091666666666665,85.68249997994667,0.519140625,61.8129235498342
1371318414.5,0.100643875,30.095,85.72166666666666,0.6108072916666667,61.73305711144399
1371318414.75,0.10075062499999998,30.0975,85.76083335338666,0.7259635416666667,61.65331854937412
1371318415.0,0.10085737499999999,30.099166666666665,85.8,0.8519270833333333,61.57345211098391
1371318415.25,0.100964125,30.10083333333333,85.8374999808,1.0062499999999999,61.493249956610676
1371318415.5,0.101070875,30.102500000000003,85.875,1.1677864583333333,61.41338351822046
1371318415.75,0.101177625,30.103333333333335,85.9125000192,1.32734375,61.333517079830244
1371318416.0,0.101231,30.103333333333335,85.95,1.4946354166666669,61.25289531315452
1371318416.25,0.101231,30.103333333333328,85.98999997952001,1.7374218750000001,61.17227346477219
1371318416.5,0.101231,30.103333333333335,86.03,1.8981510416666667,61.09240702638198
1371318416.75,0.101231,30.102499999999996,86.07000002048,2.2177864583333338,61.08204009262215
1371318417.0,0.101231,30.100833333333338,86.11,2.419583333333333,61.08204009262215
1371318417.25,0.101231,30.099166666666665,86.15416664405333,2.5795052083333334,61.08204009262216
1371318417.5,0.101231,30.0975,86.19833333333334,2.9294791666666664,61.13694826901544
1371318417.75,0.101231,30.096666666666664,86.24250002261334,2.979583333333333,61.2166868310853
1371318418.0,0.101231,30.096666666666668,86.28666666666668,3.2565625,61.29655326947551
1371318418.25,0.101231,30.096666666666668,86.33833330688,3.604427083333334,61.37641970786573
1371318418.5,0.101231,30.096666666666664,86.39000000000001,3.6463541666666663,61.45628614625594
1371318418.75,0.101231,30.09833333333333,86.44166669312001,3.8956250000000003,61.53615258464615
1371318419.0,0.101231,30.101666666666663,86.49333333333334,4.029869791666667,61.616019023036365
1371318419.25,0.101231,30.105,86.54666663936,4.0990625,61.6958854614266
1371318419.5,0.101231,30.10833333333333,86.6,4.406510416666666,61.77575189981681
1371318419.75,0.101231,30.110833333333332,86.65333336064,4.4538802083333335,61.85561833820702
1371318420.0,0.101231,30.112499999999997,86.70666666666666,4.601901041666666,61.93548477659724
1371318420.25,0.101231,30.114166666666666,86.75583330815999,4.928958333333333,62.015351214987454
1371318420.5,0.101231,30.11583333333333,86.80499999999999,4.860755208333333,62.0403094769844
1371318420.75,0.101231,30.116666666666664,86.85416669183999,5.133359375,62.0403094769844
1371318421.0,0.101231,30.116666666666664,86.90333333333332,5.3198437499999995,62.0403094769844
1371318421.25,0.101231,30.116666666666664,86.94916664319999,5.164557291666666,62.0403094769844
1371318421.5,0.101231,30.11666666666667,86.99499999999999,5.423593749999999,62.0403094769844
1371318421.75,0.101231,30.11583333333333,87.0408333568,5.583359375000001,62.0403094769844
1371318422.0,0.101231,30.114166666666666,87.08666666666666,5.583541666666666,62.0403094769844
1371318422.25,0.101231,30.1125,87.13666664106667,5.919947916666666,62.0403094769844
1371318422.5,0.101231,30.110833333333336,87.18666666666667,5.971354166666667,62.0403094769844
1371318422.75,0.101231,30.11,87.23666669226667,5.935260416666666,62.0403094769844
1371318423.0,0.101231,30.11,87.28666666666668,6.248203125,62.0403094769844
1371318423.25,0.101231,30.11,87.33916663978667,6.233151041666666,62.0403094769844
1371318423.5,0.101231,30.11,87.39166666666668,6.205625,62.0403094769844
1371318423.75,0.10128441666666667,30.110833333333336,87.44416669354668,6.5594270833333335,62.0403094769844
1371318424.0,0.10139124999999999,30.1125,87.49666666666667,6.460078125,62.0403094769844
1371318424.25,0.10149808333333334,30.114166666666666,87.54333330944,6.5343229166666665,62.0403094769844
1371318424.5,0.10160491666666667,30.11583333333333,87.59,6.936458333333333,62.0403094769844
1371318424.75,0.10171174999999999,30.11583333333333,87.63666669056,6.801692708333333,62.0403094769844
1371318425.0,0.10181858333333334,30.114166666666666,87.68333333333334,6.957291666666667,62.0403094769844
1371318425.25,0.10192541666666667,30.112499999999997,87.70916665344001,7.062083333333334,62.0403094769844
1371318425.5,0.10203225,30.110833333333332,87.73500000000001,6.839869791666666,62.0403094769844
1371318425.75,0.10213908333333334,30.11,87.76083334656,7.271458333333334,62.0403094769844
1371318426.0,0.10224591666666667,30.11,87.78666666666668,7.344921875000001,62.0403094769844
1371318426.25,0.10235275,30.11,87.79666666154668,7.230182291666668,62.0403094769844
1371318426.5,0.10245958333333333,30.11,87.80666666666667,7.701640625,62.0403094769844
1371318426.75,0.102513,30.109166666666667,87.81666667178666,7.615729166666667,62.0403094769844
1371318427.0,0.102513,30.107499999999998,87.82666666666667,7.612864583333333,62.0403094769844
1371318427.25,0.102513,30.105833333333333,87.82250000213334,8.066119791666667,62.0403094769844
1371318427.5,0.102513,30.104166666666668,87.81833333333333,7.876588541666667,62.0403094769844
1371318427.75,0.102513,30.104166666666668,87.81416666453333,7.8819791666666665,62.0403094769844
1371318428.0,0.102513,30.105833333333333,87.81,8.198697916666665,62.04005760823748
1371318428.25,0.102513,30.1075,87.80333333674668,8.157786458333332,62.039427936370224
1371318428.5,0.102513,30.109166666666667,87.79666666666668,8.530546875,62.03875628637845
1371318428.75,0.102513,30.110833333333336,87.78999999658667,8.562083333333332,62.03808463638669
1371318429.0,0.102513,30.1125,87.78333333333335,8.151328125,62.03741298639494
1371318429.25,0.102513,30.114166666666666,87.77500000426667,8.158020833333333,62.036741336403175
1371318429.5,0.102513,30.11583333333333,87.76666666666668,7.876432291666667,62.03606968641142
1371318429.75,0.102513,30.117500000000003,87.75833332906667,7.326770833333332,62.03539803641966
1371318430.0,0.102513,30.11916666666667,87.75,7.268645833333333,62.034726386427906
1371318430.25,0.102513,30.120833333333334,87.74166667093333,6.843776041666666,62.03405473643614
1371318430.5,0.102513,30.1225,87.73333333333332,6.2799999999999985,62.03338308644439
1371318430.75,0.102513,30.124166666666667,87.72499999573333,6.372994791666667,62.03271143645264
1371318431.0,0.102513,30.125833333333333,87.71666666666665,6.009609375,62.03229165520778
1371318431.25,0.102513,30.127499999999998,87.71083333632,5.331067708333333,62.03224967708329
1371318431.5,0.102513,30.129166666666663,87.70499999999998,4.983671875,62.03224967708329
1371318431.75,0.102513,30.13,87.69916666367999,4.403776041666666,62.03224967708329
1371318432.0,0.102513,30.13,87.69333333333333,4.367473958333333,62.03224967708329
1371318432.25,0.102513,30.13,87.69000000170666,4.721796875,62.03224967708329
1371318432.5,0.102513,30.13,87.68666666666667,4.640859375000001,62.03224967708329
1371318432.75,0.102513,30.13,87.68333333162667,5.0085677083333335,62.03224967708329
1371318433.0,0.102513,30.13,87.68,5.356380208333333,62.03224967708329
1371318433.25,0.102513,30.13,87.68,5.334088541666667,62.03224967708329
1371318433.5,0.102513,30.13,87.68,5.808567708333334,62.03224967708329
1371318433.75,0.102513,30.13,87.68,5.949713541666667,62.03224967708329
1371318434.0,0.102513,30.13,87.68,5.960130208333333,62.03224967708329
1371318434.25,0.102513,30.13,87.67916666709334,6.55125,62.03224967708329
1371318434.5,0.102513,30.13,87.67833333333334,6.864895833333333,62.03224967708329
1371318434.75,0.102513,30.13083333333333,87.67749999957334,7.184557291666668,62.03224967708329
1371318435.0,0.102513,30.132500000000004,87.67666666666668,7.496927083333333,62.03224967708329
1371318435.25,0.102513,30.13416666666667,87.67416666794668,7.190520833333334,62.03224967708329
1371318435.5,0.102513,30.135833333333334,87.67166666666668,7.101614583333333,62.03224967708329
1371318435.75,0.102513,30.13666666666667,87.66916666538667,7.04375,62.03224967708329
1371318436.0,0.102513,30.136666666666667,87.66666666666667,6.789661458333332,62.03224967708329
1371318436.25,0.102513,30.136666666666667,87.66166666922668,6.994973958333333,62.03224967708329
1371318436.5,0.102513,30.136666666666667,87.65666666666668,6.888255208333333,62.03287934895056
1371318436.75,0.102513,30.1375,87.65166666410668,6.613489583333333,62.03355099894233
1371318437.0,0.102513,30.139166666666664,87.64666666666669,6.642630208333333,62.03371891144027
1371318437.25,0.102513,30.140833333333333,87.63833333760002,6.407968749999999,62.03371891144027
1371318437.5,0.102513,30.1425,87.63000000000002,6.06390625,62.03371891144027
1371318437.75,0.102513,30.1425,87.62166666240002,5.969739583333332,62.03371891144027
1371318438.0,0.102513,30.14083333333333,87.61333333333334,5.605364583333333,62.03371891144027
1371318438.25,0.102513,30.139166666666664,87.60333333845334,5.489609375,62.03371891144027
1371318438.5,0.102513,30.137500000000003,87.59333333333333,5.601276041666666,62.03371891144027
1371318438.75,0.102513,30.1375,87.58333332821334,5.442630208333333,62.03371891144027
1371318439.0,0.102513,30.139166666666664,87.57333333333334,5.128880208333333,62.03371891144027
1371318439.25,0.102513,30.140833333333333,87.56333333845333,4.432421875,62.03371891144025
1371318439.5,0.102513,30.1425,87.55333333333334,4.142213541666666,62.023189891023186
1371318439.75,0.102513,30.14333333333333,87.54333332821335,3.9359635416666663,62.02251824103143
1371318440.0,0.102513,30.143333333333334,87.53333333333335,3.381614583333333,62.02235032853349
1371318440.25,0.102513,30.14333333333333,87.52750000298667,3.15875,62.022350328533484
1371318440.5,0.102513,30.14333333333333,87.52166666666668,3.0019010416666667,62.022350328533484
1371318440.75,0.102513,30.144166666666667,87.51583333034667,2.584739583333333,62.022350328533484
1371318441.0,0.102513,30.145833333333332,87.50999999999999,2.605130208333333,62.02235032853349
1371318441.25,0.102513,30.147500000000004,87.50916666709333,2.4608854166666667,62.02235032853349
1371318441.5,0.102566375,30.149166666666662,87.50833333333333,2.189453125,62.022350328533484
1371318441.75,0.10261975000000001,30.15,87.50749999957333,2.4042447916666667,62.022350328533484
1371318442.0,0.10267312499999999,30.15,87.50666666666666,2.5177604166666665,62.022434284782456
1371318442.25,0.10277987500000002,30.15,87.50916666538666,3.0857031249999998,62.023105934774215
1371318442.5,0.10288662500000001,30.15,87.51166666666666,3.376744791666667,62.03367693331578
1371318442.75,0.102993375,30.15,87.51416666794667,3.2858854166666664,62.03434858330754
1371318443.0,0.103100125,30.15,87.51666666666667,3.780286458333333,62.034768364552384
1371318443.25,0.10320687500000002,30.15,87.52083333120001,4.122552083333333,62.0347683645524
1371318443.5,0.103313625,30.15,87.525,4.299739583333333,62.00661349567011
1371318443.75,0.103420375,30.15,87.5291666688,4.872421875,61.944443165517576
1371318444.0,0.103527125,30.15,87.53333333333335,4.976328125,61.882994985673015
1371318444.25,0.103633875,30.15,87.53749999786668,5.16515625,61.82923298966431
1371318444.5,0.10368725000000001,30.15,87.54166666666667,5.427890625,61.82923298966432
1371318444.75,0.10374062499999999,30.15,87.54583333546667,5.241380208333333,61.79322192413965
1371318445.0,0.103794,30.15,87.55,5.466145833333333,61.74141450908124
1371318445.25,0.103794,30.15,87.55416666453333,5.406822916666666,61.704731793564825
1371318445.5,0.103794,30.15,87.55833333333334,5.447786458333334,61.70439596856894
1371318445.75,0.103794,30.15,87.56250000213333,5.939557291666667,61.70418607794651
1371318446.0,0.103794,30.15,87.56666666666666,5.7413541666666665,61.70439596856894
1371318446.25,0.103794,30.15,87.57083333119999,5.418541666666666,61.70569712688745
1371318446.5,0.10384741666666665,30.15,87.57499999999999,5.181901041666666,61.737041548320995
1371318446.75,0.10390083333333333,30.150833333333335,87.5791666688,4.412708333333334,61.80290486338446
1371318447.0,0.10395425000000001,30.1525,87.58333333333333,4.120416666666666,61.86838163519499
1371318447.25,0.10400766666666666,30.15416666666667,87.58583333205333,3.711276041666667,61.926172223169665
1371318447.5,0.1041145,30.155833333333334,87.58833333333332,3.090416666666666,61.93020081513564
1371318447.75,0.10416791666666668,30.1575,87.59083333461332,2.886875,61.970240472626294
1371318448.0,0.10422133333333333,30.159166666666668,87.59333333333332,2.20328125,62.025992523401705
1371318448.25,0.10427474999999999,30.16083333333333,87.59499999914665,1.8171614583333333,62.06603218089234
1371318448.5,0.10438158333333332,30.162499999999998,87.59666666666666,1.3759375,62.06972494786245
1371318448.75,0.104435,30.16416666666667,87.59833333418666,0.7515364583333333,62.073291780459094
1371318449.0,0.104435,30.165833333333335,87.6,0.6609895833333334,62.0766907005578
1371318449.25,0.104435,30.1675,87.6,0.6452864583333333,62.07941813420526
1371318449.5,0.10438158333333335,30.16916666666667,87.6,0.6398958333333333,62.08025717361998
1371318449.75,0.10432816666666667,30.16916666666667,87.6,1.0094270833333334,62.080592780675026
1371318450.0,0.10427474999999999,30.1675,87.6,1.057421875,62.080592780675026
1371318450.25,0.10422133333333333,30.16583333333334,87.60249999871999,1.168125,62.080592780675026
1371318450.5,0.1041145,30.16416666666667,87.60499999999999,1.50015625,62.080592780675026
1371318450.75,0.10406108333333332,30.162499999999998,87.60750000128,1.3890625000000003,62.080592780675026
1371318451.0,0.10400766666666666,30.160833333333333,87.61,1.559296875,62.080592780675026
1371318451.25,0.10400766666666666,30.159166666666664,87.61999999488,1.5866406250000002,62.08050887891127
1371318451.5,0.10395425000000001,30.1575,87.63,1.3721354166666666,62.07992156656494
1371318451.75,0.10400766666666666,30.155833333333334,87.64000000511999,1.3984114583333334,62.079711812155544
1371318452.0,0.1041145,30.154166666666665,87.64999999999999,1.3234375,62.07971181215553
1371318452.25,0.10422133333333333,30.1525,87.66416665941333,1.0031770833333333,62.07971181215553
1371318452.5,0.10432816666666667,30.150833333333335,87.67833333333333,0.9484374999999999,62.07971181215553
1371318452.75,0.104435,30.151666666666667,87.69250000725333,0.8141666666666666,62.07971181215553
1371318453.0,0.10454183333333333,30.155,87.70666666666666,0.34835937499999997,62.07971181215553
1371318453.25,0.10464866666666667,30.15833333333333,87.7233333248,-0.05153645833333335,62.07971181215553
1371318453.5,0.1047555,30.161666666666665,87.74,-0.44031250000000005,62.07971181215553
1371318453.75,0.10486233333333334,30.165000000000003,87.7566666752,-0.2717447916666667,62.07971181215553
1371318454.0,0.10496916666666667,30.168333333333333,87.77333333333333,0.17455729166666664,62.07971181215553
1371318454.25,0.10502258333333335,30.171666666666667,87.79083332437332,0.3523177083333333,62.0797957139193
1371318454.5,0.105076,30.175,87.80833333333332,0.8722656249999999,62.08038302626562
1371318454.75,0.105076,30.17833333333333,87.82583334229332,1.2009635416666666,62.080592780675026
1371318455.0,0.105076,30.18166666666667,87.84333333333332,1.2128124999999998,62.080592780675026
1371318455.25,0.105076,30.185,87.85999999146667,1.769114583333333,62.080592780675026
1371318455.5,0.105076,30.188333333333333,87.87666666666667,2.0978125000000003,62.080592780675026
1371318455.75,0.105076,30.19,87.89333334186666,2.235,62.080592780675026
1371318456.0,0.105076,30.19,87.91000000000001,3.1682291666666664,62.080592780675026
1371318456.25,0.105076,30.19,87.92166666069335,4.214869791666667,62.08029912450186
1371318456.5,0.105076,30.19,87.93333333333334,4.921614583333334,62.07975376303742
1371318456.75,0.105076,30.189166666666665,87.94500000597333,5.194921875,62.078998592699584
1371318457.0,0.105076,30.1875,87.95666666666666,4.895208333333334,62.078872740053946
1371318457.25,0.105076,30.185833333333335,87.95833333248,4.799505208333334,62.06177561943758
1371318457.5,0.105076,30.18416666666667,87.96,4.824557291666666,62.0086043747775
1371318457.75,0.10512937500000001,30.182500000000005,87.96166666751999,5.337786458333333,61.94843597921934
1371318458.0,0.10523612500000001,30.180833333333336,87.96333333333332,5.982656250000001,61.88716249127554
1371318458.25,0.1052895,30.17916666666667,87.96000000170666,5.405364583333334,61.820071767681746
1371318458.5,0.105342875,30.177500000000006,87.95666666666666,4.309296875,61.750132352172244
1371318458.75,0.105342875,30.175833333333333,87.95333333162667,3.526302083333333,61.6788747678599
1371318459.0,0.105342875,30.174166666666665,87.95,2.3430208333333336,61.60987101786762
1371318459.25,0.10534287499999999,30.1725,87.93833333930667,1.0388541666666666,61.53954527543717
1371318459.5,0.105342875,30.170833333333334,87.92666666666668,0.016510416666666708,61.46879064294004
1371318459.75,0.105342875,30.17,87.91499999402669,-1.34109375,61.400967180263024
1371318460.0,0.10528945833333335,30.17,87.90333333333335,-2.703958333333333,61.33149401709943
1371318460.25,0.10518262499999999,30.17,87.89250000554668,-3.45828125,61.27979943596966
1371318460.5,0.10507579166666665,30.17,87.88166666666667,-4.385052083333334,61.259286419391685
1371318460.75,0.10491558333333333,30.17,87.87083332778667,-6.125729166666666,61.29227654034438
1371318461.0,0.104702,30.17,87.86,-7.838359375,61.287131712306525
1371318461.25,0.10454179166666666,30.17,87.84500000768,-8.721380208333334,61.280795325846924
1371318461.5,0.10438158333333332,30.17,87.83,-8.772630208333334,61.30753578682226
1371318461.75,0.10427474999999999,30.170833333333334,87.81499999232,-8.46734375,61.37434491608974
1371318462.0,0.10416791666666668,30.172500000000003,87.8,-8.537265625000002,61.43944600848951
1371318462.25,0.10406108333333335,30.174166666666668,87.78666667349333,-8.78578125,61.50628868387406
1371318462.5,0.10400766666666666,30.175833333333333,87.77333333333334,-9.090234375,61.57360206399414
1371318462.75,0.10400766666666666,30.176666666666673,87.75999999317334,-8.870677083333332,61.598871121831074
1371318463.0,0.10406108333333332,30.176666666666666,87.74666666666667,-7.90265625,61.64087295574717
1371318463.25,0.10416791666666665,30.176666666666666,87.72666667690667,-7.617473958333334,61.67535141544197
1371318463.5,0.10427475000000001,30.176666666666666,87.70666666666668,-7.583723958333334,61.69590799075099
1371318463.75,0.10438158333333335,30.177500000000006,87.68666665642667,-6.996953125,61.66911105143609
1371318464.0,0.10448841666666665,30.17916666666667,87.66666666666667,-6.1550520833333335,61.68155415349739
1371318464.25,0.10459524999999999,30.180833333333336,87.64416667818666,-5.063880208333333,61.70100604963042
1371318464.5,0.10470208333333335,30.1825,87.62166666666667,-4.08484375,61.690229790244224
1371318464.75,0.10480891666666668,30.1825,87.59916665514667,-3.8437760416666666,61.637649301210956
1371318465.0,0.10491574999999999,30.180833333333336,87.57666666666667,-3.24625,61.58214789126931
1371318465.25,0.10502258333333332,30.179166666666664,87.55250001237333,-2.1758072916666666,61.52652054695421
1371318465.5,0.105076,30.1775,87.52833333333334,-0.94125,61.47110309326154
1371318465.75,0.10512937500000001,30.1775,87.50416665429334,0.35669270833333333,61.45500860090528
1371318466.0,0.10518275,30.17916666666667,87.48,1.1250260416666666,61.42320171526426
1371318466.25,0.10523612500000001,30.180833333333336,87.45666667861333,1.8182291666666666,61.39811088978143
1371318466.5,0.105236125,30.1825,87.43333333333334,2.887552083333334,61.39183450817629
1371318466.75,0.105236125,30.183333333333334,87.40999998805334,3.6678645833333334,61.38640565456249
1371318467.0,0.105236125,30.183333333333334,87.38666666666667,4.274348958333333,61.38097680094868
1371318467.25,0.10523612500000001,30.183333333333334,87.365833344,4.797916666666667,61.37554794733487
1371318467.5,0.105236125,30.183333333333334,87.345,5.0325,61.37011909372108
1371318467.75,0.105236125,30.18416666666667,87.324166656,5.502447916666667,61.36774397026503
1371318468.0,0.105236125,30.185833333333335,87.30333333333333,6.065052083333334,61.36799854905607
1371318468.25,0.10523612500000001,30.187500000000004,87.2866666752,6.508671875,61.3716887515945
1371318468.5,0.105236125,30.18916666666667,87.27000000000001,7.074999999999999,61.380253441936816
1371318468.75,0.10518274999999999,30.190833333333334,87.25333332480001,6.978020833333333,61.39309257600232
1371318469.0,0.10512937499999998,30.1925,87.23666666666668,6.726927083333334,61.41612558095437
1371318469.25,0.105076,30.19416666666667,87.22166667434668,6.515729166666667,61.437974629885304
1371318469.5,0.105076,30.195833333333336,87.20666666666668,5.773125,61.461007634837365
1371318469.75,0.105076,30.1975,87.19166665898666,5.000807291666667,61.48404063978942
1371318470.0,0.105076,30.19916666666667,87.17666666666666,4.297369791666667,61.50707364474149
1371318470.25,0.105076,30.200833333333335,87.16166667434666,3.4927864583333332,61.53010664969355
1371318470.5,0.105076,30.202500000000004,87.14666666666668,2.6170833333333334,61.553139654645605
1371318470.75,0.105076,30.204166666666666,87.13166665898667,1.8925520833333334,61.57617265959767
1371318471.0,0.105076,30.20583333333333,87.11666666666667,1.16546875,61.5989510857587
1371318471.25,0.105076,30.2075,87.10166667434667,0.11890625000000006,61.618293888172325
1371318471.5,0.105076,30.209166666666665,87.08666666666667,-1.2131510416666667,61.63276220278207
1371318471.75,0.105076,30.21,87.07166665898667,-2.127213541666667,61.642956073668635
1371318472.0,0.10502258333333335,30.21,87.05666666666667,-2.781953125,61.642956073668635
1371318472.25,0.10491574999999999,30.21,87.03583334400001,-3.1324218750000004,61.644140029689765
1371318472.5,0.10480891666666665,30.21,87.01500000000001,-3.142395833333333,61.644140029689765
1371318472.75,0.10470208333333335,30.21,86.994166656,-2.920078125,61.644140029689765
1371318473.0,0.10464866666666667,30.21,86.97333333333334,-2.654036458333333,61.644140029689765
1371318473.25,0.10464866666666667,30.21,86.94833334613334,-2.4816406250000003,61.644140029689765
1371318473.5,0.10464866666666667,30.21,86.92333333333335,-2.0117187499999996,61.644140029689765
1371318473.75,0.10464866666666667,30.21,86.89833332053334,-1.6348697916666668,61.644140029689765
1371318474.0,0.10464866666666667,30.21,86.87333333333333,-1.4652604166666665,61.644140029689765
1371318474.25,0.10464866666666667,30.21,86.84250001578667,-0.9919270833333332,61.644140029689765
1371318474.5,0.10464866666666667,30.21,86.81166666666667,-0.4795572916666666,61.644140029689765
1371318474.75,0.10464866666666667,30.21,86.78083331754667,0.13184895833333335,61.64058816162635
1371318475.0,0.10470208333333332,30.21,86.75,0.9546875,61.635555117201655
1371318475.25,0.10480891666666668,30.21,86.72166668117333,1.3699479166666668,61.624303430551315
1371318475.5,0.10491575000000002,30.21,86.69333333333333,1.9240885416666664,61.62371145254074
1371318475.75,0.10502258333333332,30.21,86.66499998549332,2.4300520833333334,61.613729329114825
1371318476.0,0.105076,30.21,86.63666666666666,2.5930989583333335,61.59947292456119
1371318476.25,0.105076,30.21,86.61000001365332,3.0822395833333336,61.585089424465416
1371318476.5,0.105076,30.21,86.58333333333331,3.390026041666667,61.56858656467156
1371318476.75,0.10502258333333335,30.21,86.55666665301332,3.8265885416666667,61.53858569952384
1371318477.0,0.10491575000000002,30.21,86.52999999999999,4.5776562499999995,61.5200893839461
1371318477.25,0.10480891666666665,30.21,86.50666667861333,4.821354166666667,61.507526914451155
1371318477.5,0.10470208333333332,30.21,86.48333333333332,4.96421875,61.48894030940917
1371318477.75,0.10459525000000001,30.21,86.45999998805333,4.969088541666667,61.470123174299324
1371318478.0,0.10448841666666668,30.21,86.43666666666667,4.1949218749999995,61.45720525194315
1371318478.25,0.10438158333333332,30.21,86.415833344,3.8569010416666667,61.459057594845405
1371318478.5,0.10427474999999999,30.21,86.39500000000001,3.3034375,61.42650175994823
1371318478.75,0.10416791666666668,30.21,86.374166656,2.6365625,61.422206636960446
1371318479.0,0.10406108333333335,30.21,86.35333333333334,2.6974479166666665,61.43709651063088
1371318479.25,0.10395424999999998,30.21,86.34000000682667,2.3192187499999997,61.45169116709892
1371318479.5,0.10384741666666665,30.21,86.32666666666667,1.8227083333333336,61.46882749600957
1371318479.75,0.103794,30.21,86.31333332650667,1.1991666666666667,61.49946183027408
1371318480.0,0.103794,30.21,86.3,0.16273437500000001,61.51795814585182
1371318480.25,0.10374062499999999,30.21,86.29333333674666,-0.2316666666666667,61.53052061534677
1371318480.5,0.10374062500000002,30.21,86.28666666666666,-0.38677083333333334,61.54910722038875
1371318480.75,0.10368725,30.210833333333337,86.27999999658667,-0.5532031250000001,61.57147622356201
1371318481.0,0.10368725,30.212500000000002,86.27333333333333,0.19638020833333328,61.58942719034288
1371318481.25,0.10368725000000001,30.214166666666667,86.26666667008,0.7084895833333333,61.59882653409097
1371318481.5,0.10368725000000001,30.215833333333332,86.25999999999999,1.2905208333333331,61.63197434699871
1371318481.75,0.10368725,30.21666666666667,86.25333332992,2.0896875,61.64646274978468
1371318482.0,0.10368725,30.21666666666667,86.24666666666667,2.0242708333333335,61.645445889990675
1371318482.25,0.103633875,30.216666666666665,86.22833334272,2.1469791666666667,61.64776861008559
1371318482.5,0.1035805,30.21666666666667,86.21000000000001,2.3907552083333337,61.62068564394076
1371318482.75,0.10347374999999999,30.2175,86.19166665728,2.545677083333333,61.61041941295489
1371318483.0,0.103367,30.219166666666666,86.17333333333333,3.1317187500000006,61.608884082377614
1371318483.25,0.103367,30.220833333333335,86.14500001450666,3.198958333333333,61.627094438347314
1371318483.5,0.103313625,30.222499999999997,86.11666666666667,3.0032552083333335,61.66287586773924
1371318483.75,0.103367,30.223333333333333,86.08833331882667,3.0181770833333332,61.711263306455116
1371318484.0,0.103367,30.223333333333333,86.06,2.5810677083333333,61.782500521635775
1371318484.25,0.103367,30.223333333333333,86.03750001152001,2.2094010416666667,61.83143874835006
1371318484.5,0.103313625,30.223333333333333,86.01500000000001,1.8491145833333331,61.89645948458995
1371318484.75,0.10326025000000001,30.224166666666665,85.99249998848,1.2605208333333333,61.946269668047194
1371318485.0,0.10320687500000002,30.22583333333333,85.97000000000001,1.1927604166666665,61.987468120961815
1371318485.25,0.10326025,30.227500000000003,85.96000000512001,1.0791145833333335,62.0281377689167
1371318485.5,0.10331362500000002,30.229166666666668,85.95000000000002,0.9960677083333334,62.10561628324732
1371318485.75,0.10342037500000001,30.23,85.93999999488001,0.8559895833333333,62.16268001716054
1371318486.0,0.103527125,30.23,85.93,-0.028671875000000024,62.206748657277465
1371318486.25,0.1035805,30.23,85.93749999616,-0.39786458333333335,62.21726317462268
1371318486.5,0.103633875,30.23,85.945,-0.3327604166666667,62.19321152276555
1371318486.75,0.103633875,30.23,85.95250000384,-0.35622395833333337,62.1497611077935
1371318487.0,0.103633875,30.23,85.96,0.12502604166666664,62.0644765703748
1371318487.25,0.10363387499999999,30.23,85.9724999936,0.4652864583333333,61.99746781055455
1371318487.5,0.10368725000000001,30.23,85.98499999999999,0.635,61.9083089784495
1371318487.75,0.10374062499999999,30.23,85.99750000639999,1.0438281249999999,61.83678140247533
1371318488.0,0.103794,30.23,86.00999999999999,1.0504427083333332,61.77912482931404
1371318488.25,0.103794,30.23,86.02833332394665,1.3144270833333331,61.71505147366597
1371318488.5,0.103794,30.23,86.04666666666665,1.646145833333333,61.63937579447806
1371318488.75,0.103794,30.23,86.06500000938667,2.1025781249999995,61.56492104856138
1371318489.0,0.103794,30.23,86.08333333333333,3.253515625,61.49510921695497
1371318489.25,0.103794,30.23,86.09999999146666,4.091354166666667,61.437788960317675
1371318489.5,0.103794,30.23,86.11666666666666,4.591015625,61.39979990671882
1371318489.75,0.103794,30.23,86.13333334186666,4.895807291666666,61.37403549559335
1371318490.0,0.103794,30.23,86.14999999999999,4.2867187499999995,61.3702664363943
1371318490.25,0.103794,30.23,86.16833332394667,3.575130208333333,61.37319072786883
1371318490.5,0.103794,30.23,86.18666666666667,3.151666666666667,61.39280021091971
1371318490.75,0.103794,30.23,86.20500000938667,2.501640625,61.41734704890951
1371318491.0,0.103794,30.23,86.22333333333334,2.0699479166666666,61.438073459818405
1371318491.25,0.103794,30.23,86.24166665728,1.4990625,61.46333483308365
1371318491.5,0.103794,30.23,86.26,1.1849739583333334,61.49254184006705
1371318491.75,0.103794,30.23,86.27833334272,1.32953125,61.525307525060605
1371318492.0,0.103794,30.23,86.29666666666667,1.438515625,61.556470991484595
1371318492.25,0.103794,30.23,86.31416665770666,1.6345052083333336,61.58958428909318
1371318492.5,0.103794,30.23,86.33166666666668,1.8654166666666665,61.61989750107883
1371318492.75,0.103794,30.23,86.34916667562668,2.0072135416666668,61.64477882438205
1371318493.0,0.103794,30.23,86.36666666666667,3.1109114583333333,61.66749310164601
1371318493.25,0.103794,30.23,86.38083332608001,4.484583333333333,61.698666978617034
1371318493.5,0.103794,30.23,86.39500000000001,5.460885416666667,61.72006595431258
1371318493.75,0.103794,30.23,86.40916667392,6.546458333333334,61.733895715348694
1371318494.0,0.103794,30.23,86.42333333333333,7.817942708333334,61.746881178244934
1371318494.25,0.103794,30.23,86.43583332693333,8.698098958333334,61.759359999086946
1371318494.5,0.103794,30.23,86.44833333333334,9.34375,61.77167001687014
1371318494.75,0.10384741666666665,30.230833333333333,86.46083333973334,9.207057291666667,61.782798468630396
1371318495.0,0.10395425000000001,30.232499999999998,86.47333333333334,8.804609375,61.79578388715442
1371318495.25,0.10406108333333335,30.234166666666667,86.48583332693335,8.571093750000001,61.80813633574948
1371318495.5,0.10416791666666665,30.235833333333332,86.49833333333333,7.910520833333334,61.82095276270915
1371318495.75,0.10427474999999999,30.237499999999997,86.51083333973332,7.570546874999999,61.833769189668836
1371318496.0,0.10438158333333335,30.239166666666666,86.52333333333333,6.773776041666667,61.84574165672323
1371318496.25,0.10448841666666668,30.24083333333333,86.53999999146666,5.668463541666667,61.84658438426491
1371318496.5,0.10459524999999999,30.242499999999996,86.55666666666666,5.121015625,61.84658438426491
1371318496.75,0.10470208333333332,30.245,86.57333334186666,4.504817708333333,61.84658438426491
1371318497.0,0.10480891666666668,30.248333333333335,86.58999999999999,3.5890364583333336,61.83499096394285
1371318497.25,0.10491575000000002,30.251666666666665,86.61083332266666,3.1679427083333334,61.82217453698317
1371318497.5,0.10502258333333332,30.254999999999995,86.63166666666666,2.5593229166666664,61.80935811002349
1371318497.75,0.105076,30.25666666666667,86.65250001066666,2.2192447916666667,61.7965416830638
1371318498.0,0.105076,30.25666666666667,86.67333333333333,2.1271875000000002,61.78372525610413
1371318498.25,0.105076,30.25666666666667,86.69333332309333,1.7721614583333334,61.77090882914444
1371318498.5,0.105076,30.25666666666667,86.71333333333334,1.838411458333333,61.75809240218476
1371318498.75,0.105076,30.25666666666667,86.73333334357334,1.8900781249999998,61.74527597522508
1371318499.0,0.105076,30.25666666666667,86.75333333333333,1.9562760416666667,61.73245954826539
1371318499.25,0.105076,30.25666666666667,86.77083332437333,2.2683072916666664,61.719643121305715
1371318499.5,0.105076,30.25666666666667,86.78833333333333,2.285703125,61.70682669434603
1371318499.75,0.105076,30.25583333333333,86.80583334229333,2.3562760416666664,61.69401026738635
1371318500.0,0.105076,30.254166666666666,86.82333333333332,2.6007552083333336,61.69278726074872
1371318500.25,0.105076,30.2525,86.83666665983999,2.6070572916666666,61.69278726074872
1371318500.5,0.105076,30.250833333333333,86.85,2.8886979166666666,61.69278726074872
1371318500.75,0.105076,30.25,86.86333334016,3.274427083333333,61.69278726074872
1371318501.0,0.105076,30.25,86.87666666666667,3.3998437500000005,61.69278726074872
1371318501.25,0.105076,30.25,86.88999999317333,3.564244791666667,61.69278726074872
1371318501.5,0.105076,30.25,86.90333333333334,3.724322916666667,61.69278726074872
1371318501.75,0.105076,30.25,86.91666667349334,3.8105729166666666,61.69278726074872
1371318502.0,0.105076,30.25,86.93,3.8207291666666663,61.69278726074872
1371318502.25,0.105076,30.25,86.93999999488001,3.8157552083333335,61.69278726074872
1371318502.5,0.105076,30.25,86.95000000000002,3.877421875,61.69278726074872
1371318502.75,0.105076,30.25,86.96000000512001,3.8283593750000002,61.69278726074872
1371318503.0,0.10512937499999998,30.25,86.97000000000001,3.7444531249999997,61.69278726074872
1371318503.25,0.10518274999999999,30.25,86.97583333034667,3.8778385416666663,61.69278726074872
1371318503.5,0.105236125,30.25,86.98166666666668,3.803854166666667,61.69278726074872
1371318503.75,0.1052895,30.25,86.98750000298668,3.6967187500000005,61.69278726074872
1371318504.0,0.10539624999999998,30.25,86.99333333333334,3.9608854166666667,61.69278726074872
1371318504.25,0.105503,30.25,86.98916666880001,4.130078125,61.69278726074872
1371318504.5,0.10560975,30.25,86.98500000000001,4.306302083333333,61.69278726074872
1371318504.75,0.1057165,30.25,86.9808333312,4.560885416666666,61.68801331940088
1371318505.0,0.10582324999999998,30.25,86.97666666666667,4.874895833333333,61.67080265361812
1371318505.25,0.10592999999999998,30.25,86.96250000725334,5.197421875,61.64778735295483
1371318505.5,0.10603675,30.25,86.94833333333334,5.460755208333333,61.62027591682685
1371318505.75,0.1061435,30.25,86.93416665941334,5.829088541666667,61.58979301391844
1371318506.0,0.1061435,30.25,86.92,6.232187499999999,61.55931011101004
1371318506.25,0.10619687500000001,30.25,86.8950000128,6.533385416666667,61.52882720810163
1371318506.5,0.10625024999999999,30.25,86.87,6.9558333333333335,61.49834430519323
1371318506.75,0.106303625,30.25,86.8449999872,7.371276041666667,61.46786140228482
1371318507.0,0.106303625,30.25,86.82,7.531692708333334,61.437378499376415
1371318507.25,0.106303625,30.25,86.78833334954666,7.779895833333334,61.40689559646801
1371318507.5,0.106303625,30.25,86.75666666666666,8.056354166666667,61.37641269355961
1371318507.75,0.10630362499999997,30.25,86.72499998378666,8.342604166666666,61.35070373199904
1371318508.0,0.106303625,30.25,86.69333333333333,8.71671875,61.33743149487339
1371318508.25,0.106303625,30.25,86.65583335253334,9.13125,61.32996389262828
1371318508.5,0.10625024999999999,30.25,86.61833333333334,9.44109375,61.326992425847855
1371318508.75,0.10625024999999999,30.25,86.58083331413333,9.430520833333334,61.326737542376854
1371318509.0,0.106303625,30.25,86.54333333333334,9.520677083333334,61.32236126481012
1371318509.25,0.10625024999999999,30.25,86.50333335381333,9.509296875,61.319642196593584
1371318509.5,0.10619687500000001,30.25,86.46333333333334,9.171848958333333,61.3157333609866
1371318509.75,0.1061435,30.250833333333333,86.42333331285333,9.018932291666667,61.30889196509707
1371318510.0,0.10603675,30.252499999999998,86.38333333333333,8.784166666666666,61.303494909207465
1371318510.25,0.10592999999999998,30.254166666666663,86.34166668799999,8.299244791666666,61.305998958075755
1371318510.5,0.10582325,30.25583333333333,86.29999999999998,8.129635416666666,61.3340128520146
1371318510.75,0.10571649999999999,30.257499999999997,86.25833331199999,7.6859375000000005,61.35841728746083
1371318511.0,0.10560975,30.259166666666662,86.21666666666665,6.903723958333333,61.38214410377005
1371318511.25,0.105503,30.260833333333334,86.17666668714666,6.449947916666666,61.38659819870083
1371318511.5,0.10544962499999999,30.2625,86.13666666666666,5.745625,61.386810446328006
1371318511.75,0.105342875,30.264166666666664,86.09666664618666,5.464010416666667,61.387065329799015
1371318512.0,0.1052895,30.265833333333333,86.05666666666667,5.3021875,61.39144160736574
1371318512.25,0.1052895,30.2675,86.02000001877335,4.891328125,61.39416067558227
1371318512.5,0.1052895,30.269166666666663,85.98333333333335,5.061796875,61.398069511189256
1371318512.75,0.105342875,30.27,85.94666664789334,5.088567708333334,61.40491090707879
1371318513.0,0.10544962499999999,30.27,85.91000000000001,4.936822916666666,61.4103079629684
1371318513.25,0.105503,30.27,85.88250001408001,5.323333333333333,61.4078039141001
1371318513.5,0.10555637499999998,30.27,85.855,5.352604166666667,61.37979002016126
1371318513.75,0.10560974999999999,30.27,85.82749998592,5.458802083333334,61.35538558471503
1371318514.0,0.10571649999999999,30.27,85.8,5.816510416666667,61.33025644252661
1371318514.25,0.10582325,30.27,85.77916667733334,5.787213541666667,61.32461258020536
1371318514.5,0.10593000000000001,30.27,85.75833333333334,6.084609374999999,61.32312591522314
1371318514.75,0.10603675,30.27,85.73749998933334,6.093802083333333,61.32159661439709
1371318515.0,0.10609012499999998,30.27,85.71666666666668,5.85921875,61.31569010242702
1371318515.25,0.10614349999999999,30.27,85.70416667306668,6.003333333333334,61.30821103107132
1371318515.5,0.10619687499999998,30.27,85.69166666666668,5.5730989583333335,61.301157076693066
1371318515.75,0.10619687499999998,30.27,85.67916666026667,5.0193489583333335,61.30872070618526
1371318516.0,0.10619687500000001,30.27,85.66666666666667,4.748385416666667,61.34339391853112
1371318516.25,0.10625024999999999,30.27,85.6583333376,4.060416666666666,61.386678541517426
1371318516.5,0.106303625,30.27,85.65,3.3723958333333335,61.451491691104856
1371318516.75,0.106357,30.27,85.64166666240001,2.815729166666667,61.51630484069228
1371318517.0,0.106357,30.27,85.63333333333334,2.211484375,61.5825203161589
1371318517.25,0.106357,30.27,85.62750000298666,1.6161197916666667,61.649152007078364
1371318517.5,0.106357,30.27,85.62166666666667,1.075703125,61.715868347962406
1371318517.75,0.106357,30.27,85.61583333034667,0.7212760416666667,61.78221079837588
1371318518.0,0.106357,30.27,85.61,0.38109375,61.85293045993338
1371318518.25,0.106357,30.27,85.60166667093333,-0.07869791666666667,61.925222680876495
1371318518.5,0.106357,30.27,85.59333333333333,-0.19635416666666664,61.996041148796216
1371318518.75,0.106357,30.27,85.58499999573334,-0.18716145833333334,62.053290668891435
1371318519.0,0.106357,30.27,85.57666666666667,-0.09174479166666667,62.08154306125025
1371318519.25,0.106357,30.27,85.56500000597333,0.16075520833333334,62.099715952504255
1371318519.5,0.106357,30.27,85.55333333333333,0.430703125,62.09636031715714
1371318519.75,0.106357,30.27,85.54166666069332,0.6786197916666667,62.09300468181004
1371318520.0,0.106357,30.27,85.52999999999999,1.008046875,62.08964904646292
1371318520.25,0.106357,30.27,85.51500000767999,1.3413802083333335,62.08566463717423
1371318520.5,0.106357,30.27,85.5,1.613046875,62.081680227885556
1371318520.75,0.106357,30.27,85.48499999232001,1.9142447916666667,62.07832459253844
1371318521.0,0.106357,30.27,85.47000000000001,2.19703125,62.074968957191324
1371318521.25,0.106357,30.27,85.45250000896,2.502890625,62.07161332184422
1371318521.5,0.106357,30.27,85.435,2.86984375,62.06930632254307
1371318521.75,0.106357,30.27,85.41749999104,3.117291666666667,62.065950687195965
1371318522.0,0.106357,30.27,85.39999999999999,3.2277864583333336,62.0644825967316
1371318522.25,0.106357,30.27,85.38083334314666,3.5872916666666668,62.0644825967316
1371318522.5,0.106357,30.27,85.36166666666665,3.8545052083333338,62.0644825967316
1371318522.75,0.106357,30.27,85.34249999018665,4.0539322916666665,62.0644825967316
1371318523.0,0.106357,30.27,85.32333333333332,4.315442708333333,62.0644825967316
1371318523.25,0.106357,30.27,85.30666667519999,4.3746093749999995,62.0644825967316
1371318523.5,0.106357,30.27,85.28999999999999,4.513151041666666,62.0644825967316
1371318523.75,0.106357,30.27,85.2733333248,4.734114583333334,62.0644825967316
1371318524.0,0.106357,30.27,85.25666666666667,4.640651041666667,62.0644825967316
1371318524.25,0.106357,30.27,85.24500000597334,4.835546875,62.0644825967316
1371318524.5,0.106357,30.27,85.23333333333333,4.988723958333334,62.0644825967316
1371318524.75,0.106357,30.27,85.22166666069333,4.975390625,62.0644825967316
1371318525.0,0.106357,30.27,85.21,5.205859375,62.0644825967316
1371318525.25,0.106357,30.27,85.20416666965333,5.185625,62.0644825967316
1371318525.5,0.106357,30.27,85.19833333333332,5.083828124999999,62.0644825967316
1371318525.75,0.106357,30.27,85.19249999701333,5.234895833333334,62.0644825967316
1371318526.0,0.106357,30.27,85.18666666666667,5.445026041666666,62.0644825967316
1371318526.25,0.106357,30.27,85.18250000213334,5.881015625,62.0646923239408
1371318526.5,0.106357,30.27,85.17833333333334,6.4831770833333335,62.0646923239408
1371318526.75,0.106357,30.27,85.17416666453333,7.049322916666667,62.06469232394079
1371318527.0,0.106357,30.27,85.17,7.972734374999999,62.0646923239408
1371318527.25,0.106357,30.27,85.16333333674666,8.7046875,62.065321505568384
1371318527.5,0.106357,30.27,85.15666666666667,9.006796875000001,62.06637014161435
1371318527.75,0.106357,30.27,85.14999999658667,9.533854166666666,62.06909659533389
1371318528.0,0.106357,30.27,85.14333333333333,9.92421875,62.072452230680994
1371318528.25,0.106357,30.27,85.13083333973333,9.907291666666667,62.0758078660281
1371318528.5,0.106357,30.27,85.11833333333334,10.12296875,62.07916350137523
1371318528.75,0.106357,30.27,85.10583332693334,10.144635416666667,62.080883313463694
1371318529.0,0.106357,30.27,85.09333333333333,9.65359375,62.08096722067174
1371318529.25,0.106357,30.27,85.08083333973333,9.29484375,62.080757493462535
1371318529.5,0.106357,30.27,85.06833333333333,8.672838541666668,62.080757493462535
1371318529.75,0.106357,30.270833333333332,85.05583332693334,7.635833333333334,62.08063159179719
1371318530.0,0.106357,30.272500000000004,85.04333333333334,6.818229166666668,62.08012798513579
1371318530.25,0.106357,30.274166666666662,85.03333333845333,5.825338541666667,62.077736180193305
1371318530.5,0.106357,30.275833333333335,85.02333333333334,5.070442708333334,62.07467311750173
1371318530.75,0.106357,30.2775,85.01333332821333,4.5335937500000005,62.06984828088763
1371318531.0,0.106357,30.279166666666665,85.00333333333333,3.670833333333334,62.06410041577456
1371318531.25,0.106357,30.280833333333334,84.9991666688,3.2326041666666665,62.05814266003906
1371318531.5,0.106357,30.2825,84.995,2.9032812499999996,62.052772598046346
1371318531.75,0.106357,30.284166666666668,84.9908333312,2.2903385416666664,62.04874451244087
1371318532.0,0.106357,30.285833333333333,84.98666666666666,2.1933854166666666,62.046520244213774
1371318532.25,0.106357,30.287499999999998,84.98833333248,1.9786718749999999,62.04450581756817
1371318532.5,0.106357,30.28916666666667,84.99000000000001,1.6205989583333336,62.04249139092258
1371318532.75,0.106357,30.29,84.99166666752001,1.8617708333333336,62.040602865942326
1371318533.0,0.106357,30.29,84.99333333333334,1.7745833333333334,62.04035106261163
1371318533.25,0.106357,30.29,85.00083332949333,1.9192968749999997,62.04211368592652
1371318533.5,0.106357,30.29,85.00833333333333,2.179375,62.04412811257213
1371318533.75,0.106357,30.29,85.01583333717333,1.9104166666666667,62.0462264954667
1371318534.0,0.106410375,30.29,85.02333333333333,1.9326041666666665,62.04861872523265
1371318534.25,0.10646375000000001,30.29,85.03499999402666,2.1484375,62.05122084562105
1371318534.5,0.10651712499999999,30.29,85.04666666666665,1.9503385416666668,62.05323527226665
1371318534.75,0.1065705,30.29,85.05833333930666,2.180625,62.05554354578364
1371318535.0,0.10662387499999999,30.29,85.07,2.430390625,62.0576839068027
1371318535.25,0.10667724999999999,30.29,85.08083332778666,2.4634635416666666,62.0596983334483
1371318535.5,0.10673062500000001,30.29,85.09166666666667,2.824296875,62.061712760093904
1371318535.75,0.10678399999999999,30.29,85.10250000554667,2.955286458333333,62.0637271867395
1371318536.0,0.106837375,30.29,85.11333333333334,3.005546875,62.0644825967316
1371318536.25,0.10689074999999999,30.29,85.12166666240002,2.8851822916666667,62.0644825967316
1371318536.5,0.10694412499999999,30.29,85.13000000000001,2.890416666666667,62.0644825967316
1371318536.75,0.1069975,30.29,85.1383333376,3.235,62.0644825967316
1371318537.0,0.1069975,30.29,85.14666666666668,3.78171875,62.0644825967316
1371318537.25,0.1069975,30.29,85.1508333312,4.045026041666667,62.0644825967316
1371318537.5,0.106944125,30.29,85.155,4.443333333333333,62.0644825967316
1371318537.75,0.10689074999999999,30.29,85.15916666880001,4.733802083333333,62.0644825967316
1371318538.0,0.10683737500000001,30.29,85.16333333333334,4.879114583333333,62.0644825967316
1371318538.25,0.10678399999999999,30.29,85.16083333461334,5.264036458333333,62.0644825967316
1371318538.5,0.10673062499999998,30.29,85.15833333333335,5.388098958333334,62.0644825967316
1371318538.75,0.10667725,30.29,85.15583333205335,5.46375,62.0644825967316
1371318539.0,0.10662387499999999,30.29,85.15333333333335,5.744453125,62.0644825967316
1371318539.25,0.1065705,30.29,85.14166667264001,5.880208333333333,62.0644825967316
1371318539.5,0.10651712499999999,30.29,85.13000000000001,6.001770833333334,62.0644825967316
1371318539.75,0.10646374999999998,30.29,85.11833332736,6.218307291666668,62.0644825967316
1371318540.0,0.10641037499999999,30.29,85.10666666666667,5.939374999999999,62.0644825967316
1371318540.25,0.106357,30.29,85.08666667690666,5.733125,62.0644825967316
1371318540.5,0.106357,30.29,85.06666666666666,5.859791666666666,62.06284587508205
1371318540.75,0.106357,30.29,85.04666665642667,5.765338541666666,62.06083144843645
1371318541.0,0.106357,30.29,85.02666666666666,5.606562499999999,62.0586910874174
1371318541.25,0.106357,30.29,85.00166667946665,5.5815625,62.05625687952695
1371318541.5,0.106357,30.29,84.97666666666666,5.678541666666667,62.05357080288959
1371318541.75,0.106357,30.29,84.95166665386667,5.778385416666667,62.050884726252235
1371318542.0,0.106357,30.29,84.92666666666666,5.859036458333333,62.034885473586634
1371318542.25,0.106357,30.29,84.89750001493333,5.978098958333334,61.97928258329946
1371318542.5,0.106357,30.29,84.86833333333334,5.48328125,61.90950949697211
1371318542.75,0.106357,30.290833333333335,84.83916665173334,4.644192708333334,61.83973641064478
1371318543.0,0.106357,30.2925,84.81,4.339791666666667,61.793012814121795
1371318543.25,0.106357,30.294166666666666,84.77833334954667,3.901901041666667,61.76810092831121
1371318543.5,0.106357,30.29583333333333,84.74666666666667,2.95890625,61.76709355144789
1371318543.75,0.106357,30.2975,84.71499998378667,2.610234375,61.767093551447886
1371318544.0,0.106410375,30.299166666666665,84.68333333333334,2.0307552083333333,61.76721948582135
1371318544.25,0.10651712499999999,30.30083333333333,84.65000001706667,1.0521614583333334,61.767639267066194
1371318544.5,0.10662387499999999,30.3025,84.61666666666667,0.5150260416666667,61.76831091705795
1371318544.75,0.10673062499999998,30.30333333333333,84.58333331626667,-0.21489583333333337,61.768982567049704
1371318545.0,0.106837375,30.30333333333333,84.55000000000001,-1.0322395833333333,61.782967393069704
1371318545.25,0.106944125,30.30333333333333,84.51583335082668,-1.139453125,61.83655585671128
1371318545.5,0.10705087499999999,30.30333333333333,84.48166666666668,-0.6128645833333334,61.904314516393015
1371318545.75,0.10715762499999999,30.302499999999995,84.44749998250667,0.5274479166666667,61.97207317607476
1371318546.0,0.10726437499999998,30.30083333333333,84.41333333333334,1.5546354166666667,62.016782345952144
1371318546.25,0.107371125,30.299166666666668,84.37833335125333,2.2904947916666667,62.03967980511712
1371318546.5,0.107477875,30.2975,84.34333333333333,3.6698958333333334,62.0403094769844
1371318546.75,0.107584625,30.295833333333334,84.30833331541334,4.541015625,62.0403094769844
1371318547.0,0.107638,30.294166666666666,84.27333333333333,5.437369791666668,62.0403094769844
1371318547.25,0.107638,30.2925,84.24000001706666,6.868489583333333,62.0403094769844
1371318547.5,0.107638,30.290833333333335,84.20666666666665,7.563411458333333,62.0403094769844
1371318547.75,0.107638,30.29,84.17333331626665,8.162734375,62.0403094769844
1371318548.0,0.107638,30.29,84.13999999999999,9.168828125000001,62.0403094769844
1371318548.25,0.107638,30.29,84.11083334826665,9.375989583333334,62.0403094769844
1371318548.5,0.107638,30.29,84.08166666666665,9.291302083333333,62.04131662493345
1371318548.75,0.107638,30.29,84.05249998506666,9.0378125,62.04349877882305
1371318549.0,0.107638,30.29,84.02333333333333,8.273046875,62.04362465869008
1371318549.25,0.107638,30.29,83.99833334613332,7.969401041666667,62.0439603746731
1371318549.5,0.107638,30.29,83.97333333333333,7.43375,62.043498615303754
1371318549.75,0.107638,30.29,83.94833332053334,6.697682291666667,62.042910921560974
1371318550.0,0.107638,30.29,83.92333333333333,6.306588541666667,62.04223927156921
1371318550.25,0.107638,30.29,83.89916667904,5.674401041666667,62.04156762157745
1371318550.5,0.107638,30.29,83.875,5.081822916666666,62.04089597158569
1371318550.75,0.107638,30.290833333333335,83.85083332096,4.852265625,62.041651250787844
1371318551.0,0.107638,30.2925,83.82666666666667,4.356484375,62.04433697865196
1371318551.25,0.107638,30.294166666666666,83.80416667818666,3.963723958333333,62.04685484852459
1371318551.5,0.107638,30.295833333333334,83.78166666666667,3.628020833333333,62.04605742767867
1371318551.75,0.107638,30.296666666666667,83.75916665514667,2.9864322916666666,62.044882421738116
1371318552.0,0.107638,30.296666666666663,83.73666666666666,2.8634375,62.046938695760694
1371318552.25,0.107638,30.296666666666667,83.71333334527999,2.597395833333333,62.04727441174372
1371318552.5,0.107638,30.296666666666663,83.69,2.120416666666667,62.049750467011144
1371318552.75,0.107638,30.2975,83.66666665472,2.11703125,62.05033816075393
1371318553.0,0.107638,30.299166666666665,83.64333333333333,1.8975520833333333,62.051009810745704
1371318553.25,0.10769141666666666,30.30083333333333,83.62166667776,1.5263020833333334,62.051681460737456
1371318553.5,0.10774483333333333,30.3025,83.6,1.5980208333333332,62.05235311072921
1371318553.75,0.10785166666666667,30.30333333333333,83.57833332224,1.4943489583333331,62.05159783152707
1371318554.0,0.1079585,30.30333333333333,83.55666666666667,1.2276302083333333,62.048912103662936
1371318554.25,0.10806533333333333,30.30333333333333,83.53333334528,1.246640625,62.046310277541345
1371318554.5,0.10817216666666667,30.30333333333333,83.50999999999999,1.3930208333333332,62.0455968129444
1371318554.75,0.10827900000000001,30.304166666666664,83.48666665472,1.6871874999999996,62.03896834072868
1371318555.0,0.10833241666666667,30.305833333333336,83.46333333333332,1.7032291666666666,61.96681909699868
1371318555.25,0.10838583333333335,30.3075,83.43833334613332,1.8565104166666666,61.896180575192226
1371318555.5,0.10843924999999999,30.30916666666667,83.41333333333333,2.1381510416666667,61.81924951517882
1371318555.75,0.10849266666666667,30.309166666666666,83.38833332053333,2.225286458333333,61.739383076788606
1371318556.0,0.10849266666666667,30.3075,83.36333333333333,2.4615104166666666,61.679315335497996
1371318556.25,0.10843924999999999,30.30583333333333,83.3341666816,2.8015624999999997,61.66874433695643
1371318556.5,0.10838583333333333,30.304166666666664,83.305,2.8757291666666664,61.66312301268977
1371318556.75,0.108279,30.3025,83.2758333184,3.0829687500000005,61.662451362698015
1371318557.0,0.10817216666666668,30.30083333333333,83.24666666666667,3.4138541666666664,61.66177971270625
1371318557.25,0.10806533333333333,30.299166666666665,83.21416668330667,3.553854166666667,61.66119201896347
1371318557.5,0.1079585,30.2975,83.18166666666667,3.7869791666666663,61.661024106465526
1371318557.75,0.10785166666666667,30.29583333333333,83.14916665002667,3.973359375,61.66597378074044
1371318558.0,0.10785166666666667,30.294166666666666,83.11666666666667,4.1512239583333335,61.73526922058908
1371318558.25,0.10790508333333332,30.2925,83.08750001493334,4.449869791666666,61.80460663856221
1371318558.5,0.10795850000000001,30.290833333333335,83.05833333333334,4.684479166666667,61.87939746830407
1371318558.75,0.10801191666666667,30.29,83.02916665173335,4.802942708333333,61.95926390669428
1371318559.0,0.10811875,30.29,83.00000000000001,5.1447135416666665,62.01933164798489
1371318559.25,0.10822558333333333,30.29,82.97500001280001,5.373567708333333,62.02990264652646
1371318559.5,0.10833241666666667,30.29,82.95,5.563984375,62.035523970793115
1371318559.75,0.10843925,30.290833333333328,82.9249999872,6.048671875,62.03619562078487
1371318560.0,0.10854608333333332,30.2925,82.89999999999999,6.332473958333334,62.03686727077664
1371318560.25,0.10865291666666667,30.294166666666666,82.88083334314666,6.524244791666667,62.03753892076839
1371318560.5,0.10875975,30.29583333333333,82.86166666666666,6.818880208333333,62.03821057076016
1371318560.75,0.10886658333333334,30.2975,82.84249999018667,6.814713541666666,62.03888222075191
1371318561.0,0.10892,30.299166666666665,82.82333333333334,7.0132031249999995,62.03955387074367
1371318561.25,0.10892,30.30083333333333,82.8066666752,7.282552083333333,62.04018354261094
1371318561.5,0.10892,30.3025,82.78999999999999,7.161848958333334,62.0403094769844
1371318561.75,0.10892,30.304166666666664,82.77333332479999,7.364401041666667,62.0403094769844
1371318562.0,0.10892,30.305833333333336,82.75666666666666,7.452526041666665,62.0403094769844
1371318562.25,0.10892,30.3075,82.74666667178666,7.251640625,62.0403094769844
1371318562.5,0.10892,30.309166666666666,82.73666666666666,7.45828125,62.039889695739554
1371318562.75,0.10892,30.31,82.72666666154667,7.32546875,62.004570325823465
1371318563.0,0.10892,30.31,82.71666666666667,6.995416666666666,61.925257938273056
1371318563.25,0.10892,30.31,82.71250000213334,7.154375000000001,61.8578052986316
1371318563.5,0.10892,30.31,82.70833333333334,6.984609375000001,61.78291493904184
1371318563.75,0.10892,30.31,82.70416666453333,6.906979166666667,61.72043866424031
1371318564.0,0.10892,30.31,82.7,7.033437500000001,61.6739289316246
1371318564.25,0.10892,30.31,82.70583333034668,6.651328124999999,61.628054005365776
1371318564.5,0.10892,30.31,82.71166666666667,6.617604166666666,61.58273026445564
1371318564.75,0.10892,30.31,82.71750000298667,6.560130208333333,61.54185016804376
1371318565.0,0.10892,30.31,82.72333333333334,6.286614583333335,61.49360325837376
1371318565.25,0.10892,30.31,82.73416666112001,6.48578125,61.46956310355844
1371318565.5,0.108973375,30.31,82.745,6.4952604166666665,61.45720657730987
1371318565.75,0.10902675,30.31,82.75583333888,6.333671875,61.482271902903506
1371318566.0,0.10908012499999999,30.31,82.76666666666667,6.5184114583333335,61.56074467339402
1371318566.25,0.10913350000000001,30.31,82.7833333248,6.355416666666667,61.627357695975576
1371318566.5,0.109186875,30.31,82.8,6.142890625,61.70157640557357
1371318566.75,0.10924025,30.31,82.8166666752,6.25796875,61.763381030383336
1371318567.0,0.109293625,30.31,82.83333333333333,6.116171874999999,61.809219113007295
1371318567.25,0.109293625,30.31,82.84999999146666,6.186848958333333,61.85442238927436
1371318567.5,0.109293625,30.31,82.86666666666666,6.361484375,61.89907448019273
1371318567.75,0.109293625,30.31,82.88333334186666,6.3999999999999995,61.93928292661286
1371318568.0,0.109293625,30.31,82.89999999999999,6.36203125,61.9868581862911
1371318568.25,0.10929362499999999,30.31,82.91833332394667,6.068255208333333,62.01022669111466
1371318568.5,0.10924025,30.31,82.93666666666667,5.690026041666666,62.02233134861632
1371318568.75,0.109186875,30.31,82.95500000938667,5.5132812499999995,62.031913742947005
1371318569.0,0.10913350000000001,30.31,82.97333333333334,5.453229166666667,62.03208171001515
1371318569.25,0.10908012499999999,30.31,82.99166665728,5.497760416666666,62.03224967708329
1371318569.5,0.10902675,30.31,83.01,5.576302083333332,62.03224967708329
1371318569.75,0.108973375,30.31,83.02833334272,5.509609375,62.03224967708329
1371318570.0,0.10892,30.31,83.04666666666667,5.382890625000001,62.03224967708329
1371318570.25,0.10892,30.31,83.06416665770666,5.259140625,62.01220668259716
1371318570.5,0.10892,30.31,83.08166666666668,5.1105729166666665,61.958537069540455
1371318570.75,0.10892,30.31,83.09916667562668,4.926822916666667,61.88126042594723
1371318571.0,0.10892,30.31,83.11666666666667,4.874765624999999,61.80411165867435
1371318571.25,0.10892,30.31,83.13083332608001,5.083125,61.72696289140148
1371318571.5,0.10892,30.31,83.14500000000001,5.249843749999999,61.649686247808255
1371318571.75,0.108973375,30.31,83.15916667392,5.355208333333334,61.572537480535374
1371318572.0,0.10902675,30.31,83.17333333333333,5.484088541666666,61.49538871326249
1371318572.25,0.10902675,30.31,83.18249999530667,5.361927083333334,61.41823994598962
1371318572.5,0.10902675,30.31,83.19166666666666,5.3331510416666665,61.355556572580404
1371318572.75,0.10902675,30.31,83.20083333802665,5.403255208333333,61.35555657258039
1371318573.0,0.10902674999999999,30.31,83.21,5.3016145833333335,61.355556572580404
1371318573.25,0.10902675,30.31,83.21416666453334,5.3046875,61.37559956706654
1371318573.5,0.10902675,30.31,83.21833333333333,5.451484375,61.42926918012324
1371318573.75,0.10902675,30.31083333333333,83.22250000213333,5.3710677083333325,61.506545823716465
1371318574.0,0.10902675,30.312499999999996,83.22666666666667,5.513359374999999,61.583736569113825
1371318574.25,0.10902675,30.314166666666665,83.22749999957334,5.617890625,61.661053248884635
1371318574.5,0.10902675,30.315833333333334,83.22833333333334,5.5464843749999995,61.73900154246963
1371318574.75,0.108973375,30.3175,83.22916666709334,5.7496093749999995,61.81640217848942
1371318575.0,0.10892,30.319166666666664,83.23,5.74078125,61.89355094576229
1371318575.25,0.10892,30.320833333333336,83.23,5.815703125,61.97069971303517
1371318575.5,0.108973375,30.3225,83.23,6.160703124999999,62.03342506456887
1371318575.75,0.10902675,30.324166666666667,83.23,6.082135416666667,62.03342506456887
1371318576.0,0.10913350000000001,30.325833333333332,83.23,6.400989583333334,61.97841762534997
1371318576.25,0.109186875,30.3275,83.23166666581334,6.697317708333333,61.904464054564045
1371318576.5,0.10924025,30.329166666666666,83.23333333333333,6.640416666666667,61.830723496877255
1371318576.75,0.109293625,30.329166666666666,83.23500000085333,7.100677083333334,61.75698293919046
1371318577.0,0.10940037500000001,30.3275,83.23666666666666,7.166588541666667,61.68320040337918
1371318577.25,0.109507125,30.325833333333332,83.24249999701334,7.141197916666667,61.60929193319446
1371318577.5,0.10961387500000001,30.324166666666667,83.24833333333333,7.538385416666667,61.53513522158857
1371318577.75,0.10966725000000001,30.3225,83.25416666965333,7.2022916666666665,61.46314388242112
1371318578.0,0.109720625,30.320833333333336,83.26,7.194973958333333,61.39417099203063
1371318578.25,0.109774,30.319166666666664,83.27166666069334,7.568489583333334,61.32519810164015
1371318578.5,0.109720625,30.317499999999995,83.28333333333333,7.2492968750000015,61.256183233125164
1371318578.75,0.10966725,30.31583333333333,83.29500000597334,7.19109375,61.19305197769694
1371318579.0,0.1095605,30.314166666666665,83.30666666666667,6.768541666666668,61.220180021339274
1371318579.25,0.109507125,30.312499999999996,83.32583332352,6.082447916666666,61.294133592125185
1371318579.5,0.109507125,30.31083333333333,83.345,5.416953125,61.367874149811975
1371318579.75,0.10956049999999999,30.31,83.36416667648001,4.525260416666667,61.440647700765346
1371318580.0,0.109507125,30.31,83.38333333333334,4.07328125,61.499883157450704
1371318580.25,0.109507125,30.31,83.40999998634668,3.2492708333333336,61.549340313867845
1371318580.5,0.109507125,30.31,83.43666666666667,2.2839843749999997,61.59453684078742
1371318580.75,0.1095605,30.31,83.46333334698667,1.9813802083333332,61.63798777651342
1371318581.0,0.10961387500000001,30.31,83.49000000000001,1.1506770833333333,61.67867213220936
1371318581.25,0.10966725000000001,30.31,83.52166665045334,-0.055520833333333276,61.719356487905294
1371318581.5,0.109774,30.31,83.55333333333334,-0.6436979166666666,61.760040843601246
1371318581.75,0.10988075000000001,30.31,83.58500001621334,-1.1336458333333332,61.794376622235916
1371318582.0,0.1099875,30.31,83.61666666666667,-1.4272656250000002,61.786024443904886
1371318582.25,0.11009425,30.31,83.65333331456,-1.1940625,61.74624143631875
1371318582.5,0.11014762500000001,30.31,83.69,-0.7922656250000001,61.706669891189314
1371318582.75,0.11014762500000001,30.31,83.72666668544001,-0.4964583333333334,61.6678538903366
1371318583.0,0.110201,30.31,83.76333333333334,-0.4201041666666667,61.6425759837519
1371318583.25,0.110201,30.31,83.80083331413334,0.04671875,61.627076377435394
1371318583.5,0.110201,30.31,83.83833333333334,0.43973958333333335,61.6155819045438
1371318583.75,0.110201,30.31,83.87583335253333,0.7609374999999999,61.60353714330208
1371318584.0,0.110201,30.31,83.91333333333334,1.3683333333333334,61.582090938040075
1371318584.25,0.110201,30.31,83.95083331413333,2.047630208333333,61.560432850780245
1371318584.5,0.110201,30.31,83.98833333333334,2.5431510416666665,61.534532739503085
1371318584.75,0.110201,30.31,84.02583335253334,3.0038541666666667,61.504769026320865
1371318585.0,0.110201,30.31,84.06333333333333,3.3909635416666664,61.48222916262551
1371318585.25,0.110201,30.31,84.09333331797333,3.440572916666667,61.4632407326087
1371318585.5,0.110201,30.31,84.12333333333333,3.4475520833333335,61.44404084013518
1371318585.75,0.110201,30.31,84.15333334869332,3.5271354166666664,61.42560396109639
1371318586.0,0.110201,30.31,84.18333333333332,3.60375,61.41000851186778
1371318586.25,0.110201,30.31,84.20499998890666,3.6863281249999997,61.398269044336246
1371318586.5,0.110201,30.31,84.22666666666666,3.4737500000000003,61.43110686169043
1371318586.75,0.110201,30.31,84.24833334442665,2.77515625,61.47148213575118
1371318587.0,0.110201,30.31,84.27,2.1610416666666663,61.52121687570773
1371318587.25,0.11025441666666665,30.31,84.28416665941333,1.6633593749999998,61.57116349766212
1371318587.5,0.11030783333333333,30.31,84.29833333333333,0.901015625,61.62535214363382
1371318587.75,0.11036124999999998,30.31,84.31250000725333,0.290703125,61.68391133360961
1371318588.0,0.11041466666666666,30.31,84.32666666666667,-0.3797916666666667,61.74268277121255
1371318588.25,0.11046808333333331,30.31,84.33833332736,-1.049296875,61.8014542088155
1371318588.5,0.11057491666666665,30.31,84.35,-1.560026041666667,61.860225646418456
1371318588.75,0.11068174999999998,30.31083333333333,84.36166667264,-2.242916666666667,61.91844553304338
1371318589.0,0.11078858333333332,30.312499999999996,84.37333333333333,-2.9491927083333334,61.97382398985814
1371318589.25,0.110842,30.314166666666665,84.38583332693334,-3.5902604166666667,62.02534646497582
1371318589.5,0.11089541666666665,30.315833333333334,84.39833333333334,-3.8138020833333335,62.03229165520778
1371318589.75,0.11094883333333333,30.3175,84.41083333973334,-3.419921875,62.03224967708329
1371318590.0,0.11100224999999998,30.319166666666664,84.42333333333335,-3.1600520833333334,62.03224967708329
1371318590.25,0.11094883333333333,30.320833333333336,84.43999999146668,-3.0446093750000003,62.03224967708329
1371318590.5,0.11089541666666665,30.3225,84.45666666666668,-2.5314843750000002,62.03224967708329
1371318590.75,0.110842,30.324166666666667,84.47333334186668,-2.031171875,62.03224967708329
1371318591.0,0.110842,30.325833333333332,84.49000000000001,-0.9681770833333334,62.03224967708329
1371318591.25,0.11089541666666668,30.3275,84.51166665557334,-0.02625000000000005,62.03224967708329
1371318591.5,0.110842,30.329166666666666,84.53333333333333,0.8758333333333331,62.03224967708329
1371318591.75,0.11078858333333334,30.33,84.55500001109334,2.1892968749999997,62.03262748020365
1371318592.0,0.11068175000000001,30.33,84.57666666666667,3.2559635416666666,62.03443224518356
1371318592.25,0.11068174999999998,30.33,84.60499998549334,4.583307291666666,62.037118321820934
1371318592.5,0.11068175000000001,30.33,84.63333333333333,6.056770833333334,62.03980439845828
1371318592.75,0.11062833333333333,30.33,84.66166668117333,6.782578125000001,62.04249047509564
1371318593.0,0.11057491666666668,30.33,84.69,8.082395833333333,62.045176551733
1371318593.25,0.11057491666666668,30.33,84.71749998592,9.30375,62.04786262837036
1371318593.5,0.11057491666666668,30.33,84.745,9.945442708333333,62.050548705007714
1371318593.75,0.11057491666666668,30.329166666666666,84.77250001408,10.984869791666668,62.05323478164508
1371318594.0,0.1105215,30.3275,84.8,11.347682291666667,62.05592085828244
1371318594.25,0.11041466666666666,30.325833333333332,84.82416665429334,11.720390625,62.058606934919794
1371318594.5,0.11036125000000001,30.324166666666667,84.84833333333333,12.139921875,62.061712465975546
1371318594.75,0.11030783333333333,30.3225,84.87250001237332,11.907552083333334,62.067166647630465
1371318595.0,0.11030783333333333,30.320833333333336,84.89666666666666,11.925625000000002,62.07140359463502
1371318595.25,0.11025441666666667,30.319166666666664,84.91416665770666,11.742786458333335,62.074759229982135
1371318595.5,0.110201,30.3175,84.93166666666666,10.921953125000002,62.07811486532925
1371318595.75,0.110201,30.316666666666666,84.94916667562666,10.677760416666667,62.08147050067637
1371318596.0,0.110201,30.316666666666666,84.96666666666665,9.914036458333333,62.08482613602347
1371318596.25,0.110201,30.316666666666663,84.98166665898665,8.901119791666666,62.08818177137058
1371318596.5,0.110201,30.316666666666663,84.99666666666666,8.481953125,62.08973368737879
1371318596.75,0.11025441666666665,30.3175,85.01166667434667,7.5297656250000005,62.08750937011076
1371318597.0,0.11030783333333333,30.319166666666664,85.02666666666667,6.479869791666666,62.0848232934734
1371318597.25,0.11041466666666666,30.32083333333333,85.03583332864001,5.492812499999999,62.08213721683605
1371318597.5,0.11046808333333331,30.322499999999994,85.045,4.201666666666667,62.0790316857803
1371318597.75,0.11046808333333331,30.324166666666667,85.05416667136,3.6208072916666665,62.07286381054192
1371318598.0,0.11046808333333331,30.325833333333332,85.06333333333333,3.1080729166666665,62.03806241099837
1371318598.25,0.11046808333333331,30.327499999999997,85.06749999786666,2.0109375,61.992956095983466
1371318598.5,0.11046808333333331,30.329166666666662,85.07166666666666,1.1438541666666666,61.94395524692279
