timestamp,EDA,TEMP,HR,BVP,ACC_mag
1372752450.0,0.19700433333333334,31.73,,11.168333333333335,63.8200595424354
1372752450.25,0.1968367142857143,31.73,,10.560714285714285,63.8200595424354
1372752450.5,0.196711,31.73,,10.1996484375,63.8200595424354
1372752450.75,0.19661322222222222,31.73,,10.420625,63.8200595424354
1372752451.0,0.19640705,31.73,,10.2994375,63.8200595424354
1372752451.25,0.19612204545454545,31.73,,9.728096590909091,63.8200595424354
1372752451.5,0.19588454166666666,31.73,,9.26203125,63.8200595424354
1372752451.75,0.195404625,31.729166666666668,,9.435338541666667,63.8200595424354
1372752452.0,0.19497804166666666,31.727500000000003,,9.635911458333334,63.8200595424354
1372752452.25,0.19455145833333332,31.725833333333338,,8.959739583333333,63.8200595424354
1372752452.5,0.194124875,31.724166666666665,,7.594791666666667,63.8200595424354
1372752452.75,0.19369829166666666,31.7225,,6.69671875,63.8200595424354
1372752453.0,0.19321837500000003,31.720833333333335,,6.3740625,63.82189519658804
1372752453.25,0.19263179166666666,31.719166666666666,,6.619505208333334,63.82515858174829
1372752453.5,0.1920452083333333,31.717499999999998,,6.937682291666667,63.82842196690854
1372752453.75,0.19145862500000002,31.715833333333336,,6.525963541666667,63.831685352068796
1372752454.0,0.19097866666666666,31.714166666666667,,6.697343749999999,63.83494873722905
1372752454.25,0.19060533333333332,31.712499999999995,,7.618072916666667,63.8382121223893
1372752454.5,0.1901786666666667,31.710833333333337,,8.186927083333334,63.841475507549546
1372752454.75,0.189752,31.709166666666665,,8.311197916666666,63.84473889270979
1372752455.0,0.18932533333333335,31.7075,,8.249114583333334,63.84800227787005
1372752455.25,0.18905866666666668,31.70583333333333,,8.715598958333334,63.8512656630303
1372752455.5,0.1888986666666667,31.704166666666666,,9.885390625000001,63.85452904819055
1372752455.75,0.188792,31.7025,,11.353229166666667,63.8577924333508
1372752456.0,0.18868533333333334,31.700833333333332,,12.170703125000001,63.85922016435841
1372752456.25,0.1887386666666667,31.699166666666667,,12.535651041666668,63.85922016435841
1372752456.5,0.1887386666666667,31.697500000000005,,13.140208333333334,63.85922016435841
1372752456.75,0.18868533333333334,31.695833333333336,,14.014244791666668,63.85922016435841
1372752457.0,0.18863200000000002,31.69416666666667,,14.497552083333332,63.85922016435841
1372752457.25,0.18863200000000002,31.6925,,15.011796875,63.85922016435841
1372752457.5,0.18868533333333337,31.690833333333334,,15.735937499999999,63.85922016435841
1372752457.75,0.1887386666666667,31.69,,16.266458333333336,63.85922016435841
1372752458.0,0.188792,31.69,,17.365,63.85922016435841
1372752458.25,0.1887386666666667,31.69,,18.23484375,63.85922016435841
1372752458.5,0.18868533333333334,31.69,,17.96546875,63.85922016435841
1372752458.75,0.1885786666666667,31.69,,17.939895833333335,63.85922016435841
1372752459.0,0.18852533333333335,31.69,,18.384114583333332,63.85922016435841
1372752459.25,0.18841866666666665,31.69,,18.190364583333334,63.85922016435841
1372752459.5,0.18831200000000003,31.69,,18.000078124999998,63.85922016435841
1372752459.75,0.18820533333333334,31.69,,18.188645833333336,63.85922016435841
1372752460.0,0.18809866666666666,31.69,63.04,17.602578125,63.85922016435841
1372752460.25,0.1879386666666667,31.69,63.078333313706665,16.639791666666667,63.85922016435841
1372752460.5,0.18777866666666665,31.69,63.11666666666666,16.634348958333334,63.85922016435841
1372752460.75,0.18761866666666668,31.69,63.15500001962666,16.309713541666667,63.85922016435841
1372752461.0,0.1874586666666667,31.69,63.19333333333333,14.895078125,63.85922016435841
1372752461.25,0.187352,31.69,63.255833301333325,14.47947916666667,63.85922016435841
1372752461.5,0.18724533333333335,31.69,63.31833333333333,14.910729166666668,63.85922016435841
1372752461.75,0.18713866666666668,31.69,63.38083336533333,14.034583333333336,63.85922016435841
1372752462.0,0.18703199999999998,31.69,63.44333333333333,13.22765625,63.85860827964086
1372752462.25,0.18692533333333336,31.69,63.46583332181333,13.799088541666665,63.855344894480616
1372752462.5,0.186872,31.69,63.48833333333333,13.384921875000002,63.852081509320364
1372752462.75,0.186872,31.68916666666667,63.51083334485333,12.351458333333333,63.84881812416011
1372752463.0,0.18692533333333336,31.687500000000004,63.53333333333333,12.769739583333333,63.84555473899986
1372752463.25,0.18697866666666665,31.685833333333335,63.57499997866666,13.040833333333333,63.842291353839606
1372752463.5,0.187032,31.684166666666666,63.61666666666666,11.851875000000001,63.83902796867937
1372752463.75,0.18713866666666668,31.6825,63.65833335466667,11.7521875,63.83576458351911
1372752464.0,0.18724533333333335,31.680833333333336,63.699999999999996,12.615729166666668,63.83250119835886
1372752464.25,0.18735200000000005,31.679166666666664,63.824999936,12.044869791666665,63.82923781319861
1372752464.5,0.18745866666666666,31.6775,63.95,10.861015625,63.82597442803836
1372752464.75,0.18756533333333333,31.675833333333333,64.075000064,11.1928125,63.822711042878105
1372752465.0,0.18767200000000003,31.674166666666668,64.2,11.410781250000001,63.8200595424354
1372752465.25,0.18777866666666668,31.6725,64.38999990272,10.206015625000001,63.8200595424354
1372752465.5,0.18788533333333335,31.670833333333334,64.58,9.989114583333334,63.8200595424354
1372752465.75,0.18799200000000005,31.67,64.77000009727999,10.607213541666667,63.8200595424354
1372752466.0,0.18804533333333331,31.67,64.96,10.00796875,63.8200595424354
1372752466.25,0.18809866666666666,31.67,65.17333322410666,9.414244791666667,63.8200595424354
1372752466.5,0.188152,31.67,65.38666666666666,10.420260416666666,63.8200595424354
1372752466.75,0.188152,31.67,65.60000010922667,10.479348958333334,63.8200595424354
1372752467.0,0.188152,31.67,65.81333333333333,9.679661458333333,63.8200595424354
1372752467.25,0.18809866666666666,31.67,65.97999991466666,10.098802083333334,63.8200595424354
1372752467.5,0.18804533333333331,31.67,66.14666666666668,10.913619791666667,63.8200595424354
1372752467.75,0.1879386666666667,31.67,66.31333341866667,10.357161458333332,63.8200595424354
1372752468.0,0.187832,31.67,66.48,10.196848958333334,63.8200595424354
1372752468.25,0.18772533333333333,31.67,66.59583327402667,11.091432291666669,63.8200595424354
1372752468.5,0.18761866666666668,31.67,66.71166666666667,11.099973958333331,63.8200595424354
1372752468.75,0.187512,31.67,66.82750005930666,10.419557291666667,63.8200595424354
1372752469.0,0.18740533333333334,31.67,66.94333333333333,10.969739583333334,63.8200595424354
1372752469.25,0.18735200000000005,31.67,67.02166662655999,11.569973958333335,63.8200595424354
1372752469.5,0.187352,31.67,67.1,10.595520833333333,63.8200595424354
1372752469.75,0.187352,31.67,67.17833337344,10.586015625,63.8200595424354
1372752470.0,0.187352,31.67,67.25666666666666,11.329479166666665,63.8200595424354
1372752470.25,0.18740533333333334,31.67,67.31416663722666,10.718385416666665,63.8200595424354
1372752470.5,0.1874586666666667,31.67,67.37166666666667,10.323541666666666,63.8200595424354
1372752470.75,0.18756533333333333,31.67,67.42916669610666,11.188151041666666,63.8200595424354
1372752471.0,0.18767200000000003,31.67,67.48666666666666,10.946744791666667,63.8200595424354
1372752471.25,0.18777866666666668,31.67,67.54166663850667,10.236848958333335,63.8200595424354
1372752471.5,0.18788533333333335,31.67,67.59666666666666,10.915260416666667,63.8200595424354
1372752471.75,0.18793866666666667,31.67,67.65166669482666,11.396614583333333,63.8200595424354
1372752472.0,0.18804533333333337,31.67,67.70666666666666,10.599140624999999,63.8200595424354
1372752472.25,0.18804533333333331,31.67,67.75916663978667,10.604192708333334,63.8200595424354
1372752472.5,0.18799200000000002,31.67,67.81166666666667,11.569036458333334,63.8200595424354
1372752472.75,0.18788533333333335,31.67,67.86416669354666,11.150807291666666,63.8200595424354
1372752473.0,0.18777866666666668,31.67,67.91666666666667,10.588411458333335,63.8200595424354
1372752473.25,0.18767199999999998,31.67,67.96833330688,11.53390625,63.8200595424354
1372752473.5,0.18756533333333333,31.67,68.02000000000001,11.65515625,63.8200595424354
1372752473.75,0.1874586666666667,31.67,68.07166669312001,10.63984375,63.8200595424354
1372752474.0,0.18735200000000005,31.67,68.12333333333333,11.171901041666667,63.8200595424354
1372752474.25,0.18724533333333335,31.67,68.16833331029333,11.716796875,63.8200595424354
1372752474.5,0.18713866666666668,31.67,68.21333333333334,10.610416666666667,63.8200595424354
1372752474.75,0.18708533333333335,31.67,68.25833335637334,10.295625000000001,63.8200595424354
1372752475.0,0.18697866666666665,31.67,68.30333333333334,11.142213541666665,63.8200595424354
1372752475.25,0.1869786666666667,31.67,68.34333331285335,10.556197916666667,63.8200595424354
1372752475.5,0.18692533333333336,31.67,68.38333333333334,9.402005208333334,63.8200595424354
1372752475.75,0.18697866666666665,31.670833333333334,68.42333335381333,9.96875,63.8200595424354
1372752476.0,0.18708533333333333,31.6725,68.46333333333334,10.2615625,63.8200595424354
1372752476.25,0.18719200000000003,31.674166666666668,68.49916664832,9.01421875,63.8200595424354
1372752476.5,0.1872986666666667,31.675833333333333,68.535,8.834036458333335,63.8200595424354
1372752476.75,0.18740533333333334,31.6775,68.57083335168001,9.681848958333333,63.8200595424354
1372752477.0,0.18751199999999998,31.679166666666664,68.60666666666667,8.990963541666668,63.8200595424354
1372752477.25,0.18761866666666668,31.680833333333336,68.63833331712,8.272942708333334,63.8200595424354
1372752477.5,0.18772533333333333,31.682500000000005,68.67,9.210625,63.8200595424354
1372752477.75,0.187832,31.68416666666667,68.70166668288,9.374218749999999,63.8200595424354
1372752478.0,0.1879386666666667,31.685833333333335,68.73333333333333,8.464973958333333,63.8200595424354
1372752478.25,0.18799200000000005,31.687500000000004,68.76166665216,8.984739583333333,63.8200595424354
1372752478.5,0.18809866666666666,31.68916666666667,68.78999999999999,9.904088541666667,63.8200595424354
1372752478.75,0.188152,31.69,68.81833334784,9.255989583333333,63.8200595424354
1372752479.0,0.188152,31.69,68.84666666666666,9.052760416666667,63.8200595424354
1372752479.25,0.188152,31.69,68.86833332224,10.156848958333333,63.8200595424354
1372752479.5,0.188152,31.69,68.89,10.242604166666666,63.8200595424354
1372752479.75,0.188152,31.69,68.91166667776,9.492682291666666,63.8200595424354
1372752480.0,0.188152,31.69,68.93333333333334,10.186979166666665,63.8200595424354
1372752480.25,0.188152,31.69,68.94916665856,11.017213541666665,63.8200595424354
1372752480.5,0.188152,31.69,68.965,10.280234375,63.8200595424354
1372752480.75,0.188152,31.69,68.98083334144,10.243072916666668,63.8200595424354
1372752481.0,0.188152,31.69,68.99666666666667,11.302552083333333,63.8200595424354
1372752481.25,0.188152,31.69,69.00749999445334,11.120390624999999,63.8200595424354
1372752481.5,0.188152,31.69,69.01833333333335,10.439921875,63.8200595424354
1372752481.75,0.188152,31.69,69.02916667221334,11.348046875,63.8200595424354
1372752482.0,0.188152,31.69,69.04,11.715260416666666,63.8200595424354
1372752482.25,0.18809866666666666,31.69,69.04999999488001,10.765338541666667,63.8200595424354
1372752482.5,0.18804533333333331,31.69,69.06,10.950963541666667,63.8200595424354
1372752482.75,0.18799200000000002,31.69,69.07000000512,11.752864583333334,63.8200595424354
1372752483.0,0.1879386666666667,31.69,69.08,11.00578125,63.8200595424354
1372752483.25,0.18788533333333335,31.69,69.08916666197334,10.357161458333334,63.8200595424354
1372752483.5,0.18788533333333335,31.69,69.09833333333333,11.179192708333332,63.8200595424354
1372752483.75,0.18788533333333335,31.69,69.10750000469332,11.141041666666666,63.8200595424354
1372752484.0,0.18788533333333332,31.69,69.11666666666666,9.885703125000001,63.8200595424354
1372752484.25,0.18788533333333335,31.69,69.12583332864,9.739270833333334,63.8200595424354
1372752484.5,0.18788533333333335,31.69,69.13499999999999,10.422473958333333,63.8200595424354
1372752484.75,0.18788533333333335,31.689166666666665,69.14416667136,9.547317708333333,63.8200595424354
1372752485.0,0.18788533333333335,31.6875,69.15333333333334,8.698802083333332,63.8200595424354
1372752485.25,0.1879386666666667,31.685833333333335,69.16083332949334,9.298723958333333,63.8200595424354
1372752485.5,0.18799200000000002,31.684166666666666,69.16833333333334,9.138333333333334,63.8200595424354
1372752485.75,0.18804533333333337,31.6825,69.17583333717333,8.062890625,63.8200595424354
1372752486.0,0.18809866666666666,31.680833333333336,69.18333333333334,8.172109375,63.8200595424354
1372752486.25,0.188152,31.67916666666667,69.18833333077333,8.644713541666667,63.8200595424354
1372752486.5,0.188152,31.6775,69.19333333333333,7.695546875000001,63.8200595424354
1372752486.75,0.188152,31.675833333333333,69.19833333589334,7.14171875,63.8200595424354
1372752487.0,0.188152,31.674166666666668,69.20333333333333,8.053411458333334,63.8200595424354
1372752487.25,0.18809866666666666,31.672500000000003,69.20416666624,8.296744791666667,63.8200595424354
1372752487.5,0.18804533333333337,31.670833333333334,69.205,7.321484375000001,63.82148727344301
1372752487.75,0.18804533333333331,31.66916666666667,69.20583333376,7.345651041666667,63.82475065860327
1372752488.0,0.18799200000000002,31.6675,69.20666666666666,8.340729166666668,63.82801404376352
1372752488.25,0.18799200000000005,31.665833333333335,69.20500000085333,8.038619791666667,63.83127742892376
1372752488.5,0.18799200000000002,31.66416666666667,69.20333333333333,7.5184114583333335,63.834540814084015
1372752488.75,0.18799200000000002,31.662499999999998,69.20166666581333,8.401614583333334,63.83780419924426
1372752489.0,0.18799200000000002,31.660833333333333,69.2,9.008359375,63.84106758440452
1372752489.25,0.18799200000000002,31.659166666666664,69.19833333418667,8.446250000000001,63.844330969564766
1372752489.5,0.18799200000000002,31.657500000000002,69.19666666666666,8.842734375000001,63.847594354725025
1372752489.75,0.18799200000000002,31.656666666666666,69.19499999914666,9.928203125,63.85085773988527
1372752490.0,0.18799200000000002,31.656666666666666,69.19333333333333,9.655,63.854121125045516
1372752490.25,0.18804533333333337,31.656666666666666,69.19166666752,9.346927083333334,63.857384510205776
1372752490.5,0.18809866666666666,31.656666666666666,69.19,10.468177083333332,63.85922016435841
1372752490.75,0.18809866666666666,31.6575,69.18833333248,11.031927083333334,63.85922016435841
1372752491.0,0.188152,31.659166666666668,69.18666666666667,10.37546875,63.85922016435841
1372752491.25,0.188152,31.660833333333333,69.18583333376,10.892473958333333,63.85922016435841
1372752491.5,0.188152,31.662499999999998,69.185,11.966927083333333,63.85922016435841
1372752491.75,0.18809866666666666,31.66416666666667,69.18416666624,11.602005208333333,63.85922016435841
1372752492.0,0.18804533333333337,31.665833333333335,69.18333333333334,11.282864583333334,63.85922016435841
1372752492.25,0.18799200000000002,31.667500000000004,69.18166666752,12.323385416666666,63.85922016435841
1372752492.5,0.18799200000000002,31.669166666666666,69.18,12.692526041666667,63.85922016435841
1372752492.75,0.18799200000000002,31.67,69.17833333248001,12.015781249999998,63.85922016435841
1372752493.0,0.18799200000000002,31.67,69.17666666666668,12.604895833333332,63.85922016435841
1372752493.25,0.18799200000000002,31.67,69.17583333376001,13.365677083333333,63.85922016435841
1372752493.5,0.18799200000000002,31.67,69.17500000000001,12.683203124999999,63.85922016435841
1372752493.75,0.18799200000000002,31.67,69.17416666624001,12.824114583333333,63.85922016435841
1372752494.0,0.18799200000000005,31.67,69.17333333333335,13.868333333333332,63.85922016435841
1372752494.25,0.18804533333333337,31.67,69.17416666624001,13.440937499999999,63.85922016435841
1372752494.5,0.18809866666666666,31.67,69.17500000000001,12.900546875000002,63.85922016435841
1372752494.75,0.18820533333333336,31.67,69.17583333376001,13.816171875,63.85922016435841
1372752495.0,0.188312,31.67,69.17666666666668,14.013229166666667,63.85922016435841
1372752495.25,0.18841866666666665,31.67,69.17999999829334,12.947916666666666,63.85922016435841
1372752495.5,0.18841866666666665,31.67,69.18333333333334,13.060364583333333,63.85922016435841
1372752495.75,0.1884186666666667,31.67,69.18666666837333,13.784348958333334,63.85922016435841
1372752496.0,0.188472,31.67,69.19,12.940572916666667,63.85922016435841
1372752496.25,0.18852533333333335,31.67,69.19499999744,12.185546875000002,63.85922016435841
1372752496.5,0.18863200000000002,31.67,69.19999999999999,12.896484375,63.85922016435841
1372752496.75,0.1887386666666667,31.67,69.20500000256,12.399505208333332,63.85922016435841
1372752497.0,0.1888453333333333,31.67,69.21,11.089296875,63.85922016435841
1372752497.25,0.18889866666666666,31.67,69.21749999616,11.34109375,63.85922016435841
1372752497.5,0.188952,31.67,69.225,11.352916666666665,63.85922016435841
1372752497.75,0.18900533333333333,31.67,69.23250000383999,9.947083333333333,63.85922016435841
1372752498.0,0.18905866666666668,31.67,69.24,9.642421875,63.85922016435841
1372752498.25,0.18911200000000003,31.67,69.24916666197333,10.273671875,63.85922016435841
1372752498.5,0.18921866666666667,31.67,69.25833333333333,9.399973958333334,63.85922016435841
1372752498.75,0.18932533333333335,31.67,69.26750000469332,8.386197916666665,63.85922016435841
1372752499.0,0.18937866666666667,31.67,69.27666666666666,8.965833333333334,63.85922016435841
1372752499.25,0.189432,31.67,69.28749999445333,9.138151041666667,63.85922016435841
1372752499.5,0.189432,31.67,69.29833333333332,8.082395833333333,63.85922016435841
1372752499.75,0.189432,31.67,69.30916667221332,8.253098958333332,63.85922016435841
1372752500.0,0.189432,31.67,69.32,8.985234375,63.85922016435841
1372752500.25,0.189432,31.67,69.32999999488,8.38890625,63.85922016435841
1372752500.5,0.189432,31.67,69.34,8.406015625,63.85922016435841
1372752500.75,0.189432,31.67,69.35000000512,9.417161458333332,63.85922016435841
1372752501.0,0.189432,31.67,69.36,9.358749999999999,63.85922016435841
1372752501.25,0.189432,31.67,69.36916666197334,9.146692708333335,63.85922016435841
1372752501.5,0.189432,31.67,69.37833333333333,10.073697916666665,63.85922016435841
1372752501.75,0.189432,31.67,69.38750000469332,10.592838541666667,63.85922016435841
1372752502.0,0.189432,31.67,69.39666666666666,10.270729166666667,63.85922016435841
1372752502.25,0.189432,31.67,69.40749999445333,10.690364583333333,63.85922016435841
1372752502.5,0.189432,31.67,69.41833333333332,11.37390625,63.85922016435841
1372752502.75,0.189432,31.67,69.42916667221333,11.185234375,63.85922016435841
1372752503.0,0.1894853333333333,31.67,69.44,11.312135416666669,63.85922016435841
1372752503.25,0.18953866666666663,31.67,69.45166666069333,12.017864583333335,63.85922016435841
1372752503.5,0.1896453333333333,31.67,69.46333333333334,11.87013020833333,63.85922016435841
1372752503.75,0.18969866666666665,31.67,69.47500000597333,11.657265625,63.85922016435841
1372752504.0,0.18969866666666668,31.67,69.48666666666666,12.059348958333333,63.85922016435841
1372752504.25,0.189752,31.67,69.50249999189333,11.877317708333335,63.85922016435841
1372752504.5,0.18980533333333335,31.67,69.51833333333333,11.471145833333331,63.85922016435841
1372752504.75,0.189912,31.67,69.53416667477333,11.650130208333332,63.85922016435841
1372752505.0,0.19001866666666667,31.67,69.55,11.491171875,63.85922016435841
1372752505.25,0.19012533333333334,31.67,69.56666665813333,11.009062499999999,63.85922016435841
1372752505.5,0.19023199999999998,31.67,69.58333333333334,11.116197916666666,63.85922016435841
1372752505.75,0.19033866666666666,31.67,69.60000000853334,11.061874999999999,63.85922016435841
1372752506.0,0.190392,31.67,69.61666666666667,10.456067708333334,63.85922016435841
1372752506.25,0.19044533333333336,31.67,69.63666665642667,10.412213541666667,63.85922016435841
1372752506.5,0.19044533333333336,31.67,69.65666666666667,10.552682291666665,63.85922016435841
1372752506.75,0.19049866666666668,31.66916666666667,69.67666667690668,9.969244791666666,63.85922016435841
1372752507.0,0.19060533333333332,31.6675,69.69666666666667,9.864088541666666,63.85922016435841
1372752507.25,0.19065866666666667,31.665833333333335,69.71666665642667,10.1590625,63.85922016435841
1372752507.5,0.190712,31.66416666666667,69.73666666666666,9.681875,63.85922016435841
1372752507.75,0.190712,31.662499999999998,69.75666667690666,9.448072916666666,63.85922016435841
1372752508.0,0.190712,31.660833333333333,69.77666666666666,9.909661458333334,63.85922016435841
1372752508.25,0.190712,31.659166666666664,69.79749998933333,9.6815625,63.85922016435841
1372752508.5,0.19065866666666664,31.657500000000002,69.81833333333333,9.236302083333333,63.85922016435841
1372752508.75,0.19055199999999997,31.655833333333334,69.83916667733332,9.711067708333333,63.85922016435841
1372752509.0,0.19044533333333333,31.654166666666665,69.86,9.866223958333334,63.85922016435841
1372752509.25,0.19033866666666666,31.6525,69.88166665557334,9.270052083333335,63.85922016435841
1372752509.5,0.19023199999999998,31.650833333333335,69.90333333333334,9.479427083333334,63.85922016435841
1372752509.75,0.19012533333333329,31.650833333333335,69.92500001109333,9.974348958333334,63.85922016435841
1372752510.0,0.19001866666666664,31.6525,69.94666666666667,9.417161458333334,63.85922016435841
1372752510.25,0.18991199999999997,31.654166666666665,69.96916665514668,9.45,63.85922016435841
1372752510.5,0.1898053333333333,31.655833333333334,69.99166666666667,10.138697916666667,63.85922016435841
1372752510.75,0.18969866666666665,31.657500000000002,70.01416667818667,9.927734375000002,63.85922016435841
1372752511.0,0.18959199999999998,31.659166666666664,70.03666666666668,9.833515625,63.85922016435841
1372752511.25,0.1894853333333333,31.660833333333333,70.05833332224,10.687578125,63.85922016435841
1372752511.5,0.1894853333333333,31.662499999999998,70.08000000000001,10.762578125,63.85922016435841
1372752511.75,0.18953866666666666,31.66416666666667,70.10166667776001,10.3228125,63.86292953565857
1372752512.0,0.18964533333333333,31.665833333333335,70.12333333333333,10.761692708333335,63.8674949157203
1372752512.25,0.189752,31.6675,70.14249999018666,11.07453125,63.872060295782035
1372752512.5,0.18985866666666665,31.66916666666667,70.16166666666666,10.702317708333332,63.87662567584376
1372752512.75,0.18996533333333335,31.669166666666666,70.18083334314667,10.912682291666668,63.8811910559055
1372752513.0,0.19007200000000002,31.667500000000004,70.2,11.509036458333332,63.88575643596723
1372752513.25,0.1901786666666667,31.665833333333335,70.21749999104,11.207890625,63.887468453490364
1372752513.5,0.19028533333333333,31.66416666666667,70.235,11.160677083333335,63.88746845349038
1372752513.75,0.190392,31.66333333333333,70.25250000896,11.597109375,63.887468453490364
1372752514.0,0.19049866666666668,31.663333333333338,70.27,11.186250000000001,63.887468453490364
1372752514.25,0.19060533333333332,31.663333333333338,70.28666665813333,10.746276041666667,63.887468453490364
1372752514.5,0.19065866666666667,31.66333333333333,70.30333333333334,11.138020833333334,63.887468453490364
1372752514.75,0.190712,31.66333333333333,70.32000000853334,11.242604166666668,63.88375908219021
1372752515.0,0.190712,31.663333333333338,70.33666666666667,11.129375000000001,63.879193702128475
1372752515.25,0.190712,31.663333333333338,70.3533333248,11.480755208333333,63.87462832206675
1372752515.5,0.19065866666666664,31.66333333333333,70.37,11.604687499999999,63.87006294200501
1372752515.75,0.19055199999999997,31.66416666666667,70.3866666752,11.351588541666665,63.86549756194329
1372752516.0,0.19044533333333333,31.665833333333335,70.40333333333334,11.459791666666668,63.86093218188156
1372752516.25,0.19039199999999998,31.667500000000004,70.41999999146667,11.685651041666667,63.85922016435841
1372752516.5,0.19039199999999998,31.669166666666666,70.43666666666667,11.495520833333332,63.85922016435841
1372752516.75,0.19039199999999998,31.66916666666667,70.45333334186668,11.507890625000002,63.85922016435841
1372752517.0,0.19039199999999998,31.6675,70.47000000000001,11.878255208333334,63.85922016435841
1372752517.25,0.19033866666666666,31.665833333333335,70.48833332394668,11.819010416666666,63.85922016435841
1372752517.5,0.1902853333333333,31.66416666666667,70.50666666666667,11.633151041666666,63.85922016435841
1372752517.75,0.19023199999999996,31.662499999999998,70.52500000938667,11.662057291666665,63.85922016435841
1372752518.0,0.19023199999999996,31.660833333333333,70.54333333333334,11.407109375,63.85922016435841
1372752518.25,0.19023199999999996,31.659166666666664,70.57499998378667,11.225625,63.85922016435841
1372752518.5,0.19028533333333333,31.657500000000002,70.60666666666667,11.278229166666668,63.85922016435841
1372752518.75,0.19044533333333333,31.655833333333334,70.63833334954667,11.155156250000003,63.85922016435841
1372752519.0,0.19060533333333332,31.654166666666665,70.67,10.936067708333333,63.85922016435841
1372752519.25,0.19065866666666667,31.6525,70.71083331242667,10.907760416666667,63.85922016435841
1372752519.5,0.19065866666666667,31.650833333333335,70.75166666666667,10.868932291666667,63.85922016435841
1372752519.75,0.190712,31.65,70.79250002090666,10.702682291666667,63.85922016435841
1372752520.0,0.190712,31.65,70.83333333333333,10.64203125,63.85922016435841
1372752520.25,0.19076533333333331,31.65,70.88749997226667,10.603619791666667,63.85922016435841
1372752520.5,0.19081866666666666,31.65,70.94166666666666,10.610963541666665,63.85922016435841
1372752520.75,0.19087199999999996,31.65,70.99583336106666,10.718307291666667,63.85922016435841
1372752521.0,0.19087199999999996,31.65,71.05,10.871614583333333,63.85922016435841
1372752521.25,0.19087199999999996,31.65,71.10249997312,10.858255208333333,63.85922016435841
1372752521.5,0.19087199999999996,31.65,71.155,10.934114583333333,63.85922016435841
1372752521.75,0.19081866666666666,31.650833333333335,71.20750002688,11.097447916666665,63.85922016435841
1372752522.0,0.19076533333333331,31.6525,71.26,11.16015625,63.85922016435841
1372752522.25,0.19076533333333331,31.654166666666665,71.31749997056001,11.223072916666666,63.85922016435841
1372752522.5,0.19076533333333331,31.655833333333334,71.375,11.185572916666665,63.85922016435841
1372752522.75,0.190712,31.657500000000002,71.43250002943999,11.242161458333333,63.85922016435841
1372752523.0,0.190712,31.659166666666664,71.49,11.405572916666666,63.85922016435841
1372752523.25,0.190712,31.660833333333333,71.54416663893333,11.291588541666668,63.85922016435841
1372752523.5,0.190712,31.662499999999998,71.59833333333333,11.189791666666666,63.85922016435841
1372752523.75,0.190712,31.66416666666667,71.65250002773332,11.624557291666667,63.85922016435841
1372752524.0,0.190712,31.665833333333335,71.70666666666666,11.673177083333334,63.85922016435841
1372752524.25,0.190712,31.6675,71.75249997653333,11.211822916666664,63.85922016435841
1372752524.5,0.190712,31.66916666666667,71.79833333333333,10.69078125,63.85922016435841
1372752524.75,0.19076533333333334,31.669166666666666,71.84416669013333,9.688203125,63.85922016435841
1372752525.0,0.19081866666666666,31.667500000000004,71.89,8.4940625,63.85922016435841
1372752525.25,0.1909253333333333,31.665833333333335,71.92416664917333,7.904739583333332,63.86606572154964
1372752525.5,0.191032,31.66416666666667,71.95833333333333,7.258333333333333,63.87649513220191
1372752525.75,0.19113866666666668,31.662499999999998,71.99250001749333,6.150677083333334,63.89139854422811
1372752526.0,0.19124533333333335,31.660833333333333,72.02666666666666,5.418802083333333,63.90809155680392
1372752526.25,0.191352,31.659166666666668,72.05166665386666,5.0253125,63.9238897691049
1372752526.5,0.19145866666666667,31.6575,72.07666666666665,4.052708333333333,63.941477581955496
1372752526.75,0.19156533333333334,31.65583333333333,72.10166667946666,2.539192708333333,63.95906539480607
1372752527.0,0.19167199999999998,31.65416666666667,72.12666666666667,1.7053124999999998,63.97665320765665
1372752527.25,0.19177866666666665,31.6525,72.15083332096,1.4426041666666667,63.99424102050724
1372752527.5,0.19188533333333335,31.650833333333335,72.175,2.059739583333333,64.01182883335782
1372752527.75,0.19193866666666667,31.65,72.19916667903999,3.328671875,64.0294166462084
1372752528.0,0.191992,31.65,72.22333333333333,4.508958333333333,64.04655705892158
1372752528.25,0.191992,31.65,72.24833332053333,4.743072916666667,64.05014091238262
1372752528.5,0.191992,31.65,72.27333333333334,5.0275260416666665,64.05014091238262
1372752528.75,0.191992,31.65,72.29833334613333,5.678593750000001,64.04566691100867
1372752529.0,0.191992,31.65,72.32333333333334,5.785234374999999,64.03940330908513
1372752529.25,0.191992,31.65,72.35083331925334,5.8218749999999995,64.0340345074364
1372752529.5,0.191992,31.65,72.37833333333333,6.648307291666666,64.02687610523809
1372752529.75,0.191992,31.65,72.40583334741333,7.344192708333334,64.01971770303976
1372752530.0,0.19204533333333332,31.65,72.43333333333334,7.461796875,64.01255930084145
1372752530.25,0.19209866666666667,31.65,72.46333331797334,7.810078125,64.00540089864313
1372752530.5,0.192152,31.65,72.49333333333334,7.1567187500000005,63.99824249644481
1372752530.75,0.1922053333333333,31.650833333333335,72.52333334869334,6.2421614583333325,63.99108409424648
1372752531.0,0.19225866666666666,31.6525,72.55333333333334,5.981119791666667,63.984373092185564
1372752531.25,0.1923653333333333,31.654166666666665,72.58583331669334,6.263125,63.984373092185564
1372752531.5,0.192472,31.655833333333334,72.61833333333334,6.751171875,63.984373092185564
1372752531.75,0.19252533333333333,31.657500000000002,72.65083334997334,7.2775,63.984373092185564
1372752532.0,0.19257866666666668,31.659166666666664,72.68333333333334,7.775104166666668,63.984373092185564
1372752532.25,0.19263200000000003,31.660833333333333,72.7166666496,8.324270833333333,63.984373092185564
1372752532.5,0.19273866666666664,31.662499999999998,72.75,8.490546875,63.984373092185564
1372752532.75,0.192792,31.66333333333333,72.7833333504,8.627135416666667,63.984373092185564
1372752533.0,0.192792,31.663333333333338,72.81666666666666,9.031041666666667,63.984373092185564
1372752533.25,0.192792,31.66333333333333,72.84999998293333,9.01625,63.984373092185564
1372752533.5,0.1928453333333333,31.663333333333338,72.88333333333333,9.012994791666666,63.984373092185564
1372752533.75,0.1928986666666667,31.662499999999998,72.91666668373333,9.057421875000001,63.984373092185564
1372752534.0,0.192952,31.660833333333333,72.94999999999999,8.637031250000001,63.984373092185564
1372752534.25,0.192952,31.659166666666668,72.98333331626665,8.013489583333333,63.984373092185564
1372752534.5,0.19295199999999998,31.6575,73.01666666666665,7.322552083333334,63.984373092185564
1372752534.75,0.19300533333333333,31.65583333333333,73.05000001706667,6.509973958333333,63.984373092185564
1372752535.0,0.19305866666666668,31.65416666666667,73.08333333333333,5.824869791666667,63.984373092185564
1372752535.25,0.19311199999999998,31.6525,73.11833331541334,5.166067708333334,63.984373092185564
1372752535.5,0.19311199999999998,31.650833333333335,73.15333333333334,4.535052083333333,63.99108409424648
1372752535.75,0.19316533333333333,31.651666666666667,73.18833335125333,4.017942708333333,63.99824249644481
1372752536.0,0.19321866666666668,31.654999999999998,73.22333333333334,3.539140625,64.00540089864312
1372752536.25,0.193272,31.65833333333333,73.26083331413334,3.1816927083333333,64.01377792336196
1372752536.5,0.193272,31.66166666666666,73.29833333333335,3.0390104166666667,64.0274356456697
1372752536.75,0.193272,31.66333333333333,73.33583335253334,2.9753906249999997,64.04109336797745
1372752537.0,0.193272,31.663333333333338,73.37333333333333,2.974140625,64.05519734888482
1372752537.25,0.193272,31.66333333333333,73.41333331285334,3.015833333333333,64.07019384699144
1372752537.5,0.193272,31.66333333333333,73.45333333333333,3.0865104166666666,64.08385156929918
1372752537.75,0.193272,31.663333333333338,73.49333335381333,3.18734375,64.09750929160694
1372752538.0,0.193272,31.66333333333333,73.53333333333333,3.253177083333334,64.11116701391468
1372752538.25,0.19332533333333335,31.663333333333338,73.57499997866667,3.456067708333333,64.12482473622242
1372752538.5,0.19343200000000002,31.66333333333333,73.61666666666667,3.8339322916666667,64.13055283394873
1372752538.75,0.19353866666666666,31.661666666666665,73.65833335466667,4.297369791666667,64.13055283394873
1372752539.0,0.19364533333333334,31.658333333333335,73.7,5.038619791666666,64.12831583326177
1372752539.25,0.194018625,31.655,73.74166664533334,5.62765625,64.11993880854293
1372752539.5,0.19465854166666666,31.65166666666666,73.78333333333333,5.781666666666666,64.10628108623517
1372752539.75,0.1953517916666667,31.65,73.82500002133332,6.3228125,64.09262336392743
1372752540.0,0.19609837499999996,31.65,73.86666666666666,6.852187499999999,64.07851938302007
1372752540.25,0.19689829166666664,31.65,73.91249997653333,7.161067708333333,64.06352288491344
1372752540.5,0.19775154166666667,31.65,73.95833333333333,7.981145833333334,64.04986516260568
1372752540.75,0.19860479166666667,31.65,74.00416669013333,8.43734375,64.03620744029794
1372752541.0,0.19945804166666667,31.65,74.05,8.890390625,64.0225497179902
1372752541.25,0.2002579583333333,31.65,74.09999997439999,9.545,64.00889199568246
1372752541.5,0.20100454166666668,31.65,74.15,9.58375,63.996452895895224
1372752541.75,0.201751125,31.65,74.2000000256,9.9440625,63.98929449369691
1372752542.0,0.20249770833333333,31.65,74.25,10.134192708333334,63.984373092185564
1372752542.25,0.20297766666666664,31.65,74.30583330474667,10.27546875,63.984373092185564
1372752542.5,0.203191,31.65,74.36166666666668,11.196562499999999,63.984373092185564
1372752542.75,0.20335099999999998,31.65,74.41750002858667,11.599973958333335,63.984373092185564
1372752543.0,0.20345766666666668,31.65,74.47333333333334,11.725182291666668,63.984373092185564
1372752543.25,0.203511,31.65,74.52999997098668,12.342708333333333,63.984373092185564
1372752543.5,0.203511,31.65,74.58666666666667,12.275625,63.984373092185564
1372752543.75,0.203511,31.65,74.64333336234667,12.391640625,63.984373092185564
1372752544.0,0.203511,31.65,74.7,12.780598958333334,63.984373092185564
1372752544.25,0.203511,31.65,74.75916663637334,12.617838541666666,63.984373092185564
1372752544.5,0.203511,31.65,74.81833333333333,12.840338541666668,63.984373092185564
1372752544.75,0.203511,31.65,74.87750003029333,12.698880208333334,63.984373092185564
1372752545.0,0.20345766666666665,31.65,74.93666666666667,12.40328125,63.984373092185564
1372752545.25,0.20340433333333333,31.65,74.99666663594667,12.251822916666667,63.984373092185564
1372752545.5,0.20335099999999998,31.65,75.05666666666667,11.652109375,63.984373092185564
1372752545.75,0.20329766666666668,31.65,75.11666669738668,11.178619791666664,63.985715292597746
1372752546.0,0.20329766666666668,31.65,75.17666666666668,10.976640625,63.99287369479607
1372752546.25,0.20329766666666668,31.65,75.23833330176001,10.456302083333332,64.00003209699439
1372752546.5,0.20329766666666668,31.65,75.30000000000001,10.163177083333332,64.0071904991927
1372752546.75,0.20329766666666668,31.650833333333328,75.36166669824001,10.030364583333332,64.01434890139102
1372752547.0,0.20329766666666668,31.6525,75.42333333333335,9.614817708333332,64.02150730358935
1372752547.25,0.20335100000000003,31.654166666666665,75.48499996842668,9.508776041666666,64.02866570578766
1372752547.5,0.20340433333333333,31.655833333333334,75.54666666666668,9.488776041666666,64.03582410798599
1372752547.75,0.20345766666666668,31.6575,75.60833336490667,9.439609375,64.0429825101843
1372752548.0,0.20356433333333335,31.659166666666664,75.67,9.532083333333334,64.05014091238262
1372752548.25,0.2037243333333333,31.660833333333333,75.732499968,9.688177083333333,64.05729931458093
1372752548.5,0.20388433333333333,31.662500000000005,75.795,9.821510416666667,64.06445771677926
1372752548.75,0.20404433333333336,31.664166666666663,75.857500032,10.141692708333332,64.07027391856539
1372752549.0,0.20415099999999997,31.665833333333335,75.92,10.564010416666667,64.07741975273838
1372752549.25,0.20425766666666667,31.667500000000004,75.97916663637334,10.925182291666667,64.09105921044184
1372752549.5,0.20436433333333334,31.66916666666667,76.03833333333333,10.836067708333333,64.1046986681453
1372752549.75,0.20447099999999999,31.66916666666667,76.09750003029332,10.776614583333332,64.11833812584877
1372752550.0,0.20457766666666666,31.667500000000004,76.15666666666665,10.858098958333334,64.13197758355221
1372752550.25,0.204631,31.665833333333335,76.21333330431999,10.591770833333333,64.14561704125568
1372752550.5,0.20468433333333333,31.664166666666663,76.26999999999998,10.379427083333335,64.15925649895914
1372752550.75,0.20473766666666668,31.662500000000005,76.32666669567999,10.330598958333335,64.1728959566626
1372752551.0,0.204791,31.660833333333333,76.38333333333333,9.912708333333333,64.18653541436605
1372752551.25,0.204791,31.659166666666664,76.43749997226665,9.624270833333334,64.20017487206951
1372752551.5,0.204791,31.6575,76.49166666666665,9.517890625,64.21381432977297
1372752551.75,0.20473766666666668,31.655833333333334,76.54583336106666,8.925625,64.22745378747643
1372752552.0,0.20468433333333336,31.65416666666667,76.59999999999998,8.448854166666667,64.2339474110069
1372752552.25,0.204631,31.6525,76.65416663893332,8.0803125,64.2339474110069
1372752552.5,0.2045243333333333,31.650833333333328,76.70833333333331,8.014088541666668,64.2339474110069
1372752552.75,0.2044176666666667,31.65,76.76250002773332,8.364427083333334,64.2339474110069
1372752553.0,0.204311,31.65,76.81666666666666,8.515755208333333,64.2339474110069
1372752553.25,0.20420433333333332,31.65,76.87249997141333,8.83390625,64.2339474110069
1372752553.5,0.20409766666666665,31.65,76.92833333333334,9.469401041666666,64.2339474110069
1372752553.75,0.203991,31.65,76.98416669525334,9.810104166666667,64.2339474110069
1372752554.0,0.20388433333333333,31.65,77.04,10.409817708333334,64.2339474110069
1372752554.25,0.20377766666666666,31.65,77.09416663893334,11.134635416666669,64.2339474110069
1372752554.5,0.20367099999999996,31.65,77.14833333333334,11.555859375000002,64.2339474110069
1372752554.75,0.20367099999999996,31.65,77.20250002773334,12.246979166666668,64.2339474110069
1372752555.0,0.20367099999999996,31.65,77.25666666666667,12.740494791666665,64.2339474110069
1372752555.25,0.20361766666666667,31.65,77.31083330560001,13.094817708333332,64.2339474110069
1372752555.5,0.20361766666666667,31.65,77.36500000000001,13.472838541666668,64.2339474110069
1372752555.75,0.20361766666666667,31.65,77.4191666944,13.363802083333333,64.2339474110069
1372752556.0,0.20361766666666667,31.65,77.47333333333334,13.416223958333333,64.2339474110069
1372752556.25,0.20361766666666667,31.65,77.52416664064,13.527526041666667,64.2339474110069
1372752556.5,0.20361766666666667,31.65,77.575,13.030208333333333,64.2339474110069
1372752556.75,0.20361766666666667,31.65,77.62583335936,12.864791666666667,64.2339474110069
1372752557.0,0.20361766666666667,31.65,77.67666666666666,12.733255208333334,64.2339474110069
1372752557.25,0.20361766666666667,31.65,77.72499997525333,11.975546875,64.22993108361025
1372752557.5,0.20361766666666667,31.65,77.77333333333334,11.612760416666665,64.22279094601622
1372752557.75,0.20356433333333335,31.65,77.82166669141334,11.480130208333334,64.21565080842218
1372752558.0,0.203511,31.65,77.87,10.879479166666668,64.20851067082815
1372752558.25,0.203511,31.65,77.91499997696,10.563776041666666,64.20137053323411
1372752558.5,0.203511,31.65,77.96000000000001,10.725546875,64.18911249253252
1372752558.75,0.203511,31.65,78.00500002304,10.438307291666666,64.17567624982483
1372752559.0,0.203511,31.65,78.05,10.096197916666666,64.162199364118
1372752559.25,0.203511,31.65,78.09166664533333,10.08859375,64.14872247841116
1372752559.5,0.203511,31.65,78.13333333333333,10.061197916666666,64.1350830207077
1372752559.75,0.203511,31.65,78.17500002133332,9.903984375,64.1165221614929
1372752560.0,0.203511,31.65,78.21666666666665,10.082161458333333,64.09572430159112
1372752560.25,0.203511,31.65,78.25666664618666,10.613125000000002,64.07894276908597
1372752560.5,0.203511,31.65,78.29666666666665,10.956640625,64.07040966328536
1372752560.75,0.203511,31.65,78.33666668714666,11.1303125,64.06456063116241
1372752561.0,0.203511,31.65,78.37666666666667,11.772005208333333,64.05871159903947
1372752561.25,0.203511,31.65,78.41499998037334,12.255755208333333,64.05286256691653
1372752561.5,0.203511,31.65,78.45333333333335,12.316432291666667,64.05213143790117
1372752561.75,0.20345766666666665,31.65,78.49166668629334,12.858359375,64.05257851089186
1372752562.0,0.20345766666666668,31.65,78.53000000000002,13.374244791666667,64.05306622688173
1372752562.25,0.20345766666666665,31.65,78.56333331626668,13.7578125,64.05355394287159
1372752562.5,0.20345766666666668,31.65,78.59666666666668,14.300052083333334,64.05420423085806
1372752562.75,0.20345766666666665,31.64916666666667,78.63000001706668,14.680390625000001,64.06087261387894
1372752563.0,0.20345766666666668,31.647499999999997,78.66333333333334,14.753307291666665,64.0745303361867
1372752563.25,0.20345766666666665,31.645833333333332,78.69249998506668,14.704140624999999,64.08818805849444
1372752563.5,0.20345766666666668,31.644166666666667,78.72166666666666,14.499817708333333,64.09672116429506
1372752563.75,0.20345766666666665,31.6425,78.75083334826665,14.549348958333335,64.102570196418
1372752564.0,0.20345766666666668,31.640833333333333,78.77999999999999,14.603463541666668,64.10841922854094
1372752564.25,0.20340433333333333,31.639166666666664,78.80416665429333,13.947239583333333,64.11426826066389
1372752564.5,0.20335100000000003,31.6375,78.82833333333332,13.486380208333335,64.12011729278683
1372752564.75,0.20335100000000003,31.636666666666667,78.85250001237333,13.661953125000002,64.12596632490978
1372752565.0,0.20324433333333333,31.636666666666667,78.87666666666667,13.260520833333333,64.13181535703272
1372752565.25,0.20313766666666666,31.636666666666667,78.89749998933333,12.369635416666666,64.13766438915566
1372752565.5,0.203031,31.636666666666667,78.91833333333332,12.320286458333333,64.14351342127861
1372752565.75,0.20292433333333335,31.6375,78.93916667733333,11.988619791666666,64.1482657598785
1372752566.0,0.20281766666666667,31.639166666666664,78.96,11.230911458333333,64.1482657598785
1372752566.25,0.202711,31.640833333333333,78.97583332522666,11.273203125000002,64.1482657598785
1372752566.5,0.2026043333333333,31.6425,78.99166666666666,11.300911458333333,64.1482657598785
1372752566.75,0.2024976666666667,31.644166666666663,79.00750000810666,10.383567708333333,64.1482657598785
1372752567.0,0.202391,31.645833333333332,79.02333333333333,9.982239583333333,64.1482657598785
1372752567.25,0.20233766666666664,31.647499999999997,79.03249999530667,10.573776041666667,64.1482657598785
1372752567.5,0.20228433333333332,31.649166666666662,79.04166666666666,10.485494791666667,64.1482657598785
1372752567.75,0.202231,31.65,79.05083333802665,9.692708333333334,64.1482657598785
1372752568.0,0.202231,31.65,79.05999999999999,9.904791666666666,64.1482657598785
1372752568.25,0.202231,31.65,79.06583333034666,10.158645833333333,64.1482657598785
1372752568.5,0.202231,31.65,79.07166666666666,9.282005208333333,64.1482657598785
1372752568.75,0.202231,31.650833333333328,79.07750000298665,9.259869791666667,64.1482657598785
1372752569.0,0.202231,31.6525,79.08333333333333,9.684427083333333,64.1482657598785
1372752569.25,0.202231,31.654166666666665,79.08583333205333,9.019088541666667,64.1482657598785
1372752569.5,0.202231,31.655833333333334,79.08833333333334,8.833984375,64.1482657598785
1372752569.75,0.202231,31.6575,79.09083333461334,9.433802083333333,64.1482657598785
1372752570.0,0.202231,31.659166666666664,79.09333333333333,9.112604166666667,64.1482657598785
1372752570.25,0.202231,31.660833333333333,79.09499999914667,8.767239583333334,64.1482657598785
1372752570.5,0.20228433333333332,31.662500000000005,79.09666666666666,9.037760416666666,64.1482657598785
1372752570.75,0.20260433333333336,31.66333333333333,79.09833333418666,9.248880208333333,64.1482657598785
1372752571.0,0.20313766666666666,31.663333333333338,79.1,9.1721875,64.1482657598785
1372752571.25,0.20367100000000002,31.66333333333333,79.10166666581333,9.454401041666667,64.1482657598785
1372752571.5,0.20425766666666667,31.66333333333333,79.10333333333332,10.114947916666667,64.1482657598785
1372752571.75,0.20489766666666664,31.662499999999998,79.10500000085334,10.307447916666668,64.1482657598785
1372752572.0,0.20553766666666665,31.660833333333333,79.10666666666667,10.396015625,64.1482657598785
1372752572.25,0.20617766666666668,31.659166666666668,79.10916666538667,10.8965625,64.1482657598785
1372752572.5,0.20681766666666665,31.6575,79.11166666666666,11.094140625,64.1482657598785
1372752572.75,0.20745766666666665,31.655833333333334,79.11416666794666,11.18296875,64.1482657598785
1372752573.0,0.20809766666666665,31.65416666666667,79.11666666666666,11.575338541666667,64.1482657598785
1372752573.25,0.20873766666666668,31.6525,79.1208333312,11.674322916666668,64.1482657598785
1372752573.5,0.20937766666666666,31.650833333333328,79.125,11.959895833333333,64.1482657598785
1372752573.75,0.209751,31.65,79.1291666688,12.064583333333331,64.1482657598785
1372752574.0,0.20991099999999996,31.65,79.13333333333334,11.862005208333331,64.1482657598785
1372752574.25,0.21012433333333333,31.65,79.13749999786667,11.965208333333331,64.1482657598785
1372752574.5,0.21028433333333332,31.65,79.14166666666667,11.769062499999999,64.1482657598785
1372752574.75,0.210391,31.650833333333328,79.14583333546666,11.325364583333332,64.1482657598785
1372752575.0,0.21044433333333334,31.6525,79.14999999999999,11.374010416666666,64.1482657598785
1372752575.25,0.21044433333333334,31.654166666666665,79.15416666453334,11.219973958333334,64.1482657598785
1372752575.5,0.21044433333333334,31.655833333333334,79.15833333333333,10.716901041666667,64.1482657598785
1372752575.75,0.21044433333333334,31.6575,79.16250000213333,10.557656249999999,64.1482657598785
1372752576.0,0.21044433333333332,31.659166666666664,79.16666666666667,10.511744791666667,64.1482657598785
1372752576.25,0.21044433333333332,31.660833333333333,79.1708333312,10.186562499999999,64.1482657598785
1372752576.5,0.210391,31.662500000000005,79.17500000000001,9.729843749999999,64.1482657598785
1372752576.75,0.21033766666666665,31.66333333333333,79.17916666880001,9.729427083333333,64.1482657598785
1372752577.0,0.21028433333333332,31.663333333333338,79.18333333333334,9.620520833333332,64.1482657598785
1372752577.25,0.21017766666666662,31.66333333333333,79.18833333077333,9.213906249999999,64.1482657598785
1372752577.5,0.21007099999999998,31.66333333333333,79.19333333333333,9.373776041666666,64.1482657598785
1372752577.75,0.2099643333333333,31.662499999999998,79.19833333589334,9.423177083333334,64.1482657598785
1372752578.0,0.209911,31.660833333333333,79.20333333333333,9.015078125,64.1482657598785
1372752578.25,0.209911,31.659166666666668,79.20916666368001,9.22390625,64.1482657598785
1372752578.5,0.20985766666666664,31.6575,79.215,9.517291666666667,64.1482657598785
1372752578.75,0.209751,31.655833333333334,79.22083333632,9.331510416666665,64.1482657598785
1372752579.0,0.20964433333333332,31.65416666666667,79.22666666666667,9.466536458333334,64.1482657598785
1372752579.25,0.20953766666666665,31.6525,79.2308333312,9.69390625,64.1482657598785
1372752579.5,0.209431,31.650833333333328,79.23500000000001,9.360807291666667,64.1482657598785
1372752579.75,0.20932433333333333,31.65,79.23916666880001,9.358255208333334,64.1482657598785
1372752580.0,0.20921766666666666,31.65,79.24333333333334,9.713567708333334,64.1482657598785
1372752580.25,0.20911100000000002,31.65,79.24499999914667,9.437265625,64.1482657598785
1372752580.5,0.208951,31.65,79.24666666666667,9.029010416666667,64.1482657598785
1372752580.75,0.20879100000000003,31.65,79.24833333418667,9.454401041666667,64.1482657598785
1372752581.0,0.2085776666666667,31.65,79.25,9.480729166666666,64.1482657598785
1372752581.25,0.20836433333333337,31.65,79.24750000128,8.837265624999999,64.1482657598785
1372752581.5,0.20820433333333332,31.65,79.245,8.983958333333334,64.1482657598785
1372752581.75,0.20809766666666665,31.65,79.24249999871999,8.955234375000002,64.1482657598785
1372752582.0,0.207991,31.65,79.24,8.171354166666667,64.1482657598785
1372752582.25,0.20788433333333334,31.65,79.23166667093332,8.132005208333334,64.1482657598785
1372752582.5,0.20777766666666667,31.65,79.22333333333333,8.477760416666666,64.1482657598785
1372752582.75,0.20767100000000002,31.65,79.21499999573334,7.818489583333332,64.1482657598785
1372752583.0,0.20761766666666667,31.65,79.20666666666666,7.364921875,64.1482657598785
1372752583.25,0.20761766666666667,31.65,79.19250000725333,7.780885416666667,64.1482657598785
1372752583.5,0.20767100000000002,31.65,79.17833333333333,7.635885416666667,64.1482657598785
1372752583.75,0.20772433333333332,31.65,79.16416665941333,6.999895833333333,64.1482657598785
1372752584.0,0.207831,31.65,79.14999999999999,7.105182291666668,64.1482657598785
1372752584.25,0.20793766666666666,31.65,79.13333334186666,7.328489583333333,64.1482657598785
1372752584.5,0.20804433333333336,31.65,79.11666666666666,6.982109374999999,64.1482657598785
1372752584.75,0.2080976666666667,31.65,79.09999999146666,7.213854166666667,64.1482657598785
1372752585.0,0.20820433333333335,31.65,79.08333333333333,7.886276041666666,64.1482657598785
1372752585.25,0.20831100000000002,31.65,79.0666666752,8.059973958333334,64.1482657598785
1372752585.5,0.2084176666666667,31.65,79.05,8.328333333333335,64.1482657598785
1372752585.75,0.20852433333333334,31.65,79.0333333248,9.17734375,64.1482657598785
1372752586.0,0.20852433333333334,31.65,79.01666666666667,9.790104166666666,64.1482657598785
1372752586.25,0.2084176666666667,31.65,79.00333334016,9.987604166666666,64.1482657598785
1372752586.5,0.20831100000000002,31.65,78.99,10.765651041666667,64.1482657598785
1372752586.75,0.20820433333333335,31.649166666666662,78.97666665983999,11.583776041666667,64.1482657598785
1372752587.0,0.2080976666666667,31.647499999999997,78.96333333333332,11.791197916666667,64.1482657598785
1372752587.25,0.20799100000000004,31.64583333333333,78.95333333845333,12.350911458333334,64.1482657598785
1372752587.5,0.20788433333333334,31.644166666666663,78.94333333333333,12.867291666666667,64.1482657598785
1372752587.75,0.207831,31.6425,78.93333332821334,12.804166666666667,64.1482657598785
1372752588.0,0.20772433333333332,31.64083333333333,78.92333333333335,12.817161458333333,64.1482657598785
1372752588.25,0.20761766666666667,31.639166666666668,78.91916666880002,12.304557291666667,64.1482657598785
1372752588.5,0.207511,31.637500000000003,78.91500000000002,11.538619791666667,64.1482657598785
1372752588.75,0.20740433333333333,31.635833333333334,78.91083333120001,10.904244791666668,64.1482657598785
1372752589.0,0.207351,31.63416666666667,78.90666666666668,10.089713541666667,64.1482657598785
1372752589.25,0.207351,31.632499999999997,78.90749999957335,9.333333333333334,64.1482657598785
1372752589.5,0.207351,31.63083333333333,78.90833333333335,8.532526041666667,64.1482657598785
1372752589.75,0.207351,31.63,78.90916666709334,7.536067708333333,64.1482657598785
1372752590.0,0.207351,31.63,78.91000000000001,6.896901041666666,64.1482657598785
1372752590.25,0.207351,31.63,78.91583333034667,6.044270833333332,64.1482657598785
1372752590.5,0.20729766666666669,31.63,78.92166666666668,5.133697916666667,64.1482657598785
1372752590.75,0.20724433333333336,31.63083333333333,78.92750000298668,4.658932291666667,64.1482657598785
1372752591.0,0.20724433333333336,31.632499999999997,78.93333333333334,3.9809114583333334,64.1482657598785
1372752591.25,0.20724433333333334,31.634166666666662,78.94416666112001,3.876848958333333,64.1482657598785
1372752591.5,0.20719100000000001,31.635833333333334,78.95500000000001,4.083932291666667,64.1482657598785
1372752591.75,0.20719100000000001,31.6375,78.96583333888,3.9695312500000006,64.1482657598785
1372752592.0,0.207191,31.639166666666664,78.97666666666667,4.196223958333333,64.1482657598785
1372752592.25,0.20713766666666666,31.640833333333333,78.99249999189334,4.5809114583333335,64.1482657598785
1372752592.5,0.20708433333333334,31.6425,79.00833333333334,4.571979166666667,64.14424455029398
1372752592.75,0.207031,31.644166666666663,79.02416667477334,5.018984375,64.13839551817104
1372752593.0,0.2069776666666667,31.645833333333332,79.04,5.403359375000001,64.13254648604808
1372752593.25,0.206871,31.647499999999997,79.06166665557335,5.684244791666668,64.12669745392513
1372752593.5,0.20687100000000003,31.649166666666662,79.08333333333334,6.400572916666667,64.12084842180221
1372752593.75,0.20692433333333335,31.650833333333335,79.10500001109334,6.809270833333333,64.11499938967926
1372752594.0,0.20692433333333335,31.6525,79.12666666666668,7.427447916666668,64.10915035755632
1372752594.25,0.20687100000000003,31.65416666666667,79.15333331968002,8.189296875,64.10330132543338
1372752594.5,0.206871,31.655833333333334,79.18,8.552630208333333,64.09745229331043
1372752594.75,0.20676433333333333,31.6575,79.20666668032,9.157317708333332,64.09160326118749
1372752595.0,0.2066576666666667,31.659166666666668,79.23333333333333,9.689921875,64.08575422906453
1372752595.25,0.2066043333333333,31.660833333333333,79.26249998506667,9.815572916666667,64.0799051969416
1372752595.5,0.206551,31.662499999999998,79.29166666666666,10.3978125,64.07807737440318
1372752595.75,0.2064976666666667,31.663333333333338,79.32083334826666,10.848463541666666,64.07807737440318
1372752596.0,0.20644433333333334,31.66333333333333,79.35,11.044765625000002,64.07807737440318
1372752596.25,0.20644433333333334,31.663333333333338,79.37833331882666,11.462838541666665,64.07807737440318
1372752596.5,0.206391,31.663333333333338,79.40666666666667,11.609713541666666,64.07807737440318
1372752596.75,0.20628433333333332,31.662499999999998,79.43500001450666,11.792994791666667,64.07807737440318
1372752597.0,0.2061776666666667,31.660833333333333,79.46333333333332,11.899791666666667,64.07807737440318
1372752597.25,0.20617766666666668,31.659166666666664,79.48833332053333,11.743098958333334,64.07807737440318
1372752597.5,0.20623100000000003,31.6575,79.51333333333332,11.695703125000001,64.07807737440318
1372752597.75,0.206391,31.655833333333334,79.53833334613333,11.554322916666669,64.07807737440318
1372752598.0,0.2066043333333333,31.654166666666665,79.56333333333333,11.1409375,64.0820985839877
1372752598.25,0.20681766666666668,31.6525,79.58499998890666,10.8978125,64.08794761611065
1372752598.5,0.207031,31.650833333333335,79.60666666666665,10.466145833333334,64.09379664823358
1372752598.75,0.20724433333333334,31.649166666666662,79.62833334442666,9.884713541666667,64.09964568035653
1372752599.0,0.207511,31.647499999999997,79.64999999999999,9.512786458333332,64.10549471247947
1372752599.25,0.20783100000000002,31.64583333333333,79.67083332266667,9.098411458333333,64.11134374460242
1372752599.5,0.20825766666666667,31.644166666666663,79.69166666666666,8.574583333333333,64.11719277672536
1372752599.75,0.20916429166666664,31.642500000000002,79.71250001066666,8.152447916666667,64.1230418088483
1372752600.0,0.21049754166666665,31.640833333333333,79.73333333333333,7.803958333333333,64.12889084097125
1372752600.25,0.21183079166666666,31.639166666666668,79.74999999146667,7.345781250000001,64.13254664903761
1372752600.5,0.21311070833333332,31.6375,79.76666666666667,6.905364583333333,64.1325466490376
1372752600.75,0.21433729166666668,31.6375,79.78333334186667,6.321354166666667,64.1325466490376
1372752601.0,0.2155105416666667,31.639166666666668,79.8,5.842890625,64.12311705104084
1372752601.25,0.21668379166666665,31.640833333333333,79.80999999488,5.875963541666667,64.10758677375156
1372752601.5,0.21785704166666667,31.6425,79.82,5.8980468749999995,64.08920394068767
1372752601.75,0.21892362499999998,31.645,79.83000000511998,5.731197916666666,64.06185342256741
1372752602.0,0.21983020833333333,31.648333333333337,79.83999999999999,5.8589843749999995,64.03413559333013
1372752602.25,0.22063012499999998,31.65166666666667,79.84249999871999,5.6476041666666665,64.00482608258578
1372752602.5,0.22127004166666667,31.655,79.845,4.895885416666666,63.97551657184144
1372752602.75,0.22143000000000002,31.657500000000002,79.84750000128,4.0559375,63.94620706109709
1372752603.0,0.22116333333333335,31.659166666666664,79.85,3.1064062499999996,63.916897550352736
1372752603.25,0.22079000000000001,31.660833333333333,79.84833333418666,2.298125,63.889781263664986
1372752603.5,0.22036333333333336,31.662499999999998,79.84666666666666,1.9569270833333334,63.86632078504358
1372752603.75,0.21993666666666667,31.662499999999998,79.84499999914667,2.8456770833333334,63.842860306422175
1372752604.0,0.21945670833333333,31.660833333333333,79.84333333333333,3.5346354166666667,63.82480821621302
1372752604.25,0.21892345833333335,31.659166666666664,79.83083333973333,2.9777083333333327,63.81102898275793
1372752604.5,0.21839020833333334,31.6575,79.81833333333333,2.9557291666666665,63.800102305077495
1372752604.75,0.21796362500000002,31.655833333333334,79.80583332693334,3.5468489583333334,63.7981433124534
1372752605.0,0.21764370833333332,31.654166666666665,79.79333333333334,2.9800520833333333,63.796551630946325
1372752605.25,0.21737712500000003,31.6525,79.77000001194666,3.359375,63.796551630946325
1372752605.5,0.217163875,31.650833333333335,79.74666666666667,4.886067708333333,63.796551630946325
1372752605.75,0.21695062499999998,31.65,79.72333332138666,6.450130208333333,63.79899782142025
1372752606.0,0.21668404166666666,31.65,79.69999999999999,7.689713541666666,63.81204417061456
1372752606.25,0.21641745833333334,31.65,79.66416668501333,9.176614583333334,63.825090519808846
1372752606.5,0.21620420833333334,31.65,79.62833333333333,10.25703125,63.83813686900316
1372752606.75,0.21593762500000002,31.65,79.59249998165333,9.897161458333333,63.85118321819746
1372752607.0,0.21567099999999997,31.65,79.55666666666667,9.973411458333333,63.86422956739175
1372752607.25,0.21545766666666666,31.65,79.51750002005333,10.867552083333335,63.87727591658606
1372752607.5,0.21524433333333334,31.65,79.47833333333334,10.94703125,63.890322265780355
1372752607.75,0.21503099999999997,31.65,79.43916664661334,10.582708333333334,63.90336861497465
1372752608.0,0.21481766666666668,31.65,79.4,11.130651041666667,63.91641496416896
1372752608.25,0.2146043333333333,31.65,79.35416669013334,10.901744791666667,63.92946131336325
1372752608.5,0.214391,31.65,79.30833333333334,10.187343750000002,63.94250766255755
1372752608.75,0.21423100000000003,31.65,79.26249997653332,9.629947916666667,63.953107821277925
1372752609.0,0.21417766666666668,31.65,79.21666666666665,9.430494791666666,63.953107821277925
1372752609.25,0.21417766666666668,31.65,79.16916669098666,8.862135416666666,63.94997022961429
1372752609.5,0.21417766666666663,31.65,79.12166666666667,8.290000000000001,63.94149374128932
1372752609.75,0.21423099999999998,31.650833333333335,79.07416664234667,7.908619791666667,63.932690814286694
1372752610.0,0.214391,31.6525,79.02666666666667,7.176380208333334,63.92066404200414
1372752610.25,0.21460433333333337,31.654166666666665,78.97250002773333,6.42203125,63.90324787148344
1372752610.5,0.21487095833333333,31.655833333333334,78.91833333333334,6.055260416666666,63.886117598143734
1372752610.75,0.21513758333333333,31.657500000000002,78.86416663893334,5.707395833333334,63.868415530442014
1372752611.0,0.2154575,31.659166666666664,78.81,5.271796875000001,63.8555722399434
1372752611.25,0.21593741666666666,31.660833333333333,78.75250002944,4.958541666666666,63.84644315467437
1372752611.5,0.21663066666666664,31.662499999999998,78.695,4.555859375,63.83731406940532
1372752611.75,0.21753725,31.66333333333333,78.63749997056,3.93765625,63.82818498413628
1372752612.0,0.21865716666666668,31.663333333333338,78.58,3.3371093750000003,63.81905589886725
1372752612.25,0.21983041666666667,31.66333333333333,78.52916669269334,2.919557291666667,63.81306440526185
1372752612.5,0.22100366666666668,31.663333333333338,78.47833333333332,2.6145052083333336,63.81241180831778
1372752612.75,0.22217691666666664,31.662499999999998,78.42749997397333,2.8001302083333335,63.812085650051365
1372752613.0,0.2232968333333333,31.660833333333333,78.37666666666667,3.27328125,63.816491478350976
1372752613.25,0.22436341666666668,31.659166666666668,78.33916668586667,3.803697916666667,63.82816163224363
1372752613.5,0.22537670833333334,31.6575,78.30166666666668,4.286302083333333,63.83860867977922
1372752613.75,0.22639,31.65583333333333,78.26416664746667,4.754322916666667,63.84718166221191
1372752614.0,0.22734999999999997,31.65416666666667,78.22666666666667,5.261354166666666,63.85089586744149
1372752614.25,0.22815,31.6525,78.205833344,5.775286458333333,63.85089586744149
1372752614.5,0.2287366666666667,31.650833333333328,78.185,6.543828125,63.827703121153405
1372752614.75,0.22900333333333334,31.64916666666667,78.164166656,7.544192708333334,63.790042793188725
1372752615.0,0.22895,31.647499999999997,78.14333333333333,8.192083333333333,63.75139685251489
1372752615.25,0.22884333333333332,31.645833333333332,78.12750000810667,8.536692708333334,63.712750911841034
1372752615.5,0.22873666666666667,31.644166666666667,78.11166666666666,8.790833333333333,63.674104971167175
1372752615.75,0.22863000000000003,31.6425,78.09583332522666,8.676718750000001,63.63545903049334
1372752616.0,0.22852333333333333,31.640833333333333,78.08,8.423255208333334,63.595304948533396
1372752616.25,0.22841666666666668,31.639166666666664,78.06916667221333,8.159374999999999,63.55327593921856
1372752616.5,0.22831,31.6375,78.05833333333334,7.710989583333333,63.51218413907978
1372752616.75,0.22820333333333334,31.635833333333334,78.04749999445335,7.067942708333334,63.473538198405926
1372752617.0,0.2280966666666667,31.634166666666662,78.03666666666668,6.597734374999999,63.43489225773209
1372752617.25,0.22804333333333335,31.632499999999997,78.03000000341333,6.0461197916666665,63.396246317058235
1372752617.5,0.22804333333333335,31.630833333333328,78.02333333333334,4.901041666666667,63.380793122672465
1372752617.75,0.2280966666666667,31.63,78.01666666325335,3.729270833333333,63.3798075099633
1372752618.0,0.22820333333333334,31.63,78.01,3.0476822916666664,63.3798075099633
1372752618.25,0.22831,31.63,78.00750000128001,2.6983333333333337,63.3798075099633
1372752618.5,0.22841666666666668,31.63,78.005,2.7026562500000004,63.3751178952191
1372752618.75,0.22852333333333333,31.63083333333333,78.00249999872,2.6333333333333333,63.36261225590123
1372752619.0,0.22863,31.632499999999997,78.0,2.503671875,63.35010661658338
1372752619.25,0.22873666666666667,31.63416666666667,78.00166666581333,2.6243489583333335,63.33760097726552
1372752619.5,0.22884333333333332,31.635833333333334,78.00333333333333,2.6955208333333336,63.32509533794765
1372752619.75,0.22889666666666666,31.6375,78.00500000085333,3.1865624999999995,63.312589698629786
1372752620.0,0.22889666666666666,31.639166666666668,78.00666666666666,3.575104166666667,63.30008405931192
1372752620.25,0.22884333333333337,31.640833333333333,78.01249999701332,3.9082552083333333,63.287578419994055
1372752620.5,0.22873666666666667,31.642500000000002,78.01833333333332,4.7800520833333335,63.2750727806762
1372752620.75,0.22863,31.644166666666667,78.02416666965333,5.389088541666666,63.262567141358325
1372752621.0,0.22852333333333333,31.64583333333333,78.02999999999999,5.702213541666667,63.250061502040474
1372752621.25,0.22841666666666668,31.647499999999997,78.04083332778666,5.99328125,63.237555862722616
1372752621.5,0.22831,31.649166666666662,78.05166666666665,5.788359374999999,63.229739838148944
1372752621.75,0.2282033333333333,31.65,78.06250000554665,5.720703125,63.229739838148944
1372752622.0,0.22809666666666664,31.65,78.07333333333332,5.700572916666666,63.229739838148944
1372752622.25,0.22799,31.65,78.09249999018665,5.201796875,63.229739838148944
1372752622.5,0.22788333333333333,31.65,78.11166666666665,4.882578124999999,63.229739838148944
1372752622.75,0.22783,31.65,78.13083334314666,4.348984375,63.229739838148944
1372752623.0,0.22788333333333333,31.65,78.14999999999999,3.586640625,63.229739838148944
1372752623.25,0.22793666666666668,31.65,78.17583332010666,2.9732291666666666,63.229739838148944
1372752623.5,0.22804333333333335,31.65,78.20166666666665,2.157942708333333,63.229739838148944
1372752623.75,0.22815,31.65,78.22750001322666,1.4247916666666667,63.229739838148944
1372752624.0,0.22831,31.65,78.25333333333333,0.876953125,63.229739838148944
1372752624.25,0.22852333333333333,31.65,78.28583331669333,0.2231770833333334,63.229739838148944
1372752624.5,0.22873666666666667,31.65,78.31833333333333,-0.28153645833333335,63.229739838148944
1372752624.75,0.22900333333333334,31.65,78.35083334997333,-0.7566406249999998,63.229739838148944
1372752625.0,0.22927,31.65,78.38333333333333,-1.1986979166666665,63.229739838148944
1372752625.25,0.22959000000000004,31.65,78.41833331541332,-1.3999218750000002,63.229739838148944
1372752625.5,0.22991000000000003,31.65,78.45333333333332,-1.4874739583333332,63.229739838148944
1372752625.75,0.23022999999999996,31.650833333333335,78.48833335125333,-1.5811458333333335,63.229739838148944
1372752626.0,0.23049666666666668,31.6525,78.52333333333333,-1.5240364583333335,63.229739838148944
1372752626.25,0.23076333333333332,31.654166666666665,78.56249997994667,-1.4089583333333333,63.229739838148944
1372752626.5,0.2309766666666667,31.655833333333334,78.60166666666666,-1.0786979166666668,63.229739838148944
1372752626.75,0.23119,31.657500000000002,78.64083335338665,-0.6062239583333333,63.229739838148944
1372752627.0,0.23140333333333332,31.659166666666664,78.67999999999999,-0.164296875,63.229739838148944
1372752627.25,0.23161666666666667,31.660833333333333,78.72249997824,0.5631770833333333,63.229739838148944
1372752627.5,0.23183,31.662499999999998,78.76499999999999,1.4738281249999998,63.229739838148944
1372752627.75,0.23199,31.66416666666667,78.80750002175999,2.1940104166666665,63.229739838148944
1372752628.0,0.23215,31.665833333333335,78.85,3.4289062499999994,63.229739838148944
1372752628.25,0.23225666666666664,31.6675,78.89166664533333,4.7677604166666665,63.229739838148944
1372752628.5,0.23236333333333334,31.66916666666667,78.93333333333334,5.806562500000001,63.229739838148944
1372752628.75,0.23246999999999998,31.669166666666666,78.97500002133333,7.071093749999999,63.229739838148944
1372752629.0,0.23257666666666665,31.667500000000004,79.01666666666667,8.765416666666665,63.229739838148944
1372752629.25,0.23268333333333333,31.665833333333335,79.05249998165334,9.963541666666666,63.229739838148944
1372752629.5,0.23279000000000002,31.66416666666667,79.08833333333334,10.688489583333334,63.229739838148944
1372752629.75,0.23289666666666664,31.662499999999998,79.12416668501334,11.952604166666667,63.229739838148944
1372752630.0,0.23295,31.660833333333333,79.16000000000001,13.083333333333334,63.229739838148944
1372752630.25,0.23295,31.659166666666668,79.18666665301335,13.399088541666666,63.229739838148944
1372752630.5,0.23295,31.6575,79.21333333333334,13.735208333333333,63.229739838148944
1372752630.75,0.23295,31.65583333333333,79.24000001365333,14.632187499999999,63.229739838148944
1372752631.0,0.23295,31.65416666666667,79.26666666666667,14.539140625,63.229739838148944
1372752631.25,0.23295,31.6525,79.28416665770666,13.964114583333332,63.229739838148944
1372752631.5,0.23295,31.650833333333335,79.30166666666666,13.91265625,63.229739838148944
1372752631.75,0.23295,31.64916666666667,79.31916667562666,13.510026041666665,63.229739838148944
1372752632.0,0.23295,31.647499999999997,79.33666666666666,12.290677083333334,63.229739838148944
1372752632.25,0.23295,31.645833333333332,79.34499999573333,11.65203125,63.229739838148944
1372752632.5,0.23295,31.644166666666663,79.35333333333332,11.5084375,63.229739838148944
1372752632.75,0.23295,31.64333333333333,79.36166667093333,10.435052083333334,63.229739838148944
1372752633.0,0.23295,31.643333333333334,79.37,9.315416666666666,63.229739838148944
1372752633.25,0.23295,31.64333333333333,79.37166666581334,9.184296875,63.229739838148944
1372752633.5,0.23295,31.64333333333333,79.37333333333333,8.698411458333334,63.229739838148944
1372752633.75,0.23295,31.643333333333334,79.37500000085333,7.450312499999999,63.229739838148944
1372752634.0,0.23295,31.64333333333333,79.37666666666667,7.011458333333334,63.229739838148944
1372752634.25,0.23295,31.643333333333334,79.37250000213334,7.021171874999999,63.229739838148944
1372752634.5,0.23295,31.64333333333333,79.36833333333334,6.3753125,63.229739838148944
1372752634.75,0.23295,31.644166666666663,79.36416666453333,6.020989583333335,63.229739838148944
1372752635.0,0.23295,31.645833333333332,79.36,6.36765625,63.23220913392502
1372752635.25,0.23295,31.647499999999997,79.35166667093333,6.290234375,63.24011088040846
1372752635.5,0.23295,31.649166666666662,79.34333333333333,5.987343750000001,63.248012626891914
1372752635.75,0.23295,31.65,79.33499999573334,6.323984375000001,63.255914373375354
1372752636.0,0.23295,31.65,79.32666666666667,6.6804427083333335,63.26381611985878
1372752636.25,0.23295,31.65,79.31416667306667,6.477057291666667,63.271717866342236
1372752636.5,0.2330033333333333,31.65,79.30166666666668,6.860286458333333,63.27961961282568
1372752636.75,0.23311,31.65,79.28916666026667,7.488411458333334,63.28752135930912
1372752637.0,0.23321666666666666,31.65,79.27666666666667,7.515026041666666,63.295423105792565
1372752637.25,0.23332333333333333,31.65,79.26000000853334,7.672213541666667,63.303324852276006
1372752637.5,0.23343,31.65,79.24333333333334,8.107005208333334,63.31122659875945
1372752637.75,0.23353666666666664,31.65,79.22666665813333,8.266484375000001,63.319128345242895
1372752638.0,0.23364333333333331,31.65,79.21,8.24171875,63.324560795950255
1372752638.25,0.23375,31.65,79.19083334314666,8.496822916666668,63.324560795950255
1372752638.5,0.23385666666666663,31.65,79.17166666666665,8.831744791666667,63.324560795950255
1372752638.75,0.23396333333333333,31.65,79.15249999018666,8.668645833333333,63.326368598795256
1372752639.0,0.23407,31.65,79.13333333333333,8.71640625,63.33750148876382
1372752639.25,0.23417666666666667,31.65,79.11500000938666,9.073541666666667,63.348552299191134
1372752639.5,0.23423,31.65,79.09666666666666,8.790442708333334,63.3596851891597
1372752639.75,0.23423,31.65,79.07833332394667,8.823020833333333,63.37073599958702
1372752640.0,0.23423,31.65,79.06,9.213802083333333,63.380637558796565
1372752640.25,0.23423,31.65,79.04666667349333,9.215989583333334,63.39181148853575
1372752640.5,0.23423,31.65,79.03333333333333,9.428906249999999,63.40298541827494
1372752640.75,0.23423,31.65,79.01999999317333,9.764661458333334,63.41415934801412
1372752641.0,0.23423,31.65,79.00666666666666,9.923854166666667,63.42496388923096
1372752641.25,0.23423,31.65,79.00000000341333,10.02578125,63.43572739067719
1372752641.5,0.23423,31.65,78.99333333333334,9.668255208333333,63.446901320416366
1372752641.75,0.23423,31.65,78.98666666325333,9.411484375,63.456267447310545
1372752642.0,0.23423,31.65,78.98,9.573463541666667,63.45606221787069
1372752642.25,0.23423,31.65,78.97416666965333,9.224114583333334,63.45618533718255
1372752642.5,0.23423,31.65,78.96833333333333,9.287630208333333,63.45622637695317
1372752642.75,0.23423,31.65,78.96249999701334,9.037083333333333,63.456349496265034
1372752643.0,0.23423,31.65,78.95666666666666,8.15765625,63.45762186679466
1372752643.25,0.23423,31.65,78.9483333376,8.009791666666667,63.45762186679466
1372752643.5,0.23423,31.65,78.94,7.42078125,63.45762186679465
1372752643.75,0.23423,31.65,78.9316666624,6.514973958333333,63.463404596252595
1372752644.0,0.23423,31.65,78.92333333333335,6.0133333333333345,63.47099161047898
1372752644.25,0.23423,31.65,78.90750000810668,5.582109374999999,63.478619664475985
1372752644.5,0.23423,31.65,78.89166666666668,5.801276041666667,63.48583729018005
1372752644.75,0.23417666666666667,31.65,78.87583332522667,6.377734374999999,63.493054915884095
1372752645.0,0.23417666666666667,31.65,78.86,6.082317708333332,63.50051881079861
1372752645.25,0.23417666666666667,31.65,78.84250000896,6.145234375,63.50773643650266
1372752645.5,0.23417666666666667,31.65,78.825,5.971692708333333,63.51495406220672
1372752645.75,0.23412333333333332,31.65,78.80749999104,5.70359375,63.52217168791076
1372752646.0,0.23406999999999997,31.65,78.79,5.9496875,63.529389313614814
1372752646.25,0.23407,31.65,78.77166667605333,5.634557291666666,63.53660693931886
1372752646.5,0.23407,31.65,78.75333333333333,5.587526041666667,63.54382456502291
1372752646.75,0.23406999999999997,31.65,78.73499999061333,5.8796614583333335,63.54525946126902
1372752647.0,0.23407,31.65,78.71666666666665,5.873828124999999,63.54525946126902
1372752647.25,0.23407,31.65,78.70166667434665,5.878828125000001,63.54525946126902
1372752647.5,0.23407,31.65,78.68666666666667,5.5550781250000005,63.54525946126902
1372752647.75,0.23412333333333335,31.65,78.67166665898668,4.973619791666667,63.54525946126902
1372752648.0,0.23412333333333332,31.65,78.65666666666668,4.7465625,63.54525946126902
1372752648.25,0.23412333333333332,31.65,78.64500000597334,4.490156249999999,63.54525946126902
1372752648.5,0.23412333333333335,31.65,78.63333333333334,4.497369791666666,63.54525946126902
1372752648.75,0.23417666666666667,31.65,78.62166666069334,4.940416666666667,63.54525946126902
1372752649.0,0.23423,31.65,78.61,5.255182291666666,63.54525946126902
1372752649.25,0.23423,31.65,78.60333333674666,5.530546875,63.54525946126902
1372752649.5,0.23423,31.65,78.59666666666666,6.162291666666666,63.54525946126902
1372752649.75,0.23423,31.65,78.58999999658667,6.560208333333333,63.54525946126902
1372752650.0,0.23423,31.65,78.58333333333333,6.734218749999999,63.54525946126902
1372752650.25,0.23423,31.65,78.57666667007999,7.186953125,63.54525946126902
1372752650.5,0.23423,31.65,78.57,7.5855468749999995,63.54525946126902
1372752650.75,0.23423,31.65,78.56333332992,7.770989583333333,63.54525946126902
1372752651.0,0.23423,31.65,78.55666666666666,8.309973958333334,63.54525946126902
1372752651.25,0.23423,31.65,78.54333334015999,8.785208333333333,63.54525946126902
1372752651.5,0.23423,31.65,78.53,8.833229166666667,63.54525946126902
1372752651.75,0.23423,31.65,78.51666665984,8.821015625,63.54525946126902
1372752652.0,0.23423,31.65,78.50333333333333,8.965078125,63.54525946126902
1372752652.25,0.23423,31.65,78.48500000938667,8.928932291666667,63.54525946126902
1372752652.5,0.23423,31.65,78.46666666666667,8.648411458333333,63.54525946126902
1372752652.75,0.23428333333333332,31.65,78.44833332394666,8.708880208333333,63.54525946126902
1372752653.0,0.23439000000000002,31.65,78.42999999999999,8.699739583333335,63.54525946126902
1372752653.25,0.23449666666666666,31.65,78.40583334570665,8.358541666666666,63.54525946126902
1372752653.5,0.2346033333333333,31.65,78.38166666666666,8.436510416666666,63.54525946126902
1372752653.75,0.23471,31.65,78.35749998762667,8.492265625,63.54525946126902
1372752654.0,0.23481666666666667,31.65,78.33333333333333,8.041484375,63.54525946126902
1372752654.25,0.2349233333333333,31.65,78.30500001450666,8.032786458333334,63.54525946126902
1372752654.5,0.23503,31.65,78.27666666666667,8.066875,63.54525946126902
1372752654.75,0.23513666666666666,31.65,78.24833331882667,7.692864583333333,63.54525946126902
1372752655.0,0.23524333333333336,31.65,78.22,7.703671875,63.54525946126902
1372752655.25,0.23534999999999998,31.65,78.1825000192,7.887708333333333,63.54525946126902
1372752655.5,0.23545666666666665,31.65,78.14500000000001,7.616067708333333,63.54525946126902
1372752655.75,0.23551,31.65,78.1074999808,7.530286458333333,63.54525946126902
1372752656.0,0.23551,31.65,78.07000000000001,7.934505208333333,63.54525946126902
1372752656.25,0.23551,31.65,78.02750002176,7.929010416666667,63.54525946126902
1372752656.5,0.23551,31.65,77.98500000000001,7.700182291666668,63.54525946126902
1372752656.75,0.23551,31.65,77.94249997824001,8.094505208333333,63.54525946126902
1372752657.0,0.23551,31.65,77.9,8.467526041666668,63.54525946126902
1372752657.25,0.23551,31.65,77.85416669013334,8.249479166666667,63.54525946126902
1372752657.5,0.23551,31.65,77.80833333333334,8.630859375,63.54525946126902
1372752657.75,0.23551,31.65,77.76249997653333,9.259322916666667,63.54525946126902
1372752658.0,0.23551,31.65,77.71666666666667,9.111640625,63.54525946126902
1372752658.25,0.23551,31.65,77.66916669098667,9.280807291666667,63.54525946126902
1372752658.5,0.23551,31.65,77.62166666666667,10.038645833333334,63.54525946126902
1372752658.75,0.23551,31.65,77.57416664234665,10.081015625000001,63.53578044322546
1372752659.0,0.23551,31.65,77.52666666666666,9.949973958333333,63.52199278061665
1372752659.25,0.23551,31.65,77.47750002517333,10.682161458333333,63.515098949312254
1372752659.5,0.23551,31.65,77.42833333333333,11.035026041666667,63.51509894931224
1372752659.75,0.23551,31.65,77.37916664149333,10.838932291666666,63.515098949312254
1372752660.0,0.23556333333333332,31.65,77.33,11.31359375,63.515098949312254
1372752660.25,0.23561666666666667,31.65,77.2800000256,11.883177083333335,63.51509894931224
1372752660.5,0.23561666666666667,31.65,77.22999999999999,11.522552083333332,63.515098949312254
1372752660.75,0.23567000000000002,31.65,77.17999997439999,11.457395833333331,63.515098949312254
1372752661.0,0.23577666666666663,31.65,77.13,12.06828125,63.51509894931224
1372752661.25,0.23588333333333333,31.65,77.08166669141333,11.88609375,63.515098949312254
1372752661.5,0.23599,31.65,77.03333333333333,11.317578124999999,63.515098949312254
1372752661.75,0.23609666666666665,31.65,76.98499997525333,11.742708333333335,63.5245779673558
1372752662.0,0.23620333333333332,31.65,76.93666666666667,11.908671875000001,63.53836562996462
1372752662.25,0.23631000000000002,31.65,76.8908333568,11.0878125,63.54525946126902
1372752662.5,0.2364166666666667,31.65,76.845,10.953802083333334,63.54525946126902
1372752662.75,0.23652333333333334,31.65,76.79916664320001,11.108098958333334,63.54525946126902
1372752663.0,0.23657666666666666,31.65,76.75333333333334,10.319244791666668,63.54525946126902
1372752663.25,0.23662999999999998,31.65,76.70500002474667,9.686015625,63.54525946126902
1372752663.5,0.23673666666666668,31.65,76.65666666666667,9.981223958333333,63.54525946126902
1372752663.75,0.23679,31.65,76.60833330858667,9.65453125,63.54525946126902
1372752664.0,0.23679,31.65,76.55999999999999,8.656145833333333,63.54525946126902
1372752664.25,0.23679,31.65,76.52000002047998,8.540729166666667,63.54525946126902
1372752664.5,0.23679,31.65,76.47999999999999,8.804427083333334,63.53922735887767
1372752664.75,0.23679,31.65,76.43999997952,8.053932291666667,63.525439696268855
1372752665.0,0.23679,31.65,76.39999999999999,7.298854166666666,63.511652033660035
1372752665.25,0.23679,31.65,76.36583335082666,7.587473958333334,63.497864371051236
1372752665.5,0.23679,31.65,76.33166666666666,7.525182291666667,63.48407670844242
1372752665.75,0.23679,31.65,76.29749998250666,6.900260416666666,63.47028904583362
1372752666.0,0.23679,31.65,76.26333333333334,6.9159895833333325,63.456501383224804
1372752666.25,0.23679,31.65,76.24083334485333,6.990677083333334,63.44271372061599
1372752666.5,0.23679,31.65,76.21833333333333,6.32390625,63.42892605800719
1372752666.75,0.23673666666666668,31.65,76.19583332181334,5.828854166666667,63.41513839539837
1372752667.0,0.23668333333333333,31.65,76.17333333333333,6.117786458333334,63.40135073278956
1372752667.25,0.23663,31.65,76.15083334485333,5.978750000000001,63.38756307018076
1372752667.5,0.2365233333333333,31.65,76.12833333333333,5.228932291666667,63.383421479312915
1372752667.75,0.23641666666666664,31.650833333333335,76.10583332181334,5.233880208333333,63.38867816200328
1372752668.0,0.23631000000000002,31.6525,76.08333333333333,5.50671875,63.39393484469364
1372752668.25,0.23620333333333335,31.654166666666665,76.06500000938667,5.000078125,63.39652220750053
1372752668.5,0.23609666666666665,31.655833333333334,76.04666666666667,4.411171875,63.39269796786015
1372752668.75,0.23599,31.6575,76.02833332394667,4.448645833333333,63.391135840220734
1372752669.0,0.23588333333333333,31.659166666666668,76.01,4.246640625,63.39047838697541
1372752669.25,0.23577666666666666,31.66083333333333,75.9975000064,3.903984375,63.39150522312766
1372752669.5,0.23566999999999996,31.662499999999998,75.985,3.973203125,63.394791201291405
1372752669.75,0.23561666666666667,31.66416666666667,75.9724999936,4.185651041666667,63.39861095147369
1372752670.0,0.23561666666666667,31.665833333333335,75.96,3.9581770833333327,63.40111576929772
1372752670.25,0.23561666666666667,31.6675,75.95416666965333,3.678489583333333,63.39684084889353
1372752670.5,0.23572333333333337,31.66916666666667,75.94833333333332,3.698541666666666,63.38891082733057
1372752670.75,0.23577666666666666,31.66916666666667,75.94249999701333,3.0231510416666665,63.38052995198117
1372752671.0,0.23582999999999998,31.6675,75.93666666666667,2.1516666666666664,63.37116283510175
1372752671.25,0.23582999999999998,31.665833333333335,75.93500000085334,1.8365104166666664,63.36738251327296
1372752671.5,0.23583,31.66416666666667,75.93333333333334,1.706302083333333,63.37539604463725
1372752671.75,0.23582999999999998,31.662499999999998,75.93166666581334,1.674192708333333,63.38098284516678
1372752672.0,0.23582999999999998,31.660833333333333,75.93,1.7243489583333333,63.37942016045386
1372752672.25,0.23582999999999998,31.659166666666668,75.92583333546668,1.1195312499999999,63.37403611463486
1372752672.5,0.23583,31.6575,75.92166666666668,0.2757031249999999,63.36581714812641
1372752672.75,0.23577666666666666,31.655833333333334,75.91749999786667,-0.6302083333333334,63.35381015837993
1372752673.0,0.2356166666666667,31.654166666666665,75.91333333333334,-1.6751822916666665,63.33146330229362
1372752673.25,0.23545666666666665,31.652500000000003,75.90416667136,-2.485130208333333,63.322776431178305
1372752673.5,0.23524333333333333,31.650833333333335,75.89500000000001,-3.0480989583333336,63.30667323011624
1372752673.75,0.2350833333333333,31.650833333333328,75.88583332864,-3.2544270833333333,63.28937816949988
1372752674.0,0.23492333333333335,31.6525,75.87666666666667,-3.082109375,63.27957871708856
1372752674.25,0.23481666666666667,31.654166666666665,75.86000000853333,-3.19546875,63.27180294506015
1372752674.5,0.23476333333333332,31.655833333333334,75.84333333333333,-3.4122916666666665,63.267941848163446
1372752674.75,0.23476333333333332,31.6575,75.82666665813333,-3.9130468750000005,63.26597097022935
1372752675.0,0.23481666666666667,31.659166666666664,75.81,-4.328125,63.27139487926707
1372752675.25,0.23492333333333335,31.660833333333333,75.79083334314667,-4.0184114583333335,63.28420877416875
1372752675.5,0.23503,31.662500000000005,75.77166666666668,-3.617447916666667,63.29747532333935
1372752675.75,0.23524333333333333,31.664166666666663,75.75249999018666,-2.5897916666666667,63.31034441340662
1372752676.0,0.23556333333333332,31.665833333333335,75.73333333333333,-0.6203385416666667,63.334786212436406
1372752676.25,0.23588333333333333,31.667500000000004,75.71250001066666,0.6179166666666667,63.34910298408599
1372752676.5,0.23620333333333332,31.66916666666667,75.69166666666666,1.5238802083333336,63.37128843229595
1372752676.75,0.23652333333333334,31.67,75.67083332266667,2.417135416666667,63.39240532454312
1372752677.0,0.23684333333333332,31.67,75.64999999999999,2.4740625,63.401176270790025
1372752677.25,0.2371633333333333,31.67,75.62833334442666,1.22328125,63.39944877905609
1372752677.5,0.23743,31.67,75.60666666666665,-0.05630208333333331,63.38574912384945
1372752677.75,0.23769666666666667,31.67,75.58499998890666,-1.3363802083333332,63.367727376855925
1372752678.0,0.23796333333333333,31.67,75.56333333333333,-2.2180989583333335,63.34542411456181
1372752678.25,0.23817666666666668,31.67,75.54000001194667,-1.7181510416666665,63.317867938112265
1372752678.5,0.23839,31.67,75.51666666666668,-0.8606249999999999,63.293152810768014
1372752678.75,0.2386032916666667,31.66916666666667,75.49333332138667,-1.5777083333333335,63.2806567823163
1372752679.0,0.238869875,31.667500000000004,75.47000000000001,-3.4496093749999996,63.27145312871437
1372752679.25,0.23918979166666668,31.665833333333335,75.44333334698668,-4.8225,63.26549425574987
1372752679.5,0.23950970833333332,31.664166666666663,75.41666666666669,-5.849531250000001,63.2591241679809
1372752679.75,0.23982962500000002,31.662500000000005,75.38999998634668,-6.289270833333334,63.25382263617471
1372752680.0,0.2401495416666667,31.660833333333333,75.36333333333334,-6.105911458333332,63.25435768369376
1372752680.25,0.24046945833333333,31.659166666666664,75.33416668160001,-4.4759375,63.260450013643585
1372752680.5,0.240789375,31.6575,75.305,-2.7842708333333337,63.266542343593414
1372752680.75,0.24105595833333335,31.655833333333334,75.2758333184,-1.1674218749999998,63.26378173179602
1372752681.0,0.24126920833333335,31.65416666666667,75.24666666666667,-0.37578124999999996,63.26378173179602
1372752681.25,0.24148245833333334,31.6525,75.2133333504,-1.454765625,63.26378173179602
1372752681.5,0.24169570833333334,31.650833333333328,75.18,-3.005677083333333,63.26106380709974
1372752681.75,0.241909,31.64916666666667,75.1466666496,-3.4344010416666664,63.24977849383376
1372752682.0,0.242069,31.647499999999997,75.11333333333333,-3.1478125,63.23528289545356
1372752682.25,0.24217566666666668,31.645833333333332,75.07583335253332,-2.4056510416666668,63.22078729707334
1372752682.5,0.24228233333333335,31.644166666666667,75.03833333333333,-1.8674479166666667,63.20629169869314
1372752682.75,0.242389,31.6425,75.00083331413333,-1.9142187499999999,63.191796100312935
1372752683.0,0.24249566666666666,31.640833333333333,74.96333333333332,-1.7861979166666668,63.17730050193273
1372752683.25,0.2426556666666667,31.639166666666664,74.92166668799999,-2.0402343750000003,63.16280490355252
1372752683.5,0.24281566666666668,31.6375,74.88,-2.8926822916666666,63.1509845427675
1372752683.75,0.24302899999999997,31.635833333333334,74.838333312,-3.576796875,63.150613615387776
1372752684.0,0.2432423333333333,31.634166666666662,74.79666666666667,-3.125260416666667,63.150613615387776
1372752684.25,0.24345566666666665,31.632499999999997,74.75166668970667,-2.0549739583333335,63.150613615387776
1372752684.5,0.243669,31.63083333333333,74.70666666666668,-0.7180729166666667,63.150613615387776
1372752684.75,0.243829,31.63,74.66166664362667,0.9647916666666667,63.150613615387776
1372752685.0,0.24393566666666666,31.63,74.61666666666667,2.2584375,63.150613615387776
1372752685.25,0.24404233333333333,31.63,74.56916669098668,2.947109375,63.150613615387776
1372752685.5,0.24414900000000003,31.63,74.52166666666668,3.6521875,63.150613615387776
1372752685.75,0.24425566666666665,31.63,74.47416664234667,4.370520833333333,63.150613615387776
1372752686.0,0.24436233333333332,31.63,74.42666666666668,4.950442708333333,63.150613615387776
1372752686.25,0.24441566666666667,31.63,74.37666669226668,5.837369791666666,63.150613615387776
1372752686.5,0.244469,31.63,74.32666666666668,7.181953125,63.150613615387776
1372752686.75,0.244469,31.63,74.27666664106667,8.290052083333334,63.150613615387776
1372752687.0,0.2445223333333333,31.63,74.22666666666667,8.633177083333333,63.150613615387776
1372752687.25,0.24462899999999999,31.63,74.17166669482667,8.90609375,63.150613615387776
1372752687.5,0.24473566666666666,31.63,74.11666666666667,8.993177083333334,63.150613615387776
1372752687.75,0.2448423333333333,31.63,74.06166663850667,8.488255208333333,63.150613615387776
1372752688.0,0.24494899999999997,31.63,74.00666666666666,8.07421875,63.150613615387776
1372752688.25,0.24505566666666664,31.63,73.94166669994667,7.9933854166666665,63.150613615387776
1372752688.5,0.2451623333333333,31.63,73.87666666666667,7.877942708333332,63.150613615387776
1372752688.75,0.245269,31.63,73.81166663338665,7.637109374999999,63.150613615387776
1372752689.0,0.24537566666666666,31.63,73.74666666666666,7.341484375,63.150613615387776
1372752689.25,0.24548233333333333,31.63,73.67666670250667,7.128984375000001,63.150613615387776
1372752689.5,0.24558899999999997,31.63,73.60666666666665,7.005494791666667,63.150613615387776
1372752689.75,0.24569566666666665,31.629166666666663,73.53666663082666,6.840520833333333,63.150613615387776
1372752690.0,0.245749,31.627499999999998,73.46666666666667,6.636015625,63.150613615387776
1372752690.25,0.245749,31.625833333333333,73.40000003413334,6.603984375,63.150613615387776
1372752690.5,0.245749,31.624166666666667,73.33333333333334,6.65109375,63.150613615387776
1372752690.75,0.245749,31.6225,73.26666663253333,6.606953125,63.150613615387776
1372752691.0,0.245749,31.620833333333334,73.2,6.52421875,63.150613615387776
1372752691.25,0.245749,31.61916666666667,73.14166669653333,6.620885416666667,63.150613615387776
1372752691.5,0.245749,31.617500000000003,73.08333333333334,6.768828125,63.150613615387776
1372752691.75,0.24580233333333334,31.61583333333333,73.02499997013334,7.009661458333333,63.150613615387776
1372752692.0,0.24590900000000002,31.614166666666666,72.96666666666667,7.235807291666666,63.150613615387776
1372752692.25,0.24601566666666666,31.6125,72.91250002773333,7.284557291666666,63.150613615387776
1372752692.5,0.24612233333333333,31.610833333333332,72.85833333333333,7.399140625,63.150613615387776
1372752692.75,0.246229,31.610833333333336,72.80416663893334,7.957343750000001,63.150613615387776
1372752693.0,0.2463356666666667,31.6125,72.75,8.43421875,63.150613615387776
1372752693.25,0.24644233333333335,31.614166666666666,72.69583336106666,8.367213541666667,63.150613615387776
1372752693.5,0.24654900000000002,31.61583333333333,72.64166666666667,8.379192708333333,63.150613615387776
1372752693.75,0.2466556666666667,31.617500000000003,72.58749997226667,8.939817708333333,63.150613615387776
1372752694.0,0.24676233333333333,31.61916666666667,72.53333333333333,9.488385416666667,63.150613615387776
1372752694.25,0.246869,31.620833333333334,72.47916669439999,9.616874999999999,63.150613615387776
1372752694.5,0.24697566666666668,31.6225,72.425,9.736979166666666,63.150613615387776
1372752694.75,0.247029,31.624166666666667,72.3708333056,9.914895833333334,63.150613615387776
1372752695.0,0.247029,31.625833333333333,72.31666666666666,10.090546875,63.150613615387776
1372752695.25,0.247029,31.627499999999998,72.26416669354667,10.263880208333333,63.150613615387776
1372752695.5,0.247029,31.629166666666663,72.21166666666667,10.3475,63.150613615387776
1372752695.75,0.247029,31.63,72.15916663978666,9.997630208333334,63.150613615387776
1372752696.0,0.24708233333333332,31.63,72.10666666666667,9.733489583333334,63.150613615387776
1372752696.25,0.24713566666666664,31.63,72.05333336064,9.877109375000002,63.150613615387776
1372752696.5,0.247189,31.63,72.0,9.906276041666667,63.150613615387776
1372752696.75,0.24729566666666666,31.63,71.94666663936,9.488958333333334,63.150613615387776
1372752697.0,0.24740233333333336,31.63,71.89333333333333,9.087708333333333,63.150613615387776
1372752697.25,0.247509,31.63,71.84166669312,8.867135416666668,63.19647111359649
1372752697.5,0.24761566666666668,31.63,71.78999999999999,8.645729166666667,63.25291111139182
1372752697.75,0.24772233333333335,31.63,71.73833330688,8.343723958333333,63.309351109187155
1372752698.0,0.247829,31.63,71.68666666666667,8.042994791666667,63.36579110698249
1372752698.25,0.24793566666666667,31.63,71.63416669354667,7.773776041666667,63.422231104777815
1372752698.5,0.24804233333333334,31.63,71.58166666666668,7.54984375,63.47867110257315
1372752698.75,0.24820233333333333,31.63,71.52916663978667,7.398151041666666,63.53511110036849
1372752699.0,0.24836233333333332,31.63,71.47666666666667,7.199088541666666,63.591551098163826
1372752699.25,0.24852233333333337,31.63,71.42166669482667,7.003098958333333,63.64799109595916
1372752699.5,0.24868233333333334,31.63,71.36666666666667,6.8608593749999995,63.7044310937545
1372752699.75,0.248789,31.63,71.31166663850667,6.685130208333334,63.76087109154984
1372752700.0,0.2488956666666667,31.63,71.25666666666666,6.500338541666667,63.81731108934517
1372752700.25,0.24900233333333333,31.63,71.19833336319999,6.340833333333332,63.82789358893179
1372752700.5,0.249109,31.63,71.13999999999999,6.184218749999999,63.82789358893179
1372752700.75,0.2492156666666667,31.63,71.0816666368,6.075546875,63.82789358893179
1372752701.0,0.249269,31.63,71.02333333333333,5.965963541666667,63.82789358893179
1372752701.25,0.249269,31.63,70.96166669824,5.804479166666667,63.82789358893179
1372752701.5,0.24932233333333334,31.63,70.89999999999999,5.6328125,63.82789358893179
1372752701.75,0.24932233333333334,31.63,70.83833330175999,5.524791666666666,63.82789358893179
1372752702.0,0.2492156666666667,31.63,70.77666666666666,5.420208333333334,63.82789358893179
1372752702.25,0.249109,31.63,70.71916669610665,5.268229166666667,63.82789358893179
1372752702.5,0.24900233333333333,31.63,70.66166666666666,5.1278125,63.82789358893179
1372752702.75,0.248949,31.63,70.60416663722667,5.020442708333333,63.82789358893179
1372752703.0,0.2488423333333333,31.63,70.54666666666667,4.8816927083333335,63.82789358893179
1372752703.25,0.2487356666666667,31.63,70.49583335936,4.810026041666666,63.82789358893179
1372752703.5,0.24862900000000002,31.63,70.44500000000001,4.781276041666667,63.82789358893179
1372752703.75,0.24852233333333332,31.63,70.39416664064001,4.735911458333333,63.82789358893179
1372752704.0,0.24846899999999997,31.63,70.34333333333335,4.685078125,63.82249706210512
1372752704.25,0.24852233333333332,31.63,70.29916668928001,4.621614583333334,63.800910954798404
1372752704.5,0.24852233333333332,31.63,70.25500000000001,4.5681770833333335,63.7793248474917
1372752704.75,0.24846899999999997,31.63,70.21083331072,4.715911458333333,63.75773874018498
1372752705.0,0.24852233333333332,31.63,70.16666666666667,4.8995572916666665,63.736152632878266
1372752705.25,0.248629,31.63,70.12416668842667,4.8773437500000005,63.71456652557157
1372752705.5,0.2487356666666667,31.63,70.08166666666668,4.820182291666667,63.69298041826485
1372752705.75,0.248789,31.63,70.03916664490667,5.085546875,63.67139431095814
1372752706.0,0.2488956666666667,31.63,69.99666666666667,5.430130208333334,63.649808203651425
1372752706.25,0.24900233333333333,31.63,69.9508333568,5.5926302083333335,63.62822209634473
1372752706.5,0.249109,31.63,69.905,5.695546874999999,63.60663598903801
1372752706.75,0.249269,31.63,69.8591666432,5.907864583333333,63.59989033050466
1372752707.0,0.24948233333333336,31.63,69.81333333333333,6.141614583333333,63.60528685733134
1372752707.25,0.24964233333333333,31.63,69.76333335893334,6.481249999999999,63.62687296463806
1372752707.5,0.24980233333333335,31.63,69.71333333333334,6.8246093750000005,63.64845907194476
1372752707.75,0.2500156666666667,31.63,69.66333330773332,6.927473958333333,63.670045179251474
1372752708.0,0.2501756666666667,31.63,69.61333333333333,7.005182291666667,63.69163128655819
1372752708.25,0.25028233333333333,31.63,69.55333336405333,7.246614583333333,63.71321739386489
1372752708.5,0.25038900000000003,31.63,69.49333333333334,7.495130208333333,63.734803501171605
1372752708.75,0.25049566666666667,31.63,69.43333330261333,7.503281250000001,63.756389608478315
1372752709.0,0.2506023333333333,31.63,69.37333333333333,7.458802083333334,63.777975715785026
1372752709.25,0.250709,31.63,69.30666670080001,7.366276041666667,63.79956182309173
1372752709.5,0.2508156666666667,31.63,69.24000000000001,7.298984375000001,63.821147930398446
1372752709.75,0.25092233333333336,31.63,69.1733332992,7.276041666666667,63.82789358893179
1372752710.0,0.25097566666666665,31.63,69.10666666666667,7.218125000000001,63.82789358893179
1372752710.25,0.25097566666666665,31.63,69.03416670378667,6.9043229166666675,63.82789358893179
1372752710.5,0.251029,31.63,68.96166666666667,6.562994791666667,63.82789358893179
1372752710.75,0.2511356666666667,31.63,68.88916662954666,6.4304427083333335,63.82789358893179
1372752711.0,0.25124233333333335,31.63,68.81666666666666,6.298255208333334,63.82789358893179
1372752711.25,0.251349,31.63,68.74583336959999,6.094921875000001,63.82789358893179
1372752711.5,0.2514556666666667,31.63,68.67499999999998,5.895234375,63.82789358893179
1372752711.75,0.25156233333333333,31.629166666666663,68.60416663039999,5.721067708333333,63.82789358893179
1372752712.0,0.251669,31.627499999999998,68.53333333333332,5.5382291666666665,63.82789358893179
1372752712.25,0.2517756666666667,31.625833333333333,68.45833337173332,5.41359375,63.82789358893179
1372752712.5,0.2518823333333333,31.624166666666664,68.38333333333333,5.352630208333334,63.82789358893179
1372752712.75,0.25193566666666667,31.6225,68.30833329493333,5.272630208333333,63.82789358893179
1372752713.0,0.251989,31.620833333333334,68.23333333333333,5.094088541666667,63.82789358893179
1372752713.25,0.25209566666666666,31.61916666666667,68.15750003882667,5.003671875,63.82789358893179
1372752713.5,0.252149,31.617499999999996,68.08166666666668,5.027213541666667,63.82789358893179
1372752713.75,0.252149,31.61583333333333,68.00583329450667,5.040520833333334,63.82789358893179
1372752714.0,0.252149,31.614166666666666,67.93,4.969375,63.82789358893179
1372752714.25,0.25220233333333336,31.6125,67.85500003840001,4.841458333333333,63.82789358893179
1372752714.5,0.252309,31.610833333333332,67.78,4.831015625,63.82789358893179
1372752714.75,0.2524156666666667,31.61,67.70499996160001,4.942265625,63.82789358893179
1372752715.0,0.25252233333333335,31.61,67.63000000000001,4.956067708333333,63.82789358893179
1372752715.25,0.252629,31.61,67.56166670165334,4.9477343750000005,63.82789358893179
1372752715.5,0.2527356666666667,31.61,67.49333333333334,5.035494791666666,63.82789358893179
1372752715.75,0.25284233333333334,31.610833333333332,67.42499996501334,5.042369791666666,63.82789358893179
1372752716.0,0.25294900000000003,31.612499999999997,67.35666666666667,4.978098958333333,63.82789358893179
1372752716.25,0.2530556666666667,31.614166666666662,67.29250003285334,5.070052083333333,63.82789358893179
1372752716.5,0.2531623333333333,31.61583333333333,67.22833333333332,5.296067708333333,63.82789358893179
1372752716.75,0.253269,31.617499999999996,67.16416663381332,5.3593489583333325,63.82789358893179
1372752717.0,0.253429,31.61916666666667,67.1,5.235390625,63.82789358893179
1372752717.25,0.25348233333333337,31.620833333333334,67.04000003072,5.283567708333334,63.82789358893179
1372752717.5,0.25353566666666666,31.622500000000002,66.97999999999999,5.471067708333334,63.82789358893179
1372752717.75,0.253589,31.624166666666667,66.91999996928,5.444947916666667,63.82789358893179
1372752718.0,0.2536956666666667,31.625833333333333,66.86,5.308307291666666,63.82789358893179
1372752718.25,0.25380233333333335,31.627499999999998,66.80416669525333,5.325390625,63.82789358893179
1372752718.5,0.253909,31.629166666666666,66.74833333333333,5.32421875,63.82789358893179
1372752718.75,0.25396233333333335,31.629166666666666,66.69249997141334,5.2741927083333335,63.82789358893179
1372752719.0,0.2540156666666667,31.6275,66.63666666666667,5.377421875,63.82789358893179
1372752719.25,0.25406900000000004,31.625833333333333,66.58666669226668,5.43296875,63.82789358893179
1372752719.5,0.25412233333333334,31.624166666666667,66.53666666666666,5.2619010416666665,63.82789358893179
1372752719.75,0.25417566666666663,31.622500000000002,66.48666664106666,5.114348958333333,63.82789358893179
1372752720.0,0.25412233333333334,31.620833333333334,66.43666666666667,5.226119791666666,63.82789358893179
1372752720.25,0.25417566666666663,31.61916666666666,66.39000002389334,5.3009635416666665,63.82789358893179
1372752720.5,0.25417566666666663,31.617499999999996,66.34333333333333,5.129322916666666,63.82789358893179
1372752720.75,0.2541756666666667,31.616666666666664,66.29666664277333,4.976354166666667,63.82789358893179
1372752721.0,0.25412233333333334,31.616666666666664,66.25,5.0335937500000005,63.82789358893179
1372752721.25,0.2540156666666667,31.616666666666664,66.20416669013333,5.1184375,63.82789358893179
1372752721.5,0.25396233333333335,31.616666666666664,66.15833333333333,5.0783072916666665,63.82789358893179
1372752721.75,0.2540156666666667,31.617499999999996,66.11249997653333,4.915442708333333,63.82789358893179
1372752722.0,0.25406900000000004,31.61916666666666,66.06666666666666,4.734322916666667,63.82789358893179
1372752722.25,0.25417566666666663,31.620833333333334,66.02250002261333,4.72921875,63.82789358893179
1372752722.5,0.2543356666666667,31.6225,65.97833333333332,4.742734375,63.82789358893179
1372752722.75,0.2544956666666667,31.62333333333333,65.93416664405333,4.597499999999999,63.82789358893179
1372752723.0,0.254709,31.62333333333333,65.89,4.465390625,63.82789358893179
1372752723.25,0.254869,31.623333333333335,65.84833335466666,4.489713541666666,63.82789358893179
1372752723.5,0.255029,31.623333333333335,65.80666666666667,4.4659635416666665,63.82789358893179
1372752723.75,0.255189,31.621666666666666,65.76499997866667,4.350572916666667,63.82789358893179
1372752724.0,0.255349,31.618333333333336,65.72333333333333,4.334869791666667,63.82789358893179
1372752724.25,0.25556233333333334,31.615,65.68583335253334,4.398932291666667,63.82789358893179
1372752724.5,0.25572233333333333,31.611666666666665,65.64833333333334,4.3190625,63.82789358893179
1372752724.75,0.2558823333333334,31.609166666666667,65.61083331413333,4.2665625,63.82789358893179
1372752725.0,0.2560423333333333,31.6075,65.57333333333334,4.509192708333333,63.82789358893179
1372752725.25,0.25609566666666667,31.605833333333337,65.54000001706667,4.65765625,63.82789358893179
1372752725.5,0.256149,31.604166666666668,65.50666666666666,4.540078125,63.82789358893179
1372752725.75,0.2562556666666667,31.602500000000003,65.47333331626666,4.576328125000001,63.82789358893179
1372752726.0,0.25636233333333336,31.60083333333333,65.44,4.896354166666666,63.82789358893179
1372752726.25,0.256469,31.599166666666665,65.41083334826666,5.045416666666667,63.82789358893179
1372752726.5,0.2565756666666667,31.5975,65.38166666666666,4.991380208333333,63.82789358893179
1372752726.75,0.25668233333333335,31.5975,65.35249998506667,5.202265625,63.82789358893179
1372752727.0,0.256789,31.599166666666665,65.32333333333334,5.587526041666667,63.82789358893179
1372752727.25,0.2568956666666667,31.60083333333333,65.29750001322667,5.623151041666667,63.82789358893179
1372752727.5,0.2570023333333334,31.602500000000003,65.27166666666668,5.583072916666667,63.82789358893179
1372752727.75,0.2570556666666667,31.603333333333335,65.24583332010667,5.8284635416666655,63.82789358893179
1372752728.0,0.2570556666666667,31.603333333333335,65.22,5.896640625,63.82789358893179
1372752728.25,0.2571623333333333,31.603333333333328,65.19750001151999,5.6355989583333335,63.82789358893179
1372752728.5,0.2572156666666667,31.603333333333335,65.175,5.607864583333334,63.82789358893179
1372752728.75,0.2572156666666667,31.604166666666668,65.15249998848,5.876328125000001,63.82789358893179
1372752729.0,0.2572156666666667,31.605833333333337,65.13,5.765,63.82789358893179
1372752729.25,0.2572156666666667,31.607499999999998,65.11000001024,5.363932291666667,63.82789358893179
1372752729.5,0.2572156666666667,31.609166666666667,65.09,5.372604166666666,63.82789358893179
1372752729.75,0.2572156666666667,31.61,65.06999998975999,5.474244791666667,63.82789358893179
1372752730.0,0.2572156666666667,31.61,65.05,5.114010416666667,63.82789358893179
1372752730.25,0.2572156666666667,31.61,65.03333334186667,4.774973958333333,63.82789358893179
1372752730.5,0.2572156666666667,31.61,65.01666666666667,4.840052083333333,63.82789358893179
1372752730.75,0.2572156666666667,31.61,64.99999999146667,4.87734375,63.82789358893179
1372752731.0,0.257269,31.61,64.98333333333333,4.63796875,63.82789358893179
1372752731.25,0.2573223333333334,31.61,64.96833334101333,4.580807291666667,63.82789358893179
1372752731.5,0.2574290000000001,31.61,64.95333333333333,4.7525,63.82789358893179
1372752731.75,0.2574823333333333,31.609166666666667,64.93833332565333,4.675755208333333,63.82789358893179
1372752732.0,0.25753566666666666,31.607499999999998,64.92333333333333,4.585052083333333,63.82789358893179
1372752732.25,0.25753566666666666,31.605833333333337,64.90583334229333,4.776666666666666,63.82789358893179
1372752732.5,0.257589,31.604166666666668,64.88833333333334,4.830364583333334,63.82789358893179
1372752732.75,0.25764233333333336,31.602500000000003,64.87083332437334,4.666015625000001,63.82789358893179
1372752733.0,0.257749,31.60083333333333,64.85333333333334,4.635026041666666,63.82789358893179
1372752733.25,0.25785566666666665,31.599166666666665,64.82833334613333,4.819895833333334,63.82789358893179
1372752733.5,0.25796233333333335,31.5975,64.80333333333334,4.8740625,63.82789358893179
1372752733.75,0.258069,31.59583333333333,64.77833332053333,4.694817708333334,63.82789358893179
1372752734.0,0.25817566666666664,31.594166666666666,64.75333333333333,4.656171875,63.82789358893179
1372752734.25,0.25828233333333334,31.5925,64.72000001706667,4.7726822916666665,63.82789358893179
1372752734.5,0.25828233333333334,31.590833333333336,64.68666666666667,4.725052083333334,63.82789358893179
1372752734.75,0.2583356666666667,31.590833333333332,64.65333331626665,4.501614583333333,63.82789358893179
1372752735.0,0.258389,31.5925,64.61999999999999,4.308854166666667,63.82789358893179
1372752735.25,0.258549,31.594166666666666,64.57916668757332,4.2931510416666665,63.82789358893179
1372752735.5,0.2586023333333333,31.59583333333333,64.53833333333333,4.29625,63.82789358893179
1372752735.75,0.2586556666666667,31.597499999999997,64.49749997909333,4.142942708333334,63.82789358893179
1372752736.0,0.258709,31.599166666666665,64.45666666666666,4.043020833333333,63.82789358893179
1372752736.25,0.2587623333333333,31.600833333333338,64.41333335552,4.056770833333333,63.82789358893179
1372752736.5,0.2588156666666666,31.602499999999996,64.37,3.936875,63.82789358893179
1372752736.75,0.2589223333333333,31.604166666666668,64.32666664448,3.7435677083333334,63.82789358893179
1372752737.0,0.259029,31.605833333333333,64.28333333333333,3.779375,63.82789358893179
1372752737.25,0.25908233333333336,31.6075,64.23750002346667,3.8960156250000004,63.82789358893179
1372752737.5,0.2592423333333333,31.609166666666663,64.19166666666666,3.84515625,63.82789358893179
1372752737.75,0.25945566666666664,31.609166666666667,64.14583330986667,3.8713802083333335,63.82789358893179
1372752738.0,0.259669,31.607499999999998,64.10000000000001,4.075911458333333,63.82789358893179
1372752738.25,0.259829,31.605833333333333,64.05416669013334,4.154661458333334,63.82789358893179
1372752738.5,0.2600423333333333,31.604166666666668,64.00833333333334,4.11578125,63.82789358893179
1372752738.75,0.26025566666666666,31.602500000000003,63.96249997653334,4.229817708333333,63.82789358893179
1372752739.0,0.26041566666666666,31.60083333333333,63.916666666666664,4.48734375,63.82789358893179
1372752739.25,0.26057566666666665,31.599166666666665,63.8708333568,4.588671875,63.82789358893179
1372752739.5,0.26073566666666664,31.5975,63.824999999999996,4.669322916666666,63.82789358893179
1372752739.75,0.26084233333333334,31.595833333333335,63.77916664319999,4.931458333333333,63.82789358893179
1372752740.0,0.26094899999999993,31.594166666666666,63.73333333333333,5.071901041666666,63.82789358893179
1372752740.25,0.26105566666666663,31.592499999999998,63.68750002346666,5.03375,63.82789358893179
1372752740.5,0.26105566666666663,31.590833333333336,63.64166666666666,5.075729166666666,63.82789358893179
1372752740.75,0.2610023333333333,31.590833333333336,63.595833309866656,5.213385416666666,63.82789358893179
1372752741.0,0.26089566666666664,31.592499999999998,63.54999999999999,5.389661458333333,63.82789358893179
1372752741.25,0.260789,31.594166666666666,63.50333335722666,5.4445572916666665,63.82789358893179
1372752741.5,0.2606823333333333,31.595833333333335,63.45666666666666,5.433723958333334,63.82789358893179
1372752741.75,0.2605756666666666,31.596666666666664,63.40999997610667,5.491250000000001,63.82789358893179
1372752742.0,0.260469,31.596666666666668,63.36333333333334,5.470729166666666,63.822666074165134
1372752742.25,0.26041566666666666,31.596666666666664,63.315000024746666,5.335442708333333,63.811515352270966
1372752742.5,0.2603623333333333,31.596666666666668,63.266666666666666,5.210677083333334,63.788446569169565
1372752742.75,0.26041566666666666,31.596666666666664,63.218333308586665,5.194609375000001,63.733399004629824
1372752743.0,0.260469,31.596666666666668,63.169999999999995,5.056276041666667,63.665812318764615
1372752743.25,0.26062895833333327,31.596666666666668,63.120833358506665,4.7771614583333335,63.59748252036143
1372752743.5,0.2608955416666667,31.596666666666664,63.071666666666665,4.507526041666667,63.542344713282574
1372752743.75,0.26116212499999997,31.59583333333333,63.022499974826665,4.356380208333333,63.531889683749256
1372752744.0,0.2614820416666666,31.594166666666666,62.973333333333336,4.0216666666666665,63.52143465421594
1372752744.25,0.2618019583333333,31.5925,62.92583335765333,3.606588541666666,63.51097962468262
1372752744.5,0.262121875,31.590833333333332,62.87833333333333,3.413854166666667,63.500524595149294
1372752744.75,0.26244179166666665,31.59,62.830833309013336,3.2978124999999996,63.49006956561596
1372752745.0,0.26276170833333334,31.59,62.78333333333333,2.9829166666666667,63.484842050849316
1372752745.25,0.2630282916666667,31.59,62.737500023466666,2.6570052083333335,63.48553774321015
1372752745.5,0.263294875,31.59,62.69166666666666,2.5943489583333332,63.49815149677824
1372752745.75,0.2634547916666667,31.59,62.64583330986667,2.4164322916666667,63.54274403178466
1372752746.0,0.26361470833333334,31.59,62.6,2.19125,63.59987568811655
1372752746.25,0.263668,31.59,62.55833335466667,2.4142968750000002,63.65775045698641
1372752746.5,0.263668,31.59,62.516666666666666,2.7806510416666668,63.702433234531945
1372752746.75,0.263668,31.590833333333332,62.474999978666666,2.7528385416666663,63.702433234531945
1372752747.0,0.263668,31.5925,62.43333333333334,2.870052083333334,63.702433234531945
1372752747.25,0.263668,31.594166666666666,62.4041666816,3.3561979166666664,63.702433234531945
1372752747.5,0.263668,31.595833333333335,62.375,3.5803385416666664,63.702433234531945
1372752747.75,0.26372133333333336,31.597499999999997,62.345833318400004,3.5719270833333336,63.702433234531945
1372752748.0,0.26377466666666666,31.599166666666665,62.31666666666667,4.030520833333333,63.702433234531945
1372752748.25,0.263828,31.600833333333338,62.302500007253336,4.579739583333333,63.703779548788496
1372752748.5,0.2639346666666667,31.602500000000003,62.288333333333334,4.640703125,63.71858900561054
1372752748.75,0.26404133333333335,31.604166666666668,62.27416665941333,4.8015625,63.72666689114985
1372752749.0,0.264148,31.605833333333333,62.26,5.274114583333334,63.732052148176045
1372752749.25,0.26430800000000004,31.6075,62.26,5.178671875,63.732052148176045
1372752749.5,0.26452133333333333,31.609166666666667,62.26,4.919036458333333,63.73205214817605
1372752749.75,0.2647346666666667,31.61,62.26,5.186223958333334,63.732052148176045
1372752750.0,0.26489466666666667,31.61,62.26,5.198489583333333,63.732052148176045
1372752750.25,0.265108,31.61,62.265833330346666,4.784947916666667,63.732052148176045
1372752750.5,0.26532133333333335,31.61,62.27166666666666,4.795182291666667,63.732052148176045
1372752750.75,0.26548133333333335,31.61,62.27750000298666,4.98921875,63.732052148176045
1372752751.0,0.26564133333333334,31.61,62.28333333333333,4.594114583333333,63.732052148176045
1372752751.25,0.26580133333333333,31.61,62.295833326933334,4.21609375,63.7307058339195
1372752751.5,0.26590800000000003,31.61,62.30833333333334,4.454088541666667,63.715896377097444
1372752751.75,0.266068,31.609166666666667,62.32083333973333,4.4956249999999995,63.707818491558136
1372752752.0,0.2661746666666667,31.6075,62.333333333333336,4.087760416666667,63.702433234531945
1372752752.25,0.2662813333333333,31.605833333333333,62.35333332309334,4.183359375,63.702433234531945
1372752752.5,0.266388,31.604166666666668,62.373333333333335,4.498723958333334,63.702433234531945
1372752752.75,0.26644133333333336,31.602500000000003,62.39333334357333,4.264973958333333,63.702433234531945
1372752753.0,0.26660133333333336,31.60083333333333,62.413333333333334,4.20609375,63.702433234531945
1372752753.25,0.266708,31.599166666666665,62.44249998506667,4.663020833333333,63.702433234531945
1372752753.5,0.2668146666666667,31.597499999999997,62.471666666666664,4.764088541666666,63.702433234531945
1372752753.75,0.26692133333333334,31.595833333333335,62.50083334826667,4.5476302083333335,63.702433234531945
1372752754.0,0.267028,31.594166666666666,62.53,4.8871093750000005,63.702433234531945
1372752754.25,0.2671346666666667,31.5925,62.56583331498666,5.371874999999999,63.702433234531945
1372752754.5,0.26724133333333333,31.590833333333332,62.60166666666666,5.252109375,63.702433234531945
1372752754.75,0.2672946666666667,31.589166666666667,62.637500018346664,5.152005208333333,63.702433234531945
1372752755.0,0.2674013333333333,31.587499999999995,62.673333333333325,5.674765625,63.702433234531945
1372752755.25,0.2674546666666667,31.58583333333333,62.71166664703999,5.968020833333333,63.702433234531945
1372752755.5,0.2674546666666667,31.584166666666665,62.74999999999999,5.777317708333334,63.702433234531945
1372752755.75,0.2675613333333334,31.583333333333332,62.788333352959995,6.023333333333333,63.702433234531945
1372752756.0,0.267668,31.583333333333332,62.82666666666666,6.503645833333333,63.702433234531945
1372752756.25,0.267828,31.583333333333332,62.86666664618666,6.476666666666667,63.702433234531945
1372752756.5,0.26804133333333335,31.583333333333332,62.90666666666666,6.380260416666666,63.702433234531945
1372752756.75,0.2682546666666667,31.583333333333332,62.94666668714666,6.787187499999999,63.702433234531945
1372752757.0,0.26846800000000004,31.583333333333332,62.98666666666666,7.013177083333333,63.702433234531945
1372752757.25,0.2687346666666667,31.583333333333332,63.02416664746666,6.869947916666667,63.702433234531945
1372752757.5,0.26900133333333337,31.583333333333332,63.06166666666666,6.9959375,63.702433234531945
1372752757.75,0.2693213333333333,31.584166666666665,63.09916668586666,7.3738020833333335,63.702433234531945
1372752758.0,0.26964133333333334,31.585833333333337,63.13666666666666,7.349036458333333,63.702433234531945
1372752758.25,0.26996133333333333,31.587500000000002,63.17416664746666,7.116901041666668,63.702433234531945
1372752758.5,0.2702813333333333,31.589166666666667,63.211666666666666,7.294687499999999,63.702433234531945
1372752758.75,0.2704946666666666,31.59,63.24916668586667,7.4996093749999995,63.702433234531945
1372752759.0,0.2706013333333333,31.59,63.28666666666667,7.282786458333334,63.702433234531945
1372752759.25,0.27065466666666665,31.59,63.31999998293333,7.024583333333333,63.702433234531945
1372752759.5,0.27065466666666665,31.59,63.35333333333333,7.1679427083333325,63.702433234531945
1372752759.75,0.27065466666666665,31.59,63.38666668373333,7.206432291666666,63.702433234531945
1372752760.0,0.27065466666666665,31.59,63.419999999999995,6.9250260416666665,63.702433234531945
1372752760.25,0.2706013333333333,31.59,63.45083331754666,6.707343750000001,63.702433234531945
1372752760.5,0.27054799999999996,31.59,63.48166666666666,6.756145833333334,63.702433234531945
1372752760.75,0.2704413333333333,31.59,63.512500015786664,6.694296875,63.702433234531945
1372752761.0,0.27033466666666667,31.59,63.54333333333333,6.393229166666667,63.702433234531945
1372752761.25,0.27022799999999997,31.59,63.569999986346666,6.252994791666667,63.702433234531945
1372752761.5,0.2701213333333333,31.59,63.596666666666664,6.2563281250000005,63.702433234531945
1372752761.75,0.270068,31.59,63.62333334698666,6.027578125000001,63.702433234531945
1372752762.0,0.270068,31.59,63.65,5.706692708333333,63.702433234531945
1372752762.25,0.270068,31.59,63.673333321386664,5.804192708333333,63.702433234531945
1372752762.5,0.270068,31.59,63.69666666666667,5.948385416666667,63.702433234531945
1372752762.75,0.270068,31.59,63.720000011946674,5.652838541666667,63.702433234531945
1372752763.0,0.270068,31.59,63.74333333333334,5.347760416666667,63.702433234531945
1372752763.25,0.270068,31.59,63.76583332181334,5.566145833333333,63.702433234531945
1372752763.5,0.270068,31.59,63.78833333333334,5.641875,63.702433234531945
1372752763.75,0.270068,31.59,63.810833344853336,5.271354166666667,63.702433234531945
1372752764.0,0.270068,31.59,63.833333333333336,5.193880208333334,63.702433234531945
1372752764.25,0.270068,31.59,63.855833321813336,5.573906249999999,63.702433234531945
1372752764.5,0.270068,31.59,63.87833333333333,5.657604166666666,63.702433234531945
1372752764.75,0.270068,31.590833333333336,63.900833344853325,5.392578125,63.702433234531945
1372752765.0,0.270068,31.5925,63.923333333333325,5.528984375,63.702433234531945
1372752765.25,0.270068,31.594166666666666,63.94749998762666,5.826171875000001,63.702433234531945
1372752765.5,0.270068,31.59583333333333,63.971666666666664,5.582395833333333,63.702433234531945
1372752765.75,0.270068,31.5975,63.995833345706664,5.459088541666667,63.702433234531945
1372752766.0,0.270068,31.599166666666665,64.02,5.917005208333333,63.702433234531945
1372752766.25,0.2700146666666667,31.60083333333333,64.0449999872,6.064817708333334,63.702433234531945
1372752766.5,0.26996133333333333,31.602500000000003,64.07,5.751692708333334,63.702433234531945
1372752766.75,0.269908,31.603333333333335,64.09500001279999,5.882369791666666,63.702433234531945
1372752767.0,0.2698013333333333,31.603333333333335,64.11999999999999,6.372083333333333,63.702433234531945
1372752767.25,0.2696946666666667,31.603333333333335,64.1449999872,6.328229166666667,63.702433234531945
1372752767.5,0.269588,31.603333333333335,64.16999999999999,6.007838541666666,63.702433234531945
1372752767.75,0.26948133333333335,31.602499999999996,64.1950000128,6.329114583333333,63.702433234531945
1372752768.0,0.26937466666666665,31.60083333333333,64.22,6.875260416666666,63.702433234531945
1372752768.25,0.269268,31.599166666666665,64.24333332138667,6.777213541666666,63.702433234531945
1372752768.5,0.2691613333333333,31.5975,64.26666666666667,6.7371614583333335,63.702433234531945
1372752768.75,0.2690546666666667,31.59583333333333,64.29000001194666,7.23390625,63.702433234531945
1372752769.0,0.268948,31.594166666666666,64.31333333333333,7.3617187500000005,63.702433234531945
1372752769.25,0.26889466666666667,31.5925,64.33499998890666,7.0746093750000005,63.702433234531945
1372752769.5,0.268788,31.590833333333336,64.35666666666665,7.208541666666666,63.702433234531945
1372752769.75,0.26862800000000003,31.589166666666667,64.37833334442666,7.6415625,63.702433234531945
1372752770.0,0.26852133333333333,31.587500000000002,64.39999999999999,7.428489583333334,63.702433234531945
1372752770.25,0.2684146666666667,31.58583333333333,64.42166665557333,7.140390625000001,63.702433234531945
1372752770.5,0.26830800000000005,31.584166666666665,64.44333333333333,7.589609375000001,63.702433234531945
1372752770.75,0.26820133333333335,31.5825,64.46500001109332,7.726432291666666,63.702433234531945
1372752771.0,0.2680946666666667,31.58083333333333,64.48666666666666,7.187734375000001,63.702433234531945
1372752771.25,0.26804133333333335,31.57916666666667,64.51166665386667,7.131119791666666,63.702433234531945
1372752771.5,0.26798800000000006,31.5775,64.53666666666666,7.523020833333333,63.702433234531945
1372752771.75,0.2679346666666667,31.576666666666668,64.56166667946665,7.2103125,63.702433234531945
1372752772.0,0.2679346666666667,31.576666666666664,64.58666666666666,6.920156249999999,63.702433234531945
1372752772.25,0.2679346666666667,31.576666666666668,64.61583331839999,7.426874999999999,63.702433234531945
1372752772.5,0.267988,31.576666666666668,64.645,7.760416666666667,63.702433234531945
1372752772.75,0.2680946666666667,31.5775,64.6741666816,7.317291666666667,63.702433234531945
