timestamp,EDA,TEMP,HR,BVP,ACC_mag
1373551499.0,0.28378925000000005,31.79,,11.168333333333335,65.03076195155643
1373551499.25,0.28375878571428576,31.79,,10.560714285714285,65.03076195155643
1373551499.5,0.28373593750000003,31.79,,10.2045703125,65.03076195155643
1373551499.75,0.2837181666666667,31.79111111111111,,10.434340277777778,65.03076195155643
1373551500.0,0.28357590000000005,31.793,,10.31053125,65.03076195155643
1373551500.25,0.28345950000000003,31.794545454545457,,9.750056818181818,65.03076195155643
1373551500.5,0.2832557916666667,31.795833333333334,,9.304895833333333,65.03076195155643
1373551500.75,0.28309575000000003,31.797499999999996,,9.508463541666666,65.03076195155643
1373551501.0,0.282669,31.799166666666665,,9.837109375,65.03076195155643
1373551501.25,0.28218891666666673,31.80083333333333,,9.259739583333333,65.03076195155643
1373551501.5,0.2816555,31.802499999999995,,7.872682291666667,65.03076195155643
1373551501.75,0.2811220833333334,31.804166666666664,,6.965494791666667,65.03076195155643
1373551502.0,0.2805352916666667,31.80583333333333,,6.822734375,65.03076195155643
1373551502.25,0.2799484583333333,31.8075,,7.234244791666668,65.03076195155643
1373551502.5,0.279361625,31.809166666666666,,7.622760416666668,65.03076195155643
1373551502.75,0.278668125,31.81,,7.733723958333333,65.03076195155643
1373551503.0,0.27808133333333335,31.81,,8.325026041666668,65.03076195155643
1373551503.25,0.277387875,31.81,,9.345416666666667,65.03076195155643
1373551503.5,0.276801125,31.81,,10.040182291666667,65.03076195155643
1373551503.75,0.27632104166666666,31.81,,9.691328125,65.03076195155643
1373551504.0,0.2758942916666666,31.81,,8.875052083333333,65.03076195155643
1373551504.25,0.275520875,31.81,,8.744088541666667,65.03076195155643
1373551504.5,0.27520079166666667,31.81,,9.055390625,65.03076195155643
1373551504.75,0.27488070833333333,31.81,,9.258958333333334,65.03076195155643
1373551505.0,0.27461399999999997,31.81,,9.041901041666668,65.03076195155643
1373551505.25,0.27445400000000003,31.81,,8.294192708333332,65.04010670943443
1373551505.5,0.27434733333333333,31.81,,7.581302083333333,65.07065512867594
1373551505.75,0.2744006666666667,31.81,,6.837552083333333,65.10132302829372
1373551506.0,0.274454,31.81,,5.697031249999999,65.1319909279115
1373551506.25,0.2746673333333333,31.81,,4.639401041666667,65.16265882752928
1373551506.5,0.27488066666666666,31.81,,4.098984375,65.19332672714707
1373551506.75,0.275094,31.809166666666666,,4.406276041666667,65.22399462676485
1373551507.0,0.27530733333333335,31.807499999999994,,5.128671875,65.25466252638263
1373551507.25,0.2755206666666667,31.80583333333333,,5.691432291666666,65.28533042600041
1373551507.5,0.275734,31.804166666666664,,6.120885416666667,65.3159983256182
1373551507.75,0.2759473333333333,31.8025,,7.0695572916666665,65.34666622523598
1373551508.0,0.27616066666666667,31.800833333333333,,7.96453125,65.37733412485376
1373551508.25,0.27632066666666666,31.799166666666668,,8.694244791666666,65.39865726659353
1373551508.5,0.2764273333333333,31.7975,,9.817864583333334,65.39877674696982
1373551508.75,0.27648066666666665,31.796666666666667,,10.566484375,65.39877674696982
1373551509.0,0.276534,31.796666666666667,66.75,11.372838541666667,65.39877674696982
1373551509.25,0.276534,31.796666666666667,66.82666662741333,12.696692708333332,65.39877674696982
1373551509.5,0.276534,31.796666666666667,66.90333333333334,13.403723958333332,65.39877674696982
1373551509.75,0.276534,31.7975,66.98000003925334,13.559192708333335,65.39877674696982
1373551510.0,0.276534,31.799166666666668,67.05666666666667,14.237083333333333,65.39877674696982
1373551510.25,0.276534,31.800833333333333,67.20249992533334,14.677343749999999,65.39877674696982
1373551510.5,0.276534,31.8025,67.34833333333333,15.063151041666666,65.39877674696982
1373551510.75,0.276534,31.80333333333333,67.49416674133333,15.299921875,65.39877674696982
1373551511.0,0.276534,31.80333333333333,67.64,15.227239583333334,65.39877674696982
1373551511.25,0.276534,31.80333333333333,67.80666658133333,15.762395833333331,65.39877674696982
1373551511.5,0.276534,31.80333333333333,67.97333333333333,15.692317708333334,65.39877674696982
1373551511.75,0.27658737499999997,31.8025,68.14000008533334,15.453880208333336,65.39877674696982
1373551512.0,0.2767474583333333,31.80083333333333,68.30666666666667,15.815442708333334,65.39877674696982
1373551512.25,0.27701420833333334,31.799166666666665,68.55666653866666,15.342005208333333,65.39877674696982
1373551512.5,0.2773342916666666,31.7975,68.80666666666667,14.824557291666666,65.39877674696982
1373551512.75,0.277654375,31.79583333333333,69.05666679466667,15.373619791666664,65.39877674696982
1373551513.0,0.2780277916666667,31.794166666666666,69.30666666666666,15.088619791666668,65.39877674696982
1373551513.25,0.27845454166666667,31.7925,69.66666648234666,14.69359375,65.39877674696982
1373551513.5,0.27893466666666666,31.790833333333335,70.02666666666667,14.710182291666667,65.39877674696982
1373551513.75,0.2794681666666667,31.79,70.38666685098667,13.762786458333332,65.39722322241201
1373551514.0,0.28000166666666665,31.79,70.74666666666667,13.097031249999999,65.39108724760148
1373551514.25,0.28053516666666667,31.79,71.17333311488001,12.27484375,65.37593438154401
1373551514.5,0.2810686666666667,31.79,71.6,11.362526041666667,65.3460264871119
1373551514.75,0.2815487916666667,31.79,72.02666688512,11.350286458333331,65.31535858749412
1373551515.0,0.2819222083333333,31.79,72.45333333333333,11.022369791666668,65.28469068787633
1373551515.25,0.28218895833333335,31.79,72.84166646784,10.723020833333335,65.25402278825855
1373551515.5,0.28240237500000004,31.79,73.22999999999999,10.802916666666667,65.22335488864077
1373551515.75,0.28261579166666667,31.79,73.61833353216,9.873671875,65.19268698902299
1373551516.0,0.282775875,31.79,74.00666666666666,9.484635416666666,65.17365665345918
1373551516.25,0.28282925000000003,31.79,74.31749984085333,9.819531249999999,65.15350801985562
1373551516.5,0.28282925000000003,31.79,74.62833333333333,9.340651041666666,65.12520003738241
1373551516.75,0.282775875,31.79,74.93916682581333,9.664140625,65.09295973642979
1373551517.0,0.28272250000000004,31.79,75.25,10.736145833333333,65.07402749642867
1373551517.25,0.282669125,31.79,75.48249988095999,12.036536458333332,65.07247023990863
1373551517.5,0.282669125,31.79,75.715,14.177447916666667,65.08202877846439
1373551517.75,0.28272245833333337,31.79,75.94750011904,15.216015624999999,65.09602649924837
1373551518.0,0.2827757916666667,31.79,76.17999999999999,15.069947916666665,65.09942607008516
1373551518.25,0.28293579166666666,31.79,76.37499990015999,16.1903125,65.09942607008516
1373551518.5,0.2832558333333334,31.79,76.57,17.672890624999997,65.09942607008516
1373551518.75,0.28368258333333335,31.79,76.76500009984,19.384453125,65.09942607008516
1373551519.0,0.2841093333333334,31.79,76.96,19.993828124999997,65.08778850603119
1373551519.25,0.2846427916666667,31.79,77.12749991423999,19.384895833333335,65.07726924001696
1373551519.5,0.2852295833333333,31.79,77.29499999999999,19.689895833333335,65.07490932287239
1373551519.75,0.285816375,31.79,77.46250008576,19.915520833333332,65.07803524876503
1373551520.0,0.2864031666666667,31.79,77.63,18.911223958333334,65.0724355639589
1373551520.25,0.2870432916666667,31.79,77.79833324714667,17.535416666666666,65.05847778691863
1373551520.5,0.287683375,31.79,77.96666666666667,15.223802083333332,65.0481592431772
1373551520.75,0.288270125,31.79,78.13500008618666,13.785338541666667,65.03416152239323
1373551521.0,0.288856875,31.79,78.30333333333334,13.362890625,65.03076195155643
1373551521.25,0.2893902916666667,31.79,78.45833325397334,11.500572916666668,65.03076195155643
1373551521.5,0.289817,31.79,78.61333333333334,9.599791666666667,65.03076195155643
1373551521.75,0.29019037500000006,31.79,78.76833341269334,7.749635416666666,65.03076195155643
1373551522.0,0.2906704583333333,31.79,78.92333333333333,6.495442708333333,65.03076195155643
1373551522.25,0.29115054166666665,31.79,79.069166592,6.327500000000001,65.03076195155643
1373551522.5,0.2915772916666667,31.79,79.215,5.379348958333334,65.0415185346962
1373551522.75,0.29200404166666666,31.79,79.36083340799999,4.476588541666667,65.05751299177327
1373551523.0,0.2924307916666667,31.79,79.50666666666666,4.708385416666666,65.07350744885035
1373551523.25,0.2928042083333333,31.79,79.64999992661333,4.800703124999999,65.08950190592742
1373551523.5,0.29312429166666665,31.79,79.79333333333332,5.133177083333334,65.10549636300449
1373551523.75,0.29344437500000004,31.79,79.93666674005333,5.355130208333333,65.12149082008156
1373551524.0,0.29360441666666665,31.79,80.08,6.173203125000001,65.14155298897107
1373551524.25,0.293284375,31.79,80.21666659669333,7.146953125,65.18468886208474
1373551524.5,0.2906172083333333,31.79,80.35333333333334,6.36203125,65.30229361817872
1373551524.75,0.28581625,31.79,80.49000006997335,5.0546614583333325,65.46701530047532
1373551525.0,0.2804285,31.79,80.62666666666668,4.831067708333333,65.6295701666587
1373551525.25,0.27408058333333335,31.79,80.74916660394668,3.2607812499999995,65.81072280729956
1373551525.5,0.2677326666666667,31.79,80.87166666666667,3.4346874999999994,65.9480278513319
1373551525.75,0.26138475,31.79,80.99416672938666,4.142473958333333,66.07693061904065
1373551526.0,0.25455675,31.79,81.11666666666666,2.9457812499999996,66.17619484495624
1373551526.25,0.24772874999999997,31.79,81.22499994453332,2.947057291666667,66.26479593335753
1373551526.5,0.24090075,31.79,81.33333333333333,3.7412499999999995,66.37773756476606
1373551526.75,0.23407275000000002,31.789166666666663,81.44166672213333,4.4945312500000005,66.45546747423126
1373551527.0,0.22745812499999998,31.787499999999998,81.55,4.334479166666667,66.4940227009347
1373551527.25,0.22127025,31.785833333333333,81.64666661717334,4.646744791666666,66.51302470659033
1373551527.5,0.21737616666666668,31.784166666666664,81.74333333333334,6.462031249999999,66.43156980596555
1373551527.75,0.2158292083333333,31.7825,81.84000004949333,8.17078125,66.3241841157152
1373551528.0,0.21545579166666665,31.780833333333334,81.93666666666667,7.410052083333333,66.22285703866604
1373551528.25,0.21652266666666664,31.77916666666667,82.03249995093334,8.972369791666667,66.08346343100492
1373551528.5,0.21764291666666666,31.7775,82.12833333333333,7.654140625,65.96905303339305
1373551528.75,0.21876316666666665,31.7775,82.22416671573333,4.903072916666667,65.85601809302787
1373551529.0,0.22052349999999998,31.77916666666667,82.32000000000001,3.5366927083333337,65.77166618661356
1373551529.25,0.22265720833333333,31.780833333333334,82.40749995520001,-0.17671875000000017,65.69227982702536
1373551529.5,0.22548441666666666,31.7825,82.495,-3.16375,65.58364730818326
1373551529.75,0.229005125,31.785833333333333,82.5825000448,-6.146927083333334,65.51453478179921
1373551530.0,0.23273920833333336,31.790833333333335,82.67,-8.233203125000001,65.48156548781223
1373551530.25,0.23668666666666668,31.79583333333333,82.74999995904,-11.149036458333333,65.44686836368697
1373551530.5,0.24079416666666667,31.800833333333333,82.83000000000001,-13.894270833333332,65.44138640783557
1373551530.75,0.244741625,31.805833333333336,82.91000004096001,-14.496302083333333,65.41376219273066
1373551531.0,0.248155625,31.81083333333333,82.99000000000001,-11.55046875,65.37630909755089
1373551531.25,0.25135625,31.81583333333333,83.06333329578668,-11.49078125,65.35832475852558
1373551531.5,0.2548769166666667,31.820833333333336,83.13666666666668,-10.863333333333335,65.34868740754942
1373551531.75,0.25855758333333334,31.825,83.21000003754668,-9.065885416666667,65.3404802247684
1373551532.0,0.26213158333333336,31.828333333333333,83.28333333333335,-7.829192708333334,65.33322854982966
1373551532.25,0.2653322083333333,31.831666666666663,83.35083329877334,-5.776015625,65.33287038872736
1373551532.5,0.26794604166666663,31.834999999999997,83.41833333333335,-5.2739062500000005,65.33849397866366
1373551532.75,0.27002641666666666,31.836666666666662,83.48583336789335,-4.477890625,65.34024767254526
1373551533.0,0.27189341666666667,31.83666666666667,83.55333333333334,-4.4363802083333335,65.34000856250199
1373551533.25,0.27365375,31.83666666666667,83.61583330133334,-3.178046875,65.33813619049329
1373551533.5,0.27541408333333334,31.836666666666662,83.67833333333334,-2.0903125,65.33112339251512
1373551533.75,0.2771210833333333,31.837500000000002,83.74083336533333,-2.8281510416666666,65.32701979696685
1373551534.0,0.2786680833333333,31.839166666666667,83.80333333333333,-6.02828125,65.32977002812483
1373551534.25,0.279895,31.840833333333336,83.86666663423999,-8.211041666666668,65.33184270019314
1373551534.5,0.2807485,31.842499999999998,83.93,-9.240078125,65.3318824989509
1373551534.75,0.28144199999999997,31.843333333333334,83.99333336576001,-10.371796875,65.33411422594513
1373551535.0,0.2820821666666667,31.843333333333334,84.05666666666667,-10.666718750000001,65.32565386258433
1373551535.25,0.282669,31.843333333333334,84.12416663210666,-10.437109375,65.30876438305118
1373551535.5,0.283149125,31.843333333333334,84.19166666666666,-10.9365625,65.29151866966596
1373551535.75,0.28330916666666667,31.845000000000002,84.25916670122668,-11.857604166666668,65.24684368388147
1373551536.0,0.282349,31.848333333333333,84.32666666666667,-12.167291666666669,65.17748198870494
1373551536.25,0.27914837500000006,31.85166666666667,84.40083329536,-12.999791666666667,65.0698673494701
1373551536.5,0.2745607916666667,31.855,84.475,-13.972838541666667,64.9301597814117
1373551536.75,0.26981320833333333,31.857499999999998,84.54916670464,-14.220104166666667,64.78592061604401
1373551537.0,0.265065625,31.859166666666667,84.62333333333333,-12.653567708333334,64.64575680628478
1373551537.25,0.26031804166666667,31.860833333333332,84.706666624,-9.734114583333334,64.50627055561523
1373551537.5,0.25557045833333336,31.8625,84.78999999999999,-7.443437500000001,64.36481404109232
1373551537.75,0.2507161666666667,31.865,84.873333376,-6.792473958333335,64.21980493940248
1373551538.0,0.245861875,31.868333333333336,84.95666666666666,-6.982473958333333,64.0886388883688
1373551538.25,0.24106091666666665,31.87166666666667,85.0483332864,-6.689010416666666,63.96769294469066
1373551538.5,0.23625995833333335,31.875,85.14,-5.424817708333332,63.841608661315014
1373551538.75,0.2316190416666667,31.877499999999998,85.2316667136,-4.251458333333333,63.74828356977758
1373551539.0,0.22740487500000003,31.879166666666666,85.32333333333334,-4.816197916666667,63.6813786828611
1373551539.25,0.22420425,31.88083333333333,85.41749995178667,-5.479296874999999,63.65273087970858
1373551539.5,0.22169708333333335,31.882500000000004,85.51166666666667,-4.567057291666667,63.66155483442879
1373551539.75,0.21924325,31.883333333333336,85.60583338154667,-3.934635416666667,63.685913318632736
1373551540.0,0.21652270833333334,31.883333333333336,85.7,-5.401666666666667,63.71573823117368
1373551540.25,0.2135887916666667,31.883333333333336,85.78833328810667,-7.0824218750000005,63.72857057140367
1373551540.5,0.210654875,31.883333333333336,85.87666666666667,-8.709114583333333,63.74154237468158
1373551540.75,0.20777429166666664,31.882500000000004,85.96500004522666,-8.048463541666667,63.750085541012254
1373551541.0,0.20478700000000002,31.88083333333333,86.05333333333333,-6.856796875,63.753228117750915
1373551541.25,0.20179970833333336,31.879166666666666,86.12666662912,-5.282760416666666,63.76171659152549
1373551541.5,0.19881241666666663,31.8775,86.19999999999999,-3.5013802083333334,63.79117351215255
1373551541.75,0.19518500000000003,31.875833333333336,86.27333337087998,-3.7251041666666667,63.79652275401946
1373551542.0,0.18878370833333333,31.874166666666667,86.34666666666665,-1.3019791666666667,63.796478191010266
1373551542.25,0.17699470833333333,31.872500000000002,86.41083330048,2.206484375,63.81913594933621
1373551542.5,0.16205845833333332,31.870833333333337,86.475,3.4216145833333336,63.846276560128956
1373551542.75,0.14717554166666666,31.87,86.53916669952,4.90125,63.87997827670293
1373551543.0,0.13255933333333333,31.87,86.60333333333334,6.9347916666666665,63.913704472765154
1373551543.25,0.1181565,31.87,86.65749997226666,7.056354166666668,63.96591859009837
1373551543.5,0.10375366666666665,31.87,86.71166666666667,8.196744791666667,64.0210701920524
1373551543.75,0.08940420833333333,31.87,86.76583336106667,7.013255208333334,64.08241031323827
1373551544.0,0.0754815,31.87,86.82,6.153828125,64.14555551827047
1373551544.25,0.06491945833333333,31.87,86.86416664405333,5.211927083333333,64.19757681285778
1373551544.5,0.058304875,31.87,86.90833333333333,5.202760416666667,64.23353382291505
1373551544.75,0.053343916666666664,31.870833333333334,86.95250002261334,7.551041666666666,64.290458828772
1373551545.0,0.05222370833333334,31.8725,86.99666666666667,7.689869791666667,64.35010099051104
1373551545.25,0.05809154166666666,31.874166666666667,87.02833331712,5.302057291666667,64.38101139780598
1373551545.5,0.06785345833333332,31.875833333333333,87.06,4.015755208333333,64.40360934264226
1373551545.75,0.07772204166666667,31.87833333333333,87.09166668288,2.3481770833333333,64.40320861945182
1373551546.0,0.08769729166666666,31.88166666666667,87.12333333333333,1.3402343750000003,64.39110979450149
1373551546.25,0.09756587500000001,31.885,87.14583332181333,2.18125,64.37816381997605
1373551546.5,0.10743445833333333,31.888333333333335,87.16833333333332,2.099635416666667,64.36521610171766
1373551546.75,0.11730304166666666,31.892500000000002,87.19083334485333,4.07296875,64.35194438657071
1373551547.0,0.12706495833333334,31.897500000000004,87.21333333333332,5.751822916666668,64.34033251721101
1373551547.25,0.13373291666666667,31.902500000000003,87.23499998890667,6.232890625,64.33236217793524
1373551547.5,0.13682683333333334,31.9075,87.25666666666666,4.531484375,64.32779166045252
1373551547.75,0.13928066666666666,31.911666666666665,87.27833334442666,3.087265625,64.32528458692143
1373551548.0,0.141521125,31.915000000000003,87.3,3.0751562500000005,64.35044999376812
1373551548.25,0.14349483333333332,31.918333333333333,87.31916665685333,4.7785416666666665,64.38960559352499
1373551548.5,0.14610866666666666,31.921666666666667,87.33833333333334,6.224973958333333,64.42369678709177
1373551548.75,0.14978941666666667,31.924166666666668,87.35750000981334,8.108098958333334,64.46814322242831
1373551549.0,0.15395025,31.925833333333333,87.37666666666667,10.390859375,64.5104704774188
1373551549.25,0.158431125,31.9275,87.38833332736,12.575494791666666,64.55050160915191
1373551549.5,0.16333879166666668,31.929166666666664,87.4,15.338072916666667,64.59672624416864
1373551549.75,0.16867320833333332,31.93,87.41166667264,16.908541666666668,64.63901595755327
1373551550.0,0.17379425,31.93,87.42333333333333,17.02927083333333,64.6823806996356
1373551550.25,0.17864858333333333,31.93,87.42666666496,16.693984375,64.75389625336678
1373551550.5,0.18312950000000003,31.93,87.43,17.550677083333333,64.86213630303297
1373551550.75,0.1875037083333333,31.93,87.43333333504,18.290859375,64.92365818531302
1373551551.0,0.19203795833333334,31.93,87.43666666666667,18.011640625000002,64.94265882386124
1373551551.25,0.19657220833333333,31.93,87.43166666922667,17.279036458333334,64.9735353055808
1373551551.5,0.20046633333333333,31.93,87.42666666666668,16.916692708333333,65.02058916972317
1373551551.75,0.20334691666666668,31.926666666666666,87.42166666410667,17.107838541666666,65.06076934241337
1373551552.0,0.20564074999999996,31.919999999999998,87.41666666666667,14.416822916666666,65.10428379005644
1373551552.25,0.20772120833333332,31.913333333333338,87.40333334016,10.042239583333332,65.14944616157199
1373551552.5,0.2091615,31.906666666666666,87.39000000000001,5.146927083333333,65.18910377840238
1373551552.75,0.21017504166666667,31.900000000000002,87.37666665984001,0.7770312499999997,65.23297986734376
1373551553.0,0.21118858333333332,31.893333333333334,87.36333333333334,-1.471276041666667,65.27456562724474
1373551553.25,0.21252216666666668,31.886666666666667,87.34000001194667,-2.7183593750000004,65.27208135415937
1373551553.5,0.21385575,31.88,87.31666666666666,-4.173411458333334,65.2099383334179
1373551553.75,0.21508262499999997,31.875,87.29333332138667,-5.847083333333333,65.18821677488769
1373551554.0,0.21598941666666668,31.871666666666666,87.27,-5.412630208333334,65.18300285394541
1373551554.25,0.21678954166666667,31.86833333333333,87.23833334954666,-6.784375,65.14511205278444
1373551554.5,0.21737629166666664,31.865000000000006,87.20666666666666,-9.17828125,65.0646038189182
1373551554.75,0.21764295833333333,31.865,87.17499998378666,-12.622109375,64.96296246961776
1373551555.0,0.21785629166666667,31.868333333333336,87.14333333333333,-14.505208333333334,64.87116213913951
1373551555.25,0.21806962499999996,31.871666666666666,87.10333335381333,-14.795364583333333,64.77233072701306
1373551555.5,0.21865637500000001,31.875000000000004,87.06333333333333,-15.404583333333335,64.67714923275157
1373551555.75,0.21950983333333332,31.88,87.02333331285334,-14.627317708333331,64.59979406041505
1373551556.0,0.22036329166666668,31.886666666666667,86.98333333333333,-15.731770833333334,64.53206181861347
1373551556.25,0.22089670833333333,31.893333333333334,86.93750002346667,-15.356223958333333,64.46699626358176
1373551556.5,0.221430125,31.900000000000002,86.89166666666667,-13.70171875,64.4364040718486
1373551556.75,0.22153683333333332,31.905,86.84583330986666,-12.02609375,64.41540977441402
1373551557.0,0.22111012500000002,31.908333333333335,86.8,-11.889921874999999,64.36345523111642
1373551557.25,0.21828291666666666,31.911666666666672,86.75083335850667,-9.699427083333335,64.304986267295
1373551557.5,0.21326858333333334,31.914999999999996,86.70166666666667,-7.052838541666667,64.27730457171184
1373551557.75,0.20814758333333336,31.918333333333333,86.65249997482667,-4.965546875,64.31363671459135
1373551558.0,0.20249312500000002,31.921666666666667,86.60333333333334,-2.157291666666667,64.38647718460295
1373551558.25,0.19577179166666667,31.925,86.55750002346667,-0.8095572916666667,64.5595906746935
1373551558.5,0.18889041666666664,31.92833333333333,86.51166666666667,1.2703125000000002,64.71010126253783
1373551558.75,0.18174233333333334,31.92833333333333,86.46583330986667,3.2173177083333333,64.80512735561716
1373551559.0,0.17459424999999998,31.925,86.42,6.435494791666667,64.89017460968567
1373551559.25,0.16744616666666667,31.921666666666667,86.37500002304,6.400546875000001,64.9925512955726
1373551559.5,0.1602980833333333,31.918333333333333,86.33000000000001,4.2004166666666665,65.07207139473356
1373551559.75,0.15416354166666665,31.914999999999996,86.28499997696001,1.8148697916666665,65.14328087788458
1373551560.0,0.150109375,31.911666666666665,86.24000000000001,-3.2742968750000006,65.24922931722165
1373551560.25,0.14877574999999998,31.90833333333333,86.19333335722668,-6.1918750000000005,65.37098905270958
1373551560.5,0.14978929166666669,31.905,86.14666666666668,-6.5586197916666675,65.49112704579922
1373551560.75,0.15149629166666667,31.902500000000003,86.09999997610666,-7.867760416666667,65.55842865969683
1373551561.0,0.15443020833333335,31.900833333333335,86.05333333333333,-9.187786458333333,65.57567362512476
1373551561.25,0.15843100000000002,31.89916666666667,86.00333335893333,-7.751744791666666,65.49289188720613
1373551561.5,0.16243179166666666,31.897499999999997,85.95333333333333,-9.418645833333333,65.42546686719814
1373551561.75,0.16643258333333333,31.89916666666667,85.90333330773333,-14.156640625000001,65.39573829024502
1373551562.0,0.170433375,31.904166666666665,85.85333333333334,-18.077135416666668,65.36200086980209
1373551562.25,0.17443416666666667,31.909166666666664,85.80250002602666,-18.167135416666667,65.333294803514
1373551562.5,0.17864833333333333,31.91416666666667,85.75166666666667,-17.36916666666667,65.29774657237645
1373551562.75,0.18206233333333333,31.92,85.70083330730667,-16.982499999999998,65.24753002036891
1373551563.0,0.18387604166666668,31.926666666666666,85.64999999999999,-13.582864583333334,65.19108675448582
1373551563.25,0.1852096666666667,31.933333333333334,85.59833335978666,-12.244921875000001,65.11387088818886
1373551563.5,0.18638325,31.94,85.54666666666667,-13.963072916666668,65.03363259594576
1373551563.75,0.18713008333333334,31.946666666666662,85.49499997354667,-14.111796875000001,64.95381033667714
1373551564.0,0.18686337500000003,31.953333333333333,85.44333333333334,-15.16296875,64.86781071935172
1373551564.25,0.18659666666666666,31.959999999999997,85.39083336021334,-17.55390625,64.77951643188815
1373551564.5,0.186703375,31.96666666666667,85.33833333333334,-14.698671875,64.69883552591702
1373551564.75,0.18681008333333335,31.971666666666664,85.28583330645334,-9.277291666666667,64.59835310958756
1373551565.0,0.18691679166666667,31.974999999999998,85.23333333333333,-6.394244791666666,64.52077986704805
1373551565.25,0.1870235,31.978333333333335,85.1791666944,-7.300520833333334,64.42756482649936
1373551565.5,0.18654341666666666,31.981666666666666,85.125,-8.212838541666667,64.32957074491055
1373551565.75,0.18552987500000004,31.984166666666667,85.0708333056,-8.54171875,64.22513860017436
1373551566.0,0.18414291666666668,31.98583333333333,85.01666666666667,-9.786380208333332,64.09334579768041
1373551566.25,0.18270258333333333,31.987499999999997,84.96666669226667,-10.998854166666666,64.02529872529226
1373551566.5,0.181048875,31.989166666666662,84.91666666666666,-11.901458333333332,63.98267896775207
1373551566.75,0.179075125,31.990416666666665,84.86666664106666,-12.542369791666667,63.97028979816679
1373551567.0,0.17384741666666667,31.991249999999997,84.81666666666666,-11.233723958333334,63.96721354191931
1373551567.25,0.166432625,31.99208333333333,84.78416668330667,-10.551041666666666,63.976620416183664
1373551567.5,0.15864441666666668,31.992916666666662,84.75166666666667,-12.418958333333334,63.95665287246942
1373551567.75,0.15085620833333332,31.993750000000002,84.71916665002666,-15.591979166666667,63.98398772419936
1373551568.0,0.143068,31.994583333333335,84.68666666666667,-16.342005208333333,63.97597066979984
1373551568.25,0.13527979166666668,31.995416666666667,84.67666667178666,-15.634088541666666,64.00479913288119
1373551568.5,0.12786499999999998,31.99625,84.66666666666666,-15.83265625,64.11865283636133
1373551568.75,0.12258395833333334,31.997083333333332,84.65666666154667,-17.445182291666665,64.2880549989175
1373551569.0,0.11890325,31.99791666666667,84.64666666666666,-17.672552083333333,64.51623920215543
1373551569.25,0.11794308333333332,31.99875,84.6508333312,-17.817161458333334,64.68057763116501
1373551569.5,0.11874325000000001,31.999583333333334,84.655,-15.088932291666667,64.84990360521475
1373551569.75,0.11986345833333334,32.00125,84.6591666688,-11.025624999999998,64.98367697664476
1373551570.0,0.12461104166666666,32.003750000000004,84.66333333333334,-6.866822916666666,65.1307662460792
1373551570.25,0.13154570833333332,32.00625,84.66749999786667,-2.232265624999999,65.27830555844832
1373551570.5,0.138480375,32.00875,84.67166666666668,1.0099739583333343,65.43677524735448
1373551570.75,0.14541504166666666,32.01125,84.67583333546668,4.653463541666667,65.56107097393362
1373551571.0,0.14872233333333332,32.01375,84.68,8.483359375000001,65.69175205917308
1373551571.25,0.146748625,32.01625,84.67333333674667,12.853854166666666,65.78750377191606
1373551571.5,0.143601375,32.018750000000004,84.66666666666666,18.216354166666665,65.82053704836139
1373551571.75,0.13794695833333334,32.02,84.65999999658666,24.79010416666667,65.80573353227621
1373551572.0,0.1306922083333333,32.02,84.65333333333332,30.24283854166667,65.74894553912935
1373551572.25,0.119970125,32.02,84.64083333973332,35.429140624999995,65.73340750086199
1373551572.5,0.10684758333333333,32.02,84.62833333333333,37.60174479166667,65.69174797456223
1373551572.75,0.09372504166666666,32.018750000000004,84.61583332693334,36.880703125000004,65.65715126711704
1373551573.0,0.081242625,32.01625,84.60333333333334,33.57442708333333,65.62059216742713
1373551573.25,0.06876020833333334,32.01375,84.58416667648,30.708072916666666,65.56875884519593
1373551573.5,0.05627779166666667,32.01125,84.565,30.07875,65.5207194972184
1373551573.75,0.043795375,32.00875,84.54583332352,29.632994791666665,65.45511388588433
1373551574.0,0.03435354166666667,32.00625,84.52666666666666,27.301015625,65.40653618810526
1373551574.25,0.030139375,32.003750000000004,84.50416667818666,24.4328125,65.37658642098857
1373551574.5,0.02709875,32.00125,84.48166666666665,21.71947916666667,65.34722947850639
1373551574.75,0.025018333333333337,32.0,84.45916665514666,19.117161458333335,65.30244974835182
1373551575.0,0.023311333333333333,32.0,84.43666666666667,16.189062500000002,65.23521633496395
1373551575.25,0.023097958333333335,32.0,84.41083334656,12.635130208333335,65.09778123629793
1373551575.5,0.02437820833333333,32.0,84.38499999999999,7.838802083333333,64.93968708686597
1373551575.75,0.02965925,32.0,84.35916665344,4.821380208333333,64.79786219494092
1373551576.0,0.037127375,32.0,84.33333333333333,3.538177083333333,64.59485796711861
1373551576.25,0.0445955,32.0,84.30833334613332,1.6644010416666664,64.40825992371138
1373551576.5,0.052063625,32.0,84.28333333333333,-0.6332031250000003,64.2596137620882
1373551576.75,0.05953175,32.0,84.25833332053334,-1.4337760416666672,64.14395893531615
1373551577.0,0.06758666666666667,32.0,84.23333333333333,-1.4192968750000003,64.01580571210728
1373551577.25,0.07569491666666667,32.0,84.21250001066667,-3.0536718750000005,63.87142781581121
1373551577.5,0.07921558333333334,32.0,84.19166666666666,-4.987135416666667,63.69546005955085
1373551577.75,0.08273625,31.999583333333334,84.17083332266667,-6.86203125,63.53786913954075
1373551578.0,0.08625691666666667,31.99875,84.15,-8.030130208333334,63.43603454763336
1373551578.25,0.08913745833333335,31.99791666666667,84.12750001152,-7.939088541666667,63.40918596411049
1373551578.5,0.091377875,31.997083333333332,84.105,-5.413958333333333,63.42672140704044
1373551578.75,0.08961750000000002,31.996666666666666,84.08249998848001,-3.367630208333333,63.48050292308984
1373551579.0,0.08551004166666666,31.996666666666666,84.06,-2.7905729166666666,63.607736353443585
1373551579.25,0.08572341666666666,31.996666666666666,84.0350000128,-2.7226302083333334,63.74904776116379
1373551579.5,0.08652354166666666,31.996666666666666,84.00999999999999,-3.0152604166666666,63.86199580452827
1373551579.75,0.08940408333333333,31.99791666666667,83.9849999872,-4.858984375,63.96788152717546
1373551580.0,0.09393829166666667,32.000416666666666,83.96,-5.948437500000001,64.06151062874402
1373551580.25,0.0984725,32.002916666666664,83.93416667989332,-4.58828125,64.14478045269303
1373551580.5,0.10759429166666666,32.00541666666667,83.90833333333333,-3.3749479166666663,64.28618773626064
1373551580.75,0.11671608333333333,32.00833333333333,83.88249998677334,-2.2916145833333332,64.43863406345655
1373551581.0,0.12583787500000002,32.01166666666666,83.85666666666667,-1.4319791666666666,64.54736266871433
1373551581.25,0.13495966666666667,32.01499999999999,83.83416667818666,-2.3038541666666665,64.6086246435536
1373551581.5,0.14381475000000002,32.01833333333334,83.81166666666667,-5.308098958333334,64.62189134507193
1373551581.75,0.15266983333333334,32.02125,83.78916665514667,-7.604322916666668,64.58311779911888
1373551582.0,0.16104479166666666,32.02375,83.76666666666667,-7.412161458333333,64.4938154758886
1373551582.25,0.16509891666666668,32.026250000000005,83.74583334399999,-6.439921875,64.3740661761748
1373551582.5,0.16856629166666667,32.02875,83.725,-6.2726822916666665,64.28323635527379
1373551582.75,0.16995325000000003,32.03083333333334,83.704166656,-5.455130208333333,64.19211196327052
1373551583.0,0.16968654166666666,32.0325,83.68333333333332,-5.242161458333333,64.13112892988461
1373551583.25,0.17016662500000002,32.03416666666667,83.66250001066666,-5.53125,64.08671596519828
1373551583.5,0.171446875,32.035833333333336,83.64166666666667,-4.51,64.0116241291868
1373551583.75,0.17288716666666668,32.0375,83.62083332266667,-3.38625,63.93706509254471
1373551584.0,0.174434125,32.03916666666667,83.60000000000001,-2.1953906250000004,63.88535925056223
1373551584.25,0.17603441666666667,32.04083333333333,83.57916667733333,0.043541666666666555,63.86145344748547
1373551584.5,0.17790141666666667,32.0425,83.55833333333334,3.7374218749999994,63.86861822507809
1373551584.75,0.17982179166666667,32.04416666666667,83.53749998933334,6.330755208333334,63.877087936710986
1373551585.0,0.18179554166666667,32.04583333333333,83.51666666666667,6.8195572916666665,63.911567483023084
1373551585.25,0.18376929166666664,32.0475,83.50000000853333,6.943541666666667,63.95743032818593
1373551585.5,0.18574304166666666,32.049166666666665,83.48333333333333,7.920208333333332,63.97541812927369
1373551585.75,0.18771679166666666,32.05166666666666,83.46666665813333,8.233229166666666,63.992135318134224
1373551586.0,0.18969054166666666,32.055,83.45,8.259401041666665,63.99799970093334
1373551586.25,0.1909708333333333,32.05833333333333,83.43583334058667,7.929270833333334,63.99771492231795
1373551586.5,0.19155762499999998,32.06166666666667,83.42166666666667,6.420130208333333,63.997307673060114
1373551586.75,0.19203770833333333,32.065,83.40749999274666,4.908932291666667,63.9936431261477
1373551587.0,0.19241112500000002,32.068333333333335,83.39333333333333,3.4957291666666666,63.991606879858544
1373551587.25,0.19273120833333332,32.071666666666665,83.38416667135999,2.063645833333333,63.98582646544234
1373551587.5,0.19305129166666665,32.074999999999996,83.375,0.5824739583333334,63.97467781465209
1373551587.75,0.193318,32.079166666666666,83.36583332864001,-0.5690624999999999,63.96873346715029
1373551588.0,0.1935847083333333,32.08416666666667,83.35666666666667,-0.9030208333333333,63.96400918135638
1373551588.25,0.19390479166666666,32.08916666666667,83.34666667178666,-1.1097395833333332,63.95753362655227
1373551588.5,0.1942782083333333,32.094166666666666,83.33666666666667,-1.3069791666666666,63.95122102097136
1373551588.75,0.19475829166666667,32.098333333333336,83.32666666154667,-1.7034114583333333,63.94441937646737
1373551589.0,0.19539841666666669,32.10166666666667,83.31666666666666,-1.5539583333333333,63.934196157988346
1373551589.25,0.19609191666666667,32.105000000000004,83.30583333887999,-1.0007291666666667,63.929961602447605
1373551589.5,0.19678541666666663,32.10833333333334,83.29499999999999,0.04143229166666676,63.92588967247141
1373551589.75,0.19769229166666666,32.11166666666667,83.28416666112,0.9544531250000001,63.92377263883633
1373551590.0,0.19865249999999998,32.115,83.27333333333333,1.6580729166666668,63.92373237976417
1373551590.25,0.19966608333333336,32.11833333333333,83.26083333973332,2.4089583333333335,63.92865834335213
1373551590.5,0.20067966666666667,32.12166666666667,83.24833333333333,3.4972395833333336,63.934601021534725
1373551590.75,0.2017465833333333,32.12416666666667,83.23583332693335,4.514296875,63.937452095328474
1373551591.0,0.20276012500000004,32.12583333333333,83.22333333333334,4.722604166666667,63.942012378932276
1373551591.25,0.2037202916666667,32.127500000000005,83.21083333973334,4.49578125,63.945638144983235
1373551591.5,0.20462712500000002,32.12916666666667,83.19833333333334,4.680104166666666,63.94812281704268
1373551591.75,0.20542729166666665,32.13,83.18583332693333,5.313489583333333,63.945840136343634
1373551592.0,0.20606741666666664,32.13,83.17333333333333,5.4009375,63.927951269104454
1373551592.25,0.20660083333333334,32.13,83.15916667392,5.038828125,63.89604329659835
1373551592.5,0.20702758333333335,32.13,83.14500000000001,3.9961197916666666,63.864011275865444
1373551592.75,0.20724095833333334,32.13,83.13083332608001,3.1870052083333333,63.8332051981786
1373551593.0,0.20756104166666667,32.13,83.11666666666667,2.405338541666667,63.79717207263774
1373551593.25,0.20793445833333335,32.13,83.10000000853334,1.6065625,63.75411081911498
1373551593.5,0.20836120833333335,32.13,83.08333333333334,0.4728385416666667,63.71306764630625
1373551593.75,0.20878795833333333,32.13,83.06666665813333,-0.46799479166666663,63.67416737772134
1373551594.0,0.20921470833333333,32.13,83.05,-0.6217708333333333,63.6328589001784
1373551594.25,0.20964145833333334,32.13,83.02250001408,-0.31528645833333324,63.59493334073348
1373551594.5,0.2100682083333333,32.13,82.995,-0.4439322916666666,63.55901114167045
1373551594.75,0.21049495833333332,32.13,82.96749998592,-0.7778124999999999,63.53252781104689
1373551595.0,0.21092170833333335,32.13,82.94,-0.8176822916666665,63.52708721238534
1373551595.25,0.21134845833333335,32.13,82.90250001919999,-0.4932291666666666,63.531879947346475
1373551595.5,0.21177520833333333,32.13,82.865,0.03971354166666675,63.53577199600508
1373551595.75,0.21214862499999998,32.13,82.8274999808,0.4265625000000001,63.537820791494994
1373551596.0,0.21230866666666667,32.13,82.78999999999999,0.7053906250000002,63.54584893576658
1373551596.25,0.21236200000000002,32.13,82.73416669525332,0.8407291666666667,63.56333668588277
1373551596.5,0.21230866666666667,32.13,82.67833333333333,0.9513802083333335,63.57177568690071
1373551596.75,0.21220199999999997,32.13,82.62249997141333,0.9407812500000001,63.58238731936432
1373551597.0,0.21209533333333333,32.13,82.56666666666666,0.6449218750000002,63.59455606295129
1373551597.25,0.2119886666666667,32.13,82.50166669994667,0.33609375000000014,63.60439065132439
1373551597.5,0.21172195833333332,32.13,82.43666666666667,0.023723958333333472,63.60906313548988
1373551597.75,0.21129520833333335,32.13,82.37166663338665,-0.1120833333333332,63.599959462934216
1373551598.0,0.21086845833333334,32.13,82.30666666666666,-0.30265624999999985,63.58511563816234
1373551598.25,0.210388375,32.13,82.23333337087999,-0.6338802083333331,63.56937100546856
1373551598.5,0.2099082916666667,32.13,82.16,-0.9218229166666666,63.5548957309974
1373551598.75,0.209374875,32.130833333333335,82.08666662912,-1.2913802083333332,63.54337384393412
1373551599.0,0.2088947916666667,32.1325,82.01333333333334,-1.3844270833333334,63.526484069990516
1373551599.25,0.20841470833333334,32.134166666666665,81.94083337045333,-1.3984374999999998,63.50370242735013
1373551599.5,0.20798795833333336,32.13583333333334,81.86833333333334,-1.1414322916666666,63.48779689493636
1373551599.75,0.20756120833333336,32.1375,81.79583329621335,-0.7299739583333332,63.47259041660522
1373551600.0,0.20713445833333333,32.13916666666666,81.72333333333334,-0.28229166666666655,63.462674604659405
1373551600.25,0.20670770833333332,32.14083333333333,81.65500003498667,0.16802083333333342,63.46030005079542
1373551600.5,0.206387625,32.1425,81.58666666666667,0.6397395833333335,63.462062385525456
1373551600.75,0.20617420833333336,32.14416666666667,81.51833329834668,0.9583072916666667,63.47444303557762
1373551601.0,0.20596079166666667,32.145833333333336,81.45,1.3122135416666667,63.491497610537266
1373551601.25,0.20580070833333333,32.1475,81.387500032,1.522578125,63.50855218549691
1373551601.5,0.205640625,32.149166666666666,81.325,1.8688802083333333,63.525606760456554
1373551601.75,0.20553387499999998,32.15,81.262499968,2.1865885416666666,63.538971409472964
1373551602.0,0.20542712500000002,32.15,81.2,2.4329427083333335,63.55262735635821
1373551602.25,0.20537375,32.15,81.14333336234667,2.942604166666667,63.56640646844874
1373551602.5,0.205320375,32.15,81.08666666666667,3.079036458333334,63.579323424102235
1373551602.75,0.205320375,32.150416666666665,81.02999997098668,3.3126041666666666,63.591131892908116
1373551603.0,0.205320375,32.15125,80.97333333333334,3.5675520833333336,63.59703612731105
1373551603.25,0.205320375,32.15208333333333,80.9191666944,3.5164062499999997,63.597036127311064
1373551603.5,0.20542708333333334,32.15291666666666,80.86500000000001,3.7577604166666663,63.597036127311064
1373551603.75,0.20558716666666665,32.153749999999995,80.81083330560001,3.937708333333333,63.5958487315307
1373551604.0,0.20574724999999996,32.15458333333333,80.75666666666667,3.9643229166666667,63.59257326866159
1373551604.25,0.20596066666666668,32.15541666666667,80.71583335424,4.4070052083333335,63.589297805792484
1373551604.5,0.20617408333333334,32.15624999999999,80.67500000000001,4.511484374999999,63.58602234292337
1373551604.75,0.20638750000000003,32.15708333333333,80.63416664576002,4.780520833333333,63.58458932791813
1373551605.0,0.20654758333333334,32.157916666666665,80.59333333333335,4.871510416666667,63.58458932791813
1373551605.25,0.20665429166666668,32.15875,80.56416668160001,4.628828125,63.58458932791813
1373551605.5,0.20676099999999997,32.15958333333333,80.53500000000001,4.824947916666667,63.58458932791813
1373551605.75,0.20676099999999997,32.16,80.50583331840001,4.869348958333334,63.58724961580342
1373551606.0,0.20670762499999998,32.16,80.47666666666667,4.891901041666666,63.59416557091354
1373551606.25,0.20558733333333334,32.16,80.455833344,5.117864583333334,63.603452899560175
1373551606.5,0.20265337500000002,32.16,80.435,4.715338541666667,63.613967238322665
1373551606.75,0.19929266666666667,32.16,80.414166656,4.203229166666667,63.6255042291462
1373551607.0,0.19593195833333335,32.16,80.39333333333333,4.086302083333334,63.636959479758104
1373551607.25,0.19251791666666665,32.16,80.36750001322666,3.6607552083333332,63.64346643617659
1373551607.5,0.189103875,32.16,80.34166666666667,3.421588541666667,63.646537076490574
1373551607.75,0.18568983333333333,32.16,80.31583332010668,3.4437239583333334,63.649321235175044
1373551608.0,0.182329125,32.16,80.29,3.668098958333333,63.638816398111054
1373551608.25,0.1799285833333333,32.16,80.2650000128,4.125885416666667,63.631597728010604
1373551608.5,0.17843491666666667,32.16,80.24000000000001,3.0572395833333332,63.63225055189577
1373551608.75,0.17752804166666666,32.16,80.2149999872,1.4271875000000003,63.61900842778251
1373551609.0,0.17694124999999997,32.16,80.19,0.7243750000000002,63.598066831049245
1373551609.25,0.177421375,32.16,80.17333334186667,1.6819531250000004,63.580372793516574
1373551609.5,0.17966183333333333,32.16,80.15666666666667,3.1125000000000003,63.5568182574474
1373551609.75,0.18232904166666666,32.16,80.13999999146667,4.598932291666667,63.53445744658203
1373551610.0,0.18499625,32.16,80.12333333333333,5.046119791666667,63.50971577531032
1373551610.25,0.18766345833333334,32.16,80.1191666688,5.379218750000001,63.48951182203975
1373551610.5,0.19033066666666668,32.16,80.11500000000001,5.523697916666667,63.47717681704116
1373551610.75,0.192997875,32.16,80.1108333312,5.158255208333334,63.46389705454421
1373551611.0,0.19555841666666665,32.16,80.10666666666667,4.8395052083333345,63.46324961061256
1373551611.25,0.19694541666666665,32.16,80.11333332992001,4.526197916666667,63.46767702578046
1373551611.5,0.19731883333333333,32.16,80.12,5.7590625000000015,63.481665786822695
1373551611.75,0.19710545833333334,32.16,80.12666667008,7.584895833333334,63.525955284578885
1373551612.0,0.19646533333333335,32.16,80.13333333333334,8.382630208333333,63.58784590662335
1373551612.25,0.1958252083333333,32.16,80.14999999146667,7.079739583333333,63.665165049160926
1373551612.5,0.19518508333333331,32.16,80.16666666666667,5.102786458333333,63.77672366908468
1373551612.75,0.19454495833333332,32.16,80.18333334186667,3.1645052083333334,63.917497220948896
1373551613.0,0.1939048333333333,32.16,80.2,1.7463281250000005,64.08092693934779
1373551613.25,0.19353141666666665,32.16,80.22333332138668,0.1590364583333336,64.25209191776791
1373551613.5,0.19358474999999997,32.16,80.24666666666667,-0.869973958333333,64.4050863754525
1373551613.75,0.1938514583333333,32.16,80.27000001194666,-2.215078125,64.55987095104892
1373551614.0,0.19486495833333337,32.16,80.29333333333334,-3.0828124999999997,64.71806136863228
1373551614.25,0.1968386666666667,32.16,80.32166665216,-4.21296875,64.85863833365501
1373551614.5,0.19934583333333333,32.16,80.35,-5.887317708333334,64.98050559110787
1373551614.75,0.2021730416666667,32.16,80.37833334783998,-7.864713541666666,65.08330677195991
1373551615.0,0.20537366666666665,32.16,80.40666666666665,-9.946015625,65.17195063391885
1373551615.25,0.20878766666666668,32.16,80.43833331712,-10.62015625,65.23906783044615
1373551615.5,0.212735125,32.16,80.47,-10.533229166666667,65.27705825020934
1373551615.75,0.217269375,32.16,80.50166668288,-9.476510416666667,65.28361736076722
1373551616.0,0.222230375,32.16,80.53333333333335,-7.8753906250000005,65.26794604214756
1373551616.25,0.22751141666666666,32.16,80.57083331413334,-6.526901041666666,65.24295069028335
1373551616.5,0.23279245833333337,32.16,80.60833333333335,-5.358697916666666,65.21893294982067
1373551616.75,0.23823354166666666,32.16,80.64583335253334,-3.673567708333333,65.19323585509188
1373551617.0,0.2435145833333333,32.16,80.68333333333334,-2.9634114583333333,65.16478959555933
1373551617.25,0.2484222083333333,32.16,80.72083331413333,-1.503046875,65.14559576252431
1373551617.5,0.2534365416666667,32.16,80.75833333333333,0.06575520833333341,65.12767879719921
1373551617.75,0.25957108333333334,32.16,80.79583335253334,2.16015625,65.1097618318741
1373551618.0,0.2667725,32.16,80.83333333333333,4.308906250000001,65.09184486654898
1373551618.25,0.2744540416666667,32.16,80.85833332053333,5.149375,65.07440711342532
1373551618.5,0.28218887500000006,32.16,80.88333333333333,6.088984375,65.05649014810021
1373551618.75,0.2897102916666667,32.16,80.90833334613333,5.922890625000001,65.0385731827751
1373551619.0,0.29728508333333337,32.16,80.93333333333334,5.688541666666667,65.02269308071085
1373551619.25,0.3045932083333333,32.16,80.94749999274667,6.393307291666666,65.00881232806218
1373551619.5,0.3115279166666667,32.16,80.96166666666667,6.326666666666667,65.00769185258002
1373551619.75,0.3180892083333334,32.16,80.97583334058666,6.008880208333333,65.00769185258002
1373551620.0,0.32422375000000003,32.16,80.99,6.043567708333334,65.00769185258002
1373551620.25,0.329984875,32.16,81.00083332778667,5.281328125000001,65.00961197965759
1373551620.5,0.335265875,32.16,81.01166666666667,4.8045052083333335,65.01249217027394
1373551620.75,0.3391599583333333,32.15958333333333,81.02250000554668,4.018359375,65.02497299627814
1373551621.0,0.3417737916666666,32.15875,81.03333333333335,3.3179947916666666,65.03877337951418
1373551621.25,0.343694125,32.15791666666666,81.05166665728001,3.134765625,65.05457377731516
1373551621.5,0.34502770833333335,32.15708333333333,81.07000000000001,2.6005989583333333,65.06933422408999
1373551621.75,0.3459345833333333,32.15624999999999,81.08833334272,2.2830989583333334,65.08385500840276
1373551622.0,0.346308,32.15541666666667,81.10666666666667,1.7694270833333334,65.09985512492212
1373551622.25,0.346308,32.15458333333333,81.13249998677334,0.8036458333333334,65.10672886078994
1373551622.5,0.34614795833333334,32.153749999999995,81.15833333333333,0.35895833333333343,65.10611705234733
1373551622.75,0.34593454166666665,32.15291666666666,81.18416667989332,0.3368489583333334,65.11142983936146
1373551623.0,0.3456144583333333,32.15208333333333,81.21,0.7887760416666668,65.12735006839345
1373551623.25,0.345294375,32.15125,81.24166665045333,1.5011979166666667,65.13838769762388
1373551623.5,0.34486762499999996,32.150416666666665,81.27333333333333,2.186692708333333,65.15150762352687
1373551623.75,0.3444408749999999,32.15,81.30500001621333,2.7653125000000003,65.15502691404203
1373551624.0,0.344014125,32.15,81.33666666666666,3.4053906249999994,65.15438684397228
1373551624.25,0.3435340416666666,32.15,81.37166664874667,3.9241927083333334,65.14990696326701
1373551624.5,0.34305395833333335,32.15,81.40666666666667,4.568880208333333,65.14746704087034
1373551624.75,0.34268054166666667,32.15,81.44166668458666,5.275338541666667,65.1489463730769
1373551625.0,0.34236045833333334,32.15,81.47666666666667,5.832005208333334,65.1489463730769
1373551625.25,0.3420937083333333,32.15,81.50916665002667,6.606536458333334,65.1580727537284
1373551625.5,0.341987,32.15,81.54166666666667,7.445833333333333,65.17468467869037
1373551625.75,0.341987,32.15,81.57416668330667,7.88984375,65.17477246011387
1373551626.0,0.3420403333333333,32.15,81.60666666666667,8.15875,65.15885223108188
1373551626.25,0.3420936666666667,32.15,81.63499998549334,8.557604166666666,65.14589447477388
1373551626.5,0.3422003333333333,32.15,81.66333333333333,8.326796875000001,65.12989435825453
1373551626.75,0.342307,32.15,81.69166668117333,8.366067708333334,65.1138942417352
1373551627.0,0.34241366666666667,32.15,81.72,8.434296875,65.1007339285689
1373551627.25,0.3425736666666666,32.15,81.75166665045333,8.109791666666666,65.08941341147319
1373551627.5,0.34273366666666666,32.15,81.78333333333333,7.659375000000001,65.07709288709503
1373551627.75,0.34284033333333336,32.149166666666666,81.81500001621333,7.398359375000001,65.06109277057568
1373551628.0,0.34289366666666665,32.1475,81.84666666666666,7.033619791666666,65.04509265405635
1373551628.25,0.34284033333333336,32.145833333333336,81.88083331584,6.372604166666666,65.029092537537
1373551628.5,0.3426803333333333,32.14416666666666,81.91499999999999,5.982656250000001,65.01309242101765
1373551628.75,0.342467,32.142500000000005,81.94916668416,5.739739583333333,65.00769185258002
1373551629.0,0.3422003333333333,32.14083333333334,81.98333333333333,5.211380208333334,65.00769185258002
1373551629.25,0.34188033333333334,32.13916666666667,82.01916664832,4.516302083333334,65.00769185258002
1373551629.5,0.3415603333333333,32.1375,82.055,4.365520833333333,65.00769185258002
1373551629.75,0.3412403333333333,32.13583333333333,82.09083335168,3.9637500000000006,65.00781200934553
1373551630.0,0.3409203333333333,32.134166666666665,82.12666666666667,3.4159375,65.01697250093132
1373551630.25,0.34060033333333334,32.1325,82.15833331712,3.2878385416666664,65.03009307790326
1373551630.5,0.34022695833333333,32.130833333333335,82.19,3.235651041666667,65.03057370496526
1373551630.75,0.3398535833333333,32.13,82.22166668288,2.9451302083333335,65.03249502262805
1373551631.0,0.3394801666666667,32.13,82.25333333333333,2.8598697916666667,65.04017672152357
1373551631.25,0.33921341666666666,32.13,82.28833331541333,2.890963541666667,65.04257747566315
1373551631.5,0.3389466666666667,32.13,82.32333333333332,2.7398958333333336,65.04673841399158
1373551631.75,0.33862658333333334,32.13,82.35833335125334,2.6483854166666667,65.06365572574937
1373551632.0,0.33825316666666666,32.13,82.39333333333333,1.8098958333333333,65.08157269107448
1373551632.25,0.3375063333333333,32.13,82.41833332053334,1.2138802083333335,65.09948965639958
1373551632.5,0.336066,32.13,82.44333333333333,1.9015625,65.11868190181245
1373551632.75,0.33409225000000004,32.13,82.46833334613332,2.5283593750000004,65.16956497766253
1373551633.0,0.331051625,32.13,82.49333333333333,3.2121093750000003,65.1692829080449
1373551633.25,0.32689075,32.13,82.50583332693333,3.685677083333333,65.09188454221226
1373551633.5,0.32203645833333333,32.13,82.51833333333333,3.328385416666667,65.02769354564995
1373551633.75,0.31606195833333334,32.13,82.53083333973333,1.8163802083333334,64.94740575300548
1373551634.0,0.309607375,32.13,82.54333333333334,1.9185677083333335,64.84442110986193
1373551634.25,0.30315279166666664,32.13,82.53750000298666,2.6697395833333335,64.7235008950642
1373551634.5,0.2967515416666667,32.13,82.53166666666667,0.8964062500000001,64.60160706624185
1373551634.75,0.29045695833333335,32.13,82.52583333034667,-1.3896614583333333,64.46789962489619
1373551635.0,0.28442908333333333,32.13,82.52,-2.7360677083333336,64.32605750912879
1373551635.25,0.27920137500000003,32.13,82.50916667221333,-4.794479166666667,64.1783071935764
1373551635.5,0.2746671666666667,32.13,82.49833333333333,-8.18953125,64.0424885917116
1373551635.75,0.270666375,32.12916666666667,82.48749999445334,-11.368619791666667,63.87354856439824
1373551636.0,0.2677324583333333,32.127500000000005,82.47666666666667,-13.743645833333334,63.74804378597815
1373551636.25,0.26613216666666667,32.12583333333333,82.46000000853334,-15.111223958333333,63.69565427510295
1373551636.5,0.26527866666666666,32.12416666666667,82.44333333333334,-15.768125,63.644333773017216
1373551636.75,0.265545375,32.12166666666667,82.42666665813334,-15.426380208333335,63.61617121153379
1373551637.0,0.26634554166666663,32.11833333333333,82.41000000000001,-16.855,63.620984141074445
1373551637.25,0.2671990416666667,32.115,82.39750000640001,-19.657265625,63.652069296975384
1373551637.5,0.26821258333333337,32.11166666666667,82.385,-19.563125,63.68183854084756
1373551637.75,0.26933283333333335,32.10833333333334,82.3724999936,-18.070286458333335,63.710216877888534
1373551638.0,0.2702930416666667,32.105,82.36,-15.891822916666667,63.73357306905344
1373551638.25,0.2708265,32.10166666666667,82.36083333290667,-12.501354166666665,63.74943934560113
1373551638.5,0.2711999166666667,32.098333333333336,82.36166666666666,-10.478307291666667,63.747145518641766
1373551638.75,0.271466625,32.09583333333334,82.36250000042666,-8.770546874999999,63.744850616564186
1373551639.0,0.27151995833333337,32.094166666666666,82.36333333333333,-8.771744791666666,63.73164340757941
1373551639.25,0.27125325,32.09250000000001,82.38416665599999,-9.740625,63.69903546418081
1373551639.5,0.27103991666666666,32.090833333333336,82.405,-10.385807291666667,63.66326711782683
1373551639.75,0.2708799166666667,32.09,82.425833344,-10.139348958333333,63.617554260460075
1373551640.0,0.27071991666666667,32.09,82.44666666666666,-10.227395833333334,63.55662676755953
1373551640.25,0.2705065833333334,32.09,82.47583331839999,-9.512239583333333,63.49326185437672
1373551640.5,0.2701332083333334,32.09,82.505,-9.238802083333333,63.43240369561152
1373551640.75,0.2695997916666667,32.09,82.5341666816,-9.847942708333333,63.372652820289154
1373551641.0,0.269066375,32.09,82.56333333333333,-10.918307291666666,63.33016274449353
1373551641.25,0.2685862916666667,32.09,82.59166665216,-12.547578125,63.31073186498912
1373551641.5,0.2683729166666667,32.09,82.62,-12.589166666666666,63.29728105925471
1373551641.75,0.2683729166666667,32.09,82.64833334784,-12.342057291666665,63.28514176688439
1373551642.0,0.268639625,32.09,82.67666666666666,-10.443984375,63.2826043431754
1373551642.25,0.269013,32.09,82.69749998933332,-8.808020833333332,63.29950859716421
1373551642.5,0.269386375,32.09,82.71833333333333,-7.968567708333333,63.31793682595853
1373551642.75,0.2697597916666667,32.09,82.73916667733333,-7.761666666666667,63.33780773064468
1373551643.0,0.2701332083333334,32.09,82.75999999999999,-6.446406249999999,63.35808498435349
1373551643.25,0.27055995833333335,32.09,82.7724999936,-4.84234375,63.384512992250365
1373551643.5,0.2710400416666667,32.09,82.785,-3.30734375,63.410809690464
1373551643.75,0.27146679166666665,32.08916666666667,82.79750000639999,-1.8130989583333335,63.436447251159954
1373551644.0,0.27184020833333333,32.087500000000006,82.80999999999999,-1.0547395833333333,63.457554739641296
1373551644.25,0.27221362499999996,32.08583333333333,82.81416666453333,-1.3401822916666664,63.46412001228907
1373551644.5,0.272480375,32.08416666666667,82.81833333333333,-1.35359375,63.46461148064657
1373551644.75,0.27264045833333334,32.0825,82.82250000213332,-0.9025781249999999,63.46477547634614
1373551645.0,0.2726405,32.08083333333334,82.82666666666667,-0.9957552083333333,63.46317373141985
1373551645.25,0.2725338333333333,32.079166666666666,82.81583333888,-0.837890625,63.461038020419664
1373551645.5,0.27237379166666664,32.0775,82.80499999999999,0.03770833333333338,63.45627239900467
1373551645.75,0.27216037499999995,32.0775,82.79416666111999,1.0136197916666667,63.45060258995523
1373551646.0,0.2719469583333333,32.07916666666667,82.78333333333332,1.3536197916666666,63.445140480702
1373551646.25,0.27168020833333334,32.08083333333333,82.76166667775999,1.4996875,63.43023650268815
1373551646.5,0.271360125,32.0825,82.73999999999998,1.8180208333333334,63.41081385314117
1373551646.75,0.271093375,32.085,82.71833332223999,1.914791666666667,63.38933435617494
1373551647.0,0.27087995833333334,32.08833333333333,82.69666666666666,2.956875,63.367075588237064
1373551647.25,0.27066654166666665,32.09166666666666,82.66416668330666,5.150260416666667,63.35233033419227
1373551647.5,0.27050645833333337,32.095,82.63166666666666,6.69203125,63.346086885427184
1373551647.75,0.270346375,32.097500000000004,82.59916665002666,7.834140625,63.34066424497735
1373551648.0,0.27034633333333336,32.09916666666667,82.56666666666666,8.967916666666667,63.33700734515338
1373551648.25,0.270453,32.100833333333334,82.5333333504,10.303828125,63.33388441140331
1373551648.5,0.2705596666666667,32.1025,82.5,11.65625,63.333391388068044
1373551648.75,0.27066633333333334,32.1025,82.4666666496,12.682239583333335,63.33380255236724
1373551649.0,0.270773,32.100833333333334,82.43333333333334,13.583385416666665,63.33277528162366
1373551649.25,0.2708796666666667,32.09916666666667,82.40250001578667,14.546614583333335,63.3344208357847
1373551649.5,0.27098633333333333,32.097500000000004,82.37166666666667,15.247447916666665,63.34563236658343
1373551649.75,0.27109300000000003,32.09583333333334,82.34083331754667,15.964166666666669,63.377754458980384
1373551650.0,0.2711463333333333,32.094166666666666,82.31,16.155234375,63.4151551079132
1373551650.25,0.27119966666666667,32.09250000000001,82.28250001408,15.779713541666666,63.449923376897495
1373551650.5,0.27119966666666667,32.090833333333336,82.255,15.755286458333332,63.48123668085406
1373551650.75,0.27119966666666667,32.090833333333336,82.22749998592,15.503255208333334,63.51205664915327
1373551651.0,0.2711463333333333,32.09250000000001,82.2,14.776822916666667,63.54287661745249
1373551651.25,0.2711463333333334,32.094166666666666,82.1750000128,14.198411458333334,63.57369658575172
1373551651.5,0.27109300000000003,32.09583333333334,82.15,13.510989583333334,63.60451655405094
1373551651.75,0.2710396666666667,32.097500000000004,82.12499998720001,12.665104166666666,63.63533652235015
1373551652.0,0.27103966666666673,32.09916666666667,82.10000000000001,12.151979166666669,63.66615649064938
1373551652.25,0.27103966666666673,32.100833333333334,82.08083334314667,11.347890625,63.6969764589486
1373551652.5,0.27103966666666673,32.1025,82.06166666666667,10.428723958333332,63.72090301927343
1373551652.75,0.2710396666666667,32.104166666666664,82.04249999018667,9.913177083333332,63.72597586541927
1373551653.0,0.27109300000000003,32.10583333333334,82.02333333333333,9.332682291666666,63.72597586541927
1373551653.25,0.2711463333333334,32.107499999999995,82.01250000554666,8.952760416666667,63.72597586541927
1373551653.5,0.27119966666666667,32.10916666666667,82.00166666666667,8.443411458333333,63.72597586541927
1373551653.75,0.271253,32.11,81.99083332778667,8.158411458333333,63.72597586541927
1373551654.0,0.271253,32.11,81.98,8.297786458333334,63.72597586541927
1373551654.25,0.27119966666666667,32.11,81.97833333418667,8.047473958333333,63.72597586541927
1373551654.5,0.2711996666666667,32.11,81.97666666666666,7.715546875,63.72597586541927
1373551654.75,0.2711463333333334,32.11,81.97499999914666,7.665052083333333,63.72597586541927
1373551655.0,0.2710396666666667,32.11,81.97333333333333,7.241953124999999,63.72597586541927
1373551655.25,0.27093300000000003,32.11,81.97749999786666,6.95046875,63.72597586541927
1373551655.5,0.2708796666666667,32.11,81.98166666666665,6.995026041666667,63.72597586541927
1373551655.75,0.2708796666666667,32.11,81.98583333546667,6.692239583333333,63.72597586541927
1373551656.0,0.2708796666666667,32.11,81.99,6.366588541666666,63.72597586541927
1373551656.25,0.2708796666666667,32.11,82.00083332778667,6.322005208333334,63.72597586541927
1373551656.5,0.2709330416666667,32.11,82.01166666666667,6.152005208333333,63.72597586541927
1373551656.75,0.2710397916666667,32.11,82.02250000554668,5.741848958333333,63.72597586541927
1373551657.0,0.2712532083333334,32.11,82.03333333333335,5.5275,63.72597586541927
1373551657.25,0.27157329166666666,32.11,82.04333332821334,5.435026041666667,63.72597586541927
1373551657.5,0.27194670833333334,32.11,82.05333333333334,5.172005208333333,63.72597586541927
1373551657.75,0.2723734583333333,32.11083333333333,82.06333333845333,5.309583333333333,63.72597586541927
1373551658.0,0.27285354166666664,32.1125,82.07333333333332,5.64453125,63.72597586541927
1373551658.25,0.2733869583333333,32.11416666666667,82.07999999658666,5.692916666666666,63.72597586541927
1373551658.5,0.27386704166666664,32.115833333333335,82.08666666666666,5.725885416666667,63.72597586541927
1373551658.75,0.2742937916666667,32.1175,82.09333333674665,5.917395833333334,63.72597586541927
1373551659.0,0.27472054166666665,32.119166666666665,82.1,6.058411458333334,63.72597586541927
1373551659.25,0.2752006666666667,32.12083333333334,82.09833333418666,5.978515625,63.72597586541927
1373551659.5,0.27568079166666665,32.1225,82.09666666666666,6.040052083333333,63.72597586541927
1373551659.75,0.27616087500000003,32.12416666666667,82.09499999914665,6.293307291666667,63.71202308538019
1373551660.0,0.27664095833333335,32.12583333333333,82.09333333333332,6.273932291666667,63.667374189255106
1373551660.25,0.27706770833333333,32.127500000000005,82.08666667007999,6.325,63.62272529313003
1373551660.5,0.2774944583333333,32.12916666666667,82.07999999999998,6.686458333333334,63.57807639700494
1373551660.75,0.27797454166666663,32.13,82.07333332991999,6.613567708333332,63.53342750087987
1373551661.0,0.27845462499999996,32.13,82.06666666666666,6.496171875000001,63.48877860475478
1373551661.25,0.278881375,32.13,82.05833333759999,6.71765625,63.4441297086297
1373551661.5,0.279308125,32.13,82.04999999999998,6.65546875,63.39948081250463
1373551661.75,0.27978824999999996,32.130833333333335,82.04166666239999,6.6878125,63.354831916379545
1373551662.0,0.28032175,32.1325,82.03333333333332,6.922447916666666,63.31018302025447
1373551662.25,0.280801875,32.134166666666665,82.02250000554665,6.988020833333333,63.265534124129395
1373551662.5,0.281228625,32.13583333333333,82.01166666666666,7.099609375,63.220885228004306
1373551662.75,0.28160204166666664,32.13666666666667,82.00083332778667,7.319192708333333,63.1919974528276
1373551663.0,0.28192212499999997,32.13666666666667,81.99,7.431874999999999,63.22433145433599
1373551663.25,0.282188875,32.13666666666667,81.98000000511999,7.583020833333333,63.257853393537665
1373551663.5,0.28245562500000004,32.13666666666666,81.97,7.413828124999999,63.291375332739364
1373551663.75,0.282722375,32.137499999999996,81.95999999488001,7.022395833333333,63.32489727194105
1373551664.0,0.2829357916666667,32.13916666666667,81.95,6.693802083333332,63.358419211142746
1373551664.25,0.28314920833333335,32.14083333333333,81.94000000512,6.260729166666667,63.39194115034443
1373551664.5,0.28336262500000003,32.1425,81.93,5.902968749999999,63.42546308954612
1373551664.75,0.28352266666666665,32.14333333333334,81.91999999488002,5.6621354166666675,63.45898502874781
1373551665.0,0.28362933333333334,32.14333333333333,81.91000000000001,5.301197916666667,63.4925069679495
1373551665.25,0.2837893333333334,32.14333333333334,81.90416666965334,4.943645833333333,63.526028907151186
1373551665.5,0.2840026666666667,32.14333333333334,81.89833333333334,4.7195052083333335,63.559550846352884
1373551665.75,0.2842693333333333,32.14416666666666,81.89249999701335,4.24625,63.59126444464528
1373551666.0,0.28458933333333336,32.145833333333336,81.88666666666667,3.6548177083333333,63.592452382338585
1373551666.25,0.28490933333333335,32.1475,81.88916666538667,3.2049739583333334,63.592452382338585
1373551666.5,0.285176,32.149166666666666,81.89166666666667,3.035338541666667,63.592452382338585
1373551666.75,0.28538933333333333,32.150416666666665,81.89416666794666,3.1610156249999997,63.592452382338585
1373551667.0,0.28560266666666667,32.15125,81.89666666666666,3.362916666666667,63.592452382338585
1373551667.25,0.285816,32.15208333333333,81.90916666026666,3.4996093750000004,63.592452382338585
1373551667.5,0.2860293333333333,32.15291666666666,81.92166666666667,3.733255208333333,63.592452382338585
1373551667.75,0.28624266666666665,32.153749999999995,81.93416667306667,3.8192187500000006,63.592452382338585
1373551668.0,0.286456,32.15458333333333,81.94666666666667,3.6590104166666673,63.592452382338585
1373551668.25,0.286616,32.15541666666666,81.9633333248,3.7233854166666673,63.592452382338585
1373551668.5,0.2867226666666666,32.15624999999999,81.98,3.6770833333333335,63.592452382338585
1373551668.75,0.286776,32.15708333333333,81.9966666752,3.612526041666667,63.592452382338585
1373551669.0,0.286776,32.15791666666666,82.01333333333334,3.954244791666667,63.592452382338585
1373551669.25,0.286776,32.15875,82.02999999146667,4.077395833333333,63.592452382338585
1373551669.5,0.286776,32.15958333333333,82.04666666666667,3.904140625,63.592452382338585
1373551669.75,0.286776,32.16,82.06333334186667,3.8149739583333333,63.592452382338585
1373551670.0,0.286776,32.16,82.08,3.6779166666666665,63.592452382338585
1373551670.25,0.286776,32.16,82.0924999936,3.4459635416666665,63.592452382338585
1373551670.5,0.2867226666666666,32.16,82.10499999999999,3.3364322916666667,63.592452382338585
1373551670.75,0.2866693333333333,32.16,82.1175000064,3.250546875,63.592452382338585
1373551671.0,0.2865626666666667,32.16,82.13,3.441640625,63.592452382338585
1373551671.25,0.286456,32.16,82.1424999936,3.544166666666666,63.592452382338585
1373551671.5,0.28634933333333334,32.16,82.155,3.5622135416666665,63.592452382338585
1373551671.75,0.28618933333333335,32.16,82.1675000064,3.714609375,63.592452382338585
1373551672.0,0.2860293333333333,32.16,82.18,3.7389322916666665,63.592452382338585
1373551672.25,0.28586933333333336,32.16,82.19166666069334,3.9693229166666666,63.592452382338585
1373551672.5,0.2857093333333333,32.16,82.20333333333335,4.457552083333334,63.592452382338585
1373551672.75,0.28549599999999997,32.16,82.21500000597334,4.836536458333334,63.592452382338585
1373551673.0,0.285336,32.16,82.22666666666667,5.152552083333334,63.592452382338585
1373551673.25,0.28522933333333333,32.16,82.24666665642667,5.588385416666667,63.592452382338585
1373551673.5,0.2851226666666667,32.16,82.26666666666668,5.815885416666667,63.592452382338585
1373551673.75,0.285016,32.16,82.28666667690668,6.014661458333333,63.592452382338585
1373551674.0,0.2849093333333333,32.16,82.30666666666667,6.2371614583333335,63.592452382338585
1373551674.25,0.284856,32.16,82.3358333184,6.498385416666667,63.592452382338585
1373551674.5,0.284856,32.16,82.36500000000001,6.622630208333334,63.592452382338585
1373551674.75,0.28490933333333335,32.16,82.3941666816,6.699296875000001,63.592452382338585
1373551675.0,0.28496266666666664,32.16,82.42333333333333,6.730286458333334,63.592452382338585
1373551675.25,0.285016,32.16,82.45333331797333,6.498463541666666,63.592452382338585
1373551675.5,0.28506933333333334,32.16,82.48333333333333,6.198541666666666,63.592452382338585
1373551675.75,0.2852293333333334,32.16083333333333,82.51333334869334,5.966875000000001,63.592452382338585
1373551676.0,0.28544270833333335,32.1625,82.54333333333334,5.696848958333334,63.592452382338585
1373551676.25,0.285656125,32.16416666666667,82.56499998890666,5.436432291666667,63.592452382338585
1373551676.5,0.285922875,32.16583333333333,82.58666666666667,5.355520833333333,63.592452382338585
1373551676.75,0.286189625,32.1675,82.60833334442667,5.1482552083333335,63.592452382338585
1373551677.0,0.2865097083333334,32.16916666666666,82.63,4.88734375,63.592452382338585
1373551677.25,0.2867764583333333,32.17083333333333,82.64583332522666,4.675989583333333,63.592452382338585
1373551677.5,0.286989875,32.1725,82.66166666666666,4.476588541666667,63.592452382338585
1373551677.75,0.28720329166666664,32.174166666666665,82.67750000810668,4.445442708333333,63.592452382338585
1373551678.0,0.28736333333333336,32.17583333333334,82.69333333333334,4.426015625,63.592452382338585
1373551678.25,0.28747,32.1775,82.72249998506668,4.443255208333333,63.592452382338585
1373551678.5,0.28757666666666665,32.17916666666667,82.75166666666667,4.639557291666667,63.592452382338585
1373551678.75,0.28757666666666665,32.18,82.78083334826667,4.745989583333333,63.592452382338585
1373551679.0,0.287416625,32.18,82.81,4.761822916666667,63.592452382338585
1373551679.25,0.28720320833333335,32.18,82.85083331242667,4.915104166666667,63.592452382338585
1373551679.5,0.2869364583333333,32.18,82.89166666666667,4.944947916666667,63.592452382338585
1373551679.75,0.28666970833333333,32.18,82.93250002090666,5.005703125,63.592452382338585
1373551680.0,0.28640295833333335,32.18,82.97333333333333,5.131380208333334,63.592452382338585
1373551680.25,0.28613620833333336,32.18,83.01999997610666,5.1697395833333335,63.592452382338585
1373551680.5,0.2858694583333333,32.18,83.06666666666666,5.3175260416666665,63.592452382338585
1373551680.75,0.28560270833333334,32.18,83.11333335722668,5.339244791666666,63.592452382338585
1373551681.0,0.2854426666666667,32.18,83.16000000000001,5.2289843750000005,63.592452382338585
1373551681.25,0.28528266666666663,32.18,83.20166664533335,5.20671875,63.592452382338585
1373551681.5,0.28517600000000004,32.18,83.24333333333334,5.055182291666667,63.592452382338585
1373551681.75,0.2851226666666667,32.18,83.28500002133333,4.661328125,63.592452382338585
1373551682.0,0.2851226666666667,32.18,83.32666666666667,4.492604166666667,63.592452382338585
1373551682.25,0.2851226666666667,32.18,83.37333330944,4.271614583333334,63.592452382338585
1373551682.5,0.28517600000000004,32.18,83.42,3.785390625,63.592452382338585
1373551682.75,0.28522933333333333,32.18125,83.46666669056,3.5726302083333334,63.592452382338585
1373551683.0,0.2852826666666667,32.183749999999996,83.51333333333334,3.4013281249999996,63.592452382338585
1373551683.25,0.28533600000000003,32.18625,83.56916663808,2.872291666666667,63.592452382338585
1373551683.5,0.28538933333333333,32.18875,83.625,2.591666666666667,63.592452382338585
1373551683.75,0.285496,32.19125,83.68083336192001,2.34375,63.592452382338585
1373551684.0,0.2855493333333334,32.19375,83.73666666666668,2.1446093750000004,63.592452382338585
1373551684.25,0.2857093333333333,32.19625,83.8033332992,2.130520833333333,63.592452382338585
1373551684.5,0.285816,32.19875,83.87,2.0567708333333337,63.592452382338585
1373551684.75,0.2859760416666667,32.20125,83.9366667008,2.2270833333333333,63.592452382338585
1373551685.0,0.28618945833333337,32.20375,84.00333333333333,2.479166666666667,63.592452382338585
1373551685.25,0.286402875,32.206250000000004,84.06999996586666,2.5668489583333334,63.592452382338585
1373551685.5,0.28661629166666663,32.20875,84.13666666666666,2.9055989583333335,63.592452382338585
1373551685.75,0.2868297083333334,32.21,84.20333336746667,3.1831510416666666,63.592452382338585
1373551686.0,0.287043125,32.21,84.27,3.309140625,63.592452382338585
1373551686.25,0.28725654166666664,32.21,84.33499996671999,3.7796875,63.589903621269805
1373551686.5,0.28746995833333333,32.21,84.39999999999999,4.063359375,63.54912344416943
1373551686.75,0.28763004166666667,32.21,84.46500003327999,4.545598958333334,63.50834326706905
1373551687.0,0.287790125,32.21,84.52999999999999,5.11421875,63.46756308996867
1373551687.25,0.287896875,32.21,84.58749997055999,5.423697916666668,63.42678291286828
1373551687.5,0.28805695833333333,32.21,84.645,5.7553125,63.3860027357679
1373551687.75,0.2881103333333333,32.21,84.70250002944,6.064973958333333,63.34522255866752
1373551688.0,0.28811033333333336,32.21,84.76,6.107421875,63.304442381567135
1373551688.25,0.2881103333333333,32.21,84.81999996928,6.245442708333333,63.263662204466755
1373551688.5,0.28811033333333336,32.21,84.88,6.437708333333333,63.23419193125611
1373551688.75,0.2881103333333333,32.21,84.94000003072,6.482369791666667,63.22960344660293
1373551689.0,0.28811033333333336,32.21,85.0,6.581614583333334,63.22501496194974
1373551689.25,0.2881103333333333,32.21,85.05749997056,6.736093750000001,63.222975238365315
1373551689.5,0.28811033333333336,32.21,85.11500000000001,6.8921874999999995,63.25916693081251
1373551689.75,0.2881103333333333,32.21,85.17250002944,6.729296875,63.295358623259695
1373551690.0,0.28811033333333336,32.21,85.23,6.549609375,63.33155031570689
1373551690.25,0.2881103333333333,32.21,85.28916663637334,6.445598958333334,63.36774200815409
1373551690.5,0.288057,32.21,85.34833333333333,6.332890625000001,63.40393370060127
1373551690.75,0.288057,32.21,85.40750003029332,6.2773697916666675,63.44012539304847
1373551691.0,0.288057,32.21,85.46666666666665,6.370859374999999,63.47631708549566
1373551691.25,0.288057,32.21,85.5208333056,6.383489583333334,63.51250877794285
1373551691.5,0.2881103333333333,32.21,85.57499999999999,6.419140625000001,63.53512858572234
1373551691.75,0.288217,32.21083333333333,85.6291666944,6.484635416666666,63.5011988740531
1373551692.0,0.288377,32.2125,85.68333333333334,6.473072916666666,63.465007181605905
1373551692.25,0.288537,32.214166666666664,85.73749997226668,6.431692708333333,63.42881548915872
1373551692.5,0.28875033333333333,32.21583333333333,85.79166666666669,6.264296875,63.392623796711526
1373551692.75,0.2889636666666667,32.2175,85.84583336106668,6.0461197916666665,63.35643210426434
1373551693.0,0.289177,32.219166666666666,85.90000000000002,5.826067708333333,63.320240411817146
1373551693.25,0.28939033333333336,32.22083333333333,85.94333331114669,5.572578125,63.284048719369956
1373551693.5,0.289657,32.2225,85.98666666666668,5.314505208333334,63.247857026922766
1373551693.75,0.28987033333333334,32.22416666666666,86.03000002218667,4.995104166666667,63.211665334475576
1373551694.0,0.2900836666666667,32.225833333333334,86.07333333333334,4.507395833333334,63.17910276097772
1373551694.25,0.290297,32.2275,86.10499998378667,4.204583333333334,63.150169306429234
1373551694.5,0.290457,32.229166666666664,86.13666666666667,3.827630208333334,63.124362140647804
1373551694.75,0.29056366666666666,32.23,86.16833334954667,3.325885416666667,63.129358397768534
1373551695.0,0.290617,32.23,86.2,2.993385416666667,63.13661663566723
1373551695.25,0.29067033333333336,32.23,86.22166665557334,2.6492968750000006,63.14387487356593
1373551695.5,0.29072366666666666,32.23,86.24333333333334,2.2966927083333335,63.15113311146462
1373551695.75,0.29083033333333336,32.23,86.26500001109333,2.15109375,63.15839134936331
1373551696.0,0.29093700000000006,32.23,86.28666666666668,1.9684114583333334,63.165649587262
1373551696.25,0.2910436666666667,32.23,86.30749998933334,1.6675781250000001,63.1729078251607
1373551696.5,0.2910436666666667,32.23,86.32833333333335,1.4965885416666669,63.180166063059396
1373551696.75,0.291097,32.23,86.34916667733334,1.411796875,63.18742430095808
1373551697.0,0.291097,32.23,86.37,1.4847135416666666,63.19105341990743
1373551697.25,0.29115033333333334,32.23,86.38416665941334,1.4036718750000003,63.19105341990743
1373551697.5,0.291257,32.23,86.39833333333334,1.3930208333333336,63.190189111918315
1373551697.75,0.29131033333333334,32.23,86.41250000725333,1.546354166666667,63.190189111918315
1373551698.0,0.29131033333333334,32.23,86.42666666666666,1.4631770833333333,63.190189111918315
1373551698.25,0.29131033333333334,32.23,86.42583333376,1.4756250000000002,63.190189111918315
1373551698.5,0.29125700000000004,32.23,86.425,1.6658333333333335,63.190189111918315
1373551698.75,0.29115033333333334,32.23,86.42416666624,1.6788020833333333,63.190189111918315
1373551699.0,0.29104366666666664,32.23,86.42333333333333,1.8588281250000003,63.190189111918315
1373551699.25,0.290937,32.23,86.40250001066667,2.3769010416666667,63.190189111918315
1373551699.5,0.2908836666666667,32.23,86.38166666666667,2.73640625,63.190189111918315
1373551699.75,0.29083033333333336,32.23,86.36083332266668,3.2244270833333335,63.190189111918315
1373551700.0,0.29083033333333336,32.23,86.34000000000002,3.703333333333333,63.190189111918315
1373551700.25,0.290777,32.23,86.30833334954667,4.145572916666667,63.190189111918315
1373551700.5,0.290617,32.23,86.27666666666667,4.721796875,63.190189111918315
1373551700.75,0.290457,32.23083333333333,86.24499998378667,5.1508593750000005,63.190189111918315
1373551701.0,0.2903503333333333,32.232499999999995,86.21333333333332,5.628854166666667,63.190189111918315
1373551701.25,0.2902436666666667,32.23416666666666,86.17666668544,6.197421875,63.190189111918315
1373551701.5,0.29013700000000003,32.23583333333333,86.13999999999999,6.546848958333334,63.190189111918315
1373551701.75,0.29003033333333333,32.2375,86.10333331455999,7.022916666666667,63.190189111918315
1373551702.0,0.2899236666666667,32.23916666666666,86.06666666666666,7.544192708333334,63.190189111918315
1373551702.25,0.289817,32.240833333333335,86.03500001621333,7.654244791666667,63.190189111918315
1373551702.5,0.28971033333333335,32.2425,86.00333333333333,7.833333333333333,63.190189111918315
1373551702.75,0.2896036666666667,32.244166666666665,85.97166665045333,7.860416666666667,63.190189111918315
1373551703.0,0.289497,32.24583333333333,85.94,7.660911458333334,63.190189111918315
1373551703.25,0.28939033333333336,32.247499999999995,85.91583334570667,7.585885416666667,63.190189111918315
1373551703.5,0.289337,32.24916666666667,85.89166666666668,7.4425260416666665,63.190189111918315
1373551703.75,0.289337,32.25,85.86749998762667,7.2570572916666665,63.190189111918315
1373551704.0,0.28928366666666666,32.25,85.84333333333335,7.247395833333333,63.190189111918315
1373551704.25,0.289177,32.25,85.83083333973335,6.997682291666667,63.190189111918315
1373551704.5,0.2890703333333334,32.25,85.81833333333334,6.664869791666667,63.190189111918315
1373551704.75,0.2889636666666667,32.25,85.80583332693334,6.453776041666667,63.190189111918315
1373551705.0,0.288857,32.25,85.79333333333334,6.016848958333333,63.20239121285196
1373551705.25,0.2887503333333334,32.25,85.79583333205333,5.6120833333333335,63.23591315205365
1373551705.5,0.2886436666666667,32.25,85.79833333333335,5.35203125,63.26943509125533
1373551705.75,0.288537,32.25,85.80083333461334,5.085572916666666,63.30295703045703
1373551706.0,0.28843033333333334,32.25,85.80333333333334,4.987838541666666,63.336478969658714
1373551706.25,0.2883236666666667,32.25,85.81583332693334,4.828723958333334,63.3700009088604
1373551706.5,0.28827033333333335,32.25,85.82833333333335,4.547161458333334,63.403522848062096
1373551706.75,0.288217,32.25,85.84083333973334,4.334583333333334,63.43704478726378
1373551707.0,0.288217,32.25,85.85333333333334,4.0095833333333335,63.47056672646548
1373551707.25,0.28832366666666664,32.25,85.86999999146667,3.4289062500000003,63.50408866566716
1373551707.5,0.28843033333333334,32.25,85.88666666666667,2.949609375,63.53761060486885
1373551707.75,0.288537,32.25083333333333,85.90333334186667,2.4796875000000003,63.571132544070544
1373551708.0,0.2886436666666667,32.252500000000005,85.92,2.04890625,63.58978766767348
1373551708.25,0.28875033333333333,32.25416666666667,85.93499999232,1.8233072916666668,63.58191291987358
1373551708.5,0.2888036666666667,32.255833333333335,85.95,1.5354947916666666,63.56599604017841
1373551708.75,0.288857,32.2575,85.96500000768,1.0765885416666667,63.53420271695495
1373551709.0,0.288857,32.259166666666665,85.98,0.7148958333333336,63.50068077775327
1373551709.25,0.288857,32.26083333333334,85.9924999936,0.3869270833333334,63.4753041156755
1373551709.5,0.2888036666666666,32.2625,86.005,-0.09651041666666658,63.4753041156755
1373551709.75,0.28875033333333333,32.26500000000001,86.01750000639998,-0.3555989583333332,63.47530411567549
1373551710.0,0.288697,32.26833333333334,86.02999999999999,-0.5729687499999999,63.47530411567549
1373551710.25,0.28859033333333334,32.27166666666667,86.04166666069332,-0.3184114583333333,63.47530411567549
1373551710.5,0.288537,32.275,86.05333333333333,0.37145833333333345,63.47530411567549
1373551710.75,0.28848366666666664,32.2775,86.06500000597333,0.760390625,63.47530411567549
1373551711.0,0.28843033333333334,32.27916666666667,86.07666666666667,1.151328125,63.47796883034061
1373551711.25,0.2884303333333333,32.280833333333334,86.08666666154667,1.698046875,63.4858435781405
1373551711.5,0.28848366666666664,32.282500000000006,86.09666666666666,1.9517187500000002,63.50176045783567
1373551711.75,0.288537,32.284166666666664,86.10666667178667,2.5613802083333335,63.53355378105913
1373551712.0,0.2886436666666667,32.285833333333336,86.11666666666667,3.300286458333334,63.56707572026082
1373551712.25,0.28875033333333333,32.2875,86.12499999573335,4.044817708333333,63.592452382338585
1373551712.5,0.288857,32.28916666666667,86.13333333333335,5.26078125,63.592452382338585
1373551712.75,0.2889636666666667,32.29,86.14166667093335,6.13625,63.592452382338585
1373551713.0,0.2890703333333334,32.29,86.15000000000002,6.966718749999999,63.592452382338585
1373551713.25,0.28917699999999996,32.29,86.15833332906668,7.7653125,63.592452382338585
1373551713.5,0.28917699999999996,32.29,86.16666666666669,7.963333333333334,63.592452382338585
1373551713.75,0.28917699999999996,32.29,86.17500000426668,8.321588541666667,63.592452382338585
1373551714.0,0.28912366666666667,32.29,86.18333333333334,8.786015625000001,63.592452382338585
1373551714.25,0.289017,32.29,86.19333332821333,8.861640625000001,63.592452382338585
1373551714.5,0.2889103333333333,32.29,86.20333333333332,9.269479166666667,63.592452382338585
1373551714.75,0.28875029166666666,32.28916666666667,86.21333333845332,9.4959375,63.592452382338585
1373551715.0,0.28853687499999997,32.2875,86.22333333333331,9.354895833333332,63.592452382338585
1373551715.25,0.28832345833333334,32.285833333333336,86.23583332693332,9.362734375,63.592452382338585
1373551715.5,0.28805670833333336,32.28416666666667,86.24833333333332,8.916276041666666,63.592452382338585
1373551715.75,0.287736625,32.2825,86.26083333973332,8.508489583333334,63.592452382338585
1373551716.0,0.2874165416666667,32.280833333333334,86.27333333333333,8.308307291666667,63.592452382338585
1373551716.25,0.28709645833333336,32.27916666666667,86.29083332437334,7.934479166666667,63.592452382338585
1373551716.5,0.28677637500000003,32.2775,86.30833333333334,7.791640624999999,63.592452382338585
1373551716.75,0.28640295833333335,32.27583333333334,86.32583334229334,7.755442708333334,63.592452382338585
1373551717.0,0.286082875,32.274166666666666,86.34333333333335,7.596145833333334,63.592452382338585
1373551717.25,0.2857627916666667,32.2725,86.36666665472,7.587812499999999,63.592452382338585
1373551717.5,0.285389375,32.270833333333336,86.39000000000001,7.459218749999999,63.592452382338585
1373551717.75,0.285016,32.27,86.41333334528001,7.307708333333334,63.592452382338585
1373551718.0,0.284696,32.27,86.43666666666667,7.305677083333333,63.592452382338585
1373551718.25,0.284376,32.27,86.46333331968,6.994557291666666,63.592452382338585
1373551718.5,0.2841093333333334,32.27,86.49000000000001,6.920937500000001,63.592452382338585
1373551718.75,0.283896,32.270833333333336,86.51666668032,6.980130208333333,63.592452382338585
1373551719.0,0.2836826666666667,32.2725,86.54333333333334,6.720989583333334,63.592165602047764
1373551719.25,0.2834159583333334,32.274166666666666,86.56833332053334,6.558802083333333,63.56496352818047
1373551719.5,0.28314920833333335,32.27583333333333,86.59333333333333,6.448255208333333,63.52418335108009
1373551719.75,0.28293579166666666,32.2775,86.61833334613333,6.098932291666666,63.48476409358571
1373551720.0,0.2826690416666667,32.27916666666667,86.64333333333333,5.827760416666667,63.47836726802323
1373551720.25,0.28234895833333334,32.280833333333334,86.664166656,5.687786458333334,63.473778783370044
1373551720.5,0.28208220833333336,32.2825,86.685,5.479375000000001,63.46919029871685
1373551720.75,0.2818687916666667,32.28416666666667,86.705833344,5.23515625,63.46460181406366
1373551721.0,0.281655375,32.285833333333336,86.72666666666667,5.0472656250000005,63.44417946396482
1373551721.25,0.28144195833333335,32.2875,86.74166665898667,4.9546093749999995,63.40339928686444
1373551721.5,0.28122854166666666,32.28916666666667,86.75666666666667,4.725026041666667,63.36261910976406
1373551721.75,0.2809617916666666,32.29083333333333,86.77166667434668,4.609609375,63.321838932663674
1373551722.0,0.280588375,32.2925,86.78666666666668,4.576901041666667,63.281345535854115
1373551722.25,0.280215,32.29416666666667,86.79666666154667,4.495390625,63.29084709883458
1373551722.5,0.279895,32.295833333333334,86.80666666666667,4.52796875,63.31076372309824
1373551722.75,0.27957499999999996,32.2975,86.81666667178666,4.601822916666667,63.34378615503015
1373551723.0,0.2792549583333333,32.29916666666667,86.82666666666665,4.583020833333333,63.318469382300215
1373551723.25,0.27893487499999997,32.30083333333334,86.83083333119998,4.582213541666667,63.28953592775172
1373551723.5,0.2785614583333333,32.3025,86.83499999999998,4.528515625,63.26060247320322
1373551723.75,0.2781347083333333,32.30416666666667,86.83916666879999,4.365572916666666,63.23166901865472
1373551724.0,0.27770795833333334,32.30583333333333,86.84333333333332,4.250364583333333,63.21856942955188
1373551724.25,0.2772812083333333,32.307500000000005,86.83666667007999,4.1578125,63.22582766745057
1373551724.5,0.27685445833333333,32.30916666666667,86.82999999999998,4.120104166666667,63.23308590534926
1373551724.75,0.27648104166666665,32.31,86.82333332991999,4.038046875,63.24034414324796
1373551725.0,0.2761609583333333,32.31,86.81666666666666,4.049869791666667,63.24760238114664
1373551725.25,0.275840875,32.31,86.79416667818666,3.88859375,63.23178095283178
1373551725.5,0.27552079166666665,32.31,86.77166666666665,3.689817708333333,63.219122566466815
1373551725.75,0.275147375,32.30916666666666,86.74916665514665,3.685416666666667,63.19199745282759
1373551726.0,0.274774,32.3075,86.72666666666665,3.5226302083333336,63.190189111918315
1373551726.25,0.274400625,32.30583333333333,86.68750002005332,3.2923177083333335,63.190189111918315
1373551726.5,0.27408058333333335,32.30416666666667,86.64833333333333,3.3115104166666662,63.190189111918315
1373551726.75,0.2737605,32.3025,86.60916664661333,3.5531770833333334,63.190189111918315
1373551727.0,0.2734404166666667,32.30083333333334,86.57000000000001,3.634479166666667,63.190189111918315
1373551727.25,0.27312033333333335,32.299166666666665,86.52166669141334,3.715755208333333,63.190189111918315
1373551727.5,0.27280025,32.2975,86.47333333333333,3.706666666666667,63.190189111918315
1373551727.75,0.2724801666666667,32.29583333333333,86.42499997525333,3.657994791666667,63.190189111918315
1373551728.0,0.2722667916666667,32.29416666666666,86.37666666666667,3.7078124999999997,63.190189111918315
1373551728.25,0.27216012500000003,32.2925,86.32416669354667,3.879348958333333,63.190189111918315
1373551728.5,0.27205345833333333,32.29083333333333,86.27166666666668,3.9247656250000005,63.190189111918315
1373551728.75,0.272000125,32.29,86.21916663978666,4.014921875,63.190189111918315
1373551729.0,0.272000125,32.29,86.16666666666667,4.254895833333333,63.190189111918315
1373551729.25,0.2720535,32.29,86.11166669482667,4.345468749999999,63.190189111918315
1373551729.5,0.2720535,32.29,86.05666666666667,4.511276041666667,63.190189111918315
1373551729.75,0.272106875,32.29,86.00166663850668,4.54953125,63.190189111918315
1373551730.0,0.272106875,32.29,85.94666666666667,4.875104166666667,63.190189111918315
1373551730.25,0.27210687499999997,32.29,85.8883333632,5.211250000000001,63.190189111918315
1373551730.5,0.2720535416666667,32.29,85.83,5.577265625,63.190189111918315
1373551730.75,0.2718935416666667,32.29083333333333,85.77166663679999,5.895442708333333,63.190189111918315
1373551731.0,0.2716268333333333,32.2925,85.71333333333332,6.077109374999999,63.190189111918315
1373551731.25,0.27125341666666664,32.29416666666666,85.65083336533333,6.356744791666666,63.190189111918315
1373551731.5,0.27082666666666666,32.295833333333334,85.58833333333332,6.696901041666667,63.190189111918315
1373551731.75,0.2703999166666667,32.2975,85.52583330133332,6.801640625,63.190189111918315
1373551732.0,0.26997316666666665,32.299166666666665,85.46333333333332,7.081119791666667,63.190189111918315
1373551732.25,0.26949304166666666,32.30083333333334,85.39916669952,7.489739583333333,63.190189111918315
1373551732.5,0.2688529166666667,32.3025,85.335,7.503802083333333,63.190189111918315
1373551732.75,0.26783941666666666,32.305,85.27083330047999,7.581250000000001,63.190189111918315
1373551733.0,0.26666591666666667,32.30833333333333,85.20666666666666,7.352057291666667,63.190189111918315
1373551733.25,0.2654924166666666,32.31166666666667,85.13833336832,7.064479166666666,63.190189111918315
1373551733.5,0.26437225000000003,32.315000000000005,85.07,7.016744791666667,63.190189111918315
1373551733.75,0.26335875,32.3175,85.00166663168,6.887343749999999,63.190189111918315
1373551734.0,0.2623985833333333,32.31916666666667,84.93333333333334,6.7336197916666665,63.190189111918315
1373551734.25,0.26149174999999997,32.32083333333333,84.86250003626667,6.701067708333333,63.190189111918315
1373551734.5,0.26063825,32.3225,84.79166666666667,6.553567708333333,63.190189111918315
1373551734.75,0.25978474999999995,32.32416666666666,84.72083329706668,6.398411458333334,63.190189111918315
1373551735.0,0.25893125,32.32583333333333,84.65,6.197656249999999,63.190189111918315
1373551735.25,0.25813112499999996,32.3275,84.58750003200001,5.958072916666667,63.190189111918315
1373551735.5,0.257544375,32.329166666666666,84.525,5.887369791666667,63.190189111918315
1373551735.75,0.257331,32.33,84.46249996799999,5.931875000000001,63.190189111918315
1373551736.0,0.257331,32.33,84.39999999999999,6.5147916666666665,63.190189111918315
1373551736.25,0.257331,32.33,84.3500000256,7.1028125,63.190189111918315
1373551736.5,0.25727762499999995,32.33,84.3,7.167447916666666,63.190189111918315
1373551736.75,0.25717087499999997,32.329166666666666,84.2499999744,7.621536458333334,63.190189111918315
1373551737.0,0.257064125,32.3275,84.2,8.033307291666667,63.190189111918315
1373551737.25,0.256797375,32.32583333333333,84.16083335338666,7.7398437499999995,63.190189111918315
1373551737.5,0.25637062499999996,32.32416666666666,84.12166666666667,7.6656770833333345,63.190189111918315
1373551737.75,0.255943875,32.32333333333333,84.08249997994668,8.165234374999999,63.190189111918315
1373551738.0,0.25535708333333335,32.32333333333333,84.04333333333334,8.097994791666666,63.190189111918315
1373551738.25,0.25455691666666663,32.32333333333333,84.00333335381333,7.840260416666666,63.190189111918315
1373551738.5,0.253116625,32.32333333333333,83.96333333333334,8.161901041666667,63.190189111918315
1373551738.75,0.2509828333333333,32.32333333333333,83.92333331285334,8.258541666666668,63.20066471791884
1373551739.0,0.24863566666666667,32.32333333333333,83.88333333333334,7.4753645833333335,63.234186657120524
1373551739.25,0.24618183333333335,32.32333333333333,83.84000002218667,7.23796875,63.26770859632222
1373551739.5,0.24372804166666664,32.32333333333333,83.79666666666667,7.336979166666667,63.301230535523906
1373551739.75,0.24127429166666667,32.32416666666666,83.75333331114666,6.801510416666667,63.3347524747256
1373551740.0,0.23876716666666667,32.32583333333333,83.71,6.503776041666668,63.36827441392729
1373551740.25,0.23636666666666664,32.3275,83.66416669013333,6.726666666666667,63.378750019927814
1373551740.5,0.23412616666666666,32.329166666666666,83.61833333333333,6.648697916666666,63.378750019927814
1373551740.75,0.23188566666666666,32.33,83.57249997653332,6.092005208333334,63.37875001992782
1373551741.0,0.22980520833333332,32.33,83.52666666666666,6.045078125000001,63.378750019927814
1373551741.25,0.22793812500000002,32.33,83.47750002517333,6.247682291666667,63.37875001992782
1373551741.5,0.22671116666666666,32.33,83.42833333333333,5.843984374999999,63.37875001992782
1373551741.75,0.2261777083333333,32.33,83.37916664149333,5.422057291666667,63.36827441392729
1373551742.0,0.22585762499999998,32.33,83.33,5.563359375000001,63.334752474725605
1373551742.25,0.22564420833333332,32.33,83.27083336362666,5.188802083333333,63.301230535523906
1373551742.5,0.225484125,32.33,83.21166666666666,4.72390625,63.273993959922535
1373551742.75,0.22537737500000002,32.33,83.15249996970665,4.800390625,63.273993959922535
1373551743.0,0.225324,32.33,83.09333333333332,4.715494791666667,63.273993959922535
1373551743.25,0.225324,32.33,83.02416670208,4.682994791666666,63.2970402931237
1373551743.5,0.225324,32.33,82.95499999999998,4.909635416666666,63.330562232325384
1373551743.75,0.225324,32.33,82.88583329791999,5.02046875,63.364084171527075
1373551744.0,0.225377375,32.33,82.81666666666666,5.210963541666667,63.38713050472824
1373551744.25,0.22543074999999999,32.33,82.73666670762667,5.526744791666666,63.38713050472824
1373551744.5,0.22553750000000003,32.33,82.65666666666667,5.615026041666667,63.38713050472824
1373551744.75,0.22564425000000002,32.33,82.57666662570666,5.979791666666666,63.38713050472824
1373551745.0,0.225751,32.33,82.49666666666667,6.314583333333332,63.40179635312898
1373551745.25,0.22585775,32.33,82.42416670378667,6.427630208333333,63.43531829233067
1373551745.5,0.22596449999999998,32.33,82.35166666666666,6.890625,63.46255486793205
1373551745.75,0.22607124999999997,32.33,82.27916662954667,7.104505208333333,63.46255486793205
1373551746.0,0.22617800000000002,32.33,82.20666666666666,7.140078125,63.46255486793205
1373551746.25,0.22628475,32.33,82.14583336448,7.370260416666667,63.46255486793205
1373551746.5,0.2263915,32.33,82.085,7.266744791666667,63.46255486793205
1373551746.75,0.22649825,32.33,82.02416663552,7.393593750000001,63.462554867932035
1373551747.0,0.226551625,32.33,81.96333333333334,7.526875,63.47303047393257
1373551747.25,0.226605,32.33,81.91583335765334,7.242239583333334,63.50655241313425
1373551747.5,0.226605,32.33,81.86833333333334,7.3789322916666675,63.54007435233594
1373551747.75,0.226605,32.330416666666665,81.82083330901332,7.253958333333334,63.57359629153763
1373551748.0,0.226605,32.331250000000004,81.77333333333333,6.88,63.592452382338585
1373551748.25,0.226551625,32.33208333333333,81.72750002346666,6.9478125,63.592452382338585
1373551748.5,0.22644487500000002,32.33291666666667,81.68166666666667,6.663828125000001,63.592452382338585
1373551748.75,0.22633812500000003,32.33375,81.63583330986667,6.337656249999999,63.592452382338585
1373551749.0,0.22623137499999998,32.334583333333335,81.59,6.332734375,63.592452382338585
1373551749.25,0.226124625,32.33541666666667,81.5525000192,5.980286458333334,63.592452382338585
1373551749.5,0.22596454166666666,32.33625,81.515,5.980364583333333,63.592452382338585
1373551749.75,0.22575112499999997,32.33708333333333,81.4774999808,5.974270833333333,63.592452382338585
1373551750.0,0.22553770833333334,32.33791666666667,81.44,5.634140625000001,63.592452382338585
1373551750.25,0.22532429166666668,32.33875,81.41250001408,5.700390625000001,63.592452382338585
1373551750.5,0.22511087500000002,32.33958333333334,81.38499999999999,5.629114583333333,63.592452382338585
1373551750.75,0.22489745833333333,32.34,81.35749998592,5.6038541666666655,63.592452382338585
1373551751.0,0.22468404166666667,32.34,81.33,5.949869791666667,63.592452382338585
1373551751.25,0.22452399999999997,32.34,81.31500000768,5.970468750000001,63.592452382338585
1373551751.5,0.22441733333333333,32.34,81.3,6.092890625,63.592452382338585
1373551751.75,0.22431066666666666,32.34,81.28499999232,6.3945572916666675,63.592452382338585
1373551752.0,0.224204,32.34,81.27,6.242239583333333,63.592452382338585
1373551752.25,0.22409733333333334,32.34,81.26166667093332,6.289401041666667,63.592452382338585
1373551752.5,0.224044,32.34,81.25333333333333,6.2945312499999995,63.592452382338585
1373551752.75,0.224044,32.34,81.24499999573334,6.000052083333333,63.592452382338585
1373551753.0,0.224044,32.34,81.23666666666666,6.109947916666667,63.592452382338585
1373551753.25,0.224044,32.34,81.23916666538666,6.0382291666666665,63.592452382338585
1373551753.5,0.224044,32.34,81.24166666666667,5.788255208333333,63.592452382338585
1373551753.75,0.224044,32.34,81.24416666794667,5.829635416666668,63.592452382338585
1373551754.0,0.224044,32.34,81.24666666666667,5.505052083333333,63.592452382338585
1373551754.25,0.224044,32.34,81.26416665770667,5.2882291666666665,63.592452382338585
1373551754.5,0.224044,32.34,81.28166666666667,5.246979166666667,63.592452382338585
1373551754.75,0.224044,32.34,81.29916667562667,4.910260416666667,63.592452382338585
1373551755.0,0.224044,32.34,81.31666666666666,5.158984375,63.592452382338585
1373551755.25,0.224044,32.34,81.3458333184,5.27515625,63.592452382338585
1373551755.5,0.224044,32.34,81.375,5.187760416666667,63.592452382338585
1373551755.75,0.224044,32.34,81.4041666816,5.478619791666667,63.592452382338585
1373551756.0,0.224044,32.34,81.43333333333334,5.473567708333333,63.592452382338585
1373551756.25,0.224044,32.34,81.46833331541333,5.481875,63.592452382338585
1373551756.5,0.224044,32.34,81.50333333333333,5.823203125,63.576148880979
1373551756.75,0.224044,32.34,81.53833335125334,5.762864583333333,63.5428329351431
1373551757.0,0.224044,32.34,81.57333333333334,5.893515625,63.509310995941405
1373551757.25,0.224044,32.34,81.61083331413333,6.158385416666667,63.47578905673972
1373551757.5,0.224044,32.34,81.64833333333334,6.128619791666668,63.44226711753803
1373551757.75,0.22409733333333334,32.34,81.68583335253334,6.3253125,63.408745178336346
1373551758.0,0.224204,32.34,81.72333333333333,6.353750000000001,63.37522323913466
1373551758.25,0.22431066666666666,32.34,81.76166664704,6.798880208333333,63.34170129993297
1373551758.5,0.22441733333333333,32.34,81.8,7.275000000000001,63.30817936073128
1373551758.75,0.22457737499999997,32.34,81.83833335295999,7.484192708333333,63.27465742152959
1373551759.0,0.22479079166666668,32.34,81.87666666666667,7.9577864583333335,63.2411354823279
1373551759.25,0.22500420833333334,32.34,81.91083331584,8.232786458333335,63.20761354312621
1373551759.5,0.22527095833333333,32.34,81.945,8.277864583333333,63.190395105284104
1373551759.75,0.2255910416666667,32.34125,81.97916668416,8.595677083333333,63.190189111918315
1373551760.0,0.225911125,32.34375,82.01333333333334,8.619088541666667,63.190189111918315
1373551760.25,0.22623120833333332,32.346250000000005,82.04166665216,8.447552083333333,63.190189111918315
1373551760.5,0.22655129166666668,32.34875,82.07,8.6153125,63.190189111918315
1373551760.75,0.22681804166666666,32.35125,82.09833334784,8.727708333333334,63.190189111918315
1373551761.0,0.22703145833333335,32.35375,82.12666666666667,8.686380208333333,63.190189111918315
1373551761.25,0.227244875,32.35625,82.14749998933333,8.243984374999998,63.190189111918315
1373551761.5,0.22745829166666667,32.35875,82.16833333333332,7.941848958333332,63.190189111918315
1373551761.75,0.22761833333333337,32.361250000000005,82.18916667733333,7.7353125,63.190189111918315
1373551762.0,0.22772499999999998,32.363749999999996,82.21,7.18703125,63.190189111918315
1373551762.25,0.22783166666666665,32.36625,82.22666665813333,6.994010416666666,63.190189111918315
1373551762.5,0.227885,32.36875,82.24333333333333,6.875859375,63.190189111918315
1373551762.75,0.22793833333333333,32.37,82.26000000853332,6.487213541666667,63.190189111918315
1373551763.0,0.22804500000000003,32.37,82.27666666666666,6.663515625,63.190189111918315
1373551763.25,0.22815166666666667,32.37,82.28749999445333,6.858828125,63.190189111918315
1373551763.5,0.22831166666666666,32.37,82.29833333333332,6.596927083333333,63.190189111918315
1373551763.75,0.228578375,32.37,82.30916667221332,6.640338541666668,63.190189111918315
1373551764.0,0.22889845833333333,32.37,82.32,6.69453125,63.190189111918315
1373551764.25,0.22921854166666666,32.37,82.32583333034665,6.603437500000001,63.190189111918315
1373551764.5,0.229538625,32.37,82.33166666666665,6.730963541666667,63.190189111918315
1373551764.75,0.22985870833333333,32.37,82.33750000298666,6.806484375,63.19437935431853
1373551765.0,0.23017879166666666,32.37,82.34333333333332,7.0378645833333335,63.22790129352021
1373551765.25,0.230498875,32.37,82.34499999914665,7.252942708333333,63.26142323272191
1373551765.5,0.23081895833333332,32.37,82.34666666666666,7.399921875,63.294945171923594
1373551765.75,0.23097900000000002,32.37,82.34833333418666,7.705130208333334,63.328467111125285
1373551766.0,0.23097900000000002,32.37,82.35,7.733151041666667,63.361989050326976
1373551766.25,0.23097899999999996,32.37,82.34750000128,7.861458333333334,63.39551098952867
1373551766.5,0.23092566666666667,32.37,82.345,8.240651041666668,63.42903292873035
1373551766.75,0.23076562499999997,32.37,82.34249999871999,8.349791666666667,63.460459746731935
1373551767.0,0.23049887500000002,32.37,82.33999999999999,8.573619791666667,63.460459746731935
1373551767.25,0.230232125,32.37,82.33416666965333,9.006119791666666,63.460459746731935
1373551767.5,0.22991204166666668,32.37,82.32833333333332,8.979895833333334,63.460459746731935
1373551767.75,0.22959195833333332,32.37,82.32249999701332,9.061145833333333,63.45626950433172
1373551768.0,0.229271875,32.37,82.31666666666666,9.350911458333334,63.42274756513004
1373551768.25,0.22895179166666668,32.37,82.31083333632,9.18640625,63.38922562592834
1373551768.5,0.22868504166666667,32.37,82.305,8.875703125,63.355703686726656
1373551768.75,0.22857833333333333,32.37,82.29916666368,8.775130208333332,63.32218174752496
1373551769.0,0.22863166666666665,32.37,82.29333333333334,8.724270833333334,63.288659808323274
1373551769.25,0.22873833333333335,32.37,82.28750000298666,8.48609375,63.258391529049725
1373551769.5,0.22895170833333334,32.37,82.28166666666667,8.342109375,63.2321178370403
1373551769.75,0.22937845833333334,32.37,82.27583333034667,7.925963541666667,63.20793926623099
1373551770.0,0.23028529166666667,32.37,82.27,6.954947916666668,63.215187513423245
1373551770.25,0.231618875,32.37,82.26750000128,5.801276041666667,63.22243576061552
1373551770.5,0.2331124583333333,32.37,82.265,4.884635416666667,63.22968400780778
1373551770.75,0.23460604166666668,32.37,82.26249999872,3.886015625,63.23693225500005
1373551771.0,0.236099625,32.37,82.26,2.625703125,63.24418050219231
1373551771.25,0.23764658333333333,32.37,82.25500000256,2.0958854166666665,63.25142874938458
1373551771.5,0.23919358333333332,32.37,82.25,1.7447916666666667,63.25867699657684
1373551771.75,0.24074058333333334,32.37,82.24499999744,1.1386979166666666,63.26592524376911
1373551772.0,0.24228758333333333,32.37,82.24,0.43156250000000007,63.27317349096137
1373551772.25,0.24378125000000003,32.37,82.22916667221332,-0.19679687499999995,63.2771680782255
1373551772.5,0.24516820833333333,32.37,82.21833333333333,-0.9885156249999999,63.2771680782255
1373551772.75,0.2463417916666667,32.37,82.20749999445333,-1.1233333333333333,63.2771680782255
1373551773.0,0.24708862499999998,32.37,82.19666666666666,-0.6470052083333332,63.2771680782255
1373551773.25,0.24746204166666666,32.37,82.17750000981333,0.5259114583333334,63.2771680782255
1373551773.5,0.2477287916666667,32.37,82.15833333333333,1.9097656250000001,63.2771680782255
1373551773.75,0.24799554166666668,32.37,82.13916665685332,2.847786458333333,63.2771680782255
1373551774.0,0.2482622916666667,32.37,82.11999999999999,4.203072916666667,63.2771680782255
1373551774.25,0.24842233333333333,32.37,82.09500001279999,5.1290104166666675,63.2771680782255
1373551774.5,0.248529,32.37,82.07,5.957369791666667,63.2771680782255
1373551774.75,0.24863566666666667,32.37,82.0449999872,7.140729166666667,63.2771680782255
1373551775.0,0.2486356666666667,32.37,82.02,8.198645833333334,63.2771680782255
1373551775.25,0.24863566666666667,32.37,81.99583334570666,9.255052083333334,63.2771680782255
1373551775.5,0.24858233333333335,32.37,81.97166666666666,10.459505208333335,63.2771680782255
1373551775.75,0.24858233333333332,32.37,81.94749998762667,11.033697916666666,63.2771680782255
1373551776.0,0.24858233333333335,32.37,81.92333333333333,11.397109375,63.2771680782255
1373551776.25,0.24847566666666668,32.37,81.90250001066666,11.100677083333336,63.30057098625549
1373551776.5,0.24842233333333333,32.37,81.88166666666666,10.512578125000001,63.32553408815414
1373551776.75,0.24831566666666668,32.37,81.86083332266666,10.355677083333333,63.35184865255198
1373551777.0,0.248209,32.37,81.83999999999999,9.788229166666667,63.3787775180858
1373551777.25,0.24810233333333334,32.37,81.82166667605333,8.918671875,63.405706383619616
1373551777.5,0.24799566666666664,32.37,81.80333333333333,8.184114583333333,63.43263524915344
1373551777.75,0.24783566666666668,32.37,81.78499999061333,7.104453125,63.45956411468726
1373551778.0,0.24778233333333333,32.37,81.76666666666667,5.899140625,63.486492980221094
1373551778.25,0.24778233333333333,32.37,81.75333334016,4.8758333333333335,63.51342184575491
1373551778.5,0.24783566666666668,32.37,81.74,3.8628125,63.54035071128874
1373551778.75,0.24783566666666668,32.37,81.72666665983999,2.936588541666667,63.567279576822564
1373551779.0,0.24783566666666668,32.37,81.71333333333332,2.237890625,63.59420844235638
1373551779.25,0.247889,32.37,81.70333333845333,1.6791145833333336,63.59773439986022
1373551779.5,0.247889,32.37,81.69333333333333,0.9998437500000001,63.59970016349539
1373551779.75,0.24794233333333335,32.37,81.68333332821334,0.38919270833333347,63.60031446463138
1373551780.0,0.24799566666666664,32.37,81.67333333333335,-0.39919270833333315,63.60031446463138
1373551780.25,0.24810233333333334,32.37,81.66916666880002,-0.6870312499999999,63.60031446463138
1373551780.5,0.248209,32.37,81.66500000000002,-0.7847395833333333,63.60031446463138
1373551780.75,0.24831566666666668,32.37,81.66083333120001,-0.9816666666666666,63.60031446463138
1373551781.0,0.248369,32.37,81.65666666666668,-0.6572135416666666,63.61085055800487
1373551781.25,0.248369,32.37,81.66749999445335,-0.2869010416666666,63.638946807000856
1373551781.5,0.248369,32.37,81.67833333333334,-0.28947916666666657,63.66704305599683
1373551781.75,0.248369,32.36875,81.68916667221333,0.08992187500000005,63.69513930499281
1373551782.0,0.248369,32.36625,81.7,0.27734375000000006,63.723235553988786
1373551782.25,0.248369,32.363749999999996,81.72916665173334,0.29664062500000005,63.751331802984765
1373551782.5,0.248369,32.36125,81.75833333333333,0.9332291666666667,63.777672036418494
1373551782.75,0.24831566666666668,32.36000000000001,81.78750001493333,1.7124218749999998,63.779428051980744
1373551783.0,0.248209,32.36000000000001,81.81666666666666,2.7761197916666664,63.779428051980744
1373551783.25,0.24810233333333334,32.36,81.86416664234666,3.759973958333333,63.779428051980744
1373551783.5,0.24799566666666664,32.36,81.91166666666666,4.5863281250000005,63.75754158712439
1373551783.75,0.24788900000000003,32.36,81.95916669098668,5.569713541666666,63.70751538173844
1373551784.0,0.24778233333333333,32.36,82.00666666666667,6.231901041666666,63.646953082979
1373551784.25,0.24767566666666666,32.36,82.05249997653334,6.942656249999999,63.56883062859708
1373551784.5,0.247569,32.36,82.09833333333333,7.939244791666667,63.49070817421515
1373551784.75,0.24746233333333334,32.361250000000005,82.14416669013333,8.278984375,63.412585719833224
1373551785.0,0.24735566666666667,32.36375,82.19,8.817213541666666,63.3344632654513
1373551785.25,0.24724899999999997,32.36625,82.23749997568,9.724921875,63.25634081106937
1373551785.5,0.24714233333333332,32.36875,82.285,9.845859375,63.17997437224969
1373551785.75,0.247089,32.37,82.33250002432,9.509348958333334,63.1281921513015
1373551786.0,0.247089,32.37,82.38,9.630078124999999,63.07816594591554
1373551786.25,0.247089,32.37,82.42666664277333,9.680807291666667,63.0281397405296
1373551786.5,0.247089,32.37,82.47333333333333,9.283515625000001,63.0
1373551786.75,0.247089,32.37,82.52000002389333,8.829583333333334,63.00370975256072
1373551787.0,0.247089,32.37,82.56666666666666,8.611901041666668,63.022258515364285
1373551787.25,0.247035625,32.37,82.61833330687999,8.084557291666668,63.05193653585001
1373551787.5,0.24698225000000004,32.37,82.66999999999999,7.4339843750000005,63.08161455633572
1373551787.75,0.2468755,32.37,82.72166669312,7.363333333333333,63.11129257682145
1373551788.0,0.24671541666666666,32.37,82.77333333333333,7.1347916666666675,63.14097059730717
1373551788.25,0.246502,32.37,82.81583331157333,6.4546874999999995,63.170648617792885
1373551788.5,0.24628858333333337,32.37,82.85833333333332,6.218932291666667,63.200326638278604
1373551788.75,0.24607516666666665,32.37,82.90083335509333,6.292682291666668,63.23000465876432
1373551789.0,0.24586175,32.37,82.94333333333333,5.741015625,63.25968267925004
1373551789.25,0.24564833333333336,32.37,82.97249998506666,5.123984375,63.28936069973576
1373551789.5,0.24538158333333335,32.37,83.00166666666667,4.990364583333333,63.31903872022148
1373551789.75,0.24506149999999996,32.37,83.03083334826667,4.919661458333334,63.34500698814648
1373551790.0,0.24474141666666668,32.37,83.06,4.673177083333333,63.35613624582863
1373551790.25,0.24447470833333332,32.37,83.07333332650667,4.492890625,63.35613624582863
1373551790.5,0.24420799999999998,32.37,83.08666666666667,4.44015625,63.35613624582863
1373551790.75,0.24399466666666667,32.37,83.10000000682666,4.297161458333334,63.35613624582863
1373551791.0,0.24383466666666664,32.37,83.11333333333333,4.104661458333333,63.35613624582863
1373551791.25,0.24367466666666668,32.37,83.11666666496,4.15390625,63.35613624582863
1373551791.5,0.24351466666666666,32.37,83.12,4.165234375,63.35613624582863
1373551791.75,0.24335466666666664,32.37,83.12333333504,4.171145833333334,63.35613624582863
1373551792.0,0.24319466666666667,32.37,83.12666666666667,4.351197916666667,63.35613624582863
1373551792.25,0.2429813333333333,32.37,83.12166666922667,4.643645833333333,63.35613624582863
1373551792.5,0.24282133333333333,32.37,83.11666666666667,4.87765625,63.35613624582863
1373551792.75,0.24271466666666663,32.37083333333333,83.11166666410666,5.111744791666666,63.35613624582863
1373551793.0,0.24260799999999996,32.372499999999995,83.10666666666667,5.177734375,63.35613624582863
1373551793.25,0.24250133333333332,32.37416666666666,83.09583333888,5.569661458333333,63.35613624582863
1373551793.5,0.24239466666666665,32.37583333333333,83.08500000000001,6.066302083333333,63.35613624582863
1373551793.75,0.24228799999999998,32.3775,83.07416666112,6.287369791666667,63.35613624582863
1373551794.0,0.24218133333333333,32.37916666666666,83.06333333333333,6.664973958333333,63.35613624582863
1373551794.25,0.24212799999999998,32.380833333333335,83.04500000938667,7.362213541666667,63.35613624582863
1373551794.5,0.24207466666666666,32.3825,83.02666666666667,7.644036458333335,63.35613624582863
1373551794.75,0.24202133333333334,32.384166666666665,83.00833332394667,7.764114583333334,63.35613624582863
1373551795.0,0.241968,32.38583333333333,82.99000000000001,8.133750000000001,63.35613624582863
1373551795.25,0.241968,32.387499999999996,82.9650000128,8.113802083333333,63.35613624582863
1373551795.5,0.241968,32.38916666666666,82.94,7.724505208333333,63.35613624582863
1373551795.75,0.241968,32.38916666666666,82.9149999872,7.686041666666667,63.35613624582863
1373551796.0,0.241968,32.387499999999996,82.89,7.899270833333333,63.35613624582863
1373551796.25,0.241968,32.38583333333333,82.85916668245333,7.506328125,63.35613624582863
1373551796.5,0.241968,32.384166666666665,82.82833333333333,7.090703125,63.35613624582863
1373551796.75,0.241968,32.38333333333333,82.79749998421333,7.055911458333334,63.35613624582863
1373551797.0,0.24191462500000002,32.38333333333333,82.76666666666667,6.709947916666667,63.35613624582863
1373551797.25,0.241807875,32.38333333333333,82.73750001493333,5.96828125,63.35613624582863
1373551797.5,0.24170112499999996,32.38333333333333,82.70833333333333,5.582864583333333,63.35613624582863
1373551797.75,0.241594375,32.3825,82.67916665173333,5.332760416666667,63.35613624582863
1373551798.0,0.24148762499999998,32.380833333333335,82.64999999999999,4.80546875,63.35613624582863
1373551798.25,0.24138087499999997,32.37916666666667,82.62750001152,4.6078125000000005,63.35613624582863
1373551798.5,0.2413275,32.3775,82.60499999999999,4.865729166666667,63.35613624582863
1373551798.75,0.241274125,32.3775,82.58249998848,4.662890625,63.35613624582863
1373551799.0,0.241167375,32.37916666666667,82.56,4.3312760416666665,63.35613624582863
1373551799.25,0.241060625,32.380833333333335,82.54916667221333,4.45640625,63.35613624582863
1373551799.5,0.24100725,32.3825,82.53833333333333,4.37984375,63.35613624582863
1373551799.75,0.240953875,32.38333333333333,82.52749999445334,4.137317708333334,63.35613624582863
1373551800.0,0.24100725,32.38333333333333,82.51666666666667,4.22421875,63.35613624582863
1373551800.25,0.24111400000000002,32.38333333333333,82.51416666794667,4.3125,63.35613624582863
1373551800.5,0.24122075,32.38333333333333,82.51166666666666,4.646510416666667,63.35613624582863
1373551800.75,0.2413275,32.384166666666665,82.50916666538666,5.037083333333333,63.35613624582863
1373551801.0,0.24143425,32.38583333333333,82.50666666666666,5.199375000000001,63.35613624582863
1373551801.25,0.241541,32.387499999999996,82.51083333119999,5.620182291666667,63.35613624582863
1373551801.5,0.241594375,32.38916666666666,82.51499999999999,5.884088541666666,63.35613624582863
1373551801.75,0.24164774999999997,32.38916666666666,82.5191666688,6.165442708333333,63.35613624582863
1373551802.0,0.24175449999999998,32.387499999999996,82.52333333333333,6.619713541666667,63.35613624582863
1373551802.25,0.24186125,32.38583333333333,82.52999999658667,6.927760416666666,63.35613624582863
1373551802.5,0.24191462499999997,32.384166666666665,82.53666666666666,7.313541666666667,63.35613624582863
1373551802.75,0.241968,32.3825,82.54333333674666,7.565755208333333,63.35613624582863
1373551803.0,0.241968,32.380833333333335,82.55,7.708463541666667,63.35613624582863
1373551803.25,0.241968,32.37916666666666,82.55666666325334,8.173307291666667,63.35613624582863
1373551803.5,0.241968,32.3775,82.56333333333333,8.121380208333333,63.35613624582863
1373551803.75,0.241968,32.37583333333333,82.57000000341333,7.759947916666667,63.35613624582863
1373551804.0,0.241968,32.37416666666666,82.57666666666667,7.990416666666667,63.35613624582863
1373551804.25,0.241968,32.372499999999995,82.58333332992001,7.788333333333333,63.35613624582863
1373551804.5,0.241968,32.37083333333333,82.59,7.305807291666667,63.35613624582863
1373551804.75,0.241968,32.37,82.59666667008,7.157734375,63.35613624582863
1373551805.0,0.241968,32.37,82.60333333333334,6.7728125,63.35613624582863
1373551805.25,0.241968,32.37,82.60749999786667,6.190963541666668,63.35613624582863
1373551805.5,0.241968,32.37,82.61166666666666,5.743750000000001,63.35613624582863
1373551805.75,0.241968,32.37083333333333,82.61583333546666,5.585234375,63.35613624582863
1373551806.0,0.241968,32.372499999999995,82.61999999999999,5.23328125,63.35613624582863
1373551806.25,0.241968,32.37416666666667,82.61999999999999,4.554348958333334,63.35613624582863
1373551806.5,0.241968,32.37583333333333,82.61999999999999,4.344401041666667,63.35613624582863
1373551806.75,0.241968,32.3775,82.61999999999999,4.362369791666667,63.35613624582863
1373551807.0,0.241968,32.37916666666667,82.61999999999999,3.9224479166666666,63.35613624582863
1373551807.25,0.241968,32.380833333333335,82.61166667093332,3.725286458333334,63.35613624582863
1373551807.5,0.241968,32.3825,82.60333333333332,3.8621354166666664,63.35613624582863
1373551807.75,0.241968,32.384166666666665,82.59499999573333,3.7429166666666664,63.35613624582863
1373551808.0,0.241968,32.38583333333333,82.58666666666666,3.7809375,63.35613624582863
1373551808.25,0.241968,32.387499999999996,82.57000000853333,4.062109375,63.35613624582863
1373551808.5,0.241968,32.38916666666667,82.55333333333333,4.306822916666667,63.35613624582863
1373551808.75,0.241968,32.38916666666667,82.53666665813333,4.362708333333333,63.35613624582863
1373551809.0,0.241968,32.387499999999996,82.52,4.6134635416666665,63.35613624582863
1373551809.25,0.241968,32.38583333333333,82.49666667861332,4.999505208333333,63.35613624582863
1373551809.5,0.241968,32.384166666666665,82.47333333333333,5.1046354166666665,63.35613624582863
1373551809.75,0.241968,32.3825,82.44999998805334,5.238515625000001,63.35613624582863
1373551810.0,0.241968,32.38083333333333,82.42666666666666,5.5253645833333325,63.35613624582863
1373551810.25,0.241968,32.37916666666666,82.39666668202666,5.711250000000001,63.35613624582863
1373551810.5,0.241968,32.3775,82.36666666666667,5.960026041666667,63.35613624582863
1373551810.75,0.241968,32.37583333333333,82.33666665130667,6.203723958333334,63.35613624582863
1373551811.0,0.241968,32.37416666666666,82.30666666666667,6.375442708333334,63.35613624582863
1373551811.25,0.241968,32.372499999999995,82.27250001749334,6.6449218750000005,63.35613624582863
1373551811.5,0.241968,32.37083333333333,82.23833333333334,6.812161458333333,63.35613624582863
1373551811.75,0.241968,32.37083333333333,82.20416664917333,6.907708333333333,63.35613624582863
1373551812.0,0.241968,32.372499999999995,82.17,7.113906249999999,63.35613624582863
1373551812.25,0.241968,32.37416666666666,82.1325000192,7.127526041666667,63.35613624582863
1373551812.5,0.241968,32.37583333333333,82.095,7.215833333333333,63.35613624582863
1373551812.75,0.241968,32.3775,82.0574999808,7.232109375,63.35613624582863
1373551813.0,0.24191462500000002,32.37916666666666,82.02,6.783072916666668,63.35613624582863
1373551813.25,0.24191462500000002,32.380833333333335,81.98333335210667,6.5202864583333335,63.35613624582863
1373551813.5,0.24186125,32.3825,81.94666666666666,6.32671875,63.35613624582863
1373551813.75,0.241807875,32.385,81.90999998122666,5.899661458333334,63.35613624582863
1373551814.0,0.24175449999999998,32.38833333333333,81.87333333333333,5.597734375000001,63.35613624582863
1373551814.25,0.241701125,32.391666666666666,81.84000001706667,5.236692708333334,63.35613624582863
1373551814.5,0.24164774999999997,32.394999999999996,81.80666666666667,4.821458333333333,63.35613624582863
1373551814.75,0.241594375,32.39666666666667,81.77333331626667,4.458020833333333,63.35613624582863
1373551815.0,0.241541,32.39666666666667,81.74000000000001,3.90828125,63.35613624582863
1373551815.25,0.24143425,32.39666666666667,81.71166668117334,3.711979166666667,63.35613624582863
1373551815.5,0.2413275,32.39666666666667,81.68333333333334,3.394921875,63.35613624582863
1373551815.75,0.24122075,32.39666666666667,81.65499998549333,3.169166666666667,63.35613624582863
1373551816.0,0.241167375,32.39666666666667,81.62666666666667,3.777734375,63.35613624582863
1373551816.25,0.241060625,32.39666666666667,81.60166667946666,4.182864583333333,63.35613624582863
1373551816.5,0.24100725,32.39666666666667,81.57666666666665,4.1511458333333335,63.35613624582863
1373551816.75,0.240953875,32.395833333333336,81.55166665386666,4.621015625,63.35613624582863
1373551817.0,0.2409005,32.39416666666667,81.52666666666666,4.949140625,63.35613624582863
1373551817.25,0.24084712499999997,32.3925,81.50000001365332,4.82796875,63.35613624582863
1373551817.5,0.24079375000000003,32.39083333333334,81.47333333333333,5.03765625,63.35613624582863
1373551817.75,0.240740375,32.39,81.44666665301334,5.4785416666666675,63.35613624582863
1373551818.0,0.240687,32.39,81.42,5.739375,63.35613624582863
1373551818.25,0.240687,32.39,81.39083334826667,5.826822916666668,63.35613624582863
1373551818.5,0.240687,32.39,81.36166666666668,6.243489583333333,63.35613624582863
1373551818.75,0.240687,32.39083333333333,81.33249998506668,6.556848958333333,63.35613624582863
1373551819.0,0.240687,32.3925,81.30333333333334,6.410130208333334,63.373472477996934
1373551819.25,0.240687,32.39416666666667,81.27583334741334,6.316692708333334,63.40429244629616
1373551819.5,0.240687,32.395833333333336,81.24833333333333,6.522630208333333,63.43511241459538
1373551819.75,0.240687,32.3975,81.22083331925334,6.486328125,63.46593238289461
1373551820.0,0.240687,32.399166666666666,81.19333333333334,6.5296875000000005,63.49675235119383
1373551820.25,0.240687,32.40083333333333,81.17000001194667,7.014192708333334,63.52757231949304
1373551820.5,0.240687,32.402499999999996,81.14666666666668,7.250260416666666,63.55646603977356
1373551820.75,0.240687,32.40333333333333,81.12333332138668,7.243932291666666,63.55646603977357
1373551821.0,0.240687,32.40333333333333,81.10000000000001,7.548203125,63.55646603977356
1373551821.25,0.24063366666666666,32.40333333333333,81.08083334314667,7.800963541666667,63.55646603977356
1373551821.5,0.24052700000000002,32.40333333333333,81.06166666666667,7.737604166666666,63.55646603977356
1373551821.75,0.24042033333333335,32.402499999999996,81.04249999018667,7.854505208333333,63.55646603977356
