timestamp,EDA,TEMP,HR,BVP,ACC_mag
1373652105.0,0.07730233333333332,24.25,,7.611875,63.92182725798755
1373652105.25,0.07650914285714285,24.25,,7.850178571428572,63.92182725798755
1373652105.5,0.0759943125,24.25,,8.02890625,63.92182725798755
1373652105.75,0.07566505555555555,24.253333333333334,,8.146076388888888,63.92182725798755
1373652106.0,0.07540165,24.259,,7.897125,63.92182725798755
1373652106.25,0.07518613636363636,24.263636363636362,,7.374119318181818,63.92182725798755
1373652106.5,0.07500654166666666,24.2675,,6.927291666666666,63.92182725798755
1373652106.75,0.073778625,24.272499999999997,,6.449765625,63.92182725798755
1373652107.0,0.072924375,24.2775,,6.437161458333333,63.92182725798755
1373652107.25,0.072550625,24.2825,,6.373619791666666,63.92182725798755
1373652107.5,0.072657375,24.287499999999998,,5.914895833333333,63.92182725798755
1373652107.75,0.072764125,24.2925,,5.074921875,63.92182725798755
1373652108.0,0.072870875,24.2975,,4.3254166666666665,63.92182725798755
1373652108.25,0.072977625,24.3025,,3.6579947916666664,63.92182725798755
1373652108.5,0.073031,24.3075,,2.982135416666667,63.92182725798755
1373652108.75,0.073031,24.31,,2.326848958333333,63.92182725798755
1373652109.0,0.073031,24.31,,1.9570572916666666,63.92182725798755
1373652109.25,0.073031,24.31,,1.8637760416666664,63.92182725798755
1373652109.5,0.073031,24.31,,1.7648177083333332,63.92182725798755
1373652109.75,0.073031,24.310833333333335,,1.6021614583333335,63.92182725798755
1373652110.0,0.073031,24.3125,,1.3862239583333331,63.92182725798755
1373652110.25,0.073031,24.314166666666665,,1.1973958333333334,63.92182725798755
1373652110.5,0.073031,24.31583333333333,,1.0507552083333334,63.91558756161009
1373652110.75,0.073031,24.3175,,0.9269270833333333,63.90449476805014
1373652111.0,0.073031,24.319166666666664,,0.8219791666666668,63.893401974490196
1373652111.25,0.073031,24.32083333333333,,0.7431510416666667,63.882309180930264
1373652111.5,0.07308441666666667,24.322499999999994,,0.6699999999999999,63.87121638737031
1373652111.75,0.07319125,24.324166666666667,,0.5895833333333333,63.86012359381038
1373652112.0,0.07324466666666667,24.325833333333332,,0.5064583333333333,63.84903080025043
1373652112.25,0.07329808333333333,24.327499999999997,,0.4365364583333333,63.837938006690486
1373652112.5,0.07340491666666667,24.329166666666662,,0.3839322916666667,63.82684521313055
1373652112.75,0.07351175,24.33083333333333,,0.33643229166666666,63.8157524195706
1373652113.0,0.07356516666666667,24.3325,,0.2967708333333333,63.80465962601067
1373652113.25,0.07361858333333333,24.334166666666665,,0.2576041666666667,63.79356683245072
1373652113.5,0.073672,24.335833333333337,,0.21950520833333334,63.788713735268246
1373652113.75,0.07377883333333334,24.338333333333328,,0.18734375,63.788713735268246
1373652114.0,0.07383225,24.341666666666665,,0.15963541666666667,63.788713735268246
1373652114.25,0.07393908333333334,24.345,,0.13393229166666668,63.788713735268246
1373652114.5,0.0739925,24.348333333333333,,0.11018229166666667,63.788713735268246
1373652114.75,0.0739925,24.351666666666663,,0.08927083333333334,63.788713735268246
1373652115.0,0.07404591666666667,24.355,74.625,0.071796875,63.788713735268246
1373652115.25,0.07409933333333334,24.358333333333334,74.96208316074667,0.05223958333333334,63.788713735268246
1373652115.5,0.07409933333333334,24.361666666666668,75.29916666666668,0.033046875,63.788713735268246
1373652115.75,0.07404591666666667,24.365,75.63625017258667,0.027552083333333335,63.788713735268246
1373652116.0,0.07404591666666667,24.36833333333333,75.97333333333334,0.021927083333333333,63.788713735268246
1373652116.25,0.07404591666666667,24.37166666666667,76.38333312341334,0.021276041666666665,63.788713735268246
1373652116.5,0.07409933333333334,24.375,76.79333333333334,0.0215625,63.788713735268246
1373652116.75,0.07409933333333334,24.377499999999998,77.20333354325334,0.02080729166666667,63.788713735268246
1373652117.0,0.07415275,24.379166666666666,77.61333333333333,0.019817708333333333,63.788713735268246
1373652117.25,0.07409933333333334,24.38083333333334,78.1341664,0.024296874999999996,63.788713735268246
1373652117.5,0.07404591666666667,24.382500000000004,78.655,0.031796875,63.788713735268246
1373652117.75,0.07393908333333334,24.38416666666667,79.1758336,0.033984375,63.788713735268246
1373652118.0,0.07388566666666667,24.385833333333334,79.69666666666667,0.03497395833333333,63.788713735268246
1373652118.25,0.07383225,24.387500000000003,80.08499980117334,0.052395833333333336,63.788713735268246
1373652118.5,0.07383225,24.389166666666668,80.47333333333333,0.06291666666666666,63.788713735268246
1373652118.75,0.07393904166666668,24.390833333333333,80.86166686549333,0.06187499999999999,63.788713735268246
1373652119.0,0.07404583333333334,24.392500000000002,81.25,0.061354166666666675,63.788713735268246
1373652119.25,0.07415262500000001,24.394166666666663,81.87249968128,0.05611979166666667,63.788713735268246
1373652119.5,0.074152625,24.395833333333332,82.495,0.047734375,63.788713735268246
1373652119.75,0.074152625,24.398333333333337,83.11750031871999,0.04203125,63.788713735268246
1373652120.0,0.07420600000000001,24.40166666666667,83.74,0.03669270833333334,63.788713735268246
1373652120.25,0.07431279166666667,24.405,84.27083306154667,0.03403645833333333,63.788713735268246
1373652120.5,0.07441958333333333,24.40833333333333,84.80166666666668,0.028906249999999998,63.788713735268246
1373652120.75,0.07457979166666666,24.411666666666665,85.33250027178667,0.030468750000000003,63.788713735268246
1373652121.0,0.07473995833333334,24.415000000000003,85.86333333333334,0.030286458333333335,63.82050317455097
1373652121.25,0.074900125,24.418333333333333,86.39166639616,0.018619791666666666,63.89316475005436
1373652121.5,0.075006875,24.421666666666667,86.92000000000002,0.013359375000000001,63.96582632555774
1373652121.75,0.07506025,24.425,87.44833360384001,0.011744791666666669,64.03848790106113
1373652122.0,0.075113625,24.42833333333333,87.97666666666667,0.012500000000000002,64.1111494765645
1373652122.25,0.075113625,24.43166666666667,88.37333313024,0.01265625,64.1838110520679
1373652122.5,0.075167,24.435,88.77000000000001,0.019270833333333334,64.25647262757128
1373652122.75,0.075167,24.438333333333333,89.16666686976001,0.025572916666666667,64.32913420307466
1373652123.0,0.075113625,24.441666666666663,89.56333333333333,0.029635416666666668,64.40179577857803
1373652123.25,0.07506025000000001,24.445000000000004,89.88666650112,0.029479166666666667,64.47445735408142
1373652123.5,0.07506025000000001,24.448333333333334,90.21000000000001,0.027682291666666668,64.54711892958481
1373652123.75,0.075113625,24.4525,90.53333349888,0.024609375000000003,64.61523915661924
1373652124.0,0.07506025,24.4575,90.85666666666667,0.024401041666666668,64.62886320202611
1373652124.25,0.07500687500000001,24.462500000000002,91.06499989333334,0.022994791666666667,64.5607429749917
1373652124.5,0.0749535,24.467499999999998,91.27333333333334,0.021276041666666665,64.48808139948831
1373652124.75,0.07484675,24.471666666666664,91.48166677333333,0.020520833333333332,64.41541982398492
1373652125.0,0.07474,24.474999999999998,91.69,0.018151041666666666,64.34275824848153
1373652125.25,0.074686625,24.478333333333335,91.81333327018666,0.018411458333333335,64.27009667297816
1373652125.5,0.074686625,24.48166666666667,91.93666666666667,0.0153125,64.19743509747478
1373652125.75,0.07479337500000001,24.485,92.06000006314667,0.01203125,64.12477352197139
1373652126.0,0.07484675,24.488333333333333,92.18333333333334,0.009661458333333333,64.052111946468
1373652126.25,0.0749535,24.491666666666664,92.24249996970667,0.006484375,63.98222356935461
1373652126.5,0.075006875,24.495,92.30166666666666,0.0053125,63.920654787411166
1373652126.75,0.075006875,24.499166666666667,92.36083336362667,0.004401041666666667,63.86362735393669
1373652127.0,0.07506025,24.504166666666663,92.42,0.008411458333333335,63.82930666280702
1373652127.25,0.07506025000000001,24.509166666666662,92.48916663125333,0.016041666666666666,63.835858107898
1373652127.5,0.07500687500000001,24.514166666666668,92.55833333333334,0.0203125,63.846950901457944
1373652127.75,0.075006875,24.519166666666667,92.62750003541333,0.019765625000000002,63.85804369501788
1373652128.0,0.075006875,24.52416666666667,92.69666666666666,0.017395833333333333,63.86913648857783
1373652128.25,0.075006875,24.52916666666667,92.75833330175999,0.017291666666666667,63.88022928213777
1373652128.5,0.07495349999999999,24.534166666666664,92.82,0.01705729166666667,63.890628776100215
1373652128.75,0.07484675,24.53833333333333,92.88166669824,0.010833333333333334,63.89964167086767
1373652129.0,0.07479337500000001,24.541666666666668,92.94333333333333,0.007916666666666667,63.910734464427605
1373652129.25,0.07468662499999999,24.545,92.98749997738666,0.004609375,63.91350766281759
1373652129.5,0.074579875,24.548333333333336,93.03166666666667,-0.0017187499999999996,63.902414869257655
1373652129.75,0.074473125,24.55,93.07583335594667,-0.007317708333333332,63.8940952740877
1373652130.0,0.074366375,24.55,93.12,-0.023151041666666667,63.89132207569771
1373652130.25,0.074313,24.55,93.15666664789333,-0.04270833333333334,63.8913220756977
1373652130.5,0.07436637500000001,24.55,93.19333333333333,-0.054244791666666674,63.89619246960106
1373652130.75,0.074473125,24.550833333333333,93.23000001877334,-0.056796875,63.952521508053216
1373652131.0,0.074579875,24.5525,93.26666666666667,-0.056692708333333335,64.01409028999664
1373652131.25,0.07468662499999999,24.554166666666664,93.31333330944,-0.05809895833333334,64.0756590719401
1373652131.5,0.07479337500000001,24.555833333333336,93.36,-0.05890625,64.13792115348103
1373652131.75,0.074900125,24.558333333333337,93.40666669056,-0.050104166666666665,64.20156983421695
1373652132.0,0.07506025,24.561666666666667,93.45333333333333,-0.042604166666666665,64.2631386161604
1373652132.25,0.07527375,24.564999999999998,93.50833330517334,-0.03916666666666667,64.33025379488382
1373652132.5,0.07548725,24.56833333333333,93.56333333333333,-0.031640625,64.40291537038719
1373652132.75,0.07570075,24.57166666666667,93.61833336149333,-0.025520833333333336,64.47280374750059
1373652133.0,0.07591425,24.575000000000003,93.67333333333333,-0.011744791666666669,64.53714572783402
1373652133.25,0.07612775,24.578333333333333,93.72833330517334,0.003541666666666667,64.59871450977747
1373652133.5,0.07628787499999999,24.581666666666667,93.78333333333333,0.012838541666666668,64.65541289781756
1373652133.75,0.076394625,24.584999999999997,93.83833336149333,0.017890625,64.66065264130884
1373652134.0,0.076501375,24.588333333333335,93.89333333333333,0.02223958333333333,64.66065264130884
1373652134.25,0.076608125,24.59166666666667,93.93499997866667,0.025963541666666663,64.66065264130884
1373652134.5,0.076714875,24.595,93.97666666666666,0.02984375,64.66065264130884
1373652134.75,0.076821625,24.59833333333333,94.01833335466667,0.029010416666666664,64.66065264130884
1373652135.0,0.076875,24.601666666666663,94.06,0.02536458333333333,64.66065264130884
1373652135.25,0.076875,24.605,94.08999998464,0.028072916666666666,64.66065264130884
1373652135.5,0.076875,24.60833333333333,94.12,0.03260416666666666,64.66065264130884
1373652135.75,0.076875,24.6125,94.15000001536,0.03671875,64.66065264130884
1373652136.0,0.076875,24.617499999999996,94.18,0.037083333333333336,64.66065264130884
1373652136.25,0.076875,24.622500000000002,94.20333332138667,0.036328124999999996,64.66065264130884
1373652136.5,0.076875,24.627499999999998,94.22666666666666,0.039739583333333335,64.66065264130884
1373652136.75,0.076875,24.632499999999997,94.25000001194667,0.04544270833333333,64.66065264130884
1373652137.0,0.076875,24.6375,94.27333333333333,0.050729166666666665,64.66065264130884
1373652137.25,0.076875,24.6425,94.29833332053333,0.05455729166666667,64.66065264130884
1373652137.5,0.076875,24.647500000000004,94.32333333333332,0.0584375,64.66065264130884
1373652137.75,0.076875,24.652500000000003,94.34833334613333,0.06307291666666666,64.65279302607189
1373652138.0,0.076875,24.657500000000002,94.37333333333333,0.06875,64.64440943648582
1373652138.25,0.076875,24.662500000000005,94.39666665472001,0.07278645833333335,64.63602584689973
1373652138.5,0.076875,24.667500000000004,94.42000000000002,0.069375,64.62764225731365
1373652138.75,0.076875,24.6725,94.44333334528001,0.06854166666666667,64.61925866772758
1373652139.0,0.07692841666666667,24.6775,94.46666666666668,0.06856770833333334,64.61087507814149
1373652139.25,0.07703525,24.682500000000005,94.48416665770668,0.07140624999999999,64.60249148855542
1373652139.5,0.07719545833333333,24.6875,94.50166666666668,0.06263020833333334,64.59410789896934
1373652139.75,0.07740904166666666,24.691666666666674,94.51916667562668,0.04520833333333333,64.58572430938325
1373652140.0,0.077622625,24.695000000000004,94.53666666666668,0.032734375,64.57734071979718
1373652140.25,0.07783620833333334,24.698333333333334,94.54749999445335,0.018046875,64.5689571302111
1373652140.5,0.07804979166666666,24.701666666666668,94.55833333333334,-0.0057552083333333335,64.56057354062501
1373652140.75,0.078263375,24.704166666666666,94.56916667221333,-0.03815104166666667,64.5600495662759
1373652141.0,0.07847695833333333,24.70583333333333,94.58,-0.07958333333333334,64.5600495662759
1373652141.25,0.07869054166666666,24.7075,94.58666666325334,-0.1396875,64.5600495662759
1373652141.5,0.07906429166666666,24.709166666666665,94.59333333333333,-0.2069791666666667,64.5600495662759
1373652141.75,0.07965158333333332,24.710833333333337,94.60000000341333,-0.26825520833333333,64.55883898282373
1373652142.0,0.08200054166666666,24.712500000000002,94.60666666666667,-0.3452864583333333,64.55448076224738
1373652142.25,0.08611116666666667,24.714166666666667,94.60916666538667,-0.48296875,64.5452690872778
1373652142.5,0.09027520833333334,24.715833333333336,94.61166666666668,-0.7675520833333334,64.53290097926958
1373652142.75,0.09454604166666665,24.717499999999998,94.61416666794668,-1.0831770833333334,64.52635975086552
1373652143.0,0.09887024999999999,24.719166666666666,94.61666666666667,-1.4035677083333333,64.51532665587291
1373652143.25,0.10330120833333334,24.720833333333335,94.55500003157334,-1.7107031250000002,64.49773275100023
1373652143.5,0.10778554166666666,24.722499999999997,94.49333333333334,-1.9204947916666668,64.48179811191125
1373652143.75,0.112269875,24.724999999999998,94.43166663509334,-2.118802083333333,64.47290757251344
1373652144.0,0.11675420833333333,24.728333333333335,94.37,-2.28765625,64.46033249883912
1373652144.25,0.12123854166666666,24.731666666666666,94.21166674773335,-2.3901302083333333,64.42668796982244
1373652144.5,0.12556270833333333,24.735,94.05333333333334,-2.4853645833333338,64.4016786574494
1373652144.75,0.12967333333333333,24.73833333333333,93.89499991893334,-2.6205208333333334,64.36552595031306
1373652145.0,0.13202229166666668,24.74166666666667,93.73666666666668,-2.7771614583333335,64.33174894478786
1373652145.25,0.13260958333333336,24.745,93.52583344128001,-2.841510416666667,64.29868087409712
1373652145.5,0.13309008333333333,24.74833333333333,93.315,-2.7142708333333334,64.26624959207072
1373652145.75,0.13341041666666667,24.7525,93.10416655872,-2.5460937500000003,64.2413710386169
1373652146.0,0.13367737500000001,24.757500000000004,92.89333333333333,-2.368463541666667,64.24574411118635
1373652146.25,0.13383758333333334,24.7625,92.69333343573332,-2.197161458333333,64.26245001306928
1373652146.5,0.13394441666666668,24.767500000000002,92.49333333333333,-2.0746354166666667,64.27838465215827
1373652146.75,0.13405125,24.771666666666665,92.29333323093333,-1.91234375,64.28727519155608
1373652147.0,0.13415808333333334,24.775000000000002,92.09333333333332,-1.7641406249999998,64.29993092980109
1373652147.25,0.13431829166666667,24.778333333333336,91.93833341269332,-1.6565104166666667,64.33454343366627
1373652147.5,0.13447850000000003,24.781666666666666,91.78333333333333,-1.5330208333333333,64.36305992806275
1373652147.75,0.13469208333333335,24.784166666666668,91.62833325397334,-1.3689583333333333,64.40659025934524
1373652148.0,0.134798875,24.78583333333333,91.47333333333334,-1.1466666666666667,64.45310907503284
1373652148.25,0.134905625,24.787499999999998,91.31500008106667,-0.9567968749999999,64.50377241027924
1373652148.5,0.135012375,24.78916666666667,91.15666666666667,-0.8014322916666666,64.55695538989994
1373652148.75,0.135119125,24.790833333333335,90.99833325226666,-0.6249739583333334,64.5927689733381
1373652149.0,0.13522587500000002,24.7925,90.83999999999999,-0.44830729166666666,64.60071962889258
1373652149.25,0.135332625,24.794166666666666,90.68166674773333,-0.29486979166666666,64.60289826501365
1373652149.5,0.135439375,24.79583333333333,90.52333333333333,-0.19111979166666668,64.60418889814498
1373652149.75,0.135546125,24.798333333333332,90.36499991893332,-0.12315104166666667,64.6054795312763
1373652150.0,0.13565287499999998,24.801666666666666,90.20666666666666,-0.05760416666666667,64.60668949983692
1373652150.25,0.13570625,24.804999999999996,90.04916674730666,-0.004401041666666667,64.60701215811974
1373652150.5,0.13575962499999997,24.808333333333334,89.89166666666665,0.038828125,64.60479560922764
1373652150.75,0.13575962499999997,24.813333333333333,89.73416658602666,0.07713541666666666,64.59991920166499
1373652151.0,0.135813,24.820000000000004,89.57666666666665,0.091015625,64.59282624521022
1373652151.25,0.135866375,24.826666666666668,89.42833340927999,0.10674479166666667,64.58573328875546
1373652151.5,0.135973125,24.833333333333332,89.28,0.11755208333333333,64.57864033230071
1373652151.75,0.136079875,24.840000000000003,89.13166659072,0.09361979166666666,64.57553716385176
1373652152.0,0.13618662499999998,24.846666666666668,88.98333333333333,0.061718749999999996,64.57553716385176
1373652152.25,0.136293375,24.853333333333335,88.84250007210667,0.056302083333333336,64.57553716385176
1373652152.5,0.13640012499999998,24.860000000000003,88.70166666666667,0.059296875000000006,64.57553716385176
1373652152.75,0.13656025,24.865833333333338,88.56083326122666,0.053984375,64.57553716385176
1373652153.0,0.13677375,24.870833333333334,88.42,0.04338541666666667,64.57513384099822
1373652153.25,0.13704066666666667,24.875833333333333,88.25416675157334,0.036223958333333334,64.57109908729201
1373652153.5,0.13736099999999998,24.88083333333334,88.08833333333334,0.018098958333333335,64.56819424764404
1373652153.75,0.13768133333333332,24.885,87.92249991509333,-0.004270833333333334,64.56351387233802
1373652154.0,0.13800166666666666,24.888333333333332,87.75666666666666,-0.016145833333333335,64.55738053701312
1373652154.25,0.138268625,24.891666666666666,87.57000009557332,-0.03169270833333333,64.55043958678662
1373652154.5,0.13848220833333333,24.895,87.38333333333333,-0.04611979166666667,64.54575921148059
1373652154.75,0.13869579166666665,24.897499999999997,87.19666657109333,-0.04627604166666666,64.54107883617456
1373652155.0,0.138909375,24.89916666666667,87.00999999999999,-0.05190104166666667,64.53611598235396
1373652155.25,0.13917633333333332,24.900833333333335,86.80916676949333,-0.060911458333333335,64.53454287070808
1373652155.5,0.13955004166666668,24.9025,86.60833333333332,-0.05653645833333334,64.53325223757676
1373652155.75,0.13992374999999999,24.904166666666665,86.40749989717332,-0.041067708333333335,64.53196160444544
1373652156.0,0.14024408333333335,24.905833333333334,86.20666666666666,-0.02234375,64.53115495873837
1373652156.25,0.140564375,24.9075,86.02250009429332,0.0010677083333333322,64.53446373130821
1373652156.5,0.14088462499999999,24.909166666666668,85.83833333333332,0.03276041666666667,64.53640059610768
1373652156.75,0.14131166666666667,24.91,85.65416657237333,0.053593749999999996,64.541000306843
1373652157.0,0.14200566666666667,24.91,85.46999999999998,0.053307291666666666,64.5471336421679
1373652157.25,0.14285983333333332,24.91,85.29833342122664,0.04369791666666667,64.5540745923944
1373652157.5,0.143714,24.91,85.12666666666665,0.0403125,64.55875496770044
1373652157.75,0.1445681666666667,24.910833333333333,84.95499991210666,0.046067708333333325,64.56343534300646
1373652158.0,0.14547570833333334,24.912499999999998,84.78333333333332,0.058229166666666665,64.56839819682706
1373652158.25,0.14638325,24.91416666666667,84.62250008234666,0.05645833333333333,64.56997130847294
1373652158.5,0.14718404166666668,24.915833333333335,84.46166666666666,0.038125,64.57126194160426
1373652158.75,0.14793145833333335,24.918333333333337,84.30083325098666,-0.0033593749999999995,64.57255257473558
1373652159.0,0.14867887500000002,24.921666666666667,84.14,-0.046015625000000004,64.57376254329618
1373652159.25,0.14937291666666666,24.924999999999997,83.99583340714666,-0.08541666666666665,64.57448852443257
1373652159.5,0.15001358333333334,24.92833333333333,83.85166666666666,-0.11473958333333334,64.57545649928106
1373652159.75,0.15054745833333333,24.93166666666666,83.70749992618667,-0.12817708333333333,64.57553716385176
1373652160.0,0.150814375,24.935000000000002,83.56333333333333,-0.1228125,64.57553716385176
1373652160.25,0.150921125,24.938333333333333,83.43583339861333,-0.10158854166666666,64.57553716385176
1373652160.5,0.151027875,24.941666666666666,83.30833333333334,-0.08914062499999999,64.57553716385176
1373652160.75,0.151188,24.944166666666664,83.18083326805333,-0.09549479166666668,64.57553716385176
1373652161.0,0.15134812499999997,24.94583333333333,83.05333333333333,-0.10708333333333335,64.57553716385176
1373652161.25,0.151454875,24.9475,82.94166672384,-0.10718749999999999,64.57553716385176
1373652161.5,0.15156162499999998,24.949166666666667,82.83,-0.101875,64.57553716385176
1373652161.75,0.151668375,24.950833333333332,82.71833327616,-0.07684895833333334,64.57553716385176
1373652162.0,0.15177512499999998,24.9525,82.60666666666667,-0.0490625,64.57553716385176
1373652162.25,0.15193525,24.954166666666666,82.50333338624,-0.026536458333333332,64.57553716385176
1373652162.5,0.15214874999999997,24.955833333333334,82.4,-0.019088541666666667,64.57553716385176
1373652162.75,0.15236225,24.9575,82.29666661376,-0.017786458333333335,64.57553716385176
1373652163.0,0.15257574999999998,24.959166666666665,82.19333333333333,-0.022604166666666665,64.57553716385176
1373652163.25,0.15278925,24.96083333333333,82.11000004266667,-0.032890625,64.57045316065803
1373652163.5,0.15300275,24.962500000000002,82.02666666666667,-0.03330729166666667,64.56464287129376
1373652163.75,0.153162875,24.964166666666667,81.94333329066666,-0.025130208333333334,64.5588325819295
1373652164.0,0.153269625,24.965833333333336,81.86,-0.015859375000000002,64.55302229256523
1373652164.25,0.153376375,24.967499999999998,81.80833335978667,-0.0010156250000000016,64.54721200320095
1373652164.5,0.153483125,24.969166666666666,81.75666666666666,0.014401041666666664,64.54140171383669
1373652164.75,0.15358987500000001,24.97083333333333,81.70499997354666,0.015651041666666667,64.53559142447243
1373652165.0,0.153696625,24.972499999999997,81.65333333333334,0.016979166666666667,64.52978113510817
1373652165.25,0.15375,24.974166666666665,81.65749999786667,0.012916666666666667,64.52397084574389
1373652165.5,0.15380341666666666,24.97583333333333,81.66166666666666,0.018411458333333335,64.51816055637961
1373652165.75,0.15391025,24.978333333333335,81.66583333546667,0.027005208333333336,64.51267308023385
1373652166.0,0.15401708333333333,24.981666666666666,81.67,0.03638020833333334,64.51206795794796
1373652166.25,0.15412391666666667,24.985,81.71583330986667,0.039531250000000004,64.51763571657672
1373652166.5,0.15423075,24.98833333333333,81.76166666666667,0.036484375000000006,64.52731604942117
1373652166.75,0.15433758333333333,24.991666666666664,81.80750002346667,0.030807291666666667,64.53699638226563
1373652167.0,0.15444441666666667,24.995,81.85333333333334,0.027317708333333333,64.54667671511008
1373652167.25,0.15455125,24.998333333333335,81.92166663168,0.017604166666666667,64.55635704795455
1373652167.5,0.15465808333333333,25.001666666666665,81.99000000000001,0.007057291666666667,64.566037380799
1373652167.75,0.15476491666666667,25.005,82.05833336832,0.004296875,64.57571771364346
1373652168.0,0.15487175,25.008333333333336,82.12666666666667,-0.004479166666666667,64.58539804648791
1373652168.25,0.15497858333333334,25.011666666666667,82.19749996373334,-0.005989583333333334,64.59423175657953
1373652168.5,0.155085375,25.015,82.26833333333335,-0.010598958333333333,64.59939676807547
1373652168.75,0.15513875000000002,25.018333333333334,82.33916670293334,-0.016875,64.6042389663529
1373652169.0,0.15513875000000002,25.021666666666665,82.41000000000001,-0.021901041666666666,64.60419881077046
1373652169.25,0.15513875,25.025000000000002,82.48583329450668,-0.01979166666666667,64.60306977746708
1373652169.5,0.15513875,25.028333333333336,82.56166666666667,-0.015494791666666667,64.59855445611855
1373652169.75,0.15513875000000002,25.03166666666667,82.63750003882667,-0.007864583333333333,64.59403913477003
1373652170.0,0.15519212500000001,25.035,82.71333333333334,0.006276041666666667,64.58952381342151
1373652170.25,0.155298875,25.03833333333333,82.796666624,0.018203125000000004,64.58500849207297
1373652170.5,0.155405625,25.041666666666668,82.88,0.023046875000000005,64.58049317072444
1373652170.75,0.155512375,25.045,82.96333337600001,0.028125,64.57597784937592
1373652171.0,0.155619125,25.048333333333332,83.04666666666667,0.043671875,64.5714625280274
1373652171.25,0.15572587499999999,25.051666666666666,83.13499995477333,0.044036458333333334,64.56815669674953
1373652171.5,0.15577925,25.055000000000003,83.22333333333333,0.035703125,64.57267201809806
1373652171.75,0.155832625,25.058333333333334,83.31166671189332,0.01359375,64.57718733944658
1373652172.0,0.155939375,25.061666666666667,83.39999999999999,-0.020963541666666665,64.58170266079512
1373652172.25,0.156046125,25.065,83.48999995391999,-0.050130208333333336,64.58573422670862
1373652172.5,0.15620625000000002,25.06833333333333,83.58,-0.0740625,64.58904015946958
1373652172.75,0.15641975,25.07166666666667,83.67000004608,-0.10411458333333333,64.58968543733792
1373652173.0,0.156579875,25.075,83.76,-0.14580729166666667,64.59033071520626
1373652173.25,0.156686625,25.078333333333333,83.86583327914667,-0.18184895833333334,64.5909759930746
1373652173.5,0.156793375,25.081666666666667,83.97166666666666,-0.20205729166666664,64.59162127094294
1373652173.75,0.1569535,25.084999999999997,84.07750005418667,-0.21984375,64.59226654881128
1373652174.0,0.157167,25.088333333333335,84.18333333333334,-0.24536458333333333,64.59291182667961
1373652174.25,0.1573805,25.09166666666667,84.29499994282668,-0.25463541666666667,64.59319423723014
1373652174.5,0.15759399999999998,25.095,84.40666666666667,-0.2443229166666667,64.58932419374993
1373652174.75,0.15780750000000002,25.097499999999997,84.51833339050667,-0.219140625,64.58545415026974
1373652175.0,0.158021,25.099166666666665,84.63000000000001,-0.1728125,64.58158410678955
1373652175.25,0.1582345,25.10083333333333,84.73916661077334,-0.135703125,64.57819781874439
1373652175.5,0.15839462499999998,25.102500000000003,84.84833333333333,-0.10494791666666665,64.57553716385176
1373652175.75,0.158501375,25.105833333333333,84.95750005589333,-0.07807291666666667,64.57553716385176
1373652176.0,0.158608125,25.110833333333332,85.06666666666666,-0.043020833333333335,64.57553716385176
1373652176.25,0.158714875,25.115833333333338,85.15083329024,-0.0084375,64.57553716385176
1373652176.5,0.158821625,25.120833333333334,85.23500000000001,0.01421875,64.57553716385176
1373652176.75,0.158875,25.125,85.31916670976001,0.033463541666666666,64.57553716385176
1373652177.0,0.158875,25.128333333333334,85.40333333333335,0.05119791666666667,64.57553716385176
1373652177.25,0.158875,25.131666666666664,85.51999994026669,0.06015625,64.57553716385176
1373652177.5,0.158875,25.134999999999994,85.63666666666667,0.056718750000000005,64.57553716385176
1373652177.75,0.158875,25.14,85.75333339306667,0.05588541666666667,64.57553716385176
1373652178.0,0.158875,25.146666666666665,85.87,0.04679687500000001,64.57553716385176
1373652178.25,0.158875,25.153333333333332,85.95916662101334,0.04158854166666667,64.57553716385176
1373652178.5,0.158875,25.159999999999997,86.04833333333335,0.0334375,64.57553716385176
1373652178.75,0.158875,25.164999999999996,86.13750004565334,0.030859375000000005,64.57553716385176
1373652179.0,0.158875,25.168333333333333,86.22666666666667,0.02268229166666667,64.57553716385176
1373652179.25,0.158875,25.171666666666667,86.30749995861333,0.01651041666666667,64.57553716385176
1373652179.5,0.158875,25.175,86.38833333333334,0.01375,64.57553716385176
1373652179.75,0.158875,25.178333333333338,86.46916670805334,0.007916666666666667,64.57642378340861
1373652180.0,0.158875,25.18166666666667,86.55,0.0025781250000000006,64.5764237834086
1373652180.25,0.158875,25.185000000000002,86.57916665173333,0.0044531250000000005,64.5764237834086
1373652180.5,0.158875,25.188333333333336,86.60833333333333,0.007708333333333334,64.5764237834086
1373652180.75,0.158875,25.190833333333334,86.63750001493334,0.007916666666666667,64.5764237834086
1373652181.0,0.158875,25.192500000000006,86.66666666666667,0.005703125,64.5764237834086
1373652181.25,0.158875,25.19416666666667,86.71416664234667,0.004036458333333334,64.5764237834086
1373652181.5,0.15892841666666666,25.195833333333336,86.76166666666667,0.0059635416666666665,64.57642378340861
1373652181.75,0.15903525,25.197500000000005,86.80916669098667,0.010625,64.57642378340861
1373652182.0,0.15914208333333332,25.19916666666667,86.85666666666667,0.016015625000000002,64.5764237834086
1373652182.25,0.15924891666666666,25.200833333333332,86.90916663978666,0.014505208333333333,64.5764237834086
1373652182.5,0.15935575,25.2025,86.96166666666667,0.011536458333333334,64.5764237834086
1373652182.75,0.15946258333333332,25.204166666666666,87.01416669354667,0.012916666666666668,64.57553716385176
1373652183.0,0.15956941666666666,25.205833333333334,87.06666666666666,0.017473958333333334,64.57553716385176
1373652183.25,0.159729625,25.2075,87.1208333056,0.018463541666666666,64.57553716385176
1373652183.5,0.15994320833333334,25.209166666666665,87.17500000000001,0.02091145833333333,64.57553716385176
1373652183.75,0.16015679166666666,25.210833333333337,87.2291666944,0.02143229166666667,64.57553716385176
1373652184.0,0.16042375,25.212500000000002,87.28333333333335,0.02575520833333333,64.57553716385176
1373652184.25,0.16074408333333332,25.214166666666667,87.34999996586667,0.021770833333333333,64.57553716385176
1373652184.5,0.161011,25.215833333333336,87.41666666666667,0.020364583333333332,64.57553716385176
1373652184.75,0.16122450000000002,25.2175,87.48333336746667,0.024010416666666663,64.57553716385176
1373652185.0,0.161438,25.219166666666666,87.55,0.030651041666666667,64.57553716385176
1373652185.25,0.1616515,25.220833333333335,87.62916662613333,0.037656249999999995,64.57553716385176
1373652185.5,0.161865,25.2225,87.70833333333334,0.04153645833333334,64.57553716385176
1373652185.75,0.16207850000000001,25.224999999999998,87.78750004053335,0.03682291666666667,64.57553716385176
1373652186.0,0.162292,25.228333333333335,87.86666666666667,0.03575520833333334,64.57553716385176
1373652186.25,0.162452125,25.231666666666666,87.95249995605334,0.04390625,64.57553716385176
1373652186.5,0.16255887500000002,25.235,88.03833333333333,0.043515625,64.57553716385176
1373652186.75,0.162665625,25.238333333333333,88.12416671061332,0.04179687499999999,64.57553716385176
1373652187.0,0.162665625,25.24166666666667,88.21,0.028255208333333337,64.57162348217297
1373652187.25,0.16255887500000002,25.245,88.28333329578666,0.012369791666666666,64.56504577154674
1373652187.5,0.162452125,25.248333333333335,88.35666666666665,-0.007656249999999997,64.55139770469441
1373652187.75,0.162345375,25.25333333333333,88.43000003754666,-0.03268229166666666,64.53099293192062
1373652188.0,0.162238625,25.26,88.50333333333333,-0.049270833333333326,64.5033367052865
1373652188.25,0.162131875,25.266666666666666,88.54666664448,-0.06385416666666667,64.47807226727427
1373652188.5,0.16197175,25.27333333333333,88.59,-0.053307291666666666,64.45138933592575
1373652188.75,0.16165145833333333,25.27916666666667,88.63333335552,-0.022838541666666667,64.43013470907414
1373652189.0,0.16133116666666666,25.284166666666668,88.67666666666666,-0.048515625,64.41009498090878
1373652189.25,0.16079733333333332,25.28916666666667,88.66750000469332,-0.10216145833333333,64.3896503485439
1373652189.5,0.160423625,25.29416666666667,88.65833333333333,-0.17359375,64.36940816827877
1373652189.75,0.16015670833333331,25.298333333333332,88.64916666197334,-0.40427083333333336,64.3493684401134
1373652190.0,0.16004995833333333,25.301666666666666,88.64,-0.5569010416666667,64.33324239362683
1373652190.25,0.16004995833333333,25.304999999999996,88.57916669781333,-0.5790104166666666,64.31978037608769
1373652190.5,0.16015675,25.308333333333334,88.51833333333333,-0.6282552083333333,64.31338871477465
1373652190.75,0.16037033333333334,25.31,88.45749996885333,-0.679609375,64.31375375938306
1373652191.0,0.1605839166666667,25.31,88.39666666666666,-0.7366145833333334,64.32137025785181
1373652191.25,0.1607975,25.31,88.3008333824,-0.7791927083333333,64.32659496769867
1373652191.5,0.16106445833333333,25.31,88.205,-0.8900781249999999,64.33323817088181
1373652191.75,0.16149158333333333,25.31083333333333,88.1091666176,-1.0235416666666668,64.33445306956806
1373652192.0,0.16191870833333333,25.3125,88.01333333333334,-1.1025260416666667,64.33445306956806
1373652192.25,0.162559375,25.314166666666665,87.91000005290667,-1.1578645833333334,64.33485797376757
1373652192.5,0.16303991666666667,25.31583333333333,87.80666666666667,-1.1880989583333335,64.33501994523418
1373652192.75,0.16341366666666668,25.318333333333328,87.70333328042668,-1.0516145833333332,64.33019951674699
1373652193.0,0.16368062500000002,25.321666666666662,87.60000000000001,-0.947109375,64.31414492854162
1373652193.25,0.16389420833333335,25.325,87.49583338666667,-0.943203125,64.29711615306749
1373652193.5,0.164001,25.328333333333333,87.39166666666668,-0.8915104166666666,64.27813784281692
1373652193.75,0.164001,25.331666666666667,87.28749994666667,-0.8331770833333333,64.25716934984003
1373652194.0,0.164001,25.335000000000004,87.18333333333334,-0.77765625,64.23835445595928
1373652194.25,0.164001,25.338333333333335,87.08916671488,-0.7413020833333333,64.21933639655389
1373652194.5,0.164001,25.34166666666667,86.995,-0.6420572916666667,64.19991200609918
1373652194.75,0.164054375,25.344166666666666,86.90083328512,-0.5112239583333333,64.18048761564448
1373652195.0,0.164054375,25.34583333333333,86.80666666666666,-0.38739583333333333,64.16301231056872
1373652195.25,0.16410775000000002,25.3475,86.72083337727999,-0.26958333333333334,64.14643006469625
1373652195.5,0.1642145,25.349166666666665,86.63499999999999,-0.13770833333333335,64.13167441786355
1373652195.75,0.16432125,25.350833333333338,86.54916662272,0.03794270833333334,64.13240255305656
1373652196.0,0.16442800000000002,25.352500000000003,86.46333333333332,0.133671875,64.14780945113147
1373652196.25,0.16453475,25.354166666666668,86.3841667072,0.16854166666666667,64.1641905364751
1373652196.5,0.16464150000000002,25.355833333333337,86.30499999999999,0.170078125,64.18276402572457
1373652196.75,0.16474825,25.358333333333334,86.22583329279999,0.16713541666666668,64.2040563050885
1373652197.0,0.164855,25.361666666666665,86.14666666666666,0.16927083333333334,64.2235188108621
1373652197.25,0.16496175000000002,25.365000000000006,86.06416670890667,0.19809895833333335,64.24318448216034
1373652197.5,0.1650685,25.368333333333336,85.98166666666665,0.21486979166666664,64.26325648450792
1373652197.75,0.165121875,25.372500000000002,85.89916662442666,0.20085937499999998,64.2853905104598
1373652198.0,0.16522862500000002,25.3775,85.81666666666666,0.19260416666666666,64.30901215704002
1373652198.25,0.165335375,25.382499999999997,85.73583337472,0.1703125,64.32899137961114
1373652198.5,0.16544212500000002,25.387500000000003,85.655,0.12375000000000001,64.34443511896986
1373652198.75,0.165548875,25.391666666666666,85.57416662528,0.020494791666666675,64.34917502415688
1373652199.0,0.165655625,25.395,85.49333333333334,-0.027421874999999995,64.34617666448804
1373652199.25,0.16581575,25.398333333333337,85.41833337173334,-0.02255208333333333,64.33515393436426
1373652199.5,0.16602925,25.401666666666667,85.34333333333333,-0.0013541666666666626,64.3238883351111
1373652199.75,0.16624275,25.405,85.26833329493334,0.014921875000000003,64.3118941284698
1373652200.0,0.16645625,25.408333333333335,85.19333333333334,0.017265625000000003,64.29957609632268
1373652200.25,0.16666974999999998,25.411666666666665,85.12666670080002,-0.009557291666666664,64.28725806417556
1373652200.5,0.16688325,25.415000000000003,85.06,-0.03989583333333333,64.27494003202843
1373652200.75,0.16709675000000002,25.4175,84.9933332992,-0.0546875,64.26055997627697
1373652201.0,0.16736366666666666,25.419166666666666,84.92666666666668,-0.067109375,64.24274321451826
1373652201.25,0.167630625,25.420833333333334,84.86583336448001,-0.060598958333333335,64.22767581756534
1373652201.5,0.16784420833333333,25.4225,84.805,-0.042317708333333336,64.21535778541822
1373652201.75,0.16805779166666665,25.425,84.74416663552,-0.014036458333333333,64.2030397532711
1373652202.0,0.168271375,25.42833333333333,84.68333333333334,0.0009895833333333356,64.19501538281614
1373652202.25,0.16843158333333333,25.43166666666666,84.64250002090667,0.002135416666666669,64.20656353795407
1373652202.5,0.16853841666666666,25.435000000000002,84.60166666666666,0.001562500000000002,64.21888157010119
1373652202.75,0.16864525,25.4375,84.56083331242667,0.0023958333333333358,64.23119960224831
1373652203.0,0.16875208333333333,25.439166666666665,84.52,0.01104166666666667,64.24351763439545
1373652203.25,0.16885891666666666,25.44083333333333,84.49916667733333,0.028255208333333337,64.25583566654258
1373652203.5,0.16896575,25.4425,84.47833333333332,0.04244791666666667,64.26815369868969
1373652203.75,0.16907258333333333,25.445000000000004,84.45749998933333,0.05078125,64.28047173083682
1373652204.0,0.169126,25.448333333333334,84.43666666666667,0.05375,64.29278976298396
1373652204.25,0.169126,25.451666666666668,84.4658333184,0.05479166666666666,64.30510779513108
1373652204.5,0.169126,25.455,84.495,0.054765625000000005,64.3174258272782
1373652204.75,0.169126,25.4575,84.52416668160001,0.05348958333333333,64.32974385942532
1373652205.0,0.169126,25.459166666666665,84.55333333333334,0.05598958333333334,64.34206189157246
1373652205.25,0.169126,25.460833333333337,84.60083330901334,0.06348958333333334,64.34283176858165
1373652205.5,0.169126,25.462499999999995,84.64833333333334,0.070234375,64.34283176858165
1373652205.75,0.169126,25.465,84.69583335765334,0.07437500000000001,64.34283176858165
1373652206.0,0.169126,25.468333333333334,84.74333333333334,0.07450520833333334,64.34283176858165
1373652206.25,0.169126,25.471666666666664,84.80583330133334,0.07216145833333334,64.34283176858165
1373652206.5,0.169126,25.474999999999998,84.86833333333334,0.07252604166666667,64.34283176858165
1373652206.75,0.169126,25.478333333333328,84.93083336533334,0.06955729166666667,64.34283176858165
1373652207.0,0.169126,25.481666666666666,84.99333333333334,0.06393229166666667,64.34283176858165
1373652207.25,0.169126,25.485,85.07416662528,0.05765625,64.35039252179756
1373652207.5,0.16917937500000002,25.488333333333333,85.155,0.05088541666666666,64.36138998102072
1373652207.75,0.16923275000000002,25.491666666666664,85.23583337472,0.05026041666666667,64.37170009904243
1373652208.0,0.16923275000000002,25.495,85.31666666666666,0.05473958333333334,64.38269755826558
1373652208.25,0.16923275000000002,25.49833333333333,85.43083327488,0.04893229166666666,64.39369501748872
1373652208.5,0.16923275000000002,25.50166666666667,85.54499999999999,0.029088541666666672,64.40469247671189
1373652208.75,0.16928612499999998,25.505,85.65916672511999,0.020859375000000003,64.41568993593503
1373652209.0,0.1693395,25.50833333333333,85.77333333333333,0.01635416666666667,64.42668739515818
1373652209.25,0.16944625,25.51166666666667,85.919166592,0.014531250000000002,64.43768485438135
1373652209.5,0.16955299999999998,25.515,86.065,0.026927083333333338,64.4486823136045
1373652209.75,0.16965975,25.517500000000002,86.210833408,0.04815104166666667,64.45967977282764
1373652210.0,0.16976650000000001,25.519166666666667,86.35666666666667,0.07255208333333334,64.47067723205079
1373652210.25,0.16987324999999998,25.520833333333332,86.49666659498666,0.12010416666666668,64.46347605769816
1373652210.5,0.169926625,25.522499999999997,86.63666666666667,0.154765625,64.44664727250033
1373652210.75,0.17003337500000001,25.525833333333335,86.77666673834668,0.13664062500000002,64.43062735853077
1373652211.0,0.170246875,25.530833333333334,86.91666666666667,0.09328125,64.41286647033913
1373652211.25,0.170460375,25.53583333333334,87.05499992917333,0.054921875,64.39218669224674
1373652211.5,0.170673875,25.540833333333335,87.19333333333334,0.03989583333333333,64.36919565406079
1373652211.75,0.170834,25.545,87.33166673749335,0.024244791666666668,64.34470331823995
1373652212.0,0.17104750000000002,25.548333333333336,87.47000000000001,0.025729166666666668,64.31517713897573
1373652212.25,0.171207625,25.551666666666666,87.60666659669334,0.030026041666666666,64.28406720254989
1373652212.5,0.17142112499999998,25.555000000000003,87.74333333333334,0.011666666666666665,64.25295726612404
1373652212.75,0.171634625,25.558333333333334,87.88000006997333,-0.013177083333333334,64.2218473296982
1373652213.0,0.17184812500000002,25.561666666666667,88.01666666666667,-0.03578125000000001,64.19073739327237
1373652213.25,0.17211504166666666,25.564999999999998,88.17749991765334,-0.09164062499999999,64.1702653372064
1373652213.5,0.17243537500000003,25.56833333333334,88.33833333333334,-0.12526041666666668,64.15598418597838
1373652213.75,0.17270233333333332,25.570833333333336,88.49916674901334,-0.10229166666666667,64.14158150472356
1373652214.0,0.17291591666666664,25.5725,88.66000000000001,-0.06627604166666666,64.12823245648936
1373652214.25,0.17312950000000002,25.574166666666667,88.85083323562668,-0.022213541666666666,64.11780229815591
1373652214.5,0.17334308333333334,25.575833333333332,89.04166666666667,0.016380208333333337,64.10968339991601
1373652214.75,0.17355666666666666,25.5775,89.23250009770666,0.03953125000000001,64.10306579931101
1373652215.0,0.173716875,25.579166666666666,89.42333333333333,0.04299479166666668,64.10148204214939
1373652215.25,0.17387708333333332,25.580833333333334,89.65083321685333,0.041588541666666666,64.10148204214939
1373652215.5,0.17398391666666665,25.5825,89.87833333333333,0.047031250000000004,64.10148204214939
1373652215.75,0.17409075,25.585000000000004,90.10583344981333,0.05276041666666668,64.10148204214939
1373652216.0,0.17419758333333332,25.588333333333335,90.33333333333333,0.05651041666666667,64.10148204214939
1373652216.25,0.174251,25.59166666666667,90.57416654336,0.070859375,64.10148204214939
1373652216.5,0.174251,25.595,90.815,0.07166666666666667,64.10148204214939
1373652216.75,0.174251,25.5975,91.05583345664,0.06140625,64.10148204214939
1373652217.0,0.17430437499999998,25.599166666666665,91.29666666666667,0.055468750000000004,64.10148204214939
1373652217.25,0.174411125,25.60083333333333,91.54333320704,0.042447916666666675,64.10148204214939
1373652217.5,0.17451787500000002,25.602500000000003,91.79,0.02651041666666667,64.10148204214939
1373652217.75,0.174624625,25.605,92.03666679296,0.02104166666666667,64.10148204214939
1373652218.0,0.174731375,25.608333333333334,92.28333333333335,0.021927083333333337,64.10148204214939
1373652218.25,0.17483812499999998,25.611666666666668,92.52749987498667,0.023359375000000005,64.10148204214939
1373652218.5,0.17499825,25.615,92.77166666666668,0.025182291666666672,64.10148204214939
1373652218.75,0.17521175,25.617499999999996,93.01583345834666,0.029583333333333336,64.10148204214939
1373652219.0,0.17542524999999998,25.61916666666667,93.25999999999999,0.03385416666666667,64.10148204214939
1373652219.25,0.17558537500000002,25.620833333333334,93.49999987711999,0.03559895833333334,64.10148204214939
1373652219.5,0.1757455,25.6225,93.74000000000001,0.04479166666666667,64.10148204214939
1373652219.75,0.17585225000000002,25.624999999999996,93.98000012288001,0.06226562500000001,64.10148204214939
1373652220.0,0.17590562499999998,25.628333333333334,94.22000000000001,0.078515625,64.10148204214939
1373652220.25,0.17590562499999998,25.631666666666664,94.44833321642668,0.08986979166666668,64.10148204214939
1373652220.5,0.17590562499999998,25.635,94.67666666666668,0.09463541666666668,64.10148204214939
1373652220.75,0.17590562499999998,25.638333333333332,94.90500011690666,0.09893229166666667,64.10148204214939
1373652221.0,0.17590562499999998,25.641666666666666,95.13333333333333,0.09708333333333334,64.10148204214939
1373652221.25,0.17590562499999998,25.645,95.3541665536,0.08841145833333335,64.10148204214939
1373652221.5,0.17585225000000002,25.64833333333333,95.57499999999999,0.08046875,64.10148204214939
1373652221.75,0.1757455,25.651666666666667,95.79583344639998,0.07072916666666668,64.10148204214939
1373652222.0,0.17563874999999998,25.655,96.01666666666665,0.062369791666666674,64.10148204214939
1373652222.25,0.17558537500000002,25.658333333333335,96.23499988821332,0.05690104166666668,64.10148204214939
1373652222.5,0.175532,25.661666666666665,96.45333333333332,0.04729166666666667,64.10148204214939
1373652222.75,0.175532,25.66416666666667,96.67166677845333,0.029869791666666673,64.10148204214939
1373652223.0,0.175532,25.665833333333335,96.89,0.015286458333333338,64.10148204214939
1373652223.25,0.175532,25.667500000000004,97.07999990272,0.00815104166666667,64.10148204214939
1373652223.5,0.175532,25.669166666666666,97.27,0.006562500000000003,64.10148204214939
1373652223.75,0.175532,25.67,97.46000009727999,0.002500000000000003,64.10148204214939
1373652224.0,0.175532,25.67,97.64999999999999,-0.0011979166666666638,64.10148204214939
1373652224.25,0.175532,25.67,97.76833327274666,0.00580729166666667,64.09500159324647
1373652224.5,0.175532,25.67,97.88666666666666,0.013750000000000004,64.06259934873188
1373652224.75,0.175532,25.670833333333334,98.00500006058667,0.022239583333333337,64.05179860056035
1373652225.0,0.175532,25.6725,98.12333333333333,0.029088541666666665,64.05179860056035
1373652225.25,0.175532,25.674166666666665,98.16499997866667,0.03609375,64.05232631740904
1373652225.5,0.175532,25.675833333333333,98.20666666666668,0.04380208333333333,64.05865891959333
1373652225.75,0.175532,25.678333333333338,98.24833335466667,0.05140625000000001,64.07850835867269
1373652226.0,0.175532,25.68166666666667,98.29,0.05291666666666667,64.1199483216633
1373652226.25,0.175532,25.685,98.27583334058667,0.0478125,64.16138828465394
1373652226.5,0.175532,25.688333333333336,98.26166666666667,0.039765625000000006,64.20282824764455
1373652226.75,0.175532,25.691666666666666,98.24749999274667,0.035104166666666665,64.24426821063517
1373652227.0,0.175532,25.695000000000004,98.23333333333333,0.03651041666666667,64.28570817362579
1373652227.25,0.175532,25.698333333333334,98.20666668032,0.027083333333333334,64.33362858551934
1373652227.5,0.175532,25.701666666666668,98.18,0.021875000000000002,64.40747079302454
1373652227.75,0.175532,25.705000000000002,98.15333331968,0.016276041666666668,64.4597115041867
1373652228.0,0.175532,25.708333333333332,98.12666666666667,0.006510416666666668,64.50115146717732
1373652228.25,0.175532,25.71166666666667,98.08916668586667,-0.0021093749999999984,64.54206371331925
1373652228.5,0.175532,25.715000000000003,98.05166666666668,-0.008984374999999998,64.57717107412559
1373652228.75,0.175532,25.7175,98.01416664746667,-0.015781249999999997,64.59876159803684
1373652229.0,0.175532,25.719166666666666,97.97666666666667,-0.013385416666666665,64.59257475552216
1373652229.25,0.175532,25.720833333333335,97.94666668202667,-0.003802083333333331,64.5595782621106
1373652229.5,0.175532,25.7225,97.91666666666667,0.00846354166666667,64.52658176869905
1373652229.75,0.175532,25.724999999999998,97.88666665130667,0.018177083333333337,64.49358527528749
1373652230.0,0.175532,25.728333333333335,97.85666666666667,0.018984375,64.46058878187593
1373652230.25,0.175532,25.731666666666666,97.83916667562666,0.030468750000000003,64.42759228846437
1373652230.5,0.175532,25.735,97.82166666666666,0.03528645833333333,64.3945957950528
1373652230.75,0.175532,25.738333333333333,97.80416665770666,0.036250000000000004,64.36159930164123
1373652231.0,0.175532,25.74166666666667,97.78666666666665,0.04682291666666668,64.32860280822966
1373652231.25,0.175532,25.745,97.79916666026665,0.054765625000000005,64.2956063148181
1373652231.5,0.175532,25.748333333333335,97.81166666666665,0.06007812500000001,64.26260982140654
1373652231.75,0.175532,25.751666666666665,97.82416667306666,0.06460937500000001,64.22961332799498
1373652232.0,0.175532,25.755,97.83666666666666,0.06044270833333334,64.20280367709809
1373652232.25,0.175532,25.75833333333333,97.85583332352,0.05351562500000001,64.20280367709809
1373652232.5,0.175532,25.761666666666667,97.875,0.04669270833333333,64.20280367709809
1373652232.75,0.175532,25.764166666666668,97.89416667648,0.03864583333333334,64.20280367709809
1373652233.0,0.175532,25.765833333333333,97.91333333333334,0.036458333333333336,64.20280367709809
1373652233.25,0.175532,25.767500000000002,97.934166656,0.028489583333333336,64.20280367709809
1373652233.5,0.175532,25.769166666666667,97.95500000000001,0.02674479166666667,64.20280367709809
1373652233.75,0.175532,25.770833333333332,97.97583334400001,0.026536458333333336,64.20280367709809
1373652234.0,0.175532,25.772499999999997,97.99666666666667,0.015468750000000003,64.20280367709809
1373652234.25,0.175532,25.77416666666667,98.0008333312,0.007838541666666669,64.20280367709809
1373652234.5,0.175532,25.775833333333328,98.005,0.0014843750000000028,64.20280367709809
1373652234.75,0.175532,25.7775,98.00916666879999,-0.008020833333333331,64.20280367709809
1373652235.0,0.175532,25.77916666666667,98.01333333333332,-0.012291666666666664,64.20280367709809
1373652235.25,0.175532,25.780833333333334,98.00500000426666,-0.013124999999999998,64.20280367709809
1373652235.5,0.17558537499999996,25.7825,97.99666666666667,-0.006640624999999997,64.20280367709809
1373652235.75,0.17569212499999998,25.784166666666664,97.98833332906666,0.004218750000000003,64.2037361533321
1373652236.0,0.175798875,25.785833333333333,97.98,0.014557291666666672,64.20957383498107
1373652236.25,0.17590562499999998,25.787499999999998,97.96416667477334,0.02346354166666667,64.21541151663003
1373652236.5,0.176012375,25.789166666666663,97.94833333333334,0.027760416666666673,64.22124919827898
1373652236.75,0.17617249999999998,25.79,97.93249999189334,0.03494791666666667,64.22708687992797
1373652237.0,0.17638600000000001,25.79,97.91666666666667,0.04658854166666667,64.23292456157692
1373652237.25,0.1765995,25.79,97.89000001365334,0.04666666666666667,64.23876224322588
1373652237.5,0.176813,25.79,97.86333333333334,0.05369791666666667,64.24459992487485
1373652237.75,0.17702649999999998,25.790833333333335,97.83666665301334,0.07065104166666668,64.25043760652382
1373652238.0,0.17723999999999998,25.7925,97.81,0.08330729166666667,64.25627528817277
1373652238.25,0.17745350000000001,25.794166666666666,97.77500001792001,0.08604166666666667,64.26211296982174
1373652238.5,0.177613625,25.79583333333333,97.74000000000001,0.07463541666666666,64.2679506514707
1373652238.75,0.177720375,25.7975,97.70499998208,0.055,64.27285585688566
1373652239.0,0.177827125,25.799166666666665,97.67,0.026796875,64.27285585688566
1373652239.25,0.177933875,25.80083333333333,97.62333335722667,0.0022916666666666706,64.27285585688566
1373652239.5,0.17804062499999998,25.8025,97.57666666666667,-0.022994791666666663,64.27285585688566
1373652239.75,0.178094,25.804999999999996,97.52999997610667,-0.04252604166666666,64.27285585688566
1373652240.0,0.178094,25.808333333333334,97.48333333333333,-0.054635416666666665,64.27285585688566
1373652240.25,0.178094,25.811666666666667,97.42666669568,-0.05468749999999999,64.27285585688566
1373652240.5,0.178094,25.814999999999998,97.37,-0.06476562500000001,64.27285585688566
1373652240.75,0.17814741666666667,25.818333333333328,97.31333330432,-0.081953125,64.27285585688566
1373652241.0,0.17825424999999998,25.821666666666662,97.25666666666666,-0.09424479166666666,64.27285585688566
1373652241.25,0.17836108333333334,25.825,97.19750003029333,-0.10153645833333332,64.27285585688566
1373652241.5,0.1784679166666667,25.828333333333333,97.13833333333334,-0.10190104166666668,64.27285585688566
1373652241.75,0.17857475,25.831666666666667,97.07916663637333,-0.09661458333333334,64.27285585688566
1373652242.0,0.17868158333333337,25.835000000000004,97.02,-0.08455729166666666,64.27285585688566
1373652242.25,0.17878841666666667,25.838333333333335,96.96000003072,-0.068984375,64.27285585688566
1373652242.5,0.17889524999999998,25.84166666666667,96.9,-0.05046875,64.27285585688566
1373652242.75,0.17900208333333334,25.844166666666666,96.83999996928002,-0.04390625,64.27285585688566
1373652243.0,0.17910891666666665,25.84583333333333,96.78000000000002,-0.04216145833333334,64.27285585688566
1373652243.25,0.17921575,25.8475,96.72166669653335,-0.045078125,64.27285585688566
1373652243.5,0.17932258333333337,25.849166666666665,96.66333333333334,-0.04583333333333334,64.27285585688566
1373652243.75,0.179376,25.850833333333338,96.60499997013333,-0.04286458333333334,64.27285585688566
1373652244.0,0.179376,25.852500000000003,96.54666666666667,-0.0434375,64.27285585688566
1373652244.25,0.179376,25.854166666666668,96.48666669738667,-0.039010416666666665,64.27285585688566
1373652244.5,0.179429375,25.855833333333337,96.42666666666668,-0.031015625,64.27285585688566
1373652244.75,0.17953612500000002,25.8575,96.36666663594667,-0.025234375,64.27285585688566
1373652245.0,0.179642875,25.859166666666667,96.30666666666667,-0.014661458333333334,64.27285585688566
1373652245.25,0.17974962500000002,25.860833333333336,96.24166669994668,-0.010338541666666664,64.27285585688566
1373652245.5,0.17985637499999999,25.8625,96.17666666666668,-0.01302083333333333,64.27285585688566
1373652245.75,0.179963125,25.865,96.11166663338666,-0.0025520833333333316,64.27285585688566
1373652246.0,0.18006987500000002,25.868333333333336,96.04666666666667,0.004166666666666668,64.27285585688566
1373652246.25,0.180176625,25.871666666666666,95.98416669866667,0.012187500000000002,64.27285585688566
1373652246.5,0.18028337500000002,25.875000000000004,95.92166666666667,0.021145833333333336,64.27285585688566
1373652246.75,0.18039012500000004,25.878333333333334,95.85916663466666,0.03111979166666667,64.27285585688566
1373652247.0,0.180496875,25.88166666666667,95.79666666666667,0.04356770833333334,64.27285585688566
1373652247.25,0.18060362500000002,25.885,95.75666668714666,0.0428125,64.27285585688566
1373652247.5,0.180657,25.888333333333335,95.71666666666667,0.03752604166666667,64.27285585688566
1373652247.75,0.180657,25.891666666666666,95.67666664618666,0.04408854166666667,64.27285585688566
1373652248.0,0.180657,25.895,95.63666666666666,0.04557291666666668,64.27285585688566
1373652248.25,0.180657,25.89833333333333,95.62250000725332,0.052265625,64.27285585688566
1373652248.5,0.180657,25.901666666666667,95.60833333333332,0.06546875,64.27285585688566
1373652248.75,0.180657,25.904166666666665,95.59416665941333,0.064375,64.27285585688566
1373652249.0,0.180657,25.905833333333334,95.58,0.07174479166666667,64.27285585688566
1373652249.25,0.180657,25.907500000000002,95.6174999808,0.08940104166666667,64.27285585688566
1373652249.5,0.180710375,25.909166666666664,95.655,0.10739583333333334,64.2724910017826
1373652249.75,0.180710375,25.91,95.6925000192,0.11919270833333334,64.26920730585505
1373652250.0,0.180710375,25.91,95.73,0.13031250000000003,64.26336962420609
1373652250.25,0.180710375,25.91,95.80166662997334,0.151640625,64.25753194255712
1373652250.5,0.180710375,25.91,95.87333333333333,0.17177083333333334,64.25169426090817
1373652250.75,0.180710375,25.91,95.94500003669333,0.173984375,64.2458565792592
1373652251.0,0.18076375,25.91,96.01666666666667,0.17440104166666667,64.24001889761023
1373652251.25,0.18087050000000002,25.91,96.12333327872,0.164765625,64.23418121596127
1373652251.5,0.18097724999999998,25.91,96.22999999999999,0.14911458333333333,64.22753210596439
1373652251.75,0.18108400000000002,25.910833333333333,96.33666672128,0.14333333333333334,64.22169442431542
1373652252.0,0.18119074999999998,25.912499999999998,96.44333333333333,0.13088541666666667,64.21585674266645
1373652252.25,0.1812975,25.914166666666663,96.55249994410666,0.107890625,64.21001906101749
1373652252.5,0.181350875,25.915833333333335,96.66166666666666,0.08263020833333333,64.21758889217232
1373652252.75,0.18145762499999998,25.918333333333333,96.77083338922667,0.06442708333333333,64.23672477555218
1373652253.0,0.181564375,25.921666666666667,96.88,0.044375000000000005,64.26972126896374
1373652253.25,0.18172449999999998,25.924999999999997,96.99416660821333,0.02877604166666667,64.30271776237531
1373652253.5,0.181884625,25.928333333333338,97.10833333333332,0.01361979166666667,64.33571425578687
1373652253.75,0.18209812499999997,25.9325,97.22250005845332,0.014427083333333339,64.36871074919843
1373652254.0,0.18225824999999998,25.937499999999996,97.33666666666666,0.023098958333333336,64.40170724260999
1373652254.25,0.182365,25.9425,97.44249994581332,0.03828125,64.43470373602155
1373652254.5,0.18247175000000002,25.947499999999994,97.54833333333333,0.058541666666666665,64.46851165778104
1373652254.75,0.18257849999999998,25.951666666666668,97.65416672085334,0.071484375,64.5015081511926
1373652255.0,0.18268525,25.955,97.76,0.08476562500000001,64.53450464460417
1373652255.25,0.18279199999999998,25.958333333333332,97.85583328426667,0.09427083333333335,64.56750113801573
1373652255.5,0.18289875,25.961666666666662,97.95166666666667,0.101640625,64.58745497372657
1373652255.75,0.18300550000000002,25.965,98.04750004906667,0.10632812500000001,64.59876159803684
1373652256.0,0.18311224999999998,25.968333333333334,98.14333333333333,0.11072916666666667,64.59876159803684
1373652256.25,0.183165625,25.971666666666668,98.22916662272,0.10760416666666667,64.59876159803684
1373652256.5,0.183219,25.974999999999994,98.315,0.10781250000000002,64.59876159803684
1373652256.75,0.183219,25.977499999999996,98.40083337728,0.09802083333333333,64.59876159803684
1373652257.0,0.183219,25.979166666666668,98.48666666666666,0.07846354166666668,64.59876159803684
1373652257.25,0.183219,25.980833333333333,98.57999995221334,0.05757812500000001,64.59876159803684
1373652257.5,0.183219,25.9825,98.67333333333335,0.038515625000000005,64.59876159803684
1373652257.75,0.18327241666666663,25.984166666666667,98.76666671445334,0.022239583333333337,64.59876159803684
1373652258.0,0.1832724166666667,25.985833333333332,98.86000000000001,0.0033072916666666697,64.59876159803684
1373652258.25,0.18327241666666663,25.987499999999997,98.96166661461335,-0.01153645833333333,64.59876159803684
1373652258.5,0.1832724166666667,25.989166666666666,99.06333333333333,-0.02153645833333333,64.59876159803684
1373652258.75,0.18327241666666663,25.99083333333333,99.16500005205333,-0.034088541666666666,64.59876159803684
1373652259.0,0.18332583333333333,25.992499999999996,99.26666666666667,-0.042994791666666664,64.59876159803684
1373652259.25,0.18337925,25.99416666666666,99.37249994581333,-0.050911458333333326,64.59876159803684
1373652259.5,0.18343266666666666,25.995833333333334,99.47833333333332,-0.06010416666666666,64.59876159803684
1373652259.75,0.1835395,25.998333333333335,99.58416672085333,-0.06606770833333334,64.59876159803684
1373652260.0,0.18359291666666666,26.001666666666665,99.69,-0.06611979166666666,64.59876159803684
1373652260.25,0.18359291666666666,26.005,99.78833328298667,-0.06281250000000001,64.59876159803684
1373652260.5,0.18364633333333333,26.00833333333333,99.88666666666666,-0.062578125,64.59876159803684
1373652260.75,0.18359291666666666,26.011666666666667,99.98500005034666,-0.05807291666666667,64.59876159803684
1373652261.0,0.18359291666666666,26.015,100.08333333333333,-0.05484375,64.59722795823738
1373652261.25,0.18359291666666666,26.018333333333334,100.17333328725333,-0.05559895833333333,64.57674554676369
1373652261.5,0.18359291666666666,26.021666666666665,100.26333333333334,-0.05997395833333333,64.54958673500109
1373652261.75,0.18359291666666666,26.02416666666667,100.35333337941334,-0.06013020833333333,64.5224279232385
1373652262.0,0.1835395,26.025833333333335,100.44333333333334,-0.06414062499999999,64.49526911147589
1373652262.25,0.1834860833333333,26.027500000000003,100.526666624,-0.06010416666666666,64.4681102997133
1373652262.5,0.18343266666666666,26.029166666666665,100.61,-0.05682291666666666,64.4409514879507
1373652262.75,0.18332583333333333,26.03,100.693333376,-0.061822916666666665,64.41269811087892
1373652263.0,0.18327241666666663,26.03,100.77666666666666,-0.07135416666666666,64.38553929911632
1373652263.25,0.18332583333333333,26.03,100.85833329152,-0.07872395833333333,64.35728592204454
1373652263.5,0.1832724166666667,26.03,100.94,-0.08307291666666666,64.3318245360171
1373652263.75,0.18332583333333333,26.030833333333334,101.02166670848,-0.09080729166666666,64.3318245360171
1373652264.0,0.18337925,26.032500000000002,101.10333333333334,-0.08945312500000001,64.33335817581657
1373652264.25,0.1834326666666667,26.034166666666668,101.19083328853334,-0.08062499999999999,64.35384058729025
1373652264.5,0.18353949999999997,26.03583333333334,101.27833333333334,-0.06299479166666667,64.38099939905285
1373652264.75,0.18359291666666666,26.037499999999998,101.36583337813333,-0.047265625000000006,64.40815821081544
1373652265.0,0.18359291666666666,26.03916666666667,101.45333333333333,-0.034140625,64.43531702257805
1373652265.25,0.18359291666666666,26.040833333333335,101.53083329365333,-0.03421875,64.46247583434065
1373652265.5,0.1835929166666667,26.042500000000004,101.60833333333333,-0.022499999999999996,64.48963464610326
1373652265.75,0.18359291666666666,26.04416666666667,101.68583337301334,-0.00039062499999999774,64.51788802317502
1373652266.0,0.18364633333333336,26.045833333333334,101.76333333333334,0.025755208333333335,64.54504683493762
1373652266.25,0.18359291666666666,26.0475,101.83333329749334,0.03661458333333333,64.57330021200941
1373652266.5,0.18364633333333336,26.049166666666668,101.90333333333334,0.044557291666666665,64.59876159803684
1373652266.75,0.18359291666666666,26.050833333333333,101.97333336917333,0.052890625000000004,64.59876159803684
1373652267.0,0.1835395,26.0525,102.04333333333334,0.05906250000000001,64.59876159803684
1373652267.25,0.1834860833333333,26.054166666666664,102.07999998122666,0.05776041666666667,64.59876159803684
1373652267.5,0.18337925,26.055833333333336,102.11666666666667,0.05109375,64.59876159803684
1373652267.75,0.18332583333333333,26.057500000000005,102.15333335210667,0.03890625,64.59876159803684
1373652268.0,0.1833258333333333,26.05916666666667,102.19,0.03059895833333334,64.59876159803684
1373652268.25,0.18337925,26.060833333333335,102.20999998976,0.031796875,64.59876159803684
1373652268.5,0.18343266666666666,26.0625,102.22999999999999,0.01955729166666667,64.59876159803684
1373652268.75,0.1834860833333333,26.064999999999998,102.25000001024,0.004140625000000003,64.59876159803684
1373652269.0,0.1834860833333333,26.06833333333334,102.27,-0.012864583333333332,64.59876159803684
1373652269.25,0.18359291666666666,26.07166666666667,102.27416666453334,-0.016744791666666665,64.59876159803684
1373652269.5,0.18364633333333333,26.075,102.27833333333334,-0.019687499999999997,64.59876159803684
1373652269.75,0.18375316666666666,26.0775,102.28250000213333,-0.02044270833333333,64.59876159803684
1373652270.0,0.18386,26.079166666666666,102.28666666666668,-0.026536458333333332,64.59876159803684
1373652270.25,0.18396683333333333,26.080833333333334,102.29916666026668,-0.024505208333333334,64.59876159803684
1373652270.5,0.18412704166666669,26.0825,102.31166666666667,-0.023697916666666666,64.59876159803684
1373652270.75,0.184340625,26.084999999999997,102.32416667306666,-0.018828124999999998,64.59876159803684
1373652271.0,0.18455420833333336,26.088333333333335,102.33666666666666,-0.010182291666666664,64.59876159803684
1373652271.25,0.184714375,26.091666666666665,102.34999999317333,-0.007890624999999997,64.59876159803684
1373652271.5,0.18487454166666664,26.095,102.36333333333333,-0.001484374999999997,64.59876159803684
1373652271.75,0.18503470833333335,26.096666666666668,102.37666667349333,0.00541666666666667,64.59876159803684
1373652272.0,0.18524825,26.096666666666664,102.39,0.016640625000000003,64.58008991495005
1373652272.25,0.185408375,26.096666666666668,102.40499999232,0.02416666666666667,64.55293110318746
1373652272.5,0.18562187500000002,26.096666666666668,102.42,0.03231770833333334,64.52577229142486
1373652272.75,0.185835375,26.0975,102.43500000768,0.03278645833333334,64.49788376945614
1373652273.0,0.18599549999999998,26.099166666666665,102.45,0.034817708333333336,64.46488727604458
1373652273.25,0.18620899999999999,26.10083333333333,102.46749999104,0.032317708333333334,64.43189078263302
1373652273.5,0.18636912500000002,26.102500000000003,102.485,0.028333333333333335,64.39889428922145
1373652273.75,0.18642250000000002,26.103333333333335,102.50250000896,0.024505208333333337,64.36589779580989
1373652274.0,0.18652924999999998,26.103333333333328,102.52,0.018958333333333337,64.33290130239833
1373652274.25,0.186582625,26.103333333333335,102.53666665813333,0.01885416666666667,64.29990480898677
1373652274.5,0.18663600000000002,26.103333333333335,102.55333333333333,0.01338541666666667,64.26690831557521
1373652274.75,0.18674274999999999,26.105,102.57000000853333,0.009739583333333336,64.23391182216363
1373652275.0,0.18674274999999999,26.108333333333334,102.58666666666666,0.002187500000000003,64.21958701183887
1373652275.25,0.186796125,26.111666666666665,102.58833333247999,-0.003802083333333331,64.2137493301899
1373652275.5,0.18679612499999998,26.115,102.58999999999999,-0.011953124999999997,64.20791164854093
1373652275.75,0.186796125,26.117499999999996,102.59166666751999,-0.007838541666666664,64.20280367709809
1373652276.0,0.1868495,26.11916666666667,102.59333333333332,0.0007031250000000032,64.20280367709809
1373652276.25,0.1868495,26.120833333333334,102.57666667519999,0.00971354166666667,64.20280367709809
1373652276.5,0.18679612499999998,26.1225,102.55999999999999,0.01661458333333334,64.20280367709809
1373652276.75,0.1868495,26.124999999999996,102.54333332479999,0.018437500000000006,64.20681708323174
1373652277.0,0.186796125,26.128333333333334,102.52666666666666,0.02218750000000001,64.21265476488072
1373652277.25,0.186796125,26.131666666666664,102.49750001493332,0.03125000000000001,64.21849244652968
1373652277.5,0.186796125,26.135,102.46833333333333,0.05315104166666667,64.22433012817864
1373652277.75,0.18668937500000002,26.138333333333332,102.43916665173334,0.06703125,64.2301678098276
1373652278.0,0.18663600000000002,26.141666666666666,102.41000000000001,0.080546875,64.23600549147658
1373652278.25,0.18652924999999998,26.145,102.37750001664001,0.102578125,64.24184317312553
1373652278.5,0.18642250000000002,26.14833333333333,102.34500000000001,0.12403645833333334,64.2476808547745
1373652278.75,0.18631575,26.151666666666667,102.31249998336001,0.1309375,64.25351853642346
1373652279.0,0.18620900000000004,26.155,102.28000000000002,0.128984375,64.25862650786631
1373652279.25,0.18610225,26.158333333333335,102.24416668501334,0.12697916666666667,64.26045078338161
1373652279.5,0.186048875,26.161666666666665,102.20833333333334,0.13325520833333335,64.2604507833816
1373652279.75,0.18594212499999999,26.165000000000003,102.17249998165333,0.14518229166666669,64.25643737724795
1373652280.0,0.18588875000000002,26.168333333333333,102.13666666666666,0.15091145833333333,64.25059969559898
1373652280.25,0.185835375,26.171666666666667,102.10500001621332,0.14578125,64.24512686905308
1373652280.5,0.185782,26.174999999999997,102.07333333333332,0.12640625000000003,64.24512686905308
1373652280.75,0.185782,26.176666666666666,102.04166665045332,0.11341145833333334,64.24512686905308
1373652281.0,0.185782,26.176666666666666,102.00999999999999,0.09799479166666668,64.24512686905308
1373652281.25,0.185782,26.176666666666666,101.97666668373333,0.07403645833333335,64.24512686905308
1373652281.5,0.185782,26.176666666666673,101.94333333333333,0.052708333333333336,64.24512686905308
1373652281.75,0.185782,26.1775,101.90999998293333,0.04041666666666667,64.24512686905308
1373652282.0,0.185782,26.179166666666664,101.87666666666667,0.03322916666666668,64.24330259353778
1373652282.25,0.185782,26.180833333333336,101.85416667818667,0.02356770833333334,64.24147831802247
1373652282.5,0.185782,26.182500000000005,101.83166666666668,0.002395833333333338,64.24147831802249
1373652282.75,0.185782,26.183333333333337,101.80916665514667,-0.021510416666666667,64.24147831802247
1373652283.0,0.185782,26.183333333333337,101.78666666666668,-0.034869791666666664,64.240666968454
1373652283.25,0.18583537500000002,26.183333333333337,101.79333332992,-0.04466145833333334,64.23506629778309
1373652283.5,0.18594212499999999,26.183333333333337,101.80000000000001,-0.051562500000000004,64.22078514655506
1373652283.75,0.186048875,26.18416666666667,101.80666667008,-0.06260416666666667,64.20585390523951
1373652284.0,0.18615562499999996,26.185833333333335,101.81333333333333,-0.07515625000000001,64.18705972904895
1373652284.25,0.186262375,26.1875,101.87333330261333,-0.09531250000000001,64.16456161433594
1373652284.5,0.186369125,26.189166666666665,101.93333333333334,-0.11145833333333333,64.14995541806414
1373652284.75,0.18647587499999999,26.19,101.99333336405333,-0.12502604166666667,64.13567426683612
1373652285.0,0.186582625,26.19,102.05333333333333,-0.13078125000000002,64.12394710132952
1373652285.25,0.18668937500000002,26.19,102.14083328853333,-0.12940104166666666,64.11550363175046
1373652285.5,0.186796125,26.19,102.22833333333334,-0.10763020833333332,64.1070601621714
1373652285.75,0.18695625000000002,26.190833333333334,102.31583337813335,-0.0821875,64.09861669259234
1373652286.0,0.18716975,26.1925,102.40333333333335,-0.0759375,64.09098457258175
1373652286.25,0.187329875,26.194166666666664,102.50083328341334,-0.07122395833333332,64.08777691857055
1373652286.5,0.18743662500000002,26.195833333333336,102.59833333333334,-0.066484375,64.08777691857055
1373652286.75,0.18754337499999998,26.1975,102.69583338325334,-0.06989583333333334,64.08842700865809
1373652287.0,0.18765012500000003,26.199166666666667,102.79333333333334,-0.05643229166666666,64.09294003362062
1373652287.25,0.18775687500000002,26.200833333333335,102.88333328725334,-0.029583333333333333,64.10115699710562
1373652287.5,0.187863625,26.2025,102.97333333333334,-0.00606770833333333,64.10148204214939
1373652287.75,0.1880237916666667,26.20416666666667,103.06333337941335,0.011223958333333338,64.10148204214939
1373652288.0,0.188237375,26.205833333333334,103.15333333333335,0.021588541666666673,64.10148204214939
1373652288.25,0.18839754166666667,26.2075,103.22583329621335,0.026927083333333338,64.10148204214939
1373652288.5,0.18850429166666668,26.209166666666672,103.29833333333335,0.011250000000000005,64.10148204214939
1373652288.75,0.18861108333333332,26.21,103.37083337045334,-0.003593749999999996,64.10148204214939
1373652289.0,0.18871791666666668,26.21,103.44333333333334,-0.00302083333333333,64.10148204214939
1373652289.25,0.18882475,26.21,103.48499997866668,0.0015364583333333374,64.10148204214939
1373652289.5,0.18893158333333335,26.21,103.52666666666667,0.009557291666666672,64.10148204214939
1373652289.75,0.18903841666666668,26.210833333333337,103.56833335466668,0.030625000000000003,64.10148204214939
1373652290.0,0.18914525000000001,26.212500000000002,103.61000000000001,0.04072916666666667,64.10148204214939
1373652290.25,0.18925208333333332,26.214166666666667,103.59083334314668,0.044296875000000006,64.10148204214939
1373652290.5,0.18935891666666668,26.215833333333336,103.57166666666669,0.03950520833333334,64.10148204214939
1373652290.75,0.18941233333333332,26.2175,103.55249999018667,0.03674479166666667,64.10148204214939
1373652291.0,0.18941233333333332,26.219166666666666,103.53333333333335,0.03187500000000001,64.10148204214939
1373652291.25,0.18946575000000002,26.220833333333335,103.46916669952,0.02697916666666667,64.10148204214939
1373652291.5,0.1895725833333333,26.2225,103.405,0.03434895833333334,64.10148204214939
1373652291.75,0.189626,26.224999999999998,103.34083330048,0.03567708333333334,64.10148204214939
1373652292.0,0.18967937499999998,26.228333333333335,103.27666666666666,0.03278645833333333,64.10148204214939
1373652292.25,0.189786125,26.231666666666666,103.19166671018665,0.025182291666666672,64.10148204214939
1373652292.5,0.189892875,26.235,103.10666666666665,0.014505208333333337,64.10148204214939
1373652292.75,0.18999962499999998,26.238333333333333,103.02166662314667,0.0016666666666666698,64.10148204214939
1373652293.0,0.19010637499999997,26.24166666666667,102.93666666666667,-0.011822916666666664,64.10148204214939
1373652293.25,0.190213125,26.245,102.86166670506667,-0.024401041666666665,64.10148204214939
1373652293.5,0.190319875,26.248333333333335,102.78666666666666,-0.024453124999999996,64.10148204214939
1373652293.75,0.19037324999999997,26.251666666666665,102.71166662826666,-0.022421874999999997,64.10148204214939
1373652294.0,0.190426625,26.255,102.63666666666666,-0.025703124999999997,64.10148204214939
1373652294.25,0.19047999999999998,26.25833333333333,102.58166669482667,-0.029583333333333326,64.10148204214939
1373652294.5,0.19058675000000003,26.261666666666667,102.52666666666667,-0.033515625,64.10148204214939
1373652294.75,0.1906935,26.264166666666668,102.47166663850666,-0.021276041666666662,64.10148204214939
1373652295.0,0.190746875,26.265833333333333,102.41666666666667,-0.00809895833333333,64.10148204214939
1373652295.25,0.19074687499999998,26.267500000000002,102.37833335296,-0.0007552083333333285,64.10148204214939
1373652295.5,0.19074687499999998,26.269166666666667,102.34,0.005598958333333338,64.10148204214939
1373652295.75,0.190746875,26.270833333333332,102.30166664704,0.01817708333333334,64.10148204214939
1373652296.0,0.19074687499999998,26.272499999999997,102.26333333333332,0.02481770833333334,64.10148204214939
1373652296.25,0.19074687499999998,26.27416666666667,102.23416668159999,0.03221354166666667,64.10148204214939
1373652296.5,0.190746875,26.275833333333328,102.20499999999998,0.03187500000000001,64.10148204214939
1373652296.75,0.19080025,26.2775,102.1758333184,0.029713541666666673,64.10148204214939
1373652297.0,0.190853625,26.27916666666667,102.14666666666666,0.03549479166666667,64.10148204214939
1373652297.25,0.190907,26.280833333333334,102.12416667818665,0.04343750000000001,64.10148204214939
1373652297.5,0.190907,26.2825,102.10166666666666,0.044296875000000006,64.10148204214939
1373652297.75,0.190907,26.284166666666664,102.07916665514666,0.03005208333333334,64.10148204214939
1373652298.0,0.190907,26.285833333333333,102.05666666666666,0.01526041666666667,64.10148204214939
1373652298.25,0.190907,26.287499999999998,102.03000001365332,0.010130208333333337,64.10148204214939
1373652298.5,0.190907,26.289166666666663,102.00333333333333,0.00830729166666667,64.10148204214939
1373652298.75,0.190907,26.290833333333328,101.97666665301334,0.00026041666666667,64.10148204214939
1373652299.0,0.190907,26.2925,101.95,-0.00091145833333333,64.10148204214939
1373652299.25,0.190907,26.294166666666666,101.92750001152,-0.0019531249999999967,64.10148204214939
1373652299.5,0.190907,26.295833333333334,101.905,-0.00098958333333333,64.10148204214939
1373652299.75,0.190853625,26.2975,101.88249998848,0.00049479166666667,64.10148204214939
1373652300.0,0.19080025,26.299166666666665,101.86,0.00015625000000000334,64.10148204214939
1373652300.25,0.19080025,26.300833333333333,101.84083334314667,-0.0001822916666666633,64.10148204214939
1373652300.5,0.19080025,26.3025,101.82166666666667,0.0011458333333333368,64.10148204214939
1373652300.75,0.19080024999999998,26.30416666666667,101.80249999018667,0.006067708333333337,64.10148204214939
1373652301.0,0.19080025,26.305833333333336,101.78333333333335,0.010208333333333338,64.10148204214939
1373652301.25,0.19080025,26.307499999999994,101.75583334741334,0.012604166666666672,64.10148204214939
1373652301.5,0.19080024999999998,26.309166666666666,101.72833333333334,0.016588541666666668,64.10148204214939
1373652301.75,0.19080025,26.310833333333335,101.70083331925333,0.023645833333333335,64.10148204214939
1373652302.0,0.19080025,26.3125,101.67333333333333,0.029583333333333336,64.10148204214939
1373652302.25,0.19080025,26.314166666666665,101.63750001834666,0.03138020833333334,64.10148204214939
1373652302.5,0.19080025,26.31583333333333,101.60166666666666,0.03684895833333334,64.10148204214939
1373652302.75,0.190853625,26.3175,101.56583331498666,0.042526041666666674,64.10148204214939
1373652303.0,0.190907,26.319166666666664,101.52999999999999,0.05453125,64.10148204214939
1373652303.25,0.190907,26.32083333333333,101.49083335338666,0.06356770833333333,64.10148204214939
1373652303.5,0.190907,26.322499999999994,101.45166666666665,0.07682291666666667,64.10148204214939
1373652303.75,0.190907,26.325,101.41249997994666,0.08658854166666667,64.10148204214939
1373652304.0,0.190907,26.32833333333333,101.37333333333333,0.10361979166666667,64.10148204214939
1373652304.25,0.190960375,26.331666666666667,101.35083334485334,0.1240625,64.10148204214939
1373652304.5,0.19101375,26.335000000000004,101.32833333333335,0.13864583333333333,64.10148204214939
1373652304.75,0.1911205,26.337499999999995,101.30583332181334,0.143125,64.10148204214939
1373652305.0,0.19122724999999996,26.339166666666667,101.28333333333335,0.14565104166666668,64.10148204214939
1373652305.25,0.191334,26.340833333333336,101.28499999914668,0.15528645833333335,64.10148204214939
1373652305.5,0.19144074999999997,26.3425,101.28666666666668,0.16252604166666668,64.10148204214939
1373652305.75,0.1915475,26.344166666666666,101.28833333418667,0.167109375,64.10148204214939
1373652306.0,0.19165425,26.34583333333333,101.29,0.16341145833333334,64.10148204214939
1373652306.25,0.19170762499999996,26.3475,101.30499999232,0.16091145833333334,64.10148204214939
1373652306.5,0.19170762500000002,26.349166666666672,101.32000000000001,0.15098958333333334,64.10148204214939
1373652306.75,0.19170762499999996,26.35,101.33500000768001,0.14736979166666667,64.10148204214939
1373652307.0,0.19170762499999996,26.35,101.35000000000001,0.13645833333333335,64.10148204214939
1373652307.25,0.19165425,26.35,101.38083331754667,0.11880208333333332,64.10148204214939
1373652307.5,0.19160087499999998,26.35,101.41166666666668,0.10520833333333335,64.10148204214939
1373652307.75,0.191494125,26.350833333333338,101.44250001578668,0.09796875000000001,64.10148204214939
1373652308.0,0.19138737500000003,26.352500000000003,101.47333333333334,0.09388020833333334,64.10148204214939
1373652308.25,0.19128062499999998,26.354166666666668,101.51333331285333,0.08940104166666668,64.10148204214939
1373652308.5,0.19117387500000002,26.355833333333337,101.55333333333334,0.08325520833333334,64.10148204214939
1373652308.75,0.19106712499999998,26.358333333333334,101.59333335381334,0.07768229166666667,64.10148204214939
1373652309.0,0.190960375,26.361666666666668,101.63333333333333,0.06815104166666666,64.10148204214939
1373652309.25,0.190907,26.365,101.6916666368,0.061119791666666666,64.10148204214939
1373652309.5,0.190907,26.368333333333336,101.75,0.06111979166666667,64.10148204214939
1373652309.75,0.190907,26.37166666666667,101.80833336319999,0.05744791666666666,64.10148204214939
1373652310.0,0.190907,26.375,101.86666666666666,0.05320312500000001,64.10148204214939
1373652310.25,0.190960375,26.37833333333333,101.93416663210665,0.05153645833333334,64.10148204214939
1373652310.5,0.19101375,26.38166666666667,102.00166666666667,0.047578125,64.10148204214939
1373652310.75,0.191067125,26.38416666666667,102.06916670122666,0.05010416666666667,64.10148204214939
1373652311.0,0.19117387499999997,26.385833333333334,102.13666666666666,0.05317708333333334,64.10148204214939
1373652311.25,0.19128062499999998,26.3875,102.20499996501333,0.04809895833333333,64.10148204214939
1373652311.5,0.191387375,26.389166666666668,102.27333333333334,0.03994791666666667,64.10148204214939
1373652311.75,0.191494125,26.39,102.34166670165334,0.03072916666666667,64.10148204214939
1373652312.0,0.191600875,26.39,102.41000000000001,0.03299479166666667,64.10148204214939
1373652312.25,0.19170762499999996,26.39,102.48249996288001,0.03283854166666667,64.10148204214939
1373652312.5,0.191814375,26.39,102.555,0.028723958333333337,64.10148204214939
1373652312.75,0.19186775,26.390833333333333,102.62750003712,0.02604166666666667,64.10148204214939
1373652313.0,0.191921125,26.392500000000002,102.7,0.027187500000000007,64.10148204214939
1373652313.25,0.19186774999999998,26.394166666666667,102.77083329706667,0.02565104166666667,64.10148204214939
1373652313.5,0.19186774999999998,26.395833333333332,102.84166666666667,0.02486979166666667,64.10148204214939
1373652313.75,0.19186774999999998,26.397499999999997,102.91250003626668,0.017083333333333336,64.10148204214939
1373652314.0,0.191761,26.39916666666667,102.98333333333335,0.0023437500000000025,64.10148204214939
1373652314.25,0.19165425000000003,26.400833333333335,103.05916662784001,-0.0057291666666666645,64.10148204214939
1373652314.5,0.19154749999999998,26.4025,103.13500000000002,-0.00778645833333333,64.10148204214939
1373652314.75,0.19144075000000002,26.404166666666665,103.21083337216001,-0.004817708333333331,64.10148204214939
1373652315.0,0.19133399999999998,26.405833333333334,103.28666666666668,-0.008098958333333331,64.10148204214939
1373652315.25,0.19128062499999998,26.407500000000002,103.36166662826668,-0.009947916666666666,64.10148204214939
1373652315.5,0.19128062499999998,26.409166666666664,103.43666666666667,-0.013203124999999998,64.10148204214939
1373652315.75,0.19133399999999998,26.410833333333333,103.51166670506666,-0.0196875,64.10148204214939
1373652316.0,0.191387375,26.412499999999998,103.58666666666666,-0.02536458333333333,64.10148204214939
1373652316.25,0.191494125,26.41416666666667,103.66333329407999,-0.02390625,64.10148204214939
1373652316.5,0.191494125,26.415833333333335,103.74,-0.021666666666666667,64.10148204214939
1373652316.75,0.1915475,26.4175,103.81666670592,-0.01731770833333333,64.10148204214939
1373652317.0,0.19165425,26.419166666666666,103.89333333333333,-0.00692708333333333,64.10148204214939
1373652317.25,0.191761,26.420833333333334,103.96166663168,0.001328125000000003,64.10148204214939
1373652317.5,0.19186775,26.4225,104.03,0.007500000000000003,64.10148204214939
1373652317.75,0.19197449999999996,26.424166666666668,104.09833336832,0.01010416666666667,64.10148204214939
1373652318.0,0.19208125,26.425833333333333,104.16666666666667,0.013385416666666669,64.10148204214939
1373652318.25,0.192134625,26.4275,104.22333330432001,0.015520833333333338,64.10148204214939
1373652318.5,0.19208124999999998,26.429166666666664,104.28,0.02096354166666667,64.10148204214939
1373652318.75,0.192027875,26.43083333333333,104.33666669568,0.028203125,64.10148204214939
1373652319.0,0.19197449999999996,26.4325,104.39333333333333,0.03187500000000001,64.10148204214939
1373652319.25,0.191921125,26.434166666666666,104.44749997226667,0.027473958333333336,64.10148204214939
1373652319.5,0.19197450000000002,26.43583333333333,104.50166666666667,0.027395833333333338,64.10148204214939
1373652319.75,0.19197449999999996,26.4375,104.55583336106666,0.02421875,64.10148204214939
1373652320.0,0.19197450000000002,26.439166666666665,104.61,0.016848958333333337,64.10148204214939
1373652320.25,0.19197450000000002,26.440833333333334,104.67499996672,0.012343750000000002,64.10148204214939
1373652320.5,0.19197449999999996,26.4425,104.74000000000001,0.001458333333333336,64.10148204214939
1373652320.75,0.19197450000000002,26.444166666666664,104.80500003328001,-0.0018489583333333307,64.10148204214939
1373652321.0,0.19197449999999996,26.44583333333333,104.87,-0.0035937499999999967,64.10148204214939
1373652321.25,0.19197450000000002,26.447499999999994,104.94666662741334,-0.005963541666666665,64.10148204214939
1373652321.5,0.192027875,26.449166666666667,105.02333333333334,-0.016510416666666663,64.10148204214939
1373652321.75,0.19208125,26.45,105.10000003925335,-0.01916666666666666,64.10148204214939
1373652322.0,0.192134625,26.45,105.17666666666668,-0.026406249999999996,64.10148204214939
1373652322.25,0.192188,26.45,105.2558332928,-0.021848958333333335,64.10148204214939
1373652322.5,0.192188,26.45,105.33500000000001,-0.021953125,64.10148204214939
1373652322.75,0.192188,26.450833333333335,105.41416670720001,-0.023854166666666662,64.10148204214939
1373652323.0,0.192188,26.4525,105.49333333333334,-0.020026041666666664,64.10148204214939
1373652323.25,0.192188,26.454166666666666,105.56749996202667,-0.016276041666666664,64.10148204214939
1373652323.5,0.192188,26.45583333333333,105.64166666666668,-0.005963541666666665,64.10148204214939
1373652323.75,0.192188,26.4575,105.71583337130667,-0.002499999999999997,64.10148204214939
1373652324.0,0.192188,26.459166666666665,105.79,0.002500000000000003,64.10148204214939
1373652324.25,0.192188,26.460833333333337,105.86083329706666,0.00393229166666667,64.10148204214939
1373652324.5,0.192188,26.462499999999995,105.93166666666667,0.01643229166666667,64.10148204214939
1373652324.75,0.192188,26.465,106.00250003626667,0.020546875000000003,64.10148204214939
1373652325.0,0.192188,26.468333333333334,106.07333333333332,0.03536458333333334,64.10148204214939
1373652325.25,0.192188,26.471666666666664,106.13833330005332,0.03291666666666667,64.10148204214939
1373652325.5,0.19224137500000002,26.474999999999998,106.20333333333332,0.027812500000000004,64.10148204214939
1373652325.75,0.192348125,26.477499999999996,106.26833336661333,0.031093750000000003,64.10148204214939
1373652326.0,0.192454875,26.479166666666668,106.33333333333333,0.037265625000000004,64.10148204214939
1373652326.25,0.19261504166666668,26.480833333333333,106.3916666368,0.032578125000000006,64.10148204214939
1373652326.5,0.19282862499999998,26.482499999999998,106.44999999999999,0.028229166666666666,64.10148204214939
1373652326.75,0.19304220833333333,26.484166666666663,106.5083333632,0.023958333333333335,64.10148204214939
1373652327.0,0.19330916666666667,26.485833333333332,106.56666666666666,0.01276041666666667,64.10148204214939
1373652327.25,0.193576125,26.487499999999997,106.61249997653333,0.013645833333333338,64.10148204214939
1373652327.5,0.19384308333333333,26.489166666666666,106.65833333333333,0.0046354166666666705,64.10148204214939
1373652327.75,0.19411004166666668,26.49,106.70416669013333,-0.004583333333333331,64.10148204214939
1373652328.0,0.19437700000000002,26.49,106.75,-0.016510416666666663,64.10148204214939
1373652328.25,0.19459058333333332,26.49,106.7874999808,-0.017734374999999997,64.10148204214939
1373652328.5,0.19475079166666664,26.49,106.82500000000002,-0.017864583333333333,64.10148204214939
1373652328.75,0.194857625,26.49083333333333,106.86250001920001,-0.019791666666666662,64.10148204214939
1373652329.0,0.19496445833333334,26.492499999999996,106.90000000000002,-0.025833333333333333,64.10148204214939
1373652329.25,0.19501787499999998,26.49416666666666,106.92999998464002,-0.022343749999999996,64.10148204214939
1373652329.5,0.195017875,26.495833333333334,106.96000000000001,-0.02450520833333333,64.10148204214939
1373652329.75,0.195017875,26.497500000000002,106.99000001536,-0.026276041666666666,64.10148204214939
1373652330.0,0.1949645,26.499166666666667,107.02,-0.020677083333333332,64.10148204214939
1373652330.25,0.194911125,26.500833333333333,107.04749998592,-0.02747395833333333,64.10148204214939
1373652330.5,0.19485775000000002,26.502499999999998,107.07499999999999,-0.02278645833333333,64.10148204214939
1373652330.75,0.194804375,26.504166666666663,107.10250001408,-0.01854166666666666,64.10148204214939
1373652331.0,0.194751,26.50583333333334,107.13,-0.019791666666666662,64.10148204214939
1373652331.25,0.194751,26.507500000000004,107.15666665301333,-0.02171875,64.10148204214939
1373652331.5,0.194751,26.50916666666667,107.18333333333334,-0.02265625,64.10148204214939
1373652331.75,0.19469758333333334,26.51,107.21000001365333,-0.026640624999999998,64.10148204214939
1373652332.0,0.19459075,26.51,107.23666666666666,-0.031770833333333325,64.10148204214939
1373652332.25,0.19448391666666667,26.51,107.25749998933333,-0.03833333333333333,64.10148204214939
1373652332.5,0.19437708333333334,26.51,107.27833333333334,-0.040546874999999996,64.10148204214939
1373652332.75,0.19427025,26.510833333333334,107.29916667733333,-0.0434375,64.10148204214939
1373652333.0,0.19416341666666667,26.512500000000003,107.32,-0.04973958333333334,64.10148204214939
1373652333.25,0.19405658333333334,26.514166666666668,107.3324999936,-0.050546875,64.10148204214939
1373652333.5,0.19394975,26.515833333333337,107.345,-0.05960937499999999,64.10148204214939
1373652333.75,0.19384291666666667,26.517500000000002,107.35750000639999,-0.06776041666666667,64.10148204214939
1373652334.0,0.19373608333333334,26.519166666666667,107.36999999999999,-0.07450520833333334,64.10148204214939
1373652334.25,0.19362925,26.520833333333332,107.36999999999999,-0.08041666666666666,64.10148204214939
1373652334.5,0.19352241666666667,26.522500000000004,107.37,-0.08015625,64.10148204214939
1373652334.75,0.193469,26.52416666666667,107.37,-0.08132812499999999,64.10148204214939
1373652335.0,0.193469,26.52583333333334,107.37,-0.08770833333333333,64.10148204214939
1373652335.25,0.193469,26.5275,107.36500000256001,-0.097109375,64.10140078088844
1373652335.5,0.193469,26.52916666666667,107.36000000000001,-0.10158854166666666,64.10123825836656
1373652335.75,0.193469,26.53,107.35499999744,-0.10729166666666666,64.1016848422279
1373652336.0,0.193469,26.53,107.35000000000001,-0.11393229166666667,64.10724664413574
1373652336.25,0.193469,26.53,107.34166667093334,-0.11791666666666667,64.11682553277957
1373652336.5,0.193469,26.53,107.33333333333334,-0.11190104166666666,64.12681001256718
1373652336.75,0.193469,26.530833333333334,107.32499999573334,-0.10020833333333334,64.13720008349853
1373652337.0,0.193469,26.5325,107.31666666666666,-0.08692708333333332,64.14759015442989
1373652337.25,0.193469,26.534166666666668,107.31000000341334,-0.06934895833333334,64.15798022536124
1373652337.5,0.193469,26.535833333333333,107.30333333333334,-0.07169270833333334,64.1683702962926
1373652337.75,0.19341562499999998,26.537500000000005,107.29666666325333,-0.071875,64.17876036722394
1373652338.0,0.19336224999999999,26.539166666666663,107.29,-0.06328125,64.1891504381553
1373652338.25,0.193202125,26.540833333333335,107.28583333546666,-0.054609374999999995,64.1996217703476
1373652338.5,0.19298862500000002,26.5425,107.28166666666667,-0.053307291666666666,64.21017436380085
1373652338.75,0.19277512499999996,26.545,107.27749999786667,-0.04838541666666666,64.22011785087086
1373652339.0,0.192561625,26.548333333333332,107.27333333333333,-0.03614583333333333,64.2216984329202
1373652339.25,0.192348125,26.551666666666666,107.27083333461333,-0.035182291666666664,64.21386011910364
1373652339.5,0.192134625,26.554999999999996,107.26833333333333,-0.03877604166666667,64.20183824850052
1373652339.75,0.191921125,26.557500000000005,107.26583333205333,-0.05518229166666667,64.18616190170067
1373652340.0,0.19170762500000002,26.55916666666667,107.26333333333334,-0.07846354166666666,64.16646015174307
1373652340.25,0.191494125,26.560833333333335,107.26000000170667,-0.10921874999999999,64.14631100164806
1373652340.5,0.191280625,26.5625,107.25666666666666,-0.117265625,64.12616185155305
1373652340.75,0.1911205,26.564999999999998,107.25333333162666,-0.12760416666666666,64.10869530516423
1373652341.0,0.190960375,26.56833333333334,107.25,-0.13799479166666667,64.10634062134667
1373652341.25,0.190960375,26.57166666666667,107.24666666837334,-0.12908854166666667,64.10634062134667
1373652341.5,0.19101374999999998,26.575,107.24333333333334,-0.12307291666666668,64.10634062134666
1373652341.75,0.191067125,26.5775,107.23999999829334,-0.11744791666666667,64.10634062134667
1373652342.0,0.19117387499999997,26.579166666666666,107.23666666666668,-0.12440104166666666,64.10374438097683
1373652342.25,0.19128062499999998,26.580833333333334,107.23500000085335,-0.12955729166666666,64.10070362597448
1373652342.5,0.191387375,26.5825,107.23333333333335,-0.150234375,64.10144083661494
1373652342.75,0.191494125,26.584166666666665,107.23166666581334,-0.16674479166666667,64.10542693230835
1373652343.0,0.19160087499999998,26.58583333333333,107.23,-0.17380208333333333,64.11343843115952
1373652343.25,0.191761,26.587499999999995,107.21333334186667,-0.16963541666666668,64.1218973301481
1373652343.5,0.19202791666666666,26.589166666666667,107.19666666666667,-0.17049479166666667,64.13035622913667
1373652343.75,0.19234825,26.59,107.17999999146667,-0.16309895833333335,64.1321073960011
1373652344.0,0.19266858333333334,26.59,107.16333333333334,-0.16255208333333332,64.11691709646793
1373652344.25,0.19293554166666668,26.59,107.121666688,-0.17778645833333337,64.10083579617829
1373652344.5,0.19320250000000003,26.59,107.08000000000001,-0.1725,64.08768186201077
1373652344.75,0.19346945833333332,26.59,107.038333312,-0.16471354166666666,64.07452792784326
1373652345.0,0.1936830416666667,26.59,106.99666666666667,-0.143828125,64.06868160408084
1373652345.25,0.19389662500000002,26.59,106.94416669354668,-0.11622395833333332,64.06868160408084
1373652345.5,0.19411020833333337,26.59,106.89166666666668,-0.06528645833333334,64.06831568331556
1373652345.75,0.19432379166666666,26.590833333333332,106.83916663978667,0.010859375000000004,64.06831568331556
1373652346.0,0.194537375,26.5925,106.78666666666668,0.08364583333333332,64.06831568331557
1373652346.25,0.19469758333333334,26.594166666666666,106.73833335808,0.13333333333333333,64.06831568331556
1373652346.5,0.1946975833333333,26.59583333333333,106.69,0.17005208333333333,64.06831568331557
1373652346.75,0.1946441666666667,26.5975,106.64166664192,0.19361979166666668,64.07234081173353
1373652347.0,0.19453733333333334,26.599166666666665,106.59333333333332,0.20114583333333336,64.07819554397783
1373652347.25,0.19443049999999998,26.600833333333338,106.56000001706666,0.19203125000000001,64.08258659316105
1373652347.5,0.19432366666666667,26.602499999999996,106.52666666666666,0.17369791666666667,64.08405027622213
1373652347.75,0.19421683333333337,26.604166666666668,106.49333331626666,0.15953124999999999,64.08551395928319
1373652348.0,0.19416341666666667,26.605833333333333,106.46,0.14395833333333333,64.0855139592832
1373652348.25,0.19411,26.6075,106.43750001152,0.1586979166666667,64.08624531063168
1373652348.5,0.1940565833333333,26.609166666666667,106.41499999999999,0.16544270833333333,64.09209410620473
1373652348.75,0.19405658333333334,26.61,106.39249998848,0.14598958333333334,64.09903778891913
1373652349.0,0.19405658333333334,26.61,106.37,0.12822916666666667,64.10634659227907
1373652349.25,0.19405658333333334,26.61,106.36750000128,0.24763020833333335,64.11219491305684
1373652349.5,0.19411,26.61,106.36500000000001,0.6058072916666667,64.11804323383461
1373652349.75,0.19416341666666667,26.610833333333332,106.36249999872,0.9725000000000001,64.12389155461238
1373652350.0,0.19427025,26.612499999999997,106.36,1.3583072916666667,64.12973987539017
1373652350.25,0.19437708333333337,26.614166666666662,106.36749999616,1.720390625,64.13558819616794
1373652350.5,0.19448391666666665,26.61583333333333,106.375,1.7945572916666668,64.14143651694572
1373652350.75,0.19459075,26.617499999999996,106.38250000384,1.80265625,64.14728483772349
1373652351.0,0.1946441666666667,26.61916666666666,106.39,1.782916666666667,64.15313315850126
1373652351.25,0.19469758333333334,26.620833333333334,106.39583333034668,1.7260937500000002,64.15825012793056
1373652351.5,0.194751,26.622500000000002,106.40166666666667,1.6719791666666668,64.15861557390055
1373652351.75,0.194751,26.624166666666667,106.40750000298667,1.6425520833333336,64.15752021196393
1373652352.0,0.194751,26.625833333333333,106.41333333333334,1.6040885416666668,64.15605972938177
1373652352.25,0.194751,26.627499999999998,106.41000000170666,1.4361458333333335,64.15605972938177
1373652352.5,0.194751,26.629166666666666,106.40666666666667,1.035703125,64.15605972938177
1373652352.75,0.194751,26.63,106.40333333162667,0.6373697916666667,64.15605972938177
1373652353.0,0.194804375,26.63,106.39999999999999,0.23903645833333334,64.15605972938177
1373652353.25,0.194804375,26.63,106.39666666837333,-0.11593749999999999,64.15605972938177
1373652353.5,0.19480437500000003,26.63,106.39333333333332,-0.17950520833333336,64.15605972938177
1373652353.75,0.194804375,26.63,106.38999999829332,-0.18359375,64.16007605648271
1373652354.0,0.194804375,26.63,106.38666666666666,-0.15408854166666666,64.16591798681138
1373652354.25,0.194804375,26.63,106.38500000085332,-0.11661458333333334,64.17175991714004
1373652354.5,0.19480437500000003,26.63,106.38333333333333,-0.09619791666666666,64.18246040912041
1373652354.75,0.194804375,26.63083333333333,106.38166666581333,-0.10786458333333333,64.20384973673457
1373652355.0,0.194804375,26.632499999999997,106.38,-0.10611979166666667,64.21843707803632
1373652355.25,0.19475095833333333,26.634166666666662,106.39666665813333,-0.11893229166666668,64.22427900836497
1373652355.5,0.19469754166666667,26.635833333333334,106.41333333333333,-0.13700520833333332,64.22610461159267
1373652355.75,0.19464412500000003,26.6375,106.43000000853333,-0.10677083333333331,64.22610461159267
1373652356.0,0.19453733333333334,26.639166666666664,106.44666666666666,0.003854166666666671,64.22610461159267
1373652356.25,0.19453733333333334,26.640833333333333,106.47749998421332,0.13856770833333334,64.22610461159267
1373652356.5,0.19453733333333334,26.6425,106.50833333333333,0.17429687500000002,64.22610461159267
1373652356.75,0.19453733333333334,26.645,106.53916668245333,0.140625,64.22208828449173
1373652357.0,0.19453733333333334,26.648333333333337,106.57,0.08328125000000001,64.21624635416306
1373652357.25,0.19453733333333334,26.651666666666667,106.61499997696,0.028072916666666673,64.21040442383442
1373652357.5,0.19453733333333334,26.655,106.66,-0.002421874999999994,64.19970393185403
1373652357.75,0.19453733333333334,26.65833333333333,106.70500002304,0.0008333333333333377,64.17831460423987
1373652358.0,0.19453733333333334,26.661666666666665,106.75,-0.002578124999999997,64.16372726293814
1373652358.25,0.19464412499999997,26.665000000000003,106.79166664533334,0.022005208333333335,64.15788533260947
1373652358.5,0.1947509166666667,26.668333333333333,106.83333333333334,0.058515624999999995,64.15605972938177
1373652358.75,0.19485770833333335,26.671666666666667,106.87500002133334,0.03341145833333333,64.15605972938177
1373652359.0,0.195017875,26.674999999999997,106.91666666666667,-0.07635416666666667,64.15605972938177
1373652359.25,0.19512462500000002,26.67833333333333,106.95583331328001,-0.20888020833333334,64.15605972938177
1373652359.5,0.19523137499999998,26.68166666666667,106.995,-0.24643229166666666,64.15605972938177
1373652359.75,0.19533812500000003,26.684166666666666,107.03416668672,-0.21411458333333336,64.15605972938177
1373652360.0,0.195444875,26.685833333333335,107.07333333333334,-0.16643229166666665,64.15605972938177
1373652360.25,0.195551625,26.687500000000004,107.10499998378667,-0.12221354166666666,64.15605972938177
1373652360.5,0.19565837500000002,26.68916666666667,107.13666666666667,-0.0890625,64.15605972938177
1373652360.75,0.195765125,26.69,107.16833334954667,-0.081171875,64.15605972938177
1373652361.0,0.19587187500000003,26.69,107.2,-0.07111979166666667,64.15605972938177
1373652361.25,0.19592525000000002,26.69,107.23333331626667,-0.0671875,64.15605972938177
1373652361.5,0.195978625,26.69,107.26666666666667,-0.06611979166666666,64.15605972938177
1373652361.75,0.195978625,26.69,107.30000001706667,-0.05377604166666667,64.15605972938177
1373652362.0,0.19587187500000003,26.69,107.33333333333333,-0.03348958333333333,64.15605972938177
1373652362.25,0.19576512499999998,26.69,107.36083331925333,-0.02552083333333333,64.15605972938177
1373652362.5,0.19565837500000002,26.69,107.38833333333332,-0.01848958333333333,64.15605972938177
1373652362.75,0.195551625,26.69,107.41583334741333,-0.012994791666666663,64.15605972938177
1373652363.0,0.19544487500000005,26.69,107.44333333333333,-0.012968749999999996,64.15605972938177
1373652363.25,0.195338125,26.69,107.46416665599999,-0.01294270833333333,64.15605972938177
1373652363.5,0.19523137499999998,26.69,107.48499999999999,-0.017135416666666663,64.15605972938177
1373652363.75,0.19512462500000002,26.69,107.505833344,-0.01231770833333333,64.15605972938177
1373652364.0,0.195017875,26.69,107.52666666666666,-0.010729166666666665,64.15605972938177
1373652364.25,0.194911125,26.69,107.52000000341333,-0.010052083333333331,64.15605972938177
1373652364.5,0.194804375,26.69,107.51333333333332,-0.008385416666666664,64.15605972938177
1373652364.75,0.194751,26.690833333333334,107.50666666325333,-0.007760416666666665,64.15605972938177
1373652365.0,0.194751,26.6925,107.5,-0.011562499999999998,64.15605972938177
1373652365.25,0.194751,26.69416666666667,107.46916668245333,-0.003697916666666664,64.15605972938177
1373652365.5,0.194751,26.695833333333336,107.43833333333333,-0.0019531249999999974,64.15605972938177
1373652365.75,0.194751,26.6975,107.40749998421333,-0.000572916666666664,64.15605972938177
1373652366.0,0.194751,26.69916666666667,107.37666666666667,0.005989583333333336,64.15605972938177
1373652366.25,0.194751,26.700833333333335,107.32250002773334,0.011223958333333338,64.15605972938177
1373652366.5,0.19480437500000003,26.702500000000004,107.26833333333335,0.01690104166666667,64.15605972938177
1373652366.75,0.19485775000000002,26.70416666666667,107.21416663893334,0.014062500000000004,64.15605972938177
1373652367.0,0.19496449999999999,26.70583333333333,107.16000000000001,0.01877604166666667,64.15605972938177
1373652367.25,0.19507125000000003,26.7075,107.08500003840001,0.024062500000000004,64.15605972938177
1373652367.5,0.195178,26.709166666666665,107.01000000000002,0.021067708333333338,64.15605972938177
1373652367.75,0.19528475,26.71083333333333,106.93499996160001,0.01989583333333334,64.15605972938177
1373652368.0,0.19539150000000002,26.712500000000002,106.86000000000001,0.020859375000000003,64.15605972938177
1373652368.25,0.19549825,26.714166666666667,106.76833338026668,0.017968750000000002,64.15605972938177
1373652368.5,0.19560500000000003,26.715833333333336,106.67666666666668,0.018984375,64.15605972938177
1373652368.75,0.19571175,26.7175,106.58499995306667,0.018281250000000002,64.15605972938177
1373652369.0,0.19576512499999998,26.719166666666666,106.49333333333334,0.003906250000000003,64.15605972938177
1373652369.25,0.1958185,26.720833333333335,106.38916672,-0.009999999999999997,64.15605972938177
1373652369.5,0.1958185,26.7225,106.285,-0.011197916666666663,64.15605972938177
1373652369.75,0.19576512499999998,26.724166666666665,106.18083328,-0.00778645833333333,64.15605972938177
1373652370.0,0.19565837500000002,26.725833333333338,106.07666666666667,-0.016015624999999995,64.15605972938177
1373652370.25,0.195551625,26.727499999999996,105.97250005333333,-0.020807291666666665,64.15605972938177
1373652370.5,0.19544487500000005,26.729166666666668,105.86833333333334,-0.005416666666666664,64.15605972938177
1373652370.75,0.195338125,26.73,105.76416661333334,0.01471354166666667,64.15605972938177
1373652371.0,0.195231375,26.73,105.66000000000001,0.030781250000000007,64.15605972938177
1373652371.25,0.19507120833333336,26.73,105.55916671829334,0.03484375,64.15605972938177
1373652371.5,0.192829,26.73,105.45833333333334,0.024583333333333336,64.15605972938177
1373652371.75,0.18866491666666665,26.73,105.35749994837333,0.012395833333333335,64.15605972938177
1373652372.0,0.18455420833333336,26.73,105.25666666666666,0.030833333333333334,64.15605972938177
1373652372.25,0.1804435,26.73,105.15500005205332,0.05190104166666667,64.16541756021296
1373652372.5,0.17633279166666668,26.73,105.05333333333334,0.04947916666666668,64.18680688782712
1373652372.75,0.17227545833333333,26.73,104.95166661461334,0.050338541666666674,64.20819621544128
1373652373.0,0.168218125,26.73,104.85000000000001,0.07674479166666667,64.22958554305542
1373652373.25,0.16453445833333333,26.73,104.74833338538667,0.0971875,64.2509748706696
1373652373.5,0.162559125,26.73,104.64666666666668,0.08481770833333334,64.27236419828374
1373652373.75,0.16234554166666668,26.730833333333333,104.54499994794668,0.05861979166666667,64.29375352589791
1373652374.0,0.16250566666666666,26.7325,104.44333333333334,0.04479166666666667,64.31514285351206
1373652374.25,0.16277258333333333,26.734166666666667,104.34166671872,0.04734375,64.33653218112622
1373652374.5,0.16512154166666668,26.735833333333332,104.24000000000001,0.06265625,64.3559780840797
1373652374.75,0.169392375,26.7375,104.13833328128001,0.08773437499999999,64.36534174308419
1373652375.0,0.17366320833333335,26.739166666666666,104.03666666666668,0.09807291666666666,64.36607198437527
1373652375.25,0.17793404166666668,26.74083333333333,103.94083338240002,0.11507812500000002,64.35671415354408
1373652375.5,0.18220487500000002,26.742499999999996,103.84500000000001,0.13552083333333334,64.33532482592992
1373652375.75,0.18642233333333336,26.74416666666667,103.74916661760001,0.13903645833333333,64.31393549831576
1373652376.0,0.19058641666666665,26.745833333333334,103.65333333333335,0.12049479166666666,64.2925461707016
1373652376.25,0.1943234583333333,26.7475,103.56166671360002,0.09830729166666667,64.27115684308744
1373652376.5,0.19635216666666666,26.749166666666667,103.47000000000001,0.09361979166666666,64.2497675154733
1373652376.75,0.19656574999999998,26.75,103.37833328640001,0.11067708333333333,64.22837818785912
1373652377.0,0.196405625,26.75,103.28666666666668,0.11963541666666666,64.20698886024498
1373652377.25,0.19619212500000002,26.75,103.19916671146667,0.12598958333333335,64.18535597108384
1373652377.5,0.195978625,26.75,103.11166666666668,0.138359375,64.16664030942144
1373652377.75,0.19576512499999998,26.75,103.02416662186667,0.14122395833333334,64.15727665041696
1373652378.0,0.195551625,26.75,102.93666666666667,0.12174479166666667,64.15654640912587
1373652378.25,0.19533812500000003,26.75,102.85500004181334,0.09166666666666667,64.15321523444464
1373652378.5,0.19512462499999997,26.75,102.77333333333334,0.07083333333333333,64.15187483115065
1373652378.75,0.19496449999999999,26.750833333333333,102.69166662485333,0.064453125,64.15187483115064
1373652379.0,0.19485775000000002,26.7525,102.61,0.04716145833333334,64.15187483115065
1373652379.25,0.19480437500000003,26.754166666666666,102.52583337642666,0.03281250000000001,64.15187483115065
1373652379.5,0.194751,26.75583333333333,102.44166666666666,0.03229166666666667,64.15187483115064
1373652379.75,0.19469758333333334,26.757500000000004,102.35749995690666,-0.00528645833333333,64.15187483115065
1373652380.0,0.19459075,26.75916666666667,102.27333333333333,-0.06554687499999999,64.15402508452567
1373652380.25,0.19453733333333334,26.760833333333334,102.18000004778666,-0.11557291666666665,64.16011057640131
1373652380.5,0.19448391666666667,26.7625,102.08666666666666,-0.16960937499999998,64.16327525071652
1373652380.75,0.19448391666666667,26.764166666666668,101.99333328554665,-0.22997395833333334,64.16676457517907
1373652381.0,0.19453729166666667,26.765833333333333,101.89999999999999,-0.28434895833333335,64.16692690025273
1373652381.25,0.19459066666666666,26.7675,101.79750005247999,-0.3559114583333334,64.17021748134279
1373652381.5,0.1946974166666667,26.769166666666667,101.695,-0.4010416666666667,64.16619701283834
1373652381.75,0.1948575416666667,26.77,101.59249994752,-0.4425260416666666,64.16034869206058
1373652382.0,0.19507104166666667,26.77,101.49,-0.44328125,64.15267076745646
1373652382.25,0.19528454166666664,26.77,101.38833338538666,-0.38684895833333327,64.14096771443438
1373652382.5,0.19555141666666667,26.77,101.28666666666666,-0.37309895833333334,64.12926466141231
1373652382.75,0.19592508333333333,26.770833333333332,101.18499994794666,-0.3179427083333333,64.11756160839023
1373652383.0,0.19635216666666666,26.772499999999997,101.08333333333333,-0.2300520833333333,64.10370830199314
1373652383.25,0.1967258333333333,26.77416666666667,100.97916672,-0.19057291666666665,64.0861633186424
1373652383.5,0.19709949999999998,26.775833333333328,100.875,-0.16499999999999998,64.07056535001404
1373652383.75,0.19741975,26.7775,100.77083328,-0.13195312499999998,64.05537297252941
1373652384.0,0.197686625,26.77916666666667,100.66666666666667,-0.08664062499999999,64.04350759443368
1373652384.25,0.197900125,26.780833333333334,100.55833338880001,-0.02130208333333333,64.03184513500277
1373652384.5,0.19806024999999997,26.7825,100.45,0.01481770833333334,64.02550295377914
1373652384.75,0.198113625,26.785,100.3416666112,0.046067708333333346,64.01964822153484
1373652385.0,0.198113625,26.788333333333338,100.23333333333333,0.047994791666666675,64.01562309311689
1373652385.25,0.198113625,26.791666666666668,100.13083338581333,-0.00486979166666666,64.01562309311689
1373652385.5,0.19806025000000002,26.794999999999998,100.02833333333334,-0.026953124999999994,64.01562309311689
1373652385.75,0.1979535,26.7975,99.92583328085334,-0.06791666666666667,64.01562309311689
1373652386.0,0.19784675,26.799166666666665,99.82333333333334,-0.115703125,64.01562309311689
1373652386.25,0.19774,26.80083333333333,99.73500004522667,-0.11901041666666667,64.01562309311689
1373652386.5,0.19763324999999998,26.8025,99.64666666666666,-0.11786458333333334,64.01562309311689
1373652386.75,0.19752649999999997,26.804166666666664,99.55833328810665,-0.10447916666666666,64.01562309311689
1373652387.0,0.19741974999999998,26.80583333333333,99.46999999999998,-0.08765624999999999,64.01562309311689
1373652387.25,0.197366375,26.8075,99.39333337258665,-0.07291666666666666,64.01562309311689
1373652387.5,0.197313,26.809166666666666,99.31666666666666,-0.05723958333333334,64.01562309311689
1373652387.75,0.19725962499999997,26.81083333333333,99.23999996074667,-0.04539062499999999,64.01562309311689
1373652388.0,0.197152875,26.812499999999996,99.16333333333334,-0.027760416666666662,64.01562309311689
1373652388.25,0.19709949999999998,26.814166666666665,99.08500004010668,-0.01059895833333333,64.01562309311689
1373652388.5,0.19704612499999996,26.815833333333334,99.00666666666667,0.005989583333333336,64.01562309311689
1373652388.75,0.19699274999999997,26.8175,98.92833329322667,0.023750000000000004,64.01562309311689
1373652389.0,0.196939375,26.819166666666664,98.85000000000001,0.028671875000000003,64.01562309311689
1373652389.25,0.196886,26.820833333333336,98.77166670677335,0.02294270833333334,64.01562309311689
1373652389.5,0.19683262499999998,26.8225,98.69333333333334,0.026875000000000007,64.01562309311689
1373652389.75,0.19683262499999998,26.824166666666667,98.61499995989334,0.021406250000000005,64.01562309311689
1373652390.0,0.19677925,26.825833333333332,98.53666666666668,0.015572916666666667,64.01562309311689
1373652390.25,0.19677925,26.8275,98.45916670634668,0.010390625000000002,64.01562309311689
1373652390.5,0.19677925,26.829166666666666,98.38166666666667,0.004218750000000003,64.01562309311689
1373652390.75,0.19683262499999998,26.829166666666666,98.30416662698667,0.0014322916666666687,64.01562309311689
1373652391.0,0.196939375,26.8275,98.22666666666667,-0.006640624999999998,64.01562309311689
1373652391.25,0.19699275000000002,26.825833333333332,98.14916670634668,-0.0146875,64.01562309311689
1373652391.5,0.197046125,26.824166666666667,98.07166666666667,-0.019843749999999997,64.01562309311689
1373652391.75,0.1970995,26.824166666666667,97.99416662698667,-0.025104166666666664,64.01562309311689
1373652392.0,0.197152875,26.825833333333335,97.91666666666667,-0.01809895833333333,64.01562309311689
1373652392.25,0.19720625,26.827499999999997,97.84083337216,-0.0039843749999999975,64.01562309311689
1373652392.5,0.19725962499999997,26.829166666666666,97.765,0.007421875000000004,64.01562309311689
1373652392.75,0.19725962500000002,26.83,97.68916662784,0.014375000000000004,64.01562309311689
1373652393.0,0.197313,26.830000000000002,97.61333333333333,0.01338541666666667,64.01562309311689
1373652393.25,0.19725962499999997,26.83,97.54250003626666,0.011692708333333336,64.01562309311689
1373652393.5,0.19720625,26.83,97.47166666666666,0.014401041666666671,64.01562309311689
1373652393.75,0.1970995,26.831666666666667,97.40083329706665,0.015520833333333336,64.01562309311689
1373652394.0,0.19699274999999997,26.834999999999997,97.32999999999998,0.019348958333333336,64.01562309311689
1373652394.25,0.196886,26.838333333333335,97.25916670293333,0.0246875,64.01562309311689
1373652394.5,0.19677925,26.841666666666665,97.18833333333333,0.02427083333333334,64.01562309311689
1373652394.75,0.1966725,26.843333333333334,97.11749996373332,0.021848958333333335,64.01562309311689
1373652395.0,0.19656574999999998,26.843333333333334,97.04666666666667,0.008567708333333335,64.01562309311689
1373652395.25,0.19645900000000002,26.843333333333334,96.96833337344,-0.010494791666666664,64.01562309311689
1373652395.5,0.19635224999999998,26.843333333333334,96.89,-0.0271875,64.01562309311689
1373652395.75,0.1962455,26.844166666666666,96.81166662656,-0.03372395833333333,64.01562309311689
1373652396.0,0.19613875000000003,26.84583333333333,96.73333333333333,-0.027031249999999996,64.01562309311689
1373652396.25,0.196085375,26.8475,96.64833337685333,-0.013880208333333331,64.01562309311689
1373652396.5,0.196032,26.849166666666665,96.56333333333333,-0.006770833333333331,64.01562309311689
1373652396.75,0.196032,26.85,96.47833328981334,-0.003697916666666664,64.01562309311689
1373652397.0,0.196032,26.85,96.39333333333333,-0.01419270833333333,64.0050630379404
1373652397.25,0.196032,26.85,96.30416671232,-0.03661458333333333,63.98092576896561
1373652397.5,0.196032,26.85,96.215,-0.05026041666666666,63.95678849999081
1373652397.75,0.196032,26.850833333333338,96.12583328768001,-0.05958333333333333,63.932651231016
1373652398.0,0.196032,26.852500000000003,96.03666666666668,-0.049921875,63.908513962041205
1373652398.25,0.196032,26.854166666666668,95.94500004693334,-0.054453125,63.88437669306641
1373652398.5,0.196032,26.855833333333333,95.85333333333334,-0.05966145833333333,63.86023942409161
1373652398.75,0.196032,26.857499999999998,95.76166661973333,-0.07442708333333332,63.836102155116805
1373652399.0,0.196032,26.859166666666667,95.67,-0.09963541666666668,63.81196488614199
1373652399.25,0.196032,26.860833333333332,95.57250004992001,-0.13145833333333334,63.7878276171672
1373652399.5,0.196032,26.8625,95.47500000000001,-0.14919270833333334,63.7636903481924
1373652399.75,0.196032,26.864166666666666,95.37749995008001,-0.14557291666666666,63.73955307921759
1373652400.0,0.196032,26.86583333333333,95.28000000000002,-0.12369791666666667,63.72899302404113
1373652400.25,0.196032,26.867500000000003,95.18416671573334,-0.09153645833333333,63.74465285769529
1373652400.5,0.196032,26.86916666666667,95.08833333333334,-0.06486979166666666,63.785595490365544
1373652400.75,0.196032,26.870833333333334,94.99249995093334,-0.04658854166666666,63.83521545479221
1373652401.0,0.196032,26.8725,94.89666666666666,-0.03846354166666666,63.87450225864683
1373652401.25,0.195978625,26.87416666666667,94.80500004693333,-0.005052083333333328,63.91707594711744
1373652401.5,0.19592525000000002,26.875833333333336,94.71333333333334,0.030390625000000008,63.96009535366061
1373652401.75,0.1958185,26.8775,94.62166661973335,0.07651041666666668,64.00538384098466
1373652402.0,0.19571175000000005,26.879166666666666,94.53000000000002,0.1271875,64.0470660933102
1373652402.25,0.195605,26.88083333333334,94.45000004096,0.18747395833333336,64.08874834563574
1373652402.5,0.19549824999999998,26.882500000000004,94.37,0.24255208333333333,64.13043059796126
1373652402.75,0.19533808333333336,26.88416666666667,94.28999995904,0.29510416666666667,64.1721128502868
1373652403.0,0.1951245,26.885833333333334,94.21,0.349140625,64.21401944175281
1373652403.25,0.19491091666666668,26.887500000000003,94.14500003328,0.4027083333333334,64.25510375387005
1373652403.5,0.1946973333333333,26.889166666666668,94.08,0.4575520833333333,64.27139077081084
1373652403.75,0.19448375000000004,26.890833333333333,94.01499996672,0.5234375,64.27900045599519
1373652404.0,0.1942167916666667,26.892500000000002,93.95,0.5559375,64.29694330175161
1373652404.25,0.19400320833333332,26.894166666666663,93.90583335594667,0.5303645833333334,64.31159926289203
1373652404.5,0.19384300000000002,26.895833333333332,93.86166666666666,0.4540625,64.3258095059599
1373652404.75,0.19373616666666668,26.897499999999997,93.81749997738666,0.3659375,64.33775066824687
1373652405.0,0.19362933333333332,26.89916666666667,93.77333333333333,0.296796875,64.35329806553237
1373652405.25,0.19352250000000001,26.900833333333335,93.74416668159999,0.230625,64.36884546281787
1373652405.5,0.19341566666666668,26.9025,93.71499999999999,0.14875000000000002,64.38439286010338
1373652405.75,0.19336224999999999,26.90416666666667,93.68583331839999,0.05143229166666668,64.39994025738888
1373652406.0,0.19336224999999999,26.905833333333334,93.65666666666665,-0.05223958333333333,64.41224615691203
1373652406.25,0.19336224999999999,26.9075,93.63416667818666,-0.1425,64.41273166075166
1373652406.5,0.19336225000000004,26.909166666666664,93.61166666666665,-0.2197916666666667,64.41273166075166
1373652406.75,0.19341566666666665,26.91,93.58916665514666,-0.31140625,64.41273166075166
1373652407.0,0.19352245833333334,26.91,93.56666666666666,-0.3602604166666667,64.41273166075166
1373652407.25,0.19368266666666667,26.91,93.55250000725333,-0.355390625,64.41273166075166
1373652407.5,0.19378949999999998,26.91,93.53833333333333,-0.30265625,64.41273166075166
1373652407.75,0.19384291666666667,26.910833333333333,93.52416665941334,-0.24153645833333334,64.41273166075166
1373652408.0,0.19384291666666667,26.912499999999998,93.51,-0.20554687500000002,64.41273166075166
1373652408.25,0.19389633333333334,26.914166666666663,93.50250000384,-0.18182291666666664,64.41273166075166
1373652408.5,0.19394975,26.915833333333335,93.495,-0.14802083333333332,64.41273166075166
1373652408.75,0.19400316666666664,26.9175,93.48749999616001,-0.11270833333333334,64.41273166075166
1373652409.0,0.19411,26.91916666666667,93.48,-0.07596354166666668,64.41273166075166
1373652409.25,0.1941634166666667,26.920833333333334,93.48583333034667,-0.05067708333333334,64.41273166075166
1373652409.5,0.19427024999999998,26.922500000000003,93.49166666666667,-0.0384375,64.41273166075166
1373652409.75,0.19432366666666667,26.924166666666665,93.49750000298667,-0.00942708333333333,64.40310384778596
1373652410.0,0.19437708333333334,26.92583333333333,93.50333333333333,0.0033333333333333357,64.35175551196885
1373652410.25,0.19437708333333337,26.9275,93.52333332309333,0.00940104166666667,64.3036164471403
1373652410.5,0.19437708333333334,26.929166666666664,93.54333333333332,0.015859375000000005,64.25226811132319
1373652410.75,0.19443049999999998,26.930833333333336,93.56333334357333,0.01416666666666667,64.21375685946036
1373652411.0,0.19453733333333334,26.9325,93.58333333333333,0.015703125000000002,64.19450123352894
1373652411.25,0.19459075000000003,26.934166666666666,93.61583331669333,0.019843750000000004,64.14315289771183
1373652411.5,0.19469754166666667,26.935833333333335,93.64833333333333,0.02802083333333334,64.11747872980327
1373652411.75,0.19485770833333335,26.9375,93.68083334997333,0.03111979166666667,64.08217674892902
1373652412.0,0.19496445833333334,26.939166666666665,93.71333333333332,0.026796875,64.05650258102045
1373652412.25,0.19512462499999997,26.94083333333333,93.75083331413333,0.027656250000000004,64.0212006001462
1373652412.5,0.195231375,26.9425,93.78833333333333,0.02807291666666667,64.0212006001462
