timestamp,EDA,TEMP,HR,BVP,ACC_mag
1372871797.0,0.2068605,31.75,,11.168333333333335,64.70703207534712
1372871797.25,0.2070435,31.75,,10.560714285714285,64.70703207534712
1372871797.5,0.2072608125,31.75,,10.16421875,64.70703207534712
1372871797.75,0.2074298333333333,31.74777777777778,,10.292083333333332,64.70703207534712
1372871798.0,0.20762904999999998,31.744,,10.174468749999999,64.70703207534712
1372871798.25,0.20779204545454544,31.74090909090909,,9.599375,64.70703207534712
1372871798.5,0.20792787499999998,31.738333333333333,,9.097786458333333,64.70582398867334
1372871798.75,0.20824808333333333,31.735,,9.19359375,64.6957511702757
1372871799.0,0.20851491666666666,31.73166666666667,,9.328932291666666,64.67962886942654
1372871799.25,0.20872837499999997,31.728333333333335,,8.615416666666667,64.66350656857738
1372871799.5,0.208835125,31.724999999999998,,7.236328125,64.64738426772823
1372871799.75,0.20894187499999997,31.721666666666668,,6.483255208333333,64.63126196687908
1372871800.0,0.20894187500000003,31.718333333333334,,6.5109375,64.61513966602992
1372871800.25,0.20878175000000002,31.715,,6.808854166666666,64.59901736518076
1372871800.5,0.20856824999999998,31.71166666666667,,7.0621093749999995,64.58289506433161
1372871800.75,0.20835475,31.71,,6.938072916666667,64.56677276348245
1372871801.0,0.20803454166666668,31.71,,6.909661458333333,64.5506504626333
1372871801.25,0.20771433333333333,31.71,,7.315546875,64.53452816178414
1372871801.5,0.20734075,31.71,,7.621718749999999,64.51961394760875
1372871801.75,0.20696716666666667,31.71,,7.406588541666667,64.51356446515724
1372871802.0,0.20659358333333333,31.71,,7.0415625,64.51356446515724
1372871802.25,0.20616662500000002,31.71,,7.037838541666666,64.51356446515724
1372871802.5,0.20579299999999998,31.71,,7.171171875,64.51356446515724
1372871802.75,0.205419375,31.709166666666665,,7.136796875000001,64.51356446515724
1372871803.0,0.20509912499999997,31.7075,,6.520338541666667,64.51356446515724
1372871803.25,0.204885625,31.705833333333334,,5.547786458333333,64.51356446515724
1372871803.5,0.204672125,31.704166666666666,,4.572890624999999,64.51356446515724
1372871803.75,0.204458625,31.7025,,3.4523437500000003,64.51356446515724
1372871804.0,0.20429849999999997,31.700833333333332,,2.168671875,64.51356446515724
1372871804.25,0.204138375,31.699166666666667,,0.92609375,64.51356446515724
1372871804.5,0.20397825000000003,31.6975,,-0.23302083333333343,64.51356446515724
1372871804.75,0.20376475000000002,31.694999999999997,,-1.2134895833333335,64.51356446515724
1372871805.0,0.20355125,31.691666666666666,,-2.0197395833333336,64.51356446515724
1372871805.25,0.203391125,31.688333333333336,,-2.5525781249999997,64.51356446515724
1372871805.5,0.20323099999999997,31.685000000000002,,-3.034453125,64.51356446515724
1372871805.75,0.203070875,31.6825,,-3.4934895833333335,64.51356446515724
1372871806.0,0.20291075000000003,31.680833333333336,,-3.6391666666666667,64.51356446515724
1372871806.25,0.20269724999999997,31.67916666666667,,-3.449401041666667,64.51356446515724
1372871806.5,0.20248375,31.677500000000006,,-3.2552864583333334,64.51356446515724
1372871806.75,0.20227025,31.675833333333333,,-2.8617447916666667,64.51356446515724
1372871807.0,0.202003375,31.674166666666668,63.125,-2.176901041666667,64.51356446515724
1372871807.25,0.201683125,31.672500000000003,63.308749905919996,-1.52703125,64.51356446515724
1372871807.5,0.20141624999999996,31.670833333333334,63.49249999999999,-0.841953125,64.51356446515724
1372871807.75,0.20120274999999999,31.67,63.67625009408,-0.19070312500000006,64.51356446515724
1372871808.0,0.20093591666666666,31.67,63.85999999999999,0.39177083333333335,64.51356446515724
1372871808.25,0.20061574999999998,31.67,64.21416648533332,0.7235677083333333,64.51356446515724
1372871808.5,0.20029558333333333,31.67,64.56833333333333,0.9808333333333333,64.51356446515724
1372871808.75,0.19997541666666666,31.66916666666667,64.92250018133332,1.2445572916666667,64.51356446515724
1372871809.0,0.19970862499999997,31.667500000000004,65.27666666666666,1.3578645833333332,64.51356446515724
1372871809.25,0.19949520833333334,31.665833333333335,65.68499979093333,1.359973958333333,64.51356446515724
1372871809.5,0.19928179166666668,31.664166666666663,66.09333333333333,1.3708854166666666,64.51356446515724
1372871809.75,0.19906837499999996,31.662500000000005,66.50166687573333,1.3789583333333333,64.51356446515724
1372871810.0,0.19890833333333333,31.660833333333333,66.91000000000001,1.3281770833333333,64.51356446515724
1372871810.25,0.19880166666666665,31.659166666666664,67.25749982208,1.2520052083333333,64.51356446515724
1372871810.5,0.19869499999999998,31.6575,67.60500000000002,1.1617447916666668,64.51356446515724
1372871810.75,0.19858833333333334,31.655833333333334,67.95250017792002,1.10359375,64.51356446515724
1372871811.0,0.198535,31.65416666666667,68.30000000000001,1.0220833333333332,64.51356446515724
1372871811.25,0.198535,31.6525,68.66916647765335,0.9483854166666666,64.51356446515724
1372871811.5,0.198481625,31.650833333333328,69.03833333333336,0.903828125,64.51356446515724
1372871811.75,0.19842824999999997,31.65,69.40750018901335,0.8107552083333333,64.51356446515724
1372871812.0,0.1983215,31.65,69.77666666666669,0.6946614583333334,64.51162595616132
1372871812.25,0.19821475,31.65,70.19166645418667,0.6076302083333333,64.50645659883891
1372871812.5,0.19810799999999998,31.65,70.60666666666668,0.5156770833333333,64.50128724151647
1372871812.75,0.197947875,31.649166666666662,71.02166687914668,0.41234375,64.49611788419404
1372871813.0,0.19773437500000002,31.647499999999997,71.43666666666667,0.331015625,64.4909485268716
1372871813.25,0.197520875,31.645833333333332,71.87666644138666,0.25924479166666664,64.48577916954918
1372871813.5,0.19730737500000003,31.644166666666663,72.31666666666666,0.19999999999999998,64.48060981222675
1372871813.75,0.197093875,31.6425,72.75666689194667,0.16820312499999998,64.47544045490432
1372871814.0,0.196880375,31.64083333333333,73.19666666666666,0.124921875,64.47027109758189
1372871814.25,0.19666687500000002,31.639166666666664,73.56916647594666,-0.015286458333333341,64.46510174025946
1372871814.5,0.19650674999999998,31.6375,73.94166666666666,-0.12497395833333334,64.45993238293703
1372871814.75,0.196346625,31.635833333333334,74.31416685738667,-0.14244791666666667,64.45476302561458
1372871815.0,0.19623987499999998,31.63416666666667,74.68666666666667,-0.12028645833333335,64.45153217728807
1372871815.25,0.19623987499999998,31.632500000000004,75.01083316736,-0.11859375,64.45153217728807
1372871815.5,0.19629325,31.63083333333333,75.33500000000001,-0.1315625,64.45153217728807
1372871815.75,0.19640000000000002,31.63,75.65916683264,-0.12018229166666666,64.45153217728807
1372871816.0,0.196560125,31.63,75.98333333333333,-0.09403645833333334,64.45153217728807
1372871816.25,0.19672025,31.63,76.27249985194666,-0.044036458333333334,64.45153217728807
1372871816.5,0.196880375,31.63,76.56166666666667,0.027473958333333336,64.45153217728807
1372871816.75,0.19704049999999998,31.628333333333334,76.85083348138667,0.07177083333333333,64.45153217728807
1372871817.0,0.197093875,31.625,77.14,0.14177083333333332,64.45153217728807
1372871817.25,0.197093875,31.62166666666667,77.41083319466667,0.27372395833333335,64.45153217728807
1372871817.5,0.197093875,31.618333333333336,77.68166666666667,0.358828125,64.45153217728807
1372871817.75,0.197093875,31.615,77.95250013866666,0.40268229166666664,64.45153217728807
1372871818.0,0.197093875,31.611666666666665,78.22333333333333,0.45557291666666666,64.45153217728807
1372871818.25,0.196987125,31.60833333333333,78.47499987114666,0.51953125,64.45153217728807
1372871818.5,0.196827,31.605,78.72666666666666,0.61671875,64.45153217728807
1372871818.75,0.19666687500000002,31.601666666666663,78.97833346218667,0.6976041666666667,64.44971230617212
1372871819.0,0.19650675000000004,31.598333333333333,79.23,0.7375781249999999,64.44971230617212
1372871819.25,0.196346625,31.595,79.47583320746666,0.8054166666666668,64.44971230617212
1372871819.5,0.1961865,31.59166666666667,79.72166666666666,0.863359375,64.44971230617212
1372871819.75,0.19607975,31.589166666666667,79.96750012586668,0.9059895833333335,64.44971230617212
1372871820.0,0.196133125,31.587500000000002,80.21333333333334,0.9124218749999998,64.44971230617212
1372871820.25,0.19623987499999998,31.58583333333333,80.47666653184001,0.9306770833333333,64.44546594023491
1372871820.5,0.19640000000000002,31.584166666666665,80.74000000000001,0.9859635416666666,64.4375798320658
1372871820.75,0.1966135,31.582499999999996,81.00333346816,0.986328125,64.42787385278073
1372871821.0,0.196827,31.58083333333333,81.26666666666667,0.9351822916666666,64.41816787349568
1372871821.25,0.19704050000000004,31.57916666666667,81.51249987413333,0.9328385416666666,64.40846189421062
1372871821.5,0.19725399999999996,31.5775,81.75833333333333,0.8318229166666667,64.39875591492554
1372871821.75,0.1974675,31.575833333333335,82.00416679253334,0.7686979166666666,64.38819727745987
1372871822.0,0.197681,31.574166666666667,82.25,0.779453125,64.37460398283433
1372871822.25,0.19794783333333332,31.5725,82.48333321386667,0.6847395833333333,64.36101068820881
1372871822.5,0.198268,31.57083333333333,82.71666666666667,0.5353385416666666,64.34741739358329
1372871822.75,0.19853479166666665,31.569166666666664,82.95000011946667,0.417265625,64.33382409895775
1372871823.0,0.19869487500000002,31.5675,83.18333333333334,0.29169270833333333,64.32023080433221
1372871823.25,0.198801625,31.565833333333334,83.37666656768,0.20859375,64.31088387564391
1372871823.5,0.19885499999999998,31.56416666666667,83.57,0.121015625,64.30517668918749
1372871823.75,0.198855,31.563333333333336,83.76333343232,0.05835937500000001,64.30128937384701
1372871824.0,0.198855,31.563333333333336,83.95666666666666,0.03479166666666667,64.29740205850655
1372871824.25,0.19885499999999998,31.563333333333333,84.13083324416,-0.04674479166666667,64.29351474316609
1372871824.5,0.198855,31.563333333333333,84.30499999999999,-0.01333333333333333,64.28962742782562
1372871824.75,0.198855,31.5625,84.47916675583998,-0.023932291666666664,64.28841264178172
1372871825.0,0.19885499999999998,31.560833333333335,84.65333333333332,-0.08815104166666667,64.28841264178172
1372871825.25,0.19880166666666665,31.55916666666667,84.76416660991998,-0.07992187499999999,64.28841264178172
1372871825.5,0.19869499999999998,31.5575,84.87499999999999,-0.015182291666666667,64.28841264178172
1372871825.75,0.19858833333333328,31.55666666666667,84.98583339007999,0.026953124999999998,64.28841264178172
1372871826.0,0.198535,31.55666666666667,85.09666666666665,0.12239583333333333,64.28841264178172
1372871826.25,0.198535,31.55666666666667,85.11583332352,0.20648437499999997,64.28841264178172
1372871826.5,0.19858833333333334,31.55666666666667,85.13499999999999,0.29049479166666664,64.29132824575701
1372871826.75,0.19869499999999998,31.554999999999996,85.15416667647999,0.43072916666666666,64.30144348294819
1372871827.0,0.19880166666666665,31.551666666666666,85.17333333333333,0.6404947916666667,64.32218366853333
1372871827.25,0.19896170833333335,31.548333333333332,85.09500004010667,0.8878125,64.34167251902427
1372871827.5,0.199175125,31.545,85.01666666666667,1.106796875,64.36430876484809
1372871827.75,0.19938854166666664,31.5425,84.93833329322666,1.4626822916666666,64.38815514862038
1372871828.0,0.19965533333333332,31.540833333333335,84.86,1.8856510416666667,64.41208219212622
1372871828.25,0.200028875,31.539166666666663,84.75916671829333,2.3061197916666667,64.43600923563206
1372871828.5,0.20050916666666665,31.537500000000005,84.65833333333333,2.750338541666667,64.45993627913789
1372871828.75,0.20098945833333334,31.535833333333333,84.55749994837333,3.2798697916666666,64.48894149529166
1372871829.0,0.20146975,31.534166666666668,84.45666666666666,3.981953125,64.52334338671143
1372871829.25,0.20269720833333335,31.5325,84.36500004693333,4.546171875,64.55718152842327
1372871829.5,0.20525895833333332,31.530833333333334,84.27333333333334,4.759531249999999,64.58319016288145
1372871829.75,0.20856791666666666,31.530833333333334,84.18166661973333,5.122083333333333,64.5973244342009
1372871830.0,0.21203695833333333,31.5325,84.09,4.341380208333334,64.6033323545902
1372871830.25,0.21561275,31.534166666666668,84.03750002688,2.9283333333333332,64.61317006695577
1372871830.5,0.21934866666666664,31.535833333333333,83.985,2.5117447916666666,64.61603262837448
1372871830.75,0.22324466666666667,31.538333333333338,83.93249997312,1.9865104166666672,64.63253893781754
1372871831.0,0.22730075000000002,31.541666666666668,83.88,0.34356770833333333,64.65430820385599
1372871831.25,0.23146358333333336,31.545,83.86083334314667,-1.5189322916666665,64.69532287591174
1372871831.5,0.23567979166666667,31.548333333333332,83.84166666666667,-3.2437239583333337,64.73089524143283
1372871831.75,0.24000275000000001,31.551666666666666,83.82249999018666,-5.959661458333333,64.75244789756842
1372871832.0,0.24432570833333334,31.554999999999996,83.80333333333333,-9.596197916666666,64.76060731694702
1372871832.25,0.247954875,31.558333333333337,83.81416666112,-13.025416666666667,64.7683269672414
1372871832.5,0.25035650000000004,31.561666666666667,83.825,-15.719192708333336,64.78132238770279
1372871832.75,0.2520109166666667,31.565,83.83583333888001,-18.415937500000002,64.80244875760627
1372871833.0,0.25350525,31.56833333333333,83.84666666666668,-19.40328125,64.81046406179865
1372871833.25,0.25478608333333336,31.57166666666667,83.85499999573335,-19.67984375,64.80925500631224
1372871833.5,0.25585341666666667,31.575,83.86333333333334,-21.89973958333334,64.80832844307709
1372871833.75,0.2567606666666667,31.5775,83.87166667093334,-24.319427083333334,64.79254799386909
1372871834.0,0.2574544583333333,31.579166666666666,83.88000000000001,-24.905807291666665,64.77142392833218
1372871834.25,0.25793475,31.580833333333334,83.87000000512,-24.41203125,64.73105445677795
1372871834.5,0.25825491666666667,31.5825,83.86,-24.289244791666665,64.69612729175839
1372871834.75,0.258415,31.581666666666667,83.84999999488,-21.72307291666667,64.67014166347641
1372871835.0,0.25846837500000003,31.578333333333333,83.83999999999999,-17.915807291666667,64.65215259668541
1372871835.25,0.25830825,31.575,83.82000001024,-14.350598958333334,64.63516704868654
1372871835.5,0.2578812916666667,31.57166666666667,83.8,-10.420572916666666,64.61781963379904
1372871835.75,0.25729425,31.5675,83.77999998976,-6.494062500000001,64.5970159993923
1372871836.0,0.2565470833333333,31.562500000000004,83.76,-2.909713541666667,64.58682483323285
1372871836.25,0.25574654166666666,31.5575,83.70666669397333,1.2982031249999997,64.5832795698701
1372871836.5,0.2548392916666667,31.552500000000006,83.65333333333334,6.624088541666666,64.5832795698701
1372871836.75,0.2538787083333333,31.5475,83.59999997269334,12.730989583333333,64.5832795698701
1372871837.0,0.25286475,31.542500000000004,83.54666666666667,17.806562500000002,64.5832795698701
1372871837.25,0.2517440416666667,31.537499999999998,83.47000003925334,22.056822916666672,64.5832795698701
1372871837.5,0.2505165833333333,31.532500000000002,83.39333333333335,27.21427083333333,64.5832795698701
1372871837.75,0.24928908333333333,31.53,83.31666662741334,30.169583333333335,64.5832795698701
1372871838.0,0.24811491666666666,31.53,83.24000000000001,32.83598958333334,64.5832795698701
1372871838.25,0.24699412499999998,31.53,83.13666671957334,35.453593749999996,64.5832795698701
1372871838.5,0.24592670833333333,31.53,83.03333333333333,36.65721354166667,64.5832795698701
1372871838.75,0.24491266666666667,31.53,82.92999994709332,37.911692708333334,64.58122101686101
1372871839.0,0.244005375,31.53,82.82666666666665,38.79544270833333,64.57024206747917
1372871839.25,0.24315150000000005,31.53,82.73000004949333,38.698828125,64.55926311809733
1372871839.5,0.24235099999999998,31.53,82.63333333333333,38.5040625,64.54828416871551
1372871839.75,0.24155045833333333,31.53,82.53666661717332,37.50966145833333,64.53730521933367
1372871840.0,0.24074991666666667,31.53,82.44,36.45622395833333,64.52632626995184
1372871840.25,0.24005612499999998,31.53,82.34833338026667,35.42145833333333,64.51534732057
1372871840.5,0.23941570833333337,31.53,82.25666666666666,33.4121875,64.50436837118816
1372871840.75,0.23877529166666667,31.53,82.16499995306665,31.907604166666662,64.49338942180633
1372871841.0,0.23818825,31.53,82.07333333333332,30.270963541666664,64.48241047242449
1372871841.25,0.23770795833333333,31.53,81.99666670591999,28.726145833333334,64.47143152304265
1372871841.5,0.23728104166666666,31.53,81.91999999999999,27.755546874999997,64.46045257366082
1372871841.75,0.23690750000000002,31.53,81.84333329408,26.507526041666665,64.45153217728807
1372871842.0,0.23658733333333334,31.53,81.76666666666667,24.737109375000003,64.45153217728807
1372871842.25,0.23632049999999996,31.53,81.70000003413334,23.271250000000006,64.45153217728807
1372871842.5,0.23610700000000004,31.53,81.63333333333333,21.91934895833333,64.45153217728807
1372871842.75,0.235946875,31.53,81.56666663253333,20.21307291666667,64.45153217728807
1372871843.0,0.23584012499999998,31.53,81.5,19.2571875,64.45153217728807
1372871843.25,0.235733375,31.53,81.44166669653333,18.387291666666666,64.45153217728807
1372871843.5,0.23568,31.53,81.38333333333333,17.078854166666666,64.45153217728807
1372871843.75,0.23568,31.53,81.32499997013333,16.508723958333334,64.45153217728807
1372871844.0,0.23568,31.53,81.26666666666667,15.941796875,64.45153217728807
1372871844.25,0.235626625,31.53,81.21333336064,14.855937500000001,64.45153217728807
1372871844.5,0.23551987499999996,31.53,81.16,14.221484375000001,64.45153217728807
1372871844.75,0.23535974999999998,31.53,81.10666663936,13.864192708333334,64.45120885912492
1372871845.0,0.23514625,31.53,81.05333333333333,14.103125,64.45120885912492
1372871845.25,0.23493275000000002,31.53,81.01916668416,14.541796875000001,64.45023890463547
1372871845.5,0.234665875,31.53,80.98499999999999,14.841197916666665,64.44926895014602
1372871845.75,0.234345625,31.53,80.95083331583999,15.686510416666666,64.44926895014602
1372871846.0,0.234025375,31.53,80.91666666666666,15.741927083333332,64.44829899565657
1372871846.25,0.23365175000000002,31.53,80.90666667178665,15.895781249999999,64.44587410943294
1372871846.5,0.23322474999999998,31.53,80.89666666666666,17.035442708333335,64.44053587679765
1372871846.75,0.23279775,31.53,80.88666666154667,17.083489583333332,64.4296942695022
1372871847.0,0.23237075,31.53,80.87666666666667,17.294531250000002,64.41610097487667
1372871847.25,0.231997125,31.53,80.88749999445334,18.490729166666664,64.40250768025113
1372871847.5,0.231676875,31.53,80.89833333333334,18.833203125,64.38891438562561
1372871847.75,0.23141,31.53,80.90916667221333,18.769296875,64.37564440916323
1372871848.0,0.2311965,31.53,80.92,18.90263020833333,64.3620511145377
1372871848.25,0.23098300000000002,31.53,80.9324999936,18.57815104166667,64.34942777440163
1372871848.5,0.230822875,31.53,80.94500000000001,18.08234375,64.33874691893696
1372871848.75,0.23071612500000002,31.53,80.95750000640001,17.535104166666667,64.32644861409237
1372871849.0,0.230609375,31.53,80.97000000000001,17.289401041666668,64.31645568046021
1372871849.25,0.230556,31.53,80.97749999616,16.799921875,64.30593476694878
1372871849.5,0.230556,31.53,80.98500000000001,16.270989583333332,64.30427593468939
1372871849.75,0.230556,31.53,80.99250000384001,16.711927083333332,64.30722965935645
1372871850.0,0.230556,31.53,81.0,16.798515625,64.32324597356161
1372871850.25,0.230609375,31.53,81.00333333162666,16.204765625,64.35920861121718
1372871850.5,0.23066275000000003,31.53,81.00666666666666,15.985546874999999,64.40988666826321
1372871850.75,0.23124983333333335,31.53,81.01000000170666,14.696901041666669,64.4553448782306
1372871851.0,0.23274420833333334,31.53,81.01333333333332,12.221692708333334,64.49859440675534
1372871851.25,0.23471891666666667,31.53,81.01333333333332,11.554114583333332,64.54184393528008
1372871851.5,0.23685375,31.53,81.01333333333332,9.725364583333333,64.5831509791334
1372871851.75,0.2389885833333333,31.53,81.01333333333332,7.187552083333333,64.62510551787722
1372871852.0,0.24112341666666667,31.53,81.01333333333332,5.165729166666667,64.66572463989803
1372871852.25,0.24325825,31.53,81.00833333589333,3.091614583333333,64.70675925018723
1372871852.5,0.24539308333333332,31.53,81.00333333333333,0.10463541666666647,64.7414834125564
1372871852.75,0.24752791666666665,31.53,80.99833333077332,-3.2407552083333333,64.77709839265928
1372871853.0,0.249609375,31.53,80.99333333333333,-6.5978125,64.79274585292343
1372871853.25,0.2514773333333334,31.53,80.98500000426665,-9.593854166666667,64.78780321522845
1372871853.5,0.25329191666666667,31.53,80.97666666666666,-11.052083333333334,64.76814515814303
1372871853.75,0.2544660416666667,31.53,80.96833332906667,-10.211510416666668,64.75370694813623
1372871854.0,0.2546795,31.53,80.96,-8.438645833333334,64.74147741957208
1372871854.25,0.254412625,31.53,80.95166667093332,-8.409921875,64.72924789100794
1372871854.5,0.25398562500000005,31.53,80.94333333333333,-6.516770833333333,64.7170183624438
1372871854.75,0.25350525,31.53,80.93499999573334,-3.69,64.70478883387965
1372871855.0,0.2528647916666667,31.53,80.92666666666666,-0.39028645833333336,64.6925593053155
1372871855.25,0.25206425,31.53,80.92166666922667,3.293333333333333,64.68189720009643
1372871855.5,0.25115695833333335,31.53,80.91666666666667,7.506015625000001,64.67159680795699
1372871855.75,0.2501962916666667,31.53,80.91166666410668,11.212682291666667,64.66129641581756
1372871856.0,0.24928899999999998,31.53,80.90666666666668,15.450859375,64.66065264130884
1372871856.25,0.2484350833333333,31.53,80.90500000085335,19.59963541666667,64.66065264130884
1372871856.5,0.2475277916666667,31.53,80.90333333333334,21.664583333333336,64.66065264130884
1372871856.75,0.24672725000000004,31.52916666666667,80.90166666581334,22.931484375,64.66065264130884
1372871857.0,0.24592670833333333,31.5275,80.9,24.511041666666667,64.66065264130884
1372871857.25,0.24501941666666668,31.525833333333335,80.9,25.656901041666668,64.66065264130884
1372871857.5,0.24405875,31.524166666666662,80.9,26.237916666666663,64.66065264130884
1372871857.75,0.24309812500000003,31.523333333333337,80.9,26.676015625,64.66065264130884
1372871858.0,0.242190875,31.52333333333333,80.9,25.733359375000003,64.66065264130884
1372871858.25,0.24139033333333335,31.523333333333337,80.89916666709334,24.66057291666667,64.66065264130884
1372871858.5,0.24069654166666665,31.52333333333333,80.89833333333334,24.0865625,64.66065264130884
1372871858.75,0.24000275000000001,31.523333333333337,80.89749999957333,23.475312499999998,64.66065264130884
1372871859.0,0.23920220833333336,31.52333333333333,80.89666666666666,22.485781250000002,64.66065264130884
1372871859.25,0.23840166666666665,31.523333333333337,80.88416667306666,22.005130208333338,64.66065264130884
1372871859.5,0.2376545,31.52333333333333,80.87166666666667,21.69796875,64.66065264130884
1372871859.75,0.23685395833333334,31.52416666666667,80.85916666026668,20.84359375,64.66065264130884
1372871860.0,0.23605341666666665,31.525833333333335,80.84666666666668,20.325703125,64.66065264130884
1372871860.25,0.235359625,31.527500000000003,80.82250001237334,20.214166666666667,64.66065264130884
1372871860.5,0.23471920833333335,31.52916666666667,80.79833333333335,19.616796875000002,64.66065264130884
1372871860.75,0.234132125,31.53,80.77416665429334,19.646484375000004,64.66065264130884
1372871861.0,0.233598375,31.53,80.75,19.946119791666668,64.66065264130884
1372871861.25,0.233064625,31.53,80.71666668373334,19.57830729166667,64.66065264130884
1372871861.5,0.232530875,31.53,80.68333333333334,19.120546875000002,64.66065264130884
1372871861.75,0.231997125,31.53,80.64999998293332,18.821640625,64.66065264130884
1372871862.0,0.23151674999999997,31.53,80.61666666666666,17.954348958333334,64.66065264130884
1372871862.25,0.231143125,31.53,80.58750001493333,17.018385416666668,64.66065264130884
1372871862.5,0.23076954166666666,31.53,80.55833333333334,16.942552083333332,64.66065264130884
1372871862.75,0.23039599999999996,31.53,80.52916665173333,16.688203124999998,64.66065264130884
1372871863.0,0.23007583333333334,31.53,80.5,15.952604166666667,64.66065264130884
1372871863.25,0.2297556666666667,31.53,80.47750001152,15.699062500000002,64.66065264130884
1372871863.5,0.229382125,31.53,80.455,15.738046875,64.66065264130884
1372871863.75,0.22895520833333335,31.53,80.43249998848,15.161744791666665,64.66065264130884
1372871864.0,0.22858166666666668,31.53,80.41,14.848046875,64.66065264130884
1372871864.25,0.2282615,31.53,80.3975000064,15.003880208333333,64.66065264130884
1372871864.5,0.22794133333333336,31.53,80.38499999999999,14.982421875,64.66065264130884
1372871864.75,0.22767454166666667,31.53,80.3724999936,15.29953125,64.66065264130884
1372871865.0,0.22746112500000001,31.53,80.36,16.250364583333333,64.66065264130884
1372871865.25,0.22724770833333338,31.53,80.37083332778667,16.705390625,64.66065264130884
1372871865.5,0.22708762500000002,31.53,80.38166666666666,16.696901041666667,64.66065264130884
1372871865.75,0.22703425000000002,31.53,80.39250000554667,17.30296875,64.66065264130884
1372871866.0,0.22703425000000002,31.53,80.40333333333334,17.735807291666667,64.66065264130884
1372871866.25,0.22703425,31.53,80.43749998250667,17.772526041666666,64.66065264130884
1372871866.5,0.22708762500000002,31.53,80.47166666666666,18.153593750000002,64.66065264130884
1372871866.75,0.22719437499999998,31.53,80.50583335082668,18.659791666666667,64.66065264130884
1372871867.0,0.227301125,31.53,80.54,19.097135416666667,64.66065264130884
1372871867.25,0.227407875,31.53,80.58833330858667,19.706302083333334,64.66065264130884
1372871867.5,0.22751462499999997,31.53,80.63666666666667,20.206953125000002,64.66065264130884
1372871867.75,0.22762137500000001,31.52916666666667,80.68500002474667,20.630052083333336,64.66065264130884
1372871868.0,0.22772812500000003,31.527500000000003,80.73333333333333,20.852135416666666,64.66065264130884
1372871868.25,0.22783487500000002,31.525833333333335,80.77499997866667,21.30471354166667,64.66065264130884
1372871868.5,0.22788825000000001,31.52416666666667,80.81666666666666,21.869270833333335,64.66065264130884
1372871868.75,0.227834875,31.522499999999997,80.85833335466666,22.04627604166667,64.66065264130884
1372871869.0,0.22767475,31.52083333333334,80.89999999999999,22.36140625,64.66065264130884
1372871869.25,0.22746124999999998,31.519166666666667,80.93083331754666,22.82557291666667,64.66065264130884
1372871869.5,0.22724775,31.517500000000002,80.96166666666666,22.658125,64.66065264130884
1372871869.75,0.22703425,31.515833333333333,80.99250001578666,22.372838541666667,64.66065264130884
1372871870.0,0.22682075000000002,31.514166666666668,81.02333333333333,22.202630208333336,64.66065264130884
1372871870.25,0.22660725,31.512500000000003,81.03999999146666,21.51356770833333,64.66065264130884
1372871870.5,0.22639375000000003,31.510833333333338,81.05666666666666,20.917473958333332,64.66065264130884
1372871870.75,0.22618024999999997,31.51,81.07333334186666,20.398645833333337,64.66065264130884
1372871871.0,0.22591337499999997,31.51,81.08999999999999,19.9140625,64.66065264130884
1372871871.25,0.22559312499999998,31.51,81.09749999616,19.303046875,64.66065264130884
1372871871.5,0.22532624999999998,31.51,81.10499999999999,18.668645833333333,64.66065264130884
1372871871.75,0.225166125,31.51,81.11250000384,18.407864583333332,64.66065264130884
1372871872.0,0.225006,31.51,81.12,18.002916666666668,64.66065264130884
1372871872.25,0.22489925,31.51,81.11000000512,17.422447916666666,64.66065264130884
1372871872.5,0.22479249999999998,31.51,81.1,17.37458333333333,64.66065264130884
1372871872.75,0.22468575000000002,31.51,81.08999999488,17.454244791666667,64.66065264130884
1372871873.0,0.22457899999999997,31.51,81.08,17.326692708333333,64.66065264130884
1372871873.25,0.22447225,31.51,81.06166667605333,17.561145833333335,64.66065264130884
1372871873.5,0.2243655,31.51,81.04333333333334,17.842317708333336,64.66065264130884
1372871873.75,0.22425874999999998,31.51,81.02499999061334,18.04114583333333,64.66065264130884
1372871874.0,0.22415200000000002,31.51,81.00666666666667,18.3778125,64.66065264130884
1372871874.25,0.22399187499999998,31.51,80.98000001365334,18.657187500000003,64.66065264130884
1372871874.5,0.22372499999999998,31.51,80.95333333333335,18.87572916666667,64.66065264130884
1372871874.75,0.223351375,31.50916666666667,80.92666665301334,18.972161458333336,64.66065264130884
1372871875.0,0.223031125,31.507500000000004,80.9,19.06864583333333,64.66065264130884
1372871875.25,0.222710875,31.50583333333333,80.86833334954667,19.229479166666668,64.66065264130884
1372871875.5,0.22239062499999998,31.504166666666666,80.83666666666667,19.316354166666667,64.66065264130884
1372871875.75,0.22207037500000001,31.502499999999998,80.80499998378666,19.197005208333334,64.66065264130884
1372871876.0,0.22169675,31.500833333333333,80.77333333333333,19.086588541666668,64.66065264130884
1372871876.25,0.22126975000000002,31.499166666666667,80.73750001834667,19.019166666666667,64.66065264130884
1372871876.5,0.22084274999999998,31.497500000000002,80.70166666666667,18.841666666666665,64.66065264130884
1372871876.75,0.22041575000000002,31.495833333333334,80.66583331498667,18.700130208333334,64.66065264130884
1372871877.0,0.22004212499999998,31.49416666666667,80.63000000000001,18.105364583333333,64.66065264130884
1372871877.25,0.21972191666666666,31.492499999999996,80.58833335466667,17.639791666666667,64.66065264130884
1372871877.5,0.219455125,31.49083333333333,80.54666666666667,17.427317708333334,64.66065264130884
1372871877.75,0.21924170833333334,31.49,80.50499997866666,16.596796875,64.66065264130884
1372871878.0,0.21902829166666662,31.49,80.46333333333332,15.985338541666666,64.66065264130884
1372871878.25,0.218814875,31.49,80.41416669184,15.961171875,64.66065264130884
1372871878.5,0.21860145833333333,31.49,80.365,15.622317708333334,64.66065264130884
1372871878.75,0.21838804166666667,31.49,80.31583330816,15.256067708333333,64.66065264130884
1372871879.0,0.21817462500000004,31.49,80.26666666666667,15.257734375,64.66065264130884
1372871879.25,0.21796120833333332,31.49,80.20916669610666,14.946848958333334,64.66065264130884
1372871879.5,0.21769441666666667,31.49,80.15166666666667,14.506067708333333,64.66065264130884
1372871879.75,0.21737425,31.49,80.09416663722668,14.08921875,64.66065264130884
1372871880.0,0.21705408333333334,31.49,80.03666666666668,13.952760416666669,64.66065264130884
1372871880.25,0.21678725000000001,31.49,79.9658333696,13.698984375,64.66065264130884
1372871880.5,0.21657374999999998,31.49,79.89500000000001,13.446041666666666,64.66065264130884
1372871880.75,0.21636025,31.49083333333333,79.8241666304,13.764479166666668,64.66065264130884
1372871881.0,0.21614675000000003,31.492500000000003,79.75333333333333,13.888125000000002,64.66065264130884
1372871881.25,0.21593324999999997,31.49416666666667,79.67833337173333,13.606822916666667,64.66065264130884
1372871881.5,0.21571975,31.495833333333334,79.60333333333332,13.597916666666668,64.66065264130884
1372871881.75,0.21550624999999998,31.4975,79.52833329493333,13.552083333333334,64.66065264130884
1372871882.0,0.21534612499999997,31.499166666666664,79.45333333333333,13.414739583333334,64.66065264130884
1372871882.25,0.21523937499999998,31.500833333333336,79.3741667072,13.527083333333335,64.66065264130884
1372871882.5,0.215132625,31.5025,79.29499999999999,13.962630208333335,64.66065264130884
1372871882.75,0.215025875,31.503333333333334,79.21583329279999,14.826796875,64.66065264130884
1372871883.0,0.214919125,31.503333333333334,79.13666666666666,15.790442708333332,64.66065264130884
1372871883.25,0.21481237499999997,31.50333333333333,79.06166670506666,16.792708333333334,64.66065264130884
1372871883.5,0.214705625,31.50333333333333,78.98666666666665,17.584791666666668,64.66065264130884
1372871883.75,0.21454549999999997,31.502499999999998,78.91166662826666,18.423541666666665,64.66065264130884
1372871884.0,0.214332,31.500833333333333,78.83666666666666,19.303124999999998,64.66065264130884
1372871884.25,0.21411850000000002,31.499166666666667,78.75666670762666,20.15325520833333,64.66065264130884
1372871884.5,0.213905,31.497500000000002,78.67666666666666,21.088281249999998,64.66065264130884
1372871884.75,0.213638125,31.495833333333334,78.59666662570666,22.166640625,64.66065264130884
1372871885.0,0.21337125,31.49416666666667,78.51666666666667,22.973723958333334,64.66065264130884
1372871885.25,0.21310437499999998,31.492499999999996,78.46166669482666,23.79869791666667,64.66065264130884
1372871885.5,0.212890875,31.49083333333333,78.40666666666667,24.538880208333335,64.66065264130884
1372871885.75,0.21273075,31.49,78.35166663850667,24.843880208333335,64.66065264130884
1372871886.0,0.212624,31.49,78.29666666666667,25.148723958333335,64.66065264130884
1372871886.25,0.21251725,31.49,78.26583334912,25.134114583333332,64.66065264130884
1372871886.5,0.21251725,31.49,78.235,24.804114583333334,64.66065264130884
1372871886.75,0.21262400000000004,31.49,78.20416665088,24.817812500000002,64.66065264130884
1372871887.0,0.212890875,31.49,78.17333333333333,24.775234375,64.66065264130884
1372871887.25,0.21321112499999997,31.49,78.18249999530667,24.281302083333333,64.66065264130884
1372871887.5,0.213531375,31.49,78.19166666666666,24.041640625,64.66065264130884
1372871887.75,0.21390499999999998,31.49,78.20083333802667,23.715651041666664,64.66065264130884
1372871888.0,0.21427862499999997,31.49,78.21000000000001,23.120911458333335,64.66065264130884
1372871888.25,0.21465225000000002,31.49,78.22499999232001,22.78630208333333,64.66065264130884
1372871888.5,0.215025875,31.49,78.24,22.312213541666665,64.66065264130884
1372871888.75,0.2153995,31.49,78.25500000768,21.578333333333333,64.66065264130884
1372871889.0,0.21571975,31.49,78.27,21.149505208333334,64.66065264130884
1372871889.25,0.21604,31.49,78.29416665429333,21.07984375,64.66065264130884
1372871889.5,0.2162535,31.49,78.31833333333333,21.300286458333336,64.66065264130884
1372871889.75,0.21641362499999997,31.49083333333333,78.34250001237332,21.303619791666666,64.66065264130884
1372871890.0,0.216467,31.492499999999996,78.36666666666666,21.304739583333333,64.66065264130884
1372871890.25,0.216467,31.49416666666667,78.38249999189333,21.604427083333334,64.66065264130884
1372871890.5,0.216467,31.495833333333334,78.39833333333333,21.650572916666665,64.66065264130884
1372871890.75,0.216467,31.497500000000002,78.41416667477333,21.738619791666668,64.66065264130884
1372871891.0,0.21641362499999997,31.499166666666667,78.42999999999999,22.148203125,64.66065264130884
1372871891.25,0.21630687499999998,31.500833333333333,78.42999999999999,22.152994791666668,64.66065264130884
1372871891.5,0.21614674999999997,31.502499999999998,78.42999999999999,21.966927083333335,64.66065264130884
1372871891.75,0.21593324999999997,31.504166666666666,78.42999999999999,21.930963541666667,64.66065264130884
1372871892.0,0.21571975,31.50583333333333,78.42999999999999,21.329635416666665,64.66065264130884
1372871892.25,0.21550624999999998,31.507500000000004,78.41583334058666,20.246041666666667,64.66065264130884
1372871892.5,0.21529275,31.50916666666667,78.40166666666667,19.21,64.66065264130884
1372871892.75,0.21507924999999997,31.50916666666667,78.38749999274667,18.10966145833333,64.66065264130884
1372871893.0,0.21486575,31.507500000000004,78.37333333333333,16.858828125,64.66065264130884
1372871893.25,0.21465225,31.50583333333333,78.35916667392,15.807708333333332,64.66065264130884
1372871893.5,0.21443874999999998,31.504166666666666,78.345,14.809140625,64.66065264130884
1372871893.75,0.21422525,31.50333333333333,78.33083332608,13.544817708333333,64.66065264130884
1372871894.0,0.214065125,31.50333333333333,78.31666666666666,12.512317708333335,64.66065264130884
1372871894.25,0.213958375,31.503333333333334,78.31500000085333,11.748828125000001,64.66065264130884
1372871894.5,0.213905,31.503333333333334,78.31333333333333,10.960286458333334,64.66065264130884
1372871894.75,0.213905,31.5025,78.31166666581333,10.539322916666666,64.66065264130884
1372871895.0,0.21385162500000002,31.500833333333336,78.31,10.539401041666666,64.66065264130884
1372871895.25,0.21385162500000002,31.499166666666664,78.31833332906666,10.958203124999999,64.66065264130884
1372871895.5,0.21379825000000005,31.4975,78.32666666666665,11.689088541666669,64.66065264130884
1372871895.75,0.21369150000000003,31.4975,78.33500000426666,12.612604166666669,64.66065264130884
1372871896.0,0.21358475000000002,31.499166666666664,78.34333333333332,13.906432291666667,64.66065264130884
1372871896.25,0.21347800000000003,31.500833333333336,78.37083331925332,15.448723958333334,64.66065264130884
1372871896.5,0.21337125,31.5025,78.39833333333333,16.61854166666667,64.66065264130884
1372871896.75,0.21321112500000003,31.503333333333334,78.42583334741333,17.879479166666666,64.66016926221427
1372871897.0,0.21305100000000002,31.503333333333334,78.45333333333333,18.982395833333335,64.65823574583597
1372871897.25,0.21289087500000003,31.50333333333333,78.49499997866667,19.855911458333335,64.65630222945767
1372871897.5,0.21273075,31.503333333333334,78.53666666666666,20.896015625,64.65436871307936
1372871897.75,0.212570625,31.504166666666666,78.57833335466667,21.324635416666666,64.65243519670106
1372871898.0,0.21251725,31.50583333333333,78.62,21.74036458333333,64.65050168032276
1372871898.25,0.21241049999999997,31.507500000000004,78.67666663765333,22.360052083333333,64.64856816394447
1372871898.5,0.21257062499999999,31.50916666666667,78.73333333333332,22.07283854166667,64.64663464756617
1372871898.75,0.212890875,31.51,78.79000002901333,21.786979166666665,64.64470113118787
1372871899.0,0.2132645,31.51,78.84666666666665,21.58338541666667,64.64276761480957
1372871899.25,0.21374483333333336,31.51,78.89999997269332,20.30138020833333,64.64083409843127
1372871899.5,0.2142251666666667,31.51,78.95333333333332,19.67190104166667,64.63890058205297
1372871899.75,0.21481220833333334,31.51,79.00666669397332,19.496796874999998,64.63745044476924
1372871900.0,0.21539925000000001,31.51,79.05999999999999,18.8240625,64.63745044476924
1372871900.25,0.21598629166666664,31.51,79.1099999744,18.144296875,64.63745044476924
1372871900.5,0.21657333333333337,31.51,79.16,17.831692708333332,64.63745044476924
1372871900.75,0.217160375,31.51,79.2100000256,17.857630208333333,64.63745044476924
1372871901.0,0.2176940416666667,31.51,79.26,17.680208333333333,64.63745044476924
1372871901.25,0.21817437500000003,31.51,79.30166664533334,17.249296875,64.63745044476924
1372871901.5,0.21844120833333336,31.51,79.34333333333333,17.599036458333334,64.63745044476924
1372871901.75,0.21854795833333332,31.51,79.38500002133333,17.501197916666666,64.63745044476924
1372871902.0,0.21860133333333331,31.51,79.42666666666666,17.037265625,64.63745044476924
1372871902.25,0.218548,31.51,79.46499998037334,17.5740625,64.63745044476924
1372871902.5,0.218548,31.51,79.50333333333333,17.431197916666665,64.63745044476924
1372871902.75,0.21844133333333335,31.508333333333336,79.54166668629333,17.06127604166667,64.63745044476924
1372871903.0,0.21833466666666665,31.505000000000006,79.58,17.48640625,64.63745044476924
1372871903.25,0.218228,31.501666666666665,79.6174999808,17.877395833333335,64.63745044476924
1372871903.5,0.2181213333333333,31.498333333333335,79.655,17.969192708333335,64.63745044476924
1372871903.75,0.2180146666666667,31.495,79.6925000192,18.348359375,64.63745044476924
1372871904.0,0.217908,31.49166666666667,79.73,18.504505208333335,64.63745044476924
1372871904.25,0.21785466666666664,31.488333333333333,79.76749998080001,18.756354166666668,64.63745044476924
1372871904.5,0.2177479583333333,31.485,79.805,19.07255208333333,64.63745044476924
1372871904.75,0.21764120833333334,31.482499999999998,79.8425000192,19.488958333333333,64.63745044476924
1372871905.0,0.21753445833333332,31.480833333333333,79.88000000000001,19.947656249999998,64.63745044476924
1372871905.25,0.21742770833333333,31.479166666666668,79.90499998720001,19.9996875,64.63745044476924
1372871905.5,0.217267625,31.477500000000003,79.93,20.32619791666667,64.6381755134111
1372871905.75,0.2171075,31.477500000000003,79.9550000128,20.521901041666666,64.6401090297894
1372871906.0,0.216894,31.47916666666666,79.98,20.31828125,64.6420425461677
1372871906.25,0.21668049999999997,31.480833333333333,79.98833332906668,20.396901041666666,64.643976062546
1372871906.5,0.216467,31.482499999999998,79.99666666666667,20.236822916666668,64.6459095789243
1372871906.75,0.21625350000000002,31.484166666666667,80.00500000426666,19.599348958333334,64.6478430953026
1372871907.0,0.21603999999999998,31.485833333333332,80.01333333333334,19.63458333333333,64.6497766116809
1372871907.25,0.2158265,31.487499999999997,80.00500000426666,19.549166666666668,64.65171012805921
1372871907.5,0.215666375,31.489166666666662,79.99666666666667,18.940572916666667,64.65364364443751
1372871907.75,0.215559625,31.49083333333333,79.98833332906668,18.77598958333333,64.65557716081581
1372871908.0,0.215452875,31.492499999999996,79.98,18.679322916666667,64.65751067719411
1372871908.25,0.21529275,31.49416666666667,79.97083333802667,18.529661458333333,64.65944419357241
1372871908.5,0.215132625,31.495833333333334,79.96166666666667,18.891197916666666,64.66065264130884
1372871908.75,0.21502587499999995,31.4975,79.95249999530668,19.242708333333333,64.66065264130884
1372871909.0,0.21486575,31.499166666666667,79.94333333333334,19.403098958333334,64.66016926221427
1372871909.25,0.21465225,31.500833333333333,79.93666667008,19.54596354166667,64.65823574583597
1372871909.5,0.21443875,31.5025,79.93,19.919713541666663,64.65630222945767
1372871909.75,0.21417187499999998,31.504166666666666,79.92333332992001,20.318723958333333,64.65436871307936
1372871910.0,0.21385162500000002,31.50583333333333,79.91666666666667,19.989739583333336,64.65243519670106
1372871910.25,0.213531375,31.507500000000004,79.91416666794667,19.78442708333333,64.65050168032276
1372871910.5,0.21321112499999997,31.50916666666667,79.91166666666666,19.82984375,64.64856816394446
1372871910.75,0.212890875,31.508333333333336,79.90916666538666,19.53234375,64.64663464756616
1372871911.0,0.212570625,31.505000000000006,79.90666666666667,19.236666666666668,64.64470113118786
1372871911.25,0.21230375,31.501666666666665,79.90500000085333,18.697109375,64.64276761480956
1372871911.5,0.212036875,31.498333333333335,79.90333333333334,17.773411458333335,64.64083409843127
1372871911.75,0.21176999999999999,31.495,79.90166666581334,17.17802083333333,64.63890058205297
1372871912.0,0.21160987500000003,31.49166666666667,79.9,16.452395833333334,64.63745044476924
1372871912.25,0.21150312500000001,31.488333333333333,79.9,15.738177083333333,64.63745044476924
1372871912.5,0.21139637499999997,31.485,79.9,15.303203125000001,64.63745044476924
1372871912.75,0.211343,31.481666666666666,79.9,14.722916666666668,64.63745044476924
1372871913.0,0.211343,31.478333333333335,79.9,14.916901041666668,64.63745044476924
1372871913.25,0.211343,31.474999999999998,79.89833333418667,15.510911458333334,64.63745044476924
1372871913.5,0.211343,31.471666666666668,79.89666666666668,15.49125,64.63745044476924
1372871913.75,0.211343,31.47,79.89499999914666,15.287916666666668,64.63745044476924
1372871914.0,0.211343,31.47,79.89333333333333,15.686145833333333,64.63829635818475
1372871914.25,0.211396375,31.47,79.88750000298667,16.277604166666666,64.64022987456305
1372871914.5,0.21150312500000001,31.47,79.88166666666666,16.503359375,64.64216339094135
1372871914.75,0.21171662500000002,31.47083333333333,79.87583333034667,16.75299479166667,64.64409690731965
1372871915.0,0.21203687499999999,31.472499999999997,79.87,17.151692708333332,64.64603042369795
1372871915.25,0.212357125,31.474166666666665,79.85916667221333,17.31817708333333,64.64796394007625
1372871915.5,0.21273075,31.47583333333333,79.84833333333333,17.217265625,64.64989745645455
1372871915.75,0.21315775,31.477500000000003,79.83749999445334,17.585598958333335,64.65183097283285
1372871916.0,0.21358475,31.47916666666666,79.82666666666667,17.517890625,64.65328111011658
1372871916.25,0.21401175000000003,31.480833333333333,79.81166667434667,16.674765625,64.65275714067049
1372871916.5,0.214385375,31.482499999999998,79.79666666666667,16.91630208333333,64.6470329083838
1372871916.75,0.214759,31.484166666666667,79.78166665898667,17.431302083333332,64.63800063962026
1372871917.0,0.21507924999999997,31.485833333333332,79.76666666666667,16.6046875,64.62812245744122
1372871917.25,0.21534612500000003,31.487499999999997,79.75000000853333,16.41872395833333,64.61715667229937
1372871917.5,0.21550624999999998,31.489166666666662,79.73333333333333,16.88390625,64.60619088715752
1372871917.75,0.21550624999999998,31.49,79.71666665813333,16.507109375,64.59522510201568
1372871918.0,0.2153995,31.49,79.7,16.846119791666666,64.58425931687384
1372871918.25,0.21529275,31.49,79.68833333930667,16.704583333333336,64.57329353173199
1372871918.5,0.215132625,31.49,79.67666666666666,16.148307291666665,64.56232774659016
1372871918.75,0.21486575,31.49,79.66499999402666,15.597135416666665,64.55136196144831
1372871919.0,0.214598875,31.49,79.65333333333332,14.653411458333332,64.54087955540103
1372871919.25,0.21427862499999997,31.49,79.65166666751999,14.098229166666668,64.53237125608358
1372871919.5,0.21401175000000003,31.49,79.64999999999999,13.091692708333333,64.52906321960671
1372871919.75,0.21374487500000003,31.49,79.64833333248,11.804244791666667,64.52906321960671
1372871920.0,0.213531375,31.49,79.64666666666666,11.461041666666667,64.52906321960671
1372871920.25,0.2132645,31.49,79.66083332608,10.643359375,64.52906321960671
1372871920.5,0.212997625,31.49,79.675,9.347916666666666,64.52906321960671
1372871920.75,0.212784125,31.49,79.68916667392,8.757213541666667,64.52906321960671
1372871921.0,0.212570625,31.49,79.70333333333333,7.56921875,64.52906321960671
1372871921.25,0.212357125,31.49,79.72749998762667,6.9365625,64.52906321960671
1372871921.5,0.21214362500000003,31.49,79.75166666666667,7.002005208333333,64.52906321960671
1372871921.75,0.2119835,31.49,79.77583334570667,6.678854166666667,64.52906321960671
1372871922.0,0.211823375,31.49,79.80000000000001,6.838932291666667,64.52906321960671
1372871922.25,0.21171662500000002,31.49,79.82416665429334,7.253359375,64.52906321960671
1372871922.5,0.21160987499999998,31.49,79.84833333333333,7.553619791666667,64.52906321960671
1372871922.75,0.211503125,31.49,79.87250001237334,8.404895833333333,64.52906321960671
1372871923.0,0.211396375,31.49,79.89666666666666,9.292083333333332,64.52906321960671
1372871923.25,0.211343,31.49,79.92333331968,10.247135416666667,64.52906321960671
1372871923.5,0.211343,31.49,79.94999999999999,11.499947916666665,64.52906321960671
1372871923.75,0.211343,31.48833333333333,79.97666668032,12.502369791666666,64.52906321960671
1372871924.0,0.211343,31.484999999999996,80.00333333333333,13.514817708333332,64.52906321960671
1372871924.25,0.211343,31.48166666666667,80.03249998506666,14.599010416666667,64.52906321960671
1372871924.5,0.211343,31.478333333333335,80.06166666666667,15.39984375,64.52906321960671
1372871924.75,0.211343,31.474999999999998,80.09083334826666,16.425,64.52906321960671
1372871925.0,0.211343,31.471666666666664,80.11999999999999,17.391901041666667,64.52906321960671
1372871925.25,0.211289625,31.46833333333333,80.15583331498667,18.23888020833333,64.52906321960671
1372871925.5,0.21123625000000001,31.465000000000003,80.19166666666666,19.206223958333336,64.52906321960671
1372871925.75,0.211182875,31.46166666666667,80.22750001834666,19.590755208333334,64.52906321960671
1372871926.0,0.21102279166666668,31.458333333333332,80.26333333333334,19.840208333333333,64.52906321960671
1372871926.25,0.210809375,31.455,80.2966666496,20.080026041666667,64.52906321960671
1372871926.5,0.21059595833333333,31.451666666666664,80.33,19.926380208333335,64.52906321960671
1372871926.75,0.21038254166666667,31.45,80.3633333504,19.97955729166667,64.52906321960671
1372871927.0,0.21011575000000002,31.45,80.39666666666666,20.14,64.52906321960671
1372871927.25,0.20979558333333334,31.45,80.42416665258666,19.839635416666667,64.52906321960671
1372871927.5,0.20947541666666666,31.45,80.45166666666665,19.68963541666667,64.52906321960671
1372871927.75,0.20915525,31.45,80.47916668074666,19.794635416666665,64.52906321960671
1372871928.0,0.20883508333333334,31.45,80.50666666666666,19.46526041666667,64.52906321960671
1372871928.25,0.20856829166666666,31.45,80.52999998805333,18.818177083333335,64.52906321960671
1372871928.5,0.208248125,31.45,80.55333333333334,18.668411458333335,64.52906321960671
1372871928.75,0.2078745833333333,31.45,80.57666667861334,18.282057291666664,64.52906321960671
1372871929.0,0.20760774999999998,31.45,80.60000000000001,17.318697916666668,64.52906321960671
1372871929.25,0.20739425,31.45,80.61749999104,17.204166666666666,64.52906321960671
1372871929.5,0.20718075,31.45,80.635,16.616119791666666,64.52906321960671
1372871929.75,0.20696725000000002,31.45,80.65250000896,15.41828125,64.52906321960671
1372871930.0,0.20675375,31.45,80.67,15.322604166666666,64.52906321960671
1372871930.25,0.20654024999999998,31.45,80.68083332778667,15.398229166666665,64.52906321960671
1372871930.5,0.20632675,31.45,80.69166666666668,14.344817708333332,64.52906321960671
1372871930.75,0.206059875,31.45,80.70250000554668,13.80328125,64.52906321960671
1372871931.0,0.20573962499999998,31.45,80.71333333333335,14.226510416666665,64.52906321960671
1372871931.25,0.205419375,31.45,80.71749999786668,13.660989583333333,64.52906321960671
1372871931.5,0.20509912499999997,31.45,80.72166666666668,12.675260416666665,64.52906321960671
1372871931.75,0.20483225000000002,31.45,80.72583333546667,13.173072916666667,64.52906321960671
1372871932.0,0.20451200000000003,31.45,80.73,13.410208333333332,64.52906321960671
1372871932.25,0.20419175,31.45,80.72583333546667,12.164739583333334,64.52906321960671
1372871932.5,0.20387149999999998,31.45,80.72166666666666,12.843932291666668,64.52906321960671
1372871932.75,0.20355125,31.45,80.71749999786667,13.738098958333332,64.52906321960671
1372871933.0,0.203284375,31.45,80.71333333333334,12.584713541666666,64.52906321960671
1372871933.25,0.2030175,31.45,80.70250000554667,12.677708333333335,64.52906321960671
1372871933.5,0.20269725000000002,31.45,80.69166666666666,13.921979166666667,64.52906321960671
1372871933.75,0.20243037499999997,31.450833333333335,80.68083332778667,13.511979166666668,64.52906321960671
1372871934.0,0.202216875,31.452499999999997,80.67,12.952317708333332,64.52906321960671
1372871934.25,0.202003375,31.454166666666666,80.65250000896,14.137473958333333,64.52906321960671
1372871934.5,0.20184325,31.45583333333333,80.635,14.327447916666669,64.52906321960671
1372871934.75,0.201683125,31.456666666666667,80.61749999104,13.234270833333333,64.52906321960671
1372871935.0,0.20157637500000003,31.456666666666667,80.60000000000001,13.997604166666667,64.52906321960671
1372871935.25,0.20146962499999999,31.456666666666663,80.57916667733333,15.199401041666667,64.52906321960671
1372871935.5,0.20130950000000003,31.456666666666663,80.55833333333334,14.222109375,64.52906321960671
1372871935.75,0.20109599999999997,31.4575,80.53749998933334,14.446796875000002,64.52906321960671
1372871936.0,0.2008825,31.459166666666665,80.51666666666667,15.854114583333333,64.52906321960671
1372871936.25,0.200722375,31.460833333333337,80.49416667818666,15.231588541666666,64.52906321960671
1372871936.5,0.20056229166666664,31.462499999999995,80.47166666666666,15.022916666666665,64.52906321960671
1372871936.75,0.200348875,31.462500000000002,80.44916665514667,16.245885416666667,64.52906321960671
1372871937.0,0.20013545833333335,31.460833333333337,80.42666666666666,15.942473958333336,64.52906321960671
1372871937.25,0.19992204166666663,31.459166666666665,80.40166667946666,15.197161458333333,64.52906321960671
1372871937.5,0.199708625,31.4575,80.37666666666667,16.462213541666667,64.52906321960671
1372871937.75,0.19949520833333334,31.45583333333333,80.35166665386667,17.38473958333333,64.52906321960671
1372871938.0,0.19922841666666666,31.454166666666666,80.32666666666667,16.361640625,64.52906321960671
1372871938.25,0.19890825,31.4525,80.30083334656,16.427864583333335,64.52906321960671
1372871938.5,0.19864145833333335,31.450833333333335,80.275,17.821640625,64.52906321960671
1372871938.75,0.1984280416666667,31.448333333333334,80.24916665344001,17.183229166666667,64.52906321960671
1372871939.0,0.198214625,31.445000000000004,80.22333333333334,16.121432291666668,64.52906321960671
1372871939.25,0.19800120833333335,31.441666666666663,80.19583334741334,17.270677083333336,64.52906321960671
1372871939.5,0.19784112500000003,31.438333333333333,80.16833333333334,17.10197916666667,64.52906321960671
1372871939.75,0.197681,31.436666666666664,80.14083331925333,15.782890625,64.52906321960671
1372871940.0,0.1974675,31.436666666666667,80.11333333333333,16.807942708333332,64.52906321960671
1372871940.25,0.197254,31.436666666666667,80.08500001450666,17.363854166666666,64.52906321960671
1372871940.5,0.19704049999999998,31.436666666666667,80.05666666666667,15.617057291666667,64.52906321960671
1372871940.75,0.196827,31.4375,80.02833331882667,15.120260416666667,64.52906321960671
1372871941.0,0.19666687500000002,31.439166666666665,80.0,16.446328125,64.52906321960671
1372871941.25,0.196560125,31.44083333333333,79.96916668245333,15.721536458333333,64.52906321960671
1372871941.5,0.196453375,31.4425,79.93833333333333,14.132265625,64.52906321960671
1372871941.75,0.196346625,31.444166666666664,79.90749998421333,14.992942708333333,64.52906321960671
1372871942.0,0.19623987499999998,31.44583333333333,79.87666666666667,16.127291666666668,64.52906321960671
1372871942.25,0.19607975,31.4475,79.84500001621333,14.799375,64.52906321960671
1372871942.5,0.19586625,31.449166666666667,79.81333333333333,14.623281249999998,64.52906321960671
1372871942.75,0.1957595,31.45,79.78166665045333,15.913776041666665,64.52906321960671
1372871943.0,0.19565275000000001,31.45,79.75,14.853411458333332,64.52906321960671
1372871943.25,0.19554600000000003,31.45,79.71666668373334,13.906927083333331,64.52906321960671
1372871943.5,0.19543925000000004,31.45,79.68333333333334,15.304869791666667,64.52906321960671
1372871943.75,0.1953325,31.449166666666667,79.64999998293334,15.491979166666667,64.52906321960671
1372871944.0,0.19522575,31.4475,79.61666666666667,13.879947916666666,64.52906321960671
1372871944.25,0.19511900000000001,31.445833333333336,79.58333335040001,14.333932291666668,64.52906321960671
1372871944.5,0.19501225,31.444166666666664,79.55000000000001,15.612786458333332,64.52906321960671
1372871944.75,0.19490550000000004,31.4425,79.5166666496,14.520911458333332,64.52906321960671
1372871945.0,0.19479875000000002,31.44083333333333,79.48333333333333,13.401666666666666,64.52906321960671
1372871945.25,0.194692,31.439166666666665,79.44833335125334,14.661354166666667,64.52906321960671
1372871945.5,0.19458525000000002,31.4375,79.41333333333333,15.164609375,64.52906321960671
1372871945.75,0.194425125,31.43583333333333,79.37833331541333,14.26953125,64.52906321960671
1372871946.0,0.19431837500000002,31.434166666666666,79.34333333333333,15.373723958333334,64.52906321960671
1372871946.25,0.194211625,31.4325,79.30750001834667,16.287447916666668,64.52906321960671
1372871946.5,0.19410487499999998,31.430833333333336,79.27166666666668,15.559739583333334,64.52906321960671
1372871946.75,0.19399812500000002,31.43,79.23583331498666,15.659166666666666,64.52906321960671
1372871947.0,0.19389137499999998,31.43,79.2,16.52385416666667,64.52906321960671
1372871947.25,0.19378462500000002,31.43,79.1625000192,16.10216145833333,64.52906321960671
1372871947.5,0.193677875,31.43,79.125,15.50359375,64.52906321960671
1372871947.75,0.19357112499999998,31.43,79.0874999808,16.198828125000002,64.52906321960671
1372871948.0,0.19351775000000002,31.43,79.05,16.454322916666666,64.52906321960671
1372871948.25,0.19351774999999996,31.43,79.01000002047999,15.525572916666667,64.52906321960671
1372871948.5,0.1936245,31.43,78.97,15.170703125000001,64.52906321960671
1372871948.75,0.193677875,31.43,78.92999997952,15.1896875,64.52906321960671
1372871949.0,0.19378462500000002,31.43,78.89,14.325703125000002,64.52906321960671
1372871949.25,0.19389137499999998,31.43,78.84833335466666,14.110885416666667,64.52906321960671
1372871949.5,0.19399812500000002,31.43,78.80666666666667,14.11921875,64.52906321960671
1372871949.75,0.19410487499999998,31.43,78.76499997866667,14.193307291666665,64.52906321960671
1372871950.0,0.194211625,31.43,78.72333333333333,14.953802083333331,64.52906321960671
1372871950.25,0.19431837500000002,31.43,78.68166668799999,15.747552083333334,64.52906321960671
1372871950.5,0.194425125,31.43,78.63999999999999,15.810026041666667,64.52906321960671
1372871950.75,0.194531875,31.43,78.598333312,16.335078125,64.52906321960671
1372871951.0,0.194531875,31.43,78.55666666666666,17.27158854166667,64.52906321960671
1372871951.25,0.19453187500000002,31.43,78.51916668586665,17.226432291666665,64.52906321960671
1372871951.5,0.19442512499999998,31.43,78.48166666666665,17.525130208333334,64.52906321960671
1372871951.75,0.19437174999999998,31.43,78.44416664746666,18.508307291666668,64.52906321960671
1372871952.0,0.194265,31.43,78.40666666666665,18.350286458333333,64.52906321960671
1372871952.25,0.19415825,31.43,78.37166668458666,18.206770833333334,64.52906321960671
1372871952.5,0.19405149999999996,31.43,78.33666666666666,18.820546875,64.52906321960671
1372871952.75,0.19394475,31.43,78.30166664874666,18.267109375,64.52906321960671
1372871953.0,0.19383799999999998,31.43,78.26666666666667,17.132083333333334,64.52906321960671
1372871953.25,0.19373125,31.43,78.2333333504,17.09315104166667,64.52906321960671
1372871953.5,0.19362449999999998,31.43,78.19999999999999,17.040338541666667,64.52906321960671
1372871953.75,0.19357112499999998,31.43,78.16666664959999,15.921718750000002,64.52906321960671
1372871954.0,0.1936245,31.43,78.13333333333333,15.54171875,64.52906321960671
1372871954.25,0.19373125,31.43,78.09833335125333,16.246406250000003,64.52906321960671
1372871954.5,0.19394475,31.43,78.06333333333333,15.647864583333332,64.52906321960671
1372871954.75,0.19415825,31.429166666666664,78.02833331541333,14.974427083333332,64.52906321960671
1372871955.0,0.19437175000000004,31.4275,77.99333333333334,15.770624999999997,64.52906321960671
1372871955.25,0.19458525000000002,31.425833333333333,77.95750001834668,15.538567708333334,64.52906321960671
1372871955.5,0.19479875000000002,31.424166666666665,77.92166666666668,15.295208333333333,64.52906321960671
1372871955.75,0.19501225,31.423333333333332,77.88583331498667,16.718177083333334,64.52906321960671
1372871956.0,0.19522575,31.423333333333332,77.85000000000001,16.960520833333334,64.52906321960671
1372871956.25,0.19543924999999998,31.423333333333336,77.8125000192,16.403411458333334,64.52906321960671
1372871956.5,0.19565275000000001,31.423333333333336,77.775,17.5671875,64.52906321960671
1372871956.75,0.19581287500000003,31.423333333333332,77.73749998080001,18.277239583333333,64.52906321960671
1372871957.0,0.19591962500000001,31.423333333333332,77.7,17.37328125,64.52906321960671
1372871957.25,0.195973,31.423333333333332,77.66416668501333,17.667578125,64.52906321960671
1372871957.5,0.19591962500000004,31.423333333333332,77.62833333333333,18.838880208333332,64.52906321960671
1372871957.75,0.19586625,31.424166666666665,77.59249998165333,18.265625000000004,64.52906321960671
1372871958.0,0.195812875,31.425833333333333,77.55666666666666,18.072864583333335,64.52906321960671
1372871958.25,0.1957595,31.4275,77.52083335168,19.2753125,64.52906321960671
1372871958.5,0.1957595,31.42916666666667,77.485,18.757395833333334,64.52906321960671
1372871958.75,0.1957595,31.43,77.44916664832,17.642864583333335,64.52906321960671
1372871959.0,0.1957595,31.43,77.41333333333334,18.692239583333336,64.52906321960671
1372871959.25,0.19570612500000004,31.43,77.38000001706666,18.651953125000002,64.52906321960671
1372871959.5,0.19570612500000004,31.43,77.34666666666666,16.952942708333335,64.52906321960671
1372871959.75,0.19570612499999998,31.43,77.31333331626666,17.438307291666664,64.52906321960671
1372871960.0,0.19570612499999998,31.43,77.27999999999999,18.687864583333333,64.52906321960671
1372871960.25,0.19570612499999998,31.43,77.24666668373332,17.41588541666667,64.52906321960671
1372871960.5,0.1957595,31.43,77.21333333333332,16.615989583333334,64.52906321960671
1372871960.75,0.1957595,31.429166666666664,77.17999998293332,18.054062499999997,64.52906321960671
1372871961.0,0.19570612500000004,31.4275,77.14666666666666,17.679765624999998,64.52906321960671
1372871961.25,0.19565275000000001,31.42583333333333,77.11416668330666,16.343802083333333,64.52906321960671
1372871961.5,0.195546,31.424166666666665,77.08166666666666,17.524140625,64.52906321960671
1372871961.75,0.19543925000000004,31.423333333333336,77.04916665002666,17.594244791666664,64.52906321960671
1372871962.0,0.19533250000000002,31.423333333333336,77.01666666666667,16.0971875,64.52906321960671
1372871962.25,0.19522575,31.423333333333336,76.98083335167999,16.989166666666666,64.52906321960671
1372871962.5,0.19501225,31.423333333333332,76.945,18.236901041666666,64.52906321960671
1372871962.75,0.19479875000000002,31.423333333333332,76.90916664832,16.892213541666667,64.52906321960671
1372871963.0,0.19458525000000002,31.423333333333332,76.87333333333332,16.180338541666668,64.52906321960671
1372871963.25,0.19437175000000004,31.423333333333332,76.83416668671998,17.739609374999997,64.52906321960671
1372871963.5,0.19415824999999998,31.423333333333332,76.79499999999999,17.778645833333332,64.52906321960671
1372871963.75,0.19399812500000002,31.424166666666668,76.75583331328,16.238697916666666,64.52906321960671
1372871964.0,0.19389137499999998,31.425833333333333,76.71666666666665,16.98651041666667,64.52906321960671
1372871964.25,0.19378462500000002,31.4275,76.67500002133332,17.916380208333333,64.52906321960671
1372871964.5,0.1936245,31.429166666666664,76.63333333333333,16.480572916666667,64.52906321960671
1372871964.75,0.193464375,31.43,76.59166664533333,16.979192708333333,64.52906321960671
1372871965.0,0.19325087500000002,31.43,76.55,18.217109375,64.52906321960671
1372871965.25,0.19309074999999998,31.43,76.50916668757333,16.811484375000003,64.52906321960671
1372871965.5,0.19298400000000002,31.43,76.46833333333333,16.196302083333332,64.52906321960671
1372871965.75,0.19287725,31.43,76.42749997909334,17.835494791666665,64.52906321960671
1372871966.0,0.19277049999999998,31.43,76.38666666666667,17.80921875,64.52906321960671
1372871966.25,0.19266375,31.43,76.34666668714667,16.202916666666667,64.52906321960671
1372871966.5,0.192557,31.43,76.30666666666667,16.819166666666668,64.52906321960671
1372871966.75,0.19245024999999996,31.429166666666664,76.26666664618668,18.026588541666666,64.52906321960671
1372871967.0,0.1923435,31.4275,76.22666666666667,16.813151041666668,64.52906321960671
1372871967.25,0.19223674999999998,31.425833333333333,76.18833335296,16.410156249999996,64.52906321960671
1372871967.5,0.19218337500000002,31.424166666666668,76.15,17.98440104166667,64.52906321960671
1372871967.75,0.192076625,31.4225,76.11166664704001,17.29640625,64.52906321960671
1372871968.0,0.19207662499999997,31.420833333333334,76.07333333333334,16.420911458333332,64.52906321960671
1372871968.25,0.19202325,31.419166666666666,76.03333335381333,17.939765625,64.52906321960671
1372871968.5,0.19196987499999998,31.4175,75.99333333333334,18.057916666666667,64.52906321960671
1372871968.75,0.19191649999999996,31.415833333333335,75.95333331285335,16.702864583333334,64.52906321960671
1372871969.0,0.19186312500000002,31.414166666666663,75.91333333333334,17.42385416666667,64.52906321960671
1372871969.25,0.19175637499999998,31.412499999999998,75.87250002090667,18.921822916666667,64.52906321960671
1372871969.5,0.19170299999999998,31.410833333333333,75.83166666666668,18.361822916666664,64.52906321960671
1372871969.75,0.19170299999999996,31.41,75.79083331242667,17.891562500000003,64.52906321960671
1372871970.0,0.19170299999999998,31.41,75.75,19.346432291666666,64.52906321960671
1372871970.25,0.19170299999999998,31.41,75.70833335466666,19.839973958333335,64.52906321960671
1372871970.5,0.19170299999999996,31.41,75.66666666666666,18.64317708333333,64.52906321960671
1372871970.75,0.19175637499999998,31.41,75.62499997866666,19.441041666666667,64.52906321960671
1372871971.0,0.191756375,31.41,75.58333333333333,20.39796875,64.52906321960671
1372871971.25,0.191863125,31.41,75.54166668799999,19.483229166666664,64.52906321960671
1372871971.5,0.19202324999999998,31.41,75.5,19.521223958333334,64.52906321960671
1372871971.75,0.19218337500000002,31.41,75.45833331200001,20.525520833333335,64.52906321960671
1372871972.0,0.19229012499999998,31.41,75.41666666666667,19.89890625,64.52906321960671
1372871972.25,0.19250362499999998,31.41,75.37666668714667,18.307968749999997,64.52906321960671
1372871972.5,0.19271712499999996,31.41,75.33666666666667,18.564869791666666,64.52906321960671
1372871972.75,0.19287725,31.41,75.29666664618667,18.82013020833333,64.52906321960671
1372871973.0,0.19309075,31.41,75.25666666666666,17.272395833333334,64.52906321960671
1372871973.25,0.19330424999999998,31.41,75.21916668586667,16.44572916666667,64.52906321960671
1372871973.5,0.19351775000000002,31.41,75.18166666666667,17.289479166666666,64.52906321960671
1372871973.75,0.193677875,31.410833333333333,75.14416664746666,16.732734375,64.52906321960671
1372871974.0,0.19383799999999998,31.412499999999998,75.10666666666667,15.293359375000001,64.52906321960671
1372871974.25,0.19394475,31.41416666666667,75.07333335039999,15.779062500000002,64.52906321960671
1372871974.5,0.19394475,31.415833333333335,75.03999999999999,16.152838541666668,64.52906321960671
1372871974.75,0.19394475,31.417500000000004,75.00666664959999,14.965286458333333,64.52906321960671
1372871975.0,0.19405150000000002,31.419166666666666,74.97333333333331,14.847161458333332,64.52906321960671
1372871975.25,0.19415825,31.420833333333334,74.94250001578665,16.451484375000003,64.52906321960671
1372871975.5,0.194211625,31.4225,74.91166666666666,15.747109375,64.52906321960671
1372871975.75,0.19426500000000002,31.423333333333332,74.88083331754667,15.223411458333336,64.52906321960671
1372871976.0,0.194265,31.423333333333336,74.85000000000001,16.928854166666664,64.52906321960671
1372871976.25,0.194265,31.423333333333332,74.82083334826667,17.320052083333334,64.52906321960671
1372871976.5,0.19426500000000002,31.423333333333336,74.79166666666667,16.010026041666666,64.52906321960671
1372871976.75,0.19431837500000002,31.4225,74.76249998506667,16.607421875,64.52906321960671
1372871977.0,0.19437174999999998,31.420833333333334,74.73333333333333,18.063515624999997,64.52906321960671
1372871977.25,0.19442512499999998,31.419166666666666,74.7041666816,17.06296875,64.52906321960671
1372871977.5,0.19453187500000002,31.4175,74.67500000000001,16.342916666666664,64.52906321960671
1372871977.75,0.19463862499999998,31.415833333333328,74.64583331840001,17.886041666666667,64.52906321960671
1372871978.0,0.194692,31.41416666666667,74.61666666666667,18.2578125,64.52906321960671
1372871978.25,0.194692,31.412500000000005,74.58666668202667,16.83653645833333,64.52906321960671
1372871978.5,0.194692,31.410833333333333,74.55666666666667,18.029192708333333,64.52906321960671
1372871978.75,0.194692,31.41,74.52666665130667,18.606848958333334,64.52906321960671
1372871979.0,0.194692,31.41,74.49666666666667,16.879713541666668,64.52906321960671
1372871979.25,0.194692,31.41,74.46416668330667,17.210286458333332,64.52906321960671
1372871979.5,0.194692,31.41,74.43166666666667,18.728125000000002,64.52906321960671
1372871979.75,0.19463862499999998,31.41,74.39916665002667,17.6028125,64.52906321960671
1372871980.0,0.19458525000000002,31.41,74.36666666666667,16.6321875,64.52906321960671
1372871980.25,0.1944785,31.41,74.33083335168001,18.293828125,64.52906321960671
1372871980.5,0.19437174999999998,31.41,74.29500000000002,18.579062500000003,64.52906321960671
1372871980.75,0.19426500000000002,31.41,74.25916664832,16.834036458333333,64.52906321960671
1372871981.0,0.19410487500000004,31.41,74.22333333333334,17.139765625,64.52906321960671
1372871981.25,0.19389137499999998,31.41,74.18416668672,18.541588541666666,64.52906321960671
1372871981.5,0.193677875,31.41,74.14500000000001,17.103151041666667,64.52906321960671
1372871981.75,0.19346437500000002,31.41,74.10583331328,16.610104166666666,64.52906321960671
1372871982.0,0.19325087499999996,31.41,74.06666666666666,18.463984375,64.52906321960671
1372871982.25,0.19303737499999998,31.41,74.02916668586667,17.847135416666667,64.52906321960671
1372871982.5,0.192823875,31.41,73.99166666666667,16.510703125,64.52906321960671
1372871982.75,0.19266375,31.41,73.95416664746666,18.042083333333334,64.52906321960671
1372871983.0,0.19245025000000002,31.41,73.91666666666667,18.473411458333334,64.52906321960671
1372871983.25,0.19229012499999998,31.41,73.87166668970667,16.680026041666668,64.52906321960671
1372871983.5,0.19213,31.41,73.82666666666667,17.167682291666665,64.52906321960671
1372871983.75,0.19196987499999998,31.41,73.78166664362666,18.842499999999998,64.52906321960671
1372871984.0,0.19191649999999996,31.41,73.73666666666666,17.785651041666668,64.52906321960671
1372871984.25,0.19191650000000002,31.41,73.68500002645334,16.649088541666668,64.52906321960671
1372871984.5,0.19191650000000002,31.41,73.63333333333334,18.340911458333334,64.52906321960671
1372871984.75,0.191863125,31.409166666666668,73.58166664021334,18.724296875,64.52906321960671
1372871985.0,0.19186312500000002,31.4075,73.53000000000002,16.861223958333333,64.52906321960671
1372871985.25,0.191863125,31.405833333333334,73.46916669781335,17.495416666666667,64.52906321960671
1372871985.5,0.191863125,31.40416666666667,73.40833333333335,19.07546875,64.52906321960671
1372871985.75,0.191863125,31.4025,73.34749996885333,17.71783854166667,64.52906321960671
1372871986.0,0.19191649999999996,31.400833333333335,73.28666666666666,17.085104166666667,64.52906321960671
1372871986.25,0.19196987499999998,31.399166666666662,73.22583336448,18.982708333333335,64.52906321960671
1372871986.5,0.19196987499999998,31.397500000000004,73.16499999999999,18.677552083333335,64.52906321960671
1372871986.75,0.19191649999999996,31.395833333333332,73.10416663552,16.98768229166667,64.52906321960671
1372871987.0,0.19180975,31.394166666666667,73.04333333333334,18.056718749999998,64.52906321960671
1372871987.25,0.19175637499999998,31.392500000000002,72.98416669696,19.381249999999998,64.52906321960671
1372871987.5,0.19170299999999996,31.390833333333333,72.92500000000001,17.626328124999997,64.52906321960671
1372871987.75,0.19170299999999998,31.39,72.86583330304,16.61911458333333,64.52906321960671
1372871988.0,0.19159625,31.39,72.80666666666667,18.52625,64.52906321960671
1372871988.25,0.19148949999999998,31.39,72.74666669738667,18.402526041666665,64.52906321960671
1372871988.5,0.19138274999999996,31.39,72.68666666666667,16.387526041666664,64.52906321960671
1372871988.75,0.19127599999999997,31.39,72.62666663594666,16.674661458333333,64.52906321960671
1372871989.0,0.19116924999999999,31.39,72.56666666666666,18.32390625,64.52906321960671
1372871989.25,0.1910625,31.39,72.51000002901333,17.112031249999998,64.52906321960671
1372871989.5,0.191009125,31.39,72.45333333333332,15.941692708333333,64.52906321960671
1372871989.75,0.191009125,31.39,72.39666663765333,17.242734375,64.52906321960671
1372871990.0,0.191009125,31.39,72.33999999999999,17.3053125,64.52906321960671
1372871990.25,0.19095574999999998,31.39,72.28666669397333,15.719973958333334,64.52906321960671
1372871990.5,0.19090237499999999,31.39,72.23333333333332,16.180208333333333,64.52906321960671
1372871990.75,0.190849,31.39,72.17999997269332,17.69049479166667,64.52906321960671
1372871991.0,0.190849,31.39,72.12666666666667,16.432786458333332,64.52906321960671
1372871991.25,0.190849,31.39,72.08000002389333,15.146197916666665,64.52906321960671
1372871991.5,0.190849,31.39,72.03333333333333,16.580442708333333,64.52906321960671
1372871991.75,0.190849,31.39,71.98666664277333,17.284192708333332,64.52906321960671
1372871992.0,0.190849,31.39,71.94,15.239401041666666,64.52906321960671
1372871992.25,0.190849,31.39,71.89833335466666,14.940989583333334,64.52906321960671
1372871992.5,0.190849,31.39,71.85666666666665,16.733541666666667,64.52906321960671
1372871992.75,0.190849,31.389166666666668,71.81499997866666,16.319166666666664,64.52906321960671
1372871993.0,0.190849,31.387500000000003,71.77333333333333,14.77875,64.52906321960671
1372871993.25,0.190849,31.385833333333334,71.73750001834667,15.925859375,64.52906321960671
1372871993.5,0.190849,31.38416666666667,71.70166666666665,16.81296875,64.52906321960671
1372871993.75,0.190849,31.382500000000004,71.66583331498666,15.391354166666666,64.52906321960671
1372871994.0,0.19090237499999999,31.38083333333334,71.63,16.012005208333335,64.52906321960671
1372871994.25,0.191009125,31.379166666666674,71.59916668245333,17.97625,64.52906321960671
1372871994.5,0.19111587499999996,31.377499999999998,71.56833333333334,17.445052083333334,64.52906321960671
1372871994.75,0.19127599999999997,31.375833333333333,71.53749998421334,17.072578125,64.52906321960671
1372871995.0,0.19148949999999998,31.374166666666667,71.50666666666667,18.979505208333332,64.52906321960671
1372871995.25,0.191756375,31.372500000000002,71.48000001365334,19.604348958333333,64.52906321960671
1372871995.5,0.192076625,31.370833333333334,71.45333333333335,18.47432291666667,64.52906321960671
1372871995.75,0.192396875,31.37,71.42666665301334,19.33765625,64.52906321960671
1372871996.0,0.19271712500000002,31.37,71.4,21.212421875,64.52906321960671
1372871996.25,0.19303737499999998,31.37,71.37750001152,20.424270833333335,64.52906321960671
1372871996.5,0.19335762499999998,31.37,71.355,20.239348958333334,64.52906321960671
1372871996.75,0.19362449999999998,31.37,71.33249998848001,21.985546875,64.52906321960671
1372871997.0,0.19378462500000002,31.37,71.31,21.398333333333337,64.52906321960671
1372871997.25,0.19389137499999998,31.37,71.29166667605334,20.181380208333334,64.52906321960671
1372871997.5,0.19405150000000002,31.37,71.27333333333334,21.38278645833333,64.52906321960671
1372871997.75,0.19415825,31.37,71.25499999061334,21.242109375000002,64.52906321960671
1372871998.0,0.19415825,31.37,71.23666666666668,19.341614583333335,64.52906321960671
1372871998.25,0.19410487499999998,31.37,71.22250000725334,19.535703125,64.52906321960671
1372871998.5,0.19399812500000002,31.37,71.20833333333334,20.556458333333335,64.52906321960671
1372871998.75,0.193891375,31.37,71.19416665941334,18.928697916666668,64.52906321960671
1372871999.0,0.19378462500000002,31.37,71.18,17.220130208333334,64.52906321960671
1372871999.25,0.193677875,31.37,71.16916667221334,18.139088541666666,64.52906321960671
1372871999.5,0.19357112499999998,31.37,71.15833333333333,17.68041666666667,64.52906321960671
1372871999.75,0.19351775000000002,31.37,71.14749999445333,15.326145833333335,64.52906321960671
1372872000.0,0.19351774999999996,31.37,71.13666666666666,15.08875,64.52906321960671
1372872000.25,0.19351775000000002,31.37,71.12750000469332,15.943932291666668,64.52906321960671
1372872000.5,0.193411,31.37,71.11833333333331,14.103411458333333,64.52906321960671
1372872000.75,0.19330424999999998,31.37,71.10916666197332,13.218489583333332,64.52906321960671
1372872001.0,0.19319750000000002,31.37,71.09999999999998,14.749375,64.52906321960671
1372872001.25,0.19309075,31.37,71.09333333674665,14.219036458333335,64.52906321960671
1372872001.5,0.19298399999999996,31.37,71.08666666666664,12.241614583333332,64.52906321960671
1372872001.75,0.19287725,31.37,71.07999999658665,12.826796875,64.52906321960671
1372872002.0,0.19277049999999998,31.37,71.07333333333332,14.485442708333332,64.52906321960671
1372872002.25,0.19266375,31.37,71.06750000298666,13.285677083333335,64.52906321960671
1372872002.5,0.19255699999999998,31.37,71.06166666666667,12.400572916666667,64.52906321960671
1372872002.75,0.19245025000000002,31.370833333333337,71.05583333034666,14.408489583333333,64.52906321960671
1372872003.0,0.1923435,31.372500000000002,71.05,15.463359374999998,64.52906321960671
1372872003.25,0.19223674999999998,31.374166666666667,71.04583333546665,14.097161458333334,64.52906321960671
1372872003.5,0.19218337500000002,31.375833333333333,71.04166666666666,14.699765625,64.52906321960671
1372872003.75,0.19213,31.376666666666665,71.03749999786666,16.568255208333333,64.52906321960671
1372872004.0,0.192076625,31.376666666666665,71.03333333333332,15.688125,64.52906321960671
1372872004.25,0.19202324999999998,31.376666666666665,71.02750000298666,15.386354166666665,64.52906321960671
1372872004.5,0.19196987499999998,31.376666666666665,71.02166666666666,17.80203125,64.52906321960671
1372872004.75,0.19191649999999996,31.376666666666665,71.01583333034667,18.459765625,64.52906321960671
1372872005.0,0.191863125,31.376666666666665,71.01,16.68453125,64.52906321960671
1372872005.25,0.19180975,31.376666666666665,71.00333333674666,17.44609375,64.52906321960671
1372872005.5,0.19175637499999998,31.37666666666667,70.99666666666667,19.561744791666666,64.52906321960671
1372872005.75,0.19170299999999996,31.375833333333333,70.98999999658668,18.564869791666666,64.52906321960671
1372872006.0,0.19164962500000002,31.374166666666667,70.98333333333333,16.83484375,64.52906321960671
1372872006.25,0.19159625,31.372500000000002,70.97500000426666,18.331796875,64.52906321960671
1372872006.5,0.19154287499999997,31.370833333333337,70.96666666666667,19.365208333333335,64.52906321960671
1372872006.75,0.19148949999999998,31.37,70.95833332906668,17.53828125,64.52906321960671
1372872007.0,0.19148949999999998,31.37,70.95,17.490859375,64.52906321960671
1372872007.25,0.19148949999999998,31.37,70.94083333802666,18.992421875,64.52906321960671
1372872007.5,0.19148949999999998,31.37,70.93166666666667,17.56442708333333,64.52906321960671
1372872007.75,0.19143612499999998,31.37,70.92249999530668,16.338046875,64.52906321960671
1372872008.0,0.19138274999999996,31.37,70.91333333333334,18.084244791666666,64.52906321960671
1372872008.25,0.19138274999999996,31.37,70.90250000554667,18.28390625,64.52906321960671
1372872008.5,0.19138274999999996,31.37,70.89166666666668,16.247968750000002,64.52906321960671
1372872008.75,0.19143612499999996,31.36916666666667,70.88083332778668,16.684453125,64.52906321960671
1372872009.0,0.19148949999999998,31.367500000000003,70.87,18.694687499999997,64.52906321960671
1372872009.25,0.191542875,31.36583333333333,70.85583334058667,17.5940625,64.52906321960671
1372872009.5,0.19159625,31.364166666666666,70.84166666666667,16.015963541666665,64.52906321960671
1372872009.75,0.19164962499999996,31.3625,70.82749999274667,17.64166666666667,64.52906321960671
1372872010.0,0.19170299999999998,31.360833333333332,70.81333333333333,18.353958333333335,64.52906321960671
1372872010.25,0.19175637499999998,31.359166666666667,70.79750000810667,16.356848958333334,64.52906321960671
1372872010.5,0.19180975,31.3575,70.78166666666667,16.746484375,64.52906321960671
1372872010.75,0.19191650000000002,31.355833333333337,70.76583332522667,18.361145833333335,64.52906321960671
1372872011.0,0.19202324999999998,31.35416666666667,70.75,16.934322916666666,64.52906321960671
1372872011.25,0.19202325,31.352500000000003,70.73166667605334,16.192682291666667,64.52906321960671
1372872011.5,0.19196987499999998,31.350833333333338,70.71333333333334,17.835494791666665,64.52906321960671
1372872011.75,0.191863125,31.35,70.69499999061333,17.443515625,64.52906321960671
1372872012.0,0.19175637499999998,31.35,70.67666666666666,15.864479166666667,64.52906321960671
1372872012.25,0.19164962499999996,31.35,70.65833334272,16.99278645833333,64.52906321960671
1372872012.5,0.191542875,31.35,70.64,18.122057291666668,64.52906321960671
1372872012.75,0.19143612499999998,31.35,70.62166665728,16.388333333333332,64.52906321960671
1372872013.0,0.191329375,31.35,70.60333333333334,16.129114583333333,64.52906321960671
1372872013.25,0.191222625,31.35,70.58583334229334,17.875104166666667,64.52906321960671
1372872013.5,0.19111587500000002,31.35,70.56833333333333,17.5290625,64.52906321960671
1372872013.75,0.19100912499999997,31.35,70.55083332437333,16.12453125,64.52906321960671
1372872014.0,0.19090237499999999,31.35,70.53333333333333,17.47546875,64.52906321960671
1372872014.25,0.190849,31.35,70.5166666752,18.089296875,64.52906321960671
1372872014.5,0.190849,31.35,70.5,16.623307291666666,64.52906321960671
1372872014.75,0.190849,31.35,70.4833333248,17.47067708333333,64.52906321960671
1372872015.0,0.190849,31.35,70.46666666666667,18.455677083333335,64.52906321960671
1372872015.25,0.190849,31.35,70.45000000853334,16.980078125000002,64.52906321960671
1372872015.5,0.190849,31.35,70.43333333333334,16.919505208333334,64.52906321960671
1372872015.75,0.190849,31.35,70.41666665813332,18.260494791666666,64.52906321960671
1372872016.0,0.190849,31.35,70.39999999999999,17.639244791666666,64.52906321960671
1372872016.25,0.190849,31.35,70.38333334186666,16.761822916666667,64.52906321960671
1372872016.5,0.190849,31.35,70.36666666666666,17.5159375,64.52906321960671
1372872016.75,0.190849,31.35,70.34999999146666,17.909453125000002,64.52906321960671
1372872017.0,0.190849,31.35,70.33333333333333,16.787942708333333,64.52906321960671
1372872017.25,0.190849,31.35,70.31833334101333,17.012421875,64.52906321960671
1372872017.5,0.190849,31.35,70.30333333333333,17.970911458333333,64.52906321960671
1372872017.75,0.19079566666666667,31.35,70.28833332565333,16.71682291666667,64.52906321960671
1372872018.0,0.19074233333333332,31.35,70.27333333333333,16.576015625,64.52906321960671
1372872018.25,0.19063566666666665,31.35,70.26083333973332,17.724218750000002,64.52906321960671
1372872018.5,0.1905823333333333,31.35,70.24833333333333,16.622317708333334,64.52906321960671
1372872018.75,0.19047566666666668,31.35,70.23583332693335,16.328723958333335,64.52906321960671
1372872019.0,0.190369,31.35,70.22333333333334,17.753151041666666,64.52906321960671
1372872019.25,0.1902623333333333,31.35,70.21333333845334,17.214947916666667,64.52906321960671
1372872019.5,0.19015566666666664,31.35,70.20333333333335,16.226744791666665,64.52906321960671
1372872019.75,0.190049,31.35,70.19333332821334,17.364921874999997,64.52906321960671
1372872020.0,0.18994233333333332,31.35,70.18333333333334,17.72109375,64.52906321960671
1372872020.25,0.18983566666666662,31.35,70.17583333717333,16.241432291666666,64.52906321960671
1372872020.5,0.189729,31.35,70.16833333333334,16.301302083333333,64.52906321960671
1372872020.75,0.18967566666666666,31.35,70.16083332949334,17.727447916666666,64.52906321960671
1372872021.0,0.18962233333333334,31.35,70.15333333333334,16.76559895833333,64.52906321960671
1372872021.25,0.1896223333333333,31.35,70.14833333589334,15.791640625,64.52906321960671
1372872021.5,0.189569,31.35,70.14333333333335,17.340859375,64.52906321960671
1372872021.75,0.189569,31.35,70.13833333077334,16.894479166666667,64.52906321960671
1372872022.0,0.189569,31.35,70.13333333333334,15.1478125,64.52906321960671
1372872022.25,0.189569,31.35,70.13083333461334,16.20838541666667,64.52906321960671
1372872022.5,0.189569,31.35,70.12833333333333,16.59252604166667,64.52906321960671
1372872022.75,0.189569,31.35,70.12583333205333,14.58390625,64.52906321960671
1372872023.0,0.189569,31.35,70.12333333333333,14.803880208333332,64.52906321960671
1372872023.25,0.189569,31.35,70.12250000042667,16.246197916666663,64.52906321960671
1372872023.5,0.189569,31.35,70.12166666666667,15.135234375000001,64.52906321960671
1372872023.75,0.189569,31.35,70.12083333290667,13.964817708333333,64.52906321960671
1372872024.0,0.189569,31.35,70.12,15.3528125,64.52906321960671
1372872024.25,0.189569,31.35,70.12,15.883098958333333,64.52906321960671
1372872024.5,0.189569,31.35,70.12,14.501249999999999,64.52906321960671
1372872024.75,0.189569,31.349166666666672,70.12,15.294765624999998,64.52906321960671
1372872025.0,0.189569,31.3475,70.12,16.308515625,64.52906321960671
1372872025.25,0.189569,31.34583333333333,70.12,15.362213541666664,64.52906321960671
1372872025.5,0.189569,31.34416666666667,70.12,16.246822916666666,64.52906321960671
1372872025.75,0.189515625,31.3425,70.12,17.785026041666665,64.52906321960671
1372872026.0,0.189408875,31.340833333333332,70.12,17.153932291666667,64.52906321960671
1372872026.25,0.18930212500000002,31.339166666666667,70.12083333290667,17.210703125,64.52906321960671
1372872026.5,0.18919537500000003,31.337500000000002,70.12166666666667,18.915755208333334,64.52906321960671
1372872026.75,0.189088625,31.335833333333337,70.12250000042667,19.143958333333334,64.52906321960671
1372872027.0,0.188981875,31.334166666666665,70.12333333333333,18.480494791666665,64.52906321960671
1372872027.25,0.18887512500000003,31.332499999999996,70.12749999786666,19.361718749999998,64.52906321960671
1372872027.5,0.18876837500000002,31.330833333333334,70.13166666666666,20.048333333333332,64.52906321960671
1372872027.75,0.18866162500000003,31.33,70.13583333546667,19.19333333333333,64.52906321960671
1372872028.0,0.188554875,31.33,70.14,19.589583333333334,64.52906321960671
1372872028.25,0.18844812500000005,31.33,70.14666666325334,20.366067708333336,64.52906321960671
1372872028.5,0.18834137500000003,31.33,70.15333333333334,18.849322916666665,64.52906321960671
1372872028.75,0.188288,31.33,70.16000000341333,18.787031250000002,64.52906321960671
1372872029.0,0.188288,31.33,70.16666666666667,20.08666666666667,64.52906321960671
1372872029.25,0.188288,31.33,70.17499999573334,19.05861979166667,64.52906321960671
1372872029.5,0.188234625,31.33,70.18333333333334,18.365807291666666,64.52906321960671
1372872029.75,0.18812787499999997,31.33,70.19166667093333,19.36903645833333,64.52906321960671
1372872030.0,0.18796775,31.33,70.2,19.053958333333334,64.52906321960671
1372872030.25,0.18775425,31.33,70.20833332906668,17.704921875,64.52724685022186
1372872030.5,0.18754075,31.33,70.21666666666667,18.39875,64.52530938954467
1372872030.75,0.18732724999999997,31.33,70.22500000426666,18.96796875,64.52337192886749
1372872031.0,0.18711375,31.33,70.23333333333333,17.49078125,64.52143446819032
1372872031.25,0.18690025,31.33,70.24333332821334,17.637395833333333,64.51949700751314
1372872031.5,0.18668674999999998,31.33,70.25333333333333,18.943854166666668,64.51755954683595
1372872031.75,0.18647325,31.33,70.26333333845332,17.819453125,64.51562208615879
1372872032.0,0.18625974999999997,31.33,70.27333333333333,16.862630208333336,64.51368462548159
1372872032.25,0.18604624999999997,31.33,70.28499999402666,17.634114583333332,64.51174716480442
1372872032.5,0.185886125,31.33,70.29666666666665,16.667291666666667,64.50980970412724
1372872032.75,0.185779375,31.33,70.30833333930666,15.438046875,64.50787224345005
1372872033.0,0.185726,31.33,70.32,16.238958333333333,64.50593478277288
1372872033.25,0.185726,31.33,70.3324999936,16.457057291666665,64.50581369148055
1372872033.5,0.185726,31.33,70.345,15.027630208333335,64.50581369148055
1372872033.75,0.185726,31.33083333333333,70.3575000064,15.280651041666665,64.50581369148055
1372872034.0,0.185726,31.3325,70.37,16.382135416666667,64.50581369148055
1372872034.25,0.185726,31.334166666666665,70.3824999936,15.189296875000002,64.50666133052682
1372872034.5,0.185726,31.33583333333333,70.39500000000001,14.839765624999998,64.50859879120401
1372872034.75,0.185726,31.337499999999995,70.4075000064,15.992421875,64.51053625188118
1372872035.0,0.185726,31.339166666666667,70.42,15.546770833333332,64.51247371255836
1372872035.25,0.185726,31.340833333333336,70.43333332650667,15.744791666666666,64.51441117323553
1372872035.5,0.185672625,31.342499999999998,70.44666666666667,17.542552083333334,64.51634863391273
1372872035.75,0.18561925,31.344166666666666,70.46000000682668,17.542473958333336,64.5182860945899
1372872036.0,0.185565875,31.345833333333335,70.47333333333334,17.050677083333333,64.52022355526708
1372872036.25,0.185565875,31.3475,70.48666665984001,18.537942708333336,64.52216101594426
1372872036.5,0.18556587500000002,31.349166666666665,70.5,19.305911458333334,64.52409847662145
1372872036.75,0.185565875,31.349166666666665,70.51333334015999,18.460182291666666,64.52603593729862
1372872037.0,0.185565875,31.3475,70.52666666666666,19.227213541666668,64.5279733979758
1372872037.25,0.18556587500000002,31.345833333333335,70.53999999317332,20.902473958333335,64.52906321960671
1372872037.5,0.185565875,31.344166666666666,70.55333333333333,20.313437500000003,64.52906321960671
1372872037.75,0.18556587500000002,31.342499999999998,70.56666667349333,20.1534375,64.52906321960671
1372872038.0,0.1855125,31.340833333333336,70.58,21.753072916666667,64.52906321960671
1372872038.25,0.18545912500000003,31.339166666666667,70.5924999936,21.042447916666667,64.52906321960671
1372872038.5,0.18545912500000003,31.337500000000002,70.60499999999999,19.902708333333333,64.52906321960671
1372872038.75,0.18540575,31.33583333333333,70.6175000064,21.053854166666667,64.52906321960671
1372872039.0,0.185352375,31.334166666666665,70.63,21.000078124999998,64.52906321960671
1372872039.25,0.185245625,31.3325,70.6424999936,19.61161458333333,64.52906321960671
1372872039.5,0.185138875,31.33083333333333,70.655,20.275651041666666,64.52906321960671
1372872039.75,0.18497875,31.33,70.6675000064,20.884869791666667,64.52906321960671
1372872040.0,0.184818625,31.33,70.68,19.438125,64.52906321960671
1372872040.25,0.184605125,31.33,70.69249999360001,18.984296875,64.52882103702207
1372872040.5,0.18439162500000003,31.33,70.70500000000001,19.939557291666667,64.52712575892953
1372872040.75,0.18417812499999997,31.33,70.7175000064,19.32229166666667,64.52518829825236
1372872041.0,0.184018,31.33,70.73,18.469010416666666,64.52325083757516
1372872041.25,0.1838045,31.33,70.74166666069334,19.44276041666667,64.521313376898
1372872041.5,0.18353762499999995,31.33,70.75333333333333,19.609817708333335,64.51937591622081
1372872041.75,0.18332412499999998,31.33,70.76500000597332,19.156796875,64.51743845554363
1372872042.0,0.18311062499999997,31.33,70.77666666666666,19.778854166666665,64.51550099486646
1372872042.25,0.18295050000000002,31.33,70.78833332736,20.091276041666667,64.51356353418927
1372872042.5,0.18279037499999998,31.33,70.79999999999998,19.598802083333336,64.51162607351209
1372872042.75,0.182737,31.33,70.81166667263999,19.86859375,64.50968861283492
1372872043.0,0.18268362500000002,31.33,70.82333333333332,20.767473958333333,64.50775115215772
1372872043.25,0.182683625,31.33,70.83583332693333,20.784270833333334,64.50605587406521
1372872043.5,0.182683625,31.33,70.84833333333333,20.691927083333333,64.50581369148055
1372872043.75,0.18268362500000002,31.33,70.86083333973333,21.336718750000003,64.50581369148055
1372872044.0,0.182737,31.33,70.87333333333333,21.484765624999998,64.50581369148055
1372872044.25,0.182897125,31.33,70.88833332565333,21.307786458333332,64.50581369148055
1372872044.5,0.183110625,31.33,70.90333333333334,21.462057291666667,64.50581369148055
1372872044.75,0.18332412500000003,31.33,70.91833334101334,21.231276041666668,64.50581369148055
1372872045.0,0.183537625,31.33,70.93333333333334,21.637109374999998,64.50581369148055
1372872045.25,0.18369775,31.33,70.94999999146667,21.837552083333335,64.50581369148055
1372872045.5,0.18391125,31.33,70.96666666666667,21.5590625,64.50581369148055
1372872045.75,0.18412474999999998,31.33,70.98333334186667,22.016119791666668,64.50581369148055
1372872046.0,0.18433825,31.33,71.0,21.67895833333333,64.50581369148055
1372872046.25,0.18455175000000001,31.33,71.01833332394666,20.673333333333332,64.50581369148055
1372872046.5,0.18476525,31.33,71.03666666666666,20.877838541666666,64.50581369148055
1372872046.75,0.18497875,31.329166666666666,71.05500000938667,21.25778645833333,64.50581369148055
1372872047.0,0.185138875,31.327499999999997,71.07333333333334,20.380468750000002,64.50581369148055
1372872047.25,0.185245625,31.325833333333332,71.09416665600001,19.91765625,64.50581369148055
1372872047.5,0.185352375,31.324166666666667,71.11500000000001,20.768437499999997,64.50581369148055
1372872047.75,0.18545912499999997,31.323333333333334,71.135833344,20.588593749999998,64.50581369148055
1372872048.0,0.185565875,31.323333333333327,71.15666666666668,19.003411458333332,64.50581369148055
1372872048.25,0.185672625,31.323333333333334,71.17999998805334,19.61671875,64.50581369148055
1372872048.5,0.185726,31.323333333333334,71.20333333333335,19.544088541666667,64.50581369148055
1372872048.75,0.185726,31.323333333333334,71.22666667861334,17.77734375,64.50714569569612
1372872049.0,0.185726,31.323333333333327,71.25,17.927734375,64.5090831563733
1372872049.25,0.185726,31.323333333333334,71.2749999872,18.531770833333333,64.51102061705048
1372872049.5,0.185726,31.323333333333334,71.3,17.098645833333332,64.51295807772765
1372872049.75,0.185726,31.324166666666667,71.32500001279999,16.28651041666667,64.51489553840484
1372872050.0,0.185726,31.325833333333332,71.35,16.94005208333333,64.51683299908201
1372872050.25,0.185726,31.3275,71.3749999872,16.712109375,64.5187704597592
1372872050.5,0.185726,31.329166666666666,71.4,15.578333333333335,64.52070792043638
1372872050.75,0.185726,31.329166666666666,71.4250000128,15.793541666666668,64.52167665077496
1372872051.0,0.185726,31.3275,71.45,16.565260416666668,64.52167665077496
1372872051.25,0.185672625,31.325833333333332,71.47749998592,15.756223958333335,64.52167665077496
1372872051.5,0.18561925,31.324166666666667,71.505,15.943541666666667,64.52167665077496
1372872051.75,0.185565875,31.3225,71.53250001408,16.90614583333333,64.5203446465594
1372872052.0,0.185565875,31.320833333333336,71.56,16.876796875,64.51840718588223
1372872052.25,0.18556587500000002,31.319166666666664,71.59083331754667,17.20296875,64.51646972520504
1372872052.5,0.185565875,31.3175,71.62166666666667,18.23270833333333,64.51453226452786
1372872052.75,0.185565875,31.316666666666666,71.65250001578667,18.608463541666666,64.51259480385067
1372872053.0,0.18551250000000005,31.316666666666666,71.68333333333334,19.644453125000002,64.5106573431735
1372872053.25,0.18545912500000003,31.316666666666663,71.7166666496,20.454635416666665,64.50871988249632
1372872053.5,0.18545912500000003,31.316666666666663,71.75,20.368776041666667,64.50678242181915
1372872053.75,0.18545912499999997,31.3175,71.7833333504,21.263828125,64.50581369148055
1372872054.0,0.18545912500000003,31.319166666666664,71.81666666666666,21.629088541666665,64.50581369148055
1372872054.25,0.1855125,31.32083333333333,71.84749998421333,21.199661458333335,64.50581369148055
1372872054.5,0.185565875,31.322499999999994,71.87833333333333,21.988671874999998,64.50581369148055
1372872054.75,0.185565875,31.322499999999994,71.90916668245333,22.747734375000004,64.50581369148055
1372872055.0,0.1855125,31.32083333333333,71.94,22.142864583333335,64.50581369148055
1372872055.25,0.18545912499999997,31.319166666666664,71.96749998592,22.043203125,64.50581369148055
1372872055.5,0.18540575,31.317499999999995,71.995,22.877317708333333,64.50581369148055
1372872055.75,0.185352375,31.314999999999998,72.02250001408,22.654843749999998,64.50581369148055
1372872056.0,0.185352375,31.311666666666667,72.05,21.190625,64.50581369148055
1372872056.25,0.185352375,31.308333333333334,72.07333332138667,21.512578124999994,64.50581369148055
1372872056.5,0.185245625,31.305000000000003,72.09666666666666,21.911744791666663,64.50581369148055
1372872056.75,0.18519225000000003,31.3025,72.12000001194666,19.957473958333335,64.50581369148055
1372872057.0,0.18508550000000001,31.30083333333333,72.14333333333333,20.026171875,64.50581369148055
1372872057.25,0.18497875,31.299166666666665,72.16583332181334,20.768098958333333,64.50581369148055
1372872057.5,0.18487200000000004,31.2975,72.18833333333333,18.747838541666663,64.50581369148055
1372872057.75,0.18481862500000001,31.2975,72.21083334485333,17.984713541666668,64.50581369148055
1372872058.0,0.18476525000000002,31.299166666666665,72.23333333333333,19.172291666666666,64.50581369148055
1372872058.25,0.184711875,31.30083333333333,72.25249999018666,18.222239583333334,64.50581369148055
1372872058.5,0.18465850000000003,31.3025,72.27166666666668,16.436666666666667,64.50581369148055
1372872058.75,0.184605125,31.304166666666664,72.29083334314667,17.231744791666667,64.50581369148055
1372872059.0,0.18455175000000001,31.305833333333336,72.31,17.767578125,64.50581369148055
1372872059.25,0.18449837500000002,31.3075,72.32999998976,15.921015625,64.50581369148055
1372872059.5,0.184445,31.309166666666666,72.35,16.284140625,64.50581369148055
1372872059.75,0.184284875,31.31,72.37000001024,18.142369791666663,64.50581369148055
1372872060.0,0.18417812499999997,31.31,72.39,17.207786458333334,64.50581369148055
1372872060.25,0.184071375,31.31,72.40749999104,17.0515625,64.50581369148055
1372872060.5,0.183964625,31.31,72.425,19.15236979166667,64.50581369148055
1372872060.75,0.18385787499999998,31.31,72.44250000896,18.791406249999998,64.50581369148055
1372872061.0,0.183751125,31.31,72.46,17.903723958333334,64.50581369148055
1372872061.25,0.183644375,31.31,72.47666665813333,19.65578125,64.50581369148055
1372872061.5,0.183537625,31.31,72.49333333333333,20.502005208333333,64.50581369148055
1372872061.75,0.1833775,31.31,72.51000000853332,19.033333333333335,64.50581369148055
1372872062.0,0.183217375,31.31,72.52666666666666,19.637552083333333,64.50581369148055
1372872062.25,0.18300387499999995,31.31,72.53999999317332,21.423489583333332,64.50581369148055
1372872062.5,0.18284374999999997,31.31,72.55333333333333,20.332135416666667,64.50581369148055
1372872062.75,0.182737,31.31,72.56666667349333,19.63390625,64.50581369148055
1372872063.0,0.18263025,31.31,72.58,21.12635416666667,64.50581369148055
1372872063.25,0.18252349999999998,31.31,72.59166666069333,20.7425,64.50581369148055
1372872063.5,0.18241675,31.31,72.60333333333332,19.439661458333333,64.50581369148055
1372872063.75,0.18231,31.31,72.61500000597333,20.857421875,64.50581369148055
1372872064.0,0.18220325,31.31,72.62666666666667,21.034947916666667,64.50581369148055
1372872064.25,0.1820965,31.31,72.63833332736,19.479479166666668,64.50581369148055
1372872064.5,0.18198974999999998,31.31,72.65,20.333723958333334,64.50581369148055
1372872064.75,0.181936375,31.31,72.66166667264,21.565859375,64.50581369148055
1372872065.0,0.181883,31.31,72.67333333333333,20.255651041666667,64.50581369148055
1372872065.25,0.181883,31.31,72.68583332693333,19.958072916666666,64.50581369148055
1372872065.5,0.181883,31.31,72.69833333333332,21.482239583333335,64.50581369148055
1372872065.75,0.181883,31.31,72.71083333973333,21.019427083333333,64.50581369148055
1372872066.0,0.181883,31.31,72.72333333333333,19.974557291666667,64.50581369148055
1372872066.25,0.181883,31.31,72.73833332565333,21.331536458333336,64.50581369148055
1372872066.5,0.181883,31.31,72.75333333333333,21.971145833333335,64.50581369148055
1372872066.75,0.181883,31.31,72.76833334101333,20.470208333333332,64.50581369148055
1372872067.0,0.181883,31.31,72.78333333333333,21.397734375,64.50581369148055
1372872067.25,0.181883,31.31,72.79999999146666,22.40942708333333,64.50581369148055
1372872067.5,0.181883,31.31,72.81666666666666,21.101510416666667,64.50581369148055
1372872067.75,0.181883,31.309166666666666,72.83333334186668,21.151822916666664,64.50581369148055
1372872068.0,0.181883,31.3075,72.85000000000001,22.185625,64.50581369148055
1372872068.25,0.181883,31.305833333333336,72.86833332394667,21.60328125,64.50581369148055
1372872068.5,0.18182962499999997,31.304166666666664,72.88666666666667,21.20643229166667,64.50581369148055
1372872068.75,0.18177625,31.3025,72.90500000938667,22.225755208333336,64.50581369148055
1372872069.0,0.18172287499999998,31.300833333333333,72.92333333333333,22.146901041666666,64.50581369148055
1372872069.25,0.18172287499999998,31.299166666666665,72.94249999018666,21.286276041666664,64.50581369148055
1372872069.5,0.18172287499999998,31.2975,72.96166666666667,21.85661458333333,64.50581369148055
1372872069.75,0.18172287499999998,31.295833333333334,72.98083334314667,22.498229166666665,64.50581369148055
1372872070.0,0.18172287499999998,31.294166666666666,73.0,21.522161458333333,64.50581369148055
1372872070.25,0.18172287499999998,31.2925,73.02083332266666,21.827447916666667,64.50581369148055
1372872070.5,0.18177625,31.290833333333328,73.04166666666666,22.41919270833333,64.50581369148055
1372872070.75,0.18177625,31.29,73.06250001066667,21.600052083333328,64.50581369148055
1372872071.0,0.18177624999999997,31.29,73.08333333333333,22.325781249999995,64.50581369148055
1372872071.25,0.181829625,31.29,73.104166656,22.74859375,64.50581369148055
1372872071.5,0.18198975000000003,31.29,73.125,21.418854166666666,64.50581369148055
1372872071.75,0.182149875,31.29,73.145833344,21.473203124999998,64.50581369148055
1372872072.0,0.18230999999999997,31.29,73.16666666666667,22.468333333333334,64.50581369148055
1372872072.25,0.18241675,31.29,73.18499999061333,21.46625,64.50581369148055
1372872072.5,0.18252350000000003,31.29,73.20333333333333,20.289635416666666,64.50581369148055
1372872072.75,0.18263025,31.29,73.22166667605333,21.245572916666667,64.50581369148055
1372872073.0,0.182737,31.29,73.24,21.137734374999997,64.50581369148055
1372872073.25,0.18279037500000003,31.29,73.25499999232,19.465,64.50581369148055
1372872073.5,0.18273699999999996,31.29,73.27,19.82875,64.50581369148055
1372872073.75,0.18273699999999996,31.29,73.28500000768,20.045312499999998,64.50581369148055
1372872074.0,0.18279037500000003,31.29,73.3,17.816171875,64.50581369148055
1372872074.25,0.182737,31.29,73.3124999936,17.919583333333332,64.50581369148055
1372872074.5,0.18263025,31.29,73.32499999999999,19.180833333333336,64.50581369148055
1372872074.75,0.18252350000000003,31.29,73.33750000639999,17.515182291666665,64.50581369148055
1372872075.0,0.18241675000000002,31.29,73.35,16.434010416666666,64.50581369148055
1372872075.25,0.18230999999999997,31.29,73.36083332778666,17.910885416666666,64.50581369148055
1372872075.5,0.18220324999999996,31.29,73.37166666666667,17.99578125,64.50581369148055
1372872075.75,0.18214987500000002,31.29,73.38250000554666,15.965286458333333,64.50581369148055
1372872076.0,0.182043125,31.29,73.39333333333333,16.718854166666667,64.50581369148055
1372872076.25,0.18198974999999998,31.29,73.40333332821334,17.975911458333332,64.50581369148055
1372872076.5,0.182043125,31.29,73.41333333333333,16.455703125000003,64.50581369148055
1372872076.75,0.18214987500000002,31.29,73.42333333845333,16.72671875,64.50581369148055
1372872077.0,0.182149875,31.29,73.43333333333334,18.189505208333333,64.50581369148055
1372872077.25,0.18220325,31.29,73.43999999658666,16.98244791666667,64.50581369148055
1372872077.5,0.18225662499999998,31.29,73.44666666666666,16.699296874999998,64.50581369148055
1372872077.75,0.18225662499999998,31.290833333333335,73.45333333674667,18.238802083333333,64.50581369148055
1372872078.0,0.18225662500000003,31.2925,73.46,17.805833333333336,64.50581369148055
1372872078.25,0.18225662500000003,31.29416666666667,73.46583333034667,16.61822916666667,64.50581369148055
1372872078.5,0.18225662500000003,31.29583333333333,73.47166666666666,17.72067708333333,64.50581369148055
1372872078.75,0.18220325,31.296666666666663,73.47750000298666,18.690807291666665,64.50581369148055
1372872079.0,0.18220325,31.296666666666667,73.48333333333333,17.230807291666668,64.50581369148055
1372872079.25,0.182149875,31.296666666666663,73.48749999786666,17.53348958333333,64.50581369148055
1372872079.5,0.18198974999999998,31.296666666666667,73.49166666666667,19.105807291666665,64.50581369148055
1372872079.75,0.18177624999999997,31.296666666666667,73.49583333546667,18.287682291666666,64.50581369148055
1372872080.0,0.18161612500000002,31.296666666666663,73.5,18.445078125,64.50581369148055
1372872080.25,0.18145599999999998,31.296666666666667,73.50416666453333,20.190729166666667,64.50581369148055
1372872080.5,0.181295875,31.296666666666667,73.50833333333333,19.244348958333333,64.50581369148055
1372872080.75,0.18118912499999998,31.29583333333333,73.51250000213334,18.842682291666666,64.50581369148055
1372872081.0,0.181082375,31.294166666666666,73.51666666666667,20.737005208333333,64.50581369148055
1372872081.25,0.180975625,31.2925,73.51916666538666,21.05171875,64.50581369148055
1372872081.5,0.180868875,31.290833333333335,73.52166666666668,19.818515625,64.50581369148055
1372872081.75,0.180762125,31.29,73.52416666794667,20.802057291666667,64.50581369148055
1372872082.0,0.18060204166666669,31.29,73.52666666666667,22.351927083333333,64.50581369148055
1372872082.25,0.18044200000000002,31.29,73.52916666538667,21.103177083333332,64.50581369148055
1372872082.5,0.18033533333333338,31.29,73.53166666666667,21.077630208333336,64.50581369148055
1372872082.75,0.18022866666666668,31.29,73.53416666794668,22.617499999999996,64.50581369148055
1372872083.0,0.180122,31.29,73.53666666666668,21.739088541666664,64.50581369148055
1372872083.25,0.18001533333333333,31.29,73.53999999829334,20.899869791666667,64.50581369148055
1372872083.5,0.1799086666666667,31.29,73.54333333333334,22.388828125,64.50581369148055
1372872083.75,0.17980200000000002,31.29,73.54666666837333,22.104140625,64.50581369148055
1372872084.0,0.17969533333333335,31.29,73.55,20.92455729166667,64.50581369148055
1372872084.25,0.17953529166666668,31.29,73.55416666453333,21.977864583333332,64.50581369148055
1372872084.5,0.179321875,31.29,73.55833333333334,22.702994791666665,64.50581369148055
1372872084.75,0.17910845833333333,31.29,73.56250000213333,20.747604166666665,64.50581369148055
1372872085.0,0.17894837500000002,31.29,73.56666666666666,20.124765625,64.50581369148055
1372872085.25,0.178841625,31.29,73.57083333119999,21.404609375000003,64.50581369148055
1372872085.5,0.178734875,31.29,73.57499999999999,20.28606770833333,64.50581369148055
1372872085.75,0.17862812500000003,31.29,73.5791666688,18.893515625,64.50581369148055
1372872086.0,0.17852137499999998,31.29,73.58333333333333,19.948645833333334,64.50581369148055
1372872086.25,0.17841462500000002,31.29,73.58583333205333,19.691197916666667,64.50581369148055
1372872086.5,0.178307875,31.29,73.58833333333334,18.40203125,64.50581369148055
1372872086.75,0.17814775000000002,31.29,73.59083333461334,19.43546875,64.50581369148055
1372872087.0,0.177987625,31.29,73.59333333333333,19.093072916666667,64.50581369148055
1372872087.25,0.17788087500000002,31.29,73.59333333333333,17.226458333333333,64.50581369148055
1372872087.5,0.177774125,31.29,73.59333333333333,17.536458333333332,64.50581369148055
1372872087.75,0.17772075,31.29,73.59333333333332,19.26744791666667,64.50581369148055
1372872088.0,0.177667375,31.29,73.59333333333332,18.851328125,64.50581369148055
1372872088.25,0.17761400000000002,31.29,73.59083333461332,18.336380208333335,64.50581369148055
1372872088.5,0.17750725,31.29,73.58833333333332,19.98119791666667,64.50581369148055
1372872088.75,0.1774005,31.29,73.58583333205333,20.470911458333337,64.50581369148055
1372872089.0,0.17729375,31.29,73.58333333333333,19.470807291666667,64.50581369148055
1372872089.25,0.177187,31.29,73.5791666688,20.604635416666667,64.50581369148055
1372872089.5,0.17708025000000002,31.29,73.57499999999999,21.506901041666666,64.50581369148055
1372872089.75,0.177026875,31.29,73.57083333119999,20.325729166666665,64.50581369148055
1372872090.0,0.1769735,31.29,73.56666666666666,21.67682291666667,64.50581369148055
1372872090.25,0.176920125,31.29,73.56250000213333,23.231536458333334,64.50581369148055
1372872090.5,0.176920125,31.29,73.55833333333334,21.929114583333334,64.50581369148055
1372872090.75,0.17686675,31.29,73.55416666453333,21.800364583333334,64.50581369148055
1372872091.0,0.17681337499999997,31.29,73.55,23.2696875,64.50581369148055
1372872091.25,0.17676,31.29,73.54583333546665,22.6178125,64.50581369148055
1372872091.5,0.17676,31.29,73.54166666666666,21.250703124999998,64.50581369148055
1372872091.75,0.17676,31.29,73.53749999786666,22.488072916666667,64.50581369148055
1372872092.0,0.17676,31.29,73.53333333333332,22.814088541666663,64.50581369148055
1372872092.25,0.17676,31.29,73.52916666879999,21.211145833333333,64.50581369148055
1372872092.5,0.17676,31.29,73.52499999999999,21.73546875,64.50581369148055
1372872092.75,0.17676,31.29,73.5208333312,22.239687500000002,64.50581369148055
1372872093.0,0.17676,31.29,73.51666666666667,20.575364583333336,64.50581369148055
1372872093.25,0.17676,31.29,73.51250000213334,20.753645833333334,64.50581369148055
1372872093.5,0.17676,31.29,73.50833333333333,22.049765624999996,64.50581369148055
1372872093.75,0.17676,31.29,73.50416666453333,20.813697916666666,64.50581369148055
1372872094.0,0.17676,31.29,73.5,20.10526041666667,64.50581369148055
1372872094.25,0.17676,31.29,73.49583333546667,21.498203125000003,64.50581369148055
1372872094.5,0.176706625,31.29,73.49166666666667,21.74984375,64.50581369148055
1372872094.75,0.176599875,31.29,73.48749999786666,20.624401041666665,64.50581369148055
1372872095.0,0.176493125,31.29,73.48333333333333,21.418072916666663,64.50581369148055
1372872095.25,0.176386375,31.29,73.48083333461334,22.506328125,64.50581369148055
1372872095.5,0.17627962500000002,31.29,73.47833333333332,22.014244791666666,64.50581369148055
1372872095.75,0.176172875,31.28916666666667,73.47583333205333,22.507369791666665,64.50581369148055
1372872096.0,0.176066125,31.287499999999998,73.47333333333333,23.42953125,64.50581369148055
1372872096.25,0.175959375,31.28583333333333,73.47250000042666,22.96513020833333,64.50581369148055
1372872096.5,0.17585262499999998,31.284166666666668,73.47166666666666,23.197942708333333,64.50581369148055
1372872096.75,0.17574587500000002,31.2825,73.47083333290666,24.141588541666668,64.50581369148055
1372872097.0,0.175639125,31.280833333333334,73.47,23.947994791666662,64.50581369148055
1372872097.25,0.175532375,31.27916666666667,73.47249999872,24.027005208333335,64.50581369148055
1372872097.5,0.175479,31.2775,73.475,24.77135416666667,64.50581369148055
1372872097.75,0.175479,31.275833333333335,73.47750000128,24.517916666666665,64.50581369148055
1372872098.0,0.175479,31.274166666666662,73.48,24.310338541666667,64.50581369148055
1372872098.25,0.175479,31.272500000000004,73.48499999744,24.70106770833333,64.50581369148055
1372872098.5,0.175479,31.270833333333332,73.49000000000001,24.157265624999997,64.50581369148055
1372872098.75,0.175479,31.27,73.49500000256,24.127552083333338,64.50581369148055
1372872099.0,0.175479,31.27,73.5,24.812916666666666,64.50581369148055
1372872099.25,0.175479,31.27,73.50833332906667,24.185703125000003,64.50581369148055
1372872099.5,0.175425625,31.27,73.51666666666667,23.794973958333333,64.50581369148055
1372872099.75,0.17531887499999999,31.270833333333332,73.52500000426666,24.607916666666668,64.50581369148055
1372872100.0,0.1752655,31.272499999999997,73.53333333333333,24.284114583333334,64.50581369148055
1372872100.25,0.17515875,31.27416666666667,73.5416666624,23.003749999999997,64.50581369148055
1372872100.5,0.17505199999999999,31.275833333333335,73.55,23.439739583333335,64.50581369148055
1372872100.75,0.17494524999999997,31.2775,73.55833333759999,24.045026041666663,64.50581369148055
1372872101.0,0.1748385,31.27916666666667,73.56666666666666,22.778489583333336,64.50581369148055
1372872101.25,0.17473175,31.280833333333334,73.57499999573334,22.534505208333332,64.50581369148055
1372872101.5,0.174625,31.2825,73.58333333333333,23.419505208333334,64.50581369148055
1372872101.75,0.17457162499999998,31.284166666666668,73.59166667093332,22.129140625,64.50581369148055
1372872102.0,0.17451824999999999,31.28583333333333,73.6,21.292552083333334,64.50581369148055
1372872102.25,0.174464875,31.287499999999998,73.60666666325334,22.124166666666667,64.50581369148055
1372872102.5,0.17451825,31.28916666666667,73.61333333333333,21.11734375,64.50581369148055
1372872102.75,0.174625,31.289166666666663,73.62000000341332,19.71486979166667,64.50581369148055
1372872103.0,0.174625,31.287500000000005,73.62666666666667,20.462317708333334,64.50581369148055
1372872103.25,0.17473175,31.285833333333333,73.6308333312,20.665130208333334,64.50738787828077
1372872103.5,0.1748385,31.284166666666664,73.63499999999999,19.194817708333336,64.50932533895794
1372872103.75,0.174891875,31.2825,73.6391666688,19.246432291666668,64.51126279963513
1372872104.0,0.174891875,31.280833333333334,73.64333333333333,20.211432291666668,64.5132002603123
1372872104.25,0.174891875,31.279166666666665,73.64499999914666,19.214140625000002,64.51513772098949
1372872104.5,0.174891875,31.2775,73.64666666666668,18.8790625,64.51707518166666
1372872104.75,0.1748385,31.275833333333335,73.64833333418667,19.95505208333333,64.51901264234384
1372872105.0,0.174785125,31.27416666666667,73.65,19.425546875,64.52095010302102
1372872105.25,0.17473175,31.272499999999997,73.65,19.497265625,64.5228875636982
1372872105.5,0.174625,31.270833333333332,73.65,20.979453125000003,64.52482502437537
1372872105.75,0.174464875,31.27,73.65,20.82578125,64.52676248505257
1372872106.0,0.174358125,31.27,73.65,20.59643229166667,64.52869994572974
1372872106.25,0.17414462499999997,31.27,73.64833333418667,21.749427083333334,64.52906321960671
1372872106.5,0.173931125,31.27,73.64666666666668,21.838697916666664,64.52906321960671
1372872106.75,0.17377099999999998,31.27,73.64499999914666,20.984479166666667,64.52906321960671
1372872107.0,0.17366424999999996,31.27,73.64333333333333,21.685286458333334,64.52906321960671
1372872107.25,0.173504125,31.27,73.6391666688,22.542708333333334,64.52906321960671
1372872107.5,0.173290625,31.27,73.63499999999999,21.494661458333336,64.52906321960671
1372872107.75,0.17307712499999997,31.27,73.6308333312,21.781562500000003,64.52906321960671
1372872108.0,0.172863625,31.27,73.62666666666667,22.921015625,64.52906321960671
1372872108.25,0.17259675,31.27,73.62000000341332,21.651536458333336,64.52906321960671
1372872108.5,0.172329875,31.27,73.61333333333333,21.265624999999996,64.52906321960671
1372872108.75,0.172116375,31.27,73.60666666325334,22.298984375,64.52906321960671
1372872109.0,0.171902875,31.27,73.6,21.174062499999998,64.52906321960671
1372872109.25,0.171689375,31.27,73.59333333674665,20.377760416666664,64.52906321960671
1372872109.5,0.17147587500000003,31.27,73.58666666666666,21.572942708333333,64.52906321960671
1372872109.75,0.171262375,31.27,73.57999999658666,21.44526041666667,64.52906321960671
1372872110.0,0.17104887500000002,31.27,73.57333333333332,19.888723958333333,64.52906321960671
1372872110.25,0.17088875,31.27,73.56750000298666,20.374427083333334,64.52906321960671
1372872110.5,0.17078200000000002,31.27,73.56166666666667,21.39072916666667,64.52906321960671
1372872110.75,0.17067525000000003,31.27,73.55583333034666,19.823333333333334,64.52906321960671
1372872111.0,0.1705685,31.27,73.55,19.386614583333333,64.52906321960671
1372872111.25,0.17051512500000002,31.27,73.54416666965332,20.70479166666667,64.52906321960671
1372872111.5,0.17046175,31.27,73.53833333333333,19.366692708333336,64.52906321960671
1372872111.75,0.17040837500000003,31.27,73.53249999701333,18.684114583333333,64.52906321960671
1372872112.0,0.170355,31.27,73.52666666666666,19.990286458333333,64.52906321960671
1372872112.25,0.170355,31.27,73.52000000341333,19.036171875,64.52906321960671
1372872112.5,0.170355,31.27,73.51333333333332,17.957890625,64.52906321960671
1372872112.75,0.170355,31.27,73.50666666325333,19.082369791666668,64.52906321960671
1372872113.0,0.170355,31.27,73.5,19.264583333333334,64.52906321960671
1372872113.25,0.170355,31.27,73.49166667093334,17.732031250000002,64.52906321960671
1372872113.5,0.17030166666666668,31.27,73.48333333333335,18.049036458333333,64.52906321960671
1372872113.75,0.17019499999999999,31.27,73.47499999573334,19.19390625,64.52906321960671
1372872114.0,0.17008833333333337,31.27,73.46666666666668,18.226640624999998,64.52906321960671
1372872114.25,0.1699816666666667,31.27,73.46000000341334,18.0203125,64.52906321960671
1372872114.5,0.169875,31.27,73.45333333333335,19.501744791666667,64.52906321960671
1372872114.75,0.16976833333333333,31.27,73.44666666325335,19.150468749999998,64.52906321960671
1372872115.0,0.16966166666666668,31.27,73.44000000000001,19.025598958333333,64.52906321960671
1372872115.25,0.169555,31.27,73.43416666965334,20.76875,64.52906321960671
1372872115.5,0.16939495833333332,31.27,73.42833333333334,20.58684895833333,64.52906321960671
1372872115.75,0.16918154166666666,31.269166666666663,73.42249999701335,20.254296874999998,64.52906321960671
1372872116.0,0.16896812500000002,31.2675,73.41666666666667,21.881822916666664,64.52906321960671
1372872116.25,0.16875470833333336,31.265833333333333,73.41250000213333,22.407578125,64.52906321960671
1372872116.5,0.168594625,31.264166666666664,73.40833333333333,21.497604166666665,64.52906321960671
1372872116.75,0.16848787499999998,31.2625,73.40416666453334,22.394895833333333,64.52906321960671
1372872117.0,0.16838112500000002,31.260833333333334,73.39999999999999,23.655755208333332,64.52906321960671
1372872117.25,0.168274375,31.259166666666662,73.39583333546666,22.76622395833333,64.52906321960671
1372872117.5,0.16811425,31.257499999999997,73.39166666666667,22.926640625,64.52906321960671
1372872117.75,0.16790075000000002,31.25583333333333,73.38749999786667,24.109427083333333,64.52906321960671
1372872118.0,0.167740625,31.254166666666663,73.38333333333334,23.094973958333338,64.52906321960671
1372872118.25,0.167527125,31.252499999999998,73.38083333461334,22.326848958333333,64.52906321960671
1372872118.5,0.16736700000000002,31.250833333333333,73.37833333333333,23.187682291666665,64.52906321960671
1372872118.75,0.16726025,31.25,73.37583333205333,22.309895833333332,64.52906321960671
1372872119.0,0.16715349999999998,31.25,73.37333333333333,21.20325520833333,64.52906321960671
1372872119.25,0.16704675,31.25,73.37083333461334,21.983437499999997,64.52906321960671
1372872119.5,0.16694,31.25,73.36833333333334,21.989895833333335,64.52906321960671
1372872119.75,0.16683325000000002,31.25,73.36583333205333,20.458541666666665,64.52906321960671
1372872120.0,0.166673125,31.25,73.36333333333333,20.521276041666663,64.52906321960671
1372872120.25,0.166459625,31.25,73.36166666752,21.148177083333334,64.52906321960671
1372872120.5,0.16629950000000002,31.25,73.36,19.813854166666665,64.52906321960671
1372872120.75,0.16619275,31.25,73.35833333248,19.547239583333333,64.52906321960671
1372872121.0,0.166032625,31.25,73.35666666666667,20.608515625,64.52906321960671
1372872121.25,0.1658725,31.25,73.35666666666667,19.91901041666667,64.52906321960671
1372872121.5,0.165712375,31.25,73.35666666666667,19.9865625,64.52906321960671
1372872121.75,0.16549887500000002,31.25,73.35666666666667,21.09453125,64.52906321960671
1372872122.0,0.16528537499999998,31.25,73.35666666666667,20.467447916666668,64.52906321960671
1372872122.25,0.165071875,31.25,73.35916666538667,20.346770833333334,64.52906321960671
1372872122.5,0.164858375,31.25,73.36166666666666,21.400104166666665,64.52906321960671
1372872122.75,0.164644875,31.25,73.36416666794666,21.459348958333333,64.52906321960671
1372872123.0,0.16448475,31.25,73.36666666666666,21.004140625,64.52906321960671
1372872123.25,0.164378,31.25,73.37333332992,21.780937499999997,64.52906321960671
1372872123.5,0.16427125,31.25,73.38,22.37294270833333,64.52906321960671
1372872123.75,0.16411112500000002,31.25,73.38666667007999,21.651927083333334,64.52906321960671
1372872124.0,0.16389762500000002,31.25,73.39333333333333,22.05622395833333,64.52906321960671
1372872124.25,0.1637375,31.25,73.40249999530667,22.857760416666668,64.52906321960671
1372872124.5,0.16357737500000002,31.25,73.41166666666666,22.329921875,64.52906321960671
1372872124.75,0.163470625,31.25,73.42083333802667,22.704296874999997,64.52906321960671
1372872125.0,0.16336387500000002,31.25,73.43,23.363489583333333,64.52906321960671
1372872125.25,0.163257125,31.25,73.44249999360001,22.443098958333337,64.52906321960671
1372872125.5,0.16315037500000001,31.25,73.45500000000001,22.561510416666664,64.52906321960671
1372872125.75,0.163043625,31.25,73.4675000064,23.421666666666667,64.52906321960671
1372872126.0,0.162936875,31.25,73.48,22.769843750000003,64.52906321960671
