timestamp,EDA,TEMP,HR,BVP,ACC_mag
1372579184.0,0.9223434166666666,34.05,,11.168333333333335,64.21156338318342
1372579184.25,0.9257434285714286,34.05,,10.560714285714285,64.2103119965998
1372579184.5,0.930454625,34.05,,10.204375,64.20937345666209
1372579184.75,0.9358976666666666,34.05,,10.436666666666667,64.20864348115498
1372579185.0,0.9402521,34.05,,10.314499999999999,64.20805950074929
1372579185.25,0.9454448181818182,34.05,,9.717982954545455,64.20758169859918
1372579185.5,0.9510527916666667,34.05,,9.038359375,64.20718353014075
1372579185.75,0.96023125,34.05,,8.614401041666666,64.20523692878847
1372579186.0,0.9699967083333334,34.05,,8.151640625,64.20329032743616
1372579186.25,0.9800823333333333,34.05,,7.202317708333333,64.20280367709809
1372579186.5,0.9907015833333332,34.05,,5.723645833333333,64.20280367709809
1372579186.75,1.0012674583333334,34.05,,4.702760416666667,64.20280367709809
1372579187.0,1.0114064166666665,34.05,,4.043671875,64.20280367709809
1372579187.25,1.021065125,34.05,,3.1996614583333334,64.20280367709809
1372579187.5,1.029443125,34.05,,2.162786458333333,64.20280367709809
1372579187.75,1.03659375,34.049166666666665,,0.591328125,64.20280367709809
1372579188.0,1.043851125,34.04749999999999,,-0.6586979166666668,64.20280367709809
1372579188.25,1.0497210416666667,34.045833333333334,,-1.08125,64.20280367709809
1372579188.5,1.0544703333333334,34.04416666666666,,-1.1377604166666668,64.20280367709809
1372579188.75,1.0585259166666667,34.0425,,-0.8905729166666667,64.20280367709809
1372579189.0,1.0619411666666665,34.04083333333333,,-0.649765625,64.20280367709809
1372579189.25,1.0648761666666666,34.03916666666667,,-0.7840364583333334,64.20280367709809
1372579189.5,1.0671707916666666,34.0375,,-1.1331770833333334,64.20280367709809
1372579189.75,1.068985125,34.035833333333336,,-1.4972395833333334,64.20280367709809
1372579190.0,1.07069275,34.034166666666664,,-1.604947916666667,64.20280367709809
1372579190.25,1.0721869166666667,34.032500000000006,,-1.45828125,64.20280367709809
1372579190.5,1.0735210000000002,34.030833333333334,,-1.068203125,64.20280367709809
1372579190.75,1.074855125,34.03,,-0.4850260416666667,64.20280367709809
1372579191.0,1.0760825,34.03,,-0.07513020833333334,64.20280367709809
1372579191.25,1.0772031666666668,34.03,,-0.10901041666666667,64.20280367709809
1372579191.5,1.0782170833333333,34.03,,-0.35656249999999995,64.20280367709809
1372579191.75,1.0791775833333335,34.03,,-0.8502604166666666,64.20280367709809
1372579192.0,1.0801380833333332,34.03,,-1.075859375,64.20280367709809
1372579192.25,1.0810452083333335,34.03,,-0.9315885416666667,64.20280367709809
1372579192.5,1.08200575,34.03,,-0.72328125,64.20280367709809
1372579192.75,1.0838201250000001,34.03,,-0.24932291666666664,64.20280367709809
1372579193.0,1.086648375,34.03,,-0.03825520833333334,64.20280367709809
1372579193.25,1.0904904999999998,34.03,,0.31796874999999997,64.20280367709809
1372579193.5,1.0951864166666665,34.03,,0.3677083333333333,64.20280367709809
1372579193.75,1.1005760416666666,34.03,,0.22799479166666667,64.20280367709809
1372579194.0,1.1069262083333333,34.03,77.25,0.3349479166666666,64.20280367709809
1372579194.25,1.1151974583333333,34.03,77.22916667733334,0.4354166666666666,64.20280367709809
1372579194.5,1.1266705416666667,34.03,77.20833333333334,0.743125,64.20280367709809
1372579194.75,1.1418790833333334,34.03,77.18749998933333,0.9247656249999999,64.20280367709809
1372579195.0,1.1601292916666668,34.03,77.16666666666667,0.7407552083333333,64.20280367709809
1372579195.25,1.1796602083333332,34.03,77.12500002133334,0.9005208333333333,64.20280367709809
1372579195.5,1.1988709166666667,34.03,77.08333333333334,1.3138541666666665,64.20280367709809
1372579195.75,1.2171210833333335,34.028749999999995,77.04166664533334,1.5059895833333332,64.20280367709809
1372579196.0,1.234250625,34.02625,77.0,1.7129427083333333,64.20280367709809
1372579196.25,1.2503662916666667,34.02375,77.11666660693334,1.8372916666666665,64.20280367709809
1372579196.5,1.2656281666666669,34.02125,77.23333333333333,2.3311979166666665,64.20280367709809
1372579196.75,1.2797694166666667,34.01875,77.35000005973333,3.0308333333333337,64.20280367709809
1372579197.0,1.291882875,34.01625,77.46666666666667,3.4529687499999997,64.20280367709809
1372579197.25,1.3009546250000001,34.013749999999995,77.75833318400001,3.8846614583333334,64.20280367709809
1372579197.5,1.3062375416666667,34.01125,78.05000000000001,4.154973958333334,64.20280367709809
1372579197.75,1.3077316666666667,34.00875,78.341666816,4.506770833333333,64.20280367709809
1372579198.0,1.3061307500000001,34.00625,78.63333333333334,4.9504166666666665,64.20280367709809
1372579198.25,1.3030890416666667,34.00375,79.03833312597334,4.963411458333334,64.20280367709809
1372579198.5,1.3000473333333333,34.00125,79.44333333333333,4.8924739583333325,64.20280367709809
1372579198.75,1.2968455416666667,34.001250000000006,79.84833354069333,4.869557291666667,64.20280367709809
1372579199.0,1.2934302916666667,34.003750000000004,80.25333333333333,4.811796875,64.20280367709809
1372579199.25,1.2898015833333334,34.00625,80.65749979306666,4.8500000000000005,64.20280367709809
1372579199.5,1.286172875,34.00875,81.06166666666667,4.710494791666666,64.20280367709809
1372579199.75,1.2828643333333334,34.011250000000004,81.46583354026667,4.416692708333334,64.20280367709809
1372579200.0,1.2806230416666666,34.01375,81.87,4.5076302083333335,64.20280367709809
1372579200.25,1.2792355416666665,34.01625000000001,82.19833316522667,4.820052083333334,64.20280367709809
1372579200.5,1.277688,34.018750000000004,82.52666666666667,5.046223958333333,64.20280367709809
1372579200.75,1.2752332916666667,34.02125,82.85500016810667,5.035651041666667,64.20280367709809
1372579201.0,1.2720315,34.02375,83.18333333333334,5.058255208333334,64.20280367709809
1372579201.25,1.2680292499999999,34.026250000000005,83.47833318229334,5.240130208333333,64.20280367709809
1372579201.5,1.2632799166666666,34.02875,83.77333333333334,5.408229166666666,64.20280367709809
1372579201.75,1.2582104166666666,34.03,84.06833348437333,5.2169791666666665,64.20280367709809
1372579202.0,1.252874125,34.03,84.36333333333333,4.894453125,64.20280367709809
1372579202.25,1.2471642916666668,34.03,84.65333318485332,4.4859374999999995,64.20280367709809
1372579202.5,1.2410275416666667,34.03,84.94333333333333,4.134114583333333,64.20280367709809
1372579202.75,1.234570625,34.03,85.23333348181333,4.0379427083333335,64.20280367709809
1372579203.0,1.22790025,34.03,85.52333333333333,3.4458072916666667,64.20280367709809
1372579203.25,1.2213899583333334,34.03,85.80583318869333,2.7394531250000003,64.20280367709809
1372579203.5,1.2151998333333334,34.03,86.08833333333332,2.1410677083333334,64.20280367709809
1372579203.75,1.2098635416666668,34.028749999999995,86.37083347797332,1.8311197916666666,64.20280367709809
1372579204.0,1.2052743333333333,34.02625,86.65333333333332,1.9904166666666665,64.20438529069683
1372579204.25,1.2014855833333333,34.02375,86.92749985962666,1.9276822916666665,64.20633189204912
1372579204.5,1.1984439166666665,34.02125,87.20166666666665,1.5920572916666667,64.20827849340142
1372579204.75,1.1958825,34.01875,87.47583347370666,2.0139583333333335,64.21022509475372
1372579205.0,1.1938013333333333,34.01625,87.75,2.7983333333333333,64.21217169610601
1372579205.25,1.1933210833333334,34.013749999999995,87.99249987584,3.521041666666667,64.21411829745831
1372579205.5,1.1947619166666665,34.01125,88.23499999999999,3.8571614583333336,64.21606489881061
1372579205.75,1.1978570000000002,34.01,88.47750012415999,4.04796875,64.21801150016292
1372579206.0,1.2021260833333332,34.01,88.71999999999998,4.584270833333333,64.2199581015152
1372579206.25,1.20714225,34.01,88.93999988735999,4.91640625,64.22190470286749
1372579206.5,1.2125319583333332,34.01,89.16,5.193359375,64.22385130421979
1372579206.75,1.217975,34.011250000000004,89.38000011264,5.275416666666667,64.2257979055721
1372579207.0,1.2234180416666667,34.01375,89.60000000000001,4.831484375,64.22616289332565
1372579207.25,1.2288610833333333,34.01625000000001,89.80833322666668,4.60375,64.22616289332565
1372579207.5,1.2343041250000002,34.018750000000004,90.01666666666668,4.767083333333333,64.22616289332565
1372579207.75,1.2396937916666668,34.02125,90.22500010666667,4.408723958333334,64.22616289332565
1372579208.0,1.2447099166666666,34.02375,90.43333333333334,3.7578385416666666,64.22616289332565
1372579208.25,1.2484986666666666,34.026250000000005,90.61999990442666,3.2249999999999996,64.22616289332565
1372579208.5,1.2504730833333333,34.02875,90.80666666666667,3.190442708333333,64.22758160224434
1372579208.75,1.2508465833333333,34.030833333333334,90.99333342890667,2.9316927083333333,64.2308243654871
1372579209.0,1.2502595416666666,34.0325,91.17999999999999,2.788776041666667,64.23520127188202
1372579209.25,1.2490321666666666,34.034166666666664,91.34916658005334,2.769609375,64.24298060773356
1372579209.5,1.2478047916666666,34.035833333333336,91.51833333333333,2.700911458333333,64.2507599435851
1372579209.75,1.2465774166666665,34.0375,91.68750008661334,3.1110677083333336,64.2585392794366
1372579210.0,1.2453500416666665,34.03916666666667,91.85666666666667,3.2949479166666666,64.26631861528814
1372579210.25,1.2452432916666665,34.04083333333333,91.99083326464,3.4136197916666666,64.27409795113967
1372579210.5,1.2473244583333332,34.0425,92.125,4.200625,64.2818772869912
1372579210.75,1.2519670416666664,34.04333333333333,92.25916673536,7.656796875,64.28965662284273
1372579211.0,1.2587974999999998,34.04333333333333,92.39333333333333,12.117109375,64.30140005399979
1372579211.25,1.2676024166666666,34.04333333333333,92.47333329237333,13.795104166666668,64.33466081930952
1372579211.5,1.2788620416666665,34.04333333333333,92.55333333333333,15.008281249999998,64.39327899666593
1372579211.75,1.2912956666666666,34.04125,92.63333337429333,19.578619791666668,64.44822647299435
1372579212.0,1.30501,34.03708333333333,92.71333333333332,20.852890625,64.48552786259368
1372579212.25,1.3201159166666667,34.032916666666665,92.73999998634666,20.979973958333336,64.52525246580826
1372579212.5,1.3365025416666667,34.028749999999995,92.76666666666665,17.249791666666667,64.57943473184076
1372579212.75,1.3543258333333332,34.02583333333333,92.79333334698666,11.035104166666668,64.63052977131146
1372579213.0,1.37444375,34.024166666666666,92.82,9.814791666666666,64.6885142959038
1372579213.25,1.3958998750000002,34.0225,92.82249999871999,8.536536458333334,64.74701210196055
1372579213.5,1.41885425,34.020833333333336,92.82499999999999,6.116510416666666,64.86000535729866
1372579213.75,1.4423956250000003,34.02,92.82750000128,0.34812500000000024,64.99907809764957
1372579214.0,1.4641226666666667,34.02,92.83,-6.750182291666667,65.18358711611647
1372579214.25,1.4840887083333334,34.02,92.82833333418667,-10.495260416666666,65.2806156991935
1372579214.5,1.5019202083333332,34.02,92.82666666666667,-13.432682291666666,65.3082155244608
1372579214.75,1.5188445416666667,34.022083333333335,92.82499999914667,-20.251588541666667,65.382677564312
1372579215.0,1.5344881666666668,34.026250000000005,92.82333333333334,-24.056197916666665,65.57121313152562
1372579215.25,1.5482065833333334,34.03041666666667,92.82166666752,-25.609635416666666,65.69757186620625
1372579215.5,1.5595236666666665,34.03458333333334,92.82,-21.81953125,65.79612168104242
1372579215.75,1.5694040833333336,34.0375,92.81833333248,-15.744244791666667,65.90563231235261
1372579216.0,1.576989875,34.03916666666667,92.81666666666666,-15.464947916666667,65.9600883576551
1372579216.25,1.5821168333333333,34.04083333333333,92.81333333504,-15.126666666666667,65.99110198521636
1372579216.5,1.583557625,34.0425,92.81,-14.415286458333334,65.88844066742307
1372579216.75,1.5819033750000002,34.04583333333333,92.80666666495999,-12.935130208333334,65.77245777918125
1372579217.0,1.5803024583333334,34.05083333333334,92.80333333333333,-11.047213541666666,65.5219077026613
1372579217.25,1.580089,34.05583333333333,92.80000000170666,-9.80046875,65.47726432094493
1372579217.5,1.5810495416666666,34.060833333333335,92.79666666666667,-9.126041666666667,65.4077388827989
1372579217.75,1.5830773333333334,34.06666666666666,92.79333333162667,-7.437317708333334,65.28987373066617
1372579218.0,1.5862791250000001,34.07333333333333,92.79,-5.239322916666667,65.01661844933531
1372579218.25,1.5906549166666668,34.080000000000005,92.78583333546666,-4.171927083333333,64.90389819340787
1372579218.5,1.5963647916666668,34.086666666666666,92.78166666666667,-5.091145833333333,64.79415021460805
1372579218.75,1.6021279999999998,34.09458333333333,92.77749999786667,-6.441744791666667,64.68160918973443
1372579219.0,1.6081046250000002,34.10375,92.77333333333333,-6.501302083333333,64.6190426080016
1372579219.25,1.615575416666667,34.11291666666667,92.77250000042666,-6.184453125,64.5983728594439
1372579219.5,1.6270484583333333,34.122083333333336,92.77166666666666,-6.358333333333333,64.6320449268468
1372579219.75,1.6440179166666666,34.13166666666667,92.77083333290666,-6.774401041666667,64.65295907968547
1372579220.0,1.6642959166666669,34.141666666666666,92.77,-7.114140625,64.77468556683812
1372579220.25,1.6837734583333335,34.151666666666664,92.77666666325334,-7.1990625,64.74016513126162
1372579220.5,1.7021837500000003,34.16166666666667,92.78333333333333,-7.284583333333334,64.77935430850034
1372579220.75,1.7200070416666666,34.17166666666667,92.79000000341333,-7.577369791666666,64.82547176120792
1372579221.0,1.7370832083333336,34.181666666666665,92.79666666666667,-8.265755208333333,64.93077333297207
1372579221.25,1.7538391666666666,34.19166666666666,92.81166665898667,-8.804921875,64.91601674927631
1372579221.5,1.7705417499999998,34.20166666666666,92.82666666666667,-7.991328125,64.8745460462028
1372579221.75,1.7871910000000002,34.21041666666667,92.84166667434667,-6.874375,64.76260326427823
1372579222.0,1.8033066666666668,34.21791666666667,92.85666666666667,-5.987109375,64.75997385442166
1372579222.25,1.8177680833333332,34.22541666666667,92.87499999061333,-5.380442708333334,64.71914994063846
1372579222.5,1.8277470000000002,34.23291666666666,92.89333333333335,-4.113072916666666,64.75144188162585
1372579222.75,1.8317492499999999,34.23833333333334,92.91166667605334,-2.39515625,64.75001619319839
1372579223.0,1.832389625,34.24166666666667,92.93,-0.754192708333333,64.7432281039575
1372579223.25,1.8314824583333333,34.245,92.94666665813334,0.14940104166666707,64.76203511088255
1372579223.5,1.8282806249999999,34.24833333333333,92.96333333333334,0.7954427083333337,64.74692230902737
1372579223.75,1.821930375,34.25,92.98000000853334,0.905260416666667,64.75459621430369
1372579224.0,1.8121115833333332,34.25,92.99666666666667,0.8727604166666669,64.7887721946188
1372579224.25,1.7989309583333333,34.25,93.00749999445334,0.7088281250000003,64.80061429678085
1372579224.5,1.7840960833333332,34.25,93.01833333333335,-0.4776822916666663,64.84908154102959
1372579224.75,1.7692612083333332,34.25,93.02916667221334,-1.4492447916666664,64.98764722311573
1372579225.0,1.7547464999999998,34.25,93.04,-2.450208333333333,64.99037914340056
1372579225.25,1.7395914166666666,34.25,93.04499999744,-3.618255208333333,64.99690644961495
1372579225.5,1.7241161249999999,34.25,93.05000000000001,-4.386406249999999,64.96214945505302
1372579225.75,1.7089076250000002,34.25,93.05500000256,-5.285572916666667,64.96620038702936
1372579226.0,1.6930587916666668,34.25,93.06,-6.539739583333333,64.9947528551215
1372579226.25,1.6775835,34.25,93.06916666197333,-6.890729166666667,64.9934672408055
1372579226.5,1.663922583333333,34.25,93.07833333333332,-6.802161458333333,65.03987039729911
1372579226.75,1.6516490833333333,34.25083333333334,93.08750000469333,-5.281979166666666,65.02197655818331
1372579227.0,1.6399092083333333,34.252500000000005,93.09666666666665,-4.119166666666667,64.98248212561995
1372579227.25,1.6292365833333333,34.25416666666667,93.10749999445332,-3.620416666666666,64.98745294596249
1372579227.5,1.6181370416666667,34.255833333333335,93.11833333333331,-3.659453125,65.00970789625221
1372579227.75,1.6051164166666665,34.25833333333333,93.12916667221332,-4.310546875,65.01625809372472
1372579228.0,1.5902814583333333,34.26166666666667,93.13999999999999,-4.049739583333333,65.0169973031437
1372579228.25,1.575073,34.26500000000001,93.15333332650665,-4.254036458333334,65.07306533347285
1372579228.5,1.5602914583333334,34.26833333333334,93.16666666666666,-6.7898177083333335,65.10981777963835
1372579228.75,1.54567,34.2725,93.18000000682666,-8.398880208333333,65.12380197311917
1372579229.0,1.5314220416666666,34.2775,93.19333333333333,-9.186666666666666,65.09129563746482
1372579229.25,1.5174942500000002,34.282500000000006,93.20083332949334,-10.107291666666667,65.07805250024971
1372579229.5,1.5038332916666668,34.2875,93.20833333333334,-9.952734375,65.04976535391552
1372579229.75,1.4914530833333333,34.2925,93.21583333717334,-10.525963541666666,65.05525087775688
1372579230.0,1.481580916666667,34.2975,93.22333333333334,-10.606588541666667,65.02733769380718
1372579230.25,1.4737898749999998,34.3025,93.22916666368,-9.691328125,64.99997762512201
1372579230.5,1.46818675,34.3075,93.23500000000001,-7.887760416666667,64.94830749558865
1372579230.75,1.4647715416666667,34.31333333333333,93.24083333632001,-5.919062499999999,64.90803658764183
1372579231.0,1.4637042916666667,34.32,93.24666666666667,-5.139427083333333,64.88441955665239
1372579231.25,1.4653585,34.32666666666666,93.24916666538667,-3.7681249999999995,64.8179231399893
1372579231.5,1.4695207916666666,34.333333333333336,93.25166666666667,-0.6064583333333334,64.75410525168864
1372579231.75,1.475284,34.339166666666664,93.25416666794666,1.4780468750000002,64.72927778131258
1372579232.0,1.4813673750000003,34.344166666666666,93.25666666666666,3.2661197916666667,64.70697666506453
1372579232.25,1.4877175833333334,34.34916666666666,93.25166666922667,4.809114583333334,64.70021942230584
1372579232.5,1.4944947083333335,34.354166666666664,93.24666666666667,5.086041666666667,64.68262174249928
1372579232.75,1.50148525,34.35833333333333,93.24166666410667,4.9620572916666665,64.65923085939292
1372579233.0,1.5086358749999997,34.361666666666665,93.23666666666668,4.768151041666666,64.73313507487762
1372579233.25,1.515946625,34.365,93.22916667050667,4.305364583333333,64.80413794109397
1372579233.5,1.523310708333333,34.36833333333333,93.22166666666666,3.7551302083333336,64.83784700983016
1372579233.75,1.5307281250000002,34.37083333333333,93.21416666282667,3.202916666666667,64.77505184065411
1372579234.0,1.5382522916666665,34.372499999999995,93.20666666666666,2.642447916666667,64.82739247383657
1372579234.25,1.5447625833333334,34.37416666666666,93.19583333887999,1.6934375,64.83490938178805
1372579234.5,1.5492984583333334,34.37583333333333,93.185,0.9595833333333333,64.85338577018076
1372579234.75,1.5526069583333333,34.3775,93.17416666112001,0.4253125,64.84102690918638
1372579235.0,1.5559154583333334,34.37916666666666,93.16333333333334,-0.4702604166666666,64.88877605839036
1372579235.25,1.5593307083333332,34.38083333333333,93.15583333717333,-2.0937760416666666,64.93595373711892
1372579235.5,1.5625858333333333,34.3825,93.14833333333334,-4.0734635416666665,64.95364287145965
1372579235.75,1.5657876249999998,34.384166666666665,93.14083332949335,-6.407890625,64.96211965471092
1372579236.0,1.5689894583333335,34.38583333333333,93.13333333333334,-7.668125,64.88111005621225
1372579236.25,1.5720845416666667,34.387499999999996,93.12250000554667,-9.050208333333332,64.81852322175187
1372579236.5,1.5749661666666668,34.38916666666667,93.11166666666666,-11.177057291666666,64.79371726337406
1372579236.75,1.5775276249999999,34.39,93.10083332778666,-11.404739583333331,64.86575264397196
1372579237.0,1.5794487083333335,34.39,93.08999999999999,-11.183333333333332,64.80750330875132
1372579237.25,1.5828105833333332,34.39,93.07666667349332,-10.978828125,64.78516704511684
1372579237.5,1.5916688333333333,34.39,93.06333333333333,-11.315677083333334,64.78619856896029
1372579237.75,1.6065571250000001,34.38916666666667,93.04999999317334,-11.873463541666666,64.80189956498019
1372579238.0,1.6241135833333333,34.387499999999996,93.03666666666668,-12.628489583333334,64.73929537472095
1372579238.25,1.6421502916666668,34.38583333333333,93.01500001109333,-11.198567708333334,64.6356717424063
1372579238.5,1.6600269166666666,34.384166666666665,92.99333333333334,-9.267682291666667,64.58216332964432
1372579238.75,1.6777434583333333,34.38125,92.97166665557333,-7.507526041666666,64.56900624377509
1372579239.0,1.695299875,34.37708333333333,92.94999999999999,-8.160963541666666,64.59864792345488
1372579239.25,1.7126962083333332,34.37291666666667,92.93166667605333,-8.170625,64.60945267096704
1372579239.5,1.7299324583333335,34.36875,92.91333333333333,-6.172864583333333,64.6296353086854
1372579239.75,1.745888,34.364583333333336,92.89499999061333,-5.780885416666666,64.62891897021268
1372579240.0,1.7598157499999998,34.36041666666667,92.87666666666667,-4.8026302083333325,64.65509297239323
1372579240.25,1.7710219999999997,34.35625,92.86500000597333,-3.0547135416666666,64.69332011761439
1372579240.5,1.7759847500000001,34.35208333333333,92.85333333333332,-1.86359375,64.70003584601054
1372579240.75,1.7744372083333333,34.348333333333336,92.84166666069333,-1.6495833333333334,64.70027939673001
1372579241.0,1.769261,34.345000000000006,92.83,-0.6936197916666668,64.7278996437776
1372579241.25,1.7627507083333331,34.34166666666667,92.84083332778667,-1.6070833333333336,64.78285004683246
1372579241.5,1.7561870416666665,34.33833333333334,92.85166666666666,-2.453229166666667,64.82311433931885
1372579241.75,1.7495166666666666,34.33625,92.86250000554666,-1.4491145833333334,64.84216634824193
1372579242.0,1.7426862083333334,34.33541666666667,92.87333333333333,1.4926302083333332,64.83775252733076
1372579242.25,1.735695625,34.334583333333335,92.89999998634667,4.092760416666667,64.82984405331754
1372579242.5,1.7287050416666665,34.33375,92.92666666666668,5.573567708333333,64.81948410832926
1372579242.75,1.7230485416666665,34.33208333333334,92.95333334698667,6.184921875000001,64.80827973597874
1372579243.0,1.7194732083333335,34.32958333333333,92.98,6.238776041666667,64.79803589475347
1372579243.25,1.7166983333333334,34.327083333333334,93.0174999808,5.994192708333332,64.78859675066296
1372579243.5,1.7145104583333335,34.32458333333334,93.055,6.702708333333333,64.78598493739784
1372579243.75,1.7124826666666666,34.321666666666665,93.0925000192,8.590989583333334,64.78506041591491
1372579244.0,1.7113620416666668,34.318333333333335,93.13,9.62453125,64.78441729385507
1372579244.25,1.7109885,34.315000000000005,93.1674999808,10.793307291666665,64.78377417179523
1372579244.5,1.7108284166666667,34.31166666666666,93.20500000000001,11.607239583333333,64.78313104973539
1372579244.75,1.7111485833333333,34.306666666666665,93.24250001920001,11.071458333333334,64.78248792767553
1372579245.0,1.7121091249999998,34.300000000000004,93.28000000000002,9.62265625,64.78184480561568
1372579245.25,1.7137634166666667,34.29333333333334,93.31916664661334,7.799895833333333,64.78120168355584
1372579245.5,1.7160047083333332,34.28666666666667,93.35833333333335,5.539739583333333,64.78063895175346
1372579245.75,1.7186729166666668,34.280833333333334,93.39750002005334,4.442447916666667,64.78108115084684
1372579246.0,1.7218747499999998,34.27583333333333,93.43666666666667,3.1746354166666673,64.78268955019642
1372579246.25,1.726410625,34.270833333333336,93.48083331072,1.7936197916666667,64.78333274887771
1372579246.5,1.732814208333333,34.26583333333333,93.525,0.17890625000000013,64.78397594755901
1372579246.75,1.7406585833333335,34.26166666666666,93.56916668928001,-1.4259374999999999,64.77914882066459
1372579247.0,1.7496769583333334,34.25833333333333,93.61333333333334,-2.177005208333333,64.77078125134815
1372579247.25,1.7610967083333335,34.255,93.66083330901334,-2.338359375,64.76241368203172
1372579247.5,1.7747043333333332,34.25166666666667,93.70833333333334,-2.1215625,64.75207255069076
1372579247.75,1.78857875,34.25,93.75583335765333,-2.003125,64.73830728100738
1372579248.0,1.801972875,34.25,93.80333333333333,-1.6703645833333332,64.72196232522741
1372579248.25,1.814833375,34.25,93.85666663935999,-1.2246354166666666,64.70545608865505
1372579248.5,1.8271602500000002,34.25,93.91,-0.0005208333333332621,64.68652998738843
1372579248.75,1.8390068333333334,34.25083333333333,93.96333336064,1.0997395833333334,64.66615128475077
1372579249.0,1.8502664166666667,34.2525,94.01666666666665,2.7436458333333333,64.64787064039028
1372579249.25,1.859444875,34.25416666666667,94.07249997141332,4.245885416666666,64.6288634385037
1372579249.5,1.8655816250000001,34.255833333333335,94.12833333333333,5.914713541666667,64.61098611700022
1372579249.75,1.8690502083333334,34.2575,94.18416669525334,6.961536458333334,64.59950754410987
1372579250.0,1.8707044583333332,34.259166666666665,94.24000000000001,5.854322916666667,64.5909656265318
1372579250.25,1.869904,34.26083333333333,94.29666663765333,2.31109375,64.58359283532008
1372579250.5,1.8666488333333335,34.262499999999996,94.35333333333332,-1.4998177083333335,64.57633823742768
1372579250.75,1.8626465833333334,34.26416666666667,94.41000002901333,-4.49125,64.56673609080006
1372579251.0,1.8583775416666668,34.26583333333333,94.46666666666665,-7.3721875,64.55717053742029
1372579251.25,1.8535748749999998,34.267500000000005,94.51666664106666,-10.457708333333334,64.5502673673425
1372579251.5,1.8487722083333333,34.26916666666667,94.56666666666666,-14.053177083333331,64.55889307646969
1372579251.75,1.8437027083333335,34.27,94.61666669226666,-17.889947916666667,64.56897138696792
1372579252.0,1.8386332083333334,34.27,94.66666666666667,-22.194036458333333,64.57695163918896
1372579252.25,1.8342574166666665,34.27,94.74166662826667,-24.75028645833333,64.58565844893612
1372579252.5,1.831055625,34.27,94.81666666666666,-28.086770833333333,64.59255057196793
1372579252.75,1.8290812083333332,34.267500000000005,94.89166670506665,-30.060286458333337,64.5899267191322
1372579253.0,1.828227375,34.2625,94.96666666666665,-28.226406249999997,64.58169440882935
1372579253.25,1.8286542083333333,34.2575,95.06999994709332,-21.9978125,64.57229297216017
1372579253.5,1.8313757083333335,34.252500000000005,95.17333333333332,-15.8746875,64.5647469041962
1372579253.75,1.8361250416666666,34.24625,95.27666671957333,-11.799765625,64.56297252330985
1372579254.0,1.8413012500000001,34.23875,95.38,-7.65546875,64.56374123527227
1372579254.25,1.8470110833333333,34.231249999999996,95.51916659541332,-2.6985937499999992,64.56200884472507
1372579254.5,1.8527209166666667,34.22375,95.65833333333333,0.3878645833333336,64.54716743966718
1372579254.75,1.8586975833333332,34.215,95.79750007125334,2.9495312499999997,64.53232603460928
1372579255.0,1.86467425,34.205,95.93666666666667,5.05765625,64.51748462955138
1372579255.25,1.8706509166666665,34.195,96.07916659370666,5.487604166666666,64.50264322449347
1372579255.5,1.8761473333333332,34.185,96.22166666666666,7.038359375,64.48848662576778
1372579255.75,1.88164375,34.17583333333334,96.36416673962667,7.839348958333335,64.48255578061404
1372579256.0,1.8866599166666667,34.1675,96.50666666666666,6.620390625,64.48255578061404
1372579256.25,1.8901285833333332,34.159166666666664,96.64416659626666,2.635989583333333,64.48255578061404
1372579256.5,1.8912492499999998,34.15083333333333,96.78166666666667,-0.6669010416666666,64.48255578061404
1372579256.75,1.8904488333333331,34.142916666666665,96.91916673706666,-2.3272656250000003,64.48255578061404
1372579257.0,1.8894883333333332,34.135416666666664,97.05666666666666,-3.6658333333333335,64.48255578061404
1372579257.25,1.8885278333333335,34.12791666666667,97.17416660650666,-5.416276041666667,64.48255578061404
1372579257.5,1.8877274166666664,34.120416666666664,97.29166666666666,-4.647994791666666,64.48255578061404
1372579257.75,1.8873005416666666,34.11333333333334,97.40916672682665,-3.070989583333333,64.48255578061404
1372579258.0,1.8870871249999999,34.10666666666667,97.52666666666666,-0.8440885416666667,64.4940926463043
1372579258.25,1.8869270416666666,34.1,97.62999994709332,1.5387239583333334,64.50784623170999
1372579258.5,1.887567375,34.093333333333334,97.73333333333332,3.281484375,64.5265525896044
1372579258.75,1.8884745416666666,34.0875,97.83666671957333,4.467395833333334,64.54525894749882
1372579259.0,1.8894350833333335,34.0825,97.94,5.473177083333333,64.56396530539325
1372579259.25,1.8908224999999999,34.07749999999999,98.02999995392,7.060442708333333,64.58484414211118
1372579259.5,1.8924233333333333,34.0725,98.12,7.276927083333333,64.6074126845807
1372579259.75,1.8941309166666667,34.0675,98.21000004608001,7.1457291666666665,64.62998122705021
1372579260.0,1.8959452499999998,34.0625,98.30000000000001,5.645859375,64.65254976951974
1372579260.25,1.8978129166666664,34.0575,98.38666662229335,3.8885937500000005,64.67511831198927
1372579260.5,1.8995738333333334,34.0525,98.47333333333333,1.2609375,64.69768685445878
1372579260.75,1.9010145833333334,34.04708333333333,98.56000004437333,-1.6956510416666664,64.72025539692831
1372579261.0,1.9023486250000001,34.04125,98.64666666666666,-4.8497916666666665,64.73128707370758
1372579261.25,1.9039495000000002,34.03541666666667,98.72583329279999,-8.077265624999999,64.74010203077141
1372579261.5,1.9064042083333332,34.029583333333335,98.80499999999999,-10.350963541666667,64.74396421534651
1372579261.75,1.9103530833333335,34.02458333333333,98.8841667072,-10.981796875,64.74420495330372
1372579262.0,1.916017833333333,34.02041666666667,98.96333333333332,-11.153515624999999,64.7455321252463
1372579262.25,1.923025,34.01625000000001,99.02833330005332,-11.485755208333332,64.74504896302717
1372579262.5,1.9309927500000004,34.01208333333334,99.09333333333332,-10.838515625,64.75327887465757
1372579262.75,1.9395474583333334,34.0075,99.15833336661332,-9.811067708333333,64.77703486430659
1372579263.0,1.9484757083333335,34.002500000000005,99.22333333333331,-7.643072916666667,64.80079085395559
1372579263.25,1.9576174583333332,33.997499999999995,99.27749997226665,-5.637213541666667,64.82454684360461
1372579263.5,1.9668125833333334,33.9925,99.33166666666666,-3.0929427083333336,64.84830283325361
1372579263.75,1.97616775,33.988749999999996,99.38583336106667,-1.013984375,64.87205882290262
1372579264.0,1.9856296249999998,33.98625,99.44000000000001,0.886796875,64.89581481255162
1372579264.25,1.9951982499999998,33.98374999999999,99.48583330986668,2.483697916666667,64.91957080220062
1372579264.5,2.0043932916666667,33.981249999999996,99.53166666666667,3.2916145833333332,64.94332679184963
1372579264.75,2.014175291666666,33.977916666666665,99.57750002346667,2.7586197916666673,64.97070422811653
1372579265.0,2.026297,33.973749999999995,99.62333333333333,1.8300260416666667,64.99699523039806
1372579265.25,2.042199166666667,33.96958333333333,99.66666664448,1.1749479166666668,65.0229240880178
1372579265.5,2.059115208333333,33.96541666666666,99.71000000000001,0.4426302083333334,65.0384501660364
1372579265.75,2.0753375416666664,33.961666666666666,99.75333335552,-0.31210937499999997,65.0384501660364
1372579266.0,2.091079583333333,33.958333333333336,99.79666666666667,-1.2792447916666665,65.0384501660364
1372579266.25,2.106554791666667,33.955000000000005,99.83499998037334,-1.7650260416666665,65.0384501660364
1372579266.5,2.1219232916666666,33.95166666666667,99.87333333333333,-2.7012760416666666,65.0384501660364
1372579266.75,2.137078375,33.9475,99.91166668629333,-3.0549218750000002,65.0384501660364
1372579267.0,2.1505258333333335,33.9425,99.95,-3.3435416666666664,65.0384501660364
1372579267.25,2.162319041666666,33.9375,99.98333331626667,-3.4388541666666668,65.0384501660364
1372579267.5,2.1722979583333335,33.9325,100.01666666666667,-3.3886458333333334,65.0384501660364
1372579267.75,2.179288583333333,33.9275,100.05000001706667,-3.3815104166666674,65.0384501660364
1372579268.0,2.181689958333333,33.92249999999999,100.08333333333333,-3.0808854166666664,65.0384501660364
1372579268.25,2.178701625,33.9175,100.11416665088,-3.0781510416666666,65.0384501660364
1372579268.5,2.173418708333333,33.9125,100.145,-3.005598958333333,65.0384501660364
1372579268.75,2.16776225,33.9075,100.17583334912,-3.02328125,65.0384501660364
1372579269.0,2.1618923333333333,33.902499999999996,100.20666666666666,-2.9165625,65.0384501660364
1372579269.25,2.155915708333333,33.8975,100.23166665386667,-2.9425781250000003,65.0384501660364
1372579269.5,2.1499390833333334,33.8925,100.25666666666666,-2.8851302083333334,65.0384501660364
1372579269.75,2.1439090833333334,33.88708333333333,100.28166667946665,-2.7449218750000006,65.0384501660364
1372579270.0,2.139319875,33.88125,100.30666666666666,-2.4180468750000004,65.0384501660364
1372579270.25,2.135958,33.875416666666666,100.32999998805333,-1.8365104166666668,65.0384501660364
1372579270.5,2.1335566666666668,33.86958333333333,100.35333333333332,-1.1742708333333334,65.0384501660364
1372579270.75,2.1316355833333334,33.86416666666667,100.37666667861332,-0.19981770833333332,65.0384501660364
1372579271.0,2.1298745833333332,33.859166666666674,100.39999999999999,0.7289062500000001,65.0384501660364
1372579271.25,2.127953541666667,33.854166666666664,100.43333331626667,1.6085156250000001,65.0384501660364
1372579271.5,2.1262992916666668,33.84916666666667,100.46666666666667,2.6210416666666667,65.0384501660364
1372579271.75,2.125018583333333,33.845,100.50000001706667,3.3902343750000004,65.0384501660364
1372579272.0,2.1239513333333333,33.84166666666667,100.53333333333335,4.33921875,65.0384501660364
1372579272.25,2.1229907916666666,33.83833333333333,100.57416664576002,5.259557291666666,65.0384501660364
1372579272.5,2.121816791666667,33.835,100.61500000000001,6.272838541666666,65.0384501660364
1372579272.75,2.120536083333333,33.83208333333334,100.65583335424,7.199843749999999,65.0384501660364
1372579273.0,2.1191486666666663,33.82958333333333,100.69666666666667,7.9034375,65.0384501660364
1372579273.25,2.1176011666666663,33.827083333333334,100.74499997525334,8.582369791666666,65.0384501660364
1372579273.5,2.1160536666666663,33.82458333333333,100.79333333333334,8.979505208333332,65.0384501660364
1372579273.75,2.1146662500000004,33.8225,100.84166669141334,9.255911458333333,65.0384501660364
1372579274.0,2.113599041666667,33.82083333333333,100.89,9.439453124999998,65.0384501660364
1372579274.25,2.1128519999999997,33.81916666666667,100.93416664405333,9.7503125,65.0384501660364
1372579274.5,2.1120515833333333,33.8175,100.97833333333332,9.736796875,65.0384501660364
1372579274.75,2.110877625,33.81583333333334,101.02250002261333,9.775104166666667,65.0384501660364
1372579275.0,2.10927675,33.81416666666667,101.06666666666666,9.453229166666667,65.0384501660364
1372579275.25,2.107569125,33.8125,101.11333330944,9.269609375,65.0384501660364
1372579275.5,2.106074958333333,33.810833333333335,101.16,9.075182291666666,65.0384501660364
1372579275.75,2.104740875,33.80916666666667,101.20666669056,8.647578125,65.0384501660364
1372579276.0,2.103566875,33.807500000000005,101.25333333333333,8.613567708333333,65.0384501660364
1372579276.25,2.1025529583333333,33.80583333333333,101.29499997866667,8.043098958333333,65.0384501660364
1372579276.5,2.101592375,33.80416666666667,101.33666666666667,7.81890625,65.0384501660364
1372579276.75,2.1005784166666666,33.8025,101.37833335466667,7.385052083333334,65.0384501660364
1372579277.0,2.0995644583333335,33.80083333333334,101.42,6.846171875,65.03696541668334
1372579277.25,2.0985505,33.79916666666667,101.46166664533334,6.774036458333334,65.03399591797721
1372579277.5,2.097643291666667,33.7975,101.50333333333333,6.7116927083333335,65.03399591797721
1372579277.75,2.0971629999999997,33.795,101.54500002133332,6.948359375,65.03399591797721
1372579278.0,2.097163,33.791666666666664,101.58666666666666,7.0252864583333325,65.03399591797721
1372579278.25,2.097323125,33.788333333333334,101.62333331456,6.714739583333333,65.03399591797721
1372579278.5,2.097536625,33.785000000000004,101.66,6.304453124999999,65.03399591797721
1372579278.75,2.0977501249999997,33.781666666666666,101.69666668544001,5.993020833333333,65.03399591797721
1372579279.0,2.0981770416666667,33.778333333333336,101.73333333333335,5.23859375,65.03399591797721
1372579279.25,2.0990308333333334,33.775,101.76833331541334,4.863333333333332,65.03399591797721
1372579279.5,2.100258166666667,33.77166666666667,101.80333333333334,4.2741927083333335,65.03399591797721
1372579279.75,2.1015388749999997,33.76833333333334,101.83833335125334,3.8778385416666663,65.03399591797721
1372579280.0,2.1028195833333334,33.765,101.87333333333333,3.5696875,65.03548066733028
1372579280.25,2.1041002916666667,33.76166666666666,101.89833332053334,2.5878906249999996,65.0384501660364
1372579280.5,2.105381,33.75833333333333,101.92333333333335,1.7208854166666665,65.0384501660364
1372579280.75,2.1066083333333334,33.755833333333335,101.94833334613334,0.9543750000000001,65.0384501660364
1372579281.0,2.1077822916666666,33.75416666666667,101.97333333333334,0.6638020833333332,65.0384501660364
1372579281.25,2.108742791666667,33.7525,101.99249999018667,0.6702864583333333,65.0384501660364
1372579281.5,2.1095432083333336,33.75083333333333,102.01166666666667,1.0099479166666667,65.0384501660364
1372579281.75,2.1101835416666668,33.75,102.03083334314667,1.12046875,65.0384501660364
1372579282.0,2.110397,33.75,102.05,1.2283593750000001,65.0384501660364
1372579282.25,2.1099167916666666,33.75,102.06416665941333,1.4057291666666665,65.03841012325265
1372579282.5,2.109063041666667,33.75,102.07833333333333,1.6366666666666667,65.0380497381989
1372579282.75,2.108209291666667,33.74916666666667,102.09250000725334,2.082942708333333,65.03776943871266
1372579283.0,2.1075690000000002,33.7475,102.10666666666667,2.79734375,65.03776943871264
1372579283.25,2.1069287083333332,33.74583333333333,102.12166665898667,3.9541145833333338,65.03776943871266
1372579283.5,2.1059682083333335,33.744166666666665,102.13666666666667,5.26375,65.03776943871264
1372579283.75,2.10479425,33.74166666666667,102.15166667434667,6.166718750000001,65.03776943871266
1372579284.0,2.1036202916666666,33.73833333333334,102.16666666666667,6.702421875,65.0375692247939
1372579284.25,2.1026064166666667,33.735,102.18583332352,6.985651041666667,65.0373289680914
1372579284.5,2.10169925,33.73166666666666,102.20500000000001,6.8281510416666675,65.0366882835514
1372579284.75,2.100952166666666,33.72833333333333,102.22416667648001,7.436640625,65.03604759901141
1372579285.0,2.1003651666666667,33.725,102.24333333333334,8.333385416666667,65.02550638932992
1372579285.25,2.0995646666666667,33.721666666666664,102.26666665472,9.339348958333334,64.96943884132158
1372579285.5,2.098177208333333,33.718333333333334,102.28999999999999,10.360494791666667,64.90656433070644
1372579285.75,2.0963095,33.71375,102.31333334528,11.04046875,64.83895009834193
1372579286.0,2.093908125,33.70791666666667,102.33666666666666,11.168671875000001,64.76578268259958
1372579286.25,2.091026458333333,33.702083333333334,102.36083332096,11.009791666666667,64.69553623202157
1372579286.5,2.088091458333333,33.69625,102.38499999999999,10.696432291666667,64.6220036956337
1372579286.75,2.0853699166666666,33.69083333333334,102.40916667903998,10.470260416666667,64.55102700376459
1372579287.0,2.0826483749999998,33.68583333333333,102.43333333333332,10.481588541666666,64.4835366116241
1372579287.25,2.079873458333333,33.68083333333333,102.45999998634666,10.441145833333334,64.41608626226737
1372579287.5,2.0770451666666663,33.67583333333334,102.48666666666666,10.591458333333334,64.34903634074814
1372579287.75,2.0741635,33.67083333333333,102.51333334698667,10.194036458333333,64.28462035499697
1372579288.0,2.071335208333333,33.66583333333333,102.54,9.489765625,64.23363026630045
1372579288.25,2.0690405833333334,33.66083333333333,102.56749998592001,8.691588541666667,64.22893569482414
1372579288.5,2.0674396666666666,33.655833333333334,102.59500000000001,7.748697916666667,64.23088233748489
1372579288.75,2.066372375,33.65208333333333,102.62250001408002,7.197838541666666,64.23359908104287
1372579289.0,2.065625291666666,33.64958333333333,102.65000000000002,6.918932291666667,64.24264244467301
1372579289.25,2.065411875,33.647083333333335,102.68333331626668,6.543307291666667,64.2496562792839
1372579289.5,2.065625333333333,33.64458333333334,102.71666666666668,5.458906249999999,64.26117142655401
1372579289.75,2.065892125,33.6425,102.75000001706668,4.190260416666667,64.27134595615472
1372579290.0,2.0661589166666667,33.64083333333333,102.78333333333335,2.9444531249999994,64.27519592813881
1372579290.25,2.0665858333333333,33.63916666666666,102.81833331541334,2.209583333333333,64.27580394624682
1372579290.5,2.0671728750000002,33.6375,102.85333333333334,1.7428124999999997,64.27580394624682
1372579290.75,2.067866625,33.63333333333333,102.88833335125334,1.2511718749999996,64.27317001047876
1372579291.0,2.0686671249999997,33.626666666666665,102.92333333333333,1.161692708333333,64.26701070279755
1372579291.25,2.069681041666666,33.620000000000005,102.96083331413334,0.7180729166666664,64.2601222590067
1372579291.5,2.070908375,33.61333333333334,102.99833333333333,0.21234374999999972,64.25371990595563
1372579291.75,2.0723491666666667,33.6075,103.03583335253333,-0.2522656250000002,64.25120708818916
1372579292.0,2.0737899583333337,33.6025,103.07333333333334,-0.2070312500000002,64.24764053424215
1372579292.25,2.075177375,33.597500000000004,103.11583331157334,0.3186718749999998,64.24318254415005
1372579292.5,2.0764580833333333,33.5925,103.15833333333333,1.6394010416666667,64.23750932720858
1372579292.75,2.0776854583333333,33.5875,103.20083335509334,3.2718229166666664,64.23062088341776
1372579293.0,2.0789128333333333,33.5825,103.24333333333334,4.633880208333333,64.22677091143366
1372579293.25,2.079980125,33.57750000000001,103.2891666432,5.656067708333333,64.22616289332565
1372579293.5,2.0808339583333333,33.5725,103.33500000000001,6.3347395833333335,64.22616289332565
1372579293.75,2.081421,33.57,103.3808333568,6.962838541666667,64.22616289332565
1372579294.0,2.081687833333333,33.57,103.42666666666666,7.323854166666667,64.22616289332565
1372579294.25,2.081687875,33.57,103.47583330815999,7.655,64.22697358413633
1372579294.5,2.08136775,33.57,103.525,7.9575,64.2300136746764
1372579294.75,2.0807807916666667,33.57,103.57416669184,7.758098958333334,64.23163505629778
1372579295.0,2.0801404583333336,33.57,103.62333333333333,6.848697916666667,64.2342698014325
1372579295.25,2.0794467500000002,33.57,103.6691666432,5.2640625,64.23755293734244
1372579295.5,2.0786996666666666,33.57,103.715,3.7213541666666665,64.24346919965377
1372579295.75,2.077739125,33.568333333333335,103.7608333568,2.0277083333333334,64.24590127208583
1372579296.0,2.0764050416666664,33.565000000000005,103.80666666666667,0.4675260416666666,64.24914403532857
1372579296.25,2.074697375,33.56166666666667,103.85499997525334,-0.7771354166666667,64.25287288931105
1372579296.5,2.0726695,33.55833333333333,103.90333333333334,-1.930104166666667,64.259518287732
1372579296.75,2.070641625,33.555,103.95166669141334,-2.967708333333333,64.26664977689272
1372579297.0,2.068773875,33.55166666666667,104.0,-4.251145833333333,64.28045739655187
1372579297.25,2.066852791666667,33.54833333333333,104.0499999744,-5.170078125,64.30407932949713
1372579297.5,2.064611541666667,33.545,104.1,-5.492317708333334,64.32890331785406
1372579297.75,2.061943375,33.5425,104.15000002560001,-5.677578125,64.36010393771492
1372579298.0,2.0592218333333334,33.54083333333333,104.2,-4.912343750000001,64.3936766715788
1372579298.25,2.0565536666666664,33.53916666666667,104.25333330602668,-3.4289583333333336,64.42660101466747
1372579298.5,2.0539388749999996,33.5375,104.30666666666667,-2.0819531249999996,64.45689223135473
1372579298.75,2.0515375416666664,33.5375,104.36000002730667,-0.5957552083333333,64.4910702612252
1372579299.0,2.04950975,33.53916666666667,104.41333333333334,0.77328125,64.52403497698107
1372579299.25,2.047908875,33.54083333333333,104.45666664448001,1.9646354166666666,64.55933196512478
1372579299.5,2.046948375,33.5425,104.5,2.6395572916666663,64.59211503213395
1372579299.75,2.0464681666666666,33.54333333333333,104.54333335551999,3.2752604166666663,64.6242106967514
1372579300.0,2.0460946666666664,33.54333333333333,104.58666666666666,4.659375,64.64661055609086
1372579300.25,2.045934583333333,33.54333333333333,104.61166665386666,6.072265625,64.6583854113335
1372579300.5,2.0468950833333333,33.54333333333333,104.63666666666666,7.098541666666667,64.6667288114351
1372579300.75,2.0496165833333335,33.5425,104.66166667946666,8.111536458333333,64.67011428895147
1372579301.0,2.054205833333333,33.54083333333333,104.68666666666667,8.318385416666667,64.67011428895147
1372579301.25,2.0609829583333332,33.53916666666667,104.68333333504,7.988697916666666,64.66721245108032
1372579301.5,2.069681166666667,33.5375,104.68,7.637083333333333,64.65947421675722
1372579301.75,2.079553375,33.53583333333333,104.67666666496,7.322031249999999,64.65133335913018
1372579302.0,2.089585666666667,33.53416666666667,104.67333333333333,7.195494791666667,64.64359512480708
1372579302.25,2.0996179583333334,33.5325,104.65250001066666,6.888880208333333,64.63303852735639
1372579302.5,2.109436791666667,33.530833333333334,104.63166666666666,6.850520833333333,64.62207930660178
1372579302.75,2.1189887916666668,33.530833333333334,104.61083332266666,6.8374999999999995,64.61132139749911
1372579303.0,2.1284874166666667,33.5325,104.58999999999999,6.404895833333334,64.60358316317603
1372579303.25,2.1378259583333334,33.53416666666667,104.56083334826666,5.884348958333334,64.59584492885293
1372579303.5,2.1458304583333336,33.535833333333336,104.53166666666665,5.276484375,64.58810669452983
1372579303.75,2.151700416666667,33.538333333333334,104.50249998506665,4.681666666666667,64.5785529628712
1372579304.0,2.155115625,33.541666666666664,104.47333333333331,4.09375,64.56758717772935
1372579304.25,2.1558093333333335,33.545,104.44416668159998,3.7293749999999997,64.55952323045867
1372579304.5,2.1542084166666666,33.54833333333333,104.41499999999999,3.396276041666667,64.55629567963992
1372579304.75,2.1514335,33.55083333333334,104.3858333184,2.9617968749999997,64.55306812882117
1372579305.0,2.1484985,33.5525,104.35666666666667,2.504166666666667,64.5482253479541
1372579305.25,2.1455635,33.55416666666667,104.32750001493334,2.1383072916666666,64.53853687694215
1372579305.5,2.1426285,33.55583333333333,104.29833333333335,2.056848958333333,64.52884840593016
1372579305.75,2.1396935,33.5575,104.26916665173334,2.0165625,64.5191599349182
1372579306.0,2.136971958333333,33.55916666666667,104.24000000000001,1.82359375,64.50947146390622
1372579306.25,2.1349441666666666,33.560833333333335,104.20916668245334,1.613880208333333,64.50180203045464
1372579306.5,2.1343571666666667,33.5625,104.17833333333334,1.4447135416666663,64.49857447963589
1372579306.75,2.1353710416666667,33.56333333333333,104.14749998421334,1.35625,64.49716242615268
1372579307.0,2.137505583333333,33.56333333333333,104.11666666666667,1.3475,64.49716242615268
1372579307.25,2.1402805,33.56333333333333,104.08750001493334,1.2194531249999998,64.49716242615268
1372579307.5,2.1435356666666667,33.56333333333333,104.05833333333334,1.0835416666666666,64.49716242615268
1372579307.75,2.1469509166666665,33.565,104.02916665173333,0.9869270833333332,64.49716242615268
1372579308.0,2.15052625,33.568333333333335,104.0,0.9275520833333332,64.498777656201
1372579308.25,2.1543150416666665,33.571666666666665,103.96750001664,0.9298437499999999,64.50523857639422
1372579308.5,2.1584240416666667,33.575,103.935,0.8684895833333334,64.51169949658743
1372579308.75,2.162959916666667,33.57750000000001,103.90249998336,0.927109375,64.51816041678065
1372579309.0,2.1676025,33.579166666666666,103.87,1.0423958333333332,64.52462133697388
1372579309.25,2.1715513333333334,33.58083333333334,103.83833334954667,1.2979427083333333,64.52906321960671
1372579309.5,2.174593,33.5825,103.80666666666667,1.4153124999999998,64.52906321960671
1372579309.75,2.17683425,33.58416666666667,103.77499998378667,1.490546875,64.52744798955841
1372579310.0,2.178648583333333,33.58583333333333,103.74333333333334,1.574296875,64.52300610692556
1372579310.25,2.1803561666666664,33.587500000000006,103.71166668288001,1.6490885416666667,64.51654518673234
1372579310.5,2.1818503333333332,33.58916666666667,103.68,1.8129427083333332,64.51008426653912
1372579310.75,2.182597416666667,33.59,103.64833331712,1.8516666666666666,64.5036233463459
1372579311.0,2.182597416666667,33.59,103.61666666666667,1.977265625,64.49716242615268
1372579311.25,2.1817969583333334,33.59,103.59166667946667,1.9984635416666665,64.49070150595946
1372579311.5,2.180142666666667,33.59,103.56666666666666,2.0061458333333335,64.48424058576624
1372579311.75,2.1778480416666666,33.59,103.54166665386667,1.9072395833333333,64.47777966557302
1372579312.0,2.175073166666667,33.59,103.51666666666667,1.8473177083333334,64.4713187453798
1372579312.25,2.17192475,33.59,103.49250001237333,1.7515885416666668,64.46485782518658
1372579312.5,2.1684027916666664,33.59,103.46833333333333,1.8470833333333336,64.45839690499336
1372579312.75,2.1645072916666668,33.590833333333336,103.44416665429334,1.9505989583333332,64.45355121484845
1372579313.0,2.160291625,33.5925,103.42,1.9639843750000001,64.45153217728807
1372579313.25,2.1558091666666668,33.594166666666666,103.39916667733333,2.024583333333333,64.45153217728807
1372579313.5,2.1512199583333333,33.59583333333334,103.37833333333333,1.9457552083333336,64.45758928996922
1372579313.75,2.146844208333333,33.597500000000004,103.35749998933333,1.9322916666666667,64.46405021016244
1372579314.0,2.1426819166666666,33.59916666666667,103.33666666666666,1.77015625,64.47091457420801
1372579314.25,2.1390532500000004,33.600833333333334,103.31083334655999,1.6955208333333334,64.48060304521998
1372579314.5,2.1357981250000004,33.6025,103.285,1.541744791666667,64.49029151623195
1372579314.75,2.132543,33.604166666666664,103.25916665344,1.30515625,64.49997998724392
1372579315.0,2.129287833333333,33.60583333333333,103.23333333333333,1.2852083333333333,64.50966845825589
1372579315.25,2.1263528333333332,33.607499999999995,103.20333334869333,1.0420052083333333,64.52080784820343
1372579315.5,2.123791375,33.60916666666667,103.17333333333335,0.8208593750000001,64.53388179673176
1372579315.75,2.12149675,33.61,103.14333331797334,0.6525520833333333,64.54743938490527
1372579316.0,2.1194155833333332,33.61,103.11333333333334,0.5645572916666666,64.55712785591724
1372579316.25,2.1176012083333333,33.61,103.07416668672,0.8047395833333333,64.56681632692921
1372579316.5,2.116000291666667,33.61,103.035,0.97171875,64.57044768526004
1372579316.75,2.114772916666667,33.61,102.99583331328,1.5672395833333335,64.57367523607878
1372579317.0,2.1139190833333337,33.61,102.95666666666666,2.1018489583333335,64.57649934304519
1372579317.25,2.113118625,33.61,102.90916669098667,2.5790104166666663,64.57649934304519
1372579317.5,2.11247825,33.61,102.86166666666666,3.1865104166666662,64.57649934304519
1372579317.75,2.1121047083333333,33.61083333333333,102.81416664234666,3.894140625,64.57649934304519
1372579318.0,2.1119980000000003,33.612500000000004,102.76666666666667,4.334635416666667,64.57649934304519
1372579318.25,2.112051375,33.61416666666667,102.71083336192,4.927135416666666,64.57504842410961
1372579318.5,2.11210475,33.615833333333335,102.655,5.404114583333334,64.57166294659325
1372579318.75,2.1122648333333336,33.6175,102.59916663808,5.772265624999999,64.56779382943171
1372579319.0,2.112531625,33.61916666666667,102.54333333333334,6.133125,64.56779382943171
1372579319.25,2.1129051666666667,33.62083333333334,102.48083336533334,6.216276041666666,64.56779382943171
1372579319.5,2.1133320833333333,33.6225,102.41833333333334,6.444453125,64.56779382943171
1372579319.75,2.113865708333333,33.62416666666667,102.35583330133333,6.195677083333333,64.56779382943171
1372579320.0,2.1145060416666666,33.62583333333334,102.29333333333334,6.023776041666667,64.56779382943171
1372579320.25,2.11519975,33.627500000000005,102.22833336661334,5.875885416666666,64.56779382943171
1372579320.5,2.1160535416666666,33.62916666666667,102.16333333333334,5.686536458333332,64.56779382943171
1372579320.75,2.1171207916666663,33.630833333333335,102.09833330005334,5.475703125,64.56779382943171
1372579321.0,2.1189885,33.6325,102.03333333333335,5.339557291666666,64.56779382943171
1372579321.25,2.1214965833333332,33.634166666666665,101.96833336661334,5.212890625,64.56779382943171
1372579321.5,2.124591666666667,33.63583333333334,101.90333333333334,5.219375,64.5682774690769
1372579321.75,2.1281136666666667,33.63666666666667,101.83833330005334,5.497994791666667,64.57601570339999
1372579322.0,2.1316356666666665,33.63666666666666,101.77333333333333,5.695078125000001,64.58637098919871
1372579322.25,2.1350509166666667,33.63666666666666,101.71416669695999,5.903203125,64.59733020995334
1372579322.5,2.1384127916666666,33.63666666666666,101.655,6.1625781250000005,64.60828943070797
1372579322.75,2.1416679583333336,33.63666666666666,101.59583330304001,6.372604166666668,64.6192486514626
1372579323.0,2.1449231666666666,33.63666666666666,101.53666666666668,6.5425781249999995,64.63020787221723
1372579323.25,2.1483917916666666,33.63666666666667,101.48083336192,6.462213541666667,64.64116709297186
1372579323.5,2.1517003333333338,33.63666666666667,101.42500000000001,6.3327864583333335,64.65212631372648
1372579323.75,2.1547420416666667,33.63583333333333,101.36916663808,6.099114583333333,64.66308553448111
1372579324.0,2.1568765833333337,33.634166666666665,101.31333333333333,5.663333333333334,64.67404475523574
1372579324.25,2.1586375833333333,33.6325,101.26000002730667,5.115963541666667,64.68500397599037
1372579324.5,2.160665375,33.630833333333335,101.20666666666668,4.386223958333334,64.6954795570998
1372579324.75,2.162959958333333,33.63,101.15333330602667,3.536901041666667,64.69870054353134
1372579325.0,2.166054958333333,33.63,101.10000000000001,2.674401041666666,64.69930447848725
1372579325.25,2.1700571666666666,33.63,101.04833335978667,1.7113020833333332,64.69910316683529
1372579325.5,2.17528675,33.63,100.99666666666667,0.49052083333333324,64.69910316683529
1372579325.75,2.181957125,33.63,100.94499997354667,-0.5269010416666667,64.69910316683529
1372579326.0,2.1900682916666665,33.63,100.89333333333333,-1.4003125,64.69910316683529
1372579326.25,2.198873208333333,33.63,100.84500002474667,-1.9918489583333334,64.69749267361952
1372579326.5,2.2078915833333332,33.63,100.79666666666665,-2.533671875,64.69427168718798
1372579326.75,2.2170166666666664,33.63,100.74833330858665,-2.920885416666667,64.69105070075643
1372579327.0,2.2264085416666664,33.63,100.69999999999999,-2.9718750000000003,64.6878297143249
1372579327.25,2.2357470833333335,33.63,100.65416669013332,-2.812135416666667,64.68460872789338
1372579327.5,2.244391916666667,33.63,100.60833333333332,-2.4460416666666664,64.68138774146185
1372579327.75,2.2534636666666663,33.63,100.56249997653332,-2.220703125,64.6781667550303
1372579328.0,2.264029625,33.63,100.51666666666665,-1.9823177083333334,64.67494576859877
1372579328.25,2.2760897083333336,33.63,100.47250002261332,-1.4718229166666668,64.67192609381921
1372579328.5,2.2877762083333333,33.63,100.42833333333331,-0.7169010416666667,64.67091953555935
1372579328.75,2.298021916666667,33.63,100.38416664405332,-0.007161458333333408,64.66910773069162
1372579329.0,2.3067200833333334,33.63,100.33999999999999,0.759296875,64.66870510738768
1372579329.25,2.3144577083333338,33.63,100.29916668757333,1.3336979166666667,64.67031560060344
1372579329.5,2.321981875,33.63,100.25833333333333,2.039921875,64.67353658703497
1372579329.75,2.3293993333333334,33.630833333333335,100.21749997909333,2.67515625,64.6767575734665
1372579330.0,2.3356961666666667,33.6325,100.17666666666668,3.076171875,64.67997855989805
1372579330.25,2.3405521666666664,33.634166666666665,100.14083335168002,3.475859375,64.68319954632958
1372579330.5,2.34402075,33.63583333333333,100.10500000000002,3.6415625000000005,64.68642053276112
1372579330.75,2.3452480833333333,33.637499999999996,100.06916664832,3.8810156250000003,64.68964151919265
1372579331.0,2.3433803333333336,33.63916666666667,100.03333333333335,4.271614583333333,64.69286250562418
1372579331.25,2.3384175416666664,33.64083333333333,100.00000001706667,4.2975,64.6960834920557
1372579331.5,2.33190725,33.642500000000005,99.96666666666667,4.408098958333333,64.69709005031557
1372579331.75,2.3249167083333333,33.64416666666667,99.93333331626667,4.46671875,64.69890185518331
1372579332.0,2.31749925,33.645833333333336,99.89999999999999,4.3302604166666665,64.69749267361951
1372579332.25,2.309494791666667,33.6475,99.86666668373333,4.516614583333333,64.69427168718798
1372579332.5,2.3010100833333333,33.649166666666666,99.83333333333333,4.492395833333334,64.69105070075643
1372579332.75,2.2921518333333335,33.649166666666666,99.79999998293333,4.591223958333333,64.6878297143249
1372579333.0,2.283773875,33.6475,99.76666666666667,4.845260416666666,64.68460872789338
1372579333.25,2.276143,33.645833333333336,99.73083335168,4.854114583333334,64.68138774146185
1372579333.5,2.2694192500000003,33.64416666666667,99.695,5.148489583333333,64.6781667550303
1372579333.75,2.2634425833333336,33.642500000000005,99.65916664832,5.378958333333333,64.67494576859877
1372579334.0,2.2578394999999998,33.64083333333333,99.62333333333333,5.442916666666666,64.67172478216723
1372579334.25,2.252663291666667,33.63916666666667,99.58000002218667,5.802109375000001,64.6685037957357
1372579334.5,2.2479139583333336,33.637499999999996,99.53666666666666,5.862500000000001,64.66528280930417
1372579334.75,2.2434314166666667,33.63583333333333,99.49333331114667,6.0285416666666665,64.66206182287264
1372579335.0,2.2391623333333333,33.634166666666665,99.45,6.324505208333334,64.66065264130884
1372579335.25,2.235266791666667,33.6325,99.40000002560001,6.265703125000001,64.66065264130884
1372579335.5,2.231744791666667,33.630833333333335,99.35,6.481640625,64.66065264130884
1372579335.75,2.228489625,33.63,99.2999999744,6.556067708333333,64.66065264130884
1372579336.0,2.225554625,33.63,99.25,6.507057291666666,64.65920172237327
1372579336.25,2.222779708333333,33.63,99.19666669397334,6.765052083333334,64.65291440698574
1372579336.5,2.220004833333333,33.63,99.14333333333335,6.71203125,64.64517617266266
1372579336.75,2.2173900416666665,33.63,99.08999997269333,6.850078125,64.63743793833956
1372579337.0,2.215095375,33.63,99.03666666666668,7.162161458333333,64.62969970401646
1372579337.25,2.212907458333333,33.63,98.98666669226667,7.182135416666667,64.62196146969337
1372579337.5,2.2107195833333333,33.63,98.93666666666667,7.64859375,64.61422323537028
1372579337.75,2.208585083333333,33.63,98.88666664106667,7.837265625,64.60648500104718
1372579338.0,2.2066106666666667,33.63,98.83666666666666,7.928776041666667,64.59874676672409
1372579338.25,2.2047963333333334,33.63,98.79000002389333,8.198515625,64.59100853240099
1372579338.5,2.202982,33.63,98.74333333333333,8.177239583333334,64.58327029807789
1372579338.75,2.201114291666667,33.63,98.69666664277332,8.272864583333334,64.5755320637548
1372579339.0,2.1991932083333334,33.63,98.64999999999999,8.364270833333334,64.56924474836728
1372579339.25,2.1973255000000003,33.63,98.60583335594666,8.282734375,64.56779382943171
1372579339.5,2.195617875,33.63,98.56166666666667,8.417291666666667,64.56779382943171
1372579339.75,2.194017,33.63,98.51749997738668,8.288125,64.56779382943171
1372579340.0,2.192256083333333,33.63,98.47333333333334,8.160416666666668,64.56779382943171
1372579340.25,2.1903350416666667,33.63,98.43333335381334,8.172395833333335,64.56779382943171
1372579340.5,2.18830725,33.63,98.39333333333335,7.870078125,64.56779382943171
1372579340.75,2.1861727500000003,33.63,98.35333331285334,7.860729166666668,64.56779382943171
1372579341.0,2.183984875,33.63,98.31333333333333,7.743567708333334,64.56779382943171
1372579341.25,2.181690291666667,33.63,98.28000001706667,7.808880208333334,64.56779382943171
1372579341.5,2.1793423333333335,33.63,98.24666666666667,7.915364583333333,64.56779382943171
1372579341.75,2.177101083333333,33.63,98.21333331626667,7.86859375,64.56779382943171
1372579342.0,2.1749132083333333,33.63,98.18,8.035286458333333,64.56779382943171
1372579342.25,2.1728320416666667,33.63,98.15250001408,8.071744791666667,64.56779382943171
1372579342.5,2.17080425,33.63,98.125,8.028776041666665,64.56779382943171
1372579342.75,2.1687230833333335,33.63,98.09749998592,8.235989583333334,64.56779382943171
1372579343.0,2.166802,33.63,98.07,8.136406249999999,64.57117930694807
1372579343.25,2.165094416666667,33.63,98.04500001279999,8.133177083333333,64.57263022588364
1372579343.5,2.16360025,33.63,98.01999999999998,7.942265625,64.57263022588364
1372579343.75,2.162266125,33.62916666666667,97.99499998719999,7.6578124999999995,64.5760157034
1372579344.0,2.1609854166666667,33.627500000000005,97.96999999999998,7.507864583333333,64.5837539377231
1372579344.25,2.1597047083333334,33.62583333333333,97.94333334698665,6.997942708333333,64.59149217204619
1372579344.5,2.158530708333333,33.62416666666667,97.91666666666666,6.535625,64.59923040636929
1372579344.75,2.157410083333333,33.6225,97.88999998634667,5.906588541666667,64.60998831547194
1372579345.0,2.156342833333333,33.62083333333334,97.86333333333333,4.959479166666667,64.62094753622657
1372579345.25,2.155435708333333,33.619166666666665,97.83500001450666,4.469921875,64.6319067569812
1372579345.5,2.1547419999999997,33.6175,97.80666666666667,3.9819270833333333,64.64286597773582
1372579345.75,2.1542617083333333,33.615,97.77833331882667,3.351380208333333,64.65382519849045
1372579346.0,2.153994875,33.611666666666665,97.75,2.9501562499999996,64.65918451355704
1372579346.25,2.154208291666667,33.608333333333334,97.71916668245333,2.4672395833333334,64.66849150372413
1372579346.5,2.1555957083333337,33.605,97.68833333333333,2.2451302083333333,64.67945072447876
1372579346.75,2.158584041666667,33.6025,97.65749998421333,1.8821354166666666,64.68702446771702
1372579347.0,2.163440083333333,33.600833333333334,97.62666666666667,1.5442708333333333,64.69024545414855
1372579347.25,2.170644125,33.59916666666667,97.5933333504,1.4091406249999998,64.69346644058008
1372579347.5,2.1803562500000004,33.597500000000004,97.56,1.2798697916666666,64.69527824544782
1372579347.75,2.1926297916666666,33.59583333333334,97.5266666496,1.5661979166666669,64.6891958187732
1372579348.0,2.2078210833333336,33.59416666666667,97.49333333333334,2.0643489583333334,64.67823659801857
1372579348.25,2.224986791666667,33.59250000000001,97.45583335253335,2.069765625,64.66727737726394
1372579348.5,2.2421525,33.590833333333336,97.41833333333335,2.108177083333333,64.65611643458314
1372579348.75,2.259264875,33.590833333333336,97.38083331413334,1.9677343749999998,64.63857439702998
1372579349.0,2.2762705,33.5925,97.34333333333335,1.6446874999999999,64.60913969562306
1372579349.25,2.292902583333333,33.594166666666666,97.30166668800001,0.941796875,64.57769187769644
1372579349.5,2.3085207916666666,33.59583333333334,97.26000000000002,0.12249999999999987,64.54604274811781
1372579349.75,2.322254083333333,33.597500000000004,97.21833331200001,-0.5474479166666667,64.51411008275117
1372579350.0,2.3339595416666667,33.59916666666667,97.17666666666668,-1.4077864583333335,64.47905852371598
1372579350.25,2.343477083333333,33.600833333333334,97.13083335680001,-2.1069270833333333,64.44287282152858
1372579350.5,2.350539916666667,33.6025,97.08500000000001,-2.4620833333333336,64.4076910291497
1372579350.75,2.355148041666667,33.604166666666664,97.0391666432,-2.9875000000000003,64.37649219567204
1372579351.0,2.3568384166666667,33.60583333333333,96.99333333333334,-3.5252864583333334,64.34996884462241
1372579351.25,2.356447625,33.607499999999995,96.94666669056001,-3.4482031249999996,64.32344549357276
1372579351.5,2.356750583333333,33.60916666666667,96.9,-3.2921093750000003,64.2965561745116
1372579351.75,2.35892125,33.60916666666667,96.85333330943999,-2.6846093750000004,64.27235796572768
1372579352.0,2.361412083333333,33.6075,96.80666666666666,-1.7366406250000004,64.26198300400036
1372579352.25,2.363902916666667,33.60583333333334,96.75833335808,-0.2777864583333334,64.25160804227303
1372579352.5,2.3663937500000003,33.604166666666664,96.71,1.4016666666666666,64.24123308054571
1372579352.75,2.3692753333333334,33.6025,96.66166664192,3.0340104166666673,64.23114165460645
1372579353.0,2.372370375,33.600833333333334,96.61333333333333,4.839401041666666,64.22416912233571
1372579353.25,2.375465416666667,33.59916666666667,96.56333335893333,6.525989583333334,64.21833073321717
1372579353.5,2.3775999166666666,33.597500000000004,96.51333333333334,7.804348958333333,64.21289761585392
1372579353.75,2.3786138333333335,33.59583333333334,96.46333330773334,8.803151041666666,64.20835609635226
1372579354.0,2.3787205833333336,33.59416666666667,96.41333333333334,9.596770833333334,64.2038145768506
1372579354.25,2.3779735000000004,33.59250000000001,96.36000002730667,9.713072916666667,64.19927305734895
1372579354.5,2.3754120833333334,33.590833333333336,96.30666666666667,9.59015625,64.19529922778499
1372579354.75,2.370022416666667,33.59,96.25333330602668,9.255052083333334,64.19501538281614
1372579355.0,2.36345875,33.59,96.2,8.652161458333333,64.19501538281614
1372579355.25,2.3559345416666666,33.59,96.14583336106666,7.894479166666667,64.19501538281614
1372579355.5,2.34766325,33.59,96.09166666666667,6.766979166666666,64.19501538281614
1372579355.75,2.3388050000000002,33.590833333333336,96.03749997226667,5.679140625,64.19501538281614
1372579356.0,2.3290929583333333,33.5925,95.98333333333333,4.611901041666667,64.19501538281614
1372579356.25,2.3187405416666667,33.594166666666666,95.92500002986667,3.508723958333334,64.19501538281614
1372579356.5,2.30892175,33.59583333333334,95.86666666666667,2.4369791666666667,64.19501538281614
1372579356.75,2.299796666666667,33.597500000000004,95.80833330346667,1.6787239583333333,64.19501538281614
1372579357.0,2.291258583333333,33.59916666666667,95.75,1.0962760416666668,64.19501538281614
1372579357.25,2.2832541249999996,33.600833333333334,95.68916669781333,0.8651562500000001,64.19972844433813
1372579357.5,2.27589,33.6025,95.62833333333333,0.78234375,64.19972844433813
1372579357.75,2.269112875,33.604166666666664,95.56749996885333,0.5380989583333333,64.19972844433813
1372579358.0,2.262816041666667,33.60583333333333,95.50666666666666,0.4637760416666667,64.19972844433813
1372579358.25,2.2569995,33.607499999999995,95.44666669738666,0.3460937499999999,64.19972844433813
1372579358.5,2.2516632083333334,33.60916666666667,95.38666666666666,0.5429947916666666,64.20444150586012
1372579358.75,2.2468071666666667,33.61,95.32666663594667,0.7859374999999998,64.27042436716806
1372579359.0,2.2425914583333335,33.61,95.26666666666667,0.9287239583333332,64.33640722847599
1372579359.25,2.238856,33.61,95.21916669098667,1.0654427083333333,64.4071031513059
1372579359.5,2.235494125,33.61,95.17166666666667,1.1944270833333333,64.47308601261385
1372579359.75,2.2322923333333335,33.61,95.12416664234667,1.2701562499999999,64.53906887392178
1372579360.0,2.2293039583333334,33.61,95.07666666666667,1.5045052083333335,64.57206030457574
1372579360.25,2.226635791666667,33.61,95.04916668074667,1.544505208333333,64.56734724305375
1372579360.5,2.2242344583333336,33.61,95.02166666666666,1.9018749999999998,64.57206030457574
1372579360.75,2.2220465833333334,33.61,94.99416665258666,2.414817708333333,64.57206030457574
1372579361.0,2.2201788749999998,33.61,94.96666666666665,2.843515625,64.57206030457574
1372579361.25,2.218524625,33.61,94.95166667434665,3.35546875,64.57206030457574
1372579361.5,2.2164435,33.61,94.93666666666667,3.6258072916666673,64.56734724305375
1372579361.75,2.2139354166666667,33.61,94.92166665898668,3.922083333333333,64.5005528056326
1372579362.0,2.211320625,33.61,94.90666666666668,4.33109375,64.43375836821146
1372579362.25,2.2084390833333334,33.61,94.89833333760001,4.693333333333333,64.36245376329661
1372579362.5,2.2052372916666667,33.61,94.89000000000001,5.177005208333333,64.29383327962073
1372579362.75,2.20192875,33.61,94.88166666240001,5.568359375,64.22622726608637
1372579363.0,2.1984601666666665,33.61,94.87333333333333,5.837994791666667,64.1930329414041
1372579363.25,2.1947781249999996,33.61,94.86583333717333,6.144713541666667,64.1930329414041
1372579363.5,2.1910427083333333,33.61,94.85833333333332,6.092213541666667,64.18831987988212
1372579363.75,2.1873606666666663,33.61083333333333,94.85083332949333,6.082083333333333,64.18917141478867
1372579364.0,2.183732,33.612500000000004,94.84333333333332,6.002135416666667,64.19087448460179
1372579364.25,2.18031675,33.61416666666667,94.84000000170666,6.06765625,64.22659213525253
1372579364.5,2.177488458333333,33.615833333333335,94.83666666666666,6.246901041666667,64.30020068359325
1372579364.75,2.1751404583333334,33.61666666666667,94.83333333162666,6.223802083333333,64.37534098245166
1372579365.0,2.1730592916666667,33.61666666666667,94.83,6.154869791666666,64.45012119410784
1372579365.25,2.1711382083333333,33.61666666666667,94.82916666709333,5.9929427083333335,64.52445845360087
1372579365.5,2.169323875,33.61666666666667,94.82833333333333,5.838463541666667,64.60190491498368
1372579365.75,2.167776375,33.6175,94.82749999957333,5.901692708333333,64.67725664461825
1372579366.0,2.1664956666666666,33.61916666666667,94.82666666666667,5.860442708333333,64.75094805791986
1372579366.25,2.1654284166666664,33.62083333333334,94.82250000213334,5.8808854166666675,64.82443657719317
1372579366.5,2.16452125,33.6225,94.81833333333333,5.585260416666666,64.89068593100818
1372579366.75,2.1637207916666665,33.623333333333335,94.81416666453333,4.717786458333333,64.95616378818856
1372579367.0,2.163347208333333,33.623333333333335,94.81,4.38765625,65.02790921851279
1372579367.25,2.163720708333333,33.623333333333335,94.80083333802666,3.9252343750000005,65.06531991491163
1372579367.5,2.1644677916666666,33.623333333333335,94.79166666666666,3.5311979166666667,65.05764056729818
1372579367.75,2.16526825,33.624166666666675,94.78249999530667,2.7165364583333336,65.04578153909497
1372579368.0,2.1661220416666667,33.62583333333334,94.77333333333333,0.8498958333333332,65.04466111664982
1372579368.25,2.1672426249999996,33.627500000000005,94.76166667263999,0.6464322916666665,65.04378075233949
1372579368.5,2.1686300416666664,33.62916666666667,94.75,0.6167708333333332,65.04182012642244
1372579368.75,2.1697506249999994,33.63,94.73833332736001,-0.2745312500000002,65.0409397621121
1372579369.0,2.170711125,33.63,94.72666666666667,-1.6577343750000002,65.0402994559366
1372579369.25,2.1716716249999997,33.63,94.71416667306667,-3.0528385416666666,65.0396591497611
1372579369.5,2.1725787499999996,33.63,94.70166666666667,-4.088515625,65.04625800904388
1372579369.75,2.173485875,33.62833333333334,94.68916666026666,-4.64234375,65.05277683005474
1372579370.0,2.1738594166666663,33.62500000000001,94.67666666666666,-5.648932291666667,65.0521765430152
1372579370.25,2.1733791666666664,33.62166666666667,94.66500000597333,-6.68609375,65.05189640906342
1372579370.5,2.1725787083333334,33.61833333333334,94.65333333333334,-7.466145833333333,65.05881542143395
1372579370.75,2.171724916666667,33.615,94.64166666069333,-7.662682291666666,65.06919393998976
1372579371.0,2.1707644166666666,33.61166666666667,94.63,-7.007135416666666,65.06919393998976
1372579371.25,2.1695904583333334,33.608333333333334,94.62083333802666,-8.506692708333333,65.06951409307752
1372579371.5,2.1682030416666667,33.605000000000004,94.61166666666665,-10.466145833333334,65.0568866268385
1372579371.75,2.1670290833333334,33.60166666666667,94.60249999530666,-11.499348958333334,65.04621917290928
1372579372.0,2.166015208333333,33.598333333333336,94.59333333333332,-11.911484375,65.00397614249735
1372579372.25,2.165001333333333,33.595000000000006,94.58250000554665,-12.071692708333332,64.94226940439533
1372579372.5,2.1640408333333334,33.59166666666667,94.57166666666666,-11.730859375000001,64.86617488684468
1372579372.75,2.1630803333333333,33.59,94.56083332778667,-11.089062499999999,64.790080369294
1372579373.0,2.1622799166666664,33.59,94.55,-10.419322916666665,64.73316955767488
1372579373.25,2.1619063749999996,33.59,94.53333334186667,-10.278854166666667,64.67146281957288
1372579373.5,2.162066458333333,33.59,94.51666666666667,-10.450807291666667,64.59536830202221
1372579373.75,2.162386625,33.59,94.49999999146667,-10.218776041666667,64.51927378447154
1372579374.0,2.1628135,33.59,94.48333333333333,-9.720338541666665,64.44317926692088
1372579374.25,2.163453833333333,33.59,94.46083334485333,-8.40375,64.36676459628245
1372579374.5,2.1643076249999997,33.59,94.43833333333333,-6.885364583333334,64.30329754497079
1372579374.75,2.1652147916666666,33.59,94.41583332181334,-5.610390625,64.23787048134936
1372579375.0,2.1661219583333335,33.59,94.39333333333333,-4.296223958333333,64.20401899421061
1372579375.25,2.1667089583333334,33.59,94.3766666752,-3.3185416666666665,64.18963121476197
1372579375.5,2.1668690416666667,33.59,94.36,-2.7216406250000005,64.18963121476196
1372579375.75,2.1667623333333332,33.59,94.3433333248,-2.374453125,64.18963121476197
1372579376.0,2.166388791666667,33.59,94.32666666666667,-2.1193489583333336,64.17044750883043
1372579376.25,2.1654816250000004,33.59,94.32833333248,-1.0651822916666667,64.15605972938177
1372579376.5,2.163827416666667,33.59,94.33,-0.07335937500000007,64.16621158586462
1372579376.75,2.161906375,33.58916666666667,94.33166666752,0.6007812499999999,64.17636344234747
1372579377.0,2.1598252500000004,33.5875,94.33333333333333,1.3125,64.21697086827885
1372579377.25,2.1576374166666668,33.58583333333333,94.35166665727999,1.7140885416666667,64.29818572014163
1372579377.5,2.155236125,33.58416666666667,94.36999999999999,2.3403385416666667,64.37432464376299
1372579377.75,2.152514625,33.5825,94.38833334271999,3.0760937499999996,64.38447650024584
1372579378.0,2.1495262916666666,33.58083333333334,94.40666666666665,3.5908072916666662,64.38447650024584
1372579378.25,2.146858125,33.57916666666667,94.43749998421333,4.467005208333333,64.38447650024584
1372579378.5,2.144616875,33.5775,94.46833333333333,4.994401041666666,64.39462835672869
1372579378.75,2.1426424166666664,33.575833333333335,94.49916668245334,5.736692708333333,64.40985614145295
1372579379.0,2.1408814166666663,33.57416666666666,94.53000000000002,6.593984374999999,64.40985614145295
1372579379.25,2.139494,33.5725,94.55333332138667,6.978463541666667,64.40985614145295
1372579379.5,2.139013708333333,33.57083333333333,94.57666666666668,7.668984375,64.3997042849701
1372579379.75,2.140828041666667,33.57083333333333,94.60000001194668,8.020130208333333,64.38955242848726
1372579380.0,2.1453639166666667,33.5725,94.62333333333333,8.418567708333333,64.34894500255587
1372579380.25,2.152301083333333,33.57416666666667,94.63666665984,8.934531250000001,64.26773015069308
1372579380.5,2.1610525833333334,33.575833333333335,94.65,9.129869791666668,64.19159122707173
1372579380.75,2.1704978333333336,33.57750000000001,94.66333334016001,9.41125,64.18143937058888
1372579381.0,2.1802099166666666,33.579166666666666,94.67666666666668,9.763541666666667,64.18143937058889
1372579381.25,2.189922,33.58083333333334,94.67083333632002,9.862708333333334,64.206819011796
1372579381.5,2.199634083333333,33.5825,94.66500000000002,10.1865625,64.19666715531316
1372579381.75,2.2093461666666667,33.583333333333336,94.65916666368001,10.161171874999999,64.18143937058888
1372579382.0,2.2190582500000002,33.583333333333336,94.65333333333335,10.054869791666667,64.18143937058888
1372579382.25,2.22839675,33.583333333333336,94.64000000682668,9.994557291666666,64.18143937058889
1372579382.5,2.2370949166666665,33.583333333333336,94.62666666666668,9.73328125,64.18143937058888
1372579382.75,2.2435518333333335,33.5825,94.61333332650668,9.683098958333334,64.18143937058888
1372579383.0,2.247340583333333,33.58083333333334,94.60000000000001,9.3103125,64.18143937058889
1372579383.25,2.24883475,33.579166666666666,94.58083334314667,9.116171875000001,64.18143937058888
1372579383.5,2.2486746666666666,33.5775,94.56166666666667,8.895755208333332,64.18143937058889
1372579383.75,2.2480876666666663,33.57583333333333,94.54249999018667,8.510677083333334,64.18143937058888
1372579384.0,2.2471805000000002,33.57416666666666,94.52333333333333,8.274791666666667,64.18143937058888
1372579384.25,2.2458997916666665,33.5725,94.50500000938666,7.696770833333333,64.15605972938177
1372579384.5,2.2441921666666667,33.57083333333333,94.48666666666666,7.329010416666667,64.15605972938177
1372579384.75,2.2420576666666667,33.57083333333333,94.46833332394667,6.988281250000001,64.15605972938177
1372579385.0,2.2392828333333332,33.5725,94.45,6.526692708333333,64.15605972938177
1372579385.25,2.2361878333333336,33.57416666666666,94.43166667605334,6.539348958333334,64.15605972938177
1372579385.5,2.2327192916666667,33.57583333333333,94.41333333333333,6.25109375,64.15605972938177
1372579385.75,2.2288771666666665,33.5775,94.39499999061333,5.9125781250000005,64.15605972938177
1372579386.0,2.22455475,33.57916666666667,94.37666666666667,5.69390625,64.15605972938177
1372579386.25,2.219592,33.58083333333334,94.35750000981334,5.066432291666667,64.15605972938177
1372579386.5,2.2144157916666667,33.5825,94.33833333333334,4.711145833333333,64.15605972938177
1372579386.75,2.2087059583333333,33.5825,94.31916665685333,4.313489583333333,64.16113565762318
1372579387.0,2.2026759583333333,33.58083333333334,94.3,3.7575260416666665,64.16113565762319
1372579387.25,2.1968060416666666,33.579166666666666,94.27833334442666,3.67359375,64.17128751410603
1372579387.5,2.191363041666667,33.5775,94.25666666666666,3.2024739583333335,64.21697086827886
1372579387.75,2.1861334583333334,33.575,94.23499998890667,2.876588541666667,64.26773015069308
1372579388.0,2.1815442083333334,33.571666666666665,94.21333333333332,2.7662760416666665,64.33371721783159
1372579388.25,2.177381875,33.568333333333335,94.18833334613332,2.1845833333333333,64.34386907431444
1372579388.5,2.1734863333333334,33.565000000000005,94.16333333333333,2.0601041666666666,64.34894500255587
1372579388.75,2.1699643333333336,33.5625,94.13833332053333,1.9599739583333333,64.34894500255588
1372579389.0,2.166976,33.56083333333333,94.11333333333333,2.0190885416666666,64.34894500255587
1372579389.25,2.1645746666666668,33.55916666666666,94.0841666816,2.4410416666666666,64.34894500255587
1372579389.5,2.162440166666667,33.5575,94.055,2.513932291666667,64.34894500255588
1372579389.75,2.160892666666667,33.5575,94.0258333184,2.8137239583333336,64.34386907431444
1372579390.0,2.1595585833333333,33.55916666666667,93.99666666666667,3.290703125,64.34386907431444
1372579390.25,2.157957666666667,33.560833333333335,93.96583334912,3.339973958333333,64.3337172178316
1372579390.5,2.1561432916666665,33.5625,93.935,3.8035937499999997,64.28803386365878
1372579390.75,2.154328916666667,33.56333333333333,93.90416665088,4.039401041666666,64.23727458124455
1372579391.0,2.152087666666667,33.56333333333333,93.87333333333333,4.266640625,64.17128751410603
1372579391.25,2.14952625,33.56333333333333,93.84250001578667,4.756119791666666,64.16113565762319
1372579391.5,2.146751375,33.56333333333333,93.81166666666667,4.812005208333333,64.15605972938177
1372579391.75,2.1437630833333334,33.5625,93.78083331754667,5.062916666666667,64.15605972938177
1372579392.0,2.140668041666667,33.560833333333335,93.75,5.236380208333333,64.15605972938177
1372579392.25,2.1375195833333334,33.55916666666666,93.72166668117333,5.147552083333333,64.15605972938177
1372579392.5,2.134157666666667,33.5575,93.69333333333333,5.497161458333333,64.15605972938177
1372579392.75,2.130528958333333,33.55583333333333,93.66499998549334,5.617369791666667,64.15605972938177
1372579393.0,2.12690025,33.55416666666667,93.63666666666667,5.5405468749999995,64.15605972938177
1372579393.25,2.123324916666667,33.552499999999995,93.61333334528,5.813229166666666,64.15605972938177
1372579393.5,2.119749625,33.55083333333333,93.59,5.718854166666667,64.15605972938177
1372579393.75,2.1162810833333334,33.55083333333333,93.56666665472001,5.958124999999999,64.15605972938177
1372579394.0,2.1132394166666666,33.552499999999995,93.54333333333334,6.080494791666666,64.15605972938177
1372579394.25,2.1106779999999996,33.55416666666667,93.53000000682667,6.075625,64.15605972938177
1372579394.5,2.1084367916666666,33.55583333333333,93.51666666666668,6.450833333333333,64.15605972938177
1372579394.75,2.10651575,33.556666666666665,93.50333332650668,6.485859375,64.15626262341007
1372579395.0,2.1047547916666667,33.556666666666665,93.49000000000001,6.537708333333334,64.15646551743838
1372579395.25,2.103634208333333,33.556666666666665,93.48500000256,6.66390625,64.15646551743838
1372579395.5,2.103794333333333,33.556666666666665,93.48,6.503046874999999,64.15646551743838
1372579395.75,2.1057154166666665,33.5575,93.47499999744001,6.504401041666667,64.15950892786293
1372579396.0,2.109664291666667,33.55916666666666,93.47,6.501614583333333,64.1627552323158
1372579396.25,2.1153207916666665,33.560833333333335,93.47083333290666,6.481979166666666,64.16600153676866
1372579396.5,2.121510875,33.5625,93.47166666666666,6.608645833333334,64.16924784122152
1372579396.75,2.1278076666666665,33.56333333333333,93.47250000042668,6.5406770833333345,64.17720720719639
1372579397.0,2.1341044583333333,33.56333333333333,93.47333333333334,6.535104166666667,64.20042536861241
1372579397.25,2.14040125,33.56333333333333,93.47749999786667,6.451249999999999,64.23362945851001
1372579397.5,2.146698041666667,33.56333333333333,93.48166666666667,6.233411458333333,64.31676319081551
1372579397.75,2.1529948333333335,33.565000000000005,93.48583333546667,6.094010416666666,64.3996940290927
1372579398.0,2.158437791666667,33.568333333333335,93.49,5.934947916666666,64.48262486736989
1372579398.25,2.1624399583333336,33.571666666666665,93.49833332906667,5.922604166666666,64.56575859967538
1372579398.5,2.1645744583333335,33.574999999999996,93.50666666666666,5.759713541666667,64.64889233198087
1372579398.75,2.164361,33.5775,93.51500000426665,5.654114583333333,64.72898265386182
1372579399.0,2.1617995833333334,33.579166666666666,93.52333333333333,5.548359375,64.7789122962697
1372579399.25,2.1573704583333337,33.58083333333334,93.53749999274666,5.335755208333333,64.7789122962697
1372579399.5,2.152087541666667,33.5825,93.55166666666666,5.180104166666666,64.7789122962697
1372579399.75,2.1464844583333336,33.58416666666667,93.56583334058666,4.899348958333333,64.77419923474771
1372579400.0,2.1405611666666666,33.58583333333333,93.58,4.741223958333333,64.75422737778455
1372579400.25,2.1341575833333333,33.587500000000006,93.59666665813333,4.599036458333333,64.72426959233981
1372579400.5,2.127380458333333,33.589166666666664,93.61333333333333,4.535651041666667,64.64438216448718
1372579400.75,2.120389916666667,33.58916666666667,93.63000000853333,4.650130208333334,64.56429184260624
1372579401.0,2.1139864166666666,33.587500000000006,93.64666666666666,4.617916666666667,64.4842015207253
1372579401.25,2.108276625,33.58583333333333,93.66416665770667,4.616041666666667,64.40208225856135
1372579401.5,2.103313875,33.58416666666667,93.68166666666667,4.845833333333333,64.31935431431246
1372579401.75,2.0989914583333333,33.5825,93.69916667562667,4.840364583333334,64.23622058200696
1372579402.0,2.0950959583333333,33.58083333333334,93.71666666666668,5.175338541666666,64.18324752917451
1372579402.25,2.091520625,33.579166666666666,93.73166665898668,5.250729166666667,64.18000122472164
1372579402.5,2.0882654583333333,33.5775,93.74666666666667,5.2054687500000005,64.17675492026878
1372579402.75,2.0850636666666666,33.574999999999996,93.76166667434666,5.49609375,64.1735086158159
1372579403.0,2.082022,33.571666666666665,93.77666666666666,5.4221875,64.17026231136305
1372579403.25,2.07940725,33.568333333333335,93.78916666026666,5.717395833333334,64.16701600691019
1372579403.5,2.0770592916666666,33.565000000000005,93.80166666666666,5.751796875,64.16376970245732
1372579403.75,2.074604583333333,33.5625,93.81416667306667,5.586302083333334,64.16072629203276
1372579404.0,2.0720965000000002,33.56083333333333,93.82666666666667,5.749479166666667,64.15768288160821
1372579404.25,2.069428333333333,33.55916666666666,93.83499999573334,5.566276041666666,64.15666841146667
1372579404.5,2.066493375,33.5575,93.84333333333333,5.364270833333333,64.15626262341007
1372579404.75,2.0637185000000002,33.55583333333333,93.85166667093333,5.325859375,64.15626262341006
1372579405.0,2.0611036666666664,33.55416666666667,93.86,4.801953125,64.15605972938177
1372579405.25,2.058488833333333,33.5525,93.86416666453333,4.700833333333333,64.15605972938177
1372579405.5,2.0556605833333337,33.55083333333334,93.86833333333334,4.568307291666667,64.15605972938177
1372579405.75,2.052618875,33.55,93.87250000213334,4.142161458333333,64.15605972938177
1372579406.0,2.049470416666667,33.55,93.87666666666667,4.07609375,64.15605972938177
1372579406.25,2.0461618749999997,33.55,93.87500000085333,3.6038281249999997,64.15910313980632
1372579406.5,2.042746625,33.55,93.87333333333333,3.4009895833333332,64.16234944425919
1372579406.75,2.039438083333333,33.55,93.87166666581334,3.3287239583333332,64.16559574871205
1372579407.0,2.0362362916666665,33.55,93.87,2.96078125,64.16884205316491
1372579407.25,2.0332479583333334,33.55,93.86333333674666,2.92703125,64.17208835761778
1372579407.5,2.0304196666666665,33.55,93.85666666666665,2.786197916666666,64.17533466207065
1372579407.75,2.0274312916666664,33.55083333333334,93.84999999658666,2.6544531250000003,64.17858096652351
1372579408.0,2.0243362499999997,33.5525,93.84333333333332,2.8480208333333334,64.18182727097637
1372579408.25,2.021508041666667,33.55416666666667,93.83416667135998,2.890546875,64.18507357542923
1372579408.5,2.019106708333333,33.55583333333333,93.82499999999999,3.0929687499999994,64.18831987988212
1372579408.75,2.017185625,33.556666666666665,93.81583332864,3.2519010416666667,64.19156618433497
1372579409.0,2.0155313749999997,33.556666666666665,93.80666666666666,3.174036458333333,64.19481248878783
1372579409.25,2.014090583333333,33.556666666666665,93.79833333759998,3.296171875,64.19501538281614
1372579409.5,2.01286325,33.556666666666665,93.78999999999999,3.242630208333333,64.1971642592996
1372579409.75,2.0122762916666668,33.556666666666665,93.7816666624,3.1748958333333337,64.23363779139255
1372579410.0,2.0130767499999997,33.556666666666665,93.77333333333333,3.2913541666666664,64.30280257449803
1372579410.25,2.0148910833333336,33.556666666666665,93.7691666688,3.2904427083333334,64.37573081168917
1372579410.5,2.0168655416666668,33.556666666666665,93.76499999999999,3.3422916666666667,64.44877911101439
1372579410.75,2.0195870833333336,33.55583333333333,93.76083333119999,3.140963541666667,64.51882482121734
1372579411.0,2.02380275,33.55416666666667,93.75666666666666,2.8783072916666668,64.58806975614436
1372579411.25,2.0288722500000005,33.5525,93.75666666666666,2.7789322916666666,64.65683420603699
1372579411.5,2.034368666666667,33.55083333333333,93.75666666666666,2.6651822916666665,64.72591899821974
1372579411.75,2.0404520416666667,33.55083333333333,93.75666666666666,2.628645833333333,64.79524403291971
1372579412.0,2.0469089583333333,33.552499999999995,93.75666666666666,2.666171875,64.8636079839476
1372579412.25,2.05576725,33.55416666666667,93.75916666538666,3.0256510416666664,64.93253251978284
1372579412.5,2.0685210416666666,33.55583333333333,93.76166666666666,4.403880208333334,65.00066953446483
1372579412.75,2.0834627083333337,33.5575,93.76416666794667,7.811354166666667,65.01739648373358
1372579413.0,2.099258166666667,33.55916666666666,93.76666666666667,11.775833333333331,64.95745574789687
1372579413.25,2.1158540833333332,33.56083333333333,93.77666666154667,15.822734374999998,64.88249839790423
1372579413.5,2.1325567500000004,33.5625,93.78666666666666,19.905078125,64.80863852246576
1372579413.75,2.1487257916666667,33.564166666666665,93.79666667178667,24.167213541666666,64.73859281226282
1372579414.0,2.1636675000000003,33.56583333333333,93.80666666666667,27.989114583333333,64.6693478773358
1372579414.25,2.177755375,33.5675,93.81999999317334,28.611588541666666,64.60058342744317
1372579414.5,2.191416333333333,33.56916666666667,93.83333333333334,28.861276041666667,64.5314986352604
1372579414.75,2.2044903333333337,33.57,93.84666667349335,29.376276041666667,64.46217360056046
1372579415.0,2.216336958333333,33.57,93.86000000000001,29.707578124999998,64.39380964953257
1372579415.25,2.2248750416666665,33.57,93.87999998976001,29.541328125000003,64.32488511369733
1372579415.5,2.228343666666667,33.57,93.9,28.342838541666666,64.25459922253187
1372579415.75,2.228236958333333,33.57,93.92000001024,25.013854166666665,64.20139874117017
1372579416.0,2.22519525,33.57,93.94,21.010494791666666,64.1921746939014
1372579416.25,2.2198055416666667,33.57,93.96166665557332,16.768723958333336,64.19420380670292
1372579416.5,2.214095625,33.57,93.98333333333332,12.695364583333335,64.19501538281614
1372579416.75,2.2081722916666666,33.57,94.00500001109333,8.674166666666666,64.19501538281614
1372579417.0,2.2019287916666666,33.57,94.02666666666666,5.103802083333334,64.19501538281614
1372579417.25,2.1954184583333336,33.57,94.05333331968,4.858515625,64.19501538281614
1372579417.5,2.1886413333333334,33.57,94.07999999999998,4.939036458333334,64.19501538281614
1372579417.75,2.1813839583333334,33.57333333333333,94.10666668031999,4.8394531249999995,64.19501538281614
1372579418.0,2.174606875,33.58,94.13333333333333,4.958046875,64.19501538281614
1372579418.25,2.1686835833333333,33.586666666666666,94.16083331925333,5.1430468750000005,64.19501538281614
1372579418.5,2.163880875,33.593333333333334,94.18833333333333,5.465651041666667,64.19501538281614
1372579418.75,2.159932,33.6,94.21583334741334,5.842317708333333,64.19501538281614
1372579419.0,2.1567836249999996,33.60666666666667,94.24333333333334,6.261119791666666,64.19501538281614
1372579419.25,2.15422225,33.61333333333334,94.26833332053333,6.854739583333334,64.19501538281614
1372579419.5,2.1517675833333336,33.62,94.29333333333332,7.277473958333332,64.19501538281614
1372579419.75,2.149152791666667,33.62916666666666,94.31833334613333,7.799921875,64.19501538281614
1372579420.0,2.1463779166666668,33.64083333333333,94.34333333333332,8.14984375,64.19501538281614
1372579420.25,2.1437097916666668,33.652499999999996,94.36249999018666,8.222239583333334,64.19501538281614
1372579420.5,2.1407748333333334,33.66416666666667,94.38166666666666,8.1990625,64.19501538281614
1372579420.75,2.1377865000000003,33.675,94.40083334314666,8.184036458333333,64.19501538281614
1372579421.0,2.1347981666666667,33.685,94.42,8.218489583333334,64.19501538281614
1372579421.25,2.131382916666667,33.695,94.43916665685333,8.163854166666665,64.19501538281614
1372579421.5,2.1278609166666667,33.705000000000005,94.45833333333334,8.0496875,64.19501538281614
1372579421.75,2.1240720833333335,33.715833333333336,94.47750000981334,7.927708333333334,64.19501538281614
1372579422.0,2.1199097083333336,33.7275,94.49666666666667,7.699479166666666,64.19501538281614
1372579422.25,2.1156406666666667,33.73916666666667,94.51749998933333,7.405520833333333,64.19501538281614
1372579422.5,2.1112115416666666,33.75083333333334,94.53833333333333,6.977083333333334,64.19501538281614
1372579422.75,2.1069958333333334,33.76166666666667,94.55916667733334,6.47015625,64.19501538281614
1372579423.0,2.103260375,33.77166666666667,94.58,6.063958333333333,64.19501538281614
1372579423.25,2.099685,33.781666666666666,94.59999998976001,5.629817708333333,64.19501538281614
1372579423.5,2.09664325,33.791666666666664,94.62,5.331041666666667,64.19501538281614
1372579423.75,2.0941351249999998,33.79916666666667,94.64000001024,4.861380208333333,64.19501538281614
1372579424.0,2.0920005416666667,33.80416666666667,94.66000000000001,4.32015625,64.19501538281614
1372579424.25,2.090506375,33.80916666666666,94.67249999360001,3.877708333333333,64.19501538281614
1372579424.5,2.0894925416666665,33.814166666666665,94.685,3.458541666666667,64.19501538281614
1372579424.75,2.0891190416666667,33.818333333333335,94.69750000639999,3.1157291666666667,64.19501538281614
1372579425.0,2.0892257916666668,33.821666666666665,94.71,2.8527083333333336,64.19501538281614
1372579425.25,2.0895459583333333,33.824999999999996,94.71833332906667,2.797786458333334,64.19501538281614
1372579425.5,2.0901329583333337,33.82833333333333,94.72666666666666,2.8579687499999995,64.19501538281614
1372579425.75,2.0908800833333334,33.82833333333333,94.73500000426667,2.694817708333334,64.19501538281614
1372579426.0,2.0916272083333336,33.824999999999996,94.74333333333334,2.517265625,64.19501538281614
1372579426.25,2.092320958333333,33.821666666666665,94.7516666624,2.360494791666667,64.19529922778499
1372579426.5,2.0927479166666667,33.81833333333333,94.75999999999999,2.0999739583333334,64.19756998753583
1372579426.75,2.0928013333333335,33.814166666666665,94.7683333376,1.9847395833333332,64.2006922821932
1372579427.0,2.0924278333333333,33.80916666666666,94.77666666666666,1.843671875,64.20494995672601
1372579427.25,2.091734125,33.80416666666667,94.78833332736,1.7504166666666665,64.20920763125882
1372579427.5,2.090453375,33.799166666666665,94.79999999999998,1.617864583333333,64.21346530579163
1372579427.75,2.0883188333333336,33.79416666666666,94.81166667263999,1.416015625,64.21573606554246
1372579428.0,2.085704041666667,33.78916666666667,94.82333333333332,1.0842447916666667,64.21687144541787
1372579428.25,2.082715708333333,33.78416666666667,94.8316666624,0.5625260416666666,64.21743913535558
1372579428.5,2.0794605416666667,33.77916666666667,94.84,0.15539062500000003,64.21743913535558
1372579428.75,2.0759919166666667,33.775,94.8483333376,-0.09968749999999994,64.21829067026214
1372579429.0,2.072203125,33.77166666666667,94.85666666666667,-0.27315104166666665,64.22283218976379
1372579429.25,2.0682542500000003,33.76833333333334,94.86333332992001,-0.42851562499999996,64.2270898642966
1372579429.5,2.0643587083333332,33.76500000000001,94.87,-0.5502083333333333,64.22936062404743
1372579429.75,2.060676625,33.7625,94.87666667008,-0.6848437499999999,64.2307798488917
1372579430.0,2.057261375,33.76083333333334,94.88333333333334,-0.8389322916666667,64.23398041497339
1372579430.25,2.053686041666667,33.759166666666665,94.88833333077335,-1.1538541666666666,64.2400977021679
1372579430.5,2.050110708333333,33.7575,94.89333333333335,-1.6065364583333333,64.24621498936241
1372579430.75,2.047122375,33.755833333333335,94.89833333589334,-1.9459895833333334,64.25431919133891
1372579431.0,2.0446142916666665,33.75416666666667,94.90333333333335,-1.8693489583333334,64.26355877319082
1372579431.25,2.04247975,33.752500000000005,94.90916666368001,-1.7945833333333334,64.27336604498043
1372579431.5,2.0406120416666664,33.75083333333333,94.91500000000002,-1.8214843749999998,64.28374100670776
1372579431.75,2.038957791666667,33.748333333333335,94.92083333632002,-1.8930729166666664,64.29326443352852
1372579432.0,2.0378371666666664,33.745,94.92666666666668,-1.9745833333333334,64.29909787575419
1372579432.25,2.038104,33.74166666666667,94.93333332992,-2.045755208333333,64.30493131797985
1372579432.5,2.039918375,33.73833333333334,94.94,-2.026067708333333,64.31076476020552
1372579432.75,2.0426932916666667,33.735,94.94666667008,-1.9442447916666667,64.31659820243117
1372579433.0,2.0458950833333334,33.73166666666666,94.95333333333333,-1.7253906250000002,64.319514923544
1372579433.25,2.0494170416666666,33.72833333333333,94.96499999402667,-1.1107552083333332,64.319514923544
1372579433.5,2.0532058333333336,33.725,94.97666666666666,-0.20242187499999995,64.319514923544
1372579433.75,2.056994625,33.72166666666667,94.98833333930666,0.6513802083333334,64.319514923544
1372579434.0,2.0607834166666668,33.718333333333334,95.0,1.151822916666667,64.31623361229207
1372579434.25,2.0645722083333333,33.714999999999996,95.0124999936,1.6120312500000002,64.3104001700664
1372579434.5,2.0678807083333335,33.711666666666666,95.025,2.005598958333333,64.30456672784074
1372579434.75,2.0707089583333333,33.70875,95.0375000064,2.3625520833333336,64.29873328561509
1372579435.0,2.0726834166666666,33.706250000000004,95.05,2.670234375,64.2928998433894
1372579435.25,2.0727901249999996,33.70375000000001,95.05999999488,2.9413541666666667,64.28852476172015
1372579435.5,2.0710291249999995,33.701249999999995,95.07,3.1119270833333332,64.28852476172017
1372579435.75,2.0678273333333332,33.69875,95.08000000511998,3.184140625,64.28852476172017
1372579436.0,2.063825083333333,33.69625,95.08999999999999,3.2015625,64.28852476172017
1372579436.25,2.0593425416666666,33.69375,95.08416666965333,2.9161979166666665,64.28487886032913
1372579436.5,2.0544331249999996,33.691250000000004,95.07833333333332,2.4394010416666667,64.27904541810346
1372579436.75,2.0492035416666665,33.687916666666666,95.07249999701332,1.9085937499999999,64.2732119758778
1372579437.0,2.0437605,33.683749999999996,95.06666666666666,1.4172916666666666,64.27065984490407
1372579437.25,2.037943916666667,33.67958333333333,95.05166667434666,1.037890625,64.27065984490407
1372579437.5,2.0323407916666665,33.67541666666666,95.03666666666666,0.7155729166666668,64.27065984490407
1372579437.75,2.0271112083333334,33.67333333333333,95.02166665898666,0.5116666666666667,64.27065984490407
1372579438.0,2.02241525,33.67333333333333,95.00666666666666,0.29078125000000005,64.27065984490407
1372579438.25,2.0181462083333335,33.67333333333333,94.98333334528,0.06296875000000002,64.26920148434766
1372579438.5,2.0142507083333334,33.67333333333333,94.96000000000001,-0.18179687499999997,64.263368042122
1372579438.75,2.010995541666667,33.6725,94.93666665472,-0.4491927083333333,64.25753459989632
1372579439.0,2.0082740416666667,33.670833333333334,94.91333333333334,-0.6779166666666666,64.25170115767067
1372579439.25,2.0060328333333333,33.66916666666666,94.89833334101333,-0.9123437499999999,64.24951361683604
1372579439.5,2.0042185,33.6675,94.88333333333333,-0.96875,64.24951361683604
1372579439.75,2.0027243333333336,33.666666666666664,94.86833332565332,-0.9733333333333333,64.24951361683604
1372579440.0,2.001443625,33.666666666666664,94.85333333333331,-0.9491145833333333,64.24951361683604
1372579440.25,2.0006432083333334,33.666666666666664,94.84750000298665,-0.922421875,64.24951361683604
1372579440.5,2.000109625,33.666666666666664,94.84166666666665,-0.9207291666666667,64.24951361683604
1372579440.75,1.9996827499999998,33.66583333333333,94.83583333034666,-0.9521875,64.24951361683604
1372579441.0,1.9993625833333335,33.66416666666667,94.83,-0.9429427083333333,64.24951361683604
1372579441.25,1.9993092500000003,33.662499999999994,94.83916666197334,-0.7813020833333333,64.24951361683604
1372579441.5,1.9992559166666668,33.66083333333333,94.84833333333333,-0.43617187499999993,64.24951361683604
1372579441.75,1.9987756666666667,33.660833333333336,94.85750000469334,-0.01260416666666665,64.24951361683604
1372579442.0,1.9980285833333333,33.662499999999994,94.86666666666667,0.46359374999999997,64.24951361683604
1372579442.25,1.9968545833333335,33.66416666666667,94.88166665898667,0.9933854166666666,64.24951361683604
1372579442.5,1.995307041666667,33.66583333333333,94.89666666666666,1.5015364583333335,64.24951361683604
1372579442.75,1.9935460416666668,33.6675,94.91166667434666,2.058854166666667,64.24951361683604
1372579443.0,1.9917850416666667,33.66916666666666,94.92666666666666,2.5434114583333334,64.25060738725335
1372579443.25,1.9899172916666668,33.670833333333334,94.9433333248,2.8724739583333334,64.25644082947902
1372579443.5,1.988049541666667,33.6725,94.96000000000001,3.1919791666666666,64.26227427170468
1372579443.75,1.9861817916666666,33.67333333333334,94.97666667520001,3.4999479166666667,64.26810771393035
1372579444.0,1.9843140416666667,33.67333333333333,94.99333333333334,3.8155989583333336,64.273941156156
1372579444.25,1.9824996666666668,33.67333333333334,95.00749999274667,4.0059635416666675,64.27977459838168
1372579444.5,1.981539125,33.67333333333333,95.02166666666668,3.9743489583333336,64.28560804060733
1372579444.75,1.9822328333333334,33.67249999999999,95.03583334058666,3.971614583333334,64.29144148283301
1372579445.0,1.9843140000000001,33.670833333333334,95.05,3.8155989583333336,64.29727492505866
1372579445.25,1.9877292500000001,33.66916666666666,95.0624999936,3.6743489583333333,64.30310836728432
1372579445.5,1.9921049999999998,33.6675,95.075,3.464609375,64.30894180950999
1372579445.75,1.9966942083333334,33.66583333333333,95.0875000064,3.185,64.31477525173564
1372579446.0,2.001283416666667,33.66416666666667,95.10000000000001,3.0753906250000003,64.3176919728485
1372579446.25,2.005872625,33.662499999999994,95.11416665941334,3.1153125,64.31222312076193
1372579446.5,2.0104618333333333,33.66083333333333,95.12833333333333,3.2483593749999997,64.30638967853626
1372579446.75,2.0150510416666667,33.66,95.14250000725332,3.4519791666666664,64.30055623631061
1372579447.0,2.0193734583333334,33.66,95.15666666666665,3.713802083333334,64.29472279408493
1372579447.25,2.0231088749999997,33.66,95.17583332352,3.9719270833333327,64.28888935185927
1372579447.5,2.0254568333333336,33.66,95.195,4.3257031249999995,64.2830559096336
1372579447.75,2.025830375,33.66,95.21416667648,4.518359375,64.27722246740795
1372579448.0,2.025083291666667,33.66,95.23333333333335,4.681875,64.27138902518227
1372579448.25,2.0234290416666667,33.66,95.25999998634667,4.737369791666667,64.26555558295662
1372579448.5,2.0211878333333337,33.66,95.28666666666666,4.723333333333334,64.25972214073094
1372579448.75,2.018946625,33.66,95.31333334698667,4.747630208333334,64.25388869850529
1372579449.0,2.016705416666667,33.66,95.33999999999999,4.42375,64.24987820697514
1372579449.25,2.014624291666667,33.66,95.37333331626667,3.945651041666667,64.24951361683604
1372579449.5,2.013610416666667,33.66,95.40666666666667,3.3647395833333333,64.24951361683604
1372579449.75,2.013503708333334,33.65958333333333,95.44000001706667,2.6550260416666664,64.24951361683604
1372579450.0,2.014250791666667,33.65875,95.47333333333334,1.7972656249999999,64.24951361683604
1372579450.25,2.0162252083333336,33.657916666666665,95.50833331541334,0.955078125,64.24951361683604
1372579450.5,2.019160166666667,33.65708333333333,95.54333333333335,0.04848958333333334,64.24951361683604
1372579450.75,2.022842208333334,33.65625,95.57833335125335,-0.699375,64.24951361683604
1372579451.0,2.02652425,33.65541666666666,95.61333333333334,-1.3075520833333332,64.24951361683604
1372579451.25,2.030206291666667,33.65458333333333,95.65083331413334,-1.8153385416666667,64.24951361683604
1372579451.5,2.0338883333333335,33.653749999999995,95.68833333333333,-2.2778385416666667,64.24951361683604
1372579451.75,2.0375703750000005,33.65291666666666,95.72583335253334,-2.698541666666667,64.24951361683604
1372579452.0,2.040718791666667,33.65208333333333,95.76333333333334,-2.8401562499999997,64.24951361683604
1372579452.25,2.043600375,33.65125,95.80166664704001,-2.592630208333333,64.24951361683604
1372579452.5,2.045414708333334,33.650416666666665,95.84,-2.2071614583333337,64.24951361683604
1372579452.75,2.0463218750000003,33.65,95.87833335296,-1.7578125,64.24951361683604
1372579453.0,2.046642041666667,33.65,95.91666666666667,-1.02484375,64.24951361683604
1372579453.25,2.0462685000000005,33.65,95.95666664618668,-0.3318229166666667,64.24951361683604
1372579453.5,2.045628125,33.65,95.99666666666667,0.47083333333333327,64.24951361683604
1372579453.75,2.0468554583333334,33.65,96.03666668714666,1.2525,64.24951361683604
1372579454.0,2.0513913333333336,33.65,96.07666666666667,1.8737760416666667,64.24951361683604
1372579454.25,2.0594491666666666,33.65,96.11249998165333,2.5351822916666666,64.24951361683604
1372579454.5,2.0706020416666666,33.65,96.14833333333333,3.1532031249999997,64.24951361683604
1372579454.75,2.0822351666666665,33.65,96.18416668501332,3.658411458333333,64.24951361683604
1372579455.0,2.0944019166666665,33.65,96.21999999999998,4.150104166666667,64.24951361683604
1372579455.25,2.106675416666667,33.65,96.25083331754665,4.220859375,64.24951361683604
1372579455.5,2.1189489166666666,33.65,96.28166666666665,4.228411458333333,64.24951361683604
1372579455.75,2.1312224166666667,33.649166666666666,96.31250001578665,4.281093749999999,64.24951361683604
1372579456.0,2.1434959166666667,33.6475,96.34333333333332,4.023177083333334,64.24951361683604
1372579456.25,2.154382,33.645833333333336,96.36583332181333,3.8918489583333336,64.24951361683604
1372579456.5,2.163880666666667,33.64416666666667,96.38833333333332,3.660859375,64.24951361683604
1372579456.75,2.1706044583333335,33.642500000000005,96.41083334485332,3.38046875,64.24951361683604
1372579457.0,2.173752875,33.64083333333333,96.43333333333332,3.3345052083333333,64.25024279711425
1372579457.25,2.172899041666667,33.63916666666667,96.44583332693333,3.2458333333333336,64.2547799874856
1372579457.5,2.168950166666667,33.637499999999996,96.45833333333334,3.2994010416666666,64.26061342971127
1372579457.75,2.1645210416666667,33.63583333333333,96.47083333973335,3.4854687500000003,64.26644687193694
1372579458.0,2.160091916666667,33.634166666666665,96.48333333333335,3.6942968749999996,64.27300870170923
1372579458.25,2.155662791666667,33.6325,96.48583333205335,4.396536458333333,64.28029891902817
1372579458.5,2.1517139583333336,33.630833333333335,96.48833333333334,5.223515625,64.2958502273445
1372579458.75,2.1480319583333336,33.63,96.49083333461334,5.995598958333333,64.34256724788948
1372579459.0,2.145523916666667,33.63,96.49333333333334,7.070234375000001,64.36962268335947
1372579459.25,2.145684,33.63,96.48666667008,8.381562500000001,64.37488905400902
1372579459.5,2.1474449583333333,33.63,96.47999999999999,9.921536458333334,64.3761859236259
1372579459.75,2.1503799166666666,33.630833333333335,96.47333332992,11.498255208333333,64.3770775214875
1372579460.0,2.1541153333333334,33.6325,96.46666666666665,12.7334375,64.37350989152075
1372579460.25,2.158651208333333,33.634166666666665,96.45000000853332,13.740729166666668,64.3647150266166
1372579460.5,2.1632404583333336,33.63583333333334,96.43333333333332,14.672421875,64.35434006488927
1372579460.75,2.1680431666666666,33.6375,96.41666665813332,15.574505208333333,64.34396510316195
1372579461.0,2.17289925,33.63916666666666,96.39999999999999,16.862604166666667,64.33286175388798
1372579461.25,2.1779154166666665,33.64083333333333,96.36583335082666,17.56518229166667,64.3210300170674
1372579461.5,2.1824512916666667,33.6425,96.33166666666665,18.088255208333333,64.30320794900022
1372579461.75,2.1869337916666667,33.64416666666667,96.29749998250665,19.402291666666667,64.255071703611
1372579462.0,2.190509125,33.645833333333336,96.26333333333332,20.38057291666667,64.22801626814099
1372579462.25,2.1929638333333332,33.6475,96.21750002346666,20.74859375,64.22274989749144
1372579462.5,2.1954185416666667,33.649166666666666,96.17166666666665,20.762239583333333,64.22145302787456
1372579462.75,2.1979265833333335,33.65,96.12583330986666,20.890755208333335,64.22056143001298
1372579463.0,2.2000610833333334,33.65,96.08,21.384270833333332,64.2233998797015
1372579463.25,2.2021956250000003,33.65,96.0300000256,22.087968749999998,64.22765755423431
1372579463.5,2.2049171666666667,33.65,95.97999999999999,22.57239583333333,64.23219907373597
1372579463.75,2.2081189583333334,33.65125,95.92999997439999,22.91390625,64.23674059323763
1372579464.0,2.2116942500000003,33.65375,95.88,22.71109375,64.24128211273928
1372579464.25,2.215483,33.65625,95.83916668757333,22.501744791666667,64.24582363224094
1372579464.5,2.22044575,33.65875,95.79833333333332,22.322057291666667,64.24809439199177
1372579464.75,2.227436291666667,33.6625,95.75749997909332,21.280520833333334,64.24951361683604
1372579465.0,2.2366147499999998,33.6675,95.71666666666665,20.34015625,64.24951361683604
1372579465.25,2.2463268333333333,33.6725,95.68750001493332,19.569895833333334,64.24951361683604
1372579465.5,2.2558254583333333,33.6775,95.65833333333332,18.840859374999997,64.24951361683604
1372579465.75,2.2650039166666667,33.68333333333333,95.62916665173331,17.92247395833333,64.24951361683604
1372579466.0,2.274022291666667,33.690000000000005,95.59999999999998,16.780520833333334,64.24951361683604
1372579466.25,2.2827204583333334,33.696666666666665,95.58083334314665,15.568046875,64.24951361683604
1372579466.5,2.29077825,33.70333333333333,95.56166666666665,14.311380208333333,64.24951361683604
1372579466.75,2.297128416666667,33.70875,95.54249999018666,13.077291666666667,64.24951361683604
1372579467.0,2.3027315416666667,33.712916666666665,95.52333333333333,11.822343750000002,64.24951361683604
1372579467.25,2.307961125,33.717083333333335,95.50833334101333,10.520989583333334,64.24951361683604
1372579467.5,2.3120167083333336,33.72125,95.49333333333333,9.149765625,64.24951361683604
1372579467.75,2.3138310416666665,33.72333333333333,95.47833332565332,7.747447916666666,64.24951361683604
1372579468.0,2.313190666666667,33.72333333333333,95.46333333333332,6.321302083333333,64.24951361683604
1372579468.25,2.3118565833333333,33.723333333333336,95.44666667519999,5.003125,64.24951361683604
1372579468.5,2.3115364166666668,33.72333333333333,95.42999999999999,3.81203125,64.24951361683604
1372579468.75,2.3122301666666667,33.7225,95.41333332479999,2.711302083333333,64.24951361683604
1372579469.0,2.3135109166666665,33.72083333333333,95.39666666666666,1.5772916666666668,64.24951361683604
1372579469.25,2.3152185416666664,33.719166666666666,95.38000000853333,0.5921614583333333,64.24951361683604
1372579469.5,2.3171929583333335,33.7175,95.36333333333333,0.01638020833333334,64.24951361683604
1372579469.75,2.320341375,33.71583333333333,95.34666665813333,-0.504765625,64.24951361683604
1372579470.0,2.3238099583333334,33.714166666666664,95.33,-0.8409114583333334,64.24951361683604
1372579470.25,2.327278541666667,33.7125,95.31916667221333,-0.8574999999999999,64.24951361683604
1372579470.5,2.3308005,33.71083333333333,95.30833333333334,-0.7730729166666666,64.24951361683604
1372579470.75,2.3344292083333333,33.70875,95.29749999445335,-0.5346614583333333,64.24951361683604
1372579471.0,2.338111291666667,33.706250000000004,95.28666666666668,-0.23611979166666666,64.24951361683604
1372579471.25,2.34174,33.70375,95.27666667178667,0.0038281250000000073,64.24951361683604
1372579471.5,2.3443014166666667,33.70125,95.26666666666668,0.17973958333333337,64.24951361683604
1372579471.75,2.3457955416666665,33.698750000000004,95.25666666154667,0.203828125,64.24951361683604
1372579472.0,2.346702666666667,33.69625,95.24666666666667,0.42169270833333333,64.24951361683604
1372579472.25,2.3469161250000004,33.69375,95.2383333376,0.49932291666666667,64.24951361683604
1372579472.5,2.3465960000000003,33.69125,95.22999999999999,0.30195312500000004,64.24951361683604
1372579472.75,2.3460090416666666,33.68875,95.2216666624,0.15992187500000002,64.24951361683604
1372579473.0,2.3448884583333336,33.68625,95.21333333333332,-0.01734374999999998,64.24951361683604
1372579473.25,2.3429674166666667,33.683749999999996,95.20083333973332,-0.2309375,64.24951361683604
1372579473.5,2.3401925416666667,33.68125,95.18833333333333,-0.52015625,64.24951361683604
1372579473.75,2.3365638333333334,33.68,95.17583332693334,-0.9499218750000001,64.24951361683604
1372579474.0,2.3326149166666665,33.68,95.16333333333334,-1.3992187500000002,64.24951361683604
1372579474.25,2.3286660416666667,33.68,95.14916667392,-1.8286197916666664,64.24951361683604
1372579474.5,2.324663833333333,33.68,95.13500000000002,-2.23046875,64.24951361683604
1372579474.75,2.32060825,33.67916666666667,95.12083332608002,-2.4544270833333335,64.24951361683604
1372579475.0,2.3163392083333334,33.6775,95.10666666666668,-2.8328385416666664,64.24951361683604
1372579475.25,2.3119100416666662,33.67583333333334,95.08666667690669,-3.0812239583333336,64.24951361683604
1372579475.5,2.30732075,33.67416666666667,95.06666666666669,-3.073385416666666,64.24951361683604
1372579475.75,2.3025180416666666,33.67208333333333,95.04666665642668,-3.1709374999999995,64.24951361683604
1372579476.0,2.297982166666667,33.66958333333333,95.02666666666669,-3.2782031250000006,64.24951361683604
1372579476.25,2.2940332916666666,33.66708333333333,95.00583334400001,-3.37109375,64.24951361683604
1372579476.5,2.2906714166666666,33.66458333333333,94.98500000000001,-3.234244791666667,64.24951361683604
1372579476.75,2.2877898333333335,33.662083333333335,94.96416665600002,-2.8859895833333336,64.24951361683604
1372579477.0,2.2847481666666667,33.65958333333333,94.94333333333334,-2.4588541666666663,64.24951361683604
1372579477.25,2.2814929999999998,33.65708333333333,94.92583334229334,-2.0390885416666666,64.24951361683604
1372579477.5,2.2779176666666667,33.654583333333335,94.90833333333333,-1.6100520833333336,64.24951361683604
1372579477.75,2.2739688333333334,33.65291666666666,94.89083332437333,-1.1968750000000001,64.24951361683604
1372579478.0,2.27002,33.65208333333333,94.87333333333333,-0.5484375,64.24951361683604
1372579478.25,2.266338,33.65125,94.86083333973333,-0.16330729166666666,64.24951361683604
1372579478.5,2.2630295416666666,33.650416666666665,94.84833333333333,0.006171875000000006,64.24951361683604
1372579478.75,2.26004125,33.65,94.83583332693334,0.21971354166666668,64.24951361683604
1372579479.0,2.25731975,33.65,94.82333333333334,0.27807291666666667,64.24951361683604
1372579479.25,2.2548117083333334,33.65,94.81166667264,0.2992708333333333,64.24951361683604
1372579479.5,2.252517125,33.65,94.8,0.040651041666666686,64.24951361683604
1372579479.75,2.250542708333333,33.65,94.78833332736,-0.26567708333333334,64.24951361683604
1372579480.0,2.248995208333333,33.65,94.77666666666666,-0.599765625,64.24951361683604
1372579480.25,2.2477678749999996,33.65,94.76416667306665,-0.844765625,64.24951361683604
1372579480.5,2.2473943333333333,33.65,94.75166666666667,-0.9434635416666666,64.24951361683604
1372579480.75,2.247981333333333,33.649166666666666,94.73916666026668,-1.101484375,64.24951361683604
1372579481.0,2.2487817916666666,33.6475,94.72666666666667,-1.4351562500000001,64.24951361683604
1372579481.25,2.2497423333333333,33.645833333333336,94.71166667434667,-1.414765625,64.24951361683604
1372579481.5,2.25075625,33.64416666666667,94.69666666666667,-1.3904687500000001,64.24951361683604
1372579481.75,2.2517701666666667,33.6425,94.68166665898667,-1.1824999999999999,64.24951361683604
1372579482.0,2.2527840833333332,33.64083333333333,94.66666666666667,-0.46302083333333327,64.24951361683604
1372579482.25,2.253637875,33.63916666666667,94.65000000853333,0.3200520833333334,64.24951361683604
1372579482.5,2.253797958333333,33.637499999999996,94.63333333333333,1.2843489583333334,64.24951361683604
1372579482.75,2.2529441249999995,33.63583333333333,94.61666665813333,2.143307291666667,64.24951361683604
1372579483.0,2.251396541666667,33.63416666666667,94.59999999999998,2.9166666666666665,64.25072943210186
1372579483.25,2.2494220833333336,33.6325,94.58000001023998,3.7154947916666665,64.25202630171873
1372579483.5,2.2453130833333335,33.630833333333335,94.55999999999999,4.2365625,64.25332317133561
1372579483.75,2.239283,33.63,94.53999998975999,4.905208333333333,64.25462004095247
1372579484.0,2.233252916666667,33.63,94.52,5.628619791666666,64.25591691056935
1372579484.25,2.2272228333333333,33.63,94.49750001152,6.1728125,64.25721378018623
1372579484.5,2.2211927499999997,33.63,94.475,6.782890625,64.26081847279411
1372579484.75,2.2151626666666666,33.63,94.45249998848,7.205625,64.27009049167218
1372579485.0,2.209132583333333,33.63,94.43,7.353697916666667,64.27138736128906
1372579485.25,2.203476083333333,33.63,94.40416667989334,7.738567708333332,64.2721979047996
1372579485.5,2.19872675,33.63,94.37833333333333,7.920338541666666,64.27244106785275
1372579485.75,2.1949913333333333,33.62916666666667,94.35249998677334,8.305885416666667,64.27244106785275
1372579486.0,2.1919496666666665,33.627500000000005,94.32666666666667,8.733359375000001,64.27122525258694
1372579486.25,2.1892815416666664,33.62583333333333,94.30166667946666,9.362760416666667,64.26992838297006
1372579486.5,2.1883744166666665,33.62416666666667,94.27666666666667,11.109791666666666,64.26863151335318
1372579486.75,2.1889614583333334,33.6225,94.25166665386668,12.029635416666666,64.26733464373632
1372579487.0,2.189601833333333,33.62083333333334,94.22666666666667,12.824296875,64.26603777411945
1372579487.25,2.1902422083333333,33.619166666666665,94.20333334528,13.488567708333333,64.26474090450257
1372579487.5,2.19082925,33.6175,94.18,15.007786458333333,64.26113621189468
1372579487.75,2.1914162916666666,33.61666666666667,94.15666665472,16.734192708333335,64.25186419301663
1372579488.0,2.1919499583333333,33.61666666666667,94.13333333333333,17.917604166666667,64.25056732339975
1372579488.25,2.192216791666667,33.61666666666667,94.11083334485333,18.496432291666668,64.2497567798892
1372579488.5,2.192216791666667,33.61666666666667,94.08833333333334,19.170651041666666,64.24951361683604
1372579488.75,2.192110041666667,33.6175,94.06583332181333,19.8484375,64.24951361683604
1372579489.0,2.1920566666666668,33.619166666666665,94.04333333333334,20.922786458333334,64.24951361683604
1372579489.25,2.192110041666667,33.62083333333334,94.02000001194666,21.463177083333335,64.24951361683604
1372579489.5,2.192110041666667,33.6225,93.99666666666667,20.886015625,64.24951361683604
1372579489.75,2.1920566666666668,33.62416666666667,93.97333332138666,20.957734374999998,64.24951361683604
1372579490.0,2.1919499583333333,33.62583333333333,93.94999999999999,21.011145833333334,64.24951361683604
1372579490.25,2.1918432500000002,33.627500000000005,93.9250000128,21.143359375,64.24951361683604
1372579490.5,2.1918432500000002,33.62916666666667,93.9,20.2471875,64.24951361683604
1372579490.75,2.1918432500000002,33.630833333333335,93.8749999872,19.109244791666665,64.24951361683604
1372579491.0,2.1918966250000005,33.6325,93.85000000000001,18.263333333333332,64.24951361683604
1372579491.25,2.192003375,33.634166666666665,93.82333334698667,17.701041666666665,64.24951361683604
1372579491.5,2.1921635,33.63583333333334,93.79666666666668,17.217526041666666,64.24951361683604
1372579491.75,2.192377,33.63791666666666,93.76999998634668,16.377786458333336,64.24951361683604
1372579492.0,2.1924303750000003,33.64041666666667,93.74333333333334,14.815937499999999,64.24951361683604
1372579492.25,2.1922169166666667,33.642916666666665,93.71583334741334,13.413880208333332,64.24951361683604
1372579492.5,2.1919501250000004,33.64541666666667,93.68833333333333,11.957187500000002,64.24951361683604
1372579492.75,2.1916299583333334,33.64791666666667,93.66083331925333,10.489166666666666,64.24951361683604
1372579493.0,2.191149666666667,33.650416666666665,93.63333333333333,9.118125000000001,64.24951361683604
1372579493.25,2.1904559166666666,33.65291666666666,93.60250001578666,7.976510416666667,64.24951361683604
1372579493.5,2.189442,33.65541666666666,93.57166666666666,6.879453125,64.24951361683604
1372579493.75,2.1882680000000003,33.65666666666666,93.54083331754666,5.774583333333333,64.24951361683604
1372579494.0,2.18698725,33.656666666666666,93.50999999999999,4.770442708333333,64.24951361683604
1372579494.25,2.1855464166666665,33.656666666666666,93.47833334954666,3.6382291666666666,64.24951361683604
1372579494.5,2.183998875,33.656666666666666,93.44666666666666,2.5640625,64.24951361683604
1372579494.75,2.182397958333333,33.65625,93.41499998378666,1.6164583333333333,64.24837823696062
1372579495.0,2.1808504166666665,33.65541666666666,93.38333333333333,0.9754427083333334,64.24383671745896
1372579495.25,2.179409583333333,33.654583333333335,93.35000001706666,0.5690104166666666,64.24156595770815
1372579495.5,2.178022083333333,33.653749999999995,93.31666666666666,0.2238020833333333,64.24128211273928
1372579495.75,2.1766879583333334,33.65208333333333,93.28333331626666,-0.12817708333333336,64.24099826777042
1372579496.0,2.1754605833333334,33.64958333333333,93.25,-0.5488541666666668,64.23844366305075
1372579496.25,2.174339958333333,33.647083333333335,93.22083334826667,-1.1029427083333332,64.23787597311303
1372579496.5,2.1732193333333334,33.64458333333334,93.19166666666666,-1.4615625,64.23787597311305
1372579496.75,2.172045333333333,33.64166666666667,93.16249998506666,-1.7953645833333336,64.23787597311303
