timestamp,EDA,TEMP,HR,BVP,ACC_mag
1373817760.0,1.9907346666666665,35.68,,11.168333333333335,64.91435369816968
1373817760.25,2.113933,35.68,,10.560714285714285,64.90127966736937
1373817760.5,2.269965375,35.68,,10.301484375,64.8914138802834
1373817760.75,2.446463444444445,35.68,,10.642048611111111,64.88309761069715
1373817761.0,2.6373248,35.68,,10.51478125,64.8704619765472
1373817761.25,2.8387548636363635,35.68,,9.95599431818182,64.85349693460518
1373817761.5,3.048179791666667,35.68,,9.539088541666667,64.83935939965349
1373817761.75,3.418429833333333,35.68,,9.839114583333332,64.81814391090082
1373817762.0,3.8119897083333334,35.68,,10.177083333333334,64.79692842214816
1373817762.25,4.227220541666667,35.68,,9.776302083333333,64.7757129333955
1373817762.5,4.6641135,35.68,,8.515546875,64.75449744464284
1373817762.75,5.122236458333333,35.68,,7.5890104166666665,64.73681261483188
1373817763.0,5.596274458333333,35.68,,7.0291927083333325,64.7241058081611
1373817763.25,6.065840208333333,35.68,,6.3476822916666675,64.71252339421255
1373817763.5,6.496324416666666,35.68,,4.541171875,64.69940979773395
1373817763.75,6.890149041666667,35.68,,2.2210416666666664,64.68101671306955
1373817764.0,7.249577250000001,35.68,,0.7699999999999997,64.66708535763244
1373817764.25,7.573376125,35.68,,1.4501041666666665,64.6580192291462
1373817764.5,7.857849291666668,35.68,,1.2379687499999996,64.6453625033737
1373817764.75,8.101617916666667,35.67916666666667,,-0.178932291666667,64.63117233253807
1373817765.0,8.306227833333333,35.6775,,-1.464479166666667,64.61694179308954
1373817765.25,8.471716041666665,35.67583333333334,,-2.9628125,64.6026305164152
1373817765.5,8.597611291666666,35.674166666666665,,-1.4247656250000003,64.58763277920669
1373817765.75,8.684501583333335,35.6725,,0.4820572916666661,64.5724330049237
1373817766.0,8.737381666666666,35.67083333333333,,3.269947916666666,64.55767747949749
1373817766.25,8.775348875,35.66916666666666,,6.379114583333332,64.54602912588481
1373817766.5,8.8135455,35.6675,,11.253854166666665,64.53813107659312
1373817766.75,8.853178250000001,35.66583333333333,,15.902291666666668,64.53498613813663
1373817767.0,8.89270425,35.66416666666667,,18.535026041666665,64.53208250250195
1373817767.25,8.92950925,35.6625,,18.417343749999997,64.52946020918648
1373817767.5,8.964553583333332,35.66083333333333,,19.05625,64.530307494527
1373817767.75,8.999544541666667,35.66,,20.31416666666667,64.53345486999793
1373817768.0,9.032881541666667,35.66,,21.462057291666667,64.53732848319105
1373817768.25,9.064084458333333,35.66,,22.94065104166667,64.54196870271929
1373817768.5,9.094967250000002,35.66,,21.688046875,64.54685155093293
1373817768.75,9.129104541666665,35.66,,20.195338541666665,64.55205745485132
1373817769.0,9.171031458333333,35.66,,17.436562499999997,64.55722258286498
1373817769.25,9.226066125000001,35.66,,15.359062499999999,64.55924020919832
1373817769.5,9.29373275,35.66,,12.075755208333334,64.55903855986446
1373817769.75,9.365104208333333,35.66,,9.172942708333332,64.55984544760405
1373817770.0,9.433061041666667,35.66,64.0,8.316953125,64.56093481869534
1373817770.25,9.499097125,35.66,64.35416648533334,8.442395833333334,64.56295218335096
1373817770.5,9.565899208333333,35.66,64.70833333333334,8.900885416666666,64.56605813558056
1373817770.75,9.632968041666667,35.66,65.06250018133333,8.7790625,64.57033240670096
1373817771.0,9.704838708333334,35.66,65.41666666666667,8.575338541666666,64.57650052875029
1373817771.25,9.7955965,35.66,65.77083315200001,8.992317708333333,64.57875813164252
1373817771.5,9.91918275,35.66,66.125,8.942552083333334,64.5807743065072
1373817771.75,10.05644975,35.66083333333333,66.47916684799999,9.391119791666666,64.58109711972568
1373817772.0,10.186354,35.6625,66.83333333333333,9.888229166666667,64.58101645999214
1373817772.25,10.306304416666668,35.66416666666667,66.86666664959999,9.364375,64.58097613012536
1373817772.5,10.415008375000001,35.66583333333333,66.9,9.116770833333334,64.58097613012536
1373817772.75,10.51953175,35.666666666666664,66.9333333504,8.752812500000001,64.58097613012536
1373817773.0,10.624968208333334,35.666666666666664,66.96666666666667,7.664244791666666,64.58097613012536
1373817773.25,10.733445833333334,35.666666666666664,66.41833361408,6.7808593749999995,64.58097613012536
1373817773.5,10.841904416666667,35.666666666666664,65.87,5.666093750000001,64.58000856118164
1373817773.75,10.945454499999999,35.666666666666664,65.32166638592,5.321171875,64.57710602827986
1373817774.0,11.041801874999999,35.666666666666664,64.77333333333333,5.016223958333334,64.57162377533983
1373817774.25,11.115954208333333,35.666666666666664,64.06166703104,4.1004427083333335,64.5693661724476
1373817774.5,11.155624083333334,35.666666666666664,63.349999999999994,4.202395833333333,64.56779382943171
1373817774.75,11.175797708333334,35.66583333333333,62.63833296896,3.7336458333333336,64.56779382943171
1373817775.0,11.193303666666667,35.66416666666667,61.92666666666667,4.0278125000000005,64.56779382943171
1373817775.25,11.197998750000002,35.662499999999994,61.48666689194667,5.234739583333334,64.56779382943171
1373817775.5,11.189254833333335,35.66083333333333,61.04666666666667,8.201484375,64.56779382943171
1373817775.75,11.170160375,35.66,60.606666441386665,10.765755208333333,64.56779382943171
1373817776.0,11.142629999999999,35.66,60.166666666666664,12.782421874999999,64.56815662430326
1373817776.25,11.10731,35.66,59.91666679466667,13.717682291666668,64.57625652588779
1373817776.5,11.069589125,35.66,59.666666666666664,12.248645833333333,64.59802660033093
1373817776.75,11.032401791666667,35.66,59.41666653866666,10.087421875,64.62574407978413
1373817777.0,10.992653458333335,35.66,59.166666666666664,6.836458333333334,64.65261886567781
1373817777.25,10.955892916666668,35.66,59.04083339776,2.605520833333333,64.67893075730936
1373817777.5,10.919132374999998,35.66,58.915,-3.5468229166666667,64.69414845151572
1373817777.75,10.886586791666668,35.66,58.78916660224,-9.7203125,64.701483850667
1373817778.0,10.857775916666668,35.66,58.663333333333334,-15.771536458333332,64.7051923722034
1373817778.25,10.84054275,35.66,58.58666670592,-22.441848958333335,64.70974734271425
1373817778.5,10.835847666666666,35.66,58.51,-30.77463541666667,64.71539048066226
1373817778.75,10.841983291666667,35.66,58.43333329407999,-38.35463541666667,64.71748590880728
1373817779.0,10.862631083333333,35.66,58.35666666666666,-43.558828125,64.71361267243516
1373817779.25,10.896670583333332,35.66,58.35666666666666,-47.18536458333333,64.69776339166961
1373817779.5,10.939886833333333,35.66,58.35666666666666,-47.70453125,64.66824393804545
1373817779.75,10.992546666666668,35.66,58.35666666666666,-47.857942708333326,64.63277707941124
1373817780.0,11.057531208333335,35.66,58.35666666666666,-47.29380208333333,64.59815291433655
1373817780.25,11.141321166666666,35.66,58.4358332928,-44.00195312500001,64.56409164352397
1373817780.5,11.247331166666667,35.66,58.515,-38.96786458333334,64.5411245701366
1373817780.75,11.359815708333334,35.660833333333336,58.5941667072,-33.99085937500001,64.5260397918043
1373817781.0,11.468565541666669,35.662499999999994,58.67333333333334,-30.62604166666667,64.51458189108688
1373817781.25,11.573047083333334,35.66416666666667,58.80583326549334,-28.111822916666668,64.502277541395
1373817781.5,11.67347375,35.66583333333333,58.93833333333334,-25.452760416666667,64.48888502426597
1373817781.75,11.767764791666666,35.6675,59.07083340117334,-22.851953124999998,64.47904021693994
1373817782.0,11.851598541666668,35.66916666666666,59.20333333333334,-22.118593750000002,64.47480127925948
1373817782.25,11.926221,35.670833333333334,59.31999994026667,-21.242317708333335,64.47371054010458
1373817782.5,11.992467041666666,35.6725,59.43666666666667,-20.766848958333334,64.47177144827363
1373817782.75,12.052577416666667,35.67416666666667,59.553333393066666,-18.548411458333334,64.46983235644267
1373817783.0,12.104578041666668,35.67583333333334,59.669999999999995,-15.990755208333333,64.46789326461172
1373817783.25,12.13777325,35.6775,59.79249993727999,-15.190260416666666,64.46595417278077
1373817783.5,12.148748416666665,35.67916666666667,59.915,-13.224869791666665,64.46401508094982
1373817783.75,12.149034083333333,35.68,60.03750006272,-11.390468749999998,64.46207598911887
1373817784.0,12.150920333333334,35.68,60.16,-6.625208333333334,64.46013689728791
1373817784.25,12.15472725,35.68,60.24583328938667,-0.9626822916666669,64.45819780545698
1373817784.5,12.160614958333333,35.68,60.33166666666666,3.9800260416666666,64.45625871362601
1373817784.75,12.168423416666664,35.68,60.41750004394666,9.338723958333334,64.45431962179507
1373817785.0,12.178045875,35.68,60.50333333333333,13.874114583333336,64.45407682728263
1373817785.25,12.188823249999999,35.68,60.56666663424,17.826953125,64.45775193412263
1373817785.5,12.201894791666668,35.68,60.629999999999995,21.434635416666666,64.46227539363866
1373817785.75,12.216513625,35.68,60.69333336576,22.9425,64.46679885315471
1373817786.0,12.232466291666666,35.68,60.75666666666667,25.29953125,64.47132231267075
1373817786.25,12.249859458333333,35.68,60.774166657706665,26.709765625000003,64.47584577218679
1373817786.5,12.268799875,35.68,60.791666666666664,26.959895833333334,64.48036923170282
1373817786.75,12.289447625,35.68,60.80916667562666,27.623932291666666,64.48489269121886
1373817787.0,12.30998870833333,35.68,60.82666666666666,25.569947916666667,64.48941615073491
1373817787.25,12.330529874999998,35.68,60.84583332352,24.3253125,64.49393961025095
1373817787.5,12.353151791666667,35.68,60.864999999999995,22.980078125000002,64.49846306976698
1373817787.75,12.382048875,35.68,60.88416667648,21.354322916666664,64.50298652928304
1373817788.0,12.418768458333332,35.68,60.903333333333336,21.267786458333333,64.50581369148055
1373817788.25,12.458849333333333,35.68,61.004999947946665,20.1940625,64.50581369148055
1373817788.5,12.498023208333334,35.68,61.10666666666667,20.207526041666664,64.50581369148055
1373817788.75,12.536129958333333,35.67916666666667,61.208333385386666,20.211276041666668,64.50581369148055
1373817789.0,12.573436375,35.6775,61.309999999999995,19.960182291666666,64.5044001103818
1373817789.25,12.609462375000001,35.67583333333334,61.52833322154667,21.405989583333334,64.50326924550278
1373817789.5,12.644741458333334,35.674166666666665,61.74666666666667,21.439296875,64.50242109684352
1373817789.75,12.6800205,35.67249999999999,61.965000111786665,22.84322916666667,64.50157294818426
1373817790.0,12.715459541666668,35.670833333333334,62.18333333333334,24.457708333333333,64.50157294818426
1373817790.25,12.750205000000001,35.66916666666666,62.494166507520006,25.289270833333333,64.50157294818426
1373817790.5,12.78180266666667,35.6675,62.80500000000001,28.07546875,64.50157294818428
1373817790.75,12.805898000000001,35.666666666666664,63.11583349248,28.905364583333334,64.50157294818426
1373817791.0,12.82110375,35.666666666666664,63.42666666666667,30.62893229166667,64.50157294818426
1373817791.25,12.832361333333333,35.666666666666664,63.7558331648,32.88768229166667,64.50157294818426
1373817791.5,12.843938999999999,35.666666666666664,64.08500000000001,33.000156249999996,64.50157294818426
1373817791.75,12.856690458333333,35.6675,64.4141668352,35.616015625,64.50157294818426
1373817792.0,12.870615708333332,35.66916666666666,64.74333333333334,35.80028645833333,64.50298652928304
1373817792.25,12.885981458333333,35.670833333333334,65.04916651008,36.07278645833333,64.50411739416204
1373817792.5,12.903662625,35.6725,65.355,37.57807291666666,64.5049655428213
1373817792.75,12.922698916666667,35.674166666666665,65.66083348992001,36.062656249999996,64.50581369148055
1373817793.0,12.942588875,35.67583333333334,65.96666666666667,36.55880208333333,64.50581369148055
1373817793.25,12.964719625,35.6775,66.24499985749334,36.22690104166667,64.50581369148055
1373817793.5,12.989037833333333,35.67916666666667,66.52333333333334,33.83140625,64.50581369148055
1373817793.75,13.015490166666666,35.68,66.80166680917333,34.489322916666666,64.50581369148055
1373817794.0,13.043169708333332,35.68,67.08,32.21434895833333,64.50581369148055
1373817794.25,13.070795916666667,35.68,67.33333320362667,30.446119791666664,64.50581369148055
1373817794.5,13.097941958333335,35.68,67.58666666666667,30.54822916666667,64.50581369148055
1373817794.75,13.124234375,35.68,67.84000012970668,27.292109375,64.50581369148055
1373817795.0,13.149779833333334,35.68,68.09333333333335,27.098697916666666,64.50581369148055
1373817795.25,13.174631666666665,35.68,68.32166654976001,25.384583333333328,64.50581369148055
1373817795.5,13.197381458333334,35.68,68.55000000000001,22.988046875,64.50581369148055
1373817795.75,13.218349375000003,35.68,68.77833345024001,23.588333333333335,64.50581369148055
1373817796.0,13.238570416666667,35.68,69.00666666666667,21.552786458333333,64.5044001103818
1373817796.25,13.256817374999999,35.68,69.21249989461334,20.981979166666665,64.50044208330526
1373817796.5,13.273143583333335,35.68,69.41833333333334,21.448359375,64.49789763732748
1373817796.75,13.287922541666667,35.67916666666667,69.62416677205333,19.432578125,64.49789763732748
1373817797.0,13.302007833333334,35.6775,69.83,20.263281250000002,64.49789763732748
1373817797.25,13.316253166666668,35.67583333333334,70.01249990656,20.034296875,64.49789763732748
1373817797.5,13.330818625,35.674166666666665,70.195,19.179375,64.49789763732748
1373817797.75,13.345917583333334,35.6725,70.37750009344,20.19276041666667,64.49789763732748
1373817798.0,13.361123291666667,35.67083333333333,70.56,19.562057291666665,64.49789763732748
1373817798.25,13.375848875,35.66916666666667,70.72499991552,20.737656249999997,64.49789763732748
1373817798.5,13.389667416666667,35.6675,70.89000000000001,22.2590625,64.49789763732748
1373817798.75,13.402578916666664,35.666666666666664,71.05500008448001,22.139401041666662,64.49789763732748
1373817799.0,13.41437,35.666666666666664,71.22000000000001,23.170911458333332,64.49931121842624
1373817799.25,13.426291333333333,35.666666666666664,71.37166658901334,23.333046874999997,64.50326924550278
1373817799.5,13.439249916666666,35.666666666666664,71.52333333333334,22.990078124999997,64.50581369148055
1373817799.75,13.452688708333334,35.6675,71.67500007765334,23.777656249999996,64.50581369148055
1373817800.0,13.466287583333333,35.66916666666666,71.82666666666667,22.723984375,64.50581369148055
1373817800.25,13.482234,35.67083333333333,71.97166659242666,22.44450520833333,64.50581369148055
1373817800.5,13.507890708333333,35.6725,72.11666666666666,22.042005208333332,64.50581369148055
1373817800.75,13.549980291666666,35.674166666666665,72.26166674090666,21.02390625,64.50581369148055
1373817801.0,13.607304166666667,35.67583333333334,72.40666666666665,20.659713541666665,64.50581369148055
1373817801.25,13.668391291666667,35.6775,72.54999992661332,19.026979166666667,64.50581369148055
1373817801.5,13.72937175,35.67916666666667,72.69333333333333,17.65473958333333,64.50581369148055
1373817801.75,13.792112875,35.68,72.83666674005333,16.4978125,64.50581369148055
1373817802.0,13.856347833333333,35.68,72.98,15.513515624999998,64.50581369148055
1373817802.25,13.921786374999998,35.68,73.12666659157334,14.897291666666666,64.50581369148055
1373817802.5,13.986561166666668,35.68,73.27333333333334,15.371041666666665,64.50581369148055
1373817802.75,14.051389333333333,35.68,73.42000007509333,15.262135416666666,64.50581369148055
1373817803.0,14.114776958333332,35.68,73.56666666666666,16.350572916666668,64.50581369148055
1373817803.25,14.174483208333333,35.68,73.71999992149333,17.526015625,64.50581369148055
1373817803.5,14.22517275,35.68,73.87333333333333,18.264062499999998,64.50581369148055
1373817803.75,14.262097125000002,35.68,74.02666674517334,19.794921875000004,64.50581369148055
1373817804.0,14.284800916666667,35.68,74.18,20.139192708333336,64.50581369148055
1373817804.25,14.304381666666666,35.68,74.33583325354667,21.491953125,64.50581369148055
1373817804.5,14.324229208333334,35.68,74.49166666666667,22.701484375000003,64.50581369148055
1373817804.75,14.342102625,35.68,74.64750007978668,23.453437499999996,64.50581369148055
1373817805.0,14.357948583333334,35.68,74.80333333333334,25.231666666666666,64.50581369148055
1373817805.25,14.371126916666668,35.68,74.95833325397334,25.665729166666665,64.50581369148055
1373817805.5,14.383291541666667,35.68,75.11333333333334,25.842968749999997,64.50581369148055
1373817805.75,14.394975958333333,35.68,75.26833341269334,26.90778645833333,64.50581369148055
1373817806.0,14.408047583333333,35.68,75.42333333333333,26.133854166666666,64.50581369148055
1373817806.25,14.423763000000001,35.68,75.57166659072,26.433437499999997,64.50581369148055
1373817806.5,14.441055083333334,35.68,75.72,26.531666666666666,64.50581369148055
1373817806.75,14.456799875000002,35.68,75.86833340928,26.454140625000004,64.50581369148055
1373817807.0,14.472544708333333,35.68,76.01666666666667,27.882604166666667,64.50581369148055
1373817807.25,14.489036541666666,35.68,76.15583326208,27.334791666666664,64.50581369148055
1373817807.5,14.506862166666666,35.68,76.295,27.756197916666665,64.50581369148055
1373817807.75,14.52596825,35.68125,76.43416673792001,28.104583333333334,64.50581369148055
1373817808.0,14.546835041666666,35.683749999999996,76.57333333333334,26.888229166666665,64.50581369148055
1373817808.25,14.5694625,35.686249999999994,76.69916660224,27.90760416666667,64.50581369148055
1373817808.5,14.592196666666666,35.68875,76.825,27.419244791666667,64.50581369148055
1373817808.75,14.614130541666668,35.691250000000004,76.95083339776001,27.085494791666672,64.50581369148055
1373817809.0,14.635744250000002,35.69375,77.07666666666667,28.223567708333334,64.50581369148055
1373817809.25,14.655674500000002,35.69625,77.18833327616,27.378541666666667,64.50581369148055
1373817809.5,14.673121083333333,35.69875,77.3,28.136171875000002,64.50581369148055
1373817809.75,14.689020458333333,35.70125,77.41166672384,27.826901041666662,64.50581369148055
1373817810.0,14.703212458333333,35.70375,77.52333333333333,27.163229166666667,64.50581369148055
1373817810.25,14.715697083333334,35.70625,77.62166661632,28.48361979166667,64.50581369148055
1373817810.5,14.726741166666669,35.70875,77.72,27.791276041666666,64.50581369148055
1373817810.75,14.736451458333333,35.71,77.81833338368,28.428984375,64.50581369148055
1373817811.0,14.744294375,35.71,77.91666666666667,28.93916666666667,64.50581369148055
1373817811.25,14.750216541666667,35.71,78.00416662186667,27.805598958333334,64.50581369148055
1373817811.5,14.755978666666666,35.71,78.09166666666667,28.485130208333334,64.50581369148055
1373817811.75,14.7627545,35.71,78.17916671146666,27.75833333333333,64.50581369148055
1373817812.0,14.770117249999998,35.71,78.26666666666667,27.239765625,64.50581369148055
1373817812.25,14.777480083333332,35.71,78.34666662570666,27.780182291666666,64.50581369148055
1373817812.5,14.784202625,35.71,78.42666666666666,26.634765625,64.50581369148055
1373817812.75,14.790124791666665,35.71,78.50666670762666,26.50658854166667,64.50581369148055
1373817813.0,14.796260416666668,35.71,78.58666666666666,25.42203125,64.50581369148055
1373817813.25,14.803889958333334,35.71,78.66083329535999,23.577708333333334,64.50581369148055
1373817813.5,14.813386916666666,35.71,78.735,22.730390625,64.50581369148055
1373817813.75,14.824484500000002,35.71,78.80916670464,20.455494791666666,64.50581369148055
1373817814.0,14.837396083333333,35.71,78.88333333333334,19.396848958333333,64.50581369148055
1373817814.25,14.852068333333333,35.71,78.95499996330668,18.404635416666668,64.50581369148055
1373817814.5,14.867807625,35.71,79.02666666666667,16.591197916666665,64.50581369148055
1373817814.75,14.885056958333331,35.71,79.09833337002667,15.765911458333333,64.50581369148055
1373817815.0,14.903442833333335,35.71,79.17,14.022005208333333,64.50581369148055
1373817815.25,14.92214875,35.71,79.23833329834666,12.3915625,64.50581369148055
1373817815.5,14.941334875,35.71,79.30666666666667,11.253203125,64.50581369148055
1373817815.75,14.960894541666667,35.70875,79.37500003498667,10.130078124999999,64.50581369148055
1373817816.0,14.980294166666667,35.70625,79.44333333333333,10.490416666666667,64.50581369148055
1373817816.25,14.998306583333331,35.70375,79.51083329877332,10.52359375,64.50581369148055
1373817816.5,15.014504916666667,35.70125,79.57833333333332,11.527213541666667,64.50581369148055
1373817816.75,15.029369416666666,35.699999999999996,79.64583336789333,12.57265625,64.50581369148055
1373817817.0,15.043486999999999,35.699999999999996,79.71333333333332,13.045182291666665,64.50581369148055
1373817817.25,15.058191458333333,35.7,79.77916663296,13.813072916666668,64.50581369148055
1373817817.5,15.073802916666667,35.699999999999996,79.845,13.866015625000001,64.50581369148055
1373817817.75,15.088224458333334,35.7,79.91083336704,14.415729166666667,64.50581369148055
1373817818.0,15.101242708333332,35.7,79.97666666666667,14.881458333333335,64.50581369148055
1373817818.25,15.113994208333333,35.699999999999996,80.0433332992,15.004427083333335,64.50581369148055
1373817818.5,15.127119208333331,35.7,80.11000000000001,15.539453125,64.50581369148055
1373817818.75,15.140937791666667,35.70125,80.17666670080001,15.171953125,64.51001026332099
1373817819.0,15.155609958333335,35.70375000000001,80.24333333333334,14.474166666666667,64.51517527481693
1373817819.25,15.171669375,35.706250000000004,80.30916663296,13.923802083333333,64.52034028631286
1373817819.5,15.188635833333334,35.70875,80.375,12.600052083333333,64.52550529780878
1373817819.75,15.205975708333332,35.71083333333333,80.44083336704,12.430572916666668,64.53067030930471
1373817820.0,15.222782041666667,35.7125,80.50666666666666,11.792786458333333,64.53583532080064
1373817820.25,15.238254541666665,35.714166666666664,80.57333329919999,12.815026041666664,64.54100033229658
1373817820.5,15.252713333333332,35.715833333333336,80.63999999999999,14.208333333333334,64.54616534379251
1373817820.75,15.266531916666667,35.717499999999994,80.7066667008,14.820026041666667,64.55133035528843
1373817821.0,15.280137041666665,35.719166666666666,80.77333333333333,16.47098958333333,64.55649536678436
1373817821.25,15.293742166666666,35.72083333333333,80.83916663296,17.315182291666666,64.5616603782803
1373817821.5,15.30697379166667,35.7225,80.905,18.83635416666667,64.58777013639398
1373817821.75,15.320045333333333,35.72416666666667,80.97083336704,20.731119791666668,64.6411004425939
1373817822.0,15.332690083333333,35.725833333333334,81.03666666666668,21.76294270833333,64.68298993582944
1373817822.25,15.344747916666668,35.7275,81.10166663338667,23.854010416666664,64.73535180237387
1373817822.5,15.356645708333332,35.729166666666664,81.16666666666667,24.819088541666662,64.79120446002126
1373817822.75,15.368490208333334,35.73,81.23166669994667,25.833307291666667,64.84705711766865
1373817823.0,15.380814916666667,35.73,81.29666666666667,27.752057291666663,64.90290977531603
1373817823.25,15.393032875000001,35.73,81.35749996885333,27.110963541666663,64.95876243296343
1373817823.5,15.406104458333333,35.73,81.41833333333334,28.090208333333333,65.0146150906108
1373817823.75,15.425088375,35.729166666666664,81.47916669781334,28.32216145833333,65.0704677482582
1373817824.0,15.451852,35.7275,81.54,28.202265624999995,65.12632040590559
1373817824.25,15.483043916666666,35.725833333333334,81.59666663765334,29.549817708333336,65.18217306355298
1373817824.5,15.515302916666665,35.72416666666667,81.65333333333334,28.644947916666666,65.21708097458259
1373817824.75,15.547615291666666,35.7225,81.71000002901333,29.137578125,65.22057176568556
1373817825.0,15.580354499999999,35.72083333333333,81.76666666666667,29.547682291666664,65.2345349300974
1373817825.25,15.612773624999997,35.719166666666666,81.81833330688,28.26375,65.23802572120036
1373817825.5,15.64481925,35.717499999999994,81.87,29.32630208333333,65.23802572120036
1373817825.75,15.676704791666666,35.71666666666667,81.92166669312,28.482083333333335,65.23802572120036
1373817826.0,15.714939374999998,35.71666666666666,81.97333333333334,27.509895833333335,65.2345349300974
1373817826.25,15.774590875,35.71666666666667,82.02249997482667,28.23044270833333,65.21708097458259
1373817826.5,15.849124083333331,35.71666666666667,82.07166666666667,26.322630208333333,65.21708097458259
1373817826.75,15.916517791666665,35.717499999999994,82.12083335850667,26.559114583333336,65.21708097458259
1373817827.0,15.974958041666667,35.719166666666666,82.17,25.91671875,65.21708097458259
1373817827.25,16.027956291666666,35.72083333333333,82.21499997696,24.422083333333333,65.21708097458259
1373817827.5,16.079087166666667,35.7225,82.26,25.102057291666664,65.21708097458259
1373817827.75,16.129150958333334,35.72416666666667,82.30500002304001,23.295755208333333,65.21708097458259
1373817828.0,16.180149,35.725833333333334,82.35000000000001,22.985312500000003,65.21708097458259
1373817828.25,16.230453416666666,35.7275,82.41666663253334,23.220052083333332,65.21708097458259
1373817828.5,16.280170958333333,35.729166666666664,82.48333333333333,21.539895833333336,65.21708097458259
1373817828.75,16.329354958333337,35.73,82.55000003413333,22.17372395833333,65.18566385465593
1373817829.0,16.370909458333333,35.73,82.61666666666666,21.604401041666666,65.13330198811151
1373817829.25,16.388059333333334,35.73,82.70499995477333,20.80450520833333,65.09490328597893
1373817829.5,16.384938833333333,35.73,82.79333333333332,21.680546875,65.03905062833154
1373817829.75,16.38181833333333,35.73,82.88166671189333,20.62692708333333,65.01666832955208
1373817830.0,16.378697833333334,35.73,82.97,21.22671875,65.01642873752515
1373817830.25,16.375577333333336,35.73,83.05333329066666,21.237734375,65.01642873752513
1373817830.5,16.372723541666666,35.73,83.13666666666666,20.915963541666667,65.01642873752515
1373817830.75,16.370776791666668,35.73,83.22000004266667,22.20372395833333,65.01642873752513
1373817831.0,16.366615291666665,35.73,83.30333333333333,21.561432291666666,65.01642873752515
1373817831.25,16.362453791666667,35.73,83.39333328725333,22.915651041666667,65.01642873752513
1373817831.5,16.358292291666668,35.73,83.48333333333333,23.92260416666667,65.01642873752515
1373817831.75,16.354130791666666,35.73,83.57333337941334,24.149010416666666,65.04784585745179
1373817832.0,16.350236,35.73,83.66333333333334,25.714010416666667,65.10369851509918
1373817832.25,16.3491155,35.73,83.77583327573333,25.805546875,65.15955117274656
1373817832.5,16.352103208333332,35.73,83.88833333333334,26.61325520833333,65.21540383039395
1373817832.75,16.356851666666667,35.73,84.00083339093334,27.341223958333334,65.23778612917341
1373817833.0,16.36389433333333,35.73,84.11333333333333,27.228307291666667,65.23802572120036
1373817833.25,16.373337875,35.73,84.27999991466666,28.683151041666665,65.23802572120036
1373817833.5,16.385022333333335,35.73,84.44666666666666,28.633307291666668,65.23802572120036
1373817833.75,16.398840833333335,35.73,84.61333341866667,29.348906250000002,65.23802572120036
1373817834.0,16.4157005,35.73,84.78,30.447473958333337,65.23802572120036
1373817834.25,16.437522083333334,35.73,84.96499990528,29.678177083333335,65.23802572120036
1373817834.5,16.471614916666667,35.73,85.15,29.993671875,65.23802572120036
1373817834.75,16.522674166666665,35.73,85.33500009472,28.916875,65.23802572120036
1373817835.0,16.591207291666667,35.73,85.52,28.259296875000004,65.23802572120036
1373817835.25,16.66889108333333,35.73,85.69916657493333,28.163619791666665,65.23802572120036
1373817835.5,16.746841625,35.73,85.87833333333333,27.04299479166667,65.23802572120036
1373817835.75,16.82511225,35.73,86.05750009173335,27.3696875,65.23802572120036
1373817836.0,16.903436208333336,35.73,86.23666666666668,26.590911458333334,65.23802572120036
1373817836.25,16.980799833333332,35.73,86.40749991253334,26.142630208333333,65.23802572120036
1373817836.5,17.058857,35.73,86.57833333333335,26.252942708333336,65.23802572120036
1373817836.75,17.14102245833333,35.73,86.74916675413334,25.423307291666664,65.23802572120036
1373817837.0,17.227320791666667,35.73,86.92,25.840651041666664,65.23802572120036
1373817837.25,17.3113495,35.73,87.08499991552,25.667786458333335,65.23802572120036
1373817837.5,17.383533791666665,35.73,87.25,26.73890625,65.23802572120036
1373817837.75,17.440138875000002,35.73083333333333,87.41500008448,28.534114583333334,65.23802572120036
1373817838.0,17.480390500000002,35.732499999999995,87.58,29.537578124999996,65.23802572120036
1373817838.25,17.511544875000002,35.73416666666666,87.74749991424,31.648958333333336,65.23802572120036
1373817838.5,17.542112375000002,35.73583333333333,87.91499999999999,32.57401041666667,65.23802572120036
1373817838.75,17.5709725,35.7375,88.08250008576,33.76838541666667,65.23802572120036
1373817839.0,17.598392083333334,35.73916666666667,88.25,35.125,65.23802572120036
1373817839.25,17.627839083333335,35.740833333333335,88.40083325610667,35.19645833333333,65.23802572120036
1373817839.5,17.658033125,35.7425,88.55166666666668,36.472630208333335,65.23802572120036
1373817839.75,17.684385708333334,35.744166666666665,88.70250007722667,36.03510416666666,65.23802572120036
1373817840.0,17.706978833333334,35.74583333333333,88.85333333333334,36.15385416666667,65.23802572120036
1373817840.25,17.730294291666667,35.7475,88.98916659712,36.59338541666667,65.23802572120036
1373817840.5,17.755850625,35.74916666666667,89.125,34.787395833333335,65.23802572120036
1373817840.75,17.782580666666668,35.75,89.26083340288,34.95690104166667,65.23802572120036
1373817841.0,17.81075125,35.75,89.39666666666666,33.36106770833333,65.23104413899443
1373817841.25,17.842068083333334,35.75,89.5133332736,32.052421875,65.22406255678852
1373817841.5,17.87706475,35.75,89.63,31.971979166666667,65.22406255678851
1373817841.75,17.914622416666663,35.75,89.7466667264,29.627005208333333,65.22406255678852
1373817842.0,17.953513875000002,35.75,89.86333333333333,29.1521875,65.22406255678851
1373817842.25,17.991231625,35.75,89.98583327061333,27.614817708333334,65.22406255678852
1373817842.5,18.026975291666666,35.75,90.10833333333333,25.53067708333333,65.22406255678851
1373817842.75,18.061225,35.75,90.23083339605334,25.261145833333334,65.22406255678852
1373817843.0,18.093874083333333,35.75,90.35333333333334,22.625416666666666,65.22406255678851
1373817843.25,18.124762541666666,35.75,90.46916660736001,21.454661458333334,65.22406255678852
1373817843.5,18.154797333333335,35.75,90.58500000000001,20.535963541666668,65.22406255678851
1373817843.75,18.183445000000003,35.75,90.70083339263999,17.638984375,65.22406255678852
1373817844.0,18.210011875,35.75,90.81666666666666,17.555885416666666,65.23104413899443
1373817844.25,18.233112333333334,35.75,90.93499993941333,15.480598958333333,65.23802572120036
1373817844.5,18.252212874999998,35.75,91.05333333333334,14.151276041666668,65.23802572120036
1373817844.75,18.269659416666666,35.75,91.17166672725334,14.37171875,65.21383216268025
1373817845.0,18.286305666666667,35.75,91.29,12.996718750000001,65.16159111145181
1373817845.25,18.302044875,35.75,91.40916660565334,14.640703125,65.14433880527086
1373817845.5,18.317517291666665,35.75,91.52833333333334,14.880859375,65.14433880527086
1373817845.75,18.332936458333332,35.75,91.64750006101332,16.101692708333335,65.14088834403466
1373817846.0,18.348675833333335,35.75,91.76666666666665,18.638333333333332,65.14088834403468
1373817846.25,18.365002041666667,35.75,91.88999993685331,19.190859375,65.14088834403466
1373817846.5,18.381488208333334,35.75,92.01333333333332,21.661354166666666,65.14088834403468
1373817846.75,18.399384875,35.75,92.13666672981333,23.58143229166667,65.092581886728
1373817847.0,18.419279041666666,35.75,92.25999999999999,24.46184895833333,65.0368905485477
1373817847.25,18.440293666666665,35.75,92.39583326378666,27.09984375,64.98103789090031
1373817847.5,18.46210854166667,35.75,92.53166666666667,27.209401041666666,64.92518523325292
1373817847.75,18.483283208333333,35.75083333333333,92.66750006954666,28.397057291666666,64.89352613412564
1373817848.0,18.503444208333335,35.7525,92.80333333333333,29.854583333333334,64.8899145277067
1373817848.25,18.523498458333332,35.75416666666667,92.89833328469334,29.169401041666664,64.85131417624025
1373817848.5,18.543606041666667,35.755833333333335,92.99333333333334,30.914505208333335,64.79546151859286
1373817848.75,18.562966666666668,35.7575,93.08833338197333,30.062421875,64.74305932218168
1373817849.0,18.581046833333335,35.759166666666665,93.18333333333334,30.245755208333332,64.68720666453429
1373817849.25,18.598273375,35.76083333333333,93.23916663808001,31.073385416666664,64.6313540068869
1373817849.5,18.61485970833333,35.7625,93.29500000000002,29.914895833333333,64.5755013492395
1373817849.75,18.629928833333334,35.765,93.35083336192001,30.78317708333333,64.56795514889879
1373817850.0,18.643640666666666,35.76833333333334,93.40666666666668,30.393619791666666,64.56779382943171
1373817850.25,18.657565875,35.77166666666667,93.40666666666668,29.967786458333332,64.56779382943171
1373817850.5,18.673571958333333,35.775,93.40666666666668,31.424322916666664,64.56779382943171
1373817850.75,18.69459325,35.77583333333333,93.40666666666668,30.77859375,64.56779382943171
1373817851.0,18.723564208333332,35.774166666666666,93.40666666666668,31.405937499999997,64.57263022588364
1373817851.25,18.761196666666667,35.7725,93.40250000213334,31.616510416666667,64.58036846020674
1373817851.5,18.803755875,35.770833333333336,93.39833333333334,30.840026041666665,64.58810669452983
1373817851.75,18.847595541666667,35.770833333333336,93.39416666453333,32.116328125,64.59584492885293
1373817852.0,18.893409208333335,35.7725,93.38999999999999,31.19088541666667,64.60358316317603
1373817852.25,18.948292958333337,35.774166666666666,93.38416666965333,31.677890625000003,64.61132139749911
1373817852.5,19.01158829166667,35.77583333333333,93.37833333333333,32.14794270833333,64.61905963182221
1373817852.75,19.07381654166667,35.77583333333333,93.37249999701334,31.700260416666666,64.62679786614531
1373817853.0,19.134924416666667,35.774166666666666,93.36666666666667,32.64705729166667,64.6345361004684
1373817853.25,19.194271666666666,35.7725,93.36416666794668,32.02041666666667,64.64082341585592
1373817853.5,19.250257583333333,35.770833333333336,93.36166666666668,31.444921875000002,64.64130705550112
1373817853.75,19.300588041666668,35.77166666666667,93.35916666538667,31.126614583333332,64.64356419500486
1373817854.0,19.34065629166667,35.775,93.35666666666667,29.478671875,64.6406628206122
1373817854.25,19.370249,35.778333333333336,93.35500000085334,28.385729166666668,64.63292458628912
1373817854.5,19.393154291666665,35.781666666666666,93.35333333333332,26.350234375,64.62518635196602
1373817854.75,19.413765375,35.78333333333333,93.35166666581333,23.250651041666668,64.61744811764292
1373817855.0,19.426800333333333,35.78333333333334,93.35,20.984453124999998,64.60970988331984
1373817855.25,19.427403958333333,35.78333333333333,93.35249999871999,17.064947916666668,64.60213293945823
1373817855.5,19.41788875,35.78333333333334,93.35499999999999,13.570703125,64.59439470513513
1373817855.75,19.408373541666666,35.78416666666667,93.35750000128,9.74640625,64.59117098155879
1373817856.0,19.398858333333333,35.785833333333336,93.36,6.259765625,64.59856923005427
1373817856.25,19.388916291666664,35.7875,93.36666666325333,4.382291666666666,64.61573890733844
1373817856.5,19.378120541666664,35.78916666666667,93.37333333333333,2.4671875,64.65282930122677
1373817856.75,19.368498499999998,35.79,93.38000000341333,1.0527083333333331,64.67889026396705
1373817857.0,19.362042625,35.79,93.38666666666666,-1.0311458333333332,64.69269521661413
1373817857.25,19.356120333333333,35.79,93.40083332607999,-3.2246354166666666,64.72085097215249
1373817857.5,19.35019804166667,35.79,93.41499999999999,-4.378906250000001,64.75766752133369
1373817857.75,19.344275749999998,35.79,93.42916667392,-4.373359375000001,64.7910791046902
1373817858.0,19.346569916666667,35.79,93.44333333333333,-3.5378125,64.82264699896136
1373817858.25,19.355693374999998,35.79,93.46333332309332,2.021302083333333,64.84855689009989
1373817858.5,19.367964625,35.79,93.48333333333332,9.597734375,64.8763939253561
1373817858.75,19.382103166666667,35.79083333333333,93.50333334357333,14.74078125,64.89795059620936
1373817859.0,19.400883458333332,35.7925,93.52333333333333,16.84809895833333,64.91293841257259
1373817859.25,19.428840625,35.79416666666666,93.54833332053333,16.457552083333333,64.92036796579967
1373817859.5,19.46522775,35.795833333333334,93.57333333333332,15.782447916666667,64.9136804781649
1373817859.75,19.504656083333334,35.7975,93.59833334613333,15.138619791666668,64.91624892181964
1373817860.0,19.546645333333334,35.799166666666665,93.62333333333333,16.140625,64.93139549301203
1373817860.25,19.592529416666668,35.80083333333334,93.64916665344,17.669895833333335,64.93412628337244
1373817860.5,19.640440958333333,35.8025,93.67500000000001,18.098177083333333,64.92819628009002
1373817860.75,19.689899666666665,35.80416666666667,93.70083334656,17.567734374999997,64.92478842063379
1373817861.0,19.737117458333334,35.80583333333333,93.72666666666667,16.13403645833333,64.92234142826446
1373817861.25,19.780440416666668,35.8075,93.75166665386668,10.414505208333333,64.92715679256322
1373817861.5,19.8222695,35.80916666666666,93.77666666666667,2.363958333333333,64.92174962395687
1373817861.75,19.863298291666666,35.81,93.80166667946666,-2.5159114583333335,64.8814626989282
1373817862.0,19.902007541666666,35.81,93.82666666666667,-4.849348958333334,64.83712265631773
1373817862.25,19.93428904166667,35.81,93.84666665642668,-5.601796875000001,64.7920203669903
1373817862.5,19.95920775,35.81,93.86666666666667,-6.247578125,64.74691807766287
1373817862.75,19.980338416666665,35.81,93.88666667690667,-6.690625000000001,64.70181578833545
1373817863.0,19.998054458333332,35.81,93.90666666666668,-7.607213541666667,64.656713499008
1373817863.25,20.012409166666668,35.81,93.91916666026668,-8.234609375,64.61161120968059
1373817863.5,20.025590124999997,35.81,93.93166666666667,-7.9871614583333335,64.56650892035316
1373817863.75,20.037917458333336,35.81,93.94416667306666,-7.260911458333333,64.5222894530242
1373817864.0,20.049604499999997,35.81,93.95666666666666,-5.987942708333333,64.47895280769372
1373817864.25,20.062732083333334,35.81,93.96166666410667,-4.455859375,64.43385051836628
1373817864.5,20.081568541666666,35.81,93.96666666666667,-2.0705989583333335,64.39720490828775
1373817864.75,20.10888825,35.810833333333335,93.97166666922666,0.016250000000000143,64.39720490828775
1373817865.0,20.13954125,35.81250000000001,93.97666666666667,2.4371093750000004,64.39720490828775
1373817865.25,20.167871958333333,35.81416666666667,93.97916666538667,5.345807291666667,64.39720490828775
1373817865.5,20.195989208333334,35.81583333333334,93.98166666666668,8.335338541666667,64.39720490828775
1373817865.75,20.223679583333332,35.8175,93.98416666794668,11.197395833333331,64.39720490828775
1373817866.0,20.25121,35.81916666666667,93.98666666666668,14.281276041666667,64.39720490828775
1373817866.25,20.278687083333335,35.82083333333333,93.98999999829334,17.141276041666668,64.39720490828775
1373817866.5,20.305630583333333,35.8225,93.99333333333334,19.816901041666664,64.39720490828775
1373817866.75,20.331880541666667,35.82416666666666,93.99666666837334,22.404947916666668,64.39720490828775
1373817867.0,20.357436958333334,35.825833333333335,94.0,25.184296875,64.39720490828775
1373817867.25,20.38059241666667,35.8275,94.00583333034666,26.631328125,64.39720490828775
1373817867.5,20.396758541666667,35.829166666666666,94.01166666666666,29.309427083333333,64.39720490828775
1373817867.75,20.40337441666667,35.83,94.01750000298667,31.18578125,64.39720490828775
1373817868.0,20.404388125,35.83,94.02333333333333,31.511223958333332,64.39720490828775
1373817868.25,20.40550854166667,35.83,94.03333332821333,33.288411458333336,64.39720490828775
1373817868.5,20.40732254166667,35.83,94.04333333333332,33.73296875,64.4035035548424
1373817868.75,20.410790458333334,35.83041666666667,94.05333333845333,34.339192708333336,64.42029994565483
1373817869.0,20.41532541666667,35.83125,94.06333333333333,34.792057291666666,64.43709633646726
1373817869.25,20.420607333333333,35.83208333333334,94.07666665984,33.85395833333333,64.45389272727968
1373817869.5,20.42732979166667,35.83291666666667,94.09,33.10994791666666,64.47068911809211
1373817869.75,20.436903125000004,35.83375,94.10333334016,32.26442708333334,64.48748550890453
1373817870.0,20.449434,35.834583333333335,94.11666666666667,30.665494791666664,64.50428189971696
1373817870.25,20.464045708333334,35.83541666666667,94.13499999061334,30.21752604166667,64.52107829052939
1373817870.5,20.478657416666668,35.83625,94.15333333333334,26.906588541666668,64.5378746813418
1373817870.75,20.493269125,35.83708333333334,94.17166667605333,23.11671875,64.55467107215424
1373817871.0,20.5078275,35.837916666666665,94.19,21.14166666666667,64.57146746296665
1373817871.25,20.522279166666667,35.838750000000005,94.21083332266666,16.793385416666666,64.58826385377908
1373817871.5,20.53603725,35.83958333333334,94.23166666666665,12.989921874999999,64.59876159803684
1373817871.75,20.546380791666667,35.84,94.25250001066667,9.910885416666668,64.59876159803684
1373817872.0,20.551922458333333,35.84,94.27333333333333,5.876041666666666,64.59876159803684
1373817872.25,20.555543375,35.84,94.29749998762667,2.738802083333333,64.59876159803684
1373817872.5,20.55719025,35.84,94.32166666666666,0.6184895833333329,64.59876159803684
1373817872.75,20.55470575,35.84125,94.34583334570667,-2.529270833333334,64.59876159803684
1373817873.0,20.548516791666668,35.84375000000001,94.37,-5.2208072916666675,64.59876159803684
1373817873.25,20.540246999999997,35.846250000000005,94.39166665557333,-7.103411458333333,64.59876159803684
1373817873.5,20.531977208333334,35.84875,94.41333333333333,-7.761796874999999,64.59876159803684
1373817873.75,20.524934583333334,35.85125,94.43500001109334,-5.876484375,64.59876159803684
1373817874.0,20.518958958333332,35.85375,94.45666666666666,-4.954427083333334,64.59876159803684
1373817874.25,20.513516916666667,35.856249999999996,94.47416665770668,-3.7211197916666667,64.59876159803684
1373817874.5,20.513356875,35.85875,94.49166666666667,-0.7013281249999999,64.59876159803684
1373817874.75,20.524454375,35.861250000000005,94.50916667562667,1.039010416666667,64.59876159803684
1373817875.0,20.54270125,35.86375,94.52666666666669,3.531588541666667,64.59876159803684
1373817875.25,20.562121916666666,35.86625,94.53916666026669,7.329192708333334,64.59876159803684
1373817875.5,20.583730083333332,35.86875,94.55166666666668,8.993776041666667,64.59876159803684
1373817875.75,20.60885958333333,35.87,94.56416667306667,12.634609375000002,64.59876159803684
1373817876.0,20.636976875,35.87,94.57666666666667,16.235859375,64.59876159803684
1373817876.25,20.671069791666667,35.87,94.58416666282668,18.285208333333333,64.59876159803684
1373817876.5,20.713885333333334,35.87,94.59166666666667,21.960729166666667,64.59876159803684
1373817876.75,20.759127791666668,35.86875,94.59916667050668,22.868229166666666,64.59876159803684
1373817877.0,20.806451083333332,35.86625,94.60666666666668,24.434973958333334,64.59876159803684
1373817877.25,20.857696416666666,35.86375,94.60999999829335,27.535416666666666,64.59876159803684
1373817877.5,20.906274125,35.86125,94.61333333333334,28.453828125,64.59876159803684
1373817877.75,20.947942,35.86,94.61666666837334,30.22973958333333,64.59876159803684
1373817878.0,20.98966325,35.86,94.62,31.938489583333332,64.59876159803684
1373817878.25,21.030904333333336,35.86000000000001,94.61000000512,31.6221875,64.59876159803684
1373817878.5,21.070171291666668,35.86000000000001,94.6,33.35502604166667,64.59876159803684
1373817878.75,21.10719741666667,35.85875,94.58999999488,33.128880208333335,64.59876159803684
1373817879.0,21.143903333333334,35.85625,94.58,32.569010416666664,64.59876159803684
1373817879.25,21.176234208333334,35.85375,94.56166667605333,33.519817708333335,64.59876159803684
1373817879.5,21.201869916666666,35.85125,94.54333333333332,31.580546875,64.59876159803684
1373817879.75,21.22449179166667,35.85125,94.52499999061332,31.65640625,64.59876159803684
1373817880.0,21.244659458333334,35.85375,94.50666666666666,30.75916666666667,64.59876159803684
1373817880.25,21.260958416666668,35.856249999999996,94.48000001365332,28.26747395833333,64.59876159803684
1373817880.5,21.275763416666667,35.85875,94.45333333333332,27.74549479166667,64.59876159803684
1373817880.75,21.290595666666665,35.86,94.42666665301333,25.616536458333332,64.59876159803684
1373817881.0,21.305641333333334,35.86,94.39999999999999,23.98361979166667,64.59876159803684
1373817881.25,21.325435416666668,35.86,94.37666667861333,23.423515624999997,64.59876159803684
1373817881.5,21.351927458333332,35.86000000000001,94.35333333333332,21.071484375,64.59876159803684
1373817881.75,21.385170875,35.861250000000005,94.32999998805333,20.511770833333333,64.59876159803684
1373817882.0,21.421882333333333,35.863749999999996,94.30666666666667,19.388229166666665,64.59876159803684
1373817882.25,21.462862041666668,35.86625,94.28416667818666,17.65546875,64.59876159803684
1373817882.5,21.507949916666664,35.86875,94.26166666666666,18.032890624999997,64.59876159803684
1373817882.75,21.559760333333333,35.87,94.23916665514666,16.758177083333333,64.59876159803684
1373817883.0,21.619093583333335,35.87,94.21666666666665,17.405130208333336,64.59876159803684
1373817883.25,21.686987708333334,35.87,94.19833334271999,18.139609375,64.59876159803684
1373817883.5,21.76200220833333,35.87,94.17999999999998,18.007005208333332,64.59876159803684
1373817883.75,21.839044125,35.87083333333333,94.16166665727998,19.797890624999997,64.59876159803684
1373817884.0,21.91528575,35.872499999999995,94.14333333333332,20.065911458333332,64.59876159803684
1373817884.25,21.989179833333335,35.87416666666666,94.12750000810665,21.048307291666664,64.59876159803684
1373817884.5,22.058083291666666,35.875833333333325,94.11166666666665,22.504609375,64.59876159803684
1373817884.75,22.121889375,35.877500000000005,94.09583332522666,22.826901041666662,64.59876159803684
1373817885.0,22.182280833333333,35.87916666666667,94.08,24.40734375,64.59876159803684
1373817885.25,22.23888420833333,35.880833333333335,94.07083333802666,24.9709375,64.59876159803684
1373817885.5,22.291272666666668,35.8825,94.06166666666667,25.080078125,64.59876159803684
1373817885.75,22.337898916666663,35.884166666666665,94.05249999530668,25.81052083333333,64.59876159803684
1373817886.0,22.377802625,35.88583333333333,94.04333333333334,24.703723958333338,64.59876159803684
1373817886.25,22.411396458333332,35.887499999999996,94.03833333589333,24.512395833333333,64.59876159803684
1373817886.5,22.439213874999997,35.88916666666666,94.03333333333333,23.56895833333333,64.59876159803684
1373817886.75,22.463776749999997,35.89,94.02833333077334,22.115651041666666,64.59876159803684
1373817887.0,22.486739041666667,35.89,94.02333333333333,21.84125,64.59876159803684
1373817887.25,22.508260791666668,35.89,94.02250000042666,20.271041666666665,64.59876159803684
1373817887.5,22.529409,35.89,94.02166666666666,19.75721354166667,64.59876159803684
1373817887.75,22.550503791666667,35.89,94.02083333290666,18.82223958333333,64.59876159803684
1373817888.0,22.571278458333335,35.89,94.02,17.789635416666666,64.59876159803684
1373817888.25,22.591786416666665,35.89,94.02249999872001,17.97252604166667,64.59876159803684
1373817888.5,22.61144075,35.89,94.025,17.22041666666667,64.59876159803684
1373817888.75,22.630828291666663,35.89,94.02750000128,17.577734375000002,64.59876159803684
1373817889.0,22.650696041666667,35.89,94.03000000000002,17.658020833333335,64.59876159803684
1373817889.25,22.670446958333333,35.89,94.03499999744001,17.305598958333334,64.59876159803684
1373817889.5,22.69429595833333,35.89,94.04,17.9940625,64.59876159803684
1373817889.75,22.72647029166667,35.89083333333333,94.04500000256,17.341484375,64.59876159803684
1373817890.0,22.760087375,35.8925,94.05,17.523098958333332,64.59876159803684
1373817890.25,22.792744125,35.89416666666667,94.05916666197334,17.87200520833333,64.59876159803684
1373817890.5,22.824067083333333,35.895833333333336,94.06833333333333,16.97388020833333,64.59876159803684
1373817890.75,22.853789458333335,35.8975,94.07750000469332,17.768645833333334,64.59876159803684
1373817891.0,22.881964583333332,35.899166666666666,94.08666666666666,17.16674479166667,64.59876159803684
1373817891.25,22.908325666666666,35.90083333333333,94.09499999573333,16.819765625,64.59876159803684
1373817891.5,22.92940475,35.902499999999996,94.10333333333332,17.32328125,64.59876159803684
1373817891.75,22.947656124999998,35.90416666666666,94.11166667093333,16.22421875,64.59876159803684
1373817892.0,22.963933375,35.90583333333333,94.12,16.985677083333332,64.59876159803684
1373817892.25,22.977489541666667,35.9075,94.12749999616001,16.810963541666666,64.59876159803684
1373817892.5,22.984483249999997,35.909166666666664,94.13500000000002,16.935885416666668,64.59876159803684
1373817892.75,22.981764416666667,35.91,94.14250000384001,18.287109375,64.59876159803684
1373817893.0,22.976055583333334,35.91,94.15000000000002,18.038098958333332,64.59876159803684
1373817893.25,22.971733916666665,35.91,94.15333333162668,18.752838541666666,64.59876159803684
1373817893.5,22.968746125,35.91,94.15666666666668,19.46921875,64.59876159803684
1373817893.75,22.967519,35.91,94.16000000170668,19.17338541666667,64.59876159803684
1373817894.0,22.96799916666667,35.91,94.16333333333334,20.257604166666667,64.59876159803684
1373817894.25,22.970346708333334,35.91,94.16499999914667,20.180625,64.59876159803684
1373817894.5,22.97915,35.91,94.16666666666667,20.67203125,64.59876159803684
1373817894.75,22.991954791666668,35.91,94.16833333418667,21.68947916666667,64.59876159803684
1373817895.0,23.00475958333333,35.91,94.17,21.430078124999998,64.59876159803684
1373817895.25,23.017564375000003,35.91,94.16833333418667,23.237578125,64.59876159803684
1373817895.5,23.030369166666663,35.91,94.16666666666667,23.295885416666668,64.59876159803684
1373817895.75,23.04317395833333,35.91,94.16499999914667,23.9425,64.59876159803684
1373817896.0,23.055978749999998,35.91,94.16333333333334,25.556223958333334,64.59876159803684
1373817896.25,23.067983291666668,35.91,94.16000000170666,25.20690104166667,64.59876159803684
1373817896.5,23.078173791666668,35.91,94.15666666666667,26.606875,64.59876159803684
1373817896.75,23.086603625,35.91166666666666,94.15333333162667,27.095182291666664,64.59876159803684
1373817897.0,23.093326166666667,35.915,94.14999999999999,26.950625000000002,64.59876159803684
1373817897.25,23.098181333333333,35.91833333333333,94.14250000384,28.047734375,64.59876159803684
1373817897.5,23.100795666666667,35.92166666666667,94.13499999999999,27.12708333333333,64.59964789925714
1373817897.75,23.100902416666667,35.925,94.12749999616,26.91203125,64.60585200779919
1373817898.0,23.101542666666663,35.928333333333335,94.12,27.171536458333332,64.61294241756151
1373817898.25,23.102556375000002,35.931666666666665,94.11000000512,24.989713541666664,64.61914652610356
1373817898.5,23.104370375000002,35.935,94.1,24.814114583333332,64.6262369358659
1373817898.75,23.107358166666668,35.93833333333333,94.08999999488,23.713385416666668,64.63332734562825
1373817899.0,23.111306291666665,35.94166666666667,94.08,21.450078125,64.64041775539057
1373817899.25,23.115737291666665,35.945,94.06666667349333,21.65036458333333,64.64750816515293
1373817899.5,23.120648458333335,35.94833333333334,94.05333333333333,19.733880208333336,64.65459857491525
1373817899.75,23.125559624999998,35.95,94.03999999317332,17.866041666666668,64.6616889846776
1373817900.0,23.130470791666667,35.95,94.02666666666666,15.348098958333333,64.66877939443994
1373817900.25,23.13538195833333,35.95,94.01000000853332,10.736406250000002,64.67586980420228
1373817900.5,23.142213916666662,35.95,93.99333333333333,8.941640625,64.69013833495863
1373817900.75,23.149045875,35.95,93.97666665813333,7.852578125,64.75042953797795
1373817901.0,23.152460958333332,35.95,93.96,6.0203125,64.84579982341953
1373817901.25,23.153419041666666,35.95,93.94083334314666,4.998385416666667,64.94154445000682
1373817901.5,23.144188874999998,35.95,93.92166666666665,1.4204427083333335,64.99628678045133
1373817901.75,23.124397416666664,35.95,93.90249999018666,-2.6950781249999998,65.03818131133195
1373817902.0,23.088386541666665,35.95,93.88333333333333,-6.555729166666667,65.10480032384531
1373817902.25,23.03177583333333,35.95,93.85833334613334,-12.058750000000002,65.17486535473078
1373817902.5,22.96908283333333,35.95,93.83333333333334,-15.6190625,65.29512371853255
1373817902.75,22.884032541666667,35.950833333333335,93.80833332053334,-15.025598958333333,65.41545584805725
1373817903.0,22.757354250000002,35.95250000000001,93.78333333333335,-10.909687499999999,65.47964920282693
1373817903.25,22.600388499999998,35.954166666666666,93.75333334869335,-5.637682291666667,65.54320640646951
1373817903.5,22.427203458333334,35.95583333333334,93.72333333333334,-2.610078125,65.53209891796462
1373817903.75,22.242602333333334,35.9575,93.69333331797334,-0.7750781249999998,65.36744887783067
1373817904.0,22.04821375,35.95916666666667,93.66333333333334,2.2471875000000003,65.0355281359941
1373817904.25,21.83677941666667,35.96083333333333,93.62750001834667,6.171015625000002,64.74440688136002
1373817904.5,21.61987345833333,35.9625,93.59166666666667,11.791822916666668,64.61721002902799
1373817904.75,21.39200120833333,35.964166666666664,93.55583331498667,16.203515625,64.63927285487118
1373817905.0,21.169974,35.965833333333336,93.52,20.785494791666668,64.66447754494948
1373817905.25,20.967476833333333,35.967499999999994,93.47916668757333,24.842187499999998,64.55257885315751
1373817905.5,20.77106195833333,35.969166666666666,93.43833333333333,27.762057291666668,64.32059539359356
1373817905.75,20.597004374999997,35.97,93.39749997909334,27.401510416666667,64.11013669882307
1373817906.0,20.464574791666667,35.97,93.35666666666667,25.293671875,64.14017841285458
1373817906.25,20.362432666666667,35.97,93.3108333568,25.558229166666667,64.18313671426012
1373817906.5,20.30460395833333,35.97,93.265,25.1053125,64.30541538544864
1373817906.75,20.299431291666664,35.97,93.2191666432,22.274869791666664,64.80371492078862
1373817907.0,20.335576083333333,35.97,93.17333333333333,16.880208333333336,65.67737676083941
1373817907.25,20.412217625,35.97,93.12166669311999,12.632656250000002,66.57214509330363
1373817907.5,20.537573625,35.97,93.07,8.529713541666668,67.28762140058532
1373817907.75,20.725059,35.97,93.01833330688,6.264192708333334,67.75640539560487
1373817908.0,20.962066208333333,35.97,92.96666666666665,4.469479166666667,68.06601975884107
1373817908.25,21.219842916666668,35.97,92.91166669482666,4.496614583333334,68.50191366048793
1373817908.5,21.479375416666667,35.97,92.85666666666665,4.644479166666668,68.9200509152962
1373817908.75,21.74002841666667,35.97,92.80166663850666,5.314895833333334,69.29438002192622
1373817909.0,22.010289958333335,35.97,92.74666666666667,5.089531250000001,69.38724179135515
1373817909.25,22.298315416666668,35.97,92.69250002773333,3.869348958333333,69.48056751595799
1373817909.5,22.5692375,35.97,92.63833333333332,2.0051562499999998,69.55234234597968
1373817909.75,22.803030583333335,35.97083333333333,92.58416663893333,-0.858072916666667,69.30388771298342
1373817910.0,23.011644999999998,35.9725,92.52999999999999,-3.8587239583333335,68.79555708509797
1373817910.25,23.20934925,35.97416666666667,92.47583336106666,-9.913203125,68.20228135373655
1373817910.5,23.389044625,35.975833333333334,92.42166666666665,-12.22484375,67.64713551457028
1373817910.75,23.55143879166667,35.977916666666665,92.36749997226666,-9.637109375,67.1775477738303
1373817911.0,23.691263583333335,35.98041666666666,92.31333333333333,-6.937604166666667,66.82671657526423
1373817911.25,23.816087333333332,35.98291666666667,92.26166669312,-6.471901041666666,66.48234564522362
1373817911.5,23.954894541666672,35.985416666666666,92.21000000000001,-6.240546875,66.228656636021
1373817911.75,24.11108858333333,35.98791666666667,92.15833330688,-6.554713541666666,65.99641948061762
1373817912.0,24.268144000000003,35.99041666666667,92.10666666666667,-7.324999999999999,65.86770491036928
1373817912.25,24.41721183333333,35.992916666666666,92.05666669226667,-10.699088541666667,65.71268430002877
1373817912.5,24.572255249999998,35.995416666666664,92.00666666666667,-12.089479166666665,65.56402199317925
1373817912.75,24.75559404166667,35.997083333333336,91.95666664106668,-10.103307291666667,65.45380802871357
1373817913.0,24.964541625,35.99791666666667,91.90666666666668,-6.146354166666666,65.36533745188775
1373817913.25,25.174321125000002,35.99875,91.85916669098667,-1.1387760416666668,65.28431111592953
1373817913.5,25.373643291666667,35.999583333333334,91.81166666666667,-0.58171875,65.21264792079874
1373817913.75,25.55601391666667,36.00125,91.76416664234667,-4.924036458333333,65.15764843487642
1373817914.0,25.728369,36.003750000000004,91.71666666666665,-8.811718749999999,65.09061588298215
1373817914.25,25.898727958333335,36.00625,91.67083335679999,-8.247682291666667,65.03168509635506
1373817914.5,26.053347666666664,36.00875,91.625,-8.591432291666667,64.98920711841473
1373817914.75,26.188124958333333,36.01125,91.57916664320001,-9.885598958333334,64.91564438584616
1373817915.0,26.309124375,36.01375,91.53333333333335,-12.418619791666666,64.79442376672746
1373817915.25,26.432405375000002,36.01625,91.48750002346667,-13.559427083333333,64.75225203289743
1373817915.5,26.54748691666667,36.018750000000004,91.44166666666666,-13.923046875000002,64.63591522478545
1373817915.75,26.634697166666665,36.02125,91.39583330986666,-11.373489583333333,64.60069874704476
1373817916.0,26.692830666666666,36.02375,91.34999999999998,-7.129869791666667,64.55100996264316
1373817916.25,26.739674958333335,36.02625,91.30583335594665,-0.9116666666666671,64.56050913471715
1373817916.5,26.770442916666667,36.02875,91.26166666666666,6.648802083333332,64.62030612020645
1373817916.75,26.76966195833333,36.03,91.21749997738667,12.241015625000001,64.70030957804003
1373817917.0,26.75148775,36.03,91.17333333333333,15.071328124999999,64.80193891817486
1373817917.25,26.722302125000002,36.03,91.12333335893332,15.42263020833333,64.91331682428289
1373817917.5,26.68294304166667,36.03,91.07333333333332,14.689114583333334,65.03739314364846
1373817917.75,26.631260583333333,36.030833333333334,91.02333330773332,13.175338541666664,65.19586599874351
1373817918.0,26.551338375,36.0325,90.97333333333331,14.027786458333333,65.40106930494609
1373817918.25,26.4176575,36.03416666666667,90.91583336277333,17.864348958333334,65.50898761343643
1373817918.5,26.24294120833333,36.035833333333336,90.85833333333332,22.633880208333334,65.78940176217345
1373817918.75,26.063689875000005,36.038333333333334,90.80083330389333,23.65747395833333,66.0025878272104
1373817919.0,25.88443854166667,36.041666666666664,90.74333333333334,22.226250000000004,66.1557055176953
1373817919.25,25.70518720833333,36.045,90.67666670080001,17.574140625000002,66.18263492752695
1373817919.5,25.536623541666668,36.04833333333333,90.61000000000001,11.875130208333333,66.11759221910184
1373817919.75,25.392085958333336,36.05166666666667,90.5433332992,9.403125,66.0407644258716
1373817920.0,25.259626208333334,36.055,90.47666666666667,10.70515625,65.97519791434395
1373817920.25,25.147470791666663,36.05833333333334,90.40750003541334,8.959739583333333,65.83825787812152
1373817920.5,25.054452249999997,36.06166666666667,90.33833333333334,9.011510416666665,65.61136613504054
1373817920.75,24.989904499999998,36.065000000000005,90.26916663125334,12.281197916666668,65.4527985769481
1373817921.0,24.95690445833333,36.068333333333335,90.2,14.605312499999998,65.29537345121449
1373817921.25,24.97380158333333,36.071666666666665,90.12833337002667,13.076744791666668,65.15006325392217
1373817921.5,25.021452541666665,36.074999999999996,90.05666666666667,9.680963541666667,64.91594260037184
1373817921.75,25.070437291666664,36.07833333333333,89.98499996330668,6.184166666666666,64.65971870465386
1373817922.0,25.122249874999998,36.08166666666667,89.91333333333334,4.656588541666667,64.49616990734872
1373817922.25,25.17744454166667,36.085,89.84833336661335,7.818437500000001,64.4332802324947
1373817922.5,25.232639208333328,36.08833333333333,89.78333333333335,11.252864583333334,64.43184221507052
1373817922.75,25.292955708333334,36.0925,89.71833330005335,10.450625,64.42538070273906
1373817923.0,25.355386375,36.097500000000004,89.65333333333335,6.596119791666667,64.40642793175228
1373817923.25,25.40857254166667,36.1025,89.59500002986668,5.060833333333334,64.4418756580739
1373817923.5,25.457116875,36.1075,89.53666666666668,3.876380208333334,64.53746361923423
1373817923.75,25.490848875,36.112500000000004,89.47833330346667,1.1927083333333337,64.56209287275134
1373817924.0,25.533778416666667,36.1175,89.42,-1.9490364583333328,64.57779716369915
1373817924.25,25.58899933333333,36.1225,89.37000002559999,-4.2104687499999995,64.61318428730061
1373817924.5,25.671307083333335,36.127500000000005,89.32,-7.205911458333333,64.64152359243565
1373817924.75,25.775734833333335,36.13166666666667,89.2699999744,-7.617265624999999,64.68603622159414
1373817925.0,25.891275833333335,36.135,89.21999999999998,-10.167083333333332,64.70649005415136
1373817925.25,26.016773166666667,36.13833333333333,89.16583336106666,-17.08765625,64.7093919315021
1373817925.5,26.153991208333338,36.14166666666667,89.11166666666665,-23.04494791666667,64.70050704104487
1373817925.75,26.29247279166667,36.14416666666667,89.05749997226665,-24.516328125,64.69394672476814
1373817926.0,26.429300416666667,36.145833333333336,89.00333333333333,-22.923906249999998,64.68713933693505
1373817926.25,26.564868333333337,36.1475,88.94583336277333,-20.756223958333333,64.6783158327696
1373817926.5,26.701076583333332,36.149166666666666,88.88833333333332,-17.431250000000002,64.6642149887109
1373817926.75,26.845821333333333,36.15125,88.83083330389333,-13.49348958333333,64.65200949433394
1373817927.0,26.990385291666666,36.15375,88.77333333333333,-8.204895833333333,64.64096794390885
1373817927.25,27.123660750000003,36.15624999999999,88.71583336277332,-3.855625,64.62887772006518
1373817927.5,27.239122749999996,36.15875,88.65833333333333,1.1071354166666674,64.61666636150618
1373817927.75,27.335452625,36.16125,88.60083330389334,4.685052083333335,64.6067137176405
1373817928.0,27.4252575,36.16375,88.54333333333334,9.694635416666669,64.59260501318873
1373817928.25,27.514422041666666,36.16625,88.49416669184001,16.177005208333334,64.5754672054186
1373817928.5,27.605283583333335,36.16875,88.44500000000001,21.44861979166667,64.55566355334147
1373817928.75,27.702323833333335,36.169999999999995,88.39583330816001,24.76171875,64.53484354161326
1373817929.0,27.803899124999997,36.17,88.34666666666668,26.694036458333333,64.51841407886438
1373817929.25,27.909849291666664,36.169999999999995,88.30833335296,29.667473958333336,64.50440482763436
1373817929.5,28.02046816666667,36.169999999999995,88.27000000000001,31.058125,64.49350146193967
1373817929.75,28.136556125,36.168749999999996,88.23166664704,32.69505208333334,64.48033855561675
1373817930.0,28.260304875000003,36.16625,88.19333333333333,32.77028645833334,64.46761740913935
1373817930.25,28.38283525,36.16375,88.16583334741333,32.71744791666667,64.45400382873778
1373817930.5,28.497340083333338,36.16125,88.13833333333332,32.902265625000005,64.44039005835812
1373817930.75,28.608750291666666,36.15875,88.11083331925333,32.416562500000005,64.42451757328513
1373817931.0,28.714473791666666,36.15625,88.08333333333333,31.513411458333334,64.41280114879824
1373817931.25,28.809580041666663,36.153749999999995,88.06166667776,29.990781249999998,64.39949873996993
1373817931.5,28.89279375,36.15125,88.03999999999999,28.76169270833333,64.38558258254832
1373817931.75,28.967071416666666,36.15,88.01833332224,28.139322916666668,64.37319709462146
1373817932.0,29.034146375000002,36.15,87.99666666666667,25.767734375,64.3585818242398
1373817932.25,29.100421041666667,36.15,87.97833334272,21.998463541666666,64.34275138285588
1373817932.5,29.160799833333332,36.15,87.96000000000001,17.9740625,64.32529992588869
1373817932.75,29.207759958333337,36.15,87.94166665728,12.485156250000001,64.30914449380786
1373817933.0,29.238576041666665,36.15,87.92333333333333,8.732994791666668,64.29282511305796
1373817933.25,29.26205145833333,36.15,87.9066666752,5.545703125,64.27844683965078
1373817933.5,29.284459874999996,36.15,87.89,4.040052083333333,64.26418989093703
1373817933.75,29.30585470833333,36.150416666666665,87.8733333248,2.339296875,64.2499329422233
1373817934.0,29.32589366666667,36.15125,87.85666666666667,0.6468749999999996,64.23567599350955
1373817934.25,29.344278541666668,36.15208333333333,87.84666667178666,-0.01583333333333366,64.22603413245558
1373817934.5,29.365086375,36.15291666666666,87.83666666666667,-1.4669531250000005,64.2196718643019
1373817934.75,29.388722,36.153749999999995,87.82666666154667,-2.5409114583333334,64.21513144550825
1373817935.0,29.419930208333337,36.154583333333335,87.81666666666666,-1.7997395833333334,64.21286123611141
1373817935.25,29.450707999999995,36.15541666666666,87.81500000085333,-0.8777083333333335,64.21144235523839
1373817935.5,29.48036529166666,36.15625,87.81333333333333,0.7547656249999996,64.21144235523839
1373817935.75,29.512370041666667,36.15708333333333,87.81166666581333,3.2931249999999994,64.21059102671458
1373817936.0,29.547042541666666,36.157916666666665,87.81,5.476692708333332,64.21059102671458
1373817936.25,29.584436083333333,36.15875,87.81583333034666,8.155677083333332,64.21229368376221
1373817936.5,29.623056750000003,36.15958333333333,87.82166666666666,9.373177083333333,64.21655032638127
1373817936.75,29.662531041666668,36.16,87.82750000298667,12.221953124999999,64.22109074517492
1373817937.0,29.70227208333333,36.16,87.83333333333333,13.856380208333333,64.22563116396859
1373817937.25,29.742866833333334,36.16,87.8416666624,15.816197916666667,64.23017158276225
1373817937.5,29.784261875,36.16,87.85,18.244817708333333,64.2347120015559
1373817937.75,29.820058666666664,36.16,87.8583333376,19.261093749999997,64.23925242034956
1373817938.0,29.848282875,36.16,87.86666666666667,20.995390625,64.24379283914323
1373817938.25,29.870801875,36.16,87.8833333248,21.387630208333334,64.24833325793689
1373817938.5,29.890760041666667,36.16,87.9,22.12364583333333,64.25287367673054
1373817938.75,29.90991791666666,36.16083333333333,87.9166666752,22.510182291666666,64.2574140955242
1373817939.0,29.926461458333332,36.1625,87.93333333333334,21.100286458333333,64.26195451431788
1373817939.25,29.94140833333333,36.16416666666667,87.95499998890666,20.904296875,64.26479227606391
1373817939.5,29.95454116666666,36.16583333333333,87.97666666666666,19.50963541666667,64.26507605223851
1373817939.75,29.966606916666667,36.166666666666664,87.99833334442667,16.863098958333335,64.26507605223851
1373817940.0,29.978032416666665,36.166666666666664,88.02,15.935260416666667,64.26507605223851
1373817940.25,29.988177458333336,36.166666666666664,88.04666665301333,13.1709375,64.26507605223851
1373817940.5,29.996561875,36.166666666666664,88.07333333333332,11.275729166666666,64.26507605223851
1373817940.75,30.00638291666667,36.1675,88.10000001365333,10.400651041666666,64.26507605223851
1373817941.0,30.017591125,36.16916666666667,88.12666666666667,8.202317708333334,64.26507605223851
1373817941.25,30.0292795,36.170833333333334,88.14666665642666,7.35203125,64.26507605223851
1373817941.5,30.043742208333338,36.17249999999999,88.16666666666666,5.792265625,64.26507605223851
1373817941.75,30.067968666666662,36.17333333333333,88.18666667690667,4.568411458333333,64.26507605223851
1373817942.0,30.100229958333333,36.17333333333333,88.20666666666666,4.8449479166666665,64.26507605223851
1373817942.25,30.130726624999998,36.17333333333333,88.22249999189333,4.079479166666666,64.26195451431786
1373817942.5,30.16122329166667,36.17333333333333,88.23833333333333,4.785859375,64.25741409552421
1373817942.75,30.191719958333334,36.174166666666665,88.25416667477333,5.515390624999999,64.25287367673054
1373817943.0,30.223817208333333,36.17583333333334,88.27,6.037161458333333,64.2491845864607
1373817943.25,30.25717345833333,36.1775,88.28083332778667,7.466197916666666,64.2480494817623
1373817943.5,30.28935595833333,36.17916666666667,88.29166666666666,8.25078125,64.24804948176228
1373817943.75,30.319244249999997,36.17916666666667,88.30250000554665,8.740911458333333,64.2480494817623
1373817944.0,30.347745375,36.1775,88.31333333333332,9.254192708333333,64.25047788147145
1373817944.25,30.37576633333333,36.17583333333333,88.32249999530666,9.943489583333333,64.25694778347888
1373817944.5,30.400959541666666,36.174166666666665,88.33166666666665,10.958072916666666,64.29328632086096
1373817944.75,30.41734941666667,36.1725,88.34083333802664,11.697760416666668,64.33204742740183
1373817945.0,30.427678500000003,36.170833333333334,88.34999999999998,12.278723958333332,64.37080853394272
1373817945.25,30.440621833333335,36.16916666666666,88.35666666325332,12.763489583333332,64.41269117840424
1373817945.5,30.455059083333335,36.1675,88.36333333333332,12.900078124999999,64.45599270373877
1373817945.75,30.472164083333336,36.166666666666664,88.37000000341332,13.213333333333331,64.4992942290733
1373817946.0,30.491990166666668,36.166666666666664,88.37666666666667,13.208385416666667,64.54174442588403
1373817946.25,30.513918500000003,36.166666666666664,88.38499999573334,13.217317708333333,64.58164063712333
1373817946.5,30.53760741666667,36.166666666666664,88.39333333333335,13.163593749999999,64.6204017436642
1373817946.75,30.565031083333338,36.1675,88.40166667093334,13.774869791666667,64.65109028080813
1373817947.0,30.595602666666668,36.16916666666666,88.41000000000001,14.127526041666664,64.64667544787675
1373817947.25,30.629482125,36.170833333333334,88.41999999488002,14.494609374999998,64.63566512707564
1373817947.5,30.667523083333336,36.1725,88.43,15.12140625,64.59478617089991
1373817947.75,30.70577745833333,36.17416666666667,88.44000000512,15.203229166666667,64.55148464556537
1373817948.0,30.74323158333333,36.17583333333333,88.45,15.947109374999998,64.50818312023084
1373817948.25,30.779778750000002,36.1775,88.46416665941334,15.782708333333334,64.46488159489628
1373817948.5,30.816219125000003,36.17916666666667,88.47833333333332,15.90296875,64.42158006956176
1373817948.75,30.850471958333333,36.17916666666667,88.49250000725333,16.362578125000002,64.37827854422723
1373817949.0,30.880936708333337,36.1775,88.50666666666666,15.842473958333331,64.33497701889269
1373817949.25,30.908893875,36.17583333333334,88.52166665898666,16.444453125,64.29167549355815
1373817949.5,30.934076708333333,36.174166666666665,88.53666666666666,16.786171874999997,64.2483739682236
1373817949.75,30.955844916666663,36.1725,88.55166667434666,16.208333333333332,64.21314501228602
1373817950.0,30.974571958333332,36.17083333333333,88.56666666666666,16.942057291666668,64.21059102671458
1373817950.25,30.990204500000004,36.16916666666666,88.58083332608,16.321692708333334,64.21059102671458
1373817950.5,31.002209041666664,36.1675,88.595,15.623776041666666,64.21059102671458
1373817950.75,31.013925791666665,36.16583333333333,88.60916667392,15.784348958333332,64.2120099075876
1373817951.0,31.02690195833333,36.16416666666667,88.62333333333333,14.573984375000002,64.21655032638127
1373817951.25,31.038704416666672,36.1625,88.63416666112,15.307916666666666,64.22080696900032
1373817951.5,31.049546583333335,36.16083333333333,88.64500000000001,15.338255208333335,64.22534738779397
1373817951.75,31.060282,36.15958333333333,88.65583333888,14.604609374999997,64.22960403041303
1373817952.0,31.070803958333332,36.15875,88.66666666666667,15.588255208333335,64.2341444492067
1373817952.25,31.08073904166667,36.157916666666665,88.67249999701335,14.424401041666664,64.23868486800036
1373817952.5,31.090674124999996,36.15708333333333,88.67833333333334,13.760703125000001,64.24322528679402
1373817952.75,31.101516208333337,36.15624999999999,88.68416666965334,14.157317708333332,64.24776570558768
1373817953.0,31.113585333333333,36.15541666666667,88.69000000000001,12.65171875,64.25230612438133
1373817953.25,31.12794870833333,36.15458333333333,88.69249999872001,13.011588541666667,64.256846543175
1373817953.5,31.144499666666665,36.15375,88.69500000000001,13.218489583333335,64.26138696196867
1373817953.75,31.159417708333333,36.15291666666666,88.69750000128,12.398046874999999,64.26394094754009
1373817954.0,31.171795791666668,36.15208333333333,88.7,13.482057291666665,64.26809987872284
1373817954.25,31.185774374999998,36.15125,88.69583333546667,12.749583333333334,64.26441078845299
1373817954.5,31.202847416666668,36.150416666666665,88.69166666666666,12.694322916666666,64.25987036965934
1373817954.75,31.221681166666666,36.15,88.68749999786667,13.784348958333334,64.25561372704027
1373817955.0,31.241635374999998,36.15,88.68333333333334,13.191458333333332,64.2510733082466
1373817955.25,31.26303008333333,36.15,88.67500000426666,14.540052083333334,64.24653288945295
1373817955.5,31.284478125000003,36.15,88.66666666666666,15.321770833333332,64.2419924706593
1373817955.75,31.304752374999996,36.150416666666665,88.65833332906666,15.078776041666666,64.23745205186562
1373817956.0,31.323959625,36.15125,88.64999999999999,16.77125,64.23291163307196
1373817956.25,31.341032791666667,36.15208333333333,88.63750000639999,16.78950520833333,64.22837121427831
1373817956.5,31.355811708333334,36.15291666666666,88.625,17.164166666666667,64.22383079548464
1373817956.75,31.370857291666667,36.153749999999995,88.61249999360001,18.423828125,64.21985792904019
1373817957.0,31.38825045833333,36.154583333333335,88.60000000000001,17.85052083333333,64.21115857906379
1373817957.25,31.405110124999997,36.15541666666666,88.58916667221334,18.942421874999997,64.21059102671458
1373817957.5,31.4211695,36.15625,88.57833333333333,19.200364583333332,64.21059102671458
1373817957.75,31.438029166666666,36.15708333333333,88.56749999445333,18.555885416666666,64.21059102671458
1373817958.0,31.454088458333334,36.157916666666665,88.55666666666666,18.924244791666666,64.21059102671458
1373817958.25,31.469560875,36.15875,88.54666667178665,17.511979166666666,64.21059102671458
1373817958.5,31.486839083333333,36.15958333333333,88.53666666666666,17.428307291666666,64.21059102671458
1373817958.75,31.506029791666666,36.16,88.52666666154667,17.23106770833333,64.21059102671458
1373817959.0,31.52596745833333,36.16,88.51666666666667,15.802708333333333,64.21059102671458
1373817959.25,31.546491958333334,36.16,88.51083333632,15.475026041666668,64.21059102671458
1373817959.5,31.566749666666666,36.16,88.505,13.849244791666665,64.2122936837622
1373817959.75,31.58572691666667,36.16,88.49916666368,12.51890625,64.22314121602354
1373817960.0,31.602356583333332,36.16,88.49333333333334,11.909765625,64.24968056543122
1373817960.25,31.617759208333336,36.16,88.49000000170668,9.674713541666668,64.27621991483889
1373817960.5,31.630654249999996,36.16,88.48666666666668,8.751015624999999,64.30275926424657
1373817960.75,31.641041583333333,36.16,88.48333333162667,7.608437500000001,64.32929861365425
1373817961.0,31.650788708333334,36.16,88.48,6.444296875,64.35583796306193
1373817961.25,31.659788833333334,36.16,88.48166666581334,6.856744791666667,64.38338592210046
1373817961.5,31.666876541666667,36.16,88.48333333333335,5.716927083333334,64.41113560306518
1373817961.75,31.673972541666668,36.16,88.48500000085335,5.592890625,64.43868356210372
1373817962.0,31.682562375000003,36.16,88.48666666666668,5.926223958333332,64.46623152114225
1373817962.25,31.692059208333333,36.16,88.49416666282667,5.5277343750000005,64.49458636788547
1373817962.5,31.70305,36.16,88.50166666666667,6.774062499999999,64.52265061106428
1373817962.75,31.71505458333333,36.15958333333333,88.50916667050666,7.283541666666667,64.54156997902938
1373817963.0,31.729513458333333,36.15875,88.51666666666665,7.834401041666666,64.54479752984811
1373817963.25,31.75240229166667,36.157916666666665,88.53249999189332,9.798229166666667,64.54802508066687
1373817963.5,31.775077708333338,36.15708333333333,88.54833333333332,10.553932291666667,64.55125263148561
1373817963.75,31.797326375,36.15625,88.56416667477333,12.849088541666667,64.55448018230437
1373817964.0,31.819575041666667,36.15541666666667,88.58,14.780598958333334,64.55770773312311
1373817964.25,31.841450291666664,36.15458333333333,88.60249998848,15.132864583333335,64.559926674311
1373817964.5,31.862578541666664,36.153749999999995,88.625,16.945260416666667,64.56194389357272
1373817964.75,31.879652125000003,36.15291666666666,88.64750001152,17.366119791666666,64.56416283476061
1373817965.0,31.87709175,36.15208333333333,88.67,17.773229166666667,64.5663817759485
1373817965.25,31.85948575,36.15125,88.69749998592,19.391770833333336,64.56581373048981
1373817965.5,31.83104866666667,36.150416666666665,88.72500000000001,19.220234375,64.5620552545322
1373817965.75,31.793167666666665,36.15,88.75250001408001,19.75768229166667,64.5620552545322
1373817966.0,31.746856833333336,36.15,88.78000000000002,20.165338541666667,64.5620552545322
1373817966.25,31.690408708333333,36.15,88.81333331626668,18.90578125,64.55574863417401
1373817966.5,31.632733416666664,36.15,88.84666666666668,18.753593749999997,64.53052215274124
1373817966.75,31.574577875,36.15,88.88000001706668,16.632942708333335,64.50529567130847
1373817967.0,31.515675375,36.15,88.91333333333334,14.776874999999999,64.4800691898757
1373817967.25,31.456239375,36.15,88.95333331285335,14.670755208333333,64.45484270844294
1373817967.5,31.396750041666667,36.15,88.99333333333334,12.860598958333332,64.42961622701019
1373817967.75,31.338914416666665,36.149166666666666,89.03333335381333,12.885755208333334,64.4043897455774
1373817968.0,31.298205166666666,36.1475,89.07333333333334,12.286901041666667,64.37916326414465
1373817968.25,31.270674166666666,36.145833333333336,89.1191666432,10.105,64.35591688165378
1373817968.5,31.253280583333332,36.14416666666667,89.16499999999999,10.002265625,64.33444887617863
1373817968.75,31.244744,36.142500000000005,89.2108333568,8.67,64.30922239474586
1373817969.0,31.242716458333334,36.14083333333333,89.25666666666666,7.421171875,64.28399591331309
1373817969.25,31.241702625,36.13916666666667,89.30249997653333,8.249088541666667,64.26507605223851
1373817969.5,31.24212941666667,36.137499999999996,89.34833333333333,7.302864583333332,64.26507605223851
1373817969.75,31.243036458333336,36.13666666666666,89.39416669013333,8.415078124999999,64.26507605223851
1373817970.0,31.244690458333334,36.13666666666667,89.44,9.69921875,64.26507605223851
1373817970.25,31.246877958333332,36.13666666666666,89.48583330986666,8.893177083333333,64.26507605223851
1373817970.5,31.249118791666664,36.13666666666667,89.53166666666667,10.4546875,64.26507605223851
1373817970.75,31.25178645833334,36.1375,89.57750002346667,10.320052083333332,64.26507605223851
1373817971.0,31.253928875,36.13916666666666,89.62333333333333,11.269140624999999,64.26507605223851
1373817971.25,31.256071291666668,36.14083333333333,89.66499997866667,13.804791666666667,64.26507605223851
1373817971.5,31.257253375,36.1425,89.70666666666668,14.294713541666667,64.26653406002245
1373817971.75,31.25763516666667,36.14416666666667,89.74833335466667,16.595963541666666,64.2720015892122
1373817972.0,31.256309708333333,36.145833333333336,89.79,18.709921875,64.28829414544286
1373817972.25,31.253818750000004,36.1475,89.82833331370668,18.962578125,64.31759237278372
1373817972.5,31.250260666666666,36.149166666666666,89.86666666666667,21.187578124999998,64.34733417556501
1373817972.75,31.24670258333333,36.149166666666666,89.90500001962667,21.374609375000002,64.37707597834631
1373817973.0,31.2431445,36.1475,89.94333333333334,21.312057291666665,64.4068177811276
1373817973.25,31.24017325,36.145833333333336,89.97833331541334,23.213984375,64.4365595839089
1373817973.5,31.238055666666668,36.14416666666666,90.01333333333334,22.588880208333336,64.46630138669019
1373817973.75,31.237005166666663,36.14333333333334,90.04833335125333,22.916796875,64.49604318947148
1373817974.0,31.236853416666666,36.14333333333334,90.08333333333333,22.782890624999997,64.52578499225278
1373817974.25,31.236701666666665,36.14333333333333,90.11666664959999,21.394296875,64.55552679503408
1373817974.5,31.23654991666667,36.14333333333334,90.14999999999999,21.547838541666664,64.55890826157933
1373817974.75,31.236398166666664,36.14333333333334,90.18333335039999,20.1521875,64.54788611416016
1373817975.0,31.241581791666665,36.14333333333333,90.21666666666665,18.854088541666666,64.52056013518428
1373817975.25,31.248251,36.14333333333334,90.24916665002665,18.623541666666668,64.4802284850982
1373817975.5,31.255773875,36.14333333333333,90.28166666666665,17.028723958333334,64.43945325957168
1373817975.75,31.26329675,36.14416666666667,90.31416668330665,16.783281249999998,64.39867803404516
1373817976.0,31.270819625,36.145833333333336,90.34666666666665,16.402213541666665,64.35790280851865
1373817976.25,31.277755666666664,36.1475,90.37583331839998,14.780807291666667,64.31712758299213
1373817976.5,31.282397458333335,36.149166666666666,90.40499999999999,14.808333333333335,64.27635235746563
1373817976.75,31.276475250000004,36.15,90.43416668159999,13.995937499999998,64.23557713193911
1373817977.0,31.262816791666665,36.15,90.46333333333332,13.165859375000002,64.1948019064126
1373817977.25,31.24505004166667,36.15,90.49499998378666,13.303072916666666,64.15402668088608
1373817977.5,31.22504245833333,36.15,90.52666666666666,11.702916666666667,64.13815378381166
1373817977.75,31.203220916666666,36.15,90.55833334954666,11.664375000000001,64.13267497929586
1373817978.0,31.174996958333335,36.15,90.58999999999999,11.888489583333333,64.13267497929586
1373817978.25,31.145599166666667,36.15,90.62583331498666,10.98328125,64.13887596723512
1373817978.5,31.116201375,36.15,90.66166666666666,11.990833333333335,64.17965119276164
1373817978.75,31.086750166666672,36.15,90.69750001834666,11.788802083333335,64.22042641828817
1373817979.0,31.056872166666665,36.15,90.73333333333333,11.818203125000002,64.26120164381469
1373817979.25,31.026834125000004,36.15,90.77499997866667,13.303307291666668,64.30197686934119
1373817979.5,30.99780983333333,36.15,90.81666666666666,13.111614583333333,64.3427520948677
1373817979.75,30.97780220833333,36.15,90.85833335466666,14.538411458333334,64.38352732039422
1373817980.0,30.964837208333336,36.15,90.89999999999999,15.919713541666667,64.42430254592074
1373817980.25,30.9559805,36.15,90.94166664533333,15.824505208333333,64.46507777144724
1373817980.5,30.949364625,36.15,90.98333333333332,18.224453125,64.50585299697377
1373817980.75,30.944562708333333,36.15,91.02500002133333,18.875651041666668,64.54662822250029
1373817981.0,30.941468083333334,36.15,91.06666666666666,18.835130208333332,64.5874034480268
1373817981.25,30.937519874999996,36.15,91.108333312,20.984739583333333,64.62197768561404
1373817981.5,30.93357166666667,36.15,91.15,21.617109375000002,64.62197768561404
1373817981.75,30.929676875,36.15,91.19166668800001,23.045390625,64.62197768561404
1373817982.0,30.926208875,36.15,91.23333333333335,23.905130208333333,64.62197768561404
1373817982.25,30.922900916666663,36.15,91.26499998378668,22.19966145833334,64.62076836949704
1373817982.5,30.92001979166667,36.15,91.29666666666668,22.546432291666665,64.61443738145121
1373817982.75,30.91772566666667,36.15,91.32833334954668,22.142890625000003,64.60669450928393
1373817983.0,30.918259333333328,36.15,91.36000000000001,20.77015625,64.6003635212381
1373817983.25,30.920446875,36.15,91.38249998848,20.366197916666668,64.59685630143515
1373817983.5,30.924235,36.15,91.405,17.573020833333334,64.59363145845649
1373817983.75,30.928503333333335,36.15,91.42750001152001,15.567526041666667,64.59040661547782
1373817984.0,30.932824999999998,36.15,91.45,14.594088541666666,64.58718177249916
1373817984.25,30.939174083333338,36.15,91.46083332778667,11.132343749999999,64.58395692952051
1373817984.5,30.944989583333335,36.15,91.47166666666666,7.5571093750000005,64.58073208654184
1373817984.75,30.950271583333333,36.15,91.48250000554667,3.9216145833333336,64.57750724356318
1373817985.0,30.955073416666668,36.15,91.49333333333334,1.2567447916666667,64.57428240058451
1373817985.25,30.958861541666668,36.15,91.50583332693334,1.4036979166666665,64.57226687372285
1373817985.5,30.96168933333333,36.15,91.51833333333335,0.20770833333333347,64.57537301879002
1373817985.75,30.964410375,36.15,91.53083333973333,-1.6692187499999998,64.57989104797865
1373817986.0,30.964196916666666,36.15,91.54333333333334,-1.6168489583333334,64.58299719304581
1373817986.25,30.962329583333332,36.15,91.55749999274667,-1.5091666666666665,64.5832795698701
1373817986.5,30.958861666666667,36.15,91.57166666666667,0.9803645833333334,64.5832795698701
1373817986.75,30.954860208333333,36.15,91.58583334058667,3.578333333333333,64.5832795698701
1373817987.0,30.950858750000005,36.15,91.60000000000001,4.806354166666667,64.58799364543172
1373817987.25,30.946857291666664,36.15,91.61249999360001,8.264479166666666,64.59637422420796
1373817987.5,30.943389416666665,36.15,91.625,11.077656249999999,64.6047548029842
1373817987.75,30.940455041666667,36.15,91.63750000639999,13.696536458333334,64.61313538176044
1373817988.0,30.938641083333334,36.15,91.64999999999999,16.475494791666666,64.62151596053667
1373817988.25,30.938694458333334,36.15,91.65666666325333,16.861406249999998,64.6298965393129
1373817988.5,30.943496208333332,36.15,91.66333333333333,18.198802083333334,64.63827711808914
1373817988.75,30.954860416666666,36.15,91.67000000341334,20.056302083333332,64.64665769686538
1373817989.0,30.970066125,36.15,91.67666666666668,19.985989583333332,64.6550382756416
1373817989.25,30.986605708333332,36.15,91.67500000085334,20.895729166666666,64.66341885441783
1373817989.5,31.00549283333333,36.15,91.67333333333335,20.190104166666668,64.67179943319407
1373817989.75,31.026407333333335,36.15,91.67166666581333,19.037552083333335,64.68018001197031
1373817990.0,31.048282166666667,36.15,91.67,19.52328125,64.68384651518491
1373817990.25,31.070850625000002,36.15,91.66166667093333,18.02625,64.68384651518491
1373817990.5,31.09341908333333,36.15,91.65333333333334,18.135156249999998,64.68384651518491
1373817990.75,31.11598754166667,36.15,91.64499999573334,18.650911458333333,64.68384651518491
1373817991.0,31.136955416666666,36.15,91.63666666666667,17.95611979166667,64.68384651518491
1373817991.25,31.155941,36.15,91.62416667306667,19.475520833333334,64.68384651518491
1373817991.5,31.171138541666668,36.15,91.61166666666666,19.734270833333333,64.68384651518491
1373817991.75,31.179773625,36.15,91.59916666026666,19.794765625,64.68384651518491
1373817992.0,31.176662583333336,36.15,91.58666666666666,21.572916666666668,64.68384651518491
1373817992.25,31.159847916666664,36.15,91.57166667434666,21.13921875,64.68384651518491
1373817992.5,31.131197125,36.15,91.55666666666666,21.519010416666664,64.68384651518491
1373817992.75,31.09438329166667,36.15,91.54166665898666,22.43244791666667,64.68384651518491
1373817993.0,31.05447495833333,36.15,91.52666666666666,21.620755208333335,64.68384651518491
1373817993.25,31.013873,36.15,91.51583333888,22.979401041666666,64.68384651518491
1373817993.5,30.973271041666667,36.15,91.505,22.913697916666663,64.68384651518491
1373817993.75,30.932669083333334,36.15,91.49416666112,22.3246875,64.68384651518491
1373817994.0,30.893027458333332,36.15,91.48333333333335,23.31177083333333,64.68384651518491
1373817994.25,30.854514499999997,36.15,91.46666667520002,22.047291666666666,64.68384651518491
1373817994.5,30.817281999999995,36.15,91.45000000000002,22.57091145833333,64.68384651518491
1373817994.75,30.78079645833333,36.15,91.4333333248,23.076640624999996,64.68384651518491
1373817995.0,30.754669791666668,36.15,91.41666666666667,22.008281249999996,64.68384651518491
1373817995.25,30.742940333333333,36.15,91.39666667690666,23.388177083333332,64.68384651518491
1373817995.5,30.742193416666666,36.15,91.37666666666667,23.303385416666668,64.68384651518491
1373817995.75,30.74923608333333,36.150416666666665,91.35666665642667,22.774166666666662,64.68384651518491
1373817996.0,30.763001250000002,36.15125,91.33666666666666,24.089895833333333,64.68384651518491
1373817996.25,30.788397500000002,36.15208333333333,91.31166667946667,22.734088541666665,64.68384651518491
1373817996.5,30.823877624999998,36.15291666666666,91.28666666666666,22.962786458333337,64.68384651518491
1373817996.75,30.859357749999997,36.15333333333333,91.26166665386667,23.734505208333335,64.68384651518491
1373817997.0,30.894837875000004,36.15333333333333,91.23666666666668,22.391484375,64.68384651518491
1373817997.25,30.930318,36.15333333333333,91.21500001109335,23.719583333333336,64.6789718584733
1373817997.5,30.964517666666666,36.15333333333333,91.19333333333336,23.006953125,64.67188144871096
1373817997.75,30.997970374999998,36.15333333333333,91.17166665557335,22.352968750000002,64.66479103894862
1373817998.0,31.028275166666663,36.153333333333336,91.15000000000002,23.544427083333336,64.6577006291863
1373817998.25,31.050736875,36.15333333333333,91.12916667733334,21.958645833333335,64.65061021942395
1373817998.5,31.067969958333332,36.15333333333333,91.10833333333335,22.479739583333338,64.64928076759351
1373817998.75,31.08162845833333,36.15291666666666,91.08749998933334,22.973151041666668,64.64928076759351
1373817999.0,31.090698624999998,36.15208333333333,91.06666666666666,21.350703125,64.64928076759351
1373817999.25,31.088137708333335,36.15125,91.04750000981333,22.58583333333333,64.64928076759351
1373817999.5,31.075492916666665,36.150416666666665,91.02833333333334,22.081692708333335,64.64928076759351
1373817999.75,31.062848125,36.15,91.00916665685334,20.86072916666667,64.64928076759351
1373818000.0,31.05020333333333,36.15,90.99000000000001,22.144296875,64.64928076759351
1373818000.25,31.038625624999998,36.15,90.97166667605335,20.679010416666667,64.65415542430512
1373818000.5,31.028861875,36.15,90.95333333333335,20.841666666666665,64.66124583406746
1373818000.75,31.020538624999997,36.15,90.93499999061333,21.688984375,64.66833624382978
1373818001.0,31.014883166666664,36.15,90.91666666666667,20.159869791666665,64.67542665359214
1373818001.25,31.017177500000003,36.15,90.90166667434667,21.568697916666668,64.68251706335447
1373818001.5,31.02656779166667,36.15,90.88666666666667,21.311744791666666,64.68384651518491
1373818001.75,31.042413749999998,36.15,90.87166665898667,20.980963541666668,64.68384651518491
1373818002.0,31.061567583333332,36.15,90.85666666666667,22.9596875,64.68384651518491
1373818002.25,31.083655833333335,36.15,90.84250000725334,22.067265625,64.68384651518491
1373818002.5,31.108198374999997,36.15,90.82833333333333,22.647734375,64.68384651518491
1373818002.75,31.13647566666667,36.15,90.81416665941333,24.173697916666665,64.68384651518491
1373818003.0,31.171520541666666,36.15,90.8,22.766562500000003,64.68384651518491
1373818003.25,31.206130333333334,36.15,90.78583334058666,23.889010416666668,64.68384651518491
1373818003.5,31.23892616666667,36.15,90.77166666666668,24.151875000000004,64.68384651518491
1373818003.75,31.2702815,36.15,90.75749999274667,22.65247395833333,64.68384651518491
1373818004.0,31.30008954166667,36.15,90.74333333333334,24.132552083333334,64.68384651518491
1373818004.25,31.327763416666667,36.15,90.72833334101334,23.293281250000003,64.68384651518491
1373818004.5,31.352076,36.15,90.71333333333334,22.76828125,64.68384651518491
1373818004.75,31.367745333333335,36.15,90.69833332565334,23.734010416666667,64.68384651518491
1373818005.0,31.379253083333335,36.15,90.68333333333334,22.33018229166667,64.68384651518491
1373818005.25,31.387826416666666,36.15,90.6666666752,23.13953125,64.68384651518491
1373818005.5,31.393945458333338,36.15,90.65,23.694921875000002,64.68384651518491
1373818005.75,31.396329750000003,36.15,90.6333333248,22.51216145833334,64.68384651518491
1373818006.0,31.391946458333337,36.15,90.61666666666667,24.294505208333334,64.68384651518491
1373818006.25,31.386931166666667,36.15,90.59750000981334,24.036354166666666,64.68384651518491
1373818006.5,31.38292954166667,36.15,90.57833333333335,23.165963541666667,64.68384651518491
1373818006.75,31.38026179166667,36.15,90.55916665685334,24.644687500000003,64.68384651518491
1373818007.0,31.378501083333333,36.15,90.54,23.30296875,64.68384651518491
1373818007.25,31.377487333333335,36.15,90.5150000128,22.760208333333335,64.68384651518491
1373818007.5,31.377220541666663,36.15,90.49000000000001,23.499374999999997,64.68384651518491
1373818007.75,31.381862208333335,36.150416666666665,90.4649999872,21.584479166666668,64.68384651518491
1373818008.0,31.387784416666666,36.15125,90.44,21.734895833333336,64.68384651518491
1373818008.25,31.395360625000006,36.15208333333333,90.40833334954667,21.66979166666667,64.68384651518491
1373818008.5,31.405657833333333,36.15291666666666,90.37666666666667,19.874583333333334,64.68384651518491
1373818008.75,31.417715666666666,36.154583333333335,90.34499998378666,20.701067708333333,64.68384651518491
1373818009.0,31.431053958333333,36.15708333333333,90.31333333333333,19.710546875000002,64.68384651518491
1373818009.25,31.446473125,36.15958333333333,90.27750001834667,19.165078125,64.68384651518491
1373818009.5,31.462479291666668,36.162083333333335,90.24166666666667,20.833177083333332,64.68384651518491
1373818009.75,31.478111916666666,36.16458333333333,90.20583331498666,20.11268229166667,64.68384651518491
1373818010.0,31.493584416666668,36.16708333333333,90.17,20.973619791666668,64.68384651518491
1373818010.25,31.508470000000003,36.169583333333335,90.13333335210666,22.948671875000002,64.68384651518491
1373818010.5,31.52287541666667,36.17208333333333,90.09666666666666,22.409322916666667,64.68384651518491
1373818010.75,31.537120875,36.17416666666667,90.05999998122667,24.342109375000003,64.68384651518491
1373818011.0,31.551419666666664,36.17583333333333,90.02333333333333,25.71731770833333,64.68384651518491
1373818011.25,31.564704708333334,36.1775,89.99000001706666,25.189635416666665,64.68384651518491
1373818011.5,31.576069041666667,36.17916666666667,89.95666666666665,27.29796875,64.68384651518491
1373818011.75,31.586526375000002,36.17916666666667,89.92333331626665,27.67778645833333,64.68384651518491
1373818012.0,31.59687704166667,36.1775,89.88999999999999,27.62294270833333,64.68384651518491
1373818012.25,31.606534,36.17583333333334,89.86083334826665,29.0134375,64.68384651518491
1373818012.5,31.615550666666664,36.174166666666665,89.83166666666665,28.073489583333338,64.68384651518491
1373818012.75,31.624087208333336,36.17333333333333,89.80249998506666,28.23380208333333,64.68384651518491
1373818013.0,31.632570375,36.17333333333333,89.77333333333333,28.1965625,64.68384651518491
1373818013.25,31.641587041666668,36.17333333333333,89.74833334613332,25.63505208333333,64.68384651518491
1373818013.5,31.650710458333332,36.17333333333333,89.72333333333333,24.792161458333336,64.68384651518491
1373818013.75,31.659300375,36.17333333333333,89.69833332053334,23.339479166666667,64.68384651518491
1373818014.0,31.66821041666667,36.17333333333334,89.67333333333333,20.590234375,64.68384651518491
1373818014.25,31.677920708333332,36.17333333333333,89.65333334357332,19.821302083333332,64.68384651518491
1373818014.5,31.68688404166667,36.17333333333333,89.63333333333333,17.946067708333334,64.68384651518491
1373818014.75,31.696647708333334,36.174166666666665,89.61333332309333,15.606197916666668,64.68384651518491
1373818015.0,31.70635808333334,36.17583333333334,89.59333333333332,14.908177083333333,64.68384651518491
1373818015.25,31.715108083333334,36.1775,89.57750000810665,13.039010416666665,64.68384651518491
1373818015.5,31.723964708333337,36.17916666666667,89.56166666666665,11.489973958333335,64.68384651518491
1373818015.75,31.733354875,36.18,89.54583332522665,10.913645833333334,64.68384651518491
1373818016.0,31.7429585,36.18,89.52999999999999,10.042864583333333,64.68384651518491
1373818016.25,31.753149041666664,36.18,89.51666667349332,11.021770833333333,64.68384651518491
1373818016.5,31.76296604166667,36.18,89.50333333333333,12.674218750000001,64.68384651518491
1373818016.75,31.772729624999997,36.18,89.48999999317334,12.577656250000002,64.68384651518491
1373818017.0,31.781692916666668,36.18,89.47666666666667,14.01203125,64.68384651518491
1373818017.25,31.789215708333334,36.18,89.46166667434667,15.141197916666668,64.68384651518491
1373818017.5,31.796685166666666,36.18,89.44666666666667,14.736536458333333,64.68384651518491
1373818017.75,31.802554083333334,36.18,89.43166665898667,16.236067708333334,64.68384651518491
1373818018.0,31.807302499999995,36.18,89.41666666666667,16.886458333333334,64.68384651518491
1373818018.25,31.811410749999997,36.18,89.40000000853333,16.577604166666667,64.68384651518491
1373818018.5,31.814452,36.18,89.38333333333333,18.350598958333332,64.68384651518491
1373818018.75,31.8164795,36.18,89.36666665813333,18.684557291666668,64.68384651518491
1373818019.0,31.8176,36.18,89.34999999999998,18.673203124999997,64.68384651518491
1373818019.25,31.817440041666668,36.18,89.33416667477331,19.511796874999998,64.68384651518491
1373818019.5,31.817706875,36.18,89.31833333333333,18.457864583333333,64.68384651518491
1373818019.75,31.81818708333333,36.18,89.30249999189334,19.226614583333333,64.68384651518491
1373818020.0,31.818987374999995,36.18,89.28666666666668,20.142916666666668,64.68384651518491
1373818020.25,31.821334916666668,36.18,89.27000000853334,19.76471354166667,64.68384651518491
1373818020.5,31.825069666666664,36.18,89.25333333333334,21.965338541666668,64.68384651518491
1373818020.75,31.828911083333328,36.18,89.23666665813334,22.81041666666667,64.68384651518491
1373818021.0,31.832912583333336,36.18,89.22000000000001,22.712682291666667,64.68384651518491
1373818021.25,31.837500875,36.18,89.20250000896,24.868750000000002,64.68384651518491
1373818021.5,31.842836125,36.18,89.185,24.83453125,64.68384651518491
1373818021.75,31.850092166666666,36.18,89.16749999104,24.64846354166667,64.68384651518491
1373818022.0,31.859108833333334,36.18,89.14999999999999,26.10765625,64.68384651518491
1373818022.25,31.868712333333335,36.18,89.12916667733333,25.283749999999998,64.68384651518491
1373818022.5,31.878796083333338,36.18,89.10833333333332,25.33216145833333,64.68384651518491
1373818022.75,31.889253375,36.18,89.08749998933332,25.85341145833333,64.68384651518491
1373818023.0,31.900724458333332,36.18,89.06666666666666,24.576666666666668,64.68384651518491
1373818023.25,31.914489666666665,36.18,89.04750000981333,24.693463541666663,64.68384651518491
1373818023.5,31.93204291666667,36.18,89.02833333333334,23.995234375,64.68384651518491
1373818023.75,31.955412000000006,36.18,89.00916665685334,22.451901041666662,64.68384651518491
1373818024.0,31.980061833333334,36.18,88.99000000000001,23.004895833333332,64.68384651518491
1373818024.25,32.00433825,36.18,88.97166667605335,21.999869791666665,64.68384651518491
1373818024.5,32.02786770833333,36.18,88.95333333333335,20.769713541666665,64.68384651518491
1373818024.75,32.049476375000005,36.18,88.93499999061333,21.544140624999997,64.68384651518491
1373818025.0,32.06932441666667,36.18,88.91666666666667,20.313932291666667,64.68384651518491
1373818025.25,32.088585625,36.18,88.90166667434667,19.763776041666667,64.68384651518491
1373818025.5,32.10288491666667,36.18,88.88666666666667,20.500807291666664,64.68384651518491
1373818025.75,32.11318266666667,36.18,88.87166665898667,19.09546875,64.68384651518491
1373818026.0,32.11921208333334,36.18,88.85666666666667,19.127734375,64.68384651518491
1373818026.25,32.11846566666667,36.18,88.84083334144,19.608046875,64.68384651518491
1373818026.5,32.10880933333333,36.18,88.825,18.34234375,64.68384651518491
1373818026.75,32.090456125,36.18,88.80916665856,19.152421874999998,64.68384651518491
1373818027.0,32.069915125,36.18,88.79333333333334,19.08200520833333,64.68384651518491
1373818027.25,32.048467083333335,36.18,88.77833334101334,18.450364583333332,64.68384651518491
1373818027.5,32.02605866666667,36.18,88.76333333333335,20.105651041666665,64.68384651518491
1373818027.75,32.00290329166667,36.18125,88.74833332565335,19.67296875,64.68384651518491
1373818028.0,31.979481124999996,36.183749999999996,88.73333333333335,19.80755208333333,64.68384651518491
1373818028.25,31.955525458333337,36.18625,88.71666667520002,21.438671874999997,64.68384651518491
1373818028.5,31.935624666666666,36.18875,88.70000000000002,20.550703125000002,64.68384651518491
1373818028.75,31.919138500000003,36.19,88.6833333248,21.326510416666668,64.68384651518491
1373818029.0,31.905586791666664,36.190000000000005,88.66666666666667,22.375989583333336,64.68384651518491
1373818029.25,31.894969541666665,36.190000000000005,88.65000000853333,21.0975,64.68384651518491
1373818029.5,31.888086958333332,36.190000000000005,88.63333333333333,22.184192708333338,64.68384651518491
1373818029.75,31.885846041666667,36.191250000000004,88.61666665813333,22.477057291666668,64.68384651518491
1373818030.0,31.895396375,36.19375,88.59999999999998,21.40096354166667,64.68384651518491
1373818030.25,31.909321708333334,36.19625,88.58416667477331,22.613541666666666,64.68384651518491
1373818030.5,31.92420741666666,36.19875,88.56833333333333,21.876041666666666,64.68384651518491
1373818030.75,31.939840083333326,36.199999999999996,88.55249999189334,21.591432291666667,64.68384651518491
1373818031.0,31.955739541666663,36.2,88.53666666666668,22.589765625000002,64.68384651518491
1373818031.25,31.97249258333333,36.199999999999996,88.52250000725334,21.107265625,64.68384651518491
1373818031.5,31.994687791666664,36.199999999999996,88.50833333333334,21.771796875000003,64.68163076213418
1373818031.75,32.01112070833333,36.20125,88.49416665941334,21.890911458333335,64.67675610542257
1373818032.0,32.021791375,36.20375,88.48,20.399713541666667,64.66966569566023
1373818032.25,32.03080816666667,36.206250000000004,88.4675000064,21.654088541666667,64.66257528589789
1373818032.5,32.038277666666666,36.20875,88.45500000000001,21.398515624999998,64.65548487613556
1373818032.75,32.042012375,36.21,88.44249999360001,19.440182291666666,64.65181911557286
1373818033.0,32.02835379166667,36.21,88.43,18.556119791666667,64.64867697212455
1373818033.25,32.00493158333333,36.21,88.41916667221334,15.89296875,64.6414646747894
1373818033.5,31.979588625,36.21,88.40833333333333,14.609270833333333,64.63405075228884
1373818033.75,31.954245666666665,36.21,88.39749999445333,14.285260416666667,64.63239965962511
1373818034.0,31.92415420833333,36.21,88.38666666666666,10.959427083333333,64.63111118810126
1373818034.25,31.887180166666667,36.21,88.37750000469332,9.990937500000001,64.6236972656007
1373818034.5,31.840068875,36.21,88.36833333333331,7.170859375,64.6242619259877
1373818034.75,31.793490958333336,36.21,88.35916666197332,3.864192708333333,64.6242218997764
1373818035.0,31.746219208333333,36.21,88.34999999999998,3.1922656249999997,64.62639762661586
1373818035.25,31.69649316666667,36.21,88.34333333674665,-0.2751822916666667,64.63147432257455
1373818035.5,31.6466605,36.21,88.33666666666664,-2.462135416666667,64.63727626081305
1373818035.75,31.598490124999998,36.21,88.32999999658665,-1.5597916666666667,64.63965354985193
1373818036.0,31.556668750000004,36.21,88.32333333333332,-0.42617187500000003,64.6415072217764
1373818036.25,31.521143041666665,36.21,88.31750000298666,0.9722135416666666,64.65933678919214
1373818036.5,31.487538083333334,36.21,88.31166666666667,1.00984375,64.67833312564125
1373818036.75,31.455213625,36.21,88.30583333034666,-0.16994791666666675,64.69156663225353
1373818037.0,31.428162875,36.21,88.3,1.5621875,64.7044375177259
1373818037.25,31.418406958333335,36.21,88.29583333546667,0.9785416666666666,64.7260842086122
1373818037.5,31.420922583333336,36.21,88.29166666666667,2.698020833333333,64.74124570396836
1373818037.75,31.428667125,36.21,88.28749999786668,6.12109375,64.76007228681084
1373818038.0,31.44286775,36.21,88.28333333333335,7.164244791666667,64.78114695356307
1373818038.25,31.463523874999996,36.21,88.2791666688,10.859453125000002,64.79819667364059
1373818038.5,31.4893555,36.21,88.275,14.038567708333332,64.81496273397688
1373818038.75,31.519385416666665,36.21,88.27083333120001,14.135390625,64.83818636910625
1373818039.0,31.54941533333333,36.21,88.26666666666667,13.319713541666665,64.8635758364162
1373818039.25,31.574963625,36.21,88.26250000213334,12.161458333333334,64.86963981756642
1373818039.5,31.594643,36.21,88.25833333333333,11.479583333333332,64.87381594745077
1373818039.75,31.610107416666665,36.21083333333333,88.25416666453333,11.785234375000002,64.88036008861945
1373818040.0,31.623552458333332,36.2125,88.25,10.603463541666667,64.8864623044981
1373818040.25,31.62514475,36.214166666666664,88.24583333546667,12.39583333333333,64.89492812940766
1373818040.5,31.616919791666664,36.215833333333336,88.24166666666667,12.565572916666666,64.90519914071011
1373818040.75,31.605173458333336,36.218333333333334,88.23749999786668,10.272890624999999,64.91506865478537
1373818041.0,31.588305166666668,36.22166666666667,88.23333333333335,9.206536458333334,64.92269008495089
1373818041.25,31.56578166666667,36.225,88.22916666880002,6.2578385416666675,64.93107455243867
1373818041.5,31.539736583333337,36.22833333333333,88.22500000000002,2.762473958333333,64.9386564971547
1373818041.75,31.509645000000003,36.23166666666667,88.22083333120001,1.1572916666666668,64.93689295938583
1373818042.0,31.479553416666672,36.235,88.21666666666668,0.14132812500000005,64.93079717638459
1373818042.25,31.45394345833333,36.23833333333334,88.21416666794667,0.95609375,64.9313992574723
1373818042.5,31.43420241666667,36.24166666666667,88.21166666666667,1.8116145833333335,64.9365346057688
1373818042.75,31.417395833333334,36.244166666666665,88.20916666538668,1.8704427083333333,64.94182852441322
1373818043.0,31.402563583333336,36.24583333333333,88.20666666666666,3.3269791666666664,64.94756436834771
1373818043.25,31.389225208333333,36.2475,88.20666666666666,2.3618229166666667,64.94864718904726
1373818043.5,31.378607833333334,36.24916666666667,88.20666666666666,1.8795833333333334,64.94864718904726
1373818043.75,31.371938666666665,36.25,88.20666666666666,3.133125,64.94720342811453
1373818044.0,31.370978333333337,36.25,88.20666666666666,3.0701302083333335,64.94720342811452
1373818044.25,31.374286208333334,36.25,88.20916666538668,5.240755208333334,64.94756436834771
1373818044.5,31.381008708333336,36.25,88.21166666666667,7.585338541666668,64.94828624881409
1373818044.75,31.391465958333338,36.25,88.21416666794667,8.78140625,64.95189603697226
1373818045.0,31.40528445833333,36.25,88.21666666666668,11.638541666666669,64.95767223818224
1373818045.25,31.422357541666667,36.25,88.22249999701334,12.076093749999998,64.96417031985857
1373818045.5,31.442205,36.25,88.22833333333335,13.287057291666665,64.96705784172404
1373818045.75,31.46242591666667,36.25083333333333,88.23416666965335,15.939114583333335,64.96741878195722
1373818046.0,31.48216666666666,36.2525,88.24000000000001,16.153411458333334,64.96272385814144
1373818046.25,31.50153395833333,36.25416666666667,88.24499999744,18.515677083333333,64.9511675974581
1373818046.5,31.52218175,36.255833333333335,88.25,20.13713541666667,64.93961133677475
1373818046.75,31.542616125,36.2575,88.25500000256,20.649583333333336,64.9245923575895
1373818047.0,31.563690749999996,36.259166666666665,88.25999999999999,22.295260416666665,64.89424337365357
1373818047.25,31.58609925,36.26083333333333,88.26583333034665,20.595234375,64.8607909025126
1373818047.5,31.605146458333333,36.262499999999996,88.27166666666665,17.71697916666667,64.82733843137166
1373818047.75,31.622486374999998,36.26416666666667,88.27750000298666,15.626380208333332,64.7938859602307
1373818048.0,31.637692166666668,36.26583333333333,88.28333333333332,12.148333333333333,64.76043348908975
1373818048.25,31.652844625000004,36.267500000000005,88.28749999786666,11.447317708333335,64.7269810179488
1373818048.5,31.671144833333333,36.26916666666667,88.29166666666666,10.839791666666668,64.69352854680784
1373818048.75,31.693980083333333,36.27,88.29583333546665,8.412708333333333,64.66007607566688
1373818049.0,31.72033670833333,36.27,88.3,8.618255208333332,64.6316794685749
1373818049.25,31.749894583333333,36.27,88.30333333162666,7.397916666666667,64.6097832581173
1373818049.5,31.780359416666666,36.27,88.30666666666667,6.036536458333334,64.58788704765969
1373818049.75,31.811197625000002,36.27,88.31000000170667,6.973619791666667,64.57089731663672
1373818050.0,31.84187579166667,36.27,88.31333333333333,8.367760416666666,64.56779382943171
1373818050.25,31.871220125000004,36.27,88.31499999914666,12.273697916666665,64.56779382943171
1373818050.5,31.900991291666667,36.27,88.31666666666666,18.434140625,64.56779382943171
1373818050.75,31.929375208333337,36.27,88.31833333418666,24.244921875,64.56779382943171
1373818051.0,31.956852125,36.27,88.32,29.274296875,64.56779382943171
1373818051.25,31.981234625,36.27,88.31666666837333,31.759088541666667,64.56779382943171
1373818051.5,32.00070875,36.27,88.31333333333333,32.19166666666666,64.56779382943171
1373818051.75,32.01660808333334,36.27,88.30999999829332,33.869843749999994,64.56779382943171
1373818052.0,32.033041250000004,36.27,88.30666666666666,34.085078125,64.56779382943171
1373818052.25,32.05016829166667,36.27,88.30083333631998,33.54466145833333,64.56779382943171
1373818052.5,32.06606816666667,36.27,88.29499999999999,34.81036458333333,64.56779382943171
1373818052.75,32.08660991666667,36.27,88.28916666367999,33.46177083333333,64.56779382943171
1373818053.0,32.11611504166667,36.27,88.28333333333332,31.229661458333336,64.56779382943171
1373818053.25,32.15805145833333,36.27,88.27333333845333,28.839296875,64.56779382943171
1373818053.5,32.213874000000004,36.27,88.26333333333332,24.240911458333333,64.56779382943171
1373818053.75,32.2758465,36.27,88.25333332821333,20.921432291666665,64.56988947583729
1373818054.0,32.337498875,36.27,88.24333333333334,17.84859375,64.57670032665537
1373818054.25,32.39904441666666,36.27,88.23250000554667,15.143177083333335,64.58508291227764
1373818054.5,32.45957620833334,36.27,88.22166666666666,14.608489583333332,64.59346549789991
1373818054.75,32.518774291666666,36.270833333333336,88.21083332778667,12.511328125,64.60184808352219
1373818055.0,32.57391716666667,36.2725,88.2,11.120416666666669,64.61023066914446
1373818055.25,32.623457499999994,36.274166666666666,88.18916667221333,11.018177083333333,64.61861325476673
1373818055.5,32.66648870833333,36.27583333333333,88.17833333333334,8.850911458333334,64.626995840389
1373818055.75,32.69634158333333,36.2775,88.16749999445335,8.665755208333334,64.63537842601127
1373818056.0,32.70778754166667,36.27916666666667,88.15666666666668,8.541536458333335,64.64376101163354
1373818056.25,32.69991970833333,36.280833333333334,88.14666667178668,7.346354166666667,64.65214359725582
1373818056.5,32.677258833333326,36.282500000000006,88.13666666666668,8.496015625,64.66052618287809
1373818056.75,32.647807791666665,36.284166666666664,88.12666666154668,7.920286458333333,64.66681312209478
1373818057.0,32.61835675,36.285833333333336,88.11666666666667,8.241354166666666,64.66838485689897
1373818057.25,32.588905708333336,36.2875,88.11000000341333,9.880885416666667,64.66838485689897
1373818057.5,32.55945466666666,36.28916666666667,88.10333333333332,9.633359375,64.66838485689897
1373818057.75,32.530003625,36.28916666666667,88.09666666325333,12.030000000000001,64.66838485689897
1373818058.0,32.50225979166667,36.2875,88.08999999999999,13.844218749999998,64.66838485689897
1373818058.25,32.47659675,36.285833333333336,88.08583333546666,14.548151041666666,64.66838485689897
1373818058.5,32.45717616666666,36.28416666666667,88.08166666666665,17.558046875,64.66838485689897
1373818058.75,32.446825624999995,36.2825,88.07749999786665,18.19981770833333,64.66838485689897
1373818059.0,32.44522504166667,36.280833333333334,88.07333333333332,19.36705729166667,64.66838485689897
1373818059.25,32.45088045833334,36.27916666666667,88.07250000042666,21.809635416666666,64.66947193978855
1373818059.5,32.458029624999995,36.2775,88.07166666666666,21.72658854166667,64.67128374460454
1373818059.75,32.46587245833333,36.27583333333334,88.07083333290666,23.680572916666666,64.67128374460454
1373818060.0,32.47483570833333,36.274166666666666,88.07,25.020677083333336,64.67128374460454
1373818060.25,32.48475929166667,36.2725,88.07,24.526067708333333,64.67128374460454
1373818060.5,32.49617683333333,36.270833333333336,88.07,26.420182291666666,64.67128374460454
1373818060.75,32.50876820833333,36.270833333333336,88.07,25.54354166666667,64.67128374460454
1373818061.0,32.519972458333335,36.2725,88.07,25.19065104166667,64.67128374460454
1373818061.25,32.53197695833334,36.274166666666666,88.07,25.834244791666666,64.67128374460454
1373818061.5,32.5441415,36.27583333333333,88.07,23.938229166666662,64.67128374460454
1373818061.75,32.55571925,36.2775,88.07,24.674843749999997,64.67128374460454
1373818062.0,32.567190208333336,36.27916666666667,88.07,24.239505208333338,64.67128374460454
1373818062.25,32.57743395833333,36.280833333333334,88.07,22.636927083333333,64.67019666171494
1373818062.5,32.586717375,36.282500000000006,88.07,23.39393229166667,64.66838485689897
1373818062.75,32.595947375,36.285000000000004,88.07,21.663281249999997,64.66838485689897
1373818063.0,32.604697208333334,36.288333333333334,88.07,20.507604166666663,64.66838485689897
1373818063.25,32.61286020833333,36.291666666666664,88.07083333290666,20.571484375,64.66838485689897
1373818063.5,32.620169625,36.295,88.07166666666666,18.181171875,64.66838485689897
1373818063.75,32.626572083333336,36.2975,88.07250000042667,18.145989583333332,64.66838485689897
1373818064.0,32.63356141666667,36.29916666666667,88.07333333333334,17.321380208333334,64.66838485689897
1373818064.25,32.64049754166667,36.30083333333334,88.07583333205334,16.276692708333332,64.66838485689897
1373818064.5,32.64679341666667,36.3025,88.07833333333333,17.720833333333335,64.66838485689897
1373818064.75,32.654369583333335,36.30416666666667,88.08083333461333,16.978020833333332,64.66838485689897
1373818065.0,32.661679041666666,36.30583333333333,88.08333333333333,17.845598958333333,64.66838485689897
1373818065.25,32.66888183333333,36.307500000000005,88.08749999786667,18.984296875000002,64.66838485689897
1373818065.5,32.675977958333334,36.30916666666667,88.09166666666667,18.593619791666665,64.66838485689897
1373818065.75,32.682433833333334,36.31,88.09583333546666,20.27013020833333,64.66838485689897
1373818066.0,32.68824945833333,36.31,88.10000000000001,20.837838541666667,64.66838485689897
1373818066.25,32.69326466666667,36.31,88.10416666453334,21.533958333333334,64.66838485689897
1373818066.5,32.69577220833333,36.31,88.10833333333335,23.376588541666667,64.66838485689897
1373818066.75,32.696945875,36.31,88.11250000213334,23.329557291666664,64.66923036581309
1373818067.0,32.69614558333333,36.31,88.11666666666667,24.548151041666667,64.67092138364133
1373818067.25,32.694224874999996,36.31,88.12249999701334,24.984895833333336,64.67285397544505
1373818067.5,32.69161054166667,36.31,88.12833333333333,23.56390625,64.67478656724874
1373818067.75,32.68718233333333,36.31,88.13416666965334,23.829322916666666,64.67671915905247
1373818068.0,32.682754124999995,36.31,88.14,22.198723958333332,64.67865175085616
1373818068.25,32.678325916666665,36.31,88.14833332906667,21.118932291666667,64.68058434265988
1373818068.5,32.67480466666667,36.31,88.15666666666667,21.140677083333333,64.68251693446358
1373818068.75,32.67229716666666,36.31,88.16500000426666,19.174244791666666,64.68372480434091
1373818069.0,32.66978966666667,36.31,88.17333333333333,18.800078125,64.6837248043409
1373818069.25,32.66770908333333,36.31,88.18333332821334,17.744765625,64.68372480434091
1373818069.5,32.66749579166666,36.31,88.19333333333333,15.978463541666668,64.6837248043409
1373818069.75,32.6683495,36.31,88.20333333845332,16.010130208333333,64.68287929542679
1373818070.0,32.670270208333335,36.31,88.21333333333332,15.48078125,64.68118827759854
1373818070.25,32.66936308333333,36.31,88.22249999530666,16.289244791666665,64.67925568579483
1373818070.5,32.66135983333333,36.31,88.23166666666665,17.515078125,64.67732309399112
1373818070.75,32.650422125,36.31,88.24083333802666,17.027916666666666,64.67539050218741
1373818071.0,32.63948441666667,36.31,88.25,18.000755208333334,64.6734579103837
1373818071.25,32.62854670833333,36.31,88.25833332906667,18.065729166666667,64.67164610556772
1373818071.5,32.61670204166666,36.31,88.26666666666668,16.411562500000002,64.67152531858
1373818071.75,32.603843625,36.310833333333335,88.27500000426667,17.0115625,64.67225004050638
1373818072.0,32.590985208333336,36.3125,88.28333333333335,15.366614583333336,64.67418263231009
1373818072.25,32.58180829166667,36.314166666666665,88.2916666624,13.910651041666668,64.6761152241138
1373818072.5,32.576579625,36.31583333333333,88.30000000000001,14.793645833333334,64.67804781591751
1373818072.75,32.5746055,36.31791666666667,88.3083333376,13.921067708333332,64.67998040772122
1373818073.0,32.57449879166666,36.32041666666667,88.31666666666666,12.551197916666666,64.68191299952493
1373818073.25,32.57738,36.322916666666664,88.32666666154667,9.907552083333334,64.68384559132863
1373818073.5,32.58842433333333,36.32541666666666,88.33666666666667,7.336848958333334,64.6856573961446
1373818073.75,32.60405695833334,36.32791666666667,88.34666667178666,7.348385416666667,64.68513348454321
1373818074.0,32.62155704166667,36.330416666666665,88.35666666666667,7.069765625,64.66851470797822
1373818074.25,32.6391105,36.33291666666667,88.36583332864001,7.847005208333333,64.64902974744457
1373818074.5,32.66039870833333,36.33541666666667,88.375,10.875833333333333,64.62785376908269
1373818074.75,32.68190025,36.33708333333333,88.38416667135999,12.028463541666666,64.60655700373307
1373818075.0,32.703401791666664,36.337916666666665,88.39333333333333,15.760104166666666,64.58526023838346
1373818075.25,32.72122183333333,36.338750000000005,88.40333332821334,18.995442708333332,64.56396347303384
1373818075.5,32.735093625,36.33958333333333,88.41333333333333,18.84377604166667,64.54266670768422
1373818075.75,32.745710875,36.34,88.42333333845333,20.36309895833333,64.5213699423346
1373818076.0,32.75152625,36.34,88.43333333333334,21.107812499999998,64.50007317698498
1373818076.25,32.75686141666666,36.34,88.44333332821333,22.324427083333333,64.47877641163537
1373818076.5,32.761129583333336,36.34,88.45333333333332,25.229531249999997,64.45760043327348
1373818076.75,32.76374391666666,36.34,88.46333333845332,24.958515625000004,64.43876017132895
1373818077.0,32.76390395833334,36.34,88.47333333333331,25.047578124999998,64.43601477434805
1373818077.25,32.764597458333334,36.34,88.48499999402665,25.020494791666664,64.43601477434805
1373818077.5,32.76155620833333,36.34,88.49666666666664,22.850755208333336,64.43601477434805
1373818077.75,32.758301624999994,36.34,88.50833333930665,22.940130208333333,64.43601477434805
1373818078.0,32.75542058333333,36.34,88.51999999999998,21.13083333333333,64.43601477434805
1373818078.25,32.752859666666666,36.34,88.53249999359998,20.059791666666666,64.43601477434805
1373818078.5,32.75125908333333,36.34,88.54499999999999,21.507031249999997,64.43601477434805
1373818078.75,32.75211275,36.34,88.5575000064,21.162786458333333,64.43601477434805
1373818079.0,32.75856845833333,36.34,88.57000000000001,22.503645833333334,64.43601477434805
1373818079.25,32.766464708333324,36.34,88.58249999360001,23.944869791666665,64.43601477434805
1373818079.5,32.77468124999999,36.34,88.595,22.4346875,64.43601477434805
1373818079.75,32.78359145833333,36.34,88.6075000064,22.252343749999998,64.43601477434805
1373818080.0,32.79479575,36.34,88.62,21.34119791666667,64.43601477434805
1373818080.25,32.80760058333333,36.34,88.6324999936,19.377968749999997,64.43601477434805
1373818080.5,32.821952583333335,36.34,88.64500000000001,19.60125,64.43601477434805
1373818080.75,32.837104875,36.34,88.6575000064,17.473072916666666,64.43601477434805
1373818081.0,32.85220375,36.34,88.67,15.551666666666668,64.43601477434805
