timestamp,EDA,TEMP,HR,BVP,ACC_mag
1372684877.0,0.05155825,31.03,,11.168333333333335,63.56778208045836
1372684877.25,0.050506,31.03,,10.560714285714285,63.58498467642222
1372684877.5,0.0500370625,31.03,,10.1971484375,63.60132077005093
1372684877.75,0.04960116666666667,31.03,,10.411666666666667,63.61517133620297
1372684878.0,0.04925245,31.03,,10.278749999999999,63.6262517891246
1372684878.25,0.048967136363636365,31.03,,9.68127840909091,63.635317614242304
1372684878.5,0.048729375,31.03,,9.000781250000001,63.64287246850705
1372684878.75,0.04792875,31.030833333333337,,8.590130208333333,63.66580643088688
1372684879.0,0.047234875,31.0325,,8.167447916666667,63.68874039326672
1372684879.25,0.046701125,31.034166666666668,,7.209791666666667,63.707085580603525
1372684879.5,0.046274125,31.035833333333333,,5.713828125,63.71281163657202
1372684879.75,0.04600725,31.03833333333333,,4.6628645833333335,63.71452870989992
1372684880.0,0.04590049999999999,31.041666666666668,,4.039010416666667,63.715101067675896
1372684880.25,0.046060625,31.045,,3.662109375,63.71367017323598
1372684880.5,0.04600725,31.048333333333332,,2.7145572916666665,63.709949847692194
1372684880.75,0.04600725,31.051666666666666,,1.3305729166666667,63.70537098548445
1372684881.0,0.04600725,31.055000000000003,,-0.034218750000000055,63.70079212327672
1372684881.25,0.04600725,31.058333333333334,,-0.5031510416666668,63.696213261068976
1372684881.5,0.04600725,31.061666666666667,,0.3389843749999999,63.69535472440503
1372684881.75,0.046060625,31.064166666666665,,1.3154166666666665,63.695354724405036
1372684882.0,0.046114,31.065833333333334,,2.1208072916666665,63.695354724405036
1372684882.25,0.046060625,31.0675,,2.775755208333333,63.695354724405036
1372684882.5,0.045953875000000005,31.069166666666664,,2.670833333333333,63.69731431965439
1372684882.75,0.045633625000000004,31.07,,2.8455729166666663,63.71963213723595
1372684883.0,0.045046499999999996,31.07,,2.735130208333333,63.75013306070186
1372684883.25,0.044245875,31.07,,2.3846875,63.78689587854411
1372684883.5,0.042964916666666665,31.07,,3.303359375,63.827393546541266
1372684883.75,0.041310375,31.07,,3.8128385416666664,63.87199187028772
1372684884.0,0.038962000000000004,31.07,,4.905729166666666,63.91537260794709
1372684884.25,0.035919791666666666,31.07,,5.87078125,63.948032289803486
1372684884.5,0.03277083333333333,31.07,,5.382916666666667,63.97713245834487
1372684884.75,0.029621874999999995,31.07,,5.299505208333334,64.005170598118
1372684885.0,0.026419541666666668,31.07,,5.319609375,64.03739298679542
1372684885.25,0.02327058333333333,31.07,,5.71609375,64.07972326085296
1372684885.5,0.020175,31.07,,6.892057291666666,64.12459222108545
1372684885.75,0.017346291666666666,31.07083333333333,,7.894036458333335,64.16042488093386
1372684886.0,0.014891208333333334,31.0725,,9.478723958333333,64.18966399790123
1372684886.25,0.012756333333333333,31.074166666666667,,11.028802083333334,64.21386059453337
1372684886.5,0.012382708333333332,31.075833333333332,,11.197083333333333,64.23440320463732
1372684886.75,0.014090625,31.078333333333333,,11.497421874999999,64.25096648368186
1372684887.0,0.016599125000000003,31.081666666666667,83.375,11.172864583333334,64.26810032279694
1372684887.25,0.020068333333333334,31.085000000000004,82.67708369066666,10.512057291666666,64.2927572355065
1372684887.5,0.02380441666666667,31.088333333333335,81.97916666666666,9.868177083333334,64.30640052865726
1372684887.75,0.02764725,31.091666666666665,81.28124964266667,8.410807291666668,64.32004464120966
1372684888.0,0.03154345833333334,31.095,80.58333333333333,7.267187500000001,64.32950450485777
1372684888.25,0.03549304166666667,31.098333333333333,79.479167232,5.442083333333334,64.32885648312576
1372684888.5,0.039442625,31.101666666666663,78.375,3.787682291666666,64.32371017996945
1372684888.75,0.04323208333333334,31.105,77.270832768,2.364921875,64.31010374374485
1372684889.0,0.04680804166666667,31.10833333333333,76.16666666666667,0.01515625000000001,64.29605246006886
1372684889.25,0.05022391666666667,31.111666666666665,76.0083334144,-2.03859375,64.28135416012775
1372684889.5,0.052252125,31.115,75.85,-3.0410937500000004,64.26657499655991
1372684889.75,0.052519,31.117499999999996,75.6916665856,-3.5204947916666662,64.25167450830217
1372684890.0,0.05273250000000001,31.11916666666667,75.53333333333333,-3.6199479166666664,64.237421046061
1372684890.25,0.05273250000000001,31.120833333333334,75.75583321941333,-3.5848697916666663,64.22636556602832
1372684890.5,0.052572375000000005,31.122500000000002,75.97833333333332,-3.1323697916666666,64.22616289332565
1372684890.75,0.052252125,31.124166666666667,76.20083344725333,-2.4688802083333337,64.22616289332565
1372684891.0,0.05193187500000001,31.125833333333333,76.42333333333333,-1.8386718750000002,64.22616289332565
1372684891.25,0.05155825,31.127499999999998,76.69749985962666,-0.5746354166666667,64.22616289332565
1372684891.5,0.051184625000000004,31.129166666666666,76.97166666666666,0.3882552083333333,64.22616289332565
1372684891.75,0.050917750000000005,31.13,77.24583347370667,1.1392187500000002,64.22616289332565
1372684892.0,0.050864374999999996,31.13,77.52,2.5879166666666666,64.2253509715821
1372684892.25,0.050971125000000006,31.13,77.68833324714667,3.7228385416666665,64.20825074391762
1372684892.5,0.051184625000000004,31.13,77.85666666666667,4.455078124999999,64.18810159382261
1372684892.75,0.051504875,31.13,78.02500008618668,5.074244791666667,64.1679524437276
1372684893.0,0.051771750000000005,31.13,78.19333333333334,5.557421874999999,64.1478032936326
1372684893.25,0.051985250000000004,31.13,78.28583328597334,5.994557291666667,64.12765414353758
1372684893.5,0.052145375,31.13,78.37833333333334,6.4636458333333335,64.10750499344259
1372684893.75,0.052358875,31.13083333333333,78.47083338069335,7.148203124999999,64.08735584334758
1372684894.0,0.05262575,31.132499999999997,78.56333333333335,7.5559375,64.06720669325257
1372684894.25,0.052892625,31.134166666666662,78.60583331157335,7.818307291666667,64.04705754315755
1372684894.5,0.053159500000000005,31.135833333333334,78.64833333333334,8.563046875,64.02690839306256
1372684894.75,0.053426375,31.1375,78.69083335509333,8.969244791666666,64.00675924296755
1372684895.0,0.053693250000000005,31.139166666666668,78.73333333333333,9.155026041666668,63.98742201461608
1372684895.25,0.053853375,31.140833333333333,78.77249997994667,10.050833333333333,63.984373092185564
1372684895.5,0.05412025,31.1425,78.81166666666667,10.6865625,63.984373092185564
1372684895.75,0.054387083333333336,31.145,78.85083335338666,11.123567708333335,63.984373092185564
1372684896.0,0.05465391666666666,31.148333333333337,78.89,12.051015624999998,63.984373092185564
1372684896.25,0.05497408333333333,31.151666666666667,78.92916664661334,12.714739583333333,63.984373092185564
1372684896.5,0.055401,31.155,78.96833333333333,13.101770833333333,63.984373092185564
1372684896.75,0.05593466666666667,31.1575,79.00750002005333,13.443098958333332,63.984373092185564
1372684897.0,0.05657508333333333,31.159166666666668,79.04666666666667,13.800755208333333,63.984373092185564
1372684897.25,0.057375625000000006,31.160833333333333,79.08916664490667,14.171588541666667,63.984373092185564
1372684897.5,0.05822954166666666,31.162499999999998,79.13166666666666,14.199609375,63.984373092185564
1372684897.75,0.05913683333333333,31.16416666666667,79.17416668842665,14.637057291666665,63.984373092185564
1372684898.0,0.05999075,31.165833333333335,79.21666666666665,15.121614583333335,63.984373092185564
1372684898.25,0.06089804166666667,31.1675,79.23916665514666,14.940234374999998,63.984373092185564
1372684898.5,0.061751958333333336,31.16916666666667,79.26166666666666,15.179270833333334,63.984373092185564
1372684898.75,0.06255254166666667,31.17,79.28416667818666,15.578411458333333,63.984373092185564
1372684899.0,0.063353125,31.17,79.30666666666667,15.214739583333333,63.984373092185564
1372684899.25,0.06415375000000001,31.17,79.31916666026667,15.257447916666665,63.984373092185564
1372684899.5,0.06500775,31.17,79.33166666666668,15.575026041666666,63.984373092185564
1372684899.75,0.065808375,31.170833333333334,79.34416667306667,15.401822916666667,63.984373092185564
1372684900.0,0.066448875,31.1725,79.35666666666667,15.391223958333333,63.984373092185564
1372684900.25,0.06692925,31.174166666666668,79.36749999445334,15.476328125,63.984373092185564
1372684900.5,0.06735625,31.175833333333333,79.37833333333333,15.274635416666667,63.984373092185564
1372684900.75,0.06772987500000001,31.1775,79.38916667221332,14.89484375,63.985715292597746
1372684901.0,0.068050125,31.179166666666664,79.39999999999999,14.516692708333332,63.99287369479606
1372684901.25,0.068317,31.180833333333336,79.40916666197333,14.065859375,64.00003209699439
1372684901.5,0.0685305,31.1825,79.41833333333332,13.236874999999998,64.0071904991927
1372684901.75,0.06879737500000001,31.185000000000002,79.42750000469333,12.282291666666666,64.01434890139102
1372684902.0,0.06906425,31.188333333333333,79.43666666666667,11.753541666666669,64.0231321336167
1372684902.25,0.06933112500000001,31.191666666666666,79.44999999317334,10.934244791666666,64.03678985592445
1372684902.5,0.069598,31.195000000000004,79.46333333333334,9.90984375,64.05044757823218
1372684902.75,0.069864875,31.1975,79.47666667349333,9.592994791666667,64.06767536933695
1372684903.0,0.070398625,31.19916666666667,79.49,8.925234375,64.08847322923872
1372684903.25,0.0710925,31.200833333333335,79.50583332522666,8.092552083333333,64.1092710891405
1372684903.5,0.071786375,31.2025,79.52166666666666,7.862421874999999,64.13006894904228
1372684903.75,0.07248025,31.20416666666667,79.53750000810666,7.315052083333334,64.14952460853188
1372684904.0,0.0732275,31.205833333333334,79.55333333333333,7.085755208333334,64.16316406623534
1372684904.25,0.07397474999999999,31.2075,79.57249999018666,7.324036458333334,64.17680352393879
1372684904.5,0.074722,31.209166666666672,79.59166666666667,7.398619791666666,64.19044298164225
1372684904.75,0.075415875,31.21,79.61083334314667,8.05234375,64.20408243934571
1372684905.0,0.07610974999999999,31.21,79.63,8.65515625,64.2160970670218
1372684905.25,0.07675025,31.21,79.64666665813333,8.750130208333333,64.22323720461584
1372684905.5,0.077284,31.21,79.66333333333333,9.390026041666667,64.23037734220988
1372684905.75,0.077764375,31.21,79.68000000853334,9.572291666666667,64.2339474110069
1372684906.0,0.07803125,31.21,79.69666666666667,9.582786458333333,64.2339474110069
1372684906.25,0.078191375,31.21,79.71583332352,10.196250000000001,64.2339474110069
1372684906.5,0.07851158333333333,31.21,79.735,10.307291666666668,64.2339474110069
1372684906.75,0.078885125,31.21,79.75416667648,10.580572916666666,64.2339474110069
1372684907.0,0.07920529166666666,31.21,79.77333333333333,10.895625,64.2339474110069
1372684907.25,0.07952545833333334,31.21,79.79499998890667,10.815104166666666,64.2339474110069
1372684907.5,0.079899,31.21,79.81666666666666,11.157786458333334,64.2339474110069
1372684907.75,0.08032591666666666,31.21,79.83833334442666,11.244192708333332,64.2339474110069
1372684908.0,0.08080620833333334,31.21,79.86,10.933203124999999,64.2339474110069
1372684908.25,0.08133987499999999,31.21,79.88666665301334,11.275703125,64.2339474110069
1372684908.5,0.08187354166666667,31.21,79.91333333333333,11.259999999999998,64.2339474110069
1372684908.75,0.08240720833333333,31.21083333333333,79.94000001365332,11.157760416666667,64.2339474110069
1372684909.0,0.0828875,31.212500000000002,79.96666666666665,11.527135416666667,64.2339474110069
1372684909.25,0.08326104166666666,31.21416666666667,79.99499998549332,11.507682291666667,64.2339474110069
1372684909.5,0.083421125,31.215833333333332,80.02333333333333,11.455703125,64.2339474110069
1372684909.75,0.08352787499999999,31.2175,80.05166668117333,11.657395833333334,64.2339474110069
1372684910.0,0.08352791666666666,31.219166666666666,80.08,11.679869791666667,64.2339474110069
1372684910.25,0.083047625,31.22083333333333,80.11249998336,11.620677083333334,64.2339474110069
1372684910.5,0.08214033333333333,31.2225,80.145,11.544244791666666,64.2339474110069
1372684910.75,0.08117966666666666,31.224166666666665,80.17750001664,11.26671875,64.2339474110069
1372684911.0,0.080165625,31.225833333333338,80.21,11.225312500000001,64.2339474110069
1372684911.25,0.07909820833333334,31.227500000000003,80.23999998464,11.27875,64.2339474110069
1372684911.5,0.07797741666666667,31.229166666666668,80.27,11.199010416666667,64.2339474110069
1372684911.75,0.07674987500000001,31.230833333333337,80.30000001536,11.092369791666668,64.2339474110069
1372684912.0,0.07541558333333333,31.2325,80.33,11.136562499999998,64.2339474110069
1372684912.25,0.07402791666666668,31.234166666666667,80.35833331882667,11.079270833333334,64.2339474110069
1372684912.5,0.07264025,31.235833333333336,80.38666666666666,10.957942708333334,64.2339474110069
1372684912.75,0.07125258333333333,31.2375,80.41500001450666,11.014427083333333,64.2339474110069
1372684913.0,0.06970475,31.239166666666666,80.44333333333333,10.947916666666666,64.2339474110069
1372684913.25,0.068370375,31.240833333333338,80.46583332181334,10.875598958333333,64.2339474110069
1372684913.5,0.067302875,31.242500000000003,80.48833333333334,11.054921874999998,64.2339474110069
1372684913.75,0.06602191666666667,31.24416666666667,80.51083334485334,11.114765624999999,64.2339474110069
1372684914.0,0.064580875,31.245833333333337,80.53333333333335,11.072734374999998,64.2339474110069
1372684914.25,0.06308645833333333,31.247500000000002,80.54916665856001,11.220130208333332,64.2339474110069
1372684914.5,0.06164541666666667,31.249166666666667,80.56500000000001,11.169609375,64.2339474110069
1372684914.75,0.06031112499999999,31.250833333333333,80.58083334144001,11.275520833333331,64.2339474110069
1372684915.0,0.059030208333333334,31.252499999999998,80.59666666666668,11.468958333333333,64.2339474110069
1372684915.25,0.05780266666666667,31.254166666666663,80.60583332864,11.380520833333334,64.2339474110069
1372684915.5,0.056575125000000004,31.25583333333333,80.61500000000001,11.468020833333334,64.2339474110069
1372684915.75,0.05529420833333334,31.257499999999997,80.62416667136,11.680755208333332,64.2339474110069
1372684916.0,0.054280166666666664,31.259166666666662,80.63333333333333,11.577213541666667,64.2339474110069
1372684916.25,0.053479625,31.260833333333334,80.63916666367999,11.69703125,64.2339474110069
1372684916.5,0.05278583333333334,31.2625,80.64499999999998,11.833958333333335,64.2339474110069
1372684916.75,0.052252125,31.264166666666664,80.65083333631999,11.796093749999999,64.2339474110069
1372684917.0,0.0518785,31.265833333333333,80.65666666666665,12.047473958333335,64.2339474110069
1372684917.25,0.05155825,31.2675,80.66499999573333,12.093541666666667,64.2339474110069
1372684917.5,0.051238000000000006,31.269166666666663,80.67333333333332,12.066927083333333,64.2339474110069
1372684917.75,0.050917750000000005,31.27,80.68166667093332,12.330989583333334,64.2339474110069
1372684918.0,0.050650875000000005,31.27,80.69,12.426302083333335,64.2339474110069
1372684918.25,0.050384000000000005,31.27,80.69916666197334,12.504401041666666,64.2339474110069
1372684918.5,0.050117125000000005,31.27,80.70833333333334,12.754036458333331,64.2339474110069
1372684918.75,0.049903625,31.270833333333332,80.71750000469333,12.678177083333333,64.2339474110069
1372684919.0,0.04963675,31.272500000000004,80.72666666666667,12.774218750000001,64.2339474110069
1372684919.25,0.049316500000000006,31.274166666666662,80.73583332864001,12.969010416666668,64.2339474110069
1372684919.5,0.04899625,31.275833333333335,80.745,12.864739583333332,64.2339474110069
1372684919.75,0.048729375,31.277500000000003,80.75416667136,12.849427083333333,64.2339474110069
1372684920.0,0.048409125,31.279166666666665,80.76333333333334,12.906979166666666,64.2339474110069
1372684920.25,0.0480355,31.280833333333334,80.77166666240001,12.711015625,64.2339474110069
1372684920.5,0.0476085,31.2825,80.78,12.632630208333333,64.2339474110069
1372684920.75,0.04718150000000001,31.284999999999997,80.7883333376,12.579088541666666,64.2339474110069
1372684921.0,0.046754500000000004,31.28833333333333,80.79666666666667,12.197265625,64.2339474110069
1372684921.25,0.046380874999999995,31.291666666666668,80.80499999573334,11.853932291666666,64.2339474110069
1372684921.5,0.04600725,31.294999999999998,80.81333333333333,11.912421875,64.2339474110069
1372684921.75,0.045633625000000004,31.2975,80.82166667093333,11.694322916666666,64.2339474110069
1372684922.0,0.04526,31.299166666666665,80.83,11.350572916666666,64.2339474110069
1372684922.25,0.044993124999999995,31.300833333333333,80.83749999616,11.416197916666667,64.2339474110069
1372684922.5,0.04472625,31.3025,80.845,11.262369791666666,64.2339474110069
1372684922.75,0.044459374999999995,31.304166666666664,80.85250000383999,11.152291666666668,64.2339474110069
1372684923.0,0.044245875,31.305833333333336,80.86,11.26375,64.2339474110069
1372684923.25,0.04408575,31.3075,80.86749999616,11.223072916666666,64.2339474110069
1372684923.5,0.043979,31.30916666666667,80.875,11.512473958333333,64.2339474110069
1372684923.75,0.04387225,31.310833333333335,80.88250000384,11.922057291666667,64.2339474110069
1372684924.0,0.043765500000000006,31.3125,80.89,12.170859375,64.2339474110069
1372684924.25,0.043658749999999996,31.314166666666665,80.89749999616001,12.776692708333334,64.2339474110069
1372684924.5,0.043605375,31.31583333333333,80.905,13.088177083333335,64.2339474110069
1372684924.75,0.043552,31.3175,80.91250000384,13.292916666666665,64.2339474110069
1372684925.0,0.043498625000000006,31.319166666666664,80.92,14.029375,64.2339474110069
1372684925.25,0.0433385,31.32083333333333,80.92749999616001,14.408098958333333,64.2339474110069
1372684925.5,0.043071625,31.322499999999994,80.935,14.618776041666665,64.2339474110069
1372684925.75,0.042751375,31.324166666666667,80.94250000384,15.258359375,64.2339474110069
1372684926.0,0.042324375,31.325833333333332,80.95,15.072552083333335,64.2339474110069
1372684926.25,0.041790625,31.327499999999997,80.95833332906668,14.919479166666667,64.2339474110069
1372684926.5,0.041256875,31.329166666666666,80.96666666666667,14.919375,64.2339474110069
1372684926.75,0.04066975,31.33,80.97500000426666,14.250260416666668,64.2339474110069
1372684927.0,0.04002925,31.33,80.98333333333333,13.833229166666667,64.2339474110069
1372684927.25,0.039442125,31.33,80.99333332821334,13.6578125,64.2339474110069
1372684927.5,0.038855,31.33,81.00333333333333,12.938619791666666,64.2339474110069
1372684927.75,0.038267875,31.33083333333333,81.01333333845332,12.564557291666667,64.2339474110069
1372684928.0,0.037734125,31.332499999999996,81.02333333333333,12.219427083333334,64.2339474110069
1372684928.25,0.037307125000000003,31.334166666666665,81.03666665984,11.280729166666667,64.2339474110069
1372684928.5,0.03704025,31.335833333333337,81.05,10.881848958333334,64.2339474110069
1372684928.75,0.03682675,31.338333333333328,81.06333334016,10.329817708333334,64.2339474110069
1372684929.0,0.03672,31.341666666666665,81.07666666666667,9.883593750000001,64.2339474110069
1372684929.25,0.036719999999999996,31.345,81.09166665898667,10.357083333333334,64.2339474110069
1372684929.5,0.036719999999999996,31.348333333333333,81.10666666666665,10.189947916666666,64.2339474110069
1372684929.75,0.0369335,31.35083333333333,81.12166667434666,10.106354166666666,64.2339474110069
1372684930.0,0.037307125,31.352500000000003,81.13666666666666,10.697135416666667,64.2339474110069
1372684930.25,0.03768075,31.354166666666668,81.15416665770665,10.416666666666666,64.2339474110069
1372684930.5,0.038107749999999996,31.355833333333337,81.17166666666665,10.465755208333333,64.2339474110069
1372684930.75,0.038588125,31.356666666666666,81.18916667562667,10.949010416666667,64.2339474110069
1372684931.0,0.0390685,31.35666666666667,81.20666666666666,10.483567708333334,64.2339474110069
1372684931.25,0.039548875000000004,31.35666666666667,81.22499999061333,10.7059375,64.2339474110069
1372684931.5,0.039975875,31.356666666666666,81.24333333333334,11.04390625,64.2339474110069
1372684931.75,0.040402875000000005,31.355833333333337,81.26166667605334,10.593072916666666,64.2339474110069
1372684932.0,0.040829874999999995,31.35416666666667,81.28,10.978203125,64.2339474110069
1372684932.25,0.04131025,31.352500000000003,81.29999998976,10.611770833333333,64.2339474110069
1372684932.5,0.041844,31.350833333333338,81.32,10.224661458333333,64.2339474110069
1372684932.75,0.042217625,31.35,81.34000001024,10.791901041666664,64.2339474110069
1372684933.0,0.0424845,31.35,81.36,10.410286458333333,64.2339474110069
1372684933.25,0.04269800000000001,31.35,81.38083332266667,10.360572916666667,64.2339474110069
1372684933.5,0.042858125,31.35,81.40166666666667,10.994010416666667,64.2339474110069
1372684933.75,0.04296487500000001,31.350833333333338,81.42250001066667,10.657291666666667,64.2339474110069
1372684934.0,0.043125,31.352500000000003,81.44333333333334,11.020859375,64.2339474110069
1372684934.25,0.0433385,31.354166666666668,81.46666665472002,11.675937500000002,64.2339474110069
1372684934.5,0.043605375,31.355833333333337,81.49000000000001,11.431979166666666,64.2339474110069
1372684934.75,0.043979,31.3575,81.51333334528,12.005911458333332,64.2339474110069
1372684935.0,0.044406,31.359166666666667,81.53666666666668,12.30359375,64.2339474110069
1372684935.25,0.044833000000000005,31.360833333333336,81.56249998677335,12.292083333333332,64.2339474110069
1372684935.5,0.04526,31.3625,81.58833333333334,13.400703125,64.23516318236767
1372684935.75,0.045687,31.364166666666666,81.61416667989333,13.951666666666666,64.24038975456709
1372684936.0,0.04611400000000001,31.365833333333338,81.64,15.217682291666668,64.24670996487015
1372684936.25,0.046541,31.367499999999996,81.6649999872,16.671744791666665,64.25047808811185
1372684936.5,0.046968,31.36916666666667,81.69,17.08421875,64.25072129534792
1372684936.75,0.047395,31.37,81.71500001279999,17.744973958333333,64.25072129534792
1372684937.0,0.047768625,31.37,81.74,18.440338541666666,64.2507212953479
1372684937.25,0.047715249999999994,31.37,81.76083332266666,18.135781249999997,64.25072129534792
1372684937.5,0.047234875,31.37,81.78166666666667,18.387395833333333,64.2507212953479
1372684937.75,0.04659437499999999,31.37,81.80250001066666,18.874010416666668,64.2507212953479
1372684938.0,0.045900500000000004,31.37,81.82333333333332,18.482057291666667,64.25072129534792
1372684938.25,0.04515325,31.37,81.83916665855999,18.62005208333333,64.2507212953479
1372684938.5,0.044352625,31.37,81.85499999999999,17.961692708333334,64.24950552398714
1372684938.75,0.043552,31.370833333333334,81.87083334143999,16.252447916666668,64.2442789517877
1372684939.0,0.04280475,31.3725,81.88666666666666,14.144947916666666,64.23795874148466
1372684939.25,0.0420575,31.37416666666667,81.90083332607999,12.469713541666666,64.23419061824296
1372684939.5,0.041363625,31.375833333333336,81.91499999999999,10.569973958333334,64.2339474110069
1372684939.75,0.0407765,31.3775,81.92916667392,9.830859375000001,64.2339474110069
1372684940.0,0.040189375,31.379166666666666,81.94333333333333,8.843541666666667,64.2339474110069
1372684940.25,0.040082625,31.38083333333334,81.95666665984,8.157135416666668,64.2339474110069
1372684940.5,0.040402875,31.382500000000004,81.97,8.158229166666667,64.2339474110069
1372684940.75,0.0407765,31.38416666666667,81.98333334016,7.146979166666667,64.2339474110069
1372684941.0,0.041150125,31.385833333333334,81.99666666666667,7.221041666666667,64.2339474110069
1372684941.25,0.041577125,31.387500000000003,82.01083332608,7.293046874999999,64.2339474110069
1372684941.5,0.0420575,31.389166666666668,82.025,6.744609375,64.2339474110069
1372684941.75,0.042537875,31.390833333333333,82.03916667392001,7.766979166666666,64.2339474110069
1372684942.0,0.04296487500000001,31.392500000000002,82.05333333333334,8.701328125,64.2339474110069
1372684942.25,0.043498625000000006,31.394166666666663,82.06916665856001,8.69625,64.2339474110069
1372684942.5,0.04408575,31.395833333333332,82.08500000000001,10.019140625,64.2339474110069
1372684942.75,0.044566125000000005,31.397499999999997,82.10083334144001,9.997421874999999,64.2339474110069
1372684943.0,0.045046499999999996,31.39916666666667,82.11666666666667,10.118046875,64.2339474110069
1372684943.25,0.045420125,31.400833333333335,82.13499999061334,10.798619791666667,64.2339474110069
1372684943.5,0.045740375,31.4025,82.15333333333334,10.189140625,64.2339474110069
1372684943.75,0.046113999999999995,31.40416666666667,82.17166667605333,10.664817708333333,64.2339474110069
1372684944.0,0.046541,31.405833333333334,82.19,10.69,64.2339474110069
1372684944.25,0.046914624999999995,31.4075,82.20333332650667,10.03671875,64.2339474110069
1372684944.5,0.04718150000000001,31.409166666666664,82.21666666666667,10.701041666666667,64.2339474110069
1372684944.75,0.047448374999999994,31.41,82.23000000682666,10.333151041666667,64.2339474110069
1372684945.0,0.047661875,31.41,82.24333333333333,9.814401041666667,64.2339474110069
1372684945.25,0.047768625,31.41,82.25666665984,10.441041666666667,64.2339474110069
1372684945.5,0.04776862499999999,31.41,82.27,9.797083333333333,64.2339474110069
1372684945.75,0.047768625,31.41,82.28333334016,9.65765625,64.2339474110069
1372684946.0,0.047768625,31.41,82.29666666666667,9.981510416666667,64.2339474110069
1372684946.25,0.047768625,31.41,82.32999998293333,9.336197916666666,64.2339474110069
1372684946.5,0.047768625,31.41,82.36333333333333,9.970130208333332,64.2339474110069
1372684946.75,0.047715249999999994,31.41,82.39666668373333,10.000208333333335,64.2339474110069
1372684947.0,0.0476085,31.41,82.42999999999999,9.638020833333334,64.2339474110069
1372684947.25,0.04750175,31.41,82.50166662997333,10.503072916666666,64.2339474110069
1372684947.5,0.047448374999999994,31.41,82.57333333333332,10.160208333333335,64.2339474110069
1372684947.75,0.047395,31.41,82.64500003669332,10.169765625,64.2339474110069
1372684948.0,0.047395,31.41,82.71666666666665,11.106744791666666,64.2339474110069
1372684948.25,0.047395,31.41,82.78916662954666,10.640598958333333,64.2339474110069
1372684948.5,0.047395,31.41,82.86166666666666,11.212760416666667,64.2339474110069
1372684948.75,0.047395,31.410833333333333,82.93416670378667,12.181302083333334,64.2339474110069
1372684949.0,0.047448374999999994,31.412499999999998,83.00666666666667,12.04859375,64.2339474110069
1372684949.25,0.047555125000000004,31.41416666666667,83.05916663978667,13.1246875,64.2339474110069
1372684949.5,0.04766187499999999,31.415833333333335,83.11166666666666,13.292291666666666,64.2339474110069
1372684949.75,0.047768625,31.417500000000004,83.16416669354666,13.411614583333334,64.2339474110069
1372684950.0,0.047875375,31.419166666666666,83.21666666666665,14.428906250000002,64.2339474110069
1372684950.25,0.047982124999999994,31.42083333333333,83.23749998933333,14.373802083333333,64.23362299711201
1372684950.5,0.048088874999999996,31.4225,83.25833333333333,14.97361979166667,64.22627859890146
1372684950.75,0.048195625,31.424166666666665,83.27916667733332,15.8021875,64.21263914119801
1372684951.0,0.048355749999999996,31.425833333333333,83.3,15.325625,64.19899968349453
1372684951.25,0.04856925,31.4275,83.32166665557334,16.000182291666665,64.18536022579109
1372684951.5,0.04878274999999999,31.42916666666667,83.34333333333333,16.191328125000002,64.17172076808762
1372684951.75,0.04899625,31.43,83.36500001109333,15.141927083333336,64.15808131038416
1372684952.0,0.049263125,31.43,83.38666666666667,15.35796875,64.14444185268071
1372684952.25,0.04963675,31.43,83.41166665386667,14.635,64.13080239497724
1372684952.5,0.05006375,31.43,83.43666666666667,13.70236979166667,64.11716293727379
1372684952.75,0.05049075,31.43083333333333,83.46166667946666,13.787395833333333,64.10352347957034
1372684953.0,0.0510245,31.4325,83.48666666666666,12.595208333333332,64.08988402186687
1372684953.25,0.05155825,31.43416666666667,83.5158333184,11.444609374999999,64.07656897805829
1372684953.5,0.05267908333333334,31.435833333333335,83.545,10.987421875,64.07027391856539
1372684953.75,0.054440375000000006,31.4375,83.5741666816,9.605416666666667,64.07027391856539
1372684954.0,0.05620166666666667,31.439166666666665,83.60333333333334,9.478385416666667,64.07027391856539
1372684954.25,0.05790958333333333,31.44083333333333,83.6366666496,9.286953125,64.07027391856539
1372684954.5,0.05961750000000001,31.4425,83.67,8.305911458333332,64.07027391856539
1372684954.75,0.062072625,31.444166666666664,83.7033333504,8.957317708333333,64.07027391856539
1372684955.0,0.06527495833333334,31.44583333333333,83.73666666666666,9.071927083333334,64.07027391856539
1372684955.25,0.06847729166666666,31.4475,83.76833331712,8.931302083333334,64.07027391856539
1372684955.5,0.07167962500000001,31.449166666666667,83.8,10.1978125,64.07027391856539
1372684955.75,0.07488195833333333,31.45,83.83166668288,10.312604166666667,64.07027391856539
1372684956.0,0.07797754166666666,31.45,83.86333333333333,11.093229166666667,64.07027391856539
1372684956.25,0.08107312500000001,31.45,83.89249998506666,13.096874999999999,64.07027391856539
1372684956.5,0.08358162499999999,31.45,83.92166666666667,13.414713541666666,64.07027391856539
1372684956.75,0.08544966666666669,31.45,83.95083334826667,14.615078124999998,64.07027391856539
1372684957.0,0.08726433333333333,31.45,83.98,14.951041666666667,64.07027391856539
1372684957.25,0.089079,31.45,84.00499998720001,13.745260416666667,64.07027391856539
1372684957.5,0.09089366666666666,31.45,84.03,13.5234375,64.07027391856539
1372684957.75,0.09153412500000001,31.45,84.0550000128,12.804166666666667,64.07027391856539
1372684958.0,0.09030654166666668,31.45,84.08,11.651458333333332,64.06758951774101
1372684958.25,0.08833175,31.45,84.10666665301333,12.220286458333334,64.05578660165735
1372684958.5,0.08630358333333334,31.45,84.13333333333333,11.746119791666667,64.03073065370299
1372684958.75,0.08427541666666667,31.450833333333335,84.16000001365333,11.156875,64.00530734946582
1372684959.0,0.08224725000000001,31.452499999999997,84.18666666666667,11.079791666666665,63.979884045228665
1372684959.25,0.08021908333333333,31.454166666666666,84.21333331968,9.097083333333332,63.952172719202615
1372684959.5,0.07819091666666667,31.45583333333333,84.24000000000001,8.442447916666667,63.92053735753236
1372684959.75,0.07616275,31.4575,84.26666668032,7.680546875,63.88399395429625
1372684960.0,0.07413458333333334,31.459166666666665,84.29333333333334,7.330260416666667,63.84745055106015
1372684960.25,0.07215979166666668,31.46083333333333,84.31999998634667,8.762395833333333,63.810907147824054
1372684960.5,0.07029175,31.462499999999995,84.34666666666666,9.970703125,63.77436374458794
1372684960.75,0.06895745833333335,31.464166666666667,84.37333334698666,10.456171875,63.73753373833765
1372684961.0,0.06874400000000001,31.465833333333332,84.39999999999999,11.576562500000001,63.69634254283384
1372684961.25,0.069224375,31.4675,84.42666665301333,11.135807291666666,63.66177080177053
1372684961.5,0.069758125,31.469166666666663,84.45333333333333,10.887864583333334,63.641066545947346
1372684961.75,0.07034525000000001,31.47,84.48000001365334,11.058385416666667,63.62195855314582
1372684962.0,0.0710925,31.47,84.50666666666667,10.711093750000002,63.607766187299724
1372684962.25,0.071893125,31.47,84.53416665258668,11.737604166666666,63.59831965672024
1372684962.5,0.07274712500000001,31.47,84.56166666666667,12.015651041666667,63.593411615154395
1372684962.75,0.073601125,31.469166666666666,84.58916668074667,12.487838541666667,63.593411615154395
1372684963.0,0.0745085,31.4675,84.61666666666667,12.850807291666667,63.593411615154395
1372684963.25,0.07541587500000001,31.465833333333332,84.64749998421334,11.977447916666668,63.59341161515439
1372684963.5,0.07632320833333334,31.464166666666667,84.67833333333334,11.626302083333334,63.593411615154395
1372684963.75,0.07712379166666666,31.463333333333335,84.70916668245334,11.73828125,63.593698218168576
1372684964.0,0.07771091666666667,31.463333333333335,84.74000000000001,11.036510416666667,63.60103041126066
1372684964.25,0.07813791666666667,31.463333333333335,84.77333331626667,11.096328125,63.62872745672771
1372684964.5,0.07840479166666667,31.463333333333335,84.80666666666667,10.564479166666667,63.667072079462
1372684964.75,0.07861829166666666,31.463333333333335,84.84000001706667,10.110156250000001,63.72130859969591
1372684965.0,0.07856491666666666,31.463333333333335,84.87333333333333,9.945364583333333,63.773630922078894
1372684965.25,0.07829804166666667,31.463333333333335,84.90999998122666,9.204973958333333,63.827386924024786
1372684965.5,0.07787104166666667,31.463333333333335,84.94666666666666,8.97640625,63.88125774102803
1372684965.75,0.07744404166666667,31.465,84.98333335210667,8.246875000000001,63.938490139485744
1372684966.0,0.07696366666666667,31.468333333333334,85.02,7.293125,63.99645139486653
1372684966.25,0.07642991666666667,31.471666666666664,85.05583331498666,7.363020833333334,64.05441265024733
1372684966.5,0.07578945833333332,31.474999999999998,85.09166666666667,6.641796875000001,64.1123739056281
1372684966.75,0.07514900000000001,31.477499999999996,85.12750001834667,5.918151041666667,64.17033516100888
1372684967.0,0.074668625,31.479166666666668,85.16333333333333,5.831354166666666,64.22829641638968
1372684967.25,0.074295,31.480833333333333,85.19749998250666,5.080026041666667,64.26839188021428
1372684967.5,0.074028125,31.4825,85.23166666666665,5.235885416666666,64.2972253134022
1372684967.75,0.07376125,31.484166666666663,85.26583335082667,5.141432291666667,64.30893794235168
1372684968.0,0.073601125,31.485833333333332,85.3,4.779166666666666,64.31764914219663
1372684968.25,0.073601125,31.487499999999997,85.33333331626666,4.991927083333333,64.32246884900096
1372684968.5,0.07370787499999999,31.489166666666666,85.36666666666667,4.533046875,64.32655928737849
1372684968.75,0.073814625,31.489166666666662,85.40000001706667,4.87578125,64.32510086809431
1372684969.0,0.07397475,31.487499999999997,85.43333333333334,5.494010416666668,64.31999722361071
1372684969.25,0.074134875,31.485833333333332,85.46499998378667,5.39078125,64.3087679816725
1372684969.5,0.07434837500000001,31.484166666666667,85.49666666666667,5.999010416666667,64.26363814373538
1372684969.75,0.074561875,31.483333333333334,85.52833334954667,6.206770833333334,64.21614350814194
1372684970.0,0.074722,31.48333333333333,85.56,6.556796875,64.1686488725485
1372684970.25,0.07488212500000001,31.48333333333333,85.58916665173334,7.323307291666667,64.12115423695506
1372684970.5,0.075095625,31.48333333333333,85.61833333333334,7.34796875,64.07365960136163
1372684970.75,0.07530912499999999,31.4825,85.64750001493333,8.117473958333333,64.02734736459634
1372684971.0,0.075522625,31.480833333333333,85.67666666666666,8.624687499999999,63.99333725818007
1372684971.25,0.07584287499999999,31.479166666666668,85.7058333184,8.792135416666666,63.95483662748492
1372684971.5,0.076163125,31.477499999999996,85.735,9.752708333333333,63.91551814399617
1372684971.75,0.07637662499999999,31.477500000000003,85.7641666816,9.663854166666667,63.90994586058153
1372684972.0,0.07653675,31.479166666666668,85.79333333333334,9.762838541666666,63.91098745223692
1372684972.25,0.076803625,31.480833333333333,85.82416665088,10.077135416666668,63.92075851003694
1372684972.5,0.077123875,31.482499999999998,85.855,9.710625,63.96588834797408
1372684972.75,0.07744412499999999,31.48333333333333,85.88583334912,9.986848958333335,64.01338298356751
1372684973.0,0.07781775,31.483333333333334,85.91666666666667,9.614218750000001,64.06087761916095
1372684973.25,0.078191375,31.483333333333334,85.94999998293333,9.364947916666667,64.10837225475439
1372684973.5,0.078511625,31.48333333333333,85.98333333333333,9.422526041666666,64.1547732522442
1372684973.75,0.07877849999999999,31.484166666666663,86.01666668373333,8.62609375,64.19744002866405
1372684974.0,0.07899199999999999,31.485833333333332,86.05,8.588880208333334,64.18655936817694
1372684974.25,0.07909875000000001,31.487499999999997,86.0874999808,8.258333333333335,64.18016923196869
1372684974.5,0.0792055,31.489166666666666,86.125,7.6159895833333335,64.17199307986401
1372684974.75,0.079419,31.49,86.1625000192,7.60171875,64.13225800389247
1372684975.0,0.07963250000000001,31.49,86.2,7.034817708333333,64.08882542112725
1372684975.25,0.07973925,31.49,86.24166664533334,6.8077604166666665,64.04278896967199
1372684975.5,0.07973925,31.49,86.28333333333333,6.664791666666666,63.995294334078544
1372684975.75,0.079792625,31.49,86.32500002133334,6.214739583333333,63.94779969848511
1372684976.0,0.07979262499999999,31.49,86.36666666666667,6.351875,63.900305062891675
1372684976.25,0.07973925,31.49,86.41166664362667,6.032291666666667,63.85281042729824
1372684976.5,0.079685875,31.49,86.45666666666668,6.112760416666666,63.80640942980843
1372684976.75,0.07979258333333335,31.49,86.50166668970667,6.417604166666667,63.76256025456042
1372684977.0,0.08000600000000001,31.49,86.54666666666667,6.25015625,63.75995638587037
1372684977.25,0.08037954166666667,31.49,86.58916664490667,6.536223958333333,63.75735251718032
1372684977.5,0.08091320833333333,31.49,86.63166666666666,6.518072916666665,63.75735251718032
1372684977.75,0.08150025,31.49,86.67416668842665,6.490026041666667,63.75735251718032
1372684978.0,0.08208729166666666,31.49,86.71666666666665,6.706354166666667,63.75735251718032
1372684978.25,0.08267433333333334,31.49,86.75999997781332,6.604401041666667,63.75735251718032
1372684978.5,0.08326137500000001,31.49,86.80333333333331,7.014557291666667,63.75735251718032
1372684978.75,0.08374166666666666,31.49,86.84666668885332,7.1011718749999995,63.75735251718032
1372684979.0,0.08422195833333333,31.49,86.88999999999999,7.147421874999999,63.75735251718032
1372684979.25,0.08459549999999999,31.49,86.93416664405332,7.5898177083333325,63.75735251718032
1372684979.5,0.08496904166666668,31.49,86.97833333333332,7.335859375000001,63.75735251718032
1372684979.75,0.08507574999999999,31.49,87.02250002261333,7.520859375,63.75735251718032
1372684980.0,0.08507575,31.49,87.06666666666666,7.639583333333333,63.75735251718032
1372684980.25,0.084915625,31.49,87.11249997653333,7.354739583333334,63.75735251718032
1372684980.5,0.08459537500000001,31.49,87.15833333333333,7.6978125,63.75735251718032
1372684980.75,0.08422175,31.49,87.20416669013333,7.617734375,63.75735251718032
1372684981.0,0.08379479166666666,31.49,87.25,7.693802083333334,63.75735251718032
1372684981.25,0.0833145,31.49,87.29416664405333,8.033958333333333,63.75735251718032
1372684981.5,0.08283420833333333,31.49,87.33833333333334,7.6867447916666665,63.75735251718032
1372684981.75,0.08240729166666666,31.49,87.38250002261334,7.962083333333333,63.75735251718032
1372684982.0,0.081980375,31.49,87.42666666666668,7.99578125,63.75735251718032
1372684982.25,0.08160683333333334,31.49,87.46999997781334,7.5679687499999995,63.75735251718032
1372684982.5,0.08123329166666667,31.49,87.51333333333335,7.863072916666667,63.75735251718032
1372684982.75,0.081019875,31.49,87.55666668885334,7.549036458333333,63.75735251718032
1372684983.0,0.08085983333333334,31.49,87.60000000000001,7.1629427083333335,63.75735251718032
1372684983.25,0.08075316666666667,31.49,87.64083331242668,7.434557291666667,63.75735251718032
1372684983.5,0.0806465,31.49,87.68166666666667,7.015338541666668,63.75735251718032
1372684983.75,0.08053983333333332,31.49,87.72250002090666,6.869765624999999,63.75735251718032
1372684984.0,0.0804865,31.49,87.76333333333334,6.951953124999999,63.75735251718032
1372684984.25,0.0804865,31.49,87.80083331413334,6.466692708333333,63.75735251718032
1372684984.5,0.08053983333333332,31.49,87.83833333333334,6.687239583333334,63.75735251718032
1372684984.75,0.0806465,31.49,87.87583335253333,6.684817708333333,63.75735251718032
1372684985.0,0.08075316666666667,31.49,87.91333333333334,6.425494791666668,63.75735251718032
1372684985.25,0.08091320833333333,31.49,87.9466666496,6.997447916666668,63.75735251718032
1372684985.5,0.08107325,31.49,87.98,7.072916666666667,63.75735251718032
1372684985.75,0.08123329166666667,31.49,88.0133333504,7.148177083333334,63.75735251718032
1372684986.0,0.08134,31.49,88.04666666666667,7.987916666666667,63.75735251718032
1372684986.25,0.08134,31.49,88.0758333184,8.191848958333333,63.75735251718032
1372684986.5,0.08134,31.49,88.105,8.633333333333333,63.75735251718032
1372684986.75,0.08134,31.49083333333333,88.13416668160001,9.513697916666667,63.75735251718032
1372684987.0,0.08134,31.492499999999996,88.16333333333334,9.8709375,63.75735251718032
1372684987.25,0.08134,31.49416666666667,88.18666665472,10.671171874999999,63.75735251718032
1372684987.5,0.08128666666666666,31.495833333333334,88.21000000000001,11.329375,63.75735251718032
1372684987.75,0.08117999999999999,31.4975,88.23333334528,11.690390625,63.75735251718032
1372684988.0,0.08107333333333333,31.499166666666667,88.25666666666666,12.519635416666667,63.75735251718032
1372684988.25,0.08091329166666666,31.500833333333333,88.27333332479999,12.876145833333334,63.75735251718032
1372684988.5,0.08069987499999999,31.5025,88.28999999999999,13.163880208333333,63.75735251718032
1372684988.75,0.08048645833333333,31.503333333333334,88.30666667519999,13.698854166666669,63.75735251718032
1372684989.0,0.08032637499999999,31.503333333333334,88.32333333333332,13.670677083333333,63.75735251718032
1372684989.25,0.080219625,31.503333333333334,88.33249999530666,13.595963541666668,63.75735251718032
1372684989.5,0.080112875,31.50333333333333,88.34166666666667,13.61296875,63.75735251718032
1372684989.75,0.080006125,31.502499999999998,88.35083333802666,13.194375,63.75735251718032
1372684990.0,0.07989937500000001,31.500833333333333,88.36,12.860104166666666,63.75735251718032
1372684990.25,0.079792625,31.499166666666667,88.36416666453333,12.446302083333334,63.75735251718032
1372684990.5,0.079685875,31.497500000000002,88.36833333333334,11.778541666666667,63.75735251718032
1372684990.75,0.079579125,31.49666666666667,88.37250000213334,11.406328125,63.75735251718032
1372684991.0,0.079472375,31.496666666666666,88.37666666666667,10.800390624999999,63.75735251718032
1372684991.25,0.079419,31.496666666666666,88.37666666666667,10.056640624999998,63.75735251718032
1372684991.5,0.079419,31.496666666666666,88.37666666666667,9.629973958333332,63.75735251718032
1372684991.75,0.079419,31.498333333333335,88.37666666666667,9.061302083333333,63.75735251718032
1372684992.0,0.079472375,31.501666666666665,88.37666666666667,8.428333333333333,63.75735251718032
1372684992.25,0.079579125,31.505,88.37250000213334,8.238072916666667,63.75735251718032
1372684992.5,0.079685875,31.508333333333336,88.36833333333334,7.968984375000001,63.75735251718032
1372684992.75,0.07979262499999999,31.51166666666667,88.36416666453334,7.627734374999999,63.75735251718032
1372684993.0,0.079899375,31.515,88.36000000000001,7.557317708333333,63.75735251718032
1372684993.25,0.080006125,31.518333333333334,88.35083333802667,7.529348958333332,63.75735251718032
1372684993.5,0.08005949999999999,31.521666666666665,88.34166666666667,7.514348958333333,63.75735251718032
1372684993.75,0.0800595,31.52416666666667,88.33249999530668,7.468802083333333,63.75735251718032
1372684994.0,0.0800595,31.525833333333335,88.32333333333334,7.5632552083333335,63.75735251718032
1372684994.25,0.0800595,31.527500000000003,88.30750000810667,7.7527864583333335,63.75735251718032
1372684994.5,0.08005949999999999,31.52916666666667,88.29166666666667,7.860286458333333,63.75735251718032
1372684994.75,0.080112875,31.52916666666667,88.27583332522667,8.223619791666666,63.74851530651734
1372684995.0,0.080112875,31.527500000000003,88.26,8.728984375,63.73084088519141
1372684995.25,0.080006125,31.525833333333335,88.23916667733333,8.790651041666665,63.71316646386546
1372684995.5,0.07989937500000001,31.52416666666667,88.21833333333333,9.254557291666666,63.69549204253952
1372684995.75,0.07973925,31.522499999999997,88.19749998933334,9.8403125,63.677817621213585
1372684996.0,0.07957912500000001,31.520833333333332,88.17666666666666,9.838984374999999,63.66014319988764
1372684996.25,0.07952575,31.519166666666667,88.15416667818666,10.368307291666666,63.64246877856169
1372684996.5,0.07952575,31.517500000000002,88.13166666666666,10.951666666666666,63.624794357235764
1372684996.75,0.079579125,31.515833333333333,88.10916665514667,11.045546875,63.607119935909815
1372684997.0,0.07952574999999999,31.514166666666668,88.08666666666666,11.746041666666668,63.58944551458387
1372684997.25,0.079365625,31.5125,88.065833344,12.321302083333334,63.57177109325793
1372684997.5,0.0792055,31.510833333333338,88.04499999999999,12.542109374999997,63.554096671931994
1372684997.75,0.07899199999999999,31.51,88.02416665599999,13.266796874999999,63.54525946126902
1372684998.0,0.0787785,31.51,88.00333333333333,13.562421874999998,63.54525946126902
1372684998.25,0.078618375,31.51,87.9866666752,14.03875,63.54525946126902
1372684998.5,0.078404875,31.51,87.97,14.721848958333332,63.54525946126902
1372684998.75,0.07824475,31.510833333333338,87.9533333248,14.971536458333333,63.54525946126902
1372684999.0,0.078084625,31.512500000000003,87.93666666666667,15.629687499999998,63.54525946126902
1372684999.25,0.07781775,31.514166666666668,87.92250000725333,16.018333333333334,63.54525946126902
1372684999.5,0.07755087499999999,31.515833333333333,87.90833333333333,16.06984375,63.54525946126902
1372684999.75,0.077337375,31.517500000000002,87.89416665941333,16.529635416666668,63.54525946126902
1372685000.0,0.077284,31.519166666666667,87.88,16.424505208333333,63.54525946126902
1372685000.25,0.07739075,31.52083333333334,87.8675000064,16.114348958333334,63.54525946126902
1372685000.5,0.07760425,31.522499999999997,87.85499999999999,16.07979166666667,63.54525946126902
1372685000.75,0.077764375,31.52416666666667,87.8424999936,15.381979166666667,63.54525946126902
1372685001.0,0.077871125,31.525833333333335,87.83,14.863333333333332,63.54525946126902
1372685001.25,0.077977875,31.527500000000003,87.8175000064,14.398255208333333,63.54525946126902
1372685001.5,0.078138,31.52916666666667,87.805,13.399505208333332,63.54525946126902
1372685001.75,0.078298125,31.52916666666667,87.79249999360002,12.649765625,63.54525946126902
1372685002.0,0.07845825000000001,31.527500000000003,87.78000000000002,11.9290625,63.54525946126902
1372685002.25,0.078618375,31.525833333333335,87.76500000768002,10.94359375,63.54525946126902
1372685002.5,0.0787785,31.52416666666667,87.75000000000001,10.010234375000001,63.54525946126902
1372685002.75,0.07883187500000001,31.522499999999997,87.73499999232001,9.273880208333333,63.54525946126902
1372685003.0,0.0787785,31.520833333333332,87.72000000000001,8.519427083333333,63.54525946126902
1372685003.25,0.07867175,31.519166666666667,87.70333334186667,7.772473958333333,63.54525946126902
1372685003.5,0.07845825,31.517500000000002,87.68666666666667,7.409921875000001,63.54525946126902
1372685003.75,0.07824474999999999,31.515833333333333,87.66999999146667,6.941484375000001,63.54525946126902
1372685004.0,0.078138,31.514166666666668,87.65333333333332,6.441718750000001,63.54525946126902
1372685004.25,0.07803125,31.5125,87.63666667519999,6.443203125,63.54525946126902
1372685004.5,0.077977875,31.510833333333338,87.61999999999999,6.030260416666668,63.54525946126902
1372685004.75,0.077871125,31.510833333333334,87.60333332479999,5.792786458333333,63.54525946126902
1372685005.0,0.077764375,31.5125,87.58666666666666,6.004713541666667,63.54525946126902
1372685005.25,0.077657625,31.514166666666668,87.57166667434666,5.736953125,63.54525946126902
1372685005.5,0.0774975,31.515833333333337,87.55666666666666,6.054557291666666,63.54525946126902
1372685005.75,0.07739075,31.517500000000002,87.54166665898666,6.434375,63.54525946126902
1372685006.0,0.077337375,31.519166666666667,87.52666666666666,6.3058072916666665,63.54525946126902
1372685006.25,0.07728399999999999,31.520833333333332,87.51333334015999,7.018984375,63.54525946126902
1372685006.5,0.077230625,31.522499999999997,87.5,7.2628385416666665,63.54525946126902
1372685006.75,0.07717724999999999,31.52416666666667,87.48666665984001,7.5011979166666665,63.54525946126902
1372685007.0,0.0770705,31.52583333333334,87.47333333333334,8.537786458333333,63.54525946126902
1372685007.25,0.07696375,31.527500000000003,87.46000000682668,8.601848958333333,63.54525946126902
1372685007.5,0.076803625,31.52916666666667,87.44666666666667,9.365651041666666,63.54525946126902
1372685007.75,0.076696875,31.53,87.43333332650667,10.341536458333334,63.54525946126902
1372685008.0,0.07664349999999999,31.53,87.42,10.294505208333334,63.54525946126902
1372685008.25,0.076590125,31.53,87.40833333930667,11.081979166666668,63.54525946126902
1372685008.5,0.076590125,31.53,87.39666666666668,11.581145833333332,63.54525946126902
1372685008.75,0.076590125,31.53,87.38499999402667,11.459687500000001,63.54525946126902
1372685009.0,0.07664349999999999,31.53,87.37333333333333,12.206249999999999,63.54525946126902
1372685009.25,0.07675025,31.53,87.36333333845333,12.170286458333335,63.54525946126902
1372685009.5,0.076803625,31.53,87.35333333333332,12.093203125,63.54525946126902
1372685009.75,0.07691037499999999,31.52916666666667,87.34333332821333,12.498385416666666,63.54525946126902
1372685010.0,0.077017125,31.527500000000003,87.33333333333333,11.940182291666666,63.54525946126902
1372685010.25,0.077123875,31.525833333333335,87.32583333717332,11.894557291666667,63.54525946126902
1372685010.5,0.077230625,31.524166666666662,87.31833333333333,11.800104166666666,63.54525946126902
1372685010.75,0.077337375,31.522500000000004,87.31083332949333,11.026067708333334,63.54525946126902
1372685011.0,0.07744412499999999,31.520833333333332,87.30333333333333,10.952838541666667,63.54525946126902
1372685011.25,0.077550875,31.519166666666667,87.29833333589333,10.54234375,63.54525946126902
1372685011.5,0.077657625,31.517500000000002,87.29333333333334,9.742317708333333,63.54525946126902
1372685011.75,0.077764375,31.515833333333333,87.28833333077334,9.504843750000001,63.54525946126902
1372685012.0,0.07803120833333334,31.514166666666668,87.28333333333335,8.789817708333333,63.54525946126902
1372685012.25,0.078458125,31.512500000000003,87.2791666688,8.063411458333333,63.54525946126902
1372685012.5,0.07893841666666666,31.510833333333334,87.275,7.793385416666667,63.54525946126902
1372685012.75,0.07947208333333333,31.51,87.27083333120001,6.938958333333333,63.54525946126902
1372685013.0,0.080059125,31.51,87.26666666666667,6.366614583333334,63.54525946126902
1372685013.25,0.08064616666666667,31.51,87.26250000213334,6.081328125,63.54525946126902
1372685013.5,0.08128658333333333,31.51,87.25833333333333,5.2319531249999995,63.54525946126902
1372685013.75,0.081980375,31.510833333333334,87.25416666453333,4.884921875000001,63.54525946126902
1372685014.0,0.08262079166666668,31.512500000000003,87.25,4.683489583333333,63.54525946126902
1372685014.25,0.08326120833333334,31.514166666666668,87.24583333546667,4.1101302083333335,63.54525946126902
1372685014.5,0.083901625,31.515833333333337,87.24166666666667,4.196692708333333,63.54525946126902
1372685014.75,0.08454204166666666,31.517500000000002,87.23749999786668,4.185494791666667,63.54525946126902
1372685015.0,0.084969,31.519166666666667,87.23333333333335,3.961119791666667,63.54525946126902
1372685015.25,0.0851825,31.520833333333332,87.22916666880002,4.458828125,63.54525946126902
1372685015.5,0.085449375,31.522500000000004,87.22500000000002,4.4834375,63.54525946126902
1372685015.75,0.0856095,31.52416666666667,87.22083333120001,4.761875,63.54525946126902
1372685016.0,0.085769625,31.52583333333334,87.21666666666668,5.603750000000001,63.54525946126902
1372685016.25,0.08592974999999999,31.527500000000003,87.21416666794667,5.761067708333333,63.54525946126902
1372685016.5,0.08592974999999999,31.52916666666667,87.21166666666667,6.43875,63.54525946126902
1372685016.75,0.085823,31.53,87.20916666538668,7.2890625,63.54525946126902
1372685017.0,0.08571625000000001,31.53,87.20666666666666,7.460234375,63.54525946126902
1372685017.25,0.0856095,31.53,87.20666666666666,8.288802083333334,63.54525946126902
1372685017.5,0.08550275,31.53,87.20666666666666,8.865703125,63.54525946126902
1372685017.75,0.08539599999999999,31.53,87.20666666666666,9.11328125,63.54525946126902
1372685018.0,0.08528925,31.53,87.20666666666666,10.150885416666666,63.54525946126902
1372685018.25,0.08512912500000001,31.53,87.20833333248,10.458489583333334,63.54525946126902
1372685018.5,0.08486225000000001,31.53,87.21,10.880963541666667,63.54525946126902
1372685018.75,0.08464875,31.53,87.21166666751999,11.872786458333332,63.54525946126902
1372685019.0,0.084381875,31.53,87.21333333333332,11.868854166666667,63.54525946126902
1372685019.25,0.084115,31.53,87.21583333205334,12.319609374999999,63.54525946126902
1372685019.5,0.083954875,31.53,87.21833333333333,12.983125,63.54525946126902
1372685019.75,0.0839015,31.53,87.22083333461333,12.762473958333333,63.54525946126902
1372685020.0,0.083848125,31.53,87.22333333333334,13.219270833333333,63.54525946126902
1372685020.25,0.083741375,31.53,87.22583333205334,13.546718749999998,63.54525946126902
1372685020.5,0.083634625,31.53,87.22833333333334,13.25609375,63.54525946126902
1372685020.75,0.08352787500000002,31.53,87.23083333461334,13.733984374999999,63.54525946126902
1372685021.0,0.083421125,31.53,87.23333333333333,13.373489583333333,63.54525946126902
1372685021.25,0.083421125,31.53,87.23583333205333,13.059869791666666,63.54525946126902
1372685021.5,0.08352787500000002,31.53,87.23833333333334,13.216041666666667,63.54525946126902
1372685021.75,0.08358125,31.53,87.24083333461334,12.26046875,63.54525946126902
1372685022.0,0.083688,31.53,87.24333333333334,11.938567708333332,63.54525946126902
1372685022.25,0.08379475000000002,31.53,87.24333333333334,11.793515625,63.54525946126902
1372685022.5,0.0839015,31.53,87.24333333333334,10.648125,63.54525946126902
1372685022.75,0.083954875,31.53,87.24333333333334,10.461822916666668,63.54525946126902
1372685023.0,0.08400825,31.53,87.24333333333334,10.160130208333333,63.54525946126902
1372685023.25,0.084168375,31.53,87.23916666880001,9.122109374999999,63.54525946126902
1372685023.5,0.08432850000000001,31.53,87.23500000000001,9.072682291666668,63.54525946126902
1372685023.75,0.084542,31.53,87.2308333312,8.483958333333334,63.54525946126902
1372685024.0,0.0847555,31.53,87.22666666666667,7.94484375,63.54525946126902
1372685024.25,0.08491562500000001,31.53,87.2183333376,8.040625,63.54525946126902
1372685024.5,0.08507575,31.53,87.21000000000001,7.419348958333334,63.54525946126902
1372685024.75,0.08539599999999999,31.53,87.2016666624,7.3479947916666655,63.54525946126902
1372685025.0,0.08571625,31.53,87.19333333333333,7.400338541666667,63.54525946126902
1372685025.25,0.0860365,31.53,87.18250000554666,6.844375,63.54525946126902
1372685025.5,0.08635675,31.53,87.17166666666665,7.058020833333333,63.54525946126902
1372685025.75,0.086623625,31.53,87.16083332778666,7.091015625,63.54525946126902
1372685026.0,0.0868905,31.53,87.14999999999999,6.580598958333334,63.54525946126902
1372685026.25,0.087104,31.53,87.13583334058666,6.901484375,63.54525946126902
1372685026.5,0.087370875,31.53,87.12166666666667,6.884322916666666,63.54525946126902
1372685026.75,0.08758437499999999,31.53,87.10749999274668,6.544869791666667,63.54525946126902
1372685027.0,0.08779787500000001,31.53,87.09333333333335,6.8335937499999995,63.54525946126902
1372685027.25,0.088011375,31.53,87.07916667392001,6.593437499999999,63.54525946126902
1372685027.5,0.0881715,31.53,87.06500000000001,6.495833333333334,63.54525946126902
1372685027.75,0.088224875,31.53,87.05083332608001,6.785468750000001,63.54525946126902
1372685028.0,0.08822487500000002,31.53,87.03666666666668,6.597916666666666,63.54525946126902
1372685028.25,0.088224875,31.53,87.02000000853334,6.7684375,63.54525946126902
1372685028.5,0.088224875,31.53,87.00333333333334,7.1450000000000005,63.54933252732648
1372685028.75,0.08827825,31.530833333333334,86.98666665813334,7.031796875,63.561551725498866
1372685029.0,0.088385,31.5325,86.97000000000001,7.369062499999999,63.58191705578617
1372685029.25,0.08859850000000001,31.534166666666668,86.95333334186667,7.6905729166666665,63.58599012184363
1372685029.5,0.088812,31.535833333333333,86.93666666666667,7.532838541666667,63.58599012184363
1372685029.75,0.0890255,31.537499999999998,86.91999999146667,8.016406250000001,63.5864406094398
1372685030.0,0.08929237500000002,31.539166666666663,86.90333333333332,8.090572916666666,63.593216601074225
1372685030.25,0.08966600000000001,31.540833333333335,86.88666667519999,8.049322916666666,63.59411757626655
1372685030.5,0.090039625,31.5425,86.86999999999999,8.59640625,63.59411757626655
1372685030.75,0.09052,31.54416666666667,86.85333332479999,8.351328125,63.60359649347796
1372685031.0,0.09089362499999999,31.54583333333333,86.83666666666666,8.297265625,63.610372485112386
1372685031.25,0.09126725000000001,31.5475,86.82166667434666,8.617942708333333,63.610822972708554
1372685031.5,0.091640875,31.549166666666665,86.80666666666666,8.09265625,63.60674990665109
1372685031.75,0.09212124999999999,31.549166666666668,86.79166665898666,8.096041666666666,63.59453070847871
1372685032.0,0.09254825,31.5475,86.77666666666666,8.225078125000001,63.5741653781914
1372685032.25,0.09292187499999999,31.545833333333334,86.76333334015999,7.6476822916666665,63.57009231213394
1372685032.5,0.09318875,31.544166666666666,86.75,7.8991927083333335,63.57009231213394
1372685032.75,0.09329549999999999,31.542500000000004,86.73666665984001,7.6988281249999995,63.569641824537776
1372685033.0,0.09318875,31.540833333333335,86.72333333333334,7.440052083333334,63.56286583290335
1372685033.25,0.09292187499999999,31.53916666666667,86.70833334101334,7.844010416666667,63.56196485771102
1372685033.5,0.092708375,31.537499999999998,86.69333333333334,7.37765625,63.561964857711025
1372685033.75,0.092281375,31.535833333333333,86.67833332565334,7.713802083333333,63.552485940499615
1372685034.0,0.09190775000000001,31.534166666666664,86.66333333333334,8.289296875,63.54570994886518
1372685034.25,0.09153412500000001,31.532500000000002,86.64750000810668,7.960520833333334,63.54525946126902
1372685034.5,0.09116049999999999,31.530833333333334,86.63166666666667,8.659817708333334,63.54525946126902
1372685034.75,0.090680125,31.53,86.61583332522667,9.090416666666668,63.54525946126902
1372685035.0,0.09019975000000001,31.53,86.60000000000001,8.931354166666667,63.54525946126902
1372685035.25,0.08966600000000001,31.53,86.58416667477334,9.790260416666667,63.54525946126902
1372685035.5,0.08918562499999999,31.53,86.56833333333334,9.848984374999999,63.54525946126902
1372685035.75,0.08886537500000001,31.53,86.55249999189334,10.101041666666665,63.54525946126902
1372685036.0,0.088758625,31.53,86.53666666666668,10.782265624999999,63.54525946126902
1372685036.25,0.088758625,31.53,86.52166667434668,10.528593749999999,63.54525946126902
1372685036.5,0.088651875,31.53,86.50666666666667,11.1146875,63.54525946126902
1372685036.75,0.088651875,31.53,86.49166665898667,11.259010416666667,63.54525946126902
1372685037.0,0.08870525000000001,31.53,86.47666666666667,10.838489583333333,63.54525946126902
1372685037.25,0.088758625,31.53,86.46166667434667,11.378541666666665,63.54525946126902
1372685037.5,0.08886537500000001,31.53,86.44666666666667,11.109921874999998,63.54525946126902
1372685037.75,0.088972125,31.53,86.43166665898667,10.617630208333333,63.54525946126902
1372685038.0,0.089078875,31.53,86.41666666666667,11.005130208333334,63.54525946126902
1372685038.25,0.08913225000000001,31.53,86.40000000853333,10.433307291666667,63.54525946126902
1372685038.5,0.08913225000000001,31.53,86.38333333333333,10.233046875000001,63.54525946126902
1372685038.75,0.08913225000000001,31.53,86.36666665813333,10.291432291666668,63.54525946126902
1372685039.0,0.089078875,31.53,86.34999999999998,9.532239583333332,63.54525946126902
1372685039.25,0.088972125,31.53,86.33333334186665,9.7025,63.54525946126902
1372685039.5,0.08891875,31.53,86.31666666666666,9.39578125,63.54525946126902
1372685039.75,0.08886537500000001,31.53,86.29999999146668,8.707968750000001,63.54525946126902
1372685040.0,0.088812,31.53,86.28333333333335,8.957838541666666,63.54525946126902
1372685040.25,0.08875862500000002,31.53,86.2666666752,8.470963541666666,63.54525946126902
1372685040.5,0.088651875,31.53,86.25,8.039453125,63.54525946126902
1372685040.75,0.088545125,31.53,86.2333333248,8.452942708333333,63.54525946126902
1372685041.0,0.088438375,31.53,86.21666666666665,7.9551041666666675,63.54525946126902
1372685041.25,0.088385,31.53,86.20166667434665,7.950546875000001,63.54525946126902
1372685041.5,0.088385,31.53,86.18666666666667,8.215651041666666,63.54525946126902
1372685041.75,0.088385,31.53,86.17166665898668,7.719739583333332,63.54525946126902
1372685042.0,0.088385,31.53,86.15666666666668,8.209583333333333,63.54525946126902
1372685042.25,0.08833162500000001,31.53,86.14083334144,8.133307291666666,63.54525946126902
1372685042.5,0.088224875,31.53,86.125,7.891510416666666,63.54525946126902
1372685042.75,0.08806475000000001,31.53,86.10916665856,8.595026041666666,63.54525946126902
1372685043.0,0.08785125,31.53,86.09333333333332,8.390208333333332,63.54525946126902
1372685043.25,0.087691125,31.53,86.07916667391999,8.458932291666667,63.54525946126902
1372685043.5,0.087477625,31.53,86.065,9.206406249999999,63.54525946126902
1372685043.75,0.08726412500000001,31.53,86.05083332608001,8.916744791666666,63.54525946126902
1372685044.0,0.087104,31.53,86.03666666666668,9.150677083333333,63.54525946126902
1372685044.25,0.086943875,31.53,86.02416667306667,9.615572916666666,63.54525946126902
1372685044.5,0.08678374999999999,31.53,86.01166666666668,9.273697916666666,63.54525946126902
1372685044.75,0.086623625,31.53,85.99916666026668,9.830442708333333,63.54525946126902
1372685045.0,0.086410125,31.53,85.98666666666668,9.834505208333333,63.54525946126902
1372685045.25,0.08625,31.53,85.9783333376,9.709114583333333,63.54525946126902
1372685045.5,0.08614325,31.53,85.97,10.366875,63.54525946126902
1372685045.75,0.0860365,31.52916666666667,85.9616666624,10.122031250000001,63.54525946126902
1372685046.0,0.085983125,31.527500000000003,85.95333333333333,10.106171875,63.54525946126902
1372685046.25,0.085823,31.525833333333335,85.9491666688,10.5628125,63.54525946126902
1372685046.5,0.08571625000000001,31.52416666666667,85.945,10.110494791666666,63.54525946126902
1372685046.75,0.0856095,31.523333333333337,85.9408333312,10.171979166666667,63.54525946126902
1372685047.0,0.08539600000000001,31.523333333333337,85.93666666666667,10.499114583333332,63.54525946126902
1372685047.25,0.08512912500000001,31.523333333333337,85.93500000085334,9.996067708333333,63.54525946126902
1372685047.5,0.08486224999999999,31.523333333333337,85.93333333333334,10.259322916666667,63.54525946126902
1372685047.75,0.084542,31.523333333333337,85.93166666581334,10.205338541666668,63.54525946126902
1372685048.0,0.08422175,31.523333333333337,85.93,9.754453125,63.54525946126902
1372685048.25,0.08384816666666667,31.523333333333337,85.93166666581334,10.071770833333334,63.54525946126902
1372685048.5,0.08342125,31.523333333333337,85.93333333333334,9.693072916666667,63.54525946126902
1372685048.75,0.08304770833333334,31.52416666666667,85.93500000085334,9.371744791666666,63.54525946126902
1372685049.0,0.08267416666666667,31.525833333333335,85.93666666666667,9.720859375,63.54525946126902
1372685049.25,0.082300625,31.527500000000003,85.9408333312,9.290911458333333,63.54525946126902
1372685049.5,0.08187370833333334,31.52916666666667,85.945,9.079895833333333,63.54525946126902
1372685049.75,0.08144679166666667,31.53,85.9491666688,9.374062499999999,63.54525946126902
1372685050.0,0.08107325,31.53,85.95333333333333,8.826979166666666,63.54525946126902
1372685050.25,0.08075308333333334,31.53,85.96083332949334,8.882239583333332,63.54525946126902
1372685050.5,0.08043291666666667,31.53,85.96833333333333,9.028671874999999,63.54525946126902
1372685050.75,0.08016612499999999,31.53,85.97583333717333,8.48671875,63.54525946126902
1372685051.0,0.07995270833333333,31.53,85.98333333333333,8.906171875,63.54525946126902
1372685051.25,0.079846,31.53,85.99166666240001,8.828776041666666,63.54525946126902
1372685051.5,0.07979262499999999,31.53,86.0,8.484192708333333,63.54525946126902
1372685051.75,0.07979262499999999,31.53,86.00833333759999,9.105156249999999,63.54525946126902
1372685052.0,0.07979262499999999,31.53,86.01666666666667,8.954973958333333,63.54525946126902
1372685052.25,0.079846,31.53,86.02833332736,8.849635416666667,63.54525946126902
1372685052.5,0.07995275,31.53,86.03999999999999,9.610052083333334,63.54525946126902
1372685052.75,0.080006125,31.53,86.05166667264,9.44734375,63.54525946126902
1372685053.0,0.080006125,31.53,86.06333333333333,9.680182291666666,63.54525946126902
1372685053.25,0.080006125,31.53,86.07833332565333,10.307395833333333,63.54525946126902
1372685053.5,0.080006125,31.53,86.09333333333333,10.1378125,63.54525946126902
1372685053.75,0.080006125,31.53,86.10833334101333,10.7840625,63.54525946126902
1372685054.0,0.080006125,31.53,86.12333333333333,11.133541666666666,63.54525946126902
1372685054.25,0.07995275,31.53,86.14166665728,11.065078125,63.54525946126902
1372685054.5,0.07989937500000001,31.53,86.16,11.6353125,63.54525946126902
1372685054.75,0.07973925,31.53,86.17833334272001,11.620260416666667,63.54525946126902
1372685055.0,0.07952575,31.53,86.19666666666667,11.646536458333332,63.54525946126902
1372685055.25,0.07931225000000001,31.53,86.21416665770667,11.972369791666665,63.54525946126902
1372685055.5,0.07909875000000001,31.53,86.23166666666667,11.662838541666668,63.54525946126902
1372685055.75,0.078938625,31.53,86.24916667562667,11.856927083333334,63.54525946126902
1372685056.0,0.078831875,31.53,86.26666666666667,11.923333333333332,63.54525946126902
1372685056.25,0.07867175,31.53,86.2833333248,11.055338541666666,63.54525946126902
1372685056.5,0.078404875,31.53,86.3,11.047942708333332,63.54525946126902
1372685056.75,0.078084625,31.53,86.3166666752,10.629401041666666,63.54525946126902
1372685057.0,0.07776437500000001,31.53,86.33333333333333,9.701822916666668,63.54525946126902
1372685057.25,0.077444125,31.53,86.34666665984,9.527395833333333,63.54525946126902
1372685057.5,0.077123875,31.53,86.36,8.963645833333333,63.54525946126902
1372685057.75,0.076857,31.53,86.37333334016,8.136302083333334,63.54525946126902
1372685058.0,0.076590125,31.53,86.38666666666667,7.7629687500000015,63.54525946126902
1372685058.25,0.076269875,31.53,86.39499999573334,7.197369791666667,63.54525946126902
1372685058.5,0.075949625,31.53,86.40333333333334,6.49125,63.54525946126902
1372685058.75,0.075522625,31.53,86.41166667093334,5.685364583333334,63.54525946126902
1372685059.0,0.074988875,31.53,86.42000000000002,5.168880208333333,63.54751189924983
1372685059.25,0.0745085,31.53,86.42249999872001,5.389192708333334,63.551115800019126
1372685059.5,0.074134875,31.53,86.42500000000001,5.068229166666667,63.55562067598075
1372685059.75,0.07381462500000001,31.53,86.42750000128001,4.913984375,63.561927502327016
1372685060.0,0.073494375,31.53,86.43,5.2663802083333335,63.56913530386561
1372685060.25,0.07312075,31.53,86.43,5.2804947916666665,63.5763431054042
1372685060.5,0.07274712500000001,31.53,86.43,5.57421875,63.5835509069428
1372685060.75,0.07226675,31.53,86.43,6.194140625,63.59075870848139
1372685061.0,0.07183975,31.53,86.43,6.3266406250000005,63.59796651001998
1372685061.25,0.071466125,31.53,86.42916666709334,6.842369791666666,63.605174311558564
1372685061.5,0.071039125,31.53,86.42833333333334,7.567109375,63.61238211309717
1372685061.75,0.070718875,31.53,86.42749999957333,7.994869791666667,63.61958991463576
1372685062.0,0.070505375,31.53,86.42666666666666,8.603880208333333,63.624545278193544
1372685062.25,0.070291875,31.53,86.42416666794666,9.00125,63.628149178962836
1372685062.5,0.070078375,31.53,86.42166666666667,9.294427083333334,63.63085210453982
1372685062.75,0.069864875,31.53,86.41916666538667,9.795078125,63.631753079732135
1372685063.0,0.069651375,31.53,86.41666666666667,10.182135416666666,63.631753079732135
1372685063.25,0.06949124999999999,31.53,86.41166666922666,10.389114583333333,63.631753079732135
1372685063.5,0.069331125,31.53,86.40666666666667,10.594817708333334,63.631753079732135
1372685063.75,0.069331125,31.53,86.40166666410667,10.691979166666668,63.631753079732135
1372685064.0,0.06927775,31.53,86.39666666666666,10.999479166666665,63.631753079732135
1372685064.25,0.06922437499999999,31.53,86.3883333376,11.114296874999999,63.631753079732135
1372685064.5,0.06927775,31.53,86.38,11.023046875,63.631753079732135
1372685064.75,0.06933112500000001,31.53,86.3716666624,11.110338541666666,63.631753079732135
1372685065.0,0.069437875,31.53,86.36333333333334,10.959348958333331,63.631753079732135
1372685065.25,0.06949124999999999,31.53,86.35250000554667,10.661875,63.631753079732135
1372685065.5,0.069544625,31.53,86.34166666666667,10.503645833333332,63.631753079732135
1372685065.75,0.069598,31.53,86.33083332778666,10.242109375,63.631753079732135
1372685066.0,0.06970475,31.53,86.32,9.844557291666666,63.631753079732135
1372685066.25,0.069758125,31.53,86.30583334058666,9.523125,63.631753079732135
1372685066.5,0.069758125,31.53,86.29166666666666,9.333307291666666,63.631753079732135
1372685066.75,0.06970475,31.53,86.27749999274666,9.005703125,63.631753079732135
1372685067.0,0.06970475,31.53,86.26333333333332,8.610234375,63.631753079732135
1372685067.25,0.06970475,31.53,86.24916667391999,8.397473958333334,63.631753079732135
1372685067.5,0.069651375,31.53,86.23499999999999,8.148177083333334,63.631753079732135
1372685067.75,0.069544625,31.53,86.22083332608,8.004401041666666,63.63537565819343
1372685068.0,0.06933112500000001,31.53,86.20666666666666,8.025442708333333,63.63537565819343
1372685068.25,0.069171,31.53,86.19250000725333,8.002213541666666,63.657111128961226
1372685068.5,0.069010875,31.53,86.17833333333334,8.091458333333334,63.706429740532336
1372685068.75,0.06885075,31.530833333333334,86.16416665941335,8.289921875,63.767951142431876
1372685069.0,0.06863725,31.5325,86.15000000000002,8.36609375,63.819557277519756
1372685069.25,0.06847712500000001,31.534166666666664,86.13583334058667,8.535911458333333,63.83042501290365
1372685069.5,0.068370375,31.535833333333333,86.12166666666667,8.681276041666667,63.830425012903646
1372685069.75,0.06826362500000001,31.537499999999998,86.10749999274667,8.656770833333335,63.85578306213274
1372685070.0,0.06821025,31.53916666666667,86.09333333333332,8.812161458333334,63.895631425207036
1372685070.25,0.068156875,31.540833333333335,86.07666667519999,8.872265625,63.902876582129636
1372685070.5,0.068050125,31.5425,86.05999999999999,8.79359375,63.91012173905222
1372685070.75,0.068050125,31.544166666666666,86.04333332479999,8.998854166666666,63.90649916059093
1372685071.0,0.0681035,31.545833333333334,86.02666666666666,9.113645833333333,63.90649916059093
1372685071.25,0.0681035,31.5475,86.00833334272,8.921901041666667,63.88476368982314
1372685071.5,0.06815687499999999,31.549166666666668,85.99,9.070885416666666,63.83544507825203
1372685071.75,0.06815687499999999,31.55,85.97166665728,9.082343750000001,63.77754625481379
1372685072.0,0.06821025,31.55,85.95333333333333,8.977916666666667,63.7585433258776
1372685072.25,0.068317,31.55,85.93583334229334,9.156744791666666,63.80563684587449
1372685072.5,0.06842374999999999,31.55,85.91833333333332,9.185703125,63.863598101255285
1372685072.75,0.06847712499999999,31.55,85.90083332437332,9.322942708333333,63.896201307406976
1372685073.0,0.068477125,31.55,85.88333333333333,9.452499999999999,63.91431419971346
1372685073.25,0.0685305,31.55,85.8666666752,9.435963541666666,63.965030298171655
1372685073.5,0.06863725,31.55,85.85,9.651276041666668,64.01574639662984
1372685073.75,0.06869062499999999,31.549166666666668,85.8333333248,9.620494791666667,64.07370765201063
1372685074.0,0.06874399999999999,31.5475,85.81666666666666,9.452109375000001,64.13166890739141
1372685074.25,0.06885075,31.545833333333334,85.80000000853333,9.672552083333333,64.18963016277219
1372685074.5,0.068904125,31.544166666666666,85.78333333333333,9.553072916666666,64.247591418153
1372685074.75,0.069010875,31.542500000000004,85.76666665813333,9.3128125,64.30193009507246
1372685075.0,0.06906425,31.540833333333335,85.75,9.339479166666667,64.32728814430156
1372685075.25,0.06906425,31.53916666666667,85.73333334186667,9.094765624999999,64.32728814430156
1372685075.5,0.069117625,31.537499999999998,85.71666666666667,8.710572916666667,64.32728814430156
1372685075.75,0.06927775,31.535833333333333,85.69999999146667,8.42578125,64.32728814430156
1372685076.0,0.069437875,31.534166666666664,85.68333333333334,8.199401041666667,64.32728814430156
1372685076.25,0.069544625,31.532500000000002,85.6666666752,7.807786458333333,64.32728814430156
1372685076.5,0.069651375,31.530833333333334,85.65,7.454088541666667,64.32728814430156
1372685076.75,0.069758125,31.53,85.6333333248,7.289869791666667,64.32728814430156
1372685077.0,0.069864875,31.53,85.61666666666667,6.848333333333334,64.32728814430156
1372685077.25,0.069971625,31.53,85.60000000853334,6.511875,64.32728814430156
1372685077.5,0.070078375,31.53,85.58333333333334,6.403723958333334,64.32728814430156
1372685077.75,0.070185125,31.53,85.56666665813334,6.041354166666667,64.32728814430156
1372685078.0,0.070291875,31.53,85.55000000000001,5.860078125,64.32728814430156
1372685078.25,0.07034525,31.53,85.53333334186668,5.883489583333334,64.32728814430156
1372685078.5,0.07034525,31.53,85.51666666666668,5.669713541666666,64.32728814430156
1372685078.75,0.0702385,31.53,85.49999999146668,5.747838541666667,64.32728814430156
1372685079.0,0.07013175,31.53,85.48333333333335,5.73578125,64.32728814430156
1372685079.25,0.07002499999999999,31.53,85.46666667520002,5.596744791666666,64.32728814430156
1372685079.5,0.06991825,31.53,85.45000000000002,5.756588541666667,64.32473632205976
1372685079.75,0.0698115,31.53,85.4333333248,5.780208333333333,64.32181995378342
1372685080.0,0.069651375,31.53,85.41666666666667,6.016588541666667,64.32145540774889
1372685080.25,0.0693845,31.53,85.40000000853333,6.188984375,64.32145540774887
1372685080.5,0.068904125,31.53,85.38333333333333,6.133984375,64.32145540774887
1372685080.75,0.06826362500000001,31.53,85.36666665813333,6.405651041666666,64.32270940295702
1372685081.0,0.06762312499999999,31.53,85.34999999999998,6.91453125,64.32157305742604
1372685081.25,0.06692925000000001,31.53,85.33333334186665,7.004635416666666,64.2999916937469
1372685081.5,0.066128625,31.53,85.31666666666666,7.4043229166666675,64.26617626631085
1372685081.75,0.065328,31.53,85.29999999146666,7.8851041666666655,64.24540721928003
1372685082.0,0.064420625,31.53,85.28333333333333,7.884947916666666,64.19465270222122
1372685082.25,0.06345987500000001,31.53,85.26833334101333,8.540286458333334,64.13054851416665
1372685082.5,0.06249912500000001,31.53,85.25333333333334,9.100807291666666,64.07909251486298
1372685082.75,0.06159175,31.53,85.23833332565334,9.049140625,64.01790469508475
1372685083.0,0.060684375000000006,31.53,85.22333333333334,9.406197916666667,63.94920478016268
1372685083.25,0.059830416666666664,31.53,85.21000000682668,10.007213541666667,63.88059125310625
1372685083.5,0.059136625,31.53,85.19666666666667,10.22453125,63.816487065051696
1372685083.75,0.058656291666666666,31.52916666666667,85.18333332650667,10.682578125,63.747972344487685
1372685084.0,0.05817595833333333,31.527500000000003,85.17,10.756640625000001,63.709047648833256
1372685084.25,0.057802374999999996,31.525833333333335,85.15833333930667,10.761666666666668,63.74292177375889
1372685084.5,0.05753554166666667,31.52416666666667,85.14666666666668,11.150442708333335,63.789029962441425
1372685084.75,0.057322083333333336,31.522499999999997,85.13499999402667,11.107942708333333,63.82209177071874
1372685085.0,0.057215375000000006,31.52083333333334,85.12333333333333,11.578177083333332,63.88513904902405
1372685085.25,0.05721541666666666,31.519166666666667,85.11333333845333,12.092968749999999,63.96153599832511
1372685085.5,0.05732216666666667,31.517500000000002,85.10333333333332,11.9525,64.02783658111709
1372685085.75,0.05737554166666666,31.515833333333333,85.09333332821333,12.555729166666666,64.10423353041813
1372685086.0,0.05758904166666667,31.514166666666668,85.08333333333333,12.918932291666666,64.18559075262124
1372685086.25,0.057962625,31.5125,85.07583333717332,12.512447916666666,64.26649704092416
1372685086.5,0.05838954166666666,31.510833333333338,85.06833333333333,12.764218749999998,64.34289399022522
1372685086.75,0.058816499999999994,31.51,85.06083332949333,12.737630208333334,64.42244747682757
1372685087.0,0.05929683333333333,31.51,85.05333333333333,12.224192708333332,64.47480127925948
1372685087.25,0.059777166666666666,31.51,85.04666667007999,12.393880208333334,64.4733464349503
1372685087.5,0.06031087499999999,31.51,85.03999999999999,12.094583333333333,64.47225530171839
1372685087.75,0.060897958333333335,31.51,85.03333332992,11.600885416666666,64.46970932417733
1372685088.0,0.06153841666666667,31.51,85.02666666666666,11.445156249999998,64.46425365801787
1372685088.25,0.06212550000000001,31.51,85.02250000213333,10.508151041666666,64.45843428078112
1372685088.5,0.0625525,31.51,85.01833333333332,9.99234375,64.45261490354436
1372685088.75,0.06297950000000001,31.51,85.01416666453332,9.629296875,64.44679552630761
1372685089.0,0.06329975,31.51,85.00999999999999,8.713385416666666,64.44097614907086
1372685089.25,0.06351325000000001,31.51,85.00750000128,8.501432291666665,64.43515677183412
1372685089.5,0.06372675000000001,31.51,85.005,8.274609374999999,64.42933739459737
1372685089.75,0.06388687500000001,31.51,85.00249999872,7.5780208333333325,64.42351801736062
1372685090.0,0.063993625,31.51,85.0,7.685390625,64.41769864012386
1372685090.25,0.064100375,31.51,84.99833333418667,7.509895833333334,64.41333410719629
1372685090.5,0.06415375000000001,31.51,84.99666666666667,7.026015624999999,64.40860586319144
1372685090.75,0.06415375000000001,31.51,84.99499999914667,7.2796875000000005,64.40533246349575
1372685091.0,0.064100375,31.51,84.99333333333334,6.957265625000001,64.40496875241847
1372685091.25,0.064047,31.51,84.99083333461334,6.872447916666666,64.40715101888225
1372685091.5,0.064047,31.51,84.98833333333334,7.255598958333334,64.41260668504171
1372685091.75,0.064047,31.510833333333338,84.98583333205333,6.963203125000001,64.41624379581468
1372685092.0,0.064100375,31.5125,84.98333333333333,7.145208333333334,64.41733492904656
1372685092.25,0.06426050000000001,31.514166666666668,84.97750000298666,7.478046875,64.41769864012386
1372685092.5,0.064313875,31.515833333333333,84.97166666666666,7.182682291666667,64.41769864012386
1372685092.75,0.06436725,31.517500000000002,84.96583333034667,7.438255208333334,64.41769864012386
1372685093.0,0.064313875,31.519166666666667,84.96,7.642135416666666,64.41769864012386
1372685093.25,0.06426050000000001,31.52083333333334,84.95500000256,7.425130208333333,64.41769864012386
1372685093.5,0.06426050000000001,31.522499999999997,84.94999999999999,7.723932291666667,64.41769864012386
1372685093.75,0.0642605,31.52416666666667,84.94499999744,7.716614583333333,64.41769864012387
1372685094.0,0.06415375,31.525833333333335,84.94,7.488203125000001,64.41769864012386
1372685094.25,0.06399362500000001,31.527500000000003,84.93166667093334,7.305833333333333,64.41551637366008
1372685094.5,0.0638335,31.52916666666667,84.92333333333335,6.400625000000001,64.41006070750062
1372685094.75,0.063673375,31.52916666666667,84.91499999573334,6.256510416666667,64.40642359672766
1372685095.0,0.063353125,31.527500000000003,84.90666666666668,6.839947916666667,64.40533246349575
1372685095.25,0.06212554166666667,31.525833333333335,84.89416667306668,6.539010416666667,64.40440243388062
1372685095.5,0.060204125,31.52416666666667,84.88166666666667,6.503802083333333,64.4042405700544
1372685095.75,0.057802374999999996,31.522499999999997,84.86916666026667,6.790807291666667,64.40484704726792
1372685096.0,0.055080416666666666,31.52083333333334,84.85666666666667,5.960416666666667,64.4054939562957
1372685096.25,0.05235845833333333,31.519166666666667,84.835833344,4.9477343750000005,64.40614086532345
1372685096.5,0.049583125,31.517500000000002,84.815,4.408463541666667,64.40678777435123
1372685096.75,0.046807791666666675,31.515833333333333,84.794166656,3.447109375,64.40743468337898
1372685097.0,0.044299291666666664,31.514166666666668,84.77333333333333,2.9253125000000004,64.40808159240676
1372685097.25,0.04184416666666666,31.512500000000003,84.74500001450666,3.2973697916666667,64.40872850143452
1372685097.5,0.039549125,31.510833333333338,84.71666666666667,3.791015625,64.40937541046229
1372685097.75,0.037254083333333333,31.51,84.68833331882666,3.539739583333333,64.41002231949005
1372685098.0,0.035065791666666665,31.51,84.66,2.459895833333333,64.41066922851782
1372685098.25,0.03367808333333333,31.51,84.62416668501334,1.65453125,64.41188245608343
1372685098.5,0.03314433333333333,31.51,84.58833333333334,1.3365625,64.41269122893742
1372685098.75,0.03319766666666666,31.51,84.55249998165333,0.6390364583333333,64.41273166075166
1372685099.0,0.03378470833333334,31.51,84.51666666666667,0.943203125,64.41313583279891
1372685099.25,0.034425124999999994,31.51,84.47583335424,2.2550260416666665,64.41515669303519
1372685099.5,0.035118916666666666,31.51,84.435,2.93703125,64.41576295110607
1372685099.75,0.03586608333333333,31.51,84.39416664576001,3.8168489583333334,64.41576295110607
1372685100.0,0.03645316666666667,31.51,84.35333333333334,5.083255208333333,64.41576295110607
1372685100.25,0.037093625,31.51,84.31083335509334,5.289322916666667,64.41576295110607
1372685100.5,0.03768075,31.51,84.26833333333335,5.698255208333333,64.41576295110607
1372685100.75,0.038267875,31.50916666666667,84.22583331157334,6.66046875,64.41576295110607
1372685101.0,0.038961749999999996,31.507500000000004,84.18333333333334,7.399244791666667,64.41576295110607
1372685101.25,0.03965562500000001,31.50583333333334,84.141666688,8.6478125,64.41576295110607
1372685101.5,0.040402875,31.504166666666666,84.1,9.461432291666666,64.41576295110607
1372685101.75,0.04109675,31.50333333333333,84.058333312,9.982421875,64.41576295110607
1372685102.0,0.041683875,31.503333333333334,84.01666666666667,10.652161458333333,64.41535877905882
1372685102.25,0.042217625,31.503333333333334,83.97666668714666,10.563411458333333,64.41333791882255
1372685102.5,0.04269800000000001,31.503333333333334,83.93666666666667,10.245572916666665,64.41273166075166
1372685102.75,0.043125,31.503333333333334,83.89666664618667,10.471041666666666,64.41273166075166
1372685103.0,0.043552,31.50333333333333,83.85666666666667,9.969609375,64.41273166075166
1372685103.25,0.043925624999999996,31.503333333333334,83.81916668586666,9.598125000000001,64.41273166075166
1372685103.5,0.0441925,31.503333333333334,83.78166666666667,9.606197916666666,64.41273166075166
1372685103.75,0.044459374999999995,31.504166666666666,83.74416664746667,8.994270833333333,64.41273166075166
1372685104.0,0.044672875,31.50583333333333,83.70666666666666,8.750833333333333,64.41273166075166
1372685104.25,0.04493975,31.507499999999997,83.6733333504,8.424817708333334,64.41273166075166
1372685104.5,0.045099875000000005,31.50916666666667,83.63999999999999,7.790781249999999,64.41273166075166
1372685104.75,0.045259999999999995,31.51,83.60666664959999,7.723541666666666,64.41273166075166
1372685105.0,0.0454735,31.51,83.57333333333332,7.211744791666667,64.41273166075166
1372685105.25,0.045793749999999994,31.51,83.54583334741332,6.725911458333333,64.41273166075166
1372685105.5,0.046113999999999995,31.51,83.51833333333332,6.906484375000001,64.41273166075166
1372685105.75,0.046487625000000005,31.51,83.49083331925333,6.373854166666667,64.41273166075166
1372685106.0,0.04691462500000001,31.51,83.46333333333332,6.032786458333333,64.41273166075166
1372685106.25,0.047341625,31.51,83.44250001066666,6.225338541666666,64.41273166075166
1372685106.5,0.047822,31.51,83.42166666666665,5.640052083333334,64.41273166075166
1372685106.75,0.04835575,31.51,83.40083332266666,5.5459375,64.41273166075166
1372685107.0,0.04883612500000001,31.51,83.38,5.625729166666667,64.41273166075166
1372685107.25,0.04931649999999999,31.51,83.36583334058666,5.162916666666667,64.41273166075166
1372685107.5,0.049743499999999996,31.51,83.35166666666666,5.472786458333332,64.41273166075166
1372685107.75,0.050117125000000005,31.51,83.33749999274667,5.356848958333333,64.41273166075166
1372685108.0,0.050437375,31.51,83.32333333333334,5.267890625000001,64.41273166075166
1372685108.25,0.050650875000000005,31.51,83.31583333717333,5.853619791666667,64.41273166075166
1372685108.5,0.050864374999999996,31.51,83.30833333333334,5.707656249999999,64.41273166075166
1372685108.75,0.0510245,31.51,83.30083332949334,5.954166666666667,64.41273166075166
1372685109.0,0.051131249999999996,31.51,83.29333333333334,6.628385416666667,64.41273166075166
1372685109.25,0.051238000000000006,31.51,83.29000000170667,6.508151041666667,64.41273166075166
1372685109.5,0.051291375,31.51,83.28666666666666,6.986536458333333,64.41273166075166
1372685109.75,0.051291375,31.51,83.28333333162666,7.447317708333333,64.41273166075166
1372685110.0,0.051238,31.51,83.28,7.3296874999999995,64.41273166075166
1372685110.25,0.051131249999999996,31.51,83.28,7.947005208333334,64.41273166075166
1372685110.5,0.051131249999999996,31.51,83.28,7.971015625,64.41273166075166
1372685110.75,0.051131249999999996,31.51,83.28,8.008802083333334,64.41273166075166
1372685111.0,0.051184625000000004,31.51,83.28,8.461432291666666,64.41273166075166
1372685111.25,0.051238,31.51,83.28333333162666,8.261484375,64.41273166075166
1372685111.5,0.051398124999999996,31.51,83.28666666666666,8.409453125,64.41273166075166
1372685111.75,0.051611624999999994,31.51,83.29000000170667,8.663281249999999,64.41273166075166
1372685112.0,0.051825125,31.51,83.29333333333334,8.254609375,64.41273166075166
1372685112.25,0.052038625,31.51,83.29666666496,8.327760416666667,64.41273166075166
1372685112.5,0.052252125,31.51,83.3,8.199947916666666,64.41273166075166
1372685112.75,0.052465624999999995,31.51,83.30333333504,7.6883333333333335,64.41273166075166
1372685113.0,0.052732499999999995,31.51,83.30666666666666,7.776432291666667,64.41273166075166
1372685113.25,0.05299937500000001,31.51,83.3108333312,7.388489583333333,64.41273166075166
1372685113.5,0.053212875,31.51,83.315,7.037838541666667,64.41273166075166
1372685113.75,0.053426375,31.51,83.3191666688,7.1176562500000005,64.41273166075166
1372685114.0,0.0535865,31.51,83.32333333333334,6.612916666666666,64.41273166075166
1372685114.25,0.053746625,31.51,83.32749999786667,6.328984375,64.41273166075166
1372685114.5,0.053853375,31.51,83.33166666666666,6.266640625000001,64.41273166075166
1372685114.75,0.05390675,31.51,83.33583333546666,5.6148958333333345,64.41273166075166
1372685115.0,0.053960125,31.51,83.33999999999999,5.506484374999999,64.41273166075166
1372685115.25,0.0540135,31.51,83.34833332906666,5.493437499999999,64.41273166075166
1372685115.5,0.054173624999999996,31.51,83.35666666666665,5.186770833333333,64.41273166075166
1372685115.75,0.05433375000000001,31.51,83.36500000426666,5.544557291666666,64.41273166075166
1372685116.0,0.05460058333333334,31.51,83.37333333333333,5.6953125,64.41273166075166
1372685116.25,0.05492075,31.51,83.38499999402667,5.853619791666667,64.41273166075166
1372685116.5,0.05524091666666667,31.51,83.39666666666668,6.332630208333332,64.41273166075166
1372685116.75,0.05556108333333334,31.51,83.40833333930667,6.495442708333333,64.41273166075166
1372685117.0,0.055827916666666665,31.51,83.42,6.941822916666667,64.41273166075166
1372685117.25,0.05604141666666667,31.51,83.43333332650667,7.384270833333333,64.41273166075166
1372685117.5,0.056148166666666666,31.51,83.44666666666667,7.605833333333333,64.41273166075166
1372685117.75,0.056254916666666675,31.51,83.46000000682668,8.200182291666666,64.41273166075166
1372685118.0,0.056415041666666665,31.51,83.47333333333334,8.536796875,64.41273166075166
1372685118.25,0.0566285,31.51,83.48833332565334,8.721432291666668,64.41273166075166
1372685118.5,0.056681875,31.51,83.50333333333333,9.184296875,64.41273166075166
1372685118.75,0.056735249999999994,31.51,83.51833334101332,9.256588541666668,64.41273166075166
1372685119.0,0.056681916666666665,31.51,83.53333333333332,9.293619791666666,64.41273166075166
1372685119.25,0.05657525,31.51,83.54833332565333,9.450260416666666,64.41273166075166
1372685119.5,0.05646858333333333,31.51,83.56333333333333,9.430364583333333,64.41273166075166
1372685119.75,0.05636191666666667,31.51,83.57833334101333,9.409869791666665,64.41273166075166
1372685120.0,0.056308583333333335,31.51,83.59333333333335,9.417213541666666,64.41273166075166
1372685120.25,0.056308583333333335,31.51,83.60583332693335,9.481380208333333,64.41273166075166
1372685120.5,0.05641529166666667,31.51,83.61833333333334,9.446197916666666,64.41273166075166
1372685120.75,0.056521999999999996,31.50916666666667,83.63083333973333,9.423802083333332,64.41273166075166
1372685121.0,0.05657533333333334,31.507499999999997,83.64333333333333,9.52171875,64.41273166075166
1372685121.25,0.05657533333333334,31.50583333333333,83.65416666112,9.508333333333333,64.41273166075166
1372685121.5,0.05662866666666667,31.504166666666666,83.665,9.474401041666665,64.41273166075166
1372685121.75,0.056682,31.5025,83.67583333888001,9.511067708333332,64.41273166075166
1372685122.0,0.05678866666666666,31.500833333333336,83.68666666666668,9.461588541666666,64.41273166075166
1372685122.25,0.056895333333333326,31.499166666666664,83.69666666154669,9.400911458333333,64.41273166075166
1372685122.5,0.05694866666666667,31.4975,83.70666666666668,9.403828125,64.41273166075166
1372685122.75,0.05694866666666667,31.495833333333334,83.71666667178667,9.409036458333334,64.41273166075166
1372685123.0,0.057002,31.49416666666667,83.72666666666667,9.421067708333334,64.41273166075166
1372685123.25,0.057055333333333326,31.492500000000003,83.73499999573335,9.391484375,64.41273166075166
1372685123.5,0.057055333333333326,31.490833333333327,83.74333333333334,9.4653125,64.41273166075166
1372685123.75,0.05710866666666666,31.49,83.75166667093333,9.529166666666667,64.41273166075166
1372685124.0,0.057162,31.49,83.76,9.485,64.41273166075166
1372685124.25,0.057162,31.49,83.76583333034667,9.700182291666666,64.41273166075166
1372685124.5,0.05721533333333333,31.49,83.77166666666668,9.951953125,64.41273166075166
1372685124.75,0.05726866666666666,31.49,83.77750000298667,9.940859375,64.41273166075166
1372685125.0,0.05726866666666666,31.49,83.78333333333333,10.171432291666667,64.41273166075166
1372685125.25,0.05726866666666667,31.49,83.78583333205333,10.506015625,64.41273166075166
1372685125.5,0.057322000000000005,31.49,83.78833333333333,10.390234375,64.41273166075166
1372685125.75,0.05742866666666666,31.49083333333333,83.79083333461334,10.40734375,64.41273166075166
1372685126.0,0.057535375,31.492499999999996,83.79333333333334,10.5096875,64.41273166075166
1372685126.25,0.05769545833333334,31.49416666666666,83.79250000042667,10.221223958333333,64.41273166075166
1372685126.5,0.05785554166666667,31.495833333333337,83.79166666666667,9.951614583333333,64.41273166075166
1372685126.75,0.057962291666666665,31.497500000000002,83.79083333290667,9.792526041666667,64.41273166075166
1372685127.0,0.05806904166666666,31.499166666666667,83.79,9.3884375,64.41273166075166
1372685127.25,0.05822912499999999,31.500833333333333,83.78333333674667,8.798776041666667,64.41273166075166
1372685127.5,0.058335875,31.502499999999998,83.77666666666667,8.327135416666666,64.41273166075166
1372685127.75,0.058442625000000005,31.50333333333333,83.76999999658668,7.911328125,64.41273166075166
1372685128.0,0.05854937500000001,31.503333333333334,83.76333333333334,7.28921875,64.41273166075166
1372685128.25,0.058656125,31.503333333333334,83.75083333973333,6.646614583333334,64.41273166075166
1372685128.5,0.058762875,31.503333333333334,83.73833333333334,6.342265625,64.41273166075166
1372685128.75,0.058869625,31.502499999999998,83.72583332693334,5.879296874999999,64.41273166075166
1372685129.0,0.058923,31.500833333333333,83.71333333333334,5.235078125,64.41273166075166
1372685129.25,0.058923,31.499166666666667,83.69916667392,4.985052083333334,64.41273166075166
1372685129.5,0.058869625,31.497500000000002,83.685,4.754427083333334,64.41273166075166
1372685129.75,0.058762875,31.495833333333334,83.67083332608,4.2882291666666665,64.41273166075166
1372685130.0,0.058709500000000005,31.49416666666667,83.65666666666667,4.261223958333334,64.41273166075166
1372685130.25,0.058656124999999996,31.492499999999996,83.64250000725333,4.317291666666667,64.41273166075166
1372685130.5,0.05860275,31.49083333333333,83.62833333333333,4.029427083333333,64.41273166075166
1372685130.75,0.05860275,31.49083333333333,83.61416665941334,4.209427083333334,64.41273166075166
1372685131.0,0.05860275,31.492499999999996,83.60000000000001,4.483489583333333,64.41273166075166
1372685131.25,0.05860275,31.49416666666667,83.58583334058667,4.449427083333333,64.41273166075166
1372685131.5,0.058656125,31.495833333333334,83.57166666666667,4.864713541666666,64.41273166075166
1372685131.75,0.058762875,31.497500000000002,83.55749999274667,5.350625,64.41273166075166
1372685132.0,0.058869625,31.499166666666667,83.54333333333334,5.710651041666666,64.41273166075166
1372685132.25,0.058976375,31.500833333333333,83.52916667392,6.364166666666666,64.41273166075166
1372685132.5,0.05913650000000001,31.502499999999998,83.515,6.880781250000001,64.41273166075166
1372685132.75,0.05934999999999999,31.50333333333333,83.50083332608,7.479114583333334,64.41273166075166
1372685133.0,0.059510125,31.50333333333333,83.48666666666666,8.243020833333333,64.41273166075166
1372685133.25,0.05967025000000001,31.503333333333334,83.47250000725333,8.619635416666666,64.41273166075166
1372685133.5,0.059883750000000006,31.503333333333334,83.45833333333334,9.274270833333334,64.41273166075166
1372685133.75,0.06009725,31.5025,83.44416665941334,9.844088541666666,64.41273166075166
1372685134.0,0.060257375,31.500833333333336,83.43,10.014635416666666,64.41273166075166
1372685134.25,0.06041749999999999,31.499166666666664,83.41916667221334,10.577343749999999,64.41273166075166
1372685134.5,0.060577624999999996,31.4975,83.40833333333333,10.896197916666667,64.41273166075166
1372685134.75,0.06073775,31.495833333333334,83.39749999445334,10.757421875,64.41273166075166
1372685135.0,0.060951250000000005,31.49416666666667,83.38666666666667,11.034947916666667,64.41273166075166
1372685135.25,0.06116475,31.492500000000003,83.38000000341333,10.999583333333334,64.41273166075166
1372685135.5,0.061378249999999995,31.490833333333327,83.37333333333333,10.680286458333333,64.41273166075166
1372685135.75,0.06159175,31.49,83.36666666325334,10.629687500000001,64.41273166075166
1372685136.0,0.06180525,31.49,83.36,9.804765625,64.41273166075166
1372685136.25,0.06201874999999999,31.49,83.35750000128,9.005677083333333,64.41220597404508
1372685136.5,0.062178875,31.49,83.35499999999999,8.350494791666666,64.40415430367041
1372685136.75,0.062178874999999995,31.489166666666662,83.35249999871999,7.472109375,64.39403738668825
1372685137.0,0.06207216666666667,31.487499999999997,83.35,7.246875,64.38367746844075
1372685137.25,0.061645250000000006,31.485833333333332,83.35,6.800260416666667,64.37331755019326
1372685137.5,0.061004833333333335,31.484166666666667,83.35,5.7684375,64.36295763194576
1372685137.75,0.06025766666666666,31.482499999999998,83.35,5.306119791666666,64.35259771369827
1372685138.0,0.05940375,31.480833333333333,83.35,4.745598958333334,64.34223779545077
1372685138.25,0.058549833333333336,31.47916666666666,83.35,3.8118489583333335,64.33187787720328
1372685138.5,0.05769591666666667,31.477500000000003,83.35,3.6181250000000005,64.32151795895578
1372685138.75,0.056842000000000004,31.476666666666663,83.35,3.107552083333333,64.31115804070829
1372685139.0,0.055988083333333334,31.476666666666663,83.35,3.1489583333333333,64.30079812246079
1372685139.25,0.05518754166666667,31.476666666666663,83.34750000128,3.8244531250000002,64.29096389091988
1372685139.5,0.05444037499999999,31.476666666666663,83.345,4.1271354166666665,64.28865564304705
1372685139.75,0.05379995833333334,31.477500000000003,83.34249999871999,4.318020833333334,64.28841264178172
1372685140.0,0.053319625,31.479166666666668,83.33999999999999,4.123385416666666,64.28841264178172
1372685140.25,0.0531595,31.480833333333333,83.33333333674666,3.9457552083333334,64.28841264178172
1372685140.5,0.053159500000000005,31.482499999999998,83.32666666666665,4.719713541666667,64.29209593555086
1372685140.75,0.05326625000000001,31.484166666666667,83.31999999658666,5.368463541666667,64.30051489273747
1372685141.0,0.05347975,31.485833333333332,83.31333333333333,5.703671875,64.30893384992407
1372685141.25,0.053639875,31.4875,83.30333333845333,6.830989583333333,64.31735280711068
1372685141.5,0.053853375,31.489166666666662,83.29333333333332,7.256484374999999,64.32577176429729
1372685141.75,0.05406687499999999,31.49,83.28333332821333,7.93703125,64.33419072148389
1372685142.0,0.054280375,31.49,83.27333333333333,8.696328124999999,64.3426096786705
1372685142.25,0.0544405,31.49,83.26166667263999,8.707708333333333,64.3510286358571
1372685142.5,0.05460062500000001,31.49,83.25,9.324895833333333,64.35944759304371
1372685142.75,0.05476075,31.49,83.23833332736001,9.926380208333333,64.36786655023032
1372685143.0,0.054920875,31.49,83.22666666666667,10.258046875,64.37628550741692
1372685143.25,0.055134375000000006,31.49,83.21666667178667,11.101536458333333,64.38470446460353
1372685143.5,0.055347875,31.49,83.20666666666668,11.096432291666666,64.389440128021
1372685143.75,0.055508,31.49,83.19666666154669,10.844088541666666,64.389440128021
1372685144.0,0.05561475,31.49,83.18666666666668,11.142265625,64.389440128021
1372685144.25,0.05582820833333333,31.49,83.17583333888001,10.589296875,64.389440128021
1372685144.5,0.056148375,31.49,83.165,10.499791666666667,64.389440128021
1372685144.75,0.05657529166666667,31.49,83.15416666112,10.279453125,64.389440128021
1372685145.0,0.05700220833333333,31.49,83.14333333333333,9.516250000000001,64.389440128021
1372685145.25,0.057429125,31.49,83.13250000554666,9.465989583333334,64.389440128021
1372685145.5,0.05780266666666667,31.49,83.12166666666667,8.909583333333334,64.389440128021
1372685145.75,0.05817620833333333,31.49,83.11083332778668,8.22234375,64.389440128021
1372685146.0,0.058549750000000005,31.49,83.10000000000001,8.196354166666667,64.389440128021
1372685146.25,0.05886991666666667,31.49,83.08916667221334,7.554453124999999,64.389440128021
1372685146.5,0.05924345833333333,31.49,83.07833333333333,7.058776041666666,64.389440128021
1372685146.75,0.059670375,31.49,83.06749999445333,7.055416666666667,64.389440128021
1372685147.0,0.06009729166666667,31.49,83.05666666666666,6.562526041666666,64.389440128021
1372685147.25,0.06047087500000001,31.49,83.04666667178665,6.390729166666667,64.389440128021
1372685147.5,0.06068437499999999,31.49,83.03666666666666,6.299739583333333,64.389440128021
1372685147.75,0.06073775,31.49,83.02666666154667,6.029557291666666,64.389440128021
1372685148.0,0.0608445,31.49,83.01666666666667,6.142239583333333,64.389440128021
1372685148.25,0.06095124999999999,31.49,83.01000000341332,6.057317708333334,64.389440128021
1372685148.5,0.061057999999999994,31.49,83.00333333333333,5.864244791666667,64.389440128021
1372685148.75,0.06116475,31.49,82.99666666325334,5.9190885416666665,64.389440128021
1372685149.0,0.06121812499999999,31.49,82.99,5.695520833333334,64.389440128021
1372685149.25,0.06116475,31.49,82.98583333546667,5.609453125000001,64.389440128021
1372685149.5,0.061058,31.49,82.98166666666667,5.742447916666667,64.389440128021
1372685149.75,0.060897875,31.49,82.97749999786667,5.670000000000001,64.389440128021
1372685150.0,0.06073775,31.49,82.97333333333334,5.689453125,64.3891165564901
1372685150.25,0.060631,31.49,82.97083333461333,5.817526041666667,64.38863119919375
1372685150.5,0.06052425,31.49,82.96833333333333,5.772343750000001,64.38798405613197
1372685150.75,0.060470875,31.49,82.96583333205334,5.85796875,64.38733691307017
1372685151.0,0.060364125,31.49,82.96333333333332,5.9540625,64.38668977000837
1372685151.25,0.06020400000000001,31.49,82.9591666688,5.923046875,64.38604262694658
1372685151.5,0.060043875000000003,31.49,82.955,5.9406510416666665,64.38539548388479
1372685151.75,0.05993712500000001,31.489166666666666,82.9508333312,6.107395833333334,64.38474834082301
1372685152.0,0.0599905,31.487499999999997,82.94666666666667,6.229557291666667,64.38410119776121
1372685152.25,0.060310749999999996,31.48583333333333,82.93916667050667,6.149791666666666,64.38345405469941
1372685152.5,0.06073775,31.484166666666667,82.93166666666667,6.302395833333333,64.38280691163763
1372685152.75,0.06116475,31.482499999999998,82.92416666282668,6.3792968750000005,64.38215976857585
1372685153.0,0.06159175,31.480833333333333,82.91666666666667,6.274843750000001,64.38183619704493
1372685153.25,0.062072125,31.479166666666668,82.9083333376,6.405234374999999,64.38167441127949
1372685153.5,0.062605875,31.477499999999996,82.9,6.43671875,64.38167441127949
1372685153.75,0.06324637500000001,31.475833333333338,82.8916666624,6.336432291666667,64.38167441127949
1372685154.0,0.064047,31.474166666666665,82.88333333333333,6.441979166666667,64.38167441127949
1372685154.25,0.06500775,31.472499999999997,82.87583333717332,6.497239583333335,64.38167441127949
1372685154.5,0.06607525,31.47083333333333,82.86833333333333,6.714401041666668,64.38167441127949
1372685154.75,0.06714275,31.47,82.86083332949333,6.973151041666667,64.38167441127949
1372685155.0,0.068156875,31.47,82.85333333333332,7.062604166666667,64.38167441127949
1372685155.25,0.07098566666666667,31.47,82.8491666688,7.417786458333334,64.38167441127949
1372685155.5,0.07648308333333334,31.47,82.845,7.66265625,64.38167441127949
1372685155.75,0.08283445833333335,31.47,82.84083333119999,7.7187239583333325,64.38167441127949
1372685156.0,0.08918583333333334,31.47,82.83666666666666,8.065755208333334,64.38167441127949
1372685156.25,0.09543045833333334,31.47,82.83666666666666,8.355963541666666,64.38167441127949
1372685156.5,0.10162170833333334,31.47,82.83666666666666,8.547604166666668,64.38167441127949
1372685156.75,0.10770620833333333,31.47083333333333,82.83666666666666,8.979375000000001,64.38167441127949
1372685157.0,0.11368395833333333,31.472499999999997,82.83666666666666,9.27609375,64.38167441127949
1372685157.25,0.11960833333333336,31.47416666666666,82.84249999701333,9.474791666666667,64.38167441127949
1372685157.5,0.12542595833333334,31.47583333333333,82.84833333333333,9.738645833333333,64.38167441127949
1372685157.75,0.13119020833333336,31.47666666666667,82.85416666965332,9.866380208333334,64.38167441127949
1372685158.0,0.1369010833333333,31.476666666666663,82.86,10.033515625,64.38167441127949
1372685158.25,0.14063716666666667,31.47666666666667,82.87166666069334,10.149036458333333,64.38167441127949
1372685158.5,0.141597875,31.476666666666663,82.88333333333334,10.097786458333333,64.38167441127949
1372685158.75,0.141704625,31.477500000000003,82.89500000597334,10.346067708333333,64.38167441127949
1372685159.0,0.141811375,31.479166666666668,82.90666666666668,10.431354166666667,64.38167441127949
1372685159.25,0.141918125,31.480833333333326,82.92083332608001,10.224635416666667,64.38167441127949
1372685159.5,0.14202487500000002,31.482499999999998,82.935,10.228020833333334,64.38167441127949
1372685159.75,0.142131625,31.48333333333333,82.94916667391999,10.076458333333333,64.38167441127949
1372685160.0,0.142185,31.483333333333334,82.96333333333332,9.715885416666666,64.38167441127949
1372685160.25,0.142185,31.483333333333334,82.97749999274666,9.406328125,64.38167441127949
1372685160.5,0.142185,31.48333333333333,82.99166666666666,8.963723958333333,64.38167441127949
1372685160.75,0.142185,31.484166666666663,83.00583334058666,8.437526041666667,64.38167441127949
1372685161.0,0.142185,31.485833333333332,83.02,7.990442708333333,64.38167441127949
1372685161.25,0.142185,31.487499999999997,83.0324999936,7.597578124999999,64.38167441127949
1372685161.5,0.142185,31.489166666666666,83.04499999999999,7.231380208333333,64.38167441127949
1372685161.75,0.142185,31.489166666666662,83.05750000639999,6.6554947916666665,64.38167441127949
1372685162.0,0.142185,31.487499999999997,83.07,6.263125,64.38167441127949
1372685162.25,0.142185,31.485833333333332,83.0824999936,6.012994791666667,64.38167441127949
1372685162.5,0.142185,31.484166666666667,83.095,5.4503385416666665,64.38167441127949
1372685162.75,0.142185,31.482499999999998,83.1075000064,5.20640625,64.38167441127949
1372685163.0,0.142185,31.480833333333333,83.12,5.0980468750000005,64.38167441127949
1372685163.25,0.142185,31.47916666666666,83.13083332778668,5.034843749999999,64.38167441127949
1372685163.5,0.142185,31.477500000000003,83.14166666666668,5.238046875,64.38167441127949
1372685163.75,0.142185,31.47583333333333,83.15250000554667,5.390052083333334,64.38167441127949
1372685164.0,0.142185,31.474166666666665,83.16333333333334,5.462760416666668,64.38167441127949
1372685164.25,0.142185,31.472499999999997,83.16999999658667,5.735338541666667,64.38167441127949
1372685164.5,0.142238375,31.47083333333333,83.17666666666668,5.917526041666666,64.38167441127949
1372685164.75,0.14229175,31.47,83.18333333674667,6.074869791666667,64.38167441127949
1372685165.0,0.1423985,31.47,83.19,6.426848958333334,64.38167441127949
1372685165.25,0.14250525,31.47,83.19249999872,6.627161458333334,64.38167441127949
1372685165.5,0.142612,31.47,83.195,7.007916666666667,64.38167441127949
1372685165.75,0.14271875,31.469166666666666,83.19750000128,7.362682291666666,64.38167441127949
1372685166.0,0.1428255,31.467499999999998,83.2,7.607343750000001,64.38167441127949
1372685166.25,0.14293225,31.465833333333336,83.19583333546667,7.972578124999999,64.38167441127949
1372685166.5,0.143039,31.464166666666667,83.19166666666666,8.246796875,64.38167441127949
1372685166.75,0.14314575,31.463333333333335,83.18749999786667,8.467057291666666,64.38167441127949
1372685167.0,0.1432525,31.463333333333335,83.18333333333334,8.916875,64.38167441127949
1372685167.25,0.14335925,31.463333333333335,83.17333333845333,9.319218750000001,64.38167441127949
1372685167.5,0.14341262500000002,31.463333333333335,83.16333333333333,9.545859375000001,64.38713007886271
1372685167.75,0.143466,31.463333333333335,83.15333332821334,9.942630208333332,64.39016100529784
1372685168.0,0.143412625,31.463333333333335,83.14333333333333,10.244296875,64.39339416393979
1372685168.25,0.14335925000000002,31.463333333333335,83.1266666752,10.325286458333332,64.39723350786875
1372685168.5,0.1432525,31.463333333333335,83.11,10.575859374999999,64.40693247246115
1372685168.75,0.14314575,31.464166666666667,83.0933333248,10.658541666666666,64.41663143705357
1372685169.0,0.143039,31.465833333333336,83.07666666666667,10.535598958333333,64.42633040164597
1372685169.25,0.14293225,31.467499999999998,83.05750000981334,10.488203125,64.43602936623837
1372685169.5,0.14282550000000002,31.469166666666666,83.03833333333333,10.333125,64.44572833083079
1372685169.75,0.14271875,31.47,83.01916665685333,10.110989583333334,64.45542729542319
1372685170.0,0.142612,31.47,83.0,9.946979166666667,64.46512626001561
1372685170.25,0.14250525,31.47,82.98083334314667,9.625104166666667,64.47482522460801
1372685170.5,0.1423985,31.47,82.96166666666667,9.299010416666667,64.4790685216172
1372685170.75,0.14229175000000002,31.47,82.94249999018666,9.123463541666666,64.48573655977448
1372685171.0,0.142238375,31.47,82.92333333333333,8.765442708333333,64.49220236572494
1372685171.25,0.142185,31.47,82.90416667647999,8.455520833333333,64.4980619863884
1372685171.5,0.142185,31.47,82.88499999999999,8.306458333333333,64.4980619863884
1372685171.75,0.142185,31.47,82.86583332352,7.995416666666666,64.4980619863884
1372685172.0,0.142185,31.47,82.84666666666665,7.824583333333333,64.4980619863884
1372685172.25,0.142185,31.47,82.82833334271999,7.86421875,64.4980619863884
1372685172.5,0.142185,31.47,82.80999999999999,7.673307291666666,64.4980619863884
1372685172.75,0.142185,31.47,82.79166665727999,7.559765625000001,64.4980619863884
1372685173.0,0.142185,31.47,82.77333333333333,7.606901041666667,64.49858684142067
1372685173.25,0.142238375,31.47,82.75416667648,7.456901041666666,64.49923281684502
1372685173.5,0.142238375,31.47,82.735,7.416171875000001,64.49987879226937
1372685173.75,0.142238375,31.47,82.71583332352,7.514791666666667,64.50052476769372
1372685174.0,0.142238375,31.47,82.69666666666667,7.478411458333333,64.50117074311807
1372685174.25,0.142238375,31.47,82.67666667690666,7.695416666666667,64.50181671854241
1372685174.5,0.142238375,31.47,82.65666666666667,7.970755208333333,64.50246269396676
1372685174.75,0.14229175000000002,31.469166666666666,82.63666665642667,8.1315625,64.50310866939111
1372685175.0,0.1423985,31.467499999999998,82.61666666666666,8.548151041666666,64.50375464481546
1372685175.25,0.14250525,31.465833333333332,82.595833344,8.85140625,64.50440062023979
1372685175.5,0.142612,31.464166666666667,82.575,9.017604166666667,64.50504659566415
1372685175.75,0.142665375,31.462500000000002,82.554166656,9.485624999999999,64.50569257108849
1372685176.0,0.142772125,31.46083333333333,82.53333333333335,9.831536458333334,64.50581369148055
1372685176.25,0.1428255,31.459166666666665,82.51250001066667,10.025442708333333,64.50581369148055
1372685176.5,0.14293225,31.457499999999996,82.49166666666667,10.509791666666667,64.50581369148055
1372685176.75,0.143039,31.455833333333334,82.47083332266668,10.813046875,64.50581369148055
1372685177.0,0.14314575,31.454166666666666,82.45,10.903984375,64.50573294455252
1372685177.25,0.1432525,31.4525,82.43083334314667,11.190520833333332,64.5057329445525
1372685177.5,0.14335925000000002,31.450833333333332,82.41166666666666,11.166640625,64.50569257108849
1372685177.75,0.14341262500000002,31.45,82.39249999018666,11.084947916666666,64.50565219762446
1372685178.0,0.14341262500000002,31.45,82.37333333333333,11.169192708333332,64.50565219762447
1372685178.25,0.143412625,31.45,82.3566666752,10.865911458333334,64.50565219762447
1372685178.5,0.14341262500000002,31.45,82.34,10.685026041666667,64.50565219762446
1372685178.75,0.143466,31.450833333333332,82.3233333248,10.709557291666668,64.50565219762447
1372685179.0,0.143466,31.4525,82.30666666666667,10.297552083333333,64.50565219762447
1372685179.25,0.143466,31.454166666666666,82.29500000597334,9.964817708333333,64.50565219762446
1372685179.5,0.143466,31.455833333333334,82.28333333333333,9.936562499999999,64.50565219762447
1372685179.75,0.143466,31.457499999999996,82.27166666069334,9.438489583333334,64.50565219762446
1372685180.0,0.143466,31.459166666666665,82.26,9.190364583333333,64.50573294455252
1372685180.25,0.143466,31.46083333333333,82.25416666965333,9.1621875,64.50573294455252
1372685180.5,0.143466,31.462500000000002,82.24833333333333,8.776380208333334,64.50577331801652
1372685180.75,0.143466,31.463333333333335,82.24249999701334,8.881041666666667,64.50581369148055
1372685181.0,0.143519375,31.463333333333335,82.23666666666666,8.78515625,64.50581369148055
1372685181.25,0.14357275,31.463333333333328,82.23500000085333,8.475624999999999,64.50581369148055
1372685181.5,0.14362612500000002,31.463333333333335,82.23333333333333,8.749765625,64.50581369148055
1372685181.75,0.143732875,31.462500000000002,82.23166666581334,8.609557291666667,64.50581369148055
1372685182.0,0.143839625,31.46083333333333,82.23,8.485130208333333,64.50581369148055
1372685182.25,0.143946375,31.459166666666665,82.23333333162667,9.023125,64.50581369148055
1372685182.5,0.14405312499999998,31.457499999999996,82.23666666666666,8.803385416666666,64.50581369148055
1372685182.75,0.144159875,31.456666666666667,82.24000000170666,8.790052083333334,64.50581369148055
1372685183.0,0.14426662499999998,31.456666666666663,82.24333333333333,9.234947916666668,64.50581369148055
1372685183.25,0.144373375,31.456666666666667,82.25083332949333,8.806901041666666,64.50581369148055
1372685183.5,0.1445335,31.456666666666663,82.25833333333333,9.054583333333332,64.50581369148055
1372685183.75,0.144693625,31.4575,82.26583333717332,9.134739583333333,64.50581369148055
1372685184.0,0.144800375,31.459166666666665,82.27333333333333,8.755703125,64.50581369148055
1372685184.25,0.144907125,31.46083333333333,82.28749999274666,9.280546875,64.50581369148055
1372685184.5,0.145013875,31.462499999999995,82.30166666666666,9.291744791666668,64.50581369148055
1372685184.75,0.14506725,31.464166666666667,82.31583334058666,9.033020833333333,64.50581369148055
1372685185.0,0.14506725,31.465833333333332,82.33,9.484427083333333,64.50581369148055
1372685185.25,0.14506725,31.4675,82.34916665685333,9.165026041666666,64.50581369148055
1372685185.5,0.14506725,31.469166666666666,82.36833333333334,9.102864583333334,64.50581369148055
1372685185.75,0.14506725,31.469166666666666,82.38750000981334,9.519062499999999,64.50581369148055
1372685186.0,0.14506725,31.4675,82.40666666666667,9.154270833333333,64.50581369148055
1372685186.25,0.14506724999999998,31.465833333333332,82.43249998677334,9.589322916666667,64.50581369148055
1372685186.5,0.145013875,31.464166666666667,82.45833333333334,9.64828125,64.50581369148055
1372685186.75,0.1449605,31.462499999999995,82.48416667989333,9.362994791666667,64.50581369148055
1372685187.0,0.144907125,31.460833333333337,82.51,9.833802083333333,64.50581369148055
1372685187.25,0.14485374999999998,31.459166666666665,82.54166665045334,9.61265625,64.50581369148055
1372685187.5,0.14480037499999998,31.4575,82.57333333333334,9.326875,64.50581369148055
1372685187.75,0.144747,31.45583333333333,82.60500001621334,9.685390624999998,64.50581369148055
1372685188.0,0.144747,31.454166666666666,82.63666666666667,9.236380208333333,64.50581369148055
1372685188.25,0.144747,31.4525,82.67166664874667,9.105052083333334,64.50581369148055
1372685188.5,0.144747,31.450833333333335,82.70666666666666,9.220963541666666,64.50581369148055
1372685188.75,0.14480037499999998,31.45,82.74166668458666,8.55328125,64.50581369148055
1372685189.0,0.144907125,31.45,82.77666666666666,8.486197916666667,64.50581369148055
1372685189.25,0.145013875,31.45,82.81333331456,8.148489583333333,64.50581369148055
1372685189.5,0.14512062499999998,31.45,82.85,7.5471875,64.50581369148055
1372685189.75,0.14522737499999996,31.45,82.88666668543999,7.576276041666667,64.50581369148055
1372685190.0,0.14533412499999998,31.45,82.92333333333333,7.139322916666667,64.50581369148055
1372685190.25,0.145440875,31.45,82.95999998122666,6.6379166666666665,64.50581369148055
1372685190.5,0.14554762499999999,31.45,82.99666666666667,6.685260416666666,64.50581369148055
1372685190.75,0.145654375,31.45,83.03333335210667,6.175104166666667,64.50581369148055
1372685191.0,0.14570775,31.45,83.07,5.898802083333333,64.50581369148055
1372685191.25,0.14570775,31.45,83.10749998079999,5.9875,64.50581369148055
1372685191.5,0.14570775,31.45,83.14499999999998,5.543880208333333,64.50581369148055
1372685191.75,0.14565437499999997,31.45,83.18250001919999,5.766953125,64.50581369148055
1372685192.0,0.14554762499999999,31.45,83.21999999999998,5.948776041666668,64.50581369148055
1372685192.25,0.14538749999999998,31.45,83.25416664917333,5.6323437499999995,64.50581369148055
1372685192.5,0.14528075,31.45,83.28833333333333,6.065494791666667,64.50581369148055
1372685192.75,0.145174,31.45,83.32250001749333,6.148776041666667,64.50581369148055
1372685193.0,0.14506725,31.45,83.35666666666667,5.965911458333334,64.50581369148055
1372685193.25,0.1449605,31.45,83.38833331712,6.490729166666665,64.50581369148055
1372685193.5,0.14485374999999998,31.45,83.42,6.447864583333334,64.50581369148055
1372685193.75,0.144747,31.45,83.45166668288,6.446848958333333,64.50581369148055
1372685194.0,0.144693625,31.45,83.48333333333333,6.976328124999999,64.50581369148055
1372685194.25,0.14469362499999996,31.45,83.51083331925334,6.776458333333333,64.50581369148055
1372685194.5,0.14469362499999996,31.45,83.53833333333333,7.047447916666667,64.50581369148055
1372685194.75,0.144693625,31.45,83.56583334741332,7.283697916666667,64.50581369148055
1372685195.0,0.144693625,31.45,83.59333333333332,6.971328124999999,64.50581369148055
1372685195.25,0.144747,31.45,83.61833332053332,7.5730989583333335,64.50581369148055
1372685195.5,0.144747,31.45,83.64333333333332,7.753567708333333,64.50581369148055
1372685195.75,0.144747,31.45,83.66833334613332,7.591927083333334,64.50581369148055
1372685196.0,0.144747,31.45,83.69333333333333,8.247864583333333,64.50581369148055
1372685196.25,0.144747,31.45,83.71249999018666,8.176328125000001,64.50581369148055
1372685196.5,0.144747,31.45,83.73166666666665,8.133619791666666,64.50581369148055
1372685196.75,0.144747,31.45,83.75083334314667,8.712265625,64.50581369148055
1372685197.0,0.144747,31.45,83.77,8.395572916666667,64.50581369148055
1372685197.25,0.144747,31.45,83.78833332394667,8.692083333333334,64.50581369148055
1372685197.5,0.14480037499999998,31.45,83.80666666666667,9.026484375,64.50581369148055
1372685197.75,0.144907125,31.45,83.82500000938667,8.637630208333334,64.50581369148055
1372685198.0,0.145013875,31.45,83.84333333333335,9.20625,64.50581369148055
1372685198.25,0.14512062499999998,31.45,83.85999999146668,9.211796875000001,64.50581369148055
1372685198.5,0.145227375,31.45,83.87666666666667,8.868333333333334,64.50581369148055
1372685198.75,0.145334125,31.45,83.89333334186666,9.49265625,64.50581369148055
1372685199.0,0.145440875,31.45,83.91,9.280807291666667,64.50581369148055
1372685199.25,0.14554762499999999,31.45,83.93416665429334,9.29328125,64.50581369148055
1372685199.5,0.14565437499999997,31.45,83.95833333333334,9.9478125,64.50581369148055
1372685199.75,0.145761125,31.45,83.98250001237334,9.674166666666666,64.50581369148055
1372685200.0,0.14586787499999998,31.45,84.00666666666667,10.184348958333334,64.50581369148055
1372685200.25,0.145974625,31.45,84.03416665258668,10.525598958333333,64.50581369148055
1372685200.5,0.146028,31.45,84.06166666666667,10.298776041666667,64.50581369148055
1372685200.75,0.146028,31.45,84.08916668074667,11.124531250000002,64.50581369148055
1372685201.0,0.146028,31.45,84.11666666666667,11.17828125,64.50581369148055
1372685201.25,0.146028,31.45,84.14916665002667,11.044088541666666,64.50581369148055
1372685201.5,0.146028,31.45,84.18166666666667,11.779036458333335,64.50581369148055
1372685201.75,0.146028,31.449166666666667,84.21416668330667,11.491458333333334,64.50581369148055
1372685202.0,0.146028,31.447499999999994,84.24666666666667,11.496979166666668,64.50581369148055
1372685202.25,0.146028,31.44583333333333,84.27833331712,11.889765625,64.50581369148055
1372685202.5,0.146028,31.444166666666664,84.31,11.3284375,64.50581369148055
1372685202.75,0.146028,31.4425,84.34166668288,11.547083333333333,64.50581369148055
1372685203.0,0.146028,31.440833333333334,84.37333333333333,11.444427083333332,64.50581369148055
1372685203.25,0.146028,31.439166666666665,84.40249998506667,10.910078124999998,64.50581369148055
1372685203.5,0.146028,31.4375,84.43166666666667,11.257786458333333,64.50581369148055
1372685203.75,0.146028,31.435833333333335,84.46083334826666,10.759140624999999,64.50581369148055
1372685204.0,0.146028,31.434166666666666,84.49,10.334088541666667,64.50581369148055
1372685204.25,0.145974625,31.4325,84.51916665173333,10.632578125,64.50581369148055
1372685204.5,0.14592124999999997,31.430833333333336,84.54833333333333,9.929088541666667,64.50581369148055
1372685204.75,0.14592124999999997,31.430833333333336,84.57750001493334,9.771927083333333,64.50581369148055
1372685205.0,0.14592125,31.4325,84.60666666666667,9.910625,64.50581369148055
1372685205.25,0.145867875,31.43416666666667,84.63416665258667,9.220598958333332,64.50581369148055
1372685205.5,0.145867875,31.435833333333335,84.66166666666666,9.387343750000001,64.50581369148055
1372685205.75,0.14586787499999998,31.4375,84.68916668074665,9.023463541666667,64.50581369148055
1372685206.0,0.14581449999999999,31.439166666666665,84.71666666666665,8.381171875,64.50581369148055
1372685206.25,0.14581449999999999,31.44083333333333,84.74416665258666,8.622734374999999,64.50581369148055
