timestamp,EDA,TEMP,HR,BVP,ACC_mag
1373661999.0,1.3193613333333334,34.39,,17.6378125,64.3620122872071
1373661999.25,1.3252764285714285,34.39,,17.98875,64.36960442864533
1373661999.5,1.3310731875,34.39,,19.644375,64.37596557926787
1373661999.75,1.336222,34.388888888888886,,21.55576388888889,64.38177532263157
1373662000.0,1.3407892000000001,34.387,,24.2941875,64.3975658216059
1373662000.25,1.3450498181818182,34.38545454545454,,25.51849431818182,64.41154243525683
1373662000.5,1.3489737499999999,34.384166666666665,,26.156015625,64.42875514086712
1373662000.75,1.3614072083333333,34.38125,,28.359140625,64.44608373619342
1373662001.0,1.3696765416666665,34.37708333333333,,30.149192708333334,64.46423721582995
1373662001.25,1.3767188333333333,34.37291666666666,,30.122109375000004,64.47377697818628
1373662001.5,1.3823739999999998,34.36875,,28.195104166666667,64.47943878833176
1373662001.75,1.3874422916666667,34.36416666666667,,25.339531249999997,64.48720123366425
1373662002.0,1.3919770416666666,34.359166666666674,,23.811406250000005,64.49378999112766
1373662002.25,1.396085,34.354166666666664,,22.698489583333338,64.50440782570347
1373662002.5,1.3994994166666668,34.34916666666667,,20.590260416666666,64.51547056605708
1373662002.75,1.4026470833333333,34.345,,17.631614583333334,64.52833728283704
1373662003.0,1.4055813333333333,34.34166666666667,,13.105989583333333,64.53035595807894
1373662003.25,1.4081421250000001,34.33833333333333,,9.506692708333334,64.53953101360982
1373662003.5,1.41059625,34.335,,6.394973958333335,64.53774761720736
1373662003.75,1.412837,34.333333333333336,,4.009557291666667,64.53399717034823
1373662004.0,1.4145442083333333,34.333333333333336,,2.454739583333333,64.53397995915691
1373662004.25,1.4161980416666669,34.333333333333336,,2.2686458333333337,64.5423746706576
1373662004.5,1.4179585833333332,34.333333333333336,,3.214140625,64.55456716767593
1373662004.75,1.419719125,34.33375,,4.2246354166666675,64.55905067742559
1373662005.0,1.421426333333333,34.334583333333335,,4.282500000000001,64.56195929560693
1373662005.25,1.422920125,34.33541666666667,,4.470494791666667,64.55711940943142
1373662005.5,1.4243072083333332,34.33625,,4.472369791666667,64.55235905899748
1373662005.75,1.4254808749999999,34.336666666666666,,4.907786458333333,64.54579418773214
1373662006.0,1.4264944999999998,34.33666666666667,,5.977734375,64.54095329408237
1373662006.25,1.4274014166666669,34.336666666666666,,6.755677083333334,64.52653329170484
1373662006.5,1.4280949583333333,34.336666666666666,,7.6485416666666675,64.5209778663979
1373662006.75,1.4286817916666665,34.33625,,7.79328125,64.52323796605842
1373662007.0,1.429268625,34.33541666666667,,7.188307291666667,64.51851871106759
1373662007.25,1.4295887083333332,34.334583333333335,,6.957447916666667,64.513516972739
1373662007.5,1.4297487500000001,34.33375,,6.155364583333334,64.50891825305423
1373662007.75,1.4299087916666666,34.33208333333334,,6.047682291666667,64.51343833624522
1373662008.0,1.4300688333333333,34.32958333333333,,6.399166666666667,64.52275715366285
1373662008.25,1.43028225,34.327083333333334,,5.9456510416666655,64.53542305342309
1373662008.5,1.4303889583333333,34.32458333333333,,6.091744791666667,64.54256480143835
1373662008.75,1.4304956666666666,34.3225,,5.822500000000001,64.54676155749222
1373662009.0,1.4305490416666666,34.32083333333333,89.375,5.464166666666667,64.55023190135456
1373662009.25,1.4305490833333334,34.31916666666667,88.28791722325333,5.957994791666667,64.5569312794069
1373662009.5,1.4304957500000002,34.3175,87.20083333333332,5.785390624999999,64.55781878817581
1373662009.75,1.4300689583333333,34.315000000000005,86.11374944341333,5.769973958333334,64.55943238926606
1373662010.0,1.4293754166666668,34.31166666666667,85.02666666666666,5.983854166666667,64.56370920423025
1373662010.25,1.4286818749999999,34.30833333333333,83.08916765866665,5.391927083333333,64.57056663842484
1373662010.5,1.4278816250000002,34.305,81.15166666666666,5.885052083333332,64.58523727946456
1373662010.75,1.4270280416666665,34.3025,79.21416567466666,5.588932291666667,64.59430494445634
1373662011.0,1.4261211249999999,34.30083333333334,77.27666666666666,5.224401041666667,64.59156376965642
1373662011.25,1.4251075,34.29916666666667,75.61833418239999,5.8683854166666665,64.5889025604392
1373662011.5,1.4239871666666666,34.2975,73.96,5.696953125,64.60395958038937
1373662011.75,1.422760125,34.295833333333334,72.3016658176,6.419869791666667,64.6266567888549
1373662012.0,1.4215330416666667,34.29416666666666,70.64333333333333,7.172005208333334,64.6486714463204
1373662012.25,1.4201459166666666,34.2925,69.64333384533333,6.5559375,64.6803502852586
1373662012.5,1.4187587916666666,34.29083333333333,68.64333333333333,6.688958333333333,64.72691366304782
1373662012.75,1.4173717083333333,34.29,67.64333282133333,6.993411458333333,64.77141748524001
1373662013.0,1.4161979999999998,34.29,66.64333333333333,8.187890625,64.81243769638523
1373662013.25,1.4150776250000001,34.29,66.08416695296,10.228567708333333,64.83606475904004
1373662013.5,1.4140639583333332,34.29,65.525,11.338984375,64.81859034319496
1373662013.75,1.413103625,34.29,64.96583304704,12.739869791666665,64.7842428916354
1373662014.0,1.412196625,34.29,64.40666666666667,13.223125000000001,64.78708517903414
1373662014.25,1.4114497083333335,34.29,64.13833347072,12.275,64.7730572913677
1373662014.5,1.4108095,34.29,63.870000000000005,12.722265624999999,64.72989784032822
1373662014.75,1.4105961249999999,34.29,63.60166652928,12.275625,64.6964522851384
1373662015.0,1.4107028750000001,34.29,63.333333333333336,11.348177083333333,64.68672214136234
1373662015.25,1.4110230000000001,34.29,63.155833424213334,11.50640625,64.65725619081148
1373662015.5,1.4113431250000001,34.29,62.97833333333334,11.544375,64.60411061956175
1373662015.75,1.4119833333333334,34.29,62.800833242453336,9.725260416666666,64.54603788498552
1373662016.0,1.4128902916666668,34.29,62.623333333333335,5.2453125,64.48529591389065
1373662016.25,1.4152377083333334,34.29,62.53250004650667,-0.8853906250000007,64.44248271014756
1373662016.5,1.418918875,34.29,62.44166666666668,-6.489999999999999,64.45675048899558
1373662016.75,1.4277750000000002,34.28916666666667,62.35083328682668,-9.901536458333334,64.52212651639991
1373662017.0,1.4542942083333334,34.2875,62.26000000000001,-10.571015625,64.55761172689553
1373662017.25,1.4953370833333333,34.285833333333336,62.27416665941334,-9.232552083333333,64.60635055342784
1373662017.5,1.539269166666667,34.284166666666664,62.28833333333334,-10.1553125,64.67622028105437
1373662017.75,1.582881125,34.280833333333334,62.302500007253336,-11.437057291666667,64.71558866616763
1373662018.0,1.6262263333333333,34.27583333333333,62.31666666666666,-11.524635416666667,64.68896205974754
1373662018.25,1.6696249166666666,34.270833333333336,62.38999996245333,-10.779166666666667,64.6687705990034
1373662018.5,1.7130235,34.26583333333333,62.463333333333324,-11.172682291666668,64.66339382281679
1373662018.75,1.756315375,34.25333333333333,62.536666704213324,-8.195286458333333,64.6548937676835
1373662019.0,1.79854025,34.233333333333334,62.60999999999999,-2.0926562500000006,64.65566694646091
1373662019.25,1.8391112916666668,34.21333333333333,62.70249995264,4.5589843750000005,64.65287736936594
1373662019.5,1.8780285,34.193333333333335,62.794999999999995,10.211171875,64.62581027749803
1373662019.75,1.9116107083333336,34.17166666666667,62.88750004735999,12.237447916666667,64.56724822731982
1373662020.0,1.9271030416666666,34.14833333333333,62.98,11.334687500000001,64.51070134678955
1373662020.25,1.9274314583333334,34.125,63.07083328682666,9.74046875,64.45968186764016
1373662020.5,1.9246039166666666,34.10166666666667,63.16166666666666,10.052473958333334,64.40443000622598
1373662020.75,1.921563,34.079166666666666,63.25250004650667,11.891015625,64.36547302535008
1373662021.0,1.9183086666666667,34.0575,63.343333333333334,13.706822916666667,64.3807423553723
1373662021.25,1.914840875,34.03583333333333,63.4141666304,13.967161458333335,64.39803456439888
1373662021.5,1.9112130416666666,34.01416666666667,63.485,14.791171875000002,64.40644041610697
1373662021.75,1.9072651250000001,33.99999999999999,63.5558333696,13.288281250000002,64.42915466149262
1373662022.0,1.9041708333333336,33.99333333333333,63.626666666666665,10.395390625,64.44850654133258
1373662022.25,1.9005430416666667,33.986666666666665,63.68916663466666,8.141901041666667,64.47652097816734
1373662022.5,1.8965417916666665,33.98,63.751666666666665,6.364817708333334,64.49849618696568
1373662022.75,1.892167083333333,33.975,63.81416669866667,6.074270833333333,64.51829308512049
1373662023.0,1.8878457083333335,33.971666666666664,63.876666666666665,6.955963541666666,64.53655290388785
1373662023.25,1.8839511666666666,33.968333333333334,63.921666643626665,7.582942708333333,64.54866896230864
1373662023.5,1.880056625,33.964999999999996,63.96666666666667,7.522109374999999,64.55505161422955
1373662023.75,1.8759486250000001,33.9625,64.01166668970667,6.611093749999999,64.5588898870475
1373662024.0,1.8706669166666667,33.96083333333333,64.05666666666667,4.669869791666667,64.55299789091413
1373662024.25,1.8641048333333334,33.95916666666667,64.10416664234667,2.819921875,64.54694416803542
1373662024.5,1.8571159583333336,33.9575,64.15166666666667,1.61828125,64.54500746363821
1373662024.75,1.8498603333333332,33.95583333333334,64.19916669098667,1.2794270833333334,64.53649161334943
1373662025.0,1.8420178333333332,33.95416666666667,64.24666666666667,0.7574739583333333,64.52809695630008
1373662025.25,1.8347088333333332,33.95250000000001,64.31583329792,0.08346354166666663,64.5119705379625
1373662025.5,1.8279333333333334,33.950833333333335,64.38499999999999,-0.5109114583333333,64.50204529954725
1373662025.75,1.8211044583333331,33.95,64.45416670208,-1.1902083333333333,64.49365064249791
1373662026.0,1.8137420833333333,33.95,64.52333333333333,-2.08953125,64.48541733394559
1373662026.25,1.80600625,33.95,64.61249995434666,-3.0380468749999996,64.47879751036369
1373662026.5,1.7982170833333333,33.95,64.70166666666665,-3.888333333333333,64.47698092252098
1373662026.75,1.7905879999999998,33.95,64.79083337898666,-4.824947916666667,64.47685999143131
1373662027.0,1.7839725833333333,33.95,64.88,-5.240494791666666,64.47577003872568
1373662027.25,1.7782107916666667,33.95,64.96916662101333,-5.243619791666666,64.47468008602004
1373662027.5,1.7726623750000001,33.95,65.05833333333334,-5.501901041666667,64.4661801609525
1373662027.75,1.767434041666667,33.94916666666667,65.14750004565333,-6.099843749999999,64.45780142912439
1373662028.0,1.7623124166666668,33.947500000000005,65.23666666666666,-6.280546875,64.45355146659061
1373662028.25,1.756710625,33.94583333333333,65.32499995477333,-5.980677083333333,64.4521348124127
1373662028.5,1.7507353749999999,33.94416666666667,65.41333333333333,-5.3671614583333325,64.4521348124127
1373662028.75,1.7450269166666665,33.9425,65.50166671189332,-4.6320572916666665,64.4521348124127
1373662029.0,1.7396919166666667,33.94083333333333,65.58999999999999,-3.8574479166666666,64.4521348124127
1373662029.25,1.7344635833333333,33.939166666666665,65.67083329194666,-3.179010416666667,64.4521348124127
1373662029.5,1.7292885833333334,33.9375,65.75166666666667,-2.4577604166666664,64.4521348124127
1373662029.75,1.7237935,33.935833333333335,65.83250004138667,-1.5167708333333334,64.4521348124127
1373662030.0,1.7180850416666669,33.93416666666666,65.91333333333334,-0.75765625,64.4521348124127
1373662030.25,1.7124299166666666,33.9325,65.97333330261334,0.022552083333333264,64.4521348124127
1373662030.5,1.7065080416666667,33.93083333333333,66.03333333333333,0.8191406250000001,64.46063473748025
1373662030.75,1.700426125,33.93,66.09333336405334,1.5098958333333332,64.46913466254779
1373662031.0,1.694664333333333,33.93,66.15333333333334,2.0356770833333333,64.47338462508156
1373662031.25,1.689436041666667,33.93,66.18749998250667,2.0865885416666665,64.47480127925948
1373662031.5,1.6843677916666666,33.93,66.22166666666666,1.9801822916666667,64.47807113737638
1373662031.75,1.6792461666666665,33.93,66.25583335082668,1.9851822916666666,64.49029064352648
1373662032.0,1.6743379166666668,33.93,66.29,1.9910416666666666,64.50964320986712
1373662032.25,1.6694830416666668,33.93,66.31999998464,1.973359375,64.52730334055227
1373662032.5,1.664201375,33.93,66.35,1.8845572916666666,64.53069386760906
1373662032.75,1.6588663750000003,33.92916666666667,66.38000001536,1.6144270833333332,64.52110854755125
1373662033.0,1.6536914166666667,33.9275,66.41,1.41828125,64.50513028107038
1373662033.25,1.6487831666666668,33.92583333333333,66.47833329834667,1.1378125,64.48424733432118
1373662033.5,1.6443017083333331,33.924166666666665,66.54666666666667,0.8194010416666666,64.46158086747438
1373662033.75,1.6398202499999999,33.92249999999999,66.61500003498666,0.65640625,64.43891440062761
1373662034.0,1.634912,33.920833333333334,66.68333333333334,0.564765625,64.41624793378081
1373662034.25,1.629576958333333,33.91916666666666,66.77833328469333,0.6961458333333334,64.39358146693404
1373662034.5,1.624081875,33.9175,66.87333333333333,0.8222395833333334,64.36764514197037
1373662034.75,1.6185867916666667,33.91583333333333,66.96833338197334,0.722734375,64.33275916897347
1373662035.0,1.6128249583333332,33.91416666666667,67.06333333333333,0.6310677083333334,64.29074013578605
1373662035.25,1.6070097916666668,33.912499999999994,67.15583328597333,0.6410677083333334,64.25041353825414
1373662035.5,1.6017281250000002,33.91083333333333,67.24833333333333,0.7305729166666667,64.22435654435054
1373662035.75,1.5968198749999998,33.91,67.34083338069334,0.9733593750000001,64.21835866845119
1373662036.0,1.5920183333333335,33.91,67.43333333333334,1.0571614583333335,64.22867031822037
1373662036.25,1.58689675,33.91,67.49333330261334,1.1738541666666666,64.24955326496958
1373662036.5,1.5812950000000001,33.91,67.55333333333334,1.3419791666666665,64.27221973181636
1373662036.75,1.5757999166666667,33.909166666666664,67.61333336405333,1.4003645833333334,64.29488619866315
1373662037.0,1.5704115416666669,33.9075,67.67333333333333,1.4436197916666667,64.31755266550992
1373662037.25,1.5650765416666668,33.905833333333334,67.70166665216,1.2727864583333333,64.34021913235671
1373662037.5,1.5600616250000001,33.90416666666666,67.72999999999999,0.8567187499999999,64.3628855992035
1373662037.75,1.555260125,33.902499999999996,67.75833334784,0.61609375,64.38555206605028
1373662038.0,1.55077875,33.90083333333333,67.78666666666666,0.2772135416666666,64.40809733965763
1373662038.25,1.5462973333333332,33.899166666666666,67.79916666026666,-0.14861979166666664,64.42882471467345
1373662038.5,1.5414957916666665,33.8975,67.81166666666667,-0.61875,64.44955208968929
1373662038.75,1.5365342083333333,33.895833333333336,67.82416667306666,-1.149375,64.4631961938155
1373662039.0,1.531572625,33.89416666666667,67.83666666666666,-1.6295833333333336,64.46692371869625
1373662039.25,1.526931125,33.892500000000005,67.85583332352,-2.291796875,64.4649846268653
1373662039.5,1.5228231666666667,33.89083333333333,67.875,-3.1128385416666666,64.46304553503434
1373662039.75,1.5186085416666666,33.89,67.89416667648,-3.883854166666667,64.46078312504024
1373662040.0,1.51444725,33.89,67.91333333333334,-4.638645833333333,64.46017715884308
1373662040.25,1.5107660833333334,33.89,67.94416665088,-5.168854166666667,64.45981357912477
1373662040.5,1.5071382500000003,33.89,67.975,-5.479791666666666,64.45726766920266
1373662040.75,1.5035104166666668,33.89,68.00583334911998,-6.262369791666667,64.4556510436409
1373662041.0,1.5001493333333336,33.89,68.03666666666665,-6.982526041666667,64.45039647378816
1373662041.25,1.4972150833333335,33.89,68.06833331712,-7.189739583333334,64.45608801364604
1373662041.5,1.49449425,33.89,68.1,-7.0940885416666655,64.46626044305926
1373662041.75,1.4917734166666667,33.89,68.13166668288,-7.331927083333333,64.4765538620728
1373662042.0,1.4891059166666667,33.89,68.16333333333334,-7.477760416666668,64.4868876109531
1373662042.25,1.4865450833333334,33.89,68.17999999146667,-7.30953125,64.49738263096363
1373662042.5,1.4839309166666668,33.89,68.19666666666667,-6.8621614583333335,64.50739374090976
1373662042.75,1.4815835000000002,33.89,68.21333334186667,-6.584635416666667,64.51760717941873
1373662043.0,1.4792894166666664,33.89,68.23,-6.59625,64.52596252479692
1373662043.25,1.4767202916666664,33.89,68.23083333290667,-6.713828125,64.53407548369626
1373662043.5,1.4739377916666665,33.89,68.23166666666667,-6.622578125,64.54437077279937
1373662043.75,1.4709952499999999,33.89,68.23250000042667,-6.074505208333334,64.55325244134335
1373662044.0,1.4679910416666664,33.89,68.23333333333333,-5.444687500000001,64.56444023882128
1373662044.25,1.4649334583333333,33.89,68.23250000042667,-5.25484375,64.56843716997538
1373662044.5,1.4619825833333333,33.89,68.23166666666667,-5.418333333333334,64.56795321157412
1373662044.75,1.459245125,33.88916666666667,68.23083333290667,-5.118880208333334,64.56734826357255
1373662045.0,1.4563559166666666,33.887499999999996,68.23,-4.74484375,64.56573431330658
1373662045.25,1.4536185000000001,33.88583333333333,68.22083333802667,-4.589140625,64.5642014198856
1373662045.5,1.4502942083333332,33.884166666666665,68.21166666666667,-4.460598958333333,64.56371744213568
1373662045.75,1.4466497916666665,33.8825,68.20249999530667,-3.7953385416666663,64.56339478869002
1373662046.0,1.4433788333333333,33.880833333333335,68.19333333333333,-2.7507812499999997,64.56472477089046
1373662046.25,1.44043625,33.87916666666666,68.18333333845332,-1.409296875,64.57532008584717
1373662046.5,1.4377604166666667,33.8775,68.17333333333332,-0.22330729166666663,64.58212877387052
1373662046.75,1.435244625,33.87583333333333,68.16333332821333,0.8727604166666666,64.58769043454289
1373662047.0,1.4326838333333332,33.87416666666667,68.15333333333332,1.4172395833333333,64.5978489210049
1373662047.25,1.430016375,33.872499999999995,68.14416667135998,1.6065885416666668,64.61186544098602
1373662047.5,1.4272955416666668,33.87083333333333,68.13499999999999,1.8527083333333332,64.62728939509117
1373662047.75,1.4245746666666665,33.86875,68.12583332864,1.7376302083333333,64.63095645797365
1373662048.0,1.4221655833333333,33.86625,68.11666666666666,1.2813541666666668,64.63998462503251
1373662048.25,1.4194980416666667,33.863749999999996,68.11583333376,0.6848437500000001,64.64533789984677
1373662048.5,1.4170439166666666,33.86125,68.115,-0.7251302083333333,64.61851031099957
1373662048.75,1.4143764166666666,33.85875,68.11416666624,-2.6568229166666666,64.63286979653192
1373662049.0,1.4114955,33.85625,68.11333333333333,-4.55171875,64.58089333463123
1373662049.25,1.40856125,33.85375,68.12083332949334,-6.805130208333334,64.36583781179418
1373662049.5,1.4054136250000002,33.85125,68.12833333333333,-9.438020833333333,64.24023084120476
1373662049.75,1.400878875,33.84875,68.13583333717332,-11.889999999999999,64.16420400465455
1373662050.0,1.3947969166666665,33.846250000000005,68.14333333333333,-13.245572916666667,64.05050125636359
1373662050.25,1.3888749999999999,33.84375,68.16166665728,-14.088723958333333,63.79852304875757
1373662050.5,1.3831665,33.84125,68.17999999999999,-15.322083333333333,63.49594124959771
1373662050.75,1.3776714166666668,33.84,68.19833334271999,-16.663645833333334,63.336875101299455
1373662051.0,1.3722830416666667,33.84,68.21666666666665,-17.924375,63.14484131081469
1373662051.25,1.3671080833333333,33.84,68.23499999061333,-18.12046875,63.02816613308764
1373662051.5,1.3625199583333334,33.84,68.25333333333333,-15.254479166666664,63.01400509046248
1373662051.75,1.358625375,33.84125000000001,68.27166667605333,-13.236354166666667,62.86486479100184
1373662052.0,1.3547841666666667,33.84375,68.29,-13.568333333333333,62.8181722617089
1373662052.25,1.3510496666666667,33.846250000000005,68.31583332010668,-15.461796875,63.07385619414711
1373662052.5,1.3468350000000002,33.84875,68.34166666666667,-16.647760416666667,63.17307917826269
1373662052.75,1.3440074583333335,33.85,68.36750001322666,-17.508463541666668,63.20175156337959
1373662053.0,1.3428337916666668,33.85,68.39333333333333,-19.153020833333333,63.247481369388
1373662053.25,1.34107325,33.85,68.414166656,-21.25393229166667,63.496291391975014
1373662053.5,1.3387792083333334,33.85,68.435,-21.771562499999998,63.87229118284109
1373662053.75,1.3362717916666667,33.85,68.455833344,-20.852135416666666,64.14012181161918
1373662054.0,1.3336042916666668,33.85,68.47666666666667,-19.506015625,64.42651527674207
1373662054.25,1.3308834166666668,33.85,68.50416665258668,-19.940859375,64.57333545594939
1373662054.5,1.3281092083333335,33.85,68.53166666666667,-23.461015625,64.62628625993487
1373662054.75,1.3244813750000002,33.84875,68.55916668074666,-25.371380208333335,64.77150325540096
1373662055.0,1.3200532916666667,33.846250000000005,68.58666666666666,-24.813541666666666,64.87915744182013
1373662055.25,1.3154651666666666,33.84375000000001,68.60999998805333,-22.209140625,64.83845011016837
1373662055.5,1.3114105,33.84125,68.63333333333333,-19.731901041666667,64.89354762337929
1373662055.75,1.3071424166666668,33.84,68.65666667861332,-17.375572916666666,64.98336790335192
1373662056.0,1.3026609583333333,33.84,68.67999999999999,-14.291588541666664,65.08914323365713
1373662056.25,1.2983929166666666,33.84,68.70416665429333,-10.692838541666667,65.11410821422801
1373662056.5,1.294124875,33.84,68.72833333333332,-8.280598958333334,65.05048843168522
1373662056.75,1.289750125,33.84,68.75250001237332,-7.663203125,64.94909626862622
1373662057.0,1.2855354583333334,33.84,68.77666666666666,-7.937864583333333,64.85872135896089
1373662057.25,1.2814275000000002,33.84,68.79749998933333,-7.352395833333333,64.87982540851007
1373662057.5,1.2772128333333332,33.84,68.81833333333333,-5.973515625,64.98924601121833
1373662057.75,1.2738517916666667,33.84,68.83916667733332,-4.715416666666667,65.11482197819669
1373662058.0,1.2714510416666667,33.84,68.86,-3.1517447916666668,65.26358339424426
1373662058.25,1.2692103333333333,33.84,68.92499996672,-1.9524739583333333,65.43434762407996
1373662058.5,1.26728975,33.84,68.99,-1.123125,65.52400794755557
1373662058.75,1.265742625,33.84,69.05500003328,-1.1636979166666668,65.56815572354557
1373662059.0,1.2642487916666667,33.84,69.11999999999999,-2.018203125,65.67451167084893
1373662059.25,1.2631284166666668,33.84,69.22583327914666,-3.4461197916666664,65.80727508422494
1373662059.5,1.2624882083333333,33.84,69.33166666666666,-5.089609374999999,65.97129047644749
1373662059.75,1.2621680833333333,33.84,69.43750005418667,-5.789557291666667,66.10899276837789
1373662060.0,1.2613678333333334,33.84,69.54333333333334,-5.428463541666666,66.1883951226372
1373662060.25,1.260194125,33.84,69.68999992490667,-4.501380208333333,66.19103812124781
1373662060.5,1.2582201666666666,33.84,69.83666666666667,-2.5011458333333336,66.05163358554836
1373662060.75,1.2549124583333333,33.84125,69.98333340842666,-2.0055989583333336,65.96453517747298
1373662061.0,1.2511779166666668,33.84375,70.13,-2.5453125,65.86488792144358
1373662061.25,1.2472833333333333,33.846250000000005,70.26999992831999,-3.312291666666667,65.7067838236267
1373662061.5,1.2432820833333333,33.84875,70.41,-3.960572916666667,65.6048589121796
1373662061.75,1.238694,33.85,70.55000007168,-3.2510677083333337,65.5445724475597
1373662062.0,1.2332523333333334,33.85,70.69,-1.7361458333333335,65.45817690189047
1373662062.25,1.2277039583333333,33.85,70.82666659669333,0.10182291666666661,65.34027421453627
1373662062.5,1.2211419166666666,33.85,70.96333333333334,1.3716406250000002,65.21851017706099
1373662062.75,1.2135662083333332,33.85,71.10000006997333,2.013541666666667,65.13519079167104
1373662063.0,1.2060971666666667,33.85,71.23666666666666,2.0048437499999996,65.13233358602906
1373662063.25,1.19841475,33.85,71.36833326592,1.0721874999999998,65.1933565847334
1373662063.5,1.1904655416666667,33.85,71.5,-1.9156250000000001,65.35972553252323
1373662063.75,1.183743375,33.84875,71.63166673407999,-3.012682291666667,65.4299016718836
1373662064.0,1.1773413333333334,33.846250000000005,71.76333333333332,-3.9344531249999997,65.52755004325111
1373662064.25,1.170192375,33.84375000000001,71.89166660096,-5.07703125,65.72057327093886
1373662064.5,1.16309675,33.84125,72.01999999999998,-6.131432291666667,65.94888111829364
1373662064.75,1.1565879583333334,33.84125,72.14833339903998,-8.309921874999999,66.14250128938546
1373662065.0,1.1510928333333335,33.84375000000001,72.27666666666666,-11.8934375,66.25940874974421
1373662065.25,1.1457044166666666,33.846250000000005,72.39749993813332,-14.222838541666667,66.41714271019475
1373662065.5,1.141383,33.84875,72.51833333333332,-15.105364583333333,66.53634430370191
1373662065.75,1.1387687916666667,33.85125,72.63916672853333,-14.847526041666667,66.66972763427162
1373662066.0,1.1368481666666665,33.85375,72.75999999999999,-14.361588541666665,66.79697131177636
1373662066.25,1.1357277916666666,33.856249999999996,72.8724999424,-15.600442708333333,66.87535636653816
1373662066.5,1.1359945416666666,33.85875,72.98499999999999,-16.40997395833333,66.91489995098821
1373662066.75,1.1363679999999998,33.86,73.09750005759999,-18.103072916666665,66.99207204848737
1373662067.0,1.1370082083333333,33.86,73.21,-17.654661458333333,67.00602157275941
1373662067.25,1.1391955833333334,33.86,73.28083329706666,-16.142369791666667,66.94346042560018
1373662067.5,1.1418097916666665,33.86,73.35166666666666,-14.253828125,66.79007733410175
1373662067.75,1.144424,33.85875,73.42250003626665,-11.853671875000002,66.65385271664174
1373662068.0,1.147144875,33.856249999999996,73.49333333333333,-7.680442708333332,66.58175982353673
1373662068.25,1.1499190833333333,33.85375,73.56833329493332,-5.360520833333332,66.47890739091099
1373662068.5,1.1527466666666666,33.85125,73.64333333333333,-4.0363541666666665,66.44002025401461
1373662068.75,1.1550407916666667,33.85,73.71833337173334,-3.8026822916666663,66.41212759823426
1373662069.0,1.1570147916666667,33.85,73.79333333333334,-3.764036458333333,66.366387589616
1373662069.25,1.1587219999999998,33.85,73.8891666176,-0.7968749999999997,66.3494740677801
1373662069.5,1.1602691666666665,33.85,73.985,2.7249479166666664,66.32473473330528
1373662069.75,1.1616029166666666,33.85208333333333,74.0808333824,5.441744791666667,66.29381722090002
1373662070.0,1.1626699583333333,33.85625,74.17666666666666,5.85609375,66.2935881264756
1373662070.25,1.1630434583333333,33.860416666666666,74.33666658474667,5.357994791666666,66.33515313471348
1373662070.5,1.1628300416666666,33.864583333333336,74.49666666666667,3.5615625000000004,66.39219732685467
1373662070.75,1.1618163333333333,33.867916666666666,74.65666674858666,1.5113020833333335,66.48065691924016
1373662071.0,1.1600024166666667,33.870416666666664,74.81666666666666,-1.3143229166666661,66.56867310134182
1373662071.25,1.1580285000000001,33.87291666666666,75.00083323903999,-1.899869791666666,66.64562508734483
1373662071.5,1.1558411666666666,33.875416666666666,75.185,-2.109869791666666,66.60804539196067
1373662071.75,1.1533336666666667,33.876666666666665,75.36916676096,-1.8726302083333326,66.45639873930327
1373662072.0,1.1508261666666666,33.876666666666665,75.55333333333333,-1.3304427083333326,66.26272777760236
1373662072.25,1.1482653333333335,33.876666666666665,75.73249990826666,-3.3555729166666666,66.04947200594391
1373662072.5,1.1456511666666667,33.876666666666665,75.91166666666666,-4.616874999999999,65.87795567177922
1373662072.75,1.1431970833333331,33.875833333333325,76.09083342506666,-4.318411458333332,65.7075596827491
1373662073.0,1.1407429583333333,33.87416666666666,76.27,-3.316223958333332,65.53797116950373
1373662073.25,1.1382887916666666,33.872499999999995,76.42833325226665,-2.0280989583333326,65.35633472006262
1373662073.5,1.135888,33.87083333333333,76.58666666666666,-0.08632812499999949,65.22420927702832
1373662073.75,1.1342875,33.87,76.74500008106666,1.569947916666667,65.07013112646659
1373662074.0,1.1332738333333332,33.87,76.90333333333332,2.7832552083333333,64.89389529436366
1373662074.25,1.1322067916666667,33.87,77.04249992874665,2.223359375,64.73034823154059
1373662074.5,1.1310330416666667,33.87,77.18166666666666,1.7392187500000003,64.64131141391265
1373662074.75,1.1298059999999999,33.86875,77.32083340458666,1.22453125,64.6429364612397
1373662075.0,1.1281521666666665,33.86625,77.46,0.28893229166666684,64.70883335919635
1373662075.25,1.1262315833333334,33.863749999999996,77.59666659669332,1.4083593750000005,64.83254900071107
1373662075.5,1.1241509583333333,33.861250000000005,77.73333333333332,1.6754166666666668,64.96948737870414
1373662075.75,1.121963625,33.86000000000001,77.87000006997333,1.0853385416666668,65.17766797143015
1373662076.0,1.119829625,33.86,78.00666666666666,0.06916666666666679,65.39014120414511
1373662076.25,1.1176956249999999,33.86,78.13166660266666,-1.522578125,65.52069880802587
1373662076.5,1.1155082916666668,33.86,78.25666666666666,-3.8591927083333335,65.64747723626203
1373662076.75,1.1130542083333332,33.86083333333333,78.38166673066667,-6.0932812499999995,65.76375410984693
1373662077.0,1.1105467916666665,33.8625,78.50666666666666,-8.075000000000001,65.82785477327484
1373662077.25,1.108039375,33.86416666666667,78.62083327488,-10.13953125,65.87900400298007
1373662077.5,1.1056920000000001,33.865833333333335,78.73499999999999,-12.014375000000001,65.91775396825737
1373662077.75,1.103504625,33.86875,78.84916672511999,-13.116041666666666,65.97441627447618
1373662078.0,1.1015840000000001,33.87291666666666,78.96333333333332,-13.379557291666666,65.9272989107441
1373662078.25,1.0999301666666665,33.87708333333334,79.0591666176,-14.95765625,65.77987311239407
1373662078.5,1.0976894166666666,33.88125,79.155,-17.015598958333335,65.63408294911493
1373662078.75,1.0947550833333335,33.88333333333333,79.2508333824,-19.076562499999998,65.39531519627424
1373662079.0,1.09166075,33.88333333333333,79.34666666666668,-20.87328125,65.10330013911422
1373662079.25,1.08845975,33.88333333333333,79.44249995093334,-21.128828125,64.84596747313167
1373662079.5,1.0854187916666667,33.88333333333333,79.53833333333334,-19.946901041666667,64.58201908986477
1373662079.75,1.0826445833333334,33.8825,79.63416671573334,-18.58200520833333,64.30547614210522
1373662080.0,1.0800304166666665,33.880833333333335,79.73,-16.481015625,64.12880314490143
1373662080.25,1.0775762916666667,33.87916666666666,79.81833328810667,-12.594531250000001,64.04517417358973
1373662080.5,1.0752288749999999,33.8775,79.90666666666667,-10.206744791666667,63.90151040627587
1373662080.75,1.0729348333333333,33.87583333333333,79.99500004522666,-9.714687499999998,63.69770112367855
1373662081.0,1.0706407916666667,33.87416666666667,80.08333333333333,-10.190260416666666,63.73109154660867
1373662081.25,1.0682933749999999,33.872499999999995,80.17166662144,-9.089609375,63.805500421833905
1373662081.5,1.0665861666666665,33.87083333333333,80.25999999999999,-6.499166666666667,63.8334877753915
1373662081.75,1.0657325833333333,33.87,80.34833337856,-3.0628124999999997,63.91637113264948
1373662082.0,1.0645054999999999,33.87,80.43666666666667,0.7330468750000002,64.0728597734951
1373662082.25,1.0629049583333334,33.87,80.52666662058667,2.839296875,64.30938944834594
1373662082.5,1.0611443749999998,33.87,80.61666666666667,3.9322135416666666,64.53520452187165
1373662082.75,1.05922375,33.87,80.70666671274667,4.384192708333334,64.75591682218898
1373662083.0,1.057303125,33.87,80.79666666666667,3.352942708333334,64.89906767927094
1373662083.25,1.0553825000000001,33.87,80.89249995093333,0.6387239583333334,65.00989272471585
1373662083.5,1.0533018333333335,33.87,80.98833333333333,-0.5998437499999999,65.22914174832215
1373662083.75,1.0511144583333334,33.87,81.08416671573333,0.04601562500000003,65.52496587698542
1373662084.0,1.04903375,33.87,81.17999999999999,2.0419010416666663,65.70693797689356
1373662084.25,1.0471130833333333,33.87,81.27499995136,2.6411458333333333,65.9753761090493
1373662084.5,1.0453525000000001,33.87,81.37,1.2505989583333335,66.3114190326083
1373662084.75,1.0435919166666667,33.87,81.46500004864,-1.5613802083333335,66.60397453587561
1373662085.0,1.0424182083333333,33.87,81.56,-4.783541666666667,66.8866900583492
1373662085.25,1.041778,33.87,81.64666662229334,-6.377890625,67.11117975367362
1373662085.5,1.0412445000000001,33.87,81.73333333333332,-6.631458333333334,67.36333147783446
1373662085.75,1.0408177083333334,33.87083333333333,81.82000004437332,-5.579687500000001,67.63189778054094
1373662086.0,1.0403375833333335,33.872499999999995,81.90666666666665,-3.5717968750000004,67.87920323619353
1373662086.25,1.0396974166666666,33.87416666666666,81.98749995861333,-1.3270052083333337,68.11671626808418
1373662086.5,1.0389505416666667,33.87583333333333,82.06833333333333,0.5767447916666663,68.29624598059391
1373662086.75,1.0379369166666665,33.8775,82.14916670805333,0.9104687499999996,68.37363467507845
1373662087.0,1.0369766666666667,33.87916666666667,82.23,-0.2967187500000004,68.35876672280207
1373662087.25,1.03547875,33.880833333333335,82.31416662357334,-0.3669531250000004,68.27342635558757
1373662087.5,1.0333898333333333,33.8825,82.39833333333334,1.1611458333333329,68.08618571869283
1373662087.75,1.03066075,33.884166666666665,82.48250004309332,3.1316406249999997,67.88422446102746
1373662088.0,1.0273981666666667,33.88583333333333,82.56666666666666,4.66015625,67.67577983853265
1373662088.25,1.0238154583333334,33.887499999999996,82.65499995477333,4.714114583333333,67.4828359073597
1373662088.5,1.020179416666667,33.88916666666666,82.74333333333334,3.5366927083333333,67.24606295090094
1373662088.75,1.01675675,33.89,82.83166671189333,1.7834895833333333,67.01507288237468
1373662089.0,1.0135475000000003,33.89,82.92,-0.14679687500000013,66.91638640037907
1373662089.25,1.0101781666666667,33.89,83.01333328554666,-2.6044791666666667,66.73867672599248
1373662089.5,1.0070222083333336,33.89,83.10666666666667,-4.9891145833333335,66.57710904225931
1373662089.75,1.0039196250000002,33.89,83.20000004778667,-6.100625,66.50567682324778
1373662090.0,1.0001768333333334,33.89,83.29333333333334,-7.090572916666667,66.4355492325379
1373662090.25,0.9969717083333333,33.89,83.39083328341333,-9.70921875,66.23895541639841
1373662090.5,0.9943575833333332,33.89,83.48833333333333,-12.6634375,66.08063557551704
1373662090.75,0.9920101666666667,33.89,83.58583338325333,-13.340651041666668,65.91525500568444
1373662091.0,0.99019625,33.89,83.68333333333332,-14.203541666666666,65.73865267979077
1373662091.25,0.9885957916666667,33.89,83.78916661247999,-12.892109374999999,65.54153800142498
1373662091.5,0.9869419583333333,33.89,83.895,-11.166875,65.3999493267806
1373662091.75,0.9845412083333334,33.89,84.00083338752,-10.280468749999999,65.30670213608518
1373662092.0,0.9809667083333333,33.89,84.10666666666667,-9.221276041666666,65.07367744097387
1373662092.25,0.9777123333333334,33.89,84.21166661290667,-6.459609374999999,64.84652944253209
1373662092.5,0.9744579999999999,33.89,84.31666666666666,-5.256953125,64.54812874282116
1373662092.75,0.9710435833333332,33.89083333333333,84.42166672042666,-4.444140625,64.30619855509129
1373662093.0,0.9681627083333334,33.8925,84.52666666666666,-2.9491406249999996,64.18747728139466
1373662093.25,0.9651217500000001,33.89416666666667,84.61583328767999,-0.10151041666666645,64.27806167848485
1373662093.5,0.9617606666666667,33.895833333333336,84.70499999999998,1.8901562500000002,64.39117329131254
1373662093.75,0.9582395416666666,33.89666666666667,84.79416671231999,0.9961718750000003,64.55200787075317
1373662094.0,0.9547184166666667,33.89666666666667,84.88333333333333,0.6900520833333333,64.6452177879565
1373662094.25,0.9510372083333333,33.89666666666667,84.9541666304,-1.7325520833333332,64.67608564398486
1373662094.5,0.9475160416666667,33.89666666666667,85.025,-3.3660937499999997,64.59834864647125
1373662094.75,0.9444750416666666,33.89666666666667,85.0958333696,-3.6336979166666663,64.38147173026373
1373662095.0,0.9422876666666666,33.89666666666667,85.16666666666667,-4.509427083333333,64.20765891007498
1373662095.25,0.9396201666666667,33.89666666666667,85.23083330048,-7.020104166666667,64.05084550431677
1373662095.5,0.9370059999999999,33.89666666666667,85.295,-8.350260416666666,64.1081263485343
1373662095.75,0.934872,33.895833333333336,85.35916669952,-11.209192708333333,64.09784865864314
1373662096.0,0.9328446666666667,33.89416666666667,85.42333333333333,-13.66859375,64.06906246486302
1373662096.25,0.93156425,33.8925,85.49249996458667,-15.151223958333334,63.938305542993135
1373662096.5,0.93103075,33.89083333333333,85.56166666666667,-15.7159375,63.80776894667306
1373662096.75,0.9310840833333334,33.89083333333333,85.63083336874666,-15.535651041666666,63.702728514534066
1373662097.0,0.930977375,33.8925,85.7,-16.348723958333334,63.643351334303794
1373662097.25,0.9308706666666667,33.89416666666667,85.78083329194666,-16.163359375,63.709794138520046
1373662097.5,0.9307639583333334,33.895833333333336,85.86166666666666,-16.993541666666665,63.89935206138413
1373662097.75,0.9307639583333334,33.8975,85.94250004138667,-18.675911458333335,64.33397163887771
1373662098.0,0.9309240000000001,33.899166666666666,86.02333333333333,-19.63598958333333,64.8256626683747
1373662098.25,0.9315641666666666,33.90083333333333,86.11083328853333,-20.397447916666668,65.232576917422
1373662098.5,0.9312974166666668,33.902499999999996,86.19833333333332,-20.305755208333334,65.40714842835311
1373662098.75,0.9295902083333334,33.90333333333333,86.28583337813333,-18.090833333333332,65.60765597065495
1373662099.0,0.9274561666666666,33.90333333333333,86.37333333333333,-16.44817708333333,65.75080297551433
1373662099.25,0.9244685416666667,33.90333333333333,86.45916662272,-16.151640625,65.89303583669668
1373662099.5,0.9210007916666667,33.90333333333333,86.54499999999999,-16.75828125,66.03337349000321
1373662099.75,0.9174797083333334,33.902499999999996,86.63083337727998,-17.170416666666668,66.08881923148012
1373662100.0,0.9141186666666669,33.90083333333333,86.71666666666665,-15.898645833333333,66.17766134481364
1373662100.25,0.9108643333333334,33.899166666666666,86.79833329152,-14.908828125,66.19610314479404
1373662100.5,0.90761,33.8975,86.88,-13.532734375000002,66.14685555762544
1373662100.75,0.9043556666666667,33.89666666666667,86.96166670848,-12.686484375,65.81134640591408
1373662101.0,0.9011013333333332,33.89666666666667,87.04333333333334,-11.498203125000002,65.46384067579329
1373662101.25,0.897847,33.89666666666667,87.12083329365333,-9.131874999999999,65.33526796323663
1373662101.5,0.8952861666666666,33.89666666666667,87.19833333333334,-7.7421614583333325,65.36259224361376
1373662101.75,0.893952375,33.8975,87.27583337301334,-7.372421875000001,65.2843070815686
1373662102.0,0.8930454166666667,33.899166666666666,87.35333333333334,-7.136067708333333,65.19131732051407
1373662102.25,0.8924052083333334,33.90083333333333,87.43999995562667,-6.061328125,65.12802347546138
1373662102.5,0.8918183333333333,33.902499999999996,87.52666666666667,-4.3346875,65.06250142696888
1373662102.75,0.8912314583333333,33.90416666666666,87.61333337770665,-2.843828125,65.03373761188114
1373662103.0,0.8906445833333333,33.90583333333333,87.69999999999999,-2.6390364583333334,64.99180702847507
1373662103.25,0.8903777916666665,33.9075,87.78749995519999,-2.704375,64.98166711019896
1373662103.5,0.8903244166666666,33.909166666666664,87.875,-2.5463802083333333,64.99053613960457
1373662103.75,0.8906445,33.91,87.9625000448,-0.9634635416666669,65.14719672450641
1373662104.0,0.891391375,33.91,88.05,-0.35880208333333347,65.22922914706176
1373662104.25,0.8922449583333334,33.91,88.14583328426667,-1.5527343750000002,65.18313424928391
1373662104.5,0.8933119583333333,33.91,88.24166666666667,-2.9112500000000003,65.05851078975375
1373662104.75,0.8945923749999999,33.91083333333333,88.33750004906666,-4.6762500000000005,65.00945539848118
1373662105.0,0.8958727916666667,33.9125,88.43333333333334,-6.465026041666667,64.98340378818781
1373662105.25,0.8971532083333332,33.91416666666667,88.53333328213334,-8.743255208333334,64.98687334416222
1373662105.5,0.8982735833333333,33.91583333333333,88.63333333333333,-11.066588541666668,64.9345024301523
1373662105.75,0.8990205000000001,33.9175,88.73333338453332,-13.22625,64.89393153835624
1373662106.0,0.8993939583333331,33.91916666666666,88.83333333333333,-14.528828125000002,64.85332669817785
1373662106.25,0.8995006666666666,33.92083333333333,88.9541666048,-15.784088541666668,64.78737181705723
1373662106.5,0.8993939583333334,33.9225,89.07499999999999,-17.687447916666667,64.75289232023272
1373662106.75,0.8988604583333332,33.924166666666665,89.19583339519998,-20.230052083333334,64.91454630188316
1373662107.0,0.8977934583333332,33.92583333333334,89.31666666666665,-22.264817708333336,65.16442250532192
1373662107.25,0.8964597083333333,33.9275,89.44583326719999,-23.297942708333334,65.36697138586355
1373662107.5,0.8948592083333334,33.92916666666667,89.57499999999999,-23.63088541666667,65.60043759486844
1373662107.75,0.8929385833333333,33.93,89.70416673279999,-23.19932291666667,65.8106374046681
1373662108.0,0.8906978749999999,33.93,89.83333333333333,-21.73799479166667,65.97144941354115
1373662108.25,0.8881904166666666,33.93,89.96083326805332,-20.455364583333335,66.02131771408268
1373662108.5,0.8855762500000001,33.93,90.08833333333332,-19.791093749999998,66.12585034237681
1373662108.75,0.8831755,33.93,90.21583339861333,-17.67158854166667,66.20811966375531
1373662109.0,0.8811482083333333,33.93,90.34333333333332,-15.299036458333333,66.34999768604006
1373662109.25,0.879227625,33.93,90.45749994154666,-13.088072916666667,66.62112505418027
1373662109.5,0.8773070416666666,33.93,90.57166666666666,-9.537864583333333,66.84423817085968
1373662109.75,0.8753330833333334,33.93,90.68583339178666,-6.156067708333333,66.75756323591357
1373662110.0,0.8734125,33.93,90.8,-3.2839843749999993,66.641606778839
1373662110.25,0.8715452499999999,33.93,90.89749995007999,-0.9624739583333332,66.64216364453007
1373662110.5,0.869678,33.93,90.99499999999999,0.7591666666666669,66.58374230626741
1373662110.75,0.86781075,33.93083333333333,91.09250004991999,2.9304166666666673,66.58928715672737
1373662111.0,0.8654100000000001,33.9325,91.18999999999998,4.118854166666667,66.84654620726577
1373662111.25,0.863276,33.93416666666667,91.27999995391998,4.4441927083333335,67.07297884060402
1373662111.5,0.861355375,33.935833333333335,91.36999999999999,5.100911458333333,67.21710292624219
1373662111.75,0.8586345,33.9375,91.46000004608,3.0182291666666665,67.30931827690732
1373662112.0,0.855913625,33.939166666666665,91.55,0.6111979166666667,67.21026770187551
1373662112.25,0.8531927499999999,33.94083333333333,91.62583329450666,-0.2984895833333333,66.92447067718419
1373662112.5,0.8504718750000001,33.9425,91.70166666666665,-2.5280989583333335,66.65825243078876
1373662112.75,0.8478577083333333,33.943333333333335,91.77750003882664,-5.740104166666668,66.51234536917923
1373662113.0,0.845296875,33.943333333333335,91.85333333333331,-8.007291666666667,66.34328957571357
1373662113.25,0.8428961250000001,33.943333333333335,91.92666662911998,-9.297369791666666,66.10542744895194
1373662113.5,0.8407621249999999,33.943333333333335,91.99999999999997,-9.972265625,65.9124932723882
1373662113.75,0.83894825,33.9425,92.07333337087998,-12.88703125,65.67021347665933
1373662114.0,0.8379879583333333,33.94083333333334,92.14666666666665,-16.008203124999998,65.21882944574297
1373662114.25,0.8370276666666666,33.93916666666667,92.21249996629331,-16.30182291666667,64.86166966997885
1373662114.5,0.83612075,33.9375,92.27833333333331,-15.731302083333333,64.55683231916719
1373662114.75,0.836174125,33.93666666666667,92.34416670037332,-12.952968749999998,64.33460438161691
1373662115.0,0.8362275,33.93666666666667,92.40999999999998,-10.5896875,64.24462575175288
1373662115.25,0.8361208333333333,33.93666666666666,92.47583329962666,-9.763697916666667,64.23150933238341
1373662115.5,0.8357474166666666,33.93666666666667,92.54166666666666,-8.431354166666667,64.2216182739383
1373662115.75,0.8351605833333333,33.9375,92.60750003370666,-5.955182291666667,64.19596866680476
1373662116.0,0.8344670416666666,33.939166666666665,92.67333333333333,-4.072161458333333,64.17780823442062
1373662116.25,0.8336667916666666,33.94083333333334,92.73499996842666,-3.0176041666666666,64.1426322655771
1373662116.5,0.8327598333333334,33.9425,92.79666666666667,-1.9465104166666667,64.12555481419027
1373662116.75,0.8317994999999999,33.94416666666667,92.85833336490667,1.0410416666666666,64.11885811577748
1373662117.0,0.8307858333333332,33.94583333333333,92.92,4.212473958333333,64.11016908926577
1373662117.25,0.8296654583333334,33.9475,92.96833330858666,5.41734375,64.10005406541772
1373662117.5,0.8284917083333333,33.94916666666667,93.01666666666667,5.896822916666667,64.10638647318258
1373662117.75,0.8272112916666665,33.95,93.06500002474667,5.261927083333333,64.09513386356726
1373662118.0,0.8257175,33.95,93.11333333333333,5.015677083333333,64.08213661375812
1373662118.25,0.8241703333333333,33.95,93.14083331925333,4.778932291666666,64.06893796481815
1373662118.5,0.8227298749999998,33.95,93.16833333333332,4.0428125,64.05374605302332
1373662118.75,0.8215028333333333,33.95,93.19583334741331,3.4469270833333336,64.03900412739277
1373662119.0,0.8203825,33.95,93.22333333333331,2.762291666666666,64.02740736082762
1373662119.25,0.8192621666666667,33.95,93.21750000298665,2.324479166666667,64.04666320290409
1373662119.5,0.8181951666666666,33.95,93.21166666666664,1.9547135416666668,64.04644191905753
1373662119.75,0.8170748333333333,33.950833333333335,93.20583333034665,1.1582552083333335,64.03652450699842
1373662120.0,0.8159545,33.95250000000001,93.19999999999999,0.46276041666666673,64.0299386251066
1373662120.25,0.8149408749999999,33.95416666666667,93.17500001279998,-0.12393229166666665,64.02940993411453
1373662120.5,0.8128069166666667,33.95583333333334,93.14999999999998,-0.6532552083333333,64.02350681798016
1373662120.75,0.80965925,33.95666666666667,93.12499998719998,-1.158671875,63.98027005818539
1373662121.0,0.80661825,33.95666666666667,93.09999999999998,-1.9711458333333336,63.941196795961496
1373662121.25,0.8036839583333334,33.95666666666667,93.06083335338666,-2.8648177083333333,63.91113030626358
1373662121.5,0.8008563750000001,33.95666666666667,93.02166666666665,-4.331901041666666,63.93328660397896
1373662121.75,0.7979754583333333,33.95583333333334,92.98249997994665,-6.895312499999999,63.91441766330535
1373662122.0,0.7949878333333333,33.95416666666667,92.94333333333333,-9.33609375,63.883624912384306
1373662122.25,0.7920001666666666,33.9525,92.90166668799999,-11.821796874999999,63.87832469482786
1373662122.5,0.7890125416666667,33.95083333333333,92.85999999999999,-14.359583333333331,63.856474388190854
1373662122.75,0.786131625,33.94833333333333,92.818333312,-15.595286458333334,63.8363358409992
1373662123.0,0.7832507083333332,33.945,92.77666666666666,-16.673932291666667,63.809948319881705
1373662123.25,0.7803164166666665,33.94166666666667,92.73500002133332,-16.98591145833333,63.77706206692414
1373662123.5,0.7785024583333332,33.93833333333334,92.69333333333333,-15.858177083333333,63.76251290125587
1373662123.75,0.777808875,33.93666666666667,92.65166664533334,-14.341119791666666,63.79410152538039
1373662124.0,0.7772220000000001,33.93666666666667,92.61,-12.413515624999997,63.82995552646138
1373662124.25,0.7767418333333334,33.93666666666667,92.56583335594667,-9.868229166666666,63.85749429744289
1373662124.5,0.776315,33.93666666666667,92.52166666666666,-6.523802083333332,63.81801828277236
1373662124.75,0.7759415,33.9375,92.47749997738666,-2.2550781249999994,63.83082247327227
1373662125.0,0.7756747083333333,33.93916666666667,92.43333333333332,1.7850260416666675,63.8655475290138
1373662125.25,0.7754612916666667,33.94083333333334,92.39166668799999,4.977447916666667,63.86371848473369
1373662125.5,0.7751411666666667,33.9425,92.35,7.875859375,63.93300315613144
1373662125.75,0.7745542916666667,33.94416666666667,92.308333312,9.330078125,64.02648099394766
1373662126.0,0.7739140416666667,33.94583333333333,92.26666666666667,10.344296875,64.20168856941298
1373662126.25,0.7732738333333334,33.9475,92.22333335552,10.882083333333334,64.3713851156204
1373662126.5,0.77242025,33.94916666666666,92.17999999999999,10.08078125,64.78838035746249
1373662126.75,0.7712999166666666,33.950833333333335,92.13666664447999,9.307708333333334,65.29711806282218
1373662127.0,0.77012625,33.9525,92.09333333333332,7.533828125,65.5656593626798
1373662127.25,0.7687925416666667,33.95416666666667,92.04750002346665,4.717421875,65.81826997466267
1373662127.5,0.7671387083333333,33.95583333333333,92.00166666666667,1.7147916666666667,66.2610361698743
1373662127.75,0.7652181250000001,33.9575,91.95583330986668,-0.6001562500000001,66.59227848747842
1373662128.0,0.7631908749999999,33.95916666666667,91.91000000000001,-2.8449218750000003,66.80910776681549
1373662128.25,0.7610569166666666,33.96083333333333,91.86250002432,-3.682890625,67.09609778916582
1373662128.5,0.7589762916666668,33.9625,91.815,-4.4594531250000005,67.0681175224188
1373662128.75,0.7571090416666667,33.964166666666664,91.76749997568,-5.289166666666667,67.07677823116177
1373662129.0,0.7549750416666666,33.96583333333333,91.71999999999998,-4.709921875,67.02747424014917
1373662129.25,0.752627625,33.9675,91.67416669013332,-4.385052083333334,67.12265537504766
1373662129.5,0.7505469583333334,33.96916666666666,91.62833333333333,-5.3289583333333335,66.88919680132149
1373662129.75,0.7487330416666667,33.97,91.58249997653334,-6.8312760416666665,66.54832815166361
1373662130.0,0.7469724583333334,33.97,91.53666666666668,-6.847005208333333,66.46425559013404
1373662130.25,0.7453719166666666,33.97,91.49750002005334,-5.784270833333333,66.42308914762336
1373662130.5,0.7440915,33.97,91.45833333333334,-4.323333333333333,66.22851388014361
1373662130.75,0.7430778333333333,33.97,91.41916664661333,-3.058671875,66.09718859191342
1373662131.0,0.7421708333333333,33.97,91.38,-1.6080208333333335,66.12076048603966
1373662131.25,0.7413705416666666,33.97,91.34166668629332,-0.6678385416666667,66.07853514096142
1373662131.5,0.7406769583333332,33.97,91.30333333333331,0.45489583333333333,66.45363453420055
1373662131.75,0.7400367499999999,33.97,91.26499998037332,1.8154947916666666,66.82121746444106
1373662132.0,0.7395565833333334,33.97,91.22666666666665,1.9103124999999999,67.03467328983709
1373662132.25,0.7387030000000001,33.97,91.18666668714665,2.184348958333333,66.90853099154721
1373662132.5,0.7375293333333334,33.97,91.14666666666665,4.241640625,66.89525147366777
1373662132.75,0.7363023333333335,33.97,91.10666664618665,6.5925520833333335,67.00329983349938
1373662133.0,0.7350753333333334,33.97,91.06666666666666,7.778333333333333,67.0459006153803
1373662133.25,0.7338483333333334,33.97,91.03500001621333,9.062786458333333,66.94847622975298
1373662133.5,0.732514625,33.97,91.00333333333333,10.480286458333333,66.81209139286499
1373662133.75,0.7310742083333334,33.97083333333333,90.97166665045333,10.697057291666667,66.74918248618978
1373662134.0,0.7295804166666667,33.972500000000004,90.94,11.139661458333334,66.61922148124034
1373662134.25,0.7280332500000001,33.97416666666667,90.91583334570666,11.019244791666667,66.45873847401593
1373662134.5,0.7264860833333334,33.975833333333334,90.89166666666665,10.896093749999999,66.07330330631584
1373662134.75,0.7248855833333333,33.97666666666667,90.86749998762666,11.686354166666666,65.60929504313903
1373662135.0,0.7234451666666667,33.97666666666667,90.84333333333332,12.272916666666667,65.28797444473035
1373662135.25,0.7225915416666666,33.97666666666667,90.82666667519999,12.649244791666668,65.1905483804929
1373662135.5,0.722004625,33.97666666666667,90.80999999999999,12.536432291666666,65.07089541612918
1373662135.75,0.7214177083333332,33.97666666666667,90.79333332479999,12.430364583333331,64.81352638583242
1373662136.0,0.7204039999999999,33.97666666666667,90.77666666666666,12.815078125,64.57333642513676
1373662136.25,0.7188567916666666,33.97666666666667,90.75833334272,12.634010416666667,64.46486367097738
1373662136.5,0.7172029166666666,33.97666666666667,90.74,11.748229166666667,64.37832237424658
1373662136.75,0.7155490416666667,33.975833333333334,90.72166665728,11.939817708333335,64.23857955833934
1373662137.0,0.7138951666666666,33.97416666666667,90.70333333333333,11.755286458333336,64.09225329910355
1373662137.25,0.7122413333333332,33.9725,90.68833334101333,11.814505208333332,63.9744196460018
1373662137.5,0.7105341666666667,33.97083333333333,90.67333333333333,12.168619791666666,63.930674167064524
1373662137.75,0.7088269583333333,33.97,90.65833332565332,11.503203125,63.92173347454895
1373662138.0,0.7071730833333333,33.97,90.64333333333332,11.374583333333334,63.946864365753534
1373662138.25,0.7053591666666666,33.97,90.62916667391998,10.856744791666666,63.97448109102967
1373662138.5,0.7024249166666667,33.97,90.61499999999998,9.267109375,63.88360175515274
1373662138.75,0.6976234166666666,33.97,90.60083332608,7.472630208333334,63.78914196426024
1373662139.0,0.6921817083333334,33.97,90.58666666666666,5.881744791666667,63.88749087839799
1373662139.25,0.6872734999999999,33.97,90.57583333887999,4.011145833333333,63.98864081653591
1373662139.5,0.6825786666666667,33.97,90.565,3.856796875,63.911549932765354
1373662139.75,0.6779905416666666,33.97083333333333,90.55416666112001,3.2409375,63.849975328052324
1373662140.0,0.6734557916666666,33.972500000000004,90.54333333333334,2.148541666666667,64.00560502082827
1373662140.25,0.66956125,33.97416666666667,90.53333333845333,2.0638020833333335,64.2203250478519
1373662140.5,0.6666269583333333,33.975833333333334,90.52333333333334,1.7895052083333336,64.40663343701789
1373662140.75,0.6645462916666666,33.9775,90.51333332821333,1.158984375,64.5879474658715
1373662141.0,0.6628924583333333,33.979166666666664,90.50333333333333,-0.90484375,64.68838995998102
1373662141.25,0.6616120833333333,33.98083333333333,90.49500000426667,-2.7930729166666666,64.76972856316847
1373662141.5,0.661612125,33.9825,90.48666666666668,-3.60140625,64.96000375251434
1373662141.75,0.663586125,33.984166666666674,90.47833332906667,-4.00328125,65.12346661233529
1373662142.0,0.6666804583333333,33.98583333333334,90.47000000000001,-4.658046875,65.11084898548638
1373662142.25,0.6698814583333333,33.987500000000004,90.45916667221334,-4.379557291666667,65.03187521692597
1373662142.5,0.6730824583333334,33.98916666666667,90.44833333333335,-5.373984375,65.14805816762329
1373662142.75,0.6762834583333334,33.99,90.43749999445335,-5.789713541666667,65.25067160019222
1373662143.0,0.6793777916666667,33.99,90.42666666666668,-4.784739583333333,65.06189387992241
1373662143.25,0.6818319166666668,33.99,90.41166667434668,-4.893177083333333,64.85179046791312
1373662143.5,0.6833791250000001,33.99,90.39666666666668,-6.381927083333334,64.59728698173649
1373662143.75,0.6840727083333333,33.99,90.38166665898667,-7.288385416666666,64.33513023780044
1373662144.0,0.6843394583333334,33.99,90.36666666666667,-6.022291666666667,64.16872714893603
1373662144.25,0.6843394583333334,33.99,90.35166667434667,-4.163541666666666,64.04764162177854
1373662144.5,0.6841260416666667,33.99,90.33666666666667,-1.8790625,63.83917310384231
1373662144.75,0.683805875,33.99,90.32166665898666,0.8191145833333334,63.67803347277879
1373662145.0,0.6833790416666666,33.99,90.30666666666666,2.620807291666667,63.51654530245039
1373662145.25,0.6825254583333334,33.99,90.29250000725332,3.552864583333333,63.426033473611284
1373662145.5,0.6814051250000001,33.99,90.27833333333334,4.396197916666667,63.35454754962324
1373662145.75,0.6802314166666666,33.98916666666667,90.26416665941333,4.773697916666667,63.32221295622873
1373662146.0,0.6790043333333333,33.987500000000004,90.25,4.4770312500000005,63.420829250850794
1373662146.25,0.6777239166666668,33.98583333333334,90.23083334314667,4.750598958333334,63.46298743845994
1373662146.5,0.6764435,33.98416666666667,90.21166666666667,6.840338541666667,63.57190556802001
1373662146.75,0.6751630833333334,33.9825,90.19249999018666,9.4234375,63.67940625078351
1373662147.0,0.6738292916666667,33.98083333333333,90.17333333333333,10.893593749999999,63.7438996877101
1373662147.25,0.6725488749999999,33.979166666666664,90.1441666816,12.030677083333336,63.759426511781555
1373662147.5,0.6711084166666667,33.9775,90.115,12.371380208333335,63.851668130231644
1373662147.75,0.6694012083333333,33.97666666666667,90.08583331839999,12.171015625,63.96638492189723
1373662148.0,0.6676406250000001,33.97666666666667,90.05666666666666,13.122760416666665,64.09265009148497
1373662148.25,0.6661467916666667,33.97666666666667,90.01750002005332,13.6484375,64.18812745053536
1373662148.5,0.6647596666666667,33.97666666666667,89.97833333333332,13.624947916666665,64.25192675207548
1373662148.75,0.663265875,33.9775,89.93916664661333,12.571848958333334,64.29798070022747
1373662149.0,0.6618254166666666,33.979166666666664,89.89999999999999,11.021458333333333,64.31146737176698
1373662149.25,0.660491625,33.98083333333333,89.86083335338667,9.443489583333333,64.35029244214853
1373662149.5,0.6591578333333333,33.9825,89.82166666666666,7.239166666666667,64.4067128024512
1373662149.75,0.6578774166666667,33.98458333333333,89.78249997994666,4.579348958333333,64.47097741053854
1373662150.0,0.656597,33.98708333333334,89.74333333333334,2.48890625,64.52839388151895
1373662150.25,0.6553699166666667,33.989583333333336,89.70833335125334,0.5414062499999999,64.58221373310379
1373662150.5,0.6543562500000001,33.99208333333333,89.67333333333335,-1.161953125,64.64627448451968
1373662150.75,0.6535560416666667,33.995,89.63833331541333,-3.0335156249999997,64.714361669831
1373662151.0,0.652649125,33.998333333333335,89.60333333333334,-5.1206249999999995,64.76837718899218
1373662151.25,0.6517955416666666,34.001666666666665,89.57166668288,-6.430208333333333,64.80167251640883
1373662151.5,0.6508885833333333,34.005,89.53999999999999,-7.3054427083333335,64.78564387983671
1373662151.75,0.6498215833333333,34.00833333333333,89.50833331711999,-7.1664062500000005,64.74915103096166
1373662152.0,0.6485945416666666,34.01166666666667,89.47666666666665,-6.603411458333333,64.70779597040841
1373662152.25,0.6473675,34.015,89.44333335039998,-6.2820052083333335,64.69571117059725
1373662152.5,0.6461404583333333,34.01833333333334,89.40999999999998,-5.77734375,64.67900068720411
1373662152.75,0.6448600833333332,34.02,89.37666664959998,-5.170078125000001,64.66391400598239
1373662153.0,0.643526375,34.02,89.34333333333332,-4.973541666666667,64.63566625152652
1373662153.25,0.6420859583333333,34.02,89.30500001962666,-4.697526041666666,64.61356634046956
1373662153.5,0.6406455416666667,34.02,89.26666666666665,-4.295885416666667,64.57943644138437
1373662153.75,0.6392050833333333,34.018750000000004,89.22833331370666,-3.837057291666667,64.52791260390742
1373662154.0,0.6378713333333333,34.01625,89.19,-3.434348958333334,64.48774222775693
1373662154.25,0.6363241666666667,34.01375,89.15500001792,-2.9297135416666666,64.47366480877456
1373662154.5,0.6347769999999999,34.01125,89.12,-2.121432291666667,64.5018365275428
1373662154.75,0.6334965833333334,34.00875,89.08499998207999,-1.2805989583333335,64.54264407885823
1373662155.0,0.6324295833333333,34.00625,89.05,-0.6223697916666667,64.58512869860303
1373662155.25,0.6313092083333333,34.003750000000004,89.02666667861332,0.10111979166666661,64.59826237427741
1373662155.5,0.6301354583333333,34.00125,89.00333333333333,0.5886979166666666,64.5939882158036
1373662155.75,0.6289617083333333,34.0,88.97999998805334,0.8365885416666666,64.58172630252034
1373662156.0,0.6277879999999999,34.0,88.95666666666666,1.0548697916666667,64.57833711218088
1373662156.25,0.6266676666666666,34.0,88.94666667178666,1.0006770833333334,64.57082797611797
1373662156.5,0.6253872500000001,34.0,88.93666666666667,0.8277083333333333,64.54977158537478
1373662156.75,0.624000125,34.0,88.92666666154668,0.8128645833333333,64.52584742311178
1373662157.0,0.6225062916666667,34.0,88.91666666666667,0.6673958333333334,64.49938400108788
1373662157.25,0.6210124583333333,34.0,88.91166666922666,0.3316666666666666,64.47094559924994
1373662157.5,0.6197320416666666,34.0,88.90666666666667,-0.19476562499999997,64.44250719741201
1373662157.75,0.6184516250000001,33.999583333333334,88.90166666410667,-0.7162760416666667,64.41406879557408
1373662158.0,0.6171712083333333,33.99875,88.89666666666666,-0.9697135416666667,64.38704109360332
1373662158.25,0.6158908333333334,33.99791666666667,88.88666667178666,-1.0252864583333334,64.36372202461364
1373662158.5,0.6144504166666667,33.997083333333336,88.87666666666667,-0.959609375,64.34281228757249
1373662158.75,0.61290325,33.99666666666667,88.86666666154667,-0.7859895833333334,64.32326311186652
1373662159.0,0.61146275,33.99666666666667,88.85666666666667,-1.0200520833333335,64.27556352711414
1373662159.25,0.61002225,33.99666666666667,88.84250000725334,-1.0620052083333333,64.2848209342859
1373662159.5,0.6087418333333333,33.99666666666667,88.82833333333333,-0.5675520833333333,64.36159648016174
1373662159.75,0.6076215,33.99666666666667,88.81416665941333,-0.05372395833333332,64.40139941455065
1373662160.0,0.60666125,33.99666666666667,88.8,0.8904166666666667,64.4924278814466
1373662160.25,0.6059144166666667,33.99666666666667,88.78416667477333,1.6161979166666667,64.62097824226812
1373662160.5,0.6049541666666666,33.99666666666667,88.76833333333335,1.8395052083333334,64.75209527549451
1373662160.75,0.6036737916666667,33.997083333333336,88.75249999189334,2.62734375,64.8841178696094
1373662161.0,0.6022333333333334,33.99791666666667,88.73666666666668,2.6733072916666667,64.97398929180827
1373662161.25,0.6007928333333333,33.99875,88.72666667178667,2.0983854166666664,64.95358486880477
1373662161.5,0.5995124166666667,33.999583333333334,88.71666666666667,1.2500260416666669,64.98541051702553
1373662161.75,0.5982854166666667,34.0,88.70666666154668,0.7416666666666667,64.98375233127463
1373662162.0,0.5969517083333333,34.0,88.69666666666667,1.5216927083333331,65.04834458446919
1373662162.25,0.59551125,34.0,88.69250000213334,2.5233072916666663,65.03915427466741
1373662162.5,0.5940174166666666,34.0,88.68833333333333,3.0089062499999994,64.93871287928457
1373662162.75,0.5924168750000001,34.0,88.68416666453334,3.526432291666667,64.89387712483618
1373662163.0,0.590709625,34.0,88.68,3.416848958333333,64.80049722753667
1373662163.25,0.5889490416666666,34.0,88.67916666709334,4.444765625,64.69567378964169
1373662163.5,0.5873485416666667,34.0,88.67833333333334,5.80328125,64.63044103299713
1373662163.75,0.586068125,34.0,88.67749999957333,5.714817708333334,64.49359156777068
1373662164.0,0.58494775,34.0,88.67666666666666,6.098463541666667,64.40398584736639
1373662164.25,0.5837740416666667,34.0,88.67416666794666,6.417109375,64.427990093196
1373662164.5,0.5825469583333333,34.0,88.67166666666667,7.361875,64.41874445189589
1373662164.75,0.5814265416666666,34.0,88.66916666538667,8.136770833333333,64.4490141554099
1373662165.0,0.5802527916666667,34.0,88.66666666666667,8.033984375000001,64.49951020398503
1373662165.25,0.578972375,34.0,88.66250000213333,7.329765625,64.62049814929146
1373662165.5,0.5777453333333332,34.0,88.65833333333333,6.5401822916666665,64.8344374800731
1373662165.75,0.5766249583333333,34.00125,88.65416666453334,5.606744791666666,64.995623806664
1373662166.0,0.575664625,34.00375,88.64999999999999,4.980572916666667,64.98977291504164
1373662166.25,0.5747042916666666,34.00625,88.63333334186666,3.375130208333333,64.8565435564803
1373662166.5,0.5737439583333334,34.00875,88.61666666666666,1.8597656249999999,64.75423683246662
1373662166.75,0.5727836666666667,34.01125,88.59999999146666,1.3331510416666665,64.81160257648474
1373662167.0,0.5716633333333333,34.013749999999995,88.58333333333333,1.5522135416666665,64.82672552717344
1373662167.25,0.5704896249999999,34.01625,88.55833334613332,2.600755208333333,64.86574916916979
1373662167.5,0.5691025416666667,34.01875,88.53333333333333,3.223854166666666,64.88110999540396
1373662167.75,0.5672886666666667,34.02125,88.50833332053334,3.6577343750000004,64.89489363369324
1373662168.0,0.565528125,34.02375,88.48333333333333,4.032578125,64.82798318707005
1373662168.25,0.5640343333333334,34.02625,88.46000001194666,4.577942708333333,64.70300917962142
1373662168.5,0.5624871666666668,34.028749999999995,88.43666666666667,4.556119791666666,64.52531567940333
1373662168.75,0.5608866666666666,34.03,88.41333332138666,4.448776041666666,64.38868835041596
1373662169.0,0.5592328333333333,34.03,88.38999999999999,4.791276041666666,64.41932248911961
1373662169.25,0.557579,34.03,88.38166667093333,5.025625000000001,64.55468308545285
1373662169.5,0.555925125,34.03,88.37333333333333,5.907578125000001,64.6144245057569
1373662169.75,0.5542712083333333,34.03,88.36499999573333,6.7299999999999995,64.5895170326625
1373662170.0,0.552777375,34.03,88.35666666666667,6.786041666666666,64.60405698861705
1373662170.25,0.5513369583333334,34.03,88.3608333312,6.443046875,64.58765433453793
1373662170.5,0.5501632916666667,34.03,88.36500000000001,6.053619791666666,64.5815101103993
1373662170.75,0.5493630416666667,34.03,88.3691666688,6.0210937499999995,64.56689488326107
1373662171.0,0.548616125,34.03,88.37333333333333,6.008541666666666,64.5790380718879
1373662171.25,0.547815875,34.03,88.38583332693334,6.029244791666667,64.59977612433234
1373662171.5,0.547069,34.03,88.39833333333334,6.682421874999999,64.6216279665995
1373662171.75,0.5464288333333333,34.02875,88.41083333973333,7.059687499999999,64.64498425719017
1373662172.0,0.5457352916666668,34.026250000000005,88.42333333333333,6.7984374999999995,64.66643959550025
1373662172.25,0.5449350416666666,34.02375,88.44249999018666,7.006588541666666,64.68446858978956
1373662172.5,0.5441348333333333,34.02125,88.46166666666667,6.2433072916666665,64.70503677190516
1373662172.75,0.5432812916666666,34.018750000000004,88.48083334314667,5.418828125,64.72076986571916
1373662173.0,0.5423743750000001,34.01625000000001,88.5,4.728802083333333,64.73472841226913
1373662173.25,0.541574125,34.01375,88.52916665173333,4.024973958333333,64.75239475651357
1373662173.5,0.5407738333333333,34.011250000000004,88.55833333333334,3.428541666666666,64.7605246765026
1373662173.75,0.5399735416666667,34.00875,88.58750001493333,2.5017187499999998,64.77530063747297
1373662174.0,0.5391732916666667,34.00625,88.61666666666666,1.5356249999999998,64.76859701041177
1373662174.25,0.5383197083333334,34.003750000000004,88.65416664746665,0.6963802083333333,64.7633457147968
1373662174.5,0.53741275,34.001250000000006,88.69166666666666,-0.10744791666666674,64.74145235715913
1373662174.75,0.5364524166666668,34.00125,88.72916668586666,-0.6059375,64.70828172552756
1373662175.0,0.5354920833333333,34.00375,88.76666666666665,-0.8921614583333334,64.6741064070429
1373662175.25,0.5345850833333333,34.00625,88.80999997781332,-1.5177864583333334,64.63993108855826
1373662175.5,0.5336780833333333,34.00875,88.85333333333332,-1.7437760416666668,64.60575577007361
1373662175.75,0.5328244583333334,34.01208333333333,88.89666668885333,-1.9068229166666668,64.57222437916722
1373662176.0,0.5318641249999999,34.01625,88.94,-2.2104947916666666,64.53804906068258
1373662176.25,0.5306903749999999,34.02041666666667,88.98166664533333,-2.4235937499999998,64.50387374219794
1373662176.5,0.5295166666666666,34.02458333333333,89.02333333333334,-2.589296875,64.47597036005264
1373662176.75,0.528343,34.028749999999995,89.06500002133333,-2.8744791666666667,64.44649899382252
1373662177.0,0.5272226666666666,34.032916666666665,89.10666666666667,-2.909166666666667,64.43682225273874
1373662177.25,0.526209,34.03708333333333,89.13999998293333,-2.944036458333333,64.42291006230654
1373662177.5,0.5252487083333334,34.04125,89.17333333333335,-2.9673437499999995,64.41899117303181
1373662177.75,0.5242350833333332,34.04416666666666,89.20666668373335,-2.682630208333333,64.41899117303181
1373662178.0,0.5232214583333333,34.045833333333334,89.24000000000001,-2.359505208333333,64.41899117303181
1373662178.25,0.5222078333333333,34.04749999999999,89.26333332138667,-1.723671875,64.41975845378975
1373662178.5,0.5211408333333333,34.049166666666665,89.28666666666666,-0.496015625,64.42436213833739
1373662178.75,0.5200205,34.05,89.31000001194667,0.41372395833333325,64.42424087212073
1373662179.0,0.51906025,34.05,89.33333333333333,1.5748437499999997,64.42577543363662
1373662179.25,0.5183134166666666,34.05,89.34999999146666,3.128541666666667,64.43805192576365
1373662179.5,0.5175665416666666,34.05,89.36666666666666,4.367109375,64.45032841789066
1373662179.75,0.5167129166666666,34.05,89.38333334186666,5.959062499999999,64.46260491001767
1373662180.0,0.5157525833333333,34.05,89.39999999999999,7.421302083333333,64.471044998355
1373662180.25,0.5146855416666666,34.05,89.40999999488,8.483255208333333,64.4810196482082
1373662180.5,0.5135117916666666,34.05,89.41999999999999,9.748151041666667,64.49490865863717
1373662180.75,0.5122847083333334,34.05,89.43000000512,10.831119791666666,64.51121644651904
1373662181.0,0.511057625,34.05,89.44,11.665598958333334,64.52994301185385
1373662181.25,0.50993725,34.05,89.45916665685333,12.398229166666667,64.5479022964307
1373662181.5,0.5089235833333333,34.05,89.47833333333332,12.546901041666667,64.56162204764239
1373662181.75,0.50796325,34.05,89.49750000981334,12.809661458333332,64.58034861297719
1373662182.0,0.5070029166666666,34.05,89.51666666666667,12.917760416666667,64.59754061679611
1373662182.25,0.5059892083333333,34.05,89.54333331968,12.494609375000001,64.60241845811238
1373662182.5,0.5049221666666667,34.05,89.57,12.007890625000002,64.60923110901423
1373662182.75,0.503961875,34.05083333333333,89.59666668032,11.501796874999998,64.61632576478924
1373662183.0,0.5030549583333334,34.052499999999995,89.62333333333333,10.975130208333335,64.62583601636304
1373662183.25,0.5021480416666667,34.05416666666667,89.64916665343999,10.800755208333335,64.63494366863705
1373662183.5,0.5012944583333333,34.05583333333333,89.67499999999998,10.575911458333334,64.64163360400951
1373662183.75,0.500440875,34.0575,89.70083334655999,10.158125,64.64832035772787
1373662184.0,0.49958729166666666,34.05916666666666,89.72666666666665,9.723203125,64.65379613189269
1373662184.25,0.49868037499999995,34.06083333333333,89.73916666026665,9.356510416666667,64.66088230325673
1373662184.5,0.497720125,34.0625,89.75166666666665,8.823046875000001,64.66837160419624
1373662184.75,0.4967065,34.064166666666665,89.76416667306665,8.279244791666667,64.67545777556028
1373662185.0,0.4957462083333333,34.06583333333333,89.77666666666666,8.027682291666666,64.68254394692431
1373662185.25,0.4948392916666667,34.0675,89.77083333632,7.739791666666666,64.69120235017984
1373662185.5,0.4940390833333333,34.06916666666667,89.76499999999999,7.729557291666667,64.6979259438498
1373662185.75,0.4932922083333333,34.06916666666667,89.75916666367999,7.64046875,64.7043675326466
1373662186.0,0.49259866666666663,34.0675,89.75333333333333,7.427421875,64.70839352564461
1373662186.25,0.49403624999999995,34.06583333333334,89.73833334101333,7.185703125,64.71282211794242
1373662186.5,0.4976583333333333,34.064166666666665,89.72333333333333,6.806432291666666,64.71805590883982
1373662186.75,0.501547125,34.0625,89.70833332565333,6.407135416666667,64.72087410393841
1373662187.0,0.505542625,34.06083333333333,89.69333333333333,6.166510416666667,64.72248450113763
1373662187.25,0.5096447916666667,34.05916666666666,89.67166667776,5.8175260416666665,64.72248450113763
1373662187.5,0.5138002916666666,34.0575,89.65,5.546614583333334,64.72248450113763
1373662187.75,0.5180625,34.056666666666665,89.62833332224,5.414739583333333,64.72248450113763
1373662188.0,0.522271375,34.056666666666665,89.60666666666667,5.08703125,64.72248450113763
1373662188.25,0.5264269166666666,34.056666666666665,89.58000001365333,4.89125,64.72248450113763
1373662188.5,0.530529125,34.056666666666665,89.55333333333334,4.784583333333333,64.72248450113763
1373662188.75,0.534578,34.0575,89.52666665301334,4.667083333333333,64.72248450113763
1373662189.0,0.538626875,34.05916666666667,89.5,4.7072135416666665,64.72248450113763
1373662189.25,0.54049125,34.060833333333335,89.47083334826667,4.846145833333333,64.72248450113763
1373662189.5,0.5400644166666666,34.0625,89.44166666666666,5.084713541666667,64.72248450113763
1373662189.75,0.5394775833333333,34.065,89.41249998506666,5.222421875,64.72248450113763
1373662190.0,0.5388374166666666,34.068333333333335,89.38333333333333,5.4809375000000005,64.72248450113763
1373662190.25,0.5380905833333333,34.071666666666665,89.35083334997333,5.747421875000001,64.72248450113763
1373662190.5,0.5373437499999999,34.074999999999996,89.31833333333333,5.921979166666667,64.72248450113763
1373662190.75,0.5365969166666666,34.0775,89.28583331669333,6.214375,64.72248450113763
1373662191.0,0.5358500416666666,34.07916666666667,89.25333333333333,6.539192708333334,64.72248450113763
1373662191.25,0.5351031249999999,34.08083333333334,89.22750001322666,6.850208333333334,64.72248450113763
1373662191.5,0.5343028333333333,34.0825,89.20166666666665,7.177265625,64.72248450113763
1373662191.75,0.5333958333333333,34.08416666666667,89.17583332010666,7.459765625,64.72248450113763
1373662192.0,0.5323287916666667,34.08583333333334,89.14999999999999,7.6211979166666675,64.72248450113763
1373662192.25,0.5312617916666666,34.0875,89.13083334314666,7.721328125,64.72248450113763
1373662192.5,0.530354875,34.08916666666667,89.11166666666665,7.705260416666667,64.72248450113763
1373662192.75,0.5295012916666666,34.09,89.09249999018665,7.911536458333334,64.72248450113763
1373662193.0,0.5287010416666666,34.09,89.07333333333332,8.023645833333333,64.72248450113763
1373662193.25,0.527954125,34.09,89.05833334101332,8.028046875,64.72248450113763
1373662193.5,0.5271538333333333,34.09,89.04333333333332,8.250520833333335,64.72248450113763
1373662193.75,0.5261935,34.090833333333336,89.02833332565332,8.320755208333333,64.72248450113763
1373662194.0,0.5250731666666667,34.0925,89.01333333333332,8.286484375,64.72248450113763
1373662194.25,0.5238995000000001,34.09416666666667,88.99750000810666,8.480729166666668,64.72248450113763
1373662194.5,0.5227791666666667,34.09583333333334,88.98166666666665,8.468750000000002,64.72248450113763
1373662194.75,0.5217655,34.097500000000004,88.96583332522667,8.290416666666667,64.72248450113763
1373662195.0,0.520911875,34.09916666666667,88.95,8.198151041666668,64.72248450113763
1373662195.25,0.5201649583333333,34.100833333333334,88.93166667605334,7.978072916666666,64.72248450113763
1373662195.5,0.5194180416666666,34.1025,88.91333333333333,7.590026041666667,64.72248450113763
1373662195.75,0.518671125,34.104166666666664,88.89499999061333,7.3613541666666675,64.72248450113763
1373662196.0,0.5178708333333333,34.10583333333333,88.87666666666667,7.349817708333333,64.72248450113763
1373662196.25,0.5169638333333334,34.1075,88.855833344,7.355026041666668,64.72248450113763
1373662196.5,0.516056875,34.10916666666667,88.83500000000001,7.134999999999999,64.72248450113763
1373662196.75,0.515256625,34.10916666666667,88.814166656,7.277734374999999,64.72248450113763
1373662197.0,0.5145097083333333,34.107499999999995,88.79333333333334,7.220833333333334,64.72248450113763
1373662197.25,0.5137627916666667,34.10583333333333,88.7641666816,6.72296875,64.72248450113763
1373662197.5,0.51306925,34.104166666666664,88.735,6.803124999999999,64.72248450113763
1373662197.75,0.5124290833333333,34.1025,88.7058333184,6.751145833333333,64.72248450113763
1373662198.0,0.5116822083333333,34.100833333333334,88.67666666666666,6.814348958333333,64.72248450113763
1373662198.25,0.5108819583333334,34.09916666666667,88.64583334912,7.248619791666667,64.72248450113763
1373662198.5,0.5099750000000001,34.097500000000004,88.615,7.768489583333333,64.72248450113763
1373662198.75,0.508854625,34.09583333333334,88.58416665088,7.969713541666667,64.72248450113763
1373662199.0,0.50773425,34.094166666666666,88.55333333333333,7.840963541666667,64.72248450113763
1373662199.25,0.5067205833333334,34.0925,88.52166668288,7.593020833333333,64.72248450113763
1373662199.5,0.50576025,34.090833333333336,88.49,7.508880208333334,64.72248450113763
1373662199.75,0.5047999166666667,34.090833333333336,88.45833331712,6.950442708333334,64.72248450113763
1373662200.0,0.5039462916666667,34.0925,88.42666666666666,6.661041666666666,64.72248450113763
1373662200.25,0.503199375,34.09416666666667,88.39750001493333,6.635677083333333,64.72248450113763
1373662200.5,0.5023991250000001,34.09583333333334,88.36833333333333,6.027578125000001,64.72248450113763
1373662200.75,0.5014388333333334,34.097500000000004,88.33916665173332,5.768802083333333,64.72248450113763
1373662201.0,0.5004785416666667,34.09916666666667,88.30999999999999,5.303645833333333,64.72248450113763
1373662201.25,0.4995715833333334,34.100833333333334,88.28000001535999,4.462369791666666,64.72248450113763
1373662201.5,0.49877129166666667,34.1025,88.24999999999999,3.7812760416666666,64.72248450113763
1373662201.75,0.4981844166666667,34.104166666666664,88.21999998463998,3.184713541666666,64.72248450113763
1373662202.0,0.49765091666666667,34.10583333333333,88.18999999999998,2.705182291666667,64.72248450113763
1373662202.25,0.49706408333333335,34.1075,88.15916668245332,2.331927083333333,64.72248450113763
1373662202.5,0.49637058333333334,34.10916666666667,88.12833333333333,1.9535677083333332,64.72248450113763
1373662202.75,0.4956237083333333,34.11,88.09749998421333,1.6755729166666666,64.72248450113763
1373662203.0,0.49482345833333335,34.11,88.06666666666666,1.3032291666666667,64.72248450113763
1373662203.25,0.49380983333333334,34.11,88.03750001493333,1.0204947916666667,64.72248450113763
1373662203.5,0.4926895,34.11,88.00833333333333,0.857265625,64.72248450113763
1373662203.75,0.49172920833333333,34.11083333333333,87.97916665173332,0.5429427083333332,64.72248450113763
1373662204.0,0.49082224999999996,34.112500000000004,87.94999999999999,0.35742187499999994,64.72248450113763
1373662204.25,0.48991529166666664,34.11416666666667,87.91916668245332,0.28734374999999995,64.72248450113763
1373662204.5,0.489008375,34.115833333333335,87.88833333333332,0.11869791666666661,64.72248450113763
1373662204.75,0.488048125,34.1175,87.85749998421332,0.03864583333333328,64.72248450113763
1373662205.0,0.487087875,34.119166666666665,87.82666666666665,-0.023333333333333386,64.72248450113763
1373662205.25,0.48607425,34.12083333333333,87.79750001493332,-0.07656250000000005,64.72248450113763
1373662205.5,0.4850605833333333,34.1225,87.76833333333332,-0.07601562500000004,64.72248450113763
1373662205.75,0.48415362500000003,34.12416666666667,87.73916665173333,0.05408854166666663,64.72248450113763
1373662206.0,0.4833000416666666,34.12583333333333,87.71,0.3134375,64.72248450113763
1373662206.25,0.4825531250000001,34.127500000000005,87.69083334314666,0.43020833333333336,64.72248450113763
1373662206.5,0.48191287499999996,34.12916666666667,87.67166666666665,0.6127864583333333,64.72248450113763
1373662206.75,0.48127262500000006,34.13,87.65249999018666,1.0290364583333333,64.72248450113763
1373662207.0,0.4806324166666667,34.13,87.63333333333333,1.475260416666667,64.72248450113763
1373662207.25,0.47999225,34.13,87.63333333333333,2.0549739583333335,64.72248450113763
1373662207.5,0.47935204166666673,34.13,87.63333333333333,2.85734375,64.72248450113763
1373662207.75,0.4786584583333333,34.13,87.63333333333333,3.519869791666667,64.72248450113763
1373662208.0,0.47785820833333337,34.13,87.63333333333333,4.341067708333333,64.72248450113763
1373662208.25,0.4771113333333334,34.13,87.64833332565333,5.2648697916666665,64.72248450113763
1373662208.5,0.4764177916666667,34.13,87.66333333333333,6.093932291666667,64.72248450113763
1373662208.75,0.47567087500000005,34.13,87.67833334101333,6.999088541666667,64.72248450113763
1373662209.0,0.47497729166666675,34.13,87.69333333333333,7.87234375,64.72248450113763
1373662209.25,0.47433708333333335,34.13,87.70833332565333,8.627708333333333,64.72248450113763
1373662209.5,0.4736969166666667,34.13,87.72333333333333,9.417916666666667,64.72248450113763
1373662209.75,0.473003375,34.13,87.73833334101333,10.061119791666668,64.72248450113763
1373662210.0,0.47225645833333335,34.13,87.75333333333333,10.614869791666665,64.72248450113763
1373662210.25,0.4714027916666667,34.13,87.75499999914666,11.089479166666669,64.72248450113763
1373662210.5,0.4706025,34.13,87.75666666666666,11.310520833333333,64.72248450113763
1373662210.75,0.46990891666666673,34.130833333333335,87.75833333418666,11.538307291666667,64.72248450113763
1373662211.0,0.469322,34.1325,87.75999999999999,11.575468749999999,64.72248450113763
1373662211.25,0.4687350833333333,34.134166666666665,87.74666667349332,11.4975,64.72248450113763
1373662211.5,0.4681482083333333,34.13583333333333,87.73333333333332,11.489583333333334,64.72248450113763
1373662211.75,0.46761470833333335,34.137499999999996,87.71999999317333,11.256510416666666,64.72248450113763
1373662212.0,0.46702787500000004,34.13916666666667,87.70666666666666,10.941223958333333,64.72248450113763
1373662212.25,0.4663343333333334,34.14083333333333,87.685833344,10.796223958333334,64.72248450113763
1373662212.5,0.4655874166666667,34.142500000000005,87.66499999999999,10.476614583333333,64.72248450113763
1373662212.75,0.4648405,34.14416666666667,87.644166656,10.064713541666666,64.72248450113763
1373662213.0,0.4641469166666667,34.145833333333336,87.62333333333333,9.793463541666666,64.72248450113763
1373662213.25,0.4636134166666667,34.1475,87.60250001066667,9.3496875,64.72248450113763
1373662213.5,0.46307991666666676,34.149166666666666,87.58166666666668,8.876458333333334,64.72248450113763
1373662213.75,0.46249308333333333,34.15,87.56083332266667,8.72484375,64.72248450113763
1373662214.0,0.46190625,34.15,87.54,8.518177083333333,64.72248450113763
1373662214.25,0.46121270833333333,34.15,87.51750001152,8.258098958333333,64.72248450113763
1373662214.5,0.46041245833333333,34.15,87.495,8.053932291666667,64.72248450113763
1373662214.75,0.459558875,34.15,87.47249998848,7.832083333333333,64.72248450113763
1373662215.0,0.458758625,34.15,87.44999999999999,7.394270833333334,64.72248450113763
1373662215.25,0.4580650416666667,34.15,87.42000001535999,6.860625,64.71261479503369
1373662215.5,0.4573714583333333,34.15,87.38999999999999,6.413749999999999,64.7013355356832
1373662215.75,0.45667791666666674,34.149166666666666,87.35999998464,5.939609375,64.69481231743107
1373662216.0,0.45603774999999996,34.1475,87.33,5.43859375,64.68603211395761
1373662216.25,0.4553975833333333,34.145833333333336,87.29083335338666,5.117630208333334,64.68091774060754
1373662216.5,0.4547040833333334,34.14416666666667,87.25166666666667,4.641380208333333,64.66822769859586
1373662216.75,0.45395720833333336,34.14333333333334,87.21249997994667,3.9676041666666664,64.65521542837317
1373662217.0,0.45310362500000007,34.14333333333333,87.17333333333333,3.4387239583333336,64.64200141201236
1373662217.25,0.452303375,34.14333333333334,87.13000002218666,2.872135416666666,64.6282634213024
1373662217.5,0.45160979166666665,34.14333333333333,87.08666666666667,2.3293229166666665,64.61525115107973
1373662217.75,0.45096954166666675,34.14333333333334,87.04333331114667,1.9433072916666665,64.60469727842077
1373662218.0,0.45032929166666663,34.14333333333334,87.0,1.8147656249999997,64.59011025710059
1373662218.25,0.44968908333333335,34.14333333333333,86.95833335466666,2.0044791666666666,64.58321578042258
1373662218.5,0.44910225,34.14333333333334,86.91666666666666,2.2315364583333333,64.57773085699112
1373662218.75,0.44851541666666667,34.14458333333334,86.87499997866666,2.667838541666667,64.5674898924613
1373662219.0,0.44782187500000004,34.147083333333335,86.83333333333333,2.944921875,64.55950591315279
1373662219.25,0.44702162500000003,34.14958333333333,86.79000002218666,3.1138020833333333,64.5478561037209
1373662219.5,0.446221375,34.15208333333333,86.74666666666667,3.8990625,64.5447906936413
1373662219.75,0.4455278333333334,34.153749999999995,86.70333331114668,4.701822916666667,64.54204751177271
1373662220.0,0.444941,34.154583333333335,86.66000000000001,5.371171875000001,64.5402317965295
1373662220.25,0.44446087500000003,34.15541666666666,86.61583335594668,6.281328125000001,64.545189583766
1373662220.5,0.44398075,34.15625,86.57166666666667,7.047317708333334,64.55317001487154
1373662220.75,0.44339391666666667,34.15708333333333,86.52749997738667,7.700260416666667,64.55893368015056
1373662221.0,0.44270041666666665,34.157916666666665,86.48333333333333,8.4440625,64.56885130995938
1373662221.25,0.44195354166666667,34.15875,86.43416669184,9.006302083333333,64.58110718905478
1373662221.5,0.44115329166666667,34.15958333333333,86.385,9.565729166666667,64.59388594996284
1373662221.75,0.4403530416666667,34.16,86.33583330816,10.009010416666667,64.60606128514586
1373662222.0,0.439606125,34.16,86.28666666666668,10.502421875,64.62093324478538
1373662222.25,0.43891254166666666,34.16,86.23833335808,11.023463541666667,64.63886337339031
1373662222.5,0.43827229166666665,34.16,86.19,10.983359375000001,64.65119732576048
1373662222.75,0.43763204166666664,34.16,86.14166664192,10.811067708333333,64.66554393294972
1373662223.0,0.43699179166666663,34.16,86.09333333333332,10.673854166666667,64.67856100973466
1373662223.25,0.4362982083333333,34.16,86.04500002474666,10.205026041666667,64.68279250285238
1373662223.5,0.43555133333333335,34.16,85.99666666666666,9.579296875,64.68279250285238
1373662223.75,0.43485783333333333,34.16083333333333,85.94833330858665,8.964661458333333,64.6824300552466
1373662224.0,0.43421762500000005,34.162499999999994,85.89999999999999,8.203880208333333,64.6819467917722
1373662224.25,0.43363075,34.16416666666667,85.85416669013333,7.3777083333333335,64.67896298557976
1373662224.5,0.43315058333333334,34.16583333333333,85.80833333333332,6.496796875,64.67561741430104
1373662224.75,0.4326704166666666,34.1675,85.76249997653332,5.45296875,64.67509387887047
1373662225.0,0.43219029166666667,34.16916666666666,85.71666666666665,4.430052083333334,64.67074427794371
1373662225.25,0.4317635416666667,34.170833333333334,85.66916669098666,3.503151041666667,64.66446594909121
1373662225.5,0.43123008333333335,34.17249999999999,85.62166666666666,2.6571875,64.66277506578278
1373662225.75,0.43053654166666666,34.174166666666665,85.57416664234665,1.9066666666666665,64.65540265326278
1373662226.0,0.429789625,34.17583333333333,85.52666666666666,1.2084374999999998,64.65157720456506
1373662226.25,0.42909604166666665,34.1775,85.47750002517333,0.6156510416666666,64.65161761123424
1373662226.5,0.428509125,34.17916666666667,85.42833333333333,0.22658854166666662,64.65214114666482
1373662226.75,0.4279755416666666,34.18,85.37916664149333,-0.0759635416666667,64.6527049540516
1373662227.0,0.42749533333333334,34.18,85.33,-0.42979166666666674,64.65334930535077
1373662227.25,0.42701516666666667,34.18,85.27750002687999,-0.7420312500000001,64.65633311154322
1373662227.5,0.42642833333333335,34.18,85.225,-0.8189062500000001,64.65915580100928
1373662227.75,0.4258415,34.18,85.17249997312,-0.7972395833333334,64.65975988035225
1373662228.0,0.4252012916666667,34.18,85.11999999999999,-0.8300520833333334,64.66149340073487
1373662228.25,0.424454375,34.18,85.06083336362666,-0.7272395833333335,64.66209748007786
1373662228.5,0.42381416666666666,34.18,85.00166666666667,-0.5091927083333334,64.66270155942082
1373662228.75,0.42333404166666666,34.17916666666667,84.94249996970666,-0.42388020833333334,64.66685369728773
1373662229.0,0.42285391666666666,34.1775,84.88333333333333,0.02359374999999994,64.66387132537488
1373662229.25,0.42226708333333335,34.17583333333334,84.81416670208,0.60828125,64.65169435693457
1373662229.5,0.42162691666666663,34.174166666666665,84.745,1.2274739583333334,64.63471364608887
1373662229.75,0.42098675,34.1725,84.67583329792,2.1548958333333332,64.60616290988472
1373662230.0,0.42029325000000006,34.17083333333333,84.60666666666667,3.1831250000000004,64.57190544728225
1373662230.25,0.41959975,34.16916666666666,84.53000003925334,4.1428125,64.53764798467978
1373662230.5,0.4189062083333333,34.1675,84.45333333333333,4.9757291666666665,64.50339052207732
1373662230.75,0.418212625,34.16583333333333,84.37666662741333,5.9581510416666665,64.46913305947486
1373662231.0,0.41762575,34.16416666666667,84.3,6.883593749999999,64.43487559687239
1373662231.25,0.41709225,34.1625,84.21916670805334,7.674505208333334,64.40061813426992
1373662231.5,0.41655875000000003,34.16083333333333,84.13833333333334,8.553333333333333,64.36636067166746
1373662231.75,0.41602524999999996,34.16208333333333,84.05749995861333,9.557369791666668,64.33222402493358
1373662232.0,0.41549175,34.16625,83.97666666666667,10.255260416666667,64.3022787340742
1373662232.25,0.41495825,34.17041666666666,83.89500004181333,11.207864583333334,64.28019823991205
1373662232.5,0.41442475,34.17458333333333,83.81333333333333,11.921770833333333,64.2629214881553
1373662232.75,0.4137845416666666,34.17875,83.73166662485333,12.247291666666667,64.25729530566937
1373662233.0,0.4130909583333333,34.182916666666664,83.64999999999999,13.013255208333332,64.25729530566937
1373662233.25,0.41245070833333336,34.187083333333334,83.56250004479999,13.543671875,64.25729530566937
1373662233.5,0.4118638333333333,34.191250000000004,83.475,13.719114583333335,64.25729530566937
1373662233.75,0.41127700000000006,34.19541666666667,83.3874999552,14.159088541666668,64.25729530566937
1373662234.0,0.41069016666666663,34.19958333333334,83.3,14.622916666666667,64.25729530566937
1373662234.25,0.4101566666666667,34.20375,83.20583338154667,14.660989583333333,64.25729530566937
1373662234.5,0.4095697916666667,34.20791666666667,83.11166666666666,14.793307291666665,64.25729530566937
1373662234.75,0.4089295416666667,34.21,83.01749995178666,14.943489583333333,64.25729530566937
1373662235.0,0.40828933333333334,34.21,82.92333333333333,14.602968749999997,64.25729530566937
1373662235.25,0.4077558333333333,34.21,82.82416671744,14.159505208333334,64.25729530566937
1373662235.5,0.40722233333333335,34.21,82.725,13.999583333333332,64.25729530566937
1373662235.75,0.40679554166666665,34.21,82.62583328256,13.545052083333333,64.25729530566937
1373662236.0,0.4064754583333334,34.21,82.52666666666666,12.709114583333333,64.25729530566937
1373662236.25,0.406155375,34.21,82.4308333824,12.2115625,64.25729530566937
1373662236.5,0.4057819166666667,34.21,82.335,11.807083333333331,64.25729530566937
1373662236.75,0.4053550833333333,34.21083333333333,82.23916661759999,11.070807291666666,64.25729530566937
1373662237.0,0.40492825,34.2125,82.14333333333333,10.509036458333332,64.25729530566937
1373662237.25,0.40444808333333326,34.214166666666664,82.05416671232,10.066927083333333,64.25729530566937
1373662237.5,0.40391458333333335,34.215833333333336,81.96499999999999,9.295,64.25729530566937
1373662237.75,0.40332775000000004,34.217499999999994,81.87583328767998,8.475078125,64.25729530566937
1373662238.0,0.40279424999999996,34.219166666666666,81.78666666666665,7.994973958333333,64.25729530566937
1373662238.25,0.4022074166666667,34.22083333333333,81.70500004181332,7.290755208333334,64.25729530566937
1373662238.5,0.40162058333333334,34.2225,81.62333333333332,6.550859374999999,64.25729530566937
1373662238.75,0.4009804166666667,34.22416666666667,81.54166662485332,6.015911458333334,64.25729530566937
1373662239.0,0.40034024999999995,34.22583333333333,81.46,5.390625,64.25729530566937
1373662239.25,0.39970008333333334,34.2275,81.38250003968,4.812760416666667,64.25729530566937
1373662239.5,0.39916662500000005,34.229166666666664,81.30499999999999,4.328125,64.25729530566937
1373662239.75,0.39873987499999997,34.23083333333333,81.22749996031999,3.78859375,64.25729530566937
1373662240.0,0.39825975,34.232499999999995,81.14999999999999,3.18109375,64.25729530566937
1373662240.25,0.39772625000000006,34.23416666666666,81.07666670421332,2.79171875,64.25729530566937
1373662240.5,0.39724612499999995,34.235833333333325,81.00333333333333,2.5494791666666665,64.25729530566937
1373662240.75,0.39681933333333336,34.237500000000004,80.92999996245334,2.4548958333333335,64.25729530566937
1373662241.0,0.3963391666666667,34.23916666666667,80.85666666666667,2.4938541666666665,64.25729530566937
1373662241.25,0.39591233333333337,34.240833333333335,80.77500004181333,2.5799739583333334,64.25729530566937
1373662241.5,0.39548549999999993,34.2425,80.69333333333333,2.6612239583333333,64.25729530566937
1373662241.75,0.39505866666666667,34.244166666666665,80.61166662485333,2.96625,64.25729530566937
1373662242.0,0.39463183333333335,34.24583333333333,80.52999999999999,3.3412239583333334,64.25729530566937
1373662242.25,0.39409829166666666,34.2475,80.44416671061332,3.6141406250000006,64.25729530566937
1373662242.5,0.39345804166666665,34.24916666666667,80.35833333333332,4.0402604166666665,64.25729530566937
1373662242.75,0.3927644583333334,34.25,80.27249995605332,4.5339583333333335,64.25729530566937
1373662243.0,0.3920709166666667,34.25,80.18666666666665,5.033125000000001,64.25729530566937
1373662243.25,0.3914840833333333,34.25,80.103333376,5.6433333333333335,64.25729530566937
1373662243.5,0.3909505833333333,34.25,80.01999999999998,6.189713541666666,64.25729530566937
1373662243.75,0.39041708333333336,34.25,79.93666662399998,6.517630208333334,64.25729530566937
1373662244.0,0.38988358333333334,34.25,79.85333333333332,6.981145833333334,64.25729530566937
1373662244.25,0.3893500833333334,34.25,79.78500003498667,7.372864583333333,64.25729530566937
1373662244.5,0.3888165833333334,34.25,79.71666666666667,7.595755208333333,64.25729530566937
1373662244.75,0.38822975000000004,34.25,79.64833329834666,7.891119791666665,64.25729530566937
1373662245.0,0.3875895833333334,34.25,79.58,8.082239583333335,64.25729530566937
1373662245.25,0.38700275,34.25,79.53666668885333,8.08140625,64.25729530566937
1373662245.5,0.38646925000000004,34.25,79.49333333333333,8.187291666666665,64.25729530566937
1373662245.75,0.3859890833333333,34.25083333333333,79.44999997781332,8.203515625,64.25729530566937
1373662246.0,0.38556225,34.2525,79.40666666666665,8.048515625,64.25729530566937
1373662246.25,0.3851354166666667,34.25416666666666,79.38166667946665,7.933958333333333,64.25729530566937
1373662246.5,0.38465525,34.255833333333335,79.35666666666665,7.764921875,64.25729530566937
1373662246.75,0.384175125,34.2575,79.33166665386666,7.675338541666666,64.25729530566937
1373662247.0,0.383748375,34.25916666666667,79.30666666666666,7.372708333333333,64.25729530566937
1373662247.25,0.383321625,34.26083333333333,79.29666667178665,7.082239583333333,64.25729530566937
1373662247.5,0.3828948333333333,34.262499999999996,79.28666666666666,6.911796875,64.25729530566937
1373662247.75,0.382468,34.265,79.27666666154667,6.5746093750000005,64.25729530566937
1373662248.0,0.3820411666666667,34.26833333333334,79.26666666666667,6.274270833333333,64.25729530566937
1373662248.25,0.3816143333333333,34.27166666666667,79.26083333631999,6.168359374999999,64.25729530566937
1373662248.5,0.38118749999999996,34.275,79.255,5.981145833333334,64.25729530566937
1373662248.75,0.3807073333333333,34.277499999999996,79.24916666368,5.763567708333333,64.25729530566937
1373662249.0,0.3801738333333333,34.27916666666667,79.24333333333333,5.679401041666666,64.25729530566937
1373662249.25,0.37958699999999995,34.28083333333334,79.24000000170666,5.678463541666666,64.25729530566937
1373662249.5,0.3790001666666667,34.2825,79.23666666666666,5.562369791666666,64.25729530566937
1373662249.75,0.3784666666666667,34.28416666666667,79.23333333162667,5.616458333333333,64.25729530566937
1373662250.0,0.3779331666666667,34.28583333333333,79.23,5.985807291666667,64.25729530566937
1373662250.25,0.37739966666666663,34.2875,79.23166666581334,6.260286458333333,64.25729530566937
1373662250.5,0.3769195416666667,34.28916666666667,79.23333333333333,6.632447916666666,64.25729530566937
1373662250.75,0.376546125,34.29,79.23500000085333,7.14890625,64.25729530566937
1373662251.0,0.37617266666666666,34.29,79.23666666666666,7.487916666666667,64.25729530566937
1373662251.25,0.37579925000000003,34.29,79.23999999829333,7.834036458333333,64.25729530566937
1373662251.5,0.37537250000000005,34.29,79.24333333333333,8.129869791666666,64.25729530566937
1373662251.75,0.37499908333333337,34.29,79.24666666837332,8.461640625,64.25729530566937
1373662252.0,0.374679,34.29,79.24999999999999,8.7696875,64.25729530566937
1373662252.25,0.374358875,34.29,79.25416666453333,8.769088541666667,64.25729530566937
1373662252.5,0.37403870833333336,34.29,79.25833333333333,9.002135416666667,64.25729530566937
1373662252.75,0.37366520833333333,34.29,79.26250000213332,9.056171874999999,64.25729530566937
1373662253.0,0.37318504166666666,34.29,79.26666666666667,8.655572916666666,64.25729530566937
1373662253.25,0.37265154166666664,34.29,79.26916666538666,8.52109375,64.25729530566937
1373662253.5,0.3721180416666667,34.29,79.27166666666666,8.303098958333333,64.25729530566937
1373662253.75,0.3715845416666666,34.29083333333333,79.27416666794666,7.583177083333333,64.25729530566937
1373662254.0,0.37110441666666666,34.2925,79.27666666666666,7.232265624999999,64.25729530566937
1373662254.25,0.37062425000000004,34.29416666666666,79.27666666666666,6.944609375,64.25729530566937
1373662254.5,0.37019741666666667,34.295833333333334,79.27666666666666,6.272864583333333,64.25729530566937
1373662254.75,0.36971725000000005,34.2975,79.27666666666666,5.656848958333334,64.25729530566937
1373662255.0,0.36918375,34.299166666666665,79.27666666666666,5.291666666666666,64.25729530566937
1373662255.25,0.36870362500000003,34.30083333333334,79.27583333375999,4.7299999999999995,64.25729530566937
1373662255.5,0.368276875,34.3025,79.27499999999999,4.052005208333333,64.25729530566937
1373662255.75,0.36785008333333336,34.30416666666667,79.27416666623999,3.7562239583333334,64.25729530566937
1373662256.0,0.36742325000000003,34.30583333333333,79.27333333333333,3.3676041666666667,64.25729530566937
1373662256.25,0.36699641666666666,34.3075,79.27083333461333,2.6702083333333335,64.25729530566937
1373662256.5,0.36656958333333334,34.30916666666667,79.26833333333332,2.3510416666666667,64.25729530566937
1373662256.75,0.36608941666666667,34.31,79.26583333205332,2.383958333333333,64.25729530566937
1373662257.0,0.36555591666666665,34.31,79.26333333333332,2.0704947916666665,64.25729530566937
1373662257.25,0.36507579166666665,34.31,79.25750000298666,2.043802083333333,64.25729530566937
1373662257.5,0.3645956666666666,34.31,79.25166666666667,2.5179427083333334,64.25729530566937
1373662257.75,0.36406216666666663,34.31,79.24583333034666,2.814166666666667,64.25729530566937
1373662258.0,0.36352866666666667,34.31,79.24,3.2844270833333336,64.25729530566937
1373662258.25,0.36299516666666665,34.31,79.22833333930666,4.233333333333333,64.25729530566937
1373662258.5,0.3624616666666667,34.31,79.21666666666667,5.2730468749999995,64.25729530566937
1373662258.75,0.36192816666666666,34.31,79.20499999402666,6.250260416666667,64.25729530566937
1373662259.0,0.3613946666666667,34.31,79.19333333333333,7.585026041666667,64.25729530566937
1373662259.25,0.3609145,34.31,79.1766666752,9.140234375,64.25729530566937
1373662259.5,0.360381,34.31,79.16,10.358359375,64.25729530566937
1373662259.75,0.35990083333333334,34.310833333333335,79.1433333248,11.591015624999999,64.25729530566937
1373662260.0,0.359474,34.3125,79.12666666666667,13.040182291666666,64.25729530566937
1373662260.25,0.35904716666666664,34.31416666666667,79.10833334272,14.079583333333332,64.25729530566937
1373662260.5,0.35862037500000005,34.31583333333334,79.09,14.9146875,64.25729530566937
1373662260.75,0.35819358333333334,34.3175,79.07166665727999,15.916770833333333,64.25729530566937
1373662261.0,0.35776674999999997,34.31916666666667,79.05333333333333,16.345182291666667,64.25729530566937
1373662261.25,0.35733991666666665,34.32083333333333,79.0366666752,16.469765624999997,64.25729530566937
1373662261.5,0.35685975,34.3225,79.02,16.507213541666665,64.25729530566937
1373662261.75,0.356379625,34.32333333333333,79.0033333248,16.266380208333334,64.25729530566937
1373662262.0,0.35600620833333335,34.32333333333333,78.98666666666666,15.914791666666666,64.25729530566937
1373662262.25,0.35563279166666667,34.32333333333333,78.97250000725333,15.439791666666666,64.25729530566937
1373662262.5,0.35525933333333337,34.32333333333333,78.95833333333333,14.905651041666667,64.25729530566937
1373662262.75,0.35477916666666665,34.3225,78.94416665941333,14.307630208333334,64.25729530566937
1373662263.0,0.3542456666666667,34.32083333333333,78.92999999999999,13.580208333333333,64.25729530566937
1373662263.25,0.35371216666666666,34.31916666666667,78.91916667221332,12.900572916666667,64.25729530566937
1373662263.5,0.3531786666666667,34.3175,78.90833333333333,12.265156250000002,64.25729530566937
1373662263.75,0.352751875,34.317083333333336,78.89749999445333,11.571041666666668,64.25729530566937
1373662264.0,0.35237845833333337,34.31791666666667,78.88666666666666,11.014192708333333,64.25729530566937
1373662264.25,0.3519517083333334,34.31875,78.87833333759998,10.547109375,64.26644449267432
1373662264.5,0.3515782916666667,34.319583333333334,78.86999999999999,10.167161458333334,64.28226705611124
1373662264.75,0.35120483333333335,34.32125,78.8616666624,9.798020833333334,64.29845346207946
1373662265.0,0.35077800000000003,34.323750000000004,78.85333333333332,9.435130208333334,64.31528572735272
1373662265.25,0.3503511666666667,34.32625,78.8491666688,9.053567708333334,64.34139900571626
1373662265.5,0.34997770833333336,34.32875000000001,78.845,8.739583333333334,64.37762147985904
1373662265.75,0.349657625,34.331250000000004,78.84083333119999,8.552161458333334,64.42936715395162
1373662266.0,0.3493375416666667,34.33375,78.83666666666666,8.363854166666668,64.4902163105552
1373662266.25,0.34901745833333336,34.33625,78.82583333887999,7.909895833333334,64.55274935613109
1373662266.5,0.34869733333333336,34.338750000000005,78.815,7.370312500000001,64.61528240170698
1373662266.75,0.34832383333333333,34.34,78.80416666112001,6.8894270833333335,64.67781544728287
1373662267.0,0.3479503333333333,34.34,78.79333333333334,6.428307291666666,64.74034849285876
1373662267.25,0.34757683333333333,34.34,78.76750001322667,5.952473958333333,64.7937323514297
1373662267.5,0.347096625,34.34,78.74166666666667,5.513723958333333,64.84044283356866
1373662267.75,0.3466697916666666,34.34125,78.71583332010667,5.0398958333333335,64.88678947317632
1373662268.0,0.3462429583333333,34.34375,78.69,4.525234374999999,64.93249025347896
1373662268.25,0.34581612500000003,34.346250000000005,78.64833335466666,4.139713541666667,64.96185175321214
1373662268.5,0.34533595833333336,34.34875,78.60666666666665,3.7020572916666663,64.9855558132893
1373662268.75,0.34485579166666663,34.35125,78.56499997866666,3.059661458333333,64.9777137977253
1373662269.0,0.34442895833333337,34.35375,78.52333333333333,2.6073958333333334,64.94773067189027
1373662269.25,0.34394879166666664,34.35625,78.47750002346666,2.540677083333333,64.91171778116292
1373662269.5,0.34352200000000005,34.35875,78.43166666666666,2.653177083333333,64.86989215669038
1373662269.75,0.34309520833333335,34.361250000000005,78.38583330986665,2.7656770833333333,64.8261289543028
1373662270.0,0.3425617083333334,34.363749999999996,78.33999999999999,3.0179947916666663,64.78301161122023
1373662270.25,0.34208154166666666,34.36625,78.30750001663999,3.3967447916666664,64.73666497161257
1373662270.5,0.34165475,34.36875,78.27499999999999,3.713802083333333,64.6903183320049
1373662270.75,0.341174625,34.37,78.24249998335999,4.141197916666666,64.64461755170227
1373662271.0,0.34069449999999996,34.37,78.21,4.6925260416666665,64.5982709120946
1373662271.25,0.340161,34.37,78.19083334314666,5.109375,64.5589825399661
1373662271.5,0.3396275,34.37,78.17166666666665,5.5940625,64.51524241171438
1373662271.75,0.3391473333333333,34.37,78.15249999018666,6.3031250000000005,64.48752515915403
1373662272.0,0.33861383333333334,34.37,78.13333333333333,6.800911458333332,64.47284553435371
1373662272.25,0.3380803333333333,34.37,78.12500000426665,7.12640625,64.4625117854734
1373662272.5,0.33760016666666665,34.37,78.11666666666665,7.31890625,64.46105874739628
1373662272.75,0.33712004166666665,34.37083333333333,78.10833332906665,7.4867187500000005,64.46210848680569
1373662273.0,0.33669329166666667,34.372499999999995,78.09999999999998,7.4909895833333335,64.46130130803358
1373662273.25,0.33626654166666664,34.37416666666667,78.09333333674665,7.354036458333333,64.46872898075965
1373662273.5,0.33583974999999994,34.37583333333333,78.08666666666664,7.3308333333333335,64.4776500214296
1373662273.75,0.3353595833333333,34.3775,78.07999999658665,7.1476041666666665,64.48572355346069
1373662274.0,0.3348794583333334,34.37916666666666,78.07333333333332,6.825286458333334,64.49520979370212
1373662274.25,0.3343993333333333,34.380833333333335,78.0691666688,6.798359375,64.50538222311535
1373662274.5,0.3339191666666667,34.3825,78.065,6.566276041666666,64.5156353122621
1373662274.75,0.333492375,34.384166666666665,78.06083333119999,6.1425520833333325,64.52596906114242
1373662275.0,0.33306554166666663,34.38583333333333,78.05666666666666,6.0478125,64.53630281002272
1373662275.25,0.3326920416666667,34.3875,78.05500000085333,5.871093749999999,64.54663655890303
1373662275.5,0.33226520833333334,34.38916666666667,78.05333333333333,5.726927083333333,64.55390233072532
1373662275.75,0.33189170833333337,34.38916666666667,78.05166666581333,5.922135416666666,64.56060290297614
1373662276.0,0.33151820833333334,34.3875,78.05,6.021015625,64.56851453410347
1373662276.25,0.331091375,34.38583333333333,78.05166666581333,6.197473958333333,64.5714206102577
1373662276.5,0.3306645833333333,34.384166666666665,78.05333333333333,6.439869791666667,64.57283331846806
1373662276.75,0.33029116666666664,34.3825,78.05500000085333,6.68421875,64.57444767601227
1373662277.0,0.3299710833333333,34.380833333333335,78.05666666666666,7.046562499999999,64.57529518465114
1373662277.25,0.32965099999999997,34.37916666666666,78.06083333119999,7.071744791666667,64.57545650411822
1373662277.5,0.32933091666666664,34.3775,78.065,6.894010416666667,64.57553716385176
1373662277.75,0.3289574583333333,34.3775,78.0691666688,6.868072916666667,64.57553716385176
1373662278.0,0.328637375,34.37916666666667,78.07333333333332,6.343515624999999,64.57553716385176
1373662278.25,0.3282639583333333,34.38083333333333,78.08333332821333,5.782161458333334,64.57553716385176
1373662278.5,0.32778383333333333,34.3825,78.09333333333333,5.440052083333334,64.57489130454674
1373662278.75,0.3272503333333333,34.385,78.10333333845333,4.724609375000001,64.57424544524171
1373662279.0,0.32677016666666664,34.38833333333333,78.11333333333333,4.119661458333334,64.56649513358148
1373662279.25,0.3263433333333334,34.39166666666666,78.12833332565333,3.7421614583333334,64.55616138470118
1373662279.5,0.3259165,34.394999999999996,78.14333333333333,2.9703125,64.54582763582088
1373662279.75,0.3254896666666667,34.39833333333333,78.15833334101333,2.3099218749999997,64.53549388694057
1373662280.0,0.32506283333333336,34.401666666666664,78.17333333333333,1.688515625,64.52516013806026
1373662280.25,0.324689375,34.404999999999994,78.194166656,0.9771354166666666,64.51482638917996
1373662280.5,0.32436929166666667,34.40833333333333,78.215,0.8819531249999999,64.50449264029965
1373662280.75,0.32404920833333334,34.41,78.235833344,0.7231510416666665,64.49415889141933
1373662281.0,0.32367579166666666,34.41,78.25666666666666,0.9300260416666665,64.48382514253903
1373662281.25,0.3233557083333333,34.41,78.28166665386667,1.5690885416666667,64.47349139365873
1373662281.5,0.32308895833333334,34.41,78.30666666666666,1.7747135416666666,64.46380350408343
1373662281.75,0.32282225000000003,34.41,78.33166667946665,2.112265625,64.45411561450815
1373662282.0,0.32244883333333335,34.41,78.35666666666665,2.5656250000000003,64.45153217728807
1373662282.25,0.3220220833333334,34.41,78.38416665258666,2.542265625,64.45153217728807
1373662282.5,0.3216486666666667,34.41,78.41166666666666,2.9111718749999995,64.45153217728807
1373662282.75,0.32127520833333334,34.41,78.43916668074665,3.079453125,64.45153217728807
1373662283.0,0.320848375,34.41,78.46666666666665,3.1650000000000005,64.45153217728807
1373662283.25,0.3204215416666667,34.41,78.49749998421332,3.5077604166666667,64.45153217728807
1373662283.5,0.3199947083333333,34.41,78.52833333333332,3.5272395833333334,64.45153217728807
1373662283.75,0.319567875,34.41,78.55916668245332,3.781510416666667,64.45153217728807
1373662284.0,0.3191410416666667,34.41,78.58999999999999,3.895442708333334,64.45153217728807
1373662284.25,0.318660875,34.41,78.62333331626667,3.6965625,64.45153217728807
1373662284.5,0.31823408333333336,34.41,78.65666666666667,3.898776041666667,64.45153217728807
1373662284.75,0.3178072916666667,34.41,78.69000001706667,3.848046875,64.45153217728807
1373662285.0,0.317433875,34.41,78.72333333333334,3.7619010416666665,64.45153217728807
1373662285.25,0.3170604166666667,34.41,78.76249997994667,4.031354166666667,64.45153217728807
1373662285.5,0.31663358333333336,34.41,78.80166666666668,4.031432291666667,64.45153217728807
1373662285.75,0.316260125,34.41,78.84083335338667,4.61640625,64.45153217728807
1373662286.0,0.31594004166666667,34.41,78.88,5.094375,64.45153217728807
1373662286.25,0.31561995833333334,34.41,78.92249997824,5.595130208333334,64.45153217728807
1373662286.5,0.3152465416666667,34.41,78.965,6.305312499999999,64.45153217728807
1373662286.75,0.3148197916666667,34.41,79.00750002176,6.587838541666667,64.45153217728807
1373662287.0,0.314446375,34.41,79.05,7.038932291666666,64.45153217728807
1373662287.25,0.31412629166666667,34.41,79.09666664277333,7.571223958333333,64.45153217728807
1373662287.5,0.3137528333333333,34.41,79.14333333333333,7.677916666666667,64.45153217728807
1373662287.75,0.313326,34.41,79.19000002389333,8.183124999999999,64.45153217728807
1373662288.0,0.3129525,34.41,79.23666666666666,8.531197916666667,64.45153217728807
1373662288.25,0.3125257083333333,34.41,79.28499997525333,8.496458333333335,64.45153217728807
1373662288.5,0.31215229166666664,34.41,79.33333333333333,8.73640625,64.45153217728807
1373662288.75,0.311778875,34.41,79.38166669141333,8.396640625,64.45153217728807
1373662289.0,0.311352125,34.41,79.42999999999999,8.022786458333334,64.45153217728807
1373662289.25,0.310872,34.41,79.48166664021332,7.677291666666666,64.45153217728807
1373662289.5,0.3103385,34.41,79.53333333333333,7.151145833333334,64.45153217728807
1373662289.75,0.309805,34.41,79.58500002645333,6.787187500000001,64.45153217728807
1373662290.0,0.3092715,34.41,79.63666666666666,6.356041666666667,64.45153217728807
1373662290.25,0.308738,34.41,79.68999997269331,5.8725,64.45153217728807
1373662290.5,0.308257875,34.41,79.74333333333331,5.620911458333334,64.45153217728807
1373662290.75,0.30788445833333333,34.41083333333333,79.79666669397332,5.15046875,64.45153217728807
1373662291.0,0.3074576666666667,34.412499999999994,79.84999999999998,4.779791666666667,64.45153217728807
1373662291.25,0.3071375416666667,34.41416666666667,79.90166664021332,4.651432291666667,64.45153217728807
1373662291.5,0.30671070833333336,34.41583333333333,79.95333333333332,4.3647656249999995,64.45153217728807
1373662291.75,0.3062305416666667,34.4175,80.00500002645332,4.326510416666666,64.45153217728807
1373662292.0,0.3058037083333333,34.41916666666666,80.05666666666666,4.443880208333334,64.45153217728807
1373662292.25,0.30537691666666666,34.420833333333334,80.10249997653332,4.563802083333333,64.45153217728807
1373662292.5,0.30500350000000004,34.4225,80.14833333333333,4.648671875,64.45153217728807
1373662292.75,0.3046834166666667,34.42416666666667,80.19416669013333,4.7951041666666665,64.45153217728807
1373662293.0,0.3044166666666667,34.42583333333333,80.24,5.0051041666666665,64.45153217728807
1373662293.25,0.30409658333333334,34.4275,80.2774999808,5.126744791666667,64.45153217728807
1373662293.5,0.30377650000000006,34.42916666666667,80.315,5.335885416666667,64.45153217728807
1373662293.75,0.3034030416666667,34.43083333333333,80.3525000192,5.7000520833333335,64.45153217728807
1373662294.0,0.30302958333333335,34.4325,80.39,5.981510416666666,64.45153217728807
1373662294.25,0.302656125,34.43416666666667,80.42499998208,6.3613020833333325,64.45153217728807
1373662294.5,0.302389375,34.435833333333335,80.46,6.869062499999999,64.45153217728807
1373662294.75,0.3021759583333333,34.43666666666667,80.49500001791999,7.18453125,64.45153217728807
1373662295.0,0.3019092083333333,34.43666666666667,80.52999999999999,7.544739583333333,64.45153217728807
1373662295.25,0.3016424583333333,34.43666666666667,80.56333331626665,7.890989583333334,64.45153217728807
1373662295.5,0.3014290416666667,34.43666666666667,80.59666666666666,8.201432291666666,64.45153217728807
1373662295.75,0.301215625,34.43666666666667,80.63000001706666,8.598776041666666,64.45153217728807
1373662296.0,0.3008955,34.43666666666667,80.66333333333333,8.925078125,64.45153217728807
1373662296.25,0.300522,34.43666666666667,80.69749998250666,9.243802083333334,64.45153217728807
1373662296.5,0.30009516666666664,34.43666666666667,80.73166666666665,9.594661458333333,64.45153217728807
1373662296.75,0.2997217083333333,34.435833333333335,80.76583335082667,9.798203124999999,64.45153217728807
1373662297.0,0.299401625,34.43416666666667,80.8,9.946458333333334,64.45153217728807
1373662297.25,0.29902816666666665,34.4325,80.83166665045333,10.084739583333333,64.45153217728807
1373662297.5,0.29860133333333333,34.43083333333333,80.86333333333333,10.024505208333334,64.45153217728807
1373662297.75,0.2981745,34.43,80.89500001621333,9.986171875,64.45153217728807
1373662298.0,0.29780100000000004,34.43,80.92666666666666,9.962786458333333,64.45153217728807
1373662298.25,0.2974275,34.43,80.95749998421333,9.835260416666666,64.45153217728807
1373662298.5,0.29694733333333334,34.43,80.98833333333333,9.716119791666667,64.45153217728807
1373662298.75,0.2964138333333333,34.43083333333333,81.01916668245333,9.530520833333334,64.45153217728807
1373662299.0,0.2959337083333334,34.4325,81.05,9.283151041666667,64.45153217728807
1373662299.25,0.29561362500000005,34.43416666666667,81.07833331882667,9.104817708333334,64.45153217728807
1373662299.5,0.295346875,34.435833333333335,81.10666666666665,8.823567708333334,64.45153217728807
1373662299.75,0.2949734166666667,34.43833333333333,81.13500001450664,8.4903125,64.45153217728807
1373662300.0,0.29454658333333333,34.44166666666667,81.16333333333331,8.244817708333334,64.45153217728807
1373662300.25,0.29417312500000004,34.445,81.18999998634665,7.933776041666667,64.45153217728807
1373662300.5,0.2938530416666667,34.44833333333333,81.21666666666665,7.540729166666666,64.45153217728807
1373662300.75,0.2935329583333333,34.45166666666667,81.24333334698666,7.165494791666667,64.45153217728807
1373662301.0,0.293212875,34.455000000000005,81.27,6.725520833333334,64.45153217728807
1373662301.25,0.29289279166666665,34.458333333333336,81.2949999872,6.293072916666667,64.45153217728807
1373662301.5,0.292679375,34.461666666666666,81.32,5.936276041666667,64.45153217728807
1373662301.75,0.2925192916666667,34.464166666666664,81.34500001279999,5.562057291666666,64.45153217728807
1373662302.0,0.292305875,34.465833333333336,81.36999999999999,5.149869791666666,64.45153217728807
1373662302.25,0.292039125,34.467499999999994,81.39333332138666,4.722161458333333,64.45153217728807
1373662302.5,0.291719,34.469166666666666,81.41666666666666,4.401744791666666,64.45153217728807
1373662302.75,0.29145220833333335,34.47,81.44000001194665,4.08515625,64.45153217728807
1373662303.0,0.29123879166666666,34.47,81.46333333333332,3.792578125,64.45153217728807
1373662303.25,0.2909720416666666,34.47,81.484166656,3.568046875,64.45153217728807
1373662303.5,0.29070529166666664,34.47,81.505,3.597890625,64.45153217728807
1373662303.75,0.29043854166666666,34.47,81.52583334399999,3.7298697916666668,64.45153217728807
1373662304.0,0.29011845833333333,34.47,81.54666666666667,3.875130208333333,64.45153217728807
1373662304.25,0.28985170833333335,34.47,81.5633333248,4.067942708333333,64.45153217728807
1373662304.5,0.2895849583333333,34.47,81.58,4.293619791666667,64.45153217728807
1373662304.75,0.2893182083333333,34.47,81.5966666752,4.4698697916666665,64.45153217728807
1373662305.0,0.2890514583333333,34.47,81.61333333333333,4.785703125,64.45153217728807
1373662305.25,0.288678,34.47,81.62583332693333,5.240078125,64.45153217728807
1373662305.5,0.2883045416666667,34.47,81.63833333333332,5.587161458333333,64.45581201379827
1373662305.75,0.28798445833333336,34.47,81.65083333973332,5.947213541666667,64.46614576267858
1373662306.0,0.287664375,34.47,81.66333333333333,6.337708333333333,64.47647951155888
1373662306.25,0.28739762500000005,34.47,81.6716666624,6.679374999999999,64.48681326043919
1373662306.5,0.287130875,34.47,81.68,6.971770833333333,64.4971470093195
1373662306.75,0.2868107916666667,34.47,81.6883333376,7.240442708333333,64.50465614235479
1373662307.0,0.28649070833333334,34.47,81.69666666666667,7.426484375,64.51216527539007
1373662307.25,0.286170625,34.47,81.7008333312,7.1784895833333335,64.5179792906837
1373662307.5,0.2858505416666667,34.47,81.705,6.8632552083333325,64.5218567747754
1373662307.75,0.28553045833333335,34.47,81.7091666688,6.646067708333334,64.52807332025914
1373662308.0,0.28526370833333337,34.47,81.71333333333332,5.947161458333333,64.54719112523829
1373662308.25,0.2851036666666667,34.47,81.71499999914666,5.118255208333333,64.55897289179002
1373662308.5,0.284997,34.47,81.71666666666667,4.248255208333333,64.56570859722635
1373662308.75,0.28489033333333336,34.47,81.71833333418667,3.403255208333334,64.57239768998726
1373662309.0,0.2847836666666667,34.47,81.72,2.653203125,64.58343566730318
1373662309.25,0.284623625,34.47,81.72,1.9024218750000002,64.59608354154533
1373662309.5,0.28441020833333336,34.47,81.72,1.0090364583333333,64.60518948961189
1373662309.75,0.284250125,34.47,81.72,0.13070312499999995,64.61780433041541
1373662310.0,0.28414337500000003,34.47,81.72,-0.6816145833333334,64.62953369328555
1373662310.25,0.2839832916666667,34.47,81.71833333418667,-1.19375,64.64352164936287
1373662310.5,0.283769875,34.47,81.71666666666667,-1.2413802083333334,64.66286726139126
1373662310.75,0.2835564583333333,34.47,81.71499999914666,-1.3060416666666668,64.68003469798614
1373662311.0,0.28334304166666663,34.47,81.71333333333332,-0.8939322916666668,64.68413998912706
1373662311.25,0.2830229166666667,34.47,81.71000000170666,0.21111979166666658,64.69590309061249
1373662311.5,0.28259608333333336,34.47,81.70666666666665,1.296015625,64.70939773245438
1373662311.75,0.28216925,34.47,81.70333333162665,2.2023697916666665,64.7178503903528
1373662312.0,0.2816890833333333,34.47,81.69999999999999,3.2529687499999995,64.7222759356133
1373662312.25,0.2812089583333333,34.47,81.69666666837333,3.961588541666666,64.72509158394756
1373662312.5,0.28083554166666663,34.47,81.69333333333333,4.827083333333333,64.73144915845741
1373662312.75,0.28040879166666666,34.47083333333333,81.68999999829333,5.913307291666666,64.73458667848418
1373662313.0,0.280035375,34.4725,81.68666666666667,6.831119791666667,64.74114545403546
1373662313.25,0.2796085833333333,34.47416666666667,81.68666666666667,8.230130208333334,64.74714075412125
1373662313.5,0.27918174999999995,34.475833333333334,81.68666666666667,9.239348958333332,64.74971492945788
1373662313.75,0.2787549166666667,34.4775,81.68666666666667,9.846770833333334,64.75212821883598
1373662314.0,0.2783280833333333,34.479166666666664,81.68666666666667,10.281510416666666,64.75470239417263
1373662314.25,0.2780079583333333,34.48083333333334,81.69416666282666,9.8278125,64.7611732782654
1373662314.5,0.2777412083333333,34.482499999999995,81.70166666666665,9.18109375,64.77210260747253
1373662314.75,0.27747445833333334,34.48416666666667,81.70916667050666,8.646171875,64.78146398083224
1373662315.0,0.27720770833333336,34.48583333333333,81.71666666666665,7.833984374999999,64.77622738666716
1373662315.25,0.27699429166666667,34.487500000000004,81.73083332607999,7.323802083333333,64.75200291665364
1373662315.5,0.2767275416666667,34.48916666666667,81.74499999999999,6.643515625,64.7414193497218
1373662315.75,0.27646079166666665,34.49,81.75916667391999,5.705078124999999,64.83131955606072
1373662316.0,0.276087375,34.49,81.77333333333333,5.087552083333334,64.92084445443415
