timestamp,EDA,TEMP,HR,BVP,ACC_mag
1373662794.0,0.29618266666666665,34.43,,11.168333333333335,64.1482657598785
1373662794.25,0.2961217142857143,34.43,,10.560714285714285,64.1482657598785
1373662794.5,0.296076,34.43,,10.22734375,64.1482657598785
1373662794.75,0.29604044444444444,34.43,,10.496631944444445,64.1482657598785
1373662795.0,0.29601200000000005,34.43,,10.36971875,64.1482657598785
1373662795.25,0.2959887272727273,34.43,,9.788806818181818,64.1482657598785
1373662795.5,0.29596933333333336,34.43,,9.292890625,64.1482657598785
1373662795.75,0.29596933333333336,34.42916666666667,,9.381744791666666,64.1482657598785
1373662796.0,0.29596933333333336,34.4275,,9.350468750000001,64.1482657598785
1373662796.25,0.295916,34.42583333333333,,8.584895833333334,64.14960453567737
1373662796.5,0.295756,34.424166666666665,,7.231640625000001,64.15828173477455
1373662796.75,0.2956493333333334,34.4225,,6.505911458333333,64.16497561376895
1373662797.0,0.295596,34.420833333333334,,6.289479166666666,64.18441224338797
1373662797.25,0.2955426666666667,34.41916666666666,,6.48109375,64.21614536503199
1373662797.5,0.2954893333333334,34.4175,,6.976770833333334,64.247878486676
1373662797.75,0.2955960416666667,34.416666666666664,,6.918177083333333,64.30037586707462
1373662798.0,0.2959694583333334,34.416666666666664,,6.888802083333334,64.36802657317546
1373662798.25,0.29650291666666667,34.416666666666664,,7.377369791666667,64.43788193933987
1373662798.5,0.29714308333333334,34.416666666666664,,7.865520833333334,64.51606494258397
1373662798.75,0.29778325,34.4175,,7.9840364583333345,64.60204585403956
1373662799.0,0.29842341666666666,34.41916666666666,,8.822447916666667,64.68902571171854
1373662799.25,0.2991169166666667,34.420833333333334,,10.121197916666667,64.77466679359868
1373662799.5,0.29991708333333333,34.4225,,10.843333333333334,64.85296945218052
1373662799.75,0.30071725,34.42416666666667,,11.551197916666666,64.9332554308651
1373662800.0,0.3015174166666667,34.42583333333333,,12.398385416666665,65.00079865892508
1373662800.25,0.3023175833333333,34.4275,,12.229401041666668,65.05604539496007
1373662800.5,0.30311774999999996,34.42916666666667,,11.256302083333333,65.11129213099504
1373662800.75,0.303757875,34.43,,10.151458333333332,65.14437608356265
1373662801.0,0.30413129166666664,34.43,,9.782395833333332,65.16050860722592
1373662801.25,0.30434466666666665,34.43,,9.550260416666665,65.1744364708256
1373662801.5,0.30445133333333335,34.43,,9.113958333333333,65.18003669734561
1373662801.75,0.304558,34.43,,8.663046875,65.17783901565413
1373662802.0,0.30471804166666666,34.43,,7.462213541666666,65.17464238773923
1373662802.25,0.304878125,34.43,,5.942552083333332,65.17144575982432
1373662802.5,0.304984875,34.43,,5.39078125,65.16824913190943
1373662802.75,0.30509162500000003,34.43,,4.7042447916666665,65.16505250399453
1373662803.0,0.305198375,34.43,,3.4753125000000007,65.16185587607963
1373662803.25,0.305305125,34.43,,3.1942187500000006,65.15865924816472
1373662803.5,0.305411875,34.43,,3.320859375,65.15546262024984
1373662803.75,0.305518625,34.42916666666667,,3.8289322916666664,65.1536645170477
1373662804.0,0.30562537500000003,34.4275,70.0,3.9707291666666666,65.1536645170477
1373662804.25,0.305732125,34.42583333333333,70.29166651733334,3.795,65.1536645170477
1373662804.5,0.305838875,34.424166666666665,70.58333333333334,3.94484375,65.1536645170477
1373662804.75,0.30589225000000003,34.42249999999999,70.87500014933333,4.317682291666666,65.1536645170477
1373662805.0,0.305838875,34.420833333333334,71.16666666666667,4.572213541666667,65.1536645170477
1373662805.25,0.305732125,34.41916666666666,71.55583313408,5.003932291666667,65.1536645170477
1373662805.5,0.30562537500000003,34.4175,71.94500000000001,5.279401041666667,65.1536645170477
1373662805.75,0.305518625,34.41583333333333,72.33416686592001,5.414192708333332,65.152465216771
1373662806.0,0.305411875,34.41416666666667,72.72333333333334,5.888593750000001,65.15054633632829
1373662806.25,0.305305125,34.412499999999994,73.13999978666668,6.286848958333334,65.14862745588557
1373662806.5,0.305198375,34.41083333333333,73.55666666666667,6.9171875,65.14670857544286
1373662806.75,0.305091625,34.41,73.97333354666667,7.379244791666667,65.14478969500014
1373662807.0,0.304984875,34.41,74.39,7.351927083333334,65.14287081455744
1373662807.25,0.30482479166666665,34.41,74.514999936,7.190416666666667,65.14215123439142
1373662807.5,0.3046647083333333,34.41,74.64,6.798489583333333,65.14362947746766
1373662807.75,0.3046113333333333,34.409166666666664,74.765000064,6.148567708333334,65.1520162860553
1373662808.0,0.30461133333333335,34.4075,74.89,5.883463541666667,65.16507047776628
1373662808.25,0.3046113333333333,34.405833333333334,74.90583332522667,5.5519791666666665,65.17764606183589
1373662808.5,0.30461133333333335,34.40416666666666,74.92166666666667,5.000859375,65.18711025379662
1373662808.75,0.3046113333333333,34.40333333333333,74.93750000810667,4.449348958333333,65.19605812081913
1373662809.0,0.3046113333333333,34.40333333333333,74.95333333333333,3.8191406249999997,65.20564575090742
1373662809.25,0.30461133333333335,34.40333333333333,74.92166668288,2.973333333333333,65.21383584295488
1373662809.5,0.3046113333333333,34.40333333333333,74.89,1.3865885416666666,65.2189513513125
1373662809.75,0.3046113333333333,34.40333333333333,74.85833331712,0.25109375,65.2240668596701
1373662810.0,0.30461133333333335,34.40333333333333,74.82666666666667,-0.37328125,65.22918236802771
1373662810.25,0.30466466666666664,34.40333333333333,74.79000001877334,-0.8058333333333333,65.23110068366182
1373662810.5,0.304718,34.40333333333333,74.75333333333333,-0.3413541666666667,65.22962244058557
1373662810.75,0.304718,34.40416666666666,74.71666664789333,0.23322916666666663,65.22123563199794
1373662811.0,0.304718,34.40583333333333,74.68,0.16078124999999996,65.20818144028696
1373662811.25,0.30466466666666664,34.40749999999999,74.59166671189334,0.8034635416666666,65.19560585621734
1373662811.5,0.3046113333333333,34.409166666666664,74.50333333333333,1.2428385416666667,65.18614166425661
1373662811.75,0.3046113333333333,34.41,74.41499995477334,1.91796875,65.1783930975108
1373662812.0,0.30461133333333335,34.41,74.32666666666667,3.409114583333333,65.17072434786523
1373662812.25,0.30455799999999994,34.41,74.25833336832,4.926380208333334,65.16445313626049
1373662812.5,0.304558,34.41,74.19,7.727083333333333,65.16125650834557
1373662812.75,0.304558,34.41,74.12166663168,10.714583333333332,65.15805988043068
1373662813.0,0.30455799999999994,34.41,74.05333333333333,12.560260416666665,65.1548632525158
1373662813.25,0.304558,34.41,74.02083334997333,15.076953125000001,65.1536645170477
1373662813.5,0.304558,34.41,73.98833333333333,16.893255208333333,65.1536645170477
1373662813.75,0.30455799999999994,34.41,73.95583331669333,17.832838541666668,65.1536645170477
1373662814.0,0.304558,34.41,73.92333333333333,19.698359375,65.1536645170477
1373662814.25,0.3046113333333333,34.41,74.01666661888,20.771302083333335,65.1536645170477
1373662814.5,0.3046113333333333,34.41,74.11,21.6828125,65.1536645170477
1373662814.75,0.30450466666666665,34.41,74.20333338112,22.80192708333333,65.1536645170477
1373662815.0,0.30439799999999995,34.41,74.29666666666667,22.85231770833333,65.1536645170477
1373662815.25,0.30434466666666665,34.41,74.44416659114667,22.786640625,65.1536645170477
1373662815.5,0.30423799999999995,34.41,74.59166666666667,21.987395833333334,65.1536645170477
1373662815.75,0.3041313333333333,34.41,74.73916674218667,20.380468750000002,65.1536645170477
1373662816.0,0.30402466666666667,34.41,74.88666666666667,19.591666666666665,65.1536645170477
1373662816.25,0.30391799999999997,34.41,75.04499991893333,18.110442708333334,65.1536645170477
1373662816.5,0.3038113333333333,34.41,75.20333333333333,16.44609375,65.1536645170477
1373662816.75,0.3037046666666667,34.41,75.36166674773334,15.540625,65.1536645170477
1373662817.0,0.303598,34.41,75.52,14.33203125,65.1536645170477
1373662817.25,0.30354466666666663,34.41,75.65666659669333,13.068046875,65.1536645170477
1373662817.5,0.30354466666666663,34.41,75.79333333333332,12.154947916666666,65.1536645170477
1373662817.75,0.30365133333333333,34.41,75.93000006997333,10.948385416666667,65.1536645170477
1373662818.0,0.3037046666666666,34.41,76.06666666666666,9.838645833333333,65.1536645170477
1373662818.25,0.303758,34.41,76.18583327232,8.83953125,65.1536645170477
1373662818.5,0.3038113333333333,34.41,76.305,7.752447916666667,65.1536645170477
1373662818.75,0.30391799999999997,34.41,76.42416672768,6.647604166666667,65.1536645170477
1373662819.0,0.30402466666666667,34.41,76.54333333333334,5.668567708333334,65.1536645170477
1373662819.25,0.3041313333333333,34.41,76.65333327701333,4.780234375,65.1536645170477
1373662819.5,0.30423799999999995,34.41,76.76333333333334,3.999635416666667,65.1536645170477
1373662819.75,0.30434466666666665,34.41,76.87333338965334,3.368229166666667,65.15350461976537
1373662820.0,0.30445133333333335,34.41,76.98333333333333,2.7261458333333333,65.15162572070918
1373662820.25,0.30450466666666665,34.41,77.07666661888,2.1478385416666668,65.14970684026646
1373662820.5,0.304558,34.41,77.17,1.6670572916666668,65.14778795982376
1373662820.75,0.304558,34.41,77.26333338112,1.3120572916666668,65.14586907938103
1373662821.0,0.3046113333333333,34.41,77.35666666666667,1.0185156249999998,65.14395019893831
1373662821.25,0.30466466666666664,34.41,77.43166662826667,0.9262760416666665,65.1420313184956
1373662821.5,0.304718,34.41,77.50666666666667,1.283359375,65.1401124380529
1373662821.75,0.304718,34.41,77.58166670506668,2.0347395833333333,65.13819355761017
1373662822.0,0.304718,34.41,77.65666666666668,2.9735937500000005,65.13627467716746
1373662822.25,0.304718,34.41,77.70749997397334,4.233567708333333,65.13435579672475
1373662822.5,0.304718,34.41,77.75833333333335,5.035364583333333,65.13243691628203
1373662822.75,0.304718,34.41,77.80916669269335,5.962161458333334,65.13067793312163
1373662823.0,0.30466466666666664,34.41,77.86000000000001,7.052161458333334,65.13063795173512
1373662823.25,0.30466466666666664,34.41,77.89416664917334,7.767890625000001,65.13063795173512
1373662823.5,0.30466466666666664,34.41,77.92833333333334,8.764973958333334,65.13063795173512
1373662823.75,0.30466466666666664,34.41,77.96250001749334,9.792265625,65.13063795173512
1373662824.0,0.30466466666666664,34.41,77.99666666666667,10.680260416666668,65.13063795173512
1373662824.25,0.30466466666666664,34.41,78.02333331968,11.678307291666668,65.13063795173512
1373662824.5,0.30466466666666664,34.41,78.05000000000001,12.316927083333333,65.13063795173512
1373662824.75,0.30466466666666664,34.41,78.07666668032,12.405130208333334,65.13063795173512
1373662825.0,0.30466466666666664,34.41,78.10333333333334,12.897447916666666,65.13063795173512
1373662825.25,0.30466466666666664,34.41,78.13083331925334,12.851510416666665,65.13063795173512
1373662825.5,0.30466466666666664,34.41,78.15833333333333,12.907708333333334,65.13063795173512
1373662825.75,0.30466466666666664,34.41,78.18583334741332,13.463333333333333,65.13063795173512
1373662826.0,0.304718,34.41,78.21333333333332,13.255,65.13063795173512
1373662826.25,0.304718,34.41,78.24916664832,13.30828125,65.13063795173512
1373662826.5,0.304718,34.41,78.285,13.618437499999999,65.13063795173512
1373662826.75,0.304718,34.41,78.32083335168,13.271380208333333,65.13063795173512
1373662827.0,0.304718,34.41,78.35666666666667,12.996067708333333,65.13171732198414
1373662827.25,0.304718,34.41,78.39583331328,13.097760416666667,65.13363620242687
1373662827.5,0.304718,34.41,78.435,12.577291666666667,65.13555508286957
1373662827.75,0.304718,34.41,78.47416668672,12.616614583333332,65.1374739633123
1373662828.0,0.304718,34.41,78.51333333333332,12.42703125,65.139392843755
1373662828.25,0.304718,34.41,78.55666664447999,11.806041666666667,65.14131172419773
1373662828.5,0.304718,34.41,78.6,12.070807291666666,65.14323060464044
1373662828.75,0.304718,34.410833333333336,78.64333335552,11.675677083333333,65.14514948508315
1373662829.0,0.304718,34.412499999999994,78.68666666666667,11.269114583333334,65.14706836552587
1373662829.25,0.304718,34.41416666666667,78.72999997781334,11.706171875,65.14898724596858
1373662829.5,0.30466466666666664,34.41583333333333,78.77333333333334,11.387005208333335,65.1509061264113
1373662829.75,0.30461133333333335,34.4175,78.81666668885333,11.104687499999999,65.15282500685402
1373662830.0,0.3046113333333333,34.41916666666666,78.86,11.638880208333333,65.1536645170477
1373662830.25,0.304558,34.420833333333334,78.90333331114667,11.251744791666667,65.1536645170477
1373662830.5,0.30450466666666665,34.4225,78.94666666666666,11.204635416666667,65.1536645170477
1373662830.75,0.30450466666666665,34.42416666666667,78.99000002218665,11.652369791666667,65.1536645170477
1373662831.0,0.30450466666666665,34.42583333333334,79.03333333333332,11.245807291666665,65.1536645170477
1373662831.25,0.30450466666666665,34.4275,79.07666664447999,11.680364583333331,65.1536645170477
1373662831.5,0.30450466666666665,34.42916666666667,79.11999999999999,11.922265625,65.1536645170477
1373662831.75,0.30450466666666665,34.42916666666667,79.16333335552,11.528072916666666,65.1536645170477
1373662832.0,0.30450466666666665,34.4275,79.20666666666666,12.046432291666667,65.1536645170477
1373662832.25,0.30450466666666665,34.42583333333334,79.24666664618667,12.095833333333333,65.1536645170477
1373662832.5,0.30455799999999994,34.42416666666667,79.28666666666666,11.671406249999999,65.1536645170477
1373662832.75,0.3046113333333333,34.42333333333333,79.32666668714666,12.272708333333334,65.1536645170477
1373662833.0,0.3046113333333333,34.42333333333333,79.36666666666666,12.150859375000001,65.1536645170477
1373662833.25,0.30466466666666664,34.42333333333333,79.40666664618666,11.777552083333333,65.1536645170477
1373662833.5,0.304718,34.42333333333333,79.44666666666666,12.356041666666664,65.1536645170477
1373662833.75,0.304718,34.424166666666665,79.48666668714665,11.977265625,65.1536645170477
1373662834.0,0.304718,34.42583333333333,79.52666666666666,11.890572916666668,65.1536645170477
1373662834.25,0.30466466666666664,34.4275,79.56666664618666,12.168463541666668,65.1536645170477
1373662834.5,0.304558,34.42916666666667,79.60666666666665,11.73203125,65.1536645170477
1373662834.75,0.30445133333333335,34.431666666666665,79.64666668714665,11.81315104166667,65.1536645170477
1373662835.0,0.30434466666666665,34.434999999999995,79.68666666666665,11.892734375000002,65.1536645170477
1373662835.25,0.304238,34.43833333333333,79.72666664618666,11.433489583333333,65.1536645170477
1373662835.5,0.3041313333333333,34.44166666666667,79.76666666666665,11.589322916666667,65.1536645170477
1373662835.75,0.30402466666666667,34.44416666666667,79.80666668714666,11.44234375,65.1536645170477
1373662836.0,0.30391799999999997,34.44583333333333,79.84666666666666,11.038854166666667,65.1536645170477
1373662836.25,0.30381133333333327,34.4475,79.88416664746667,11.279557291666665,65.1536645170477
1373662836.5,0.3037046666666667,34.44916666666667,79.92166666666667,10.904713541666668,65.1536645170477
1373662836.75,0.303598,34.45,79.95916668586666,10.6034375,65.1536645170477
1373662837.0,0.3034913333333333,34.45,79.99666666666667,10.612526041666667,65.1536645170477
1373662837.25,0.303438,34.45,80.02999998293333,10.08203125,65.1536645170477
1373662837.5,0.3034913333333333,34.45,80.06333333333333,9.776848958333334,65.1536645170477
1373662837.75,0.303598,34.45,80.09666668373333,9.577838541666667,65.1536645170477
1373662838.0,0.3037046666666667,34.45,80.13,8.973958333333334,65.1536645170477
1373662838.25,0.3038113333333333,34.45,80.15916665173333,9.105494791666667,65.1536645170477
1373662838.5,0.30391799999999997,34.45,80.18833333333333,9.446093750000001,65.1536645170477
1373662838.75,0.30402466666666667,34.45,80.21750001493334,8.653098958333334,65.15546262024984
1373662839.0,0.3041313333333333,34.45,80.24666666666667,7.388541666666668,65.15865924816474
1373662839.25,0.304238,34.45,80.26999998805334,6.114947916666668,65.16185587607963
1373662839.5,0.30434466666666665,34.45,80.29333333333334,4.746171875000001,65.16505250399453
1373662839.75,0.30445133333333335,34.45,80.31666667861333,3.3295312500000005,65.16824913190943
1373662840.0,0.304558,34.45,80.34,2.7266145833333337,65.17144575982432
1373662840.25,0.30466466666666664,34.45,80.35749999104,1.901979166666667,65.17464238773921
1373662840.5,0.304718,34.45,80.375,0.5332812500000003,65.17783901565413
1373662840.75,0.304718,34.45,80.39250000895998,0.7115885416666669,65.18103564356902
1373662841.0,0.304718,34.45,80.40999999999998,0.2704687500000001,65.18423227148392
1373662841.25,0.304718,34.45,80.42249999359998,-1.5859375,65.18742889939881
1373662841.5,0.304718,34.45,80.43499999999999,-2.5539062500000003,65.19062552731371
1373662841.75,0.304718,34.45,80.44750000639999,-2.2213020833333332,65.19202405202648
1373662842.0,0.304718,34.45,80.46,-0.06677083333333324,65.19202405202648
1373662842.25,0.304718,34.45,80.46999999488,2.4707552083333333,65.19202405202648
1373662842.5,0.30466466666666664,34.45,80.47999999999999,4.468619791666666,65.19202405202648
1373662842.75,0.3046113333333333,34.45,80.49000000512,7.853098958333334,65.19202405202648
1373662843.0,0.304558,34.45,80.5,10.041197916666667,65.19202405202648
1373662843.25,0.304558,34.45,80.51333332650667,12.045260416666666,65.19202405202648
1373662843.5,0.30455799999999994,34.45,80.52666666666667,15.763151041666667,65.19202405202648
1373662843.75,0.304558,34.450833333333335,80.54000000682667,17.004661458333334,65.19202405202648
1373662844.0,0.30450466666666665,34.45250000000001,80.55333333333334,18.794114583333332,65.19202405202648
1373662844.25,0.304398,34.45416666666667,80.57166665728,22.279114583333328,65.19202405202648
1373662844.5,0.30434466666666665,34.45583333333334,80.59,23.705442708333333,65.19202405202648
1373662844.75,0.3042913333333333,34.4575,80.60833334272002,24.870937499999997,65.19202405202648
1373662845.0,0.30423799999999995,34.45916666666667,80.62666666666668,24.831093749999997,65.19202405202648
1373662845.25,0.30418466666666666,34.46083333333333,80.65166665386668,23.893385416666664,65.19202405202648
1373662845.5,0.30423799999999995,34.4625,80.67666666666668,23.545468749999998,65.19202405202648
1373662845.75,0.30423799999999995,34.464166666666664,80.70166667946667,21.948203125000003,65.19202405202648
1373662846.0,0.3042913333333333,34.465833333333336,80.72666666666667,20.378802083333333,65.19202405202648
1373662846.25,0.30423799999999995,34.4675,80.75666665130667,19.020807291666667,65.19202405202648
1373662846.5,0.3041313333333333,34.469166666666666,80.78666666666668,16.609635416666666,65.19202405202648
1373662846.75,0.30407799999999996,34.47,80.81666668202668,15.089401041666667,65.19202405202648
1373662847.0,0.30407799999999996,34.47,80.84666666666668,13.370911458333333,65.19202405202648
1373662847.25,0.3041313333333333,34.47,80.87499998549335,10.926979166666667,65.19202405202648
1373662847.5,0.3041313333333333,34.47,80.90333333333334,9.629739583333334,65.19202405202648
1373662847.75,0.3041313333333333,34.47,80.93166668117333,7.979921875000001,65.19202405202648
1373662848.0,0.30407799999999996,34.47,80.96,6.517630208333333,65.19202405202648
1373662848.25,0.30407799999999996,34.47,80.97833332394667,5.639270833333334,65.19202405202648
1373662848.5,0.3039713333333333,34.47,80.99666666666667,4.50484375,65.19202405202648
1373662848.75,0.30391799999999997,34.47,81.01500000938667,3.5409635416666667,65.19202405202648
1373662849.0,0.3038113333333333,34.47,81.03333333333335,3.043046875,65.19202405202648
1373662849.25,0.303758,34.47,81.03999999658667,2.6015104166666667,65.19202405202648
1373662849.5,0.303758,34.47,81.04666666666668,2.1881770833333336,65.19202405202648
1373662849.75,0.3037046666666667,34.47,81.05333333674668,2.0744270833333336,65.19202405202648
1373662850.0,0.30365133333333333,34.47,81.06,2.2388541666666666,65.19202405202648
1373662850.25,0.303598,34.47,81.06,2.468203125,65.19202405202648
1373662850.5,0.30354466666666663,34.47,81.06,2.5965364583333335,65.19202405202648
1373662850.75,0.30349133333333334,34.47,81.06,2.978385416666667,65.19202405202648
1373662851.0,0.30349133333333334,34.47,81.06,3.4065625,65.19202405202648
1373662851.25,0.303438,34.47,81.06166666581333,3.7878125,65.19202405202648
1373662851.5,0.303438,34.47,81.06333333333333,4.519401041666667,65.19202405202648
1373662851.75,0.303438,34.47,81.06500000085333,5.319270833333333,65.19202405202648
1373662852.0,0.303438,34.47,81.06666666666666,6.058020833333334,65.19202405202648
1373662852.25,0.303438,34.47,81.06833333248,7.067838541666667,65.19202405202648
1373662852.5,0.303438,34.47,81.07,8.178854166666667,65.19202405202648
1373662852.75,0.3034913333333333,34.47,81.07166666751999,9.040104166666667,65.19202405202648
1373662853.0,0.3034913333333333,34.47,81.07333333333332,10.018776041666667,65.19202405202648
1373662853.25,0.30349133333333334,34.47,81.07333333333332,11.060703125000002,65.19202405202648
1373662853.5,0.30349133333333334,34.47,81.07333333333332,11.998203125000002,65.19202405202648
1373662853.75,0.30349133333333334,34.47,81.07333333333332,13.092447916666666,65.19202405202648
1373662854.0,0.3034913333333333,34.47,81.07333333333332,14.122369791666666,65.19202405202648
1373662854.25,0.30349133333333334,34.47,81.07000000170666,14.928203124999998,65.19202405202648
1373662854.5,0.30349133333333334,34.47,81.06666666666666,15.773802083333335,65.19202405202648
1373662854.75,0.30349133333333334,34.47083333333333,81.06333333162667,16.483515625,65.19202405202648
1373662855.0,0.3034913333333333,34.4725,81.06,16.901848958333332,65.19202405202648
1373662855.25,0.30349133333333334,34.47416666666667,81.05500000256,17.361692708333333,65.19202405202648
1373662855.5,0.30349133333333334,34.475833333333334,81.05000000000001,17.604296875,65.19202405202648
1373662855.75,0.303438,34.4775,81.04499999744,17.489010416666666,65.19202405202648
1373662856.0,0.303438,34.479166666666664,81.04,17.908072916666665,65.19202405202648
1373662856.25,0.303438,34.48083333333333,81.03500000256,17.935729166666665,65.19202405202648
1373662856.5,0.303438,34.482499999999995,81.03,17.758307291666664,65.19202405202648
1373662856.75,0.303438,34.48458333333333,81.02499999744,17.739817708333334,65.19202405202648
1373662857.0,0.303438,34.48708333333334,81.02,17.375833333333336,65.19202405202648
1373662857.25,0.30338466666666664,34.489583333333336,81.01666666837333,16.99411458333333,65.19202405202648
1373662857.5,0.303278,34.49208333333333,81.01333333333332,16.705468749999998,65.19202405202648
1373662857.75,0.30322466666666664,34.49375,81.00999999829332,15.825442708333332,65.19202405202648
1373662858.0,0.30317133333333335,34.49458333333333,81.00666666666666,15.183541666666668,65.19202405202648
1373662858.25,0.3031713333333333,34.495416666666664,81.00666666666666,14.570911458333333,65.19202405202648
1373662858.5,0.3031713333333333,34.496249999999996,81.00666666666666,13.45953125,65.19202405202648
1373662858.75,0.303118,34.49708333333333,81.00666666666667,13.000052083333332,65.19202405202648
1373662859.0,0.3030646666666667,34.49791666666666,81.00666666666667,11.895494791666666,65.19202405202648
1373662859.25,0.30301133333333335,34.49875,81.0108333312,10.489270833333332,65.19202405202648
1373662859.5,0.302958,34.499583333333334,81.015,9.903177083333333,65.19202405202648
1373662859.75,0.302958,34.5,81.0191666688,8.845885416666667,65.19202405202648
1373662860.0,0.302958,34.5,81.02333333333333,7.623671874999999,65.19202405202648
1373662860.25,0.30301133333333335,34.5,81.02999999658667,7.152916666666666,65.19202405202648
1373662860.5,0.303118,34.5,81.03666666666666,6.291744791666667,65.19202405202648
1373662860.75,0.3031713333333333,34.5,81.04333333674666,5.829505208333333,65.19202405202648
1373662861.0,0.30322466666666664,34.5,81.05,5.805677083333333,65.19202405202648
1373662861.25,0.30322466666666664,34.5,81.05916666197334,5.258177083333334,65.19202405202648
1373662861.5,0.30322466666666664,34.5,81.06833333333333,5.288098958333333,65.19202405202648
1373662861.75,0.303278,34.5,81.07750000469332,5.35828125,65.19202405202648
1373662862.0,0.30333133333333334,34.5,81.08666666666666,5.195520833333334,65.19202405202648
1373662862.25,0.3033846666666667,34.5,81.11333331968,5.7815625,65.19202405202648
1373662862.5,0.303438,34.5,81.13999999999999,5.968854166666667,65.19202405202648
1373662862.75,0.303438,34.5,81.16666668031999,5.770494791666668,65.19202405202648
1373662863.0,0.303438,34.5,81.19333333333333,6.583880208333333,65.19202405202648
1373662863.25,0.303438,34.5,81.23666664448,6.7918489583333335,65.19202405202648
1373662863.5,0.303438,34.5,81.28,6.6034895833333325,65.19202405202648
1373662863.75,0.303438,34.5,81.32333335551999,7.293125,65.19202405202648
1373662864.0,0.303438,34.5,81.36666666666666,7.4160416666666675,65.19202405202648
1373662864.25,0.303438,34.5,81.40749997909333,7.411901041666666,65.19202405202648
1373662864.5,0.303438,34.5,81.44833333333332,8.161692708333334,65.19202405202648
1373662864.75,0.303438,34.501250000000006,81.48916668757333,8.386953125,65.19202405202648
1373662865.0,0.303438,34.503750000000004,81.53,8.514192708333335,65.19202405202648
1373662865.25,0.303438,34.50625,81.57166664533334,9.143020833333333,65.19202405202648
1373662865.5,0.303438,34.50875,81.61333333333334,9.195755208333333,65.19202405202648
1373662865.75,0.303438,34.511250000000004,81.65500002133334,9.854375,65.19202405202648
1373662866.0,0.30338466666666664,34.51375,81.69666666666667,10.490911458333334,65.19202405202648
1373662866.25,0.30333133333333334,34.51625000000001,81.72333331968001,10.41484375,65.19202405202648
1373662866.5,0.303278,34.518750000000004,81.75,11.463098958333333,65.19202405202648
1373662866.75,0.30317133333333335,34.52125,81.77666668032,11.978203125,65.19202405202648
1373662867.0,0.30306466666666665,34.52375,81.80333333333334,11.845,65.19202405202648
1373662867.25,0.302958,34.526250000000005,81.84333331285333,12.808697916666667,65.19202405202648
1373662867.5,0.30290466666666666,34.52875,81.88333333333333,12.991276041666666,65.19202405202648
1373662867.75,0.302798,34.53,81.92333335381333,12.730755208333333,65.19202405202648
1373662868.0,0.3026913333333333,34.53,81.96333333333332,13.581979166666665,65.19202405202648
1373662868.25,0.30258466666666667,34.53,81.99916664832,13.477161458333335,65.19202405202648
1373662868.5,0.30247799999999997,34.53,82.035,13.508802083333334,65.19202405202648
1373662868.75,0.3023713333333333,34.53,82.07083335168,14.258776041666666,65.19202405202648
1373662869.0,0.3023713333333333,34.53,82.10666666666667,13.899218750000001,65.19202405202648
1373662869.25,0.3024246666666666,34.53,82.15666664106666,14.444869791666667,65.19202405202648
1373662869.5,0.30247799999999997,34.53,82.20666666666666,14.942291666666664,65.19202405202648
1373662869.75,0.30258466666666667,34.530833333333334,82.25666669226666,14.662526041666666,65.19202405202648
1373662870.0,0.3026913333333333,34.5325,82.30666666666666,15.300885416666665,65.19202405202648
1373662870.25,0.30279799999999996,34.534166666666664,82.35666664106667,15.546692708333332,65.19202405202648
1373662870.5,0.3028513333333333,34.535833333333336,82.40666666666667,15.316354166666665,65.19202405202648
1373662870.75,0.302958,34.53666666666667,82.45666669226667,15.862265625000001,65.19202405202648
1373662871.0,0.30301133333333335,34.53666666666667,82.50666666666667,15.715260416666668,65.19202405202648
1373662871.25,0.303118,34.53666666666667,82.56499997013334,15.553307291666668,65.19202405202648
1373662871.5,0.30322466666666664,34.53666666666667,82.62333333333333,15.788776041666667,65.19202405202648
1373662871.75,0.303278,34.5375,82.68166669653333,15.113567708333335,65.19202405202648
1373662872.0,0.303278,34.53916666666667,82.74,14.724505208333333,65.19202405202648
1373662872.25,0.30317133333333335,34.54083333333333,82.80333330090666,14.127656250000001,65.19202405202648
1373662872.5,0.30306466666666665,34.5425,82.86666666666666,12.959348958333335,65.19202405202648
1373662872.75,0.302958,34.54333333333333,82.93000003242666,12.4471875,65.19202405202648
1373662873.0,0.3028513333333333,34.54333333333333,82.99333333333333,11.748593750000003,65.19202405202648
1373662873.25,0.30274466666666666,34.54333333333333,83.04166664191999,10.737994791666667,65.19202405202648
1373662873.5,0.30263799999999996,34.54333333333333,83.09,10.237734375,65.19202405202648
1373662873.75,0.3025313333333333,34.54416666666666,83.13833335808,9.510260416666666,65.19202405202648
1373662874.0,0.3025313333333333,34.54583333333333,83.18666666666667,8.644114583333334,65.19202405202648
1373662874.25,0.30247799999999997,34.54749999999999,83.20999998805334,8.114895833333334,65.19202405202648
1373662874.5,0.3024246666666667,34.549166666666665,83.23333333333333,7.63625,65.19202405202648
1373662874.75,0.30247799999999997,34.55,83.25666667861333,7.179114583333334,65.19202405202648
1373662875.0,0.3025313333333333,34.55,83.28,6.994739583333334,65.19202405202648
1373662875.25,0.30263799999999996,34.55,83.27916666709334,7.091953125000001,65.19202405202648
1373662875.5,0.30274466666666666,34.55,83.27833333333334,7.176875,65.19202405202648
1373662875.75,0.3028513333333333,34.55,83.27749999957332,7.242812499999999,65.19202405202648
1373662876.0,0.302958,34.55,83.27666666666666,7.652083333333334,65.19202405202648
1373662876.25,0.3030646666666667,34.55,83.27583333375999,7.900651041666667,65.19202405202648
1373662876.5,0.30317133333333335,34.55,83.27499999999999,8.100364583333333,65.19202405202648
1373662876.75,0.303278,34.549166666666665,83.27416666623999,9.057473958333334,65.19202405202648
1373662877.0,0.30333133333333334,34.54749999999999,83.27333333333333,9.868541666666667,65.19202405202648
1373662877.25,0.30338466666666664,34.545833333333334,83.27083333461333,11.230026041666667,65.19202405202648
1373662877.5,0.303438,34.54416666666666,83.26833333333333,12.418333333333335,65.19202405202648
1373662877.75,0.303438,34.5425,83.26583333205333,12.742552083333335,65.18902721335625
1373662878.0,0.303438,34.54083333333333,83.26333333333334,14.110338541666666,65.18642995317542
1373662878.25,0.303438,34.53916666666667,83.25750000298666,15.093567708333333,65.183432723802
1373662878.5,0.303438,34.5375,83.25166666666667,14.964661458333333,65.17451602523369
1373662878.75,0.303438,34.535833333333336,83.24583333034667,15.041510416666668,65.1486058907232
1373662879.0,0.303438,34.534166666666664,83.24,15.299739583333334,65.13123706230361
1373662879.25,0.303438,34.532500000000006,83.23000000511999,15.200677083333332,65.10961420502724
1373662879.5,0.303438,34.530833333333334,83.22,14.907109375,65.08181537134733
1373662879.75,0.30338466666666664,34.531666666666666,83.20999999488001,12.448098958333333,65.03305877505493
1373662880.0,0.303278,34.535000000000004,83.2,9.174010416666667,64.96658906352909
1373662880.25,0.30317133333333335,34.538333333333334,83.19166667093333,4.709427083333334,64.88642392515601
1373662880.5,0.3030112916666667,34.541666666666664,83.18333333333334,0.42661458333333324,64.73117174287803
1373662880.75,0.3025845,34.544999999999995,83.17499999573334,-2.698984375,64.59384376028913
1373662881.0,0.30189099999999996,34.54833333333334,83.16666666666667,-7.407213541666667,64.44443642701711
1373662881.25,0.3011441666666667,34.55166666666667,83.16250000213334,-11.991041666666668,64.31265955657427
1373662881.5,0.3003439583333333,34.555,83.15833333333333,-14.944531250000002,64.24302290160496
1373662881.75,0.29949037500000003,34.55833333333333,83.15416666453334,-17.209244791666666,64.2127578072712
1373662882.0,0.29858345833333333,34.56166666666667,83.15,-19.973411458333334,64.16582212517783
1373662882.25,0.2976232083333334,34.565,83.15166666581334,-21.56296875,64.11204644308299
1373662882.5,0.29666295833333334,34.568333333333335,83.15333333333334,-21.942890625000004,64.05520704584433
1373662882.75,0.2957027083333333,34.57,83.15500000085333,-19.524244791666668,64.04532223825261
1373662883.0,0.29479579166666664,34.57,83.15666666666667,-15.664557291666666,64.0555765609809
1373662883.25,0.293888875,34.57,83.15916666538666,-11.135026041666668,64.07944540356229
1373662883.5,0.29303533333333337,34.57,83.16166666666666,-7.339270833333334,64.17945084980526
1373662883.75,0.29250187499999997,34.57,83.16416666794667,-3.766875,64.25041022085189
1373662884.0,0.292235125,34.57,83.16666666666667,1.1390104166666668,64.32443476785252
1373662884.25,0.29207504166666665,34.57,83.16916666538667,6.236875,64.37250943301963
1373662884.5,0.2920216666666667,34.57,83.17166666666668,10.51390625,64.35461415467005
1373662884.75,0.29207504166666665,34.57,83.17416666794668,13.884244791666667,64.310192441447
1373662885.0,0.292235125,34.57,83.17666666666668,16.904140625,64.27402213239473
1373662885.25,0.2924485416666666,34.57,83.17749999957334,19.02171875,64.25991950423993
1373662885.5,0.2926619583333333,34.57,83.17833333333334,20.135520833333334,64.26045796697623
1373662885.75,0.29292870833333334,34.57,83.17916666709334,19.173567708333334,64.23621789889647
1373662886.0,0.2931954583333333,34.57,83.18,17.525234375,64.21117419050354
1373662886.25,0.2934622083333333,34.57,83.17750000128001,15.376692708333335,64.18203191281835
1373662886.5,0.29372895833333335,34.57,83.17500000000001,13.38796875,64.14095092275385
1373662886.75,0.293889,34.57083333333333,83.17249999872,10.735156250000001,64.11061378953093
1373662887.0,0.2940490416666667,34.5725,83.17,5.925130208333333,64.0873050155554
1373662887.25,0.29410237499999997,34.57416666666666,83.16500000256,1.2795312500000005,64.07271562977678
1373662887.5,0.294102375,34.575833333333335,83.16,-2.2345052083333328,64.06787544123623
1373662887.75,0.29399566666666666,34.57666666666667,83.15499999744,-5.661484375,64.06718356287574
1373662888.0,0.29378224999999997,34.57666666666667,83.15,-8.023697916666666,64.06636956201321
1373662888.25,0.29356883333333333,34.57666666666666,83.1375000064,-10.780260416666666,64.05458190911145
1373662888.5,0.2933554166666667,34.57666666666667,83.125,-12.903072916666668,64.03739285686592
1373662888.75,0.293142,34.57666666666667,83.11249999360001,-13.546718750000002,64.01898550840204
1373662889.0,0.2929285833333333,34.57666666666667,83.10000000000001,-13.614088541666668,63.99895578516476
1373662889.25,0.2927151666666667,34.57666666666667,83.08500000768001,-12.527317708333333,63.98310553821387
1373662889.5,0.29250174999999995,34.57666666666667,83.07000000000001,-11.194270833333334,63.97814444388559
1373662889.75,0.29234170833333334,34.575833333333335,83.05499999232,-9.381197916666666,63.97655820689325
1373662890.0,0.2921816666666666,34.57416666666666,83.04,-5.549192708333334,63.97655820689325
1373662890.25,0.29207500000000003,34.5725,83.02416667477334,-1.8696354166666664,63.97655820689325
1373662890.5,0.29196833333333333,34.57083333333333,83.00833333333334,1.1206510416666664,63.97655820689325
1373662890.75,0.291915,34.57,82.99249999189334,4.400703125,63.97655820689325
1373662891.0,0.291915,34.57,82.97666666666667,6.8709375,63.97655820689325
1373662891.25,0.291915,34.57,82.96583333888,10.094010416666666,63.97655820689325
1373662891.5,0.291915,34.57,82.95500000000001,12.555468749999998,63.97655820689325
1373662891.75,0.29186166666666663,34.57083333333333,82.94416666112001,14.166145833333331,63.97655820689325
1373662892.0,0.2918083333333333,34.5725,82.93333333333334,15.416484375000001,63.97655820689325
1373662892.25,0.2918083333333333,34.57416666666666,82.92500000426666,15.589791666666665,63.97700593469646
1373662892.5,0.291755,34.575833333333335,82.91666666666667,15.636640625,63.97765717513749
1373662892.75,0.291755,34.5775,82.90833332906668,16.119479166666668,63.97830841557851
1373662893.0,0.291755,34.57916666666667,82.9,15.757473958333334,63.97895965601953
1373662893.25,0.2917016666666666,34.58083333333333,82.88916667221334,14.959973958333334,63.979610896460564
1373662893.5,0.2916483333333333,34.5825,82.87833333333333,14.342187500000001,63.98026213690159
1373662893.75,0.2916483333333333,34.583333333333336,82.86749999445334,13.195859375,63.98091337734261
1373662894.0,0.2916483333333333,34.583333333333336,82.85666666666667,11.889973958333334,63.98156461778364
1373662894.25,0.2916483333333333,34.583333333333336,82.84250000725334,10.645755208333332,63.98221585822466
1373662894.5,0.2916483333333333,34.583333333333336,82.82833333333333,9.52109375,63.982867098665686
1373662894.75,0.29170166666666664,34.5825,82.81416665941333,8.495520833333334,63.98351833910672
1373662895.0,0.291755,34.58083333333334,82.8,7.550338541666666,63.98416957954774
1373662895.25,0.291755,34.57916666666667,82.78416667477333,6.87625,63.984373092185564
1373662895.5,0.2918083333333333,34.5775,82.76833333333333,6.533411458333333,63.984373092185564
1373662895.75,0.2918083333333333,34.575833333333335,82.75249999189333,5.981041666666667,63.984373092185564
1373662896.0,0.291755,34.57416666666666,82.73666666666666,5.5871354166666665,63.984373092185564
1373662896.25,0.291755,34.5725,82.72666667178666,5.439427083333334,63.984373092185564
1373662896.5,0.29170166666666664,34.57083333333333,82.71666666666667,5.014010416666667,63.984373092185564
1373662896.75,0.291595,34.57,82.70666666154668,4.806979166666667,63.984373092185564
1373662897.0,0.2914883333333333,34.57,82.69666666666667,4.797317708333334,63.984373092185564
1373662897.25,0.29138166666666665,34.57,82.69250000213334,4.570390625,63.984373092185564
1373662897.5,0.29127499999999995,34.57,82.68833333333333,4.5163802083333335,63.984373092185564
1373662897.75,0.2911683333333333,34.57,82.68416666453334,4.5554427083333335,63.984373092185564
1373662898.0,0.2910616666666666,34.57,82.68,4.2965625,63.984373092185564
1373662898.25,0.29095499999999996,34.57,82.67916666709334,4.190104166666666,63.984373092185564
1373662898.5,0.2908483333333333,34.57,82.67833333333334,4.000416666666666,63.984373092185564
1373662898.75,0.2907416666666666,34.57083333333333,82.67749999957334,3.6874218749999996,63.984373092185564
1373662899.0,0.29068833333333327,34.5725,82.67666666666668,3.494973958333333,63.98461724771719
1373662899.25,0.290635,34.57416666666667,82.67416666794668,3.280859375,63.98473932548299
1373662899.5,0.2906883333333333,34.575833333333335,82.67166666666668,3.0287760416666667,63.99311165423211
1373662899.75,0.2907416666666666,34.5775,82.66916666538667,2.7921093749999994,63.99819564808706
1373662900.0,0.29079499999999997,34.579166666666666,82.66666666666667,2.599479166666667,64.00778208048814
1373662900.25,0.29079499999999997,34.58083333333334,82.66250000213333,2.449479166666667,64.01923908210473
1373662900.5,0.2908483333333333,34.5825,82.65833333333333,2.2138541666666667,64.02566496398842
1373662900.75,0.2908483333333333,34.58416666666667,82.65416666453334,1.9374479166666667,64.02924462192529
1373662901.0,0.2908483333333333,34.58583333333333,82.64999999999999,1.8926302083333333,64.03404409012508
1373662901.25,0.29090166666666667,34.587500000000006,82.64416666965333,1.8127083333333331,64.04379873871717
1373662901.5,0.29095499999999996,34.589166666666664,82.63833333333332,1.7645052083333332,64.04737839665403
1373662901.75,0.2910616666666666,34.59,82.63249999701333,1.7796354166666666,64.04750047441983
1373662902.0,0.29122166666666666,34.59,82.62666666666667,1.9922656250000002,64.04859917431212
1373662902.25,0.29138166666666665,34.59,82.61666667178666,2.3809114583333333,64.05494296291488
1373662902.5,0.2914883333333333,34.59,82.60666666666665,2.7575260416666665,64.0569796847585
1373662902.75,0.291595,34.59,82.59666666154666,2.9363281249999997,64.06230474149628
1373662903.0,0.291755,34.59,82.58666666666666,3.024947916666667,64.06312735968795
1373662903.25,0.29196833333333333,34.59,82.57000000853333,2.5779166666666664,64.0620794086641
1373662903.5,0.2921283333333333,34.59,82.55333333333333,1.175625,64.06606257737315
1373662903.75,0.29234166666666667,34.59,82.53666665813333,-0.4229166666666668,64.07289197002902
1373662904.0,0.29255499999999995,34.59,82.52,-1.4198697916666667,64.07850155242197
1373662904.25,0.292715,34.59,82.49666667861332,-2.8302604166666665,64.0791559544226
1373662904.5,0.292875,34.59,82.47333333333333,-3.861119791666667,64.08598534707848
1373662904.75,0.29298166666666664,34.58916666666667,82.44999998805334,-4.650494791666667,64.09627231990542
1373662905.0,0.293035,34.587500000000006,82.42666666666666,-6.605833333333333,64.10533851507425
1373662905.25,0.29308833333333334,34.58583333333333,82.40083334655999,-8.720390625,64.10928169929842
1373662905.5,0.29314166666666663,34.58416666666667,82.375,-10.484739583333333,64.10928169929842
1373662905.75,0.293195,34.5825,82.34916665344001,-12.2425,64.10830662349635
1373662906.0,0.293195,34.58083333333334,82.32333333333334,-13.093645833333333,64.10830662349635
1373662906.25,0.293195,34.579166666666666,82.29583334741334,-12.706666666666665,64.10830662349635
1373662906.5,0.29314166666666663,34.5775,82.26833333333333,-11.311666666666666,64.10830662349633
1373662906.75,0.293035,34.57666666666667,82.24083331925333,-9.663489583333334,64.10830662349633
1373662907.0,0.29298166666666664,34.57666666666667,82.21333333333332,-8.598489583333334,64.10830662349635
1373662907.25,0.292875,34.57666666666667,82.19250001066666,-7.164244791666666,64.10830662349635
1373662907.5,0.29276833333333335,34.57666666666667,82.17166666666665,-5.9163541666666655,64.10830662349635
1373662907.75,0.29266166666666665,34.57750000000001,82.15083332266666,-4.431484375,64.10830662349635
1373662908.0,0.29260833333333336,34.579166666666666,82.13,-1.6788802083333334,64.10830662349635
1373662908.25,0.29250166666666666,34.58083333333334,82.1175000064,0.593671875,64.10830662349635
1373662908.5,0.292395,34.5825,82.10499999999999,2.3854166666666665,64.10830662349633
1373662908.75,0.29234166666666667,34.58416666666667,82.09249999359999,5.162552083333333,64.10928169929842
1373662909.0,0.2922883333333333,34.58583333333333,82.07999999999998,6.732630208333333,64.10928169929842
1373662909.25,0.29223499999999997,34.587500000000006,82.07833333418665,7.620442708333333,64.10928169929842
1373662909.5,0.2922883333333333,34.58916666666667,82.07666666666665,8.967213541666666,64.10928169929842
1373662909.75,0.29239499999999996,34.59,82.07499999914667,9.878880208333333,64.10928169929842
1373662910.0,0.292395,34.59,82.07333333333334,10.446510416666666,64.10928169929842
1373662910.25,0.29244833333333337,34.59,82.07416666624,11.679661458333333,64.10928169929842
1373662910.5,0.29250166666666666,34.59,82.07499999999999,12.656093749999998,64.10928169929842
1373662910.75,0.29250166666666666,34.59,82.07583333375999,12.813802083333334,64.10928169929842
1373662911.0,0.2924483333333333,34.59,82.07666666666665,13.149557291666667,64.10928169929842
1373662911.25,0.2924483333333333,34.59,82.07500000085332,14.097656249999998,64.10928169929842
1373662911.5,0.2924483333333333,34.59,82.07333333333332,15.210729166666667,64.10928169929842
1373662911.75,0.292395,34.59,82.07166666581332,15.243828125,64.10928169929842
1373662912.0,0.29234166666666667,34.59,82.07,15.519218749999999,64.10928169929842
1373662912.25,0.2922883333333333,34.59,82.06333333674667,15.635703125,64.10928169929842
1373662912.5,0.2921816666666667,34.59,82.05666666666667,14.871953125,64.10928169929842
1373662912.75,0.292075,34.59,82.04999999658666,14.656848958333333,64.10818473902107
1373662913.0,0.2920216666666667,34.59,82.04333333333334,15.044166666666667,64.10708777874373
1373662913.25,0.29196833333333333,34.59,82.03250000554667,14.837447916666667,64.1059908184664
1373662913.5,0.291915,34.59,82.02166666666668,15.030807291666667,64.1053813960901
1373662913.75,0.291915,34.589166666666664,82.01083332778667,15.472499999999998,64.10367501343646
1373662914.0,0.291915,34.587500000000006,82.0,14.905104166666666,64.1017248618323
1373662914.25,0.291915,34.58583333333333,81.9875000064,14.094713541666666,64.09977471022812
1373662914.5,0.291915,34.58416666666667,81.975,13.331536458333334,64.09782455862397
1373662914.75,0.291915,34.58166666666667,81.9624999936,12.924791666666666,64.09506144798594
1373662915.0,0.291915,34.57833333333334,81.95,13.065859375,64.09046917952178
1373662915.25,0.291915,34.574999999999996,81.93916667221333,13.377604166666666,64.0875028291253
1373662915.5,0.291915,34.571666666666665,81.92833333333334,13.926250000000001,64.08555267752114
1373662915.75,0.291915,34.568333333333335,81.91749999445335,14.178072916666666,64.08494325514484
1373662916.0,0.291915,34.565,81.90666666666668,13.675130208333334,64.09284715448571
1373662916.25,0.291915,34.56166666666666,81.89666667178668,13.045260416666666,64.10893460342228
1373662916.5,0.291915,34.55833333333333,81.88666666666668,12.017421875000002,64.11505046792722
1373662916.75,0.291915,34.55583333333333,81.87666666154668,10.674999999999999,64.14228287206912
1373662917.0,0.291915,34.55416666666667,81.86666666666667,9.987057291666668,64.16465384086389
1373662917.25,0.291915,34.552499999999995,81.86083333632,9.423177083333334,64.19213001395632
1373662917.5,0.291915,34.55083333333333,81.85499999999999,8.828854166666668,64.20193859092244
1373662917.75,0.291915,34.55,81.84916666368,7.907526041666666,64.20201910459936
1373662918.0,0.291915,34.55,81.84333333333332,5.721979166666667,64.21852351642472
1373662918.25,0.291915,34.55,81.84166666751999,3.7609114583333336,64.23498186047301
1373662918.5,0.291915,34.55,81.83999999999999,2.0496614583333335,64.24325141323966
1373662918.75,0.291915,34.55,81.83833333247999,0.569375,64.25617924077771
1373662919.0,0.291915,34.55,81.83666666666666,-0.4340885416666667,64.24628383886618
1373662919.25,0.29186166666666663,34.55,81.83833333247999,-2.065703125,64.22812332898897
1373662919.5,0.2918083333333333,34.55,81.83999999999999,-3.660598958333333,64.22074764006078
1373662919.75,0.2918083333333333,34.55083333333333,81.84166666751999,-4.1664062500000005,64.19131994888257
1373662920.0,0.2918083333333333,34.552499999999995,81.84333333333332,-4.528880208333333,64.16244332535219
1373662920.25,0.2918083333333333,34.55416666666667,81.84333333333332,-4.672239583333333,64.12846149752416
1373662920.5,0.2918083333333333,34.55583333333333,81.84333333333333,-5.22171875,64.11153687699336
1373662920.75,0.29180833333333334,34.5575,81.84333333333333,-6.217161458333334,64.10539743431723
1373662921.0,0.291755,34.55916666666667,81.84333333333333,-5.572083333333334,64.0830762403633
1373662921.25,0.29170166666666664,34.560833333333335,81.8391666688,-4.99015625,64.05954142941619
1373662921.5,0.2916483333333333,34.5625,81.83500000000001,-4.265208333333333,64.0447662219139
1373662921.75,0.291595,34.564166666666665,81.8308333312,-3.050182291666667,64.02508897068971
1373662922.0,0.29154166666666664,34.56583333333334,81.82666666666667,-1.2342447916666666,64.01972162719794
1373662922.25,0.29154166666666664,34.5675,81.8183333376,2.1809375,64.01443584207614
1373662922.5,0.2914883333333333,34.56916666666667,81.81,5.468906250000001,64.0078492825359
1373662922.75,0.29138166666666665,34.57,81.80166666240001,7.121953125,64.00329514588607
1373662923.0,0.291275,34.57,81.79333333333334,8.844322916666666,64.00329514588607
1373662923.25,0.2911683333333333,34.57,81.78250000554667,10.436536458333332,64.00329514588607
1373662923.5,0.2910616666666666,34.57,81.77166666666668,12.418098958333333,64.0040682355647
1373662923.75,0.29095499999999996,34.56916666666667,81.76083332778667,15.011015625,64.01024408884989
1373662924.0,0.29090166666666667,34.5675,81.75,16.384453125,64.04156052652273
1373662924.25,0.2908483333333333,34.56583333333333,81.73500000768,17.421328125,64.07773926514932
1373662924.5,0.29079499999999997,34.564166666666665,81.72,18.343489583333334,64.10974192154445
1373662924.75,0.2907416666666666,34.5625,81.70499999232,18.66359375,64.14016723917709
1373662925.0,0.2906883333333333,34.560833333333335,81.69,18.29942708333333,64.17500193825447
1373662925.25,0.290635,34.55916666666666,81.6650000128,16.7378125,64.20971493214218
1373662925.5,0.290635,34.5575,81.63999999999999,14.524817708333336,64.24305223918313
1373662925.75,0.29068833333333327,34.55583333333333,81.6149999872,13.865,64.27897606631518
1373662926.0,0.2907416666666666,34.55416666666667,81.58999999999999,12.940442708333334,64.30749918513759
1373662926.25,0.29079499999999997,34.552499999999995,81.5525000192,11.692526041666666,64.32926124748008
1373662926.5,0.2909016666666666,34.55083333333333,81.51499999999999,9.987187500000001,64.35280544293587
1373662926.75,0.29095499999999996,34.55,81.47749998079999,8.104453125000001,64.36717688970242
1373662927.0,0.29100833333333326,34.55,81.44,8.213125,64.35754964950667
1373662927.25,0.2910616666666666,34.55,81.39083335850667,7.665494791666667,64.33661034529227
1373662927.5,0.2910616666666666,34.55,81.34166666666667,4.8449479166666665,64.31411877990584
1373662927.75,0.2910616666666666,34.55,81.29249997482667,1.2462239583333334,64.29564147229318
1373662928.0,0.2910616666666666,34.55,81.24333333333334,-2.149921875,64.27555454414757
1373662928.25,0.2910616666666666,34.55,81.19333335893334,-4.504140625000001,64.26887248653038
1373662928.5,0.2910616666666666,34.55,81.14333333333335,-5.753619791666666,64.2581784843779
1373662928.75,0.2910083333333333,34.55,81.09333330773333,-7.653125,64.23967909457257
1373662929.0,0.29095499999999996,34.55,81.04333333333334,-9.630546875,64.24899362668332
1373662929.25,0.29095499999999996,34.55,80.99333335893334,-10.742760416666668,64.27049294805492
1373662929.5,0.29090166666666667,34.55,80.94333333333334,-10.756354166666668,64.30078650025071
1373662929.75,0.29095499999999996,34.55083333333333,80.89333330773334,-10.561119791666666,64.35305895130423
1373662930.0,0.29111504166666663,34.552499999999995,80.84333333333335,-12.484505208333333,64.41075315431492
1373662930.25,0.2913817916666666,34.55416666666667,80.79083336021334,-13.688932291666665,64.48278526366896
1373662930.5,0.2917552083333333,34.55583333333333,80.73833333333334,-12.770911458333336,64.57323017217439
1373662930.75,0.2921819583333333,34.5575,80.68583330645333,-10.657838541666667,64.67113980164173
1373662931.0,0.2927154166666666,34.55916666666666,80.63333333333333,-8.32046875,64.76672806748877
1373662931.25,0.29340891666666663,34.560833333333335,80.57666669568,-6.3968750000000005,64.84691995906617
1373662931.5,0.29420908333333334,34.5625,80.52000000000001,-3.183125,64.93425382059877
1373662931.75,0.2951159583333333,34.564166666666665,80.46333330432,0.2846354166666668,65.02828146557181
1373662932.0,0.2960762083333333,34.56583333333333,80.40666666666668,2.3431510416666668,65.10189589693842
1373662932.25,0.29703645833333336,34.5675,80.35250002773334,3.439322916666667,65.17000688599137
1373662932.5,0.29805004166666665,34.56916666666667,80.29833333333335,3.1665364583333333,65.22682081551255
1373662932.75,0.29901029166666665,34.568333333333335,80.24416663893334,2.585729166666667,65.26310870487741
1373662933.0,0.29986383333333333,34.565000000000005,80.19,3.7379687500000003,65.29414086970444
1373662933.25,0.300664,34.56166666666667,80.14416669013333,5.796171875,65.3171180252006
1373662933.5,0.30141083333333335,34.55833333333333,80.09833333333333,8.231979166666667,65.32510569722795
1373662933.75,0.30215766666666666,34.55583333333333,80.05249997653334,10.662421875,65.31824469811328
1373662934.0,0.30279779166666665,34.55416666666667,80.00666666666667,12.968593749999998,65.30191701081382
1373662934.25,0.303277875,34.5525,79.96333335552,15.149140625000001,65.28618310271902
1373662934.5,0.30365129166666666,34.55083333333334,79.92,15.278958333333334,65.26817509335031
1373662934.75,0.303971375,34.549166666666665,79.87666664448,14.664479166666666,65.2498119392214
1373662935.0,0.30455816666666663,34.5475,79.83333333333333,15.39953125,65.2326083254729
1373662935.25,0.3053583333333333,34.545833333333334,79.78916668928,16.04791666666667,65.21604407587708
1373662935.5,0.30610516666666665,34.54416666666667,79.745,17.330885416666664,65.20071740567361
1373662935.75,0.30685199999999996,34.54416666666666,79.70083331072,19.392890625,65.1915389133466
1373662936.0,0.3075988333333333,34.54583333333333,79.65666666666667,19.934036458333335,65.18371786147132
1373662936.25,0.30829233333333333,34.5475,79.60500002645334,19.21765625,65.17617665455246
1373662936.5,0.30898583333333335,34.549166666666665,79.55333333333334,18.22072916666667,65.16735669992518
1373662936.75,0.309626,34.55,79.50166664021333,16.059791666666666,65.16304439528635
1373662937.0,0.3102661666666667,34.55,79.45,13.031614583333335,65.16772038154076
1373662937.25,0.31090633333333334,34.55,79.39416669525333,10.004270833333333,65.17399568500879
1373662937.5,0.3115465,34.55,79.33833333333334,7.777291666666666,65.18166940081575
1373662937.75,0.31213329166666665,34.55,79.28249997141334,6.906067708333333,65.18930160113815
1373662938.0,0.3124,34.55,79.22666666666667,6.424505208333334,65.19629341702526
1373662938.25,0.3123466666666667,34.55,79.17083336192,6.573072916666668,65.20272557829237
1373662938.5,0.31224,34.55,79.11500000000001,7.7097395833333335,65.20847815491184
1373662938.75,0.3121333333333334,34.55,79.05916663808,7.7,65.21015552450451
1373662939.0,0.3120266666666667,34.55,79.00333333333333,8.588723958333334,65.21075453975631
1373662939.25,0.31192000000000003,34.55,78.95333335893334,10.503385416666667,65.21087434280668
1373662939.5,0.31181333333333333,34.55,78.90333333333334,11.627838541666668,65.21299091033082
1373662939.75,0.3117066666666667,34.549166666666665,78.85333330773332,14.385859375,65.21554685903538
1373662940.0,0.31160000000000004,34.5475,78.80333333333333,17.916354166666665,65.21810280773995
1373662940.25,0.31149333333333334,34.54583333333333,78.75500002474666,20.583619791666667,65.22057886895718
1373662940.5,0.31138666666666664,34.54416666666666,78.70666666666666,23.73044270833333,65.2221762805362
1373662940.75,0.31128000000000006,34.5425,78.65833330858666,25.391067708333335,65.22269543648132
1373662941.0,0.31117333333333336,34.54083333333333,78.61,26.366744791666665,65.22269543648132
1373662941.25,0.31112,34.53916666666667,78.55333336234666,27.366171875000003,65.22269543648132
1373662941.5,0.31112,34.5375,78.49666666666667,26.679791666666663,65.22269543648132
1373662941.75,0.31112,34.53458333333334,78.43999997098666,26.5240625,65.22289501439569
1373662942.0,0.31112,34.53041666666667,78.38333333333333,25.637734374999997,65.22728495563443
1373662942.25,0.31112,34.52625,78.32833336149334,23.782890624999997,65.23610150978455
1373662942.5,0.31112,34.522083333333335,78.27333333333334,22.62497395833333,65.24746833609133
1373662942.75,0.31112,34.52,78.21833330517333,20.397005208333333,65.26576412274102
1373662943.0,0.31112,34.52,78.16333333333334,17.601145833333334,65.28270586331641
1373662943.25,0.31112,34.52,78.11333335893335,15.637447916666666,65.30120066759503
1373662943.5,0.31112,34.52,78.06333333333333,12.738515625,65.30028587267215
1373662943.75,0.31112,34.52,78.01333330773333,10.150208333333333,65.25526077794218
1373662944.0,0.31112,34.52,77.96333333333334,8.172265625,65.2064893197637
1373662944.25,0.31112,34.52,77.9341666816,5.888958333333334,65.15771786158523
1373662944.5,0.31112,34.52,77.90499999999999,4.245104166666667,65.10507728624519
1373662944.75,0.31112,34.52125,77.87583331839998,3.1265885416666666,65.05078621405522
1373662945.0,0.31112,34.52375,77.84666666666665,2.189635416666667,64.99182113889567
1373662945.25,0.31112,34.52625,77.82666667690665,1.499765625,64.92842945082475
1373662945.5,0.31112,34.52875,77.80666666666666,1.0854166666666667,64.86248749059716
1373662945.75,0.31112,34.530833333333334,77.78666665642666,0.8628125000000001,64.78961657002668
1373662946.0,0.31106666666666666,34.5325,77.76666666666667,1.1257291666666667,64.71809969553048
1373662946.25,0.31106666666666666,34.53416666666667,77.76083333632,1.6050000000000002,64.64502975733107
1373662946.5,0.31106666666666666,34.535833333333336,77.755,2.2071875000000003,64.59136941833314
1373662946.75,0.3110133333333333,34.53666666666667,77.74916666368,3.201041666666667,64.58588980795584
1373662947.0,0.31090666666666666,34.53666666666667,77.74333333333334,4.160052083333334,64.59104535296814
1373662947.25,0.3108533333333333,34.53666666666667,77.74000000170668,5.061927083333333,64.59620089798045
1373662947.5,0.3108,34.53666666666667,77.73666666666668,6.094270833333333,64.6052255601543
1373662947.75,0.31074666666666667,34.5375,77.73333333162667,6.881171875000001,64.61570114126374
1373662948.0,0.31063999999999997,34.53916666666667,77.73,7.564765625000001,64.62666036201837
1373662948.25,0.3105866666666667,34.54083333333333,77.73749999616001,8.303567708333334,64.637619582773
1373662948.5,0.31048,34.5425,77.745,8.694166666666668,64.64857880352763
1373662948.75,0.31037333333333333,34.5425,77.75250000384,9.102083333333335,64.65953802428226
1373662949.0,0.31037333333333333,34.54083333333333,77.76,9.460338541666667,64.67049724503688
1373662949.25,0.31032,34.53916666666667,77.76999999488001,9.323802083333332,64.68145646579151
1373662949.5,0.3102133333333333,34.5375,77.78,9.277942708333333,64.69241568654614
1373662949.75,0.31021333333333334,34.53541666666667,77.79000000511999,9.18953125,64.69930447848725
1373662950.0,0.31032,34.532916666666665,77.8,8.721197916666666,64.69930447848725
1373662950.25,0.31037333333333333,34.53041666666667,77.80999999488,8.519609375,64.69930447848725
1373662950.5,0.3104266666666667,34.52791666666666,77.82,8.420416666666666,64.69930447848725
1373662950.75,0.31048,34.52458333333333,77.83000000511998,8.005416666666667,64.69930447848725
1373662951.0,0.3105866666666667,34.52041666666667,77.83999999999999,7.807161458333333,64.69930447848725
1373662951.25,0.31063999999999997,34.51625,77.84083333290666,7.81140625,64.69930447848725
1373662951.5,0.31074666666666667,34.51208333333333,77.84166666666665,7.820572916666666,64.69930447848725
1373662951.75,0.31085333333333337,34.51,77.84250000042665,7.847447916666667,64.69930447848725
1373662952.0,0.31090666666666666,34.51,77.84333333333332,7.928671875,64.69930447848725
1373662952.25,0.31096,34.51,77.84083333461332,8.213671875000001,64.69930447848725
1373662952.5,0.31106666666666666,34.51,77.83833333333332,8.396614583333333,64.69930447848725
1373662952.75,0.31112,34.51208333333333,77.83583333205333,8.63421875,64.69930447848725
1373662953.0,0.31112,34.51625,77.83333333333333,9.27171875,64.69930447848725
1373662953.25,0.31112,34.52041666666667,77.83083333461333,9.516510416666668,64.69930447848725
1373662953.5,0.31112,34.52458333333333,77.82833333333332,9.693411458333333,64.69930447848725
1373662953.75,0.31112,34.528749999999995,77.82583333205332,10.480911458333333,64.69930447848725
1373662954.0,0.31112,34.532916666666665,77.82333333333332,10.761328125,64.69930447848725
1373662954.25,0.31112,34.537083333333335,77.82250000042666,10.91125,64.69930447848725
1373662954.5,0.31112,34.54125,77.82166666666666,11.594557291666668,64.69930447848725
1373662954.75,0.31112,34.54416666666666,77.82083333290666,11.717239583333333,64.69930447848725
1373662955.0,0.31112,34.54583333333333,77.82,12.098307291666666,64.69930447848725
1373662955.25,0.31112,34.5475,77.81833333418666,12.620442708333334,64.69930447848725
1373662955.5,0.31112,34.549166666666665,77.81666666666666,12.560182291666665,64.69930447848725
1373662955.75,0.31112,34.55,77.81499999914666,12.921875,64.69930447848725
1373662956.0,0.31112,34.55,77.81333333333333,13.039375,64.69930447848725
1373662956.25,0.31112,34.55,77.80750000298667,12.750416666666666,64.69930447848725
1373662956.5,0.31112,34.55,77.80166666666668,13.057135416666666,64.69930447848725
1373662956.75,0.31112,34.55,77.79583333034667,12.818671875,64.70718695285328
1373662957.0,0.31112,34.55,77.79,12.481875,64.7161954949859
1373662957.25,0.31117333333333336,34.55,77.78166667093333,12.734713541666666,64.7252040371185
1373662957.5,0.31117333333333336,34.55,77.77333333333334,12.135208333333333,64.73421257925112
1373662957.75,0.3112266666666667,34.55,77.76499999573335,11.835546875,64.74382368956209
1373662958.0,0.31133333333333335,34.55,77.75666666666667,11.734531250000002,64.75283223169471
1373662958.25,0.3113866666666667,34.55,77.75000000341333,10.854713541666667,64.76184077382732
1373662958.5,0.3113866666666667,34.55,77.74333333333334,10.725286458333334,64.77105017201939
1373662958.75,0.31144,34.549166666666665,77.73666666325335,10.432708333333332,64.7826698429249
1373662959.0,0.31149333333333334,34.5475,77.73,9.528046875,64.79328523353315
1373662959.25,0.3115466666666667,34.54583333333333,77.72833333418667,9.66109375,64.80550747261704
1373662959.5,0.31160000000000004,34.54416666666666,77.72666666666667,9.366354166666666,64.81732799958203
1373662959.75,0.31160000000000004,34.54333333333333,77.72499999914668,8.647760416666666,64.82166776429989
1373662960.0,0.31160000000000004,34.54333333333333,77.72333333333334,8.97234375,64.82488146125117
1373662960.25,0.3115466666666667,34.54333333333333,77.72833333077334,8.696744791666665,64.82809515820243
1373662960.5,0.3115466666666667,34.54333333333333,77.73333333333335,8.336588541666666,64.83130885515371
1373662960.75,0.31149333333333334,34.54333333333333,77.73833333589334,8.593645833333333,64.83171056727262
1373662961.0,0.31138666666666664,34.54333333333333,77.74333333333334,8.181223958333334,64.83251399151044
1373662961.25,0.31133333333333335,34.54333333333333,77.75583332693334,8.340546875,64.83552683240227
1373662961.5,0.31133333333333335,34.54333333333333,77.76833333333335,8.699791666666666,64.8353259763428
1373662961.75,0.31128,34.54416666666666,77.78083333973333,8.454453125,64.83018174873422
1373662962.0,0.3112266666666667,34.54583333333333,77.79333333333334,8.823697916666667,64.81956635812597
1373662962.25,0.31112,34.5475,77.814166656,8.991015625000001,64.80734411904209
1373662962.5,0.31096,34.549166666666665,77.83500000000001,8.866171875000001,64.79552359207709
1373662962.75,0.31085333333333337,34.55,77.855833344,9.631927083333334,64.7833013529932
1373662963.0,0.3106399583333333,34.55,77.87666666666667,9.832968750000001,64.77107911390932
1373662963.25,0.310319875,34.55,77.90333331968,9.791979166666668,64.75885687482544
1373662963.5,0.30994645833333334,34.55,77.93,10.255078124999999,64.75672736918675
1373662963.75,0.30946633333333334,34.549166666666665,77.95666668032,10.355182291666667,64.76102431365423
1373662964.0,0.3089328333333334,34.5475,77.98333333333333,10.197135416666667,64.76411679035019
1373662964.25,0.30834599999999995,34.54583333333333,78.01333331797333,10.168229166666666,64.76303239702872
1373662964.5,0.30775916666666664,34.54416666666666,78.04333333333334,9.143515625000001,64.7666472331963
1373662964.75,0.307119,34.5425,78.07333334869334,8.419348958333332,64.77363836249812
1373662965.0,0.3064788333333333,34.54083333333333,78.10333333333334,8.095260416666667,64.7859806760321
1373662965.25,0.305892,34.53916666666667,78.13166665216,7.092708333333333,64.79719873050126
1373662965.5,0.3053585,34.5375,78.16,6.134088541666667,64.80017185862859
1373662965.75,0.30482499999999996,34.53666666666667,78.18833334783999,4.50171875,64.79695087219704
1373662966.0,0.30439820833333336,34.53666666666667,78.21666666666665,2.729479166666667,64.79372988576552
1373662966.25,0.304078125,34.53666666666667,78.24333331967999,1.8767187500000002,64.79050889933397
1373662966.5,0.303811375,34.53666666666667,78.27,1.0499739583333334,64.77719517945724
1373662966.75,0.30365133333333333,34.5375,78.29666668032,0.4051562500000001,64.75966442612834
1373662967.0,0.30354466666666663,34.53916666666667,78.32333333333334,0.42208333333333353,64.74353899663042
1373662967.25,0.30349133333333334,34.54083333333333,78.34583332181334,0.5243489583333334,64.72938102049592
1373662967.5,0.303438,34.5425,78.36833333333334,1.8328645833333335,64.7135366557642
1373662967.75,0.303438,34.54416666666666,78.39083334485333,3.0382552083333336,64.6968490967339
1373662968.0,0.303438,34.54583333333333,78.41333333333334,4.0446875,64.68128579676839
1373662968.25,0.303438,34.5475,78.43666665472001,5.561822916666667,64.6668467558677
1373662968.5,0.303438,34.549166666666665,78.46000000000001,6.960572916666667,64.66330726183406
1373662968.75,0.303438,34.55,78.48333334528,8.699244791666667,64.67481061744336
1373662969.0,0.30338466666666664,34.55,78.50666666666667,10.419869791666667,64.6818896055106
1373662969.25,0.30333133333333334,34.55,78.53249998677335,11.586406249999998,64.6818896055106
1373662969.5,0.30322466666666664,34.55,78.55833333333334,12.654296875,64.68365935252741
1373662969.75,0.303118,34.55,78.58416667989333,13.221093750000001,64.68808372006946
1373662970.0,0.30301133333333335,34.55,78.61,13.942031250000001,64.68896859357785
1373662970.25,0.30290466666666666,34.55,78.64333331626666,13.952708333333334,64.68896859357785
1373662970.5,0.30279799999999996,34.55,78.67666666666668,13.207057291666667,64.68896859357785
1373662970.75,0.30269133333333337,34.55083333333334,78.71000001706668,12.641406250000001,64.68896859357785
1373662971.0,0.30258466666666667,34.5525,78.74333333333334,11.413072916666666,64.68896859357785
1373662971.25,0.30247799999999997,34.55416666666667,78.78666664448001,10.292291666666666,64.68896859357785
1373662971.5,0.3023713333333333,34.55583333333333,78.83000000000001,9.444921875,64.68631397305263
1373662971.75,0.30231800000000003,34.5575,78.87333335552,8.319817708333334,64.67481061744336
1373662972.0,0.3023713333333333,34.55916666666666,78.91666666666667,7.485625,64.66773162937609
1373662972.25,0.3024246666666666,34.56083333333333,78.96999997269333,6.5483593749999995,64.66773162937609
1373662972.5,0.3025313333333333,34.5625,79.02333333333334,5.592916666666667,64.6668467558677
1373662972.75,0.302638,34.56416666666667,79.07666669397334,4.784114583333333,64.66507700885087
1373662973.0,0.30274466666666666,34.56583333333334,79.13,3.6048958333333334,64.66600285911588
1373662973.25,0.3028513333333333,34.5675,79.19249996799999,2.95171875,64.67693669812111
1373662973.5,0.302958,34.56916666666667,79.255,2.275,64.68980142629492
1373662973.75,0.30306466666666665,34.57,79.31750003200001,1.5982031250000002,64.69937343835852
1373662974.0,0.3031713333333333,34.57,79.38000000000001,1.869557291666667,64.72059010925854
1373662974.25,0.303278,34.57,79.45166662997335,2.283072916666667,64.74609730103123
1373662974.5,0.30338466666666664,34.57,79.52333333333334,2.3993489583333334,64.7807024598532
1373662974.75,0.303438,34.57,79.59500003669334,2.7569531249999994,64.81578759324557
1373662975.0,0.303438,34.57,79.66666666666667,2.9927604166666666,64.85367330612671
1373662975.25,0.30349133333333334,34.57,79.74249996117334,2.924713541666667,64.8922788678325
1373662975.5,0.303598,34.57,79.81833333333333,3.129817708333334,64.92811986039341
1373662975.75,0.3037046666666666,34.57,79.89416670549333,4.088802083333333,64.96383082839044
1373662976.0,0.3038113333333333,34.57,79.97,5.231380208333333,65.00190519797788
1373662976.25,0.30391799999999997,34.57,80.04333329578667,6.519296874999999,65.03085645233348
1373662976.5,0.30402466666666667,34.57,80.11666666666667,7.946848958333333,65.05819661208515
1373662976.75,0.3041313333333333,34.57083333333333,80.19000003754667,8.100494791666668,65.08358917471968
1373662977.0,0.30423799999999995,34.5725,80.26333333333334,6.655546875,65.09129243809227
1373662977.25,0.30434466666666665,34.57416666666667,80.32499996842667,4.9171354166666665,65.09470518059217
1373662977.5,0.30445133333333335,34.575833333333335,80.38666666666667,3.1710677083333336,65.0890199560428
1373662977.75,0.30455799999999994,34.57666666666666,80.44833336490667,3.6838281250000002,65.08285475692303
1373662978.0,0.30466466666666664,34.57666666666667,80.51,5.67109375,65.07388897831449
1373662978.25,0.304718,34.57666666666667,80.55749997568,7.726979166666666,65.06420335088129
1373662978.5,0.30466466666666664,34.57666666666667,80.605,10.9615625,65.05639741908458
1373662978.75,0.304558,34.5775,80.65250002432,12.711093749999998,65.04695176483493
1373662979.0,0.3044513333333333,34.57916666666667,80.7,12.859869791666668,65.03598660574669
1373662979.25,0.30434466666666665,34.58083333333334,80.73666664789333,13.863489583333333,65.02502144665844
1373662979.5,0.304238,34.5825,80.77333333333334,15.353697916666667,65.01373649300555
1373662979.75,0.3041313333333333,34.583333333333336,80.81000001877334,18.49,65.00769185258002
1373662980.0,0.30402466666666667,34.583333333333336,80.84666666666666,22.656328125,65.00769185258002
1373662980.25,0.30391799999999997,34.583333333333336,80.86833332224,25.903229166666666,65.00769185258002
1373662980.5,0.3038113333333333,34.583333333333336,80.89,29.772630208333336,65.00769185258002
1373662980.75,0.3037046666666667,34.58416666666667,80.91166667776,30.848958333333332,65.00713055625592
1373662981.0,0.303598,34.58583333333333,80.93333333333334,29.973463541666664,65.0060079636077
1373662981.25,0.30349133333333334,34.5875,80.94749999274667,29.454036458333334,65.00264018566307
1373662981.5,0.303438,34.58916666666667,80.96166666666667,26.781093749999997,64.99365944447739
1373662981.75,0.303438,34.58916666666667,80.97583334058666,24.993020833333333,64.9846787032917
1373662982.0,0.303438,34.5875,80.99,24.515,64.97906574005064
1373662982.25,0.303438,34.58583333333333,81.00083332778667,22.546015625,64.97906574005064
1373662982.5,0.303438,34.58416666666667,81.01166666666666,20.177031250000002,64.97906574005064
1373662982.75,0.303438,34.5825,81.02250000554666,17.061119791666666,64.97906574005064
1373662983.0,0.303438,34.58083333333334,81.03333333333333,14.06640625,64.97906574005064
1373662983.25,0.303438,34.57916666666667,81.05166665728,12.029114583333333,64.97906574005064
1373662983.5,0.303438,34.5775,81.07,9.281354166666667,64.97906574005064
1373662983.75,0.303438,34.57666666666667,81.08833334272,7.465130208333334,64.98271033098204
1373662984.0,0.303438,34.57666666666666,81.10666666666667,5.83984375,64.98831771578628
1373662984.25,0.303438,34.57666666666667,81.1233333248,4.1290625,64.99617028588696
1373662984.5,0.303438,34.57666666666666,81.14,3.3521614583333332,65.00963581922868
1373662984.75,0.303438,34.5775,81.1566666752,2.1332552083333334,65.0231013525704
1373662985.0,0.303438,34.57916666666667,81.17333333333333,1.2838541666666667,65.03319910796749
1373662985.25,0.303438,34.58083333333334,81.18833332565333,0.6938020833333335,65.03768390012353
1373662985.5,0.303438,34.5825,81.20333333333333,0.10122395833333347,65.04216869227956
1373662985.75,0.303438,34.58416666666667,81.21833334101333,0.026458333333333462,65.04665348443561
1373662986.0,0.303438,34.58583333333334,81.23333333333333,-0.4738281249999998,65.05113827659164
1373662986.25,0.303438,34.5875,81.25249999018666,-0.7102864583333331,65.05562306874769
1373662986.5,0.30338466666666664,34.58916666666667,81.27166666666668,-0.6746874999999998,65.06010786090373
1373662986.75,0.30333133333333334,34.590833333333336,81.29083334314667,-1.2565624999999998,65.06150935845248
1373662987.0,0.30322466666666664,34.5925,81.31,-1.1259114583333332,65.06150935845248
1373662987.25,0.30311799999999994,34.59416666666667,81.34833331370666,-1.3249218749999998,65.06150935845248
1373662987.5,0.3030113333333333,34.59583333333334,81.38666666666666,-1.7461718749999997,65.06150935845248
1373662987.75,0.30290466666666666,34.597500000000004,81.42500001962667,-1.3222656249999998,65.06150935845248
1373662988.0,0.302798,34.59916666666667,81.46333333333332,-1.4924218749999998,65.06150935845248
1373662988.25,0.3026913333333333,34.600833333333334,81.51749997226666,-1.1461718749999998,65.06150935845248
1373662988.5,0.30258466666666667,34.6025,81.57166666666666,-0.7130208333333332,65.06150935845248
1373662988.75,0.30247799999999997,34.604166666666664,81.62583336106667,-0.7794270833333332,65.06150935845248
1373662989.0,0.3023713333333333,34.60583333333333,81.68,0.0009895833333333954,65.06150935845248
1373662989.25,0.3022646666666666,34.6075,81.74666663253333,0.33960937500000005,65.06150935845248
1373662989.5,0.30221133333333333,34.60916666666667,81.81333333333333,0.48760416666666667,65.06150935845248
1373662989.75,0.30221133333333333,34.61,81.88000003413335,1.355625,65.06150935845248
1373662990.0,0.30231800000000003,34.61,81.94666666666667,1.5267968750000003,65.06150935845248
1373662990.25,0.3024246666666667,34.61,82.02166662826667,1.9597916666666666,65.06150935845248
1373662990.5,0.3025313333333333,34.61,82.09666666666666,2.847994791666667,65.06150935845248
1373662990.75,0.30263799999999996,34.61,82.17166670506667,2.9151562500000003,65.06150935845248
1373662991.0,0.30274466666666666,34.61,82.24666666666667,3.3812760416666667,65.06150935845248
1373662991.25,0.3028513333333333,34.61,82.32749995861333,3.985442708333333,65.06150935845248
1373662991.5,0.302958,34.61,82.40833333333333,4.769609375,65.06150935845248
1373662991.75,0.30306466666666665,34.61,82.48916670805335,6.464479166666666,65.06150935845248
1373662992.0,0.3031713333333333,34.61,82.57000000000001,7.514583333333333,65.06150935845248
1373662992.25,0.303278,34.61,82.64416662869334,8.387473958333333,65.06674952899944
1373662992.5,0.30338466666666664,34.61,82.71833333333333,9.437135416666667,65.07714636274628
1373662992.75,0.303438,34.61,82.79250003797334,8.829401041666666,65.09480830869997
1373662993.0,0.303438,34.61,82.86666666666667,7.8973177083333335,65.11653887735817
1373662993.25,0.303438,34.61,82.92916663466667,8.358828125,65.13479765123951
1373662993.5,0.303438,34.61,82.99166666666667,7.752864583333333,65.14503470061256
1373662993.75,0.303438,34.61,83.05416669866668,7.570572916666667,65.15527174998562
1373662994.0,0.303438,34.61,83.11666666666667,9.393437500000001,65.16550879935865
1373662994.25,0.303438,34.61,83.17666663594667,8.973671875,65.17574584873171
1373662994.5,0.303438,34.61,83.23666666666668,7.8875,65.18598289810475
1373662994.75,0.303438,34.61,83.29666669738667,6.018671875,65.1962199474778
1373662995.0,0.303438,34.61,83.35666666666667,4.4099739583333335,65.20645699685085
1373662995.25,0.30338466666666664,34.61,83.41916663466667,4.762083333333334,65.21145387567694
1373662995.5,0.30333133333333334,34.61,83.48166666666667,5.738098958333333,65.21129409130315
1373662995.75,0.30322466666666664,34.61,83.54416669866667,8.629895833333334,65.2038691947225
1373662996.0,0.30311799999999994,34.61,83.60666666666667,12.415572916666667,65.19237567543736
1373662996.25,0.3030113333333333,34.61,83.67666663082667,14.059036458333333,65.18435395092905
1373662996.5,0.30290466666666666,34.61,83.74666666666667,16.546380208333336,65.18435395092905
1373662996.75,0.302798,34.61,83.81666670250667,18.652890625,65.18435395092905
1373662997.0,0.3026913333333333,34.61,83.88666666666667,18.302526041666667,65.18435395092905
1373662997.25,0.30263799999999996,34.61,83.95833329664,19.625520833333333,65.18435395092905
1373662997.5,0.30258466666666667,34.61,84.03,21.09135416666667,65.18435395092905
1373662997.75,0.30247799999999997,34.61,84.10166670336,22.29888020833333,65.18435395092905
1373662998.0,0.3023713333333333,34.61,84.17333333333333,23.4278125,65.18435395092905
1373662998.25,0.30231800000000003,34.61,84.24916662784,22.700755208333334,65.18435395092905
1373662998.5,0.3022646666666667,34.61,84.325,21.128411458333332,65.18435395092905
1373662998.75,0.30231800000000003,34.61,84.40083337216001,18.939375,65.18435395092905
1373662999.0,0.3024246666666667,34.61,84.47666666666667,16.220625000000002,65.18575165327987
1373662999.25,0.3025313333333333,34.61,84.55249996117334,14.313541666666666,65.18686981516052
1373662999.5,0.30263799999999996,34.61,84.62833333333333,12.245624999999999,65.18798797704117
1373662999.75,0.30274466666666666,34.61,84.70416670549332,10.507708333333333,65.19246062456378
1373663000.0,0.3028513333333333,34.61,84.77999999999999,8.951588541666666,65.19693327208638
1373663000.25,0.30285133333333336,34.61,84.85666662741332,7.796223958333335,65.201405919609
1373663000.5,0.3028513333333333,34.61,84.93333333333332,6.49171875,65.2058785671316
1373663000.75,0.302958,34.61,85.01000003925333,5.606901041666666,65.21035121465421
1373663001.0,0.30306466666666665,34.61,85.08666666666666,4.965859375,65.21482386217683
1373663001.25,0.3031713333333333,34.61,85.1658332928,4.09234375,65.21929650969943
1373663001.5,0.303278,34.61,85.245,3.8165625000000003,65.22125329299058
1373663001.75,0.303278,34.61083333333333,85.3241667072,3.251276041666667,65.2218123739309
1373663002.0,0.3031713333333333,34.612500000000004,85.40333333333335,2.7083593750000006,65.22041467158009
1373663002.25,0.30306466666666665,34.61416666666667,85.47416663040002,2.2933854166666667,65.21929650969943
1373663002.5,0.302958,34.615833333333335,85.54500000000002,1.6898958333333336,65.21817834781878
1373663002.75,0.30285133333333336,34.6175,85.61583336960001,1.038359375,65.21370570029617
1373663003.0,0.30274466666666666,34.619166666666665,85.68666666666668,0.7180729166666667,65.20923305277357
1373663003.25,0.3026913333333333,34.62083333333333,85.74916663466668,-0.006484374999999924,65.20476040525095
1373663003.5,0.302638,34.6225,85.81166666666667,-0.2919270833333332,65.20028775772835
1373663003.75,0.3025313333333333,34.62416666666667,85.87416669866667,-0.42601562499999984,65.19581511020574
1373663004.0,0.3024246666666666,34.62583333333333,85.93666666666667,-0.9780729166666665,65.19134246268312
1373663004.25,0.302318,34.627500000000005,85.97999997781334,-0.8671354166666666,65.18686981516052
1373663004.5,0.30221133333333333,34.62916666666667,86.02333333333334,-0.9602864583333334,65.18491303186937
1373663004.75,0.302158,34.63,86.06666668885335,-1.0624218749999998,65.18435395092905
1373663005.0,0.302158,34.63,86.11000000000001,-0.3754427083333332,65.18435395092905
1373663005.25,0.302158,34.63,86.14333331626668,0.12057291666666677,65.18714935563068
1373663005.5,0.302158,34.63,86.17666666666668,0.6337500000000001,65.19162200315328
1373663005.75,0.302158,34.630833333333335,86.21000001706668,1.7665364583333334,65.1960946506759
1373663006.0,0.30210462499999996,34.6325,86.24333333333334,2.4580729166666666,65.20056729819851
1373663006.25,0.30205124999999994,34.634166666666665,86.26666665472,3.5582812500000003,65.20791100391953
1373663006.5,0.30205125,34.63583333333334,86.28999999999999,4.832760416666667,65.21381918054136
1373663006.75,0.30205125,34.6375,86.31333334528,5.735677083333333,65.22762276720884
1373663007.0,0.301997875,34.63916666666666,86.33666666666666,7.27375,65.24357964752514
1373663007.25,0.301891125,34.64083333333333,86.35749998933333,8.637057291666666,65.25953652784143
1373663007.5,0.30183775,34.6425,86.37833333333333,9.96265625,65.27549340815773
1373663007.75,0.30173099999999997,34.64416666666667,86.39916667733333,11.589010416666667,65.29145028847402
1373663008.0,0.30162425,34.645833333333336,86.42,12.373385416666666,65.30597163969111
1373663008.25,0.3015175,34.6475,86.44083332266666,12.923671874999998,65.3105199407105
1373663008.5,0.30141075,34.649166666666666,86.46166666666667,13.743541666666667,65.31159677686337
1373663008.75,0.301304,34.649166666666666,86.48250001066667,13.747291666666667,65.31159677686335
1373663009.0,0.30130399999999996,34.6475,86.50333333333333,14.104661458333334,65.31159677686337
1373663009.25,0.301357375,34.645833333333336,86.52416665599999,14.272734375,65.30872571866493
1373663009.5,0.301357375,34.64416666666666,86.54499999999999,14.677369791666665,65.30729018956573
1373663009.75,0.301357375,34.6425,86.565833344,15.740572916666666,65.30083182324678
1373663010.0,0.30141075,34.64083333333334,86.58666666666666,15.913958333333333,65.29186109167578
1373663010.25,0.3015175,34.63916666666667,86.60749998933333,15.724921875,65.28145407369183
1373663010.5,0.30157087499999996,34.6375,86.62833333333333,14.505416666666669,65.27711003834892
1373663010.75,0.301677625,34.63583333333333,86.64916667733333,13.10515625,65.27440066062465
1373663011.0,0.301784375,34.634166666666665,86.67,12.372734375,65.27332603918211
1373663011.25,0.30194445833333333,34.6325,86.69416665429334,12.085651041666667,65.28146109652883
1373663011.5,0.30210454166666667,34.630833333333335,86.71833333333333,11.385104166666665,65.29186849316967
1373663011.75,0.3023179583333333,34.630833333333335,86.74250001237333,11.784895833333332,65.30335272596336
1373663012.0,0.3024246666666667,34.6325,86.76666666666667,12.155859374999999,65.31483695875706
1373663012.25,0.3024246666666667,34.634166666666665,86.7958333184,11.387890624999999,65.32632119155075
1373663012.5,0.3024246666666667,34.63583333333334,86.82499999999999,10.141119791666666,65.33780542434442
1373663012.75,0.3024246666666666,34.63666666666667,86.85416668159999,7.790859375,65.34641708431218
1373663013.0,0.3024246666666666,34.63666666666666,86.88333333333333,5.886145833333334,65.35538781588318
1373663013.25,0.30247799999999997,34.63666666666666,86.91916664832,5.455182291666667,65.36579483386713
1373663013.5,0.3025313333333333,34.63666666666666,86.95500000000001,6.373281250000001,65.37013886921004
1373663013.75,0.3025313333333333,34.63666666666666,86.99083335168001,7.6996093750000005,65.37284824693432
1373663014.0,0.3025313333333333,34.63666666666666,87.02666666666669,8.498411458333333,65.37535839747608
1373663014.25,0.30247799999999997,34.63666666666667,87.06499998037334,8.937005208333334,65.37583651472461
1373663014.5,0.30247799999999997,34.63666666666667,87.10333333333335,10.253411458333334,65.37583651472461
1373663014.75,0.3023713333333333,34.63583333333333,87.14166668629335,10.311953125,65.37583651472461
1373663015.0,0.302318,34.634166666666665,87.18,10.300338541666667,65.37583651472461
1373663015.25,0.3023713333333333,34.6325,87.21499998208,11.888125,65.37583651472461
1373663015.5,0.3024246666666667,34.630833333333335,87.25,12.847526041666667,65.37583651472461
1373663015.75,0.3024246666666667,34.63,87.28500001792001,14.380234375,65.37583651472461
1373663016.0,0.3024246666666667,34.63,87.32000000000001,16.248697916666668,65.37583651472461
1373663016.25,0.3023713333333333,34.63,87.34916665173334,16.304895833333333,65.37583651472461
1373663016.5,0.302318,34.63,87.37833333333333,15.935390625000002,65.37583651472461
1373663016.75,0.3023713333333333,34.63,87.40750001493333,15.261666666666665,65.37583651472461
1373663017.0,0.30247799999999997,34.63,87.43666666666667,14.268385416666668,65.37583651472461
1373663017.25,0.3025313333333333,34.63,87.45749998933333,13.778515625000002,65.37583651472461
1373663017.5,0.3025313333333333,34.63,87.47833333333332,12.545911458333334,65.37583651472461
1373663017.75,0.302638,34.63,87.49916667733333,11.433645833333335,65.37583651472461
1373663018.0,0.30274466666666666,34.63,87.52,10.746927083333334,65.37583651472461
1373663018.25,0.30279799999999996,34.63,87.53083332778667,9.128385416666667,65.37583651472461
1373663018.5,0.3028513333333333,34.63,87.54166666666666,7.984140624999999,65.37583651472461
1373663018.75,0.302958,34.63,87.55250000554666,7.171067708333333,65.37583651472461
1373663019.0,0.30306466666666665,34.63,87.56333333333333,5.563984375,65.37583651472461
1373663019.25,0.3031713333333333,34.63,87.56250000042667,4.743619791666667,65.37583651472461
1373663019.5,0.303278,34.63,87.56166666666667,4.156562500000001,65.37583651472461
1373663019.75,0.30333133333333334,34.63,87.56083333290667,3.15359375,65.37583651472461
1373663020.0,0.30333133333333334,34.63,87.56,2.8042968750000004,65.37583651472461
1373663020.25,0.30338466666666664,34.63,87.5475000064,2.2446354166666667,65.37583651472461
1373663020.5,0.303438,34.63,87.535,1.5497395833333334,65.37152992742698
1373663020.75,0.303438,34.630833333333335,87.52249999360001,1.3185677083333336,65.36004569463329
1373663021.0,0.303438,34.6325,87.51,0.7840625000000001,65.3485614618396
1373663021.25,0.303438,34.634166666666665,87.49250000896001,0.68078125,65.33707722904592
1373663021.5,0.30338466666666664,34.63583333333333,87.475,0.7265885416666668,65.32559299625223
1373663021.75,0.30333133333333334,34.637499999999996,87.45749999104,0.6659114583333334,65.31410876345855
1373663022.0,0.30333133333333334,34.63916666666667,87.44,1.509166666666667,65.30262453066486
1373663022.25,0.303278,34.64083333333333,87.42416667477333,1.9970572916666667,65.29114029787117
1373663022.5,0.30322466666666664,34.642500000000005,87.40833333333333,2.273776041666667,65.27965606507748
1373663022.75,0.3031713333333333,34.64416666666667,87.39249999189333,3.339765625,65.26817183228378
1373663023.0,0.303118,34.645833333333336,87.37666666666667,4.064322916666666,65.25668759949009
1373663023.25,0.30301133333333335,34.6475,87.36583333888,4.722552083333333,65.24520336669642
1373663023.5,0.30290466666666666,34.649166666666666,87.35499999999999,6.117031249999999,65.24197437286539
1373663023.75,0.30279799999999996,34.65,87.34416666112,7.268229166666667,65.24369006834688
1373663024.0,0.30269133333333337,34.65,87.33333333333333,8.3140625,65.24823766375935
1373663024.25,0.30258466666666667,34.65,87.32333333845332,9.807890625,65.25142974383098
1373663024.5,0.3025313333333333,34.65,87.31333333333333,11.25578125,65.25912787592142
1373663024.75,0.30247799999999997,34.650416666666665,87.30333332821334,11.958645833333334,65.26606891664335
1373663025.0,0.3023713333333333,34.65125,87.29333333333334,11.480859375,65.27480373030029
1373663025.25,0.3023713333333333,34.65208333333333,87.28416667136,11.128151041666667,65.28509259999879
1373663025.5,0.3023713333333333,34.65291666666666,87.275,10.607578125,65.29657683279248
1373663025.75,0.3024246666666667,34.653749999999995,87.26583332864,9.989609374999999,65.30806106558616
1373663026.0,0.30247799999999997,34.654583333333335,87.25666666666666,9.808177083333334,65.31954529837985
1373663026.25,0.30258466666666667,34.65541666666666,87.24166667434666,9.684218750000001,65.33102953117354
1373663026.5,0.30269133333333337,34.65625,87.22666666666666,8.909791666666667,65.33856511230222
1373663026.75,0.30279799999999996,34.65708333333333,87.21166665898666,8.676901041666666,65.34833364961439
1373663027.0,0.30290466666666666,34.657916666666665,87.19666666666666,8.582734375,65.3552702869956
1373663027.25,0.3030113333333333,34.65875,87.17416667818667,7.2172656250000005,65.36356243971767
1373663027.5,0.303118,34.65958333333333,87.15166666666667,6.574869791666667,65.36734854042092
1373663027.75,0.30322466666666664,34.65958333333333,87.12916665514666,7.452968749999999,65.37189173249267
1373663028.0,0.30333133333333334,34.65875,87.10666666666667,9.260677083333333,65.37464115162942
1373663028.25,0.30338466666666664,34.657916666666665,87.07416668330667,11.986171874999998,65.37583651472461
1373663028.5,0.303438,34.657083333333325,87.04166666666667,14.654947916666664,65.37583651472461
1373663028.75,0.303438,34.65625,87.00916665002667,16.408593749999998,65.37583651472461
1373663029.0,0.303438,34.65541666666666,86.97666666666667,18.463593749999998,65.37583651472461
1373663029.25,0.303438,34.65458333333333,86.93750002005333,19.533567708333333,65.37583651472461
1373663029.5,0.30338466666666664,34.653749999999995,86.89833333333334,20.98671875,65.37583651472461
1373663029.75,0.303278,34.65291666666666,86.85916664661335,22.114453124999997,65.37583651472461
1373663030.0,0.3031713333333333,34.65208333333333,86.82000000000001,22.348229166666666,65.37583651472461
1373663030.25,0.3030646666666667,34.65125,86.77750002176,23.850885416666667,65.37583651472461
1373663030.5,0.302958,34.650416666666665,86.735,24.32859375,65.37583651472461
1373663030.75,0.3028513333333333,34.65,86.69249997824,23.51768229166667,65.37583651472461
1373663031.0,0.30274466666666666,34.65,86.64999999999999,23.09763020833333,65.37583651472461
1373663031.25,0.302638,34.65,86.60416669013333,21.22046875,65.37583651472461
1373663031.5,0.3025313333333333,34.65,86.55833333333334,19.667473958333336,65.37583651472461
1373663031.75,0.3024246666666666,34.65,86.51249997653335,18.76440104166667,65.37583651472461
1373663032.0,0.302318,34.65,86.46666666666668,16.641796875,65.37583651472461
1373663032.25,0.30221133333333333,34.65,86.42666668714668,15.987578124999999,65.37583651472461
1373663032.5,0.302158,34.65,86.38666666666667,14.67328125,65.37583651472461
1373663032.75,0.302158,34.65,86.34666664618666,13.104244791666668,65.37583651472461
1373663033.0,0.302158,34.65,86.30666666666666,12.787265624999998,65.37583651472461
1373663033.25,0.302158,34.65,86.27166668458666,11.301250000000001,65.37583651472461
1373663033.5,0.302158,34.65,86.23666666666666,10.422343750000001,65.37583651472461
1373663033.75,0.302158,34.65,86.20166664874667,10.058932291666666,65.37583651472461
1373663034.0,0.302158,34.65,86.16666666666667,8.500442708333333,65.37583651472461
1373663034.25,0.302158,34.65,86.1333333504,7.815156250000001,65.37583651472461
1373663034.5,0.30221133333333333,34.65,86.1,6.627135416666666,65.37583651472461
1373663034.75,0.30221133333333333,34.65,86.0666666496,5.084895833333333,65.37583651472461
1373663035.0,0.30221133333333333,34.65,86.03333333333332,4.451119791666667,65.36741255278032
1373663035.25,0.30221133333333333,34.65,86.00083334997332,3.1657031250000003,65.32739076618323
1373663035.5,0.30221133333333333,34.65,85.96833333333332,2.3196875,65.28644712245895
1373663035.75,0.30221133333333333,34.65,85.93583331669332,1.7382291666666667,65.24494134920228
1373663036.0,0.30221133333333333,34.65,85.90333333333332,0.5877864583333334,65.199781733985
1373663036.25,0.30221133333333333,34.65,85.87666668031999,0.07674479166666673,65.15546531306634
1373663036.5,0.30221133333333333,34.65,85.85,-0.5475781249999999,65.11199208644626
1373663036.75,0.30221133333333333,34.650416666666665,85.82333331968,-1.4546093749999998,65.06655140646279
1373663037.0,0.30221133333333333,34.65125,85.79666666666667,-1.7569270833333333,65.02111072647932
1373663037.25,0.3022646666666666,34.65208333333333,85.78000000853334,-2.006041666666667,64.97567004649584
1373663037.5,0.3022646666666667,34.65291666666666,85.76333333333334,-1.6304687500000001,64.93022936651236
1373663037.75,0.3023713333333333,34.653749999999995,85.74666665813334,-0.7047395833333333,64.88478868652889
1373663038.0,0.3024246666666666,34.65458333333333,85.73,0.17002604166666657,64.84777196848971
1373663038.25,0.30247799999999997,34.65541666666667,85.7175000064,0.74609375,64.84235307510333
1373663038.5,0.30258466666666667,34.65624999999999,85.70500000000001,1.7292447916666667,64.83785603884412
1373663038.75,0.3026913333333333,34.65708333333333,85.69249999360001,2.7308854166666667,64.83392113211733
1373663039.0,0.30279799999999996,34.657916666666665,85.68,3.4776302083333337,64.83364006735113
1373663039.25,0.30290466666666666,34.65875,85.66916667221334,4.767838541666666,64.83251580828632
1373663039.5,0.30301133333333335,34.65958333333333,85.65833333333333,5.9195312499999995,64.83054835492293
1373663039.75,0.303118,34.66,85.64749999445333,6.791536458333334,64.83054835492293
1373663040.0,0.30322466666666664,34.66,85.63666666666666,8.197057291666665,64.83054835492293
1373663040.25,0.303278,34.66,85.63000000341333,8.94359375,64.83054835492293
1373663040.5,0.30333133333333334,34.66,85.62333333333333,9.417838541666667,64.83054835492293
1373663040.75,0.30333133333333334,34.66,85.61666666325333,9.995911458333333,64.83054835492293
1373663041.0,0.30338466666666664,34.66,85.61,9.773723958333333,64.83054835492293
1373663041.25,0.303438,34.66,85.60750000128,10.110677083333334,64.83054835492293
1373663041.5,0.303438,34.66,85.60499999999999,10.184791666666667,64.83054835492293
1373663041.75,0.303438,34.66,85.60249999871999,9.584765625000001,64.83054835492293
1373663042.0,0.303438,34.66,85.6,9.74046875,64.83054835492293
1373663042.25,0.303438,34.66,85.59750000128,9.328046875,64.83054835492293
1373663042.5,0.303438,34.66,85.595,8.531276041666667,64.83054835492293
1373663042.75,0.303438,34.66,85.59249999871999,8.570078125,64.83054835492293
1373663043.0,0.303438,34.66,85.58999999999999,7.777135416666667,64.83054835492293
1373663043.25,0.303438,34.66,85.58750000127999,7.2921354166666665,64.83054835492293
1373663043.5,0.303438,34.66,85.585,7.140755208333332,64.83420219688354
1373663043.75,0.303438,34.66,85.58249999872,6.240885416666667,64.83869923314273
1373663044.0,0.303438,34.66,85.58,6.121927083333333,64.84319626940193
1373663044.25,0.303438,34.66,85.58166666581333,5.924088541666667,64.84769330566114
1373663044.5,0.303438,34.66,85.58333333333333,5.265885416666666,64.85219034192033
1373663044.75,0.303438,34.66083333333333,85.58500000085333,5.401744791666666,64.85668737817953
1373663045.0,0.303438,34.6625,85.58666666666666,5.161536458333333,64.86118441443874
1373663045.25,0.303438,34.66416666666667,85.59916666026666,4.689114583333334,64.86568145069793
1373663045.5,0.303438,34.66583333333333,85.61166666666665,4.897473958333333,64.87017848695714
1373663045.75,0.303438,34.6675,85.62416667306665,4.425286458333333,64.87467552321634
1373663046.0,0.303438,34.66916666666666,85.63666666666666,4.120807291666667,64.87917255947555
1373663046.25,0.303438,34.67083333333333,85.65583332351999,4.098567708333333,64.88366959573474
1373663046.5,0.303438,34.6725,85.67499999999998,3.341536458333333,64.88451279003334
1373663046.75,0.303438,34.674166666666665,85.69416667648,3.2896875,64.88451279003334
1373663047.0,0.303438,34.67583333333334,85.71333333333332,3.0918750000000004,64.88451279003334
1373663047.25,0.303438,34.6775,85.72833332565332,2.3984375000000004,64.88451279003334
1373663047.5,0.303438,34.67916666666667,85.74333333333333,2.56875,64.88451279003334
1373663047.75,0.303438,34.68,85.75833334101333,2.3876041666666667,64.88451279003334
1373663048.0,0.303438,34.68,85.77333333333333,2.0488020833333334,64.88451279003334
1373663048.25,0.303438,34.68,85.77583333205334,2.3265885416666667,64.88451279003334
1373663048.5,0.303438,34.68,85.77833333333334,2.08484375,64.88451279003334
1373663048.75,0.30349133333333334,34.68,85.78083333461333,2.3888541666666665,64.88451279003334
1373663049.0,0.30349133333333334,34.68,85.78333333333335,3.0520833333333335,64.88451279003334
1373663049.25,0.3034913333333333,34.68,85.77333333845334,3.6215104166666667,64.88451279003334
1373663049.5,0.30354466666666663,34.68,85.76333333333335,5.1394270833333335,64.88451279003334
1373663049.75,0.30365133333333333,34.68,85.75333332821334,6.166588541666666,64.88451279003334
1373663050.0,0.3037046666666666,34.68,85.74333333333334,7.251223958333334,64.88451279003334
1373663050.25,0.303758,34.68,85.73083333973334,8.59890625,64.88451279003334
1373663050.5,0.3038646666666666,34.68,85.71833333333333,9.154244791666667,64.88451279003334
1373663050.75,0.30391799999999997,34.68,85.70583332693334,9.754505208333333,64.88451279003334
1373663051.0,0.30402466666666667,34.68,85.69333333333334,10.315052083333335,64.88451279003334
1373663051.25,0.3041313333333333,34.68,85.68500000426667,10.527526041666667,64.88451279003334
1373663051.5,0.30423799999999995,34.68,85.67666666666668,10.899895833333334,64.88451279003334
1373663051.75,0.3042913333333333,34.68,85.66833332906668,10.893671875,64.88451279003334
1373663052.0,0.304398,34.68,85.66000000000001,10.610755208333334,64.88451279003334
1373663052.25,0.30450466666666665,34.68,85.65916666709334,9.97078125,64.88451279003334
1373663052.5,0.304558,34.68,85.65833333333335,8.926640625,64.88451279003334
1373663052.75,0.304558,34.67916666666667,85.65749999957335,8.035885416666668,64.88451279003334
1373663053.0,0.3046113333333333,34.6775,85.65666666666668,6.787838541666667,64.88451279003334
1373663053.25,0.30466466666666664,34.67583333333334,85.66499999573334,5.976484374999999,64.88451279003334
1373663053.5,0.30466466666666664,34.674166666666665,85.67333333333335,5.161302083333333,64.88451279003334
1373663053.75,0.304718,34.6725,85.68166667093334,4.590885416666667,64.88451279003334
1373663054.0,0.304718,34.67083333333333,85.69,4.11734375,64.88451279003334
1373663054.25,0.304718,34.66916666666666,85.70499999232,3.45890625,64.88451279003334
1373663054.5,0.304718,34.6675,85.72,3.2115625,64.88451279003334
1373663054.75,0.304718,34.66583333333333,85.73500000768,2.7284114583333334,64.88451279003334
1373663055.0,0.304718,34.66416666666667,85.75,2.492994791666667,64.88451279003334
1373663055.25,0.304718,34.6625,85.77499998719999,2.658671875,64.88451279003334
1373663055.5,0.304718,34.66083333333333,85.79999999999998,2.3764583333333333,64.88451279003334
1373663055.75,0.304718,34.66083333333333,85.82500001279999,2.539609375,64.88451279003334
1373663056.0,0.304718,34.6625,85.84999999999998,2.83640625,64.88451279003334
1373663056.25,0.304718,34.66416666666667,85.87916665173331,2.722526041666667,64.88451279003334
1373663056.5,0.304718,34.66583333333333,85.90833333333332,3.254505208333334,64.88451279003334
1373663056.75,0.304718,34.6675,85.93750001493332,3.2246614583333333,64.88451279003334
1373663057.0,0.304718,34.66916666666666,85.96666666666665,3.755416666666667,64.88451279003334
1373663057.25,0.304718,34.67083333333333,85.99916665002665,4.405338541666667,64.88451279003334
1373663057.5,0.304718,34.6725,86.03166666666665,4.575546875,64.88451279003334
1373663057.75,0.304718,34.674166666666665,86.06416668330665,5.449140625000001,64.88451279003334
1373663058.0,0.304718,34.67583333333334,86.09666666666665,5.722291666666667,64.88451279003334
1373663058.25,0.30466466666666664,34.6775,86.12583331839998,6.071458333333333,64.88451279003334
1373663058.5,0.304558,34.67916666666667,86.15499999999999,6.813359375,64.88451279003334
1373663058.75,0.30445133333333335,34.68,86.18416668159999,6.8492187499999995,64.88451279003334
1373663059.0,0.30434466666666665,34.68,86.21333333333332,7.289296874999999,64.88451279003334
1373663059.25,0.304238,34.68,86.23666665472,7.538255208333333,64.88451279003334
1373663059.5,0.3041313333333333,34.68,86.25999999999999,7.539244791666667,64.88451279003334
1373663059.75,0.30402466666666667,34.68,86.28333334527998,7.991874999999999,64.88451279003334
1373663060.0,0.30391799999999997,34.68,86.30666666666666,7.6910677083333345,64.88451279003334
1373663060.25,0.3038113333333333,34.68,86.32833332224,7.8784375,64.88451279003334
1373663060.5,0.3037046666666667,34.68,86.35,7.9614062500000005,64.88451279003334
1373663060.75,0.303598,34.68,86.37166667775999,7.686796875,64.88451279003334
1373663061.0,0.3034913333333333,34.68,86.39333333333333,8.137343750000001,64.88451279003334
1373663061.25,0.303438,34.68,86.41666665472,7.881744791666667,64.88451279003334
1373663061.5,0.303438,34.68,86.44,7.965989583333333,64.88451279003334
1373663061.75,0.303438,34.68,86.46333334527999,8.354531249999999,64.88451279003334
1373663062.0,0.303438,34.68,86.48666666666666,8.011536458333333,64.88451279003334
1373663062.25,0.303438,34.68,86.51749998421333,8.284296875,64.88451279003334
1373663062.5,0.303438,34.68,86.54833333333333,8.080859375,64.88451279003334
1373663062.75,0.303438,34.68,86.57916668245333,7.765364583333334,64.88451279003334
1373663063.0,0.303438,34.68,86.61,7.875052083333333,64.88451279003334
1373663063.25,0.303438,34.68,86.64499998208,7.220338541666667,64.88451279003334
1373663063.5,0.303438,34.68,86.68,6.929322916666667,64.88451279003334
1373663063.75,0.303438,34.68,86.71500001792,6.6395052083333335,64.88451279003334
1373663064.0,0.303438,34.68,86.75,5.703802083333334,64.88451279003334
1373663064.25,0.303438,34.68,86.78499998208,5.414348958333334,64.88451279003334
1373663064.5,0.303438,34.68,86.82,4.71984375,64.88451279003334
1373663064.75,0.303438,34.68,86.85500001792,3.708619791666667,64.88451279003334
1373663065.0,0.303438,34.68,86.89,3.400703125,64.88451279003334
1373663065.25,0.303438,34.68,86.92166665045333,2.5861718750000002,64.88451279003334
1373663065.5,0.303438,34.68,86.95333333333333,2.0119531250000002,64.88451279003334
1373663065.75,0.303438,34.68125,86.98500001621333,1.8035677083333335,64.88451279003334
1373663066.0,0.303438,34.68375,87.01666666666667,1.14125,64.88451279003334
1373663066.25,0.303438,34.68625,87.04416665258667,0.9017187500000001,64.88451279003334
1373663066.5,0.303438,34.68875,87.07166666666666,0.8851041666666668,64.88451279003334
1373663066.75,0.303438,34.691250000000004,87.09916668074666,0.46869791666666677,64.88451279003334
1373663067.0,0.3033846666666667,34.69375,87.12666666666667,0.6129687500000002,64.88451279003334
1373663067.25,0.30333133333333334,34.69625,87.14416665770666,0.9113802083333334,64.88451279003334
1373663067.5,0.30333133333333334,34.69875,87.16166666666666,0.8347916666666668,64.88451279003334
1373663067.75,0.30333133333333334,34.701249999999995,87.17916667562667,1.4250260416666667,64.88451279003334
1373663068.0,0.30333133333333334,34.70375000000001,87.19666666666667,1.891328125,64.88451279003334
1373663068.25,0.30333133333333334,34.706250000000004,87.20666666154668,2.388984375,64.88451279003334
1373663068.5,0.30333133333333334,34.70875,87.21666666666667,3.66859375,64.88451279003334
1373663068.75,0.30333133333333334,34.71,87.22666667178667,4.292994791666667,64.88451279003334
1373663069.0,0.30333133333333334,34.71,87.23666666666668,5.251458333333333,64.88451279003334
1373663069.25,0.30333133333333334,34.71,87.23833333248001,6.764296875,64.88451279003334
1373663069.5,0.30333133333333334,34.71,87.24000000000001,7.271640625,64.88451279003334
1373663069.75,0.30333133333333334,34.70875,87.24166666752001,8.50171875,64.88451279003334
1373663070.0,0.30338466666666664,34.706250000000004,87.24333333333334,9.817109375,64.88451279003334
1373663070.25,0.303438,34.70375,87.24499999914667,10.070807291666666,64.88451279003334
1373663070.5,0.303438,34.70125,87.24666666666667,11.351458333333333,64.88451279003334
1373663070.75,0.303438,34.698750000000004,87.24833333418667,12.203697916666668,64.88451279003334
1373663071.0,0.303438,34.69625,87.25,12.395104166666668,64.88451279003334
1373663071.25,0.303438,34.69375,87.25,13.356640624999999,64.88451279003334
1373663071.5,0.303438,34.691250000000004,87.25,13.064270833333332,64.88451279003334
1373663071.75,0.303438,34.69,87.25,13.317135416666666,64.88451279003334
1373663072.0,0.303438,34.690000000000005,87.25,13.709010416666667,64.88451279003334
1373663072.25,0.303438,34.69,87.24583333546667,12.808359375,64.88451279003334
1373663072.5,0.303438,34.69,87.24166666666667,13.181848958333333,64.88451279003334
1373663072.75,0.303438,34.691250000000004,87.23749999786666,12.957630208333333,64.88451279003334
1373663073.0,0.303438,34.69375,87.23333333333333,12.012734375,64.88451279003334
1373663073.25,0.303438,34.69625,87.22666667008,12.405807291666667,64.88451279003334
1373663073.5,0.303438,34.69875,87.22,11.65984375,64.88451279003334
1373663073.75,0.303438,34.699999999999996,87.21333332992,10.965390625,64.88451279003334
1373663074.0,0.303438,34.7,87.20666666666666,11.048697916666667,64.88451279003334
1373663074.25,0.303438,34.7,87.20000000341334,9.902942708333333,64.88451279003334
1373663074.5,0.303438,34.7,87.19333333333333,9.790078124999999,64.88451279003334
1373663074.75,0.303438,34.698750000000004,87.18666666325333,9.203932291666666,64.88451279003334
1373663075.0,0.3033846666666667,34.69625,87.18,8.193854166666666,64.88451279003334
1373663075.25,0.30333133333333334,34.69375,87.17750000128001,8.341796875,64.88451279003334
1373663075.5,0.30333133333333334,34.691250000000004,87.17500000000001,7.389140625,64.88451279003334
1373663075.75,0.30333133333333334,34.68875,87.17249999872,6.761119791666666,64.88451279003334
1373663076.0,0.30333133333333334,34.68625,87.17,6.788880208333333,64.88451279003334
1373663076.25,0.30333133333333334,34.683749999999996,87.17416666453333,5.624739583333334,64.88451279003334
1373663076.5,0.30333133333333334,34.68125,87.17833333333334,5.3346875,64.88451279003334
1373663076.75,0.30333133333333334,34.68,87.18250000213334,5.123932291666667,64.88451279003334
1373663077.0,0.30333133333333334,34.68,87.18666666666667,4.256744791666667,64.88451279003334
1373663077.25,0.30333133333333334,34.68,87.19749999445334,4.491041666666667,64.88451279003334
1373663077.5,0.30333133333333334,34.68,87.20833333333334,3.8864062500000003,64.88451279003334
1373663077.75,0.30333133333333334,34.68,87.21916667221333,3.6246875,64.88451279003334
1373663078.0,0.30338466666666664,34.68,87.23,3.831666666666667,64.88451279003334
1373663078.25,0.303438,34.68,87.25083332266667,3.081822916666667,64.88451279003334
1373663078.5,0.303438,34.68,87.27166666666668,3.298828125,64.88451279003334
1373663078.75,0.303438,34.68,87.29250001066667,3.231015625,64.88451279003334
1373663079.0,0.303438,34.68,87.31333333333333,2.858854166666667,64.88451279003334
1373663079.25,0.303438,34.68,87.34499998378666,3.5318229166666666,64.88451279003334
1373663079.5,0.303438,34.68,87.37666666666667,3.462682291666667,64.88451279003334
1373663079.75,0.303438,34.68125,87.40833334954667,3.623958333333334,64.88451279003334
1373663080.0,0.303438,34.68375,87.44,4.3715625,64.88451279003334
1373663080.25,0.303438,34.68625,87.47999997951999,4.3266406250000005,64.88451279003334
1373663080.5,0.303438,34.68875,87.51999999999998,5.261458333333334,64.88451279003334
1373663080.75,0.303438,34.691250000000004,87.56000002047999,5.84390625,64.88451279003334
1373663081.0,0.303438,34.69375,87.59999999999998,6.244270833333334,64.88451279003334
1373663081.25,0.303438,34.69625,87.64249997823998,7.58703125,64.88451279003334
1373663081.5,0.303438,34.69875,87.68499999999999,7.852734375,64.88451279003334
1373663081.75,0.303438,34.701249999999995,87.72750002176,8.860885416666667,64.88451279003334
1373663082.0,0.303438,34.70375000000001,87.77,9.849244791666667,64.88451279003334
1373663082.25,0.303438,34.706250000000004,87.8074999808,9.847369791666667,64.88451279003334
1373663082.5,0.303438,34.70875,87.845,10.829687499999999,64.88451279003334
1373663082.75,0.303438,34.71083333333333,87.8825000192,11.226171875,64.88451279003334
1373663083.0,0.303438,34.7125,87.92,11.076614583333333,64.88451279003334
1373663083.25,0.303438,34.714166666666664,87.95249998336,11.661302083333334,64.88451279003334
1373663083.5,0.303438,34.715833333333336,87.985,11.268307291666666,64.88451279003334
1373663083.75,0.303438,34.7175,88.01750001664,11.072968750000001,64.88451279003334
1373663084.0,0.3033846666666667,34.719166666666666,88.05,10.974010416666667,64.88451279003334
1373663084.25,0.30333133333333334,34.72083333333333,88.07916665173333,9.9990625,64.88451279003334
1373663084.5,0.30322466666666664,34.7225,88.10833333333333,9.794375,64.88451279003334
1373663084.75,0.3031713333333333,34.723333333333336,88.13750001493334,9.117083333333335,64.88451279003334
1373663085.0,0.30317133333333335,34.72333333333333,88.16666666666667,8.033984375000001,64.88451279003334
1373663085.25,0.3031713333333333,34.723333333333336,88.1958333184,7.845104166666668,64.88451279003334
1373663085.5,0.303118,34.723333333333336,88.22500000000001,7.073645833333333,64.88451279003334
1373663085.75,0.30301133333333335,34.7225,88.25416668160001,6.198359375,64.88451279003334
1373663086.0,0.30290466666666666,34.72083333333333,88.28333333333335,6.060598958333333,64.88451279003334
1373663086.25,0.30279799999999996,34.719166666666666,88.31499998378668,5.484791666666667,64.88451279003334
1373663086.5,0.3026913333333333,34.7175,88.34666666666668,4.9538802083333335,64.88451279003334
1373663086.75,0.30258466666666667,34.71583333333333,88.37833334954668,4.933255208333334,64.88451279003334
1373663087.0,0.3025313333333333,34.714166666666664,88.41000000000001,4.60703125,64.88451279003334
1373663087.25,0.30247799999999997,34.7125,88.44499998208,4.577552083333333,64.88451279003334
1373663087.5,0.30247799999999997,34.71083333333333,88.48,4.875494791666667,64.88451279003334
1373663087.75,0.3024246666666667,34.71,88.51500001792,4.670364583333334,64.88451279003334
1373663088.0,0.302318,34.71,88.55,5.007734375,64.88451279003334
1373663088.25,0.30221133333333333,34.71,88.58583331498666,5.451458333333332,64.88451279003334
1373663088.5,0.302158,34.71,88.62166666666667,5.662421875000001,64.88451279003334
1373663088.75,0.302158,34.71083333333333,88.65750001834667,6.882395833333334,64.88451279003334
1373663089.0,0.302158,34.7125,88.69333333333333,8.049453125,64.88451279003334
1373663089.25,0.302158,34.714166666666664,88.72666664959999,8.781927083333333,64.88619779160109
1373663089.5,0.302158,34.715833333333336,88.75999999999999,9.857083333333334,64.90166656281025
1373663089.75,0.302158,34.7175,88.7933333504,10.163203125,64.92045733603648
1373663090.0,0.302158,34.719166666666666,88.82666666666667,9.987291666666666,64.93864817630386
1373663090.25,0.302158,34.72083333333333,88.85333331968,9.886432291666667,64.95159132139507
1373663090.5,0.302158,34.7225,88.88,8.49265625,64.95980846702432
1373663090.75,0.302158,34.72416666666667,88.90666668032,7.290078125,64.97775933410814
1373663091.0,0.302158,34.725833333333334,88.93333333333334,5.962890625,64.99535011398972
1373663091.25,0.302158,34.7275,88.94999999146667,3.298645833333333,65.01270083573648
1373663091.5,0.302158,34.729166666666664,88.96666666666667,0.8314062499999997,65.02993152841582
1373663091.75,0.302158,34.73,88.98333334186667,-2.1064062500000005,65.04896138463724
1373663092.0,0.30210462499999996,34.73,89.0,-5.925104166666666,65.06751176082356
1373663092.25,0.30199787499999997,34.73,89.00666666325333,-8.705416666666666,65.08377762633964
1373663092.5,0.301891125,34.73,89.01333333333332,-11.066875000000001,65.09405334054696
1373663092.75,0.301784375,34.73083333333333,89.02000000341333,-13.201458333333333,65.1003275336999
1373663093.0,0.301677625,34.732499999999995,89.02666666666666,-13.922447916666668,65.10967970615654
1373663093.25,0.30157087499999996,34.73416666666666,89.02749999957332,-14.645312500000001,65.12427957378934
1373663093.5,0.301464125,34.73583333333333,89.02833333333334,-13.396770833333333,65.1436054408841
1373663093.75,0.301357375,34.7375,89.02916666709334,-11.515052083333332,65.15319758652429
1373663094.0,0.30125062500000005,34.73916666666666,89.03,-8.699348958333333,65.16314981936672
1373663094.25,0.301143875,34.740833333333335,89.03,-4.35203125,65.17334211034397
1373663094.5,0.30103712499999996,34.7425,89.03,-0.5445833333333331,65.18365443038864
1373663094.75,0.300930375,34.744166666666665,89.03,3.4189843750000004,65.19216758689123
1373663095.0,0.300877,34.74583333333333,89.03,7.754427083333334,65.20116022342891
1373663095.25,0.300877,34.747499999999995,89.03,11.251510416666667,65.20859375455933
1373663095.5,0.300877,34.74916666666667,89.03,14.36890625,65.20679459101723
1373663095.75,0.30082366666666666,34.75,89.03,17.274713541666667,65.20639448468238
1373663096.0,0.30082366666666666,34.75,89.03,19.44213541666667,65.19560141213348
1373663096.25,0.30082366666666666,34.75,89.03,21.55453125,65.18408880141467
1373663096.5,0.30082366666666666,34.75,89.03,22.31911458333333,65.17257619069586
1373663096.75,0.30082366666666666,34.75,89.03,23.340104166666666,65.16106357997707
1373663097.0,0.30082366666666666,34.75,89.03,22.953333333333333,65.14955096925826
1373663097.25,0.30082366666666666,34.75,89.03416666453333,21.097604166666667,65.13803835853945
1373663097.5,0.30082366666666666,34.75,89.03833333333333,19.492890624999998,65.12652574782064
1373663097.75,0.30082366666666666,34.74916666666667,89.04250000213334,16.282239583333332,65.11421232862166
1373663098.0,0.30082366666666666,34.7475,89.04666666666667,13.82953125,65.09821479242584
1373663098.25,0.30082366666666666,34.74583333333333,89.05833332736,11.159713541666667,65.07820582998745
1373663098.5,0.30082366666666666,34.744166666666665,89.07,7.882291666666667,65.05819141130353
1373663098.75,0.300877,34.7425,89.08166667263998,5.40890625,65.0386614457996
1373663099.0,0.300877,34.740833333333335,89.09333333333332,2.780729166666667,65.02704640016488
1373663099.25,0.300930375,34.73916666666667,89.11583332181333,0.07713541666666685,65.02355600698378
1373663099.5,0.30103712499999996,34.7375,89.13833333333332,-2.3692968749999994,65.01410354753705
1373663099.75,0.301143875,34.73583333333333,89.16083334485333,-5.448723958333333,65.00656999662613
1373663100.0,0.30125062500000005,34.73416666666666,89.18333333333334,-7.827760416666667,65.00439929635907
1373663100.25,0.30130399999999996,34.732499999999995,89.21416665088,-8.978645833333333,65.01615082223702
1373663100.5,0.301357375,34.73083333333333,89.245,-9.781822916666666,65.0313344036209
1373663100.75,0.301357375,34.73,89.27583334912,-9.209479166666666,65.04512493861561
1373663101.0,0.301357375,34.73,89.30666666666667,-9.191744791666666,65.06307871824687
1373663101.25,0.301357375,34.73,89.34666664618666,-8.7575,65.0882800486031
1373663101.5,0.301357375,34.73,89.38666666666666,-7.714036458333333,65.1154048282265
1373663101.75,0.301357375,34.73083333333333,89.42666668714666,-7.171458333333334,65.13861052469996
1373663102.0,0.301357375,34.732499999999995,89.46666666666665,-6.709557291666666,65.15826087383167
1373663102.25,0.301304,34.73416666666666,89.51249997653332,-5.834817708333333,65.1672696348711
1373663102.5,0.30119725,34.73583333333333,89.55833333333332,-4.904583333333333,65.18471796219073
1373663102.75,0.3010905,34.7375,89.60416669013333,-4.6366145833333325,65.19597177705687
1373663103.0,0.30098375,34.73916666666667,89.64999999999999,-4.5108854166666665,65.2016227680956
1373663103.25,0.300930375,34.740833333333335,89.69583330986666,-4.40953125,65.19215166707158
1373663103.5,0.300877,34.7425,89.74166666666666,-3.215963541666666,65.17936849713342
1373663103.75,0.300877,34.744166666666665,89.78750002346666,-1.4813281249999999,65.16829923569749
1373663104.0,0.300877,34.74583333333333,89.83333333333333,-0.18968749999999981,65.15675084662186
1373663104.25,0.300877,34.747499999999995,89.87333331285333,1.2889062500000001,65.1441249475736
1373663104.5,0.300877,34.74916666666667,89.91333333333333,3.3124739583333334,65.13102013184357
1373663104.75,0.300877,34.74916666666667,89.95333335381332,4.803020833333334,65.12063040791355
1373663105.0,0.300877,34.747499999999995,89.99333333333333,6.712291666666666,65.11379603132526
1373663105.25,0.300877,34.74583333333333,90.02499998378666,8.832447916666666,65.11019812854555
1373663105.5,0.300930375,34.744166666666665,90.05666666666667,10.335442708333334,65.10412272575127
1373663105.75,0.30098375000000005,34.7425,90.08833334954667,12.553802083333332,65.10232292687465
1373663106.0,0.3010905,34.740833333333335,90.12,14.415677083333334,65.1007631011816
1373663106.25,0.30119725,34.73916666666667,90.14499998720001,15.159192708333334,65.10040314140628
1373663106.5,0.301250625,34.7375,90.17000000000002,14.666041666666665,65.10176165200171
1373663106.75,0.301304,34.73583333333333,90.19500001280001,13.133489583333331,65.11709862762613
1373663107.0,0.30141075,34.73416666666666,90.22000000000001,12.36890625,65.13825821548794
1373663107.25,0.3015175,34.732499999999995,90.23999998976001,12.024661458333334,65.16125099212839
1373663107.5,0.30162425,34.73083333333333,90.26000000000002,10.069088541666666,65.18424376876884
1373663107.75,0.301731,34.73083333333333,90.28000001024002,9.330651041666666,65.20723654540929
1373663108.0,0.30183774999999996,34.732499999999995,90.30000000000001,8.278802083333334,65.23022932204975
1373663108.25,0.3019445,34.73416666666666,90.31166666069335,5.963255208333333,65.2532220986902
1373663108.5,0.30199787499999997,34.735833333333325,90.32333333333335,4.878749999999999,65.27621487533065
1373663108.75,0.30205124999999994,34.7375,90.33500000597334,3.37171875,65.29920765197112
1373663109.0,0.30205125,34.73916666666666,90.34666666666668,2.954921875,65.30806682655705
1373663109.25,0.30205125,34.740833333333335,90.35083333120001,3.7794791666666665,65.31181369320778
1373663109.5,0.30210462499999996,34.7425,90.355,3.9023437500000004,65.30485248382836
1373663109.75,0.302158,34.744166666666665,90.3591666688,4.817083333333334,65.28439275578702
1373663110.0,0.302158,34.74583333333333,90.36333333333333,5.304296875,65.25811041550833
1373663110.25,0.302158,34.747499999999995,90.36000000170665,4.844192708333334,65.22999488645097
1373663110.5,0.302158,34.74916666666666,90.35666666666665,6.441328124999999,65.20187935739362
1373663110.75,0.302158,34.74916666666667,90.35333333162666,6.667447916666667,65.17376382833628
1373663111.0,0.30221133333333333,34.7475,90.34999999999998,7.303281250000001,65.14564829927892
1373663111.25,0.30231800000000003,34.74583333333333,90.34666666837332,9.725911458333334,65.11785294224762
1373663111.5,0.3024246666666667,34.744166666666665,90.34333333333332,11.003619791666667,65.08973741319026
1373663111.75,0.3025313333333333,34.7425,90.33999999829332,12.816588541666668,65.06162188413292
1373663112.0,0.3026913333333333,34.740833333333335,90.33666666666666,13.245651041666667,65.04763995713007
1373663112.25,0.30290466666666666,34.73916666666667,90.33500000085333,12.476640625,65.03861016692746
1373663112.5,0.303118,34.737500000000004,90.33333333333333,12.875182291666667,65.03716839939844
1373663112.75,0.30333133333333334,34.73583333333333,90.33166666581333,12.173489583333334,65.0336034261558
1373663113.0,0.30354466666666663,34.73416666666667,90.33,11.751458333333334,65.02783453591303
1373663113.25,0.303811375,34.732499999999995,90.32583333546667,11.638984375000001,65.02206564567025
1373663113.5,0.3041314583333333,34.73083333333333,90.32166666666666,9.840833333333334,65.01629675542749
1373663113.75,0.30445154166666666,34.73,90.31749999786666,9.144895833333333,65.01052786518473
1373663114.0,0.304771625,34.73,90.31333333333333,7.9465625,65.00475897494194
1373663114.25,0.3051450416666666,34.73,90.30416667136001,5.335390625,64.99866991267312
1373663114.5,0.30557179166666665,34.73,90.29500000000002,3.080963541666667,64.99290102243035
1373663114.75,0.3059985416666667,34.73,90.28583332864001,0.20747395833333337,64.98713213218757
1373663115.0,0.3064253333333333,34.73,90.27666666666669,-1.535,64.9813632419448
1373663115.25,0.30685216666666665,34.73,90.26000000853334,-1.8971875,64.97575452283704
1373663115.5,0.307279,34.73,90.24333333333334,-3.1595572916666668,64.97142740012328
1373663115.75,0.30770583333333335,34.73,90.22666665813334,-2.8510156250000005,64.96922348312314
1373663116.0,0.30813266666666667,34.73,90.21,-2.7134375,64.96922348312314
1373663116.25,0.308506125,34.73,90.19083334314666,-2.7643229166666665,64.96922348312314
1373663116.5,0.30882620833333335,34.73,90.17166666666665,-1.2403645833333332,64.96922348312314
1373663116.75,0.3091462916666667,34.73,90.15249999018666,-0.3306249999999999,64.96922348312314
1373663117.0,0.30941304166666667,34.73,90.13333333333333,0.5719791666666667,64.96922348312314
1373663117.25,0.309573125,34.73,90.11333334357333,2.5313281250000004,64.96922348312314
1373663117.5,0.309679875,34.73,90.09333333333333,4.096276041666666,64.96922348312314
1373663117.75,0.30978662500000004,34.73,90.07333332309332,6.066510416666667,64.96922348312314
1373663118.0,0.30984,34.73,90.05333333333333,8.036744791666667,64.96922348312314
1373663118.25,0.30984,34.73,90.03416667648,8.737135416666666,64.96922348312314
1373663118.5,0.30984,34.73,90.015,10.056901041666668,64.96922348312314
1373663118.75,0.30984,34.73,89.99583332352,10.779765625000001,64.96922348312314
1373663119.0,0.30989333333333335,34.73,89.97666666666667,11.085,64.96922348312314
1373663119.25,0.31,34.73,89.95750000981333,11.783385416666668,64.96922348312314
1373663119.5,0.31016,34.73,89.93833333333333,11.742890625000001,64.96922348312314
1373663119.75,0.31037333333333333,34.73,89.91916665685333,11.567916666666667,64.96922348312314
1373663120.0,0.31064004166666664,34.73,89.89999999999999,11.648593749999998,64.96922348312314
1373663120.25,0.31096012500000003,34.73,89.87833334442666,11.049557291666668,64.96922348312314
1373663120.5,0.31133354166666666,34.73,89.85666666666665,10.552604166666667,64.96922348312314
1373663120.75,0.311867,34.73,89.83499998890666,10.547760416666668,64.96922348312314
1373663121.0,0.31250716666666667,34.73,89.81333333333333,9.902760416666668,64.96922348312314
1373663121.25,0.3132006666666667,34.73,89.78666668032,9.422682291666668,64.96922348312314
1373663121.5,0.3140542083333333,34.73,89.75999999999999,9.01015625,64.96922348312314
1373663121.75,0.31506779166666665,34.73,89.73333331968,8.282604166666667,64.96922348312314
1373663122.0,0.3161880833333333,34.73,89.70666666666666,7.634401041666667,64.9716235081048
1373663122.25,0.31752179166666666,34.73,89.6733333504,7.380911458333333,65.00080550320598
1373663122.5,0.3190155416666667,34.73,89.64,6.7371614583333335,65.03010710463478
1373663122.75,0.3206693333333333,34.73083333333333,89.6066666496,6.113984375,65.05948844361534
1373663123.0,0.32258983333333335,34.732499999999995,89.57333333333334,6.231875000000001,65.087871540145
1373663123.25,0.32477704166666665,34.73416666666666,89.53416668672,6.022421875,65.11521652544789
1373663123.5,0.3270709583333334,34.735833333333325,89.495,5.688411458333333,65.14359962197757
1373663123.75,0.3293115,34.7375,89.45583331328001,4.022005208333334,65.17094460728045
