timestamp,EDA,TEMP,HR,BVP,ACC_mag
1373728787.0,1.9436214166666665,28.35,,7.069635416666666,64.42498033102598
1373728787.25,2.021035285714286,28.35,,7.414687499999999,64.41823175397406
1373728787.5,2.0909979375,28.35,,7.673476562499999,64.40103158101064
1373728787.75,2.149944611111111,28.34888888888889,,7.794201388888889,64.38776172154809
1373728788.0,2.200112,28.347,,7.60859375,64.36819093254647
1373728788.25,2.244884227272727,28.345454545454547,,7.3728125,64.34819560579734
1373728788.5,2.2827815,28.344166666666666,,7.176328125,64.3327503168214
1373728788.75,2.3910616250000003,28.342499999999998,,6.896406250000001,64.32652117666792
1373728789.0,2.481139833333333,28.340833333333336,,7.036901041666667,64.30854710565225
1373728789.25,2.553655375,28.339166666666667,,7.203749999999999,64.2660882620272
1373728789.5,2.6075941666666664,28.337500000000002,,6.912682291666667,64.22894497335271
1373728789.75,2.6484491249999995,28.33583333333333,,6.073489583333334,64.20811933383852
1373728790.0,2.675046083333333,28.334166666666665,,5.2093750000000005,64.18503319891126
1373728790.25,2.69502525,28.3325,,4.433541666666668,64.1501734087691
1373728790.5,2.7052550416666663,28.33083333333333,,3.642552083333334,64.12731590247775
1373728790.75,2.712086375,28.330833333333334,,3.0418749999999997,64.11059374053464
1373728791.0,2.7164093333333335,28.332499999999996,,2.796119791666667,64.10660692443022
1373728791.25,2.7179570416666667,28.334166666666665,,2.5415885416666666,64.09986174779287
1373728791.5,2.7189176666666666,28.33583333333333,,2.1419791666666668,64.08828394816578
1373728791.75,2.719878291666667,28.337500000000002,,1.7551822916666666,64.07182142431135
1373728792.0,2.7207855833333334,28.339166666666667,,1.3606770833333333,64.04949703196378
1373728792.25,2.716355875,28.340833333333332,,0.9891666666666667,64.02572577723853
1373728792.5,2.706695958333333,28.3425,,0.7860416666666666,64.00256130829128
1373728792.75,2.693300166666667,28.34416666666667,,0.7577083333333334,63.972394099349266
1373728793.0,2.6804914583333335,28.34583333333333,,0.7768489583333333,63.95183532470611
1373728793.25,2.6692838333333335,28.3475,,0.7871874999999999,63.94038492838135
1373728793.5,2.6575425000000004,28.349166666666672,,0.8063020833333333,63.9233499386007
1373728793.75,2.6433995416666667,28.35,,0.685859375,63.89098632496161
1373728794.0,2.626908333333333,28.35,,0.4331510416666667,63.86421843092768
1373728794.25,2.609776708333333,28.35,,0.2748958333333333,63.839774853372425
1373728794.5,2.5926450833333337,28.35,,0.2652604166666666,63.81968181120552
1373728794.75,2.5755134583333334,28.349166666666665,,0.2425260416666667,63.80566045816507
1373728795.0,2.5583818333333332,28.3475,,0.22796874999999997,63.78720826569009
1373728795.25,2.5442389166666666,28.345833333333335,,0.210546875,63.77331703086947
1373728795.5,2.53655375,28.344166666666666,,0.16289062499999998,63.76510551927256
1373728795.75,2.539755958333333,28.343333333333334,,0.11539062500000001,63.76244848544357
1373728796.0,2.5520309583333334,28.343333333333334,,0.08067708333333333,63.745405081203494
1373728796.25,2.5689699166666666,28.343333333333334,,0.052682291666666665,63.72766673084729
1373728796.5,2.5882571249999997,28.343333333333334,,0.030911458333333336,63.714219619648965
1373728796.75,2.609945958333333,28.344166666666666,,0.017682291666666666,63.72190116480041
1373728797.0,2.6339830416666667,28.34583333333333,55.375,0.016562499999999997,63.72165635084739
1373728797.25,2.6580201249999997,28.3475,55.760416469333336,0.006067708333333332,63.72549653871744
1373728797.5,2.682057208333333,28.349166666666665,56.14583333333333,-0.008776041666666668,63.72860133087388
1373728797.75,2.7037134999999997,28.35166666666667,56.53125019733333,-0.020286458333333337,63.730153726952096
1373728798.0,2.7222743333333335,28.355,56.916666666666664,-0.030572916666666672,63.741471690185335
1373728798.25,2.7382200416666667,28.358333333333334,58.18749934933333,-0.03856770833333333,63.75422058003863
1373728798.5,2.7490422916666666,28.361666666666668,59.45833333333333,-0.0390625,63.761779254427516
1373728798.75,2.7502580416666667,28.364166666666666,60.729167317333335,-0.03885416666666667,63.76733560083775
1373728799.0,2.7407465416666668,28.365833333333338,62.0,-0.03979166666666667,63.784583407950436
1373728799.25,2.7252902083333335,28.367500000000003,63.991665646933335,-0.04080729166666667,63.80215854900462
1373728799.5,2.708926583333333,28.369166666666672,65.98333333333333,-0.04473958333333333,63.817117253955665
1373728799.75,2.691869125,28.36916666666667,67.97500101973334,-0.049296875,63.8200595424354
1373728800.0,2.6741712083333335,28.367500000000003,69.96666666666667,-0.05372395833333333,63.8200595424354
1373728800.25,2.6559396250000002,28.365833333333338,71.70249911125333,-0.05653645833333334,63.8200595424354
1373728800.5,2.6372277499999996,28.364166666666666,73.43833333333333,-0.056171875,63.81662750720463
1373728800.75,2.6205230833333335,28.3625,75.17416755541335,-0.06078125,63.80404090867527
1373728801.0,2.606913875,28.360833333333332,76.91000000000001,-0.07119791666666667,63.78572881885827
1373728801.25,2.5959197916666668,28.359166666666667,77.90416615765334,-0.08447916666666666,63.76741672904126
1373728801.5,2.5874874166666664,28.3575,78.89833333333334,-0.10106770833333334,63.74910463922425
1373728801.75,2.5809229583333333,28.355833333333333,79.89250050901335,-0.118203125,63.730792549407255
1373728802.0,2.576012958333333,28.354166666666668,80.88666666666667,-0.13333333333333333,63.71248045959026
1373728802.25,2.574305125,28.352500000000003,81.00999993685333,-0.14039062500000002,63.69519163332681
1373728802.5,2.577560666666667,28.35083333333333,81.13333333333334,-0.14320312500000001,63.686571123921475
1373728802.75,2.589622208333333,28.35166666666667,81.25666672981333,-0.139765625,63.686571123921475
1373728803.0,2.6160935416666664,28.355,81.38,-0.13270833333333334,63.686571123921475
1373728803.25,2.6507303749999997,28.358333333333334,81.4674999552,-0.13390625,63.68657112392146
1373728803.5,2.6858475,28.361666666666668,81.555,-0.140703125,63.69000315915224
1373728803.75,2.7213382083333335,28.365,81.6425000448,-0.14515625000000001,63.70250814301223
1373728804.0,2.7568289166666666,28.368333333333336,81.73,-0.13877604166666668,63.72077942549455
1373728804.25,2.7923196249999997,28.37166666666667,81.74416665941334,-0.12018229166666666,63.73876505663404
1373728804.5,2.8278103333333333,28.375,81.75833333333334,-0.09546875,63.75691391711229
1373728804.75,2.860846041666667,28.378333333333334,81.77250000725334,-0.07726562499999999,63.77489954825179
1373728805.0,2.8885981666666667,28.381666666666664,81.78666666666668,-0.066484375,63.78650508151489
1373728805.25,2.9086117083333334,28.385,81.75083335168,-0.065703125,63.7813411530372
1373728805.5,2.9196057916666667,28.388333333333335,81.715,-0.06317708333333333,63.76509418829199
1373728805.75,2.919552375,28.39,81.67916664832,-0.05942708333333333,63.74010371695666
1373728806.0,2.90322125,28.39,81.64333333333333,-0.05518229166666666,63.715195243744525
1373728806.25,2.8762696250000004,28.39,81.59750002346667,-0.044583333333333336,63.690204772409196
1373728806.5,2.847877041666667,28.39,81.55166666666666,-0.030338541666666666,63.665337298258656
1373728806.75,2.819484458333333,28.39,81.50583330986666,-0.013697916666666666,63.63767676113465
1373728807.0,2.7910918749999998,28.39,81.46,-0.005104166666666667,63.61387423357334
1373728807.25,2.762699291666667,28.39,81.42916668245333,-0.00859375,63.593635049521616
1373728807.5,2.7343067083333334,28.39,81.39833333333333,-0.014140624999999999,63.575568075611336
1373728807.75,2.7083691250000004,28.39,81.36749998421332,-0.017812500000000002,63.557664331039824
1373728808.0,2.6879819583333333,28.39,81.33666666666666,-0.010208333333333335,63.53583677625128
1373728808.25,2.675813708333333,28.39,81.31833334272,0.0016927083333333332,63.532016090229426
1373728808.5,2.670636875,28.39,81.3,0.015468750000000002,63.534184182608165
1373728808.75,2.6690358333333335,28.390833333333333,81.28166665728,0.021640624999999997,63.53623274021239
1373728809.0,2.670636958333333,28.392500000000002,81.26333333333334,0.0215625,63.52082963212737
1373728809.25,2.6812574999999996,28.394166666666663,81.26166666752,0.031588541666666664,63.50057914811188
1373728809.5,2.7041530416666664,28.395833333333332,81.26,0.049687499999999996,63.480205666911594
1373728809.75,2.7319052083333335,28.397499999999997,81.25833333248,0.06197916666666667,63.46270686335415
1373728810.0,2.7596573749999997,28.39916666666667,81.25666666666667,0.06658854166666667,63.441309242899315
1373728810.25,2.787409541666667,28.400833333333335,81.26499999573335,0.08078125,63.41786627379114
1373728810.5,2.815161708333333,28.4025,81.27333333333334,0.08973958333333333,63.40091987825332
1373728810.75,2.8429138750000003,28.40416666666667,81.28166667093333,0.098515625,63.38282329061243
1373728811.0,2.870399208333333,28.405833333333334,81.29,0.09601562500000001,63.371292734750256
1373728811.25,2.893721708333333,28.4075,81.31499998720001,0.08361979166666667,63.352613286603734
1373728811.5,2.9148560416666665,28.409166666666664,81.34,0.05786458333333333,63.334425812710265
1373728811.75,2.9347095000000003,28.41,81.3650000128,0.03442708333333334,63.34067857750542
1373728812.0,2.9518411249999996,28.41,81.39,0.02502604166666667,63.3806222758474
1373728812.25,2.962942,28.41,81.42416664917333,0.009192708333333332,63.426516068406265
1373728812.5,2.9632088333333333,28.41,81.45833333333334,-0.012968750000000001,63.48539468799297
1373728812.75,2.9586190416666667,28.41,81.49250001749334,0.004869791666666666,63.584906055834274
1373728813.0,2.954296083333334,28.41,81.52666666666667,0.096171875,63.70308134874134
1373728813.25,2.951467458333333,28.41,81.59583329792,0.24583333333333335,63.82980351143427
1373728813.5,2.9492792916666666,28.41,81.66499999999999,0.4302864583333333,63.92833857250336
1373728813.75,2.94826525,28.410833333333333,81.73416670208,0.6180989583333333,64.04211091249307
1373728814.0,2.9491191249999997,28.412500000000005,81.80333333333333,0.8126041666666666,64.17288210180335
1373728814.25,2.956163875,28.414166666666663,81.88833328981333,1.0853125,64.31179270252493
1373728814.5,2.971267458333333,28.415833333333335,81.97333333333333,1.961354166666667,64.43415156645742
1373728814.75,2.9986993749999997,28.4175,82.05833337685333,4.58734375,64.53540749051413
1373728815.0,3.037293791666667,28.419166666666666,82.14333333333333,7.488437500000001,64.6293325596021
1373728815.25,3.0774975833333333,28.420833333333334,82.24166661632,10.3684375,64.73028865956357
1373728815.5,3.1177013749999998,28.4225,82.34,9.594401041666666,64.81605797373415
1373728815.75,3.157905166666667,28.424166666666668,82.43833338368,7.578802083333334,64.85249698297294
1373728816.0,3.1978421249999998,28.425833333333333,82.53666666666668,5.203932291666667,64.87002979785392
1373728816.25,3.23628475,28.4275,82.76916654762667,2.765494791666667,64.86267299601953
1373728816.5,3.2740869166666666,28.429166666666664,83.00166666666667,0.633203125,64.8965162097454
1373728816.75,3.3086869166666664,28.43,83.23416678570668,-0.5642447916666666,64.89997523390741
1373728817.0,3.3395510833333333,28.43,83.46666666666667,-1.4679947916666667,64.89423610117426
1373728817.25,3.365024916666666,28.43,83.81583315456001,-2.6556770833333334,64.87966314007379
1373728817.5,3.380411875,28.43,84.165,-5.010026041666666,64.88327481559831
1373728817.75,3.3841109166666663,28.430833333333336,84.51416684544,-9.711250000000001,64.89064795083233
1373728818.0,3.3786755,28.4325,84.86333333333334,-14.470390625,64.87920552246845
1373728818.25,3.3715239999999995,28.434166666666666,85.29499977898668,-18.6371875,64.85617724181361
1373728818.5,3.3634118333333336,28.43583333333333,85.72666666666666,-18.557526041666666,64.83044156625944
1373728818.75,3.3560468333333326,28.4375,86.15833355434665,-17.110104166666666,64.82393284300535
1373728819.0,3.3486818333333335,28.439166666666665,86.58999999999999,-15.459088541666667,64.81055786599897
1373728819.25,3.3422775,28.440833333333334,86.85083319978666,-14.697760416666666,64.81297767929559
1373728819.5,3.335873166666667,28.4425,87.11166666666665,-15.576796875,64.79089675154627
1373728819.75,3.3314968750000005,28.445000000000004,87.37250013354665,-17.418098958333335,64.78676252873963
1373728820.0,3.3300559166666672,28.448333333333334,87.63333333333333,-19.685130208333334,64.76265123169283
1373728820.25,3.3300559166666672,28.451666666666664,87.70333329749333,-21.345026041666667,64.75017063811664
1373728820.5,3.332457541666667,28.455,87.77333333333334,-20.455312499999998,64.74358664061084
1373728820.75,3.3412635,28.4575,87.84333336917334,-18.169583333333332,64.72914165813755
1373728821.0,3.3591956666666665,28.459166666666665,87.91333333333334,-16.070026041666665,64.72480346268635
1373728821.25,3.383799,28.46083333333333,87.83583337301334,-14.572994791666666,64.72399936848944
1373728821.5,3.4135791666666666,28.462500000000002,87.75833333333334,-14.010703125,64.73316921489483
1373728821.75,3.44544075,28.465,87.68083329365334,-14.0253125,64.73253317809731
1373728822.0,3.4775158333333334,28.46833333333333,87.60333333333334,-13.367760416666664,64.7414148387655
1373728822.25,3.50863025,28.471666666666664,87.44500008106668,-11.643645833333332,64.75137881501534
1373728822.5,3.539744666666667,28.474999999999998,87.28666666666668,-8.613567708333333,64.75982272843422
1373728822.75,3.570859083333333,28.477500000000003,87.12833325226667,-5.670364583333332,64.76661703965672
1373728823.0,3.6009060833333333,28.479166666666668,86.97000000000001,-2.6462760416666664,64.78932560900866
1373728823.25,3.630472791666666,28.480833333333333,86.77833343146668,-0.01989583333333328,64.80598611355093
1373728823.5,3.6559300833333332,28.482499999999998,86.58666666666667,0.6222135416666668,64.81105108894266
1373728823.75,3.6721010833333327,28.484166666666663,86.39499990186667,0.46033854166666677,64.81712082273883
1373728824.0,3.6779183749999995,28.485833333333332,86.20333333333333,0.24929687500000006,64.82290892209876
1373728824.25,3.6771712083333328,28.4875,85.97666678272,0.05213541666666671,64.8276117528287
1373728824.5,3.672207875,28.489166666666666,85.75,0.19533854166666673,64.82254716588876
1373728824.75,3.664415958333333,28.49,85.52333321728,0.7654947916666667,64.81675906652885
1373728825.0,3.6564105416666663,28.49,85.29666666666667,0.7472656249999999,64.80695235702609
1373728825.25,3.648405125,28.49,85.150833408,0.53890625,64.7918381864675
1373728825.5,3.6387452499999995,28.49,85.005,0.31984375000000004,64.78089989279884
1373728825.75,3.628978625,28.49,84.85916659200001,0.20330729166666672,64.76996159913018
1373728826.0,3.6192119999999997,28.49,84.71333333333334,0.1452604166666667,64.75902330546153
1373728826.25,3.609445375,28.49,84.64333336917333,0.10502604166666672,64.74808501179287
1373728826.5,3.603574708333333,28.49,84.57333333333334,0.06747395833333338,64.7371467181242
1373728826.75,3.6003725416666668,28.49083333333333,84.50333329749334,0.012109375000000032,64.72620842445554
1373728827.0,3.583294291666667,28.492499999999996,84.43333333333334,-0.06460937499999997,64.71527013078686
1373728827.25,3.5527669166666667,28.49416666666666,84.49083330389334,-0.14361979166666664,64.7054171057482
1373728827.5,3.5205767916666666,28.495833333333334,84.54833333333335,-0.2146875,64.69993080860215
1373728827.75,3.483948708333333,28.497500000000002,84.60583336277334,-0.30026041666666664,64.63744187293632
1373728828.0,3.4465201249999997,28.499166666666667,84.66333333333334,-0.4595052083333333,64.5339688234104
1373728828.25,3.4090915416666667,28.500833333333333,84.72499996842667,-0.6507552083333333,64.43132951563233
1373728828.5,3.373317416666667,28.502499999999998,84.78666666666668,-0.72609375,64.35351531513149
1373728828.75,3.3376500416666666,28.504166666666666,84.84833336490668,-0.6444270833333333,64.27839549928774
1373728829.0,3.305024708333333,28.50583333333334,84.91000000000001,-0.5497916666666666,64.20005085816817
1373728829.25,3.2723993749999996,28.507500000000004,84.97083330218668,-0.5853645833333333,64.10832871633932
1373728829.5,3.24367,28.50916666666667,85.03166666666668,-0.6950781249999999,64.02106988327391
1373728829.75,3.2183562916666664,28.510833333333334,85.09250003114667,-0.72453125,63.94186811306406
1373728830.0,3.20974725,28.512500000000003,85.15333333333334,-0.5589322916666667,63.8696492370998
1373728830.25,3.216935583333333,28.51416666666667,85.10416669184,-0.3985937499999999,63.797879352181724
1373728830.5,3.226693958333333,28.515833333333333,85.055,-0.345859375,63.7275473583112
1373728830.75,3.241050416666667,28.517500000000002,85.00583330815999,-0.31716145833333326,63.71421800296046
1373728831.0,3.2567944166666667,28.519166666666667,84.95666666666666,-0.1733333333333333,63.740502212983664
1373728831.25,3.274673166666666,28.520833333333332,84.85916671658666,0.012734375000000029,63.74682566335992
1373728831.5,3.296661375,28.522500000000004,84.76166666666666,0.08859375000000003,63.72058250916944
1373728831.75,3.3243150416666665,28.524166666666662,84.66416661674667,0.019921875000000023,63.69164497032185
1373728832.0,3.354592125,28.525833333333335,84.56666666666666,-0.049739583333333316,63.665932256750104
1373728832.25,3.3863101666666666,28.527500000000003,84.42750007125333,-0.004479166666666646,63.653597043887636
1373728832.5,3.41413225,28.52916666666667,84.28833333333333,0.1261979166666667,63.63679852226173
1373728832.75,3.438752125,28.530833333333337,84.14916659541333,0.20257812500000005,63.61194293778025
1373728833.0,3.461770916666667,28.5325,84.01,0.10585937500000002,63.58010445905319
1373728833.25,3.4824414583333336,28.534166666666668,83.91916671317334,0.030625000000000038,63.547816989279944
1373728833.5,3.5022047083333336,28.535833333333333,83.82833333333333,0.056770833333333375,63.51442773129646
1373728833.75,3.519032625,28.537499999999998,83.73749995349333,0.1113541666666667,63.481038473312964
1373728834.0,3.5319645833333335,28.53916666666667,83.64666666666666,0.13054687500000003,63.4506291995371
1373728834.25,3.540039958333333,28.540833333333335,83.59500002645333,0.1507291666666667,63.4428877022476
1373728834.5,3.541070583333333,28.5425,83.54333333333332,0.16914062500000002,63.4428877022476
1373728834.75,3.5331801666666665,28.545,83.49166664021332,0.19359375000000004,63.4428877022476
1373728835.0,3.5174895000000004,28.548333333333332,83.44,0.19257812500000002,63.4428877022476
1373728835.25,3.500357875,28.551666666666666,83.42500000768,0.2029427083333334,63.4428877022476
1373728835.5,3.48322625,28.555000000000003,83.41,0.20609375000000005,63.4428877022476
1373728835.75,3.466094625,28.5575,83.39499999232,0.2021354166666667,63.4428877022476
1373728836.0,3.4489630000000004,28.55916666666667,83.38,0.20908854166666668,63.4428877022476
1373728836.25,3.431831375,28.560833333333335,83.36333334186666,0.21393229166666672,63.442435871745424
1373728836.5,3.4161407500000003,28.5625,83.34666666666666,0.21434895833333337,63.442435871745424
1373728836.75,3.407014583333334,28.564166666666665,83.32999999146666,0.21497395833333335,63.442435871745424
1373728837.0,3.4033855,28.56583333333333,83.31333333333333,0.22151041666666668,63.45080072166803
1373728837.25,3.405200083333334,28.567500000000006,83.29333334357334,0.2365104166666667,63.46195385489818
1373728837.5,3.412298208333334,28.56916666666667,83.27333333333334,0.24486979166666667,63.473352708582716
1373728837.75,3.422812041666667,28.57,83.25333332309333,0.23820312500000004,63.4860619296588
1373728838.0,3.4355673749999998,28.57,83.23333333333333,0.2432291666666667,63.49823882726631
1373728838.25,3.4499771666666668,28.57,83.20833334613333,0.23664062500000002,63.513036034561246
1373728838.5,3.470791333333333,28.57,83.18333333333334,0.22216145833333337,63.52828358765734
1373728838.75,3.4955548333333333,28.57,83.15833332053333,0.1896354166666667,63.546965846771634
1373728839.0,3.5203183333333334,28.57,83.13333333333333,0.12942708333333336,63.581574096209174
1373728839.25,3.545081833333333,28.57,83.10583334741332,0.06958333333333337,63.62950866044033
1373728839.5,3.5684043333333335,28.57,83.07833333333332,0.0069010416666667,63.678050133759236
1373728839.75,3.5879375833333333,28.57,83.05083331925333,-0.07088541666666663,63.737272610353415
1373728840.0,3.605282666666666,28.57,83.02333333333333,-0.16671874999999994,63.80038038825922
1373728840.25,3.6171840416666665,28.57,83.00083334485333,-0.40578125,63.8640200489418
1373728840.5,3.624228791666667,28.57,82.97833333333332,-1.1544010416666666,63.929922830733496
1373728840.75,3.6305797500000003,28.57,82.95583332181333,-2.570703125,63.99366565509731
1373728841.0,3.6368240000000003,28.57,82.93333333333334,-3.9936979166666666,64.05757656032866
1373728841.25,3.641413791666667,28.57,82.91250001066668,-5.412994791666666,64.11793648730911
1373728841.5,3.6395992083333333,28.57,82.89166666666668,-6.824583333333333,64.17671267919313
1373728841.75,3.633835291666667,28.570833333333336,82.87083332266667,-8.146927083333333,64.23100170768386
1373728842.0,3.6280713749999998,28.5725,82.85000000000001,-8.794609374999999,64.26887886083323
1373728842.25,3.623748416666667,28.574166666666667,82.82583334570667,-8.988046875,64.29380054885479
1373728842.5,3.6242820833333336,28.575833333333332,82.80166666666668,-9.035729166666666,64.31766349728642
1373728842.75,3.6324476249999997,28.576666666666664,82.77749998762667,-9.06859375,64.3308454424428
1373728843.0,3.6475511666666662,28.576666666666668,82.75333333333333,-9.048489583333334,64.33177723636491
1373728843.25,3.668258541666667,28.576666666666668,82.72000001706667,-8.844713541666666,64.3294293546209
1373728843.5,3.6914742916666667,28.576666666666668,82.68666666666667,-8.036901041666667,64.32509900674968
1373728843.75,3.7152237083333337,28.5775,82.65333331626665,-6.537708333333332,64.32169922975116
1373728844.0,3.738973125,28.57916666666667,82.61999999999999,-5.079999999999999,64.31846124326277
1373728844.25,3.762722541666667,28.58083333333333,82.58083335338665,-3.650416666666666,64.31635637742876
1373728844.5,3.7864719583333333,28.582499999999996,82.54166666666666,-2.2498697916666663,64.31635637742878
1373728844.75,3.8092607500000004,28.583333333333332,82.50249997994666,-0.9326041666666667,64.31987750350638
1373728845.0,3.830021458333334,28.583333333333332,82.46333333333332,-0.22911458333333332,64.32623102329256
1373728845.25,3.84790025,28.583333333333332,82.42833335125333,-0.0008593749999999831,64.33278684860854
1373728845.5,3.8599617916666666,28.583333333333332,82.39333333333333,0.10830729166666668,64.34601151386502
1373728845.75,3.863217291666667,28.584166666666665,82.35833331541333,0.18677083333333336,64.35737694355197
1373728846.0,3.8575601250000005,28.58583333333333,82.32333333333334,0.16690104166666672,64.36369010485043
1373728846.25,3.846566041666667,28.587499999999995,82.29500001450667,0.00622395833333336,64.36648230093343
1373728846.5,3.833490541666667,28.589166666666667,82.26666666666667,-0.2658333333333333,64.36530766776774
1373728846.75,3.815771875,28.590833333333336,82.23833331882666,-0.497578125,64.37011946556784
1373728847.0,3.7919690833333335,28.592499999999998,82.21,-0.6279947916666666,64.38645227144839
1373728847.25,3.7654978333333333,28.594166666666666,82.19416667477333,-0.7418489583333333,64.40355096320152
1373728847.5,3.7383327916666667,28.595833333333335,82.17833333333333,-0.7853125,64.41943638820636
1373728847.75,3.7121283750000003,28.5975,82.16249999189333,-0.7894270833333333,64.43458763456577
1373728848.0,3.6879520416666662,28.599166666666665,82.14666666666666,-0.78796875,64.44626333863928
1373728848.25,3.6652166666666672,28.60083333333333,82.13500000597332,-0.7414322916666666,64.45781771801936
1373728848.5,3.6434419166666667,28.602500000000003,82.12333333333333,-0.6920052083333333,64.46270325745893
1373728848.75,3.6228413333333336,28.604166666666668,82.11166666069334,-0.5023177083333333,64.4711415828612
1373728849.0,3.6046957083333333,28.605833333333333,82.10000000000001,-0.21986979166666662,64.49084186142689
1373728849.25,3.589271875,28.607499999999998,82.08916667221334,0.16708333333333336,64.51551418270624
1373728849.5,3.575929458333333,28.609166666666667,82.07833333333335,0.6096354166666668,64.54326442347705
1373728849.75,3.5665364166666667,28.611666666666665,82.06749999445334,0.9932291666666666,64.56506809721937
1373728850.0,3.5632275,28.615,82.05666666666667,1.2473958333333333,64.57535123249532
1373728850.25,3.5625870416666667,28.618333333333336,82.04416667306667,1.41859375,64.58192458352234
1373728850.5,3.563654375,28.621666666666666,82.03166666666667,1.4940104166666668,64.5959491279536
1373728850.75,3.5653621666666666,28.624999999999996,82.01916666026666,1.4936458333333336,64.6070291537159
1373728851.0,3.5658958333333337,28.628333333333334,82.00666666666666,1.4466406250000003,64.6115420820666
1373728851.25,3.56530875,28.631666666666664,81.99750000469332,1.2632812500000001,64.60927793317573
1373728851.5,3.563173916666667,28.635,81.98833333333332,0.8302083333333332,64.59058605306393
1373728851.75,3.5593312499999996,28.638333333333332,81.97916666197332,0.2850260416666667,64.56997016925236
1373728852.0,3.5547414583333334,28.641666666666666,81.96999999999998,-0.18861979166666665,64.50347578767993
1373728852.25,3.5490842916666665,28.645,81.96250000383999,-0.5805208333333333,64.41557770857425
1373728852.5,3.5432670416666667,28.64833333333333,81.95499999999998,-1.0020833333333334,64.33184830630415
1373728852.75,3.538944125,28.65,81.94749999615999,-1.4175260416666664,64.24512174400222
1373728853.0,3.5346212083333337,28.65,81.94,-1.72046875,64.1185974936399
1373728853.25,3.529551125,28.65,81.93333333674667,-1.8909114583333333,63.99586212510139
1373728853.5,3.5229867083333333,28.65,81.92666666666668,-2.015494791666667,63.864269371001306
1373728853.75,3.5157284583333333,28.650833333333335,81.91999999658667,-2.0843229166666664,63.72781916458273
1373728854.0,3.5096443333333336,28.6525,81.91333333333334,-2.145234375,63.60100581557143
1373728854.25,3.50436075,28.65416666666667,81.90750000298667,-2.054140625,63.47617748291356
1373728854.5,3.5006249166666663,28.655833333333334,81.90166666666667,-1.72265625,63.374548222146046
1373728854.75,3.498596916666667,28.656666666666666,81.89583333034668,-1.3960937500000001,63.27624704754303
1373728855.0,3.4968357500000002,28.656666666666666,81.89,-1.1678385416666666,63.22190443203399
1373728855.25,3.495875125000001,28.656666666666666,81.92416664917333,-1.0150260416666665,63.181328923810604
1373728855.5,3.4947543750000007,28.656666666666666,81.95833333333333,-0.854453125,63.13946317645445
1373728855.75,3.4916589583333337,28.656666666666666,81.99250001749333,-0.6756510416666665,63.10249423966129
1373728856.0,3.4843473333333335,28.656666666666666,82.02666666666666,-0.5416145833333333,63.108494516655846
1373728856.25,3.472285791666667,28.656666666666666,82.08916663466665,-0.45013020833333334,63.1098182391627
1373728856.5,3.457395666666667,28.656666666666666,82.15166666666666,-0.34346354166666665,63.11113955218352
1373728856.75,3.438769666666667,28.655833333333334,82.21416669866666,-0.23851562499999998,63.122446937331
1373728857.0,3.4182223750000005,28.654166666666665,82.27666666666666,-0.1292708333333333,63.133132862547114
1373728857.25,3.397995291666667,28.6525,82.33916663466665,-0.06596354166666665,63.15499288543085
1373728857.5,3.377768208333334,28.650833333333335,82.40166666666666,-0.017005208333333317,63.17061816186281
1373728857.75,3.3575411249999996,28.650833333333335,82.46416669866666,0.04408854166666668,63.19560155945666
1373728858.0,3.337314041666667,28.6525,82.52666666666666,0.049791666666666685,63.21761009319784
1373728858.25,3.320876208333333,28.654166666666665,82.54583332351999,0.06281250000000001,63.247487442161905
1373728858.5,3.3080675,28.655833333333334,82.565,0.11359375000000001,63.27254985472134
1373728858.75,3.2975003333333337,28.657500000000002,82.58416667648,0.07729166666666669,63.29764353753249
1373728859.0,3.292857208333334,28.659166666666664,82.60333333333332,0.05085937500000001,63.32182009411614
1373728859.25,3.298140833333333,28.660833333333333,82.53583336789333,0.05872395833333335,63.36633319965215
1373728859.5,3.3103624999999997,28.662499999999998,82.46833333333333,0.10208333333333336,63.41151496674976
1373728859.75,3.3270672083333337,28.66416666666667,82.40083329877332,0.18315104166666665,63.44598636948413
1373728860.0,3.345693208333333,28.665833333333335,82.33333333333333,0.13401041666666666,63.47803365155146
1373728860.25,3.3643192083333333,28.6675,82.26250003626666,0.01661458333333334,63.499803123292715
1373728860.5,3.3829452083333336,28.66916666666667,82.19166666666666,-0.12372395833333331,63.525008610554444
1373728860.75,3.401571208333333,28.67,82.12083329706667,-0.31854166666666667,63.52997581369569
1373728861.0,3.4198769999999996,28.67,82.05,-0.3975,63.53555320879253
1373728861.25,3.434553625,28.67,81.97916670293333,-0.4878385416666667,63.53895712595519
1373728861.5,3.445814625,28.67,81.90833333333333,-0.62765625,63.54318419770505
1373728861.75,3.45558125,28.670833333333334,81.83749996373334,-0.6869010416666668,63.544867332131425
1373728862.0,3.463159708333333,28.672500000000003,81.76666666666667,-0.8089322916666667,63.54285576449584
1373728862.25,3.4637467500000003,28.674166666666668,81.745833344,-1.0961979166666667,63.51818306479938
1373728862.5,3.4585698750000002,28.675833333333333,81.725,-1.9458072916666664,63.497284535676876
1373728862.75,3.4501908333333335,28.6775,81.704166656,-3.509088541666667,63.4759057709124
1373728863.0,3.438663,28.67916666666667,81.68333333333334,-4.954739583333333,63.456248555632804
1373728863.25,3.425373958333333,28.680833333333336,81.65583334741333,-6.269739583333333,63.44599028569463
1373728863.5,3.4045064583333335,28.6825,81.62833333333333,-7.280885416666666,63.431513535770144
1373728863.75,3.3799564583333335,28.685,81.60083331925334,-7.368046875,63.420672229871855
1373728864.0,3.355513166666667,28.688333333333336,81.57333333333334,-7.472317708333333,63.404821860261194
1373728864.25,3.3309097916666666,28.691666666666666,81.52583335765334,-7.589401041666665,63.39279162158513
1373728864.5,3.306413125,28.695000000000004,81.47833333333332,-7.670520833333332,63.390572736710915
1373728864.75,3.2823434166666665,28.69666666666667,81.43083330901332,-7.463776041666667,63.39504309482027
1373728865.0,3.2587540416666667,28.69666666666667,81.38333333333333,-6.821328124999998,63.40459603827213
1373728865.25,3.2377264166666664,28.69666666666667,81.31916669952,-6.007812499999999,63.41518559262365
1373728865.5,3.2261985833333333,28.69666666666667,81.255,-4.674062499999999,63.429046564618574
1373728865.75,3.224810958333333,28.6975,81.19083330048,-2.8405989583333326,63.45656589496539
1373728866.0,3.229934416666667,28.69916666666667,81.12666666666667,-1.448359375,63.48514424973086
1373728866.25,3.237299416666667,28.700833333333335,81.05000003925333,-0.4700260416666668,63.49827247630004
1373728866.5,3.2531501666666665,28.7025,80.97333333333333,0.5549999999999998,63.51794676789461
1373728866.75,3.2773265833333336,28.703333333333337,80.89666662741332,1.1342447916666665,63.54913703489694
1373728867.0,3.307907333333333,28.703333333333333,80.82,2.0856510416666665,63.58426929950652
1373728867.25,3.3415301250000002,28.703333333333333,80.74833337002666,1.766484375,63.617134271502955
1373728867.5,3.377341083333333,28.703333333333337,80.67666666666666,0.3670052083333332,63.640928196765834
1373728867.75,3.4145930416666666,28.705,80.60499996330667,-1.4559895833333336,63.65435570366455
1373728868.0,3.4522185833333334,28.708333333333332,80.53333333333333,-3.595677083333334,63.65366019543123
1373728868.25,3.4913384583333333,28.71166666666667,80.46500003498667,-5.3621614583333335,63.6663955647983
1373728868.5,3.5236270416666664,28.715,80.39666666666668,-6.177395833333333,63.672330501183886
1373728868.75,3.5482837916666665,28.71666666666667,80.32833329834666,-6.571796875,63.667254623582714
1373728869.0,3.5695782499999997,28.716666666666665,80.26,-6.451067708333333,63.65788378761102
1373728869.25,3.5903923750000004,28.71666666666667,80.18666670421334,-5.959869791666667,63.65845990804081
1373728869.5,3.6102992083333327,28.71666666666667,80.11333333333333,-5.828046875000001,63.65273583369341
1373728869.75,3.6239617916666664,28.7175,80.03999996245332,-6.151692708333333,63.63964287001275
1373728870.0,3.6314335416666665,28.719166666666666,79.96666666666665,-6.909453125,63.62569189822623
1373728870.25,3.633728458333333,28.720833333333335,79.89000003925332,-6.392682291666667,63.610637773160754
1373728870.5,3.6304729166666667,28.7225,79.81333333333333,-4.805052083333334,63.59631921946255
1373728870.75,3.621400083333333,28.723333333333333,79.73666662741334,-3.089765625,63.58617001291191
1373728871.0,3.6077374999999994,28.723333333333333,79.66000000000001,-1.457630208333333,63.58670352118972
1373728871.25,3.58863125,28.723333333333333,79.57666670933334,-0.23164062499999996,63.578723243025344
1373728871.5,3.5660025833333333,28.723333333333333,79.49333333333334,0.05072916666666668,63.57147953991639
1373728871.75,3.543373916666667,28.724166666666665,79.40999995733334,0.08593750000000001,63.56886030125127
1373728872.0,3.5207452499999996,28.725833333333338,79.32666666666667,0.04203125000000002,63.56886030125127
1373728872.25,3.498116583333333,28.727499999999996,79.243333376,-0.007760416666666647,63.56886030125127
1373728872.5,3.475487916666667,28.729166666666668,79.16,-0.020364583333333314,63.56886030125127
1373728872.75,3.4544603333333335,28.730833333333333,79.076666624,-0.0029687499999999805,63.56886030125127
1373728873.0,3.4342332916666667,28.7325,78.99333333333333,0.030052083333333354,63.56886030125127
1373728873.25,3.4192898333333335,28.734166666666667,78.89916671488,0.060468750000000016,63.56886030125127
1373728873.5,3.409363125,28.735833333333332,78.80499999999999,0.06031250000000002,63.56886030125127
1373728873.75,3.404293041666667,28.7375,78.71083328511999,0.05888020833333335,63.56886030125127
1373728874.0,3.4034391250000002,28.739166666666666,78.61666666666666,0.08013020833333336,63.56898319187249
1373728874.25,3.4065345416666664,28.74083333333333,78.51583338495999,0.10101562500000001,63.57336444770335
1373728874.5,3.412618666666667,28.742500000000003,78.41499999999999,0.1115885416666667,63.58044682286004
1373728874.75,3.418702791666666,28.745,78.31416661504,0.11541666666666668,63.58654716586565
1373728875.0,3.4247869166666667,28.74833333333333,78.21333333333332,0.12820312500000003,63.59375229504122
1373728875.25,3.4300171249999996,28.75166666666667,78.09916672511999,0.1347135416666667,63.6009574242168
1373728875.5,3.4328990833333335,28.755,77.98499999999999,0.13541666666666669,63.60816255339238
1373728875.75,3.4336996249999996,28.757499999999997,77.87083327488,0.12585937500000002,63.61536768256796
1373728876.0,3.432632208333333,28.75916666666667,77.75666666666666,0.11091145833333334,63.62257281174354
1373728876.25,3.4284160000000004,28.760833333333334,77.5858334208,0.10312500000000002,63.629777940919105
1373728876.5,3.4225453333333333,28.7625,77.41499999999999,0.11195312500000003,63.636983070094686
1373728876.75,3.4159274583333334,28.764166666666668,77.2441665792,0.10804687500000003,63.64418819927027
1373728877.0,3.408936,28.765833333333333,77.07333333333334,0.11325520833333336,63.65163842748118
1373728877.25,3.400663708333333,28.7675,76.84833344853334,0.11953125000000003,63.65703822842189
1373728877.5,3.3910572083333332,28.769166666666667,76.62333333333333,0.12213541666666668,63.66304881694586
1373728877.75,3.380543416666667,28.77,76.39833321813333,0.1269791666666667,63.67004143762092
1373728878.0,3.3700296250000004,28.77,76.17333333333333,0.14434895833333336,63.67592927212601
1373728878.25,3.3603697500000003,28.77,75.89750014122667,0.173828125,63.681817106631094
1373728878.5,3.3547659583333336,28.77,75.62166666666667,0.2026041666666667,63.68770494113619
1373728878.75,3.352898,28.77,75.34583319210667,0.23380208333333338,63.693837875581856
1373728879.0,3.352631125,28.77,75.07000000000001,0.26375,63.71077307262336
1373728879.25,3.3518305833333333,28.77,74.84916677973334,0.28578125000000004,63.717273694664385
1373728879.5,3.3493756250000004,28.77,74.62833333333333,0.30302083333333335,63.72442794166995
1373728879.75,3.3448392916666667,28.771666666666665,74.40749988693334,0.316015625,63.73035653812326
1373728880.0,3.340569791666667,28.775000000000002,74.18666666666667,0.30348958333333337,63.73775550752782
1373728880.25,3.339929375,28.778333333333336,74.0283334144,0.24484375000000003,63.744498964343
1373728880.5,3.3423843333333334,28.781666666666666,73.87,0.16911458333333337,63.75033854348582
1373728880.75,3.346333625,28.784999999999997,73.7116665856,0.10697916666666667,63.74964332651166
1373728881.0,3.3504964166666666,28.78833333333333,73.55333333333333,0.01572916666666668,63.74539110193299
1373728881.25,3.354765958333333,28.791666666666668,73.46250004650666,-0.08874999999999998,63.74277509291278
1373728881.5,3.3595692083333333,28.794999999999998,73.37166666666667,-0.1889583333333333,63.736721473495074
1373728881.75,3.370029666666667,28.7975,73.28083328682666,-0.2709375,63.720062044749085
1373728882.0,3.3850799166666667,28.799166666666668,73.19,-0.335390625,63.688295767825586
1373728882.25,3.400663833333333,28.80083333333333,73.13666669397334,-0.39734374999999994,63.66844076456437
1373728882.5,3.4179021666666665,28.8025,73.08333333333334,-0.46156249999999993,63.64497873901498
1373728882.75,3.43748875,28.802499999999995,73.02999997269333,-0.5093229166666667,63.622004014686915
1373728883.0,3.457182083333334,28.80083333333333,72.97666666666667,-0.5409895833333334,63.59719092775105
1373728883.25,3.474527166666667,28.799166666666665,72.95666667690666,-0.523515625,63.571194590130595
1373728883.5,3.4880830416666666,28.7975,72.93666666666667,-0.473828125,63.542421048607935
1373728883.75,3.4972092499999996,28.795833333333334,72.91666665642667,-0.42859374999999994,63.52092065253317
1373728884.0,3.502386083333333,28.79416666666667,72.89666666666666,-0.353515625,63.506299836052044
1373728884.25,3.505214666666667,28.7925,72.90499999573333,-0.2620833333333333,63.48893528001607
1373728884.5,3.505214666666667,28.790833333333335,72.91333333333333,-0.175703125,63.4750083343776
1373728884.75,3.4967289166666666,28.790833333333335,72.92166667093333,-0.11296874999999997,63.46836556619982
1373728885.0,3.483119708333333,28.7925,72.93,-0.07710937499999998,63.467626222312184
1373728885.25,3.4695104999999997,28.794166666666666,72.93833332906668,-0.04466145833333332,63.45945683119641
1373728885.5,3.4559012916666667,28.79583333333333,72.94666666666667,-0.00192708333333332,63.46236918365229
1373728885.75,3.4422920833333333,28.7975,72.95500000426667,0.046458333333333345,63.46400983264069
1373728886.0,3.429857,28.799166666666665,72.96333333333334,0.08135416666666669,63.45887585460218
1373728886.25,3.418275833333333,28.80083333333333,72.90083336533334,0.08007812500000001,63.45062067401733
1373728886.5,3.4094165000000003,28.8025,72.83833333333334,0.02664062500000002,63.451599547154416
1373728886.75,3.4055205416666667,28.804166666666664,72.77583330133334,-0.06041666666666665,63.45799551069617
1373728887.0,3.4066413333333334,28.80583333333333,72.71333333333334,-0.19479166666666667,63.44703433419667
1373728887.25,3.4117114166666673,28.8075,72.57916673536,-0.35684895833333335,63.4397672455921
1373728887.5,3.4190229999999997,28.809166666666666,72.44500000000001,-0.47156249999999994,63.42892784234906
1373728887.75,3.4287895833333337,28.81083333333333,72.31083326464001,-0.5236197916666666,63.42116497103302
1373728888.0,3.440904416666667,28.812499999999996,72.17666666666668,-0.5694791666666666,63.42005376601989
1373728888.25,3.4562214583333337,28.814166666666665,71.97583343616,-0.6313802083333333,63.43760613296083
1373728888.5,3.472819375,28.815833333333334,71.775,-0.7209895833333332,63.445101773940564
1373728888.75,3.489417291666667,28.8175,71.57416656384001,-0.818515625,63.446360781888195
1373728889.0,3.5048410833333334,28.819166666666664,71.37333333333333,-0.8660156250000001,63.45706073441696
1373728889.25,3.5194109583333333,28.820833333333336,71.22916674048,-0.8567447916666665,63.4789645162557
1373728889.5,3.5332870416666666,28.8225,71.08500000000001,-0.7786979166666667,63.479861776497614
1373728889.75,3.5460423750000003,28.825,70.94083325952,-0.6615885416666666,63.46730006931665
1373728890.0,3.5555955000000004,28.828333333333333,70.79666666666667,-0.5158072916666666,63.485267408006365
1373728890.25,3.560985833333333,28.831666666666663,70.71416670890666,-0.3784635416666666,63.502043278268125
1373728890.5,3.5610925833333336,28.834999999999997,70.63166666666666,-0.30632812499999995,63.52267806615626
1373728890.75,3.5565561666666663,28.837500000000002,70.54916662442666,-0.27682291666666664,63.54355851374834
1373728891.0,3.5496715,28.839166666666667,70.46666666666665,-0.22393229166666664,63.55565619363721
1373728891.25,3.539584625,28.840833333333336,70.43833334783999,-0.15247395833333333,63.555043650138316
1373728891.5,3.528216875,28.8425,70.41,-0.06880208333333332,63.55635948635264
1373728891.75,3.5168491250000002,28.844166666666666,70.38166665216,0.01179687500000002,63.566003894965434
1373728892.0,3.505481375,28.845833333333335,70.35333333333334,0.04945312500000002,63.57302292930799
1373728892.25,3.4957147083333333,28.8475,70.32166668288001,0.06080729166666669,63.57146733236948
1373728892.5,3.4881362083333336,28.849166666666665,70.29,0.04861979166666669,63.582053377971334
1373728892.75,3.480557708333333,28.85,70.25833331712,0.023802083333333352,63.599942951260466
1373728893.0,3.4749005416666665,28.85,70.22666666666667,0.002109375000000019,63.601338046731065
1373728893.25,3.4716983750000003,28.85,70.16583336448001,0.0073958333333333515,63.60133804673108
1373728893.5,3.472125333333333,28.85,70.105,0.03716145833333335,63.58915564477538
1373728893.75,3.4759145833333336,28.85,70.04416663552,0.050729166666666686,63.576277638154345
1373728894.0,3.4781027499999997,28.85,69.98333333333333,0.04276041666666669,63.576646127710234
1373728894.25,3.4802909166666667,28.85,69.90333337429334,0.036536458333333355,63.577260276970044
1373728894.5,3.4824790833333332,28.85,69.82333333333334,0.030833333333333355,63.577260276970044
1373728894.75,3.4846672500000007,28.850833333333338,69.74333329237334,0.022864583333333355,63.57611208299452
1373728895.0,3.4868554166666663,28.852500000000003,69.66333333333334,0.025520833333333354,63.57598925314255
1373728895.25,3.4874425000000002,28.85416666666667,69.56750004906667,0.02513020833333335,63.576439629266424
1373728895.5,3.487175666666666,28.855833333333337,69.47166666666666,0.01703125000000002,63.576971891958266
1373728895.75,3.4898975416666667,28.8575,69.37583328426668,0.025338541666666686,63.58249580915791
1373728896.0,3.493793541666667,28.85916666666667,69.28,0.03906250000000002,63.586587954407804
1373728896.25,3.498436708333333,28.860833333333332,69.19083337898667,0.042135416666666696,63.59550589413834
1373728896.5,3.5033467083333334,28.862499999999997,69.10166666666666,0.03382812500000002,63.61615665519406
1373728896.75,3.5084701666666667,28.864166666666666,69.01249995434667,0.03440104166666669,63.63684757647357
1373728897.0,3.515194708333334,28.86583333333333,68.92333333333333,0.035520833333333356,63.64012098784972
1373728897.25,3.52191925,28.867500000000003,68.85333336917333,0.01742187500000002,63.64249413705213
1373728897.5,3.528430333333333,28.86916666666667,68.78333333333333,0.014635416666666687,63.64723987100518
1373728897.75,3.534941416666667,28.870833333333334,68.71333329749334,0.016041666666666687,63.655587749829415
1373728898.0,3.541185666666667,28.872500000000002,68.64333333333333,0.012395833333333354,63.65283917338167
1373728898.25,3.545188375,28.874166666666667,68.59333335893334,0.017890625000000018,63.651772835625145
1373728898.5,3.543587291666667,28.875833333333333,68.54333333333332,0.02234375000000002,63.62948934063517
1373728898.75,3.538303708333333,28.877499999999998,68.49333330773332,0.005859375000000017,63.60061395971059
1373728899.0,3.5300314166666666,28.879166666666663,68.44333333333333,-0.022968749999999982,63.566026189393966
1373728899.25,3.5188771666666665,28.88083333333334,68.41166668288,-0.05054687499999999,63.482964289197184
1373728899.5,3.504307291666667,28.882500000000004,68.38,-0.08015624999999998,63.39162965808296
1373728899.75,3.4873357916666667,28.883333333333336,68.34833331712001,-0.16361979166666665,63.310550656232714
1373728900.0,3.4680077500000004,28.883333333333336,68.31666666666668,-0.29026041666666663,63.23683011471593
1373728900.25,3.4499072083333338,28.883333333333336,68.29166667946667,-0.3988802083333333,63.17197642596688
1373728900.5,3.4320201250000006,28.883333333333336,68.26666666666667,-0.49533854166666663,63.10267036991524
1373728900.75,3.4141330416666666,28.882500000000004,68.24166665386666,-0.6940624999999999,63.0235281222544
1373728901.0,3.394956791666667,28.88083333333334,68.21666666666665,-1.0937499999999998,62.959477950452275
1373728901.25,3.376696125,28.879166666666666,68.19833334271999,-1.6080729166666663,62.858331779278366
1373728901.5,3.3625449166666663,28.8775,68.17999999999999,-2.1991666666666667,62.800077144761694
1373728901.75,3.3453967500000004,28.87666666666667,68.16166665728,-2.9359374999999996,62.74484405276663
1373728902.0,3.324672833333333,28.876666666666665,68.14333333333333,-3.7665885416666662,62.69787676313667
1373728902.25,3.3110470833333334,28.876666666666665,68.13500000426666,-4.456354166666666,62.70429878809227
1373728902.5,3.30419925,28.87666666666667,68.12666666666667,-5.1089843749999995,62.75815344622299
1373728902.75,3.3001266249999994,28.8775,68.11833332906667,-5.64421875,62.76512954285007
1373728903.0,3.299264458333333,28.879166666666666,68.11,-6.107421875,62.87269367254246
1373728903.25,3.2971747916666665,28.88083333333333,68.09666667349333,-6.818645833333334,62.98788448384008
1373728903.5,3.295085125,28.882500000000004,68.08333333333333,-7.915755208333334,63.07441333476354
1373728903.75,3.292995458333333,28.88416666666667,68.06999999317333,-9.04421875,63.1833566678084
1373728904.0,3.295618875,28.885833333333334,68.05666666666666,-9.973177083333335,63.29390778765591
1373728904.25,3.3021833750000003,28.8875,68.04416667306666,-10.768046874999998,63.45145543580622
1373728904.5,3.3114080416666667,28.889166666666668,68.03166666666667,-11.031328125000002,63.55514048947555
1373728904.75,3.3271069583333333,28.89,68.01916666026666,-10.947708333333333,63.64116966243653
1373728905.0,3.3499656666666664,28.89,68.00666666666666,-10.49390625,63.72202996951512
1373728905.25,3.369568791666667,28.89,67.99250000725333,-10.109739583333333,63.793026558538934
1373728905.5,3.3868236666666665,28.89,67.97833333333332,-9.617421875,63.82379784828348
1373728905.75,3.406213375,28.89,67.96416665941334,-9.177734375,63.888735647455626
1373728906.0,3.425389583333333,28.89,67.95,-8.740651041666666,63.846498245207506
1373728906.25,3.4445657916666668,28.89,67.94166667093333,-8.003828125,63.78793016601913
1373728906.5,3.463742,28.89,67.93333333333334,-6.876536458333334,63.76096385153523
1373728906.75,3.482918208333334,28.890833333333333,67.92499999573334,-5.591848958333333,63.71863753655694
1373728907.0,3.4989373333333336,28.892500000000002,67.91666666666667,-4.299088541666667,63.669641506781716
1373728907.25,3.512341333333333,28.894166666666667,67.90166667434667,-3.0322656250000004,63.60873526951966
1373728907.5,3.520523375,28.895833333333332,67.88666666666667,-2.2075260416666667,63.58161546933595
1373728907.75,3.52304,28.897499999999997,67.87166665898667,-1.5882291666666666,63.571549671813294
1373728908.0,3.5212788333333336,28.89916666666667,67.85666666666667,-1.2370572916666667,63.565531099149716
1373728908.25,3.5135402916666667,28.900833333333335,67.83750000981333,-0.9485677083333334,63.55963526535487
1373728908.5,3.500464791666667,28.9025,67.81833333333333,-0.80421875,63.554967806224205
1373728908.75,3.484667416666667,28.905,67.79916665685333,-0.6700781249999999,63.55316655464325
1373728909.0,3.4682296249999998,28.90833333333333,67.77999999999999,-0.558984375,63.555297287502036
1373728909.25,3.451791833333333,28.911666666666665,67.75916667733333,-0.4982031249999999,63.55791976539794
1373728909.5,3.435354041666667,28.914999999999996,67.73833333333332,-0.46674479166666666,63.558452281119806
1373728909.75,3.41891625,28.9175,67.71749998933332,-0.46726562499999996,63.56041913954173
1373728910.0,3.4028520416666663,28.91916666666667,67.69666666666666,-0.470859375,63.56271380770065
1373728910.25,3.3889759583333334,28.920833333333334,67.675833344,-0.4662760416666667,63.5612789929537
1373728910.5,3.3792627083333326,28.9225,67.655,-0.45984374999999994,63.55750823696376
1373728910.75,3.372431375,28.924166666666668,67.63416665599999,-0.434296875,63.55291804792628
1373728911.0,3.3681083750000003,28.925833333333333,67.61333333333333,-0.40958333333333324,63.548122838170805
1373728911.25,3.368054958333333,28.9275,67.59416667648,-0.38846354166666663,63.5431636118409
1373728911.5,3.372057625,28.929166666666664,67.57499999999999,-0.3484114583333333,63.53791735650577
1373728911.75,3.3760602916666667,28.93,67.55583332351999,-0.30888020833333335,63.51267469090865
1373728912.0,3.3800629583333333,28.93,67.53666666666666,-0.26578124999999997,63.47187926177443
1373728912.25,3.3833718333333334,28.93,67.52416667306666,-0.219453125,63.43108383264021
1373728912.5,3.386147,28.93,67.51166666666666,-0.170390625,63.39213249316148
1373728912.75,3.388655333333333,28.93,67.49916666026667,-0.1130208333333333,63.35199268350126
1373728913.0,3.39063,28.93,67.48666666666666,-0.058255208333333315,63.31152506410402
1373728913.25,3.3904165416666667,28.93,67.48250000213334,-0.011588541666666646,63.274663991353385
1373728913.5,3.3887087500000006,28.93,67.47833333333332,0.026223958333333353,63.23845875125662
1373728913.75,3.386894208333333,28.93,67.47416666453333,0.05705729166666668,63.20447533452232
1373728914.0,3.384972916666667,28.93,67.47,0.08807291666666668,63.17069693850603
1373728914.25,3.3830516250000002,28.93,67.47083333290666,0.11825520833333335,63.148191675876376
1373728914.5,3.381130333333333,28.93,67.47166666666666,0.13567708333333336,63.1485607131688
1373728914.75,3.3792090416666665,28.930833333333336,67.47250000042668,0.149921875,63.16921318972846
1373728915.0,3.3772877500000003,28.9325,67.47333333333334,0.16481770833333337,63.20541842982521
1373728915.25,3.37606025,28.934166666666666,67.47416666624001,0.16502604166666668,63.24162366992197
1373728915.5,3.377234416666667,28.93583333333333,67.47500000000001,0.1672135416666667,63.27782891001871
1373728915.75,3.382678125,28.9375,67.47583333376001,0.16778645833333336,63.31403415011547
1373728916.0,3.392658208333333,28.93916666666667,67.47666666666667,0.14591145833333335,63.35036237215857
1373728916.25,3.405466875,28.940833333333334,67.47500000085334,0.11187500000000002,63.3928271963268
1373728916.5,3.418328916666667,28.9425,67.47333333333334,0.07263020833333335,63.450982492986675
1373728916.75,3.4312977083333327,28.944999999999997,67.47166666581334,-0.0049479166666666465,63.49986345433015
1373728917.0,3.444640083333333,28.948333333333334,67.47000000000001,-0.09898437499999997,63.567193428596795
1373728917.25,3.458622916666666,28.951666666666664,67.46333333674667,-0.18627604166666667,63.629446550108376
1373728917.5,3.472979333333333,28.955,67.45666666666668,-0.294375,63.67695750544499
1373728917.75,3.4874958333333335,28.957499999999996,67.44999999658667,-0.4476302083333333,63.740815874505046
1373728918.0,3.5024392916666667,28.959166666666665,67.44333333333333,-0.6278125,63.823274075169685
1373728918.25,3.518717,28.96083333333333,67.43500000426667,-0.8108072916666668,63.91532458320225
1373728918.5,3.5368092499999997,28.962500000000002,67.42666666666668,-1.1288802083333331,64.0167145785279
1373728918.75,3.5593845416666667,28.964166666666667,67.41833332906667,-1.6746614583333332,64.11207279640848
1373728919.0,3.5921534166666667,28.965833333333332,67.41000000000001,-2.3050520833333334,64.1775884754985
1373728919.25,3.641424208333333,28.967499999999998,67.40416666965334,-2.92359375,64.24999202994788
1373728919.5,3.7058659583333333,28.969166666666666,67.39833333333334,-3.4259635416666665,64.31232620095797
1373728919.75,3.7703077083333336,28.97,67.39249999701335,-3.5605729166666666,64.3830439294392
1373728920.0,3.8344826249999997,28.97,67.38666666666667,-3.666536458333333,64.42953318102208
1373728920.25,3.898017083333333,28.97,67.3908333312,-4.123749999999999,64.45745213027281
1373728920.5,3.9611779583333333,28.97,67.395,-5.974192708333334,64.4730716159905
1373728920.75,4.02417875,28.97,67.39916666879999,-9.086770833333333,64.46419388263813
1373728921.0,4.075067916666666,28.97,67.40333333333332,-12.076145833333333,64.41198726723893
1373728921.25,4.105249708333333,28.97,67.41999999146665,-13.187942708333333,64.34586792595037
1373728921.5,4.126462166666666,28.97,67.43666666666665,-13.245494791666667,64.26121567704745
1373728921.75,4.133154833333333,28.970833333333335,67.45333334186665,-12.898385416666668,64.18452119257739
1373728922.0,4.119780583333333,28.972499999999997,67.46999999999998,-12.364375,64.14081299398485
1373728922.25,4.0870758333333335,28.974166666666665,67.49833331882665,-11.828958333333333,64.08399913506939
1373728922.5,4.039200125,28.97583333333333,67.52666666666666,-11.412239583333333,64.02384973418897
1373728922.75,3.991324416666666,28.977500000000003,67.55500001450666,-11.34640625,63.970241334333224
1373728923.0,3.9434487083333334,28.979166666666668,67.58333333333333,-11.272213541666666,63.92880121454552
1373728923.25,3.895573,28.980833333333333,67.61916664832,-10.8496875,63.9144960732541
1373728923.5,3.8491916666666666,28.982499999999998,67.655,-8.984947916666666,63.907448223335145
1373728923.75,3.809534875,28.984166666666667,67.69083335168,-5.766536458333333,63.9070454894461
1373728924.0,3.790101875,28.985833333333332,67.72666666666667,-2.620807291666667,63.928935597490714
1373728924.25,3.793511041666667,28.9875,67.78666663594667,-1.3570833333333334,63.94543144548658
1373728924.5,3.8022070416666662,28.989166666666666,67.84666666666666,-1.0118749999999999,63.97790754967162
1373728924.75,3.816937083333333,28.99,67.90666669738667,-0.8369791666666667,64.02002760588095
1373728925.0,3.8371641666666663,28.99,67.96666666666667,-0.7319791666666666,64.05709707911221
1373728925.25,3.8573912500000005,28.99,68.04833329152,-0.6152343749999999,64.09286914803467
1373728925.5,3.877618333333334,28.99,68.13,-0.5078385416666666,64.12489504838258
1373728925.75,3.894589875,28.99083333333333,68.21166670848001,-0.373046875,64.14783079793436
1373728926.0,3.9084659583333337,28.992499999999996,68.29333333333334,-0.25057291666666665,64.16275309809664
1373728926.25,3.9201005,28.99416666666667,68.39083328341334,-0.11010416666666663,64.1632809811225
1373728926.5,3.9297603750000003,28.995833333333334,68.48833333333334,0.0013802083333333706,64.14877003402542
1373728926.75,3.9326957083333327,28.997500000000002,68.58583338325333,0.049036458333333366,64.12705534351682
1373728927.0,3.9270919166666665,28.999166666666667,68.68333333333334,0.06500000000000004,64.10696187967196
1373728927.25,3.918019083333333,29.000833333333333,68.77499995306667,0.10109375000000004,64.09658309439725
1373728927.5,3.90894625,29.002499999999998,68.86666666666667,0.13851562500000003,64.07941747325467
1373728927.75,3.899873416666667,29.004166666666666,68.95833338026667,0.16945312500000007,64.05068191309998
1373728928.0,3.8920280833333334,29.00583333333333,69.05,0.18192708333333338,64.02373020689008
1373728928.25,3.88498325,29.007500000000004,69.13583328938667,0.17885416666666673,63.9981570878274
1373728928.5,3.878151916666667,29.00916666666667,69.22166666666666,0.1940885416666667,63.97404459025186
1373728928.75,3.875003083333334,29.01,69.30750004394666,0.2019010416666667,63.95115019693062
1373728929.0,3.8754834166666665,29.01,69.39333333333333,0.20419270833333336,63.92988043690599
1373728929.25,3.8784721666666666,29.01,69.49166661632,0.18489583333333337,63.90840815379652
1373728929.5,3.8822080416666664,29.01,69.59,0.16466145833333337,63.89917176822866
1373728929.75,3.886264125,29.010833333333334,69.68833338368,0.16309895833333338,63.89835678638379
1373728930.0,3.8928819583333336,29.0125,69.78666666666668,0.16218750000000004,63.89835678638379
1373728930.25,3.9048900833333335,29.014166666666668,69.90083327488001,0.15322916666666672,63.89835678638379
1373728930.5,3.919406541666667,29.015833333333333,70.01500000000001,0.14250000000000004,63.89835678638379
1373728930.75,3.933923,29.01666666666667,70.12916672512,0.13169270833333338,63.89835678638379
1373728931.0,3.9472119583333334,29.01666666666667,70.24333333333334,0.12632812500000004,63.89835678638379
1373728931.25,3.9597004166666667,29.016666666666666,70.37416659968001,0.12151041666666672,63.89835678638379
1373728931.5,3.971975375,29.016666666666666,70.505,0.11567708333333336,63.89835678638379
1373728931.75,3.9838233749999996,29.01666666666667,70.63583340032,0.11364583333333338,63.898316029058115
1373728932.0,3.9935366250000004,29.01666666666667,70.76666666666667,0.11286458333333337,63.89819375708107
1373728932.25,4.000367916666667,29.01666666666667,70.8833332736,0.10364583333333337,63.89607103672072
1373728932.5,4.004850958333333,29.016666666666666,71.0,0.09903645833333337,63.87188926911849
1373728932.75,4.007412708333333,29.015833333333333,71.1166667264,0.0948697916666667,63.84770750151626
1373728933.0,4.005971708333333,29.01416666666667,71.23333333333333,0.09820312500000004,63.82352573391403
1373728933.25,3.9991404166666666,29.012500000000003,71.33749994666667,0.10341145833333339,63.799343966311795
1373728933.5,3.9898007916666667,29.010833333333338,71.44166666666666,0.09622395833333337,63.786927023905236
1373728933.75,3.9804611666666667,29.010833333333334,71.54583338666666,0.09432291666666671,63.78656020797411
1373728934.0,3.9711215416666668,29.012500000000003,71.64999999999999,0.10026041666666673,63.786560207974105
1373728934.25,3.961781916666667,29.014166666666668,71.74333328554665,0.10828125000000004,63.78786372433674
1373728934.5,3.9525490416666664,29.015833333333337,71.83666666666666,0.11309895833333339,63.79116045868603
1373728934.75,3.9442234583333335,29.0175,71.93000004778666,0.10684895833333337,63.794012184832866
1373728935.0,3.9378191249999994,29.019166666666667,72.02333333333333,0.09658854166666671,63.796130787720706
1373728935.25,3.93408325,29.020833333333332,72.12249994922666,0.09828125000000004,63.79943499174279
1373728935.5,3.932482166666667,29.022500000000004,72.22166666666666,0.10380208333333339,63.82565384757783
1373728935.75,3.932749,29.02416666666667,72.32083338410666,0.1023958333333334,63.853787115965446
1373728936.0,3.9374988749999997,29.025833333333335,72.42,0.08692708333333338,63.8829793119671
1373728936.25,3.9514315833333336,29.0275,72.51833328298667,0.07643229166666671,63.91013513745824
1373728936.5,3.965954625,29.02916666666667,72.61666666666667,0.08734375000000005,63.923856029868084
1373728936.75,3.9834663333333338,29.03,72.71500005034666,0.08971354166666672,63.92385583512248
1373728937.0,4.0009780416666665,29.03,72.81333333333333,0.06867187500000003,63.924507627900475
1373728937.25,4.01848975,29.03,72.90999995050667,0.054713541666666705,63.92222541639993
1373728937.5,4.035894708333333,29.03,73.00666666666666,0.0601041666666667,63.91794998691271
1373728937.75,4.052392375,29.03,73.10333338282666,0.06783854166666671,63.91073313361543
1373728938.0,4.062805916666667,29.03,73.2,0.06395833333333338,63.88680402516392
1373728938.25,4.064200041666667,29.03,73.29166661973333,0.06427083333333337,63.86356703516529
1373728938.5,4.048032333333333,29.03,73.38333333333333,0.031197916666666704,63.826727598604855
1373728938.75,4.019159416666667,29.030833333333334,73.47500004693333,-0.003749999999999963,63.78219265311672
1373728939.0,3.9837113333333334,29.0325,73.56666666666666,0.04091145833333337,63.73659878001455
1373728939.25,3.9390804166666666,29.034166666666668,73.6583332864,0.11786458333333337,63.693041277422886
1373728939.5,3.8938591666666666,29.035833333333333,73.75,0.08848958333333339,63.65115388271686
1373728939.75,3.8456492499999997,29.037500000000005,73.8416667136,0.08632812500000005,63.61093744869083
1373728940.0,3.7974393333333336,29.039166666666663,73.93333333333334,0.1369010416666667,63.569702211210085
1373728940.25,3.7496989999999997,29.040833333333335,74.02499995306667,0.1670833333333334,63.530097461645255
1373728940.5,3.7019586666666666,29.0425,74.11666666666667,0.1791666666666667,63.49049271208042
1373728940.75,3.6607827499999996,29.04416666666667,74.20833338026667,0.25804687500000006,63.45431515185379
1373728941.0,3.632789125,29.045833333333334,74.3,0.3780989583333334,63.435664484691756
1373728941.25,3.621820375,29.047500000000003,74.39249995264,0.47213541666666675,63.41742397263287
1373728941.5,3.632683,29.049166666666665,74.485,0.63078125,63.45657411003805
1373728941.75,3.6566777916666666,29.05,74.57750004736,0.7760677083333333,63.50611518077386
1373728942.0,3.6850062500000003,29.05,74.67,0.7964062500000001,63.55744585205925
1373728942.25,3.713654916666666,29.05,74.74083329706667,0.7805208333333334,63.627622328945314
1373728942.5,3.7439580416666662,29.05,74.81166666666667,0.8766927083333335,63.752820793078115
1373728942.75,3.7832913749999997,29.050833333333333,74.88250003626666,0.9065104166666665,63.866615669861496
1373728943.0,3.8411546666666663,29.052500000000006,74.95333333333333,0.9090885416666667,63.97607442778789
1373728943.25,3.9155765000000002,29.05416666666667,75.00666663936,0.9438541666666668,64.08376443279266
1373728943.5,3.9935773749999997,29.055833333333336,75.06,0.8915104166666667,64.18859702288975
1373728943.75,4.065013833333333,29.0575,75.11333336064,0.72640625,64.29258427739595
1373728944.0,4.1290319166666665,29.059166666666666,75.16666666666667,0.5716666666666668,64.39669237667577
1373728944.25,4.184991166666666,29.06083333333333,75.20416664746666,0.4918489583333334,64.50051304964865
1373728944.5,4.2366275,29.0625,75.24166666666667,0.32932291666666674,64.55968991514818
1373728944.75,4.287570041666666,29.06416666666667,75.27916668586667,0.18700520833333337,64.61413609891856
1373728945.0,4.332802041666667,29.065833333333334,75.31666666666666,0.12885416666666674,64.66832270847681
1373728945.25,4.372110041666667,29.0675,75.36083331072,0.06492187500000006,64.70495106145181
1373728945.5,4.404426625,29.069166666666664,75.405,-0.017213541666666617,64.68386069659884
1373728945.75,4.423336666666667,29.07,75.44916668928,-0.053463541666666614,64.67417391909531
1373728946.0,4.420941541666667,29.07,75.49333333333334,-0.11075520833333329,64.66882326044875
1373728946.25,4.400184083333333,29.07,75.54166664192,-0.19822916666666665,64.66524135472382
1373728946.5,4.374406625,29.07,75.59,-0.17273437499999997,64.66451686390657
1373728946.75,4.3472415416666665,29.07,75.63833335808,-0.0961458333333333,64.66463770868022
1373728947.0,4.319009083333333,29.07,75.68666666666667,-0.07859374999999998,64.65850594927693
1373728947.25,4.2896025,29.07,75.74249997141334,-0.11859374999999996,64.63853011702452
1373728947.5,4.259395333333333,29.07,75.79833333333335,-0.10674479166666663,64.61252734614673
1373728947.75,4.228921333333333,29.07,75.85416669525334,-0.09744791666666662,64.58190182428453
1373728948.0,4.202396708333334,29.07,75.91000000000001,-0.11648437499999996,64.54326668798056
1373728948.25,4.18131575,29.07,75.96749997056001,-0.1329427083333333,64.48843973823135
1373728948.5,4.16455775,29.07,76.025,-0.14695312499999996,64.43208310913774
1373728948.75,4.151535625,29.07,76.08250002944,-0.1673958333333333,64.37572648004414
1373728949.0,4.1408617083333334,29.07,76.14,-0.16869791666666664,64.32363927512522
1373728949.25,4.131361916666667,29.07,76.19833330346667,-0.1361458333333333,64.31489360518793
1373728949.5,4.123143,29.07,76.25666666666666,-0.12260416666666663,64.32326379731398
1373728949.75,4.112949416666667,29.07083333333333,76.31500002986667,-0.10015624999999996,64.33364378454726
1373728950.0,4.092829083333333,29.0725,76.37333333333333,-0.06002604166666662,64.35746523671602
1373728950.25,4.073882875,29.074166666666667,76.42999997098667,-0.02776041666666662,64.3998266436965
1373728950.5,4.055737250000001,29.075833333333332,76.48666666666666,0.03234375000000004,64.439624760385
1373728950.75,4.037858458333333,29.0775,76.54333336234666,0.11380208333333337,64.48312127466288
1373728951.0,4.020940291666666,29.079166666666666,76.6,0.15520833333333336,64.53903213319953
1373728951.25,3.9956964999999998,29.080833333333334,76.66249996799999,0.19080729166666674,64.6462728045304
1373728951.5,3.96087725,29.0825,76.725,0.29838541666666674,64.74240284249761
1373728951.75,3.9164825833333334,29.084166666666665,76.78750003200001,0.4453906250000001,64.81066570815425
1373728952.0,3.872514916666667,29.08583333333333,76.85000000000001,-0.1418489583333333,64.87707085796823
1373728952.25,3.8287073333333335,29.087500000000002,76.91666663253334,-2.3515625,64.89780478525638
1373728952.5,3.7861805833333335,29.089166666666667,76.98333333333333,-6.656432291666666,64.87997807937273
1373728952.75,3.7510271250000002,29.090833333333336,77.05000003413333,-12.674713541666668,64.85214078899908
1373728953.0,3.7270362083333333,29.092499999999998,77.11666666666666,-16.216744791666667,64.78193150658636
1373728953.25,3.702671708333334,29.094166666666666,77.20999995221334,-18.6490625,64.72794890061773
1373728953.5,3.678307208333333,29.09583333333333,77.30333333333334,-21.109557291666665,64.69428888645763
1373728953.75,3.651799625,29.0975,77.39666671445333,-23.40893229166667,64.65723136310886
1373728954.0,3.6190585416666665,29.099166666666665,77.49000000000001,-25.668906249999996,64.60136410605298
1373728954.25,3.5948032083333334,29.10083333333333,77.6024999424,-28.38940104166667,64.51211065823479
1373728954.5,3.5873708333333334,29.102500000000003,77.715,-32.345234375,64.4493290192657
1373728954.75,3.5922974166666664,29.104166666666668,77.8275000576,-38.24369791666667,64.45701623561122
1373728955.0,3.597224,29.105833333333333,77.94,-44.95374999999999,64.46963627150011
1373728955.25,3.602150583333333,29.107499999999998,78.06749993472,-48.361328125,64.47841742694452
1373728955.5,3.605956416666667,29.109166666666667,78.195,-47.151796875,64.50135976564275
1373728955.75,3.597543083333333,29.11,78.32250006528,-42.614505208333334,64.5802210763949
1373728956.0,3.576750458333333,29.11,78.45,-40.377630208333336,64.75302099274712
1373728956.25,3.5369475416666667,29.11,78.56916660565334,-39.240885416666664,64.88144791991496
1373728956.5,3.4764265,29.11,78.68833333333335,-38.59296875,64.95707829163645
1373728956.75,3.390074625,29.11,78.80750006101334,-38.93520833333333,65.00412082665652
1373728957.0,3.2738665833333336,29.11,78.92666666666668,-39.28270833333333,65.06766648395991
1373728957.25,3.136450041666667,29.11,79.02666661546668,-39.16114583333333,65.06519103736872
1373728957.5,2.9660084999999996,29.11,79.12666666666667,-38.395572916666666,65.05120548573811
1373728957.75,2.7520180416666666,29.110833333333332,79.22666671786666,-33.48455729166667,64.95359668802202
1373728958.0,2.4977745416666663,29.1125,79.32666666666667,-24.244401041666666,64.8164400961901
1373728958.25,2.210210375,29.114166666666666,79.40999995733334,-15.496328124999998,64.67955983808461
1373728958.5,1.9093432083333333,29.11583333333333,79.49333333333334,-10.613880208333333,64.57890379134594
1373728958.75,1.616684208333333,29.117499999999996,79.57666670933334,-10.184010416666666,64.44220181456227
1373728959.0,1.3362360833333333,29.11916666666667,79.66000000000001,-11.984869791666666,64.19968776637162
1373728959.25,1.0751718333333333,29.120833333333334,79.72833329834667,-14.43140625,64.0249168822127
1373728959.5,0.8348257083333334,29.1225,79.79666666666668,-17.090833333333332,63.91917064079279
1373728959.75,0.6224535,29.124166666666664,79.86500003498668,-19.741666666666667,63.85799301061391
1373728960.0,0.4463844166666666,29.125833333333333,79.93333333333334,-20.95158854166667,63.80668050765226
1373728960.25,0.2915772083333333,29.127499999999998,79.98999997098667,-19.310130208333334,63.881759553380505
1373728960.5,0.1635615,29.129166666666663,80.04666666666668,-15.466145833333334,63.97145446245194
1373728960.75,0.077005,29.13,80.10333336234667,-15.623489583333333,64.13401003470086
1373728961.0,0.030808291666666668,29.13,80.16000000000001,-18.571510416666666,64.31494736687834
1373728961.25,0.017985625,29.13,80.2099999744,-21.762630208333334,64.50432155441845
1373728961.5,0.018465958333333334,29.13,80.26,-22.70119791666667,64.62083329672281
1373728961.75,0.018999666666666668,29.13083333333333,80.3100000256,-21.309114583333333,64.6430509939433
1373728962.0,0.01958675,29.132499999999997,80.36,-13.544244791666666,64.71932566153178
1373728962.25,0.020173833333333335,29.13416666666667,80.39999997952,-5.085234374999999,64.74294066311012
1373728962.5,0.020760916666666667,29.135833333333334,80.44,3.585026041666667,64.74372057810506
1373728962.75,0.021348000000000002,29.1375,80.48000002047999,13.179296875,64.72755490070604
1373728963.0,0.021721624999999998,29.139166666666668,80.52,22.19463541666667,64.70341623754577
1373728963.25,0.022041875,29.140833333333333,80.57166664021334,28.35859375,64.59335260989715
1373728963.5,0.022362125,29.142500000000002,80.62333333333333,35.85205729166667,64.46537647220778
1373728963.75,0.022629,29.144166666666667,80.67500002645333,44.452942708333346,64.30923322059952
1373728964.0,0.022789124999999997,29.14583333333333,80.72666666666667,44.23013020833333,64.1815448675287
1373728964.25,0.022895875,29.147499999999997,80.77666664106667,37.02502604166667,64.04768525128164
1373728964.5,0.023002625,29.149166666666662,80.82666666666668,33.890390625,63.9606800752587
1373728964.75,0.023056,29.15,80.87666669226668,39.332005208333335,63.967564357155034
1373728965.0,0.023056,29.15,80.92666666666668,32.16713541666667,63.982572414761215
1373728965.25,0.023056,29.15,80.97833330688,17.898098958333335,63.993076346784484
1373728965.5,0.023056,29.15,81.03,7.624322916666667,63.933568451378854
1373728965.75,0.023056,29.15,81.08166669312001,10.376171874999999,63.895875406262256
1373728966.0,0.023056,29.15,81.13333333333334,16.002526041666666,63.842586784038026
1373728966.25,0.023056,29.15,81.17083331413335,11.316562499999998,63.8206325788153
1373728966.5,0.023056,29.15,81.20833333333334,-2.064557291666668,63.8407687767676
1373728966.75,0.023056,29.15,81.24583335253334,-15.373359375,63.858288311460136
1373728967.0,0.023056,29.15,81.28333333333335,-19.616015625,63.870594671729755
1373728967.25,0.023109333333333332,29.15,81.32249997994667,-16.620729166666667,63.90258718892283
1373728967.5,0.023216,29.15,81.36166666666668,-18.885677083333334,63.96185897099326
1373728967.75,0.02332266666666667,29.15,81.40083335338667,-30.795729166666664,64.00663795420901
1373728968.0,0.02342933333333333,29.15,81.44,-33.56143229166667,64.03143074238638
1373728968.25,0.023536,29.15,81.47999997952,-27.748541666666668,64.06359638485152
1373728968.5,0.02364266666666667,29.15,81.52000000000001,-25.905625,64.22554428768184
1373728968.75,0.02374933333333333,29.150833333333335,81.56000002048,-38.77361979166667,64.36659133940229
1373728969.0,0.023856000000000002,29.1525,81.60000000000001,-55.662473958333344,64.5108809688545
1373728969.25,0.023909333333333335,29.154166666666665,81.64416664405334,-61.76606770833333,64.6312611090808
1373728969.5,0.023535750000000005,29.155833333333334,81.68833333333333,-60.34973958333333,64.69705898474876
1373728969.75,0.0232155,29.16,81.73250002261332,-56.15739583333334,64.77620816139067
1373728970.0,0.02593733333333333,29.166666666666668,81.77666666666666,-51.484348958333335,64.83533904468705
1373728970.25,0.028605833333333334,29.173333333333336,81.80749998421332,-47.98588541666667,64.86477435098924
1373728970.5,0.03310004166666667,29.179999999999996,81.83833333333334,-44.063151041666664,64.85526072799361
1373728970.75,0.037594249999999996,29.194999999999997,81.86916668245334,-38.31421875,64.84599114197341
1373728971.0,0.070896875,29.218333333333334,81.9,-33.4196875,64.83952401328847
1373728971.25,0.15016174999999998,29.241666666666664,81.91583332522667,-30.201484375000003,64.83071258397246
1373728971.5,0.25863375,29.265,81.93166666666667,-26.429270833333334,64.72437350832904
1373728971.75,0.3875532916666667,29.295833333333334,81.94750000810667,-20.94838541666667,64.61486346530315
1373728972.0,0.5220274166666666,29.334166666666672,81.96333333333334,-15.111223958333333,64.5141087318354
1373728972.25,0.66600125,29.372500000000002,81.96166666752,-9.724296875,64.46665916045008
1373728972.5,0.8173400000000001,29.410833333333333,81.96000000000001,-6.173177083333333,64.38444785700626
1373728972.75,0.9689456666666666,29.511666666666667,81.95833333248,-4.769453125,64.2474167608451
1373728973.0,1.1192704583333335,29.674999999999997,81.95666666666666,-4.073906249999999,64.1193853189304
1373728973.25,1.26959525,29.838333333333335,81.95250000213333,-3.426848958333333,64.00103689719155
1373728973.5,1.4180409999999999,30.001666666666665,81.94833333333332,-3.033098958333333,63.91351555097135
1373728973.75,1.56648675,30.197916666666668,81.94416666453333,-3.035026041666667,63.837916844797455
1373728974.0,1.68788525,30.427083333333332,81.94,-2.9555989583333333,63.772692990782424
1373728974.25,1.7618805416666667,30.65625,81.92583334058666,-2.5059635416666666,63.74867519421829
1373728974.5,1.8058681666666665,30.885416666666668,81.91166666666666,-2.151067708333333,63.797276308375
1373728974.75,1.8304222499999998,31.107499999999998,81.89749999274667,-1.9226302083333335,63.86019714414945
1373728975.0,1.8480875,31.3225,81.88333333333334,-1.3155468750000001,63.937553985190995
1373728975.25,1.854972125,31.537499999999998,81.86416667648001,-0.862265625,63.99013601173947
1373728975.5,1.8462729166666667,31.752499999999998,81.845,-0.2608333333333333,64.11038703377366
1373728975.75,1.8271215833333336,31.901250000000005,81.82583332352,0.13479166666666667,64.32644709649972
1373728976.0,1.7955434166666668,31.98375,81.80666666666667,0.6509114583333334,64.54994957427745
1373728976.25,1.742395666666667,32.066250000000004,81.78250001237333,1.27171875,64.76088060063425
1373728976.5,1.6720012916666667,32.14875,81.75833333333333,2.034609375,64.98699685098146
1373728976.75,1.5908796250000001,32.190000000000005,81.73416665429333,3.311302083333333,65.31377322403884
1373728977.0,1.4967176666666668,32.190000000000005,81.71,4.071640625,65.71317482475456
1373728977.25,1.384032333333333,32.190000000000005,81.68666667861332,4.811875,66.11253299727021
1373728977.5,1.2665971249999999,32.190000000000005,81.66333333333333,5.552109375000001,66.4611923583665
1373728977.75,1.1263197916666667,32.18875,81.63999998805333,5.841171875,66.79884079255089
1373728978.0,0.9740203333333333,32.186249999999994,81.61666666666666,5.804270833333334,67.10379682433127
1373728978.25,0.8225747916666667,32.183749999999996,81.59000001365332,6.914244791666667,67.36275617930859
1373728978.5,0.6797750833333334,32.18125,81.56333333333333,7.9792708333333335,67.57218034011792
1373728978.75,0.5471072499999999,32.18,81.53666665301333,8.535442708333333,67.71057776304565
1373728979.0,0.4252117916666666,32.18,81.50999999999999,8.380989583333333,67.8187713307244
1373728979.25,0.3248859166666667,32.18,81.48083334826666,8.78328125,67.85135342435046
1373728979.5,0.24196679166666668,32.18,81.45166666666665,9.691119791666667,67.73502549571309
1373728979.75,0.16993508333333332,32.18,81.42249998506666,10.030260416666666,67.49324544449452
1373728980.0,0.109235875,32.18,81.39333333333333,11.236354166666667,67.16661488016814
1373728980.25,0.068554375,32.18,81.351666688,11.45546875,66.80230985055066
1373728980.5,0.03342329166666667,32.18,81.31,11.630963541666667,66.44766712306678
1373728980.75,0.020120333333333334,32.173750000000005,81.26833331200001,12.937343749999998,66.0972187751183
1373728981.0,0.02017375,32.16125,81.22666666666667,13.472890625,65.76455703272772
1373728981.25,0.020814208333333334,32.14875,81.17416669354667,12.527734375,65.46094086051978
1373728981.5,0.021614750000000002,32.13625,81.12166666666667,11.395234375,65.19052005578949
1373728981.75,0.03335604166666666,32.12375,81.06916663978667,11.036354166666667,64.93673909001606
1373728982.0,0.06469795833333333,32.11125,81.01666666666667,11.258463541666666,64.70965845422377
1373728982.25,0.103525625,32.09875,80.95416669866667,10.624973958333333,64.57463300991792
1373728982.5,0.14219316666666668,32.08625,80.89166666666667,9.894244791666667,64.55087898778221
1373728982.75,0.19575491666666667,32.08291666666667,80.82916663466666,9.384479166666667,64.54313847777972
1373728983.0,0.26317870833333334,32.088750000000005,80.76666666666667,8.158307291666667,64.53950995822542
1373728983.25,0.33678633333333335,32.09458333333334,80.70916669610666,8.273125,64.5416878586944
1373728983.5,0.4103939583333333,32.10041666666667,80.65166666666667,8.701640625,64.55361941931413
1373728983.75,0.4840015833333333,32.1175,80.59416663722668,8.181875,64.5570009170789
1373728984.0,0.567127125,32.145833333333336,80.53666666666668,7.869453125000001,64.53706762788637
1373728984.25,0.6501459583333333,32.174166666666665,80.48250002773334,7.351875000000001,64.53323017983877
1373728984.5,0.7330047083333334,32.2025,80.42833333333334,5.674296875,64.55035611098731
1373728984.75,0.8085547083333333,32.23583333333333,80.37416663893335,4.488541666666666,64.5587290533298
1373728985.0,0.8643973333333332,32.274166666666666,80.32000000000001,3.2055729166666667,64.53157223306461
1373728985.25,0.9161657083333333,32.3125,80.26500002816,2.425572916666667,64.53164370262913
1373728985.5,0.9679340833333333,32.350833333333334,80.21000000000001,0.6407291666666668,64.53773131211305
1373728985.75,1.004648125,32.38,80.15499997184001,-1.758984375,64.54716351887213
1373728986.0,1.02744675,32.4,80.10000000000001,-3.8102343750000003,64.55409672209473
1373728986.25,1.0512705416666666,32.419999999999995,80.04333336234667,-6.351770833333333,64.55300598151861
1373728986.5,1.0792079166666666,32.44,79.98666666666668,-9.199401041666667,64.53836442719764
1373728986.75,1.1095961666666665,32.455,79.92999997098667,-12.075260416666667,64.53788795778603
1373728987.0,1.1358075833333332,32.465,79.87333333333333,-14.407708333333334,64.56294143094381
1373728987.25,1.1769583333333333,32.475,79.81333336405334,-16.120807291666665,64.57174209589913
1373728987.5,1.2370019166666666,32.48500000000001,79.75333333333333,-15.179557291666667,64.5448747670855
1373728987.75,1.3048297916666665,32.4825,79.69333330261334,-13.949895833333334,64.51887443245231
1373728988.0,1.372995125,32.4675,79.63333333333334,-13.044401041666667,64.53395022226218
1373728988.25,1.4377489583333334,32.4525,79.56916669952001,-14.113906250000001,64.50556378366905
1373728988.5,1.5025027916666664,32.4375,79.505,-14.877682291666666,64.4675086696664
1373728988.75,1.5670342083333333,32.41916666666666,79.44083330048,-13.976380208333333,64.4222955153058
1373728989.0,1.6315656249999997,32.3975,79.37666666666667,-12.391171875,64.38205949994106
1373728989.25,1.6888346666666667,32.37583333333334,79.29916670634667,-11.66296875,64.34693433453684
1373728989.5,1.739214875,32.354166666666664,79.22166666666666,-10.350520833333333,64.31629051744788
1373728989.75,1.7854002500000001,32.3325,79.14416662698666,-8.206380208333334,64.28307433462972
1373728990.0,1.8254439999999998,32.310833333333335,79.06666666666666,-5.639088541666666,64.24456705861964
1373728990.25,1.8472395416666665,32.28916666666667,78.97416671402667,-1.7814583333333331,64.2177127756538
1373728990.5,1.85014225,32.2675,78.88166666666666,-2.0911197916666664,64.2258566029284
1373728990.75,1.8382129999999999,32.259166666666665,78.78916661930666,-3.926744791666666,64.26944343035721
1373728991.0,1.8259462916666667,32.26416666666666,78.69666666666666,-3.3983072916666663,64.27637212615919
1373728991.25,1.8137863333333335,32.26916666666666,78.59000005461333,0.14789062500000033,64.30641018213878
1373728991.5,1.801626375,32.274166666666666,78.48333333333332,4.089557291666667,64.36593342072197
1373728991.75,1.7925174166666666,32.2825,78.37666661205333,6.2386718750000005,64.41378776488285
1373728992.0,1.786610625,32.29416666666666,78.27,6.225052083333335,64.45965555502303
1373728992.25,1.7812908749999998,32.30583333333333,78.17416671573332,6.672421875000001,64.5127817551705
1373728992.5,1.7794402083333332,32.3175,78.07833333333332,6.106822916666668,64.57141619884906
1373728992.75,1.778052625,32.32583333333333,77.98249995093333,5.853177083333333,64.62925442555219
1373728993.0,1.7753307916666665,32.33083333333333,77.88666666666666,5.831588541666666,64.66919941619658
1373728993.25,1.7789065416666665,32.33583333333333,77.80166671018665,3.1582812500000004,64.67540423672136
1373728993.5,1.7794935833333332,32.34083333333333,77.71666666666667,4.479036458333334,64.66034507714812
1373728993.75,1.7834962916666666,32.339999999999996,77.63166662314667,6.765078125000001,64.62172548685729
1373728994.0,1.786957,32.33333333333333,77.54666666666667,7.120364583333333,64.65647197591736
1373728994.25,1.7919654166666668,32.32666666666667,77.47666670250666,7.689166666666666,64.6568672127432
1373728994.5,1.8097291666666668,32.32,77.40666666666667,7.4371875,64.59474792089344
1373728994.75,1.8278664999999998,32.314166666666665,77.33666663082667,7.593072916666666,64.54428395203252
1373728995.0,1.8428016666666667,32.30916666666666,77.26666666666667,8.995260416666666,64.47113910973819
1373728995.25,1.8571497916666664,32.30416666666667,77.20000003413334,10.015625,64.35488724904846
1373728995.5,1.870804083333333,32.299166666666665,77.13333333333333,11.935520833333333,64.227995111216
1373728995.75,1.8957727083333333,32.2975,77.06666663253333,11.899166666666666,64.09252552427427
1373728996.0,1.9246989583333332,32.299166666666665,77.0,12.163203125,64.01864501280029
1373728996.25,1.9560802083333335,32.30083333333334,76.94166669653333,15.305729166666666,63.96443184030324
1373728996.5,1.9977979583333336,32.3025,76.88333333333333,16.261458333333334,63.90076353313088
1373728996.75,2.0524845,32.30416666666667,76.82499997013333,14.874114583333332,63.82786583330998
1373728997.0,2.120415,32.30583333333333,76.76666666666667,13.277630208333333,63.69052480923779
1373728997.25,2.1889153333333335,32.3075,76.71416669354666,9.944609375,63.586831625689236
1373728997.5,2.2509579166666667,32.30916666666667,76.66166666666666,6.782552083333333,63.5360746596729
1373728997.75,2.3162768750000002,32.31666666666667,76.60916663978666,4.372135416666667,63.493001397903804
1373728998.0,2.382310458333333,32.330000000000005,76.55666666666666,2.255703125,63.486314833427635
1373728998.25,2.4483440416666666,32.343333333333334,76.50916669098666,1.1522656250000003,63.52816347046508
1373728998.5,2.5143776250000003,32.35666666666667,76.46166666666666,-0.4370312499999998,63.57742166692088
1373728998.75,2.57037775,32.37,76.41416664234666,-1.8734635416666665,63.630642165923426
1373728999.0,2.624555041666667,32.38333333333333,76.36666666666666,-5.016223958333334,63.625994829008796
1373728999.25,2.6747295833333333,32.39666666666667,76.32750002005332,-9.261953125,63.636871262277985
1373728999.5,2.7161153749999998,32.410000000000004,76.28833333333333,-11.63125,63.66213635392466
1373728999.75,2.7427177916666667,32.42,76.24916664661333,-12.023723958333333,63.69223577956873
1373729000.0,2.7566182500000003,32.42666666666667,76.21,-12.599140624999999,63.75903748872895
1373729000.25,2.7682944166666665,32.43333333333333,76.18083334826666,-13.599791666666668,63.83018804198651
1373729000.5,2.77233875,32.44,76.15166666666667,-14.554713541666665,63.8754985469813
1373729000.75,2.7670759583333333,32.437916666666666,76.12249998506667,-15.792604166666665,63.90990977211746
1373729001.0,2.7552278749999997,32.427083333333336,76.09333333333333,-14.765286458333334,63.91452321031221
1373729001.25,2.739142791666666,32.41625,76.0766666752,-13.263359374999999,63.90945759343924
1373729001.5,2.7230577083333336,32.40541666666667,76.06,-13.213255208333335,63.90203010544471
1373729001.75,2.7036962916666667,32.39,76.04333332479999,-10.137630208333333,63.88337148190007
1373729002.0,2.6797984583333334,32.37,76.02666666666666,-3.561380208333333,63.89048132461999
1373729002.25,2.651684458333333,32.35,76.02250000213333,2.6514583333333333,63.90860710929496
1373729002.5,2.6250114166666667,32.33,76.01833333333333,9.112187500000001,63.926395038967144
1373729002.75,2.600152958333333,32.31333333333333,76.01416666453333,18.318619791666666,63.9483319127279
1373729003.0,2.570455083333333,32.300000000000004,76.01,26.52270833333333,63.95795312433722
1373729003.25,2.532502125,32.28666666666667,76.01249999872,33.913385416666664,63.94861222541666
1373729003.5,2.4886251666666666,32.27333333333333,76.015,41.764140625,63.97170973877974
1373729003.75,2.4404252916666667,32.26208333333333,76.01750000128,45.39377604166666,64.01104664057773
1373729004.0,2.390571,32.252916666666664,76.02,44.07309895833333,64.05712398928496
1373729004.25,2.338051833333333,32.24375,76.02249999872,41.10479166666667,64.08990050408592
1373729004.5,2.281903541666667,32.234583333333326,76.025,39.639374999999994,64.11307644381354
1373729004.75,2.2324110833333335,32.227916666666665,76.02750000128,35.65619791666666,64.17602272215386
1373729005.0,2.1909774166666667,32.223749999999995,76.03,27.968125,64.23595797768739
1373729005.25,2.1529510833333334,32.219583333333325,76.01500000768,17.284557291666665,64.27443075283337
1373729005.5,2.1149247499999997,32.21541666666666,76.0,4.977239583333334,64.30612694230128
1373729005.75,2.0725582499999997,32.214999999999996,75.98499999232,-10.574218749999998,64.31386633372217
1373729006.0,2.0350311666666667,32.218333333333334,75.97,-25.259869791666663,64.30883865399434
1373729006.25,1.9858482083333333,32.221666666666664,75.94000001536,-36.673229166666665,64.3321970890676
1373729006.5,1.9439235000000001,32.225,75.91,-46.077916666666674,64.33598186089722
1373729006.75,1.9091502916666665,32.24,75.87999998464001,-50.057031249999994,64.33000457070051
1373729007.0,1.8819021666666667,32.266666666666666,75.85000000000001,-53.123359375,64.33074408269603
1373729007.25,1.8615559166666669,32.29333333333333,75.82000001536001,-54.1428125,64.33573603096751
1373729007.5,1.8497529166666666,32.32,75.79,-52.93348958333333,64.35912608126056
1373729007.75,1.8212369583333334,32.35125,75.75999998464,-49.14950520833333,64.35144153992168
1373729008.0,1.7842844999999998,32.38708333333334,75.73,-45.652369791666665,64.32179706728421
1373729008.25,1.7466999166666666,32.422916666666666,75.71916667221333,-36.18247395833333,64.27216152420047
1373729008.5,1.7029820000000002,32.45875,75.70833333333334,-26.3084375,64.25372343890207
1373729008.75,1.6636042500000003,32.490833333333335,75.69749999445334,-18.630182291666667,64.26831457424899
1373729009.0,1.6303598333333333,32.51916666666667,75.68666666666667,-10.597786458333333,64.28468866584647
1373729009.25,1.6250317916666666,32.5475,75.69499999573333,-4.670104166666667,64.28764471487752
1373729009.5,1.61970375,32.57583333333333,75.70333333333332,-0.9889843750000006,64.25333799621971
1373729009.75,1.6192898333333332,32.590833333333336,75.71166667093333,0.8250781249999993,64.21191730846881
1373729010.0,1.6363277500000002,32.5925,75.71999999999998,4.351119791666666,64.18424057954168
1373729010.25,1.6570392499999997,32.594166666666666,75.73249999359999,6.825130208333333,64.16074226167939
1373729010.5,1.6728366249999997,32.59583333333333,75.74499999999999,7.781510416666666,64.13413643968512
1373729010.75,1.7168214166666667,32.59166666666667,75.7575000064,6.916614583333332,64.11405802723037
1373729011.0,1.7758516666666668,32.58166666666666,75.77,7.674140624999999,64.10820683263103
1373729011.25,1.8348819166666666,32.571666666666665,75.78083332778667,4.933723958333333,64.10939307915164
1373729011.5,1.9093679583333332,32.56166666666667,75.79166666666666,0.3784374999999998,64.04282323283952
1373729011.75,1.9896350833333332,32.55166666666667,75.80250000554666,-0.9182291666666668,64.00242279986632
1373729012.0,2.063768875,32.541666666666664,75.81333333333333,-1.9419791666666668,63.98320262900423
1373729012.25,2.134487,32.53166666666667,75.81999999658666,-2.295885416666667,63.93910654243334
1373729012.5,2.2070197083333336,32.52166666666667,75.82666666666665,-2.3565625,63.95037855038618
1373729012.75,2.2739445,32.51333333333333,75.83333333674666,-1.8321614583333334,63.97709685589146
1373729013.0,2.323417458333333,32.50666666666667,75.83999999999999,0.9879166666666666,63.97424029957646
1373729013.25,2.369216833333333,32.5,75.84083333290666,3.348776041666667,63.986472348785355
1373729013.5,2.4150162083333333,32.49333333333333,75.84166666666667,4.756848958333333,63.988904428903425
1373729013.75,2.4462646666666665,32.49791666666667,75.84250000042667,3.4746875,63.970915325563034
1373729014.0,2.4673817916666665,32.51375,75.84333333333333,0.5456510416666668,63.96899880740845
1373729014.25,2.492181375,32.529583333333335,75.82833334101333,-2.17734375,63.998608313318506
1373729014.5,2.5076585000000002,32.54541666666667,75.81333333333335,-2.793567708333334,64.06636432909539
1373729014.75,2.5173545416666667,32.56333333333333,75.79833332565335,-2.415755208333333,64.04545588055184
1373729015.0,2.527050583333333,32.583333333333336,75.78333333333335,0.4130729166666666,63.980853871095356
1373729015.25,2.532156875,32.60333333333333,75.75250001578668,3.2451562500000004,63.962994839456
1373729015.5,2.5354485833333333,32.62333333333333,75.72166666666666,4.042708333333334,63.92030297988442
1373729015.75,2.5440772083333334,32.64333333333334,75.69083331754666,5.430755208333334,63.862024237225
1373729016.0,2.556761916666667,32.663333333333334,75.66,3.1453385416666664,63.832582797045234
1373729016.25,2.5712078333333337,32.68333333333333,75.61750002176,0.3700260416666666,63.78884038905864
1373729016.5,2.5875217083333335,32.70333333333333,75.57499999999999,-2.2131770833333335,63.74920433275068
1373729016.75,2.6047066666666665,32.71458333333333,75.53249997824,-1.389765625,63.74247158793735
1373729017.0,2.623759541666667,32.717083333333335,75.49,1.3193750000000002,63.71103932192202
1373729017.25,2.6410512500000003,32.71958333333333,75.44916668757332,4.618203125,63.66833768026077
1373729017.5,2.6583429583333333,32.72208333333333,75.40833333333333,7.939973958333334,63.646965440528824
1373729017.75,2.675634666666667,32.722500000000004,75.36749997909334,9.19140625,63.68966590823748
1373729018.0,2.693940416666667,32.72083333333333,75.32666666666667,7.72578125,63.781186890535544
1373729018.25,2.7122461666666666,32.719166666666666,75.28250002261333,5.215208333333334,63.838806294885615
1373729018.5,2.7305519166666667,32.7175,75.23833333333333,4.021223958333334,63.89428033974736
1373729018.75,2.7442145416666666,32.71583333333333,75.19416664405333,1.9525520833333336,63.96110307106425
1373729019.0,2.752807041666667,32.71416666666667,75.14999999999999,1.5115885416666666,64.0051881058469
1373729019.25,2.75926475,32.7125,75.1000000256,2.818125,64.04848291438223
1373729019.5,2.762253416666667,32.71083333333333,75.05,3.197005208333333,64.05773126193469
1373729019.75,2.7623067916666666,32.71,74.9999999744,1.8842187499999998,64.07412801732686
1373729020.0,2.76049225,32.71,74.95,-0.2214322916666666,64.1126728184488
1373729020.25,2.7567564166666667,32.71,74.89500002816,-3.118307291666667,64.13816796940614
1373729020.5,2.7546216666666665,32.71,74.84,-6.043984375,64.11729298543395
1373729020.75,2.7510459583333335,32.70875,74.78499997184001,-7.974114583333333,64.09050335214523
1373729021.0,2.7453887916666666,32.706250000000004,74.73,-9.306458333333333,63.98691837425247
1373729021.25,2.7397316249999997,32.70375,74.67416669525333,-9.018020833333333,63.93201625936521
1373729021.5,2.735141875,32.70125,74.61833333333334,-7.899114583333334,63.919651312045204
1373729021.75,2.7314060000000002,32.700833333333335,74.56249997141335,-6.343880208333334,63.8983521014598
1373729022.0,2.7301784999999996,32.70249999999999,74.50666666666667,-4.7844010416666665,63.87010097895385
1373729022.25,2.7312992499999997,32.704166666666666,74.45333336064,-4.7374479166666665,63.81787005178179
1373729022.5,2.7350350833333334,32.70583333333334,74.4,-3.9597916666666664,63.80645374161028
1373729022.75,2.7486442916666665,32.707499999999996,74.34666663936001,-2.2223697916666665,63.76135833180228
1373729023.0,2.775616708333333,32.70916666666667,74.29333333333334,-0.6040625000000001,63.701665192229136
1373729023.25,2.8110956666666667,32.71083333333333,74.24000002730666,2.244270833333333,63.648729250477366
1373729023.5,2.8473751666666662,32.7125,74.18666666666667,4.6629427083333335,63.62166539564793
1373729023.75,2.885095625,32.71541666666666,74.13333330602667,6.079583333333333,63.58412092741502
1373729024.0,2.9238835,32.71958333333333,74.08,6.91515625,63.603510627736455
1373729024.25,2.9626713750000007,32.723749999999995,74.03333335722667,6.358177083333332,63.57758648345315
1373729024.5,3.0003918333333335,32.727916666666665,73.98666666666666,5.941692708333334,63.51212306501045
1373729024.75,3.0372584166666665,32.73083333333333,73.93999997610666,5.358828125,63.451332076217916
1373729025.0,3.070122291666667,32.732499999999995,73.89333333333333,4.359583333333333,63.40867470610345
1373729025.25,3.097595833333333,32.73416666666666,73.8391666944,4.068463541666667,63.39332319223053
1373729025.5,3.1209065833333334,32.735833333333325,73.785,4.105807291666667,63.37165671588516
1373729025.75,3.133276541666667,32.74,73.7308333056,3.6229947916666667,63.3622888141573
1373729026.0,3.1286007916666665,32.74666666666666,73.67666666666668,3.4940364583333334,63.35188798616979
1373729026.25,3.1123764583333333,32.75333333333333,73.62000002901334,2.483567708333333,63.34033517994442
1373729026.5,3.092202791666667,32.76,73.56333333333333,1.6795833333333334,63.328740632249264
1373729026.75,3.070908375,32.766666666666666,73.50666663765334,1.6192708333333332,63.31821416542849
1373729027.0,3.048599916666667,32.77333333333333,73.45,1.7053385416666667,63.30768769860774
1373729027.25,3.022608958333333,32.78,73.39583336106666,2.2530729166666665,63.30425552122629
1373729027.5,2.993309083333333,32.78666666666667,73.34166666666667,2.4322916666666665,63.348042092396355
1373729027.75,2.963635625,32.792500000000004,73.28749997226667,2.625390625,63.411275166913065
1373729028.0,2.9363104583333333,32.7975,73.23333333333333,2.900052083333333,63.477968281211
1373729028.25,2.9122408333333336,32.8025,73.19333335381333,2.89234375,63.54478322069286
1373729028.5,2.89132,32.8075,73.15333333333334,2.7262239583333336,63.61135448017114
1373729028.75,2.87322775,32.81125,73.11333331285333,2.7525260416666666,63.67699505253767
1373729029.0,2.8589781249999997,32.813750000000006,73.07333333333332,2.5567968750000003,63.74673425217008
1373729029.25,2.84787725,32.816250000000004,73.04666668031999,2.5778125,63.817381720401016
1373729029.5,2.838751041666667,32.81875,73.01999999999998,2.2491145833333333,63.888846265205295
1373729029.75,2.832293333333333,32.82125,72.99333331967999,1.6736197916666666,63.96026902873134
1373729030.0,2.828504125,32.823750000000004,72.96666666666665,1.0793229166666667,64.03558837840977
1373729030.25,2.8292512916666666,32.82625,72.95000000853332,0.5829947916666666,64.1214123775473
1373729030.5,2.8341612916666663,32.82875000000001,72.93333333333332,0.34184895833333323,64.16271920226389
1373729030.75,2.8399785833333335,32.8325,72.91666665813332,-0.40679687500000017,64.15588883657438
1373729031.0,2.848250833333333,32.8375,72.89999999999999,-1.459713541666667,64.14783945094915
1373729031.25,2.8610594999999996,32.8425,72.89333333674666,-2.5493229166666667,64.12376969901003
1373729031.5,2.8792584583333336,32.847500000000004,72.88666666666666,-3.294557291666667,64.10848657059385
1373729031.75,2.908024583333333,32.85208333333333,72.87999999658666,-3.1500781250000003,64.13328277676708
1373729032.0,2.9495994166666666,32.856249999999996,72.87333333333333,-2.6076562500000002,64.15883951521445
1373729032.25,3.0000952916666663,32.86041666666667,72.86833333589334,-2.2709895833333333,64.17262653461118
1373729032.5,3.0501642083333333,32.864583333333336,72.86333333333334,-1.4377083333333334,64.20417966303016
1373729032.75,3.098685375,32.86875,72.85833333077333,-0.5585937500000001,64.2468354851106
1373729033.0,3.1455520833333335,32.87291666666666,72.85333333333334,0.35479166666666656,64.26271540537965
1373729033.25,3.191564916666666,32.87708333333334,72.8491666688,0.8123697916666665,64.26924321674042
1373729033.5,3.236723833333334,32.88125,72.845,0.5447135416666665,64.28913674543104
1373729033.75,3.2794360000000005,32.884166666666665,72.8408333312,0.63078125,64.35796960626435
1373729034.0,3.318305583333333,32.88583333333333,72.83666666666666,1.0511979166666665,64.41194508380022
1373729034.25,3.352798875,32.8875,72.83916666538667,1.7508593749999999,64.47888439571854
1373729034.5,3.3819018750000005,32.88916666666667,72.84166666666667,2.0991927083333333,64.53816959500165
1373729034.75,3.400437708333333,32.89083333333333,72.84416666794667,1.0877864583333332,64.56024475809753
1373729035.0,3.406004708333333,32.892500000000005,72.84666666666668,-0.33117187499999995,64.57413498130191
1373729035.25,3.3979541666666666,32.89416666666666,72.86333332480001,-1.4580989583333335,64.60969404247173
1373729035.5,3.389369916666667,32.895833333333336,72.88000000000001,-2.7392187500000005,64.62752106915687
1373729035.75,3.3807856666666667,32.8975,72.89666667520001,-4.00875,64.6304290892956
1373729036.0,3.3722014166666665,32.899166666666666,72.91333333333334,-5.362942708333333,64.6789186238269
1373729036.25,3.363617166666667,32.90083333333333,72.93666665472001,-6.507786458333334,64.7259087207555
1373729036.5,3.355032916666666,32.902499999999996,72.96000000000001,-7.176302083333334,64.73018709216444
1373729036.75,3.342864666666666,32.90416666666666,72.98333334528,-7.560989583333334,64.70552159245901
1373729037.0,3.3241319583333335,32.905833333333334,73.00666666666667,-7.669401041666666,64.6929544840966
1373729037.25,3.300809458333333,32.90749999999999,73.03416665258668,-7.787473958333334,64.66924348247424
1373729037.5,3.274978583333333,32.909166666666664,73.06166666666667,-7.362057291666667,64.62731223245638
1373729037.75,3.2469061666666668,32.91,73.08916668074667,-6.321796875,64.58373036570755
1373729038.0,3.2182467083333335,32.91,73.11666666666667,-5.278932291666666,64.54635422490487
1373729038.25,3.1940169583333335,32.91,73.14583331840001,-4.440755208333333,64.49932267482674
1373729038.5,3.1702141666666663,32.91,73.17500000000001,-3.575546875,64.45160725661631
1373729038.75,3.1463579999999998,32.91,73.2041666816,-2.718151041666667,64.4078706441499
1373729039.0,3.122501833333333,32.91,73.23333333333333,-1.8983333333333334,64.34102574898557
1373729039.25,3.0986456666666666,32.91,73.26416665088,-0.8857812500000001,64.26985596111696
1373729039.5,3.07489625,32.91,73.295,0.23382812499999994,64.2274777163135
1373729039.75,3.0566438750000002,32.91083333333333,73.32583334912,1.0281770833333332,64.19355548121146
1373729040.0,3.0467171250000002,32.912499999999994,73.35666666666667,1.560130208333333,64.1590998339598
1373729040.25,3.0416470416666663,32.91416666666667,73.3858333184,2.0555729166666663,64.13851974473347
1373729040.5,3.041967291666666,32.91583333333333,73.41499999999999,1.9559635416666665,64.13543299247978
1373729040.75,3.050986791666667,32.91833333333333,73.4441666816,1.8228385416666668,64.13307744842417
1373729041.0,3.06859875,32.92166666666666,73.47333333333333,1.7756510416666664,64.13165615454886
1373729041.25,3.0936290416666665,32.925000000000004,73.49916665344,1.8026822916666665,64.13676567628492
1373729041.5,3.1214345416666665,32.928333333333335,73.525,1.8515885416666666,64.14645783006263
1373729041.75,3.149293416666667,32.9325,73.55083334656,1.7128645833333334,64.15265979467445
1373729042.0,3.177152291666667,32.9375,73.57666666666667,1.6967708333333331,64.1647447854641
1373729042.25,3.2050111666666665,32.9425,73.6058333184,1.6429427083333332,64.16302463379054
1373729042.5,3.2327632916666666,32.9475,73.63499999999999,1.5473177083333332,64.1568434140335
1373729042.75,3.260515416666667,32.95166666666667,73.6641666816,1.5578124999999998,64.14415878714225
1373729043.0,3.286666458333334,32.955000000000005,73.69333333333333,1.31796875,64.1316739305541
1373729043.25,3.3112164166666673,32.958333333333336,73.72583331669333,0.9497135416666665,64.1185777669
1373729043.5,3.331550208333334,32.961666666666666,73.75833333333333,0.9621354166666665,64.09920322523207
1373729043.75,3.345426291666667,32.964166666666664,73.79083334997334,0.7626562499999999,64.08366653129231
1373729044.0,3.3512969583333336,32.965833333333336,73.82333333333334,0.2664062499999999,64.05703389252018
1373729044.25,3.3499093750000006,32.967499999999994,73.86249997994668,-0.1478125000000001,64.01938007399343
1373729044.5,3.344999416666667,32.969166666666666,73.90166666666667,-0.7291145833333333,63.992405998304655
1373729044.75,3.339449,32.97125,73.94083335338667,-1.2371354166666668,63.96957374882776
1373729045.0,3.3332581250000004,32.973749999999995,73.98,-1.5199218749999999,63.94366565469483
1373729045.25,3.3270672500000003,32.97625,74.02666664277334,-1.8682552083333335,63.945383389654914
1373729045.5,3.3208763749999997,32.97875,74.07333333333334,-2.1098697916666667,63.96093333216793
1373729045.75,3.313618125,32.981249999999996,74.12000002389334,-2.225859375,63.99679561614983
1373729046.0,3.3077475,32.98374999999999,74.16666666666667,-2.118671875,64.02999539298695
1373729046.25,3.3039049166666667,32.986250000000005,74.22083330560001,-1.9084375,64.06109649583446
1373729046.5,3.3018235,32.98875,74.275,-2.1378385416666665,64.10708974240164
1373729046.75,3.2997420833333333,32.99125,74.3291666944,-2.4727604166666666,64.15255527997193
1373729047.0,3.297660666666667,32.99375,74.38333333333334,-2.215625,64.2011101943809
1373729047.25,3.2928040000000003,32.99625,74.44749996714667,-1.8621354166666668,64.25298237923026
1373729047.5,3.2861861666666665,32.99875,74.51166666666667,-1.47171875,64.28862213747928
1373729047.75,3.2802087916666665,33.00125,74.57583336618667,-1.0478906250000002,64.32292171286052
1373729048.0,3.274871875,33.00375,74.64,-1.5750260416666666,64.35554693530288
1373729048.25,3.2695349583333333,33.00625,74.71083329706667,-2.4312760416666666,64.38003595435502
1373729048.5,3.2600352083333335,33.00875,74.78166666666667,-3.421119791666667,64.36224629070958
1373729048.75,3.2403952083333327,33.01,74.85250003626666,-4.48453125,64.30880275066588
1373729049.0,3.215676833333333,33.01,74.92333333333333,-5.215833333333333,64.32346184929692
1373729049.25,3.1886552916666666,33.01,74.99666662912,-5.480833333333333,64.31400242896144
1373729049.5,3.1603528749999996,33.01,75.07,-5.027187499999999,64.22431426409555
1373729049.75,3.1311965416666667,33.011250000000004,75.14333337088,-4.204140625,64.13058475230027
1373729050.0,3.1020402083333334,33.013749999999995,75.21666666666667,-3.73765625,64.1163111136612
1373729050.25,3.0756591249999996,33.01625,75.28833329664,-4.238802083333334,64.11487826400234
1373729050.5,3.0518931250000008,33.018750000000004,75.36000000000001,-3.683411458333333,64.10839123205822
1373729050.75,3.028981041666667,33.02,75.43166670336001,-2.490052083333333,64.10814050407346
1373729051.0,3.0060689583333335,33.02,75.50333333333334,-0.5883333333333333,64.111328984775
1373729051.25,2.9878000416666666,33.02,75.57166663168,1.5681770833333335,64.11154725783952
1373729051.5,2.9794578333333335,33.02,75.64,3.3704427083333326,64.12612709438547
1373729051.75,2.9845647500000005,33.022083333333335,75.70833336832,5.056145833333333,64.18385179156603
1373729052.0,2.996884833333333,33.02625,75.77666666666666,6.0425,64.16480252662107
1373729052.25,3.0154040416666668,33.03041666666667,75.84166663338667,6.281666666666666,64.17468318453791
1373729052.5,3.040914666666667,33.03458333333334,75.90666666666667,6.073255208333332,64.27257251840227
1373729052.75,3.0737369166666664,33.0375,75.97166669994667,5.862552083333333,64.35701976420087
1373729053.0,3.1126432916666666,33.03916666666667,76.03666666666668,5.688046875,64.34087772184965
1373729053.25,3.1559875833333333,33.04083333333333,76.09833330176001,6.394947916666666,64.31249861557843
1373729053.5,3.1997671250000006,33.0425,76.16,5.867083333333333,64.29030603815154
1373729053.75,3.24269275,33.04416666666666,76.22166669824,4.465729166666667,64.2626880623077
1373729054.0,3.2856183750000003,33.045833333333334,76.28333333333333,3.423359375,64.22569164713387
1373729054.25,3.323900833333333,33.04749999999999,76.33583330645334,2.6640885416666666,64.1720309760165
1373729054.5,3.3564194166666663,33.049166666666665,76.38833333333334,2.2127864583333334,64.15257677589189
1373729054.75,3.3866964999999998,33.05,76.44083336021333,1.5129947916666666,64.08958589649158
1373729055.0,3.4122237083333338,33.05,76.49333333333334,1.0888541666666667,64.04205192993224
1373729055.25,3.4317735000000003,33.05,76.53666664448001,0.9513541666666665,64.00833007032425
1373729055.5,3.4448655833333333,33.05,76.58000000000001,0.7439322916666667,63.95650455332905
1373729055.75,3.4507527916666665,33.05,76.62333335552,0.46817708333333324,63.92032068454248
1373729056.0,3.4505558749999996,33.05,76.66666666666667,0.026640624999999935,63.92056472589545
1373729056.25,3.445921041666667,33.05,76.69999998293333,-0.6314583333333335,63.91901736338061
1373729056.5,3.4408509583333333,33.05,76.73333333333333,-1.0640104166666668,63.91808061840718
1373729056.75,3.4357808750000003,33.05166666666666,76.76666668373333,-0.9309895833333334,63.910549897357264
1373729057.0,3.4307107916666664,33.055,76.8,-1.444895833333333,63.901914956191234
1373729057.25,3.4282024583333333,33.05833333333333,76.82916665173333,-2.416640625,63.90543675315959
1373729057.5,3.4341265,33.06166666666667,76.85833333333333,-3.1954166666666666,63.89729090202306
1373729057.75,3.4505109583333335,33.064166666666665,76.88750001493334,-3.333072916666666,63.920705903451996
1373729058.0,3.478316458333333,33.06583333333333,76.91666666666667,-3.081770833333333,63.950775812449734
1373729058.25,3.511619041666666,33.0675,76.94749998421334,-2.7495833333333337,63.956428468444386
1373729058.5,3.5452418333333338,33.06916666666667,76.97833333333334,-2.572526041666667,63.956017804350616
1373729058.75,3.5796117916666668,33.071666666666665,77.00916668245334,-2.53484375,63.95984402991581
1373729059.0,3.61398175,33.074999999999996,77.04,-2.1597135416666666,63.95781020973681
1373729059.25,3.648351708333333,33.07833333333334,77.07166665045334,-1.5581770833333335,63.95813716206829
1373729059.5,3.6827216666666662,33.08166666666667,77.10333333333334,-0.9000781250000002,63.95789424400217
1373729059.75,3.7166646666666665,33.0825,77.13500001621334,-0.4728645833333334,63.96391990030974
1373729060.0,3.74852625,33.08083333333334,77.16666666666667,0.2063281249999999,63.982031289986985
1373729060.25,3.775531208333333,33.07916666666667,77.19999998293333,1.1177343749999997,64.01294007794488
1373729060.5,3.7923425833333333,33.0775,77.23333333333333,1.8357291666666666,64.02613158593157
1373729060.75,3.7968790000000006,33.07666666666667,77.26666668373333,2.2325,64.0328849288917
1373729061.0,3.7904212916666666,33.07666666666667,77.3,2.2842447916666666,64.0288619953469
1373729061.25,3.7765985833333335,33.07666666666667,77.33416664917333,2.245234375,64.03326081229405
1373729061.5,3.7600006666666665,33.07666666666667,77.36833333333334,2.3417708333333334,64.05311236103513
1373729061.75,3.7423887083333334,33.07583333333333,77.40250001749334,2.480494791666666,64.07934267373695
1373729062.0,3.723976208333333,33.07416666666666,77.43666666666667,2.4331510416666666,64.1045872073919
1373729062.25,3.7044963333333336,33.0725,77.46999998293333,2.239114583333333,64.13294878311403
1373729062.5,3.6838957083333335,33.07083333333333,77.50333333333333,2.041145833333333,64.16462825855466
1373729062.75,3.6628681249999997,33.07,77.53666668373334,1.8731249999999997,64.18488851692693
1373729063.0,3.6433882499999997,33.07,77.57000000000001,1.7496614583333334,64.18549850434131
1373729063.25,3.6259364166666668,33.07,77.60499998208,1.6883072916666668,64.1543447024019
1373729063.5,3.610085708333333,33.07,77.64,1.6913281249999998,64.13866429372709
1373729063.75,3.5960495416666665,33.07,77.67500001792,1.5835416666666664,64.11115570670573
1373729064.0,3.584201541666667,33.07,77.71,1.53625,64.08486632511337
1373729064.25,3.575609083333333,33.07,77.74499998208,1.4212239583333333,64.05665435140976
1373729064.5,3.5697918333333334,33.07,77.78,1.2575260416666665,64.01467173313846
1373729064.75,3.5650953333333333,33.07083333333333,77.81500001792,1.3135677083333333,63.9561489913352
1373729065.0,3.5671767500000002,33.0725,77.85000000000001,1.2769010416666664,63.89186657446228
1373729065.25,3.584681958333334,33.07416666666666,77.90249997312,1.3502864583333334,63.82225258563603
1373729065.5,3.616490166666667,33.07583333333333,77.95500000000001,1.51109375,63.74886953954107
1373729065.75,3.656901625,33.0775,78.00750002688001,1.4228645833333333,63.68038266150171
1373729066.0,3.7015400416666666,33.07916666666667,78.06,1.5248437499999998,63.6265980775572
1373729066.25,3.747619416666667,33.08083333333334,78.13083329706667,1.4004947916666668,63.591111851790906
1373729066.5,3.7945527083333332,33.0825,78.20166666666667,1.3212760416666665,63.555715265347054
1373729066.75,3.842926958333333,33.08416666666667,78.27250003626666,1.5935416666666666,63.5299523911416
1373729067.0,3.8926354166666663,33.08583333333334,78.34333333333333,1.7746874999999998,63.50365552635544
1373729067.25,3.942343875,33.0875,78.41166663167999,1.9558072916666667,63.48001693340655
1373729067.5,3.9920523333333335,33.08916666666667,78.47999999999999,2.222760416666667,63.45906172714809
1373729067.75,4.041654083333333,33.09,78.54833336832,2.1302864583333334,63.434721024253
1373729068.0,4.083944249999999,33.09,78.61666666666666,2.3078645833333336,63.41550516931735
1373729068.25,4.110437041666667,33.09,78.66999997269333,2.3924479166666663,63.39838041803768
1373729068.5,4.1237475833333335,33.09,78.72333333333333,2.30375,63.3818302505384
1373729068.75,4.1284015,33.090833333333336,78.77666669397333,2.418802083333333,63.37574938790157
1373729069.0,4.127174,33.0925,78.83,2.2025260416666668,63.37418891239751
1373729069.25,4.121516833333334,33.09416666666667,78.86583331498666,2.186354166666667,63.37562582974932
1373729069.5,4.111002999999999,33.09583333333334,78.90166666666667,2.0559114583333336,63.36806490372976
1373729069.75,4.095258958333333,33.09583333333334,78.93750001834667,1.6579166666666667,63.36601096003119
1373729070.0,4.074818458333334,33.09416666666667,78.97333333333333,1.4008333333333336,63.36605251690633
1373729070.25,4.0523499166666666,33.0925,79.0191666432,1.1756510416666666,63.3675321410554
1373729070.5,4.0286005,33.09083333333333,79.065,1.0214843749999998,63.37348815811999
1373729070.75,4.0031432916666665,33.09,79.1108333568,1.0287239583333332,63.404287581513614
1373729071.0,3.977152333333334,33.089999999999996,79.15666666666667,0.8002864583333332,63.44481259845907
1373729071.25,3.952602333333333,33.09,79.2108333056,0.5369010416666666,63.49426894040541
1373729071.5,3.928052333333333,33.089999999999996,79.265,0.20169270833333322,63.55187137860065
1373729071.75,3.9044096249999996,33.08916666666667,79.3191666944,-0.08856770833333344,63.60886266669388
1373729072.0,3.8829550833333335,33.0875,79.37333333333333,-0.07729166666666677,63.65497708368141
1373729072.25,3.8647560833333334,33.08583333333333,79.42916663808,-0.07945312500000011,63.70385395775534
1373729072.5,3.8510401249999995,33.08416666666667,79.48500000000001,0.07656249999999988,63.78560627217877
1373729072.75,3.8439419999999997,33.08416666666667,79.54083336192001,0.004374999999999893,63.86938750404689
1373729073.0,3.841753833333333,33.08583333333333,79.59666666666668,-0.2917447916666667,63.9449711425028
1373729073.25,3.8419672916666667,33.087500000000006,79.6508333056,-0.3853385416666668,64.01890858122447
1373729073.5,3.8442087916666665,33.08916666666667,79.70500000000001,-0.6883333333333335,64.09890088622022
1373729073.75,3.8486384166666667,33.089166666666664,79.75916669440001,-0.9681510416666668,64.1536327540192
1373729074.0,3.8564837083333328,33.0875,79.81333333333333,-1.0459635416666668,64.19035958510223
1373729074.25,3.8685985833333327,33.08583333333334,79.86416664064,-0.8905468750000001,64.21098488559444
1373729074.5,3.881780875,33.08416666666667,79.91499999999999,-0.5889062500000001,64.2233406636076
1373729074.75,3.894963166666667,33.0825,79.96583335936,-0.4332291666666667,64.23236133587308
1373729075.0,3.9082522083333333,33.08083333333334,80.01666666666667,-0.4765885416666667,64.24691744174615
1373729075.25,3.92356925,33.079166666666666,80.07333330432,-0.6598437500000001,64.25797193079622
1373729075.5,3.940060416666667,33.0775,80.13,-0.9378125000000002,64.24412239503992
1373729075.75,3.95505725,33.07750000000001,80.18666669567999,-0.5850781250000001,64.22265462473841
1373729076.0,3.96957375,33.079166666666666,80.24333333333333,-0.027135416666666756,64.20782354269004
1373729076.25,3.9841436249999997,33.08083333333334,80.30583330133332,0.3084114583333332,64.19274992807821
1373729076.5,3.9979663333333337,33.0825,80.36833333333334,1.0588020833333334,64.17039094125148
1373729076.75,4.013230041666667,33.085,80.43083336533334,1.7453645833333333,64.15555939169856
1373729077.0,4.0319627916666665,33.08833333333333,80.49333333333334,2.0468489583333334,64.13680052585043
1373729077.25,4.0476534583333335,33.09166666666667,80.55749996714667,1.8921093749999998,64.12037429530547
1373729077.5,4.062276708333333,33.095,80.62166666666667,1.737421875,64.1031335165563
1373729077.75,4.076899958333333,33.098333333333336,80.68583336618667,1.907109375,64.08752183421556
1373729078.0,4.091416458333333,33.10166666666667,80.75,2.041848958333333,64.07991557080213
1373729078.25,4.103904958333334,33.105,80.81999996415999,2.317317708333333,64.08964976183212
1373729078.5,4.114899125,33.108333333333334,80.88999999999999,2.5254947916666666,64.09938395286213
1373729078.75,4.121997291666666,33.11,80.96000003584,2.139010416666667,64.10911814389213
1373729079.0,4.124452291666667,33.11,81.02999999999999,1.7797135416666665,64.11885233492212
1373729079.25,4.122957958333333,33.11,81.10083329706666,1.531536458333333,64.12858652595213
1373729079.5,4.118314833333333,33.11,81.17166666666665,0.8251562499999999,64.13832071698212
1373729079.75,4.109989166666666,33.11083333333333,81.24250003626666,0.2572656249999999,64.14805490801213
1373729080.0,4.096646750000001,33.112500000000004,81.31333333333333,0.015781249999999924,64.1692543330702
1373729080.25,4.082076833333333,33.11416666666667,81.38666662912,0.08679687499999993,64.19541475464516
1373729080.5,4.067506916666667,33.115833333333335,81.46000000000001,0.37638020833333324,64.22238972442433
1373729080.75,4.052937,33.11666666666667,81.53333337088,0.3408072916666666,64.24773559779507
1373729081.0,4.038367083333333,33.11666666666667,81.60666666666667,0.20536458333333327,64.26507605223851
1373729081.25,4.022569666666667,33.11666666666667,81.67749996373334,0.20833333333333323,64.26507605223851
1373729081.5,4.006025083333333,33.11666666666667,81.74833333333333,0.32231770833333323,64.26507605223851
1373729081.75,3.9930562916666665,33.1175,81.81916670293333,0.7526041666666665,64.26507605223851
1373729082.0,3.983663291666667,33.11916666666667,81.89,1.1339322916666665,64.26507605223851
1373729082.25,3.977792666666667,33.12083333333334,81.95916663125334,1.2067447916666665,64.26507605223851
1373729082.5,3.9750708333333336,33.1225,82.02833333333334,1.5463281249999998,64.26487337953584
1373729082.75,3.972722625,33.123333333333335,82.09750003541333,1.8771354166666665,64.25968295141747
1373729083.0,3.9684530833333334,33.123333333333335,82.16666666666667,2.105859375,64.23769882301181
1373729083.25,3.964183541666667,33.123333333333335,82.2333332992,2.2196354166666663,64.22031067964458
1373729083.5,3.959914,33.123333333333335,82.30000000000001,1.6252083333333331,64.20597910003667
1373729083.75,3.9556444583333334,33.12416666666667,82.36666670080001,0.8955989583333333,64.19956586484388
1373729084.0,3.951374916666667,33.12583333333334,82.43333333333334,0.7670312499999999,64.18047859438921
1373729084.25,3.950254208333334,33.127500000000005,82.48999997098667,0.39981770833333324,64.14636737900437
1373729084.5,3.9597006250000004,33.12916666666667,82.54666666666668,-0.30210937500000007,64.1226463902853
1373729084.75,3.9763551666666674,33.12916666666667,82.60333336234667,-0.6596354166666667,64.09277736078481
1373729085.0,3.9943439166666668,33.127500000000005,82.66000000000001,-1.3155729166666668,64.0602567356359
1373729085.25,4.012496041666666,33.12583333333333,82.71833330346668,-1.1470052083333335,64.01866978885943
1373729085.5,4.0306481666666665,33.12416666666667,82.77666666666667,-0.5367708333333333,63.96773156104185
1373729085.75,4.050187875000001,33.1225,82.83500002986666,-0.8257552083333333,63.919653846423735
1373729086.0,4.071648916666667,33.12083333333334,82.89333333333333,-0.9832291666666668,63.88214334994654
1373729086.25,4.093109958333334,33.119166666666665,82.95583330133333,-0.9997395833333335,63.8283054581672
1373729086.5,4.114090666666667,33.1175,83.01833333333333,-0.21986979166666676,63.76664451586425
1373729086.75,4.134804541666667,33.115833333333335,83.08083336533333,0.8228385416666666,63.6946814796997
1373729087.0,4.155198208333334,33.11416666666667,83.14333333333333,1.1605468749999999,63.635392478797
1373729087.25,4.173350333333334,33.1125,83.20333330261333,1.5301562499999999,63.591127422824485
1373729087.5,4.181202166666666,33.11083333333333,83.26333333333332,2.4433854166666666,63.53647214018622
1373729087.75,4.180831833333333,33.11,83.32333336405333,2.7365885416666664,63.487964898329345
1373729088.0,4.17832675,33.11,83.38333333333333,3.4303385416666665,63.44210925212089
1373729088.25,4.174003833333334,33.11,83.42749997738666,3.606380208333333,63.40531992754001
1373729088.5,4.167812958333333,33.11,83.47166666666666,2.978307291666667,63.37808455670291
1373729088.75,4.159647416666666,33.11,83.51583335594667,3.362395833333333,63.35297642808203
1373729089.0,4.149187,33.11,83.56,3.7047135416666666,63.33409478160754
1373729089.25,4.135524416666667,33.11,83.59333331626667,3.985833333333334,63.32788994161788
1373729089.5,4.120097375,33.11,83.62666666666667,4.019557291666667,63.33294435529613
1373729089.75,4.104937166666667,33.11083333333333,83.66000001706668,4.26875,63.34083428753624
1373729090.0,4.089773708333333,33.1125,83.69333333333334,4.790572916666666,63.348724219776365
1373729090.25,4.07461025,33.11416666666667,83.72916664832,5.294270833333333,63.35661415201648
1373729090.5,4.059286666666667,33.115833333333335,83.765,5.323177083333333,63.3645040842566
1373729090.75,4.042949083333333,33.1175,83.80083335168,5.546901041666666,63.37239401649672
1373729091.0,4.02671825,33.119166666666665,83.83666666666666,5.673619791666666,63.38028394873685
1373729091.25,4.012141875,33.12083333333334,83.878333312,5.60796875,63.38817388097698
1373729091.5,3.9994334583333333,33.1225,83.91999999999999,5.8586197916666665,63.39606381321709
1373729091.75,3.9886997083333338,33.12416666666667,83.961666688,5.760156249999999,63.403953745457216
1373729092.0,3.9753508333333336,33.12583333333333,84.00333333333333,5.482838541666666,63.411843677697334
1373729092.25,3.9558644583333336,33.127500000000005,84.0491666432,5.251796874999999,63.41878821371632
1373729092.5,3.933125791666667,33.12916666666667,84.095,5.009505208333334,63.419239982831705
1373729092.75,3.9091596249999996,33.13,84.1408333568,4.411015625,63.419485869260875
1373729093.0,3.8839692083333333,33.13,84.18666666666667,3.6515364583333336,63.42145596165693
1373729093.25,3.8559502083333332,33.13,84.228333312,2.712890625,63.42235879549858
1373729093.5,3.8261700416666664,33.13,84.27000000000001,2.093203125,63.42153710201274
1373729093.75,3.797403875,33.13,84.311666688,1.7996354166666668,63.420427987305665
1373729094.0,3.7693315,33.13,84.35333333333334,1.1099479166666668,63.41903145137734
1373729094.25,3.742113041666667,33.13,84.38583331669334,0.24598958333333332,63.422355674079455
1373729094.5,3.7148945833333333,33.13,84.41833333333334,-0.7501041666666667,63.43732151371511
1373729094.75,3.687676125,33.13,84.45083334997334,-1.2539322916666669,63.4527378409469
