timestamp,EDA,TEMP,HR,BVP,ACC_mag
1374223975.0,0.09534991666666666,34.05,,11.168333333333335,63.522540559280436
1374223975.25,0.09516707142857143,34.05,,10.560714285714285,63.504047896020765
1374223975.5,0.09502993750000001,34.05,,10.105,63.480932510244784
1374223975.75,0.09478105555555555,34.05,,9.84125,63.461144658491236
1374223976.0,0.09451795,34.05,,9.60584375,63.44408020708131
1374223976.25,0.09424454545454547,34.05,,9.068607954545454,63.42989388780097
1374223976.5,0.09391008333333334,34.05,,8.514635416666666,63.41362534031169
1374223976.75,0.09327020833333333,34.049166666666665,,8.434244791666666,63.39717663221696
1374223977.0,0.09279029166666668,34.04749999999999,,8.507708333333333,63.357312735019384
1374223977.25,0.09220370833333334,34.045833333333334,,7.831302083333334,63.310729521943955
1374223977.5,0.09161712500000001,34.04416666666666,,6.405755208333335,63.287437001622436
1374223977.75,0.09097720833333332,34.04083333333333,,5.5241927083333335,63.27370815074556
1374223978.0,0.09033729166666667,34.03583333333333,,5.1977343750000005,63.25947077519598
1374223978.25,0.08975070833333333,34.030833333333334,,5.069140625,63.24066604757345
1374223978.5,0.089164125,34.02583333333333,,5.365468749999999,63.2318554407128
1374223978.75,0.088630875,34.02,,5.827864583333334,63.21982951188695
1374223979.0,0.088097625,34.013333333333335,,5.601588541666666,63.20883205806698
1374223979.25,0.08761766666666666,34.00666666666667,,5.553906250000001,63.19667947239012
1374223979.5,0.08724433333333333,34.0,,5.968880208333332,63.18633132257789
1374223979.75,0.08687099999999999,33.995,,5.171796875,63.15637919643175
1374223980.0,0.08660433333333334,33.99166666666667,,3.334505208333333,63.10697716584236
1374223980.25,0.08633766666666666,33.98833333333334,,2.0437760416666664,63.05984996305137
1374223980.5,0.08591104166666667,33.98500000000001,,1.7578645833333333,63.000593604804344
1374223980.75,0.08431120833333333,33.9825,,1.5022395833333333,62.92969033247726
1374223981.0,0.08111154166666666,33.98083333333334,,0.7188281249999999,62.87138874218484
1374223981.25,0.07732529166666667,33.979166666666664,,0.2651822916666666,62.81576189861172
1374223981.5,0.07353904166666667,33.9775,,-0.6215104166666667,62.76773963686949
1374223981.75,0.069806125,33.975833333333334,,-1.8980729166666668,62.746667444513236
1374223982.0,0.06612654166666666,33.97416666666667,,-2.008515625,62.733910642096525
1374223982.25,0.06228695833333333,33.972500000000004,,-1.533515625,62.74017293154941
1374223982.5,0.058447374999999996,33.97083333333334,,-1.9604947916666664,62.76060099667203
1374223982.75,0.054501125000000004,33.9675,,-1.0628385416666666,62.8069657868476
1374223983.0,0.05066154166666667,33.9625,,1.80046875,62.87746709382737
1374223983.25,0.04724858333333334,33.9575,,4.732187499999999,62.9535778088742
1374223983.5,0.04479550000000001,33.9525,,5.733125000000001,63.03715585731635
1374223983.75,0.04426220833333333,33.94833333333333,,5.760911458333333,63.130527815171895
1374223984.0,0.045915333333333336,33.945,,5.891718749999999,63.21644612072449
1374223984.25,0.04874166666666666,33.94166666666667,,5.164661458333334,63.306670446900405
1374223984.5,0.05204795833333333,33.93833333333333,,3.4609635416666666,63.38234774803453
1374223984.75,0.05562087499999999,33.935833333333335,,2.1888541666666668,63.43462269592376
1374223985.0,0.05919379166666667,33.93416666666666,73.625,0.6649739583333333,63.47829533155063
1374223985.25,0.06292670833333333,33.9325,74.11458308266667,-1.2685677083333335,63.50430979461433
1374223985.5,0.066659625,33.93083333333333,74.60416666666666,-1.9883593750000002,63.51880066089934
1374223985.75,0.07049920833333333,33.928333333333335,75.09375025066666,-2.8358072916666672,63.52860669955087
1374223986.0,0.074232125,33.925,75.58333333333333,-5.134322916666667,63.536155982578386
1374223986.25,0.07759175,33.92166666666667,76.82666603007999,-7.784140625,63.537346262996046
1374223986.5,0.08020479166666666,33.91833333333333,78.07,-8.939088541666667,63.536690440543886
1374223986.75,0.08212458333333333,33.915,79.31333396992001,-9.050729166666667,63.536075606994984
1374223987.0,0.08345779166666667,33.91166666666667,80.55666666666667,-8.52890625,63.53554275125261
1374223987.25,0.084204375,33.90833333333334,81.25083297792,-7.507526041666666,63.53111906132332
1374223987.5,0.084471,33.905,81.945,-5.474895833333334,63.52980761939718
1374223987.75,0.084471,33.90083333333333,82.63916702208,-3.664973958333334,63.531364741020155
1374223988.0,0.084471,33.895833333333336,83.33333333333333,-2.0578125000000003,63.53734496559908
1374223988.25,0.084471,33.89083333333333,83.94416635392,-0.49958333333333327,63.540295035442796
1374223988.5,0.084471,33.88583333333333,84.55499999999999,-0.02645833333333326,63.54709015845072
1374223988.75,0.084471,33.88125,85.16583364607999,-0.05265624999999991,63.551800749828885
1374223989.0,0.084471,33.87708333333334,85.77666666666666,0.2094531250000001,63.553603226906965
1374223989.25,0.084471,33.87291666666666,86.03999986517333,0.46453125000000006,63.552946433022214
1374223989.5,0.084471,33.86875,86.30333333333333,0.4171354166666667,63.55335622056572
1374223989.75,0.08441766666666667,33.864583333333336,86.56666680149333,0.13190104166666672,63.54953944037567
1374223990.0,0.08431100000000001,33.86041666666667,86.83,-1.0239843750000002,63.52784836648334
1374223990.25,0.08351108333333335,33.856249999999996,86.83416666453333,-2.356484375,63.49462137359881
1374223990.5,0.08228454166666667,33.85208333333333,86.83833333333332,-3.883203125,63.432354367279515
1374223990.75,0.081058,33.848333333333336,86.84250000213332,-6.003281250000001,63.36662235386505
1374223991.0,0.07929820833333334,33.845,86.84666666666665,-8.402942708333333,63.28242328302972
1374223991.25,0.077005125,33.84166666666667,86.85166666410666,-10.703203125,63.203209389000655
1374223991.5,0.07471204166666667,33.83833333333333,86.85666666666665,-11.284036458333334,63.11710780300586
1374223991.75,0.07257895833333335,33.83625,86.86166666922666,-11.445338541666667,63.041287782422565
1374223992.0,0.070445875,33.83541666666667,86.86666666666667,-12.070130208333333,62.96709130262823
1374223992.25,0.06831279166666666,33.834583333333335,86.88083332608001,-13.293880208333333,62.89423091738441
1374223992.5,0.06617970833333334,33.83375,86.89500000000001,-15.220833333333333,62.78378375745478
1374223992.75,0.06431325,33.83041666666667,86.90916667392,-18.131744791666666,62.69778031895893
1374223993.0,0.06282008333333333,33.82458333333333,86.92333333333333,-19.707708333333333,62.660334130518756
1374223993.25,0.0622335,33.81875,86.93333332821334,-14.136979166666668,62.66541306060171
1374223993.5,0.06207354166666667,33.812916666666666,86.94333333333333,-4.642994791666667,62.72380421716844
1374223993.75,0.061913583333333334,33.8075,86.95333333845332,4.579505208333333,62.78366037370309
1374223994.0,0.06255354166666667,33.8025,86.96333333333332,10.400572916666667,62.870398585180965
1374223994.25,0.06372679166666667,33.7975,86.95833333589333,10.187031249999999,62.95358538104886
1374223994.5,0.06495337500000001,33.7925,86.95333333333333,7.607291666666666,63.03969201621528
1374223994.75,0.06607325,33.78291666666667,86.94833333077334,6.111744791666666,63.11735601859396
1374223995.0,0.067193125,33.768750000000004,86.94333333333334,5.815729166666667,63.19282066185989
1374223995.25,0.06836629166666668,33.754583333333336,86.86666670592001,4.9109114583333335,63.256448595038904
1374223995.5,0.06953945833333333,33.74041666666667,86.79,5.048203125,63.371688576184084
1374223995.75,0.07044604166666667,33.72833333333333,86.71333329408,8.320494791666667,63.46728485793687
1374223996.0,0.07103266666666667,33.718333333333334,86.63666666666667,10.988541666666668,63.53162472902841
1374223996.25,0.07135266666666668,33.708333333333336,86.50583340032,6.083125,63.56407409097938
1374223996.5,0.07167266666666668,33.69833333333333,86.375,-3.0651562499999994,63.57327559727346
1374223996.75,0.07199266666666666,33.6875,86.24416659968001,-11.214114583333334,63.58324783412122
1374223997.0,0.072046,33.67583333333334,86.11333333333334,-15.118619791666667,63.57894850489742
1374223997.25,0.07215262500000001,33.66416666666667,85.94416675328,-12.639479166666668,63.57800681946201
1374223997.5,0.07220591666666666,33.6525,85.775,-9.06046875,63.57649182677621
1374223997.75,0.072152625,33.64625,85.60583324672001,-6.734947916666667,63.57546815355082
1374223998.0,0.072152625,33.64541666666667,85.43666666666667,-5.086588541666667,63.578706396121795
1374223998.25,0.07209933333333333,33.64458333333334,85.28916674218667,-2.2490104166666667,63.59707399324458
1374223998.5,0.07204604166666667,33.643750000000004,85.14166666666668,-0.06252604166666666,63.598794356168064
1374223998.75,0.07209933333333333,33.6425,84.99416659114668,0.09330729166666668,63.60063710841388
1374223999.0,0.07215262500000001,33.64083333333333,84.84666666666668,-0.03999999999999998,63.601784356408444
1374223999.25,0.07225920833333334,33.63916666666666,84.72250006357335,0.3931250000000001,63.60366914087672
1374223999.5,0.07236579166666667,33.637499999999996,84.59833333333334,1.7077864583333335,63.60424293458971
1374223999.75,0.07247237499999999,33.63666666666667,84.47416660309334,2.9238802083333337,63.60719015308555
1374224000.0,0.07257895833333333,33.63666666666667,84.35000000000001,3.5699739583333336,63.611202899585315
1374224000.25,0.07263225,33.63666666666667,84.24666671957334,3.5612760416666673,63.6036959814345
1374224000.5,0.07263225,33.63666666666666,84.14333333333335,3.4448437500000004,63.60086615131495
1374224000.75,0.07268554166666667,33.635,84.03999994709334,3.5553385416666665,63.59020442825269
1374224001.0,0.07263225,33.63166666666667,83.93666666666667,3.8832291666666667,63.56841732156912
1374224001.25,0.07257895833333333,33.62833333333334,83.84500004693334,4.8305468750000005,63.53874139229697
1374224001.5,0.07252566666666667,33.625,83.75333333333333,5.553958333333334,63.517819866826414
1374224001.75,0.07236574999999999,33.62166666666667,83.66166661973332,5.254869791666667,63.48805313066105
1374224002.0,0.0721525,33.61833333333333,83.57,6.397942708333333,63.46881417838042
1374224002.25,0.07193925,33.615,83.48750004224,8.291223958333335,63.44788875787674
1374224002.5,0.071726,33.611666666666665,83.405,9.746979166666668,63.42663322275384
1374224002.75,0.07151275,33.608333333333334,83.32249995775999,10.782343750000003,63.39782504937933
1374224003.0,0.0712995,33.605,83.24,11.102005208333333,63.37538943114378
1374224003.25,0.07108625,33.60166666666667,83.177500032,11.656875000000001,63.358847169002644
1374224003.5,0.07092629166666667,33.598333333333336,83.115,11.896901041666666,63.340256454736966
1374224003.75,0.07076633333333333,33.59583333333334,83.05249996799999,11.666822916666668,63.33599184086799
1374224004.0,0.07065966666666666,33.594166666666666,82.99,11.327291666666667,63.3412531175964
1374224004.25,0.070553,33.5925,82.95333335210665,10.201875,63.35059072915798
1374224004.5,0.07044633333333333,33.590833333333336,82.91666666666666,9.639843749999999,63.35334544879722
1374224004.75,0.070393,33.590833333333336,82.87999998122666,10.016041666666668,63.366097932666804
1374224005.0,0.070393,33.59250000000001,82.84333333333332,8.823567708333334,63.367948571507895
1374224005.25,0.070393,33.594166666666666,82.81833334613333,6.881432291666667,63.373579964112146
1374224005.5,0.07044633333333333,33.59583333333334,82.79333333333332,4.929375,63.3797459894603
1374224005.75,0.07055299999999999,33.59666666666667,82.76833332053333,3.3240364583333335,63.39289768123172
1374224006.0,0.07060633333333334,33.59666666666667,82.74333333333334,2.1723177083333334,63.39918203880001
1374224006.25,0.07065966666666666,33.59666666666667,82.72416667648001,0.9268229166666667,63.417781127138255
1374224006.5,0.070713,33.59666666666667,82.70500000000001,0.3647916666666667,63.430794780849446
1374224006.75,0.07076633333333333,33.59666666666667,82.68583332352,-0.12921874999999994,63.42561819501547
1374224007.0,0.07081966666666667,33.59666666666667,82.66666666666667,-1.0359895833333332,63.42327508578081
1374224007.25,0.07087299999999999,33.59666666666667,82.65083334144,-1.678359375,63.42688494354022
1374224007.5,0.07092633333333333,33.59666666666667,82.635,-2.261796875,63.42339233014317
1374224007.75,0.071033,33.59583333333334,82.61916665856,-2.40265625,63.41472030395576
1374224008.0,0.07113966666666667,33.594166666666666,82.60333333333334,-2.1446354166666666,63.40624898937302
1374224008.25,0.07124633333333334,33.5925,82.62583332181333,-2.207578125,63.38563549062286
1374224008.5,0.07129966666666666,33.590833333333336,82.64833333333334,-2.281067708333333,63.367329069147864
1374224008.75,0.07129966666666666,33.59,82.67083334485334,-2.027421875,63.34322147673166
1374224009.0,0.07140629166666666,33.59,82.69333333333333,-0.14236979166666658,63.320347810611054
1374224009.25,0.071672875,33.59,82.74999997098666,2.52515625,63.28696187271103
1374224009.5,0.07199279166666667,33.59,82.80666666666667,4.897083333333333,63.256568793605936
1374224009.75,0.07252604166666667,33.59,82.86333336234667,7.445260416666667,63.23659467989528
1374224010.0,0.073112625,33.59,82.92,10.651276041666666,63.21662996911298
1374224010.25,0.07369920833333334,33.59,82.99666662741333,14.491276041666666,63.19635457287466
1374224010.5,0.07428579166666667,33.59,83.07333333333334,18.146119791666667,63.18685025555712
1374224010.75,0.07481904166666667,33.59,83.15000003925334,21.18828125,63.18545045968579
1374224011.0,0.07535229166666667,33.59,83.22666666666667,23.735312499999996,63.17668184068418
1374224011.25,0.075938875,33.59,83.2933332992,26.528385416666666,63.182408445627914
1374224011.5,0.07652545833333334,33.59,83.36000000000001,29.201953125,63.187721642523705
1374224011.75,0.07705870833333334,33.59,83.42666670080001,31.70731770833333,63.20414695090539
1374224012.0,0.07748533333333334,33.59,83.49333333333334,31.416432291666666,63.221804928006925
1374224012.25,0.077752,33.59,83.54666663936,28.064921875,63.24349725067385
1374224012.5,0.07796533333333333,33.59,83.6,23.53109375,63.269586859762654
1374224012.75,0.07796533333333334,33.59,83.65333336064,19.217057291666666,63.30200079074108
1374224013.0,0.07785866666666667,33.59,83.70666666666666,14.909869791666667,63.33845775443294
1374224013.25,0.07780533333333332,33.59,83.73999998293334,9.896328125,63.36292281079659
1374224013.5,0.07785866666666667,33.59,83.77333333333334,4.965416666666667,63.37920467840896
1374224013.75,0.07796533333333334,33.59,83.80666668373334,-0.23080729166666605,63.39104178679232
1374224014.0,0.078072,33.59,83.84000000000002,-4.125598958333334,63.41702376180381
1374224014.25,0.07812533333333334,33.59,83.85499999232002,-6.376484375,63.4366711225866
1374224014.5,0.07817866666666666,33.59,83.87,-8.609192708333333,63.45052642195326
1374224014.75,0.07828533333333333,33.59,83.88500000768,-11.418541666666664,63.45911235481944
1374224015.0,0.07844533333333334,33.59,83.9,-12.980390624999998,63.47855112626425
1374224015.25,0.07860533333333333,33.59,83.90583333034668,-12.174635416666666,63.5052263503504
1374224015.5,0.07876533333333334,33.59,83.91166666666668,-9.347135416666665,63.53906431955809
1374224015.75,0.07892533333333333,33.59,83.91750000298667,-6.4588802083333325,63.559812829895264
1374224016.0,0.07913866666666668,33.59,83.92333333333335,-4.185182291666666,63.58115187707622
1374224016.25,0.079352,33.59,83.93916665856001,-2.793203125,63.61051306038368
1374224016.5,0.07945866666666668,33.59,83.95500000000001,-1.3691145833333331,63.70164318748365
1374224016.75,0.079512,33.59,83.97083334144,1.4820572916666668,63.951641895733
1374224017.0,0.07951200000000001,33.59,83.98666666666666,3.36765625,64.39936056331008
1374224017.25,0.07929866666666667,33.59,84.01166665386667,3.4227343750000006,64.73914148741532
1374224017.5,0.07881866666666668,33.59,84.03666666666666,2.6873177083333335,64.99744254692645
1374224017.75,0.07801870833333334,33.59,84.06166667946667,1.1615625,65.0764568390672
1374224018.0,0.076792125,33.59,84.08666666666667,0.24450520833333336,65.03188983186884
1374224018.25,0.07535225000000001,33.59,84.11499998549334,0.4559375000000001,64.96164159769977
1374224018.5,0.07369908333333335,33.59,84.14333333333335,-0.8035416666666665,64.86250144513419
1374224018.75,0.07193925,33.59,84.17166668117333,-1.7515364583333335,64.76819866976915
1374224019.0,0.07017941666666667,33.59,84.2,-2.266302083333333,64.64378306638365
1374224019.25,0.06836625,33.59,84.23083331754667,-1.3911197916666664,64.52463678684533
1374224019.5,0.06671308333333333,33.59,84.26166666666666,-0.2721093749999998,64.34478260484819
1374224019.75,0.06505991666666668,33.59,84.29250001578666,-0.8817968749999999,64.00067690189769
1374224020.0,0.06346008333333333,33.59,84.32333333333332,-1.8955729166666666,63.45159408653715
1374224020.25,0.061913583333333334,33.59,84.35916664831998,-3.3108593749999997,63.01567876814699
1374224020.5,0.061220375,33.59,84.39499999999998,-3.2270312499999996,62.65849190819308
1374224020.75,0.061380416666666666,33.58916666666667,84.43083335168,-1.2816927083333332,62.48761064902539
1374224021.0,0.06196708333333333,33.587500000000006,84.46666666666665,0.575338541666667,62.44673953946205
1374224021.25,0.06282033333333333,33.58583333333333,84.51166664362665,1.3192187500000003,62.41450770245322
1374224021.5,0.0639935,33.58416666666667,84.55666666666666,2.7143750000000004,62.40647369515861
1374224021.75,0.06543333333333333,33.58166666666667,84.60166668970666,2.6784375000000007,62.429811878454785
1374224022.0,0.06687316666666666,33.57833333333334,84.64666666666666,2.3982291666666673,62.516971028877
1374224022.25,0.068313,33.574999999999996,84.69999997269333,1.5264843750000001,62.58454850718036
1374224022.5,0.06959283333333334,33.571666666666665,84.75333333333333,-0.4588541666666664,62.650427474216336
1374224022.75,0.071086,33.568333333333335,84.80666669397333,-1.2758072916666665,62.730722629378256
1374224023.0,0.07257916666666665,33.565000000000005,84.86,-1.4297916666666663,62.79198717703238
1374224023.25,0.07439233333333334,33.56166666666667,84.92499996672,-0.8324739583333333,62.84490391535537
1374224023.5,0.07567220833333334,33.55833333333333,84.99000000000001,-0.9384635416666667,62.907659119298806
1374224023.75,0.07636545833333333,33.55583333333333,85.05500003328001,-2.2359114583333333,62.92715900567239
1374224024.0,0.077005375,33.55416666666667,85.12,-4.004427083333334,62.929018081011215
1374224024.25,0.07748533333333334,33.5525,85.19166662997333,-5.883177083333333,62.92935268137592
1374224024.5,0.07780533333333334,33.55083333333333,85.26333333333332,-7.6128125,62.93445674405317
1374224024.75,0.07796533333333333,33.55,85.33500003669333,-8.310859375000001,62.904787624774144
1374224025.0,0.078232,33.55,85.40666666666665,-9.114531249999999,62.82563213934932
1374224025.25,0.07860533333333335,33.55,85.4858332928,-9.934114583333333,62.81206595866701
1374224025.5,0.079032,33.55,85.565,-9.688281250000001,62.77535621861666
1374224025.75,0.079192,33.55,85.6441667072,-9.531927083333333,62.68191744995627
1374224026.0,0.07940533333333334,33.55,85.72333333333334,-10.157031250000001,62.64660342921397
1374224026.25,0.07945866666666666,33.55,85.806666624,-10.734244791666667,62.61128925438846
1374224026.5,0.07951195833333334,33.55,85.89,-10.500546875,62.55028497654024
1374224026.75,0.079671875,33.55,85.973333376,-8.8228125,62.58326471607325
1374224027.0,0.07999179166666667,33.55,86.05666666666666,-6.373723958333333,62.61752693580005
1374224027.25,0.08191158333333333,33.55,86.14166662314666,-3.116796875,62.65556551614941
1374224027.5,0.086391125,33.55,86.22666666666666,0.7459635416666671,62.68300037847766
1374224027.75,0.09172391666666667,33.55,86.31166671018666,5.466770833333334,62.72820063735631
1374224028.0,0.09695004166666665,33.55,86.39666666666666,12.971458333333336,62.753855506714366
1374224028.25,0.1020695,33.55,86.47749995861332,20.071484375,62.67759705820265
1374224028.5,0.107135625,33.55,86.55833333333332,24.248203125,62.687491265770895
1374224028.75,0.11225508333333332,33.55,86.63916670805332,26.724661458333333,62.76101374653779
1374224029.0,0.11732120833333332,33.55,86.71999999999998,29.633958333333336,62.799055951396554
1374224029.25,0.12180070833333334,33.55,86.79749996032,32.28106770833333,62.96104357926461
1374224029.5,0.12574695833333333,33.55,86.875,34.367213541666665,63.34137271450982
1374224029.75,0.12931995833333335,33.55,86.95250003968,36.05481770833334,63.65544875596962
1374224030.0,0.13262629166666667,33.55,87.03000000000002,37.678385416666664,63.845249945903724
1374224030.25,0.134226125,33.55,87.09916663125334,37.46075520833333,64.04753254751947
1374224030.5,0.1329995833333333,33.55,87.16833333333335,35.45697916666666,64.18625424182325
1374224030.75,0.13075979166666665,33.55,87.23750003541335,31.098177083333336,64.23191183320728
1374224031.0,0.12841333333333332,33.55,87.30666666666667,23.533723958333336,64.34453065456476
1374224031.25,0.12601354166666667,33.55,87.37166663338667,16.948411458333336,64.58942105715654
1374224031.5,0.12361375000000001,33.55,87.43666666666667,13.29984375,64.71432982933909
1374224031.75,0.12110733333333334,33.55,87.50166669994668,11.098177083333335,64.86410692600279
1374224032.0,0.11844095833333335,33.55,87.56666666666668,9.201458333333333,64.93497309037822
1374224032.25,0.11630787499999999,33.55,87.62166663850668,7.448828125000001,64.83690589797139
1374224032.5,0.11460141666666666,33.55,87.67666666666668,5.394088541666666,64.50844797490056
1374224032.75,0.11316158333333333,33.55,87.73166669482667,2.616354166666667,64.16301763189517
1374224033.0,0.11182841666666665,33.55,87.78666666666668,-0.8474479166666664,63.97084699106251
1374224033.25,0.11065520833333332,33.55,87.83833330688,-3.189947916666666,63.72864582120792
1374224033.5,0.10980195833333332,33.55,87.89000000000001,-4.609895833333334,63.59010555037654
1374224033.75,0.10905537500000001,33.549166666666665,87.94166669312001,-4.371145833333332,63.559358933582665
1374224034.0,0.10836212500000002,33.54749999999999,87.99333333333334,-3.52484375,63.46619016938075
1374224034.25,0.10772220833333333,33.545833333333334,88.0391666432,-3.5485156250000003,63.272517602657246
1374224034.5,0.10708229166666666,33.54416666666666,88.08500000000001,-3.8314583333333325,63.136663627891295
1374224034.75,0.10654899999999999,33.54083333333333,88.1308333568,-3.4681770833333334,62.96941167848308
1374224035.0,0.106229,33.53583333333333,88.17666666666666,-3.397317708333334,62.904813176146085
1374224035.25,0.10601566666666666,33.530833333333334,88.21749997909333,-4.065520833333333,62.85239542474082
1374224035.5,0.10585566666666668,33.52583333333333,88.25833333333333,-4.749557291666666,62.82899991264185
1374224035.75,0.105749,33.520833333333336,88.29916668757332,-5.179192708333333,62.814443805117094
1374224036.0,0.10564233333333334,33.51583333333333,88.33999999999999,-5.6784375,62.74695610341024
1374224036.25,0.10553566666666665,33.51083333333333,88.3774999808,-6.532838541666666,62.75632423977388
1374224036.5,0.10542900000000001,33.505833333333335,88.41499999999999,-7.222395833333334,62.69780000459446
1374224036.75,0.10537566666666666,33.50166666666667,88.45250001919999,-8.195729166666666,62.603824857163055
1374224037.0,0.10537566666666666,33.498333333333335,88.49,-8.78546875,62.550422411914816
1374224037.25,0.10532233333333334,33.495,88.52416664917332,-8.156979166666666,62.50481994306358
1374224037.5,0.10521566666666667,33.49166666666667,88.55833333333334,-7.397994791666666,62.46156763478076
1374224037.75,0.10510900000000001,33.49,88.59250001749334,-7.84078125,62.402340758616766
1374224038.0,0.104949,33.49,88.62666666666667,-8.605963541666666,62.3176809208503
1374224038.25,0.10473566666666667,33.49,88.65999998293333,-7.790494791666666,62.27099753788749
1374224038.5,0.10452233333333334,33.49,88.69333333333333,-5.965651041666667,62.22992468989275
1374224038.75,0.104309,33.49,88.72666668373333,-4.562473958333333,62.203027623445614
1374224039.0,0.104149,33.49,88.75999999999999,-2.7727343749999993,62.197836986491495
1374224039.25,0.10404233333333335,33.49,88.79083331754666,-0.10716145833333302,62.15892149868438
1374224039.5,0.10393566666666665,33.49,88.82166666666666,2.3546093750000003,62.1580197973646
1374224039.75,0.10382899999999999,33.49041666666667,88.85250001578666,4.516848958333333,62.171247102188524
1374224040.0,0.103669,33.49125,88.88333333333333,6.3503645833333335,62.168031299591185
1374224040.25,0.103509,33.49208333333333,88.91666664959999,7.203463541666667,62.1758546126496
1374224040.5,0.10340233333333333,33.492916666666666,88.94999999999999,8.039296875,62.183637180900405
1374224040.75,0.10329566666666666,33.49333333333333,88.9833333504,9.59953125,62.19904317220141
1374224041.0,0.10313566666666667,33.49333333333333,89.01666666666667,11.500130208333333,62.21520072888942
1374224041.25,0.10292233333333332,33.49333333333333,89.04999998293334,12.170677083333333,62.25059043541358
1374224041.5,0.10265570833333333,33.49333333333333,89.08333333333334,11.734244791666669,62.29695545367341
1374224041.75,0.10233579166666666,33.4925,89.11666668373334,11.675052083333332,62.39951051471439
1374224042.0,0.10190920833333332,33.490833333333335,89.15000000000002,11.390911458333333,62.54332194834101
1374224042.25,0.10110933333333333,33.48916666666667,89.18999997952001,10.234036458333334,62.717316359026306
1374224042.5,0.10004283333333334,33.487500000000004,89.23000000000002,9.243046875,62.86869739855911
1374224042.75,0.098923,33.48541666666667,89.27000002048001,7.905364583333334,62.992582840939285
1374224043.0,0.09780316666666666,33.48291666666667,89.31,6.535885416666666,63.114385467015516
1374224043.25,0.09673666666666668,33.48041666666667,89.39499995648,6.587239583333333,63.242597074167804
1374224043.5,0.09567016666666667,33.477916666666665,89.47999999999999,5.862005208333333,63.37935823054536
1374224043.75,0.09455033333333335,33.475833333333334,89.56500004351999,3.6788281250000003,63.50916094339354
1374224044.0,0.09343050000000001,33.47416666666667,89.64999999999999,2.2213281250000003,63.65608305272599
1374224044.25,0.092364,33.472500000000004,89.72999995904,1.5503125000000004,63.772174217020165
1374224044.5,0.09135079166666667,33.47083333333333,89.81,1.7879947916666667,63.87541715430344
1374224044.75,0.090390875,33.47083333333333,89.89000004096,2.937630208333333,63.92080080144754
1374224045.0,0.08953762500000001,33.472500000000004,89.97000000000001,3.265052083333334,63.92125992883189
1374224045.25,0.08905766666666666,33.47416666666667,90.03833329834667,3.4596875,63.89206630918017
1374224045.5,0.08884433333333334,33.475833333333334,90.10666666666668,4.081484375,63.87464828969389
1374224045.75,0.08868433333333332,33.4775,90.17500003498668,5.565989583333334,63.88028000897514
1374224046.0,0.08857766666666667,33.479166666666664,90.24333333333334,6.304270833333334,63.88774982070262
1374224046.25,0.08847100000000001,33.48083333333333,90.25333332821333,5.605416666666667,63.88913680984879
1374224046.5,0.08836433333333334,33.4825,90.26333333333332,5.6985156250000015,63.885189703266924
1374224046.75,0.088311,33.48416666666667,90.27333333845333,7.203906249999999,63.88775762519409
1374224047.0,0.08825766666666666,33.48583333333334,90.28333333333332,7.395625,63.87754790017115
1374224047.25,0.08820433333333333,33.487500000000004,90.29416666111999,7.153463541666667,63.884757438547354
1374224047.5,0.088151,33.48916666666667,90.30499999999998,6.485885416666666,63.894938279352125
1374224047.75,0.08809766666666667,33.49,90.31583333887998,4.557734375,63.9068697179379
1374224048.0,0.08804433333333334,33.49,90.32666666666665,3.331145833333334,63.9224693036978
1374224048.25,0.08793766666666668,33.49,90.33333332992,2.8471093750000005,63.93753865943509
1374224048.5,0.08783099999999999,33.49,90.34,1.5827864583333335,63.9528527390301
1374224048.75,0.08772433333333333,33.49,90.34666667008,-0.03276041666666649,63.967799732838536
1374224049.0,0.08761766666666666,33.49,90.35333333333334,-0.8175260416666665,63.98266604881278
1374224049.25,0.087511,33.49,90.36583332693334,-1.5118749999999999,63.99627065409539
1374224049.5,0.08740433333333332,33.49,90.37833333333333,-2.708958333333333,64.00832498431646
1374224049.75,0.08729766666666666,33.49041666666667,90.39083333973332,-4.241770833333333,64.02017445374204
1374224050.0,0.08724433333333333,33.49125,90.40333333333332,-4.857734375,64.02611710401668
1374224050.25,0.08724433333333333,33.49208333333333,90.41083332949333,-5.383072916666666,64.01204955650111
1374224050.5,0.08729766666666666,33.492916666666666,90.41833333333332,-6.144218749999999,63.984730145274376
1374224050.75,0.087351,33.493750000000006,90.42583333717332,-6.507395833333334,63.9561436040392
1374224051.0,0.08740433333333332,33.49458333333334,90.43333333333332,-6.6303125,63.911945032401995
1374224051.25,0.087511,33.49541666666667,90.44499999402666,-7.228307291666667,63.85642499272339
1374224051.5,0.08783095833333333,33.49625,90.45666666666666,-7.776692708333332,63.76454120996538
1374224051.75,0.08836420833333332,33.497083333333336,90.46833333930667,-8.122786458333334,63.61605870258625
1374224052.0,0.08889745833333333,33.49791666666667,90.48,-8.601484375,63.499999816390265
1374224052.25,0.08948404166666667,33.49875,90.48583333034667,-9.281510416666666,63.40658983799847
1374224052.5,0.090070625,33.499583333333334,90.49166666666667,-9.160651041666666,63.28712121380463
1374224052.75,0.09071054166666666,33.499583333333334,90.49750000298667,-7.7715104166666675,63.14556485587938
1374224053.0,0.09135045833333334,33.498749999999994,90.50333333333333,-7.282942708333333,63.01651647462868
1374224053.25,0.09188370833333333,33.49791666666667,90.49750000298667,-6.957395833333333,62.92897211146351
1374224053.5,0.092363625,33.497083333333336,90.49166666666667,-6.224739583333334,62.88364355110664
1374224053.75,0.09279020833333333,33.49541666666667,90.48583333034667,-4.807213541666667,62.849590912210715
1374224054.0,0.09321679166666667,33.492916666666666,90.48,-3.252994791666666,62.82336555730126
1374224054.25,0.09359004166666667,33.49041666666667,90.47000000512,-1.103984375,62.7345390037676
1374224054.5,0.09369666666666666,33.48791666666666,90.46000000000001,1.869765625,62.71975262156397
1374224054.75,0.09358999999999999,33.48541666666667,90.44999999488002,4.812447916666667,62.82520159873226
1374224055.0,0.093323375,33.48291666666667,90.44000000000001,7.5031510416666665,62.88104694796984
1374224055.25,0.09284345833333334,33.48041666666666,90.43416666965334,10.543541666666666,63.034126089016674
1374224055.5,0.09231020833333332,33.477916666666665,90.42833333333334,12.46703125,63.32212551067942
1374224055.75,0.09167029166666667,33.475,90.42249999701335,12.469114583333335,63.60043594863802
1374224056.0,0.091030375,33.47166666666667,90.41666666666667,12.770442708333334,63.86230625365058
1374224056.25,0.09044379166666666,33.468333333333334,90.43083332608,13.65875,64.05524925882578
1374224056.5,0.08980387499999999,33.465,90.44500000000001,14.239453124999999,64.27640221296988
1374224056.75,0.08895066666666666,33.4625,90.45916667392001,14.096692708333334,64.46541156680397
1374224057.0,0.08836408333333334,33.46083333333333,90.47333333333334,13.556692708333332,64.7512009230248
1374224057.25,0.08756420833333334,33.45916666666667,90.49583332181334,12.045520833333335,65.21425757902162
1374224057.5,0.08607108333333334,33.4575,90.51833333333335,8.613072916666667,65.60206914658393
1374224057.75,0.08329808333333333,33.45583333333334,90.54083334485334,5.317213541666667,65.88346560004669
1374224058.0,0.079725125,33.45416666666667,90.56333333333333,3.033411458333333,66.32603425358462
1374224058.25,0.07631212500000001,33.4525,90.59416665088,-0.31203124999999987,66.78704310492235
1374224058.5,0.07295245833333333,33.45083333333334,90.625,-1.1771874999999998,67.13688108057116
1374224058.75,0.07060604166666666,33.45,90.65583334912,0.9415104166666669,67.68123567348223
1374224059.0,0.06879291666666666,33.45,90.68666666666667,6.269947916666666,68.33900754118397
1374224059.25,0.06740641666666666,33.45,90.71249998677334,8.169791666666667,68.80714186888292
1374224059.5,0.067886375,33.45,90.73833333333334,8.496458333333335,69.18005734747594
1374224059.75,0.06884625,33.45,90.76416667989334,8.297005208333333,69.69540259309483
1374224060.0,0.06943283333333333,33.45,90.79,11.33171875,70.03731895186132
1374224060.25,0.07028604166666667,33.45,90.81166665557333,16.167890625000002,70.31897963113245
1374224060.5,0.07188583333333333,33.45,90.83333333333334,21.626510416666665,70.72456407941435
1374224060.75,0.0747655,33.45,90.85500001109334,26.482343750000002,71.128023746301
1374224061.0,0.07860508333333334,33.45,90.87666666666667,30.329765625000004,71.21151614736114
1374224061.25,0.08244466666666667,33.45,90.88749999445334,35.1703125,70.90934467003943
1374224061.5,0.086177625,33.45,90.89833333333334,36.313046875,70.77243069391157
1374224061.75,0.08884404166666666,33.45,90.90916667221333,33.09658854166667,70.36655913330648
1374224062.0,0.09097716666666666,33.45,90.92,28.473072916666666,69.79879888294128
1374224062.25,0.09268366666666666,33.45,90.92583333034668,30.420807291666666,69.5315205370609
1374224062.5,0.09252370833333334,33.45,90.93166666666667,34.25205729166667,69.25231261530226
1374224062.75,0.092097125,33.45,90.93750000298667,38.95223958333333,68.88133562907167
1374224063.0,0.09177720833333332,33.45,90.94333333333334,40.68408854166667,68.52768052396812
1374224063.25,0.091510625,33.45,90.94666666496,41.104921875,67.98332509664796
1374224063.5,0.09129737500000001,33.45,90.95,41.88458333333333,67.30957264396682
1374224063.75,0.091084125,33.45,90.95333333504,40.05575520833333,66.64315543549118
1374224064.0,0.090870875,33.45,90.95666666666666,40.97984375,66.23937854118391
1374224064.25,0.090657625,33.45,90.95666666666666,42.98192708333334,66.14266298853875
1374224064.5,0.09055099999999999,33.45,90.95666666666666,46.95499999999999,65.79571192971622
1374224064.75,0.09055099999999999,33.45,90.95666666666666,52.360937500000006,65.52048874179776
1374224065.0,0.090551,33.45,90.95666666666666,51.87046874999999,65.2668280269172
1374224065.25,0.09060429166666667,33.45,90.95666666666666,45.611536458333326,64.90587343851566
1374224065.5,0.09071091666666665,33.45,90.95666666666666,38.99104166666667,64.64998713275543
1374224065.75,0.09092416666666665,33.45,90.95666666666666,30.793333333333333,64.30979447856934
1374224066.0,0.09113741666666665,33.45,90.95666666666666,22.540885416666665,64.08024384405415
1374224066.25,0.09129733333333334,33.45,90.95333333504,15.867552083333331,64.01629712761918
1374224066.5,0.09140391666666665,33.45,90.95,11.576197916666667,64.01257972545534
1374224066.75,0.0915105,33.45,90.94666666496,12.642213541666665,64.25402471890011
1374224067.0,0.09161708333333334,33.45,90.94333333333334,8.141614583333332,64.32927780477712
1374224067.25,0.09193699999999999,33.45,90.93916666880001,1.783645833333333,64.24294442723213
1374224067.5,0.09247024999999999,33.45,90.935,-4.514635416666667,64.2056570105964
1374224067.75,0.09305683333333332,33.44916666666666,90.9308333312,-9.984427083333333,64.19301346579303
1374224068.0,0.09369675,33.4475,90.92666666666668,-9.2203125,64.30200096725643
1374224068.25,0.094283375,33.44583333333333,90.90416667818667,-4.694895833333334,64.56805181986245
1374224068.5,0.09487,33.44416666666667,90.88166666666666,-1.7216927083333335,64.75372178276858
1374224068.75,0.09540333333333334,33.43875,90.85916665514667,1.6476302083333332,64.86894413455336
1374224069.0,0.09588333333333333,33.42958333333333,90.83666666666666,4.5261458333333335,64.86537991727394
1374224069.25,0.09630999999999999,33.42041666666667,90.80250001749333,4.857395833333333,64.89235465180225
1374224069.5,0.09673666666666665,33.41125,90.76833333333333,2.5716406249999997,64.76523361653855
1374224069.75,0.09710999999999999,33.40208333333333,90.73416664917333,-2.6140885416666664,64.38136109824119
1374224070.0,0.09732333333333333,33.39291666666667,90.7,-3.9226041666666664,64.129382847831
1374224070.25,0.09716333333333332,33.38375,90.65666668885333,-4.373697916666667,64.04155239690681
1374224070.5,0.09657670833333333,33.374583333333334,90.61333333333333,-4.595130208333333,64.00681284224073
1374224070.75,0.09593675,33.36750000000001,90.56999997781332,-4.533229166666667,64.01878267593233
1374224071.0,0.09524345833333332,33.362500000000004,90.52666666666666,-6.00796875,64.02688054809614
1374224071.25,0.09455016666666666,33.3575,90.48833335296,-9.863723958333333,63.917263517864825
1374224071.5,0.093856875,33.3525,90.44999999999999,-13.518984375,63.81704323542913
1374224071.75,0.09316358333333331,33.35125,90.41166664704,-16.373723958333333,63.865163232941704
1374224072.0,0.09257695833333333,33.35375,90.37333333333333,-17.41625,63.97746233467273
1374224072.25,0.09204366666666665,33.35625,90.34250001578667,-16.816666666666666,64.03273459776398
1374224072.5,0.09151037499999999,33.35875,90.31166666666667,-15.024453124999999,64.22796240277009
1374224072.75,0.09092379166666666,33.36208333333334,90.28083331754667,-12.216276041666667,64.4310111249484
1374224073.0,0.09049720833333331,33.36625,90.25,-9.519036458333334,64.53009747078498
1374224073.25,0.090230625,33.370416666666664,90.22916667733334,-6.912187499999999,64.61345401434629
1374224073.5,0.09017733333333333,33.374583333333334,90.20833333333334,-5.596328125,64.73512565713033
1374224073.75,0.09012404166666667,33.3775,90.18749998933333,-4.333020833333333,64.81113975310363
1374224074.0,0.09007074999999999,33.37916666666666,90.16666666666667,-3.533359375,64.74652095846642
1374224074.25,0.09001745833333334,33.380833333333335,90.1583333376,-2.2559375,64.66901184066305
1374224074.5,0.08996416666666666,33.3825,90.15,0.8569531250000001,64.5755008327932
1374224074.75,0.089910875,33.385,90.1416666624,4.421276041666666,64.42279686773288
1374224075.0,0.08980424999999999,33.38833333333333,90.13333333333333,6.318932291666667,64.28038622544555
1374224075.25,0.089697625,33.391666666666666,90.1291666688,7.445598958333334,64.17770749473262
1374224075.5,0.089857625,33.394999999999996,90.125,7.562578124999999,64.05752752635517
1374224075.75,0.09055087500000002,33.39833333333333,90.1208333312,6.943958333333334,64.0022188998738
1374224076.0,0.091404125,33.401666666666664,90.11666666666667,5.9227083333333335,64.02737684887009
1374224076.25,0.09241733333333335,33.405,90.1083333376,5.098671875,64.01514278185778
1374224076.5,0.09348383333333334,33.40833333333334,90.1,5.1202604166666665,63.92951793164244
1374224076.75,0.09455033333333333,33.41083333333333,90.0916666624,4.646822916666667,63.8408825027282
1374224077.0,0.09561683333333333,33.4125,90.08333333333333,4.363880208333334,63.84414783038131
1374224077.25,0.09668333333333334,33.41416666666667,90.07083333973333,4.491796875,63.842918162610175
1374224077.5,0.097589875,33.41583333333333,90.05833333333334,4.155755208333333,63.93764447268319
1374224077.75,0.098443125,33.4175,90.04583332693335,3.2672656250000003,64.09022349985587
1374224078.0,0.09924304166666668,33.41916666666667,90.03333333333335,3.2529166666666662,64.21990271170951
1374224078.25,0.09998962500000001,33.42083333333333,90.0166666752,2.90796875,64.32754240742013
1374224078.5,0.10046958333333333,33.4225,90.0,3.5705208333333336,64.46300815758921
1374224078.75,0.10052291666666667,33.42333333333333,89.9833333248,5.218515624999999,64.62928942113552
1374224079.0,0.10036291666666668,33.42333333333333,89.96666666666665,5.479843750000001,64.79043068344451
1374224079.25,0.09998962500000001,33.42333333333333,89.945833344,5.024427083333333,64.9127366530086
1374224079.5,0.09956304166666667,33.42333333333333,89.925,4.6219270833333335,65.05262677576967
1374224079.75,0.099083125,33.424166666666665,89.904166656,2.055729166666667,65.20414862889214
1374224080.0,0.098549875,33.42583333333334,89.88333333333334,-1.2652343749999997,65.28684856906021
1374224080.25,0.09801662500000001,33.4275,89.86250001066666,-4.799765625,65.36257419602427
1374224080.5,0.09764333333333332,33.42916666666667,89.84166666666667,-8.416979166666666,65.33320336918582
1374224080.75,0.09732333333333333,33.43,89.82083332266667,-11.753984375000002,65.2934117649038
1374224081.0,0.09705666666666667,33.43,89.8,-15.980625000000002,65.31353026306836
1374224081.25,0.09679,33.43,89.77666667861332,-19.614505208333334,65.37035188100617
1374224081.5,0.09647000000000001,33.43,89.75333333333333,-23.794036458333334,65.46865713310757
1374224081.75,0.09615,33.43,89.72999998805334,-28.725911458333332,65.475337102855
1374224082.0,0.09583000000000001,33.43,89.70666666666666,-31.280078125,65.4285260359583
1374224082.25,0.09556333333333333,33.43,89.68500001109334,-31.723411458333334,65.34723846282601
1374224082.5,0.09529666666666668,33.43,89.66333333333333,-31.768333333333334,65.29669365485042
1374224082.75,0.09513666666666669,33.43,89.64166665557333,-28.39182291666667,65.2701081779512
1374224083.0,0.09508333333333334,33.43,89.62,-23.414114583333333,65.28072162355262
1374224083.25,0.09503,33.43,89.58916668245334,-16.619895833333334,65.28949277860059
1374224083.5,0.09497666666666667,33.43,89.55833333333334,-9.875208333333333,65.4152756240802
1374224083.75,0.09492333333333335,33.43,89.52749998421334,-5.0046614583333335,65.4442884803648
1374224084.0,0.09487000000000001,33.43,89.49666666666667,1.742135416666666,65.40344822411967
1374224084.25,0.09492333333333335,33.43,89.46000001877334,8.485286458333333,65.255902772077
1374224084.5,0.09503000000000002,33.43,89.42333333333335,13.519947916666666,65.03778536272179
1374224084.75,0.09513666666666666,33.43,89.38666664789334,18.146927083333335,64.86381374702962
1374224085.0,0.09529666666666665,33.43,89.35000000000001,19.842291666666664,64.71800733509868
1374224085.25,0.09545666666666668,33.43,89.30500002304001,19.928177083333335,64.63123748721142
1374224085.5,0.09561666666666667,33.43,89.26,19.714088541666666,64.50614051937906
1374224085.75,0.09572333333333333,33.43,89.21499997696,18.082109375,64.35078651117786
1374224086.0,0.09577666666666668,33.43,89.17,15.335416666666667,64.18664635446588
1374224086.25,0.09588333333333333,33.43,89.11750002688,10.949583333333335,64.0254179940666
1374224086.5,0.09604333333333333,33.43,89.065,7.475781250000001,63.78757149328351
1374224086.75,0.09625666666666666,33.43,89.01249997312,6.125442708333334,63.63581446712291
1374224087.0,0.09657666666666666,33.43,88.96,2.6103645833333333,63.493479568492155
1374224087.25,0.09689666666666667,33.43,88.90166669653333,-0.8993489583333334,63.42559899296965
1374224087.5,0.09721666666666666,33.43,88.84333333333333,-2.6417968750000003,63.35119561217018
1374224087.75,0.09753666666666667,33.43,88.78499997013334,-4.84515625,63.2587774891262
1374224088.0,0.09790995833333334,33.43,88.72666666666667,-5.087109375,63.15354964049025
1374224088.25,0.09833654166666667,33.43,88.67000002901334,-5.391979166666666,63.05903860296192
1374224088.5,0.09876312500000001,33.43,88.61333333333334,-4.569583333333333,62.9688053451899
1374224088.75,0.09924304166666668,33.43,88.55666663765334,-2.8768489583333334,62.88189242112893
1374224089.0,0.09977629166666667,33.43,88.5,-1.905911458333333,62.793678776022745
1374224089.25,0.10025620833333333,33.43,88.44833335978667,-1.179348958333333,62.733975499940414
1374224089.5,0.10073612500000001,33.43,88.39666666666668,-1.6330208333333331,62.66930982838707
1374224089.75,0.10121604166666669,33.43,88.34499997354666,-2.769192708333333,62.609395344895894
1374224090.0,0.101642625,33.43,88.29333333333334,-2.6142968749999995,62.57214226420154
1374224090.25,0.10206920833333333,33.43,88.251666688,-2.585442708333333,62.50487338520656
1374224090.5,0.10249579166666667,33.43,88.21000000000001,-2.7213541666666665,62.46945134203009
1374224090.75,0.102922375,33.43,88.168333312,-1.2795572916666662,62.43957657937825
1374224091.0,0.10334900000000001,33.43,88.12666666666667,0.08770833333333368,62.41987612008461
1374224091.25,0.10377566666666667,33.43,88.08750002005333,1.8702343750000006,62.3955097583435
1374224091.5,0.10420233333333333,33.43,88.04833333333332,2.143359375,62.37680715718434
1374224091.75,0.10457566666666666,33.43,88.00916664661332,1.7668750000000004,62.36052271161601
1374224092.0,0.104949,33.43,87.96999999999998,2.2145052083333336,62.34857577779442
1374224092.25,0.10532233333333334,33.43,87.93666668373332,2.6150000000000007,62.329452804013336
1374224092.5,0.10569566666666667,33.43,87.90333333333332,3.4017447916666668,62.30478424147051
1374224092.75,0.10601566666666666,33.43,87.86999998293332,4.9228125,62.27435577220171
1374224093.0,0.10628233333333333,33.43,87.83666666666666,5.961875,62.24731397405767
1374224093.25,0.10649566666666666,33.43,87.8033333504,7.227864583333335,62.247439533513756
1374224093.5,0.106709,33.43,87.77,8.473411458333333,62.23762289679359
1374224093.75,0.10692233333333334,33.43,87.7366666496,8.746640625,62.225866367248166
1374224094.0,0.10708233333333332,33.43,87.70333333333333,8.803802083333332,62.23063061883096
1374224094.25,0.10718899999999999,33.43,87.67333334869333,8.120729166666667,62.22849353116745
1374224094.5,0.10729566666666666,33.43,87.64333333333333,7.808723958333334,62.23321460800947
1374224094.75,0.10740233333333332,33.42916666666667,87.61333331797333,8.103984375,62.24853915787645
1374224095.0,0.10745566666666667,33.4275,87.58333333333333,8.707916666666668,62.268908799410774
1374224095.25,0.107509,33.42583333333334,87.55583334741333,9.4634375,62.2886568973289
1374224095.5,0.107509,33.42416666666667,87.52833333333334,10.090104166666666,62.3182038124795
1374224095.75,0.107509,33.4225,87.50083331925335,9.633203125,62.35358921525724
1374224096.0,0.107509,33.420833333333334,87.47333333333334,8.592057291666668,62.38974945838268
1374224096.25,0.107509,33.41916666666666,87.44583334741334,6.128593749999999,62.39801603883058
1374224096.5,0.10745566666666666,33.4175,87.41833333333335,3.367890625,62.414128898896585
1374224096.75,0.10718899999999998,33.41583333333333,87.39083331925335,1.8011458333333332,62.474845275371536
1374224097.0,0.10676233333333333,33.41416666666667,87.36333333333334,-0.02934895833333337,62.526312481505805
1374224097.25,0.10628233333333333,33.412499999999994,87.33416668160001,-1.4112760416666668,62.6196531547466
1374224097.5,0.10580233333333332,33.410833333333336,87.305,-3.645416666666667,62.73234402484129
1374224097.75,0.10532233333333334,33.41083333333333,87.2758333184,-6.998671875,62.75149312178689
1374224098.0,0.10473570833333333,33.412499999999994,87.24666666666667,-10.377578125,62.71616516298792
1374224098.25,0.10414908333333334,33.41416666666667,87.21583334912,-12.6928125,62.766635759874305
1374224098.5,0.10350916666666667,33.41583333333333,87.185,-14.125598958333333,62.89679354506407
1374224098.75,0.10286924999999998,33.4175,87.15416665088,-14.808515624999998,63.01628646825395
1374224099.0,0.10222933333333334,33.41916666666666,87.12333333333333,-15.505833333333335,63.07622068127535
1374224099.25,0.10164270833333333,33.420833333333334,87.09583334741333,-14.719505208333333,63.27341057926217
1374224099.5,0.10116270833333335,33.42249999999999,87.06833333333333,-13.001979166666667,63.521466025233735
1374224099.75,0.10089604166666667,33.424166666666665,87.04083331925332,-12.770963541666667,63.76913797742635
1374224100.0,0.10084270833333335,33.42583333333333,87.01333333333332,-12.625468749999998,63.95572063364759
1374224100.25,0.10100270833333334,33.4275,86.98916667904,-11.739557291666666,64.2449879020821
1374224100.5,0.10116270833333335,33.42916666666667,86.965,-9.9040625,64.46594423472688
1374224100.75,0.10132270833333334,33.43,86.94083332096,-7.441249999999999,64.6832032254652
1374224101.0,0.10180266666666667,33.43,86.91666666666667,-5.167526041666666,65.05248706427314
1374224101.25,0.102282625,33.43,86.90000000853333,-3.882890625,65.27951493427999
1374224101.5,0.102975875,33.43,86.88333333333333,-3.6726041666666664,65.52018453038079
1374224101.75,0.10377579166666667,33.43,86.86666665813333,-4.543333333333333,65.76131693576868
1374224102.0,0.10468233333333334,33.43,86.84999999999998,-5.656171874999999,65.98622873214045
1374224102.25,0.10558887500000001,33.43,86.83166667605332,-6.580156249999999,66.0009319470298
1374224102.5,0.10649545833333333,33.43,86.81333333333332,-8.449453125,65.9472617312126
1374224102.75,0.107455375,33.428333333333335,86.79499999061332,-9.885364583333333,65.7711384146625
1374224103.0,0.10836195833333333,33.425000000000004,86.77666666666666,-9.574244791666667,65.72502802663473
1374224103.25,0.10910854166666666,33.42166666666667,86.75916667562666,-9.840885416666666,65.45657961116
1374224103.5,0.109855125,33.41833333333333,86.74166666666666,-9.542187499999999,65.24649209569053
1374224103.75,0.11060170833333333,33.415,86.72416665770666,-9.465078125,65.16016309814042
1374224104.0,0.11113495833333333,33.41166666666667,86.70666666666666,-11.116848958333334,64.94987871342785
1374224104.25,0.11166820833333335,33.40833333333333,86.69000000853333,-13.993880208333332,64.8186295725529
1374224104.5,0.11182816666666667,33.405,86.67333333333333,-16.507708333333333,64.5822854005461
1374224104.75,0.11166816666666668,33.40166666666667,86.65666665813333,-16.87515625,64.36685779265343
1374224105.0,0.11140154166666666,33.39833333333333,86.64,-15.314661458333333,64.22179710520443
1374224105.25,0.111081625,33.395,86.63166667093333,-14.337552083333334,64.15525617849536
1374224105.5,0.11070837499999998,33.391666666666666,86.62333333333333,-13.104947916666667,64.10617864608388
1374224105.75,0.11028179166666667,33.39,86.61499999573334,-11.519921875,64.14091890686042
1374224106.0,0.10980187500000001,33.39,86.60666666666667,-11.374947916666668,64.07750272491528
1374224106.25,0.10926862500000001,33.39,86.60749999957334,-11.600703125,64.10157753279256
1374224106.5,0.10873537499999998,33.39,86.60833333333333,-12.943046875,64.10518954022952
1374224106.75,0.10814879166666667,33.3925,86.60916666709333,-14.057473958333333,64.0644175485135
1374224107.0,0.10756220833333334,33.3975,86.61,-13.449270833333335,64.01718948831694
1374224107.25,0.10692229166666667,33.4025,86.61583333034666,-11.612942708333334,63.965693005350126
1374224107.5,0.106389,33.407500000000006,86.62166666666667,-10.005286458333334,63.92360548637791
1374224107.75,0.10606899999999998,33.4125,86.62750000298666,-9.872369791666667,63.845532950730934
1374224108.0,0.105749,33.4175,86.63333333333333,-11.065755208333334,63.727985910100635
1374224108.25,0.10537566666666666,33.42250000000001,86.63999999658667,-11.879505208333333,63.61103463162155
1374224108.5,0.10494900000000001,33.4275,86.64666666666668,-12.360572916666667,63.39853845007335
1374224108.75,0.10452233333333333,33.4325,86.65333333674667,-12.992343750000002,63.20549721622183
1374224109.0,0.10409566666666666,33.4375,86.66000000000001,-13.816354166666665,63.0443638458867
1374224109.25,0.103669,33.4425,86.66749999616002,-14.413854166666667,62.88042077310259
1374224109.5,0.10318904166666666,33.447500000000005,86.67500000000001,-14.65984375,62.713947709190826
1374224109.75,0.102709125,33.44916666666667,86.68250000384,-14.642005208333336,62.56264609810645
1374224110.0,0.10222920833333334,33.447500000000005,86.69000000000001,-14.342447916666666,62.43457122656623
1374224110.25,0.101802625,33.44583333333333,86.69666666325334,-13.781458333333333,62.27110382337789
1374224110.5,0.10148270833333334,33.44416666666667,86.70333333333333,-12.650963541666668,62.13468247930814
1374224110.75,0.10116279166666668,33.4425,86.71000000341333,-11.207786458333333,62.005562050871056
1374224111.0,0.100842875,33.44083333333334,86.71666666666665,-9.742135416666667,61.913613448108016
1374224111.25,0.10052295833333334,33.43916666666667,86.72666666154666,-8.479453125000001,61.85568907504626
1374224111.5,0.100256375,33.4375,86.73666666666665,-7.418281250000001,61.904916428725805
1374224111.75,0.09998979166666667,33.435,86.74666667178666,-6.438489583333333,61.97739454876529
1374224112.0,0.09977654166666666,33.431666666666665,86.75666666666666,-5.231171875,62.03341531788369
1374224112.25,0.09966995833333335,33.428333333333335,86.76583332864,-3.963854166666667,62.07487769619783
1374224112.5,0.09961666666666667,33.425,86.775,-2.1076822916666664,62.14105040761228
1374224112.75,0.09972329166666667,33.4225,86.78416667136,-0.4163281249999999,62.27848928797581
1374224113.0,0.09998987499999999,33.42083333333333,86.79333333333334,0.5602083333333335,62.54136619307737
1374224113.25,0.10030979166666666,33.41916666666667,86.80416666112001,1.5613281250000002,62.84632155692005
1374224113.5,0.10062970833333333,33.4175,86.815,2.2469270833333335,63.072018611075656
1374224113.75,0.10100295833333332,33.415,86.82583333887999,2.934505208333333,63.30446660542267
1374224114.0,0.10142954166666666,33.41166666666667,86.83666666666666,3.449088541666667,63.54870582940899
1374224114.25,0.10190945833333333,33.40833333333333,86.84499999573333,4.692864583333333,63.75272534285602
1374224114.5,0.10244270833333334,33.404999999999994,86.85333333333332,5.784635416666666,63.942321313430135
1374224114.75,0.10308262499999998,33.402499999999996,86.86166667093333,6.533046874999999,64.09601079791051
1374224115.0,0.10372254166666667,33.40083333333333,86.87,7.455989583333333,64.26839314062258
1374224115.25,0.10420245833333332,33.399166666666666,86.87583333034667,7.741562500000001,64.45126510452572
1374224115.5,0.10478904166666668,33.3975,86.88166666666666,5.877343749999999,64.57892203655736
1374224115.75,0.10532233333333331,33.39666666666667,86.88750000298667,3.27875,64.59115996627862
1374224116.0,0.105749,33.39666666666667,86.89333333333333,2.5424739583333333,64.50330248856284
1374224116.25,0.10628229166666668,33.39666666666667,86.89333333333333,1.6804947916666666,64.44665706298308
1374224116.5,0.10681558333333334,33.39666666666667,86.89333333333333,-0.6453125,64.46704659052226
1374224116.75,0.10729554166666666,33.3975,86.89333333333333,-3.035286458333333,64.61253105501324
1374224117.0,0.10756220833333334,33.399166666666666,86.89333333333333,-5.309140625,64.7787872980918
1374224117.25,0.107668875,33.40083333333333,86.89166666752,-8.483125,64.85669334423669
1374224117.5,0.10756220833333334,33.402499999999996,86.88999999999999,-10.724583333333333,64.94956277561396
1374224117.75,0.10718887499999998,33.40416666666666,86.88833333247999,-11.819895833333332,64.96990866835745
1374224118.0,0.10633558333333333,33.40583333333333,86.88666666666666,-14.546171874999999,64.98384833102084
1374224118.25,0.10521566666666667,33.4075,86.88500000085332,-15.987135416666668,65.06499142348154
1374224118.5,0.10393579166666667,33.409166666666664,86.88333333333333,-16.46096354166667,65.2820247298368
1374224118.75,0.10260258333333334,33.41,86.88166666581333,-17.705182291666667,65.53270353050858
1374224119.0,0.10116275000000001,33.41,86.88,-21.61916666666667,65.636860160432
1374224119.25,0.09956295833333333,33.41,86.88583333034666,-25.708515625,65.61252250365122
1374224119.5,0.09796316666666666,33.41,86.89166666666665,-27.674765625000003,65.55379499277116
1374224119.75,0.09641666666666666,33.41,86.89750000298666,-30.820442708333335,65.37178147614432
1374224120.0,0.09508341666666666,33.41,86.90333333333332,-33.616796875,65.17406124974569
1374224120.25,0.09465679166666667,33.41,86.91583332693332,-35.89013020833333,65.09294555858699
1374224120.5,0.09519008333333333,33.41,86.92833333333333,-38.945026041666665,64.9792569803539
1374224120.75,0.09593666666666667,33.41,86.94083333973333,-43.49671875000001,64.92193732596617
1374224121.0,0.09716320833333332,33.41,86.95333333333333,-46.707994791666664,64.83051886192663
1374224121.25,0.09876304166666666,33.41,86.98249998506667,-50.36166666666667,64.64338692015528
1374224121.5,0.10041616666666665,33.41,87.01166666666667,-49.863255208333335,64.3358217136356
1374224121.75,0.10206929166666667,33.41,87.04083334826667,-47.28421875,64.01630105503551
1374224122.0,0.10377570833333333,33.41,87.07000000000001,-43.67841145833333,63.811409820902206
1374224122.25,0.105482125,33.41,87.10583331498667,-40.184322916666666,63.69450860403836
1374224122.5,0.10718854166666668,33.41,87.14166666666667,-37.09747395833333,63.59193616888848
1374224122.75,0.108788375,33.41,87.17750001834666,-32.595859374999996,63.4791617898049
1374224123.0,0.11028162500000001,33.41,87.21333333333332,-28.559322916666662,63.350850535237605
1374224123.25,0.11102825,33.41,87.25666664447999,-25.69716145833333,63.21576891465417
1374224123.5,0.11097495833333333,33.41,87.29999999999998,-22.989739583333332,63.096671062172646
1374224123.75,0.11081504166666667,33.41,87.34333335551999,-19.18916666666667,62.9870982942669
1374224124.0,0.11060179166666667,33.41,87.38666666666666,-15.095651041666665,62.90368237585523
1374224124.25,0.11038854166666667,33.41,87.42166664874665,-11.692239583333334,62.833292618443636
1374224124.5,0.11017529166666667,33.41,87.45666666666665,-11.82171875,62.798881253631926
1374224124.75,0.10996204166666668,33.41,87.49166668458666,-11.934244791666666,62.790014682128145
1374224125.0,0.10974879166666666,33.41,87.52666666666666,-10.997994791666668,62.8052587807695
1374224125.25,0.10953554166666667,33.41,87.56166664874667,-9.996328125,62.79113235655657
1374224125.5,0.10932229166666667,33.41,87.59666666666666,-9.594140625,62.76813414857659
1374224125.75,0.109109,33.41,87.63166668458666,-9.620807291666667,62.76825849877701
1374224126.0,0.108949,33.41,87.66666666666667,-9.125911458333333,62.769503894482504
1374224126.25,0.10878899999999998,33.41,87.69749998421334,-7.5871354166666665,62.756301694157266
1374224126.5,0.10862899999999999,33.41,87.72833333333334,-5.871953125,62.741488016507724
1374224126.75,0.108469,33.41,87.75916668245334,-4.607421874999999,62.73650950321562
1374224127.0,0.10836233333333332,33.41,87.79,-3.5063020833333334,62.743768830873904
1374224127.25,0.10830899999999999,33.41,87.82333331626667,-1.9861979166666668,62.77472217665169
1374224127.5,0.10825566666666665,33.41,87.85666666666667,-0.4135937499999999,62.79971580826459
1374224127.75,0.10825566666666665,33.41,87.89000001706667,0.40492187500000015,62.81562069839214
1374224128.0,0.10825566666666668,33.41,87.92333333333333,0.3350520833333335,62.81855687946159
1374224128.25,0.10825566666666668,33.41,87.9566666496,0.3933072916666667,62.83645187786296
1374224128.5,0.10825566666666665,33.41,87.99000000000001,0.76703125,62.86366490569572
1374224128.75,0.10830899999999999,33.41,88.02333335040001,1.363697916666667,62.88018450506467
1374224129.0,0.10846895833333332,33.41,88.05666666666667,1.597994791666667,62.89936036976644
1374224129.25,0.10862891666666667,33.41,88.07999998805333,1.109609375,62.92862551088883
1374224129.5,0.10889549999999999,33.41,88.10333333333332,0.6439322916666668,62.95647729321224
1374224129.75,0.10921541666666666,33.41,88.12666667861333,0.5514322916666667,62.976275673097035
1374224130.0,0.10948204166666668,33.41,88.14999999999999,0.340625,62.99055708774649
1374224130.25,0.109748625,33.41,88.1624999936,0.26697916666666677,63.000697140824066
1374224130.5,0.11001520833333334,33.41,88.175,-0.031953124999999895,62.993782997923596
1374224130.75,0.11022845833333333,33.41083333333333,88.1875000064,-0.29270833333333324,62.97900465898271
1374224131.0,0.11044170833333333,33.4125,88.2,-0.4221354166666665,62.96335632818393
1374224131.25,0.11060166666666667,33.41416666666667,88.19833333418667,-0.7176302083333331,62.94783236357282
1374224131.5,0.11081491666666667,33.41583333333333,88.19666666666667,-1.3461718749999998,62.92933454830228
1374224131.75,0.11102816666666666,33.4175,88.19499999914667,-1.6714583333333335,62.91343746411635
1374224132.0,0.11113479166666666,33.41916666666666,88.19333333333334,-1.4946093749999998,62.89749891577761
1374224132.25,0.11124141666666666,33.42083333333333,88.18666667008,-0.5150260416666667,62.88147726035907
1374224132.5,0.11118812500000001,33.4225,88.18,0.14348958333333342,62.865289895577824
1374224132.75,0.11118812500000001,33.424166666666665,88.17333332992001,-0.15848958333333327,62.85067790065881
1374224133.0,0.11124141666666666,33.42583333333334,88.16666666666667,-0.8060677083333334,62.836646246278605
1374224133.25,0.11124141666666666,33.4275,88.15666667178667,-1.890911458333333,62.82273893708028
1374224133.5,0.11118812499999998,33.42916666666667,88.14666666666668,-2.7536718749999998,62.81764936104296
1374224133.75,0.11113483333333334,33.42916666666667,88.13666666154667,-3.038984375,62.81852039078552
1374224134.0,0.11102825,33.4275,88.12666666666667,-3.3354427083333333,62.82026141238597
1374224134.25,0.11102825000000001,33.42583333333333,88.11333334016,-3.899947916666667,62.82299652950263
1374224134.5,0.11097495833333333,33.424166666666665,88.1,-4.15765625,62.832937854539324
1374224134.75,0.11092166666666668,33.4225,88.08666665984,-4.754973958333333,62.84022902953063
1374224135.0,0.11092166666666668,33.420833333333334,88.07333333333334,-5.840468749999999,62.8497140373732
1374224135.25,0.11092166666666668,33.41916666666666,88.06083333973334,-7.098281249999999,62.86102063860944
1374224135.5,0.11097495833333333,33.4175,88.04833333333333,-7.438098958333335,62.88315193357381
1374224135.75,0.11097495833333333,33.41583333333333,88.03583332693333,-6.90640625,62.900738081040146
1374224136.0,0.11097495833333333,33.41416666666667,88.02333333333333,-5.870104166666667,62.922489045708915
1374224136.25,0.11097495833333333,33.412499999999994,88.01000000682666,-4.616901041666667,62.950511768852664
1374224136.5,0.11102825000000001,33.410833333333336,87.99666666666666,-3.6019791666666667,62.98594709404248
1374224136.75,0.11108154166666667,33.41,87.98333332650665,-3.577552083333334,63.01112541142438
1374224137.0,0.11118812500000001,33.41,87.96999999999998,-3.929895833333333,63.032589439370234
1374224137.25,0.11124141666666666,33.41,87.95750000639998,-3.657734375,63.045626287117585
1374224137.5,0.11129470833333334,33.41,87.945,-2.62921875,63.05158204626682
1374224137.75,0.111348,33.41,87.9324999936,-1.1710937499999996,63.06018795546145
1374224138.0,0.111348,33.41,87.92,-0.2696614583333331,63.06535937932332
1374224138.25,0.111348,33.41,87.90583334058667,-0.6557291666666664,63.06995040212715
1374224138.5,0.111348,33.41,87.89166666666667,-2.657942708333333,63.06214531268179
1374224138.75,0.111348,33.41,87.87749999274666,-4.83125,63.058799065999075
1374224139.0,0.111348,33.41,87.86333333333333,-6.1855208333333325,63.050335536168035
1374224139.25,0.111348,33.41,87.85083333973333,-7.425703124999999,63.033284327045386
1374224139.5,0.111348,33.41,87.83833333333334,-8.192994791666665,63.000003510563516
1374224139.75,0.111348,33.41,87.82583332693333,-7.7499739583333325,62.97847082676601
1374224140.0,0.111348,33.41,87.81333333333333,-6.242630208333334,62.9591613075281
1374224140.25,0.11129470833333333,33.41,87.79250001066667,-5.067760416666666,62.94956172586444
1374224140.5,0.11118812499999998,33.41,87.77166666666668,-5.152552083333333,62.93900923086063
1374224140.75,0.11108154166666667,33.41,87.75083332266667,-5.870911458333334,62.93429407667188
1374224141.0,0.11097495833333333,33.41,87.73,-6.056510416666668,62.932930023783236
1374224141.25,0.110868375,33.41,87.70250001408,-4.82328125,62.930407885638765
1374224141.5,0.11076179166666666,33.41,87.67500000000001,-2.308802083333333,62.92962287537805
1374224141.75,0.11065520833333332,33.41,87.64749998592,-0.38960937499999965,62.92266883686372
1374224142.0,0.110548625,33.41,87.62,0.41205729166666694,62.88678129385918
1374224142.25,0.11044204166666666,33.41,87.57916668757333,1.2769270833333335,62.89622586769372
1374224142.5,0.11033545833333332,33.41,87.53833333333333,2.2552083333333335,62.95862868285136
1374224142.75,0.110228875,33.41,87.49749997909333,2.5224218750000005,63.019540373132564
1374224143.0,0.11017558333333333,33.41,87.45666666666666,1.4460677083333335,63.09128586888246
1374224143.25,0.110228875,33.41,87.4108333568,0.28703125000000007,63.117362113933716
1374224143.5,0.11033545833333334,33.41,87.365,-0.5888541666666666,63.208224963711594
1374224143.75,0.11044204166666666,33.41,87.31916664319999,-1.3135677083333333,63.2830971086459
1374224144.0,0.110548625,33.41,87.27333333333333,-1.2989322916666666,63.43018138103232
1374224144.25,0.11070854166666666,33.41,87.22333335893333,-1.4870052083333334,63.534910846515515
1374224144.5,0.11097512500000001,33.41,87.17333333333333,-2.4911458333333334,63.57642447023316
1374224144.75,0.11129504166666666,33.41,87.12333330773333,-2.5851041666666665,63.601170346180744
1374224145.0,0.11166829166666668,33.41,87.07333333333334,-2.524114583333333,63.75513192453906
1374224145.25,0.11214820833333333,33.41,87.02333335893334,-2.8191666666666664,63.77864076406635
1374224145.5,0.11268145833333333,33.41,86.97333333333333,-4.047083333333333,63.68384674290784
1374224145.75,0.11337466666666667,33.41,86.92333330773333,-5.273802083333333,63.5447316092612
1374224146.0,0.11422787499999999,33.41,86.87333333333333,-5.115078125,63.40224172333301
1374224146.25,0.115241125,33.41,86.82833335637334,-5.284010416666667,63.29751555560682
1374224146.5,0.11625437500000001,33.41,86.78333333333333,-5.696015625,63.12928677611939
1374224146.75,0.117267625,33.41,86.73833331029334,-6.2531510416666665,62.97242877548791
1374224147.0,0.118440875,33.41,86.69333333333334,-7.472578125000001,62.73994736599217
1374224147.25,0.11956079166666667,33.41,86.65000002218667,-8.408645833333333,62.5638279833951
1374224147.5,0.12057404166666667,33.41,86.60666666666667,-8.569270833333333,62.462905134444135
1374224147.75,0.12153395833333334,33.41,86.56333331114666,-8.861796875000001,62.392634028125606
1374224148.0,0.12201391666666667,33.41,86.52,-9.140572916666667,62.18627861344799
1374224148.25,0.12238720833333334,33.41,86.47416669013333,-8.6925,62.05545859714234
1374224148.5,0.12244054166666668,33.41,86.42833333333333,-7.2308593750000005,62.02697367019092
1374224148.75,0.12233391666666667,33.409166666666664,86.38249997653332,-6.502916666666667,62.07122970204668
1374224149.0,0.12201400000000001,33.40749999999999,86.33666666666666,-7.673697916666666,62.10221402117352
1374224149.25,0.12030754166666668,33.405833333333334,86.28250002773333,-8.778932291666667,62.14563137012658
1374224149.5,0.11977429166666669,33.40416666666666,86.22833333333332,-9.078333333333333,62.189049023753746
1374224149.75,0.11801450000000001,33.402499999999996,86.17416663893333,-8.137473958333333,62.22594880508154
1374224150.0,0.11481483333333335,33.40083333333333,86.12,-7.002994791666667,62.267528201685074
1374224150.25,0.11289504166666665,33.399166666666666,86.06000003072,-6.339192708333333,62.28541400537444
1374224150.5,0.11193512499999998,33.3975,86.0,-5.668046874999999,62.27835335181148
1374224150.75,0.11129520833333333,33.395833333333336,85.93999996928,-5.2653125,62.2650608211427
1374224151.0,0.11124187499999999,33.39416666666666,85.88,-4.835,62.29355170642555
1374224151.25,0.11118854166666665,33.392500000000005,85.81916669781333,-5.847109375,62.32661676140247
1374224151.5,0.11145512499999999,33.39083333333333,85.75833333333333,-8.93640625,62.350446923486864
1374224151.75,0.11156175,33.39,85.69749996885332,-10.794192708333332,62.34531441269783
1374224152.0,0.11140175000000001,33.39,85.63666666666666,-9.762604166666668,62.34213050707237
1374224152.25,0.11241495833333333,33.39,85.57750003029332,-7.681927083333334,62.29269367566955
1374224152.5,0.11225495833333334,33.39,85.51833333333333,-4.82640625,62.242715534495154
1374224152.75,0.113588125,33.39083333333333,85.45916663637333,-3.5195572916666666,62.21532888814915
1374224153.0,0.11620116666666665,33.392500000000005,85.39999999999999,-3.904453125,62.17811325666404
1374224153.25,0.11742766666666667,33.39416666666666,85.33666669909333,-6.357942708333333,62.15012955672961
1374224153.5,0.11769429166666667,33.395833333333336,85.27333333333333,-9.465963541666666,62.159513644746795
1374224153.75,0.11764091666666665,33.3975,85.20999996757332,-12.536041666666668,62.177896535648195
1374224154.0,0.11742758333333335,33.399166666666666,85.14666666666666,-14.591588541666667,62.20516776894769
1374224154.25,0.11726758333333333,33.40083333333333,85.07583336959999,-13.754453125,62.254968674499565
1374224154.5,0.11705429166666668,33.402499999999996,85.005,-10.843958333333335,62.24558398509438
1374224154.75,0.11742758333333335,33.40416666666666,84.9341666304,-9.387109375,62.22576153997816
1374224155.0,0.11812083333333333,33.405833333333334,84.86333333333333,-10.74859375,62.22141994421398
1374224155.25,0.11886741666666667,33.40749999999999,84.78666670592,-12.361770833333333,62.28076445397435
1374224155.5,0.11956066666666666,33.409166666666664,84.71000000000001,-15.077890625,62.322647951884186
1374224155.75,0.11998729166666666,33.41,84.63333329408,-16.470625000000002,62.34460951297066
1374224156.0,0.12057391666666667,33.41,84.55666666666667,-15.81125,62.37657030245618
1374224156.25,0.12126720833333332,33.41,84.48000003925334,-12.968906250000002,62.40998629685268
1374224156.5,0.1221205,33.41,84.40333333333334,-10.302604166666667,62.42354835071998
1374224156.75,0.12297379166666667,33.409166666666664,84.32666662741333,-7.9461458333333335,62.43938029973335
1374224157.0,0.12377375,33.40749999999999,84.25,-6.107656250000001,62.433761776530126
1374224157.25,0.12441370833333333,33.405833333333334,84.18500003328,-7.882239583333334,62.40994027824718
1374224157.5,0.12489366666666667,33.40416666666666,84.12,-9.527916666666668,62.437360645083125
1374224157.75,0.12489366666666664,33.401666666666664,84.05499996671999,-8.756328125000001,62.4807432991551
1374224158.0,0.124787,33.39833333333333,83.99,-6.53484375,62.531669574395664
1374224158.25,0.12452033333333334,33.395,83.93000003072,-5.3448697916666665,62.594924819917
1374224158.5,0.124307,33.39166666666666,83.87,-4.3834375,62.681649773961716
1374224158.75,0.12398704166666667,33.38833333333333,83.80999996928,-5.80859375,62.80083549407484
1374224159.0,0.12340045833333334,33.385,83.75,-7.895,62.909937571597006
1374224159.25,0.122813875,33.38166666666667,83.68500003328,-8.244479166666666,63.064517494825246
1374224159.5,0.12201395833333332,33.37833333333333,83.62,-7.7995833333333335,63.177694966909705
1374224159.75,0.12116070833333333,33.37583333333333,83.55499996672,-7.427265625,63.182469959978484
1374224160.0,0.12025412499999999,33.37416666666667,83.49000000000001,-8.874609375,63.17569478960862
1374224160.25,0.11934754166666667,33.372499999999995,83.40666670933334,-8.410442708333333,63.15281621099169
1374224160.5,0.11849429166666665,33.37083333333333,83.32333333333334,-7.744765624999999,63.11115322301191
1374224160.75,0.11758770833333333,33.36875,83.23999995733334,-8.586223958333333,63.07229809747668
1374224161.0,0.11662783333333333,33.36625,83.15666666666667,-9.071067708333333,63.005504794842835
1374224161.25,0.11572133333333333,33.363749999999996,83.05833338368,-8.130208333333334,62.876323571662844
1374224161.5,0.1147615,33.361250000000005,82.96000000000001,-6.570182291666668,62.76578407662285
1374224161.75,0.11385495833333333,33.35875,82.86166661632001,-2.8744531250000005,62.63455271033775
1374224162.0,0.11305504166666668,33.35625,82.76333333333334,1.1450520833333335,62.577337577146785
1374224162.25,0.11225512500000001,33.35375,82.65916672,3.3833854166666666,62.50269128149471
1374224162.5,0.11150854166666668,33.35125,82.555,5.340468749999999,62.4765221314531
1374224162.75,0.11081529166666666,33.35,82.45083328000001,8.11921875,62.5556170640435
1374224163.0,0.11022870833333333,33.35,82.34666666666668,12.461354166666666,62.68305278448978
1374224163.25,0.10974879166666666,33.35,82.23666672298667,16.682890625,62.91561695394171
1374224163.5,0.10932220833333334,33.35,82.12666666666667,20.153723958333334,63.21090752694965
1374224163.75,0.108895625,33.35208333333333,82.01666661034668,23.562317708333335,63.43334262486491
1374224164.0,0.10852233333333333,33.356249999999996,81.90666666666667,25.997760416666665,63.732891961138584
1374224164.25,0.108149,33.36041666666667,81.79000005973333,27.609791666666666,64.09160300189306
1374224164.5,0.107829,33.364583333333336,81.67333333333333,28.499687499999997,64.45354334145635
1374224164.75,0.10756233333333333,33.36875,81.55666660693333,29.388307291666667,64.752479492675
1374224165.0,0.10729566666666666,33.37291666666666,81.44,29.1128125,64.9612642873679
1374224165.25,0.10708233333333332,33.37708333333334,81.32000006144,27.325781250000002,64.97380327764904
1374224165.5,0.106869,33.38125,81.19999999999999,26.135312499999998,64.97118823708028
1374224165.75,0.10665566666666666,33.384166666666665,81.07999993856,24.748125,64.96836220412787
1374224166.0,0.10644233333333335,33.38583333333333,80.96,22.517447916666665,64.90616282656468
1374224166.25,0.106229,33.3875,80.84333339306666,19.311536458333332,64.72303695851697
1374224166.5,0.10606900000000001,33.38916666666667,80.72666666666667,15.737786458333334,64.48141171150937
1374224166.75,0.10601566666666667,33.39,80.60999994026668,12.345052083333334,64.30468648414673
1374224167.0,0.10601566666666667,33.39,80.49333333333334,10.389583333333333,64.07445690862204
1374224167.25,0.10606900000000001,33.39,80.38750005418667,10.454010416666668,63.85913264231286
1374224167.5,0.10622900000000002,33.39,80.28166666666667,10.412916666666666,63.620554977532315
1374224167.75,0.106389,33.38916666666667,80.17583327914667,8.480494791666667,63.44079238395381
1374224168.0,0.106549,33.3875,80.07000000000001,8.995781249999999,63.305339235101506
1374224168.25,0.10670900000000001,33.38583333333333,79.97333338282667,11.224375,63.447676362712286
1374224168.5,0.10686899999999999,33.384166666666665,79.87666666666667,11.970338541666669,63.59691096771666
1374224168.75,0.107029,33.38333333333333,79.77999995050668,10.625885416666666,63.72152428424334
1374224169.0,0.10718899999999999,33.38333333333333,79.68333333333334,11.324192708333333,63.89228115372555
1374224169.25,0.10724233333333333,33.38333333333333,79.59750004394667,14.590859374999999,64.2522010238573
1374224169.5,0.10729566666666666,33.38333333333333,79.51166666666666,17.075651041666667,64.55983984331601
1374224169.75,0.10729566666666666,33.38333333333333,79.42583328938666,18.721875,64.87994751247071
1374224170.0,0.10729566666666666,33.38333333333333,79.33999999999999,19.128932291666665,65.05904219786608
1374224170.25,0.10729566666666666,33.38333333333333,79.25666670933333,17.931640625,65.11220241977493
1374224170.5,0.10713566666666667,33.38333333333333,79.17333333333332,18.32513020833333,65.11621057344091
1374224170.75,0.10697566666666668,33.384166666666665,79.08999995733332,19.074270833333333,65.10513783105415
1374224171.0,0.10676233333333333,33.38583333333333,79.00666666666666,16.458489583333332,65.01650660196638
1374224171.25,0.10649566666666666,33.387499999999996,78.91750004565333,16.709817708333333,64.80680674017941
1374224171.5,0.10617566666666667,33.38916666666666,78.82833333333332,18.213619791666666,64.60203799622047
1374224171.75,0.10580233333333333,33.39,78.73916662101333,22.282161458333334,64.40759768266564
1374224172.0,0.105429,33.39,78.64999999999999,23.994375,64.19559482017047
1374224172.25,0.10516233333333334,33.39,78.56083337898666,23.494531249999998,63.818735751274765
1374224172.5,0.10484233333333333,33.39,78.47166666666666,24.005468750000002,63.48251211321543
1374224172.75,0.10452233333333334,33.39,78.38249995434667,24.668776041666664,63.121755140609885
1374224173.0,0.10414899999999999,33.39,78.29333333333334,25.142864583333335,62.901072153319205
1374224173.25,0.10372233333333335,33.39,78.21583337301334,25.064791666666665,62.766455485042805
1374224173.5,0.10334900000000001,33.39,78.13833333333334,24.073880208333335,62.689346397709784
1374224173.75,0.102922375,33.39,78.06083329365333,24.248098958333333,62.621081255718856
1374224174.0,0.10249579166666667,33.39,77.98333333333333,26.043307291666668,62.61433919046624
1374224174.25,0.10201587499999999,33.39,77.92666669568,24.798828125,62.61512761481337
1374224174.5,0.101482625,33.39,77.87,23.62817708333333,62.61769256858387
1374224174.75,0.10089604166666667,33.39,77.81333330432,21.51817708333333,62.623911844668754
1374224175.0,0.10025612500000002,33.39,77.75666666666666,20.544531250000002,62.6276863194202
1374224175.25,0.09961620833333333,33.39,77.71500002133332,20.09421875,62.648272556359444
1374224175.5,0.099029625,33.39,77.67333333333333,19.75421875,62.70634124895589
1374224175.75,0.09849637499999998,33.38916666666666,77.63166664533334,20.089140625000002,62.817787211180416
1374224176.0,0.09801645833333333,33.387499999999996,77.59,20.174947916666664,62.93359379204845
1374224176.25,0.09758987499999999,33.38583333333333,77.55666668373334,19.342317708333333,63.046892275783414
1374224176.5,0.09710995833333334,33.384166666666665,77.52333333333334,17.880208333333332,63.08287731209717
1374224176.75,0.09668333333333334,33.3825,77.48999998293333,16.291276041666666,63.15271209124691
1374224177.0,0.09636333333333334,33.380833333333335,77.45666666666666,14.938151041666666,63.2200960221603
1374224177.25,0.09609666666666668,33.37916666666666,77.42750001493333,12.556406250000002,63.34425563015322
1374224177.5,0.09588333333333333,33.3775,77.39833333333334,9.094348958333333,63.41436577470855
1374224177.75,0.09583000000000001,33.37583333333333,77.36916665173334,5.178515625,63.50933318964105
1374224178.0,0.09599,33.37416666666666,77.34,0.8896614583333332,63.61379601263087
1374224178.25,0.09641662500000002,33.372499999999995,77.30666668373334,-3.1187239583333337,63.75339246562357
1374224178.5,0.09684325,33.37083333333333,77.27333333333334,-7.1472395833333335,63.843039574580786
1374224178.75,0.09700325,33.37083333333333,77.23999998293333,-11.666197916666667,63.86610333811376
1374224179.0,0.09705658333333333,33.372499999999995,77.20666666666666,-15.182500000000003,63.87110520307479
1374224179.25,0.09726991666666668,33.37416666666666,77.16916668586667,-17.390859374999998,63.89737211654696
1374224179.5,0.09753658333333333,33.37583333333333,77.13166666666666,-19.429322916666667,64.0446362627171
1374224179.75,0.09785658333333332,33.3775,77.09416664746666,-20.989791666666665,64.14147423383098
1374224180.0,0.09812325,33.37916666666666,77.05666666666667,-22.749557291666665,64.23937300479365
1374224180.25,0.09828324999999999,33.38083333333333,77.01750002005333,-22.909661458333332,64.37195887171217
1374224180.5,0.09849658333333333,33.3825,76.97833333333332,-22.387838541666667,64.51783178813027
1374224180.75,0.09860324999999999,33.38333333333333,76.93916664661333,-21.75208333333333,64.54682427221215
1374224181.0,0.09849658333333333,33.38333333333333,76.89999999999999,-21.586666666666662,64.54872143319893
1374224181.25,0.09806995833333333,33.38333333333333,76.85583335594666,-21.454973958333337,64.45321990908904
1374224181.5,0.09764333333333335,33.38333333333333,76.81166666666667,-20.717447916666668,64.42398744903375
1374224181.75,0.09748333333333332,33.3825,76.76749997738666,-19.74473958333333,64.40799315307571
1374224182.0,0.09743,33.380833333333335,76.72333333333333,-19.533984375,64.39741690337407
1374224182.25,0.09721666666666666,33.37916666666667,76.67500002474667,-19.668385416666666,64.31825848275777
1374224182.5,0.09700333333333333,33.3775,76.62666666666667,-19.401901041666665,64.1986817686163
1374224182.75,0.09673666666666665,33.37583333333333,76.57833330858665,-19.728828125,64.12690160426068
1374224183.0,0.09652333333333334,33.37416666666667,76.52999999999999,-19.680208333333333,64.01063558879292
1374224183.25,0.09641666666666666,33.372499999999995,76.47833335978666,-19.802838541666667,63.78697048077709
1374224183.5,0.09625666666666666,33.37083333333333,76.42666666666665,-19.733802083333334,63.60198975076477
1374224183.75,0.09620333333333332,33.37,76.37499997354665,-18.788151041666666,63.53458670060987
1374224184.0,0.09625666666666666,33.37,76.32333333333332,-16.61885416666667,63.48289330334674
1374224184.25,0.09641666666666666,33.37,76.27583335765333,-14.693541666666668,63.56499618773788
1374224184.5,0.09668333333333333,33.37,76.22833333333332,-12.717760416666666,63.63660815749335
1374224184.75,0.09700333333333334,33.37,76.18083330901332,-10.031901041666666,63.73474201944905
1374224185.0,0.09732333333333333,33.37,76.13333333333333,-7.063125,63.85222584168795
1374224185.25,0.09764333333333335,33.37,76.09000002218666,-3.927552083333333,64.12748484287788
1374224185.5,0.09791,33.37,76.04666666666665,-1.1216666666666666,64.31474976554816
1374224185.75,0.09807,33.37,76.00333331114666,1.6225781250000002,64.43121486451945
1374224186.0,0.09807,33.37,75.96,4.237395833333333,64.59038812288081
1374224186.25,0.09828333333333333,33.37,75.9225000192,6.433958333333333,64.78743557007391
1374224186.5,0.09855000000000001,33.37,75.88499999999999,8.969713541666666,64.92380919042942
1374224186.75,0.09876333333333333,33.37,75.8474999808,11.401588541666667,65.02075207351169
1374224187.0,0.09892333333333335,33.37,75.81,13.229479166666666,65.1154457972709
1374224187.25,0.09903,33.37,75.78083334826667,15.109947916666668,65.19452152415046
1374224187.5,0.09903,33.37,75.75166666666667,15.233098958333331,65.18471057307706
1374224187.75,0.09881666666666666,33.37,75.72249998506668,14.346640625,65.14960721546365
1374224188.0,0.09855000000000001,33.37,75.69333333333334,14.412083333333333,65.15300011001881
1374224188.25,0.09833666666666667,33.37,75.66833334613334,14.276067708333334,65.05238085340133
1374224188.5,0.09817666666666668,33.37,75.64333333333335,14.451302083333333,65.00335745296464
1374224188.75,0.09812333333333333,33.36875,75.61833332053334,14.983958333333334,65.17883045574708
1374224189.0,0.09817666666666665,33.36625,75.59333333333333,15.817057291666666,65.40050944174914
1374224189.25,0.09801666666666665,33.36375,75.5766666752,16.439869791666666,65.30665280851228
1374224189.5,0.09785666666666666,33.36125,75.56,16.35442708333333,65.32614810232646
1374224189.75,0.09764333333333335,33.35874999999999,75.54333332479999,15.710260416666666,65.24770287236048
1374224190.0,0.09737666666666665,33.356249999999996,75.52666666666666,14.820104166666667,65.34726197732711
1374224190.25,0.09705666666666667,33.35375,75.51583333887999,13.812447916666665,65.23153942600622
1374224190.5,0.09668333333333333,33.35125,75.505,14.451276041666667,65.15133079885322
1374224190.75,0.09647,33.34875,75.49416666112,15.297317708333333,65.16631880914005
1374224191.0,0.09630999999999999,33.346250000000005,75.48333333333333,14.82296875,64.94294462405064
1374224191.25,0.09604333333333333,33.34375,75.48166666752,14.408255208333332,64.70009678447205
1374224191.5,0.09572333333333333,33.34125,75.48,13.385234375000001,64.55735684322973
1374224191.75,0.09540333333333334,33.34,75.47833333248,12.504609375,64.09171397925114
1374224192.0,0.09508333333333334,33.34,75.47666666666667,11.144348958333333,63.67125505780368
1374224192.25,0.09476333333333335,33.34,75.47666666666667,9.642083333333334,63.52541989765523
1374224192.5,0.09444333333333334,33.34,75.47666666666667,8.081171875,63.24010241664393
1374224192.75,0.09417666666666669,33.34,75.47666666666667,7.1046354166666665,63.27129397620566
1374224193.0,0.09396333333333334,33.34,75.47666666666667,6.825651041666666,62.892762805271595
1374224193.25,0.09380333333333334,33.34,75.48166666410667,6.325937499999999,62.743723686306716
1374224193.5,0.09369666666666666,33.34,75.48666666666668,4.957447916666667,62.72455472551811
1374224193.75,0.09358999999999999,33.34,75.49166666922667,3.9706770833333334,62.400755742031414
1374224194.0,0.09343000000000001,33.34,75.49666666666667,3.2418229166666666,62.497567304776645
1374224194.25,0.09332333333333333,33.34,75.50416666282666,2.2984635416666666,62.26873703279232
1374224194.5,0.09321666666666667,33.34,75.51166666666666,2.318489583333333,61.90247258494562
1374224194.75,0.09310999999999998,33.34,75.51916667050666,1.6739322916666666,61.851000109242314
1374224195.0,0.09305666666666668,33.34,75.52666666666666,0.9978645833333334,61.489259885890164
1374224195.25,0.09305666666666666,33.34,75.53833332736,0.7208854166666668,61.46575265914499
1374224195.5,0.09305666666666666,33.34,75.54999999999998,0.6708854166666667,61.41248095530855
1374224195.75,0.09305666666666668,33.34,75.56166667263999,0.2999479166666667,61.02887743978999
1374224196.0,0.09305666666666666,33.34,75.57333333333332,-0.8428385416666665,61.258728412706176
1374224196.25,0.09311000000000001,33.34,75.59333332309333,-1.5683854166666666,61.3637571228237
1374224196.5,0.09327,33.34,75.61333333333333,-1.566067708333333,61.370830642810155
1374224196.75,0.09343000000000001,33.34,75.63333334357333,-1.7963020833333332,61.87937694894859
1374224197.0,0.09369666666666665,33.34,75.65333333333334,-1.93828125,61.912717307851516
1374224197.25,0.09412333333333334,33.34,75.68249998506667,-1.728177083333333,62.37703112522385
1374224197.5,0.09486995833333334,33.34,75.71166666666667,-2.1533333333333333,62.98986721932343
1374224197.75,0.09604320833333334,33.34,75.74083334826666,-2.5765364583333334,63.25619990762481
1374224198.0,0.09796304166666665,33.34,75.77,-2.8867708333333333,63.86781739818957
1374224198.25,0.10036279166666667,33.34,75.80999997952,-2.3836718749999997,64.05116802810629
1374224198.5,0.102815875,33.34,75.85,-1.0753645833333334,64.3466940601886
1374224198.75,0.10526895833333333,33.34,75.89000002047999,-0.9134114583333334,64.90636454881074
1374224199.0,0.10772204166666667,33.34,75.92999999999999,0.9434635416666667,64.86994177278176
1374224199.25,0.11012179166666668,33.34,75.96999997952,2.6323958333333337,65.07005483119538
1374224199.5,0.11241487499999998,33.34,76.00999999999999,2.735078125,65.12243628660566
1374224199.75,0.11470795833333335,33.33958333333333,76.05000002047998,1.7766666666666666,64.69424178879899
1374224200.0,0.11694770833333334,33.338750000000005,76.08999999999999,-0.7674739583333333,64.59092369917238
1374224200.25,0.11892079166666665,33.337916666666665,76.13416664405332,-0.9492708333333333,64.33369286917326
1374224200.5,0.12041395833333333,33.33708333333333,76.17833333333333,-1.05984375,63.95629140062232
1374224200.75,0.121373875,33.33625,76.22250002261333,0.03255208333333334,63.889934967841036
1374224201.0,0.12148054166666666,33.33541666666667,76.26666666666667,1.7910416666666666,63.73275677476275
1374224201.25,0.12100062499999999,33.334583333333335,76.31416664234666,2.3928645833333335,63.50178398526984
1374224201.5,0.12041404166666668,33.33375,76.36166666666666,1.0300520833333333,63.4576347624868
1374224201.75,0.11977412500000001,33.33291666666666,76.40916669098667,1.033046875,63.066975952096186
1374224202.0,0.11913420833333332,33.33208333333334,76.45666666666666,-0.4277864583333335,63.00609057636816
1374224202.25,0.11849429166666665,33.33125,76.50916663978667,-2.3348958333333334,62.76733278099125
1374224202.5,0.11785437500000001,33.330416666666665,76.56166666666667,-2.479401041666667,62.811027177030034
1374224202.75,0.11716112499999999,33.33,76.61416669354666,-1.6202343750000001,63.05968045568287
1374224203.0,0.116467875,33.33,76.66666666666667,1.2119531249999997,63.185420155627675
1374224203.25,0.11588129166666668,33.33,76.72499997013334,0.8185416666666666,63.380216972705774
1374224203.5,0.11545466666666666,33.33,76.78333333333333,0.2682291666666665,63.49522716134885
1374224203.75,0.11513466666666666,33.33041666666667,76.84166669653332,-1.547109375,63.45029804960716
1374224204.0,0.11486800000000001,33.33125,76.89999999999999,-4.22125,63.35538450890698
1374224204.25,0.11465466666666667,33.33208333333334,76.96083330218666,-6.1804427083333335,63.48127734348241
1374224204.5,0.11444133333333334,33.33291666666667,77.02166666666666,-6.504817708333333,63.383787033622156
1374224204.75,0.114228,33.333333333333336,77.08250003114667,-6.921901041666666,63.526464486525946
1374224205.0,0.11401466666666667,33.333333333333336,77.14333333333333,-7.472786458333332,63.544007948434434
1374224205.25,0.11380133333333332,33.333333333333336,77.20583330133333,-7.025156249999999,63.51307582554051
1374224205.5,0.113481375,33.333333333333336,77.26833333333333,-6.70734375,63.32872642083083
1374224205.75,0.11284145833333335,33.33375,77.33083336533333,-5.536458333333333,63.12636185578615
1374224206.0,0.11145491666666667,33.334583333333335,77.39333333333333,-5.219375,62.95770631458373
1374224206.25,0.109535125,33.33541666666667,77.44749997226667,-3.33984375,62.770261285721055
1374224206.5,0.10766866666666668,33.33625,77.50166666666667,-1.18625,62.693315344375485
1374224206.75,0.10532229166666668,33.33666666666667,77.55583336106666,1.4580989583333335,62.633404982062274
1374224207.0,0.10249595833333332,33.336666666666666,77.61,4.142994791666667,62.577040785317116
1374224207.25,0.099669625,33.33666666666667,77.65416664405333,6.301380208333334,62.49148227807834
1374224207.5,0.096896625,33.336666666666666,77.69833333333334,7.549973958333333,62.442102829719126
1374224207.75,0.09407029166666665,33.33833333333334,77.74250002261334,8.407864583333334,62.36152073979118
1374224208.0,0.09103062499999999,33.34166666666667,77.78666666666668,9.677916666666667,62.29107975652363
1374224208.25,0.08799095833333333,33.345,77.82416664746667,10.454505208333334,62.26224028260952
1374224208.5,0.08527125,33.348333333333336,77.86166666666668,10.807682291666666,62.23904627945521
1374224208.75,0.0830315,33.35125,77.89916668586667,9.818307291666667,62.24213113444147
1374224209.0,0.08159166666666667,33.35375,77.93666666666667,9.526302083333333,62.27863909331046
1374224209.25,0.08116504166666667,33.356249999999996,77.97583331328,8.643203125000001,62.3697929363668
1374224209.5,0.08132504166666667,33.35875,78.015,8.234739583333335,62.42266035530622
1374224209.75,0.08265820833333333,33.361250000000005,78.05416668672,7.670937500000001,62.43765724314752
1374224210.0,0.085004625,33.36375,78.09333333333333,7.21390625,62.49200933561463
1374224210.25,0.08740437499999999,33.36625,78.1391666432,6.2059375,62.52821881814368
1374224210.5,0.08985745833333332,33.36875,78.185,6.406848958333334,62.56411267101308
1374224210.75,0.09252383333333332,33.36875,78.23083335679999,7.685364583333333,62.58410346177311
1374224211.0,0.09545683333333332,33.36625,78.27666666666666,9.456171875,62.64553594584745
1374224211.25,0.09838983333333333,33.363749999999996,78.32833330688,10.281197916666667,62.65233508474728
1374224211.5,0.1011095,33.361250000000005,78.38,11.031901041666666,62.7160493342021
1374224211.75,0.1037225,33.35875,78.43166669312,13.388307291666669,62.754864458214875
1374224212.0,0.10628220833333334,33.35625,78.48333333333333,14.927083333333334,62.73037653452716
1374224212.25,0.10836195833333333,33.35375,78.53166664192,16.004921875,62.67904226345925
1374224212.5,0.10985508333333333,33.35125,78.58,16.417890625,62.7340025727792
1374224212.75,0.11065495833333333,33.35,78.62833335808,16.27901041666667,62.89984298217605
1374224213.0,0.11076158333333334,33.35,78.67666666666666,16.279036458333334,63.04989948365531
1374224213.25,0.11060158333333332,33.35,78.72999997269334,17.562135416666667,63.188822659617905
1374224213.5,0.11033491666666667,33.35,78.78333333333333,18.087187500000002,63.33151430367035
1374224213.75,0.10990829166666667,33.35125,78.83666669397333,17.984192708333335,63.530577150368856
1374224214.0,0.10937504166666667,33.35375,78.89,16.745625,63.676583447325214
1374224214.25,0.10884179166666667,33.35625,78.94583330474667,16.329557291666667,63.891726135580065
1374224214.5,0.10830854166666669,33.35874999999999,79.00166666666667,15.793229166666668,64.01732748421395
1374224214.75,0.10777529166666668,33.36125,79.05750002858666,13.734270833333332,64.14544869926102
1374224215.0,0.10724204166666668,33.363749999999996,79.11333333333333,12.133984375000002,64.30328948772159
1374224215.25,0.10670879166666668,33.36625,79.18166663168,10.827734374999999,64.36112276995127
1374224215.5,0.10617554166666666,33.36875,79.25,9.151822916666667,64.24521292233109
1374224215.75,0.10569562500000002,33.37,79.31833336832,8.260442708333334,64.0481046085541
1374224216.0,0.10537566666666666,33.37,79.38666666666667,7.8816927083333335,63.81354910111037
1374224216.25,0.10532233333333334,33.37,79.45583329792001,6.14828125,63.67663177442616
1374224216.5,0.10532233333333334,33.37,79.525,3.8949739583333334,63.528939871491026
1374224216.75,0.10537566666666666,33.36875,79.59416670208,1.2928645833333332,63.294694041227324
1374224217.0,0.10553566666666668,33.36625,79.66333333333334,-0.907109375,63.05056710939757
1374224217.25,0.10569566666666667,33.363749999999996,79.72583330133334,-2.828359375,62.78559248875524
1374224217.5,0.10585566666666667,33.361250000000005,79.78833333333334,-4.715000000000001,62.599429324936786
1374224217.75,0.10601566666666666,33.36000000000001,79.85083336533334,-6.000598958333334,62.38330166356152
1374224218.0,0.10617566666666667,33.36,79.91333333333334,-7.114088541666667,62.15570385454236
1374224218.25,0.10628233333333333,33.36,79.96749997226667,-8.128072916666666,62.06302965592001
1374224218.5,0.10638900000000001,33.36,80.02166666666668,-8.478229166666667,62.112797842816946
1374224218.75,0.10644233333333332,33.35875,80.07583336106667,-8.668750000000001,62.1745946732822
1374224219.0,0.10649566666666666,33.356249999999996,80.13,-9.502604166666666,62.226528069136606
1374224219.25,0.10649566666666667,33.35375,80.18833330346666,-9.013046875,62.195713065692466
1374224219.5,0.10649566666666666,33.35125,80.24666666666667,-7.6398697916666665,62.1700452330941
1374224219.75,0.10649566666666667,33.35125,80.30500002986666,-5.9853125,62.17879048187467
1374224220.0,0.106389,33.35375,80.36333333333333,-4.04796875,62.22530733654335
1374224220.25,0.106229,33.35625,80.42999996586666,-1.8922135416666668,62.27670245456054
1374224220.5,0.10601566666666666,33.35875,80.49666666666667,0.9808854166666667,62.284809098998664
1374224220.75,0.105749,33.36000000000001,80.56333336746667,3.7507812500000006,62.355769323018286
1374224221.0,0.10548233333333333,33.36000000000001,80.63,6.603750000000001,62.42761082194648
1374224221.25,0.105269,33.36,80.70083329706667,8.917630208333334,62.43828936108762
1374224221.5,0.10505566666666666,33.36,80.77166666666668,10.844635416666668,62.41317546680546
1374224221.75,0.10484233333333333,33.36125,80.84250003626667,12.037630208333333,62.38885789302109
1374224222.0,0.10462900000000001,33.36375,80.91333333333334,13.343046875,62.445279370422675
1374224222.25,0.10441566666666667,33.36625,80.97833330005334,14.210989583333335,62.5431640232839
1374224222.5,0.10420233333333334,33.36875,81.04333333333334,14.903645833333334,62.63770084912142
1374224222.75,0.103989,33.36875,81.10833336661334,15.520885416666667,62.74950671112365
1374224223.0,0.103829,33.36625,81.17333333333333,15.876796874999998,62.85833115784633
1374224223.25,0.10372233333333335,33.36375,81.23999996586667,14.970364583333335,63.01252730849249
1374224223.5,0.103669,33.36125,81.30666666666667,12.940286458333333,63.19025776895703
1374224223.75,0.103669,33.35874999999999,81.37333336746667,10.550677083333333,63.38906904699106
1374224224.0,0.103669,33.356249999999996,81.44000000000001,7.524453125,63.6557222458772
1374224224.25,0.103669,33.35375,81.50499996672,5.457552083333334,63.855561713884384
1374224224.5,0.10361566666666666,33.35125,81.57000000000001,4.760078125,64.05523071578105
1374224224.75,0.103509,33.348333333333336,81.63500003328001,5.353177083333333,64.42918364319453
1374224225.0,0.10340233333333333,33.345000000000006,81.7,5.044973958333333,64.66369721107063
1374224225.25,0.10324233333333332,33.34166666666667,81.76416663381333,3.1287239583333335,64.76783107343157
1374224225.5,0.103029,33.33833333333333,81.82833333333333,0.5767968749999999,64.8537324500648
1374224225.75,0.102762375,33.33541666666667,81.89250003285333,-0.9284635416666668,64.96638817037807
1374224226.0,0.10249575,33.33291666666667,81.95666666666666,-2.881380208333333,64.84998899980451
1374224226.25,0.10222912499999999,33.330416666666665,82.01583330304,-4.572317708333333,64.7223317514787
1374224226.5,0.10190920833333333,33.32791666666667,82.075,-7.125885416666667,64.54968652941494
1374224226.75,0.10158929166666665,33.32625,82.13416669696001,-9.176822916666667,64.22393015541682
1374224227.0,0.10126937500000001,33.32541666666667,82.19333333333334,-9.515104166666667,63.81838122538238
1374224227.25,0.10094945833333334,33.32458333333334,82.25416663552001,-10.086875,63.575704661366366
1374224227.5,0.100682875,33.32375,82.31500000000001,-13.080755208333334,63.41703038860002
1374224227.75,0.100469625,33.32375,82.37583336448,-16.865989583333334,63.00373753521881
1374224228.0,0.100256375,33.32458333333333,82.43666666666667,-19.173958333333335,62.62139231409603
1374224228.25,0.10014975,33.32541666666666,82.4908333056,-18.58221354166667,62.3439341624638
1374224228.5,0.10014975,33.32625,82.545,-16.756015625,62.192743566544436
1374224228.75,0.10020304166666666,33.327916666666674,82.5991666944,-15.873541666666668,62.01575230844683
1374224229.0,0.10030966666666667,33.33041666666667,82.65333333333334,-14.200677083333332,62.146455895155384
1374224229.25,0.100469625,33.33291666666667,82.69666664448,-11.656484374999998,62.27077275895808
1374224229.5,0.10073620833333334,33.33541666666667,82.74000000000001,-7.7146875,62.4230980756094
1374224229.75,0.101056125,33.33708333333334,82.78333335552,-4.023385416666667,62.677155755506995
1374224230.0,0.101429375,33.337916666666665,82.82666666666667,-1.6092708333333334,62.951851797288974
1374224230.25,0.10185595833333334,33.338750000000005,82.86583331328,0.341015625,63.0982619732032
1374224230.5,0.10228254166666667,33.33958333333334,82.905,3.516666666666667,63.18267733252662
1374224230.75,0.10276245833333332,33.33958333333333,82.94416668672,6.528515625,63.39456489376695
1374224231.0,0.10329570833333335,33.338750000000005,82.98333333333333,8.8215625,63.66998335605283
1374224231.25,0.10377566666666667,33.337916666666665,83.03583330645334,9.691510416666667,63.94357273538006
1374224231.5,0.10420233333333333,33.33708333333333,83.08833333333334,9.499218749999999,64.08646816216752
1374224231.75,0.10462900000000001,33.33625,83.14083336021334,8.944713541666667,64.2446937048979
1374224232.0,0.10500233333333332,33.33541666666667,83.19333333333334,7.452942708333333,64.30118722442519
1374224232.25,0.10532233333333334,33.334583333333335,83.25583330133334,4.993463541666666,64.29784939221906
1374224232.5,0.105589,33.33375,83.31833333333333,3.1004166666666664,64.31988658114797
1374224232.75,0.10580233333333335,33.33291666666666,83.38083336533333,1.5773177083333332,64.35103580217368
1374224233.0,0.10596233333333334,33.33208333333334,83.44333333333333,0.23307291666666652,64.36651895946356
1374224233.25,0.10601566666666666,33.33125,83.50833330005332,-1.0789322916666668,64.42756627548478
1374224233.5,0.10596233333333334,33.330416666666665,83.57333333333332,-2.0957552083333337,64.45139876824831
1374224233.75,0.10585566666666668,33.33,83.63833336661334,-3.7394531250000003,64.41336351566123
1374224234.0,0.10564233333333332,33.33,83.70333333333333,-4.17078125,64.4108234304811
1374224234.25,0.105429,33.33,83.75749997226667,-4.092734375,64.36434716311179
1374224234.5,0.10521566666666667,33.33,83.81166666666667,-3.5826302083333332,64.3198553675658
1374224234.75,0.10500233333333332,33.33041666666667,83.86583336106666,-2.7269270833333334,64.22914197329156
1374224235.0,0.10478900000000001,33.33125,83.92,-1.2921354166666665,64.19186588865217
1374224235.25,0.10457566666666666,33.33208333333334,83.97416663893334,0.6278125000000001,64.14404923055038
1374224235.5,0.10436233333333333,33.33291666666667,84.02833333333334,2.3982031249999998,64.04586226637242
1374224235.75,0.10420233333333333,33.333333333333336,84.08250002773333,3.286197916666667,63.92797911225401
1374224236.0,0.10409566666666666,33.333333333333336,84.13666666666667,3.235260416666667,63.814880609755384
1374224236.25,0.10404233333333335,33.333333333333336,84.18833330688,4.1778385416666675,63.697784430423546
1374224236.5,0.10409566666666666,33.333333333333336,84.24000000000001,4.753098958333333,63.60184802799298
1374224236.75,0.10414899999999999,33.33375,84.29166669312,6.987239583333333,63.550760832918485
1374224237.0,0.10425566666666668,33.334583333333335,84.34333333333333,8.373255208333333,63.39966626965645
1374224237.25,0.10436233333333333,33.33541666666667,84.39499997354666,9.319713541666667,63.31562844895635
1374224237.5,0.10446899999999999,33.33625,84.44666666666666,8.77296875,63.29226107388493
1374224237.75,0.10457566666666668,33.33625,84.49833335978667,7.157838541666667,63.25865313052475
1374224238.0,0.10473566666666667,33.33541666666667,84.55,5.262499999999999,63.19568360801021
1374224238.25,0.10489566666666666,33.334583333333335,84.59749997568,4.110755208333333,63.18928031987221
1374224238.5,0.10510900000000001,33.33375,84.64500000000001,3.0763802083333327,63.2654271386773
1374224238.75,0.105269,33.333333333333336,84.69250002432001,2.122135416666666,63.38286192017147
1374224239.0,0.10537566666666669,33.333333333333336,84.74000000000001,1.599895833333333,63.571242388650205
1374224239.25,0.10553566666666665,33.333333333333336,84.78333331114668,-0.2041927083333339,63.72821576451103
1374224239.5,0.105749,33.333333333333336,84.82666666666668,-1.2281770833333339,63.861655199282666
1374224239.75,0.10606900000000001,33.33291666666666,84.87000002218667,-3.2989843750000003,63.968370264258475
1374224240.0,0.10649566666666667,33.33208333333334,84.91333333333334,-6.789348958333334,64.15669991619386
1374224240.25,0.10692233333333334,33.33125,84.95249997994667,-10.978203125,64.31080802762487
1374224240.5,0.10734900000000001,33.330416666666665,84.99166666666667,-12.785130208333333,64.41571797649327
1374224240.75,0.10777566666666666,33.33,85.03083335338667,-13.514765625,64.5484879628941
1374224241.0,0.108149,33.33,85.07,-13.145052083333335,64.61648858434097
1374224241.25,0.10852233333333333,33.33,85.10999997952,-12.580520833333333,64.70319283750929
1374224241.5,0.10878899999999998,33.33,85.15,-13.463697916666668,64.66667312139225
1374224241.75,0.10905566666666666,33.33,85.19000002048,-14.212864583333333,64.63168989493495
1374224242.0,0.10932233333333331,33.33,85.23,-14.601666666666667,64.59792110060319
1374224242.25,0.109429,33.33,85.26833331370666,-12.813932291666667,64.62520730629531
1374224242.5,0.10932233333333334,33.33,85.30666666666667,-12.820572916666668,64.64489315898335
1374224242.75,0.108949,33.329166666666666,85.34500001962667,-15.033515625,64.63676316391177
1374224243.0,0.10836233333333332,33.32749999999999,85.38333333333333,-16.257942708333335,64.57798985989842
1374224243.25,0.10777566666666666,33.32583333333333,85.42583331157333,-16.433515625000002,64.52340466613062
1374224243.5,0.10718899999999999,33.32416666666666,85.46833333333333,-19.149453125,64.53445454865566
1374224243.75,0.106549,33.3225,85.51083335509334,-20.906380208333335,64.53538709774585
1374224244.0,0.10590899999999999,33.32083333333333,85.55333333333334,-22.276380208333336,64.58244845828888
1374224244.25,0.10516237499999999,33.31916666666667,85.59333331285333,-24.657135416666666,64.57713258726632
1374224244.5,0.10441575000000002,33.3175,85.63333333333333,-25.477421875,64.71092185527066
1374224244.75,0.10366912500000001,33.31583333333334,85.67333335381333,-25.189088541666663,64.73676669730335
1374224245.0,0.10292250000000001,33.314166666666665,85.71333333333332,-25.041796875,64.59300788629841
1374224245.25,0.10228254166666667,33.3125,85.75249997994666,-27.002473958333336,64.41455006893419
1374224245.5,0.10180258333333332,33.310833333333335,85.79166666666666,-28.273385416666667,64.35797028669151
1374224245.75,0.10142933333333332,33.31,85.83083335338667,-26.689843749999998,64.36017496593483
1374224246.0,0.10121604166666669,33.31,85.87,-24.61059895833333,64.34612249939227
1374224246.25,0.10100275000000002,33.31,85.90249998336,-22.482161458333334,64.29310887377943
1374224246.5,0.10078945833333335,33.31,85.935,-18.2840625,64.1533496299087
1374224246.75,0.1006295,33.31,85.96750001664,-15.22328125,64.02379896242414
1374224247.0,0.10046954166666668,33.31,86.0,-13.414531250000001,63.887709644144145
1374224247.25,0.1004695,33.31,86.02833331882667,-11.435312500000002,63.75604588999848
1374224247.5,0.10052279166666667,33.31,86.05666666666667,-10.175625,63.52871250588336
1374224247.75,0.10057608333333333,33.31,86.08500001450668,-9.408671875,63.38149192966015
1374224248.0,0.10062937500000001,33.31,86.11333333333334,-8.186822916666666,63.34892725443773
1374224248.25,0.10068266666666666,33.31,86.13999998634667,-6.084947916666667,63.311588020350676
1374224248.5,0.10073595833333333,33.31,86.16666666666666,-3.563541666666666,63.17139741479309
1374224248.75,0.10084254166666667,33.31,86.19333334698666,-1.6884114583333332,62.987591719738255
1374224249.0,0.10094916666666666,33.31,86.21999999999998,-0.20205729166666653,62.83444709592896
1374224249.25,0.10105579166666667,33.31,86.24999998463998,0.7357031250000001,62.733031523989375
1374224249.5,0.10121575,33.31,86.27999999999999,1.4878125000000002,62.6634381969738
1374224249.75,0.10142904166666666,33.30916666666667,86.31000001535999,2.7995572916666673,62.592368998054916
1374224250.0,0.10164233333333333,33.307500000000005,86.33999999999999,3.8133593750000006,62.6109121560564
1374224250.25,0.10180233333333334,33.30583333333333,86.3649999872,5.268984375,62.73730903875599
1374224250.5,0.10196233333333332,33.30416666666667,86.38999999999999,6.482395833333334,62.92699118893279
1374224250.75,0.10217566666666666,33.3025,86.4150000128,7.777630208333334,63.16332400419719
1374224251.0,0.102389,33.30083333333334,86.44,8.915677083333334,63.42959232038572
1374224251.25,0.10260233333333334,33.29916666666667,86.46166665557332,9.589895833333333,63.73836733185851
1374224251.5,0.10281566666666665,33.2975,86.48333333333332,11.184791666666667,63.97558214398308
1374224251.75,0.103029,33.295833333333334,86.50500001109333,12.806302083333334,64.07845003334481
1374224252.0,0.10313566666666667,33.29416666666667,86.52666666666666,14.3265625,64.18139426008221
1374224252.25,0.10324233333333334,33.2925,86.53666666154666,15.418880208333334,64.29196727094505
1374224252.5,0.10324233333333332,33.29083333333333,86.54666666666665,13.868151041666666,64.40303310825543
1374224252.75,0.10313566666666667,33.29,86.55666667178666,11.147161458333334,64.52626216281026
1374224253.0,0.103029,33.29,86.56666666666666,9.756276041666668,64.55584840096422
1374224253.25,0.10297566666666665,33.29,86.57583332864,7.336536458333334,64.41536069595007
1374224253.5,0.10292233333333334,33.29,86.58500000000001,4.652265625,64.32664788986146
1374224253.75,0.10281566666666668,33.28916666666667,86.59416667136,2.4913281250000003,64.20391964247337
1374224254.0,0.102709,33.2875,86.60333333333334,1.2883072916666667,64.04152757317219
1374224254.25,0.10260233333333334,33.285833333333336,86.60916666368,-1.6126562499999997,63.796449497517024
1374224254.5,0.10249566666666667,33.28416666666667,86.61500000000001,-5.816692708333334,63.67415240104668
1374224254.75,0.102389,33.28333333333333,86.62083333632,-9.13140625,63.744875125838654
1374224255.0,0.10233566666666666,33.28333333333333,86.62666666666667,-11.635078125,63.866663234147644
1374224255.25,0.10228233333333332,33.28333333333334,86.6308333312,-13.42328125,63.93854077044418
1374224255.5,0.10233566666666667,33.28333333333333,86.63499999999999,-12.941067708333334,63.99790053460983
1374224255.75,0.10244233333333334,33.28333333333334,86.6391666688,-12.077239583333332,64.05137619553155
1374224256.0,0.10254899999999999,33.28333333333334,86.64333333333333,-12.286848958333335,64.15261743211666
1374224256.25,0.10260233333333334,33.28333333333333,86.63250000554666,-12.535286458333331,64.38786804912375
1374224256.5,0.10265566666666666,33.28333333333334,86.62166666666667,-11.363619791666666,64.49214356213513
1374224256.75,0.10260233333333334,33.284166666666664,86.61083332778668,-10.695,64.60291986966563
1374224257.0,0.102122375,33.285833333333336,86.60000000000001,-11.383359375,64.69808794241264
1374224257.25,0.101269125,33.2875,86.57333334698667,-10.302578125,64.85009263265353
1374224257.5,0.10041587499999999,33.28916666666667,86.54666666666668,-9.859713541666666,64.90763466728448
1374224257.75,0.09956262500000002,33.29,86.51999998634668,-10.38078125,64.89897390833063
1374224258.0,0.098709375,33.29,86.49333333333334,-11.752213541666668,64.88190761869508
1374224258.25,0.097856125,33.29,86.45583335253333,-13.310338541666667,64.98660753721121
1374224258.5,0.09694954166666665,33.29,86.41833333333332,-13.266354166666666,65.12403905717936
1374224258.75,0.09646958333333333,33.29,86.38083331413333,-12.770260416666666,65.27819527519146
1374224259.0,0.09641625,33.29,86.34333333333332,-12.114296874999999,65.39681965176753
1374224259.25,0.09636291666666667,33.29,86.31166668287999,-9.560598958333333,65.45162465496917
1374224259.5,0.09641625,33.29,86.27999999999999,-7.3176041666666665,65.52603810919585
1374224259.75,0.09668291666666666,33.29,86.24833331711999,-6.475338541666666,65.58657263134494
1374224260.0,0.09742954166666666,33.29,86.21666666666665,-6.906484375000001,65.66716324449915
1374224260.25,0.098656125,33.29,86.19500001109333,-7.570078124999999,65.73344093963767
1374224260.5,0.09993604166666666,33.29,86.17333333333332,-5.438958333333333,65.84936800702823
1374224260.75,0.10126929166666665,33.29,86.15166665557332,-3.1759375,66.05447706888393
1374224261.0,0.102655875,33.29,86.13,-1.2072916666666667,66.22464086474632
1374224261.25,0.10404245833333332,33.29,86.11500000768,0.6890364583333336,66.19914818901742
1374224261.5,0.10542904166666667,33.29,86.10000000000001,-0.40648437499999973,66.11996884291527
1374224261.75,0.10638900000000001,33.29,86.08499999232001,0.18635416666666693,66.04654027586504
1374224262.0,0.10692233333333334,33.29,86.07000000000001,-0.09565104166666642,65.79529625271114
1374224262.25,0.10745566666666666,33.29,86.05416667477334,-2.0873958333333333,65.49765314752764
1374224262.5,0.107829,33.29,86.03833333333333,-4.172734375,65.36645013831718
1374224262.75,0.107989,33.29,86.02249999189333,-5.563203125,65.14305755830033
1374224263.0,0.107989,33.29,86.00666666666666,-4.948854166666666,64.89958671067188
1374224263.25,0.107829,33.29,85.99416667306666,-1.8602343749999999,64.67683007184311
1374224263.5,0.10761566666666667,33.29,85.98166666666665,0.22484375000000023,64.4708925277275
1374224263.75,0.10734900000000001,33.28916666666667,85.96916666026667,1.0459895833333337,64.18019740509916
1374224264.0,0.107029,33.2875,85.95666666666666,2.0966145833333334,63.914708695622636
1374224264.25,0.106709,33.285833333333336,85.94666667178666,3.5130208333333335,63.752211329060394
1374224264.5,0.106389,33.28416666666667,85.93666666666667,6.256354166666667,63.59997362973471
1374224264.75,0.10606899999999998,33.2825,85.92666666154668,6.232083333333333,63.418974260783045
1374224265.0,0.10574899999999998,33.280833333333334,85.91666666666667,6.258541666666667,63.468625025758506
1374224265.25,0.10542900000000001,33.27916666666667,85.91416666794667,6.644635416666667,63.568240140489145
1374224265.5,0.10516233333333334,33.2775,85.91166666666668,6.606640625000001,63.50915464424821
1374224265.75,0.10500233333333332,33.27583333333334,85.90916666538668,7.8863281249999995,63.55299686271639
1374224266.0,0.104949,33.274166666666666,85.90666666666668,8.711302083333333,63.63807152704202
1374224266.25,0.10505566666666667,33.2725,85.90749999957335,6.277604166666666,63.7066029059223
1374224266.5,0.105269,33.270833333333336,85.90833333333335,3.075625,63.76243472936505
1374224266.75,0.10548233333333333,33.27,85.90916666709334,1.6655989583333335,63.827940026709875
1374224267.0,0.10569566666666667,33.27,85.91000000000001,0.4897916666666667,63.87284136651272
1374224267.25,0.10590899999999999,33.27,85.91416666453334,-1.7219791666666664,63.922653135654315
1374224267.5,0.10617566666666667,33.27,85.91833333333335,-3.7465624999999996,63.99467852298082
1374224267.75,0.10649566666666667,33.27,85.92250000213335,-4.511744791666667,64.06837211777257
1374224268.0,0.10681566666666666,33.27,85.92666666666668,-3.6414843749999997,64.09608068542808
1374224268.25,0.10708233333333332,33.27,85.9308333312,-2.35953125,64.12338152738351
1374224268.5,0.10734899999999999,33.27,85.935,-1.809817708333333,64.15156817605221
1374224268.75,0.10761566666666667,33.270833333333336,85.9391666688,-3.035390625,64.16159692177628
1374224269.0,0.107829,33.2725,85.94333333333333,-4.466119791666666,64.1492855568735
1374224269.25,0.10793566666666665,33.274166666666666,85.94250000042666,-4.604921875,64.13225784095891
1374224269.5,0.10793566666666667,33.27583333333333,85.94166666666666,-4.741041666666667,64.10226450866267
1374224269.75,0.10793566666666665,33.2775,85.94083333290666,-5.6765625,64.0726744754137
1374224270.0,0.10793566666666667,33.27916666666667,85.94,-6.079739583333333,64.04339309724774
1374224270.25,0.10788233333333334,33.280833333333334,85.92500000768,-5.4839062499999995,64.00817539121032
1374224270.5,0.10772233333333332,33.282500000000006,85.91,-5.147005208333334,63.97388803723539
1374224270.75,0.10750899999999998,33.284166666666664,85.89499999232,-4.802239583333333,63.94483278056784
1374224271.0,0.10729566666666666,33.285833333333336,85.88,-5.406458333333333,63.91825164085966
1374224271.25,0.10713566666666667,33.2875,85.83666668885333,-6.277734374999999,63.89341463841856
1374224271.5,0.10697566666666668,33.28916666666667,85.79333333333332,-6.202864583333333,63.87332406226099
1374224271.75,0.10681566666666666,33.29,85.74999997781333,-5.067395833333333,63.85754834020546
1374224272.0,0.10665566666666665,33.29,85.70666666666666,-3.722890625,63.83667722136721
1374224272.25,0.10644233333333335,33.29,85.64916669610666,-2.5369791666666663,63.823187371879925
1374224272.5,0.10628233333333333,33.29,85.59166666666667,-1.4269270833333332,63.81674439057334
1374224272.75,0.10612233333333333,33.29,85.53416663722668,-0.2733072916666665,63.81079030268958
1374224273.0,0.10590899999999999,33.29,85.47666666666667,0.7364843750000002,63.80769023671677
1374224273.25,0.10580233333333333,33.29,85.41083336704001,2.089661458333333,63.8073230608478
1374224273.5,0.10580233333333333,33.29,85.34500000000001,3.465833333333333,63.8073230608478
1374224273.75,0.10580233333333335,33.28916666666667,85.27916663296001,4.273723958333333,63.8073230608478
1374224274.0,0.10580233333333333,33.2875,85.21333333333335,5.711458333333333,63.80781283908479
1374224274.25,0.10580233333333333,33.285833333333336,85.15916669440001,7.0228125,63.80879247582397
1374224274.5,0.10580233333333333,33.28416666666667,85.10500000000002,7.802942708333334,63.81189488624949
1374224274.75,0.10580233333333333,33.2825,85.05083330560001,8.86671875,63.81450735790761
1374224275.0,0.10585566666666668,33.280833333333334,84.99666666666667,9.968125,63.819732943345535
1374224275.25,0.10596233333333333,33.27916666666667,84.93416669866667,10.461041666666667,63.819120748146936
1374224275.5,0.10601566666666667,33.2775,84.87166666666667,11.067734375,63.81479363637425
1374224275.75,0.10612233333333333,33.275000000000006,84.80916663466667,11.845833333333331,63.811201267166815
1374224276.0,0.10633566666666668,33.27166666666667,84.74666666666667,11.527526041666667,63.81120126716681
1374224276.25,0.10649566666666666,33.26833333333334,84.68333336576,10.151041666666666,63.81120126716681
1374224276.5,0.10660233333333334,33.26500000000001,84.62,9.1015625,63.812669910642974
1374224276.75,0.106709,33.26416666666667,84.55666663423999,8.6728125,63.817523161010776
1374224277.0,0.10681566666666666,33.26583333333334,84.49333333333333,7.669895833333334,63.818909994733815
1374224277.25,0.10692233333333333,33.2675,84.43000003242666,6.665572916666666,63.82041919041882
1374224277.5,0.107029,33.26916666666667,84.36666666666666,5.715208333333333,63.82889910582742
1374224277.75,0.10708233333333333,33.27,84.30333330090666,3.9690364583333335,63.830325725694394
1374224278.0,0.10713566666666667,33.27,84.24,1.971119791666667,63.82661067801153
1374224278.25,0.10718899999999999,33.27,84.18750002687999,0.7710677083333336,63.81799251571312
1374224278.5,0.10718899999999998,33.27,84.13499999999999,-0.6709635416666665,63.81251743516052
1374224278.75,0.10713566666666667,33.27166666666667,84.08249997312,-2.0208333333333335,63.806307612042666
1374224279.0,0.10702899999999999,33.275,84.02999999999999,-2.216171875,63.796505419717384
1374224279.25,0.10692233333333334,33.27833333333333,83.98416669013332,-1.8169531250000002,63.78670322739209
1374224279.5,0.10681566666666666,33.281666666666666,83.93833333333333,-1.6331770833333332,63.77543239159064
1374224279.75,0.106709,33.28333333333333,83.89249997653333,-1.8029687499999998,63.76077694889755
1374224280.0,0.10660233333333334,33.28333333333333,83.84666666666666,-1.99484375,63.74958792284923
1374224280.25,0.10649566666666667,33.28333333333334,83.80750002005333,-2.082942708333333,63.73827653483894
1374224280.5,0.106389,33.28333333333333,83.76833333333333,-1.5926822916666665,63.71999442710504
1374224280.75,0.10633566666666666,33.28416666666667,83.72916664661334,-0.8152864583333334,63.708765614912785
1374224281.0,0.10628233333333333,33.285833333333336,83.69,0.0941406250000001,63.70267847027035
1374224281.25,0.106229,33.2875,83.65666668373333,0.5461197916666668,63.702433234531945
1374224281.5,0.10628233333333333,33.28916666666667,83.62333333333333,1.4016927083333337,63.702433234531945
1374224281.75,0.106389,33.28916666666667,83.58999998293334,2.193671875,63.702433234531945
1374224282.0,0.10649566666666667,33.2875,83.55666666666667,2.323307291666667,63.702433234531945
1374224282.25,0.10660233333333334,33.285833333333336,83.53000001365334,2.4575260416666667,63.702433234531945
1374224282.5,0.106709,33.284166666666664,83.50333333333333,2.5708854166666666,63.702433234531945
1374224282.75,0.10686899999999999,33.282500000000006,83.47666665301334,2.4582552083333336,63.702433234531945
1374224283.0,0.10708233333333333,33.280833333333334,83.45,2.5328906250000003,63.702433234531945
1374224283.25,0.10729566666666666,33.27916666666667,83.42666667861333,2.9061458333333334,63.702433234531945
1374224283.5,0.10750900000000001,33.2775,83.40333333333334,2.79546875,63.702433234531945
1374224283.75,0.10777566666666667,33.27583333333333,83.37999998805334,2.854713541666667,63.702433234531945
1374224284.0,0.10809566666666666,33.274166666666666,83.35666666666667,3.252265625,63.702433234531945
1374224284.25,0.10841566666666667,33.2725,83.33750000981333,3.780729166666667,63.702433234531945
1374224284.5,0.10868233333333333,33.270833333333336,83.31833333333333,3.9038541666666666,63.702433234531945
1374224284.75,0.10889566666666667,33.270833333333336,83.29916665685333,4.099114583333334,63.702433234531945
1374224285.0,0.109109,33.2725,83.27999999999999,4.679557291666667,63.70615172762793
1374224285.25,0.10932233333333331,33.274166666666666,83.25750001152,4.885989583333333,63.713994330534064
1374224285.5,0.10953566666666668,33.27583333333333,83.23499999999999,5.091770833333333,63.73703363789798
1374224285.75,0.10969566666666668,33.2775,83.21249998847999,6.075546875000001,63.77028770519944
1374224286.0,0.10980233333333334,33.27916666666667,83.19,6.877760416666667,63.8022404825503
1374224286.25,0.10990899999999999,33.280833333333334,83.16166668117333,6.772395833333333,63.82259308945484
1374224286.5,0.11001566666666666,33.2825,83.13333333333333,7.440781250000001,63.830190933582905
1374224286.75,0.110069,33.28416666666667,83.10499998549334,8.07421875,63.835094249950714
1374224287.0,0.110069,33.285833333333336,83.07666666666667,7.856640625000001,63.83983422664097
1374224287.25,0.110069,33.2875,83.03750002005333,7.208593750000001,63.844451675979066
1374224287.5,0.110069,33.28916666666667,82.99833333333333,7.696302083333333,63.85086573136505
1374224287.75,0.110069,33.29,82.95916664661334,7.960130208333333,63.855932387410384
1374224288.0,0.110069,33.29,82.92,7.168020833333333,63.856790501201765
1374224288.25,0.110069,33.29,82.87750002176,7.280468750000001,63.85360619008444
1374224288.5,0.110069,33.29,82.83500000000001,8.081901041666667,63.83547022921369
1374224288.75,0.110069,33.28916666666667,82.79249997824,7.770703125000001,63.806792768799596
1374224289.0,0.110069,33.2875,82.75,7.237708333333333,63.779620810589726
1374224289.25,0.110069,33.285833333333336,82.70416669013333,8.249088541666667,63.763926495474
1374224289.5,0.110069,33.28416666666667,82.65833333333333,8.555130208333333,63.76127284028982
1374224289.75,0.110069,33.28333333333333,82.61249997653333,8.931744791666667,63.761191185513724
1374224290.0,0.110069,33.28333333333333,82.56666666666666,10.236067708333334,63.7613137128659
1374224290.25,0.110069,33.28333333333334,82.51666669226667,11.759557291666667,63.76184466472532
1374224290.5,0.110069,33.28333333333333,82.46666666666667,12.228671874999998,63.76090568989193
1374224290.75,0.110069,33.282500000000006,82.41666664106666,12.977031249999998,63.7627838704507
