timestamp,EDA,TEMP,HR,BVP,ACC_mag
1361379319.0,0.005872833333333334,32.09,,17.565260416666668,61.14736298484179
1361379319.25,0.005857571428571429,32.09,,17.89049107142857,61.14736298484179
1361379319.5,0.00592625,32.09,,19.636015625,61.14736298484179
1361379319.75,0.005979666666666667,32.09388888888889,,21.63215277777778,61.149746818489945
1361379320.0,0.0060224,32.1005,,24.743187499999998,61.15272661055013
1361379320.25,0.006057363636363638,32.105909090909094,,27.74338068181818,61.15984329576525
1361379320.5,0.006086500000000001,32.11041666666667,,29.495781250000004,61.19330678083171
1361379320.75,0.006139916666666666,32.119166666666665,,32.94765625,61.26952150792102
1361379321.0,0.00624675,32.130833333333335,,35.695859375000005,61.34833913037616
1361379321.25,0.006300166666666667,32.142500000000005,,37.69236979166667,61.428121400047424
1361379321.5,0.006300166666666667,32.15416666666666,,39.01388020833333,61.516602250264505
1361379321.75,0.006406958333333334,32.16583333333333,,40.09513020833334,61.6584763407352
1361379322.0,0.006406958333333334,32.1775,,42.542994791666665,61.85338219060251
1361379322.25,0.006460375000000001,32.18916666666666,,46.64463541666667,62.12678405121173
1361379322.5,0.006460375,32.20083333333333,,49.79065104166667,62.43082308637204
1361379322.75,0.006406958333333334,32.095416666666665,,52.15463541666667,62.740667561836865
1361379323.0,0.006406958333333334,31.872916666666665,,51.49005208333333,63.02567263267884
1361379323.25,0.006353541666666666,31.65041666666666,,45.41622395833334,63.30788194930161
1361379323.5,0.006246708333333333,31.427916666666665,,39.151953125,63.559018030231435
1361379323.75,0.006193291666666667,31.202499999999997,,33.94247395833333,63.76355808388462
1361379324.0,0.0060864583333333335,30.974166666666665,,29.64244791666667,63.97677402241576
1361379324.25,0.005979625,30.745833333333326,,25.538671875000002,64.18295388691149
1361379324.5,0.005872791666666668,30.5175,,21.048098958333334,64.33289871182147
1361379324.75,0.005712583333333333,30.359166666666667,,16.204348958333334,64.39575679620208
1361379325.0,0.0056057500000000005,30.27083333333333,,10.822395833333333,64.4391450784719
1361379325.25,0.005498916666666667,30.1825,,3.8419791666666665,64.40633455721266
1361379325.5,0.005392083333333335,30.094166666666666,,-3.1314583333333332,64.362977360781
1361379325.75,0.005392083333333335,30.1375,,-9.89953125,64.32930623350988
1361379326.0,0.005338666666666668,30.3125,,-14.960130208333334,64.44064945299286
1361379326.25,0.005338666666666668,30.4875,,-14.876406250000002,64.57228354479264
1361379326.5,0.0054455,30.662499999999998,,-13.659609375,64.7003127405732
1361379326.75,0.005498916666666667,30.837500000000002,,-13.413020833333334,64.84285122058037
1361379327.0,0.005659125,31.0125,,-13.479791666666666,64.96497611955918
1361379327.25,0.005872708333333333,31.1875,,-13.021744791666665,65.04244406271194
1361379327.5,0.006139666666666667,31.3625,,-12.321744791666665,65.1168922031911
1361379327.75,0.006406625,31.465,,-11.758828124999999,65.22647740555504
1361379328.0,0.006673583333333333,31.495000000000005,,-10.939088541666665,65.30041492235638
1361379328.25,0.006940541666666667,31.525000000000002,,-9.263723958333333,65.36900436335013
1361379328.5,0.0072074999999999995,31.554999999999996,,-7.054869791666666,65.41798513510494
1361379328.75,0.007581208333333332,31.5675,,-2.549661458333333,65.45016820434596
1361379329.0,0.008061708333333332,31.5625,74.375,2.806197916666667,65.35384634759056
1361379329.25,0.008595583333333332,31.5575,76.61458218666667,8.556901041666666,65.24072521616631
1361379329.5,0.009716708333333332,31.5525,78.85416666666666,12.822916666666666,65.13374189783079
1361379329.75,0.010837833333333333,31.551666666666666,81.09375114666666,16.16046875,64.9924143155864
1361379330.0,0.016123291666666668,31.555000000000003,83.33333333333333,18.794036458333334,64.87375438683237
1361379330.25,0.026106958333333336,31.558333333333334,85.99999863466667,21.263932291666666,64.82527541366288
1361379330.5,0.040682083333333334,31.561666666666667,88.66666666666666,22.676562500000003,64.8347360146346
1361379330.75,0.06027579166666667,31.56833333333333,91.33333469866666,23.684739583333336,64.84170875202437
1361379331.0,0.08648970833333332,31.578333333333333,94.0,23.973671875000004,64.8514490844459
1361379331.25,0.114746375,31.588333333333335,95.27499934720001,23.797213541666665,64.86864409151623
1361379331.5,0.14300304166666666,31.59833333333333,96.55000000000001,22.246875,64.87398097633931
1361379331.75,0.17109954166666666,31.608333333333334,97.8250006528,17.73765625,64.87807431274537
1361379332.0,0.19908925000000002,31.61833333333333,99.10000000000001,12.317760416666667,64.89052628363294
1361379332.25,0.22702558333333334,31.62833333333333,98.19000046592001,6.185703125,64.89791336572972
1361379332.5,0.26270329166666667,31.638333333333335,97.28,2.031979166666667,64.91203449728039
1361379332.75,0.3046415,31.644166666666663,96.36999953408,0.5057552083333333,64.9555610860703
1361379333.0,0.34236200000000006,31.645833333333332,95.46,0.7455729166666667,64.97442026867913
1361379333.25,0.3753309166666667,31.647499999999997,94.26083394730666,0.6876041666666667,64.97210156275365
1361379333.5,0.40365500000000004,31.649166666666662,93.06166666666667,1.3009895833333334,64.97145882914508
1361379333.75,0.42225941666666666,31.65,91.86249938602667,3.8557812499999997,64.97854809794
1361379334.0,0.436632125,31.65,90.66333333333334,8.028203125000001,64.98511573235982
1361379334.25,0.4571839583333333,31.65,89.94000037034667,10.164296875,64.98731957986149
1361379334.5,0.48046975,31.65,89.21666666666667,12.722812499999998,65.00437954331082
1361379334.75,0.5045029583333334,31.654999999999998,88.49333296298667,15.626796875000002,65.02268119204682
1361379335.0,0.53034025,31.665000000000003,87.77,18.532786458333334,65.04061968138947
1361379335.25,0.5580461666666666,31.675,87.39083352746667,22.373932291666666,65.05775913323761
1361379335.5,0.5799438333333333,31.685,87.01166666666666,25.824036458333335,65.06849220949404
1361379335.75,0.6026845833333333,31.69666666666667,86.63249980586666,30.249375,65.07361974565413
1361379336.0,0.6254253333333334,31.709999999999997,86.25333333333333,32.535833333333336,65.09639493240552
1361379336.25,0.6481660833333334,31.723333333333333,86.14833338709333,31.926822916666666,65.1362507839571
1361379336.5,0.6709068333333333,31.736666666666668,86.04333333333332,36.403567708333334,65.17445054066441
1361379336.75,0.6983486666666666,31.75,85.93833327957333,39.427005208333334,65.1946915285131
1361379337.0,0.7234020000000001,31.763333333333332,85.83333333333333,36.682057291666666,65.21955269624523
1361379337.25,0.7196787916666666,31.776666666666667,85.78583335765333,41.410312499999996,65.26938263042038
1361379337.5,0.696777875,31.789999999999996,85.73833333333332,51.712812500000005,65.33551193543254
1361379337.75,0.66435975,31.798333333333332,85.69083330901331,62.43015625,65.38517049386262
1361379338.0,0.6213706666666666,31.801666666666662,85.64333333333332,72.83742187499999,65.41025083163828
1361379338.25,0.5765129583333334,31.804999999999996,85.62000001194666,78.38567708333333,65.44487271807223
1361379338.5,0.5290814583333333,31.808333333333334,85.59666666666666,82.43307291666666,65.49798403499085
1361379338.75,0.474546375,31.823333333333334,85.57333332138666,82.92552083333332,65.52988130888184
1361379339.0,0.42001129166666673,31.849999999999998,85.55,83.19723958333333,65.53625297541957
1361379339.25,0.36510249999999994,31.876666666666665,85.54166667093332,86.37031250000001,65.51158331688494
1361379339.5,0.31078095833333336,31.903333333333332,85.53333333333333,83.97619791666666,65.47915046616895
1361379339.75,0.257206875,31.941666666666663,85.52499999573332,80.01080729166667,65.46174963323
1361379340.0,0.20512770833333335,31.99166666666667,85.51666666666665,81.30453125000001,65.44080817418028
1361379340.25,0.17584554166666666,32.041666666666664,85.51250000213332,77.53859375,65.39469799457989
1361379340.5,0.16460879166666664,32.09166666666667,85.50833333333333,67.36749999999999,65.32944830364848
1361379340.75,0.16278250000000002,32.141666666666666,85.50416666453333,57.15296875000001,65.28166818302199
1361379341.0,0.17004341666666667,32.19166666666667,85.5,46.48143229166667,65.25690773385001
1361379341.25,0.1773043333333333,32.24166666666667,85.50249999872,39.71950520833334,65.21334866055344
1361379341.5,0.18456525,32.291666666666664,85.505,33.74768229166666,65.15125976947859
1361379341.75,0.19102533333333335,32.328333333333326,85.50750000128,27.850911458333332,65.11972256860625
1361379342.0,0.19748541666666666,32.35166666666667,85.50999999999999,23.049036458333333,65.1080375295185
1361379342.25,0.20453275,32.37499999999999,85.51499999744,18.05888020833333,65.10557063137847
1361379342.5,0.21147333333333332,32.39833333333333,85.52000000000001,13.797656250000001,65.08606234866909
1361379342.75,0.21723933333333334,32.40833333333333,85.52500000256,11.465052083333333,65.02926059858697
1361379343.0,0.22086975,32.404999999999994,85.53000000000002,8.278125000000001,64.97251182951429
1361379343.25,0.22161716666666667,32.401666666666664,85.54249999360002,2.1021614583333332,64.89530729506772
1361379343.5,0.22006887500000002,32.39833333333333,85.555,-7.6221875,64.80301662861577
1361379343.75,0.2176129583333333,32.395,85.5675000064,-17.401822916666667,64.70644036470112
1361379344.0,0.21483670833333335,32.39166666666666,85.58,-26.297031250000003,64.61480872484654
1361379344.25,0.21222062499999997,32.38833333333333,85.60083332266667,-35.469609375,64.53290670705859
1361379344.5,0.20955112500000003,32.385,85.62166666666667,-44.473203125,64.4533504636211
1361379344.75,0.20794941666666666,32.38166666666667,85.64250001066667,-50.33859375,64.39309634666955
1361379345.0,0.20682820833333335,32.37833333333333,85.66333333333334,-48.46473958333334,64.309766674398
1361379345.25,0.20533329166666667,32.375,85.69583331669334,-42.05515625,64.22762498656671
1361379345.5,0.203357875,32.37166666666666,85.72833333333334,-40.63421875,64.17375433166549
1361379345.75,0.20180958333333332,32.372499999999995,85.76083334997334,-44.57523437500001,64.18074089054524
1361379346.0,0.20031466666666664,32.3775,85.79333333333334,-45.46510416666667,64.18085778907894
1361379346.25,0.20004770833333332,32.3825,85.83083331413333,-40.81385416666667,64.2052667960129
1361379346.5,0.20122224999999996,32.387499999999996,85.86833333333334,-31.664609375,64.26177602618921
1361379346.75,0.20319762500000002,32.39249999999999,85.90583335253334,-23.051276041666668,64.31662126376251
1361379347.0,0.20517299999999997,32.3975,85.94333333333333,-14.568046875000002,64.36498273874524
1361379347.25,0.20730854166666668,32.402499999999996,85.98583331157333,-6.477421875000001,64.44252781247215
1361379347.5,0.20976445833333332,32.4075,86.02833333333334,1.8388281249999991,64.52209725062723
1361379347.75,0.21216695833333332,32.4125,86.07083335509334,7.907473958333333,64.59600068629699
1361379348.0,0.21408895833333333,32.4175,86.11333333333334,6.772734375,64.69968379628673
1361379348.25,0.21638466666666667,32.4225,86.15166664704,1.4706249999999994,64.80357769840582
1361379348.5,0.21889395833333333,32.4275,86.19,2.5255208333333328,64.87227360604881
1361379348.75,0.22161683333333335,32.43083333333333,86.22833335296001,9.285520833333333,64.90927622343918
1361379349.0,0.22535408333333337,32.4325,86.26666666666667,12.991015625000001,64.93957230540424
1361379349.25,0.22919808333333333,32.43416666666666,86.29833331712,13.213932291666667,64.96104929262701
1361379349.5,0.23314887500000003,32.43583333333333,86.33,13.989427083333334,64.95924204431522
1361379349.75,0.23699291666666666,32.4375,86.36166668288,15.72234375,64.95605753506013
1361379350.0,0.24089033333333335,32.43916666666667,86.39333333333333,17.327786458333332,64.9565017318695
1361379350.25,0.24452079166666665,32.44083333333334,86.41249999018666,19.60369791666667,64.91246957214162
1361379350.5,0.2484181666666667,32.4425,86.43166666666666,21.89828125,64.87940185568665
1361379350.75,0.252635875,32.443333333333335,86.45083334314666,24.09057291666667,64.79375437753782
1361379351.0,0.25722729166666664,32.443333333333335,86.46999999999998,24.236328125,64.7127860490822
1361379351.25,0.26160516666666667,32.443333333333335,86.47916666197332,22.48875,64.66296495870381
1361379351.5,0.26619658333333335,32.443333333333335,86.48833333333332,19.361223958333333,64.64068751770874
1361379351.75,0.27062783333333335,32.4425,86.49750000469332,15.483463541666667,64.63562842123332
1361379352.0,0.274632,32.44083333333334,86.50666666666666,11.093723958333333,64.6517949444319
1361379352.25,0.27810229166666667,32.43916666666667,86.50833333247999,6.954947916666668,64.679708057126
1361379352.5,0.28151916666666665,32.4375,86.50999999999999,0.4674739583333343,64.72455644992486
1361379352.75,0.28605716666666664,32.43583333333333,86.51166666751999,-6.593776041666666,64.7956560860966
1361379353.0,0.29054179166666666,32.43416666666666,86.51333333333332,-13.397447916666666,64.87567995016683
1361379353.25,0.29497304166666666,32.4325,86.51166666751999,-18.70453125,64.97232253969788
1361379353.5,0.297162,32.43083333333333,86.50999999999999,-21.279661458333333,65.03704216273384
1361379353.75,0.29812299999999997,32.42625,86.50833333247999,-22.198098958333336,65.14621631793896
1361379354.0,0.2963611666666667,32.41875,86.50666666666666,-17.320989583333333,65.24396882526372
1361379354.25,0.2945993333333333,32.41125,86.50500000085333,-9.595859375,65.31758737778507
1361379354.5,0.29091549999999994,32.40375,86.50333333333333,-5.129895833333333,65.36356276576947
1361379354.75,0.2800775416666666,32.39625,86.50166666581333,-4.869218750000001,65.37813673040289
1361379355.0,0.2643278333333333,32.38875,86.5,-5.485598958333333,65.41442937065631
1361379355.25,0.24841795833333333,32.38125,86.50999999488,-5.994557291666667,65.44495297456396
1361379355.5,0.23170725,32.37375,86.52000000000001,-2.7776302083333335,65.4654453793151
1361379355.75,0.21344829166666668,32.36750000000001,86.53000000512,4.033854166666667,65.45549792160047
1361379356.0,0.19785879166666667,32.362500000000004,86.54,9.76515625,65.42799150140596
1361379356.25,0.18376416666666665,32.3575,86.55916665685334,9.928854166666667,65.37073042567798
1361379356.5,0.16988308333333332,32.3525,86.57833333333335,7.298880208333334,65.31973506176574
1361379356.75,0.15669608333333332,32.352916666666665,86.59750000981334,2.2916927083333336,65.26556507867859
1361379357.0,0.14735308333333333,32.35875,86.61666666666667,-8.043932291666666,65.23812833539598
1361379357.25,0.13993208333333332,32.364583333333336,86.64499998549334,-19.374739583333334,65.19563768286362
1361379357.5,0.1361415,32.370416666666664,86.67333333333335,-26.329583333333336,65.19626112432918
1361379357.75,0.14025245833333333,32.37625,86.70166668117335,-27.85299479166667,65.21596027405272
1361379358.0,0.149542125,32.382083333333334,86.73000000000002,-26.371406250000003,65.18050482272506
1361379358.25,0.15893854166666668,32.38791666666666,86.76166665045335,-22.745260416666667,65.11630080589099
1361379358.5,0.16833495833333334,32.39375,86.79333333333335,-20.337239583333332,64.99678588696825
1361379358.75,0.17831866666666665,32.399166666666666,86.82500001621335,-22.187343749999997,64.88693826289807
1361379359.0,0.1856329166666667,32.40416666666667,86.85666666666668,-24.369765625,64.78679133681402
1361379359.25,0.19198620833333335,32.409166666666664,86.88916665002668,-21.676171874999998,64.74650050656777
1361379359.5,0.200314875,32.41416666666667,86.92166666666668,-19.593046875000002,64.73555901080594
1361379359.75,0.20864354166666665,32.4175,86.95416668330668,-16.466223958333334,64.68687208110234
1361379360.0,0.21547733333333333,32.41916666666666,86.98666666666668,-10.924166666666666,64.59980898430457
1361379360.25,0.21990862499999997,32.420833333333334,87.02416664746667,-5.344583333333333,64.52691018305813
1361379360.5,0.22161708333333333,32.4225,87.06166666666667,-0.4499479166666666,64.43467640216736
1361379360.75,0.22252470833333335,32.42583333333334,87.09916668586668,3.1154687500000002,64.33684431923477
1361379361.0,0.22375266666666663,32.43083333333333,87.13666666666667,4.843515625,64.25680332119231
1361379361.25,0.224873875,32.435833333333335,87.17249998165335,4.244947916666667,64.20467602219415
1361379361.5,0.22647558333333337,32.44083333333333,87.20833333333334,2.30234375,64.23567556431587
1361379361.75,0.22748999999999997,32.44583333333333,87.24416668501334,1.464244791666667,64.25321611465726
1361379362.0,0.22946541666666664,32.45083333333333,87.28000000000002,2.344557291666667,64.23932405017418
1361379362.25,0.2318679166666667,32.45583333333334,87.31833331370667,3.0868749999999996,64.18463603318543
1361379362.5,0.23592545833333334,32.46083333333333,87.35666666666668,4.444609375,64.10825093008147
1361379362.75,0.2417447916666667,32.46625,87.39500001962668,5.012395833333334,64.05530016483605
1361379363.0,0.24756412500000002,32.47208333333334,87.43333333333334,3.840182291666667,64.01061055983716
1361379363.25,0.2538639583333333,32.477916666666665,87.46999998122666,2.490859375,63.946177229199385
1361379363.5,0.2611247916666667,32.48375,87.50666666666666,1.2683854166666668,63.883330805423036
1361379363.75,0.26806529166666665,32.48916666666667,87.54333335210667,-0.12890624999999978,63.851489330536445
1361379364.0,0.27441849999999995,32.494166666666665,87.58,-1.9101041666666665,63.80043737907562
1361379364.25,0.28077170833333337,32.49916666666667,87.61666664789334,-4.950625,63.69356449804237
1361379364.5,0.2866444166666667,32.50416666666667,87.65333333333334,-6.193697916666667,63.60225068638808
1361379364.75,0.29278408333333333,32.509166666666665,87.69000001877333,-7.5578385416666665,63.58607878650404
1361379365.0,0.29822970833333334,32.51416666666667,87.72666666666667,-8.283463541666666,63.663042281497695
1361379365.25,0.3027143333333333,32.51916666666667,87.76833331200001,-10.22296875,63.75801439754354
1361379365.5,0.3052235833333333,32.524166666666666,87.81,-11.410312499999998,63.893512128030075
1361379365.75,0.30634475,32.53208333333333,87.851666688,-11.359843750000001,64.03614492763957
1361379366.0,0.30773283333333334,32.54291666666666,87.89333333333333,-11.133958333333334,64.16250668777266
1361379366.25,0.3091209166666667,32.55375,87.93083331413334,-11.964531249999999,64.28088439062375
1361379366.5,0.3102420833333333,32.56458333333333,87.96833333333333,-13.567265625,64.40088440934731
1361379366.75,0.31184375000000003,32.57541666666667,88.00583335253333,-14.26703125,64.48399865744241
1361379367.0,0.31355220833333336,32.58625,88.04333333333334,-13.854635416666667,64.59539925564012
1361379367.25,0.31531408333333333,32.59708333333334,88.0766666496,-11.769244791666665,64.76992241143886
1361379367.5,0.3170759583333333,32.60791666666666,88.11,-10.337265624999999,64.88887061220225
1361379367.75,0.318570875,32.62,88.1433333504,-8.786588541666665,64.93196654261126
1361379368.0,0.31979883333333337,32.63333333333333,88.17666666666666,-8.543255208333333,64.90479312973275
1361379368.25,0.3211335416666667,32.64666666666667,88.2058333184,-6.74140625,64.86627635796933
1361379368.5,0.3224148333333333,32.660000000000004,88.235,-6.085729166666667,64.78755339025528
1361379368.75,0.32337583333333336,32.67,88.2641666816,-7.291119791666667,64.70658618309622
1361379369.0,0.3240699166666667,32.67666666666667,88.29333333333334,-7.599010416666666,64.64935779361267
1361379369.25,0.324764,32.68333333333333,88.32499998378667,-5.2681249999999995,64.64216784418068
1361379369.5,0.3254580833333333,32.690000000000005,88.35666666666667,-2.2199999999999998,64.64814065241495
1361379369.75,0.326045375,32.69708333333333,88.38833334954667,-1.7489843749999998,64.63230968501612
1361379370.0,0.326525875,32.70458333333334,88.42,-0.922734375,64.632804603132
1361379370.25,0.3269529583333333,32.71208333333333,88.45583331498668,1.032890625,64.6395796308711
1361379370.5,0.3273800416666667,32.71958333333333,88.49166666666667,0.8111458333333333,64.66550677111263
1361379370.75,0.32791391666666664,32.725,88.52750001834667,-0.6154947916666664,64.70288926639883
1361379371.0,0.3285545833333333,32.72833333333333,88.56333333333335,-2.8078645833333327,64.75092313166083
1361379371.25,0.3290885,32.73166666666666,88.59416665088001,-6.8859635416666665,64.80702265158848
1361379371.5,0.3295690416666667,32.73500000000001,88.625,-9.573020833333333,64.86702162471568
1361379371.75,0.33004954166666667,32.74,88.65583334912,-9.842265625,64.90181650800015
1361379372.0,0.3305300416666667,32.74666666666666,88.68666666666667,-10.934843749999999,64.91343026513921
1361379372.25,0.3309571666666667,32.75333333333334,88.71249998677334,-14.65203125,64.91181995055054
1361379372.5,0.3312775,32.76,88.73833333333334,-18.31731770833333,64.89946498194163
1361379372.75,0.33154445833333335,32.76499999999999,88.76416667989334,-19.29299479166667,64.94780589789305
1361379373.0,0.33175804166666667,32.76833333333333,88.79,-21.871614583333336,64.96792530847918
1361379373.25,0.33181145833333336,32.77166666666667,88.80583332522667,-26.108854166666664,64.97230086745888
1361379373.5,0.3316512916666667,32.775,88.82166666666667,-27.424270833333328,64.96480791466597
1361379373.75,0.33138433333333334,32.77916666666666,88.83750000810667,-27.674296875,64.98044352577925
1361379374.0,0.33101058333333333,32.78416666666667,88.85333333333334,-26.635729166666668,64.9731136734116
1361379374.25,0.3306368333333333,32.78916666666667,88.86499999402668,-23.555572916666666,64.96066837894541
1361379374.5,0.33020970833333335,32.79416666666667,88.87666666666667,-21.374166666666667,64.96319580857468
1361379374.75,0.32972920833333336,32.7975,88.88833333930666,-20.536510416666665,65.01304791433061
1361379375.0,0.32930208333333333,32.79916666666667,88.89999999999999,-17.789739583333333,65.0888684056389
1361379375.25,0.329035125,32.80083333333334,88.9124999936,-13.731927083333332,65.16371680188952
1361379375.5,0.3287681666666667,32.8025,88.92499999999998,-11.291718750000001,65.24408233212678
1361379375.75,0.328661375,32.80416666666667,88.93750000639999,-9.236822916666666,65.26727244847048
1361379376.0,0.328768125,32.80583333333333,88.94999999999999,-5.349322916666666,65.33998889439006
1361379376.25,0.3290350416666667,32.8075,88.96749999103999,-1.277005208333333,65.40465055272344
1361379376.5,0.32956891666666666,32.80916666666667,88.98499999999999,2.3952083333333336,65.51156068233549
1361379376.75,0.33026295833333336,32.810833333333335,89.00250000896,6.419557291666667,65.54756916140185
1361379377.0,0.3311705833333333,32.8125,89.02,10.273671875,65.70910314006015
1361379377.25,0.3325053333333333,32.814166666666665,89.03833332394666,13.057005208333331,65.97187902361718
1361379377.5,0.33432058333333337,32.81583333333334,89.05666666666666,14.781432291666668,66.09787478684369
1361379377.75,0.33640275,32.81791666666667,89.07500000938666,16.589192708333332,66.19821880347598
1361379378.0,0.33859170833333335,32.82041666666667,89.09333333333332,15.7809375,66.28027040731514
1361379378.25,0.34072729166666665,32.822916666666664,89.10916665856,14.020833333333334,66.33876836513365
1361379378.5,0.34291625,32.82541666666667,89.125,14.063385416666668,66.38410891656677
1361379378.75,0.3451052083333333,32.829166666666666,89.14083334144,13.637005208333333,66.4531504139304
1361379379.0,0.347187375,32.83416666666667,89.15666666666668,12.167343749999999,66.4497307349337
1361379379.25,0.3493229583333333,32.839166666666664,89.16999999317335,11.534687499999999,66.42491613936967
1361379379.5,0.3514585416666667,32.844166666666666,89.18333333333334,9.341067708333334,66.27353185217784
1361379379.75,0.3534873333333333,32.84916666666667,89.19666667349333,6.4238020833333325,66.17312548948105
1361379380.0,0.35535591666666666,32.854166666666664,89.21,4.017473958333333,65.96377054950936
1361379380.25,0.35690416666666663,32.85916666666666,89.21833332906667,1.8191145833333335,65.67073260319442
1361379380.5,0.35802533333333336,32.86416666666667,89.22666666666666,0.9257552083333335,65.50003750588388
1361379380.75,0.35887958333333336,32.86958333333333,89.23500000426667,0.11007812500000004,65.31387378347561
1361379381.0,0.3595736666666667,32.875416666666666,89.24333333333334,0.68453125,65.13513258670771
1361379381.25,0.3602677083333334,32.88125,89.24666666496,2.0524479166666665,64.97324309604332
1361379381.5,0.36106854166666674,32.88708333333333,89.25,2.60484375,64.8083040586935
1361379381.75,0.361869375,32.891666666666666,89.25333333504,3.712682291666667,64.65080059684574
1361379382.0,0.3627235833333333,32.895,89.25666666666666,4.2397656249999995,64.54497847958491
1361379382.25,0.36363116666666667,32.89833333333333,89.25416666794666,3.435755208333333,64.45559005915328
1361379382.5,0.36453879166666664,32.901666666666664,89.25166666666667,3.776380208333333,64.47499114802291
1361379382.75,0.36539304166666664,32.90416666666666,89.24916666538667,4.701484375,64.496893422799
1361379383.0,0.36624729166666675,32.905833333333334,89.24666666666667,5.29109375,64.5176231679321
1361379383.25,0.3671015,32.9075,89.24416666794667,5.602473958333333,64.46379507809651
1361379383.5,0.3679022916666667,32.909166666666664,89.24166666666667,5.691119791666668,64.4303067502142
1361379383.75,0.36870308333333335,32.91083333333333,89.23916666538668,5.101249999999999,64.43918024378449
1361379384.0,0.36945049999999996,32.912499999999994,89.23666666666668,3.484739583333333,64.46633278253849
1361379384.25,0.37014454166666666,32.91416666666667,89.23749999957334,2.2902864583333336,64.48425263804464
1361379384.5,0.37067841666666673,32.91583333333333,89.23833333333334,1.8954947916666667,64.50804430339838
1361379384.75,0.371052125,32.9175,89.23916666709334,1.3454166666666667,64.52490140914269
1361379385.0,0.37126570833333333,32.91916666666666,89.24000000000001,2.0020312500000004,64.52342095065192
1361379385.25,0.37137250000000005,32.920833333333334,89.24749999616,3.289192708333333,64.54940124119668
1361379385.5,0.37137250000000005,32.92249999999999,89.255,4.684895833333333,64.56223533933694
1361379385.75,0.37142587500000007,32.925000000000004,89.26250000384,5.669661458333334,64.5746588900728
1361379386.0,0.37142587499999996,32.928333333333335,89.27,6.273125,64.59040229429421
1361379386.25,0.371319125,32.931666666666665,89.2824999936,7.300104166666666,64.66330445691553
1361379386.5,0.37121237500000004,32.934999999999995,89.29499999999999,8.154192708333333,64.71450307538421
1361379386.75,0.371159,32.9375,89.30750000639999,9.380338541666665,64.7410058754411
1361379387.0,0.37121237500000004,32.93916666666667,89.32,11.269036458333334,64.75242497454398
1361379387.25,0.3713191250000001,32.94083333333334,89.37166664021332,12.382552083333335,64.77060959524118
1361379387.5,0.37142587499999996,32.9425,89.42333333333332,12.577578125,64.78863364799143
1361379387.75,0.3715860416666667,32.94416666666667,89.47500002645333,12.227447916666668,64.81169413273416
1361379388.0,0.37179958333333335,32.94583333333333,89.52666666666666,11.469557291666668,64.83386807970815
1361379388.25,0.37201312500000006,32.9475,89.57333330943999,10.853984374999998,64.84404049708226
1361379388.5,0.37233345833333337,32.94916666666667,89.61999999999999,9.755989583333333,64.84625244565062
1361379388.75,0.3726004166666667,32.95,89.66666669055999,8.945026041666667,64.84625244565062
1361379389.0,0.37286737500000006,32.95,89.71333333333332,8.407213541666668,64.84625244565062
1361379389.25,0.3731343333333333,32.95,89.67916668416,7.411666666666666,64.84593101856463
1361379389.5,0.37340129166666663,32.95,89.645,6.5046875,64.8356674539071
1361379389.75,0.37366825,32.951666666666675,89.61083331584,5.88265625,64.78935848858616
1361379390.0,0.37388183333333336,32.955000000000005,89.57666666666667,5.364947916666666,64.73657143252045
1361379390.25,0.3740420416666666,32.958333333333336,89.50083337216,5.181432291666666,64.6844323701245
1361379390.5,0.37420225,32.961666666666666,89.425,5.016953125,64.63176688723308
1361379390.75,0.37441579166666666,32.965,89.34916662783999,5.092578125,64.58481554083848
1361379391.0,0.37468270833333334,32.968333333333334,89.27333333333333,4.860885416666667,64.52671231680806
1361379391.25,0.37494962499999995,32.97166666666667,89.23333335381334,4.715286458333334,64.46674407415261
1361379391.5,0.375163125,32.975,89.19333333333333,4.881197916666667,64.43301895696868
1361379391.75,0.37543004166666666,32.97875,89.15333331285333,4.854557291666667,64.4025650100644
1361379392.0,0.37569695833333333,32.98291666666667,89.11333333333334,4.6404427083333335,64.39094032451398
1361379392.25,0.3760706666666667,32.98708333333334,89.18916662784001,4.305208333333334,64.38804805464868
1361379392.5,0.37655112500000004,32.99125,89.26500000000001,3.7107812499999997,64.39509792235492
1361379392.75,0.37745870833333334,32.99375,89.34083337216,3.2676822916666666,64.4381931907246
1361379393.0,0.37879341666666666,32.99458333333333,89.41666666666667,3.5871614583333336,64.47948122459964
1361379393.25,0.3803950833333334,32.99541666666667,89.53333327360001,3.089192708333334,64.52438554309612
1361379393.5,0.38226370833333334,32.99625,89.65,3.236510416666667,64.57142490236907
1361379393.75,0.3840255833333333,32.997083333333336,89.7666667264,3.5201302083333332,64.60848801310854
1361379394.0,0.38578745833333333,32.99791666666667,89.88333333333334,3.9340364583333343,64.65851245336589
1361379394.25,0.38754933333333336,32.99875,89.98499994794668,3.7378645833333337,64.71040218474037
1361379394.5,0.3893112083333334,32.999583333333334,90.08666666666667,3.4827864583333334,64.74051153386183
1361379394.75,0.3910196666666666,33.0,90.18833338538667,3.3116145833333337,64.76654557048126
1361379395.0,0.39272812499999993,33.0,90.29,3.211614583333333,64.77459368256656
1361379395.25,0.39427641666666663,33.0,90.37249995776,3.7639843749999997,64.77816877710639
1361379395.5,0.39566454166666665,33.0,90.45500000000001,4.262942708333333,64.78190451349155
1361379395.75,0.396412,33.0,90.53750004224001,4.053828125,64.78572056363579
1361379396.0,0.39662558333333325,33.0,90.62,3.1310416666666665,64.79774162526036
1361379396.25,0.39657220833333334,33.0,90.68083330218667,2.967109375,64.78645654001716
1361379396.5,0.396251875,33.0,90.74166666666667,2.165208333333333,64.76502791032395
1361379396.75,0.395878125,33.00125,90.80250003114666,1.5068229166666667,64.74786139266745
1361379397.0,0.395451,33.003750000000004,90.86333333333333,0.7537760416666667,64.72888542312887
1361379397.25,0.39507729166666666,33.00625,90.93833329493333,0.3381510416666667,64.70962808294148
1361379397.5,0.3947035833333333,33.00875,91.01333333333334,-0.02791666666666664,64.6861890976923
1361379397.75,0.39432987499999994,33.01125,91.08833337173334,-0.6810937499999999,64.66355425466553
1361379398.0,0.3939561666666667,33.01375,91.16333333333334,-1.2027083333333333,64.64007607481899
1361379398.25,0.39363583333333335,33.01625,91.25166662144001,-2.1029427083333334,64.61265992391881
1361379398.5,0.3934222916666667,33.018750000000004,91.34,-2.6684375,64.58508313117326
1361379398.75,0.3934222916666667,33.02125,91.42833337855998,-2.4201822916666664,64.55742602466866
1361379399.0,0.39358241666666666,33.02375,91.51666666666665,-2.0805989583333333,64.52984923192311
1361379399.25,0.39374254166666667,33.02625,91.61916661418665,-1.6380989583333332,64.52131430775415
1361379399.5,0.3939026666666667,33.02875,91.72166666666666,-1.0385416666666665,64.52131430775415
1361379399.75,0.39411620833333333,33.03,91.82416671914667,-0.7421875,64.52131430775415
1361379400.0,0.394383125,33.03,91.92666666666668,0.1111718750000001,64.52131430775415
1361379400.25,0.394596625,33.03,92.02749994837335,1.1382031250000002,64.52131430775415
1361379400.5,0.394810125,33.03,92.12833333333333,1.854765625,64.52131430775415
1361379400.75,0.39502362500000004,33.03,92.22916671829333,2.725963541666667,64.52131430775415
1361379401.0,0.39523712499999997,33.03,92.33,3.3501302083333333,64.52131430775415
1361379401.25,0.395450625,33.03,92.4299999488,4.2964062499999995,64.52131430775415
1361379401.5,0.39561074999999996,33.03,92.53,5.409895833333334,64.52131430775415
1361379401.75,0.3957175,33.03,92.6300000512,5.64375,64.52131430775415
1361379402.0,0.39577087499999997,33.03,92.73,5.466953125,64.52131430775415
1361379402.25,0.39582425,33.03,92.82999994880001,5.250677083333334,64.52131430775415
1361379402.5,0.395877625,33.03,92.93,5.260989583333333,64.52131430775415
1361379402.75,0.39598441666666667,33.030833333333334,93.03000005119999,5.252317708333334,64.52131430775415
1361379403.0,0.39598441666666667,33.0325,93.13,4.7535156249999995,64.52131430775415
1361379403.25,0.39598441666666667,33.03416666666667,93.2299999488,3.9848437499999996,64.52131430775415
1361379403.5,0.3959844166666666,33.03583333333333,93.33000000000001,3.2230989583333334,64.52131430775415
1361379403.75,0.39603783333333337,33.038333333333334,93.43000005120001,2.999322916666667,64.52131430775415
1361379404.0,0.39614466666666664,33.041666666666664,93.53000000000002,3.272239583333334,64.52131430775415
1361379404.25,0.3962515,33.045,93.63166661461335,2.909453125,64.52131430775415
1361379404.5,0.3963583333333333,33.04833333333333,93.73333333333335,2.12,64.52131430775415
1361379404.75,0.3964651666666666,33.05166666666667,93.83500005205333,1.933828125,64.52131430775415
1361379405.0,0.3965719999999999,33.055,93.93666666666667,2.369479166666667,64.52131430775415
1361379405.25,0.3967322083333333,33.05833333333333,94.03666661546667,2.7094010416666663,64.53725720504313
1361379405.5,0.3968924166666666,33.06166666666666,94.13666666666666,2.8285677083333334,64.56495446842727
1361379405.75,0.3969992083333333,33.065000000000005,94.23666671786665,3.008098958333333,64.59265173181142
1361379406.0,0.3972127916666666,33.068333333333335,94.33666666666666,3.0060937500000002,64.62034899519556
1361379406.25,0.39742637499999994,33.071666666666665,94.42999995221332,3.2577604166666667,64.6480462585797
1361379406.5,0.3976399583333334,33.075,94.52333333333333,4.340364583333334,64.67574352196384
1361379406.75,0.39780012500000006,33.07750000000001,94.61666671445333,4.7693489583333335,64.70344078534798
1361379407.0,0.39790687499999994,33.079166666666666,94.71,4.293619791666667,64.73113804873212
1361379407.25,0.398013625,33.08083333333334,94.79166662485333,4.119322916666667,64.75883531211626
1361379407.5,0.39817375,33.0825,94.87333333333333,4.88640625,64.7865325755004
1361379407.75,0.39838725,33.08416666666667,94.95500004181334,6.042916666666667,64.81422983888454
1361379408.0,0.39860075,33.08583333333333,95.03666666666668,6.260755208333332,64.84192710226868
1361379408.25,0.398760875,33.087500000000006,95.10749996373333,5.919348958333334,64.85368146836385
1361379408.5,0.39897441666666666,33.08916666666667,95.17833333333334,5.525546875000001,64.85368146836385
1361379408.75,0.39924137500000006,33.09,95.24916670293334,6.036432291666667,64.85368146836385
1361379409.0,0.39945495833333333,33.09,95.32,7.154296875,64.85368146836385
1361379409.25,0.39972191666666673,33.09,95.38833329834665,7.684192708333334,64.85368146836385
1361379409.5,0.40004225,33.09,95.45666666666665,6.968671874999999,64.85368146836385
1361379409.75,0.4003625833333333,33.09,95.52500003498666,6.4706770833333325,64.85368146836385
1361379410.0,0.4006829166666667,33.09,95.59333333333332,7.222838541666667,64.85368146836385
1361379410.25,0.40100325,33.09,95.65999996586666,8.217239583333333,64.85368146836385
1361379410.5,0.4012702083333333,33.09,95.72666666666666,8.075911458333332,64.85368146836385
1361379410.75,0.40148379166666665,33.09,95.79333336746667,6.934401041666667,64.85368146836385
1361379411.0,0.40169737499999997,33.09,95.86000000000001,6.602786458333334,64.85368146836385
1361379411.25,0.40191095833333335,33.09,95.91833330346667,7.325390625,64.85368146836385
1361379411.5,0.402071125,33.09,95.97666666666666,7.954713541666666,64.85368146836385
1361379411.75,0.402177875,33.09,96.03500002986667,7.239453125,64.85368146836385
1361379412.0,0.402284625,33.09,96.09333333333332,6.122317708333334,64.85368146836385
1361379412.25,0.402338,33.09,96.14416664064,5.932942708333333,64.85368146836385
1361379412.5,0.402338,33.09,96.195,6.5313541666666675,64.85368146836385
1361379412.75,0.402338,33.09,96.24583335935999,6.991328125,64.85368146836385
1361379413.0,0.40239137499999994,33.09,96.29666666666667,6.305234375,64.85368146836385
1361379413.25,0.402498125,33.09,96.33999997781333,5.391276041666667,64.85368146836385
1361379413.5,0.402604875,33.09,96.38333333333334,5.476875,64.85368146836385
1361379413.75,0.402711625,33.090833333333336,96.42666668885335,6.363098958333333,64.85368146836385
1361379414.0,0.402818375,33.0925,96.47000000000001,6.710286458333333,64.85368146836385
1361379414.25,0.40297854166666663,33.094166666666666,96.51166664533335,5.928020833333334,64.85368146836385
1361379414.5,0.40319212500000007,33.09583333333334,96.55333333333334,5.665937499999999,64.85368146836385
1361379414.75,0.40340570833333333,33.097500000000004,96.59500002133333,6.463619791666667,64.85368146836385
1361379415.0,0.4036192916666666,33.09916666666667,96.63666666666667,7.279218750000001,64.85368146836385
1361379415.25,0.40377945833333334,33.100833333333334,96.66749998421334,7.118567708333334,64.85368146836385
1361379415.5,0.403939625,33.1025,96.69833333333332,6.369114583333334,64.85368146836385
1361379415.75,0.4042065833333334,33.104166666666664,96.72916668245333,6.206744791666666,64.85368146836385
1361379416.0,0.4044201666666667,33.10583333333333,96.75999999999999,7.115312500000001,64.85368146836385
1361379416.25,0.404687125,33.107499999999995,96.77833332394665,8.05671875,64.85368146836385
1361379416.5,0.4049540833333333,33.10916666666667,96.79666666666665,7.9067187500000005,64.85368146836385
1361379416.75,0.40522104166666667,33.11,96.81500000938667,6.9218489583333325,64.84329499459479
1361379417.0,0.40554137500000004,33.11,96.83333333333333,6.650651041666667,64.82079096809518
1361379417.25,0.4057549166666667,33.11,96.84083332949334,7.729088541666667,64.79309370471104
1361379417.5,0.40591504166666664,33.11,96.84833333333333,8.307421875000001,64.7653964413269
1361379417.75,0.40607516666666665,33.11,96.85583333717332,7.690677083333334,64.73769917794276
1361379418.0,0.40623529166666666,33.11,96.86333333333333,6.885625,64.71000191455862
1361379418.25,0.40650220833333334,33.11,96.86333333333333,7.271796875,64.68230465117448
1361379418.5,0.40671575,33.11,96.86333333333334,8.516328125,64.65460738779034
1361379418.75,0.4068224999999999,33.11,96.86333333333334,9.133645833333334,64.6269101244062
1361379419.0,0.40698262499999993,33.11,96.86333333333334,8.6515625,64.59921286102205
1361379419.25,0.40703599999999995,33.11,96.86000000170668,7.6472395833333335,64.57151559763791
1361379419.5,0.4071427916666667,33.11,96.85666666666668,7.780234374999999,64.54381833425377
1361379419.75,0.40724958333333333,33.11,96.85333333162667,8.932395833333334,64.55231310154319
1361379420.0,0.40730299999999997,33.11,96.85000000000001,9.620885416666667,64.5748171280428
1361379420.25,0.40740979166666663,33.11,96.84000000512,9.207812500000001,64.60251439142694
1361379420.5,0.40746316666666665,33.11,96.83000000000001,8.4628125,64.63021165481108
1361379420.75,0.40756995833333337,33.11,96.81999999488,8.961067708333333,64.65790891819522
1361379421.0,0.40767675000000003,33.11,96.81,9.886223958333334,64.68560618157936
1361379421.25,0.40773016666666667,33.11,96.79500000768,9.925729166666667,64.7133034449635
1361379421.5,0.407890375,33.11,96.78,8.993515624999999,64.73753973357104
1361379421.75,0.4080505833333334,33.11,96.76499999232,8.028671874999999,64.74647800125493
1361379422.0,0.40815741666666666,33.11,96.75,8.188567708333332,64.74647800125493
1361379422.25,0.40826425000000005,33.11,96.72833334442667,9.057421875000001,64.74647800125493
1361379422.5,0.40831766666666663,33.11,96.70666666666668,8.814505208333333,64.74647800125493
1361379422.75,0.4083710833333334,33.11083333333333,96.68499998890667,7.708046875,64.72067244435043
1361379423.0,0.4084245,33.112500000000004,96.66333333333334,6.943541666666666,64.69297518096627
1361379423.25,0.4084779166666667,33.11416666666667,96.58583337301334,7.204739583333333,64.66527791758215
1361379423.5,0.40863812499999996,33.115833333333335,96.50833333333334,7.960286458333335,64.63758065419799
1361379423.75,0.4087449166666666,33.1175,96.43083329365334,7.685625000000001,64.60988339081386
1361379424.0,0.40890508333333336,33.119166666666665,96.35333333333334,6.828541666666667,64.58218612742971
1361379424.25,0.40906525000000005,33.12083333333334,96.22083340117334,6.288125,64.55448886404558
1361379424.5,0.40922537499999995,33.1225,96.08833333333334,7.017135416666668,64.53025257543804
1361379424.75,0.40943887500000004,33.12416666666667,95.95583326549333,8.440286458333334,64.5243392325766
1361379425.0,0.40965237500000007,33.12583333333333,95.82333333333332,8.629427083333333,64.53325169611678
1361379425.25,0.4099192916666667,33.127500000000005,95.63416676351999,8.060677083333333,64.54228504782277
1361379425.5,0.41013279166666666,33.12916666666667,95.445,8.685807291666668,64.55481788296842
1361379425.75,0.4103997083333333,33.13,95.25583323648,10.190651041666667,64.57551617947325
1361379426.0,0.410666625,33.13,95.06666666666666,10.608984375,64.58454953117925
1361379426.25,0.4109335416666667,33.13,94.88166676138665,9.200911458333334,64.59358288288524
1361379426.5,0.41125387500000005,33.13,94.69666666666666,7.377838541666666,64.60261623459125
1361379426.75,0.41157420833333336,33.13,94.51166657194666,7.930338541666667,64.61160929024196
1361379427.0,0.41184116666666665,33.13,94.32666666666665,9.484895833333333,64.62056204983743
1361379427.25,0.412108125,33.13,94.14500009301332,9.605260416666667,64.62911184888016
1361379427.5,0.4123217083333333,33.13,93.96333333333334,8.039218750000002,64.63633108111343
1361379427.75,0.4125352916666667,33.130833333333335,93.78166657365334,5.778932291666667,64.63063677772843
1361379428.0,0.41274887499999996,33.1325,93.60000000000001,4.650729166666667,64.61267576027137
1361379428.25,0.4128556666666667,33.134166666666665,93.41916675925334,4.6121875,64.5945938546485
1361379428.5,0.413015875,33.13583333333334,93.23833333333334,3.4737239583333337,64.57301246558598
1361379428.75,0.4131226666666667,33.13666666666666,93.05749990741333,1.4620572916666668,64.54326561516426
1361379429.0,0.4132828333333334,33.13666666666666,92.87666666666667,0.4996354166666668,64.5251837095414
1361379429.25,0.413389625,33.13666666666666,92.6933334272,1.3611458333333335,64.50710180391853
1361379429.5,0.413389625,33.13666666666666,92.50999999999999,2.739166666666667,64.48901989829565
1361379429.75,0.413443,33.1375,92.3266665728,1.7584114583333335,64.47097828872806
1361379430.0,0.413496375,33.13916666666667,92.14333333333333,-0.16255208333333326,64.44446078748831
1361379430.25,0.41354975000000005,33.14083333333333,91.95583342933332,-0.6166406249999999,64.39315981405686
1361379430.5,0.41360312500000007,33.142500000000005,91.76833333333333,0.04252604166666674,64.34314872477917
1361379430.75,0.413603125,33.14333333333333,91.58083323733334,1.0795572916666667,64.3030262462973
1361379431.0,0.413603125,33.14333333333334,91.39333333333333,1.6051562500000003,64.26928294316974
1361379431.25,0.41370987500000006,33.14333333333334,91.21000009386667,1.6246354166666668,64.23553964004219
1361379431.5,0.41387,33.14333333333333,91.02666666666667,2.279375,64.20179633691464
1361379431.75,0.414030125,33.14416666666667,90.84333323946667,3.31,64.16805303378709
1361379432.0,0.414136875,33.145833333333336,90.66000000000001,4.063229166666667,64.13430973065954
1361379432.25,0.4142970000000001,33.1475,90.47833342634668,4.179088541666666,64.10056642753199
1361379432.5,0.41445712500000004,33.149166666666666,90.29666666666668,4.273854166666667,64.06682312440444
1361379432.75,0.41461729166666667,33.150416666666665,90.11499990698667,4.81171875,64.03307982127689
1361379433.0,0.414830875,33.15125,89.93333333333334,5.689114583333333,64.00838158040095
1361379433.25,0.4150444583333333,33.15208333333333,89.75666675712,6.3023437499999995,64.00899182023655
1361379433.5,0.41531141666666666,33.15291666666666,89.58000000000001,6.732916666666667,64.00964274272788
1361379433.75,0.415578375,33.15333333333333,89.40333324288001,7.362578125,64.01013093459636
1361379434.0,0.41589870833333337,33.15333333333333,89.22666666666667,8.022213541666666,64.01065980912057
1361379434.25,0.41616566666666666,33.15333333333333,89.05500008789333,8.294140625,64.01131073161189
1361379434.5,0.41637925000000003,33.15333333333333,88.88333333333334,7.782473958333333,64.0318808834872
1361379434.75,0.4166462083333333,33.153749999999995,88.71166657877335,7.848619791666667,64.06469118882706
1361379435.0,0.4169131666666667,33.15458333333333,88.54,8.116744791666667,64.0984344919546
1361379435.25,0.4172335,33.15541666666667,88.37000008704001,8.091223958333334,64.13306665264088
1361379435.5,0.4175538333333333,33.15624999999999,88.20000000000002,7.3199739583333345,64.17347638745879
1361379435.75,0.41782074999999996,33.156666666666666,88.02999991296001,6.505,64.21433055105608
1361379436.0,0.41808766666666664,33.15666666666666,87.86000000000001,6.420104166666667,64.25465584012916
1361379436.25,0.41840799999999995,33.156666666666666,87.69083341994667,6.800390625000001,64.29485908123512
1361379436.5,0.41867495833333335,33.15666666666666,87.52166666666668,6.773307291666666,64.33506232234107
1361379436.75,0.41894191666666664,33.15708333333333,87.35249991338668,5.858723958333333,64.37542829406986
1361379437.0,0.4191555,33.15791666666666,87.18333333333334,4.651979166666666,64.41575358314294
1361379437.25,0.4194224583333333,33.15875,87.01333342037333,4.535963541666667,64.4559568242489
1361379437.5,0.4197961666666667,33.15958333333333,86.84333333333333,5.520651041666667,64.47624083597087
1361379437.75,0.4201165,33.16,86.67333324629334,5.771015625,64.4842846942283
1361379438.0,0.4204368333333333,33.16,86.50333333333333,5.425286458333335,64.49139555469803
1361379438.25,0.42070379166666666,33.16,86.33416675328,5.046744791666667,64.49761755760903
1361379438.5,0.421024125,33.16,86.16499999999999,5.792291666666667,64.4980619863884
1361379438.75,0.4213444583333334,33.16,85.99583324672,6.854739583333333,64.4980619863884
1361379439.0,0.42155800000000004,33.16,85.82666666666667,7.107083333333333,64.4980619863884
1361379439.25,0.4216647500000001,33.16,85.65750008661333,6.6644531250000005,64.4980619863884
1361379439.5,0.42177149999999997,33.16,85.48833333333333,6.42203125,64.4980619863884
1361379439.75,0.42193162500000003,33.16,85.31916658005332,7.101223958333333,64.4980619863884
1361379440.0,0.42209175000000004,33.16,85.14999999999999,8.308984375,64.4980619863884
1361379440.25,0.42214512500000007,33.16,84.97666675541332,8.799140625000001,64.4980619863884
1361379440.5,0.422038375,33.16,84.80333333333333,8.527369791666667,64.4980619863884
1361379440.75,0.42193162500000003,33.16,84.62999991125334,8.044088541666666,64.4980619863884
1361379441.0,0.42193162500000003,33.16,84.45666666666666,8.277291666666667,64.4980619863884
1361379441.25,0.42187825,33.16,84.30500007765333,9.23953125,64.4980619863884
1361379441.5,0.42177149999999997,33.16,84.15333333333334,9.728567708333333,64.4980619863884
1361379441.75,0.421718125,33.16208333333333,84.00166658901334,9.613333333333333,64.4980619863884
1361379442.0,0.42177149999999997,33.16625,83.85000000000001,9.125651041666666,64.4980619863884
1361379442.25,0.42193166666666665,33.17041666666666,83.75500004864,9.020520833333334,64.4980619863884
1361379442.5,0.4220384166666667,33.17458333333334,83.66,9.66546875,64.4980619863884
1361379442.75,0.42209179166666666,33.17875,83.56499995136001,9.975390625000001,64.4980619863884
1361379443.0,0.4221451666666667,33.182916666666664,83.47,9.56671875,64.4980619863884
1361379443.25,0.42225191666666667,33.187083333333334,83.43916668245333,8.683281249999999,64.4980619863884
1361379443.5,0.4224654583333333,33.191250000000004,83.40833333333333,8.229192708333333,64.4980619863884
1361379443.75,0.42273241666666667,33.19541666666667,83.37749998421333,8.778515625,64.4980619863884
1361379444.0,0.42289262499999997,33.19958333333334,83.34666666666666,9.053125,64.4980619863884
1361379444.25,0.4231062083333334,33.20375,83.35416666282667,8.414505208333333,64.4980619863884
1361379444.5,0.4233197916666667,33.20791666666667,83.36166666666666,7.284713541666666,64.4980619863884
1361379444.75,0.42348,33.20875,83.36916667050666,6.594088541666667,64.4980619863884
1361379445.0,0.4235868333333334,33.206250000000004,83.37666666666667,7.046614583333334,64.4980619863884
1361379445.25,0.42364025,33.20375,83.38416666282667,7.716744791666667,64.4980619863884
1361379445.5,0.4237470833333334,33.20125,83.39166666666667,7.500885416666667,64.4980619863884
1361379445.75,0.42385391666666666,33.19875,83.39916667050666,6.702630208333333,64.49231726912082
1361379446.0,0.424014125,33.19625,83.40666666666667,6.879583333333333,64.45211402801486
1361379446.25,0.4242277083333334,33.19375,83.40999999829333,7.911901041666667,64.4119107869089
1361379446.5,0.4243878750000001,33.191250000000004,83.41333333333333,8.500442708333333,64.37170754580295
1361379446.75,0.42449462500000007,33.188750000000006,83.41666666837334,7.972369791666666,64.33150430469699
1361379447.0,0.42465475,33.18625,83.42,7.383151041666667,64.29130106359104
1361379447.25,0.4249216666666667,33.183749999999996,83.42083333290667,7.8284635416666655,64.25109782248506
1361379447.5,0.42524199999999995,33.18125,83.42166666666667,8.810546875,64.21089458137911
1361379447.75,0.42561570833333334,33.18,83.42250000042667,9.445390625,64.20084377110261
1361379448.0,0.4259894166666667,33.18,83.42333333333333,8.8903125,64.20084377110261
1361379448.25,0.426363125,33.18,83.42749999786666,7.948203125,64.20084377110261
1361379448.5,0.4267902083333333,33.18,83.43166666666667,7.801848958333333,64.20084377110261
1361379448.75,0.4272172916666667,33.18,83.43583333546667,8.227708333333334,64.20658848837019
1361379449.0,0.427591,33.18,83.44,7.9738541666666665,64.24679172947614
1361379449.25,0.4279113333333333,33.18,83.44916666197334,7.312447916666667,64.28699497058211
1361379449.5,0.4281782916666666,33.18,83.45833333333334,6.6964322916666665,64.32719821168807
1361379449.75,0.42849862499999997,33.18125,83.46750000469333,6.670234375,64.36740145279403
1361379450.0,0.4287122083333333,33.18375,83.47666666666667,6.930494791666667,64.40760469389998
1361379450.25,0.428819,33.18625,83.48916666026668,6.5180468750000005,64.44780793500594
1361379450.5,0.42887237500000003,33.18875,83.50166666666667,5.54046875,64.4880111761119
1361379450.75,0.42887237500000003,33.191250000000004,83.51416667306665,4.9601822916666665,64.4980619863884
1361379451.0,0.42892574999999994,33.19375,83.52666666666666,5.681692708333333,64.4980619863884
1361379451.25,0.42897912499999996,33.19625,83.5433333248,6.272369791666666,64.4980619863884
1361379451.5,0.42897912499999996,33.19875,83.56,5.727578125,64.4980619863884
1361379451.75,0.42897912499999996,33.201249999999995,83.5766666752,5.519921874999999,64.4980619863884
1361379452.0,0.42897912499999996,33.20375000000001,83.59333333333335,5.910755208333334,64.4980619863884
1361379452.25,0.4290325,33.206250000000004,83.60999999146668,6.001145833333333,64.4980619863884
1361379452.5,0.42913924999999997,33.20875,83.62666666666667,6.1398697916666665,64.4980619863884
1361379452.75,0.429192625,33.21,83.64333334186666,6.0788802083333335,64.4980619863884
1361379453.0,0.42935275000000006,33.21,83.66,5.4265364583333335,64.4980619863884
1361379453.25,0.42951287499999996,33.21,83.68083332266667,4.994453125000001,64.4980619863884
1361379453.5,0.42967299999999997,33.21,83.70166666666667,5.464635416666667,64.4980619863884
1361379453.75,0.42983312500000004,33.21,83.72250001066666,5.574453125000001,64.4980619863884
1361379454.0,0.429939875,33.21,83.74333333333334,4.410442708333333,64.4980619863884
1361379454.25,0.43004662499999996,33.21,83.76249999018667,3.7442447916666666,64.4980619863884
1361379454.5,0.430153375,33.21,83.78166666666667,4.014895833333333,64.4980619863884
1361379454.75,0.430260125,33.21,83.80083334314666,3.495130208333333,64.4980619863884
1361379455.0,0.43036687500000004,33.21,83.82,2.3901302083333333,64.4980619863884
1361379455.25,0.43042025,33.21,83.83833332394666,1.66484375,64.4980619863884
1361379455.5,0.430473625,33.21,83.85666666666665,1.5487760416666667,64.4980619863884
1361379455.75,0.430527,33.21083333333333,83.87500000938667,1.5464322916666664,64.4980619863884
1361379456.0,0.43058041666666663,33.2125,83.89333333333333,1.8960156250000002,64.4980619863884
1361379456.25,0.43068725,33.214166666666664,83.90333332821334,2.17609375,64.4980619863884
1361379456.5,0.4307940833333333,33.21583333333333,83.91333333333333,2.1709375000000004,64.4980619863884
1361379456.75,0.43095429166666666,33.2175,83.92333333845333,2.40203125,64.4980619863884
1361379457.0,0.43116787500000003,33.219166666666666,83.93333333333334,3.043932291666667,64.4980619863884
1361379457.25,0.4314348333333333,33.22083333333333,83.92333333845333,3.361953125,64.4980619863884
1361379457.5,0.4317017916666666,33.2225,83.91333333333333,3.7090104166666666,64.4980619863884
1361379457.75,0.431915375,33.22416666666666,83.90333332821334,4.616015625,64.4980619863884
1361379458.0,0.4321823333333333,33.225833333333334,83.89333333333333,5.441953125,64.4980619863884
1361379458.25,0.4324492916666667,33.2275,83.86583334741333,5.839973958333332,64.4980619863884
1361379458.5,0.4327162500000001,33.229166666666664,83.83833333333334,5.939348958333333,64.4980619863884
1361379458.75,0.43309,33.23083333333333,83.81083331925335,6.444401041666666,64.4980619863884
1361379459.0,0.4333035416666667,33.232499999999995,83.78333333333335,6.786822916666668,64.4980619863884
1361379459.25,0.43351708333333333,33.23416666666666,83.74416668672,6.698333333333334,64.4980619863884
1361379459.5,0.433784,33.23583333333333,83.70500000000001,6.4554687500000005,64.4980619863884
1361379459.75,0.43399754166666665,33.2375,83.66583331328002,6.428359375,64.4980619863884
1361379460.0,0.4341577083333333,33.23916666666666,83.62666666666668,6.500703125,64.4980619863884
1361379460.25,0.4342110833333333,33.240833333333335,83.58416668842668,6.3898697916666665,64.4980619863884
1361379460.5,0.434317875,33.2425,83.54166666666667,5.952734375000001,64.4980619863884
1361379460.75,0.43453145833333334,33.244166666666665,83.49916664490667,5.304322916666667,64.4980619863884
1361379461.0,0.4346916666666667,33.24583333333333,83.45666666666666,4.945677083333334,64.4980619863884
1361379461.25,0.43485187499999994,33.247499999999995,83.41583335424,5.367005208333333,64.4980619863884
1361379461.5,0.43501208333333335,33.24916666666667,83.375,5.369244791666667,64.4980619863884
1361379461.75,0.43511887499999996,33.25,83.33416664576,4.5534375,64.4980619863884
1361379462.0,0.4354392083333333,33.25,83.29333333333334,4.400598958333333,64.4980619863884
1361379462.25,0.435706125,33.25,83.25500001962666,5.073958333333334,64.4980619863884
1361379462.5,0.4359730416666667,33.25,83.21666666666667,5.575364583333333,64.4980619863884
1361379462.75,0.43623995833333334,33.25,83.17833331370667,5.320026041666667,64.4980619863884
1361379463.0,0.43650687500000007,33.25,83.14,5.068958333333334,64.4980619863884
1361379463.25,0.43682720833333333,33.25,83.10666668373334,5.5346875,64.4980619863884
1361379463.5,0.43709412500000006,33.25,83.07333333333332,6.074479166666666,64.4980619863884
1361379463.75,0.43730762500000003,33.25,83.03999998293332,6.574140624999999,64.4980619863884
1361379464.0,0.43752112499999996,33.25,83.00666666666666,6.954401041666666,64.4980619863884
1361379464.25,0.43773462500000004,33.25,82.97083335168,6.566171874999999,64.4980619863884
1361379464.5,0.43794812499999997,33.25,82.935,6.592526041666667,64.4980619863884
1361379464.75,0.43810825000000003,33.25,82.89916664831999,7.315963541666668,64.4980619863884
1361379465.0,0.43816162500000005,33.25,82.86333333333333,7.288177083333333,64.4980619863884
1361379465.25,0.438215,33.25,82.82250002090666,6.555833333333335,64.4980619863884
1361379465.5,0.438215,33.25,82.78166666666667,5.777552083333333,64.4980619863884
1361379465.75,0.4383217916666667,33.25,82.74083331242667,5.782239583333333,64.4980619863884
1361379466.0,0.438482,33.25,82.7,6.0121093750000005,64.4980619863884
1361379466.25,0.4386955833333333,33.25,82.66083335338666,5.668098958333334,64.4980619863884
1361379466.5,0.43890916666666663,33.25,82.62166666666667,5.020833333333333,64.4980619863884
1361379466.75,0.43912275000000006,33.25,82.58249997994668,4.2863541666666665,64.4980619863884
1361379467.0,0.4393897083333333,33.25,82.54333333333334,3.9999739583333334,64.4980619863884
1361379467.25,0.43965666666666664,33.25,82.49500002474667,4.229427083333333,64.4980619863884
1361379467.5,0.43987024999999996,33.25,82.44666666666667,4.203828125,64.4980619863884
1361379467.75,0.4400838333333333,33.25083333333333,82.39833330858667,3.6200260416666663,64.4980619863884
1361379468.0,0.4402974166666667,33.252500000000005,82.35000000000001,3.120338541666667,64.4980619863884
1361379468.25,0.44051100000000004,33.25416666666667,82.29750002688,3.3155208333333337,64.4980619863884
1361379468.5,0.4408313750000001,33.255833333333335,82.245,3.9953645833333336,64.4980619863884
1361379468.75,0.44104495833333335,33.2575,82.19249997312001,4.250729166666667,64.4980619863884
1361379469.0,0.44131191666666664,33.259166666666665,82.14,4.020807291666666,64.4980619863884
1361379469.25,0.44141870833333335,33.26083333333334,82.08416669525333,3.796041666666666,64.4980619863884
1361379469.5,0.4416322916666666,33.2625,82.02833333333334,4.265859375,64.4980619863884
1361379469.75,0.441845875,33.26416666666667,81.97249997141334,5.192942708333333,64.4980619863884
1361379470.0,0.4420060833333334,33.26583333333334,81.91666666666667,5.389114583333334,64.4980619863884
1361379470.25,0.44216629166666666,33.267500000000005,81.87333335552,4.990729166666667,64.4980619863884
1361379470.5,0.44237987500000003,33.26916666666667,81.83,4.80015625,64.4980619863884
1361379470.75,0.44259345833333336,33.27,81.78666664448,5.498567708333334,64.4980619863884
1361379471.0,0.4428604166666666,33.27,81.74333333333333,6.422317708333334,64.4980619863884
1361379471.25,0.443127375,33.27,81.71833334613332,6.54609375,64.4980619863884
1361379471.5,0.44339429166666666,33.27,81.69333333333333,6.094791666666667,64.4980619863884
1361379471.75,0.44366120833333333,33.27,81.66833332053334,6.184244791666667,64.4980619863884
1361379472.0,0.4437679583333334,33.27,81.64333333333333,6.8730729166666675,64.4980619863884
1361379472.25,0.44398150000000003,33.27,81.56333337429334,7.5030729166666665,64.49624013104199
1361379472.5,0.44408825,33.27,81.48333333333332,7.219036458333332,64.48166528827075
1361379472.75,0.444248375,33.27,81.40333329237332,6.61625,64.45251560272825
1361379473.0,0.4444085,33.27,81.32333333333332,6.819427083333333,64.42336591718576
1361379473.25,0.44456862500000005,33.27,81.19000006826666,7.890833333333334,64.39413503459556
1361379473.5,0.44472875000000006,33.27,81.05666666666667,8.659427083333332,64.36457936381451
1361379473.75,0.4448355,33.270833333333336,80.92333326506667,8.200833333333334,64.3349018974619
1361379474.0,0.444888875,33.2725,80.79,7.724192708333334,64.305589817824
1361379474.25,0.44494225,33.274166666666666,80.59416676693334,8.433880208333333,64.27595294999524
1361379474.5,0.44488887499999996,33.27583333333333,80.39833333333334,9.554583333333335,64.24619428659493
1361379474.75,0.4448355,33.2775,80.20249989973333,9.794505208333334,64.21704460105244
1361379475.0,0.4449956666666666,33.27916666666667,80.00666666666666,9.075755208333334,64.18789491550994
1361379475.25,0.445316,33.280833333333334,79.81916676266667,9.169557291666667,64.16056708531386
1361379475.5,0.4455295416666667,33.282500000000006,79.63166666666666,10.221536458333334,64.14599224254262
1361379475.75,0.44558291666666666,33.284166666666664,79.44416657066667,11.158307291666667,64.1459922425426
1361379476.0,0.44574308333333335,33.285833333333336,79.25666666666667,11.112994791666667,64.1459922425426
1361379476.25,0.44590325,33.2875,79.07583342592,10.171510416666667,64.14607343959032
1361379476.5,0.44617020833333326,33.28916666666667,78.895,10.171171875,64.14647942482887
1361379476.75,0.44649054166666663,33.29,78.71416657408,11.245651041666667,64.14700720563899
1361379477.0,0.446810875,33.29,78.53333333333332,11.992239583333332,64.1471695997344
1361379477.25,0.44713120833333336,33.29,78.36000008874665,11.434921874999999,64.14765678202066
1361379477.5,0.4474515416666667,33.29,78.18666666666665,10.921432291666667,64.1482657598785
1361379477.75,0.44777187499999993,33.29,78.01333324458666,11.177369791666669,64.1482657598785
1361379478.0,0.4479320416666666,33.29,77.83999999999999,12.030494791666667,64.1482657598785
1361379478.25,0.4479320416666667,33.29,77.67166675285333,12.305520833333333,64.14794097168766
1361379478.5,0.44803883333333333,33.29,77.50333333333333,11.949895833333331,64.14741319087754
1361379478.75,0.44825241666666665,33.29,77.33499991381333,11.265598958333333,64.1468042130197
1361379479.0,0.44835920833333326,33.29,77.16666666666667,11.796015625,64.14615463663803
1361379479.25,0.448466,33.29,77.00166675114667,12.88890625,64.14550506025634
1361379479.5,0.448466,33.29,76.83666666666667,12.714479166666665,64.14485548387466
1361379479.75,0.4485193749999999,33.29,76.67166658218667,11.985026041666666,64.14420590749297
1361379480.0,0.44862612499999993,33.29,76.50666666666667,12.052552083333333,64.14359692963515
1361379480.25,0.448732875,33.29,76.34500008277334,12.772317708333334,64.14339393701587
1361379480.5,0.448893,33.29,76.18333333333334,12.962942708333332,64.14306914882503
1361379480.75,0.44899975000000003,33.29,76.02166658389334,12.408333333333331,64.14241957244336
1361379481.0,0.44915987500000004,33.29,75.86,12.230104166666669,64.14176999606167
1361379481.25,0.44937337499999996,33.29,75.70416674645334,12.143854166666669,64.14144520787083
1361379481.5,0.44964029166666664,33.29,75.54833333333333,12.396458333333335,64.14132341229926
1361379481.75,0.44996062499999995,33.29083333333333,75.39249992021333,13.3584375,64.14128281377542
1361379482.0,0.45033433333333334,33.2925,75.23666666666666,13.393671875,64.14148580639468
1361379482.25,0.4507614166666667,33.29416666666667,75.08833340928,13.299921875,64.14160760196624
1361379482.5,0.45124187499999996,33.295833333333334,74.94,14.091067708333334,64.14160760196624
1361379482.75,0.45166895833333337,33.2975,74.79166659072,14.81578125,64.14160760196624
1361379483.0,0.45209604166666667,33.29916666666667,74.64333333333333,14.276848958333334,64.1415670034424
1361379483.25,0.45252312499999997,33.30083333333334,74.54666671615999,13.153072916666666,64.14144520787083
1361379483.5,0.45289683333333336,33.3025,74.44999999999999,13.226901041666666,64.14160760196624
1361379483.75,0.45332391666666666,33.30416666666667,74.35333328384,14.304921875,64.14225717834793
1361379484.0,0.453697625,33.30583333333333,74.25666666666666,14.861302083333333,64.14290675472961
1361379484.25,0.454071375,33.307500000000005,74.2108333568,14.311145833333333,64.1435563311113
1361379484.5,0.45444512500000006,33.30916666666667,74.16499999999999,13.410130208333333,64.14420590749297
1361379484.75,0.45476545833333337,33.31,74.11916664319999,12.25130208333333,64.14485548387465
1361379485.0,0.45503241666666666,33.31,74.07333333333332,11.284609374999997,64.14530206763708
1361379485.25,0.455246,33.31,74.07583333205332,10.312005208333334,64.14582984844719
1361379485.5,0.4554062083333334,33.31,74.07833333333332,8.961718750000001,64.14647942482887
1361379485.75,0.45556641666666664,33.31,74.08083333461333,7.76984375,64.14712900121056
1361379486.0,0.45567325,33.31,74.08333333333333,7.287526041666666,64.14777857759223
1361379486.25,0.45578008333333336,33.31,74.08749999786667,7.613671874999999,64.14810336578307
1361379486.5,0.4558335,33.31,74.09166666666667,7.319010416666667,64.1478191761161
1361379486.75,0.45599370833333336,33.31,74.09583333546666,5.781119791666666,64.14721019825826
1361379487.0,0.45615391666666666,33.31,74.10000000000001,4.400182291666666,64.14656062187659
1361379487.25,0.4562607083333334,33.31,74.10416666453334,4.8840625,64.14652002335272
1361379487.5,0.4563140833333333,33.31,74.10833333333333,5.064322916666666,64.14652002335272
1361379487.75,0.4563140833333333,33.31,74.11250000213333,4.685546875,64.14652002335272
1361379488.0,0.4563674583333333,33.31,74.11666666666666,5.206666666666666,64.14652002335272
1361379488.25,0.4563674583333333,33.31,74.11916666538666,6.086197916666666,64.14652002335272
1361379488.5,0.4563674583333333,33.31,74.12166666666667,6.424401041666666,64.14652002335272
1361379488.75,0.45642083333333333,33.30916666666666,74.12416666794667,6.917630208333333,64.14652002335272
1361379489.0,0.45647420833333335,33.3075,74.12666666666667,8.24484375,64.14652002335272
1361379489.25,0.45658095833333334,33.30583333333333,74.13166666410666,9.114921875,64.14652002335272
1361379489.5,0.45674112499999997,33.30416666666667,74.13666666666666,9.147526041666667,64.14696660711513
1361379489.75,0.4567945,33.303333333333335,74.14166666922667,9.621588541666666,64.14757558497296
1361379490.0,0.456847875,33.303333333333335,74.14666666666666,10.213385416666666,64.14822516135465
1361379490.25,0.45700804166666664,33.303333333333335,74.15666666154667,9.931979166666666,64.1482657598785
1361379490.5,0.45727499999999993,33.303333333333335,74.16666666666666,10.366276041666666,64.1482657598785
1361379490.75,0.45759533333333335,33.303333333333335,74.17666667178666,11.307786458333332,64.1482657598785
1361379491.0,0.45791566666666667,33.303333333333335,74.18666666666667,10.723723958333332,64.1482657598785
1361379491.25,0.45828937499999994,33.303333333333335,74.20249999189333,9.849973958333333,64.1482657598785
1361379491.5,0.45866308333333333,33.303333333333335,74.21833333333333,10.071901041666667,64.1482657598785
1361379491.75,0.45903679166666667,33.30416666666667,74.23416667477333,9.742239583333333,64.1482657598785
1361379492.0,0.4594105,33.30583333333333,74.25,8.515963541666666,64.1482657598785
1361379492.25,0.45973083333333326,33.3075,74.26833332394666,7.0934375,64.1482657598785
1361379492.5,0.4600511666666667,33.30916666666667,74.28666666666666,6.4921614583333325,64.1482657598785
1361379492.75,0.460424875,33.31,74.30500000938667,6.725520833333333,64.1478191761161
1361379493.0,0.460905375,33.31,74.32333333333334,6.880546875,64.14716959973441
1361379493.25,0.4613325,33.31,74.3566666496,6.544479166666666,64.14652002335272
1361379493.5,0.46170620833333326,33.31,74.39,5.61796875,64.14587044697105
1361379493.75,0.46207991666666665,33.31,74.4233333504,5.027604166666667,64.14522087058936
1361379494.0,0.462453625,33.31,74.45666666666666,5.557369791666667,64.14457129420768
1361379494.25,0.4628273333333333,33.31,74.50083331072,6.057942708333333,64.14392171782599
1361379494.5,0.4632010416666667,33.31,74.545,5.702786458333333,64.14327214144431
1361379494.75,0.463468,33.31,74.58916668928,5.6813020833333345,64.14262256506264
1361379495.0,0.46368154166666664,33.31,74.63333333333334,5.806614583333334,64.14197298868095
1361379495.25,0.46389508333333335,33.31,74.68749997226668,6.562291666666667,64.14132341229926
1361379495.5,0.4642154166666667,33.31,74.74166666666667,7.107656249999999,64.1412828137754
1361379495.75,0.464482375,33.31,74.79583336106667,6.659713541666666,64.14172939753782
1361379496.0,0.46469591666666665,33.31,74.85000000000001,5.983958333333334,64.14237897391949
1361379496.25,0.4648026666666667,33.31,74.8999999744,6.101848958333334,64.14302855030118
1361379496.5,0.4648560416666667,33.31,74.95,7.036510416666666,64.14367812668287
1361379496.75,0.46501620833333335,33.310833333333335,75.0000000256,7.510182291666667,64.14432770306455
1361379497.0,0.465123,33.3125,75.05,7.068124999999999,64.14497727944622
1361379497.25,0.465176375,33.31416666666667,75.09749997568,6.455208333333334,64.14562685582791
1361379497.5,0.465283125,33.31583333333334,75.145,6.691744791666667,64.14627643220959
1361379497.75,0.46544325000000003,33.3175,75.19250002432,7.411927083333333,64.14692600859128
1361379498.0,0.4657102083333333,33.31916666666667,75.24,7.571119791666667,64.14757558497296
1361379498.25,0.4659771666666666,33.32083333333333,75.28333331114666,6.9676302083333335,64.14822516135465
1361379498.5,0.46613733333333335,33.3225,75.32666666666667,6.515703125000001,64.1482657598785
1361379498.75,0.4662975,33.32416666666666,75.37000002218667,7.1492708333333335,64.1482657598785
1361379499.0,0.466350875,33.32583333333333,75.41333333333334,8.02890625,64.1482657598785
1361379499.25,0.4665110416666667,33.3275,75.44833331541334,8.12078125,64.1482657598785
1361379499.5,0.4666712083333333,33.329166666666666,75.48333333333335,7.227968750000001,64.1482657598785
1361379499.75,0.46672458333333333,33.33,75.51833335125335,6.65484375,64.1482657598785
1361379500.0,0.46677795833333335,33.33,75.55333333333334,7.185989583333334,64.1482657598785
1361379500.25,0.4669381666666666,33.33,75.58333331797334,8.027916666666668,64.1482657598785
1361379500.5,0.46704499999999993,33.33,75.61333333333334,7.843880208333334,64.1482657598785
1361379500.75,0.4671518333333333,33.33,75.64333334869333,6.821640625000001,64.1482657598785
1361379501.0,0.46720524999999996,33.33,75.67333333333333,6.71140625,64.1482657598785
1361379501.25,0.46731204166666657,33.33,75.69083332437333,7.313177083333333,64.1482657598785
1361379501.5,0.4674722083333333,33.33,75.70833333333334,7.589244791666666,64.1482657598785
1361379501.75,0.467632375,33.33,75.72583334229334,7.042760416666666,64.1482657598785
1361379502.0,0.4678993333333334,33.33,75.74333333333334,6.335130208333333,64.1482657598785
1361379502.25,0.46811287499999993,33.33,75.70000002218667,6.041614583333334,64.1482657598785
1361379502.5,0.4683797916666667,33.33,75.65666666666667,6.758776041666667,64.15360312322673
1361379502.75,0.4686467083333334,33.33,75.61333331114666,7.574999999999999,64.15360312322673
1361379503.0,0.46891362499999995,33.33,75.57,7.73046875,64.15360312322673
1361379503.25,0.469127125,33.33,75.46500005376,7.534036458333333,64.15360312322673
1361379503.5,0.46934062500000007,33.33,75.36,7.8128125,64.15360312322673
1361379503.75,0.4696075416666667,33.33,75.25499994624,8.40421875,64.15360312322673
1361379504.0,0.46987445833333336,33.33,75.15,8.581953125,64.15360312322673
1361379504.25,0.4701414166666667,33.33,74.99083341482667,9.087578125,64.15360312322673
1361379504.5,0.470355,33.33,74.83166666666668,9.998958333333333,64.15360312322673
1361379504.75,0.47056858333333335,33.33,74.67249991850667,10.561692708333334,64.15360312322673
1361379505.0,0.47078216666666667,33.33,74.51333333333334,10.809036458333333,64.15360312322673
1361379505.25,0.471049125,33.33,74.35250008234667,11.720182291666665,64.15360312322673
1361379505.5,0.47126270833333334,33.33,74.19166666666666,12.164427083333335,64.1482657598785
1361379505.75,0.47147629166666666,33.33,74.03083325098666,11.864062500000001,64.1482657598785
1361379506.0,0.47168987500000004,33.33,73.86999999999999,11.047552083333334,64.1482657598785
1361379506.25,0.4719568333333333,33.33,73.70750008319999,10.673619791666667,64.1482657598785
1361379506.5,0.4722771666666666,33.33,73.54499999999999,10.839114583333334,64.1482657598785
1361379506.75,0.47254408333333336,33.330416666666665,73.3824999168,11.000234375,64.1482657598785
1361379507.0,0.47281100000000004,33.331250000000004,73.22,10.776302083333334,64.1482657598785
1361379507.25,0.47302449999999996,33.33208333333333,73.05333341866667,9.615989583333333,64.1482657598785
1361379507.5,0.4732914166666667,33.33291666666667,72.88666666666666,8.319921875,64.1482657598785
1361379507.75,0.47361174999999994,33.33375,72.71999991466666,7.84375,64.1482657598785
1361379508.0,0.47387870833333334,33.334583333333335,72.55333333333333,7.833854166666666,64.1482657598785
1361379508.25,0.4740922916666667,33.33541666666667,72.37916675583999,6.936692708333333,64.1642778499232
1361379508.5,0.474305875,33.33625,72.205,5.694479166666667,64.20163939336082
1361379508.75,0.4746262083333333,33.33708333333333,72.03083324416001,5.380520833333333,64.228326210102
1361379509.0,0.47494654166666667,33.33791666666667,71.85666666666667,5.875286458333332,64.24166961847257
1361379509.25,0.4752669166666667,33.33875,71.6733334272,5.895625,64.24166961847257
1361379509.5,0.4756940833333334,33.33958333333334,71.49000000000001,5.016223958333334,64.24166961847257
1361379509.75,0.4760678333333333,33.34,71.3066665728,4.313489583333333,64.24166961847257
1361379510.0,0.47649500000000006,33.34,71.12333333333333,4.602239583333334,64.24166961847257
1361379510.25,0.4769221666666667,33.34,70.93416676352,5.365677083333334,64.24166961847257
1361379510.5,0.47729591666666665,33.34,70.745,5.731796875,64.24166961847257
1361379510.75,0.47761625,33.34,70.55583323648,5.485651041666667,64.24166961847257
1361379511.0,0.47793658333333333,33.34,70.36666666666666,5.414921875,64.24166961847257
1361379511.25,0.4783102916666666,33.34,70.17416676522666,5.975104166666667,64.22565752842787
1361379511.5,0.47868400000000005,33.34,69.98166666666665,6.7176302083333335,64.18829598499023
1361379511.75,0.47895095833333334,33.34,69.78916656810667,6.787369791666666,64.16160916824909
1361379512.0,0.47921791666666663,33.34,69.59666666666666,6.606093749999999,64.1482657598785
1361379512.25,0.47937808333333337,33.34,69.39916676778667,6.767005208333334,64.1482657598785
1361379512.5,0.47937808333333326,33.34,69.20166666666665,7.447916666666667,64.1482657598785
1361379512.75,0.479484875,33.34,69.00416656554665,8.223619791666666,64.1482657598785
1361379513.0,0.47953825,33.34,68.80666666666666,8.305234375,64.1482657598785
1361379513.25,0.47964500000000004,33.34,68.60833343488,8.032317708333334,64.1482657598785
1361379513.5,0.47975175,33.34,68.41,8.286015625,64.15360312322673
1361379513.75,0.479911875,33.34,68.21166656512,9.053098958333335,64.18829598499025
1361379514.0,0.480072,33.34,68.01333333333334,9.526953125,64.2309948917761
1361379514.25,0.48028554166666665,33.34,67.81583343445334,9.499036458333334,64.27369379856196
1361379514.5,0.48065925,33.34,67.61833333333334,9.610338541666666,64.31639270534784
1361379514.75,0.4810329583333333,33.34,67.42083323221334,9.813125000000001,64.3590916121337
1361379515.0,0.4814066666666667,33.34,67.22333333333334,9.858515625,64.40179051891955
1361379515.25,0.48183375,33.34,67.03000009898668,10.026979166666667,64.42047129063837
1361379515.5,0.48226083333333336,33.34,66.83666666666667,9.992291666666667,64.42152512612226
1361379515.75,0.4826879166666667,33.34,66.64333323434667,9.456848958333333,64.43667726384635
1361379516.0,0.4832217916666666,33.34,66.45,8.765833333333335,64.44089260578188
1361379516.25,0.4837557083333333,33.34,66.26083343018666,8.549843749999999,64.44089260578188
1361379516.5,0.484289625,33.34,66.07166666666667,8.253541666666667,64.43555524243367
1361379516.75,0.48471675000000003,33.34,65.88249990314668,7.41890625,64.40086238067015
1361379517.0,0.4851972916666667,33.34,65.69333333333334,6.32765625,64.35816347388429
1361379517.25,0.48551762499999995,33.34,65.50750009514667,5.4066406250000005,64.31546456709842
1361379517.5,0.485624375,33.34,65.32166666666667,4.767734375000001,64.27276566031256
1361379517.75,0.4857845416666666,33.34125,65.13583323818668,4.2777343750000005,64.22962016976429
1361379518.0,0.48589129166666667,33.34375,64.95,3.7498177083333335,64.18497182266144
1361379518.25,0.4860514583333333,33.346250000000005,64.76833342634667,3.0055208333333336,64.16076698480349
1361379518.5,0.486211625,33.34875,64.58666666666667,2.4831770833333335,64.15333575820765
1361379518.75,0.4863184166666666,33.35125,64.40499990698667,2.4848697916666667,64.13168430037415
1361379519.0,0.4863717916666667,33.35375,64.22333333333334,2.7200520833333335,64.12096963832917
1361379519.25,0.48637175,33.35625,64.04166675968001,2.652109375,64.11447031821974
1361379519.5,0.48653187500000006,33.35875,63.86000000000001,2.3017708333333333,64.1079709981103
1361379519.75,0.48674541666666665,33.361250000000005,63.67833324032001,2.337135416666667,64.10147167800089
1361379520.0,0.4869055416666666,33.363749999999996,63.49666666666667,3.0139583333333335,64.09497235789146
1361379520.25,0.4871724583333334,33.36625,63.320000090453334,3.596458333333333,64.08847303778204
1361379520.5,0.48749279166666665,33.36875,63.14333333333333,3.5614843750000005,64.08197371767261
1361379520.75,0.4877597083333334,33.37,62.966666576213335,3.873958333333334,64.0759209813256
1361379521.0,0.48808004166666663,33.37,62.79,4.600625,64.07137110153316
1361379521.25,0.48840037500000005,33.37,62.610833425066666,5.258307291666667,64.07039584756286
1361379521.5,0.488774125,33.37,62.431666666666665,5.369427083333332,64.07027391856539
1361379521.75,0.489147875,33.37,62.252499908266664,5.09515625,64.07027391856539
1361379522.0,0.48946825,33.37,62.07333333333333,5.056380208333333,64.07027391856539
1361379522.25,0.48978862500000003,33.37,61.892500092586666,5.164557291666667,64.07027391856539
1361379522.5,0.48994883333333333,33.37,61.711666666666666,5.810208333333333,64.07027391856539
1361379522.75,0.4901090416666667,33.37,61.53083324074667,6.274375,64.07027391856539
1361379523.0,0.490376,33.37,61.35,5.835286458333333,64.07027391856539
1361379523.25,0.49069633333333335,33.37,61.164166761813334,5.035807291666667,64.07027391856539
1361379523.5,0.49101666666666666,33.37,60.97833333333333,4.959583333333334,64.07027391856539
1361379523.75,0.49139041666666666,33.37,60.79249990485333,5.021276041666667,64.05332593416401
1361379524.0,0.49181758333333336,33.37,60.60666666666666,4.334609375,64.01915567430454
1361379524.25,0.4922447083333333,33.37,60.420833428479995,2.936796875,63.984535422415
1361379524.5,0.4927251666666666,33.37,60.235,1.5576562500000002,63.94934238914669
1361379524.75,0.49325900000000006,33.37,60.049166571520004,0.7541666666666669,63.914067524917094
1361379525.0,0.4937928333333333,33.37,59.86333333333334,0.015494791666666832,63.87821980860809
1361379525.25,0.49438008333333333,33.37,59.67750009514667,-0.9694010416666666,63.84233117429341
1361379525.5,0.49502074999999995,33.37,59.49166666666667,-2.7038541666666664,63.80644253997874
1361379525.75,0.49571479166666665,33.37,59.305833238186665,-3.9733072916666665,63.77055390566406
1361379526.0,0.4963554583333334,33.37,59.12,-4.110260416666667,63.73466527134938
1361379526.25,0.49694274999999993,33.37,58.933333428906664,-3.78890625,63.69877663703471
1361379526.5,0.49763683333333336,33.37,58.74666666666667,-3.72796875,63.66288800272003
1361379526.75,0.4982775,33.37,58.55999990442667,-4.273098958333334,63.64394735280674
1361379527.0,0.4989715416666667,33.37,58.373333333333335,-4.6722656250000005,63.64222897835152
1361379527.25,0.4996655833333334,33.37,58.20250008746667,-3.898697916666667,63.6409605959264
1361379527.5,0.5003062500000001,33.37,58.031666666666666,-1.9712239583333335,63.64038774889704
1361379527.75,0.5009469166666666,33.37,57.860833245866665,-0.37726562499999994,63.640224076874354
1361379528.0,0.5015875833333333,33.37,57.69,0.40890625,63.641451541293804
1361379528.25,0.5021748333333333,33.37,57.53250008064,1.4410156250000001,63.64276083667454
1361379528.5,0.5027086666666666,33.37,57.375,3.3716927083333332,63.64407013205528
1361379528.75,0.5032425416666667,33.37,57.21749991936,4.41796875,63.64537942743603
1361379529.0,0.5038298333333333,33.37,57.06,4.822630208333333,63.646688722816776
1361379529.25,0.504417125,33.37,56.91416674133333,5.509531249999999,63.64799801819751
1361379529.5,0.504897625,33.37,56.76833333333333,5.760104166666667,63.649307313578255
1361379529.75,0.505378125,33.37,56.62249992533334,6.133723958333334,63.650616608959005
1361379530.0,0.5058052083333333,33.37,56.47666666666667,7.037473958333333,63.65192590433975
1361379530.25,0.5062857083333333,33.37,56.330833408000004,7.418697916666667,63.653235199720484
1361379530.5,0.5067128333333333,33.37,56.185,6.948776041666666,63.654421741084214
1361379530.75,0.5071933750000001,33.37,56.039166592,6.255911458333333,63.65528093840257
1361379531.0,0.5076739166666667,33.37,55.89333333333334,6.213723958333333,63.655321851358195
1361379531.25,0.5081544583333334,33.37,55.77166672896001,6.170182291666666,63.655321851358195
1361379531.5,0.5086350000000001,33.37,55.650000000000006,5.634947916666667,63.65544457508054
1361379531.75,0.5091155,33.37,55.52833327104,5.570546875000001,63.658716224131155
1361379532.0,0.5095425833333334,33.37,55.406666666666666,5.331250000000001,63.662642172728965
1361379532.25,0.5099162916666667,33.37,55.33500003669334,4.618984375,63.666568121326776
1361379532.5,0.51029,33.37,55.263333333333335,4.643802083333333,63.670494069924594
1361379532.75,0.5107170833333333,33.37,55.191666629973334,4.780755208333333,63.6744200185224
1361379533.0,0.5110907916666666,33.37,55.120000000000005,4.6395052083333335,63.678345967120215
1361379533.25,0.5113577083333333,33.37,55.116666668373334,4.553671875,63.675368132544754
1361379533.5,0.511624625,33.37,55.11333333333333,4.436640625,63.64132327368958
1361379533.75,0.51178475,33.37,55.10999999829333,4.787994791666667,63.59001895690122
1361379534.0,0.5119982916666667,33.37,55.10666666666666,4.985390625,63.538714640112865
1361379534.25,0.51226525,33.37,55.148333312,4.694036458333334,63.48741032332452
1361379534.5,0.5125322083333334,33.37,55.19,4.302630208333333,63.43598328281382
1361379534.75,0.5127991666666666,33.36875,55.231666688,4.290807291666667,63.381407316974844
1361379535.0,0.51301275,33.36625,55.27333333333333,4.587760416666667,63.32617705158868
1361379535.25,0.5132797083333333,33.36375,55.338333300053336,4.905963541666667,63.27094678620252
1361379535.5,0.5136000416666666,33.36125,55.403333333333336,4.750156250000001,63.215675208250616
1361379535.75,0.513920375,33.35875,55.46833336661333,4.41203125,63.15978394181277
1361379536.0,0.5142407083333334,33.356249999999996,55.53333333333333,3.9986979166666665,63.10389267537491
1361379536.25,0.5145610416666667,33.35375,55.59916663296,3.873802083333333,63.05490519211033
1361379536.5,0.5149347916666667,33.35125,55.66499999999999,4.083411458333333,63.03698473312547
1361379536.75,0.5153619583333332,33.34875,55.73083336703999,3.7531250000000003,63.03632373207378
1361379537.0,0.5157357083333333,33.346250000000005,55.79666666666666,3.2204947916666664,63.03566273102209
1361379537.25,0.5161094166666665,33.34375000000001,55.86583329791999,3.4106770833333333,63.03500172997041
1361379537.5,0.516483125,33.34125,55.934999999999995,3.8571354166666665,63.03434072891872
1361379537.75,0.5169102083333333,33.34,56.00416670208,3.67,63.03367972786703
1361379538.0,0.5174440833333332,33.34,56.07333333333333,3.377083333333333,63.03301872681535
1361379538.25,0.5179779999999999,33.34,56.139999965866664,3.76125,63.03235772576365
1361379538.5,0.5184585416666666,33.34,56.20666666666666,4.113203125,63.0317380372777
1361379538.75,0.5188857083333334,33.34,56.27333336746667,4.169895833333333,63.0317380372777
1361379539.0,0.519312875,33.34,56.34,4.455338541666666,63.0317380372777
1361379539.25,0.5197400416666667,33.34,56.40333330090667,4.944348958333333,63.0317380372777
1361379539.5,0.5201671666666667,33.34,56.46666666666667,5.120677083333334,63.0317380372777
1361379539.75,0.52059425,33.34,56.53000003242667,5.308776041666667,63.0317380372777
1361379540.0,0.5210213333333334,33.34,56.593333333333334,5.773489583333333,63.0317380372777
1361379540.25,0.5213950416666667,33.34,56.6516666368,6.118828125,63.0317380372777
1361379540.5,0.52176875,33.34,56.71,6.216744791666667,63.0317380372777
1361379540.75,0.5220357083333333,33.34,56.76833336320001,6.38546875,63.0317380372777
1361379541.0,0.52224925,33.34,56.826666666666675,6.592708333333334,63.0317380372777
1361379541.25,0.52246275,33.34,56.879166639786675,6.24984375,63.0317380372777
1361379541.5,0.5227296666666666,33.34,56.93166666666667,5.899348958333334,63.0317380372777
1361379541.75,0.5230499999999999,33.34,56.98416669354666,5.903802083333333,63.031779349843426
1361379542.0,0.5234237083333333,33.34,57.03666666666666,5.993828124999999,63.03223378806646
1361379542.25,0.5238507916666667,33.34,57.084166642346666,5.73546875,63.03289478911815
1361379542.5,0.5242245,33.34,57.13166666666666,5.354010416666667,63.033555790169835
1361379542.75,0.5245448333333333,33.34,57.17916669098666,5.034921874999999,63.04638884844911
1361379543.0,0.5248651666666666,33.34,57.22666666666667,5.044947916666667,63.10228011488696
1361379543.25,0.5251855,33.34,57.27083331072,4.949270833333333,63.15817138132482
1361379543.5,0.5255058333333332,33.34,57.315,4.4737760416666665,63.21406264776267
1361379543.75,0.5258261666666667,33.34,57.359166689279995,4.154583333333334,63.26995391420053
1361379544.0,0.5261465,33.34,57.40333333333333,4.370104166666667,63.325845180638375
1361379544.25,0.5264668333333333,33.34,57.449166643199995,4.454921875,63.38173644707623
1361379544.5,0.5267871666666667,33.34,57.495,4.158776041666667,63.43072393034081
1361379544.75,0.5270540833333334,33.34,57.5408333568,4.106901041666667,63.43479551041341
1361379545.0,0.5273744166666666,33.34,57.586666666666666,4.417109375,63.43500207324206
1361379545.25,0.5277481249999999,33.34,57.63666664106667,4.3304687500000005,63.43500207324206
1361379545.5,0.528228625,33.34,57.68666666666667,3.9791666666666665,63.43500207324206
1361379545.75,0.528709125,33.34,57.73666669226667,4.11515625,63.42283001601447
1361379546.0,0.5292964166666667,33.34,57.78666666666667,4.204348958333333,63.36759975062831
1361379546.25,0.5299370833333333,33.34,57.839999972693334,3.7965625,63.31236948524214
1361379546.5,0.5305777500000001,33.34,57.89333333333333,3.7570833333333336,63.25713921985598
1361379546.75,0.5312184166666666,33.34,57.946666693973334,4.233151041666667,63.20182632933834
1361379547.0,0.5318057083333333,33.34,58.0,4.033541666666666,63.146513438820726
1361379547.25,0.532393,33.34,58.05416663893333,3.477838541666667,63.091283173434554
1361379547.5,0.5329802499999999,33.34,58.108333333333334,3.759401041666667,63.042956691221654
1361379547.75,0.5335675,33.34,58.16250002773334,4.254244791666666,63.03950479963502
1361379548.0,0.5340479583333333,33.34,58.21666666666667,3.740338541666667,63.04061828064323
1361379548.25,0.5344216666666667,33.34,58.27333330432,3.33953125,63.08305842655097
1361379548.5,0.5346885833333332,33.34,58.33,4.0222395833333335,63.101962654457026
1361379548.75,0.5349554999999999,33.34,58.38666669568,4.2843229166666665,63.131824930994235
1361379549.0,0.5351156249999999,33.34,58.44333333333333,3.6627083333333332,63.18705519638039
1361379549.25,0.5352223749999999,33.34,58.49833330517333,3.6802604166666666,63.242285461766556
1361379549.5,0.535329125,33.34,58.55333333333333,4.443307291666667,63.29825129863141
1361379549.75,0.5353825,33.33958333333334,58.60833336149333,4.073906249999999,63.41234084855358
1361379550.0,0.535435875,33.338750000000005,58.663333333333334,3.4925520833333334,63.58324919407945
1361379550.25,0.535329125,33.337916666666665,58.717499972266666,3.7172135416666663,63.83545050570885
1361379550.5,0.535115625,33.33708333333334,58.77166666666666,3.3076302083333338,64.10183601332582
1361379550.75,0.534902125,33.33625,58.825833361066664,2.5094010416666666,64.40246703189045
1361379551.0,0.5346352083333333,33.33541666666667,58.879999999999995,2.7731250000000003,64.69548316416763
1361379551.25,0.5343148750000001,33.334583333333335,58.93166664021333,3.0477343750000006,64.89765329448036
1361379551.5,0.5339411666666667,33.33375,58.983333333333334,1.8031770833333332,65.10334231985502
1361379551.75,0.5335140833333333,33.333333333333336,59.03500002645333,0.7398697916666667,65.29648724767894
1361379552.0,0.533033625,33.333333333333336,59.086666666666666,0.6771875,65.43023182720195
1361379552.25,0.5324997916666667,33.333333333333336,59.14416663722667,-0.23807291666666663,65.55871675624304
1361379552.5,0.5319125416666667,33.333333333333336,59.20166666666667,-1.7237239583333335,65.68470942004247
1361379552.75,0.5313786666666667,33.33375,59.25916669610666,-2.3999739583333333,65.75038465317373
1361379553.0,0.5308447916666666,33.334583333333335,59.31666666666666,-2.8574739583333333,65.7555236399511
1361379553.25,0.5304176666666667,33.33541666666667,59.366666641066665,-3.23046875,65.67036752972801
1361379553.5,0.5300439166666667,33.33625,59.41666666666666,-2.932005208333333,65.5743094453119
1361379553.75,0.5297235833333334,33.33708333333333,59.46666669226666,-2.8084114583333335,65.44248492410651
1361379554.0,0.5294566666666667,33.337916666666665,59.51666666666666,-3.1740104166666665,65.31816248049135
1361379554.25,0.5292431666666667,33.338750000000005,59.56083331071999,-3.3398697916666666,65.24231886687981
1361379554.5,0.5290830416666666,33.33958333333333,59.605,-2.420677083333333,65.18825297668232
1361379554.75,0.5289762916666668,33.34,59.64916668928,-1.8250000000000002,65.13385231110747
1361379555.0,0.5290296666666667,33.34,59.693333333333335,-1.7787760416666665,65.1148447596912
1361379555.25,0.5292431666666667,33.34,59.72749998250667,-0.6575781249999998,65.09737418535981
1361379555.5,0.5295635,33.34,59.76166666666667,0.23437500000000008,65.08138005261749
1361379555.75,0.5298838333333333,33.34125,59.79583335082667,0.8173177083333334,65.0676622626175
1361379556.0,0.5302575833333334,33.34375000000001,59.830000000000005,1.7317708333333333,65.05874288927961
1361379556.25,0.5306313333333333,33.346250000000005,59.86666664789333,2.0333593750000003,65.06074435681978
1361379556.5,0.5310584583333334,33.34875,59.903333333333336,1.60140625,65.05505957712035
1361379556.75,0.5314855416666666,33.35125,59.94000001877333,1.3073697916666667,65.0506954525153
1361379557.0,0.531966,33.35375,59.97666666666666,0.6849739583333334,65.04489009973524
1361379557.25,0.5324998333333334,33.356249999999996,60.01333331455999,0.18026041666666673,65.04012525401647
1361379557.5,0.5330336666666667,33.35875,60.05,-0.46145833333333325,65.03299863955067
1361379557.75,0.5336209166666667,33.36125,60.08666668544,-0.8889583333333332,65.0244659539071
1361379558.0,0.534368375,33.36375,60.123333333333335,-1.1398177083333332,65.0124057146788
1361379558.25,0.5354361666666666,33.36625,60.162499979946666,-1.9141927083333332,65.00623494772564
1361379558.5,0.5369844166666667,33.36875,60.20166666666667,-2.6575260416666664,64.99745536777557
1361379558.75,0.538853,33.37083333333333,60.24083335338667,-3.01796875,64.99156485299635
1361379559.0,0.5407749583333333,33.372499999999995,60.28,-3.5451822916666664,64.98531563859787
1361379559.25,0.5428570833333333,33.37416666666666,60.32666664277333,-3.967552083333333,64.97886829390512
1361379559.5,0.5450993749999999,33.37583333333333,60.373333333333335,-3.924375,64.97498054334575
1361379559.75,0.547501875,33.37833333333333,60.42000002389334,-3.830442708333333,64.9645939377195
1361379560.0,0.5499577916666666,33.38166666666666,60.46666666666667,-3.3696874999999995,64.95296220006205
1361379560.25,0.552573875,33.385,60.51666664106667,-2.944114583333333,64.94466103897615
1361379560.5,0.5554034999999999,33.38833333333333,60.56666666666666,-2.64390625,64.9389673747135
1361379560.75,0.5582865,33.391666666666666,60.61666669226666,-2.2879947916666663,64.94209391409728
1361379561.0,0.5609559583333333,33.394999999999996,60.666666666666664,-2.0385677083333333,64.94726686779482
1361379561.25,0.5631983333333334,33.39833333333333,60.71833330688,-1.8163020833333332,64.95047337870515
1361379561.5,0.5649602083333333,33.401666666666664,60.769999999999996,-1.2285416666666666,64.95636763094838
1361379561.75,0.5665085,33.404999999999994,60.82166669312,-0.8040625,64.94553219370377
1361379562.0,0.5679500000000001,33.40833333333333,60.873333333333335,-0.430625,64.93047949197928
1361379562.25,0.5692847083333333,33.41166666666667,60.92499997354667,0.05721354166666673,64.91410607080765
1361379562.5,0.5704058750000001,33.415,60.97666666666666,0.36713541666666677,64.89825044025964
1361379562.75,0.5713134583333334,33.4175,61.02833335978666,0.3100781250000001,64.88744529706572
1361379563.0,0.5721142499999999,33.41916666666666,61.07999999999999,-0.04984374999999989,64.87643479487592
1361379563.25,0.5728082916666667,33.42083333333333,61.12999997439999,-0.7012760416666666,64.85311680783185
1361379563.5,0.5733955833333334,33.4225,61.17999999999999,-1.7042447916666665,64.82791343000441
1361379563.75,0.5738760833333333,33.424166666666665,61.2300000256,-2.9214322916666666,64.79721674400527
1361379564.0,0.5743565416666666,33.42583333333334,61.28,-4.169635416666667,64.76664044257048
1361379564.25,0.574890375,33.4275,61.3299999744,-5.27484375,64.73586378504477
1361379564.5,0.5753708333333333,33.42916666666667,61.379999999999995,-6.5151562499999995,64.70528845135702
1361379564.75,0.5757445416666666,33.43,61.430000025599995,-7.772135416666667,64.68855374198624
1361379565.0,0.5761182499999999,33.43,61.48,-8.813515624999999,64.67628084683648
1361379565.25,0.5764919999999999,33.43,61.527499975679994,-9.296588541666667,64.66735047532914
1361379565.5,0.57686575,33.43,61.574999999999996,-9.658932291666666,64.66336940283149
1361379565.75,0.5772929166666666,33.43,61.62250002432,-9.543333333333333,64.66300800688943
1361379566.0,0.5776666666666667,33.43,61.669999999999995,-9.264166666666666,64.66574423059213
1361379566.25,0.5779336249999999,33.43,61.7199999744,-8.851640625,64.6774573625775
1361379566.5,0.5781472083333333,33.43,61.769999999999996,-7.740963541666667,64.68929065630466
1361379566.75,0.578307375,33.43083333333333,61.820000025599995,-6.0913281249999995,64.70325417743551
1361379567.0,0.5784141666666666,33.4325,61.87,-4.300703124999999,64.72296149950355
1361379567.25,0.578521,33.43416666666666,61.91416664405333,-2.705911458333333,64.74178515988895
1361379567.5,0.5786812083333333,33.435833333333335,61.958333333333336,-1.146223958333333,64.7536184536161
1361379567.75,0.5789481666666666,33.4375,62.00250002261334,0.44255208333333346,64.76521054783436
1361379568.0,0.5792685,33.43916666666667,62.046666666666674,1.842447916666667,64.77583582601876
1361379568.25,0.5795354166666667,33.44083333333334,62.084166647466674,2.683515625,64.78219352673305
1361379568.5,0.5798023333333333,33.4425,62.12166666666667,3.4359895833333334,64.78255500892261
1361379568.75,0.5800158333333333,33.445,62.159166685866666,4.02296875,64.78166987200949
1361379569.0,0.58028275,33.44833333333333,62.196666666666665,4.6584375,64.77426637483795
1361379569.25,0.5806030833333333,33.45166666666667,62.226666651306665,5.64390625,64.7638015576666
1361379569.5,0.58087,33.455,62.25666666666667,6.408697916666667,64.74971087375718
1361379569.75,0.5812437500000001,33.4575,62.28666668202667,6.525104166666666,64.73207909358015
1361379570.0,0.581670875,33.45916666666667,62.31666666666667,6.6196875,64.70761449885478
1361379570.25,0.5820445833333333,33.46083333333333,62.345833318400004,6.9093229166666665,64.68596910074156
1361379570.5,0.5823649166666667,33.4625,62.375,6.973463541666667,64.67590713376245
1361379570.75,0.582525125,33.464166666666664,62.404166681599996,6.9562760416666665,64.6710376399111
1361379571.0,0.5826319583333334,33.46583333333333,62.43333333333333,7.132109375,64.66367122953919
1361379571.25,0.5827387916666666,33.4675,62.462499985066664,7.222083333333334,64.66853153119989
1361379571.5,0.582845625,33.46916666666666,62.49166666666667,7.197916666666667,64.68030613975091
1361379571.75,0.5829524583333333,33.47,62.52083334826667,7.196276041666668,64.67945923166009
1361379572.0,0.5830592916666667,33.47,62.550000000000004,7.345208333333333,64.68058588516952
1361379572.25,0.5830592916666667,33.47,62.58249998336,7.07484375,64.6889181258589
1361379572.5,0.5831127083333333,33.47,62.615,6.5960937500000005,64.69781919272235
1361379572.75,0.5831127083333333,33.47,62.64750001664,6.57828125,64.70796974781261
1361379573.0,0.5830593333333334,33.47,62.68,6.608411458333333,64.71546579808823
1361379573.25,0.5830059583333334,33.47,62.710833317546665,6.311822916666667,64.72299928358196
1361379573.5,0.5830059583333334,33.47,62.741666666666674,6.314218749999999,64.7262216420319
1361379573.75,0.5830593333333334,33.47,62.772500015786676,6.659114583333334,64.71711997624138
1361379574.0,0.5831127083333333,33.47,62.80333333333334,6.445963541666667,64.71176538481252
1361379574.25,0.5831660833333333,33.47,62.82666665472001,6.237552083333334,64.68748800721839
1361379574.5,0.5833262083333334,33.47,62.85000000000001,6.525781249999999,64.65802448894883
1361379574.75,0.5835397083333332,33.47083333333333,62.87333334528,6.989921874999999,64.64275870166209
1361379575.0,0.5838066249999999,33.472500000000004,62.89666666666667,6.993984375,64.63034709478875
1361379575.25,0.58423375,33.47416666666667,62.90999999317334,7.176927083333332,64.61379122073527
1361379575.5,0.5846608333333333,33.475833333333334,62.92333333333333,7.788749999999999,64.60005118773688
1361379575.75,0.5850879166666666,33.4775,62.93666667349333,8.203567708333333,64.58647253537559
1361379576.0,0.5855149999999999,33.479166666666664,62.949999999999996,8.335729166666667,64.57663740144012
1361379576.25,0.5859420833333333,33.48083333333333,62.959166661973335,8.842942708333334,64.56482929735701
1361379576.5,0.586209,33.4825,62.968333333333334,9.511848958333333,64.55273925584181
1361379576.75,0.5865293333333333,33.48416666666667,62.97750000469333,9.623151041666665,64.54802196494823
1361379577.0,0.5868496666666666,33.48583333333334,62.98666666666667,10.049401041666666,64.54205451621358
1361379577.25,0.5872233749999999,33.487500000000004,62.997499994453335,10.843255208333332,64.54322571006811
1361379577.5,0.5874903333333333,33.48916666666667,63.00833333333334,11.177994791666665,64.54399163914084
1361379577.75,0.5878640833333333,33.49,63.01916667221334,11.02052083333333,64.53089968840983
1361379578.0,0.5882912083333333,33.49,63.03,11.145390625,64.51408914809
1361379578.25,0.5886649166666666,33.49,63.03999999488,11.220026041666666,64.49727860777016
1361379578.5,0.58898525,33.49,63.05,11.012135416666666,64.48046806745033
1361379578.75,0.5893055833333333,33.49,63.06000000512,10.841510416666665,64.46365752713048
1361379579.0,0.5896259166666667,33.49,63.07,10.859453125,64.44684698681064
1361379579.25,0.58994625,33.49,63.078333329066666,10.534791666666665,64.4300364464908
1361379579.5,0.59042675,33.49,63.086666666666666,9.822994791666666,64.41847920002091
1361379579.75,0.5908538333333333,33.49041666666667,63.095000004266666,9.483541666666667,64.41847920002091
1361379580.0,0.5913342916666667,33.49125,63.10333333333333,9.205052083333333,64.42069681137004
1361379580.25,0.591708,33.49208333333333,63.11916665856,8.360078125,64.42779316768726
1361379580.5,0.5920817083333333,33.492916666666666,63.135,7.5567447916666675,64.43823431456475
1361379580.75,0.59229525,33.495,63.15083334144,7.248671875,64.4701739456702
1361379581.0,0.592455375,33.498333333333335,63.166666666666664,7.126171875,64.49790439529112
1361379581.25,0.59250875,33.50166666666667,63.18749998933333,6.929765624999999,64.52181129192816
1361379581.5,0.592562125,33.505,63.20833333333333,6.334869791666667,64.5521570616663
1361379581.75,0.592562125,33.50833333333333,63.22916667733333,5.713463541666666,64.58890218300155
1361379582.0,0.5926155,33.51166666666666,63.25,5.508958333333333,64.62544635262019
1361379582.25,0.5926155,33.515,63.27249998848,5.569218750000001,64.6615886188056
1361379582.5,0.592562125,33.51833333333334,63.295,5.314895833333334,64.69247759114106
1361379582.75,0.5926155416666666,33.522083333333335,63.31750001152,4.803333333333334,64.71180931700663
1361379583.0,0.5926155833333333,33.52625,63.34,4.661744791666667,64.72912438323968
1361379583.25,0.5928291666666666,33.53041666666667,63.35333332650667,4.730338541666667,64.74015151992145
1361379583.5,0.5930427500000001,33.53458333333333,63.366666666666674,4.450546875,64.73680219614694
1361379583.75,0.5933630833333333,33.5375,63.38000000682667,3.9731770833333333,64.71747047028136
1361379584.0,0.5936300416666667,33.53916666666667,63.39333333333334,3.5420312500000004,64.70655056098029
1361379584.25,0.5940571666666666,33.54083333333333,63.39999999658667,3.34375,64.69945420466308
1361379584.5,0.5945910833333333,33.5425,63.406666666666666,3.460234375,64.68591897524476
1361379584.75,0.595178375,33.54416666666666,63.41333333674666,3.417057291666666,64.66598439422937
1361379585.0,0.5956589166666667,33.545833333333334,63.419999999999995,3.0284895833333336,64.64625076493057
1361379585.25,0.5961928333333334,33.5475,63.42249999872,3.104635416666667,64.626919039065
1361379585.5,0.59672675,33.54916666666666,63.425,3.6074739583333337,64.60758731319943
1361379585.75,0.59720725,33.549166666666665,63.427500001279995,3.8019791666666674,64.58825558733385
1361379586.0,0.597634375,33.54749999999999,63.43,3.645807291666667,64.56872290975167
1361379586.25,0.5979547083333333,33.54583333333333,63.43,3.9171093750000003,64.55059941675269
1361379586.5,0.5984885833333333,33.54416666666666,63.43,4.470937500000001,64.5445582524197
1361379586.75,0.5989157083333333,33.54333333333333,63.43,4.719453125,64.5445582524197
1361379587.0,0.5993428333333334,33.54333333333333,63.43,4.7332552083333335,64.5445582524197
1361379587.25,0.599449625,33.54333333333333,63.43,4.890963541666667,64.5445582524197
1361379587.5,0.599449625,33.54333333333333,63.43,5.219322916666667,64.54544529695936
1361379587.75,0.5996631666666666,33.54333333333333,63.43,5.453932291666668,64.5481064305783
1361379588.0,0.60009025,33.54333333333333,63.43,5.328489583333334,64.5552027868955
1361379588.25,0.6005173333333333,33.54333333333333,63.43,4.757369791666667,64.56096857640323
1361379588.5,0.6009444166666666,33.54333333333333,63.43,4.311354166666667,64.56806493272043
1361379588.75,0.60126475,33.544999999999995,63.43,4.2553125,64.5747177667678
1361379589.0,0.6016384583333333,33.54833333333334,63.43,4.135807291666667,64.58181412308501
1361379589.25,0.601852,33.55166666666667,63.42583333546666,3.5294010416666666,64.58802343486256
1361379589.5,0.6017452083333333,33.555,63.42166666666667,2.9090104166666664,64.58846695713238
1361379589.75,0.6015316249999999,33.5575,63.41749999786667,2.913020833333334,64.58846695713238
1361379590.0,0.6015316249999999,33.55916666666666,63.413333333333334,2.9367447916666674,64.57270707558253
1361379590.25,0.6017985833333334,33.56083333333333,63.40083333973333,2.3234895833333336,64.5558965352627
1361379590.5,0.6020655416666667,33.5625,63.388333333333335,1.5722135416666667,64.53819895040321
1361379590.75,0.6021189583333334,33.565,63.37583332693334,1.46390625,64.51872727646442
1361379591.0,0.6019587916666667,33.568333333333335,63.36333333333334,1.8597395833333337,64.49482037982737
1361379591.25,0.601798625,33.571666666666665,63.34166667776,1.8398697916666669,64.47224404999982
1361379591.5,0.6016384583333334,33.575,63.32000000000001,1.6133593750000002,64.44833715336277
1361379591.75,0.6015316666666667,33.57750000000001,63.298333322240005,1.75,64.42487377899556
1361379592.0,0.6014782916666667,33.579166666666666,63.27666666666667,1.7012239583333335,64.40096688235853
1361379592.25,0.6016384583333333,33.58083333333334,63.25500001109334,1.5872395833333333,64.37794703026114
1361379592.5,0.6019587916666668,33.5825,63.233333333333334,1.6493229166666667,64.36069296767148
1361379592.75,0.6023859166666667,33.583333333333336,63.21166665557333,1.484296875,64.34598374489161
1361379593.0,0.6024927083333335,33.583333333333336,63.19,1.2757291666666666,64.36468466809991
1361379593.25,0.6026528333333334,33.583333333333336,63.16666667861333,1.3879427083333333,64.38859156473693
1361379593.5,0.6027062083333333,33.583333333333336,63.14333333333333,1.5952343749999998,64.41249846137397
1361379593.75,0.6027595833333333,33.5825,63.11999998805334,1.448932291666667,64.43640535801102
1361379594.0,0.602866375,33.58083333333334,63.09666666666667,1.0219270833333334,64.46031225464806
1361379594.25,0.6029731666666667,33.579166666666666,63.07666667690667,0.9209114583333333,64.48421915128509
1361379594.5,0.6030799583333334,33.5775,63.056666666666665,0.9372395833333332,64.50812604792212
1361379594.75,0.60318675,33.575833333333335,63.03666665642666,0.6243489583333334,64.53203294455916
1361379595.0,0.6031333333333333,33.57416666666666,63.01666666666666,0.5596354166666667,64.5559398411962
1361379595.25,0.6028663750000001,33.5725,62.99250001237333,0.6921093750000001,64.57984673783324
1361379595.5,0.6025460416666667,33.57083333333333,62.96833333333333,0.9135677083333335,64.60375363447028
1361379595.75,0.6022257083333333,33.57,62.944166654293326,1.065625,64.62555921356734
1361379596.0,0.602012125,33.57,62.919999999999995,1.244140625,64.62672616614647
1361379596.25,0.6016917916666666,33.57,62.900833343146665,1.4602083333333333,64.60431345054924
1361379596.5,0.6014782083333333,33.57,62.88166666666666,1.75296875,64.58040655391221
1361379596.75,0.60121125,33.57,62.86249999018666,2.0346875,64.55649965727518
1361379597.0,0.6009976666666667,33.57,62.843333333333334,2.349791666666667,64.53259276063814
1361379597.25,0.6007307083333333,33.57,62.824166676480004,2.7066666666666666,64.5086858640011
1361379597.5,0.60046375,33.57,62.80500000000001,3.1263802083333334,64.48477896736406
1361379597.75,0.6002501666666666,33.57,62.78583332352,3.54859375,64.46087207072702
1361379598.0,0.6003035416666667,33.57,62.76666666666667,3.8674999999999997,64.43696517408999
1361379598.25,0.6005705,33.57,62.75166667434667,4.1664843750000005,64.41305827745295
1361379598.5,0.6007306666666666,33.57,62.73666666666667,4.226770833333333,64.3891513808159
1361379598.75,0.6006772916666666,33.57083333333333,62.72166665898667,4.283776041666667,64.37869211353721
1361379599.0,0.6008374583333334,33.5725,62.70666666666667,4.452578125,64.38168047561685
1361379599.25,0.6009976250000001,33.57416666666666,62.69250000725334,4.657864583333333,64.40409319121405
1361379599.5,0.6011577916666667,33.575833333333335,62.678333333333335,4.628958333333333,64.42800008785109
1361379599.75,0.6013713333333334,33.5775,62.66416665941333,4.576979166666667,64.45190698448813
1361379600.0,0.6014247083333334,33.57916666666667,62.65,4.638619791666667,64.47581388112518
1361379600.25,0.60163825,33.58083333333333,62.635833340586665,4.7004166666666665,64.4997207777622
1361379600.5,0.6018517916666667,33.5825,62.62166666666667,4.583359375,64.52362767439924
1361379600.75,0.6020119583333334,33.58416666666667,62.60749999274667,4.4513541666666665,64.54753457103628
1361379601.0,0.6020119583333334,33.58583333333333,62.593333333333334,4.3855208333333335,64.57144146767332
1361379601.25,0.6017983750000001,33.5875,62.58083333973333,4.326197916666667,64.59534836431037
1361379601.5,0.601798375,33.58916666666667,62.56833333333333,4.361223958333333,64.6192552609474
1361379601.75,0.6020119166666668,33.59,62.55583332693333,4.394244791666666,64.6297145282261
1361379602.0,0.6020119166666668,33.59,62.54333333333333,4.2407031250000005,64.6297145282261
1361379602.25,0.6022255,33.59,62.53333333845333,3.9743489583333336,64.6297145282261
1361379602.5,0.6024390833333334,33.59,62.523333333333326,3.8000000000000003,64.6297145282261
1361379602.75,0.6027594583333334,33.59,62.51333332821333,3.607760416666667,64.6297145282261
1361379603.0,0.60324,33.59,62.50333333333333,3.36171875,64.6297145282261
1361379603.25,0.603667125,33.59,62.49833333589333,3.179296875,64.6297145282261
1361379603.5,0.604040875,33.59,62.493333333333325,2.9965364583333334,64.6297145282261
1361379603.75,0.604414625,33.59,62.48833333077333,2.7769531250000004,64.6297145282261
1361379604.0,0.6047883749999999,33.59,62.48333333333333,2.6801041666666667,64.6297145282261
1361379604.25,0.6053222916666666,33.59,62.47666667007999,2.6484375,64.6297145282261
1361379604.5,0.6056960416666667,33.59,62.47,2.5089583333333336,64.6297145282261
1361379604.75,0.6060697916666666,33.590833333333336,62.463333329920005,2.271458333333334,64.6297145282261
1361379605.0,0.6063901666666666,33.5925,62.45666666666667,2.235234375,64.6297145282261
1361379605.25,0.6064969583333333,33.59416666666667,62.44583333888,2.4743749999999998,64.6297145282261
1361379605.5,0.6066571249999999,33.59583333333334,62.435,2.73671875,64.6297145282261
1361379605.75,0.6067104999999999,33.59666666666667,62.424166661120005,2.890703125,64.6297145282261
1361379606.0,0.606657125,33.59666666666667,62.413333333333334,2.9823697916666667,64.6297145282261
1361379606.25,0.606550375,33.59666666666667,62.39500000938667,3.159713541666667,64.6297145282261
1361379606.5,0.606497,33.59666666666667,62.376666666666665,3.4019270833333337,64.6297145282261
1361379606.75,0.6064436249999999,33.59666666666667,62.35833332394667,3.5722135416666667,64.6297145282261
1361379607.0,0.60639025,33.59666666666667,62.34,3.638229166666667,64.6297145282261
1361379607.25,0.6062835,33.59666666666667,62.31583334570667,3.7373958333333337,64.6297145282261
1361379607.5,0.6062301250000001,33.59666666666667,62.29166666666667,3.9515625,64.6297145282261
1361379607.75,0.60617675,33.59583333333334,62.267499987626664,4.334479166666667,64.6297145282261
1361379608.0,0.6062301250000001,33.59416666666667,62.24333333333333,4.6020312500000005,64.6297145282261
1361379608.25,0.6062300833333333,33.5925,62.216666680319996,4.666640625,64.6297145282261
1361379608.5,0.6061232916666667,33.590833333333336,62.19,4.741744791666666,64.6297145282261
1361379608.75,0.6059630833333333,33.590833333333336,62.16333331968,4.923020833333333,64.6297145282261
1361379609.0,0.60585625,33.5925,62.13666666666666,5.092421875,64.6297145282261
1361379609.25,0.6057494166666667,33.59416666666667,62.10916668074667,5.210989583333333,64.6297145282261
1361379609.5,0.6056425833333333,33.59583333333334,62.08166666666666,5.454479166666666,64.6297145282261
1361379609.75,0.6055891666666667,33.597500000000004,62.054166652586666,5.605677083333334,64.6297145282261
1361379610.0,0.6055357499999999,33.59916666666667,62.02666666666667,5.510677083333333,64.6297145282261
1361379610.25,0.6055357499999999,33.600833333333334,61.99750001493334,5.5521875,64.6297145282261
1361379610.5,0.6054823333333333,33.6025,61.968333333333334,5.896666666666667,64.6297145282261
1361379610.75,0.6054823333333333,33.604166666666664,61.93916665173334,5.8715625,64.6297145282261
1361379611.0,0.6054289583333333,33.60583333333333,61.910000000000004,5.561718750000001,64.6297145282261
1361379611.25,0.605429,33.6075,61.87583335082667,5.368177083333333,64.6297145282261
1361379611.5,0.6054824166666667,33.60916666666667,61.84166666666667,5.44578125,64.6297145282261
1361379611.75,0.6055892500000001,33.61,61.80749998250667,5.540520833333335,64.6297145282261
1361379612.0,0.6057494583333333,33.61,61.77333333333333,5.4526562499999995,64.6297145282261
1361379612.25,0.6060698333333333,33.61,61.730000022186665,5.118828125,64.6297145282261
1361379612.5,0.606550375,33.61,61.68666666666667,4.813203125,64.6297145282261
1361379612.75,0.6069775,33.61,61.64333331114666,4.910026041666667,64.6297145282261
1361379613.0,0.6074046249999999,33.61,61.599999999999994,5.091770833333333,64.6297145282261
1361379613.25,0.6077249583333333,33.61,61.549166692693326,4.76671875,64.6297145282261
1361379613.5,0.6080987083333333,33.61,61.498333333333335,4.224114583333333,64.6297145282261
1361379613.75,0.6084190416666667,33.61,61.447499973973336,4.148802083333333,64.6297145282261
1361379614.0,0.608739375,33.61,61.39666666666667,4.2485156250000005,64.6297145282261
1361379614.25,0.6090597083333333,33.61,61.33666669738667,4.068723958333334,64.6297145282261
1361379614.5,0.6093800416666667,33.61,61.276666666666664,3.6264583333333333,64.6297145282261
1361379614.75,0.60975375,33.61,61.216666635946666,3.236041666666667,64.6297145282261
1361379615.0,0.6100740833333334,33.61,61.156666666666666,3.0821354166666666,64.6297145282261
1361379615.25,0.6102876249999999,33.61,61.091666699946664,3.212552083333333,64.6297145282261
1361379615.5,0.610341,33.61,61.02666666666667,3.1898437499999996,64.6297145282261
1361379615.75,0.61044775,33.61083333333334,60.96166663338667,3.0747916666666666,64.6297145282261
1361379616.0,0.610607875,33.612500000000004,60.89666666666667,3.1572135416666662,64.6297145282261
1361379616.25,0.610821375,33.61416666666667,60.82833336832,3.4296354166666667,64.6297145282261
1361379616.5,0.6110882916666667,33.615833333333335,60.760000000000005,3.501822916666667,64.6297145282261
1361379616.75,0.6113552083333332,33.6175,60.69166663168,3.6073958333333334,64.6297145282261
1361379617.0,0.6117822916666666,33.619166666666665,60.623333333333335,3.949609375,64.6297145282261
1361379617.25,0.612209375,33.62083333333334,60.5566667008,4.274114583333334,64.6297145282261
1361379617.5,0.6126364583333334,33.6225,60.489999999999995,4.159791666666667,64.6297145282261
1361379617.75,0.6131703333333333,33.62416666666667,60.423333299199996,4.321328125,64.6297145282261
1361379618.0,0.613757625,33.62583333333334,60.35666666666666,4.8198437499999995,64.6297145282261
1361379618.25,0.6142915416666667,33.627500000000005,60.290833367039994,5.16296875,64.6297145282261
1361379618.5,0.6148254583333334,33.62916666666667,60.224999999999994,5.169661458333334,64.6297145282261
1361379618.75,0.615359375,33.63,60.15916663296,4.710963541666667,64.6297145282261
1361379619.0,0.6158932916666667,33.63,60.093333333333334,4.4476562500000005,64.6297145282261
1361379619.25,0.6164805833333333,33.63,60.02833336661333,4.707604166666667,64.6297145282261
1361379619.5,0.6170144583333333,33.63,59.96333333333334,4.92125,64.6297145282261
1361379619.75,0.6175483333333334,33.62916666666667,59.89833330005334,4.6471875,64.6297145282261
1361379620.0,0.6179754166666667,33.627500000000005,59.833333333333336,4.044609374999999,64.6297145282261
1361379620.25,0.6184559166666667,33.62583333333333,59.77083336533334,3.9413020833333334,64.6297145282261
1361379620.5,0.6189364166666667,33.62416666666667,59.708333333333336,4.493046875,64.6297145282261
1361379620.75,0.6192033333333334,33.623333333333335,59.64583330133333,4.673125,64.6297145282261
1361379621.0,0.6194168333333334,33.623333333333335,59.583333333333336,4.2654427083333335,64.6297145282261
1361379621.25,0.6196303333333334,33.623333333333335,59.52500002986667,3.5103125,64.6297145282261
1361379621.5,0.6198438333333334,33.623333333333335,59.46666666666667,3.3150520833333332,64.6297145282261
1361379621.75,0.6199505833333333,33.623333333333335,59.40833330346667,3.761640625,64.6297145282261
1361379622.0,0.6199505833333333,33.623333333333335,59.35,3.9640364583333336,64.6297145282261
1361379622.25,0.6198972083333333,33.62333333333334,59.29166669653333,3.5205468749999995,64.6297145282261
1361379622.5,0.6198972083333334,33.623333333333335,59.233333333333334,2.8579427083333333,64.6297145282261
1361379622.75,0.6198972083333333,33.62416666666667,59.174999970133335,2.7414583333333327,64.6297145282261
1361379623.0,0.6197370833333333,33.62583333333334,59.11666666666667,3.2308854166666667,64.6297145282261
1361379623.25,0.6194701666666668,33.627500000000005,59.06000002901334,3.439609375,64.6297145282261
1361379623.5,0.6192566250000001,33.62916666666667,59.00333333333334,3.055807291666666,64.6297145282261
1361379623.75,0.6190964999999999,33.63,58.94666663765334,2.385442708333333,64.6297145282261
1361379624.0,0.618936375,33.63,58.89000000000001,2.391953125,64.6297145282261
1361379624.25,0.618722875,33.63,58.82916669781334,3.208723958333333,64.6297145282261
1361379624.5,0.618616125,33.63,58.76833333333334,3.7999218750000003,64.6297145282261
1361379624.75,0.6186161250000001,33.63,58.707499968853334,3.608463541666667,64.6297145282261
1361379625.0,0.6187762916666667,33.63,58.64666666666667,3.1484895833333333,64.6297145282261
1361379625.25,0.6189364583333333,33.63,58.58500003157334,3.3870312499999997,64.6297145282261
1361379625.5,0.61904325,33.63,58.52333333333333,4.417864583333333,64.6297145282261
1361379625.75,0.6192034583333333,33.63,58.46166663509333,5.103229166666666,64.62810084854937
1361379626.0,0.6195237916666667,33.63,58.4,4.867890625,64.62164612984242
1361379626.25,0.619950875,33.63,58.33166670165333,4.452135416666667,64.62164612984243
1361379626.5,0.6203245833333333,33.63,58.263333333333335,4.885338541666666,64.62164612984243
1361379626.75,0.6206982916666667,33.63,58.19499996501333,5.676276041666667,64.62164612984243
1361379627.0,0.6210720000000001,33.63,58.126666666666665,5.639401041666666,64.62164612984243
1361379627.25,0.6215524583333334,33.63,58.062500032853336,5.049453125,64.62164612984242
1361379627.5,0.6219795416666667,33.63,57.998333333333335,4.542291666666666,64.62164612984243
1361379627.75,0.6223532500000001,33.63,57.934166633813334,5.063932291666666,64.62164612984243
1361379628.0,0.6226201666666668,33.63,57.870000000000005,5.933723958333332,64.62164612984242
1361379628.25,0.6228870833333334,33.63,57.81333336234667,5.8652083333333325,64.62474744159528
1361379628.5,0.6232074166666667,33.63,57.756666666666675,5.066302083333333,64.62925844050851
1361379628.75,0.62352775,33.63,57.699999970986674,4.605104166666666,64.63538311909848
1361379629.0,0.6238480833333334,33.63,57.64333333333334,5.16671875,64.64634883671866
1361379629.25,0.6242217916666667,33.63,57.59583335765334,5.598802083333333,64.65085983563189
1361379629.5,0.624648875,33.63,57.54833333333334,4.933463541666667,64.65537083454511
1361379629.75,0.6250759583333333,33.63,57.50083330901334,4.5053906249999995,64.65657933054885
1361379630.0,0.6255030416666667,33.63,57.45333333333334,4.674453125,64.65927792272244
1361379630.25,0.6259301666666667,33.63,57.41083335509334,4.623776041666667,64.65943907800734
1361379630.5,0.6263573333333333,33.63,57.36833333333334,4.569401041666667,64.65943907800734
1361379630.75,0.62689125,33.63,57.32583331157334,3.951067708333333,64.65960023329222
1361379631.0,0.6273184166666667,33.63,57.28333333333334,3.2612239583333333,64.65984196621957
1361379631.25,0.6277455833333333,33.63,57.24333335381334,3.213802083333333,64.65661975182415
1361379631.5,0.6282260833333333,33.63,57.20333333333333,3.6030729166666666,64.65307551598731
1361379631.75,0.6288133333333333,33.630833333333335,57.16333331285333,3.5057552083333334,64.650296567817
1361379632.0,0.6294006249999999,33.6325,57.123333333333335,2.766458333333333,64.64860504925005
1361379632.25,0.62982775,33.634166666666665,57.08500001962667,2.6163802083333336,64.64417429041048
1361379632.5,0.6300413333333333,33.63583333333334,57.04666666666667,3.3464322916666664,64.64111303358887
1361379632.75,0.6304150833333334,33.6375,57.008333313706665,3.7244010416666664,64.64807788898024
1361379633.0,0.63084225,33.63916666666666,56.97,3.729140625,64.6537538636819
1361379633.25,0.631216,33.64083333333333,56.933333352106665,4.454166666666667,64.66216837073118
1361379633.5,0.6316430833333334,33.6425,56.89666666666666,5.137239583333333,64.67271459600023
1361379633.75,0.6320701666666667,33.64416666666667,56.859999981226665,5.828932291666667,64.68193348488528
1361379634.0,0.6326574166666666,33.645833333333336,56.82333333333333,6.448307291666667,64.69107179612786
1361379634.25,0.6332446666666667,33.6475,56.7941666816,6.951510416666667,64.69956726564568
1361379634.5,0.6337785833333334,33.649166666666666,56.765,7.2969010416666675,64.70697506944454
1361379634.75,0.6340989166666667,33.65,56.735833318400005,7.865026041666667,64.7118870891833
1361379635.0,0.6343658333333334,33.65,56.70666666666667,8.43375,64.71289398930777
1361379635.25,0.6347395833333332,33.65,56.68250001237334,8.218776041666667,64.71881391575793
1361379635.5,0.6353268750000001,33.65,56.65833333333334,7.80015625,64.72312286719249
1361379635.75,0.6358073750000001,33.649166666666666,56.63416665429334,7.920625,64.72111071239117
1361379636.0,0.6362878333333334,33.6475,56.61000000000001,8.019166666666665,64.71789126470904
1361379636.25,0.6367682916666667,33.645833333333336,56.58916667733334,7.348072916666666,64.71422917646301
1361379636.5,0.637088625,33.64416666666667,56.568333333333335,6.55765625,64.7081939501072
1361379636.75,0.6373555833333333,33.642500000000005,56.54749998933333,5.8426302083333335,64.70010218425331
1361379637.0,0.63751575,33.64083333333333,56.526666666666664,5.2299999999999995,64.69442745884731
1361379637.25,0.6377292916666666,33.63916666666667,56.50250001237333,4.490390625,64.69060414840278
1361379637.5,0.6379427916666667,33.637499999999996,56.47833333333333,3.6411979166666666,64.68698212554574
1361379637.75,0.6382097083333332,33.63583333333333,56.45416665429333,2.675234375,64.68541265922217
1361379638.0,0.6385300416666666,33.634166666666665,56.43,2.046119791666667,64.68674139794453
1361379638.25,0.6387435416666666,33.6325,56.406666678613334,2.018828125,64.68589635061383
1361379638.5,0.6389570833333332,33.630833333333335,56.38333333333333,1.7970052083333334,64.68529277628076
