timestamp,EDA,TEMP,HR,BVP,ACC_mag
1361382569.0,1.807342,33.45,,11.168333333333335,61.50222192739972
1361382569.25,1.8744102142857142,33.45,,10.560714285714285,61.495799009303596
1361382569.5,1.95301275,33.45,,10.105,61.48704348553672
1361382569.75,2.0192907222222223,33.45,,9.354791666666666,61.48593864218726
1361382570.0,2.07263345,33.45,,8.51803125,61.49120519400522
1361382570.25,2.1163357727272727,33.45,,7.788039772727273,61.502936427971285
1361382570.5,2.15280775,33.45,,7.165729166666666,61.5067114505165
1361382570.75,2.24928175,33.450833333333335,,6.6521875,61.51529091246374
1361382571.0,2.3276540833333335,33.45250000000001,,6.101015625,61.53948461505967
1361382571.25,2.39265375,33.454166666666666,,5.0604427083333325,61.56550552897877
1361382571.5,2.4442273333333335,33.45583333333334,,3.486822916666666,61.579381762688314
1361382571.75,2.4894155833333333,33.4575,,2.39390625,61.580479642372914
1361382572.0,2.5284320833333336,33.45916666666667,,1.6717708333333332,61.582549414683065
1361382572.25,2.5522244583333333,33.46083333333333,,1.10328125,61.60420233102565
1361382572.5,2.5571492499999997,33.4625,,0.49096354166666667,61.62928151612411
1361382572.75,2.558217041666667,33.464166666666664,,0.3227083333333333,61.6492812329113
1361382573.0,2.558964458333333,33.465833333333336,,0.4976302083333333,61.66128311046148
1361382573.25,2.5596050416666665,33.467499999999994,,0.578125,61.66289066596158
1361382573.5,2.560032083333333,33.469166666666666,,1.1753645833333333,61.67265359008831
1361382573.75,2.560299,33.47,,2.0111979166666667,61.672950756766745
1361382574.0,2.5603523333333333,33.47,,2.877916666666667,61.67295075676676
1361382574.25,2.5602455,33.47,,3.74546875,61.67366887772235
1361382574.5,2.560031916666667,33.47,,4.616666666666666,61.67941384536716
1361382574.75,2.5598183333333333,33.47,,5.507369791666666,61.68980590097217
1361382575.0,2.5593377916666666,33.47,,6.367057291666666,61.69922606395162
1361382575.25,2.558803875,33.47,,7.193880208333333,61.69922606395162
1361382575.5,2.5582699583333333,33.47,,8.088567708333333,61.69842535199228
1361382575.75,2.557682666666667,33.47,,8.777109375,61.69842535199228
1361382576.0,2.5571487916666666,33.47,,9.179921875,61.70129783581468
1361382576.25,2.5566149583333337,33.47,,9.788697916666667,61.70776092441508
1361382576.5,2.556187916666667,33.47,,9.842109375,61.71797016230746
1361382576.75,2.5557608333333337,33.47,,9.456276041666667,61.726747977035394
1361382577.0,2.5553337500000004,33.47,,8.867135416666667,61.73955936838491
1361382577.25,2.554906666666667,33.47,,7.838359375,61.752370759734426
1361382577.5,2.5541058750000003,33.47,,7.226822916666666,61.76518215108394
1361382577.75,2.5527712083333336,33.47083333333334,,7.097604166666667,61.780558890494916
1361382578.0,2.5512229583333332,33.4725,,6.882994791666667,61.806647978954096
1361382578.25,2.5495679166666667,33.47416666666667,,6.524427083333333,61.838280415385306
1361382578.5,2.5476459166666667,33.475833333333334,,5.550598958333333,61.86856914524071
1361382578.75,2.5455637083333333,33.4775,,3.961119791666667,61.89079481982367
1361382579.0,2.543428125,33.479166666666664,88.75,2.504895833333333,61.90713864895011
1361382579.25,2.54118575,33.48083333333334,88.97916654933333,1.21328125,61.9198639200982
1361382579.5,2.538462875,33.4825,89.20833333333334,-0.23028645833333328,61.915987185965776
1361382579.75,2.535312916666667,33.48333333333334,89.43750011733334,-1.2440104166666666,61.92033133003241
1361382580.0,2.5318960416666667,33.483333333333334,89.66666666666667,-1.253359375,61.91236820669493
1361382580.25,2.528265625,33.48333333333334,91.37499912533333,-0.9066666666666667,61.8990908002417
1361382580.5,2.524795333333333,33.483333333333334,93.08333333333334,-1.1372135416666667,61.8893150759317
1361382580.75,2.5213784166666664,33.482499999999995,94.79166754133334,-2.2079427083333334,61.875536028846234
1361382581.0,2.517908125,33.48083333333333,96.5,-3.3511458333333333,61.83583950584287
1361382581.25,2.5143844583333332,33.479166666666664,97.7999993344,-3.528619791666667,61.78865571564689
1361382581.5,2.5107006666666667,33.4775,99.1,-2.9310416666666668,61.74281563202672
1361382581.75,2.506910125,33.475833333333334,100.4000006656,-1.4084114583333334,61.70503860367899
1361382582.0,2.503012791666667,33.47416666666667,101.7,0.2862499999999999,61.673143420787774
1361382582.25,2.4991154583333333,33.4725,104.21416537941333,1.613020833333333,61.653955592926565
1361382582.5,2.4956452083333334,33.47083333333333,106.72833333333332,3.2610677083333335,61.64585210930454
1361382582.75,2.4925486666666665,33.47083333333333,109.24250128725333,4.712291666666666,61.631677291603495
1361382583.0,2.4892919583333333,33.472500000000004,111.75666666666666,5.287213541666667,61.62074931799578
1361382583.25,2.4858750416666666,33.47416666666667,113.95916553898667,6.061197916666667,61.615135627503825
1361382583.5,2.4826183333333334,33.475833333333334,116.16166666666666,6.870520833333334,61.60602025486863
1361382583.75,2.4796819583333334,33.4775,118.36416779434666,8.139114583333333,61.59834285694745
1361382584.0,2.4769057500000002,33.479166666666664,120.56666666666666,9.729296875000001,61.60587058589595
1361382584.25,2.4742363333333333,33.48083333333333,122.81833218048,10.299010416666667,61.61534223406505
1361382584.5,2.471940625,33.4825,125.07000000000001,10.700052083333334,61.62481388223413
1361382584.75,2.46996525,33.48458333333334,127.32166781952002,10.698229166666666,61.634285530403226
1361382585.0,2.467989875,33.48708333333334,129.57333333333335,10.473515625,61.64375717857232
1361382585.25,2.4660678750000002,33.489583333333336,131.22083248981335,10.533359375,61.644140029689765
1361382585.5,2.4641458750000003,33.49208333333333,132.86833333333334,10.299817708333334,61.64785330599187
1361382585.75,2.462330625,33.49375,134.51583417685333,9.844010416666666,61.6600055387762
1361382586.0,2.4609425000000003,33.49458333333333,136.16333333333333,9.516692708333332,61.672157771560514
1361382586.25,2.4598213749999998,33.49541666666667,137.40249936554667,9.090625000000001,61.68431000434484
1361382586.5,2.4584866666666665,33.49625,138.64166666666665,8.944114583333333,61.69646223712916
1361382586.75,2.4570451666666666,33.497083333333336,139.88083396778666,8.608567708333334,61.70861446991348
1361382587.0,2.455657083333333,33.49791666666667,141.12,8.059817708333332,61.7207667026978
1361382587.25,2.454322375,33.49875,142.10583282858667,7.712812500000001,61.732918935482125
1361382587.5,2.4529342499999998,33.499583333333334,143.09166666666664,7.351536458333334,61.74507116826644
1361382587.75,2.4513325416666665,33.499583333333334,144.07750050474664,6.939010416666666,61.757223401050766
1361382588.0,2.449677458333333,33.49875,145.0633333333333,6.585286458333333,61.7693756338351
1361382588.25,2.447969,33.49791666666667,145.87416625151997,6.0378645833333335,61.78152786661942
1361382588.5,2.4462071666666665,33.497083333333336,146.68499999999997,5.711901041666667,61.789924674880126
1361382588.75,2.444285208333333,33.496249999999996,147.49583374847998,5.928151041666667,61.78975608199414
1361382589.0,2.4422564583333335,33.495416666666664,148.30666666666664,6.130807291666667,61.78962963732965
1361382589.25,2.440227666666667,33.49458333333333,148.98666631850665,6.0492187500000005,61.78962963732965
1361382589.5,2.438305666666667,33.49375,149.66666666666663,5.6415625,61.78962963732965
1361382589.75,2.436543875,33.492916666666666,150.34666701482664,5.537005208333333,61.78962963732965
1361382590.0,2.4348354166666666,33.49208333333333,151.02666666666664,5.1695312499999995,61.78962963732965
1361382590.25,2.4330735416666665,33.49125,151.60833303552,4.8671875,61.78962963732965
1361382590.5,2.431258291666667,33.49041666666667,152.19,4.867760416666667,61.78962963732965
1361382590.75,2.4294964583333334,33.49041666666667,152.77166696447998,5.259088541666666,61.78962963732965
1361382591.0,2.42768125,33.49125,153.35333333333332,5.292057291666667,61.78962963732963
1361382591.25,2.4256525,33.49208333333333,153.85583307605333,5.555234375,61.78962963732963
1361382591.5,2.4235703333333336,33.492916666666666,154.35833333333335,6.226953124999999,61.78967178555114
1361382591.75,2.42143475,33.493750000000006,154.86083359061334,6.163151041666667,61.789840378437134
1361382592.0,2.4190856249999997,33.49458333333334,155.36333333333334,5.93296875,61.78996682310163
1361382592.25,2.41662975,33.49541666666667,155.81499976874667,6.186588541666667,61.78996682310163
1361382592.5,2.4142272499999997,33.49625,156.26666666666665,6.233411458333333,61.78616925035653
1361382592.75,2.411824708333333,33.497083333333336,156.71833356458666,5.435833333333332,61.77401701757221
1361382593.0,2.409368833333333,33.49791666666667,157.17,4.661484375,61.76186478478789
1361382593.25,2.406966375,33.49875,157.56583313066665,3.7630729166666668,61.74928996133019
1361382593.5,2.4046706666666666,33.499583333333334,157.96166666666664,2.51578125,61.7360390373164
1361382593.75,2.402481708333333,33.50125,158.35750020266667,1.139973958333333,61.72388680453208
1361382594.0,2.400239375,33.50375,158.75333333333333,0.6828906249999998,61.71173457174776
1361382594.25,2.3979970416666663,33.50625,159.01333320021334,-0.17708333333333356,61.70101707161848
1361382594.5,2.3958080833333333,33.50875,159.2733333333333,-1.7079687500000003,61.6902995714892
1361382594.75,2.3937792916666667,33.511250000000004,159.5333334664533,-2.961197916666667,61.67814733870487
1361382595.0,2.3920708333333334,33.513749999999995,159.79333333333332,-4.070546875000001,61.6710166702132
1361382595.25,2.3905225416666664,33.51625,159.91333327189332,-5.521614583333332,61.66388600172153
1361382595.5,2.3890276666666668,33.518750000000004,160.0333333333333,-6.4246614583333335,61.663801687334534
1361382595.75,2.387372625,33.52125,160.1533333947733,-6.226744791666667,61.67527954857488
1361382596.0,2.3855573750000003,33.52375,160.2733333333333,-5.6171875,61.68738946762337
1361382596.25,2.3836353333333333,33.52625,160.21250003114665,-4.670703125,61.7027847978062
1361382596.5,2.3813395833333337,33.52875,160.15166666666664,-3.546197916666667,61.73034342270005
1361382596.75,2.3787235416666666,33.53,160.09083330218664,-2.7966406249999998,61.74695550843924
1361382597.0,2.376321041666667,33.53,160.02999999999997,-2.5600520833333333,61.768617785970385
1361382597.25,2.3741320833333335,33.53,159.90000006655998,-1.813203125,61.778660914555694
1361382597.5,2.3719431666666666,33.53,159.76999999999998,-1.1983593750000001,61.788704043140996
1361382597.75,2.3697542916666667,33.53,159.63999993343998,0.06872395833333335,61.80018190438134
1361382598.0,2.367512,33.53,159.51,1.43765625,61.806638201329044
1361382598.25,2.3651629166666663,33.53,159.32833342634666,2.975729166666667,61.814104536635135
1361382598.5,2.3627070416666665,33.53,159.14666666666665,4.325677083333333,61.8223622440152
1361382598.75,2.360464708333333,33.53,158.96499990698663,4.953177083333334,61.827412435807155
1361382599.0,2.358275791666667,33.53,158.7833333333333,5.632916666666667,61.82678037799901
1361382599.25,2.355819916666667,33.53,158.63000007850664,5.959453125,61.8232854997299
1361382599.5,2.3535775833333332,33.53,158.47666666666663,5.929270833333334,61.80830342730587
1361382599.75,2.3515487916666666,33.53,158.32333325482665,6.409973958333334,61.80316920280703
1361382600.0,2.3493064166666664,33.53,158.17,6.67046875,61.787412816530974
1361382600.25,2.3467971249999997,33.53,158.03000007167998,6.4328385416666665,61.772554229903626
1361382600.5,2.3441810833333334,33.53,157.89,6.593541666666667,61.76698225991837
1361382600.75,2.3415116250000003,33.53,157.74999992832,6.158880208333334,61.75773779149778
1361382601.0,2.338788791666667,33.53,157.60999999999999,5.5378645833333335,61.747733254298964
1361382601.25,2.3361193333333334,33.53,157.48833339562665,5.016901041666666,61.73380624908464
1361382601.5,2.333449875,33.53,157.36666666666665,4.434505208333333,61.71583909043676
1361382601.75,2.3305669166666667,33.53,157.24499993770667,4.170442708333333,61.69593031201746
1361382602.0,2.3276305416666667,33.53,157.12333333333333,3.6196354166666667,61.68107172539012
1361382602.25,2.3250145,33.53,157.04583337301332,3.091666666666667,61.66625540896043
1361382602.5,2.322505291666667,33.53,156.96833333333333,2.9447916666666667,61.65148136272841
1361382602.75,2.319835916666667,33.53,156.89083329365334,2.484713541666667,61.64353978232487
1361382603.0,2.3172199166666667,33.53,156.81333333333333,2.2399999999999998,61.66022217425242
1361382603.25,2.3149775833333335,33.53,156.79416667648,2.3623177083333333,61.68348973822474
1361382603.5,2.312895375,33.53,156.775,2.3990104166666666,61.67441447257098
1361382603.75,2.3108665833333335,33.52875,156.75583332352002,2.607161458333333,61.68149119045817
1361382604.0,2.3088911666666667,33.526250000000005,156.73666666666668,2.8353645833333334,61.7077403740981
1361382604.25,2.306969125,33.52375,156.79916663466668,2.7994791666666665,61.736901987395164
1361382604.5,2.305153875,33.52125,156.86166666666668,2.8276041666666667,61.76597956798533
1361382604.75,2.303445416666667,33.52,156.92416669866665,2.6941666666666673,61.80446623137695
1361382605.0,2.3015768333333333,33.52,156.98666666666665,2.8269531249999997,61.85226580652641
1361382605.25,2.2994412916666667,33.52,157.08833328128,2.9713020833333332,61.90002311147821
1361382605.5,2.2973590833333333,33.52,157.19,2.8565364583333337,61.947738146232325
1361382605.75,2.2954370416666667,33.52,157.29166671872,3.0331770833333334,61.98862071515797
1361382606.0,2.293621791666667,33.52,157.39333333333335,3.0225781250000003,62.0104512817378
1361382606.25,2.2918599583333332,33.52,157.51999993514667,2.9063541666666666,62.03498329291492
1361382606.5,2.289938,33.52,157.64666666666668,2.9582552083333336,62.082571517076055
1361382606.75,2.287855875,33.52125,157.77333339818668,2.5710416666666664,62.11768025613157
1361382607.0,2.28577375,33.52375,157.9,2.1657812499999998,62.134376598212555
1361382607.25,2.2836382499999996,33.52625,158.02249993728,1.9230468749999998,62.15107294029354
1361382607.5,2.2815561250000003,33.52875,158.14499999999998,1.6781510416666665,62.16785331508142
1361382607.75,2.2795273333333332,33.53,158.26750006272,1.8706250000000002,62.177166226839255
1361382608.0,2.2778188333333333,33.53,158.39,1.90359375,62.177166226839255
1361382608.25,2.276377333333333,33.53,158.51833326762664,2.1486197916666665,62.177166226839255
1361382608.5,2.2746155416666665,33.53,158.64666666666665,2.3910416666666667,62.177166226839255
1361382608.75,2.2725867916666664,33.53,158.77500006570668,1.9663281249999998,62.17611745341501
1361382609.0,2.2703444999999998,33.53,158.90333333333334,1.8477864583333334,62.17611745341501
1361382609.25,2.26783525,33.53,159.02916660224,1.6818229166666665,62.17297113314228
1361382609.5,2.2655395,33.53,159.155,1.1391666666666667,62.17297113314228
1361382609.75,2.263403916666667,33.53,159.28083339776,1.2605208333333333,62.17297113314228
1361382610.0,2.2611615833333336,33.53,159.40666666666667,1.6550260416666667,62.17297113314228
1361382610.25,2.2588124583333333,33.53,159.51999994197334,1.70046875,62.167727266021075
1361382610.5,2.2562497916666664,33.53,159.63333333333333,1.9608333333333334,62.15094689123319
1361382610.75,2.253687166666667,33.53,159.7466667246933,1.8327864583333333,62.13416651644531
1361382611.0,2.2510711666666667,33.53,159.85999999999999,1.5502083333333332,62.11738614165743
1361382611.25,2.2482415833333333,33.53,159.9591666158933,1.4181770833333331,62.10060576686954
1361382611.5,2.245678916666667,33.53,160.05833333333334,1.4980208333333331,62.08487416550591
1361382611.75,2.24349,33.53,160.15750005077334,2.1363541666666666,62.08172784523317
1361382612.0,2.2416213750000002,33.53,160.25666666666666,2.8158333333333334,62.077532751536204
1361382612.25,2.2399662916666667,33.53,160.34083329024,3.5941145833333334,62.07648397811197
1361382612.5,2.2381510833333333,33.53,160.425,4.624791666666666,62.06180115017256
1361382612.75,2.2362290833333334,33.53,160.50916670976,5.3062499999999995,62.04502077538468
1361382613.0,2.234307083333333,33.53,160.59333333333333,5.8183854166666675,62.02824040059681
1361382613.25,2.232331708333333,33.53,160.65916663296,6.639765625,62.02404530689983
1361382613.5,2.2305164583333332,33.53,160.725,7.158463541666667,62.040825681687714
1361382613.75,2.2285944166666667,33.53,160.79083336704,7.646432291666667,62.0576060564756
1361382614.0,2.2264588333333335,33.53,160.85666666666665,8.304375,62.07438643126347
1361382614.25,2.224269875,33.53,160.90249997653333,8.544479166666667,62.091166806051355
1361382614.5,2.2219741666666666,33.53,160.94833333333332,8.655104166666666,62.106898407415
1361382614.75,2.2197318333333333,33.53,160.9941666901333,8.812109375,62.10698524376429
1361382615.0,2.2174894999999997,33.53,161.04,8.739374999999999,62.11118033746126
1361382615.25,2.2153005833333332,33.53,161.07249998336,8.427630208333333,62.115375431158235
1361382615.5,2.2133252083333335,33.53,161.105,8.112994791666667,62.13005825909764
1361382615.75,2.2115099583333335,33.53,161.13750001664,7.802578125,62.1455804350122
1361382616.0,2.209854875,33.53,161.17,7.327552083333333,62.15292852918148
1361382616.25,2.208413375,33.53,161.19749998592,6.9718229166666665,62.14591393767977
1361382616.5,2.206971916666667,33.53,161.225,6.750572916666666,62.09553056784815
1361382616.75,2.205744,33.530833333333334,161.25250001408,6.391276041666665,62.0305665109556
1361382617.0,2.2047830000000004,33.532500000000006,161.28,6.198541666666666,61.98593415137404
1361382617.25,2.203982125,33.534166666666664,161.30333332138667,6.188098958333334,61.9343697402335
1361382617.5,2.20318125,33.535833333333336,161.32666666666665,6.246822916666667,61.88115605611525
1361382617.75,2.202327,33.5375,161.35000001194666,6.186223958333334,61.83137381553138
1361382618.0,2.201526166666667,33.53916666666667,161.37333333333333,5.9379687500000005,61.7583426087891
1361382618.25,2.2006185416666666,33.54083333333333,161.39583332181334,6.170442708333333,61.673888317676834
1361382618.5,2.19955075,33.5425,161.41833333333335,6.407578125000001,61.58943402656457
1361382618.75,2.198429625,33.54416666666666,161.44083334485333,6.675963541666666,61.50747028327637
1361382619.0,2.1972017083333335,33.545833333333334,161.46333333333334,7.271666666666666,61.45835308239069
1361382619.25,2.195867,33.54749999999999,161.48166665728002,7.498046875,61.41341884218358
1361382619.5,2.1945856666666668,33.549166666666665,161.5,7.720364583333333,61.40910730204632
1361382619.75,2.193250958333333,33.55,161.51833334271998,8.164661458333333,61.414759589731055
1361382620.0,2.191969625,33.55,161.53666666666666,8.427005208333332,61.396690656388095
1361382620.25,2.190795083333333,33.55,161.54999999317334,8.512447916666666,61.3855537746041
1361382620.5,2.1896205416666663,33.55,161.56333333333333,8.292786458333333,61.3760661657978
1361382620.75,2.1883392083333333,33.55,161.57666667349332,8.048958333333333,61.36725537080483
1361382621.0,2.1870045,33.55,161.59,7.957916666666666,61.37758528462257
1361382621.25,2.1856697916666668,33.55,161.59583333034666,7.436458333333333,61.399338282810305
1361382621.5,2.1843884583333333,33.55,161.60166666666666,6.912057291666666,61.421091280998034
1361382621.75,2.1831605,33.55,161.60750000298665,6.205755208333333,61.44161193023502
1361382622.0,2.1820393333333334,33.55,161.61333333333332,5.220182291666666,61.43746011881476
1361382622.25,2.1809715416666666,33.55,161.61499999914665,4.5178125,61.43614661841723
1361382622.5,2.179850333333333,33.55,161.61666666666667,3.705911458333333,61.428140235461576
1361382622.75,2.1787825,33.55,161.61833333418667,2.8062500000000004,61.42767311020637
1361382623.0,2.1777680833333335,33.55,161.62,2.0484635416666666,61.441221914281904
1361382623.25,2.1768604583333335,33.55,161.62166666581334,1.435625,61.454770718357445
1361382623.5,2.176166375,33.55,161.62333333333333,1.3130989583333335,61.46671070840153
1361382623.75,2.1756324583333337,33.55,161.62500000085333,1.1468229166666666,61.47623747739839
1361382624.0,2.1749917500000002,33.55,161.62666666666667,1.065859375,61.4889818744582
1361382624.25,2.174244291666667,33.55,161.64249999189335,1.0826041666666666,61.49189638543706
1361382624.5,2.1734434583333333,33.55,161.65833333333333,1.0671354166666667,61.46878074152847
1361382624.75,2.1725892083333336,33.55,161.67416667477332,1.260390625,61.44566509761987
1361382625.0,2.171788333333333,33.55,161.69,1.5848177083333335,61.4225494537113
1361382625.25,2.1710942500000003,33.55,161.71666665301333,1.8228125000000002,61.39943380980271
1361382625.5,2.1704002083333336,33.55,161.74333333333334,2.266015625,61.37631816589411
1361382625.75,2.169546,33.55083333333333,161.77000001365332,2.806953125,61.350280123524016
1361382626.0,2.168745166666667,33.552499999999995,161.79666666666665,3.117942708333333,61.313615675539886
1361382626.25,2.1678909583333335,33.55416666666667,161.83333331456,3.5038541666666667,61.27695122755576
1361382626.5,2.16703675,33.55583333333333,161.87,3.5441927083333336,61.2418955936031
1361382626.75,2.1661825416666667,33.5575,161.90666668544,3.6529427083333332,61.20925318069764
1361382627.0,2.1653817083333338,33.55916666666666,161.94333333333336,3.9187760416666664,61.17339313972925
1361382627.25,2.1648478333333334,33.560833333333335,161.97999998122668,4.067760416666666,61.14736298484179
1361382627.5,2.164474125,33.5625,162.01666666666668,4.4159375,61.14736298484179
1361382627.75,2.1642072083333335,33.564166666666665,162.05333335210668,4.480130208333334,61.14736298484179
1361382628.0,2.1638869166666668,33.56583333333333,162.09,4.278489583333333,61.14736298484179
1361382628.25,2.163459833333333,33.5675,162.13166664533333,4.4754427083333335,61.14927754333116
1361382628.5,2.163086125,33.56916666666667,162.17333333333335,4.2716666666666665,61.15502121879928
1361382628.75,2.162819208333333,33.57,162.21500002133334,4.088958333333333,61.16523219740926
1361382629.0,2.16233875,33.57,162.25666666666666,4.250078125,61.175443176019236
1361382629.25,2.161698125,33.57,162.29999997781331,3.9684635416666665,61.1850159684661
1361382629.5,2.16095075,33.57,162.3433333333333,3.911979166666667,61.190121457771085
1361382629.75,2.1601499583333337,33.57,162.38666668885332,3.7642708333333332,61.19969425021795
1361382630.0,2.1592957916666666,33.57,162.42999999999998,3.3551822916666665,61.20990522882792
1361382630.25,2.158281458333333,33.57,162.47416664405333,3.1548958333333332,61.220116207437904
1361382630.5,2.1571069583333333,33.57,162.51833333333332,2.696276041666667,61.23032718604788
1361382630.75,2.1555587083333334,33.57,162.5625000226133,2.6379687499999998,61.24053816465786
1361382631.0,2.15385025,33.57,162.60666666666665,3.04828125,61.25074914326785
1361382631.25,2.1521952083333336,33.57,162.65749997397333,2.783541666666667,61.25904556338845
1361382631.5,2.1501664583333335,33.57,162.70833333333331,3.1004166666666664,61.26351286653033
1361382631.75,2.1478173333333337,33.57,162.7591666926933,3.4375260416666666,61.26351286653033
1361382632.0,2.145521583333333,33.57,162.80999999999997,3.2193229166666666,61.26351286653033
1361382632.25,2.143225833333333,33.57,162.87333330090664,3.787395833333333,61.26415105269345
1361382632.5,2.1407165000000004,33.57,162.93666666666664,4.196223958333333,61.26925654199843
1361382632.75,2.1380470416666664,33.57,163.00000003242664,4.781901041666667,61.26989472816156
1361382633.0,2.1353775833333333,33.57,163.0633333333333,5.601302083333334,61.26989472816156
1361382633.25,2.1327080833333336,33.57,163.13583329621332,6.281692708333334,61.26989472816156
1361382633.5,2.13019875,33.57,163.20833333333331,7.1698958333333325,61.26989472816156
1361382633.75,2.1280097916666665,33.57,163.2808333704533,7.9769010416666655,61.26989472816156
1361382634.0,2.125927666666667,33.57,163.35333333333332,8.407213541666666,61.26989472816156
1361382634.25,2.123792125,33.57,163.42666662912,9.199114583333333,61.26989472816156
1361382634.5,2.121709958333333,33.57,163.5,9.709427083333333,61.27150578308448
1361382634.75,2.119681208333333,33.57,163.57333337088,10.064869791666666,61.287710811269726
1361382635.0,2.1177058333333334,33.57,163.64666666666668,10.81859375,61.31432530228458
1361382635.25,2.1157304583333336,33.57,163.71416663210667,10.931041666666665,61.34010218105133
1361382635.5,2.113808458333333,33.57,163.78166666666667,11.005755208333333,61.36587905981809
1361382635.75,2.1119932083333333,33.57083333333333,163.84916670122666,11.193020833333334,61.39165593858484
1361382636.0,2.11028475,33.5725,163.91666666666666,11.110390624999999,61.41743281735159
1361382636.25,2.1086297083333334,33.57416666666666,163.98166663338665,10.984348958333333,61.44531725651358
1361382636.5,2.106867916666667,33.575833333333335,164.04666666666665,10.943645833333335,61.47109413528033
1361382636.75,2.1051061250000003,33.5775,164.11166669994665,10.621979166666668,61.49687101404709
1361382637.0,2.1033442916666663,33.57916666666667,164.17666666666665,10.361953125,61.52264789281384
1361382637.25,2.1015290833333333,33.58083333333334,164.33916658346664,10.249244791666667,61.541440056771364
1361382637.5,2.0999274166666666,33.5825,164.50166666666664,9.879947916666667,61.5560812695117
1361382637.75,2.0985392916666665,33.58416666666667,164.66416674986664,9.668671875,61.55549353491614
1361382638.0,2.09688425,33.58583333333333,164.82666666666663,9.402526041666667,61.54640125971167
1361382638.25,2.0950690416666666,33.5875,165.1474998357333,9.24765625,61.538146596755304
1361382638.5,2.093200458333333,33.58916666666667,165.4683333333333,9.377239583333333,61.5286219856518
1361382638.75,2.0911717083333334,33.59,165.7891668309333,9.245729166666667,61.51973234862188
1361382639.0,2.0890895833333336,33.59,166.10999999999999,9.144765625,61.51655747825404
1361382639.25,2.086687125,33.59,166.42833317034666,9.303567708333334,61.50937012527027
1361382639.5,2.0839642916666667,33.59,166.74666666666667,9.121953125,61.50746520304958
1361382639.75,2.081134666666667,33.59,167.06500016298665,9.095442708333334,61.50746520304958
1361382640.0,2.078305041666667,33.59,167.38333333333333,9.230416666666667,61.50746520304958
1361382640.25,2.0755287916666667,33.59,167.75333314389331,9.010494791666668,61.514449917858805
1361382640.5,2.0726991666666668,33.59,168.12333333333333,9.244661458333333,61.523974528962306
1361382640.75,2.069816166666667,33.590833333333336,168.49333352277333,9.599270833333334,61.53413411413937
1361382641.0,2.0670399583333334,33.5925,168.86333333333332,9.949348958333333,61.53667401043364
1361382641.25,2.064477291666667,33.59416666666667,169.05499990186664,10.7084375,61.533793007363585
1361382641.5,2.0621815833333335,33.59583333333334,169.24666666666664,11.224791666666668,61.52827762904325
1361382641.75,2.060099458333333,33.597500000000004,169.43833343146665,11.700078125,61.52310335749869
1361382642.0,2.0579639166666666,33.59916666666667,169.62999999999997,12.366406249999999,61.5063578341959
1361382642.25,2.055828333333333,33.600833333333334,169.79833324714664,12.804765625,61.485660748017686
1361382642.5,2.053906291666667,33.6025,169.96666666666664,13.306380208333332,61.46178879147163
1361382642.75,2.0520910416666664,33.604166666666664,170.13500008618664,13.828203125,61.43601191270486
1361382643.0,2.0502224166666667,33.60583333333333,170.3033333333333,14.029036458333332,61.410235033938115
1361382643.25,2.0482470416666665,33.6075,170.28666667519997,14.403072916666666,61.3903146402675
1361382643.5,2.0462716666666667,33.60916666666667,170.26999999999998,14.567812499999997,61.3800133366564
1361382643.75,2.0443496666666667,33.61,170.2533333248,14.530026041666666,61.37840228173348
1361382644.0,2.0425878333333336,33.61,170.23666666666665,14.48828125,61.384117048395574
1361382644.25,2.0409861666666664,33.61,170.21583334399998,14.138255208333332,61.39525271442201
1361382644.5,2.039437875,33.61,170.195,13.774687499999999,61.41029270384584
1361382644.75,2.0378361666666667,33.61,170.174166656,13.542578124999999,61.4244834564395
1361382645.0,2.0362344583333334,33.61,170.15333333333334,13.225781249999999,61.44440385011014
1361382645.25,2.034953125,33.61,170.13333334357333,12.710833333333333,61.47018072887689
1361382645.5,2.0337252083333333,33.61,170.11333333333334,12.312005208333334,61.49595760764364
1361382645.75,2.0322837083333334,33.61083333333334,170.09333332309333,11.95734375,61.521734486410395
1361382646.0,2.030842208333333,33.612500000000004,170.07333333333332,11.626458333333334,61.54763820919633
1361382646.25,2.0294540833333334,33.61416666666667,170.06166667263997,11.464557291666667,61.567558602866946
1361382646.5,2.028119333333333,33.615833333333335,170.04999999999998,11.271822916666666,61.57785990647805
1361382646.75,2.026838,33.6175,170.03833332736,10.899895833333334,61.57947096140097
1361382647.0,2.0255032916666664,33.619166666666665,170.02666666666664,10.748984375,61.57947096140098
1361382647.25,2.0240617916666666,33.62083333333333,170.01500000597332,10.504583333333334,61.57947096140097
1361382647.5,2.0225135,33.6225,170.00333333333333,10.249895833333333,61.57947096140097
1361382647.75,2.021018625,33.624166666666675,169.9916666606933,10.130911458333333,61.579344117381794
1361382648.0,2.0196839166666667,33.62583333333334,169.98,9.851510416666667,61.57934411738179
1361382648.25,2.0184025833333332,33.627500000000005,169.96500000767998,9.887473958333333,61.579344117381794
1361382648.5,2.0171746249999996,33.62916666666667,169.95,9.731822916666667,61.579344117381794
1361382648.75,2.016106833333333,33.62916666666667,169.93499999232,9.202135416666666,61.579344117381794
1361382649.0,2.0151458333333334,33.627500000000005,169.92,9.26375,61.57921727336261
1361382649.25,2.0139712916666666,33.62583333333333,169.90333334186664,8.858463541666667,61.57921727336261
1361382649.5,2.0125298333333332,33.62416666666667,169.88666666666666,8.507708333333333,61.57921727336261
1361382649.75,2.011034958333333,33.6225,169.86999999146667,8.635546875000001,61.57921727336261
1361382650.0,2.0095400416666664,33.62083333333334,169.85333333333332,8.127838541666666,61.57921727336261
1361382650.25,2.00799175,33.61916666666667,169.83666667519998,8.023177083333334,61.57921727336261
1361382650.5,2.0063900833333332,33.6175,169.82,7.936119791666666,61.57921727336261
1361382650.75,2.0047884166666665,33.615833333333335,169.8033333248,7.418125,61.57921727336261
1361382651.0,2.00318675,33.61416666666667,169.78666666666666,7.221119791666666,61.57921727336261
1361382651.25,2.001585083333333,33.612500000000004,169.77416667306665,6.7940625,61.57921727336261
1361382651.5,1.9999300416666668,33.61083333333333,169.76166666666666,6.7577864583333325,61.57921727336261
1361382651.75,1.9979546666666665,33.61083333333333,169.74916666026667,7.145130208333334,61.57921727336261
1361382652.0,1.9957123333333333,33.6125,169.73666666666665,6.914192708333334,61.57921727336261
1361382652.25,1.9936835416666667,33.61416666666667,169.73000000341332,7.387421875,61.5666347946401
1361382652.5,1.9918682916666668,33.615833333333335,169.7233333333333,7.5140104166666655,61.548333007407365
1361382652.75,1.9899996666666666,33.6175,169.7166666632533,7.337890625,61.53003122017463
1361382653.0,1.9880776666666666,33.619166666666665,169.70999999999998,7.878359375000001,61.5117294329419
1361382653.25,1.9862090833333335,33.62083333333334,169.70750000127998,7.681119791666666,61.493427645709154
1361382653.5,1.9845006666666667,33.6225,169.70499999999998,7.624166666666667,61.47626972017847
1361382653.75,1.9828456250000002,33.62416666666667,169.70249999872,7.802760416666666,61.459829915603386
1361382654.0,1.9811905833333334,33.62583333333333,169.7,7.775052083333333,61.4638719202624
1361382654.25,1.9795889166666667,33.6275,169.70249999872,8.092890624999999,61.475361855552
1361382654.5,1.9780940416666664,33.62916666666667,169.70499999999998,7.993854166666668,61.48685179084162
1361382654.75,1.9770796666666668,33.63,169.70750000128,7.862239583333333,61.49834172613122
1361382655.0,1.976385625,33.63,169.71,8.003020833333332,61.50983166142083
1361382655.25,1.9759051250000004,33.63,169.76833330346668,7.396614583333332,61.53390407543295
1361382655.5,1.9755847916666667,33.63,169.82666666666665,7.141692708333334,61.56369579795528
1361382655.75,1.97537125,33.63,169.88500002986663,6.9289322916666665,61.59348752047763
1361382656.0,1.975317875,33.63,169.9433333333333,6.331302083333333,61.62327924299996
1361382656.25,1.97537125,33.63,170.05749994154664,6.2679687500000005,61.65307096552231
1361382656.5,1.9754246249999998,33.63,170.17166666666665,5.667005208333333,61.6817188263426
1361382656.75,1.97537125,33.63,170.28583339178667,5.194296875,61.704788768155815
1361382657.0,1.9751577083333334,33.63,170.4,4.815520833333333,61.697657304631925
1361382657.25,1.9748373750000001,33.63,170.56416658261332,4.115572916666667,61.68210595086716
1361382657.5,1.9746238333333335,33.63,170.72833333333332,3.7837760416666666,61.654984297486855
1361382657.75,1.974250125,33.63,170.89250008405332,3.217630208333333,61.62519257496452
1361382658.0,1.9738230416666667,33.63,171.05666666666664,2.6696875,61.595400852442175
1361382658.25,1.9732357916666665,33.63,171.21749991765333,2.6215104166666667,61.56560912991983
1361382658.5,1.9725417500000002,33.63,171.37833333333333,2.6112239583333334,61.535817407397495
1361382658.75,1.9717942916666669,33.63,171.53916674901333,2.68390625,61.50602568487514
1361382659.0,1.9709400416666665,33.63,171.70000000000002,2.6288020833333334,61.47623396235281
1361382659.25,1.9700324166666665,33.63,171.85666658645334,2.7017708333333332,61.44644223983045
1361382659.5,1.969124791666667,33.63,172.01333333333332,3.369765625,61.41665051730812
1361382659.75,1.9682171666666666,33.630833333333335,172.1700000802133,4.004921875,61.391718592837265
1361382660.0,1.9674697083333335,33.6325,172.32666666666663,4.6890625,61.37650626446939
1361382660.25,1.96650875,33.634166666666665,172.4849999189333,5.425182291666666,61.36226589571183
1361382660.5,1.9652274166666668,33.63583333333333,172.64333333333332,5.9128645833333335,61.379749889552095
1361382660.75,1.9639460833333333,33.6375,172.80166674773332,6.584062500000001,61.39787809675085
1361382661.0,1.962344416666667,33.63916666666667,172.96,7.065755208333333,61.41211846550842
1361382661.25,1.9604224166666668,33.64083333333333,173.11833325226667,7.344453125,61.43510647075868
1361382661.5,1.958393625,33.6425,173.27666666666667,7.463541666666667,61.461982314450125
1361382661.75,1.9563648333333334,33.64416666666666,173.43500008106668,7.465729166666666,61.49177403697248
1361382662.0,1.9544428333333335,33.645833333333336,173.59333333333333,7.769973958333334,61.52156575949481
1361382662.25,1.9525742083333333,33.6475,173.75749991594665,7.669895833333334,61.55135748201716
1361382662.5,1.950705583333333,33.649166666666666,173.92166666666668,7.566666666666667,61.58114920453949
1361382662.75,1.9489437083333334,33.65,174.08583341738668,7.368776041666667,61.60413720978976
1361382663.0,1.9471818333333335,33.65,174.25,6.970989583333334,61.62129345737822
1361382663.25,1.9459408333333332,33.65,174.38333326506665,6.703046874999999,61.63553382613579
1361382663.5,1.945274125,33.65,174.51666666666665,6.306822916666667,61.63836776840375
1361382663.75,1.9448209583333333,33.65,174.65000006826665,5.9461458333333335,61.650031283727316
1361382664.0,1.9447415,33.65,174.7833333333333,5.523489583333333,61.66558263749209
1361382664.25,1.9450891666666665,33.65,174.88666661375996,5.059010416666667,61.67238635476417
1361382664.5,1.9456504166666668,33.65,174.98999999999995,4.6090625,61.67635538893264
1361382664.75,1.946318458333333,33.65,175.09333338623998,3.8350781249999994,61.6774085442702
1361382665.0,1.946933125,33.65,175.19666666666663,3.166927083333334,61.69425902967129
1361382665.25,1.9475477916666668,33.65,175.26749996373331,2.666640625,61.711277700933216
1361382665.5,1.9479489166666666,33.65,175.3383333333333,1.9824739583333333,61.73169911380176
1361382665.75,1.9481365000000002,33.65,175.40916670293333,1.1997135416666667,61.76249517140982
1361382666.0,1.9482706666666667,33.65,175.48000000000002,0.6452343749999999,61.80340809964059
1361382666.25,1.9479907083333334,33.65,175.55249996288,-0.1594270833333334,61.84723690670228
1361382666.5,1.9472432499999999,33.65,175.625,-0.7580989583333335,61.88231807727127
1361382666.75,1.9460152916666666,33.65,175.69750003712,-1.2043229166666667,61.910595530568195
1361382667.0,1.9443068333333333,33.65,175.76999999999998,-1.3355989583333336,61.93887298386509
1361382667.25,1.9423314583333333,33.65,175.8416666299733,-1.3398697916666666,61.96715043716201
1361382667.5,1.9402493333333333,33.65,175.9133333333333,-1.1923177083333334,61.99437473512135
1361382667.75,1.9381137916666669,33.65,175.98500003669332,-0.7194010416666666,62.01115690590091
1361382668.0,1.9358180416666666,33.65,176.05666666666664,-0.3686979166666668,61.98226574781605
1361382668.25,1.9332553749999999,33.65,176.12749996373333,-0.05820312500000008,61.95240369235808
1361382668.5,1.9306927083333332,33.65,176.19833333333332,0.2346614583333332,61.919138895293514
1361382668.75,1.9280766249999999,33.65,176.26916670293332,1.08765625,61.88230317076151
1361382669.0,1.9253004166666665,33.65,176.34,1.4960677083333334,61.841182333268584
1361382669.25,1.9225775833333332,33.65,176.41333329578666,2.609635416666667,61.800061495775644
1361382669.5,1.9198013333333332,33.65,176.48666666666668,3.9509375,61.758940658282704
1361382669.75,1.9170785,33.650416666666665,176.56000003754667,4.9578125,61.717819820789764
1361382670.0,1.914622625,33.65125,176.63333333333333,5.946953125,61.67669898329682
1361382670.25,1.9123802916666666,33.65208333333333,176.71416662528,6.812421875000001,61.63557814580388
1361382670.5,1.9101379166666665,33.65291666666666,176.79500000000002,7.567421875,61.59445730831094
1361382670.75,1.907628625,33.65375,176.87583337472,8.501927083333333,61.56377859799779
1361382671.0,1.9050660000000004,33.65458333333333,176.95666666666668,9.244296874999998,61.56297588648554
1361382671.25,1.9027169166666666,33.65541666666667,177.04416662186668,10.055182291666666,61.56297588648554
1361382671.5,1.9004745833333336,33.65625,177.13166666666666,10.905234375,61.56297588648554
1361382671.75,1.8981788750000002,33.65708333333333,177.21916671146664,11.084296875,61.56297588648554
1361382672.0,1.8957763750000003,33.657916666666665,177.30666666666664,11.713776041666668,61.56458130951004
1361382672.25,1.8931069166666668,33.65875,177.41333327872,11.49859375,61.56618673253454
1361382672.5,1.8903307083333332,33.65958333333333,177.51999999999998,10.880286458333332,61.568594867071305
1361382672.75,1.8877146666666667,33.66,177.62666672127997,10.476145833333332,61.568594867071305
1361382673.0,1.885205375,33.66,177.73333333333332,9.697213541666667,61.57020029009581
1361382673.25,1.8826960833333335,33.66,177.85833326933331,9.057942708333334,61.57180571312031
1361382673.5,1.8801868333333334,33.66,177.98333333333332,8.454609375,61.58304367429184
1361382673.75,1.8779445416666665,33.66,178.10833339733333,7.592421874999999,61.589465366389845
1361382674.0,1.8759691666666667,33.66,178.23333333333332,6.767421875,61.595887058487854
1361382674.25,1.8740471666666665,33.66,178.37583326037333,5.934765625000001,61.6087304426839
1361382674.5,1.8722319583333331,33.66,178.51833333333332,5.0753125,61.62157382687993
1361382674.75,1.8707370833333332,33.66,178.6608334062933,4.492135416666667,61.632473291855355
1361382675.0,1.8695625416666666,33.66,178.8033333333333,3.8421354166666664,61.62468174363567
1361382675.25,1.86876175,33.66,178.94916659199998,3.5402864583333336,61.6087980514269
1361382675.5,1.8682812916666667,33.66,179.09499999999997,3.3040885416666668,61.6030377339629
1361382675.75,1.867961,33.66,179.240833408,2.8974739583333338,61.60637242898167
1361382676.0,1.8677475000000001,33.66,179.38666666666666,2.7505208333333333,61.60501306922516
1361382676.25,1.867587375,33.66,179.53499992405332,2.4215104166666666,61.60152611532569
1361382676.5,1.867534,33.66,179.68333333333334,2.0560677083333334,61.563524988723685
1361382676.75,1.867534,33.66,179.83166674261332,1.8003645833333335,61.546708290675234
1361382677.0,1.867534,33.66,179.98,1.6530208333333334,61.544426732880986
1361382677.25,1.8674272083333332,33.66,180.13166658901332,1.6491927083333335,61.51591804799862
1361382677.5,1.867213625,33.66,180.28333333333333,1.4001302083333333,61.47507860083192
1361382677.75,1.8670000416666668,33.66,180.43500007765334,1.1940364583333334,61.44878895772692
1361382678.0,1.8666796666666665,33.66,180.58666666666667,0.8923177083333332,61.47130566614763
1361382678.25,1.86614575,33.66,180.74249992021333,0.4500520833333333,61.500231877359376
1361382678.5,1.8653449166666667,33.66,180.8983333333333,0.023619791666666664,61.50747277413723
1361382678.75,1.864383916666667,33.66,181.0541667464533,-0.3584635416666666,61.50447566037121
1361382679.0,1.8634229166666667,33.66,181.20999999999995,-0.28388020833333333,61.49881182399205
1361382679.25,1.8624619166666667,33.66,181.37583324842663,0.19989583333333338,61.49413065902089
1361382679.5,1.8615009166666667,33.66,181.54166666666663,1.3452083333333331,61.50601572140864
1361382679.75,1.8604865000000002,33.66,181.70750008490663,2.102734375,61.4928372200548
1361382680.0,1.8593652916666665,33.66,181.8733333333333,2.5893489583333333,61.46550604783395
1361382680.25,1.8582975,33.66,182.0483332437333,3.1145052083333336,61.45904251442798
1361382680.5,1.8572831250000001,33.66,182.22333333333333,4.052473958333334,61.47017218831282
1361382680.75,1.8561085833333333,33.660833333333336,182.39833342293335,4.7046874999999995,61.465132580247435
1361382681.0,1.8550942083333333,33.6625,182.57333333333335,5.368541666666666,61.42658824699478
1361382681.25,1.8541865833333333,33.66416666666666,182.75833323861335,6.218489583333334,61.38985400514468
1361382681.5,1.8534391249999997,33.66583333333333,182.94333333333333,7.2700000000000005,61.363666574463934
1361382681.75,1.8527984583333332,33.6675,183.1283334280533,8.498411458333335,61.34145511039606
1361382682.0,1.8521577916666665,33.66916666666666,183.3133333333333,8.978333333333333,61.32542376690097
1361382682.25,1.851517125,33.670833333333334,183.50166657024,9.133177083333333,61.310282513538006
1361382682.5,1.8508230416666667,33.6725,183.69,8.499010416666666,61.30345666737164
1361382682.75,1.8500755833333333,33.674166666666665,183.87833342976,7.9683593749999995,61.30532622546682
1361382683.0,1.8494349166666666,33.67583333333334,184.0666666666667,7.980833333333334,61.306813314174825
1361382683.25,1.848901,33.6775,184.25416657066668,7.584895833333334,61.30723819905803
1361382683.5,1.8483137083333332,33.67916666666667,184.44166666666666,7.013749999999999,61.30189077025637
1361382683.75,1.8477797916666667,33.68,184.62916676266664,6.930651041666667,61.30061660724223
1361382684.0,1.8469255833333333,33.68,184.81666666666663,6.632734375000001,61.30112640806027
1361382684.25,1.846018,33.68,184.9899999112533,6.361197916666666,61.301508758673805
1361382684.5,1.8451103750000002,33.68,185.1633333333333,5.995989583333333,61.30210352629484
1361382684.75,1.844256125,33.68,185.33666675541332,5.2785416666666665,61.30227345990085
1361382685.0,1.8433485,33.68,185.51,5.071380208333333,61.301891160128434
1361382685.25,1.8423340833333333,33.68,185.67249991679998,4.632135416666666,61.30125382428046
1361382685.5,1.8413196666666665,33.68,185.83499999999998,4.213046875,61.29959675107572
1361382685.75,1.8403586666666667,33.68,185.9975000832,4.296848958333333,61.300488591781495
1361382686.0,1.8392909166666664,33.68,186.16,3.527265625,61.301422887651206
1361382686.25,1.8381164166666668,33.68,186.27499994112,3.07671875,61.326579892236964
1361382686.5,1.8369418750000002,33.68,186.39,2.987369791666666,61.35551429662717
1361382686.75,1.835713958333333,33.68,186.50500005888,2.1860416666666667,61.382629901339335
1361382687.0,1.8346461666666665,33.68,186.62,1.79421875,61.41346137039798
1361382687.25,1.833685125,33.68,186.6949999616,1.0849479166666667,61.44289939032669
1361382687.5,1.8328308750000002,33.68,186.76999999999998,0.3262760416666667,61.477446723731816
1361382687.75,1.83192325,33.68,186.8450000384,0.05083333333333332,61.511994057136945
1361382688.0,1.831015625,33.68,186.92,-0.7314322916666667,61.54666885771166
1361382688.25,1.8302147916666665,33.68,186.95083331754665,-0.8452864583333333,61.58202229678155
1361382688.5,1.8294139999999999,33.68,186.98166666666665,-0.6358333333333334,61.618437665662405
1361382688.75,1.828666583333333,33.68,187.01250001578666,-0.7675260416666666,61.65276823762891
1361382689.0,1.8279191666666668,33.68,187.04333333333332,0.1796354166666667,61.69920324867349
1361382689.25,1.8270649583333334,33.68,187.07416665088,0.692265625,61.72903026724907
1361382689.5,1.826157375,33.68,187.105,0.9225260416666666,61.75509105018552
1361382689.75,1.8253565833333336,33.68,187.13583334912,2.0953385416666666,61.8032898339852
1361382690.0,1.8245557916666666,33.68,187.16666666666666,3.1578125000000004,61.85542655874091
1361382690.25,1.8236482083333332,33.68,187.19833331712,4.636380208333334,61.91112938252913
1361382690.5,1.8225804583333332,33.68,187.23,5.793671875,61.9615147914031
1361382690.75,1.8214593333333333,33.68,187.26166668288,6.679479166666667,62.01265162031381
1361382691.0,1.8203381666666667,33.68,187.29333333333332,8.310416666666667,62.059276301942894
1361382691.25,1.8191102083333333,33.68,187.32249998506666,9.221536458333334,62.10523029880065
1361382691.5,1.8177755,33.68,187.35166666666666,9.899765625,62.15314830950543
1361382691.75,1.816280625,33.68,187.38083334826666,10.351796875,62.197467415023574
1361382692.0,1.8148390833333332,33.68,187.41,10.009244791666667,62.23143759486958
1361382692.25,1.813184,33.68,187.42916665685334,10.585911458333333,62.25612056863732
1361382692.5,1.8112085833333331,33.68,187.44833333333332,10.564739583333333,62.282055119349906
1361382692.75,1.809073,33.68,187.4675000098133,9.956015625000001,62.28690964272166
1361382693.0,1.8068840416666665,33.68,187.48666666666665,9.283984375000001,62.28285557340457
1361382693.25,1.8047484999999999,33.68,187.49916666026667,8.535807291666666,62.27658701714552
1361382693.5,1.8027197499999998,33.68,187.51166666666666,8.215572916666668,62.26818309388094
1361382693.75,1.8007977499999999,33.68,187.52416667306665,7.759401041666667,62.247540347779385
1361382694.0,1.7989291666666665,33.68,187.53666666666666,6.777083333333334,62.223943971467605
1361382694.25,1.7971139999999999,33.68,187.54916666026668,6.157734375,62.20005223582714
1361382694.5,1.7954055833333333,33.68,187.56166666666667,5.454895833333333,62.17415429388546
1361382694.75,1.7937505416666666,33.68,187.57416667306666,5.436432291666667,62.1487430753991
1361382695.0,1.792042125,33.68,187.58666666666667,5.528880208333334,62.11947428243778
1361382695.25,1.7906540416666665,33.68,187.60749998933335,4.98890625,62.093349126382755
1361382695.5,1.7896396666666667,33.68,187.62833333333333,5.027187499999999,62.06911916263109
1361382695.75,1.7887320416666668,33.68,187.6491666773333,4.968098958333333,62.0457286151867
1361382696.0,1.7878778333333336,33.68,187.67,4.856432291666667,62.02329862571363
1361382696.25,1.7870770416666668,33.68,187.69666665301332,4.3172395833333335,62.001204702694956
1361382696.5,1.7862228333333334,33.68,187.7233333333333,4.0456770833333335,61.98145424811964
1361382696.75,1.7852084583333336,33.68,187.7500000136533,3.958854166666667,61.97319119634458
1361382697.0,1.7841407083333334,33.68,187.77666666666664,3.793671875,61.97239392206137
1361382697.25,1.7830729166666668,33.68,187.80583331839998,3.6175781249999996,61.97239392206137
1361382697.5,1.7818983333333334,33.68,187.83499999999998,3.4771875,61.97239392206137
1361382697.75,1.780670375,33.68,187.86416668159998,2.99203125,61.975041986796505
1361382698.0,1.7794424166666667,33.68,187.89333333333332,2.714010416666667,61.979749657436734
1361382698.25,1.7782144583333335,33.68,187.92249998506665,2.3295052083333334,61.9829861810019
1361382698.5,1.7769864999999998,33.68,187.95166666666665,2.0784895833333334,61.98357463983192
1361382698.75,1.7757051666666668,33.68,187.98083334826666,1.9369791666666665,61.983574639831936
1361382699.0,1.7743704166666665,33.68,188.01,1.827421875,61.98386886924694
1361382699.25,1.7730890416666665,33.68,188.04166665045332,2.1870572916666666,61.98386886924694
1361382699.5,1.7719144583333335,33.68,188.07333333333332,2.1074479166666666,61.98386886924694
1361382699.75,1.770739875,33.67916666666667,188.10500001621332,2.281145833333333,61.98231368946497
1361382700.0,1.769618666666667,33.6775,188.13666666666666,2.5668229166666667,61.97760601882473
1361382700.25,1.768550875,33.67583333333334,188.17416664746665,2.58140625,61.97289834818451
1361382700.5,1.7675898749999999,33.67416666666667,188.21166666666664,2.5898177083333334,61.96793826710706
1361382700.75,1.7667890416666667,33.6725,188.24916668586664,2.2666145833333333,61.96171613384357
1361382701.0,1.766041625,33.670833333333334,188.28666666666663,2.3192447916666663,61.957008463203344
1361382701.25,1.7652941666666664,33.66916666666666,188.32833331199996,2.4304427083333335,61.94531332377446
1361382701.5,1.7646534999999999,33.6675,188.36999999999995,2.218411458333333,61.94030353711843
1361382701.75,1.7640128333333334,33.66583333333333,188.41166668799997,2.909114583333333,61.94478989696791
1361382702.0,1.7634789583333337,33.66416666666667,188.4533333333333,3.660494791666667,61.9722283680359
1361382702.25,1.762678125,33.662499999999994,188.49916664319997,4.755911458333333,62.01565010420805
1361382702.5,1.7614501666666669,33.660833333333336,188.54499999999996,5.727239583333334,62.07081342553915
1361382702.75,1.7600620416666668,33.66,188.59083335679998,5.091953125000001,62.130436321358665
1361382703.0,1.7583535833333332,33.66,188.63666666666666,4.052578125,62.226587653032986
1361382703.25,1.7560044583333332,33.66,188.6908333056,3.057682291666666,62.346613743377226
1361382703.5,1.7531748333333335,33.66,188.745,2.1565364583333335,62.48995210271432
1361382703.75,1.7497045416666668,33.66,188.7991666944,1.2854427083333333,62.62408644257888
1361382704.0,1.7455935833333334,33.66,188.85333333333332,-0.6859375,62.74436604628587
1361382704.25,1.741429291666667,33.66,188.91083330389333,-2.627786458333333,62.842792602783355
1361382704.5,1.736998041666667,33.66,188.96833333333333,-4.231796875,62.8825777072803
1361382704.75,1.7322464583333332,33.66083333333333,189.02583336277334,-6.938046875,62.91575616599466
1361382705.0,1.7280287500000002,33.662499999999994,189.08333333333334,-9.816848958333333,62.92465711855925
1361382705.25,1.7240780000000002,33.66416666666667,189.1416666368,-13.313255208333333,62.916738501801596
1361382705.5,1.7205543749999999,33.66583333333333,189.2,-16.59375,62.92083411346604
1361382705.75,1.7173510833333332,33.6675,189.25833336319997,-18.11494791666667,62.95434026953914
1361382706.0,1.714468125,33.66916666666666,189.31666666666663,-18.967552083333334,62.94020067314411
1361382706.25,1.712813125,33.670833333333334,189.37083330559997,-18.9290625,62.92087238645339
1361382706.5,1.7123326666666667,33.67249999999999,189.42499999999995,-17.888932291666666,62.87360997385301
1361382706.75,1.7127597916666666,33.674166666666665,189.47916669439996,-16.26348958333333,62.81425271113908
1361382707.0,1.7138809583333334,33.67583333333333,189.5333333333333,-13.154947916666666,62.72845418817869
1361382707.25,1.715108875,33.6775,189.5858333064533,-9.589401041666667,62.67054201515966
1361382707.5,1.71660375,33.67916666666667,189.63833333333332,-6.990026041666667,62.677522906406345
1361382707.75,1.718579125,33.68,189.69083336021333,-4.5213020833333335,62.67419405742201
1361382708.0,1.720074,33.68,189.74333333333334,-3.1933333333333334,62.660614243130375
1361382708.25,1.7214620833333332,33.68,189.79499997354665,-1.2237239583333333,62.63488684971432
1361382708.5,1.7227434166666669,33.68,189.84666666666664,2.059244791666667,62.573442639583014
1361382708.75,1.7239713750000003,33.68,189.89833335978665,5.168255208333333,62.47917919561297
1361382709.0,1.7251993333333335,33.68,189.94999999999996,8.408541666666666,62.39918555911453
1361382709.25,1.7257865833333337,33.68,189.99749997567997,10.132421875,62.300505854241834
1361382709.5,1.7257331666666669,33.68,190.04499999999996,10.588828125000001,62.20670041672317
1361382709.75,1.7253594166666666,33.68,190.09250002431997,11.715963541666666,62.13545590097663
1361382710.0,1.7249322916666667,33.68,190.14,11.131067708333335,62.102992919010866
1361382710.25,1.7244517916666666,33.68,190.18333331114664,10.081692708333334,62.07148410310189
1361382710.5,1.7239179166666665,33.68,190.22666666666663,9.984817708333333,62.02703832215489
1361382710.75,1.7233306666666666,33.68,190.27000002218665,10.642473958333333,61.99001278071597
1361382711.0,1.7227434166666666,33.68,190.3133333333333,12.76453125,61.964563599515635
1361382711.25,1.722156166666667,33.68,190.34833331541333,13.934713541666667,61.9520983016578
1361382711.5,1.7216756666666668,33.68,190.38333333333333,13.766510416666668,61.95159400693416
1361382711.75,1.7212485416666665,33.68,190.41833335125332,13.283177083333335,61.95159400693416
1361382712.0,1.7206612499999998,33.68,190.45333333333335,12.092057291666668,61.95159400693416
1361382712.25,1.720074,33.68,190.47916665344002,12.134531250000002,61.95159400693416
1361382712.5,1.7194333333333331,33.68,190.505,12.13484375,61.955244213765916
1361382712.75,1.7187926666666666,33.67916666666667,190.53083334655997,10.578255208333333,61.97471198353532
1361382713.0,1.7182053750000001,33.6775,190.55666666666664,9.586223958333333,61.99417975330473
1361382713.25,1.7176180833333332,33.67583333333333,190.57166665898666,7.832630208333335,62.013647523074134
1361382713.5,1.7170307916666667,33.674166666666665,190.58666666666664,6.506822916666668,62.033115292843526
1361382713.75,1.716496875,33.67333333333334,190.60166667434663,4.8053125,62.05258306261294
1361382714.0,1.7158561666666667,33.67333333333333,190.61666666666665,2.3601302083333335,62.07205083238234
1361382714.25,1.715215458333333,33.67333333333333,190.62916666026666,1.666171875,62.09151860215175
1361382714.5,1.7144145833333333,33.67333333333333,190.64166666666665,-0.13226562499999997,62.11098637192114
1361382714.75,1.7134535416666665,33.67333333333333,190.65416667306664,-1.72625,62.13045414169056
1361382715.0,1.7125459166666668,33.67333333333333,190.66666666666666,-2.3791406250000002,62.149921911459955
1361382715.25,1.7115314999999998,33.67333333333333,190.67833332736,-4.680338541666667,62.16938968122937
1361382715.5,1.7105170833333334,33.67333333333333,190.69,-6.028124999999999,62.184075890556244
1361382715.75,1.7093425416666668,33.67416666666667,190.70166667264,-5.967968750000001,62.17594325965291
1361382716.0,1.707901083333333,33.67583333333333,190.71333333333334,-5.226822916666666,62.156303767791485
1361382716.25,1.7064596250000001,33.6775,190.72583332693333,-3.2800781250000006,62.150646673495714
1361382716.5,1.704911375,33.67916666666667,190.73833333333334,-2.123828125,62.14851001402234
1361382716.75,1.702936,33.68,190.75083333973333,-0.9228385416666667,62.14360777467308
1361382717.0,1.7008004583333334,33.68,190.76333333333332,0.673671875,62.144361343847464
1361382717.25,1.6987183333333336,33.68,190.76999999658665,0.46875000000000006,62.14796074563525
1361382717.5,1.696796375,33.68,190.77666666666664,1.7198958333333334,62.15740921012813
1361382717.75,1.694927791666667,33.68,190.78333333674667,2.7095572916666666,62.20865838648226
1361382718.0,1.692899,33.68,190.79,2.4596875,62.273031579995006
1361382718.25,1.690603291666667,33.68,190.79249999872,3.8013020833333333,62.37175818906071
1361382718.5,1.6880406666666667,33.68,190.79500000000002,4.141640625,62.4887657388205
1361382718.75,1.6855314166666666,33.68,190.79750000128,3.3751041666666666,62.62517013820849
1361382719.0,1.6831822916666666,33.68,190.8,2.3109375,62.792052480135574
1361382719.25,1.679872125,33.68,190.79750000128,0.7336979166666667,62.943485070024565
1361382719.5,1.6754407916666667,33.68,190.79500000000002,-0.7308854166666666,63.089929870618725
1361382719.75,1.6703688333333335,33.68,190.79249999872,-2.1954687500000003,63.24280863726986
1361382720.0,1.6647096249999997,33.68,190.79,-3.464166666666667,63.390031595397346
1361382720.25,1.6588902083333332,33.68,190.78416666965333,-4.196458333333333,63.534408720911436
1361382720.5,1.6524835416666666,33.68,190.7783333333333,-5.250260416666667,63.672936783720445
1361382720.75,1.6454362499999997,33.68,190.7724999970133,-6.195755208333334,63.765995748487086
1361382721.0,1.6382287916666665,33.68,190.76666666666665,-6.314531250000001,63.84959908227622
1361382721.25,1.6311280833333333,33.68,190.75583333888,-6.901041666666667,63.88934976771825
1361382721.5,1.6240807499999999,33.68,190.745,-7.219270833333334,63.90730161729721
1361382721.75,1.6167130833333332,33.68,190.73416666111999,-6.927604166666666,63.914163085055044
1361382722.0,1.6089717083333335,33.68,190.72333333333333,-6.545208333333332,63.89592909897991
1361382722.25,1.6020845833333333,33.68,190.70500000938665,-6.029244791666667,63.87650574607172
1361382722.5,1.5964787916666665,33.68,190.68666666666667,-5.163359375,63.855361682069365
1361382722.75,1.59194075,33.68,190.66833332394665,-4.236041666666666,63.83345134009531
1361382723.0,1.5882569166666667,33.68,190.64999999999998,-3.4104687499999997,63.817140398089464
1361382723.25,1.5847866666666668,33.68,190.62250001407998,-2.622942708333333,63.80148273448419
1361382723.5,1.5819036666666666,33.68,190.59499999999997,-1.4548697916666666,63.78517179247834
1361382723.75,1.5800267083333335,33.67916666666667,190.56749998591997,-0.11296874999999997,63.77844571675698
1361382724.0,1.5788355416666668,33.6775,190.53999999999996,0.5829947916666667,63.770458993768024
1361382724.25,1.5779647083333332,33.67583333333333,190.50500001791997,1.5819010416666666,63.78052379161182
1361382724.5,1.577467625,33.674166666666665,190.46999999999997,2.7205729166666663,63.789373203618034
1361382724.75,1.5774510416666667,33.67249999999999,190.43499998208,3.42953125,63.792435329907356
1361382725.0,1.5779149583333334,33.670833333333334,190.4,4.014322916666667,63.80133631226536
1361382725.25,1.5785390416666667,33.66916666666666,190.36416668501334,4.6496875,63.81603302761033
1361382725.5,1.5790563333333336,33.6675,190.32833333333332,4.834609375,63.84922189221206
1361382725.75,1.5794668333333333,33.666666666666664,190.29249998165332,4.93296875,63.86135106941605
1361382726.0,1.5796637916666667,33.666666666666664,190.25666666666666,5.13765625,63.865923175642386
1361382726.25,1.5797005833333333,33.666666666666664,190.20833335808,5.265703125,63.87326519496756
1361382726.5,1.579684,33.666666666666664,190.16000000000003,5.0,63.89839772984127
1361382726.75,1.57919525,33.6675,190.11166664192,4.773098958333333,63.90116652081756
1361382727.0,1.578180875,33.66916666666666,190.06333333333336,5.003307291666666,63.897414408027004
1361382727.25,1.5769529166666667,33.670833333333334,190.00083336533336,5.3441406250000005,63.88511000719783
1361382727.5,1.5754580000000002,33.6725,189.93833333333336,5.862630208333333,63.885835074282625
1361382727.75,1.5738029166666667,33.67333333333334,189.87583330133336,6.443281250000001,63.89572226457113
1361382728.0,1.5719876666666668,33.67333333333333,189.81333333333336,6.993307291666667,63.92083224359854
1361382728.25,1.5700656666666666,33.67333333333334,189.72833337685336,7.532942708333334,63.94272201882949
1361382728.5,1.5681436666666666,33.67333333333333,189.64333333333335,8.265963541666666,63.95020082363549
1361382728.75,1.566008125,33.67249999999999,189.55833328981333,8.995598958333334,63.976243168204896
1361382729.0,1.5637657916666665,33.670833333333334,189.47333333333333,9.641015625,64.00424318378377
1361382729.25,1.5615768333333335,33.66916666666666,189.37750004906667,10.42921875,64.02882000786322
1361382729.5,1.5593345,33.6675,189.28166666666667,11.178411458333334,64.0362595947947
1361382729.75,1.5572523333333335,33.66583333333333,189.18583328426666,11.483723958333334,64.06014644552023
1361382730.0,1.5551701666666666,33.66416666666667,189.09,12.075208333333334,64.0881464610991
1361382730.25,1.5530346249999998,33.662499999999994,188.98166672213333,12.454999999999998,64.11614647667795
1361382730.5,1.5508990833333332,33.66083333333333,188.87333333333333,12.573151041666668,64.13698165896021
1361382730.75,1.548496583333333,33.660833333333336,188.76499994453332,12.984375,64.15313681324112
1361382731.0,1.5459872916666664,33.6625,188.65666666666664,13.357682291666668,64.15435469496639
1361382731.25,1.543531375,33.66416666666666,188.54166672554663,13.528177083333333,64.15565376880669
1361382731.5,1.5409687083333334,33.66583333333333,188.42666666666662,13.892239583333335,64.15605972938177
1361382731.75,1.5385662083333331,33.6675,188.31166660778663,14.222734375000002,64.15605972938177
1361382732.0,1.5364306666666667,33.66916666666666,188.19666666666663,14.508125,64.15605972938177
1361382732.25,1.5342417499999998,33.670833333333334,188.06416673450664,14.779322916666667,64.15605972938177
1361382732.5,1.5319994166666666,33.6725,187.93166666666664,15.260078125,64.15605972938177
1361382732.75,1.5295969166666665,33.674166666666665,187.79916659882664,16.01666666666667,64.15605972938177
1361382733.0,1.5271944166666669,33.67583333333334,187.66666666666666,16.448072916666668,64.15605972938177
1361382733.25,1.5249520833333337,33.6775,187.52500007253332,16.853671875,64.15605972938177
1361382733.5,1.5228699166666668,33.67916666666667,187.38333333333333,17.3025,64.15605972938177
1361382733.75,1.5211080833333332,33.68,187.24166659413333,17.251406250000002,64.15605972938177
1361382734.0,1.519453041666667,33.68,187.1,16.803515625,64.15605972938177
1361382734.25,1.5177980000000002,33.68,186.94583341226667,16.41057291666667,64.15605972938177
1361382734.5,1.5163564999999999,33.68,186.79166666666669,15.658072916666667,64.15605972938177
1361382734.75,1.5150217916666666,33.68,186.63749992106668,15.030703125,64.15077688326309
1361382735.0,1.5136336666666665,33.68,186.48333333333335,14.525520833333333,64.1389110698195
1361382735.25,1.5122989166666667,33.68,186.32916674560002,13.889973958333334,64.12476661047468
1361382735.5,1.5110709583333335,33.68,186.175,13.082656250000001,64.1112731928159
1361382735.75,1.5100031666666667,33.68,186.02083325439997,12.238489583333333,64.1010310592557
1361382736.0,1.5090955416666667,33.68,185.86666666666665,11.424479166666666,64.08672383948935
1361382736.25,1.5081879166666665,33.68,185.7083334144,10.582031250000002,64.072416619723
1361382736.5,1.507226916666667,33.68,185.54999999999998,9.7878125,64.05810939995665
1361382736.75,1.5062659166666668,33.68,185.39166658559998,9.235052083333334,64.0438021801903
1361382737.0,1.5053049166666665,33.68,185.23333333333332,9.909010416666668,64.02949496042395
1361382737.25,1.5042371249999997,33.68,185.07333341525333,10.772630208333334,64.01600074977797
1361382737.5,1.5030625416666663,33.68,184.91333333333333,11.633593750000001,64.01226264857654
1361382737.75,1.5018879583333336,33.67916666666667,184.75333325141332,11.986770833333333,64.01380739349379
1361382738.0,1.50066,33.6775,184.59333333333333,12.249088541666666,64.01868306925444
1361382738.25,1.4994320416666664,33.67583333333334,184.426666752,12.565338541666668,64.02990243651823
1361382738.5,1.4982040833333334,33.67416666666667,184.26,12.886822916666667,64.02990164353103
1361382738.75,1.496976125,33.6725,184.093333248,13.214557291666667,64.0290885938064
1361382739.0,1.4958015833333336,33.670833333333334,183.92666666666665,13.51140625,64.02990160292678
1361382739.25,1.4946270416666667,33.66916666666666,183.74583342591998,13.78234375,64.03477965764905
1361382739.5,1.4933457083333332,33.6675,183.56499999999997,14.011276041666667,64.04778780357512
1361382739.75,1.492011,33.66583333333333,183.38416657407996,14.182317708333334,64.06079594950118
1361382740.0,1.4907296666666667,33.66416666666667,183.2033333333333,13.593229166666667,64.06973904982534
1361382740.25,1.4895017499999998,33.662499999999994,182.89916682239996,12.941640624999998,64.08112117751064
1361382740.5,1.4882738333333334,33.660833333333336,182.59499999999997,12.484427083333335,64.08356020487179
1361382740.75,1.4869924999999997,33.65958333333333,182.2908331776,12.378281249999999,64.08599923223292
1361382741.0,1.4858179583333333,33.65875,181.98666666666668,12.279270833333335,64.09169029607557
1361382741.25,1.4846434166666667,33.657916666666665,181.56333355008002,12.254687500000001,64.09331631431633
1361382741.5,1.4833087083333332,33.657083333333325,181.14,12.1396875,64.10307242376088
1361382741.75,1.4819206249999999,33.6575,180.71666644991998,11.972864583333333,64.09982038727937
1361382742.0,1.4805859166666666,33.659166666666664,180.29333333333332,12.002838541666668,64.09900737815897
1361382742.25,1.4793046250000002,33.660833333333336,179.75916694016,11.89734375,64.0941293234367
1361382742.5,1.478076708333333,33.662499999999994,179.225,11.681614583333333,64.08112117751064
1361382742.75,1.476795375,33.66416666666667,178.69083305984,11.755208333333334,64.06811303158459
1361382743.0,1.4754072916666665,33.66583333333333,178.15666666666667,11.668489583333333,64.05916993126041
1361382743.25,1.4740725833333335,33.6675,177.6233336064,11.434427083333334,64.04697479445473
1361382743.5,1.472737875,33.66916666666666,177.08999999999997,11.422578125000001,64.03396664852868
1361382743.75,1.4714031666666667,33.67125,176.55666639359998,11.720390625,64.02095850260261
1361382744.0,1.4700684583333334,33.67375,176.0233333333333,12.140442708333332,64.00795035667655
1361382744.25,1.4687337500000002,33.67625,175.49416693759997,12.594609375,63.99494221075049
1361382744.5,1.4675057916666667,33.67875,174.96499999999997,13.092161458333331,63.984373092185564
1361382744.75,1.4662778333333335,33.68,174.4358330624,13.637500000000001,63.984373092185564
1361382745.0,1.4649965,33.68,173.90666666666667,14.039010416666665,63.984373092185564
1361382745.25,1.4637151666666666,33.68,173.38000026965332,14.56,63.984373092185564
1361382745.5,1.462433833333333,33.68,172.85333333333332,15.169713541666667,63.984373092185564
1361382745.75,1.4612592916666667,33.68,172.32666639701333,15.512265625,63.984373092185564
1361382746.0,1.4602982916666667,33.68,171.79999999999998,16.02057291666667,63.984373092185564
1361382746.25,1.4593906666666665,33.68,171.31500024832,16.622734375,63.984373092185564
1361382746.5,1.4585898333333336,33.68,170.82999999999998,16.510130208333333,63.984373092185564
1361382746.75,1.4578957916666668,33.67916666666667,170.34499975168,15.453932291666668,63.984373092185564
1361382747.0,1.4572551249999999,33.6775,169.86,14.282447916666667,63.983925090592855
1361382747.25,1.45672125,33.67583333333333,169.41583356074668,12.734765625,63.9790777299662
1361382747.5,1.4565077083333333,33.674166666666665,168.97166666666666,11.073854166666669,63.96725706318353
1361382747.75,1.4565610833333331,33.6725,168.52749977258665,9.561979166666665,63.920654119480965
1361382748.0,1.4566678333333332,33.670833333333334,168.08333333333331,8.0359375,63.86788992565443
1361382748.25,1.4568279583333332,33.66916666666666,167.6791668736,5.844713541666667,63.80371329043901
1361382748.5,1.457094875,33.6675,167.27499999999998,4.065598958333333,63.74732736955793
1361382748.75,1.4574685833333334,33.66583333333333,166.8708331264,2.4640885416666665,63.68739355628202
1361382749.0,1.457682125,33.66416666666667,166.46666666666667,0.21838541666666658,63.63335487101134
1361382749.25,1.4577355,33.662499999999994,166.06000020821332,-1.1897916666666666,63.55680827211904
1361382749.5,1.4576821249999998,33.660833333333336,165.65333333333334,-2.073125,63.474777181103576
1361382749.75,1.4574685833333332,33.66,165.24666645845335,-1.9173177083333333,63.39274609008811
1361382750.0,1.4571482500000001,33.66,164.84,-1.0853125000000001,63.31116300066537
1361382750.25,1.4567211249999998,33.66,164.43166687573333,-0.10638020833333343,63.233979270276556
1361382750.5,1.4559202916666667,33.66,164.0233333333333,0.909140625,63.16376884604375
1361382750.75,1.454799125,33.66,163.6149997909333,2.4329947916666668,63.12875392841729
1361382751.0,1.4536245416666667,33.66,163.20666666666662,3.567682291666667,63.1005615532795
1361382751.25,1.4523432083333334,33.66,162.79416687786662,5.530598958333333,63.0839882343738
1361382751.5,1.450955125,33.66,162.38166666666663,7.527552083333333,63.06598306190642
1361382751.75,1.4495136666666666,33.66,161.96916645546665,9.0115625,63.0552816090877
1361382752.0,1.4481789999999999,33.66,161.55666666666664,11.297526041666666,63.034062462424636
1361382752.25,1.4470045,33.66,161.14416687786664,12.975130208333333,63.03997429243319
1361382752.5,1.4459367499999998,33.66,160.73166666666665,14.810833333333333,63.0575926595042
1361382752.75,1.4450825416666666,33.66,160.31916645546667,16.196302083333332,63.071214660456405
1361382753.0,1.44428175,33.66,159.90666666666667,16.786145833333332,63.09299332392019
1361382753.25,1.4435877499999998,33.66,159.49083354624,17.23447916666667,63.11728360445745
1361382753.5,1.4430539166666667,33.66,159.075,18.114817708333334,63.168309264922975
1361382753.75,1.4426802499999998,33.66,158.65916645376,18.331171875,63.22904782494593
1361382754.0,1.4423599999999999,33.66,158.24333333333334,18.833776041666667,63.289125092604195
1361382754.25,1.4420930833333332,33.66,157.82833354581334,18.5859375,63.348995745419245
1361382754.5,1.44177275,33.66,157.41333333333336,16.158854166666668,63.40250753746164
1361382754.75,1.4415057916666665,33.65958333333333,156.99833312085335,13.890234375,63.4522635022502
1361382755.0,1.4409718749999998,33.65875,156.58333333333334,12.554166666666667,63.50664203287787
1361382755.25,1.4402244166666665,33.657916666666665,156.16416688128,10.121041666666667,63.55066720244224
1361382755.5,1.4393701666666665,33.657083333333325,155.745,7.4148177083333335,63.594200625080624
1361382755.75,1.4384625416666665,33.65625,155.32583311872,5.765390625000001,63.64173041383783
1361382756.0,1.4376082916666666,33.65541666666666,154.90666666666667,3.2256510416666675,63.67995748048077
1361382756.25,1.4367540416666664,33.654583333333335,154.48333355008,1.3449739583333338,63.70421233402363
1361382756.5,1.435846375,33.653749999999995,154.06,-1.2459375,63.68528078914298
1361382756.75,1.4349387083333331,33.65333333333333,153.63666644992,-4.2375,63.64788477686583
1361382757.0,1.4340310416666666,33.65333333333333,153.21333333333334,-6.899609375,63.61048876458869
1361382757.25,1.4331767916666667,33.65333333333333,152.78500021930668,-8.51109375,63.56781915780497
1361382757.5,1.4325361249999997,33.65333333333333,152.35666666666668,-7.861223958333333,63.50028220116024
1361382757.75,1.4318954583333332,33.653749999999995,151.92833311402666,-6.2527083333333335,63.40761646935051
1361382758.0,1.4319488333333332,33.65458333333333,151.5,-6.033046875,63.296080980975425
1361382758.25,1.4332835416666665,33.65541666666666,151.07083355306668,-5.3016145833333335,63.17420884733897
1361382758.5,1.435419125,33.65625,150.64166666666665,-4.957916666666667,63.01566552907328
1361382758.75,1.437554708333333,33.65666666666666,150.21249978026665,-5.872864583333333,62.84857531899801
1361382759.0,1.4397436666666668,33.656666666666666,149.78333333333333,-5.149973958333333,62.67177448177768
1361382759.25,1.441986,33.656666666666666,149.35250022058665,-4.72984375,62.50702569528986
1361382759.5,1.444335125,33.656666666666666,148.92166666666665,-3.045546875,62.3705105780455
1361382759.75,1.446791,33.65625,148.49083311274666,-0.9324479166666665,62.245832812022606
1361382760.0,1.4493536666666669,33.65541666666666,148.05999999999997,0.4477343750000001,62.11769906060744
1361382760.25,1.45196975,33.654583333333335,147.62583355562666,0.8168489583333335,61.99370050374828
1361382760.5,1.4546391666666665,33.653749999999995,147.19166666666666,0.5127864583333334,61.893682657506275
1361382760.75,1.457522125,33.65291666666666,146.75749977770667,-0.6505989583333333,61.81558677070365
1361382761.0,1.4602449583333332,33.65208333333333,146.32333333333335,-1.593515625,61.75657165814806
1361382761.25,1.4625406666666667,33.65125,145.88250022570668,-2.3134114583333334,61.71341247118547
1361382761.5,1.4647829583333334,33.650416666666665,145.44166666666666,-2.5846875,61.69975792375487
1361382761.75,1.4672387916666665,33.65,145.00083310762665,-2.80328125,61.695833177545616
1361382762.0,1.4696412500000002,33.65,144.55999999999997,-3.5940364583333335,61.70301845575625
1361382762.25,1.4719903333333333,33.65,144.1141668949333,-4.372369791666666,61.709612279261
1361382762.5,1.4742860416666665,33.65,143.6683333333333,-6.405572916666666,61.70442345201755
1361382762.75,1.476475,33.65,143.2224997717333,-8.021119791666667,61.69573561170523
1361382763.0,1.478397,33.65,142.77666666666664,-9.4371875,61.6905037567852
1361382763.25,1.4801587916666665,33.65,142.32916689578664,-9.819531249999999,61.688436021703176
1361382763.5,1.4817604583333333,33.65,141.88166666666666,-9.36546875,61.68911173189409
1361382763.75,1.4830417916666667,33.65,141.43416643754665,-9.074453125,61.693163005480585
1361382764.0,1.48400275,33.65,140.98666666666665,-8.51171875,61.697003261385426
1361382764.25,1.4842696666666668,33.65,140.54000022869332,-7.63140625,61.7033287415725
1361382764.5,1.48373575,33.65,140.0933333333333,-6.507031250000001,61.72035367617181
1361382764.75,1.4828815000000002,33.650416666666665,139.64666643797332,-4.84234375,61.74351746393926
1361382765.0,1.4819738749999998,33.65125,139.2,-3.5439843749999995,61.761968304116174
1361382765.25,1.480906125,33.65208333333333,138.74750023168,-2.3951822916666665,61.78992447040978
1361382765.5,1.4796782083333335,33.65291666666666,138.295,-0.6711197916666666,61.80912623348298
1361382765.75,1.4783435,33.65375,137.84249976831998,0.5220572916666667,61.83792212595562
1361382766.0,1.4770621666666666,33.65458333333333,137.39,2.0950520833333335,61.867557744607275
1361382766.25,1.4758342083333333,33.65541666666667,136.93000023552,3.080078125,61.89516764337148
1361382766.5,1.47460625,33.65625,136.46999999999997,3.1827343750000003,61.9209207361066
1361382766.75,1.473378333333333,33.65708333333333,136.00999976447997,3.692291666666667,61.94650508117176
1361382767.0,1.4720436666666668,33.657916666666665,135.54999999999998,3.7438020833333336,61.9720894262369
1361382767.25,1.4705487916666666,33.65875,135.08333357226667,3.6483333333333334,61.99539956470149
1361382767.5,1.4691072916666668,33.65958333333333,134.61666666666667,3.4482291666666662,62.00944649583778
1361382767.75,1.4676658333333332,33.66,134.14999976106665,2.7917447916666664,62.016171664394136
1361382768.0,1.466171,33.66,133.68333333333334,2.593671875,62.027356442868886
1361382768.25,1.4647294999999998,33.66,133.21916690432002,2.5150520833333334,62.02903589522693
1361382768.5,1.4633413749999997,33.66,132.755,2.1205729166666667,62.03946975080538
1361382768.75,1.4619532916666664,33.66,132.29083309568,1.9626302083333336,62.0403094769844
1361382769.0,1.4606186250000002,33.66,131.82666666666668,1.6832291666666668,62.0403094769844
1361382769.25,1.4592839583333335,33.66,131.37000023381333,1.5880989583333334,62.0403094769844
1361382769.5,1.4578424583333334,33.66,130.91333333333333,1.9954427083333333,62.0403094769844
1361382769.75,1.456294166666667,33.65958333333333,130.45666643285332,2.1039583333333334,62.0403094769844
1361382770.0,1.45479925,33.65875,129.99999999999997,2.76625,62.0403094769844
1361382770.25,1.453411125,33.657916666666665,129.55250022911997,3.4040625,62.0403094769844
1361382770.5,1.4520764166666666,33.65708333333333,129.105,3.881901041666666,62.0403094769844
1361382770.75,1.4507950833333334,33.65625,128.65749977088,4.864713541666666,62.0403094769844
1361382771.0,1.449567125,33.65541666666666,128.21,5.579505208333333,62.0403094769844
1361382771.25,1.4484459583333333,33.65458333333333,127.772500224,6.208385416666666,62.0403094769844
1361382771.5,1.4473782083333333,33.653749999999995,127.33500000000001,7.2496093749999995,62.0403094769844
1361382771.75,1.4464172083333333,33.65291666666666,126.897499776,7.911744791666667,62.0403094769844
1361382772.0,1.4454027916666667,33.65208333333333,126.46,8.510729166666668,62.0403094769844
1361382772.25,1.444335,33.65125,126.02083355818667,9.246223958333333,62.0403094769844
1361382772.5,1.4433206666666667,33.650416666666665,125.58166666666666,9.648932291666666,62.0403094769844
1361382772.75,1.4423597083333333,33.65,125.14249977514666,10.192343750000001,62.0403094769844
1361382773.0,1.4414521249999999,33.65,124.70333333333333,10.372057291666666,62.0403094769844
1361382773.25,1.4405979583333333,33.65,124.26583355733334,10.612630208333334,62.0403094769844
1361382773.5,1.439637,33.65,123.82833333333333,10.824739583333333,62.0403094769844
1361382773.75,1.438622625,33.65,123.39083310933333,10.509869791666667,62.0403094769844
1361382774.0,1.4376616249999998,33.65,122.95333333333333,10.068463541666668,62.0403094769844
1361382774.25,1.436700625,33.65,122.51083355989333,9.628932291666667,62.0403094769844
1361382774.5,1.4356862083333333,33.65,122.06833333333333,8.887109375000001,62.0403094769844
1361382774.75,1.4346717916666665,33.65,121.62583310677333,8.34875,62.0403094769844
1361382775.0,1.433657375,33.65,121.18333333333332,7.951328125,62.0403094769844
1361382775.25,1.432696375,33.65,120.7416668928,7.374479166666667,62.0403094769844
1361382775.5,1.431842125,33.65,120.3,6.761484374999999,62.0403094769844
1361382775.75,1.4311480416666666,33.65,119.8583331072,6.2214583333333335,62.0403094769844
1361382776.0,1.43056075,33.65,119.41666666666667,5.7859895833333335,62.0403094769844
1361382776.25,1.4299200833333334,33.65,118.97916689066668,5.218046875,62.0403094769844
1361382776.5,1.4293327916666667,33.65,118.54166666666667,4.754765625,62.0403094769844
1361382776.75,1.428798875,33.65,118.10416644266667,4.54296875,62.040141531748596
1361382777.0,1.4282115833333335,33.65,117.66666666666667,4.613645833333334,62.03997358651279
1361382777.25,1.4275175416666668,33.65,117.23833355264,4.787890625,62.03997358651279
1361382777.5,1.4268235,33.65,116.81,4.714713541666667,62.039973586512794
1361382777.75,1.4259692916666669,33.65,116.38166644735999,4.63734375,62.03997358651279
1361382778.0,1.4251151249999998,33.65,115.95333333333332,4.7128125,62.03963769604118
1361382778.25,1.4242075416666669,33.65,115.53416688127999,4.505833333333333,62.035935817200624
1361382778.5,1.4232999583333334,33.65,115.11499999999998,4.489166666666667,62.035935817200624
1361382778.75,1.4222855833333332,33.65,114.69583311871999,4.440338541666667,62.035935817200624
1361382779.0,1.4212712083333334,33.65,114.27666666666666,4.1978125,62.035935817200624
1361382779.25,1.4203102083333334,33.65,113.86000021333332,4.1271354166666665,62.03593581720063
1361382779.5,1.419402625,33.65,113.44333333333333,3.9511458333333334,62.035935817200624
1361382779.75,1.4185484583333334,33.650416666666665,113.02666645333333,3.714322916666667,62.036103762436426
1361382780.0,1.4177476666666669,33.65125,112.61,3.5815364583333333,62.03627170767223
1361382780.25,1.417053625,33.65208333333333,112.19083354794667,3.2867187500000004,62.03539005249042
1361382780.5,1.416466375,33.65291666666666,111.77166666666666,3.530703125,62.0338786436073
1361382780.75,1.4160392916666666,33.653749999999995,111.35249978538666,3.8127343750000002,62.027155452416594
1361382781.0,1.4157189583333334,33.65458333333333,110.93333333333332,3.8655729166666664,62.02413099408789
1361382781.25,1.415398625,33.65541666666667,110.51250021546666,4.497083333333333,62.02245481869391
1361382781.5,1.4149715,33.65624999999999,110.09166666666667,4.805677083333333,62.01035107967854
1361382781.75,1.4145977500000002,33.65708333333333,109.67083311786666,5.3084114583333335,61.99757477218512
1361382782.0,1.4141705833333333,33.657916666666665,109.25,6.105364583333333,61.984798464691686
1361382782.25,1.4137434166666667,33.65875,108.82750021631999,6.608776041666666,61.97269472567633
1361382782.5,1.413262875,33.65958333333333,108.405,7.388229166666666,61.959918418182895
1361382782.75,1.4127289583333333,33.66,107.98249978368,8.195494791666667,61.94714211068947
1361382783.0,1.4121416666666666,33.66,107.55999999999999,8.697604166666666,61.93436580319604
1361382783.25,1.4115010000000001,33.66,107.14083354794666,9.149192708333334,61.92247115088441
1361382783.5,1.4108069166666668,33.66,106.72166666666666,9.080338541666668,61.91006944063408
1361382783.75,1.4101128333333335,33.66083333333333,106.30249978538666,8.915598958333334,61.90401632433136
1361382784.0,1.4093653333333334,33.6625,105.88333333333333,8.868463541666667,61.894221428424906
1361382784.25,1.408617875,33.66416666666667,105.46666687999999,8.444140625000001,61.8937594889739
1361382784.5,1.4078170416666669,33.66583333333333,105.04999999999998,8.182447916666666,61.903176104216385
1361382784.75,1.4069628333333333,33.6675,104.63333311999999,7.836067708333334,61.91326528793695
1361382785.0,1.4060552916666669,33.66916666666666,104.21666666666665,7.201536458333334,61.92335447165752
1361382785.25,1.40514775,33.67083333333333,103.79916688042665,6.750963541666668,61.92687803390695
1361382785.5,1.4042401666666666,33.6725,103.38166666666666,6.2503906250000005,61.92320143921668
1361382785.75,1.4032257916666666,33.674166666666665,102.96416645290667,5.479479166666667,61.924282240388855
1361382786.0,1.4022114166666666,33.67583333333334,102.54666666666667,4.975963541666666,61.910292802960754
1361382786.25,1.4011436250000002,33.6775,102.14083354112,4.60265625,61.89680977470914
1361382786.5,1.3999690833333336,33.67916666666667,101.735,4.2933593750000005,61.88395714892105
1361382786.75,1.39868775,33.67916666666667,101.32916645888,4.421223958333333,61.870136514551795
1361382787.0,1.3974064166666667,33.6775,100.92333333333333,4.130208333333333,61.856694817395855
1361382787.25,1.3962318333333332,33.67583333333333,100.53166686719999,3.694479166666667,61.83627547533636
1361382787.5,1.3952174166666669,33.674166666666665,100.13999999999999,3.2989583333333337,61.81304060385927
1361382787.75,1.3942564166666667,33.6725,99.74833313279998,2.6627083333333337,61.79486583980857
1361382788.0,1.3933487916666667,33.670833333333334,99.35666666666664,2.200078125,61.776691075757874
1361382788.25,1.3924945416666665,33.66916666666666,98.99083352063998,1.6435677083333335,61.76440936470022
1361382788.5,1.3917470833333334,33.6675,98.62499999999997,0.7864583333333335,61.760000379060365
1361382788.75,1.3911597916666667,33.66583333333333,98.25916647935998,0.3628385416666667,61.75083399755806
1361382789.0,1.3906258749999998,33.66416666666667,97.89333333333332,-0.27229166666666654,61.75673785465603
1361382789.25,1.3901453750000001,33.662499999999994,97.54500017834665,-0.41757812499999997,61.76213530257752
1361382789.5,1.3898250416666666,33.660833333333336,97.19666666666666,-0.33528645833333326,61.76803915967548
1361382789.75,1.3895047083333332,33.66083333333333,96.84833315498666,-0.79921875,61.773774213714624
1361382790.0,1.3890776249999999,33.662499999999994,96.5,-0.2987499999999999,61.77950926775376
1361382790.25,1.3885437916666667,33.66416666666667,96.17083350186667,0.29635416666666675,61.78490671567524
1361382790.5,1.3880099583333332,33.66583333333333,95.84166666666667,1.1246875,61.78996682310163
1361382790.75,1.3875295,33.666666666666664,95.51249983146666,2.082760416666667,61.78996682310163
1361382791.0,1.3871024166666668,33.666666666666664,95.18333333333332,2.8719791666666663,61.78996682310163
1361382791.25,1.3866219166666667,33.666666666666664,94.86250016426665,3.8825000000000003,61.78996682310163
1361382791.5,1.386088,33.666666666666664,94.54166666666666,4.967734375,61.78996682310163
1361382791.75,1.3855007083333335,33.666666666666664,94.22083316906665,5.950625,61.78996682310163
1361382792.0,1.3848066666666667,33.666666666666664,93.89999999999998,7.166249999999999,61.78996682310163
1361382792.25,1.3840592083333334,33.666666666666664,93.58416682837331,7.6253385416666655,61.78996682310163
1361382792.5,1.3832583333333333,33.666666666666664,93.26833333333332,8.145729166666667,61.78996682310163
1361382792.75,1.38256425,33.66583333333333,92.95249983829332,8.802994791666666,61.78996682310163
1361382793.0,1.3819769583333332,33.66416666666667,92.63666666666666,8.664401041666666,61.78996682310163
1361382793.25,1.3814430416666665,33.6625,92.32416682666666,8.810729166666667,61.78996682310163
1361382793.5,1.3809091249999998,33.66083333333333,92.01166666666666,8.577499999999999,61.78996682310163
1361382793.75,1.3803218333333334,33.66083333333333,91.69916650666666,8.304557291666667,61.78996682310163
1361382794.0,1.3796811666666666,33.6625,91.38666666666666,8.247473958333332,61.78996682310163
1361382794.25,1.3790405000000001,33.66416666666667,91.08166682282666,7.7851822916666675,61.78996682310163
1361382794.5,1.3783998333333332,33.66583333333333,90.77666666666667,7.547395833333333,61.78996682310163
1361382794.75,1.3778125416666667,33.6675,90.47166651050667,6.969088541666667,61.78996682310163
1361382795.0,1.377278625,33.66916666666666,90.16666666666667,6.271276041666667,61.78996682310163
1361382795.25,1.3768515,33.67083333333333,89.86583348736,5.957135416666667,61.78929214211144
1361382795.5,1.3763176249999998,33.6725,89.565,5.375989583333332,61.779837184690734
1361382795.75,1.3756769583333333,33.674166666666665,89.26416651263999,5.035208333333333,61.76295131281987
1361382796.0,1.3750362916666665,33.67583333333334,88.96333333333332,4.878177083333333,61.74606544094902
1361382796.25,1.374395625,33.6775,88.66500015274666,4.40234375,61.73061562207182
1361382796.5,1.3737549583333333,33.67916666666667,88.36666666666665,4.004557291666667,61.714447776697796
1361382796.75,1.3731142916666668,33.68,88.06833318058665,3.5370312499999996,61.697561904826934
1361382797.0,1.3724202083333334,33.68,87.76999999999998,3.1315885416666664,61.680676032956065
1361382797.25,1.3717795416666665,33.68,87.47000015359998,3.0516666666666663,61.66379016108521
1361382797.5,1.3712457083333334,33.68,87.16999999999999,2.825416666666667,61.64690428921435
1361382797.75,1.3706584583333334,33.68,86.86999984639999,2.88140625,61.630018417343486
1361382798.0,1.3700177916666665,33.68,86.57,2.7296875000000003,61.61313254547263
1361382798.25,1.3694839166666668,33.68,86.27250015231999,2.6696875,61.59692135459195
1361382798.5,1.3690034166666667,33.68,85.975,2.7060937499999995,61.595822642093374
1361382798.75,1.3685763333333334,33.68,85.67749984768,2.381015625,61.612708513964236
1361382799.0,1.3682026250000001,33.68,85.38,2.277890625,61.6295943858351
1361382799.25,1.3678822916666666,33.68,85.11166680405333,2.0863020833333334,61.645044204712285
1361382799.5,1.3675085833333334,33.68,84.84333333333333,2.3480729166666667,61.661212050086306
1361382799.75,1.36718825,33.68,84.57499986261332,2.82671875,61.67809792195717
1361382800.0,1.3668679166666668,33.68,84.30666666666666,2.8531250000000004,61.69498379382804
1361382800.25,1.3663340000000002,33.68,84.13833341951998,3.0850520833333337,61.71186966569889
1361382800.5,1.365533125,33.68,83.96999999999998,3.087760416666667,61.728755537569754
1361382800.75,1.3647322916666669,33.68125,83.80166658047997,3.25828125,61.745641409440616
1361382801.0,1.3639848749999999,33.683749999999996,83.63333333333331,3.6938281249999996,61.76252728131147
1361382801.25,1.3630238749999999,33.68625,83.58500002474665,3.70125,61.77941315318234
1361382801.5,1.36211625,33.68875,83.53666666666665,3.9454166666666666,61.78996682310163
1361382801.75,1.361262,33.69125,83.48833330858665,4.264244791666667,61.78996682310163
1361382802.0,1.36040775,33.69375,83.43999999999998,4.254765625,61.78996682310163
1361382802.25,1.3595534999999999,33.69625,83.48166664533332,4.616458333333333,61.78996682310163
1361382802.5,1.358752625,33.69875,83.52333333333331,4.415885416666667,61.78996682310163
1361382802.75,1.3578983750000002,33.70125,83.56500002133332,4.176953125,61.78996682310163
1361382803.0,1.3572042916666665,33.70375,83.60666666666665,4.26234375,61.78996682310163
1361382803.25,1.3566704166666668,33.706250000000004,83.66749996885332,3.9972395833333336,61.78996682310163
1361382803.5,1.3564034583333333,33.70875,83.72833333333332,4.145104166666667,61.78996682310163
1361382803.75,1.3562432916666667,33.71,83.78916669781331,3.9814843749999995,61.78996682310163
1361382804.0,1.3560830833333333,33.71,83.84999999999998,3.856901041666667,61.78996682310163
1361382804.25,1.3559762916666667,33.71,83.90666663765332,4.11109375,61.78996682310163
1361382804.5,1.3558695416666666,33.71,83.96333333333331,3.9919270833333336,61.78996682310163
1361382804.75,1.3557094166666666,33.71,84.02000002901332,4.30203125,61.78996682310163
1361382805.0,1.3555492916666667,33.71,84.07666666666665,4.687395833333333,61.78996682310163
1361382805.25,1.3553357916666666,33.71,84.13083330559999,4.834583333333334,61.78996682310163
1361382805.5,1.3551222916666665,33.71,84.18499999999999,5.536979166666666,61.78996682310163
1361382805.75,1.3549087499999999,33.71,84.23916669439998,6.008802083333333,61.78996682310163
1361382806.0,1.3545350416666668,33.71,84.29333333333332,6.573593750000001,61.78996682310163
1361382806.25,1.3541613333333336,33.71,84.34333330773332,7.497473958333333,61.78996682310163
1361382806.5,1.3537342499999998,33.71,84.39333333333332,8.065911458333334,61.795525659578594
1361382806.75,1.3532003750000001,33.71,84.44333335893333,8.805234375,61.803611239908726
1361382807.0,1.3526665416666666,33.71,84.49333333333333,9.373072916666667,61.81169682023886
1361382807.25,1.3521860833333335,33.71,84.53916664319999,9.592604166666666,61.81978240056899
1361382807.5,1.3517055833333333,33.71,84.585,9.983541666666667,61.82786798089912
1361382807.75,1.3512250416666667,33.71,84.6308333568,10.037682291666666,61.83595356122925
1361382808.0,1.3507445,33.71,84.67666666666666,10.12609375,61.844039141559385
1361382808.25,1.3503173333333331,33.71,84.718333312,10.307656249999999,61.85212472188952
1361382808.5,1.3498367916666665,33.71,84.75999999999999,10.103984375,61.86021030221965
1361382808.75,1.3494630416666666,33.71,84.80166668799998,10.00234375,61.86829588254978
1361382809.0,1.3490893333333334,33.71,84.84333333333332,9.79125,61.87638146287991
1361382809.25,1.3487689999999999,33.71,84.88083331413333,9.328177083333333,61.884467043210044
1361382809.5,1.3483419166666666,33.71,84.91833333333332,8.98671875,61.886993787063204
1361382809.75,1.3479147916666667,33.71,84.95583335253332,8.6471875,61.886993787063204
1361382810.0,1.3475410416666664,33.71,84.99333333333333,8.484192708333333,61.886993787063204
1361382810.25,1.3471672916666666,33.71,85.02249998506666,8.615442708333333,61.886993787063204
1361382810.5,1.3467935416666668,33.71,85.05166666666666,8.832500000000001,61.886993787063204
1361382810.75,1.3464732083333333,33.71,85.08083334826667,8.941510416666667,61.886993787063204
1361382811.0,1.3461528749999998,33.71,85.11,8.794010416666667,61.886993787063204
1361382811.25,1.3458325416666668,33.71,85.12666665813333,8.717760416666666,61.886993787063204
1361382811.5,1.3453520416666667,33.71,85.14333333333333,8.496458333333335,61.886993787063204
1361382811.75,1.3446046249999999,33.71,85.16000000853333,8.391692708333332,61.886993787063204
1361382812.0,1.3438571666666668,33.71,85.17666666666666,8.417395833333334,61.886993787063204
1361382812.25,1.3430029166666666,33.71,85.18249999701334,8.454322916666667,61.886993787063204
1361382812.5,1.3422020416666667,33.71,85.18833333333333,8.47640625,61.886993787063204
1361382812.75,1.3413478333333335,33.71,85.19416666965333,8.513125,61.886993787063204
1361382813.0,1.34044025,33.71,85.2,8.484661458333333,61.886993787063204
1361382813.25,1.3394792500000001,33.71,85.19750000128,8.395911458333334,61.886993787063204
1361382813.5,1.3384648749999999,33.71,85.195,8.148203125,61.886993787063204
1361382813.75,1.3373437499999998,33.71,85.19249999872,8.042994791666667,61.886993787063204
1361382814.0,1.33616925,33.71,85.19,8.597291666666667,61.886993787063204
1361382814.25,1.33499475,33.71,85.18166667093332,8.956901041666667,61.886993787063204
1361382814.5,1.334033791666667,33.71,85.17333333333332,9.545416666666668,61.886993787063204
1361382814.75,1.3331795833333333,33.71,85.16499999573333,10.454401041666667,61.886993787063204
1361382815.0,1.332272,33.71,85.15666666666665,10.966354166666667,61.886993787063204
1361382815.25,1.3314712083333333,33.71,85.14166667434665,10.866770833333334,61.886993787063204
1361382815.5,1.3306704166666667,33.71,85.12666666666665,11.292473958333332,61.886993787063204
1361382815.75,1.329976375,33.71,85.11166665898665,11.665078125,61.886993787063204
1361382816.0,1.3293357083333335,33.71,85.09666666666665,11.460468749999999,61.886993787063204
1361382816.25,1.3287484583333333,33.71,85.07583334399999,11.485520833333334,61.886993787063204
1361382816.5,1.328321375,33.71,85.05499999999998,11.890104166666667,61.886993787063204
1361382816.75,1.3280010416666665,33.71083333333333,85.03416665599998,11.736328125,61.886993787063204
1361382817.0,1.3277874583333333,33.7125,85.01333333333332,10.936666666666666,61.886993787063204
1361382817.25,1.327573875,33.714166666666664,84.98833334613332,10.334348958333335,61.886993787063204
1361382817.5,1.3273602916666667,33.715833333333336,84.96333333333331,9.796484375,61.886993787063204
1361382817.75,1.3273602916666667,33.71666666666666,84.93833332053332,8.442317708333333,61.886993787063204
1361382818.0,1.3277874166666666,33.71666666666667,84.91333333333331,7.127994791666667,61.886993787063204
1361382818.25,1.3283747083333333,33.71666666666666,84.88250001578665,6.570364583333333,61.886993787063204
1361382818.5,1.329015375,33.71666666666667,84.85166666666666,5.557031249999999,61.886993787063204
1361382818.75,1.3296560416666665,33.7175,84.82083331754667,4.23734375,61.886993787063204
1361382819.0,1.3302967083333332,33.719166666666666,84.79,3.885026041666667,61.886993787063204
1361382819.25,1.3309373749999998,33.72083333333333,84.75916668245334,3.27921875,61.886993787063204
1361382819.5,1.3314712499999999,33.7225,84.72833333333332,2.0555729166666667,61.886993787063204
1361382819.75,1.3318449583333332,33.72333333333333,84.69749998421332,1.7558333333333336,61.886993787063204
1361382820.0,1.3320585416666666,33.72333333333333,84.66666666666666,1.92953125,61.886993787063204
1361382820.25,1.332272125,33.723333333333336,84.63750001493332,1.8977864583333333,61.886993787063204
1361382820.5,1.3324857083333332,33.72333333333333,84.60833333333332,1.4288020833333333,61.87611746773606
1361382820.75,1.3324857083333332,33.72416666666667,84.57916665173333,2.299765625,61.85452518574825
1361382821.0,1.3321119583333332,33.725833333333334,84.55,3.496328125,61.829553733547264
1361382821.25,1.3315246666666667,33.7275,84.52500001279999,4.678958333333333,61.80458228134626
1361382821.5,1.330884,33.729166666666664,84.5,5.765520833333333,61.77961082914527
1361382821.75,1.3301899166666666,33.73,84.4749999872,7.132369791666666,61.75937021524275
1361382822.0,1.3293356666666667,33.73,84.44999999999999,8.150755208333333,61.73710209921231
1361382822.25,1.3283212500000001,33.73,84.42666667861332,9.049609375000001,61.72289530068275
1361382822.5,1.3272534583333335,33.73,84.40333333333332,10.246614583333335,61.72289530068275
1361382822.75,1.3261856666666667,33.73,84.37999998805333,11.135078125,61.72289530068275
1361382823.0,1.3251178333333333,33.73,84.35666666666665,11.680625,61.72289530068275
1361382823.25,1.3239966250000001,33.73,84.33583334399998,12.287265624999998,61.72289530068275
1361382823.5,1.3227686666666667,33.73,84.31499999999998,13.308932291666666,61.7337716200099
1361382823.75,1.321594125,33.73,84.29416665599999,13.403229166666664,61.755363901997704
1361382824.0,1.320526375,33.73,84.27333333333331,13.354218750000001,61.78033535419869
1361382824.25,1.3194585833333334,33.73,84.25833334101331,13.031979166666666,61.80530680639969
1361382824.5,1.3184975833333332,33.73,84.24333333333333,12.871536458333333,61.830278258600686
1361382824.75,1.3175365833333332,33.73,84.22833332565332,12.669036458333332,61.85051887250321
1361382825.0,1.3166823333333333,33.73,84.21333333333332,12.069270833333333,61.87278698853365
1361382825.25,1.315934875,33.73,84.20500000426665,11.499088541666666,61.886993787063204
1361382825.5,1.3152942083333334,33.73,84.19666666666666,10.974010416666667,61.886993787063204
1361382825.75,1.3146535416666667,33.73,84.18833332906667,10.337291666666667,61.886993787063204
1361382826.0,1.3141730833333332,33.73,84.17999999999999,9.642916666666666,61.886993787063204
1361382826.25,1.3137459999999999,33.73,84.17833333418666,9.069661458333334,61.886993787063204
1361382826.5,1.3135324166666666,33.73,84.17666666666666,8.388515625,61.886993787063204
1361382826.75,1.3134255833333335,33.73,84.17499999914666,7.4209375,61.886993787063204
1361382827.0,1.3133187499999999,33.73,84.17333333333333,6.697864583333334,61.886993787063204
1361382827.25,1.3133187499999999,33.73,84.17583333205333,6.189322916666668,61.886993787063204
1361382827.5,1.3134788750000002,33.73,84.17833333333333,5.272473958333333,61.886993787063204
1361382827.75,1.3137992083333334,33.73083333333333,84.18083333461333,4.265130208333333,61.886993787063204
1361382828.0,1.31427975,33.732499999999995,84.18333333333332,3.1882812499999997,61.886993787063204
1361382828.25,1.3148136666666665,33.73416666666667,84.18833333077333,2.0407291666666665,61.886993787063204
1361382828.5,1.3153475833333332,33.73583333333333,84.19333333333333,1.3196614583333333,61.886993787063204
1361382828.75,1.3160416666666668,33.737500000000004,84.19833333589332,0.31557291666666665,61.886993787063204
1361382829.0,1.3166823333333333,33.73916666666667,84.20333333333333,-0.19557291666666662,61.886993787063204
1361382829.25,1.317269625,33.740833333333335,84.21083332949334,-0.43473958333333323,61.886993787063204
1361382829.5,1.3177501666666667,33.7425,84.21833333333333,-1.3061979166666666,61.886993787063204
1361382829.75,1.3180705416666665,33.744166666666665,84.22583333717333,-1.0108333333333333,61.886993787063204
1361382830.0,1.318284125,33.74583333333333,84.23333333333333,-0.5579947916666665,61.886993787063204
1361382830.25,1.318284125,33.7475,84.23916666368,-1.148046875,61.886993787063204
1361382830.5,1.3177502499999998,33.74916666666667,84.245,-0.7876822916666666,61.886993787063204
1361382830.75,1.3168960416666666,33.75,84.25083333632,0.5156770833333335,61.886993787063204
1361382831.0,1.3158282499999998,33.75,84.25666666666666,2.269375,61.886993787063204
1361382831.25,1.3146002916666666,33.75,84.25999999829332,4.1040625,61.88589918407603
1361382831.5,1.3131587916666667,33.75,84.26333333333332,5.269296875,61.87371475989198
1361382831.75,1.3116105,33.75,84.26666666837333,6.712994791666667,61.850221079950394
1361382832.0,1.3100088333333333,33.75,84.27,7.776197916666667,61.82330384386853
1361382832.25,1.30835375,33.75,84.27833332906667,8.503515625,61.79384822123968
1361382832.5,1.3066452499999999,33.75,84.28666666666666,9.825911458333334,61.76490027592023
1361382832.75,1.3049901666666666,33.75,84.29500000426665,10.259479166666667,61.73696768521956
1361382833.0,1.3033885,33.75,84.30333333333333,10.149166666666666,61.71106580375649
1361382833.25,1.3018936250000002,33.75,84.31999999146666,11.075494791666666,61.68364089036521
1361382833.5,1.3006657083333335,33.75,84.33666666666666,11.503229166666666,61.65646981562865
1361382833.75,1.2996513333333333,33.74916666666666,84.35333334186666,10.866197916666666,61.63082177282026
1361382834.0,1.2986903333333333,33.747499999999995,84.36999999999999,10.345338541666667,61.60589185096748
1361382834.25,1.2978360833333333,33.74583333333333,84.39583332010666,9.7878125,61.60322574099732
1361382834.5,1.297142,33.744166666666665,84.42166666666665,9.218671875,61.6137102101477
1361382834.75,1.2965013333333333,33.7425,84.44750001322664,8.844557291666666,61.64527681360459
1361382835.0,1.29580725,33.740833333333335,84.47333333333331,8.400078125,61.678159412806544
1361382835.25,1.2951131666666666,33.73916666666666,84.50083331925332,7.91765625,61.715687958950696
1361382835.5,1.2943123333333333,33.7375,84.52833333333332,7.613307291666666,61.75060126739024
1361382835.75,1.2934047083333333,33.73666666666666,84.55583334741333,7.225625,61.7866067816062
1361382836.0,1.2925504583333332,33.73666666666666,84.58333333333333,7.05921875,61.8205815865846
1361382836.25,1.2917495833333332,33.73666666666666,84.60499998890667,6.869635416666667,61.85607942349119
1361382836.5,1.2908953333333333,33.73666666666666,84.62666666666667,6.453828125,61.9108205046149
1361382836.75,1.2899343333333333,33.737500000000004,84.64833334442666,6.398359374999999,61.96533835933522
1361382837.0,1.2890267499999999,33.73916666666667,84.67,6.149687499999999,62.015730727179914
1361382837.25,1.2881191666666667,33.740833333333335,84.68666665813333,6.035833333333334,62.000658129168905
1361382837.5,1.2871047916666667,33.7425,84.70333333333333,6.580989583333333,61.98352477323423
1361382837.75,1.2860370416666667,33.744166666666665,84.72000000853333,6.6089843749999995,61.9770627342707
1361382838.0,1.2850760833333335,33.74583333333333,84.73666666666666,7.101640624999999,61.99996718306255
1361382838.25,1.2841685,33.7475,84.75083332608,7.799114583333334,62.02076407145918
1361382838.5,1.2833676666666667,33.74916666666667,84.765,8.076145833333333,62.04366852025103
1361382838.75,1.2827270000000002,33.74916666666666,84.77916667392,8.738385416666667,62.06446540864766
1361382839.0,1.2820863333333334,33.7475,84.79333333333334,9.14921875,62.08526229704429
1361382839.25,1.2814456666666667,33.74583333333334,84.81166665728,9.347630208333333,62.106059185440905
1361382839.5,1.2809117500000002,33.744166666666665,84.83,9.856510416666667,62.10719156716533
1361382839.75,1.2803778333333335,33.74333333333333,84.84833334272,10.059140625,62.105182481560924
1361382840.0,1.2796837916666668,33.74333333333333,84.86666666666666,10.300572916666667,62.103810921162506
1361382840.25,1.2790965416666669,33.74333333333333,84.89166665386666,10.67640625,62.14883526323691
1361382840.5,1.2785627083333335,33.74333333333333,84.91666666666666,10.281640625,62.18109015038849
1361382840.75,1.278135625,33.7425,84.94166667946665,10.44515625,62.170719313962614
1361382841.0,1.2776551250000001,33.74083333333333,84.96666666666665,10.2684375,62.13308955017657
1361382841.25,1.277174625,33.73916666666667,84.99833331711999,9.559453125,62.09545978639053
1361382841.5,1.2766941666666667,33.737500000000004,85.02999999999999,9.472213541666667,62.05783002260449
1361382841.75,1.2761603333333333,33.7375,85.06166668287999,9.068671875,62.02020025881845
1361382842.0,1.2756265000000002,33.73916666666666,85.09333333333332,8.711536458333333,61.982570495032405
1361382842.25,1.2750926666666667,33.740833333333335,85.13083331413333,8.903541666666667,61.94494073124636
1361382842.5,1.2745588333333333,33.7425,85.16833333333332,8.635729166666666,61.907478391260696
1361382842.75,1.2741317500000002,33.7425,85.20583335253332,8.591770833333333,61.87185771307906
1361382843.0,1.2738647916666668,33.740833333333335,85.24333333333333,8.791171875,61.83900687561146
1361382843.25,1.2735444583333333,33.73916666666666,85.28249997994666,8.466354166666667,61.80405589263129
1361382843.5,1.2733308749999999,33.7375,85.32166666666666,8.789479166666666,61.780480362659084
1361382843.75,1.2731172916666667,33.73666666666666,85.36083335338665,9.013151041666665,61.780480362659084
1361382844.0,1.272957125,33.736666666666665,85.39999999999999,8.992734375,61.780564653582765
1361382844.25,1.2727969583333334,33.736666666666665,85.43583331498667,9.778932291666667,61.78022726885498
1361382844.5,1.2726901666666668,33.736666666666665,85.47166666666666,10.037708333333333,61.77988988412718
1361382844.75,1.27263675,33.73583333333333,85.50750001834666,10.237343749999999,61.777190806304844
1361382845.0,1.2725833333333332,33.73416666666667,85.54333333333334,10.788854166666667,61.77609414016473
1361382845.25,1.2725299166666666,33.732499999999995,85.57833331541333,10.532291666666666,61.76799264834951
1361382845.5,1.2724765,33.73083333333333,85.61333333333333,10.740963541666666,61.76427964500627
1361382845.75,1.2724765,33.73,85.64833335125333,10.881770833333333,61.76967214664719
1361382846.0,1.2724765,33.73,85.68333333333332,10.381171875,61.775064648288094
1361382846.25,1.2724764999999998,33.73,85.71416665087999,10.769192708333334,61.78045714992901
1361382846.5,1.272529875,33.73,85.74499999999999,10.003072916666666,61.787243653484786
1361382846.75,1.2727967916666667,33.73,85.77583334911999,8.707421875,61.792636155125706
1361382847.0,1.2734374166666667,33.73,85.80666666666666,8.445833333333335,61.79794436584294
1361382847.25,1.2748789166666665,33.73,85.83583331839999,6.997395833333333,61.803674252211636
1361382847.5,1.2770145,33.73,85.865,6.034557291666668,61.80940413858034
1361382847.75,1.2795237916666666,33.73083333333333,85.8941666816,5.225390625,61.817495718043595
1361382848.0,1.2823534166666666,33.732499999999995,85.92333333333333,3.9934895833333335,61.82398488582462
1361382848.25,1.2851830416666667,33.73416666666667,85.94499998890666,3.6360677083333335,61.83747887928076
1361382848.5,1.2880126666666667,33.73583333333333,85.96666666666667,2.7495833333333337,61.84658438426491
1361382848.75,1.290788875,33.736666666666665,85.98833334442666,2.277317708333334,61.84658438426491
1361382849.0,1.2935650833333334,33.736666666666665,86.00999999999999,2.288828125,61.84658438426491
1361382849.25,1.2963412916666668,33.736666666666665,86.02499999231999,1.73546875,61.84658438426491
1361382849.5,1.2988505416666667,33.736666666666665,86.03999999999998,2.552473958333333,61.84658438426491
1361382849.75,1.3009860833333333,33.7375,86.05500000767998,3.623411458333333,61.84658438426491
1361382850.0,1.3026411666666666,33.73916666666666,86.06999999999998,3.996015625,61.84658438426491
1361382850.25,1.3034420000000002,33.740833333333335,86.07583333034665,5.2334375,61.84557342254942
1361382850.5,1.3033885833333334,33.7425,86.08166666666665,5.777578124999999,61.84203505654522
1361382850.75,1.302641125,33.7425,86.08750000298664,6.73765625,61.835711616469105
1361382851.0,1.3010394166666668,33.74083333333333,86.09333333333332,7.682005208333333,61.8191300069293
1361382851.25,1.2990640000000002,33.73916666666666,86.09666666495998,8.505703125,61.81508616006735
1361382851.5,1.2969818333333334,33.7375,86.09999999999998,9.654557291666668,61.80876271999124
1361382851.75,1.2947395000000002,33.736666666666665,86.10333333503998,10.023828125,61.79788009348684
1361382852.0,1.292390375,33.736666666666665,86.10666666666664,10.564296875,61.78357807716119
1361382852.25,1.289987875,33.73666666666666,86.10916666538665,10.967942708333332,61.77041585744261
1361382852.5,1.2876922083333333,33.736666666666665,86.11166666666665,10.495963541666667,61.746482836272826
1361382852.75,1.2854499166666666,33.73583333333333,86.11416666794665,10.66203125,61.72837819480483
1361382853.0,1.2832609583333334,33.73416666666666,86.11666666666666,10.4546875,61.72319455133581
1361382853.25,1.2811254166666666,33.732499999999995,86.11916666538666,10.012421875,61.72016166618934
1361382853.5,1.2791500416666668,33.73083333333333,86.12166666666667,10.231145833333334,61.719656185331594
1361382853.75,1.2773882083333332,33.73083333333333,86.12416666794667,9.517421875,61.72193577854575
1361382854.0,1.276106875,33.732499999999995,86.12666666666667,9.173307291666667,61.734473541223615
1361382854.25,1.2751992499999998,33.73416666666666,86.12749999957333,8.508880208333334,61.7344735412236
1361382854.5,1.2743983749999999,33.735833333333325,86.12833333333333,7.7192187500000005,61.73675313443777
1361382854.75,1.2737576666666666,33.7375,86.12916666709333,7.784427083333333,61.74359191408022
1361382855.0,1.2732237499999999,33.73916666666666,86.13,7.227239583333333,61.75385008354392
1361382855.25,1.2727432083333332,33.740833333333335,86.13,6.800625,61.76296845640055
1361382855.5,1.2723160416666666,33.7425,86.13,7.16546875,61.78285763070838
1361382855.75,1.2719422916666667,33.744166666666665,86.13,6.650338541666666,61.79691842531442
1361382856.0,1.2715685833333332,33.74583333333333,86.13,6.494921875,61.7980582219215
1361382856.25,1.271194875,33.747499999999995,86.12916666709333,6.750963541666667,61.7980582219215
1361382856.5,1.2708211666666667,33.74916666666666,86.12833333333333,6.378645833333334,61.7980582219215
1361382856.75,1.2705008333333334,33.75,86.12749999957333,6.859791666666667,61.7980582219215
1361382857.0,1.270127125,33.75,86.12666666666667,7.135156249999999,61.7980582219215
1361382857.25,1.2697000416666666,33.75,86.12416666794667,7.251692708333333,61.79463883210027
1361382857.5,1.2692729583333333,33.75,86.12166666666667,7.689192708333334,61.77754188299411
1361382857.75,1.2687925,33.75,86.11916666538666,7.4847656250000005,61.75930513728087
1361382858.0,1.26820525,33.75,86.11666666666666,7.73453125,61.74676737460302
1361382858.25,1.267618,33.75,86.11166666922665,8.087838541666667,61.746423308965156
1361382858.5,1.2669773333333332,33.75,86.10666666666665,7.782161458333333,61.74607924332732
1361382858.75,1.2662832916666666,33.75,86.10166666410666,8.10859375,61.73724892413052
1361382859.0,1.2655892499999999,33.75,86.09666666666665,8.267109375,61.72585095805976
1361382859.25,1.2649485833333334,33.75,86.08666667178665,8.029765625000001,61.7468524131855
1361382859.5,1.2643079166666666,33.75,86.07666666666665,8.253203125,61.781961555590016
1361382859.75,1.2636672916666667,33.75,86.06666666154666,7.8515364583333325,61.816903274194146
1361382860.0,1.2629732916666667,33.75,86.05666666666666,7.626302083333333,61.85050560239535
1361382860.25,1.2622258750000002,33.75,86.04166667434666,7.468854166666667,61.87282630182977
1361382860.5,1.2614250833333334,33.75,86.02666666666666,7.003749999999999,61.91302485157425
1361382860.75,1.2606242916666668,33.75,86.01166665898666,6.910625,61.92778720175297
1361382861.0,1.259876875,33.75,85.99666666666666,6.570416666666667,61.93196315286017
1361382861.25,1.2591294583333335,33.75,85.97666667690666,6.2137239583333335,61.91000905430962
1361382861.5,1.2584888333333335,33.75,85.95666666666666,6.132994791666666,61.892235861544386
1361382861.75,1.2579549583333334,33.75083333333334,85.93666665642667,5.708359375,61.888523463385205
1361382862.0,1.2574744583333333,33.752500000000005,85.91666666666667,5.405651041666666,61.89574052367064
1361382862.25,1.2569405416666666,33.75416666666667,85.89833334272,5.10875,61.875706832333044
1361382862.5,1.256406625,33.755833333333335,85.88,4.70640625,61.822480431525456
1361382862.75,1.2559260833333334,33.7575,85.86166665728,4.53640625,61.76663418399469
1361382863.0,1.255659125,33.759166666666665,85.84333333333332,4.242994791666667,61.72471588346585
1361382863.25,1.255552375,33.76083333333334,85.82916667391999,4.160572916666666,61.7119137401028
1361382863.5,1.255552375,33.7625,85.81499999999998,4.110677083333333,61.7150806225387
1361382863.75,1.255659125,33.764166666666675,85.80083332607998,3.7690104166666667,61.74893142926482
1361382864.0,1.2558192916666666,33.76583333333334,85.78666666666665,3.4678906250000003,61.7770900708245
1361382864.25,1.2559260833333334,33.767500000000005,85.78000000341332,2.9446614583333335,61.81881615800259
1361382864.5,1.256032875,33.76916666666667,85.77333333333331,2.640755208333333,61.85955396671678
1361382864.75,1.2561396666666667,33.77,85.76666666325332,2.388411458333333,61.892451818997266
1361382865.0,1.2562998333333335,33.77,85.75999999999999,2.204453125,61.91698785970709
1361382865.25,1.2565667916666667,33.77,85.75750000128,2.1534635416666665,61.93687926325501
1361382865.5,1.2569405416666666,33.77,85.755,2.007916666666667,61.981014017072766
1361382865.75,1.2574210416666667,33.77,85.75249999872,1.9680468749999998,62.02747523400699
1361382866.0,1.257848125,33.77,85.75,1.83703125,62.06151586087673
1361382866.25,1.258542125,33.77,85.75249999872,1.6431250000000002,62.07215913215574
1361382866.5,1.2593962916666666,33.77,85.755,1.7692447916666667,62.050476136376346
1361382866.75,1.260303875,33.77,85.75750000128,2.2970572916666665,62.01148991558329
1361382867.0,1.2615318333333332,33.77,85.75999999999999,3.305598958333334,61.984729651683445
1361382867.25,1.2631335,33.77,85.76833332906666,4.198854166666667,61.97594873353893
1361382867.5,1.2649487083333333,33.77,85.77666666666667,4.410052083333333,61.95200773014756
1361382867.75,1.2669240833333333,33.77,85.78500000426666,4.508046875000001,61.91395952512122
1361382868.0,1.2688460833333333,33.77,85.79333333333334,4.267213541666667,61.8749416702528
1361382868.25,1.2707680833333332,33.77,85.80999999146667,4.7559375,61.827292202629934
1361382868.5,1.2726900416666667,33.77,85.82666666666667,5.494218750000001,61.761927465507576
1361382868.75,1.2745586249999998,33.76916666666667,85.84333334186667,7.171953125000001,61.70271188849119
1361382869.0,1.2768543333333333,33.767500000000005,85.86,8.922369791666668,61.63700532848261
1361382869.25,1.2792568333333334,33.76583333333334,85.88416665429332,9.284895833333334,61.597372157279715
1361382869.5,1.2814457916666666,33.76416666666667,85.90833333333333,8.072838541666666,61.56743647764251
1361382869.75,1.2835813333333335,33.7625,85.93250001237332,6.252083333333332,61.554763583696676
1361382870.0,1.285449875,33.76083333333333,85.95666666666665,4.096354166666667,61.54002116587896
1361382870.25,1.28715825,33.759166666666665,85.98833331711998,2.53578125,61.48531472409249
1361382870.5,1.2889200416666666,33.7575,86.01999999999998,2.5240885416666665,61.43990062281091
1361382870.75,1.2906284583333332,33.755833333333335,86.05166668288,2.9011979166666664,61.410859138550904
1361382871.0,1.2924970416666668,33.75416666666667,86.08333333333333,3.615572916666667,61.38278730413299
1361382871.25,1.2945792083333334,33.752500000000005,86.12499997866666,3.2758072916666667,61.362843050057954
1361382871.5,1.2966614166666668,33.75083333333333,86.16666666666666,2.6069270833333333,61.35545573740379
1361382871.75,1.2986902500000002,33.75,86.20833335466666,0.7989322916666669,61.34238007205075
1361382872.0,1.3002919583333334,33.75,86.25,-1.0296874999999999,61.33562742315539
1361382872.25,1.3014665416666669,33.75,86.30249997311999,-1.0065625,61.31178360246731
1361382872.5,1.302641125,33.75,86.35499999999999,0.48604166666666676,61.29039924044783
1361382872.75,1.3037623333333332,33.75,86.40750002688,2.457708333333333,61.2649473896333
1361382873.0,1.3048301666666668,33.75,86.46,4.344973958333333,61.23991868699999
1361382873.25,1.3057378333333334,33.75,86.52249996799999,5.855572916666667,61.237243569579455
1361382873.5,1.3063785416666667,33.75,86.585,6.282395833333333,61.24021346636601
1361382873.75,1.3069124583333334,33.75,86.647500032,6.62875,61.2639726406584
1361382874.0,1.3072862083333334,33.75,86.71,6.690494791666667,61.287731814950774
1361382874.25,1.307393,33.75,86.77916663125333,7.090078124999999,61.30703614406334
1361382874.5,1.307446375,33.75,86.84833333333333,7.500546875,61.324855524782635
1361382874.75,1.3073929583333335,33.74916666666667,86.91750003541333,8.027916666666666,61.34861469907502
1361382875.0,1.3073929583333335,33.747499999999995,86.98666666666666,8.689375,61.36791902818758
1361382875.25,1.3074463333333333,33.74583333333333,87.06166662826666,8.628098958333334,61.3842534605136
1361382875.5,1.3076064583333333,33.744166666666665,87.13666666666666,8.637760416666667,61.394648099266526
1361382875.75,1.3077665833333334,33.7425,87.21166670506665,8.311848958333334,61.39464809926651
1361382876.0,1.3079267083333332,33.740833333333335,87.28666666666665,8.013020833333334,61.39464809926651
1361382876.25,1.3079800833333335,33.73916666666667,87.36583329279998,7.993932291666667,61.39435039837334
1361382876.5,1.3080334583333333,33.7375,87.44499999999998,7.614583333333333,61.39078509980043
1361382876.75,1.3080868333333333,33.736666666666665,87.52416670719998,7.300130208333333,61.36634546632363
1361382877.0,1.3081402083333333,33.736666666666665,87.60333333333331,7.046015624999999,61.34190583284684
1361382877.25,1.3081402083333333,33.736666666666665,87.68666662399998,6.618619791666667,61.32192104454986
1361382877.5,1.3080868333333335,33.736666666666665,87.76999999999998,6.662604166666667,61.303421204646156
1361382877.75,1.30814025,33.7375,87.853333376,6.3637500000000005,61.27898157116936
1361382878.0,1.30814025,33.73916666666667,87.93666666666667,6.226354166666667,61.258996782872394
1361382878.25,1.308086875,33.740833333333335,88.02249995605334,6.289192708333332,61.24198189136197
1361382878.5,1.3078733333333334,33.7425,88.10833333333332,5.851015625,61.23090679342463
1361382878.75,1.307606375,33.744166666666665,88.19416671061332,5.973671875,61.23022633424023
1361382879.0,1.3072860416666667,33.74583333333333,88.27999999999999,5.8703125,61.22954587505581
1361382879.25,1.3069657083333333,33.7475,88.36083329194665,5.54265625,61.229163116764575
1361382879.5,1.3066453750000002,33.74916666666667,88.44166666666665,5.612708333333334,61.22907805936653
1361382879.75,1.3063250416666667,33.75,88.52250004138665,5.29671875,61.22907805936653
1361382880.0,1.3060047083333333,33.75,88.60333333333331,5.364973958333334,61.22907805936653
1361382880.25,1.30573775,33.75,88.67749996202664,5.393515625,61.22907805936653
1361382880.5,1.3054707916666668,33.75,88.75166666666665,5.124687499999999,61.22907805936653
1361382880.75,1.3052038333333333,33.75,88.82583337130666,5.317057291666667,61.22907805936653
1361382881.0,1.304936875,33.75,88.89999999999999,5.1809375,61.22907805936653
1361382881.25,1.3046699166666667,33.75,88.96583329962667,5.162343750000001,61.22907805936653
1361382881.5,1.304563125,33.75,89.03166666666667,5.358072916666667,61.22907805936653
1361382881.75,1.3046699166666669,33.74916666666667,89.09750003370667,5.185286458333334,61.22907805936653
1361382882.0,1.304936875,33.747499999999995,89.16333333333334,5.295598958333334,61.22907805936653
1361382882.25,1.3053105833333334,33.74583333333333,89.22749996714667,5.3617187500000005,61.22907805936653
1361382882.5,1.3057376666666667,33.744166666666665,89.29166666666667,5.3628906249999995,61.22907805936653
1361382882.75,1.306218125,33.7425,89.35583336618667,5.502760416666667,61.22907805936653
1361382883.0,1.3066985833333333,33.740833333333335,89.42,5.358125,61.22907805936653
1361382883.25,1.3071790416666669,33.73916666666666,89.48083330218667,5.387812499999999,61.22907805936653
1361382883.5,1.3076595,33.7375,89.54166666666667,5.391015624999999,61.22907805936653
1361382883.75,1.3081399583333333,33.73583333333333,89.60250003114668,5.211276041666667,61.23777742205741
1361382884.0,1.3086204166666666,33.73416666666666,89.66333333333334,5.120859374999999,61.262894271415256
1361382884.25,1.3091542916666665,33.732499999999995,89.72249996970666,4.7853125,61.28801112077311
1361382884.5,1.3096348333333332,33.73083333333333,89.78166666666667,4.49140625,61.324956635491226
1361382884.75,1.3099552083333332,33.73,89.84083336362666,4.19796875,61.36899934942553
1361382885.0,1.3101153749999999,33.73,89.89999999999998,3.820520833333333,61.41304206335982
1361382885.25,1.3102755416666667,33.73,89.96083330218664,3.521015625,61.45708477729411
1361382885.5,1.3102755416666667,33.73,90.02166666666665,3.1985156249999993,61.501127491228395
1361382885.75,1.3101687916666667,33.73,90.08250003114665,3.084661458333333,61.54517020516269
1361382886.0,1.3100620416666666,33.73,90.14333333333332,3.015390625,61.58921291909698
1361382886.25,1.3099552916666666,33.73,90.20999996586664,2.9639843749999994,61.633255633031276
1361382886.5,1.3098485416666665,33.73,90.27666666666664,2.960651041666667,61.67729834696558
1361382886.75,1.3097417916666665,33.73,90.34333336746666,3.113567708333333,61.71264169820898
1361382887.0,1.3095816666666666,33.73,90.40999999999998,3.3248177083333332,61.73156756278542
1361382887.25,1.30931475,33.73,90.48499996159998,3.7068749999999997,61.750493427361874
1361382887.5,1.3089944166666667,33.73,90.55999999999999,4.1034375,61.75759062657804
1361382887.75,1.3086740833333332,33.729166666666664,90.6350000384,4.529322916666667,61.75759062657804
1361382888.0,1.3084071666666666,33.7275,90.71,5.049609375,61.75759062657804
1361382888.25,1.30814025,33.725833333333334,90.78916662613332,5.471979166666667,61.75759062657804
1361382888.5,1.3079267083333332,33.72416666666667,90.86833333333333,6.044609375,61.75759062657804
1361382888.75,1.3077131666666666,33.72333333333333,90.94750004053333,6.3640625,61.75759062657804
1361382889.0,1.307499625,33.723333333333336,91.02666666666666,6.693437500000001,61.75759062657804
1361382889.25,1.3071792916666667,33.72333333333333,91.10416662698665,7.118958333333334,61.75759062657804
1361382889.5,1.3068589583333334,33.72333333333333,91.18166666666666,7.269401041666668,61.75759062657804
1361382889.75,1.306538625,33.7225,91.25916670634666,7.558385416666667,61.75759062657804
