timestamp,EDA,TEMP,HR,BVP,ACC_mag
1362585853.0,0.004804750000000001,30.21,,14.639427083333333,61.43289021363068
1362585853.25,0.004850500000000001,30.21,,14.474285714285715,61.43289021363068
1362585853.5,0.004964937500000001,30.21,,15.598515625000001,61.43289021363068
1362585853.75,0.005053944444444445,30.21111111111111,,16.483125,61.43289021363068
1362585854.0,0.00512515,30.213,,16.53071875,61.43289021363068
1362585854.25,0.005125136363636364,30.214545454545455,,15.245795454545457,61.447243629360166
1362585854.5,0.005231916666666667,30.215833333333336,,13.538828125,61.48636530878925
1362585854.75,0.005392083333333333,30.2175,,13.622395833333336,61.53160793510208
1362585855.0,0.005498875,30.219166666666666,,13.752760416666668,61.576850561414915
1362585855.25,0.005659041666666667,30.220833333333335,,12.135989583333334,61.62741877983694
1362585855.5,0.005765833333333334,30.2225,,8.677057291666667,61.69550790974989
1362585855.75,0.005926,30.224999999999998,,4.670104166666667,61.78653842265492
1362585856.0,0.006032791666666668,30.228333333333335,,2.2174218750000008,61.919114490602006
1362585856.25,0.006139583333333334,30.231666666666666,,0.15143229166666722,62.074183387123405
1362585856.5,0.0061395833333333346,30.235,,-3.0500781249999993,62.21505632531307
1362585856.75,0.006139583333333334,30.235833333333336,,-6.154479166666666,62.348164043612265
1362585857.0,0.0061395833333333346,30.234166666666667,,-7.658489583333334,62.49654097971074
1362585857.25,0.006299791666666668,30.2325,,-6.708880208333333,62.61926242067878
1362585857.5,0.006353208333333335,30.230833333333333,,-4.942942708333333,62.70801397927229
1362585857.75,0.0064600000000000005,30.215833333333336,,-4.314401041666667,62.8125671939265
1362585858.0,0.006566791666666668,30.1875,,-3.9361197916666666,62.926313816149154
1362585858.25,0.0076345833333333335,30.159166666666664,,-2.2986718749999997,63.023830342789275
1362585858.5,0.008702375,30.13083333333334,,-0.1132552083333331,63.110656475702605
1362585858.75,0.0120125,30.10166666666667,,2.8245572916666664,63.177297757678815
1362585859.0,0.01793866666666667,30.07166666666667,,5.18828125,63.205135865539255
1362585859.25,0.025252916666666667,30.041666666666668,,6.834114583333332,63.19360704934235
1362585859.5,0.03262054166666666,30.01166666666667,,8.701614583333333,63.206789637543274
1362585859.75,0.04175,29.999166666666667,,10.456848958333333,63.22732469696598
1362585860.0,0.05087945833333333,30.004166666666666,,11.161770833333334,63.21209419369398
1362585860.25,0.059902125,30.009166666666662,,10.693671875,63.19599298659487
1362585860.5,0.06892479166666667,30.014166666666668,,10.058385416666667,63.177540430870714
1362585860.75,0.07832120833333332,30.06,,9.358020833333333,63.120584893803205
1362585861.0,0.08766425,30.146666666666665,,8.640104166666667,63.04785075774169
1362585861.25,0.09604629166666666,30.233333333333334,,7.871692708333334,62.978169601782646
1362585861.5,0.10442833333333333,30.319999999999997,,7.095989583333334,62.88891143068306
1362585861.75,0.11056804166666667,30.419166666666666,,5.791197916666667,62.769483591024084
1362585862.0,0.11232987499999998,30.530833333333334,,5.348645833333333,62.63122077725853
1362585862.25,0.10928675,30.642500000000002,,6.152083333333334,62.51540885901782
1362585862.5,0.11019441666666667,30.754166666666663,,8.576328125,62.38165729341509
1362585862.75,0.10464204166666667,30.849999999999998,,10.1928125,62.278481487831726
1362585863.0,0.09738120833333334,30.930000000000003,86.58500000000001,6.509557291666667,62.23216000457047
1362585863.25,0.09012037499999999,31.01,86.84208320170667,0.2448177083333336,62.28638604347848
1362585863.5,0.08200529166666666,31.09,87.09916666666668,-6.858515625,62.357113622153186
1362585863.75,0.07298258333333334,31.159166666666668,87.35625013162668,-13.017109374999999,62.44734169458408
1362585864.0,0.06385308333333332,31.2175,87.61333333333334,-16.377994791666666,62.57846183979356
1362585864.25,0.05472358333333333,31.275833333333335,88.12749973674667,-18.207395833333333,62.70962571295965
1362585864.5,0.045647458333333335,31.334166666666665,88.64166666666668,-18.79552083333333,62.87473762512437
1362585864.75,0.03641116666666667,31.38,89.15583359658667,-19.742421874999998,63.07574788256977
1362585865.0,0.028936708333333335,31.41333333333333,89.67,-22.79997395833333,63.295640227846185
1362585865.25,0.024879125000000002,31.446666666666662,89.76416661845333,-25.622708333333335,63.48551413050554
1362585865.5,0.01687075,31.48,89.85833333333333,-30.536640625,63.70873410558749
1362585865.75,0.014948708333333333,31.501666666666665,89.95250004821334,-34.768489583333334,63.90912383810279
1362585866.0,0.017191041666666667,31.511666666666667,90.04666666666667,-33.64221354166667,64.08220925942744
1362585866.25,0.026213749999999997,31.521666666666665,90.74083297792001,-29.592526041666662,64.1345813318678
1362585866.5,0.05217183333333333,31.531666666666666,91.435,-24.24411458333333,64.15706190795153
1362585866.75,0.09613304166666665,31.525000000000002,92.12916702208,-20.014166666666668,64.16850087194756
1362585867.0,0.147771125,31.501666666666665,92.82333333333334,-18.134010416666666,64.13688481792902
1362585867.25,0.1998252083333333,31.478333333333335,93.9816660736,-17.725208333333335,64.12206888175085
1362585867.5,0.25215737499999996,31.455000000000002,95.14,-17.804270833333334,64.0774183819027
1362585867.75,0.30898533333333333,31.43166666666667,96.2983339264,-16.4815625,64.00097715807378
1362585868.0,0.37359691666666667,31.408333333333335,97.45666666666666,-13.515677083333332,63.92996124670094
1362585868.25,0.44525583333333324,31.385,98.88999926613333,-12.110104166666666,63.905510667504814
1362585868.5,0.5210902083333333,31.361666666666668,100.32333333333332,-10.08796875,63.845903561150955
1362585868.75,0.5964469166666666,31.35166666666667,101.75666740053333,-8.015859375,63.761064556488634
1362585869.0,0.6684372499999999,31.355,103.19,-6.019166666666667,63.662733800072424
1362585869.25,0.7345576666666666,31.358333333333334,104.30999942656,-4.380338541666667,63.59965914099629
1362585869.5,0.7846532083333333,31.361666666666668,105.43,-3.287395833333333,63.564400036730454
1362585869.75,0.8172261249999999,31.363333333333333,106.55000057344,-2.052473958333333,63.5497237642885
1362585870.0,0.8422823333333334,31.363333333333333,107.67,-1.52328125,63.56097477423992
1362585870.25,0.8669225416666667,31.363333333333333,108.56416620885334,-0.6518749999999999,63.544871257960864
1362585870.5,0.8912312916666666,31.363333333333333,109.45833333333334,-0.05697916666666666,63.547466623819666
1362585870.75,0.9031821250000002,31.365000000000006,110.35250045781333,-0.21609374999999997,63.58227801625825
1362585871.0,0.897846125,31.368333333333336,111.24666666666667,-1.8423958333333335,63.6092010402677
1362585871.25,0.8675915416666666,31.37166666666667,111.94333297664001,-3.706197916666666,63.61334685555331
1362585871.5,0.8330518750000001,31.375,112.64000000000001,-8.657578125,63.62627882206229
1362585871.75,0.7797698750000001,31.37666666666667,113.33666702336001,-13.756562500000001,63.660334154328446
1362585872.0,0.7273983333333333,31.37666666666667,114.03333333333335,-14.663854166666667,63.696419713324794
1362585872.25,0.6741163333333334,31.376666666666665,114.62166636544,-14.905520833333334,63.73290600505013
1362585872.5,0.6207780833333333,31.376666666666665,115.21000000000001,-15.646822916666666,63.778501400636344
1362585872.75,0.5711630416666668,31.378333333333334,115.79833363456,-16.44755208333333,63.83225108896289
1362585873.0,0.539379875,31.38166666666667,116.38666666666666,-15.687578125,63.84973559239854
1362585873.25,0.5158830833333333,31.385,116.77166646954666,-15.832421875000001,63.88952506630587
1362585873.5,0.49238629166666664,31.388333333333332,117.15666666666667,-17.096041666666668,63.91477698907181
1362585873.75,0.4733347083333334,31.386666666666667,117.54166686378666,-18.958333333333332,63.93209500786614
1362585874.0,0.46378633333333336,31.38,117.92666666666666,-18.573046875,63.96342397774378
1362585874.25,0.47210920833333336,31.373333333333335,118.13999989077334,-16.250677083333333,63.98529492262338
1362585874.5,0.48054170833333326,31.36666666666667,118.35333333333334,-8.022161458333334,64.02173895220214
1362585874.75,0.5165117083333334,31.36,118.56666677589334,1.4529427083333335,64.04830215799379
1362585875.0,0.5628925416666667,31.353333333333335,118.78000000000002,5.741822916666666,64.09150378698895
1362585875.25,0.6120607499999999,31.346666666666668,118.78833332906667,7.308307291666666,64.12626250595109
1362585875.5,0.6612289583333334,31.340000000000003,118.79666666666668,8.690546875,64.1402732442573
1362585875.75,0.7066739583333334,31.33333333333333,118.80500000426667,10.269296875,64.1472803662182
1362585876.0,0.7224881249999999,31.326666666666664,118.81333333333333,10.430677083333334,64.17616957034646
1362585876.25,0.7300159166666665,31.319999999999997,118.67416673792,10.888072916666667,64.2067372879916
1362585876.5,0.7392410416666667,31.313333333333333,118.535,13.692838541666667,64.24319083525394
1362585876.75,0.7593575,31.31083333333333,118.39583326207999,20.425026041666666,64.28052750377176
1362585877.0,0.7794739583333333,31.3125,118.25666666666666,24.155546875,64.29337144962243
1362585877.25,0.8023777916666667,31.314166666666665,118.01333345792,22.330963541666666,64.31733054738957
1362585877.5,0.8273666666666667,31.31583333333333,117.77000000000001,17.03513020833333,64.29818863077375
1362585877.75,0.8433973333333333,31.31833333333333,117.52666654208001,9.5559375,64.298621332419
1362585878.0,0.8475222916666668,31.321666666666662,117.28333333333335,1.5602864583333333,64.2525199344572
1362585878.25,0.8453755833333333,31.325,116.97833348949334,-3.685546875,64.20861374649185
1362585878.5,0.8377832083333333,31.328333333333333,116.67333333333335,-7.5571875,64.17871805822641
1362585878.75,0.8228765833333332,31.331666666666667,116.36833317717334,-11.025520833333333,64.12921708518147
1362585879.0,0.8270831666666667,31.335000000000004,116.06333333333333,-13.448177083333333,64.0705407795802
1362585879.25,0.835667625,31.338333333333335,115.78333347669333,-11.558177083333334,64.00132980679973
1362585879.5,0.8445946666666666,31.34166666666667,115.50333333333333,-10.531822916666666,63.955807829359706
1362585879.75,0.8492506250000001,31.34416666666667,115.22333318997333,-13.228411458333333,63.92548661432394
1362585880.0,0.8550811249999999,31.34583333333333,114.94333333333333,-15.544921875,63.9003154312501
1362585880.25,0.8581242499999999,31.3475,114.7016667904,-12.028463541666667,63.88825747586811
1362585880.5,0.8590823333333333,31.349166666666665,114.46,-13.234661458333333,63.89988693225953
1362585880.75,0.859293,31.35,114.2183332096,-18.8946875,63.891935642899824
1362585881.0,0.861746,31.35,113.97666666666667,-23.48817708333333,63.92389756058529
1362585881.25,0.8676832916666667,31.35,113.7558334464,-28.981328125,63.96254198951377
1362585881.5,0.8790662499999998,31.35,113.535,-34.553906250000004,63.9892477569237
1362585881.75,0.8977634583333334,31.35,113.31416655359999,-32.05684895833333,64.02326472597717
1362585882.0,0.9091464166666666,31.35,113.09333333333332,-23.611848958333336,64.06353917420364
1362585882.25,0.9157777916666667,31.35,112.90166676479998,-18.12497395833333,64.10580083068311
1362585882.5,0.9200489166666667,31.35,112.71,-16.520416666666666,64.11379791478812
1362585882.75,0.9212234999999999,31.35,112.5183332352,-16.248307291666666,64.09088270937785
1362585883.0,0.9212235416666665,31.35,112.32666666666667,-9.344661458333334,64.07081344854342
1362585883.25,0.9211167916666666,31.35,112.08666678954667,-3.450572916666667,64.02236366240352
1362585883.5,0.9207430833333333,31.35,111.84666666666666,7.473541666666667,63.97572595157203
1362585883.75,0.9199422916666666,31.35,111.60666654378667,24.419557291666667,63.91109877520742
1362585884.0,0.9183940416666666,31.35,111.36666666666667,44.02380208333333,63.78589475648919
1362585884.25,0.9165788333333333,31.35,111.07833348096,64.17302083333333,63.61405776459261
1362585884.5,0.9146568333333334,31.35,110.78999999999999,82.14278645833333,63.41355272505627
1362585884.75,0.9117204583333333,31.351666666666663,110.50166651904,89.18002604166666,63.19861246524405
1362585885.0,0.9077697083333334,31.355000000000004,110.21333333333332,88.72526041666669,62.98379401580686
1362585885.25,0.9040324999999999,31.358333333333334,109.87083350869332,86.03729166666666,62.771901745111656
1362585885.5,0.9002952916666667,31.361666666666668,109.52833333333332,85.36799479166667,62.568366080311556
1362585885.75,0.896291125,31.36666666666667,109.18583315797332,85.25244791666667,62.36660972536848
1362585886.0,0.892073375,31.373333333333335,108.84333333333332,78.246875,62.16701272679382
1362585886.25,0.8879624166666668,31.38,108.50750017194666,70.34218750000001,61.9816794180367
1362585886.5,0.8841184166666668,31.386666666666667,108.17166666666665,62.77729166666666,61.79982305668926
1362585886.75,0.8807014999999999,31.39333333333333,107.83583316138666,54.82986979166666,61.64261887591936
1362585887.0,0.8771777916666667,31.400000000000002,107.5,44.57617187500001,61.53838186564914
1362585887.25,0.8738676666666666,31.406666666666666,107.18083349674667,33.933984375,61.47788152185051
1362585887.5,0.8707177083333333,31.413333333333338,106.86166666666668,24.902682291666668,61.44848473399526
1362585887.75,0.868582125,31.41916666666667,106.54249983658667,18.31447916666667,61.43289226601322
1362585888.0,0.8675677083333332,31.424166666666665,106.22333333333334,12.241875,61.417299798031166
1362585888.25,0.8667134583333334,31.429166666666664,105.92750015146667,7.018307291666666,61.40170733004911
1362585888.5,0.8662863333333332,31.434166666666666,105.63166666666667,3.2115625,61.38691969464008
1362585888.75,0.8661795416666668,31.4375,105.33583318186668,0.6757291666666667,61.3842045478259
1362585889.0,0.866393125,31.439166666666665,105.04,-0.44976562499999995,61.38148940101174
1362585889.25,0.86682025,31.440833333333334,104.76833347242668,-1.0619531249999998,61.37877425419757
1362585889.5,0.867834625,31.4425,104.49666666666667,-1.5546354166666665,61.37605910738341
1362585889.75,0.8699167916666667,31.445833333333336,104.22499986090666,-2.0663541666666667,61.37334396056925
1362585890.0,0.8734405,31.450833333333332,103.95333333333333,-2.444479166666667,61.37062881375508
1362585890.25,0.87861925,31.45583333333333,103.7116667904,-2.888515625,61.36825306029269
1362585890.5,0.8853996666666667,31.46083333333333,103.47,-3.449609375,61.36774397026503
1362585890.75,0.893408,31.465833333333332,103.22833320960001,-3.893697916666667,61.36774397026503
1362585891.0,0.901686125,31.47083333333333,102.98666666666668,-3.824505208333333,61.36774397026503
1362585891.25,0.9101778333333334,31.47583333333333,102.73416679594668,-3.4198697916666667,61.374648735514256
1362585891.5,0.9188325833333334,31.480833333333337,102.48166666666668,-3.161640625,61.3956535723268
1362585891.75,0.9277008749999999,31.486666666666665,102.22916653738667,-2.7717968749999997,61.41665840913935
1362585892.0,0.9364623750000001,31.49333333333333,101.97666666666667,-2.2079947916666667,61.4376632459519
1362585892.25,0.945167625,31.5,101.72250013013334,-1.7712239583333333,61.45866808276443
1362585892.5,0.9536564583333332,31.50666666666667,101.46833333333333,-1.5593489583333333,61.479672919576984
1362585892.75,0.9614007083333332,31.5125,101.21416653653333,-1.3633854166666666,61.500677756389535
1362585893.0,0.9679198750000001,31.517500000000002,100.96,-1.20796875,61.52168259320208
1362585893.25,0.972837375,31.522500000000004,100.71416679253333,-0.9876302083333331,61.54268743001462
1362585893.5,0.9760998333333334,31.527500000000003,100.46833333333333,-0.6044791666666667,61.56369226682717
1362585893.75,0.9781343749999999,31.531666666666666,100.22249987413333,-0.30416666666666664,61.58469710363972
1362585894.0,0.980433,31.535,99.97666666666667,-0.344296875,61.60570194045226
1362585894.25,0.9833722500000001,31.538333333333338,99.77916676778668,-0.4135416666666667,61.61980201201558
1362585894.5,0.9871094583333333,31.541666666666668,99.58166666666668,-0.29052083333333334,61.61980201201558
1362585894.75,0.9914339583333334,31.545,99.38416656554666,-0.3843489583333333,61.61980201201558
1362585895.0,0.996025375,31.548333333333332,99.18666666666667,-0.47388020833333333,61.61980201201558
1362585895.25,1.0007798333333333,31.551666666666666,99.03750007637333,-0.6013281250000001,61.61980201201558
1362585895.5,1.0058575416666666,31.555000000000003,98.88833333333332,-0.7114843750000001,61.61980201201558
1362585895.75,1.0112527083333334,31.55916666666667,98.73916659029332,-0.7540364583333333,61.61980201201558
1362585896.0,1.0170720833333333,31.564166666666665,98.58999999999999,-0.76375,61.61980201201558
1362585896.25,1.02347875,31.569166666666664,98.47083339434666,-0.8196354166666667,61.61980201201558
1362585896.5,1.0302057500000001,31.574166666666667,98.35166666666666,-0.8295833333333333,61.61980201201558
1362585896.75,1.0370395,31.57916666666667,98.23249993898668,-0.7769791666666667,61.61980201201558
1362585897.0,1.0432325833333331,31.584166666666665,98.11333333333334,-0.5738541666666667,61.61980201201558
1362585897.25,1.0485714583333332,31.589166666666667,98.01250005162667,-0.36380208333333336,61.61980201201558
1362585897.5,1.0528425416666667,31.594166666666666,97.91166666666666,-0.24786458333333336,61.61980201201558
1362585897.75,1.0563127916666666,31.598333333333333,97.81083328170666,-0.05166666666666667,61.61980201201558
1362585898.0,1.0595161249999998,31.601666666666663,97.71,0.08013020833333333,61.61980201201558
1362585898.25,1.0622923333333334,31.605,97.61250004991999,0.29039062499999996,61.61980201201558
1362585898.5,1.0638939583333331,31.608333333333334,97.51499999999999,0.6607291666666667,61.61980201201558
1362585898.75,1.06421425,31.610833333333332,97.41749995008,0.9772395833333333,61.61980201201558
1362585899.0,1.0636803333333333,31.6125,97.32,1.1910156250000001,61.61980201201558
1362585899.25,1.0622387916666665,31.614166666666666,97.21750005247999,1.5516145833333332,61.61980201201558
1362585899.5,1.0599964166666667,31.61583333333333,97.11500000000001,1.8825520833333333,61.61980201201558
1362585899.75,1.057220208333333,31.61916666666666,97.01249994752001,2.0815625,61.61980201201558
1362585900.0,1.0541770833333333,31.624166666666667,96.91000000000001,2.3528125,61.61980201201558
1362585900.25,1.0509204166666666,31.629166666666666,96.80416672085335,2.648255208333333,61.61980201201558
1362585900.5,1.04729,31.63416666666667,96.69833333333334,2.8065885416666667,61.61980201201558
1362585900.75,1.0432324583333334,31.639166666666664,96.59249994581333,2.874713541666667,61.61980201201558
1362585901.0,1.038908,31.644166666666667,96.48666666666666,3.148828125,61.61980201201558
1362585901.25,1.03437,31.64916666666667,96.37583339008,3.2676822916666666,61.61980201201558
1362585901.5,1.0302057083333331,31.65416666666667,96.265,3.1003125,61.61980201201558
1362585901.75,1.0266820833333332,31.65833333333333,96.15416660992,2.982682291666667,61.61980201201558
1362585902.0,1.0234787916666666,31.661666666666665,96.04333333333334,3.1011458333333337,61.61980201201558
1362585902.25,1.0205958333333334,31.665000000000003,95.92750005930667,3.0000520833333333,61.61980201201558
1362585902.5,1.0179264583333334,31.668333333333337,95.81166666666667,2.7993229166666667,61.61980201201558
1362585902.75,1.015524,31.67,95.69583327402667,2.87234375,61.61980201201558
1362585903.0,1.0132282916666668,31.67,95.58,2.877421875,61.61980201201558
1362585903.25,1.0110393333333334,31.67,95.46166672725333,2.7594531250000003,61.61853387264185
1362585903.5,1.0090639583333332,31.67,95.34333333333333,2.7425,61.6109586404346
1362585903.75,1.0075157083333333,31.670833333333334,95.22499993941334,2.8596354166666664,61.58145889363572
1362585904.0,1.006234375,31.672500000000003,95.10666666666667,2.9243229166666667,61.548600727181565
1362585904.25,1.005273375,31.674166666666668,94.99916672170667,3.3527864583333336,61.516720856978566
1362585904.5,1.003831875,31.675833333333333,94.89166666666667,4.516171875,61.48484098677556
1362585904.75,1.0018030833333331,31.677500000000006,94.78416661162666,5.725546875,61.45296111657254
1362585905.0,0.9991336249999999,31.67916666666667,94.67666666666666,6.335130208333333,61.42108124636953
1362585905.25,0.9958769166666666,31.680833333333336,94.58833337856,7.177812499999999,61.38920137616652
1362585905.5,0.9925134166666667,31.6825,94.5,7.969609375,61.35732150596351
1362585905.75,0.98898975,31.68416666666667,94.41166662143999,8.258515625,61.32544163576049
1362585906.0,0.9855194583333332,31.685833333333335,94.32333333333332,8.409010416666666,61.293561765557484
1362585906.25,0.9820491666666668,31.6875,94.25416670208,8.677317708333334,61.25301253925115
1362585906.5,0.9786322916666667,31.689166666666665,94.185,8.989010416666666,61.19799686830149
1362585906.75,0.975108625,31.690833333333334,94.11583329791999,9.228463541666667,61.164905711943476
1362585907.0,0.9715315416666667,31.692500000000006,94.04666666666667,9.279401041666667,61.13901185435996
1362585907.25,0.9679010833333334,31.694166666666664,93.98583336448,8.983307291666668,61.10983915542955
1362585907.5,0.9648045416666666,31.695833333333336,93.925,8.046145833333332,61.08912729362831
1362585907.75,0.9621884999999999,31.698333333333334,93.86416663552,7.002031250000001,61.07072293286229
1362585908.0,0.9600529583333333,31.701666666666668,93.80333333333333,6.345416666666666,61.05346884464414
1362585908.25,0.9583445,31.705,93.74583336277333,5.49578125,61.05001802700051
1362585908.5,0.9568495833333333,31.708333333333332,93.68833333333333,4.8224479166666665,61.05001802700051
1362585908.75,0.9556216249999999,31.71166666666667,93.63083330389333,4.499505208333333,61.057359913323126
1362585909.0,0.9544470833333332,31.715,93.57333333333332,4.1974479166666665,61.08064918054973
1362585909.25,0.9530056249999999,31.718333333333334,93.51166669823999,3.8798697916666662,61.117054177399304
1362585909.5,0.9512437916666666,31.721666666666668,93.44999999999999,3.778619791666667,61.1742327117257
1362585909.75,0.9493217916666666,31.724166666666672,93.38833330176,3.434869791666667,61.2314112460521
1362585910.0,0.9472396666666666,31.72583333333333,93.32666666666667,3.2779947916666665,61.284750901259265
1362585910.25,0.945104125,31.727500000000003,93.26083336704001,3.60421875,61.34039110156218
1362585910.5,0.9429151666666667,31.729166666666668,93.195,3.8564843749999995,61.38757046473592
1362585910.75,0.9406728333333333,31.73166666666667,93.12916663296,3.8529166666666668,61.43244232687446
1362585911.0,0.938377125,31.735,93.06333333333333,4.388723958333333,61.47616391646512
1362585911.25,0.9360280416666665,31.738333333333333,92.99333336917334,4.756510416666667,61.506082235481266
1362585911.5,0.9337323333333334,31.741666666666664,92.92333333333335,4.661536458333333,61.53254973685376
1362585911.75,0.9313298333333333,31.745,92.85333329749334,5.101770833333333,61.55167535190367
1362585912.0,0.9287671666666667,31.748333333333335,92.78333333333335,5.613880208333334,61.554853586049575
1362585912.25,0.9265248333333332,31.751666666666665,92.71416670208,5.645859375000001,61.554853586049575
1362585912.5,0.9245494583333332,31.755,92.64500000000001,5.585755208333334,61.554853586049575
1362585912.75,0.9226808749999998,31.758333333333336,92.57583329792,6.071666666666666,61.554853586049575
1362585913.0,0.9209724166666667,31.761666666666667,92.50666666666666,6.0265625,61.554853586049575
1362585913.25,0.9193173333333333,31.765,92.43833336832,5.477109375,61.554853586049575
1362585913.5,0.9177156666666666,31.76833333333333,92.37,5.591354166666666,61.554853586049575
1362585913.75,0.9162207916666666,31.77,92.30166663167999,5.7890885416666675,61.554853586049575
1362585914.0,0.9146191250000001,31.77,92.23333333333333,5.114791666666666,61.554853586049575
1362585914.25,0.9128572916666666,31.77,92.16333336917333,5.1640625,61.554853586049575
1362585914.5,0.911148875,31.77,92.09333333333333,5.592760416666668,61.554853586049575
1362585914.75,0.9096006249999999,31.77,92.02333329749334,4.965052083333334,61.554853586049575
1362585915.0,0.9082659166666667,31.77,91.95333333333333,4.7309375000000005,61.554853586049575
1362585915.25,0.9069311666666667,31.77,91.88083337045333,5.229296875,61.554853586049575
1362585915.5,0.9057031666666666,31.77,91.80833333333334,5.116927083333333,61.554853586049575
1362585915.75,0.9045819583333334,31.77,91.73583329621334,4.795651041666667,61.554853586049575
1362585916.0,0.9034607916666667,31.77,91.66333333333334,5.213229166666666,61.554853586049575
1362585916.25,0.9023930416666667,31.77,91.58916670464001,5.3585416666666665,61.554853586049575
1362585916.5,0.9013786666666667,31.77,91.51500000000001,4.8035677083333335,61.554853586049575
1362585916.75,0.9003108750000001,31.77,91.44083329536001,4.747734374999999,61.554853586049575
1362585917.0,0.899456625,31.77,91.36666666666667,5.052578125,61.554853586049575
1362585917.25,0.8989760833333332,31.77,91.29166670506667,4.556979166666667,61.554853586049575
1362585917.5,0.89838875,31.77,91.21666666666667,4.417682291666667,61.554853586049575
1362585917.75,0.89764125,31.77,91.14166662826666,4.982317708333333,61.554853586049575
1362585918.0,0.896840375,31.77,91.06666666666666,4.674479166666667,61.554853586049575
1362585918.25,0.8959327499999999,31.77,90.99250003797333,3.9832291666666664,61.554853586049575
1362585918.5,0.89497175,31.77,90.91833333333332,4.271041666666666,61.554853586049575
1362585918.75,0.8940641249999999,31.770833333333332,90.84416662869332,4.113541666666666,61.554853586049575
1362585919.0,0.893103125,31.772499999999997,90.76999999999998,3.40671875,61.554853586049575
1362585919.25,0.8919819583333332,31.77416666666667,90.69500003839998,3.673489583333333,61.554853586049575
1362585919.5,0.890807375,31.775833333333335,90.61999999999998,3.9181510416666665,61.554853586049575
1362585919.75,0.8896862083333333,31.7775,90.54499996159998,3.3812239583333334,61.554853586049575
1362585920.0,0.8886718333333333,31.77916666666667,90.46999999999998,3.402473958333333,61.554853586049575
1362585920.25,0.8876574583333333,31.780833333333334,90.39916670293333,3.775677083333333,61.554853586049575
1362585920.5,0.8868032500000002,31.7825,90.32833333333332,3.1888020833333335,61.554853586049575
1362585920.75,0.8861092083333332,31.784166666666668,90.25749996373332,2.476171875,61.554853586049575
1362585921.0,0.8854151666666668,31.78583333333333,90.18666666666667,2.803411458333333,61.554853586049575
1362585921.25,0.8847745416666667,31.787499999999998,90.13750002517334,2.9055989583333335,61.554853586049575
1362585921.5,0.8843474583333334,31.78916666666667,90.08833333333334,2.1706510416666664,61.554853586049575
1362585921.75,0.8839203749999999,31.79,90.03916664149334,2.2964322916666666,61.554853586049575
1362585922.0,0.8836000416666666,31.79,89.99000000000001,2.6342447916666667,61.554853586049575
1362585922.25,0.8833331249999999,31.79,89.89666671445333,1.8997135416666666,61.554853586049575
1362585922.5,0.883119625,31.79,89.80333333333334,1.7533333333333336,61.554853586049575
1362585922.75,0.8828527083333334,31.79,89.70999995221334,2.272760416666667,61.554853586049575
1362585923.0,0.8824256250000001,31.79,89.61666666666666,1.754765625,61.554853586049575
1362585923.25,0.88189175,31.79,89.54000003925333,1.3801041666666667,61.55443024214939
1362585923.5,0.8812510833333332,31.79,89.46333333333334,1.921171875,61.54362761127417
1362585923.75,0.8805570416666667,31.79,89.38666662741333,2.08203125,61.5266770291627
1362585924.0,0.879863,31.79,89.31,1.5645833333333334,61.500804335244
1362585924.25,0.8791689166666666,31.79,89.23083337386667,1.7743489583333334,61.47433683387148
1362585924.5,0.8782612916666666,31.79,89.15166666666667,2.3774479166666667,61.44786933249898
1362585924.75,0.8772469166666667,31.79,89.07249995946667,2.1019270833333334,61.421401831126474
1362585925.0,0.8762325416666665,31.79,88.99333333333334,2.012994791666667,61.39493432975396
1362585925.25,0.8753249166666667,31.79,88.93250003114667,2.6066406250000003,61.36846682838145
1362585925.5,0.8744172916666666,31.79,88.87166666666667,2.5001562500000003,61.34199932700894
1362585925.75,0.8736164583333333,31.79,88.81083330218667,2.18359375,61.315531825636434
1362585926.0,0.8729757916666666,31.79,88.75,2.5651041666666665,61.28906432426391
1362585926.25,0.8724952916666666,31.79,88.60583340714666,2.6751302083333335,61.26302016679159
1362585926.5,0.8721749583333333,31.79,88.46166666666667,2.3863541666666666,61.24735529629431
1362585926.75,0.8722817083333333,31.78833333333333,88.31749992618667,2.606744791666667,61.23783837703326
1362585927.0,0.8729223333333334,31.784999999999997,88.17333333333333,2.8816406249999997,61.23379275193582
1362585927.25,0.8740435,31.781666666666666,87.944166784,2.61,61.215388391169796
1362585927.5,0.8754850416666667,31.778333333333332,87.715,2.3749739583333334,61.19698403040379
1362585927.75,0.8774070416666667,31.776666666666667,87.48583321599999,2.535546875,61.17857966963776
1362585928.0,0.8798629166666666,31.776666666666667,87.25666666666666,2.4603385416666668,61.16017530887174
1362585928.25,0.8824789583333333,31.776666666666667,86.985833472,2.195052083333333,61.141770948105716
1362585928.5,0.8850950000000001,31.776666666666667,86.715,2.2604947916666664,61.123366587339696
1362585928.75,0.8877110416666666,31.775833333333335,86.444166528,2.4141927083333337,61.10496222657368
1362585929.0,0.8903270833333332,31.774166666666662,86.17333333333333,2.3890364583333334,61.08655786580766
1362585929.25,0.89288975,31.772500000000004,85.89833347413334,2.455234375,61.068153505041636
1362585929.5,0.8953990416666667,31.770833333333332,85.62333333333333,2.737890625,61.04974914427561
1362585929.75,0.8974812500000001,31.770833333333332,85.34833319253333,2.7948958333333334,61.03134478350959
1362585930.0,0.8989227916666667,31.772500000000004,85.07333333333334,2.9169531249999996,61.0163912403872
1362585930.25,0.8998837916666665,31.77416666666667,84.79750014122666,3.1098177083333334,61.0163912403872
1362585930.5,0.9005244166666667,31.775833333333335,84.52166666666668,3.244401041666667,61.0163912403872
1362585930.75,0.9005777916666666,31.775833333333335,84.24583319210667,3.415260416666667,61.0163912403872
1362585931.0,0.899937125,31.77416666666667,83.97,3.56203125,61.0163912403872
1362585931.25,0.8990295,31.772499999999997,83.70000013824,3.7086458333333336,61.0163912403872
1362585931.5,0.8981218750000001,31.770833333333332,83.43,3.900104166666667,61.0163912403872
1362585931.75,0.8972142500000001,31.77,83.15999986176,3.848958333333334,61.0163912403872
1362585932.0,0.8963066249999999,31.77,82.89,3.7736718750000002,61.0163912403872
1362585932.25,0.895399,31.77,82.61916680533334,3.8606770833333335,61.0163912403872
1362585932.5,0.894491375,31.77,82.34833333333333,3.6695312500000004,61.0163912403872
1362585932.75,0.8938507083333332,31.77,82.07749986133334,3.3863020833333333,61.0163912403872
1362585933.0,0.8937973333333332,31.77,81.80666666666667,3.31234375,61.0163912403872
1362585933.25,0.8940109166666667,31.77,81.55916679338667,3.216796875,61.018736897403386
1362585933.5,0.8944380416666666,31.77,81.31166666666667,2.986822916666666,61.03101098786765
1362585933.75,0.8951854583333333,31.769166666666663,81.06416653994667,2.664322916666667,61.046009642910484
1362585934.0,0.8961464583333334,31.7675,80.81666666666666,2.395625,61.05419688650692
1362585934.25,0.8973210416666667,31.765833333333333,80.58750011733333,2.055963541666667,61.07260124727295
1362585934.5,0.8986557916666666,31.764166666666664,80.35833333333333,1.5951562499999998,61.091005608038955
1362585934.75,0.9000973333333332,31.7625,80.12916654933333,1.4821875,61.110047220143464
1362585935.0,0.9017524166666667,31.760833333333334,79.9,1.4043489583333333,61.12845158090949
1362585935.25,0.9037812083333333,31.75916666666667,79.72083342506667,1.2395833333333333,61.15577746041439
1362585935.5,0.9062905,31.757499999999997,79.54166666666667,1.3165885416666667,61.18738874175761
1362585935.75,0.9090133333333332,31.75583333333333,79.36249990826667,1.3175,61.22548710149323
1362585936.0,0.9116827499999999,31.754166666666666,79.18333333333334,1.1009895833333332,61.259389085827934
1362585936.25,0.9144589166666667,31.752499999999998,79.04583340373334,1.0648177083333332,61.29132690181927
1362585936.5,0.9173952916666667,31.750833333333333,78.90833333333333,1.222734375,61.3160067050722
1362585936.75,0.9212393333333333,31.75,78.77083326293332,1.5698697916666664,61.339106409765
1362585937.0,0.9258307916666667,31.75,78.63333333333333,1.961953125,61.36901752590419
1362585937.25,0.9303688333333332,31.75,78.53750004906667,2.1836197916666666,61.38871152487379
1362585937.5,0.9349602499999999,31.75,78.44166666666666,2.4944270833333335,61.408405523843406
1362585937.75,0.9400855416666666,31.75,78.34583328426666,2.6744791666666665,61.427462271474525
1362585938.0,0.9454777916666667,31.75,78.25,2.9240625000000002,61.44715627044412
1362585938.25,0.9506031249999999,31.75,78.16916670805334,2.9512760416666666,61.45792875067485
1362585938.5,0.95535475,31.75,78.08833333333334,2.781458333333333,61.46441582906727
1362585938.75,0.9598394166666666,31.75,78.00749995861332,2.760807291666666,61.46441582906726
1362585939.0,0.9640571666666666,31.75,77.92666666666666,2.5780989583333334,61.468612204468194
1362585939.25,0.96859525,31.75,77.84916670634667,2.4965364583333334,61.4724270911963
1362585939.5,0.9736137916666666,31.75,77.77166666666666,2.1721875,61.47357155721473
1362585939.75,0.978312,31.75,77.69416662698666,1.5884895833333335,61.47357155721473
1362585940.0,0.9829568333333333,31.75,77.61666666666666,1.2277604166666667,61.47365627076346
1362585940.25,0.9876016666666666,31.75,77.53916670634666,1.0586458333333333,61.48211257469307
1362585940.5,0.9920329583333333,31.75,77.46166666666666,0.8497916666666666,61.50308139892883
1362585940.75,0.9958235833333333,31.75,77.38416662698666,0.6269791666666666,61.52405022316458
1362585941.0,0.9991337083333334,31.75,77.30666666666666,0.08294270833333334,61.54501904740035
1362585941.25,1.0023370416666666,31.75,77.23583336959999,-0.2794270833333334,61.5659878716361
1362585941.5,1.0054335833333334,31.75,77.16499999999999,-0.42643229166666674,61.58695669587186
1362585941.75,1.00799625,31.75,77.0941666304,-0.49492187499999996,61.607925520107635
1362585942.0,1.010025,31.75,77.02333333333333,-0.28320312500000006,61.62889434434339
1362585942.25,1.0114130833333335,31.75,76.96583336277332,-0.35585937500000003,61.649863168579145
1362585942.5,1.01205375,31.75,76.90833333333333,-0.26494791666666667,61.67083199281492
1362585942.75,1.0120003333333334,31.749166666666667,76.85083330389334,-0.020338541666666685,61.69180081705067
1362585943.0,1.0111994583333332,31.747500000000002,76.79333333333334,-0.09731770833333336,61.71268492773769
1362585943.25,1.0103452083333333,31.745833333333334,76.76250001578667,-0.07296875000000001,61.72519744804386
1362585943.5,1.0094909583333334,31.74416666666667,76.73166666666667,-0.017994791666666687,61.72519744804386
1362585943.75,1.0086367083333332,31.743333333333336,76.70083331754667,-0.10708333333333335,61.72519744804386
1362585944.0,1.0077824583333332,31.743333333333336,76.67,0.15903645833333332,61.72519744804386
1362585944.25,1.0069282083333333,31.743333333333336,76.67666666325333,0.40161458333333333,61.72519744804386
1362585944.5,1.0060739583333331,31.743333333333336,76.68333333333334,0.5579427083333334,61.72519744804386
1362585944.75,1.0055934166666665,31.742500000000003,76.69000000341333,0.76359375,61.72519744804386
1362585945.0,1.005433208333333,31.740833333333338,76.69666666666666,0.87171875,61.72519744804386
1362585945.25,1.0050594583333332,31.739166666666666,76.73333331455999,1.080625,61.72519744804386
1362585945.5,1.0043654166666667,31.7375,76.76999999999998,1.1940364583333334,61.72519744804386
1362585945.75,1.0032442916666666,31.736666666666668,76.80666668543999,1.2069791666666665,61.71205141308232
1362585946.0,1.0017494166666665,31.736666666666665,76.84333333333332,1.29515625,61.69108258884655
1362585946.25,0.9997206666666666,31.736666666666668,76.90083330389332,1.2719010416666665,61.6701137646108
1362585946.5,0.9972114166666666,31.736666666666668,76.95833333333331,1.2498177083333333,61.64914494037504
1362585946.75,0.9943818333333333,31.735833333333332,77.01583336277332,1.4347395833333332,61.62618226385805
1362585947.0,0.9913920833333333,31.734166666666667,77.07333333333332,1.4505208333333333,61.588067599441054
1362585947.25,0.9882955416666667,31.7325,77.13166663679999,1.3400260416666667,61.563661771174644
1362585947.5,0.9850388333333333,31.730833333333333,77.19,1.1971875,61.54531483942166
1362585947.75,0.9817821250000001,31.73,77.2483333632,0.6849739583333334,61.53255514703824
1362585948.0,0.9786322083333333,31.73,77.30666666666667,0.011093749999999986,61.5158575048382
1362585948.25,0.9757492500000001,31.73,77.3608333056,-0.3792968749999999,61.50407169738375
1362585948.5,0.9731865833333333,31.73,77.41499999999999,-0.5298177083333333,61.48030240007653
1362585948.75,0.9712645833333333,31.73,77.4691666944,-0.23307291666666666,61.4670543536491
1362585949.0,0.9697163333333334,31.73,77.52333333333333,0.2584114583333334,61.46107776518633
1362585949.25,0.9692358333333333,31.73,77.56749997738666,0.345625,61.45412540672415
1362585949.5,0.9701968333333334,31.73,77.61166666666666,0.03317708333333335,61.445263749444216
1362585949.75,0.9724391666666666,31.73,77.65583335594667,-0.5723177083333333,61.43937181579673
1362585950.0,0.9755890833333333,31.73,77.7,-1.0764583333333333,61.44829240347092
1362585950.25,0.9790059583333334,31.73,77.73083331754667,-1.03828125,61.43692003863098
1362585950.5,0.9827965833333333,31.73,77.76166666666666,-0.83921875,61.42259115385303
1362585950.75,0.9865872083333334,31.73,77.79250001578666,-0.1672395833333333,61.3980001891413
1362585951.0,0.9903778333333334,31.73,77.82333333333332,0.837890625,61.3745432858166
1362585951.25,0.9941684583333333,31.73,77.85916664832,1.505494791666667,61.35220877875687
1362585951.5,0.9979590833333334,31.73,77.89500000000001,1.8431770833333336,61.344364696319964
1362585951.75,1.0013225416666667,31.729166666666668,77.93083335168001,1.7055468749999998,61.33978264930332
1362585952.0,1.0045258333333333,31.727499999999996,77.96666666666668,1.4032291666666667,61.33655811390782
1362585952.25,1.0068749166666666,31.725833333333338,78.00666664618667,1.5898958333333333,61.333418246590725
1362585952.5,1.0078892916666666,31.724166666666665,78.04666666666668,2.184635416666667,61.3315933283457
1362585952.75,1.0073554166666667,31.723333333333333,78.08666668714667,3.0001822916666665,61.31837915703888
1362585953.0,1.0048461666666668,31.723333333333333,78.12666666666667,3.785364583333333,61.30146378420579
1362585953.25,1.001803,31.723333333333333,78.16666664618667,3.9210937499999994,61.28329106019627
1362585953.5,0.9985462500000001,31.723333333333333,78.20666666666668,3.8339322916666667,61.26389110422374
1362585953.75,0.9952895,31.723333333333333,78.24666668714667,3.213203125,61.24669388783884
1362585954.0,0.9915522500000001,31.723333333333333,78.28666666666668,1.900052083333333,61.23409033918645
1362585954.25,0.9876014583333333,31.723333333333333,78.30583332352,0.6740885416666665,61.20824709957456
1362585954.5,0.9833837500000001,31.723333333333333,78.325,-0.2773177083333334,61.18006767301418
1362585954.75,0.9791126666666666,31.724166666666665,78.34416667648,-1.2490364583333335,61.151208312460575
1362585955.0,0.97500175,31.725833333333338,78.36333333333333,-2.4037760416666667,61.12132932965062
1362585955.25,0.971478125,31.727499999999996,78.3591666688,-3.787447916666667,61.091957258995336
1362585955.5,0.9684883749999998,31.729166666666668,78.35499999999999,-5.15328125,61.063179538085734
1362585955.75,0.96613925,31.73,78.3508333312,-6.416744791666667,61.0449005756646
1362585956.0,0.9650180833333333,31.73,78.34666666666666,-7.83859375,61.03108915376916
1362585956.25,0.9642706666666666,31.73,78.32333334527999,-9.275625,61.02507651102473
1362585956.5,0.96352325,31.73,78.3,-10.206796875,61.018426142750506
1362585956.75,0.9627758333333333,31.73,78.27666665472,-10.4428125,61.01791639081164
1362585957.0,0.9625622916666666,31.73,78.25333333333333,-9.452109375000001,61.01604361709493
1362585957.25,0.9626690833333332,31.73,78.21750001834667,-8.5259375,61.024147272682285
1362585957.5,0.9630962083333333,31.73,78.18166666666667,-8.152317708333333,61.031355986904394
1362585957.75,0.9638970416666667,31.73,78.14583331498666,-7.292682291666668,61.03314723846685
1362585958.0,0.9648580416666667,31.73,78.11,-5.641640625000001,61.03864982014147
1362585958.25,0.9655520833333333,31.73,78.07416668501332,-3.6267708333333335,61.05046015891653
1362585958.5,0.9660859583333332,31.73,78.03833333333333,-1.3856770833333332,61.07498848431522
1362585958.75,0.9665664583333333,31.73,78.00249998165333,1.2709635416666665,61.09594560030393
1362585959.0,0.9670469583333334,31.73,77.96666666666665,3.776223958333333,61.12127912079179
1362585959.25,0.9675274583333332,31.73,77.94166667946665,6.731328125,61.148354057601814
1362585959.5,0.9681147083333334,31.73,77.91666666666666,9.822135416666667,61.16845313418907
1362585959.75,0.9690757083333335,31.73,77.89166665386666,12.65505208333333,61.186243982138244
1362585960.0,0.9700367083333333,31.73,77.86666666666666,14.451640625000001,61.20878443679763
1362585960.25,0.9711044583333334,31.73,77.85166667434666,16.485026041666664,61.23110408521001
1362585960.5,0.9721187916666668,31.73,77.83666666666666,19.506067708333333,61.26927859605896
1362585960.75,0.973026375,31.73,77.82166665898666,22.55588541666667,61.30622020159854
1362585961.0,0.9737737916666666,31.73,77.80666666666666,24.296666666666667,61.33449290948433
1362585961.25,0.9750551249999999,31.73,77.80000000341333,25.936171875,61.35289947050362
1362585961.5,0.9763364583333334,31.73,77.79333333333332,26.589505208333332,61.344609391210234
1362585961.75,0.9776177916666665,31.73,77.78666666325333,25.07796875,61.342527040454065
1362585962.0,0.9788991249999999,31.73,77.78,24.240729166666668,61.337725479978424
1362585962.25,0.9801804583333333,31.73,77.78999999488,22.937187500000004,61.33386116686298
1362585962.5,0.9813550416666666,31.73,77.8,21.040937500000002,61.33845472110182
1362585962.75,0.9819422916666666,31.73,77.81000000511999,19.865520833333335,61.343810521793735
1362585963.0,0.9811948333333333,31.73,77.82,18.807473958333333,61.34662009831694
1362585963.25,0.9782050833333334,31.73,77.8449999872,17.151380208333332,61.34586254423474
1362585963.5,0.9738806249999999,31.73,77.87,14.654921875,61.33895328619314
1362585963.75,0.9693425833333333,31.73,77.8950000128,10.840338541666666,61.3523175921394
1362585964.0,0.9648045416666667,31.73,77.92,8.050208333333334,61.36244143096826
1362585964.25,0.9597325833333333,31.73,77.94999998464,5.333828125,61.385344691124516
1362585964.5,0.9546606249999999,31.73,77.98,2.938411458333333,61.429025467654895
1362585964.75,0.9495886666666666,31.73,78.01000001536,2.0252864583333334,61.464368352131096
1362585965.0,0.9449438333333333,31.73,78.04,0.7271875,61.507963820649735
1362585965.25,0.9410464583333334,31.73,78.06333332138666,0.1971875,61.55449024874989
1362585965.5,0.9372024583333333,31.73,78.08666666666667,-0.9548958333333334,61.57008697173537
1362585965.75,0.93490675,31.73,78.11000001194667,-3.3588541666666667,61.59864870832241
1362585966.0,0.9346398333333332,31.73,78.13333333333333,-4.805078125,61.619010594912105
1362585966.25,0.9366152083333333,31.73,78.15416665599999,-6.888593749999999,61.63773420292526
1362585966.5,0.9403524166666667,31.73,78.17499999999998,-9.882161458333334,61.643372435199716
1362585966.75,0.9447303333333333,31.729166666666668,78.195833344,-11.373463541666666,61.639320495892825
1362585967.0,0.9492684166666666,31.727499999999996,78.21666666666665,-13.019791666666668,61.649894266196945
1362585967.25,0.9538064999999999,31.725833333333338,78.24166665386666,-14.833645833333334,61.64360004049245
1362585967.5,0.9583445833333334,31.724166666666665,78.26666666666665,-16.551302083333333,61.63308693286516
1362585967.75,0.9631495833333333,31.72333333333333,78.29166667946666,-18.729739583333334,61.63275730060391
1362585968.0,0.9675274583333332,31.723333333333333,78.31666666666666,-20.565260416666668,61.62111988041247
1362585968.25,0.971157875,31.723333333333333,78.34416665258667,-22.734036458333335,61.60340844990265
1362585968.5,0.9747349166666667,31.723333333333333,78.37166666666667,-23.41869791666667,61.61964769392056
1362585968.75,0.97697725,31.723333333333333,78.39916668074666,-23.336302083333337,61.61294587515704
1362585969.0,0.9784721249999998,31.723333333333333,78.42666666666666,-25.169244791666667,61.609614857689515
1362585969.25,0.9794865416666667,31.723333333333333,78.45999998293333,-25.633072916666666,61.60978475222573
1362585969.5,0.9801806249999999,31.723333333333333,78.49333333333334,-24.618072916666666,61.61329969233858
1362585969.75,0.9802874166666666,31.724166666666665,78.52666668373334,-24.223229166666666,61.60983665335982
1362585970.0,0.9802340416666665,31.725833333333338,78.56,-24.050937500000003,61.59761889812135
1362585970.25,0.9801806666666666,31.727499999999996,78.60083331242667,-23.560026041666664,61.597791575985724
1362585970.5,0.9801272916666667,31.729166666666668,78.64166666666668,-22.555026041666668,61.595426582318716
1362585970.75,0.979807,31.73,78.68250002090667,-20.742786458333335,61.58548990055925
1362585971.0,0.9795400833333333,31.73,78.72333333333334,-19.184427083333333,61.57593135481158
1362585971.25,0.9793265416666666,31.73,78.77083330901334,-17.915651041666667,61.5651014705934
1362585971.5,0.9792197916666666,31.73,78.81833333333334,-18.126145833333336,61.541877565413905
1362585971.75,0.9791130416666666,31.73,78.86583335765334,-18.821119791666668,61.533583389102944
1362585972.0,0.9791664583333333,31.73,78.91333333333334,-17.921015625,61.520539275262166
1362585972.25,0.9795401666666667,31.73,78.96333330773334,-17.299062499999998,61.502704653923864
1362585972.5,0.9803409583333332,31.73,79.01333333333334,-17.015078125,61.48359476685797
1362585972.75,0.9822095416666666,31.73,79.06333335893333,-16.933854166666666,61.48637935103915
1362585973.0,0.9844518749999999,31.73,79.11333333333333,-16.718229166666667,61.48625067769962
1362585973.25,0.9866942083333332,31.73,79.16333330773332,-16.727890625,61.47757043460624
1362585973.5,0.9890967083333333,31.73,79.21333333333332,-17.015911458333335,61.46541543912665
1362585973.75,0.9916593749999999,31.73,79.26333335893332,-17.644635416666667,61.45299812637412
1362585974.0,0.9942220416666666,31.73,79.31333333333332,-18.354036458333336,61.429239127454004
1362585974.25,0.9971584166666666,31.73,79.37166663679999,-18.73796875,61.40496204328934
1362585974.5,1.0004150833333334,31.73,79.42999999999999,-18.42385416666667,61.38971998797888
1362585974.75,1.003725125,31.730833333333333,79.4883333632,-18.327916666666667,61.36731681544444
1362585975.0,1.006875,31.7325,79.54666666666667,-20.461458333333336,61.35407297911562
1362585975.25,1.0101316666666666,31.734166666666667,79.60583330304,-21.467083333333335,61.34468848669775
1362585975.5,1.0128544583333332,31.735833333333332,79.66499999999999,-20.274296875,61.33606603693273
1362585975.75,1.014669625,31.7375,79.72416669695998,-18.884296875,61.30187119505263
1362585976.0,1.0161110416666665,31.739166666666666,79.78333333333332,-20.017760416666665,61.270277773696876
1362585976.25,1.0175524583333333,31.74083333333333,79.83583330645332,-23.019609374999998,61.24287664320574
1362585976.5,1.0188337083333334,31.742500000000003,79.88833333333332,-27.262291666666666,61.218907955869916
1362585976.75,1.0185667083333334,31.74416666666667,79.94083336021333,-29.341796875000004,61.19820579468251
1362585977.0,1.0168048749999998,31.745833333333334,79.99333333333334,-31.009296875,61.18943832033787
1362585977.25,1.0145625833333334,31.747500000000002,80.03666664448001,-32.71955729166667,61.182967345151745
1362585977.5,1.0118397916666666,31.749166666666667,80.08000000000001,-32.88234375,61.174114966445565
1362585977.75,1.009063625,31.75,80.12333335552,-31.177421874999997,61.16534749210093
1362585978.0,1.0061807083333332,31.75,80.16666666666667,-27.652708333333333,61.154369527715254
1362585978.25,1.003137625,31.75,80.20999997781334,-25.739322916666666,61.14347706098625
1362585978.5,1.0000945416666667,31.75,80.25333333333333,-25.802239583333332,61.13385918256057
1362585978.75,0.9970514583333333,31.75,80.29666668885334,-25.564010416666665,61.1310068623117
1362585979.0,0.994008375,31.75,80.34,-22.784375,61.1310068623117
1362585979.25,0.9909652916666666,31.75,80.39166664021333,-17.90390625,61.1310068623117
1362585979.5,0.9879222083333333,31.75,80.44333333333333,-11.533619791666668,61.1310068623117
1362585979.75,0.9862672083333334,31.75,80.49500002645334,-7.293333333333334,61.15729035752711
1362585980.0,0.9861070416666666,31.75,80.54666666666667,-3.2701822916666665,61.191933970144184
1362585980.25,0.9860002499999999,31.75,80.59749997397333,0.7347656250000002,61.226577582761244
1362585980.5,0.9859468750000001,31.75,80.64833333333334,3.0066666666666673,61.261221195378305
1362585980.75,0.9858935,31.75,80.69916669269334,3.809270833333333,61.29586480799537
1362585981.0,0.9861604166666665,31.75,80.75,4.744401041666667,61.33050842061244
1362585981.25,0.9865874999999998,31.75,80.79583330986667,5.983151041666666,61.36515203322949
1362585981.5,0.9874416666666667,31.75,80.84166666666667,7.0324479166666665,61.39979564584656
1362585981.75,0.9888297083333333,31.75,80.88750002346667,7.9003645833333325,61.434439258463634
1362585982.0,0.9903779583333332,31.75,80.93333333333334,8.571067708333333,61.469082871080694
1362585982.25,0.9920863749999999,31.75,80.9666666496,8.936145833333333,61.503726483697754
1362585982.5,0.9937947916666664,31.75,81.0,9.155312499999999,61.53837009631482
1362585982.75,0.9955032083333334,31.75,81.03333335040001,9.355781250000001,61.54673021371647
1362585983.0,0.9971582499999999,31.75,81.06666666666668,9.276588541666667,61.54673021371647
1362585983.25,0.9988132916666665,31.75,81.09333331968001,9.065755208333334,61.54673021371647
1362585983.5,1.0004683333333333,31.75,81.12,8.921067708333334,61.54673021371647
1362585983.75,1.0019632083333332,31.749166666666667,81.14666668032,8.639140625,61.54673021371647
1362585984.0,1.0031377499999998,31.747500000000002,81.17333333333333,8.273046875,61.54673021371647
1362585984.25,1.00409875,31.745833333333334,81.19416665600001,7.968385416666667,61.54673021371647
1362585984.5,1.00457925,31.74416666666667,81.215,7.551354166666666,61.54673021371647
1362585984.75,1.0044190833333333,31.742500000000003,81.235833344,7.131302083333334,61.54673021371647
1362585985.0,1.0040453333333332,31.74083333333333,81.25666666666667,6.809921875000001,61.54673021371647
1362585985.25,1.0034580416666665,31.739166666666666,81.27999998805335,6.196302083333333,61.54673021371647
1362585985.5,1.002817375,31.7375,81.30333333333334,5.693541666666667,61.54673021371647
1362585985.75,1.0021233333333333,31.735833333333332,81.32666667861334,5.461848958333333,61.54673021371647
1362585986.0,1.0013759166666667,31.734166666666667,81.35000000000001,4.963593749999999,61.54673021371647
1362585986.25,1.0006285,31.7325,81.37666665301334,4.55359375,61.54673021371647
1362585986.5,0.9998810833333334,31.730833333333333,81.40333333333334,4.444088541666667,61.5457979936985
1362585986.75,0.9992938333333332,31.73,81.43000001365333,4.101692708333333,61.52926772190278
1362585987.0,0.9987065833333334,31.73,81.45666666666666,3.539140625,61.51138073483474
1362585987.25,0.9980659166666667,31.73,81.47999998805334,3.4028125,61.49773419535743
1362585987.5,0.9974252916666666,31.73,81.50333333333333,3.3579427083333333,61.48298491335587
1362585987.75,0.9968914583333333,31.729166666666668,81.52666667861332,3.0340624999999997,61.47946806017864
1362585988.0,0.9964109999999998,31.727500000000003,81.55,2.87953125,61.47726597642031
1362585988.25,0.9959839166666667,31.72583333333333,81.57083332266667,2.903619791666667,61.46968259944881
1362585988.5,0.9956102083333334,31.724166666666665,81.59166666666667,2.605546875,61.45472106982007
1362585988.75,0.9953432499999999,31.7225,81.61250001066666,2.217265625,61.43360493573929
1362585989.0,0.9951296666666667,31.72083333333333,81.63333333333334,2.3733333333333335,61.407643723295905
1362585989.25,0.9950762499999999,31.719166666666666,81.64666665984001,2.213125,61.37538421727459
1362585989.5,0.99528975,31.7175,81.66,1.9116145833333331,61.34248093542795
1362585989.75,0.9956100000000001,31.71666666666667,81.67333334016,2.07484375,61.31545367502799
1362585990.0,0.9960904583333333,31.716666666666665,81.68666666666667,2.2768489583333333,61.28231238981369
1362585990.25,0.9968379166666667,31.71666666666667,81.69833332736,2.0455729166666665,61.24493065700867
1362585990.5,0.9977455416666666,31.71666666666667,81.71000000000001,1.8600260416666667,61.208651666727896
1362585990.75,0.9987599166666667,31.7175,81.72166667264,1.80109375,61.1611402476228
1362585991.0,0.9998810416666665,31.719166666666666,81.73333333333333,1.6209114583333333,61.11231405909879
1362585991.25,1.0010555833333332,31.720833333333335,81.73916666368,1.7611458333333332,61.06886916378797
1362585991.5,1.0023902916666667,31.7225,81.745,1.948203125,61.032802421134384
1362585991.75,1.00431225,31.724166666666665,81.75083333632,2.1263020833333335,61.00289028293282
1362585992.0,1.0070350416666667,31.725833333333338,81.75666666666666,2.036328125,60.9807675389285
1362585992.25,1.010345125,31.727500000000003,81.75999999829332,2.125703125,60.9718131587829
1362585992.5,1.0143492916666668,31.729166666666668,81.76333333333332,2.1239322916666667,60.970323406149845
1362585992.75,1.0189407499999998,31.73,81.76666666837333,2.017682291666667,60.97855568384787
1362585993.0,1.0239592916666667,31.73,81.77,2.0783593750000002,60.99425870163254
1362585993.25,1.0294049166666668,31.73,81.77,2.2499479166666667,61.0099617194172
1362585993.5,1.03522425,31.73,81.77,2.452864583333333,61.01879466692108
1362585993.75,1.0416308749999998,31.73,81.77,2.7254166666666664,61.02664617581342
1362585994.0,1.048945125,31.73,81.77,2.9458854166666666,61.02762761442495
1362585994.25,1.0573271249999998,31.73,81.76833333418666,2.9281510416666663,61.02762761442495
1362585994.5,1.0668302916666665,31.73,81.76666666666667,3.053854166666666,61.02762761442495
1362585994.75,1.076814,31.73,81.76499999914667,3.15875,61.02762761442495
1362585995.0,1.086370625,31.73,81.76333333333334,3.353203125,61.02468329859033
1362585995.25,1.0951797916666666,31.73,81.76000000170667,3.6228125,61.01486891247492
1362585995.5,1.1030279583333333,31.73,81.75666666666666,3.953645833333333,60.99916589469024
1362585995.75,1.1101820833333333,31.73,81.75333333162666,4.2273958333333335,60.98346287690558
1362585996.0,1.1168557083333333,31.73,81.75,4.416223958333333,60.96775985912091
1362585996.25,1.1229420416666667,31.73,81.74666666837334,4.531822916666667,60.95205684133624
1362585996.5,1.1281741666666667,31.73,81.74333333333334,4.801744791666667,60.94322389383237
1362585996.75,1.13223175,31.73,81.73999999829334,4.988255208333333,60.93537238494003
1362585997.0,1.1348478333333334,31.73,81.73666666666668,5.042838541666667,60.93439094632849
1362585997.25,1.13634275,31.73,81.73666666666668,5.353151041666666,60.93439094632849
1362585997.5,1.1365563333333333,31.73,81.73666666666668,5.925703124999999,60.93439094632849
1362585997.75,1.1354351666666667,31.73,81.73666666666668,6.525208333333334,60.939641377550466
1362585998.0,1.1338868750000002,31.73,81.73666666666668,7.095442708333334,60.96274700217386
1362585998.25,1.1321784166666666,31.73,81.73833333248001,7.666614583333334,60.99750132403062
1362585998.5,1.1303097916666667,31.73,81.74000000000001,7.684661458333334,61.032935064050726
1362585998.75,1.1284411666666667,31.73,81.74166666752001,8.24421875,61.0702779339913
1362585999.0,1.1265725416666668,31.73,81.74333333333334,9.045572916666666,61.1116476015919
1362585999.25,1.1248107083333332,31.73,81.74499999914667,10.011145833333334,61.147844976687104
1362585999.5,1.1238497083333332,31.73,81.74666666666667,10.894140625,61.18327871670721
1362585999.75,1.1237429166666666,31.729166666666668,81.74833333418667,11.847109375,61.21408286070093
1362586000.0,1.1250242499999998,31.727499999999996,81.75,13.004817708333334,61.24017086989324
1362586000.25,1.1276937083333334,31.725833333333338,81.74583333546667,13.804739583333332,61.26349377505772
1362586000.5,1.1310038333333334,31.724166666666665,81.74166666666667,14.189531250000002,61.26040455693526
1362586000.75,1.1351682083333332,31.7225,81.73749999786666,14.383333333333333,61.24694193827094
1362586001.0,1.1402401666666666,31.720833333333335,81.73333333333333,14.510260416666668,61.21562412620522
1362586001.25,1.1454722916666666,31.719166666666666,81.72500000426666,14.537395833333335,61.17265761690613
1362586001.5,1.1508645833333333,31.7175,81.71666666666667,15.047578125000001,61.1290116894437
1362586001.75,1.156256875,31.715833333333332,81.70833332906668,14.854505208333334,61.08345663206078
1362586002.0,1.1616491666666666,31.714166666666667,81.7,14.340442708333335,61.033874777017864
1362586002.25,1.1671482083333333,31.712500000000002,81.68333334186667,13.551223958333333,61.009225955027404
1362586002.5,1.1723269166666666,31.71083333333333,81.66666666666667,12.574557291666666,60.999029933611546
1362586002.75,1.1772387083333333,31.71,81.64999999146667,11.679843750000002,60.99346350822207
1362586003.0,1.1811895000000001,31.71,81.63333333333334,10.771588541666667,60.992613217633995
1362586003.25,1.1837521666666666,31.71,81.61083334485333,9.764296875,60.99452803107377
1362586003.5,1.1856741666666666,31.71,81.58833333333334,8.662942708333333,61.02285496780048
1362586003.75,1.1872757916666667,31.71,81.56583332181334,7.888984375,61.05630487384706
1362586004.0,1.1887706666666666,31.71,81.54333333333334,7.2828124999999995,61.08975477989364
1362586004.25,1.190479125,31.71,81.51250001578667,6.581432291666666,61.123204685940216
1362586004.5,1.1921875833333333,31.71,81.48166666666667,5.988203124999999,61.156654591986786
1362586004.75,1.1938960416666666,31.71,81.45083331754667,5.709635416666667,61.19010449803338
1362586005.0,1.1956045,31.71,81.42,5.393984375,61.22355440407995
1362586005.25,1.1970994166666666,31.71,81.38833334954667,5.215885416666667,61.237243569579455
1362586005.5,1.1984875416666667,31.71,81.35666666666667,5.392734375,61.237243569579455
1362586005.75,1.199768875,31.71,81.32499998378667,5.351901041666667,61.237243569579455
1362586006.0,1.2010502083333334,31.71,81.29333333333334,5.1240625,61.237243569579455
1362586006.25,1.2023315416666667,31.71,81.26166668288,5.400755208333333,61.237243569579455
1362586006.5,1.2036128750000001,31.71,81.23,5.761953125000001,61.237243569579455
1362586006.75,1.2045739166666667,31.71,81.19833331712,5.732994791666667,61.237243569579455
1362586007.0,1.2047875000000001,31.71,81.16666666666667,5.963307291666666,61.237243569579455
1362586007.25,1.2054281666666669,31.71,81.12916668586666,6.3019791666666665,61.237243569579455
1362586007.5,1.2068696666666667,31.71,81.09166666666667,6.241328125,61.237243569579455
1362586007.75,1.2084179166666666,31.709166666666665,81.05416664746667,6.2859895833333335,61.237243569579455
1362586008.0,1.2099661666666668,31.7075,81.01666666666667,6.68890625,61.237243569579455
1362586008.25,1.2115144166666667,31.705833333333334,80.9708333568,6.709609375,61.237243569579455
1362586008.5,1.2130626666666666,31.704166666666666,80.925,6.416458333333334,61.237243569579455
1362586008.75,1.2146109166666668,31.7025,80.8791666432,6.544322916666666,61.237243569579455
1362586009.0,1.2161591666666667,31.700833333333335,80.83333333333333,6.539661458333334,61.237243569579455
1362586009.25,1.2174938333333334,31.699166666666667,80.78333335893333,6.098932291666667,61.237243569579455
1362586009.5,1.2186149583333334,31.6975,80.73333333333332,6.118151041666667,61.237243569579455
1362586009.75,1.2192555833333334,31.69666666666667,80.68333330773332,6.178671875,61.237243569579455
1362586010.0,1.2197360416666667,31.69666666666667,80.63333333333333,5.557213541666667,61.237243569579455
1362586010.25,1.2195758333333333,31.69666666666667,80.58916668927999,5.333125,61.237243569579455
1362586010.5,1.2186147916666668,31.69666666666667,80.54499999999999,5.485729166666666,61.237243569579455
1362586010.75,1.217547,31.6975,80.50083331072,5.016354166666667,61.237243569579455
1362586011.0,1.2164792083333333,31.699166666666667,80.45666666666666,4.459244791666667,61.237243569579455
1362586011.25,1.2154114166666667,31.700833333333335,80.41916668586667,4.5737499999999995,61.237243569579455
1362586011.5,1.2147173333333332,31.7025,80.38166666666666,4.471953125,61.237243569579455
1362586011.75,1.214076625,31.703333333333337,80.34416664746666,4.107473958333333,61.237243569579455
1362586012.0,1.2134359166666666,31.703333333333337,80.30666666666667,4.277135416666666,61.237243569579455
1362586012.25,1.2130087916666668,31.703333333333337,80.27583334912,4.403697916666666,61.237243569579455
1362586012.5,1.2127952083333333,31.703333333333337,80.245,4.086927083333333,61.237243569579455
1362586012.75,1.213062125,31.7025,80.21416665088,4.205390625000001,61.237243569579455
1362586013.0,1.2134892083333333,31.700833333333335,80.18333333333334,4.560208333333334,61.237243569579455
1362586013.25,1.2135960000000001,31.69916666666667,80.15833334613333,4.277473958333334,61.237243569579455
1362586013.5,1.2133290833333332,31.6975,80.13333333333333,4.172942708333333,61.237243569579455
1362586013.75,1.21300875,31.695833333333336,80.10833332053333,4.531119791666667,61.237243569579455
1362586014.0,1.2126884166666667,31.694166666666664,80.08333333333333,4.4745052083333325,61.237243569579455
1362586014.25,1.2123680833333335,31.6925,80.06083334485332,4.256223958333333,61.237243569579455
1362586014.5,1.2116740416666667,31.690833333333334,80.03833333333333,4.376875,61.237243569579455
1362586014.75,1.2109266250000001,31.69,80.01583332181333,4.184192708333334,61.237243569579455
1362586015.0,1.2101792083333334,31.69,79.99333333333333,3.789609375,61.237243569579455
1362586015.25,1.2099656666666665,31.69,79.97583334229333,3.806432291666667,61.237243569579455
1362586015.5,1.2103927916666666,31.69,79.95833333333333,3.6471875,61.237243569579455
1362586015.75,1.2108199166666667,31.69,79.94083332437333,3.190651041666667,61.237243569579455
1362586016.0,1.2113004583333333,31.69,79.92333333333333,3.170442708333333,61.237243569579455
1362586016.25,1.2121012916666667,31.69,79.91250000554666,3.2940624999999994,61.237243569579455
1362586016.5,1.2132758333333333,31.69,79.90166666666667,2.9468489583333337,61.237243569579455
1362586016.75,1.2145037916666668,31.69,79.89083332778668,2.82953125,61.237243569579455
1362586017.0,1.21573175,31.69,79.88000000000001,3.057395833333334,61.237243569579455
1362586017.25,1.2165860000000002,31.69,79.87750000128001,2.8808333333333334,61.237243569579455
1362586017.5,1.2172800833333335,31.69,79.875,2.9396875000000002,61.237243569579455
1362586017.75,1.217814,31.69,79.87249999872,3.3733854166666664,61.237243569579455
1362586018.0,1.2179207916666668,31.69,79.87,3.4652083333333334,61.237243569579455
1362586018.25,1.21722675,31.69,79.86666666837334,3.5112239583333333,61.237243569579455
1362586018.5,1.2158920416666668,31.69,79.86333333333334,3.9769010416666664,61.237243569579455
1362586018.75,1.2145573333333333,31.69,79.85999999829333,4.191536458333333,61.237243569579455
1362586019.0,1.2131692083333334,31.69,79.85666666666667,4.093671875,61.237243569579455
1362586019.25,1.2117810833333333,31.69,79.85083333632,4.385208333333334,61.237243569579455
1362586019.5,1.2103929583333333,31.69,79.845,4.766171875,61.237243569579455
1362586019.75,1.2090048333333334,31.69,79.83916666368,4.706458333333333,61.237243569579455
1362586020.0,1.2079370416666666,31.69,79.83333333333333,4.836041666666667,61.237243569579455
1362586020.25,1.2080972083333334,31.69,79.82500000426666,5.179401041666667,61.237243569579455
1362586020.5,1.2094319166666667,31.69,79.81666666666666,5.026067708333334,61.237243569579455
1362586020.75,1.2119411666666668,31.69,79.80833332906667,5.0671614583333335,61.237243569579455
1362586021.0,1.215197875,31.69,79.8,5.3836458333333335,61.237243569579455
1362586021.25,1.2187215416666668,31.69,79.79166667093332,5.222395833333334,61.237243569579455
1362586021.5,1.2222452083333335,31.69,79.78333333333333,5.211432291666667,61.237243569579455
1362586021.75,1.225768875,31.69,79.77499999573334,5.642421875,61.237243569579455
1362586022.0,1.2292925416666667,31.69,79.76666666666667,5.658177083333334,61.237243569579455
1362586022.25,1.2328162083333334,31.69,79.74833334272,5.3871875,61.237243569579455
1362586022.5,1.23591275,31.69,79.72999999999999,5.6930208333333345,61.237243569579455
1362586022.75,1.2386889583333331,31.68916666666667,79.71166665727999,5.930260416666667,61.237243569579455
1362586023.0,1.2407177083333334,31.6875,79.69333333333333,5.55140625,61.237243569579455
1362586023.25,1.241571875,31.685833333333335,79.6641666816,5.618125,61.237243569579455
1362586023.5,1.2411981250000002,31.684166666666666,79.63499999999999,5.904739583333334,61.237243569579455
1362586023.75,1.2395430833333332,31.6825,79.6058333184,5.480260416666667,61.237243569579455
1362586024.0,1.237247375,31.680833333333336,79.57666666666667,5.265052083333334,61.237243569579455
1362586024.25,1.2346313333333334,31.67916666666667,79.53500002133333,5.548541666666666,61.237243569579455
1362586024.5,1.2319085,31.6775,79.49333333333334,5.158723958333334,61.237243569579455
1362586024.75,1.2290254999999999,31.675833333333333,79.45166664533335,4.531145833333333,61.237243569579455
1362586025.0,1.2259823749999998,31.674166666666668,79.41000000000001,4.704166666666667,61.237243569579455
1362586025.25,1.2228324583333332,31.672500000000003,79.36166669141335,4.782864583333334,61.237243569579455
1362586025.5,1.2200028749999998,31.670833333333334,79.31333333333335,4.107682291666666,61.237243569579455
1362586025.75,1.2173334583333333,31.67,79.26499997525335,3.770234375,61.237243569579455
1362586026.0,1.2150911666666666,31.67,79.21666666666668,4.097968750000001,61.237243569579455
1362586026.25,1.2131692083333332,31.67,79.15666669738668,3.730911458333333,61.237243569579455
1362586026.5,1.2114607916666666,31.67,79.09666666666668,3.2530989583333336,61.237243569579455
1362586026.75,1.2100192916666668,31.67,79.03666663594667,3.539140625,61.237243569579455
1362586027.0,1.208898125,31.67,78.97666666666667,3.4374479166666663,61.237243569579455
1362586027.25,1.2082040833333332,31.67,78.90750003541334,2.9707552083333333,61.237243569579455
1362586027.5,1.2088447916666667,31.67,78.83833333333334,3.228515625,61.237243569579455
1362586027.75,1.211941375,31.67,78.76916663125334,3.5605208333333334,61.237243569579455
1362586028.0,1.2178674999999999,31.67,78.7,3.139713541666667,61.237243569579455
1362586028.25,1.2264096666666666,31.67,78.62666670421333,3.0197916666666664,61.237243569579455
1362586028.5,1.2367137083333333,31.67,78.55333333333334,3.4834895833333337,61.237243569579455
1362586028.75,1.2477652083333333,31.67,78.47999996245335,3.5357291666666666,61.237243569579455
1362586029.0,1.2588167083333333,31.67,78.40666666666668,3.246328125,61.237243569579455
1362586029.25,1.2698682083333332,31.67,78.33333337088001,3.6035677083333333,61.237243569579455
1362586029.5,1.2809197083333335,31.67,78.26,3.957109375,61.237243569579455
1362586029.75,1.2919712083333332,31.67,78.18666662912,3.750703125,61.237243569579455
1362586030.0,1.3030227083333334,31.67,78.11333333333333,4.006145833333334,61.237243569579455
1362586030.25,1.3135936666666668,31.67,78.03666670592,4.494296875,61.237243569579455
1362586030.5,1.3220824583333333,31.67,77.96000000000001,4.334427083333334,61.237243569579455
1362586030.75,1.327528125,31.67,77.88333329408,4.341666666666666,61.237243569579455
1362586031.0,1.3295569166666665,31.67,77.80666666666667,4.862317708333333,61.237243569579455
1362586031.25,1.3287027083333334,31.67,77.72833337344001,4.92703125,61.237243569579455
1362586031.5,1.3261934166666667,31.67,77.65,4.752552083333333,61.237243569579455
1362586031.75,1.3230968333333333,31.67,77.57166662656,5.141145833333334,61.237243569579455
1362586032.0,1.32000025,31.67,77.49333333333334,5.3240625,61.237243569579455
1362586032.25,1.3167969166666667,31.67,77.41416670720001,5.008177083333333,61.237243569579455
1362586032.5,1.3135402083333332,31.67,77.33500000000001,5.135182291666666,61.237243569579455
1362586032.75,1.3102835,31.67,77.2558332928,5.482916666666667,61.237243569579455
1362586033.0,1.3070267916666667,31.67,77.17666666666668,5.1625781250000005,61.237243569579455
1362586033.25,1.3041438333333333,31.67,77.10083337216001,5.023125,61.237243569579455
1362586033.5,1.3021150833333335,31.67,77.025,5.410208333333333,61.237243569579455
1362586033.75,1.30083375,31.67,76.94916662784,5.253125,61.237243569579455
1362586034.0,1.2999795416666666,31.67,76.87333333333333,4.928046875000001,61.237243569579455
1362586034.25,1.2990185833333332,31.67,76.79333337429334,5.2553906249999995,61.237243569579455
1362586034.5,1.297683875,31.67,76.71333333333334,5.307239583333334,61.24588954869642
1362586034.75,1.2959220416666668,31.67,76.63333329237332,4.827317708333333,61.28047346516425
1362586035.0,1.2936797083333333,31.67,76.55333333333333,4.994114583333333,61.31505738163207
1362586035.25,1.2912237916666667,31.67,76.47500004010666,5.357083333333333,61.3496412980999
1362586035.5,1.2884475416666665,31.67,76.39666666666666,4.971380208333334,61.38422521456773
1362586035.75,1.2853509583333333,31.67,76.31833329322666,4.696692708333333,61.41880913103555
1362586036.0,1.2820408333333333,31.67,76.24,5.13609375,61.45339304750339
1362586036.25,1.27846375,31.67,76.17333336746667,5.095703125,61.487976963971214
1362586036.5,1.2748866666666665,31.67,76.10666666666665,4.789114583333333,61.52256088043905
1362586036.75,1.2713095833333332,31.67,76.03999996586666,5.223333333333334,61.557144796906876
1362586037.0,1.2680528333333332,31.67,75.97333333333333,5.594583333333333,61.5917287133747
1362586037.25,1.2652765833333335,31.67,75.91916669439999,5.166041666666667,61.62631262984254
1362586037.5,1.2628740833333332,31.67,75.865,4.987916666666666,61.652250567193406
1362586037.75,1.2613792083333333,31.67,75.8108333056,5.417994791666666,61.652250567193406
1362586038.0,1.26089875,31.67,75.75666666666666,4.930911458333333,61.652250567193406
1362586038.25,1.260738625,31.67,75.70416669354667,4.038984375,61.64531723814222
1362586038.5,1.261112375,31.67,75.65166666666667,4.079713541666666,61.632628304607465
1362586038.75,1.261966625,31.66916666666667,75.59916663978666,3.8639843749999994,61.619431089624634
1362586039.0,1.2630877916666667,31.6675,75.54666666666667,2.9014843749999994,61.60674215608987
1362586039.25,1.2645292916666666,31.665833333333335,75.48500003157334,2.48296875,61.596594629795476
1362586039.5,1.2659707916666665,31.66416666666667,75.42333333333333,2.3378124999999996,61.58750475066421
1362586039.75,1.2674656666666666,31.662499999999998,75.36166663509333,1.184296875,61.58412168895734
1362586040.0,1.2690673333333333,31.660833333333333,75.3,0.2302083333333332,61.574228051562834
1362586040.25,1.270669,31.659166666666664,75.237500032,0.19901041666666652,61.55708849794243
1362586040.5,1.27221725,31.6575,75.175,0.11601562499999989,61.53664339715768
1362586040.75,1.273285,31.655833333333334,75.112499968,-0.5480208333333335,61.51225550210571
1362586041.0,1.2738188333333333,31.654166666666665,75.05,-0.3140625000000001,61.4986760406747
1362586041.25,1.2743526666666667,31.6525,74.99333336234666,0.4622656249999999,61.51004123758596
1362586041.5,1.2747263333333334,31.650833333333335,74.93666666666667,0.43346354166666656,61.52175521044498
1362586041.75,1.2749398333333333,31.65,74.87999997098666,0.6728385416666667,61.52662213133929
1362586042.0,1.2748330416666667,31.65,74.82333333333332,1.548515625,61.53012942319146
1362586042.25,1.2744059583333331,31.65,74.78083335509332,1.9968489583333333,61.54314656614165
1362586042.5,1.2738187083333334,31.65,74.73833333333333,2.183046875,61.55764027274329
1362586042.75,1.27285775,31.65,74.69583331157334,3.0344270833333327,61.56642716192054
1362586043.0,1.2716298333333331,31.65,74.65333333333334,3.585104166666666,61.581724626785416
1362586043.25,1.27024175,31.65,74.61833335125334,3.394739583333333,61.60426800787619
1362586043.5,1.2686935000000001,31.65,74.58333333333334,3.607760416666667,61.630116936131316
1362586043.75,1.2668782916666668,31.65,74.54833331541333,4.2072135416666665,61.660077395258945
1362586044.0,1.264636,31.65,74.51333333333334,4.129739583333333,61.68235030148775
1362586044.25,1.2615394999999998,31.65,74.48500001450667,3.44890625,61.69522673622405
1362586044.5,1.2566811666666666,31.65,74.45666666666668,3.573958333333333,61.821180000832136
1362586044.75,1.2481389999999999,31.65,74.42833331882667,3.343203125,62.005044679365874
1362586045.0,1.2369273749999998,31.65,74.4,2.075390625,62.20872627759102
1362586045.25,1.2259826666666667,31.65,74.36916668245334,-0.06252604166666685,62.38156727368081
1362586045.5,1.215198125,31.65,74.33833333333334,-2.5424739583333333,62.54304214174051
1362586045.75,1.2047339166666666,31.64833333333333,74.30749998421334,-7.4941666666666675,62.69727191052652
1362586046.0,1.1944298749999998,31.645,74.27666666666667,-10.994036458333333,62.859770179147375
1362586046.25,1.184286,31.641666666666666,74.24500001621334,-11.282135416666668,63.02161396130578
1362586046.5,1.1747294166666666,31.638333333333332,74.21333333333334,-11.47265625,63.17117193202906
1362586046.75,1.167148208333333,31.633333333333336,74.18166665045332,-13.035468750000001,63.325397031400634
1362586047.0,1.16111525,31.626666666666665,74.14999999999999,-14.624375,63.47854975197843
1362586047.25,1.1568975,31.62,74.11833334954666,-14.675625000000002,63.61989226162652
1362586047.5,1.1554025833333332,31.61333333333333,74.08666666666666,-14.72109375,63.63327206916923
1362586047.75,1.1575914999999999,31.605833333333333,74.05499998378666,-11.710572916666669,63.55396968989489
1362586048.0,1.1627167916666665,31.5975,74.02333333333333,-7.196901041666668,63.41119324970456
1362586048.25,1.1678420833333332,31.589166666666667,73.99250001578666,-2.106588541666667,63.25693072354736
1362586048.5,1.172967375,31.580833333333334,73.96166666666666,1.366536458333333,63.09958397467894
1362586048.75,1.1780926666666667,31.574166666666667,73.93083331754666,10.519557291666667,62.92687385488625
1362586049.0,1.17851975,31.569166666666664,73.89999999999999,20.533541666666668,62.715662272293706
1362586049.25,1.172807125,31.564166666666665,73.87583334570667,25.017890625000003,62.50429604537751
1362586049.5,1.16506575,31.55916666666667,73.85166666666666,25.914218750000003,62.305428586009725
1362586049.75,1.1550820833333335,31.55666666666667,73.82749998762667,27.558489583333337,62.10172526138836
1362586050.0,1.1434433333333334,31.55666666666667,73.80333333333334,29.63265625,61.89576047872535
1362586050.25,1.130576625,31.55666666666667,73.78083334485333,30.480729166666666,61.69299104919347
1362586050.5,1.1163752083333334,31.55666666666667,73.75833333333333,30.706666666666667,61.51051432043101
1362586050.75,1.1021737916666667,31.558333333333334,73.73583332181333,27.989114583333333,61.370163697972735
1362586051.0,1.087972375,31.561666666666667,73.71333333333332,24.711302083333337,61.282953637028065
1362586051.25,1.0737709583333335,31.564999999999998,73.69416667648,22.039739583333333,61.222149838172434
1362586051.5,1.0597830833333335,31.56833333333333,73.675,21.445104166666667,61.168499274223365
1362586051.75,1.0457952083333333,31.57166666666667,73.65583332352,17.389401041666666,61.15858495230464
1362586052.0,1.0394419583333334,31.575000000000003,73.63666666666667,11.110156250000001,61.1831053197752
1362586052.25,1.0412572083333334,31.578333333333333,73.615833344,7.430364583333333,61.21097824406632
1362586052.5,1.0447274999999998,31.581666666666667,73.595,6.915703125,61.24003604476724
1362586052.75,1.0487316666666666,31.58583333333333,73.574166656,6.825963541666667,61.273920659834566
1362586053.0,1.0532697500000001,31.590833333333332,73.55333333333333,6.794140625,61.30924591433223
1362586053.25,1.0580747916666666,31.59583333333333,73.53416667648,7.400364583333334,61.344571168829894
1362586053.5,1.0632535416666666,31.60083333333333,73.515,8.36078125,61.37989642332756
1362586053.75,1.0670975416666666,31.605,73.49583332352,9.359322916666667,61.41522167782522
1362586054.0,1.0709415416666668,31.608333333333334,73.47666666666667,9.10421875,61.44191485962791
1362586054.25,1.0747855416666667,31.611666666666668,73.45750000981333,8.348151041666666,61.47247720910541
1362586054.5,1.078416,31.615,73.43833333333333,7.535520833333333,61.50780246360308
1362586054.75,1.0820464583333333,31.616666666666664,73.41916665685333,7.150963541666666,61.52199994626836
1362586055.0,1.0827405,31.616666666666664,73.39999999999999,6.71734375,61.531995702509384
1362586055.25,1.0817260833333333,31.616666666666664,73.37916667733333,6.16796875,61.53944803271593
1362586055.5,1.0811921666666666,31.616666666666664,73.35833333333332,5.74140625,61.5455025303994
1362586055.75,1.0814056666666667,31.615,73.33749998933332,5.425,61.54673021371647
1362586056.0,1.0830072916666666,31.611666666666668,73.31666666666666,4.773203124999999,61.54673021371647
1362586056.25,1.086157208333333,31.608333333333334,73.29333334528,3.5888281249999996,61.542277141158195
1362586056.5,1.090748625,31.605,73.27000000000001,2.102578125,61.50131610029688
1362586056.75,1.0967815833333332,31.60166666666667,73.24666665472,0.7125260416666667,61.43886043747502
1362586057.0,1.1028145416666666,31.59833333333333,73.22333333333334,0.464140625,61.37482338600623
1362586057.25,1.1088474999999998,31.595,73.19000001706668,0.5735677083333333,61.31078633453743
1362586057.5,1.1148804583333334,31.591666666666665,73.15666666666667,0.59953125,61.246749283068645
1362586057.75,1.1209134166666666,31.590833333333336,73.12333331626667,0.4202864583333333,61.18271223159985
1362586058.0,1.126946375,31.5925,73.09,0.4343229166666666,61.118675180131056
1362586058.25,1.1318581666666667,31.594166666666666,73.05166668629333,0.5166145833333332,61.054638128662276
1362586058.5,1.1356487916666667,31.59583333333333,73.01333333333334,0.42984374999999986,60.99060107719348
1362586058.75,1.1380513333333335,31.5975,72.97499998037334,0.3318229166666666,60.92656402572468
1362586059.0,1.1384784583333334,31.599166666666665,72.93666666666667,0.4650520833333332,60.86252697425589
1362586059.25,1.1369835833333333,31.60083333333333,72.89750002005334,0.514921875,60.80294299534538
1362586059.5,1.1336200833333334,31.602500000000003,72.85833333333335,0.7351562500000001,60.77986698473791
1362586059.75,1.129776041666667,31.604166666666668,72.81916664661334,1.01765625,60.778285596090974
1362586060.0,1.1256116666666667,31.605833333333337,72.78000000000002,1.2610677083333333,60.778285596090974
1362586060.25,1.1210202083333332,31.607499999999998,72.75166668117335,1.5304687499999998,60.778285596090974
1362586060.5,1.1160550416666666,31.609166666666667,72.72333333333334,1.9826302083333331,60.778285596090974
1362586060.75,1.110716125,31.609166666666667,72.69499998549334,2.2952864583333334,60.7796552183334
1362586061.0,1.1050035,31.607499999999998,72.66666666666667,2.5152604166666666,60.78170965169705
1362586061.25,1.0998247916666666,31.605833333333337,72.64250001237333,2.9432291666666663,60.78307927393948
1362586061.5,1.0952867499999999,31.604166666666668,72.61833333333334,3.3215625,60.79082396267734
1362586061.75,1.0912825833333333,31.602500000000003,72.59416665429335,3.48015625,60.80331281735601
1362586062.0,1.087652125,31.60083333333333,72.57000000000001,3.6499739583333333,60.80331281735601
1362586062.25,1.0841284166666665,31.599166666666665,72.54750001152,4.139374999999999,60.81981151494654
1362586062.5,1.0807649166666666,31.5975,72.525,4.337083333333333,60.843320578246
1362586062.75,1.0774014583333333,31.59583333333333,72.50249998848001,4.402083333333334,60.86145017639117
1362586063.0,1.0740913749999998,31.594166666666666,72.48,4.67671875,60.86555904311847
1362586063.25,1.0711549999999999,31.5925,72.45416667989333,4.7628385416666665,60.872407154330624
1362586063.5,1.068325375,31.590833333333336,72.42833333333334,4.5484374999999995,60.87240715433061
1362586063.75,1.0656559166666666,31.59,72.40249998677334,4.620989583333333,60.87103753208819
1362586064.0,1.0633601666666666,31.59,72.37666666666667,4.7448958333333335,60.868983098724534
1362586064.25,1.0613313333333332,31.59,72.34750001493333,4.463515625,60.86761347648211
1362586064.5,1.0593025,31.59,72.31833333333333,4.278229166666667,60.859868787744254
1362586064.75,1.0573804583333333,31.59,72.28916665173332,4.455703125,60.84737993306558
1362586065.0,1.055672,31.59,72.25999999999999,4.411953124999999,60.84737993306558
1362586065.25,1.0542304999999998,31.59,72.22583335082666,3.994791666666666,60.830881235475054
1362586065.5,1.0531093333333332,31.59,72.19166666666666,3.9297395833333333,60.80737217217558
1362586065.75,1.052735625,31.59,72.15749998250665,3.961640625,60.78924257403042
1362586066.0,1.0532161249999998,31.59,72.12333333333332,3.6122135416666663,60.78650332954555
1362586066.25,1.05433725,31.59,72.08416668671998,3.5024218749999996,60.78513370730312
1362586066.5,1.0560456666666667,31.59,72.04499999999999,3.73765625,60.79609068524257
1362586066.75,1.0579676666666666,31.59,72.00583331328,3.6800260416666664,60.800199551969854
1362586067.0,1.0598896666666666,31.59,71.96666666666665,3.6249739583333334,60.800884363091065
1362586067.25,1.0618116666666666,31.59,71.93666668202665,3.9895052083333336,60.800884363091065
1362586067.5,1.0637336666666666,31.59,71.90666666666667,4.157213541666667,60.800884363091065
1362586067.75,1.0656556666666666,31.59,71.87666665130666,4.067994791666666,60.80088436309108
1362586068.0,1.0675776666666665,31.59,71.84666666666666,4.43109375,60.800884363091065
1362586068.25,1.0691793333333333,31.59,71.82833334272,4.908854166666666,60.800884363091065
1362586068.5,1.07040725,31.59,71.81,4.939687500000001,60.800884363091065
1362586068.75,1.0710478749999999,31.59,71.79166665727999,5.244244791666667,60.800884363091065
1362586069.0,1.0708877083333332,31.59,71.77333333333333,5.840624999999999,60.79951474084864
1362586069.25,1.0699801249999998,31.59,71.76750000298667,5.953333333333333,60.794036251878914
1362586069.5,1.0685920416666665,31.59,71.76166666666666,6.009973958333333,60.78307927393948
1362586069.75,1.0671505833333332,31.59,71.75583333034666,6.580494791666666,60.77897040721219
1362586070.0,1.0656023333333333,31.59,71.75,6.7613281249999995,60.778285596090974
1362586070.25,1.0640540833333334,31.59,71.74583333546667,6.534973958333333,60.778285596090974
1362586070.5,1.062505833333333,31.59,71.74166666666667,6.875963541666668,60.778285596090974
1362586070.75,1.0609575833333331,31.59,71.73749999786666,7.085494791666666,60.78170965169704
1362586071.0,1.0594627083333332,31.59,71.73333333333333,6.605234375000001,60.79061219627285
1362586071.25,1.0582881666666666,31.59,71.7291666688,6.395338541666667,60.80156917421228
1362586071.5,1.0575941249999998,31.59,71.725,6.590911458333334,60.81252615215172
1362586071.75,1.0574339583333332,31.590833333333332,71.7208333312,6.146562499999999,60.823483130091155
1362586072.0,1.0582347916666666,31.5925,71.71666666666667,5.507213541666666,60.8344401080306
1362586072.25,1.06005,31.594166666666666,71.71000000341334,5.532031249999999,60.84539708597004
1362586072.5,1.0627194166666667,31.59583333333333,71.70333333333335,5.284921874999999,60.856354063909485
1362586072.75,1.065549,31.597499999999997,71.69666666325334,4.416536458333334,60.86731104184892
1362586073.0,1.0685387499999999,31.599166666666665,71.69000000000001,4.135859375,60.87826801978836
1362586073.25,1.0715284999999999,31.600833333333338,71.68000000512001,4.056666666666667,60.88922499772779
1362586073.5,1.07451825,31.602499999999996,71.67000000000002,3.345494791666667,60.901975130718675
1362586073.75,1.0775080000000001,31.603333333333335,71.65999999488001,2.9685416666666664,60.91399094068061
1362586074.0,1.080444375,31.603333333333335,71.65,3.1013802083333335,60.92949403693
1362586074.25,1.0831672083333332,31.603333333333335,71.64000000512,2.828046875,60.93935638971289
1362586074.5,1.0853561666666665,31.603333333333328,71.63,2.390364583333333,60.95011532002149
1362586074.75,1.0869044583333334,31.602500000000003,71.61999999488,2.456901041666667,60.9563913627015
1362586075.0,1.087545125,31.60083333333333,71.61,2.4975,60.96356398290723
1362586075.25,1.0871714166666666,31.599166666666665,71.60333333674666,2.169453125,60.969840025587246
1362586075.5,1.0861036666666666,31.5975,71.59666666666666,2.2580208333333336,60.969840025587246
1362586075.75,1.08487575,31.595833333333335,71.58999999658667,2.6080208333333332,60.969840025587246
1362586076.0,1.0835944583333332,31.594166666666666,71.58333333333333,2.5129427083333336,60.969840025587246
1362586076.25,1.0822597916666667,31.592499999999998,71.57750000298667,2.614036458333333,60.96984002558725
1362586076.5,1.0809251249999998,31.590833333333336,71.57166666666666,3.1440104166666667,60.96804687053582
1362586076.75,1.0795904583333333,31.590833333333336,71.56583333034666,3.2577604166666667,60.96356398290723
1362586077.0,1.0782557916666666,31.592499999999998,71.56,3.2152083333333334,60.95011532002149
1362586077.25,1.07708125,31.594166666666666,71.55333333674668,3.5851562499999994,60.9402529672386
1362586077.5,1.0762269999999998,31.595833333333335,71.54666666666668,3.777708333333333,60.92949403693001
1362586077.75,1.0756930833333334,31.597499999999997,71.53999999658667,3.627786458333333,60.923217994249995
1362586078.0,1.0752125833333332,31.599166666666665,71.53333333333335,3.810442708333333,60.916045374044266
1362586078.25,1.0747854999999997,31.60083333333333,71.52333333845334,4.0788802083333335,60.909769331364245
1362586078.5,1.0740380833333332,31.602500000000003,71.51333333333335,3.8322916666666664,60.909769331364245
1362586078.75,1.0730237083333332,31.604166666666668,71.50333332821334,3.5283593749999995,60.909769331364245
1362586079.0,1.0719025416666665,31.605833333333333,71.49333333333334,3.6875260416666666,60.909769331364245
1362586079.25,1.0705144166666665,31.6075,71.48000000682667,3.554765625,60.909769331364245
1362586079.5,1.0688059583333331,31.609166666666667,71.46666666666667,2.9624479166666666,60.909769331364245
1362586079.75,1.0668305416666666,31.609166666666667,71.45333332650667,2.793671875,60.909769331364245
1362586080.0,1.0646415833333334,31.6075,71.44,2.8864843749999998,60.915148796518544
1362586080.25,1.06239925,31.605833333333333,71.42166667605333,2.5022135416666664,60.923217994249995
1362586080.5,1.0599967499999998,31.604166666666668,71.40333333333334,2.2183333333333333,60.92590772682714
1362586080.75,1.0573807083333333,31.602499999999996,71.38499999061332,2.3830468750000002,60.92590772682714
1362586081.0,1.0547112499999998,31.600833333333338,71.36666666666666,2.3054947916666664,60.92590772682714
1362586081.25,1.0520417499999999,31.599166666666665,71.345833344,1.9614843750000002,60.92590772682714
1362586081.5,1.0496392083333332,31.597499999999997,71.325,2.0140885416666667,60.93845981218717
1362586081.75,1.0473968333333332,31.59583333333333,71.304166656,2.3315104166666667,60.95280505259864
1362586082.0,1.0451010833333332,31.594166666666666,71.28333333333335,2.1831510416666666,60.9671502930101
1362586082.25,1.0430189166666666,31.5925,71.26083334485334,1.9674479166666667,60.981495533421565
1362586082.5,1.0411502916666666,31.590833333333332,71.23833333333334,2.313489583333333,60.99584077383303
1362586082.75,1.039495208333333,31.59,71.21583332181334,2.513802083333333,61.01018601424449
1362586083.0,1.0380536666666667,31.59,71.19333333333333,2.2187499999999996,61.019151789501656
1362586083.25,1.0367189166666666,31.59,71.17166667776,2.30421875,61.02542783218167
1362586083.5,1.0355977499999998,31.59,71.15,2.7184635416666665,61.03708334001599
1362586083.75,1.034690125,31.590833333333336,71.12833332224,2.6819791666666664,61.051428580427455
1362586084.0,1.0339426666666667,31.592499999999998,71.10666666666667,2.5465104166666666,61.06577382083892
1362586084.25,1.0337825,31.594166666666666,71.08416667818666,2.9505208333333335,61.08011906125038
1362586084.5,1.0346901249999998,31.595833333333335,71.06166666666667,3.170234375,61.08191221630181
1362586084.75,1.0369858749999998,31.5975,71.03916665514667,2.9694010416666665,61.08191221630181
1362586085.0,1.0405095416666665,31.599166666666665,71.01666666666667,3.1922656249999997,61.08191221630181
1362586085.25,1.0450475833333333,31.60083333333333,70.99583334399999,3.6570312499999997,61.08191221630181
1362586085.5,1.0505466666666665,31.602500000000003,70.975,3.606432291666667,61.08191221630181
1362586085.75,1.056739833333333,31.603333333333328,70.954166656,3.5901041666666664,61.08191221630181
1362586086.0,1.0632533333333332,31.603333333333335,70.93333333333332,4.062187499999999,61.08191221630181
1362586086.25,1.0698202083333332,31.603333333333328,70.91500000938666,4.22203125,61.08191221630181
1362586086.5,1.07654725,31.603333333333335,70.89666666666666,3.962213541666667,61.08191221630181
1362586086.75,1.0833810833333333,31.602499999999996,70.87833332394666,4.022161458333334,61.08191221630181
1362586087.0,1.0904284583333332,31.600833333333338,70.86,4.209348958333333,61.08191221630181
1362586087.25,1.0974758333333332,31.599166666666665,70.84666667349333,4.129713541666667,61.08191221630181
1362586087.5,1.1046833333333332,31.597499999999997,70.83333333333333,4.374270833333333,61.08361596290535
1362586087.75,1.111730625,31.59583333333333,70.81999999317333,4.682630208333333,61.10603191309434
1362586088.0,1.1187245833333332,31.594166666666666,70.80666666666666,4.443880208333333,61.13447450684057
1362586088.25,1.1258787083333333,31.5925,70.80000000341332,4.580520833333333,61.16355286449642
1362586088.5,1.1327124583333332,31.590833333333332,70.79333333333332,5.434192708333334,61.180023289409014
1362586088.75,1.1434435833333334,31.59,70.78666666325333,5.988723958333334,61.193855973684016
1362586089.0,1.1595669583333332,31.59,70.77999999999999,5.645546875,61.230594245339994
1362586089.25,1.1778792916666667,31.59,70.77750000127999,6.065807291666666,61.27697869038327
1362586089.5,1.198006875,31.59,70.77499999999999,6.79015625,61.31431447011278
1362586089.75,1.2201673333333334,31.59,70.77249999872,6.649583333333333,61.36914059900937
1362586090.0,1.2424920833333333,31.59,70.77,6.219114583333333,61.42865016616486
1362586090.25,1.2651371666666666,31.59,70.77,4.660442708333333,61.48664223116353
1362586090.5,1.2866077083333334,31.59,70.77,2.3963541666666663,61.5349577315525
1362586090.75,1.3070104999999999,31.59,70.77,2.120416666666667,61.54344050939854
1362586091.0,1.326398875,31.59,70.77,2.9989062500000006,61.54636448086592
1362586091.25,1.3447194583333333,31.59,70.77,2.512265625,61.55161638818032
1362586091.5,1.3617053333333333,31.59,70.77,1.1859895833333332,61.57789488879616
1362586091.75,1.3736192916666667,31.59,70.77,0.9593229166666667,61.59415705653896
1362586092.0,1.3795003333333333,31.59,70.77,1.3692187500000002,61.578775940745714
1362586092.25,1.3826585416666666,31.59,70.76833333418666,-0.2035937500000001,61.55247495662366
1362586092.5,1.3836277916666668,31.59,70.76666666666667,-5.200651041666667,61.53454285806682
1362586092.75,1.3822972083333334,31.59,70.76499999914667,-8.373333333333333,61.494701841977275
1362586093.0,1.3803752083333334,31.59,70.76333333333334,-7.484348958333334,61.450177387628834
1362586093.25,1.3775455833333332,31.59,70.76000000170667,-4.0136458333333325,61.407170435437216
1362586093.5,1.3747159583333335,31.59,70.75666666666666,4.176328125,61.37196622046729
1362586093.75,1.3718863333333333,31.587500000000002,70.75333333162666,11.597083333333336,61.356052605239306
1362586094.0,1.3687897916666667,31.5825,70.75,15.670286458333331,61.339330991263786
1362586094.25,1.3654797083333332,31.5775,70.73416667477333,18.790078124999997,61.31777478890237
1362586094.5,1.3629704583333335,31.5725,70.71833333333333,19.43921875,61.28728968362932
1362586094.75,1.3609950833333333,31.563333333333333,70.70249999189333,15.2125,61.269458651866906
1362586095.0,1.3593400416666668,31.55,70.68666666666667,13.929843749999998,61.26036531625957
1362586095.25,1.3581655000000001,31.536666666666665,70.66416667818667,21.295911458333332,61.252545675593744
1362586095.5,1.3572045,31.523333333333337,70.64166666666668,37.652369791666665,61.245405814676474
1362586095.75,1.3575248333333334,31.51,70.61916665514667,54.212890625,61.24914261363409
1362586096.0,1.35950025,31.49666666666667,70.59666666666668,64.07729166666667,61.261578203164
1362586096.25,1.3625434583333333,31.48333333333333,70.56500001621333,66.01075520833334,61.282619238741695
1362586096.5,1.3663875,31.47,70.53333333333333,57.37278645833333,61.30298235044365
1362586096.75,1.37108575,31.459166666666665,70.50166665045333,45.45736979166667,61.315588020758035
1362586097.0,1.376691583333333,31.450833333333335,70.46999999999998,36.725208333333335,61.318900806102526
1362586097.25,1.382671125,31.4425,70.44083334826665,34.492786458333335,61.33198255152548
1362586097.5,1.3887040416666665,31.434166666666666,70.41166666666666,38.86283854166667,61.345574539301886
1362586097.75,1.3947369583333333,31.42833333333333,70.38249998506667,49.75559895833333,61.35916652707829
1362586098.0,1.400769875,31.425,70.35333333333334,57.35999999999999,61.37275851485469
1362586098.25,1.4068027916666666,31.421666666666667,70.32166668288001,55.47932291666667,61.38635050263108
1362586098.5,1.4128357083333334,31.418333333333333,70.28999999999999,45.009453125,61.399942490407476
1362586098.75,1.4175872916666667,31.414166666666663,70.25833331711999,29.827890625,61.411951076932674
1362586099.0,1.4207372083333334,31.409166666666664,70.22666666666666,18.596875,61.420513900397545
1362586099.25,1.4223922083333331,31.40416666666667,70.19750001493333,15.999791666666667,61.42567539921928
1362586099.5,1.4228192499999999,31.39916666666667,70.16833333333332,20.064062500000002,61.4359975501798
1362586099.75,1.4222319583333334,31.393333333333334,70.13916665173333,26.045364583333335,61.45390706174342
1362586100.0,1.4207370833333333,31.386666666666667,70.11,30.129322916666666,61.4814496198459
1362586100.25,1.4189218749999999,31.38,70.08083334826667,29.204244791666667,61.50109410649915
1362586100.5,1.4169464999999999,31.373333333333335,70.05166666666666,24.342057291666666,61.52073859315241
1362586100.75,1.414971125,31.367500000000003,70.02249998506666,16.4353125,61.53915529938984
1362586101.0,1.41299575,31.362499999999997,69.99333333333333,9.021015625,61.558799786043096
1362586101.25,1.4110203749999999,31.3575,69.96416668159999,4.048359375,61.57721649228052
1362586101.5,1.4090449999999999,31.352500000000003,69.935,2.413151041666667,61.58212761394385
1362586101.75,1.407069625,31.3475,69.9058333184,4.223880208333333,61.57725292368576
1362586102.0,1.405147666666667,31.3425,69.87666666666667,5.079088541666667,61.56712520591572
1362586102.25,1.403759625,31.337500000000002,69.84750001493333,3.7709114583333334,61.55179336674104
1362586102.5,1.4027987083333333,31.3325,69.81833333333333,2.1169010416666665,61.53062120444955
1362586102.75,1.4019445,31.328333333333333,69.78916665173334,0.7155989583333332,61.49385219835531
1362586103.0,1.4013572083333334,31.325000000000003,69.76,0.6992447916666666,61.45584996637081
1362586103.25,1.4007699166666667,31.32166666666667,69.73250001408,1.0297656249999998,61.41784773438633
1362586103.5,1.4000758333333332,31.31833333333333,69.705,1.3636718749999999,61.37984550240183
1362586103.75,1.3989546666666666,31.31583333333333,69.67749998592,2.445625,61.3429007201135
1362586104.0,1.3974064166666667,31.314166666666665,69.64999999999999,4.115364583333333,61.30217283197786
1362586104.25,1.3958581666666667,31.312499999999996,69.62083334826666,5.3195572916666665,61.260287182591746
1362586104.5,1.3941497499999997,31.31083333333333,69.59166666666667,5.772369791666667,61.231566274022214
1362586104.75,1.3923879166666666,31.31,69.56249998506668,6.591276041666667,61.20775648711601
1362586105.0,1.3906794166666667,31.31,69.53333333333335,6.903671875,61.182154988441646
1362586105.25,1.3889709166666666,31.31,69.50250001578668,6.9715625,61.14963682613703
1362586105.5,1.3872090416666667,31.31,69.47166666666668,7.023802083333333,61.12735471486905
1362586105.75,1.3854472083333331,31.309166666666666,69.44083331754668,7.0987760416666665,61.12066944740382
1362586106.0,1.3835785833333334,31.307499999999994,69.41000000000001,7.044036458333333,61.115217405828844
1362586106.25,1.3817099583333332,31.30583333333333,69.37666668373333,7.0003906250000005,61.10976536425386
1362586106.5,1.3798947499999998,31.304166666666664,69.34333333333333,7.043541666666666,61.10431332267888
1362586106.75,1.3783464583333334,31.3025,69.30999998293333,6.955078125,61.09595825028538
1362586107.0,1.3772252499999997,31.300833333333333,69.27666666666666,6.212968749999999,61.07722360998803
1362586107.25,1.3761040416666666,31.299166666666668,69.24916668074665,5.4761718749999995,61.05856716314588
1362586107.5,1.3751429999999998,31.2975,69.22166666666666,4.556770833333334,61.04012327062474
1362586107.75,1.3743955416666667,31.295833333333334,69.19416665258667,3.09953125,61.02167937810359
1362586108.0,1.3737015,31.294166666666666,69.16666666666667,2.1171354166666667,61.00502719735061
1362586108.25,1.3733811666666664,31.2925,69.13916668074667,1.383828125,60.995291680227865
1362586108.5,1.3734345416666667,31.290833333333335,69.11166666666666,0.7232291666666666,60.976847787706724
1362586108.75,1.3737548750000002,31.289166666666663,69.08416665258666,0.47546874999999994,60.958403895185576
1362586109.0,1.3743955833333334,31.287500000000005,69.05666666666666,0.565546875,60.939960002664435
1362586109.25,1.3751964583333331,31.285833333333333,69.02583334911999,0.58796875,60.9215161101433
1362586109.5,1.3761575,31.284166666666664,68.99499999999999,0.7332552083333334,60.90307221762217
1362586109.75,1.377278708333333,31.2825,68.96416665087999,0.6929427083333333,60.88770168663922
1362586110.0,1.3783999166666667,31.280833333333334,68.93333333333332,0.46515625,60.88526604899158
1362586110.25,1.3795211250000001,31.279166666666665,68.90000001706666,0.49950520833333334,60.88513775955508
1362586110.5,1.3804821666666667,31.2775,68.86666666666667,1.0733072916666668,60.88513775955508
1362586110.75,1.3810694583333332,31.275833333333335,68.83333331626667,1.881822916666667,60.88513775955508
1362586111.0,1.3813897916666666,31.27416666666667,68.80000000000001,2.635520833333333,60.88513775955508
1362586111.25,1.3812296666666668,31.272499999999997,68.76666668373335,3.200260416666667,60.88513775955508
1362586111.5,1.3805356666666668,31.270833333333332,68.73333333333335,3.60609375,60.88513775955508
1362586111.75,1.3794145,31.27,68.69999998293333,3.557604166666667,60.88641920539032
1362586112.0,1.3777594166666667,31.27,68.66666666666667,3.0726822916666667,60.904945901818444
1362586112.25,1.3758374166666665,31.27,68.63750001493334,2.5972916666666666,60.92884183591455
1362586112.5,1.3737018333333333,31.27,68.60833333333333,2.0302083333333334,60.952737770010664
1362586112.75,1.3713526666666667,31.269166666666667,68.57916665173333,1.5843749999999999,60.976633704106796
1362586113.0,1.3689501249999998,31.2675,68.55,1.2227604166666668,61.00052963820291
1362586113.25,1.366440833333333,31.265833333333333,68.52166668117333,0.8108072916666668,61.024425572299016
1362586113.5,1.3639315416666664,31.264166666666668,68.49333333333334,0.48033854166666673,61.04832150639513
1362586113.75,1.3615824166666666,31.2625,68.46499998549334,-0.21648437499999998,61.072217440491265
1362586114.0,1.3592867083333333,31.260833333333334,68.43666666666667,-0.9536979166666667,61.098664248526035
1362586114.25,1.3569909999999998,31.25916666666667,68.41166667946666,-1.0950260416666666,61.12783173987373
1362586114.5,1.3548554166666664,31.257499999999997,68.38666666666666,-1.205,61.15172767396985
1362586114.75,1.3528266249999998,31.25583333333333,68.36166665386666,-1.2668489583333333,61.181360586442274
1362586115.0,1.3510114166666665,31.254166666666666,68.33666666666666,-1.1218489583333333,61.19047334916352
1362586115.25,1.3493029583333334,31.252499999999998,68.31333334528,-1.3194531250000001,61.193280992953454
1362586115.5,1.3477012916666666,31.250833333333333,68.28999999999999,-1.5687500000000003,61.19795971400672
1362586115.75,1.3462064166666667,31.25,68.26666665472,-1.8439583333333334,61.21105382853355
1362586116.0,1.344551375,31.25,68.24333333333334,-2.2070312500000004,61.226016964533834
1362586116.25,1.3428429166666669,31.25,68.22250001066668,-2.809921875,61.244498100949414
1362586116.5,1.3411344583333333,31.25,68.20166666666668,-3.7172916666666667,61.27217280296333
1362586116.75,1.3395328333333334,31.25,68.18083332266667,-4.161510416666666,61.30568896943271
1362586117.0,1.3380379583333333,31.25,68.16000000000001,-4.2871875,61.320558416493704
1362586117.25,1.3364896666666668,31.25,68.14583334058668,-5.0851041666666665,61.330249995242404
1362586117.5,1.334888,31.25,68.13166666666667,-5.714140625,61.35851360784466
1362586117.75,1.3332863333333334,31.25,68.11749999274667,-6.151119791666666,61.388821270575384
1362586118.0,1.3317380416666666,31.25,68.10333333333334,-6.680598958333333,61.42240383246439
1362586118.25,1.3302965416666666,31.25,68.0991666688,-6.681536458333333,61.456922275616705
1362586118.5,1.3288016666666667,31.25,68.095,-6.570260416666667,61.4895696415057
1362586118.75,1.3273067916666665,31.25,68.0908333312,-6.2737760416666655,61.513801613921125
1362586119.0,1.3259720833333333,31.25,68.08666666666666,-5.690494791666667,61.53616456486311
1362586119.25,1.32469075,31.25,68.09249999701333,-4.856197916666667,61.55500951538978
1362586119.5,1.3234627916666666,31.25,68.09833333333333,-3.918645833333333,61.564660900318124
1362586119.75,1.3222882083333334,31.25,68.10416666965332,-3.104479166666667,61.568470820791
1362586120.0,1.3212204166666666,31.25,68.11,-2.5115104166666664,61.58837658673361
1362586120.25,1.320152625,31.25,68.11999999488,-1.655390625,61.610739537675585
1362586120.5,1.3189780833333333,31.25,68.13,-1.2198177083333335,61.61980201201558
1362586120.75,1.3178569583333333,31.25,68.14000000512,-1.4490625,61.61980201201558
1362586121.0,1.3167357916666667,31.25,68.15,-1.9196354166666667,61.61980201201558
1362586121.25,1.3156145833333333,31.25,68.16083332778668,-2.551796875,61.61980201201558
1362586121.5,1.3146535416666667,31.25,68.17166666666668,-3.329609375,61.61980201201558
1362586121.75,1.3137992916666665,31.25,68.18250000554667,-4.292864583333333,61.61980201201558
1362586122.0,1.3128916666666666,31.25,68.19333333333334,-5.434895833333333,61.61980201201558
1362586122.25,1.3119306666666666,31.25,68.20583332693334,-6.45390625,61.61980201201558
1362586122.5,1.3109696666666666,31.25,68.21833333333333,-7.307473958333333,61.61980201201558
1362586122.75,1.3100620416666666,31.249166666666667,68.23083333973332,-8.004609375,61.61980201201558
1362586123.0,1.3091544166666667,31.247500000000002,68.24333333333333,-8.628333333333332,61.61980201201558
1362586123.25,1.3084069583333333,31.245833333333334,68.25833332565333,-9.300963541666667,61.61980201201558
1362586123.5,1.3078730416666666,31.24416666666667,68.27333333333333,-9.534427083333334,61.61980201201558
1362586123.75,1.3073925,31.242500000000003,68.28833334101333,-8.996848958333333,61.61980201201558
1362586124.0,1.3069653749999999,31.24083333333333,68.30333333333333,-8.266666666666667,61.61980201201558
1362586124.25,1.3065916666666666,31.239166666666666,68.32166665727999,-7.5980468750000005,61.61980201201558
1362586124.5,1.3062179583333333,31.2375,68.34,-6.720052083333333,61.61980201201558
1362586124.75,1.30584425,31.235,68.35833334272,-5.969973958333333,61.61980201201558
1362586125.0,1.3055772916666666,31.23166666666667,68.37666666666667,-5.253489583333334,61.61980201201558
1362586125.25,1.3054705,31.228333333333335,68.3933333248,-4.5620312499999995,61.608078737810445
1362586125.5,1.3054705,31.224999999999998,68.41,-4.2478125,61.5925027546117
1362586125.75,1.30536375,31.2225,68.4266666752,-4.240651041666666,61.57692677141296
1362586126.0,1.3050968333333333,31.22083333333333,68.44333333333333,-4.321640625,61.56135078821421
1362586126.25,1.304723125,31.219166666666666,68.45749999274666,-4.234739583333333,61.545774805015476
1362586126.5,1.3043494166666665,31.2175,68.47166666666666,-4.275078124999999,61.53019882181673
1362586126.75,1.3039223333333332,31.215833333333332,68.48583334058667,-4.615807291666667,61.51462283861799
1362586127.0,1.30349525,31.21416666666667,68.5,-4.9769531250000005,61.49904685541924
1362586127.25,1.3030681666666666,31.212500000000002,68.5124999936,-5.156041666666666,61.4834708722205
1362586127.5,1.3026944583333333,31.21083333333333,68.525,-5.529062499999999,61.46789488902176
1362586127.75,1.30232075,31.21,68.5375000064,-5.4745833333333325,61.45231890582301
1362586128.0,1.3019470416666665,31.21,68.55,-5.096953125,61.43674292262427
1362586128.25,1.3015733333333332,31.21,68.5624999936,-5.070260416666667,61.43289021363068
1362586128.5,1.301199625,31.21,68.57499999999999,-4.774140625,61.43289021363068
1362586128.75,1.3009326666666665,31.21,68.58750000639999,-4.778411458333333,61.43289021363068
1362586129.0,1.3007725,31.21,68.6,-5.222213541666666,61.43479589132472
1362586129.25,1.30066575,31.21,68.6124999936,-5.801822916666666,61.444959505692964
1362586129.5,1.3004522083333334,31.21,68.625,-6.100677083333333,61.45194699057112
1362586129.75,1.2999182916666667,31.21,68.63750000639999,-5.787760416666667,61.45194699057112
1362586130.0,1.2966081666666667,31.21,68.64999999999999,-5.490729166666667,61.45194699057114
1362586130.25,1.2903616666666666,31.21,68.6624999936,-6.446197916666667,61.44643257927976
1362586130.5,1.28384825,31.21,68.675,-8.257161458333334,61.43964561153652
1362586130.75,1.2773348333333332,31.21083333333333,68.6875000064,-12.994609374999998,61.43285864379329
1362586131.0,1.2708214166666665,31.212500000000002,68.7,-18.123776041666666,61.42607167605005
1362586131.25,1.264308,31.21416666666667,68.70999999488001,-22.421197916666667,61.41928470830681
1362586131.5,1.2577945833333333,31.215833333333332,68.72,-23.97828125,61.41249774056359
1362586131.75,1.2512811666666666,31.2225,68.73000000511999,-24.258333333333336,61.40571077282035
1362586132.0,1.245675375,31.234166666666667,68.74,-23.828802083333333,61.39701812738306
1362586132.25,1.2410839166666665,31.245833333333334,68.74666666325334,-23.609244791666665,61.380067545271594
1362586132.5,1.2372932916666664,31.257500000000004,68.75333333333333,-23.686614583333334,61.36629309265019
1362586132.75,1.2349442083333333,31.27,68.76000000341332,-24.37591145833333,61.359506124906964
1362586133.0,1.2362255416666665,31.283333333333335,68.76666666666667,-24.879270833333333,61.352719157163726
1362586133.25,1.2410839166666665,31.29666666666667,68.77249999701334,-23.84169270833333,61.35144660071187
1362586133.5,1.2465295416666666,31.31,68.77833333333334,-21.377578125,61.35144660071187
1362586133.75,1.2519751666666665,31.3225,68.78416666965333,-16.027942708333335,61.35144660071187
1362586134.0,1.2574207916666666,31.334166666666665,68.79,-10.358776041666667,61.35144660071187
1362586134.25,1.2628664166666665,31.34583333333333,68.79416666453334,-5.228958333333334,61.35144660071187
1362586134.5,1.2683120416666667,31.3575,68.79833333333333,-2.7513020833333335,61.35144660071187
1362586134.75,1.2737576666666668,31.364166666666666,68.80250000213333,-1.165885416666667,61.35144660071187
1362586135.0,1.2780820833333333,31.36583333333333,68.80666666666666,0.11804687499999982,61.35144660071187
1362586135.25,1.281285375,31.367500000000003,68.80833333247999,1.6022395833333334,61.35144660071187
1362586135.5,1.2836344583333332,31.36916666666667,68.81,3.054479166666667,61.35144660071187
1362586135.75,1.2845954583333332,31.36916666666667,68.81166666752,4.46578125,61.35144660071187
1362586136.0,1.2842751666666665,31.367499999999996,68.81333333333333,5.73515625,61.35144660071187
1362586136.25,1.2829938333333333,31.36583333333333,68.8091666688,6.6403125,61.35144660071187
1362586136.5,1.281285375,31.364166666666673,68.805,7.045963541666667,61.35144660071187
1362586136.75,1.2794701666666666,31.3625,68.8008333312,7.063776041666667,61.35144660071187
1362586137.0,1.2773346666666667,31.360833333333336,68.79666666666667,6.82796875,61.35144660071187
1362586137.25,1.2748788333333334,31.359166666666667,68.76750001493333,6.656536458333334,61.35144660071187
1362586137.5,1.2723162083333333,31.3575,68.73833333333333,6.385338541666667,61.35144660071187
1362586137.75,1.2697002083333333,31.355833333333337,68.70916665173333,5.929348958333333,61.35144660071187
1362586138.0,1.267244375,31.354166666666668,68.67999999999999,5.4476562500000005,61.35144660071187
1362586138.25,1.2647351249999998,31.352500000000003,68.62750002688,5.123125,61.35144660071187
1362586138.5,1.2622258750000002,31.350833333333338,68.575,4.735755208333333,61.35144660071187
1362586138.75,1.2600369166666667,31.35,68.52249997312,4.200651041666666,61.35144660071187
1362586139.0,1.2582750416666666,31.35,68.47000000000001,3.8365104166666666,61.35144660071187
1362586139.25,1.2568335416666667,31.35,68.39583337130668,3.542786458333333,61.35144660071187
1362586139.5,1.2554454583333332,31.35,68.32166666666667,3.102395833333334,61.35144660071187
1362586139.75,1.254164125,31.35,68.24749996202667,2.76953125,61.35144660071187
1362586140.0,1.253309875,31.35,68.17333333333333,2.7371875000000006,61.35144660071187
1362586140.25,1.2530429166666666,31.35,68.10250003626666,2.632630208333333,61.35144660071187
1362586140.5,1.2532564583333334,31.35,68.03166666666667,2.37578125,61.35144660071187
1362586140.75,1.2542174166666666,31.35,67.96083329706667,2.384791666666667,61.35144660071187
1362586141.0,1.256086,31.35,67.89,2.5362239583333337,61.35144660071187
1362586141.25,1.2584885,31.35,67.82333336746667,2.4623177083333334,61.35144660071187
1362586141.5,1.2610511666666666,31.35,67.75666666666666,2.4077083333333333,61.35144660071187
1362586141.75,1.2636138333333333,31.35,67.68999996586666,2.6153645833333337,61.35144660071187
1362586142.0,1.2661765,31.35,67.62333333333333,2.718203125,61.35144660071187
1362586142.25,1.2687391666666665,31.35,67.56500002986667,2.656796875,61.35144660071187
1362586142.5,1.2713018333333332,31.35,67.50666666666666,2.736328125,61.35144660071187
1362586142.75,1.273811125,31.35,67.44833330346667,2.9011718749999997,61.35144660071187
1362586143.0,1.2759467083333333,31.35,67.39,2.830208333333333,61.35144660071187
1362586143.25,1.277495,31.35,67.34250002432,2.65578125,61.35144660071187
1362586143.5,1.2781890416666666,31.35,67.295,2.6629947916666663,61.35144660071187
1362586143.75,1.2776017499999999,31.35,67.24749997568,2.61234375,61.35144660071187
1362586144.0,1.2759467083333333,31.35,67.2,2.4040624999999998,61.35144660071187
1362586144.25,1.2739179583333333,31.35,67.16666668373334,2.2332812499999997,61.35144660071187
1362586144.5,1.2717824166666665,31.35,67.13333333333334,2.1333854166666666,61.35144660071187
1362586144.75,1.2693265416666666,31.35,67.09999998293334,1.9679947916666665,61.35144660071187
1362586145.0,1.266657125,31.35,67.06666666666668,1.691822916666667,61.35144660071187
1362586145.25,1.2639342916666665,31.35,67.04500001109334,1.4744531250000001,61.35144660071187
1362586145.5,1.2609445,31.35,67.02333333333334,1.3078385416666667,61.35144660071187
1362586145.75,1.2577411666666667,31.35,67.00166665557335,1.10171875,61.35144660071187
1362586146.0,1.254751375,31.35,66.98,0.9120833333333334,61.35144660071187
1362586146.25,1.2520819166666666,31.35,66.96166667605334,0.813984375,61.35144660071187
1362586146.5,1.2497862083333333,31.35,66.94333333333333,0.7104947916666666,61.35144660071187
1362586146.75,1.24786425,31.35,66.92499999061333,0.5681250000000001,61.35144660071187
1362586147.0,1.2460490416666665,31.35,66.90666666666667,0.4166666666666667,61.35144660071187
1362586147.25,1.2442337916666666,31.35,66.88666667690667,0.30393229166666663,61.35144660071187
1362586147.5,1.2423651666666666,31.35,66.86666666666667,0.2654947916666667,61.35144660071187
1362586147.75,1.2405499583333335,31.349166666666672,66.84666665642666,0.19752604166666668,61.35144660071187
1362586148.0,1.2388415416666667,31.3475,66.82666666666667,0.120234375,61.35144660071187
1362586148.25,1.2370797500000001,31.345833333333335,66.80166667946666,0.136171875,61.35144660071187
1362586148.5,1.235478125,31.344166666666666,66.77666666666667,0.24911458333333336,61.35144660071187
1362586148.75,1.2340900416666667,31.343333333333334,66.75166665386668,0.3125,61.35144660071187
1362586149.0,1.2327019583333334,31.343333333333334,66.72666666666667,0.2674479166666667,61.35144660071187
1362586149.25,1.2312070833333333,31.343333333333334,66.69666668202667,0.3814583333333334,61.35144660071187
1362586149.5,1.2297122083333334,31.343333333333334,66.66666666666667,0.5274739583333333,61.35144660071187
1362586149.75,1.2283775,31.343333333333334,66.63666665130667,0.5158854166666667,61.35144660071187
1362586150.0,1.2272029583333335,31.343333333333334,66.60666666666667,0.6625260416666666,61.35144660071187
1362586150.25,1.2260284583333332,31.343333333333334,66.5733333504,0.9784635416666666,61.35144660071187
1362586150.5,1.2250675,31.343333333333334,66.53999999999999,1.183046875,61.35144660071187
1362586150.75,1.2243200833333334,31.344166666666666,66.50666664959999,1.389088541666667,61.35144660071187
1362586151.0,1.2236794166666667,31.34583333333333,66.47333333333333,1.83796875,61.35144660071187
1362586151.25,1.2231455416666666,31.3475,66.44250001578666,2.2646354166666667,61.35144660071187
1362586151.5,1.2227184583333333,31.349166666666672,66.41166666666668,2.4667447916666663,61.35144660071187
1362586151.75,1.222398125,31.35,66.38083331754667,2.7565885416666664,61.35144660071187
1362586152.0,1.2221311666666665,31.35,66.35000000000001,3.2320572916666666,61.35144660071187
1362586152.25,1.221971,31.35,66.32583334570667,3.431432291666667,61.35144660071187
1362586152.5,1.2218108333333333,31.35,66.30166666666668,3.5803125000000002,61.346091906658735
1362586152.75,1.2217040416666665,31.349166666666672,66.27749998762667,4.019088541666666,61.333852605965866
1362586153.0,1.22159725,31.3475,66.25333333333333,4.268854166666666,61.321613305273
1362586153.25,1.2215972083333333,31.345833333333335,66.24083333973333,4.23359375,61.30937400458012
1362586153.5,1.2215437916666667,31.344166666666666,66.22833333333332,4.316979166666667,61.29713470388726
1362586153.75,1.2217039166666666,31.3425,66.21583332693334,4.372942708333333,61.28489540319438
1362586154.0,1.2218640416666666,31.340833333333336,66.20333333333333,4.129244791666667,61.272656102501514
1362586154.25,1.2221309583333333,31.339166666666667,66.19750000298667,3.9251302083333335,61.260416801808645
1362586154.5,1.2232520833333334,31.337499999999995,66.19166666666666,3.8522916666666664,61.24817750111578
1362586154.75,1.2258680833333333,31.33583333333333,66.18583333034667,3.684635416666667,61.23593820042291
1362586155.0,1.230032375,31.334166666666665,66.18,3.630338541666667,61.22369889973004
1362586155.25,1.2357449583333333,31.3325,66.18583333034667,3.713932291666666,61.21145959903716
1362586155.5,1.2428990416666665,31.33083333333333,66.19166666666666,3.6176822916666667,61.204574992397426
1362586155.75,1.25048025,31.33,66.19750000298667,3.4884635416666665,61.204574992397426
1362586156.0,1.2580614583333334,31.33,66.20333333333333,3.5945572916666664,61.204574992397426
1362586156.25,1.2655892916666667,31.33,66.21916665856,3.684270833333333,61.204574992397426
1362586156.5,1.273117125,31.33,66.235,3.633854166666667,61.204574992397426
1362586156.75,1.2804847916666666,31.33,66.25083334144,3.8213020833333338,61.204574992397426
1362586157.0,1.2878524583333333,31.33,66.26666666666667,4.051041666666666,61.204574992397426
1362586157.25,1.2950599583333333,31.33,66.29166665386667,4.058958333333334,61.204574992397426
1362586157.5,1.3013598333333334,31.33,66.31666666666666,4.135859375,61.204574992397426
1362586157.75,1.3056843333333332,31.33,66.34166667946667,4.304661458333333,61.204574992397426
1362586158.0,1.3078198749999999,31.33,66.36666666666667,4.105677083333333,61.204574992397426
1362586158.25,1.3081401666666668,31.33,66.39833331712,3.883359375,61.204574992397426
1362586158.5,1.3068054166666665,31.33,66.43,3.992864583333333,61.204574992397426
1362586158.75,1.304723208333333,31.33,66.46166668288001,3.9451302083333335,61.204574992397426
1362586159.0,1.3023206666666667,31.33,66.49333333333334,3.5394791666666667,61.204574992397426
1362586159.25,1.2994910416666665,31.33,66.5266666496,3.4195572916666666,61.204574992397426
1362586159.5,1.2965012916666665,31.33,66.56,3.3924739583333334,61.204574992397426
1362586159.75,1.2932979583333333,31.33,66.5933333504,2.9630729166666665,61.204574992397426
1362586160.0,1.2898810416666666,31.33,66.62666666666667,2.5293229166666666,61.204574992397426
1362586160.25,1.28641075,31.33,66.66333331455999,2.5019791666666666,61.204574992397426
1362586160.5,1.2829404999999998,31.33,66.69999999999999,2.3372916666666668,61.204574992397426
1362586160.75,1.2797372083333334,31.33,66.73666668544,1.9123697916666667,61.204574992397426
1362586161.0,1.276961,31.33,66.77333333333333,1.8816927083333335,61.204574992397426
1362586161.25,1.2743983333333333,31.33,66.80999998122667,1.959296875,61.204574992397426
1362586161.5,1.27204925,31.33,66.84666666666666,1.7721614583333334,61.204574992397426
1362586161.75,1.26991375,31.33,66.88333335210666,1.6100520833333334,61.204574992397426
1362586162.0,1.2680452083333333,31.33,66.92,1.7916145833333335,61.204574992397426
1362586162.25,1.2664969583333332,31.33,66.95416664917333,1.8140104166666668,61.204574992397426
1362586162.5,1.2649486666666665,31.33,66.98833333333334,1.7005208333333333,61.204574992397426
1362586162.75,1.2634537916666666,31.329166666666666,67.02250001749334,1.8719010416666668,61.204574992397426
1362586163.0,1.2621725,31.327499999999997,67.05666666666667,2.175703125,61.204574992397426
1362586163.25,1.2609979583333333,31.325833333333332,67.08666665130667,2.1345833333333335,61.204574992397426
1362586163.5,1.2598767916666667,31.324166666666667,67.11666666666667,2.121171875,61.204574992397426
1362586163.75,1.2589157916666667,31.322499999999994,67.14666668202666,2.416197916666667,61.204574992397426
1362586164.0,1.258168375,31.32083333333333,67.17666666666666,2.4555729166666667,61.204574992397426
1362586164.25,1.2579014999999998,31.319166666666664,67.2058333184,2.3100520833333333,61.204574992397426
1362586164.5,1.2585955833333333,31.3175,67.235,2.3799479166666666,61.204574992397426
1362586164.75,1.2603039999999999,31.315833333333334,67.2641666816,2.5410416666666666,61.204574992397426
1362586165.0,1.2625996666666666,31.314166666666665,67.29333333333334,2.4411718749999998,61.204574992397426
1362586165.25,1.2651089166666665,31.3125,67.32166665216,2.3520833333333333,61.204574992397426
1362586165.5,1.2677783333333332,31.310833333333335,67.35,2.5513020833333333,61.204574992397426
1362586165.75,1.2706079166666666,31.31,67.37833334783998,2.7183593750000004,61.204574992397426
1362586166.0,1.2734374999999998,31.31,67.40666666666665,2.6750520833333336,61.204574992397426
1362586166.25,1.2762670833333334,31.31,67.43499998549332,2.821145833333334,61.204574992397426
1362586166.5,1.2790966666666665,31.31,67.46333333333332,3.1359895833333336,61.204574992397426
1362586166.75,1.2816592916666667,31.31,67.49166668117333,3.305052083333333,61.204574992397426
1362586167.0,1.2836346666666667,31.31,67.52,3.47671875,61.204574992397426
1362586167.25,1.2848092083333333,31.31,67.54166665557334,3.7744010416666662,61.204574992397426
1362586167.5,1.2848091666666668,31.31,67.56333333333333,4.00265625,61.204574992397426
1362586167.75,1.2834744166666667,31.31,67.58500001109333,4.1075,61.204574992397426
1362586168.0,1.281338875,31.31,67.60666666666667,4.319375,61.204574992397426
1362586168.25,1.278883,31.31,67.62749998933334,4.391276041666667,61.204574992397426
1362586168.5,1.2761601666666667,31.31,67.64833333333334,4.189401041666666,61.204574992397426
1362586168.75,1.2732237916666667,31.31,67.66916667733334,3.9594010416666663,61.204574992397426
1362586169.0,1.2701806249999998,31.31,67.69000000000001,3.893333333333333,61.204574992397426
1362586169.25,1.2668705,31.31,67.70749999104001,3.6888020833333326,61.204574992397426
