timestamp,EDA,TEMP,HR,BVP,ACC_mag
1361705029.0,0.25870666666666664,32.81,,13.02015625,63.82789358893179
1361705029.25,0.25982014285714283,32.81,,12.628705357142858,63.82789358893179
1361705029.5,0.26209662499999997,32.81,,12.3351171875,63.82789358893179
1361705029.75,0.2652908333333333,32.81,,11.992743055555557,63.82789358893179
1361705030.0,0.26861495,32.81,,11.238875,63.838453916326614
1361705030.25,0.2726741818181818,32.81,,10.308210227272728,63.87705956186215
1361705030.5,0.2777118333333333,32.81,,9.452604166666667,63.91133898518877
1361705030.75,0.28614675,32.810833333333335,,9.032109375,63.949715572926266
1361705031.0,0.293887625,32.8125,,8.586822916666668,63.9574089811293
1361705031.25,0.30146837499999996,32.81416666666667,,7.597812500000001,63.97617566465203
1361705031.5,0.308835625,32.81583333333334,,5.750234374999999,63.98973018597746
1361705031.75,0.32047366666666666,32.81916666666667,,4.180572916666667,64.00927579421742
1361705032.0,0.33745020833333333,32.82416666666666,,3.1996093749999996,64.0301244430067
1361705032.25,0.35560125000000004,32.829166666666666,,2.4330208333333334,64.05097309179597
1361705032.5,0.37337862499999996,32.83416666666667,,1.6694531250000002,64.07182174058525
1361705032.75,0.39051541666666667,32.839999999999996,,0.9204687500000001,64.09267038937453
1361705033.0,0.40717175,32.846666666666664,,0.537265625,64.0998374402259
1361705033.25,0.42276033333333335,32.85333333333333,,0.5486979166666667,64.0746549031069
1361705033.5,0.43680074999999996,32.86,,0.6818749999999999,64.04736431394089
1361705033.75,0.44998699999999997,32.865833333333335,,0.623359375,64.02007372477487
1361705034.0,0.4630664583333333,32.87083333333333,,0.37143229166666664,64.02558181390164
1361705034.25,0.4760925416666666,32.87583333333333,,0.28091145833333336,64.01790112895037
1361705034.5,0.489118625,32.880833333333335,,0.7491145833333333,64.01543260619643
1361705034.75,0.49776712500000003,32.884166666666665,,1.2511458333333334,64.00697299652795
1361705035.0,0.5010237083333333,32.88583333333333,,1.4762239583333334,63.99721034631014
1361705035.25,0.5030524166666667,32.887499999999996,,1.4008072916666665,63.98744769609234
1361705035.5,0.504493875,32.88916666666667,,1.5029427083333333,63.97153296274386
1361705035.75,0.5055615833333333,32.891666666666666,,1.873984375,63.95602638687118
1361705036.0,0.506575875,32.895,,2.284348958333333,63.95090068235243
1361705036.25,0.5075368333333333,32.89833333333333,,2.41359375,63.95891242855109
1361705036.5,0.5084444166666667,32.901666666666664,,2.339921875,63.96468401423476
1361705036.75,0.5091384583333333,32.905,,2.585260416666667,63.958817831573405
1361705037.0,0.509672375,32.90833333333334,,3.155625,63.951284206544564
1361705037.25,0.5101528750000001,32.91166666666666,,3.559791666666667,63.957709196024204
1361705037.5,0.5105799583333334,32.915,,3.3572395833333335,63.972587444915064
1361705037.75,0.5110070416666667,32.91916666666666,,3.0991927083333333,63.99225709668202
1361705038.0,0.5114341250000001,32.92416666666667,,3.180885416666667,64.00981703474439
1361705038.25,0.5118078333333334,32.92916666666667,,3.588802083333333,64.01823228741715
1361705038.5,0.5121281666666667,32.93416666666666,,3.6412239583333332,64.0256870901398
1361705038.75,0.5124485000000001,32.9375,,3.3954947916666662,64.03273373538666
1361705039.0,0.5126620833333334,32.93916666666667,76.0,3.155364583333333,64.02935221408929
1361705039.25,0.512768875,32.94083333333334,75.08333380266667,3.20828125,64.01547428522927
1361705039.5,0.51282225,32.9425,74.16666666666666,3.4858854166666666,64.00383651688425
1361705039.75,0.51282225,32.94416666666667,73.24999953066666,3.37953125,64.00966124996508
1361705040.0,0.51282225,32.94583333333333,72.33333333333333,3.0316666666666667,64.01873881947556
1361705040.25,0.51282225,32.947500000000005,71.166667264,2.7590625,64.0136165495879
1361705040.5,0.51282225,32.94916666666667,70.0,2.771953125,63.99881842146979
1361705040.75,0.51282225,32.95,68.833332736,2.8530729166666666,63.973282587041474
1361705041.0,0.512768875,32.95,67.66666666666667,2.612005208333333,63.94985646631775
1361705041.25,0.5127155,32.95,67.46666676906666,2.07625,63.938996239091516
1361705041.5,0.5127155,32.95,67.26666666666667,1.908515625,63.94428491625092
1361705041.75,0.512662125,32.95083333333334,67.06666656426667,1.9772916666666667,63.95030525661679
1361705042.0,0.51260875,32.9525,66.86666666666666,1.9831770833333333,63.9597908908689
1361705042.25,0.512555375,32.95416666666667,67.71416623274666,1.71484375,63.98429696624606
1361705042.5,0.512502,32.95583333333334,68.56166666666667,1.199375,64.0058803799544
1361705042.75,0.512502,32.958333333333336,69.40916710058666,1.037421875,64.00445286545093
1361705043.0,0.512555375,32.961666666666666,70.25666666666666,1.0101562499999999,63.99492723954961
1361705043.25,0.512662125,32.965,71.37583276032,0.721328125,63.98775833729627
1361705043.5,0.512768875,32.968333333333334,72.495,0.21177083333333327,63.98474351291372
1361705043.75,0.5128756250000001,32.97166666666667,73.61416723968,-0.27872395833333335,63.986209252439494
1361705044.0,0.5129823750000001,32.975,74.73333333333333,-0.421953125,63.9862092524395
1361705044.25,0.513089125,32.97833333333333,75.59999955626667,-0.41312500000000013,63.98278804433161
1361705044.5,0.513195875,32.98166666666667,76.46666666666667,-0.6847135416666666,63.97033046491887
1361705044.75,0.513302625,32.984166666666674,77.33333377706667,-1.0926302083333332,63.95714122229965
1361705045.0,0.5134093750000001,32.98583333333334,78.2,-1.3231510416666665,63.945415306093366
1361705045.25,0.5135695,32.987500000000004,78.85249966592,-1.340625,63.920909230716205
1361705045.5,0.513783,32.98916666666667,79.505,-1.1958593750000002,63.899325817007856
1361705045.75,0.513943125,32.99041666666667,80.15750033408,-1.289140625,63.8949285984305
1361705046.0,0.51410325,32.99125,80.81,-1.2755208333333334,63.8949285984305
1361705046.25,0.51421,32.99208333333333,81.32416640341333,-0.8863541666666667,63.8949285984305
1361705046.5,0.51431675,32.992916666666666,81.83833333333334,-0.47802083333333334,63.89199711937894
1361705046.75,0.5144234999999999,32.995000000000005,82.35250026325333,-0.20822916666666666,63.89053137985315
1361705047.0,0.51453025,32.998333333333335,82.86666666666666,-0.014609374999999996,63.89053137985315
1361705047.25,0.5146369999999999,33.00166666666667,83.26833312768,0.3315104166666667,63.893827483951526
1361705047.5,0.5147437499999999,33.005,83.66999999999999,0.7122395833333334,63.913946346544684
1361705047.75,0.5148505,33.00833333333333,84.07166687231998,0.9646875,63.948640536151395
1361705048.0,0.51495725,33.01166666666666,84.47333333333331,1.0223437499999999,63.97693300451407
1361705048.25,0.5150106249999999,33.015,84.79249983658666,1.1192708333333334,64.006563437148
1361705048.5,0.5150106249999999,33.01833333333334,85.11166666666665,1.3533854166666666,64.04069086345059
1361705048.75,0.515064,33.022083333333335,85.43083349674666,1.5951302083333332,64.06675339136116
1361705049.0,0.5150106249999999,33.026250000000005,85.75,1.6108333333333336,64.10371463418441
1361705049.25,0.514903875,33.03041666666667,86.00749986816001,1.391796875,64.14464322013662
1361705049.5,0.514797125,33.03458333333334,86.26500000000001,1.2898177083333333,64.18006658992546
1361705049.75,0.5146903749999999,33.0375,86.52250013184,1.3060677083333334,64.21103498683067
1361705050.0,0.5145836249999999,33.03916666666667,86.78000000000002,1.03796875,64.2406654194646
1361705050.25,0.514476875,33.04083333333333,86.99749988864002,0.633515625,64.26343184327679
1361705050.5,0.51431675,33.0425,87.21500000000002,0.3684895833333333,64.26795639164072
1361705050.75,0.51410325,33.044999999999995,87.43250011136001,0.4386979166666667,64.25180595860391
1361705051.0,0.51388975,33.04833333333333,87.65000000000002,0.68203125,64.19913886057732
1361705051.25,0.5136228333333334,33.05166666666666,87.81999991296001,0.6562760416666666,64.09536789032377
1361705051.5,0.5027321666666666,33.055,87.99000000000001,0.15559895833333334,63.958197865049804
1361705051.75,0.4858089583333334,33.0575,88.16000008704,-0.6226302083333334,63.86807225071929
1361705052.0,0.46877895833333333,33.05916666666667,88.33,-1.3590104166666668,63.75077736765919
1361705052.25,0.45180233333333336,33.060833333333335,88.45999993344,-1.6485677083333332,63.62504452908191
1361705052.5,0.43482570833333334,33.0625,88.59,-2.0236458333333336,63.534868025690095
1361705052.75,0.4178490833333333,33.064166666666665,88.72000006656,-2.2027604166666666,63.483886815436854
1361705053.0,0.40087245833333335,33.06583333333334,88.85000000000001,-1.883671875,63.41703031837238
1361705053.25,0.3838958333333333,33.0675,88.94166661973334,-1.8093229166666667,63.37034189902434
1361705053.5,0.37151037499999995,33.06916666666667,89.03333333333333,-2.40375,63.32662652197263
1361705053.75,0.3594452083333333,33.07,89.12500004693332,-3.5897916666666667,63.288234220654886
1361705054.0,0.3476469583333333,33.07,89.21666666666665,-4.927291666666667,63.31172664032878
1361705054.25,0.33643599999999996,33.07,89.2833332992,-5.935,63.429482697655054
1361705054.5,0.33584879166666665,33.07,89.35,-6.252187499999999,63.5932739904758
1361705054.75,0.341881375,33.07,89.4166667008,-5.808385416666666,63.70788028339413
1361705055.0,0.3514907916666667,33.07,89.48333333333333,-5.39203125,63.84614246001146
1361705055.25,0.36457025000000004,33.07,89.53249997482666,-5.9433854166666675,63.99109328948683
1361705055.5,0.3782369583333334,33.07,89.58166666666668,-6.693489583333334,64.09636657177994
1361705055.75,0.3927044583333334,33.07083333333333,89.63083335850668,-7.716927083333332,64.12473145707746
1361705056.0,0.40829304166666663,33.0725,89.68,-9.073593749999999,64.17289433951693
1361705056.25,0.4248959583333333,33.07416666666667,89.71916664661333,-10.139010416666666,64.14452913531736
1361705056.5,0.4369610833333333,33.075833333333335,89.75833333333333,-10.639739583333332,64.10206990095753
1361705056.75,0.449186375,33.07833333333334,89.79750002005333,-10.798333333333332,64.07499526064305
1361705057.0,0.4613049166666667,33.08166666666667,89.83666666666666,-11.118046875,64.01461149309549
1361705057.25,0.47304975,33.085,89.87583331328,-12.34234375,63.860252844425894
1361705057.5,0.48484795833333333,33.08833333333333,89.91499999999999,-14.794921875,63.6483223037066
1361705057.75,0.4962190833333333,33.09166666666667,89.95416668672,-17.744895833333334,63.41631782767516
1361705058.0,0.5042802916666667,33.095,89.99333333333334,-20.071354166666666,63.169330880235435
1361705058.25,0.5089248749999999,33.098333333333336,90.02166665216001,-21.619348958333333,62.92350239967087
1361705058.5,0.5129822083333333,33.10166666666667,90.05000000000001,-22.511432291666665,62.68396609898664
1361705058.75,0.51623875,33.104166666666664,90.07833334784002,-23.031380208333335,62.48638657971734
1361705059.0,0.5183742083333334,33.10583333333333,90.10666666666668,-23.544713541666667,62.2862223143886
1361705059.25,0.5194419166666667,33.107499999999995,90.13583331840002,-23.541067708333333,62.14598596270586
1361705059.5,0.5204028333333333,33.10916666666667,90.16500000000002,-22.612968749999997,62.01143516327173
1361705059.75,0.5208832916666667,33.11,90.19416668160001,-21.297395833333336,61.85694502978086
1361705060.0,0.5212035833333334,33.11,90.22333333333334,-19.465625,61.71679768876524
1361705060.25,0.5213637083333333,33.11,90.25333331797334,-16.730520833333333,61.62612749917498
1361705060.5,0.5214704583333333,33.11,90.28333333333333,-13.060703125000002,61.57589602749169
1361705060.75,0.5213636666666667,33.11,90.31333334869332,-9.291744791666668,61.555943978471554
1361705061.0,0.52109675,33.11,90.34333333333332,-6.066145833333334,61.543589070977596
1361705061.25,0.5207230416666666,33.11,90.37833331541333,-2.9731770833333346,61.52785765613866
1361705061.5,0.5202425416666666,33.11,90.41333333333333,-0.15651041666666746,61.51546048957956
1361705061.75,0.519708625,33.11,90.44833335125332,2.310026041666666,61.503274618346154
1361705062.0,0.5191747083333333,33.11,90.48333333333333,4.712317708333333,61.49108874711275
1361705062.25,0.5186942083333334,33.11,90.51499998378667,6.544921875,61.47890287587935
1361705062.5,0.5183205000000001,33.11,90.54666666666667,7.46625,61.47357155721473
1361705062.75,0.5180001666666667,33.11,90.57833334954667,7.991458333333333,61.47357155721473
1361705063.0,0.5176798333333333,33.11,90.61,8.094895833333334,61.47357155721473
1361705063.25,0.5173595,33.11,90.64249998336,8.108697916666667,61.47357155721473
1361705063.5,0.5170391666666667,33.11,90.67500000000001,8.118359375,61.48536652084735
1361705063.75,0.5167188333333333,33.11,90.70750001664001,7.8428125,61.50633534508311
1361705064.0,0.51650525,33.11,90.74000000000001,7.603177083333333,61.52730416931886
1361705064.25,0.5163450416666667,33.11,90.77333331626667,7.497265625000001,61.54827299355463
1361705064.5,0.516291625,33.11,90.80666666666667,7.032838541666667,61.569241817790385
1361705064.75,0.516291625,33.11,90.84000001706667,6.497994791666667,61.59021064202614
1361705065.0,0.5161315000000001,33.11,90.87333333333333,6.2215625,61.611179466261916
1361705065.25,0.51581125,33.11,90.90999998122666,5.974010416666666,61.63214829049767
1361705065.5,0.5154375833333334,33.11,90.94666666666666,5.515130208333333,61.653117114733426
1361705065.75,0.5150105,33.11083333333333,90.98333335210667,5.1071875,61.6740859389692
1361705066.0,0.5145834166666666,33.112500000000004,91.02,4.908802083333333,61.69505476320495
1361705066.25,0.5141563333333333,33.11416666666667,91.04333332138667,4.641223958333333,61.71602358744071
1361705066.5,0.51372925,33.115833333333335,91.06666666666666,4.317421875,61.72519744804386
1361705066.75,0.5133021666666667,33.1175,91.09000001194667,4.1857291666666665,61.71864469047018
1361705067.0,0.5127683333333334,33.119166666666665,91.11333333333334,3.972864583333333,61.69767586623443
1361705067.25,0.5122345,33.12083333333334,91.12666665984001,3.635026041666667,61.67670704199866
1361705067.5,0.5116472916666667,33.1225,91.14000000000001,3.583697916666667,61.65158285258315
1361705067.75,0.5110600833333333,33.12416666666667,91.15333334016,3.6300781250000003,61.62111605079363
1361705068.0,0.510633,33.12583333333333,91.16666666666667,3.3495052083333334,61.59064924900412
1361705068.25,0.5103126666666667,33.127500000000005,91.1083333632,3.1400520833333334,61.56018244721462
1361705068.5,0.510099125,33.12916666666667,91.05,3.3031770833333334,61.529715645425114
1361705068.75,0.509939,33.13,90.99166663679999,3.4155989583333333,61.4992488436356
1361705069.0,0.5097788750000001,33.13,90.93333333333332,3.2622916666666666,61.468782041846104
1361705069.25,0.5096721250000001,33.13,90.82333338965333,3.03,61.43831524005659
1361705069.5,0.5095120000000001,33.13,90.71333333333334,2.9817968750000006,61.40784843826709
1361705069.75,0.50940525,33.13,90.60333327701333,3.0357291666666666,61.38393439405126
1361705070.0,0.5093518750000001,33.13,90.49333333333334,3.079322916666667,61.3744364164975
1361705070.25,0.50919175,33.13,90.33500008106667,2.9698437499999994,61.36493843894377
1361705070.5,0.5091383750000001,33.13,90.17666666666668,2.7602604166666667,61.35959582656978
1361705070.75,0.5090850000000001,33.13,90.01833325226667,2.708359375,61.35959582656978
1361705071.0,0.5089248333333334,33.13,89.86,2.854635416666667,61.35959582656978
1361705071.25,0.5088180416666668,33.13,89.70916674389333,2.835104166666667,61.35959582656978
1361705071.5,0.5085510833333334,33.13,89.55833333333334,2.487734375,61.35959582656978
1361705071.75,0.5083375416666667,33.130833333333335,89.40749992277333,2.22203125,61.35959582656978
1361705072.0,0.508124,33.1325,89.25666666666666,2.310677083333333,61.35959582656978
1361705072.25,0.5078036666666667,33.134166666666665,89.10750007637333,2.540078125,61.35959582656978
1361705072.5,0.507590125,33.13583333333333,88.95833333333334,2.483177083333333,61.35959582656978
1361705072.75,0.5073765833333334,33.1375,88.80916659029334,2.180833333333333,61.35959582656978
1361705073.0,0.507109625,33.13916666666667,88.66000000000001,1.9472916666666666,61.35959582656978
1361705073.25,0.5068960416666667,33.14083333333333,88.49666675029334,2.067604166666667,61.35959582656978
1361705073.5,0.5065757083333333,33.142500000000005,88.33333333333334,2.2901822916666665,61.35959582656978
1361705073.75,0.506255375,33.14416666666667,88.16999991637333,2.2596354166666663,61.35959582656978
1361705074.0,0.5060418333333333,33.145833333333336,88.00666666666666,1.9440364583333334,61.35959582656978
1361705074.25,0.5058282916666667,33.1475,87.82416676010666,1.7661979166666668,61.35959582656978
1361705074.5,0.5056681666666667,33.149166666666666,87.64166666666665,1.98234375,61.35959582656978
1361705074.75,0.505347875,33.15,87.45916657322665,2.2781510416666664,61.35959582656978
1361705075.0,0.5049742083333333,33.15,87.27666666666666,2.320442708333333,61.35959582656978
1361705075.25,0.5046539583333333,33.15,87.07333343743998,2.149583333333333,61.35959582656978
1361705075.5,0.504226875,33.15,86.86999999999999,2.041354166666667,61.35959582656978
1361705075.75,0.503746375,33.150416666666665,86.66666656256,2.305494791666667,61.35959582656978
1361705076.0,0.5033192916666667,33.15125,86.46333333333332,2.6119270833333332,61.35959582656978
1361705076.25,0.5029455833333334,33.15208333333333,86.25333344085332,2.6596875,61.35959582656978
1361705076.5,0.50262525,33.15291666666666,86.04333333333332,2.487604166666667,61.35959582656978
1361705076.75,0.5022515416666667,33.153749999999995,85.83333322581333,2.354791666666667,61.35959582656978
1361705077.0,0.5018778333333334,33.15458333333333,85.62333333333333,2.593359375,61.35959582656978
1361705077.25,0.501504125,33.15541666666666,85.40916677632,2.926901041666667,61.35959582656978
1361705077.5,0.5011304166666667,33.15625,85.195,3.0251562499999998,61.35959582656978
1361705077.75,0.5008634583333333,33.15666666666666,84.98083322368,2.8947916666666664,61.35959582656978
1361705078.0,0.500649875,33.156666666666666,84.76666666666667,2.6509114583333333,61.35959582656978
1361705078.25,0.5004362916666667,33.156666666666666,84.55250010965334,2.7378125,61.35959582656978
1361705078.5,0.5002761250000001,33.15666666666666,84.33833333333334,3.035625,61.360993326184115
1361705078.75,0.500169375,33.15625,84.12416655701334,3.11859375,61.38453618458354
1361705079.0,0.500062625,33.15541666666666,83.91000000000001,3.085546875,61.40959986885872
1361705079.25,0.49995587499999994,33.154583333333335,83.69583344298667,2.8586458333333336,61.43466355313391
1361705079.5,0.49979575000000004,33.153749999999995,83.48166666666667,2.875546875,61.45972723740908
1361705079.75,0.499689,33.15291666666666,83.26749989034667,3.1303645833333333,61.50177668991447
1361705080.0,0.499528875,33.15208333333333,83.05333333333333,3.2425260416666664,61.54858664540772
1361705080.25,0.49936875,33.15125,82.84583343957333,3.144192708333333,61.60111323410802
1361705080.5,0.49931537499999995,33.150416666666665,82.63833333333332,2.866484375,61.65905014901631
1361705080.75,0.499208625,33.15,82.43083322709333,2.8451041666666668,61.73387796889329
1361705081.0,0.499101875,33.15,82.22333333333333,3.1405989583333334,61.808705788770276
1361705081.25,0.498995125,33.15,82.02083343701334,3.249921875,61.88353360864724
1361705081.5,0.49888837499999994,33.15,81.81833333333333,3.12515625,61.956963928909886
1361705081.75,0.49878162499999995,33.150416666666665,81.61583322965333,2.8172916666666663,62.003051688858626
1361705082.0,0.4986748750000001,33.15125,81.41333333333334,2.6169531249999998,62.03679665741794
1361705082.25,0.49851475,33.15208333333333,81.22000009898667,2.815651041666667,62.05770221831664
1361705082.5,0.498461375,33.15291666666666,81.02666666666667,2.9416927083333335,62.07860777921534
1361705082.75,0.498354625,33.153749999999995,80.83333323434667,2.8038281249999994,62.082527571883844
1361705083.0,0.49824787500000006,33.15458333333333,80.64,2.5048958333333333,62.081686861564485
1361705083.25,0.4980877083333333,33.15541666666666,80.45500009471999,2.4002343749999997,62.075129518038075
1361705083.5,0.4978741666666667,33.15625,80.27,2.6284114583333333,62.06316184830367
1361705083.75,0.497714,33.157083333333325,80.08499990528,2.6984375000000003,62.03430327360058
1361705084.0,0.4975004166666667,33.157916666666665,79.89999999999999,2.548984375,62.005444698897485
1361705084.25,0.49728683333333334,33.15875,79.72500008959999,2.261979166666667,61.9765861241944
1361705084.5,0.4970732500000001,33.15958333333333,79.55,2.0709635416666665,61.947727549491304
1361705084.75,0.4968062916666667,33.16,79.3749999104,2.2031770833333333,61.924066176317034
1361705085.0,0.49648595833333325,33.16,79.2,2.322578125,61.91122676865643
1361705085.25,0.49621899999999997,33.16,79.03250008576,2.228854166666667,61.91122676865643
1361705085.5,0.49589866666666665,33.16,78.865,1.9435937499999998,61.91122676865643
1361705085.75,0.4956317083333333,33.16,78.69749991423998,1.7411197916666665,61.91122676865643
1361705086.0,0.49536475,33.16,78.52999999999999,1.8546874999999998,61.91122676865643
1361705086.25,0.49509783333333335,33.16,78.36916674901332,1.9014322916666666,61.91122676865643
1361705086.5,0.4948309166666667,33.16,78.20833333333331,1.772734375,61.91122676865643
1361705086.75,0.494510625,33.16,78.04749991765333,1.5024739583333335,61.91122676865643
1361705087.0,0.494190375,33.16,77.88666666666666,1.2775,61.91122676865643
1361705087.25,0.493870125,33.16,77.73250007893333,1.3457552083333333,61.91122676865643
1361705087.5,0.4934964583333333,33.16,77.57833333333332,1.5629166666666665,61.91122676865643
1361705087.75,0.49312275,33.16,77.42416658773332,1.6481510416666667,61.91122676865643
1361705088.0,0.4928024166666667,33.16,77.27,1.5145572916666667,61.91122676865643
1361705088.25,0.4924820833333334,33.16,77.12166674261333,1.3316406250000001,61.91122676865643
1361705088.5,0.492108375,33.16,76.97333333333333,1.4883593750000002,61.91122676865643
1361705088.75,0.49168129166666663,33.16,76.82499992405333,1.8260416666666668,61.91122676865643
1361705089.0,0.4913075833333333,33.16,76.67666666666666,1.9506770833333336,61.91122676865643
1361705089.25,0.49098725000000004,33.16,76.53250007381332,1.9438020833333336,61.91122676865643
1361705089.5,0.49061354166666665,33.16,76.38833333333332,1.86984375,61.91122676865643
1361705089.75,0.4902398333333333,33.16,76.24416659285333,1.9785416666666666,61.91122676865643
1361705090.0,0.4899195,33.16,76.1,2.2219531249999998,61.91122676865643
1361705090.25,0.48959916666666664,33.16,75.96416673621333,2.357291666666667,61.91122676865643
1361705090.5,0.48933224999999997,33.16,75.82833333333333,2.2411979166666667,61.91122676865643
1361705090.75,0.4890653333333333,33.16,75.69249993045334,2.025729166666667,61.91122676865643
1361705091.0,0.488745,33.16,75.55666666666667,2.1241666666666665,61.91122676865643
1361705091.25,0.4884246666666667,33.16,75.43000006485333,2.3891927083333333,61.91122676865643
1361705091.5,0.48815770833333333,33.16,75.30333333333334,2.445546875,61.91122676865643
1361705091.75,0.48789075000000004,33.16,75.17666660181334,2.2557031249999997,61.91122676865643
1361705092.0,0.48762379166666664,33.16,75.05,1.9941145833333334,61.91122676865643
1361705092.25,0.48725008333333336,33.16,74.9375000576,1.88015625,61.91122676865643
1361705092.5,0.48692975,33.16,74.825,1.944140625,61.91122676865643
1361705092.75,0.4867161666666666,33.16,74.7124999424,2.0316145833333334,61.91122676865643
1361705093.0,0.48650258333333335,33.16,74.60000000000001,2.086614583333333,61.91122676865643
1361705093.25,0.48628899999999997,33.16,74.5000000512,2.0376041666666667,61.91122676865643
1361705093.5,0.4860754166666667,33.16,74.4,2.011588541666667,61.90684718711908
1361705093.75,0.4860220416666667,33.160833333333336,74.29999994880001,2.0275781250000002,61.88196229684934
1361705094.0,0.486235625,33.162499999999994,74.2,1.6430468750000002,61.833058156504215
1361705094.25,0.4864492083333333,33.16416666666667,74.11750004224001,0.8064322916666667,61.78130969782972
1361705094.5,0.48666279166666665,33.16583333333333,74.035,-0.28229166666666666,61.73504011238273
1361705094.75,0.48692975,33.166666666666664,73.95249995776,-1.461354166666667,61.69310117750863
1361705095.0,0.48719670833333334,33.166666666666664,73.87,-2.434791666666667,61.64848751410947
1361705095.25,0.4875704166666666,33.166666666666664,73.80000003584,-3.5595833333333338,61.60034927853738
1361705095.5,0.487944125,33.166666666666664,73.73,-4.710625,61.551741144091345
1361705095.75,0.4882644583333333,33.1675,73.65999996416001,-5.840338541666667,61.50869824375176
1361705096.0,0.48858479166666663,33.16916666666666,73.59,-7.240885416666667,61.46378669328708
1361705096.25,0.4887983333333334,33.170833333333334,73.53000003072,-8.584427083333333,61.42290767376783
1361705096.5,0.4889050833333333,33.1725,73.47,-9.489062500000001,61.40547954705338
1361705096.75,0.48890504166666665,33.17333333333333,73.40999996928001,-9.801744791666666,61.41544958131109
1361705097.0,0.48869145833333333,33.17333333333333,73.35000000000001,-9.576223958333333,61.45155070981634
1361705097.25,0.488371125,33.17333333333334,73.28833336490668,-8.9759375,61.49049615665098
1361705097.5,0.4878906666666667,33.17333333333333,73.22666666666667,-8.100130208333333,61.5239627302581
1361705097.75,0.4873034166666667,33.174166666666665,73.16499996842667,-7.354036458333333,61.553098653292324
1361705098.0,0.486609375,33.17583333333333,73.10333333333334,-6.297734375,61.58490930485163
1361705098.25,0.4858085833333334,33.1775,73.06250002090667,-4.698541666666666,61.62024452858385
1361705098.5,0.48495441666666667,33.17916666666667,73.02166666666668,-3.1755468749999998,61.65604965119002
1361705098.75,0.48410025,33.18,72.98083331242667,-1.7939583333333333,61.68628953968973
1361705099.0,0.4831927083333334,33.18,72.94,1.2205208333333333,61.71839807831455
1361705099.25,0.4823919583333333,33.18,72.93833333418667,5.335338541666666,61.74647408599393
1361705099.5,0.481644625,33.18,72.93666666666667,8.450625,61.755478782405866
1361705099.75,0.480843875,33.18,72.93499999914665,9.790625,61.75759062657804
1361705100.0,0.4799897083333333,33.18,72.93333333333332,11.051406250000001,61.75759062657804
1361705100.25,0.4792422916666666,33.18,72.954166656,13.073072916666666,61.765546239701195
1361705100.5,0.478655,33.18,72.975,15.159322916666667,61.77691140130571
1361705100.75,0.4782279166666667,33.17916666666667,72.99583334399999,17.553333333333335,61.78145746594752
1361705101.0,0.4778542083333333,33.1775,73.01666666666667,19.225416666666668,61.78714004674976
1361705101.25,0.47764066666666666,33.17583333333334,72.98583334912,20.386848958333335,61.78941307907067
1361705101.5,0.47742708333333334,33.174166666666665,72.955,21.715026041666665,61.79257122413415
1361705101.75,0.4772135,33.1725,72.92416665088,23.217057291666666,61.79257122413415
1361705102.0,0.4770532916666666,33.17083333333333,72.89333333333333,22.715390625,61.79257122413414
1361705102.25,0.47689308333333336,33.16916666666667,72.78750005418667,20.837317708333334,61.79257122413415
1361705102.5,0.47678624999999997,33.1675,72.68166666666667,19.693749999999998,61.78649342422943
1361705102.75,0.4767328333333334,33.16583333333333,72.57583327914666,19.832369791666668,61.77073876033617
1361705103.0,0.47673283333333333,33.16416666666667,72.47,19.331380208333332,61.75020396546815
1361705103.25,0.4767328333333334,33.1625,72.30916674901333,17.520677083333336,61.723999614218634
1361705103.5,0.47673283333333333,33.16083333333333,72.14833333333334,15.616510416666666,61.694385714487765
1361705103.75,0.47667941666666674,33.16,71.98749991765334,13.710651041666667,61.67243670591704
1361705104.0,0.4766260416666666,33.16,71.82666666666667,11.832942708333333,61.64880147349195
1361705104.25,0.476465875,33.16,71.66750008149333,9.952526041666667,61.63204389696421
1361705104.5,0.47635912500000005,33.16,71.50833333333333,7.894973958333334,61.61592352018045
1361705104.75,0.476199,33.16,71.34916658517334,5.66265625,61.60241158076625
1361705105.0,0.4759855,33.16,71.19,4.142057291666666,61.590675541629224
1361705105.25,0.4757719999999999,33.16,71.03333341354667,2.994270833333333,61.58387941464792
1361705105.5,0.4755585,33.16,70.87666666666667,1.6034635416666667,61.588607675815524
1361705105.75,0.47529162499999994,33.16083333333333,70.71999991978666,0.09854166666666665,61.60301280097164
1361705106.0,0.474971375,33.1625,70.56333333333333,-0.9406249999999999,61.62219805710254
1361705106.25,0.474651125,33.16416666666667,70.4091667456,-1.36890625,61.639097256491766
1361705106.5,0.474330875,33.16583333333333,70.255,-1.7355729166666667,61.655996455881
1361705106.75,0.47401062499999996,33.1675,70.10083325439999,-1.9643229166666665,61.67204986107279
1361705107.0,0.4736903333333334,33.16916666666666,69.94666666666666,-1.9254427083333334,61.688652973958504
1361705107.25,0.47337,33.17083333333333,69.79083341312,-2.0084635416666665,61.70178797942821
1361705107.5,0.4729962916666666,33.1725,69.63499999999999,-2.1149479166666665,61.713400672411375
1361705107.75,0.47262258333333335,33.174166666666665,69.47916658687998,-1.9429166666666668,61.725563073088445
1361705108.0,0.472248875,33.17583333333334,69.32333333333332,-1.782265625,61.73594957348835
1361705108.25,0.4718217916666667,33.1775,69.17500007594666,-1.9913541666666668,61.741396161732524
1361705108.5,0.47139470833333336,33.17916666666667,69.02666666666667,-2.2473958333333335,61.760325721343726
1361705108.75,0.47102099999999997,33.17916666666667,68.87833325738667,-2.0526562499999996,61.82985536542827
1361705109.0,0.47059387500000005,33.1775,68.73,-1.478671875,61.929355937111495
1361705109.25,0.4700599583333333,33.17583333333333,68.58666674005333,-1.29890625,62.04669899981883
1361705109.5,0.46947266666666665,33.174166666666665,68.44333333333333,-1.4577083333333334,62.185104552424406
1361705109.75,0.4688320000000001,33.17333333333334,68.29999992661334,-2.0123177083333332,62.31245725487184
1361705110.0,0.46824475,33.17333333333333,68.15666666666667,-2.5673958333333333,62.4984031950666
1361705110.25,0.46771091666666664,33.17333333333333,68.01750007125334,-2.926901041666667,62.69864850519145
1361705110.5,0.4672304583333333,33.17333333333333,67.87833333333333,-3.282291666666667,62.85571365942871
1361705110.75,0.46675,33.17333333333333,67.73916659541332,-3.8397395833333334,62.972485951165616
1361705111.0,0.4662695416666666,33.17333333333333,67.6,-4.441927083333334,63.10127631917209
1361705111.25,0.46578908333333335,33.17333333333333,67.475000064,-4.450130208333333,63.22236354446837
1361705111.5,0.46520183333333337,33.17333333333333,67.35,-4.401953125,63.3258415262693
1361705111.75,0.46450779166666667,33.17416666666667,67.224999936,-5.199453125000001,63.400098883619115
1361705112.0,0.46386716666666666,33.17583333333333,67.10000000000001,-6.646901041666666,63.38344752260676
1361705112.25,0.46327995833333335,33.1775,66.99000005632001,-7.874270833333334,63.209142940248995
1361705112.5,0.462746125,33.17916666666667,66.88000000000001,-9.108880208333334,63.00317599210536
1361705112.75,0.46215891666666664,33.18125,66.76999994368,-10.182187500000001,62.83483618624309
1361705113.0,0.46141154166666665,33.18375,66.66000000000001,-11.135390625000001,62.557303392165345
1361705113.25,0.46061075,33.18625,66.58833337002667,-12.064947916666668,62.25218415356256
1361705113.5,0.4597032083333334,33.18875,66.51666666666668,-13.237812500000002,62.029793859363586
1361705113.75,0.45879566666666666,33.191250000000004,66.44499996330667,-15.354010416666666,61.98866840749884
1361705114.0,0.4579415,33.19375,66.37333333333333,-17.98028645833333,61.82803387386799
1361705114.25,0.45714070833333326,33.19625,66.32000002730666,-20.977526041666668,61.648149242333
1361705114.5,0.4564467083333333,33.19875,66.26666666666667,-23.169869791666667,61.516776796212866
1361705114.75,0.45585950000000003,33.20125,66.21333330602667,-25.571562500000002,61.3451529257861
1361705115.0,0.4553256666666667,33.20375000000001,66.16,-27.279166666666665,61.35202707922525
1361705115.25,0.4548985833333334,33.206250000000004,66.13083334826666,-28.490494791666666,61.592353667160296
1361705115.5,0.454524875,33.20875,66.10166666666666,-29.55393229166667,61.79958935397817
1361705115.75,0.4543112916666667,33.21,66.07249998506667,-31.180026041666665,61.92016734860284
1361705116.0,0.45431125,33.21,66.04333333333334,-32.67325520833333,62.08948100646182
1361705116.25,0.4544180416666667,33.21,66.01083334997334,-32.96778645833333,62.24344099391337
1361705116.5,0.45463158333333337,33.21,65.97833333333334,-32.6775,62.35195263174126
1361705116.75,0.4549519166666666,33.21,65.94583331669334,-30.95505208333333,62.315797955708604
1361705117.0,0.45527224999999993,33.21,65.91333333333334,-28.50005208333333,62.39621143498726
1361705117.25,0.45553916666666666,33.21,65.88000001706668,-26.130963541666663,62.50169718562564
1361705117.5,0.4557526666666667,33.21,65.84666666666666,-24.59893229166667,62.55233451672106
1361705117.75,0.45601958333333337,33.21,65.81333331626666,-21.772343749999994,62.6218438121009
1361705118.0,0.45628650000000004,33.21,65.78,-19.12591145833333,62.57379287437832
1361705118.25,0.4565534583333333,33.21,65.74666668373334,-16.782526041666667,62.432100232481154
1361705118.5,0.45676704166666665,33.21,65.71333333333334,-13.726848958333333,62.33409836758876
1361705118.75,0.4568738333333333,33.21,65.67999998293332,-9.454062500000001,62.29617990276637
1361705119.0,0.45692724999999995,33.21,65.64666666666666,-5.519609374999999,62.26012552517781
1361705119.25,0.4568738333333333,33.21,65.61500001621333,-3.1020572916666667,62.25271189259163
1361705119.5,0.4568204166666667,33.21,65.58333333333333,-0.6352083333333332,62.251197821112875
1361705119.75,0.45671358333333334,33.20875,65.55166665045333,1.6005208333333334,62.25325255634244
1361705120.0,0.45660675,33.20625,65.52,3.1784635416666664,62.21452443898042
1361705120.25,0.4565533333333333,33.20375,65.48583335082667,4.769947916666667,62.15567427924787
1361705120.5,0.4565533333333333,33.20125,65.45166666666667,6.497135416666667,62.10184003752755
1361705120.75,0.4564999166666666,33.197916666666664,65.41749998250667,7.562473958333334,62.048005795807235
1361705121.0,0.4564999166666666,33.19375,65.38333333333334,8.195026041666667,61.994171554086925
1361705121.25,0.4564465,33.18958333333334,65.34500001962667,8.728307291666667,61.94033731236661
1361705121.5,0.45639308333333334,33.18541666666666,65.30666666666667,8.714479166666667,61.88650307064629
1361705121.75,0.45639308333333334,33.18125,65.26833331370668,8.079062500000001,61.83266882892598
1361705122.0,0.45639308333333334,33.17708333333333,65.23,7.413072916666667,61.778834587205665
1361705122.25,0.4564999166666666,33.172916666666666,65.18583335594667,7.015989583333333,61.72500034548535
1361705122.5,0.45660675,33.168749999999996,65.14166666666667,6.237135416666667,61.671166103765046
1361705122.75,0.45671358333333334,33.165416666666665,65.09749997738666,5.201848958333334,61.625540924290284
1361705123.0,0.4568204166666667,33.16291666666667,65.05333333333333,4.5343229166666665,61.6466500989435
1361705123.25,0.45692725000000006,33.16041666666667,65.00583335765333,3.982708333333333,61.68976228522185
1361705123.5,0.4570340833333333,33.157916666666665,64.95833333333333,3.364192708333333,61.73915733175689
1361705123.75,0.4570874999999999,33.15624999999999,64.91083330901333,2.798515625,61.79232209444593
1361705124.0,0.4570340833333333,33.15541666666667,64.86333333333333,2.5689322916666666,61.84548685713497
1361705124.25,0.4569272916666667,33.15458333333333,64.81416669184,2.3747656249999998,61.898651619824
1361705124.5,0.45671375000000003,33.15375,64.765,1.9966406250000002,61.951816382513044
1361705124.75,0.45644683333333336,33.15291666666666,64.71583330816,1.6636197916666664,62.00498114520209
1361705125.0,0.45612654166666666,33.15208333333333,64.66666666666667,1.6864322916666665,62.058145907891124
1361705125.25,0.4556994583333333,33.15125,64.61750002517334,1.8020833333333333,62.11131067058017
1361705125.5,0.455272375,33.150416666666665,64.56833333333334,1.8117708333333333,62.164475433269196
1361705125.75,0.45479187499999996,33.150416666666665,64.51916664149334,1.712578125,62.20955666103105
1361705126.0,0.4541512083333333,33.15125,64.47000000000001,1.7429166666666662,62.219609237441745
1361705126.25,0.45335041666666664,33.15208333333333,64.39500003840001,1.9387499999999998,62.22966181385244
1361705126.5,0.45249625,33.15291666666666,64.32000000000001,2.174505208333333,62.23343153000644
1361705126.75,0.4516955,33.15375,64.2449999616,2.2392187499999996,62.23343153000644
1361705127.0,0.45094816666666665,33.15458333333333,64.17,2.15203125,62.23343153000644
1361705127.25,0.45025420833333335,33.15541666666667,64.06916671829333,2.213802083333333,62.23343153000644
1361705127.5,0.449667,33.15625,63.968333333333334,2.494192708333333,62.23343153000644
1361705127.75,0.44907974999999994,33.157916666666665,63.86749994837333,2.6598697916666665,62.23343153000644
1361705128.0,0.44849245833333334,33.16041666666667,63.76666666666666,2.538020833333333,62.23343153000644
1361705128.25,0.4479051666666667,33.16291666666666,63.66666671786666,2.492942708333333,62.23343153000644
1361705128.5,0.447211125,33.165416666666665,63.56666666666666,2.708020833333333,62.23343153000644
1361705128.75,0.446623875,33.166666666666664,63.466666615466664,2.986119791666667,62.23343153000644
1361705129.0,0.44609004166666666,33.166666666666664,63.36666666666667,2.9780208333333333,62.23343153000644
1361705129.25,0.4457163333333333,33.166666666666664,63.29333337088,2.8630729166666664,62.23343153000644
1361705129.5,0.44539599999999996,33.166666666666664,63.22,2.9339322916666664,62.23343153000644
1361705129.75,0.44507566666666665,33.166666666666664,63.14666662912,3.1332812499999996,62.23343153000644
1361705130.0,0.44475533333333334,33.166666666666664,63.07333333333333,3.1537760416666667,62.22878299404817
1361705130.25,0.44443499999999997,33.166666666666664,63.020000027306665,2.996796875,62.21873041763747
1361705130.5,0.44411466666666666,33.166666666666664,62.96666666666666,2.971536458333333,62.20867784122678
1361705130.75,0.443901125,33.16583333333333,62.91333330602666,3.147604166666667,62.19862526481609
1361705131.0,0.443741,33.16416666666667,62.85999999999999,3.3088281250000002,62.1885726884054
1361705131.25,0.443687625,33.162499999999994,62.805000028159995,3.188776041666667,62.17499555080948
1361705131.5,0.443741,33.160833333333336,62.75,2.9884375000000003,62.15739034328757
1361705131.75,0.443687625,33.16,62.694999971840005,2.8611718749999997,62.13886168206946
1361705132.0,0.443741,33.16,62.64000000000001,2.829947916666667,62.120081053878096
1361705132.25,0.443794375,33.16,62.585833361066676,2.6313020833333334,62.10130042568672
1361705132.5,0.44384775000000004,33.16,62.53166666666667,2.3216927083333334,62.082519797495344
1361705132.75,0.443901125,33.16,62.47749997226667,2.2202864583333333,62.06373916930398
1361705133.0,0.44395450000000003,33.16,62.42333333333334,2.3080208333333334,62.04960707707088
1361705133.25,0.44395450000000003,33.16,62.38083335509334,2.2563020833333334,62.04092101978575
1361705133.5,0.443901125,33.16,62.33833333333334,2.0009635416666667,62.03261291296052
1361705133.75,0.44368758333333336,33.16,62.29583331157333,1.7452083333333335,62.02430480613529
1361705134.0,0.44347404166666665,33.16,62.25333333333333,1.6189062500000002,62.016080688301145
1361705134.25,0.4431537083333334,33.16,62.22833334613333,1.63078125,62.01108717018342
1361705134.5,0.442833375,33.16,62.20333333333333,1.635,62.01007972749614
1361705134.75,0.4425130416666667,33.16,62.178333320533326,1.6970572916666666,62.010499672451594
1361705135.0,0.4421927083333333,33.16,62.15333333333333,1.8168749999999998,62.0111715843803
1361705135.25,0.441872375,33.16,62.14583333717333,2.05359375,62.011843496309034
1361705135.5,0.44149866666666665,33.16,62.138333333333335,2.263984375,62.01222144676893
1361705135.75,0.4411249583333334,33.16,62.130833329493335,2.308203125,62.012221446768926
1361705136.0,0.44075125,33.16,62.123333333333335,2.3452864583333333,62.01222144676893
1361705136.25,0.44037754166666665,33.16,62.12833333077334,2.52453125,62.01217945227339
1361705136.5,0.4400572083333334,33.16,62.13333333333334,2.7186979166666663,62.011759507317926
1361705136.75,0.4398436666666667,33.16,62.138333335893336,2.8806770833333335,62.01133956236249
1361705137.0,0.43968350000000006,33.16,62.14333333333334,3.05484375,62.01083562841595
1361705137.25,0.43957675,33.16,62.15833332565334,3.162473958333333,62.01062565593822
1361705137.5,0.439416625,33.16,62.17333333333333,3.169244791666666,62.01045767795605
1361705137.75,0.43930987499999996,33.16,62.188333341013326,3.131536458333333,62.00978576602733
1361705138.0,0.43914975000000006,33.16,62.203333333333326,3.1757031249999996,62.00911385409861
1361705138.25,0.43893625000000003,33.16,62.22999998634666,3.188046875,62.00844194216989
1361705138.5,0.4388295,33.16,62.25666666666666,3.0938541666666666,62.00806399170998
1361705138.75,0.438669375,33.16,62.283333346986666,2.994270833333333,62.00806399170998
1361705139.0,0.438455875,33.16,62.31,2.9771875,62.00806399170998
1361705139.25,0.43829575000000004,33.16,62.346666647893336,2.9765625,62.00806399170998
1361705139.5,0.43808220833333333,33.16,62.38333333333334,2.933697916666667,62.00806399170998
1361705139.75,0.4379220833333333,33.16,62.42000001877334,2.8557291666666664,62.00806399170998
1361705140.0,0.43765516666666665,33.16,62.45666666666667,2.8185937500000002,62.00806399170998
1361705140.25,0.43738825,33.16,62.49666664618667,2.868541666666667,62.00806399170998
1361705140.5,0.43717470833333333,33.16,62.536666666666676,2.931041666666667,62.00806399170998
1361705140.75,0.43690775000000004,33.16,62.57666668714668,2.9363541666666664,62.00201166526913
1361705141.0,0.43674758333333336,33.16,62.616666666666674,2.8743489583333335,61.99394189668134
1361705141.25,0.43664079166666664,33.16,62.66083331072001,2.8514062499999997,61.98587212809354
1361705141.5,0.43637383333333335,33.16,62.705,2.8858333333333337,61.977802359505745
1361705141.75,0.4362670416666667,33.16,62.749166689279996,2.7813020833333333,61.96973259091795
1361705142.0,0.43616020833333335,33.16,62.79333333333333,2.568515625,61.96166282233016
1361705142.25,0.43605337499999997,33.16,62.839166643199995,2.421119791666667,61.95359305374236
1361705142.5,0.4359999583333333,33.16,62.885,2.393359375,61.94215649430083
1361705142.75,0.43583974999999997,33.16,62.9308333568,2.258619791666667,61.92869986034708
1361705143.0,0.43578633333333333,33.16,62.97666666666667,1.9145312500000002,61.91524322639332
1361705143.25,0.4356795416666667,33.16,63.02249997653333,1.5834114583333332,61.90178659243957
1361705143.5,0.435519375,33.16,63.06833333333333,1.3688020833333334,61.88832995848582
1361705143.75,0.43541262500000005,33.16,63.11416669013333,1.0772135416666666,61.880925650972905
1361705144.0,0.4351990833333333,33.16,63.16,0.7306510416666666,61.87553878560694
1361705144.25,0.43503891666666666,33.16,63.20166664533333,0.4715364583333333,61.87015192024098
1361705144.5,0.43498554166666664,33.16,63.24333333333334,0.34231770833333336,61.86476505487502
1361705144.75,0.434772,33.16,63.28500002133334,0.3496875,61.859378189509066
1361705145.0,0.43461187500000004,33.16,63.326666666666675,0.32359375,61.8539913241431
1361705145.25,0.434398375,33.16,63.36416664746667,0.23713541666666668,61.84860445877714
1361705145.5,0.43423825,33.16,63.40166666666667,0.08088541666666667,61.84658438426491
1361705145.75,0.43413149999999995,33.16,63.43916668586667,0.04807291666666666,61.84658438426491
1361705146.0,0.433918,33.16,63.47666666666666,0.23427083333333332,61.84658438426491
1361705146.25,0.43375787499999996,33.16,63.51166664874666,0.43114583333333334,61.84658438426491
1361705146.5,0.43365112499999997,33.16,63.54666666666667,0.5534895833333333,61.84658438426491
1361705146.75,0.433491,33.16,63.581666684586665,0.8366666666666666,61.84658438426491
1361705147.0,0.43338424999999997,33.16,63.61666666666667,1.0295572916666667,61.844646536513096
1361705147.25,0.43322412499999996,33.16,63.65333331456,0.8486718750000001,61.834698388261025
1361705147.5,0.43306400000000006,33.16,63.69,0.4442708333333334,61.81939000978784
1361705147.75,0.43295725,33.15958333333333,63.726666685439994,0.22403645833333338,61.802602764221405
1361705148.0,0.43285049999999997,33.15875,63.76333333333333,0.35859375000000004,61.78192640327012
1361705148.25,0.43274375,33.157916666666665,63.803333312853326,0.5065364583333334,61.77286391758105
1361705148.5,0.43258362499999997,33.157083333333325,63.84333333333333,0.7874479166666667,61.76612209858336
1361705148.75,0.43253024999999995,33.156666666666666,63.88333335381333,0.8829166666666666,61.763885041109894
1361705149.0,0.43253024999999995,33.15666666666666,63.923333333333325,0.3425,61.7680446696851
1361705149.25,0.432637,33.156666666666666,63.971666641919995,-0.6608072916666665,61.77472469314409
1361705149.5,0.43274375,33.15666666666666,64.02,-1.8626562499999997,61.79295518039262
1361705149.75,0.432903875,33.156666666666666,64.06833335808,-3.3005729166666664,61.800265159036904
1361705150.0,0.43306399999999995,33.15666666666666,64.11666666666666,-4.526328125,61.817325983213664
1361705150.25,0.43311737499999997,33.156666666666666,64.16916663978667,-4.635859375,61.827274131465735
1361705150.5,0.43306399999999995,33.15666666666666,64.22166666666666,-4.951796875,61.84258250993892
1361705150.75,0.4329038333333333,33.15708333333333,64.27416669354666,-6.155546875,61.859369755505355
1361705151.0,0.4324233333333333,33.157916666666665,64.32666666666667,-8.05375,61.88004611645664
1361705151.25,0.43194283333333333,33.15875,64.3808333056,-9.980364583333333,61.88910860214572
1361705151.5,0.4313021666666666,33.15958333333333,64.435,-11.930078125000001,61.89513444174634
1361705151.75,0.43055475,33.15958333333333,64.4891666944,-13.403776041666667,61.894718080196846
1361705152.0,0.4298073333333334,33.15875,64.54333333333334,-13.492708333333333,61.88786290644143
1361705152.25,0.4289531666666666,33.157916666666665,64.60333330261334,-11.793802083333333,61.878487337802234
1361705152.5,0.428099,33.15708333333333,64.66333333333334,-9.354713541666667,61.8575613053735
1361705152.75,0.42724483333333335,33.15624999999999,64.72333336405335,-7.5978125,61.847555781549
1361705153.0,0.42639066666666664,33.15541666666667,64.78333333333335,-5.80546875,61.82977938610109
1361705153.25,0.42564325000000003,33.15458333333333,64.84333330261335,-4.486484374999999,61.82927400443504
1361705153.5,0.4250025833333333,33.153749999999995,64.90333333333334,-2.647994791666666,61.82927400443504
1361705153.75,0.42446870833333333,33.15291666666666,64.96333336405333,-0.283958333333333,61.82927400443504
1361705154.0,0.4242551666666667,33.15208333333333,65.02333333333333,2.5254427083333337,61.82927400443504
1361705154.25,0.424095,33.15125,65.07583330645333,5.364921875,61.829274004435035
1361705154.5,0.424095,33.150416666666665,65.12833333333333,7.851380208333334,61.8299899838321
1361705154.75,0.424095,33.149166666666666,65.18083336021333,9.845572916666667,61.83264340285506
1361705155.0,0.424095,33.1475,65.23333333333333,10.725182291666664,61.83533894803528
1361705155.25,0.42404162500000003,33.145833333333336,65.26916664832,10.032890625,61.83803449321548
1361705155.5,0.42398825,33.14416666666667,65.305,9.115286458333333,61.8407300383957
1361705155.75,0.423934875,33.142500000000005,65.34083335168,9.136302083333334,61.84342558357591
1361705156.0,0.423828125,33.14083333333333,65.37666666666667,8.904427083333333,61.84607900259886
1361705156.25,0.42377475,33.13916666666667,65.39833332223999,8.05703125,61.84658438426491
1361705156.5,0.423668,33.1375,65.41999999999999,7.0516145833333335,61.84725774243565
1361705156.75,0.42356125000000006,33.13666666666666,65.44166667776,6.4290625,61.85260234991916
1361705157.0,0.4234545,33.13666666666667,65.46333333333332,5.6471875,61.858662178034656
1361705157.25,0.42334775,33.13666666666666,65.47583332693333,4.66171875,61.86472200615017
1361705157.5,0.423241,33.13666666666666,65.48833333333333,3.748880208333333,61.870781834265664
1361705157.75,0.42308087499999997,33.1375,65.50083333973333,3.26765625,61.87684166238116
1361705158.0,0.42286737500000005,33.13916666666667,65.51333333333334,3.149140625,61.88290149049666
1361705158.25,0.422760625,33.14083333333334,65.51499999914667,3.1562239583333334,61.886688883068835
1361705158.5,0.4226005,33.142500000000005,65.51666666666667,2.8226041666666664,61.88706762232605
1361705158.75,0.42244037500000003,33.14333333333333,65.51833333418666,2.483984375,61.85979236193933
1361705159.0,0.42233362500000005,33.14333333333333,65.52,2.3124479166666667,61.813349158731455
1361705159.25,0.4221735,33.14333333333333,65.51750000128,2.3963281249999997,61.77344579089813
1361705159.5,0.42206675,33.14333333333334,65.515,2.4667447916666667,61.731000540501334
1361705159.75,0.42195999999999995,33.142500000000005,65.51249999872,2.328385416666667,61.685752565184494
1361705160.0,0.42185325,33.14083333333333,65.51,2.2871354166666666,61.63978936923568
1361705160.25,0.4217465,33.13916666666667,65.51416666453333,2.42359375,61.59382617328686
1361705160.5,0.42158633333333334,33.1375,65.51833333333333,2.810052083333334,61.547862977338035
1361705160.75,0.4214795416666666,33.13583333333333,65.52250000213333,2.9787239583333336,61.50189978138922
1361705161.0,0.42137270833333335,33.134166666666665,65.52666666666666,2.979765625,61.45593658544039
1361705161.25,0.4212125,33.1325,65.53916666026666,3.046770833333333,61.41224582503489
1361705161.5,0.42110566666666666,33.130833333333335,65.55166666666666,3.1396875000000004,61.373151358391844
1361705161.75,0.42099883333333327,33.130833333333335,65.56416667306667,3.1623697916666664,61.371332035168884
1361705162.0,0.420892,33.1325,65.57666666666667,3.185703125,61.39007870609792
1361705162.25,0.4208385833333333,33.134166666666665,65.59583332352001,3.2011458333333334,61.4022855416524
1361705162.5,0.42073175,33.13583333333334,65.61500000000001,3.1548958333333332,61.41636090159961
1361705162.75,0.4206783333333333,33.137499999999996,65.63416667648,3.1208593749999998,61.42856773715409
1361705163.0,0.42057149999999993,33.13916666666667,65.65333333333335,3.149192708333334,61.44077457270856
1361705163.25,0.42046466666666665,33.14083333333333,65.67416665600001,3.172213541666667,61.45298140826305
1361705163.5,0.42041125000000007,33.1425,65.69500000000001,3.1086458333333336,61.46518824381753
1361705163.75,0.4203578333333333,33.14458333333334,65.715833344,3.0220833333333332,61.477395079372
1361705164.0,0.4203578333333333,33.147083333333335,65.73666666666666,3.017239583333333,61.48960191492649
1361705164.25,0.42041124999999996,33.14958333333333,65.75166665898666,3.0220833333333332,61.50180875048097
1361705164.5,0.42041124999999996,33.15208333333333,65.76666666666667,3.029166666666667,61.51282794558796
1361705164.75,0.4204646666666667,33.153749999999995,65.78166667434667,3.0198177083333335,61.514225996918796
1361705165.0,0.42041129166666663,33.15458333333333,65.79666666666667,2.961484375,61.514225996918796
1361705165.25,0.4203044999999999,33.15541666666666,65.8008333312,2.9142968750000002,61.514225996918796
1361705165.5,0.42035791666666666,33.15624999999999,65.805,2.9338802083333335,61.514225996918796
1361705165.75,0.420251125,33.156666666666666,65.8091666688,2.9426041666666674,61.514225996918796
1361705166.0,0.4203045416666667,33.15666666666666,65.81333333333333,2.8930208333333334,61.514225996918796
1361705166.25,0.420411375,33.156666666666666,65.80666667008,2.8448437500000003,61.514225996918796
1361705166.5,0.42051820833333325,33.156666666666666,65.80000000000001,2.7783593749999995,61.514225996918796
1361705166.75,0.42062504166666664,33.15624999999999,65.79333332992,2.709973958333333,61.514225996918796
1361705167.0,0.420731875,33.15541666666667,65.78666666666668,2.68953125,61.514225996918796
1361705167.25,0.42073187500000003,33.15458333333333,65.7783333376,2.6835416666666667,61.514225996918796
1361705167.5,0.4208387083333333,33.15375,65.77000000000001,2.604921875,61.53158099819388
1361705167.75,0.4208387083333333,33.15291666666666,65.76166666240002,2.5053645833333333,61.54375174454186
1361705168.0,0.42094550000000003,33.15208333333333,65.75333333333334,2.4570312500000004,61.567187018307095
1361705168.25,0.420998875,33.15125,65.74083333973334,2.4053906250000003,61.60829599402632
1361705168.5,0.42089208333333333,33.150416666666665,65.72833333333334,2.1629427083333335,61.65280784677929
1361705168.75,0.42089208333333333,33.15,65.71583332693334,1.7495833333333335,61.6977810396451
1361705169.0,0.4207319166666666,33.15,65.70333333333333,1.415703125,61.7408234670454
1361705169.25,0.4205183333333333,33.15,65.6866666752,1.184557291666667,61.78516690618866
1361705169.5,0.42030475000000006,33.15,65.67,0.7989843750000002,61.83152411939306
1361705169.75,0.42003779166666666,33.150416666666665,65.6533333248,0.31481770833333345,61.88760630071102
1361705170.0,0.41971745833333335,33.15125,65.63666666666667,-0.4254947916666665,61.950928409730494
1361705170.25,0.4194505416666667,33.15208333333333,65.61333334528,-1.4752604166666663,62.02419136349416
1361705170.5,0.4190768333333334,33.15291666666666,65.59,-2.973932291666666,62.07959865867242
1361705170.75,0.4187031666666667,33.153749999999995,65.56666665472001,-4.820755208333333,62.13430059178617
1361705171.0,0.41832949999999997,33.154583333333335,65.54333333333334,-6.706588541666666,62.17414564392447
1361705171.25,0.41800925000000005,33.15541666666666,65.50750001834666,-7.744947916666667,62.195229193083456
1361705171.5,0.417742375,33.15625,65.47166666666666,-8.057916666666667,62.211108404011156
1361705171.75,0.41747550000000005,33.157916666666665,65.43583331498667,-8.1096875,62.235262287509926
1361705172.0,0.417262,33.16041666666666,65.39999999999999,-8.263958333333333,62.26418776532629
1361705172.25,0.4170485,33.16291666666667,65.35250002432,-8.586458333333333,62.28947269551895
1361705172.5,0.416835,33.165416666666665,65.30499999999999,-8.691953125,62.30627034566293
1361705172.75,0.416674875,33.1675,65.25749997567999,-8.658203125,62.31296658606903
1361705173.0,0.4166215,33.16916666666667,65.21,-7.287916666666667,62.309242948314925
1361705173.25,0.416674875,33.17083333333333,65.13083337386666,-3.8568489583333334,62.29557846581661
1361705173.5,0.416835,33.1725,65.05166666666666,0.06135416666666663,62.28500899124554
1361705173.75,0.4170485,33.174166666666665,64.97249995946666,3.049010416666667,62.28108207087363
1361705174.0,0.417262,33.17583333333333,64.89333333333333,5.215234375,62.28108207087363
1361705174.25,0.41752887499999997,33.1775,64.80000004778667,5.909661458333333,62.2820444093438
1361705174.5,0.41779575,33.17916666666667,64.70666666666666,6.031328124999999,62.28455728390125
1361705174.75,0.41806262499999997,33.18,64.61333328554666,5.999869791666666,62.26625627330632
1361705175.0,0.4183295,33.18,64.52,5.920729166666667,62.22256377641221
1361705175.25,0.41854300000000005,33.18,64.40666672469332,5.865729166666667,62.17587157825787
1361705175.5,0.4187565,33.18,64.29333333333332,5.767994791666666,62.13249102370974
1361705175.75,0.41897,33.18,64.17999994197334,5.398359375000001,62.08931826266342
1361705176.0,0.41907675000000005,33.18,64.06666666666666,3.688828125,62.049325452075806
1361705176.25,0.4190233749999999,33.18,63.9583333888,0.21502604166666683,62.009332641488186
1361705176.5,0.41886325,33.18,63.849999999999994,-2.9871093749999997,61.966745480283656
1361705176.75,0.418703125,33.18,63.741666611199996,-4.78015625,61.92340538187158
1361705177.0,0.41854300000000005,33.18,63.63333333333333,-5.788046874999999,61.8797307166458
1361705177.25,0.4183295,33.18,63.52500005546666,-6.1640364583333325,61.836181513975156
1361705177.5,0.418116,33.18,63.416666666666664,-6.209140624999999,61.79288323641478
1361705177.75,0.41795587500000003,33.18,63.308333277866666,-6.344557291666667,61.76166283132287
1361705178.0,0.417742375,33.18,63.199999999999996,-6.433359374999999,61.752993083678064
1361705178.25,0.41758225,33.18,63.09250005504,-5.782968750000001,61.74966257317423
1361705178.5,0.41736875,33.18,62.985,-4.614505208333333,61.74949392505172
1361705178.75,0.41710183333333334,33.18,62.87749994496,-3.1965364583333336,61.74949392505172
1361705179.0,0.4168882916666667,33.18,62.77,-1.7013281249999999,61.74949392505172
1361705179.25,0.41667470833333337,33.18,62.659166723413335,-0.22966145833333326,61.74949392505172
1361705179.5,0.41656791666666665,33.18,62.54833333333334,1.0516145833333332,61.74949392505172
1361705179.75,0.4165145416666666,33.17916666666667,62.43749994325334,2.227838541666667,61.74949392505172
1361705180.0,0.41646116666666666,33.1775,62.326666666666675,3.4078385416666666,61.74949392505172
1361705180.25,0.41640779166666664,33.17583333333334,62.214166724266676,4.576041666666667,61.74949392505172
1361705180.5,0.416301,33.17416666666667,62.101666666666674,5.404739583333334,61.74949392505172
1361705180.75,0.4160874166666666,33.1725,61.989166609066665,6.374661458333333,61.74949392505172
1361705181.0,0.41592720833333335,33.170833333333334,61.876666666666665,7.296484375000001,61.74949392505172
1361705181.25,0.415767,33.16916666666666,61.764166724266666,7.498177083333334,61.74949392505172
1361705181.5,0.41571358333333336,33.1675,61.65166666666666,7.176145833333334,61.74949392505172
1361705181.75,0.415767,33.166666666666664,61.539166609066655,6.828229166666667,61.74949392505172
1361705182.0,0.415767,33.166666666666664,61.426666666666655,6.5578385416666665,61.74949392505172
1361705182.25,0.41587383333333333,33.166666666666664,61.31833338879999,6.292005208333332,61.74949392505172
1361705182.5,0.41592724999999997,33.166666666666664,61.209999999999994,5.958776041666667,61.74949392505172
1361705182.75,0.4158738333333334,33.1675,61.101666611199995,5.614192708333334,61.74949392505172
1361705183.0,0.41582041666666664,33.16916666666666,60.99333333333333,5.164583333333334,61.74949392505172
1361705183.25,0.41571358333333336,33.170833333333334,60.88500005546667,4.5441666666666665,61.74949392505172
1361705183.5,0.41571358333333336,33.17249999999999,60.77666666666667,4.027682291666666,61.74949392505172
1361705183.75,0.41582041666666675,33.174166666666665,60.668333277866665,3.645598958333333,61.74919857784181
1361705184.0,0.41592724999999997,33.17583333333333,60.56,3.2783593749999995,61.745654411322874
1361705184.25,0.4160340833333333,33.1775,60.45500005376,2.909609375,61.741224203174205
1361705184.5,0.4160875,33.17916666666667,60.35000000000001,2.5442447916666664,61.736498647815615
1361705184.75,0.41603408333333336,33.18,60.24499994624001,2.172578125,61.73177309245704
1361705185.0,0.4160340833333333,33.18,60.14000000000001,1.8444270833333334,61.72704753709845
1361705185.25,0.41592724999999997,33.18,60.03250005504,1.5352604166666666,61.722321981739874
1361705185.5,0.41582041666666664,33.18,59.925000000000004,1.3097395833333334,61.717596426381284
1361705185.75,0.415767,33.18,59.817499944960005,1.1159895833333333,61.712870871022695
1361705186.0,0.41566020833333334,33.18,59.71,1.1687760416666666,61.70814531566412
1361705186.25,0.41566020833333334,33.18,59.63666670421333,1.580859375,61.703419760305536
1361705186.5,0.41555341666666673,33.18,59.56333333333333,1.7888020833333333,61.69869420494695
1361705186.75,0.4153398333333333,33.18125,59.48999996245333,1.7459895833333334,61.69426399679828
1361705187.0,0.415179625,33.18375,59.416666666666664,1.9259114583333334,61.69308260795864
1361705187.25,0.41496604166666673,33.18625,59.37750002005333,2.164296875,61.69278726074872
1361705187.5,0.4147524583333333,33.18875,59.33833333333333,2.2614322916666665,61.69278726074872
1361705187.75,0.4144855416666667,33.191250000000004,59.29916664661333,2.3963802083333334,61.69278726074872
1361705188.0,0.414218625,33.19375,59.26,2.732109375,61.69278726074872
1361705188.25,0.4141118750000001,33.19625,59.26,2.983125,61.69278726074872
1361705188.5,0.41389837500000004,33.19875,59.26,2.979973958333334,61.69278726074872
1361705188.75,0.41368487499999995,33.20125,59.26,3.097291666666667,61.69278726074872
1361705189.0,0.413418,33.20375000000001,59.26,3.3347656249999997,61.69278726074872
1361705189.25,0.41309775,33.206250000000004,59.26666666325333,3.2426041666666663,61.69278726074872
1361705189.5,0.412830875,33.20875,59.27333333333333,3.123515625,61.69278726074872
1361705189.75,0.412617375,33.21,59.280000003413335,3.250182291666667,61.69278726074872
1361705190.0,0.4123505,33.21,59.28666666666667,3.333854166666667,61.69278726074872
1361705190.25,0.41213700000000003,33.21,59.29916666026667,3.2913281249999997,61.69278726074872
1361705190.5,0.41187008333333336,33.21,59.31166666666667,3.3417447916666667,61.69278726074872
1361705190.75,0.4117633333333333,33.21,59.324166673066664,3.4509375,61.69278726074872
1361705191.0,0.4116031666666667,33.21,59.336666666666666,3.406041666666667,61.69278726074872
1361705191.25,0.4112828333333333,33.21,59.35666665642667,3.4386458333333336,61.69278726074872
1361705191.5,0.4111226666666667,33.21,59.376666666666665,3.6834114583333335,61.69278726074872
1361705191.75,0.41090908333333337,33.21,59.39666667690666,3.7037760416666665,61.69278726074872
1361705192.0,0.4108022500000001,33.21,59.416666666666664,3.468541666666667,61.69278726074872
1361705192.25,0.4106954166666667,33.21,59.44166665386667,3.4534895833333334,61.69278726074872
1361705192.5,0.41053520833333335,33.21,59.46666666666667,3.6362760416666666,61.69278726074872
1361705192.75,0.410428375,33.21,59.49166667946667,3.602838541666667,61.69278726074872
1361705193.0,0.4102681666666667,33.21,59.51666666666667,3.327005208333333,61.69337795516855
1361705193.25,0.41010795833333336,33.21,59.54749998421334,3.2074739583333334,61.69396864958838
1361705193.5,0.4100545416666667,33.21,59.57833333333334,3.3194531250000003,61.69633142726766
1361705193.75,0.40989433333333336,33.21,59.60916668245334,3.2579427083333337,61.698103510527126
1361705194.0,0.4097875416666667,33.21,59.64000000000001,2.9894531250000003,61.70282906588571
1361705194.25,0.40973416666666673,33.21,59.66916665173334,2.7651041666666667,61.7075546212443
1361705194.5,0.40957400000000005,33.21,59.69833333333334,2.755286458333334,61.71228017660288
1361705194.75,0.40946725,33.21,59.727500014933334,2.819609375,61.71700573196146
1361705195.0,0.4093605,33.21,59.75666666666667,2.6933072916666667,61.721140592900234
1361705195.25,0.40925375,33.21,59.784999985493336,2.42578125,61.72438941220924
1361705195.5,0.409200375,33.21,59.81333333333333,2.3669791666666664,61.72586614825881
1361705195.75,0.40909362499999996,33.21083333333333,59.841666681173336,2.5557291666666666,61.7258661482588
1361705196.0,0.40904025000000005,33.2125,59.870000000000005,2.7814322916666665,61.72763823151828
1361705196.25,0.408986875,33.214166666666664,59.89333332138667,2.77171875,61.72704753709845
1361705196.5,0.40882675,33.215833333333336,59.91666666666667,2.6908072916666668,61.72468475941917
1361705196.75,0.40871999999999997,33.217499999999994,59.940000011946665,2.9008854166666667,61.722912676159694
1361705197.0,0.40861325,33.219166666666666,59.96333333333333,3.221953125,61.71818712080111
1361705197.25,0.40850650000000005,33.22083333333333,59.98083332437333,3.3109635416666667,61.71346156544252
1361705197.5,0.40845312500000003,33.2225,59.998333333333335,3.2009374999999998,61.70873601008393
1361705197.75,0.40834637500000004,33.223333333333336,60.015833342293334,3.342630208333333,61.70401045472536
1361705198.0,0.408239625,33.223333333333336,60.03333333333333,3.7469531250000006,61.699875593786594
1361705198.25,0.408132875,33.22333333333333,60.044166661119995,4.059583333333333,61.69662677447758
1361705198.5,0.4079727083333334,33.223333333333336,60.05499999999999,4.025885416666667,61.69515003842801
1361705198.75,0.4078125416666667,33.2225,60.06583333888,3.9748697916666664,61.69515003842802
1361705199.0,0.40770579166666665,33.22083333333333,60.07666666666666,4.139166666666667,61.69278726074872
1361705199.25,0.407545625,33.219166666666666,60.0808333312,4.39390625,61.69278726074872
1361705199.5,0.40749225,33.217499999999994,60.084999999999994,4.416171875,61.69278726074872
1361705199.75,0.40743887500000003,33.215833333333336,60.0891666688,4.312786458333334,61.69278726074872
1361705200.0,0.4073320833333334,33.214166666666664,60.093333333333334,4.4035416666666665,61.69278726074872
1361705200.25,0.4072252916666666,33.2125,60.093333333333334,4.63890625,61.69278726074872
1361705200.5,0.4071719166666667,33.21083333333333,60.093333333333334,4.661640625,61.69278726074872
1361705200.75,0.4071719166666667,33.21,60.093333333333334,4.454557291666667,61.69278726074872
1361705201.0,0.4071719166666667,33.21,60.093333333333334,4.390729166666667,61.69278726074872
1361705201.25,0.4071185,33.21,60.0891666688,4.493619791666666,61.69278726074872
1361705201.5,0.4071719166666667,33.21,60.084999999999994,4.565,61.69278726074872
1361705201.75,0.40727870833333335,33.21083333333333,60.0808333312,4.470598958333333,61.69278726074872
1361705202.0,0.4073320833333334,33.2125,60.07666666666666,4.375286458333334,61.69278726074872
1361705202.25,0.40749225,33.214166666666664,60.068333337599995,4.402682291666666,61.69278726074872
1361705202.5,0.407599,33.215833333333336,60.059999999999995,4.406510416666667,61.69278726074872
1361705202.75,0.4075989583333333,33.217499999999994,60.051666662399995,4.156770833333334,61.69278726074872
1361705203.0,0.40770575000000003,33.219166666666666,60.04333333333333,3.8757812499999997,61.69278726074872
1361705203.25,0.40770575000000003,33.22083333333333,60.03416667136,3.8668750000000003,61.69278726074872
1361705203.5,0.4075455416666667,33.2225,60.02499999999999,3.9540624999999996,61.69278726074872
1361705203.75,0.4073319583333333,33.22416666666667,60.01583332863999,3.938697916666667,61.69278726074872
1361705204.0,0.40711837500000003,33.225833333333334,60.00666666666666,3.611171875,61.69278726074872
1361705204.25,0.40695820833333335,33.2275,60.00000000341333,3.2299739583333333,61.69278726074872
1361705204.5,0.40674462499999997,33.229166666666664,59.993333333333325,2.9761458333333333,61.692660616880225
1361705204.75,0.4064242916666667,33.23,59.98666666325333,2.7461458333333333,61.69143617082565
1361705205.0,0.4061039583333333,33.23,59.98,2.4086979166666667,61.69590618276141
1361705205.25,0.40573025,33.23,59.978333334186665,2.14078125,61.70252767835111
1361705205.5,0.40530316666666666,33.23,59.97666666666667,2.113958333333333,61.71328045248938
1361705205.75,0.40503625,33.229166666666664,59.97499999914667,2.543125,61.72706455954101
1361705206.0,0.40466254166666665,33.2275,59.973333333333336,2.753229166666667,61.74526785186666
1361705206.25,0.40439562500000004,33.225833333333334,59.97749999786667,2.3596093750000002,61.7634711441923
1361705206.5,0.40423549999999997,33.22416666666667,59.98166666666667,2.362057291666667,61.78167443651794
1361705206.75,0.40412875,33.2225,59.985833335466666,2.4401041666666665,61.796047913487975
1361705207.0,0.40402199999999994,33.22083333333333,59.99,2.4780729166666666,61.80928500778538
1361705207.25,0.40391525,33.219166666666666,59.994999997440004,2.654322916666667,61.82475251026389
1361705207.5,0.403755125,33.217499999999994,60.0,2.910494791666667,61.843082446458034
1361705207.75,0.40364837499999995,33.21458333333333,60.005000002559996,3.092005208333333,61.86204716033637
1361705208.0,0.40348825000000005,33.21041666666667,60.01,3.2420312499999997,61.86647586414634
1361705208.25,0.4032747083333333,33.20625,60.014166664533334,3.4594791666666667,61.8730065172817
1361705208.5,0.403061125,33.202083333333334,60.01833333333333,3.7046614583333333,61.8456607634873
1361705208.75,0.4027407916666667,33.19875,60.022500002133334,3.4591666666666665,61.80139375352726
1361705209.0,0.4023670833333333,33.19625,60.02666666666667,3.004791666666667,61.7527075582932
1361705209.25,0.40188662499999994,33.19375,60.02749999957334,2.8611458333333335,61.70402136305916
1361705209.5,0.401299375,33.19125,60.028333333333336,2.0154947916666663,61.655335167825115
1361705209.75,0.4005519583333334,33.187916666666666,60.029166667093335,0.8792187499999998,61.61149710342477
1361705210.0,0.3996977916666667,33.183749999999996,60.03,0.30986979166666667,61.57592363004371
1361705210.25,0.39879025,33.17958333333333,60.02333333674667,0.047317708333333285,61.53811974848154
1361705210.5,0.39782929166666664,33.17541666666667,60.016666666666666,-0.7201302083333334,61.49758007707225
1361705210.75,0.39681491666666674,33.17208333333333,60.009999996586664,-1.9766406250000002,61.45750343016483
1361705211.0,0.39585391666666664,33.169583333333335,60.00333333333333,-3.360572916666667,61.426268335335436
1361705211.25,0.39494633333333334,33.16708333333333,59.99000000682666,-4.923802083333333,61.39077980752672
1361705211.5,0.3940387916666667,33.16458333333333,59.97666666666666,-6.519583333333333,61.385036408099204
1361705211.75,0.39313125,33.162083333333335,59.963333326506664,-7.539869791666668,61.394114966144514
1361705212.0,0.39233045833333335,33.15958333333333,59.949999999999996,-7.932630208333333,61.40459157552067
1361705212.25,0.39163641666666665,33.15708333333333,59.918333349546664,-7.988359375000001,61.41693225333794
1361705212.5,0.3909957916666667,33.154583333333335,59.88666666666666,-6.947526041666666,61.425078777162696
1361705212.75,0.3904619583333333,33.15291666666666,59.85499998378666,-5.5191927083333345,61.432206985509346
1361705213.0,0.38992808333333334,33.15208333333333,59.82333333333333,-5.1121875,61.432206985509346
1361705213.25,0.3893942083333333,33.15125,59.78333335381333,-5.078567708333334,61.432206985509346
1361705213.5,0.3889137083333334,33.150416666666665,59.74333333333333,-3.9411458333333336,61.432206985509346
1361705213.75,0.38848662500000003,33.15,59.70333331285333,-2.0678125,61.43220698550936
1361705214.0,0.3880061666666667,33.15,59.663333333333334,-0.05947916666666684,61.432206985509346
1361705214.25,0.38747233333333336,33.15,59.61583335765333,2.0458072916666663,61.435935122391605
1361705214.5,0.38699187500000004,33.15,59.56833333333333,4.242760416666667,61.443391396156095
1361705214.75,0.3865114166666666,33.15,59.520833309013334,6.068984374999999,61.44991563570002
1361705215.0,0.38597758333333326,33.15,59.47333333333333,7.392161458333334,61.45504182391312
1361705215.25,0.38544375000000003,33.15,59.431666688,8.104609375,61.45830394368508
1361705215.5,0.3849632916666666,33.15,59.39,8.128046875,61.46576021744957
1361705215.75,0.3845362083333334,33.14833333333333,59.348333311999994,8.180104166666666,61.47321649121408
1361705216.0,0.3841625416666667,33.144999999999996,59.306666666666665,8.795833333333333,61.48067276497857
1361705216.25,0.38384225,33.141666666666666,59.269166685866665,9.052890625,61.48812903874307
1361705216.5,0.38362874999999996,33.138333333333335,59.23166666666667,8.570130208333333,61.49558531250756
1361705216.75,0.38341524999999993,33.135,59.194166647466666,8.135546875,61.50304158627205
1361705217.0,0.383255125,33.13166666666667,59.156666666666666,7.807213541666666,61.51049786003656
1361705217.25,0.38314837500000004,33.12833333333333,59.1233333504,7.217317708333333,61.514225996918796
1361705217.5,0.383041625,33.125,59.09,6.247395833333333,61.514225996918796
1361705217.75,0.3829882500000001,33.1225,59.0566666496,5.373776041666667,61.514225996918796
1361705218.0,0.38293487500000006,33.12083333333333,59.02333333333333,4.896588541666667,61.514225996918796
1361705218.25,0.38277470833333344,33.119166666666665,58.99166668288,4.690182291666667,61.514225996918796
1361705218.5,0.38261454166666664,33.1175,58.96,4.2757812500000005,61.514225996918796
1361705218.75,0.38240095833333326,33.1175,58.92833331712,3.746223958333333,61.514225996918796
1361705219.0,0.38224075,33.119166666666665,58.89666666666667,3.4341666666666666,61.514225996918796
1361705219.25,0.38208054166666666,33.12083333333333,58.87000001365333,3.4675260416666664,61.514225996918796
1361705219.5,0.3818135833333334,33.1225,58.843333333333334,3.4617187500000006,61.514225996918796
1361705219.75,0.3816,33.124166666666675,58.816666653013336,3.138958333333333,61.514225996918796
1361705220.0,0.38133304166666665,33.12583333333334,58.79,2.7778645833333333,61.514225996918796
1361705220.25,0.3810127083333333,33.127500000000005,58.762500014080004,2.6390885416666667,61.514225996918796
1361705220.5,0.38074575,33.12916666666667,58.735,2.6798697916666665,61.514225996918796
1361705220.75,0.3804254166666667,33.12833333333334,58.70749998592,2.4585677083333333,61.514225996918796
1361705221.0,0.38015845833333334,33.125,58.68000000000001,2.0223958333333334,61.514225996918796
1361705221.25,0.37999829166666665,33.12166666666667,58.655833345706675,1.8394270833333335,61.514225996918796
1361705221.5,0.379838125,33.11833333333333,58.631666666666675,1.8892187500000002,61.514225996918796
1361705221.75,0.37978475,33.115833333333335,58.60749998762667,1.76984375,61.514225996918796
1361705222.0,0.37967799999999996,33.11416666666667,58.583333333333336,1.4313802083333333,61.514225996918796
1361705222.25,0.37951787500000006,33.112500000000004,58.55666668032,1.1578385416666668,61.514225996918796
1361705222.5,0.379411125,33.11083333333334,58.53,1.0902083333333334,61.514225996918796
1361705222.75,0.379197625,33.10916666666667,58.50333331968,1.0558072916666668,61.514225996918796
1361705223.0,0.379090875,33.1075,58.47666666666667,0.8643489583333334,61.514225996918796
1361705223.25,0.37898412499999995,33.10583333333333,58.45166667946667,0.6955729166666668,61.514225996918796
1361705223.5,0.378824,33.104166666666664,58.42666666666666,0.7889583333333333,61.514225996918796
1361705223.75,0.37871724999999995,33.104166666666664,58.40166665386666,1.0983333333333334,61.514225996918796
1361705224.0,0.37861049999999996,33.10583333333334,58.376666666666665,1.2259895833333334,61.514225996918796
1361705224.25,0.3785037499999999,33.107499999999995,58.346666682026665,1.0394791666666667,61.514225996918796
1361705224.5,0.37839699999999993,33.10916666666667,58.31666666666666,0.9504947916666667,61.514225996918796
1361705224.75,0.37823687500000003,33.11,58.28666665130667,1.293828125,61.514225996918796
1361705225.0,0.378130125,33.11,58.25666666666667,1.5972656250000001,61.514225996918796
1361705225.25,0.37807674999999996,33.11,58.227500014933334,1.5539322916666667,61.51536834635211
1361705225.5,0.37802337499999994,33.11,58.19833333333334,1.539479166666667,61.54040156301221
1361705225.75,0.378023375,33.11,58.16916665173334,1.902578125,61.575964769242695
1361705226.0,0.37797,33.11,58.14000000000001,2.513776041666667,61.614342560704465
1361705226.25,0.37797,33.11,58.11166668117334,2.8494010416666664,61.653476974896535
1361705226.5,0.37797,33.11,58.083333333333336,2.582265625,61.685001988293436
1361705226.75,0.37797,33.11,58.05499998549333,2.0419010416666667,61.702443350674805
1361705227.0,0.37802337499999994,33.11,58.026666666666664,1.9685156250000002,61.704472028956936
1361705227.25,0.378023375,33.11,58.001666679466666,2.310885416666667,61.697566261062036
1361705227.5,0.37802337499999994,33.11,57.97666666666667,2.2203125,61.69527766899458
1361705227.75,0.37802337499999994,33.11,57.95166665386667,1.7982812499999998,61.686973328163
1361705228.0,0.378023375,33.11,57.92666666666667,1.4627604166666666,61.678160201034444
1361705228.25,0.37802337499999994,33.11,57.897500014933335,1.3730989583333333,61.66790773556286
1361705228.5,0.378023375,33.11,57.86833333333334,0.94671875,61.62408570342085
1361705228.75,0.37802337499999994,33.11,57.839166651733336,0.16744791666666672,61.57588987552284
1361705229.0,0.378023375,33.11,57.81,-0.758125,61.52016715692783
1361705229.25,0.37802337499999994,33.11,57.78000001536,-1.3054947916666666,61.468866733393575
1361705229.5,0.3779699999999999,33.11,57.75,-1.3646614583333332,61.428528592868126
1361705229.75,0.37791662499999995,33.11,57.71999998464,-0.9116145833333333,61.402528496506676
1361705230.0,0.3777565,33.11,57.69,-0.8272395833333333,61.403447540821254
1361705230.25,0.377703125,33.11,57.66166668117333,-1.2988020833333331,61.42725918370942
1361705230.5,0.377596375,33.11,57.633333333333326,-1.3843229166666664,61.44717083945182
1361705230.75,0.377489625,33.11,57.60499998549333,-1.3247656249999997,61.47440602735122
1361705231.0,0.37738287499999995,33.11,57.57666666666666,-1.1997656249999997,61.502150001547584
1361705231.25,0.377276125,33.11,57.553333345279995,-1.0488802083333333,61.530190964653656
1361705231.5,0.377169375,33.11,57.529999999999994,-0.5680989583333332,61.56791062720338
1361705231.75,0.377062625,33.11,57.50666665471999,0.006067708333333394,61.599474095938724
1361705232.0,0.376955875,33.11,57.48333333333333,0.48614583333333333,61.63574987013977
1361705232.25,0.37684912500000006,33.11,57.46250001066666,0.6442187500000001,61.66684672654977
1361705232.5,0.37679575000000004,33.11,57.44166666666666,0.7183333333333334,61.694590700746126
1361705232.75,0.376742375,33.11,57.42083332266667,0.5272656250000001,61.722080281794014
1361705233.0,0.376742375,33.11,57.4,0.4964062500000001,61.73806340626512
1361705233.25,0.376689,33.11,57.38333334186667,0.7450520833333333,61.740088378339664
1361705233.5,0.376689,33.11,57.36666666666667,0.94984375,61.741396161732524
1361705233.75,0.3767423749999999,33.10916666666667,57.34999999146667,1.0901822916666666,61.741396161732524
1361705234.0,0.376742375,33.107499999999995,57.333333333333336,1.1997656250000002,61.74055148002227
1361705234.25,0.376742375,33.10583333333334,57.322500005546665,1.3366927083333333,61.74055148002227
1361705234.5,0.376742375,33.104166666666664,57.31166666666667,1.4292447916666668,61.74055148002227
1361705234.75,0.376742375,33.1025,57.30083332778667,1.4744791666666668,61.738778198368884
1361705235.0,0.3766889583333333,33.100833333333334,57.29,1.5754947916666666,61.72796657980058
1361705235.25,0.37663554166666663,33.09916666666667,57.28583333546667,1.817109375,61.71905869597689
1361705235.5,0.3766355416666667,33.097500000000004,57.281666666666666,1.8487239583333335,61.7035064231016
1361705235.75,0.37668891666666665,33.09583333333334,57.27749999786667,1.700546875,61.67007193189747
1361705236.0,0.3766889166666667,33.094166666666666,57.27333333333334,1.6523958333333333,61.630181718413745
1361705236.25,0.3766889166666667,33.09250000000001,57.27499999914667,1.986484375,61.594159431309095
1361705236.5,0.37668891666666665,33.090833333333336,57.27666666666667,2.1196614583333333,61.54925350305627
1361705236.75,0.37658212500000005,33.09,57.27833333418667,1.6608854166666667,61.50915200740902
1361705237.0,0.3765287083333333,33.09,57.28,1.3946614583333332,61.47737236463434
1361705237.25,0.3765287083333333,33.09,57.28416666453333,1.6050520833333335,61.44402730681525
1361705237.5,0.37647529166666666,33.09,57.28833333333333,1.1646093750000002,61.41233733528816
1361705237.75,0.37642187499999996,33.08916666666667,57.29250000213333,-0.020703124999999916,61.3857728619595
1361705238.0,0.3765286666666667,33.087500000000006,57.29666666666666,-0.741171875,61.366803976984926
1361705238.25,0.3765286666666667,33.08583333333333,57.300833331199996,-0.5547135416666666,61.34834915555887
1361705238.5,0.3764218333333333,33.08416666666667,57.30499999999999,-0.09507812500000001,61.33751430760186
1361705238.75,0.376261625,33.0825,57.309166668799996,0.37614583333333323,61.35010981078668
1361705239.0,0.3761547916666666,33.08083333333334,57.31333333333333,0.6738802083333332,61.37309957135616
1361705239.25,0.3760479583333333,33.079166666666666,57.31333333333333,0.7597916666666665,61.38680045245052
1361705239.5,0.375941125,33.0775,57.31333333333333,1.2511979166666667,61.40531925987104
1361705239.75,0.37588770833333335,33.07666666666667,57.31333333333333,2.37953125,61.41517380323162
1361705240.0,0.37583429166666665,33.07666666666667,57.31333333333333,3.368671875,61.41666044509426
1361705240.25,0.3757274583333334,33.07666666666667,57.31000000170667,3.833723958333333,61.41886782029107
1361705240.5,0.3756740416666667,33.07666666666667,57.30666666666667,4.87625,61.41942010919587
1361705240.75,0.3756740416666667,33.07750000000001,57.30333333162667,6.682708333333333,61.41662018155561
1361705241.0,0.37556725,33.079166666666666,57.300000000000004,8.061510416666666,61.4152630024762
1361705241.25,0.37556725,33.08083333333334,57.29583333546667,8.565677083333334,61.41148802510366
1361705241.5,0.37562066666666666,33.0825,57.29166666666667,9.001510416666667,61.40673746331367
1361705241.75,0.37567408333333335,33.083333333333336,57.287499997866675,9.454401041666667,61.39643876871069
1361705242.0,0.3757275,33.083333333333336,57.28333333333334,9.683984375,61.382201539002644
1361705242.25,0.3758343333333333,33.083333333333336,57.280833334613334,9.696093750000001,61.373385262390634
1361705242.5,0.37588774999999996,33.083333333333336,57.278333333333336,9.436484375000001,61.36863470060066
1361705242.75,0.3759411666666666,33.0825,57.27583333205334,9.313828124999999,61.36774397026503
1361705243.0,0.37599458333333335,33.08083333333334,57.27333333333333,8.905390625,61.36774397026503
1361705243.25,0.3759945833333333,33.079166666666666,57.27333333333333,8.108906249999999,61.36774397026503
1361705243.5,0.3759945833333333,33.0775,57.27333333333333,7.288489583333334,61.36774397026503
1361705243.75,0.3759411666666666,33.07583333333333,57.27333333333333,6.369010416666666,61.36774397026503
1361705244.0,0.37588774999999996,33.07416666666666,57.27333333333333,5.394427083333333,61.36774397026503
1361705244.25,0.37588774999999996,33.0725,57.27583333205333,4.144114583333334,61.368124814561234
1361705244.5,0.3759945416666666,33.07083333333333,57.278333333333336,2.6596614583333333,61.37151852298717
1361705244.75,0.3759945416666666,33.07,57.280833334613334,1.3447135416666667,61.36688606414136
1361705245.0,0.37610133333333334,33.07,57.28333333333333,0.2751302083333332,61.35868641984147
1361705245.25,0.37615470833333337,33.07,57.288333330773334,-0.7688802083333334,61.34959497917806
1361705245.5,0.3762615,33.07,57.29333333333334,-1.800104166666667,61.338719945787595
1361705245.75,0.3764216666666666,33.07083333333333,57.29833333589333,-3.0230989583333336,61.327844912397126
1361705246.0,0.3765818333333333,33.0725,57.303333333333335,-3.946588541666667,61.31824438168365
1361705246.25,0.3767954166666667,33.07416666666666,57.30916666368,-4.4409375,61.31565183814175
1361705246.5,0.377009,33.075833333333335,57.315,-4.933958333333333,61.31828191149258
1361705246.75,0.37716920833333334,33.07750000000001,57.32083333631999,-5.052421875,61.3216756199185
1361705247.0,0.3773827916666667,33.079166666666666,57.32666666666666,-5.380338541666666,61.32506932834443
1361705247.25,0.37759633333333337,33.08083333333334,57.3308333312,-5.158828125,61.32808219247416
1361705247.5,0.3776497083333333,33.0825,57.334999999999994,-4.566458333333333,61.32731855739906
1361705247.75,0.37786325000000004,33.083333333333336,57.3391666688,-4.005833333333333,61.33509017964575
1361705248.0,0.37797,33.083333333333336,57.343333333333334,-3.4579166666666663,61.3479544884162
1361705248.25,0.378023375,33.083333333333336,57.344999999146665,-2.8144791666666666,61.36171059355018
1361705248.5,0.37807674999999996,33.083333333333336,57.346666666666664,-2.0391666666666666,61.37597933536656
1361705248.75,0.378130125,33.0825,57.34833333418667,-1.5232291666666669,61.39253544424719
1361705249.0,0.37807674999999996,33.08083333333334,57.35,-1.1276041666666667,61.40272968811123
1361705249.25,0.37813012499999993,33.079166666666666,57.35,-0.4197395833333333,61.40464321967852
1361705249.5,0.3781835,33.0775,57.35,0.58359375,61.40133413435308
1361705249.75,0.37829025,33.075833333333335,57.35,1.280625,61.397261413952556
1361705250.0,0.3783436249999999,33.07416666666666,57.35,2.187369791666667,61.39318869355202
1361705250.25,0.37829025,33.0725,57.35,2.8631510416666663,61.38911597315149
1361705250.5,0.378343625,33.07083333333333,57.35,3.6853124999999998,61.38580688782606
1361705250.75,0.37839699999999993,33.07083333333333,57.35,4.627161458333333,61.38198871245056
1361705251.0,0.378343625,33.0725,57.35,5.4096875,61.37664503600541
1361705251.25,0.37839700000000004,33.07416666666666,57.345833335466665,5.7995833333333335,61.37130135956023
1361705251.5,0.37845037499999995,33.07583333333333,57.34166666666667,6.0221875,61.36722863915971
1361705251.75,0.37839700000000004,33.0775,57.33749999786667,6.459192708333334,61.36086855169494
1361705252.0,0.37850374999999997,33.079166666666666,57.333333333333336,6.611458333333334,61.35959582656978
1361705252.25,0.37850374999999997,33.08083333333334,57.31916667392,6.344270833333333,61.35959582656978
1361705252.5,0.37855712499999994,33.0825,57.30500000000001,5.808932291666667,61.35959582656978
1361705252.75,0.378663875,33.083333333333336,57.290833326080005,5.358958333333333,61.35959582656978
1361705253.0,0.37871725,33.083333333333336,57.27666666666667,5.027942708333334,61.35959582656978
1361705253.25,0.3788773749999999,33.083333333333336,57.253333345280005,4.5082812500000005,61.35959582656978
1361705253.5,0.37903754166666664,33.083333333333336,57.230000000000004,3.4698177083333337,61.35959582656978
1361705253.75,0.37903754166666664,33.0825,57.20666665472,2.3451302083333334,61.35959582656978
1361705254.0,0.3792510833333333,33.08083333333334,57.18333333333334,1.5708854166666668,61.35959582656978
1361705254.25,0.37941125,33.079166666666666,57.1541666816,1.1537760416666665,61.35959582656978
1361705254.5,0.37957141666666666,33.07750000000001,57.125,0.7371093750000001,61.35959582656978
1361705254.75,0.3798383333333333,33.075833333333335,57.0958333184,0.3424739583333334,61.35959582656978
1361705255.0,0.3799450833333333,33.07416666666667,57.06666666666666,0.7659375,61.35959582656978
1361705255.25,0.37999845833333334,33.0725,57.03666668202666,1.5351302083333334,61.35959582656978
1361705255.5,0.38005183333333337,33.07083333333333,57.00666666666666,2.0446614583333336,61.35959582656978
1361705255.75,0.37999845833333334,33.06916666666667,56.976666651306665,1.903072916666667,61.36557372146576
1361705256.0,0.37999845833333334,33.0675,56.946666666666665,1.312734375,61.400547342571365
1361705256.25,0.3799450833333333,33.06583333333333,56.91416668330667,1.3768229166666666,61.45189664146739
1361705256.5,0.3798382916666667,33.064166666666665,56.88166666666666,1.7777083333333332,61.506019644220174
1361705256.75,0.3798382916666667,33.0625,56.84916665002666,1.5377864583333334,61.56052054286264
1361705257.0,0.37973150000000006,33.060833333333335,56.81666666666666,0.9658072916666666,61.61443354036151
1361705257.25,0.37962470833333334,33.05916666666667,56.78583334912,0.18914062499999995,61.66725424380096
1361705257.5,0.3795179166666667,33.0575,56.754999999999995,0.047942708333333285,61.7178901294493
1361705257.75,0.37935775000000005,33.05833333333333,56.724166650879994,-0.23531250000000004,61.76957622717867
1361705258.0,0.37935775,33.06166666666666,56.69333333333333,-1.4172395833333333,61.822144668420144
1361705258.25,0.3795179166666667,33.065,56.66500001450667,-2.8248697916666665,61.87177196462122
1361705258.5,0.37957129166666664,33.068333333333335,56.63666666666667,-3.4422916666666663,61.923163947846525
1361705258.75,0.3797314583333333,33.0725,56.608333318826666,-3.1188541666666665,61.97130905570332
1361705259.0,0.3799450416666666,33.07749999999999,56.580000000000005,-2.5255729166666665,61.99104636028813
1361705259.25,0.38010520833333333,33.0825,56.55666667861333,-2.7717187500000002,61.99339966008373
1361705259.5,0.3803187916666666,33.0875,56.53333333333333,-2.8690364583333334,61.98894594802758
1361705259.75,0.38058575,33.0925,56.50999998805333,-2.2286718750000003,61.984450449081315
1361705260.0,0.38079933333333327,33.0975,56.48666666666666,-1.5561197916666665,61.98020674227907
1361705260.25,0.38101291666666665,33.1025,56.46583334399999,-0.879296875,61.97705532953623
1361705260.5,0.38122649999999997,33.1075,56.44499999999999,-0.8915885416666666,61.97575262558491
1361705260.75,0.3814400833333333,33.11,56.424166656,-0.21674479166666658,61.97339970955259
1361705261.0,0.3816002916666667,33.11,56.40333333333333,1.2444010416666667,61.970164450008134
1361705261.25,0.38165370833333334,33.11,56.38583334229333,2.4895833333333335,61.969870335504105
1361705261.5,0.3817605416666667,33.11,56.36833333333333,2.7017187499999995,61.96781153397581
1361705261.75,0.3818139583333333,33.11,56.35083332437333,2.235416666666667,61.963021712920074
1361705262.0,0.3818139583333333,33.11,56.333333333333336,2.2801562499999997,61.957643968926696
1361705262.25,0.38186737499999995,33.11,56.318333341013336,2.8509635416666668,61.95327455193209
1361705262.5,0.38186737500000006,33.11,56.303333333333335,2.988984375,61.9529384429325
1361705262.75,0.3817605833333333,33.10916666666667,56.28833332565333,2.8739843749999996,61.95226622493333
1361705263.0,0.38176058333333335,33.1075,56.27333333333333,2.790625,61.95193011593374
1361705263.25,0.38170716666666665,33.10583333333333,56.25833334101333,3.142369791666667,61.95159400693416
1361705263.5,0.38170716666666665,33.104166666666664,56.24333333333333,3.7250260416666663,61.95159400693416
1361705263.75,0.3817605416666667,33.1025,56.22833332565333,3.7326041666666665,61.95159400693416
1361705264.0,0.3817605416666667,33.100833333333334,56.21333333333333,3.1344010416666666,61.95159400693416
1361705264.25,0.3817605416666667,33.09916666666667,56.1966666752,2.415390625,61.95159400693416
1361705264.5,0.3817605416666667,33.097500000000004,56.18,2.4740885416666667,61.95024852004735
1361705264.75,0.381707125,33.09666666666667,56.1633333248,3.0611197916666666,61.94755754627374
1361705265.0,0.381707125,33.09666666666667,56.14666666666667,3.11140625,61.94486657250014
1361705265.25,0.381707125,33.09666666666667,56.12416667818667,2.6394010416666664,61.94217559872653
1361705265.5,0.381707125,33.09666666666667,56.10166666666667,2.485520833333333,61.93948462495293
1361705265.75,0.3817605416666667,33.097500000000004,56.079166655146665,2.8993229166666663,61.93679365117932
1361705266.0,0.3817605416666667,33.09916666666667,56.056666666666665,3.5134895833333335,61.93410267740572
1361705266.25,0.38186733333333334,33.100833333333334,56.02916668074666,3.65859375,61.93141170363211
1361705266.5,0.38202745833333335,33.1025,56.001666666666665,3.388515625,61.928720729858505
1361705266.75,0.38202745833333335,33.104166666666664,55.97416665258667,3.2469531250000006,61.926029756084894
1361705267.0,0.3821342083333333,33.10583333333333,55.946666666666665,3.728854166666667,61.9233387823113
1361705267.25,0.3822943333333333,33.1075,55.91166668458667,4.584010416666667,61.92064780853769
1361705267.5,0.38240108333333334,33.10916666666667,55.876666666666665,4.932604166666667,61.91930232165088
1361705267.75,0.38256124999999996,33.11,55.84166664874667,4.931354166666666,61.91930232165088
1361705268.0,0.382668,33.11,55.80666666666667,5.414140624999999,61.91930232165088
1361705268.25,0.38277475,33.11,55.766666687146675,6.3348177083333335,61.91930232165088
1361705268.5,0.38288149999999993,33.11,55.726666666666674,6.832682291666667,61.91930232165088
1361705268.75,0.38293487500000006,33.11,55.686666646186666,6.4323958333333335,61.91930232165088
1361705269.0,0.3828814583333333,33.11,55.64666666666667,5.6679427083333325,61.91930232165088
1361705269.25,0.3827746666666667,33.11,55.60333335552,5.471979166666667,61.91930232165088
1361705269.5,0.382561125,33.11,55.56,5.761692708333334,61.91930232165088
1361705269.75,0.38250775000000004,33.11,55.51666664448,5.65109375,61.91930232165088
1361705270.0,0.38240100000000005,33.11,55.47333333333333,4.886875,61.91930232165088
1361705270.25,0.382240875,33.11,55.43416668672,3.9219270833333333,61.91930232165088
1361705270.5,0.38213412500000005,33.11,55.394999999999996,3.457161458333333,61.91930232165088
1361705270.75,0.382027375,33.11,55.355833313279994,3.2428385416666665,61.91930232165088
1361705271.0,0.381920625,33.11,55.31666666666666,2.4958593749999998,61.91930232165088
1361705271.25,0.381813875,33.11,55.2833333504,1.5033593749999998,61.91930232165088
1361705271.5,0.381707125,33.11,55.25,0.8003385416666666,61.91930232165088
1361705271.75,0.38165374999999996,33.11,55.21666664959999,0.677578125,61.91930232165088
1361705272.0,0.3817071666666667,33.11,55.18333333333333,1.0127083333333333,61.919176141135345
1361705272.25,0.3817605833333333,33.11,55.154166681599996,0.9040885416666665,61.91909202079165
1361705272.5,0.381814,33.11,55.125,0.3979166666666667,61.9185872987295
1361705272.75,0.381814,33.11083333333334,55.095833318400004,0.4763541666666667,61.913367980047745
1361705273.0,0.381814,33.112500000000004,55.06666666666667,1.0239322916666669,61.905622908070306
1361705273.25,0.381814,33.11416666666667,55.03666668202667,1.7345052083333334,61.89564074144235
1361705273.5,0.381814,33.115833333333335,55.00666666666667,2.005520833333333,61.886885368146636
1361705273.75,0.381814,33.11666666666667,54.976666651306665,2.005390625,61.877913502836954
1361705274.0,0.381814,33.11666666666667,54.946666666666665,2.441328125,61.872477692141224
1361705274.25,0.381814,33.11666666666667,54.91583334912,3.0587500000000003,61.872057090422764
1361705274.5,0.381814,33.11666666666667,54.885000000000005,3.641666666666667,61.86759528343121
1361705274.75,0.381814,33.11666666666667,54.85416665088001,3.937890625,61.86157596429041
1361705275.0,0.381814,33.11666666666667,54.823333333333345,3.667135416666667,61.86115493397497
1361705275.25,0.381814,33.11666666666667,54.79416668160001,3.5062760416666667,61.861239054318666
1361705275.5,0.38186737499999995,33.11666666666667,54.76500000000001,3.6453124999999997,61.857956383808634
1361705275.75,0.38186737500000006,33.115833333333335,54.735833318400005,3.435338541666667,61.85711587437489
1361705276.0,0.3818139583333333,33.11416666666667,54.70666666666667,2.994817708333333,61.86107355378014
1361705276.25,0.3817605416666667,33.112500000000004,54.67833334784,2.5805989583333333,61.865753370807035
1361705276.5,0.381707125,33.11083333333333,54.650000000000006,2.3520052083333334,61.872993787073874
1361705276.75,0.381707125,33.11,54.62166665216,2.159947916666667,61.877799520554156
1361705277.0,0.3817071249999999,33.11,54.593333333333334,1.4616145833333334,61.877175503134374
1361705277.25,0.381707125,33.11,54.568333346133336,0.7643749999999999,61.871536276737345
1361705277.5,0.381707125,33.11,54.54333333333334,0.35236979166666665,61.86842201144953
1361705277.75,0.381707125,33.11,54.51833332053333,0.13591145833333335,61.8666967867372
1361705278.0,0.381707125,33.11,54.49333333333333,0.1776822916666667,61.858994038993764
1361705278.25,0.381707125,33.11,54.472500010666664,0.12622395833333336,61.850407137271816
1361705278.5,0.38165374999999996,33.11,54.45166666666667,0.35906250000000006,61.851416679579394
1361705278.75,0.38165374999999996,33.11,54.43083332266667,0.9919531250000001,61.85747650769489
1361705279.0,0.3817605416666667,33.11,54.410000000000004,0.9102604166666666,61.85865452157625
1361705279.25,0.3818139583333333,33.11,54.39083334314667,0.02690104166666669,61.863578131920086
1361705279.5,0.38186737499999995,33.11,54.37166666666667,-0.018046874999999973,61.86509308894896
1361705279.75,0.38192075,33.11,54.35249999018667,0.684453125,61.86925922077836
1361705280.0,0.38192075,33.11,54.333333333333336,1.6184375,61.875319048893864
1361705280.25,0.38192075,33.11,54.315000009386665,1.9625000000000001,61.877591484437175
1361705280.5,0.38192075,33.11,54.29666666666667,1.738515625,61.88403133894488
1361705280.75,0.38192075,33.11,54.27833332394667,1.7460416666666667,61.8901347452536
1361705281.0,0.38192075,33.11,54.26,2.0990885416666667,61.89232487571252
1361705281.25,0.3818673333333333,33.11,54.23916667733333,2.428463541666667,61.89720870291658
1361705281.5,0.3817605,33.11,54.218333333333334,2.1508333333333334,61.897966874090166
1361705281.75,0.3816536666666666,33.11,54.19749998933334,1.5628125,61.892243725060034
1361705282.0,0.38149345833333337,33.11,54.17666666666667,1.9020833333333333,61.889129954720744
1361705282.25,0.3814400416666666,33.11,54.15750000981333,3.026432291666667,61.88445890311858
1361705282.5,0.38144004166666673,33.11,54.138333333333335,3.2184375000000003,61.87839907500308
1361705282.75,0.38133324999999996,33.11,54.11916665685334,2.6264583333333333,61.87301260505833
1361705283.0,0.38133325,33.11,54.1,2.19765625,61.87250726826883
1361705283.25,0.381386625,33.11,54.080833343146665,2.6520572916666665,61.87898563461462
1361705283.5,0.38144,33.11,54.06166666666667,3.4456510416666664,61.880920611865626
1361705283.75,0.381493375,33.11,54.04249999018667,3.648307291666667,61.88743675256461
1361705284.0,0.381493375,33.11,54.02333333333333,3.295260416666667,61.90089338651836
1361705284.25,0.38154679166666666,33.11,54.0066666752,3.071588541666667,61.911993266874504
1361705284.5,0.381707,33.11,53.99,3.277708333333333,61.92140975180379
1361705284.75,0.38181383333333335,33.11,53.9733333248,3.3034635416666664,61.93452970667218
1361705285.0,0.38197404166666665,33.11,53.95666666666667,2.8621875000000006,61.94764966154056
1361705285.25,0.38208083333333337,33.11,53.94250000725334,2.3009635416666665,61.95845697965162
1361705285.5,0.3820274166666666,33.11,53.928333333333335,1.9030729166666667,61.96918148262773
1361705285.75,0.3820274166666667,33.10916666666667,53.91416665941333,1.8919010416666666,61.971028813220784
1361705286.0,0.381974,33.107499999999995,53.9,1.6341927083333332,61.96416631665017
1361705286.25,0.3818672083333334,33.10583333333333,53.887500006399996,0.7594270833333333,61.95137166789912
1361705286.5,0.38181383333333335,33.104166666666664,53.875,-0.15156249999999996,61.94985374200299
1361705286.75,0.38170704166666664,33.10333333333333,53.862499993600004,-0.7172135416666667,61.95035810253973
1361705287.0,0.381653625,33.10333333333333,53.85,-0.8708072916666666,61.9362249485144
1361705287.25,0.381707,33.10333333333333,53.8375000064,-1.02203125,61.920492726241434
1361705287.5,0.38160020833333325,33.10333333333333,53.825,-1.4378125,61.91242295765363
1361705287.75,0.3816535833333334,33.10333333333333,53.81249999360001,-1.7802604166666667,61.9099431494655
1361705288.0,0.38165358333333327,33.10333333333333,53.800000000000004,-1.765703125,61.9099431494655
1361705288.25,0.38154679166666666,33.10333333333333,53.789166672213334,-1.4603645833333332,61.91158242805208
1361705288.5,0.3816535833333334,33.10333333333333,53.778333333333336,-1.16953125,61.91431455902972
1361705288.75,0.381760375,33.104166666666664,53.76749999445334,-1.223671875,61.92525050421968
1361705289.0,0.3818671666666667,33.10583333333333,53.75666666666667,-1.2775,61.940015143418044
1361705289.25,0.38202733333333333,33.1075,53.74666667178666,-0.8253906250000002,61.95751562423376
1361705289.5,0.38202729166666666,33.10916666666667,53.736666666666665,-0.18653645833333332,61.962101072731635
1361705289.75,0.3820806666666667,33.11,53.726666661546666,0.44768229166666673,61.954360791061596
1361705290.0,0.3822408333333333,33.11,53.71666666666666,0.91609375,61.95410240613389
1361705290.25,0.3821874166666667,33.11,53.71083333631999,0.9974218750000001,61.94026471671211
1361705290.5,0.38224079166666675,33.11,53.705,1.2235677083333334,61.91597932032537
1361705290.75,0.382187375,33.10916666666667,53.699166663679996,2.017265625,61.88610396353898
1361705291.0,0.38202716666666675,33.107499999999995,53.69333333333333,2.6753125,61.853748798564446
1361705291.25,0.38197375,33.10583333333333,53.694166666239994,2.6362239583333333,61.821393633589906
1361705291.5,0.38181354166666664,33.104166666666664,53.69499999999999,2.182317708333333,61.78903846861538
1361705291.75,0.3816533333333334,33.1025,53.69583333375999,1.8713802083333333,61.75668330364085
1361705292.0,0.381493125,33.100833333333334,53.69666666666666,1.989557291666667,61.7243281386663
1361705292.25,0.3812795416666666,33.09916666666667,53.70416666282666,1.8857031250000003,61.691972973691776
1361705292.5,0.38117275,33.097500000000004,53.71166666666666,1.5327083333333331,61.66314833247441
1361705292.75,0.38106595833333334,33.09583333333334,53.71916667050667,1.075,61.655982393047346
1361705293.0,0.3808523750000001,33.094166666666666,53.72666666666667,0.6569531250000001,61.665414315624105
1361705293.25,0.38079899999999994,33.0925,53.73499999573333,0.877578125,61.695614144752035
1361705293.5,0.38085241666666664,33.090833333333336,53.74333333333333,1.06734375,61.72864122165529
1361705293.75,0.38079904166666667,33.09,53.75166667093333,0.5498437500000001,61.760324015595415
1361705294.0,0.3809592499999999,33.09,53.76,-0.052291666666666604,61.792805164056595
1361705294.25,0.3811194583333333,33.09,53.76749999616,0.08265625000000006,61.8225971669661
1361705294.5,0.3812796666666667,33.09,53.775,0.7324739583333334,61.84814403954902
1361705294.75,0.38149324999999995,33.09,53.78250000384,1.1917447916666666,61.87263968196845
1361705295.0,0.38165345833333336,33.09,53.79,1.0376822916666668,61.89848066905541
1361705295.25,0.38186704166666674,33.09,53.794166664533336,0.6388541666666667,61.92755806539549
1361705295.5,0.382134,33.09,53.79833333333333,0.25682291666666673,61.951843461782225
1361705295.75,0.38234758333333335,33.09,53.80250000213333,0.1789583333333334,61.960697356438466
1361705296.0,0.3825611666666666,33.09,53.806666666666665,0.43244791666666677,61.95758720422696
1361705296.25,0.3827213333333333,33.09,53.809999998293335,0.2698697916666667,61.948887518205986
1361705296.5,0.3827213333333334,33.09,53.81333333333333,-0.18083333333333332,61.94014583768947
1361705296.75,0.38288150000000004,33.090833333333336,53.81666666837333,-0.394375,61.932748440136066
1361705297.0,0.38288150000000004,33.0925,53.82,-0.255078125,61.92455268806163
1361705297.25,0.38288150000000004,33.09416666666667,53.82,-0.17731770833333335,61.91904608153886
1361705297.5,0.38293487500000006,33.09583333333334,53.82,-0.30221354166666664,61.916437889001195
1361705297.75,0.38288150000000004,33.097500000000004,53.82,-0.23940104166666662,61.912187493944025
1361705298.0,0.38293487500000006,33.09916666666667,53.82,0.10697916666666672,61.90524503787785
1361705298.25,0.38293487499999995,33.100833333333334,53.82,0.6729166666666667,61.89506617255855
1361705298.5,0.3828281250000001,33.1025,53.82,1.3220572916666666,61.88967930719259
1361705298.75,0.38277475000000005,33.104166666666664,53.82,1.7458333333333336,61.884292441826624
1361705299.0,0.38272137500000003,33.10583333333333,53.82,1.7497656250000002,61.87890557646066
1361705299.25,0.38256120833333335,33.1075,53.82416666453334,1.8451562499999998,61.873518711094704
1361705299.5,0.38256120833333335,33.10916666666667,53.82833333333333,2.283515625,61.86813184572875
1361705299.75,0.38245445833333336,33.10916666666667,53.83250000213333,2.756692708333334,61.8627449803628
1361705300.0,0.38245445833333336,33.107499999999995,53.836666666666666,3.006822916666667,61.85735811499683
1361705300.25,0.3825078333333333,33.10583333333333,53.84583332864,2.9709375000000002,61.85197124963087
1361705300.5,0.38245445833333336,33.104166666666664,53.855000000000004,2.8284895833333334,61.847931100606395
1361705300.75,0.38245445833333336,33.1025,53.86416667136,2.57015625,61.84658438426491
1361705301.0,0.38240108333333334,33.100833333333334,53.873333333333335,2.3163020833333334,61.84658438426491
1361705301.25,0.38234770833333337,33.09916666666667,53.88999999146667,2.187161458333333,61.848478080551
1361705301.5,0.38240108333333334,33.097500000000004,53.906666666666666,2.0417447916666664,61.85567284215693
1361705301.75,0.38245445833333336,33.09583333333334,53.923333341866666,1.9008333333333332,61.86660892118181
1361705302.0,0.3825078333333334,33.094166666666666,53.94,1.8473177083333334,61.8780492949303
1361705302.25,0.382668,33.0925,53.953333326506666,1.6037239583333334,61.889489668678806
1361705302.5,0.38272137500000003,33.090833333333336,53.96666666666667,1.1081770833333333,61.90584124009086
1361705302.75,0.382828125,33.090833333333336,53.980000006826664,0.5899739583333333,61.927355059810196
1361705303.0,0.38288150000000004,33.0925,53.99333333333333,0.06369791666666665,61.948868879529535
1361705303.25,0.38288150000000004,33.09416666666667,54.00083332949333,-0.3526822916666667,61.97038269924888
1361705303.5,0.38293487499999995,33.09583333333334,54.00833333333333,-0.6500260416666668,61.99189651896821
1361705303.75,0.383041625,33.097500000000004,54.01583333717333,-0.8083333333333335,62.01341033868755
1361705304.0,0.38314837500000004,33.09916666666667,54.02333333333333,-0.508203125,62.03492415840688
1361705304.25,0.38325512500000003,33.100833333333334,54.02166666752,-0.37398437500000004,62.05823072541826
1361705304.5,0.3833085,33.1025,54.02,-0.7580208333333335,62.08339825031711
1361705304.75,0.38325512500000003,33.104166666666664,54.018333332480005,-1.404453125,62.10670761136129
1361705305.0,0.38325512500000003,33.10583333333333,54.01666666666667,-1.6565104166666667,62.129512677681845
1361705305.25,0.38325512500000003,33.1075,54.00166667434667,-1.3517187499999999,62.15231774400238
1361705305.5,0.38320175,33.10916666666667,53.98666666666667,-0.8822395833333333,62.170211612659386
1361705305.75,0.38320175,33.11,53.97166665898667,-0.3447395833333333,62.1829432330091
1361705306.0,0.38320175,33.11,53.95666666666667,-0.11242187499999996,62.194670277636256
1361705306.25,0.38320175,33.11,53.931666679466666,-0.051822916666666635,62.20740189798597
1361705306.5,0.38325512500000003,33.11,53.906666666666666,0.3080989583333334,62.220008007215434
1361705306.75,0.38325512500000003,33.11,53.88166665386667,0.6462239583333335,62.2312334941222
1361705307.0,0.3833085,33.11,53.85666666666666,0.1915104166666667,62.24258449214923
1361705307.25,0.383361875,33.11,53.8233333504,-0.3663541666666666,62.24962149099688
1361705307.5,0.38341525000000004,33.11,53.79,-0.05869791666666661,62.24949646663723
1361705307.75,0.383575375,33.11,53.7566666496,0.5478385416666668,62.247488288713306
1361705308.0,0.383682125,33.11,53.723333333333336,0.5173958333333334,62.24548011078938
1361705308.25,0.38378887500000003,33.11,53.691666682880005,-0.16622395833333328,62.24347193286547
1361705308.5,0.38394900000000004,33.11,53.660000000000004,-0.7738802083333334,62.24146375494154
1361705308.75,0.38405575,33.11,53.62833331712,-1.3594791666666666,62.239455577017615
1361705309.0,0.3841625,33.11,53.59666666666667,-1.3523697916666668,62.23845197481625
1361705309.25,0.38421587500000004,33.11,53.56333335040001,-1.1810677083333332,62.236443796892324
1361705309.5,0.384215875,33.11,53.53,-1.6284114583333336,62.23104295608812
1361705309.75,0.38416249999999996,33.11,53.4966666496,-1.9984895833333332,62.22291820127265
1361705310.0,0.3840557500000001,33.11,53.46333333333334,-1.5632291666666667,62.212908848336674
1361705310.25,0.38394900000000004,33.11,53.42416668672001,-0.8674739583333334,62.20645886266903
1361705310.5,0.38394900000000004,33.11,53.385000000000005,-0.5908072916666668,62.2029406886685
1361705310.75,0.38405575,33.11,53.34583331328,-0.3815625,62.200300259856846
1361705311.0,0.3841625,33.11,53.30666666666667,0.26643229166666665,62.2036467913364
1361705311.25,0.38426925,33.11,53.26500002133334,1.4018229166666665,62.20699332281595
1361705311.5,0.3844294166666667,33.11,53.22333333333334,2.508125,62.210339854295505
1361705311.75,0.38464300000000007,33.11083333333333,53.18166664533334,3.4326302083333338,62.213686385775055
1361705312.0,0.38485658333333334,33.112500000000004,53.14000000000001,3.9024479166666666,62.217032917254606
1361705312.25,0.3851769166666667,33.11416666666667,53.10250001920001,4.381640625,62.22037944873416
1361705312.5,0.38555062500000004,33.115833333333335,53.065000000000005,5.3021875,62.22724415421424
1361705312.75,0.38603108333333336,33.1175,53.0274999808,6.001875000000001,62.23821339602828
1361705313.0,0.3866182916666667,33.119166666666665,52.99,6.049765625,62.25094172484257
1361705313.25,0.38720550000000004,33.12083333333333,52.96083334826667,5.692161458333334,62.26073824198977
1361705313.5,0.3877393333333334,33.1225,52.93166666666667,5.288515625,62.26760294746985
1361705313.75,0.3881664166666667,33.12416666666667,52.90249998506667,5.215911458333333,62.27613931012386
1361705314.0,0.3886469166666667,33.12583333333333,52.873333333333335,4.9988020833333335,62.28950121350615
1361705314.25,0.3891808333333333,33.127500000000005,52.85750000810667,4.440130208333334,62.30753532118206
1361705314.5,0.38960791666666666,33.12916666666667,52.84166666666667,3.4999479166666667,62.32556942885796
1361705314.75,0.390088375,33.130833333333335,52.82583332522667,2.881536458333333,62.34360353653387
1361705315.0,0.39062220833333333,33.1325,52.81,2.723359375,62.361637644209786
1361705315.25,0.39110266666666665,33.134166666666665,52.804166669653334,2.5328125,62.37967175188569
1361705315.5,0.39152975000000007,33.13583333333333,52.79833333333333,1.85265625,62.397705859561604
1361705315.75,0.3919034583333334,33.137499999999996,52.79249999701333,1.017734375,62.415739967237506
1361705316.0,0.39217041666666663,33.13916666666667,52.78666666666666,0.34684895833333335,62.43377407491343
1361705316.25,0.39249074999999994,33.14083333333333,52.79666666154666,0.3625,62.45080725299926
1361705316.5,0.3928110833333333,33.142500000000005,52.80666666666666,0.8095833333333333,62.46083392395468
1361705316.75,0.3931314166666667,33.14416666666667,52.81666667178666,0.5134375,62.46831119254728
1361705317.0,0.3934517083333333,33.145833333333336,52.82666666666666,-0.2311197916666667,62.4611323114149
1361705317.25,0.3937719583333334,33.1475,52.84333332479999,-0.755390625,62.441843497280594
1361705317.5,0.39414562499999994,33.149166666666666,52.85999999999999,-0.42625,62.42247103604907
1361705317.75,0.3944125,33.15,52.87666667519999,-0.07580729166666668,62.40309857481751
1361705318.0,0.394626,33.15,52.893333333333324,-0.6335416666666667,62.383726113585986
1361705318.25,0.39483949999999995,33.15,52.91249999018666,-1.2703385416666666,62.36435365235445
1361705318.5,0.39505299999999993,33.15,52.93166666666666,-0.9735677083333333,62.34498119112291
1361705318.75,0.39526649999999997,33.15,52.95083334314666,0.448046875,62.32560872989137
1361705319.0,0.39548,33.15,52.97,2.0623958333333334,62.30623626865983
1361705319.25,0.39564012500000006,33.15,52.98666665813333,2.7758072916666667,62.28786473701837
1361705319.5,0.395746875,33.15,53.00333333333333,2.5282812500000005,62.276499712507324
1361705319.75,0.395853625,33.15,53.02000000853334,3.221692708333333,62.26513468799629
1361705320.0,0.395907,33.15,53.03666666666667,5.053255208333334,62.257613312190756
1361705320.25,0.395907,33.15,53.052499991893335,6.762864583333333,62.25752966509352
1361705320.5,0.395907,33.15,53.068333333333335,7.2524218750000005,62.25752966509352
1361705320.75,0.395907,33.150416666666665,53.084166674773336,6.908828125,62.2613329125887
1361705321.0,0.395907,33.15125,53.1,7.689973958333334,62.27002604972052
1361705321.25,0.395907,33.15208333333333,53.112499993600004,9.327317708333334,62.27871918685235
1361705321.5,0.395907,33.15291666666666,53.125,10.304479166666667,62.28741232398418
1361705321.75,0.395907,33.153749999999995,53.1375000064,9.776380208333334,62.296105461116014
1361705322.0,0.39596041666666665,33.154583333333335,53.150000000000006,8.892630208333333,62.304798598247835
1361705322.25,0.39596041666666665,33.15541666666666,53.15666666325334,9.185911458333335,62.313491735379664
1361705322.5,0.39596041666666665,33.15625,53.16333333333334,10.749140625,62.32218487251149
1361705322.75,0.39601383333333334,33.15708333333333,53.170000003413335,11.292109375,62.33087800964332
1361705323.0,0.39606725,33.157916666666665,53.17666666666667,10.438463541666668,62.33957114677514
1361705323.25,0.3961206666666666,33.15875,53.17333333504,9.162630208333333,62.34843127686818
1361705323.5,0.3962275,33.15958333333333,53.17,9.160833333333333,62.35929532249562
1361705323.75,0.3962809166666667,33.15958333333333,53.166666664960005,10.348541666666666,62.366022134705474
1361705324.0,0.3963877083333333,33.15875,53.163333333333334,10.646458333333333,62.36435043177263
1361705324.25,0.39660129166666674,33.157916666666665,53.15500000426667,9.616510416666667,62.361132713958035
1361705324.5,0.39670808333333335,33.157083333333325,53.14666666666666,8.288333333333332,62.36129970691923
1361705324.75,0.396814875,33.15625,53.13833332906666,8.230286458333333,62.36196767876404
1361705325.0,0.39686825,33.15541666666666,53.129999999999995,8.954244791666667,62.36397159429845
1361705325.25,0.39697504166666664,33.15458333333333,53.120833338026664,8.535937500000001,62.36664348167766
1361705325.5,0.39713525000000005,33.153749999999995,53.111666666666665,6.80078125,62.36931536905687
1361705325.75,0.39713525000000005,33.15291666666666,53.102499995306665,5.366041666666668,62.371987256436086
1361705326.0,0.3970818333333333,33.15208333333333,53.093333333333334,5.272135416666667,62.37252820171947
1361705326.25,0.3970818333333333,33.15125,53.08666667008,6.181510416666666,62.37503309613748
1361705326.5,0.396975,33.150416666666665,53.08,6.1003125,62.3718977835703
1361705326.75,0.396975,33.150416666666665,53.07333332992,4.849348958333334,62.364542928998624
1361705327.0,0.39692162500000006,33.15125,53.06666666666666,4.0408333333333335,62.36784221935634
1361705327.25,0.3967080416666667,33.15208333333333,53.064166667946665,4.53,62.3725205316346
1361705327.5,0.39665466666666666,33.15291666666666,53.06166666666667,5.6390625000000005,62.36366040154157
1361705327.75,0.39665470833333333,33.153749999999995,53.05916666538666,5.483723958333333,62.35429929256494
1361705328.0,0.3966013333333333,33.15458333333333,53.056666666666665,4.1690625,62.34289036644503
1361705328.25,0.396601375,33.15541666666667,53.05500000085333,3.5288802083333333,62.33081346848033
1361705328.5,0.39654799999999996,33.15624999999999,53.05333333333333,4.322526041666666,62.317564316883825
1361705328.75,0.39660141666666665,33.156666666666666,53.05166666581333,5.543880208333333,62.30557125001096
1361705329.0,0.39676162500000006,33.156666666666666,53.05,5.65359375,62.296337167595745
1361705329.25,0.3968150416666667,33.156666666666666,53.048333334186665,4.844427083333334,62.2843441007229
1361705329.5,0.39697525000000006,33.156666666666666,53.04666666666667,5.080208333333333,62.27661536766263
1361705329.75,0.39708204166666666,33.15624999999999,53.04499999914666,6.133515625,62.273440162529276
1361705330.0,0.3971354583333333,33.15541666666667,53.04333333333333,6.804609374999999,62.263119437972584
1361705330.25,0.39729566666666666,33.15458333333333,53.04083333461333,5.924635416666667,62.252965706377076
1361705330.5,0.39745583333333334,33.153749999999995,53.03833333333333,4.737578125,62.252965706377076
1361705330.75,0.39750920833333336,33.15291666666666,53.03583333205333,5.1028125,62.25509664847291
1361705331.0,0.397669375,33.15208333333333,53.03333333333333,6.535703125,62.26220134821403
1361705331.25,0.39777612500000004,33.15125,53.030833334613334,7.499921874999999,62.262913221667695
1361705331.5,0.39798962500000007,33.150416666666665,53.028333333333336,7.076770833333334,62.264797348753156
1361705331.75,0.398203125,33.15,53.02583333205333,6.490598958333333,62.265425391114974
1361705332.0,0.39836325,33.15,53.02333333333333,6.7293489583333335,62.26542539111498
1361705332.25,0.39857675,33.15,53.02250000042667,7.1456510416666665,62.27148664418419
1361705332.5,0.398736875,33.15,53.02166666666667,6.483723958333333,62.27909313917454
1361705332.75,0.39879025,33.15,53.02083333290667,5.250651041666667,62.28778627630637
1361705333.0,0.398897,33.15,53.02,4.867005208333333,62.29430612915524
1361705333.25,0.398950375,33.15,53.02083333290667,5.873307291666666,62.294306129155245
1361705333.5,0.398950375,33.15,53.02166666666667,6.993958333333333,62.294306129155245
1361705333.75,0.39900374999999993,33.150416666666665,53.02250000042667,6.695390624999999,62.29217518705942
1361705334.0,0.39900375000000005,33.15125,53.02333333333333,5.383098958333332,62.28578236077197
1361705334.25,0.39900374999999993,33.15208333333333,53.02583333205333,4.564270833333333,62.28578236077197
1361705334.5,0.398897,33.15291666666666,53.028333333333336,4.820546875,62.285782360771954
1361705334.75,0.39879025,33.153749999999995,53.030833334613334,4.927083333333333,62.28578236077197
1361705335.0,0.398630125,33.15458333333333,53.03333333333333,4.2228385416666665,62.28578236077197
1361705335.25,0.39852337499999996,33.15541666666666,53.03583333205333,3.7390885416666664,62.28034915006456
1361705335.5,0.39846999999999994,33.15625,53.03833333333333,4.507526041666667,62.27274265507422
1361705335.75,0.39852337499999996,33.157083333333325,53.04083333461333,5.785625,62.2640495179424
1361705336.0,0.3986835,33.157916666666665,53.04333333333333,5.922786458333333,62.25752966509352
1361705336.25,0.398843625,33.15875,53.04499999914666,4.639479166666667,62.25752966509352
1361705336.5,0.39900375000000005,33.15958333333333,53.04666666666667,3.013802083333333,62.24772665046527
1361705336.75,0.399163875,33.16,53.048333334186665,2.640755208333333,62.22861628357892
1361705337.0,0.399324,33.16,53.05,3.594739583333333,62.20370836753279
1361705337.25,0.39937737500000003,33.16,53.05,3.9039583333333336,62.16744118051187
1361705337.5,0.39953749999999993,33.16,53.05,2.8181770833333335,62.13050019526262
1361705337.75,0.39959087500000007,33.15958333333333,53.05,1.5809114583333335,62.09355921001335
1361705338.0,0.39975099999999997,33.15875,53.05,1.6680729166666666,62.05661822476409
1361705338.25,0.39985775,33.157916666666665,53.04416666965333,2.8456510416666667,62.01271913329145
1361705338.5,0.39985775,33.15708333333333,53.03833333333333,2.6040364583333333,61.96384098779969
1361705338.75,0.39985775,33.15625,53.03249999701333,1.6608333333333334,61.908878935949396
1361705339.0,0.39964425,33.15541666666666,53.026666666666664,2.23921875,61.852056532456366
1361705339.25,0.39937737500000003,33.154583333333335,53.01416667306666,4.095703125,61.79696731918748
1361705339.5,0.3991105,33.153749999999995,53.001666666666665,6.235833333333333,61.754597481444286
1361705339.75,0.39884362500000003,33.15291666666666,52.98916666026667,7.179088541666666,61.71988627396206
1361705340.0,0.39852333333333334,33.15208333333333,52.97666666666667,7.220833333333334,61.696169598476956
1361705340.25,0.39825637500000005,33.15125,52.95750000981333,7.609895833333333,61.68170002907007
1361705340.5,0.39788266666666666,33.150416666666665,52.93833333333333,8.942395833333334,61.666636129005354
1361705340.75,0.39750895833333333,33.15,52.919166656853335,10.675130208333334,61.64345278716238
1361705341.0,0.39708187500000003,33.15,52.9,11.510546875000001,61.6113300292539
1361705341.25,0.3965480416666667,33.15,52.88083334314666,11.184322916666668,61.58383506638339
1361705341.5,0.39606758333333336,33.15,52.861666666666665,11.169088541666667,61.55729094063781
1361705341.75,0.39558712500000004,33.149166666666666,52.84249999018667,12.24046875,61.536491051685935
1361705342.0,0.3952134166666667,33.1475,52.82333333333333,12.4915625,61.515980498206574
1361705342.25,0.39489308333333334,33.145833333333336,52.81083333973333,11.456171875,61.49276018969317
1361705342.5,0.3946795,33.14416666666667,52.79833333333333,10.35953125,61.46662352028235
1361705342.75,0.39430579166666674,33.14166666666667,52.785833326933336,9.554869791666667,61.44217801675333
1361705343.0,0.394145625,33.13833333333333,52.77333333333333,8.475755208333334,61.4112191775248
1361705343.25,0.39403887499999996,33.135,52.767500002986665,7.863125,61.38237250319284
1361705343.5,0.3939321250000001,33.13166666666667,52.76166666666667,7.766588541666667,61.354793957747056
1361705343.75,0.393932125,33.1275,52.75583333034667,7.2890625,61.33584441767053
1361705344.0,0.393772,33.1225,52.75,6.278697916666666,61.32532473006852
1361705344.25,0.393718625,33.1175,52.75416666453334,5.050286458333333,61.31713535365191
1361705344.5,0.393611875,33.112500000000004,52.75833333333334,4.366744791666666,61.31280422658878
1361705344.75,0.39350512500000007,33.10833333333334,52.762500002133336,3.254192708333333,61.30677315860206
1361705345.0,0.393398375,33.105000000000004,52.76666666666667,1.8203125,61.31516065062697
1361705345.25,0.39329162500000003,33.10166666666667,52.777499994453336,1.0838020833333333,61.33542137584207
1361705345.5,0.39302470833333336,33.098333333333336,52.78833333333334,0.4848958333333333,61.35771227446977
1361705345.75,0.39286449999999995,33.09583333333333,52.79916667221334,0.5507291666666666,61.38012991033051
1361705346.0,0.3925441666666667,33.09416666666667,52.81,1.2682291666666667,61.41100380374752
1361705346.25,0.39217045833333336,33.0925,52.82916665685333,1.3178385416666667,61.44077925028851
1361705346.5,0.39174337499999995,33.090833333333336,52.84833333333333,0.42229166666666673,61.46780857963946
1361705346.75,0.39131629166666665,33.09,52.867500009813334,-0.22960937499999998,61.49762368602746
