timestamp,EDA,TEMP,HR,BVP,ACC_mag
1361618579.0,1.3703108333333331,33.16,,10.964791666666668,64.7390384284621
1361618579.25,1.3723707857142855,33.16,,10.953348214285715,64.72286652368135
1361618579.5,1.3739157499999999,33.16,,11.2485546875,64.72063994132003
1361618579.75,1.3751173888888888,33.16,,11.709513888888889,64.71145007042198
1361618580.0,1.3760786999999999,33.16,,11.696531250000001,64.70945893380649
1361618580.25,1.376515818181818,33.16,,11.222329545454546,64.70413806769007
1361618580.5,1.3762394583333333,33.16,,10.557213541666668,64.70038908419686
1361618580.75,1.383342625,33.15958333333333,,10.416822916666666,64.68224783650577
1361618581.0,1.3816343333333332,33.15875,,10.313307291666668,64.67999324749695
1361618581.25,1.3795522916666665,33.157916666666665,,9.498385416666666,64.67778261322832
1361618581.5,1.3769363749999999,33.15708333333333,,8.05609375,64.68164742558533
1361618581.75,1.374267125,33.1575,,7.14546875,64.6644614613294
1361618582.0,1.3715445,33.159166666666664,,6.747057291666667,64.67908906517486
1361618582.25,1.3685549166666666,33.160833333333336,,6.195390624999999,64.70553981227663
1361618582.5,1.3650315,33.1625,,5.285572916666667,64.71816204862817
1361618582.75,1.3609208333333331,33.165416666666665,,4.062473958333333,64.74376518437656
1361618583.0,1.356596625,33.16958333333333,,2.9936979166666666,64.76489924355754
1361618583.25,1.3524325833333333,33.173750000000005,,2.3937239583333336,64.78142528890025
1361618583.5,1.348749,33.17791666666667,,2.3821614583333335,64.79377626778279
1361618583.75,1.3451721666666667,33.182500000000005,,2.2373437500000004,64.81541701773197
1361618584.0,1.3414351666666666,33.1875,,1.6413802083333333,64.83186436731836
1361618584.25,1.3375380416666667,33.1925,,1.7396614583333336,64.84264135953157
1361618584.5,1.333534125,33.1975,,2.0058333333333334,64.8559415607877
1361618584.75,1.3293700000000002,33.202083333333334,,1.8804427083333335,64.88110781431172
1361618585.0,1.32504575,33.206250000000004,,1.7718489583333332,64.90719896101541
1361618585.25,1.3210418333333334,33.21041666666667,,1.1620833333333334,64.92812951392347
1361618585.5,1.3175717500000002,33.21458333333333,,1.3357812500000001,64.95428559887704
1361618585.75,1.314475375,33.2175,,1.6780989583333332,64.97940864555262
1361618586.0,1.311432375,33.219166666666666,,2.037447916666667,65.0059702329411
1361618586.25,1.3083893333333334,33.22083333333333,,2.817734375,65.0410026201565
1361618586.5,1.3054530833333333,33.2225,,3.0343489583333336,65.08092105948478
1361618586.75,1.3027837916666667,33.22416666666666,,3.0291145833333335,65.115457467251
1361618587.0,1.3004348333333333,33.225833333333334,,3.8344270833333334,65.14764651984319
1361618587.25,1.2984061666666666,33.2275,,4.187578125000001,65.17636917842025
1361618587.5,1.2968579583333335,33.229166666666664,,4.616510416666666,65.17103168475809
1361618587.75,1.2960037916666667,33.23,,5.405651041666666,65.15416449376025
1361618588.0,1.2956300833333334,33.23,,5.9573697916666655,65.0908006049827
1361618588.25,1.295256375,33.23,,7.180260416666667,64.99024148524596
1361618588.5,1.2948826666666666,33.23,,7.6023177083333335,64.88064589681962
1361618588.75,1.2969113333333333,33.23083333333333,,8.2259375,64.74979209396326
1361618589.0,1.3012355833333336,33.232499999999995,66.0,9.275807291666666,64.5890414202575
1361618589.25,1.3058267499999998,33.23416666666666,66.47916642133333,9.004661458333333,64.42143788340483
1361618589.5,1.3104712916666668,33.235833333333325,66.95833333333334,8.621015625,64.24671110688548
1361618589.75,1.3152225833333333,33.2375,67.43750024533334,8.233697916666667,64.06604946314911
1361618590.0,1.32002725,33.23916666666666,67.91666666666667,6.851901041666667,63.883699811630144
1361618590.25,1.3247785416666666,33.240833333333335,68.94416614058667,4.941744791666666,63.7054299019748
1361618590.5,1.3294230833333334,33.2425,69.97166666666666,2.916145833333333,63.562662428882625
1361618590.75,1.3338540833333334,33.245,70.99916719274665,1.2455989583333331,63.42217754044484
1361618591.0,1.3382317083333335,33.248333333333335,72.02666666666666,-0.0270052083333335,63.30190288914529
1361618591.25,1.3425559583333335,33.251666666666665,72.95999952213333,-1.5226041666666668,63.21541375643141
1361618591.5,1.3468268333333333,33.255,73.89333333333333,-2.7843750000000003,63.129447349502705
1361618591.75,1.348802125,33.25833333333333,74.82666714453333,-4.226197916666667,63.061616106201264
1361618592.0,1.3485886249999999,33.26166666666667,75.76,-5.937786458333332,63.01988280193472
1361618592.25,1.3482149583333334,33.265,76.79499947008,-6.686640625,62.97701864175544
1361618592.5,1.347787875,33.26833333333334,77.83,-6.962317708333334,62.9376402037698
1361618592.75,1.3473074166666665,33.27166666666667,78.86500052992,-6.960755208333334,62.907393925128495
1361618593.0,1.3467202083333334,33.275,79.89999999999999,-6.376640625,62.88035671565988
1361618593.25,1.346079625,33.278333333333336,80.87249950207999,-5.220807291666667,62.85749882810244
1361618593.5,1.3453856666666668,33.281666666666666,81.845,-3.994270833333333,62.82679366047754
1361618593.75,1.3446917083333332,33.285000000000004,82.81750049792001,-3.0864322916666667,62.801457348958756
1361618594.0,1.3436240416666667,33.288333333333334,83.79,-2.3091145833333333,62.78480434341003
1361618594.25,1.3420225,33.291666666666664,84.71083286186668,-1.4909895833333335,62.766366624208906
1361618594.5,1.3398870833333334,33.294999999999995,85.63166666666667,-0.7714583333333334,62.76068549586546
1361618594.75,1.3374313333333332,33.2975,86.55250047146667,-0.15184895833333334,62.74870145648212
1361618595.0,1.3348154166666666,33.299166666666665,87.47333333333334,0.3734895833333333,62.7388720269849
1361618595.25,1.3318792083333333,33.30083333333334,88.14416632320001,0.7536458333333335,62.74177682806317
1361618595.5,1.3286760833333333,33.3025,88.815,0.9052864583333333,62.74779419951423
1361618595.75,1.3250992499999998,33.30416666666667,89.48583367679998,1.0519270833333334,62.75007652229666
1361618596.0,1.3211487083333333,33.30583333333333,90.15666666666665,1.3045052083333333,62.74754030094763
1361618596.25,1.3168778333333335,33.3075,90.63166642346665,1.3653125,62.7234980767554
1361618596.5,1.3124467916666667,33.30916666666666,91.10666666666665,1.4182812499999997,62.7001204365425
1361618596.75,1.307909,33.310833333333335,91.58166690986666,1.5629166666666665,62.678617908523734
1361618597.0,1.3036915416666666,33.31250000000001,92.05666666666666,1.4211458333333333,62.64518661631422
1361618597.25,1.299794375,33.31416666666667,92.42999980885332,1.3750520833333333,62.60977923378943
1361618597.5,1.2962175,33.31583333333334,92.80333333333333,1.4309375,62.571252632534915
1361618597.75,1.2930677083333333,33.3175,93.17666685781333,1.5365885416666665,62.53634115100383
1361618598.0,1.2900247083333334,33.31916666666667,93.55,1.7466406250000002,62.50723377610188
1361618598.25,1.2869283333333332,33.32083333333333,93.8374998528,2.0745052083333335,62.4718545704624
1361618598.5,1.2837785833333333,33.3225,94.125,2.6381510416666667,62.43789964483861
1361618598.75,1.2809491666666666,33.32458333333333,94.4125001472,3.081692708333333,62.40874054395555
1361618599.0,1.2785468333333334,33.327083333333334,94.7,3.3255208333333335,62.39722522604355
1361618599.25,1.2765182083333333,33.32958333333334,94.95583320234667,3.8168749999999996,62.41113168144347
1361618599.5,1.27464975,33.33208333333334,95.21166666666667,4.235,62.42532832276771
1361618599.75,1.27278125,33.33375,95.46750013098668,4.365963541666667,62.43249251071638
1361618600.0,1.2708593333333333,33.334583333333335,95.72333333333334,4.505416666666666,62.46119071117064
1361618600.25,1.2689908333333333,33.33541666666667,95.97166653952,4.205208333333333,62.505060051145556
1361618600.5,1.2673359166666667,33.33625,96.22,3.9364062499999997,62.55386790765272
1361618600.75,1.265681,33.33708333333334,96.46833346048,3.706197916666667,62.60403663969746
1361618601.0,1.2641328333333333,33.337916666666665,96.71666666666665,3.412395833333333,62.65150654266376
1361618601.25,1.2629583333333334,33.338750000000005,96.95499987797332,3.0296614583333334,62.70001908700815
1361618601.5,1.2621575416666666,33.33958333333334,97.19333333333333,2.3474479166666664,62.74623624118061
1361618601.75,1.26135675,33.34,97.43166678869333,1.8529687500000003,62.78815526664468
1361618602.0,1.2604491666666666,33.34,97.67,1.5205208333333333,62.819199368769155
1361618602.25,1.2593814166666666,33.34,97.88166655829333,0.9485156250000001,62.844750514957575
1361618602.5,1.2582068749999997,33.34,98.09333333333333,0.3939322916666667,62.86988638311765
1361618602.75,1.2570323749999999,33.34,98.30500010837333,0.013645833333333338,62.90026179742589
1361618603.0,1.255591,33.34,98.51666666666667,-0.11661458333333331,62.92053398367079
1361618603.25,1.2540962083333334,33.34,98.70749990229334,0.06734375000000002,62.92972776651548
1361618603.5,1.2522810833333333,33.34,98.89833333333334,0.16174479166666667,62.93452981744351
1361618603.75,1.2502524166666666,33.34,99.08916676437335,0.28216145833333334,62.937427537297054
1361618604.0,1.2479568333333333,33.34,99.28000000000002,0.43421875000000004,62.93742753729706
1361618604.25,1.24544775,33.34,99.46749990400002,0.6095052083333333,62.93742753729706
1361618604.5,1.2428852499999998,33.34,99.65500000000002,0.9535677083333334,62.93742753729706
1361618604.75,1.2404295,33.34,99.84250009600001,1.10328125,62.93742753729706
1361618605.0,1.2379737499999999,33.34,100.03000000000002,1.133046875,62.93742753729706
1361618605.25,1.2353578749999998,33.34,100.23666656085335,1.199453125,62.938544195283185
1361618605.5,1.2325285000000001,33.34,100.44333333333334,1.2256510416666668,62.94135598046876
1361618605.75,1.2294855416666668,33.34,100.65000010581333,1.1655208333333333,62.94106635484217
1361618606.0,1.2267094583333333,33.34,100.85666666666667,0.7434114583333332,62.947431372236416
1361618606.25,1.2242003333333333,33.34,101.09416654506667,0.4533333333333333,62.97766430168921
1361618606.5,1.2220649166666666,33.34,101.33166666666668,0.23463541666666657,63.01526597308285
1361618606.75,1.2201430416666665,33.34125,101.56916678826667,-0.2785677083333334,63.05286764447649
1361618607.0,1.2184880833333331,33.34375000000001,101.80666666666667,-0.6671354166666666,63.107722521481556
1361618607.25,1.2171000416666666,33.346250000000005,102.01583322624,-1.0980468749999999,63.16500134125136
1361618607.5,1.2161925,33.34875,102.225,-1.4670572916666664,63.22293819438534
1361618607.75,1.2156586666666667,33.35125,102.43416677376,-2.31828125,63.2909731662929
1361618608.0,1.215338375,33.35375,102.64333333333333,-3.4431249999999998,63.3683569998297
1361618608.25,1.215338375,33.356249999999996,102.80499991722667,-3.717708333333333,63.41955008089342
1361618608.5,1.2159255833333333,33.35875,102.96666666666667,-3.8211718749999997,63.47686914137363
1361618608.75,1.2171000833333332,33.361250000000005,103.12833341610667,-3.8619791666666665,63.55180545951338
1361618609.0,1.2189685833333332,33.36375,103.29,-3.8165885416666665,63.596478480621094
1361618609.25,1.2214242916666667,33.36625,103.39999994368002,-4.4499739583333335,63.602196983362596
1361618609.5,1.2241469583333333,33.36875,103.51000000000002,-5.4519270833333335,63.61658274763804
1361618609.75,1.226869625,33.37,103.62000005632001,-6.356171875,63.612306989829015
1361618610.0,1.2293253333333334,33.37,103.73000000000002,-7.389036458333333,63.58431440840229
1361618610.25,1.2316742916666668,33.37,103.82083328682668,-8.375703125,63.568146626725586
1361618610.5,1.233382625,33.37,103.91166666666666,-9.182526041666668,63.57120720959218
1361618610.75,1.2347172499999999,33.37,104.00250004650665,-8.76578125,63.56699873354119
1361618611.0,1.2359985,33.37,104.09333333333332,-7.723385416666666,63.5505409720221
1361618611.25,1.2372797500000001,33.37,104.18583328597332,-7.041875,63.56867892585014
1361618611.5,1.2381339166666667,33.37,104.27833333333332,-6.98140625,63.566280662272106
1361618611.75,1.2386143333333333,33.37083333333333,104.37083338069333,-8.075989583333333,63.546456923467304
1361618612.0,1.2379737083333333,33.372499999999995,104.46333333333332,-9.436041666666666,63.55368241729516
1361618612.25,1.2359450833333334,33.37416666666667,104.55166662143999,-7.913333333333334,63.56620273172555
1361618612.5,1.2332757916666666,33.37583333333333,104.63999999999999,-6.582395833333334,63.563879792399376
1361618612.75,1.230553125,33.3775,104.72833337856,-4.796588541666667,63.58914841186069
1361618613.0,1.2279906666666667,33.37916666666667,104.81666666666666,-3.111328125,63.61760376719317
1361618613.25,1.2255349583333333,33.380833333333335,104.91499994965334,-1.8190625,63.627222745021754
1361618613.5,1.2232927916666667,33.3825,105.01333333333332,-0.8203385416666668,63.61498919566182
1361618613.75,1.221050625,33.384166666666665,105.11166671701332,-0.7354427083333334,63.59927121001888
1361618614.0,1.2187550833333332,33.38583333333333,105.21,-0.7251822916666667,63.586453648214786
1361618614.25,1.216406125,33.387499999999996,105.29166662485333,-1.2424739583333333,63.56411446555052
1361618614.5,1.2141105416666667,33.38916666666667,105.37333333333333,-1.416796875,63.55449039367638
1361618614.75,1.21192175,33.39083333333334,105.45500004181334,-0.12257812500000005,63.54748632455505
1361618615.0,1.2103201666666668,33.3925,105.53666666666668,1.6254947916666664,63.53700030172275
1361618615.25,1.209466,33.39416666666667,105.60666663082667,1.0669270833333333,63.53630606459558
1361618615.5,1.2088254166666668,33.395833333333336,105.67666666666668,0.9439583333333332,63.53475007846627
1361618615.75,1.2081314166666668,33.3975,105.74666670250667,0.5533854166666666,63.52426405563397
1361618616.0,1.207384,33.399166666666666,105.81666666666666,0.3720833333333334,63.51607014358291
1361618616.25,1.2064230416666668,33.40083333333333,105.88666663082665,0.5966666666666668,63.511479095167125
1361618616.5,1.2052485416666665,33.402499999999996,105.95666666666665,0.9167708333333335,63.50331473775994
1361618616.75,1.203913875,33.40416666666667,106.02666670250666,1.5019270833333334,63.49169847729335
1361618617.0,1.2022588749999998,33.40583333333333,106.09666666666665,1.8524479166666667,63.48073949114799
1361618617.25,1.200283625,33.4075,106.16833329663999,2.3280729166666667,63.46932863369667
1361618617.5,1.198308375,33.409166666666664,106.23999999999998,2.9085156249999997,63.457506970214816
1361618617.75,1.1962263333333334,33.410833333333336,106.31166670335999,3.124296875,63.44568530673296
1361618618.0,1.194090916666667,33.4125,106.38333333333333,3.1981249999999997,63.43386364325112
1361618618.25,1.1919555,33.41416666666666,106.4791666176,3.137838541666667,63.418340592597296
1361618618.5,1.1898734583333332,33.41583333333333,106.57499999999999,3.398984375,63.397635254977196
1361618618.75,1.1877914166666665,33.4175,106.67083338239999,3.5374739583333334,63.376765277122864
1361618619.0,1.18576275,33.41916666666666,106.76666666666667,3.7554166666666666,63.35671543038816
1361618619.25,1.18389425,33.420833333333334,106.88499993941333,3.9278385416666666,63.33765035500729
1361618619.5,1.182079125,33.4225,107.00333333333333,3.722864583333333,63.31542954853333
1361618619.75,1.1800504583333333,33.424166666666665,107.12166672725334,3.404791666666666,63.29125304612203
1361618620.0,1.1779150416666668,33.42583333333334,107.24000000000001,2.998125,63.25952004098598
1361618620.25,1.1757795833333333,33.4275,107.36999993344,2.7586718749999997,63.23092485374071
1361618620.5,1.17359075,33.42916666666667,107.5,2.64546875,63.202451352299
1361618620.75,1.1711884166666666,33.43,107.63000006656,2.561822916666667,63.1690183593939
1361618621.0,1.1684123750000002,33.43,107.75999999999999,2.6886458333333336,63.142858975876585
1361618621.25,1.1654761666666669,33.43,107.87749993983999,2.929479166666667,63.12118584581301
1361618621.5,1.1625399166666668,33.43,107.99499999999998,2.7314843750000004,63.10609800584882
1361618621.75,1.1596036666666667,33.43083333333333,108.11250006015997,2.6342708333333333,63.09604444259865
1361618622.0,1.1567208333333334,33.4325,108.22999999999998,2.2909375,63.0861555195827
1361618622.25,1.1538380000000001,33.43416666666666,108.29916663125331,1.9854427083333333,63.07626659656677
1361618622.5,1.1510619583333332,33.435833333333335,108.36833333333331,2.3363020833333334,63.07507284291638
1361618622.75,1.1484994583333334,33.4375,108.43750003541332,2.875989583333333,63.07994206468976
1361618623.0,1.1461505,33.439166666666665,108.50666666666666,3.570989583333333,63.09171051486666
1361618623.25,1.1439083333333333,33.44083333333334,108.54083331583999,3.9926562499999996,63.100793018458745
1361618623.5,1.141452625,33.4425,108.57499999999999,4.289192708333334,63.1101646422778
1361618623.75,1.138783375,33.44416666666667,108.60916668416,4.597135416666667,63.12449575756025
1361618624.0,1.13627425,33.44583333333333,108.64333333333333,4.593645833333333,63.1315532634549
1361618624.25,1.1335515833333332,33.4475,108.64333333333333,4.431223958333334,63.137825903067785
1361618624.5,1.1302417083333334,33.44916666666667,108.64333333333333,4.700390625,63.14269553954757
1361618624.75,1.1267182916666665,33.45,108.64333333333333,4.777421875,63.14009382760674
1361618625.0,1.1229279583333334,33.45,108.64333333333333,5.009791666666667,63.12621803058905
1361618625.25,1.1188707083333334,33.45,108.63833333589334,5.371510416666666,63.11234223357135
1361618625.5,1.1148134166666666,33.45,108.63333333333333,5.120520833333333,63.09846643655365
1361618625.75,1.1108095,33.450833333333335,108.62833333077333,5.117786458333334,63.084590639535946
1361618626.0,1.1066988333333334,33.45250000000001,108.62333333333333,4.848229166666667,63.07071484251825
1361618626.25,1.102428,33.45416666666667,108.59833334613333,4.64171875,63.05683904550054
1361618626.5,1.0983706666666666,33.45583333333334,108.57333333333332,4.723255208333334,63.042963248482835
1361618626.75,1.094740375,33.4575,108.54833332053333,4.4237239583333325,63.02908745146514
1361618627.0,1.0911635,33.45916666666667,108.52333333333333,4.684921875,63.015211654447434
1361618627.25,1.0876400416666667,33.46083333333333,108.47916668927999,5.170260416666666,63.001335857429744
1361618627.5,1.0846504583333334,33.4625,108.43499999999999,5.133255208333333,62.99076610651215
1361618627.75,1.0818744166666667,33.464166666666664,108.39083331071998,5.496197916666667,62.985690857872974
1361618628.0,1.0791517083333333,33.465833333333336,108.34666666666665,5.673177083333333,62.99147643854817
1361618628.25,1.07653575,33.4675,108.28333336575999,5.648281249999999,62.99808853074838
1361618628.5,1.0738130833333333,33.469166666666666,108.21999999999998,6.052734375,63.0047006229486
1361618628.75,1.0709836666666666,33.47083333333333,108.15666663423998,5.914348958333334,63.01131271514882
1361618629.0,1.0682609583333333,33.4725,108.09333333333332,6.107291666666666,63.01792480734903
1361618629.25,1.0656984166666665,33.47416666666667,108.02750003370666,6.314687499999999,63.02453689954927
1361618629.5,1.0632427083333333,33.475833333333334,107.96166666666666,6.159635416666667,63.03114899174948
1361618629.75,1.060787,33.4775,107.89583329962666,6.570625,63.0377610839497
1361618630.0,1.0582245,33.479166666666664,107.83,6.475130208333334,63.04437317614992
1361618630.25,1.0559289166666668,33.48083333333333,107.75750003712,6.275911458333333,63.05098526835013
1361618630.5,1.0537934583333333,33.482499999999995,107.685,6.4492447916666675,63.054126074578456
1361618630.75,1.051658,33.48416666666667,107.61249996288001,6.244739583333334,63.05371313098204
1361618631.0,1.0497895,33.48583333333334,107.54,6.296067708333333,63.048423582088304
1361618631.25,1.0481345416666665,33.487500000000004,107.45750004224,6.5383072916666665,63.04181148988809
1361618631.5,1.0466397083333334,33.48916666666667,107.375,6.664635416666666,63.035199397687876
1361618631.75,1.0453050416666667,33.49,107.29249995776,7.240755208333333,63.02858730548764
1361618632.0,1.0442373333333332,33.49,107.21,7.530807291666666,63.021975213287426
1361618632.25,1.0434899166666667,33.49,107.12000004608,8.073072916666666,63.015363121087205
1361618632.5,1.0429560416666668,33.49,107.03,8.767005208333332,63.008047861132674
1361618632.75,1.0427425,33.49041666666667,106.93999995392001,8.93671875,62.9990780673243
1361618633.0,1.0429560416666668,33.49125,106.85000000000001,9.558802083333333,62.99068736819354
1361618633.25,1.0433831249999999,33.49208333333333,106.75833338026668,10.273880208333333,62.98076610390192
1361618633.5,1.0455719583333334,33.492916666666666,106.66666666666667,10.985442708333332,62.96943707861734
1361618633.75,1.048775125,33.49375,106.57499995306667,11.811744791666667,62.95437906056373
1361618634.0,1.052352,33.49458333333333,106.48333333333333,12.412005208333333,62.94527420424757
1361618634.25,1.055928875,33.495416666666664,106.39583337813333,12.750833333333333,62.937328680390465
1361618634.5,1.05950575,33.496249999999996,106.30833333333334,12.769296875,62.92938315653336
1361618634.75,1.0631359999999999,33.49708333333333,106.22083328853333,13.086796875,62.92454076577393
1361618635.0,1.06676625,33.49791666666666,106.13333333333333,15.149713541666666,62.926525267829334
1361618635.25,1.0700762083333333,33.49875,106.04916670975999,16.593958333333333,62.92995607378726
1361618635.5,1.073279375,33.499583333333334,105.965,17.700833333333332,62.93553635140204
1361618635.75,1.0761622083333333,33.5,105.88083329023999,19.320598958333335,62.9431843925571
1361618636.0,1.0789382916666665,33.5,105.79666666666667,20.77359375,62.95025333903453
1361618636.25,1.0816075833333334,33.5,105.71250004309333,21.466875,62.95885285067285
1361618636.5,1.0825151249999998,33.5,105.62833333333333,21.284348958333332,62.96902536317589
1361618636.75,1.082515125,33.501250000000006,105.54416662357333,21.105182291666665,62.983587827935104
1361618637.0,1.0821414166666667,33.503750000000004,105.46,20.5925,62.9974869920167
1361618637.25,1.0816075416666666,33.50625,105.37416671061332,20.727682291666667,63.0107228554207
1361618637.5,1.0810202916666667,33.50875,105.28833333333333,21.87046875,63.0239587188247
1361618637.75,1.0802194999999999,33.51208333333334,105.20249995605334,21.59104166666667,63.03409144913104
1361618638.0,1.0793653333333333,33.51625000000001,105.11666666666667,19.089635416666667,63.037397286622536
1361618638.25,1.0786712916666665,33.52041666666667,105.04250003797334,16.520182291666668,63.039256820211506
1361618638.5,1.0778704583333332,33.52458333333333,104.96833333333333,14.298776041666665,63.03967004989794
1361618638.75,1.0771230416666666,33.52875,104.89416662869334,11.914921875,63.03967004989794
1361618639.0,1.076268875,33.532916666666665,104.82000000000001,9.317005208333333,63.03967004989794
1361618639.25,1.0752545833333333,33.537083333333335,104.76166669653334,7.434296875,63.03967004989794
1361618639.5,1.074080125,33.54125,104.70333333333333,6.239140625,63.04090701879548
1361618639.75,1.0727455,33.54416666666666,104.64499997013333,5.09625,63.04338095659056
1361618640.0,1.0713040833333334,33.54583333333333,104.58666666666666,4.425,63.04338095659057
1361618640.25,1.0699160416666667,33.54749999999999,104.54500002133332,3.0931510416666668,63.04338095659057
1361618640.5,1.0683678333333333,33.549166666666665,104.50333333333333,1.0865885416666667,63.04338095659057
1361618640.75,1.066873,33.55,104.46166664533334,-0.058515624999999995,63.04338095659057
1361618641.0,1.0653247916666666,33.55,104.42,-0.23791666666666667,63.04338095659056
1361618641.25,1.06372325,33.55,104.38083335338666,0.07867187499999999,63.04338095659056
1361618641.5,1.0620683333333334,33.55,104.34166666666667,0.16893229166666665,63.03879326358563
1361618641.75,1.06025325,33.55,104.30249997994667,0.10447916666666664,63.03284125657118
1361618642.0,1.05838475,33.55,104.26333333333334,-0.058307291666666705,63.026889249556746
1361618642.25,1.0563026666666666,33.55,104.22500001962666,-0.24195312500000007,63.02093724254231
1361618642.5,1.0539536666666667,33.55,104.18666666666667,-0.09132812500000005,63.01374826663033
1361618642.75,1.0514979166666667,33.55,104.14833331370667,0.07070312499999995,63.005322321820806
1361618643.0,1.0485617500000002,33.55,104.11,0.10325520833333328,62.99937031480636
1361618643.25,1.04509175,33.55,104.07500001791999,0.06338541666666661,62.98873985605314
1361618643.5,1.0415149583333334,33.55,104.03999999999999,-0.5625000000000001,62.97028281665988
1361618643.75,1.0378847916666667,33.55,104.00499998208,-1.3933333333333335,62.95580274762796
1361618644.0,1.0342012083333334,33.55,103.96999999999998,-2.558463541666667,62.94442838447153
1361618644.25,1.0305709583333333,33.55,103.93333335210666,-3.590234375,62.93102534479865
1361618644.5,1.0270475000000001,33.55,103.89666666666665,-4.677239583333333,62.92734438052261
1361618644.75,1.0236842083333333,33.55,103.85999998122665,-5.154453125,62.92535887733097
1361618645.0,1.0204277083333333,33.55,103.82333333333332,-5.19078125,62.92337337413932
1361618645.25,1.0174915416666666,33.55,103.78833335125333,-5.418515625,62.92138787094766
1361618645.5,1.0149824583333333,33.55,103.75333333333333,-6.5469010416666675,62.919402367756014
1361618645.75,1.012580125,33.55,103.71833331541333,-7.941145833333334,62.917416864564366
1361618646.0,1.0106048333333335,33.55,103.68333333333334,-8.702395833333332,62.91543136137272
1361618646.25,1.009056625,33.55,103.65833334613333,-8.550390625,62.918124309919854
1361618646.5,1.0075617916666666,33.55,103.63333333333333,-7.130390625,62.92864383910702
1361618646.75,1.0061203333333333,33.55,103.60833332053333,-5.553671875,62.935186397932846
1361618647.0,1.0047322916666668,33.55,103.58333333333333,-4.083619791666667,62.938623250883204
1361618647.25,1.0032375,33.55,103.60083332437333,-3.1070572916666666,62.94408878034999
1361618647.5,1.0015825416666666,33.55,103.61833333333333,-1.6389583333333333,62.94441992742486
1361618647.75,0.9997674166666667,33.55,103.63583334229332,-0.8083854166666669,62.94466811532382
1361618648.0,0.9977921250000001,33.55,103.65333333333332,-0.21166666666666678,62.94603314876807
1361618648.25,0.9958168333333334,33.55,103.72749996202666,0.6584635416666665,62.94801865195973
1361618648.5,0.9937347500000001,33.55,103.80166666666666,2.3377343749999997,62.95000415515138
1361618648.75,0.9916526666666666,33.55,103.87583337130667,4.185833333333333,62.95198965834303
1361618649.0,0.989624,33.55,103.95,5.083411458333333,62.95397516153468
1361618649.25,0.9877021250000001,33.55,104.04083328682667,5.420703125,62.95596066472633
1361618649.5,0.9859938333333332,33.55,104.13166666666666,4.923567708333333,62.95794616791798
1361618649.75,0.9842321666666667,33.55,104.22250004650667,4.621406250000001,62.96104767242483
1361618650.0,0.9823637083333333,33.55,104.31333333333333,4.50015625,62.963777176493295
1361618650.25,0.9806019999999999,33.55,104.38749996202667,4.776927083333333,62.965762679684936
1361618650.5,0.9788936666666667,33.55,104.46166666666667,4.868776041666666,62.96774818287659
1361618650.75,0.9772387083333335,33.55,104.53583337130667,5.032890625,62.95933407150634
1361618651.0,0.975530375,33.55,104.61,5.063854166666666,62.95713886651705
1361618651.25,0.973661875,33.55,104.63833331882667,4.9984375,62.95689067861809
1361618651.5,0.9715264583333333,33.55,104.66666666666666,4.759947916666667,62.95689067861809
1361618651.75,0.9695512083333334,33.55,104.69500001450665,4.462317708333334,62.94102059174207
1361618652.0,0.9676293333333335,33.55,104.72333333333331,4.8487760416666665,62.90205974943755
1361618652.25,0.9656540416666667,33.55,104.71083333973331,4.763098958333333,62.84549142606195
1361618652.5,0.9633584583333333,33.55,104.69833333333332,4.950078125,62.80557008178089
1361618652.75,0.9609027083333334,33.55083333333333,104.68583332693333,5.129375,62.741912324341314
1361618653.0,0.9586605,33.552499999999995,104.67333333333333,5.2335416666666665,62.69338931754465
1361618653.25,0.9565250833333333,33.55416666666667,104.62333335893334,5.221927083333333,62.659268020315835
1361618653.5,0.9545498333333332,33.55583333333333,104.57333333333334,4.694036458333334,62.63829237838929
1361618653.75,0.9528949166666666,33.5575,104.52333330773334,4.746588541666666,62.63303618639717
1361618654.0,0.9518272083333333,33.55916666666667,104.47333333333334,4.9438281250000005,62.619905003377475
1361618654.25,0.9510264166666667,33.560833333333335,104.40333336917334,4.225885416666666,62.603003415492374
1361618654.5,0.9508662499999999,33.5625,104.33333333333334,2.9152343749999994,62.58655875117169
1361618654.75,0.9506527083333333,33.564166666666665,104.26333329749335,1.7941145833333334,62.58469815371439
1361618655.0,0.9504925416666666,33.56583333333334,104.19333333333334,0.576171875,62.60659218009014
1361618655.25,0.9504391666666666,33.5675,104.12666670080002,0.7716145833333332,62.64891391287885
1361618655.5,0.9507594583333333,33.56916666666667,104.06,1.338984375,62.672224752070925
1361618655.75,0.9514534583333333,33.57,103.9933332992,2.273567708333333,62.72400265475817
1361618656.0,0.9520940833333333,33.57,103.92666666666668,2.2220052083333335,62.76085200315918
1361618656.25,0.9527347083333333,33.57,103.86416669866668,1.7169791666666667,62.78139024150488
1361618656.5,0.9533753333333334,33.57,103.80166666666668,1.45828125,62.7916020299943
1361618656.75,0.953695625,33.57,103.73916663466666,0.27171874999999995,62.796411599293954
1361618657.0,0.9534820833333333,33.57,103.67666666666666,-0.6062760416666668,62.804038915358966
1361618657.25,0.952894875,33.57,103.6183333632,0.5676562499999999,62.816222394091916
1361618657.5,0.9517204166666667,33.57,103.56,2.7492708333333336,62.82877540845999
1361618657.75,0.9505459166666667,33.57,103.5016666368,4.742630208333334,62.85307755452248
1361618658.0,0.9492646666666666,33.57,103.44333333333333,5.904635416666667,62.88129849511112
1361618658.25,0.9478766666666667,33.57,103.38833336149332,4.8528125,62.90294235735336
1361618658.5,0.946381875,33.57,103.33333333333331,3.2114322916666667,62.92992290981766
1361618658.75,0.9448336666666668,33.57,103.27833330517332,0.616979166666667,62.95270734157493
1361618659.0,0.9431252916666666,33.57,103.22333333333331,-1.5078906249999997,62.97751454117159
1361618659.25,0.9412033750000001,33.57,103.16583336277333,-2.024817708333333,63.00509886206947
1361618659.5,0.9391747083333333,33.57,103.10833333333332,-1.9500520833333328,63.02986397752134
1361618659.75,0.9373062083333332,33.57,103.05083330389333,-0.9225520833333328,63.0544632888915
1361618660.0,0.935597875,33.57,102.99333333333334,-0.5574739583333329,63.076660372660704
1361618660.25,0.9340497083333333,33.57,102.93416669696,-1.8616666666666664,63.094513519906684
1361618660.5,0.9327150833333334,33.57,102.875,-4.231328125,63.109018294712804
1361618660.75,0.9311669166666667,33.57,102.81583330304,-6.274401041666667,63.09449829596709
1361618661.0,0.9295119583333333,33.57,102.75666666666666,-6.937317708333333,63.07340850003653
1361618661.25,0.9278035833333335,33.57,102.69833336319999,-6.314218749999999,63.0554131790258
1361618661.5,0.9259350833333332,33.57,102.63999999999999,-5.5921354166666655,63.037504531224215
1361618661.75,0.9240132499999999,33.57,102.5816666368,-4.489505208333333,63.01488590354868
1361618662.0,0.9221447916666667,33.57,102.52333333333333,-2.5655729166666665,62.99049318791155
1361618662.25,0.9201695416666666,33.57,102.47250002602667,-1.7848958333333333,62.971893922589736
1361618662.5,0.9178205833333334,33.57,102.42166666666665,-1.3375260416666668,62.96041248243673
1361618662.75,0.9151513333333333,33.57,102.37083330730665,-1.3862499999999998,62.952363227436415
1361618663.0,0.9125354583333333,33.57,102.32,-1.022890625,62.944437692373036
1361618663.25,0.9099195416666666,33.57,102.27083335850666,-0.27096354166666664,62.93750284919259
1361618663.5,0.907196875,33.57,102.22166666666666,1.1246875,62.93284173135353
1361618663.75,0.904634375,33.57,102.17249997482666,2.411432291666667,62.94674227538451
1361618664.0,0.902232,33.57,102.12333333333333,3.431380208333333,62.96262995366964
1361618664.25,0.8999897916666666,33.57,102.07166669312001,4.468411458333333,62.97918001003947
1361618664.5,0.89790775,33.57,102.02000000000001,5.406953125,62.992670617480165
1361618664.75,0.8958790833333333,33.57,101.96833330688,6.3085677083333325,63.009220673849995
1361618665.0,0.8940105833333334,33.57,101.91666666666667,6.852786458333333,63.02568785442375
1361618665.25,0.8924624166666667,33.57,101.85916669610667,8.336380208333333,63.03623786474525
1361618665.5,0.8913947083333333,33.57,101.80166666666668,10.216770833333333,63.03967004989794
1361618665.75,0.8907540416666667,33.57083333333333,101.74416663722667,11.525130208333332,63.03967004989794
1361618666.0,0.8900066249999999,33.5725,101.68666666666667,12.013671875,63.03995909243696
1361618666.25,0.8894193750000001,33.57416666666667,101.61583336960001,12.955260416666667,63.05986295919144
1361618666.5,0.8891524166666667,33.575833333333335,101.54500000000002,13.90859375,63.10674655322666
1361618666.75,0.8891524166666667,33.57750000000001,101.4741666304,14.709062500000002,63.163854537547486
1361618667.0,0.889366,33.579166666666666,101.40333333333335,15.105338541666669,63.24001314016076
1361618667.25,0.8897397083333334,33.58083333333334,101.33833336661334,15.993723958333334,63.31922661537373
1361618667.5,0.8904337083333332,33.5825,101.27333333333334,16.721276041666666,63.40206018780646
1361618667.75,0.8917683333333334,33.583333333333336,101.20833330005334,17.876380208333334,63.49342751444905
1361618668.0,0.8939037500000001,33.583333333333336,101.14333333333333,19.496276041666665,63.591530911482096
1361618668.25,0.8965196249999999,33.583333333333336,101.08416669696,20.15515625,63.69336423354804
1361618668.5,0.8992422916666666,33.583333333333336,101.025,19.991562499999997,63.79734481694074
1361618668.75,0.901965,33.5825,100.96583330304001,20.801119791666668,63.901892280965775
1361618669.0,0.9049012083333334,33.58083333333334,100.90666666666668,22.35341145833333,64.00582693581596
1361618669.25,0.9080509583333333,33.579166666666666,100.85833335808,23.9815625,64.09265710924427
1361618669.5,0.911254125,33.5775,100.81,26.034895833333334,64.15145485828101
1361618669.75,0.914297125,33.57583333333333,100.76166664192,27.79515625,64.20387354138323
1361618670.0,0.9172333333333333,33.57416666666666,100.71333333333332,28.500625,64.24100428798512
1361618670.25,0.92054325,33.5725,100.66750002346666,27.618072916666666,64.27305782502546
1361618670.5,0.9241735000000001,33.57083333333333,100.62166666666666,26.75528645833333,64.30690819197642
1361618670.75,0.9275368333333333,33.57,100.57583330986665,25.901041666666668,64.32915380563215
1361618671.0,0.9303662916666666,33.57,100.52999999999999,24.655182291666666,64.34458177941873
1361618671.25,0.9327152916666667,33.57,100.47666669397333,22.494531249999998,64.36763114170857
1361618671.5,0.9349575,33.57,100.42333333333333,19.228463541666667,64.38905790852601
1361618671.75,0.9370929166666667,33.57,100.36999997269334,14.593151041666667,64.41576416186129
1361618672.0,0.9391215833333333,33.57,100.31666666666668,10.008489583333334,64.44690391845792
1361618672.25,0.9409900833333333,33.57,100.26083336192,5.310755208333334,64.4748083021119
1361618672.5,0.9428051666666666,33.57,100.20500000000001,0.9925520833333338,64.50163066556729
1361618672.75,0.9447270416666665,33.57,100.14916663808002,-0.5186458333333328,64.5246077046716
1361618673.0,0.9467023333333332,33.57,100.09333333333335,-0.2233593749999995,64.54309638529679
1361618673.25,0.9482505416666666,33.57,100.02500003498668,1.203723958333334,64.56251888785339
1361618673.5,0.9492648749999999,33.57,99.95666666666668,2.8487239583333337,64.57253324150118
1361618673.75,0.949958875,33.57,99.88833329834668,3.6037239583333336,64.58561859423436
1361618674.0,0.9503859583333334,33.57,99.82000000000001,3.677578125,64.59878551644624
1361618674.25,0.9511333333333333,33.57,99.75250003456,5.089557291666668,64.60060112512195
1361618674.5,0.9521476249999999,33.57,99.685,8.022109375000001,64.6018920679433
1361618674.75,0.9532152916666666,33.57,99.61749996544,11.983463541666666,64.59733664361448
1361618675.0,0.954443125,33.57,99.55,15.386432291666665,64.58867148266015
1361618675.25,0.955724375,33.57,99.47916670293333,18.218567708333335,64.58073135185487
1361618675.5,0.9568988749999999,33.57,99.40833333333333,19.777005208333332,64.57492593835902
1361618675.75,0.9579665833333334,33.57,99.33749996373334,18.818619791666666,64.56912052486317
1361618676.0,0.9589275,33.57,99.26666666666667,16.727994791666664,64.5640407880543
1361618676.25,0.9598350416666667,33.57,99.19166670506667,14.299479166666666,64.5600495662759
1361618676.5,0.9607425833333334,33.57,99.11666666666666,11.901484375,64.5600495662759
1361618676.75,0.9616501250000001,33.57083333333333,99.04166662826665,9.901223958333333,64.5600495662759
1361618677.0,0.962450875,33.5725,98.96666666666665,8.791302083333333,64.5600495662759
1361618677.25,0.9627177916666668,33.57416666666666,98.89000003925332,7.023723958333334,64.5600495662759
1361618677.5,0.9625576666666666,33.57583333333333,98.81333333333333,5.379817708333333,64.5600495662759
1361618677.75,0.9622907916666666,33.5775,98.73666662741334,3.524921875,64.5600495662759
1361618678.0,0.96186375,33.57916666666667,98.66000000000001,2.3658072916666666,64.5600495662759
1361618678.25,0.9610095833333334,33.58083333333334,98.56583338154668,1.5119791666666667,64.5600495662759
1361618678.5,0.9595147916666668,33.5825,98.47166666666668,1.2584114583333335,64.5600495662759
1361618678.75,0.9576462916666667,33.58416666666667,98.37749995178667,1.1277864583333332,64.5600495662759
1361618679.0,0.95556425,33.58583333333334,98.28333333333335,1.2471614583333335,64.5600495662759
1361618679.25,0.9532686666666667,33.5875,98.17250005674667,1.4394270833333334,64.5600495662759
1361618679.5,0.9508129166666666,33.58916666666667,98.06166666666667,1.39125,64.5600495662759
1361618679.75,0.948036875,33.59,97.95083327658666,1.5602864583333333,64.5600495662759
1361618680.0,0.9451540833333333,33.59,97.83999999999999,1.4752083333333335,64.5600495662759
1361618680.25,0.9424314583333332,33.59,97.71750006271999,1.6706510416666667,64.56399105392111
1361618680.5,0.9398155833333334,33.59,97.59499999999998,1.701953125,64.59158146743765
1361618680.75,0.9370395416666666,33.59,97.47249993727998,1.966015625,64.59749369890547
1361618681.0,0.9340499583333334,33.59,97.34999999999998,1.8764062499999998,64.59749369890547
1361618681.25,0.9312739166666667,33.59,97.23333339306664,1.8725000000000003,64.59749369890547
1361618681.5,0.9289783333333332,33.59,97.11666666666666,1.6422916666666667,64.59749369890547
1361618681.75,0.9270564583333333,33.590833333333336,96.99999994026666,1.2838802083333334,64.59749369890547
1361618682.0,0.9250278333333334,33.5925,96.88333333333333,1.2092708333333333,64.59749369890547
1361618682.25,0.9229458333333334,33.59416666666667,96.7916667136,1.13890625,64.59749369890547
1361618682.5,0.9208638333333333,33.59583333333334,96.69999999999999,1.5757291666666668,64.60931816184113
1361618682.75,0.9189419583333334,33.597500000000004,96.6083332864,1.7215624999999999,64.62902560006721
1361618683.0,0.917233625,33.59916666666667,96.51666666666667,1.7381510416666668,64.66055750122896
1361618683.25,0.9154185,33.600833333333334,96.44333337088,2.4076302083333334,64.6881479147455
1361618683.5,0.9133897916666666,33.6025,96.37,2.6056770833333336,64.69208940239072
1361618683.75,0.9114144583333333,33.604166666666664,96.29666662912001,2.6173177083333337,64.71770907208463
1361618684.0,0.9095992916666668,33.60583333333333,96.22333333333334,3.134479166666667,64.74924097324639
1361618684.25,0.9077307499999999,33.6075,96.16500002986668,3.007057291666666,64.78077287440813
1361618684.5,0.9058088333333334,33.60916666666667,96.10666666666668,3.3951041666666666,64.81230477556988
1361618684.75,0.9037801666666668,33.61,96.04833330346668,3.781614583333333,64.84383667673163
1361618685.0,0.9019650416666667,33.61,95.99000000000001,3.571015625,64.87536857789338
1361618685.25,0.9004168333333333,33.61,95.92833336490668,4.021666666666667,64.90690047905512
1361618685.5,0.8989754166666667,33.61,95.86666666666667,4.049296875,64.92660791728123
1361618685.75,0.8976941666666666,33.61083333333333,95.80499996842667,4.673333333333333,64.93843238021688
1361618686.0,0.8964129166666667,33.612500000000004,95.74333333333334,5.631119791666667,64.93843238021688
1361618686.25,0.8952918333333333,33.61416666666667,95.68750002858667,5.831614583333334,64.93843238021688
1361618686.5,0.8944377083333334,33.615833333333335,95.63166666666666,6.456796875000001,64.93843238021688
1361618686.75,0.893903875,33.61666666666667,95.57583330474667,6.838307291666667,64.93843238021688
1361618687.0,0.8936903333333333,33.61666666666667,95.52,6.275130208333334,64.93843238021688
1361618687.25,0.8937437500000001,33.61666666666667,95.47583335594666,6.908307291666667,64.93843238021688
1361618687.5,0.8940640833333333,33.61666666666667,95.43166666666666,6.730286458333333,64.93843238021688
1361618687.75,0.894864875,33.6175,95.38749997738665,6.696979166666668,64.93843238021688
1361618688.0,0.8960927499999999,33.619166666666665,95.34333333333332,7.341119791666667,64.93843238021688
1361618688.25,0.897374,33.62083333333333,95.31166668287999,6.815546875,64.93843238021688
1361618688.5,0.8989755416666667,33.6225,95.27999999999999,6.782526041666666,64.92258574570967
1361618688.75,0.9008973750000001,33.623333333333335,95.24833331711999,6.259921875,64.88976290172657
1361618689.0,0.90303275,33.62333333333334,95.21666666666665,5.284947916666667,64.85694005774347
1361618689.25,0.9053817083333334,33.623333333333335,95.18916668074665,4.8828125,64.82411721376037
1361618689.5,0.9079975833333332,33.623333333333335,95.16166666666666,4.453697916666666,64.79129436977728
1361618689.75,0.9108269999999999,33.62416666666667,95.13416665258667,4.793125,64.75847152579418
1361618690.0,0.9136030416666667,33.62583333333333,95.10666666666667,5.775859375,64.72564868181108
1361618690.25,0.9162722916666667,33.627500000000005,95.08416667818666,5.9233593749999995,64.69282583782798
1361618690.5,0.9188881666666666,33.62916666666667,95.06166666666667,6.755598958333334,64.66000299384488
1361618690.75,0.9211303333333333,33.630833333333335,95.03916665514666,7.378359375,64.62718014986179
1361618691.0,0.9230521666666668,33.6325,95.01666666666665,7.67609375,64.59435730587869
1361618691.25,0.924920625,33.634166666666665,95.00416667306666,8.603307291666667,64.56153446189559
1361618691.5,0.9264687916666666,33.63583333333334,94.99166666666667,8.831015625000001,64.5445582524197
1361618691.75,0.9275899166666667,33.637499999999996,94.97916666026667,9.381145833333333,64.5445582524197
1361618692.0,0.92839075,33.63916666666666,94.96666666666668,10.193072916666667,64.5445582524197
1361618692.25,0.9288712083333333,33.64083333333333,94.96250000213334,10.308177083333334,64.5445582524197
1361618692.5,0.9289779583333334,33.6425,94.95833333333334,10.827005208333333,64.5445582524197
1361618692.75,0.9284975000000001,33.64416666666667,94.95416666453335,10.728151041666665,64.5445582524197
1361618693.0,0.9276433333333333,33.645833333333336,94.95,10.416041666666667,64.5445582524197
1361618693.25,0.9266824166666666,33.6475,94.95,10.576744791666668,64.5445582524197
1361618693.5,0.9255613333333335,33.649166666666666,94.95,10.140963541666666,64.5445582524197
1361618693.75,0.9243868333333333,33.65,94.95,9.905494791666667,64.54480030419872
1361618694.0,0.9231589583333334,33.65,94.95,9.812447916666667,64.54504235597771
1361618694.25,0.9217709583333332,33.65,94.95,9.404895833333333,64.54504235597771
1361618694.5,0.920062625,33.65,94.95,9.734765625,64.54504235597771
1361618694.75,0.9181940833333333,33.65,94.95,9.658151041666667,64.54504235597771
1361618695.0,0.9164322916666666,33.65,94.95,9.467812499999999,64.54544577560938
1361618695.25,0.9147772916666668,33.65,94.95,9.764088541666666,64.54673671843072
1361618695.5,0.9131757083333333,33.65,94.95,9.453307291666667,64.5756180747686
1361618695.75,0.9117342916666665,33.65,94.95,9.4109375,64.60844091875171
1361618696.0,0.9103996666666667,33.65,94.95,9.63453125,64.64126376273481
1361618696.25,0.9091717916666666,33.65,94.95249999872,9.296015625,64.66226214378224
1361618696.5,0.9081040833333333,33.65,94.955,9.519270833333332,64.68128978100708
1361618696.75,0.9071431666666667,33.65,94.95750000128,9.682838541666667,64.68233867204943
1361618697.0,0.906289,33.65,94.96,9.508307291666666,64.68338756309178
1361618697.25,0.90570175,33.65,94.96249999872,9.742265625,64.68467850591313
1361618697.5,0.9055949999999999,33.65,94.965,9.174453125,64.6858080808818
1361618697.75,0.9057552083333333,33.649166666666666,94.96750000128,8.844713541666666,64.68709902370314
1361618698.0,0.9059154166666668,33.6475,94.97000000000001,9.134479166666667,64.68798654689283
1361618698.25,0.9059688333333332,33.645833333333336,94.96833333418668,8.679817708333333,64.68798654689283
1361618698.5,0.9060222499999999,33.64416666666666,94.96666666666668,8.290807291666667,64.6603961333763
1361618698.75,0.9063425833333335,33.642500000000005,94.96499999914668,7.70375,64.62886423221455
1361618699.0,0.9067696666666666,33.64083333333334,94.96333333333335,6.676328125,64.5973323310528
1361618699.25,0.9073569166666666,33.63916666666667,94.95000000682668,6.3429166666666665,64.5776248928267
1361618699.5,0.9081043333333333,33.6375,94.93666666666668,5.562760416666667,64.55980751449688
1361618699.75,0.9087983749999999,33.63666666666666,94.92333332650668,4.617500000000001,64.55851657167554
1361618700.0,0.9095457916666666,33.63666666666666,94.91000000000001,4.315052083333333,64.5572256288542
1361618700.25,0.9103465833333333,33.63666666666667,94.88666667861334,3.453046875,64.55593468603284
1361618700.5,0.9117345833333333,33.63666666666666,94.86333333333334,3.507135416666667,64.55480511106417
1361618700.75,0.913176,33.6375,94.83999998805334,3.702239583333333,64.55351416824281
1361618701.0,0.9146174166666666,33.63916666666667,94.81666666666666,2.8916406250000004,64.55222322542147
1361618701.25,0.916272375,33.64083333333333,94.78750001493333,2.9762500000000003,64.55093228260012
1361618701.5,0.9179807083333333,33.642500000000005,94.75833333333333,3.4444270833333337,64.54964133977877
1361618701.75,0.9194755,33.64416666666667,94.72916665173332,4.197760416666667,64.54835039695742
1361618702.0,0.9209169166666666,33.645833333333336,94.69999999999999,5.29359375,64.54705945413608
1361618702.25,0.9221981666666667,33.6475,94.67166668117332,5.7167708333333325,64.54576851131472
1361618702.5,0.9232125,33.649166666666666,94.64333333333332,6.456041666666667,64.5445582524197
1361618702.75,0.9240666666666667,33.65,94.61499998549333,7.376666666666666,64.5445582524197
1361618703.0,0.9247073333333334,33.65,94.58666666666666,7.688229166666666,64.5445582524197
1361618703.25,0.9251344583333334,33.65,94.55750001493332,8.633671875,64.546932415874
1361618703.5,0.9248141666666667,33.65,94.52833333333332,8.890885416666666,64.57975525985708
1361618703.75,0.9243870416666667,33.65,94.49916665173332,8.890572916666667,64.61257810384018
1361618704.0,0.9239065416666667,33.65,94.46999999999998,9.709322916666666,64.64540094782328
1361618704.25,0.9232659166666667,33.65,94.4450000128,9.897265625000001,64.67822379180639
1361618704.5,0.9225719166666667,33.65,94.41999999999999,10.057109375000001,64.71104663578947
1361618704.75,0.9217711250000001,33.65,94.3949999872,10.297578125,64.74386947977257
1361618705.0,0.9207034166666667,33.65,94.37,10.414713541666666,64.77669232375567
1361618705.25,0.9191552500000001,33.65,94.3450000128,11.055598958333333,64.80951516773878
1361618705.5,0.9173401250000001,33.65,94.32,11.496953125,64.84233801172186
1361618705.75,0.9155784166666666,33.650416666666665,94.2949999872,11.759973958333333,64.87516085570496
1361618706.0,0.9138700416666666,33.65125,94.27,12.348411458333333,64.90798369968806
1361618706.25,0.912161625,33.65208333333333,94.24666667861332,12.692213541666668,64.93843238021688
1361618706.5,0.9104532499999999,33.65291666666666,94.22333333333333,13.293619791666666,64.93843238021688
1361618706.75,0.9087449166666666,33.653749999999995,94.19999998805334,14.11921875,64.93819172488618
1361618707.0,0.9069832083333332,33.65458333333333,94.17666666666666,14.5284375,64.93819172488618
1361618707.25,0.905168125,33.65541666666666,94.14916668074666,15.116328125,64.93819172488618
1361618707.5,0.9034064166666665,33.65625,94.12166666666667,15.34375,64.93292663292213
1361618707.75,0.9014311666666667,33.657083333333325,94.09416665258667,14.248932291666668,64.90324514791764
1361618708.0,0.899349125,33.657916666666665,94.06666666666666,12.977838541666666,64.87171324675589
1361618708.25,0.8972670833333333,33.65875,94.03500001621333,11.688046875,64.84018134559413
1361618708.5,0.8950782916666666,33.65958333333333,94.00333333333333,10.137473958333333,64.80864944443239
1361618708.75,0.8928894583333333,33.66,93.97166665045333,9.316692708333333,64.77711754327065
1361618709.0,0.890593875,33.66,93.94,7.973984375000001,64.74558564210889
1361618709.25,0.8881915833333333,33.66,93.90500001792,6.5542187499999995,64.71405374094714
1361618709.5,0.885735875,33.66,93.87,5.111276041666666,64.70617076565672
1361618709.75,0.8832267500000001,33.66,93.83499998207999,3.2332291666666664,64.70641142098741
1361618710.0,0.8807710000000001,33.66,93.8,1.5879947916666666,64.70641142098741
1361618710.25,0.87831525,33.66,93.77500001279999,0.21544270833333332,64.70641142098741
1361618710.5,0.8757527500000001,33.66,93.75,-0.29403645833333336,64.71167651295146
1361618710.75,0.8734037916666666,33.66,93.72499998720001,0.7555729166666666,64.74135799795594
1361618711.0,0.87132175,33.66,93.7,2.130234375,64.7728898991177
1361618711.25,0.8696667916666666,33.66,93.69416666965334,3.3681510416666662,64.80442180027946
1361618711.5,0.8683855416666666,33.66,93.68833333333333,4.851276041666667,64.8359537014412
1361618711.75,0.8671577083333334,33.66,93.68249999701334,5.804010416666666,64.86748560260294
1361618712.0,0.865929875,33.66,93.67666666666668,7.163489583333333,64.8990175037647
1361618712.25,0.864702,33.66,93.69083332608001,8.156666666666666,64.93054940492645
1361618712.5,0.8635809166666667,33.66,93.70500000000001,9.204609375,64.93843238021688
1361618712.75,0.8625666249999999,33.66083333333333,93.71916667392,10.590703125,64.93843238021688
1361618713.0,0.8615523333333334,33.662499999999994,93.73333333333333,11.552864583333333,64.93843238021688
1361618713.25,0.860538,33.66416666666667,93.75249999018666,12.653645833333334,64.93843238021688
1361618713.5,0.8595769999999999,33.66583333333333,93.77166666666668,12.8909375,64.93843238021688
1361618713.75,0.8587227916666667,33.6675,93.79083334314667,12.480312499999998,64.93843238021688
1361618714.0,0.857922,33.66916666666666,93.81,12.3759375,64.93843238021688
1361618714.25,0.8570678333333334,33.670833333333334,93.8224999936,11.838723958333333,64.93843238021688
1361618714.5,0.8563204166666667,33.6725,93.83500000000001,11.392291666666667,64.93843238021688
1361618714.75,0.8556797500000001,33.67416666666667,93.8475000064,11.129765625,64.93843238021688
1361618715.0,0.8551458750000002,33.67583333333333,93.86,10.781041666666667,64.93843238021688
1361618715.25,0.8547721666666668,33.6775,93.86249999872,11.154401041666667,64.93843238021688
1361618715.5,0.8543984583333334,33.67916666666667,93.865,11.094583333333333,64.93843238021688
1361618715.75,0.8539713750000001,33.68,93.86750000127999,10.723255208333333,64.93843238021688
1361618716.0,0.8535976666666666,33.68,93.86999999999999,10.995911458333332,64.93843238021688
1361618716.25,0.8532773750000001,33.68,93.86750000127999,10.70078125,64.93843238021688
1361618716.5,0.8530105,33.68,93.865,10.540755208333334,64.93843238021688
1361618716.75,0.8527970000000001,33.68,93.86249999872,10.835807291666667,64.93843238021688
1361618717.0,0.852636875,33.68,93.86,10.440989583333334,64.93843238021688
1361618717.25,0.852636875,33.68,93.84666667349333,10.46515625,64.93843238021688
1361618717.5,0.852636875,33.68,93.83333333333333,10.70921875,64.93843238021688
1361618717.75,0.852636875,33.68,93.81999999317333,10.383072916666666,64.93843238021688
1361618718.0,0.8529037916666665,33.68,93.80666666666666,10.281171875,64.93843238021688
1361618718.25,0.8531707083333333,33.68,93.79250000725332,10.04703125,64.93843238021688
1361618718.5,0.8534376249999999,33.68,93.77833333333334,9.988671875,64.93843238021688
1361618718.75,0.8537579166666668,33.68,93.76416665941333,10.54859375,64.93843238021688
1361618719.0,0.8540782083333333,33.68,93.75,10.396458333333333,64.93843238021688
1361618719.25,0.854451875,33.68,93.72916667733334,10.323229166666666,64.93843238021688
1361618719.5,0.8548255416666666,33.68,93.70833333333334,10.661744791666667,64.93843238021688
1361618719.75,0.8549856666666665,33.68,93.68749998933333,10.396927083333333,64.93843238021688
1361618720.0,0.8549856666666668,33.68,93.66666666666667,10.47140625,64.93843238021688
1361618720.25,0.8545052083333333,33.68,93.64416667818666,10.349791666666667,64.93843238021688
1361618720.5,0.8537044166666666,33.68,93.62166666666667,9.622786458333334,64.93843238021688
1361618720.75,0.8528502499999999,33.68,93.59916665514667,9.510078125000001,64.93843238021688
1361618721.0,0.8517291666666668,33.68,93.57666666666667,9.287604166666666,64.93843238021688
1361618721.25,0.8506080833333333,33.68,93.5433333504,8.580416666666666,64.93843238021688
1361618721.5,0.84938025,33.68,93.51,8.328802083333333,64.93843238021688
1361618721.75,0.8480990416666666,33.68,93.4766666496,7.697213541666667,64.93843238021688
1361618722.0,0.8468178333333333,33.68,93.44333333333334,7.290989583333334,64.93843238021688
1361618722.25,0.8455366249999999,33.68,93.40000002218667,7.353958333333334,64.93227809697005
1361618722.5,0.8442020000000001,33.68,93.35666666666667,6.780182291666667,64.9045199036219
1361618722.75,0.8430275416666667,33.68,93.31333331114666,6.5809114583333335,64.86846834622722
1361618723.0,0.8418530416666666,33.68,93.27,6.579505208333334,64.83241678883252
1361618723.25,0.841105625,33.68,93.22166669141333,6.704869791666667,64.76745144034122
1361618723.5,0.8405717916666667,33.68,93.17333333333333,7.42328125,64.69835555026468
1361618723.75,0.8399845833333334,33.68125,93.12499997525333,7.605208333333334,64.62925966018814
1361618724.0,0.839397375,33.68375,93.07666666666667,7.636822916666667,64.5601637701116
1361618724.25,0.83875675,33.68625,93.02583335936,8.148932291666666,64.49106788003506
1361618724.5,0.8381694583333333,33.68875,92.975,8.163828125,64.42197198995852
1361618724.75,0.8376355416666666,33.691250000000004,92.92416664064,8.220416666666667,64.35287609988198
1361618725.0,0.837101625,33.69375,92.87333333333333,8.361588541666666,64.28378020980544
1361618725.25,0.8365143333333332,33.69625,92.81833336149334,8.022552083333332,64.22083860297575
1361618725.5,0.8359270833333333,33.69875,92.76333333333335,7.947994791666666,64.17950090624734
1361618725.75,0.8352864583333334,33.70125,92.70833330517334,7.695416666666667,64.1464565735655
1361618726.0,0.8346458333333332,33.70375000000001,92.65333333333335,7.229817708333333,64.11341224088365
1361618726.25,0.8338450416666667,33.706250000000004,92.59916669440001,6.7996875,64.10928169929842
1361618726.5,0.8330976249999998,33.70875,92.54500000000002,6.019765625000001,64.10928169929842
1361618726.75,0.8322967916666667,33.70875,92.4908333056,5.664427083333333,64.10928169929842
1361618727.0,0.8313357916666666,33.70625,92.43666666666667,5.290208333333333,64.10928169929842
1361618727.25,0.8302146666666665,33.70375,92.38250002773333,4.717890625,64.10928169929842
1361618727.5,0.8290401666666667,33.70125,92.32833333333332,4.5759895833333335,64.10928169929842
1361618727.75,0.8277589166666667,33.69875,92.27416663893332,4.133958333333333,64.11572119167624
1361618728.0,0.8262641250000001,33.69625,92.21999999999998,4.389296875,64.1494921157459
1361618728.25,0.8246091666666667,33.69375,92.17083335850666,4.868645833333333,64.18382816645055
1361618728.5,0.8228474583333333,33.691250000000004,92.12166666666666,5.458776041666667,64.21816421715519
1361618728.75,0.8210323333333333,33.68875,92.07249997482666,6.28421875,64.25250026785984
1361618729.0,0.8192172083333333,33.686249999999994,92.02333333333333,6.533385416666667,64.28683631856448
1361618729.25,0.817402125,33.683749999999996,91.97750002346666,6.880963541666667,64.32117236926914
1361618729.5,0.8155870416666667,33.68125,91.93166666666666,7.650807291666666,64.35550841997377
1361618729.75,0.8138253333333333,33.68,91.88583330986665,7.7265625,64.38984447067843
1361618730.0,0.8122237499999999,33.68,91.83999999999999,8.334765625000001,64.42418052138306
1361618730.25,0.8107289583333334,33.68,91.79666668885332,8.949348958333333,64.4585165720877
1361618730.5,0.8091808333333333,33.68,91.75333333333333,8.921223958333334,64.49285262279234
1361618730.75,0.8076860833333334,33.68,91.70999997781334,9.760963541666667,64.52074918111917
1361618731.0,0.8062980833333332,33.68,91.66666666666667,9.662864583333334,64.52131430775415
1361618731.25,0.8049634583333334,33.68,91.62833335296,9.315651041666667,64.52131430775415
1361618731.5,0.8036822083333334,33.68,91.59,9.276875,64.52131430775415
1361618731.75,0.8024009583333332,33.68,91.55166664704001,9.054244791666667,64.52131430775415
1361618732.0,0.8012264583333334,33.68,91.51333333333334,9.660130208333333,64.52131430775415
1361618732.25,0.8001587083333334,33.68,91.47583335253334,9.804192708333334,64.52131430775415
1361618732.5,0.7990909583333333,33.68,91.43833333333333,9.182317708333333,64.52131430775415
1361618732.75,0.7979164583333334,33.68,91.40083331413334,9.578802083333333,64.52131430775415
1361618733.0,0.7965284583333334,33.68,91.36333333333334,9.329609375,64.52131430775415
1361618733.25,0.7950870833333333,33.68,91.33000001706668,8.917499999999999,64.52541863234494
1361618733.5,0.7937524583333332,33.68,91.29666666666668,9.410182291666667,64.55620106677587
1361618733.75,0.7922576666666666,33.68,91.26333331626667,8.907083333333334,64.58493133891139
1361618734.0,0.790656125,33.68,91.23,8.753854166666667,64.61366161104691
1361618734.25,0.7891613333333333,33.68,91.19916668245334,9.164375,64.64649620777323
1361618734.5,0.7876664999999999,33.68,91.16833333333334,8.695364583333333,64.67727864220414
1361618734.75,0.7861717083333334,33.68,91.13749998421333,8.590442708333333,64.71011323893046
1361618735.0,0.7846235833333332,33.68,91.10666666666667,8.57265625,64.74294783565678
1361618735.25,0.7830220416666668,33.68,91.07833334784,8.834401041666666,64.77578243238308
1361618735.5,0.7814204583333333,33.68,91.05000000000001,9.807213541666668,64.8086170291094
1361618735.75,0.7799790416666667,33.68,91.02166665216001,10.168697916666668,64.84145162583572
1361618736.0,0.7787511666666665,33.68,90.99333333333334,10.668411458333333,64.87428622256203
1361618736.25,0.7776300416666667,33.68,90.9641666816,11.4446875,64.90301649469755
1361618736.5,0.776402125,33.68,90.935,11.138489583333333,64.90506865699295
1361618736.75,0.775281,33.68125,90.9058333184,11.379817708333334,64.90917298158374
1361618737.0,0.7743199999999999,33.683749999999996,90.87666666666667,11.841640625000002,64.91327730617452
1361618737.25,0.7734124166666666,33.68625,90.8433333504,11.430130208333333,64.91327730617452
1361618737.5,0.7726650416666668,33.68875,90.81,11.870208333333332,64.91532946846992
1361618737.75,0.7719176249999999,33.691250000000004,90.7766666496,12.0565625,64.91532946846992
1361618738.0,0.77138375,33.69375,90.74333333333334,11.483723958333334,64.91532946846992
1361618738.25,0.770849875,33.69625,90.71166668288001,11.3646875,64.91532946846992
1361618738.5,0.7703160416666667,33.69875,90.68,10.956432291666667,64.91532946846992
1361618738.75,0.7697822083333333,33.70125,90.64833331712,10.314244791666667,64.91532946846992
1361618739.0,0.76930175,33.70375,90.61666666666667,10.250208333333335,64.91532946846992
1361618739.25,0.7688746666666666,33.706250000000004,90.58583334912001,10.133359375,64.91532946846992
1361618739.5,0.76860775,33.70875,90.555,10.705390625,64.91532946846992
1361618739.75,0.7684475833333334,33.71,90.52416665088,11.171197916666666,64.91532946846992
1361618740.0,0.7683408333333334,33.71,90.49333333333334,10.993932291666667,64.91532946846992
1361618740.25,0.7681273333333335,33.71,90.4641666816,11.473880208333334,64.91532946846992
1361618740.5,0.7677002499999999,33.71,90.435,11.664973958333334,64.91532946846992
1361618740.75,0.7672731666666667,33.70875,90.4058333184,11.474765625000002,64.91532946846992
1361618741.0,0.7666325416666667,33.70625,90.37666666666667,12.004869791666666,64.91532946846992
1361618741.25,0.7660453333333334,33.70375,90.34500001621333,12.057760416666667,64.91532946846992
1361618741.5,0.7654047083333334,33.70125,90.31333333333333,11.90375,64.91532946846992
1361618741.75,0.7646039166666667,33.69875,90.28166665045333,12.408489583333333,64.91532946846992
1361618742.0,0.76374975,33.69625,90.25,12.352447916666668,64.91532946846992
1361618742.25,0.7628955833333334,33.69375,90.21583335082667,12.101927083333335,64.91532946846992
1361618742.5,0.7619880416666667,33.691250000000004,90.18166666666667,11.915885416666667,64.91532946846992
1361618742.75,0.7609737499999999,33.690000000000005,90.14749998250667,11.922135416666668,64.91532946846992
1361618743.0,0.7599060833333334,33.69,90.11333333333334,12.349505208333333,64.91532946846992
1361618743.25,0.75889175,33.69,90.07750001834667,12.680260416666668,64.91532946846992
1361618743.5,0.7579307916666668,33.690000000000005,90.04166666666666,12.711875,64.91532946846992
1361618743.75,0.757076625,33.691250000000004,90.00583331498666,13.048411458333332,64.90748767949837
1361618744.0,0.7563292083333333,33.69375,89.96999999999998,12.914843750000001,64.87465308277207
1361618744.25,0.7556351666666666,33.69625,89.93500001791999,11.993411458333332,64.84181848604574
1361618744.5,0.7551012916666666,33.69875,89.89999999999999,11.418255208333333,64.80898388931944
1361618744.75,0.7546742083333333,33.70125,89.86499998208,10.652317708333333,64.77614929259312
1361618745.0,0.7541937500000001,33.70375,89.83,10.046041666666667,64.7433146958668
1361618745.25,0.7536599166666665,33.706250000000004,89.79916668245333,10.1425,64.71039936676407
1361618745.5,0.7530727083333334,33.70875,89.76833333333333,10.093593749999998,64.67514233286923
1361618745.75,0.7525922500000001,33.71,89.73749998421333,9.300625,64.63523947929964
1361618746.0,0.7521651666666666,33.71,89.70666666666666,8.775182291666667,64.5883395923298
1361618746.25,0.7516847083333333,33.71,89.68000001365333,8.175546875,64.53642041730329
1361618746.5,0.7513110416666667,33.71,89.65333333333334,7.3387239583333335,64.48259726682896
1361618746.75,0.7505636666666667,33.71,89.62666665301334,6.905364583333333,64.4339811599273
1361618747.0,0.7493892083333334,33.71,89.60000000000001,6.592604166666667,64.40760051904034
1361618747.25,0.7478944166666667,33.71,89.57333334698667,7.3882031249999995,64.37525361260792
1361618747.5,0.7461860833333334,33.71,89.54666666666668,8.393619791666667,64.33396688478489
1361618747.75,0.74447775,33.71,89.51999998634668,9.013932291666668,64.29215135191643
1361618748.0,0.742716,33.71,89.49333333333334,9.12,64.2408476154818
1361618748.25,0.7407940833333333,33.71,89.46666668032,8.2659375,64.17918289348138
1361618748.5,0.7389789166666666,33.71,89.44,7.266901041666667,64.11094990087977
1361618748.75,0.7371637500000001,33.71083333333333,89.41333331967999,7.222734374999999,64.03241400080762
1361618749.0,0.7353485833333334,33.7125,89.38666666666666,6.3711197916666675,63.9490101091821
1361618749.25,0.7336402083333334,33.714166666666664,89.36166667946667,5.259088541666666,63.85786372666002
1361618749.5,0.7319318333333333,33.715833333333336,89.33666666666667,5.278072916666667,63.76614800293751
1361618749.75,0.7308107083333334,33.717499999999994,89.31166665386667,4.463385416666666,63.65528992316521
1361618750.0,0.7331596666666668,33.719166666666666,89.28666666666668,2.99078125,63.53082175446222
1361618750.25,0.7403133333333334,33.72083333333333,89.26750000981333,0.6334114583333332,63.39168050803994
1361618750.5,0.7476271666666667,33.7225,89.24833333333333,-2.1487239583333335,63.250713063537624
1361618750.75,0.7549943750000002,33.723333333333336,89.22916665685334,-4.870520833333333,63.10588710463168
1361618751.0,0.76252175,33.72333333333333,89.21,-6.107395833333334,62.98169699491694
1361618751.25,0.7712235833333333,33.72333333333333,89.19500000768,-7.568437500000001,62.88174207255998
1361618751.5,0.7802457500000001,33.723333333333336,89.18,-9.722838541666667,62.79627008334709
1361618751.75,0.7898017916666666,33.7225,89.16499999232002,-11.523932291666668,62.74019486270248
1361618752.0,0.7993578333333334,33.72083333333333,89.15000000000002,-12.419218749999999,62.697643507421326
1361618752.25,0.808913875,33.719166666666666,89.13500000768,-12.678203125000001,62.66951132127888
1361618752.5,0.8184699166666668,33.717499999999994,89.12,-13.580651041666668,62.644846709642614
1361618752.75,0.82765225,33.715833333333336,89.10499999232,-13.914036458333333,62.64195919945501
1361618753.0,0.8336314166666666,33.714166666666664,89.08999999999999,-12.900911458333335,62.65643293777544
1361618753.25,0.8349126666666667,33.7125,89.07333334186666,-10.660416666666666,62.69680264240257
1361618753.5,0.8361939166666668,33.71083333333333,89.05666666666666,-8.792499999999999,62.7466967058518
1361618753.75,0.8374751666666667,33.71,89.03999999146666,-6.381067708333333,62.803088469762166
1361618754.0,0.8387564166666667,33.71,89.02333333333333,-4.7859895833333335,62.845849643030455
1361618754.25,0.8392369166666668,33.71,89.00416667648,-2.451927083333333,62.87427933471201
1361618754.5,0.83955725,33.71,88.985,1.408359375,62.89804664481891
1361618754.75,0.8393437083333334,33.71,88.96583332352,4.498255208333333,62.90533764531182
1361618755.0,0.8391301666666666,33.71,88.94666666666667,7.246041666666667,62.90873442136516
1361618755.25,0.8387564583333335,33.71,88.92583334400001,9.5846875,62.91345431927268
1361618755.5,0.8383293749999999,33.71,88.905,11.312265625,62.922351555586395
1361618755.75,0.8379022916666666,33.71,88.884166656,13.005104166666667,62.93282022100188
1361618756.0,0.8375285833333334,33.71,88.86333333333334,14.145546875,62.940971702235224
1361618756.25,0.8372616666666667,33.71,88.83833334613334,14.174036458333333,62.93509382536097
1361618756.5,0.83699475,33.71,88.81333333333333,14.841171875,62.93538305402081
1361618756.75,0.8367278333333333,33.71,88.78833332053334,15.271328124999998,62.93393446567353
1361618757.0,0.8357135416666667,33.71,88.76333333333334,14.804453125000002,62.937947641989346
1361618757.25,0.833578125,33.71,88.7341666816,14.636510416666667,62.94245763267333
1361618757.5,0.830535125,33.71,88.705,13.442604166666667,62.946057047181206
1361618757.75,0.8270116666666666,33.71,88.6758333184,12.054244791666667,62.95168472988008
1361618758.0,0.8230611250000001,33.71,88.64666666666666,11.119114583333335,62.95954779660871
1361618758.25,0.818630125,33.71,88.61750001493333,9.785078125,62.96443035129766
1361618758.5,0.8139855833333334,33.71,88.58833333333334,9.403515625,62.964141309722486
1361618758.75,0.8093944166666667,33.71,88.55916665173335,9.05265625,62.96228083904554
1361618759.0,0.8049100416666667,33.71,88.53000000000002,8.362890625,62.96174373471345
1361618759.25,0.80037225,33.71,88.50250001408001,8.477890625,62.99997781387128
1361618759.5,0.7957277083333333,33.71,88.47500000000001,8.438854166666667,63.040209167010694
1361618759.75,0.7909764166666666,33.71,88.44749998592,8.140729166666667,63.08006795614514
1361618760.0,0.7869191249999999,33.71,88.42,8.741223958333334,63.116947925633546
1361618760.25,0.783769375,33.71,88.39750001152,8.785989583333334,63.153869092924914
1361618760.5,0.7811535,33.71,88.375,9.148385416666667,63.190790260216296
1361618760.75,0.7786977916666666,33.71,88.35249998848,9.829348958333332,63.22771142750767
1361618761.0,0.7764022083333333,33.71,88.33,9.693125,63.26463259479905
1361618761.25,0.7743735416666667,33.71,88.31333334186667,10.21453125,63.30155376209043
1361618761.5,0.772344875,33.71,88.29666666666665,10.384479166666667,63.33847492938182
1361618761.75,0.77031625,33.71,88.27999999146665,10.319088541666668,63.3753960966732
1361618762.0,0.7679139166666666,33.71,88.26333333333332,10.68515625,63.412317263964574
1361618762.25,0.7654047916666666,33.71,88.25083333973332,10.675234375,63.419239982831705
1361618762.5,0.7628422499999999,33.71,88.23833333333332,10.678046875,63.41373219680434
1361618762.75,0.7602262916666667,33.71,88.22583332693333,10.92296875,63.40218083004576
1361618763.0,0.7576637083333334,33.71,88.21333333333332,10.811536458333334,63.40041252820603
1361618763.25,0.7551011666666666,33.71,88.20500000426665,11.039296875,63.4023831714907
1361618763.5,0.7526454166666666,33.71,88.19666666666666,11.526171875000001,63.404353814775355
1361618763.75,0.7504032083333333,33.71083333333333,88.18833332906667,11.865052083333332,63.40632445806002
1361618764.0,0.7483211666666668,33.7125,88.17999999999999,12.920598958333334,63.40829510134467
1361618764.25,0.7465594166666666,33.71416666666667,88.17250000384,13.477447916666668,63.410265744629335
1361618764.5,0.7450112083333332,33.71583333333333,88.165,13.779765624999998,63.41223638791399
1361618764.75,0.743516375,33.7175,88.15749999616001,14.382369791666667,63.414207031198636
1361618765.0,0.7421817083333333,33.719166666666666,88.15000000000002,14.71265625,63.4161776744833
1361618765.25,0.7408470833333333,33.72083333333333,88.14416666965334,14.917630208333334,63.41814831776796
1361618765.5,0.7394590833333333,33.722500000000004,88.13833333333335,15.379869791666666,63.42562674707998
1361618765.75,0.7378575416666667,33.72416666666666,88.13249999701334,15.434140625,63.43914875712323
1361618766.0,0.7360424583333334,33.725833333333334,88.12666666666667,15.623645833333333,63.4428877022476
1361618766.25,0.7340672083333333,33.7275,88.12083333632,15.94203125,63.4428877022476
1361618766.5,0.7319851666666667,33.729166666666664,88.11500000000001,15.608463541666666,63.4428877022476
1361618766.75,0.729903125,33.73,88.10916666368,15.478072916666667,63.4428877022476
1361618767.0,0.7278211250000001,33.73,88.10333333333334,15.114505208333334,63.4428877022476
1361618767.25,0.725632375,33.73,88.09666667008,14.612265625,63.4428877022476
1361618767.5,0.7232834583333334,33.73,88.09,14.665520833333334,63.4428877022476
1361618767.75,0.7209345416666667,33.73083333333333,88.08333332992001,14.230807291666666,63.4428877022476
1361618768.0,0.7187991666666665,33.732499999999995,88.07666666666667,13.680546875,63.4428877022476
1361618768.25,0.7168772916666667,33.73416666666666,88.07000000341333,13.574817708333333,63.4428877022476
1361618768.5,0.7150087916666666,33.735833333333325,88.06333333333333,12.951067708333333,63.4428877022476
1361618768.75,0.713353875,33.73583333333333,88.05666666325334,12.660416666666665,63.4428877022476
1361618769.0,0.711859125,33.73416666666667,88.05,12.58328125,63.4428877022476
1361618769.25,0.7105245,33.732499999999995,88.04333333674666,11.864765624999999,63.4428877022476
1361618769.5,0.7092432500000001,33.73083333333333,88.03666666666666,11.738046875,63.4428877022476
1361618769.75,0.707908625,33.73083333333333,88.02999999658667,11.576822916666666,63.4428877022476
1361618770.0,0.7066273750000001,33.732499999999995,88.02333333333333,10.931041666666665,63.4428877022476
1361618770.25,0.7055062916666667,33.73416666666667,88.00500000938666,10.984609375,63.4428877022476
1361618770.5,0.70459875,33.73583333333333,87.98666666666666,10.768359374999998,63.4428877022476
1361618770.75,0.7037445833333332,33.73583333333334,87.96833332394667,10.756458333333335,63.4428877022476
1361618771.0,0.7028904166666666,33.734166666666674,87.95,11.003229166666666,63.4428877022476
1361618771.25,0.7020896666666667,33.7325,87.92083334826667,10.233046875,63.4428877022476
1361618771.5,0.7014490833333333,33.73083333333333,87.89166666666667,9.981250000000001,63.44276453704231
1361618771.75,0.701022,33.73083333333333,87.86249998506666,10.460598958333334,63.44005393592116
1361618772.0,0.7006482916666666,33.732499999999995,87.83333333333333,9.931927083333333,63.42595586483677
1361618772.25,0.7005415416666666,33.73416666666667,87.79166668799999,10.185052083333334,63.41148737636053
1361618772.5,0.7008085,33.73583333333333,87.75,10.048333333333334,63.39701888788429
1361618772.75,0.7013423333333333,33.73583333333333,87.70833331200001,9.355546875,63.382550399408046
1361618773.0,0.7019829166666667,33.73416666666666,87.66666666666667,9.416744791666668,63.358975859846566
1361618773.25,0.7027302916666667,33.732499999999995,87.62500002133334,8.871875000000001,63.3351550363869
1361618773.5,0.7035844583333333,33.73083333333333,87.58333333333334,8.434869791666667,63.309644049997985
1361618773.75,0.7044386249999999,33.73,87.54166664533334,8.192109375,63.2838443630586
1361618774.0,0.7056664583333333,33.73,87.5,8.107916666666666,63.25750842190018
1361618774.25,0.7076416666666666,33.73,87.46750001664,8.949479166666666,63.231172480741755
1361618774.5,0.7104710416666666,33.73,87.435,9.439348958333333,63.20495970478862
1361618774.75,0.7144215416666667,33.73083333333333,87.40249998336,9.098645833333332,63.18133436475134
1361618775.0,0.7187991666666665,33.732499999999995,87.37,9.375416666666666,63.169550248247255
1361618775.25,0.72296325,33.73416666666666,87.34916667733334,9.173411458333334,63.15834280075773
1361618775.5,0.7269137916666667,33.73583333333333,87.32833333333335,9.196614583333334,63.14676410034733
1361618775.75,0.7307575833333333,33.736666666666665,87.30749998933334,9.65234375,63.137989646186135
1361618776.0,0.7345479999999999,33.736666666666665,87.28666666666668,9.765520833333333,63.13852744301156
1361618776.25,0.7382316250000001,33.736666666666665,87.28000000341333,10.145703124999999,63.13931152373519
1361618776.5,0.7417016666666667,33.736666666666665,87.27333333333334,10.315598958333334,63.14054856797966
1361618776.75,0.7451717083333333,33.7375,87.26666666325333,10.507994791666667,63.14001231376063
1361618777.0,0.7480545416666665,33.73916666666666,87.25999999999999,10.227708333333334,63.14001231376063
1361618777.25,0.7501365833333334,33.74083333333333,87.26583333034667,10.096302083333333,63.14001231376062
1361618777.5,0.7513644583333333,33.7425,87.27166666666668,10.203958333333333,63.14001231376062
1361618777.75,0.7512576666666666,33.74333333333333,87.27750000298667,10.037734375000001,63.14001231376062
1361618778.0,0.750670375,33.74333333333333,87.28333333333335,10.481588541666667,63.139558560190686
1361618778.25,0.7499229166666667,33.74333333333333,87.29416666112002,11.008541666666666,63.13889855499803
1361618778.5,0.7491220833333333,33.74333333333333,87.305,11.459453125000001,63.13860980272623
1361618778.75,0.74832125,33.744166666666665,87.31583333888,12.192395833333334,63.13551680420525
1361618779.0,0.7475204166666667,33.74583333333333,87.32666666666667,12.242291666666668,63.13221760578288
1361618779.25,0.7467195833333333,33.747499999999995,87.34583332352,12.708776041666667,63.128918407360494
1361618779.5,0.7460255416666667,33.74916666666666,87.365,13.298723958333333,63.12685640834652
1361618779.75,0.745278125,33.75,87.38416667647999,13.455859375000001,63.12685640834652
1361618780.0,0.744690875,33.75,87.40333333333332,14.459479166666666,63.12685640834652
1361618780.25,0.7441570416666666,33.75,87.42249999018667,14.849765624999998,63.12685640834652
1361618780.5,0.7436232083333333,33.75,87.44166666666666,14.796979166666667,63.12685640834652
1361618780.75,0.7432495416666667,33.75,87.46083334314666,15.427864583333333,63.12685640834652
1361618781.0,0.7427690833333332,33.75,87.48,14.98671875,63.12685640834652
1361618781.25,0.7424487916666668,33.75,87.50416665429334,14.530026041666666,63.12685640834652
1361618781.5,0.7419149583333334,33.75,87.52833333333334,14.284999999999998,63.12685640834652
1361618781.75,0.7412209583333333,33.75,87.55250001237333,13.41015625,63.12685640834652
1361618782.0,0.7404201666666667,33.75,87.57666666666667,13.434973958333336,63.12685640834652
1361618782.25,0.7394592499999999,33.75,87.59749998933334,12.986041666666667,63.12685640834652
1361618782.5,0.7384983333333333,33.75,87.61833333333334,12.252213541666668,63.12685640834652
1361618782.75,0.7374840416666667,33.75,87.63916667733334,12.165208333333334,63.12685640834652
1361618783.0,0.7365231250000001,33.75,87.66000000000001,11.185963541666668,63.12685640834652
1361618783.25,0.7355622083333334,33.75,87.67666665813334,10.540390625,63.12685640834652
1361618783.5,0.7346012916666665,33.75,87.69333333333334,10.446484375,63.12685640834652
1361618783.75,0.7336403749999999,33.75,87.71000000853334,9.834166666666667,63.12685640834652
1361618784.0,0.7327862083333333,33.75,87.72666666666667,10.308567708333333,63.12685640834652
1361618784.25,0.7318786666666667,33.75,87.73916666026668,10.716666666666667,63.12685640834652
1361618784.5,0.7312380416666667,33.75,87.75166666666667,10.755234375,63.12685640834652
1361618784.75,0.7307575833333333,33.75,87.76416667306665,11.094322916666668,63.12685640834652
1361618785.0,0.7303839166666667,33.75,87.77666666666666,10.762421875,63.12685640834652
1361618785.25,0.7300102083333334,33.75,87.78416666282666,10.728958333333333,63.12685640834652
1361618785.5,0.7293695833333333,33.75,87.79166666666666,10.883177083333335,63.12685640834652
1361618785.75,0.728408625,33.75,87.79916667050665,10.553932291666667,63.12685640834652
1361618786.0,0.72718075,33.75,87.80666666666666,10.924635416666668,63.131431300778786
1361618786.25,0.7257927083333334,33.75,87.81083333119999,10.892786458333333,63.14395727326871
1361618786.5,0.7241377083333332,33.75,87.815,10.690052083333333,63.156483245758615
1361618786.75,0.7222691666666666,33.75,87.8191666688,10.982317708333333,63.16900921824853
1361618787.0,0.7203472916666667,33.75,87.82333333333332,10.350052083333333,63.18153519073845
1361618787.25,0.7184254166666667,33.75,87.82416666623999,10.15390625,63.19406116322836
1361618787.5,0.71629,33.75,87.82499999999999,10.010937499999999,63.20658713571828
1361618787.75,0.7139410416666667,33.75,87.82583333376,10.090885416666667,63.219113108208184
1361618788.0,0.7115387083333333,33.75,87.82666666666667,10.666145833333333,63.2316390806981
1361618788.25,0.7091897500000001,33.75,87.82749999957333,10.728515625,63.24416505318803
1361618788.5,0.7070009166666668,33.75,87.82833333333333,11.011614583333333,63.256691025677945
1361618788.75,0.7051857916666666,33.75,87.82916666709333,11.476848958333335,63.269216998167856
1361618789.0,0.7035308333333333,33.75,87.83,11.306380208333332,63.2771680782255
1361618789.25,0.7019292916666666,33.75,87.83,11.794765624999998,63.2771680782255
1361618789.5,0.7005412916666667,33.75,87.83,12.065833333333332,63.2771680782255
1361618789.75,0.6993668333333334,33.75,87.83,11.892421874999998,63.2771680782255
1361618790.0,0.698299125,33.75,87.83,12.44234375,63.2771680782255
1361618790.25,0.697231375,33.75,87.83,12.343307291666667,63.2771680782255
1361618790.5,0.6963237916666666,33.75,87.83,12.49390625,63.2771680782255
1361618790.75,0.6955763749999999,33.75,87.83,12.602630208333332,63.2771680782255
1361618791.0,0.6948289583333334,33.75,87.83,12.340729166666664,63.2771680782255
1361618791.25,0.6941349583333333,33.75,87.83,12.753802083333333,63.2771680782255
1361618791.5,0.6934943749999999,33.75,87.83,12.76046875,63.2771680782255
1361618791.75,0.6928537916666667,33.75,87.83,12.559114583333335,63.2771680782255
1361618792.0,0.6923199583333334,33.75,87.83,12.934973958333332,63.2771680782255
1361618792.25,0.6918394583333333,33.75,87.82916666709333,12.711093750000002,63.2771680782255
1361618792.5,0.6913589583333334,33.75,87.82833333333333,12.718567708333333,63.2771680782255
1361618792.75,0.6907183333333333,33.75,87.82749999957333,13.094348958333335,63.2771680782255
1361618793.0,0.6898641666666667,33.75,87.82666666666667,12.793229166666668,63.2771680782255
1361618793.25,0.68901,33.75,87.82583333376,13.028411458333336,63.2771680782255
1361618793.5,0.6881558333333334,33.75,87.825,13.225703125,63.2771680782255
1361618793.75,0.6872482916666667,33.75,87.82416666624,12.944713541666667,63.2771680782255
1361618794.0,0.6863407499999999,33.75,87.82333333333334,13.187916666666668,63.2771680782255
1361618794.25,0.6854865833333333,33.75,87.82083333461334,13.12171875,63.2771680782255
1361618794.5,0.6846857916666665,33.75,87.81833333333333,13.180468750000001,63.2771680782255
1361618794.75,0.6838315833333333,33.75,87.81583333205333,13.769921875,63.2771680782255
1361618795.0,0.6828705833333334,33.75,87.81333333333333,13.792916666666668,63.2771680782255
1361618795.25,0.681909625,33.75,87.81000000170667,14.090729166666664,63.2771680782255
1361618795.5,0.6809487083333333,33.75,87.80666666666667,14.29390625,63.2771680782255
1361618795.75,0.6800945416666667,33.75,87.80333333162666,13.932890624999999,63.2771680782255
1361618796.0,0.6794005416666667,33.75,87.8,14.019088541666667,63.2771680782255
1361618796.25,0.6787599583333334,33.75,87.79666666837333,13.915182291666666,63.2771680782255
1361618796.5,0.67817275,33.75,87.79333333333334,13.569270833333333,63.2771680782255
1361618796.75,0.6776922916666667,33.75,87.78999999829334,13.705234374999998,63.2771680782255
1361618797.0,0.6773185833333333,33.75,87.78666666666668,13.562604166666667,63.276426774894354
1361618797.25,0.67699825,33.75,87.78416666794666,13.20703125,63.2672000008268
1361618797.5,0.6767313333333332,33.75,87.78166666666667,13.208932291666668,63.25797322675927
1361618797.75,0.6765712083333333,33.75,87.77916666538667,12.794661458333335,63.25591394671773
1361618798.0,0.676517875,33.75,87.77666666666666,12.455677083333333,63.25480222599473
1361618798.25,0.6765179166666666,33.75,87.77416666794666,12.306432291666667,63.24829418887137
1361618798.5,0.6765713333333333,33.75,87.77166666666666,11.833932291666668,63.246976212160995
1361618798.75,0.676678125,33.75083333333334,87.76916666538666,11.751979166666667,63.246976212160995
1361618799.0,0.6768382916666665,33.752500000000005,87.76666666666667,11.415208333333332,63.24771616999749
1361618799.25,0.6768382916666668,33.75416666666667,87.76166666922667,10.522473958333332,63.256595664035366
1361618799.5,0.676678125,33.755833333333335,87.75666666666666,10.160338541666667,63.26843498941921
1361618799.75,0.6762510416666667,33.7575,87.75166666410666,9.420911458333334,63.28027431480307
1361618800.0,0.6755570416666666,33.759166666666665,87.74666666666667,8.555286458333333,63.29285494351808
1361618800.25,0.6747028749999999,33.76083333333334,87.74083333632001,8.15578125,63.31392104296947
1361618800.5,0.6736884999999999,33.7625,87.73500000000001,7.157734375,63.33498714242086
1361618800.75,0.6725139583333334,33.764166666666675,87.72916666368,6.351979166666666,63.34888574784623
1361618801.0,0.6711792916666667,33.76583333333334,87.72333333333334,5.774505208333334,63.361836793953096
1361618801.25,0.669737875,33.767500000000005,87.7191666688,4.914791666666667,63.3801841564603
1361618801.5,0.6682964583333333,33.76916666666667,87.715,5.082838541666667,63.39334145855454
1361618801.75,0.6668550416666666,33.77,87.7108333312,5.159114583333333,63.405180783938384
1361618802.0,0.6653068333333333,33.77,87.70666666666666,5.836744791666668,63.41628015148574
1361618802.25,0.663812,33.77,87.70666666666666,7.091458333333333,63.419239982831705
1361618802.5,0.6624239583333333,33.77,87.70666666666666,7.708046875,63.419239982831705
1361618802.75,0.6612494583333334,33.77,87.70666666666666,8.7746875,63.421331867458896
1361618803.0,0.6601283333333333,33.77,87.70666666666666,9.758958333333334,63.43437295024906
1361618803.25,0.6589538333333333,33.77,87.71333332992,10.368177083333334,63.4481520623396
1361618803.5,0.657779375,33.77,87.72,11.671145833333332,63.461931174430134
1361618803.75,0.6566583333333333,33.76916666666667,87.72666667008001,12.401484375,63.47571028652067
1361618804.0,0.6556974166666666,33.767500000000005,87.73333333333335,13.272786458333334,63.489489398611205
1361618804.25,0.6547898333333333,33.76583333333334,87.74583332693335,14.439739583333335,63.50326851070175
1361618804.5,0.6537754583333334,33.76416666666667,87.75833333333335,14.374218749999999,63.51704762279227
1361618804.75,0.6524941666666666,33.7625,87.77083333973334,14.798333333333332,63.530826734882815
1361618805.0,0.651106125,33.76083333333333,87.78333333333335,14.801536458333333,63.54460584697335
1361618805.25,0.6498248750000001,33.759166666666665,87.80083332437334,14.317734375,63.55838495906388
1361618805.5,0.648543625,33.7575,87.81833333333334,14.486875,63.57216407115442
1361618805.75,0.6472623750000001,33.75666666666667,87.83583334229334,14.054583333333333,63.58385129861776
1361618806.0,0.6461412916666667,33.75666666666667,87.85333333333334,13.819895833333334,63.58458932791813
1361618806.25,0.645127,33.75666666666667,87.874166656,13.661875,63.58458932791813
1361618806.5,0.6441660833333333,33.75666666666667,87.89500000000001,12.772005208333335,63.58458932791813
1361618806.75,0.6432585,33.7575,87.915833344,12.561666666666667,63.58458932791813
1361618807.0,0.642244125,33.759166666666665,87.93666666666667,12.135651041666668,63.58458932791813
1361618807.25,0.6412297916666666,33.76083333333333,87.95999998805334,11.274739583333334,63.58458932791813
1361618807.5,0.640268875,33.7625,87.98333333333335,11.306510416666667,63.579791656500056
1361618807.75,0.639574875,33.76416666666667,88.00666667861334,10.693776041666666,63.53750976807118
1361618808.0,0.6390944166666667,33.76583333333334,88.03000000000002,10.074348958333333,63.47356024892448
1361618808.25,0.6386139583333333,33.767500000000005,88.0549999872,10.075286458333332,63.40961072977777
1361618808.5,0.638186875,33.76916666666667,88.08000000000001,9.421276041666667,63.34566121063106
1361618808.75,0.6379199166666666,33.77,88.1050000128,9.322291666666667,63.281711691484354
1361618809.0,0.6378665,33.77,88.13,9.216666666666667,63.21776217233764
1361618809.25,0.6381333749999999,33.77,88.15249998847999,9.121197916666668,63.15381265319093
1361618809.5,0.638453625,33.77,88.17499999999998,9.737317708333334,63.08986313404423
1361618809.75,0.6388272916666667,33.770833333333336,88.19750001151999,9.857760416666666,63.02591361489752
1361618810.0,0.63930775,33.7725,88.21999999999998,10.1025,62.96196409575081
1361618810.25,0.6398415833333333,33.774166666666666,88.23666665813333,10.787083333333333,62.898014576604105
1361618810.5,0.6404287916666668,33.77583333333333,88.25333333333333,10.766354166666666,62.84548734875787
1361618810.75,0.6410694166666666,33.77666666666667,88.27000000853333,11.280234375,62.83706895780483
1361618811.0,0.6417100416666667,33.776666666666664,88.28666666666668,11.766640625,62.868077552967414
1361618811.25,0.6423506666666667,33.77666666666667,88.29916666026668,11.675963541666668,62.92012598442681
1361618811.5,0.6429912916666667,33.77666666666667,88.31166666666667,12.25671875,62.97626191005005
1361618811.75,0.6435251666666667,33.776666666666664,88.32416667306666,12.535807291666666,63.04021142919675
1361618812.0,0.6438455,33.77666666666667,88.33666666666666,12.614453124999999,63.10416094834346
1361618812.25,0.6438455416666667,33.77666666666667,88.35083332608,12.893177083333333,63.16811046749016
1361618812.5,0.6438455833333333,33.776666666666664,88.365,12.837994791666667,63.23205998663687
1361618812.75,0.643845625,33.77583333333334,88.37916667392,12.999348958333334,63.29284073832221
1361618813.0,0.6438456666666666,33.774166666666666,88.39333333333333,12.989348958333332,63.35531419886818
1361618813.25,0.6438457083333333,33.7725,88.40916665856,12.840989583333334,63.41631160081342
1361618813.5,0.6437389583333334,33.770833333333336,88.425,12.949062499999998,63.456425306068674
1361618813.75,0.6435254166666667,33.76916666666667,88.44083334144,12.480182291666667,63.48304554255797
1361618814.0,0.6430983333333333,33.767500000000005,88.45666666666666,12.482838541666666,63.484586874562005
1361618814.25,0.6424043333333332,33.76583333333334,88.4733333248,12.806510416666667,63.465224074149084
1361618814.5,0.6416569583333334,33.76416666666667,88.49,12.326692708333333,63.445030473797
1361618814.75,0.6409095833333334,33.763333333333335,88.5066666752,12.268098958333335,63.4145925778599
1361618815.0,0.6401622083333334,33.763333333333335,88.52333333333333,12.442760416666667,63.38160025992431
1361618815.25,0.6394682083333333,33.763333333333335,88.53666665984,11.852994791666667,63.35128608392418
1361618815.5,0.6387742083333333,33.76333333333334,88.54999999999998,11.239322916666666,63.31582120977347
1361618815.75,0.6381335833333334,33.763333333333335,88.56333334015999,11.065729166666669,63.28327766321022
1361618816.0,0.6374929583333334,33.763333333333335,88.57666666666665,10.858645833333334,63.24739303697626
1361618816.25,0.6373861666666667,33.763333333333335,88.58583332863999,10.670442708333333,63.209475251784035
1361618816.5,0.6381335416666667,33.763333333333335,88.595,10.609765625,63.18767469027147
1361618816.75,0.6394147916666667,33.76416666666667,88.60416667135999,10.699062500000002,63.1742290780679
1361618817.0,0.6412299166666667,33.76583333333334,88.61333333333333,9.959765625000001,63.16872115001855
1361618817.25,0.6433653333333335,33.767500000000005,88.61749999786666,9.229895833333334,63.16868198401462
1361618817.5,0.6459278333333334,33.76916666666667,88.62166666666667,9.083229166666667,63.16942425579188
1361618817.75,0.6488106666666668,33.77,88.62583333546667,8.5540625,63.1735026173934
1361618818.0,0.6516935,33.77,88.63,8.230546875,63.18301573178007
1361618818.25,0.6545763333333334,33.77,88.62583333546667,8.810989583333333,63.19001524170792
1361618818.5,0.6574591666666667,33.77,88.62166666666667,9.199192708333333,63.20413993118726
1361618818.75,0.6602886250000001,33.77,88.61749999786667,9.306015625,63.22286895309597
1361618819.0,0.6630112916666667,33.77,88.61333333333334,9.97671875,63.24217807117497
1361618819.25,0.6650933333333334,33.77,88.60500000426667,10.391093750000001,63.266804428944745
1361618819.5,0.6662678333333334,33.77,88.59666666666666,11.421718749999998,63.28998353280272
1361618819.75,0.6669618333333335,33.77,88.58833332906667,12.453906250000001,63.31266230203786
1361618820.0,0.6669617916666667,33.77,88.58,13.847994791666665,63.33517473084544
1361618820.25,0.6668016250000001,33.77,88.56500000768,15.157786458333334,63.35844352895006
1361618820.5,0.66626775,33.77,88.55,15.286223958333332,63.381241943862854
1361618820.75,0.6654135416666667,33.77,88.53499999232,15.732968749999998,63.408952303155154
1361618821.0,0.6645593333333334,33.77,88.52,16.58427083333333,63.44339480552558
1361618821.25,0.663705125,33.77,88.50250000896,16.395416666666666,63.485473883658386
1361618821.5,0.6630110833333334,33.77,88.485,16.697812499999998,63.53402074762487
1361618821.75,0.6624237916666667,33.77,88.46749999104,16.371458333333333,63.57910720057989
1361618822.0,0.6624771666666667,33.77,88.45,15.345755208333335,63.63014832147143
1361618822.25,0.6636516666666666,33.77,88.43333334186667,14.346588541666664,63.67970717978429
1361618822.5,0.6655202083333334,33.77,88.41666666666666,12.052526041666667,63.72885514513689
1361618822.75,0.6679225833333332,33.77,88.39999999146666,10.603151041666665,63.7770173446869
1361618823.0,0.6710723333333334,33.77,88.38333333333333,9.484869791666666,63.82472774959771
1361618823.25,0.6743288333333334,33.77,88.37250000554666,8.951979166666666,63.866077319286205
1361618823.5,0.6775853333333334,33.77,88.36166666666665,9.653828125,63.903859140160655
1361618823.75,0.6808418333333334,33.77,88.35083332778666,9.886588541666667,63.9358236288929
1361618824.0,0.6840983333333334,33.77,88.33999999999999,9.451848958333334,63.95817564376034
1361618824.25,0.6873548333333334,33.77,88.33583333546666,9.931223958333334,63.972726545388774
1361618824.5,0.6904511666666666,33.77,88.33166666666666,10.343229166666667,63.978835179782614
1361618824.75,0.69344075,33.77,88.32749999786667,11.400234374999998,63.98404733263245
1361618825.0,0.69600325,33.77,88.32333333333334,12.431145833333332,63.98795247187338
1361618825.25,0.6975514166666666,33.77,88.32499999914667,13.886744791666667,63.9952733569335
1361618825.5,0.6986190833333333,33.77,88.32666666666667,16.315286458333336,64.0030820471183
1361618825.75,0.6991529166666667,33.77,88.32833333418667,17.511380208333332,64.01186599114342
1361618826.0,0.7018222083333333,33.77,88.33,18.38669270833333,64.02064993516854
1361618826.25,0.7073209583333333,33.77,88.33833332906667,19.248619791666666,64.02975896380711
1361618826.5,0.7130332500000001,33.77,88.34666666666666,20.764791666666667,64.03886799244566
1361618826.75,0.7188522916666668,33.770833333333336,88.35500000426666,22.62328125,64.04797702108422
1361618827.0,0.7248315000000001,33.7725,88.36333333333333,24.508359374999998,64.05611067707945
1361618827.25,0.7309175,33.774166666666666,88.37583332693333,25.383854166666666,64.06383803670938
1361618827.5,0.7374305833333333,33.77583333333333,88.38833333333334,25.672890624999997,64.07099632006127
1361618827.75,0.745118125,33.7775,88.40083333973334,26.398177083333334,64.07229808577456
1361618828.0,0.7526988750000001,33.77916666666667,88.41333333333334,27.541484374999996,64.06871870608676
1361618828.25,0.7617210416666667,33.780833333333334,88.42833332565334,28.20567708333333,64.06139782102663
1361618828.5,0.7716507916666666,33.782500000000006,88.44333333333334,27.963567708333333,64.05358913084183
1361618828.75,0.7819542083333334,33.784166666666664,88.45833334101334,28.472343750000004,64.0448051868167
1361618829.0,0.7897485,33.785833333333336,88.47333333333334,29.119375,64.03602124279159
1361618829.25,0.7947133333333333,33.7875,88.48666665984001,28.974427083333335,64.02691221415303
1361618829.5,0.799464625,33.78916666666667,88.5,27.95942708333334,64.01780318551447
1361618829.75,0.8041091666666667,33.79,88.51333334015999,26.702734375000002,64.0086941568759
1361618830.0,0.8085935416666666,33.79,88.52666666666666,25.186875,64.0005605008807
1361618830.25,0.8128643333333333,33.79,88.53999999317332,24.419609375000004,63.99283314125076
1361618830.5,0.8160674166666667,33.79,88.55333333333333,23.642031250000002,63.98567485789886
1361618830.75,0.8174020416666666,33.79083333333333,88.56666667349333,22.152994791666668,63.984373092185564
1361618831.0,0.8181494583333334,33.7925,88.58,20.370729166666667,63.984373092185564
1361618831.25,0.8169750000000001,33.79416666666667,88.58999999488,18.6521875,63.984373092185564
1361618831.5,0.8144658749999999,33.795833333333334,88.6,17.457239583333333,63.984373092185564
1361618831.75,0.8111026249999999,33.79666666666666,88.61000000512,15.935651041666667,63.984373092185564
1361618832.0,0.8073122916666667,33.79666666666667,88.62,14.317239583333333,63.984373092185564
1361618832.25,0.8033084166666667,33.79666666666667,88.62749999616,12.991223958333334,63.984373092185564
1361618832.5,0.799037625,33.79666666666667,88.63499999999999,11.533776041666668,63.984373092185564
1361618832.75,0.7944464999999999,33.79666666666667,88.64250000384,10.066484375,63.984373092185564
1361618833.0,0.7895350416666668,33.79666666666666,88.64999999999999,8.769192708333334,63.984373092185564
1361618833.25,0.7844634583333333,33.79666666666667,88.65416666453334,7.541588541666666,63.984373092185564
1361618833.5,0.77992575,33.79666666666667,88.65833333333333,6.698776041666666,63.984373092185564
1361618833.75,0.7760286666666666,33.79583333333333,88.66250000213333,5.982343750000001,63.984373092185564
1361618834.0,0.7727187916666667,33.79416666666666,88.66666666666667,5.489713541666667,63.98486113532211
1361618834.25,0.769889375,33.7925,88.66916666538667,5.045364583333334,63.99218178237036
1361618834.5,0.7674336666666668,33.79083333333333,88.67166666666668,4.763255208333333,63.99999047255517
1361618834.75,0.7654584166666667,33.79,88.67416666794668,4.493359375,64.00779916273997
1361618835.0,0.763963625,33.79,88.67666666666668,4.1688020833333335,64.01560785292476
1361618835.25,0.7626823749999999,33.79,88.67749999957334,4.047838541666667,64.02341654310956
1361618835.5,0.7616680416666667,33.79,88.67833333333334,3.926041666666667,64.03122523329438
1361618835.75,0.7609740416666666,33.79,88.67916666709334,4.216276041666666,64.03903392347918
1361618836.0,0.760600375,33.79,88.68,4.758151041666666,64.04684261366397
1361618836.25,0.760493625,33.79,88.68333333162667,5.107005208333333,64.05465130384877
1361618836.5,0.760493625,33.79,88.68666666666667,5.4164062500000005,64.06245999403357
1361618836.75,0.7608139166666666,33.79,88.69000000170666,5.491380208333333,64.06294803717013
1361618837.0,0.7611342083333333,33.79,88.69333333333333,5.335338541666666,64.06245999403357
1361618837.25,0.7614545,33.79,88.70083332949332,5.151432291666667,64.05513934698533
1361618837.5,0.7617747916666665,33.79,88.70833333333331,4.650625,64.04733065680053
1361618837.75,0.7620950833333334,33.79,88.71583333717332,4.300624999999999,64.03952196661572
1361618838.0,0.762362,33.79,88.72333333333331,3.8897656250000003,64.03171327643092
1361618838.25,0.763109375,33.79,88.73333332821332,3.2986718749999997,64.02390458624613
1361618838.5,0.7642304583333334,33.79,88.74333333333331,2.789375,64.01609589606132
1361618838.75,0.7657786249999999,33.79,88.75333333845332,1.9640364583333332,64.00828720587651
1361618839.0,0.76780725,33.79,88.76333333333332,0.8918489583333334,64.00047851569171
1361618839.25,0.7703697500000001,33.79,88.7716666624,0.06947916666666676,63.992669825506916
1361618839.5,0.7734127083333334,33.79,88.78,-0.5523697916666666,63.98486113532211
1361618839.75,0.7761887499999999,33.79,88.7883333376,-0.9549479166666665,63.984373092185564
1361618840.0,0.7789647916666667,33.79,88.79666666666667,-1.1711458333333333,63.984373092185564
1361618840.25,0.7817408333333332,33.79,88.80166666410666,-1.0971093749999998,63.984373092185564
1361618840.5,0.784516875,33.79,88.80666666666667,-0.8238020833333333,63.984373092185564
1361618840.75,0.7872929166666666,33.79,88.81166666922667,-0.6038802083333332,63.984373092185564
1361618841.0,0.7899087916666666,33.79,88.81666666666666,-0.29348958333333325,63.98974156668762
1361618841.25,0.7916705,33.79,88.82249999701332,0.011692708333333406,63.997550256872415
1361618841.5,0.7928449583333333,33.79,88.82833333333332,0.42263020833333337,64.00535894705722
1361618841.75,0.7933787916666667,33.79,88.83416666965333,0.8393229166666667,64.01316763724202
1361618842.0,0.7934321666666667,33.79,88.83999999999999,1.355390625,64.02097632742682
1361618842.25,0.7929516666666666,33.79,88.85083332778666,1.7565104166666667,64.02878501761161
1361618842.5,0.7919907083333332,33.79,88.86166666666665,1.9808333333333332,64.03659370779643
1361618842.75,0.7910297500000002,33.79083333333333,88.87250000554666,2.3242447916666666,64.04440239798122
1361618843.0,0.7900687916666668,33.7925,88.88333333333333,2.5107291666666667,64.05221108816603
1361618843.25,0.7891078333333335,33.79416666666666,88.90166665727999,2.5855208333333333,64.06001977835082
1361618843.5,0.7886807500000002,33.795833333333334,88.91999999999999,2.71671875,64.06782846853564
1361618843.75,0.7891612083333334,33.79666666666667,88.93833334272,2.7026562500000004,64.07563715872043
1361618844.0,0.7912966250000001,33.79666666666666,88.95666666666666,2.890807291666667,64.07461934681436
1361618844.25,0.7960479583333333,33.79666666666667,88.97999998805334,3.0683854166666666,64.06355365853015
1361618844.5,0.8022407083333333,33.79666666666667,89.00333333333333,3.0397135416666665,64.04857454610352
1361618844.75,0.8086470000000001,33.79666666666667,89.02666667861332,3.1928906250000004,64.02707306010622
1361618845.0,0.8150532916666667,33.79666666666667,89.05,3.3013020833333333,64.0055715741089
1361618845.25,0.8214595833333335,33.79666666666666,89.07333332138667,3.3676041666666667,63.98407008811159
1361618845.5,0.8278658750000001,33.79666666666667,89.09666666666666,2.965390625,63.96256860211428
1361618845.75,0.8342721666666666,33.795833333333334,89.12000001194666,1.9633593750000002,63.94106711611696
1361618846.0,0.841532625,33.79416666666666,89.14333333333333,1.1472395833333333,63.91956563011964
1361618846.25,0.8487930833333334,33.7925,89.17416665088,0.3663281250000001,63.89806414412232
1361618846.5,0.8555196666666666,33.79083333333333,89.205,-0.5421354166666666,63.87656265812501
1361618846.75,0.8613387083333334,33.79,89.23583334912,-0.735234375,63.8550611721277
1361618847.0,0.8656629583333334,33.79,89.26666666666667,-0.924375,63.8370177137192
1361618847.25,0.8682254583333334,33.79,89.29999998293333,-1.4082291666666666,63.82658191600609
1361618847.5,0.8729233750000001,33.79,89.33333333333333,-0.7674739583333331,63.8200595424354
1361618847.75,0.8811447499999999,33.79083333333333,89.36666668373333,-0.06192708333333317,63.8200595424354
1361618848.0,0.8923557083333332,33.7925,89.39999999999999,0.6905989583333335,63.8200595424354
1361618848.25,0.9057020833333334,33.79416666666667,89.4374999808,1.5030729166666668,63.8200595424354
1361618848.5,0.9201202916666666,33.795833333333334,89.475,2.8837499999999996,63.8200595424354
1361618848.75,0.9345385,33.7975,89.51250001919999,5.2159375,63.8200595424354
1361618849.0,0.9481025416666666,33.79916666666667,89.55,7.648932291666667,63.81230013199169
1361618849.25,0.9616665833333333,33.80083333333334,89.58416664917333,10.008359375,63.803151982187565
1361618849.5,0.975230625,33.8025,89.61833333333334,12.543828125,63.794003832383446
1361618849.75,0.9887946666666667,33.80416666666667,89.65250001749334,14.478203125,63.78485568257932
1361618850.0,1.0023094583333334,33.80583333333333,89.68666666666667,16.202552083333334,63.77570753277519
1361618850.25,1.01443625,33.8075,89.71833331712,18.067395833333332,63.766559382971074
1361618850.5,1.0221320416666668,33.80916666666667,89.75,18.605104166666667,63.75741123316694
1361618850.75,1.0252325416666668,33.81,89.78166668288,18.430963541666667,63.75398067699039
1361618851.0,1.024863,33.81,89.81333333333333,18.271692708333333,63.75398067699039
1361618851.25,1.0223580416666667,33.81,89.84249998506667,18.163776041666665,63.76115528791815
1361618851.5,1.0187812500000002,33.81,89.87166666666667,18.174895833333334,63.768982136202986
1361618851.75,1.0152044583333335,33.81,89.90083334826666,17.531302083333333,63.778113459201954
1361618852.0,1.0116276666666666,33.81,89.92999999999999,16.582682291666668,63.79647154711706
1361618852.25,1.0080508750000001,33.81,89.95833331882666,15.519687499999998,63.81882278098163
1361618852.5,1.0045233333333332,33.81,89.98666666666666,14.274765625,63.84141833448363
1361618852.75,1.0012627083333332,33.81,90.01500001450667,13.035885416666666,63.86206100042981
1361618853.0,0.9985317916666666,33.81,90.04333333333334,11.800234375,63.881970707463644
1361618853.25,0.9969219583333334,33.81,90.07833331541333,10.771692708333333,63.90269481328898
1361618853.5,0.9963798333333332,33.81,90.11333333333334,9.991328125,63.91844605821908
1361618853.75,0.9970163333333333,33.81,90.14833335125334,9.739947916666667,63.92554500057673
1361618854.0,0.9983468333333333,33.81,90.18333333333334,9.437421875,63.934349127411366
1361618854.25,0.9997840833333335,33.81,90.2291666432,9.042369791666667,63.93377761160958
1361618854.5,1.00148825,33.81,90.275,8.414583333333333,63.94719781955495
1361618854.75,1.0035661249999999,33.81,90.32083335680001,7.7472916666666665,63.968208834492394
1361618855.0,1.0057507916666666,33.81,90.36666666666667,7.2296875,63.99031486496957
1361618855.25,1.0079888333333333,33.81,90.42499997013333,6.550208333333333,64.00981648885771
1361618855.5,1.010231,33.81,90.48333333333332,5.760208333333334,64.0330473828996
1361618855.75,1.0124197916666666,33.81,90.54166669653333,4.8793750000000005,64.05823116449729
1361618856.0,1.0148755416666666,33.81,90.59999999999998,4.09875,64.07847134816281
1361618856.25,1.018345625,33.81,90.66249996799999,3.182473958333333,64.10073541145908
1361618856.5,1.0229901666666665,33.81,90.725,2.7284375,64.12343109017498
1361618856.75,1.0283820833333335,33.81,90.787500032,2.3708072916666665,64.13531540568405
1361618857.0,1.0339341666666666,33.81,90.85000000000001,1.6454166666666667,64.14519962861887
1361618857.25,1.0393795,33.81,90.91416663381334,1.2837500000000002,64.15846381927038
1361618857.5,1.0445579166666665,33.81,90.97833333333334,0.8578645833333334,64.165336600874
1361618857.75,1.0493626249999999,33.81,91.04250003285334,0.91515625,64.15977729274725
1361618858.0,1.0540605416666666,33.81,91.10666666666667,0.7642708333333333,64.14811880658421
1361618858.25,1.0587050833333331,33.81,91.16916663466667,0.70421875,64.14108881517507
1361618858.5,1.0631360833333334,33.81,91.23166666666667,1.2931510416666667,64.1219199311967
1361618858.75,1.06714,33.810833333333335,91.29416669866667,1.8114583333333334,64.09567743117005
1361618859.0,1.0703965,33.8125,91.35666666666667,2.0357552083333332,64.08100616802817
1361618859.25,1.0723717499999998,33.814166666666665,91.42499996501333,2.6593750000000003,64.05564523435258
1361618859.5,1.0731191666666666,33.81583333333334,91.49333333333334,2.6395052083333335,64.03482554615262
1361618859.75,1.0730124166666666,33.8175,91.56166670165334,2.674739583333334,64.02775193010433
1361618860.0,1.0724785833333332,33.81916666666667,91.63,3.160234375,64.01167252976316
1361618860.25,1.0719981250000001,33.82083333333333,91.70249996288,2.9162760416666664,63.991805243985674
1361618860.5,1.0715710416666668,33.8225,91.775,2.6490364583333332,63.96368540615185
1361618860.75,1.0711439583333335,33.82416666666666,91.84750003712,2.038854166666667,63.939102376342184
1361618861.0,1.07077025,33.82583333333333,91.92,1.6939583333333335,63.91805615455666
1361618861.25,1.0703965416666668,33.82749999999999,91.99166662997334,1.6644270833333337,63.89238143801722
1361618861.5,1.0706634583333334,33.829166666666666,92.06333333333333,0.9897135416666667,63.87487202425583
1361618861.75,1.0730124166666666,33.83,92.13500003669333,0.5683072916666667,63.864436226542715
1361618862.0,1.0788848333333334,33.83,92.20666666666666,0.32026041666666677,63.84810574878937
1361618862.25,1.0888145416666668,33.83,92.27333329919999,-0.3045052083333332,63.83962666314747
1361618862.5,1.1021075416666666,33.83,92.33999999999999,-0.5960156249999999,63.83114757750557
1361618862.75,1.1162013333333334,33.829166666666666,92.40666670079999,-1.1734635416666666,63.833527325742615
1361618863.0,1.1303485,33.8275,92.47333333333331,-1.737630208333333,63.85381231247461
1361618863.25,1.1444422916666668,33.825833333333335,92.52999997098665,-1.7273697916666666,63.892193577267726
1361618863.5,1.1584827083333333,33.82416666666666,92.58666666666666,-1.5386718749999997,63.93057484206084
1361618863.75,1.1725231249999999,33.8225,92.64333336234667,-1.2331770833333333,63.96895610685396
1361618864.0,1.1865101666666666,33.82083333333333,92.7,-1.0030989583333332,64.00384418826206
1361618864.25,1.1994295000000001,33.81916666666667,92.74916664149333,-0.7625520833333334,64.02475953613018
1361618864.5,1.2109608333333333,33.8175,92.79833333333333,-0.3293489583333333,64.03750862036948
1361618864.75,1.2199830416666668,33.81583333333334,92.84750002517333,-0.04575520833333326,64.04794441808258
1361618865.0,1.2248411666666668,33.81416666666667,92.89666666666666,0.2817708333333334,64.05838021579568
1361618865.25,1.22505475,33.81250000000001,92.94749997397334,0.72953125,64.0688160135088
1361618865.5,1.2216914583333334,33.810833333333335,92.99833333333333,1.06953125,64.0799027737405
1361618865.75,1.2174739583333334,33.81,93.04916669269333,1.62375,64.08989513787239
1361618866.0,1.2132564583333334,33.81,93.10000000000001,1.834583333333333,64.08785239972296
1361618866.25,1.2090389583333334,33.81,93.16083330218667,1.829140625,64.07032233294068
1361618866.5,1.2048214583333334,33.81,93.22166666666666,1.8786197916666667,64.05279226615839
1361618866.75,1.2006039583333334,33.810833333333335,93.28250003114665,2.0996614583333333,64.0352621993761
1361618867.0,1.1963864583333332,33.8125,93.34333333333332,2.4492968750000004,64.02122531597884
1361618867.25,1.19366375,33.814166666666665,93.40999996586666,2.7528906250000005,64.02116116612156
1361618867.5,1.1930230833333335,33.81583333333334,93.47666666666666,3.1141406249999997,64.02926327989309
1361618867.75,1.1942509166666666,33.8175,93.54333336746666,3.5629166666666663,64.03967868019082
1361618868.0,1.1963862916666665,33.81916666666667,93.61,4.062734375000001,64.05009408048855
1361618868.25,1.1991622916666667,33.82083333333333,93.67583329962666,4.454427083333334,64.06050948078628
1361618868.5,1.20220525,33.8225,93.74166666666667,4.784348958333333,64.07027391856539
1361618868.75,1.205301625,33.82416666666666,93.80750003370667,4.814531250000001,64.07027391856539
1361618869.0,1.2087717083333331,33.82583333333333,93.87333333333333,5.050390625,64.07027391856539
1361618869.25,1.2124553333333332,33.82749999999999,93.92749997226667,5.456614583333334,64.07027391856539
1361618869.5,1.2162457083333333,33.829166666666666,93.98166666666668,5.631458333333334,64.07027391856539
1361618869.75,1.2200360833333332,33.83,94.03583336106668,5.447083333333333,64.07027391856539
1361618870.0,1.2238264583333331,33.83,94.09000000000002,4.946354166666667,64.07027391856539
1361618870.25,1.22718975,33.83,94.13999997440001,4.042864583333333,64.07027391856539
1361618870.5,1.2296988749999997,33.83,94.19000000000001,3.049947916666667,64.07027391856539
1361618870.75,1.2317275416666666,33.83,94.24000002560001,2.0064322916666666,64.07027391856539
1361618871.0,1.235090875,33.83,94.29,1.0869791666666668,64.07027391856539
1361618871.25,1.2408565416666666,33.83,94.33416664405334,0.33153645833333334,64.07027391856539
1361618871.5,1.248864375,33.83,94.37833333333334,-0.3077604166666667,64.07027391856539
1361618871.75,1.25964825,33.83,94.42250002261335,-0.691875,64.07359856658056
1361618872.0,1.2712329166666667,33.83,94.46666666666668,-0.6915885416666666,64.10693767868787
1361618872.25,1.2826040416666666,33.83,94.51249997653335,-0.8511718749999999,64.14387855757053
1361618872.5,1.2938684166666665,33.83,94.55833333333334,-0.7877864583333333,64.18081943645318
1361618872.75,1.305666625,33.829166666666666,94.60416669013333,-0.47489583333333335,64.21776031533584
1361618873.0,1.3177317916666667,33.8275,94.64999999999999,0.1978385416666667,64.25470119421848
1361618873.25,1.3301706666666666,33.825833333333335,94.69666664277332,1.3896875,64.29164207310114
1361618873.5,1.342556125,33.82416666666666,94.74333333333333,2.524296875,64.31611532765022
1361618873.75,1.3544077083333335,33.8225,94.79000002389333,3.509921875,64.32276462368054
1361618874.0,1.3649780416666666,33.82083333333333,94.83666666666666,4.126354166666666,64.32276462368053
1361618874.25,1.3733061666666666,33.81916666666667,94.88416664234666,4.5756250000000005,64.32276462368054
1361618874.5,1.3797124583333333,33.8175,94.93166666666666,5.1863020833333335,64.32276462368054
1361618874.75,1.3833427083333334,33.81583333333334,94.97916669098666,5.595859375,64.31943997566538
1361618875.0,1.3857984583333334,33.81416666666667,95.02666666666666,5.614088541666667,64.28610086355805
1361618875.25,1.3882542083333334,33.81250000000001,95.07583330816,5.760000000000001,64.2491599846754
1361618875.5,1.3909234583333332,33.810833333333335,95.125,5.791640624999999,64.21221910579276
1361618875.75,1.3934325833333334,33.81,95.17416669184,5.913880208333333,64.1752782269101
1361618876.0,1.396208625,33.81,95.22333333333334,5.942135416666666,64.13833734802743
1361618876.25,1.3986109583333335,33.81,95.27499997354667,5.642421875,64.10139646914479
1361618876.5,1.400746375,33.81,95.32666666666668,5.339817708333334,64.07757338383705
1361618876.75,1.4026682500000003,33.81,95.37833335978668,4.923723958333333,64.07238696859973
1361618877.0,1.4042697916666667,33.81,95.43,4.6945572916666665,64.07401239170306
1361618877.25,1.4062984583333333,33.81,95.48916663637334,4.501145833333333,64.06929301369121
1361618877.5,1.4105159166666665,33.81,95.54833333333333,4.2922135416666665,64.06253998351862
1361618877.75,1.416606,33.81,95.60750003029334,4.538567708333333,64.05944793334753
1361618878.0,1.4247288750000002,33.81,95.66666666666667,5.017083333333334,64.06017876964643
1361618878.25,1.4351473333333333,33.81,95.7333332992,5.484739583333333,64.05188005041289
1361618878.5,1.4457259999999998,33.81,95.80000000000001,5.671145833333334,64.04333752853813
1361618878.75,1.4561445,33.81,95.86666670080001,4.862317708333333,64.03316644787786
1361618879.0,1.4661892500000002,33.81,95.93333333333334,3.5711979166666663,64.02315824697588
1361618879.25,1.4762339999999998,33.81,96.00416663040001,2.9311458333333333,64.01274284667815
1361618879.5,1.48627875,33.81,96.07500000000002,3.07796875,64.0020030366557
1361618879.75,1.4963235,33.81,96.14583336960001,3.8622656249999996,63.9895543624906
1361618880.0,1.5062080833333331,33.81,96.21666666666668,4.673984375,63.97930487816843
1361618880.25,1.5153452916666665,33.81,96.29083329536002,5.403671875000001,63.97645847583788
1361618880.5,1.5219199999999997,33.81,96.36500000000001,5.875937499999999,63.97279610571274
1361618880.75,1.5265686666666667,33.81,96.43916670464,6.230625,63.96547275558611
1361618881.0,1.5289175833333333,33.81,96.51333333333334,6.139244791666666,63.95758244356401
1361618881.25,1.5282235416666665,33.81,96.58666662912,5.29015625,63.96514930148218
1361618881.5,1.5263550416666665,33.81,96.66,4.6490625,63.97807797723639
1361618881.75,1.5233654583333331,33.81,96.73333337087999,4.85796875,63.99596421851348
1361618882.0,1.5193081666666666,33.81,96.80666666666666,5.600260416666667,64.0159606838774
1361618882.25,1.5148771666666667,33.81,96.87749996373333,5.669739583333333,64.03806917652089
1361618882.5,1.5104461666666664,33.81,96.94833333333332,5.165807291666668,64.05871535772523
1361618882.75,1.5060151666666668,33.81,97.01916670293332,4.185026041666667,64.08139424344309
1361618883.0,1.5017443333333336,33.81,97.08999999999999,3.6952083333333334,64.10171139700769
1361618883.25,1.497633625,33.81,97.15333330090665,3.999713541666667,64.12097026969586
1361618883.5,1.4935762916666668,33.81,97.21666666666665,3.783671875000001,64.14307876233936
1361618883.75,1.4898927083333333,33.81,97.28000003242666,2.877473958333334,64.16518725498285
1361618884.0,1.4873836249999999,33.81,97.34333333333332,2.2403645833333337,64.1840398230518
1361618884.25,1.4859422083333333,33.81,97.40166663679999,2.7451562500000004,64.18875086034588
1361618884.5,1.4853015416666666,33.81,97.46,3.585572916666667,64.18436470646644
1361618884.75,1.485568416666667,33.81,97.5183333632,4.485416666666667,64.17664954584963
1361618885.0,1.4869030416666666,33.81,97.57666666666667,5.113020833333333,64.16666128138768
1361618885.25,1.4886113749999998,33.81,97.63249997141334,5.536015625,64.15496818904192
1361618885.5,1.4903197083333335,33.81,97.68833333333333,5.752369791666666,64.1444116486187
1361618885.75,1.4918678749999998,33.81,97.74416669525333,6.038281250000001,64.13271855627293
1361618886.0,1.4932558749999998,33.81,97.8,5.606640625,64.12102546392718
1361618886.25,1.4946438750000002,33.81,97.85166664021332,4.566744791666667,64.1093323715814
1361618886.5,1.496031875,33.81,97.90333333333334,4.21546875,64.09763927923564
1361618886.75,1.4970995416666666,33.81,97.95500002645333,4.507942708333333,64.08594618688987
1361618887.0,1.4972596666666664,33.81,98.00666666666666,5.048151041666666,64.07425309454412
1361618887.25,1.4972596666666667,33.81,98.05833330687999,5.3604947916666665,64.07027391856539
1361618887.5,1.4975800000000001,33.81,98.10999999999999,5.570234374999999,64.07027391856539
1361618887.75,1.4980605,33.81,98.16166669312,5.647473958333332,64.07027391856539
1361618888.0,1.5019042916666665,33.81,98.21333333333332,6.108697916666666,64.07027391856539
1361618888.25,1.5090579999999998,33.81,98.26333330773333,7.344687499999999,64.07027391856539
1361618888.5,1.5162117083333333,33.81,98.31333333333333,8.544583333333334,64.07027391856539
1361618888.75,1.5237391249999999,33.810833333333335,98.36333335893333,10.102005208333333,64.07027391856539
1361618889.0,1.5318003750000002,33.8125,98.41333333333334,11.841328124999999,64.07027391856539
1361618889.25,1.5403954583333335,33.814166666666665,98.46333330773334,13.851640625,64.07027391856539
1361618889.5,1.5492040833333334,33.81583333333334,98.51333333333335,16.066041666666667,64.07027391856539
1361618889.75,1.5579059583333335,33.81666666666667,98.56333335893335,18.018828125000002,64.07027391856539
1361618890.0,1.566447666666667,33.81666666666667,98.61333333333334,19.642265625,64.07027391856539
1361618890.25,1.5747224166666667,33.81666666666667,98.65583331157335,20.575677083333336,64.07027391856539
1361618890.5,1.5824632916666665,33.81666666666667,98.69833333333335,20.929114583333334,64.07027391856539
1361618890.75,1.5897770833333331,33.81666666666667,98.74083335509334,21.6903125,64.07027391856539
1361618891.0,1.5937809583333333,33.81666666666667,98.78333333333335,22.183203125000002,64.07027391856539
1361618891.25,1.5946884583333334,33.81666666666667,98.82166664704,22.13919270833333,64.07027391856539
1361618891.5,1.5956493333333333,33.81666666666667,98.86000000000001,22.087265625,64.07027391856539
1361618891.75,1.5965034583333333,33.81583333333334,98.89833335296001,21.294140625,64.07027391856539
1361618892.0,1.5971974583333333,33.81416666666667,98.93666666666667,20.623489583333335,64.07027391856539
1361618892.25,1.597357625,33.81250000000001,98.97166664874666,19.11546875,64.07027391856539
1361618892.5,1.5974110416666667,33.810833333333335,99.00666666666666,17.232291666666665,64.07027391856539
1361618892.75,1.599012625,33.81,99.04166668458667,15.671640625,64.07027391856539
1361618893.0,1.6037105833333332,33.81,99.07666666666667,13.828125,64.07027391856539
1361618893.25,1.6117184583333335,33.81,99.10999998293333,12.630390625000002,64.07027391856539
1361618893.5,1.6226091666666669,33.81,99.14333333333333,11.813177083333334,64.07027391856539
1361618893.75,1.6355819166666665,33.810833333333335,99.17666668373333,10.498854166666666,64.07027391856539
1361618894.0,1.6493020416666668,33.8125,99.21,9.209843750000001,64.07027391856539
1361618894.25,1.6632357083333333,33.814166666666665,99.23916665173333,7.7859375,64.07027391856539
1361618894.5,1.677276166666667,33.81583333333334,99.26833333333333,6.823515625,64.07027391856539
1361618894.75,1.6914767500000003,33.8175,99.29750001493333,6.273932291666667,64.07027391856539
1361618895.0,1.7058375000000001,33.81916666666667,99.32666666666667,5.51515625,64.07027391856539
1361618895.25,1.721426125,33.82083333333333,99.34999998805334,5.536692708333334,64.07027391856539
1361618895.5,1.741018625,33.8225,99.37333333333333,5.579557291666667,64.07027391856539
1361618895.75,1.7641962500000001,33.82416666666666,99.39666667861333,5.311796875,64.07027391856539
1361618896.0,1.7850866250000001,33.82583333333333,99.42,5.35546875,64.07027391856539
1361618896.25,1.802773875,33.82749999999999,99.43416665941334,4.952135416666667,64.07027391856539
1361618896.5,1.8177918333333336,33.829166666666666,99.44833333333334,4.670911458333333,64.07027391856539
1361618896.75,1.830994666666667,33.830416666666665,99.46250000725334,4.370026041666667,64.07027391856539
1361618897.0,1.8432365833333335,33.831250000000004,99.47666666666667,3.791770833333334,64.07027391856539
1361618897.25,1.855051416666667,33.83208333333333,99.47833333248,3.740911458333333,64.07027391856539
1361618897.5,1.8645706666666666,33.83291666666667,99.48000000000002,3.224375,64.06832103100957
1361618897.75,1.87254175,33.833333333333336,99.48166666752002,2.7559635416666666,64.05985851826766
1361618898.0,1.8793917083333334,33.833333333333336,99.48333333333335,2.6166145833333334,64.04944311796994
1361618898.25,1.8846934583333335,33.833333333333336,99.47500000426668,1.96546875,64.03902771767221
1361618898.5,1.885671,33.833333333333336,99.46666666666667,1.2144531250000001,64.02861231737448
1361618898.75,1.8813016666666666,33.8325,99.45833332906668,0.42408854166666665,64.01819691707675
1361618899.0,1.8759630833333334,33.83083333333334,99.45,-0.576328125,64.00908344181624
1361618899.25,1.8700906666666668,33.829166666666666,99.43583334058667,-1.0379427083333332,63.99866804151852
1361618899.5,1.8635776249999998,33.8275,99.42166666666667,-1.6847656249999998,63.988252641220804
1361618899.75,1.8563705833333335,33.82541666666667,99.40749999274666,-1.718671875,63.9786515401913
1361618900.0,1.8481492083333333,33.822916666666664,99.39333333333333,-1.351875,63.974015725889785
1361618900.25,1.8387533333333332,33.82041666666667,99.3766666752,-1.5358333333333334,63.97060007894177
1361618900.5,1.8303717916666666,33.81791666666667,99.36,-1.3176041666666667,63.96986938423813
1361618900.75,1.8223639583333335,33.81583333333334,99.3433333248,-1.187578125,63.97662416281491
1361618901.0,1.814676416666667,33.81416666666667,99.32666666666667,-1.4458854166666668,63.98337977552325
