timestamp,EDA,TEMP,HR,BVP,ACC_mag
1361631724.0,0.296094,33.63,,12.831770833333332,61.5223536610881
1361631724.25,0.2965364285714286,33.63,,12.860803571428573,61.5223536610881
1361631724.5,0.2971085,33.63,,12.882578125,61.5223536610881
1361631724.75,0.2976957777777778,33.63,,12.857777777777777,61.5223536610881
1361631725.0,0.2983578,33.63,,12.34375,61.5223536610881
1361631725.25,0.2988994545454546,33.63,,11.627045454545454,61.5223536610881
1361631725.5,0.299457625,33.63,,10.7678125,61.5223536610881
1361631725.75,0.300418625,33.63,,10.324270833333333,61.5223536610881
1361631726.0,0.301272875,33.63,,9.959479166666666,61.5223536610881
1361631726.25,0.302127125,33.63,,9.035833333333334,61.5245114824408
1361631726.5,0.302981375,33.63,,7.780390625,61.53039174637158
1361631726.75,0.3037822083333333,33.63,,5.940182291666667,61.536821612079734
1361631727.0,0.30452962499999997,33.63,,4.592005208333333,61.545659263425705
1361631727.25,0.305116875,33.63,,3.4507552083333337,61.55669164033702
1361631727.5,0.3055439583333333,33.63,,2.2793229166666666,61.56278336672452
1361631727.75,0.3058642916666667,33.63,,1.0263802083333333,61.567817780828456
1361631728.0,0.3060778333333333,33.63,,0.13268229166666667,61.57268292448989
1361631728.25,0.306291375,33.63,,-0.4629947916666666,61.57280904624437
1361631728.5,0.30645150000000004,33.63,,-0.43942708333333336,61.57318977914358
1361631728.75,0.30655825,33.63,,-0.28302083333333333,61.5735705120428
1361631729.0,0.306665,33.63,,-0.392734375,61.57069016085179
1361631729.25,0.30677175,33.63,,-0.33145833333333335,61.560906772070076
1361631729.5,0.3068785,33.63,,0.08955729166666666,61.55146853809567
1361631729.75,0.30709204166666665,33.63,,0.32158854166666667,61.54114189291759
1361631730.0,0.30730558333333335,33.63,,0.3276822916666666,61.525441701952936
1361631730.25,0.30762591666666667,33.63,,0.133515625,61.505427459771546
1361631730.5,0.30794625000000003,33.63,,-0.01864583333333331,61.49039627821472
1361631730.75,0.30826658333333334,33.62916666666667,,0.16125000000000003,61.481972699644935
1361631731.0,0.30853354166666663,33.627500000000005,,0.6186458333333333,61.47528507524555
1361631731.25,0.3088005,33.62583333333333,,1.3227083333333334,61.4772743365311
1361631731.5,0.3089072916666667,33.62416666666667,,1.6953125,61.481040053899356
1361631731.75,0.3089607083333334,33.6225,,2.1087239583333335,61.48455201632839
1361631732.0,0.3089607083333334,33.62083333333334,,2.7783072916666662,61.492466960074154
1361631732.25,0.30896070833333333,33.61916666666667,,2.917291666666667,61.5039852228314
1361631732.5,0.30896070833333333,33.6175,,2.6077083333333335,61.512323946792776
1361631732.75,0.3088539166666667,33.615833333333335,,2.5836718750000003,61.5216359512263
1361631733.0,0.30880054166666665,33.61416666666667,,3.0012239583333336,61.53306781021999
1361631733.25,0.308640375,33.612500000000004,,4.080052083333334,61.54657668563417
1361631733.5,0.308587,33.61083333333333,,5.3874739583333335,61.560043150947614
1361631733.75,0.308640375,33.61,,6.448671875,61.56766327255304
1361631734.0,0.308747125,33.61,52.75,7.268255208333334,61.57511183945717
1361631734.25,0.308853875,33.61,53.208333098666664,7.357187499999999,61.58665003295084
1361631734.5,0.3091742083333333,33.61,53.66666666666667,7.146302083333333,61.59670638265509
1361631734.75,0.30965470833333336,33.61083333333333,54.12500023466667,6.633697916666667,61.60701648729857
1361631735.0,0.310188625,33.6125,54.583333333333336,5.7609635416666665,61.616184694715535
1361631735.25,0.3107225416666667,33.61416666666667,55.23583299925333,5.753411458333333,61.626494799359016
1361631735.5,0.3112564583333333,33.615833333333335,55.888333333333335,6.281796875,61.635916845412986
1361631735.75,0.311790375,33.6175,56.54083366741333,6.7608854166666665,61.6447044204211
1361631736.0,0.312270875,33.619166666666665,57.19333333333333,7.019739583333333,61.65433790101781
1361631736.25,0.312751375,33.62083333333334,57.74333305173333,6.7046874999999995,61.664013690845415
1361631736.5,0.3131250833333333,33.6225,58.29333333333334,5.82390625,61.67368948067303
1361631736.75,0.3133920416666667,33.623333333333335,58.843333614933336,4.991848958333334,61.68366132350516
1361631737.0,0.313605625,33.623333333333335,59.39333333333334,4.3148437500000005,61.692238037310716
1361631737.25,0.3138192083333333,33.623333333333335,60.10833296725334,4.129817708333333,61.69278726074872
1361631737.5,0.313926,33.623333333333335,60.82333333333334,4.234166666666667,61.69278726074872
1361631737.75,0.313926,33.6225,61.53833369941333,4.4734114583333335,61.691139590434695
1361631738.0,0.313926,33.62083333333334,62.25333333333333,4.971223958333334,61.682392515334335
1361631738.25,0.313926,33.61916666666667,63.24999948970666,4.958255208333333,61.669797846041355
1361631738.5,0.313926,33.6175,64.24666666666667,4.7222656249999995,61.657372424846436
1361631738.75,0.313979375,33.615833333333335,65.24333384362666,4.5112499999999995,61.644185336951864
1361631739.0,0.31403274999999997,33.61416666666667,66.24,4.210833333333333,61.631167497155324
1361631739.25,0.31413949999999996,33.612500000000004,67.36666608981334,3.961484375,61.61764191306465
1361631739.5,0.31424625,33.61083333333333,68.49333333333334,4.010390625,61.60838877474348
1361631739.75,0.31435299999999994,33.61,69.62000057685333,3.941588541666667,61.59829003213262
1361631740.0,0.31445975,33.61,70.74666666666667,3.779166666666667,61.59013667720939
1361631740.25,0.31456649999999997,33.61,71.52916626602666,3.5072395833333334,61.58202560362517
1361631740.5,0.31467324999999996,33.61,72.31166666666667,3.2183072916666666,61.574252669361606
1361631740.75,0.31478,33.61,73.09416706730667,2.9842968749999996,61.57741124128365
1361631741.0,0.31488675,33.61,73.87666666666667,2.746432291666667,61.593066848735226
1361631741.25,0.3149935,33.61,74.40249973077333,2.414453125,61.61716521244349
1361631741.5,0.31510025,33.61,74.92833333333333,1.85140625,61.6456900664462
1361631741.75,0.315153625,33.61083333333333,75.45416693589333,1.2079166666666665,61.67758506995926
1361631742.0,0.3152604166666667,33.612500000000004,75.97999999999999,0.7670833333333333,61.70989969524706
1361631742.25,0.31536725000000004,33.61416666666667,76.35666647381332,0.2819010416666667,61.741291563040754
1361631742.5,0.3154740833333334,33.615833333333335,76.73333333333332,-0.11286458333333334,61.76723135212103
1361631742.75,0.3155809166666667,33.6175,77.11000019285333,-0.31385416666666666,61.79956858350938
1361631743.0,0.315741125,33.619166666666665,77.48666666666666,-0.7616145833333334,61.83399499934604
1361631743.25,0.31595470833333333,33.62083333333333,77.73749987157333,-1.05921875,61.867958888165866
1361631743.5,0.31616829166666666,33.6225,77.98833333333333,-1.2787760416666667,61.90250875179665
1361631743.75,0.31643525,33.62416666666667,78.23916679509333,-1.5520572916666666,61.927900828535236
1361631744.0,0.31675558333333337,33.62583333333333,78.49,-1.7919010416666667,61.948063219766446
1361631744.25,0.3170759166666667,33.627500000000005,78.63083326122667,-1.7355729166666667,61.96438615337513
1361631744.5,0.31739625,33.62916666666667,78.77166666666668,-1.4452864583333334,61.97535764414977
1361631744.75,0.31771658333333336,33.62833333333334,78.91250007210667,-0.990703125,61.98359470137344
1361631745.0,0.317930125,33.62500000000001,79.05333333333334,-0.6689322916666667,61.99124288872432
1361631745.25,0.31809024999999996,33.62166666666667,79.10749997226667,-0.09716145833333338,62.000321577863474
1361631745.5,0.318197,33.61833333333333,79.16166666666666,0.3651041666666666,62.010579899946514
1361631745.75,0.31830375,33.615,79.21583336106667,0.540546875,62.01528638401118
1361631746.0,0.31830375,33.61166666666667,79.27,1.0016145833333334,62.0159582959399
1361631746.25,0.318197,33.60833333333334,79.28416665941333,1.3043489583333334,62.01705045354647
1361631746.5,0.31809024999999996,33.605000000000004,79.29833333333333,1.4297656250000002,62.017218497021396
1361631746.75,0.3178767083333333,33.60166666666667,79.31250000725333,1.54859375,62.01726049151694
1361631747.0,0.31760979166666664,33.598333333333336,79.32666666666667,1.6261197916666668,62.01713454077668
1361631747.25,0.31723608333333336,33.595,79.34416665770667,1.4121875000000002,62.00918861265364
1361631747.5,0.316862375,33.59166666666667,79.36166666666666,1.3426562499999999,61.99934928661917
1361631747.75,0.3164886666666667,33.59,79.37916667562666,1.2707291666666667,61.98610377485435
1361631748.0,0.3161149583333333,33.59,79.39666666666666,1.0614583333333334,61.97197522897188
1361631748.25,0.31574125000000003,33.59,79.42166665386667,0.47937500000000005,61.9578466830894
1361631748.5,0.31542091666666666,33.59,79.44666666666666,0.13325520833333337,61.94371813720692
1361631748.75,0.3151005833333333,33.59,79.47166667946665,0.10401041666666673,61.92958959132445
1361631749.0,0.31483362499999995,33.59,79.49666666666666,0.041302083333333364,61.91546104544198
1361631749.25,0.3146200416666667,33.59,79.52833331711999,0.04997395833333335,61.901332499559494
1361631749.5,0.3144064583333333,33.59,79.55999999999999,0.15955729166666668,61.88720395367702
1361631749.75,0.3142462916666667,33.59,79.59166668287999,0.31640625,61.87307540779455
1361631750.0,0.314086125,33.59,79.62333333333332,0.554140625,61.858946861912074
1361631750.25,0.313979375,33.59,79.64666665472,0.9455729166666665,61.85188258897083
1361631750.5,0.31381925,33.59,79.66999999999999,1.1171354166666665,61.847467418382564
1361631750.75,0.313659125,33.59,79.69333334528,1.2611458333333334,61.84658438426491
1361631751.0,0.313552375,33.59,79.71666666666667,1.6311458333333333,61.84658438426491
1361631751.25,0.313445625,33.59,79.72999999317334,2.1887239583333336,61.84658438426491
1361631751.5,0.31333887499999996,33.59,79.74333333333334,2.489973958333333,61.84658438426491
1361631751.75,0.31317870833333333,33.59,79.75666667349333,2.5517447916666667,61.84658438426491
1361631752.0,0.3130185416666667,33.59,79.77,2.4434635416666666,61.84658438426491
1361631752.25,0.31291179166666666,33.59,79.74833334442665,2.463151041666667,61.84658438426491
1361631752.5,0.3128050416666666,33.59,79.72666666666666,2.505104166666667,61.84658438426491
1361631752.75,0.31275166666666665,33.59,79.70499998890666,2.4451822916666663,61.84658438426491
1361631753.0,0.31275166666666665,33.59,79.68333333333332,2.268854166666667,61.84658438426491
1361631753.25,0.3128050416666666,33.59,79.64500001962665,2.1919010416666667,61.84658438426491
1361631753.5,0.31291179166666666,33.59,79.60666666666665,2.1784635416666664,61.84658438426491
1361631753.75,0.31307191666666667,33.589166666666664,79.56833331370666,1.9610677083333332,61.84658438426491
1361631754.0,0.3133388333333333,33.5875,79.52999999999999,1.6459374999999998,61.84658438426491
1361631754.25,0.31360575,33.58583333333334,79.47083336362665,1.5497656249999998,61.84658438426491
1361631754.5,0.31392608333333333,33.58416666666667,79.41166666666666,1.5465364583333334,61.84658438426491
1361631754.75,0.31429983333333333,33.583333333333336,79.35249996970667,1.5330468750000001,61.84658438426491
1361631755.0,0.31467358333333334,33.583333333333336,79.29333333333334,1.858151041666667,61.84321230386316
1361631755.25,0.3149939166666667,33.583333333333336,79.22583336789333,2.225885416666667,61.83242164657758
1361631755.5,0.31531424999999996,33.583333333333336,79.15833333333333,2.417421875,61.821630989292
1361631755.75,0.31558120833333336,33.5825,79.09083329877333,2.5958333333333337,61.810840332006414
1361631756.0,0.31584816666666665,33.58083333333334,79.02333333333333,3.2070833333333333,61.80004967472082
1361631756.25,0.31606175,33.579166666666666,78.94666670592,3.72484375,61.789259017435235
1361631756.5,0.3163287083333333,33.5775,78.86999999999999,3.8805989583333336,61.7759346496074
1361631756.75,0.3165422916666667,33.5775,78.79333329407999,4.2684375,61.76463725021336
1361631757.0,0.31664908333333336,33.57916666666667,78.71666666666665,4.958567708333334,61.75384659292779
1361631757.25,0.31680925,33.58083333333333,78.63666670762666,5.234296875,61.74153555822779
1361631757.5,0.31691600000000003,33.5825,78.55666666666666,5.216197916666666,61.723773966575614
1361631757.75,0.31702274999999996,33.583333333333336,78.47666662570666,5.565546875,61.69954683281654
1361631758.0,0.3171295,33.583333333333336,78.39666666666666,5.805234375,61.690607878518286
1361631758.25,0.31723625,33.583333333333336,78.3008333824,5.612578125,61.690607878518286
1361631758.5,0.317343,33.583333333333336,78.205,5.5053125,61.690607878518286
1361631758.75,0.31744975,33.58416666666667,78.1091666176,5.589973958333334,61.691282294598636
1361631759.0,0.317503125,33.58583333333333,78.01333333333334,5.30546875,61.702072951884226
1361631759.25,0.317609875,33.5875,77.90583338837334,4.974739583333333,61.7128636091698
1361631759.5,0.31766325,33.58916666666667,77.79833333333333,4.961588541666667,61.726187976997636
1361631759.75,0.317716625,33.58916666666667,77.69083327829333,4.721432291666667,61.73478771207028
1361631760.0,0.31777,33.5875,77.58333333333333,4.1910156249999995,61.74557836935586
1361631760.25,0.31777,33.58583333333333,77.46750005930666,4.097968750000001,61.75788940405585
1361631760.5,0.31777,33.58416666666667,77.35166666666666,4.334140625,61.77565099570803
1361631760.75,0.31777,33.5825,77.23583327402667,4.118411458333333,61.79111072042257
1361631761.0,0.31777,33.58083333333334,77.12,3.770078125,61.79136499179068
1361631761.25,0.31777,33.57916666666667,77.01500005376,3.857734375,61.78959244332583
1361631761.5,0.31777,33.5775,76.91,4.016432291666667,61.787566673651746
1361631761.75,0.31777,33.575833333333335,76.80499994624,3.961614583333333,61.78486648789729
1361631762.0,0.31777,33.57416666666666,76.7,3.837213541666667,61.76833173961233
1361631762.25,0.31782337499999996,33.5725,76.59666671957334,3.646875,61.74638674721314
1361631762.5,0.317930125,33.57083333333333,76.49333333333334,3.4564583333333334,61.73280960646682
1361631762.75,0.31809029166666664,33.57,76.38999994709333,3.453046875,61.72269084382854
1361631763.0,0.3182504583333333,33.57,76.28666666666666,3.4566145833333337,61.70987441686885
1361631763.25,0.318410625,33.57,76.18250005333333,3.0842447916666664,61.697057989909176
1361631763.5,0.31857079166666663,33.57,76.07833333333332,2.668125,61.684241562949495
1361631763.75,0.3187309583333333,33.57,75.97416661333332,2.641953125,61.69220794530904
1361631764.0,0.318891125,33.57,75.86999999999999,2.5523697916666666,61.70426470864094
1361631764.25,0.3190512916666666,33.57,75.76166672213333,2.1639062499999997,61.71682791439137
1361631764.5,0.31915804166666667,33.57,75.65333333333334,1.8892968749999997,61.72964434135105
1361631764.75,0.31926479166666666,33.57,75.54499994453333,1.8587239583333333,61.742334422894224
1361631765.0,0.3193181666666666,33.57,75.43666666666667,1.71484375,61.758869171179185
1361631765.25,0.31926479166666666,33.57,75.33000005461334,1.5981250000000002,61.780814163578384
1361631765.5,0.31910466666666665,33.57,75.22333333333333,1.454921875,61.794391304324684
1361631765.75,0.31878433333333334,33.57,75.11666661205334,0.9290885416666667,61.807207731284365
1361631766.0,0.31841058333333333,33.57,75.01,0.32546875000000003,61.82002415824405
1361631766.25,0.3180368333333333,33.57,74.90666671957334,0.2811458333333334,61.83284058520374
1361631766.5,0.3171292083333333,33.57,74.80333333333333,0.42799479166666665,61.84565701216342
1361631766.75,0.31563433333333335,33.57,74.69999994709332,-0.3676302083333333,61.84157021175915
1361631767.0,0.31349879166666667,33.57,74.59666666666665,-1.9619270833333333,61.83212932008703
1361631767.25,0.3107225833333333,33.57,74.49750005077331,-4.017994791666666,61.82778927234671
1361631767.5,0.307839625,33.57,74.39833333333331,-6.214973958333334,61.83081488819587
1361631767.75,0.30490325,33.56916666666667,74.29916661589333,-8.560078125,61.8129666153906
1361631768.0,0.30202025,33.5675,74.19999999999999,-10.478828125,61.792290014052064
1361631768.25,0.299190625,33.56583333333333,74.09666671957332,-9.785364583333335,61.76831671893
1361631768.5,0.29641437499999995,33.564166666666665,73.99333333333334,-8.342578125000001,61.745019524715566
1361631768.75,0.29379829166666666,33.5625,73.88999994709334,-6.637161458333334,61.720031677169864
1361631769.0,0.291235625,33.560833333333335,73.78666666666668,-5.714557291666668,61.69512844250317
1361631769.25,0.2886195833333333,33.55916666666666,73.68000005461334,-5.691484375000001,61.6708174979895
1361631769.5,0.2865907916666667,33.5575,73.57333333333334,-6.678411458333334,61.64616810195982
1361631769.75,0.28514924999999997,33.555,73.46666661205333,-5.959401041666667,61.62611011122912
1361631770.0,0.284348375,33.55166666666666,73.36,-3.22828125,61.60941949792019
1361631770.25,0.2841881666666667,33.54833333333333,73.25166672213334,0.4120052083333328,61.57763050357795
1361631770.5,0.284188125,33.544999999999995,73.14333333333333,3.985104166666666,61.534105025832396
1361631770.75,0.2842415,33.5425,73.03499994453333,6.994166666666666,61.5261163029238
1361631771.0,0.284294875,33.54083333333333,72.92666666666666,9.233723958333334,61.516383538926284
1361631771.25,0.284294875,33.53916666666667,72.82666671786666,8.902161458333332,61.50800105561006
1361631771.5,0.28424150000000004,33.5375,72.72666666666666,7.777994791666665,61.502076437763456
1361631771.75,0.28413475,33.535833333333336,72.62666661546666,6.722786458333332,61.503683457157045
1361631772.0,0.283974625,33.534166666666664,72.52666666666666,6.741744791666668,61.509645745864866
1361631772.25,0.28376108333333333,33.532500000000006,72.43166671530666,7.335,61.51438174711729
1361631772.5,0.283387375,33.530833333333334,72.33666666666666,8.8609375,61.5187799212444
1361631772.75,0.28296029166666664,33.530833333333334,72.24166661802666,9.35140625,61.523643586822125
1361631773.0,0.2824264166666667,33.532500000000006,72.14666666666666,8.701614583333333,61.52914344924094
1361631773.25,0.28178575,33.534166666666664,72.06250004309332,7.5221875,61.543710184422686
1361631773.5,0.28109170833333336,33.535833333333336,71.97833333333332,6.245807291666668,61.563958824416524
1361631773.75,0.2803442916666667,33.5375,71.89416662357334,5.785130208333334,61.54937932462696
1361631774.0,0.279596875,33.53916666666667,71.81,6.144609374999999,61.539625502644036
1361631774.25,0.2789028333333334,33.54083333333333,71.73333337258667,6.269036458333333,61.53618264370342
1361631774.5,0.2782621666666667,33.5425,71.65666666666667,6.393151041666667,61.52210512589638
1361631774.75,0.277568125,33.54416666666666,71.57999996074666,6.843828125000001,61.5021866241804
1361631775.0,0.27687408333333335,33.545833333333334,71.50333333333333,7.0073437499999995,61.47782824027119
1361631775.25,0.2762868333333333,33.54749999999999,71.43833336661334,6.765911458333332,61.45410385366433
1361631775.5,0.27585975,33.549166666666665,71.37333333333333,6.362682291666666,61.435295075403246
1361631775.75,0.2754860416666667,33.55,71.30833330005332,6.357786458333333,61.43853898660202
1361631776.0,0.2752725,33.55,71.24333333333333,6.314531250000001,61.46551998253353
1361631776.25,0.27516575,33.55,71.18333336405333,6.355781250000001,61.496461099468064
1361631776.5,0.27516575,33.55,71.12333333333333,6.610312499999999,61.52638524590839
1361631776.75,0.2752725,33.55,71.06333330261333,6.615546875,61.5773991582817
1361631777.0,0.27543266666666666,33.55,71.00333333333333,6.086588541666667,61.63773348682384
1361631777.25,0.275699625,33.55,70.95000002730666,6.192317708333333,61.68816438575095
1361631777.5,0.2760199583333333,33.55,70.89666666666666,6.436510416666667,61.750166559336215
1361631777.75,0.2763936666666667,33.549166666666665,70.84333330602666,5.7978125,61.82201804260263
1361631778.0,0.27682075,33.54749999999999,70.78999999999999,4.56140625,61.88040653910931
1361631778.25,0.277354625,33.545833333333334,70.73833335978667,3.888411458333333,61.93942913633901
1361631778.5,0.27799529166666664,33.54416666666666,70.68666666666667,3.718958333333333,62.00900666494568
1361631778.75,0.27868933333333334,33.5425,70.63499997354666,2.5883854166666667,62.06410111850306
1361631779.0,0.279383375,33.54083333333333,70.58333333333333,0.700703125,62.092202894924526
1361631779.25,0.28018420833333335,33.53916666666667,70.54916668416,-1.1813802083333331,62.12275007739993
1361631779.5,0.28103845833333335,33.5375,70.51499999999999,-3.0679947916666666,62.161895534980005
1361631779.75,0.28189270833333335,33.535833333333336,70.48083331583999,-4.944947916666666,62.19459913583318
1361631780.0,0.2827469166666667,33.534166666666664,70.44666666666666,-6.590078124999999,62.178958779514296
1361631780.25,0.2836545,33.532500000000006,70.42833334272,-8.608619791666667,62.18829480205045
1361631780.5,0.2846155,33.530833333333334,70.41,-11.083776041666665,62.192746299975546
1361631780.75,0.2855765,33.53,70.39166665728,-12.944843749999999,62.146814940372934
1361631781.0,0.2865375,33.53,70.37333333333333,-13.270130208333335,62.14386585977164
1361631781.25,0.28744508333333335,33.53,70.38333332821334,-13.7665625,62.1253593955036
1361631781.5,0.28824587500000004,33.53,70.39333333333335,-15.028046875,62.08282661371101
1361631781.75,0.28899329166666665,33.53,70.40333333845334,-15.268411458333333,62.02067944318517
1361631782.0,0.28974075000000005,33.53,70.41333333333334,-14.317890624999999,61.95895137315778
1361631782.25,0.29038141666666667,33.53,70.43833332053335,-13.008463541666666,61.89665794178955
1361631782.5,0.2909152916666667,33.53,70.46333333333334,-11.115572916666666,61.8192935093733
1361631782.75,0.291342375,33.52875,70.48833334613333,-9.656666666666668,61.74295678193929
1361631783.0,0.2917160833333334,33.526250000000005,70.51333333333334,-8.529869791666668,61.714145280583814
1361631783.25,0.29192962499999997,33.52375,70.55499997866667,-7.551953125,61.67651172650645
1361631783.5,0.29203637499999996,33.52125,70.59666666666666,-6.046302083333333,61.629046485012886
1361631783.75,0.292143125,33.51833333333334,70.63833335466667,-4.448906249999999,61.622114791365895
1361631784.0,0.292249875,33.515,70.68,-3.63265625,61.58515602767756
1361631784.25,0.2921965,33.51166666666666,70.72666664277334,-3.0083854166666666,61.556174670195304
1361631784.5,0.2919295833333333,33.50833333333333,70.77333333333334,-2.10703125,61.52645917290946
1361631784.75,0.29160925,33.505,70.82000002389334,-1.703541666666667,61.51384022414578
1361631785.0,0.2912355,33.50166666666667,70.86666666666667,-1.649296875,61.5079549335295
1361631785.25,0.290808375,33.498333333333335,70.91416664234667,-1.7406249999999999,61.49754177061141
1361631785.5,0.29038125,33.495000000000005,70.96166666666667,-2.5767447916666666,61.49601823304797
1361631785.75,0.2900075416666667,33.49291666666667,71.00916669098666,-3.0139322916666664,61.49707757452131
1361631786.0,0.2896338333333333,33.49208333333333,71.05666666666666,-3.0051302083333336,61.48565045884032
1361631786.25,0.2893135,33.49125,71.10083331071999,-2.7657812500000003,61.45308327630557
1361631786.5,0.2889931666666667,33.49041666666667,71.145,-2.6666666666666665,61.42797642117262
1361631786.75,0.28872625,33.49,71.18916668928,-2.6717708333333334,61.404440961420185
1361631787.0,0.28851275000000004,33.49,71.23333333333333,-2.7069791666666667,61.393301024274514
1361631787.25,0.288406,33.49,71.27999997610667,-2.5937239583333334,61.393131933107185
1361631787.5,0.2884594166666667,33.49,71.32666666666667,-2.3822135416666668,61.398646967108924
1361631787.75,0.28856624999999997,33.49041666666667,71.37333335722667,-1.973671875,61.39601599580123
1361631788.0,0.28867308333333336,33.49125,71.42,-1.649375,61.37980298336541
1361631788.25,0.2889400416666667,33.49208333333333,71.47416663893333,-1.5283333333333333,61.36265558781853
1361631788.5,0.28931375,33.492916666666666,71.52833333333334,-1.1139322916666667,61.3356479600821
1361631788.75,0.2896874583333333,33.495000000000005,71.58250002773333,-0.48666666666666664,61.30939596007995
1361631789.0,0.29006116666666665,33.498333333333335,71.63666666666666,-0.0018489583333333285,61.28381060755698
1361631789.25,0.2903815,33.50166666666667,71.70249996629332,0.654765625,61.2603879532439
1361631789.5,0.29075524999999997,33.505,71.76833333333332,1.6191927083333333,61.24957522317293
1361631789.75,0.29112899999999997,33.50833333333333,71.83416670037333,2.207369791666667,61.23305765013223
1361631790.0,0.2915027083333333,33.51166666666666,71.89999999999999,2.339166666666667,61.19718603675275
1361631790.25,0.2919831666666666,33.515,71.97083329706666,2.500833333333333,61.156734585244344
1361631790.5,0.29251699999999997,33.51833333333333,72.04166666666666,2.8618229166666667,61.12491836278132
1361631790.75,0.293638125,33.52125,72.11250003626667,3.2667187500000003,61.100974507908084
1361631791.0,0.29529316666666666,33.52375,72.18333333333334,3.642734375,61.09199500418138
1361631791.25,0.2968948333333334,33.52625,72.25333329749333,4.303828125,61.0880367505056
1361631791.5,0.29838975,33.528749999999995,72.32333333333332,4.813125,61.09646101425918
1361631791.75,0.2998846666666667,33.53,72.39333336917333,4.832682291666667,61.11075159490784
1361631792.0,0.30143295833333333,33.53,72.46333333333332,4.850338541666667,61.12798064655539
1361631792.25,0.30298125000000004,33.53,72.56249994922666,4.753411458333334,61.15433642352815
1361631792.5,0.30442275,33.53,72.66166666666666,4.356484375,61.17126757871526
1361631792.75,0.30575745833333334,33.530833333333334,72.76083338410666,4.3542708333333335,61.192332181491594
1361631793.0,0.3069854166666667,33.532500000000006,72.86,4.848203125,61.2208630797997
1361631793.25,0.308106625,33.534166666666664,72.98916660053334,5.3234635416666665,61.249948846996034
1361631793.5,0.30917445833333335,33.535833333333336,73.11833333333334,5.345624999999999,61.274681456224634
1361631793.75,0.309655,33.5375,73.24750006613333,5.0500260416666665,61.29446685931308
1361631794.0,0.30960162500000005,33.53916666666667,73.37666666666667,5.055104166666667,61.309522276460456
1361631794.25,0.309494875,33.54083333333333,73.52416659114667,4.919192708333333,61.32010919759221
1361631794.5,0.30938812499999996,33.5425,73.67166666666665,4.384427083333334,61.32546281956882
1361631794.75,0.309281375,33.54416666666666,73.81916674218665,4.035677083333334,61.32610020640693
1361631795.0,0.30912125,33.545833333333334,73.96666666666665,3.7303125,61.32520813963151
1361631795.25,0.3090145,33.54749999999999,74.11416659114666,3.2341927083333335,61.31389862324891
1361631795.5,0.3090145,33.549166666666665,74.26166666666666,2.64296875,61.29756649295422
1361631795.75,0.309067875,33.55,74.40916674218666,1.7403385416666666,61.281234362659546
1361631796.0,0.309228,33.55,74.55666666666666,0.8439322916666666,61.26490223236487
1361631796.25,0.3094415,33.55,74.67833327103999,-0.13002604166666668,61.24857010207018
1361631796.5,0.309655,33.55,74.8,-1.0389322916666666,61.23223797177551
1361631796.75,0.30992191666666663,33.55,74.92166672896,-1.487265625,61.21590584148083
1361631797.0,0.31024225,33.55,75.04333333333334,-2.056901041666667,61.19957371118614
1361631797.25,0.31056258333333336,33.55,75.12499995818666,-2.764921875,61.18324158089147
1361631797.5,0.3108829166666667,33.55,75.20666666666668,-3.0070312500000003,61.16690945059679
1361631797.75,0.31120325,33.55,75.28833337514668,-2.942161458333333,61.15015045716216
1361631798.0,0.31152358333333335,33.55,75.37,-2.529114583333333,61.13492091734104
1361631798.25,0.31179054166666664,33.55,75.39666665301334,-2.1553385416666666,61.129898303428966
1361631798.5,0.312004125,33.55,75.42333333333335,-1.8969270833333332,61.12989830342897
1361631798.75,0.31221770833333334,33.55,75.45000001365334,-1.0838020833333335,61.129898303428966
1361631799.0,0.3123779166666667,33.55,75.47666666666667,-0.21388020833333346,61.12878974454623
1361631799.25,0.31248475000000003,33.55,75.47583333376,0.7113281249999998,61.122692670691215
1361631799.5,0.3125915833333333,33.55,75.475,1.695911458333333,61.113824199629356
1361631799.75,0.312645,33.549166666666665,75.47416666624,2.38546875,61.1049557285675
1361631800.0,0.31269837500000003,33.54749999999999,75.47333333333331,3.0306510416666668,61.096087257505644
1361631800.25,0.312805125,33.545833333333334,75.48333332821332,3.817682291666667,61.08721878644378
1361631800.5,0.312911875,33.54416666666666,75.49333333333331,4.404322916666667,61.078350315381925
1361631800.75,0.313018625,33.5425,75.50333333845332,4.7563281250000005,61.07003612376144
1361631801.0,0.31317875,33.54083333333333,75.51333333333332,4.745807291666667,61.061721932140955
1361631801.25,0.313338875,33.53916666666667,75.54249998506666,4.851145833333333,61.0528534610791
1361631801.5,0.31349899999999997,33.5375,75.57166666666666,5.125494791666666,61.043984990017236
1361631801.75,0.313659125,33.535833333333336,75.60083334826666,5.054505208333333,61.035116518955384
1361631802.0,0.31381924999999994,33.534166666666664,75.63,4.803958333333333,61.027356606776266
1361631802.25,0.31413954166666663,33.532500000000006,75.66999997952,4.519791666666666,61.02458520956943
1361631802.5,0.3148869583333333,33.530833333333334,75.71,4.413385416666666,61.02458520956943
1361631802.75,0.3160615,33.53,75.75000002047999,4.389609375,61.02458520956943
1361631803.0,0.3172894583333333,33.53,75.78999999999999,4.071276041666667,61.02458520956943
1361631803.25,0.31846404166666664,33.53,75.8274999808,3.714609375,61.02458520956943
1361631803.5,0.319638625,33.53,75.865,3.828203125,61.02458520956943
1361631803.75,0.3208132083333333,33.53,75.90250001919999,4.0269531249999995,61.02458520956943
1361631804.0,0.32193441666666667,33.53,75.94,4.20796875,61.02458520956943
1361631804.25,0.323055625,33.53,75.98416664405333,4.386302083333334,61.02458520956943
1361631804.5,0.32417683333333336,33.53,76.02833333333334,4.627005208333334,61.02458520956943
1361631804.75,0.32529804166666665,33.53,76.07250002261333,4.7898958333333335,61.02761254807231
1361631805.0,0.32641925,33.53,76.11666666666666,4.6117968750000005,61.03648101913416
1361631805.25,0.3272735,33.53,76.17333330432,4.435442708333333,61.04560505461055
1361631805.5,0.327700625,33.53,76.22999999999999,4.316692708333333,61.06383476869389
1361631805.75,0.32764720833333333,33.530833333333334,76.28666669567998,4.168125,61.090478000583765
1361631806.0,0.327433625,33.532500000000006,76.34333333333332,4.4926562500000005,61.12937208363561
1361631806.25,0.3272734166666667,33.534166666666664,76.41416663039999,4.684895833333333,61.17766240010607
1361631806.5,0.32711320833333335,33.535833333333336,76.48499999999999,4.033333333333334,61.218209382117344
1361631806.75,0.326953,33.5375,76.5558333696,2.8760677083333337,61.25757084277793
1361631807.0,0.3267927916666667,33.53916666666667,76.62666666666667,1.4539583333333335,61.28701306553555
1361631807.25,0.32657920833333337,33.54083333333333,76.69916662954667,0.1552083333333334,61.312213666892085
1361631807.5,0.326365625,33.5425,76.77166666666668,-1.2124739583333333,61.337414268248615
1361631807.75,0.3260986666666667,33.54333333333333,76.84416670378667,-2.508828125,61.35958753110228
1361631808.0,0.32577833333333334,33.54333333333333,76.91666666666667,-3.1721614583333335,61.375919661396956
1361631808.25,0.325511375,33.54333333333333,76.9833332992,-3.8550520833333333,61.391996227277104
1361631808.5,0.32513762500000004,33.54333333333333,77.05000000000001,-4.772005208333334,61.398967114550295
1361631808.75,0.3247105416666667,33.54125,77.11666670080001,-5.702578125,61.39752448401696
1361631809.0,0.32428345833333333,33.537083333333335,77.18333333333334,-6.709296875,61.383831002321664
1361631809.25,0.323803,33.532916666666665,77.23749997226666,-7.508697916666667,61.35257522206038
1361631809.5,0.3233225416666667,33.52875,77.29166666666666,-7.207916666666667,61.32804201811489
1361631809.75,0.32278866666666667,33.52458333333333,77.34583336106667,-6.033723958333334,61.29856978665958
1361631810.0,0.322201375,33.52041666666667,77.39999999999999,-4.452812499999999,61.27799603496382
1361631810.25,0.3216674583333333,33.51625000000001,77.43833331370666,-3.08,61.26166390466914
1361631810.5,0.3211335416666667,33.51208333333334,77.47666666666666,-1.649296875,61.245331774374456
1361631810.75,0.320653,33.50875,77.51500001962665,-0.1335677083333334,61.22899964407978
1361631811.0,0.3202258333333333,33.50625,77.55333333333333,1.0268489583333331,61.2126675137851
1361631811.25,0.3198520833333333,33.503750000000004,77.59249997994667,2.2135416666666665,61.196335383490414
1361631811.5,0.31958512499999997,33.501250000000006,77.63166666666666,3.5185937499999995,61.18102401133916
1361631811.75,0.31942491666666667,33.5,77.67083335338666,4.85171875,61.16469188104448
1361631812.0,0.3193180833333333,33.5,77.71,6.037604166666667,61.16162960661422
1361631812.25,0.31921125,33.5,77.75999997439999,7.153828125,61.16979567176156
1361631812.5,0.3191044166666666,33.5,77.81,7.6648958333333335,61.17898249505232
1361631812.75,0.319051,33.5,77.8600000256,7.750833333333333,61.194293867203584
1361631813.0,0.319051,33.5,77.91,7.519973958333334,61.21062599749826
1361631813.25,0.319051,33.5,77.97166663509333,7.345520833333333,61.22695812779295
1361631813.5,0.3191044166666666,33.5,78.03333333333333,6.962473958333333,61.243290258087626
1361631813.75,0.31921125,33.5,78.09500003157335,6.361640625,61.2596223883823
1361631814.0,0.3193180833333333,33.5,78.15666666666668,5.932083333333332,61.275954518676976
1361631814.25,0.31942491666666667,33.5,78.22333329920001,5.6718489583333325,61.29228664897166
1361631814.5,0.31958512499999997,33.5,78.29,5.307213541666667,61.30759802112292
1361631814.75,0.3197987083333333,33.5,78.3566667008,4.921145833333333,61.32448170239564
1361631815.0,0.32006566666666664,33.5,78.42333333333333,4.577812499999999,61.33636879247445
1361631815.25,0.320386,33.5,78.49583329621333,4.224401041666666,61.345193608123026
1361631815.5,0.320813125,33.5,78.56833333333333,3.7914843749999996,61.3540184237716
1361631815.75,0.32140041666666663,33.5,78.64083337045332,3.3782552083333335,61.362843239420165
1361631816.0,0.3220410833333333,33.5,78.71333333333332,3.295598958333333,61.37166805506873
1361631816.25,0.32268175,33.5,78.78249996458666,3.240390625,61.3804928707173
1361631816.5,0.323269,33.5,78.85166666666666,3.3646875000000005,61.38931768636587
1361631816.75,0.3238028333333333,33.5,78.92083336874666,3.7712499999999998,61.398142502014444
1361631817.0,0.32439008333333336,33.5,78.99,4.09484375,61.40696731766301
1361631817.25,0.3249773333333333,33.5,79.06666662741333,4.181484375,61.415792133311584
1361631817.5,0.32545779166666666,33.5,79.14333333333333,4.329401041666666,61.42461694896014
1361631817.75,0.325884875,33.5,79.22000003925334,4.393229166666667,61.43289021363068
1361631818.0,0.3262585833333333,33.5,79.29666666666667,4.2091666666666665,61.43289021363068
1361631818.25,0.32657891666666666,33.5,79.38249995605334,4.214557291666667,61.43289021363068
1361631818.5,0.3267924583333333,33.5,79.46833333333333,4.510833333333333,61.43289021363068
1361631818.75,0.32684583333333334,33.5,79.55416671061333,4.534166666666667,61.43289021363068
1361631819.0,0.32689925000000003,33.5,79.64,4.177473958333334,61.43289021363068
1361631819.25,0.3270060833333333,33.5,79.73583328426666,4.209140625,61.43289021363068
1361631819.5,0.3271129166666667,33.5,79.83166666666666,4.55078125,61.43289021363068
1361631819.75,0.32721975,33.5,79.92750004906667,4.450651041666667,61.43289021363068
1361631820.0,0.32727316666666667,33.5,80.02333333333333,4.146744791666666,61.43289021363068
1361631820.25,0.32732658333333337,33.5,80.11333328725333,3.9562239583333336,61.43289021363068
1361631820.5,0.32743341666666664,33.5,80.20333333333332,3.7314843750000004,61.43289021363068
1361631820.75,0.32754025000000003,33.499583333333334,80.29333337941333,3.3736197916666666,61.43289021363068
1361631821.0,0.32764708333333337,33.49875,80.38333333333333,3.29359375,61.43289021363068
1361631821.25,0.3277539166666667,33.49791666666666,80.44333330261333,3.18359375,61.43390704538782
1361631821.5,0.32780733333333334,33.49708333333333,80.50333333333333,2.867942708333333,61.45011607864288
1361631821.75,0.3277539583333334,33.496249999999996,80.56333336405332,2.791223958333333,61.46759346947241
1361631822.0,0.32764716666666666,33.495416666666664,80.62333333333332,2.892395833333333,61.48519762081067
1361631822.25,0.32748695833333336,33.49458333333333,80.66333331285333,2.5229947916666666,61.50280177214893
1361631822.5,0.32727337500000003,33.49375,80.70333333333332,1.8501041666666669,61.52040592348718
1361631822.75,0.32705979166666665,33.492916666666666,80.74333335381331,1.4480729166666668,61.53801007482544
1361631823.0,0.32679283333333337,33.49208333333333,80.78333333333332,1.2643489583333334,61.5556142261637
1361631823.25,0.3264725,33.49125,80.81666664959998,1.3105729166666666,61.57321837750195
1361631823.5,0.3261521666666667,33.49041666666667,80.85,1.4724218750000002,61.590822528840214
1361631823.75,0.3258318333333333,33.48916666666667,80.8833333504,1.8431510416666665,61.60842668017847
1361631824.0,0.3255115,33.487500000000004,80.91666666666666,2.0296875,61.62603083151672
1361631824.25,0.32524454166666666,33.48583333333334,80.96666664106665,2.0669791666666666,61.64261815109785
1361631824.5,0.324977625,33.484166666666674,81.01666666666665,2.1190104166666663,61.644013269181045
1361631824.75,0.3248175,33.4825,81.06666669226666,2.2406770833333334,61.644140029689765
1361631825.0,0.32460395833333333,33.48083333333333,81.11666666666666,2.4248177083333333,61.644140029689765
1361631825.25,0.32433700000000004,33.479166666666664,81.18333329919999,2.6321875,61.644140029689765
1361631825.5,0.32412341666666666,33.4775,81.25,2.8642968750000004,61.644140029689765
1361631825.75,0.32390983333333334,33.475833333333334,81.3166667008,3.2026302083333333,61.619007938791334
1361631826.0,0.323749625,33.47416666666667,81.38333333333333,3.5115625,61.609583404704416
1361631826.25,0.32364279166666665,33.472500000000004,81.45166663168,3.466588541666667,61.587592825168294
1361631826.5,0.3235359583333333,33.47083333333333,81.52000000000001,3.306510416666667,61.53732864337143
1361631826.75,0.32337575,33.47083333333333,81.58833336832001,3.1302604166666668,61.48706446157457
1361631827.0,0.32316216666666664,33.4725,81.65666666666668,3.062317708333333,61.43680027977771
1361631827.25,0.32289520833333335,33.47416666666667,81.72416663210667,3.0248177083333334,61.386536097980844
1361631827.5,0.322681625,33.475833333333334,81.79166666666669,2.9730729166666667,61.33627191618398
1361631827.75,0.3224680416666667,33.47666666666667,81.85916670122668,2.81203125,61.28600773438711
1361631828.0,0.322307875,33.47666666666667,81.92666666666668,2.683515625,61.23574355259026
1361631828.25,0.322201125,33.47666666666667,81.9933332992,2.743828125,61.18547937079339
1361631828.5,0.322094375,33.47666666666667,82.06,2.780208333333333,61.13521518899653
1361631828.75,0.32204099999999997,33.47666666666667,82.12666670080002,2.7260416666666667,61.110083098098094
1361631829.0,0.322041,33.47666666666667,82.19333333333334,2.7045052083333334,61.06924345038815
1361631829.25,0.322041,33.47666666666667,82.24583330645333,2.8724218749999992,61.04096984812741
1361631829.5,0.322041,33.47666666666667,82.29833333333333,3.0205208333333338,61.04096984812741
1361631829.75,0.322094375,33.475833333333334,82.35083336021333,3.136354166666667,61.04096984812741
1361631830.0,0.32225454166666667,33.47416666666667,82.40333333333332,3.263385416666667,61.05039438221433
1361631830.25,0.322468125,33.472500000000004,82.43999998122666,3.42796875,61.078667984475054
1361631830.5,0.3226282916666667,33.47083333333333,82.47666666666666,3.605625,61.1100830980981
1361631830.75,0.322841875,33.47,82.51333335210666,3.8908333333333336,61.11322460946041
1361631831.0,0.32300204166666663,33.47,82.55,4.13015625,61.113224609460396
1361631831.25,0.32316220833333337,33.47,82.56416665941333,4.194140625,61.12237075697488
1361631831.5,0.32337579166666663,33.47,82.57833333333333,4.1860156250000005,61.138833822500935
1361631831.75,0.323536,33.47,82.59250000725334,4.113541666666667,61.14432151100962
1361631832.0,0.32364283333333327,33.47,82.60666666666667,4.346197916666667,61.16117187071433
1361631832.25,0.32374966666666666,33.47,82.61916666026667,4.599114583333334,61.18796371214945
1361631832.5,0.32390987499999996,33.47,82.63166666666666,4.941119791666666,61.202097037947404
1361631832.75,0.32412345833333334,33.469166666666666,82.64416667306666,5.404869791666667,61.20930073991244
1361631833.0,0.324283625,33.4675,82.65666666666667,5.839192708333333,61.207079907790565
1361631833.25,0.324390375,33.46583333333333,82.66583332864,5.661197916666667,61.18767240025603
1361631833.5,0.3245505416666667,33.464166666666664,82.675,5.293046875,61.16512338135919
1361631833.75,0.3246572916666667,33.4625,82.68416667135999,5.091796874999999,61.17084796472309
1361631834.0,0.3248708333333334,33.46083333333333,82.69333333333333,5.036848958333333,61.17954368317293
1361631834.25,0.32513775,33.45916666666667,82.69999999658667,4.5064062499999995,61.18249624519995
1361631834.5,0.32535125000000004,33.4575,82.70666666666666,3.3242447916666666,61.18149192033212
1361631834.75,0.32561816666666665,33.45583333333334,82.71333333674666,2.6568489583333332,61.20085803236527
1361631835.0,0.3259385,33.45416666666667,82.72,1.4328385416666667,61.20780016714363
1361631835.25,0.32625883333333333,33.4525,82.72166666581333,0.05950520833333319,61.20505565279441
1361631835.5,0.3265257916666667,33.450833333333335,82.72333333333333,-1.3547916666666666,61.21917141331096
1361631835.75,0.326846125,33.45,82.72500000085333,-2.306901041666667,61.24123538339225
1361631836.0,0.3275935416666667,33.45,82.72666666666666,-3.1006770833333337,61.26329935347354
1361631836.25,0.32860791666666667,33.45,82.72416666794666,-3.3029166666666665,61.28370093079368
1361631836.5,0.32967566666666664,33.45,82.72166666666666,-3.277890625,61.30410250811379
1361631836.75,0.3307434166666667,33.45,82.71916666538665,-3.8995052083333337,61.324504085433915
1361631837.0,0.3317577916666667,33.45,82.71666666666665,-4.705260416666667,61.3450760390304
1361631837.25,0.3327187916666667,33.45,82.71166666922666,-5.021484375000001,61.36224500153523
1361631837.5,0.33367979166666667,33.45,82.70666666666665,-4.052109375,61.37605393292333
1361631837.75,0.33458737499999996,33.45083333333334,82.70166666410665,-3.555520833333334,61.380467804427816
1361631838.0,0.3354415416666667,33.4525,82.69666666666666,-2.4942968750000003,61.38139355398085
1361631838.25,0.33629570833333333,33.45416666666667,82.69083333632,-1.6886718749999998,61.36621232162116
1361631838.5,0.337149875,33.45583333333334,82.685,-1.1374479166666667,61.34682933003284
1361631838.75,0.3378439166666667,33.4575,82.67916666368,-2.0648958333333334,61.32642775271271
1361631839.0,0.33805749999999996,33.45916666666667,82.67333333333333,-3.086979166666667,61.30602617539258
1361631839.25,0.33805749999999996,33.46083333333333,82.66666667007999,-3.0075520833333336,61.28562459807245
1361631839.5,0.337897375,33.4625,82.66,-2.9486979166666667,61.26522302075234
1361631839.75,0.33773725,33.4625,82.65333332992,-2.49125,61.24482144343221
1361631840.0,0.3376305,33.46083333333333,82.64666666666666,-1.9634895833333337,61.22220334243053
1361631840.25,0.33747037499999993,33.45916666666667,82.61750001493333,-1.0687239583333334,61.19459806314537
1361631840.5,0.337256875,33.4575,82.58833333333332,-0.47916666666666674,61.16588452201943
1361631840.75,0.33709675,33.454166666666666,82.55916665173332,-0.006302083333333389,61.13938750457504
1361631841.0,0.33688325,33.44916666666666,82.52999999999999,0.18752604166666667,61.11466926053893
1361631841.25,0.33666975,33.44416666666667,82.47833335978666,0.8009375,61.10580316581274
1361631841.5,0.33645624999999996,33.439166666666665,82.42666666666666,1.4188020833333332,61.096937071086536
1361631841.75,0.336296125,33.43416666666666,82.37499997354666,2.9029427083333332,61.088070976360335
1361631842.0,0.336189375,33.42916666666667,82.32333333333334,4.440390625,61.07920488163415
1361631842.25,0.33602925,33.424166666666665,82.24833337173334,4.8652604166666675,61.07033878690794
1361631842.5,0.335975875,33.41916666666666,82.17333333333333,5.427760416666666,61.061472692181745
1361631842.75,0.33592249999999996,33.416666666666664,82.09833329493333,6.063177083333334,61.052606597455544
1361631843.0,0.3358157499999999,33.416666666666664,82.02333333333333,6.655677083333334,61.04706528825167
1361631843.25,0.335762375,33.416666666666664,81.94500004010666,6.869921875,61.04651115733128
1361631843.5,0.335762375,33.416666666666664,81.86666666666666,6.748463541666667,61.05316072837593
1361631843.75,0.335709,33.4175,81.78833329322666,6.785494791666667,61.05648551389825
1361631844.0,0.335709,33.41916666666666,81.71,6.808776041666667,61.06535160862446
1361631844.25,0.335709,33.42083333333333,81.62833337514667,6.596640625,61.074217703350655
1361631844.5,0.335709,33.4225,81.54666666666665,6.511276041666668,61.08308379807685
1361631844.75,0.335709,33.424166666666665,81.46499995818665,6.652421875000001,61.09194989280306
1361631845.0,0.335709,33.42583333333334,81.38333333333333,6.718359375000001,61.100815987529245
1361631845.25,0.335709,33.4275,81.30000004266667,6.602604166666667,61.110320268418576
1361631845.5,0.335709,33.42916666666667,81.21666666666667,6.177630208333333,61.13275157974459
1361631845.75,0.335709,33.42916666666667,81.13333329066666,5.796067708333332,61.15998208032732
1361631846.0,0.335762375,33.4275,81.05,5.391119791666667,61.187801961955586
1361631846.25,0.335762375,33.42583333333333,80.97083337386667,4.896119791666666,61.21596137216114
1361631846.5,0.335762375,33.424166666666665,80.89166666666667,4.0105208333333335,61.23305884778887
1361631846.75,0.33581575,33.42249999999999,80.81249995946666,3.4612760416666664,61.24123237553791
1361631847.0,0.33592249999999996,33.420833333333334,80.73333333333333,2.3447916666666666,61.24123237553791
1361631847.25,0.33602925,33.41916666666666,80.65166670848,1.2732291666666666,61.24123237553791
1361631847.5,0.336136,33.4175,80.57,0.642890625,61.24123237553791
1361631847.75,0.33624275,33.41583333333333,80.48833329152,-0.2653385416666667,61.24123237553791
1361631848.0,0.3364562916666667,33.41416666666667,80.40666666666665,-1.0281510416666668,61.24123237553791
1361631848.25,0.336776625,33.412499999999994,80.31750004565332,-1.6722916666666665,61.24059418937478
1361631848.5,0.3373105,33.41083333333333,80.22833333333332,-2.3490625,61.22702897277497
1361631848.75,0.33837825000000005,33.41,80.13916662101333,-2.8495833333333334,61.208664566918436
1361631849.0,0.3397129583333333,33.41,80.05,-3.1424739583333334,61.18860251817559
1361631849.25,0.3411544166666667,33.41,79.94583338666666,-3.49,61.16820094085546
1361631849.5,0.34270266666666666,33.41,79.84166666666667,-3.230833333333333,61.149995203386965
1361631849.75,0.34419754166666666,33.41,79.73749994666666,-3.1363802083333336,61.13572623551366
1361631850.0,0.34563904166666665,33.41,79.63333333333333,-2.3999739583333333,61.12686014078745
1361631850.25,0.3470805416666667,33.41,79.52166672384,-1.8145312500000002,61.117994046061256
1361631850.5,0.3485220416666666,33.41,79.41,-1.4337239583333334,61.10912795133506
1361631850.75,0.34996354166666666,33.41,79.29833327616,-0.7785416666666668,61.10026185660886
1361631851.0,0.35124483333333334,33.41,79.18666666666667,-0.3471614583333334,61.091395761882666
1361631851.25,0.35236595833333334,33.41,79.07583339007999,0.1879166666666666,61.08862510728073
1361631851.5,0.3532201666666666,33.41,78.965,1.2633072916666666,61.08862510728073
1361631851.75,0.3535405,33.409166666666664,78.85416660992,2.0793229166666665,61.088625107280734
1361631852.0,0.353487125,33.4075,78.74333333333333,2.48390625,61.08862510728073
1361631852.25,0.353380375,33.405833333333334,78.63666672128,3.1453124999999997,61.091175304445734
1361631852.5,0.35311345833333335,33.40416666666666,78.53,3.838723958333334,61.1143475363678
1361631852.75,0.3528465416666666,33.401666666666664,78.42333327872,4.214322916666667,61.14361520841413
1361631853.0,0.35257962499999995,33.39833333333333,78.31666666666666,4.3540625,61.17288288046046
1361631853.25,0.35231270833333334,33.395,78.20166672554666,4.686197916666667,61.20215055250679
1361631853.5,0.35204579166666666,33.391666666666666,78.08666666666666,4.860416666666667,61.23141822455312
1361631853.75,0.351778875,33.38833333333333,77.97166660778666,4.889192708333334,61.260685896599426
1361631854.0,0.351565375,33.385,77.85666666666665,4.964322916666666,61.28995356864576
1361631854.25,0.35140525,33.38166666666667,77.72583340031998,4.910520833333334,61.313125800567825
1361631854.5,0.3512450833333334,33.37833333333333,77.595,4.441744791666667,61.33352737788795
1361631854.75,0.3510849166666667,33.3775,77.46416659968,4.023463541666667,61.35392895520807
1361631855.0,0.350978125,33.37916666666667,77.33333333333333,3.9374479166666667,61.374330532528205
1361631855.25,0.3508179166666667,33.38083333333333,77.19333340501333,3.70375,61.39218191268331
1361631855.5,0.35071108333333334,33.3825,77.05333333333333,3.217083333333333,61.39218191268331
1361631855.75,0.35060424999999995,33.385,76.91333326165332,3.0198697916666664,61.39218191268331
1361631856.0,0.3504974166666666,33.38833333333333,76.77333333333333,3.1027864583333336,61.39218191268331
1361631856.25,0.35039058333333334,33.39166666666666,76.63750006954666,3.2124479166666666,61.39218191268331
1361631856.5,0.35028375,33.394999999999996,76.50166666666667,3.3582812499999997,61.39218191268331
1361631856.75,0.3501769166666666,33.39833333333333,76.36583326378666,3.450182291666667,61.39218191268331
1361631857.0,0.3500700833333333,33.401666666666664,76.22999999999999,3.4680989583333335,61.39154500026393
1361631857.25,0.34996325,33.404999999999994,76.10666672981333,3.6101562499999997,61.387723525747624
1361631857.5,0.3499098333333333,33.40833333333333,75.98333333333332,3.8718229166666664,61.384538963650705
1361631857.75,0.34985641666666667,33.409166666666664,75.85999993685333,4.0184375,61.37587539374678
1361631858.0,0.349803,33.4075,75.73666666666666,4.019270833333333,61.368825855638725
1361631858.25,0.349803,33.405833333333334,75.62416672426666,4.2403125,61.36755203079996
1361631858.5,0.349803,33.40416666666666,75.51166666666666,4.638229166666666,61.36755203079995
1361631858.75,0.349803,33.402499999999996,75.39916660906665,4.9158333333333335,61.36755203079996
1361631859.0,0.349803,33.40083333333333,75.28666666666665,5.074166666666666,61.36755203079996
1361631859.25,0.349803,33.399166666666666,75.16416672938665,5.1915625,61.35990908176735
1361631859.5,0.349803,33.3975,75.04166666666666,5.057630208333333,61.35672451967043
1361631859.75,0.349803,33.395833333333336,74.91916660394666,4.692682291666666,61.35672451967043
1361631860.0,0.349803,33.39416666666667,74.79666666666667,4.60296875,61.35736143208982
1361631860.25,0.349803,33.392500000000005,74.65500007253334,4.359010416666666,61.361182906606125
1361631860.5,0.349749625,33.39083333333333,74.51333333333334,3.7865625,61.365724513265256
1361631860.75,0.349642875,33.39,74.37166659413333,3.2515364583333333,61.376338824185986
1361631861.0,0.349536125,33.39,74.23,2.789739583333333,61.387034373018004
1361631861.25,0.349429375,33.39,74.06166675285333,2.178880208333333,61.39051157730599
1361631861.5,0.34932262499999994,33.39,73.89333333333333,1.2108593749999998,61.38176445508767
1361631861.75,0.349215875,33.39,73.72499991381332,-0.30450520833333344,61.38158806565995
1361631862.0,0.349109125,33.39,73.55666666666666,-1.8866666666666667,61.3817525817286
1361631862.25,0.34905575,33.39,73.38833341952,-3.213177083333333,61.39431156178665
1361631862.5,0.349002375,33.39,73.22,-4.4663281249999995,61.39307702193242
1361631862.75,0.349002375,33.38916666666667,73.05166658047999,-5.832213541666667,61.39030997763641
1361631863.0,0.349002375,33.387499999999996,72.88333333333333,-7.386145833333334,61.39140285153698
1361631863.25,0.349002375,33.38583333333333,72.72583341397333,-7.805703125,61.38121225282683
1361631863.5,0.34905575,33.384166666666665,72.56833333333333,-7.306614583333334,61.37085248829367
1361631863.75,0.3492159166666666,33.3825,72.41083325269332,-7.449114583333333,61.35989902730591
1361631864.0,0.3494295,33.380833333333335,72.25333333333333,-6.930312499999999,61.34716527888335
1361631864.25,0.3497498333333333,33.37916666666666,72.10750007466666,-6.140520833333333,61.33443122981342
1361631864.5,0.35023033333333337,33.3775,71.96166666666667,-5.222708333333333,61.32818037926916
1361631864.75,0.3507108333333333,33.37583333333333,71.81583325866667,-3.8895312500000006,61.307955191376756
1361631865.0,0.35119133333333336,33.37416666666667,71.67,-2.248515625,61.287389097987976
1361631865.25,0.3516184583333333,33.372499999999995,71.52750007296,-0.7362500000000001,61.26207148964241
1361631865.5,0.3520455833333333,33.37083333333333,71.38499999999999,0.8134635416666667,61.24608901427342
1361631865.75,0.35241933333333336,33.37,71.24249992703999,2.7342708333333334,61.22845448124931
1361631866.0,0.3527930833333333,33.37,71.09999999999998,4.488125,61.20696003002862
1361631866.25,0.35306004166666666,33.37,70.95583340714666,5.1575,61.196749051418635
1361631866.5,0.35322024999999996,33.37,70.81166666666665,4.986901041666667,61.18535019406946
1361631866.75,0.35322024999999996,33.37,70.66749992618665,5.678984375,61.173951336720286
1361631867.0,0.3531668333333333,33.37,70.52333333333333,5.800729166666667,61.16731769504897
1361631867.25,0.3530066666666667,33.37,70.37583340885332,5.65953125,61.17156505261166
1361631867.5,0.3526329166666667,33.37,70.22833333333332,5.6933333333333325,61.18622349679698
1361631867.75,0.3522591666666666,33.37,70.08083325781332,5.788020833333333,61.20662507411709
1361631868.0,0.3518854166666667,33.37,69.93333333333332,5.236067708333334,61.2332994378931
1361631868.25,0.35151166666666667,33.37,69.79250007210666,4.593906250000001,61.26251647633023
1361631868.5,0.35119133333333336,33.37,69.65166666666666,4.488046875,61.291733514767344
1361631868.75,0.3509244166666667,33.37,69.51083326122665,4.4839843749999995,61.320950553204455
1361631869.0,0.3506575,33.37,69.36999999999999,5.035494791666666,61.35016759164157
1361631869.25,0.350497375,33.37,69.23916673365332,5.60515625,61.392320454477975
1361631869.5,0.350444,33.37,69.10833333333332,6.18890625,61.43358919262531
1361631869.75,0.35055079166666664,33.37083333333333,68.97749993301332,6.484921875,61.47101129348824
1361631870.0,0.35065758333333336,33.372499999999995,68.84666666666665,6.597578125000001,61.4968172440369
1361631870.25,0.350764375,33.37416666666666,68.73166672554665,6.262161458333334,61.517627012489804
1361631870.5,0.3509779583333333,33.375833333333325,68.61666666666665,6.303385416666667,61.528170153804716
1361631870.75,0.35119154166666666,33.376666666666665,68.50166660778666,6.9413802083333325,61.515002982754574
1361631871.0,0.35145849999999995,33.376666666666665,68.38666666666666,8.061119791666666,61.49445765857974
1361631871.25,0.35172545833333335,33.376666666666665,68.27333339136,8.919661458333334,61.4713696597438
1361631871.5,0.351939,33.376666666666665,68.16,9.114036458333333,61.44828166090786
1361631871.75,0.3522059166666667,33.376666666666665,68.04666660864,9.357421875,61.42519366207191
1361631872.0,0.35247283333333335,33.376666666666665,67.93333333333334,9.253385416666667,61.402105663235965
1361631872.25,0.35273975,33.376666666666665,67.81833339221333,8.899661458333332,61.36608184000074
1361631872.5,0.35306008333333333,33.376666666666665,67.70333333333335,8.876588541666667,61.330942141454564
1361631872.75,0.3533270416666667,33.375833333333325,67.58833327445335,8.850182291666668,61.299649080192815
1361631873.0,0.35359399999999996,33.37416666666666,67.47333333333334,8.7965625,61.27529197129511
1361631873.25,0.3539143333333333,33.372499999999995,67.35250006186668,9.339322916666665,61.24704548221144
1361631873.5,0.3540745,33.37083333333333,67.23166666666667,9.242604166666666,61.22890207629798
1361631873.75,0.35423466666666664,33.37,67.11083327146666,8.659635416666667,61.238712809192585
1361631874.0,0.35428804166666666,33.37,66.99,7.7699218750000005,61.25921104636245
1361631874.25,0.3543414166666667,33.37,66.86750006272,7.027083333333334,61.28076911595841
1361631874.5,0.3543947916666667,33.37,66.745,6.745312500000001,61.30550668283269
1361631874.75,0.35434137499999996,33.37,66.62249993728,6.498854166666667,61.33024424970699
1361631875.0,0.3542879583333333,33.37,66.5,5.904895833333334,61.348451366301504
1361631875.25,0.3542345416666666,33.37,66.37666672981334,5.43359375,61.37885974105098
1361631875.5,0.35412770833333335,33.37,66.25333333333333,4.729505208333333,61.408205060854094
1361631875.75,0.35402087499999996,33.37,66.12999993685332,4.3949218750000005,61.441445940184074
1361631876.0,0.3539140416666666,33.37,66.00666666666666,4.094635416666667,61.474686819514055
1361631876.25,0.35375383333333327,33.37,65.89250005845332,3.5257291666666664,61.50737519381386
1361631876.5,0.35370041666666663,33.37,65.77833333333334,3.740234375,61.53411423666651
1361631876.75,0.35370041666666663,33.37,65.66416660821334,3.5671354166666664,61.555424464827944
1361631877.0,0.35380725,33.37,65.55,3.2675520833333334,61.562410469980165
1361631877.25,0.35391408333333335,33.37,65.43500005888,3.3797656249999997,61.554779752186384
1361631877.5,0.35402091666666663,33.37,65.32,3.49609375,61.54927341990936
1361631877.75,0.354181125,33.37,65.20499994112,3.7279427083333334,61.547072885551195
1361631878.0,0.35439470833333336,33.37,65.08999999999999,4.227526041666667,61.55766476307053
1361631878.25,0.35466166666666665,33.37,64.97833339050666,4.834921875,61.556055382434884
1361631878.5,0.35498199999999996,33.37,64.86666666666666,6.113984375,61.559950941961745
1361631878.75,0.35530233333333333,33.37,64.75499994282666,7.465703125,61.556143611776484
1361631879.0,0.35562266666666664,33.37,64.64333333333333,8.757447916666667,61.54331948839445
1361631879.25,0.35594299999999995,33.37,64.53250005674667,9.9128125,61.52600404574287
1361631879.5,0.3562633333333334,33.37,64.42166666666667,10.626666666666667,61.50720479606603
1361631879.75,0.35653025,33.37,64.31083327658666,11.372994791666665,61.48891147748287
1361631880.0,0.35674374999999997,33.37,64.2,12.923333333333334,61.46971481061328
1361631880.25,0.35695725,33.37,64.10250004992,13.647630208333334,61.46632518218011
1361631880.5,0.35717075000000004,33.37,64.005,14.131744791666668,61.45206649285435
1361631880.75,0.357330875,33.37,63.90749995008,14.197682291666666,61.429529460338216
1361631881.0,0.357437625,33.37,63.81,14.053958333333334,61.40073046622438
1361631881.25,0.357491,33.37,63.73916670293333,13.971901041666667,61.37193147211054
1361631881.5,0.357491,33.37,63.66833333333334,13.315624999999999,61.33869059278056
1361631881.75,0.357491,33.37,63.597499963733334,12.146432291666665,61.30925704363585
1361631882.0,0.357491,33.37,63.526666666666664,10.877604166666666,61.2888402876879
1361631882.25,0.357491,33.37,63.47833335808,10.00765625,61.274657062074446
1361631882.5,0.35743762500000004,33.37,63.43,9.155078125,61.27866435509355
1361631882.75,0.357330875,33.37,63.38166664192,8.745,61.3094546098287
1361631883.0,0.35727749999999997,33.37,63.333333333333336,7.649401041666667,61.345890298253046
1361631883.25,0.35727749999999997,33.37,63.295833352533336,6.936875000000001,61.380075838760895
1361631883.5,0.35727749999999997,33.37,63.25833333333333,6.228723958333334,61.419826557366235
1361631883.75,0.35727749999999997,33.37,63.22083331413333,5.664739583333334,61.46454982124308
1361631884.0,0.35727749999999997,33.37,63.18333333333333,5.338072916666667,61.50927308511993
1361631884.25,0.35727749999999997,33.37,63.13333335893333,5.04265625,61.55399634899678
1361631884.5,0.35727749999999997,33.37,63.08333333333333,4.749322916666666,61.59871961287363
1361631884.75,0.35727749999999997,33.37,63.03333330773333,4.638046875,61.64344287675048
1361631885.0,0.35727749999999997,33.37,62.98333333333333,4.768880208333333,61.688166140627324
1361631885.25,0.3573309166666667,33.37,62.91500003498666,4.794739583333333,61.731147193439234
1361631885.5,0.35749112499999997,33.37,62.846666666666664,4.701692708333334,61.75623842251298
1361631885.75,0.35775808333333337,33.37,62.778333298346666,4.484010416666666,61.73460315747209
1361631886.0,0.35813183333333337,33.37,62.71,4.4831770833333335,61.71296789243118
1361631886.25,0.3585055833333333,33.37,62.63916670293333,4.69375,61.69133262739027
1361631886.5,0.35893274999999997,33.37,62.56833333333333,4.809114583333334,61.66914639602956
1361631886.75,0.3593599166666667,33.37,62.497499963733326,4.505807291666667,61.64365436674998
1361631887.0,0.35978708333333337,33.37,62.426666666666655,4.0851822916666665,61.62201910170907
1361631887.25,0.36021425,33.37,62.355000036693326,3.795364583333333,61.59817997138891
1361631887.5,0.3606414166666667,33.37,62.283333333333324,3.3948697916666664,61.572687942109326
1361631887.75,0.36106858333333336,33.37,62.21166662997332,2.553932291666666,61.551052677068434
1361631888.0,0.36144233333333337,33.37,62.13999999999999,1.7143229166666665,61.528866445707706
1361631888.25,0.36170925000000004,33.37,62.07500003327999,1.0417968749999997,61.50668021434699
1361631888.5,0.361869375,33.37,62.00999999999999,-0.42343750000000013,61.48393944505535
1361631888.75,0.361869375,33.37,61.94499996672,-1.987994791666667,61.47512398393835
1361631889.0,0.36165583333333334,33.37,61.879999999999995,-3.7219270833333336,61.46630852282136
1361631889.25,0.36133550000000003,33.37,61.83583335594666,-5.9971875,61.457493061704376
1361631889.5,0.36096174999999997,33.37,61.79166666666666,-7.9737760416666665,61.44922856690719
1361631889.75,0.3605345833333333,33.37,61.74749997738665,-8.920833333333333,61.44448189242965
1361631890.0,0.3601608333333333,33.37,61.70333333333332,-9.034374999999999,61.4360904761142
1361631890.25,0.35978708333333337,33.37,61.683333343573324,-9.770234375,61.4305389922803
1361631890.5,0.35941333333333336,33.37,61.66333333333333,-10.580989583333333,61.42579231780277
1361631890.75,0.35909299999999994,33.37,61.64333332309332,-10.722005208333334,61.41697685668576
1361631891.0,0.3588260833333334,33.37,61.62333333333333,-10.361302083333333,61.40871236188858
1361631891.25,0.3585591666666667,33.37,61.631666662399994,-10.763880208333333,61.40044786709141
1361631891.5,0.3583990416666667,33.37,61.63999999999999,-10.314895833333333,61.394090114290215
1361631891.75,0.3583456666666667,33.36875,61.64833333759999,-9.7365625,61.394090114290215
1361631892.0,0.3583456666666667,33.36625,61.65666666666666,-8.806354166666667,61.39409011429023
1361631892.25,0.3583990833333333,33.36375,61.67416665770666,-7.087473958333334,61.39409011429023
1361631892.5,0.3584525,33.36125,61.69166666666666,-5.48125,61.39409011429023
1361631892.75,0.3585593333333333,33.35875,61.70916667562666,-4.475520833333333,61.393878091889455
1361631893.0,0.35861275000000004,33.356249999999996,61.72666666666666,-4.3960937499999995,61.393454047087914
1361631893.25,0.35861275000000004,33.35375,61.75083332095999,-3.812578125,61.39239393508408
1361631893.5,0.35861275,33.35125,61.77499999999999,-3.1447135416666665,61.39218191268331
1361631893.75,0.3585593333333333,33.34875,61.79916667904,-2.6997395833333333,61.39218191268331
1361631894.0,0.3584525,33.346250000000005,61.82333333333333,-2.87890625,61.39218191268331
1361631894.25,0.3584525,33.34375000000001,61.84916665344,-2.3356510416666665,61.39218191268331
1361631894.5,0.3583456666666667,33.34125,61.875,-1.8799479166666666,61.39218191268331
1361631894.75,0.35829225000000003,33.34,61.90083334656,-1.998671875,61.39218191268331
1361631895.0,0.35829225000000003,33.34,61.92666666666667,-2.3376562499999998,61.39218191268331
1361631895.25,0.35829225000000003,33.34,61.95499998549333,-3.106354166666667,61.39218191268331
1361631895.5,0.35834562500000006,33.34,61.983333333333334,-3.559505208333334,61.39218191268331
1361631895.75,0.358452375,33.34,62.01166668117333,-4.2075,61.39218191268331
1361631896.0,0.35866591666666664,33.34,62.03999999999999,-4.784739583333334,61.39929504078745
1361631896.25,0.35903966666666665,33.34,62.07416664917333,-5.5409895833333325,61.41572516227496
1361631896.5,0.35941341666666665,33.34,62.108333333333334,-6.085989583333333,61.425425944556025
1361631896.75,0.3598405416666666,33.34125,62.14250001749333,-6.197473958333333,61.427629809835274
1361631897.0,0.3603744583333333,33.34375000000001,62.17666666666667,-5.7116927083333335,61.42928270879471
1361631897.25,0.36085495833333336,33.346250000000005,62.218333312,-5.790859375,61.433139473033386
1361631897.5,0.36144225,33.34875,62.260000000000005,-5.4496875,61.43479237199282
1361631897.75,0.3620295,33.35,62.301666688000005,-4.263802083333333,61.434792371992835
1361631898.0,0.36261675,33.35,62.343333333333334,-3.3205729166666664,61.434792371992835
1361631898.25,0.36331079166666663,33.35,62.3891666432,-2.2946875,61.43479237199282
1361631898.5,0.3640048333333334,33.35,62.435,-1.636119791666667,61.43479237199282
1361631898.75,0.3646455,33.35125,62.4808333568,-0.6296093749999999,61.43479237199282
1361631899.0,0.36517937500000003,33.35375,62.526666666666664,0.6248697916666667,61.42767924388869
1361631899.25,0.36560645833333333,33.356249999999996,62.57249997653333,1.9666927083333334,61.41124912240118
1361631899.5,0.3660335416666667,33.35875,62.61833333333333,3.1004947916666663,61.401548340120115
1361631899.75,0.36640725,33.35875,62.664166690133335,3.788359375,61.399344474840866
1361631900.0,0.3667275833333333,33.356249999999996,62.71,3.930442708333333,61.39769157588143
1361631900.25,0.36704791666666664,33.35375,62.75166664533333,4.465859375,61.39383481164274
1361631900.5,0.367314875,33.35125,62.79333333333334,4.642864583333333,61.39218191268331
1361631900.75,0.36752845833333336,33.35,62.835000021333336,4.608880208333333,61.39218191268331
1361631901.0,0.367688625,33.35,62.876666666666665,4.931276041666667,61.39218191268331
1361631901.25,0.367742,33.35,62.92333330944,5.2325,61.39218191268331
1361631901.5,0.367742,33.35,62.97,5.318229166666667,61.39218191268331
1361631901.75,0.367688625,33.34875,63.01666669056,5.236588541666666,61.39218191268331
1361631902.0,0.36763525,33.346250000000005,63.06333333333333,5.1697395833333335,61.39218191268331
1361631902.25,0.3675285,33.34375000000001,63.117499972266664,5.130911458333333,61.39218191268331
1361631902.5,0.36747512499999996,33.34125,63.17166666666667,5.163411458333333,61.39218191268331
1361631902.75,0.36742174999999994,33.34125,63.22583336106666,5.182864583333333,61.39218191268331
1361631903.0,0.367315,33.34375,63.279999999999994,5.1353125,61.39218191268331
1361631903.25,0.36726162500000004,33.346250000000005,63.334166638933326,5.106119791666667,61.39218191268331
1361631903.5,0.367154875,33.34875,63.38833333333333,5.05171875,61.39218191268331
1361631903.75,0.36704812499999995,33.35125,63.44250002773333,4.800625,61.39218191268331
1361631904.0,0.36699475,33.35375,63.49666666666666,4.510755208333333,61.39218191268331
1361631904.25,0.36694137499999996,33.356249999999996,63.54166664362666,4.3695312500000005,61.39319941797323
1361631904.5,0.36694137499999996,33.35874999999999,63.58666666666666,4.44859375,61.39756603523647
1361631904.75,0.36699475,33.36125,63.631666689706655,4.439609375,61.39756603523647
1361631905.0,0.36704812499999995,33.36375,63.676666666666655,4.290755208333333,61.39756603523647
1361631905.25,0.36720824999999996,33.36625,63.709999982933326,4.225520833333333,61.39756603523648
1361631905.5,0.3674751666666667,33.36875,63.743333333333325,4.088515625,61.39756603523647
1361631905.75,0.367848875,33.37,63.776666683733325,3.7865364583333334,61.395910537085285
1361631906.0,0.36832933333333334,33.37,63.809999999999995,3.6025520833333338,61.38720631525242
1361631906.25,0.36875641666666664,33.37,63.83833331882666,3.599739583333333,61.38389531895004
1361631906.5,0.36923687499999996,33.37,63.86666666666666,3.548828125,61.38287673321823
1361631906.75,0.3697707083333334,33.37,63.89500001450666,3.536770833333333,61.383936845222074
1361631907.0,0.37025116666666663,33.37,63.923333333333325,3.495390625,61.38690515883281
1361631907.25,0.37073162500000006,33.37,63.95249998506666,3.2127604166666663,61.38928001195518
1361631907.5,0.37115870833333336,33.37,63.98166666666667,2.8003385416666666,61.38830575310422
1361631907.75,0.3715324166666667,33.37,64.01083334826667,2.8017708333333338,61.3916981115165
1361631908.0,0.37185275,33.37,64.04,2.7289322916666667,61.39509046992878
1361631908.25,0.37211970833333335,33.37,64.07249998336,2.33453125,61.39848282834106
1361631908.5,0.3722265,33.37,64.105,2.491484375,61.40187518675335
1361631908.75,0.3722265,33.37,64.13750001664,3.0156770833333333,61.406923043316816
1361631909.0,0.372173125,33.37,64.17,3.466927083333333,61.41901962356196
1361631909.25,0.37211975,33.37,64.20333331626667,3.638880208333333,61.42572297827662
1361631909.5,0.372066375,33.37,64.23666666666666,4.0844531250000005,61.43013392242071
1361631909.75,0.37195962499999996,33.37,64.27000001706666,4.513255208333333,61.43246616882914
1361631910.0,0.3718528750000001,33.37,64.30333333333333,4.6277864583333335,61.43289021363068
1361631910.25,0.37174612500000004,33.37,64.33249998506666,5.126875,61.43289021363068
1361631910.5,0.37158599999999997,33.37,64.36166666666666,5.8816145833333335,61.43289021363068
1361631910.75,0.371532625,33.37,64.39083334826667,5.8749739583333325,61.43289021363068
1361631911.0,0.371532625,33.37,64.42,6.044348958333333,61.43289021363068
1361631911.25,0.3714792500000001,33.37,64.44583332010667,6.872604166666666,61.43289021363068
1361631911.5,0.37147925,33.37,64.47166666666666,6.939531250000001,61.43289021363068
1361631911.75,0.37147925,33.37,64.49750001322666,6.479895833333333,61.43289021363068
1361631912.0,0.37142587500000007,33.37,64.52333333333333,6.475442708333333,61.43289021363068
1361631912.25,0.37142587499999996,33.37,64.55249998506666,6.743203125,61.43289021363068
1361631912.5,0.37142587500000007,33.37,64.58166666666666,6.4428125,61.43289021363068
1361631912.75,0.37142587500000007,33.37,64.61083334826667,6.124765624999999,61.43322915754971
1361631913.0,0.37142587499999996,33.37,64.64,6.348177083333333,61.43560176498303
1361631913.25,0.37142587500000007,33.37,64.66916665173333,6.351380208333334,61.44102486768775
1361631913.5,0.3714792500000001,33.37,64.69833333333332,5.995052083333333,61.446447970392455
1361631913.75,0.37147925,33.37,64.72750001493333,6.096588541666667,61.45187107309716
1361631914.0,0.37147925,33.37,64.75666666666666,6.232421875,61.45729417580188
1361631914.25,0.371532625,33.37,64.78333331968,5.891119791666667,61.46271727850658
1361631914.5,0.371532625,33.37,64.81,5.697161458333333,61.46814038121129
1361631914.75,0.371532625,33.37,64.83666668032,5.912057291666667,61.473563483916
1361631915.0,0.371586,33.37,64.86333333333333,5.924921875,61.478986586620714
1361631915.25,0.371586,33.37,64.88499998890667,5.766692708333334,61.48440968932542
1361631915.5,0.371586,33.37,64.90666666666667,5.982942708333333,61.48983279203012
1361631915.75,0.371586,33.37,64.92833334442666,6.280260416666667,61.4949169508158
1361631916.0,0.371532625,33.37,64.95,5.8512239583333345,61.497967446087195
1361631916.25,0.37142587500000007,33.37,64.96333332650667,5.196171875,61.497967446087195
1361631916.5,0.371319125,33.37,64.97666666666666,4.979479166666667,61.497967446087195
1361631916.75,0.3711589583333334,33.37083333333333,64.99000000682666,4.81078125,61.47720738487693
1361631917.0,0.37083862500000003,33.372499999999995,65.00333333333333,4.49828125,61.44799034643981
1361631917.25,0.37051829166666667,33.37416666666667,65.00499999914666,4.171927083333333,61.41877330800269
1361631917.5,0.3701445833333334,33.37583333333333,65.00666666666666,3.9366927083333336,61.38955626956558
1361631917.75,0.369770875,33.376666666666665,65.00833333418667,3.877239583333333,61.36033923112846
1361631918.0,0.36939716666666667,33.376666666666665,65.01,3.6847656250000003,61.33112219269134
1361631918.25,0.36902345833333333,33.376666666666665,64.99500000768,3.255729166666667,61.30190515425423
1361631918.5,0.36864975000000005,33.376666666666665,64.98,2.62203125,61.27268811581711
1361631918.75,0.36838279166666665,33.376666666666665,64.96499999231999,2.3370052083333333,61.243471077379986
1361631919.0,0.368276,33.376666666666665,64.94999999999999,3.007942708333333,61.214254038942876
1361631919.25,0.368276,33.37666666666666,64.93500000767999,3.8091145833333333,61.18503700050576
1361631919.5,0.368276,33.376666666666665,64.92,3.9541406250000004,61.15581996206864
1361631919.75,0.36838279166666665,33.37583333333333,64.90499999232,4.517942708333334,61.14736298484179
1361631920.0,0.36870312499999996,33.37416666666666,64.89,5.0980468750000005,61.14736298484179
1361631920.25,0.36902345833333333,33.372499999999995,64.88166667093333,5.336171875000001,61.14736298484179
1361631920.5,0.36939716666666667,33.37083333333333,64.87333333333333,5.840208333333333,61.14736298484179
1361631920.75,0.369770875,33.37,64.86499999573334,6.313723958333333,61.14736298484179
1361631921.0,0.3701979583333333,33.37,64.85666666666667,6.405729166666666,61.14736298484179
1361631921.25,0.37067841666666673,33.37,64.8608333312,6.573307291666667,61.14736298484179
1361631921.5,0.37115887499999994,33.37,64.86500000000001,7.426354166666666,61.14736298484179
1361631921.75,0.37153258333333333,33.37,64.8691666688,7.840078124999999,61.14736298484179
1361631922.0,0.3718529166666667,33.37,64.87333333333333,7.232343750000001,61.14736298484179
1361631922.25,0.3722266250000001,33.37,64.88166666240001,6.923697916666668,61.14736298484179
1361631922.5,0.37260033333333337,33.37,64.89,7.456875,61.14736298484179
1361631922.75,0.3729740416666667,33.37,64.8983333376,7.18484375,61.14915021277569
1361631923.0,0.373241,33.37,64.90666666666667,6.469427083333333,61.152341910284214
1361631923.25,0.37356133333333336,33.37,64.91749999445334,6.676302083333333,61.16882541740714
1361631923.5,0.37388166666666667,33.37,64.92833333333334,6.9172135416666665,61.197307809464014
1361631923.75,0.374202,33.37,64.93916667221333,6.584401041666667,61.21732270959558
1361631924.0,0.3744689583333333,33.37,64.95,6.7570572916666665,61.24140906287523
1361631924.25,0.37468254166666665,33.37,64.9624999936,7.279166666666666,61.255910385303274
1361631924.5,0.37494950000000005,33.37,64.975,6.822682291666666,61.27643635375794
1361631924.75,0.3752698333333333,33.37,64.9875000064,6.272786458333333,61.300651132052366
1361631925.0,0.37553675,33.37,65.0,6.843437499999999,61.3248659103468
1361631925.25,0.375696875,33.37,65.0124999936,7.1808072916666665,61.34093892677752
1361631925.5,0.3759104166666667,33.37,65.025,6.861692708333333,61.3565874197726
1361631925.75,0.376177375,33.37083333333333,65.0375000064,7.28,61.370533589520896
1361631926.0,0.37655108333333337,33.372499999999995,65.05,8.230104166666667,61.384348860001545
1361631926.25,0.3768714166666667,33.37416666666667,65.06416665941333,8.424270833333333,61.38487232086779
1361631926.5,0.37724512499999996,33.37583333333333,65.07833333333333,8.403541666666667,61.37280256399017
1361631926.75,0.3776188333333333,33.3775,65.09250000725334,8.85234375,61.368775775602195
1361631927.0,0.3779925416666667,33.37916666666666,65.10666666666667,8.811770833333334,61.36038034227102
1361631927.25,0.37836625,33.380833333333335,65.12499999061333,8.65375,61.36458272976797
1361631927.5,0.3787399583333333,33.3825,65.14333333333333,9.359375000000002,61.35766475999704
1361631927.75,0.3790602916666667,33.384166666666665,65.16166667605333,10.479661458333334,61.34255256988869
1361631928.0,0.37932725,33.38583333333333,65.17999999999999,10.588177083333333,61.32242463645553
1361631928.25,0.3795942083333333,33.3875,65.20249998848,10.507369791666667,61.31009793999352
1361631928.5,0.3796475833333333,33.38916666666667,65.225,10.64265625,61.29206255959088
1361631928.75,0.379487375,33.39,65.24750001151999,10.368098958333333,61.263011108951616
1361631929.0,0.37927379166666664,33.39,65.27,10.306822916666667,61.23886631465834
1361631929.25,0.37906020833333337,33.39,65.29583332010667,10.243802083333334,61.217424928893244
1361631929.5,0.37879325,33.39,65.32166666666666,9.228359375,61.21094534209732
1361631929.75,0.37863308333333334,33.39,65.34750001322666,8.528151041666666,61.228312041282805
1361631930.0,0.3785797083333334,33.39,65.37333333333333,8.907994791666665,61.24046743692663
1361631930.25,0.3785797083333334,33.39,65.39833332053334,8.102630208333334,61.20880037225714
1361631930.5,0.37857975000000005,33.39,65.42333333333335,6.681223958333333,61.19428036545833
1361631930.75,0.3786331666666667,33.39,65.44833334613334,5.089713541666667,61.18859854396493
1361631931.0,0.37873995833333335,33.39,65.47333333333334,4.058020833333334,61.254550000843075
1361631931.25,0.37884674999999995,33.39,65.49499998890667,3.2535416666666666,61.32555134284553
1361631931.5,0.3791137083333333,33.39,65.51666666666668,2.8540625,61.39994968980512
1361631931.75,0.37948745833333336,33.39,65.53833334442668,1.9857552083333332,61.47955569229121
1361631932.0,0.3798612083333333,33.39,65.56,0.9530989583333334,61.55083127027287
1361631932.25,0.3802349583333333,33.39,65.58916665173334,1.342734375,61.606839059878276
1361631932.5,0.3806087083333333,33.39,65.61833333333334,2.999322916666667,61.62483340888278
1361631932.75,0.38087566666666667,33.39,65.64750001493333,3.0674218749999995,61.641766866561
1361631933.0,0.38108920833333326,33.39,65.67666666666666,2.1669791666666667,61.67673153362963
1361631933.25,0.38124937499999995,33.39,65.71666664618667,3.0077604166666667,61.733094536518394
1361631933.5,0.381356125,33.39,65.75666666666666,4.278020833333334,61.78357843069415
1361631933.75,0.38156966666666664,33.39,65.79666668714665,4.611171875,61.825773629685386
1361631934.0,0.3819433749999999,33.39,65.83666666666666,5.512213541666667,61.78457118061945
1361631934.25,0.382423875,33.39,65.8908333056,7.180833333333333,61.73904055708541
1361631934.5,0.382904375,33.39,65.945,7.9526562499999995,61.698149801063124
1361631934.75,0.383384875,33.38916666666667,65.99916669439999,9.195494791666667,61.66615533021824
1361631935.0,0.38391875000000003,33.387499999999996,66.05333333333333,10.022526041666667,61.6312346169778
1361631935.25,0.384506,33.38583333333333,66.10749997226667,9.104244791666668,61.608878283585426
1361631935.5,0.38509325,33.384166666666665,66.16166666666666,8.174296875000001,61.61270614475823
1361631935.75,0.3856804999999999,33.3825,66.21583336106666,8.543593750000001,61.59163491458804
1361631936.0,0.386214375,33.380833333333335,66.27,8.978776041666666,61.55804097036423
1361631936.25,0.38669487499999994,33.37916666666666,66.31749997568,8.971145833333333,61.54385836065709
1361631936.5,0.387175375,33.3775,66.365,8.513776041666667,61.52570463261793
1361631936.75,0.3874957083333333,33.37583333333333,66.41250002432,8.902656250000001,61.50947504290017
1361631937.0,0.38765587500000004,33.37416666666667,66.46,8.64203125,61.512395933875304
1361631937.25,0.38776262499999997,33.372499999999995,66.50333331114666,7.728463541666667,61.51853092608877
1361631937.5,0.387869375,33.37083333333333,66.54666666666667,7.828463541666667,61.52589223327877
1361631937.75,0.38797612499999995,33.37,66.59000002218667,8.110520833333334,61.52779720459742
1361631938.0,0.38802949999999997,33.37,66.63333333333334,8.671380208333334,61.53553980306875
1361631938.25,0.3880829166666666,33.37,66.67249997994668,9.658541666666666,61.54222524523062
1361631938.5,0.38824312499999997,33.37,66.71166666666667,9.914557291666666,61.5438346048694
1361631938.75,0.3885100833333333,33.37083333333333,66.75083335338667,10.481640624999999,61.54374793646995
1361631939.0,0.3888304166666667,33.372499999999995,66.79,11.311536458333334,61.5401889631259
1361631939.25,0.38925754166666665,33.37416666666667,66.83416664405334,11.398072916666669,61.53883372559844
1361631939.5,0.3896846666666666,33.37583333333333,66.87833333333334,12.070520833333333,61.535277368486554
1361631939.75,0.3901117916666667,33.3775,66.92250002261335,12.932239583333333,61.53375279343005
1361631940.0,0.3905923333333334,33.37916666666666,66.96666666666668,13.433385416666665,61.52985785069108
1361631940.25,0.3910195,33.380833333333335,67.01416664234668,13.4828125,61.52236762095014
1361631940.5,0.39144666666666666,33.3825,67.06166666666668,12.899609374999999,61.51174741114005
1361631940.75,0.39187383333333337,33.385,67.10916669098668,11.728697916666668,61.50341076204691
1361631941.0,0.39224758333333337,33.388333333333335,67.15666666666668,10.749973958333333,61.49405868447454
1361631941.25,0.39251450000000004,33.391666666666666,67.20916663978667,10.311718749999999,61.4860180047852
1361631941.5,0.392674625,33.395,67.26166666666668,10.038437499999999,61.48051518749545
1361631941.75,0.392728,33.3975,67.31416669354668,8.888854166666667,61.47924661836743
1361631942.0,0.392728,33.399166666666666,67.36666666666667,7.4759375,61.48145035418401
1361631942.25,0.3925678333333334,33.40083333333333,67.41916663978667,7.114869791666666,61.48145035418401
1361631942.5,0.3922475000000001,33.402499999999996,67.47166666666666,6.467161458333333,61.48145035418401
1361631942.75,0.39192716666666666,33.40416666666666,67.52416669354668,5.1008072916666665,61.481450354184005
1361631943.0,0.39149999999999996,33.405833333333334,67.57666666666667,3.7634374999999998,61.48119617991463
1361631943.25,0.3910728333333333,33.40749999999999,67.62749997397334,2.2291666666666665,61.47653251604365
1361631943.5,0.39064566666666667,33.409166666666664,67.67833333333334,0.4929166666666666,61.472547723400474
1361631943.75,0.390165125,33.41,67.72916669269334,-0.8464583333333334,61.478088361262074
1361631944.0,0.38968462500000006,33.41,67.78000000000002,-2.2060677083333338,61.496481082640095
1361631944.25,0.38925754166666665,33.41,67.82166664533335,-3.9984635416666667,61.512211258584834
1361631944.5,0.38883045833333335,33.41,67.86333333333334,-5.6551302083333335,61.51978058192281
1361631944.75,0.388403375,33.41,67.90500002133334,-6.581354166666667,61.51579672824411
1361631945.0,0.38802966666666666,33.41,67.94666666666667,-7.101979166666666,61.50901515626723
1361631945.25,0.38776270833333326,33.41,67.97999998293334,-8.216848958333333,61.502233584290344
1361631945.5,0.3876559166666666,33.41,68.01333333333334,-9.577187499999999,61.49545201231346
1361631945.75,0.387549125,33.41,68.04666668373333,-9.997760416666667,61.48867044033659
1361631946.0,0.3876025416666667,33.41,68.08,-9.582786458333333,61.48214304262908
1361631946.25,0.387709375,33.41,68.10833331882667,-8.629947916666667,61.480025134523196
1361631946.5,0.38781620833333336,33.41,68.13666666666666,-7.019401041666668,61.47722835518948
1361631946.75,0.38797641666666666,33.41,68.16500001450666,-5.218958333333334,61.464906145351
1361631947.0,0.388243375,33.41,68.19333333333333,-3.8052864583333332,61.43998609356967
1361631947.25,0.3885637083333333,33.41,68.22249998506666,-2.29234375,61.41747434564806
1361631947.5,0.3888840416666666,33.41,68.25166666666667,-0.4267187500000001,61.4031234503332
1361631947.75,0.38925775,33.41,68.28083334826667,1.0389843749999998,61.40032573203501
1361631948.0,0.389684875,33.41,68.31,1.9799218749999998,61.40032573203501
1361631948.25,0.39016541666666665,33.41,68.33916665173334,3.2466406249999995,61.40032573203501
1361631948.5,0.39069933333333334,33.41,68.36833333333334,4.7742708333333335,61.40032573203501
1361631948.75,0.391286625,33.41,68.39750001493333,5.6746875,61.40032573203501
1361631949.0,0.39187391666666666,33.41,68.42666666666666,6.044427083333333,61.40032573203501
1361631949.25,0.39246116666666664,33.41,68.45416665258666,6.729843750000001,61.40032573203501
1361631949.5,0.3931018333333333,33.41,68.48166666666667,6.964947916666667,61.40032573203501
1361631949.75,0.39374249999999994,33.41,68.50916668074667,6.672447916666666,61.40032573203501
1361631950.0,0.39432979166666665,33.41,68.53666666666668,6.923385416666668,61.40032573203501
1361631950.25,0.39486370833333334,33.41,68.56499998549334,7.230442708333334,61.40032573203501
1361631950.5,0.395397625,33.41,68.59333333333333,6.924479166666667,61.40032573203501
1361631950.75,0.39587816666666664,33.41,68.62166668117332,6.636588541666666,61.40032573203501
1361631951.0,0.39625191666666665,33.41,68.64999999999999,6.892682291666667,61.40032573203501
1361631951.25,0.39657225,33.41,68.6749999872,6.872734375,61.40032573203501
1361631951.5,0.39683920833333336,33.41,68.69999999999999,6.579583333333333,61.40032573203501
1361631951.75,0.3970527916666666,33.41,68.7250000128,6.566510416666667,61.40032573203501
1361631952.0,0.3971595833333333,33.41,68.75,6.627604166666667,61.40032573203501
1361631952.25,0.397213,33.41,68.76833332394666,6.284036458333333,61.40032573203501
1361631952.5,0.397266375,33.41,68.78666666666666,6.0011979166666665,61.40032573203501
1361631952.75,0.397266375,33.41,68.80500000938667,6.093619791666668,61.40032573203501
1361631953.0,0.397266375,33.41,68.82333333333334,5.907343749999999,61.40032573203501
1361631953.25,0.397266375,33.41,68.83166666240001,5.52671875,61.40032573203501
1361631953.5,0.397266375,33.41,68.84,5.452890624999999,61.40032573203501
1361631953.75,0.39731975,33.41,68.8483333376,5.5153125,61.40032573203501
1361631954.0,0.39731975,33.41,68.85666666666667,5.361979166666667,61.40032573203501
1361631954.25,0.39737312499999994,33.41,68.85416666794667,5.116145833333333,61.40032573203501
1361631954.5,0.39742649999999996,33.41,68.85166666666667,4.948541666666666,61.40032573203501
1361631954.75,0.39742649999999996,33.41,68.84916666538668,4.945807291666666,61.40147065295891
1361631955.0,0.397479875,33.41,68.84666666666668,4.933020833333333,61.431477956582825
1361631955.25,0.39753325,33.41,68.82833334272,4.687083333333333,61.46866617760198
1361631955.5,0.397479875,33.41,68.81,4.507760416666666,61.50585439862113
1361631955.75,0.39753325,33.41083333333333,68.79166665728,4.646145833333333,61.543042619640296
1361631956.0,0.39763999999999994,33.412499999999994,68.77333333333333,4.629973958333333,61.58023084065945
1361631956.25,0.39774675,33.41416666666667,68.74666668031999,4.36734375,61.61741906167862
1361631956.5,0.3978535,33.41583333333333,68.72,4.392786458333333,61.654607282697775
1361631956.75,0.39796024999999996,33.4175,68.69333331968001,4.59859375,61.691795503716925
1361631957.0,0.39817375,33.41916666666666,68.66666666666667,4.489739583333333,61.72898372473609
1361631957.25,0.398333875,33.420833333333334,68.63583334912,4.3254166666666665,61.75958079462212
1361631957.5,0.39854741666666665,33.4225,68.605,4.644739583333333,61.761616209597946
1361631957.75,0.3991880833333333,33.42416666666667,68.57416665088,4.7823697916666665,61.76250670364987
1361631958.0,0.4005762083333333,33.42583333333333,68.54333333333334,4.570729166666666,61.730709695876556
1361631958.25,0.40271175,33.4275,68.51666668032,4.901041666666667,61.659043106457226
1361631958.5,0.40495404166666665,33.42916666666667,68.49000000000001,5.38953125,61.585077959144535
1361631958.75,0.4071429583333333,33.43,68.46333331968,5.180208333333334,61.511497059030575
1361631959.0,0.40927850000000005,33.43,68.43666666666667,5.146927083333334,61.445721391028144
1361631959.25,0.4114140416666667,33.43,68.41333334528,5.7740625,61.38568865510957
1361631959.5,0.4135495833333333,33.43,68.39,5.90203125,61.34722219057574
1361631959.75,0.41563175,33.43,68.36666665472,5.683645833333333,61.31206938453241
1361631960.0,0.41734020833333335,33.43,68.34333333333333,6.099401041666667,61.27691657848907
1361631960.25,0.41878170833333334,33.43,68.32416667648,6.773984375,61.24835492357886
1361631960.5,0.419902875,33.43,68.305,6.816979166666666,61.24835492357885
1361631960.75,0.4204367500000001,33.43,68.28583332352,6.91828125,61.24835492357885
1361631961.0,0.4199562083333334,33.43,68.26666666666667,7.332109375000001,61.25218004270406
1361631961.25,0.41862145833333336,33.43,68.245833344,7.299166666666667,61.28869382608007
1361631961.5,0.41723333333333334,33.43,68.225,7.2464843750000005,61.32750616734942
1361631961.75,0.4158452083333333,33.43,68.204166656,7.624765625000001,61.36593426142003
1361631962.0,0.41445708333333336,33.43,68.18333333333334,7.76953125,61.396557123379125
1361631962.25,0.41306895833333335,33.43,68.16083334485333,7.495182291666666,61.42143705325436
1361631962.5,0.41168083333333333,33.43,68.13833333333334,7.619739583333334,61.424750711744856
1361631962.75,0.410346125,33.43,68.11583332181334,7.724687499999999,61.424750711744856
1361631963.0,0.40938516666666663,33.43,68.09333333333333,7.3273697916666665,61.424750711744856
1361631963.25,0.40869116666666666,33.43,68.0766666752,6.9558333333333335,61.424750711744856
1361631963.5,0.40826408333333336,33.43,68.06,6.88703125,61.424750711744856
1361631963.75,0.40805054166666666,33.43,68.04333332479999,6.635572916666667,61.424750711744856
1361631964.0,0.40805058333333327,33.43,68.02666666666666,6.520260416666666,61.424750711744856
1361631964.25,0.40815741666666666,33.43,68.02416666794666,6.608958333333334,61.42449628487287
1361631964.5,0.40821083333333336,33.43,68.02166666666666,6.380052083333333,61.4242418580009
1361631964.75,0.40826425,33.43,68.01916666538666,6.15125,61.42373300425695
1361631965.0,0.40831766666666675,33.43,68.01666666666667,6.158854166666665,61.423733004256945
1361631965.25,0.4083710833333334,33.43,68.02749999445334,6.302109375000001,61.42352097062396
1361631965.5,0.40847787500000005,33.43,68.03833333333333,6.256145833333334,61.42360575710193
1361631965.75,0.40853125,33.43,68.04916667221333,6.25296875,61.42292720668209
1361631966.0,0.408638,33.43,68.06,6.341953125,61.421442656122714
1361631966.25,0.40927866666666674,33.43,68.07916665685333,5.593307291666666,61.42207838631334
1361631966.5,0.41034641666666666,33.43,68.09833333333333,4.514088541666666,61.41838395862866
1361631966.75,0.4114141666666667,33.43,68.11750000981334,3.905338541666666,61.41931453549888
1361631967.0,0.41248191666666667,33.43,68.13666666666667,2.9088802083333327,61.423382939288025
1361631967.25,0.41354966666666665,33.43,68.15999998805334,1.8343749999999999,61.42770576994917
1361631967.5,0.4146708333333333,33.43,68.18333333333334,1.3226302083333332,61.4320286006103
1361631967.75,0.415792,33.42916666666667,68.20666667861333,0.49309895833333317,61.436605858143416
1361631968.0,0.41675299999999993,33.4275,68.23,-0.5481510416666667,61.44067426193257
1361631968.25,0.4174470833333333,33.42583333333333,68.25666665301334,-1.4017447916666665,61.44495469935472
1361631968.5,0.41792762499999997,33.424166666666665,68.28333333333333,-1.8040364583333333,61.4489383166659
1361631968.75,0.4180344166666667,33.42249999999999,68.31000001365334,-1.8110156250000002,61.45368527087489
1361631969.0,0.41782083333333336,33.420833333333334,68.33666666666667,-1.921953125,61.45389419439234
1361631969.25,0.41707333333333335,33.41916666666666,68.37166664874667,-1.1558072916666668,61.442945116689295
1361631969.5,0.41589875,33.4175,68.40666666666667,0.038854166666666586,61.43445642902262
1361631969.75,0.4147241666666666,33.416666666666664,68.44166668458668,0.7663281249999999,61.417900256971954
1361631970.0,0.41354958333333336,33.416666666666664,68.47666666666667,1.5443749999999998,61.39820625800234
1361631970.25,0.412375,33.416666666666664,68.51999997781334,2.6636458333333333,61.37851225903274
1361631970.5,0.4112004166666667,33.416666666666664,68.56333333333333,3.20265625,61.36022058594233
1361631970.75,0.410186,33.4175,68.60666668885334,3.8816406249999997,61.36554645653559
1361631971.0,0.4097588750000001,33.41916666666666,68.65,4.955859375,61.37239919308061
1361631971.25,0.4100257916666667,33.420833333333334,68.6999999744,5.635546874999999,61.384585064314
1361631971.5,0.41050625,33.4225,68.75,5.655572916666667,61.39677093554741
1361631971.75,0.4113604583333333,33.42416666666667,68.80000002560001,5.5647916666666655,61.40895680678082
1361631972.0,0.41242825,33.42583333333334,68.85000000000001,5.670729166666665,61.42648670884531
1361631972.25,0.41349604166666665,33.4275,68.90166664021334,5.563802083333333,61.45305433138029
1361631972.5,0.4145638333333333,33.42916666666667,68.95333333333333,5.325260416666667,61.4814917217542
1361631972.75,0.415631625,33.43,69.00500002645333,5.367213541666666,61.51337159195722
1361631973.0,0.41637908333333334,33.43,69.05666666666666,5.580572916666665,61.54525146216023
1361631973.25,0.416859625,33.43,69.1108333056,5.332708333333334,61.57713133236323
1361631973.5,0.4172867916666667,33.43,69.16499999999999,5.481119791666667,61.607608876687046
1361631973.75,0.4175537916666667,33.43,69.21916669439999,5.722317708333333,61.61446887732719
1361631974.0,0.41739366666666666,33.43,69.27333333333333,5.4584375,61.61980201201558
1361631974.25,0.4168064166666667,33.43,69.3316666368,5.403802083333333,61.61980201201558
1361631974.5,0.4161657916666666,33.43,69.38999999999999,5.754348958333334,61.61980201201558
1361631974.75,0.41552516666666667,33.43,69.44833336319999,5.673723958333333,61.61980201201558
1361631975.0,0.41488454166666666,33.43,69.50666666666666,5.397369791666667,61.61980201201558
1361631975.25,0.4142972916666667,33.43,69.56916663466666,5.488958333333334,61.61980201201558
1361631975.5,0.41376341666666666,33.43,69.63166666666666,5.524036458333334,61.61980201201558
1361631975.75,0.4132295416666667,33.43,69.69416669866666,5.0749739583333335,61.61980201201558
1361631976.0,0.41301600000000005,33.43,69.75666666666666,4.730703125,61.61980201201558
1361631976.25,0.413069375,33.43,69.82583329792,4.834114583333333,61.61980201201558
1361631976.5,0.41317612499999995,33.43,69.895,4.503802083333333,61.61980201201558
1361631976.75,0.413282875,33.43,69.96416670207999,3.9653645833333333,61.61980201201558
1361631977.0,0.413389625,33.43,70.03333333333333,3.9689322916666665,61.61980201201558
1361631977.25,0.413443,33.43,70.11249995946666,3.9622395833333335,61.61980201201558
1361631977.5,0.413496375,33.43,70.19166666666666,3.4126822916666666,61.61980201201558
1361631977.75,0.4134963333333333,33.43,70.27083337386668,3.42984375,61.62144881570352
1361631978.0,0.4134962916666667,33.43,70.35000000000001,3.5624479166666667,61.627102620447054
1361631978.25,0.4133895,33.43,70.44249995264,2.6696874999999998,61.64089728565244
1361631978.5,0.4132293333333334,33.43,70.53500000000001,1.616953125,61.64503373543439
1361631978.75,0.41306916666666665,33.43,70.62750004736002,1.7899739583333334,61.647649758387665
1361631979.0,0.4129624166666666,33.43,70.72000000000001,1.72984375,61.657107702069915
1361631979.25,0.41285566666666673,33.43,70.82333328042668,0.9628645833333334,61.66656564575217
1361631979.5,0.4127489166666667,33.43,70.92666666666668,0.9715885416666666,61.67602358943443
1361631979.75,0.41264216666666664,33.43,71.03000005290666,1.1754687499999998,61.68548153311667
1361631980.0,0.41253541666666665,33.43,71.13333333333333,1.1644010416666666,61.69493947679893
1361631980.25,0.41248204166666663,33.43,71.24166661119999,1.1739583333333334,61.70439742048118
1361631980.5,0.41248204166666663,33.43,71.35,1.546458333333333,61.713855364163436
1361631980.75,0.41258883333333335,33.43,71.4583333888,1.6979947916666667,61.71938586391476
1361631981.0,0.412695625,33.43,71.56666666666666,2.11,61.72319000285348
1361631981.25,0.4128557916666667,33.43,71.67416661162666,3.2688802083333335,61.71885328133035
1361631981.5,0.4129625833333333,33.43,71.78166666666667,4.559947916666666,61.72417477523066
1361631981.75,0.413016,33.43,71.88916672170667,4.592161458333333,61.72818667563782
1361631982.0,0.41301600000000005,33.43,71.99666666666667,4.748125,61.72003411001236
1361631982.25,0.413016,33.43,72.08916661930667,5.573151041666667,61.705840655869274
1361631982.5,0.413016,33.43,72.18166666666667,5.546015625,61.69164720172618
1361631982.75,0.41285583333333337,33.43083333333333,72.27416671402668,5.37796875,61.684339540067164
1361631983.0,0.4126956666666666,33.432500000000005,72.36666666666667,4.800468749999999,61.66676022965333
1361631983.25,0.4125355,33.43416666666667,72.44999995733333,4.131484375,61.64714940547705
1361631983.5,0.41232195833333335,33.435833333333335,72.53333333333333,3.9637760416666663,61.6314284689482
1361631983.75,0.4120550416666667,33.4375,72.61666670933334,3.4551041666666666,61.628978997870945
1361631984.0,0.411788125,33.439166666666665,72.7,2.4108854166666664,61.62889425865691
1361631984.25,0.4115212083333333,33.44083333333334,72.77333329578667,1.739609375,61.62686656554297
1361631984.5,0.41168137499999996,33.4425,72.84666666666666,1.1105208333333334,61.62917973391547
1361631984.75,0.41221525000000003,33.443333333333335,72.92000003754667,0.808671875,61.63478529338051
1361631985.0,0.4128559166666666,33.443333333333335,72.99333333333334,0.06351562499999995,61.64309782244916
1361631985.25,0.4136033333333333,33.443333333333335,73.07166662656,-1.4214322916666668,61.648245552444784
1361631985.5,0.4144575,33.443333333333335,73.15,-1.9838281249999998,61.63353996787463
1361631985.75,0.4154718333333334,33.4425,73.22833337344001,-1.5314322916666667,61.604691544381126
1361631986.0,0.416753125,33.44083333333333,73.30666666666667,0.18885416666666668,61.606511780158
1361631986.25,0.41835475,33.439166666666665,73.37749996373333,1.831015625,61.61125229182153
1361631986.5,0.42000974999999996,33.4375,73.44833333333332,2.0879166666666666,61.612102915837625
1361631986.75,0.4217715416666667,33.435,73.51916670293333,2.5446354166666665,61.600692968196476
1361631987.0,0.42369349999999995,33.431666666666665,73.58999999999999,3.518697916666667,61.57981164570675
1361631987.25,0.4256688333333334,33.428333333333335,73.65416663381332,3.485364583333333,61.56078855796546
1361631987.5,0.42737725,33.425,73.71833333333332,4.007317708333333,61.53708569849747
1361631987.75,0.4290322916666667,33.4225,73.78250003285332,4.972317708333333,61.51283576592442
1361631988.0,0.4307407083333334,33.42083333333333,73.84666666666665,6.257317708333333,61.48327225077896
1361631988.25,0.43260933333333335,33.41916666666666,73.90083330559999,7.920208333333332,61.460157393882554
1361631988.5,0.43479829166666667,33.4175,73.95499999999998,8.932265625000001,61.45842302109612
1361631988.75,0.43714737499999995,33.415,74.00916669439998,8.633177083333335,61.46445508903619
1361631989.0,0.4392295,33.41166666666667,74.06333333333332,7.078125000000001,61.44779888548567
1361631989.25,0.4409912916666667,33.40833333333333,74.11499997354666,5.730026041666666,61.42948982838009
1361631989.5,0.44269970833333333,33.405,74.16666666666666,5.429817708333334,61.410926006432796
1361631989.75,0.44430133333333327,33.402499999999996,74.21833335978666,5.064088541666666,61.39329224447854
1361631990.0,0.4457427916666667,33.40083333333333,74.27,4.582109375,61.362135485059646
1361631990.25,0.447130875,33.399166666666666,74.32666663765333,4.759973958333334,61.32070033217037
1361631990.5,0.4483054166666667,33.3975,74.38333333333333,4.2933593750000005,61.27551449077634
1361631990.75,0.44894608333333325,33.395833333333336,74.44000002901333,3.41453125,61.23169412533141
1361631991.0,0.449159625,33.39416666666667,74.49666666666667,2.727838541666667,61.20732554386236
1361631991.25,0.44899941666666665,33.3925,74.5633332992,2.15234375,61.1816174677409
1361631991.5,0.4482519583333333,33.39083333333334,74.63,1.6483854166666667,61.14768254672345
1361631991.75,0.44718420833333333,33.39,74.69666670080001,1.6520833333333333,61.1144335420942
1361631992.0,0.4461164583333333,33.39,74.76333333333334,1.97265625,61.08108517708916
1361631992.25,0.4450487083333334,33.39,74.82666663424,2.1764322916666665,61.05008077153699
1361631992.5,0.44398095833333334,33.39,74.89,2.2271354166666666,61.01736663642481
1361631992.75,0.44291320833333336,33.39,74.95333336576,2.370052083333333,60.985633185712366
1361631993.0,0.44184545833333333,33.39,75.01666666666667,2.414973958333333,60.982447812691845
1361631993.25,0.44072433333333333,33.39,75.07249997141334,2.457864583333333,60.993336799041636
1361631993.5,0.4397099583333333,33.39,75.12833333333333,2.624609375,61.00857103405833
1361631993.75,0.4389625000000001,33.39,75.18416669525332,2.7698437499999997,61.01445961052048
1361631994.0,0.438535375,33.39,75.24,2.730677083333333,60.99763691335167
1361631994.25,0.43821504166666675,33.39,75.26999998464,2.7923958333333334,60.98491074017685
1361631994.5,0.438054875,33.39,75.3,2.8590625000000003,60.983877818672674
1361631994.75,0.438054875,33.39083333333333,75.33000001536,2.8861458333333334,60.98971849191062
1361631995.0,0.438054875,33.3925,75.36,2.949296875,60.99948605706092
1361631995.25,0.438054875,33.39416666666667,75.37999998976001,3.0343489583333336,61.00537074233475
1361631995.5,0.438054875,33.395833333333336,75.4,3.116848958333333,61.02473498128246
1361631995.75,0.438054875,33.3975,75.42000001024,3.255598958333333,61.044053941980415
1361631996.0,0.438054875,33.399166666666666,75.44000000000001,3.3977864583333335,61.05496098427648
1361631996.25,0.43810825000000003,33.40083333333333,75.45083332778668,3.439453125,61.06279515313718
1361631996.5,0.438161625,33.402499999999996,75.46166666666667,3.5067187499999997,61.072118177540325
1361631996.75,0.438215,33.40416666666666,75.47250000554666,3.598645833333333,61.09973950276939
1361631997.0,0.438215,33.40583333333333,75.48333333333333,3.8056249999999996,61.148605658918065
1361631997.25,0.438215,33.4075,75.50166665728,4.036484375,61.19662456746655
1361631997.5,0.438215,33.409166666666664,75.52000000000001,4.055677083333333,61.240412422539926
1361631997.75,0.438215,33.41,75.53833334272001,3.967265625,61.27854494544895
1361631998.0,0.438215,33.41,75.55666666666667,3.9648437499999996,61.32000663956191
1361631998.25,0.438215,33.41,75.57999998805333,3.844869791666666,61.36821323074545
1361631998.5,0.43826841666666666,33.41,75.60333333333332,3.6894270833333334,61.405539317687705
1361631998.75,0.43837525,33.41083333333333,75.62666667861333,3.6018229166666664,61.44226968493561
1361631999.0,0.4384820833333334,33.4125,75.64999999999999,3.3596874999999997,61.47721289310045
1361631999.25,0.4385889166666666,33.41416666666667,75.6749999872,3.238255208333333,61.51105251045038
1361631999.5,0.43869575,33.41583333333333,75.69999999999999,3.217109375,61.53045232852518
1361631999.75,0.43880258333333333,33.4175,75.7250000128,2.978958333333333,61.539237595294985
1361632000.0,0.4389094166666667,33.41916666666666,75.75,2.82671875,61.52255680915531
1361632000.25,0.4389628333333333,33.42083333333333,75.77666665301334,2.587109375,61.50834015119113
1361632000.5,0.43896283333333336,33.4225,75.80333333333334,2.495416666666667,61.48523902379646
1361632000.75,0.4388560833333333,33.424166666666665,75.83000001365333,2.6416145833333333,61.45444797666695
1361632001.0,0.43869595833333336,33.42583333333334,75.85666666666667,2.6275260416666666,61.41943027068442
1361632001.25,0.43853583333333335,33.4275,75.8858333184,2.6552343749999996,61.3832904413193
1361632001.5,0.4383222916666667,33.42916666666667,75.915,2.8290624999999996,61.34277043981479
1361632001.75,0.4380553333333333,33.43,75.94416668160001,2.7351562499999997,61.31348352222604
1361632002.0,0.437895125,33.43,75.97333333333334,2.696744791666667,61.28508952069734
1361632002.25,0.4377349166666667,33.43,76.0066666496,2.536484375,61.25750063780817
1361632002.5,0.437734875,33.43,76.04,2.215651041666667,61.247872981172215
1361632002.75,0.4381619583333333,33.43,76.0733333504,2.208984375,61.246346420484514
1361632003.0,0.43896274999999996,33.43,76.10666666666667,1.9745833333333334,61.26192471931026
1361632003.25,0.43981695833333334,33.43,76.14416664746668,1.6161458333333334,61.283506723906065
1361632003.5,0.44077795833333333,33.43,76.18166666666667,1.4267447916666667,61.31638467963635
1361632003.75,0.44195245833333335,33.43,76.21916668586667,1.106875,61.35584883541929
1361632004.0,0.44318033333333334,33.43,76.25666666666667,0.8196093750000001,61.392222312366016
1361632004.25,0.44446162499999997,33.43,76.31249997141335,0.5921354166666667,61.42146686401377
1361632004.5,0.4458497083333333,33.43,76.36833333333334,0.27624999999999994,61.45703950191527
1361632004.75,0.44734454166666665,33.43,76.42416669525333,-0.011119791666666703,61.48252118754323
1361632005.0,0.44899958333333334,33.43,76.48,-0.20851562500000007,61.50643319913463
1361632005.25,0.451508875,33.43,76.5549999616,-0.35343750000000007,61.528989233768016
1361632005.5,0.45487237500000005,33.43,76.63000000000001,-0.5767187500000001,61.53611594125754
1361632005.75,0.45828925000000004,33.43,76.70500003840002,-0.9580729166666667,61.53225805390545
1361632006.0,0.46213325,33.43,76.78000000000002,-1.0423177083333333,61.524668523931474
1361632006.25,0.46688483333333336,33.43,76.87249995264001,-1.049765625,61.508270294283506
1361632006.5,0.4723305,33.43,76.965,-1.2514322916666667,61.48806145812418
1361632006.75,0.4785236666666666,33.43083333333333,77.05750004736,-1.50953125,61.466457874986
1361632007.0,0.4847168333333334,33.432500000000005,77.14999999999999,-1.8144010416666667,61.44662682044032
1361632007.25,0.4908565833333334,33.43416666666667,77.24833328298666,-2.0326302083333334,61.42729218994297
1361632007.5,0.4968895416666667,33.435833333333335,77.34666666666666,-2.2739322916666667,61.40248503037523
1361632007.75,0.50281575,33.4375,77.44500005034666,-2.3678125,61.37526045607509
1361632008.0,0.5084750000000001,33.439166666666665,77.54333333333334,-2.277447916666667,61.3484575525637
1361632008.25,0.5132265833333335,33.44083333333334,77.64499994794667,-2.08,61.32139528893391
1361632008.5,0.5161629583333334,33.4425,77.74666666666667,-1.6721875,61.30679205184671
1361632008.75,0.5179781666666666,33.44416666666667,77.84833338538667,-1.1355729166666666,61.293922925945246
1361632009.0,0.5187255833333334,33.44583333333333,77.95,-0.9568750000000001,61.2872985510004
1361632009.25,0.51840525,33.447500000000005,78.05166661461334,-0.6040885416666667,61.281479735026856
1361632009.5,0.5171772916666667,33.44916666666667,78.15333333333334,-0.09921875000000009,61.27323708615818
1361632009.75,0.5150417083333334,33.450833333333335,78.25500005205333,0.4289322916666665,61.263549113268
1361632010.0,0.5128527500000001,33.45250000000001,78.35666666666667,1.1606249999999998,61.254540507709066
1361632010.25,0.5106637916666666,33.454166666666666,78.45249995093333,1.8537499999999998,61.24884464156724
1361632010.5,0.5084748333333334,33.45583333333334,78.54833333333333,2.4258854166666666,61.24603883535056
1361632010.75,0.50633925,33.4575,78.64416671573333,3.0938020833333333,61.24450831222408
1361632011.0,0.5042036666666666,33.45916666666667,78.74,3.5475,61.24323287628534
1361632011.25,0.5021215,33.46083333333333,78.82999995392,3.8554166666666667,61.24323287628534
1361632011.5,0.5007867916666667,33.4625,78.92,4.015546875,61.24093724444416
1361632011.75,0.50009275,33.464166666666664,79.01000004608001,4.281770833333334,61.24017213572949
1361632012.0,0.4996122916666667,33.465833333333336,79.10000000000001,4.941171874999999,61.23519892908402
1361632012.25,0.499292,33.467499999999994,79.18499995648001,5.1329947916666665,61.2306082767959
1361632012.5,0.49907845833333336,33.469166666666666,79.27000000000001,5.199713541666666,61.22907805936653
1361632012.75,0.4989182916666666,33.47,79.35500004352,5.721640625,61.22907805936653
1361632013.0,0.49881149999999996,33.47,79.44,5.771562500000001,61.22907805936653
1361632013.25,0.4985979166666667,33.47,79.52333329066666,5.480208333333333,61.22907805936653
1361632013.5,0.4982775833333333,33.47,79.60666666666665,5.751380208333334,61.22907805936653
1361632013.75,0.4978505,33.47,79.69000004266667,5.984869791666667,61.22907805936653
1361632014.0,0.4972098333333333,33.47,79.77333333333333,5.952447916666667,61.22907805936653
1361632014.25,0.49635558333333335,33.47,79.86083328853333,6.020130208333334,61.22907805936653
1361632014.5,0.4955547083333333,33.47,79.94833333333332,6.414999999999999,61.23230806588054
1361632014.75,0.49459366666666665,33.47,80.03583337813333,6.3354687499999995,61.24203840933453
1361632015.0,0.4935258333333334,33.47,80.12333333333333,5.856901041666667,61.2529148899348
1361632015.25,0.492458,33.47,80.21999995050668,5.960703124999999,61.26463991023227
1361632015.5,0.4914435833333333,33.47,80.31666666666666,6.211223958333332,61.278910549621315
1361632015.75,0.4904291666666667,33.47,80.41333338282666,5.738411458333334,61.29042343499447
1361632016.0,0.48941475000000007,33.47,80.51,5.565807291666666,61.30129991559475
1361632016.25,0.488507125,33.47,80.60583328426667,5.972213541666668,61.30243825452587
1361632016.5,0.4879198333333334,33.47,80.70166666666667,5.823203125,61.292220455396055
1361632016.75,0.48808,33.47,80.79750004906667,5.291510416666667,61.28136336030934
1361632017.0,0.48930795833333335,33.47,80.89333333333333,5.168046875,61.27046364549218
1361632017.25,0.4915503333333333,33.47,80.97833328981334,5.163776041666667,61.25956393067502
1361632017.5,0.49448675000000003,33.47,81.06333333333333,4.599609375,61.245434209343834
1361632017.75,0.4975833333333333,33.47,81.14833337685333,4.255833333333333,61.22480415107267
1361632018.0,0.5008400833333333,33.47,81.23333333333333,4.474479166666666,61.20302795565524
1361632018.25,0.5040968333333333,33.47,81.2916666368,4.36171875,61.1804032205406
1361632018.5,0.5073535833333332,33.47,81.35,3.8150260416666666,61.15523286633439
1361632018.75,0.5106103333333333,33.47083333333334,81.40833336319999,3.7183593750000004,61.13282026614406
1361632019.0,0.5138136666666667,33.4725,81.46666666666665,3.8984114583333334,61.11104407072662
1361632019.25,0.5165365,33.47416666666667,81.50583331328,3.4851562499999997,61.09900601697833
1361632019.5,0.5187254166666667,33.475833333333334,81.54499999999999,3.1601822916666666,61.09836672102143
1361632019.75,0.5199533333333334,33.4775,81.58416668672,3.5177604166666665,61.09900601697833
1361632020.0,0.5199533333333334,33.479166666666664,81.62333333333333,3.6326041666666664,61.09968793266568
1361632020.25,0.5188855416666667,33.48083333333334,81.64083332437333,3.2678125,61.10036984835303
1361632020.5,0.5170169166666666,33.4825,81.65833333333333,3.500208333333333,61.11580973127673
1361632020.75,0.514988125,33.484166666666674,81.67583334229334,3.9740625,61.137585926694165
1361632021.0,0.5129059583333334,33.48583333333334,81.69333333333334,3.725651041666667,61.17053814150224
1361632021.25,0.5108237916666667,33.487500000000004,81.70166666240002,3.537786458333333,61.22008028976793
1361632021.5,0.508741625,33.48916666666667,81.71000000000001,4.051223958333333,61.269622438033615
1361632021.75,0.5066594583333334,33.49,81.7183333376,4.217838541666667,61.31916458629929
1361632022.0,0.5046307083333333,33.49,81.72666666666667,3.8021354166666668,61.368706734564974
1361632022.25,0.5030824583333333,33.49,81.72666666666667,3.970026041666667,61.41824888283066
1361632022.5,0.5020680833333334,33.49,81.72666666666667,4.3121093749999995,61.467748411365896
1361632022.75,0.5015341666666667,33.48916666666667,81.72666666666667,3.934661458333333,61.51660864394422
1361632023.0,0.5013739583333333,33.487500000000004,81.72666666666667,3.6550260416666664,61.54938813444664
1361632023.25,0.5014807083333334,33.48583333333334,81.72166666922666,4.015963541666667,61.572519179703505
1361632023.5,0.5018010416666667,33.48416666666667,81.71666666666667,3.9195052083333333,61.58089225772405
1361632023.75,0.5022815416666666,33.482499999999995,81.71166666410667,3.35921875,61.582674427559986
1361632024.0,0.5029222083333333,33.48083333333333,81.70666666666666,3.389713541666666,61.573535173696136
1361632024.25,0.503562875,33.479166666666664,81.69583333887999,3.6188802083333336,61.54729679499298
1361632024.5,0.5042569166666667,33.4775,81.685,3.178932291666667,61.51978543783557
1361632024.75,0.5050043333333333,33.47666666666667,81.67416666112,2.806354166666667,61.492274080678186
1361632025.0,0.50575175,33.47666666666667,81.66333333333333,3.0675781250000003,61.465399212747904
1361632025.25,0.5065525833333333,33.47666666666667,81.64750000810666,3.0543489583333336,61.43826974912679
1361632025.5,0.5073534583333333,33.47666666666667,81.63166666666666,2.6122135416666667,61.41050379627853
1361632025.75,0.5081009583333334,33.4775,81.61583332522666,2.6941666666666664,61.3827378434303
1361632026.0,0.509008625,33.479166666666664,81.6,3.0736458333333334,61.37105263265796
1361632026.25,0.5101832083333334,33.48083333333333,81.58000001024,2.901015625,61.36927046282202
1361632026.5,0.5116780833333333,33.4825,81.56,2.8765364583333333,61.36736099514065
1361632026.75,0.5140805833333334,33.48333333333334,81.53999998975999,3.1410416666666663,61.365578825304716
1361632027.0,0.5170169583333334,33.483333333333334,81.52,2.819947916666667,61.36354205977793
1361632027.25,0.520060125,33.48333333333334,81.49333334698666,2.157083333333333,61.36082391811066
1361632027.5,0.5231567083333334,33.483333333333334,81.46666666666667,1.9942708333333334,61.339858517572594
1361632027.75,0.527534625,33.4825,81.43999998634668,1.80921875,61.31701755180246
1361632028.0,0.5329269166666667,33.48083333333333,81.41333333333334,0.5963020833333333,61.29162169492769
1361632028.25,0.5382657916666668,33.479166666666664,81.38000001706668,-1.0831510416666668,61.26648043374376
1361632028.5,0.5433910833333333,33.4775,81.34666666666666,-1.7803125000000002,61.24197566178696
1361632028.75,0.5483562083333333,33.475833333333334,81.31333331626666,-2.4662239583333334,61.21874982441517
1361632029.0,0.5531611666666666,33.47416666666667,81.28,-4.01953125,61.19467136398671
1361632029.25,0.5576992083333333,33.472500000000004,81.24416668501334,-5.809947916666666,61.17033830786738
1361632029.5,0.5615432083333333,33.47083333333333,81.20833333333334,-7.232760416666667,61.14719832841434
1361632029.75,0.5643728333333333,33.47,81.17249998165333,-7.631927083333334,61.125251425627575
1361632030.0,0.5662414583333333,33.47,81.13666666666667,-7.553333333333334,61.12004607343989
1361632030.25,0.5677363333333333,33.47,81.10083335168,-7.316692708333334,61.12957818140749
1361632030.5,0.5690176666666666,33.47,81.065,-7.103671875000001,61.164529355012284
1361632030.75,0.56875075,33.47,81.02916664832,-6.566822916666667,61.201356093849135
1361632031.0,0.5672024999999999,33.47,80.99333333333333,-5.121041666666668,61.24956416685174
1361632031.25,0.5655474583333333,33.47,80.95750001834666,-2.990234375,61.29422364024626
1361632031.5,0.5638390416666667,33.47,80.92166666666667,-1.8329947916666667,61.332968780960634
1361632031.75,0.5620238333333333,33.47,80.88583331498667,-1.0415364583333335,61.370434987089986
1361632032.0,0.5601018333333333,33.47,80.85000000000001,0.5876562499999999,61.388756910168034
1361632032.25,0.5581264583333333,33.47,80.8125000192,2.6197395833333332,61.39174109086642
1361632032.5,0.5563646666666667,33.47,80.775,4.070807291666666,61.39365949274395
1361632032.75,0.554709625,33.47,80.73749998080001,4.584427083333334,61.39451211580063
1361632033.0,0.5533749166666667,33.47,80.7,5.11765625,61.378623188258224
1361632033.25,0.5522537916666667,33.47,80.6625000192,5.537786458333333,61.34918736808272
1361632033.5,0.5512394166666666,33.47,80.625,5.753697916666667,61.31385271959507
1361632033.75,0.5504385833333333,33.47,80.5874999808,5.8191145833333335,61.27851807110741
1361632034.0,0.5499047083333334,33.47,80.55,5.5909635416666665,61.23372049033153
1361632034.25,0.549477625,33.47,80.51666668373333,5.102057291666667,61.19247150916373
1361632034.5,0.5491572916666666,33.47,80.48333333333333,5.1053125,61.157136860676076
1361632034.75,0.548997125,33.47083333333333,80.44999998293333,5.127630208333334,61.12627488903868
1361632035.0,0.548997125,33.472500000000004,80.41666666666667,4.890520833333333,61.11570800196596
1361632035.25,0.549103875,33.47416666666667,80.38750001493334,5.0790625,61.12047885727291
1361632035.5,0.549264,33.475833333333334,80.35833333333333,5.311848958333333,61.12524971257986
1361632035.75,0.5494241249999999,33.4775,80.32916665173333,5.163463541666666,61.130020567886795
1361632036.0,0.549530875,33.479166666666664,80.3,5.181666666666667,61.134791423193754
1361632036.25,0.5496909999999999,33.48083333333333,80.27333334698666,5.412369791666666,61.139562278500705
1361632036.5,0.54979775,33.4825,80.24666666666667,5.341510416666666,61.14433313380764
1361632036.75,0.549851125,33.48416666666667,80.21999998634666,5.358723958333333,61.14910398911459
1361632037.0,0.5499044999999999,33.48583333333334,80.19333333333333,5.491562500000001,61.15387484442153
1361632037.25,0.5499045,33.487500000000004,80.1641666816,5.465364583333333,61.15864569972848
1361632037.5,0.549851125,33.48916666666667,80.13499999999999,5.273072916666667,61.16324620153969
1361632037.75,0.549744375,33.48916666666667,80.1058333184,5.379791666666667,61.16081872406468
1361632038.0,0.54958425,33.487500000000004,80.07666666666667,5.365104166666666,61.158093068132985
1361632038.25,0.5493707499999999,33.48583333333333,80.03916668586666,4.930494791666667,61.15536741220128
1361632038.5,0.54915725,33.484166666666674,80.00166666666667,4.832005208333333,61.15285468390706
1361632038.75,0.54894375,33.48166666666667,79.96416664746667,4.947630208333334,61.150001203014405
1361632039.0,0.5489437916666666,33.47833333333333,79.92666666666666,4.623645833333334,61.14535817266841
1361632039.25,0.5493709166666667,33.475,79.8808333568,4.295963541666667,61.14058731736146
1361632039.5,0.550225125,33.47166666666667,79.835,4.281770833333334,61.13581646205452
1361632039.75,0.5511327083333334,33.468333333333334,79.78916664319999,3.940208333333333,61.13104560674757
1361632040.0,0.5520402916666667,33.464999999999996,79.74333333333333,3.8101041666666666,61.12627475144063
1361632040.25,0.55300125,33.461666666666666,79.69166669312,3.991979166666667,61.121035079098625
1361632040.5,0.5539622083333334,33.458333333333336,79.64,3.87328125,61.116434577287414
1361632040.75,0.5549231666666666,33.45583333333334,79.58833330688,3.5933593750000004,61.11438937791217
1361632041.0,0.5558841250000001,33.454166666666666,79.53666666666668,3.7554427083333333,61.112344178536915
1361632041.25,0.5568984583333334,33.45250000000001,79.48500002645333,3.7861718749999995,61.110298979161676
1361632041.5,0.557752625,33.450833333333335,79.43333333333334,3.5897916666666667,61.108040852148946
1361632041.75,0.5585000416666667,33.450833333333335,79.38166664021334,3.7087760416666664,61.106123477734656
1361632042.0,0.5588203750000001,33.45250000000001,79.33,3.8220833333333335,61.10599565277371
1361632042.25,0.5585534583333334,33.454166666666666,79.29000002048,3.7030989583333334,61.10599565277371
1361632042.5,0.5578594166666667,33.45583333333334,79.25,3.808880208333333,61.10599565277371
1361632042.75,0.5571119583333334,33.4575,79.20999997952,4.076666666666667,61.10586779358232
1361632043.0,0.5563645,33.45916666666667,79.17,3.993984375,61.105228497625426
1361632043.25,0.5556170416666667,33.46083333333333,79.13583335082667,3.961692708333333,61.10501539897313
1361632043.5,0.554923,33.4625,79.10166666666667,4.201848958333334,61.10433348328578
1361632043.75,0.554282375,33.464166666666664,79.06749998250667,4.376901041666667,61.10365156759841
1361632044.0,0.5536951250000001,33.465833333333336,79.03333333333335,4.3101562499999995,61.102969651911074
1361632044.25,0.5530545,33.467499999999994,79.00416668160001,4.5179687500000005,61.10228773622372
1361632044.5,0.5527342083333334,33.469166666666666,78.97500000000001,4.762760416666667,61.10190415864958
1361632044.75,0.5525740416666668,33.47,78.9458333184,4.6434114583333335,61.10190415864958
1361632045.0,0.5526807916666667,33.47,78.91666666666667,4.945182291666667,61.10275535791183
1361632045.25,0.5529477083333333,33.47,78.88166668458666,5.423567708333333,61.11552334684564
1361632045.5,0.5532680416666668,33.47,78.84666666666666,5.652708333333333,61.129142535041716
1361632045.75,0.5536417916666666,33.47,78.81166664874667,5.9909375,61.14318708502691
1361632046.0,0.5540155416666667,33.47,78.77666666666666,6.400598958333333,61.15927277964394
1361632046.25,0.5542825,33.47,78.74166668458666,6.7525,61.1762933641786
1361632046.5,0.5544426666666666,33.47,78.70666666666665,7.196197916666667,61.19331394871326
1361632046.75,0.554442625,33.47,78.67166664874665,7.66703125,61.210334533247924
1361632047.0,0.5542824166666667,33.47,78.63666666666666,8.120755208333334,61.22735511778257
1361632047.25,0.5541222083333333,33.47,78.59916668586666,8.440598958333334,61.24271862911249
1361632047.5,0.5538018333333333,33.47,78.56166666666667,8.511119791666667,61.25816620383798
1361632047.75,0.5533747083333332,33.47,78.52416664746666,8.870286458333334,61.27424993834609
1361632048.0,0.5528942083333334,33.47,78.48666666666666,8.448125,61.290799069292696
1361632048.25,0.5524137083333334,33.47,78.44500002133333,7.913619791666668,61.31407710235248
1361632048.5,0.5519332083333334,33.47,78.40333333333334,7.519791666666666,61.358085863092754
1361632048.75,0.5513993333333334,33.47083333333333,78.36166664533333,6.899713541666667,61.40196837798022
