timestamp,EDA,TEMP,HR,BVP,ACC_mag
1361695905.0,0.14936383333333333,33.33,,11.168333333333335,61.862751312886175
1361695905.25,0.14962314285714287,33.33,,10.560714285714285,61.862751312886175
1361695905.5,0.14997775,33.33,,10.105,61.862751312886175
1361695905.75,0.15032472222222223,33.33,,9.318368055555556,61.862751312886175
1361695906.0,0.15060230000000002,33.33,,8.44915625,61.862751312886175
1361695906.25,0.15082940909090908,33.33,,7.674687499999999,61.862751312886175
1361695906.5,0.15101866666666666,33.33,,7.017395833333333,61.862751312886175
1361695906.75,0.151392375,33.33,,6.464114583333333,61.862751312886175
1361695907.0,0.15181945833333335,33.33,,5.893229166666667,61.862751312886175
1361695907.25,0.15213975000000002,33.33,,4.8221875,61.862751312886175
1361695907.5,0.152406625,33.33,,3.2037239583333332,61.862751312886175
1361695907.75,0.152726875,33.329166666666666,,2.071953125,61.862751312886175
1361695908.0,0.15299375,33.3275,,1.2756770833333333,61.862751312886175
1361695908.25,0.15320725000000002,33.32583333333333,,0.5719270833333333,61.862751312886175
1361695908.5,0.153260625,33.32416666666666,,-0.07627604166666667,61.862751312886175
1361695908.75,0.153153875,33.3225,,-0.34213541666666664,61.862751312886175
1361695909.0,0.153153875,33.32083333333333,,-0.45708333333333334,61.862751312886175
1361695909.25,0.153153875,33.31916666666667,,-0.22812500000000002,61.862751312886175
1361695909.5,0.153153875,33.3175,,0.15325520833333328,61.862751312886175
1361695909.75,0.15320725,33.31583333333334,,0.3332812499999999,61.862751312886175
1361695910.0,0.153153875,33.31416666666667,,0.5868489583333333,61.87560416688951
1361695910.25,0.15320725,33.3125,,1.0094010416666668,61.89845368511766
1361695910.5,0.15320725,33.310833333333335,,1.3947395833333334,61.92130320334581
1361695910.75,0.15315387500000002,33.30916666666667,,1.7441666666666669,61.94415272157394
1361695911.0,0.15320725,33.307500000000005,,2.2150781250000002,61.97173423317355
1361695911.25,0.15315387500000002,33.30583333333333,,2.7467968750000007,62.003293730298175
1361695911.5,0.15320725,33.30416666666667,,3.2339322916666666,62.034853227422815
1361695911.75,0.153367375,33.3025,,3.818515625,62.06641272454744
1361695912.0,0.15342075,33.30083333333334,,4.319401041666667,62.09797222167207
1361695912.25,0.153474125,33.29916666666667,,4.4178125,62.13078610200216
1361695912.5,0.1535275,33.2975,,4.423802083333334,62.163599982332265
1361695912.75,0.153474125,33.295833333333334,,4.611458333333333,62.19515947945689
1361695913.0,0.153474125,33.29416666666666,,4.6865625,62.21386612257819
1361695913.25,0.153367375,33.2925,,4.64828125,62.22203172779364
1361695913.5,0.153367375,33.29083333333333,,4.653125,62.23074170669012
1361695913.75,0.15331399999999998,33.29083333333333,,4.6574479166666665,62.23945168558661
1361695914.0,0.15320725,33.2925,,4.606171875,62.23315727595252
1361695914.25,0.153153875,33.29416666666666,,4.553072916666666,62.207310158384935
1361695914.5,0.153047125,33.29583333333333,,4.42890625,62.18003494592808
1361695914.75,0.15294037500000002,33.29750000000001,,4.057291666666667,62.149903543692716
1361695915.0,0.152833625,33.29916666666667,67.375,3.806432291666667,62.118344046568076
1361695915.25,0.152726875,33.30083333333334,67.39958332074667,3.6111458333333335,62.08553016623799
1361695915.5,0.152620125,33.3025,67.42416666666668,3.3771354166666665,62.052716285907884
1361695915.75,0.152513375,33.30416666666667,67.44875001258667,3.1535156250000003,62.02115678878326
1361695916.0,0.15235325,33.30583333333334,67.47333333333334,2.8365625,61.991025386547896
1361695916.25,0.152299875,33.307500000000005,67.53583330133334,2.4934374999999998,61.96001026310429
1361695916.5,0.15213975000000002,33.30916666666667,67.59833333333334,2.3352604166666664,61.928450765979655
1361695916.75,0.15208637500000002,33.30916666666667,67.66083336533335,2.1197395833333332,61.89831936374429
1361695917.0,0.151979625,33.3075,67.72333333333334,1.8744531250000003,61.908047385222375
1361695917.25,0.151872875,33.30583333333333,67.8316666112,1.7115104166666668,61.93389450278996
1361695917.5,0.1518195,33.30416666666667,67.94,1.4925260416666666,61.96116971524682
1361695917.75,0.15171274999999998,33.3025,68.0483333888,1.3844270833333334,61.99130111748218
1361695918.0,0.151659375,33.30083333333334,68.15666666666667,1.5142447916666668,62.02286061460682
1361695918.25,0.15160600000000002,33.299166666666665,68.35083323392,1.5686197916666667,62.054420111731446
1361695918.5,0.15149925,33.2975,68.545,1.5943229166666668,62.08597960885607
1361695918.75,0.151445875,33.29583333333333,68.73916676608,1.8662239583333333,62.11753910598071
1361695919.0,0.15144587499999998,33.29416666666667,68.93333333333334,2.239921875,62.14767050821607
1361695919.25,0.15133912500000002,33.2925,69.18333320533334,2.5538281250000003,62.17759688429762
1361695919.5,0.15128575,33.29083333333333,69.43333333333334,2.7524739583333333,62.20207952356886
1361695919.75,0.151125625,33.29,69.68333346133333,2.99734375,62.22350094690774
1361695920.0,0.151018875,33.29,69.93333333333334,3.159322916666667,62.20248248768895
1361695920.25,0.150912125,33.29,70.1791665408,3.445234375,62.17092299056432
1361695920.5,0.15075200000000002,33.29,70.42500000000001,3.9309895833333335,62.139363493439696
1361695920.75,0.15064524999999998,33.29,70.67083345920001,4.229869791666666,62.10780399631506
1361695921.0,0.15048512500000003,33.29,70.91666666666667,4.4465625,62.07624449919044
1361695921.25,0.15032500000000001,33.29,71.11083323392,4.87390625,62.04468500206581
1361695921.5,0.15021825,33.29,71.305,5.155520833333333,62.01312550494118
1361695921.75,0.1501115,33.29,71.49916676608,5.366640625,61.98156600781653
1361695922.0,0.15000475000000002,33.29,71.69333333333333,5.7390625,61.95000651069191
1361695922.25,0.149951375,33.29,71.84333325653333,5.949557291666667,61.92008013461037
1361695922.5,0.149898,33.29,71.99333333333334,6.223802083333333,61.89559749533913
1361695922.75,0.149898,33.29,72.14333341013334,6.648880208333334,61.87274797711098
1361695923.0,0.149898,33.29,72.29333333333334,6.9575,61.862751312886175
1361695923.25,0.149951375,33.29,72.41249993898667,7.066614583333333,61.862751312886175
1361695923.5,0.149951375,33.29,72.53166666666667,7.194661458333333,61.862751312886175
1361695923.75,0.15000475000000002,33.29,72.65083339434666,7.48453125,61.862751312886175
1361695924.0,0.15005812500000001,33.29,72.77,7.653125,61.862751312886175
1361695924.25,0.15005812500000001,33.29,72.86749995008,7.84890625,61.862751312886175
1361695924.5,0.1501115,33.29,72.965,8.084765625,61.862751312886175
1361695924.75,0.150164875,33.29,73.06250004992,8.062473958333333,61.862751312886175
1361695925.0,0.15021825000000003,33.29,73.16000000000001,7.991223958333333,61.862751312886175
1361695925.25,0.15021825000000003,33.29,73.24083329194667,8.010885416666666,61.862751312886175
1361695925.5,0.15021825,33.29,73.32166666666667,7.5853125,61.86842426777651
1361695925.75,0.15021825000000003,33.29,73.40250004138667,6.930052083333333,61.87544690128053
1361695926.0,0.15016483333333333,33.29,73.48333333333333,6.354739583333333,61.891247369407274
1361695926.25,0.15005804166666667,33.29,73.55166663167999,5.558645833333332,61.90805696879113
1361695926.5,0.15005804166666667,33.29,73.62,4.7221874999999995,61.92129834391096
1361695926.75,0.15000466666666668,33.28916666666667,73.68833336832,3.9549999999999996,61.93449670150368
1361695927.0,0.14995129166666668,33.2875,73.75666666666666,2.7160677083333327,61.949375436799926
1361695927.25,0.14995129166666668,33.285833333333336,73.81499997013333,1.418046875,61.97042183952531
1361695927.5,0.14989791666666666,33.284166666666664,73.87333333333333,0.5219270833333333,61.989455806907955
1361695927.75,0.14989791666666666,33.282500000000006,73.93166669653333,-0.2618489583333333,62.01129848850628
1361695928.0,0.15000466666666668,33.280833333333334,73.99,-1.4228385416666667,62.03117114716631
1361695928.25,0.15101891666666667,33.27916666666667,74.03499997696,-2.361640625,62.049198161728604
1361695928.5,0.1529406666666667,33.2775,74.08,-3.2402864583333333,62.06218132140634
1361695928.75,0.15502254166666668,33.27583333333333,74.12500002304,-4.4906250000000005,62.07318516292673
1361695929.0,0.15721120833333335,33.27416666666667,74.17,-5.491328124999999,62.07041621780666
1361695929.25,0.15945325000000002,33.2725,74.20416664917333,-5.910807291666667,62.06449767624711
1361695929.5,0.16174866666666668,33.270833333333336,74.23833333333333,-6.112760416666667,62.064330505853455
1361695929.75,0.164257625,33.270833333333336,74.27250001749333,-5.75640625,62.058114107684084
1361695930.0,0.16676658333333336,33.2725,74.30666666666666,-4.155911458333333,62.05194097715275
1361695930.25,0.16927554166666667,33.274166666666666,74.32916665514666,-3.9385937500000003,62.03884410372584
1361695930.5,0.171944625,33.27583333333334,74.35166666666666,-5.617682291666667,62.02182999094739
1361695930.75,0.17461370833333334,33.277499999999996,74.37416667818665,-7.697317708333333,61.99897689831827
1361695931.0,0.1772827916666667,33.27916666666667,74.39666666666666,-8.512916666666667,61.97784120386171
1361695931.25,0.17920454166666666,33.280833333333334,74.40999999317333,-9.092265625,61.95876167414101
1361695931.5,0.18027220833333332,33.2825,74.42333333333333,-6.811015625,61.93901094028689
1361695931.75,0.18117974999999997,33.28416666666667,74.43666667349333,-3.9385937499999994,61.92010036661457
1361695932.0,0.18203391666666668,33.28583333333333,74.45,-0.9753385416666661,61.905721599556124
1361695932.25,0.1828880833333333,33.2875,74.44500000256,0.9169270833333338,61.893483297680035
1361695932.5,0.18368883333333333,33.28916666666667,74.44,2.072239583333334,61.87906184890209
1361695932.75,0.18427604166666667,33.29,74.43499999744,2.5069531250000003,61.86600801267178
1361695933.0,0.18486325,33.29,74.42999999999999,2.206875,61.85595516385509
1361695933.25,0.18545045833333332,33.29,74.41083334314666,3.2550781250000003,61.84665839050484
1361695933.5,0.18587754166666667,33.29,74.39166666666667,6.0141406250000005,61.843586020742244
1361695933.75,0.18625124999999998,33.29,74.37249999018667,8.928177083333333,61.843922853763225
1361695934.0,0.18651820833333332,33.29,74.35333333333334,10.596770833333334,61.84451231154994
1361695934.25,0.18667837499999998,33.29,74.32583334741334,11.856484375,61.84489124869854
1361695934.5,0.186785125,33.29,74.29833333333333,10.367604166666666,61.846322525010244
1361695934.75,0.18683850000000002,33.29,74.27083331925333,8.85796875,61.84842723633988
1361695935.0,0.18689187499999996,33.29,74.24333333333333,7.069427083333333,61.8511213724528
1361695935.25,0.18683850000000002,33.29,74.21416668159999,5.825677083333333,61.853815508565724
1361695935.5,0.18667833333333336,33.29,74.185,5.051848958333333,61.856509644678646
1361695935.75,0.18657158333333335,33.28916666666667,74.1558333184,4.324635416666667,61.86392841354675
1361695936.0,0.1864114166666667,33.2875,74.12666666666667,3.4345572916666662,61.866622549659674
1361695936.25,0.18625125,33.28583333333333,74.09666668202667,2.497578125,61.86931668577259
1361695936.5,0.18614450000000002,33.28416666666667,74.06666666666666,1.341796875,61.8708321373361
1361695936.75,0.18603775,33.2825,74.03666665130666,0.38471354166666666,61.870495150077424
1361695937.0,0.18593099999999999,33.280833333333334,74.00666666666666,-0.25947916666666665,61.858775146681914
1361695937.25,0.18582425,33.27916666666667,73.97166668458667,-0.7089322916666667,61.84468769432792
1361695937.5,0.1857175,33.277499999999996,73.93666666666667,-0.8354166666666667,61.82139979128268
1361695937.75,0.18582425,33.27666666666667,73.90166664874666,-1.133984375,61.8001428583604
1361695938.0,0.18614450000000002,33.276666666666664,73.86666666666666,-1.70109375,61.78910349014279
1361695938.25,0.18657149999999997,33.276666666666664,73.82166668970666,-3.0533072916666666,61.78371366006207
1361695938.5,0.18705191666666665,33.27666666666667,73.77666666666667,-5.5865625,61.777944595309464
1361695938.75,0.1875323333333333,33.277499999999996,73.73166664362667,-8.023932291666666,61.77167003311527
1361695939.0,0.18817295833333333,33.27916666666667,73.68666666666667,-9.482994791666668,61.76374951980512
1361695939.25,0.18892033333333333,33.280833333333334,73.64416668842667,-6.804140625,61.75772610832098
1361695939.5,0.18982779166666666,33.2825,73.60166666666666,-3.861484375000001,61.74343703488554
1361695939.75,0.19089537499999998,33.28416666666667,73.55916664490667,-3.9590625000000013,61.72699022280265
1361695940.0,0.19196295833333332,33.28583333333333,73.51666666666667,-4.977786458333334,61.72568429441203
1361695940.25,0.19303054166666667,33.2875,73.48500001621333,-6.175651041666668,61.72864349694765
1361695940.5,0.19409812499999998,33.28916666666667,73.45333333333333,-7.739010416666667,61.74624345381017
1361695940.75,0.19500558333333332,33.28916666666667,73.42166665045333,-8.891875,61.7705649856622
1361695941.0,0.19569954166666667,33.2875,73.39,-9.450442708333336,61.78467128612675
1361695941.25,0.196340125,33.285833333333336,73.38000000512,-9.057291666666668,61.80237695741885
1361695941.5,0.19698070833333334,33.284166666666664,73.37,-7.357942708333334,61.818236433288575
1361695941.75,0.19756787500000003,33.282500000000006,73.35999999488001,-5.720104166666666,61.83405382398356
1361695942.0,0.19799487500000001,33.280833333333334,73.35000000000001,-5.124036458333333,61.85282050200387
1361695942.25,0.198208375,33.27916666666667,73.36666665813334,-8.648645833333335,61.869774181850566
1361695942.5,0.198155,33.2775,73.38333333333334,-12.225312500000001,61.89982228189837
1361695942.75,0.1979415,33.27583333333333,73.40000000853334,-12.538880208333333,61.931530097200344
1361695943.0,0.19767462500000002,33.27416666666667,73.41666666666667,-11.91765625,61.9553213697078
1361695943.25,0.197354375,33.2725,73.47166663850666,-11.254296875,61.96981348413849
1361695943.5,0.19703412500000003,33.270833333333336,73.52666666666667,-10.185625,61.98155858021957
1361695943.75,0.19666050000000002,33.27,73.58166669482667,-9.22515625,61.97571322950079
1361695944.0,0.19623350000000003,33.27,73.63666666666666,-7.881119791666666,61.95902724888714
1361695944.25,0.1958065,33.27,73.72583328767999,-6.110104166666667,61.915768434538116
1361695944.5,0.1953795,33.27,73.815,-4.719348958333334,61.881037422629056
1361695944.75,0.19489912499999998,33.26916666666667,73.90416671232,-4.0483593749999995,61.85361767633953
1361695945.0,0.19452550000000002,33.267500000000005,73.99333333333334,-2.960729166666667,61.82404913346522
1361695945.25,0.19425862500000002,33.26583333333334,74.09499994794668,-1.6313281249999998,61.79769248186219
1361695945.5,0.19399175,33.26416666666667,74.19666666666667,-0.6767708333333332,61.76574228829756
1361695945.75,0.19377824999999996,33.2625,74.29833338538667,0.13768229166666685,61.738045312514856
1361695946.0,0.19356474999999998,33.26083333333333,74.4,1.3810677083333334,61.713114444826545
1361695946.25,0.193404625,33.259166666666665,74.49583328426667,2.8695833333333334,61.68797590986865
1361695946.5,0.19324449999999996,33.2575,74.59166666666667,3.9471874999999996,61.653215631961444
1361695946.75,0.19308437499999997,33.255833333333335,74.68750004906667,4.800286458333333,61.62725476046099
1361695947.0,0.19297762499999996,33.25416666666667,74.78333333333333,4.887135416666666,61.61513576392948
1361695947.25,0.19281745833333333,33.252500000000005,74.87083328853333,4.379583333333334,61.62262508956422
1361695947.5,0.19260387499999998,33.25083333333333,74.95833333333333,4.443072916666666,61.623263320800106
1361695947.75,0.19249708333333335,33.25,75.04583337813332,5.57734375,61.61637640323436
1361695948.0,0.19228349999999997,33.25,75.13333333333333,6.513854166666667,61.60881201444715
1361695948.25,0.19206991666666665,33.25,75.20833329493333,7.282057291666667,61.597190164937835
1361695948.5,0.19190970833333332,33.25,75.28333333333333,8.429947916666666,61.58950145219166
1361695948.75,0.19169612499999997,33.24916666666667,75.35833337173334,9.500911458333333,61.57572371773825
1361695949.0,0.19153591666666667,33.247499999999995,75.43333333333334,9.606875,61.56257708463111
1361695949.25,0.1913757083333333,33.24583333333333,75.49499996842667,9.558567708333333,61.56198912259237
1361695949.5,0.1912155,33.244166666666665,75.55666666666667,9.737760416666667,61.568840962438166
1361695949.75,0.19110866666666668,33.2425,75.61833336490666,9.473828125,61.57484734190856
1361695950.0,0.19100183333333334,33.240833333333335,75.67999999999999,9.205859375,61.58760533856621
1361695950.25,0.19094841666666665,33.23916666666667,75.71666664789333,9.090755208333334,61.598839051286866
1361695950.5,0.1909484166666667,33.2375,75.75333333333333,8.380260416666667,61.61138159951897
1361695950.75,0.190895,33.23583333333333,75.79000001877333,7.440807291666666,61.6246856135495
1361695951.0,0.190895,33.23416666666666,75.82666666666667,6.583489583333333,61.6395125591769
1361695951.25,0.190841625,33.232499999999995,75.84416665770667,5.419791666666668,61.655100970602746
1361695951.5,0.19078825,33.23083333333333,75.86166666666668,4.0534895833333335,61.66840498463328
1361695951.75,0.19078825000000002,33.23,75.87916667562668,2.7099999999999995,61.68019553344786
1361695952.0,0.190734875,33.23,75.89666666666668,1.8202604166666667,61.69806834226901
1361695952.25,0.19068150000000003,33.23,75.89083333632,0.7502083333333335,61.71023150994202
1361695952.5,0.19057475,33.23,75.885,-0.16270833333333332,61.72011298489999
1361695952.75,0.190468,33.23,75.87916666368001,-0.4903645833333334,61.72771411948304
1361695953.0,0.19036125,33.23,75.87333333333333,-0.8669791666666667,61.719352871441686
1361695953.25,0.190201125,33.23,75.86333333845333,-0.9386458333333333,61.71175173685864
1361695953.5,0.18998762500000002,33.23,75.85333333333332,-0.6757031250000001,61.70478467124581
1361695953.75,0.18977412500000002,33.23,75.84333332821333,-0.7943489583333333,61.703603127317315
1361695954.0,0.189560625,33.23,75.83333333333333,-0.9755989583333333,61.70271696937095
1361695954.25,0.1894005,33.23,75.82166667263999,-0.6347656249999999,61.70271696937095
1361695954.5,0.18924037500000002,33.23,75.81,-0.3460416666666666,61.70271696937093
1361695954.75,0.189026875,33.23,75.79833332736001,-0.10278645833333329,61.708037763579085
1361695955.0,0.18886675,33.23,75.78666666666668,0.5806770833333333,61.70803776357908
1361695955.25,0.18865325,33.23,75.7783333376,1.361927083333333,61.70879787703738
1361695955.5,0.18854650000000003,33.23,75.77000000000001,1.5133854166666667,61.71031810395399
1361695955.75,0.18843975000000002,33.23,75.7616666624,1.6784635416666667,61.71449805499744
1361695956.0,0.18827962499999998,33.23,75.75333333333333,2.036015625,61.72437952995541
1361695956.25,0.18822625,33.23,75.74500000426667,1.6059114583333336,61.73274077799676
1361695956.5,0.188172875,33.23,75.73666666666668,1.2862760416666668,61.74122537861729
1361695956.75,0.18806612499999997,33.23,75.72833332906667,1.8632031249999998,61.74278630629771
1361695957.0,0.187959375,33.23,75.72000000000001,1.7798177083333335,61.74860445301912
1361695957.25,0.187852625,33.23,75.70833333930668,1.2510937500000001,61.75467459304994
1361695957.5,0.18774587499999998,33.23,75.69666666666669,1.541875,61.76074473308077
1361695957.75,0.1876925,33.23,75.68499999402668,1.9047916666666664,61.76681487311158
1361695958.0,0.18758575,33.23,75.67333333333335,1.4041666666666666,61.7728850131424
1361695958.25,0.18758575,33.23,75.66083333973334,0.7988020833333332,61.77895515317323
1361695958.5,0.18747899999999998,33.23,75.64833333333334,1.0784114583333333,61.78502529320405
1361695958.75,0.18737225,33.23,75.63583332693334,1.1484114583333331,61.79071604948294
1361695959.0,0.18737225,33.23,75.62333333333333,1.0769010416666667,61.79678618951376
1361695959.25,0.18726549999999997,33.23,75.60916667392,1.7381250000000001,61.802856329544575
1361695959.5,0.1872655,33.23,75.595,2.2913020833333335,61.80740893456769
1361695959.75,0.187318875,33.23,75.58083332608,2.071432291666667,61.81309969084658
1361695960.0,0.18737225,33.23,75.56666666666666,2.470859375,61.814237842102365
1361695960.25,0.18747899999999998,33.23,75.55000000853333,3.186015625,61.814237842102365
1361695960.5,0.187532375,33.23,75.53333333333333,3.1741666666666664,61.814237842102365
1361695960.75,0.18747899999999998,33.23,75.51666665813333,2.9101302083333334,61.814237842102365
1361695961.0,0.18747899999999998,33.23,75.5,3.21890625,61.814237842102365
1361695961.25,0.187425625,33.23,75.47666667861333,3.98171875,61.814237842102365
1361695961.5,0.187425625,33.23,75.45333333333333,4.101484374999999,61.814237842102365
1361695961.75,0.187425625,33.23,75.42999998805334,4.126171875,61.814237842102365
1361695962.0,0.18737225000000002,33.23,75.40666666666667,4.575729166666667,61.814237842102365
1361695962.25,0.18737225000000002,33.23,75.37583334912,4.893880208333333,61.814237842102365
1361695962.5,0.187318875,33.23,75.34500000000001,4.798515625,61.814237842102365
1361695962.75,0.1872655,33.23,75.31416665088001,4.847942708333334,61.814237842102365
1361695963.0,0.1872655,33.23,75.28333333333335,5.1740104166666665,61.814237842102365
1361695963.25,0.18715875,33.23,75.24666668544,5.166510416666666,61.814237842102365
1361695963.5,0.187105375,33.23,75.21000000000001,4.945729166666667,61.814237842102365
1361695963.75,0.18715874999999996,33.23,75.17333331456001,5.185104166666666,61.814237842102365
1361695964.0,0.18721212499999998,33.23,75.13666666666667,5.502526041666666,61.814237842102365
1361695964.25,0.187318875,33.23,75.09666668714667,5.1740104166666665,61.814237842102365
1361695964.5,0.18737225,33.23,75.05666666666667,4.891354166666667,61.814237842102365
1361695964.75,0.18737225,33.23,75.01666664618668,5.1180208333333335,61.814237842102365
1361695965.0,0.18742562499999996,33.23,74.97666666666667,5.0468489583333325,61.814237842102365
1361695965.25,0.18742562499999996,33.23,74.93500002133334,4.530911458333333,61.814237842102365
1361695965.5,0.18742562499999996,33.23,74.89333333333335,4.492213541666667,61.814237842102365
1361695965.75,0.18742562499999996,33.23,74.85166664533334,4.807734375,61.814237842102365
1361695966.0,0.18737225,33.23,74.81,4.552942708333334,61.814237842102365
1361695966.25,0.18737225,33.23,74.76666668885333,4.312109375,61.814237842102365
1361695966.5,0.18737225,33.23,74.72333333333333,4.7464843750000005,61.814237842102365
1361695966.75,0.187318875,33.23,74.67999997781334,5.086145833333334,61.814237842102365
1361695967.0,0.18726549999999997,33.23,74.63666666666667,4.801822916666667,61.814237842102365
1361695967.25,0.18715874999999996,33.23,74.59500002133333,4.80015625,61.814237842102365
1361695967.5,0.187105375,33.23,74.55333333333334,5.375963541666667,61.814237842102365
1361695967.75,0.187105375,33.23,74.51166664533334,5.323880208333334,61.814237842102365
1361695968.0,0.186998625,33.23,74.47,4.9593750000000005,61.814237842102365
1361695968.25,0.186998625,33.23,74.43000002048,5.406067708333333,61.814237842102365
1361695968.5,0.18694525000000004,33.23,74.38999999999999,5.885260416666667,61.814237842102365
1361695968.75,0.18694525000000004,33.23,74.34999997951999,5.530182291666666,61.814237842102365
1361695969.0,0.18694525000000004,33.23,74.30999999999999,5.532265625,61.814237842102365
1361695969.25,0.186891875,33.23,74.27500001792,6.207083333333333,61.814237842102365
1361695969.5,0.18683850000000002,33.23,74.24,6.321458333333333,61.814237842102365
1361695969.75,0.18673175,33.23,74.20499998208,5.833151041666667,61.814237842102365
1361695970.0,0.186625,33.23,74.17,6.013671875,61.814237842102365
1361695970.25,0.18651825,33.23,74.13666668373334,6.602708333333333,61.814237842102365
1361695970.5,0.18641150000000004,33.23,74.10333333333334,6.500182291666666,61.814237842102365
1361695970.75,0.18630475000000002,33.23,74.06999998293334,6.586145833333333,61.814237842102365
1361695971.0,0.186251375,33.23,74.03666666666668,7.288125,61.814237842102365
1361695971.25,0.18609120833333334,33.23,74.00666668202668,7.402291666666667,61.814237842102365
1361695971.5,0.18593099999999999,33.23,73.97666666666667,6.960598958333333,61.814237842102365
1361695971.75,0.18571741666666663,33.23,73.94666665130667,7.2242187499999995,61.814237842102365
1361695972.0,0.1855038333333333,33.23,73.91666666666667,7.62390625,61.814237842102365
1361695972.25,0.185343625,33.23,73.88666668202667,7.210677083333334,61.814237842102365
1361695972.5,0.18518341666666663,33.23,73.85666666666667,6.699166666666666,61.814237842102365
1361695972.75,0.18507658333333332,33.23,73.82666665130667,7.049739583333333,61.814237842102365
1361695973.0,0.18496975000000002,33.23,73.79666666666667,7.305729166666666,61.814237842102365
1361695973.25,0.18486291666666665,33.23,73.77750000981334,6.766979166666666,61.814237842102365
1361695973.5,0.1847560833333333,33.23,73.75833333333334,6.372890625,61.814237842102365
1361695973.75,0.18464925,33.229166666666664,73.73916665685334,6.452135416666667,61.814237842102365
1361695974.0,0.18454241666666663,33.2275,73.72000000000001,5.967421875,61.814237842102365
1361695974.25,0.184489,33.225833333333334,73.70916667221334,5.336067708333332,61.814237842102365
1361695974.5,0.184489,33.22416666666666,73.69833333333335,5.517682291666667,61.814237842102365
1361695974.75,0.184489,33.222500000000004,73.68749999445335,5.53125,61.814237842102365
1361695975.0,0.184489,33.22083333333333,73.67666666666668,4.953177083333333,61.814237842102365
1361695975.25,0.184489,33.21916666666666,73.67416666794668,4.693697916666667,61.814237842102365
1361695975.5,0.184489,33.2175,73.67166666666668,5.043932291666667,61.814237842102365
1361695975.75,0.184489,33.21583333333333,73.66916666538667,4.842083333333334,61.814237842102365
1361695976.0,0.184489,33.21416666666667,73.66666666666667,4.1574479166666665,61.814237842102365
1361695976.25,0.184489,33.2125,73.66166666922666,4.077135416666667,61.814237842102365
1361695976.5,0.184489,33.21083333333333,73.65666666666667,4.418880208333333,61.814237842102365
1361695976.75,0.184489,33.21,73.65166666410667,4.146145833333333,61.814237842102365
1361695977.0,0.184489,33.21,73.64666666666666,4.031536458333334,61.814237842102365
1361695977.25,0.184489,33.21,73.63500000597332,4.4419531249999995,61.814237842102365
1361695977.5,0.184489,33.21,73.62333333333333,4.2686979166666665,61.814237842102365
1361695977.75,0.184489,33.21,73.61166666069334,3.7721093749999994,61.814237842102365
1361695978.0,0.184489,33.21,73.60000000000001,3.90453125,61.814237842102365
1361695978.25,0.184435625,33.21,73.57750001152,4.285781249999999,61.814237842102365
1361695978.5,0.18443562499999996,33.21,73.555,3.895494791666667,61.814237842102365
1361695978.75,0.18432887499999998,33.21,73.53249998848001,3.5575260416666663,61.814237842102365
1361695979.0,0.18416875,33.21,73.51,4.041145833333333,61.814237842102365
1361695979.25,0.18411537499999997,33.21,73.47666668373334,4.211276041666666,61.814237842102365
1361695979.5,0.18395525000000001,33.21,73.44333333333333,3.6598958333333336,61.814237842102365
1361695979.75,0.183901875,33.21,73.40999998293333,3.5702604166666667,61.814237842102365
1361695980.0,0.18374174999999995,33.21,73.37666666666667,3.875755208333333,61.814237842102365
1361695980.25,0.183581625,33.21,73.33833335295999,3.5823958333333334,61.814237842102365
1361695980.5,0.18352824999999998,33.21,73.29999999999998,3.5265364583333336,61.814237842102365
1361695980.75,0.183368125,33.21,73.26166664703999,4.119218750000001,61.814237842102365
1361695981.0,0.18331475,33.21,73.22333333333331,4.20828125,61.814237842102365
1361695981.25,0.18331474999999997,33.21,73.18500001962666,3.590104166666667,61.814237842102365
1361695981.5,0.18326137500000003,33.21,73.14666666666665,3.541380208333333,61.814237842102365
1361695981.75,0.183368125,33.21,73.10833331370665,3.9514843749999997,61.814237842102365
1361695982.0,0.18352824999999998,33.21,73.07,3.7254687500000006,61.814237842102365
1361695982.25,0.183581625,33.21,73.0325000192,3.654140625,61.814237842102365
1361695982.5,0.18374174999999995,33.21,72.995,3.983541666666666,61.814237842102365
1361695982.75,0.18379512499999998,33.21,72.9574999808,3.6811979166666666,61.814237842102365
1361695983.0,0.18395525000000001,33.21,72.92,3.0412760416666664,61.814237842102365
1361695983.25,0.18411537499999997,33.21,72.8825000192,3.1737239583333334,61.814237842102365
1361695983.5,0.18416875,33.21,72.845,2.9946875,61.814237842102365
1361695983.75,0.18432887499999998,33.21083333333333,72.8074999808,2.1560416666666664,61.814237842102365
1361695984.0,0.18438225,33.2125,72.77,1.88390625,61.814237842102365
1361695984.25,0.184435625,33.21416666666667,72.7325000192,2.1711197916666665,61.814237842102365
1361695984.5,0.184489,33.21583333333333,72.695,2.3148958333333334,61.814237842102365
1361695984.75,0.184435625,33.21666666666667,72.6574999808,2.0198177083333335,61.814237842102365
1361695985.0,0.18438225,33.21666666666666,72.62,1.7698697916666666,61.814237842102365
1361695985.25,0.18427549999999995,33.21666666666666,72.58333335210668,1.6345572916666666,61.814237842102365
1361695985.5,0.18422212500000001,33.21666666666667,72.54666666666668,1.70765625,61.814237842102365
1361695985.75,0.184115375,33.217499999999994,72.50999998122667,2.1777604166666666,61.814237842102365
1361695986.0,0.184008625,33.219166666666666,72.47333333333334,2.3822916666666667,61.814237842102365
1361695986.25,0.183901875,33.22083333333333,72.44083334997335,1.566484375,61.814237842102365
1361695986.5,0.18379512500000003,33.2225,72.40833333333335,1.0493229166666669,61.814237842102365
1361695986.75,0.18368837500000001,33.222500000000004,72.37583331669335,1.4868750000000002,61.814237842102365
1361695987.0,0.18358162499999997,33.22083333333333,72.34333333333335,1.2930208333333333,61.814237842102365
1361695987.25,0.183474875,33.21916666666666,72.31833334613334,0.7915104166666668,61.814237842102365
1361695987.5,0.183368125,33.2175,72.29333333333334,0.7166666666666668,61.814237842102365
1361695987.75,0.18331475,33.21666666666666,72.26833332053333,0.7534375000000001,61.814237842102365
1361695988.0,0.18326137499999998,33.21666666666667,72.24333333333333,0.5605729166666668,61.814237842102365
1361695988.25,0.18326137500000003,33.21666666666667,72.22250001066666,-0.3849739583333333,61.814237842102365
1361695988.5,0.183208,33.21666666666666,72.20166666666667,-1.2333333333333332,61.814237842102365
1361695988.75,0.18326137499999998,33.21458333333333,72.18083332266667,-1.5142708333333335,61.814237842102365
1361695989.0,0.18326137499999998,33.21041666666667,72.16000000000001,-1.4783072916666666,61.814237842102365
1361695989.25,0.18331475,33.20625,72.13833334442667,-0.6380468749999999,61.814237842102365
1361695989.5,0.183368125,33.202083333333334,72.11666666666667,0.30247395833333335,61.814237842102365
1361695989.75,0.1834215,33.19875,72.09499998890666,0.30898437500000003,61.814237842102365
1361695990.0,0.18352825000000003,33.19625,72.07333333333332,0.45541666666666675,61.814237842102365
1361695990.25,0.183581625,33.19375,72.04666668031999,1.1826822916666666,61.814237842102365
1361695990.5,0.18363500000000002,33.19125,72.01999999999998,1.4434114583333333,61.814237842102365
1361695990.75,0.18368837500000001,33.18875,71.99333331967999,1.31828125,61.814237842102365
1361695991.0,0.18379512500000003,33.186249999999994,71.96666666666665,1.8652083333333334,61.814237842102365
1361695991.25,0.1839552916666667,33.183749999999996,71.93916668074665,3.2462760416666665,61.814237842102365
1361695991.5,0.18406204166666665,33.18125,71.91166666666666,4.0046614583333335,61.814237842102365
1361695991.75,0.18411541666666667,33.18,71.88416665258667,4.160598958333333,61.814237842102365
1361695992.0,0.1842221666666667,33.18,71.85666666666667,4.720364583333333,61.814237842102365
1361695992.25,0.18427554166666663,33.18,71.82750001493334,5.094453125,61.814237842102365
1361695992.5,0.18432891666666665,33.18,71.79833333333333,4.868151041666667,61.814237842102365
1361695992.75,0.18438229166666667,33.18,71.76916665173333,5.099296874999999,61.814237842102365
1361695993.0,0.18438229166666664,33.18,71.74,5.970026041666666,61.814237842102365
1361695993.25,0.18443566666666666,33.18,71.71250001407999,6.214895833333333,61.814237842102365
1361695993.5,0.1845424583333333,33.18,71.685,6.25671875,61.814237842102365
1361695993.75,0.18470266666666665,33.18125,71.65749998592001,6.916901041666666,61.814237842102365
1361695994.0,0.1847560833333333,33.18375,71.63000000000001,7.330651041666667,61.814237842102365
1361695994.25,0.18475608333333335,33.18625,71.60333334698667,7.17546875,61.814237842102365
1361695994.5,0.1848095,33.18875,71.57666666666667,7.345104166666666,61.814237842102365
1361695994.75,0.18486291666666665,33.19,71.54999998634666,7.782161458333333,61.814237842102365
1361695995.0,0.18491633333333332,33.19,71.52333333333333,7.746588541666667,61.814237842102365
1361695995.25,0.18502316666666666,33.19,71.50083334485332,7.454192708333333,61.814237842102365
1361695995.5,0.18513,33.190000000000005,71.47833333333332,7.6215625,61.814237842102365
1361695995.75,0.1852368333333333,33.191250000000004,71.45583332181333,7.6656249999999995,61.814237842102365
1361695996.0,0.18529025,33.19375,71.43333333333332,7.224661458333333,61.814237842102365
1361695996.25,0.18534366666666666,33.19625,71.41250001066666,7.011119791666666,61.814237842102365
1361695996.5,0.18529025,33.19875,71.39166666666667,7.095052083333333,61.814237842102365
1361695996.75,0.18518341666666668,33.19875,71.37083332266667,6.983958333333334,61.814237842102365
1361695997.0,0.18513,33.19625,71.35000000000001,6.696458333333333,61.814237842102365
1361695997.25,0.18507658333333332,33.19375,71.32833334442667,6.664192708333332,61.814237842102365
1361695997.5,0.18502316666666666,33.191250000000004,71.30666666666667,6.877083333333334,61.814237842102365
1361695997.75,0.18496974999999996,33.191250000000004,71.28499998890668,6.980807291666667,61.814237842102365
1361695998.0,0.18491633333333332,33.19375,71.26333333333334,6.822109375,61.814237842102365
1361695998.25,0.1848095,33.19625,71.24416667648,6.831171875,61.814237842102365
1361695998.5,0.18470266666666665,33.19875,71.225,7.130286458333334,61.814237842102365
1361695998.75,0.18459583333333332,33.19875,71.20583332352,7.390677083333334,61.814237842102365
1361695999.0,0.18454241666666668,33.19625,71.18666666666667,7.304401041666668,61.814237842102365
1361695999.25,0.184489,33.19375,71.165833344,7.13703125,61.814237842102365
1361695999.5,0.184489,33.191250000000004,71.14500000000001,7.388854166666667,61.814237842102365
1361695999.75,0.18443562499999996,33.18916666666667,71.124166656,7.421979166666667,61.814237842102365
1361696000.0,0.18438225,33.1875,71.10333333333334,7.204817708333334,61.814237842102365
1361696000.25,0.18432887499999998,33.185833333333335,71.08083334485333,7.236692708333334,61.814237842102365
1361696000.5,0.18432887499999998,33.18416666666666,71.05833333333334,7.191276041666666,61.814237842102365
1361696000.75,0.1842755,33.18125,71.03583332181334,6.872760416666668,61.814237842102365
1361696001.0,0.18416875,33.177083333333336,71.01333333333334,6.739140625,61.814237842102365
1361696001.25,0.18406199999999998,33.172916666666666,70.98000001706667,6.824817708333334,61.814237842102365
1361696001.5,0.18395525000000001,33.168749999999996,70.94666666666666,6.655104166666667,61.814237842102365
1361696001.75,0.1838485,33.166666666666664,70.91333331626666,6.194895833333333,61.814237842102365
1361696002.0,0.18374175,33.166666666666664,70.88,6.015703124999999,61.814237842102365
1361696002.25,0.18363500000000002,33.166666666666664,70.83083335850667,6.185729166666667,61.814237842102365
1361696002.5,0.18352825000000003,33.166666666666664,70.78166666666667,5.906744791666667,61.814237842102365
1361696002.75,0.18347487500000004,33.1675,70.73249997482667,5.458854166666668,61.814237842102365
1361696003.0,0.183474875,33.16916666666666,70.68333333333334,5.406249999999999,61.814237842102365
1361696003.25,0.18342150000000002,33.17083333333333,70.61083337045334,5.515546874999999,61.814237842102365
1361696003.5,0.18331475,33.1725,70.53833333333333,5.250885416666667,61.814237842102365
1361696003.75,0.18331475,33.174166666666665,70.46583329621333,4.776927083333334,61.814237842102365
1361696004.0,0.18342150000000002,33.17583333333334,70.39333333333333,4.600390625,61.814237842102365
1361696004.25,0.18352825000000003,33.1775,70.30250004650667,4.563932291666667,61.814237842102365
1361696004.5,0.183635,33.17916666666667,70.21166666666667,4.229296875,61.814237842102365
1361696004.75,0.18374175,33.17916666666667,70.12083328682668,3.899739583333334,61.814237842102365
1361696005.0,0.1838485,33.1775,70.03000000000002,4.061692708333333,61.814237842102365
1361696005.25,0.18406204166666665,33.17583333333333,69.93000005120001,4.217734375,61.814237842102365
1361696005.5,0.184382375,33.174166666666665,69.83000000000001,3.8949479166666663,61.810823388335024
1361696005.75,0.18470270833333333,33.17249999999999,69.72999994880001,3.8558333333333334,61.81006462083118
1361696006.0,0.18496966666666667,33.170833333333334,69.63000000000001,4.238723958333334,61.81006462083118
1361696006.25,0.18528999999999998,33.16916666666666,69.53166671701334,4.1775520833333335,61.81006462083118
1361696006.5,0.18561033333333332,33.1675,69.43333333333334,4.023932291666667,61.81006462083118
1361696006.75,0.18587729166666667,33.166666666666664,69.33499994965334,4.480234374999999,61.810064620831184
1361696007.0,0.186090875,33.166666666666664,69.23666666666666,5.1433333333333335,61.81006462083118
1361696007.25,0.18635783333333333,33.166666666666664,69.1408333824,5.197578125,61.81006462083118
1361696007.5,0.18667816666666667,33.166666666666664,69.045,5.244453125,61.810064620831184
1361696007.75,0.18694512499999996,33.1675,68.9491666176,5.898255208333333,61.808167702071536
1361696008.0,0.1872120833333333,33.16916666666666,68.85333333333334,6.231640625,61.802856329544575
1361696008.25,0.187425625,33.170833333333334,68.76333337941334,5.933177083333334,61.79678618951376
1361696008.5,0.18747899999999998,33.1725,68.67333333333335,6.205598958333333,61.79413050325028
1361696008.75,0.18758575,33.17416666666667,68.58333328725334,6.836640625,61.78881913072331
1361696009.0,0.187639125,33.17583333333334,68.49333333333334,6.657395833333333,61.78274899069248
1361696009.25,0.1876925,33.1775,68.40833337685334,6.246458333333333,61.77667885066166
1361696009.5,0.18779924999999997,33.17916666666667,68.32333333333334,6.56703125,61.77060871063085
1361696009.75,0.187906,33.18,68.23833328981334,6.8683072916666665,61.764538570600024
1361696010.0,0.18801274999999998,33.18,68.15333333333334,6.438958333333333,61.7584684305692
1361696010.25,0.188066125,33.18,68.07833337173334,6.03515625,61.75239829053839
1361696010.5,0.188066125,33.18,68.00333333333333,6.136223958333333,61.746328150507566
1361696010.75,0.1881195,33.18,67.92833329493334,5.974687500000001,61.747086918011426
1361696011.0,0.188172875,33.18,67.85333333333334,5.539270833333333,61.75239829053839
1361696011.25,0.188172875,33.18,67.79666669568,5.427161458333333,61.7584684305692
1361696011.5,0.18822625,33.18,67.74000000000001,5.323671875,61.764538570600024
1361696011.75,0.18822625,33.18,67.68333330432,4.861197916666667,61.770608710630846
1361696012.0,0.18827962500000003,33.18,67.62666666666667,4.6827604166666665,61.77667885066166
1361696012.25,0.188333,33.18,67.58500002133333,4.889557291666667,61.78274899069249
1361696012.5,0.188333,33.18,67.54333333333332,4.721015625,61.788819130723304
1361696012.75,0.188333,33.18,67.50166664533333,4.254427083333334,61.79488927075412
1361696013.0,0.188333,33.18,67.46,4.020130208333334,61.80095941078495
1361696013.25,0.188333,33.18,67.42666668373333,4.218411458333334,61.80702955081577
1361696013.5,0.188333,33.18,67.39333333333333,4.4133072916666665,61.81309969084658
1361696013.75,0.188333,33.18,67.35999998293333,4.2491666666666665,61.814237842102365
1361696014.0,0.188333,33.18,67.32666666666667,4.0796093749999995,61.814237842102365
1361696014.25,0.188333,33.18,67.28750002005333,4.20953125,61.814237842102365
1361696014.5,0.188333,33.18,67.24833333333333,4.319244791666667,61.814237842102365
1361696014.75,0.188333,33.18,67.20916664661334,4.068177083333333,61.814237842102365
1361696015.0,0.188333,33.18,67.17,3.8413802083333333,61.814237842102365
1361696015.25,0.188333,33.18,67.12833335466667,3.9579947916666662,61.814237842102365
1361696015.5,0.18827962499999998,33.18,67.08666666666667,4.012317708333334,61.814237842102365
1361696015.75,0.18822625,33.17916666666667,67.04499997866667,3.789296875,61.814237842102365
1361696016.0,0.1881195,33.1775,67.00333333333333,3.706119791666666,61.814237842102365
1361696016.25,0.18801274999999998,33.17583333333334,66.96083335509333,3.7023177083333327,61.814237842102365
1361696016.5,0.18790600000000002,33.17416666666667,66.91833333333332,3.2647395833333337,61.814237842102365
1361696016.75,0.18774587499999998,33.1725,66.87583331157333,2.8340364583333333,61.814237842102365
1361696017.0,0.18763912500000002,33.17083333333333,66.83333333333333,2.9082291666666666,61.814237842102365
1361696017.25,0.18747899999999998,33.16916666666666,66.79166668799999,2.983619791666667,61.814237842102365
1361696017.5,0.187318875,33.1675,66.75,2.628515625,61.814237842102365
1361696017.75,0.18715875,33.16583333333333,66.70833331200001,2.733125,61.814237842102365
1361696018.0,0.18694525000000004,33.16416666666666,66.66666666666667,3.1831770833333333,61.814237842102365
1361696018.25,0.18673175,33.1625,66.62666668714667,3.1888020833333335,61.814237842102365
1361696018.5,0.18651820833333335,33.16083333333333,66.58666666666667,2.8551041666666666,61.814237842102365
1361696018.75,0.18630466666666667,33.16,66.54666664618668,2.93890625,61.814237842102365
1361696019.0,0.18614450000000002,33.16,66.50666666666667,3.398776041666667,61.814237842102365
1361696019.25,0.1859843333333333,33.16,66.46750002005334,3.6230208333333334,61.814237842102365
1361696019.5,0.18577074999999998,33.16,66.42833333333334,3.787083333333333,61.814237842102365
1361696019.75,0.18561054166666668,33.16,66.38916664661335,4.480338541666667,61.814237842102365
1361696020.0,0.18539695833333333,33.16,66.35000000000001,5.0775,61.814237842102365
1361696020.25,0.18523674999999998,33.16,66.31500001792,5.14859375,61.814237842102365
1361696020.5,0.18507654166666665,33.16,66.28,5.556510416666666,61.814237842102365
1361696020.75,0.18491633333333335,33.16,66.24499998208,6.244505208333333,61.814237842102365
1361696021.0,0.18486291666666665,33.16,66.21,6.455182291666667,61.814237842102365
1361696021.25,0.18486291666666665,33.16,66.18250001407999,6.329036458333333,61.814237842102365
1361696021.5,0.18491633333333332,33.16,66.155,6.773932291666665,61.814237842102365
1361696021.75,0.18496974999999996,33.16083333333333,66.12749998592001,7.492395833333333,61.814237842102365
1361696022.0,0.18502316666666663,33.1625,66.10000000000001,7.611380208333333,61.814237842102365
1361696022.25,0.1850765833333333,33.16416666666667,66.08083334314667,7.400234374999999,61.814237842102365
1361696022.5,0.18518341666666668,33.16583333333333,66.06166666666667,7.728151041666666,61.814237842102365
1361696022.75,0.18529025,33.1675,66.04249999018667,7.943645833333334,61.814237842102365
1361696023.0,0.1853970833333333,33.16916666666667,66.02333333333333,7.5378125,61.814237842102365
1361696023.25,0.18550391666666666,33.17083333333333,66.01250000554666,7.493645833333333,61.814237842102365
1361696023.5,0.18561074999999996,33.1725,66.00166666666667,7.786848958333334,61.814237842102365
1361696023.75,0.18571758333333332,33.17333333333333,65.99083332778667,7.438411458333334,61.814237842102365
1361696024.0,0.185771,33.17333333333333,65.98,6.991770833333334,61.814237842102365
1361696024.25,0.18571758333333332,33.17333333333333,65.97416666965333,7.348515625,61.814237842102365
1361696024.5,0.18566416666666666,33.17333333333333,65.96833333333333,7.642994791666667,61.814237842102365
1361696024.75,0.18555733333333332,33.1725,65.96249999701334,7.195364583333333,61.814237842102365
1361696025.0,0.18550391666666666,33.170833333333334,65.95666666666666,6.905260416666667,61.814237842102365
1361696025.25,0.1853970833333333,33.16916666666666,65.95500000085333,7.408098958333333,61.814237842102365
1361696025.5,0.18529025,33.1675,65.95333333333333,7.405286458333333,61.814237842102365
1361696025.75,0.18518341666666663,33.165416666666665,65.95166666581333,6.84109375,61.814237842102365
1361696026.0,0.18507658333333332,33.16291666666666,65.95,7.093255208333333,61.814237842102365
1361696026.25,0.18502316666666666,33.16041666666667,65.95249999872,7.477864583333333,61.814237842102365
1361696026.5,0.18491633333333335,33.157916666666665,65.955,7.065338541666667,61.814237842102365
1361696026.75,0.18480949999999996,33.156666666666666,65.95750000128,6.971927083333333,61.814237842102365
1361696027.0,0.18470266666666665,33.15666666666666,65.96,7.598776041666667,61.814237842102365
1361696027.25,0.18464925,33.156666666666666,65.96416666453334,7.664192708333334,61.814237842102365
1361696027.5,0.1845958333333333,33.15666666666666,65.96833333333333,7.112578125,61.814237842102365
1361696027.75,0.18459583333333332,33.15625,65.97250000213333,7.211510416666666,61.814237842102365
1361696028.0,0.18454241666666668,33.15541666666666,65.97666666666667,7.710989583333333,61.814237842102365
1361696028.25,0.18454241666666663,33.154583333333335,65.98249999701333,7.392656250000001,61.814237842102365
1361696028.5,0.18454241666666663,33.153749999999995,65.98833333333334,7.155234375,61.81592079926156
1361696028.75,0.18454241666666668,33.15333333333333,65.99416666965334,7.4109375,61.82096967073914
1361696029.0,0.18454241666666668,33.15333333333333,66.0,7.087526041666667,61.83443332801266
1361696029.25,0.184489,33.15333333333333,66.00333333162666,6.063359375000001,61.847896985286184
1361696029.5,0.184489,33.15333333333333,66.00666666666666,5.638906250000001,61.86136064255971
1361696029.75,0.184489,33.15291666666666,66.01000000170666,5.272916666666667,61.87482429983323
1361696030.0,0.18454241666666668,33.15208333333333,66.01333333333332,4.102265625,61.88828795710676
1361696030.25,0.18464925,33.15125,66.01499999914665,3.0183593750000006,61.90175161438029
1361696030.5,0.18475608333333335,33.150416666666665,66.01666666666665,2.7445833333333334,61.91521527165381
1361696030.75,0.18486291666666665,33.15,66.01833333418666,2.2538541666666667,61.9160567502334
1361696031.0,0.18496974999999996,33.15,66.02,1.1172916666666668,61.9160567502334
1361696031.25,0.18512995833333332,33.15,66.02083333290666,0.420625,61.916056750233395
1361696031.5,0.18534354166666667,33.15,66.02166666666666,0.19981770833333332,61.91437379307421
1361696031.75,0.18550375,33.15,66.02250000042666,-0.11096354166666672,61.909324921596635
1361696032.0,0.18571733333333332,33.15,66.02333333333333,-0.45242187500000014,61.89586126432311
1361696032.25,0.1859309166666667,33.15,66.02583333205334,0.07234374999999992,61.88239760704959
1361696032.5,0.18614450000000002,33.15,66.02833333333334,0.6922395833333334,61.86893394977606
1361696032.75,0.18635808333333334,33.15,66.03083333461333,1.1184375,61.85053830372749
1361696033.0,0.18651825,33.15,66.03333333333335,1.9396614583333331,61.83100450642314
1361696033.25,0.186625,33.15,66.03749999786668,2.984609375,61.8114707091188
1361696033.5,0.18673175,33.15,66.04166666666667,3.4778125,61.79193691181445
1361696033.75,0.18683850000000002,33.15,66.04583333546667,3.8165885416666665,61.785025293204036
1361696034.0,0.18694525000000004,33.15,66.05,4.463828125,61.77895515317322
1361696034.25,0.186998625,33.15,66.05333333162666,5.037265625,61.77288501314241
1361696034.5,0.186998625,33.15,66.05666666666667,5.067291666666667,61.76681487311158
1361696034.75,0.187052,33.15,66.06000000170667,5.036015625,61.76074473308076
1361696035.0,0.187052,33.15,66.06333333333333,5.2109635416666675,61.75467459304994
1361696035.25,0.187052,33.15,66.06499999914666,5.021041666666666,61.74860445301912
1361696035.5,0.187052,33.15,66.06666666666666,4.466927083333333,61.742534312988305
1361696035.75,0.187052,33.15,66.06833333418666,3.9910937499999997,61.741396161732524
1361696036.0,0.187052,33.15,66.07,3.463802083333333,61.741396161732524
1361696036.25,0.187052,33.15,66.06833333418666,2.7709375,61.741396161732524
1361696036.5,0.187052,33.15,66.06666666666666,2.202421875,61.741396161732524
1361696036.75,0.187052,33.15,66.06499999914665,1.758125,61.741396161732524
1361696037.0,0.18699862499999997,33.15,66.06333333333332,1.3232812500000002,61.74329308049216
1361696037.25,0.18694524999999998,33.15,66.06000000170665,0.8512760416666668,61.74936322052297
1361696037.5,0.1868385,33.15,66.05666666666666,0.4959635416666666,61.7554333605538
1361696037.75,0.18673174999999997,33.149166666666666,66.05333333162666,0.30296874999999995,61.76150350058462
1361696038.0,0.18662499999999996,33.1475,66.05,0.13471354166666663,61.76757364061544
1361696038.25,0.18651825,33.145833333333336,66.04416666965332,-0.13934895833333336,61.773643780646246
1361696038.5,0.18641149999999998,33.14416666666667,66.03833333333333,-0.26583333333333337,61.779713920677075
1361696038.75,0.18625133333333332,33.1425,66.03249999701333,-0.19226562500000002,61.7857840607079
1361696039.0,0.18609116666666667,33.14083333333333,66.02666666666666,-0.12544270833333335,61.79185420073872
1361696039.25,0.18593099999999999,33.13916666666666,66.02000000341333,-0.18046875000000004,61.797924340769534
1361696039.5,0.18571741666666663,33.137499999999996,66.01333333333332,0.05864583333333331,61.803994480800355
1361696039.75,0.1855038333333333,33.13666666666667,66.00666666325333,0.638828125,61.81006462083118
1361696040.0,0.185343625,33.13666666666666,66.0,1.1245052083333333,61.814237842102365
1361696040.25,0.18518341666666663,33.13666666666666,65.99083333802666,1.6829687499999997,61.814237842102365
1361696040.5,0.18507658333333332,33.13666666666667,65.98166666666665,2.698307291666666,61.814237842102365
1361696040.75,0.18496975000000002,33.137499999999996,65.97249999530666,3.4832031249999997,61.814237842102365
1361696041.0,0.18486291666666665,33.13916666666667,65.96333333333332,4.0370052083333325,61.814237842102365
1361696041.25,0.18470270833333333,33.14083333333333,65.95333333845332,5.140755208333333,61.814237842102365
1361696041.5,0.18454249999999997,33.1425,65.94333333333333,6.273619791666667,61.814237842102365
1361696041.75,0.1844357083333333,33.14416666666667,65.93333332821334,6.80765625,61.814237842102365
1361696042.0,0.18427554166666663,33.145833333333336,65.92333333333333,7.357942708333333,61.814237842102365
1361696042.25,0.18416875,33.1475,65.91333333845333,8.446302083333334,61.814237842102365
1361696042.5,0.18406200000000003,33.149166666666666,65.90333333333334,9.193880208333333,61.814237842102365
1361696042.75,0.18395525,33.15,65.89333332821333,9.201979166666666,61.814237842102365
1361696043.0,0.18384849999999997,33.15,65.88333333333333,9.359921875,61.814237842102365
1361696043.25,0.18374175,33.15,65.87500000426665,9.750625,61.814237842102365
1361696043.5,0.183635,33.15,65.86666666666665,9.533932291666666,61.814237842102365
1361696043.75,0.18352824999999998,33.15,65.85833332906665,9.239947916666667,61.814237842102365
1361696044.0,0.18342150000000002,33.15,65.84999999999998,9.351145833333334,61.814237842102365
1361696044.25,0.183368125,33.15,65.84166667093332,9.047656250000001,61.814237842102365
1361696044.5,0.18331475,33.15,65.83333333333331,8.400546875,61.814237842102365
1361696044.75,0.18326137500000003,33.15,65.82499999573332,8.136484375,61.814237842102365
1361696045.0,0.18326137500000003,33.15,65.81666666666666,8.043203125,61.814237842102365
1361696045.25,0.183154625,33.15,65.8083333376,7.490885416666667,61.814237842102365
1361696045.5,0.18310125,33.15,65.80000000000001,6.829166666666667,61.81385845835044
1361696045.75,0.18299450000000003,33.15,65.7916666624,6.6140364583333335,61.81347907459851
1361696046.0,0.182941125,33.15,65.78333333333335,6.566770833333334,61.81347907459852
1361696046.25,0.18288775000000002,33.15,65.77166667264001,6.067395833333333,61.81272030709466
1361696046.5,0.18283437500000002,33.15,65.76000000000002,5.51546875,61.81006462083118
1361696046.75,0.182834375,33.149166666666666,65.74833332736002,5.438776041666666,61.803994480800355
1361696047.0,0.182781,33.1475,65.73666666666668,5.224401041666666,61.797924340769534
1361696047.25,0.18272762499999998,33.145833333333336,65.72000000853335,4.592604166666667,61.79185420073872
1361696047.5,0.18272762499999998,33.14416666666667,65.70333333333335,4.20171875,61.7857840607079
1361696047.75,0.18267425,33.14333333333334,65.68666665813333,4.310989583333334,61.77971392067707
1361696048.0,0.18267425,33.14333333333333,65.67,4.049375,61.77364378064626
1361696048.25,0.18272762500000003,33.14333333333334,65.65083334314666,3.4542968750000003,61.76757364061544
1361696048.5,0.182781,33.14333333333334,65.63166666666666,3.417265625,61.761882884336536
1361696048.75,0.18288775000000002,33.1425,65.61249999018666,3.6166406250000005,61.75619212805765
1361696049.0,0.18294112500000004,33.14083333333333,65.59333333333332,3.160911458333333,61.75012198802683
1361696049.25,0.18299450000000003,33.13916666666666,65.57666667519999,2.9150520833333338,61.74481061549986
1361696049.5,0.18299449999999998,33.137499999999996,65.55999999999999,3.4299218750000002,61.741396161732524
1361696049.75,0.18288775000000002,33.13666666666667,65.54333332479999,3.4440625,61.741396161732524
1361696050.0,0.18288775000000002,33.13666666666667,65.52666666666666,3.162421875,61.741396161732524
1361696050.25,0.18283437500000002,33.13666666666667,65.51583333887999,3.761901041666667,61.741396161732524
1361696050.5,0.18272762500000003,33.13666666666666,65.505,4.505364583333334,61.741396161732524
1361696050.75,0.18267425,33.13583333333333,65.49416666112,4.357708333333333,61.741396161732524
1361696051.0,0.1825675,33.134166666666665,65.48333333333333,4.579036458333333,61.741396161732524
1361696051.25,0.18246074999999998,33.1325,65.47750000298667,5.606875000000001,61.741396161732524
1361696051.5,0.182354,33.130833333333335,65.47166666666666,6.095911458333333,61.741396161732524
1361696051.75,0.18224725,33.13,65.46583333034667,5.960989583333333,61.741396161732524
1361696052.0,0.1821405,33.13,65.46000000000001,6.650338541666667,61.741396161732524
1361696052.25,0.18203375,33.13,65.46000000000001,7.423697916666668,61.741396161732524
1361696052.5,0.181980375,33.13,65.46000000000001,7.3621614583333335,61.741396161732524
1361696052.75,0.181980375,33.13,65.46,7.5472656250000005,61.741396161732524
1361696053.0,0.181927,33.13,65.46,8.284140625000001,61.741396161732524
1361696053.25,0.181980375,33.13,65.46416666453334,8.339791666666667,61.741396161732524
1361696053.5,0.181980375,33.13,65.46833333333333,7.99875,61.741396161732524
1361696053.75,0.18203375,33.130833333333335,65.47250000213333,8.284583333333334,61.741396161732524
1361696054.0,0.1821405,33.1325,65.47666666666667,8.532135416666666,61.741396161732524
1361696054.25,0.18219387500000003,33.134166666666665,65.48249999701333,8.077447916666666,61.741396161732524
1361696054.5,0.18230062500000002,33.13583333333334,65.48833333333334,7.6940625,61.741396161732524
1361696054.75,0.18235400000000002,33.137499999999996,65.49416666965334,7.864635416666666,61.741396161732524
1361696055.0,0.182407375,33.13916666666667,65.5,7.693619791666666,61.741396161732524
1361696055.25,0.18246074999999998,33.14083333333333,65.50583333034666,7.111432291666667,61.741396161732524
1361696055.5,0.182514125,33.1425,65.51166666666666,6.803307291666666,61.741396161732524
1361696055.75,0.1825675,33.14333333333334,65.51750000298667,6.744895833333332,61.741396161732524
1361696056.0,0.1825675,33.14333333333334,65.52333333333333,6.295520833333334,61.741396161732524
1361696056.25,0.18246074999999998,33.14333333333334,65.52916666368,5.770208333333333,61.741396161732524
1361696056.5,0.182407375,33.14333333333334,65.535,5.655703125,61.741396161732524
1361696056.75,0.18219387500000003,33.1425,65.54083333631999,5.56390625,61.741396161732524
1361696057.0,0.18192700000000003,33.14083333333333,65.54666666666667,5.11640625,61.741396161732524
1361696057.25,0.181766875,33.13916666666666,65.55499999573334,4.7753125,61.741396161732524
1361696057.5,0.1815,33.137499999999996,65.56333333333333,4.798958333333333,61.741396161732524
1361696057.75,0.181339875,33.13583333333334,65.57166667093333,4.735625,61.741396161732524
1361696058.0,0.18112637499999998,33.134166666666665,65.58,4.325546875000001,61.741396161732524
1361696058.25,0.180912875,33.1325,65.58999999488,4.1465625,61.741396161732524
1361696058.5,0.18075275000000002,33.130833333333335,65.6,4.361822916666667,61.741396161732524
1361696058.75,0.18053925,33.13,65.61000000511999,4.234427083333333,61.741396161732524
1361696059.0,0.1804325,33.13,65.61999999999999,3.8945572916666666,61.741396161732524
1361696059.25,0.180379125,33.13,65.62916666197333,4.00890625,61.741396161732524
1361696059.5,0.18027237499999996,33.13,65.63833333333334,4.240755208333333,61.741396161732524
1361696059.75,0.18032574999999998,33.12916666666667,65.64750000469334,3.9783593749999997,61.741396161732524
1361696060.0,0.18032574999999998,33.127500000000005,65.65666666666668,3.844947916666667,61.741396161732524
1361696060.25,0.180272375,33.12583333333334,65.66333332992001,4.276354166666667,61.741396161732524
1361696060.5,0.180272375,33.12416666666667,65.67000000000002,4.472552083333333,61.741396161732524
1361696060.75,0.18011225,33.1225,65.67666667008001,4.199140625,61.741396161732524
1361696061.0,0.18011224999999997,33.12083333333333,65.68333333333334,4.40109375,61.741396161732524
1361696061.25,0.18000549999999996,33.119166666666665,65.68999999658666,4.9371093749999995,61.741396161732524
1361696061.5,0.179845375,33.1175,65.69666666666666,4.825260416666667,61.741396161732524
1361696061.75,0.17979199999999998,33.11666666666667,65.70333333674667,4.725182291666667,61.741396161732524
1361696062.0,0.179631875,33.11666666666667,65.71,5.312421875,61.741396161732524
1361696062.25,0.17952512499999998,33.11666666666667,65.71999999488,5.610234375,61.741396161732524
1361696062.5,0.17947175,33.11666666666667,65.72999999999999,5.341692708333333,61.741396161732524
1361696062.75,0.179365,33.1175,65.74000000512,5.694895833333334,61.741396161732524
1361696063.0,0.179311625,33.119166666666665,65.75,6.235026041666667,61.741396161732524
1361696063.25,0.17925824999999998,33.12083333333334,65.76416665941333,5.966171875000001,61.741396161732524
1361696063.5,0.179204875,33.1225,65.77833333333334,5.817109375,61.741396161732524
1361696063.75,0.17925824999999998,33.12416666666667,65.79250000725334,6.435911458333333,61.741396161732524
1361696064.0,0.179204875,33.12583333333334,65.80666666666667,6.594973958333334,61.741396161732524
1361696064.25,0.17925824999999998,33.127500000000005,65.8233333248,6.219166666666666,61.741396161732524
1361696064.5,0.17925824999999998,33.12916666666667,65.84,6.689374999999999,61.741396161732524
1361696064.75,0.17915150000000002,33.13,65.8566666752,7.3273697916666665,61.741396161732524
1361696065.0,0.179098125,33.13,65.87333333333333,6.96453125,61.741396161732524
1361696065.25,0.17899137499999998,33.13,65.894166656,6.770807291666666,61.741396161732524
1361696065.5,0.17888462500000002,33.13,65.91499999999999,7.370677083333333,61.741396161732524
1361696065.75,0.17877787499999998,33.13,65.935833344,7.430338541666667,61.741396161732524
1361696066.0,0.17867112500000001,33.13,65.95666666666666,7.115052083333333,61.741396161732524
1361696066.25,0.178564375,33.13,65.97833332224,7.531067708333333,61.741396161732524
1361696066.5,0.17845762499999998,33.13,66.0,7.910338541666667,61.741396161732524
1361696066.75,0.178350875,33.12916666666667,66.02166667776,7.525651041666666,61.741396161732524
1361696067.0,0.178244125,33.127500000000005,66.04333333333334,7.393828125,61.741396161732524
1361696067.25,0.17813737499999996,33.12583333333334,66.06583332181334,7.6823958333333335,61.741396161732524
1361696067.5,0.178084,33.12416666666667,66.08833333333334,7.4347916666666665,61.741396161732524
1361696067.75,0.178084,33.1225,66.11083334485333,6.931953125,61.741396161732524
1361696068.0,0.178084,33.12083333333334,66.13333333333334,7.004557291666667,61.741396161732524
1361696068.25,0.178084,33.11916666666667,66.15249999018667,6.9378125,61.741396161732524
1361696068.5,0.178084,33.1175,66.17166666666667,6.377135416666667,61.741396161732524
1361696068.75,0.178084,33.115833333333335,66.19083334314666,5.758177083333333,61.741396161732524
1361696069.0,0.178084,33.11416666666667,66.21,5.461796875,61.741396161732524
1361696069.25,0.178084,33.112500000000004,66.22666665813333,4.9341406249999995,61.741396161732524
1361696069.5,0.17803058333333333,33.11083333333333,66.24333333333333,4.222343749999999,61.741396161732524
1361696069.75,0.17792375000000002,33.11,66.26000000853332,3.783828125,61.741396161732524
1361696070.0,0.17781691666666666,33.11,66.27666666666666,3.5665625,61.741396161732524
1361696070.25,0.1777100833333333,33.11,66.28916666026666,3.1595833333333334,61.741396161732524
1361696070.5,0.17760325,33.11,66.30166666666666,2.4618489583333334,61.741396161732524
1361696070.75,0.17749641666666663,33.11,66.31416667306667,1.9009374999999997,61.741396161732524
1361696071.0,0.17738958333333332,33.11,66.32666666666667,1.6810416666666665,61.741396161732524
1361696071.25,0.17728275000000002,33.11,66.33666666154667,1.512942708333333,61.741396161732524
1361696071.5,0.17717591666666666,33.11,66.34666666666666,1.102734375,61.741396161732524
1361696071.75,0.17706908333333335,33.11,66.35666667178667,1.2458333333333333,61.741396161732524
1361696072.0,0.17696225,33.11,66.36666666666667,1.5626822916666665,61.741396161732524
1361696072.25,0.17685541666666663,33.11,66.37499999573335,1.3753645833333332,61.741396161732524
1361696072.5,0.176802,33.11,66.38333333333335,1.3609375000000001,61.741396161732524
1361696072.75,0.176802,33.11,66.39166667093335,1.9068749999999997,61.741396161732524
1361696073.0,0.176802,33.11,66.40000000000002,1.9861458333333333,61.741396161732524
1361696073.25,0.176802,33.11,66.40833332906668,1.9071354166666665,61.741396161732524
1361696073.5,0.176748625,33.11,66.41666666666669,2.6326041666666664,61.741396161732524
1361696073.75,0.176748625,33.11,66.42500000426668,3.4395052083333333,61.741396161732524
1361696074.0,0.17669525,33.11,66.43333333333334,3.6036197916666666,61.741396161732524
1361696074.25,0.17664187499999998,33.11,66.44333332821334,4.161067708333333,61.741396161732524
1361696074.5,0.176535125,33.11,66.45333333333333,5.210286458333333,61.741396161732524
1361696074.75,0.176428375,33.11,66.46333333845332,5.587395833333333,61.741396161732524
1361696075.0,0.176428375,33.11,66.47333333333333,5.751067708333334,61.741396161732524
1361696075.25,0.176321625,33.11,66.48583332693333,6.68359375,61.73814691592915
1361696075.5,0.1761615,33.11,66.49833333333333,7.276822916666667,61.73342074021516
1361696075.75,0.176001375,33.11,66.51083333973332,7.112239583333334,61.728694564501154
1361696076.0,0.175787875,33.11,66.52333333333333,7.5456770833333335,61.72396838878715
1361696076.25,0.17562775,33.11,66.53833332565333,8.063802083333334,61.71924221307316
1361696076.5,0.175521,33.11,66.55333333333333,7.691484375000001,61.714516037359154
1361696076.75,0.17530749999999998,33.11,66.56833334101333,7.3523177083333335,61.70978986164516
1361696077.0,0.17520075,33.11,66.58333333333333,7.621770833333333,61.70506368593116
1361696077.25,0.17504062499999998,33.11,66.60249999018667,7.261614583333333,61.70033751021716
1361696077.5,0.17493387500000002,33.11,66.62166666666667,6.465442708333332,61.69561133450316
1361696077.75,0.174827125,33.11,66.64083334314667,6.325,61.69088515878917
1361696078.0,0.174613625,33.11,66.66000000000001,6.174401041666666,61.68615898307517
1361696078.25,0.17450687499999998,33.11,66.68083332266667,5.410286458333334,61.68468205316454
1361696078.5,0.1744535,33.11,66.70166666666668,5.102161458333334,61.68468205316454
1361696078.75,0.17440012500000002,33.11,66.72250001066668,5.232734375,61.68468205316454
1361696079.0,0.174400125,33.11,66.74333333333334,4.7540885416666665,61.68468205316454
1361696079.25,0.17434675,33.11,66.76583332181333,4.284557291666666,61.68468205316454
1361696079.5,0.17434675,33.11,66.78833333333333,4.542838541666667,61.68468205316454
1361696079.75,0.17440012500000002,33.11,66.81083334485334,4.717760416666667,61.68468205316454
1361696080.0,0.17440012500000002,33.11,66.83333333333333,4.270078125,61.68468205316454
1361696080.25,0.1744535,33.11,66.85583332181334,4.148463541666667,61.68468205316454
1361696080.5,0.17456025,33.11,66.87833333333333,4.520494791666667,61.68468205316454
1361696080.75,0.174667,33.11,66.90083334485333,4.41578125,61.68468205316454
1361696081.0,0.174720375,33.11,66.92333333333333,4.1460937499999995,61.68468205316454
1361696081.25,0.174827125,33.11,66.94583332181334,4.431614583333333,61.68468205316454
1361696081.5,0.17493387500000002,33.11,66.96833333333333,4.4460677083333335,61.68468205316454
1361696081.75,0.17504062499999998,33.11,66.99083334485333,4.061536458333333,61.68468205316454
1361696082.0,0.175147375,33.11,67.01333333333334,4.174348958333334,61.68468205316454
1361696082.25,0.175254125,33.11,67.03499998890668,4.573151041666667,61.68468205316454
1361696082.5,0.17530750000000003,33.11,67.05666666666667,4.360364583333333,61.68468205316454
1361696082.75,0.175360875,33.11,67.07833334442667,4.08609375,61.68468205316454
1361696083.0,0.17541425,33.11,67.10000000000001,4.46015625,61.68468205316454
1361696083.25,0.17546762500000002,33.11,67.11916665685334,4.7266666666666675,61.68468205316454
1361696083.5,0.17546762500000002,33.11,67.13833333333334,4.415364583333333,61.68468205316454
1361696083.75,0.17546762500000002,33.11,67.15750000981333,4.46734375,61.68468205316454
1361696084.0,0.175521,33.11,67.17666666666666,4.889765625,61.68468205316454
1361696084.25,0.17546762500000002,33.11,67.1933333248,4.751953125,61.68468205316454
1361696084.5,0.17546762500000002,33.11,67.21000000000001,4.671588541666667,61.68468205316454
1361696084.75,0.17541425000000002,33.11,67.22666667520001,5.07171875,61.68468205316454
1361696085.0,0.175360875,33.11,67.24333333333334,5.184765625,61.68468205316454
1361696085.25,0.175360875,33.11,67.25749999274667,4.876276041666666,61.68468205316454
1361696085.5,0.17530750000000003,33.11,67.27166666666668,4.953437500000001,61.68468205316454
1361696085.75,0.17530749999999998,33.11083333333333,67.28583334058666,5.278203125,61.68468205316454
1361696086.0,0.175254125,33.112500000000004,67.3,5.153151041666667,61.68468205316454
1361696086.25,0.17520075,33.11416666666667,67.30833332906667,4.902083333333333,61.68468205316454
1361696086.5,0.17520075000000002,33.115833333333335,67.31666666666666,5.138541666666667,61.68468205316454
1361696086.75,0.175147375,33.1175,67.32500000426666,5.3084114583333335,61.68468205316454
1361696087.0,0.175147375,33.119166666666665,67.33333333333333,5.042057291666667,61.68468205316454
1361696087.25,0.17520075000000002,33.12083333333333,67.33749999786666,4.973177083333334,61.68468205316454
1361696087.5,0.175094,33.1225,67.34166666666667,5.16890625,61.68468205316454
1361696087.75,0.175147375,33.123333333333335,67.34583333546666,5.061640625,61.68468205316454
1361696088.0,0.175094,33.123333333333335,67.35,4.708776041666666,61.68468205316454
1361696088.25,0.17498725,33.123333333333335,67.35,4.748645833333334,61.68468205316454
1361696088.5,0.17498725,33.123333333333335,67.35,4.741979166666667,61.68468205316454
1361696088.75,0.174827125,33.12166666666667,67.35,4.231875,61.68468205316454
1361696089.0,0.174827125,33.11833333333334,67.35,3.5955208333333335,61.68468205316454
1361696089.25,0.174720375,33.115,67.35,3.37875,61.68468205316454
1361696089.5,0.17456025,33.11166666666667,67.35,3.100520833333334,61.68468205316454
1361696089.75,0.17450687499999998,33.108333333333334,67.35,2.4632552083333334,61.68468205316454
1361696090.0,0.17434675,33.105000000000004,67.35,2.036848958333333,61.68468205316454
1361696090.25,0.17424000000000003,33.10166666666667,67.35,2.0336979166666667,61.68468205316454
1361696090.5,0.17423999999999998,33.098333333333336,67.35,1.74125,61.68468205316454
1361696090.75,0.1740265,33.09583333333334,67.35,1.1959114583333332,61.68468205316454
1361696091.0,0.1740265,33.09416666666667,67.35,1.2536458333333333,61.68468205316454
1361696091.25,0.17391975,33.0925,67.34833333418666,1.3075520833333332,61.68468205316454
1361696091.5,0.173759625,33.090833333333336,67.34666666666666,1.1078124999999999,61.68468205316454
1361696091.75,0.173813,33.09,67.34499999914665,1.5428385416666668,61.68468205316454
1361696092.0,0.17370624999999998,33.09,67.34333333333332,2.5942708333333333,61.68468205316454
1361696092.25,0.173759625,33.09,67.34083333461332,3.194557291666666,61.68468205316454
1361696092.5,0.173759625,33.09,67.33833333333332,3.406041666666667,61.68468205316454
1361696092.75,0.17370625000000003,33.090833333333336,67.33583333205333,4.275260416666667,61.68468205316454
1361696093.0,0.173759625,33.0925,67.33333333333333,5.137786458333333,61.68468205316454
1361696093.25,0.17370624999999998,33.09416666666667,67.3291666688,5.161692708333333,61.68468205316454
1361696093.5,0.17370625000000003,33.09583333333333,67.32499999999999,5.103385416666666,61.68468205316454
1361696093.75,0.173813,33.097500000000004,67.32083333119999,5.783437500000001,61.685061984770044
1361696094.0,0.173759625,33.09916666666667,67.31666666666666,5.928411458333334,61.68573741873541
1361696094.25,0.17381300000000002,33.100833333333334,67.31416666794667,5.710234375,61.68641285270075
1361696094.5,0.173813,33.1025,67.31166666666667,5.900000000000001,61.68966194379652
1361696094.75,0.17370625000000003,33.104166666666664,67.30916666538666,5.761718749999999,61.70188919427029
1361696095.0,0.17370625000000003,33.10583333333333,67.30666666666666,5.055208333333334,61.72849258591197
1361696095.25,0.173652875,33.1075,67.30666666666666,4.706744791666667,61.76697635819138
1361696095.5,0.17370625000000003,33.10916666666666,67.30666666666666,4.625208333333333,61.80487356798182
1361696095.75,0.173759625,33.10916666666667,67.30666666666666,3.871536458333333,61.83769720401568
1361696096.0,0.17391979166666668,33.1075,67.30666666666666,3.2251562499999995,61.876264910737234
1361696096.25,0.1742935,33.10583333333333,67.3108333312,3.2885416666666667,61.916635087096715
1361696096.5,0.17477395833333334,33.104166666666664,67.315,3.4304687500000006,61.958470695095194
1361696096.75,0.17541454166666667,33.1025,67.3191666688,3.0547135416666666,61.999340198832556
1361696097.0,0.17621525000000002,33.100833333333334,67.32333333333334,3.1290364583333337,62.03874071721449
1361696097.25,0.17733625,33.09916666666667,67.33333332821334,3.6749739583333336,62.07613085067183
1361696097.5,0.179258,33.097500000000004,67.34333333333333,3.5676302083333336,62.1122043864188
1361696097.75,0.18171358333333332,33.09583333333334,67.35333333845333,2.4486979166666667,62.136995153851025
1361696098.0,0.18416916666666663,33.09416666666667,67.36333333333333,0.10070312500000007,62.14740978011531
1361696098.25,0.18662475,33.0925,67.37833332565333,-5.170963541666667,62.14518910562068
1361696098.5,0.1890269583333333,33.090833333333336,67.39333333333333,-10.654453125,62.14133138260981
1361696098.75,0.19142916666666668,33.09,67.40833334101333,-12.958333333333334,62.140448830835275
1361696099.0,0.19367120833333332,33.09,67.42333333333333,-14.565859375,62.13709641235403
1361696099.25,0.1956997083333333,33.09,67.444166656,-15.765859375,62.127996471950006
1361696099.5,0.1974613333333333,33.09,67.465,-16.215885416666666,62.10869636714583
1361696099.75,0.19890266666666664,33.09,67.485833344,-16.370755208333332,62.08817569183794
1361696100.0,0.2001838333333333,33.09,67.50666666666666,-16.750703124999998,62.07088837376594
1361696100.25,0.20109133333333332,33.09,67.52999998805333,-17.398203125,62.05708277936159
1361696100.5,0.20119808333333333,33.09,67.55333333333333,-17.5884375,62.041431590039956
1361696100.75,0.20066425,33.090833333333336,67.57666667861332,-16.276875,62.028673545152316
1361696101.0,0.19991691666666664,33.0925,67.6,-13.382031249999999,62.01591550026469
1361696101.25,0.19911620833333332,33.09416666666667,67.6249999872,-7.658437500000001,62.00391237549826
1361696101.5,0.1983155,33.09583333333333,67.65,-1.5402604166666667,61.99413286173703
1361696101.75,0.19751479166666663,33.097500000000004,67.6750000128,1.5496354166666666,61.98645175049605
1361696102.0,0.19666070833333335,33.09916666666667,67.7,3.6279166666666662,61.975496435274074
1361696102.25,0.19586,33.100833333333334,67.72666665301334,5.00140625,61.98191340874254
1361696102.5,0.19511266666666668,33.1025,67.75333333333333,5.6171614583333325,61.999538572004354
1361696102.75,0.19452550000000002,33.10333333333333,67.78000001365332,5.646406249999999,62.01917998832885
1361696103.0,0.19399175000000002,33.10333333333333,67.80666666666666,5.583489583333333,62.03676153041304
1361696103.25,0.193511375,33.10333333333333,67.83749998421332,5.5523437499999995,62.052871733754166
1361696103.5,0.19308437499999997,33.10333333333333,67.86833333333333,5.535807291666667,62.069570472592524
1361696103.75,0.19276412499999998,33.1025,67.89916668245333,5.030807291666667,62.08568067593365
1361696104.0,0.192604,33.100833333333334,67.92999999999999,4.544427083333333,62.10179087927478
1361696104.25,0.19249724999999998,33.09916666666667,67.9674999808,3.970416666666667,62.11790108261591
1361696104.5,0.1923905,33.097500000000004,68.005,3.1423177083333336,62.13401128595704
1361696104.75,0.19228375,33.095000000000006,68.04250001919999,2.553776041666667,62.150121489298165
1361696105.0,0.19223037499999998,33.09166666666667,68.08,2.1448958333333334,62.16623169263929
1361696105.25,0.192177,33.08833333333333,68.12166664533333,1.61203125,62.16891465957486
1361696105.5,0.192177,33.085,68.16333333333333,1.2601562499999999,62.16912416947821
1361696105.75,0.192177,33.0825,68.20500002133333,1.28828125,62.16912416947821
1361696106.0,0.192177,33.08083333333334,68.24666666666667,1.29578125,62.16912416947821
1361696106.25,0.192177,33.07916666666667,68.29083331072,1.3101822916666668,62.16912416947821
1361696106.5,0.192177,33.0775,68.33500000000001,1.4173177083333333,62.16912416947821
1361696106.75,0.19223037499999998,33.075833333333335,68.37916668928,1.3838802083333333,62.16912416947821
1361696107.0,0.19223037499999998,33.07416666666666,68.42333333333333,1.255546875,62.16912416947821
1361696107.25,0.19228374999999998,33.0725,68.46749997738667,1.3042968750000001,62.16912416947821
1361696107.5,0.19233712499999997,33.07083333333333,68.51166666666667,1.1975260416666667,62.16912416947821
1361696107.75,0.1923905,33.07,68.55583335594667,1.10921875,62.16912416947821
1361696108.0,0.19249724999999995,33.07,68.60000000000001,1.6092708333333332,62.16912416947821
1361696108.25,0.19260399999999997,33.07,68.64583330986667,2.2813020833333333,62.16912416947821
1361696108.5,0.19271075000000001,33.07,68.69166666666666,2.76046875,62.16912416947821
1361696108.75,0.1928175,33.07,68.73750002346665,3.289765625,62.16912416947821
1361696109.0,0.19292425,33.07,68.78333333333332,3.8635937499999997,62.16912416947821
1361696109.25,0.19308437499999997,33.07,68.82749997738665,4.372083333333333,62.16912416947821
1361696109.5,0.19329787499999998,33.07,68.87166666666666,4.758697916666667,62.168705149671524
1361696109.75,0.193458,33.07,68.91583335594666,5.2133593750000005,62.16577201102472
1361696110.0,0.193724875,33.07,68.96,5.552682291666667,62.16241985257122
1361696110.25,0.194045125,33.07,69.00166664533333,5.810546875,62.151426175239095
1361696110.5,0.19436537499999998,33.07,69.04333333333332,6.256223958333334,62.13824920679878
1361696110.75,0.19468562499999997,33.07,69.08500002133333,6.517421875,62.119614010588016
1361696111.0,0.19500587500000002,33.07,69.12666666666667,6.267395833333334,62.098795523269075
1361696111.25,0.19532612500000002,33.07,69.16499998037334,6.0391666666666675,62.077977035950134
1361696111.5,0.195646375,33.07,69.20333333333335,5.859973958333334,62.057158548631186
1361696111.75,0.19596662500000003,33.07,69.24166668629334,5.76171875,62.036340061312245
1361696112.0,0.19623350000000003,33.07,69.28000000000002,5.727604166666667,62.015521573993304
1361696112.25,0.19639362500000002,33.07,69.32083331242669,5.600234375,61.994703086674356
1361696112.5,0.19650037499999998,33.07,69.36166666666668,5.6109374999999995,61.9743036191621
1361696112.75,0.19660712500000002,33.07,69.40250002090667,5.782630208333333,61.95641827048996
1361696113.0,0.19660712500000002,33.07,69.44333333333334,5.8015364583333335,61.93895194162452
1361696113.25,0.196447,33.07,69.48416664576001,5.779557291666666,61.92912713163769
1361696113.5,0.19634025,33.07,69.525,6.016640625,61.92148561275906
1361696113.75,0.196180125,33.06916666666667,69.56583335424,6.101145833333334,61.91930232165088
1361696114.0,0.19596662499999998,33.0675,69.60666666666667,6.139921875,61.91930232165088
1361696114.25,0.1958065,33.06583333333334,69.64749997909334,6.1964322916666665,61.91930232165088
1361696114.5,0.195646375,33.064166666666665,69.68833333333333,6.167708333333334,61.91930232165088
1361696114.75,0.195539625,33.0625,69.72916668757333,5.8297395833333345,61.91930232165088
1361696115.0,0.19548624999999997,33.06083333333333,69.77,5.575442708333334,61.91930232165088
1361696115.25,0.19548625,33.05916666666666,69.80583331498666,5.327682291666667,61.91930232165088
1361696115.5,0.195539625,33.0575,69.84166666666667,4.738802083333334,61.91930232165088
1361696115.75,0.19564637499999996,33.05583333333333,69.87750001834667,3.7716666666666665,61.91930232165088
1361696116.0,0.1958065,33.05416666666667,69.91333333333333,2.9806510416666665,61.91930232165088
1361696116.25,0.19602,33.0525,69.94916664832,2.1597135416666666,61.92253926688563
1361696116.5,0.196180125,33.05083333333334,69.985,1.0981770833333333,61.94155404625241
1361696116.75,0.19639362500000002,33.05083333333334,70.02083335168,0.4566666666666668,61.96706191481619
1361696117.0,0.1966605,33.0525,70.05666666666667,-0.16153645833333324,61.99256978337996
1361696117.25,0.196927375,33.05416666666667,70.09249998165333,-0.9428645833333332,62.01807765194374
1361696117.5,0.197140875,33.05583333333333,70.12833333333333,-1.6480468749999997,62.04358552050751
1361696117.75,0.19730099999999998,33.0575,70.16416668501333,-2.360208333333333,62.07055745901235
1361696118.0,0.19740775,33.05916666666666,70.19999999999999,-3.1632031249999994,62.09899346745825
1361696118.25,0.1975145,33.06083333333333,70.23916664661333,-3.6070833333333336,62.13052431637818
1361696118.5,0.19756787500000003,33.06249999999999,70.27833333333334,-3.5058854166666666,62.16205516529811
1361696118.75,0.19756787500000003,33.064166666666665,70.31750002005333,-2.7614843749999998,62.192707776244475
1361696119.0,0.19756787499999998,33.06583333333334,70.35666666666667,-1.7998697916666666,62.214655326176114
1361696119.25,0.19756787499999998,33.0675,70.39583331328001,-0.8889062499999999,62.22955531510579
1361696119.5,0.19762125,33.06916666666667,70.435,0.5332291666666666,62.226832109451976
1361696119.75,0.19772800000000001,33.07,70.47416668672,1.5538541666666665,62.213925093698265
1361696120.0,0.197781375,33.07,70.51333333333334,2.3166145833333336,62.199172717493106
1361696120.25,0.1978347916666667,33.07,70.55249997994667,3.662109375,62.1806386207727
1361696120.5,0.197995,33.07,70.59166666666667,5.289791666666667,62.16588624456754
1361696120.75,0.19836870833333334,33.07,70.63083335338666,7.161484375,62.14966979842132
1361696121.0,0.19906266666666664,33.07,70.67,9.248671875,62.13337330267263
1361696121.25,0.19986341666666665,33.07,70.7074999808,10.83375,62.1176726873528
1361696121.5,0.20071758333333334,33.07,70.745,11.813281250000001,62.10427877259729
1361696121.75,0.20157175000000002,33.07,70.7825000192,12.379791666666664,62.091763095815345
1361696122.0,0.20242591666666668,33.07,70.82,12.679479166666667,62.08795248004813
1361696122.25,0.20333345833333336,33.07,70.85833331370665,12.885833333333332,62.08795248004813
1361696122.5,0.204241,33.07,70.89666666666665,12.406614583333335,62.089797840499585
1361696122.75,0.20514854166666666,33.07,70.93500001962666,12.241354166666667,62.09533392185394
1361696123.0,0.2061094583333333,33.07,70.97333333333331,12.259557291666667,62.10271536365974
1361696123.25,0.20701695833333333,33.07,71.01166664703999,11.567526041666666,62.113878525980795
1361696123.5,0.20787104166666667,33.07,71.04999999999998,10.692942708333334,62.12125996778661
1361696123.75,0.208511625,33.07,71.08833335295999,9.694661458333334,62.128641409592404
1361696124.0,0.20888533333333334,33.07,71.12666666666667,8.320052083333334,62.13463883105962
1361696124.25,0.20915225,33.07,71.16416664746667,7.339635416666667,62.13694553162394
1361696124.5,0.20936575,33.07,71.20166666666667,6.633177083333334,62.13417749094676
1361696124.75,0.20952587499999997,33.07,71.23916668586666,5.674661458333333,62.12406662489187
1361696125.0,0.20968599999999996,33.07,71.27666666666667,4.677890625,62.111142072554095
1361696125.25,0.20973937499999998,33.07,71.30999998293333,3.8885937499999996,62.097713422367484
1361696125.5,0.20973937499999998,33.07,71.34333333333333,3.1169270833333336,62.08428477218089
1361696125.75,0.209632625,33.06916666666667,71.37666668373333,1.8713802083333333,62.07085612199427
1361696126.0,0.209419125,33.0675,71.41,0.8659374999999999,62.05742747180767
1361696126.25,0.20920562499999998,33.06583333333333,71.44249998336,0.19304687499999998,62.043998821621074
1361696126.5,0.208992125,33.064166666666665,71.475,-1.135390625,62.030570171434455
1361696126.75,0.208832,33.06333333333333,71.50750001664001,-2.65578125,62.01714152124786
1361696127.0,0.20867187500000003,33.06333333333333,71.54,-3.9774479166666663,62.00333447748199
1361696127.25,0.20851175,33.06333333333333,71.57583331498667,-5.461640625,61.98162027576512
1361696127.5,0.20877866666666667,33.06333333333333,71.61166666666668,-6.925885416666667,61.96279976787579
1361696127.75,0.20952600000000002,33.0625,71.64750001834668,-8.29859375,61.94723930207524
1361696128.0,0.21038008333333333,33.06083333333333,71.68333333333334,-9.952161458333332,61.93192324527113
1361696128.25,0.21128754166666666,33.05916666666666,71.72499997866667,-11.691927083333333,61.91711128631587
1361696128.5,0.21230179166666666,33.0575,71.76666666666668,-13.151119791666668,61.9022993273606
1361696128.75,0.21336941666666667,33.056666666666665,71.80833335466667,-13.699531250000001,61.88748736840535
1361696129.0,0.21449041666666668,33.056666666666665,71.85000000000001,-13.681510416666667,61.87267540945009
1361696129.25,0.215504625,33.056666666666665,71.89666664277334,-13.633671875,61.85786345049482
1361696129.5,0.21646545833333333,33.056666666666665,71.94333333333333,-12.315,61.84305149153955
1361696129.75,0.2173729166666667,33.05583333333333,71.99000002389333,-9.567604166666667,61.8282395325843
1361696130.0,0.21822699999999998,33.05416666666667,72.03666666666666,-7.622526041666667,61.81380596720828
1361696130.25,0.21897433333333335,33.0525,72.08083331072,-6.084062500000001,61.8091310546527
1361696130.5,0.21924125000000003,33.05083333333333,72.125,-3.840234375,61.81358796329379
1361696130.75,0.21902775,33.05,72.16916668927999,-1.2007031250000004,61.816573170615584
1361696131.0,0.218654125,33.05,72.21333333333332,2.2124479166666666,61.816573170615584
1361696131.25,0.21828050000000002,33.05,72.25416664576,5.690729166666666,61.81273516682282
1361696131.5,0.21780008333333334,33.05,72.29499999999999,8.7515625,61.8039625867251
1361696131.75,0.21731966666666666,33.05,72.33583335424,11.14234375,61.79519000662736
1361696132.0,0.21683925,33.05,72.37666666666667,12.581276041666667,61.78641742652963
1361696132.25,0.216465625,33.05,72.41166664874666,13.737031250000001,61.77764484643189
1361696132.5,0.216145375,33.05,72.44666666666666,14.445052083333332,61.76887226633417
1361696132.75,0.21582512499999998,33.05,72.48166668458667,13.890182291666667,61.76009968623643
1361696133.0,0.21555825000000003,33.05,72.51666666666667,14.0621875,61.75132710613871
1361696133.25,0.215398125,33.05,72.54999998293333,14.736744791666666,61.74070303117156
1361696133.5,0.21534475,33.05,72.58333333333333,14.47296875,61.72082148185738
1361696133.75,0.215398125,33.05,72.61666668373333,13.884348958333334,61.706494417151426
1361696134.0,0.215504875,33.05,72.64999999999999,12.858567708333332,61.6977218370537
1361696134.25,0.215718375,33.05,72.68333331626667,11.787864583333333,61.69278726074872
1361696134.5,0.21614541666666667,33.05,72.71666666666667,11.029192708333333,61.69278726074872
1361696134.75,0.21678600000000003,33.04916666666666,72.75000001706667,10.081015625,61.69278726074872
1361696135.0,0.21758670833333335,33.0475,72.78333333333335,9.231432291666666,61.69278726074872
1361696135.25,0.2183874166666667,33.04583333333333,72.82916664320001,8.590494791666666,61.69278726074872
1361696135.5,0.21924149999999998,33.04416666666666,72.875,7.594322916666666,61.69278726074872
1361696135.75,0.22009558333333334,33.0425,72.92083335679999,6.662083333333334,61.69278726074872
1361696136.0,0.22094966666666663,33.04083333333333,72.96666666666665,5.9164843750000005,61.69278726074872
1361696136.25,0.22180375,33.03916666666667,73.02416663722666,4.98921875,61.69278726074872
1361696136.5,0.2226044583333333,33.0375,73.08166666666666,4.1165625,61.69278726074872
1361696136.75,0.22329841666666664,33.03666666666666,73.13916669610667,3.5109375000000003,61.69278726074872
1361696137.0,0.223885625,33.03666666666667,73.19666666666667,2.883776041666667,61.69278726074872
1361696137.25,0.22431270833333336,33.03666666666667,73.26749996373334,2.139348958333333,61.69278726074872
1361696137.5,0.22452625,33.03666666666667,73.33833333333334,1.5108072916666666,61.69278726074872
1361696137.75,0.22452625,33.0375,73.40916670293333,1.2338281249999998,61.69278726074872
1361696138.0,0.224366125,33.03916666666667,73.48,0.9429166666666666,61.69278726074872
1361696138.25,0.224206,33.04083333333333,73.53999996928,0.7109375,61.69278726074872
1361696138.5,0.22393912500000002,33.0425,73.60000000000001,0.783828125,61.69278726074872
1361696138.75,0.22367225,33.04416666666666,73.66000003072001,0.7311979166666668,61.69278726074872
1361696139.0,0.22340537500000002,33.04583333333333,73.72000000000001,0.5397916666666667,61.69278726074872
1361696139.25,0.223085125,33.0475,73.76833330858668,0.5593489583333333,61.69278726074872
1361696139.5,0.22281825000000002,33.049166666666665,73.81666666666666,0.7357552083333333,61.69278726074872
1361696139.75,0.222551375,33.05,73.86500002474666,0.8211718750000001,61.69278726074872
1361696140.0,0.22233783333333335,33.05,73.91333333333333,1.0066666666666666,61.69278726074872
1361696140.25,0.2221776666666667,33.05,73.94333331797333,1.3308333333333333,61.69278726074872
1361696140.5,0.22201749999999998,33.05,73.97333333333333,1.5844791666666664,61.69278726074872
1361696140.75,0.22191075000000002,33.05,74.00333334869333,1.7286197916666668,61.69278726074872
1361696141.0,0.2217505833333333,33.05,74.03333333333333,2.1242708333333336,61.69278726074872
1361696141.25,0.22159041666666665,33.05,74.05833332053334,2.47203125,61.69278726074872
1361696141.5,0.22159041666666668,33.05,74.08333333333334,2.549088541666667,61.69278726074872
1361696141.75,0.22159041666666668,33.05,74.10833334613334,2.880104166666667,61.69278726074872
1361696142.0,0.22164379166666667,33.05,74.13333333333334,3.251354166666667,61.69278726074872
1361696142.25,0.22175054166666666,33.05,74.154166656,3.472734375,61.69278726074872
1361696142.5,0.22180391666666666,33.05,74.175,3.6934895833333337,61.69278726074872
1361696142.75,0.22191066666666667,33.05,74.195833344,3.995572916666667,61.69278726074872
1361696143.0,0.22207083333333333,33.05,74.21666666666665,4.451406250000001,61.69278726074872
1361696143.25,0.22223099999999998,33.05,74.23749998933333,4.8377083333333335,61.69278726074872
1361696143.5,0.2223911666666667,33.05,74.25833333333333,5.186927083333334,61.69278726074872
1361696143.75,0.22249791666666666,33.05,74.27916667733332,5.811119791666667,61.69278726074872
1361696144.0,0.22265808333333337,33.05,74.3,6.08734375,61.69278726074872
1361696144.25,0.22281825000000002,33.05,74.32333332138667,6.170703125,61.69278726074872
1361696144.5,0.222925,33.05,74.34666666666666,6.371171875000001,61.69278726074872
1361696144.75,0.22297837500000003,33.05,74.37000001194666,6.3510937499999995,61.69278726074872
1361696145.0,0.22297837500000003,33.05,74.39333333333333,6.259192708333333,61.69662526454149
1361696145.25,0.22297837500000003,33.05,74.42083331925333,6.425885416666667,61.70539784463921
1361696145.5,0.22297837500000003,33.05,74.44833333333332,6.6672135416666665,61.71984655668382
1361696145.75,0.22303175,33.05,74.47583334741333,6.649244791666667,61.7559370656977
1361696146.0,0.22313850000000002,33.05,74.50333333333333,6.325598958333333,61.792950254937296
1361696146.25,0.22324524999999998,33.05,74.53999998122666,6.267317708333334,61.83666040155466
1361696146.5,0.22340537500000002,33.05,74.57666666666665,6.026875,61.873673590794255
1361696146.75,0.223725625,33.04916666666666,74.61333335210666,5.497838541666666,61.913198139050515
1361696147.0,0.224152625,33.0475,74.64999999999999,5.464348958333333,61.962768123373415
1361696147.25,0.22457962499999998,33.04583333333333,74.69583330986666,5.6046354166666665,62.01317522736853
1361696147.5,0.22495325,33.04416666666666,74.74166666666666,5.663385416666666,62.06358233136364
1361696147.75,0.22538024999999998,33.0425,74.78750002346666,5.956536458333333,62.113989435358754
1361696148.0,0.22586066666666668,33.04083333333333,74.83333333333333,6.08546875,62.16055853556111
1361696148.25,0.22634108333333333,33.03916666666667,74.89083330389333,5.68078125,62.202193059458494
1361696148.5,0.22682149999999998,33.0375,74.94833333333332,5.308671875,62.238151451409
1361696148.75,0.22724854166666666,33.03583333333333,75.00583336277333,5.222708333333333,62.25246804639023
1361696149.0,0.22762220833333333,33.03416666666667,75.06333333333333,5.224322916666666,62.26586196114575
1361696149.25,0.22794245833333335,33.0325,75.12666663424,4.946119791666667,62.27255891852351
1361696149.5,0.2282093333333333,33.030833333333334,75.19,4.983098958333334,62.28595283327902
1361696149.75,0.22826270833333331,33.03,75.25333336576,4.96390625,62.29683538901787
1361696150.0,0.22820933333333335,33.03,75.31666666666666,4.4519270833333335,62.297672508690084
1361696150.25,0.22804920833333334,33.03,75.38083330047999,4.086458333333334,62.297672508690084
1361696150.5,0.22788908333333335,33.03,75.445,3.929453125,62.297672508690084
1361696150.75,0.22772895833333337,33.03,75.50916669952,3.454817708333333,62.297672508690084
1361696151.0,0.22746204166666664,33.03,75.57333333333332,3.31,62.297672508690084
1361696151.25,0.2272485,33.03,75.63249996970666,3.671640625,62.297672508690084
1361696151.5,0.22703495833333334,33.03,75.69166666666666,3.766536458333334,62.297672508690084
1361696151.75,0.22676804166666664,33.03,75.75083336362667,3.6473697916666663,62.297672508690084
1361696152.0,0.2265545,33.03,75.81,3.741067708333334,62.297672508690084
1361696152.25,0.22634100000000001,33.03,75.86416663893334,3.7925520833333333,62.297672508690084
1361696152.5,0.2261275,33.03,75.91833333333334,3.587057291666667,62.297672508690084
1361696152.75,0.225967375,33.030833333333334,75.97250002773333,3.637838541666667,62.28729017665089
1361696153.0,0.22580725,33.0325,76.02666666666667,3.8810416666666665,62.28729017665089
1361696153.25,0.22580725,33.03416666666667,76.06833331200001,3.8426562500000006,62.28729017665089
1361696153.5,0.225753875,33.035833333333336,76.11,3.706145833333333,62.28729017665089
1361696153.75,0.22575387499999996,33.0375,76.15166668799999,3.8003645833333337,62.28950449071973
1361696154.0,0.22580725,33.03916666666667,76.19333333333333,3.6721093750000002,62.28624025915855
1361696154.25,0.22580725,33.04083333333333,76.22416665088,3.37703125,62.274228394602915
1361696154.5,0.22580725,33.0425,76.255,3.29484375,62.2608344798474
1361696154.75,0.225860625,33.04416666666666,76.28583334912001,3.1844531250000006,62.24928329869172
1361696155.0,0.22580725,33.04583333333333,76.31666666666668,2.842395833333334,62.23727143413609
1361696155.25,0.22580725,33.0475,76.33916665514667,2.82625,62.22387751938058
1361696155.5,0.22580725,33.049166666666665,76.36166666666668,2.9104687499999997,62.21048360462507
1361696155.75,0.22580725,33.05,76.38416667818667,2.806432291666667,62.20747202190875
1361696156.0,0.22580725,33.05,76.40666666666667,2.9982552083333336,62.19315542692751
1361696156.25,0.225753875,33.05,76.42999998805334,3.283359375,62.17376409070477
1361696156.5,0.22575387499999996,33.05,76.45333333333333,3.2063281250000006,62.15714079515922
1361696156.75,0.2257005,33.05,76.47666667861333,2.9029427083333332,62.14107122622202
1361696157.0,0.22564712499999998,33.05,76.5,2.7535416666666666,62.12632814189906
1361696157.25,0.22559375,33.05,76.52083332266666,2.500807291666667,62.12678882529902
1361696157.5,0.225540375,33.05,76.54166666666666,2.5374739583333334,62.131856342698576
1361696157.75,0.22564716666666665,33.04916666666666,76.56250001066667,3.36703125,62.1304742924987
1361696158.0,0.22586070833333335,33.0475,76.58333333333333,4.09,62.12909224229882
1361696158.25,0.22612762499999997,33.04583333333333,76.59833332565333,3.6698958333333334,62.12519035005024
1361696158.5,0.2263945416666667,33.04416666666666,76.61333333333333,2.4046614583333334,62.12267247814025
1361696158.75,0.22666145833333332,33.04333333333333,76.62833334101333,1.0165364583333336,62.12376122550231
1361696159.0,0.22692837500000004,33.04333333333333,76.64333333333333,-0.6427083333333331,62.1257726530901
1361696159.25,0.2270885,33.04333333333333,76.6516666624,-1.4113020833333332,62.13177007455732
1361696159.5,0.227248625,33.04333333333333,76.66,-1.2007291666666664,62.134999455347355
1361696159.75,0.227355375,33.04125,76.6683333376,-0.25919270833333313,62.13546079546021
1361696160.0,0.22746212500000004,33.037083333333335,76.67666666666668,0.5867968750000002,62.14007419658884
1361696160.25,0.227568875,33.032916666666665,76.6808333312,1.2610416666666668,62.138231462989005
1361696160.5,0.22767562500000002,33.028749999999995,76.685,1.5602083333333336,62.13316394558945
1361696160.75,0.22762220833333335,33.026666666666664,76.68916666880001,1.1118489583333335,62.132703262189494
1361696161.0,0.22756879166666666,33.026666666666664,76.69333333333334,0.7100781250000002,62.132703262189494
1361696161.25,0.22746200000000003,33.026666666666664,76.69250000042668,1.4848697916666669,62.13660515443808
1361696161.5,0.22740858333333333,33.026666666666664,76.69166666666666,3.375911458333334,62.13912302634805
1361696161.75,0.22735516666666666,33.02583333333333,76.69083333290666,5.357499999999999,62.138034278986
1361696162.0,0.22730174999999997,33.024166666666666,76.69,7.133541666666666,62.13694553162394
1361696162.25,0.22735512500000002,33.0225,76.68000000512,8.151953125,62.13694553162394
1361696162.5,0.2274085,33.020833333333336,76.67,8.625130208333333,62.13694553162394
1361696162.75,0.22751525000000003,33.02125,76.65999999488001,8.360807291666667,62.13694553162394
1361696163.0,0.227622,33.02375,76.65,8.146223958333332,62.13694553162394
1361696163.25,0.22772875,33.02625,76.62916667733333,8.511953125,62.13694553162394
1361696163.5,0.2278355,33.02875,76.60833333333333,8.683229166666667,62.13694553162394
1361696163.75,0.22794224999999999,33.03,76.58749998933334,8.616614583333334,62.13417749094676
1361696164.0,0.227995625,33.03,76.56666666666666,8.829791666666667,62.12725738925382
1361696164.25,0.227995625,33.03,76.5333333504,8.758984375,62.11722858362163
1361696164.5,0.22794225,33.03,76.5,8.179036458333334,62.10535234005098
1361696164.75,0.22788887500000002,33.03,76.46666664959999,7.743151041666668,62.08586939259637
1361696165.0,0.22778212500000003,33.03,76.43333333333332,7.678541666666667,62.06638644514177
1361696165.25,0.22767537499999999,33.03,76.39166668799999,7.267239583333333,62.047996350078215
1361696165.5,0.227622,33.03,76.35,6.648255208333334,62.02960625501465
1361696165.75,0.22751524999999997,33.03,76.308333312,6.418333333333333,62.02780239886102
1361696166.0,0.227461875,33.03,76.26666666666667,6.092291666666667,62.02780239886102
1361696166.25,0.2274085,33.03,76.21916669098667,5.363984375,62.02780239886102
1361696166.5,0.2274085,33.03,76.17166666666667,4.968802083333333,62.02780239886102
1361696166.75,0.2274085,33.03,76.12416664234667,4.888854166666667,62.030570439538195
1361696167.0,0.2274085,33.03,76.07666666666667,4.422447916666667,62.03702920111828
1361696167.25,0.227461875,33.03,76.02750002517334,3.6865624999999995,62.037699493921174
1361696167.5,0.22751525000000003,33.03,75.97833333333332,3.1855729166666666,62.03051341919041
1361696167.75,0.22751524999999997,33.03,75.92916664149332,2.6466406250000003,62.033078393731756
1361696168.0,0.227622,33.03,75.88,1.7593750000000001,62.04161080350138
1361696168.25,0.227675375,33.03,75.8300000256,1.0568229166666667,62.05521908382659
1361696168.5,0.227622,33.03,75.78,0.5284375000000001,62.06765323402228
1361696168.75,0.22762200000000002,33.03,75.7299999744,-0.2348177083333333,62.06140361665476
1361696169.0,0.22751525000000003,33.03,75.68,-0.9349739583333334,62.052174799100186
1361696169.25,0.22740849999999999,33.03,75.63416669013334,-1.619140625,62.042819965397605
1361696169.5,0.227195,33.03,75.58833333333334,-2.4154947916666667,62.03933872203189
1361696169.75,0.22698150000000003,33.03,75.54249997653334,-3.0869531249999995,62.04030178899304
1361696170.0,0.226768,33.03,75.49666666666667,-3.4920312499999997,62.04528724215157
1361696170.25,0.226501125,33.03,75.45416668842667,-3.443203125,62.06000747404019
1361696170.5,0.22618087500000003,33.03,75.41166666666666,-2.8917708333333336,62.08443151140096
1361696170.75,0.22591400000000003,33.02875,75.36916664490667,-2.2836197916666667,62.10671120337355
1361696171.0,0.22559375,33.02625,75.32666666666667,-1.5088541666666666,62.12302346011787
1361696171.25,0.225326875,33.02375,75.28666668714666,-0.2067968749999999,62.13316699391553
1361696171.5,0.22506,33.02125,75.24666666666667,0.8685677083333334,62.144484657842746
1361696171.75,0.224793125,33.02,75.20666664618668,1.597135416666667,62.15664262771843
1361696172.0,0.22463299999999997,33.02,75.16666666666667,2.5649479166666667,62.16180399404632
1361696172.25,0.2244195,33.02,75.12250002261334,3.8410156250000003,62.16394260174757
1361696172.5,0.22431274999999998,33.02,75.07833333333335,4.575937499999999,62.15264712884521
1361696172.75,0.22415262500000002,33.02,75.03416664405334,4.784453125,62.13438718219373
1361696173.0,0.2239925,33.02,74.99000000000001,4.911432291666666,62.11172613498363
1361696173.25,0.2239925,33.02,74.94500002304001,4.903411458333333,62.08822748175987
1361696173.5,0.22404587499999998,33.02,74.9,4.157578125,62.06472882853612
1361696173.75,0.22404587500000003,33.02125,74.85499997696,3.1481510416666665,62.03428389876537
1361696174.0,0.22404587499999998,33.02375,74.81,2.2927864583333335,62.00068157056416
1361696174.25,0.2239925,33.02625,74.76250002432,1.0716145833333335,61.967079242362956
1361696174.5,0.22404587499999998,33.02875,74.715,-0.17104166666666656,61.93347691416176
1361696174.75,0.22404587499999998,33.02875,74.66749997568,-1.056953125,61.90113180866535
1361696175.0,0.2239925,33.02625,74.62,-2.019192708333333,61.87695865075016
1361696175.25,0.22404587500000003,33.02375,74.57250002432001,-3.276510416666667,61.85593426760962
1361696175.5,0.2239925,33.02125,74.525,-3.9384635416666662,61.84247037473583
1361696175.75,0.22404587500000003,33.018750000000004,74.47749997567999,-4.043880208333333,61.8315266452843
1361696176.0,0.22404587499999998,33.01625,74.42999999999999,-4.077135416666667,61.821422970306855
1361696176.25,0.223939125,33.01375,74.3800000256,-4.222265625,61.811319295329405
1361696176.5,0.223832375,33.01125,74.33,-3.949401041666667,61.80121562035195
1361696176.75,0.223725625,33.00875,74.2799999744,-3.2965625,61.7980582219215
1361696177.0,0.22367225000000002,33.00625,74.23,-2.860286458333333,61.7980582219215
1361696177.25,0.22367225,33.003750000000004,74.18166669141334,-2.5844010416666667,61.7980582219215
1361696177.5,0.2235655,33.00125,74.13333333333333,-1.8664583333333333,61.7980582219215
1361696177.75,0.22351212499999998,33.0,74.08499997525333,-1.0354427083333333,61.7980582219215
1361696178.0,0.22345875,33.0,74.03666666666666,-0.45716145833333327,61.7980582219215
1361696178.25,0.223298625,33.0,73.99000002389333,0.3984635416666667,61.7980582219215
1361696178.5,0.22313850000000002,33.0,73.94333333333333,1.3235416666666666,61.7980582219215
1361696178.75,0.222925,33.0,73.89666664277334,1.8764322916666665,61.7980582219215
1361696179.0,0.22271145833333336,33.0,73.85000000000001,2.427994791666667,61.7980582219215
1361696179.25,0.22244450000000002,33.0,73.82000001536001,3.40359375,61.7980582219215
1361696179.5,0.22217754166666667,33.0,73.79,4.0229687499999995,61.7980582219215
1361696179.75,0.22196395833333335,33.0,73.75999998464,4.2448958333333335,61.7980582219215
1361696180.0,0.221697,33.0,73.73,4.931328124999999,61.7980582219215
1361696180.25,0.2214300416666667,33.0,73.71916667221333,5.6254687500000005,61.7980582219215
1361696180.5,0.22121645833333334,33.0,73.70833333333334,5.698463541666668,61.7980582219215
1361696180.75,0.22100287500000002,33.0,73.69749999445334,5.935286458333334,61.7980582219215
1361696181.0,0.2207892916666667,33.0,73.68666666666667,6.469661458333333,61.7980582219215
1361696181.25,0.2206290833333333,33.0,73.69916666026667,6.440260416666668,61.7980582219215
1361696181.5,0.22052225,33.0,73.71166666666667,6.380364583333333,61.7980582219215
1361696181.75,0.22041541666666667,33.00125,73.72416667306666,6.821328125,61.7980582219215
1361696182.0,0.220362,33.003750000000004,73.73666666666666,7.0019791666666675,61.79868970160759
1361696182.25,0.220362,33.00625,73.75416665770666,6.771901041666667,61.80816189689895
1361696182.5,0.220308625,33.00875,73.77166666666666,6.947213541666667,61.811319295329405
1361696182.75,0.220201875,33.01125,73.78916667562666,7.281953125,61.811319295329405
1361696183.0,0.22009512500000003,33.01375,73.80666666666666,7.051510416666666,61.81447669375985
1361696183.25,0.219988375,33.01625,73.82333332479999,7.080989583333334,61.82458036873731
1361696183.5,0.219881625,33.018750000000004,73.84,7.570885416666667,61.83468404371476
1361696183.75,0.219774875,33.02,73.8566666752,7.515052083333333,61.8447877186922
1361696184.0,0.21961475,33.02,73.87333333333333,7.380624999999999,61.85489139366965
1361696184.25,0.21945462500000001,33.02,73.88166666240001,7.733776041666666,61.86583512312118
1361696184.5,0.219241125,33.02,73.89,7.615911458333334,61.88937966968398
1361696184.75,0.21902762499999998,33.018750000000004,73.8983333376,7.231197916666667,61.92109616382797
1361696185.0,0.218814125,33.01625,73.90666666666667,7.3425520833333335,61.95406701234308
1361696185.25,0.218600625,33.01375,73.90583333376,7.193880208333333,61.97819714525294
1361696185.5,0.2184405,33.01125,73.905,6.746666666666666,62.00864207502369
1361696185.75,0.21833375,33.00875,73.90416666624,6.6371093750000005,62.04224440322489
1361696186.0,0.21822699999999998,33.00625,73.90333333333334,6.51921875,62.072689332995644
1361696186.25,0.21812025000000002,33.003750000000004,73.89333333845333,5.781302083333333,62.0961879862194
1361696186.5,0.2180135,33.00125,73.88333333333334,5.110625,62.11968663944315
1361696186.75,0.21790675,33.0,73.87333332821335,4.793411458333334,62.14318529266691
1361696187.0,0.2178,33.0,73.86333333333334,4.052526041666667,62.16668394589067
1361696187.25,0.21769324999999998,33.0,73.84333334357335,3.3042968750000004,62.18934254464033
1361696187.5,0.21769324999999998,33.0,73.82333333333335,3.2762760416666663,62.19940032627874
1361696187.75,0.217639875,33.0,73.80333332309334,2.9505989583333334,62.20128616033595
1361696188.0,0.217533125,33.0,73.78333333333335,2.287447916666667,62.20128616033595
1361696188.25,0.21742637499999998,33.0,73.76083334485334,2.0736979166666667,62.20128616033595
1361696188.5,0.217373,33.0,73.73833333333334,1.8227604166666664,62.20166288821219
1361696188.75,0.217373,33.0,73.71583332181334,1.2503385416666666,62.203420514059474
1361696189.0,0.217373,33.0,73.69333333333333,1.0628906249999999,62.206056879901176
1361696189.25,0.217373,33.0,73.67000001194666,1.2812760416666666,62.21007399785548
1361696189.5,0.217373,33.0,73.64666666666666,1.2396093750000001,62.21396553985104
1361696189.75,0.21742637499999998,33.0,73.62333332138667,1.2954166666666667,62.22157739273286
1361696190.0,0.21769329166666665,33.0,73.6,1.7001822916666667,62.23295267120776
1361696190.25,0.218067,33.0,73.58333334186666,1.8220052083333336,62.24374257073674
1361696190.5,0.21860083333333336,33.0,73.56666666666666,1.6130729166666669,62.25394709131979
1361696190.75,0.21940154166666667,33.0,73.54999999146668,1.7003385416666665,62.26532236979469
1361696191.0,0.22025562499999998,33.0,73.53333333333335,1.7933333333333332,62.281287947917455
1361696191.25,0.22116308333333334,33.0,73.52250000554668,1.899375,62.2987144609838
1361696191.5,0.22201716666666668,33.0,73.51166666666667,2.235234375,62.32227141398792
1361696191.75,0.22281787499999997,33.0,73.50083332778667,2.526145833333333,62.34523993877923
1361696192.0,0.22361858333333332,33.0,73.49,2.631328125,62.36732972357611
1361696192.25,0.22441929166666666,33.0,73.48416666965333,2.844947916666667,62.38803875626039
1361696192.5,0.22522,33.0,73.47833333333332,3.0777604166666666,62.4093731890331
1361696192.75,0.22596733333333333,33.0,73.47249999701333,3.1175781249999996,62.42698731091952
1361696193.0,0.2265545,33.0,73.46666666666667,3.156171875,62.44112891465983
1361696193.25,0.22708825,33.0,73.46250000213334,3.3168489583333334,62.468420866608334
1361696193.5,0.2274619166666667,33.0,73.45833333333334,3.4428385416666667,62.49966609325199
1361696193.75,0.2279957916666667,33.0,73.45416666453333,3.5626822916666665,62.53086194355711
1361696194.0,0.22884995833333335,33.0,73.45,3.7347916666666667,62.55759209216473
1361696194.25,0.229704125,33.0,73.44666666837334,3.803776041666666,62.58286130582878
1361696194.5,0.23061166666666666,33.0,73.44333333333333,3.71921875,62.60137415577807
1361696194.75,0.23151920833333337,33.0,73.43999999829333,3.6819531249999997,62.616311002585746
1361696195.0,0.232480125,33.0,73.43666666666667,3.632942708333333,62.62896270781153
1361696195.25,0.23344104166666668,33.0,73.42166667434667,3.5161979166666666,62.6416144130373
1361696195.5,0.23440195833333333,33.0,73.40666666666667,3.5416666666666665,62.65376629413341
1361696195.75,0.235362875,32.999583333333334,73.39166665898667,3.632265625,62.668369616595804
1361696196.0,0.23627041666666668,32.99875,73.37666666666667,3.6186197916666667,62.682723733445236
1361696196.25,0.23712458333333333,32.99791666666667,73.35166667946666,3.621015625,62.685468639442625
1361696196.5,0.2378185833333333,32.997083333333336,73.32666666666665,3.6367968750000004,62.68447163383885
1361696196.75,0.23797870833333332,32.99625,73.30166665386666,3.4816145833333336,62.68193784618024
1361696197.0,0.23765837499999998,32.99541666666667,73.27666666666666,3.496171875,62.67994427897435
1361696197.25,0.23712454166666666,32.99458333333333,73.23833335296,3.49609375,62.67919669127213
1361696197.5,0.23648395833333336,32.99375,73.19999999999999,3.544296875,62.67927960877873
1361696197.75,0.235843375,32.992916666666666,73.16166664704,3.6799479166666664,62.69118817673299
1361696198.0,0.23509604166666667,32.99208333333333,73.12333333333333,3.751041666666667,62.70977711071334
1361696198.25,0.23429533333333333,32.99125,73.09833334613333,3.6637760416666665,62.72836604469371
1361696198.5,0.23344120833333334,32.99041666666667,73.07333333333332,3.6265625,62.74695497867406
1361696198.75,0.23253366666666667,32.99,73.04833332053333,3.4998958333333334,62.76309247128814
1361696199.0,0.2316795,32.99,73.02333333333333,3.5369010416666664,62.779188262068224
1361696199.25,0.23082533333333333,32.99,73.01250000554666,3.6660416666666666,62.79432829443808
1361696199.5,0.23007791666666666,32.99,73.00166666666667,3.7722916666666673,62.80984234265987
1361696199.75,0.2294906666666667,32.99,72.99083332778667,4.027942708333334,62.82577179138317
1361696200.0,0.22906358333333335,32.99,72.98,4.155807291666666,62.8410364217034
1361696200.25,0.228796625,32.99,72.9924999936,4.252682291666667,62.85505507251994
1361696200.5,0.22858304166666665,32.99,73.005,4.3332291666666665,62.86849241402842
1361696200.75,0.22836945833333333,32.99,73.01750000639998,4.299401041666667,62.8728876384726
1361696201.0,0.22826266666666664,32.99,73.02999999999999,4.4081770833333325,62.8728876384726
1361696201.25,0.2285295833333333,32.99,73.05333332138666,4.644817708333334,62.8728876384726
1361696201.5,0.22933033333333333,32.99,73.07666666666665,4.633854166666667,62.871933599077586
1361696201.75,0.23082508333333332,32.99,73.10000001194666,4.6521614583333335,62.865504519213225
1361696202.0,0.2328002916666667,32.99,73.12333333333333,4.66796875,62.85861979175532
1361696202.25,0.23482887500000002,32.99,73.15499998378667,4.589557291666667,62.85322843745504
1361696202.5,0.23691083333333338,32.99,73.18666666666667,4.401822916666666,62.83405736391871
1361696202.75,0.23899279166666665,32.99,73.21833334954667,4.158020833333333,62.81193288594459
1361696203.0,0.24107475,32.99,73.25,3.8255208333333335,62.78697921411726
1361696203.25,0.24315670833333333,32.99,73.28416664917333,3.597447916666667,62.7633985668948
1361696203.5,0.2452386666666667,32.99,73.31833333333333,3.4173177083333335,62.740275594540606
1361696203.75,0.247320625,32.99,73.35250001749334,3.2313281249999997,62.71715262218643
1361696204.0,0.24929579166666668,32.99,73.38666666666667,2.848411458333334,62.69357197496396
1361696204.25,0.25089725,32.99,73.42166664874667,2.4078385416666666,62.666787603663494
1361696204.5,0.25196491666666665,32.99,73.45666666666668,2.1692708333333335,62.64703138268189
1361696204.75,0.252392,32.99,73.49166668458668,1.9777604166666667,62.634788383922405
1361696205.0,0.252338625,32.99,73.52666666666667,1.4396875,62.62491240699335
1361696205.25,0.252231875,32.99,73.55916665002667,0.7501041666666667,62.614041649597
1361696205.5,0.25207175,32.99,73.59166666666667,0.19882812500000005,62.62085427111208
1361696205.75,0.251965,32.99,73.62416668330665,-0.28591145833333326,62.632404566624395
1361696206.0,0.251911625,32.99,73.65666666666665,-0.7109114583333334,62.64678405598992
1361696206.25,0.251965,32.99,73.67666665642666,-1.1918489583333334,62.654102676109034
1361696206.5,0.25207175,32.99,73.69666666666666,-1.647005208333333,62.65930161752768
1361696206.75,0.252231875,32.99,73.71666667690666,-2.430598958333333,62.66450055894631
1361696207.0,0.25255216666666663,32.99,73.73666666666666,-3.725807291666666,62.666788174629545
1361696207.25,0.25303262499999996,32.99,73.74499999573334,-5.12796875,62.652564165295985
1361696207.5,0.2536198333333333,32.99,73.75333333333333,-6.610286458333333,62.626008620281624
1361696207.75,0.2543137916666667,32.99,73.76166667093332,-7.965937499999999,62.59741489351449
1361696208.0,0.25511449999999997,32.99,73.77,-8.024531249999999,62.56690979251047
1361696208.25,0.25596858333333333,32.99,73.76000000511999,-7.601796874999999,62.53590609881613
1361696208.5,0.2569294166666667,32.99,73.75,-6.7331249999999985,62.500998745446395
1361696208.75,0.2584774583333333,32.99,73.73999999488001,-5.605286458333333,62.464307122517226
1361696209.0,0.26039920833333335,32.99,73.73,-4.856276041666667,62.42761549958805
1361696209.25,0.26221420833333337,32.99,73.70083334826667,-4.200755208333333,62.396611721300424
1361696209.5,0.26397583333333335,32.99,73.67166666666667,-3.512682291666666,62.36726994684498
1361696209.75,0.2656840833333333,32.99,73.64249998506666,-2.4107812499999994,62.33792817238955
1361696210.0,0.2672855416666667,32.99,73.61333333333333,-0.46643229166666617,62.311955398537805
1361696210.25,0.2687802083333333,32.99,73.56833335637333,1.8968750000000005,62.30569797378086
1361696210.5,0.27011475,32.99,73.52333333333334,4.153671875,62.30569797378086
1361696210.75,0.27123575,32.99,73.47833331029334,6.052734375,62.32609270658702
1361696211.0,0.27214320833333333,32.99,73.43333333333334,6.856692708333333,62.34882056336812
1361696211.25,0.2729972916666667,32.99,73.38750002346667,7.371666666666666,62.3799479176291
1361696211.5,0.27369125,32.99,73.34166666666667,7.168697916666667,62.41061899061449
1361696211.75,0.273637875,32.99,73.29583330986667,6.674713541666666,62.44461373289113
1361696212.0,0.27310404166666663,32.99,73.25,6.55203125,62.478276108238646
1361696212.25,0.2725168333333334,32.99,73.21916668245333,6.5066145833333335,62.51160611665704
1361696212.5,0.27187625,32.99,73.18833333333333,6.329609375,62.544603758146316
1361696212.75,0.2711822916666667,32.99,73.15749998421333,6.113072916666667,62.575105754659354
1361696213.0,0.27043495833333336,32.99,73.12666666666667,5.749062500000001,62.607354124054204
1361696213.25,0.269687625,32.99,73.11166667434667,5.124427083333333,62.62737788327643
1361696213.5,0.26904704166666665,32.99,73.09666666666666,4.657421875,62.64715177838318
1361696213.75,0.26851325,32.98916666666667,73.08166665898666,4.435130208333334,62.64178057488554
1361696214.0,0.26808625,32.987500000000004,73.06666666666666,4.13,62.62877675229867
1361696214.25,0.26765925,32.98583333333334,73.06833333248,3.7173697916666666,62.61108634431236
1361696214.5,0.26733900000000005,32.984166666666674,73.07,3.7582291666666667,62.60043903054921
1361696214.75,0.26723225,32.9825,73.07166666752,3.6398177083333336,62.596490003510006
1361696215.0,0.26717887500000004,32.98083333333333,73.07333333333334,3.479635416666667,62.59682237043913
1361696215.25,0.26723225,32.979166666666664,73.08333332821334,3.26546875,62.597487104297386
1361696215.5,0.267392375,32.9775,73.09333333333333,3.0994270833333335,62.59848420508476
1361696215.75,0.267712625,32.975833333333334,73.10333333845333,2.9168229166666664,62.601976950848375
1361696216.0,0.2681930416666667,32.97416666666667,73.11333333333333,2.6359895833333336,62.60372332373017
1361696216.25,0.268726875,32.972500000000004,73.12833332565333,2.3297135416666666,62.617694306784585
1361696216.5,0.26931408333333334,32.97083333333333,73.14333333333333,1.888359375,62.63191515395448
1361696216.75,0.2699546666666667,32.97083333333333,73.15833334101335,1.5260416666666667,62.650886366922606
1361696217.0,0.270648625,32.9725,73.17333333333335,1.5273958333333333,62.67515707500502
1361696217.25,0.27150270833333334,32.97416666666667,73.19083332437334,1.581328125,62.69571487100699
1361696217.5,0.2724101666666667,32.975833333333334,73.20833333333334,1.2920572916666666,62.709685854061405
1361696217.75,0.273210875,32.9775,73.22583334229334,1.2436197916666667,62.71363488110062
1361696218.0,0.274065,32.979166666666664,73.24333333333334,1.3023177083333335,62.71363488110062
1361696218.25,0.27491916666666666,32.98083333333333,73.26833332053334,1.4373177083333333,62.71363488110062
1361696218.5,0.27571995833333335,32.982499999999995,73.29333333333334,1.5377604166666667,62.71363488110062
1361696218.75,0.276414,32.98416666666667,73.31833334613333,1.6697916666666668,62.71363488110062
1361696219.0,0.27700125000000003,32.98583333333334,73.34333333333333,1.8614583333333334,62.71363488110062
1361696219.25,0.2775350833333334,32.987500000000004,73.37416665088,2.0682552083333334,62.71363488110062
1361696219.5,0.2780155416666667,32.98916666666667,73.405,2.367994791666667,62.71363488110062
1361696219.75,0.278442625,32.98916666666667,73.43583334912,2.5891927083333335,62.71363488110062
1361696220.0,0.2788163333333334,32.987500000000004,73.46666666666667,2.5682031249999997,62.71363488110062
1361696220.25,0.2789765,32.98583333333334,73.50166664874666,2.5708854166666666,62.71363488110062
1361696220.5,0.2789765,32.98416666666667,73.53666666666666,2.9118489583333336,62.71363488110062
1361696220.75,0.278923125,32.9825,73.57166668458667,3.1759375,62.71363488110062
1361696221.0,0.27876295833333337,32.98083333333333,73.60666666666667,3.3013802083333332,62.71363488110062
1361696221.25,0.278549375,32.979166666666664,73.64416664746666,3.406380208333333,62.71363488110062
1361696221.5,0.2782824166666667,32.9775,73.68166666666667,3.567604166666667,62.71363488110062
1361696221.75,0.27796208333333333,32.975833333333334,73.71916668586667,3.704322916666666,62.71363488110062
1361696222.0,0.27764174999999996,32.97416666666667,73.75666666666666,3.783489583333333,62.71363488110062
1361696222.25,0.27732141666666665,32.972500000000004,73.79999997781333,3.9031510416666673,62.71363488110062
1361696222.5,0.27700108333333334,32.97083333333333,73.84333333333333,3.96734375,62.71363488110062
1361696222.75,0.27668075,32.97,73.88666668885334,3.82359375,62.71363488110062
1361696223.0,0.27636041666666666,32.97,73.93,3.702447916666667,62.71446432254526
1361696223.25,0.2760935,32.97,73.97749997568,3.642265625,62.71446432254527
1361696223.5,0.27587999999999996,32.97,74.025,3.467421875,62.72524706132565
1361696223.75,0.275719875,32.97,74.07250002432001,3.163723958333333,62.73851812443999
1361696224.0,0.27561312499999996,32.97,74.12,3.04078125,62.75178918755432
1361696224.25,0.275506375,32.97,74.17083330730667,2.960234375,62.765060250668654
1361696224.5,0.275453,32.97,74.22166666666666,2.6938281249999996,62.778331313782985
1361696224.75,0.275506375,32.97,74.27250002602666,2.64796875,62.7906483375023
1361696225.0,0.2757199166666667,32.97,74.32333333333332,2.7070052083333334,62.79404795702332
1361696225.25,0.276147,32.97,74.37749997226666,2.6011197916666666,62.79205438981743
1361696225.5,0.27657408333333333,32.97,74.43166666666666,2.535416666666667,62.79006082261154
1361696225.75,0.2770545416666667,32.97,74.48583336106665,2.4492968750000004,62.78806725540565
1361696226.0,0.277588375,32.97,74.53999999999999,2.154635416666667,62.785244246755106
1361696226.25,0.2781222083333333,32.97,74.59666663765333,2.1169531249999998,62.78325067954921
1361696226.5,0.2786560416666667,32.97,74.65333333333334,1.8809895833333332,62.770474373562934
1361696226.75,0.279189875,32.97083333333333,74.71000002901333,2.00921875,62.75520974324271
1361696227.0,0.2797237083333333,32.972500000000004,74.76666666666667,2.050442708333333,62.74006971087285
1361696227.25,0.28025754166666667,32.97416666666667,74.82666663594667,1.6684895833333335,62.726674049808146
1361696227.5,0.280791375,32.975833333333334,74.88666666666666,1.856171875,62.713153790793086
1361696227.75,0.2812184583333333,32.9775,74.94666669738666,1.6316406250000002,62.70083676707376
1361696228.0,0.281432,32.979166666666664,75.00666666666666,1.169609375,62.697437147552755
1361696228.25,0.281432,32.98083333333333,75.06999996757332,1.1530989583333333,62.69943071475864
1361696228.5,0.281432,32.9825,75.13333333333333,1.2454166666666666,62.70142428196453
1361696228.75,0.281378625,32.98416666666667,75.19666669909334,1.7843489583333332,62.70341784917042
1361696229.0,0.2812185,32.98583333333334,75.26,2.5644270833333334,62.705411416376315
1361696229.25,0.281005,32.987500000000004,75.32833329834666,2.8641666666666663,62.707404983582215
1361696229.5,0.28073808333333333,32.98916666666667,75.39666666666668,3.2658593750000002,62.7093985507881
1361696229.75,0.28041775,32.99,75.46500003498667,3.3052864583333332,62.71139211799399
1361696230.0,0.2800440416666667,32.99,75.53333333333333,3.25171875,62.71326108724951
1361696230.25,0.27961695833333333,32.99,75.60999996074666,3.580208333333333,62.71338568519988
1361696230.5,0.2791365,32.99,75.68666666666667,3.5055989583333336,62.70935107691793
1361696230.75,0.2786560416666667,32.99,75.76333337258666,3.632942708333333,62.69403735557256
1361696231.0,0.2781755833333333,32.99,75.83999999999999,3.8461197916666667,62.69204378836667
1361696231.25,0.27764175,32.99,75.92333329066666,3.7543749999999996,62.68946579344904
1361696231.5,0.2771079166666667,32.99,76.00666666666666,3.552473958333333,62.68934119549868
1361696231.75,0.2765740833333334,32.99,76.09000004266666,2.9663541666666666,62.688343411107404
1361696232.0,0.27604025000000004,32.99,76.17333333333333,2.349270833333333,62.6857238517847
1361696232.25,0.275453,32.99,76.26333328725333,1.977265625,62.685723851784694
1361696232.5,0.27486574999999996,32.99,76.35333333333334,1.5595833333333333,62.685723851784694
1361696232.75,0.2743319166666667,32.99,76.44333337941335,1.2923177083333333,62.68559925383433
1361696233.0,0.2738514583333333,32.99,76.53333333333335,1.1685677083333332,62.68472706818175
1361696233.25,0.273424375,32.99,76.6291666176,1.0120572916666666,62.683106294038645
