timestamp,EDA,TEMP,HR,BVP,ACC_mag
1361697996.0,1.8673314166666668,32.87,,12.360156250000001,61.97635286735317
1361697996.25,1.9031278571428574,32.87,,12.804374999999999,61.98664077629619
1361697996.5,1.9299751875000002,32.87,,13.160078125,61.99435670800345
1361697996.75,1.9508564444444447,32.871111111111105,,13.423645833333332,62.0003579882202
1361697997.0,1.9675614500000003,32.873,,13.01275,62.00515901239362
1361697997.25,1.981229181818182,32.874545454545455,,12.356988636363637,62.009087123080946
1361697997.5,1.9930460416666669,32.87583333333333,,11.581796875,62.01236054865373
1361697997.75,2.053452875,32.87833333333333,,11.272421875000001,62.0182175664668
1361697998.0,2.095599,32.88166666666667,,10.770026041666668,61.95532674822726
1361697998.25,2.117828166666667,32.885,,9.651119791666668,61.88839840800563
1361697998.5,2.120140375,32.888333333333335,,8.4165625,61.82012422712332
1361697998.75,2.120949458333333,32.8925,,6.910859375,61.751850046241
1361697999.0,2.124259375,32.8975,,5.409166666666667,61.6835758653587
1361697999.25,2.138086208333333,32.902499999999996,,3.9144531249999996,61.61530168447638
1361697999.5,2.1664872916666664,32.9075,,2.5327083333333333,61.54702750359406
1361697999.75,2.2081944166666667,32.9125,,1.106171875,61.47875332271175
1361698000.0,2.2532778749999998,32.9175,,0.0636979166666667,61.410479141829434
1361698000.25,2.2983613333333333,32.92250000000001,,-0.643828125,61.34220496094713
1361698000.5,2.3430177083333334,32.9275,,-0.7271874999999999,61.27393078006481
1361698000.75,2.387674083333333,32.931666666666665,,-0.3971875,61.22907805936653
1361698001.0,2.4323304583333334,32.934999999999995,,0.10755208333333334,61.22907805936653
1361698001.25,2.4769868333333336,32.93833333333333,,0.8696354166666668,61.22907805936653
1361698001.5,2.5171054583333334,32.94166666666667,,1.5744270833333334,61.22907805936653
1361698001.75,2.552686291666667,32.945,,2.3042708333333333,61.23733606822921
1361698002.0,2.5811668333333335,32.94833333333334,,3.1882812499999997,61.2813787821635
1361698002.25,2.5967815,32.95166666666667,,4.146770833333333,61.32542149609779
1361698002.5,2.595739875,32.955000000000005,,4.959583333333334,61.369464210032085
1361698002.75,2.5796305,32.9575,,5.783854166666667,61.41350692396639
1361698003.0,2.5590770833333334,32.95916666666667,,6.759921875000001,61.45754963790068
1361698003.25,2.5376695000000002,32.96083333333333,,7.779166666666666,61.501592351834965
1361698003.5,2.5156746666666665,32.9625,,8.37609375,61.54563506576926
1361698003.75,2.4932527083333333,32.964999999999996,,8.48609375,61.58967777970355
1361698004.0,2.4702435,32.968333333333334,,8.589791666666667,61.63372049363784
1361698004.25,2.4472342916666663,32.971666666666664,,8.566458333333333,61.677763207572134
1361698004.5,2.4287628333333333,32.975,,8.449453125,61.72180592150644
1361698004.75,2.414829166666667,32.977916666666665,,8.105703125,61.75759062657804
1361698005.0,2.4046325,32.98041666666666,,7.9007291666666655,61.75759062657804
1361698005.25,2.39726525,32.98291666666667,,7.837812499999999,61.758432874989886
1361698005.5,2.392620708333333,32.985416666666666,,7.807265625,61.78831621081928
1361698005.75,2.391339458333333,32.98791666666667,,7.863515624999999,61.86634483226042
1361698006.0,2.3953967499999997,32.99041666666667,60.375,8.155572916666666,62.0194870924957
1361698006.25,2.405219666666666,32.992916666666666,60.88541640533333,8.266250000000001,62.21349495740264
1361698006.5,2.417124625,32.995416666666664,61.39583333333333,8.322005208333334,62.42523795595281
1361698006.75,2.43084475,32.998333333333335,61.906250261333334,8.394505208333333,62.59799761967155
1361698007.0,2.4487823333333334,33.00166666666667,62.416666666666664,8.467942708333334,62.758921710681896
1361698007.25,2.4749412916666667,33.005,62.93749973333333,8.538229166666667,62.93780350374405
1361698007.5,2.51183075,33.00833333333333,63.45833333333333,8.408958333333334,63.12047816816169
1361698007.75,2.5520978333333333,33.01125,63.97916693333333,8.458984375,63.302297527078714
1361698008.0,2.594607125,33.01375,64.5,8.665807291666669,63.487900796009704
1361698008.25,2.639426333333333,33.01625,64.89166646613333,8.71421875,63.66390241493272
1361698008.5,2.6850996666666664,33.018750000000004,65.28333333333333,8.453072916666667,63.773786291344955
1361698008.75,2.7291714166666665,33.022083333333335,65.67500020053333,8.036640625,63.80808429538792
1361698009.0,2.7689723333333336,33.02625,66.06666666666666,7.872395833333333,63.75864147269564
1361698009.25,2.8038617916666664,33.03041666666667,65.90000008533333,8.018177083333333,63.66816772224055
1361698009.5,2.836615833333333,33.03458333333334,65.73333333333332,7.494817708333333,63.559958838142194
1361698009.75,2.8668073333333335,33.0375,65.56666658133332,7.527161458333333,63.49073328887528
1361698010.0,2.8924610833333335,33.03916666666667,65.39999999999999,8.0971875,63.43334331231677
1361698010.25,2.909199458333333,33.04083333333333,65.23333341866666,8.418906250000001,63.357995633706444
1361698010.5,2.9139794583333334,33.0425,65.06666666666666,8.913593749999999,63.27885508374064
1361698010.75,2.915381833333333,33.04416666666666,64.89999991466667,9.867421875,63.20056983927544
1361698011.0,2.9131539583333335,33.04583333333333,64.73333333333333,10.513567708333332,63.11850068479628
1361698011.25,2.9075484583333338,33.0475,64.70666668032,10.662473958333333,63.045190931913254
1361698011.5,2.89879325,33.049166666666665,64.68,10.941171875000002,63.00895783412346
1361698011.75,2.8900380416666667,33.05083333333334,64.65333331968,11.672265625,63.000165323091174
1361698012.0,2.8812828333333336,33.0525,64.62666666666667,11.692473958333332,63.0
1361698012.25,2.872527625,33.05416666666667,64.72416661674667,10.936796874999999,63.0
1361698012.5,2.864413041666667,33.05583333333333,64.82166666666666,11.030859375,63.0
1361698012.75,2.8574729583333336,33.05833333333333,64.91916671658666,10.887265625,63.0
1361698013.0,2.852347958333333,33.06166666666667,65.01666666666667,9.9925,62.993997992483706
1361698013.25,2.8476500000000002,33.065,65.17499991893334,9.198828125,62.976939691087466
1361698013.5,2.8440731666666665,33.068333333333335,65.33333333333334,8.78296875,62.96286561222603
1361698013.75,2.8404963333333337,33.0725,65.49166674773333,7.8202083333333325,62.94671950689011
1361698014.0,2.838307541666667,33.0775,65.65,6.8364062500000005,62.93015899625931
1361698014.25,2.8371864583333335,33.0825,65.87249988608,6.472838541666667,62.914676485287124
1361698014.5,2.837720291666667,33.0875,66.095,6.548333333333333,62.89844766685897
1361698014.75,2.834517125,33.0925,66.31750011392,5.778072916666667,62.88255054063347
1361698015.0,2.820316541666667,33.097500000000004,66.54,4.568046875,62.86412312767718
1361698015.25,2.7872708750000004,33.1025,66.79666653525334,3.76390625,62.832858935919916
1361698015.5,2.7418787916666667,33.1075,67.05333333333334,3.022890625,62.7617286376618
1361698015.75,2.6911872083333335,33.11166666666667,67.31000013141333,1.9141145833333333,62.68678770806005
1361698016.0,2.63531725,33.115,67.56666666666666,0.7274479166666666,62.614158543609754
1361698016.25,2.575496791666667,33.11833333333333,67.79583321599999,0.08460937500000003,62.552585673039395
1361698016.5,2.5126333333333335,33.12166666666667,68.025,-0.5970833333333333,62.48802857993422
1361698016.75,2.4472073333333335,33.12500000000001,68.254166784,-1.4846354166666667,62.425543513303545
1361698017.0,2.380019583333333,33.12833333333334,68.48333333333333,-2.489296875,62.36347285196775
1361698017.25,2.311977666666667,33.13166666666667,68.64583325013334,-3.3458854166666665,62.300324190973335
1361698017.5,2.242814666666667,33.135,68.80833333333334,-4.555000000000001,62.23792183743489
1361698017.75,2.1766946666666667,33.13791666666666,68.97083341653332,-5.221692708333333,62.175187791693794
1361698018.0,2.1210382083333337,33.14041666666667,69.13333333333333,-4.598697916666667,62.11498403268348
1361698018.25,2.0835328333333334,33.142916666666665,69.21499995818665,-3.1927083333333335,62.067617052474155
1361698018.5,2.057893416666667,33.14541666666667,69.29666666666665,-2.01703125,62.06011617876567
1361698018.75,2.0368594583333333,33.14791666666667,69.37833337514667,-0.7804427083333332,62.056425936400814
1361698019.0,2.0195624583333336,33.150416666666665,69.46,1.48765625,62.056425936400814
1361698019.25,2.0064829166666667,33.15291666666666,69.53083329706666,3.234505208333333,62.056425936400814
1361698019.5,1.996553125,33.15541666666666,69.60166666666666,4.054505208333333,62.056425936400814
1361698019.75,1.9891858750000002,33.157083333333325,69.67250003626667,5.41328125,62.059443857732795
1361698020.0,1.983580375,33.157916666666665,69.74333333333334,7.280260416666667,62.066988661062744
1361698020.25,1.9788290416666667,33.15875,69.80499996842667,8.326614583333333,62.07906034639067
1361698020.5,1.9751454166666669,33.15958333333333,69.86666666666667,9.148828125,62.09113203171861
1361698020.75,1.9721557916666665,33.16,69.92833336490668,10.479401041666668,62.10320371704653
1361698021.0,1.9697000416666668,33.16,69.99000000000001,11.229687499999999,62.11527540237446
1361698021.25,1.9680450833333332,33.16,70.05416663381334,10.715026041666668,62.12734708770238
1361698021.5,1.9670307500000002,33.16,70.11833333333334,10.219505208333333,62.13941877303032
1361698021.75,1.9672442916666666,33.16,70.18250003285334,10.423619791666667,62.15128105685483
1361698022.0,1.9685255833333333,33.16,70.24666666666667,9.732682291666666,62.160839924141776
1361698022.25,1.9700737916666669,33.16,70.32999995733333,8.544973958333333,62.169561185415056
1361698022.5,1.9718355416666669,33.16,70.41333333333333,8.297942708333332,62.177276799186
1361698022.75,1.9753590416666666,33.16,70.49666670933334,8.370989583333333,62.18172307974936
1361698023.0,1.9838473749999999,33.16,70.58,7.71484375,62.181139654563594
1361698023.25,1.9967133333333333,33.16,70.68499994624,7.205000000000001,62.175777935504264
1361698023.5,2.0127824166666666,33.16,70.78999999999999,7.477161458333334,62.17041621644493
1361698023.75,2.031627541666667,33.160833333333336,70.89500005376,7.367708333333333,62.16505449738559
1361698024.0,2.051273458333333,33.162499999999994,71.0,6.742890625,62.15969277832625
1361698024.25,2.0708125833333333,33.16416666666667,71.14499992576,6.667005208333333,62.15433105926692
1361698024.5,2.0901915416666665,33.16583333333333,71.28999999999999,7.132864583333333,62.14896934020758
1361698024.75,2.109036666666667,33.1675,71.43500007424,6.982473958333333,62.14381702265167
1361698025.0,2.1273479166666664,33.16916666666666,71.58,6.532291666666667,62.140968121633314
1361698025.25,2.14539225,33.170833333333334,71.7174999296,6.818463541666667,62.13908253256642
1361698025.5,2.1614612916666665,33.1725,71.855,7.3437760416666675,62.139836768193184
1361698025.75,2.173526375,33.17416666666667,71.99250007040001,7.19265625,62.14109382757112
1361698026.0,2.1789717083333335,33.17583333333334,72.13000000000001,7.015286458333333,62.142853710700216
1361698026.25,2.179131875,33.1775,72.22583328426667,7.552317708333334,62.1448650057049
1361698026.5,2.1756617916666667,33.17916666666667,72.32166666666667,7.841354166666666,62.146876300709586
1361698026.75,2.168347958333333,33.18,72.41750004906667,7.527786458333334,62.148887595714285
1361698027.0,2.159058875,33.18,72.51333333333334,7.549348958333333,62.15089889071897
1361698027.25,2.148755458333333,33.18,72.51749999786668,8.311927083333332,62.15291018572366
1361698027.5,2.1378114166666666,33.18,72.52166666666668,8.507005208333334,62.154921480728355
1361698027.75,2.126547083333333,33.18125,72.52583333546667,8.018645833333332,62.15693277573305
1361698028.0,2.11528275,33.183749999999996,72.53000000000002,8.249583333333334,62.15894407073773
1361698028.25,2.1040184166666664,33.18625,72.47250002944001,9.022499999999999,62.16082965980463
1361698028.5,2.0945158333333334,33.18875,72.415,8.869791666666666,62.161081071680215
1361698028.75,2.0872554583333334,33.19208333333333,72.35749997056,8.375677083333333,62.161081071680215
1361698029.0,2.08165,33.19625,72.3,8.888802083333333,62.161081071680215
1361698029.25,2.07919425,33.20041666666667,72.22000004096,9.321744791666665,62.161081071680215
1361698029.5,2.08223725,33.20458333333333,72.14,8.866171875000001,62.161792809607654
1361698029.75,2.0893909583333334,33.20875,72.05999995904,8.806666666666667,62.169830192392105
1361698030.0,2.097719125,33.212916666666665,71.98,9.530494791666667,62.17786757517655
1361698030.25,2.107061625,33.21708333333333,71.90916670293333,9.224739583333333,62.185904957960986
1361698030.5,2.1170447500000003,33.22125,71.83833333333334,8.528958333333334,62.19394234074542
1361698030.75,2.1273481666666667,33.22416666666666,71.76749996373333,8.977083333333335,62.203108450153245
1361698031.0,2.137651583333333,33.225833333333334,71.69666666666666,9.427057291666666,62.216413223846786
1361698031.25,2.147421125,33.2275,71.63416669866666,8.672083333333333,62.23009423974812
1361698031.5,2.1550018333333334,33.229166666666664,71.57166666666666,8.170494791666666,62.24415149785724
1361698031.75,2.15852525,33.23,71.50916663466666,8.735000000000001,62.255198818304024
1361698032.0,2.159859875,33.23,71.44666666666666,8.61578125,62.265869896543016
1361698032.25,2.1586320000000003,33.23,71.39166669482667,7.722369791666668,62.279927154652135
1361698032.5,2.1516384583333332,33.23,71.33666666666667,7.614557291666666,62.293272674833815
1361698032.75,2.140907916666667,33.23,71.28166663850666,8.022239583333334,62.29929255015849
1361698033.0,2.130124,33.23,71.22666666666667,7.432447916666667,62.30531242548317
1361698033.25,2.1192333333333333,33.23,71.17916669098668,6.832682291666667,62.311332300807855
1361698033.5,2.108022333333333,33.23,71.13166666666667,7.199713541666667,62.31735217613254
1361698033.75,2.096811333333333,33.23,71.08416664234667,7.286744791666667,62.322243324833835
1361698034.0,2.0844792083333332,33.23,71.03666666666668,6.620156250000001,62.32299580924942
1361698034.25,2.0718267916666666,33.23,70.99500002133334,6.392369791666667,62.323372051457206
1361698034.5,2.060936125,33.23,70.95333333333335,6.9690625,62.32337205145722
1361698034.75,2.0536222916666667,33.23,70.91166664533334,7.001666666666666,62.32638198911955
1361698035.0,2.04791,33.23,70.87,6.543203125000001,62.32976816898969
1361698035.25,2.041770625,33.23,70.83083335338667,6.720755208333333,62.32976816898969
1361698035.5,2.036165125,33.23,70.79166666666666,7.333255208333334,62.32976816898969
1361698035.75,2.03120025,33.23166666666666,70.75249997994666,7.144010416666666,62.32976816898969
1361698036.0,2.026182,33.235,70.71333333333332,6.825520833333335,62.32976816898969
1361698036.25,2.0212705000000004,33.23833333333333,70.67583335253333,7.482838541666666,62.32976816898969
1361698036.5,2.016412416666667,33.24166666666667,70.63833333333332,7.9215625,62.32976816898969
1361698036.75,2.0114475833333336,33.245,70.60083331413333,7.528854166666666,62.32976816898969
1361698037.0,2.0076038749999996,33.24833333333333,70.56333333333333,7.453958333333333,62.32976816898969
1361698037.25,2.0044541666666666,33.25166666666667,70.52583335253334,8.219635416666668,62.32976816898969
1361698037.5,2.0017315416666666,33.255,70.48833333333334,8.314036458333334,62.32976816898969
1361698037.75,1.999436,33.2575,70.45083331413333,7.7090104166666675,62.32976816898969
1361698038.0,1.9977277083333336,33.259166666666665,70.41333333333334,7.868776041666666,62.32976816898969
1361698038.25,1.9967668333333333,33.26083333333333,70.37583335253333,8.560677083333333,62.32976816898969
1361698038.5,1.9960195,33.2625,70.33833333333334,8.23578125,62.32487702028839
1361698038.75,1.9953255416666666,33.2625,70.30083331413334,7.828333333333333,62.32036211379488
1361698039.0,1.9947917083333333,33.26083333333333,70.26333333333334,8.532213541666666,62.31772841834032
1361698039.25,1.994257875,33.259166666666665,70.22583335253333,8.7125,62.314342238470196
1361698039.5,1.994151125,33.2575,70.18833333333333,7.967265625,62.308322363145514
1361698039.75,1.9942045000000002,33.255833333333335,70.15083331413334,8.059010416666666,62.302678730028624
1361698040.0,1.994257875,33.25416666666667,70.11333333333333,8.895598958333334,62.29665885470394
1361698040.25,1.9950052500000002,33.2525,70.07833335125333,8.544505208333332,62.290638979379274
1361698040.5,1.9962864583333333,33.25083333333333,70.04333333333334,7.832630208333334,62.28461910405458
1361698040.75,1.9979947500000002,33.25,70.00833331541334,8.398567708333333,62.27859922872991
1361698041.0,2.0002369166666667,33.25,69.97333333333334,8.973359375,62.27065313338978
1361698041.25,2.0029595833333333,33.25,69.94000001706667,8.239348958333332,62.26078081803421
1361698041.5,2.0061093333333333,33.25,69.90666666666667,7.9316145833333325,62.250269640191284
1361698041.75,2.009579375,33.25083333333333,69.87333331626667,8.730989583333335,62.23276050763539
1361698042.0,2.01336975,33.252500000000005,69.83999999999999,8.516484375,62.21261568370753
1361698042.25,2.017694,33.25416666666667,69.81083334826666,7.827630208333335,62.19322334419525
1361698042.5,2.024260416666667,33.255833333333335,69.78166666666667,8.360208333333334,62.17646470013753
1361698042.75,2.038407583333333,33.25833333333333,69.75249998506668,8.825026041666666,62.15932981387201
1361698043.0,2.0648334583333336,33.26166666666667,69.72333333333334,8.050364583333332,62.14257116981429
1361698043.25,2.1023635416666666,33.265,69.69916667904,7.861927083333334,62.12581252575655
1361698043.5,2.145072041666667,33.26833333333334,69.67500000000001,8.725442708333334,62.109053881698834
1361698043.75,2.187940708333333,33.270833333333336,69.65083332096,8.56265625,62.09229523764111
1361698044.0,2.2302755,33.2725,69.62666666666667,7.805703125000001,62.07670701081597
1361698044.25,2.2721297916666665,33.274166666666666,69.60833334272,8.276614583333334,62.06266710261486
1361698044.5,2.313557,33.27583333333334,69.59,8.852369791666668,62.05529090977668
1361698044.75,2.3546639166666665,33.27666666666667,69.57166665727999,8.155911458333334,62.05499770973929
1361698045.0,2.3944895416666667,33.276666666666664,69.55333333333333,8.057682291666667,62.06099435358218
1361698045.25,2.4327669583333336,33.27666666666667,69.53916667392,8.892578125,62.06422331565144
1361698045.5,2.466880333333333,33.276666666666664,69.525,8.608098958333333,62.06422331565144
1361698045.75,2.4883947083333333,33.27583333333334,69.51083332608,7.868151041666667,62.06422331565144
1361698046.0,2.4900496249999997,33.274166666666666,69.49666666666667,8.461328125,62.06652971712947
1361698046.25,2.474087333333333,33.2725,69.48583333888,8.927604166666667,62.073910201859185
1361698046.5,2.4477682499999998,33.270833333333336,69.475,8.116822916666665,62.08129068658891
1361698046.75,2.417178291666666,33.270833333333336,69.46416666112,8.043333333333335,62.088671171318616
1361698047.0,2.3839724166666665,33.2725,69.45333333333333,8.914765625,62.09680745883117
1361698047.25,2.347243125,33.274166666666666,69.44666667007999,8.625442708333333,62.105321647735174
1361698047.5,2.306937,33.27583333333333,69.44,7.888255208333333,62.11270213246488
1361698047.75,2.2649225,33.2775,69.43333332992,8.560390625,62.116601769996755
1361698048.0,2.222747875,33.27916666666667,69.42666666666666,8.9815625,62.10682684922489
1361698048.25,2.1804665,33.280833333333334,69.42250000213333,8.127057291666667,62.095742741729374
1361698048.5,2.1382918749999997,33.2825,69.41833333333332,8.154114583333333,62.09116615347628
1361698048.75,2.0992669999999998,33.28416666666667,69.41416666453333,9.061250000000001,62.087135991418705
1361698049.0,2.0678228749999996,33.285833333333336,69.41,8.803046875000001,62.08293892415572
1361698049.25,2.0423579166666666,33.2875,69.40750000128,8.242994791666666,62.07152827736844
1361698049.5,2.0215375,33.28916666666667,69.405,9.0915625,62.05902477819009
1361698049.75,2.0044540833333335,33.29,69.40249999871999,9.655234375000001,62.0454284266207
1361698050.0,1.9899865833333334,33.29,69.39999999999999,8.924869791666667,62.02636781309604
1361698050.25,1.9792430416666666,33.29,69.39583333546666,8.894322916666667,62.0062143471803
1361698050.5,1.9729175,33.29,69.39166666666667,9.952083333333334,61.98606088126457
1361698050.75,1.9686206249999998,33.29,69.38749999786667,9.875182291666667,61.968926982251084
1361698051.0,1.9657117499999999,33.29,69.38333333333334,9.1934375,61.96535373661393
1361698051.25,1.9653653750000002,33.29,69.37750000298666,9.775260416666667,61.96905226152862
1361698051.5,1.9707846666666669,33.29,69.37166666666667,10.502317708333333,61.97362884978171
1361698051.75,1.9856532499999997,33.29,69.36583333034667,9.977213541666666,61.97274629375074
1361698052.0,2.0111989583333334,33.29,69.36,9.781901041666666,61.968170127340166
1361698052.25,2.0473149999999998,33.29,69.35333333674666,10.662317708333333,61.96615386713492
1361698052.5,2.092519625,33.29,69.34666666666666,10.680755208333332,61.965230459320715
1361698052.75,2.149588875,33.29,69.33999999658667,10.012578125,61.96539990389758
1361698053.0,2.2215526666666663,33.29,69.33333333333333,10.302213541666665,61.971033610429714
1361698053.25,2.3078901666666667,33.29,69.32500000426666,11.138359375,61.977760169352905
1361698053.5,2.401729,33.29,69.31666666666666,10.834244791666665,61.984486728276096
1361698053.75,2.4952475416666666,33.29083333333333,69.30833332906667,10.265130208333334,61.99121328719929
1361698054.0,2.5884457916666666,33.2925,69.3,10.7578125,61.9925183875026
1361698054.25,2.6802026249999997,33.29416666666667,69.28916667221333,11.140885416666665,61.990628585751345
1361698054.5,2.76784875,33.295833333333334,69.27833333333334,10.489322916666667,61.98458216348852
1361698054.75,2.8478607083333336,33.29833333333333,69.26749999445333,10.338020833333333,61.983448459314246
1361698055.0,2.914754125,33.30166666666667,69.25666666666666,10.824895833333334,61.98386886924694
1361698055.25,2.964457375,33.305,69.24166667434666,10.5225,61.98386886924694
1361698055.5,2.9996267500000005,33.30833333333334,69.22666666666666,9.782890625,61.98386886924694
1361698055.75,3.0194614583333337,33.31166666666667,69.21166665898666,9.881901041666667,61.98386886924694
1361698056.0,3.024401625,33.315,69.19666666666666,10.40109375,61.98386886924694
1361698056.25,3.0147675416666666,33.318333333333335,69.18000000853333,9.886041666666666,61.98386886924694
1361698056.5,2.996790958333333,33.321666666666665,69.16333333333333,9.255234374999999,61.98386886924694
1361698056.75,2.9788143749999993,33.32416666666666,69.14666665813333,9.730364583333333,61.97945139458171
1361698057.0,2.9608377916666666,33.32583333333333,69.13,10.2853125,61.965315475653
1361698057.25,2.9431815,33.32749999999999,69.11166667605333,9.808020833333332,61.95117955672429
1361698057.5,2.926966625,33.329166666666666,69.09333333333333,9.509973958333333,61.93704363779557
1361698057.75,2.9111254583333337,33.33,69.07499999061334,10.188203125,61.92290771886686
1361698058.0,2.8983129583333334,33.33,69.05666666666667,10.582864583333334,61.908771799938144
1361698058.25,2.8923872083333335,33.33,69.03833334272001,10.1915625,61.89463588100943
1361698058.5,2.89190675,33.33,69.02000000000001,10.47859375,61.88049996208071
1361698058.75,2.894896333333333,33.329166666666666,69.00166665728,11.42390625,61.866364043152004
1361698059.0,2.8978859166666666,33.3275,68.98333333333333,11.23921875,61.85222812422328
1361698059.25,2.9008220833333334,33.325833333333335,68.96500000938667,10.771197916666667,61.83809220529457
1361698059.5,2.9037582499999997,33.32416666666666,68.94666666666666,11.410703125,61.82395628636586
1361698059.75,2.906694416666667,33.3225,68.92833332394666,12.042473958333332,61.814237842102365
1361698060.0,2.909737375,33.32083333333333,68.91,11.446458333333332,61.814237842102365
1361698060.25,2.9126735833333335,33.31916666666667,68.89250000896,11.061848958333334,61.814237842102365
1361698060.5,2.9143819166666667,33.3175,68.875,11.771171875,61.814237842102365
1361698060.75,2.9227634583333333,33.31583333333334,68.85749999103999,11.888489583333332,61.814237842102365
1361698061.0,2.9492960833333335,33.31416666666667,68.83999999999999,11.164348958333335,61.814237842102365
1361698061.25,2.9959017083333337,33.31250000000001,68.82333334186666,11.131614583333333,61.814237842102365
1361698061.5,3.060112958333333,33.310833333333335,68.80666666666666,11.560364583333333,61.814237842102365
1361698061.75,3.1347436666666666,33.310833333333335,68.78999999146666,11.008046875,61.814237842102365
1361698062.0,3.21129625,33.3125,68.77333333333333,10.377916666666666,61.814237842102365
1361698062.25,3.2888956666666664,33.314166666666665,68.75583334229333,10.653645833333334,61.814237842102365
1361698062.5,3.369751583333333,33.31583333333334,68.73833333333333,10.753385416666667,61.814237842102365
1361698062.75,3.45351125,33.3175,68.72083332437333,9.994505208333333,61.814237842102365
1361698063.0,3.540046958333333,33.31916666666667,68.70333333333333,9.468098958333334,61.814237842102365
1361698063.25,3.626369125,33.32083333333333,68.69166667264,9.862109375,61.814237842102365
1361698063.5,3.712350041666667,33.3225,68.67999999999999,9.847057291666667,61.814237842102365
1361698063.75,3.789041875,33.32416666666666,68.66833332735999,9.105130208333334,61.814237842102365
1361698064.0,3.846995375,33.32583333333333,68.65666666666665,8.72234375,61.814237842102365
1361698064.25,3.884608958333333,33.32749999999999,68.65166666922666,9.133255208333333,61.814237842102365
1361698064.5,3.904616916666667,33.329166666666666,68.64666666666666,9.0484375,61.814237842102365
1361698064.75,3.901980125,33.33,68.64166666410667,8.436588541666666,61.814237842102365
1361698065.0,3.885302916666667,33.33,68.63666666666667,8.521953125,61.814237842102365
1361698065.25,3.85855675,33.33,68.63833333248,9.136484375,61.814237842102365
1361698065.5,3.8285540833333336,33.33,68.64,9.35828125,61.814237842102365
1361698065.75,3.795647666666666,33.330416666666665,68.64166666752,9.625208333333333,61.814237842102365
1361698066.0,3.759858416666667,33.331250000000004,68.64333333333333,10.770885416666665,61.814237842102365
1361698066.25,3.7240691666666663,33.33208333333334,68.63250000554666,11.235234375,61.814237842102365
1361698066.5,3.688407625,33.33291666666667,68.62166666666667,10.416796875,61.843236315774355
1361698066.75,3.6608282083333332,33.33375,68.61083332778668,9.558098958333334,61.90907512842119
1361698067.0,3.653449458333333,33.334583333333335,68.60000000000001,9.735286458333333,61.98892172535477
1361698067.25,3.658702166666666,33.33541666666667,68.5875000064,9.563802083333334,62.069847622627
1361698067.5,3.6650550416666667,33.33625,68.575,8.605234375,62.150773519899225
1361698067.75,3.683633208333333,33.33708333333333,68.5624999936,8.306848958333335,62.23169941717145
1361698068.0,3.714329916666666,33.33791666666667,68.55,8.860260416666668,62.312625314443665
1361698068.25,3.7541021666666663,33.338750000000005,68.55166666581333,8.317916666666667,62.393551211715895
1361698068.5,3.7938744166666662,33.33958333333334,68.55333333333334,6.631822916666667,62.47447710898812
1361698068.75,3.8336466666666666,33.34,68.55500000085334,5.136484375,62.55540300626034
1361698069.0,3.871069958333333,33.34,68.55666666666667,3.8535416666666666,62.636328903532565
1361698069.25,3.906464625,33.34,68.5858333184,3.1568229166666666,62.717254800804795
1361698069.5,3.9398839999999993,33.34,68.61500000000001,3.467786458333333,62.76918222440503
1361698069.75,3.9674634166666665,33.34,68.6441666816,5.269635416666666,62.78426930903041
1361698070.0,3.9748421666666665,33.34,68.67333333333333,6.593828125000001,62.78534860936905
1361698070.25,3.969589458333333,33.34,68.71749997738667,6.570833333333334,62.78534860936905
1361698070.5,3.9632365833333334,33.34,68.76166666666667,7.233671875,62.78534860936905
1361698070.75,3.956883708333333,33.34125,68.80583335594667,8.921171874999999,62.78659277054572
1361698071.0,3.952559458333333,33.34375,68.85000000000001,8.933776041666667,62.78791987580082
1361698071.25,3.9546414999999997,33.346250000000005,68.87999998464001,8.396015624999999,62.789246981055925
1361698071.5,3.96083425,33.34875,68.91,9.811197916666666,62.79057408631103
1361698071.75,3.967027,33.35208333333333,68.94000001535998,11.896015624999999,62.79098880670325
1361698072.0,3.975568708333333,33.356249999999996,68.96999999999998,12.661770833333334,62.79098880670325
1361698072.25,3.988594791666666,33.360416666666666,68.98833332394666,12.590338541666666,62.79098880670325
1361698072.5,4.005784958333334,33.364583333333336,69.00666666666666,13.399062500000001,62.806579442355066
1361698072.75,4.025110541666667,33.36875,69.02500000938666,13.181666666666667,62.84006707775669
1361698073.0,4.046785083333333,33.37291666666667,69.04333333333334,11.964583333333332,62.83998777424521
1361698073.25,4.069207,33.37708333333333,69.04666666496,12.042421875,62.86674280932217
1361698073.5,4.091735708333333,33.38125,69.05,12.476796875,62.912924581807914
1361698073.75,4.12462125,33.384166666666665,69.05333333504,11.578645833333333,62.953178392319025
1361698074.0,4.170011541666667,33.38583333333333,69.05666666666666,11.061666666666666,62.97277681143382
1361698074.25,4.209061416666667,33.387499999999996,69.04333334015999,11.944687499999999,63.00328997548146
1361698074.5,4.244000583333334,33.38916666666667,69.03,12.108802083333336,63.038374249946884
1361698074.75,4.27893975,33.38916666666667,69.01666665984,11.35265625,63.06831376050533
1361698075.0,4.313878916666667,33.387499999999996,69.00333333333333,11.279375,63.08092632723437
1361698075.25,4.346362333333334,33.38583333333333,68.96250002090666,11.873411458333335,63.11773846552996
1361698075.5,4.376656958333334,33.384166666666665,68.92166666666667,10.976067708333332,63.15290293169462
1361698075.75,4.3945127500000005,33.3825,68.88083331242667,9.600572916666666,63.157191804217966
1361698076.0,4.400463541666666,33.380833333333335,68.84,9.388854166666667,63.203421146656105
1361698076.25,4.405666958333334,33.37916666666667,68.78833335978666,8.797994791666666,63.235272961347164
1361698076.5,4.410763583333334,33.3775,68.73666666666666,7.702239583333333,63.21693405998435
1361698076.75,4.405503375,33.376666666666665,68.68499997354667,6.3116666666666665,63.207962974416596
1361698077.0,4.385709791666667,33.376666666666665,68.63333333333333,5.564635416666666,63.23749817298877
1361698077.25,4.365850333333333,33.376666666666665,68.58833335637333,4.317317708333333,63.251548071861116
1361698077.5,4.346257791666667,33.376666666666665,68.54333333333332,2.163203125,63.26721720742817
1361698077.75,4.327999916666667,33.37833333333333,68.49833331029333,0.27036458333333324,63.285372263482
1361698078.0,4.3097420416666665,33.38166666666666,68.45333333333333,-1.0164322916666666,63.33632987081632
1361698078.25,4.291484166666667,33.385,68.42333334869333,-3.0904947916666665,63.35237710860741
1361698078.5,4.273226291666666,33.38833333333333,68.39333333333333,-3.801901041666667,63.34852994424748
1361698078.75,4.265271833333333,33.391666666666666,68.36333331797333,-2.6753385416666666,63.35766137377903
1361698079.0,4.266873416666667,33.394999999999996,68.33333333333333,-2.0830208333333338,63.35841927230891
1361698079.25,4.26415075,33.39833333333333,68.30250001578666,-1.6597135416666668,63.34672035999742
1361698079.5,4.2580647916666665,33.401666666666664,68.27166666666666,-0.8141666666666669,63.36578542633102
1361698079.75,4.251978833333333,33.40416666666666,68.24083331754666,1.5276822916666664,63.38020758384973
1361698080.0,4.245892875,33.40583333333333,68.21,3.1858072916666664,63.37665479836419
1361698080.25,4.239806916666666,33.4075,68.18000001536,4.733828125,63.377754780010015
1361698080.5,4.233454041666666,33.409166666666664,68.14999999999999,7.858671875,63.373198794911865
1361698080.75,4.2257665,33.41083333333333,68.11999998463999,10.445911458333333,63.372255144278995
1361698081.0,4.21936025,33.4125,68.08999999999999,12.109739583333331,63.35625060658726
1361698081.25,4.222296458333333,33.41416666666667,68.05750001663999,14.970182291666667,63.35095686687222
1361698081.5,4.238472291666667,33.41583333333333,68.02499999999999,16.856614583333332,63.35161456578731
1361698081.75,4.25902575,33.4175,67.99249998335999,16.690885416666667,63.352272264702414
1361698082.0,4.279579208333334,33.41916666666666,67.96,17.258333333333333,63.352929963617505
1361698082.25,4.304456916666667,33.42083333333333,67.92416668501333,18.342682291666666,63.35358766253261
1361698082.5,4.332697916666667,33.4225,67.88833333333334,18.315729166666667,63.35424536144772
1361698082.75,4.360938916666666,33.424166666666665,67.85249998165334,17.345520833333335,63.35486195418062
1361698083.0,4.3891799166666665,33.42583333333334,67.81666666666668,17.57104166666667,63.35551965309572
1361698083.25,4.412562791666667,33.4275,67.77500002133334,17.31109375,63.356095139646435
1361698083.5,4.431674833333333,33.42916666666667,67.73333333333335,15.611666666666666,63.35613624582863
1361698083.75,4.447690541666667,33.43083333333333,67.69166664533334,14.818619791666665,63.35613624582863
1361698084.0,4.4595955,33.4325,67.65,14.093619791666667,63.35835212140595
1361698084.25,4.460342874999999,33.43416666666666,67.59750002688,12.361484374999998,63.3760791260245
1361698084.5,4.446889708333333,33.435833333333335,67.545,10.994973958333333,63.393806130643064
1361698084.75,4.428044583333333,33.4375,67.49249997312,10.721901041666667,63.41153313526161
1361698085.0,4.408398666666666,33.43916666666667,67.44,9.440468749999999,63.42926013988017
1361698085.25,4.388112125,33.44083333333334,67.38750002688,7.775755208333333,63.44698714449871
1361698085.5,4.367451875,33.4425,67.33500000000001,7.340468749999999,63.46471414911726
1361698085.75,4.346578083333333,33.445,67.28249997312,6.93234375,63.48244115373583
1361698086.0,4.325544125,33.44833333333333,67.23,5.27671875,63.50016815835437
1361698086.25,4.309368291666666,33.45166666666667,67.1925000192,4.318671875,63.517895162972934
1361698086.5,4.297409916666667,33.455,67.155,4.408619791666666,63.53562216759148
1361698086.75,4.28838775,33.4575,67.1174999808,4.050598958333333,63.55334917221004
1361698087.0,4.282088291666667,33.45916666666667,67.08,3.9363541666666664,63.568778364032845
1361698087.25,4.277603958333334,33.46083333333333,67.07750000128,5.143671875,63.55938315850869
1361698087.5,4.27397375,33.4625,67.075,5.949843749999999,63.54177944172417
1361698087.75,4.2713578750000005,33.464166666666664,67.07249999872,5.606640625000001,63.52405243710561
1361698088.0,4.269649583333334,33.46583333333333,67.07000000000001,6.0226822916666665,63.50632543248705
1361698088.25,4.2686352916666666,33.4675,67.09083332266667,7.330885416666667,63.4885984278685
1361698088.5,4.268101458333333,33.46916666666666,67.11166666666666,8.010625,63.47087142324995
1361698088.75,4.267674416666666,33.47,67.13250001066666,8.355625,63.4531033124492
1361698089.0,4.267033833333333,33.47,67.15333333333332,9.689609375,63.43517077691968
1361698089.25,4.2662865,33.47,67.17916665343999,10.299375,63.41686828575041
1361698089.5,4.265432375,33.47,67.205,9.57515625,63.39852468839896
1361698089.75,4.265058708333333,33.47,67.23083334656,9.153515625,63.38013998486529
1361698090.0,4.265058708333333,33.47,67.25666666666667,9.353333333333333,63.36224828037201
1361698090.25,4.265165458333333,33.47,67.27583332352,8.026796875,63.356544352086594
1361698090.5,4.2658060833333336,33.47,67.295,6.485833333333335,63.3734076318861
1361698090.75,4.267140708333334,33.47,67.31416667648,6.5734375,63.37959809634882
1361698091.0,4.268368541666667,33.47,67.33333333333333,6.484114583333334,63.357267523681806
1361698091.25,4.2695430000000005,33.47,67.34999999146666,5.054583333333333,63.31674808474771
1361698091.5,4.275628958333333,33.47,67.36666666666667,3.719010416666667,63.27668365710279
1361698091.75,4.2971433333333335,33.47,67.38333334186667,3.3585677083333327,63.24340529476146
1361698092.0,4.342254125,33.47,67.4,2.368229166666667,63.207395031236075
1361698092.25,4.401440541666667,33.47,67.41416665941334,1.9135156249999998,63.178622392298486
1361698092.5,4.460787125,33.47,67.42833333333334,2.7127083333333335,63.14989148572
1361698092.75,4.519813375000001,33.47083333333333,67.44250000725333,3.4329687500000006,63.120126835215046
1361698093.0,4.578572708333334,33.472500000000004,67.45666666666666,2.9540625000000005,63.08705524617807
1361698093.25,4.637225291666667,33.47416666666667,67.46749999445333,3.2524739583333333,63.0489574139512
1361698093.5,4.695450791666667,33.475833333333334,67.47833333333332,4.810416666666667,62.99236279991944
1361698093.75,4.7505084166666665,33.4775,67.48916667221333,4.984322916666667,62.94656428905849
1361698094.0,4.797558208333334,33.479166666666664,67.5,3.894401041666667,62.938844011744976
1361698094.25,4.838628791666666,33.48083333333333,67.50666666325333,4.262005208333333,62.95100801492274
1361698094.5,4.872599083333333,33.4825,67.51333333333332,5.193177083333333,62.962717006811324
1361698094.75,4.891247708333333,33.48416666666667,67.52000000341333,4.896666666666667,62.967681039578515
1361698095.0,4.886673624999999,33.48583333333334,67.52666666666666,4.004635416666667,62.975541398258535
1361698095.25,4.868130666666667,33.487500000000004,67.53249999701333,4.571744791666666,62.9765340879905
1361698095.5,4.849587708333333,33.48916666666667,67.53833333333333,5.272552083333333,62.977526151545554
1361698095.75,4.831044749999999,33.49,67.54416666965332,5.276901041666666,62.97959306520928
1361698096.0,4.814583833333333,33.49,67.55,6.566744791666667,62.984555855583075
1361698096.25,4.8065045,33.49,67.55416666453333,8.486822916666666,62.99167038124463
1361698096.5,4.811184333333333,33.49,67.55833333333334,8.785130208333333,63.00292299188652
1361698096.75,4.826185708333333,33.49,67.56250000213333,9.6628125,63.01417560252841
1361698097.0,4.851170166666667,33.49,67.56666666666666,12.684453125,63.0158710167526
1361698097.25,4.883148166666667,33.49,67.57249999701332,14.396770833333333,63.0158710167526
1361698097.5,4.918436083333334,33.49,67.57833333333332,14.37734375,63.01103120898974
1361698097.75,4.953724,33.49041666666667,67.58416666965333,14.918541666666668,62.999281448383265
1361698098.0,4.989011916666667,33.49125,67.58999999999999,17.440546875,62.98330525246197
1361698098.25,5.024299833333333,33.49208333333333,67.59666666325333,17.58171875,62.94013582214552
1361698098.5,5.058840333333333,33.492916666666666,67.60333333333332,16.221171875,62.84979407627929
1361698098.75,5.091886041666666,33.49375,67.61000000341332,15.688828125,62.74455297639714
1361698099.0,5.122349125,33.49458333333334,67.61666666666666,13.899661458333334,62.621866325772544
1361698099.25,5.136028958333333,33.49541666666667,67.62499999573333,10.634973958333335,62.493463964984706
1361698099.5,5.123870166666666,33.49625,67.63333333333333,7.639322916666667,62.348429809675075
1361698099.75,5.094327833333334,33.497083333333336,67.64166667093333,4.502369791666666,62.19833858771943
1361698100.0,5.05596175,33.49791666666667,67.65,0.2802604166666661,62.0570461723752
1361698100.25,5.014997875,33.49875,67.65833332906668,-2.9643750000000004,61.918513203096715
1361698100.5,4.972806125,33.499583333333334,67.66666666666667,-4.5855989583333345,61.78914829877403
1361698100.75,4.930614375,33.5,67.67500000426666,-6.172057291666667,61.66117676253691
1361698101.0,4.888422625,33.5,67.68333333333334,-9.305338541666668,61.53581830819858
1361698101.25,4.846230875,33.5,67.68999999658666,-11.782005208333336,61.4385873845169
1361698101.5,4.804786541666666,33.5,67.69666666666666,-13.002864583333334,61.39607954247432
1361698101.75,4.766758875,33.5,67.70333333674667,-14.314895833333333,61.36999688149276
1361698102.0,4.730833375,33.5,67.71,-14.8515625,61.37143915409374
1361698102.25,4.706779625,33.5,67.71416666453334,-14.612786458333334,61.388739348441725
1361698102.5,4.704987666666667,33.5,67.71833333333333,-13.075546875,61.42845274873205
1361698102.75,4.726433541666666,33.5,67.72250000213333,-10.57453125,61.47840787280018
1361698103.0,4.7619702083333335,33.5,67.72666666666667,-9.048958333333333,61.51956419025689
1361698103.25,4.800958791666667,33.5,67.72500000085334,-8.300442708333334,61.56398116665233
1361698103.5,4.8440580833333335,33.5,67.72333333333334,-7.21828125,61.605459140855885
1361698103.75,4.889719875,33.5,67.72166666581334,-5.398098958333333,61.657708038899784
1361698104.0,4.9359688749999995,33.5,67.72000000000001,-3.375260416666667,61.71879339202501
1361698104.25,4.983499166666667,33.5,67.71500000256,-0.2950260416666668,61.787416129331916
1361698104.5,5.043575083333333,33.5,67.71000000000001,2.654322916666666,61.843792546023316
1361698104.75,5.112065791666667,33.50125,67.70499999744001,4.569348958333333,61.897343191091586
1361698105.0,5.178954916666667,33.50375,67.7,6.121718749999999,61.94265962871999
1361698105.25,5.242373958333333,33.50625,67.69083333802666,8.497786458333334,61.97502272990875
1361698105.5,5.296610666666667,33.50875,67.68166666666667,9.80671875,62.00034575101646
1361698105.75,5.337145416666666,33.51125,67.67249999530668,9.423984375,62.02979392196277
1361698106.0,5.370437875,33.513749999999995,67.66333333333334,10.411067708333333,62.059367782577425
1361698106.25,5.397624291666667,33.51625,67.65250000554667,12.396718749999998,62.08476279921589
1361698106.5,5.417550250000001,33.518750000000004,67.64166666666668,13.040364583333334,62.102401332312915
1361698106.75,5.433579083333334,33.52125,67.63083332778668,12.30078125,62.114617864139746
1361698107.0,5.447419125000001,33.52375,67.62,12.283203125,62.11961129430127
1361698107.25,5.459283833333333,33.52625,67.60416667477334,11.849088541666667,62.11613304401961
1361698107.5,5.456147208333334,33.52875,67.58833333333334,10.564140625,62.117350348264175
1361698107.75,5.436748125,33.530833333333334,67.57249999189334,10.184010416666666,62.11986759708673
1361698108.0,5.416408208333333,33.532500000000006,67.55666666666667,10.80109375,62.12053967050907
1361698108.25,5.3960682916666665,33.53416666666667,67.53833334272001,10.089166666666666,62.124022868787286
1361698108.5,5.3757283750000004,33.53583333333333,67.52000000000001,8.905651041666667,62.12876473572601
1361698108.75,5.3553884583333335,33.5375,67.50166665728,9.204114583333334,62.12419679569435
1361698109.0,5.335048541666667,33.53916666666667,67.48333333333333,9.715286458333333,62.11950316599434
1361698109.25,5.318946208333333,33.54083333333333,67.46500000938667,8.719296875,62.11296827526604
1361698109.5,5.314268375,33.5425,67.44666666666667,8.021276041666667,62.112800613078136
1361698109.75,5.317364708333333,33.54416666666666,67.42833332394667,8.91671875,62.112800613078136
1361698110.0,5.323791083333333,33.545833333333334,67.41000000000001,9.208802083333333,62.112800613078136
1361698110.25,5.3309115,33.5475,67.39666667349334,8.315572916666666,62.112800613078136
1361698110.5,5.340487625000001,33.54916666666666,67.38333333333334,8.406640625,62.11657032923214
1361698110.75,5.355989541666666,33.55,67.36999999317334,9.335130208333334,62.12159661743749
1361698111.0,5.372432291666667,33.55,67.35666666666667,8.920911458333332,62.131649193848176
1361698111.25,5.38778725,33.55,67.34583333888,8.296979166666667,62.14170177025887
1361698111.5,5.402234625000001,33.55,67.33500000000001,9.31046875,62.15175434666957
1361698111.75,5.412517916666666,33.55083333333333,67.32416666112,10.056901041666666,62.161806923080256
1361698112.0,5.413245208333334,33.5525,67.31333333333333,9.290026041666666,62.17123121346528
1361698112.25,5.401960750000001,33.55416666666667,67.30250000554666,9.231744791666666,62.18128378987598
1361698112.5,5.371190583333333,33.55583333333333,67.29166666666666,10.536614583333334,62.19133636628666
1361698112.75,5.324318083333334,33.5575,67.28083332778667,10.709557291666668,62.201388942697356
1361698113.0,5.2690106666666665,33.55916666666666,67.27,9.885078125,62.21144151910804
1361698113.25,5.208972041666667,33.56083333333333,67.26000000511999,10.431302083333334,62.22149409551874
1361698113.5,5.145249791666667,33.5625,67.25,11.476223958333334,62.246439097820065
1361698113.75,5.079285333333334,33.564166666666665,67.23999999488001,10.950494791666666,62.278843531730566
1361698114.0,5.011399,33.56583333333333,67.23,10.470390625,62.30622167743571
1361698114.25,4.943692916666667,33.5675,67.22416666965333,11.485885416666669,62.333599823140865
1361698114.5,4.876627500000001,33.56916666666667,67.21833333333333,11.690442708333334,62.36110283705498
1361698114.75,4.8132457083333335,33.57,67.21249999701334,10.721979166666666,62.388730719178085
1361698115.0,4.758939416666666,33.57,67.20666666666666,10.733411458333334,62.4174031146901
1361698115.25,4.716324541666666,33.57,67.20500000085333,11.571640625,62.43505503004335
1361698115.5,4.684813875,33.57,67.20333333333333,11.161640624999999,62.43290209234322
1361698115.75,4.662485541666666,33.57,67.20166666581333,10.187708333333333,62.417978756310816
1361698116.0,4.646276416666667,33.57,67.2,10.445729166666668,62.383045948985476
1361698116.25,4.634531583333334,33.57,67.20166666581333,10.662682291666668,62.34811314166013
1361698116.5,4.626363625,33.57,67.20333333333333,9.746015625,62.294518192290155
1361698116.75,4.620437875,33.57,67.20500000085333,9.262682291666666,62.235068826026996
1361698117.0,4.616434000000001,33.57,67.20666666666666,9.750937500000001,62.187427631666026
1361698117.25,4.613337666666666,33.57,67.20916666538666,9.517604166666667,62.14086090783846
1361698117.5,4.61050825,33.57,67.21166666666667,8.68875,62.11384960230558
1361698117.75,4.608266041666667,33.57083333333333,67.21416666794667,8.610598958333332,62.114265829668824
1361698118.0,4.607838958333333,33.5725,67.21666666666667,9.010520833333333,62.11426582966882
1361698118.25,4.61227,33.57416666666666,67.21916666538667,8.602083333333333,62.12465802380191
1361698118.5,4.624175,33.575833333333335,67.22166666666666,7.957760416666667,62.1548550709884
1361698118.75,4.6455292083333335,33.57833333333334,67.22416666794668,8.162083333333333,62.19782251650715
1361698119.0,4.674677708333333,33.58166666666666,67.22666666666667,8.471145833333333,62.260799433318844
1361698119.25,4.704947333333334,33.585,67.22749999957334,8.167005208333332,62.32377635013054
1361698119.5,4.7353237083333335,33.58833333333333,67.22833333333334,7.85953125,62.386753266942215
1361698119.75,4.765700083333333,33.5925,67.22916666709334,8.159010416666666,62.446868596986576
1361698120.0,4.796076458333332,33.597500000000004,67.23,8.335208333333332,62.49517575512875
1361698120.25,4.826452833333334,33.6025,67.23,8.047369791666666,62.54240844273752
1361698120.5,4.856829208333333,33.6075,67.23,7.916015625,62.56996084384263
1361698120.75,4.885657458333333,33.61166666666667,67.23,8.320338541666667,62.56996084384263
1361698121.0,4.913151083333333,33.615,67.23,8.430989583333332,62.56996084384263
1361698121.25,4.936106916666667,33.61833333333333,67.23,8.207994791666666,62.56996084384263
1361698121.5,4.951695541666667,33.62166666666667,67.23,8.297447916666666,62.56996084384263
1361698121.75,4.958315416666667,33.62416666666667,67.23,8.829453125,62.56996084384263
1361698122.0,4.95772825,33.62583333333334,67.23,9.034114583333333,62.56996084384263
1361698122.25,4.95703425,33.627500000000005,67.23,8.904375,62.56996084384263
1361698122.5,4.9590095000000005,33.62916666666667,67.23,9.239062500000001,62.56996084384263
1361698122.75,4.967818125,33.63,67.23,9.881536458333333,62.56996084384263
1361698123.0,4.986449708333333,33.63,67.23,9.974557291666667,62.56996084384263
1361698123.25,5.007376833333334,33.63,67.22916666709334,9.759375,62.56996084384263
1361698123.5,5.028303958333333,33.63,67.22833333333334,10.14734375,62.56996084384263
1361698123.75,5.050672458333334,33.63,67.22749999957334,10.643749999999999,62.56996084384263
1361698124.0,5.073040958333333,33.63,67.22666666666667,10.545625000000001,62.56996084384263
1361698124.25,5.095409458333333,33.63,67.22416666794668,10.22015625,62.56996084384263
1361698124.5,5.117777958333333,33.63,67.22166666666666,10.636588541666667,62.56996084384263
1361698124.75,5.134861291666666,33.63,67.21916666538667,10.967421875,62.56996084384263
1361698125.0,5.1473000833333336,33.63,67.21666666666667,10.579062500000001,62.56996084384263
1361698125.25,5.155628208333333,33.63,67.21250000213334,10.273411458333333,62.56996084384263
1361698125.5,5.158777958333332,33.63,67.20833333333334,10.605677083333333,62.56996084384263
1361698125.75,5.153599541666666,33.63,67.20416666453333,10.445729166666668,62.56996084384263
1361698126.0,5.1380109166666665,33.63,67.2,9.805885416666667,62.56996084384263
1361698126.25,5.119859791666666,33.63,67.19666666837334,9.761510416666667,62.56996084384263
1361698126.5,5.101548541666666,33.63,67.19333333333333,10.135703125000001,62.56996084384263
1361698126.75,5.08302375,33.630833333333335,67.18999999829333,9.772682291666667,62.56996084384263
1361698127.0,5.064392166666667,33.6325,67.18666666666667,9.129895833333332,62.56996084384263
1361698127.25,5.045760583333333,33.634166666666665,67.18000000341334,9.374635416666667,62.56996084384263
1361698127.5,5.0271289999999995,33.63583333333334,67.17333333333335,9.549817708333332,62.56996084384263
1361698127.75,5.013782583333334,33.6375,67.16666666325334,8.941640625,62.56996084384263
1361698128.0,5.0051875,33.63916666666666,67.16000000000001,8.455651041666666,62.56996084384263
1361698128.25,4.999955708333333,33.64083333333333,67.14666667349334,8.833307291666667,62.56996084384263
1361698128.5,4.997873666666667,33.6425,67.13333333333334,8.829947916666667,62.56996084384263
1361698128.75,5.001130166666667,33.64416666666667,67.11999999317334,8.320859375,62.56996084384263
1361698129.0,5.01276825,33.645833333333336,67.10666666666667,8.236328125,62.56996084384263
1361698129.25,5.029691541666666,33.6475,67.08166667946666,8.595677083333333,62.56996084384263
1361698129.5,5.046774958333334,33.649166666666666,67.05666666666667,8.36765625,62.56996084384263
1361698129.75,5.064071916666667,33.650416666666665,67.03166665386667,7.893802083333333,62.56996084384263
1361698130.0,5.081475666666667,33.65125,67.00666666666666,7.996770833333334,62.56996084384263
1361698130.25,5.098879416666667,33.65208333333333,66.97583334912,8.148229166666667,62.56996084384263
1361698130.5,5.116283166666666,33.65291666666666,66.945,7.815104166666667,62.56996084384263
1361698130.75,5.132245458333333,33.653749999999995,66.91416665087999,7.500598958333332,62.56996084384263
1361698131.0,5.144791041666667,33.654583333333335,66.88333333333333,7.6928125,62.56996084384263
1361698131.25,5.1556283333333335,33.65541666666666,66.85083334997333,7.689192708333333,62.56996084384263
1361698131.5,5.165397916666667,33.65625,66.81833333333333,7.3140624999999995,62.56996084384263
1361698131.75,5.17132375,33.657916666666665,66.78583331669333,7.064583333333332,62.56996084384263
1361698132.0,5.1694552499999995,33.66041666666666,66.75333333333333,7.112838541666666,62.56996084384263
1361698132.25,5.1625685,33.66291666666667,66.71916668416,6.909557291666666,62.56996084384263
1361698132.5,5.155681749999999,33.665416666666665,66.685,6.5468489583333325,62.56996084384263
1361698132.75,5.148795,33.6675,66.65083331584,6.476119791666666,62.56996084384263
1361698133.0,5.143242874999999,33.66916666666666,66.61666666666667,6.671510416666666,62.56996084384263
1361698133.25,5.1467128749999995,33.670833333333334,66.57666668714667,6.703958333333333,62.56996084384263
1361698133.5,5.16774675,33.67249999999999,66.53666666666666,6.420156250000001,62.56996084384263
1361698133.75,5.205764833333333,33.674166666666665,66.49666664618667,6.220026041666667,62.56996084384263
1361698134.0,5.2516915,33.67583333333333,66.45666666666666,6.404140625,62.56996084384263
1361698134.25,5.301461875,33.6775,66.4233333504,6.4609375,62.56996084384263
1361698134.5,5.3548090833333335,33.67916666666667,66.39,6.310833333333334,62.56996084384263
1361698134.75,5.40981125,33.68,66.3566666496,6.360520833333333,62.56996084384263
1361698135.0,5.464813416666668,33.68,66.32333333333334,6.889270833333334,62.56996084384263
1361698135.25,5.519815583333333,33.68,66.30083334485333,7.31125,62.56996084384263
1361698135.5,5.572682291666667,33.68,66.27833333333334,7.3865625,62.56996084384263
1361698135.75,5.623840666666666,33.68125,66.25583332181334,7.625911458333334,62.56996084384263
1361698136.0,5.6726501250000005,33.683749999999996,66.23333333333333,8.089557291666667,62.56996084384263
1361698136.25,5.710355416666666,33.686249999999994,66.22333333845333,8.276666666666667,62.56996084384263
1361698136.5,5.7280944583333335,33.68875,66.21333333333334,8.543593750000001,62.56996084384263
1361698136.75,5.7248988333333335,33.692083333333336,66.20333332821335,9.198802083333334,62.56996084384263
1361698137.0,5.708402708333334,33.69625,66.19333333333334,9.777057291666667,62.56996084384263
1361698137.25,5.680909125,33.70041666666666,66.18083333973334,10.05796875,62.56996084384263
1361698137.5,5.6429777083333335,33.70458333333333,66.16833333333334,10.353151041666667,62.56996084384263
1361698137.75,5.598025166666667,33.70791666666667,66.15583332693333,10.906197916666665,62.56996084384263
1361698138.0,5.5486949999999995,33.71041666666667,66.14333333333333,11.188880208333332,62.56996084384263
1361698138.25,5.496108291666666,33.712916666666665,66.12916667392,11.137005208333335,62.56996084384263
1361698138.5,5.4437351666666665,33.71541666666667,66.115,11.289010416666665,62.56996084384263
1361698138.75,5.391468833333334,33.717499999999994,66.10083332608,11.632656249999998,62.56996084384263
1361698139.0,5.3392025,33.719166666666666,66.08666666666666,11.6928125,62.56996084384263
1361698139.25,5.288324208333333,33.72083333333333,66.07250000725332,11.808255208333334,62.56996084384263
1361698139.5,5.2391542499999995,33.7225,66.05833333333334,12.164505208333333,62.56996084384263
1361698139.75,5.195322791666666,33.723333333333336,66.04416665941334,12.601432291666669,62.56996084384263
1361698140.0,5.160086416666666,33.72333333333333,66.03,12.785729166666668,62.56996084384263
1361698140.25,5.133712083333333,33.72333333333333,66.01500000768,12.613463541666667,62.56996084384263
1361698140.5,5.114625833333332,33.723333333333336,66.0,12.649505208333336,62.56996084384263
1361698140.75,5.100852375,33.72416666666666,65.98499999232,13.108046875,62.56996084384263
1361698141.0,5.091456541666666,33.725833333333334,65.97,13.277682291666666,62.56996084384263
1361698141.25,5.085317249999999,33.7275,65.95250000896,13.087864583333333,62.56996084384263
1361698141.5,5.081099833333333,33.729166666666664,65.935,13.170833333333334,62.56996084384263
1361698141.75,5.078537333333332,33.73,65.91749999103999,13.622291666666667,62.56996084384263
1361698142.0,5.076989125,33.73,65.89999999999999,13.837135416666667,62.56996084384263
1361698142.25,5.076241666666666,33.73,65.87666667861333,13.321328124999999,62.56996084384263
1361698142.5,5.076455166666666,33.73,65.85333333333332,13.224427083333332,62.56996084384263
1361698142.75,5.076935625,33.73083333333333,65.82999998805333,13.564192708333332,62.56996084384263
1361698143.0,5.078537166666666,33.732499999999995,65.80666666666667,13.071406249999997,62.56996084384263
1361698143.25,5.081847041666666,33.73416666666666,65.77916668074667,12.682291666666666,62.56996084384263
1361698143.5,5.089160833333334,33.735833333333325,65.75166666666667,13.226328125,62.56996084384263
1361698143.75,5.107205125,33.7375,65.72416665258666,13.186145833333335,62.56996084384263
1361698144.0,5.140891416666666,33.73916666666666,65.69666666666666,12.328281250000002,62.56996084384263
1361698144.25,5.184560833333333,33.740833333333335,65.66583334911999,12.057109375000001,62.56996084384263
1361698144.5,5.22823025,33.7425,65.635,12.352578124999999,62.56996084384263
1361698144.75,5.271846291666667,33.744166666666665,65.60416665088,11.825677083333334,62.56887782200016
1361698145.0,5.3154623333333335,33.74583333333333,65.57333333333334,10.722369791666667,62.56075515818165
1361698145.25,5.358971625,33.747499999999995,65.54250001578667,10.770338541666668,62.55209098344191
1361698145.5,5.402214,33.74916666666666,65.51166666666666,10.768567708333334,62.54342680870216
1361698145.75,5.443427708333334,33.75,65.48083331754665,9.585651041666667,62.53476263396241
1361698146.0,5.477274208333333,33.75,65.44999999999999,8.877578125,62.52609845922266
1361698146.25,5.504607666666666,33.75,65.41916668245332,9.17,62.51743428448291
1361698146.5,5.524040041666666,33.75,65.38833333333334,8.667447916666667,62.508770109743175
1361698146.75,5.530873416666666,33.75,65.35749998421333,7.598203125,62.500105935003425
1361698147.0,5.521477541666666,33.75,65.32666666666667,7.345937500000001,62.491441760263676
1361698147.25,5.501457916666666,33.75,65.2933333504,7.6031249999999995,62.48277758552393
1361698147.5,5.480904416666667,33.75,65.25999999999999,7.176354166666667,62.47411341078418
1361698147.75,5.459550125,33.75083333333334,65.22666664959999,6.66921875,62.46653225788689
1361698148.0,5.437822166666666,33.752500000000005,65.19333333333333,7.1371875,62.465990746965666
1361698148.25,5.4157205,33.75416666666667,65.16333334869333,7.5508072916666675,62.465990746965666
1361698148.5,5.3931383749999995,33.755833333333335,65.13333333333333,7.384687500000001,62.461352206692425
1361698148.75,5.372104458333333,33.7575,65.10333331797334,7.492083333333333,62.43815950532621
1361698149.0,5.357103083333334,33.759166666666665,65.07333333333334,8.193828125,62.41342062386892
1361698149.25,5.346906416666666,33.76083333333334,65.04833334613333,8.504244791666666,62.38868174241164
1361698149.5,5.340606916666666,33.7625,65.02333333333334,8.618463541666666,62.36394286095435
1361698149.75,5.336229291666666,33.76333333333334,64.99833332053335,9.23453125,62.339203979497064
1361698150.0,5.332438916666667,33.76333333333334,64.97333333333334,10.148333333333333,62.31446509803978
1361698150.25,5.3293959583333335,33.76333333333334,64.95500000938667,10.751302083333334,62.289726216582494
1361698150.5,5.332225416666667,33.76333333333334,64.93666666666667,10.896953125000001,62.264987335125205
1361698150.75,5.355928666666667,33.762499999999996,64.91833332394667,11.289479166666666,62.240248453667924
1361698151.0,5.405737416666667,33.76083333333333,64.89999999999999,11.589921875,62.215509572210614
1361698151.25,5.4622470000000005,33.759166666666665,64.88333334186666,11.549921875,62.19077069075333
1361698151.5,5.519237041666667,33.7575,64.86666666666666,11.39671875,62.170670349569285
1361698151.75,5.576494,33.755833333333335,64.84999999146666,11.488750000000001,62.16912416947821
1361698152.0,5.634071291666667,33.75416666666667,64.83333333333333,11.542083333333332,62.16912416947821
1361698152.25,5.6916485833333335,33.7525,64.8166666752,11.375729166666668,62.16912416947821
1361698152.5,5.749225875,33.75083333333333,64.8,10.975234375,62.16912416947821
1361698152.75,5.796100291666666,33.75083333333334,64.7833333248,10.644244791666667,62.16912416947821
1361698153.0,5.833418666666666,33.7525,64.76666666666667,10.348255208333333,62.16912416947821
1361698153.25,5.862569041666666,33.75416666666666,64.75000000853333,9.7915625,62.16912416947821
1361698153.5,5.879387374999999,33.755833333333335,64.73333333333333,9.532578125,62.16912416947821
1361698153.75,5.871061083333333,33.7575,64.71666665813333,9.463619791666666,62.16912416947821
1361698154.0,5.833212583333332,33.75916666666667,64.7,9.447838541666666,62.16912416947821
1361698154.25,5.786367666666667,33.76083333333333,64.68333334186667,9.260937499999999,62.16912416947821
1361698154.5,5.737280541666666,33.762499999999996,64.66666666666666,9.193098958333334,62.16912416947821
1361698154.75,5.686937916666667,33.765,64.64999999146666,9.321432291666666,62.16912416947821
1361698155.0,5.635660125,33.76833333333334,64.63333333333333,9.414166666666665,62.16912416947821
1361698155.25,5.583047708333333,33.77166666666667,64.6166666752,9.336848958333333,62.16912416947821
1361698155.5,5.529527708333333,33.775,64.6,9.425598958333333,62.16912416947821
1361698155.75,5.486069958333334,33.776666666666664,64.5833333248,9.799244791666666,62.16912416947821
1361698156.0,5.45216825,33.77666666666667,64.56666666666666,10.128593749999999,62.16912416947821
1361698156.25,5.42632775,33.77666666666667,64.55000000853333,10.237682291666667,62.16912416947821
1361698156.5,5.40748075,33.776666666666664,64.53333333333333,10.398098958333332,62.16912416947821
1361698156.75,5.393705375,33.7775,64.51666665813333,10.744479166666666,62.16912416947821
1361698157.0,5.383720375,33.77916666666667,64.5,10.953229166666667,62.16912416947821
1361698157.25,5.3774724166666665,33.780833333333334,64.48333334186667,11.015286458333334,62.16912416947821
1361698157.5,5.376402875,33.782500000000006,64.46666666666667,11.242786458333333,62.16912416947821
1361698157.75,5.379685166666667,33.7825,64.44999999146667,11.690234374999998,62.16857916128682
1361698158.0,5.386571916666667,33.78083333333334,64.43333333333334,11.896796875,62.161494054798766
1361698158.25,5.396181333333334,33.77916666666667,64.41500000938667,11.815833333333332,62.15277392373656
1361698158.5,5.407766,33.777499999999996,64.39666666666668,11.900963541666668,62.14405379267433
1361698158.75,5.422126708333334,33.7775,64.37833332394666,12.09875,62.135333661612115
1361698159.0,5.436914541666667,33.77916666666667,64.36,11.986145833333333,62.12770354693268
1361698159.25,5.45244975,33.780833333333334,64.34083334314667,11.709791666666668,62.11898341587047
1361698159.5,5.4681985,33.782500000000006,64.32166666666667,11.632942708333333,62.11026328480824
1361698159.75,5.4848014166666665,33.78333333333333,64.30249999018667,11.676822916666667,62.10154315374603
1361698160.0,5.502311916666667,33.78333333333334,64.28333333333335,11.519270833333335,62.09282302268381
1361698160.25,5.519128375,33.78333333333334,64.26250001066667,11.275052083333334,62.08410289162159
1361698160.5,5.533435666666667,33.78333333333333,64.24166666666667,11.194947916666669,62.07538276055937
1361698160.75,5.545500791666666,33.78416666666667,64.22083332266668,10.913802083333335,62.06720763768854
1361698161.0,5.556871916666666,33.78583333333333,64.2,10.530052083333333,62.06557261311438
1361698161.25,5.567015166666667,33.7875,64.18083334314667,10.417604166666667,62.06557261311437
1361698161.5,5.57609075,33.78916666666667,64.16166666666666,10.459453125,62.06557261311438
1361698161.75,5.583030916666668,33.79,64.14249999018666,10.25984375,62.06557261311438
1361698162.0,5.5895439583333335,33.79,64.12333333333333,10.024947916666667,62.04512346464916
1361698162.25,5.595309625,33.79,64.10500000938667,10.112135416666666,62.01414885331726
1361698162.5,5.60086175,33.79,64.08666666666667,10.270859374999999,61.99285380802656
1361698162.75,5.603797958333334,33.79,64.06833332394666,10.135364583333333,61.96187919669467
1361698163.0,5.605559625000001,33.79,64.05,10.032838541666667,61.93864823819573
1361698163.25,5.6069475833333335,33.79,64.03416667477333,10.307317708333333,61.938648238195725
1361698163.5,5.607908500000001,33.79,64.01833333333333,10.507890625,61.93477641177925
1361698163.75,5.607855083333334,33.79083333333333,64.00249999189333,10.545390625000001,61.92703275894627
1361698164.0,5.605506083333334,33.7925,63.98666666666666,10.560859375,61.91735319290504
1361698164.25,5.602836791666667,33.79416666666666,63.97250000725332,10.690859375,61.892186321197876
1361698164.5,5.599953958333334,33.79583333333333,63.95833333333333,10.934609374999999,61.88250675515665
1361698164.75,5.597071125,33.79750000000001,63.944166659413334,11.158776041666664,61.872827189115434
1361698165.0,5.594188291666668,33.79916666666667,63.93,11.156744791666668,61.87863492874016
1361698165.25,5.591305458333333,33.80083333333334,63.91666667349333,11.071744791666665,61.90960954007207
1361698165.5,5.588422625,33.8025,63.903333333333336,11.284921875,61.930904585362754
1361698165.75,5.586607541666667,33.80416666666667,63.88999999317333,11.583671875,61.95219963065344
1361698166.0,5.585059416666667,33.80583333333334,63.876666666666665,11.666119791666667,61.97543058915236
1361698166.25,5.5835112916666665,33.807500000000005,63.861666674346665,11.666953125000001,61.96962284952764
1361698166.5,5.581963166666667,33.80916666666667,63.846666666666664,11.856197916666666,61.971558762735874
1361698166.75,5.580575208333333,33.80916666666667,63.83166665898666,12.117447916666668,61.97930241556886
1361698167.0,5.5795075416666675,33.8075,63.81666666666666,12.205156250000002,61.98704606840184
1361698167.25,5.581642958333333,33.80583333333333,63.80166667434666,12.318072916666667,62.01221294010901
1361698167.5,5.597178166666667,33.80416666666667,63.78666666666666,12.487786458333334,62.02189250615023
1361698167.75,5.630170458333333,33.803333333333335,63.77166665898667,12.543385416666668,62.031572072191445
1361698168.0,5.67093125,33.803333333333335,63.75666666666667,12.591223958333332,62.04512346464916
1361698168.25,5.711692041666666,33.803333333333335,63.742500007253334,12.829505208333336,62.041251638232666
1361698168.5,5.752452833333333,33.803333333333335,63.72833333333333,12.979088541666668,62.04125163823267
1361698168.75,5.793907625,33.8025,63.71416665941333,12.928307291666668,62.05093120427389
1361698169.0,5.835362416666666,33.80083333333334,63.699999999999996,12.662500000000001,62.02382841935847
1361698169.25,5.876817208333333,33.799166666666665,63.685000007679996,12.48859375,61.99042319608119
1361698169.5,5.914135541666666,33.79749999999999,63.67,12.555260416666668,61.95534304013945
1361698169.75,5.9439265,33.7975,63.65499999232001,12.40921875,61.92575511857777
1361698170.0,5.96752475,33.799166666666665,63.64000000000001,12.079401041666666,61.89561797357809
1361698170.25,5.983275375000001,33.80083333333333,63.62166667605334,11.999635416666669,61.86409413880818
1361698170.5,5.982529833333333,33.8025,63.60333333333334,12.052526041666667,61.83505544068452
1361698170.75,5.961657916666667,33.803333333333335,63.58499999061333,11.815468749999999,61.811824482185585
1361698171.0,5.930615166666667,33.803333333333335,63.56666666666666,11.445911458333333,61.779751423977665
1361698171.25,5.898077625,33.803333333333335,63.54833334272,11.469348958333333,61.78168733718591
1361698171.5,5.864525750000001,33.803333333333335,63.53,11.683046875,61.78168733718591
1361698171.75,5.829692625,33.80416666666667,63.511666657279996,11.453229166666667,61.78168733718591
1361698172.0,5.793951958333333,33.80583333333333,63.49333333333333,11.294166666666664,61.80879012210133
1361698172.25,5.757784208333334,33.8075,63.47750000810667,11.611927083333333,61.84800308500335
1361698172.5,5.725539375,33.80916666666666,63.461666666666666,11.825546875,61.88501915415333
1361698172.75,5.700234666666667,33.81,63.445833325226666,11.750182291666667,61.914607075715004
1361698173.0,5.681122666666667,33.81,63.43,11.951927083333333,61.94668013392293
1361698173.25,5.666815333333333,33.81,63.41666667349333,12.27484375,61.978203968692846
1361698173.5,5.655817916666667,33.81,63.403333333333336,12.291015625,62.007242666816516
1361698173.75,5.647489791666666,33.80916666666667,63.38999999317333,12.202838541666667,62.03047362531544
1361698174.0,5.641564,33.807500000000005,63.376666666666665,12.498255208333333,62.06254668352336
1361698174.25,5.637773625,33.80583333333333,63.361666674346665,12.634817708333335,62.06199746008536
1361698174.5,5.6441265,33.80416666666667,63.346666666666664,12.312161458333334,62.059512323439094
1361698174.75,5.673541958333334,33.8025,63.33166665898666,12.099895833333333,62.05454205014659
1361698175.0,5.725625583333334,33.80083333333334,63.31666666666666,12.2415625,62.0545420501466
1361698175.25,5.7800908333333325,33.79916666666667,63.30000000853333,12.037369791666668,62.056633238429065
1361698175.5,5.834769625,33.7975,63.28333333333333,11.482369791666665,62.06290680327647
1361698175.75,5.890035666666666,33.795833333333334,63.26666665813333,11.195156249999998,62.06499799155895
1361698176.0,5.945301708333333,33.79416666666667,63.25,11.068489583333333,62.06499799155895
1361698176.25,6.000567749999999,33.7925,63.23333334186667,10.555130208333333,62.06499799155893
1361698176.5,6.055833791666667,33.79083333333333,63.21666666666667,9.932708333333332,62.06499799155893
1361698176.75,6.099355,33.79083333333333,63.19999999146667,9.797135416666666,62.06499799155895
1361698177.0,6.132999874999999,33.7925,63.18333333333334,9.71296875,62.06499799155893
1361698177.25,6.159010666666667,33.79416666666667,63.166666675200005,9.267447916666667,62.06748312820519
1361698177.5,6.170948374999999,33.795833333333334,63.150000000000006,8.805104166666668,62.06996826485145
1361698177.75,6.157281666666666,33.7975,63.1333333248,8.853020833333334,62.07493853814395
1361698178.0,6.118597833333332,33.79916666666667,63.11666666666667,8.936770833333334,62.07493853814395
1361698178.25,6.077959458333332,33.80083333333334,63.10000000853333,8.902942708333333,62.07284734986148
1361698178.5,6.037321083333334,33.8025,63.08333333333333,8.861276041666667,62.06657378501407
1361698178.75,5.996682708333334,33.80416666666667,63.06666665813333,8.98625,62.0644825967316
1361698179.0,5.956044333333334,33.80583333333333,63.04999999999999,9.13,62.0644825967316
1361698179.25,5.915405958333333,33.807500000000005,63.03333334186666,9.606354166666666,62.0644825967316
1361698179.5,5.875781916666667,33.80916666666667,63.01666666666666,10.095677083333333,62.0644825967316
1361698179.75,5.85067875,33.81,62.99999999146666,10.198828125,62.0644825967316
1361698180.0,5.835451916666667,33.81,62.98333333333333,10.336510416666668,62.0644825967316
1361698180.25,5.827218541666666,33.81,62.966666675199995,10.941484375,62.0644825967316
1361698180.5,5.823929333333333,33.81,62.949999999999996,11.474973958333331,62.0644825967316
1361698180.75,5.824463208333333,33.81,62.933333324799996,11.307838541666667,62.0644825967316
1361698181.0,5.828253583333333,33.81,62.916666666666664,11.268072916666666,62.0644825967316
1361698181.25,5.831510083333334,33.81,62.90000000853333,11.689609375000002,62.0644825967316
1361698181.5,5.832737916666666,33.81,62.88333333333333,12.004947916666667,62.0644825967316
1361698181.75,5.832364208333334,33.81,62.86666665813333,11.839635416666667,62.0644825967316
1361698182.0,5.830816041666666,33.81,62.85,11.793723958333333,62.0644825967316
1361698182.25,5.828306916666667,33.81,62.834166674773336,11.808828125,62.0644825967316
1361698182.5,5.824196208333333,33.81,62.81833333333333,11.723177083333333,62.0644825967316
1361698182.75,5.816668833333334,33.810833333333335,62.80249999189333,11.629401041666666,62.0644825967316
1361698183.0,5.808287291666667,33.8125,62.78666666666666,11.580208333333333,62.0644825967316
1361698183.25,5.799158333333334,33.814166666666665,62.77250000725333,11.329557291666667,62.0644825967316
1361698183.5,5.7893887500000005,33.81583333333333,62.758333333333326,11.007682291666669,62.0644825967316
1361698183.75,5.779085291666667,33.8175,62.74416665941333,11.064348958333333,62.0644825967316
1361698184.0,5.768728416666666,33.81916666666667,62.73,11.145208333333334,62.0644825967316
1361698184.25,5.758798666666666,33.82083333333333,62.717500006399995,10.852005208333333,62.0644825967316
1361698184.5,5.750897583333334,33.8225,62.705,10.524244791666666,62.0644825967316
1361698184.75,5.744598041666666,33.82416666666666,62.6924999936,10.509869791666667,62.0644825967316
1361698185.0,5.739472958333334,33.82583333333333,62.68,10.559453125,62.0644825967316
1361698185.25,5.735308833333334,33.82749999999999,62.6675000064,10.392786458333333,62.0644825967316
1361698185.5,5.7317319583333335,33.82916666666666,62.655,10.104817708333334,62.0644825967316
1361698185.75,5.729436333333333,33.83,62.642499993600005,9.971901041666667,62.0644825967316
1361698186.0,5.732586041666667,33.83,62.63,9.940859375,62.0644825967316
1361698186.25,5.747106916666667,33.83,62.6175000064,9.866276041666667,62.0644825967316
1361698186.5,5.775721583333333,33.83,62.605000000000004,9.723307291666666,62.0644825967316
1361698186.75,5.811596708333333,33.83,62.59249999360001,9.690729166666666,62.0644825967316
1361698187.0,5.84752525,33.83,62.580000000000005,9.786432291666667,62.0644825967316
1361698187.25,5.883560541666667,33.83,62.5675000064,9.784010416666668,62.0644825967316
1361698187.5,5.919595833333333,33.83,62.55500000000001,9.460963541666667,62.0644825967316
1361698187.75,5.955631125,33.83,62.5424999936,9.248802083333333,62.0644825967316
1361698188.0,5.991666416666667,33.83,62.53,9.266796875,62.0644825967316
1361698188.25,6.025619708333333,33.83,62.51916667221333,9.184713541666667,62.0644825967316
1361698188.5,6.0561562916666665,33.83,62.508333333333326,9.000963541666666,62.0644825967316
1361698188.75,6.083276166666667,33.83,62.49749999445333,8.980859375,62.0644825967316
1361698189.0,6.103028833333333,33.83,62.48666666666666,9.18875,62.0644825967316
1361698189.25,6.109648625000001,33.83,62.477500004693326,9.242109375,62.0644825967316
1361698189.5,6.1010535416666665,33.83,62.46833333333333,9.151796875,62.0644825967316
1361698189.75,6.083916791666667,33.829166666666666,62.45916666197333,9.350494791666668,62.0644825967316
1361698190.0,6.065445416666666,33.8275,62.449999999999996,9.67953125,62.0644825967316
1361698190.25,6.04617325,33.825833333333335,62.44166667093333,9.637239583333333,62.0644825967316
1361698190.5,6.025833333333334,33.82416666666667,62.43333333333333,9.804791666666667,62.0644825967316
1361698190.75,6.004799416666667,33.8225,62.42499999573333,10.422395833333333,62.0644825967316
1361698191.0,5.983551958333333,33.82083333333333,62.416666666666664,10.9978125,62.0644825967316
1361698191.25,5.964066166666666,33.81916666666667,62.4083333376,11.124583333333334,62.0644825967316
1361698191.5,5.947463250000001,33.8175,62.4,11.240963541666666,62.0644825967316
1361698191.75,5.933209333333333,33.81583333333334,62.3916666624,11.861901041666668,62.0644825967316
1361698192.0,5.921357749999999,33.81416666666667,62.38333333333333,12.389114583333333,62.0644825967316
1361698192.25,5.911908499999999,33.81250000000001,62.37500000426667,12.334088541666668,62.0644825967316
1361698192.5,5.904167583333334,33.81083333333334,62.36666666666667,12.492942708333333,62.0644825967316
1361698192.75,5.898135,33.81,62.35833332906667,12.888385416666667,62.0644825967316
1361698193.0,5.893383666666666,33.81,62.35,12.846901041666667,62.0644825967316
1361698193.25,5.889433124999999,33.81,62.34333333674667,12.724427083333333,62.0644825967316
1361698193.5,5.886550333333332,33.81,62.336666666666666,12.8746875,62.0644825967316
1361698193.75,5.884361541666666,33.81,62.329999996586665,12.995364583333334,62.0644825967316
1361698194.0,5.882386291666666,33.81,62.32333333333333,12.638203124999999,62.0644825967316
1361698194.25,5.880731375,33.81,62.31750000298666,12.344661458333334,62.0644825967316
1361698194.5,5.8796102916666655,33.81,62.31166666666667,12.420078125000002,62.0644825967316
1361698194.75,5.878916291666666,33.81,62.30583333034667,12.179244791666667,62.0644825967316
1361698195.0,5.878595999999999,33.81,62.300000000000004,11.495963541666667,62.0644825967316
1361698195.25,5.8783825,33.81,62.29583333546667,11.160130208333333,62.0644825967316
1361698195.5,5.878222374999999,33.81,62.29166666666667,11.091796875,62.06720763768854
1361698195.75,5.878222375,33.81,62.287499997866675,10.709817708333333,62.07592776875075
1361698196.0,5.87827575,33.81,62.28333333333334,10.202994791666667,62.08464789981298
1361698196.25,5.878435875,33.81,62.2791666688,9.971015625,62.09336803087519
1361698196.5,5.878596000000001,33.81,62.275000000000006,9.996901041666666,62.10208816193741
1361698196.75,5.878756125,33.81,62.27083333120001,9.808697916666667,62.11080829299963
1361698197.0,5.878969625,33.81,62.26666666666667,9.422942708333334,62.11952842406185
1361698197.25,5.879289916666667,33.81,62.262500002133336,9.263880208333333,62.12824855512406
1361698197.5,5.8797703750000005,33.81,62.25833333333334,9.434166666666666,62.13696868618627
1361698197.75,5.881105000000001,33.81,62.25416666453334,9.482942708333333,62.1456888172485
1361698198.0,5.883400583333334,33.81,62.25,9.255833333333333,62.15440894831071
1361698198.25,5.886443541666668,33.81,62.24666666837333,9.261666666666667,62.16312907937293
1361698198.5,5.891355000000001,33.81,62.243333333333325,9.6559375,62.16912416947821
1361698198.75,5.899309458333334,33.81,62.23999999829333,9.877317708333335,62.16912416947821
1361698199.0,5.911000875,33.81,62.23666666666666,9.6575,62.16912416947821
1361698199.25,5.925895458333334,33.81,62.235000000853326,9.727734374999999,62.16912416947821
1361698199.5,5.942551791666666,33.81,62.23333333333333,10.080989583333333,62.16912416947821
1361698199.75,5.959635208333334,33.81,62.23166666581333,10.032786458333334,62.163129079372936
1361698200.0,5.976718625,33.81,62.23,9.763645833333333,62.154408948310724
1361698200.25,5.993908791666667,33.81,62.231666665813336,9.932447916666666,62.145688817248505
1361698200.5,6.013608083333334,33.81,62.233333333333334,10.236328125,62.136968686186286
1361698200.75,6.03779175,33.81,62.23500000085333,10.083489583333334,62.12824855512407
1361698201.0,6.065338666666666,33.81,62.23666666666667,9.919661458333334,62.119528424061855
1361698201.25,6.09352625,33.81,62.239999998293335,10.235208333333333,62.11080829299963
1361698201.5,6.120859666666667,33.81,62.24333333333334,10.366640625,62.10208816193742
1361698201.75,6.146911833333334,33.81,62.24666666837334,9.992473958333333,62.093368030875205
1361698202.0,6.170775208333333,33.81,62.25,10.021302083333333,62.08464789981298
1361698202.25,6.192076041666667,33.81,62.25416666453334,10.592630208333334,62.075927768750766
1361698202.5,6.212042208333333,33.81,62.25833333333334,10.611796875,62.06720763768855
1361698202.75,6.232969333333333,33.81,62.262500002133336,10.167552083333334,62.0644825967316
1361698203.0,6.2633457083333335,33.81,62.26666666666667,10.334765625000001,62.0644825967316
1361698203.25,6.3095859999999995,33.81,62.26916666538667,10.931067708333332,62.0644825967316
1361698203.5,6.355621166666666,33.81,62.271666666666675,10.775364583333333,62.0644825967316
1361698203.75,6.396317791666667,33.81,62.27416666794667,10.236119791666667,62.0644825967316
1361698204.0,6.432690208333334,33.81,62.27666666666667,10.598281250000001,62.0644825967316
1361698204.25,6.467674583333333,33.81,62.27749999957334,11.264348958333331,62.0644825967316
1361698204.5,6.501644625,33.81,62.278333333333336,10.950416666666667,62.0644825967316
1361698204.75,6.533799541666666,33.81,62.279166667093335,10.652812500000001,62.0644825967316
1361698205.0,6.555757833333334,33.81,62.28,11.331093749999999,62.0644825967316
1361698205.25,6.570348916666667,33.81,62.279166667093335,11.554375,62.0644825967316
1361698205.5,6.579174375000001,33.81,62.278333333333336,10.879973958333332,62.0644825967316
1361698205.75,6.582792333333334,33.81,62.27749999957334,10.982942708333333,62.0644825967316
1361698206.0,6.574049124999999,33.81,62.27666666666667,11.970364583333334,62.0644825967316
1361698206.25,6.546719333333335,33.81,62.275833333760005,11.884713541666665,62.0644825967316
1361698206.5,6.515056875,33.81,62.275000000000006,11.252473958333333,62.0644825967316
1361698206.75,6.482006375,33.81,62.27416666624,11.814453125,62.0644825967316
1361698207.0,6.44831525,33.81,62.27333333333333,12.509947916666668,62.0644825967316
1361698207.25,6.414624125,33.81,62.27250000042667,11.903203125,62.0644825967316
1361698207.5,6.380933,33.81,62.27166666666667,11.430286458333335,62.0644825967316
1361698207.75,6.347241875000001,33.81,62.27083333290667,12.089661458333332,62.0644825967316
1361698208.0,6.322199208333333,33.81,62.27,12.191666666666668,62.0644825967316
1361698208.25,6.303776374999999,33.81,62.27,11.522187500000001,62.0644825967316
1361698208.5,6.290264999999999,33.81,62.27,11.644999999999998,62.0644825967316
1361698208.75,6.280573083333333,33.81,62.27,12.130416666666669,62.0644825967316
1361698209.0,6.273739708333334,33.81,62.27,11.55640625,62.0644825967316
1361698209.25,6.2694154583333335,33.81,62.27,10.804218750000002,62.0644825967316
1361698209.5,6.266959708333332,33.81,62.27,10.987890625,62.0644825967316
1361698209.75,6.2664258749999995,33.81,62.27,11.148463541666667,62.0644825967316
1361698210.0,6.266692833333333,33.81,62.27,10.461380208333333,62.0644825967316
1361698210.25,6.266959791666667,33.81,62.268333334186664,9.894947916666666,62.0644825967316
1361698210.5,6.26722675,33.81,62.266666666666666,10.144401041666667,62.0644825967316
1361698210.75,6.267493708333333,33.81,62.26499999914667,10.173333333333334,62.0644825967316
1361698211.0,6.267760666666668,33.81,62.26333333333333,9.538020833333333,62.0644825967316
1361698211.25,6.269308875,33.81,62.260000001706665,9.182395833333334,62.0644825967316
1361698211.5,6.272725583333333,33.81,62.25666666666666,9.407083333333333,62.0644825967316
1361698211.75,6.276943083333333,33.81,62.25333333162666,9.383463541666666,62.0644825967316
1361698212.0,6.281694416666666,33.81,62.25,8.870885416666667,62.0644825967316
1361698212.25,6.286605916666666,33.81,62.24666666837333,8.821276041666666,62.0644825967316
1361698212.5,6.291784333333333,33.81,62.243333333333325,9.259036458333334,62.0644825967316
1361698212.75,6.296695791666667,33.810833333333335,62.23999999829333,9.26046875,62.0644825967316
1361698213.0,6.303262208333334,33.8125,62.23666666666666,8.890520833333333,62.0644825967316
1361698213.25,6.314046083333333,33.814166666666665,62.23666666666666,9.066197916666667,62.0644825967316
1361698213.5,6.326645041666667,33.81583333333333,62.23666666666666,9.538411458333334,62.0644825967316
1361698213.75,6.339244,33.8175,62.23666666666666,9.484192708333333,62.0644825967316
1361698214.0,6.351842958333333,33.81916666666667,62.23666666666666,9.449895833333334,62.0644825967316
1361698214.25,6.3631606666666665,33.82083333333333,62.23999999829333,9.879557291666666,62.0644825967316
1361698214.5,6.373036958333333,33.8225,62.243333333333325,10.182057291666668,62.0644825967316
1361698214.75,6.382112458333334,33.82416666666666,62.24666666837333,10.074921875,62.0644825967316
1361698215.0,6.38873225,33.82583333333333,62.25,10.289348958333333,62.0644825967316
1361698215.25,6.393163250000001,33.82749999999999,62.25416666453334,10.860312500000001,62.0644825967316
1361698215.5,6.395992666666667,33.82916666666666,62.25833333333334,10.988072916666667,62.0644825967316
1361698215.75,6.397380666666667,33.83,62.262500002133336,10.832786458333333,62.0644825967316
1361698216.0,6.395779083333333,33.83,62.26666666666667,11.094661458333334,62.0644825967316
1361698216.25,6.389266041666667,33.83,62.27083333120001,11.56671875,62.0644825967316
1361698216.5,6.380350666666666,33.83,62.275000000000006,11.54484375,62.0644825967316
1361698216.75,6.370687916666667,33.83,62.2791666688,11.373151041666667,62.0644825967316
1361698217.0,6.360491333333333,33.83,62.28333333333334,11.4746875,62.0644825967316
1361698217.25,6.349974416666666,33.83,62.285833332053336,11.700989583333333,62.0644825967316
1361698217.5,6.339457500000001,33.83,62.288333333333334,11.65515625,62.0644825967316
1361698217.75,6.328940583333334,33.83,62.29083333461333,11.546588541666665,62.0644825967316
1361698218.0,6.320345541666666,33.83,62.29333333333333,11.639505208333334,62.0644825967316
1361698218.25,6.313779125,33.83,62.29666666496,11.630338541666665,62.0644825967316
1361698218.5,6.308547375,33.83,62.3,11.450078125,62.0644825967316
1361698218.75,6.3052375000000005,33.83,62.303333335039994,11.368020833333333,62.0644825967316
1361698219.0,6.304970583333334,33.83,62.306666666666665,11.448437499999999,62.0644825967316
1361698219.25,6.307212791666667,33.83,62.30916666538666,11.387578125,62.0644825967316
1361698219.5,6.311590416666667,33.83,62.31166666666667,11.223151041666666,62.0644825967316
1361698219.75,6.319171125,33.829166666666666,62.314166667946665,11.162473958333335,62.0644825967316
1361698220.0,6.332090375,33.8275,62.31666666666666,11.23796875,62.0644825967316
1361698220.25,6.351629458333334,33.825833333333335,62.31916666538666,11.2271875,62.0644825967316
1361698220.5,6.374371666666666,33.82416666666667,62.32166666666666,11.110208333333334,62.0644825967316
1361698220.75,6.397113875,33.8225,62.32416666794666,11.06109375,62.0644825967316
1361698221.0,6.419856083333333,33.82083333333333,62.32666666666666,11.100729166666666,62.0644825967316
1361698221.25,6.442598291666667,33.81916666666667,62.32749999957333,11.197526041666668,62.0644825967316
1361698221.5,6.4653405,33.8175,62.32833333333333,11.185703124999998,62.0644825967316
1361698221.75,6.487335333333333,33.81666666666667,62.32916666709333,11.082786458333333,62.0644825967316
1361698222.0,6.506127041666666,33.81666666666667,62.33,11.189114583333334,62.0644825967316
1361698222.25,6.520701291666668,33.81666666666667,62.33,11.498802083333333,62.0644825967316
1361698222.5,6.5316453333333335,33.81666666666667,62.33,11.558515625,62.0644825967316
1361698222.75,6.538478708333333,33.8175,62.33,11.358854166666667,62.0644825967316
1361698223.0,6.539065958333333,33.81916666666667,62.33,11.576067708333333,62.0644825967316
1361698223.25,6.532232625,33.82083333333333,62.33,11.9240625,62.0644825967316
1361698223.5,6.521448791666668,33.8225,62.33,11.924322916666666,62.0644825967316
1361698223.75,6.509704,33.82416666666666,62.33,11.75390625,62.0644825967316
1361698224.0,6.497265166666668,33.82583333333333,62.33,12.13859375,62.0644825967316
1361698224.25,6.484399249999999,33.82749999999999,62.33,12.536927083333333,62.0644825967316
1361698224.5,6.471106250000001,33.82916666666666,62.33,12.461744791666668,62.0644825967316
1361698224.75,6.457492958333334,33.83,62.33,12.531614583333335,62.0644825967316
1361698225.0,6.444840625,33.83,62.33,13.081640625,62.0644825967316
1361698225.25,6.434323666666667,33.83,62.33166666581333,13.244192708333335,62.0644825967316
1361698225.5,6.425835333333333,33.83,62.33333333333333,12.996223958333333,62.0644825967316
1361698225.75,6.418735041666667,33.83,62.335000000853334,13.304218749999999,62.0644825967316
1361698226.0,6.412755874999999,33.83,62.336666666666666,13.874583333333334,62.0644825967316
1361698226.25,6.407630875,33.83,62.33999999829333,13.668203125,62.0644825967316
1361698226.5,6.402879541666667,33.83,62.343333333333334,13.162187500000002,62.0644825967316
1361698226.75,6.398822249999999,33.829166666666666,62.34666666837333,13.701666666666668,62.0644825967316
1361698227.0,6.3951387083333335,33.8275,62.349999999999994,14.051927083333334,62.0644825967316
1361698227.25,6.391508541666667,33.825833333333335,62.35416666453333,13.298437499999999,62.0644825967316
1361698227.5,6.388091875000001,33.82416666666667,62.358333333333334,12.967395833333335,62.0644825967316
1361698227.75,6.384835333333332,33.8225,62.36250000213334,13.716302083333334,62.0644825967316
1361698228.0,6.381899083333334,33.82083333333333,62.366666666666674,13.469531249999998,62.0644825967316
1361698228.25,6.379229791666667,33.81916666666667,62.37333332992001,12.454244791666667,62.0644825967316
1361698228.5,6.376613916666667,33.8175,62.38000000000001,12.547942708333332,62.0644825967316
1361698228.75,6.374264958333334,33.81583333333334,62.386666670080004,13.016067708333333,62.0644825967316
1361698229.0,6.372236291666667,33.81416666666667,62.39333333333334,12.146744791666665,62.0644825967316
1361698229.25,6.370474541666667,33.81250000000001,62.40249999530667,11.4321875,62.0644825967316
1361698229.5,6.3691932499999995,33.81083333333334,62.41166666666667,12.189583333333331,62.0644825967316
1361698229.75,6.368339041666666,33.81,62.42083333802667,12.076848958333331,62.0644825967316
1361698230.0,6.3679119166666664,33.81,62.43,10.816796875,62.0644825967316
1361698230.25,6.3678585000000005,33.81,62.444166659413334,10.895546875,62.0644825967316
1361698230.5,6.368018666666667,33.81,62.45833333333333,11.667343749999999,62.0644825967316
1361698230.75,6.368445791666667,33.81,62.47250000725332,10.828984374999997,62.0644825967316
1361698231.0,6.369033083333334,33.81,62.48666666666666,9.904453125,62.0644825967316
1361698231.25,6.369620374999999,33.81,62.50249999189332,10.64421875,62.0644825967316
1361698231.5,6.370261041666667,33.81,62.518333333333324,11.017473958333333,62.0644825967316
1361698231.75,6.371008458333333,33.810833333333335,62.534166674773324,10.106901041666665,62.0644825967316
1361698232.0,6.371755875000001,33.8125,62.54999999999999,10.090703125,62.0644825967316
1361698232.25,6.373677791666666,33.814166666666665,62.56666665813333,11.027473958333333,62.0644825967316
1361698232.5,6.3772546666666665,33.81583333333333,62.58333333333333,10.676015625,62.0644825967316
1361698232.75,6.381311958333334,33.8175,62.60000000853333,10.06046875,62.0644825967316
1361698233.0,6.385262458333334,33.81916666666667,62.61666666666667,10.748072916666667,62.0644825967316
1361698233.25,6.389212958333332,33.82083333333333,62.6333333248,11.231432291666666,62.0644825967316
1361698233.5,6.393163458333333,33.8225,62.650000000000006,10.609583333333331,62.0644825967316
1361698233.75,6.3970071666666675,33.82458333333333,62.666666675200005,10.460286458333334,62.0644825967316
1361698234.0,6.400744083333334,33.82708333333333,62.68333333333334,11.170989583333332,62.0644825967316
1361698234.25,6.404267458333334,33.82958333333333,62.69999999146667,11.103515625,62.0644825967316
1361698234.5,6.407203625,33.83208333333333,62.71666666666667,10.548854166666667,62.0644825967316
1361698234.75,6.410033041666668,33.833333333333336,62.73333334186667,10.708125,62.0644825967316
1361698235.0,6.412862458333334,33.833333333333336,62.75,10.877317708333331,62.0644825967316
1361698235.25,6.414517375,33.833333333333336,62.76666665813333,10.370390625,62.0644825967316
1361698235.5,6.414410583333333,33.833333333333336,62.78333333333333,10.089322916666667,62.0644825967316
1361698235.75,6.413663208333333,33.833333333333336,62.80000000853333,10.356979166666667,62.0644825967316
1361698236.0,6.413876791666667,33.833333333333336,62.81666666666666,10.32984375,62.0644825967316
1361698236.25,6.4166528750000005,33.833333333333336,62.833333324799995,9.9428125,62.0644825967316
1361698236.5,6.421404250000001,33.833333333333336,62.849999999999994,9.901588541666667,62.0644825967316
1361698236.75,6.4263691666666665,33.83291666666667,62.8666666752,10.154244791666667,62.0644825967316
1361698237.0,6.431334083333334,33.83208333333334,62.88333333333333,10.19390625,62.0644825967316
1361698237.25,6.437206541666666,33.83125,62.89999999146667,10.025963541666668,62.0644825967316
1361698237.5,6.4439865,33.83041666666667,62.91666666666667,10.0409375,62.0644825967316
1361698237.75,6.451246916666666,33.83,62.93333334186667,10.364192708333333,62.0644825967316
1361698238.0,6.458881041666667,33.83,62.95000000000001,10.786197916666667,62.0644825967316
1361698238.25,6.466568583333334,33.83,62.96666665813334,10.901250000000003,62.0644825967316
1361698238.5,6.475270458333334,33.83,62.98333333333334,11.02703125,62.0644825967316
1361698238.75,6.493955416666666,33.83,63.00000000853334,11.491067708333334,62.0644825967316
1361698239.0,6.53436825,33.83,63.01666666666667,11.835625,62.0644825967316
1361698239.25,6.601876708333333,33.83,63.03166665898667,11.648828125000001,62.0644825967316
1361698239.5,6.678338499999999,33.83,63.046666666666674,11.505442708333332,62.0644825967316
1361698239.75,6.7545867500000005,33.83,63.061666674346675,11.948697916666667,62.0644825967316
1361698240.0,6.830835,33.83,63.076666666666675,12.214505208333334,62.0644825967316
1361698240.25,6.90638925,33.83,63.089999993173336,11.999921875,62.0644825967316
1361698240.5,6.981569833333334,33.83,63.10333333333334,12.016432291666668,62.0644825967316
1361698240.75,7.056269958333332,33.83,63.116666673493334,12.426640625,62.0644825967316
1361698241.0,7.1190739166666654,33.83,63.129999999999995,12.375130208333331,62.0644825967316
1361698241.25,7.170613458333334,33.83,63.14166666069333,11.986484374999998,62.0644825967316
1361698241.5,7.213451125,33.83,63.153333333333336,12.180390625000001,62.0644825967316
1361698241.75,7.240113,33.830416666666665,63.16500000597333,12.409453124999999,62.0644825967316
1361698242.0,7.239379291666666,33.83125,63.17666666666667,12.04484375,62.0644825967316
1361698242.25,7.206255958333333,33.83208333333334,63.18666666154667,11.962734374999998,62.0644825967316
1361698242.5,7.159748250000001,33.83291666666666,63.19666666666667,12.760468750000001,62.0644825967316
1361698242.75,7.110784791666667,33.833333333333336,63.20666667178667,12.996250000000002,62.0644825967316
1361698243.0,7.059952833333333,33.833333333333336,63.21666666666667,12.526171875000001,62.0644825967316
1361698243.25,7.007199,33.833333333333336,63.224999995733334,12.571848958333334,62.0644825967316
1361698243.5,6.952149583333333,33.833333333333336,63.233333333333334,13.341953124999998,62.0644825967316
1361698243.75,6.895285041666667,33.833333333333336,63.241666670933334,13.303020833333333,62.0644825967316
1361698244.0,6.848341375,33.833333333333336,63.25,12.640052083333336,62.0644825967316
1361698244.25,6.811754541666667,33.833333333333336,63.258333329066666,13.014166666666668,62.0644825967316
1361698244.5,6.7820545,33.833333333333336,63.266666666666666,13.614036458333333,62.0644825967316
1361698244.75,6.757052375000001,33.83291666666667,63.275000004266666,13.263359375,62.0644825967316
1361698245.0,6.736276541666666,33.83208333333334,63.28333333333333,12.800234375,62.0644825967316
1361698245.25,6.718232208333333,33.83125,63.29333332821333,13.528619791666666,62.0644825967316
1361698245.5,6.702643625,33.83041666666667,63.30333333333333,13.404869791666668,62.0644825967316
1361698245.75,6.689510791666667,33.83,63.31333333845333,12.275989583333333,62.0644825967316
1361698246.0,6.678246458333334,33.83,63.32333333333333,11.737109375000001,62.0644825967316
1361698246.25,6.668904,33.83,63.33499999402667,12.094296875,62.0644825967316
1361698246.5,6.665700875,33.83,63.346666666666664,11.466953125000002,62.0644825967316
1361698246.75,6.6693845000000005,33.830416666666665,63.35833333930666,10.489062500000001,62.06611487849344
1361698247.0,6.676538208333334,33.83125,63.37,10.493697916666667,62.07754085082623
1361698247.25,6.686788249999999,33.83208333333334,63.383333326506666,10.461328125,62.09712823196818
1361698247.5,6.7038716250000006,33.83291666666666,63.39666666666666,9.509609375,62.123244740157446
1361698247.75,6.732219333333333,33.833333333333336,63.41000000682666,8.651041666666666,62.14936124834671
1361698248.0,6.768735041666666,33.833333333333336,63.423333333333325,8.886119791666667,62.17547775653597
1361698248.25,6.80525075,33.833333333333336,63.43666665983999,8.432005208333333,62.20159426472524
1361698248.5,6.841766458333333,33.833333333333336,63.449999999999996,7.852994791666667,62.2277107729145
1361698248.75,6.878282166666666,33.833333333333336,63.46333334016,8.142604166666667,62.25382728110376
1361698249.0,6.9147978750000005,33.833333333333336,63.47666666666667,8.806223958333334,62.279943789293036
1361698249.25,6.9513135833333335,33.833333333333336,63.489999993173335,8.672630208333333,62.3060602974823
1361698249.5,6.9835585,33.833333333333336,63.50333333333333,8.527682291666666,62.33217680567156
1361698249.75,7.005446583333334,33.83291666666667,63.51666667349333,8.962890625,62.351764186813504
1361698250.0,7.022423166666666,33.83208333333334,63.53,9.499296875,62.34033821448071
1361698250.25,7.037157583333333,33.83125,63.5424999936,9.798880208333333,62.320750833338764
1361698250.5,7.045859416666667,33.83041666666667,63.55500000000001,10.138489583333333,62.294634325149495
1361698250.75,7.0447917083333325,33.83,63.5675000064,11.189635416666667,62.268517816960234
1361698251.0,7.036036458333334,33.83,63.580000000000005,12.213567708333334,62.24240130877097
1361698251.25,7.027281208333334,33.83,63.591666660693335,12.713072916666667,62.2162848005817
1361698251.5,7.020287708333332,33.83,63.60333333333334,13.075651041666667,62.190168292392435
1361698251.75,7.013294208333334,33.83,63.615000005973336,14.008151041666666,62.164051784203174
1361698252.0,7.006300708333334,33.83,63.626666666666665,14.86828125,62.137935276013906
1361698252.25,6.999307208333334,33.83,63.63666666154666,15.036875,62.111818767824644
1361698252.5,6.99274075,33.83,63.64666666666666,15.193619791666668,62.08570225963538
1361698252.75,6.9914595,33.83,63.65666667178667,16.015234375000002,62.0644825967316
1361698253.0,6.99322125,33.83,63.666666666666664,16.563229166666666,62.0644825967316
1361698253.25,6.99113925,33.83,63.674166662826664,16.201822916666668,62.0644825967316
1361698253.5,6.985160124999999,33.83,63.681666666666665,16.095963541666666,62.0644825967316
1361698253.75,6.976031250000001,33.830416666666665,63.689166670506665,16.341874999999998,62.0644825967316
1361698254.0,6.9645,33.83125,63.696666666666665,15.984453125,62.0644825967316
1361698254.25,6.950940083333332,33.83208333333334,63.70166666410667,15.361171874999998,62.0644825967316
1361698254.5,6.93407025,33.83291666666666,63.70666666666666,15.162291666666667,62.0644825967316
1361698254.75,6.915705625,33.83375,63.71166666922666,14.724583333333335,62.0644825967316
1361698255.0,6.896059749999999,33.834583333333335,63.71666666666666,13.810833333333335,62.0644825967316
1361698255.25,6.8756130833333335,33.83541666666667,63.7208333312,13.098020833333331,62.0644825967316
1361698255.5,6.854525791666667,33.83625,63.724999999999994,12.900442708333332,62.0644825967316
1361698255.75,6.832691083333333,33.83708333333333,63.72916666879999,12.266328125000001,62.0644825967316
1361698256.0,6.810589416666667,33.837916666666665,63.73333333333333,11.342395833333335,62.0644825967316
1361698256.25,6.792278125,33.838750000000005,63.73583333205333,10.930911458333334,62.0644825967316
1361698256.5,6.777757208333334,33.83958333333333,63.73833333333333,10.866458333333334,62.0644825967316
1361698256.75,6.766279249999999,33.84,63.740833334613335,10.323776041666667,62.0644825967316
1361698257.0,6.756402875,33.84,63.74333333333334,9.561510416666666,62.0644825967316
1361698257.25,6.74690025,33.84,63.74499999914667,9.171666666666667,62.0644825967316
1361698257.5,6.7379848749999995,33.84,63.74666666666667,8.985364583333334,62.0644825967316
1361698257.75,6.730404125,33.84,63.74833333418667,8.397239583333333,62.09069348875635
1361698258.0,6.723784291666667,33.84,63.75,7.991848958333333,62.13148466337318
1361698258.25,6.717431375,33.84,63.74833333418667,8.062109375,62.17227583799002
1361698258.5,6.710597958333334,33.84,63.74666666666667,8.077812499999999,62.213067012606864
1361698258.75,6.703390875,33.84,63.744999999146664,7.814791666666667,62.25385818722369
1361698259.0,6.69645075,33.84,63.74333333333333,7.614348958333333,62.294649361840534
1361698259.25,6.689564,33.84,63.74083333461333,7.6967968749999995,62.33544053645738
1361698259.5,6.682784000000001,33.84,63.73833333333333,7.739921874999999,62.376231711074205
1361698259.75,6.676110791666666,33.84125,63.73583333205333,7.578151041666666,62.41702288569104
1361698260.0,6.670238375,33.84375000000001,63.73333333333333,7.499192708333333,62.45781406030789
1361698260.25,6.670932375,33.846250000000005,63.7291666688,7.735260416666667,62.49860523492472
1361698260.5,6.691912875,33.84875,63.724999999999994,8.029244791666667,62.53939640954155
1361698260.75,6.745618750000001,33.85125,63.7208333312,8.441588541666667,62.55397669213365
1361698261.0,6.826277875,33.85375,63.71666666666667,8.747708333333334,62.55397669213365
1361698261.25,6.908852416666666,33.856249999999996,63.71250000213334,9.344661458333333,62.55397669213365
1361698261.5,6.992548083333332,33.85875,63.70833333333334,10.159453125,62.55397669213365
1361698261.75,7.088949458333334,33.86125,63.70416666453334,10.329427083333334,62.55397669213365
1361698262.0,7.192893499999999,33.86375,63.70000000000001,10.277265625,62.55397669213365
1361698262.25,7.300467791666667,33.86625,63.69583333546667,10.818046875,62.5259830163122
1361698262.5,7.415447374999999,33.86875,63.69166666666668,11.332447916666666,62.485191841695375
1361698262.75,7.5383280416666665,33.87,63.687499997866674,11.085130208333334,62.44440066707853
1361698263.0,7.66281025,33.87,63.68333333333334,10.835260416666669,62.40360949246169
1361698263.25,7.787239083333334,33.87,63.6791666688,11.322213541666668,62.36281831784486
1361698263.5,7.8920342916666675,33.87,63.675,11.604322916666666,62.32202714322802
1361698263.75,7.964264291666666,33.87,63.6708333312,11.049765625,62.28123596861118
1361698264.0,8.009861375000002,33.87,63.666666666666664,10.665520833333334,62.24044479399435
1361698264.25,8.054076916666668,33.87,63.66250000213333,10.814765625,62.19965361937751
1361698264.5,8.098292458333335,33.87,63.65833333333333,10.267291666666667,62.158862444760665
1361698264.75,8.130923375,33.87,63.654166664533335,9.907838541666667,62.11807127014382
1361698265.0,8.136805041666667,33.87,63.65,10.519010416666667,62.077280095526994
1361698265.25,8.119932125,33.87,63.64666666837333,10.799661458333333,62.0644825967316
1361698265.5,8.0814945,33.87,63.64333333333333,10.457786458333333,62.0644825967316
1361698265.75,8.024318541666668,33.87,63.639999998293334,10.906041666666667,62.0644825967316
1361698266.0,7.957388375000001,33.87,63.63666666666666,12.279166666666667,62.0644825967316
1361698266.25,7.881291166666667,33.87,63.634166667946666,12.680598958333333,62.0644825967316
1361698266.5,7.803847041666668,33.87,63.63166666666666,12.421171875,62.06880018517847
1361698266.75,7.726402916666667,33.87,63.62916666538666,13.360989583333334,62.08157915186754
1361698267.0,7.648958791666666,33.87,63.626666666666665,14.4046875,62.09264442809646
1361698267.25,7.571514666666666,33.87,63.62583333376,14.182890624999999,62.10199212355064
1361698267.5,7.494070541666667,33.87,63.625,13.879999999999997,62.11526584071763
1361698267.75,7.418281375,33.87,63.62416666624,14.763619791666665,62.1299645950055
1361698268.0,7.365916250000001,33.87,63.623333333333335,15.079895833333332,62.16066626808094
1361698268.25,7.340950208333333,33.87,63.62250000042667,14.554609375,62.194125280600446
1361698268.5,7.332012124999999,33.87,63.62166666666667,14.84765625,62.227584293119946
1361698268.75,7.333911291666666,33.87,63.62083333290666,15.355520833333332,62.258285966195395
1361698269.0,7.343963124999999,33.87,63.62,14.394869791666666,62.269686263162434
1361698269.25,7.358323875,33.87,63.62083333290666,12.997760416666667,62.28108656012946
1361698269.5,7.374339583333332,33.87,63.62166666666667,13.347786458333331,62.28816926864962
1361698269.75,7.390355291666666,33.87,63.62250000042667,13.164531250000001,62.28679059892758
1361698270.0,7.398576708333334,33.87,63.623333333333335,12.167890625,62.28712561966568
1361698270.25,7.399163958333333,33.87,63.62833333077334,12.380416666666667,62.28917822117853
1361698270.5,7.394412625,33.87,63.63333333333334,13.439036458333334,62.28730480097857
1361698270.75,7.384749833333333,33.87,63.638333335893336,13.237578125,62.28400634365773
1361698271.0,7.368734166666666,33.87,63.64333333333334,12.43359375,62.264704967549314
1361698271.25,7.341988,33.87,63.65249999530667,13.034166666666666,62.24264625199684
1361698271.5,7.311344666666667,33.87,63.66166666666667,13.10546875,62.22058753644436
1361698271.75,7.279740375,33.87083333333333,63.67083333802667,12.190989583333334,62.20128616033595
1361698272.0,7.247602208333333,33.872499999999995,63.68,12.568098958333332,62.20128616033595
1361698272.25,7.214876791666666,33.87416666666667,63.6924999936,14.098437500000001,62.20128616033595
1361698272.5,7.181137041666667,33.87583333333333,63.705,14.097109375,62.20128616033595
1361698272.75,7.146222833333334,33.8775,63.717500006399995,13.520364583333333,62.20128616033595
1361698273.0,7.118515666666666,33.87916666666666,63.73,14.320052083333332,62.20128616033595
1361698273.25,7.097748625,33.880833333333335,63.7424999936,14.658515625,62.20128616033595
1361698273.5,7.081732958333333,33.8825,63.754999999999995,13.919192708333334,62.20128616033595
1361698273.75,7.068279791666666,33.884166666666665,63.7675000064,13.400052083333334,62.20128616033595
1361698274.0,7.0561078749999995,33.88583333333333,63.78,14.219973958333334,62.20128616033595
1361698274.25,7.046018041666667,33.8875,63.794166659413335,14.117682291666666,62.20128616033595
1361698274.5,7.037796666666668,33.88916666666667,63.80833333333334,13.459817708333333,62.20128616033595
1361698274.75,7.030002375,33.89083333333333,63.82250000725333,13.612890624999999,62.20128616033595
1361698275.0,7.0222615,33.8925,63.836666666666666,13.695338541666667,62.20128616033595
1361698275.25,7.014520625,33.89416666666666,63.85083332608,12.975885416666666,62.20128616033595
1361698275.5,7.006939916666667,33.895833333333336,63.865,12.178229166666668,62.20128616033595
1361698275.75,7.000159958333334,33.8975,63.879166673920004,12.447109375000002,62.20128616033595
1361698276.0,6.993967250000001,33.899166666666666,63.89333333333334,12.287942708333333,62.20128616033595
1361698276.25,6.988468583333333,33.90083333333333,63.90583332693333,11.295026041666667,62.20128616033595
1361698276.5,6.983557125,33.902499999999996,63.91833333333334,10.659166666666668,62.20128616033595
1361698276.75,6.979339666666667,33.90416666666666,63.93083333973333,10.831119791666666,62.20128616033595
1361698277.0,6.975976374999999,33.90583333333333,63.94333333333333,10.323098958333333,62.20128616033595
1361698277.25,6.973093541666667,33.90749999999999,63.953333328213326,9.408020833333333,62.20128616033595
1361698277.5,6.971278416666666,33.909166666666664,63.963333333333324,9.149166666666668,62.20128616033595
1361698277.75,6.973520624999999,33.91,63.97333333845333,9.464817708333333,62.20128616033595
1361698278.0,6.982062291666666,33.91,63.98333333333333,9.3353125,62.20128616033595
1361698278.25,6.996156041666666,33.91,63.99166666239999,8.90515625,62.20128616033595
1361698278.5,7.011904749999999,33.91,64.0,9.029166666666667,62.20128616033595
1361698278.75,7.028027166666667,33.909166666666664,64.00833333759999,9.319479166666666,62.20128616033595
1361698279.0,7.044149583333333,33.9075,64.01666666666667,8.966145833333334,62.20128616033595
1361698279.25,7.060272,33.905833333333334,64.02416666282667,8.827578125,62.20128616033595
1361698279.5,7.076394416666666,33.90416666666666,64.03166666666667,9.441354166666667,62.20128616033595
1361698279.75,7.092516833333334,33.902499999999996,64.03916667050666,9.796354166666665,62.20128616033595
1361698280.0,7.10677075,33.90083333333333,64.04666666666667,9.526901041666667,62.20128616033595
1361698280.25,7.119316333333334,33.899166666666666,64.05333332992,9.613489583333333,62.20128616033595
1361698280.5,7.130954374999999,33.8975,64.06,10.374218749999999,62.20128616033595
1361698280.75,7.1390689583333335,33.895833333333336,64.06666667008,10.55203125,62.20128616033595
1361698281.0,7.141364541666667,33.89416666666667,64.07333333333332,10.09421875,62.20128616033595
1361698281.25,7.138695291666667,33.892500000000005,64.07999999658665,10.219531250000001,62.20128616033595
1361698281.5,7.13522525,33.89083333333333,64.08666666666664,10.977135416666664,62.20128616033595
1361698281.75,7.132716166666666,33.89,64.09333333674665,11.044479166666667,62.20128616033595
1361698282.0,7.133783916666666,33.89,64.09999999999998,10.914895833333333,62.20128616033595
1361698282.25,7.137948041666667,33.89,64.10916666197332,11.50421875,62.20128616033595
1361698282.5,7.143713708333334,33.89,64.11833333333331,11.996458333333335,62.20128616033595
1361698282.75,7.150013208333334,33.89,64.12750000469332,11.605286458333332,62.20128616033595
1361698283.0,7.159996333333333,33.89,64.13666666666666,11.428489583333333,62.20128616033595
1361698283.25,7.178681291666667,33.89,64.14749999445333,12.147864583333332,62.20128616033595
1361698283.5,7.210499125000001,33.89,64.15833333333333,12.338776041666668,62.20128616033595
1361698283.75,7.251499291666666,33.89,64.16916667221334,11.773984375,62.20128616033595
1361698284.0,7.2924994583333325,33.89,64.18,11.821536458333334,62.20128616033595
1361698284.25,7.333499625000001,33.89,64.19166666069334,12.549739583333334,62.20128616033595
1361698284.5,7.374499791666666,33.89,64.20333333333335,12.364791666666667,62.20128616033595
1361698284.75,7.414539,33.89,64.21500000597334,11.630911458333332,62.20128616033595
1361698285.0,7.451001375000001,33.89,64.22666666666667,11.649583333333334,62.20128616033595
1361698285.25,7.482872541666666,33.89,64.23833332736001,11.883333333333333,62.20128616033595
1361698285.5,7.507696833333333,33.89,64.25,11.326171874999998,62.20128616033595
1361698285.75,7.527823250000001,33.89,64.26166667263999,11.031536458333335,62.20128616033595
1361698286.0,7.542717875,33.89,64.27333333333333,11.522864583333332,62.20128616033595
1361698286.25,7.54768275,33.89,64.28499999402666,11.458541666666667,62.20128616033595
1361698286.5,7.537646208333332,33.89,64.29666666666665,10.696770833333332,62.20128616033595
1361698286.75,7.51682575,33.89,64.30833333930666,10.477005208333333,62.20128616033595
1361698287.0,7.4949376249999995,33.89,64.32,10.922421874999998,62.20128616033595
1361698287.25,7.472355499999999,33.89,64.3324999936,10.663984375,62.20128616033595
1361698287.5,7.448705625,33.89,64.345,9.958307291666667,62.20128616033595
1361698287.75,7.4244685,33.89,64.3575000064,10.069010416666666,62.20128616033595
1361698288.0,7.399697541666666,33.89,64.37,10.7190625,62.20128616033595
1361698288.25,7.375780791666667,33.89,64.37916666197334,10.548932291666667,62.20128616033595
1361698288.5,7.357202583333333,33.89,64.38833333333335,10.199921875,62.20128616033595
1361698288.75,7.3425215,33.89083333333333,64.39750000469334,10.550338541666667,62.20128616033595
1361698289.0,7.330990166666667,33.8925,64.40666666666668,10.920677083333333,62.20128616033595
1361698289.25,7.32207475,33.89416666666666,64.41166666410668,10.573177083333334,62.20128616033595
1361698289.5,7.314760958333333,33.895833333333336,64.41666666666669,10.540208333333334,62.20128616033595
1361698289.75,7.308888583333334,33.8975,64.42166666922668,11.372369791666666,62.20128616033595
1361698290.0,7.3039237083333335,33.899166666666666,64.42666666666668,11.611276041666665,62.20128616033595
1361698290.25,7.299652833333334,33.90083333333333,64.42749999957334,11.120755208333334,62.20128616033595
1361698290.5,7.296396333333334,33.902499999999996,64.42833333333334,11.3125,62.20128616033595
1361698290.75,7.293673708333333,33.90416666666666,64.42916666709334,12.147682291666667,62.20128616033595
1361698291.0,7.291484916666666,33.90583333333333,64.43,11.898984375,62.20128616033595
1361698291.25,7.28993675,33.90749999999999,64.42916666709334,11.143203125,62.20128616033595
1361698291.5,7.288495375,33.909166666666664,64.42833333333334,11.441510416666668,62.20128616033595
1361698291.75,7.287320916666666,33.91,64.42749999957334,12.004921875,62.20128616033595
1361698292.0,7.286573499999999,33.91,64.42666666666668,11.473359375,62.20128616033595
1361698292.25,7.288175041666666,33.91,64.42416666794668,11.105364583333333,62.20128616033595
1361698292.5,7.299759708333333,33.91,64.42166666666668,11.528411458333336,62.20128616033595
1361698292.75,7.331791083333333,33.91,64.41916666538667,11.175807291666667,62.20128616033595
1361698293.0,7.386068916666666,33.91,64.41666666666667,10.153958333333334,62.20128616033595
1361698293.25,7.444175166666667,33.91,64.41250000213333,10.151328125,62.20128616033595
1361698293.5,7.502334791666667,33.91,64.40833333333333,10.513255208333334,62.20128616033595
1361698293.75,7.560547791666667,33.91,64.40416666453334,9.785651041666666,62.20128616033595
1361698294.0,7.618760791666666,33.91,64.39999999999999,8.945286458333333,62.20128616033595
1361698294.25,7.676973791666668,33.91,64.39583333546666,9.354244791666666,62.20128616033595
1361698294.5,7.735186791666667,33.91,64.39166666666665,9.489505208333332,62.20128616033595
1361698294.75,7.7884883333333335,33.91,64.38749999786666,8.493984375,62.20128616033595
1361698295.0,7.84162975,33.91,64.38333333333333,7.854322916666667,62.20128616033595
1361698295.25,7.89263575,33.91,64.3791666688,8.296432291666667,62.19969404166335
1361698295.5,7.933071375,33.91,64.375,8.195364583333333,62.18795805051585
1361698295.75,7.952953541666667,33.91,64.3708333312,7.668098958333334,62.18297042059279
1361698296.0,7.950055375000001,33.91,64.36666666666667,8.292083333333332,62.18154538347191
1361698296.25,7.943222,33.91,64.36416666794668,9.136041666666667,62.17437823609496
1361698296.5,7.9369225000000005,33.91,64.36166666666668,8.92328125,62.16716912694545
1361698296.75,7.930889958333334,33.91,64.35916666538667,8.833046874999999,62.16360653414326
1361698297.0,7.92587175,33.91,64.35666666666667,10.029739583333333,62.1608416153211
1361698297.25,7.921974625,33.91,64.35500000085334,10.836041666666667,62.1608416153211
1361698297.5,7.918985041666667,33.91,64.35333333333332,10.708177083333332,62.16025521524633
1361698297.75,7.9224550833333325,33.91,64.35166666581333,11.486536458333333,62.15715513461422
1361698298.0,7.929341791666666,33.91,64.35,13.289270833333333,62.157448183038866
1361698298.25,7.945837916666666,33.91,64.35166666581333,13.715625000000001,62.159710126682064
1361698298.5,7.974505958333334,33.91,64.35333333333332,13.256458333333335,62.17211594280014
1361698298.75,8.014545083333333,33.91,64.35500000085334,14.088619791666666,62.17777339769382
1361698299.0,8.074060958333334,33.91,64.35666666666667,14.932291666666666,62.1798682597853
1361698299.25,8.143017125,33.91,64.3608333312,14.474869791666665,62.18770523213285
1361698299.5,8.211439416666666,33.91,64.36500000000001,14.421796875,62.19558416625296
1361698299.75,8.27959475,33.91,64.3691666688,15.581484375,62.19981658402576
1361698300.0,8.350846458333333,33.91,64.37333333333333,15.716328125000002,62.20325132781852
1361698300.25,8.420977083333332,33.91,64.37999999658666,14.723880208333334,62.20392115278912
1361698300.5,8.490200166666666,33.91,64.38666666666666,14.7409375,62.205177377834495
1361698300.75,8.554511791666666,33.91,64.39333333674666,15.126354166666667,62.2089472834372
1361698301.0,8.61284425,33.91,64.39999999999999,14.280624999999999,62.20932405998316
1361698301.25,8.659378499999999,33.91,64.40916666197333,13.848177083333333,62.20932405998316
1361698301.5,8.692032499999998,33.91,64.41833333333332,15.083385416666665,62.20932405998316
1361698301.75,8.709258083333333,33.91,64.42750000469333,15.793203125,62.2092821959225
1361698302.0,8.707700958333332,33.91,64.43666666666667,15.034088541666664,62.2086123709519
1361698302.25,8.696810333333334,33.91,64.44749999445334,14.962708333333333,62.2079425459813
1361698302.5,8.685919708333333,33.91,64.45833333333334,16.136744791666665,62.207272721010696
1361698302.75,8.677986583333334,33.91,64.46916667221333,15.738072916666667,62.20660289604009
1361698303.0,8.662793,33.91,64.48,14.669635416666665,62.20593307106949
1361698303.25,8.643862375,33.91,64.49166666069334,15.309661458333332,62.20526324609889
1361698303.5,8.622977749999999,33.91,64.50333333333333,16.254921875,62.20459342112829
1361698303.75,8.605456416666668,33.910833333333336,64.51500000597332,15.636953124999998,62.20392359615769
1361698304.0,8.590497583333333,33.912499999999994,64.52666666666666,14.955208333333333,62.20325377118709
1361698304.25,8.577727541666667,33.91416666666667,64.53666666154666,15.220130208333332,62.20258394621649
1361698304.5,8.56752,33.91583333333333,64.54666666666665,14.571953125,62.20191412124589
1361698304.75,8.565373750000001,33.9175,64.55666667178666,12.97484375,62.20128616033595
1361698305.0,8.563227500000002,33.91916666666666,64.56666666666666,12.723984375,62.20128616033595
1361698305.25,8.56108125,33.920833333333334,64.57499999573334,12.883020833333333,62.20128616033595
1361698305.5,8.558935,33.9225,64.58333333333333,11.423880208333335,62.20128616033595
1361698305.75,8.55383125,33.92416666666667,64.59166667093332,10.327890625,62.20128616033595
1361698306.0,8.555806500000001,33.92583333333334,64.6,10.818828125000001,62.20128616033595
1361698306.25,8.563793083333335,33.9275,64.60833332906667,10.421562499999999,62.20128616033595
1361698306.5,8.573733666666667,33.92916666666667,64.61666666666666,8.827187499999999,62.20128616033595
1361698306.75,8.583674250000001,33.92916666666667,64.62500000426665,8.426796874999999,62.20128616033595
1361698307.0,8.593614833333335,33.9275,64.63333333333333,8.972890625,62.20128616033595
1361698307.25,8.603555416666667,33.92583333333334,64.63999999658667,8.286328125,62.20128616033595
1361698307.5,8.613496000000001,33.92416666666667,64.64666666666668,7.611380208333333,62.20128616033595
1361698307.75,8.607207333333333,33.9225,64.65333333674667,8.29703125,62.20128616033595
1361698308.0,8.595814916666667,33.92083333333333,64.66000000000001,8.216302083333334,62.20128616033595
1361698308.25,8.583995416666667,33.91916666666666,64.66749999616,7.328906249999999,62.20128616033595
1361698308.5,8.570841291666667,33.9175,64.67500000000001,7.662187500000001,62.20128616033595
1361698308.75,8.556373791666667,33.916666666666664,64.68250000384,8.575520833333334,62.20128616033595
1361698309.0,8.535467916666667,33.916666666666664,64.69,8.078203125,62.20128616033595
1361698309.25,8.509618458333334,33.916666666666664,64.69833332906667,7.720442708333334,62.20128616033595
1361698309.5,8.482968208333334,33.916666666666664,64.70666666666666,8.766692708333334,62.20128616033595
1361698309.75,8.454289291666667,33.9175,64.71500000426666,9.213541666666666,62.20128616033595
1361698310.0,8.425610375,33.91916666666667,64.72333333333333,8.573046875,62.20128616033595
1361698310.25,8.396931458333333,33.92083333333333,64.73499999402667,9.073802083333332,62.20128616033595
1361698310.5,8.363768166666667,33.9225,64.74666666666667,10.046848958333333,62.20128616033595
1361698310.75,8.338345791666667,33.924166666666665,64.75833333930666,9.690989583333334,62.20128616033595
1361698311.0,8.315411291666665,33.92583333333333,64.77,9.664427083333333,62.20128616033595
1361698311.25,8.291996291666667,33.9275,64.78333332650666,10.874817708333333,62.20128616033595
1361698311.5,8.269595583333333,33.92916666666667,64.79666666666665,11.153567708333334,62.20128616033595
1361698311.75,8.248401458333333,33.93,64.81000000682666,10.390572916666667,62.20128616033595
1361698312.0,8.229396166666666,33.93,64.82333333333332,10.718854166666667,62.20128616033595
1361698312.25,8.212419541666666,33.93,64.83999999146666,11.529947916666666,62.20128616033595
1361698312.5,8.1953895,33.93,64.85666666666665,10.974453125000002,62.20128616033595
1361698312.75,8.179854291666667,33.93,64.87333334186667,10.257317708333334,62.20128616033595
1361698313.0,8.163678458333333,33.93,64.89,10.701380208333333,62.20128616033595
1361698313.25,8.146488291666666,33.93,64.91083332266666,10.646197916666667,62.20128616033595
1361698313.5,8.132234333333333,33.93,64.93166666666667,9.740208333333333,62.20128616033595
1361698313.75,8.121183499999999,33.93,64.95250001066667,9.411875,62.20128616033595
1361698314.0,8.112107916666668,33.93,64.97333333333333,9.477994791666667,62.20128616033595
1361698314.25,8.102978958333333,33.93,64.99583332181334,8.680442708333333,62.20128616033595
1361698314.5,8.093156,33.93,65.01833333333333,7.829036458333333,62.20128616033595
1361698314.75,8.083333083333333,33.93,65.04083334485333,7.817421875,62.20128616033595
1361698315.0,8.073830458333333,33.93,65.06333333333333,7.694765625,62.20128616033595
1361698315.25,8.064968458333334,33.93,65.08499998890666,6.914739583333334,62.20128616033595
1361698315.5,8.056960666666667,33.93,65.10666666666665,6.443359375,62.20128616033595
1361698315.75,8.049486708333333,33.93,65.12833334442666,6.739557291666666,62.20128616033595
1361698316.0,8.042653375,33.93,65.14999999999999,6.755026041666667,62.20128616033595
1361698316.25,8.037421625,33.93,65.17083332266667,6.2909895833333325,62.20128616033595
1361698316.5,8.03480575,33.93,65.19166666666666,6.229947916666667,62.20128616033595
1361698316.75,8.034645583333335,33.93,65.21250001066666,6.750651041666667,62.20128616033595
1361698317.0,8.035126041666667,33.93,65.23333333333333,6.962395833333333,62.20128616033595
1361698317.25,8.036620833333332,33.93,65.25249999018666,6.881276041666666,62.20128616033595
1361698317.5,8.039610458333334,33.93,65.27166666666668,7.328385416666667,62.20128616033595
1361698317.75,8.043347458333335,33.93083333333333,65.29083334314667,8.114140625,62.20128616033595
1361698318.0,8.047511541666667,33.9325,65.31,8.376119791666666,62.20128616033595
1361698318.25,8.051942583333334,33.93416666666666,65.32833332394667,8.417838541666667,62.20128616033595
1361698318.5,8.056640541666667,33.935833333333335,65.34666666666666,9.23171875,62.20128616033595
1361698318.75,8.066943958333333,33.9375,65.36500000938666,10.002578125000001,62.20128616033595
1361698319.0,8.102658875,33.939166666666665,65.38333333333333,9.914557291666666,62.20128616033595
