timestamp,EDA,TEMP,HR,BVP,ACC_mag
1361721944.0,1.4203985833333335,32.63,,11.168333333333335,63.57475504302232
1361721944.25,1.425840357142857,32.63,,10.560714285714285,63.57391293705502
1361721944.5,1.430888875,32.63,,10.122265625,63.578439256629224
1361721944.75,1.4363870555555556,32.63111111111111,,10.103402777777779,63.58555839678373
1361721945.0,1.4430279000000001,32.633,,9.79384375,63.58712978752045
1361721945.25,1.4493349545454546,32.63454545454545,,9.179318181818182,63.60777085059879
1361721945.5,1.4551247500000002,32.63583333333333,,8.7034375,63.62374714044467
1361721945.75,1.4733414999999999,32.6375,,8.797682291666666,63.63700130938391
1361721946.0,1.4807708333333334,32.63916666666667,,8.878645833333334,63.648211629601576
1361721946.25,1.4879824583333334,32.64083333333334,,8.181380208333334,63.66497988306111
1361721946.5,1.494976375,32.642500000000005,,6.841875000000001,63.683463961054294
1361721946.75,1.5016007083333331,32.64458333333333,,5.870390625,63.70390739273188
1361721947.0,1.5074817083333334,32.647083333333335,,5.491640625,63.71895565147827
1361721947.25,1.5122949166666668,32.64958333333333,,5.402473958333334,63.739357084291434
1361721947.5,1.51603625,32.65208333333333,,5.302630208333333,63.75619655958269
1361721947.75,1.5180650416666666,32.654583333333335,,4.857526041666667,63.76699184605801
1361721948.0,1.517371,32.65708333333333,,4.683072916666666,63.78073340802274
1361721948.25,1.515075291666667,32.65958333333333,,4.902369791666667,63.77011272727111
1361721948.5,1.5119253333333331,32.662083333333335,,4.747109375,63.762392083237415
1361721948.75,1.5080279166666666,32.66458333333333,,4.0480729166666665,63.766723674740206
1361721949.0,1.5032762916666667,32.66708333333333,,3.434296875,63.77481270810093
1361721949.25,1.4982043333333335,32.669583333333335,,3.1487239583333335,63.77452695146179
1361721949.5,1.493132375,32.67208333333333,,2.857109375,63.77301659876989
1361721949.75,1.4880604166666664,32.67416666666667,,2.6875520833333333,63.76958772982223
1361721950.0,1.483362208333333,32.67583333333334,,2.2782812499999996,63.769097891401124
1361721950.25,1.4790911249999998,32.6775,,1.8033072916666668,63.76571102131788
1361721950.5,1.4752471249999999,32.67916666666667,,1.5675520833333332,63.762447509390064
1361721950.75,1.4730581666666664,32.68125,,1.203359375,63.76252918424726
1361721951.0,1.4733785,32.68375,,0.6825520833333333,63.76310118477081
1361721951.25,1.4759945416666664,32.68625,,-0.02656250000000002,63.77029299657476
1361721951.5,1.4794647916666666,32.68875,,-0.1826822916666667,63.775809367713514
1361721951.75,1.4830952083333333,32.691250000000004,,-0.16434895833333335,63.775238170001394
1361721952.0,1.4877934166666666,32.69375,,-0.246328125,63.7729533791529
1361721952.25,1.493185708333333,32.69625,,-0.15046875000000004,63.7729942165815
1361721952.5,1.4988449166666669,32.69875,,0.1790364583333333,63.773035054010094
1361721952.75,1.5047176666666668,32.70208333333333,,0.5797395833333333,63.773035054010094
1361721953.0,1.5108573750000003,32.706250000000004,,0.9265885416666667,63.773035054010094
1361721953.25,1.517103875,32.71041666666667,,0.9145052083333334,63.773035054010094
1361721953.5,1.5233503750000004,32.71458333333333,,0.680546875,63.773035054010094
1361721953.75,1.5290095833333333,32.719166666666666,,0.6435677083333333,63.773035054010094
1361721954.0,1.5339213333333335,32.72416666666667,63.04,0.7894010416666667,63.77123710105911
1361721954.25,1.539153458333333,32.729166666666664,63.41166647637333,1.5771614583333333,63.76629273044389
1361721954.5,1.5450796666666669,32.73416666666666,63.78333333333333,2.01234375,63.76224733630416
1361721954.75,1.5510058750000002,32.73916666666667,64.15500019029332,2.1812760416666666,63.75820194216444
1361721955.0,1.5567185,32.744166666666665,64.52666666666666,2.1978645833333332,63.7559545009757
1361721955.25,1.5620573750000002,32.74916666666667,65.42249954133332,1.9408593749999998,63.7559545009757
1361721955.5,1.5671293333333332,32.75416666666667,66.31833333333333,1.5588541666666667,63.7559545009757
1361721955.75,1.57198775,32.75833333333333,67.21416712533333,1.390104166666667,63.7559545009757
1361721956.0,1.5765258333333332,32.76166666666667,68.11,1.3122916666666666,63.7559545009757
1361721956.25,1.580476625,32.765,69.09916616021333,1.4761458333333335,63.7559545009757
1361721956.5,1.5839469166666664,32.76833333333334,70.08833333333334,1.2644791666666666,63.75595450097571
1361721956.75,1.5864562083333336,32.770833333333336,71.07750050645335,1.0250520833333334,63.7559545009757
1361721957.0,1.587524,32.7725,72.06666666666668,0.9571354166666667,63.757752453926685
1361721957.25,1.5866697500000002,32.774166666666666,73.38583265792,0.24359375000000005,63.76269682454191
1361721957.5,1.5845875416666668,32.77583333333333,74.705,-0.4091145833333332,63.766742218681635
1361721957.75,1.582505333333333,32.778333333333336,76.02416734207999,-0.4689583333333333,63.77078761282135
1361721958.0,1.580423125,32.78166666666667,77.34333333333332,-0.5911458333333333,63.773035054010094
1361721958.25,1.5783409166666666,32.785000000000004,78.63499933866666,-0.731328125,63.773035054010094
1361721958.5,1.5762587083333335,32.788333333333334,79.92666666666665,-0.9854427083333333,63.773035054010094
1361721958.75,1.575084125,32.79166666666667,81.21833399466665,-1.5477083333333335,63.773035054010094
1361721959.0,1.5760450833333335,32.795,82.50999999999999,-2.095078125,63.774663852522984
1361721959.25,1.5801559583333333,32.79833333333334,83.32666624853333,-2.1702864583333334,63.76967670957126
1361721959.5,1.5881108333333334,32.80166666666667,84.14333333333332,-1.4255989583333335,63.7624848977673
1361721959.75,1.6000699166666665,32.80416666666667,84.96000041813332,-0.5882812500000002,63.75529308596335
1361721960.0,1.6153925416666668,32.80583333333333,85.77666666666666,-0.42578125000000017,63.7481012741594
1361721960.25,1.6327439583333332,32.807500000000005,86.31416639146666,-0.5747656250000002,63.74090946235543
1361721960.5,1.651536875,32.80916666666667,86.85166666666666,-0.7261197916666667,63.73371765055148
1361721960.75,1.6716645,32.81,87.38916694186668,-1.2719270833333336,63.726525838747534
1361721961.0,1.6930200416666665,32.81,87.92666666666668,-1.428463541666667,63.71933402694358
1361721961.25,1.7146959166666667,32.81,88.35166644906667,-1.380338541666667,63.712142215139615
1361721961.5,1.7363717916666666,32.81,88.77666666666667,-1.1937500000000003,63.70495040333566
1361721961.75,1.7571400416666665,32.810833333333335,89.20166688426667,-1.7869531250000001,63.69775859153171
1361721962.0,1.775826125,32.8125,89.62666666666667,-3.6361458333333334,63.68893798121487
1361721962.25,1.7918427916666666,32.814166666666665,89.97499982165333,-5.980651041666667,63.686733312362634
1361721962.5,1.8044959583333335,32.81583333333333,90.32333333333332,-8.756197916666666,63.68710112072106
1361721962.75,1.8120237916666666,32.81791666666667,90.67166684501333,-11.178229166666666,63.69004328552706
1361721963.0,1.8142661249999998,32.82041666666667,91.02,-12.423723958333333,63.697153211751754
1361721963.25,1.8122373333333337,32.822916666666664,91.28833319594666,-13.128098958333334,63.703282466555244
1361721963.5,1.806791625,32.82541666666666,91.55666666666666,-13.151145833333333,63.71096390605823
1361721963.75,1.7988900416666667,32.829166666666666,91.82500013738665,-12.873671875,63.71750231900463
1361721964.0,1.7889597083333335,32.83416666666667,92.09333333333332,-12.916718750000001,63.72395904704958
1361721964.25,1.7782819166666668,32.839166666666664,92.32249988266666,-13.212239583333334,63.73078321663513
1361721964.5,1.7672837916666666,32.844166666666666,92.55166666666666,-13.381223958333335,63.73732162958152
1361721964.75,1.7553780833333334,32.848333333333336,92.78083345066666,-12.502005208333335,63.742307350494684
1361721965.0,1.7426715416666667,32.85166666666667,93.01,-9.855,63.74414639228681
1361721965.25,1.7295912500000001,32.855,93.22083322538667,-7.043854166666666,63.74414639228681
1361721965.5,1.7161372499999998,32.85833333333333,93.43166666666667,-4.648098958333334,63.74377858392838
1361721965.75,1.7038577916666666,32.86125,93.64250010794667,-3.000755208333333,63.74083641912238
1361721966.0,1.6937138750000003,32.86375,93.85333333333334,-2.0598177083333336,63.73413514370683
1361721966.25,1.6848513333333333,32.86625,94.01999991466667,-1.038046875,63.7333183494223
1361721966.5,1.6769498333333333,32.86875,94.18666666666667,-0.3537760416666667,63.730132068819955
1361721966.75,1.6691550833333333,32.87083333333333,94.35333341866667,-0.1128645833333334,63.72563690991931
1361721967.0,1.6608264583333332,32.872499999999995,94.52,0.6576562499999999,63.71958883268351
1361721967.25,1.6523377083333333,32.87416666666666,94.64749993471999,1.6830468749999998,63.715216567952865
1361721967.5,1.6440091250000002,32.87583333333333,94.77499999999999,2.6899218749999996,63.71276466309797
1361721967.75,1.6365347083333333,32.8775,94.90250006528,2.906145833333333,63.70982219623056
1361721968.0,1.6297009583333333,32.87916666666666,95.02999999999999,2.3990364583333332,63.71084371010249
1361721968.25,1.6228138749999996,32.880833333333335,95.11749995519999,1.6781770833333336,63.714930218193985
1361721968.5,1.6154996666666668,32.8825,95.20499999999998,1.6095572916666665,63.71533886900314
1361721968.75,1.6080786666666667,32.884166666666665,95.2925000448,1.8428385416666666,63.71533886900314
1361721969.0,1.6009779999999998,32.88583333333333,95.38,2.1117708333333334,63.72488902483419
1361721969.25,1.5949450833333332,32.887499999999996,95.47249995263999,2.275130208333333,63.7223512987831
1361721969.5,1.5899265416666666,32.88916666666666,95.565,2.152083333333333,63.72055306930894
1361721969.75,1.5859224166666668,32.891666666666666,95.65750004736,2.145286458333333,63.7252521388294
1361721970.0,1.583253,32.895,95.75,1.5239322916666669,63.7320352998242
1361721970.25,1.5813310000000003,32.89833333333333,95.8499999488,0.602421875,63.73677520677325
1361721970.5,1.5807437083333333,32.901666666666664,95.94999999999999,-0.3722395833333334,63.74644566345901
1361721970.75,1.5825589166666667,32.905,96.05000005119999,-0.7586979166666666,63.76745503831157
1361721971.0,1.587363875,32.90833333333333,96.14999999999999,-0.9627343750000001,63.78548643583499
1361721971.25,1.5950517916666664,32.91166666666667,96.25333328042666,-0.9547395833333335,63.803431551804785
1361721971.5,1.605249,32.915,96.35666666666665,-1.220625,63.825790612175474
1361721971.75,1.617528375,32.91833333333333,96.46000005290666,-1.2056510416666668,63.84611272992604
1361721972.0,1.6299679166666667,32.92166666666667,96.56333333333333,-1.2852604166666668,63.843345735089805
1361721972.25,1.6428345833333335,32.925000000000004,96.709166592,-1.8317708333333336,63.84776281242589
1361721972.5,1.65570125,32.928333333333335,96.85499999999999,-2.5976822916666666,63.85135871832787
1361721972.75,1.6685679166666665,32.93,97.00083340799999,-3.0884375,63.84731332418815
1361721973.0,1.6814345833333333,32.93,97.14666666666666,-2.8703125000000003,63.84731332418814
1361721973.25,1.6941410833333332,32.93,97.31416658090666,-2.4437760416666667,63.84731332418814
1361721973.5,1.7054061250000003,32.93,97.48166666666667,-2.3750520833333333,63.84074817121484
1361721973.75,1.7141085,32.93,97.64916675242668,-2.2144270833333333,63.824887354120484
1361721974.0,1.7195541666666667,32.93,97.81666666666668,-1.8829947916666667,63.81212509173316
1361721974.25,1.7218499166666668,32.93,98.00166657194667,-1.6357291666666667,63.80760194843387
1361721974.5,1.7217431666666665,32.93,98.18666666666667,-1.6259635416666667,63.79671544403892
1361721974.75,1.719661041666667,32.93083333333333,98.37166676138668,-2.1708854166666662,63.78639877508086
1361721975.0,1.7167246666666667,32.9325,98.55666666666667,-2.812369791666667,63.78823381064466
1361721975.25,1.7123467499999998,32.93416666666666,98.71416658602666,-2.837135416666667,63.801772604016065
1361721975.5,1.707114625,32.93583333333333,98.87166666666667,-2.6186197916666667,63.81702608557344
1361721975.75,1.7009749166666668,32.93833333333333,99.02916674730668,-2.5619010416666668,63.83595691788992
1361721976.0,1.6938208333333333,32.94166666666667,99.18666666666667,-2.963046875,63.85031142297181
1361721976.25,1.6860794583333334,32.945,99.33416659114667,-3.1483072916666663,63.864665928053704
1361721976.5,1.678177875,32.94833333333333,99.48166666666665,-3.0347135416666666,63.87902043313557
1361721976.75,1.670009375,32.95166666666667,99.62916674218665,-3.1569791666666664,63.893374938217455
1361721977.0,1.662107833333333,32.955,99.77666666666666,-3.9450520833333336,63.90679156430315
1361721977.25,1.6547935833333334,32.958333333333336,99.92166659242666,-4.738984374999999,63.910829400426984
1361721977.5,1.648173375,32.961666666666666,100.06666666666666,-5.020677083333333,63.92049451052793
1361721977.75,1.641926875,32.964166666666664,100.21166674090667,-4.512369791666667,63.93203537862126
1361721978.0,1.6363744583333333,32.96583333333333,100.35666666666667,-3.6040885416666666,63.944554848139326
1361721978.25,1.6318364583333336,32.9675,100.50416659114667,-2.8797916666666663,63.945370559849806
1361721978.5,1.6281526666666668,32.969166666666666,100.65166666666667,-2.162265625,63.94235490591256
1361721978.75,1.626017125,32.97,100.79916674218666,-1.576484375,63.93269307017213
1361721979.0,1.6271382500000005,32.97,100.94666666666666,-1.4655989583333333,63.91756048985663
1361721979.25,1.6322635416666669,32.97,101.08916659370665,-1.7224739583333335,63.907731110814524
1361721979.5,1.6411260833333332,32.97,101.23166666666665,-1.3196614583333333,63.9051237890698
1361721979.75,1.65233775,32.97,101.37416673962666,-0.525625,63.90202750910429
1361721980.0,1.6644570416666664,32.97,101.51666666666665,0.8184635416666666,63.89860527028329
1361721980.25,1.6766830833333335,32.97,101.65249993045332,2.100390625,63.89493859724342
1361721980.5,1.6889091250000001,32.97,101.78833333333333,2.7695833333333333,63.8940832170401
1361721980.75,1.7011351666666668,32.97083333333333,101.92416673621334,2.771640625,63.893838822696296
1361721981.0,1.7133612083333334,32.972500000000004,102.06,2.7129427083333333,63.892983442492984
1361721981.25,1.72558725,32.97416666666667,102.18916660053334,3.0183072916666673,63.892983442492984
1361721981.5,1.7375997500000002,32.975833333333334,102.31833333333333,3.586223958333333,63.89599909643024
1361721981.75,1.748224125,32.9775,102.44750006613333,3.93984375,63.905579487313524
1361721982.0,1.75585875,32.979166666666664,102.57666666666667,4.614557291666666,63.92071206762902
1361721982.25,1.759542625,32.98083333333333,102.69749993813333,5.437682291666667,63.93054144667112
1361721982.5,1.7595960416666667,32.9825,102.81833333333333,5.400338541666667,63.9339630179407
1361721982.75,1.7568198333333334,32.98416666666667,102.93916672853334,4.9679947916666665,63.938280672193486
1361721983.0,1.7522283749999998,32.98583333333334,103.06,4.407682291666666,63.9449599091139
1361721983.25,1.7467292916666668,32.987500000000004,103.17499994111999,4.257838541666667,63.95188358025319
1361721983.5,1.7400022916666666,32.98916666666667,103.28999999999999,4.54984375,63.95599595855591
1361721983.75,1.7320473333333333,32.99041666666667,103.40500005887999,5.062005208333333,63.95949735099911
1361721984.0,1.7230779583333335,32.99125,103.51999999999998,5.082916666666667,63.96360972930183
1361721984.25,1.7135747083333335,32.99208333333333,103.62999994367999,4.62234375,63.966866727401246
1361721984.5,1.704231625,32.992916666666666,103.73999999999998,3.7811458333333334,63.96747741454488
1361721984.75,1.6956360000000001,32.993750000000006,103.85000005631998,3.4778125,63.96747741454488
1361721985.0,1.6877878333333334,32.99458333333334,103.96,3.4550520833333334,63.967477414544895
1361721985.25,1.6804735416666665,32.99541666666667,104.06833327786666,3.428020833333333,63.967477414544895
1361721985.5,1.6734795833333334,32.99625,104.17666666666666,3.514192708333333,63.96666316502004
1361721985.75,1.667446625,32.998333333333335,104.28500005546667,3.692005208333333,63.96544179073276
1361721986.0,1.66258825,33.001666666666665,104.39333333333333,4.145807291666666,63.962184792633344
1361721986.25,1.658904458333333,33.005,104.50083327829333,4.201822916666667,63.958927794533935
1361721986.5,1.6571426249999999,33.00833333333333,104.60833333333333,4.170651041666667,63.95567079643453
1361721986.75,1.658157,33.01,104.71583338837334,4.052239583333333,63.95241379833513
1361721987.0,1.663389125,33.01,104.82333333333334,4.274010416666667,63.94915680023572
1361721987.25,1.6737465833333334,33.01,104.92999994538667,4.434973958333333,63.9458998021363
1361721987.5,1.6885886666666667,33.01,105.03666666666666,4.787890625,63.94752830118602
1361721987.75,1.7064739166666667,33.01125,105.14333338794667,4.721302083333333,63.95078529928542
1361721988.0,1.7249998333333332,33.013749999999995,105.25,4.398645833333333,63.95404229738483
1361721988.25,1.7435257499999999,33.01625,105.35249994752,3.8027083333333334,63.95729929548423
1361721988.5,1.7620516666666666,33.01875,105.45500000000001,3.5789843750000006,63.96055629358364
1361721988.75,1.7805775833333335,33.02,105.55750005248001,3.2103645833333334,63.963813291683046
1361721989.0,1.7989967083333331,33.02,105.66000000000001,2.5634635416666667,63.96707028978246
1361721989.25,1.817148875,33.02,105.75416661845334,1.6814322916666666,63.97032728788187
1361721989.5,1.833699375,33.02,105.84833333333334,0.7936979166666666,63.973584285981275
1361721989.75,1.8476338749999996,33.02125,105.94250004821335,-0.13059895833333332,63.976027034555834
1361721990.0,1.857243875,33.02375,106.03666666666668,-1.2008854166666667,63.9786733455116
1361721990.25,1.8609810833333331,33.02625,106.12416662186668,-2.0253385416666667,63.9817267812298
1361721990.5,1.8581514999999997,33.028749999999995,106.21166666666667,-2.8509114583333335,63.982744593135855
1361721990.75,1.84987625,33.03,106.29916671146665,-3.3634635416666665,63.982541030754646
1361721991.0,1.8393586666666666,33.03,106.38666666666666,-3.509921875,63.98070896932373
1361721991.25,1.8273995833333334,33.03,106.46333329407999,-3.392291666666667,63.97826622074917
1361721991.5,1.8142125416666666,33.03,106.53999999999999,-3.7236197916666662,63.97500922264976
1361721991.75,1.8005983749999999,33.030833333333334,106.61666670592,-3.96484375,63.97146702801317
1361721992.0,1.7869842083333332,33.032500000000006,106.69333333333333,-4.116614583333333,63.9656432610791
1361721992.25,1.7733166666666669,33.034166666666664,106.76249996458667,-3.894088541666667,63.96124547683095
1361721992.5,1.7604499999999998,33.035833333333336,106.83166666666668,-3.7611979166666667,63.958841634471234
1361721992.75,1.7485442916666667,33.0375,106.90083336874667,-3.3249999999999997,63.95322096166933
1361721993.0,1.7377063333333334,33.03916666666667,106.97000000000001,-2.3951822916666665,63.94184720941616
1361721993.25,1.7281497083333333,33.04083333333333,107.03083330218668,-1.435546875,63.92916724162848
1361721993.5,1.7206752500000002,33.0425,107.09166666666667,-0.6466927083333335,63.92048849109838
1361721993.75,1.715336375,33.044999999999995,107.15250003114666,0.062005208333333194,63.91319759025876
1361721994.0,1.7113322083333333,33.04833333333333,107.21333333333332,0.46973958333333327,63.90818710617983
1361721994.25,1.7087161249999998,33.05166666666667,107.27166663679999,0.816328125,63.90097322765779
1361721994.5,1.707274625,33.055,107.33,1.3763802083333332,63.8839150128772
1361721994.75,1.7061535,33.0575,107.3883333632,1.9645572916666667,63.86003627077818
1361721995.0,1.7049255833333337,33.05916666666666,107.44666666666667,2.3265885416666667,63.85383483599713
1361721995.25,1.7036976250000002,33.06083333333333,107.50583330304,2.40671875,63.84265455660235
1361721995.5,1.7025764166666668,33.0625,107.565,2.758411458333333,63.82474318608206
1361721995.75,1.701562,33.064166666666665,107.62416669696,3.1530729166666664,63.80967860821954
1361721996.0,1.700601,33.06583333333333,107.68333333333334,3.226692708333333,63.804900696664156
1361721996.25,1.6996400000000003,33.0675,107.74416663552,3.090598958333334,63.7915475774067
1361721996.5,1.6987857916666667,33.06916666666667,107.805,3.082786458333334,63.772805391201196
1361721996.75,1.6984654583333334,33.07,107.86583336448001,3.0316145833333334,63.75287891768642
1361721997.0,1.6988391666666667,33.07,107.92666666666668,2.9718489583333336,63.73230052646065
1361721997.25,1.69953325,33.07,107.98833330176001,2.904921875,63.722945776099216
1361721997.5,1.7002807083333336,33.07,108.05000000000001,2.7205989583333334,63.74228069543356
1361721997.75,1.7011883333333333,33.07,108.11166669824,2.582708333333333,63.77213639545416
1361721998.0,1.7023095,33.07,108.17333333333333,2.628645833333333,63.78090459906988
1361721998.25,1.70364425,33.07,108.23249996970667,2.91734375,63.793225664613395
1361721998.5,1.7050324166666666,33.07,108.29166666666667,2.9417187499999997,63.80857270017088
1361721998.75,1.7064739583333335,33.07,108.35083336362668,2.354921875,63.82681520226075
1361721999.0,1.7080756666666665,33.07,108.41000000000001,1.4702604166666664,63.83917976896479
1361721999.25,1.7104782083333332,33.07,108.46583330474667,0.8084635416666667,63.85959265145706
1361721999.5,1.71357475,33.07,108.52166666666668,0.013880208333333283,63.881475017795786
1361721999.75,1.7167246666666667,33.07083333333333,108.57750002858667,-0.5739062500000001,63.905068563357624
1361722000.0,1.719874625,33.0725,108.63333333333333,-1.0315625000000002,63.925239750473246
1361722000.25,1.722757625,33.07416666666666,108.68416664063999,-1.44171875,63.936675419455774
1361722000.5,1.7256406249999998,33.075833333333335,108.73499999999999,-1.7645052083333335,63.929224135532415
1361722000.75,1.7284702083333334,33.0775,108.78583335936,-1.7589322916666668,63.918317032460116
1361722001.0,1.7311930416666668,33.07916666666667,108.83666666666666,-1.6963802083333335,63.91310169077221
1361722001.25,1.7337023333333335,33.08083333333333,108.88166664362666,-1.7026562500000002,63.9078863490843
1361722001.5,1.7357310833333335,33.0825,108.92666666666666,-1.7118750000000003,63.9043821866195
1361722001.75,1.7373861249999998,33.08416666666667,108.97166668970667,-1.0226041666666668,63.899166844931585
1361722002.0,1.7371725416666666,33.08583333333333,109.01666666666667,-0.04799479166666675,63.895092289392416
1361722002.25,1.7343962916666669,33.0875,109.05666664618667,0.5793489583333332,63.8925660034941
1361722002.5,1.729911625,33.08916666666667,109.09666666666666,1.311067708333333,63.889672996421986
1361722002.75,1.7241990416666668,33.09,109.13666668714666,1.5651822916666667,63.88506881012675
1361722003.0,1.7175788333333335,33.09,109.17666666666666,1.5049739583333335,63.884253843142524
1361722003.25,1.710958625,33.09,109.21333331456,1.487421875,63.88722375121268
1361722003.5,1.7043384166666666,33.09,109.25,1.5223177083333335,63.9096371874958
1361722003.75,1.697718208333333,33.09,109.28666668544,1.0304166666666668,63.933066165613745
1361722004.0,1.691098,33.09,109.32333333333334,0.4506250000000001,63.9564951437317
1361722004.25,1.6845311666666667,33.09,109.35833331541333,-0.08028645833333323,63.97992412184965
1361722004.5,1.6786583750000001,33.09,109.39333333333333,-0.36036458333333327,64.00335309996761
1361722004.75,1.673960125,33.09,109.42833335125333,-1.2472656249999998,64.02678207808556
1361722005.0,1.6717711666666668,33.09,109.46333333333332,-2.2427083333333333,64.05021105620352
1361722005.25,1.6717711666666666,33.09,109.50083331413333,-2.933671875,64.07303035760827
1361722005.5,1.6727321666666668,33.09,109.53833333333333,-3.593203125,64.09402161423745
1361722005.75,1.67460075,33.090833333333336,109.57583335253332,-3.498229166666667,64.11546027100401
1361722006.0,1.6769498333333333,33.0925,109.61333333333333,-3.133098958333333,64.13701945666406
1361722006.25,1.6792989166666665,33.09416666666667,109.65499997866667,-2.6163281250000003,64.15235534605911
1361722006.5,1.681648,33.09583333333334,109.69666666666667,-2.37890625,64.15052575588867
1361722006.75,1.6839970833333335,33.097500000000004,109.73833335466668,-1.6850520833333331,64.14304743672334
1361722007.0,1.6859190416666667,33.09916666666667,109.78000000000002,-0.9811979166666668,64.13276474787102
1361722007.25,1.6876274583333333,33.100833333333334,109.82499997696002,-0.18440104166666663,64.12996037818404
1361722007.5,1.6890155833333331,33.1025,109.87,0.3425,64.12435163881004
1361722007.75,1.6895495,33.104166666666664,109.91500002304,1.228125,64.12435163881004
1361722008.0,1.6892292083333331,33.10583333333333,109.96,1.865,64.12341684891437
1361722008.25,1.688375,33.1075,110.00333331114666,2.598515625,64.12215587732531
1361722008.5,1.6868801249999998,33.10916666666667,110.04666666666665,3.4112500000000003,64.12044917731386
1361722008.75,1.684798,33.11166666666667,110.09000002218666,3.831953125,64.11439303780249
1361722009.0,1.6827158750000002,33.115,110.13333333333333,4.145885416666666,64.10593993912063
1361722009.25,1.6806337500000001,33.11833333333333,110.17416664576,4.2909895833333325,64.0956572502683
1361722009.5,1.6785516249999999,33.12166666666666,110.215,4.623489583333333,64.08350498162466
1361722009.75,1.6764694999999998,33.125,110.25583335424,4.455416666666667,64.07647406259674
1361722010.0,1.6748144999999999,33.12833333333334,110.29666666666667,4.129218750000001,64.07180011311841
1361722010.25,1.6736399583333332,33.13166666666667,110.33166664874666,3.1237760416666664,64.05964784447478
1361722010.5,1.6732662083333334,33.135,110.36666666666667,2.3336197916666666,64.05029994551812
1361722010.75,1.6736399166666667,33.138333333333335,110.40166668458667,1.955390625,64.03534330718749
1361722011.0,1.6747076666666667,33.141666666666666,110.43666666666667,2.3072916666666665,64.02132145875251
1361722011.25,1.6758822083333333,33.145,110.46749998421333,2.2055208333333334,64.00750249462557
1361722011.5,1.6785516249999999,33.14833333333333,110.49833333333333,1.4200260416666666,63.99278153151794
1361722011.75,1.682502375,33.15,110.52916668245334,-0.22424479166666675,63.980618438881926
1361722012.0,1.6869870416666666,33.15,110.56,-1.4855989583333333,63.969875917562284
1361722012.25,1.6925928749999999,33.15,110.66833327786667,-2.805286458333333,63.964216364575044
1361722012.5,1.6992664583333335,33.15,110.77666666666667,-4.758255208333334,63.959004211725215
1361722012.75,1.7065807083333333,33.150416666666665,110.88500005546668,-6.951875,63.95334465873799
1361722013.0,1.714055125,33.15125,110.99333333333334,-8.342760416666666,63.94813250588815
1361722013.25,1.7212626249999998,33.15208333333333,111.14416658944,-8.119973958333334,63.94292035303832
1361722013.5,1.7277227083333333,33.15291666666666,111.29500000000002,-7.357916666666667,63.93770820018849
1361722013.75,1.7329548333333333,33.153749999999995,111.44583341056001,-8.405442708333334,63.93249604733865
1361722014.0,1.7375462916666666,33.15458333333333,111.59666666666668,-10.302395833333334,63.927283894488816
1361722014.25,1.7422445,33.15541666666666,111.81583322112002,-11.686484375,63.922682428782615
1361722014.5,1.7466757916666669,33.15624999999999,112.03500000000001,-11.041015625,63.921338259891705
1361722014.75,1.750413,33.157916666666665,112.25416677888,-8.680598958333333,63.921338259891705
1361722015.0,1.7536162916666667,33.16041666666666,112.47333333333334,-7.569817708333333,63.92182725798755
1361722015.25,1.755698416666667,33.16291666666667,112.65416657408001,-6.227421875000001,63.92182725798755
1361722015.5,1.7567127916666667,33.165416666666665,112.83500000000001,-3.5092968750000004,63.92182725798755
1361722015.75,1.7576203750000001,33.1675,113.01583342592001,-0.17424479166666693,63.92182725798755
1361722016.0,1.7633863333333333,33.16916666666666,113.19666666666667,2.6845572916666662,63.919707457032274
1361722016.25,1.7716615833333336,33.17083333333333,113.34083325952,4.24703125,63.90877724062656
1361722016.5,1.7799368333333334,33.1725,113.485,5.213802083333333,63.897030747281114
1361722016.75,1.7886925833333331,33.17333333333333,113.62916674048,7.8824218749999995,63.88160871383183
1361722017.0,1.7974483333333335,33.17333333333334,113.77333333333333,10.72890625,63.8659415653756
1361722017.25,1.8060973333333334,33.17333333333333,113.85916662272,13.469635416666664,63.85027441691937
1361722017.5,1.8141590416666666,33.17333333333334,113.945,14.37890625,63.82986398675163
1361722017.75,1.8207258750000002,33.1725,114.03083337727999,14.0628125,63.80478998205763
1361722018.0,1.8272393333333337,33.17083333333333,114.11666666666666,14.728645833333331,63.777342075753545
1361722018.25,1.8331654999999998,33.16916666666666,114.17916663466666,14.855911458333333,63.74780507435369
1361722018.5,1.8383975833333333,33.1675,114.24166666666667,13.684270833333334,63.717571636949856
1361722018.75,1.842935625,33.166666666666664,114.30416669866668,12.520755208333332,63.687993819020015
1361722019.0,1.8424017500000003,33.166666666666664,114.36666666666667,11.27953125,63.66069970691393
1361722019.25,1.8393052083333332,33.166666666666664,114.43916662954668,10.838541666666666,63.64221601025829
1361722019.5,1.8360485000000002,33.166666666666664,114.51166666666668,9.661145833333334,63.62454859054238
1361722019.75,1.832631625,33.1675,114.58416670378668,7.859453124999999,63.6105567109303
1361722020.0,1.8292681249999998,33.16916666666667,114.65666666666668,6.240468750000001,63.59680994632518
1361722020.25,1.825904625,33.17083333333333,114.73083329536001,4.349505208333333,63.58306318172006
1361722020.5,1.822541125,33.1725,114.805,2.846458333333334,63.57405969882643
1361722020.75,1.8206725,33.174166666666665,114.87916670464,1.7888020833333333,63.56971979045908
1361722021.0,1.8191775833333332,33.17583333333333,114.95333333333333,0.6957291666666666,63.56775378370181
1361722021.25,1.8184301250000001,33.1775,115.01999996586666,0.08179687500000002,63.5678768720403
1361722021.5,1.81981825,33.17916666666667,115.08666666666666,0.15145833333333333,63.56869639638277
1361722021.75,1.825050375,33.18125,115.15333336746666,0.14895833333333333,63.56886030125127
1361722022.0,1.8350875,33.183749999999996,115.21999999999998,-0.30216145833333335,63.56886030125127
1361722022.25,1.8484964166666666,33.18625,115.28249996799998,-1.4228645833333333,63.56886030125127
1361722022.5,1.8646364583333332,33.18875,115.34499999999998,-1.7586197916666668,63.56886030125127
1361722022.75,1.8832323750000002,33.19125,115.40750003199999,-1.7790104166666667,63.56886030125127
1361722023.0,1.9017749166666666,33.19375,115.46999999999998,-1.7577604166666667,63.56886030125127
1361722023.25,1.9203174583333336,33.19625,115.53499996672,-1.5340104166666668,63.56886030125127
1361722023.5,1.93886,33.198750000000004,115.6,-1.22578125,63.56886030125127
1361722023.75,1.9574025416666665,33.202083333333334,115.66500003328,-1.1202604166666668,63.56886030125127
1361722024.0,1.97562475,33.206250000000004,115.73,-1.1228906250000001,63.56886030125127
1361722024.25,1.993633375,33.21041666666667,115.79333330090667,-1.5662760416666668,63.56886030125127
1361722024.5,2.008225125,33.21458333333333,115.85666666666667,-2.240052083333333,63.56886030125127
1361722024.75,2.0171576666666664,33.21666666666667,115.92000003242667,-2.857760416666667,63.56886030125127
1361722025.0,2.0188292916666666,33.21666666666667,115.98333333333333,-2.9631510416666664,63.575939301352435
1361722025.25,2.0154206666666665,33.21666666666666,116.04583330133333,-2.796666666666667,63.60176445261005
1361722025.5,2.0091741666666665,33.21666666666667,116.10833333333333,-2.5060937500000002,63.6393164198522
1361722025.75,2.0003116249999997,33.21666666666666,116.17083336533334,-2.624609375,63.68532555955295
1361722026.0,1.991182125,33.21666666666666,116.23333333333333,-2.8436979166666667,63.73746115258003
1361722026.25,1.9813585833333331,33.21666666666667,116.30166663167999,-3.048072916666667,63.79847051404226
1361722026.5,1.9710545416666665,33.21666666666666,116.37,-2.5052083333333335,63.849430561036705
1361722026.75,1.9545574166666666,33.215833333333336,116.43833336832,-1.2858333333333334,63.88954716467111
1361722027.0,1.9256740833333332,33.214166666666664,116.50666666666666,0.9659114583333334,63.919562435214225
1361722027.25,1.8857926666666665,33.2125,116.58166662826666,3.8589322916666666,63.93265403183639
1361722027.5,1.8417386249999999,33.21083333333333,116.65666666666667,6.763333333333333,63.943008187147
1361722027.75,1.7996599583333335,33.21083333333333,116.73166670506666,8.9284375,63.955200982997894
1361722028.0,1.760090583333333,33.2125,116.80666666666666,11.182057291666668,63.96015125804336
1361722028.25,1.7222830416666666,33.214166666666664,116.88666662570665,12.538828125,63.94480306144619
1361722028.5,1.6847424166666665,33.21583333333333,116.96666666666667,14.047864583333334,63.9145777505617
1361722028.75,1.647522125,33.218333333333334,117.04666670762667,16.09825520833333,63.871844883686414
1361722029.0,1.6107206666666667,33.22166666666667,117.12666666666667,18.115442708333333,63.82298556348482
1361722029.25,1.5768021666666663,33.225,117.20416662698666,18.197317708333333,63.76525247484807
1361722029.5,1.5441115833333334,33.22833333333333,117.28166666666667,16.925390625,63.7175687006791
1361722029.75,1.5176675,33.232499999999995,117.35916670634667,14.922031249999998,63.68072836987019
1361722030.0,1.5037164166666666,33.2375,117.43666666666667,11.58015625,63.653989372152544
1361722030.25,1.5008168333333334,33.2425,117.51083329536,8.046744791666667,63.64417404835584
1361722030.5,1.50406525,33.247499999999995,117.58500000000001,4.818072916666666,63.63709616587071
1361722030.75,1.5073136666666667,33.251666666666665,117.65916670464001,2.4857031249999997,63.6281796428453
1361722031.0,1.510455291666667,33.255,117.73333333333335,-0.16195312500000061,63.61942664052415
1361722031.25,1.5135435,33.25833333333333,117.8041666304,-1.8431770833333339,63.61222595868918
1361722031.5,1.5164181666666667,33.26166666666667,117.875,-3.8664322916666674,63.608175575157006
1361722031.75,1.5185987916666666,33.265,117.94583336960001,-6.238697916666666,63.608175575157006
1361722032.0,1.51955975,33.26833333333334,118.01666666666667,-7.904322916666666,63.608175575157006
1361722032.25,1.5174775833333334,33.27166666666667,118.0708333056,-7.60640625,63.608175575157006
1361722032.5,1.5141675,33.275,118.125,-6.71078125,63.608175575157006
1361722032.75,1.5104836666666668,33.2775,118.17916669440001,-5.838541666666667,63.608175575157006
1361722033.0,1.5065862916666666,33.27916666666667,118.23333333333335,-4.291901041666667,63.608175575157006
1361722033.25,1.5026889166666668,33.280833333333334,118.27916664320001,-3.1758072916666666,63.608175575157006
1361722033.5,1.498738125,33.2825,118.32500000000002,-1.9713020833333335,63.608175575157006
1361722033.75,1.4945737916666666,33.28416666666667,118.3708333568,-1.2825781250000001,63.608175575157006
1361722034.0,1.489929,33.285833333333336,118.41666666666667,-0.29546875,63.608175575157006
1361722034.25,1.4846969583333334,33.2875,118.45416664746666,0.3834114583333333,63.608175575157006
1361722034.5,1.4789843749999998,33.28916666666667,118.49166666666667,0.9708072916666666,63.608175575157006
1361722034.75,1.47327175,33.29083333333333,118.52916668586667,1.8215625,63.608175575157006
1361722035.0,1.4686269166666666,33.2925,118.56666666666666,1.9178125,63.608175575157006
1361722035.25,1.46462275,33.29416666666667,118.608333312,2.0723958333333337,63.608175575157006
1361722035.5,1.4608321666666664,33.295833333333334,118.65,1.8668229166666668,63.608175575157006
1361722035.75,1.4572017499999996,33.2975,118.691666688,1.8406770833333335,63.608175575157006
1361722036.0,1.4536780833333334,33.29916666666667,118.73333333333333,1.4886979166666665,63.608175575157006
1361722036.25,1.4501544166666667,33.30083333333334,118.76749998250666,1.6128125000000002,63.608175575157006
1361722036.5,1.4466841666666665,33.3025,118.80166666666668,1.3252604166666666,63.608175575157006
1361722036.75,1.4435342083333333,33.303333333333335,118.83583335082668,1.2095052083333333,63.608175575157006
1361722037.0,1.4410782916666667,33.303333333333335,118.87,0.8115885416666666,63.608175575157006
1361722037.25,1.4393698333333333,33.303333333333335,118.8949999872,0.3022916666666667,63.608175575157006
1361722037.5,1.4383554583333333,33.303333333333335,118.91999999999999,-0.09989583333333335,63.608175575157006
1361722037.75,1.4379817916666668,33.30166666666667,118.9450000128,-0.7246875,63.608175575157006
1361722038.0,1.4375013333333333,33.29833333333333,118.96999999999998,-1.0618489583333333,63.608175575157006
1361722038.25,1.437341208333333,33.295,118.98499999232,-1.8315885416666668,63.608175575157006
1361722038.5,1.4375013749999999,33.291666666666664,119.0,-2.0890625000000003,63.608175575157006
1361722038.75,1.4378750833333331,33.288333333333334,119.01500000768,-2.3465364583333335,63.608175575157006
1361722039.0,1.4381954166666666,33.285000000000004,119.03000000000002,-2.467578125,63.608175575157006
1361722039.25,1.4385157499999999,33.281666666666666,119.04249999360002,-3.0742447916666666,63.608175575157006
1361722039.5,1.4387827083333333,33.278333333333336,119.055,-3.3758593750000006,63.608175575157006
1361722039.75,1.438836125,33.27666666666667,119.0675000064,-3.542213541666667,63.608175575157006
1361722040.0,1.4386225833333333,33.27666666666667,119.08,-3.4568229166666664,63.605963543636484
1361722040.25,1.4379819166666667,33.276666666666664,119.0924999936,-3.2290625,63.60190815251553
1361722040.5,1.436700583333333,33.27666666666667,119.10499999999999,-3.043359375,63.596009401794134
1361722040.75,1.4347251666666667,33.2775,119.1175000064,-2.7817447916666667,63.590110651072735
1361722041.0,1.4324294166666667,33.27916666666667,119.13,-2.562630208333333,63.58421190035134
1361722041.25,1.430026875,33.280833333333334,119.14666665813333,-1.9523697916666667,63.57831314962996
1361722041.5,1.4274642083333333,33.2825,119.16333333333333,-1.55390625,63.57241439890856
1361722041.75,1.424741375,33.28416666666667,119.18000000853334,-1.1231250000000002,63.56651564818717
1361722042.0,1.4219117499999998,33.285833333333336,119.19666666666667,-0.8018489583333334,63.56061689746577
1361722042.25,1.4189753749999998,33.2875,119.21499999061334,-0.11763020833333336,63.554718146744385
1361722042.5,1.4159855833333335,33.28916666666667,119.23333333333333,0.34,63.54881939602299
1361722042.75,1.4129957916666667,33.29,119.25166667605333,0.6295052083333333,63.54292064530159
1361722043.0,1.409952625,33.29,119.27,0.7086197916666666,63.53923392610073
1361722043.25,1.4069094583333335,33.29,119.28999998976,0.8850781249999998,63.53739056650029
1361722043.5,1.4038662916666667,33.29,119.31,1.145078125,63.53739056650029
1361722043.75,1.4008765416666666,33.29083333333333,119.33000001024,1.491328125,63.53739056650029
1361722044.0,1.3977800416666666,33.2925,119.35000000000001,1.7523177083333332,63.53739056650029
1361722044.25,1.3946835416666667,33.29416666666666,119.36666665813334,1.6490885416666667,63.53739056650029
1361722044.5,1.3916937916666665,33.295833333333334,119.38333333333334,1.4949218750000002,63.53739056650029
1361722044.75,1.3888108333333333,33.2975,119.40000000853334,1.205390625,63.53739056650029
1361722045.0,1.3860880416666668,33.299166666666665,119.41666666666667,1.1202604166666668,63.53739056650029
1361722045.25,1.383472,33.30083333333334,119.43166665898667,1.0529947916666667,63.53739056650029
1361722045.5,1.3811229166666665,33.3025,119.44666666666667,1.0848177083333332,63.53739056650029
1361722045.75,1.3798416249999998,33.303333333333335,119.46166667434667,1.2238802083333333,63.53739056650029
1361722046.0,1.3795747083333334,33.303333333333335,119.47666666666667,1.3955989583333333,63.53739056650029
1361722046.25,1.3800552083333333,33.303333333333335,119.48916666026668,1.3664062499999998,63.53739056650029
1361722046.5,1.3814967083333334,33.303333333333335,119.50166666666667,1.3233593750000001,63.53739056650029
1361722046.75,1.3844330833333334,33.3025,119.51416667306665,1.7847656249999997,63.53849658226056
1361722047.0,1.3887041666666669,33.30083333333334,119.52666666666666,2.09671875,63.55931953866385
1361722047.25,1.4025401666666666,33.29916666666667,119.53499999573333,2.4766927083333337,63.64605885870514
1361722047.5,1.4267869583333332,33.2975,119.54333333333332,3.0443489583333334,63.77562983160505
1361722047.75,1.457387,33.295833333333334,119.55166667093332,4.502005208333333,63.9139528210591
1361722048.0,1.493814708333333,33.29416666666666,119.55999999999999,5.609791666666666,64.20791262492862
1361722048.25,1.5321644166666666,33.2925,119.56416666453333,7.602265625,64.56741526689946
1361722048.5,1.571955625,33.29083333333333,119.56833333333333,8.960598958333334,64.8645203125515
1361722048.75,1.6139891666666664,33.29,119.57250000213332,9.739322916666667,65.16281778859972
1361722049.0,1.6588523333333332,33.29,119.57666666666667,9.604218750000001,65.44917010388609
1361722049.25,1.7032884166666669,33.29,119.57666666666667,10.731145833333334,65.6701816297771
1361722049.5,1.7474041666666666,33.29,119.57666666666667,12.285234375,65.88659349162914
1361722049.75,1.790719083333333,33.28916666666667,119.57666666666667,10.520989583333334,66.09945721382086
1361722050.0,1.8368102083333333,33.2875,119.57666666666667,6.879218750000001,66.28848189115278
1361722050.25,1.8749914583333334,33.28583333333333,119.57583333376,6.1485416666666675,66.33762963266166
1361722050.5,1.90308225,33.28416666666667,119.57499999999999,4.874583333333334,66.34158881786915
1361722050.75,1.9254604583333332,33.2825,119.57416666623999,1.534635416666667,66.33815511353875
1361722051.0,1.942011,33.28083333333334,119.57333333333332,-1.8813541666666664,66.17824521641889
1361722051.25,1.9571734166666666,33.27916666666667,119.57250000042666,-6.991223958333333,65.93579341841587
1361722051.5,1.9709477083333333,33.277499999999996,119.57166666666666,-10.919348958333336,65.74382719952615
1361722051.75,1.9824797083333336,33.27583333333334,119.57083333290666,-13.538281249999999,65.55684446585775
1361722052.0,1.9903812499999998,33.274166666666666,119.57,-14.918411458333333,65.40454205732108
1361722052.25,1.9984963333333337,33.2725,119.57249999871999,-17.983828125,65.34077016945778
1361722052.5,2.010935875,33.270833333333336,119.57499999999999,-22.311249999999998,65.29926000065267
1361722052.75,2.033519291666667,33.27,119.57750000128,-23.29401041666667,65.3142173323932
1361722053.0,2.0525256666666665,33.27,119.58,-21.75205729166667,65.33749791442462
1361722053.25,2.069877,33.27,119.58666666325334,-23.41796875,65.46272461221608
1361722053.5,2.086908,33.27,119.59333333333333,-24.840260416666666,65.5563168686527
1361722053.75,2.1032983333333335,33.270833333333336,119.60000000341333,-25.237630208333332,65.6550614433332
1361722054.0,2.1196886666666668,33.2725,119.60666666666667,-24.775026041666667,65.7475208142345
1361722054.25,2.135385,33.274166666666666,119.61999999317334,-22.772213541666662,65.88048397968849
1361722054.5,2.14536875,33.27583333333334,119.63333333333334,-21.24598958333333,66.0074063513738
1361722054.75,2.1532702916666664,33.277499999999996,119.64666667349334,-21.110078125,66.07516167433435
1361722055.0,2.156954125,33.27916666666667,119.66000000000001,-20.060807291666666,66.10426237725731
1361722055.25,2.1536974166666667,33.28083333333334,119.68916665173334,-16.808697916666667,66.10528297011334
1361722055.5,2.1425392083333334,33.2825,119.71833333333333,-12.765156249999999,66.08999418674156
1361722055.75,2.119154958333333,33.28416666666667,119.74750001493332,-9.880807291666667,66.01335246754125
1361722056.0,2.0932614166666665,33.28583333333333,119.77666666666666,-7.55765625,65.92752864017065
1361722056.25,2.0652323333333333,33.2875,119.82416664234667,-3.84109375,65.81284225874775
1361722056.5,2.0349075416666667,33.28916666666667,119.87166666666667,0.3583072916666668,65.74075328290941
1361722056.75,2.001806541666667,33.28916666666667,119.91916669098667,4.9910677083333335,65.66247284696209
1361722057.0,1.9661962916666667,33.2875,119.96666666666668,8.781770833333333,65.5888484297841
1361722057.25,1.930746166666667,33.285833333333336,120.02916663466668,11.065572916666667,65.49402860221464
1361722057.5,1.9007950833333334,33.284166666666664,120.09166666666667,13.221067708333335,65.42463786518475
1361722057.75,1.8719651666666666,33.28333333333334,120.15416669866666,16.5265625,65.41428181015809
1361722058.0,1.8473529583333335,33.28333333333333,120.21666666666665,18.235625000000002,65.43704231407021
1361722058.25,1.82946775,33.28333333333333,120.27749996885332,18.272578125,65.46924497499995
1361722058.5,1.8146256666666665,33.28333333333334,120.33833333333332,18.838776041666666,65.51542650098891
1361722058.75,1.8015454166666667,33.28333333333333,120.39916669781333,19.88479166666667,65.61769900614463
1361722059.0,1.7928430416666667,33.28333333333334,120.46,20.86895833333333,65.68936613170648
1361722059.25,1.7874507916666664,33.28333333333334,120.52083330218666,20.030885416666667,65.74562198836828
1361722059.5,1.7865965833333333,33.28333333333333,120.58166666666666,17.765859374999998,65.79351430605219
1361722059.75,1.7917752916666665,33.285833333333336,120.64250003114667,14.710338541666665,65.83954227968367
1361722060.0,1.8010115416666668,33.29083333333333,120.70333333333333,10.945182291666667,65.87153508256846
1361722060.25,1.8116358749999997,33.295833333333334,120.76499996842666,8.44390625,65.94453639267705
1361722060.5,1.8224737916666667,33.30083333333334,120.82666666666667,6.228515625,66.01202887226505
1361722060.75,1.834539625,33.305,120.88833336490667,2.40234375,66.10245225865994
1361722061.0,1.8481003333333332,33.30833333333334,120.95,-0.3581250000000001,66.15358708007342
1361722061.25,1.8637432083333334,33.31166666666667,121.02083329706667,-3.1358333333333337,66.18207413526794
1361722061.5,1.8814148750000002,33.315,121.09166666666667,-6.50125,66.16762468072659
1361722061.75,1.9004212916666665,33.318333333333335,121.16250003626666,-9.885911458333332,66.10120998713226
1361722062.0,1.9188938333333334,33.321666666666665,121.23333333333333,-12.934479166666664,66.07998709243543
1361722062.25,1.9379002083333334,33.324999999999996,121.30999996074667,-14.552265624999999,66.07064760580508
1361722062.5,1.95562525,33.32833333333333,121.38666666666667,-15.071171875,66.0114699307776
1361722062.75,1.9705740833333334,33.33,121.46333337258667,-15.008411458333333,65.92619853229195
1361722063.0,1.983974625,33.33,121.54,-14.177005208333334,65.8725560862227
1361722063.25,1.9959870833333335,33.33,121.62333329066666,-14.257708333333333,65.74716255408414
1361722063.5,2.0077859583333333,33.33,121.70666666666668,-15.177786458333332,65.59527248916491
1361722063.75,2.019104375,33.33,121.79000004266668,-14.212369791666665,65.39350935221914
1361722064.0,2.029835541666667,33.33,121.87333333333333,-13.698750000000002,65.19826820078877
1361722064.25,2.039659083333333,33.33,121.95833328981334,-12.567526041666666,65.02376504601371
1361722064.5,2.049108916666667,33.33,122.04333333333332,-12.147708333333332,64.88997727593902
1361722064.75,2.0587722916666666,33.33,122.12833337685332,-11.232786458333335,64.75241486118763
1361722065.0,2.0682755,33.33,122.21333333333332,-10.264479166666666,64.60687142406434
1361722065.25,2.0775117916666668,33.33,122.29499995818666,-10.716302083333334,64.46573285825188
1361722065.5,2.094169125,33.33,122.37666666666667,-11.571302083333334,64.37966393732863
1361722065.75,2.1158449999999998,33.330416666666665,122.45833337514667,-11.594609375,64.32864944440195
1361722066.0,2.137520875,33.331250000000004,122.54,-11.033072916666667,64.25225543269089
1361722066.25,2.15919675,33.33208333333333,122.61916662613334,-9.569140625000001,64.2112680429145
1361722066.5,2.1808726249999997,33.33291666666667,122.69833333333334,-7.815963541666666,64.19833371827382
1361722066.75,2.2018010416666667,33.33375,122.77750004053334,-8.297578125,64.2014765738112
1361722067.0,2.2218218333333333,33.334583333333335,122.85666666666667,-9.746588541666668,64.21187697238109
1361722067.25,2.2377317083333335,33.33541666666667,122.93333329408,-12.526223958333334,64.21963536228589
1361722067.5,2.2405613333333334,33.33625,123.01,-14.661510416666667,64.21428333337558
1361722067.75,2.228922583333333,33.33708333333333,123.08666670592001,-16.859296875000002,64.2159077682111
1361722068.0,2.2122119166666665,33.33791666666667,123.16333333333334,-18.984322916666667,64.21314505200642
1361722068.25,2.1918174166666664,33.33875,123.23833329493334,-20.16239583333333,64.21722150059831
1361722068.5,2.1598375416666666,33.33958333333334,123.31333333333333,-20.090442708333335,64.2451128969399
1361722068.75,2.1203298333333334,33.34125000000001,123.38833337173332,-21.713697916666664,64.23267392868868
1361722069.0,2.080448375,33.34375,123.46333333333332,-23.92776041666667,64.30287771299223
1361722069.25,2.039872875,33.346250000000005,123.5341666304,-27.638437500000006,64.30452549123775
1361722069.5,1.9985499583333333,33.34875,123.60499999999999,-29.905572916666667,64.26420892075922
1361722069.75,1.9563727916666664,33.35125,123.6758333696,-28.568151041666667,64.24917555750612
1361722070.0,1.9133414166666665,33.35375,123.74666666666667,-25.852708333333336,64.2749728959678
1361722070.25,1.871377833333333,33.35625,123.81583329792,-21.70588541666667,64.30309559485094
1361722070.5,1.8413733333333333,33.35875,123.88499999999999,-17.483359375,64.36734694732988
1361722070.75,1.8219931666666669,33.36291666666667,123.95416670208,-15.210026041666666,64.43256238618355
1361722071.0,1.8043214166666666,33.36875,124.02333333333333,-13.2028125,64.49970392240253
1361722071.25,1.788892,33.374583333333334,124.07999997098666,-10.365755208333333,64.53967400009269
1361722071.5,1.7766659166666667,33.38041666666666,124.13666666666666,-10.316875000000001,64.54786137868545
1361722071.75,1.7686575833333331,33.385,124.19333336234666,-8.264895833333334,64.58403977698765
1361722072.0,1.7614501249999999,33.38833333333333,124.25,-4.431484375000001,64.53968935793615
1361722072.25,1.754242625,33.391666666666666,124.29833330858666,1.4325781249999998,64.55928105083858
1361722072.5,1.7492774583333333,33.395,124.34666666666666,6.185624999999999,64.62725298229653
1361722072.75,1.7472487083333335,33.39833333333333,124.39500002474666,7.77265625,64.66843943610861
1361722073.0,1.7476758333333333,33.401666666666664,124.44333333333333,6.068593749999999,64.67742784786681
1361722073.25,1.7503986666666667,33.404999999999994,124.47833331541332,3.192447916666666,64.67707231748224
1361722073.5,1.7565917500000001,33.40833333333333,124.51333333333332,-0.3404427083333335,64.63982198842939
1361722073.75,1.7686576250000001,33.41,124.54833335125333,-2.291796875,64.60233468910995
1361722074.0,1.7838734583333336,33.41,124.58333333333333,-1.1496354166666667,64.5582099142897
1361722074.25,1.7990892916666665,33.41,124.61833331541332,-2.961770833333333,64.54237532482873
1361722074.5,1.8151593333333331,33.41,124.65333333333332,2.0723437499999995,64.54502974239684
1361722074.75,1.8292005833333331,33.41,124.68833335125332,4.774609375,64.56543712594204
1361722075.0,1.8428680833333333,33.41,124.72333333333331,2.0928645833333333,64.56297784568567
1361722075.25,1.8576034166666666,33.41,124.75416665088,-1.7391927083333334,64.54881946888331
1361722075.5,1.8714845,33.41,124.785,-7.745729166666667,64.52892565755626
1361722075.75,1.8832834166666668,33.41,124.81583334912,-11.764401041666666,64.51705747887245
1361722076.0,1.8931603333333333,33.41,124.84666666666668,-8.806822916666667,64.49803522418574
1361722076.25,1.902236375,33.41,124.87833331712001,-9.313880208333334,64.48420298672077
1361722076.5,1.9075218333333332,33.41,124.91,-10.424088541666668,64.44034026616409
1361722076.75,1.9093904166666666,33.41,124.94166668287998,-6.634192708333333,64.35621990651914
1361722077.0,1.9099242916666663,33.41,124.97333333333331,-5.221380208333334,64.28531316282327
1361722077.25,1.9104581666666667,33.41,125.00249998506665,-2.116067708333333,64.2296807379385
1361722077.5,1.910298,33.41,125.03166666666665,-6.964765624999999,64.13292031380178
1361722077.75,1.910298,33.41,125.06083334826666,-7.255937499999999,64.02860794395325
1361722078.0,1.910244625,33.41,125.08999999999999,-3.0595052083333325,63.98154934886563
1361722078.25,1.90923025,33.41,125.11916665173332,-0.4452604166666656,63.96634920697528
1361722078.5,1.9075752083333333,33.41,125.14833333333333,5.720494791666668,63.941746714285976
1361722078.75,1.9066142083333333,33.41,125.17750001493333,10.360364583333334,63.90099189577263
1361722079.0,1.9060803333333334,33.41,125.20666666666666,6.159244791666668,63.90031942164697
1361722079.25,1.908589625,33.41,125.23749998421333,4.786380208333335,63.90755217570185
1361722079.5,1.914355625,33.41,125.26833333333333,7.605,63.96321876308422
1361722079.75,1.9216165416666666,33.41,125.29916668245333,6.390338541666669,64.0935179480126
1361722080.0,1.930158791666667,33.41,125.33,2.4609375000000013,64.21079724690645
1361722080.25,1.939608625,33.41,125.36499998208,1.697812500000001,64.27117238894957
1361722080.5,1.949325375,33.41,125.39999999999999,8.599166666666667,64.35596387553763
1361722080.75,1.9587217916666668,33.41,125.43500001791999,9.398046875,64.43547734110666
1361722081.0,1.9681182083333333,33.41,125.46999999999998,7.664453125000001,64.48499028433626
1361722081.25,1.978101875,33.41,125.50749998079999,8.60171875,64.50310598645324
1361722081.5,1.9880855416666667,33.41,125.54499999999999,7.634375000000001,64.52617770463422
1361722081.75,1.9969480833333335,33.41,125.5825000192,7.0778125,64.55815456380324
1361722082.0,2.005330125,33.41,125.62,11.807005208333335,64.55388908939734
1361722082.25,2.0101885,33.41,125.6574999808,18.041354166666668,64.5398972178549
1361722082.5,2.010935958333333,33.41,125.695,21.269322916666667,64.51078279842312
1361722082.75,2.009761416666666,33.41083333333333,125.7325000192,22.791848958333333,64.44092625134854
1361722083.0,2.007038583333333,33.4125,125.77,26.533385416666665,64.38025739876785
1361722083.25,2.003034458333333,33.41416666666667,125.8074999808,27.146223958333334,64.34697473107455
1361722083.5,1.9982294999999999,33.41583333333333,125.845,22.574505208333335,64.30555592438098
1361722083.75,1.99283725,33.4175,125.8825000192,20.476901041666668,64.26726577819913
1361722084.0,1.9869644999999998,33.41916666666667,125.92,19.80125,64.2344362271245
1361722084.25,1.9785290833333333,33.42083333333333,125.95999997952,17.82598958333333,64.21206942554885
1361722084.5,1.96790475,33.4225,126.0,16.858203125,64.1890508209642
1361722084.75,1.9577075,33.424166666666665,126.04000002048,16.952109375000003,64.16747291627247
1361722085.0,1.9478839583333334,33.42583333333333,126.08,15.382838541666665,64.14238242546512
1361722085.25,1.9389146666666666,33.4275,126.11416664917333,13.264817708333334,64.11670594931863
1361722085.5,1.9306927916666667,33.42916666666667,126.14833333333333,10.767682291666667,64.0810160746746
1361722085.75,1.9229513750000002,33.43083333333333,126.18250001749333,8.728463541666667,64.0470092958784
1361722086.0,1.915530291666667,33.4325,126.21666666666665,5.915026041666667,64.00954454753243
1361722086.25,1.9084829166666666,33.43416666666666,126.24166665386666,3.3523437499999997,63.97411647837461
1361722086.5,1.9018092916666667,33.435833333333335,126.26666666666665,1.4104947916666666,63.94623247014683
1361722086.75,1.895722958333333,33.4375,126.29166667946666,-0.3637760416666666,63.907287893923304
1361722087.0,1.890117125,33.439166666666665,126.31666666666666,-1.2180729166666666,63.86663649927007
1361722087.25,1.8870739583333334,33.44083333333334,126.33083332608,-1.9769791666666665,63.824400769214776
1361722087.5,1.885739208333333,33.4425,126.345,-3.5456250000000007,63.78305874019683
1361722087.75,1.8839239583333331,33.44416666666667,126.35916667392,-6.089557291666668,63.74582127004471
1361722088.0,1.8820019166666666,33.44583333333333,126.37333333333333,-7.408880208333334,63.715089724699965
1361722088.25,1.880079875,33.4475,126.38499999402667,-8.612135416666668,63.68859389814994
1361722088.5,1.8785315833333334,33.44916666666667,126.39666666666668,-9.443151041666667,63.66959681282352
1361722088.75,1.8769299166666666,33.45,126.40833333930667,-9.015260416666665,63.65455668472614
1361722089.0,1.8756485833333336,33.45,126.42,-8.102057291666666,63.64106719611027
1361722089.25,1.87436725,33.45,126.42833332906667,-6.953723958333334,63.63182678983151
1361722089.5,1.8731927083333335,33.45,126.43666666666667,-6.291354166666667,63.619181153699024
1361722089.75,1.871911375,33.450833333333335,126.44500000426666,-5.2370833333333335,63.604097222024045
1361722090.0,1.87052325,33.45250000000001,126.45333333333333,-4.675416666666667,63.58901329034905
1361722090.25,1.869135125,33.45416666666667,126.45749999786666,-4.03453125,63.573929358674064
1361722090.5,1.8681741250000001,33.45583333333334,126.46166666666667,-3.4621875,63.55884542699908
1361722090.75,1.8675334583333332,33.4575,126.46583333546667,-2.9228906250000004,63.543761495324084
1361722091.0,1.8668394166666669,33.45916666666667,126.47,-2.441171875,63.528677563649104
1361722091.25,1.8659318333333335,33.46083333333333,126.46583333546667,-2.0098958333333337,63.51359363197412
1361722091.5,1.8648106666666664,33.4625,126.46166666666667,-1.0616927083333332,63.49850970029912
1361722091.75,1.863262375,33.464166666666664,126.45749999786666,-1.465130208333333,63.49568146311006
1361722092.0,1.8613403750000002,33.465833333333336,126.45333333333333,-1.3652864583333333,63.48568048055514
1361722092.25,1.859418375,33.4675,126.44083333973333,-2.0498177083333333,63.48338637952293
1361722092.5,1.8573895833333334,33.469166666666666,126.42833333333333,-1.9218489583333334,63.48695305765528
1361722092.75,1.8554675833333334,33.47,126.41583332693332,-2.4425781250000003,63.502036989330264
1361722093.0,1.853652375,33.47,126.40333333333332,-2.75765625,63.51712092100525
1361722093.25,1.8518371666666666,33.47,126.37916667904,-3.1320833333333336,63.532204852680245
1361722093.5,1.8504490833333334,33.47,126.35499999999999,-3.1099479166666666,63.55911645341917
1361722093.75,1.8501287916666669,33.47,126.33083332096,-2.81984375,63.60731785847323
1361722094.0,1.8511432083333332,33.47,126.30666666666667,-3.0378906250000006,63.66025033115286
1361722094.25,1.8530118333333334,33.47,126.285833344,-2.8977083333333336,63.71318280383249
1361722094.5,1.8552542083333334,33.47,126.26499999999999,-3.5863281249999996,63.766115276512124
1361722094.75,1.858083875,33.47083333333333,126.24416665599999,-3.4067187499999996,63.806792054705824
1361722095.0,1.861394,33.4725,126.22333333333331,-4.076770833333334,63.85464157826539
1361722095.25,1.8647575000000003,33.47416666666667,126.20750000810665,-3.840234375,63.894784220302235
1361722095.5,1.8682277916666665,33.475833333333334,126.19166666666666,-4.34296875,63.93377981182298
1361722095.75,1.8718048749999998,33.4775,126.17583332522668,-4.146979166666667,63.97162835282762
1361722096.0,1.8754887083333334,33.479166666666664,126.16000000000001,-4.393619791666667,64.00947689383226
1361722096.25,1.8791725416666665,33.48083333333333,126.15583333546667,-4.136354166666667,64.0473254348369
1361722096.5,1.8826427916666668,33.482499999999995,126.15166666666667,-3.963020833333333,64.0733463067776
1361722096.75,1.8853122083333334,33.48416666666667,126.14749999786666,-4.044791666666667,64.07807737440318
1361722097.0,1.8870740416666667,33.48583333333334,126.14333333333332,-3.5146874999999995,64.07807737440318
1361722097.25,1.8881952083333333,33.487500000000004,126.14000000170665,-3.534895833333333,64.07807737440318
1361722097.5,1.889209583333333,33.48916666666667,126.13666666666666,-2.596328125,64.07807737440318
1361722097.75,1.8902239583333333,33.49,126.13333333162666,-2.3596354166666664,64.07807737440318
1361722098.0,1.8911315833333333,33.49,126.13,-1.215625,64.07807737440318
1361722098.25,1.8919858333333333,33.49,126.13,-0.5786197916666665,64.07807737440318
1361722098.5,1.8926265000000002,33.49,126.13,0.6878645833333333,64.07807737440318
1361722098.75,1.892679875,33.48916666666667,126.13,1.6729687500000001,64.07807737440318
1361722099.0,1.8918256666666666,33.487500000000004,126.13,2.891380208333333,64.06655256964065
1361722099.25,1.8900638333333333,33.48583333333333,126.13166666581333,3.445182291666667,64.02079188738591
1361722099.5,1.8876079583333334,33.484166666666674,126.13333333333333,3.6628906249999997,63.96473729282267
1361722099.75,1.8845114166666666,33.483333333333334,126.13500000085332,4.249036458333333,63.90260218947875
1361722100.0,1.8809343749999998,33.483333333333334,126.13666666666666,4.40921875,63.83960321025902
1361722100.25,1.8758090416666666,33.483333333333334,126.1408333312,4.722317708333334,63.7688240155207
1361722100.5,1.869402375,33.483333333333334,126.14500000000001,3.26984375,63.69293716641477
1361722100.75,1.8620347083333335,33.48375,126.1491666688,1.7323697916666667,63.60214337650347
1361722101.0,1.8534391250000002,33.48458333333333,126.15333333333335,-0.8587239583333334,63.5055614011693
1361722101.25,1.8441494999999997,33.48541666666667,126.15749999786668,-3.8217447916666667,63.40624667744054
1361722101.5,1.8341124166666667,33.486250000000005,126.16166666666668,-6.5269531249999995,63.305689351240595
1361722101.75,1.8245558333333334,33.48791666666667,126.16583333546667,-9.558177083333332,63.20227372203462
1361722102.0,1.8166543333333334,33.49041666666667,126.17,-12.146848958333335,63.11025842659365
1361722102.25,1.8100341666666668,33.492916666666666,126.17,-14.319505208333332,63.05334903158277
1361722102.5,1.8043749583333335,33.495416666666664,126.17,-15.87640625,63.009716322883946
1361722102.75,1.7993564166666667,33.497083333333336,126.17,-18.356848958333334,62.97174974399732
1361722103.0,1.79439125,33.49791666666667,126.17,-20.767578125,62.93605548920879
1361722103.25,1.7909209583333334,33.49875,126.1575000064,-22.843932291666665,62.90847276447125
1361722103.5,1.7887319999999998,33.499583333333334,126.14500000000001,-22.82419270833333,62.88206224150147
1361722103.75,1.7875040416666665,33.5,126.1324999936,-21.894427083333337,62.87548714480716
1361722104.0,1.7875574166666668,33.5,126.12,-19.52690104166667,62.87498930920599
1361722104.25,1.7884650000000002,33.5,126.09916667733334,-16.35619791666667,62.87917057758767
1361722104.5,1.7903335833333331,33.5,126.07833333333335,-13.865260416666667,62.88343484727119
1361722104.75,1.7922021666666665,33.5,126.05749998933334,-11.170442708333333,62.89171702113009
1361722105.0,1.79310975,33.5,126.03666666666668,-8.980130208333334,62.900123665986506
1361722105.25,1.7934834583333332,33.5,126.00916668074667,-6.864270833333333,62.90766028790505
1361722105.5,1.7933766666666664,33.5,125.98166666666667,-4.32671875,62.912214135820044
1361722105.75,1.7931630833333336,33.5,125.95416665258666,-0.8764843750000003,62.91718236270351
1361722106.0,1.7931096666666668,33.5,125.92666666666666,2.4095833333333334,62.92074214136469
1361722106.25,1.7929495,33.5,125.89916668074666,5.619140625,62.92397060549346
1361722106.5,1.7926291666666667,33.5,125.87166666666667,7.730520833333333,62.93830807741184
1361722106.75,1.7923088333333335,33.5,125.84416665258667,9.23984375,62.97880246968234
1361722107.0,1.7919350833333334,33.5,125.81666666666666,9.56515625,63.01900778628257
1361722107.25,1.7914011666666667,33.5,125.78500001621333,9.391901041666667,63.05726674729454
1361722107.5,1.790707125,33.5,125.75333333333333,9.200052083333333,63.096685309475866
1361722107.75,1.7900130833333334,33.50125,125.72166665045333,9.116927083333332,63.13494427048783
1361722108.0,1.7893724166666667,33.503750000000004,125.69,9.020494791666666,63.1732032314998
1361722108.25,1.7888919166666666,33.50625,125.65750001664,8.95953125,63.21146219251176
1361722108.5,1.788358041666667,33.50875,125.625,7.909088541666666,63.24972115352372
1361722108.75,1.7878241666666665,33.51125,125.59249998336,6.7160416666666665,63.28798011453569
1361722109.0,1.7871835,33.51375,125.56,5.385052083333334,63.326239075547655
1361722109.25,1.786649625,33.51625,125.53333334698667,4.225208333333334,63.36449803655963
1361722109.5,1.7861691666666666,33.518750000000004,125.50666666666666,2.951510416666667,63.39558344238185
1361722109.75,1.7855285416666666,33.52125,125.47999998634667,2.08734375,63.39558344238185
1361722110.0,1.7845141666666668,33.52375,125.45333333333333,1.2760416666666667,63.39558344238185
1361722110.25,1.7831794583333334,33.52625,125.43500000938667,0.9309114583333334,63.39558344238185
1361722110.5,1.7816312083333334,33.52875,125.41666666666666,0.9161197916666667,63.39558344238185
1361722110.75,1.7798694166666664,33.530833333333334,125.39833332394666,0.6735677083333335,63.39558344238185
1361722111.0,1.7781609999999999,33.5325,125.38,0.5635677083333334,63.39558344238185
1361722111.25,1.7763991666666668,33.53416666666667,125.36916667221332,0.5911197916666667,63.39558344238185
1361722111.5,1.7746907083333332,33.535833333333336,125.35833333333332,0.772421875,63.39558344238185
1361722111.75,1.772928875,33.5375,125.34749999445333,0.7506510416666666,63.39558344238185
1361722112.0,1.7712738333333335,33.53916666666667,125.33666666666666,1.62890625,63.39558344238185
1361722112.25,1.7696721666666664,33.54083333333333,125.32583333887999,1.7404427083333331,63.39558344238185
1361722112.5,1.76817725,33.5425,125.315,2.727604166666667,63.39558344238185
1361722112.75,1.7668424999999999,33.54416666666666,125.30416666112001,3.4222916666666667,63.39558344238185
1361722113.0,1.765934875,33.54583333333333,125.29333333333334,4.257604166666667,63.39558344238185
1361722113.25,1.7653475833333332,33.5475,125.28000000682667,4.910703125,63.39558344238185
1361722113.5,1.7654543333333335,33.549166666666665,125.26666666666668,4.633958333333333,63.39558344238185
1361722113.75,1.7668424166666667,33.549166666666665,125.25333332650668,4.366979166666666,63.3952546543188
1361722114.0,1.7694584583333335,33.5475,125.24000000000001,3.7303125,63.378788799879054
1361722114.25,1.7731956666666668,33.54583333333333,125.22166667605335,3.0161979166666666,63.34954188320024
1361722114.5,1.7790684166666668,33.54416666666666,125.20333333333335,3.4000520833333336,63.31231596761944
1361722114.75,1.7870767083333332,33.5425,125.18499999061333,3.625885416666667,63.26511037773589
1361722115.0,1.79690025,33.54083333333333,125.16666666666667,2.7024739583333335,63.21292851672175
1361722115.25,1.8081652916666668,33.53916666666667,125.13166668458666,2.083229166666667,63.16472948803641
1361722115.5,1.8198040416666668,33.5375,125.09666666666666,0.4110937500000002,63.116530459351054
1361722115.75,1.8319232916666666,33.535833333333336,125.06166664874667,-1.101145833333333,63.0683314306657
1361722116.0,1.845323875,33.53416666666667,125.02666666666666,-2.503984375,63.020132401980355
1361722116.25,1.8603795416666669,33.5325,124.97083336191999,-5.091848958333333,62.971933373295
1361722116.5,1.8750080833333334,33.530833333333334,124.91499999999999,-6.967994791666666,62.92982320144339
1361722116.75,1.8885688333333333,33.53,124.85916663808,-7.014375,62.891272245418044
1361722117.0,1.9009016249999997,33.53,124.80333333333333,-6.944192708333333,62.869479138845826
1361722117.25,1.912700583333333,33.53,124.73166670335999,-7.14765625,62.86046709451267
1361722117.5,1.9235919583333334,33.53,124.66,-8.827057291666666,62.85976490371568
1361722117.75,1.9343765416666667,33.530833333333334,124.58833329664,-9.769244791666667,62.871109432059036
1361722118.0,1.94339925,33.5325,124.51666666666667,-8.827942708333333,62.8850323320612
1361722118.25,1.9509804583333332,33.53416666666667,124.44916670122667,-6.465885416666667,62.903269608560485
1361722118.5,1.9581879583333333,33.535833333333336,124.38166666666666,-4.0980468750000005,62.956842337422806
1361722118.75,1.9688123333333334,33.5375,124.31416663210666,-4.262161458333334,63.026025194780146
1361722119.0,1.9821595416666666,33.53916666666667,124.24666666666667,-3.968515625,63.112451517903345
1361722119.25,1.9938516666666668,33.54083333333333,124.18583336448,-0.17893229166666694,63.20706871524936
1361722119.5,2.0055437916666663,33.5425,124.125,3.7505468749999995,63.297063403375546
1361722119.75,2.017235916666667,33.54416666666666,124.06416663552,5.076276041666667,63.386064763875225
1361722120.0,2.0289280416666666,33.54583333333333,124.00333333333333,7.449791666666667,63.46165251166755
1361722120.25,2.04008625,33.5475,123.94916669439999,10.019739583333333,63.5451087247509
1361722120.5,2.0500699166666663,33.549166666666665,123.89499999999998,13.072135416666667,63.62053092935653
1361722120.75,2.0580782083333333,33.55083333333334,123.84083330559999,15.343098958333334,63.69372005741362
1361722121.0,2.066033125,33.5525,123.78666666666665,15.796458333333334,63.78848092772546
1361722121.25,2.0739880416666665,33.55416666666667,123.72916669610665,15.00671875,63.86823987804121
1361722121.5,2.0819429583333333,33.55583333333333,123.67166666666665,14.861276041666668,63.931507000478206
1361722121.75,2.0889902916666667,33.5575,123.61416663722666,17.40627604166667,63.97733949733825
1361722122.0,2.089364041666667,33.55916666666666,123.55666666666666,20.589765625000002,63.99671041124983
1361722122.25,2.0896843749999996,33.56083333333333,123.49666669738666,21.228098958333334,63.99188806811614
1361722122.5,2.0900047083333333,33.5625,123.43666666666667,21.204713541666667,63.95827128918731
1361722122.75,2.0901649166666667,33.56416666666667,123.37666663594666,22.237760416666664,63.97464846902344
1361722123.0,2.089844625,33.56583333333334,123.31666666666666,21.311041666666664,64.06234724772312
1361722123.25,2.0886831249999998,33.5675,123.24833336832,18.646484375,64.10502477449896
1361722123.5,2.077644708333333,33.56916666666667,123.18,16.392786458333333,64.1419469294999
1361722123.75,2.0639238333333334,33.57,123.11166663168,14.686744791666667,64.15449423820783
1361722124.0,2.049402125,33.57,123.04333333333334,14.033932291666666,64.1268268794139
1361722124.25,2.0344532916666664,33.57,122.96833337173334,12.405911458333334,64.12584836530662
1361722124.5,2.0189705416666666,33.57,122.89333333333335,12.366015624999998,64.08975834224414
1361722124.75,2.0001907083333332,33.57,122.81833329493334,11.399505208333332,64.04245834917182
1361722125.0,1.9838133749999998,33.57,122.74333333333334,7.477630208333334,64.00605300970209
1361722125.25,1.967262875,33.57,122.66416670720001,2.949375,63.991045008018425
1361722125.5,1.9506055833333331,33.57,122.58500000000001,0.3755989583333335,64.01525050492371
1361722125.75,1.93394825,33.57083333333333,122.50583329279999,-0.9411718749999999,63.97909855013591
1361722126.0,1.9176646666666668,33.5725,122.42666666666666,-1.378984375,63.88151779794421
1361722126.25,1.9016349999999997,33.57416666666666,122.34166671018666,0.5076562500000003,63.82108983238533
1361722126.5,1.89548225,33.575833333333335,122.25666666666666,1.7514843750000002,63.76983087631615
1361722126.75,1.890784,33.5775,122.17166662314666,2.7660677083333334,63.74262215417309
1361722127.0,1.8860857500000001,33.57916666666667,122.08666666666666,2.5069270833333333,63.73064324416735
1361722127.25,1.8811739583333331,33.58083333333334,121.99833337855999,2.832135416666667,63.69142727660665
1361722127.5,1.8756215416666668,33.5825,121.91,0.8818489583333333,63.666060248400775
1361722127.75,1.869095083333333,33.58416666666667,121.82166662144,0.4414583333333333,63.65142975042888
1361722128.0,1.8617677916666668,33.58583333333333,121.73333333333333,3.0254427083333333,63.63146830300105
1361722128.25,1.85290525,33.5875,121.64583337813333,6.958906249999999,63.5992494838133
1361722128.5,1.842387666666667,33.58916666666667,121.55833333333334,8.230807291666666,63.54856099305717
1361722128.75,1.8320302499999999,33.59,121.47083328853334,7.845390625,63.50731670137605
1361722129.0,1.8217795833333332,33.59,121.38333333333334,8.20234375,63.47008424577219
1361722129.25,1.8121162083333335,33.59,121.30166670848001,7.243723958333334,63.43276948547082
1361722129.5,1.8024528333333334,33.59,121.22,5.135494791666667,63.39677942021555
1361722129.75,1.7940174166666667,33.59,121.13833329152,2.5532552083333333,63.361279999038096
1361722130.0,1.786489625,33.59,121.05666666666667,0.05026041666666651,63.33455641152488
1361722130.25,1.780616875,33.59,120.9858333696,-1.0076822916666668,63.31771834847626
1361722130.5,1.7765059583333331,33.59,120.91499999999999,-1.0395312500000002,63.31443428850822
1361722130.75,1.773836541666667,33.59,120.8441666304,-1.8867447916666666,63.32091455681339
1361722131.0,1.7746373750000002,33.59,120.77333333333333,-5.300755208333333,63.336660047169794
1361722131.25,1.780403375,33.59,120.72166669312,-9.688697916666667,63.3723150183235
1361722131.5,1.7879312083333332,33.59,120.66999999999999,-11.856484374999999,63.41839299054584
1361722131.75,1.7954590416666667,33.59,120.61833330687999,-13.409114583333334,63.46417375107051
1361722132.0,1.8029868750000002,33.59,120.56666666666666,-15.99609375,63.508475302273816
1361722132.25,1.8105147083333335,33.59,120.53083335168,-16.849296875,63.553961046531725
1361722132.5,1.818042541666667,33.59,120.495,-15.509296874999999,63.60281966017323
1361722132.75,1.8247695416666667,33.58916666666667,120.45916664832,-12.643515625,63.651678273814746
1361722133.0,1.8289338750000004,33.5875,120.42333333333333,-8.780416666666666,63.69749045671341
1361722133.25,1.830962666666667,33.58583333333333,120.39833334613333,-6.046927083333333,63.739853942584055
1361722133.5,1.8324041666666668,33.58416666666667,120.37333333333333,-3.9250781250000006,63.762459670906175
1361722133.75,1.8336854999999999,33.5825,120.34833332053334,-2.109192708333334,63.76913670077391
1361722134.0,1.8325109583333334,33.58083333333334,120.32333333333334,1.576614583333333,63.770202921626385
1361722134.25,1.8281330833333334,33.57916666666667,120.29750001322667,6.474895833333332,63.756584569267496
1361722134.5,1.8237552083333333,33.5775,120.27166666666666,9.765182291666667,63.7379807106274
1361722134.75,1.819697625,33.575833333333335,120.24583332010666,11.906666666666666,63.71753713856336
1361722135.0,1.817401875,33.57416666666666,120.21999999999998,14.3884375,63.69746096791468
1361722135.25,1.8164942499999999,33.5725,120.19583334570666,15.899973958333332,63.676282908908924
1361722135.5,1.815586625,33.57083333333333,120.17166666666665,16.413932291666665,63.654696801602206
1361722135.75,1.8154798333333335,33.57,120.14749998762666,15.68294270833333,63.6331106942955
1361722136.0,1.8178289166666666,33.57,120.12333333333333,14.56703125,63.60537385890069
1361722136.25,1.8212991666666667,33.57,120.09833334613333,13.343333333333334,63.56991564926056
1361722136.5,1.8247694166666666,33.57,120.07333333333332,12.165729166666665,63.53847849097752
1361722136.75,1.8271718750000001,33.57,120.04833332053333,10.807760416666667,63.5093710760076
1361722137.0,1.8278659166666669,33.57,120.02333333333333,8.830598958333335,63.469923928166935
1361722137.25,1.8271184583333335,33.57,119.99416668159999,6.044687499999999,63.43219598319226
1361722137.5,1.821245666666667,33.57,119.965,4.4741406249999995,63.38756520753219
1361722137.75,1.8109950416666667,33.57083333333333,119.93583331840001,3.7904166666666668,63.33817568037251
1361722138.0,1.7989825833333335,33.5725,119.90666666666668,2.9419791666666666,63.28878615321284
1361722138.25,1.785582,33.57416666666667,119.87250001749334,1.6316145833333333,63.23939662605316
1361722138.5,1.772181416666667,33.575833333333335,119.83833333333334,0.5400520833333332,63.19000709889349
1361722138.75,1.7586740416666666,33.57750000000001,119.80416664917334,-0.6836718750000003,63.1406175717338
1361722139.0,1.745059875,33.579166666666666,119.77,-2.1999999999999997,63.09746038232242
1361722139.25,1.7313389583333334,33.58083333333334,119.72916668757333,-3.8896093750000005,63.06284066375826
1361722139.5,1.7176180416666667,33.5825,119.68833333333333,-5.748489583333334,63.033070609311785
1361722139.75,1.7049649166666667,33.58416666666667,119.64749997909334,-7.351354166666667,63.02070767190577
1361722140.0,1.694020208333333,33.58583333333333,119.60666666666667,-8.960260416666666,63.022357291766575
1361722140.25,1.6835025833333332,33.587500000000006,119.56500002133333,-10.775651041666665,63.023925217971765
1361722140.5,1.6765086249999996,33.58916666666667,119.52333333333334,-13.147395833333333,63.03354274123558
1361722140.75,1.6724510833333335,33.589166666666664,119.48166664533333,-15.182239583333333,63.05467071532001
1361722141.0,1.6670588333333332,33.587500000000006,119.44,-16.113255208333335,63.08748291521044
1361722141.25,1.6607589583333333,33.58583333333333,119.39666668885333,-16.546484375,63.131410956016076
1361722141.5,1.653711625,33.58416666666667,119.35333333333332,-16.555755208333334,63.18607804101538
1361722141.75,1.6462905833333334,33.5825,119.30999997781333,-15.502942708333334,63.24332722386979
1361722142.0,1.6389763333333336,33.58083333333334,119.26666666666667,-13.918255208333333,63.30057640672419
1361722142.25,1.6317154583333335,33.579166666666666,119.22416668842666,-11.256666666666666,63.357825589578596
1361722142.5,1.6244545833333335,33.5775,119.18166666666666,-8.288333333333332,63.414826756542276
1361722142.75,1.6171937083333334,33.57666666666666,119.13916664490665,-4.887369791666667,63.4610438720017
1361722143.0,1.6099328333333334,33.57666666666667,119.09666666666665,-1.8295833333333331,63.50309766125466
1361722143.25,1.6037931666666667,33.57666666666666,119.05083335679998,0.93546875,63.54515145050761
1361722143.5,1.5993619166666668,33.57666666666667,119.005,3.260677083333333,63.58720523976058
1361722143.75,1.5965322916666667,33.57750000000001,118.9591666432,4.839401041666666,63.623326448530555
1361722144.0,1.5964254999999998,33.579166666666666,118.91333333333334,5.426276041666667,63.64776343149453
1361722144.25,1.5997355833333333,33.58083333333334,118.86500002474666,5.899062499999999,63.66108457354329
1361722144.5,1.6067295,33.5825,118.81666666666666,5.914322916666666,63.663666671398396
1361722144.75,1.6164996666666667,33.58416666666667,118.76833330858666,5.027083333333334,63.663666671398396
1361722145.0,1.6293129999999998,33.58583333333333,118.71999999999998,3.8941406250000004,63.6636666713984
1361722145.25,1.6444220416666664,33.587500000000006,118.67500002303998,2.110286458333333,63.6636666713984
1361722145.5,1.6600115833333333,33.58916666666667,118.63,0.2703645833333333,63.663666671398396
1361722145.75,1.6758680416666667,33.59,118.58499997696,-1.7345572916666667,63.66317616958802
1361722146.0,1.6917245,33.59,118.54,-3.343671875,63.66317616958802
1361722146.25,1.7074741666666666,33.59,118.50500001792,-3.9966145833333333,63.66317616958802
1361722146.5,1.7231170833333334,33.59,118.47,-4.362916666666666,63.66317616958802
1361722146.75,1.7382795,33.59,118.43499998208,-4.019765625,63.66317616958802
1361722147.0,1.7520537916666665,33.59,118.39999999999999,-3.9909375,63.66317616958802
1361722147.25,1.762518,33.59,118.37166668117332,-3.87671875,63.66317616958802
1361722147.5,1.76913825,33.59,118.34333333333333,-3.528046875,63.66317616958802
1361722147.75,1.7729822499999999,33.59,118.31499998549334,-3.3155208333333337,63.66317616958802
1361722148.0,1.7723949583333332,33.59,118.28666666666668,-2.602578125,63.66317616958802
1361722148.25,1.7682306250000002,33.59,118.25750001493334,-2.0374739583333334,63.66317616958802
1361722148.5,1.7635857916666666,33.59,118.22833333333334,-0.7618489583333333,63.6628487648747
1361722148.75,1.7586740416666666,33.59,118.19916665173334,0.11739583333333332,63.651870770345056
1361722149.0,1.7534953333333334,33.59,118.17,1.6068749999999998,63.62459633839514
1361722149.25,1.747942875,33.59,118.13416668501334,2.271354166666667,63.5993367502507
1361722149.5,1.741696375,33.59,118.09833333333334,2.8642187499999996,63.576461700666776
1361722149.75,1.7350227916666665,33.589166666666664,118.06249998165335,3.0043749999999996,63.54762536599207
1361722150.0,1.7280822500000002,33.5875,118.02666666666669,4.699947916666667,63.51825451757896
1361722150.25,1.7216755833333333,33.58583333333334,117.99083335168001,6.0570312500000005,63.4955384552361
1361722150.5,1.7159095833333335,33.58416666666667,117.95500000000001,7.2308593750000005,63.48271572664032
1361722150.75,1.7101435833333334,33.5825,117.91916664832,7.999036458333333,63.474405365575045
1361722151.0,1.7052852083333334,33.58083333333334,117.88333333333333,7.638072916666666,63.46589021213293
1361722151.25,1.7014945833333333,33.579166666666666,117.85166668288,7.277083333333334,63.45388791796676
1361722151.5,1.6975437916666667,33.5775,117.82,5.241901041666667,63.44188543867701
1361722151.75,1.6930591249999998,33.575833333333335,117.78833331711999,4.269375,63.445372241648634
1361722152.0,1.6883609166666667,33.57416666666666,117.75666666666666,2.2638802083333336,63.46433631253327
1361722152.25,1.6840364583333332,33.5725,117.72833334783999,-0.20395833333333338,63.48775408473431
1361722152.5,1.6801924999999998,33.57083333333333,117.69999999999999,-1.4791666666666667,63.510629134318236
1361722152.75,1.6765086666666666,33.57,117.67166665216,-1.4639062500000002,63.539465468992944
1361722153.0,1.672451125,33.57,117.64333333333333,-3.5517447916666662,63.568836317406046
1361722153.25,1.6680732916666665,33.57,117.61583334741333,-5.189088541666667,63.59155237974891
1361722153.5,1.6639623749999999,33.57,117.58833333333334,-7.1073958333333325,63.60437510834469
1361722153.75,1.6603319583333331,33.57083333333333,117.56083331925335,-7.984635416666666,63.61268546940997
1361722154.0,1.6571820416666665,33.5725,117.53333333333335,-8.535989583333333,63.61792657571891
1361722154.25,1.654299083333333,33.57416666666666,117.49750001834667,-8.907057291666666,63.62469039447205
1361722154.5,1.6515762916666665,33.575833333333335,117.46166666666667,-8.320182291666667,63.63309142191532
1361722154.75,1.6499746249999998,33.5775,117.42583331498668,-8.77015625,63.63599894748692
1361722155.0,1.6496008749999997,33.57916666666667,117.39,-8.883046875,63.640707856705724
1361722155.25,1.6492271250000001,33.58083333333333,117.35166668629333,-7.714270833333334,63.63640977607118
1361722155.5,1.6490669166666665,33.5825,117.31333333333333,-7.426510416666667,63.62645581936126
1361722155.75,1.6491736666666668,33.58416666666667,117.27499998037334,-8.769244791666667,63.61838805517008
1361722156.0,1.649921083333333,33.58583333333333,117.23666666666666,-8.887994791666667,63.61314957975703
1361722156.25,1.6514159166666664,33.5875,117.19500002133333,-8.965781250000001,63.60791110434398
1361722156.5,1.6529107499999995,33.58916666666667,117.15333333333334,-8.519531250000002,63.594843848651415
1361722156.75,1.6542454166666667,33.59,117.11166664533333,-8.527421875,63.57550060444223
1361722157.0,1.6552063749999997,33.59,117.07,-8.381770833333334,63.558939021689305
1361722157.25,1.655793625,33.59,117.03333335210667,-8.296927083333333,63.543849481539326
1361722157.5,1.6562207083333333,33.59,116.99666666666667,-7.565625000000001,63.52745032253609
1361722157.75,1.6560605416666665,33.59,116.95999998122666,-6.447317708333333,63.51170597295948
1361722158.0,1.6551529583333335,33.59,116.92333333333333,-5.180546875,63.49497940924294
1361722158.25,1.6541919583333333,33.59,116.88666668544,-4.027421875,63.48079129025785
1361722158.5,1.6532309583333333,33.59,116.85000000000001,-2.9880989583333335,63.47534108817401
1361722158.75,1.6522699583333331,33.59,116.81333331456001,-0.8238541666666669,63.470466621956064
1361722159.0,1.651362375,33.59,116.77666666666669,1.251067708333333,63.4553770818061
1361722159.25,1.650294625,33.59,116.73750002005335,2.0640625,63.44028754165612
1361722159.5,1.649120083333333,33.59,116.69833333333335,2.2240104166666668,63.43302678178566
1361722159.75,1.6481057083333333,33.59,116.65916664661334,3.2977604166666663,63.43204201043181
1361722160.0,1.6474650416666667,33.59,116.62,4.8327864583333335,63.43154962475487
1361722160.25,1.6471980833333333,33.59,116.57416669013334,7.184557291666668,63.43154962475487
1361722160.5,1.6470912916666667,33.59,116.52833333333334,8.37390625,63.43154962475487
1361722160.75,1.6469845,33.58916666666667,116.48249997653333,9.424010416666667,63.43204201043181
1361722161.0,1.6468777083333332,33.5875,116.43666666666667,10.547187500000001,63.43204201043181
1361722161.25,1.6470379166666669,33.58583333333333,116.3783333632,10.506380208333333,63.43204201043181
1361722161.5,1.6473582916666667,33.58416666666667,116.32,10.2203125,63.42711815366254
1361722161.75,1.6479455833333336,33.5825,116.2616666368,8.936796875,63.419732368508626
1361722162.0,1.6487997916666668,33.58083333333334,116.20333333333333,7.732734375,63.419732368508626
1361722162.25,1.6510421250000002,33.57916666666667,116.15500002474667,7.709947916666668,63.41973236850864
1361722162.5,1.65531325,33.5775,116.10666666666667,7.775234375,63.419732368508626
1361722162.75,1.660705541666667,33.575833333333335,116.05833330858667,6.590494791666667,63.41973236850864
1361722163.0,1.6665783333333335,33.57416666666666,116.01,5.26265625,63.419732368508626
1361722163.25,1.6724511250000003,33.5725,115.97250001920001,3.114739583333334,63.419691303233215
1361722163.5,1.6783239166666668,33.57083333333333,115.935,1.5468489583333334,63.417473379941185
1361722163.75,1.6841967083333333,33.57083333333333,115.8974999808,-0.372265625,63.414352326275115
1361722164.0,1.6900695000000001,33.5725,115.86000000000001,-2.197942708333333,63.40884442747474
1361722164.25,1.6957287083333332,33.57416666666667,115.83916667733335,-3.010520833333333,63.38522045621195
1361722164.5,1.7000532083333333,33.575833333333335,115.81833333333336,-3.988541666666667,63.3577585023881
1361722164.75,1.7028294583333332,33.57833333333333,115.79749998933335,-5.404557291666666,63.3314126919133
1361722165.0,1.7050717916666667,33.58166666666667,115.77666666666669,-7.4550520833333325,63.30395073808946
1361722165.25,1.7056056666666668,33.585,115.75583334400001,-8.73640625,63.27760492761465
1361722165.5,1.7037370416666668,33.58833333333333,115.73500000000001,-9.938880208333334,63.251259117139846
1361722165.75,1.7004802916666666,33.59166666666667,115.71416665600002,-9.478020833333334,63.22491330666503
1361722166.0,1.6963693333333334,33.595000000000006,115.69333333333334,-9.620520833333334,63.19856749619023
1361722166.25,1.6925253333333332,33.598333333333336,115.67416667648001,-10.158854166666666,63.17226275099083
1361722166.5,1.688414375,33.60166666666667,115.655,-11.074296875000002,63.14813486380805
1361722166.75,1.6840364583333336,33.604166666666664,115.63583332352,-11.135494791666666,63.124417721322395
1361722167.0,1.6795517916666667,33.60583333333334,115.61666666666667,-11.203906250000001,63.103579809647954
1361722167.25,1.6749603333333336,33.607499999999995,115.60416667306667,-11.646588541666667,63.100857970435946
1361722167.5,1.6714900000000001,33.60916666666667,115.59166666666667,-10.914322916666668,63.10197411378497
1361722167.75,1.669247625,33.61,115.57916666026667,-9.174505208333334,63.10197411378497
1361722168.0,1.6672188333333333,33.61,115.56666666666666,-6.427760416666666,63.103090257134
1361722168.25,1.665510375,33.61,115.55500000597333,-4.814453125,63.103090257134
1361722168.5,1.6640154999999999,33.61,115.54333333333332,-2.7507291666666664,63.103090257134
1361722168.75,1.662520625,33.61,115.53166666069333,-1.757552083333333,63.103090257134
1361722169.0,1.6613994583333334,33.61,115.52,-0.2482291666666666,63.103090257134
1361722169.25,1.6600113333333333,33.61,115.50333334186666,1.5222656250000002,63.103090257134
1361722169.5,1.6588901666666667,33.61,115.48666666666666,4.414973958333333,63.103090257134
1361722169.75,1.6580359583333333,33.61,115.46999999146666,6.508333333333334,63.103090257134
1361722170.0,1.6572350833333331,33.61,115.45333333333333,8.462838541666667,63.103090257134
1361722170.25,1.6565944166666666,33.61,115.42750001322666,10.935911458333335,63.103090257134
1361722170.5,1.6560071666666667,33.61,115.40166666666667,12.142473958333333,63.103090257134
1361722170.75,1.6553665000000002,33.61,115.37583332010668,13.373463541666666,63.103255310208
1361722171.0,1.6547258333333332,33.61,115.35000000000001,14.098307291666666,63.107954672902274
1361722171.25,1.6540851666666667,33.61,115.31666668373333,14.956536458333332,63.12097791208107
1361722171.5,1.6537647916666665,33.61,115.28333333333333,15.2640625,63.13548439717203
1361722171.75,1.653711375,33.61,115.24999998293333,14.647708333333332,63.14999088226298
1361722172.0,1.6536579583333333,33.61,115.21666666666665,14.567317708333334,63.16449736735394
1361722172.25,1.6536045416666667,33.61,115.18166668458666,14.85390625,63.17900385244491
1361722172.5,1.653551125,33.61,115.14666666666666,14.349505208333332,63.19351033753586
1361722172.75,1.6534977083333333,33.61083333333333,115.11166664874666,14.195963541666666,63.208016822626824
1361722173.0,1.6536045000000001,33.6125,115.07666666666667,13.846015625,63.226223787847665
1361722173.25,1.6544587083333333,33.61416666666667,115.04000001877334,12.205598958333333,63.24073027293863
1361722173.5,1.6568612083333336,33.615833333333335,115.00333333333333,11.000026041666665,63.25523675802958
1361722173.75,1.6602781249999998,33.61666666666667,114.96666664789333,9.833723958333334,63.27574565692968
1361722174.0,1.6644424999999998,33.61666666666667,114.93,7.718515624999999,63.28925325945625
1361722174.25,1.6692475416666666,33.61666666666667,114.88833335466667,5.002578124999999,63.307253754309755
1361722174.5,1.674746625,33.61666666666667,114.84666666666666,4.317005208333334,63.323196797916125
1361722174.75,1.6821677083333333,33.61666666666667,114.80499997866667,4.671276041666666,63.34192976731924
1361722175.0,1.691724375,33.61666666666667,114.76333333333334,2.797864583333333,63.362917549692675
1361722175.25,1.7022420416666668,33.61666666666667,114.71750002346667,-0.39710937499999993,63.38808355452091
1361722175.5,1.7135071250000002,33.61666666666667,114.67166666666667,-3.6126302083333335,63.40640613660901
1361722175.75,1.72594675,33.615833333333335,114.62583330986666,-6.234140624999999,63.421118623672704
1361722176.0,1.7389202499999998,33.61416666666667,114.58,-7.885208333333332,63.439345783369866
1361722176.25,1.7513598333333331,33.612500000000004,114.53333335722667,-6.426119791666667,63.465002437662896
1361722176.5,1.7625714583333332,33.61083333333334,114.48666666666665,-4.3225,63.48967553992506
1361722176.75,1.7736229166666668,33.61,114.43999997610665,-3.2397135416666667,63.501419129652334
1361722177.0,1.7849947083333335,33.61,114.39333333333332,-0.42786458333333305,63.5197670766615
1361722177.25,1.7962063333333333,33.61,114.34333335893332,3.0207291666666674,63.51882066701003
1361722177.5,1.8071510416666667,33.61,114.29333333333332,4.123723958333334,63.53308114245064
1361722177.75,1.8168144166666667,33.61083333333334,114.24333330773332,4.853828125000001,63.54455169209451
1361722178.0,1.8257837083333335,33.612500000000004,114.19333333333333,7.401197916666668,63.553767428768055
1361722178.25,1.836141125,33.61416666666667,114.1266667008,11.201458333333333,63.5588049429868
1361722178.5,1.8487408749999998,33.615833333333335,114.06,13.788515625,63.57068587994568
1361722178.75,1.8635829583333334,33.61666666666667,113.99333329919999,15.723046875000001,63.586176911928966
1361722179.0,1.8795462083333334,33.61666666666667,113.92666666666666,16.963359375,63.58793839211339
1361722179.25,1.8952425416666667,33.61666666666667,113.83916671146666,15.2484375,63.57346401879746
1361722179.5,1.9106185416666668,33.61666666666667,113.75166666666667,13.241927083333335,63.5599731975124
1361722179.75,1.925247083333333,33.6175,113.66416662186667,11.62265625,63.55061346102985
1361722180.0,1.9388078333333334,33.61916666666667,113.57666666666667,9.031067708333333,63.53645861380634
1361722180.25,1.9518880833333332,33.62083333333334,113.47416671914667,7.210026041666667,63.52187241279717
1361722180.5,1.9642742499999999,33.6225,113.37166666666667,6.115729166666665,63.48672200995788
1361722180.75,1.975592625,33.623333333333335,113.26916661418667,5.279453125,63.45165577597834
1361722181.0,1.9854695,33.623333333333335,113.16666666666667,4.251328125,63.41250545690971
1361722181.25,1.99299725,33.623333333333335,113.06000005461334,3.0953906250000003,63.391758618711016
1361722181.5,1.99753525,33.623333333333335,112.95333333333335,3.226848958333333,63.37692188099484
1361722181.75,1.9986563750000002,33.62416666666667,112.84666661205334,3.1524739583333337,63.37090312615843
1361722182.0,1.9980156666666666,33.62583333333333,112.74000000000001,2.910598958333333,63.37152169139912
1361722182.25,1.9976419166666668,33.627500000000005,112.63250005504,3.5258593749999996,63.384647095674154
1361722182.5,1.9975885416666666,33.62916666666667,112.525,3.9058072916666666,63.397772499949205
1361722182.75,1.9975351666666665,33.63,112.41749994496,4.67265625,63.41352886507349
1361722183.0,1.9974817916666667,33.63,112.30999999999999,6.061484375,63.42994297041009
1361722183.25,1.9974284166666667,33.63,112.20416672085332,6.656302083333333,63.45326601738153
1361722183.5,1.9975886250000003,33.63,112.09833333333333,7.142499999999999,63.482520586426
1361722183.75,1.9981759583333334,33.63,111.99249994581332,6.483098958333334,63.511690986610695
1361722184.0,1.9983361666666666,33.63,111.88666666666666,5.9257552083333325,63.544945471884496
1361722184.25,1.9979090833333333,33.63,111.78833338368,5.473932291666666,63.55979647628835
1361722184.5,1.9972684583333333,33.63,111.69,5.008151041666667,63.56873738020969
1361722184.75,1.9964142916666665,33.63,111.59166661632,5.11078125,63.56886030125127
1361722185.0,1.9955601250000001,33.63,111.49333333333334,5.120807291666667,63.56886030125127
1361722185.25,1.9944389999999999,33.63,111.40583337813334,5.599531249999999,63.56886030125127
1361722185.5,1.9929975000000002,33.63,111.31833333333333,6.018619791666667,63.56886030125127
1361722185.75,1.991556,33.630833333333335,111.23083328853333,6.332630208333334,63.56886030125127
1361722186.0,1.9901679166666666,33.6325,111.14333333333333,6.2202343749999995,63.56886030125127
1361722186.25,1.9887798333333333,33.634166666666665,111.0641667072,5.832838541666667,63.56886030125127
1361722186.5,1.9884595,33.63583333333334,110.985,5.26296875,63.56886030125127
1361722186.75,1.9900611249999998,33.6375,110.9058332928,6.455182291666667,63.56886030125127
1361722187.0,1.9943322083333335,33.63916666666666,110.82666666666667,7.5268749999999995,63.56886030125127
1361722187.25,2.001166,33.64083333333333,110.7558333696,8.254140625,63.56886030125127
1361722187.5,2.0082133333333334,33.6425,110.685,9.259557291666667,63.56886030125127
1361722187.75,2.0154742083333335,33.64416666666667,110.6141666304,9.2784375,63.56886030125127
1361722188.0,2.0227350833333335,33.645833333333336,110.54333333333334,9.847526041666667,63.56886030125127
1361722188.25,2.0299959583333336,33.6475,110.47250003626667,9.467291666666666,63.56886030125127
1361722188.5,2.037256833333333,33.649166666666666,110.40166666666667,9.092942708333334,63.56529064580214
1361722188.75,2.0444643333333334,33.650416666666665,110.33083329706666,8.612369791666666,63.54200675749914
1361722189.0,2.05049725,33.65125,110.25999999999999,7.739453125000001,63.50781262394091
1361722189.25,2.0557827083333335,33.65208333333333,110.18916670293333,7.353437499999999,63.46953138889802
1361722189.5,2.0586122916666665,33.65291666666666,110.11833333333334,7.21578125,63.43583194903089
1361722189.75,2.0578115,33.653749999999995,110.04749996373333,6.1070312499999995,63.401885162318216
1361722190.0,2.0538607916666667,33.654583333333335,109.97666666666667,4.8702604166666665,63.36843306929663
1361722190.25,2.0477210833333332,33.65541666666666,109.89833337344001,3.9648958333333333,63.32920212215365
1361722190.5,2.0415279583333334,33.65625,109.82000000000001,2.19484375,63.29500798859542
1361722190.75,2.03490775,33.65708333333333,109.74166662656,1.6557291666666665,63.261184875305524
1361722191.0,2.027646875,33.657916666666665,109.66333333333334,0.4921614583333333,63.227980129129485
1361722191.25,2.019958875,33.65875,109.58000004266667,0.19718749999999993,63.18428887457035
1361722191.5,2.0120573333333334,33.65958333333333,109.49666666666667,-0.004661458333333428,63.14036842705999
1361722191.75,2.004209166666667,33.66,109.41333329066667,0.2803124999999999,63.11426278820331
1361722192.0,1.9974821666666667,33.66,109.33,1.22375,63.09906739460187
1361722192.25,1.9915026249999999,33.66,109.2425000448,1.739921875,63.08795910248508
1361722192.5,1.9868577916666668,33.66,109.155,2.042630208333333,63.07226901519254
1361722192.75,1.9838145833333334,33.66,109.0674999552,2.079140625,63.0614495093698
1361722193.0,1.9813586666666667,33.66,108.98,2.7937500000000006,63.05781385478243
1361722193.25,1.978796,33.66,108.89166671189334,3.4325260416666663,63.065818520729984
1361722193.5,1.9761799583333335,33.66,108.80333333333334,5.427838541666667,63.06605962299414
1361722193.75,1.9737240833333336,33.66083333333333,108.71499995477333,6.622239583333333,63.05916271644049
1361722194.0,1.97148175,33.662499999999994,108.62666666666667,7.993567708333334,63.05923753032521
1361722194.25,1.9694529583333331,33.66416666666667,108.53666671274667,8.995052083333334,63.0852017802658
1361722194.5,1.9674241666666665,33.66583333333333,108.44666666666666,9.963125,63.114964878606735
1361722194.75,1.9645945416666668,33.6675,108.35666662058667,10.034140625,63.14662740114786
1361722195.0,1.9602166250000002,33.66916666666666,108.26666666666667,8.57046875,63.178289923688986
1361722195.25,1.954450625,33.670833333333334,108.16666671786666,7.551406249999999,63.2099524462301
1361722195.5,1.948097375,33.67249999999999,108.06666666666666,7.86359375,63.24161496877122
1361722195.75,1.941317,33.67541666666667,107.96666661546668,8.687552083333333,63.26865425668808
1361722196.0,1.9344832083333332,33.67958333333333,107.86666666666667,7.9948958333333335,63.28801499967849
1361722196.25,1.9274358750000002,33.683749999999996,107.75916672170668,6.547473958333334,63.30151427625535
1361722196.5,1.9197478749999999,33.687916666666666,107.65166666666667,4.7448958333333335,63.318890703016756
1361722196.75,1.91067175,33.691250000000004,107.54416661162668,3.129817708333333,63.34274651830615
1361722197.0,1.9007948333333333,33.69375,107.43666666666668,1.7133593750000002,63.3466100279803
1361722197.25,1.8911315000000002,33.69625,107.32583339008,-0.19744791666666675,63.31813017565463
1361722197.5,1.8816817083333335,33.69875,107.215,-3.5831770833333336,63.290807657952776
1361722197.75,1.8730327500000001,33.70125,107.10416660992001,-5.599895833333332,63.275731619919036
1361722198.0,1.8659320833333333,33.70375,106.99333333333334,-5.29015625,63.27490852091628
1361722198.25,1.8602195000000001,33.70625,106.88666672128001,-4.505651041666667,63.27326232291077
1361722198.5,1.85530775,33.70875,106.78,-5.200442708333333,63.26407810588839
1361722198.75,1.85173075,33.71,106.67333327872,-5.193567708333333,63.25238121586039
1361722199.0,1.8499689583333332,33.71,106.56666666666666,-3.4541406250000004,63.25238121586039
1361722199.25,1.84959525,33.71,106.46583338495999,-0.8457552083333334,63.252381215860396
1361722199.5,1.8504494999999999,33.71,106.36500000000001,0.9177343749999999,63.251230815774505
1361722199.75,1.8529587916666665,33.71,106.26416661504001,2.6061979166666664,63.25123081577451
1361722200.0,1.8566960000000001,33.71,106.16333333333334,4.108307291666667,63.265933834009296
1361722200.25,1.8604332083333333,33.71,106.07583337813334,6.169427083333333,63.298727686657
1361722200.5,1.8641704166666664,33.71,105.98833333333334,10.256510416666666,63.33065180470237
1361722200.75,1.86785425,33.71,105.90083328853333,14.297968749999997,63.35032944307962
1361722201.0,1.8710575833333332,33.71,105.81333333333333,17.787447916666665,63.35517894238294
1361722201.25,1.87410075,33.71,105.74416670208001,20.117760416666666,63.361426740731964
1361722201.5,1.8766100000000001,33.71,105.67500000000001,22.062109375000002,63.375212558097864
1361722201.75,1.8776243333333333,33.71083333333333,105.60583329792,22.852994791666664,63.38382370521668
1361722202.0,1.8768234583333336,33.7125,105.53666666666668,22.89575520833333,63.38094465743947
1361722202.25,1.8743675833333333,33.714166666666664,105.48500002645333,22.403515625,63.377654317122676
1361722202.5,1.87020325,33.715833333333336,105.43333333333334,22.627421874999996,63.37617305446762
1361722202.75,1.8652380833333335,33.717499999999994,105.38166664021334,23.48364583333333,63.36918155621348
1361722203.0,1.8592051666666667,33.719166666666666,105.33,24.845651041666667,63.35988925778759
1361722203.25,1.8524247916666667,33.72083333333333,105.28666668885333,25.548385416666665,63.3475528561949
1361722203.5,1.8456444166666668,33.7225,105.24333333333334,25.201953125000003,63.3304409330525
1361722203.75,1.8389174166666666,33.72416666666667,105.19999997781335,23.702734374999995,63.3133290099101
1361722204.0,1.8326709166666666,33.725833333333334,105.15666666666668,21.228567708333333,63.30198072370527
1361722204.25,1.8265845833333334,33.7275,105.11916668586667,20.152786458333335,63.288204224280854
1361722204.5,1.8208719999999998,33.729166666666664,105.08166666666668,19.889244791666666,63.27331591695042
1361722204.75,1.8159602916666666,33.73,105.04416664746667,20.502682291666666,63.2736385453737
1361722205.0,1.81168925,33.73,105.00666666666666,20.99578125,63.271410327245576
1361722205.25,1.8090732083333334,33.73,104.9733333504,21.355130208333332,63.289474007778445
1361722205.5,1.8086994999999997,33.73,104.94,21.535078125000002,63.308395388237216
1361722205.75,1.8100876249999998,33.73,104.9066666496,19.380729166666665,63.3322510910455
1361722206.0,1.8135044999999999,33.73,104.87333333333333,16.88744791666667,63.356106793853776
1361722206.25,1.8186298333333335,33.73,104.84166668288,16.651692708333336,63.38185619974299
1361722206.5,1.8253034166666666,33.73,104.81,15.053723958333334,63.41209352716043
1361722206.75,1.83304475,33.73,104.77833331712,13.746119791666667,63.442330854577875
1361722207.0,1.8409996666666668,33.73,104.74666666666667,12.834505208333333,63.467379745100686
1361722207.25,1.8492215416666664,33.73,104.7133333504,10.552838541666667,63.49428164880015
1361722207.5,1.8580306666666668,33.73,104.68,8.185,63.522295360405614
1361722207.75,1.8675872083333334,33.73,104.64666664960001,4.376328125000001,63.54278547951008
1361722208.0,1.8789589583333333,33.73,104.61333333333334,0.8437500000000006,63.56561975003396
1361722208.25,1.8919857916666665,33.73,104.57750001834667,-1.2884114583333328,63.56857341443643
1361722208.5,1.9056533333333334,33.73,104.54166666666666,-3.144557291666666,63.56886030125127
1361722208.75,1.9188937499999998,33.73,104.50583331498666,-3.6055208333333333,63.568491538126544
1361722209.0,1.9311731666666667,33.73,104.46999999999998,-5.314661458333332,63.56541521525821
1361722209.25,1.9424915833333334,33.73,104.43250001919999,-8.498958333333333,63.54768821063965
1361722209.5,1.95226175,33.73,104.39499999999998,-8.425833333333332,63.529961206021106
1361722209.75,1.9609641666666668,33.73083333333333,104.35749998079999,-8.430703124999999,63.50173651072425
1361722210.0,1.969453,33.732499999999995,104.32,-8.312630208333333,63.459698415612486
1361722210.25,1.9769274166666666,33.73416666666666,104.2825000192,-7.212968749999999,63.41030888845282
1361722210.5,1.982960375,33.73583333333333,104.245,-5.460885416666666,63.360919361293135
1361722210.75,1.9872849166666666,33.7375,104.2074999808,-2.980182291666667,63.31152983413347
1361722211.0,1.9888866250000001,33.73916666666667,104.17,-1.4823177083333334,63.262140306973784
1361722211.25,1.9873383750000002,33.740833333333335,104.12083335850667,-1.5153125,63.212750779814115
1361722211.5,1.9829605000000001,33.7425,104.07166666666667,-1.5733333333333333,63.16336125265443
1361722211.75,1.9773546666666668,33.744166666666665,104.02249997482667,-0.566015625,63.11434048861948
1361722212.0,1.9712683333333334,33.74583333333333,103.97333333333334,2.2273697916666664,63.06802728432814
1361722212.25,1.9647015000000003,33.7475,103.9191666944,4.534947916666666,63.03636476178702
1361722212.5,1.958027875,33.74916666666667,103.86500000000001,4.953984375,63.004702239245894
1361722212.75,1.9510873333333334,33.75,103.8108333056,5.754036458333334,62.98353740738307
1361722213.0,1.9436662916666665,33.75,103.75666666666666,6.453098958333334,62.976185975335156
1361722213.25,1.9366189583333335,33.75,103.69833336319999,6.533437500000001,62.976185975335156
1361722213.5,1.9304258333333333,33.75,103.63999999999999,5.7461197916666675,62.976185975335156
1361722213.75,1.9250869166666666,33.75,103.5816666368,5.406927083333334,62.976185975335156
1361722214.0,1.9203886666666665,33.75,103.52333333333333,6.415442708333334,62.976185975335156
1361722214.25,1.9163310833333334,33.75,103.47250002602667,8.017630208333333,62.976185975335156
1361722214.5,1.9134480416666664,33.75,103.42166666666665,9.094869791666666,62.976185975335156
1361722214.75,1.9112590833333334,33.75,103.37083330730665,9.323489583333334,62.976185975335156
1361722215.0,1.9096040416666666,33.75,103.32,8.717369791666668,62.976185975335156
1361722215.25,1.9084295000000002,33.75,103.2700000256,8.084791666666666,62.976185975335156
1361722215.5,1.90736175,33.75,103.22,7.830494791666666,62.976185975335156
1361722215.75,1.9065609166666666,33.75,103.1699999744,7.33109375,62.976185975335156
1361722216.0,1.9062405833333333,33.75,103.12,6.862578124999999,62.976185975335156
1361722216.25,1.906294,33.75,103.07083335850668,6.415130208333333,62.976185975335156
1361722216.5,1.9058135416666666,33.75,103.02166666666668,5.989791666666666,62.976185975335156
1361722216.75,1.90501275,33.75,102.97249997482666,5.315,62.976185975335156
1361722217.0,1.9042119583333335,33.75,102.92333333333333,3.948255208333333,62.976185975335156
1361722217.25,1.9034111666666664,33.75,102.87583335765333,2.6037760416666664,62.976185975335156
1361722217.5,1.902610375,33.75,102.82833333333333,1.3132031249999996,62.976185975335156
1361722217.75,1.901809583333333,33.75083333333333,102.78083330901333,0.1118229166666666,62.976185975335156
1361722218.0,1.900955375,33.7525,102.73333333333333,-0.7351302083333334,62.976185975335156
1361722218.25,1.9005816666666666,33.75416666666667,102.68833335637333,-1.400625,62.976185975335156
1361722218.5,1.9007952083333333,33.755833333333335,102.64333333333333,-1.8460937499999999,62.976185975335156
1361722218.75,1.9013824583333332,33.7575,102.59833331029333,-2.2576041666666664,62.976185975335156
1361722219.0,1.902129875,33.759166666666665,102.55333333333333,-2.4250520833333336,62.976185975335156
1361722219.25,1.9031442499999998,33.76083333333333,102.51166668799999,-2.209140625,62.976185975335156
1361722219.5,1.905119625,33.7625,102.47,-1.704557291666667,62.976185975335156
1361722219.75,1.9081627499999998,33.76416666666667,102.42833331199999,-1.5009635416666667,62.976185975335156
1361722220.0,1.91366175,33.76583333333334,102.38666666666666,-1.5525520833333333,62.978335717136495
1361722220.25,1.9216700416666666,33.767500000000005,102.35083335168,-1.1495052083333335,62.981270741187274
1361722220.5,1.9298385,33.76916666666667,102.315,-1.1642708333333334,62.997824682234814
1361722220.75,1.9380069583333335,33.77,102.27916664832,-0.6867968749999999,63.019200497789036
1361722221.0,1.9461754166666665,33.77,102.24333333333334,-0.24156249999999999,63.042799929155244
1361722221.25,1.9538633749999998,33.77,102.21000001706668,1.2972135416666666,63.067881771062765
1361722221.5,1.960964083333333,33.77,102.17666666666668,3.045833333333333,63.0929636129703
1361722221.75,1.9676910833333334,33.77,102.14333331626666,3.833645833333333,63.11804545487783
1361722222.0,1.97361725,33.77,102.11,4.659270833333333,63.14312729678536
1361722222.25,1.978956125,33.77,102.07666668373334,5.242786458333334,63.16820913869288
1361722222.5,1.9838678750000003,33.77,102.04333333333334,6.473645833333333,63.19329098060041
1361722222.75,1.9880322083333333,33.77,102.00999998293334,8.34921875,63.218372822507945
1361722223.0,1.9897406666666668,33.77,101.97666666666667,10.616015625000001,63.24130492261413
1361722223.25,1.9889398333333335,33.77,101.9433333504,12.244453125,63.263451740470884
1361722223.5,1.987978833333333,33.77,101.91,14.240625000000001,63.271979641330866
1361722223.75,1.9873381666666665,33.770833333333336,101.8766666496,15.8509375,63.27568566768418
1361722224.0,1.9876585000000002,33.7725,101.84333333333332,17.383125,63.2771680782255
1361722224.25,1.9882457916666667,33.77416666666667,101.81333334869332,17.317864583333336,63.2771680782255
1361722224.5,1.9888330833333334,33.77583333333333,101.78333333333332,16.208411458333334,63.2771680782255
1361722224.75,1.9894203750000001,33.7775,101.75333331797331,17.392682291666667,63.2771680782255
1361722225.0,1.9906483333333334,33.77916666666667,101.72333333333331,18.808046875,63.2771680782255
1361722225.25,1.992196625,33.780833333333334,101.69416668159998,19.121901041666664,63.2771680782255
1361722225.5,1.9937449166666668,33.782500000000006,101.66499999999999,16.118359375,63.2771680782255
1361722225.75,1.9941186666666668,33.784166666666664,101.6358333184,12.510260416666668,63.2771680782255
1361722226.0,1.9935313749999999,33.785833333333336,101.60666666666667,11.937916666666666,63.2771680782255
1361722226.25,1.9927305416666667,33.7875,101.57583334912,11.138463541666667,63.2771680782255
1361722226.5,1.9918229583333333,33.78916666666667,101.545,11.014635416666666,63.2771680782255
1361722226.75,1.9905950416666667,33.79,101.51416665088,11.538489583333332,63.2771680782255
1361722227.0,1.988406125,33.79,101.48333333333333,11.528385416666666,63.2771680782255
1361722227.25,1.9859502500000001,33.79,101.44666668544,12.260286458333333,63.2771680782255
1361722227.5,1.9834943750000003,33.79,101.41,13.177317708333332,63.2771680782255
1361722227.75,1.9810385000000001,33.79,101.37333331456,11.790598958333332,63.2771680782255
1361722228.0,1.9788495416666667,33.79,101.33666666666666,9.619947916666666,63.2771680782255
1361722228.25,1.976713958333333,33.79,101.29833335295999,8.766979166666667,63.2771680782255
1361722228.5,1.9747919583333333,33.79,101.25999999999999,10.661328124999999,63.2771680782255
1361722228.75,1.9740979166666666,33.79,101.22166664704,12.668307291666666,63.2771680782255
1361722229.0,1.9743649166666668,33.79,101.18333333333332,11.628229166666666,63.2771680782255
1361722229.25,1.9748454583333332,33.79,101.14416668672,10.918307291666666,63.2771680782255
1361722229.5,1.9754327499999997,33.79,101.105,9.671979166666667,63.2771680782255
1361722229.75,1.9760200416666667,33.79,101.06583331328001,7.737942708333333,63.2771680782255
1361722230.0,1.9765539166666664,33.79,101.02666666666669,6.0284375,63.2771680782255
1361722230.25,1.9770877916666665,33.79,100.98666668714668,4.465520833333334,63.2771680782255
1361722230.5,1.9774080833333334,33.79,100.94666666666669,3.596223958333333,63.2771680782255
1361722230.75,1.9772478749999998,33.79083333333333,100.90666664618668,3.5548697916666665,63.2771680782255
1361722231.0,1.97682075,33.7925,100.86666666666667,3.434114583333333,63.2771680782255
1361722231.25,1.9764470416666668,33.79416666666667,100.82166668970667,3.1245833333333333,63.2771680782255
1361722231.5,1.97585975,33.795833333333334,100.77666666666667,3.2178906250000003,63.2771680782255
1361722231.75,1.9748453333333336,33.7975,100.73166664362667,3.5682291666666663,63.2771680782255
1361722232.0,1.973563958333333,33.79916666666667,100.68666666666667,3.39390625,63.2771680782255
1361722232.25,1.97196225,33.80083333333334,100.63583335936,3.298723958333333,63.2771680782255
1361722232.5,1.9700935833333333,33.8025,100.58500000000001,3.253671875,63.2771680782255
1361722232.75,1.968011375,33.80416666666667,100.53416664064,3.103203125,63.2771680782255
1361722233.0,1.9659825833333333,33.80583333333333,100.48333333333333,3.3139322916666667,63.2771680782255
1361722233.25,1.9639537916666667,33.8075,100.43166669312001,3.2744531250000004,63.2771680782255
1361722233.5,1.9618716666666665,33.80916666666667,100.38000000000001,3.038619791666667,63.2771680782255
1361722233.75,1.9602700416666667,33.810833333333335,100.32833330688001,2.9294010416666665,63.2771680782255
1361722234.0,1.9586684166666668,33.8125,100.27666666666669,3.77515625,63.2771680782255
1361722234.25,1.9569599999999998,33.814166666666665,100.2308333568,4.686770833333333,63.2771680782255
1361722234.5,1.954877875,33.81583333333334,100.185,4.326510416666666,63.2771680782255
1361722234.75,1.9529558749999998,33.8175,100.1391666432,4.567317708333333,63.2771680782255
1361722235.0,1.951247416666667,33.81916666666667,100.09333333333332,5.526510416666667,63.2771680782255
1361722235.25,1.9498059166666666,33.82083333333333,100.05250002090666,6.483671875,63.2771680782255
1361722235.5,1.9487381666666668,33.8225,100.01166666666666,7.358880208333335,63.2771680782255
1361722235.75,1.9480975416666666,33.82333333333333,99.97083331242666,8.37953125,63.2771680782255
1361722236.0,1.9477238333333335,33.82333333333333,99.93,9.121796875,63.2771680782255
1361722236.25,1.9475636666666667,33.82333333333333,99.88833335466667,10.001328125,63.2771680782255
1361722236.5,1.9476704166666667,33.82333333333333,99.84666666666666,11.867682291666666,63.2771680782255
1361722236.75,1.9472432916666669,33.8225,99.80499997866667,13.963697916666666,63.285801840914466
1361722237.0,1.9464424583333333,33.82083333333333,99.76333333333334,15.567994791666669,63.29858521343835
1361722237.25,1.9454280833333335,33.81916666666667,99.71666669056,16.059010416666666,63.3178504229705
1361722237.5,1.9444670833333335,33.8175,99.67,16.579296875,63.33953563032673
1361722237.75,1.9437196666666667,33.81666666666667,99.62333330944,15.312604166666665,63.361220837682964
1361722238.0,1.9430256666666665,33.81666666666667,99.57666666666667,15.359375,63.3829060450392
1361722238.25,1.9421180833333331,33.81666666666667,99.53500002133333,16.940104166666668,63.40459125239543
1361722238.5,1.9407833749999999,33.81666666666667,99.49333333333334,21.827369791666666,63.426276459751655
1361722238.75,1.9385944166666667,33.8175,99.45166664533335,28.953203124999998,63.4479616671079
1361722239.0,1.935017375,33.81916666666667,99.41000000000001,35.549687500000005,63.469646874464125
1361722239.25,1.9292514166666666,33.82083333333333,99.37833334954668,39.443385416666665,63.49133208182036
1361722239.5,1.9221507083333333,33.8225,99.34666666666668,43.981484375,63.51301728917659
1361722239.75,1.915583875,33.82416666666666,99.31499998378668,48.387890625000004,63.52606873384386
1361722240.0,1.90939075,33.82583333333333,99.28333333333335,50.70578125,63.53570818623191
1361722240.25,1.9034111666666667,33.82749999999999,99.26666667520001,54.92611979166666,63.54009516420454
1361722240.5,1.8976985,33.829166666666666,99.25000000000001,61.023203125,63.54206214435309
1361722240.75,1.8919858333333333,33.83,99.23333332480001,67.15104166666667,63.54402912450163
1361722241.0,1.8862731666666666,33.83,99.21666666666668,69.46528645833332,63.543781329551564
1361722241.25,1.8808274583333333,33.83,99.20750000469334,68.99934895833333,63.53344122675127
1361722241.5,1.8757020833333335,33.83,99.19833333333334,65.0175,63.521623966408065
1361722241.75,1.8712707916666667,33.830416666666665,99.18916666197333,58.96364583333334,63.50980670606486
1361722242.0,1.8680674583333337,33.831250000000004,99.17999999999999,53.633515625,63.49798944572166
1361722242.25,1.8669996666666666,33.83208333333333,99.17999999999999,50.37197916666667,63.48617218537845
1361722242.5,1.8675869583333335,33.83291666666667,99.18,45.16223958333334,63.47435492503525
1361722242.75,1.8684411666666667,33.83375,99.18,40.099921875,63.46253766469204
1361722243.0,1.8694021666666665,33.834583333333335,99.18,37.35666666666666,63.449982786793136
1361722243.25,1.8706835,33.83541666666667,99.18666666325333,33.95515625,63.43619854630139
1361722243.5,1.8726055,33.83625,99.19333333333333,28.52747395833333,63.42241430580964
1361722243.75,1.8752215833333334,33.836666666666666,99.20000000341334,24.022864583333334,63.4086300653179
1361722244.0,1.8782647916666668,33.836666666666666,99.20666666666666,22.38078125,63.39706059992475
1361722244.25,1.88141475,33.83666666666667,99.22416665770666,21.24921875,63.39558344238185
1361722244.5,1.8849384166666665,33.836666666666666,99.24166666666666,20.090885416666666,63.39558344238185
1361722244.75,1.8887824166666667,33.83625,99.25916667562666,18.885,63.39558344238185
1361722245.0,1.893373875,33.83541666666667,99.27666666666666,17.80333333333333,63.39558344238185
1361722245.25,1.9007949166666667,33.834583333333335,99.29916665514666,17.31864583333333,63.39558344238185
1361722245.5,1.9126472083333332,33.83375,99.32166666666666,16.868671875,63.39558344238185
1361722245.75,1.928770625,33.833333333333336,99.34416667818667,15.61859375,63.39558344238185
1361722246.0,1.948684625,33.833333333333336,99.36666666666667,13.684947916666665,63.39558344238185
1361722246.25,1.9709477499999999,33.833333333333336,99.38583332352,11.666328125,63.39558344238185
1361722246.5,1.992623625,33.833333333333336,99.405,10.83984375,63.39558344238185
1361722246.75,2.0136054166666666,33.83375,99.42416667648001,10.20109375,63.39558344238185
1361722247.0,2.0341600833333335,33.834583333333335,99.44333333333334,8.9925,63.39558344238185
1361722247.25,2.0546080000000004,33.83541666666667,99.45749999274668,8.442682291666667,63.39558344238185
1361722247.5,2.0746822083333334,33.83625,99.47166666666666,7.865156249999999,63.39558344238185
1361722247.75,2.0942759166666667,33.836666666666666,99.48583334058667,6.700208333333333,63.39558344238185
1361722248.0,2.1113069166666665,33.836666666666666,99.5,5.863385416666667,63.39558344238185
1361722248.25,2.1236930833333334,33.83666666666667,99.5124999936,5.343541666666667,63.39558344238185
1361722248.5,2.1299929583333337,33.836666666666666,99.525,5.007421875,63.39558344238185
1361722248.75,2.13058025,33.83625,99.5375000064,5.812083333333334,63.39558344238185
1361722249.0,2.1258286666666666,33.83541666666667,99.55,6.261875,63.39558344238185
1361722249.25,2.116645791666667,33.834583333333335,99.56583332522666,6.199453125000001,63.39558344238185
1361722249.5,2.105914625,33.83375,99.58166666666668,6.118932291666667,63.39558344238185
1361722249.75,2.094382625,33.83291666666667,99.59750000810668,5.951614583333332,63.39558344238185
1361722250.0,2.0823701666666667,33.83208333333333,99.61333333333334,4.620442708333333,63.39558344238185
1361722250.25,2.0703577083333333,33.831250000000004,99.62749999274668,3.231901041666667,63.39558344238185
1361722250.5,2.05834525,33.830416666666665,99.64166666666668,3.488359375,63.39558344238185
1361722250.75,2.0464395416666665,33.830416666666665,99.65583334058667,5.482083333333333,63.39558344238185
1361722251.0,2.036242291666667,33.831250000000004,99.67,7.103255208333333,63.39558344238185
1361722251.25,2.027700125,33.83208333333333,99.68083332778667,7.064973958333334,63.39558344238185
1361722251.5,2.0209197916666666,33.83291666666667,99.69166666666666,6.402421875000001,63.39558344238185
1361722251.75,2.0169690416666666,33.835,99.70250000554665,4.983645833333333,63.39558344238185
1361722252.0,2.0164885416666665,33.83833333333333,99.71333333333332,5.407421875,63.39558344238185
1361722252.25,2.0194782916666667,33.84166666666667,99.7216666624,5.561171874999999,63.39558344238185
1361722252.5,2.0243900833333335,33.845,99.72999999999999,4.95,63.39558344238185
1361722252.75,2.030102708333333,33.848333333333336,99.7383333376,3.1867187500000003,63.39558344238185
1361722253.0,2.036295791666667,33.85166666666667,99.74666666666667,5.0193489583333335,63.39558344238185
1361722253.25,2.042488875,33.855,99.7508333312,9.336432291666666,63.39558344238185
1361722253.5,2.0486819583333333,33.85833333333333,99.755,10.006484375000001,63.39558344238185
1361722253.75,2.054875041666667,33.86125,99.75916666879999,7.326822916666668,63.39558344238185
1361722254.0,2.0605876249999997,33.863749999999996,99.76333333333332,2.5509375000000003,63.392705470684064
1361722254.25,2.0653925833333333,33.86625,99.76333333333332,-2.0053906249999995,63.39093753531663
1361722254.5,2.068702666666667,33.86875,99.76333333333332,-3.556041666666666,63.3810695883036
1361722254.75,2.069396708333333,33.87,99.76333333333332,-3.486223958333333,63.371201641290575
1361722255.0,2.0673679166666665,33.87,99.76333333333332,-4.684505208333333,63.361333694277555
1361722255.25,2.0634705416666668,33.87,99.76166666751999,-6.120338541666666,63.353932734017775
1361722255.5,2.0591460416666667,33.87,99.75999999999999,-6.490807291666666,63.34714852044632
1361722255.75,2.054768166666667,33.87,99.75833333247999,-4.6340104166666665,63.33851406680992
1361722256.0,2.050123333333333,33.87,99.75666666666666,-5.285390625,63.32864611979689
1361722256.25,2.0452115416666667,33.87,99.76166666410666,-8.73953125,63.315813351701216
1361722256.5,2.040139583333333,33.87,99.76666666666665,-10.186432291666666,63.30001576252288
