timestamp,EDA,TEMP,HR,BVP,ACC_mag
1361723861.0,1.9749567499999998,31.47,,10.782135416666668,62.2536804221422
1361723861.25,2.0651372857142856,31.47,,11.15986607142857,62.23491110299059
1361723861.5,2.142401625,31.47,,11.6792578125,62.21473999321634
1361723861.75,2.2038485555555556,31.47222222222222,,12.197708333333333,62.19804472694026
1361723862.0,2.2530061,31.476,,12.365781250000001,62.18468851391939
1361723862.25,2.293225909090909,31.479090909090907,,11.727244318181818,62.173760703265955
1361723862.5,2.326742416666667,31.481666666666666,,10.904869791666668,62.1646541943881
1361723862.75,2.4348486250000003,31.485,,10.708828125000002,62.16264094370698
1361723863.0,2.524694125,31.488333333333333,,10.269140625,62.15447920424811
1361723863.25,2.591953375,31.491666666666664,,9.238515625,62.136069983492966
1361723863.5,2.639295666666667,31.495,,7.745807291666666,62.10507588326899
1361723863.75,2.6674108333333333,31.498333333333335,,6.725208333333334,62.08127314274147
1361723864.0,2.676298875,31.50166666666667,,6.066302083333333,62.07005528168279
1361723864.25,2.6810632083333332,31.505000000000006,,4.966354166666667,62.06515364219191
1361723864.5,2.67940825,31.508333333333336,,3.655052083333333,62.06385317014326
1361723864.75,2.6772194166666665,31.510833333333334,,2.296614583333333,62.063853170143254
1361723865.0,2.6804225416666667,31.512500000000003,,1.0560156250000001,62.069678585226605
1361723865.25,2.6896192083333332,31.514166666666668,,0.7011197916666667,62.08359014194349
1361723865.5,2.699364041666667,31.515833333333337,,0.8030989583333333,62.09666406511055
1361723865.75,2.709108875,31.5175,,0.5541666666666666,62.11509110682445
1361723866.0,2.718853708333333,31.519166666666667,,0.8909114583333334,62.138450441661156
1361723866.25,2.731267833333334,31.520833333333332,,1.4734895833333332,62.1647337926367
1361723866.5,2.743681958333333,31.522500000000004,,1.9607552083333335,62.19593849049726
1361723866.75,2.756096083333334,31.52416666666667,,2.753151041666667,62.24944713120493
1361723867.0,2.7653070416666665,31.525833333333335,,3.532734375,62.30619758032653
1361723867.25,2.7723292083333333,31.5275,,4.201328125,62.378782003217275
1361723867.5,2.778283666666667,31.52916666666667,,4.867239583333333,62.454516119419274
1361723867.75,2.7833839583333333,31.53,,5.538984375000001,62.53850716997988
1361723868.0,2.783092291666667,31.53,,6.357187499999999,62.6179116370314
1361723868.25,2.776753708333333,31.53,,6.472526041666666,62.69083852384889
1361723868.5,2.769706791666667,31.53,,6.442968750000001,62.765139231349366
1361723868.75,2.762659875,31.53,,7.1851562499999995,62.83247825890351
1361723869.0,2.7554528333333335,31.53,,7.313020833333333,62.89434880620166
1361723869.25,2.7479255000000005,31.53,,6.965572916666667,62.95329533736098
1361723869.5,2.7403981666666666,31.53,,7.067838541666667,63.007320521635286
1361723869.75,2.732870833333333,31.53,,6.648411458333334,63.03904176306249
1361723870.0,2.7285466666666665,31.53,,5.832682291666667,63.06752119607577
1361723870.25,2.7264112916666665,31.53,,5.671640624999999,63.080250578865
1361723870.5,2.725130083333333,31.53,,5.43234375,63.090291847841094
1361723870.75,2.723848875,31.53,,4.953802083333334,63.091530679415364
1361723871.0,2.7224074999999996,31.53,49.0,4.666744791666667,63.091530679415364
1361723871.25,2.7206991666666664,31.53,49.0,4.99828125,63.08992211801586
1361723871.5,2.71856375,31.53,49.0,5.417109374999999,63.087777369483184
1361723871.75,2.715947875,31.53,49.0,4.954270833333333,63.08724118235002
1361723872.0,2.713278583333333,31.53,49.0,4.711822916666667,63.08724118235002
1361723872.25,2.7109295833333333,31.53,49.16666658133333,5.11984375,63.08724118235002
1361723872.5,2.708206875,31.53,49.33333333333333,4.8355468749999995,63.08724118235002
1361723872.75,2.7052706250000003,31.530833333333334,49.50000008533333,4.602109375,63.08724118235002
1361723873.0,2.702334375,31.5325,49.666666666666664,5.135078125,63.08724118235002
1361723873.25,2.699398125,31.534166666666668,49.87499989333333,5.184453125,63.091941302835465
1361723873.5,2.6966754166666664,31.535833333333333,50.08333333333333,5.437890624999999,63.10706763409947
1361723873.75,2.6945399583333334,31.537500000000005,50.29166677333333,5.976640624999999,63.12573209305351
1361723874.0,2.692938375,31.53916666666667,50.5,5.993697916666666,63.15142666797897
1361723874.25,2.692351125,31.540833333333335,51.180832984746665,5.865130208333333,63.17909323468577
1361723874.5,2.6941128333333335,31.5425,51.861666666666665,5.5848177083333335,63.20675980139257
1361723874.75,2.6992912083333334,31.545,52.54250034858667,5.632604166666667,63.234836867786775
1361723875.0,2.7079930416666667,31.548333333333332,53.223333333333336,5.626432291666667,63.26533508777131
1361723875.25,2.71792275,31.551666666666666,54.09249955498667,5.262291666666667,63.29731057692029
1361723875.5,2.728226166666667,31.554999999999996,54.961666666666666,5.616927083333334,63.326619142376614
1361723875.75,2.7387431250000005,31.557500000000005,55.830833778346665,6.196119791666668,63.35510670845819
1361723876.0,2.7496871666666665,31.55916666666667,56.699999999999996,6.36859375,63.38277327516499
1361723876.25,2.7610582916666666,31.560833333333335,57.78333277866666,6.298906250000001,63.40594497123005
1361723876.5,2.773016666666667,31.5625,58.86666666666666,6.093489583333334,63.420085360888436
1361723876.75,2.785135208333333,31.564166666666665,59.950000554666666,5.781041666666667,63.43823446002123
1361723877.0,2.7968800416666664,31.565833333333334,61.03333333333333,5.759817708333333,63.45267481167088
1361723877.25,2.807930875,31.5675,61.85249958058667,5.886276041666666,63.465143171539175
1361723877.5,2.8172200000000003,31.56916666666667,62.67166666666667,6.038541666666666,63.47597085587309
1361723877.75,2.823946625,31.57,63.49083375274667,6.054322916666667,63.4760492155944
1361723878.0,2.8299258333333337,31.57,64.31,6.293932291666667,63.475184111079244
1361723878.25,2.837720125,31.57,64.98249965568,6.48375,63.46746552902518
1361723878.5,2.8474897083333333,31.57,65.655,6.146614583333334,63.4606470825316
1361723878.75,2.857579625,31.57,66.32750034432,5.775911458333333,63.45785292489547
1361723879.0,2.867242458333333,31.57,67.0,5.109635416666666,63.464332011403904
1361723879.25,2.8764782083333333,31.57,67.57166637397333,4.691380208333333,63.46683237959578
1361723879.5,2.8851267083333334,31.57,68.14333333333333,4.585963541666667,63.464532673213775
1361723879.75,2.8934015,31.57,68.71500029269333,4.2596875,63.45476832667353
1361723880.0,2.9016762916666665,31.57,69.28666666666666,4.00515625,63.44520940453659
1361723880.25,2.908669833333333,31.57,69.78666641066665,3.700546875,63.43802813715839
1361723880.5,2.9142219583333335,31.57,70.28666666666666,3.238958333333333,63.43736465456542
1361723880.75,2.916837875,31.57083333333333,70.78666692266667,2.90171875,63.44810702454365
1361723881.0,2.9131542916666664,31.5725,71.28666666666666,2.25640625,63.45917855076297
1361723881.25,2.904185541666667,31.574166666666667,71.69333312511999,1.7476562499999997,63.47943483848098
1361723881.5,2.892707625,31.575833333333335,72.1,1.4063541666666666,63.50555088934994
1361723881.75,2.8798950416666664,31.5775,72.50666687488,1.07609375,63.50919201741724
1361723882.0,2.8660681666666665,31.579166666666666,72.91333333333333,1.04671875,63.50167670702226
1361723882.25,2.8522412916666666,31.580833333333334,73.27583314773332,0.7736718749999999,63.51287234224447
1361723882.5,2.83825425,31.582499999999996,73.63833333333332,0.27406249999999993,63.528127418348284
1361723882.75,2.8241070416666667,31.584166666666665,74.00083351893333,-0.007083333333333368,63.54080242260068
1361723883.0,2.8095861250000005,31.58583333333333,74.36333333333333,-0.8212239583333334,63.54396533567831
1361723883.25,2.795812625,31.587500000000002,74.69666649599999,-1.6362239583333331,63.54606264591542
1361723883.5,2.7834805416666666,31.589166666666667,75.03,-2.2875260416666667,63.543774988278805
1361723883.75,2.773817708333333,31.59,75.363333504,-3.435390625,63.54484635721727
1361723884.0,2.7684257083333335,31.59,75.69666666666666,-4.260208333333334,63.542347853415215
1361723884.25,2.765542875,31.59,76.01416650410665,-5.061901041666667,63.53489262915272
1361723884.5,2.763354083333333,31.59,76.33166666666665,-5.439036458333334,63.53117076753322
1361723884.75,2.762553291666667,31.59,76.64916682922666,-5.9968489583333335,63.553346926710105
1361723885.0,2.766236875,31.59,76.96666666666665,-5.830989583333334,63.57982185627642
1361723885.25,2.7786757083333335,31.59,77.23583319551999,-5.444348958333333,63.59311602666344
1361723885.5,2.7989088333333334,31.59,77.505,-5.402526041666667,63.607390026466696
1361723885.75,2.819462291666667,31.59,77.77416680448,-5.3054427083333335,63.624161901115166
1361723886.0,2.8403894583333336,31.59,78.04333333333334,-4.418828125,63.64691907404682
1361723886.25,2.861850458333333,31.59,78.26999988394667,-3.5125000000000006,63.668364195060256
1361723886.5,2.883311458333333,31.59,78.49666666666667,-2.499166666666667,63.689317174696576
1361723886.75,2.907174833333333,31.590833333333336,78.72333344938666,-1.0088802083333335,63.70584410011182
1361723887.0,2.930504375,31.5925,78.94999999999999,0.21208333333333326,63.71182037082559
1361723887.25,2.9520187916666667,31.594166666666666,79.14499990015999,1.0565885416666667,63.71178282979485
1361723887.5,2.9714511666666668,31.59583333333333,79.34,1.2824739583333333,63.70162248449022
1361723887.75,2.9893353749999996,31.5975,79.53500009984,1.6311458333333333,63.68381045466143
1361723888.0,3.0029487083333333,31.599166666666665,79.73,1.2277864583333333,63.662803464007844
1361723888.25,3.00641875,31.60083333333333,79.92249990144,0.9713020833333333,63.62969048915597
1361723888.5,3.0010267916666664,31.602499999999996,80.11500000000001,1.5333854166666667,63.59239505448827
1361723888.75,2.99451375,31.605833333333333,80.30750009856,2.05578125,63.552631084285174
1361723889.0,2.9828757083333333,31.610833333333336,80.5,1.5492968749999998,63.506318185742714
1361723889.25,2.9664329583333338,31.61583333333333,80.68999990272,0.17851562499999996,63.45456685645467
1361723889.5,2.947267541666667,31.620833333333334,80.88,-1.8770572916666666,63.40133037554929
1361723889.75,2.9221763333333333,31.625,81.07000009727999,-4.334192708333333,63.348960384429155
1361723890.0,2.895536958333334,31.62833333333333,81.25999999999999,-6.287369791666666,63.31364204717632
1361723890.25,2.8698585,31.63166666666667,81.44333323946665,-6.951979166666667,63.28239188560648
1361723890.5,2.846101916666667,31.635,81.62666666666667,-6.848567708333334,63.260592504325295
1361723890.75,2.8235198333333336,31.638333333333332,81.81000009386666,-5.466119791666667,63.245039289447305
1361723891.0,2.801738541666667,31.641666666666666,81.99333333333333,-4.154661458333333,63.224596853691246
1361723891.25,2.781345291666667,31.645,82.1641665792,-3.7167187499999996,63.236790197701175
1361723891.5,2.7621799166666663,31.64833333333333,82.335,-3.847786458333333,63.242002372113824
1361723891.75,2.7467515000000002,31.65,82.50583342079999,-4.119583333333333,63.25605022474846
1361723892.0,2.7420535833333335,31.65,82.67666666666666,-3.651380208333333,63.28141177038111
1361723892.25,2.7460041250000002,31.65,82.82249992533333,-1.7571614583333333,63.312211746759345
1361723892.5,2.755560125,31.65,82.96833333333333,0.8886197916666668,63.344988802540286
1361723892.75,2.770508041666666,31.65,83.11416674133332,3.9150520833333338,63.378252169945824
1361723893.0,2.7870041249999997,31.65,83.25999999999999,6.553359375,63.407228143966385
1361723893.25,2.804087458333333,31.65,83.37916660565332,8.071328125,63.43897032469574
1361723893.5,2.821170791666667,31.65,83.49833333333333,8.908463541666668,63.449102287527445
1361723893.75,2.838254125,31.65,83.61750006101333,8.460286458333334,63.4540133810027
1361723894.0,2.855337458333333,31.65,83.73666666666666,8.091848958333333,63.47986998370498
1361723894.25,2.87162,31.65,83.87833326079999,8.269739583333335,63.47555503420845
1361723894.5,2.886034083333333,31.65,84.02,8.522057291666666,63.482083787140205
1361723894.75,2.8963374999999996,31.649166666666662,84.1616667392,9.298619791666667,63.478752527865886
1361723895.0,2.9006082916666664,31.647499999999997,84.30333333333333,9.926223958333333,63.476489545241925
1361723895.25,2.9010353333333327,31.645833333333332,84.49416656896,9.847708333333333,63.47845725638348
1361723895.5,2.898579583333333,31.644166666666663,84.685,9.562708333333333,63.478618866628636
1361723895.75,2.894148583333333,31.6425,84.87583343104,9.356536458333332,63.466914290575914
1361723896.0,2.889717583333333,31.64083333333333,85.06666666666666,9.079505208333332,63.46395834766495
1361723896.25,2.885286583333333,31.639166666666664,85.28249988949332,8.599192708333332,63.45266731750909
1361723896.5,2.880214958333333,31.637500000000003,85.49833333333333,8.612656249999999,63.45411051338633
1361723896.75,2.8759441249999997,31.636666666666667,85.71416677717333,8.5371875,63.450624518615875
1361723897.0,2.8716732916666667,31.636666666666667,85.92999999999999,8.007239583333334,63.43009136139278
1361723897.25,2.86820325,31.63666666666667,86.15166655317333,8.093151041666667,63.41810092535328
1361723897.5,2.8666016666666665,31.636666666666667,86.37333333333333,7.880937500000001,63.4036450211322
1361723897.75,2.866334708333333,31.6375,86.59500011349333,6.7324479166666675,63.39514991074782
1361723898.0,2.8672422916666664,31.639166666666668,86.81666666666666,6.39921875,63.3821791243513
1361723898.25,2.868149875,31.640833333333333,87.01083323392,6.191927083333334,63.36460736555062
1361723898.5,2.8690574583333333,31.6425,87.20499999999998,5.83109375,63.34810325048009
1361723898.75,2.8699650416666667,31.644166666666667,87.39916676607999,5.1700260416666675,63.34396294435616
1361723899.0,2.8712997083333334,31.645833333333332,87.59333333333332,3.807473958333334,63.331116762112515
1361723899.25,2.8747697916666666,31.647500000000004,87.77583323989332,2.585104166666667,63.32656326205972
1361723899.5,2.8844325833333335,31.649166666666662,87.95833333333331,1.0823437500000004,63.323114770623214
1361723899.75,2.8977789583333333,31.65,88.14083342677333,-0.40447916666666645,63.325129043889355
1361723900.0,2.911125333333333,31.65,88.32333333333332,-1.377942708333333,63.330557674389816
1361723900.25,2.9244717083333334,31.65,88.47916658688,-2.6749218749999994,63.324165828648745
1361723900.5,2.937818083333333,31.65,88.63499999999999,-3.093671875,63.32872885280409
1361723900.75,2.951164458333333,31.65,88.79083341312,-2.903776041666666,63.355613327415206
1361723901.0,2.963763416666666,31.65,88.94666666666667,-3.506979166666666,63.369209206925056
1361723901.25,2.975988708333333,31.65,89.08999992661333,-4.129973958333333,63.41525991394612
1361723901.5,2.9867725833333334,31.65,89.23333333333333,-4.514557291666667,63.44412376037082
1361723901.75,2.995634583333333,31.650833333333328,89.37666674005334,-4.509895833333333,63.46823161774078
1361723902.0,3.0020942499999994,31.6525,89.52,-3.0536718749999996,63.47441274947621
1361723902.25,3.004710166666667,31.654166666666665,89.66249992703999,-1.16,63.48968057794321
1361723902.5,3.00049275,31.655833333333334,89.80499999999999,0.20031250000000003,63.49394281599712
1361723902.75,2.9904562916666664,31.6575,89.94750007296,2.0209635416666667,63.494765914999874
1361723903.0,2.9791919583333333,31.659166666666664,90.08999999999999,4.0503125,63.494765914999874
1361723903.25,2.967073458333333,31.660833333333333,90.19666661205332,5.429479166666667,63.50716143361615
1361723903.5,2.954527875,31.662500000000005,90.30333333333331,6.254036458333332,63.5089315608117
1361723903.75,2.9418755416666666,31.66416666666667,90.41000005461332,7.078489583333334,63.485501404936834
1361723904.0,2.9288495,31.665833333333335,90.51666666666665,7.763072916666666,63.474002478866375
1361723904.25,2.915876791666667,31.6675,90.57666663594665,8.427708333333333,63.43041900392336
1361723904.5,2.9042387499999998,31.66916666666667,90.63666666666666,9.074791666666668,63.40426891895756
1361723904.75,2.8944692083333337,31.67,90.69666669738666,9.53859375,63.38102439898796
1361723905.0,2.8866749166666668,31.67,90.75666666666666,9.287786458333334,63.375213268995545
1361723905.25,2.8804287916666667,31.67,90.74083334144,8.679765625,63.36068544401456
1361723905.5,2.8751969583333334,31.67,90.725,8.665494791666665,63.357779879018345
1361723905.75,2.87108625,31.67,90.70916665856,8.275416666666667,63.35777987901835
1361723906.0,2.8680432916666665,31.67,90.69333333333333,7.397447916666667,63.357779879018345
1361723906.25,2.8657477083333336,31.67,90.63500002986666,7.260052083333334,63.356547154126055
1361723906.5,2.8635588750000003,31.67,90.57666666666665,6.797864583333333,63.35613624582863
1361723906.75,2.861103125,31.67,90.51833330346666,6.363203124999999,63.35613624582863
1361723907.0,2.858754166666667,31.67,90.46,6.298177083333333,63.35613624582863
1361723907.25,2.8564052083333333,31.67,90.37333337770666,5.911223958333334,63.35613624582863
1361723907.5,2.8537892916666667,31.67,90.28666666666666,5.741640625,63.35613624582863
1361723907.75,2.850799666666667,31.670833333333334,90.19999995562667,5.602057291666667,63.35613624582863
1361723908.0,2.8473829583333337,31.672500000000003,90.11333333333333,5.339114583333333,63.35798533316706
1361723908.25,2.8436993333333334,31.674166666666668,90.02916670975999,5.470624999999999,63.36127259954649
1361723908.5,2.8400157500000005,31.675833333333333,89.945,5.370364583333334,63.39037177397574
1361723908.75,2.836385541666667,31.677500000000006,89.86083329024,5.088515625,63.42119174227495
1361723909.0,2.8329154583333334,31.67916666666667,89.77666666666666,5.302604166666667,63.452011710574176
1361723909.25,2.8295521666666663,31.680833333333336,89.69416670890666,5.332994791666667,63.48283167887339
1361723909.5,2.826509208333333,31.6825,89.61166666666665,5.669427083333335,63.49988529621272
1361723909.75,2.823839916666667,31.684166666666666,89.52916662442665,6.071145833333333,63.50317256259215
1361723910.0,2.8214375416666666,31.685833333333335,89.44666666666666,6.527395833333333,63.50645982897158
1361723910.25,2.819622416666667,31.6875,89.38083336704,7.287630208333333,63.509747095351024
1361723910.5,2.818714875,31.689166666666665,89.315,7.488020833333334,63.513034361730455
1361723910.75,2.8186614999999997,31.69,89.24916663296,7.958255208333334,63.51632162810989
1361723911.0,2.819462291666666,31.69,89.18333333333334,8.465494791666666,63.517759807150895
1361723911.25,2.8210105,31.69,89.13000002730668,8.189453125,63.517759807150895
1361723911.5,2.8231993333333336,31.69,89.07666666666668,8.19890625,63.49194789910109
1361723911.75,2.825922041666667,31.69,89.02333330602667,8.732578125,63.4644151971813
1361723912.0,2.829231958333333,31.69,88.97000000000001,8.554635416666667,63.43688249526152
1361723912.25,2.83328925,31.69,88.93000002048001,8.270078125,63.4087334308956
1361723912.5,2.837666875,31.69,88.89000000000001,8.328072916666667,63.39167981355627
1361723912.75,2.8422580416666663,31.69,88.84999997952,7.970130208333334,63.388392547176835
1361723913.0,2.847116125,31.69,88.81,7.144322916666667,63.385105280797404
1361723913.25,2.8518140833333327,31.69,88.76750002176,6.317109375000001,63.381818014417966
1361723913.5,2.8565120416666665,31.69,88.725,5.775156249999999,63.378530748038536
1361723913.75,2.8607829166666665,31.69,88.68249997823999,4.9222656250000005,63.375243481659105
1361723914.0,2.864626708333333,31.69,88.63999999999999,4.176510416666667,63.378360858423775
1361723914.25,2.8681501666666667,31.69,88.59916668757332,4.215052083333333,63.38550178743201
1361723914.5,2.871460041666667,31.69,88.55833333333331,3.9117187500000004,63.3905928513578
1361723914.75,2.874396208333333,31.69,88.51749997909332,2.9926302083333334,63.400688110251735
1361723915.0,2.8767451666666664,31.69,88.47666666666665,2.7423697916666665,63.41217676897835
1361723915.25,2.878079833333333,31.69,88.45000001365332,2.6280989583333336,63.42477357615156
1361723915.5,2.8790407499999997,31.69,88.42333333333332,2.000338541666667,63.44561308045963
1361723915.75,2.8797881249999997,31.690833333333334,88.39666665301333,1.8902604166666668,63.46661635790367
1361723916.0,2.8802685833333332,31.6925,88.37,1.9340885416666669,63.4876196353477
1361723916.25,2.8806422499999997,31.69416666666667,88.35833333930667,2.3280729166666667,63.508622912791736
1361723916.5,2.8804820416666668,31.695833333333336,88.34666666666666,3.0057552083333334,63.52962619023577
1361723916.75,2.8803218333333334,31.6975,88.33499999402666,3.249791666666667,63.55062946767979
1361723917.0,2.8802150416666663,31.69916666666667,88.32333333333332,3.8808072916666667,63.56522810197972
1361723917.25,2.8802684166666666,31.700833333333335,88.32416666623999,4.314765625000001,63.584629242802755
1361723917.5,2.880962416666667,31.7025,88.32499999999999,4.617447916666667,63.6123345818658
1361723917.75,2.882617375,31.705000000000002,88.32583333375999,5.369296875,63.61995533403646
1361723918.0,2.884966375,31.70833333333334,88.32666666666665,6.060312500000001,63.62618268637445
1361723918.25,2.8887033750000004,31.71166666666667,88.32749999957332,6.481901041666667,63.631918252711976
1361723918.5,2.894202125,31.715,88.32833333333332,7.003359375,63.635272843648835
1361723918.75,2.90221,31.71666666666667,88.32916666709333,7.290807291666667,63.637931858482915
1361723919.0,2.912193125,31.71666666666667,88.33,7.7129166666666675,63.637931858482915
1361723919.25,2.9223364166666665,31.716666666666665,88.33,7.598255208333334,63.637931858482915
1361723919.5,2.9324797083333336,31.71666666666667,88.33,7.271953125,63.637931858482915
1361723919.75,2.9426229999999998,31.7175,88.33,7.50734375,63.637931858482915
1361723920.0,2.952712875,31.719166666666666,88.33,7.185468750000001,63.633092434352484
1361723920.25,2.962642583333333,31.72083333333333,88.33749999616,6.788463541666666,63.599519635139266
1361723920.5,2.971771541666666,31.7225,88.345,6.760130208333334,63.55915772233954
1361723920.75,2.979298916666666,31.723333333333333,88.35250000383999,6.535781249999999,63.52959795803262
1361723921.0,2.985705166666667,31.723333333333333,88.36,6.106093749999999,63.50003819372569
1361723921.25,2.9908835833333334,31.723333333333333,88.37333332650667,5.983802083333333,63.47047842941876
1361723921.5,2.994086708333333,31.723333333333333,88.38666666666667,5.890885416666666,63.43772784731093
1361723921.75,2.99451375,31.724166666666672,88.40000000682667,5.658098958333333,63.40550906816992
1361723922.0,2.9923249166666666,31.72583333333333,88.41333333333334,5.601901041666667,63.375949303862996
1361723922.25,2.9892285416666664,31.727500000000003,88.42916665856,5.724140625,63.346389539556064
1361723922.5,2.985811875,31.729166666666668,88.44500000000001,5.467604166666667,63.31682977524914
1361723922.75,2.9818613333333333,31.730833333333337,88.46083334144001,5.33875,63.288339571800066
1361723923.0,2.9779107916666665,31.7325,88.47666666666667,5.6196875,63.27164093805754
1361723923.25,2.9739602499999997,31.73416666666667,88.48583332864,5.528307291666667,63.27378005977326
1361723923.5,2.970009708333333,31.735833333333336,88.495,5.313125,63.26950181634181
1361723923.75,2.9666997916666666,31.736666666666665,88.50416667136,5.558645833333333,63.272175718486466
1361723924.0,2.9638169583333336,31.736666666666665,88.51333333333332,5.597161458333333,63.28073220534935
1361723924.25,2.9620017916666668,31.736666666666668,88.5216666624,5.3663541666666665,63.28928869221226
1361723924.5,2.963336416666667,31.736666666666668,88.53,5.482708333333334,63.297845179075146
1361723924.75,2.968034375,31.737499999999997,88.5383333376,5.584765624999999,63.30640166593805
1361723925.0,2.976896416666667,31.739166666666666,88.54666666666667,5.319088541666667,63.31495815280095
1361723925.25,2.9916308750000002,31.74083333333333,88.55416666282667,5.353750000000001,63.326100789770095
1361723925.5,3.010262458333333,31.742499999999996,88.56166666666667,5.708932291666667,63.342043591295415
1361723925.75,3.0294279166666667,31.742499999999996,88.56916667050666,5.743828125,63.37008313993965
1361723926.0,3.048593375,31.74083333333333,88.57666666666667,5.61203125,63.39162119781261
1361723926.25,3.067758833333334,31.739166666666666,88.58583332864,5.893958333333334,63.414228816543435
1361723926.5,3.086924291666667,31.737499999999997,88.595,6.0902343750000005,63.44378858085037
1361723926.75,3.1060897500000006,31.7375,88.60416667135999,5.903229166666666,63.4702237882078
1361723927.0,3.124240875,31.739166666666666,88.61333333333333,6.041927083333334,63.48717117240833
1361723927.25,3.1384415000000003,31.74083333333333,88.61916666367999,6.305520833333333,63.50415856418123
1361723927.5,3.1485847916666665,31.742499999999996,88.625,6.348098958333334,63.51819731340217
1361723927.75,3.155578333333333,31.743333333333336,88.63083333632,6.628567708333333,63.53801259220119
1361723928.0,3.158995041666666,31.743333333333336,88.63666666666666,7.020651041666667,63.55500121890537
1361723928.25,3.156859583333333,31.743333333333336,88.64249999701332,7.227526041666667,63.562063636186025
1361723928.5,3.1501329583333337,31.743333333333336,88.64833333333331,7.5332291666666675,63.55952525222818
1361723928.75,3.142392041666666,31.745,88.65416666965332,7.8429947916666665,63.54193125115925
1361723929.0,3.133636791666667,31.748333333333335,88.65999999999998,8.149401041666666,63.524872233327905
1361723929.25,3.1240273749999994,31.751666666666665,88.72083330218665,8.532473958333332,63.50847046429211
1361723929.5,3.114151,31.755,88.78166666666665,8.920833333333333,63.492725785655445
1361723929.75,3.104274625,31.757500000000004,88.84250003114666,9.262343750000001,63.47796545227814
1361723930.0,3.0954125833333332,31.75916666666667,88.90333333333332,9.511510416666667,63.467262034470195
1361723930.25,3.0878851666666667,31.760833333333334,89.01916660735999,9.908072916666667,63.45811932849089
1361723930.5,3.0777952916666664,31.7625,89.13499999999999,9.964973958333333,63.45606548082366
1361723930.75,3.0644488750000005,31.763333333333335,89.25083339264,9.879088541666667,63.44655454787278
1361723931.0,3.0457105,31.763333333333335,89.36666666666667,9.996354166666666,63.43728765589079
1361723931.25,3.0194982083333333,31.763333333333335,89.53749991253333,9.920416666666666,63.43552497212184
1361723931.5,2.9899226249999997,31.763333333333335,89.70833333333334,9.676250000000001,63.43979343087195
1361723931.75,2.95837175,31.762500000000003,89.87916675413334,9.466640625,63.444802538279866
1361723932.0,2.9253794583333335,31.760833333333334,90.05,9.191171875,63.44993366906027
1361723932.25,2.8926540833333334,31.75916666666667,90.20833325226666,9.059973958333334,63.45855097435632
1361723932.5,2.855177416666667,31.757500000000004,90.36666666666666,9.006822916666668,63.46667518549964
1361723932.75,2.806062666666667,31.756666666666664,90.52500008106666,8.532161458333333,63.47447070149644
1361723933.0,2.7492994583333332,31.756666666666664,90.68333333333332,8.219895833333334,63.48201953567056
1361723933.25,2.6923617916666664,31.756666666666664,90.81499993258666,7.903645833333333,63.48784465325886
1361723933.5,2.637292583333333,31.756666666666664,90.94666666666666,7.541536458333333,63.489529555087046
1361723933.75,2.5839850833333333,31.75833333333333,91.07833340074666,7.760989583333333,63.492936011682396
1361723934.0,2.5344679583333334,31.761666666666667,91.21,7.506588541666667,63.499007077526905
1361723934.25,2.492851875,31.764999999999997,91.2849999616,7.171328125,63.504913994475636
1361723934.5,2.4556134166666665,31.76833333333333,91.35999999999999,7.559583333333332,63.50959040558765
1361723934.75,2.4213645416666667,31.770833333333332,91.43500003839999,8.270468750000001,63.51541547717616
1361723935.0,2.3895714166666666,31.772499999999997,91.50999999999999,8.807916666666666,63.51537009908929
1361723935.25,2.3583655416666667,31.774166666666662,91.5349999872,8.4278125,63.474738704884004
1361723935.5,2.3490477916666666,31.775833333333328,91.56,7.849427083333333,63.419132980888854
1361723935.75,2.3777939999999997,31.7775,91.5850000128,8.01484375,63.32388869314793
1361723936.0,2.4261613333333334,31.77916666666667,91.61,8.449192708333333,63.21126110196338
1361723936.25,2.48181775,31.780833333333334,91.60166667093333,8.764375,63.09297297926011
1361723936.5,2.5420653333333334,31.7825,91.59333333333333,9.182083333333333,62.968599990196054
1361723936.75,2.604715291666667,31.7825,91.58499999573334,8.505078125,62.836199236865106
1361723937.0,2.669180375,31.780833333333334,91.57666666666667,7.964244791666666,62.69138479568553
1361723937.25,2.7336988333333334,31.77916666666667,91.56583333888,7.659166666666668,62.558521379378384
1361723937.5,2.798270666666667,31.7775,91.555,6.592291666666668,62.42060930640226
1361723937.75,2.862895875,31.7775,91.54416666112002,5.019453125,62.27751925901895
1361723938.0,2.9276812500000005,31.779166666666665,91.53333333333335,3.628671875,62.15240623886704
1361723938.25,2.9930538749999998,31.780833333333334,91.51750000810667,2.919869791666667,62.06175796152726
1361723938.5,3.0419837083333334,31.782500000000002,91.50166666666667,2.587057291666667,61.97856240742512
1361723938.75,3.0652884583333333,31.78333333333333,91.48583332522666,2.040859375,61.945859924829534
1361723939.0,3.078061958333334,31.78333333333333,91.46999999999998,0.9534635416666668,61.93479058322985
1361723939.25,3.0861765833333332,31.783333333333335,91.45250000895999,-0.05666666666666662,61.92475637150077
1361723939.5,3.091888875,31.78333333333333,91.43499999999997,-0.9029947916666669,61.91008428549316
1361723939.75,3.096960541666667,31.784166666666668,91.41749999103997,-1.0721875,61.896148736383964
1361723940.0,3.101925416666667,31.78583333333333,91.39999999999998,-0.790625,61.89069978772442
1361723940.25,3.1069436666666665,31.787499999999998,91.37916667733332,-0.7567187500000001,61.887593748331625
1361723940.5,3.112068666666667,31.78916666666667,91.35833333333332,-0.3723958333333333,61.890756012559564
1361723940.75,3.11740725,31.79,91.33749998933331,0.32421874999999994,61.90124169975781
1361723941.0,3.123226333333333,31.79,91.31666666666665,0.8631770833333333,61.895019439775034
1361723941.25,3.1305401666666666,31.79,91.30166667434665,1.5984635416666668,61.89173754807203
1361723941.5,3.1398292500000005,31.79,91.28666666666666,2.148229166666667,61.90552987969573
1361723941.75,3.149492041666667,31.79,91.27166665898666,2.53859375,61.905952780947985
1361723942.0,3.158514208333333,31.79,91.25666666666666,3.205911458333334,61.90112226487301
1361723942.25,3.1674295833333335,31.79,91.24083334144,3.684791666666667,61.90137643173302
1361723942.5,3.176078,31.79,91.225,4.133723958333333,61.92120788145331
1361723942.75,3.184512875,31.79,91.20916665856,3.951640625,61.95535910923468
1361723943.0,3.192894375,31.79,91.19333333333333,3.33328125,62.009255585981116
1361723943.25,3.201169125,31.79,91.17416667648,3.5321874999999996,62.01656329671752
1361723943.5,3.2089634583333333,31.79,91.155,3.5976822916666666,62.013490514114984
1361723943.75,3.21606375,31.79,91.13583332351999,3.5099479166666665,62.012226272143955
1361723944.0,3.221242125,31.79,91.11666666666666,3.405807291666667,62.02181282320115
1361723944.25,3.2222030833333335,31.79,91.09166667946666,2.4023177083333334,62.02967816215911
1361723944.5,3.2200676666666666,31.79,91.06666666666666,1.3866145833333332,62.00965081911758
1361723944.75,3.2167577499999997,31.79,91.04166665386666,0.7398177083333333,61.99652356258139
1361723945.0,3.212647041666667,31.79,91.01666666666665,-0.36200520833333333,61.98310362037757
1361723945.25,3.2077355833333336,31.79,90.99583334399999,-1.541640625,61.97119926313638
1361723945.5,3.2027707500000004,31.79,90.975,-2.4790625,61.952627857639726
1361723945.75,3.197485625,31.79,90.95416665599998,-2.580703125,61.9362396564788
1361723946.0,3.1922004999999998,31.79,90.93333333333332,-2.3751822916666665,61.902269216384354
1361723946.25,3.1868085833333333,31.79,90.91666667519999,-3.149270833333334,61.90277794409851
1361723946.5,3.1817369583333335,31.79,90.9,-4.34671875,61.91715550414551
1361723946.75,3.177092416666667,31.791666666666668,90.8833333248,-5.254166666666666,61.92757907499788
1361723947.0,3.173729125,31.795,90.86666666666667,-5.880937499999999,61.92980583485311
1361723947.25,3.17250125,31.798333333333332,90.85250000725334,-5.445885416666666,61.93312717899451
1361723947.5,3.171273375,31.801666666666662,90.83833333333334,-5.108697916666666,61.955128427821926
1361723947.75,3.1695116666666667,31.805000000000003,90.82416665941332,-5.252083333333333,61.97253951744665
1361723948.0,3.167696583333333,31.808333333333334,90.80999999999999,-4.843541666666667,61.99104187720596
1361723948.25,3.16598825,31.811666666666664,90.78916667733331,-4.045078125,62.007692367900574
1361723948.5,3.1641731249999996,31.814999999999998,90.76833333333332,-2.9941666666666666,62.02215536462969
1361723948.75,3.162304583333333,31.81833333333333,90.74749998933332,-2.0234375,62.027365607268884
1361723949.0,3.1600089583333326,31.82166666666667,90.72666666666665,-1.6930989583333333,62.0342579291523
1361723949.25,3.1572328749999996,31.825,90.70000001365331,-0.6914322916666666,62.03896591509797
1361723949.5,3.1537627916666664,31.82833333333333,90.67333333333332,1.0907552083333334,62.03896591509797
1361723949.75,3.149491916666667,31.83,90.64666665301333,2.6068489583333334,62.03896591509797
1361723950.0,3.1442067083333334,31.83,90.61999999999999,4.13296875,62.039805641276985
1361723950.25,3.1382809166666665,31.83,90.58833334954666,5.2629166666666665,62.04064510585894
1361723950.5,3.1327822499999995,31.83,90.55666666666666,6.4815625,62.04366576572985
1361723950.75,3.12765725,31.83,90.52499998378666,7.7594270833333345,62.04836456997347
1361723951.0,3.1225322500000003,31.83,90.49333333333333,8.777369791666667,62.05306337421709
1361723951.25,3.1173538749999996,31.83,90.46000001706666,9.60703125,62.05809780733526
1361723951.5,3.11206875,31.83,90.42666666666666,9.770651041666666,62.0614540960807
1361723951.75,3.1066768333333337,31.83,90.39333331626666,9.701041666666667,62.06615290032432
1361723952.0,3.1012315000000004,31.83,90.36,10.230911458333333,62.07152296231704
1361723952.25,3.096373416666667,31.83,90.32916668245333,10.171848958333333,62.07521487993703
1361723952.5,3.0922093333333334,31.83,90.29833333333333,9.655494791666667,62.08058494192974
1361723952.75,3.0888460416666668,31.83,90.26749998421333,9.249348958333334,62.08196610493712
1361723953.0,3.086497083333333,31.83,90.23666666666666,8.627161458333333,62.06795918593298
1361723953.25,3.084628541666667,31.83,90.20750001493333,7.979791666666666,62.04676166923486
1361723953.5,3.082866791666666,31.83,90.17833333333334,7.335520833333333,62.0228791215404
1361723953.75,3.0812652083333334,31.83,90.14916665173334,6.876640624999999,61.99731842947321
1361723954.0,3.079717,31.83,90.12,6.157682291666666,61.97175773740602
1361723954.25,3.0783822916666668,31.83,90.07000002560001,5.263645833333333,61.94586141646429
1361723954.5,3.077261125,31.83,90.02000000000001,4.809270833333334,61.92164323989528
1361723954.75,3.0766204583333328,31.83,89.9699999744,4.20390625,61.896082547828094
1361723955.0,3.076460291666667,31.83,89.92,3.4143749999999997,61.869850598011816
1361723955.25,3.0763001249999995,31.83,89.83666670933333,3.2252604166666665,61.84529679256826
1361723955.5,3.0761399583333335,31.83,89.75333333333333,2.7896875,61.81906484275198
1361723955.75,3.0759797916666662,31.83083333333333,89.66999995733333,2.445625,61.79682179192104
1361723956.0,3.075819625,31.832499999999996,89.58666666666666,2.300572916666667,61.78996682310163
1361723956.25,3.0771008749999997,31.834166666666665,89.48083338752,1.9826822916666664,61.78996682310163
1361723956.5,3.083133416666667,31.835833333333337,89.37499999999999,2.044010416666667,61.78996682310163
1361723956.75,3.0968535,31.837499999999995,89.26916661247998,2.0095052083333336,61.78996682310163
1361723957.0,3.1190084999999996,31.839166666666667,89.16333333333331,2.226953125,61.78996682310163
1361723957.25,3.1484239583333333,31.840833333333336,89.04666672639998,2.7445312499999996,61.78996682310163
1361723957.5,3.1846287083333333,31.8425,88.92999999999999,2.8352083333333336,61.78996682310163
1361723957.75,3.224473,31.844166666666666,88.8133332736,3.1337499999999996,61.78996682310163
1361723958.0,3.265224833333333,31.84583333333333,88.69666666666666,3.810260416666667,61.78874227499198
1361723958.25,3.3061368333333334,31.8475,88.58583339008,3.8972135416666664,61.790595341544446
1361723958.5,3.3470488333333335,31.849166666666672,88.475,4.283125000000001,61.793795988179305
1361723958.75,3.387960833333333,31.85083333333333,88.36416660991999,4.586979166666667,61.79244415955319
1361723959.0,3.428872833333333,31.852500000000003,88.25333333333333,4.519401041666668,61.79880359662291
1361723959.25,3.4685035833333333,31.854166666666668,88.14666672128,4.510390625,61.80486840929864
1361723959.5,3.502635625,31.855833333333333,88.03999999999999,4.07,61.81017561167875
1361723959.75,3.5280657916666667,31.8575,87.93333327872,3.6955468750000002,61.81379786659274
1361723960.0,3.5428188333333335,31.859166666666667,87.82666666666667,3.2085156250000004,61.817883509355504
1361723960.25,3.5479624583333336,31.860833333333332,87.73000004949333,2.6666666666666665,61.82196915211827
1361723960.5,3.5445550833333335,31.8625,87.63333333333333,2.4007552083333334,61.82803452626698
1361723960.75,3.53467875,31.864166666666666,87.53666661717332,1.9981770833333334,61.83409990041569
1361723961.0,3.520958666666667,31.865833333333338,87.43999999999998,1.2368750000000002,61.84138982267405
1361723961.25,3.50435575,31.867500000000003,87.34666671445332,0.6361458333333335,61.8456021302703
1361723961.5,3.485564,31.86916666666667,87.25333333333333,0.26164062500000007,61.84846685778416
1361723961.75,3.4647969999999995,31.87,87.15999995221333,-0.25499999999999995,61.85512603757798
1361723962.0,3.4420013750000003,31.87,87.06666666666666,-0.4696354166666666,61.84585455765628
1361723962.25,3.417977875,31.87,86.96916671658666,-0.21450520833333328,61.838142812351
1361723962.5,3.393687416666667,31.87,86.87166666666667,-0.007682291666666623,61.827562305092584
1361723962.75,3.369076625,31.870833333333337,86.77416661674667,0.0894010416666667,61.81710686353829
1361723963.0,3.346120791666667,31.872500000000002,86.67666666666666,0.6585416666666667,61.80209369493276
1361723963.25,3.3253537916666667,31.874166666666667,86.58583337984,1.1160416666666666,61.78615130490102
1361723963.5,3.3063485,31.875833333333333,86.495,1.8355208333333335,61.770466593796776
1361723963.75,3.290172625,31.876666666666665,86.40416662016,2.923828125,61.75115034019512
1361723964.0,3.276932958333333,31.876666666666665,86.31333333333333,3.741640625,61.73280573934142
1361723964.25,3.266415958333333,31.876666666666665,86.25500002986666,5.097734375,61.71918853274434
1361723964.5,3.2610773749999997,31.876666666666665,86.19666666666666,5.867708333333333,61.704137324139005
1361723964.75,3.264227083333333,31.877499999999998,86.13833330346667,6.434921875,61.69157436328805
1361723965.0,3.2787479166666667,31.879166666666666,86.08,7.585572916666666,61.69684280113976
1361723965.25,3.302451083333333,31.88083333333333,86.06333334186667,7.7844010416666665,61.71237617347342
1361723965.5,3.3298912499999997,31.882500000000004,86.04666666666665,8.155807291666667,61.73645335660088
1361723965.75,3.3591465416666666,31.882499999999997,86.02999999146665,9.044895833333333,61.76347642058145
1361723966.0,3.391658375,31.88083333333333,86.01333333333332,9.086744791666666,61.79526583424778
1361723966.25,3.4282275416666668,31.879166666666666,86.03166665727998,9.3928125,61.82832022891149
1361723966.5,3.4667719583333336,31.8775,86.04999999999998,9.376614583333334,61.858885393583385
1361723966.75,3.505316375,31.877499999999998,86.06833334272,8.77859375,61.89295618273542
1361723967.0,3.543860791666667,31.879166666666674,86.08666666666666,8.619869791666668,61.9216026277822
1361723967.25,3.5824052083333338,31.88083333333334,86.11583331839999,7.561614583333333,61.94463993676649
1361723967.5,3.6179600416666666,31.882500000000004,86.14499999999998,6.830677083333334,61.97385787803899
1361723967.75,3.647001833333334,31.883333333333336,86.17416668159998,6.811302083333334,62.0011776111138
1361723968.0,3.6613092083333334,31.883333333333336,86.20333333333332,5.9384375,62.02517820288896
1361723968.25,3.6595475,31.883333333333336,86.23583331669332,5.863463541666667,62.038403670080925
1361723968.5,3.650899041666667,31.883333333333336,86.26833333333332,5.717708333333334,62.047844078909655
1361723968.75,3.639474541666667,31.88416666666667,86.30083334997333,4.836953125,62.05036030982142
1361723969.0,3.6229784166666668,31.885833333333334,86.33333333333333,4.761406249999999,62.04817619166644
1361723969.25,3.600449708333333,31.887500000000003,86.37083331413334,4.51703125,62.04565631394028
1361723969.5,3.5745577083333333,31.889166666666668,86.40833333333333,3.9913281250000003,62.034305331379926
1361723969.75,3.5474378333333334,31.89,86.44583335253333,3.952135416666667,62.02324485100154
1361723970.0,3.519143458333333,31.89,86.48333333333333,3.8007552083333334,62.008508768577855
1361723970.25,3.489994916666667,31.89,86.51833331541333,4.192578125,61.99531655472188
1361723970.5,3.460472708333333,31.89,86.55333333333334,4.7250000000000005,61.96698615104325
1361723970.75,3.430790333333333,31.89,86.58833335125334,4.62578125,61.938823730788954
1361723971.0,3.4062329166666667,31.89,86.62333333333333,4.69328125,61.902804470145135
1361723971.25,3.3895765833333336,31.89,86.65499998378667,4.7590625,61.867087324287304
1361723971.5,3.3772444999999998,31.89,86.68666666666667,4.738255208333333,61.83074474034668
1361723971.75,3.367208,31.89,86.71833334954667,5.291223958333333,61.8022117467282
1361723972.0,3.3595738333333336,31.89,86.75,5.663880208333334,61.775435680196864
1361723972.25,3.353914916666667,31.89,86.77499998719999,5.912994791666667,61.74865961366555
1361723972.5,3.3496440416666666,31.89,86.79999999999998,6.582656249999999,61.74005211763196
1361723972.75,3.346868,31.89,86.82500001279999,7.174192708333333,61.74252215770107
1361723973.0,3.3470815833333334,31.89,86.84999999999998,7.816197916666667,61.73595550047629
1361723973.25,3.3533810833333333,31.89,86.87499998719998,8.310963541666668,61.73326953948226
1361723973.5,3.3685959583333336,31.89,86.89999999999998,8.582291666666666,61.74005167833769
1361723973.75,3.3920856250000004,31.89,86.92500001279998,9.455026041666667,61.740684233448896
1361723974.0,3.420486791666667,31.89,86.94999999999999,10.249531249999999,61.742248210455095
1361723974.25,3.450436125,31.89,86.96666665813332,10.717083333333333,61.7427551525541
1361723974.5,3.4803854583333336,31.89,86.98333333333332,11.419583333333334,61.7427551525541
1361723974.75,3.5103347916666667,31.890833333333333,87.00000000853332,11.511953125,61.74048374105781
1361723975.0,3.540284125,31.8925,87.01666666666665,11.173072916666667,61.73845663976138
1361723975.25,3.5702334583333335,31.894166666666667,87.02499999573332,11.553229166666666,61.733557689403995
1361723975.5,3.6004497500000006,31.895833333333332,87.03333333333333,11.751171874999999,61.71881253000914
1361723975.75,3.6311464583333333,31.897500000000004,87.04166667093332,11.507343749999999,61.69147162215487
1361723976.0,3.660561916666667,31.899166666666662,87.05,11.634765625,61.71518600146366
1361723976.25,3.6864539583333333,31.900833333333335,87.03916667221333,11.971979166666669,61.75338801545714
1361723976.5,3.7040178333333333,31.9025,87.02833333333334,11.781406250000002,61.837680105820276
1361723976.75,3.712239208333333,31.90416666666667,87.01749999445333,10.154791666666666,61.95699618322351
1361723977.0,3.715816041666667,31.905833333333334,87.00666666666666,8.415286458333334,62.09527369318761
1361723977.25,3.719446291666667,31.9075,86.98333334527999,6.888046875,62.24980858512206
1361723977.5,3.7248916666666667,31.909166666666668,86.95999999999998,5.889609375,62.40749902828844
1361723977.75,3.732258875,31.91,86.93666665471999,5.6707552083333335,62.56449386497683
1361723978.0,3.7410674583333337,31.91,86.91333333333331,6.068255208333333,62.72158875975779
1361723978.25,3.7520115,31.91,86.87750001834665,5.193854166666667,62.87249358285022
1361723978.5,3.764450333333333,31.91,86.84166666666665,4.61015625,63.02399479971816
1361723978.75,3.7812134166666667,31.91,86.80583331498666,4.514010416666666,63.176849644778116
1361723979.0,3.804094875,31.91,86.77,3.16796875,63.295814193371484
1361723979.25,3.8264749583333333,31.91,86.72916668757333,2.224947916666667,63.395748284287585
1361723979.5,3.8491753749999997,31.91,86.68833333333333,1.9267708333333333,63.45051575852727
1361723979.75,3.8747052083333333,31.910833333333333,86.64749997909334,3.1154166666666665,63.47640882947106
1361723980.0,3.901356125,31.912500000000005,86.60666666666667,4.76390625,63.483973022965195
1361723980.25,3.9270460833333334,31.91416666666667,86.55750002517334,6.189973958333334,63.47527983448899
1361723980.5,3.95193525,31.915833333333328,86.50833333333334,6.970911458333333,63.463431094780844
1361723980.75,3.976023708333333,31.9175,86.45916664149334,7.29265625,63.45227796155069
1361723981.0,4.000112208333333,31.919166666666666,86.41000000000001,7.049062500000001,63.4430518715244
1361723981.25,4.024734541666667,31.920833333333334,86.35166669653334,7.689036458333333,63.443380148934885
1361723981.5,4.048609458333333,31.9225,86.29333333333334,7.928723958333333,63.44584238237127
1361723981.75,4.068053375,31.924166666666668,86.23499997013333,7.627239583333334,63.44846876470342
1361723982.0,4.081218708333334,31.925833333333333,86.17666666666666,8.69109375,63.454578774247125
1361723982.25,4.093817708333333,31.927500000000006,86.11583336448,8.861796875000001,63.46626258732931
1361723982.5,4.107858125,31.929166666666664,86.05499999999999,9.150338541666667,63.48003657673843
1361723982.75,4.121364708333333,31.93083333333333,85.99416663552,9.191536458333333,63.493810566147545
1361723983.0,4.133750208333333,31.9325,85.93333333333334,8.847838541666667,63.507584555556654
1361723983.25,4.146883125,31.934166666666666,85.87833336149333,8.835104166666666,63.52135854496577
1361723983.5,4.160816791666666,31.935833333333335,85.82333333333332,8.843802083333335,63.53304235804796
1361723983.75,4.174643666666667,31.9375,85.76833330517333,8.86515625,63.54402944568784
1361723984.0,4.187349458333333,31.939166666666665,85.71333333333332,9.244036458333333,63.555016533327716
1361723984.25,4.1982935,31.940833333333334,85.66000002730667,8.955755208333334,63.56829807604955
1361723984.5,4.209077375000001,31.9425,85.60666666666665,8.80296875,63.58083782705223
1361723984.75,4.221302666666667,31.944166666666664,85.55333330602666,9.100859375,63.59517685870114
1361723985.0,4.236690208333333,31.94583333333333,85.5,8.783229166666667,63.60603226313848
1361723985.25,4.251437125,31.947499999999994,85.44833335978667,8.802864583333333,63.61315381282336
1361723985.5,4.26420875,31.949166666666667,85.39666666666668,8.722213541666667,63.61879850244332
1361723985.75,4.275912666666668,31.95,85.34499997354666,8.294869791666665,63.62444319206327
1361723986.0,4.287616583333334,31.95,85.29333333333334,8.103880208333333,63.62722599103884
1361723986.25,4.298146,31.95,85.24166669312,7.833203125000001,63.63041779347824
1361723986.5,4.306872833333334,31.95,85.19,7.330624999999999,63.64101568367187
1361723986.75,4.3145853333333335,31.95,85.13833330688,6.989375,63.64658538441668
1361723987.0,4.3219775,31.95,85.08666666666666,6.511145833333334,63.65174608169767
1361723987.25,4.3281418333333335,31.95,85.0408333568,6.307734375,63.65534688760088
1361723987.5,4.3329181666666665,31.95,84.99499999999999,6.410598958333334,63.65518283107027
1361723987.75,4.335612458333333,31.95,84.94916664319999,6.1980208333333335,63.65403804466144
1361723988.0,4.334130208333334,31.95,84.90333333333332,6.3226562500000005,63.659842590007
1361723988.25,4.332647958333333,31.95,84.85333335893333,6.631770833333333,63.65616179864539
1361723988.5,4.331165708333334,31.95,84.80333333333333,6.648151041666668,63.64416666333644
1361723988.75,4.329683458333334,31.950833333333332,84.75333330773333,6.966015625000001,63.6274151315144
1361723989.0,4.328201208333334,31.9525,84.70333333333333,7.079479166666666,63.613894446188375
1361723989.25,4.326718958333334,31.954166666666666,84.64083336533334,7.1390104166666655,63.597537625761184
1361723989.5,4.324903875,31.955833333333334,84.57833333333333,7.648203125000001,63.54669555270001
1361723989.75,4.322821833333333,31.9575,84.51583330133333,7.646276041666667,63.45900680996733
1361723990.0,4.320366083333334,31.959166666666665,84.45333333333333,8.042083333333332,63.32697366882332
1361723990.25,4.317856916666666,31.96083333333333,84.37333337429334,8.8028125,63.175056081330446
1361723990.5,4.315614666666668,31.962500000000002,84.29333333333332,9.048098958333334,63.01644328868472
1361723990.75,4.313265666666667,31.965,84.21333329237332,9.732890625000001,62.85288030013516
1361723991.0,4.311450541666667,31.968333333333334,84.13333333333333,10.219557291666666,62.67081603080843
1361723991.25,4.306485666666666,31.971666666666664,84.04083338069333,10.440390625000001,62.509849755944735
1361723991.5,4.2965025416666665,31.974999999999998,83.94833333333332,10.878880208333335,62.35974791999956
1361723991.75,4.283583208333334,31.977500000000003,83.85583328597333,11.715130208333335,62.220011649432024
1361723992.0,4.269275833333333,31.97916666666666,83.76333333333334,12.745572916666667,62.07632214933175
1361723992.25,4.25459475,31.980833333333333,83.66333338453333,13.202604166666667,61.930504444381164
1361723992.5,4.240073833333333,31.982499999999998,83.56333333333333,13.719583333333334,61.81520638326112
1361723992.75,4.225659708333334,31.984166666666667,83.46333328213333,14.725677083333336,61.74867898445496
1361723993.0,4.211512541666667,31.985833333333332,83.36333333333333,14.975416666666668,61.727495217317596
1361723993.25,4.197632333333334,31.987499999999997,83.28666670592,15.089010416666667,61.724968886137624
1361723993.5,4.18391225,31.989166666666662,83.21000000000001,15.524609374999999,61.731674627514394
1361723993.75,4.170192125,31.99,83.13333329408,15.635286458333333,61.742347865131215
1361723994.0,4.156472,31.99,83.05666666666667,15.574713541666668,61.76457305177083
1361723994.25,4.145634708333334,31.99,83.0108333568,15.498567708333333,61.77334563186856
1361723994.5,4.139815666666666,31.99,82.965,15.611484374999998,61.77895480073311
1361723994.75,4.136932833333334,31.99,82.9191666432,14.785729166666664,61.77895480073311
1361723995.0,4.135438041666666,31.99,82.87333333333333,13.874739583333332,61.78253907441422
1361723995.25,4.134316958333334,31.99,82.85416667648,13.723671874999999,61.79067868458298
1361723995.5,4.1336229583333335,31.99,82.83500000000001,12.913255208333332,61.79746799212786
1361723995.75,4.133089125,31.990416666666665,82.81583332352,12.096614583333333,61.7980582219215
1361723996.0,4.1329823333333335,31.991249999999997,82.79666666666667,11.888255208333332,61.7980582219215
1361723996.25,4.133783083333333,31.992083333333337,82.77583334399999,11.140364583333332,61.7980582219215
1361723996.5,4.1354914166666665,31.99291666666667,82.755,10.585546875,61.7980582219215
1361723996.75,4.138053958333333,31.993750000000002,82.734166656,10.328359375,61.7980582219215
1361723997.0,4.1420045,31.994583333333335,82.71333333333332,9.806380208333334,61.7980582219215
1361723997.25,4.147396416666667,31.995416666666667,82.68916667903999,9.700755208333334,61.7980582219215
1361723997.5,4.153749291666666,31.996250000000003,82.66499999999999,9.32640625,61.7980582219215
1361723997.75,4.160262333333333,31.997083333333336,82.64083332096,9.15515625,61.7980582219215
1361723998.0,4.166775375,31.99791666666667,82.61666666666666,9.386927083333333,61.7980582219215
1361723998.25,4.173288416666667,31.99875,82.59666667690666,9.03625,61.7980582219215
1361723998.5,4.1799082499999995,31.999583333333334,82.57666666666665,9.147734375,61.7980582219215
1361723998.75,4.186581458333333,32.0,82.55666665642666,9.371041666666668,61.80689893752677
1361723999.0,4.193041125,32.0,82.53666666666666,8.965833333333334,61.81510817344594
1361723999.25,4.198806791666667,32.0,82.52166667434666,9.313463541666666,61.825211848423386
1361723999.5,4.203771666666667,32.0,82.50666666666667,9.483072916666666,61.835315523400844
1361723999.75,4.208416208333333,32.00125,82.49166665898667,9.082864583333333,61.84541919837829
1361724000.0,4.218025625,32.00375,82.47666666666667,9.383385416666668,61.85552287335574
1361724000.25,4.240554374999999,32.00625,82.46333334016,9.375468750000001,61.86562654833319
1361724000.5,4.275949041666666,32.00875,82.45,9.237317708333334,61.87573022331063
1361724000.75,4.313852791666666,32.01,82.43666665984,9.650078125,61.88583389828809
1361724001.0,4.351756541666667,32.01,82.42333333333333,9.476015625,61.895937573265535
1361724001.25,4.389660291666666,32.01,82.41000000682666,9.6784375,61.8968931312827
1361724001.5,4.427190333333334,32.01,82.39666666666666,10.023307291666667,61.86961472241356
1361724001.75,4.4646669999999995,32.01125,82.38333332650666,9.881197916666666,61.821518523802155
1361724002.0,4.5020369166666665,32.013749999999995,82.36999999999999,10.232552083333333,61.77405380487684
1361724002.25,4.533694541666667,32.01625,82.35750000639999,10.455442708333333,61.724694646893255
1361724002.5,4.559853458333333,32.01875,82.345,10.283645833333333,61.675335488909674
1361724002.75,4.580673833333334,32.02,82.3324999936,10.6190625,61.625976330926086
1361724003.0,4.591137416666667,32.02,82.32,10.80078125,61.5766171729425
1361724003.25,4.5839303750000004,32.02,82.30833333930666,10.662161458333333,61.52725801495891
1361724003.5,4.560120416666667,32.02,82.29666666666665,11.076796875000001,61.47789885697532
1361724003.75,4.531612541666667,32.02125,82.28499999402666,11.022447916666666,61.42853969899175
1361724004.0,4.503104666666666,32.02375,82.27333333333333,11.00953125,61.37918054100816
1361724004.25,4.474596791666667,32.02625,82.26333333845332,11.469505208333333,61.33896949998485
1361724004.5,4.446088916666667,32.02875,82.25333333333333,11.404973958333334,61.326992425847855
1361724004.75,4.417581041666667,32.03,82.24333332821334,11.476927083333335,61.326992425847855
1361724005.0,4.389073166666667,32.03,82.23333333333333,11.923177083333334,61.326992425847855
1361724005.25,4.36665125,32.03,82.22333333845333,11.837083333333332,61.326992425847855
1361724005.5,4.354853041666667,32.03,82.21333333333334,11.97125,61.326992425847855
1361724005.75,4.354372541666667,32.03,82.20333332821335,12.39390625,61.330937293400886
1361724006.0,4.359123833333333,32.03,82.19333333333334,12.298958333333333,61.34209283890545
1361724006.25,4.3674519583333336,32.03,82.18250000554667,12.588385416666668,61.3536299236279
1361724006.5,4.378556125,32.03,82.17166666666667,12.585677083333332,61.36330132290154
1361724006.75,4.393771,32.030833333333334,82.16083332778666,12.391927083333334,61.370088450994565
1361724007.0,4.410160375,32.032500000000006,82.14999999999999,12.614609375,61.38009937884547
1361724007.25,4.427777625,32.034166666666664,82.13500000767999,12.383098958333335,61.39163646356792
1361724007.5,4.445394875000001,32.035833333333336,82.11999999999999,12.291484375000001,61.409394702069925
1361724007.75,4.4612503750000005,32.03666666666667,82.10499999231999,12.093541666666667,61.46723329414406
1361724008.0,4.474383208333333,32.03666666666667,82.08999999999999,10.456744791666667,61.545435708556255
1361724008.25,4.484579833333334,32.03666666666667,82.07333334186666,9.345364583333334,61.65386776858114
1361724008.5,4.487676208333334,32.03666666666667,82.05666666666666,8.542369791666667,61.79174442627021
1361724008.75,4.479828583333334,32.0375,82.03999999146666,7.295156250000001,61.94508276100131
1361724009.0,4.466375416666668,32.03916666666667,82.02333333333333,6.203463541666667,62.09479522459944
1361724009.25,4.4513740833333335,32.04083333333333,82.00500000938666,5.510364583333334,62.24416732187763
1361724009.5,4.435038125000001,32.0425,81.98666666666665,4.536875,62.39631045646981
1361724009.75,4.415765916666667,32.0425,81.96833332394665,3.773333333333333,62.558328694122686
1361724010.0,4.394144708333333,32.04083333333333,81.94999999999999,3.111796875,62.72505069015108
1361724010.25,4.370014416666667,32.03916666666667,81.93166667605333,1.9243489583333335,62.895909476193715
1361724010.5,4.343054708333334,32.0375,81.91333333333333,0.8934895833333331,63.0576754950773
1361724010.75,4.315134083333334,32.0375,81.89499999061333,0.8844270833333332,63.17714573043519
1361724011.0,4.289295500000001,32.03916666666667,81.87666666666667,2.032864583333333,63.2774007377177
1361724011.25,4.262122291666667,32.04083333333333,81.85750000981334,2.7903645833333335,63.3522655377347
1361724011.5,4.230197749999999,32.0425,81.83833333333334,3.5271093749999998,63.39784970586078
1361724011.75,4.195603875,32.04333333333333,81.81916665685333,4.209869791666667,63.426691386739215
1361724012.0,4.159823041666667,32.04333333333333,81.8,5.073125,63.46515985894283
1361724012.25,4.12168075,32.04333333333333,81.78083334314667,5.569635416666667,63.505347115995626
1361724012.5,4.082097041666667,32.04333333333333,81.76166666666667,6.091562499999999,63.53275588274837
1361724012.75,4.0414990416666665,32.04416666666666,81.74249999018667,6.800598958333333,63.52922000874391
1361724013.0,4.000954416666667,32.045833333333334,81.72333333333334,7.010911458333333,63.51566016014288
1361724013.25,3.9615308333333332,32.04749999999999,81.7066666752,7.577161458333333,63.49643736465605
1361724013.5,3.9248832916666667,32.049166666666665,81.69,8.326380208333335,63.48008618254872
1361724013.75,3.889944083333333,32.05,81.6733333248,8.112317708333334,63.46595043039495
1361724014.0,3.8543642499999997,32.05,81.65666666666665,7.6694531249999995,63.4506660839785
1361724014.25,3.8219875416666667,32.05,81.64416667306665,7.719166666666666,63.43054229921487
1361724014.5,3.795750166666666,32.05,81.63166666666666,7.346796875,63.4176522849152
1361724014.75,3.776719875,32.05,81.61916666026667,6.964062500000001,63.397988359803
1361724015.0,3.763360958333333,32.05,81.60666666666667,6.864062499999999,63.36593480724006
1361724015.25,3.7539116666666668,32.05,81.60000000341333,6.449453124999999,63.33623115039512
1361724015.5,3.747238416666667,32.05,81.59333333333333,6.265078125,63.3225104854502
1361724015.75,3.742540458333334,32.05083333333333,81.58666666325333,6.174453125,63.33356560007538
1361724016.0,3.7389636250000002,32.052499999999995,81.57999999999998,6.177499999999999,63.346717131163764
1361724016.25,3.7364545000000002,32.05416666666667,81.57999999999998,6.476614583333333,63.359868662252154
1361724016.5,3.7345325833333334,32.05583333333333,81.57999999999998,6.644427083333333,63.37302019334055
1361724016.75,3.733731791666667,32.0575,81.57999999999998,6.859427083333333,63.38617172442894
1361724017.0,3.734265666666667,32.05916666666666,81.57999999999998,7.205260416666667,63.399323255517324
1361724017.25,3.7356003333333336,32.060833333333335,81.58416666453331,7.272786458333335,63.41247478660571
1361724017.5,3.737682416666667,32.0625,81.58833333333331,7.510911458333333,63.41822858145688
1361724017.75,3.739817875,32.064166666666665,81.59250000213332,7.81953125,63.42809222977316
1361724018.0,3.7420067083333333,32.06583333333333,81.59666666666665,7.758619791666668,63.43713390739643
1361724018.25,3.744248916666667,32.0675,81.60333332991999,7.892447916666668,63.44206573155458
1361724018.5,3.7465978750000004,32.06916666666667,81.60999999999999,8.020859375,63.4428877022476
1361724018.75,3.749053583333333,32.07,81.61666667008,7.8853125,63.4428877022476
1361724019.0,3.7515092916666664,32.07,81.62333333333333,7.806171875,63.4428877022476
1361724019.25,3.753377791666667,32.07,81.62749999786666,7.603593750000001,63.4428877022476
1361724019.5,3.7547658750000004,32.07,81.63166666666666,7.286875000000001,63.450757092976126
1361724019.75,3.7561005416666666,32.07,81.63583333546667,7.068541666666667,63.46649587443317
1361724020.0,3.757381791666667,32.07,81.64,6.855625,63.48223465589021
1361724020.25,3.758663041666667,32.07,81.64083333290667,6.5940885416666655,63.49989636654967
1361724020.5,3.7599442916666668,32.07,81.64166666666667,6.363619791666667,63.518744542876355
1361724020.75,3.7612255416666667,32.07,81.64250000042666,6.279973958333334,63.53574991365499
1361724021.0,3.7625067916666666,32.07,81.64333333333333,6.354348958333333,63.538613684181634
1361724021.25,3.7638414583333333,32.07,81.64083333461333,6.472682291666666,63.51316663832848
1361724021.5,3.7712620833333332,32.07,81.63833333333332,6.488619791666667,63.450620466360874
1361724021.75,3.7971007083333332,32.07,81.63583333205332,6.3976041666666665,63.36812718641932
1361724022.0,3.8399159583333335,32.07,81.63333333333333,6.374583333333334,63.28454977455342
1361724022.25,3.888390083333333,32.07,81.62750000298666,5.940052083333334,63.19738333568336
1361724022.5,3.938679291666667,32.07,81.62166666666667,5.36015625,63.09282454210526
1361724022.75,3.990036208333333,32.07083333333333,81.61583333034666,5.144427083333333,62.9766311030395
1361724023.0,4.0422472916666665,32.0725,81.61,4.42453125,62.87446804110861
1361724023.25,4.09451175,32.07416666666667,81.60083333802666,3.8315625,62.796155948583426
1361724023.5,4.148016583333333,32.075833333333335,81.59166666666667,3.5055989583333336,62.715283566597144
1361724023.75,4.203082125,32.0775,81.58249999530666,2.5269270833333333,62.64899337771676
1361724024.0,4.258521375,32.079166666666666,81.57333333333332,1.4609635416666666,62.611494843279196
1361724024.25,4.314428583333333,32.08083333333334,81.55750000810666,0.3908333333333333,62.607797786507255
1361724024.5,4.364143083333333,32.0825,81.54166666666666,-0.4033333333333334,62.65969609693709
1361724024.75,4.395226041666667,32.08416666666667,81.52583332522666,-0.9664062499999999,62.758045644240035
1361724025.0,4.409332375,32.08583333333333,81.50999999999999,-1.6899479166666664,62.86128814922598
1361724025.25,4.41688475,32.087500000000006,81.48916667733333,-1.7228385416666667,62.969224149703784
1361724025.5,4.422141541666666,32.089166666666664,81.46833333333333,-1.4834375,63.08025985847778
1361724025.75,4.4233944166666666,32.09,81.44749998933332,-1.8474479166666666,63.19026774606868
1361724026.0,4.420483208333333,32.09,81.42666666666666,-1.6588541666666667,63.28812996612072
1361724026.25,4.415917083333333,32.09,81.40416667818666,-1.4701041666666665,63.35012848887285
1361724026.5,4.408509,32.09,81.38166666666666,-1.5899739583333332,63.41243840479138
1361724026.75,4.3970844583333335,32.09,81.35916665514667,-1.2998697916666666,63.473735423710195
1361724027.0,4.380534916666666,32.09,81.33666666666666,-1.360546875,63.51857879371439
1361724027.25,4.359513499999999,32.09,81.31500001109333,-1.41296875,63.54816869680983
1361724027.5,4.336623583333334,32.09,81.29333333333332,-1.8210677083333333,63.557829094398414
1361724027.75,4.3125591666666665,32.090833333333336,81.27166665557333,-2.226901041666667,63.5314936866444
1361724028.0,4.286466083333333,32.09250000000001,81.25,-1.9723958333333333,63.49925312339636
1361724028.25,4.255502416666666,32.094166666666666,81.22833334442667,-2.196953125,63.4651256723565
1361724028.5,4.2139559166666665,32.09583333333334,81.20666666666668,-2.4520833333333334,63.444902156833585
1361724028.75,4.167325291666667,32.097500000000004,81.18499998890667,-2.3448437500000003,63.44564031781758
1361724029.0,4.1227358333333335,32.09916666666667,81.16333333333334,-2.5636458333333336,63.44474035758961
1361724029.25,4.078680208333333,32.100833333333334,81.13666668032,-3.028645833333334,63.45519952906531
1361724029.5,4.034825625,32.1025,81.11000000000001,-3.3201302083333335,63.46991580324545
1361724029.75,3.9928395416666667,32.104166666666664,81.08333331968001,-3.227265625,63.47040795523464
1361724030.0,3.9545370416666668,32.10583333333334,81.05666666666667,-2.419583333333333,63.47229402601932
1361724030.25,3.9187970416666666,32.107499999999995,81.02333335040001,-1.6303645833333331,63.48443437385003
1361724030.5,3.884071375,32.10916666666667,80.99000000000001,-0.6787760416666667,63.49350194489585
1361724030.75,3.849772833333333,32.11,80.9566666496,0.17632812500000003,63.51185632397619
1361724031.0,3.8175029583333333,32.11,80.92333333333333,0.3197135416666667,63.53193808695286
1361724031.25,3.7906784166666667,32.11,80.88583335253333,0.40570312500000005,63.55120350393114
1361724031.5,3.7748637916666667,32.11,80.84833333333333,0.3662239583333333,63.56298824107582
1361724031.75,3.7670161249999996,32.11,80.81083331413333,0.5254947916666667,63.55860437765582
1361724032.0,3.7604372083333337,32.11,80.77333333333333,0.986015625,63.55397392585177
1361724032.25,3.7552463333333335,32.11,80.73583335253333,1.7464322916666666,63.54807414103583
1361724032.5,3.753858333333333,32.11,80.69833333333332,2.4920312499999997,63.53897968414293
1361724032.75,3.754232083333333,32.11,80.66083331413333,2.9933593750000003,63.53238285888285
1361724033.0,3.75604725,32.11,80.62333333333333,3.2096875,63.52619570955107
1361724033.25,3.7601579583333335,32.11,80.58833335125334,3.7368749999999995,63.519517088796185
1361724033.5,3.765977,32.11,80.55333333333334,4.3456770833333325,63.51734450924573
1361724033.75,3.7725434166666663,32.11,80.51833331541333,5.113072916666666,63.51537679810417
1361724034.0,3.779109833333333,32.11,80.48333333333333,6.097708333333333,63.51377803280167
1361724034.25,3.7856762500000003,32.11,80.45000001706667,7.486458333333334,63.51451592447975
1361724034.5,3.7922426666666667,32.11,80.41666666666667,8.704218749999999,63.51451592447975
1361724034.75,3.7988090833333334,32.11083333333333,80.38333331626667,9.574401041666667,63.51451592447975
1361724035.0,3.804414583333333,32.1125,80.35000000000001,10.630546875,63.51422878864651
1361724035.25,3.8075643333333336,32.11416666666667,80.32000001536001,11.307526041666668,63.49329097902061
1361724035.5,3.8060161249999998,32.115833333333335,80.29,11.575234375,63.45162070914694
1361724035.75,3.8019054166666666,32.1175,80.25999998464,11.71484375,63.41765861557243
1361724036.0,3.7960329999999995,32.119166666666665,80.23,11.642161458333334,63.38925570461654
1361724036.25,3.786850666666666,32.12083333333334,80.20750001152,11.129583333333334,63.3471423027556
1361724036.5,3.7768141666666666,32.1225,80.185,10.574661458333333,63.305814136686905
1361724036.75,3.7667776666666666,32.12416666666667,80.16249998848001,9.840520833333333,63.26518689326165
1361724037.0,3.7567411666666666,32.12583333333333,80.14,8.941484375,63.24241164972167
1361724037.25,3.7467046666666666,32.127500000000005,80.12833333930666,7.838046875,63.22219578304448
1361724037.5,3.736668166666666,32.12916666666667,80.11666666666666,7.073046875,63.21701267574164
1361724037.75,3.7323439166666663,32.13,80.10499999402666,6.308333333333334,63.2131556299384
1361724038.0,3.742807458333333,32.13,80.09333333333332,5.083697916666667,63.2078217472368
1361724038.25,3.7633075,32.13,80.09166666751999,4.076614583333334,63.22764912182248
1361724038.5,3.7889859583333334,32.13,80.08999999999999,3.2919010416666663,63.28340237711455
1361724038.75,3.8190954166666664,32.13,80.08833333247999,2.6746874999999997,63.3350476234072
1361724039.0,3.8531554166666666,32.13,80.08666666666666,2.0427604166666664,63.38113368708122
1361724039.25,3.891753208333333,32.13,80.0908333312,1.5366927083333335,63.44093024166029
1361724039.5,3.9313119166666666,32.13,80.095,1.0828645833333332,63.49994156044712
1361724039.75,3.9711375416666663,32.130833333333335,80.0991666688,0.5097135416666667,63.5582519565905
1361724040.0,4.011123333333333,32.1325,80.10333333333334,0.25125000000000003,63.59871035284862
1361724040.25,4.051109125,32.134166666666665,80.11499999402668,0.037057291666666645,63.63587148056586
1361724040.5,4.091148291666667,32.13583333333334,80.12666666666667,-0.4905208333333333,63.65873774058682
1361724040.75,4.125635375,32.137499999999996,80.13833333930666,-0.8116927083333333,63.66868290254279
1361724041.0,4.14763025,32.13916666666667,80.14999999999999,-0.8560677083333332,63.629235559475795
1361724041.25,4.164820416666666,32.14083333333333,80.17083332266667,-0.8857031249999999,63.56648851049954
1361724041.5,4.1809428749999995,32.1425,80.19166666666666,-0.7010677083333334,63.46297851536005
1361724041.75,4.1939689583333335,32.14416666666667,80.21250001066666,-0.4965364583333334,63.31262701031785
1361724042.0,4.204379125,32.145833333333336,80.23333333333333,-0.0933333333333334,63.1587051896679
1361724042.25,4.2126005,32.1475,80.26249998506667,0.35145833333333326,63.00478336901796
1361724042.5,4.219860958333333,32.149166666666666,80.29166666666666,0.7004166666666666,62.85086154836801
1361724042.75,4.2268545,32.15,80.32083334826666,1.1278645833333332,62.696939727718075
1361724043.0,4.233314166666667,32.15,80.35,1.2260156249999998,62.543017907068126
1361724043.25,4.239453541666667,32.15,80.37999998464,1.3271874999999997,62.389096086418185
1361724043.5,4.245165833333333,32.15,80.41,1.6201822916666666,62.2361827251106
1361724043.75,4.250130708333334,32.15,80.44000001535998,1.5339583333333333,62.11870811279989
1361724044.0,4.253120291666667,32.15,80.46999999999998,1.2641145833333332,62.03115000237624
1361724044.25,4.2523195000000005,32.15,80.49666665301332,1.3070312499999999,61.958768818460904
1361724044.5,4.249383333333333,32.15,80.52333333333333,1.2120052083333333,61.92542618100783
1361724044.75,4.244098166666666,32.150416666666665,80.55000001365333,1.268098958333333,61.96021809390575
1361724045.0,4.234542125,32.15125,80.57666666666667,1.45765625,62.03797006182683
1361724045.25,4.209344125,32.15208333333333,80.59749998933334,1.3872916666666664,62.12091481089865
1361724045.5,4.148911666666667,32.15291666666666,80.61833333333334,0.8728645833333332,62.173542080940386
1361724045.75,4.059075375,32.153749999999995,80.63916667733334,0.466015625,62.21507420013695
1361724046.0,3.9696127916666666,32.15458333333333,80.66000000000001,0.09289062499999994,62.2971732127808
1361724046.25,3.8804705,32.15541666666666,80.68416665429334,-0.8179166666666667,62.39239720870549
1361724046.5,3.7917019166666672,32.15625,80.70833333333334,-1.8521093750000002,62.456188015590875
1361724046.75,3.703520583333333,32.157083333333325,80.73250001237334,-3.4804166666666667,62.4314384956196
1361724047.0,3.6159798749999994,32.157916666666665,80.75666666666666,-6.2007812499999995,62.48003213847442
1361724047.25,3.5295184583333334,32.15875,80.77749998933332,-9.271875,62.55821613109048
1361724047.5,3.4534138333333337,32.15958333333333,80.79833333333332,-12.416223958333333,62.61280734991785
1361724047.75,3.38291475,32.16,80.81916667733333,-15.933151041666667,62.657727545926434
1361724048.0,3.3247036666666663,32.16,80.83999999999999,-19.548671875,62.656711087352306
1361724048.25,3.2868951249999996,32.16,80.86666665301333,-22.531041666666667,62.65848991407001
1361724048.5,3.284321041666667,32.16,80.89333333333332,-24.057890625,62.74074545777822
1361724048.75,3.3111507916666665,32.16,80.92000001365332,-24.583333333333332,62.87490433276205
1361724049.0,3.3379805416666666,32.16,80.94666666666666,-24.91268229166667,62.90345817793705
1361724049.25,3.3686981666666664,32.16,80.97833331711999,-23.630625,62.95031010031162
1361724049.5,3.4024053749999994,32.16,81.00999999999999,-21.539505208333335,62.99570982433153
1361724049.75,3.4371362083333334,32.160833333333336,81.04166668287999,-18.339348958333332,63.15611208735049
1361724050.0,3.4718670416666666,32.162499999999994,81.07333333333332,-13.434062500000001,63.28143594740343
1361724050.25,3.505999041666666,32.16416666666667,81.12333330773332,-8.535598958333333,63.378868468545
1361724050.5,3.5279590833333336,32.16583333333333,81.17333333333332,-3.1917708333333334,63.4692589207111
1361724050.75,3.5444737916666664,32.1675,81.22333335893333,2.2461458333333337,63.539898316846795
1361724051.0,3.5529713750000003,32.16916666666666,81.27333333333333,7.117395833333333,63.61708462814979
1361724051.25,3.556708375,32.170833333333334,81.33833330005332,12.040885416666667,63.686282873010214
1361724051.5,3.560445375,32.1725,81.40333333333332,15.701744791666668,63.70532187991021
1361724051.75,3.5641823749999997,32.17416666666667,81.46833336661332,17.662005208333333,63.68355270637975
1361724052.0,3.5679193750000002,32.17583333333334,81.53333333333332,19.588541666666668,63.72682166921086
1361724052.25,3.56696775,32.1775,81.61083329365331,20.216953125,63.738667571561535
1361724052.5,3.5620655833333337,32.17916666666667,81.68833333333332,19.79375,63.78239040196382
1361724052.75,3.5554991250000003,32.18,81.76583337301332,18.968307291666665,63.77580730779226
1361724053.0,3.5482920416666666,32.18,81.84333333333332,17.620416666666667,63.75219942962812
1361724053.25,3.54001725,32.18,81.91916662783999,16.296796875000002,63.73050473652044
1361724053.5,3.532970333333333,32.18,81.99499999999999,14.480234375000002,63.72597586541927
1361724053.75,3.5275250000000002,32.18,82.07083337216,12.816041666666669,63.72597586541927
1361724054.0,3.5212789166666667,32.18,82.14666666666666,11.600729166666667,63.72597586541927
1361724054.25,3.51460575,32.18,82.20916663466666,9.767057291666667,63.72597586541927
1361724054.5,3.5079325833333335,32.18,82.27166666666666,8.259166666666667,63.72597586541927
1361724054.75,3.5012060000000003,32.18,82.33416669866666,7.428619791666666,63.72597586541927
1361724055.0,3.4944260000000003,32.18,82.39666666666666,6.482473958333333,63.72597586541927
1361724055.25,3.488393375,32.18,82.44249997653333,5.6944791666666665,63.72597586541927
1361724055.5,3.4832149583333334,32.18,82.48833333333333,5.306744791666667,63.72597586541927
1361724055.75,3.4786238333333332,32.18125,82.53416669013333,5.164244791666667,63.725116586580015
1361724056.0,3.4746733333333335,32.183749999999996,82.58,4.809166666666667,63.71480524050899
1361724056.25,3.471790541666667,32.18625,82.61666664789334,4.572369791666667,63.70105677908095
1361724056.5,3.469655166666667,32.18875,82.65333333333334,4.582630208333333,63.687308317652914
1361724056.75,3.468107,32.19125,82.69000001877333,4.256848958333333,63.67355985622488
1361724057.0,3.4673595833333333,32.19375,82.72666666666667,4.178645833333333,63.65981139479684
1361724057.25,3.4670392500000005,32.19625,82.75499998549334,4.346119791666667,63.6460629333688
1361724057.5,3.4667189166666668,32.19875,82.78333333333333,4.184375,63.63231447194076
1361724057.75,3.466452,32.20125,82.81166668117334,4.266510416666667,63.61856601051272
1361724058.0,3.4661851250000004,32.20375,82.84,4.404036458333334,63.604817549084686
1361724058.25,3.4659716250000003,32.206250000000004,82.85666665813334,4.373515625,63.59106908765665
1361724058.5,3.4658114999999996,32.20875,82.87333333333333,4.599635416666667,63.57817990506786
1361724058.75,3.4655979583333334,32.21,82.89000000853333,4.6436979166666665,63.567009280157585
1361724059.0,3.465277625,32.21,82.90666666666667,4.802161458333333,63.563572164800576
1361724059.25,3.4649572916666664,32.21,82.91166666410666,5.0681770833333335,63.563572164800576
1361724059.5,3.464636958333333,32.21,82.91666666666666,5.080625,63.563572164800576
1361724059.75,3.464476791666667,32.21,82.92166666922667,5.270182291666667,63.563572164800576
1361724060.0,3.4643166250000004,32.21,82.92666666666666,5.093723958333333,63.55608710010952
1361724060.25,3.4644767916666663,32.21,82.92500000085333,4.791328125,63.47185943565314
1361724060.5,3.468427333333333,32.21,82.92333333333333,4.758046875,63.3401518283624
1361724060.75,3.4787841250000007,32.21,82.92166666581333,4.12828125,63.17385389304712
1361724061.0,3.492023708333333,32.21,82.92,3.1111458333333335,62.97952324918489
1361724061.25,3.505583625,32.21,82.91166667093333,2.668723958333333,62.77105384182329
1361724061.5,3.5199443333333336,32.21,82.90333333333334,2.0301041666666664,62.56913965002095
1361724061.75,3.5355329166666665,32.21083333333333,82.89499999573333,1.467083333333333,62.357162945080226
1361724062.0,3.5526697083333336,32.2125,82.88666666666666,0.9650520833333333,62.155171561343735
1361724062.25,3.5733299583333338,32.214166666666664,82.87166667434666,-0.34523437500000015,61.959611521532146
1361724062.5,3.5971399583333334,32.215833333333336,82.85666666666665,-1.5804687499999999,61.77369705432195
1361724062.75,3.6213770000000003,32.2175,82.84166665898665,-2.099270833333333,61.59024713408908
1361724063.0,3.645880958333333,32.219166666666666,82.82666666666665,-2.505572916666667,61.41067195044581
1361724063.25,3.6701713750000002,32.22083333333333,82.80750000981332,-3.2554427083333333,61.33691201017962
1361724063.5,3.6909383333333334,32.2225,82.78833333333333,-3.9629947916666666,61.36754988572404
1361724063.75,3.705832875,32.22416666666667,82.76916665685333,-4.242838541666667,61.47086585258483
1361724064.0,3.7178980000000004,32.225833333333334,82.75,-3.977109375,61.61943352452341
1361724064.25,3.730390208333333,32.2275,82.72666667861333,-4.1241666666666665,61.80663594221784
1361724064.5,3.7428824166666668,32.229166666666664,82.70333333333332,-4.390598958333333,61.989878167635226
1361724064.75,3.754787375,32.23,82.67999998805332,-4.704661458333334,62.19045804584632
1361724065.0,3.7655178333333335,32.23,82.65666666666665,-4.945989583333334,62.38326392863101
1361724065.25,3.772724833333333,32.23,82.62750001493332,-4.297369791666667,62.56963846749079
1361724065.5,3.7767820833333334,32.23,82.59833333333333,-3.718541666666667,62.74636743374921
1361724065.75,3.780252125,32.23,82.56916665173334,-3.8021354166666668,62.920631853030265
1361724066.0,3.78345525,32.23,82.54,-3.3550520833333333,63.0985066004128
1361724066.25,3.7863914583333336,32.23,82.50666668373333,-2.1500260416666666,63.24730870418356
1361724066.5,3.788793833333333,32.23,82.47333333333333,-0.8712760416666668,63.33919293497809
1361724066.75,3.7906623749999997,32.23,82.43999998293333,0.3401302083333333,63.39298940248079
1361724067.0,3.7923707500000003,32.23,82.40666666666665,1.3982291666666666,63.429566873452615
1361724067.25,3.7932783333333333,32.23,82.36916668586666,2.4663541666666666,63.441648362167996
1361724067.5,3.793385125,32.23,82.33166666666665,3.4761197916666666,63.4502755487619
1361724067.75,3.7929047083333334,32.23,82.29416664746665,4.302864583333333,63.45076831686122
1361724068.0,3.792103958333333,32.23,82.25666666666666,4.997395833333333,63.45076831686122
1361724068.25,3.7905557916666663,32.23,82.22083335168,5.214947916666667,63.45076831686122
1361724068.5,3.7879932916666665,32.23,82.185,5.540130208333334,63.45076831686122
1361724068.75,3.7847367916666665,32.23083333333333,82.14916664831999,5.783776041666667,63.45330806103118
1361724069.0,3.7807329166666666,32.232499999999995,82.11333333333333,5.5883593750000005,63.45965742145606
1361724069.25,3.7761951249999997,32.23416666666667,82.08000001706667,4.9288541666666665,63.45965742145606
1361724069.5,3.7714437916666665,32.23583333333333,82.04666666666667,4.095807291666667,63.45965742145605
1361724069.75,3.766425541666667,32.237500000000004,82.01333331626667,3.2242968750000003,63.45965742145606
1361724070.0,3.7613004999999995,32.23916666666667,81.98,2.225286458333333,63.45965742145606
1361724070.25,3.75580175,32.240833333333335,81.9550000128,1.343125,63.45965742145606
1361724070.5,3.749662375,32.2425,81.93,0.503125,63.45965742145606
1361724070.75,3.7429357499999996,32.244166666666665,81.9049999872,-0.16528645833333333,63.45965742145606
1361724071.0,3.7358888333333335,32.24583333333333,81.88,-0.6406770833333334,63.45965742145606
1361724071.25,3.729375791666667,32.2475,81.86416667477333,-0.8807552083333333,63.45965742145606
1361724071.5,3.723663541666667,32.24916666666667,81.84833333333333,-1.0330729166666666,63.45965742145606
1361724071.75,3.718645291666667,32.25,81.83249999189333,-1.0804687499999999,63.46298272543874
1361724072.0,3.714374416666667,32.25,81.81666666666666,-1.1745052083333334,63.46569524541756
1361724072.25,3.7107975833333335,32.25,81.80916667050667,-1.1436979166666668,63.47733782926186
1361724072.5,3.7077012083333334,32.25,81.80166666666668,-1.089375,63.48934908502624
1361724072.75,3.70487175,32.25083333333333,81.79416666282667,-0.9010937499999999,63.502097684630805
1361724073.0,3.7037506666666666,32.2525,81.78666666666668,-0.5821354166666667,63.51374026847511
1361724073.25,3.7050319166666665,32.25416666666667,81.78500000085334,-0.35000000000000003,63.529925255892
1361724073.5,3.7070071666666666,32.255833333333335,81.78333333333333,0.05252604166666663,63.5516294129402
1361724073.75,3.7096230416666667,32.2575,81.78166666581333,0.42041666666666666,63.56560509890165
1361724074.0,3.7128261666666664,32.259166666666665,81.78,0.6132552083333332,63.573192291625
1361724074.25,3.716242833333333,32.26083333333333,81.77916666709334,0.76015625,63.57396972923231
1361724074.5,3.7198730416666663,32.262499999999996,81.77833333333334,0.6916406249999999,63.57027385387304
1361724074.75,3.72350325,32.26416666666667,81.77749999957332,0.8074218749999998,63.5588649926815
1361724075.0,3.726439458333333,32.26583333333333,81.77666666666666,0.8822916666666666,63.543889711702974
1361724075.25,3.7291621249999998,32.267500000000005,81.77250000213333,0.8338541666666667,63.52633372728385
1361724075.5,3.7318314166666666,32.26916666666667,81.76833333333332,1.0183854166666666,63.50951783355242
1361724075.75,3.7345007083333335,32.27,81.76416666453332,0.6783072916666666,63.4997208892919
1361724076.0,3.7356752083333333,32.27,81.75999999999999,0.22653645833333327,63.49484566870066
1361724076.25,3.7347142916666667,32.27,81.75583333546666,-0.010156250000000028,63.48587920208701
1361724076.5,3.733593208333333,32.27,81.75166666666667,-0.5514583333333334,63.46958893564127
1361724076.75,3.7324721250000006,32.27,81.74749999786665,-0.939921875,63.46238061293286
1361724077.0,3.730923958333334,32.27,81.74333333333333,-0.8677343750000001,63.46274928485295
1361724077.25,3.7290554583333333,32.27,81.74000000170666,-0.71046875,63.46992771188906
1361724077.5,3.727080166666667,32.27,81.73666666666666,-0.3715364583333334,63.48084210805158
1361724077.75,3.725104875,32.27,81.73333333162667,-0.2913020833333334,63.493604441893744
1361724078.0,3.7238235833333335,32.27,81.73,-0.2233854166666667,63.506736363271834
1361724078.25,3.7227558333333337,32.27,81.73,0.10104166666666663,63.520605628490095
1361724078.5,3.721314416666667,32.27,81.73,0.14291666666666666,63.532628787260386
1361724078.75,3.719018875,32.27,81.73,0.7329427083333333,63.5368956527196
1361724079.0,3.7161894583333335,32.27,81.73,1.5565624999999998,63.53845282603006
1361724079.25,3.7131998750000004,32.27,81.73333333162667,2.01703125,63.53841083661451
1361724079.5,3.7101035000000007,32.27,81.73666666666666,2.8116927083333336,63.54439411339492
1361724079.75,3.706740208333333,32.270833333333336,81.74000000170666,3.5959375,63.54939258944481
1361724080.0,3.702576166666667,32.2725,81.74333333333333,3.8717187499999994,63.55295701083589
1361724080.25,3.696597041666667,32.274166666666666,81.7516666624,4.028671875,63.55615289711387
1361724080.5,3.6893900416666665,32.27583333333333,81.75999999999999,3.901953125,63.56008612723203
1361724080.75,3.6815957916666666,32.2775,81.76833333759998,3.7190625,63.56401935735018
1361724081.0,3.6731075416666665,32.27916666666667,81.77666666666666,4.002005208333333,63.56795258746833
1361724081.25,3.664192208333333,32.280833333333334,81.78916666026666,3.655546875,63.56257546195002
1361724081.5,3.655276833333333,32.282500000000006,81.80166666666665,3.510026041666667,63.54944061018521
1361724081.75,3.6470020416666666,32.28333333333333,81.81416667306665,3.461510416666666,63.53334900231545
1361724082.0,3.6391009583333336,32.28333333333334,81.82666666666665,2.8435937499999997,63.51413692459487
1361724082.25,3.6313066666666667,32.28333333333333,81.84166665898665,2.7851041666666663,63.49578507289431
1361724082.5,3.623725958333333,32.28333333333333,81.85666666666665,2.2773697916666666,63.47321258519859
1361724082.75,3.6161986249999996,32.282500000000006,81.87166667434666,1.3382031249999997,63.4502714255828
1361724083.0,3.6094186666666666,32.280833333333334,81.88666666666666,0.8776302083333333,63.42757581923542
1361724083.25,3.604507166666666,32.27916666666667,81.90499999061332,0.6083593749999999,63.40524874800115
1361724083.5,3.6003964583333334,32.2775,81.92333333333332,0.9148958333333331,63.38292167676688
1361724083.75,3.5964459166666667,32.27583333333333,81.94166667605333,1.3707291666666668,63.36059460553261
1361724084.0,3.59254875,32.274166666666666,81.96,1.2554947916666666,63.338267534298346
1361724084.25,3.588384666666667,32.2725,81.98666665301333,1.813203125,63.32451347486037
1361724084.5,3.5842739583333336,32.270833333333336,82.01333333333332,2.2326302083333336,63.31925448550907
1361724084.75,3.5800565,32.27,82.04000001365333,2.279296875,63.316952252262716
1361724085.0,3.5757322916666663,32.27,82.06666666666666,2.939348958333333,63.31666447310692
1361724085.25,3.5713546666666667,32.27,82.10249998165332,3.069635416666667,63.31666447310692
1361724085.5,3.566923625,32.27,82.13833333333332,3.535625,63.317281219555696
1361724085.75,3.5621722916666667,32.270833333333336,82.17416668501333,4.562161458333333,63.320364951799576
1361724086.0,3.556993875,32.2725,82.21,5.136536458333333,63.32463928294013
1361724086.25,3.5520824166666665,32.274166666666666,82.25166664533333,5.65515625,63.34512276667524
1361724086.5,3.547437875,32.27583333333333,82.29333333333332,5.893098958333334,63.367449837909504
1361724086.75,3.5432204166666668,32.2775,82.33500002133331,6.036119791666667,63.38977690914377
1361724087.0,3.5396435833333335,32.27916666666667,82.37666666666665,6.257447916666667,63.41210398037804
1361724087.25,3.5366539583333334,32.280833333333334,82.41833331199999,5.9640885416666665,63.43443105161231
1361724087.5,3.534038041666667,32.282500000000006,82.46,5.693333333333334,63.45675812284657
1361724087.75,3.5318492083333335,32.284166666666664,82.501666688,5.408463541666667,63.47908519408083
1361724088.0,3.5303543750000004,32.285833333333336,82.54333333333334,4.752916666666667,63.50067423601474
1361724088.25,3.530461125,32.2875,82.58249997994666,4.385729166666667,63.52226327794864
1361724088.5,3.532489791666667,32.28916666666667,82.62166666666667,4.0759895833333335,63.55117423187607
1361724088.75,3.535639541666667,32.29,82.66083335338666,2.9681770833333334,63.580850320471285
1361724089.0,3.539750208333333,32.29,82.69999999999999,1.5792447916666665,63.61084869208468
1361724089.25,3.5443947500000004,32.29,82.73499998207998,0.5297395833333333,63.624229255303874
1361724089.5,3.5503205833333333,32.29,82.76999999999998,-0.880859375,63.635766231023894
1361724089.75,3.556673458333334,32.29083333333333,82.80500001792,-2.3653125000000004,63.647875282604836
1361724090.0,3.563026333333333,32.2925,82.83999999999999,-3.1769531250000003,63.66129169467581
1361724090.25,3.569486,32.29416666666667,82.87166665045332,-3.619348958333333,63.67507574906136
1361724090.5,3.575945666666667,32.295833333333334,82.90333333333332,-3.7117187499999997,63.6756895194083
1361724090.75,3.582298541666667,32.2975,82.93500001621332,-3.5404166666666668,63.67195952800978
1361724091.0,3.588277708333333,32.29916666666667,82.96666666666665,-3.3582291666666673,63.664171862684924
1361724091.25,3.5929222500000004,32.30083333333334,82.99416665258666,-3.2985677083333336,63.65638419736007
1361724091.5,3.5957516666666667,32.3025,83.02166666666666,-3.4900520833333335,63.640657873592914
1361724091.75,3.5982607916666667,32.303333333333335,83.04916668074667,-2.8000520833333336,63.615747641994034
1361724092.0,3.602104583333334,32.303333333333335,83.07666666666667,-1.3920312499999998,63.58805152001299
1361724092.25,3.6084040833333333,32.303333333333335,83.10416665258667,-0.6104427083333334,63.55743486728013
1361724092.5,3.6158246666666667,32.303333333333335,83.13166666666666,0.647734375,63.52422884722946
1361724092.75,3.623458833333333,32.3025,83.15916668074667,2.2726302083333336,63.49045075131786
1361724093.0,3.6321607083333336,32.30083333333334,83.18666666666667,3.1928906250000004,63.456105114149885
1361724093.25,3.642357375,32.299166666666665,83.21499998549334,3.891536458333334,63.42065201543368
1361724093.5,3.6535683750000003,32.2975,83.24333333333334,4.4775,63.39787552661312
1361724093.75,3.6655267916666663,32.29666666666666,83.27166668117333,5.065989583333333,63.37067475374315
1361724094.0,3.677912291666667,32.29666666666666,83.3,6.007239583333333,63.31925345929998
1361724094.25,3.6907782499999997,32.29666666666666,83.33083331754666,6.6402343749999995,63.250820838100005
1361724094.5,3.7049788333333336,32.29666666666666,83.36166666666666,7.3386458333333335,63.18666569332026
1361724094.75,3.720514,32.29750000000001,83.39250001578667,7.836588541666667,63.103838142854755
1361724095.0,3.7362627083333333,32.29916666666667,83.42333333333333,7.9775,63.01159233734523
1361724095.25,3.750890333333334,32.30083333333334,83.4566666496,8.230572916666667,62.917782174345604
1361724095.5,3.7640231666666666,32.3025,83.49,7.675859375000001,62.79291051403865
1361724095.75,3.777209416666667,32.305,83.5233333504,6.638619791666667,62.649949869307626
1361724096.0,3.7923175416666672,32.30833333333333,83.55666666666666,6.058151041666666,62.49999946361749
1361724096.25,3.8123162083333333,32.31166666666667,83.59249998165333,5.503776041666668,62.35108500272869
1361724096.5,3.836831708333333,32.315,83.62833333333333,4.280234375,62.20016553078056
1361724096.75,3.863802916666667,32.31666666666667,83.66416668501333,3.0756510416666667,62.06385428767527
1361724097.0,3.8923757083333332,32.31666666666666,83.7,1.8473697916666667,61.96803856414624
1361724097.25,3.9208417500000006,32.31666666666667,83.73583331498666,1.4407291666666666,61.9034002507309
1361724097.5,3.9484002499999993,32.31666666666666,83.77166666666666,1.476927083333333,61.83881805232772
1361724097.75,3.9743572083333327,32.3175,83.80750001834666,0.7558072916666666,61.79789316624882
1361724098.0,3.998499041666667,32.31916666666667,83.84333333333332,-0.4809375000000002,61.770676437030296
1361724098.25,4.020772375,32.32083333333333,83.87833331541333,-1.3615364583333334,61.76414263190305
1361724098.5,4.042351708333333,32.3225,83.91333333333333,-1.4741406250000002,61.793439958415995
1361724098.75,4.062596374999999,32.32333333333333,83.94833335125332,-0.84125,61.841245072338836
1361724099.0,4.079851458333333,32.32333333333333,83.98333333333333,-0.7723177083333335,61.89542576888288
1361724099.25,4.091148291666667,32.32333333333333,84.01499998378667,-1.0065885416666667,61.94956157292439
1361724099.5,4.098195208333334,32.32333333333333,84.04666666666667,-0.2726562500000001,62.007201010670855
1361724099.75,4.1020389999999995,32.32416666666666,84.07833334954667,0.4476041666666665,62.05916775407945
1361724100.0,4.103854125,32.325833333333335,84.11,0.38309895833333324,62.099655202711695
1361724100.25,4.105295541666666,32.3275,84.13666665301334,-0.3394791666666668,62.127022036509466
1361724100.5,4.107591125,32.329166666666666,84.16333333333333,-1.1685677083333335,62.167186741746086
1361724100.75,4.109886708333334,32.33,84.19000001365332,-1.3326822916666667,62.216658548842865
1361724101.0,4.112182291666667,32.33,84.21666666666665,-0.7264062500000001,62.2692318237197
1361724101.25,4.1144778749999995,32.33,84.23416665770665,-0.08549479166666678,62.31623927134234
1361724101.5,4.1168268333333335,32.33,84.25166666666667,0.6769791666666665,62.37681746377643
1361724101.75,4.119816416666667,32.32916666666666,84.26916667562666,0.9072395833333332,62.44447106321346
1361724102.0,4.122592458333333,32.32749999999999,84.28666666666666,1.2240885416666665,62.53423100645861
1361724102.25,4.1235,32.32583333333333,84.29666666154667,1.941484375,62.6300376099094
1361724102.5,4.121951791666667,32.32416666666666,84.30666666666667,1.849270833333333,62.72446926311451
1361724102.75,4.11917575,32.3225,84.31666667178666,1.3504687499999999,62.818733427609516
1361724103.0,4.115385416666666,32.32083333333333,84.32666666666667,1.6066145833333332,62.91299759210452
1361724103.25,4.110901041666667,32.31916666666667,84.33249999701333,2.0572916666666665,63.00621628807712
1361724103.5,4.104654916666667,32.3175,84.33833333333334,2.137421875,63.081851184086894
1361724103.75,4.097661416666667,32.31583333333333,84.34416666965333,2.568515625,63.1489402511979
1361724104.0,4.090080708333333,32.314166666666665,84.35,3.0931510416666668,63.20991095717982
1361724104.25,4.08191275,32.3125,84.35583333034666,2.873802083333333,63.26065811036623
1361724104.5,4.072944000000001,32.310833333333335,84.36166666666665,2.356145833333333,63.29565425172614
1361724104.75,4.063548166666666,32.31,84.36750000298666,1.9627083333333333,63.323156183097296
1361724105.0,4.053885375,32.31,84.37333333333332,1.5677083333333333,63.32842612976458
1361724105.25,4.045183541666667,32.31,84.37749999786666,1.7704947916666665,63.32739818316109
1361724105.5,4.037282541666667,32.31,84.38166666666666,2.886510416666667,63.32674023830061
1361724105.75,4.030235666666667,32.31,84.38583333546666,4.402864583333334,63.32608229344012
1361724106.0,4.023776000000001,32.31,84.39,6.060911458333333,63.32542434857964
1361724106.25,4.017583291666667,32.31,84.39,7.343671875000001,63.324766403719146
1361724106.5,4.011337208333333,32.31,84.39,8.718776041666667,63.324560795950255
1361724106.75,4.0051978749999995,32.31,84.39,9.926432291666666,63.324560795950255
1361724107.0,3.99895175,32.31,84.39,10.5428125,63.324560795950255
1361724107.25,3.9926522499999995,32.31,84.38750000128,11.541171874999998,63.324560795950255
1361724107.5,3.986726458333333,32.31,84.38499999999999,12.82875,63.324560795950255
1361724107.75,3.9807472500000003,32.31,84.38249999872,13.80078125,63.324560795950255
1361724108.0,3.974074041666667,32.31,84.38,14.799947916666667,63.324560795950255
1361724108.25,3.966760208333333,32.31,84.37750000128,15.095416666666667,63.324560795950255
1361724108.5,3.959019291666666,32.31,84.375,14.636484375,63.32468416061159
1361724108.75,3.950958083333333,32.310833333333335,84.37249999872,14.003880208333335,63.325300983918304
1361724109.0,3.9429502499999995,32.31250000000001,84.37,12.942526041666667,63.35019020639345
1361724109.25,3.934835625,32.31416666666667,84.37083333290667,12.192942708333332,63.37120391514838
1361724109.5,3.9268811666666665,32.31583333333334,84.37166666666667,11.459192708333333,63.393036641459226
1361724109.75,3.9191402500000003,32.3175,84.37250000042667,10.485442708333334,63.425983883253274
1361724110.0,3.9112925416666666,32.31916666666667,84.37333333333333,9.824713541666666,63.451739852740104
1361724110.25,3.9033914583333336,32.32083333333333,84.37416666624,9.228020833333334,63.458964397004756
1361724110.5,3.895490375,32.3225,84.375,8.206875,63.456413629063235
1361724110.75,3.8880697916666667,32.32458333333333,84.37583333376,7.073645833333334,63.45044725677298
1361724111.0,3.8816635416666663,32.327083333333334,84.37666666666667,6.025703125000001,63.437105520354805
1361724111.25,3.876218208333333,32.32958333333334,84.37333333504,5.0445312499999995,63.421290159913816
1361724111.5,3.871466875,32.33208333333333,84.37,4.246380208333333,63.4052689341624
1361724111.75,3.86730275,32.333333333333336,84.36666666496,3.7443489583333336,63.388135386132745
1361724112.0,3.8634589583333336,32.333333333333336,84.36333333333333,3.3920052083333334,63.342809026631805
1361724112.25,3.860149041666667,32.333333333333336,84.35083333973333,3.0403645833333335,63.30024328696418
1361724112.5,3.8572128333333335,32.333333333333336,84.33833333333334,2.7600520833333335,63.25466966514896
1361724112.75,3.8547037083333335,32.3325,84.32583332693333,2.58921875,63.19794021528483
1361724113.0,3.8529953750000003,32.33083333333334,84.31333333333333,2.2591145833333335,63.14778234924196
1361724113.25,3.8520344166666667,32.32916666666667,84.29000001194666,1.8968229166666666,63.115907986225544
1361724113.5,3.8516073333333334,32.32750000000001,84.26666666666667,2.069765625,63.0924453087099
1361724113.75,3.85118025,32.32541666666666,84.24333332138667,2.952213541666666,63.07202628201208
1361724114.0,3.850913333333333,32.322916666666664,84.22,3.9249739583333336,63.05898261944219
1361724114.25,3.8508600000000004,32.32041666666667,84.19000001536,5.122473958333333,63.04841258089511
1361724114.5,3.851020166666667,32.31791666666667,84.16,6.104088541666667,63.037925042997124
1361724114.75,3.851393875,32.31583333333333,84.12999998464,6.756119791666666,63.028056368732
1361724115.0,3.851820958333333,32.314166666666665,84.1,7.519869791666667,63.022108106769736
1361724115.25,3.852461583333333,32.3125,84.06833334954666,8.248098958333335,63.01727473869437
1361724115.5,3.8534225416666668,32.310833333333335,84.03666666666666,8.921223958333334,63.01463023521067
1361724115.75,3.855558,32.310833333333335,84.00499998378666,9.384661458333333,63.012027044292694
1361724116.0,3.8601491666666665,32.31250000000001,83.97333333333333,9.803828125,63.010043541860675
1361724116.25,3.8682103750000003,32.31416666666667,83.9441666816,10.253802083333333,63.00830796162436
1361724116.5,3.879528083333333,32.31583333333334,83.91499999999999,10.34890625,63.00793600809346
1361724116.75,3.892714291666666,32.31791666666667,83.8858333184,10.007005208333334,63.00793600809346
1361724117.0,3.9060072916666666,32.32041666666667,83.85666666666667,9.624921875,63.00793600809346
1361724117.25,3.9192468750000002,32.322916666666664,83.83166667946666,9.085755208333333,63.00793600809346
1361724117.5,3.932379708333334,32.32541666666667,83.80666666666667,8.651119791666666,63.008142633335666
1361724117.75,3.945405791666667,32.327916666666674,83.78166665386667,8.326692708333335,63.010126135767685
1361724118.0,3.958431875,32.330416666666665,83.75666666666666,7.898932291666667,63.012109638199696
1361724118.25,3.9712444166666674,32.33291666666667,83.73750000981333,7.227656249999999,63.01409314063172
1361724118.5,3.9825087499999996,32.33541666666667,83.71833333333333,6.594166666666666,63.016076643063734
1361724118.75,3.991797791666667,32.33708333333333,83.69916665685334,6.171145833333333,63.01806014549575
1361724119.0,3.9986311249999997,32.337916666666665,83.68,5.926614583333333,63.02004364792777
1361724119.25,4.001941041666666,32.338750000000005,83.66583334058667,5.686640625,63.0220271503598
1361724119.5,4.001887666666667,32.33958333333334,83.65166666666667,5.451302083333332,63.024010652791816
1361724119.75,3.9999657916666673,32.34,83.63749999274667,5.397864583333334,63.02491982570911
1361724120.0,3.997937125,32.34,83.62333333333333,5.340182291666667,63.02520912289982
1361724120.25,3.996122,32.34,83.61500000426666,5.234036458333334,63.02520912289982
1361724120.5,3.9943068749999995,32.34,83.60666666666665,4.9676302083333335,63.02500249765762
1361724120.75,3.9924917499999997,32.34,83.59833332906666,4.8386458333333335,63.02301899522559
1361724121.0,3.9906766250000003,32.34,83.58999999999999,4.707005208333333,63.02103549279358
1361724121.25,3.9888615,32.34,83.58583333546666,4.818723958333333,63.01905199036156
1361724121.5,3.98827425,32.34,83.58166666666665,5.05203125,63.01706848792954
1361724121.75,3.988647958333333,32.34,83.57749999786665,5.1795052083333335,63.015084985497516
1361724122.0,3.9890216666666665,32.34,83.57333333333332,5.128203125,63.0131014830655
1361724122.25,3.9893953750000004,32.34,83.57250000042666,5.26359375,63.01111798063348
1361724122.5,3.9897690833333335,32.34,83.57166666666666,5.376302083333333,63.00913447820145
1361724122.75,3.9901427916666665,32.34,83.57083333290666,5.224817708333333,63.00822530528416
1361724123.0,3.9905165,32.34,83.57,5.215390625,63.00793600809346
1361724123.25,3.9919045416666665,32.34,83.57,4.922864583333333,63.00793600809346
1361724123.5,3.996816041666667,32.34,83.57,4.767760416666667,63.00793600809346
1361724123.75,4.006318708333334,32.34,83.57,4.539765625,63.00793600809346
1361724124.0,4.020359125,32.34,83.57,4.279296875,63.00793600809346
1361724124.25,4.035574041666666,32.34,83.57249999871999,4.134635416666666,63.00793600809346
1361724124.5,4.050788958333333,32.34,83.57499999999999,3.981536458333333,63.00876241543212
1361724124.75,4.065843708333333,32.34,83.57750000128,3.6527604166666663,63.013182704753234
1361724125.0,4.080898458333333,32.34,83.58,3.528619791666667,63.02321583683955
1361724125.25,4.095953208333333,32.34,83.58833332906667,3.273984375,63.04478065739949
1361724125.5,4.111007958333333,32.34,83.59666666666666,2.8954947916666662,63.071042276930434
1361724125.75,4.1244077500000005,32.34,83.60500000426666,2.7002864583333337,63.09997513369379
1361724126.0,4.1364195,32.34,83.61333333333333,2.330989583333333,63.1305107327966
1361724126.25,4.146028916666666,32.34,83.62833332565333,2.5636718750000003,63.16297806717987
1361724126.5,4.151260708333333,32.34,83.64333333333333,2.9623958333333333,63.199099501277885
1361724126.75,4.151100541666667,32.34125,83.65833334101333,3.274557291666666,63.23768240586898
1361724127.0,4.145922166666667,32.34375000000001,83.67333333333333,3.4920833333333334,63.278398193620724
1361724127.25,4.1394625000000005,32.346250000000005,83.69583332181334,3.70328125,63.31972934899576
1361724127.5,4.132842666666667,32.34875,83.71833333333333,3.7906770833333336,63.35276751795957
1361724127.75,4.125582208333333,32.35125,83.74083334485333,4.1086197916666665,63.382006427478075
1361724128.0,4.117307416666667,32.35375,83.76333333333334,4.629166666666666,63.40329085356893
1361724128.25,4.108498791666666,32.356249999999996,83.78833332053334,4.997864583333333,63.410577854374
1361724128.5,4.09942325,32.35875,83.81333333333333,5.362552083333333,63.4148122831688
1361724128.75,4.092002666666667,32.36125,83.83833334613333,5.934531249999999,63.41727947315365
1361724129.0,4.085970125,32.36375,83.86333333333333,6.683932291666667,63.41814392079903
1361724129.25,4.081112041666667,32.36625,83.88666665472,6.909817708333333,63.4168712557011
1361724129.5,4.0771081250000005,32.36875,83.91,6.945208333333333,63.411739113425575
1361724129.75,4.073905000000001,32.37,83.93333334527999,6.911484375,63.40414550065696
1361724130.0,4.071556041666667,32.37,83.95666666666666,7.012135416666666,63.3944190047277
1361724130.25,4.069901125,32.37,83.9733333248,7.0652083333333335,63.38407714117516
1361724130.5,4.068459750000001,32.37,83.99,7.045963541666667,63.38120185669518
1361724130.75,4.067659,32.37,84.0066666752,6.927682291666667,63.37853194967804
1361724131.0,4.06803275,32.37,84.02333333333333,6.506953124999999,63.378203683323356
1361724131.25,4.069207250000001,32.37,84.0316666624,6.198723958333333,63.38034115378084
1361724131.5,4.072357,32.37,84.03999999999999,6.064218750000001,63.380834397277575
1361724131.75,4.080791916666667,32.37,84.04833333759998,5.749270833333334,63.380423642351865
1361724132.0,4.097074500000001,32.37,84.05666666666666,5.289635416666667,63.380012887426155
1361724132.25,4.119402166666666,32.37,84.05666666666666,5.084270833333334,63.3798075099633
1361724132.5,4.14200925,32.37,84.05666666666666,5.098229166666667,63.3798075099633
1361724132.75,4.164616333333333,32.37,84.05666666666666,5.367734375,63.3798075099633
1361724133.0,4.186849708333333,32.37,84.05666666666666,5.661328125,63.38034162423924
1361724133.25,4.208495833333333,32.37,84.05083333631998,5.763229166666666,63.38136872106611
1361724133.5,4.230088583333333,32.37,84.04499999999999,5.906796875,63.382683382100986
1361724133.75,4.252482125,32.37,84.03916666367999,6.137239583333334,63.38399804313587
1361724134.0,4.2747155,32.37,84.03333333333332,6.320546875000001,63.38531270417075
1361724134.25,4.296681958333333,32.37,84.02750000298666,6.473333333333334,63.38662736520562
1361724134.5,4.316940083333333,32.37,84.02166666666665,6.594374999999999,63.3879420262405
1361724134.75,4.331913041666667,32.37,84.01583333034665,6.545390625,63.389256687275385
1361724135.0,4.339038333333333,32.37,84.00999999999999,6.5027864583333335,63.39057134831026
1361724135.25,4.342414125,32.37,84.00750000128,6.470364583333333,63.39188600934514
1361724135.5,4.351596458333334,32.37,84.005,6.156562500000001,63.39320067038002
1361724135.75,4.366063958333333,32.37,84.00249999872,5.705598958333333,63.3945153314149
1361724136.0,4.386030166666667,32.37,84.0,5.406614583333334,63.39529587817383
1361724136.25,4.413790666666666,32.37,83.99166667093333,5.152994791666667,63.39558344238185
1361724136.5,4.450253041666667,32.37,83.98333333333332,4.9507812499999995,63.39558344238185
1361724136.75,4.491413333333334,32.37083333333333,83.97499999573333,5.034296875,63.39558344238185
1361724137.0,4.534335333333334,32.372499999999995,83.96666666666665,5.149973958333333,63.39558344238185
1361724137.25,4.5782182916666665,32.37416666666667,83.95000000853332,5.351796875000001,63.39558344238185
1361724137.5,4.62279525,32.37583333333333,83.93333333333332,5.85015625,63.39558344238185
1361724137.75,4.667532333333333,32.3775,83.91666665813332,6.4340625,63.39558344238185
1361724138.0,4.712269416666667,32.37916666666666,83.89999999999999,6.891666666666667,63.39558344238185
1361724138.25,4.754710916666666,32.380833333333335,83.87500001279999,7.539687499999999,63.39558344238185
1361724138.5,4.791066458333334,32.3825,83.85,8.236197916666667,63.39558344238185
1361724138.75,4.821478083333333,32.384166666666665,83.8249999872,8.57171875,63.39537803937612
1361724139.0,4.845697,32.38583333333333,83.8,8.97671875,63.39537803937612
1361724139.25,4.862121625,32.3875,83.76833334954667,9.399635416666667,63.39529587817383
1361724139.5,4.868438208333334,32.38916666666667,83.73666666666666,9.40109375,63.39459748239241
1361724139.75,4.865839416666667,32.39,83.70499998378666,9.230807291666666,63.39348817320118
1361724140.0,4.858275750000001,32.39,83.67333333333333,9.249140625,63.391557042302686
1361724140.25,4.846761541666667,32.39,83.63333335381333,8.989973958333332,63.388022892976586
1361724140.5,4.830976499999999,32.39,83.59333333333333,8.486380208333332,63.38674912328897
1361724140.75,4.811507875,32.39,83.55333331285333,8.184375,63.39044339338144
1361724141.0,4.788248875,32.39,83.51333333333332,8.046197916666666,63.40312099459712
1361724141.25,4.7618935,32.39,83.46583335765332,7.974374999999999,63.41923995930268
1361724141.5,4.732868875,32.39,83.41833333333332,8.097421875,63.43564570429908
1361724141.75,4.701887083333333,32.38916666666667,83.37083330901332,8.358932291666667,63.4522568523012
1361724142.0,4.670424791666666,32.3875,83.32333333333332,7.672864583333333,63.462099534626525
1361724142.25,4.638642208333333,32.38583333333333,83.27583335765333,6.93875,63.477562081762926
1361724142.5,4.608159041666666,32.384166666666665,83.22833333333332,6.648203125000001,63.49466622254074
1361724142.75,4.580558708333333,32.38333333333333,83.18083330901332,6.265416666666666,63.51484188241336
1361724143.0,4.555681083333333,32.38333333333333,83.13333333333333,6.040598958333333,63.53829489951161
1361724143.25,4.5336328749999995,32.38333333333333,83.08750002346666,5.712942708333333,63.56478288854976
1361724143.5,4.514947958333333,32.38333333333333,83.04166666666666,5.275755208333333,63.587782982879816
1361724143.75,4.499092458333333,32.3825,82.99583330986667,4.9113541666666665,63.60561047264232
1361724144.0,4.485639291666666,32.380833333333335,82.95,4.341848958333333,63.612286007096124
1361724144.25,4.474019416666667,32.37916666666666,82.90333335722667,3.35421875,63.615233847988115
1361724144.5,4.4645349166666675,32.3775,82.85666666666665,2.648411458333333,63.61642116278972
1361724144.75,4.45723925,32.3775,82.80999997610665,1.9383333333333332,63.619573421402855
1361724145.0,4.450175291666667,32.37916666666666,82.76333333333332,2.3521614583333332,63.62941154219005
1361724145.25,4.442577458333333,32.38083333333333,82.71333335893333,3.6447916666666664,63.63371195936847
1361724145.5,4.435086375,32.3825,82.66333333333333,4.697838541666667,63.63698701748459
1361724145.75,4.428129125,32.3825,82.61333330773331,5.3863281249999995,63.63760146991573
1361724146.0,4.421652333333333,32.38083333333333,82.56333333333332,6.174192708333333,63.63576038682849
1361724146.25,4.415335708333333,32.37916666666666,82.51000002730665,7.161822916666666,63.63248735022898
1361724146.5,4.409232625,32.3775,82.45666666666665,7.770078125,63.630441828699055
1361724146.75,4.404410833333333,32.3775,82.40333330602665,8.312057291666667,63.628600871956614
1361724147.0,4.404874208333333,32.37916666666666,82.34999999999998,9.195729166666666,63.628928539399645
1361724147.25,4.412579833333333,32.380833333333335,82.29583336106666,9.910807291666666,63.62954253691462
1361724147.5,4.423969083333333,32.3825,82.24166666666665,10.369244791666667,63.63163028022914
1361724147.75,4.435785416666666,32.38333333333333,82.18749997226665,11.238645833333335,63.63048402506485
1361724148.0,4.448544541666666,32.38333333333333,82.13333333333333,11.451614583333333,63.62720896694873
1361724148.25,4.462157833333333,32.38333333333333,82.08083336021333,10.873385416666666,63.62393390883259
1361724148.5,4.4757711250000005,32.38333333333333,82.02833333333334,10.783255208333335,63.62065885071647
1361724148.75,4.489384416666667,32.385,81.97583330645332,10.76833333333333,63.61738379260034
1361724149.0,4.5024105,32.388333333333335,81.92333333333333,10.243046875,63.61410873448421
1361724149.25,4.514582416666667,32.391666666666666,81.87500002474667,9.938489583333334,63.61083367636808
1361724149.5,4.526754333333334,32.395,81.82666666666667,9.965130208333333,63.60755861825195
1361724149.75,4.538339,32.3975,81.77833330858667,9.765026041666667,63.604283560135826
1361724150.0,4.5460265416666665,32.399166666666666,81.73,9.406328125,63.59018272705052
1361724150.25,4.547734916666667,32.40083333333333,81.68416669013334,9.323567708333334,63.5724733023088
1361724150.5,4.5462935416666665,32.402499999999996,81.63833333333334,9.109270833333333,63.554763877567105
1361724150.75,4.546934208333333,32.40416666666666,81.59249997653333,8.6846875,63.53647511032698
1361724151.0,4.553393916666666,32.40583333333333,81.54666666666667,8.495208333333332,63.5187547042957
1361724151.25,4.567274208333333,32.40749999999999,81.50333335552,8.349973958333335,63.501034298264436
1361724151.5,4.587720916666666,32.409166666666664,81.46000000000001,7.91140625,63.483313892233156
1361724151.75,4.612420333333333,32.41,81.41666664448,7.740026041666667,63.465593486201875
1361724152.0,4.637706958333333,32.41,81.37333333333333,7.707682291666667,63.44787308017061
1361724152.25,4.6638477499999995,32.41,81.33000002218667,7.7495312499999995,63.43015267413933
1361724152.5,4.689988541666666,32.41,81.28666666666666,7.869010416666668,63.4017359874326
1361724152.75,4.716129333333333,32.41,81.24333331114666,7.898723958333334,63.37085092826229
1361724153.0,4.742270125,32.41,81.19999999999999,8.219739583333332,63.348937471721975
1361724153.25,4.770439583333333,32.41,81.15833335466665,8.510078125,63.329190472796434
1361724153.5,4.799711958333333,32.41,81.11666666666665,8.559661458333332,63.30944347387089
1361724153.75,4.826902291666667,32.41,81.07499997866665,8.893645833333334,63.29154487211107
1361724154.0,4.8482735833333335,32.41,81.03333333333332,9.295989583333334,63.275083912591235
1361724154.25,4.862224291666666,32.41,80.99333335381333,9.345234375,63.25862295307139
1361724154.5,4.871316958333333,32.41,80.95333333333332,9.517473958333333,63.242161993551555
1361724154.75,4.877972000000001,32.410833333333336,80.91333331285333,9.99734375,63.22570103403172
1361724155.0,4.884627041666667,32.412499999999994,80.87333333333333,10.105781250000001,63.20924007451188
1361724155.25,4.8912820833333335,32.41416666666667,80.83333335381333,10.089609375,63.19277911499205
1361724155.5,4.8979371249999994,32.41583333333333,80.79333333333332,10.407109375000001,63.18701443614767
1361724155.75,4.904592166666667,32.4175,80.75333331285333,10.534765625,63.183718129766866
1361724156.0,4.911247208333333,32.41916666666666,80.71333333333332,10.435885416666666,63.182275995725256
1361724156.25,4.9117095,32.420833333333334,80.67250002090665,10.575052083333334,63.182275995725256
1361724156.5,4.905623541666667,32.4225,80.63166666666666,10.764427083333333,63.175591342014606
1361724156.75,4.8945727083333335,32.42333333333334,80.59083331242667,10.648046875,63.16370751319567
1361724157.0,4.879144291666667,32.42333333333333,80.55,10.619453125,63.151823684376716
1361724157.25,4.859765375,32.42333333333334,80.50833335466666,10.887864583333332,63.13993985555777
1361724157.5,4.835741875,32.42333333333333,80.46666666666667,10.993723958333334,63.128056026738825
1361724157.75,4.807394125,32.42249999999999,80.42499997866666,10.873333333333335,63.11617219791989
1361724158.0,4.776964333333334,32.420833333333334,80.38333333333333,11.093098958333336,63.10428836910094
1361724158.25,4.744612666666667,32.41916666666666,80.34166668799999,11.196588541666666,63.092404540282
1361724158.5,4.710872958333334,32.4175,80.29999999999998,11.198567708333334,63.08052071146306
1361724158.75,4.676279083333333,32.41583333333333,80.25833331199999,11.484661458333335,63.068636882644114
1361724159.0,4.640457333333333,32.41416666666667,80.21666666666665,11.407630208333332,63.05675305382517
1361724159.25,4.608799666666667,32.412499999999994,80.17666668714665,11.578645833333335,63.04486922500623
1361724159.5,4.582587333333334,32.41083333333333,80.13666666666666,11.876197916666667,63.03967004989794
1361724159.75,4.561339875000001,32.41,80.09666664618666,11.95984375,63.04635470360859
1361724160.0,4.54436325,32.41,80.05666666666666,12.150416666666665,63.058238532427545
1361724160.25,4.531337125,32.41,80.01583335423999,12.283411458333333,63.07205797912644
1361724160.5,4.5212472083333335,32.41,79.975,12.173411458333334,63.1016746426962
1361724160.75,4.514574041666666,32.41,79.93416664576,12.114036458333333,63.139459146673424
1361724161.0,4.510356624999999,32.41,79.89333333333333,12.078932291666666,63.180935856390285
1361724161.25,4.508061083333333,32.41,79.85333335381333,11.846015625,63.22241256610715
1361724161.5,4.507260333333333,32.41,79.81333333333333,11.452343750000002,63.263889275824006
1361724161.75,4.507954375,32.410833333333336,79.77333331285334,11.148072916666665,63.305365985540874
1361724162.0,4.510570291666666,32.4125,79.73333333333333,11.031354166666667,63.34684269525773
1361724162.25,4.513826833333333,32.41416666666666,79.69333335381333,10.649114583333334,63.388319404974595
1361724162.5,4.517296916666666,32.41583333333333,79.65333333333334,10.554166666666665,63.42979611469146
1361724162.75,4.520767,32.4175,79.61333331285333,10.420911458333334,63.46458817069766
1361724163.0,4.524343833333333,32.41916666666666,79.57333333333332,10.103697916666667,63.49418105159558
1361724163.25,4.527920666666666,32.420833333333334,79.53583335253333,9.961276041666666,63.521838314613554
1361724163.5,4.531657666666667,32.4225,79.49833333333333,9.940885416666667,63.533698360760646
1361724163.75,4.53464725,32.424166666666665,79.46083331413332,9.791067708333333,63.53739056650029
1361724164.0,4.537263125,32.42583333333334,79.42333333333333,9.639817708333334,63.53739056650029
1361724164.25,4.5399857500000005,32.4275,79.38833335125332,9.667734375,63.53739056650029
1361724164.5,4.5426016250000005,32.42916666666667,79.35333333333332,9.633828124999999,63.53739056650029
1361724164.75,4.544576875,32.43,79.31833331541333,9.528411458333332,63.53739056650029
1361724165.0,4.546285208333333,32.43,79.28333333333332,9.318255208333333,63.53739056650029
1361724165.25,4.547406291666667,32.43,79.25083334997332,8.862291666666666,63.53739056650029
1361724165.5,4.548420625,32.43,79.21833333333332,8.45984375,63.53739056650029
1361724165.75,4.549541708333334,32.43,79.18583331669332,8.259479166666667,63.53739056650029
1361724166.0,4.550662791666667,32.43,79.15333333333332,7.90203125,63.536980448720705
1361724166.25,4.551783875000001,32.43,79.12416668159999,7.667552083333334,63.52039042957731
1361724166.5,4.552744791666667,32.43,79.095,7.366041666666667,63.47661704899772
1361724166.75,4.553225250000001,32.43,79.06583331840001,6.819270833333333,63.383285310647985
1361724167.0,4.553545583333333,32.43,79.03666666666668,6.374010416666667,63.274579173829046
1361724167.25,4.553652375,32.43,79.01000001365334,5.881927083333333,63.161519917582524
1361724167.5,4.552050791666667,32.43,78.98333333333333,5.336875,63.032008447373755
1361724167.75,4.548473958333333,32.43,78.95666665301333,4.99484375,62.883143554965905
1361724168.0,4.544470041666667,32.43,78.92999999999999,4.841354166666666,62.7345738050601
1361724168.25,4.540412750000001,32.43,78.90500001279999,4.687291666666666,62.590429911614244
1361724168.5,4.536248666666667,32.43,78.88,4.24234375,62.44683385124776
1361724168.75,4.531977833333333,32.43,78.8549999872,3.7905729166666666,62.30323779088126
1361724169.0,4.527707,32.43,78.83,3.3667447916666666,62.16005184829435
1361724169.25,4.523596333333334,32.43,78.8050000128,2.8577604166666664,62.033045807071254
1361724169.5,4.520980458333334,32.43,78.78,2.616979166666667,61.93322312728436
1361724169.75,4.519485666666667,32.43,78.75499998720001,2.7539322916666666,61.882958805267585
1361724170.0,4.518845000000001,32.43,78.73,2.9859375,61.84806888172003
1361724170.25,4.518311125,32.43,78.7050000128,3.3940625,61.81753207760007
1361724170.5,4.519485625000001,32.43,78.68,3.9688020833333333,61.803447487442334
1361724170.75,4.522635375000001,32.43083333333333,78.6549999872,4.127161458333333,61.80871631948369
1361724171.0,4.5257851250000005,32.4325,78.63,4.422239583333333,61.81369000902301
1361724171.25,4.528721333333333,32.43416666666666,78.60666667861332,4.983958333333334,61.814237842102365
1361724171.5,4.530109374999999,32.435833333333335,78.58333333333333,5.294036458333333,61.814237842102365
1361724171.75,4.530056,32.4375,78.55999998805333,5.923463541666666,61.814237842102365
1361724172.0,4.529095041666667,32.43916666666667,78.53666666666666,6.662760416666667,61.820299650012
1361724172.25,4.527760375,32.44083333333334,78.515833344,7.023151041666666,61.82838206055816
1361724172.5,4.524824124999999,32.4425,78.495,7.574557291666667,61.836464471104335
1361724172.75,4.521087083333334,32.44416666666667,78.474166656,8.032890625,61.84454688165051
1361724173.0,4.516656041666667,32.44583333333333,78.45333333333333,8.150052083333334,61.85262929219669
1361724173.25,4.512225,32.447500000000005,78.44083333973333,8.345963541666668,61.860711702742854
1361724173.5,4.507793958333333,32.44916666666667,78.42833333333333,8.460364583333334,61.86879411328903
1361724173.75,4.503416333333333,32.45,78.41583332693332,8.784869791666667,61.8768765238352
1361724174.0,4.499038708333333,32.45,78.40333333333332,8.775703125,61.904301658545855
1361724174.25,4.494874625,32.45,78.39750000298666,8.504635416666666,61.965280428741295
1361724174.5,4.492258708333333,32.45,78.39166666666665,8.898463541666667,62.026259198936735
1361724174.75,4.491191,32.45,78.38583333034666,8.731354166666668,62.087237969132154
1361724175.0,4.4912444166666665,32.45,78.38,8.413281249999999,62.14215493141796
1361724175.25,4.491724916666667,32.45,78.38333333162666,8.833359375,62.19505129106722
1361724175.5,4.492650666666667,32.45,78.38666666666666,8.741666666666665,62.24794765071649
1361724175.75,4.4945021249999995,32.45,78.39000000170667,8.548229166666667,62.28944649732197
1361724176.0,4.498061916666667,32.45,78.39333333333333,9.019505208333333,62.285107599752905
1361724176.25,4.503311916666667,32.45,78.39749999786667,8.894088541666667,62.274369502943244
1361724176.5,4.509594375,32.45,78.40166666666667,8.101744791666667,62.262872638629744
1361724176.75,4.515823416666667,32.45,78.40583333546667,7.176197916666666,62.236255430105125
1361724177.0,4.5246683333333335,32.45,78.41000000000001,7.1134375,62.18450661364327
1361724177.25,4.535008041666667,32.45,78.41583333034667,6.614140625,62.099204161696655
1361724177.5,4.545454541666667,32.45,78.42166666666668,5.371041666666667,62.01390170975003
1361724177.75,4.55579425,32.45,78.42750000298668,5.082526041666666,61.928599257803405
1361724178.0,4.565920416666667,32.45,78.43333333333334,4.418098958333333,61.84329680585679
1361724178.25,4.575833041666667,32.45,78.43583333205333,3.157161458333333,61.75799435391016
1361724178.5,4.586261375,32.45,78.43833333333333,2.5597135416666665,61.67269190196354
1361724178.75,4.595764,32.45,78.44083333461333,1.6496875,61.5987869630607
1361724179.0,4.602704125,32.45,78.44333333333333,0.30575520833333325,61.5707197683324
1361724179.25,4.607954041666667,32.45,78.44250000042666,-0.5007812500000001,61.5490517728447
1361724179.5,4.6121715,32.45,78.44166666666666,-0.33604166666666674,61.528142544860835
1361724179.75,4.616388958333334,32.45,78.44083333290666,0.3611979166666666,61.5223536610881
1361724180.0,4.617990541666667,32.45,78.44,0.32109374999999996,61.52252296505836
