timestamp,EDA,TEMP,HR,BVP,ACC_mag
1361788559.0,1.0321725833333333,32.0,,11.168333333333335,62.27293073698294
1361788559.25,1.0307387857142858,32.0,,10.560714285714285,62.22247432294204
1361788559.5,1.0296634375,32.0,,10.126796875,62.197680210040275
1361788559.75,1.0288270555555554,31.999444444444446,,10.126944444444444,62.14753570515393
1361788560.0,1.0274533,31.9985,,9.79628125,62.093481434616535
1361788560.25,1.0259216363636363,31.997727272727275,,9.177471590909091,62.03314770689544
1361788560.5,1.0242715416666666,31.997083333333332,,8.711145833333333,61.97897005289198
1361788560.75,1.0212819583333335,31.99625,,8.642604166666667,61.88187299666884
1361788561.0,1.0182389583333336,31.995416666666667,,8.437161458333334,61.80169299698699
1361788561.25,1.0147155,31.994583333333335,,7.602890625000001,61.711787550842814
1361788561.5,1.0107115416666665,31.993750000000002,,6.143828125,61.62914730333751
1361788561.75,1.0067075833333334,31.99208333333333,,5.182682291666667,61.558662269680866
1361788562.0,1.0029172083333335,31.989583333333332,,4.639114583333334,61.49473310485152
1361788562.25,0.9992869583333333,31.98708333333333,,4.247421875000001,61.43866305109052
1361788562.5,0.9953364166666666,31.984583333333333,,3.591875,61.37993114208061
1361788562.75,0.9911189583333333,31.982499999999998,,2.5903645833333333,61.34714604848151
1361788563.0,0.9873285416666667,31.980833333333333,,2.005625,61.31955989940257
1361788563.25,0.9837516666666667,31.97916666666666,,1.995,61.314726061790786
1361788563.5,0.980495125,31.977500000000003,,1.8277343750000004,61.311200936463514
1361788563.75,0.9775054999999999,31.97583333333333,,1.0102083333333334,61.31799224195944
1361788564.0,0.9748895833333333,31.974166666666665,,-0.6484635416666666,61.324867302457896
1361788564.25,0.9726473750000001,31.972499999999997,,-1.6928645833333336,61.333909092440145
1361788564.5,0.9707255,31.97083333333333,,-1.8110416666666669,61.34809652060404
1361788564.75,0.9689104166666667,31.969166666666666,,-3.090807291666667,61.35628874592579
1361788565.0,0.9670419583333333,31.967499999999998,,-4.112005208333334,61.36477360815845
1361788565.25,0.9652802500000001,31.965833333333332,,-4.646145833333334,61.39356643515196
1361788565.5,0.9637320416666667,31.964166666666667,,-4.91578125,61.41657609066271
1361788565.75,0.962397375,31.962500000000002,,-5.077864583333334,61.43678407690137
1361788566.0,0.9611695,31.96083333333333,,-5.463489583333334,61.46340867414347
1361788566.25,0.9597815,31.959166666666665,,-6.292864583333333,61.4759104776503
1361788566.5,0.9581265833333333,31.957499999999996,,-6.908463541666666,61.49553154753986
1361788566.75,0.9563115,31.955,,-6.5984114583333335,61.51204679049513
1361788567.0,0.9542294583333333,31.951666666666664,,-5.228411458333333,61.52762894935861
1361788567.25,0.9519872499999998,31.948333333333334,,-4.4790625,61.54321110822209
1361788567.5,0.9494781249999998,31.944999999999997,,-4.435442708333334,61.558793267085576
1361788567.75,0.94686225,31.9425,,-2.568203125,61.57855523085808
1361788568.0,0.944246375,31.940833333333334,,-0.9978385416666669,61.59100218300796
1361788568.25,0.9414703750000001,31.93916666666667,,0.4984374999999998,61.58033498347936
1361788568.5,0.9384808333333333,31.9375,,2.3923437499999998,61.565727857799914
1361788568.75,0.9352777083333335,31.93583333333333,,3.564088541666667,61.55069668731894
1361788569.0,0.9318610416666666,31.934166666666666,63.625,5.132734375,61.54155446610408
1361788569.25,0.9286579166666667,31.9325,63.531250048,7.245208333333333,61.543629815545025
1361788569.5,0.9257217083333332,31.930833333333336,63.4375,8.476901041666666,61.541176733887944
1361788569.75,0.9227854999999999,31.93,63.343749952,8.978802083333333,61.53711638688616
1361788570.0,0.9199560416666667,31.93,63.25,9.574921875,61.53305603988437
1361788570.25,0.9171799583333334,31.93,63.054166766933335,10.177473958333334,61.528995692882575
1361788570.5,0.9144572916666668,31.93,62.858333333333334,10.532473958333332,61.524935345880785
1361788570.75,0.9117346249999999,31.929166666666664,62.662499899733334,10.068671875,61.516228817993984
1361788571.0,0.908745,31.9275,62.46666666666667,9.795390625000001,61.521891820170445
1361788571.25,0.905755375,31.92583333333333,62.695833216000004,9.1534375,61.54092386497087
1361788571.5,0.9028191666666666,31.924166666666665,62.925,7.962994791666667,61.56364206423456
1361788571.75,0.8998295833333333,31.922500000000003,63.154166784,7.593958333333333,61.58678430829976
1361788572.0,0.896893375,31.920833333333334,63.38333333333333,6.898125,61.60403760309885
1361788572.25,0.893850375,31.91916666666667,63.70249983658667,5.71953125,61.61620902368488
1361788572.5,0.8905937916666667,31.9175,64.02166666666668,5.424192708333334,61.6283804442709
1361788572.75,0.88733725,31.915000000000003,64.34083349674667,5.278828125,61.64055186485692
1361788573.0,0.884027375,31.911666666666665,64.66000000000001,4.782395833333333,61.65272328544293
1361788573.25,0.880664125,31.90833333333333,65.22166637909334,4.62625,61.66489470602897
1361788573.5,0.877514375,31.905,65.78333333333333,4.505807291666667,61.67706612661498
1361788573.75,0.8744713749999998,31.902500000000003,66.34500028757334,4.524479166666667,61.689195237970104
1361788574.0,0.8716953333333334,31.900833333333335,66.90666666666667,4.37390625,61.69278726074872
1361788574.25,0.8690260416666667,31.89916666666667,67.40666641066666,4.113697916666667,61.69278726074872
1361788574.5,0.8663033333333333,31.897499999999997,67.90666666666667,4.083854166666667,61.69278726074872
1361788574.75,0.8636874166666666,31.89583333333334,68.40666692266667,3.9505729166666668,61.69278726074872
1361788575.0,0.8611782916666666,31.894166666666667,68.90666666666667,3.6825781250000005,61.69278726074872
1361788575.25,0.8587225833333333,31.8925,69.48083303936,3.552890625,61.69278726074872
1361788575.5,0.8564270416666666,31.890833333333333,70.055,3.1359895833333336,61.69278726074872
1361788575.75,0.85423825,31.889166666666664,70.62916696064,2.8259635416666664,61.69278726074872
1361788576.0,0.852209625,31.8875,71.20333333333333,2.8121614583333336,61.682897981522586
1361788576.25,0.8504479166666666,31.885833333333334,71.67499975850666,2.4961458333333333,61.670726560936565
1361788576.5,0.848846375,31.88416666666667,72.14666666666666,2.259739583333334,61.658555140350536
1361788576.75,0.8474050000000001,31.882499999999997,72.61833357482666,2.1714322916666666,61.646383719764515
1361788577.0,0.8460703749999999,31.88083333333333,73.08999999999999,1.8697135416666668,61.6342122991785
1361788577.25,0.8448959166666667,31.879166666666666,73.50083312298666,1.75453125,61.62204087859248
1361788577.5,0.844575625,31.8775,73.91166666666666,1.6110677083333333,61.60986945800645
1361788577.75,0.8454832083333333,31.876666666666665,74.32250021034666,1.241015625,61.597698037420436
1361788578.0,0.8478855833333334,31.876666666666665,74.73333333333333,1.1262760416666666,61.585526616834414
1361788578.25,0.852103,31.87666666666667,75.04833317205333,1.3407552083333334,61.5733551962484
1361788578.5,0.857868625,31.87666666666667,75.36333333333334,2.037734375,61.561183775662364
1361788578.75,0.8649689166666666,31.8775,75.67833349461334,2.8741927083333336,61.54901235507635
1361788579.0,0.8729233333333334,31.879166666666666,75.99333333333334,3.1839583333333334,61.54673021371647
1361788579.25,0.8811980833333332,31.88083333333334,76.24083320661333,3.552473958333333,61.54673021371647
1361788579.5,0.88952625,31.882500000000004,76.48833333333334,4.211171875000001,61.54673021371647
1361788579.75,0.8979077916666668,31.883333333333336,76.73583346005334,4.326640625,61.54673021371647
1361788580.0,0.9063427083333334,31.883333333333336,76.98333333333333,4.860598958333333,61.54673021371647
1361788580.25,0.914777625,31.883333333333336,77.16499990698667,5.399427083333332,61.54673021371647
1361788580.5,0.9227854583333333,31.883333333333336,77.34666666666666,5.650208333333334,61.545544380382246
1361788580.75,0.9299391250000001,31.882500000000004,77.52833342634666,6.32140625,61.545544380382246
1361788581.0,0.9357047499999999,31.88083333333334,77.71,6.857057291666666,61.545544380382246
1361788581.25,0.9397620416666667,31.879166666666666,77.86583325354665,6.877005208333333,61.54554438038224
1361788581.5,0.9422711666666667,31.8775,78.02166666666666,6.4389843749999995,61.545544380382246
1361788581.75,0.9434990416666668,31.875833333333333,78.17750007978667,5.846328124999999,61.545544380382246
1361788582.0,0.9440862916666667,31.874166666666667,78.33333333333333,5.90578125,61.55048999662418
1361788582.25,0.9443532083333332,31.8725,78.46166660096,5.942682291666667,61.56380005001284
1361788582.5,0.9445667083333333,31.870833333333334,78.59,5.449713541666667,61.59025922895094
1361788582.75,0.9446734583333334,31.87,78.71833339904,5.575026041666667,61.641984653169594
1361788583.0,0.9447268333333333,31.87,78.84666666666668,5.2999479166666665,61.73994483078766
1361788583.25,0.9447802083333333,31.87,78.92749995861334,4.066692708333333,61.87592719508933
1361788583.5,0.9447268333333333,31.87,79.00833333333334,3.122291666666666,62.071849489050855
1361788583.75,0.9445132916666666,31.86916666666667,79.08916670805334,2.6521354166666664,62.24387469563357
1361788584.0,0.9444065416666666,31.867499999999996,79.17,1.6617447916666668,62.39186100123094
1361788584.25,0.9460615416666666,31.86583333333333,79.20833331370666,-0.3909114583333335,62.563167683012495
1361788584.5,0.949531625,31.864166666666666,79.24666666666667,-3.56671875,62.75970499440765
1361788584.75,0.9535355416666667,31.862499999999997,79.28500001962666,-9.139557291666668,62.94002371174228
1361788585.0,0.957699625,31.860833333333336,79.32333333333332,-14.7134375,63.148609885241235
1361788585.25,0.96207725,31.85916666666667,79.26666669567999,-17.894114583333334,63.36506260124562
1361788585.5,0.9671489166666666,31.8575,79.20999999999998,-19.319479166666667,63.57606117149302
1361788585.75,0.9724875000000001,31.855833333333337,79.15333330431999,-21.274114583333333,63.76353169972355
1361788586.0,0.9778260833333333,31.854166666666668,79.09666666666665,-21.36971354166667,63.905212122297506
1361788586.25,0.9831646666666667,31.852500000000003,79.03166669994665,-19.936302083333334,64.01202322210408
1361788586.5,0.9885032499999999,31.850833333333338,78.96666666666665,-20.468541666666667,64.05381505116381
1361788586.75,0.9938418333333332,31.849166666666665,78.90166663338665,-23.548958333333335,64.12446264107588
1361788587.0,0.9990736249999999,31.8475,78.83666666666666,-25.386640625,64.22076497380233
1361788587.25,1.002223375,31.845833333333335,78.7658333696,-24.042578125000002,64.2928582479522
1361788587.5,1.0036114166666665,31.844166666666666,78.695,-21.004947916666666,64.33474934154172
1361788587.75,1.0044655833333331,31.8425,78.6241666304,-14.978229166666667,64.39649692887873
1361788588.0,1.0048926666666667,31.840833333333332,78.55333333333334,-9.572161458333335,64.42292926100832
1361788588.25,1.0048926666666667,31.839166666666667,78.53500000938668,-7.501874999999999,64.42872231034815
1361788588.5,1.0039317083333332,31.837500000000002,78.51666666666668,-6.949192708333334,64.42297772204473
1361788588.75,1.0024902916666667,31.83583333333333,78.49833332394667,-5.810651041666667,64.41549493047765
1361788589.0,1.0008887083333333,31.834166666666665,78.48,-6.326041666666668,64.40857887720124
1361788589.25,0.9990735833333333,31.8325,78.46833333930667,-7.204869791666667,64.39749857397507
1361788589.5,0.9970982916666666,31.83083333333333,78.45666666666668,-6.109244791666666,64.39450485364539
1361788589.75,0.9948560833333334,31.83,78.44499999402667,-2.9427864583333334,64.38536662650792
1361788590.0,0.9923469583333334,31.83,78.43333333333334,-0.5500260416666666,64.37829201516006
1361788590.25,0.9900513750000001,31.83,78.42583333717333,-0.35151041666666666,64.37942302571977
1361788590.5,0.9874888333333334,31.83,78.41833333333332,-0.39338541666666665,64.38710028339786
1361788590.75,0.9846593750000001,31.83,78.41083332949333,-1.0799479166666666,64.39227016634625
1361788591.0,0.9816163749999999,31.83,78.40333333333332,-1.6520312499999996,64.39954223209584
1361788591.25,0.978573375,31.83,78.39583333717333,-0.9091666666666667,64.41122260098305
1361788591.5,0.9756905416666667,31.83,78.38833333333332,-0.27041666666666664,64.42674562772102
1361788591.75,0.9727543333333332,31.83,78.38083332949333,0.18317708333333335,64.442268654459
1361788592.0,0.9696579583333333,31.83,78.37333333333333,0.9385677083333333,64.45678029516344
1361788592.25,0.9665615833333333,31.83,78.35833334101333,0.7620572916666667,64.47230332190142
1361788592.5,0.9634652499999999,31.83,78.34333333333333,0.84,64.48600494016416
1361788592.75,0.9604222916666667,31.829166666666666,78.32833332565333,0.7572916666666667,64.49970655842688
1361788593.0,0.9573259166666667,31.8275,78.31333333333333,0.39651041666666664,64.509728719071
1361788593.25,0.9541227500000001,31.825833333333332,78.30000000682666,0.7872395833333333,64.51243394019994
1361788593.5,0.951026375,31.824166666666667,78.28666666666666,0.9279427083333335,64.51356446515724
1361788593.75,0.9480901666666667,31.8225,78.27333332650667,1.070703125,64.51356446515724
1361788594.0,0.9452607500000001,31.820833333333336,78.26,1.3145572916666668,64.5132413803246
1361788594.25,0.9424313333333334,31.819166666666664,78.27499999232,1.1133333333333333,64.50807202300216
1361788594.5,0.939601875,31.8175,78.29,1.05390625,64.50290266567974
1361788594.75,0.9368791666666668,31.816666666666666,78.30500000768001,1.0609895833333334,64.4977333083573
1361788595.0,0.9341565,31.816666666666666,78.32000000000001,0.38304687500000006,64.49256395103488
1361788595.25,0.9313270833333332,31.816666666666663,78.36416664405334,0.645859375,64.48739459371244
1361788595.5,0.9284442500000001,31.816666666666663,78.40833333333333,0.5141145833333334,64.48222523639001
1361788595.75,0.9255614166666666,31.8175,78.45250002261334,0.04755208333333336,64.47705587906758
1361788596.0,0.922785375,31.819166666666664,78.49666666666667,0.27367187500000006,64.47188652174515
1361788596.25,0.920222875,31.82083333333333,78.56083330048,-0.23945312499999996,64.46671716442272
1361788596.5,0.91771375,31.822499999999994,78.625,-0.744609375,64.46154780710029
1361788596.75,0.9152580416666667,31.823333333333334,78.68916669952,-0.8147916666666667,64.45637844977786
1361788597.0,0.9128557083333333,31.823333333333334,78.75333333333333,-0.7108854166666666,64.45153217728807
1361788597.25,0.91050675,31.823333333333327,78.82166663167999,-0.388203125,64.44574972911339
1361788597.5,0.9082112083333334,31.823333333333327,78.88999999999999,0.0912760416666667,64.44154431225908
1361788597.75,0.9060224166666666,31.822499999999994,78.95833336832,0.3590104166666667,64.43786457251157
1361788598.0,0.9041005000000001,31.82083333333333,79.02666666666666,0.9504427083333334,64.43733889540478
1361788598.25,0.9022319583333335,31.819166666666664,79.09583329792,0.9050000000000001,64.43062742726468
1361788598.5,0.9003100416666667,31.8175,79.16499999999999,1.03640625,64.42415872563437
1361788598.75,0.8984949166666668,31.814999999999998,79.23416670208,1.5645833333333332,64.42092437481921
1361788599.0,0.8966264166666668,31.811666666666667,79.30333333333334,1.5103645833333335,64.41526426089268
1361788599.25,0.8944376250000001,31.808333333333334,79.37666662912001,2.0588281250000002,64.41324279163321
1361788599.5,0.8921954583333332,31.805000000000003,79.45000000000002,2.6712239583333335,64.40798697155859
1361788599.75,0.8900600416666666,31.802499999999995,79.52333337088001,2.9649479166666666,64.40596550229911
1361788600.0,0.8880313750000001,31.80083333333333,79.59666666666668,3.4618229166666663,64.40596550229911
1361788600.25,0.8859493333333334,31.799166666666668,79.66833329664001,3.687630208333333,64.4117479504738
1361788600.5,0.883707125,31.7975,79.74000000000001,4.020494791666667,64.4159533673281
1361788600.75,0.8814115416666667,31.796666666666667,79.81166670336,4.346302083333334,64.41922881322373
1361788601.0,0.8787957083333334,31.796666666666667,79.88333333333334,4.931770833333333,64.41328578870021
1361788601.25,0.8761798749999999,31.796666666666667,79.95583329621334,5.853593750000001,64.41676290602514
1361788601.5,0.8737775416666667,31.796666666666667,80.02833333333334,6.456197916666667,64.42323160765545
1361788601.75,0.8713217916666666,31.7975,80.10083337045333,7.372109375,64.42646595847062
1361788602.0,0.8689728333333333,31.799166666666665,80.17333333333333,8.43140625,64.42889172158199
1361788602.25,0.8667840416666667,31.800833333333333,80.24583329621333,8.803359375,64.42565737076683
1361788602.5,0.8645418333333333,31.8025,80.31833333333333,9.445338541666667,64.43244565474116
1361788602.75,0.8621394583333334,31.804166666666664,80.39083337045332,9.751302083333334,64.43963648132305
1361788603.0,0.8596303333333334,31.80583333333333,80.46333333333332,9.809921875,64.44480583864548
1361788603.25,0.8571212083333334,31.807499999999994,80.53583329621333,10.152005208333334,64.44997519596792
1361788603.5,0.854718875,31.809166666666666,80.60833333333332,9.774062500000001,64.45514455329034
1361788603.75,0.8523699166666666,31.81,80.68083337045333,9.732838541666668,64.45869848644952
1361788604.0,0.850394625,31.81,80.75333333333333,9.390677083333333,64.4674287819084
1361788604.25,0.8485260833333333,31.81,80.82916662784,8.820833333333333,64.46540731264894
1361788604.5,0.8465508333333335,31.81,80.905,8.975833333333332,64.45055303094479
1361788604.75,0.844629,31.81,80.98083337216,8.226015625,64.42527940887769
1361788605.0,0.842813875,31.81,81.05666666666667,7.685781250000001,64.39934291509793
1361788605.25,0.8409987500000001,31.81,81.13083329536,7.81734375,64.37542789057768
1361788605.5,0.839076875,31.81,81.20500000000001,7.145468749999999,64.34472458208309
1361788605.75,0.8371015833333333,31.81,81.27916670464,7.025546875,64.31038438016577
1361788606.0,0.8351262916666666,31.81,81.35333333333334,6.944010416666667,64.27604417824845
1361788606.25,0.833151,31.81,81.42249996458666,6.455078125000001,64.24170397633112
1361788606.5,0.8311223333333334,31.81,81.49166666666667,6.804713541666666,64.2073637744138
1361788606.75,0.8288801666666666,31.809166666666666,81.56083336874667,6.740052083333333,64.17504329051164
1361788607.0,0.8263710416666666,31.8075,81.63,6.490312499999999,64.14361085208817
1361788607.25,0.8240220833333334,31.805833333333336,81.68833330346666,6.777890625,64.11969582756792
1361788607.5,0.82183325,31.804166666666664,81.74666666666667,6.3813281250000005,64.10537926467717
1361788607.75,0.8197511666666667,31.8025,81.80500002986666,6.444296874999999,64.10148204214939
1361788608.0,0.8177224999999999,31.80083333333333,81.86333333333333,6.699088541666666,64.10148204214939
1361788608.25,0.815907375,31.799166666666665,81.91499997354666,6.298307291666667,64.10756665404203
1361788608.5,0.814519375,31.7975,81.96666666666667,6.514348958333334,64.12379228575575
1361788608.75,0.8134517083333334,31.79583333333333,82.01833335978667,6.66296875,64.14058447543668
1361788609.0,0.8125975833333333,31.794166666666666,82.07,6.489166666666666,64.1568101071504
1361788609.25,0.81206375,31.7925,82.11499997696,6.878307291666666,64.17303573886413
1361788609.5,0.8116900416666666,31.790833333333328,82.16,6.951328125000001,64.18877498544443
1361788609.75,0.8116366249999999,31.790833333333335,82.20500002304,6.966588541666667,64.19977244074491
1361788610.0,0.8118501666666665,31.7925,82.25,7.540911458333333,64.21186446135458
1361788610.25,0.8119569583333335,31.794166666666666,82.28749998079999,7.726171875000001,64.22322677175812
1361788610.5,0.8119569583333335,31.795833333333334,82.32499999999999,7.848515625,64.22919420913259
1361788610.75,0.8117434166666667,31.7975,82.3625000192,8.375364583333335,64.23929969809608
1361788611.0,0.811423125,31.799166666666668,82.39999999999999,8.253489583333334,64.25021602533111
1361788611.25,0.8109960416666667,31.800833333333333,82.42833331882666,8.565,64.25439915853282
1361788611.5,0.81040875,31.8025,82.45666666666666,8.722109375,64.25245467804713
1361788611.75,0.8095011666666667,31.80333333333333,82.48500001450667,8.048203125,64.24913280132266
1361788612.0,0.8082732916666667,31.80333333333333,82.51333333333334,8.089270833333334,64.24718832083697
1361788612.25,0.8067785000000001,31.80333333333333,82.53249999018666,7.71875,64.24621596795184
1361788612.5,0.8051769166666668,31.80333333333333,82.55166666666666,6.999296875,64.24706648276361
1361788612.75,0.8034152083333335,31.8025,82.57083334314666,6.9058593749999995,64.25488620264248
1361788613.0,0.8015467500000001,31.80083333333333,82.58999999999999,6.304244791666668,64.26161135721216
1361788613.25,0.7997316250000001,31.799166666666665,82.60666665813334,5.787109375,64.26906622198797
1361788613.5,0.797863125,31.7975,82.62333333333333,5.683098958333333,64.28191595979284
1361788613.75,0.7959946250000001,31.79583333333333,82.64000000853333,5.077838541666667,64.2906276460087
1361788614.0,0.7941260833333335,31.794166666666666,82.65666666666668,4.964114583333333,64.29852849395301
1361788614.25,0.7923643333333333,31.7925,82.67416665770668,4.64203125,64.307077924038
1361788614.5,0.7906560000000001,31.790833333333335,82.69166666666668,4.492109375,64.31201853448994
1361788614.75,0.7891078333333333,31.790833333333335,82.70916667562668,5.202213541666667,64.31124660192405
1361788615.0,0.7877732083333333,31.7925,82.72666666666667,5.322578125000001,64.30475989575159
1361788615.25,0.7864919583333334,31.79416666666667,82.75083332096001,6.155963541666668,64.30062467947248
1361788615.5,0.7851039583333334,31.795833333333334,82.775,7.193489583333334,64.29182936313596
1361788615.75,0.7836625416666666,31.796666666666663,82.79916667904,7.399218749999999,64.28080663301219
1361788616.0,0.7821143333333332,31.796666666666667,82.82333333333334,8.298984375,64.2697839028884
1361788616.25,0.7804594166666668,31.796666666666667,82.85333331797334,8.633411458333333,64.25876117276461
1361788616.5,0.7788578749999999,31.796666666666663,82.88333333333333,9.161276041666666,64.24773844264082
1361788616.75,0.7771495416666667,31.796666666666667,82.91333334869333,10.087604166666667,64.23671571251705
1361788617.0,0.7753344583333335,31.796666666666667,82.94333333333333,10.209088541666667,64.22569298239326
1361788617.25,0.7735193750000001,31.796666666666663,82.97749998250666,11.111197916666667,64.21467025226947
1361788617.5,0.7715974999999999,31.796666666666667,83.01166666666666,11.771692708333333,64.20324293564508
1361788617.75,0.7695154583333333,31.79583333333333,83.04583335082667,11.787994791666668,64.19833900031007
1361788618.0,0.7673800416666667,31.794166666666666,83.08,12.659687500000002,64.19833900031007
1361788618.25,0.7652446249999999,31.7925,83.11583331498667,12.46484375,64.19501538281614
1361788618.5,0.7632159583333333,31.790833333333328,83.15166666666667,12.25359375,64.19501538281614
1361788618.75,0.7612407083333333,31.79,83.18750001834667,12.780833333333334,64.19501538281614
1361788619.0,0.7592120833333333,31.79,83.22333333333334,12.254322916666666,64.19501538281614
1361788619.25,0.75713,31.79,83.25916664832,12.620625000000002,64.19501538281614
1361788619.5,0.7550479166666667,31.79,83.29500000000002,12.547942708333332,64.19501538281614
1361788619.75,0.7531794166666667,31.79,83.33083335168001,11.779765624999998,64.19501538281614
1361788620.0,0.7514710833333332,31.79,83.36666666666667,12.142760416666667,64.19501538281614
1361788620.25,0.7496025833333332,31.79,83.40083331584,11.524505208333336,64.19501538281614
1361788620.5,0.7475205416666667,31.79,83.435,10.877708333333333,64.19501538281614
1361788620.75,0.7454385,31.79,83.46916668416,11.103177083333334,64.19501538281614
1361788621.0,0.7434098333333332,31.79,83.50333333333333,10.205104166666667,64.19501538281614
1361788621.25,0.7413811666666666,31.79,83.53499998378666,10.017604166666667,64.19501538281614
1361788621.5,0.7393525,31.79,83.56666666666666,10.071692708333332,64.19501538281614
1361788621.75,0.7373238333333333,31.79,83.59833334954666,9.298072916666667,64.1958262210877
1361788622.0,0.7353485416666667,31.79,83.63,9.580546875,64.20028583158127
1361788622.25,0.7334800416666667,31.79,83.65749998592,9.246927083333334,64.20434002293905
1361788622.5,0.7316649583333333,31.79,83.685,8.802369791666665,64.2108267291115
1361788622.75,0.7298498749999999,31.79,83.71250001408,8.890989583333335,64.21731343528397
1361788623.0,0.727874625,31.79,83.74000000000001,8.126119791666666,64.2291448778271
1361788623.25,0.725899375,31.79,83.76499998720001,7.806979166666667,64.2327936500491
1361788623.5,0.7242444583333333,31.79,83.79000000000002,7.585572916666666,64.23644242227111
1361788623.75,0.7226962916666667,31.79,83.81500001280001,6.869635416666667,64.24803105434182
1361788624.0,0.7211480833333334,31.79,83.84000000000002,6.7271875,64.26051047580765
1361788624.25,0.7197066666666667,31.79,83.86249998848001,6.406328125000001,64.27149183953253
1361788624.5,0.7182652916666666,31.79,83.88500000000002,5.909244791666667,64.28510486086587
1361788624.75,0.7168238750000001,31.79,83.90750001152001,6.059609375,64.29887746620342
1361788625.0,0.7154892083333334,31.79,83.93,5.6617187499999995,64.3080308770432
1361788625.25,0.7142079583333333,31.79,83.95333332138667,5.420338541666666,64.31758970701877
1361788625.5,0.7129800833333334,31.79,83.97666666666666,5.488255208333334,64.32471602217966
1361788625.75,0.7118055833333333,31.79,84.00000001194667,5.462968749999999,64.33184233734055
1361788626.0,0.7106844583333333,31.79,84.02333333333333,5.925442708333333,64.33354297930664
1361788626.25,0.7096167083333333,31.79,84.04749998762667,6.121770833333333,64.34350722841798
1361788626.5,0.7085489583333334,31.79,84.07166666666666,6.368984375,64.35347147752931
1361788626.75,0.7075346250000001,31.79,84.09583334570665,6.670000000000001,64.35549586679195
1361788627.0,0.7065203333333333,31.79,84.11999999999999,6.826223958333333,64.35662946665948
1361788627.25,0.7052925000000001,31.79,84.16583330986666,6.923411458333333,64.35926112426795
1361788627.5,0.703957875,31.79,84.21166666666666,7.061588541666667,64.35926112426796
1361788627.75,0.702676625,31.79,84.25750002346666,6.991250000000001,64.3582907019922
1361788628.0,0.70144875,31.79,84.30333333333333,7.0703385416666675,64.35829070199222
1361788628.25,0.700220875,31.79,84.38249995946666,7.740729166666667,64.3582907019922
1361788628.5,0.698832875,31.79,84.46166666666666,8.10359375,64.3582907019922
1361788628.75,0.6973380833333334,31.79,84.54083337386666,8.245677083333334,64.3582907019922
1361788629.0,0.6951492916666666,31.79,84.61999999999999,7.897083333333335,64.35837163881635
1361788629.25,0.6926402083333333,31.79,84.73083327658667,7.0602083333333345,64.35748084942124
1361788629.5,0.6901845,31.79,84.84166666666667,6.014635416666667,64.34985980678907
1361788629.75,0.687461875,31.79,84.95250005674666,3.2909114583333334,64.32966092167727
1361788630.0,0.6847392083333333,31.79,85.06333333333333,1.2805468750000002,64.30576230063909
1361788630.25,0.6821232916666666,31.79,85.16166661632,0.5412760416666669,64.29814857033095
1361788630.5,0.6796675416666665,31.79,85.25999999999999,-0.2492187499999998,64.30794165364698
1361788630.75,0.6773185833333334,31.79,85.35833338367999,-3.642317708333333,64.2420359243208
1361788631.0,0.6751832083333333,31.79,85.45666666666666,-12.434791666666667,64.15591227080724
1361788631.25,0.6731012083333333,31.79,85.56333327872,-21.91604166666667,64.0570344731736
1361788631.5,0.6716597916666666,31.79,85.66999999999999,-28.32036458333333,63.970337561311624
1361788631.75,0.6716063750000001,31.79,85.77666672128,-32.458697916666665,63.85901230047721
1361788632.0,0.6760344583333334,31.79,85.88333333333333,-35.98,63.72663739777576
1361788632.25,0.6843034583333334,31.79,85.95249996458665,-34.24734375,63.52614897093139
1361788632.5,0.6950282083333333,31.79,86.02166666666665,-28.40552083333333,63.31121509181287
1361788632.75,0.7086357083333333,31.79,86.09083336874666,-17.02927083333333,63.100025829701586
1361788633.0,0.7232575416666666,31.79,86.15999999999998,-6.446458333333332,62.88203738506936
1361788633.25,0.7383065000000001,31.79,86.23749996031998,-0.9294270833333313,62.637077406471526
1361788633.5,0.753569,31.79,86.31499999999998,1.1486979166666687,62.37763931192017
1361788633.75,0.7689382916666666,31.79,86.39250003967999,5.0278645833333355,62.20470805393014
1361788634.0,0.7842542083333335,31.79,86.46999999999998,16.714791666666667,62.060583583544904
1361788634.25,0.7997302500000001,31.79,86.52416663893332,27.955000000000002,61.94082616420041
1361788634.5,0.8148325833333333,31.79,86.57833333333332,33.628046875,61.80623217076961
1361788634.75,0.8294545000000001,31.78916666666667,86.63250002773333,36.991848958333335,61.70073677672769
1361788635.0,0.8413566666666666,31.787499999999998,86.68666666666667,42.45375000000001,61.60856940292311
1361788635.25,0.8501119166666666,31.78583333333333,86.76083329536,41.906328124999995,61.60198025866842
1361788635.5,0.8564114166666666,31.784166666666668,86.83500000000001,35.946015625,61.61656681992492
1361788635.75,0.8602018333333333,31.7825,86.90916670464001,25.90763020833333,61.63998660665383
1361788636.0,0.8632448333333334,31.78083333333333,86.98333333333335,15.673411458333334,61.673905311830055
1361788636.25,0.8660208749999999,31.77916666666667,87.05749996202668,9.474765625,61.71901561290611
1361788636.5,0.8686367500000002,31.7775,87.13166666666669,6.707291666666666,61.76069226364728
1361788636.75,0.8710924583333334,31.775833333333335,87.20583337130668,4.77,61.79109750262052
1361788637.0,0.873334625,31.77416666666667,87.28000000000002,0.1604947916666669,61.8092067753862
1361788637.25,0.8753099166666667,31.772499999999997,87.34916663125334,-3.901145833333333,61.813386201987335
1361788637.5,0.8771250416666666,31.770833333333332,87.41833333333335,-4.6355208333333335,61.82232734463036
1361788637.75,0.8780325833333333,31.769166666666663,87.48750003541335,-4.902916666666667,61.823765433432165
1361788638.0,0.8778724166666666,31.7675,87.55666666666667,-7.346171875,61.832925143863655
1361788638.25,0.8772851666666667,31.765833333333333,87.62999996245334,-8.402083333333334,61.82551093828331
1361788638.5,0.876484375,31.764166666666664,87.70333333333335,-7.406223958333334,61.81809673270296
1361788638.75,0.8754700416666666,31.7625,87.77666670421334,-5.792708333333334,61.810682527122616
1361788639.0,0.8740286250000001,31.760833333333334,87.85000000000001,-3.480833333333333,61.803268321542255
1361788639.25,0.8723202916666667,31.759166666666662,87.92333329578668,-1.422526041666667,61.79534916329764
1361788639.5,0.8704517916666665,31.757499999999997,87.99666666666667,0.4237239583333332,61.78793495771729
1361788639.75,0.8683697499999999,31.75583333333333,88.07000003754666,2.18953125,61.78073116780846
1361788640.0,0.8660741666666666,31.754166666666663,88.14333333333333,3.885598958333333,61.77613826792174
1361788640.25,0.863565,31.752499999999998,88.22166662656,5.580963541666667,61.77082464950561
1361788640.5,0.8609490833333333,31.750833333333333,88.3,6.6441406249999995,61.7556356209849
1361788640.75,0.8583332083333333,31.749166666666667,88.37833337344,7.733515624999999,61.741577269067704
1361788641.0,0.8557172916666667,31.747500000000002,88.45666666666666,8.639661458333334,61.735164611350335
1361788641.25,0.8532081250000001,31.745833333333337,88.53416662698666,9.594348958333333,61.73280287381392
1361788641.5,0.8509125000000001,31.74416666666667,88.61166666666665,10.050572916666667,61.73178982376793
1361788641.75,0.8487770416666667,31.742500000000003,88.68916670634665,10.078307291666667,61.73785638885818
1361788642.0,0.8468017916666666,31.740833333333338,88.76666666666665,9.660859375,61.74400722280353
1361788642.25,0.8447197916666668,31.739166666666666,88.84583329279998,9.182005208333333,61.74940003376789
1361788642.5,0.842477625,31.7375,88.92499999999998,8.894635416666667,61.7485973821018
1361788642.75,0.8402354166666668,31.736666666666668,89.0041667072,8.742213541666667,61.74210088884794
1361788643.0,0.8380465833333334,31.736666666666668,89.08333333333333,8.829947916666667,61.73670060836216
1361788643.25,0.8359111666666666,31.736666666666668,89.16749995690667,9.123880208333333,61.73433798564964
1361788643.5,0.8337223750000001,31.736666666666668,89.25166666666667,9.404947916666666,61.73974474531448
1361788643.75,0.8316403333333334,31.7375,89.33583337642666,9.355286458333333,61.74705363180056
1361788644.0,0.8295582916666667,31.739166666666666,89.42,9.290182291666666,61.74671682408683
1361788644.25,0.8272627499999999,31.74083333333333,89.51499995136,8.89734375,61.746251186953884
1361788644.5,0.8248070833333333,31.742500000000003,89.61,8.284765624999999,61.748231249310294
1361788644.75,0.8224047916666667,31.745,89.70500004864,7.908020833333333,61.73541521878894
1361788645.0,0.8200024583333333,31.74833333333333,89.8,7.193359375,61.72251491941248
1361788645.25,0.8176534583333334,31.75166666666667,89.91666660693333,6.807864583333334,61.71037264301702
1361788645.5,0.815464625,31.755,90.03333333333333,6.440859375,61.704425829251996
1361788645.75,0.813382625,31.757499999999997,90.15000005973333,5.780182291666666,61.7048056610659
1361788646.0,0.811354,31.75916666666667,90.26666666666667,5.534921874999999,61.71551437276212
1361788646.25,0.8094321250000002,31.760833333333334,90.38666660522667,4.998567708333334,61.729172761186874
1361788646.5,0.8076170416666666,31.7625,90.50666666666667,4.455130208333333,61.741904754179394
1361788646.75,0.8058553333333333,31.764166666666668,90.62666672810667,4.072109375,61.755521066008164
1361788647.0,0.8042537916666667,31.765833333333333,90.74666666666667,3.2108854166666667,61.76526125611493
1361788647.25,0.8029191666666667,31.7675,90.86166660778667,2.5159895833333334,61.761760657677684
1361788647.5,0.8016378749999999,31.769166666666667,90.97666666666666,2.152890625,61.74863822091729
1361788647.75,0.8001430416666667,31.769166666666667,91.09166672554666,1.4386979166666667,61.74357013433712
1361788648.0,0.7985414583333333,31.767500000000002,91.20666666666666,0.9752604166666666,61.74521547446812
1361788648.25,0.7971000416666666,31.765833333333333,91.30083328511999,0.150234375,61.74762017936229
1361788648.5,0.7957654166666667,31.764166666666668,91.395,0.2065625,61.75394723958514
1361788648.75,0.7945375416666667,31.762500000000003,91.48916671488,1.4481770833333334,61.759978238941606
1361788649.0,0.7933630416666667,31.760833333333334,91.58333333333333,1.5206510416666668,61.754837106338506
1361788649.25,0.7923487083333333,31.75916666666667,91.67083328853333,1.8812500000000003,61.750288340346394
1361788649.5,0.7912275833333334,31.757500000000004,91.75833333333333,1.5517447916666667,61.74683445790519
1361788649.75,0.7899463333333334,31.75583333333333,91.84583337813334,0.17023437500000005,61.741400728343535
1361788650.0,0.7884515416666668,31.754166666666666,91.93333333333334,-0.08653645833333327,61.73836643346933
1361788650.25,0.7866897916666667,31.7525,92.01499995818666,-0.06588541666666661,61.73933612952371
1361788650.5,0.7848746666666667,31.750833333333333,92.09666666666666,0.0516145833333334,61.753388240533745
1361788650.75,0.7831129583333333,31.750833333333333,92.17833337514666,0.4871093750000001,61.76857667994008
1361788651.0,0.78135125,31.752499999999998,92.25999999999999,1.8616145833333333,61.77974672665482
1361788651.25,0.7796429166666666,31.754166666666663,92.34666662229333,3.453671875,61.79432487730927
1361788651.5,0.7779345833333334,31.75583333333333,92.43333333333334,3.5121875,61.8009405399251
1361788651.75,0.776172875,31.757499999999997,92.52000004437333,2.2242968750000003,61.807093395285555
1361788652.0,0.7744645416666667,31.759166666666662,92.60666666666667,1.4023437500000002,61.81307854100774
1361788652.25,0.7727027916666668,31.760833333333334,92.69666662058667,0.36718750000000006,61.803503173586485
1361788652.5,0.7711012083333334,31.7625,92.78666666666666,-0.12830729166666657,61.79295829136155
1361788652.75,0.769553,31.763333333333332,92.87666671274665,0.7837760416666667,61.784099608186814
1361788653.0,0.7680581666666667,31.763333333333332,92.96666666666665,1.2709895833333333,61.776717612046646
1361788653.25,0.76661675,31.763333333333332,93.06249995093333,1.8950781250000002,61.774650322760145
1361788653.5,0.76522875,31.763333333333332,93.15833333333333,2.1615625,61.75755253069269
1361788653.75,0.7639475,31.7625,93.25416671573333,2.03671875,61.73593770497493
1361788654.0,0.7625594583333334,31.760833333333334,93.35000000000001,1.0909635416666668,61.71141629908309
1361788654.25,0.7609045000000001,31.75916666666667,93.43416662357335,-0.2776041666666667,61.682262022948436
1361788654.5,0.7591961666666666,31.757499999999997,93.51833333333335,-0.9201822916666668,61.65714787952374
1361788654.75,0.7573810416666666,31.756666666666664,93.60250004309333,-0.7782291666666667,61.63253970009961
1361788655.0,0.7554057916666667,31.75666666666667,93.68666666666667,-0.1706510416666667,61.609280956238194
1361788655.25,0.7533237916666667,31.756666666666664,93.76333329408,1.1229166666666666,61.59947827666819
1361788655.5,0.751135,31.756666666666664,93.84,2.7990364583333336,61.59871674561893
1361788655.75,0.7489462083333334,31.757499999999997,93.91666670592001,3.8320052083333334,61.59939284652656
1361788656.0,0.7467574166666666,31.75916666666667,93.99333333333334,4.699140625,61.60634949239978
1361788656.25,0.744622,31.760833333333334,94.06166663168,4.87203125,61.62627762655873
1361788656.5,0.7425399583333333,31.7625,94.13,4.993880208333333,61.641728770152724
1361788656.75,0.7404045416666668,31.763333333333332,94.19833336832001,5.788932291666666,61.65592196811821
1361788657.0,0.7384826666666667,31.763333333333332,94.26666666666667,6.413437500000001,61.674374799849005
1361788657.25,0.7365607916666667,31.763333333333332,94.33249996629333,7.696979166666666,61.69889815657897
1361788657.5,0.7342652083333334,31.763333333333332,94.39833333333333,9.266302083333333,61.732046336763524
1361788657.75,0.731969625,31.7625,94.46416670037333,10.138098958333334,61.765488432601494
1361788658.0,0.7297274166666666,31.760833333333334,94.52999999999999,10.915286458333334,61.79371485407638
1361788658.25,0.7273784583333334,31.75916666666667,94.59499996672,10.998854166666668,61.81810415792478
1361788658.5,0.7250829166666666,31.757500000000004,94.66,9.969114583333335,61.82641606712039
1361788658.75,0.7226272083333333,31.75666666666667,94.72500003328,8.72515625,61.81745774009608
1361788659.0,0.7200647083333332,31.756666666666664,94.79,6.741119791666667,61.80057049624682
1361788659.25,0.7175022083333333,31.756666666666664,94.85416663381334,5.672291666666666,61.771302589135054
1361788659.5,0.7148329583333334,31.75666666666667,94.91833333333334,4.766067708333334,61.77543263103974
1361788659.75,0.7121636666666666,31.757500000000004,94.98250003285334,3.2626041666666663,61.78365250095379
1361788660.0,0.7094943749999999,31.75916666666667,95.04666666666667,2.1987239583333333,61.78213711049884
1361788660.25,0.7070920416666667,31.760833333333334,95.11166663338666,1.0152083333333335,61.77872449021866
1361788660.5,0.7051701666666667,31.762500000000003,95.17666666666666,-0.5404947916666668,61.77619851408844
1361788660.75,0.7034618333333333,31.763333333333332,95.24166669994666,-1.8416666666666668,61.79067379910976
1361788661.0,0.7019136666666667,31.763333333333332,95.30666666666666,-3.097083333333334,61.80734307873377
1361788661.25,0.7005790416666667,31.763333333333332,95.36666663594666,-4.220130208333334,61.85276815280315
1361788661.5,0.699191,31.763333333333332,95.42666666666666,-3.867864583333333,61.9119184583391
1361788661.75,0.6978029583333334,31.7625,95.48666669738667,-2.2477604166666665,61.99159317685244
1361788662.0,0.6962547916666667,31.760833333333334,95.54666666666667,0.877786458333333,62.10426263000329
1361788662.25,0.6944930833333335,31.75916666666667,95.59666664106666,3.0065625,62.24335675813922
1361788662.5,0.6921975000000001,31.757499999999997,95.64666666666668,5.102447916666667,62.331334345295375
1361788662.75,0.6893146666666666,31.75583333333333,95.69666669226667,6.640260416666667,62.464379176607046
1361788663.0,0.6863784583333333,31.754166666666666,95.74666666666667,6.922760416666667,62.62187237769907
1361788663.25,0.6835490416666667,31.752499999999998,95.788333312,6.268177083333332,62.762052271079106
1361788663.5,0.680719625,31.750833333333333,95.83000000000001,6.444557291666666,62.86620378542991
1361788663.75,0.6778902083333334,31.75,95.871666688,10.172109375,62.95504711482795
1361788664.0,0.6751141666666666,31.75,95.91333333333334,12.227838541666666,63.08137894981183
1361788664.25,0.6723914999999999,31.75,95.94749998250667,14.165234374999999,63.1624003988701
1361788664.5,0.6698823749999999,31.75,95.98166666666668,16.208229166666666,63.25606501582279
1361788664.75,0.6679070833333333,31.750833333333333,96.01583335082668,15.248333333333335,63.361110560613014
1361788665.0,0.6664122499999999,31.752499999999998,96.05000000000001,12.992291666666667,63.42397971389494
1361788665.25,0.6655580416666667,31.754166666666666,96.07583332010668,12.497135416666667,63.42639924838165
1361788665.5,0.66614525,31.75583333333333,96.10166666666669,12.297473958333333,63.472277600001775
1361788665.75,0.6681205416666667,31.756666666666664,96.12750001322668,13.498697916666666,63.46442097083539
1361788666.0,0.6711101666666667,31.756666666666664,96.15333333333335,18.37705729166667,63.46827184207257
1361788666.25,0.67479375,31.756666666666664,96.17416665600001,24.88611979166667,63.47728970676628
1361788666.5,0.678797625,31.756666666666664,96.19500000000001,30.893255208333333,63.472938919887696
1361788666.75,0.6832820000000001,31.757499999999997,96.215833344,32.311328125,63.526919956850485
1361788667.0,0.6877663749999999,31.75916666666667,96.23666666666666,34.87260416666667,63.55550181013831
1361788667.25,0.69225075,31.760833333333334,96.25666665642666,34.88276041666667,63.570239060167445
1361788667.5,0.6970020833333334,31.7625,96.27666666666667,33.88916666666667,63.60359783238593
1361788667.75,0.7015932500000001,31.763333333333332,96.29666667690667,38.212291666666665,63.5725532729532
1361788668.0,0.7064513333333333,31.763333333333335,96.31666666666666,42.680468749999996,63.663855972885706
1361788668.25,0.7110425,31.763333333333332,96.34083332096,46.77453125,63.79949061699142
1361788668.5,0.7148862500000001,31.763333333333332,96.36500000000001,52.43002604166667,63.929934681907355
1361788668.75,0.7179825833333333,31.764166666666668,96.38916667904,57.93986979166667,64.0314768638235
1361788669.0,0.7198510833333334,31.765833333333333,96.41333333333334,58.07135416666667,64.02513452957685
1361788669.25,0.7207052916666666,31.7675,96.44499998378667,52.721953125000006,64.02200862788567
1361788669.5,0.720812125,31.769166666666667,96.47666666666667,46.182604166666664,64.07088672083738
1361788669.75,0.7197978333333334,31.77,96.50833334954667,43.00963541666667,64.04735713755018
1361788670.0,0.7187835416666667,31.77,96.54,40.761953125000005,63.98754871718762
1361788670.25,0.7172887499999999,31.77,96.57833331370666,41.34158854166667,63.97461430018742
1361788670.5,0.7147795833333332,31.77,96.61666666666667,41.50020833333333,63.873795584366235
1361788670.75,0.7113095,31.769166666666667,96.65500001962667,36.76794270833334,63.809070908305806
1361788671.0,0.7072522083333332,31.7675,96.69333333333333,31.98354166666667,63.62400903173816
1361788671.25,0.7031949166666668,31.765833333333333,96.74166664191999,26.409895833333334,63.42330618347389
1361788671.5,0.699137625,31.764166666666668,96.78999999999999,18.97401041666667,63.21030351663546
1361788671.75,0.6951337083333334,31.763333333333332,96.83833335808,10.05796875,63.04091510777408
1361788672.0,0.6915034583333334,31.763333333333332,96.88666666666667,3.4744791666666672,62.92686318851462
1361788672.25,0.688140125,31.763333333333335,96.92749997909334,1.59109375,62.80021460161601
1361788672.5,0.6858978750000001,31.763333333333332,96.96833333333333,0.839375,62.58761231008585
1361788672.75,0.6848835000000001,31.7625,97.00916668757333,-2.11078125,62.34104132176257
1361788673.0,0.6838691249999999,31.760833333333334,97.05,-4.507369791666667,62.16174187200718
1361788673.25,0.683388625,31.759166666666662,97.07666665301333,-7.677838541666667,61.97236374096364
1361788673.5,0.6836021666666666,31.757499999999997,97.10333333333334,-10.380520833333334,61.82843819566633
1361788673.75,0.684669875,31.757499999999997,97.13000001365334,-9.483411458333334,61.77855260271054
1361788674.0,0.6860045,31.75916666666667,97.15666666666668,-4.5239062500000005,61.694860126755096
1361788674.25,0.68728575,31.760833333333334,97.16916666026668,-1.8708333333333333,61.63665988997314
1361788674.5,0.688513625,31.7625,97.18166666666667,-1.7827083333333336,61.535490131442735
1361788674.75,0.689688125,31.763333333333335,97.19416667306666,2.528020833333333,61.43817921390135
1361788675.0,0.6908092499999999,31.763333333333332,97.20666666666666,8.882239583333332,61.42446916660356
1361788675.25,0.691930375,31.763333333333332,97.21916666026667,15.448385416666667,61.425883293359895
1361788675.5,0.692304125,31.763333333333335,97.23166666666665,21.701848958333333,61.502804562861286
1361788675.75,0.6919838333333334,31.764166666666668,97.24416667306666,26.141484375,61.61533135628705
1361788676.0,0.691610125,31.765833333333333,97.25666666666666,29.34640625,61.6926483564314
1361788676.25,0.6911296666666668,31.767500000000002,97.27083332608,33.47888020833334,61.7764110283945
1361788676.5,0.6905424583333333,31.769166666666667,97.285,36.29315104166667,61.89688079031086
1361788676.75,0.6896883333333333,31.77,97.29916667392,36.0496875,61.94232247906415
1361788677.0,0.6884605,31.77,97.31333333333333,32.107968750000005,62.0456349545128
1361788677.25,0.6862183333333333,31.77,97.32749999274667,32.074375,62.142449435336
1361788677.5,0.6830685833333333,31.77,97.34166666666667,34.89018229166667,62.29859144660836
1361788677.75,0.6799722083333334,31.77,97.35583334058667,32.89515625,62.449663376020965
1361788678.0,0.6769292083333333,31.77,97.37,27.75192708333333,62.538801416243636
1361788678.25,0.6738862083333332,31.77,97.37833332906668,21.862213541666666,62.63129367954295
1361788678.5,0.6708965833333332,31.77,97.38666666666668,16.228203124999997,62.72668812203662
1361788678.75,0.6680137500000001,31.770833333333332,97.39500000426668,13.996145833333332,62.83133657160166
1361788679.0,0.6669994166666666,31.772499999999997,97.40333333333335,12.100911458333334,62.93112564825338
1361788679.25,0.6679603749999999,31.77416666666667,97.40749999786668,9.557109374999998,63.02212049921939
1361788679.5,0.669134875,31.775833333333335,97.41166666666668,9.335625,63.07797886569093
1361788679.75,0.6706296666666667,31.7775,97.41583333546667,9.834375,63.1179702876021
1361788680.0,0.6726049166666667,31.77916666666667,97.42,8.245625,63.10935470093941
1361788680.25,0.6759147916666667,31.780833333333334,97.41833333418667,4.459895833333333,63.03350742104852
1361788680.5,0.6803457916666668,31.7825,97.41666666666667,-0.05721354166666648,62.92698719079083
1361788680.75,0.6847767916666667,31.784166666666668,97.41499999914667,-4.487760416666666,62.813821380288665
1361788681.0,0.6892077916666667,31.78583333333333,97.41333333333334,-5.40328125,62.69187427387228
1361788681.25,0.6936387916666668,31.787499999999998,97.41000000170666,-4.9303125,62.56825380871419
1361788681.5,0.6980697916666667,31.78916666666667,97.40666666666667,-4.600052083333334,62.43668030333355
1361788681.75,0.7025541666666667,31.789166666666663,97.40333333162667,-6.259322916666666,62.30516427928689
1361788682.0,0.7052234583333333,31.787500000000005,97.39999999999999,-8.315182291666666,62.17365674326542
1361788682.25,0.7059708333333333,31.785833333333333,97.39416666965333,-9.708880208333333,62.04050115691464
1361788682.5,0.7066114166666667,31.784166666666664,97.38833333333332,-11.749348958333334,61.910039611484486
1361788682.75,0.7071986250000001,31.7825,97.38249999701333,-12.991328125,61.78909343397084
1361788683.0,0.7076790833333334,31.780833333333334,97.37666666666667,-11.815572916666666,61.69804295403706
1361788683.25,0.7077324583333334,31.779166666666665,97.37083333632,-10.220572916666667,61.6559979476425
1361788683.5,0.7073053750000001,31.7775,97.36500000000001,-8.190520833333332,61.63243983333507
1361788683.75,0.7066647500000002,31.775833333333335,97.35916666368,-4.719401041666667,61.61090485223107
1361788684.0,0.7058105833333334,31.77416666666667,97.35333333333334,-2.8691666666666666,61.598478891075985
1361788684.25,0.7046895000000001,31.772499999999997,97.34666667008,-1.804765625,61.586981923190116
1361788684.5,0.703354875,31.770833333333332,97.34,-1.0048697916666667,61.58051328720504
1361788684.75,0.7018601250000001,31.77,97.33333332992001,0.678828125,61.580470894408656
1361788685.0,0.7003119999999999,31.77,97.32666666666667,2.6130208333333336,61.573070699430616
1361788685.25,0.698763875,31.77,97.31666667178666,3.705078125,61.56461200755237
1361788685.5,0.6972157500000001,31.77,97.30666666666667,4.450130208333333,61.55818392689266
1361788685.75,0.6954540416666667,31.77,97.29666666154668,5.028385416666667,61.54515186177869
1361788686.0,0.6932118333333332,31.77,97.28666666666668,5.468567708333333,61.53325708236752
1361788686.25,0.6908095,31.77,97.27166667434668,5.761484374999999,61.524404739377296
1361788686.5,0.6885139166666666,31.77,97.25666666666667,6.3078125,61.51271215486478
1361788686.75,0.6862183333333333,31.77,97.24166665898667,7.156328124999999,61.5008499074491
1361788687.0,0.683976125,31.77,97.22666666666667,7.065963541666666,61.48924194698339
1361788687.25,0.6818940416666667,31.77,97.21250000725334,6.789322916666666,61.475681168146615
1361788687.5,0.6798119583333334,31.77,97.19833333333334,6.907630208333334,61.459961688073356
1361788687.75,0.6776230833333333,31.77,97.18416665941334,5.810078125,61.43322661547824
1361788688.0,0.6753808333333334,31.77,97.17,4.466666666666667,61.41809545118435
1361788688.25,0.6729784583333333,31.77,97.15666667349333,4.133541666666667,61.400457259559374
1361788688.5,0.6704159166666667,31.77,97.14333333333333,4.129947916666667,61.3817180432263
1361788688.75,0.6679601666666666,31.77,97.12999999317333,4.0459375,61.37090311777888
1361788689.0,0.6658781666666667,31.77,97.11666666666666,3.006197916666667,61.37043546295198
1361788689.25,0.6639562916666667,31.77,97.10250000725333,2.4406770833333336,61.37763409756483
1361788689.5,0.6621411666666667,31.77,97.08833333333334,1.5911979166666665,61.39486584706567
1361788689.75,0.6604328333333332,31.77,97.07416665941334,-0.1454166666666667,61.418942155357705
1361788690.0,0.6587779166666666,31.77,97.06,-1.0690885416666667,61.43921742116137
1361788690.25,0.6572297916666666,31.77,97.04333334186667,-2.1557552083333333,61.46849291133511
1361788690.5,0.6558952083333334,31.77,97.02666666666667,-3.320234375,61.493722268752805
1361788690.75,0.6547207916666666,31.770833333333332,97.00999999146667,-3.782838541666667,61.525568032401644
1361788691.0,0.6535997083333333,31.772499999999997,96.99333333333334,-4.687369791666667,61.56573134412371
1361788691.25,0.6523717916666666,31.77416666666667,96.98166667264,-5.6596875,61.61745413140927
1361788691.5,0.65098375,31.775833333333328,96.97,-5.348984375000001,61.68227788220485
1361788691.75,0.6495957499999999,31.776666666666667,96.95833332736001,-6.105234374999999,61.74468468048295
1361788692.0,0.648261125,31.776666666666667,96.94666666666667,-4.905859375,61.795634901441275
1361788692.25,0.6470332916666667,31.776666666666667,96.94000000341333,-3.818671875,61.85225451406482
1361788692.5,0.6457520833333333,31.776666666666667,96.93333333333334,-2.245546875,61.91322542129402
1361788692.75,0.6444174583333333,31.776666666666667,96.92666666325334,-0.08377604166666637,61.95898074315158
1361788693.0,0.6431895833333333,31.776666666666667,96.92,1.229713541666667,61.98585583431003
1361788693.25,0.6419617083333333,31.776666666666667,96.90500000768,4.331822916666667,62.011226926372224
1361788693.5,0.6406804583333333,31.776666666666667,96.89000000000001,7.395104166666667,62.06064621844922
1361788693.75,0.6393992083333333,31.775833333333328,96.87499999232001,10.595208333333334,62.10067942166776
1361788694.0,0.6381179583333333,31.77416666666667,96.86000000000001,17.05888020833333,62.11887668353939
1361788694.25,0.6371036666666667,31.772499999999997,96.82416668501334,20.289895833333333,62.11753299385109
1361788694.5,0.6363029166666666,31.770833333333332,96.78833333333333,20.679505208333335,62.09441608105674
1361788694.75,0.6350750416666667,31.77,96.75249998165333,23.647161458333333,62.06936052922163
1361788695.0,0.6334734583333334,31.77,96.71666666666665,24.44911458333333,62.0477443755534
1361788695.25,0.631871875,31.77,96.66083336192,24.90953125,62.01372522581056
1361788695.5,0.6302702916666667,31.77,96.60499999999999,24.454609375,61.96799266000273
1361788695.75,0.6286153333333334,31.77,96.54916663808,24.2321875,61.93080078367853
1361788696.0,0.626907,31.77,96.49333333333334,25.769921874999998,61.916120517638625
1361788696.25,0.6251452916666667,31.77,96.42500003498668,25.042630208333335,61.8959814687428
1361788696.5,0.6233301666666667,31.77,96.35666666666668,23.504791666666666,61.85634971319268
1361788696.75,0.621461625,31.77,96.28833329834667,22.095234375,61.82509060691907
1361788697.0,0.619593125,31.77,96.22000000000001,18.157421875,61.802765648478896
1361788697.25,0.6175110833333333,31.77,96.15083336874667,16.946302083333332,61.79198769026646
1361788697.5,0.615268875,31.77,96.08166666666668,17.577317708333332,61.78996682310163
1361788697.75,0.61345375,31.77,96.01249996458668,16.43166666666667,61.78996682310163
1361788698.0,0.6119055416666667,31.77,95.94333333333334,16.181640625,61.78996682310163
1361788698.25,0.6101437916666667,31.77,95.87416670208,15.932057291666666,61.78996682310163
1361788698.5,0.6083286666666666,31.77,95.805,16.248828125,61.78996682310163
1361788698.75,0.6064601666666666,31.77,95.73583329792001,16.147005208333333,61.78996682310163
1361788699.0,0.6044315,31.77,95.66666666666667,14.63703125,61.78996682310163
1361788699.25,0.6022960416666666,31.77,95.59916670122666,13.906406250000002,61.78996682310163
1361788699.5,0.6000004583333333,31.77,95.53166666666667,13.896119791666665,61.78996682310163
1361788699.75,0.59754475,31.77,95.46416663210667,13.548880208333332,61.78996682310163
1361788700.0,0.59498225,31.77,95.39666666666666,12.994244791666667,61.78996682310163
1361788700.25,0.5926332916666667,31.77,95.32416670378666,12.400494791666667,61.78996682310163
1361788700.5,0.590497875,31.77,95.25166666666667,11.305078125,61.78996682310163
1361788700.75,0.5883624583333333,31.77,95.17916662954667,10.205807291666668,61.78996682310163
1361788701.0,0.5862804166666666,31.77,95.10666666666667,9.284010416666666,61.78996682310163
1361788701.25,0.5843585416666667,31.77,95.02750004053334,8.572708333333333,61.78996682310163
1361788701.5,0.5825434583333333,31.77,94.94833333333334,7.6351562500000005,61.78996682310163
1361788701.75,0.5808885,31.770833333333332,94.86916662613334,7.015963541666667,61.78996682310163
1361788702.0,0.5793936666666667,31.772499999999997,94.79,6.7134375,61.78996682310163
1361788702.25,0.578005625,31.77416666666667,94.70333337770667,5.958906249999999,61.78996682310163
1361788702.5,0.5768845,31.775833333333335,94.61666666666667,5.513749999999999,61.78996682310163
1361788702.75,0.5760836666666668,31.776666666666667,94.52999995562666,5.1590364583333335,61.78996682310163
1361788703.0,0.575443,31.776666666666667,94.44333333333333,4.553072916666667,61.78996682310163
1361788703.25,0.5748023333333333,31.776666666666667,94.3516667136,4.322760416666667,61.79223866860796
1361788703.5,0.5742150416666667,31.776666666666667,94.25999999999999,4.29046875,61.805869741645985
1361788703.75,0.5742150416666667,31.776666666666667,94.1683332864,4.43421875,61.82404450569668
1361788704.0,0.5746955416666667,31.776666666666667,94.07666666666667,4.844817708333333,61.84221926974738
1361788704.25,0.5755497083333334,31.776666666666667,93.98666671274667,4.4555468750000005,61.91559361961921
1361788704.5,0.57667075,31.776666666666667,93.89666666666666,4.582682291666667,62.06177537421158
1361788704.75,0.5782722916666668,31.775833333333335,93.80666662058665,4.260494791666667,62.21742523198992
1361788705.0,0.5805678750000001,31.77416666666667,93.71666666666665,3.312317708333333,62.37291179134468
1361788705.25,0.5838244166666667,31.772499999999997,93.62916671146665,3.77,62.53195600961317
1361788705.5,0.588469,31.770833333333332,93.54166666666666,4.466744791666667,62.68805624832974
1361788705.75,0.593433875,31.769166666666667,93.45416662186668,4.497057291666667,62.841701421081886
1361788706.0,0.59839875,31.767500000000002,93.36666666666667,5.21984375,62.99792459558555
1361788706.25,0.603363625,31.765833333333333,93.27750004565334,6.2038802083333335,63.15383865793356
1361788706.5,0.6083284999999999,31.764166666666668,93.18833333333333,4.375729166666667,63.29925180316403
1361788706.75,0.613293375,31.762500000000003,93.09916662101332,4.834869791666667,63.407827850861686
1361788707.0,0.6180980833333333,31.760833333333334,93.00999999999999,3.7680729166666667,63.427733681188414
1361788707.25,0.6224223333333333,31.75916666666667,92.91666671445333,2.965,63.38116496203392
1361788707.5,0.6261059583333334,31.757500000000004,92.82333333333332,0.14070312500000018,63.23670186096231
1361788707.75,0.6290421666666667,31.75583333333333,92.72999995221332,0.7850520833333334,63.07413428750638
1361788708.0,0.631177625,31.754166666666666,92.63666666666666,1.1853125000000002,62.91088641751252
1361788708.25,0.6321385833333334,31.7525,92.54416671402666,-2.658359375,62.743068468415935
1361788708.5,0.6312844166666666,31.750833333333333,92.45166666666665,-7.227265625,62.57819449887128
1361788708.75,0.6297362916666667,31.75,92.35916661930666,-9.587083333333334,62.415775595291045
1361788709.0,0.6281881666666668,31.75,92.26666666666667,-11.62390625,62.250778689959276
1361788709.25,0.6266400416666666,31.75,92.17000004949332,-14.450468749999999,62.08381905127684
1361788709.5,0.6250919166666667,31.75,92.07333333333332,-14.10828125,61.91600110218025
1361788709.75,0.6230098749999999,31.75,91.97666661717334,-15.8675,61.78047655960382
1361788710.0,0.6205541250000001,31.75,91.88,-15.765703125,61.738053024130174
1361788710.25,0.617991625,31.75,91.77833338538666,-14.389791666666666,61.709855524562236
1361788710.5,0.6155892916666666,31.75,91.67666666666668,-10.837994791666667,61.7116334858679
1361788710.75,0.6134538749999999,31.75,91.57499994794668,-10.984114583333335,61.72331127058024
1361788711.0,0.6114252083333332,31.75,91.47333333333334,-10.522005208333333,61.73372689324023
1361788711.25,0.6096100833333333,31.75,91.36166672384,-6.912734374999999,61.74233044177519
1361788711.5,0.60811525,31.75,91.25,-3.208828125,61.747056617489186
1361788711.75,0.6067805416666667,31.75,91.13833327616,-0.9262760416666667,61.755912509376365
1361788712.0,0.6053924583333333,31.75,91.02666666666666,0.9296875,61.76830815798343
1361788712.25,0.603951,31.75,90.91500005717333,3.333854166666667,61.770670433329485
1361788712.5,0.6024027916666667,31.75,90.80333333333333,5.1824739583333335,61.77045927695722
1361788712.75,0.6008012083333334,31.75,90.69166660949332,6.543749999999999,61.767080775000984
1361788713.0,0.5992529999999999,31.75,90.58,6.856875,61.75927148331289
1361788713.25,0.5979717083333334,31.75,90.46750005759999,6.14703125,61.748511119379174
1361788713.5,0.596957375,31.75,90.35499999999999,5.032630208333333,61.73286227176842
1361788713.75,0.5958896666666667,31.75,90.2424999424,4.495078125,61.71594996994935
1361788714.0,0.5948753333333333,31.75,90.13,4.4128645833333335,61.701143425144146
1361788714.25,0.5938075833333333,31.75,90.01500005887999,4.956588541666666,61.68916137465296
1361788714.5,0.5927932499999999,31.75,89.9,5.356197916666667,61.68105669698273
1361788714.75,0.5919390833333333,31.75,89.78499994112,5.634244791666666,61.668822303139315
1361788715.0,0.5911382916666666,31.75,89.67,5.723177083333334,61.65304815257603
1361788715.25,0.590390875,31.75,89.55250006016,4.527421875,61.64950037888914
1361788715.5,0.5897502083333334,31.75,89.435,3.991276041666667,61.740897428066695
1361788715.75,0.5892163333333333,31.75,89.31749993984,4.043697916666667,61.90915043972489
1361788716.0,0.5889494166666667,31.75,89.2,4.7003385416666665,62.02057692220347
1361788716.25,0.5891629583333334,31.75,89.08083339434667,5.872135416666667,62.0915308060927
1361788716.5,0.5898035833333334,31.75,88.96166666666667,6.614765625,62.153593930963524
1361788716.75,0.5907645416666667,31.75,88.84249993898668,7.555703125,62.21080722552998
1361788717.0,0.5918856250000001,31.75,88.72333333333334,8.02875,62.26472140764536
1361788717.25,0.5932736666666667,31.75,88.60666672640001,8.140755208333333,62.32686816328257
1361788717.5,0.59487525,31.75,88.49000000000001,9.651588541666667,62.385548835078254
1361788717.75,0.5964768333333333,31.75,88.3733332736,10.273255208333333,62.43707676809152
1361788718.0,0.5980784166666666,31.75,88.25666666666666,10.346979166666667,62.46916648656087
1361788718.25,0.59968,31.75,88.13833339391999,11.384817708333332,62.49646039323802
1361788718.5,0.6012815833333334,31.75,88.01999999999998,10.244713541666666,62.43079485472236
1361788718.75,0.6028831666666666,31.75,87.90166660607998,8.617083333333333,62.29110464500857
1361788719.0,0.6043245833333334,31.75,87.78333333333332,9.120546875,62.202974653887885
1361788719.25,0.605125375,31.75,87.66250006186665,9.113072916666667,62.14338423344959
1361788719.5,0.605232125,31.75,87.54166666666666,7.824817708333334,62.07773577290097
1361788719.75,0.6049651666666667,31.749166666666667,87.42083327146666,6.523177083333334,61.99719009253718
1361788720.0,0.6043779583333333,31.7475,87.3,4.878854166666667,61.90949418319741
1361788720.25,0.6032568749999999,31.745833333333334,87.17666672981333,1.4621093749999998,61.81071700778583
1361788720.5,0.6009079166666667,31.74416666666667,87.05333333333333,-3.1891927083333336,61.715746281999714
1361788720.75,0.5977047916666667,31.74333333333333,86.92999993685332,-5.988489583333333,61.628055932164976
1361788721.0,0.594394875,31.74333333333333,86.80666666666666,-7.593098958333333,61.560441670862424
1361788721.25,0.5909782083333334,31.74333333333333,86.68416672938666,-7.885364583333332,61.50180739833638
1361788721.5,0.5874547916666667,31.74333333333333,86.56166666666667,-6.293828125,61.44397359686454
1361788721.75,0.583878,31.742499999999996,86.43916660394666,-4.354453125,61.38694316711068
1361788722.0,0.5802477916666667,31.74083333333333,86.31666666666666,-5.531197916666667,61.33517904794334
1361788722.25,0.5767243333333334,31.739166666666666,86.20000005973333,-6.693567708333333,61.29891348091426
1361788722.5,0.5734144583333333,31.737499999999997,86.08333333333334,-5.341666666666668,61.28116223724522
1361788722.75,0.570211375,31.736666666666668,85.96666660693334,-4.777604166666667,61.28417676490465
1361788723.0,0.566954875,31.736666666666668,85.85000000000001,-3.444505208333334,61.29764063399116
1361788723.25,0.563805125,31.736666666666665,85.73833339050668,-0.10177083333333344,61.31395319562762
1361788723.5,0.5614561666666668,31.736666666666665,85.62666666666668,3.079505208333334,61.32992539148015
1361788723.75,0.5597478333333333,31.735000000000003,85.51499994282668,5.66265625,61.345769950163735
1361788724.0,0.5580395,31.73166666666667,85.40333333333335,7.542395833333334,61.360976634859036
1361788724.25,0.5561710000000001,31.728333333333335,85.29500005546669,7.850130208333333,61.36980613895464
1361788724.5,0.5541957083333333,31.725000000000005,85.18666666666668,8.296093749999999,61.37842322604271
1361788724.75,0.5522737916666667,31.7225,85.07833327786668,8.211145833333333,61.38657299571427
1361788725.0,0.5504052916666666,31.72083333333333,84.97000000000001,8.676979166666667,61.394722765385815
1361788725.25,0.5486435833333333,31.719166666666666,84.86833338538668,8.978671875,61.39930701082606
1361788725.5,0.546988625,31.7175,84.76666666666668,7.8299739583333325,61.40032573203501
1361788725.75,0.5454404166666668,31.715833333333336,84.66499994794667,8.312552083333333,61.40032573203501
1361788726.0,0.5450132916666667,31.714166666666667,84.56333333333333,8.977604166666667,61.40032573203501
1361788726.25,0.5457606666666667,31.712500000000002,84.46666671615999,8.608125,61.40032573203501
1361788726.5,0.546935125,31.710833333333337,84.37,7.992447916666667,61.40134306893506
1361788726.75,0.5484832916666668,31.71,84.27333328384,4.952239583333333,61.40989791335556
1361788727.0,0.550191625,31.71,84.17666666666666,1.1527864583333336,61.43650364465318
1361788727.25,0.5521668750000001,31.71,84.08000004949334,-1.4257552083333331,61.465513357471174
1361788727.5,0.5544624583333334,31.71,83.98333333333333,-5.0451041666666665,61.49000111341206
1361788727.75,0.5567580416666666,31.71166666666667,83.88666661717333,-8.199973958333333,61.51533763208121
1361788728.0,0.5590002083333333,31.715000000000003,83.79,-10.481119791666666,61.544011729802016
1361788728.25,0.561242375,31.718333333333334,83.68750005248,-11.304010416666666,61.56998669925019
1361788728.5,0.5634311666666667,31.721666666666668,83.58500000000001,-11.742786458333333,61.60586858037971
1361788728.75,0.5656199583333333,31.724999999999998,83.48249994752,-14.009088541666666,61.647391701316
1361788729.0,0.5669012083333334,31.728333333333335,83.38,-16.74375,61.680915177811585
1361788729.25,0.5672749166666667,31.73166666666667,83.2675000576,-18.149192708333334,61.71431224274988
1361788729.5,0.5674350833333334,31.735,83.155,-17.146145833333332,61.745427424026865
1361788729.75,0.5673817083333333,31.7375,83.0424999424,-13.90734375,61.76634795190724
1361788730.0,0.5671147916666667,31.739166666666666,82.93,-9.824088541666667,61.76715087599263
1361788730.25,0.5667410833333334,31.74083333333333,82.81583339178667,-7.450494791666667,61.77069553950122
1361788730.5,0.5662605833333333,31.742500000000003,82.70166666666668,-4.938671875,61.776231442117314
1361788730.75,0.5657800833333334,31.742500000000003,82.58749994154668,-1.411901041666667,61.78268985233077
1361788731.0,0.5652996250000001,31.74083333333333,82.47333333333334,1.679817708333333,61.789476638242256
1361788731.25,0.5647657916666667,31.739166666666666,82.35500006058668,3.44203125,61.79917364564938
1361788731.5,0.5642853333333333,31.7375,82.23666666666668,5.1418229166666665,61.801320968808085
1361788731.75,0.563804875,31.735833333333332,82.11833327274667,7.521197916666666,61.79091605221615
1361788732.0,0.5633244166666667,31.734166666666667,82.0,9.745052083333333,61.776482316106716
1361788732.25,0.5627905833333333,31.7325,81.89833338538666,10.944036458333334,61.75007375439254
1361788732.5,0.562310125,31.730833333333333,81.79666666666665,10.0525,61.739100295516046
1361788732.75,0.5618296666666667,31.730833333333333,81.69499994794666,8.902708333333333,61.73909968788538
1361788733.0,0.5614025833333333,31.732499999999998,81.59333333333332,7.669010416666666,61.74988744509645
1361788733.25,0.5609755,31.734166666666667,81.51000004266666,7.409921874999999,61.75805556434933
1361788733.5,0.5605484166666667,31.735833333333332,81.42666666666665,7.54703125,61.77367553207353
1361788733.75,0.5600679583333333,31.737499999999997,81.34333329066665,6.522942708333335,61.7898369363034
1361788734.0,0.559534125,31.739166666666666,81.25999999999999,5.425598958333334,61.802332385783586
1361788734.25,0.5590002916666666,31.74083333333333,81.19250003456,4.522291666666667,61.81461674204076
1361788734.5,0.5584130833333333,31.742499999999996,81.125,4.330286458333333,61.824543870865
1361788734.75,0.5577190833333333,31.74416666666667,81.05749996544,4.750442708333333,61.84675305906034
1361788735.0,0.5569182916666666,31.745833333333334,80.99000000000001,5.246041666666667,61.92086920116762
1361788735.25,0.556064125,31.7475,80.91750003712,5.397734375,62.020581337755345
1361788735.5,0.5552099583333333,31.749166666666667,80.845,5.981822916666666,62.10417014361385
1361788735.75,0.5544091666666667,31.750833333333333,80.77249996288,6.987265625,62.181811556712994
1361788736.0,0.5537151666666666,31.7525,80.7,8.42859375,62.25702796455628
1361788736.25,0.5531279583333334,31.754166666666666,80.62083337386667,10.249453125,62.366770086517214
1361788736.5,0.5526475000000001,31.75583333333333,80.54166666666667,12.272213541666666,62.50378069519211
1361788736.75,0.5523272083333334,31.756666666666664,80.46249995946667,14.558333333333332,62.613898171452995
1361788737.0,0.552434,31.756666666666664,80.38333333333334,17.02130208333333,62.712456359103676
1361788737.25,0.5527009166666667,31.756666666666664,80.29583337813334,19.073229166666668,62.80210003764793
1361788737.5,0.5530212083333333,31.756666666666664,80.20833333333334,22.031145833333337,62.875274253563894
1361788737.75,0.5534482916666666,31.757500000000004,80.12083328853335,25.63552083333333,62.93429354814125
1361788738.0,0.5539821666666667,31.75916666666667,80.03333333333335,26.803749999999997,62.943589596908765
1361788738.25,0.5546227916666667,31.760833333333334,79.95166670848,30.329166666666666,62.934523710812975
1361788738.5,0.5549965,31.7625,79.87,32.233359375,62.924995675327864
1361788738.75,0.5549965,31.763333333333335,79.78833329152,32.92166666666667,62.90664322344619
1361788739.0,0.5540889166666667,31.763333333333332,79.70666666666666,32.03028645833333,62.8819941288965
1361788739.25,0.5524873333333333,31.763333333333332,79.63333337088,29.162552083333335,62.80521827885506
1361788739.5,0.550725625,31.763333333333335,79.56,27.576666666666668,62.68947782380397
1361788739.75,0.548857125,31.764166666666668,79.48666662912001,25.63606770833333,62.595470550884215
1361788740.0,0.5466149166666666,31.765833333333333,79.41333333333334,23.377916666666664,62.51289687690632
1361788740.25,0.5442125833333334,31.767500000000002,79.35583336277334,21.900859374999996,62.43492002555117
1361788740.5,0.541756875,31.769166666666667,79.29833333333335,18.955026041666667,62.365232194164626
1361788740.75,0.5392477916666667,31.77,79.24083330389334,14.326927083333333,62.30420227394922
1361788741.0,0.5367387083333334,31.77,79.18333333333334,12.020651041666667,62.253017109589905
1361788741.25,0.5342296249999999,31.77,79.14750001834668,8.198046875,62.20669912277549
1361788741.5,0.5319340416666667,31.77,79.11166666666668,6.02,62.16279606000318
1361788741.75,0.52995875,31.77,79.07583331498667,5.098020833333334,62.12534910101715
1361788742.0,0.5288910416666667,31.77,79.04,5.298385416666666,62.087902142031105
1361788742.25,0.5285173333333334,31.77,79.01916667733333,7.015364583333334,62.06553014143376
1361788742.5,0.528143625,31.77,78.99833333333333,7.150833333333334,62.0499331284304
1361788742.75,0.5276631666666667,31.77,78.97749998933334,7.505442708333334,62.037183358878444
1361788743.0,0.5271827083333334,31.77,78.95666666666666,7.780416666666667,62.024559278994815
1361788743.25,0.5267022083333334,31.77,78.94416667306666,7.70375,62.01625288559487
1361788743.5,0.5262216666666667,31.77,78.93166666666666,7.752578124999999,62.01612693485461
1361788743.75,0.52568775,31.769166666666667,78.91916666026665,8.259947916666667,62.02619449878451
1361788744.0,0.5249402916666667,31.7675,78.90666666666665,9.016354166666666,62.03693323364308
1361788744.25,0.5240860416666667,31.765833333333333,78.89416667306665,9.288541666666667,62.047671968501646
1361788744.5,0.5232318333333333,31.764166666666668,78.88166666666666,9.281796875,62.05841070336022
1361788744.75,0.5224310416666667,31.7625,78.86916666026667,8.701302083333333,62.06914943821877
1361788745.0,0.521576875,31.760833333333334,78.85666666666667,8.087994791666665,62.07988817307734
1361788745.25,0.5207227083333333,31.75916666666667,78.8483333376,7.328958333333333,62.090626907935906
1361788745.5,0.5199219166666667,31.757500000000004,78.84,6.715624999999999,62.10136564279447
1361788745.75,0.51928125,31.75583333333333,78.8316666624,6.068619791666666,62.11210437765303
1361788746.0,0.5186939583333333,31.754166666666666,78.82333333333332,5.5120572916666655,62.122843112511596
1361788746.25,0.5182134583333333,31.7525,78.82250000042666,4.937734375000001,62.13358184737017
1361788746.5,0.5178397916666667,31.750833333333333,78.82166666666666,4.349453125,62.14432058222874
1361788746.75,0.5177330416666667,31.75,78.82083333290666,3.818020833333333,62.14499175315739
1361788747.0,0.5179465833333333,31.75,78.82,3.16375,62.14499175315739
1361788747.25,0.5183202916666667,31.75,78.82,2.8817968749999996,62.14499175315739
1361788747.5,0.5188007499999999,31.75,78.82,2.5151302083333333,62.14499175315739
1361788747.75,0.5192812083333334,31.75,78.82,2.3590625,62.14499175315739
1361788748.0,0.5198150416666666,31.75,78.82,2.42421875,62.14499175315739
1361788748.25,0.5202955,31.75,78.82249999871999,2.3193229166666667,62.14499175315739
1361788748.5,0.5207759583333333,31.75,78.82499999999999,2.5525520833333335,62.14499175315739
1361788748.75,0.5211496666666667,31.749166666666667,78.82750000128,2.716354166666667,62.14499175315739
1361788749.0,0.52147,31.7475,78.83,2.7526822916666664,62.14499175315739
1361788749.25,0.5216302083333333,31.745833333333334,78.83666666325334,3.090078125,62.14499175315739
1361788749.5,0.5216302083333334,31.74416666666667,78.84333333333333,3.256354166666666,62.14499175315739
1361788749.75,0.52136325,31.742499999999996,78.85000000341333,3.3946614583333337,62.14499175315739
1361788750.0,0.5208827916666666,31.74083333333333,78.85666666666667,3.713854166666667,62.14499175315739
1361788750.25,0.5202955833333333,31.739166666666666,78.87166665898667,3.7376302083333335,62.14499175315739
1361788750.5,0.5195482083333334,31.7375,78.88666666666667,3.828828125,62.14499175315739
1361788750.75,0.5186406666666666,31.736666666666665,78.90166667434667,3.5963541666666665,62.14499175315739
1361788751.0,0.51767975,31.736666666666665,78.91666666666667,3.2652083333333333,62.14499175315739
1361788751.25,0.5167188333333333,31.736666666666665,78.93166665898667,3.3890625,62.14499175315739
1361788751.5,0.5157045416666667,31.736666666666665,78.94666666666667,3.245885416666667,62.14499175315739
1361788751.75,0.514743625,31.737499999999997,78.96166667434667,2.987239583333333,62.14499175315739
1361788752.0,0.5137827083333334,31.739166666666666,78.97666666666667,3.0415885416666666,62.14499175315739
1361788752.25,0.5128751666666668,31.74083333333333,78.98916666026668,2.8711458333333333,62.14976302676779
1361788752.5,0.512021,31.742499999999996,79.00166666666667,2.925026041666667,62.162486423062184
1361788752.75,0.5111668333333333,31.74333333333333,79.01416667306667,3.178020833333333,62.175209819356574
1361788753.0,0.5103126666666666,31.743333333333336,79.02666666666667,3.14984375,62.187933215650965
1361788753.25,0.5094585,31.743333333333336,79.03916666026667,3.6059114583333334,62.200656611945355
1361788753.5,0.5087111249999999,31.74333333333333,79.05166666666668,4.3925520833333325,62.213003571967484
1361788753.75,0.5080705416666667,31.742500000000003,79.06416667306667,5.485104166666666,62.22346835062831
1361788754.0,0.5074299583333334,31.740833333333338,79.07666666666667,6.327421875,62.22715318917968
1361788754.25,0.50684275,31.739166666666666,79.09666665642666,6.844557291666668,62.22782245034417
1361788754.5,0.5063089166666667,31.7375,79.11666666666666,7.223697916666667,62.21753557078831
1361788754.75,0.5058284583333333,31.735833333333336,79.13666667690666,7.956328124999999,62.19510986740133
1361788755.0,0.505401375,31.73416666666667,79.15666666666665,8.264296875000001,62.17268416401433
1361788755.25,0.5050276666666667,31.7325,79.18333331967999,7.988385416666667,62.14371917669455
1361788755.5,0.5047607500000001,31.730833333333337,79.21,7.615651041666666,62.10372541960418
1361788755.75,0.504600625,31.729166666666668,79.23666668032,6.7430208333333335,62.06630315907924
1361788756.0,0.5057217083333333,31.727500000000003,79.26333333333334,5.824036458333333,62.02871248204381
1361788756.25,0.5080172916666666,31.72583333333333,79.28166665728,3.8691145833333334,61.97950962078474
1361788756.5,0.5103662916666667,31.724166666666672,79.3,0.5403385416666667,61.923214344802545
1361788756.75,0.5128220416666667,31.7225,79.31833334272,-3.70953125,61.854678625547514
1361788757.0,0.5153845416666667,31.72083333333333,79.33666666666666,-8.1646875,61.791651486518106
1361788757.25,0.5179470416666666,31.71916666666667,79.33749999957334,-13.054270833333334,61.72315331367074
1361788757.5,0.5205095416666666,31.7175,79.33833333333334,-17.800572916666667,61.681669637718024
1361788757.75,0.5229652916666666,31.715833333333332,79.33916666709334,-22.83473958333333,61.66479885396526
1361788758.0,0.5254210416666667,31.71416666666667,79.34000000000002,-27.36921875,61.658305447893106
1361788758.25,0.527823375,31.712500000000002,79.32750000640002,-30.3459375,61.6853976962395
1361788758.5,0.5301723333333334,31.71083333333333,79.31500000000001,-33.853932291666666,61.730151376180494
1361788758.75,0.5324679166666667,31.709166666666672,79.30249999360001,-37.62059895833333,61.75916352689535
1361788759.0,0.5336958333333334,31.7075,79.29,-41.172421875000005,61.76428012622449
1361788759.25,0.533802625,31.705833333333334,79.2775000064,-43.40604166666666,61.76906542675897
1361788759.5,0.533856,31.704166666666666,79.26500000000001,-43.69739583333333,61.7788733488613
1361788759.75,0.5337492083333334,31.7025,79.25249999360001,-42.50080729166667,61.80255204200424
1361788760.0,0.5335890416666667,31.700833333333335,79.24000000000001,-40.28497395833333,61.8212099314498
1361788760.25,0.5334822916666667,31.699166666666667,79.23500000256,-37.160807291666664,61.84282121503161
1361788760.5,0.5333755416666667,31.6975,79.23,-34.062265625,61.84363447752458
1361788760.75,0.5333755416666667,31.695833333333336,79.22499999744001,-30.767838541666666,61.83409082239893
1361788761.0,0.5333755416666667,31.694166666666664,79.22,-27.545937499999997,61.80976697569752
1361788761.25,0.5334823333333333,31.6925,79.22416666453333,-25.534427083333338,61.74455836049134
1361788761.5,0.533589125,31.690833333333334,79.22833333333332,-22.815963541666665,61.6612008574515
1361788761.75,0.5337492916666666,31.69,79.23250000213334,-19.297604166666666,61.59152254469033
1361788762.0,0.5338560416666667,31.69,79.23666666666666,-15.424661458333334,61.54921772434202
1361788762.25,0.5340695416666666,31.69,79.24583332864,-12.0915625,61.51554686249536
1361788762.5,0.5343364166666666,31.69,79.255,-9.622942708333333,61.48160295336576
1361788762.75,0.53487025,31.69,79.26416667135999,-7.4721875,61.43911096655376
1361788763.0,0.535617625,31.69,79.27333333333333,-5.649375,61.39900006275591
1361788763.25,0.536418375,31.69,79.28999999146666,-4.458177083333333,61.37908892815318
1361788763.5,0.5373259166666667,31.69,79.30666666666666,-3.3491666666666666,61.36391745846498
1361788763.75,0.538447,31.69,79.32333334186666,-2.098125,61.34662883802661
1361788764.0,0.5399951666666666,31.69,79.33999999999999,-1.0365885416666667,61.33433673378443
1361788764.25,0.5415433333333334,31.69,79.36083332266666,0.1748177083333334,61.35089015169803
1361788764.5,0.5432516666666666,31.69,79.38166666666666,0.9933333333333333,61.3767572962332
1361788764.75,0.54496,31.69,79.40250001066666,1.5676041666666667,61.404438614809344
1361788765.0,0.5466149583333333,31.69,79.42333333333333,1.5323697916666665,61.42881040886883
1361788765.25,0.5481631666666668,31.69,79.44833332053334,1.6023697916666668,61.4566605305038
1361788765.5,0.549658,31.69,79.47333333333333,1.686276041666667,61.489086762496356
1361788765.75,0.5509926666666667,31.690833333333334,79.49833334613332,1.3068229166666667,61.53098813800015
1361788766.0,0.5520604166666667,31.6925,79.52333333333333,0.4507812500000001,61.576800594071024
1361788766.25,0.5529145833333334,31.694166666666664,79.55499998378666,0.0675520833333334,61.60794649801536
1361788766.5,0.5535551666666666,31.695833333333336,79.58666666666666,-0.12289062499999992,61.639092401959694
1361788766.75,0.5538220833333333,31.698333333333334,79.61833334954666,-0.8444270833333333,61.67023830590403
1361788767.0,0.55350175,31.701666666666668,79.64999999999999,-1.2872135416666666,61.70079050754728
1361788767.25,0.552967875,31.705000000000002,79.6874999808,-1.5789583333333332,61.7115643114434
1361788767.5,0.5522204583333333,31.708333333333332,79.725,-1.4281770833333336,61.71658849204359
1361788767.75,0.5514196666666668,31.710833333333337,79.76250001919999,-1.3697916666666667,61.71928934098485
1361788768.0,0.550512125,31.712500000000002,79.8,-1.0878645833333331,61.72199018992611
1361788768.25,0.5494977916666667,31.71416666666667,79.84166664533333,-1.0401302083333333,61.724522235808536
1361788768.5,0.5483766666666666,31.715833333333336,79.88333333333333,-1.0782291666666666,61.72519744804386
1361788768.75,0.5472021666666667,31.716666666666665,79.92500002133332,-0.9768749999999998,61.725703536208925
1361788769.0,0.5460276666666667,31.71666666666667,79.96666666666665,-0.6271614583333333,61.72625196613634
1361788769.25,0.5449065833333334,31.71666666666667,80.01916663978666,-0.6381249999999999,61.72781241754904
1361788769.5,0.5438922916666666,31.71666666666667,80.07166666666666,-0.8327604166666666,61.73320986547051
1361788769.75,0.54298475,31.715833333333336,80.12416669354666,-0.4897395833333333,61.738017006236795
1361788770.0,0.542184,31.714166666666667,80.17666666666666,-0.603671875,61.7392823040719
1361788770.25,0.541436625,31.712500000000002,80.23999996757333,-0.812890625,61.73995729475178
1361788770.5,0.5406892083333333,31.710833333333337,80.30333333333334,-1.2082291666666667,61.741517746164476
1361788770.75,0.5399417916666667,31.71,80.36666669909334,-1.4507552083333335,61.74219273684438
1361788771.0,0.53924775,31.71,80.43,-1.5103645833333335,61.74286772752427
1361788771.25,0.5385003333333334,31.71,80.5049999616,-1.6195052083333332,61.743542718204175
1361788771.5,0.5375927916666666,31.71,80.58000000000001,-1.479609375,61.744217708884065
1361788771.75,0.536631875,31.71,80.6550000384,-1.15234375,61.7443866113989
1361788772.0,0.5357243333333334,31.71,80.73,-1.1744270833333335,61.74451317215138
1361788772.25,0.5348167916666667,31.71,80.8049999616,-0.830546875,61.74362771141858
1361788772.5,0.533855875,31.71,80.88,-0.3009895833333333,61.73890525417699
1361788772.75,0.5328949583333333,31.71,80.9550000384,-0.16007812499999996,61.73477310409061
1361788773.0,0.5319874166666666,31.71,81.03,0.36377604166666666,61.73418279693541
1361788773.25,0.5311866666666667,31.71,81.10416662869333,0.8240104166666667,61.734182796935414
1361788773.5,0.5303859166666666,31.71,81.17833333333334,1.186875,61.73329733620261
1361788773.75,0.529585125,31.71,81.25250003797333,1.5640885416666668,61.73329733620261
1361788774.0,0.5287843333333333,31.71,81.32666666666667,1.6053645833333334,61.73329733620261
1361788774.25,0.5280903333333333,31.71,81.39916662954667,1.9506250000000003,61.73329733620261
1361788774.5,0.5276632499999999,31.71,81.47166666666666,1.828776041666667,61.73329733620261
1361788774.75,0.5272895416666666,31.71,81.54416670378666,1.5788541666666667,61.73329733620261
1361788775.0,0.5268624583333333,31.71,81.61666666666666,1.9468229166666664,61.73329733620261
1361788775.25,0.5264353333333333,31.71,81.68666663082666,1.7738541666666665,61.73329733620261
1361788775.5,0.5260081666666667,31.71,81.75666666666666,1.5129427083333333,61.73329733620261
1361788775.75,0.5255276249999999,31.710833333333337,81.82666670250666,1.4823697916666667,61.73329733620261
1361788776.0,0.5249937083333333,31.712500000000002,81.89666666666666,1.074453125,61.73329733620261
1361788776.25,0.5244597916666667,31.714166666666667,81.96416663210667,0.9501041666666667,61.73329733620261
1361788776.5,0.5239792916666667,31.715833333333336,82.03166666666667,0.9841666666666667,61.73329733620261
1361788776.75,0.5234988333333334,31.7175,82.09916670122666,0.7983854166666667,61.7335924897802
1361788777.0,0.523018375,31.719166666666666,82.16666666666667,0.8618229166666667,61.733592489780214
1361788777.25,0.5225912916666667,31.72083333333333,82.23166663338667,0.562578125,61.7335924897802
1361788777.5,0.5221642083333333,31.7225,82.29666666666668,0.7904166666666667,61.73388764335781
1361788777.75,0.5216837083333333,31.723333333333333,82.36166669994668,0.8145052083333333,61.733887643357804
1361788778.0,0.5212032083333334,31.723333333333333,82.42666666666668,0.45489583333333333,61.73190435973592
1361788778.25,0.520776125,31.723333333333333,82.48999996757334,0.51515625,61.72709269573922
1361788778.5,0.5202956666666667,31.723333333333333,82.55333333333334,0.7347656250000001,61.71771898639907
1361788778.75,0.519975375,31.7225,82.61666669909334,0.7712499999999999,61.70390540016367
1361788779.0,0.5196016666666667,31.72083333333333,82.68,0.7748177083333333,61.684123594315075
1361788779.25,0.5192279583333334,31.71916666666667,82.742499968,0.10354166666666668,61.639296571456555
1361788779.5,0.518800875,31.7175,82.805,-0.7754947916666667,61.5955191092402
1361788779.75,0.5184271666666667,31.716666666666665,82.86750003200001,-1.1517447916666665,61.54221976966443
1361788780.0,0.5181068333333333,31.71666666666667,82.93,-0.9154947916666666,61.49100419343221
1361788780.25,0.5177865,31.71666666666667,82.99666663253333,-0.19380208333333324,61.462223502576
1361788780.5,0.5174127916666668,31.71666666666667,83.06333333333333,-0.4157291666666665,61.42652642351132
1361788780.75,0.5170925000000001,31.7175,83.13000003413335,-0.1457552083333332,61.4081332437585
1361788781.0,0.5168255833333333,31.719166666666666,83.19666666666667,-0.011874999999999853,61.392533321264274
1361788781.25,0.5165586666666666,31.720833333333335,83.26916662954667,-0.3166927083333332,61.35157964811926
1361788781.5,0.5163985416666667,31.7225,83.34166666666667,-0.8854947916666664,61.313910112143056
1361788781.75,0.516131625,31.724166666666665,83.41416670378668,-1.3527604166666665,61.294455052040824
1361788782.0,0.5159714999999999,31.725833333333338,83.48666666666668,-1.5921093749999997,61.28994464189247
1361788782.25,0.5158113750000001,31.727499999999996,83.56499995989334,-1.2713541666666666,61.325687583710426
1361788782.5,0.51565125,31.729166666666668,83.64333333333335,-0.8037239583333332,61.347476092197944
1361788782.75,0.51543775,31.730833333333337,83.72166670677335,-0.7109374999999999,61.39000644232495
1361788783.0,0.51522425,31.7325,83.80000000000001,-1.3620572916666667,61.43176407487491
1361788783.25,0.5149573333333333,31.734166666666667,83.88083329194667,-2.370078125,61.44905503767105
1361788783.5,0.514637,31.735833333333336,83.96166666666667,-2.649453125,61.47499901947588
1361788783.75,0.5142632916666666,31.7375,84.04250004138667,-3.1642447916666665,61.48393425554645
1361788784.0,0.5138362083333333,31.739166666666666,84.12333333333333,-3.5016927083333336,61.49002773360249
1361788784.25,0.5133023333333334,31.74083333333333,84.20833328981334,-3.402552083333333,61.52633512706195
1361788784.5,0.5125549166666666,31.742500000000003,84.29333333333332,-3.1088020833333334,61.56392042869604
1361788784.75,0.511647375,31.74416666666667,84.37833337685332,-2.9878125000000004,61.58773113135143
1361788785.0,0.5106864583333334,31.745833333333334,84.46333333333332,-2.423723958333333,61.60256540366614
1361788785.25,0.5096721249999999,31.747500000000002,84.55166662143999,-2.1661979166666665,61.59203261913533
1361788785.5,0.50865775,31.749166666666667,84.63999999999999,-1.8594791666666666,61.59220467095053
1361788785.75,0.507643375,31.75,84.72833337856,-1.520703125,61.5778139283413
1361788786.0,0.5065222500000001,31.75,84.81666666666666,-1.4692447916666664,61.56155965331874
1361788786.25,0.5054011666666668,31.75,84.91083328511999,-0.9468489583333333,61.549244353178956
1361788786.5,0.5043335,31.75,85.005,-0.3432291666666667,61.534473448549136
1361788786.75,0.5032657916666666,31.75,85.09916671488,-0.1372135416666667,61.518642993638785
1361788787.0,0.5021446666666667,31.75,85.19333333333333,0.12317708333333331,61.504420502994044
1361788787.25,0.5010769583333333,31.75,85.29166661632,-0.04838541666666668,61.48816622797148
1361788787.5,0.5002227916666667,31.75,85.38999999999999,-0.35994791666666665,61.471911952948936
1361788787.75,0.49947537500000005,31.75,85.48833338367999,-0.1421875,61.455657677926375
1361788788.0,0.4986745833333333,31.75,85.58666666666666,-0.5509375,61.4394034029038
1361788788.25,0.4979272083333333,31.75,85.68666661546666,-0.7263541666666665,61.433308049770346
1361788788.5,0.4971264583333333,31.75,85.78666666666666,-0.816484375,61.42941273297919
1361788788.75,0.49632566666666666,31.750833333333333,85.88666671786666,-0.9139583333333333,61.42856509275477
1361788789.0,0.49557824999999994,31.752499999999998,85.98666666666666,-0.44960937500000003,61.42856509275477
1361788789.25,0.4947774583333333,31.754166666666666,86.08583328256,-0.30989583333333337,61.42665790224981
1361788789.5,0.49392329166666665,31.75583333333333,86.185,-0.4429427083333333,61.42517453185707
1361788789.75,0.4931225416666667,31.757499999999997,86.28416671743999,-0.09734375,61.424750711744856
1361788790.0,0.4924285833333333,31.75916666666667,86.38333333333333,0.06776041666666667,61.424750711744856
1361788790.25,0.49178799999999995,31.760833333333334,86.48166661632,0.5266406250000001,61.424750711744856
1361788790.5,0.49114741666666667,31.7625,86.58000000000001,1.1778645833333334,61.424750711744856
1361788790.75,0.4905067916666666,31.764166666666664,86.67833338368001,1.3391145833333333,61.424750711744856
1361788791.0,0.48986612500000004,31.765833333333333,86.77666666666669,1.6259375,61.424750711744856
1361788791.25,0.4890653333333333,31.7675,86.87999994709335,1.9744270833333335,61.424750711744856
1361788791.5,0.4882645833333334,31.769166666666663,86.98333333333335,2.1509635416666666,61.424750711744856
1361788791.75,0.4874638333333334,31.770833333333332,87.08666671957334,2.3185156250000003,61.424750711744856
1361788792.0,0.4866630416666667,31.772500000000004,87.19000000000001,2.372838541666667,61.424750711744856
1361788792.25,0.48586225,31.774166666666662,87.29416661333335,2.177057291666667,61.424750711744856
1361788792.5,0.4850614583333333,31.775833333333335,87.39833333333334,2.1726562499999997,61.424750711744856
1361788792.75,0.48431404166666664,31.7775,87.50250005333334,2.0145572916666667,61.424750711744856
1361788793.0,0.48351325000000006,31.779166666666665,87.60666666666667,1.9562239583333334,61.424750711744856
1361788793.25,0.4825522916666667,31.780833333333334,87.70833328128,2.1074739583333333,61.424750711744856
1361788793.5,0.48148454166666665,31.7825,87.81,2.0172916666666665,61.424750711744856
1361788793.75,0.48047020833333337,31.783333333333335,87.91166671872,2.0179427083333334,61.424750711744856
1361788794.0,0.47956266666666664,31.78333333333333,88.01333333333334,2.290677083333333,61.424962621800965
1361788794.25,0.47870850000000004,31.78333333333333,88.10749995178666,2.3115364583333333,61.42686981230592
1361788794.5,0.4778543333333333,31.783333333333335,88.20166666666667,2.1896875000000002,61.429200822923086
1361788794.75,0.4770001666666666,31.7825,88.29583338154667,2.2502083333333336,61.43195565365246
1361788795.0,0.47614599999999996,31.78083333333333,88.39,2.0619270833333334,61.435134304494056
1361788795.25,0.47539858333333335,31.77916666666667,88.47833328810667,2.1183593750000003,61.43746531511123
1361788795.5,0.4747045416666667,31.7775,88.56666666666666,2.501614583333333,61.437889135223436
1361788795.75,0.47390375,31.775833333333335,88.65500004522667,2.7985156250000003,61.438101045279545
1361788796.0,0.4731029583333333,31.77416666666667,88.74333333333334,3.3814583333333332,61.438101045279545
1361788796.25,0.4724623333333333,31.772499999999997,88.826666624,3.79296875,61.438101045279545
1361788796.5,0.4719285,31.770833333333332,88.91,4.253776041666667,61.438101045279545
1361788796.75,0.47134129166666666,31.77,88.99333337600001,4.917578125,61.438101045279545
1361788797.0,0.47059391666666667,31.77,89.07666666666667,5.313671875,61.437889135223436
1361788797.25,0.469793125,31.77,89.16249995605334,5.762942708333333,61.435981944718485
1361788797.5,0.4690457083333333,31.77,89.24833333333333,6.497057291666667,61.433650934101315
1361788797.75,0.4682983333333333,31.77,89.33416671061333,6.980572916666667,61.430896103371936
1361788798.0,0.46755100000000005,31.77,89.42,7.492057291666666,61.427717452530345
1361788798.25,0.46675025000000003,31.77,89.49416662869334,8.050572916666665,61.42538644191317
1361788798.5,0.4659494583333333,31.77,89.56833333333333,8.145260416666666,61.424962621800965
1361788798.75,0.4652020416666666,31.77,89.64250003797332,8.225625,61.424750711744856
1361788799.0,0.46445462499999995,31.77,89.71666666666665,8.064583333333333,61.424750711744856
1361788799.25,0.4636538333333333,31.77,89.77666663594665,7.847499999999999,61.424750711744856
1361788799.5,0.46279966666666666,31.77,89.83666666666666,7.669687500000001,61.424750711744856
1361788799.75,0.461998875,31.77,89.89666669738666,7.349687500000001,61.424750711744856
1361788800.0,0.46135824999999997,31.77,89.95666666666666,6.959791666666667,61.424750711744856
1361788800.25,0.46087779166666665,31.77,89.98499998549333,6.636666666666667,61.424750711744856
1361788800.5,0.4603973333333333,31.77,90.01333333333334,6.281197916666667,61.424750711744856
1361788800.75,0.45986345833333336,31.770833333333332,90.04166668117334,5.937734374999999,61.424750711744856
1361788801.0,0.4593829583333333,31.772499999999997,90.07000000000001,5.724114583333333,61.424750711744856
1361788801.25,0.45890245833333326,31.77416666666667,90.08249999360001,5.452421875,61.424750711744856
1361788801.5,0.45842199999999994,31.775833333333335,90.095,5.226640625,61.424750711744856
1361788801.75,0.45794154166666673,31.7775,90.1075000064,5.146640625,61.424750711744856
1361788802.0,0.4575144583333333,31.77916666666667,90.12,5.191640625000001,61.424750711744856
1361788802.25,0.45714075,31.780833333333334,90.11833333418667,5.145260416666667,61.424750711744856
1361788802.5,0.45682041666666673,31.7825,90.11666666666667,5.122604166666667,61.424750711744856
1361788802.75,0.4565000833333333,31.784166666666668,90.11499999914668,5.169583333333333,61.424750711744856
1361788803.0,0.45617975,31.78583333333333,90.11333333333334,5.197421875,61.424750711744856
1361788803.25,0.4559127916666667,31.787499999999998,90.11166666752001,5.338046875,61.424750711744856
1361788803.5,0.4556992083333333,31.78916666666667,90.11000000000001,5.486328125,61.424750711744856
1361788803.75,0.45575258333333335,31.79,90.10833333248,5.519010416666667,61.426022172081495
1361788804.0,0.455966125,31.79,90.10666666666667,5.72328125,61.43249997337696
1361788804.25,0.45633983333333333,31.79,90.10250000213333,5.881901041666667,61.438047032030916
1361788804.5,0.4570338333333333,31.79,90.09833333333333,5.901145833333334,61.44232467747852
1361788804.75,0.45799474999999995,31.79,90.09416666453333,6.106171875,61.44588349034071
1361788805.0,0.45900908333333335,31.79,90.08999999999999,6.136276041666666,61.446519220509025
1361788805.25,0.46013020833333335,31.79,90.08000000511998,6.016770833333333,61.448214500957874
1361788805.5,0.4613047083333333,31.79,90.07,6.175729166666667,61.45096933168725
1361788805.75,0.46247920833333334,31.790833333333328,90.05999999488,6.1953125,61.45245270207999
1361788806.0,0.46365370833333336,31.7925,90.05,6.267994791666666,61.455799604886074
1361788806.25,0.4648282083333333,31.794166666666666,90.0375000064,6.493567708333334,61.4656220228462
1361788806.5,0.46605608333333337,31.79583333333333,90.025,6.470520833333334,61.46583393290231
1361788806.75,0.4672305833333333,31.796666666666667,90.0124999936,6.632708333333333,61.46456247256567
1361788807.0,0.4685118333333333,31.796666666666667,90.0,6.8253385416666665,61.4580846712702
1361788807.25,0.47043370833333337,31.796666666666663,89.98583334058667,6.747552083333333,61.45253761261625
1361788807.5,0.47294283333333337,31.796666666666667,89.97166666666666,6.944895833333333,61.448259967168646
1361788807.75,0.475612125,31.796666666666663,89.95749999274668,6.9934375,61.44470115430645
1361788808.0,0.47822800000000004,31.796666666666667,89.94333333333334,6.851927083333333,61.44406542413814
1361788808.25,0.48089725,31.796666666666667,89.93250000554667,7.193437499999999,61.44237014368929
1361788808.5,0.483513125,31.796666666666663,89.92166666666667,7.295026041666667,61.44088677329655
1361788808.75,0.48612900000000003,31.795833333333334,89.91083332778666,7.2082291666666665,61.441734413520976
1361788809.0,0.488744875,31.79416666666667,89.89999999999999,7.3894270833333335,61.4479140762629
1361788809.25,0.49130737500000005,31.7925,89.88750000639999,7.227864583333333,61.44236992403716
1361788809.5,0.4936029583333333,31.790833333333335,89.875,7.08328125,61.457946290384484
1361788809.75,0.4954714166666667,31.790833333333335,89.86249999360001,7.0561718749999995,61.47525688072491
1361788810.0,0.4967526666666667,31.7925,89.85000000000001,6.670052083333334,61.47906766825545
1361788810.25,0.49707300000000004,31.794166666666666,89.83166667605333,6.572343750000001,61.479279578311555
1361788810.5,0.496432375,31.79583333333333,89.81333333333333,6.6429687500000005,61.479279578311555
1361788810.75,0.4953112916666667,31.798333333333336,89.79499999061333,6.493203125,61.479152364875574
1361788811.0,0.49408345833333334,31.801666666666666,89.77666666666666,6.606901041666667,61.479152364875574
1361788811.25,0.49264208333333337,31.804999999999996,89.75750000981333,6.404895833333334,61.47813465738766
1361788811.5,0.49120070833333335,31.808333333333334,89.73833333333333,6.110807291666667,61.475463849255156
1361788811.75,0.4897059166666667,31.81083333333333,89.71916665685333,6.290598958333334,61.471097423662165
1361788812.0,0.4881043333333333,31.812499999999996,89.7,6.130833333333334,61.45953544313834
1361788812.25,0.486396,31.814166666666665,89.6750000128,6.099244791666666,61.453221762428136
1361788812.5,0.48474104166666665,31.81583333333333,89.65,6.366484375,61.43692463228075
1361788812.75,0.48329962500000007,31.816666666666663,89.62499998720001,6.463177083333334,61.419614041940314
1361788813.0,0.48212512500000004,31.816666666666666,89.60000000000001,6.7457031249999995,61.41643898457809
1361788813.25,0.4810574166666666,31.816666666666666,89.57000001536001,6.82046875,61.41643898457809
1361788813.5,0.47998975000000005,31.816666666666666,89.54,6.310703125,61.41834617508305
1361788813.75,0.47892204166666663,31.815833333333334,89.50999998464,6.0335937500000005,61.42393719186813
1361788814.0,0.47785429166666665,31.814166666666665,89.48,5.841197916666666,61.424996742148664
1361788814.25,0.4767331666666667,31.8125,89.44083335338667,5.641354166666667,61.42665017980489
1361788814.5,0.47550529166666666,31.810833333333335,89.40166666666667,5.37578125,61.42804952760076
1361788814.75,0.4742240416666667,31.81,89.36249997994666,4.565260416666667,61.43008494257659
1361788815.0,0.4728894166666667,31.81,89.32333333333332,4.185807291666667,61.43313624974132
1361788815.25,0.47160816666666666,31.81,89.28416668672,3.935260416666667,61.43517166471714
1361788815.5,0.47043370833333337,31.81,89.245,3.340755208333334,61.43568051846108
1361788815.75,0.4693660416666667,31.81,89.20583331328,2.956432291666667,61.43568051846109
1361788816.0,0.46835175,31.81,89.16666666666667,2.560078125,61.43504478829277
1361788816.25,0.46733741666666667,31.81,89.14250001237333,2.2582552083333334,61.43483287823667
1361788816.5,0.46632304166666666,31.81,89.11833333333334,2.488307291666667,61.43292568773171
1361788816.75,0.46536208333333334,31.81,89.09416665429333,2.559140625,61.42746188438261
1361788817.0,0.4644545416666666,31.81,89.07,2.3753125,61.42640233410208
1361788817.25,0.46360037499999995,31.81,89.06583333546666,2.5600520833333333,61.425766603933766
1361788817.5,0.46274620833333335,31.81,89.06166666666667,2.8702083333333337,61.425766603933766
1361788817.75,0.4618920416666667,31.81,89.05749999786667,3.4632552083333334,61.425766603933766
1361788818.0,0.461037875,31.81,89.05333333333334,3.844661458333334,61.424750711744856
1361788818.25,0.46013033333333336,31.81,89.06499999402666,3.975807291666667,61.424750711744856
1361788818.5,0.4592227916666667,31.81,89.07666666666665,4.272994791666666,61.424750711744856
1361788818.75,0.458261875,31.81,89.08833333930666,4.5534895833333335,61.424750711744856
1361788819.0,0.45724754166666665,31.81,89.09999999999998,4.837760416666666,61.424750711744856
1361788819.25,0.4562332083333333,31.81,89.11166666069332,5.184192708333334,61.424750711744856
1361788819.5,0.4551655416666667,31.81,89.12333333333332,5.363385416666667,61.424750711744856
1361788819.75,0.4540445,31.81,89.13500000597332,5.735390625,61.424750711744856
1361788820.0,0.4529234166666667,31.81,89.14666666666666,6.209036458333333,61.424750711744856
1361788820.25,0.45174891666666667,31.81,89.15249999701334,6.254192708333334,61.424750711744856
1361788820.5,0.4506277916666666,31.81,89.15833333333333,6.527864583333333,61.424750711744856
1361788820.75,0.44950666666666667,31.81,89.16416666965333,6.807656250000001,61.424750711744856
1361788821.0,0.4484389166666667,31.81,89.17,6.78015625,61.424750711744856
1361788821.25,0.44747791666666664,31.81,89.16250000384,6.997942708333333,61.424750711744856
1361788821.5,0.44651691666666665,31.81,89.155,7.261979166666666,61.424750711744856
1361788821.75,0.4455559166666667,31.81,89.14749999616001,7.141796875,61.424750711744856
1361788822.0,0.4446483333333333,31.81,89.14,7.148880208333334,61.424750711744856
1361788822.25,0.4437941666666667,31.81,89.12333334186667,7.238046874999999,61.424750711744856
1361788822.5,0.44304675,31.81,89.10666666666665,7.0584375,61.424750711744856
1361788822.75,0.44229929166666665,31.81,89.08999999146666,6.821041666666667,61.424750711744856
1361788823.0,0.4414984583333333,31.81,89.07333333333332,6.802552083333334,61.424750711744856
1361788823.25,0.44069766666666665,31.81,89.04666668031999,6.740468750000001,61.424750711744856
1361788823.5,0.43984350000000005,31.81,89.01999999999998,6.4179427083333325,61.424750711744856
1361788823.75,0.439096125,31.81,88.99333331967999,6.2925,61.424750711744856
1361788824.0,0.43834875,31.81,88.96666666666665,6.216979166666667,61.424750711744856
1361788824.25,0.4374412083333334,31.81,88.93500001621332,5.705729166666667,61.424750711744856
1361788824.5,0.43653366666666665,31.81,88.90333333333332,5.301953125,61.43186195706722
1361788824.75,0.4356795,31.81,88.87166665045332,4.942083333333334,61.44811623208978
1361788825.0,0.43482533333333334,31.81,88.83999999999999,4.139609375,61.464370507112356
1361788825.25,0.43402454166666665,31.81,88.80333335210666,3.462552083333333,61.48062478213492
1361788825.5,0.433277125,31.81,88.76666666666665,3.1489062499999996,61.496879057157464
1361788825.75,0.43263650000000003,31.81,88.72999998122665,2.782239583333333,61.513133332180026
1361788826.0,0.4321026666666667,31.81,88.69333333333333,2.1186979166666666,61.52938760720259
1361788826.25,0.4316755833333333,31.81,88.65416668672,1.7640885416666665,61.54576864273386
1361788826.5,0.43146204166666663,31.81,88.61500000000001,1.3914322916666666,61.56252995979131
1361788826.75,0.4314086666666667,31.81,88.57583331328,0.5035416666666667,61.57916451634003
1361788827.0,0.4315154583333333,31.81,88.53666666666668,0.20223958333333328,61.59668639644979
1361788827.25,0.4317824166666666,31.81,88.49916668586667,0.2956770833333333,61.61471531859442
1361788827.5,0.43215612500000006,31.81,88.46166666666667,0.10247395833333334,61.62423862982077
1361788827.75,0.43252983333333334,31.810833333333335,88.42416664746666,0.42947916666666663,61.62423862982077
1361788828.0,0.43290354166666667,31.8125,88.38666666666666,1.0157291666666668,61.62487243236436
1361788828.25,0.433223875,31.814166666666665,88.35083335168,1.3052604166666668,61.626647079486446
1361788828.5,0.43354420833333335,31.81583333333333,88.315,1.688932291666667,61.62690060050389
1361788828.75,0.43381116666666664,31.8175,88.27916664832,1.854140625,61.62690060050389
1361788829.0,0.4339713333333333,31.819166666666664,88.24333333333334,2.2019531249999997,61.62728088203004
1361788829.25,0.43413150000000006,31.82083333333333,88.20583335253333,2.672421875,61.62715412152133
1361788829.5,0.43413145833333333,31.822499999999994,88.16833333333332,3.161979166666667,61.626647079486446
1361788829.75,0.43397125,31.824166666666667,88.13083331413333,4.1157031250000005,61.62626679796029
1361788830.0,0.4337576666666667,31.825833333333332,88.09333333333332,4.639244791666667,61.61788794755072
1361788830.25,0.43354408333333333,31.8275,88.05416668672,4.837447916666667,61.59985902540608
1361788830.5,0.433117,31.829166666666666,88.01499999999999,5.393619791666667,61.58322446885737
1361788830.75,0.43252979166666666,31.83,87.97583331327999,5.684114583333334,61.566970193834806
1361788831.0,0.43188916666666666,31.83,87.93666666666667,5.956822916666667,61.55008211626865
1361788831.25,0.4312485,31.83,87.89916668586667,6.386875,61.53205319412401
1361788831.5,0.43060783333333336,31.83,87.86166666666668,6.492760416666666,61.515545398084015
1361788831.75,0.4300205416666667,31.83,87.82416664746667,6.603619791666667,61.49929112306145
1361788832.0,0.42954004166666665,31.83,87.78666666666668,6.847109375,61.48265656651273
1361788832.25,0.4290061666666667,31.83,87.75333335040001,6.708749999999999,61.46640229149017
1361788832.5,0.42847233333333334,31.83,87.72000000000001,6.282135416666667,61.45014801646761
1361788832.75,0.4279385,31.83,87.68666664960001,5.836119791666667,61.43389374144505
1361788833.0,0.42740466666666665,31.83,87.65333333333335,5.522265624999999,61.424750711744856
1361788833.25,0.4267640833333333,31.83,87.62416668160002,5.486458333333334,61.439989094578515
1361788833.5,0.42617687500000007,31.83,87.59500000000001,5.16015625,61.456243369601076
1361788833.75,0.42574979166666665,31.83,87.56583331840001,4.804739583333333,61.47249764462362
1361788834.0,0.42537612500000005,31.83,87.53666666666668,4.51828125,61.488751919646184
1361788834.25,0.42505587499999997,31.83,87.51000001365334,4.159921875,61.505006194668745
1361788834.5,0.424735625,31.83,87.48333333333335,4.112838541666667,61.521260469691306
1361788834.75,0.424415375,31.83,87.45666665301334,4.329088541666667,61.53751474471387
1361788835.0,0.4240417083333334,31.83,87.43,4.225520833333333,61.55376901973643
1361788835.25,0.4237214166666667,31.83,87.40416667989334,4.297187500000001,61.57002329475899
1361788835.5,0.4234010833333333,31.83,87.37833333333333,4.671432291666666,61.58627756978155
1361788835.75,0.42308075,31.83,87.35249998677334,4.851015625,61.602531844804105
1361788836.0,0.42270704166666667,31.83,87.32666666666667,4.941276041666666,61.61878611982667
1361788836.25,0.4223867083333333,31.83,87.29666668202667,4.9867187500000005,61.61980201201558
1361788836.5,0.422173125,31.83,87.26666666666667,5.090885416666667,61.61980201201558
1361788836.75,0.4219595416666666,31.83,87.23666665130666,5.2615364583333335,61.61980201201558
1361788837.0,0.42174595833333334,31.83,87.20666666666666,5.772395833333333,61.61980201201558
1361788837.25,0.421532375,31.83,87.17250001749333,6.397057291666666,61.61980201201558
1361788837.5,0.4213187916666667,31.83,87.13833333333334,6.663723958333333,61.62068933557662
1361788837.75,0.42099845833333327,31.83,87.10416664917334,6.844687499999999,61.62233722218998
1361788838.0,0.4206247916666666,31.83,87.07000000000001,7.126145833333333,61.624365390329494
1361788838.25,0.420251125,31.83,87.03083335338667,7.5990625,61.626393558469005
1361788838.5,0.4198774583333333,31.83,86.99166666666667,8.356848958333334,61.628421726608515
1361788838.75,0.4195037916666666,31.83083333333333,86.95249997994668,9.145546875,61.64697687480048
1361788839.0,0.4190767083333333,31.832499999999996,86.91333333333334,10.094427083333334,61.671766828619525
1361788839.25,0.41854287500000004,31.834166666666665,86.87250002090667,11.164010416666668,61.69554705276099
1361788839.5,0.41795566666666667,31.835833333333337,86.83166666666668,11.935625,61.722557892216464
1361788839.75,0.4173150833333334,31.837499999999995,86.79083331242667,11.953463541666666,61.747768497160116
1361788840.0,0.4166745,31.839166666666667,86.75,11.347526041666667,61.76936066975917
1361788840.25,0.41603391666666667,31.840833333333336,86.70250002432,10.439817708333335,61.79326725014463
1361788840.5,0.41539333333333334,31.8425,86.655,9.615963541666668,61.81363533216853
1361788840.75,0.4148595,31.843333333333334,86.60749997568,8.979479166666668,61.833831946147505
1361788841.0,0.41448579166666666,31.843333333333334,86.56,8.601979166666666,61.84947899491602
1361788841.25,0.414325625,31.843333333333334,86.50750002688001,7.88140625,61.86234422437238
1361788841.5,0.41437904166666667,31.843333333333334,86.45500000000001,6.7059375,61.88300197982583
1361788841.75,0.41443245833333336,31.8425,86.40249997312,5.888072916666666,61.88363700557078
1361788842.0,0.41464604166666663,31.840833333333336,86.35000000000001,4.733802083333334,61.876143529402555
1361788842.25,0.41501974999999997,31.839166666666667,86.29166669653334,3.3145052083333337,61.856290195655
1361788842.5,0.41544683333333327,31.837499999999995,86.23333333333335,2.4962760416666665,61.833924651149175
1361788842.75,0.4159272916666667,31.835833333333337,86.17499997013334,2.1596354166666667,61.809640390683846
1361788843.0,0.41640775,31.834166666666665,86.11666666666667,2.1094270833333337,61.782085829252566
1361788843.25,0.4168348333333333,31.832499999999996,86.05666669738667,2.4531510416666666,61.75208993234218
1361788843.5,0.4172619166666667,31.83083333333333,85.99666666666667,3.2602864583333333,61.72474521023232
1361788843.75,0.41768900000000003,31.829166666666662,85.93666663594666,3.8630989583333335,61.69681139311507
1361788844.0,0.4180627083333333,31.827499999999997,85.87666666666667,3.931796875,61.6730468596821
1361788844.25,0.41822287500000005,31.825833333333332,85.81500003157333,4.100234374999999,61.65282485934793
1361788844.5,0.41822287500000005,31.824166666666667,85.75333333333333,4.558697916666667,61.62616314171297
1361788844.75,0.41822287500000005,31.822499999999994,85.69166663509333,4.764375,61.6038853160986
1361788845.0,0.41811608333333333,31.82083333333333,85.63,5.129973958333333,61.5853186617984
1361788845.25,0.4180627083333333,31.819166666666664,85.567500032,5.540364583333333,61.580713689664776
1361788845.5,0.4180093333333334,31.8175,85.505,5.6429687500000005,61.57386888540217
1361788845.75,0.4180093333333333,31.816666666666663,85.44249996799999,6.060859375,61.57272912551594
1361788846.0,0.4180627083333333,31.816666666666663,85.38,6.3491406249999995,61.585406671432416
1361788846.25,0.41816945833333335,31.816666666666666,85.31666669909333,6.003619791666666,61.59711342568665
1361788846.5,0.4183295833333333,31.816666666666666,85.25333333333333,4.90484375,61.610044509900455
1361788846.75,0.41848970833333327,31.8175,85.18999996757333,4.335520833333333,61.623861569482074
1361788847.0,0.41864983333333333,31.819166666666664,85.12666666666667,4.33125,61.641642646314175
1361788847.25,0.41880995833333334,31.820833333333336,85.06416669866667,4.555859375,61.659802088987895
1361788847.5,0.41897008333333335,31.8225,85.00166666666667,4.4555468750000005,61.66466107013904
1361788847.75,0.4190234583333334,31.823333333333334,84.93916663466666,4.165807291666667,61.661659405291594
1361788848.0,0.41913025000000004,31.823333333333334,84.87666666666667,4.036484375,61.656840265416044
1361788848.25,0.41913025000000004,31.823333333333334,84.8183333632,3.944114583333334,61.651429030630815
1361788848.5,0.4190768333333333,31.823333333333334,84.75999999999999,3.780208333333333,61.64673428435097
1361788848.75,0.41891662500000004,31.82166666666667,84.7016666368,3.490989583333333,61.640858383233954
1361788849.0,0.41870304166666666,31.81833333333333,84.64333333333333,3.323307291666667,61.62805390962478
1361788849.25,0.41848945833333334,31.814999999999998,84.59000002730666,3.7408333333333332,61.61634715537054
1361788849.5,0.418169125,31.811666666666664,84.53666666666666,4.675651041666667,61.603416071156744
1361788849.75,0.4177420416666667,31.808333333333334,84.48333330602667,4.928177083333334,61.58959901157511
1361788850.0,0.41726158333333335,31.805000000000003,84.42999999999999,4.873125,61.571817934743024
1361788850.25,0.416781125,31.801666666666662,84.37333336234666,4.613567708333334,61.55289777828268
1361788850.5,0.41630066666666665,31.798333333333332,84.31666666666666,4.54390625,61.545925274648596
1361788850.75,0.4158735833333333,31.796666666666667,84.25999997098667,4.579635416666667,61.54592527464859
1361788851.0,0.4153397083333333,31.796666666666667,84.20333333333333,4.473177083333334,61.54592527464859
1361788851.25,0.4148057916666666,31.796666666666667,84.1366667008,4.420963541666667,61.545925274648596
1361788851.5,0.41432529166666665,31.796666666666663,84.07,4.554713541666667,61.54673021371647
1361788851.75,0.41384483333333333,31.797499999999996,84.0033332992,4.8060937500000005,61.54673021371647
1361788852.0,0.41331100000000004,31.799166666666665,83.93666666666667,5.05796875,61.54673021371647
1361788852.25,0.41277716666666664,31.80083333333333,83.86166670506667,5.112369791666667,61.54673021371647
1361788852.5,0.4122967083333333,31.8025,83.78666666666666,5.037109375,61.54673021371647
1361788852.75,0.411869625,31.80333333333333,83.71166662826667,5.1586718750000005,61.54673021371647
1361788853.0,0.41138916666666664,31.80333333333333,83.63666666666667,5.305338541666667,61.54673021371647
1361788853.25,0.41085533333333335,31.80333333333333,83.56000003925334,5.406067708333333,61.54673021371647
1361788853.5,0.41021470833333334,31.80333333333333,83.48333333333333,5.488411458333332,61.54673021371647
1361788853.75,0.4095206666666667,31.8025,83.40666662741333,5.4804947916666675,61.55065721384468
1361788854.0,0.4089334166666667,31.80083333333333,83.33,5.4109375,61.55483695440176
1361788854.25,0.40834620833333335,31.799166666666665,83.25833337002666,5.398177083333334,61.5773780985887
1361788854.5,0.407705625,31.797499999999996,83.18666666666667,5.283619791666667,61.60623604451399
1361788854.75,0.40711841666666665,31.795833333333334,83.11499996330667,4.906901041666667,61.6361042093826
1361788855.0,0.4065845833333334,31.79416666666667,83.04333333333334,4.4816666666666665,61.67647926421524
1361788855.25,0.40605074999999996,31.7925,82.97583336789333,4.079166666666667,61.718533990027396
1361788855.5,0.4055169166666666,31.790833333333335,82.90833333333333,3.683958333333333,61.76016879809467
1361788855.75,0.4050364583333333,31.79,82.84083329877333,3.325130208333333,61.7927289909866
1361788856.0,0.40471612500000004,31.79,82.77333333333333,2.959140625,61.820321229890105
1361788856.25,0.40455595833333335,31.79,82.71083336533333,2.577786458333333,61.84985394852242
1361788856.5,0.40471612500000004,31.79,82.64833333333333,2.2297395833333336,61.86580330905297
1361788856.75,0.4050364583333333,31.79,82.58583330133332,2.0343229166666665,61.868509255315054
1361788857.0,0.4054101666666667,31.79,82.52333333333333,1.8902343750000001,61.8822325148947
1361788857.25,0.405944,31.79,82.46166669824,1.7396354166666665,61.88328877450857
1361788857.5,0.406638,31.79,82.4,1.6490624999999997,61.89295759468408
1361788857.75,0.40749216666666666,31.789166666666663,82.33833330176,1.8476302083333334,61.903590271123164
1361788858.0,0.4085064583333333,31.787499999999998,82.27666666666667,2.1709895833333333,61.89585861412181
1361788858.25,0.409574125,31.785833333333333,82.22666669226668,2.591614583333333,61.874742715534715
1361788858.5,0.41069520833333334,31.784166666666664,82.17666666666668,2.920364583333333,61.85733665718504
1361788858.75,0.4119230833333334,31.781666666666666,82.12666664106666,3.1972916666666666,61.84369589192574
1361788859.0,0.4131509583333333,31.778333333333332,82.07666666666667,3.531380208333333,61.82666359954072
1361788859.25,0.41443220833333333,31.774999999999995,82.03833335296,4.019322916666667,61.795945685874905
1361788859.5,0.41566008333333343,31.771666666666665,82.0,4.549114583333333,61.7757630823829
1361788859.75,0.4168879583333333,31.76833333333333,81.96166664704,5.138072916666666,61.76125375557146
1361788860.0,0.4180624583333333,31.764999999999997,81.92333333333333,5.740468749999999,61.73085347188074
1361788860.25,0.4192903333333333,31.761666666666667,81.90000001194666,6.100052083333332,61.69030234484694
1361788860.5,0.4205181666666667,31.75833333333333,81.87666666666667,6.1573697916666665,61.6318923629222
1361788860.75,0.4215858333333333,31.75583333333333,81.85333332138667,5.796953124999999,61.569723765258146
1361788861.0,0.422493375,31.754166666666663,81.83,5.539244791666666,61.518089421869114
1361788861.25,0.42340095833333335,31.752499999999998,81.81166667605333,5.220104166666666,61.478159649086315
1361788861.5,0.42446866666666666,31.750833333333333,81.79333333333332,4.847161458333333,61.43345283670064
1361788861.75,0.42558970833333337,31.75,81.77499999061332,4.509140625,61.39554246351025
1361788862.0,0.42671079166666664,31.75,81.75666666666666,4.196041666666666,61.36599157143403
1361788862.25,0.42772512500000004,31.75,81.74416667306666,3.679140625,61.348185820909784
1361788862.5,0.42857929166666664,31.75,81.73166666666665,2.99203125,61.32734696616919
1361788862.75,0.4294334583333334,31.75,81.71916666026667,2.1488802083333334,61.30057973397328
1361788863.0,0.43028762500000006,31.75,81.70666666666666,1.53015625,61.2784334049102
1361788863.25,0.4310884166666667,31.75,81.69666667178666,1.1733854166666666,61.26142438379526
1361788863.5,0.43178245833333334,31.75,81.68666666666667,0.9473697916666667,61.255515274500944
1361788863.75,0.4324765,31.75,81.67666666154668,1.2531770833333333,61.25432558081268
1361788864.0,0.43306379166666664,31.75,81.66666666666667,0.9831770833333332,61.24956680605958
1361788864.25,0.43354425,31.75,81.6583333376,0.533125,61.245232978452215
1361788864.5,0.43370437500000003,31.75,81.65,0.5903906250000001,61.24259874152805
1361788864.75,0.433651,31.749166666666667,81.6416666624,0.8494791666666668,61.23307388889099
1361788865.0,0.4334374583333333,31.747500000000002,81.63333333333333,0.8514583333333334,61.2215064314465
1361788865.25,0.43317049999999996,31.745833333333337,81.62166667263999,1.0908593750000002,61.21508547990536
1361788865.5,0.43290354166666667,31.74416666666667,81.60999999999999,1.7284375,61.261919803930205
1361788865.75,0.43258320833333336,31.74166666666667,81.59833332736,2.33390625,61.325675103707745
1361788866.0,0.43226287499999994,31.738333333333333,81.58666666666666,1.9564843749999998,61.38437580686326
1361788866.25,0.43183579166666664,31.735000000000003,81.57166667434666,1.594479166666667,61.438942312900814
1361788866.5,0.4315155,31.73166666666667,81.55666666666666,2.280494791666667,61.48099884894511
1361788866.75,0.431942625,31.728333333333335,81.54166665898666,3.6327083333333334,61.51505336787074
1361788867.0,0.43311712500000005,31.725000000000005,81.52666666666666,5.814140625,61.542396704618234
1361788867.25,0.4343984166666666,31.721666666666668,81.50333334528,8.465989583333334,61.56254207372913
1361788867.5,0.43583987499999993,31.718333333333334,81.47999999999999,9.405598958333334,61.57115938961198
1361788867.75,0.4374414583333333,31.715833333333336,81.45666665472,8.793567708333333,61.57452171543173
1361788868.0,0.4393633333333334,31.714166666666667,81.43333333333334,8.37609375,61.57733290416683
1361788868.25,0.44149875000000005,31.712500000000002,81.39333335381333,7.864609375,61.57589092798182
1361788868.5,0.44368754166666663,31.710833333333337,81.35333333333332,6.91328125,61.52650910753235
1361788868.75,0.44592974999999996,31.71083333333333,81.31333331285333,6.240833333333334,61.469267345683356
1361788869.0,0.448332125,31.712500000000002,81.27333333333333,7.183697916666667,61.41695256031591
1361788869.25,0.45084125,31.714166666666667,81.21666669567999,7.988125,61.36821872393776
1361788869.5,0.45329695833333333,31.715833333333336,81.16,7.547187500000001,61.3234415779018
1361788869.75,0.4551120416666667,31.7175,81.10333330432,6.291067708333333,61.28373157391087
1361788870.0,0.45639329166666665,31.719166666666666,81.04666666666667,4.424869791666667,61.2516250223643
1361788870.25,0.45783470833333334,31.720833333333335,80.97666670250666,2.15421875,61.226291491308594
1361788870.5,0.4593829166666667,31.7225,80.90666666666667,1.3148958333333336,61.21227353990807
1361788870.75,0.460824375,31.724166666666665,80.83666663082667,2.08484375,61.21686204400883
1361788871.0,0.46205229166666667,31.725833333333338,80.76666666666667,3.1669010416666663,61.23690045799097
1361788871.25,0.4630666666666667,31.727499999999996,80.6958333696,3.937890625,61.25799604771052
1361788871.5,0.46402766666666667,31.729166666666668,80.625,4.983802083333333,61.27608569491668
1361788871.75,0.46493524999999997,31.73,80.5541666304,6.070859375,61.29947431779801
1361788872.0,0.46562925000000005,31.73,80.48333333333333,6.37515625,61.318243886342266
