timestamp,EDA,TEMP,HR,BVP,ACC_mag
1361798154.0,1.9548552500000003,31.07,,10.933854166666668,63.752409665470005
1361798154.25,2.029512357142857,31.07,,10.93375,63.759624041406745
1361798154.5,2.08614575,31.07,,11.259921875,63.763626872013404
1361798154.75,2.130638333333333,31.07222222222222,,11.797604166666666,63.75998644816329
1361798155.0,2.1664886500000002,31.076,,11.953031249999999,63.74745492511077
1361798155.25,2.196053681818182,31.079090909090908,,11.77494318181818,63.750893263410646
1361798155.5,2.220691208333333,31.081666666666667,,11.278723958333332,63.756860906173195
1361798155.75,2.3119809166666667,31.084999999999997,,11.184453125,63.766424455579944
1361798156.0,2.3850099166666667,31.088333333333335,,11.160911458333333,63.77193559908775
1361798156.25,2.4381219583333333,31.09166666666667,,10.59140625,63.7744271988492
1361798156.5,2.4713170416666665,31.095,,9.029817708333335,63.74711291808089
1361798156.75,2.4888488333333334,31.099166666666665,,8.065052083333333,63.72297416142601
1361798157.0,2.490663916666666,31.104166666666668,,8.20015625,63.7209275321506
1361798157.25,2.492545375,31.109166666666667,,7.804322916666667,63.71994780019244
1361798157.5,2.4939997916666665,31.114166666666666,,6.6171614583333325,63.708577033748206
1361798157.75,2.4951209166666666,31.117500000000003,,4.426223958333333,63.70395552554376
1361798158.0,2.4968826666666666,31.11916666666667,,2.4408854166666667,63.705018390554386
1361798158.25,2.5008866249999997,31.120833333333334,,1.2786979166666665,63.65919109213649
1361798158.5,2.508680958333333,31.1225,,0.22296874999999994,63.59163980495024
1361798158.75,2.5200520833333333,31.123333333333335,,0.15070312499999994,63.52853350695171
1361798159.0,2.533932333333333,31.123333333333335,,-0.03924479166666669,63.46260653691971
1361798159.25,2.550375125,31.12333333333333,,-0.6319791666666666,63.39957507925558
1361798159.5,2.5685796666666665,31.12333333333333,,-0.8418749999999999,63.363319139414614
1361798159.75,2.5870510833333333,31.1225,,-1.7049739583333334,63.31638789103955
1361798160.0,2.607337583333333,31.120833333333334,,-3.4484635416666674,63.23776644018241
1361798160.25,2.6314678750000002,31.11916666666666,,-4.996276041666667,63.117970820447816
1361798160.5,2.659602083333333,31.117499999999996,,-6.158489583333334,62.98066633028463
1361798160.75,2.6902597500000005,31.11583333333333,,-5.4883072916666675,62.83053634768305
1361798161.0,2.720771625,31.114166666666666,,-4.462447916666667,62.6762949732173
1361798161.25,2.74882775,31.112499999999997,,-4.665885416666667,62.55078632887876
1361798161.5,2.7730935,31.110833333333332,,-4.448203125,62.44288690942138
1361798161.75,2.793622291666667,31.110833333333332,,-5.517994791666666,62.33197150471535
1361798162.0,2.811641958333334,31.112499999999997,,-6.867630208333334,62.2221893601015
1361798162.25,2.8270990833333336,31.114166666666666,,-7.476354166666667,62.09633589788115
1361798162.5,2.8401004583333336,31.11583333333333,,-7.821953125,61.96653083559591
1361798162.75,2.851073166666667,31.11833333333333,,-7.508984375000001,61.84222030646695
1361798163.0,2.8585224166666667,31.121666666666666,,-7.227239583333333,61.731795917824535
1361798163.25,2.86057975,31.125,,-6.866536458333333,61.6583326123241
1361798163.5,2.857085,31.128333333333334,,-6.064348958333333,61.61366548078823
1361798163.75,2.849999041666667,31.131666666666664,,-6.37375,61.58030934658194
1361798164.0,2.8412437500000003,31.134999999999994,85.0,-7.245963541666668,61.55339621766844
1361798164.25,2.8316877083333334,31.138333333333335,86.22916603733333,-7.272421875,61.53221713157989
1361798164.5,2.821491041666667,31.141666666666666,87.45833333333334,-7.556614583333334,61.513829315429454
1361798164.75,2.8106003333333334,31.145,88.68750062933334,-7.575911458333334,61.49417088006691
1361798165.0,2.7991757916666664,31.14833333333333,89.91666666666667,-7.399140625,61.47890767656648
1361798165.25,2.786790333333333,31.151666666666667,91.145832704,-7.550807291666666,61.48360533953041
1361798165.5,2.774084541666667,31.155,92.375,-7.6163541666666665,61.497565557841206
1361798165.75,2.7600975,31.157500000000002,93.604167296,-7.919427083333333,61.51317339770943
1361798166.0,2.744989375,31.159166666666664,94.83333333333333,-7.722708333333333,61.53215838503409
1361798166.25,2.73126925,31.160833333333333,95.38333305173333,-7.2878125,61.55561637379292
1361798166.5,2.719097291666667,31.162499999999998,95.93333333333334,-7.365885416666667,61.581477183041606
1361798166.75,2.7076194166666667,31.16416666666667,96.48333361493334,-7.136015625,61.60311952027596
1361798167.0,2.6968355833333333,31.165833333333335,97.03333333333335,-6.376588541666666,61.62859821990288
1361798167.25,2.686678,31.1675,96.26250039466667,-6.297083333333333,61.65942903315153
1361798167.5,2.6773355416666664,31.16916666666667,95.49166666666667,-6.115312499999999,61.68590933980786
1361798167.75,2.668687125,31.17,94.72083293866667,-4.7156770833333335,61.72556753316034
1361798168.0,2.660504833333333,31.17,93.95,-2.9564583333333334,61.766811187786196
1361798168.25,2.6525360416666666,31.17,93.06583378602667,-1.5423697916666665,61.813939259096294
1361798168.5,2.6449552916666668,31.17,92.18166666666667,-0.4600520833333334,61.83947601287057
1361798168.75,2.6395490416666667,31.17,91.29749954730667,1.0111979166666665,61.875746767571314
1361798169.0,2.632793833333333,31.17,90.41333333333334,2.2496875,61.914596668978135
1361798169.25,2.618991708333333,31.17,90.09250016426667,2.805442708333333,61.98647522022855
1361798169.5,2.60113225,31.17,89.77166666666668,3.0365625,62.0470485040604
1361798169.75,2.5822584583333335,31.17,89.45083316906667,2.79234375,62.10351778196078
1361798170.0,2.563704958333333,31.17,89.13,2.249036458333333,62.153852832214106
1361798170.25,2.545325958333333,31.17,88.81083349674667,2.5536197916666663,62.18475066654785
1361798170.5,2.526772458333333,31.17,88.49166666666667,3.8053125,62.219517386178275
1361798170.75,2.5082189583333334,31.169166666666666,88.17249983658667,3.4009895833333332,62.23374957959928
1361798171.0,2.4906407083333333,31.167500000000004,87.85333333333334,2.7160156250000003,62.24977577822659
1361798171.25,2.474236958333333,31.165833333333335,87.58333347157334,2.9419270833333333,62.24470455044089
1361798171.5,2.4584594999999996,31.16416666666667,87.31333333333335,2.81671875,62.23679325659407
1361798171.75,2.4441377916666664,31.15833333333333,87.04333319509335,2.643776041666667,62.21881950409237
1361798172.0,2.4363968333333332,31.148333333333337,86.77333333333335,2.09765625,62.19631840080447
1361798172.25,2.438639,31.138333333333335,86.57416676864001,2.5824479166666667,62.12102131285652
1361798172.5,2.4477679583333334,31.128333333333334,86.37500000000001,4.635026041666666,62.05378314454362
1361798172.75,2.46047375,31.11833333333333,86.17583323136002,5.974973958333333,61.99161711789247
1361798173.0,2.4751548333333333,31.108333333333334,85.97666666666667,7.609557291666667,61.93520979676086
1361798173.25,2.4928788749999997,31.098333333333333,85.85166673066668,9.982604166666667,61.89807631917961
1361798173.5,2.5131120416666666,31.088333333333335,85.72666666666667,10.915364583333336,61.85993982329641
1361798173.75,2.533505375,31.07916666666667,85.60166660266667,12.634427083333334,61.83855880894808
1361798174.0,2.5529911666666667,31.070833333333336,85.47666666666667,14.2653125,61.80709513821441
1361798174.25,2.572049875,31.0625,85.41583336448001,14.593776041666667,61.79554227022811
1361798174.5,2.5911085833333334,31.054166666666664,85.355,16.210078125,61.808119530257805
1361798174.75,2.6093664999999997,31.049166666666668,85.29416663552,16.580677083333335,61.81989055683118
1361798175.0,2.625061916666667,31.0475,85.23333333333333,17.99924479166667,61.82863605857344
1361798175.25,2.6368601666666667,31.045833333333334,85.22083333973333,19.513098958333334,61.859682398153154
1361798175.5,2.644814625,31.044166666666666,85.20833333333333,18.6221875,61.90380982896889
1361798175.75,2.6499396250000005,31.042500000000004,85.19583332693333,19.241848958333332,61.95620311655145
1361798176.0,2.6524487083333335,31.040833333333335,85.18333333333332,19.738203125000002,62.01207227540846
1361798176.25,2.6511140416666668,31.03916666666667,85.1916666624,17.853880208333333,62.063543738604345
1361798176.5,2.6467364166666667,31.037499999999998,85.19999999999999,16.571432291666664,62.122642404260205
1361798176.75,2.641824916666667,31.035833333333333,85.20833333759998,15.724010416666667,62.18892930973134
1361798177.0,2.6366464583333333,31.034166666666664,85.21666666666665,15.090598958333333,62.26177048810951
1361798177.25,2.6313612500000003,31.032500000000002,85.23416665770665,15.215390625,62.328182822679025
1361798177.5,2.6259159166666666,31.030833333333334,85.25166666666665,13.01,62.395116436490675
1361798177.75,2.620363791666667,31.03,85.26916667562665,12.2365625,62.469115868083456
1361798178.0,2.61475825,31.03,85.28666666666665,11.070989583333331,62.55538053895871
1361798178.25,2.6100602916666666,31.03,85.31333331967998,7.529635416666667,62.634930050583456
1361798178.5,2.6062699166666667,31.03,85.33999999999999,6.376848958333333,62.701664518916886
1361798178.75,2.6030667916666665,31.03,85.36666668032,4.726458333333333,62.75957570890961
1361798179.0,2.600184,31.03,85.39333333333333,2.1831770833333333,62.804387738687744
1361798179.25,2.5978350833333335,31.03,85.42166665216,2.2025520833333334,62.84111309306186
1361798179.5,2.5956462916666667,31.03,85.44999999999999,1.2489843750000003,62.865606828264454
1361798179.75,2.593831208333333,31.03,85.47833334783999,-1.186692708333333,62.87548863471397
1361798180.0,2.5922830833333332,31.03,85.50666666666666,-3.49734375,62.88130146462033
1361798180.25,2.590841708333333,31.03,85.53666665130666,-5.216484374999999,62.87901432180889
1361798180.5,2.589560458333333,31.03,85.56666666666666,-4.507499999999999,62.86211209589845
1361798180.75,2.588386,31.03,85.59666668202667,-4.334296875,62.83209758388309
1361798181.0,2.5879055833333333,31.03,85.62666666666667,-4.704505208333333,62.789539549446395
1361798181.25,2.5901478333333334,31.03,85.65333331968,-2.725130208333333,62.74664995213379
1361798181.5,2.596073666666667,31.03,85.68,-2.152005208333333,62.7041719526297
1361798181.75,2.6058432083333334,31.03,85.70666668032,-1.3371354166666665,62.66228954240537
1361798182.0,2.6189760000000004,31.03,85.73333333333333,0.373046875,62.62106472311442
1361798182.25,2.634351,31.03,85.76166665216,0.46015625,62.59243067730506
1361798182.5,2.651167416666667,31.03,85.78999999999999,1.8741666666666665,62.569357374151814
1361798182.75,2.667983833333334,31.031666666666666,85.81833334783998,3.9603645833333334,62.54182653102376
1361798183.0,2.6848002500000003,31.035,85.84666666666665,5.631276041666666,62.521035557081696
1361798183.25,2.7016166666666668,31.03833333333333,85.87583331839998,7.336171875000001,62.507143342540246
1361798183.5,2.7184330833333337,31.041666666666668,85.90499999999999,7.415911458333333,62.49906717747282
1361798183.75,2.7352495,31.045,85.93416668159999,8.331640625,62.49785982534687
1361798184.0,2.7509982083333337,31.048333333333336,85.96333333333332,10.0640625,62.49810956170359
1361798184.25,2.762849791666667,31.051666666666666,85.99749998250667,10.1471875,62.49773338927309
1361798184.5,2.7697898750000003,31.055000000000003,86.03166666666667,11.657135416666668,62.4856821203989
1361798184.75,2.771604958333333,31.058333333333334,86.06583335082667,12.749062499999999,62.489098397378626
1361798185.0,2.769362791666667,31.061666666666667,86.10000000000001,13.049973958333332,62.51145413909774
1361798185.25,2.76402425,31.064999999999998,86.13916664661333,13.138229166666669,62.53660459979568
1361798185.5,2.7567104583333335,31.06833333333333,86.17833333333334,11.881614583333333,62.56569020059109
1361798185.75,2.748595875,31.07,86.21750002005334,11.93859375,62.60399446126184
1361798186.0,2.7382924583333335,31.07,86.25666666666666,12.863489583333333,62.64020094974578
1361798186.25,2.7248392916666666,31.07,86.29583331328,11.642473958333333,62.675574184857595
1361798186.5,2.709784583333333,31.07,86.33500000000001,11.564244791666667,62.71136471984116
1361798186.75,2.6944629583333337,31.07,86.37416668672,10.654557291666668,62.744947075376494
1361798187.0,2.6791947083333336,31.07,86.41333333333334,7.787031249999999,62.77886247666138
1361798187.25,2.664780583333333,31.07,86.45249997994668,6.491692708333333,62.815636738120055
1361798187.5,2.651007125,31.07,86.49166666666667,3.4991145833333337,62.88303843685039
1361798187.75,2.6379810833333335,31.07,86.53083335338667,-0.8528125000000002,62.93962457195505
1361798188.0,2.625595625,31.07,86.57000000000001,-3.2125520833333336,62.98281512533163
1361798188.25,2.613477083333333,31.07,86.60583331498667,-4.050963541666667,63.02853054071128
1361798188.5,2.6009848333333334,31.07,86.64166666666667,-3.888307291666667,63.07111582047528
1361798188.75,2.589186625,31.07,86.67750001834666,-5.2189322916666665,63.120706960008825
1361798189.0,2.5794170833333334,31.07,86.71333333333332,-7.902994791666667,63.1485609165851
1361798189.25,2.572797291666667,31.07,86.74416665087999,-8.432838541666667,63.19067325707982
1361798189.5,2.5677256666666666,31.07,86.77499999999999,-8.917317708333334,63.235043170824014
1361798189.75,2.562920958333333,31.070833333333336,86.80583334912,-9.469531250000001,63.29755010781554
1361798190.0,2.5584899583333334,31.0725,86.83666666666666,-8.217838541666667,63.38259183604267
1361798190.25,2.5547529583333337,31.07416666666667,86.85666665642667,-7.7687760416666665,63.45782498956181
1361798190.5,2.5517099583333334,31.075833333333335,86.87666666666667,-6.969427083333334,63.498217699954374
1361798190.75,2.549307625,31.077499999999997,86.89666667690666,-4.254218750000001,63.53090843363262
1361798191.0,2.547279,31.079166666666666,86.91666666666667,-2.839088541666666,63.56752769469089
1361798191.25,2.5461045416666668,31.08083333333333,86.92666666154668,-2.5590104166666667,63.58362335257803
1361798191.5,2.5462113333333334,31.0825,86.93666666666667,-2.1465104166666666,63.59220548837172
1361798191.75,2.546424875,31.084999999999997,86.94666667178666,-1.1794010416666667,63.59451245478408
1361798192.0,2.5468519583333333,31.088333333333335,86.95666666666666,0.4751302083333333,63.61689865487066
1361798192.25,2.5472790416666666,31.09166666666667,86.95749999957333,1.2421354166666667,63.622606747980086
1361798192.5,2.5479196666666666,31.095000000000002,86.95833333333333,0.3323958333333333,63.62088601699174
1361798192.75,2.5486137083333333,31.097499999999997,86.95916666709333,-0.059765625000000024,63.5989773480514
1361798193.0,2.549467875,31.099166666666665,86.96,-0.30692708333333335,63.551494631100915
1361798193.25,2.550375416666667,31.10083333333333,86.94916667221332,-0.6822916666666666,63.507151662206155
1361798193.5,2.5515499166666666,31.102500000000003,86.93833333333333,0.3222395833333333,63.47989189813552
1361798193.75,2.55325825,31.105,86.92749999445334,0.8996354166666666,63.46094343004584
1361798194.0,2.556087666666667,31.108333333333334,86.91666666666667,1.0588541666666667,63.4339982857467
1361798194.25,2.560999125,31.111666666666668,86.90166667434667,1.5908854166666666,63.41395386522888
1361798194.5,2.569540791666667,31.115,86.88666666666668,1.11203125,63.392121403667666
1361798194.75,2.581072041666667,31.117500000000003,86.87166665898668,0.06914062499999994,63.36541004962504
1361798195.0,2.594098125,31.11916666666667,86.85666666666668,-0.09408854166666676,63.326779952443644
1361798195.25,2.608031791666667,31.120833333333334,86.84000000853335,-0.3561458333333334,63.28509222033417
1361798195.5,2.622018833333333,31.1225,86.82333333333335,1.6613802083333333,63.31518144295244
1361798195.75,2.63744725,31.124166666666667,86.80666665813334,3.2042187499999994,63.36836121600111
1361798196.0,2.6574134583333335,31.125833333333333,86.79,3.7066145833333333,63.40575274852373
1361798196.25,2.684319791666667,31.127499999999998,86.78000000512,5.569947916666667,63.666443836610576
1361798196.5,2.7203159583333334,31.129166666666663,86.77000000000001,6.402421874999999,63.95493471264678
1361798196.75,2.764014,31.13,86.75999999488,6.488515624999999,64.13548284822214
1361798197.0,2.811555875,31.13,86.75,6.06609375,64.48307958441988
1361798197.25,2.871643333333333,31.13,86.74333333674666,4.154583333333334,64.9457658823251
1361798197.5,2.9449263333333335,31.13,86.73666666666665,3.2501041666666666,65.51192628379768
1361798197.75,3.0245181666666667,31.13083333333333,86.72999999658666,2.991223958333333,65.94824712570694
1361798198.0,3.1025617916666666,31.132499999999997,86.72333333333331,1.679270833333333,66.42055212707247
1361798198.25,3.184929625,31.134166666666662,86.72000000170665,0.7785677083333332,66.9049116519919
1361798198.5,3.2700735,31.135833333333334,86.71666666666665,-0.6641927083333333,67.24193218396432
1361798198.75,3.353722583333333,31.138333333333332,86.71333333162666,-2.491432291666667,67.45841848592494
1361798199.0,3.4326737499999997,31.141666666666666,86.71,-4.40875,67.72675739435452
1361798199.25,3.5043111249999996,31.145,86.70666666837333,-9.172578125,67.70863923967202
1361798199.5,3.5599184999999998,31.148333333333337,86.70333333333333,-14.382968749999998,67.43558097446669
1361798199.75,3.602004958333333,31.153333333333336,86.69999999829334,-19.113072916666667,67.27115479146734
1361798200.0,3.633787958333333,31.16,86.69666666666667,-20.005156250000002,66.94002269188447
1361798200.25,3.6466191249999995,31.166666666666668,86.69333333504001,-14.756067708333333,66.46743716358785
1361798200.5,3.6426245416666663,31.173333333333336,86.69,-9.105755208333333,65.87713824043348
1361798200.75,3.629331541666667,31.179166666666664,86.68666666496,-7.58859375,65.4323446858853
1361798201.0,3.62223125,31.18416666666667,86.68333333333334,-7.014062499999999,64.96681344217077
1361798201.25,3.6098991666666667,31.18916666666667,86.68000000170667,-5.506744791666666,64.50002400369569
1361798201.5,3.5945774999999998,31.194166666666664,86.67666666666668,-5.780833333333334,64.11445509286555
1361798201.75,3.5792558333333333,31.198333333333338,86.67333333162667,-4.494791666666666,63.898725184218044
1361798202.0,3.5710344166666665,31.201666666666668,86.67,-1.7235677083333332,63.67323376227622
1361798202.25,3.574931541666667,31.205,86.66833333418667,3.5745052083333335,63.509644390894884
1361798202.5,3.601944666666667,31.208333333333332,86.66666666666667,8.44078125,63.61985491631142
1361798202.75,3.6596869583333334,31.21,86.66499999914667,13.037239583333331,63.74513111956197
1361798203.0,3.743419583333333,31.21,86.66333333333334,14.11828125,63.93641018277234
1361798203.25,3.8345852916666665,31.21,86.66333333333334,10.231614583333332,64.2548124552914
1361798203.5,3.925751,31.21,86.66333333333334,5.951458333333334,64.60280628299131
1361798203.75,4.016916708333333,31.21,86.66333333333334,5.853880208333333,64.91561801506431
1361798204.0,4.101889708333333,31.21,86.66333333333334,5.960755208333333,65.2359203905119
1361798204.25,4.187343208333333,31.21,86.66666666496,4.839036458333333,65.69551168910468
1361798204.5,4.272796708333334,31.21,86.67,6.940234374999999,66.211320597224
1361798204.75,4.358250208333334,31.21,86.67333333504,7.124479166666667,66.59702188926171
1361798205.0,4.4321724583333335,31.21,86.67666666666666,6.85546875,66.9485918756358
1361798205.25,4.487676666666666,31.21,86.68416666282667,5.638567708333333,67.20406973654916
1361798205.5,4.5218265833333335,31.21,86.69166666666666,5.1628125,67.35102239357322
1361798205.75,4.526955666666667,31.212500000000002,86.69916667050666,5.938567708333334,67.50274455016738
1361798206.0,4.4995364166666665,31.2175,86.70666666666666,6.574375,67.6371963609064
1361798206.25,4.445625416666666,31.2225,86.72083332608,6.736041666666666,67.6778253747444
1361798206.5,4.3709381249999995,31.227500000000003,86.73499999999999,6.808776041666666,67.73413483798872
1361798206.75,4.296250833333334,31.233333333333334,86.74916667391999,6.46046875,67.78323136828608
1361798207.0,4.221563541666667,31.24,86.76333333333332,7.599609375,67.86165377315561
1361798207.25,4.14639575,31.24666666666667,86.78249999018665,9.492838541666666,67.76096566958917
1361798207.5,4.071227958333333,31.25333333333333,86.80166666666665,9.189557291666667,67.5581610961603
1361798207.75,4.008166208333333,31.26,86.82083334314666,9.52296875,67.42775292405643
1361798208.0,3.9694900416666665,31.266666666666666,86.83999999999999,8.968515625,67.29037172065759
1361798208.25,3.935511791666667,31.27333333333333,86.86083332266666,8.829088541666666,67.29855096611662
1361798208.5,3.9064450416666663,31.28,86.88166666666666,8.527239583333333,67.44258894083262
1361798208.75,3.88090175,31.285,86.90250001066666,6.69109375,67.58690173960686
1361798209.0,3.867201625,31.28833333333333,86.92333333333333,5.6441406249999995,67.65534535740028
1361798209.25,3.876884375,31.291666666666668,86.93666665984,4.847447916666667,67.71648988076727
1361798209.5,3.9073434166666665,31.295,86.95,3.7197135416666662,67.7457235195272
1361798209.75,3.9340654583333325,31.297499999999996,86.96333334016,3.709296875,67.8165475831114
1361798210.0,3.957797916666666,31.299166666666665,86.97666666666667,2.944713541666667,67.79960084449279
1361798210.25,3.975924875,31.30083333333333,86.98249999701333,0.6633072916666666,67.72214136641234
1361798210.5,3.986097375,31.302499999999995,86.98833333333334,-1.858385416666667,67.67624141504125
1361798210.75,3.9831495416666662,31.304166666666664,86.99416666965334,-4.157265625,67.60332261471639
1361798211.0,3.960247125,31.30583333333333,87.0,-5.760572916666667,67.6275034296013
1361798211.25,3.938946291666666,31.3075,87.00499999744,-9.005442708333334,67.6671014126531
1361798211.5,3.9176454583333338,31.309166666666666,87.00999999999999,-12.07578125,67.54756317823991
1361798211.75,3.896344625,31.31,87.01500000256,-12.595546874999998,67.24493762118394
1361798212.0,3.8750437916666667,31.31,87.02,-12.03875,66.92249032387276
1361798212.25,3.8582273333333332,31.31,87.02999999488,-9.085494791666667,66.53432153718428
1361798212.5,3.8475502083333333,31.31,87.03999999999999,-8.202734375,66.13341791400394
1361798212.75,3.8476035833333335,31.31,87.05000000512,-9.028411458333332,65.66239670443748
1361798213.0,3.8608965833333335,31.31,87.06,-9.941249999999998,65.3494685003449
1361798213.25,3.891486541666666,31.31,87.07416665941334,-9.491640625,65.36796520097586
1361798213.5,3.933821333333333,31.31,87.08833333333334,-9.275625,65.38258235428371
1361798213.75,3.9771704166666666,31.31,87.10250000725334,-9.228541666666667,65.23173331313616
1361798214.0,4.0205195,31.31,87.11666666666667,-9.425677083333333,64.96411938154303
1361798214.25,4.063868583333334,31.31,87.13083332608001,-7.633177083333333,64.66788698354891
1361798214.5,4.107217666666666,31.31,87.14500000000001,-5.534244791666667,64.43695352257602
1361798214.75,4.150566749999999,31.31,87.15916667392,-5.436666666666667,64.33959770700324
1361798215.0,4.188417125,31.31,87.17333333333333,-7.129036458333332,64.31793924545123
1361798215.25,4.216231,31.31,87.18333332821334,-10.6815625,64.36772320128073
1361798215.5,4.234488874999999,31.31,87.19333333333333,-11.296328125,64.43865025646684
1361798215.75,4.24132225,31.31,87.20333333845332,-11.56125,64.5669252747866
1361798216.0,4.2339550416666665,31.31,87.21333333333332,-10.530546875,64.58172904799652
1361798216.25,4.212494041666667,31.31,87.21916666368,-10.194739583333332,64.3531374134417
1361798216.5,4.185267375,31.31,87.225,-7.966770833333334,64.14694790743867
1361798216.75,4.156385749999999,31.31,87.23083333631999,-5.411927083333333,64.12576648394578
1361798217.0,4.12558225,31.31,87.23666666666666,-3.119453125,64.14209107677321
1361798217.25,4.092643333333333,31.31,87.22666667178666,-1.297604166666667,64.12370363257357
1361798217.5,4.057889333333333,31.31,87.21666666666667,0.6254947916666663,64.1270143748544
1361798217.75,4.021480375,31.31,87.20666666154666,2.500026041666666,64.15766911596086
1361798218.0,3.989182083333333,31.31,87.19666666666666,5.345468749999999,64.16010372046121
1361798218.25,3.961955458333333,31.31,87.17833334272,8.255104166666667,64.14998137317578
1361798218.5,3.9379319583333334,31.31,87.16,10.04375,64.14234491767662
1361798218.75,3.9183394583333335,31.309166666666666,87.14166665728,11.720052083333334,64.12510636186796
1361798219.0,3.9026975000000004,31.3075,87.12333333333333,11.441041666666665,64.0792126110967
1361798219.25,3.8894578749999997,31.30583333333333,87.09916667904,12.1090625,63.98775902861245
1361798219.5,3.8781935416666666,31.304166666666664,87.07499999999999,10.800494791666665,63.880394763475316
1361798219.75,3.8687977083333336,31.3025,87.05083332096,8.782838541666665,63.716525758577795
1361798220.0,3.862177916666667,31.30083333333333,87.02666666666666,6.949088541666666,63.555978787062436
1361798220.25,3.8608432916666664,31.299166666666665,87.005833344,5.365755208333333,63.49235153243392
1361798220.5,3.86506075,31.297499999999996,86.98499999999999,3.4625,63.4845030151127
1361798220.75,3.874670125,31.295833333333334,86.96416665599999,1.253255208333333,63.514430301386064
1361798221.0,3.885667541666667,31.29416666666667,86.94333333333333,-1.7171614583333337,63.59853559587507
1361798221.25,3.897145416666667,31.2925,86.92083334485334,-5.038333333333333,63.70936671637238
1361798221.5,3.9088368333333334,31.290833333333335,86.89833333333334,-7.578020833333333,63.85911545037346
1361798221.75,3.9205282500000003,31.29,86.87583332181333,-9.500286458333333,64.03631929972032
1361798222.0,3.9322196666666667,31.29,86.85333333333334,-9.961796875,64.26097445276748
1361798222.25,3.942095958333334,31.29,86.83250001066666,-11.6465625,64.52184406895181
1361798222.5,3.9430568750000003,31.29,86.81166666666667,-12.194088541666666,64.77374906865735
1361798222.75,3.937237833333334,31.289166666666663,86.79083332266667,-12.045703125000001,65.06137296093614
1361798223.0,3.9285359583333332,31.287499999999998,86.77,-12.699296875,65.35213168395995
1361798223.25,3.9153497083333337,31.285833333333333,86.75416667477333,-14.093906250000002,65.54321362502675
1361798223.5,3.8949030000000007,31.284166666666668,86.73833333333333,-15.8215625,65.68791766987655
1361798223.75,3.8679966666666665,31.2825,86.72249999189333,-15.915182291666667,65.82689579263992
1361798224.0,3.84044975,31.280833333333334,86.70666666666666,-13.707005208333333,65.88553220228609
1361798224.25,3.8124223333333336,31.27916666666667,86.61500004693333,-10.77515625,65.92841585534414
1361798224.5,3.7836475000000003,31.2775,86.52333333333333,-10.66046875,65.90733110817834
1361798224.75,3.7514559999999997,31.275833333333328,86.43166661973332,-10.939166666666665,65.93985971469269
1361798225.0,3.715313958333333,31.27416666666667,86.33999999999999,-10.889947916666666,65.99048992719881
1361798225.25,3.6797057916666667,31.272499999999997,86.25250004479999,-7.90515625,66.2863243914439
1361798225.5,3.6530129999999996,31.270833333333332,86.16499999999999,-6.124192708333333,66.48612419166304
1361798225.75,3.6326940000000003,31.270833333333332,86.07749995520001,-4.885937500000001,66.841253696464
1361798226.0,3.6142225833333335,31.272499999999997,85.99000000000001,-3.0421093750000003,67.21188980170596
1361798226.25,3.5960180833333335,31.274166666666662,85.95083335338667,0.08945312499999958,67.6626661745663
1361798226.5,3.579062375,31.275833333333335,85.91166666666666,5.042916666666666,67.89185346461227
1361798226.75,3.562661458333334,31.2775,85.87249997994667,7.552395833333332,67.93918565650606
1361798227.0,3.546207125,31.279166666666665,85.83333333333333,7.412630208333333,68.01952373214728
1361798227.25,3.5302332916666668,31.280833333333334,85.88583330645334,6.231276041666667,68.2237273001932
1361798227.5,3.5150068750000005,31.2825,85.93833333333333,8.531979166666666,68.35875672582141
1361798227.75,3.5033038750000003,31.284166666666668,85.99083336021333,11.190963541666667,68.28010315322707
1361798228.0,3.4958717499999996,31.28583333333333,86.04333333333334,12.076380208333333,68.2395523322141
1361798228.25,3.4904148749999995,31.287499999999998,86.11666662912,9.048385416666667,67.92303514322091
1361798228.5,3.4849580000000002,31.28916666666667,86.19,6.571223958333333,67.72809367853506
1361798228.75,3.4796937499999996,31.29,86.26333337087999,6.398203124999999,67.29668566448417
1361798229.0,3.47407675,31.29,86.33666666666666,7.131927083333333,66.72565717428381
1361798229.25,3.4695274583333333,31.29,86.38833330688,6.610442708333333,66.02679607112104
1361798229.5,3.4672528333333332,31.29,86.44,3.7378385416666666,65.5032189429909
1361798229.75,3.467146083333333,31.28916666666667,86.49166669312,2.1774999999999998,65.11641446877212
1361798230.0,3.467733333333334,31.287499999999998,86.54333333333334,1.2328385416666665,64.71191761202576
1361798230.25,3.46800025,31.28583333333333,86.61333329749333,0.6585937499999998,64.1768654580592
1361798230.5,3.469334875,31.284166666666668,86.68333333333334,-1.0506770833333337,63.75422018513557
1361798230.75,3.4705627499999996,31.2825,86.75333336917333,-3.0647395833333335,63.46962822352514
1361798231.0,3.4714702916666673,31.280833333333334,86.82333333333332,-3.4416927083333335,63.11010862838268
1361798231.25,3.4716838333333335,31.27916666666667,86.89583329621333,-1.8539062500000003,62.79957036444177
1361798231.5,3.4718973749999997,31.2775,86.96833333333333,0.09833333333333309,62.48193538388687
1361798231.75,3.472110916666667,31.275833333333335,87.04083337045334,-0.015963541666666917,62.2620729013342
1361798232.0,3.4753674166666664,31.27416666666667,87.11333333333334,-0.8366666666666669,62.15999318514691
1361798232.25,3.481453333333334,31.272499999999997,87.18666662912001,-1.2015364583333337,62.114635710759835
1361798232.5,3.4888205000000005,31.270833333333332,87.26000000000002,-0.6833072916666669,62.10384446538216
1361798232.75,3.4961876666666662,31.269166666666663,87.33333337088001,0.3354166666666664,62.10548498502908
1361798233.0,3.5035548333333337,31.2675,87.40666666666668,1.393880208333333,62.11938311254212
1361798233.25,3.5112423333333336,31.265833333333333,87.47583329792,2.829817708333333,62.13681449457783
1361798233.5,3.517862125,31.264166666666664,87.54500000000002,3.9461979166666663,62.13329394677883
1361798233.75,3.524481916666667,31.2625,87.61416670208001,5.245182291666667,62.13052768345289
1361798234.0,3.5302475833333333,31.260833333333334,87.68333333333334,5.6944791666666665,62.13052944878134
1361798234.25,3.534518458333334,31.259166666666662,87.74833330005333,5.5820572916666675,62.12864322471254
1361798234.5,3.537401291666667,31.257499999999997,87.81333333333333,5.402604166666666,62.12851746992845
1361798234.75,3.538735916666667,31.25583333333333,87.87833336661333,5.281588541666667,62.12738567687162
1361798235.0,3.5366538750000003,31.254166666666663,87.94333333333333,5.14375,62.12612812903068
1361798235.25,3.530834875,31.252499999999998,88.00999996586665,5.222786458333333,62.12285904195357
1361798235.5,3.522720291666667,31.250833333333333,88.07666666666665,5.332239583333333,62.12093058002648
1361798235.75,3.513804916666667,31.25,88.14333336746667,5.0359375,62.116907208476306
1361798236.0,3.5038218333333333,31.25,88.21,4.791901041666667,62.12017440868295
1361798236.25,3.4931447500000004,31.25,88.28083329706666,4.1234375000000005,62.12754820428777
1361798236.5,3.482040583333333,31.25,88.35166666666666,3.754947916666667,62.13492199989258
1361798236.75,3.470936416666666,31.25,88.42250003626667,3.504583333333333,62.142295795497404
1361798237.0,3.460686375,31.25,88.49333333333334,3.002161458333333,62.149669591102224
1361798237.25,3.4519311249999998,31.25,88.56749996202667,2.9445833333333336,62.157043386707045
1361798237.5,3.4443503750000004,31.25,88.64166666666668,2.720989583333333,62.164417182311865
1361798237.75,3.438317833333334,31.250833333333333,88.71583337130667,2.55109375,62.17179097791668
1361798238.0,3.4331928333333335,31.2525,88.79,2.867109375,62.1791647735215
1361798238.25,3.4292422916666667,31.254166666666666,88.85666663253333,2.5144531249999997,62.18653856912632
1361798238.5,3.4264128333333335,31.25583333333333,88.92333333333335,2.597265625,62.19206891582993
1361798238.75,3.4243841666666666,31.257500000000004,88.99000003413335,2.7814322916666665,62.19944271143475
1361798239.0,3.423636791666667,31.25916666666667,89.05666666666667,3.0196875,62.20128616033595
1361798239.25,3.4235834166666663,31.260833333333334,89.11916663466667,3.500989583333333,62.20128616033595
1361798239.5,3.424063916666667,31.262500000000003,89.18166666666667,4.889322916666666,62.20128616033595
1361798239.75,3.424544416666667,31.264166666666668,89.24416669866666,5.615546875,62.20128616033595
1361798240.0,3.4250249166666666,31.265833333333333,89.30666666666666,7.21734375,62.20128616033595
1361798240.25,3.4255054166666667,31.267500000000002,89.36583330303999,9.313229166666666,62.20128616033595
1361798240.5,3.426199458333333,31.269166666666667,89.425,10.649270833333333,62.20128616033595
1361798240.75,3.4268935000000003,31.270833333333332,89.48416669696,13.134401041666665,62.20128616033595
1361798241.0,3.4274807499999995,31.272499999999997,89.54333333333334,14.270208333333331,62.20128616033595
1361798241.25,3.4276942916666666,31.27416666666667,89.59999997098667,15.87140625,62.20128616033595
1361798241.5,3.427801083333333,31.275833333333335,89.65666666666667,17.626848958333333,62.20128616033595
1361798241.75,3.4279078750000003,31.2775,89.71333336234666,18.124140625,62.20128616033595
1361798242.0,3.427801083333333,31.27916666666667,89.77,19.09328125,62.19923205416092
1361798242.25,3.427640916666667,31.280833333333334,89.82666663765333,20.452083333333334,62.183128505067536
1361798242.5,3.4271070416666665,31.2825,89.88333333333333,19.790234375,62.165010397476784
1361798242.75,3.425879125,31.284999999999997,89.94000002901333,20.08244791666667,62.14689228988604
1361798243.0,3.4239571666666664,31.28833333333333,89.99666666666667,20.290755208333334,62.12877418229528
1361798243.25,3.42155475,31.29166666666666,90.05416663722667,18.699739583333333,62.10573631603452
1361798243.5,3.418778625,31.294999999999998,90.11166666666668,18.848463541666664,62.07887197080819
1361798243.75,3.415682208333333,31.2975,90.16916669610667,17.65375,62.052007625581844
1361798244.0,3.412212125,31.299166666666665,90.22666666666667,16.777473958333335,62.02514328035551
1361798244.25,3.4085284999999996,31.30083333333333,90.28416663722668,16.687942708333335,61.99827893512917
1361798244.5,3.4047915,31.3025,90.34166666666667,15.042369791666667,61.972507869607284
1361798244.75,3.4010544999999994,31.304166666666664,90.39916669610666,14.878932291666667,61.96072710673022
1361798245.0,3.3973174999999998,31.305833333333336,90.45666666666666,14.427630208333333,61.95955517732813
1361798245.25,3.3936338750000004,31.3075,90.50583330815999,12.465703125,61.97565872642152
1361798245.5,3.3902171666666665,31.309166666666666,90.55499999999999,12.555833333333332,61.993776834012266
1361798245.75,3.3875478749999997,31.31083333333333,90.60416669183999,11.950260416666666,62.01189494160301
1361798246.0,3.385572625,31.3125,90.65333333333332,10.622786458333332,62.03001304919378
1361798246.25,3.384077833333334,31.314166666666665,90.69166664704,10.727682291666667,62.05305091545454
1361798246.5,3.3829567500000004,31.315833333333334,90.72999999999999,9.764713541666667,62.07991526068088
1361798246.75,3.382155958333333,31.3175,90.76833335296,9.240026041666667,62.106779605907214
1361798247.0,3.3819424166666665,31.319166666666664,90.80666666666667,9.2403125,62.13364395113354
1361798247.25,3.382156,31.32083333333333,90.83666665130667,8.19453125,62.160508296359886
1361798247.5,3.3824763333333334,31.3225,90.86666666666667,8.994453125,62.18535763743117
1361798247.75,3.3828500416666665,31.324166666666667,90.89666668202666,9.776640625,62.19290630964247
1361798248.0,3.3832771250000007,31.325833333333332,90.92666666666666,9.732083333333334,62.1828000074701
1361798248.25,3.3839177499999997,31.327499999999997,90.95249998677333,10.352500000000001,62.161402060766
1361798248.5,3.3848787083333334,31.329166666666666,90.97833333333332,8.670104166666667,62.13701835604192
1361798248.75,3.3860532083333337,31.33083333333333,91.00416667989332,8.430364583333334,62.109474111981534
1361798249.0,3.3872810833333333,31.3325,91.02999999999999,9.056822916666667,62.06287391404908
1361798249.25,3.3887225,31.334166666666665,91.05916665173332,8.984140625,62.017706476758434
1361798249.5,3.39048425,31.33583333333333,91.08833333333332,9.374973958333333,61.976255416885216
1361798249.75,3.392352791666667,31.337500000000002,91.11750001493333,8.692890625,61.940121509675855
1361798250.0,3.394167916666666,31.339166666666667,91.14666666666666,8.990442708333333,61.91005734886153
1361798250.25,3.39587625,31.340833333333336,91.18583331328,9.386458333333334,61.87948750857214
1361798250.5,3.398545541666667,31.3425,91.225,6.6394270833333335,61.8457939569328
1361798250.75,3.4026028333333334,31.344166666666666,91.26416668672,3.2152604166666667,61.811364341449554
1361798251.0,3.40660675,31.345833333333335,91.30333333333334,1.8115625,61.78527570814353
1361798251.25,3.4103971250000007,31.3475,91.35749997226667,1.1260677083333333,61.767252683792115
1361798251.5,3.4141874583333336,31.349166666666665,91.41166666666666,2.655546875,61.75196232915852
1361798251.75,3.4178710416666664,31.35,91.46583336106667,2.3550520833333333,61.739832513861245
1361798252.0,3.4216614166666672,31.35,91.52,1.3369270833333333,61.74675865243601
1361798252.25,3.4254517916666667,31.35,91.58416663381333,0.8452083333333333,61.752252030368986
1361798252.5,3.4289218333333333,31.35,91.64833333333333,-0.11981770833333333,61.75402903088452
1361798252.75,3.4323918333333334,31.35,91.71250003285333,0.320859375,61.75048887873621
1361798253.0,3.4358084583333337,31.35,91.77666666666666,-0.41304687499999987,61.74087898019287
1361798253.25,3.4399725,31.35,91.8433332992,-0.848046875,61.731774761124576
1361798253.5,3.4449373333333333,31.35,91.91,1.6022395833333334,61.72671597785685
1361798253.75,3.4495818750000002,31.350833333333338,91.9766667008,4.394739583333333,61.720004649581746
1361798254.0,3.45476025,31.352500000000003,92.04333333333334,6.507317708333333,61.71856957381209
1361798254.25,3.4602055833333334,31.35416666666667,92.10749996714667,8.356953125,61.71531942417868
1361798254.5,3.4658645,31.355833333333337,92.17166666666667,9.025182291666665,61.70945151283163
1361798254.75,3.4717903333333333,31.356666666666666,92.23583336618667,10.073828125,61.70278064626376
1361798255.0,3.4776093749999997,31.35666666666667,92.3,10.643489583333333,61.69467383830365
1361798255.25,3.4832148750000003,31.35666666666667,92.36083330218666,11.287265625000002,61.68682051799635
1361798255.5,3.488820375,31.35666666666667,92.42166666666667,12.150130208333335,61.68572311502058
1361798255.75,3.4943725000000003,31.3575,92.48250003114667,12.409973958333333,61.69442193516918
1361798256.0,3.500084791666667,31.359166666666667,92.54333333333334,12.822890625,61.69880592714671
1361798256.25,3.5050496666666664,31.360833333333336,92.6016666368,12.572734375000001,61.709242036777376
1361798256.5,3.50803925,31.3625,92.66,12.05140625,61.73811648461494
1361798256.75,3.5098543749999997,31.363333333333333,92.71833336319999,11.578411458333335,61.784816174951395
1361798257.0,3.5110822916666664,31.363333333333333,92.77666666666666,9.972447916666665,61.798996622848136
1361798257.25,3.5119364999999996,31.363333333333333,92.82833330688,8.757994791666667,61.8045661741994
1361798257.5,3.5118831250000007,31.363333333333333,92.88,7.815182291666666,61.812079159510525
1361798257.75,3.511082333333334,31.364166666666666,92.93166669312,7.446822916666666,61.82064818834463
1361798258.0,3.510121375,31.36583333333333,92.98333333333333,7.6659895833333325,61.84024077215485
1361798258.25,3.508840083333333,31.367499999999996,93.02833331029333,7.131041666666666,61.857936517504164
1361798258.5,3.5067580416666666,31.36916666666667,93.07333333333334,6.952213541666666,61.859160464631024
1361798258.75,3.503982,31.37,93.11833335637334,5.941875,61.850461644482415
1361798259.0,3.5009923750000005,31.37,93.16333333333334,5.2278125,61.84569772083379
1361798259.25,3.4979493750000006,31.37,93.20083331413333,5.8581770833333335,61.83146229449216
1361798259.5,3.494692875,31.37,93.23833333333334,5.497630208333333,61.79650893991706
1361798259.75,3.4910626666666666,31.37,93.27583335253334,5.689739583333334,61.74942931790952
1361798260.0,3.487218875,31.37,93.31333333333333,6.268880208333335,61.73035195074272
1361798260.25,3.4831615416666666,31.37,93.34749998250666,5.555104166666667,61.72170055398518
1361798260.5,3.4791576249999996,31.37,93.38166666666666,5.938411458333333,61.71384982945715
1361798260.75,3.475207083333333,31.37,93.41583335082666,5.571848958333333,61.70587276045337
1361798261.0,3.471256541666667,31.37,93.44999999999999,5.226770833333333,61.68729412725444
1361798261.25,3.467306041666667,31.37,93.48333331626665,6.123072916666666,61.66562438109393
1361798261.5,3.4636758333333333,31.37,93.51666666666665,6.170651041666666,61.651344818758105
1361798261.75,3.4603125416666667,31.37,93.55000001706667,7.6163541666666665,61.63714949692524
1361798262.0,3.4570026666666664,31.37,93.58333333333333,9.040598958333334,61.62333410676348
1361798262.25,3.4537461666666665,31.37,93.61083331925333,9.052552083333333,61.61293810164159
1361798262.5,3.450863333333333,31.37,93.63833333333332,10.395859374999999,61.60482168654627
1361798262.75,3.4484075833333336,31.37,93.66583334741333,10.763229166666667,61.596705271450936
1361798263.0,3.4463789583333337,31.37,93.69333333333333,10.656875,61.58846191190568
1361798263.25,3.44483075,31.37,93.71583332181334,12.268958333333332,61.58043010410657
1361798263.5,3.4450976250000003,31.37,93.73833333333334,12.288828125,61.57265195107818
1361798263.75,3.4480338333333336,31.37,93.76083334485334,12.684635416666666,61.56487396516769
1361798264.0,3.454546875,31.37,93.78333333333335,13.358229166666666,61.55840605540522
1361798264.25,3.465544291666667,31.37,93.79583332693335,13.005494791666665,61.55663030576431
1361798264.5,3.4793711666666667,31.37,93.80833333333334,13.052421875,61.56608549953853
1361798264.75,3.4967215,31.37,93.82083333973333,12.831432291666667,61.606447875424834
1361798265.0,3.517702041666667,31.37,93.83333333333333,11.999895833333333,61.67102010610828
1361798265.25,3.5388961250000004,31.37,93.84083332949334,11.687421874999998,61.734665302795435
1361798265.5,3.5600902083333335,31.37,93.84833333333333,10.620781249999999,61.7634310640336
1361798265.75,3.5812842916666665,31.36916666666667,93.85583333717334,9.865755208333333,61.82582408689959
1361798266.0,3.602318208333333,31.367500000000003,93.86333333333334,9.671484375,61.902083990234125
1361798266.25,3.623192,31.36583333333333,93.8591666688,8.231927083333334,61.965775662169705
1361798266.5,3.6425710000000002,31.364166666666666,93.85499999999999,7.678177083333334,62.02633149595521
1361798266.75,3.6575723750000004,31.363333333333333,93.8508333312,7.074895833333333,62.07556957956695
1361798267.0,3.66696825,31.363333333333333,93.84666666666665,5.857343750000001,62.11476965042993
1361798267.25,3.6709187916666663,31.363333333333333,93.83500000597331,4.394791666666667,62.171376251891616
1361798267.5,3.6712390833333335,31.363333333333333,93.82333333333332,3.6378645833333327,62.20586233091603
1361798267.75,3.667608833333333,31.363333333333333,93.81166666069333,2.23359375,62.185893220898414
1361798268.0,3.6598679166666663,31.363333333333333,93.8,1.6604427083333333,62.1344612347871
1361798268.25,3.6513795833333336,31.363333333333333,93.78583334058666,1.9914062499999998,62.085011359932814
1361798268.5,3.6427311250000005,31.36333333333333,93.77166666666668,1.7231249999999998,62.070440920527496
1361798268.75,3.6340292916666663,31.364166666666666,93.75749999274667,3.245130208333333,62.02224321949438
1361798269.0,3.6251138750000003,31.36583333333333,93.74333333333334,5.45015625,61.960305582442636
1361798269.25,3.616091666666667,31.367499999999996,93.73500000426667,7.850390625,61.910724625043706
1361798269.5,3.607016083333333,31.36916666666667,93.72666666666666,9.748854166666666,61.86415259485054
1361798269.75,3.599809,31.37,93.71833332906667,11.961041666666667,61.828771403886826
1361798270.0,3.5945772083333334,31.37,93.71,14.578020833333333,61.803132100135144
1361798270.25,3.590626666666667,31.37,93.70750000128,18.165026041666668,61.75637157827534
1361798270.5,3.587957375,31.37,93.705,20.270651041666667,61.720504416923916
1361798270.75,3.5855550416666673,31.37,93.70249999872,22.657708333333332,61.70822756615055
1361798271.0,3.5828857500000004,31.37,93.7,24.860130208333334,61.70320373667372
1361798271.25,3.580376625,31.37,93.69416666965333,25.483046875,61.69712482993618
1361798271.5,3.5773336249999996,31.37,93.68833333333333,26.773880208333335,61.69104592319865
1361798271.75,3.5738101666666666,31.37,93.68249999701334,26.517083333333336,61.68496701646111
1361798272.0,3.5701265833333338,31.37,93.67666666666666,25.41390625,61.678888109723566
1361798272.25,3.5659625416666665,31.37,93.66583333887999,24.322526041666666,61.67280920298604
1361798272.5,3.56121125,31.37,93.655,22.69658854166667,61.66706812422736
1361798272.75,3.555926083333333,31.37,93.64416666112,19.788984375000002,61.66293147875805
1361798273.0,3.5501070833333337,31.37,93.63333333333333,17.316822916666666,61.662509443394725
1361798273.25,3.543754208333333,31.37,93.61416667648,14.535729166666664,61.666266434552234
1361798273.5,3.537081,31.37,93.595,12.002265625,61.67234534128978
1361798273.75,3.5307280833333334,31.37,93.57583332351999,10.082109375,61.67842424802732
1361798274.0,3.525069208333333,31.37,93.55666666666666,7.122838541666666,61.684503154764855
1361798274.25,3.5197840416666666,31.37,93.53333334527998,4.730546875,61.6905820615024
1361798274.5,3.5151928750000003,31.37,93.50999999999999,2.3705208333333334,61.69205968449455
1361798274.75,3.5111355416666665,31.37,93.48666665472,-0.7225781250000001,61.69205968449455
1361798275.0,3.5074519166666662,31.37,93.46333333333332,-3.921744791666667,61.69205968449455
1361798275.25,3.504355541666667,31.37,93.43833334613332,-6.705078125,61.692059684494545
1361798275.5,3.5018997916666668,31.37,93.41333333333333,-8.893385416666666,61.69172185651568
1361798275.75,3.5000846666666665,31.370833333333337,93.38833332053333,-9.592526041666668,61.68977959524745
1361798276.0,3.4989635416666665,31.372500000000002,93.36333333333333,-10.576432291666666,61.68412272387325
1361798276.25,3.4983762916666667,31.374166666666667,93.34500000938667,-12.444036458333334,61.678043817135716
1361798276.5,3.4981093750000003,31.375833333333336,93.32666666666667,-13.186119791666668,61.671964910398174
1361798276.75,3.4980026250000003,31.3775,93.30833332394667,-13.89203125,61.66588600366063
1361798277.0,3.49794925,31.379166666666666,93.29,-13.395312500000001,61.659807096923096
1361798277.25,3.4977357083333334,31.38083333333333,93.28166667093333,-12.366380208333332,61.653728190185554
1361798277.5,3.4973620000000003,31.382500000000004,93.27333333333334,-11.420651041666666,61.652250567193406
1361798277.75,3.496668,31.38416666666667,93.26499999573333,-9.37671875,61.652250567193406
1361798278.0,3.495440166666667,31.385833333333334,93.25666666666666,-7.094296875,61.652250567193406
1361798278.25,3.4939987916666664,31.3875,93.25916666538666,-5.751744791666667,61.652250567193406
1361798278.5,3.492290458333333,31.389166666666668,93.26166666666666,-3.9440104166666665,61.652250567193406
1361798278.75,3.490528708333333,31.39,93.26416666794667,-2.58328125,61.652250567193406
1361798279.0,3.488766958333333,31.39,93.26666666666667,-1.7038020833333334,61.653432965119435
1361798279.25,3.487005208333333,31.39,93.27499999573334,0.5236458333333333,61.656135588950356
1361798279.5,3.485243458333333,31.39,93.28333333333333,2.015364583333333,61.65883821278129
1361798279.75,3.483641875,31.39,93.29166667093332,2.646796875,61.661540836612225
1361798280.0,3.482040291666667,31.39,93.3,3.0258333333333334,61.66407454645372
1361798280.25,3.480598875,31.39,93.31499999232,2.2688281249999998,61.66677717028464
1361798280.5,3.4793176249999997,31.39,93.33,1.8789322916666664,61.669479794115574
1361798280.75,3.4783566666666665,31.39,93.34500000768001,1.1869791666666665,61.67218241794651
1361798281.0,3.477822791666666,31.39,93.36000000000001,0.20132812499999977,61.6749694710231
1361798281.25,3.4773956666666663,31.39,93.38249998848,0.7530989583333332,61.68222921286867
1361798281.5,3.4772355000000004,31.39,93.405,0.5415885416666665,61.69096538083028
1361798281.75,3.4770219583333333,31.39,93.42750001152001,0.39190104166666645,61.69974371911233
1361798282.0,3.476648291666667,31.39,93.45,0.7963541666666666,61.70666477937439
1361798282.25,3.4761145,31.39,93.47666665301334,0.004401041666666501,61.70742448743548
1361798282.5,3.4752069999999997,31.39,93.50333333333333,-0.11067708333333348,61.708901677787225
1361798282.75,3.4738723749999996,31.39,93.53000001365334,0.31023437499999984,61.7098725032474
1361798283.0,3.4722708333333334,31.39,93.55666666666667,0.2512760416666665,61.71118104575583
1361798283.25,3.470349,31.39,93.58499998549334,1.8440104166666664,61.71126547500151
1361798283.5,3.4683203750000007,31.39,93.61333333333334,2.7254687499999997,61.70936506207718
1361798283.75,3.466131583333333,31.39,93.64166668117333,3.095364583333333,61.70463453702367
1361798284.0,3.46372925,31.39,93.67,4.689244791666667,61.700326558030135
1361798284.25,3.460899833333334,31.39,93.69583332010667,4.416536458333333,61.69103891496198
1361798284.5,3.4577500833333334,31.39,93.72166666666666,5.275989583333334,61.67807694019343
1361798284.75,3.454600375,31.39,93.74750001322666,6.378359375,61.66452330478443
1361798285.0,3.451504041666667,31.39,93.77333333333333,6.976927083333333,61.65337752741174
1361798285.25,3.4482474999999995,31.39,93.794166656,8.677786458333333,61.647380085316136
1361798285.5,3.4448841666666667,31.39,93.815,9.097994791666666,61.638720831988195
1361798285.75,3.441520875,31.390833333333333,93.835833344,9.28203125,61.6299338348582
1361798286.0,3.4379974166666667,31.392500000000002,93.85666666666667,10.28796875,61.62068206529643
1361798286.25,3.4344205416666664,31.394166666666667,93.86916666026667,9.869401041666666,61.61248549500798
1361798286.5,3.430790333333333,31.395833333333332,93.88166666666667,10.10953125,61.60627376688954
1361798286.75,3.4270533750000003,31.396666666666665,93.89416667306668,10.953072916666665,61.60289215090028
1361798287.0,3.423316375,31.396666666666665,93.90666666666668,10.123307291666666,61.599003559605364
1361798287.25,3.419899708333334,31.396666666666665,93.90833333248001,10.5134375,61.5956219436161
1361798287.5,3.4165364583333333,31.396666666666665,93.91000000000001,10.461354166666666,61.59443823321121
1361798287.75,3.4129062500000003,31.397499999999997,93.91166666752001,9.495,61.59380401312632
1361798288.0,3.409115875,31.39916666666667,93.91333333333334,9.144609375,61.591436815099065
1361798288.25,3.405539041666667,31.400833333333335,93.90166667264,8.319999999999999,61.58987285112141
1361798288.5,3.40217575,31.4025,93.89000000000001,8.170442708333333,61.5923243890441
1361798288.75,3.3988124583333335,31.403333333333332,93.87833332736001,9.146692708333333,61.595917010966055
1361798289.0,3.3952356249999998,31.403333333333332,93.86666666666667,9.228984375,61.60229774199357
1361798289.25,3.3914452500000003,31.403333333333336,93.84666667690668,9.596302083333333,61.61108531700169
1361798289.5,3.387761625,31.403333333333332,93.82666666666668,9.602005208333333,61.6198728920098
1361798289.75,3.3837576666666664,31.40416666666667,93.80666665642667,8.635885416666667,61.628660467017916
1361798290.0,3.3793800416666673,31.405833333333334,93.78666666666668,8.922630208333334,61.63744804202605
1361798290.25,3.3747888749999997,31.407500000000002,93.75583334912001,8.622447916666667,61.646235617034165
1361798290.5,3.3698773749999997,31.409166666666664,93.72500000000001,7.768958333333334,61.655023192042286
1361798290.75,3.364432041666667,31.41,93.69416665088,8.180989583333334,61.6638107670504
1361798291.0,3.358506208333333,31.41,93.66333333333334,7.718255208333333,61.67318903647834
1361798291.25,3.352420208333333,31.41,93.62916668416001,7.1445052083333325,61.685391723814455
1361798291.5,3.346120708333333,31.41,93.59500000000001,7.284661458333335,61.695523238191896
1361798291.75,3.339714458333333,31.41,93.56083331584001,6.020338541666668,61.70248965237448
1361798292.0,3.3333082083333334,31.41,93.52666666666669,5.173229166666667,61.7048964963551
1361798292.25,3.326635,31.41,93.48500002133335,4.8073958333333335,61.70489649635508
1361798292.5,3.318520375,31.41,93.44333333333336,4.389557291666667,61.70940928153666
1361798292.75,3.3098185416666666,31.41,93.40166664533335,5.199114583333333,61.72053907458411
1361798293.0,3.301757333333333,31.41,93.36000000000001,5.17484375,61.73482786960336
1361798293.25,3.2940698333333334,31.41,93.31583335594668,5.630911458333333,61.73189147437014
1361798293.5,3.286809416666667,31.41,93.27166666666668,6.549453125,61.69511994090016
1361798293.75,3.2802963750000003,31.41,93.22749997738667,6.0717968749999995,61.686251457006755
1361798294.0,3.274477375,31.41,93.18333333333334,5.900651041666666,61.70201273762177
1361798294.25,3.2689253333333332,31.41,93.13750002346667,5.912291666666666,61.705124834264694
1361798294.5,3.263907125,31.41,93.09166666666667,5.154088541666667,61.6945645231423
1361798294.75,3.2594761250000004,31.41,93.04583330986667,4.394947916666667,61.680410167674076
1361798295.0,3.25568575,31.41,93.0,3.59703125,61.66730772058134
1361798295.25,3.2526961666666665,31.41,92.94750002688001,2.8515885416666666,61.654839995738314
1361798295.5,3.2512013750000004,31.41,92.89500000000001,2.1165625,61.636801626466074
1361798295.75,3.2508276666666664,31.409166666666668,92.84249997312,0.7336718749999999,61.61214624932794
1361798296.0,3.2505073333333336,31.4075,92.79,-0.3271354166666667,61.58433187021802
1361798296.25,3.250240375,31.405833333333334,92.72916669781334,-1.7784375,61.57374268136058
1361798296.5,3.2501335833333336,31.40416666666667,92.66833333333334,-3.108984375,61.598638908589116
1361798296.75,3.2501869583333334,31.4025,92.60749996885333,-3.3501302083333333,61.59601291959094
1361798297.0,3.250293708333334,31.400833333333335,92.54666666666667,-3.0339322916666664,61.568166471664505
1361798297.25,3.2498666250000006,31.399166666666662,92.47666670250666,-2.593567708333333,61.5488343467714
1361798297.5,3.248852291666667,31.397500000000004,92.40666666666667,-2.1805989583333334,61.54317462964361
1361798297.75,3.2476243750000005,31.395833333333332,92.33666663082667,-0.7903385416666667,61.54380938539896
1361798298.0,3.2461829166666667,31.394166666666667,92.26666666666667,0.6365104166666665,61.54605191432166
1361798298.25,3.244527958333333,31.3925,92.1958333696,1.2681510416666664,61.54770202464277
1361798298.5,3.2427662500000003,31.390833333333333,92.125,2.606223958333333,61.55040999421151
1361798298.75,3.240791,31.390833333333333,92.0541666304,3.90453125,61.553117963780245
1361798299.0,3.2384954166666664,31.392500000000002,91.98333333333333,5.066979166666667,61.555825933348984
1361798299.25,3.2358261250000004,31.394166666666667,91.91083337045333,6.818203124999999,61.55853390291773
1361798299.5,3.2328899166666663,31.395833333333332,91.83833333333334,8.213229166666666,61.559591594637226
1361798299.75,3.229740166666667,31.397499999999997,91.76583329621334,9.127864583333333,61.56026845300689
1361798300.0,3.226270083333333,31.39916666666667,91.69333333333334,9.94,61.56094531137654
1361798300.25,3.222960125,31.400833333333335,91.61750003882668,10.210911458333333,61.56162216974621
1361798300.5,3.21986375,31.4025,91.54166666666666,10.761432291666667,61.56229902811588
1361798300.75,3.216233583333333,31.40416666666667,91.46583329450665,10.871145833333335,61.56293358283744
1361798301.0,3.2122297083333335,31.405833333333334,91.38999999999999,10.511354166666667,61.56297588648554
1361798301.25,3.208225791666667,31.407500000000002,91.31333337258665,11.039192708333331,61.56297588648554
1361798301.5,3.2036879999999996,31.409166666666664,91.23666666666665,11.034713541666667,61.56297588648554
1361798301.75,3.198990041666667,31.410833333333333,91.15999996074666,10.811692708333334,61.56297588648554
1361798302.0,3.194292125,31.412499999999998,91.08333333333333,11.170338541666666,61.56297588648554
1361798302.25,3.1895408333333335,31.41416666666667,91.0041667072,10.581927083333333,61.56327185588935
1361798302.5,3.1848962916666665,31.415833333333335,90.925,9.776223958333334,61.56800736635017
1361798302.75,3.180144958333333,31.416666666666668,90.8458332928,9.611223958333333,61.57274287681101
1361798303.0,3.17534025,31.416666666666668,90.76666666666667,8.5346875,61.57747838727186
1361798303.25,3.170749125,31.416666666666668,90.68750004053334,7.685598958333333,61.58221389773269
1361798303.5,3.1664249166666667,31.416666666666668,90.60833333333333,7.466354166666666,61.586949408193526
1361798303.75,3.162421,31.4175,90.52916662613333,6.4359375000000005,61.59168491865436
1361798304.0,3.158523875,31.41916666666667,90.45,6.478645833333332,61.5964204291152
1361798304.25,3.1545199999999998,31.420833333333334,90.37083337386667,6.3585416666666665,61.60115593957604
1361798304.5,3.1509965833333333,31.4225,90.29166666666666,5.295286458333334,61.60589145003687
1361798304.75,3.147686708333333,31.423333333333332,90.21249995946665,5.30328125,61.61062696049771
1361798305.0,3.144430208333334,31.423333333333332,90.13333333333333,4.511614583333333,61.61536247095855
1361798305.25,3.1413872499999997,31.423333333333332,90.06416670208,4.3054427083333335,61.61980201201558
1361798305.5,3.1382908749999996,31.423333333333332,89.995,5.37453125,61.61980201201558
1361798305.75,3.135408041666667,31.424166666666668,89.92583329792001,4.992447916666666,61.62022460266698
1361798306.0,3.1327387916666667,31.425833333333333,89.85666666666668,5.153776041666666,61.620900747709214
1361798306.25,3.1301229166666666,31.427500000000006,89.80083336192001,6.399453125,61.62157689275145
1361798306.5,3.127507,31.429166666666664,89.745,6.194270833333333,61.62263326927293
1361798306.75,3.124997833333333,31.43,89.68916663808001,6.554583333333333,61.62533731553774
1361798307.0,3.1223819166666664,31.43,89.63333333333334,6.567942708333334,61.629856635249645
1361798307.25,3.119499083333334,31.43,89.58666669056001,6.105651041666666,61.638639588252
1361798307.5,3.1163493333333334,31.43,89.54,7.173619791666667,61.647422541254365
1361798307.75,3.1130394166666666,31.43,89.49333330944,7.58125,61.65620549425671
1361798308.0,3.1098362499999994,31.43,89.44666666666667,7.7746875,61.66498844725907
1361798308.25,3.1068466249999998,31.43,89.40333335552,8.831067708333334,61.67377140026142
1361798308.5,3.1039638333333333,31.43,89.36,8.89734375,61.68255435326378
1361798308.75,3.101081041666667,31.43083333333333,89.31666664448,9.603333333333333,61.690914715614745
1361798309.0,3.0983049583333333,31.4325,89.27333333333333,10.411510416666667,61.699021523574864
1361798309.25,3.095635625,31.434166666666666,89.22750002346666,9.830520833333333,61.70712833153498
1361798309.5,3.092966333333333,31.435833333333335,89.18166666666666,9.891041666666666,61.714854908015866
1361798309.75,3.090297083333334,31.4375,89.13583330986665,10.482317708333333,61.7209338147534
1361798310.0,3.0879480833333326,31.439166666666665,89.08999999999999,10.481171875,61.75696305681398
1361798310.25,3.08389075,31.440833333333334,89.03833335978666,10.728880208333335,61.825518061357485
1361798310.5,3.0781250833333336,31.4425,88.98666666666665,10.552552083333333,61.90389823957296
1361798310.75,3.072252666666667,31.444166666666664,88.93499997354665,10.069947916666667,61.97016673205963
1361798311.0,3.0660065833333334,31.44583333333333,88.88333333333333,10.051666666666668,62.009168030812965
1361798311.25,3.0594401666666666,31.447499999999994,88.81916669952,8.895416666666666,62.05377518330465
1361798311.5,3.0529805000000003,31.449166666666667,88.755,7.543307291666667,62.11617318759133
1361798311.75,3.046414083333333,31.45,88.69083330048,6.495729166666667,62.17807130949236
1361798312.0,3.0397409166666667,31.45,88.62666666666667,5.861067708333333,62.23187400313629
1361798312.25,3.0328008333333334,31.45,88.55416670378666,5.609453124999999,62.27187642791113
1361798312.5,3.0261810416666663,31.45,88.48166666666665,5.356041666666667,62.30191146861233
1361798312.75,3.0198815416666664,31.45,88.40916662954666,3.8383593749999996,62.31972078424974
1361798313.0,3.013849,31.45,88.33666666666666,2.3934374999999997,62.29945892653467
1361798313.25,3.0101654166666667,31.45,88.26333337087999,1.1070052083333335,62.22440092575522
1361798313.5,3.00861725,31.45,88.19,-0.3830208333333333,62.135208825014246
1361798313.75,3.0075495416666667,31.449166666666667,88.11666662912,-1.2650781249999998,62.05812841000209
1361798314.0,3.0072825833333336,31.4475,88.04333333333334,-1.6880729166666664,62.00831518872326
1361798314.25,3.0074961250000007,31.445833333333336,87.97583336789333,-1.9160416666666666,61.95289611370609
1361798314.5,3.0077096666666665,31.444166666666664,87.90833333333333,-2.4925260416666664,61.87968618689393
1361798314.75,3.0083502916666673,31.44333333333333,87.84083329877333,-2.31890625,61.8069761424674
1361798315.0,3.0097383333333334,31.44333333333333,87.77333333333333,-2.7965885416666665,61.74236152629797
1361798315.25,3.0117670000000003,31.44333333333333,87.7066667008,-3.276067708333333,61.691547178997645
1361798315.5,3.013902416666666,31.44333333333333,87.63999999999999,-1.7790885416666662,61.65070021577096
1361798315.75,3.0160377916666667,31.44333333333333,87.57333329919999,0.8610416666666669,61.62207897760806
1361798316.0,3.018333333333333,31.44333333333333,87.50666666666666,4.0121093750000005,61.60077772198952
1361798316.25,3.020628875,31.44333333333333,87.44000003413333,6.6410156250000005,61.59917391026536
1361798316.5,3.0229244166666667,31.44333333333333,87.37333333333333,8.215104166666666,61.6037801822269
1361798316.75,3.025219958333333,31.444166666666664,87.30666663253334,9.675546875,61.611341689112635
1361798317.0,3.0272485833333334,31.44583333333333,87.24000000000001,11.175338541666667,61.62215361163812
1361798317.25,3.0289569166666666,31.4475,87.17583336618668,12.8775,61.63321862246577
1361798317.5,3.0305050833333333,31.449166666666667,87.11166666666668,15.560677083333331,61.64605525140859
1361798317.75,3.031412625,31.45,87.04749996714668,17.003854166666667,61.658891880351405
1361798318.0,3.0313058749999997,31.45,86.98333333333335,18.444010416666668,61.67172850929421
1361798318.25,3.0302381666666665,31.45,86.92916669440001,19.75401041666667,61.684565138237026
1361798318.5,3.027996,31.45,86.875,18.528255208333334,61.697401767179834
1361798318.75,3.0250064583333334,31.450833333333335,86.8208333056,17.310546875,61.710238396122655
1361798319.0,3.021216125,31.452499999999997,86.76666666666667,15.563072916666668,61.72206060710345
1361798319.25,3.017052083333333,31.454166666666666,86.72333335552,13.917838541666667,61.73219212148089
1361798319.5,3.0125143333333333,31.45583333333333,86.67999999999999,13.700677083333332,61.740422478462165
1361798319.75,3.007602916666667,31.456666666666667,86.63666664447999,12.800208333333332,61.74569760051924
1361798320.0,3.0024779583333334,31.456666666666667,86.59333333333332,11.538151041666666,61.747722306936566
1361798320.25,2.9971394166666667,31.456666666666663,86.55833335125332,10.433802083333333,61.74949392505172
1361798320.5,2.991694125,31.456666666666663,86.52333333333333,8.493151041666666,61.754423977475945
1361798320.75,2.9863022083333335,31.4575,86.48833331541333,7.385026041666666,61.763188515119005
1361798321.0,2.980910208333333,31.459166666666665,86.45333333333333,6.537057291666667,61.77195305276208
1361798321.25,2.9758385416666666,31.460833333333337,86.42750001322666,5.605833333333333,61.780717590405125
1361798321.5,2.9713007499999997,31.462500000000002,86.40166666666667,6.056406249999999,61.789482128048185
1361798321.75,2.9671366666666668,31.463333333333335,86.37583332010668,5.732916666666665,61.798246665691245
1361798322.0,2.963292916666667,31.463333333333335,86.35000000000001,5.8042968749999995,61.80701120333432
1361798322.25,2.9595466249999998,31.463333333333335,86.33333334186668,6.470625000000001,61.81577574097738
1361798322.5,2.9560672500000003,31.463333333333335,86.31666666666668,6.152057291666668,61.82454027862044
1361798322.75,2.9529081666666666,31.464166666666667,86.29999999146668,6.754322916666666,61.8333048162635
1361798323.0,2.9495889166666664,31.465833333333332,86.28333333333335,7.33328125,61.84206935390657
1361798323.25,2.9462255833333333,31.4675,86.27666667008,7.2390625,61.85083389154962
1361798323.5,2.9430665000000005,31.469166666666666,86.27000000000001,8.223619791666666,61.85466837676846
1361798323.75,2.9399608333333327,31.47,86.26333332992,8.517109374999999,61.85466837676846
1361798324.0,2.936961958333333,31.47,86.25666666666666,8.3534375,61.845372545406114
1361798324.25,2.9341139166666665,31.47,86.25500000085333,8.401458333333334,61.8009284161948
1361798324.5,2.931372666666667,31.47,86.25333333333333,7.435598958333333,61.75083699516861
1361798324.75,2.928684791666667,31.47,86.25166666581333,6.817473958333334,61.700745574142424
1361798325.0,2.9259435000000003,31.47,86.25,6.344817708333333,61.650271445849235
1361798325.25,2.923211541666667,31.47,86.25249999872,5.39484375,61.59813891939908
1361798325.5,2.9202660416666664,31.47,86.255,5.113828125,61.54600639294892
1361798325.75,2.9170535833333333,31.47,86.25750000128,4.490390625,61.49387386649875
1361798326.0,2.9141080833333337,31.47,86.25999999999999,3.634088541666666,61.441741340048594
1361798326.25,2.9113668333333336,31.47,86.26416666453332,3.207239583333333,61.38960881359844
1361798326.5,2.9083679166666663,31.47,86.26833333333332,2.2085416666666666,61.337476287148284
1361798326.75,2.9053690000000003,31.47,86.27250000213333,1.3425260416666667,61.28534376069811
1361798327.0,2.902530291666667,31.47,86.27666666666666,1.1784375,61.24250706561029
1361798327.25,2.899700875,31.47,86.2808333312,1.609296875,61.23481866837145
1361798327.5,2.896978166666667,31.47,86.285,2.443359375,61.23277756294748
1361798327.75,2.89436225,31.47,86.2891666688,3.455,61.230736457523506
1361798328.0,2.8920132916666668,31.47,86.29333333333334,4.008385416666667,61.22907805936653
1361798328.25,2.8898245,31.47,86.29250000042667,4.809505208333333,61.22907805936653
1361798328.5,2.887208625,31.47,86.29166666666667,6.102343749999999,61.22907805936653
1361798328.75,2.8838453333333334,31.47083333333333,86.29083333290667,6.9281250000000005,61.22920562845553
1361798329.0,2.8793609166666667,31.4725,86.29,7.577786458333333,61.23048131934551
1361798329.25,2.8738622083333336,31.47416666666666,86.28333333674667,8.287786458333333,61.23162944114649
1361798329.5,2.8677229166666667,31.47583333333333,86.27666666666667,8.534114583333333,61.233670546570465
1361798329.75,2.8613166666666667,31.477499999999996,86.26999999658666,8.710755208333333,61.235541571214505
1361798330.0,2.8546434583333333,31.479166666666668,86.26333333333332,8.292343749999999,61.23690228551359
1361798330.25,2.8474897916666664,31.480833333333333,86.25250000554665,7.160572916666666,61.23966454548631
1361798330.5,2.8396955,31.482499999999998,86.24166666666665,5.9734375,61.25054102608659
1361798330.75,2.8314207083333334,31.484166666666663,86.23083332778666,4.449791666666666,61.26260554107642
1361798331.0,2.823145916666667,31.485833333333332,86.21999999999998,2.5210677083333333,61.27568837125728
1361798331.25,2.81481775,31.487499999999997,86.20833333930665,0.3657552083333331,61.28928030273834
1361798331.5,2.8070768333333334,31.489166666666666,86.19666666666666,-2.3417708333333334,61.30312678486948
1361798331.75,2.8004036666666665,31.49,86.18499999402667,-4.780859375,61.31701524276688
1361798332.0,2.79501175,31.49,86.17333333333333,-6.754401041666667,61.333444279858156
1361798332.25,2.7906341250000004,31.49,86.16166667264,-8.777968750000001,61.352161349362916
1361798332.5,2.786897125,31.49,86.15,-10.433880208333333,61.365280348251446
1361798332.75,2.7835338333333333,31.49,86.13833332736,-11.694140625000001,61.38039306277276
1361798333.0,2.780490875,31.49,86.12666666666667,-11.632760416666668,61.395337390631795
1361798333.25,2.7778216249999996,31.49,86.11833333759999,-12.231328125,61.40238931413328
1361798333.5,2.7756328333333333,31.49,86.10999999999999,-11.830625,61.39967236407312
1361798333.75,2.7739245,31.49,86.10166666239999,-9.201432291666666,61.3957673796234
1361798334.0,2.7723229166666665,31.49,86.09333333333332,-5.736666666666667,61.390844079982635
1361798334.25,2.770881458333333,31.49,86.08833333589332,-1.655807291666667,61.38541167904169
1361798334.5,2.7696001666666668,31.49,86.08333333333331,2.3009374999999994,61.37972472745067
1361798334.75,2.7683188750000003,31.49,86.07833333077332,6.221328125,61.37386823100437
1361798335.0,2.7666105416666666,31.49,86.07333333333332,10.10640625,61.38305358943828
1361798335.25,2.764688666666667,31.49,86.07250000042666,13.835312499999999,61.39304325657293
1361798335.5,2.7629802916666666,31.49,86.07166666666666,17.426432291666668,61.407738010700825
1361798335.75,2.7610049999999995,31.489166666666662,86.07083333290666,20.911484375,61.42060912997587
1361798336.0,2.7584958333333334,31.487499999999997,86.07,22.941718750000003,61.43415894625816
1361798336.25,2.7557731249999997,31.485833333333332,86.07,25.644114583333334,61.45419962122434
1361798336.5,2.7527835416666666,31.484166666666667,86.07,27.61375,61.475894949124616
1361798336.75,2.749473666666667,31.481666666666666,86.07,26.957239583333333,61.497590277024905
1361798337.0,2.745736708333333,31.478333333333328,86.07,26.021822916666665,61.519285604925194
1361798337.25,2.7414659166666664,31.474999999999998,86.06833333418666,24.95239583333333,61.540980932825484
1361798337.5,2.7368747916666667,31.471666666666668,86.06666666666666,23.145572916666666,61.562676260725766
1361798337.75,2.731909958333333,31.468333333333334,86.06499999914666,21.528020833333333,61.58437158862605
1361798338.0,2.7269985,31.465,86.06333333333333,20.15036458333333,61.587336360651285
1361798338.25,2.7220870416666667,31.461666666666662,86.0591666688,18.18736979166667,61.587336360651285
1361798338.5,2.7166417500000004,31.458333333333332,86.055,16.737135416666664,61.587336360651285
1361798338.75,2.7111964583333332,31.455833333333334,86.0508333312,15.324921875000001,61.587336360651285
1361798339.0,2.7058045416666663,31.454166666666666,86.04666666666667,13.888177083333334,61.587336360651285
1361798339.25,2.7005727499999996,31.4525,86.0383333376,13.15765625,61.587336360651285
1361798339.5,2.6958214166666665,31.450833333333332,86.03,11.736458333333333,61.587336360651285
1361798339.75,2.6914437916666665,31.450833333333335,86.02166666240001,10.589739583333333,61.587336360651285
1361798340.0,2.6874932499999997,31.4525,86.01333333333334,10.057213541666668,61.587336360651285
1361798340.25,2.6840765416666668,31.454166666666666,86.00250000554666,8.784895833333332,61.587336360651285
1361798340.5,2.6809801666666666,31.45583333333333,85.99166666666666,8.127890625000001,61.58805470944526
1361798340.75,2.6782574999999995,31.4575,85.98083332778666,7.377109375000001,61.600681991966944
1361798341.0,2.6758017499999998,31.459166666666665,85.96999999999998,6.330182291666667,61.61470100042603
1361798341.25,2.6737730833333333,31.460833333333337,85.95583334058665,6.120026041666667,61.62741264018129
1361798341.5,2.672385041666667,31.462500000000002,85.94166666666666,5.563802083333333,61.637675330285326
1361798341.75,2.6716909999999996,31.464166666666667,85.92749999274668,4.907994791666667,61.63834512012431
1361798342.0,2.6715842083333334,31.465833333333332,85.91333333333334,4.706484375,61.65213237387126
1361798342.25,2.6719045416666667,31.4675,85.89750000810666,3.723645833333333,61.697092282593836
1361798342.5,2.6720113333333333,31.469166666666666,85.88166666666666,3.455078125,61.738739145565184
1361798342.75,2.6719045833333332,31.469166666666666,85.86583332522666,3.728802083333333,61.78235702844869
1361798343.0,2.6715842916666666,31.4675,85.84999999999998,2.9982291666666665,61.83187790924027
1361798343.25,2.6712105833333335,31.465833333333332,85.82916667733332,2.8711979166666666,61.902829473190955
1361798343.5,2.6708368749999996,31.464166666666667,85.80833333333332,4.8923958333333335,61.95168881317162
1361798343.75,2.6704631666666665,31.463333333333328,85.78749998933333,8.234166666666667,61.917000634575196
1361798344.0,2.6697691666666667,31.463333333333335,85.76666666666667,9.582734375,61.908443523335315
1361798344.25,2.6685947083333335,31.463333333333328,85.74000001365333,10.4596875,61.93465311359969
1361798344.5,2.6669397499999996,31.463333333333335,85.71333333333334,10.88078125,61.963396220063295
1361798344.75,2.6645907916666665,31.463333333333328,85.68666665301335,9.742630208333333,62.00617901092051
1361798345.0,2.6619749166666664,31.463333333333335,85.66000000000001,10.889791666666666,62.02929976893743
1361798345.25,2.6590387083333336,31.463333333333328,85.62833334954668,13.819947916666669,62.01902227250603
1361798345.5,2.656155875,31.463333333333335,85.59666666666668,15.424296875000001,62.011637767602195
1361798345.75,2.653486583333333,31.464166666666667,85.56499998378668,17.28200520833333,61.98814562285424
1361798346.0,2.6507639166666666,31.465833333333332,85.53333333333335,19.085312499999997,61.95934115901704
1361798346.25,2.6470803333333333,31.467499999999998,85.50083334997333,19.716302083333336,61.90523315320139
1361798346.5,2.6420620833333333,31.469166666666666,85.46833333333333,17.915364583333332,61.87721462512531
1361798346.75,2.63651,31.47,85.43583331669333,14.414947916666668,61.92609450395633
1361798347.0,2.6311714166666667,31.47,85.40333333333332,13.33171875,61.94505511185292
1361798347.25,2.626046375,31.47,85.37333334869332,12.620520833333332,61.92723161115811
1361798347.5,2.6206544583333335,31.47,85.34333333333333,12.554739583333332,61.91033371326275
1361798347.75,2.6151023749999998,31.47,85.31333331797335,14.186796874999999,61.88519949225389
1361798348.0,2.609657041666667,31.47,85.28333333333335,12.860026041666666,61.87250369420355
1361798348.25,2.6041049166666665,31.47,85.25250001578668,9.793020833333333,61.8577810753602
1361798348.5,2.597591875,31.47,85.22166666666666,7.8656250000000005,61.83993778960488
1361798348.75,2.590011125,31.470833333333335,85.19083331754666,5.7070572916666675,61.83231133821664
1361798349.0,2.5822702083333335,31.472499999999997,85.16,4.103255208333333,61.82274481846313
1361798349.25,2.5752767083333334,31.474166666666665,85.12666668373333,3.292682291666667,61.81789525120374
1361798349.5,2.569617875,31.47583333333333,85.09333333333333,2.599635416666666,61.8049527762536
1361798349.75,2.5643860833333334,31.47666666666667,85.05999998293332,2.2524479166666667,61.78734160072592
1361798350.0,2.559207666666667,31.476666666666663,85.02666666666666,1.4435156249999999,61.77330914579897
1361798350.25,2.554242791666667,31.47666666666667,84.99416668330666,0.869505208333333,61.76437483110342
1361798350.5,2.5500252916666666,31.476666666666663,84.96166666666666,0.3409374999999997,61.75443034706041
1361798350.75,2.5464484166666668,31.477500000000003,84.92916665002666,-0.43807291666666687,61.74827540200234
1361798351.0,2.5430317083333334,31.479166666666668,84.89666666666666,-0.4504947916666669,61.736226602918094
1361798351.25,2.5397752083333334,31.480833333333333,84.87083334655999,-0.06835937500000021,61.728430224099554
1361798351.5,2.5373728749999995,31.482499999999998,84.845,-0.03796875000000021,61.72417456641663
1361798351.75,2.5357713333333334,31.48333333333333,84.81916665344,-0.7285677083333336,61.72383869429859
1361798352.0,2.534383333333333,31.483333333333334,84.79333333333334,-1.586901041666667,61.724852211727004
1361798352.25,2.533048708333333,31.483333333333334,84.77166667776,-2.1152864583333333,61.72502163548064
1361798352.5,2.5315005416666665,31.48333333333333,84.75,-1.8370052083333333,61.72877921597461
1361798352.75,2.5297388333333335,31.484166666666663,84.72833332224,-1.709322916666667,61.73173482337531
1361798353.0,2.5273899166666665,31.485833333333332,84.70666666666666,-2.164817708333333,61.73350818781574
1361798353.25,2.5241868333333333,31.487499999999997,84.68333334527999,-3.024401041666667,61.73350818781574
1361798353.5,2.520449875,31.489166666666666,84.66,-4.9757291666666665,61.73350818781574
1361798353.75,2.516499375,31.49,84.63666665472,-6.512265625,61.73350818781574
1361798354.0,2.512335333333333,31.49,84.61333333333333,-7.987552083333333,61.73173482337531
1361798354.25,2.508117875,31.49,84.5841666816,-9.696640625,61.722868001173204
1361798354.5,2.5039004166666667,31.49,84.555,-10.862552083333334,61.71328324689575
1361798354.75,2.4996295416666667,31.49,84.5258333184,-11.199921875000001,61.703825303213506
1361798355.0,2.4953586666666667,31.49,84.49666666666667,-11.445338541666667,61.69732296693195
1361798355.25,2.4910877916666667,31.49,84.46750001493334,-11.904322916666667,61.68963838769012
1361798355.5,2.486603375,31.49,84.43833333333333,-12.753515625,61.68233407831531
1361798355.75,2.482119,31.49083333333333,84.40916665173333,-13.053958333333334,61.672876134633064
1361798356.0,2.4781684583333337,31.492499999999996,84.38,-12.109322916666665,61.6634181909508
1361798356.25,2.474805125,31.49416666666667,84.35666667861334,-11.393776041666667,61.65396024726855
1361798356.5,2.47170875,31.495833333333334,84.33333333333334,-9.886640625,61.646866789506866
1361798356.75,2.46866575,31.497500000000002,84.30999998805333,-8.017083333333334,61.63799996730475
1361798357.0,2.4654625833333337,31.499166666666667,84.28666666666668,-6.091276041666667,61.636226602864326
1361798357.25,2.4620459166666664,31.500833333333333,84.27083334144001,-4.286406250000001,61.64509342506644
1361798357.5,2.4588427916666666,31.502499999999998,84.25500000000001,-2.5960677083333334,61.65467817934388
1361798357.75,2.4556253333333333,31.504166666666666,84.23916665856001,-1.6467708333333333,61.663545001546
1361798358.0,2.4522477083333336,31.50583333333333,84.22333333333334,-0.28148437500000023,61.66709173042685
1361798358.25,2.448976875,31.507500000000004,84.21583333717334,1.6415624999999998,61.67182070226798
1361798358.5,2.445958625,31.50916666666667,84.20833333333334,2.8519791666666663,61.678914160029656
1361798358.75,2.4431005,31.51,84.20083332949335,3.5028124999999997,61.68837210371191
1361798359.0,2.440242375,31.51,84.19333333333334,3.6463802083333334,61.69783004739417
1361798359.25,2.437544416666667,31.51,84.19166666752001,3.7910416666666666,61.70728799107642
1361798359.5,2.435006625,31.51,84.19,4.921223958333333,61.714381448838104
1361798359.75,2.432629,31.51,84.18833333248,5.453776041666667,61.72324827104023
1361798360.0,2.430144625,31.51,84.18666666666667,5.710598958333333,61.72679499992106
1361798360.25,2.4276068333333334,31.51,84.19249999701333,6.407135416666667,61.72679499992106
1361798360.5,2.4247487083333334,31.51,84.19833333333332,6.2836718750000005,61.72679499992106
1361798360.75,2.4217981666666666,31.51,84.20416666965333,6.551093750000001,61.7273861214012
1361798361.0,2.4191145833333336,31.51,84.21,6.649036458333334,61.7303417288019
1361798361.25,2.4163242083333336,31.51,84.21833332906667,5.747890625,61.73329733620261
1361798361.5,2.413494791666667,31.51,84.22666666666666,5.77359375,61.73329733620261
1361798361.75,2.410772166666667,31.51,84.23500000426665,6.27484375,61.73329733620261
1361798362.0,2.408102916666667,31.51,84.24333333333333,6.252630208333334,61.73329733620261
1361798362.25,2.405487041666667,31.51,84.25333332821333,6.539687499999999,61.73329733620261
1361798362.5,2.4029245416666667,31.51,84.26333333333332,5.5523437499999995,61.73329733620261
1361798362.75,2.400201875,31.50916666666667,84.27333333845333,3.7661197916666667,61.73329733620261
1361798363.0,2.397372416666667,31.507500000000004,84.28333333333333,2.8446875000000005,61.73346606173448
1361798363.25,2.3943827916666667,31.50583333333333,84.2916666624,1.5575520833333334,61.73768144859867
1361798363.5,2.391606708333333,31.504166666666666,84.3,0.08390625000000003,61.74118050856342
1361798363.75,2.389097583333333,31.502499999999998,84.30833333759999,-1.5819531249999998,61.74522742385384
1361798364.0,2.3863214999999998,31.500833333333333,84.31666666666666,-3.830364583333333,61.7556780480346
1361798364.25,2.383492,31.499166666666667,84.32249999701332,-4.678828125,61.767812771486035
1361798364.5,2.380609125,31.497500000000002,84.32833333333332,-5.05,61.77977911143043
1361798364.75,2.3772991666666665,31.495833333333334,84.33416666965333,-6.798593749999999,61.79157697980104
1361798365.0,2.3736689166666665,31.49416666666667,84.33999999999999,-8.552005208333334,61.792504721531564
1361798365.25,2.3698251666666663,31.492499999999996,84.34249999871999,-9.72375,61.79254690291452
1361798365.5,2.365767875,31.49083333333333,84.345,-8.919427083333334,61.79254690291453
1361798365.75,2.361336875,31.49,84.34750000128,-7.668020833333333,61.79254690291452
1361798366.0,2.3569058750000003,31.49,84.35,-8.296770833333333,61.79237817738266
1361798366.25,2.352741791666667,31.49,84.34750000128,-8.75625,61.78816279051846
1361798366.5,2.348524333333333,31.49,84.345,-7.569947916666667,61.7803561381017
1361798366.75,2.3442534583333337,31.49083333333333,84.34249999871999,-5.891145833333333,61.76625817375656
1361798367.0,2.340196125,31.492500000000003,84.33999999999999,-4.315755208333333,61.74575650052109
1361798367.25,2.3362456249999997,31.49416666666667,84.33333333674666,-4.340833333333333,61.72716038839163
1361798367.5,2.332188375,31.495833333333334,84.32666666666665,-5.072786458333334,61.714476116371905
1361798367.75,2.32829125,31.4975,84.31999999658666,-4.631848958333333,61.70394294340597
1361798368.0,2.3247677916666665,31.499166666666664,84.31333333333333,-3.660494791666667,61.71077107327634
1361798368.25,2.321564625,31.500833333333336,84.30333333845333,-3.033515625,61.720169479231906
1361798368.5,2.318628375,31.5025,84.29333333333332,-4.277343750000001,61.72961006657042
1361798368.75,2.316226,31.504166666666666,84.28333332821333,-5.1921875,61.739050653908954
1361798369.0,2.314410875,31.50583333333333,84.27333333333333,-4.307135416666667,61.74849124124747
1361798369.25,2.312916083333333,31.507499999999997,84.26166667263999,-3.282473958333334,61.757931828586
1361798369.5,2.31168825,31.50916666666667,84.25,-4.258697916666667,61.77168000837654
1361798369.75,2.3106739583333336,31.51,84.23833332736001,-5.317578125,61.79117164476978
1361798370.0,2.3097664166666667,31.51,84.22666666666667,-4.930625,61.81066328116302
1361798370.25,2.309019,31.51,84.21416667306667,-4.002447916666667,61.82656525717957
1361798370.5,2.30864525,31.51,84.20166666666668,-3.944322916666667,61.83394360942585
1361798370.75,2.3085918333333333,31.51,84.18916666026668,-3.8589843750000004,61.8398447489134
1361798371.0,2.3085918333333333,31.51,84.17666666666668,-3.3406510416666664,61.84093942794238
1361798371.25,2.3084850833333337,31.51,84.16166667434668,-3.1624479166666664,61.82782180628384
1361798371.5,2.3082715833333336,31.51,84.14666666666668,-2.922760416666667,61.81549659603956
1361798371.75,2.3080046666666667,31.50916666666667,84.13166665898667,-2.5685677083333336,61.81254641249627
1361798372.0,2.3076309583333336,31.507500000000004,84.11666666666667,-2.859453125,61.8157848516141
1361798372.25,2.306883583333333,31.50583333333334,84.10166667434667,-3.7770312500000003,61.824535653503204
1361798372.5,2.3057090833333334,31.504166666666666,84.08666666666667,-3.3003906250000004,61.82490796271595
1361798372.75,2.30421425,31.50333333333333,84.07166665898667,-2.6804947916666673,61.81482464422958
1361798373.0,2.30234575,31.503333333333334,84.05666666666667,-3.1865364583333338,61.79389714368566
1361798373.25,2.3001035416666666,31.503333333333334,84.04250000725334,-3.3479687499999997,61.77178474957947
1361798373.5,2.297380875,31.503333333333334,84.02833333333334,-2.400182291666667,61.75389103739352
1361798373.75,2.2940175833333334,31.5025,84.01416665941333,-1.9945052083333332,61.735491910486296
1361798374.0,2.289960291666667,31.500833333333333,84.0,-2.2729427083333333,61.71278465952645
1361798374.25,2.285208958333333,31.499166666666667,83.98583334058667,-2.2711979166666665,61.70573564421225
1361798374.5,2.279977125,31.4975,83.97166666666666,-2.0899218750000004,61.693705483820935
1361798374.75,2.2742115000000003,31.496666666666666,83.95749999274666,-1.6253645833333332,61.67513572003916
1361798375.0,2.268018833333333,31.496666666666666,83.94333333333333,-1.5975260416666668,61.65037733359628
1361798375.25,2.2620930416666667,31.496666666666666,83.93083333973333,-1.5126041666666667,61.61240477622719
1361798375.5,2.256380791666667,31.49666666666667,83.91833333333332,-1.4153125,61.5869578390025
1361798375.75,2.2506151666666665,31.495833333333337,83.90583332693333,-1.6240625,61.57374386982036
1361798376.0,2.2449029166666667,31.49416666666666,83.89333333333333,-1.8716145833333335,61.57374386982036
1361798376.25,2.239457625,31.492499999999996,83.88250000554666,-2.1272395833333335,61.57492876338265
1361798376.5,2.234492791666667,31.49083333333333,83.87166666666667,-1.9169010416666667,61.57467514219227
1361798376.75,2.2300084166666667,31.49083333333333,83.86083332778666,-1.2004166666666667,61.57442152100188
1361798377.0,2.226057875,31.492499999999996,83.85,-0.6428385416666665,61.57679130812647
1361798377.25,2.222534416666667,31.49416666666666,83.84083333802666,0.05627604166666674,61.57603044455529
1361798377.5,2.21911775,31.495833333333337,83.83166666666666,1.457760416666667,61.57945831464698
1361798377.75,2.215914625,31.497500000000002,83.82249999530667,1.8497135416666668,61.58005076142812
1361798378.0,2.2129250000000003,31.499166666666667,83.81333333333333,3.3876822916666662,61.580643208209274
1361798378.25,2.209882,31.500833333333333,83.80083333973333,5.728385416666666,61.58893746314535
1361798378.5,2.2066255,31.502499999999998,83.78833333333333,7.474843750000001,61.59308459061338
1361798378.75,2.203315625,31.504166666666663,83.77583332693334,9.134088541666667,61.59545437773797
1361798379.0,2.1998989583333333,31.50583333333334,83.76333333333334,10.872604166666667,61.59545437773797
1361798379.25,2.1961085416666664,31.507500000000004,83.7466666752,12.011067708333334,61.59545437773797
1361798379.5,2.1921045833333332,31.50916666666667,83.73,12.992421875,61.59545437773797
1361798379.75,2.1879938749999996,31.51,83.7133333248,14.387005208333335,61.59545437773797
1361798380.0,2.183669625,31.51,83.69666666666667,15.7321875,61.59545437773797
1361798380.25,2.1793454166666666,31.51,83.67416667818667,16.640364583333334,61.59545437773797
1361798380.5,2.175128,31.51,83.65166666666667,16.937447916666667,61.59545437773797
1361798380.75,2.171070708333333,31.50916666666667,83.62916665514668,17.598932291666667,61.59545437773797
1361798381.0,2.1669600416666666,31.507500000000004,83.60666666666667,17.37799479166667,61.59545437773797
1361798381.25,2.1625824166666665,31.50583333333333,83.57583334912,16.92591145833333,61.59545437773797
1361798381.5,2.158311541666667,31.504166666666666,83.545,16.459322916666668,61.59545437773797
1361798381.75,2.154307625,31.5025,83.51416665088,15.647630208333332,61.59545437773797
1361798382.0,2.150677416666667,31.500833333333333,83.48333333333333,15.542213541666667,61.59545437773797
1361798382.25,2.147314166666667,31.499166666666667,83.441666688,15.65390625,61.59545437773797
1361798382.5,2.1440042916666666,31.4975,83.4,15.009557291666667,61.59545437773797
1361798382.75,2.140641,31.495833333333334,83.358333312,13.628723958333332,61.59849377271647
1361798383.0,2.137117583333333,31.49416666666667,83.31666666666666,12.517031249999997,61.59070724541007
1361798383.25,2.1335407500000003,31.492499999999996,83.26666669226667,11.498125000000002,61.58711020514744
1361798383.5,2.130124041666667,31.49083333333333,83.21666666666667,10.434375000000001,61.5769956630129
1361798383.75,2.1266005833333335,31.49083333333333,83.16666664106667,9.434973958333334,61.56692348045413
1361798384.0,2.1231305,31.492499999999996,83.11666666666667,7.978697916666667,61.55786734043394
1361798384.25,2.119927375,31.49416666666667,83.06250002773335,6.69953125,61.55668244687164
1361798384.5,2.1167776249999997,31.495833333333334,83.00833333333335,6.351536458333334,61.55668244687164
1361798384.75,2.113681208333333,31.496666666666666,82.95416663893334,6.378151041666666,61.55668244687164
1361798385.0,2.1104246666666664,31.496666666666666,82.90000000000002,5.511276041666666,61.55431265974704
1361798385.25,2.106634291666667,31.496666666666666,82.84583336106668,4.660703125,61.55372021296589
1361798385.5,2.102790541666667,31.49666666666667,82.79166666666669,3.3084114583333335,61.5525353194036
1361798385.75,2.099267125,31.497500000000002,82.73749997226668,3.0727343749999996,61.54179411627018
1361798386.0,2.0962775416666664,31.499166666666667,82.68333333333334,3.558333333333333,61.54661840967085
1361798386.25,2.0937150416666666,31.500833333333333,82.63166669312001,3.411640625,61.545475875684296
1361798386.5,2.0913660833333334,31.502499999999998,82.58000000000001,3.23578125,61.55559041781882
1361798386.75,2.0893374166666665,31.50333333333333,82.52833330688,3.3808333333333334,61.56566260037761
1361798387.0,2.08800275,31.503333333333334,82.47666666666667,4.113333333333333,61.57543667247313
1361798387.25,2.0873621250000003,31.503333333333334,82.43000002389334,4.339765624999999,61.57662156603542
1361798387.5,2.087202,31.503333333333334,82.38333333333334,3.561744791666666,61.576621566035435
1361798387.75,2.0871486666666668,31.504166666666666,82.33666664277334,2.131328125,61.576621566035435
1361798388.0,2.08736225,31.50583333333333,82.29,1.3752604166666667,61.58203180699325
1361798388.25,2.088323208333333,31.507500000000004,82.24833335466667,1.4712499999999997,61.59689361865316
1361798388.5,2.0894977083333335,31.50916666666667,82.20666666666668,1.9759375,61.61150485727588
1361798388.75,2.0906722083333333,31.50916666666667,82.16499997866667,1.2336979166666666,61.6320354395582
1361798389.0,2.0915263750000004,31.507500000000004,82.12333333333333,0.04820312499999991,61.63887137769671
1361798389.25,2.0921670000000003,31.50583333333333,82.08750001834667,-0.5110677083333334,61.63734202334498
1361798389.5,2.092433916666667,31.504166666666666,82.05166666666668,-1.6839322916666666,61.630101457296426
1361798389.75,2.0919534166666667,31.5025,82.01583331498666,-2.4402864583333335,61.61786523700032
1361798390.0,2.0901917083333337,31.500833333333333,81.98,-2.654609375,61.59367034820628
1361798390.25,2.0867750416666664,31.499166666666667,81.94666668373333,-3.3178906250000004,61.57172201502604
1361798390.5,2.082397416666667,31.4975,81.91333333333333,-3.7976041666666664,61.549773681845785
1361798390.75,2.0776460833333332,31.495833333333334,81.87999998293333,-3.6469010416666663,61.53168849390341
1361798391.0,2.07241425,31.49416666666667,81.84666666666665,-4.076458333333333,61.50844017192504
1361798391.25,2.0669155,31.492499999999996,81.81333335039999,-5.128593749999999,61.46436166950863
1361798391.5,2.061256625,31.49083333333333,81.77999999999999,-5.821640625,61.42321000865555
1361798391.75,2.0553842083333334,31.49,81.74666664959999,-6.001223958333333,61.38129431457323
1361798392.0,2.0495651666666665,31.49,81.71333333333332,-6.4365625,61.34374084978043
1361798392.25,2.0437995,31.49,81.67833335125333,-6.805833333333333,61.31607476049597
1361798392.5,2.0382474166666666,31.49,81.64333333333332,-6.065703125,61.28938030865914
1361798392.75,2.033336,31.49,81.60833331541332,-5.9024479166666675,61.26768151106986
1361798393.0,2.0292787083333335,31.49,81.57333333333332,-7.0203125,61.257223449903194
1361798393.25,2.0259687916666667,31.49,81.54000001706666,-7.323932291666668,61.24523676519806
1361798393.5,2.0229791666666666,31.49,81.50666666666666,-6.3480468750000005,61.23325008049292
1361798393.75,2.019882791666667,31.489166666666666,81.47333331626666,-5.116119791666667,61.21740025054992
1361798394.0,2.016679708333333,31.487499999999997,81.44,-3.460338541666667,61.20367310080969
1361798394.25,2.0135299583333333,31.485833333333332,81.41083334826666,-1.4844531250000006,61.19954722046196
1361798394.5,2.010059875,31.484166666666663,81.38166666666666,0.5401562499999994,61.193337518369226
1361798394.75,2.006216125,31.482499999999998,81.35249998506667,2.1510677083333327,61.18848942043876
1361798395.0,2.002265625,31.480833333333333,81.32333333333334,3.855520833333333,61.18823416311342
1361798395.25,1.998101583333333,31.479166666666668,81.29833334613333,5.580260416666667,61.18823416311342
1361798395.5,1.993723958333333,31.477499999999996,81.27333333333334,6.732187499999999,61.18823416311342
1361798395.75,1.9890793750000002,31.47583333333333,81.24833332053335,7.966874999999999,61.18823416311342
1361798396.0,1.9842746666666669,31.47416666666666,81.22333333333334,9.96203125,61.18823416311342
1361798396.25,1.9795767499999999,31.4725,81.20083334485334,11.475234375,61.18823416311342
1361798396.5,1.9749856250000002,31.47083333333333,81.17833333333334,12.077604166666667,61.18823416311342
1361798396.75,1.9706614166666665,31.47,81.15583332181335,12.658567708333331,61.18823416311342
1361798397.0,1.9663905416666667,31.47,81.13333333333334,12.800416666666669,61.18823416311342
1361798397.25,1.9623332500000001,31.47,81.11333334357334,12.574401041666668,61.20224812603657
1361798397.5,1.9585832083333334,31.47,81.09333333333333,12.252890625000001,61.224670466713604
1361798397.75,1.9551131249999998,31.469166666666666,81.07333332309334,12.212057291666667,61.247092807390636
1361798398.0,1.9518969583333332,31.4675,81.05333333333334,12.218125,61.26951514806766
1361798398.25,1.9489880833333333,31.465833333333332,81.03416667648001,12.385703125,61.2919374887447
1361798398.5,1.9463057916666668,31.464166666666667,81.01500000000001,12.350755208333332,61.31435982942173
1361798398.75,1.9439034583333334,31.462499999999995,80.99583332352,12.281406250000002,61.33678217009876
1361798399.0,1.9416612916666667,31.460833333333337,80.97666666666667,12.719505208333333,61.35920451077579
1361798399.25,1.939525875,31.459166666666665,80.95833334272001,12.930755208333336,61.38162685145283
1361798399.5,1.937270625,31.4575,80.94,12.867916666666666,61.40404919212986
1361798399.75,1.9350557083333335,31.455,80.92166665728,12.723307291666666,61.42647153280689
1361798400.0,1.9333212916666669,31.451666666666668,80.90333333333334,12.520182291666666,61.44889387348392
1361798400.25,1.931480125,31.448333333333334,80.88250001066667,12.274895833333332,61.455436453717546
1361798400.5,1.92954525,31.445000000000004,80.86166666666668,12.747682291666665,61.454970004337476
1361798400.75,1.9277040833333334,31.442499999999995,80.84083332266667,13.163072916666666,61.454970004337476
1361798401.0,1.9259293333333334,31.44083333333333,80.82000000000001,13.451015625000002,61.454970004337476
1361798401.25,1.924167625,31.439166666666665,80.79666667861333,13.967005208333333,61.447291222874156
1361798401.5,1.9222327083333335,31.4375,80.77333333333334,14.614739583333334,61.426527280943596
1361798401.75,1.9198576666666665,31.435833333333335,80.74999998805335,14.940416666666666,61.40797453734169
1361798402.0,1.9172690833333332,31.434166666666666,80.72666666666667,14.832526041666668,61.39707202128981
1361798402.25,1.9146805000000002,31.4325,80.69916668074667,15.065833333333332,61.38922668387866
1361798402.5,1.9121583333333332,31.430833333333336,80.67166666666668,15.291666666666666,61.38176349379759
1361798402.75,1.9093822916666667,31.43,80.64416665258668,15.946718750000002,61.374300303716524
1361798403.0,1.9061791666666668,31.43,80.61666666666667,16.921015625,61.36683711363546
1361798403.25,1.9024421666666669,31.43,80.59083334656,17.581302083333334,61.36085757374457
1361798403.5,1.8983848333333333,31.43,80.565,17.740078125,61.34633753324718
1361798403.75,1.8941673333333335,31.42916666666667,80.53916665344,17.951276041666667,61.33849219583603
1361798404.0,1.8896829166666667,31.4275,80.51333333333334,17.498072916666665,61.331029005754964
1361798404.25,1.8850917500000002,31.425833333333333,80.48916667904,17.055546875,61.331244597137214
1361798404.5,1.8807675416666665,31.424166666666668,80.465,16.934166666666666,61.344545348986706
1361798404.75,1.8768704166666668,31.421666666666667,80.44083332096001,16.405651041666665,61.35563490250757
1361798405.0,1.8731334166666667,31.418333333333333,80.41666666666667,16.208020833333332,61.35907422847837
1361798405.25,1.8693430416666665,31.414999999999996,80.395833344,16.756927083333334,61.359456375808456
1361798405.5,1.8656060833333334,31.411666666666665,80.375,16.747213541666667,61.35945637580846
1361798405.75,1.8620292916666665,31.40833333333333,80.354166656,16.088307291666666,61.3535015476009
1361798406.0,1.8586659999999997,31.405,80.33333333333333,16.184973958333334,61.34308059823764
1361798406.25,1.8557297916666666,31.401666666666667,80.31250001066667,15.874583333333334,61.32262084684126
1361798406.5,1.8532207083333334,31.398333333333337,80.29166666666666,15.049843749999999,61.30632483380737
1361798406.75,1.8508717916666664,31.395833333333332,80.27083332266666,15.254661458333333,61.28288766830719
1361798407.0,1.8484694583333334,31.394166666666667,80.25,15.534973958333333,61.25906835547693
1361798407.25,1.8459603333333334,31.3925,80.22833334442667,14.721328125000001,61.235249042646664
1361798407.5,1.8432376666666668,31.390833333333333,80.20666666666668,15.338697916666666,61.211429729816395
1361798407.75,1.8401412916666666,31.39,80.18499998890667,16.463151041666666,61.187610416986125
1361798408.0,1.83688475,31.39,80.16333333333334,16.054869791666665,61.163791104155855
1361798408.25,1.8336816249999999,31.39,80.14083334485333,15.655078125000001,61.13997179132559
1361798408.5,1.8302649583333332,31.39,80.11833333333334,16.326223958333333,61.116152478495316
1361798408.75,1.8265813333333334,31.39,80.09583332181334,16.09515625,61.09828799387262
1361798409.0,1.82289775,31.39,80.07333333333334,15.410442708333335,61.0848896304056
1361798409.25,1.8193209583333332,31.39,80.05083334485333,15.985989583333334,61.08191221630181
1361798409.5,1.8156373749999999,31.39,80.02833333333334,16.025755208333333,61.0848896304056
1361798409.75,1.8119003750000002,31.389166666666668,80.00583332181334,15.276692708333334,61.09233316566505
1361798410.0,1.8083235416666668,31.387500000000003,79.98333333333333,16.175260416666667,61.11615247849533
1361798410.25,1.8048000833333333,31.385833333333338,79.96083334485333,17.252604166666668,61.13997179132559
1361798410.5,1.8013299583333335,31.38416666666667,79.93833333333333,16.638046875,61.163791104155855
1361798410.75,1.797859875,31.382500000000004,79.91583332181334,16.510442708333333,61.187610416986125
1361798411.0,1.7942830833333334,31.38083333333334,79.89333333333333,17.259635416666665,61.211429729816395
1361798411.25,1.7905460833333333,31.379166666666666,79.86833334613333,17.176432291666668,61.235249042646664
1361798411.5,1.7869692083333335,31.377499999999998,79.84333333333333,17.122916666666665,61.25906835547693
1361798411.75,1.7838194583333333,31.375833333333333,79.81833332053334,17.88208333333333,61.282887668307204
1361798412.0,1.7806163333333334,31.374166666666667,79.79333333333334,17.89270833333333,61.3056879893517
1361798412.25,1.7772530416666668,31.372500000000002,79.76666668032,17.779973958333333,61.33090665032217
1361798412.5,1.774049875,31.370833333333334,79.74000000000001,18.361041666666665,61.352468569331684
1361798412.75,1.7709535,31.37,79.71333331968,18.477786458333334,61.364895165210946
1361798413.0,1.7679105000000002,31.37,79.68666666666667,17.57828125,61.371510192500494
1361798413.25,1.76497425,31.37,79.66166667946666,17.136510416666663,61.382187988451676
1361798413.5,1.7622515833333334,31.37,79.63666666666666,16.699791666666666,61.3996312595487
1361798413.75,1.759956,31.37,79.61166665386666,16.082083333333333,61.40170586437508
1361798414.0,1.7579273333333332,31.37,79.58666666666666,15.522317708333333,61.41077143370895
1361798414.25,1.7561656250000002,31.37,79.56500001109333,14.539947916666668,61.433837295249354
1361798414.5,1.7546708750000002,31.37,79.54333333333332,13.771953124999998,61.46455308102407
1361798414.75,1.7532295,31.37,79.52166665557333,13.514166666666668,61.498473066126245
1361798415.0,1.752108416666667,31.37,79.5,12.565442708333334,61.54318206474786
1361798415.25,1.75125425,31.37,79.47666667861334,11.562838541666665,61.583073210067816
1361798415.5,1.7505602500000002,31.37,79.45333333333335,12.790026041666666,61.62768325443361
1361798415.75,1.7500264166666666,31.37,79.42999998805334,14.452526041666665,61.683731947564524
1361798416.0,1.7497061249999997,31.37,79.40666666666668,15.665598958333334,61.72535049393082
1361798416.25,1.7492790833333334,31.37,79.37916668074668,16.8978125,61.7618132607291
1361798416.5,1.7488520416666666,31.37,79.35166666666667,18.188072916666666,61.78641880357449
1361798416.75,1.748585125,31.37,79.32416665258667,19.272239583333334,61.82647842014516
1361798417.0,1.7486385,31.37,79.29666666666667,20.527630208333335,61.862071582988385
1361798417.25,1.74874525,31.37,79.26416668330667,22.34,61.880550869837066
1361798417.5,1.7489053749999999,31.37,79.23166666666667,23.358333333333334,61.89108569594743
1361798417.75,1.7491188749999997,31.37,79.19916665002667,24.038072916666668,61.898416322730355
1361798418.0,1.7492789999999998,31.37,79.16666666666667,25.917500000000004,61.8959769277796
1361798418.25,1.7493323749999998,31.37,79.13333335040001,27.010885416666667,61.895937046204544
1361798418.5,1.7491722083333332,31.37,79.1,25.6315625,61.89185759344081
1361798418.75,1.7487985000000001,31.37,79.0666666496,23.809010416666666,61.88100869388655
1361798419.0,1.7479977083333333,31.37,79.03333333333333,21.522786458333332,61.8740257321158
1361798419.25,1.7472502916666663,31.37,79.00083334997333,20.017083333333336,61.86720900555389
1361798419.5,1.7462359583333333,31.37,78.96833333333333,18.331276041666666,61.86224031285763
1361798419.75,1.7449013333333332,31.36916666666667,78.93583331669333,16.384609375,61.8608933154969
1361798420.0,1.7429794583333333,31.367500000000003,78.90333333333334,15.063151041666666,61.857442259711725
1361798420.25,1.7407372916666668,31.36583333333333,78.8741666816,13.255182291666666,61.860640035554034
1361798420.5,1.7383349583333334,31.364166666666666,78.845,11.667161458333332,61.86619329653115
1361798420.75,1.7357190833333336,31.3625,78.81583331840001,10.40828125,61.872924242440156
1361798421.0,1.7330498333333333,31.360833333333332,78.78666666666668,8.810130208333334,61.879655188349176
1361798421.25,1.7303805416666667,31.359166666666667,78.75750001493334,8.344036458333333,61.88638613425818
1361798421.5,1.727818,31.357499999999998,78.72833333333334,8.099557291666665,61.893117080167194
1361798421.75,1.725255458333333,31.355833333333333,78.69916665173334,8.1628125,61.89984802607621
1361798422.0,1.7226395416666669,31.354166666666668,78.67,9.417760416666667,61.90657897198522
1361798422.25,1.7199702500000003,31.352500000000003,78.64083334826667,9.364635416666667,61.91423669359177
1361798422.5,1.7174611249999998,31.350833333333338,78.61166666666668,9.906354166666667,61.925138130139736
1361798422.75,1.71484525,31.35,78.58249998506668,10.940703125,61.93233246389752
1361798423.0,1.7123361666666668,31.35,78.55333333333334,10.843385416666665,61.93279608351
1361798423.25,1.7097736666666667,31.35,78.52416668160001,11.055703125,61.92930377116371
1361798423.5,1.7070509999999999,31.35,78.495,10.469791666666667,61.9237505101866
1361798423.75,1.7041681666666666,31.35,78.4658333184,9.95578125,61.91701956427759
1361798424.0,1.700911625,31.35,78.43666666666667,9.680104166666666,61.910288618368575
1361798424.25,1.6973881666666666,31.35,78.41000001365333,8.403020833333333,61.903557672459556
1361798424.5,1.6934910416666666,31.35,78.38333333333333,7.978437500000001,61.89682672655055
1361798424.75,1.689540541666667,31.35,78.35666665301333,7.286328125,61.89009578064153
1361798425.0,1.6856434166666665,31.35,78.33,6.090442708333334,61.883364834732525
1361798425.25,1.6816395416666665,31.35,78.30666667861333,5.373151041666667,61.87663388882351
1361798425.5,1.677635625,31.35,78.28333333333333,3.6943749999999995,61.8699029429145
1361798425.75,1.6735782916666666,31.349166666666665,78.25999998805334,1.9005468749999999,61.86317199700549
1361798426.0,1.6694675833333334,31.3475,78.23666666666666,0.6380989583333332,61.85815972590774
1361798426.25,1.6655170416666667,31.34583333333333,78.22000000853333,-0.12351562500000011,61.85074552032739
1361798426.5,1.6616199166666668,31.344166666666666,78.20333333333333,0.32674479166666653,61.84333131474704
1361798426.75,1.6579363333333335,31.3425,78.18666665813333,0.13572916666666657,61.835917109166694
1361798427.0,1.6543595,31.340833333333332,78.17,-0.020156250000000098,61.82850290358635
1361798427.25,1.6506225416666667,31.339166666666667,78.16166667093333,0.09281249999999991,61.82108869800601
1361798427.5,1.6470457500000002,31.337500000000002,78.15333333333334,-0.8519270833333336,61.813674492425655
1361798427.75,1.6436824583333334,31.33583333333333,78.14499999573333,-1.2893750000000002,61.8047421994722
1361798428.0,1.6406394583333332,31.334166666666665,78.13666666666666,-1.4481770833333334,61.79661113158827
1361798428.25,1.637863375,31.332499999999996,78.13500000085332,-1.4014062500000002,61.787214954025615
1361798428.5,1.6350339583333335,31.330833333333334,78.13333333333333,-0.6953125,61.77642712263531
1361798428.75,1.6322045416666668,31.33,78.13166666581333,-0.20156250000000012,61.765639291245016
1361798429.0,1.6294284583333332,31.33,78.13,0.49744791666666655,61.759443046833155
1361798429.25,1.6267591666666668,31.33,78.13166666581333,0.8269010416666664,61.756069421023206
1361798429.5,1.624196666666667,31.33,78.13333333333333,0.5208593749999999,61.75269579521326
1361798429.75,1.6216875416666665,31.33,78.13500000085334,0.6758593749999999,61.749322169403314
1361798430.0,1.6194453333333332,31.33,78.13666666666667,0.6632291666666666,61.74594854359336
1361798430.25,1.6175767916666668,31.33,78.13999999829333,0.7538802083333334,61.74257491778341
1361798430.5,1.6158683749999998,31.33,78.14333333333335,1.1801302083333334,61.739201291973465
1361798430.75,1.6140532499999998,31.33,78.14666666837334,1.15953125,61.73734575353662
1361798431.0,1.6120780000000001,31.33,78.15,1.1106770833333333,61.73468899003024
1361798431.25,1.6097824166666665,31.33,78.15416666453334,0.8961458333333332,61.73329733620261
1361798431.5,1.6072732916666663,31.33,78.15833333333333,0.5687239583333333,61.73329733620261
1361798431.75,1.6049777083333332,31.33,78.16250000213334,0.3955468749999999,61.73329733620261
1361798432.0,1.602682125,31.33,78.16666666666667,0.09317708333333326,61.73329733620261
1361798432.25,1.5999594583333332,31.33,78.16916666538667,-0.21182291666666675,61.73329733620261
1361798432.5,1.596863083333333,31.33,78.17166666666668,-0.15289062500000009,61.73329733620261
1361798432.75,1.5936599583333333,31.33,78.17416666794668,-0.18182291666666675,61.731523971762186
1361798433.0,1.5904568333333335,31.33,78.17666666666668,-0.09989583333333345,61.72079792212798
1361798433.25,1.5872537083333331,31.33,78.19333332480001,-0.1135156250000001,61.70931100892259
1361798433.5,1.5838904583333333,31.33,78.21000000000001,0.5177864583333333,61.69782409571721
1361798433.75,1.580367,31.33,78.22666667520001,1.3970312499999997,61.686337182511814
1361798434.0,1.5768435416666666,31.33,78.24333333333334,1.890286458333333,61.67485026930643
1361798434.25,1.5735336666666668,31.33,78.27416665088,3.0027343749999997,61.66336335610104
1361798434.5,1.570437291666667,31.33,78.305,4.0959375,61.651876442895656
1361798434.75,1.5673942916666668,31.33,78.33583334912001,5.206718749999999,61.640389529690275
1361798435.0,1.5642979583333334,31.33,78.36666666666667,6.15359375,61.628902616484886
1361798435.25,1.5614685416666667,31.33,78.41583330816,7.051953125,61.6174157032795
1361798435.5,1.5591195833333336,31.33,78.465,7.623281250000001,61.60592879007411
1361798435.75,1.5566104583333333,31.33,78.51416669184,7.977135416666666,61.596215241309146
1361798436.0,1.5538877916666667,31.33,78.56333333333333,8.453515625,61.59545437773797
1361798436.25,1.5513252916666664,31.33,78.61166664192,8.825963541666667,61.59760338614408
1361798436.5,1.5489763333333333,31.33,78.66,8.4490625,61.606199419768494
1361798436.75,1.5467341666666667,31.33,78.70833335808,7.9384375,61.644015561709615
1361798437.0,1.544438625,31.33,78.75666666666666,7.685729166666667,61.687127747987965
1361798437.25,1.5419828749999998,31.33,78.80916663978665,6.131848958333333,61.73023993426631
1361798437.5,1.5394737083333332,31.33,78.86166666666665,4.638046875,61.773352120544665
1361798437.75,1.5366442916666667,31.329166666666666,78.91416669354666,3.7210156249999997,61.82366267286606
1361798438.0,1.5336547083333334,31.3275,78.96666666666665,2.407890625,61.95922993165266
1361798438.25,1.530878625,31.325833333333335,79.01916663978666,1.5381510416666664,62.15757793663804
1361798438.5,1.5279423749999996,31.324166666666667,79.07166666666666,1.0676562499999998,62.38664447896583
1361798438.75,1.5246324583333333,31.3225,79.12416669354667,-0.5254166666666668,62.58924403252822
1361798439.0,1.5208420833333332,31.320833333333336,79.17666666666668,-2.7680729166666667,62.777292396437936
1361798439.25,1.516678,31.319166666666664,79.22666664106667,-4.710651041666666,62.8804308529734
1361798439.5,1.5124605416666668,31.317499999999995,79.27666666666667,-6.6596875,62.93561057678983
1361798439.75,1.508456625,31.313333333333333,79.32666669226668,-8.803359375,62.947385199887094
1361798440.0,1.5046662499999999,31.30666666666667,79.37666666666668,-10.714973958333333,62.91611441219783
1361798440.25,1.5011428333333334,31.3,79.42166664362668,-11.616901041666667,62.8640687340856
1361798440.5,1.4977795833333334,31.293333333333333,79.46666666666667,-12.460703125000002,62.85762882375116
1361798440.75,1.4947365833333333,31.286666666666665,79.51166668970666,-13.764401041666666,62.84849538942447
1361798441.0,1.4921206666666667,31.279999999999998,79.55666666666666,-14.679348958333334,62.76458617645046
1361798441.25,1.4895581666666666,31.27333333333333,79.59666664618666,-16.084713541666666,62.61802177701736
1361798441.5,1.4869956666666664,31.266666666666666,79.63666666666666,-17.61703125,62.43520441483431
1361798441.75,1.4849136250000001,31.26,79.67666668714665,-17.63341145833333,62.25730662702542
1361798442.0,1.4834722083333334,31.253333333333334,79.71666666666665,-16.860338541666668,62.068830807633795
1361798442.25,1.4822443333333333,31.24666666666667,79.75833331199999,-16.106744791666667,61.98774557512371
1361798442.5,1.4810164583333332,31.240000000000006,79.79999999999998,-15.119583333333333,61.95663165347391
1361798442.75,1.4797352083333335,31.235833333333332,79.84166668799999,-13.902578125,61.9399966857252
1361798443.0,1.4785073333333332,31.234166666666667,79.88333333333333,-12.844166666666666,61.9544541849987
1361798443.25,1.4773328333333333,31.2325,79.92583331157333,-12.131666666666666,61.95960482692386
1361798443.5,1.4762117499999998,31.230833333333333,79.96833333333333,-11.649010416666664,61.89673521193466
1361798443.75,1.4751974583333334,31.229166666666668,80.01083335509333,-11.320130208333333,61.83250603303019
1361798444.0,1.4742899166666665,31.227500000000003,80.05333333333333,-10.742760416666668,61.753718016419576
1361798444.25,1.473382375,31.225833333333338,80.10499997354667,-9.869322916666667,61.674804440069245
1361798444.5,1.4734891666666667,31.224166666666665,80.15666666666667,-8.332916666666668,61.60554150485236
1361798444.75,1.4747170416666666,31.2225,80.20833335978666,-7.014114583333335,61.591988121242686
1361798445.0,1.476425375,31.220833333333335,80.26,-6.841848958333334,61.61261804648793
1361798445.25,1.4786142083333333,31.219166666666666,80.322499968,-5.623385416666667,61.59753957307785
1361798445.5,1.4811767083333336,31.217499999999998,80.385,-4.213671875,61.572608679367214
1361798445.75,1.4842730416666665,31.2175,80.44750003200001,-0.7210937500000001,61.536607755822075
1361798446.0,1.4877430833333334,31.219166666666666,80.51,3.29265625,61.50146207860255
1361798446.25,1.4912665,31.22083333333333,80.58249996288001,6.431614583333334,61.4947044713698
1361798446.5,1.494789916666667,31.2225,80.655,9.276614583333332,61.51048853299056
1361798446.75,1.4983133333333332,31.224999999999998,80.72750003712,11.298411458333332,61.51999358022471
1361798447.0,1.5017833750000003,31.228333333333335,80.8,13.985651041666666,61.54107257267665
1361798447.25,1.505253416666667,31.231666666666666,80.8749999616,16.698151041666666,61.564353435086424
1361798447.5,1.5079226666666667,31.235,80.95,18.14390625,61.57598105373504
1361798447.75,1.509684375,31.238333333333333,81.02500003840001,19.481692708333334,61.55060731551996
1361798448.0,1.5110724166666667,31.241666666666664,81.10000000000001,21.571874999999995,61.51503468680263
1361798448.25,1.511979958333333,31.245,81.17499996160001,22.488463541666665,61.490455965491996
1361798448.5,1.5123536666666666,31.248333333333335,81.25,23.01375,61.46752445427083
1361798448.75,1.51208675,31.250833333333333,81.32500003839999,20.783411458333333,61.45600499425674
1361798449.0,1.5111257916666665,31.2525,81.39999999999999,18.736953125,61.45032950758701
1361798449.25,1.5097911666666668,31.254166666666666,81.47666662741332,17.274166666666666,61.44749246787
1361798449.5,1.5082963749999998,31.25583333333333,81.55333333333333,16.704609375,61.446053899790094
1361798449.75,1.5065880416666666,31.257500000000004,81.63000003925333,17.031015625,61.450755680634224
1361798450.0,1.504719583333333,31.25916666666667,81.70666666666666,15.963671874999998,61.44313064372466
1361798450.25,1.50279775,31.260833333333334,81.78416662698666,15.160390625,61.431183533998485
1361798450.5,1.5007157499999997,31.2625,81.86166666666666,14.520781249999999,61.42931868985397
1361798450.75,1.4983667916666665,31.264166666666668,81.93916670634667,13.653203125,61.439694937536956
1361798451.0,1.4958576666666668,31.265833333333333,82.01666666666667,13.591328124999999,61.45168169718358
1361798451.25,1.4934553333333334,31.2675,82.0958332928,12.834609375000001,61.463753260165454
1361798451.5,1.491213125,31.269166666666667,82.175,12.156614583333331,61.47557042999885
1361798451.75,1.488917541666667,31.27,82.2541667072,12.655729166666667,61.48675161696102
1361798452.0,1.4867821666666667,31.27,82.33333333333333,11.835859375,61.49789048368033
1361798452.25,1.4847535416666666,31.27,82.41249995946666,11.442265625,61.50788458123146
1361798452.5,1.482618125,31.27,82.49166666666667,10.747421874999999,61.51635302742852
1361798452.75,1.4805360833333332,31.27,82.57083337386668,9.824817708333333,61.521814860952624
1361798453.0,1.4781870833333335,31.27,82.65,9.425442708333334,61.532107476900926
1361798453.25,1.4754643749999998,31.27,82.72666662741334,8.571223958333333,61.54452029570799
1361798453.5,1.4727417083333334,31.27,82.80333333333334,8.073932291666667,61.55438787696868
1361798453.75,1.4701258333333334,31.270833333333332,82.88000003925333,7.661640625,61.554853586049575
1361798454.0,1.467509958333333,31.272499999999997,82.95666666666666,6.0553125,61.554853586049575
1361798454.25,1.4648407083333332,31.27416666666667,83.02999996245333,5.2203125,61.554853586049575
1361798454.5,1.4622782499999998,31.275833333333335,83.10333333333332,4.563229166666667,61.554853586049575
1361798454.75,1.4598225416666664,31.2775,83.17666670421333,3.4064583333333336,61.55002733121478
1361798455.0,1.4573667916666666,31.27916666666667,83.25,2.9138020833333336,61.54164361537914
1361798455.25,1.4551245833333333,31.28083333333333,83.32083329706667,2.2331510416666664,61.53080139430917
1361798455.5,1.4531493333333332,31.2825,83.39166666666667,1.375338541666667,61.524366348228085
1361798455.75,1.4513342500000002,31.284166666666668,83.46250003626666,0.9006770833333334,61.520980715800526
1361798456.0,1.4501064166666666,31.28583333333333,83.53333333333333,0.3858333333333334,61.523175122867634
1361798456.25,1.4494124583333334,31.287499999999998,83.60166663167999,-0.18622395833333336,61.53466959575923
1361798456.5,1.4493507499999998,31.28916666666667,83.66999999999999,-0.5752343750000001,61.546164068650825
1361798456.75,1.4497077916666665,31.29,83.73833336832,-0.76546875,61.55765854154243
1361798457.0,1.450278375,31.29,83.80666666666666,-0.24773437500000006,61.56915301443402
1361798457.25,1.450955708333333,31.29,83.87666663082666,0.5647656249999998,61.58064748732562
1361798457.5,1.4516330416666665,31.29,83.94666666666666,0.9272135416666666,61.59214196021721
1361798457.75,1.4524171666666668,31.29,84.01666670250665,1.250546875,61.60846268794361
1361798458.0,1.4533614583333332,31.29,84.08666666666666,1.8658333333333335,61.62834087667085
1361798458.25,1.4539320833333331,31.29,84.15749996373333,2.614479166666667,61.6506775706324
1361798458.5,1.4543959583333332,31.29,84.22833333333332,3.6046093750000003,61.66860708960508
1361798458.75,1.4544861249999999,31.290833333333328,84.29916670293333,4.4734375,61.68348719492425
1361798459.0,1.4539890416666668,31.2925,84.37,5.603333333333333,61.69278726074872
1361798459.25,1.4532249999999998,31.294166666666666,84.44166662997334,6.945572916666666,61.69278726074872
1361798459.5,1.4517752916666666,31.29583333333333,84.51333333333335,7.848697916666667,61.69278726074872
1361798459.75,1.4500136249999998,31.2975,84.58500003669334,9.255026041666667,61.68890141088257
1361798460.0,1.447985,31.299166666666665,84.65666666666668,10.081432291666667,61.68611341289185
1361798460.25,1.4456360416666667,31.300833333333333,84.72583329792,9.9125,61.683325414901134
1361798460.5,1.4431803333333333,31.3025,84.79500000000002,10.648723958333333,61.67589075359256
1361798460.75,1.44067125,31.304166666666664,84.86416670208001,11.207291666666668,61.6604554151864
1361798461.0,1.437948625,31.305833333333336,84.93333333333334,11.170416666666666,61.63879732792656
1361798461.25,1.43533275,31.3075,85.00249996458666,11.164843750000001,61.617139240666724
1361798461.5,1.4326634583333335,31.309166666666666,85.07166666666666,10.264713541666667,61.59535397368992
1361798461.75,1.4301543333333333,31.31,85.14083336874667,9.404322916666667,61.57301759460626
1361798462.0,1.4278053750000002,31.31,85.21,8.762682291666666,61.55186693231747
1361798462.25,1.4254564166666668,31.31,85.28416662869333,7.420156250000001,61.54176537864304
1361798462.5,1.4232142083333335,31.31,85.35833333333332,6.644296874999999,61.53339935997351
1361798462.75,1.4209719583333333,31.310833333333335,85.43250003797333,5.376432291666666,61.52985054853108
1361798463.0,1.4188899166666664,31.3125,85.50666666666666,4.285520833333333,61.52520388521322
1361798463.25,1.4168612916666667,31.314166666666665,85.58583329279999,4.676666666666667,61.52473921888143
1361798463.5,1.4146725,31.31583333333333,85.66499999999999,4.258619791666667,61.53908759348178
1361798463.75,1.4124303333333332,31.317499999999995,85.74416670720001,3.5571875,61.57268394438336
1361798464.0,1.4103482916666668,31.319166666666664,85.82333333333334,3.7888802083333335,61.61321828671837
1361798464.25,1.4084263750000001,31.32083333333333,85.88833330005333,4.211015625,61.65375262905339
1361798464.5,1.406557875,31.322499999999994,85.95333333333333,5.469401041666667,61.69441415110538
1361798464.75,1.4047961666666666,31.324166666666667,86.01833336661333,6.83921875,61.73562678526421
1361798465.0,1.4031945833333335,31.325833333333335,86.08333333333333,7.434921875000001,61.775653702628176
1361798465.25,1.4014862083333333,31.3275,86.13416664064,8.616302083333332,61.8046315113778
1361798465.5,1.3996710833333335,31.329166666666666,86.185,9.551328125,61.831873785122504
1361798465.75,1.3977492083333332,31.33,86.23583335936,10.239921875,61.85818470150627
1361798466.0,1.3956671666666667,31.33,86.28666666666668,11.144921875000001,61.88373813937559
1361798466.25,1.3937986666666669,31.33,86.32249998165334,11.234531250000002,61.89828950024991
1361798466.5,1.3921437083333332,31.33,86.35833333333335,11.44140625,61.88305135349659
1361798466.75,1.3905421249999999,31.33,86.39416668501335,12.1040625,61.82819028328276
1361798467.0,1.3887804166666669,31.33,86.43,12.065911458333332,61.76862967251163
1361798467.25,1.3867517916666667,31.33,86.46916664661333,11.761744791666667,61.709069061740514
1361798467.5,1.384616375,31.33,86.50833333333333,11.311302083333333,61.64950845096939
1361798467.75,1.3822673749999999,31.33,86.54750002005333,10.624895833333333,61.58994784019827
1361798468.0,1.3796514583333332,31.33,86.58666666666666,10.310338541666665,61.53038722942714
1361798468.25,1.377142375,31.33,86.62583331328,9.908671875,61.471762000848635
