timestamp,EDA,TEMP,HR,BVP,ACC_mag
1361814008.0,1.9816832500000003,31.71,,13.807343750000001,63.535832988176416
1361814008.25,2.103117214285714,31.71,,13.427723214285715,63.53605549936554
1361814008.5,2.2562945,31.71,,13.1430078125,63.53616089940249
1361814008.75,2.430771388888889,31.71111111111111,,12.752222222222223,63.536188225338
1361814009.0,2.6202438,31.713,,12.0129375,63.53591496598293
1361814009.25,2.8206255454545457,31.714545454545455,,11.26059659090909,63.53537838397662
1361814009.5,3.0291920416666667,31.715833333333336,,10.492760416666666,63.53489024340143
1361814009.75,3.3979006666666667,31.718333333333334,,10.135885416666666,63.53439837656231
1361814010.0,3.7899434583333336,31.721666666666664,,9.669973958333333,63.53407046533622
1361814010.25,4.203663583333333,31.724999999999998,,8.671901041666667,63.53374255411015
1361814010.5,4.6390625000000005,31.728333333333335,,6.776692708333332,63.53333266507755
1361814010.75,5.095685125,31.7325,,5.040598958333333,63.53288178714168
1361814011.0,5.573540416666667,31.7375,,3.8429427083333327,63.53222596468953
1361814011.25,6.072680458333333,31.742499999999996,,2.840130208333333,63.53157014223736
1361814011.5,6.570396083333333,31.747500000000002,,1.901015625,63.53095530868847
1361814011.75,7.048786458333333,31.752499999999998,,0.93203125,63.528246465072776
1361814012.0,7.490451041666667,31.757500000000004,,0.17234374999999993,63.528246465072776
1361814012.25,7.893793166666668,31.7625,,-0.549140625,63.52976177350859
1361814012.5,8.257368666666666,31.7675,,-1.2459635416666668,63.54036454626879
1361814012.75,8.580142458333333,31.771666666666665,,-1.9881770833333332,63.55922767717556
1361814013.0,8.862335708333333,31.775000000000002,,-2.55921875,63.58963562315742
1361814013.25,9.103255,31.778333333333336,,-3.075885416666667,63.61849315725891
1361814013.5,9.303966541666666,31.781666666666666,,-3.5915104166666665,63.6543594977281
1361814013.75,9.466629625,31.784999999999997,,-3.9848958333333333,63.74401558004099
1361814014.0,9.590487916666667,31.78833333333333,,-4.325078125,63.87682698261244
1361814014.25,9.675431208333332,31.791666666666668,,-4.985677083333333,64.04681546225665
1361814014.5,9.723921125,31.795,,-5.800416666666667,64.25078558579355
1361814014.75,9.754609624999999,31.798333333333332,,-6.495520833333334,64.43552578389269
1361814015.0,9.786215125,31.801666666666662,,-6.917317708333333,64.5995150351464
1361814015.25,9.819904,31.805000000000003,,-6.635781250000001,64.73905386845256
1361814015.5,9.853646249999999,31.808333333333334,,-5.67921875,64.87955798264842
1361814015.75,9.88658775,31.811666666666664,,-4.294427083333333,65.00130856854722
1361814016.0,9.918514916666666,31.814999999999998,,-3.2999739583333336,65.11514616424401
1361814016.25,9.95012175,31.81833333333333,,-2.7727083333333336,65.21381198630844
1361814016.5,9.980340583333334,31.82166666666667,,-2.340494791666667,65.28840563615445
1361814016.75,10.007035958333335,31.825,,-2.162213541666667,65.29578508767604
1361814017.0,10.03095525,31.828333333333333,,-1.777578125,65.26977749988843
1361814017.25,10.051831541666667,31.831666666666667,,-0.9630468750000002,65.2174350703286
1361814017.5,10.069184416666667,31.834999999999997,,0.03466145833333322,65.11295451838394
1361814017.75,10.082159708333334,31.837500000000002,,1.024921875,65.0433312893734
1361814018.0,10.089368041666667,31.839166666666667,83.0,1.930208333333333,64.9978640982789
1361814018.25,10.095187000000001,31.840833333333332,82.33333367466666,2.4071614583333334,64.97942872443592
1361814018.5,10.114299041666667,31.8425,81.66666666666666,2.3468229166666665,64.94941807581249
1361814018.75,10.154253833333334,31.845,80.99999965866667,1.73359375,64.92404256648949
1361814019.0,10.214090416666668,31.848333333333333,80.33333333333333,1.2954687500000002,64.89679588299707
1361814019.25,10.288661416666667,31.851666666666663,79.33333384533333,1.28921875,64.8982523388648
1361814019.5,10.371577958333335,31.855,78.33333333333333,1.3768749999999998,64.91849679197078
1361814019.75,10.458409041666668,31.858333333333334,77.33333282133333,1.93140625,64.95864442572021
1361814020.0,10.548122916666667,31.861666666666668,76.33333333333333,2.493984375,64.98858425628725
1361814020.25,10.640132375,31.865,75.27750054058666,2.804114583333334,65.00140480947525
1361814020.5,10.7334765,31.868333333333336,74.22166666666666,3.1094270833333333,65.02890034593729
1361814020.75,10.827407833333334,31.8725,73.16583279274667,3.6031770833333336,65.04166249823226
1361814021.0,10.921339166666668,31.8775,72.11,3.924505208333333,65.04855664926048
1361814021.25,11.01132,31.882500000000004,71.72083353258667,4.1019531250000005,65.05296211443722
1361814021.5,11.086139291666667,31.8875,71.33166666666666,4.208020833333333,65.0582104983206
1361814021.75,11.140115833333333,31.89166666666667,70.94249980074666,4.292916666666667,65.07031769877382
1361814022.0,11.174210583333334,31.895,70.55333333333333,4.664166666666667,65.07889900738806
1361814022.25,11.192343000000001,31.898333333333337,70.60083330901332,5.062395833333333,65.0752972559971
1361814022.5,11.202129874999999,31.901666666666667,70.64833333333333,5.380911458333333,65.0696943582104
1361814022.75,11.208002208333333,31.905,70.69583335765333,5.506875000000001,65.05761462849999
1361814023.0,11.21099175,31.90833333333333,70.74333333333333,5.380781249999999,65.0459744210226
1361814023.25,11.211685708333333,31.911666666666665,70.9141665792,5.153619791666666,65.0406512984075
1361814023.5,11.211044999999999,31.915000000000003,71.085,4.63390625,65.03917005606421
1361814023.75,11.216009791666666,31.917500000000004,71.25583342079999,3.9108072916666665,65.03917005606421
1361814024.0,11.23747075,31.919166666666666,71.42666666666666,3.3551041666666666,65.03917005606421
1361814024.25,11.280672416666667,31.92083333333333,71.63999989077332,2.7652604166666666,65.03780891371495
1361814024.5,11.342945458333332,31.9225,71.85333333333332,2.1773177083333333,65.03656772937245
1361814024.75,11.416884791666666,31.924999999999997,72.06666677589332,1.7671354166666668,65.03432575931016
1361814025.0,11.497418833333333,31.92833333333333,72.27999999999999,1.214322916666667,65.03368507477016
1361814025.25,11.58152975,31.93166666666667,72.43249992191998,0.7038020833333333,65.03228342107901
1361814025.5,11.666708374999999,31.935000000000002,72.585,0.31734375000000004,65.03124213823618
1361814025.75,11.752207333333333,31.9375,72.73750007808,-0.1557552083333333,65.02996054186904
1361814026.0,11.840482333333334,31.939166666666665,72.89,-0.5828385416666667,65.02867894550191
1361814026.25,11.937832875,31.94083333333333,73.00249994240001,-0.7303385416666667,65.02735730635104
1361814026.5,12.049887208333336,31.9425,73.11500000000001,-0.6035416666666666,65.0256752821464
1361814026.75,12.169224791666666,31.944999999999997,73.2275000576,-0.39130208333333333,65.02375300123927
1361814027.0,12.280768083333333,31.948333333333327,73.34,-0.16489583333333338,65.02183072033215
1361814027.25,12.371318041666667,31.951666666666668,73.43916661589334,-0.03640625000000003,65.01986836822365
1361814027.5,12.442796625000001,31.955,73.53833333333333,0.14583333333333331,65.01858677185653
1361814027.75,12.502608916666668,31.9575,73.63750005077333,0.29802083333333335,65.01782580270537
1361814028.0,12.555826500000002,31.959166666666665,73.73666666666666,0.350546875,65.01998726193194
1361814028.25,12.606695125000002,31.96083333333333,73.83166661802667,0.43552083333333336,65.03023065888762
1361814028.5,12.656496041666669,31.962499999999995,73.92666666666668,0.4851302083333333,65.03987464626086
1361814028.75,12.700424500000002,31.965,74.02166671530667,0.45531249999999995,65.05223694140369
1361814029.0,12.739174583333332,31.968333333333334,74.11666666666667,0.421171875,65.06555839436358
1361814029.25,12.768849125000001,31.971666666666668,74.24666660010668,0.25593749999999993,65.08171616398751
1361814029.5,12.783819875,31.974999999999994,74.37666666666667,0.0518489583333333,65.09867232971159
1361814029.75,12.785314666666666,31.977499999999996,74.50666673322667,0.0362239583333333,65.11447021116247
1361814030.0,12.778107583333332,31.979166666666668,74.63666666666667,-0.14914062500000005,65.1341006935115
1361814030.25,12.770153125,31.980833333333333,74.77999992661334,-0.377421875,65.1557669570538
1361814030.5,12.765081499999999,31.9825,74.92333333333335,-0.6323697916666666,65.177353106611
1361814030.75,12.765882291666665,31.984583333333333,75.06666674005334,-0.6131770833333333,65.19694245476062
1361814031.0,12.771968249999999,31.987083333333334,75.21000000000001,-0.37338541666666664,65.21707788804333
1361814031.25,12.781684416666666,31.989583333333332,75.35749992448001,-0.34833333333333333,65.23464870789452
1361814031.5,12.796178124999999,31.992083333333337,75.505,-0.483203125,65.24565404086111
1361814031.75,12.819933791666665,31.995,75.65250007552,-0.4604166666666667,65.28419843374805
1361814032.0,12.850522791666668,31.99833333333333,75.8,-0.23596354166666667,65.32004021894127
1361814032.25,12.897020708333335,32.001666666666665,75.91833327274666,0.08440104166666668,65.33263000179618
1361814032.5,12.963057749999999,32.004999999999995,76.03666666666666,0.40036458333333336,65.34033622021035
1361814032.75,13.054803833333333,32.00833333333333,76.15500006058666,0.48434895833333336,65.35594223798748
1361814033.0,13.173408041666667,32.01166666666666,76.27333333333333,0.689765625,65.36430284993894
1361814033.25,13.301649583333335,32.015,76.37833327957333,1.0809635416666667,65.36093507727199
1361814033.5,13.427008291666667,32.01833333333333,76.48333333333332,1.6063541666666667,65.364357256943
1361814033.75,13.546494583333333,32.02291666666667,76.58833338709333,1.7694010416666666,65.36506749084408
1361814034.0,13.660695708333336,32.028749999999995,76.69333333333333,1.7164322916666668,65.35141303509451
1361814034.25,13.771266625,32.03458333333333,76.78166662144,1.8146614583333334,65.33352200166514
1361814034.5,13.87706,32.040416666666665,76.87,2.2061197916666666,65.32994542058293
1361814034.75,13.976581041666668,32.045,76.95833337856,2.5322916666666666,65.29271788921825
1361814035.0,14.064944500000001,32.04833333333334,77.04666666666667,2.6484114583333334,65.26593899945239
1361814035.25,14.132434166666668,32.05166666666667,77.12499995989333,2.637734375,65.2598150921652
1361814035.5,14.176487583333333,32.055,77.20333333333335,2.574479166666667,65.25897283724078
1361814035.75,14.192589791666668,32.05833333333333,77.28166670677335,2.409453125,65.25114977042213
1361814036.0,14.181620333333335,32.06166666666667,77.36000000000001,2.2623697916666665,65.2455430245089
1361814036.25,14.161013541666668,32.065,77.41833330346668,2.161640625,65.24970899600591
1361814036.5,14.140406750000002,32.068333333333335,77.47666666666669,1.8657031249999998,65.24612734103343
1361814036.75,14.119799958333333,32.07083333333333,77.53500002986668,1.72,65.24258269268637
1361814037.0,14.099193166666668,32.0725,77.59333333333335,1.7907552083333333,65.24801786419796
1361814037.25,14.078586375,32.07416666666667,77.62749998250668,1.8431510416666665,65.25329299269491
1361814037.5,14.058299875000001,32.075833333333335,77.66166666666668,1.6385416666666666,65.25125905898396
1361814037.75,14.041536791666667,32.07833333333333,77.69583335082667,1.5629166666666665,65.25289916321364
1361814038.0,14.032621375,32.08166666666667,77.73,1.5664322916666666,65.2442759170863
1361814038.25,14.029578416666666,32.085,77.74083332778667,1.5771875,65.2330558186917
1361814038.5,14.031446916666667,32.08833333333333,77.75166666666667,1.6415885416666667,65.2188402858599
1361814038.75,14.036518541666668,32.09166666666667,77.76250000554667,2.0702083333333334,65.20486404983255
1361814039.0,14.042284208333335,32.095000000000006,77.77333333333334,2.3706510416666666,65.19208429782732
1361814039.25,14.048316791666666,32.098333333333336,77.7691666688,2.3883072916666666,65.17930454582209
1361814039.5,14.054936583333332,32.10166666666667,77.765,2.809973958333334,65.16748246794839
1361814039.75,14.06230375,32.104166666666664,77.7608333312,3.1432291666666665,65.15981150341078
1361814040.0,14.070044625000001,32.10583333333334,77.75666666666666,3.06609375,65.15405689515435
1361814040.25,14.078212583333332,32.107499999999995,77.74166667434666,3.07015625,65.14806268079722
1361814040.5,14.086861041666667,32.10916666666667,77.72666666666666,3.299322916666666,65.14230807254079
1361814040.75,14.095189208333332,32.11083333333333,77.71166665898666,3.1576822916666667,65.13659340802805
1361814041.0,14.102769958333333,32.1125,77.69666666666666,2.9859375000000004,65.13243690215016
1361814041.25,14.110457458333334,32.11416666666667,77.65416668842666,3.1878645833333334,65.13063795173512
1361814041.5,14.120707458333335,32.115833333333335,77.61166666666665,3.236171875,65.13063795173512
1361814041.75,14.136776500000002,32.11833333333333,77.56916664490666,2.897473958333333,65.13063795173512
1361814042.0,14.160105999999999,32.12166666666666,77.52666666666666,2.94390625,65.13063795173512
1361814042.25,14.18984175,32.125,77.47083336192,3.17609375,65.13063795173512
1361814042.5,14.222562666666668,32.12833333333334,77.41499999999999,2.7896875,65.13063795173512
1361814042.75,14.2555995,32.13166666666667,77.35916663808,2.613385416666667,65.13063795173512
1361814043.0,14.289330333333332,32.135,77.30333333333334,2.9874739583333336,65.13063795173512
1361814043.25,14.323808541666667,32.138333333333335,77.23833336661335,2.9930729166666663,65.13063795173512
1361814043.5,14.358607041666666,32.141666666666666,77.17333333333335,2.803203125,65.13063795173512
1361814043.75,14.393458958333333,32.14458333333334,77.10833330005333,3.2630208333333335,65.13063795173512
1361814044.0,14.428364291666668,32.147083333333335,77.04333333333334,3.7038541666666664,65.13063795173512
1361814044.25,14.462895916666668,32.14958333333333,76.9891666944,3.558828125,65.13063795173512
1361814044.5,14.495131999999998,32.15208333333333,76.935,3.629453125,65.13063795173512
1361814044.75,14.522509958333332,32.153749999999995,76.8808333056,4.053880208333333,65.13063795173512
1361814045.0,14.543107874999999,32.15458333333333,76.82666666666667,4.023854166666667,65.13063795173512
1361814045.25,14.557139375,32.15541666666666,76.77583335936,3.9036458333333335,65.13063795173512
1361814045.5,14.569947499999998,32.15624999999999,76.725,4.237630208333333,65.13063795173512
1361814045.75,14.589273083333334,32.157916666666665,76.67416664064,4.472942708333334,65.13063795173512
1361814046.0,14.617941083333335,32.16041666666666,76.62333333333333,4.2058333333333335,65.13063795173512
1361814046.25,14.652382666666668,32.16291666666667,76.57416669184,4.258671875,65.13063795173512
1361814046.5,14.685703166666665,32.165416666666665,76.525,4.63,65.13063795173512
1361814046.75,14.718329625,32.168749999999996,76.47583330815999,4.4780468749999995,65.13063795173512
1361814047.0,14.750529,32.172916666666666,76.42666666666666,4.094062500000001,65.13063795173512
1361814047.25,14.782087749999997,32.177083333333336,76.37500002645334,4.245520833333333,65.13063795173512
1361814047.5,14.812365208333333,32.18125,76.32333333333334,4.4308072916666665,65.13063795173512
1361814047.75,14.842650625,32.18541666666666,76.27166664021334,4.069895833333333,65.13063795173512
1361814048.0,14.871975125,32.18958333333334,76.22000000000001,3.831041666666667,65.13063795173512
1361814048.25,14.901192875,32.19375,76.16416669525334,3.9542187500000003,65.13063795173512
1361814048.5,14.928061624999998,32.197916666666664,76.10833333333335,3.897682291666667,65.13063795173512
1361814048.75,14.947349625,32.20125,76.05249997141334,3.425546875,65.12959780350086
1361814049.0,14.956227499999999,32.20375,75.99666666666667,3.09359375,65.07665209344758
1361814049.25,14.963389166666666,32.206250000000004,75.9383333632,3.0615104166666662,65.00099450078751
1361814049.5,14.97781125,32.20875,75.88,2.482291666666667,64.91856115977964
1361814049.75,14.993567958333331,32.21083333333333,75.8216666368,2.0818749999999997,64.81319975703799
1361814050.0,15.009324666666664,32.2125,75.76333333333334,2.0802083333333337,64.68227250120218
1361814050.25,15.025081375,32.214166666666664,75.70416669696,1.531953125,64.54950188576595
1361814050.5,15.040838083333334,32.21583333333333,75.64500000000001,0.8380729166666668,64.413984043275
1361814050.75,15.054664958333333,32.218333333333334,75.58583330304,0.7801302083333334,64.27731792190825
1361814051.0,15.068491833333333,32.221666666666664,75.52666666666667,0.585625,64.144547306472
1361814051.25,15.080129916666666,32.225,75.46583336448,0.0720572916666667,64.01177669103578
1361814051.5,15.089419,32.22833333333333,75.405,-0.3444791666666666,63.879006075599555
1361814051.75,15.096252333333334,32.23166666666666,75.34416663552,-0.31765625,63.747275608397565
1361814052.0,15.101430749999999,32.235,75.28333333333333,0.05315104166666671,63.667450703014616
1361814052.25,15.101377333333332,32.23833333333333,75.22083336533333,-0.007786458333333278,63.61033768023844
1361814052.5,15.094063499999999,32.24166666666667,75.15833333333333,0.19458333333333336,63.56000040581009
1361814052.75,15.085415041666666,32.245,75.09583330133333,0.36770833333333336,63.53259119311551
1361814053.0,15.076766583333333,32.248333333333335,75.03333333333333,0.4315104166666666,63.53074783351507
1361814053.25,15.068118124999998,32.251666666666665,74.97000003242667,0.833671875,63.53074783351507
1361814053.5,15.064007458333334,32.255,74.90666666666667,1.3132291666666667,63.5334950605698
1361814053.75,15.072762708333334,32.25833333333333,74.84333330090666,1.460703125,63.53739056650029
1361814054.0,15.098227625,32.26166666666667,74.78,1.8065364583333334,63.53739056650029
1361814054.25,15.1454125,32.265,74.72000003072,2.2305729166666666,63.53739056650029
1361814054.5,15.209591083333335,32.26833333333334,74.66,2.6487239583333335,63.53681650843691
1361814054.75,15.277691833333334,32.2725,74.59999996928,2.932109375,63.533085131024926
1361814055.0,15.347447500000001,32.2775,74.54,2.8365364583333332,63.52849266651785
1361814055.25,15.417203166666667,32.282500000000006,74.48750002688,3.0202343750000007,63.52390020201079
1361814055.5,15.486958833333333,32.2875,74.435,3.2725000000000004,63.51930773750373
1361814055.75,15.5567145,32.29166666666667,74.38249997312,3.2661197916666667,63.51471527299665
1361814056.0,15.62647016666667,32.295,74.33,3.4178645833333334,63.5101228084896
1361814056.25,15.692702375000001,32.29833333333334,74.28750002176,3.6363802083333336,63.50553034398252
1361814056.5,15.752368124999998,32.30166666666667,74.245,3.524192708333333,63.50093787947546
1361814056.75,15.799167958333335,32.30416666666667,74.20249997824001,3.5112239583333333,63.4963454149684
1361814057.0,15.829258125,32.30583333333333,74.16000000000001,3.6295052083333332,63.491752950461326
1361814057.25,15.839817125000001,32.307500000000005,74.12583335082667,3.5239062499999996,63.48716048595427
1361814057.5,15.835731416666667,32.30916666666667,74.09166666666667,3.3865364583333335,63.49458859684319
1361814057.75,15.830179291666667,32.310833333333335,74.05749998250667,3.482239583333333,63.527772983483935
1361814058.0,15.825961833333336,32.3125,74.02333333333333,3.5691666666666664,63.55842972262545
1361814058.25,15.825161083333334,32.314166666666665,73.99333334869333,3.4537760416666665,63.599252665549876
1361814058.5,15.826068625,32.31583333333333,73.96333333333334,3.443515625,63.641133894296104
1361814058.75,15.826976166666666,32.31791666666667,73.93333331797334,3.6298437500000005,63.68244535719518
1361814059.0,15.827883708333331,32.32041666666667,73.90333333333334,3.5751822916666662,63.725181234712146
1361814059.25,15.832314708333334,32.322916666666664,73.88333334357334,3.4571354166666666,63.76706246345838
1361814059.5,15.838774375,32.32541666666666,73.86333333333334,3.6273958333333334,63.80837392635744
1361814059.75,15.845234041666666,32.32791666666667,73.84333332309333,3.7428385416666665,63.84813858346008
1361814060.0,15.850892958333333,32.330416666666665,73.82333333333334,3.76234375,63.88859539758841
1361814060.25,15.855964583333334,32.33291666666667,73.81333333845333,4.002083333333334,63.926274388275594
1361814060.5,15.861036208333331,32.33541666666667,73.80333333333334,4.230729166666666,63.953808602775304
1361814060.75,15.866107833333333,32.33833333333333,73.79333332821334,4.263776041666667,63.95625092035423
1361814061.0,15.869844791666665,32.34166666666667,73.78333333333333,4.410234375,63.97182772576878
1361814061.25,15.870165041666667,32.345000000000006,73.78666666496,4.553072916666666,63.97565170333169
1361814061.5,15.868777,32.348333333333336,73.78999999999999,4.632161458333333,63.966481567174505
1361814061.75,15.867549124999998,32.35208333333333,73.79333333504,4.7475781249999995,63.96445370196836
1361814062.0,15.868189708333333,32.35625,73.79666666666667,4.821744791666666,63.97006686776575
1361814062.25,15.875983958333334,32.360416666666666,73.80416666282667,4.9375,63.9644474215053
1361814062.5,15.895950166666665,32.364583333333336,73.81166666666667,5.0315625,63.941266849849114
1361814062.75,15.929529749999999,32.36875,73.81916667050666,4.936328125,63.90150219274648
1361814063.0,15.973071166666665,32.37291666666667,73.82666666666667,4.935546875,63.861045378618144
1361814063.25,16.017285375,32.37708333333333,73.83833332736,4.959583333333333,63.84656494252417
1361814063.5,16.061499583333333,32.38125,73.85,4.751145833333333,63.85422531164426
1361814063.75,16.105713791666666,32.384166666666665,73.86166667264,4.656979166666667,63.8631521966511
1361814064.0,16.149928,32.38583333333333,73.87333333333333,4.703723958333334,63.825108845653915
1361814064.25,16.194142208333336,32.387499999999996,73.88416666112,4.62625,63.80630869667707
1361814064.5,16.23835641666667,32.38916666666666,73.89500000000001,4.486822916666666,63.79723413839219
1361814064.75,16.27995475,32.39083333333333,73.90583333888,4.3540624999999995,63.797013683160856
1361814065.0,16.319684625000004,32.3925,73.91666666666667,4.121015625,63.781126431952906
1361814065.25,16.352260833333336,32.39416666666667,73.92916666026667,3.8407812499999996,63.79439203283701
1361814065.5,16.372665083333334,32.395833333333336,73.94166666666666,3.7860156249999997,63.82968878472078
1361814065.75,16.379455958333335,32.39833333333333,73.95416667306667,3.6678125,63.90639865372966
1361814066.0,16.377085750000003,32.401666666666664,73.96666666666667,3.084817708333333,64.00620482172809
1361814066.25,16.376231583333336,32.405,73.98166665898667,2.672135416666667,64.10197842925017
1361814066.5,16.377833125000002,32.40833333333334,73.99666666666666,2.3022395833333333,64.17944655859655
1361814066.75,16.3802355,32.41166666666667,74.01166667434666,1.5649479166666664,64.25818110338761
1361814067.0,16.383919125000002,32.415,74.02666666666666,0.7027343749999999,64.38639428567156
1361814067.25,16.387762916666667,32.41833333333333,74.04249999189332,-0.19322916666666676,64.50246073013193
1361814067.5,16.391606708333335,32.42166666666667,74.05833333333334,-1.0014583333333333,64.63215662451042
1361814067.75,16.398226458333337,32.424166666666665,74.07416667477334,-1.2251822916666666,64.74531018222878
1361814068.0,16.403831916666665,32.42583333333334,74.09,-1.0754427083333333,64.86490559650632
1361814068.25,16.408956958333334,32.4275,74.10416665941334,-1.56375,64.96743541952037
1361814068.5,16.414082,32.42916666666667,74.11833333333334,-2.1384374999999998,65.07633648290147
1361814068.75,16.419207041666667,32.43,74.13250000725333,-2.0848697916666667,65.15877072771976
1361814069.0,16.424812499999998,32.43,74.14666666666666,-1.5502604166666665,65.21806880009949
1361814069.25,16.429777291666667,32.43,74.15666666154667,-1.3196354166666666,65.2550162856818
1361814069.5,16.433567666666665,32.43,74.16666666666666,-0.9295312500000001,65.2879015251238
1361814069.75,16.43655720833333,32.43083333333333,74.17666667178666,-0.264375,65.32711595911309
1361814070.0,16.439813708333332,32.432500000000005,74.18666666666667,0.43445312499999994,65.35296154288001
1361814070.25,16.448408791666665,32.43416666666667,74.19499999573334,1.3319010416666666,65.36310553329307
1361814070.5,16.466720041666665,32.435833333333335,74.20333333333333,2.0594010416666664,65.35680214131203
1361814070.75,16.495228,32.4375,74.21166667093333,2.2840624999999997,65.34734346631576
1361814071.0,16.527579666666668,32.439166666666665,74.22,2.4146354166666666,65.33652566085271
1361814071.25,16.560678666666664,32.44083333333334,74.22833332906667,3.1380729166666668,65.32223044824623
1361814071.5,16.594791999999998,32.4425,74.23666666666666,3.596015625,65.295823652249
1361814071.75,16.630827208333333,32.445,74.24500000426666,3.5639843750000004,65.27719961331067
1361814072.0,16.668357291666666,32.44833333333333,74.25333333333333,3.324088541666667,65.255138564081
1361814072.25,16.70546033333333,32.45166666666667,74.2616666624,3.0708854166666666,65.23674174278474
1361814072.5,16.742776875,32.455000000000005,74.27000000000001,2.9570833333333333,65.21615057342795
1361814072.75,16.78030695833333,32.458333333333336,74.2783333376,2.912864583333334,65.1906296335455
1361814073.0,16.81527445833333,32.46166666666667,74.28666666666668,2.632942708333333,65.16562365418243
1361814073.25,16.843995833333334,32.464999999999996,74.29249999701334,2.4523437500000003,65.1538871710846
1361814073.5,16.86054533333333,32.468333333333334,74.29833333333335,2.3997395833333335,65.14713868806182
1361814073.75,16.86396195833333,32.47166666666667,74.30416666965334,1.9789322916666665,65.14685911012641
1361814074.0,16.864549166666666,32.475,74.31,1.3093229166666667,65.14873739740526
1361814074.25,16.864869458333335,32.47833333333333,74.31249999872,0.6798697916666666,65.15421289487789
1361814074.5,16.861826416666666,32.48166666666667,74.315,0.267421875,65.16248690002033
1361814074.75,16.85275083333333,32.48458333333334,74.31750000128,0.130859375,65.1666419529859
1361814075.0,16.837429166666666,32.48708333333334,74.32,-0.03934895833333333,65.17463329884289
1361814075.25,16.81756975,32.489583333333336,74.32,-0.05190104166666667,65.18214500944703
1361814075.5,16.793065791666667,32.49208333333333,74.32,-0.07335937499999999,65.19077624606851
1361814075.75,16.766533208333332,32.49375,74.32,-0.3130208333333333,65.1979680678545
1361814076.0,16.740534541666666,32.49458333333334,74.32,-0.3872916666666666,65.20939151620114
1361814076.25,16.71528325,32.49541666666667,74.30833333930666,-0.4751302083333333,65.2177372215083
1361814076.5,16.692487666666665,32.49625,74.29666666666665,-0.66703125,65.22640247269875
1361814076.75,16.672307999999997,32.498333333333335,74.28499999402666,-0.3464583333333333,65.23362804366147
1361814077.0,16.652128333333334,32.501666666666665,74.27333333333333,0.288984375,65.24041383446253
1361814077.25,16.631948666666666,32.505,74.26166667263999,0.9695052083333334,65.24879403065664
1361814077.5,16.622926625,32.50833333333333,74.25,1.5567708333333332,65.26032132544222
1361814077.75,16.632269166666667,32.51125,74.23833332736001,1.918671875,65.27599083843587
1361814078.0,16.656025791666668,32.513749999999995,74.22666666666667,2.338671875,65.30660622246185
1361814078.25,16.69588020833333,32.51625,74.22666666666667,2.75125,65.33217749768565
1361814078.5,16.747401375,32.518750000000004,74.22666666666667,3.027265625,65.35488657618498
1361814078.75,16.802179,32.522083333333335,74.22666666666667,3.4271354166666668,65.37544901816112
1361814079.0,16.858184458333334,32.52625,74.22666666666667,3.922083333333333,65.39381191030228
1361814079.25,16.914670416666667,32.53041666666667,74.25083332096,4.371197916666667,65.41050352787853
1361814079.5,16.97831004166667,32.53458333333333,74.275,4.88796875,65.42528454902684
1361814079.75,17.054815625,32.5375,74.29916667904,5.19078125,65.43815400230564
1361814080.0,17.138973500000002,32.53916666666667,74.32333333333332,5.254791666666667,65.45162006531038
1361814080.25,17.223131375,32.54083333333333,74.34749998762666,5.13734375,65.44648747386168
1361814080.5,17.298480625,32.5425,74.37166666666667,5.153359375,65.44249005192566
1361814080.75,17.359575958333334,32.54416666666666,74.39583334570666,5.262734375,65.44057900780214
1361814081.0,17.410528,32.545833333333334,74.42,5.3855208333333335,65.4085695973409
1361814081.25,17.449386166666667,32.5475,74.42833332906667,5.440911458333333,65.39783097870874
1361814081.5,17.47750320833333,32.54916666666666,74.43666666666667,5.432786458333333,65.38887935914663
1361814081.75,17.49542358333333,32.55083333333333,74.44500000426666,5.397369791666667,65.3867313341636
1361814082.0,17.50159920833333,32.5525,74.45333333333333,5.175833333333334,65.37873294218396
1361814082.25,17.497364583333333,32.55416666666667,74.43333334357334,4.909713541666667,65.37172882983911
1361814082.5,17.47940983333333,32.55583333333333,74.41333333333333,4.66390625,65.3664356005461
1361814082.75,17.443944666666667,32.55833333333333,74.39333332309333,4.421197916666666,65.36229572578083
1361814083.0,17.398638375,32.56166666666667,74.37333333333333,4.230390625,65.35735978049985
1361814083.25,17.352798166666666,32.565,74.34083334997334,4.13125,65.3700250796652
1361814083.5,17.306904625,32.568333333333335,74.30833333333334,3.889791666666667,65.378644350384
1361814083.75,17.261011083333333,32.571666666666665,74.27583331669334,3.6132812499999996,65.38043634647472
1361814084.0,17.215117541666668,32.574999999999996,74.24333333333334,3.3533333333333335,65.39522943262905
1361814084.25,17.169224,32.57833333333333,74.21000001706668,3.1016666666666666,65.39379583575648
1361814084.5,17.125554583333336,32.58166666666667,74.17666666666668,2.9333854166666664,65.39343743653833
1361814084.75,17.090640458333336,32.585,74.14333331626666,2.8239062500000003,65.38842207926427
1361814085.0,17.067257625,32.58833333333334,74.11,2.8451822916666667,65.38782474723403
1361814085.25,17.055245958333334,32.59166666666667,74.0850000128,2.9014843749999994,65.38790441013388
1361814085.5,17.05118875,32.595,74.06,2.8764322916666667,65.38790441013388
1361814085.75,17.052790291666664,32.597500000000004,74.0349999872,2.4675,65.38790441013388
1361814086.0,17.05818220833333,32.59916666666667,74.00999999999999,2.2671614583333333,65.38790441013388
1361814086.25,17.066243458333332,32.600833333333334,73.99083334314666,2.4129166666666664,65.3871876116976
1361814086.5,17.076600291666665,32.6025,73.97166666666666,2.53,65.38527614920082
1361814086.75,17.090106875,32.605,73.95249999018667,2.35171875,65.3734746316596
1361814087.0,17.108898541666665,32.60833333333333,73.93333333333334,2.248203125,65.35791906067273
1361814087.25,17.13286858333333,32.61166666666667,73.91083334485334,2.267734375,65.34196405224908
1361814087.5,17.159294416666665,32.615,73.88833333333335,1.9435416666666665,65.32600904382547
1361814087.75,17.186467708333332,32.6175,73.86583332181334,1.6067708333333333,65.31005403540182
1361814088.0,17.217377875,32.619166666666665,73.84333333333335,1.60734375,65.29409902697819
1361814088.25,17.258591458333335,32.62083333333333,73.81583334741335,1.3986979166666667,65.27814401855456
1361814088.5,17.314646291666666,32.6225,73.78833333333334,1.1358593750000001,65.26218901013091
1361814088.75,17.383567083333332,32.62416666666667,73.76083331925334,1.5831250000000001,65.24623400170728
1361814089.0,17.4539965,32.62583333333333,73.73333333333333,1.8265104166666666,65.23027899328365
1361814089.25,17.5222905,32.627500000000005,73.68750002346667,1.408125,65.21432398486002
1361814089.5,17.58834225,32.62916666666667,73.64166666666667,1.1005729166666667,65.19836897643638
1361814089.75,17.65124425,32.63125,73.59583330986666,1.4065364583333333,65.19242348946324
1361814090.0,17.708861166666665,32.63375,73.55,1.6045572916666666,65.18730735899405
1361814090.25,17.7641825,32.63625,73.487500032,1.6008854166666666,65.17855202597173
1361814090.5,17.818129416666668,32.638749999999995,73.425,2.1872135416666665,65.1689564894775
1361814090.75,17.871328875,32.64208333333333,73.362499968,2.729270833333334,65.15936095298326
1361814091.0,17.92025754166667,32.64625,73.3,2.7696354166666666,65.14976541648905
1361814091.25,17.957441375,32.650416666666665,73.23166670165334,3.122421875,65.14016987999482
1361814091.5,17.978395958333333,32.654583333333335,73.16333333333333,3.620104166666667,65.13057434350058
1361814091.75,17.98595079166667,32.658750000000005,73.09499996501333,3.5396875,65.12097880700637
1361814092.0,17.990395458333335,32.66291666666667,73.02666666666667,3.513802083333333,65.11138327051215
1361814092.25,17.994840125,32.66708333333333,72.96583336448,3.9926041666666667,65.10178773401792
1361814092.5,17.999284791666664,32.67124999999999,72.905,4.2328125,65.09219219752369
1361814092.75,18.003729458333336,32.67541666666667,72.84416663552,4.114609375,65.08259666102946
1361814093.0,18.008174125,32.67958333333333,72.78333333333333,4.295338541666667,65.07771781756767
1361814093.25,18.007226875,32.683749999999996,72.72916669439999,4.44140625,65.07687761409578
1361814093.5,17.99980625,32.687916666666666,72.675,4.190885416666666,65.07687761409578
1361814093.75,17.986620041666665,32.692083333333336,72.6208333056,4.217473958333333,65.07687761409578
1361814094.0,17.9693765,32.69625,72.56666666666666,4.351328125,65.07687761409578
1361814094.25,17.949143333333335,32.70041666666666,72.51416669354667,4.078385416666667,65.07687761409578
1361814094.5,17.926614583333333,32.70458333333333,72.46166666666667,4.028333333333333,65.07687761409578
1361814094.75,17.902217333333333,32.70875,72.40916663978666,4.339270833333333,65.07687761409578
1361814095.0,17.87707275,32.712916666666665,72.35666666666667,4.351822916666667,65.07687761409578
1361814095.25,17.851928166666667,32.717083333333335,72.30500002645333,4.269375,65.07687761409578
1361814095.5,17.826783583333334,32.72125,72.25333333333333,4.641328125,65.07687761409578
1361814095.75,17.801638999999998,32.72416666666666,72.20166664021333,4.765052083333333,65.07687761409578
1361814096.0,17.776494416666665,32.725833333333334,72.14999999999999,4.5003125,65.07687761409578
1361814096.25,17.753858958333332,32.7275,72.10666668885332,4.749921875,65.07759778850026
1361814096.5,17.737629791666667,32.729166666666664,72.06333333333333,4.97546875,65.07915816637664
1361814096.75,17.728287249999997,32.73083333333333,72.01999997781334,4.681041666666667,65.07987834078112
1361814097.0,17.723162166666665,32.732499999999995,71.97666666666667,4.796484375,65.07987834078112
1361814097.25,17.721240249999997,32.73416666666667,71.94166668458666,5.2457031249999995,65.08107863145524
1361814097.5,17.722041,32.73583333333333,71.90666666666667,5.072135416666667,65.08167877679232
1361814097.75,17.724656874999997,32.73833333333333,71.87166664874667,4.891692708333333,65.08167877679232
1361814098.0,17.728607416666666,32.74166666666667,71.83666666666666,5.338515625,65.08167877679232
1361814098.25,17.733518916666664,32.745,71.81333334528,5.684479166666667,65.08167877679232
1361814098.5,17.740352208333334,32.748333333333335,71.78999999999999,5.479635416666667,65.08139863338813
1361814098.75,17.750014916666668,32.751666666666665,71.76666665472,5.537213541666667,65.08019799314219
1361814099.0,17.762453708333336,32.755,71.74333333333334,5.4773958333333335,65.07855700529042
1361814099.25,17.776333875,32.75833333333333,71.72583334229334,4.636276041666667,65.0622845710265
1361814099.5,17.790320875000003,32.76166666666667,71.70833333333334,4.04984375,65.04108025869415
1361814099.75,17.804895208333335,32.765,71.69083332437333,3.641458333333333,64.99731759749689
1361814100.0,17.820377125,32.76833333333334,71.67333333333333,2.7248697916666664,64.96515498521818
1361814100.25,17.836659791666666,32.77166666666667,71.66416667136,1.750234375,64.94129721581456
1361814100.5,17.853796625,32.775,71.655,1.2517447916666666,64.8938186756455
1361814100.75,17.871627458333332,32.778333333333336,71.64583332864001,0.6985416666666667,64.84290994212655
1361814101.0,17.889511583333334,32.78166666666667,71.63666666666667,-0.2201302083333334,64.77278554066909
1361814101.25,17.908943875,32.785000000000004,71.63250000213334,-1.0636197916666668,64.66880324469867
1361814101.5,17.93003125,32.788333333333334,71.62833333333333,-1.6115364583333334,64.47934549565542
1361814101.75,17.949890833333335,32.79166666666667,71.62416666453333,-2.1634375,64.27067594784138
1361814102.0,17.971778999999998,32.795,71.62,-1.9616927083333335,64.03853470993292
1361814102.25,18.006319583333333,32.79833333333334,71.62249999872,-1.2669270833333333,63.814203099338464
1361814102.5,18.052925249999998,32.80166666666667,71.625,-0.5282812500000001,63.59764221614608
1361814102.75,18.1069705,32.805,71.62750000128001,0.7740625,63.381839147227446
1361814103.0,18.165626,32.80833333333333,71.63000000000001,2.2976562499999997,63.14960835063477
1361814103.25,18.223480749999997,32.81166666666667,71.63416666453334,3.7065104166666667,62.90661028599192
1361814103.5,18.28005425,32.815000000000005,71.63833333333334,4.934583333333333,62.68972633920301
1361814103.75,18.335506624999997,32.81791666666667,71.64250000213333,5.808619791666666,62.477503798351556
1361814104.0,18.390318374999996,32.82041666666667,71.64666666666666,6.441041666666666,62.28714533517612
1361814104.25,18.442621,32.822916666666664,71.65166666410667,6.809505208333333,62.15614000345233
1361814104.5,18.491346749999998,32.82541666666666,71.65666666666667,7.432734374999999,62.1778543213122
1361814104.75,18.538470874999998,32.829166666666666,71.66166666922666,8.134921875000002,62.25503604752973
1361814105.0,18.580790333333333,32.83416666666667,71.66666666666667,8.155859375,62.40771160138937
1361814105.25,18.609015999999997,32.839166666666664,71.67249999701333,8.204375,62.58524086055945
1361814105.5,18.624055458333334,32.844166666666666,71.67833333333334,7.759322916666666,62.801115512008515
1361814105.75,18.62994695833333,32.848333333333336,71.68416666965334,6.272864583333334,63.041722714922535
1361814106.0,18.632028958333333,32.85166666666667,71.69,4.655390625,63.290364725182876
1361814106.25,18.63934275,32.855,71.69833332906667,3.187786458333333,63.53476712293718
1361814106.5,18.649539375,32.85833333333333,71.70666666666666,1.5635416666666666,63.76541191424932
1361814106.75,18.659736,32.86208333333333,71.71500000426666,0.24158854166666663,63.99321334585995
1361814107.0,18.669932625,32.86625,71.72333333333333,-0.5642708333333334,64.21836636773307
1361814107.25,18.680129249999997,32.870416666666664,71.73583332693333,-1.21765625,64.418225488384
1361814107.5,18.690325875,32.874583333333334,71.74833333333333,-2.2474739583333334,64.55132189164475
1361814107.75,18.7005225,32.8775,71.76083333973332,-3.203515625,64.6486805107274
1361814108.0,18.708637083333333,32.87916666666667,71.77333333333333,-4.0186979166666665,64.69445733986822
1361814108.25,18.71392225,32.880833333333335,71.78999999146666,-5.022421875,64.72039398446871
1361814108.5,18.716805041666664,32.8825,71.80666666666666,-5.7222656249999995,64.69442508889382
1361814108.75,18.718406583333334,32.885,71.82333334186666,-5.665833333333333,64.65157313442829
1361814109.0,18.71813966666667,32.88833333333333,71.83999999999999,-5.28109375,64.60708383546402
1361814109.25,18.712427416666667,32.89166666666666,71.85916665685333,-4.718177083333333,64.5632783725515
1361814109.5,18.703832333333335,32.895,71.87833333333333,-3.7472395833333336,64.52416068984807
1361814109.75,18.69523725,32.89833333333333,71.89750000981333,-2.9501562499999996,64.44150468122679
1361814110.0,18.68664216666667,32.901666666666664,71.91666666666667,-2.8292708333333336,64.33274003588983
1361814110.25,18.679221541666667,32.905,71.94166665386668,-2.644348958333333,64.22336141596368
1361814110.5,18.675377750000003,32.90833333333333,71.96666666666667,-2.1184895833333335,64.11295864938499
1361814110.75,18.677246208333337,32.9125,71.99166667946666,-1.7871614583333333,63.998311721471595
1361814111.0,18.68557429166667,32.9175,72.01666666666667,-0.8428385416666666,63.90944227290663
1361814111.25,18.699507875000002,32.9225,72.04666665130667,0.13171875000000005,63.802211248500704
1361814111.5,18.715843833333334,32.9275,72.07666666666667,1.1160677083333332,63.70235677114987
1361814111.75,18.73346104166667,32.932500000000005,72.10666668202667,1.7580729166666667,63.6441241468813
1361814112.0,18.751078250000003,32.9375,72.13666666666667,1.8418229166666669,63.585697299450345
1361814112.25,18.768695458333333,32.9425,72.17166664874667,1.2577083333333334,63.53266109891981
1361814112.5,18.786312666666667,32.9475,72.20666666666666,0.44429687500000004,63.486474234370405
1361814112.75,18.803289250000002,32.95166666666666,72.24166668458666,0.19695312500000006,63.48603800838259
1361814113.0,18.81530091666667,32.955,72.27666666666666,0.42950520833333344,63.51187405578844
1361814113.25,18.820639416666666,32.958333333333336,72.31333331456,0.6292708333333333,63.53832728160422
1361814113.5,18.819891958333333,32.961666666666666,72.35,0.5864583333333334,63.5657260420784
1361814113.75,18.813432249999998,32.965,72.38666668543999,0.5096354166666667,63.59789435904259
1361814114.0,18.802594958333334,32.968333333333334,72.42333333333333,-0.18604166666666658,63.60489866391811
1361814114.25,18.78898158333333,32.971666666666664,72.4566666496,-0.8543229166666665,63.63106634347641
1361814114.5,18.775368208333333,32.975,72.49000000000001,-1.553828125,63.65916598144778
1361814114.75,18.76175483333333,32.9775,72.52333335040001,-1.9843229166666667,63.64652027256286
1361814115.0,18.74942270833333,32.979166666666664,72.55666666666667,-2.0403125,63.63769379194383
1361814115.25,18.742269041666667,32.98083333333333,72.5858333184,-1.5857552083333333,63.62381996058853
1361814115.5,18.739439625,32.9825,72.61500000000001,-1.0478124999999998,63.625578723145736
1361814115.75,18.73725083333333,32.984166666666674,72.6441666816,-0.9100520833333333,63.62815544203684
1361814116.0,18.740026958333335,32.98583333333334,72.67333333333333,-0.85046875,63.63056852424997
1361814116.25,18.748301791666666,32.987500000000004,72.69499998890666,-0.76203125,63.63339033757921
1361814116.5,18.75908575,32.98916666666667,72.71666666666667,-0.61,63.637438525901366
1361814116.75,18.769869708333335,32.99166666666667,72.73833334442666,-0.33015625,63.64111869433011
1361814117.0,18.779746083333333,32.995,72.75999999999999,-0.17752604166666663,63.61426827902934
1361814117.25,18.787113375,32.99833333333334,72.77999998975999,0.11692708333333333,63.57739138706
1361814117.5,18.7922385,33.00166666666667,72.79999999999998,0.7383333333333333,63.576399330287735
1361814117.75,18.795708666666666,33.005833333333335,72.82000001024,1.1150520833333333,63.59411703733838
1361814118.0,18.797897583333334,33.01083333333333,72.83999999999999,1.4382812500000002,63.6077280738545
1361814118.25,18.794908041666666,33.01583333333333,72.86083332266666,2.0141666666666667,63.625813725161755
1361814118.5,18.78759425,33.020833333333336,72.88166666666666,2.52125,63.628348774885886
1361814118.75,18.780280458333333,33.026666666666664,72.90250001066666,2.872213541666667,63.628348774885886
1361814119.0,18.772966666666665,33.03333333333333,72.92333333333333,3.2201302083333334,63.62834877488589
1361814119.25,18.770664375,33.04,72.94416665600001,3.5507552083333334,63.627081164374594
1361814119.5,18.776256375,33.04666666666667,72.965,3.6952083333333334,63.62454624573883
1361814119.75,18.785211666666665,33.05166666666667,72.985833344,3.905494791666667,63.62274738195049
1361814120.0,18.798070874999997,33.055,73.00666666666667,4.312005208333334,63.652010350118665
1361814120.25,18.827586333333333,33.05833333333333,73.01999999317334,4.494947916666667,63.69240367322582
1361814120.5,18.872363291666666,33.06166666666667,73.03333333333333,4.313932291666667,63.6966671975699
1361814120.75,18.92110208333333,33.064166666666665,73.04666667349333,4.2755729166666665,63.69711674608977
1361814121.0,18.969840875,33.06583333333334,73.06,4.254557291666667,63.69785237780231
1361814121.25,19.022381416666665,33.0675,73.06499999744,3.911484375,63.69952798420843
1361814121.5,19.077537875,33.06916666666667,73.07,3.44734375,63.70063152995754
1361814121.75,19.132896499999998,33.07,73.07500000256,3.038776041666667,63.70275716821456
1361814122.0,19.190550708333333,33.07,73.08,2.7072656250000002,63.70275698674891
1361814122.25,19.248745583333335,33.07,73.08,2.278359375,63.704760334645194
1361814122.5,19.303263625,33.07,73.08,2.0887239583333335,63.705864081810454
1361814122.75,19.361209625,33.071666666666665,73.08,1.904921875,63.70929776498332
1361814123.0,19.428811708333335,33.074999999999996,73.08,1.8667447916666668,63.716805600856475
1361814123.25,19.497695083333333,33.07833333333333,73.08,1.7502864583333333,63.758500116425274
1361814123.5,19.5622865,33.08166666666667,73.08,1.7425,63.8258527020322
1361814123.75,19.625557458333333,33.08583333333333,73.08,1.9422135416666668,63.900133183528254
1361814124.0,19.688828416666666,33.090833333333336,73.08,2.0986979166666666,63.97202279671016
1361814124.25,19.748297625,33.09583333333334,73.08,2.2139583333333337,64.04938265637672
1361814124.5,19.805150916666665,33.100833333333334,73.08,2.469609375,64.12796242840385
1361814124.75,19.861802041666667,33.10583333333333,73.08,2.948932291666667,64.2156444407578
1361814125.0,19.916157583333334,33.11083333333333,73.08,3.302942708333333,64.31718372458148
1361814125.25,19.933730458333333,33.115833333333335,73.07750000128,3.7588281249999995,64.41147341424725
1361814125.5,19.895863541666667,33.12083333333334,73.075,4.099088541666666,64.51155946157999
1361814125.75,19.8103285,33.124166666666675,73.07249999872,4.189947916666666,64.61884874111671
1361814126.0,19.670442291666664,33.12583333333334,73.07000000000001,3.844375,64.78205319563828
1361814126.25,19.472513625,33.127500000000005,73.05916667221334,4.046536458333333,64.95267267847684
1361814126.5,19.22407725,33.12916666666667,73.04833333333333,3.988515625,65.13772762846624
1361814126.75,18.932875125,33.10583333333333,73.03749999445333,2.8566145833333327,65.29601651582425
1361814127.0,18.599825291666665,33.0575,73.02666666666666,0.8350520833333331,65.47410654979632
1361814127.25,18.225020416666666,33.009166666666665,73.00916667562666,-1.3855729166666668,65.58689500009824
1361814127.5,17.807396541666666,32.96083333333333,72.99166666666666,-2.569166666666667,65.6891333229654
1361814127.75,17.346940375,32.88916666666667,72.97416665770666,-3.556979166666667,65.77643360837526
1361814128.0,16.844736708333333,32.79416666666667,72.95666666666666,-3.438333333333334,65.82348568885733
1361814128.25,16.332012541666668,32.69916666666667,72.92750001493333,-2.9421875000000006,65.8529346889321
1361814128.5,15.828793083333332,32.604166666666664,72.89833333333334,-3.2817447916666667,65.82394266947651
1361814128.75,15.324644416666665,32.49166666666667,72.86916665173334,-3.8062239583333337,65.76904841960607
1361814129.0,14.820390125000001,32.361666666666665,72.84,-3.8384375,65.61433028806645
1361814129.25,14.316953333333332,32.23166666666666,72.80666668373334,-4.184661458333333,65.38349186896725
1361814129.5,13.813605083333334,32.10166666666667,72.77333333333334,-4.176770833333333,65.09432041946944
1361814129.75,13.310301041666667,31.890833333333333,72.73999998293333,-3.3420312500000002,64.82681000427102
1361814130.0,12.807013708333335,31.599166666666665,72.70666666666666,-1.6301562500000004,64.54213694432818
1361814130.25,12.303747541666667,31.3075,72.68000001365333,0.33505208333333325,64.3511238448216
1361814130.5,11.801582625000002,31.015833333333333,72.65333333333334,1.3156770833333333,64.17581592423203
1361814130.75,11.300402583333332,30.743333333333336,72.62666665301333,1.8892708333333335,64.010866332866
1361814131.0,10.798184208333334,30.49,72.6,1.19765625,63.89580967302256
1361814131.25,10.294697041666668,30.236666666666665,72.59000000511999,0.20986979166666672,63.821489963202204
1361814131.5,9.7909695,29.983333333333334,72.58,0.27630208333333334,63.79580345674879
1361814131.75,9.287467166666666,29.751666666666665,72.56999999488,0.7535937500000002,63.807766434931715
1361814132.0,8.784197291666667,29.541666666666668,72.56,0.9653645833333334,63.83781637044481
1361814132.25,8.281181541666667,29.331666666666667,72.57416665941334,1.0965104166666666,63.87325935800896
1361814132.5,7.778209916666667,29.12166666666667,72.58833333333334,2.085911458333333,63.98339667988976
1361814132.75,7.275325166666668,29.05416666666667,72.60250000725333,3.641953125,64.11169143167605
1361814133.0,6.772722291666668,29.129166666666666,72.61666666666666,5.541197916666666,64.24301539796903
1361814133.25,6.270324958333333,29.204166666666666,72.64333331968,7.0992187499999995,64.3357984559361
1361814133.5,5.768066458333333,29.279166666666665,72.67,7.638046875000001,64.43081030056163
1361814133.75,5.266026208333334,29.35833333333333,72.69666668032,7.763046875,64.51276275168897
1361814134.0,4.765267541666667,29.441666666666666,72.72333333333334,8.024505208333334,64.56231700820238
1361814134.25,4.266180875,29.525000000000002,72.76416664576001,8.149895833333334,64.58411225310223
1361814134.5,3.7843063750000003,29.608333333333334,72.805,7.1612760416666665,64.62512865622415
1361814134.75,3.3440127499999996,29.69416666666667,72.84583335424,4.96625,64.64082923051636
1361814135.0,2.945291041666667,29.7825,72.88666666666667,3.1378125000000003,64.6954540209046
1361814135.25,2.5881117083333334,29.870833333333334,72.93249997653334,-0.05789062500000016,64.79418017020906
1361814135.5,2.2725800416666666,29.959166666666665,72.97833333333332,-4.9325,64.84118799637359
1361814135.75,1.998696625,30.01,73.02416669013333,-10.412135416666667,64.86827400670883
1361814136.0,1.7805504583333336,30.02333333333333,73.07,-16.238229166666667,64.89502482707867
1361814136.25,1.6421102916666668,30.036666666666665,73.12249997311999,-21.624453125000002,64.92347091058389
1361814136.5,1.5855142083333333,30.05,73.17499999999998,-24.908567708333337,64.94061336821325
1361814136.75,1.61156875,30.150833333333328,73.22750002688,-26.20927083333333,64.96906608807559
1361814137.0,1.7076512083333337,30.339166666666667,73.27999999999999,-27.500572916666666,65.0079015174917
1361814137.25,1.861485166666667,30.5275,73.34333330090665,-28.792239583333338,65.06013983990546
1361814137.5,2.0599452916666667,30.715833333333336,73.40666666666665,-28.45502604166667,65.09962407920099
1361814137.75,2.278861375,30.906666666666666,73.47000003242665,-26.701093750000002,65.14536750777071
1361814138.0,2.509842625,31.100000000000005,73.53333333333332,-25.318749999999998,65.16999328446425
1361814138.25,2.753342958333333,31.293333333333333,73.60666662911999,-22.225468749999994,65.172832897685
1361814138.5,2.9968432916666665,31.486666666666665,73.67999999999999,-18.358437499999997,65.15335952037537
1361814138.75,3.240343625,31.68583333333333,73.75333337088,-14.237552083333332,65.1175866065683
1361814139.0,3.469655833333333,31.890833333333333,73.82666666666667,-10.264140625,65.04734313139761
1361814139.25,3.660790375,32.09583333333333,73.91666662058667,-6.4871875,64.95123132541228
1361814139.5,3.8341675416666665,32.30083333333334,74.00666666666666,-3.9662239583333334,64.85192510831251
1361814139.75,3.979448208333334,32.42166666666667,74.09666671274667,-2.87171875,64.7534704746952
1361814140.0,4.104133916666667,32.458333333333336,74.18666666666667,-1.4180729166666666,64.64469190431203
1361814140.25,4.212415916666666,32.495,74.28416661674667,-0.03963541666666662,64.48723710631829
1361814140.5,4.300817583333333,32.531666666666666,74.38166666666666,0.5073177083333335,64.30621451359691
1361814140.75,4.368763291666666,32.5625,74.47916671658666,1.0022135416666667,64.12454228077743
1361814141.0,4.437494625,32.5875,74.57666666666667,1.530234375,63.93234652139157
1361814141.25,4.535288583333333,32.612500000000004,74.68666661034666,2.0507291666666667,63.720773454649986
1361814141.5,4.674685,32.637499999999996,74.79666666666667,2.7909114583333334,63.53778696968467
1361814141.75,4.855676291666667,32.665,74.90666672298667,3.187708333333333,63.381667383526526
1361814142.0,5.078261875,32.695,75.01666666666667,3.8794791666666666,63.27847146919034
1361814142.25,5.342443208333333,32.724999999999994,75.12666661034666,4.352005208333334,63.214309148695094
1361814142.5,5.625688666666666,32.754999999999995,75.23666666666666,4.478046875,63.1522460895961
1361814142.75,5.937590041666667,32.78333333333333,75.34666672298667,4.400703125000001,63.08424365029747
1361814143.0,6.283520708333334,32.809999999999995,75.45666666666666,3.8883854166666665,63.02922461405111
1361814143.25,6.672417791666667,32.836666666666666,75.56666661034666,3.6467187500000002,63.022517537740015
1361814143.5,7.104100708333334,32.86333333333334,75.67666666666666,3.521380208333333,63.03794631954986
1361814143.75,7.577631041666667,32.887499999999996,75.78666672298667,3.12890625,63.04920954104071
1361814144.0,8.08008175,32.90916666666667,75.89666666666666,2.90109375,63.07403991158753
1361814144.25,8.582737958333334,32.93083333333333,75.99499994965333,2.337682291666667,63.12506419256746
1361814144.5,9.085569291666667,32.9525,76.09333333333333,1.4032291666666667,63.17030189415875
1361814144.75,9.588540916666666,32.96583333333333,76.19166671701333,0.6756510416666667,63.20306799443356
1361814145.0,10.091663458333334,32.97083333333333,76.29,-0.145234375,63.21374408971763
1361814145.25,10.59498675,32.975833333333334,76.37999995392,-0.6915104166666667,63.20554494051944
1361814145.5,11.098542416666666,32.98083333333334,76.47,-0.6400781249999999,63.200761540805644
1361814145.75,11.602323291666666,32.98458333333334,76.56000004607999,-0.31382812499999996,63.20327579436136
1361814146.0,12.105863874999999,32.98708333333334,76.64999999999999,0.2080729166666667,63.194530390568815
1361814146.25,12.608135666666668,32.989583333333336,76.72749996031999,0.5477604166666667,63.182611943978465
1361814146.5,13.109369125,32.99208333333333,76.80499999999999,1.0208854166666665,63.170487627527656
1361814146.75,13.611480625,32.995,76.88250003968,1.6497395833333333,63.16046396994003
1361814147.0,14.101026583333335,32.998333333333335,76.96,1.876171875,63.15019300681008
1361814147.25,14.556024583333334,33.001666666666665,77.03083329706666,1.95328125,63.13909821946657
1361814147.5,14.969245,33.005,77.10166666666666,2.363828125,63.123597455487406
1361814147.75,15.34073025,33.00833333333333,77.17250003626667,2.66015625,63.108961400145695
1361814148.0,15.670470291666668,33.01166666666667,77.24333333333334,2.7077343750000007,63.09436655379036
1361814148.25,15.958413833333333,33.015,77.31166663168,2.98,63.08755873613711
1361814148.5,16.205300458333333,33.01833333333334,77.38,3.343359375,63.081947550920404
1361814148.75,16.410381,33.022083333333335,77.44833336832001,3.2344010416666666,63.072048089013066
1361814149.0,16.57385066666667,33.02625,77.51666666666667,2.835859375,63.071388124885914
1361814149.25,16.695622708333335,33.03041666666667,77.59166662826667,2.8974999999999995,63.071388124885914
1361814149.5,16.775700625000002,33.03458333333333,77.66666666666667,2.577734375,63.071388124885914
1361814149.75,16.813373375,33.038333333333334,77.74166670506668,1.8809114583333335,63.07431791346633
1361814150.0,16.828887458333337,33.041666666666664,77.81666666666668,1.6341666666666665,63.07943411510336
1361814150.25,16.854701458333334,33.045,77.89833329152,1.8402604166666665,63.09164005579996
1361814150.5,16.89965616666667,33.04833333333333,77.98,1.424453125,63.09477537163159
1361814150.75,16.957209875,33.0525,78.06166670848,1.1785937499999999,63.097125804852254
1361814151.0,17.023430166666667,33.0575,78.14333333333333,1.5761458333333334,63.09712580485225
1361814151.25,17.093725916666667,33.0625,78.21666662912,1.4716145833333334,63.097125804852254
1361814151.5,17.164075083333334,33.0675,78.28999999999999,0.9460156249999999,63.082356294614605
1361814151.75,17.23442425,33.071666666666665,78.36333337088,1.223828125,63.05751526443256
1361814152.0,17.304666583333333,33.075,78.43666666666667,1.73265625,63.0302680890126
1361814152.25,17.374908916666666,33.07833333333333,78.49749996885333,1.5153645833333336,62.99580247787896
1361814152.5,17.445097875000002,33.08166666666667,78.55833333333334,2.069609375,62.96133686674531
1361814152.75,17.51453941666667,33.08416666666667,78.61916669781334,2.9811979166666664,62.923941467031256
1361814153.0,17.576720458333337,33.08583333333333,78.68,3.3681250000000005,62.88435965426058
1361814153.25,17.621255625,33.0875,78.72916664149334,3.5090625,62.83768810243034
1361814153.5,17.646383125,33.08916666666667,78.77833333333334,4.301692708333333,62.80008717546505
1361814153.75,17.658324375,33.090833333333336,78.82750002517334,4.682057291666667,62.76401838674173
1361814154.0,17.660371208333334,33.0925,78.87666666666667,4.377864583333333,62.74631020213035
1361814154.25,17.656687666666667,33.09416666666667,78.918333312,4.635026041666667,62.72934927314995
1361814154.5,17.650441541666666,33.09583333333333,78.96000000000001,4.993255208333333,62.74411878338759
1361814154.75,17.643181000000002,33.098333333333336,79.001666688,4.648697916666667,62.768959813569644
1361814155.0,17.635653625,33.10166666666667,79.04333333333334,4.569973958333334,62.802146666134
1361814155.25,17.628072958333334,33.105000000000004,79.07999998122666,4.899895833333334,62.84651173917498
1361814155.5,17.620171916666667,33.108333333333334,79.11666666666667,4.38390625,62.891536776343116
1361814155.75,17.612591166666668,33.11166666666667,79.15333335210667,3.921744791666667,62.943356195689944
1361814156.0,17.605010416666666,33.115,79.19,3.914348958333333,62.99562857384868
1361814156.25,17.597269416666666,33.11833333333333,79.21749998592,3.526302083333333,63.04790095200741
1361814156.5,17.589795375,33.12166666666666,79.245,2.873723958333333,63.100173330166136
1361814156.75,17.583015416666665,33.12416666666667,79.27250001408,2.900755208333333,63.151698452693886
1361814157.0,17.57767683333333,33.12583333333334,79.3,3.1644010416666664,63.18721340433036
1361814157.25,17.574153291666665,33.127500000000005,79.31833332394666,3.1084895833333337,63.221981100335846
1361814157.5,17.572498375,33.12916666666667,79.33666666666667,3.1275260416666666,63.23978786736094
1361814157.75,17.572178249999997,33.130833333333335,79.35500000938667,3.3364062499999996,63.25759463438602
1361814158.0,17.572552041666665,33.1325,79.37333333333333,3.1910937500000003,63.269461724266705
1361814158.25,17.573993416666667,33.134166666666665,79.37833333077333,3.003541666666667,63.27736902938446
1361814158.5,17.577356708333333,33.13583333333333,79.38333333333333,3.101666666666667,63.284616370375055
1361814158.75,17.582001291666668,33.1375,79.38833333589334,2.860052083333333,63.28506932918696
1361814159.0,17.58750004166667,33.13916666666667,79.39333333333333,2.5535156249999997,63.28506932918696
1361814159.25,17.59358608333333,33.14083333333333,79.39166666752,2.6813020833333336,63.28506932918696
1361814159.5,17.599778833333332,33.142500000000005,79.39,2.705703125,63.28506932918696
1361814159.75,17.606185041666667,33.14416666666667,79.38833333248,2.3664062500000003,63.28506932918696
1361814160.0,17.612804791666665,33.145833333333336,79.38666666666667,2.0588020833333336,63.28506932918696
1361814160.25,17.619638083333335,33.1475,79.38833333248,1.7270572916666669,63.28506932918696
1361814160.5,17.628660125,33.149166666666666,79.39,1.5702604166666667,63.28506932918696
1361814160.75,17.646864458333333,33.150416666666665,79.39166666752,1.596484375,63.28506932918696
1361814161.0,17.681191291666668,33.15125,79.39333333333333,1.5584635416666668,63.28506932918696
1361814161.25,17.7379005,33.15208333333333,79.39916666368,1.4079947916666669,63.28506932918696
1361814161.5,17.812507625,33.15291666666666,79.405,1.57828125,63.28506932918696
1361814161.75,17.89983954166667,33.153749999999995,79.41083333632,1.8753906250000003,63.28506932918696
1361814162.0,17.99594575,33.15458333333333,79.41666666666667,1.869375,63.28506932918696
1361814162.25,18.093333208333334,33.15541666666667,79.42416666282668,2.098671875,63.28506932918696
1361814162.5,18.191895208333335,33.15624999999999,79.43166666666667,2.598385416666667,63.28506932918696
1361814162.75,18.292112166666666,33.15708333333333,79.43916667050667,2.58953125,63.28506932918696
1361814163.0,18.4012445,33.157916666666665,79.44666666666667,2.5967447916666666,63.28506932918696
1361814163.25,18.530229541666667,33.15875,79.45499999573335,3.1825781250000005,63.28506932918696
1361814163.5,18.673942333333333,33.15958333333333,79.46333333333334,3.26421875,63.28506932918696
1361814163.75,18.812221166666667,33.16,79.47166667093333,2.8686458333333333,63.28506932918696
1361814164.0,18.934163958333333,33.16,79.48,3.119401041666667,63.28506932918696
1361814164.25,19.032923625,33.16,79.48833332906668,3.492109375,63.28506932918696
1361814164.5,19.113560458333335,33.16,79.49666666666667,3.087682291666667,63.28506932918696
1361814164.75,19.1818575,33.16,79.50500000426666,2.8262500000000004,63.28506932918696
1361814165.0,19.241178083333335,33.16,79.51333333333334,3.239973958333333,63.28506932918696
1361814165.25,19.299110666666667,33.16,79.52166666240001,2.9784375,63.28506932918696
1361814165.5,19.356616166666665,33.16,79.53,2.323828125,63.28506932918696
1361814165.75,19.412146416666666,33.16083333333333,79.5383333376,2.5858854166666667,63.28506932918696
1361814166.0,19.458334208333333,33.1625,79.54666666666667,2.8499479166666664,63.28506932918696
1361814166.25,19.484295624999998,33.16416666666667,79.5508333312,2.2766145833333336,63.28506932918696
1361814166.5,19.49323370833333,33.16583333333333,79.555,2.2488541666666664,63.28506932918696
1361814166.75,19.50013170833333,33.1675,79.5591666688,2.82859375,63.28506932918696
1361814167.0,19.513436,33.16916666666666,79.56333333333333,2.6290625,63.28506932918696
1361814167.25,19.54035358333333,33.17083333333333,79.56166666752,2.251302083333333,63.28506932918696
1361814167.5,19.579774791666665,33.1725,79.56,2.6513020833333334,63.28325749393932
1361814167.75,19.62705795833333,33.17541666666666,79.55833333247999,2.899479166666666,63.272089316367214
1361814168.0,19.676650875,33.17958333333333,79.55666666666666,2.4072916666666666,63.26001618155471
1361814168.25,19.72603020833333,33.183749999999996,79.54833333759998,2.4638802083333333,63.2478184593997
1361814168.5,19.774555375,33.187916666666666,79.53999999999999,2.906640625,63.24600662415205
1361814168.75,19.823080541666666,33.191250000000004,79.5316666624,2.64515625,63.241929994844845
1361814169.0,19.87160570833333,33.19375,79.52333333333333,2.374166666666667,63.24192999484484
1361814169.25,19.920130875,33.19625,79.50916667391999,2.823020833333333,63.24192999484484
1361814169.5,19.966520624999998,33.19875,79.49499999999999,2.7902343750000003,63.24192999484484
1361814169.75,20.009386916666667,33.2,79.48083332607999,2.3521354166666666,63.24192999484484
1361814170.0,20.044725791666668,33.2,79.46666666666665,2.62390625,63.23822390637682
1361814170.25,20.066237833333336,33.2,79.44916667562666,2.885520833333333,63.22544959845081
1361814170.5,20.073869625,33.2,79.43166666666666,2.643307291666667,63.22145408669482
1361814170.75,20.07208,33.19875,79.41416665770666,2.7250260416666667,63.22223959854793
1361814171.0,20.067542166666666,33.19625,79.39666666666666,3.1643489583333335,63.22503976939213
1361814171.25,20.063004333333335,33.19375,79.37666667690667,3.165572916666667,63.233898722729926
1361814171.5,20.05884025,33.191250000000004,79.35666666666665,3.124010416666667,63.22940808279224
1361814171.75,20.055476958333333,33.18875,79.33666665642666,3.5872395833333335,63.22425747872739
1361814172.0,20.05339491666667,33.18625,79.31666666666666,3.817526041666667,63.216350173609634
1361814172.25,20.052540708333336,33.183749999999996,79.29833334272,3.5509114583333337,63.21000875024288
1361814172.5,20.05504979166667,33.18125,79.28,3.7829427083333336,63.20819691499523
1361814172.75,20.060495125,33.18,79.26166665728,4.044869791666667,63.20230845044037
1361814173.0,20.068182625000002,33.18,79.24333333333334,3.5898177083333334,63.201937909601185
1361814173.25,20.076670958333334,33.18,79.22750000810667,3.4689322916666665,63.21290038227954
1361814173.5,20.087241333333335,33.18,79.21166666666667,3.6935416666666665,63.21508405878788
1361814173.75,20.09978691666667,33.18,79.19583332522667,3.204114583333333,63.224560806883055
1361814174.0,20.112599416666665,33.18,79.18,2.632057291666667,63.22658642986076
1361814174.25,20.126052583333337,33.18,79.17083333802667,2.7516145833333336,63.2206979653059
1361814174.5,20.140306541666668,33.18,79.16166666666666,2.525416666666667,63.21278164507865
1361814174.75,20.154507125,33.18125,79.15249999530667,1.8131510416666667,63.206470154783794
1361814175.0,20.167693333333332,33.183749999999996,79.14333333333333,1.8351302083333334,63.19413241219777
1361814175.25,20.179865250000002,33.18625,79.13666667007999,2.007682291666667,63.16860904916191
1361814175.5,20.190969499999998,33.18875,79.13,1.5109635416666667,63.137976883080476
1361814175.75,20.200845875000002,33.192083333333336,79.12333332992,1.6381510416666665,63.11923697269748
1361814176.0,20.209814750000003,33.19625,79.11666666666666,2.3308854166666664,63.08904743728055
1361814176.25,20.218463208333333,33.20041666666667,79.11166666922666,2.448828125,63.05335815721338
1361814176.5,20.22534991666667,33.20458333333333,79.10666666666665,2.4704687499999998,63.016744531564676
1361814176.75,20.233357833333333,33.20875,79.10166666410666,3.0894010416666666,62.983218627218015
1361814177.0,20.249320208333334,33.212916666666665,79.09666666666666,3.587890625,62.956821277718774
1361814177.25,20.273610666666666,33.21708333333333,79.08833333759999,3.487447916666667,62.92978986249594
1361814177.5,20.30599104166667,33.22125,79.08,3.766901041666667,62.8917362797498
1361814177.75,20.342137208333334,33.22416666666666,79.0716666624,4.345,62.85500262525798
1361814178.0,20.378176625000002,33.225833333333334,79.06333333333333,4.180572916666667,62.82297529480303
1361814178.25,20.41667175,33.2275,79.05083333973333,4.090260416666667,62.80256770304692
1361814178.5,20.456982,33.229166666666664,79.03833333333333,4.633098958333333,62.78273932621727
1361814178.75,20.498626916666666,33.229166666666664,79.02583332693334,4.501744791666666,62.75509532299639
1361814179.0,20.541339541666666,33.2275,79.01333333333334,4.028255208333333,62.737089109561786
1361814179.25,20.583731916666668,33.22583333333333,78.9966666752,4.1066666666666665,62.722317846717864
1361814179.5,20.626391208333335,33.22416666666667,78.98,4.042734374999999,62.710282764703145
1361814179.75,20.670224916666665,33.2225,78.9633333248,3.690911458333334,62.69244220851488
1361814180.0,20.708132833333334,33.22083333333333,78.94666666666667,3.886458333333333,62.67381452084599
1361814180.25,20.737072,33.219166666666666,78.92833334272001,4.1808072916666665,62.65780079128216
1361814180.5,20.75674670833333,33.217499999999994,78.91,3.863567708333333,62.65780079128216
1361814180.75,20.771908208333333,33.215833333333336,78.89166665728,3.6401041666666667,62.65780079128216
1361814181.0,20.786909583333333,33.214166666666664,78.87333333333333,4.094479166666667,62.65780079128216
1361814181.25,20.799241708333334,33.2125,78.85416667648,4.068203125,62.65780079128216
1361814181.5,20.807142708333334,33.21083333333333,78.83500000000001,3.5550781249999996,62.65780079128216
1361814181.75,20.810666041666668,33.21,78.81583332352,3.71421875,62.65780079128216
1361814182.0,20.810345708333333,33.21,78.79666666666667,4.099192708333334,62.65780079128216
1361814182.25,20.808850875,33.21,78.77666667690666,3.752083333333333,62.660042558175114
1361814182.5,20.805594291666665,33.21,78.75666666666666,3.5738802083333336,62.676101001162515
1361814182.75,20.796999166666666,33.21,78.73666665642666,4.05828125,62.70179413188195
1361814183.0,20.78552125,33.21,78.71666666666665,3.8485156250000006,62.72104329378514
1361814183.25,20.773776375,33.21,78.695833344,3.4472135416666667,62.740292455688326
1361814183.5,20.761551,33.21,78.67499999999998,4.0099479166666665,62.77565153963212
1361814183.75,20.748898625,33.21,78.65416665599999,4.548932291666667,62.82178727582448
1361814184.0,20.736086124999996,33.21,78.63333333333333,4.153671875,62.883472798355974
1361814184.25,20.723166833333334,33.21,78.61083334485333,4.203046874999999,62.94626901991169
1361814184.5,20.712703333333334,33.21,78.58833333333334,5.110677083333333,63.009065241467404
1361814184.75,20.705069291666664,33.21,78.56583332181333,5.241822916666666,63.07186146302312
1361814185.0,20.699784125,33.21,78.54333333333334,4.786614583333333,63.13465768457883
1361814185.25,20.695513291666668,33.21,78.52166667776,5.27328125,63.19521213924161
1361814185.5,20.692417000000003,33.21,78.5,6.032057291666667,63.241949917809926
1361814185.75,20.691189166666664,33.21083333333333,78.47833332224,5.772890625,63.2790530086462
1361814186.0,20.69140270833333,33.2125,78.45666666666666,5.533802083333334,63.32260006829873
1361814186.25,20.691990041666667,33.21416666666667,78.43750000981333,6.1019010416666655,63.36614712795126
1361814186.5,20.6936985,33.21583333333333,78.41833333333332,6.065625,63.393584265563184
1361814186.75,20.696421166666667,33.2175,78.39916665685332,5.407994791666667,63.410244750926545
1361814187.0,20.699357375,33.219166666666666,78.38,5.428255208333334,63.41135544995076
1361814187.25,20.702880875,33.22083333333333,78.3675000064,5.890026041666666,63.41135544995076
1361814187.5,20.706991583333334,33.222500000000004,78.35499999999999,5.337656249999999,63.41135544995076
1361814187.75,20.71361141666667,33.22416666666666,78.3424999936,4.8272916666666665,63.41135544995076
1361814188.0,20.729306833333332,33.225833333333334,78.33,5.381276041666666,63.41135544995076
1361814188.25,20.757761375,33.2275,78.32416666965334,5.531953125,63.41135544995076
1361814188.5,20.8037605,33.229166666666664,78.31833333333333,4.722526041666667,63.41135544995076
1361814188.75,20.858282125000002,33.23,78.31249999701333,4.62703125,63.41135544995076
1361814189.0,20.911949583333335,33.23,78.30666666666667,5.363411458333334,63.41135544995076
1361814189.25,20.965510208333335,33.23,78.30666666666667,5.066458333333333,63.41135544995076
1361814189.5,21.01843020833333,33.23,78.30666666666667,4.532057291666667,63.41135544995076
1361814189.75,21.070763,33.23,78.30666666666667,5.181979166666666,63.41135544995076
1361814190.0,21.123042375,33.23,78.30666666666667,5.619739583333334,63.41135544995076
1361814190.25,21.170143291666665,33.23,78.30833333248,4.96,63.41135544995076
1361814190.5,21.213080166666668,33.23,78.31,5.100104166666666,63.41135544995076
1361814190.75,21.250998791666667,33.23083333333333,78.31166666752,5.853619791666667,63.41135544995076
1361814191.0,21.278293625,33.232499999999995,78.31333333333333,5.433177083333333,63.41135544995076
1361814191.25,21.291975166666667,33.23416666666666,78.29000001194666,4.725546875,63.41135544995076
1361814191.5,21.287257958333335,33.23583333333333,78.26666666666665,4.833307291666666,63.41135544995076
1361814191.75,21.272363375,33.236666666666665,78.24333332138666,4.717057291666666,63.40073896837061
1361814192.0,21.256080791666665,33.236666666666665,78.21999999999998,3.645885416666667,63.35681230351792
1361814192.25,21.238036458333333,33.236666666666665,78.17083335850666,3.2863281250000003,63.30572332404171
1361814192.5,21.18748025,33.236666666666665,78.12166666666666,3.3665364583333335,63.25214372965639
1361814192.75,21.083878000000002,33.236666666666665,78.07249997482666,2.253567708333333,63.18710188691296
1361814193.0,20.957630750000003,33.236666666666665,78.02333333333333,0.9887239583333333,63.12450878003427
1361814193.25,20.822119083333334,33.23666666666666,77.95250003626666,0.30341145833333333,63.04387183692253
1361814193.5,20.671712875,33.236666666666665,77.88166666666666,-0.8454166666666668,62.938671885051285
1361814193.75,20.50547895833333,33.23583333333333,77.81083329706667,-2.4947916666666665,62.836779417798404
1361814194.0,20.326673916666667,33.23416666666666,77.74,-3.545677083333334,62.74409663169309
1361814194.25,20.139167041666667,33.232499999999995,77.67000003583999,-4.197604166666666,62.67321309520409
1361814194.5,19.923407833333332,33.23083333333333,77.6,-4.616927083333334,62.615017171113635
1361814194.75,19.668212666666665,33.23,77.52999996416,-5.282682291666667,62.588367524398905
1361814195.0,19.393485125,33.23,77.46,-5.808385416666667,62.625504125007005
1361814195.25,19.112778416666668,33.23,77.39333336746667,-6.818255208333333,62.736613282458165
1361814195.5,18.856418083333335,33.23,77.32666666666665,-7.69640625,62.84561363515428
1361814195.75,18.644010124999998,33.23,77.25999996586665,-7.522083333333334,62.98178924717153
1361814196.0,18.447787416666667,33.23,77.19333333333333,-7.009609375,63.09997915158474
1361814196.25,18.265527083333335,33.23,77.12500003498667,-5.4832552083333335,63.23457981904548
1361814196.5,18.101738125,33.23,77.05666666666667,-1.2967447916666666,63.42325363841284
1361814196.75,17.962390083333332,33.23,76.98833329834667,2.451875,63.61885264591833
1361814197.0,17.831982999999997,33.23,76.92000000000002,4.64734375,63.827492193009505
1361814197.25,17.716488666666667,33.23,76.84500003840002,6.660807291666667,64.06123057780376
1361814197.5,17.630100833333334,33.23,76.77000000000001,6.990468750000001,64.29498864919
1361814197.75,17.584003083333332,33.23166666666666,76.6949999616,8.268463541666668,64.50920503361796
1361814198.0,17.563576958333332,33.23499999999999,76.62,11.343255208333334,64.67868412136603
1361814198.25,17.551158708333332,33.23833333333333,76.53666670933335,15.854817708333334,64.7510490754216
1361814198.5,17.54690595833333,33.24166666666667,76.45333333333335,18.382994791666665,64.83369884774844
1361814198.75,17.553134875,33.244166666666665,76.36999995733333,19.16166666666667,64.89967452452659
1361814199.0,17.568119083333332,33.24583333333334,76.28666666666668,19.912265625,64.97433848627452
1361814199.25,17.584331166666665,33.2475,76.19750004565334,18.82984375,65.05303951146787
1361814199.5,17.59808754166667,33.24916666666667,76.10833333333333,14.512005208333333,65.10018712967276
1361814199.75,17.605579666666667,33.25166666666667,76.01916662101333,11.223098958333333,65.13409772669424
1361814200.0,17.618250166666666,33.255,75.92999999999999,9.942447916666667,65.14928471252792
1361814200.25,17.62294808333333,33.25833333333333,75.84166671189332,8.625859375000001,65.11977573928205
1361814200.5,17.627646,33.26166666666667,75.75333333333333,8.729843749999999,65.08448636357362
1361814200.75,17.632343916666667,33.26416666666667,75.66499995477334,8.015338541666667,65.04592626935533
1361814201.0,17.634906416666666,33.26583333333333,75.57666666666667,5.58328125,65.01049365670737
1361814201.25,17.640992333333333,33.267500000000005,75.48500004693334,1.843385416666667,65.00536493553234
1361814201.5,17.650761916666664,33.26916666666667,75.39333333333333,0.11567708333333349,64.99455081575023
1361814201.75,17.662186458333334,33.2725,75.30166661973333,-0.26653645833333317,64.97119364499473
1361814202.0,17.681351916666667,33.277499999999996,75.21,-0.7929687499999999,64.92319626884368
1361814202.25,17.73549866666667,33.282500000000006,75.11416671573333,-0.48427083333333326,64.84491113365888
1361814202.5,17.839860583333333,33.2875,75.01833333333333,0.4172395833333334,64.75438261242219
1361814202.75,17.9861425,33.29291666666666,74.92249995093333,0.5193229166666666,64.64492058628325
1361814203.0,18.169265083333332,33.298750000000005,74.82666666666667,0.05361979166666666,64.51110520817915
1361814203.25,18.377142,33.30458333333333,74.72916671658666,-0.337734375,64.35568854351736
1361814203.5,18.597590083333333,33.31041666666667,74.63166666666666,-1.1766406249999999,64.18175585524409
1361814203.75,18.831491333333332,33.31666666666667,74.53416661674667,-1.8791927083333333,63.9998977024832
1361814204.0,19.081116708333333,33.32333333333333,74.43666666666667,-2.177447916666667,63.81250067213765
1361814204.25,19.34529175,33.33,74.3408333824,-2.339765625,63.61595967942259
1361814204.5,19.6163535,33.336666666666666,74.245,-2.8923958333333335,63.40992223675298
1361814204.75,19.893428625,33.344166666666666,74.1491666176,-3.460104166666667,63.21547145317208
1361814205.0,20.168455916666666,33.3525,74.05333333333334,-4.064036458333333,63.05250960454193
1361814205.25,20.409943291666668,33.36083333333333,73.95916671488001,-4.8703385416666665,62.91759832484727
1361814205.5,20.60393816666667,33.369166666666665,73.86500000000001,-5.3959375,62.797307295368974
1361814205.75,20.7571875,33.37708333333334,73.77083328512,-5.301822916666667,62.698370318654334
1361814206.0,20.874610458333333,33.38458333333333,73.67666666666668,-4.939609375,62.62017666288574
1361814206.25,20.97096266666667,33.39208333333333,73.59083337728,-4.49453125,62.56063137217203
1361814206.5,21.057519791666667,33.39958333333333,73.505,-2.9179427083333334,62.51217467969994
1361814206.75,21.133239666666665,33.40666666666666,73.41916662272,-1.2489062499999999,62.47352606138799
1361814207.0,21.194890375,33.413333333333334,73.33333333333333,-0.3815885416666666,62.45155007172002
1361814207.25,21.2424185,33.42,73.25583337301333,0.009765625000000049,62.43871804442154
1361814207.5,21.282098958333332,33.42666666666667,73.17833333333333,0.9384895833333334,62.43538246707761
1361814207.75,21.31496525,33.4325,73.10083329365332,1.4307812500000001,62.43396436620403
1361814208.0,21.3443805,33.4375,73.02333333333333,1.6763281250000002,62.43254622254472
1361814208.25,21.380735708333333,33.4425,72.95083337045332,2.291015625,62.43096127872382
1361814208.5,21.428622208333334,33.4475,72.87833333333333,2.8355208333333333,62.42026259748923
1361814208.75,21.48862733333333,33.4525,72.80583329621334,2.9880208333333336,62.4189278539107
1361814209.0,21.562882333333334,33.4575,72.73333333333333,2.9016927083333335,62.417676531805846
1361814209.25,21.647810250000003,33.4625,72.66083337045333,2.9340625,62.417176002963906
1361814209.5,21.7372225,33.4675,72.58833333333334,2.0205208333333333,62.41717600296389
1361814209.75,21.828663375,33.47166666666667,72.51583329621334,0.9023958333333333,62.417176002963906
1361814210.0,21.917168125000003,33.475,72.44333333333334,0.33513020833333335,62.41717600296389
1361814210.25,22.00385783333333,33.47833333333333,72.37000003754667,0.18132812499999995,62.417176002963906
1361814210.5,22.093163333333333,33.48166666666667,72.29666666666668,-0.38476562500000006,62.41717600296389
1361814210.75,22.193722333333337,33.48458333333334,72.22333329578667,-0.5729687500000001,62.417176002963906
1361814211.0,22.299395750000002,33.48708333333334,72.15,-0.44109375000000006,62.41717600296389
1361814211.25,22.395459958333333,33.489583333333336,72.08250003456001,-0.375234375,62.41408165013038
1361814211.5,22.479725916666666,33.49208333333333,72.01500000000001,-0.5516927083333334,62.42286178722091
1361814211.75,22.550858958333333,33.49375,71.94749996544,-0.6041666666666666,62.410316691981
1361814212.0,22.606727833333334,33.49458333333334,71.88000000000001,-0.5101562500000001,62.39175057497986
1361814212.25,22.650856041666668,33.49541666666667,71.81500003328001,-0.8121354166666667,62.3775744613703
1361814212.5,22.686335833333334,33.49625,71.75,-0.9750260416666667,62.35214890307887
1361814212.75,22.71717108333333,33.497083333333336,71.68499996672,-0.8257552083333334,62.33266052459575
1361814213.0,22.746671666666668,33.49791666666667,71.62,-0.6228385416666667,62.32287441437774
1361814213.25,22.773769833333333,33.49875,71.55750003200001,-0.40622395833333336,62.30878214272107
1361814213.5,22.7955295,33.499583333333334,71.495,-0.16408854166666667,62.289796815955405
1361814213.75,22.8037935,33.5,71.432499968,0.3568229166666666,62.28824963953864
1361814214.0,22.802779166666667,33.5,71.37,0.9175781249999999,62.28824963953864
1361814214.25,22.8035265,33.5,71.31416669525333,1.13515625,62.29134399237217
1361814214.5,22.804594124999998,33.5,71.25833333333333,1.5856510416666667,62.29134399237216
1361814214.75,22.805821916666662,33.50125,71.20249997141333,2.072421875,62.30388908761207
1361814215.0,22.807316625,33.50375,71.14666666666666,2.3547395833333336,62.32245520461321
1361814215.25,22.809291833333333,33.50625,71.09500002645333,2.8802864583333334,62.33663131822277
1361814215.5,22.812868625000004,33.50875,71.04333333333332,3.3917708333333336,62.36205687651421
1361814215.75,22.816445416666667,33.51,70.99166664021332,3.660338541666667,62.38154525499732
1361814216.0,22.820342541666665,33.51,70.94,3.871796875,62.391331365215336
1361814216.25,22.824933666666666,33.51,70.89250002432,4.205078125,62.405423636872
1361814216.5,22.83016541666667,33.51,70.845,4.5717187500000005,62.42440896363768
1361814216.75,22.835931000000002,33.51125,70.79749997568,4.499947916666667,62.42595614005443
1361814217.0,22.841910166666665,33.513749999999995,70.75,4.106119791666667,62.42595614005443
1361814217.25,22.846768291666667,33.51625,70.71000002048,4.06140625,62.42595614005443
1361814217.5,22.851306124999997,33.518750000000004,70.67,4.144453125,62.42595614005443
1361814217.75,22.855683791666667,33.52,70.62999997952001,3.8847916666666666,62.42595614005443
1361814218.0,22.860702125,33.52,70.59,3.5464583333333333,62.42595614005443
1361814218.25,22.865506916666664,33.52,70.55916668245334,3.274635416666667,62.42595614005443
1361814218.5,22.870098125,33.52,70.52833333333334,2.983385416666667,62.42595614005443
1361814218.75,22.874689333333333,33.52125,70.49749998421332,2.6384374999999998,62.42595614005443
1361814219.0,22.878960208333336,33.52375,70.46666666666665,2.274348958333333,62.42595614005443
1361814219.25,22.882964166666667,33.52625,70.44333334528,1.673203125,62.42595614005443
1361814219.5,22.886914708333336,33.52875,70.41999999999999,1.02703125,62.42595614005443
1361814219.75,22.89107879166667,33.52875,70.39666665472,0.573359375,62.42595614005443
1361814220.0,22.894975916666667,33.526250000000005,70.37333333333333,0.37856770833333325,62.42595614005443
1361814220.25,22.898552749999997,33.52375,70.34250001578667,0.23546874999999998,62.42595614005443
1361814220.5,22.90298375,33.52125,70.31166666666667,-0.10520833333333339,62.42595614005443
1361814220.75,22.908909583333337,33.518750000000004,70.28083331754667,-0.1570052083333334,62.42595614005443
1361814221.0,22.915689583333332,33.51625000000001,70.25,0.06421874999999994,62.42595614005443
1361814221.25,22.92375075,33.51375,70.21000002048,0.35242187499999994,62.42595614005443
1361814221.5,22.938128083333336,33.51125,70.16999999999999,0.37315104166666657,62.42595614005443
1361814221.75,22.956579416666667,33.51,70.12999997952,0.370546875,62.42595614005443
1361814222.0,22.975030750000002,33.51,70.08999999999999,0.5648958333333333,62.42595614005443
1361814222.25,22.993055000000002,33.51,70.04250002431999,1.0465624999999998,62.42595614005443
1361814222.5,23.010492041666666,33.51,69.995,1.378046875,62.42595614005443
1361814222.75,23.027181708333334,33.51125,69.94749997568,1.471328125,62.434247505536774
1361814223.0,23.04355108333333,33.513749999999995,69.9,1.6877864583333333,62.465060351742274
1361814223.25,23.056397000000004,33.51625,69.84833335978668,1.6606510416666664,62.53828069142755
1361814223.5,23.063904416666663,33.518750000000004,69.79666666666668,1.431953125,62.6588813256194
1361814223.75,23.061588875,33.52125,69.74499997354667,0.9829947916666667,62.78308843798994
1361814224.0,23.031939833333336,33.52375,69.69333333333334,0.36499999999999994,62.907132785207516
1361814224.25,22.958764833333333,33.52625,69.64166669312,-0.6579166666666668,63.03606157832633
1361814224.5,22.836506,33.52875,69.59,-1.36203125,63.18224837356226
1361814224.75,22.669454958333333,33.53,69.53833330688,-1.707890625,63.33745302321926
1361814225.0,22.464655000000004,33.53,69.48666666666666,-2.1742708333333334,63.479700590032195
1361814225.25,22.2380205,33.53,69.43500002645334,-3.4209895833333337,63.59815964289903
1361814225.5,22.002363875,33.53,69.38333333333333,-4.521848958333333,63.707392163312186
1361814225.75,21.757728958333335,33.53,69.33166664021333,-5.339479166666667,63.80408341868283
1361814226.0,21.513094041666665,33.53,69.28,-6.171979166666667,63.86896296706542
1361814226.25,21.271662250000002,33.53,69.2300000256,-6.857942708333333,63.85463658394195
1361814226.5,21.03471479166667,33.53,69.18,-7.0827864583333335,63.758418668242854
1361814226.75,20.806095458333335,33.53,69.1299999744,-6.869557291666667,63.65307449716988
1361814227.0,20.615967125,33.53,69.08,-6.64578125,63.561382575406036
1361814227.25,20.48559404166667,33.53,69.03333335722667,-5.8070312500000005,63.45031585001296
1361814227.5,20.427539666666668,33.53,68.98666666666666,-5.031041666666667,63.314922318278455
1361814227.75,20.451693416666668,33.53,68.93999997610666,-4.294583333333334,63.17038604796139
1361814228.0,20.53461079166667,33.53,68.89333333333333,-3.499557291666667,63.03880686048839
1361814228.25,20.640697375000002,33.53,68.84916668928,-2.1494270833333333,62.93155733039122
1361814228.5,20.756873625,33.53,68.80499999999999,-0.95703125,62.83586428727529
1361814228.75,20.882722125,33.53,68.76083331071999,0.23893229166666663,62.74828730872415
1361814229.0,21.00921116666667,33.53,68.71666666666665,1.6103906250000002,62.67755918047981
1361814229.25,21.13580704166667,33.53,68.67500002133332,2.771484375,62.65276061263302
1361814229.5,21.26240291666667,33.53,68.63333333333333,3.630703125,62.66305345546721
1361814229.75,21.388998791666666,33.52875,68.59166664533333,4.181197916666667,62.70199749609477
1361814230.0,21.502034875000003,33.526250000000005,68.55,4.82125,62.761723221296535
1361814230.25,21.59649275,33.52375,68.50500002304,5.131588541666667,62.87143860632878
1361814230.5,21.66006491666667,33.52125,68.46000000000001,5.230677083333333,62.99819363925431
1361814230.75,21.665117166666665,33.518750000000004,68.41499997696,4.995572916666666,63.119666784842536
1361814231.0,21.626679541666665,33.51625000000001,68.37,4.4773958333333335,63.25130408537472
1361814231.25,21.58119516666667,33.51375,68.33916668245334,3.944427083333333,63.387105780620665
1361814231.5,21.534643250000002,33.51125,68.30833333333334,3.554322916666667,63.546383956328576
1361814231.75,21.487397375,33.50875,68.27749998421334,3.1234895833333334,63.737099502350304
1361814232.0,21.439510958333333,33.50625,68.24666666666667,2.1009895833333334,63.91773432325806
1361814232.25,21.391517708333335,33.503750000000004,68.23333334016,0.9655989583333334,64.09140688124367
1361814232.5,21.343524458333334,33.50125,68.22,-0.37148437500000003,64.26818892585011
1361814232.75,21.30188408333333,33.50208333333333,68.20666665984,-1.4893750000000001,64.41254173036877
1361814233.0,21.269479333333333,33.50625,68.19333333333333,-2.2917968749999997,64.491582405369
1361814233.25,21.248125416666667,33.510416666666664,68.20916665856,-3.474270833333333,64.52952833038962
1361814233.5,21.2357935,33.51458333333333,68.225,-4.139661458333333,64.59632355447374
1361814233.75,21.240491583333334,33.51875,68.24083334144,-4.9271875,64.67371427818962
1361814234.0,21.26809175,33.52291666666667,68.25666666666666,-5.631562500000001,64.73499582430749
1361814234.25,21.302792083333333,33.52708333333333,68.28083332096,-6.079453125000001,64.79936215556162
1361814234.5,21.338133041666666,33.53124999999999,68.305,-6.328072916666667,64.83716001451093
1361814234.75,21.373474,33.53541666666666,68.32916667904,-6.58140625,64.83937335491036
1361814235.0,21.408868249999998,33.53958333333333,68.35333333333334,-6.399036458333334,64.84555252911045
1361814235.25,21.444102375,33.543749999999996,68.38249998506667,-5.448854166666667,64.8544874877582
1361814235.5,21.479176374999998,33.54791666666666,68.41166666666668,-4.4203906250000005,64.8515596379242
1361814235.75,21.5078975,33.55,68.44083334826668,-3.796302083333334,64.86197805951291
1361814236.0,21.526635458333335,33.55,68.47000000000001,-3.615989583333333,64.90439977809933
1361814236.25,21.533521833333335,33.55,68.49499998720002,-2.9557291666666665,64.94800850810482
1361814236.5,21.531065916666666,33.55,68.52000000000001,-2.8832291666666667,64.94537143061281
1361814236.75,21.52861,33.55,68.5450000128,-2.2146874999999997,64.94276429097141
1361814237.0,21.5243925,33.55,68.57000000000001,-1.1654427083333334,64.9404812524002
1361814237.25,21.516918458333333,33.55,68.59499998720001,-0.6559375000000001,64.92639220011861
1361814237.5,21.50565404166667,33.55,68.62,-0.11617187500000004,64.9118595896481
1361814237.75,21.49316175,33.55083333333333,68.6450000128,0.3729166666666666,64.89615912367944
1361814238.0,21.480135666666666,33.5525,68.67,0.6259374999999999,64.86935618242019
1361814238.25,21.466789208333335,33.55416666666667,68.69166665557334,0.25255208333333334,64.83911772722573
1361814238.5,21.453442749999997,33.55583333333333,68.71333333333334,0.25861979166666665,64.8275954084597
1361814238.75,21.439776041666665,33.5575,68.73500001109333,0.5188541666666667,64.81218542306435
1361814239.0,21.427123750000003,33.55916666666666,68.75666666666667,0.8279427083333334,64.79581310145936
1361814239.25,21.415806041666666,33.56083333333333,68.77583332352,1.0370052083333334,64.78405012018335
1361814239.5,21.406143291666666,33.5625,68.795,1.567421875,64.77951189980145
1361814239.75,21.396266999999998,33.564166666666665,68.81416667648,1.573203125,64.76975501343597
1361814240.0,21.387725375000002,33.56583333333333,68.83333333333333,1.2821354166666667,64.76336625951511
1361814240.25,21.381052208333333,33.5675,68.84666665984,1.50484375,64.7484341656657
1361814240.5,21.377528791666666,33.56916666666667,68.86,1.4773697916666668,64.73216837252394
1361814240.75,21.375233249999997,33.56916666666667,68.87333334016,1.2451562500000002,64.69814075464016
1361814241.0,21.373898708333332,33.567499999999995,68.88666666666667,1.0822395833333334,64.62650661670843
1361814241.25,21.385483500000003,33.56583333333333,68.89833332736,1.2034114583333333,64.4962142724373
1361814241.5,21.412283083333335,33.564166666666665,68.91,1.09703125,64.3529928338399
1361814241.75,21.440630791666667,33.5625,68.92166667264,0.9541666666666666,64.20961060993871
1361814242.0,21.46972583333333,33.560833333333335,68.93333333333334,0.8951302083333332,64.06407959105499
1361814242.25,21.499087833333334,33.55916666666666,68.93916666368,0.6442447916666666,63.91673607206342
1361814242.5,21.52844983333333,33.5575,68.945,0.4008333333333333,63.77335384816222
1361814242.75,21.558025375,33.55583333333333,68.95083333632,0.5579947916666667,63.6278228292785
1361814243.0,21.587600916666663,33.55416666666667,68.95666666666666,0.5730729166666667,63.47970981082333
1361814243.25,21.616482458333333,33.552499999999995,68.95999999829333,0.2977083333333333,63.35113940642052
1361814243.5,21.644990333333336,33.55083333333333,68.96333333333334,0.25408854166666667,63.22510829681432
1361814243.75,21.6731245,33.55083333333333,68.96666666837334,0.4409895833333333,63.1182878506797
1361814244.0,21.70061804166667,33.552499999999995,68.97,0.6363802083333333,63.05873266715505
1361814244.25,21.71567275,33.55416666666667,68.96666666837334,0.6559635416666666,63.05634656000823
1361814244.5,21.715672791666666,33.55583333333333,68.96333333333334,0.6744270833333332,63.05634656000823
1361814244.75,21.714444958333335,33.5575,68.95999999829333,0.7248437499999999,63.05634656000823
1361814245.0,21.712843458333335,33.55916666666667,68.95666666666666,0.7620052083333332,63.058495354990754
1361814245.25,21.7114555,33.560833333333335,68.95333333504,1.0846354166666667,63.062255746210184
1361814245.5,21.710334416666665,33.5625,68.95,1.3129947916666667,63.06225574621018
1361814245.75,21.709533708333336,33.564166666666665,68.94666666496,1.1507291666666666,63.06440454119271
1361814246.0,21.708946541666666,33.56583333333334,68.94333333333334,1.3373958333333331,63.071388124885914
1361814246.25,21.709106708333334,33.5675,68.94166666752001,1.7319270833333331,63.071388124885914
1361814246.5,21.70964054166667,33.56916666666667,68.94,1.7237239583333333,63.071388124885914
1361814246.75,21.710708291666666,33.57,68.93833333248,1.6203645833333333,63.071388124885914
1361814247.0,21.71214970833333,33.57,68.93666666666667,1.7605989583333332,63.040432984099674
1361814247.25,21.71375125,33.57,68.93833333248,1.8181510416666669,62.99465031780604
1361814247.5,21.71556633333333,33.57,68.94,1.7442708333333332,62.94886765151241
1361814247.75,21.717701708333333,33.57,68.94166666752001,1.7893489583333333,62.903084985218776
1361814248.0,21.720264166666666,33.57,68.94333333333334,1.844453125,62.85730231892515
1361814248.25,21.722986833333334,33.57,68.94250000042668,1.6849999999999998,62.81151965263151
1361814248.5,21.726029916666665,33.57,68.94166666666666,1.5465364583333334,62.765736986337885
1361814248.75,21.728752625,33.57,68.94083333290666,1.6659635416666667,62.71995432004425
1361814249.0,21.731261791666668,33.57,68.94,1.556015625,62.67417165375062
1361814249.25,21.733664208333334,33.57,68.93166667093334,1.269765625,62.62838898745699
1361814249.5,21.736066625000003,33.57,68.92333333333335,1.2853645833333334,62.58260632116336
1361814249.75,21.738308833333335,33.57,68.91499999573334,1.383828125,62.53682365486972
1361814250.0,21.7403375,33.57,68.90666666666668,1.185703125,62.52199612936234
1361814250.25,21.741565416666663,33.57,68.89000000853333,0.973125,62.52199612936234
1361814250.5,21.742152708333336,33.57,68.87333333333333,1.0453906249999998,62.52199612936234
1361814250.75,21.741885791666665,33.57,68.85666665813334,1.018828125,62.52199612936234
1361814251.0,21.741191791666665,33.57,68.83999999999999,0.7867708333333333,62.52199612936234
1361814251.25,21.740124041666665,33.57,68.81750001152,0.6590364583333334,62.52199612936234
1361814251.5,21.738469,33.57,68.79499999999999,0.7765885416666666,62.52199612936234
1361814251.75,21.736813958333332,33.57083333333333,68.77249998847999,0.7844270833333334,62.52199612936234
1361814252.0,21.735158916666666,33.5725,68.75,0.7827864583333333,62.52199612936234
1361814252.25,21.734091208333336,33.57416666666666,68.72666667861334,1.066875,62.52199612936234
1361814252.5,21.733557333333334,33.575833333333335,68.70333333333335,1.24625,62.52199612936234
1361814252.75,21.73403775,33.5775,68.67999998805334,1.2332812499999999,62.52324449315506
1361814253.0,21.73462495833333,33.57916666666667,68.65666666666668,1.2884895833333332,62.52698958453322
1361814253.25,21.735906208333333,33.58083333333334,68.63416667818667,1.5573177083333334,62.536976494874956
1361814253.5,21.737667875,33.5825,68.61166666666668,1.6525520833333331,62.5469634052167
1361814253.75,21.739963458333335,33.58416666666667,68.58916665514668,1.6406770833333333,62.54883595090579
1361814254.0,21.742259041666667,33.58583333333333,68.56666666666668,1.86296875,62.553205224180296
1361814254.25,21.744554624999996,33.5875,68.545833344,2.1968229166666666,62.56069540693661
1361814254.5,21.746263,33.58916666666667,68.525,2.2606510416666667,62.56506468021112
1361814254.75,21.747864625000002,33.59,68.50416665600001,2.2295833333333333,62.57255486296743
1361814255.0,21.748505249999997,33.59,68.48333333333333,2.3425781249999997,62.58129340951646
1361814255.25,21.747330708333333,33.59,68.46250001066666,2.313177083333333,62.591280319858214
1361814255.5,21.745141874999998,33.59,68.44166666666666,2.184140625,62.60126723019996
1361814255.75,21.741671791666665,33.59,68.42083332266667,2.284479166666667,62.610005776748984
1361814256.0,21.73772120833333,33.59,68.39999999999999,2.506692708333333,62.61624759571257
1361814256.25,21.73345025,33.59,68.37916667733333,2.541484375,62.61624759571257
1361814256.5,21.729072541666667,33.59,68.35833333333332,2.4194791666666666,62.61624759571257
1361814256.75,21.724694833333334,33.59,68.33749998933332,2.6218229166666664,62.624361960365235
1361814257.0,21.720317124999998,33.59,68.31666666666666,2.7884895833333334,62.626234506054324
1361814257.25,21.715939416666668,33.59,68.29416667818667,2.6597395833333333,62.62311359657252
1361814257.5,21.712148916666667,33.59,68.27166666666668,2.4715624999999997,62.62873123363976
1361814257.75,21.708518583333333,33.59,68.24916665514667,2.5201041666666666,62.63122796122519
1361814258.0,21.706223041666664,33.59,68.22666666666667,2.4785677083333333,62.64589973349987
1361814258.25,21.70520875,33.59,68.20250001237333,2.269401041666667,62.67050931571679
1361814258.5,21.706169708333334,33.59,68.17833333333334,2.2312760416666664,62.70630507166867
1361814258.75,21.708892416666668,33.59,68.15416665429333,2.2291145833333332,62.74210082762056
1361814259.0,21.711988833333333,33.59,68.13,1.9964583333333332,62.77789658357244
1361814259.25,21.715352208333332,33.59,68.10416667989332,1.827421875,62.81369233952433
1361814259.5,21.718768999999998,33.59,68.07833333333332,2.03765625,62.84948809547621
1361814259.75,21.72218579166667,33.59,68.05249998677333,2.0365364583333334,62.885283851428106
1361814260.0,21.72560258333333,33.59,68.02666666666666,1.80890625,62.92482469875813
1361814260.25,21.728699125000002,33.59,68.00166667946665,1.7788281250000002,62.96623809177726
1361814260.5,21.7309415,33.59,67.97666666666666,2.184401041666667,63.00203384772914
1361814260.75,21.732222875,33.59,67.95166665386667,2.47703125,63.037829603681026
1361814261.0,21.732009333333334,33.59,67.92666666666666,2.529635416666667,63.06020195115095
1361814261.25,21.730941625,33.59,67.90500001109334,2.8359895833333333,63.06915089013892
1361814261.5,21.727898624999998,33.59,67.88333333333333,3.2559114583333333,63.05125301216298
1361814261.75,21.723147291666667,33.59,67.86166665557333,3.431796875,63.015457256211086
1361814262.0,21.717968874999997,33.59,67.84,3.627265625,62.97966150025922
1361814262.25,21.71241675,33.59,67.82333334186667,3.8224739583333336,62.943865744307324
1361814262.5,21.706757874999997,33.59,67.80666666666667,3.7398437500000004,62.90806998835544
1361814262.75,21.700992208333332,33.59,67.78999999146666,3.458645833333333,62.872274232403555
1361814263.0,21.694425791666664,33.59,67.77333333333333,3.532916666666667,62.836478476451674
1361814263.25,21.687005166666665,33.59,67.75833334101333,3.7097916666666673,62.800682720499786
1361814263.5,21.679744666666664,33.59,67.74333333333334,3.3661197916666663,62.758020963687954
1361814263.75,21.672697708333335,33.59,67.72833332565334,2.9226822916666664,62.70669183239858
1361814264.0,21.666291375,33.59,67.71333333333334,2.8847916666666666,62.64902388397124
1361814264.25,21.660685791666666,33.59,67.69750000810667,2.640286458333333,62.592800818148625
1361814264.5,21.655560708333336,33.59,67.68166666666667,2.097369791666667,62.55223839555497
1361814264.75,21.650649166666668,33.590833333333336,67.66583332522666,1.77515625,62.529573850937254
1361814265.0,21.646058,33.5925,67.64999999999999,1.5734635416666667,62.50690930631953
1361814265.25,21.641840541666667,33.59416666666667,67.63750000639999,1.4632812500000003,62.48424476170181
1361814265.5,21.637623125,33.59583333333333,67.625,1.6044270833333334,62.4615802170841
1361814265.75,21.63329895833333,33.597500000000004,67.61249999360001,2.0028385416666667,62.43891567246638
1361814266.0,21.629562000000004,33.59916666666667,67.60000000000001,2.08375,62.416251127848675
1361814266.25,21.626946083333333,33.600833333333334,67.59000000512,2.068671875,62.393586583230956
1361814266.5,21.624970791666666,33.6025,67.58000000000001,2.3320312500000004,62.37778803947319
1361814266.75,21.62310229166667,33.60333333333333,67.56999999488,2.51828125,62.38170259052907
1361814267.0,21.620860124999997,33.60333333333333,67.56,2.4779166666666668,62.3872490555248
1361814267.25,21.6181375,33.60333333333333,67.55583333546667,2.8044791666666664,62.392795520520544
1361814267.5,21.614827666666667,33.60333333333333,67.55166666666668,3.1913802083333334,62.39438022480504
1361814267.75,21.610770458333334,33.6025,67.54749999786667,3.322421875,62.40071904194303
1361814268.0,21.606339458333334,33.600833333333334,67.54333333333334,3.6338020833333338,62.42108414936471
1361814268.25,21.601694916666663,33.59916666666667,67.54000000170667,3.894244791666667,62.45836169770695
1361814268.5,21.596783375,33.597500000000004,67.53666666666666,3.7728385416666668,62.4956392460492
1361814268.75,21.591658291666665,33.59583333333334,67.53333333162666,3.731380208333333,62.53291679439144
1361814269.0,21.586586625,33.59416666666667,67.53,3.928125,62.57019434273368
1361814269.25,21.581461583333333,33.5925,67.53,3.8508333333333336,62.60747189107593
1361814269.5,21.576016291666665,33.590833333333336,67.53,3.811302083333333,62.64474943941817
1361814269.75,21.570731125,33.590833333333336,67.53,4.131354166666667,62.6709812674243
1361814270.0,21.566300124999998,33.5925,67.53,4.4282031250000005,62.70191999862857
1361814270.25,21.562082625,33.59416666666667,67.53416666453333,4.181119791666667,62.73365108197506
1361814270.5,21.55829220833333,33.59583333333333,67.53833333333333,3.85671875,62.77340238948832
1361814270.75,21.554608541666667,33.597500000000004,67.54250000213334,3.7532552083333335,62.80434112069258
1361814271.0,21.550444458333335,33.59916666666667,67.54666666666667,3.259010416666667,62.8319316351397
1361814271.25,21.546120249999998,33.600833333333334,67.55833332736,2.7797135416666667,62.85311438736705
1361814271.5,21.5163845,33.6025,67.57000000000001,2.5177343750000003,62.87924439196038
1361814271.75,21.448958666666666,33.605,67.58166667264001,1.9202864583333332,62.93405638196972
1361814272.0,21.380004041666666,33.608333333333334,67.59333333333335,1.1427083333333334,63.02618064414929
1361814272.25,21.300450291666667,33.61166666666667,67.61583332181334,0.6022395833333333,63.15210188405403
1361814272.5,21.221270208333333,33.615,67.63833333333334,-0.08322916666666676,63.273688373688884
1361814272.75,21.14251725,33.6175,67.66083334485333,-0.9746093750000001,63.402401170087636
1361814273.0,21.06376429166667,33.619166666666665,67.68333333333332,-1.8997395833333337,63.5408554194303
1361814273.25,20.985331708333334,33.62083333333333,67.71416665087999,-2.530625,63.67498333325192
1361814273.5,20.902220458333332,33.6225,67.745,-2.831328125,63.78418997328217
1361814273.75,20.819749833333333,33.62416666666667,67.77583334912,-2.980182291666667,63.91839884837011
1361814274.0,20.738240125,33.62583333333334,67.80666666666667,-3.313411458333333,64.08199193994687
1361814274.25,20.657104083333333,33.627500000000005,67.83999998293334,-3.723619791666667,64.23549129143582
1361814274.5,20.601753291666665,33.62916666666667,67.87333333333333,-3.974375,64.3731926561404
1361814274.75,20.568639541666666,33.63,67.90666668373333,-4.079973958333333,64.47968262058767
1361814275.0,20.51735520833333,33.63,67.94,-4.14828125,64.54512192990515
1361814275.25,20.470956833333332,33.63,67.97333331626666,-4.069296875,64.56488151838114
1361814275.5,20.424558458333333,33.63,68.00666666666666,-4.256067708333334,64.59925043444956
1361814275.75,20.37816008333333,33.63,68.04000001706667,-4.431510416666667,64.62294825255715
1361814276.0,20.331761708333335,33.63,68.07333333333334,-4.033567708333334,64.6404096233788
1361814276.25,20.285363333333333,33.63,68.10499998378667,-4.030677083333333,64.66046471966197
1361814276.5,20.24380375,33.63,68.13666666666666,-4.070729166666666,64.70468603094203
1361814276.75,20.218711583333334,33.63,68.16833334954666,-4.794401041666666,64.72389518122246
1361814277.0,20.2081125,33.63,68.19999999999999,-5.379869791666667,64.67470442553622
1361814277.25,20.197513416666666,33.63,68.23416664917332,-5.936119791666667,64.59642581857946
1361814277.5,20.186914333333334,33.63,68.26833333333332,-6.2538802083333325,64.53953159634024
1361814277.75,20.192195375,33.63,68.30250001749333,-7.094036458333332,64.5133229660328
1361814278.0,20.220674583333334,33.63,68.33666666666666,-8.010364583333333,64.48304524877393
1361814278.25,20.25497375,33.63,68.37249998165333,-9.130885416666667,64.44838345992171
1361814278.5,20.289272916666665,33.63,68.40833333333333,-10.216302083333334,64.40835958634746
1361814278.75,20.322479708333333,33.63,68.44416668501333,-12.020416666666668,64.37543845298102
1361814279.0,20.352002875,33.63,68.48,-14.312916666666668,64.31637145036147
1361814279.25,20.37981770833333,33.63,68.51749998080001,-15.7259375,64.26058633311193
1361814279.5,20.404162499999998,33.63,68.555,-16.97484375,64.2058053719564
1361814279.75,20.407206416666664,33.630833333333335,68.5925000192,-16.698333333333334,64.14647571478372
1361814280.0,20.39022975,33.6325,68.63000000000001,-15.877734375000001,64.14207263894373
1361814280.25,20.362978416666667,33.634166666666665,68.67083331242668,-16.56643229166667,64.18612645539466
1361814280.5,20.324996583333334,33.63583333333334,68.71166666666667,-18.52026041666667,64.21987543355203
1361814280.75,20.259705999999998,33.63791666666666,68.75250002090667,-19.145989583333336,64.16987741929331
1361814281.0,20.146100583333332,33.64041666666667,68.79333333333334,-18.759843749999998,64.0832250839296
1361814281.25,20.001014208333334,33.642916666666665,68.8391666432,-16.3959375,64.02691801808395
1361814281.5,19.838466125,33.64541666666667,68.885,-13.157838541666669,63.965490881957486
1361814281.75,19.67701041666667,33.64875,68.93083335680001,-9.240651041666666,63.91354636322719
1361814282.0,19.519238333333334,33.65291666666666,68.97666666666667,-5.860963541666667,63.89420325164002
1361814282.25,19.363174583333333,33.65708333333333,69.02999997269333,-4.27453125,63.87486249731369
1361814282.5,19.210580875,33.66125,69.08333333333334,-3.766536458333333,63.812204891075275
1361814282.75,19.062820625,33.66583333333333,69.13666669397334,-4.213541666666667,63.74761931879494
1361814283.0,18.924812,33.670833333333334,69.19,-4.834713541666667,63.63037450451555
1361814283.25,18.827240875,33.67583333333334,69.24499997184,-2.7773958333333333,63.496166484398394
1361814283.5,18.767726916666664,33.68083333333333,69.30000000000001,0.633125,63.34970604434121
1361814283.75,18.748072,33.68416666666667,69.35500002816,2.4621614583333336,63.263689668720424
1361814284.0,18.7821065,33.68583333333333,69.41000000000001,2.6061718750000002,63.23249941347936
1361814284.25,18.85306725,33.6875,69.46749997056001,0.8188281250000001,63.18673410831553
1361814284.5,18.944254416666666,33.689166666666665,69.525,-1.5694010416666666,63.140183274141755
1361814284.75,19.04142075,33.690000000000005,69.58250002944,-3.710911458333333,63.08059187356097
1361814285.0,19.14062708333333,33.690000000000005,69.64,-4.589609374999999,63.01103992943217
1361814285.25,19.239833416666666,33.690000000000005,69.69916663637333,-3.9719270833333336,62.939936352732055
1361814285.5,19.33903975,33.690000000000005,69.75833333333333,-2.7449218749999997,62.907842067189016
1361814285.75,19.438246083333336,33.68875,69.81750003029333,-1.6159114583333334,62.886292833102466
1361814286.0,19.533228291666667,33.686249999999994,69.87666666666667,-0.4960677083333332,62.89081387563356
1361814286.25,19.598047666666666,33.683749999999996,69.94249996629333,-0.6919270833333332,62.892518144369056
1361814286.5,19.62929425,33.68125,70.00833333333333,-1.3111197916666666,62.906246021039
1361814286.75,19.641584208333335,33.68125,70.07416670037334,-0.9723958333333331,62.91512064859811
1361814287.0,19.63832754166667,33.68375,70.14,0.1545833333333335,62.913630946793525
1361814287.25,19.621777958333336,33.68625,70.21083329706667,1.22625,62.91263784010332
1361814287.5,19.597125166666668,33.68875,70.28166666666667,2.408880208333333,62.91263784010332
1361814287.75,19.563183249999998,33.692083333333336,70.35250003626666,3.4328125000000003,62.91263784010332
1361814288.0,19.525546375,33.69625,70.42333333333333,3.493515625,62.91263784010332
1361814288.25,19.487002,33.70041666666666,70.49833329493333,3.43296875,62.91263784010332
1361814288.5,19.44765679166667,33.70458333333333,70.57333333333332,3.843828125,62.91263784010332
1361814288.75,19.407510833333333,33.708749999999995,70.64833337173333,3.9984635416666667,62.91263784010332
1361814289.0,19.365496375000003,33.712916666666665,70.72333333333333,3.89328125,62.91263784010332
1361814289.25,19.32348191666667,33.717083333333335,70.79916662784,4.2980729166666665,62.91263784010332
1361814289.5,19.287713583333332,33.72125,70.875,4.362760416666667,62.91263784010332
1361814289.75,19.258351583333333,33.725,70.95083337215999,4.13640625,62.92488564298535
1361814290.0,19.2364635,33.72833333333333,71.02666666666666,3.975859375,62.98538464164861
1361814290.25,19.22242304166667,33.73166666666666,71.10249996117332,4.061276041666667,63.067111480124716
1361814290.5,19.231487166666664,33.735,71.17833333333333,3.82875,63.151891904333496
1361814290.75,19.270126958333332,33.7375,71.25416670549333,3.4219010416666666,63.238552482761385
1361814291.0,19.312433875,33.73916666666667,71.33,3.79734375,63.31268823855043
1361814291.25,19.361307166666666,33.740833333333335,71.3799999744,3.615703125,63.412244752131976
1361814291.5,19.413170125,33.7425,71.42999999999999,2.8780208333333337,63.50741262083025
1361814291.75,19.465833833333335,33.744166666666665,71.48000002559999,2.9597916666666673,63.60331193034239
1361814292.0,19.52036604166667,33.74583333333333,71.52999999999999,3.1284635416666666,63.686146978642135
1361814292.25,19.57489825,33.747499999999995,71.55416665429333,2.3701041666666667,63.75829365298663
1361814292.5,19.629430458333335,33.74916666666667,71.57833333333332,2.504244791666667,63.827376627981636
1361814292.75,19.677154875000003,33.75,71.60250001237333,3.0259114583333333,63.88543817499005
1361814293.0,19.703898833333337,33.75,71.62666666666667,3.399635416666667,63.89965978486166
1361814293.25,19.696290333333334,33.75,71.61583333888,2.9317968750000003,63.89338801206522
1361814293.5,19.643064958333337,33.75,71.60499999999999,2.8400260416666665,63.8856942262199
1361814293.75,19.555234375,33.75083333333333,71.59416666112,3.4860156250000003,63.882765476637296
1361814294.0,19.464056958333334,33.752500000000005,71.58333333333333,3.127161458333333,63.9017215915944
1361814294.25,19.36273625,33.75416666666667,71.56250001066667,3.6794270833333336,63.89265417983651
1361814294.5,19.2542085,33.755833333333335,71.54166666666666,4.066197916666667,63.89188101118546
1361814294.75,19.14327845833333,33.7575,71.52083332266666,3.2232552083333332,63.89505205184383
1361814295.0,19.032348416666668,33.759166666666665,71.5,2.9590885416666666,63.914657560066324
1361814295.25,18.919076125,33.76083333333333,71.46916668245333,3.6768750000000003,63.95197130682368
1361814295.5,18.804102166666667,33.7625,71.43833333333333,3.0775260416666668,63.99234875293053
1361814295.75,18.695609,33.76416666666667,71.40749998421333,1.5503125000000002,64.03149982414195
1361814296.0,18.606388,33.76583333333334,71.37666666666667,1.1498958333333336,64.06623963670894
1361814296.25,18.550405083333334,33.767500000000005,71.34583334912,1.37328125,64.1007314655376
1361814296.5,18.52136545833333,33.76916666666667,71.315,0.7693489583333334,64.13505114190188
1361814296.75,18.498690041666666,33.77,71.28416665088,-0.33554687499999997,64.16272562778433
1361814297.0,18.475107041666664,33.77,71.25333333333333,-0.4336458333333333,64.18104007176589
1361814297.25,18.45317904166667,33.77,71.22333334869333,-1.7621093750000003,64.20195728466996
1361814297.5,18.43269241666667,33.77,71.19333333333333,-2.0558333333333336,64.21896889935047
1361814297.75,18.411671875,33.770833333333336,71.16333331797334,-1.0936197916666666,64.23130486390768
1361814298.0,18.388729541666667,33.7725,71.13333333333334,-1.4050260416666667,64.24027062211319
1361814298.25,18.365940625,33.774166666666666,71.10833334613334,-2.0532291666666667,64.24221651573905
1361814298.5,18.341863749999998,33.77583333333333,71.08333333333333,-1.1532552083333332,64.2441624093649
1361814298.75,18.31608525,33.7775,71.05833332053332,0.3223697916666668,64.24610830299078
1361814299.0,18.289879708333334,33.77916666666667,71.03333333333332,0.5284375000000001,64.24805419661664
1361814299.25,18.263614,33.780833333333334,71.01250001066666,1.2708333333333333,64.24951361683604
1361814299.5,18.237401625,33.782500000000006,70.99166666666665,2.495703125,64.24951361683604
1361814299.75,18.213164541666668,33.784166666666664,70.97083332266665,3.096666666666667,64.24951361683604
1361814300.0,18.191169708333334,33.785833333333336,70.94999999999999,3.3045833333333334,64.24951361683604
1361814300.25,18.172004291666667,33.7875,70.93583334058665,4.233072916666667,64.24951361683604
1361814300.5,18.15641570833333,33.78916666666667,70.92166666666665,4.305260416666667,64.24951361683604
1361814300.75,18.143763333333336,33.79,70.90749999274666,3.9968229166666664,64.24951361683604
1361814301.0,18.132178666666665,33.79,70.89333333333333,5.173177083333333,64.24951361683604
1361814301.25,18.121554958333334,33.79,70.88500000426666,5.840338541666667,64.24951361683604
1361814301.5,18.1129065,33.79,70.87666666666667,5.188385416666667,64.24951361683604
1361814301.75,18.106286666666666,33.79,70.86833332906667,4.872630208333334,64.25072922609559
1361814302.0,18.101428583333334,33.79,70.86,4.4956249999999995,64.26250950760121
1361814302.25,18.09998720833333,33.79,70.85750000128,3.4851041666666664,64.27076930679107
1361814302.5,18.101748958333335,33.79,70.85499999999999,2.675234375,64.28016324715132
1361814302.75,18.10351070833333,33.791666666666664,70.85249999871999,2.481171875,64.28668412191932
1361814303.0,18.105272458333335,33.794999999999995,70.85,2.2871614583333333,64.29526940690222
1361814303.25,18.10703420833333,33.79833333333333,70.85583333034666,2.589010416666667,64.30660559743298
1361814303.5,18.108795958333335,33.80166666666667,70.86166666666665,2.8821614583333335,64.31191225808091
1361814303.75,18.112426208333332,33.805,70.86750000298666,2.872890625,64.3177857161254
1361814304.0,18.117924875,33.80833333333334,70.87333333333332,1.1833854166666666,64.32879724383935
1361814304.25,18.124651416666666,33.81166666666667,70.88833332565332,0.17447916666666666,64.33159037610879
1361814304.5,18.132392333333332,33.815,70.90333333333332,0.323359375,64.31599097346873
1361814304.75,18.14013325,33.818333333333335,70.91833334101332,0.12390625,64.29072636045532
1361814305.0,18.14760720833333,33.821666666666665,70.93333333333332,0.6383072916666667,64.25489707519581
1361814305.25,18.152839,33.824999999999996,70.95666665472,1.2340104166666668,64.22258827225208
1361814305.5,18.153266125,33.82833333333333,70.97999999999999,1.6910156250000001,64.18914532813794
1361814305.75,18.150970583333333,33.83,71.00333334527998,2.2253906249999997,64.16032161654799
1361814306.0,18.14605908333333,33.83,71.02666666666666,2.5047916666666667,64.13467199553878
1361814306.25,18.139759583333333,33.83,71.05166665386666,2.155338541666666,64.09928680125415
1361814306.5,18.133299958333332,33.83,71.07666666666665,2.159270833333333,64.07947601615562
1361814306.75,18.12406425,33.830416666666665,71.10166667946666,2.2645572916666663,64.07728791117546
1361814307.0,18.113814208333334,33.831250000000004,71.12666666666667,3.2821093749999997,64.06862488576586
1361814307.25,18.10356416666667,33.83208333333333,71.15166665386667,4.054635416666667,64.0749815921839
1361814307.5,18.092246416666665,33.83291666666667,71.17666666666668,4.024479166666667,64.10482932955644
1361814307.75,18.080375791666665,33.83375,71.20166667946667,4.2811458333333325,64.14312666804277
1361814308.0,18.067811125000002,33.834583333333335,71.22666666666667,4.0457552083333335,64.18142400652911
1361814308.25,18.054624875,33.83541666666667,71.26416664746667,3.858046875,64.21972134501546
1361814308.5,18.043253708333335,33.83625,71.30166666666668,3.918723958333333,64.2580186835018
1361814308.75,18.027718500000002,33.83708333333333,71.33916668586667,3.5583854166666664,64.29456985505625
1361814309.0,17.987393416666666,33.83791666666667,71.37666666666667,3.279765625,64.32588252581499
1361814309.25,17.910021208333337,33.83875,71.42749997397333,3.3680729166666663,64.36417986430133
1361814309.5,17.818149666666667,33.83958333333334,71.47833333333332,3.2000260416666664,64.3929323234844
1361814309.75,17.727185708333334,33.84,71.52916669269334,2.9230208333333327,64.40349530515253
1361814310.0,17.63622175,33.84,71.58,2.935677083333333,64.41539513758066
1361814310.25,17.545257791666668,33.84,71.64666663253334,2.8520833333333333,64.42049363362563
1361814310.5,17.455361541666665,33.84,71.71333333333334,2.8594010416666666,64.42049363362563
1361814310.75,17.366018166666667,33.84,71.78000003413334,2.8427343750000005,64.42049363362563
1361814311.0,17.289754249999998,33.84,71.84666666666668,2.8269010416666664,64.41984621690213
1361814311.25,17.233330666666667,33.84,71.91666663082667,2.764114583333333,64.39726438080288
1361814311.5,17.193029499999998,33.84,71.98666666666668,2.7740104166666666,64.35896704231654
1361814311.75,17.168868874999998,33.84,72.05666670250667,3.0353385416666665,64.32066970383019
1361814312.0,17.172612708333332,33.84,72.12666666666667,3.446510416666667,64.28237236534385
1361814312.25,17.214791666666667,33.84,72.19749996373334,3.8407291666666663,64.24407502685752
1361814312.5,17.27163008333333,33.84,72.26833333333335,4.37171875,64.20577768837116
1361814312.75,17.3284685,33.83958333333334,72.33916670293334,5.089140625,64.16748034988483
1361814313.0,17.385306916666668,33.838750000000005,72.41000000000001,5.394791666666666,64.12918301139848
1361814313.25,17.442145333333333,33.83791666666667,72.47583329962667,5.739999999999999,64.09088567291215
1361814313.5,17.492630916666666,33.83708333333333,72.54166666666669,6.218645833333333,64.0525883344258
1361814313.75,17.537831333333333,33.836666666666666,72.60750003370669,6.494322916666666,64.01429099593946
1361814314.0,17.567443166666667,33.836666666666666,72.67333333333335,6.755442708333334,63.97664107417662
1361814314.25,17.575380541666668,33.836666666666666,72.73249996970668,7.174895833333333,63.96092557178953
1361814314.5,17.565754083333335,33.836666666666666,72.79166666666667,7.3129687500000005,63.96092557178953
1361814314.75,17.54580604166667,33.83625,72.85083336362668,7.391276041666667,63.96092557178953
1361814315.0,17.523757791666668,33.83541666666667,72.91000000000001,7.345703125,63.96092557178953
1361814315.25,17.499787666666666,33.834583333333335,72.97249996800001,7.207656249999999,63.96092557178953
1361814315.5,17.474856624999997,33.83375,73.03500000000001,7.121041666666667,63.96092557178953
1361814315.75,17.4494985,33.83375,73.09750003200001,6.696692708333333,63.96092557178953
1361814316.0,17.42408695833333,33.834583333333335,73.16000000000001,6.572916666666667,63.96092557178953
1361814316.25,17.398622,33.83541666666667,73.22666663253334,6.718828125000001,63.96092557178953
1361814316.5,17.378976041666665,33.83625,73.29333333333334,6.4115625,63.96092557178953
1361814316.75,17.363494125,33.83625,73.36000003413334,6.204453125000001,63.96092557178953
1361814317.0,17.350467958333333,33.83541666666667,73.42666666666666,6.334401041666666,63.96092557178953
1361814317.25,17.33968395833333,33.834583333333335,73.49249996629332,6.001770833333333,63.974894907244725
1361814317.5,17.330821874999998,33.83375,73.55833333333334,5.675885416666667,64.00283357815509
1361814317.75,17.323027541666665,33.833333333333336,73.62416670037334,5.787682291666667,64.03077224906546
1361814318.0,17.316834791666665,33.833333333333336,73.69,5.570078124999999,64.05871091997585
1361814318.25,17.312563916666665,33.833333333333336,73.74583330474667,5.165338541666666,64.08664959088621
1361814318.5,17.309253958333333,33.833333333333336,73.80166666666666,5.0853906250000005,64.1145882617966
1361814318.75,17.30637108333333,33.83291666666667,73.85750002858666,5.075442708333333,64.14252693270697
1361814319.0,17.303861875,33.83208333333334,73.91333333333333,4.674791666666667,64.17046560361734
1361814319.25,17.300818875,33.831250000000004,73.95999997610666,4.4046875000000005,64.19840427452773
1361814319.5,17.298256374999998,33.830416666666665,74.00666666666666,4.461484375,64.2263429454381
1361814319.75,17.296815,33.830416666666665,74.05333335722666,4.307369791666667,64.25428161634848
1361814320.0,17.296121041666666,33.831250000000004,74.1,4.149713541666666,64.28222028725885
1361814320.25,17.295640625,33.83208333333333,74.14416664405333,4.40296875,64.29618962271404
1361814320.5,17.295320333333333,33.83291666666667,74.18833333333333,4.421666666666667,64.29618962271404
1361814320.75,17.293451916666665,33.83375,74.23250002261332,4.313802083333333,64.29618962271404
1361814321.0,17.290675916666668,33.834583333333335,74.27666666666666,4.781380208333333,64.29618962271404
1361814321.25,17.286778791666666,33.83541666666667,74.32083331071999,5.20625,64.29618962271404
1361814321.5,17.281813958333334,33.83625,74.365,5.011015625,64.29618962271404
1361814321.75,17.27583483333333,33.83708333333333,74.40916668928,5.283776041666667,64.29618962271404
1361814322.0,17.268574541666666,33.83791666666667,74.45333333333333,5.691666666666666,64.29618962271404
1361814322.25,17.25869829166667,33.83875,74.49666664448,5.499479166666667,64.29618962271404
