timestamp,EDA,TEMP,HR,BVP,ACC_mag
1361816256.0,1.9828452499999998,31.11,,11.04015625,63.161242676332286
1361816256.25,2.1042719285714284,31.11,,11.402098214285715,63.150033756823746
1361816256.5,2.2574399375,31.11,,11.6855859375,63.13970745790983
1361816256.75,2.431906277777778,31.11111111111111,,11.945104166666667,63.132446692940285
1361816257.0,2.6213673,31.113,,12.0271875,63.12653901180371
1361816257.25,2.8217369545454543,31.114545454545453,,11.587897727272727,63.11882186834271
1361816257.5,3.030290875,31.11583333333333,,10.825494791666666,63.11106883003768
1361816257.75,3.3989773333333333,31.11833333333333,,10.585390625,63.0988500833862
1361816258.0,3.7909965416666664,31.121666666666666,,10.241328125,63.086713023756026
1361816258.25,4.204691791666667,31.125,,9.247734375,63.072020237550056
1361816258.5,4.640064541666667,31.12833333333333,,7.895052083333333,63.05489381073471
1361816258.75,5.096659708333333,31.13333333333333,,7.042421875,63.044904538694205
1361816259.0,5.57448625,31.14,,6.120286458333333,63.04044698016287
1361816259.25,6.073596291666667,31.146666666666665,,5.047213541666667,63.03982793003711
1361816259.5,6.574271458333333,31.153333333333332,,3.9159635416666667,63.04350114667221
1361816259.75,7.0762280833333335,31.159166666666664,,2.839609375,63.045193010869184
1361816260.0,7.578456333333334,31.16416666666667,,1.810390625,63.05121728880309
1361816260.25,8.080876833333333,31.16916666666667,,1.2337239583333335,63.06145205621383
1361816260.5,8.583502874999999,31.174166666666668,,1.0090364583333333,63.07309137866173
1361816260.75,9.081072541666666,31.17916666666667,,0.5278385416666667,63.08448562539968
1361816261.0,9.556575375,31.184166666666666,,0.14984375000000003,63.09208428860176
1361816261.25,9.994411583333333,31.18916666666667,,0.18338541666666672,63.097330673213754
1361816261.5,10.392469541666665,31.19416666666667,,0.0027343750000000436,63.108932765626214
1361816261.75,10.752427916666667,31.19916666666667,,0.003906250000000047,63.1194167670586
1361816262.0,11.076786708333332,31.20416666666667,,-0.19005208333333332,63.122594415126905
1361816262.25,11.364474874999999,31.209166666666672,,-0.6121614583333334,63.12601876688269
1361816262.5,11.612722499999999,31.21416666666667,,-0.9706510416666667,63.130515042959644
1361816262.75,11.823098083333335,31.21916666666667,,-1.4338802083333333,63.13476486267047
1361816263.0,11.995792583333333,31.224166666666672,,-1.8028385416666668,63.12671680919026
1361816263.25,12.13442825,31.229166666666668,,-2.0135677083333334,63.113589803120895
1361816263.5,12.239309291666666,31.234166666666667,,-1.9388020833333333,63.101372141163004
1361816263.75,12.310529333333333,31.24,,-1.4351041666666668,63.09394307581687
1361816264.0,12.364359166666667,31.24666666666667,,-1.2158072916666667,63.09274636576143
1361816264.25,12.419335166666665,31.25333333333333,,-1.4402864583333335,63.087332841187084
1361816264.5,12.476713333333334,31.26,,-1.2961979166666666,63.07105780518855
1361816264.75,12.531369041666666,31.265833333333333,,-1.358072916666667,63.05412432685505
1361816265.0,12.580793333333332,31.270833333333332,,-1.1297395833333335,63.041812743127245
1361816265.25,12.625466583333335,31.275833333333328,,-0.6127864583333335,63.02780831180065
1361816265.5,12.668164666666668,31.28083333333333,,-0.12828125000000004,63.00955398074749
1361816265.75,12.708407166666666,31.28583333333333,,0.5048177083333333,62.99642305010398
1361816266.0,12.74566025,31.290833333333328,56.125,0.8786979166666667,62.9956385063439
1361816266.25,12.776164416666667,31.29583333333333,56.94791624533333,1.1975,62.99836571301629
1361816266.5,12.799599333333333,31.30083333333333,57.77083333333333,1.0315885416666666,63.000101105960916
1361816266.75,12.820738791666665,31.30583333333333,58.59375042133333,0.47593749999999996,62.998449865117344
1361816267.0,12.840436916666667,31.31083333333333,59.416666666666664,0.396171875,62.99469241545441
1361816267.25,12.856344875,31.315833333333334,60.88749924693333,0.40598958333333335,62.998660447051066
1361816267.5,12.869476958333335,31.32083333333333,62.358333333333334,0.20002604166666663,63.00924113017282
1361816267.75,12.885144208333331,31.325,63.82916741973333,0.016249999999999962,63.022626530900226
1361816268.0,12.906229291666667,31.328333333333333,65.3,-0.25278645833333335,63.03650630082129
1361816268.25,12.934894708333331,31.331666666666663,66.70833261226666,-0.3143229166666667,63.04799398589973
1361816268.5,12.970179541666667,31.335000000000004,68.11666666666667,-0.33046875000000003,63.057830694932676
1361816268.75,13.005891416666666,31.340000000000003,69.52500072106668,-0.656328125,63.06291379563441
1361816269.0,13.041282999999998,31.346666666666668,70.93333333333334,-0.5946875,63.06634094228877
1361816269.25,13.076140708333334,31.353333333333335,71.21083319125334,-0.6230989583333334,63.07051052163302
1361816269.5,13.110517958333332,31.360000000000003,71.48833333333334,-0.4011458333333333,63.069436192133985
1361816269.75,13.145215541666667,31.365000000000006,71.76583347541333,0.09101562499999995,63.069766443190126
1361816270.0,13.180607083333333,31.368333333333336,72.04333333333334,0.44591145833333323,63.067245924216714
1361816270.25,13.215838499999998,31.371666666666666,71.48583361877334,0.9167187499999999,63.062907698701075
1361816270.5,13.249628625,31.375,70.92833333333334,1.4376822916666665,63.05728935529782
1361816270.75,13.280136208333333,31.38,70.37083304789333,1.8617968749999998,63.04861794483784
1361816271.0,13.307895041666667,31.386666666666667,69.81333333333333,2.1818750000000002,63.04081545852804
1361816271.25,13.332077208333333,31.393333333333334,69.11333369173333,2.220520833333333,63.036810434025654
1361816271.5,13.352659958333334,31.400000000000002,68.41333333333333,2.4292708333333333,63.035241413112026
1361816271.75,13.37466125,31.405,67.71333297493334,2.808385416666667,63.0366455831446
1361816272.0,13.398050500000002,31.40833333333333,67.01333333333334,2.905286458333333,63.035531275106926
1361816272.25,13.422507416666667,31.411666666666665,66.55083357013334,2.936171875,63.03334416892263
1361816272.5,13.450007124999999,31.414999999999996,66.08833333333334,2.9793749999999997,63.03615318969964
1361816272.75,13.482257833333334,31.419166666666666,65.62583309653333,2.7978385416666662,63.037640213496225
1361816273.0,13.515736333333335,31.424166666666665,65.16333333333333,2.3561979166666664,63.04226711214944
1361816273.25,13.548200583333335,31.42916666666667,64.82916683776,2.0287239583333334,63.046316295153474
1361816273.5,13.58093175,31.434166666666666,64.495,1.72171875,63.04929146564107
1361816273.75,13.614143375,31.438333333333333,64.16083316224001,1.494765625,63.05201864108114
1361816274.0,13.644952791666668,31.441666666666666,63.826666666666675,1.4963541666666664,63.051068296041365
1361816274.25,13.672238958333333,31.444999999999997,63.56166680234667,1.483515625,63.047969073393084
1361816274.5,13.695223958333335,31.448333333333334,63.296666666666674,1.250078125,63.04416760982216
1361816274.75,13.714388208333334,31.451666666666664,63.031666530986676,1.1247135416666667,63.03867287139158
1361816275.0,13.732911833333333,31.455000000000002,62.76666666666667,1.0659635416666666,63.03450049918593
1361816275.25,13.753303833333334,31.458333333333332,62.541666781866674,1.2142447916666665,63.03276574551014
1361816275.5,13.775297333333333,31.46166666666667,62.31666666666667,1.3263020833333334,63.03301355854985
1361816275.75,13.796917208333333,31.465,62.091666551466666,1.4646354166666669,63.033178788014816
1361816276.0,13.821394333333332,31.468333333333334,61.86666666666667,2.007890625,63.033054912652695
1361816276.25,13.84936925,31.471666666666664,61.693333422079995,2.3659895833333335,63.034170071331395
1361816276.5,13.878625333333332,31.474999999999998,61.519999999999996,2.6465104166666666,63.03615257564909
1361816276.75,13.908682125,31.478333333333335,61.34666657792,2.989609375,63.038135079966786
1361816277.0,13.938365208333332,31.481666666666666,61.173333333333325,2.9609114583333334,63.04210091508808
1361816277.25,13.967567875,31.485,61.03333340501333,3.1138802083333332,63.04730659535168
1361816277.5,13.996823958333332,31.48833333333333,60.89333333333333,3.197395833333333,63.05630909830949
1361816277.75,14.02645375,31.492500000000003,60.75333326165333,3.0968750000000003,63.06820039327179
1361816278.0,14.055656500000003,31.4975,60.61333333333334,3.1972916666666666,63.075756592327075
1361816278.25,14.082190124999999,31.5025,60.51250005162667,3.008515625,63.08368164574165
1361816278.5,14.106321541666667,31.507499999999997,60.41166666666667,2.9594010416666667,63.090284598894755
1361816278.75,14.131787500000002,31.512500000000003,60.31083328170667,3.1201302083333338,63.09688755204787
1361816279.0,14.157919416666667,31.517500000000002,60.21,2.787421875,63.10349050520097
1361816279.25,14.182902333333333,31.522499999999997,60.12416671061333,2.6905989583333336,63.11009345835409
1361816279.5,14.206710833333332,31.5275,60.038333333333334,2.730703125,63.1166964115072
1361816279.75,14.229238166666667,31.531666666666666,59.95249995605334,2.48609375,63.123299364660305
1361816280.0,14.251124958333333,31.535,59.86666666666667,2.6620572916666667,63.129778582362015
1361816280.25,14.272477916666668,31.538333333333338,59.8208333568,2.6926302083333336,63.136381535515135
1361816280.5,14.293670708333332,31.541666666666668,59.775000000000006,2.692239583333334,63.134689645350214
1361816280.75,14.314329708333334,31.544166666666666,59.7291666432,2.8358333333333334,63.128086692197094
1361816281.0,14.333814291666664,31.545833333333334,59.68333333333334,2.788307291666667,63.12437253104847
1361816281.25,14.352765083333333,31.5475,59.66166667776,2.9125781249999996,63.11818226246743
1361816281.5,14.368993375,31.549166666666668,59.64,2.9578906249999997,63.11157930931433
1361816281.75,14.37860225,31.550833333333333,59.61833332224,2.769140625,63.10497635616122
1361816282.0,14.382552583333334,31.5525,59.596666666666664,2.9598697916666663,63.09841469479548
1361816282.25,14.384634499999999,31.55416666666667,59.59999999829333,3.023802083333333,63.09181174164237
1361816282.5,14.386769833333332,31.555833333333336,59.603333333333325,2.8188020833333334,63.08520878848925
1361816282.75,14.3903465,31.558333333333334,59.60666666837333,2.9737500000000003,63.083970734773054
1361816283.0,14.395524625,31.561666666666667,59.60999999999999,3.0522916666666666,63.08368178565238
1361816283.25,14.401716999999998,31.564999999999998,59.614999997439995,2.910286458333333,63.083681785652374
1361816283.5,14.413243166666668,31.56833333333334,59.61999999999999,2.9509635416666664,63.08817997752086
1361816283.75,14.433786499999998,31.5725,59.62500000255999,2.972734375,63.09461795007211
1361816284.0,14.461963500000001,31.5775,59.629999999999995,2.793515625,63.101138412924286
1361816284.25,14.495371958333335,31.5825,59.63833332906666,2.6778906250000003,63.1077413660774
1361816284.5,14.531609666666668,31.587499999999995,59.64666666666666,2.558255208333333,63.114344319230504
1361816284.75,14.568754874999998,31.590833333333332,59.65500000426667,2.4560677083333333,63.11826493919887
1361816285.0,14.60584675,31.5925,59.663333333333334,2.2069791666666667,63.118223647411504
1361816285.25,14.642351458333332,31.594166666666666,59.68666665472,1.7230989583333332,63.118223647411504
1361816285.5,14.678429083333334,31.59583333333333,59.709999999999994,1.5687239583333332,63.118223647411504
1361816285.75,14.713065375,31.598333333333333,59.733333345279995,1.388671875,63.1128587479746
1361816286.0,14.746100208333333,31.601666666666663,59.75666666666666,1.0347916666666668,63.10666847939356
1361816286.25,14.777693708333333,31.605,59.81083330559999,0.837734375,63.100065526240456
1361816286.5,14.804113541666666,31.60833333333333,59.864999999999995,0.6924999999999999,63.09354506338827
1361816286.75,14.8211425,31.610833333333332,59.9191666944,0.5357291666666667,63.087107090837016
1361816287.0,14.830644541666667,31.6125,59.97333333333333,0.6364583333333335,63.080586627984836
1361816287.25,14.834754958333333,31.614166666666666,60.04583329621333,0.7544270833333333,63.07398367483173
1361816287.5,14.836036125,31.61583333333333,60.118333333333325,0.7370312499999999,63.07603471554424
1361816287.75,14.836409791666668,31.61916666666667,60.190833370453326,0.6889843750000001,63.09847637959695
1361816288.0,14.836356375,31.624166666666664,60.26333333333333,0.9140364583333334,63.12483866361804
1361816288.25,14.8365165,31.629166666666666,60.33749996202666,1.3436458333333332,63.15120094763913
1361816288.5,14.837904416666667,31.63416666666667,60.41166666666666,1.516041666666667,63.17756323166022
1361816288.75,14.840893791666666,31.639166666666668,60.48583337130667,1.694140625,63.2039255156813
1361816289.0,14.845004208333334,31.644166666666667,60.56,1.7924479166666665,63.23028779970239
1361816289.25,14.851089791666668,31.64916666666667,60.621666635093334,2.0023958333333334,63.25665008372348
1361816289.5,14.857922708333334,31.65416666666667,60.68333333333334,2.2327864583333334,63.28301236774457
1361816289.75,14.865236083333334,31.659166666666668,60.74500003157333,2.366458333333333,63.30937465176566
1361816290.0,14.873670541666664,31.664166666666663,60.806666666666665,2.466536458333333,63.33573693578674
1361816290.25,14.883065875,31.669166666666666,60.86916663466666,2.4636197916666664,63.36049422844567
1361816290.5,14.892941624999999,31.674166666666665,60.931666666666665,2.62984375,63.35444031053127
1361816290.75,14.908323666666666,31.679166666666664,60.99416669866667,2.867421875,63.328078026510184
1361816291.0,14.929265375,31.68416666666667,61.056666666666665,2.6875260416666666,63.30171574248911
1361816291.25,14.951755166666667,31.689166666666665,61.139166624426664,2.536901041666667,63.27535345846801
1361816291.5,14.976273499999998,31.69416666666667,61.221666666666664,2.535052083333333,63.24899117444693
1361816291.75,15.001539166666666,31.6975,61.30416670890666,2.423515625,63.222628890425845
1361816292.0,15.028192791666667,31.699166666666667,61.38666666666666,2.4637760416666667,63.19626660640475
1361816292.25,15.058156166666665,31.700833333333335,61.48083328512,2.452369791666667,63.16940864952647
1361816292.5,15.091215749999998,31.7025,61.575,2.2719791666666667,63.13250544291527
1361816292.75,15.126944416666666,31.704166666666666,61.66916671488001,2.168151041666667,63.094899057935756
1361816293.0,15.164007583333335,31.705833333333334,61.76333333333334,2.106015625,63.057499574519504
1361816293.25,15.202085041666669,31.7075,61.86333328213334,2.0605989583333333,63.02178784309071
1361816293.5,15.241016666666667,31.709166666666672,61.96333333333334,1.9063802083333332,63.01125125517248
1361816293.75,15.274708916666667,31.710833333333337,62.06333338453334,1.7529166666666667,63.01038271283909
1361816294.0,15.302894833333333,31.712500000000002,62.163333333333334,1.844609375,63.011043381437055
1361816294.25,15.329425875,31.714166666666667,62.25583328597333,1.8462760416666664,63.01170405003503
1361816294.5,15.353020916666667,31.715833333333332,62.34833333333333,1.8159375000000002,63.012364718633
1361816294.75,15.374854375,31.718333333333334,62.440833380693334,1.758333333333333,63.013025387230975
1361816295.0,15.394659249999998,31.721666666666668,62.53333333333333,1.6369270833333331,63.01368605582895
1361816295.25,15.409819833333332,31.724999999999998,62.6416666112,1.6439322916666665,63.01682328308951
1361816295.5,15.421617291666669,31.728333333333335,62.75,1.586458333333333,63.03330723642529
1361816295.75,15.434527791666667,31.73166666666667,62.8583333888,1.388046875,63.05049436812939
1361816296.0,15.449085249999998,31.735,62.96666666666667,1.2791666666666666,63.067474598270245
1361816296.25,15.462468291666665,31.738333333333333,63.089166603946666,1.0705729166666667,63.084372067785786
1361816296.5,15.475477625000002,31.741666666666664,63.21166666666667,0.8013802083333333,63.09329939598499
1361816296.75,15.490355333333333,31.745,63.33416672938667,0.6866927083333333,63.09466340860913
1361816297.0,15.507795458333334,31.74833333333333,63.45666666666667,0.3872395833333333,63.093341822151295
1361816297.25,15.527477666666664,31.75166666666667,63.58999993173334,0.15752604166666664,63.09317662384407
1361816297.5,15.549401875,31.755,63.723333333333336,0.07966145833333334,63.09185503738623
1361816297.75,15.573728291666667,31.757499999999997,63.856666734933334,-0.11307291666666665,63.08970745939226
1361816298.0,15.599069041666667,31.75916666666667,63.99,-0.12013020833333332,63.08970745939226
1361816298.25,15.625904499999999,31.760833333333334,64.11749993472,-0.16013020833333333,63.08574288247063
1361816298.5,15.65396775,31.7625,64.245,-0.098515625,63.077071987880494
1361816298.75,15.67851575,31.765,64.37250006528,0.17276041666666667,63.07079843588942
1361816299.0,15.699495041666667,31.76833333333333,64.5,0.26471354166666666,63.06469008220557
1361816299.25,15.720100666666667,31.771666666666665,64.624999936,0.40796875000000005,63.05825133190726
1361816299.5,15.739745416666665,31.775000000000002,64.75,0.7290104166666667,63.05792118427303
1361816299.75,15.757361625,31.7775,64.875000064,0.8708593750000001,63.05808638258026
1361816300.0,15.772842500000001,31.77916666666667,65.0,1.1700000000000002,63.05940796903809
1361816300.25,15.786508375000002,31.780833333333334,65.12749993472,1.4644010416666664,63.05940800019582
1361816300.5,15.798359250000003,31.7825,65.255,1.5386197916666668,63.06072958665366
1361816300.75,15.807541041666667,31.785,65.38250006528,1.776171875,63.06617864098995
1361816301.0,15.815228083333333,31.78833333333333,65.51,1.906953125,63.07216213966666
1361816301.25,15.824142916666668,31.791666666666668,65.63916660053333,1.9145052083333332,63.081036319778825
1361816301.5,15.833111166666667,31.795,65.76833333333333,1.9730729166666665,63.089913253690774
1361816301.75,15.842026041666665,31.7975,65.89750006613333,1.8475520833333334,63.09123337690797
1361816302.0,15.850994291666666,31.799166666666668,66.02666666666666,1.8180989583333336,63.08879524354319
1361816302.25,15.860229416666668,31.800833333333333,66.1558332672,1.9164843749999998,63.08718158877583
1361816302.5,15.870211875,31.8025,66.285,1.930416666666667,63.08957346109754
1361816302.75,15.887774666666667,31.804166666666664,66.4141667328,1.9633593750000002,63.09794048184087
1361816303.0,15.918974958333335,31.80583333333333,66.54333333333334,1.9590104166666669,63.129677089357294
1361816303.25,15.959008291666665,31.807499999999994,66.67166660096,1.88984375,63.19733759768385
1361816303.5,16.001497208333333,31.809166666666666,66.8,2.160625,63.31590249610185
1361816303.75,16.044733458333333,31.81,66.92833339904,2.626875,63.40741526946875
1361816304.0,16.09197341666667,31.81,67.05666666666666,2.7706770833333327,63.44022130200384
1361816304.25,16.13974716666667,31.81,67.17749993813332,2.776510416666666,63.45675239418755
1361816304.5,16.185972791666668,31.81,67.29833333333333,2.5359895833333335,63.52517416624099
1361816304.75,16.233533,31.81,67.41916672853334,2.9377083333333336,63.63876585586727
1361816305.0,16.284275,31.81,67.54,3.843046875,63.74915477603347
1361816305.25,16.334515375,31.81,67.6524999424,4.045026041666667,63.83209596150379
1361816305.5,16.384008416666667,31.81,67.765,3.349609375,63.90545545903817
1361816305.75,16.425814375,31.810833333333335,67.8775000576,3.6459114583333334,63.95347323941342
1361816306.0,16.45350241666667,31.8125,67.99,4.291171875,63.96593237473871
1361816306.25,16.471823583333336,31.814166666666665,68.09333328042666,4.060703125,63.92726000859897
1361816306.5,16.486941833333333,31.815833333333334,68.19666666666666,2.1590104166666664,63.82979024776332
1361816306.75,16.495547416666668,31.8175,68.30000005290667,-0.6267447916666669,63.74462768078924
1361816307.0,16.495985458333333,31.819166666666664,68.40333333333334,-2.5240364583333332,63.71355287523064
1361816307.25,16.49295366666667,31.82083333333333,68.50333328213334,-2.8846093750000006,63.69693899835611
1361816307.5,16.489388083333335,31.8225,68.60333333333334,-2.9450520833333336,63.62600015354124
1361816307.75,16.48288641666667,31.824166666666667,68.70333338453334,-2.991822916666667,63.515711154517675
1361816308.0,16.471708208333336,31.825833333333332,68.80333333333334,-4.214140625,63.41320842613164
1361816308.25,16.459270041666667,31.827499999999997,68.90333328213335,-4.444869791666667,63.338319645727005
1361816308.5,16.44656504166667,31.829166666666666,69.00333333333333,-2.7387239583333334,63.26785063801861
1361816308.75,16.434180291666667,31.831666666666663,69.10333338453333,-2.5713802083333337,63.21716065055239
1361816309.0,16.422115791666666,31.834999999999997,69.20333333333333,-2.8432291666666667,63.17824726985837
1361816309.25,16.41079866666667,31.838333333333335,69.30083328341334,-1.4073697916666672,63.154706656968756
1361816309.5,16.399534958333334,31.841666666666665,69.39833333333334,1.5934374999999996,63.13889388153411
1361816309.75,16.39371625,31.845,69.49583338325333,5.329348958333333,63.13489572075753
1361816310.0,16.39126058333333,31.848333333333333,69.59333333333333,8.420104166666667,63.13444287624321
1361816310.25,16.388484666666667,31.85166666666667,69.68999995050667,9.8909375,63.13489705307699
1361816310.5,16.385655458333332,31.855,69.78666666666666,11.240364583333331,63.13918760550779
1361816310.75,16.383787166666668,31.858333333333334,69.88333338282666,11.547135416666668,63.14281786267012
1361816311.0,16.383039916666664,31.861666666666668,69.98,12.337526041666665,63.145457676929766
1361816311.25,16.383894083333335,31.865000000000006,70.07249995264,12.985390625,63.147437195920936
1361816311.5,16.385762458333335,31.868333333333336,70.165,12.141536458333333,63.149045555101274
1361816311.75,16.387844416666667,31.87,70.25750004736001,11.871302083333333,63.14904550855794
1361816312.0,16.389873083333335,31.87,70.35000000000001,11.735598958333334,63.149829104358986
1361816312.25,16.391634791666668,31.87,70.43999995392001,10.525364583333333,63.15876706426808
1361816312.5,16.393930291666667,31.87,70.53,9.292760416666667,63.167005340949565
1361816312.75,16.397560375,31.87,70.62000004608,8.031848958333333,63.173266047634364
1361816313.0,16.403485916666668,31.87,70.71,6.506770833333333,63.17128652864318
1361816313.25,16.41069254166667,31.87,70.79666662229333,5.330572916666667,63.17046150707114
1361816313.5,16.4186465,31.87,70.88333333333333,4.2271875,63.17779194129067
1361816313.75,16.42665379166667,31.870833333333334,70.97000004437332,3.798958333333333,63.17610112800849
1361816314.0,16.43476791666667,31.8725,71.05666666666666,3.812994791666666,63.174245344468694
1361816314.25,16.44346929166667,31.874166666666667,71.13999995733333,3.350494791666667,63.169624644403676
1361816314.5,16.452223958333335,31.875833333333333,71.22333333333333,3.2697656250000002,63.1636004439793
1361816314.75,16.460604916666668,31.87833333333333,71.30666670933333,3.2124739583333337,63.154435826242256
1361816315.0,16.468879125,31.88166666666667,71.39,2.970546875,63.14242085788634
1361816315.25,16.47667291666667,31.885,71.46833329322666,2.9966145833333333,63.12225152542238
1361816315.5,16.483986291666668,31.888333333333335,71.54666666666667,2.9367187500000003,63.102781876186036
1361816315.75,16.489965083333335,31.89166666666667,71.62500004010667,2.7965625000000003,63.08491863713552
1361816316.0,16.494449208333332,31.895,71.70333333333333,2.986588541666667,63.073687264580656
1361816316.25,16.49807925,31.898333333333337,71.77666662912,3.1781770833333334,63.06130139460666
1361816316.5,16.501442291666667,31.901666666666667,71.85,3.2914062499999996,63.04076006884108
1361816316.75,16.505179083333335,31.905,71.92333337088,3.07421875,63.029239990577224
1361816317.0,16.508702333333332,31.908333333333335,71.99666666666667,2.5068489583333333,63.01788488257097
1361816317.25,16.511264666666666,31.911666666666665,72.06416663210666,2.2690625,63.009294691089956
1361816317.5,16.513079708333333,31.915000000000003,72.13166666666666,2.1197916666666665,63.002479159779135
1361816317.75,16.514734625,31.9175,72.19916670122667,1.960234375,63.00342908899285
1361816318.0,16.51622933333333,31.919166666666666,72.26666666666667,2.0083072916666667,63.005412217171305
1361816318.25,16.518364625,31.920833333333334,72.32916663466666,2.0290885416666664,63.01065721148481
1361816318.5,16.521140499999998,31.9225,72.39166666666667,1.9653385416666664,63.02188858403968
1361816318.75,16.524129916666666,31.924166666666665,72.45416669866667,1.9427604166666665,63.033119956594554
1361816319.0,16.527439625,31.925833333333333,72.51666666666667,1.898359375,63.04439257429988
1361816319.25,16.530962833333334,31.9275,72.57249997141334,1.732734375,63.055623946854745
1361816319.5,16.534325875,31.92916666666667,72.62833333333333,1.5965885416666665,63.066896564560075
1361816319.75,16.537475375,31.930833333333336,72.68416669525332,1.6140625000000002,63.07924144757637
1361816320.0,16.540518125,31.9325,72.74,1.6874479166666667,63.091091450844864
1361816320.25,16.54340075,31.934166666666666,72.78916664149332,1.6750260416666665,63.102033734485445
1361816320.5,16.54681725,31.93583333333333,72.83833333333334,1.6534375,63.104635585807074
1361816320.75,16.550981124999996,31.937499999999996,72.88750002517334,1.6050000000000002,63.10120649681422
1361816321.0,16.556266041666664,31.93916666666667,72.93666666666667,1.5116666666666667,63.09922336863577
1361816321.25,16.562138125,31.940833333333334,72.97583331328,1.4835156250000001,63.09397837432226
1361816321.5,16.567689833333333,31.9425,73.015,1.495390625,63.082747001767395
1361816321.75,16.573027999999997,31.944999999999997,73.05416668672,1.4605468750000001,63.068786422773115
1361816322.0,16.578045875,31.948333333333334,73.09333333333333,1.4740364583333332,63.0525510480827
1361816322.25,16.5827435,31.951666666666664,73.12416665088,1.5586458333333333,63.03536391637859
1361816322.5,16.58717425,31.955,73.15499999999999,1.5717968750000002,63.01813553952402
1361816322.75,16.59139145833333,31.957499999999996,73.18583334911999,1.7368750000000002,62.999834897358475
1361816323.0,16.594861333333334,31.959166666666665,73.21666666666665,1.8961458333333334,62.98202913494074
1361816323.25,16.597103458333333,31.96083333333333,73.24249998677332,1.8710416666666667,62.96513109215092
1361816323.5,16.597530541666668,31.962500000000002,73.26833333333332,1.9481510416666667,62.956573481680046
1361816323.75,16.595074875,31.96541666666667,73.29416667989332,2.043098958333333,62.95061772253081
1361816324.0,16.589843291666664,31.969583333333333,73.32,1.9887499999999998,62.944661963381556
1361816324.25,16.583010374999997,31.97375,73.37083330730665,2.03734375,62.93870620423232
1361816324.5,16.575643666666668,31.97791666666667,73.42166666666665,2.043984375,62.93275044508308
1361816324.75,16.567849958333333,31.981250000000003,73.47250002602667,2.0865625,62.92952389237325
1361816325.0,16.559629166666667,31.98375,73.52333333333333,2.162109375,62.93076303450092
1361816325.25,16.551034666666666,31.986250000000002,73.5941666304,2.187265625,62.94266780405732
1361816325.5,16.542173208333335,31.98875,73.66499999999999,2.267760416666667,62.95457257361372
1361816325.75,16.53304483333333,31.991250000000004,73.7358333696,2.1763020833333333,62.965072861207176
1361816326.0,16.524290124999997,31.993750000000002,73.80666666666667,2.1782552083333333,62.97189504369438
1361816326.25,16.516496291666666,31.996250000000003,73.86916663466667,2.3720572916666667,62.97450087618921
1361816326.5,16.509396416666664,31.99875,73.93166666666667,2.337994791666667,62.975493815825814
1361816326.75,16.504431916666665,32.0,73.99416669866666,2.2959375,62.978141028633296
1361816327.0,16.501175583333332,32.0,74.05666666666666,2.4059375,62.98744329320065
1361816327.25,16.497919166666666,32.0,74.07749998933333,2.3015625,62.99885256130858
1361816327.5,16.494769541666667,32.0,74.09833333333333,2.25765625,63.01034441299125
1361816327.75,16.49172666666667,32.0,74.11916667733333,2.219296875,63.022496746607125
1361816328.0,16.48847025,32.0,74.14,1.991197916666667,63.03282966714017
1361816328.25,16.485480791666664,32.0,74.13250000384,1.831953125,63.035800995848255
1361816328.5,16.482758291666666,32.0,74.125,1.7336197916666665,63.04211437815646
1361816328.75,16.480302708333333,32.0,74.11749999616,1.6647656250000002,63.0507807412583
1361816329.0,16.478114,32.0,74.11,1.3435416666666666,63.06522719308837
1361816329.25,16.476192166666667,32.0,74.1474999808,0.96578125,63.08203531167262
1361816329.5,16.47480416666667,32.0,74.185,0.8440885416666667,63.10156910520189
1361816329.75,16.471174083333334,32.00208333333333,74.2225000192,0.700625,63.1180885430897
1361816330.0,16.46503516666667,32.00625,74.26,0.5696354166666666,63.12795292921762
1361816330.25,16.459269916666667,32.010416666666664,74.34666662229334,0.6014583333333333,63.13731755537878
1361816330.5,16.45350466666667,32.01458333333333,74.43333333333334,0.3963541666666666,63.15092644935776
1361816330.75,16.44805966666667,32.01875,74.52000004437333,0.28411458333333334,63.16053693298495
1361816331.0,16.44325529166667,32.02291666666667,74.60666666666667,0.44083333333333324,63.16750939979077
1361816331.25,16.43855766666667,32.02708333333333,74.73083326976,0.5041145833333334,63.17179995222156
1361816331.5,16.434073583333337,32.03124999999999,74.855,0.6707291666666667,63.17274845105225
1361816331.75,16.430283458333335,32.036249999999995,74.97916673024001,0.79328125,63.18003542681765
1361816332.0,16.426493333333337,32.04208333333333,75.10333333333334,1.093984375,63.180158728808046
1361816332.25,16.422916750000002,32.04791666666666,75.21833327445334,1.621171875,63.20426200803427
1361816332.5,16.42387766666667,32.05375,75.33333333333334,1.9934375,63.269562906063406
1361816332.75,16.432152000000002,32.0575,75.44833339221333,2.2837760416666666,63.37502217685688
1361816333.0,16.443896125,32.05916666666666,75.56333333333333,2.4653645833333333,63.519760277582186
1361816333.25,16.455640250000002,32.06083333333333,75.67833327445334,2.382994791666667,63.630743242306615
1361816333.5,16.468259666666665,32.0625,75.79333333333332,2.878541666666667,63.597259426203244
1361816333.75,16.484135375,32.065,75.90833339221332,3.4342447916666665,63.60131210506316
1361816334.0,16.500651708333333,32.068333333333335,76.02333333333333,3.5296874999999996,63.67102282646439
1361816334.25,16.517168041666668,32.071666666666665,76.15333326677333,4.244036458333333,63.90297921829278
1361816334.5,16.533470833333332,32.075,76.28333333333333,4.907239583333333,64.11156884615244
1361816334.75,16.549079666666668,32.0775,76.41333339989333,5.643958333333333,64.27810363641233
1361816335.0,16.5646885,32.07916666666667,76.54333333333334,6.324765625,64.44638566100177
1361816335.25,16.5695675,32.08083333333333,76.689166592,6.446015625,64.52938438033901
1361816335.5,16.556702375,32.0825,76.83500000000001,6.290520833333333,64.50926449342217
1361816335.75,16.52995775,32.08416666666667,76.980833408,5.07421875,64.47042492919317
1361816336.0,16.494351625,32.08583333333333,77.12666666666667,4.473723958333333,64.4084018042161
1361816336.25,16.4587455,32.0875,77.27666658986666,4.6836979166666675,64.37113866119688
1361816336.5,16.415217625,32.08916666666667,77.42666666666668,4.60640625,64.49198316994843
1361816336.75,16.365444041666667,32.09,77.57666674346667,4.44828125,64.56005087711236
1361816337.0,16.305869333333334,32.09,77.72666666666667,4.544947916666667,64.55947794976653
1361816337.25,16.236333374999997,32.09,77.88499991893333,4.036119791666667,64.39332692636512
1361816337.5,16.1640215,32.09,78.04333333333334,3.11328125,64.2498493266919
1361816337.75,16.08957433333333,32.090833333333336,78.20166674773334,2.236171875,64.13930942907753
1361816338.0,16.012938541666667,32.0925,78.36,1.6017968749999998,64.02596809318602
1361816338.25,15.945110791666664,32.09416666666667,78.52416658261333,1.1172395833333333,63.97696623818653
1361816338.5,15.888941541666666,32.09583333333334,78.68833333333333,1.0780729166666665,63.99109383571508
1361816338.75,15.840512791666667,32.097500000000004,78.85250008405333,2.2087499999999998,63.98595692068424
1361816339.0,15.799771125000001,32.09916666666667,79.01666666666667,2.9512239583333333,63.975275210740655
1361816339.25,15.758495625,32.100833333333334,79.18999991125334,3.16796875,63.979500630885916
1361816339.5,15.7234125,32.1025,79.36333333333333,3.2564583333333332,63.96904848603817
1361816339.75,15.690678208333333,32.105000000000004,79.53666675541332,3.3214843750000003,63.97425058144634
1361816340.0,15.665182625,32.108333333333334,79.71,3.3615885416666664,63.979497072243255
1361816340.25,15.646925791666668,32.11166666666667,79.87166658389333,3.183489583333333,63.974323972158466
1361816340.5,15.6295765,32.115,80.03333333333333,3.5309375000000003,63.967154077428724
1361816340.75,15.61244079166667,32.1175,80.19500008277333,3.630729166666667,63.961610480919965
1361816341.0,15.594717833333334,32.119166666666665,80.35666666666667,3.4767968750000002,63.96218277851176
1361816341.25,15.574193958333334,32.12083333333334,80.5108332544,3.87046875,63.96157360646615
1361816341.5,15.551990291666668,32.1225,80.66499999999999,4.162135416666667,63.958643187256875
1361816341.75,15.53042725,32.125,80.81916674559999,4.575755208333334,63.95489866762537
1361816342.0,15.507849958333333,32.12833333333334,80.97333333333331,4.862213541666667,63.940603673722876
1361816342.25,15.484632083333333,32.13166666666667,81.12083325781332,4.820364583333333,63.91878946020076
1361816342.5,15.461787833333332,32.135,81.26833333333332,4.790781249999999,63.89368508933611
1361816342.75,15.437822541666668,32.137499999999996,81.41583340885333,4.692552083333333,63.87150471325845
1361816343.0,15.413537,32.13916666666667,81.56333333333333,4.6944791666666665,63.85448781937288
1361816343.25,15.39095975,32.14083333333333,81.71166659072,5.189140625,63.85159382293285
1361816343.5,15.369983958333334,32.142500000000005,81.86000000000001,5.338541666666667,63.85138996137829
1361816343.75,15.350235874999997,32.14416666666667,82.00833340928001,5.580625,63.85138996137829
1361816344.0,15.331822333333333,32.145833333333336,82.15666666666668,6.011041666666666,63.85138996137829
1361816344.25,15.316850291666666,32.1475,82.30666658986668,5.899296875,63.85138996137829
1361816344.5,15.30462575,32.149166666666666,82.45666666666668,5.681822916666666,63.85138996137829
1361816344.75,15.292561374999998,32.15,82.60666674346668,5.385625,63.85138996137829
1361816345.0,15.281351083333334,32.15,82.75666666666667,4.906875,63.85138996137829
1361816345.25,15.26992725,32.15,82.89249993045334,4.65375,63.85138996137829
1361816345.5,15.25610125,32.15,83.02833333333334,4.50875,63.85138996137829
1361816345.75,15.2421685,32.150416666666665,83.16416673621333,4.293333333333333,63.85138996137829
1361816346.0,15.229890583333335,32.15125,83.3,4.068020833333333,63.85138996137829
1361816346.25,15.217826125,32.15208333333333,83.41083327658666,3.626692708333333,63.85138996137829
1361816346.5,15.205548125,32.15291666666666,83.52166666666666,3.231510416666667,63.85138996137829
1361816346.75,15.192149125,32.153749999999995,83.63250005674666,2.9550260416666667,63.85138996137829
1361816347.0,15.178216333333333,32.154583333333335,83.74333333333333,2.494270833333333,63.85138996137829
1361816347.25,15.164657208333333,32.15541666666666,83.82749995690666,2.2072395833333336,63.84943036612893
1361816347.5,15.149549958333333,32.15625,83.91166666666666,2.048828125,63.83583122369786
1361816347.75,15.132414208333335,32.15708333333333,83.99583337642666,1.7683072916666667,63.82080118682686
1361816348.0,15.114904833333334,32.157916666666665,84.08,1.5784635416666666,63.80577114995588
1361816348.25,15.09728866666667,32.15875,84.15083329706667,1.529375,63.79074111308489
1361816348.5,15.080473208333332,32.15958333333333,84.22166666666666,1.3346875,63.7757110762139
1361816348.75,15.064511874999999,32.16208333333333,84.29250003626666,1.2114583333333333,63.760681039342906
1361816349.0,15.047971291666665,32.16625,84.36333333333333,1.1369010416666667,63.74565100247193
1361816349.25,15.031064958333333,32.17041666666666,84.42999996586666,0.8891406249999999,63.730620965600934
1361816349.5,15.01410525,32.17458333333334,84.49666666666667,0.7787760416666666,63.715590928729945
1361816349.75,14.997145541666667,32.17875,84.56333336746667,0.6226822916666667,63.70056089185896
1361816350.0,14.97975875,32.182916666666664,84.63,0.43242187499999996,63.685530854987974
1361816350.25,14.961944958333333,32.187083333333334,84.68999996928,0.3996875,63.67246041336634
1361816350.5,14.945946166666666,32.191250000000004,84.75,0.23341145833333335,63.671029518926424
1361816350.75,14.93224275,32.19541666666667,84.81000003071999,0.2276041666666667,63.67384765083974
1361816351.0,14.919233291666666,32.19958333333334,84.86999999999999,0.368828125,63.69173174947452
1361816351.25,14.907718583333333,32.20375,84.92416663893333,0.316953125,63.71002357121841
1361816351.5,14.898285791666666,32.20791666666667,84.97833333333332,0.44960937500000003,63.72831539296231
1361816351.75,14.889867250000002,32.21,85.03250002773332,0.5602343750000001,63.746607214706195
1361816352.0,14.884109875,32.21,85.08666666666666,0.653671875,63.76489903645009
1361816352.25,14.882455041666667,32.21,85.13833330688,1.0053124999999998,63.78319085819399
1361816352.5,14.88192125,32.21,85.19,1.2060677083333333,63.801482679937884
1361816352.75,14.883202458333335,32.21083333333333,85.24166669312,1.4697135416666667,63.81977450168177
1361816353.0,14.886885874999999,32.2125,85.29333333333334,1.8598177083333332,63.838066323425664
1361816353.25,14.891690291666668,32.214166666666664,85.34749997226666,2.0651822916666664,63.856358145169565
1361816353.5,14.896708250000001,32.215833333333336,85.40166666666667,2.4345572916666667,63.874649966913445
1361816353.75,14.901726208333331,32.217499999999994,85.45583336106667,2.654973958333333,63.89012365674404
1361816354.0,14.904822375,32.219166666666666,85.50999999999999,2.8020833333333335,63.89053137985315
1361816354.25,14.904768958333333,32.22083333333333,85.57166663509332,3.069921875,63.89053137985315
1361816354.5,14.901726166666668,32.2225,85.63333333333333,3.08453125,63.89053137985315
1361816354.75,14.896761624999998,32.22416666666667,85.69500003157333,3.2493489583333335,63.89053137985315
1361816355.0,14.887206166666667,32.225833333333334,85.75666666666666,3.419791666666667,63.89053137985315
1361816355.25,14.874661291666664,32.2275,85.81249997141333,3.4148437499999997,63.89053137985315
1361816355.5,14.861529208333332,32.229166666666664,85.86833333333334,3.569114583333333,63.89053137985315
1361816355.75,14.848397125,32.229166666666664,85.92416669525333,3.572890625,63.859279685260695
1361816356.0,14.835265041666668,32.2275,85.98,3.764427083333333,63.77126840198647
1361816356.25,14.822132958333333,32.225833333333334,86.02749997568,4.2924999999999995,63.64946411287443
1361816356.5,14.809000875,32.22416666666667,86.075,4.486067708333334,63.493674912997086
1361816356.75,14.795495125,32.2225,86.12250002432,4.6189583333333335,63.329402270658505
1361816357.0,14.783911166666668,32.22083333333333,86.17,4.72390625,63.15383503499311
1361816357.25,14.775476791666668,32.219166666666666,86.20999997952,4.71390625,62.950129764302055
1361816357.5,14.770031791666668,32.2175,86.25,5.2700781249999995,62.767564800266484
1361816357.75,14.766508541666667,32.21583333333333,86.29000002048,5.359427083333333,62.58699329734572
1361816358.0,14.7660815,32.214166666666664,86.33,4.6570833333333335,62.4127390480983
1361816358.25,14.762398124999999,32.2125,86.37166664533333,3.727239583333333,62.255988898873056
1361816358.5,14.756365916666667,32.21083333333333,86.41333333333333,2.7017708333333332,62.098059135303764
1361816358.75,14.748732208333331,32.21,86.45500002133333,2.0240625,61.975125671323816
1361816359.0,14.739176791666665,32.21,86.49666666666667,0.8985677083333333,61.90874190540324
1361816359.25,14.728874083333332,32.21,86.53666664618667,-0.7315885416666666,61.87157178163864
1361816359.5,14.718571374999998,32.21,86.57666666666668,-2.058723958333333,61.872545998220126
1361816359.75,14.708642333333335,32.21,86.61666668714668,-3.15453125,61.877845031745146
1361816360.0,14.698713291666666,32.21,86.65666666666668,-4.18453125,61.889016307145546
1361816360.25,14.68878425,32.21,86.68999998293334,-5.164427083333333,61.9283256175716
1361816360.5,14.678855208333333,32.21,86.72333333333334,-6.750494791666665,61.932634162670674
1361816360.75,14.6707945,32.21,86.75666668373334,-7.743098958333333,61.94611356195188
1361816361.0,14.664442000000001,32.21,86.79,-7.568671875,61.964335003724756
1361816361.25,14.662627,32.21,86.8149999872,-7.010416666666665,61.96345599719334
1361816361.5,14.663160833333334,32.21,86.84,-6.348932291666667,61.96711663503573
1361816361.75,14.66583,32.21,86.8650000128,-6.0584375,61.97666730396406
1361816362.0,14.670527625,32.21,86.88999999999999,-5.629270833333333,62.00700923450581
1361816362.25,14.676079291666667,32.21,86.90916665685332,-4.886380208333333,62.06913696756271
1361816362.5,14.681844541666669,32.21,86.92833333333331,-4.206692708333333,62.15548263980242
1361816362.75,14.688357124999998,32.21,86.94750000981333,-3.6471875,62.25065086935603
1361816363.0,14.697271874999998,32.21,86.96666666666665,-3.1794791666666664,62.36543835124894
1361816363.25,14.709923416666667,32.21,86.98166665898665,-3.01703125,62.509373830589276
1361816363.5,14.727005708333335,32.21,86.99666666666666,-2.396822916666667,62.672649069942054
1361816363.75,14.7475045,32.21083333333333,87.01166667434666,-1.9239583333333334,62.83019472216288
1361816364.0,14.77029875,32.2125,87.02666666666666,-2.160703125,62.977089487683656
1361816364.25,14.79319975,32.214166666666664,87.04833332224,-2.529479166666667,63.12582549061427
1361816364.5,14.816100749999999,32.21583333333333,87.07,-2.791640625,63.274303412515415
1361816364.75,14.838467916666668,32.2175,87.09166667776,-2.570078125,63.41371808624938
1361816365.0,14.860728333333332,32.219166666666666,87.11333333333334,-1.3657031250000002,63.532551388992324
1361816365.25,14.882882,32.22083333333333,87.14249998506668,-0.22299479166666672,63.62417825290192
1361816365.5,14.904822083333334,32.2225,87.17166666666668,0.11802083333333326,63.68742774804797
1361816365.75,14.914804541666667,32.224999999999994,87.20083334826667,0.38161458333333326,63.74682919269322
1361816366.0,14.903273958333335,32.22833333333333,87.23,0.7946874999999999,63.79615115684147
1361816366.25,14.876529416666665,32.23166666666666,87.26499998208,1.9738281249999998,63.83690214540669
1361816366.5,14.836324583333331,32.23499999999999,87.30000000000001,2.7208593750000003,63.89285057009465
1361816366.75,14.780630958333333,32.2375,87.33500001792001,2.8587239583333335,63.950115720055464
1361816367.0,14.715915749999999,32.23916666666666,87.37,3.5474479166666666,64.0058414109266
1361816367.25,14.648638166666666,32.240833333333335,87.40499998208,4.185104166666666,64.06758220382487
1361816367.5,14.579972624999998,32.2425,87.44,4.49859375,64.1294885518894
1361816367.75,14.510346208333331,32.244166666666665,87.47500001792,4.43421875,64.19525900039837
1361816368.0,14.440025833333335,32.24583333333333,87.50999999999999,3.4661458333333335,64.26155356328769
1361816368.25,14.369491916666666,32.247499999999995,87.54333331626665,2.4145833333333333,64.32808990250867
1361816368.5,14.298210666666668,32.24916666666667,87.57666666666665,2.2915885416666666,64.3949083141165
1361816368.75,14.237499125,32.25083333333333,87.61000001706667,2.4421875,64.46091084442897
1361816369.0,14.195311208333331,32.252500000000005,87.64333333333333,2.3556770833333336,64.52537380296307
1361816369.25,14.163746375,32.25416666666667,87.67916664832,1.6671875,64.5789532906917
1361816369.5,14.140303583333333,32.255833333333335,87.715,1.2676041666666666,64.6155950861563
1361816369.75,14.126210583333332,32.2575,87.75083335168,1.4808333333333332,64.64749638491762
1361816370.0,14.116761833333335,32.259166666666665,87.78666666666668,1.3665104166666666,64.68052873330363
1361816370.25,14.108167250000001,32.26083333333334,87.82166664874667,1.439140625,64.70730109053481
1361816370.5,14.100960625,32.2625,87.85666666666667,1.608046875,64.73080594359946
1361816370.75,14.094127666666667,32.26500000000001,87.89166668458667,1.60578125,64.749875308304
1361816371.0,14.087988666666666,32.26833333333334,87.92666666666666,1.402630208333333,64.76842055862816
1361816371.25,14.082063208333333,32.27166666666667,87.9558333184,1.421953125,64.78672403262071
1361816371.5,14.076511458333334,32.275000000000006,87.985,1.3213020833333333,64.80474543422638
1361816371.75,14.071440166666667,32.27666666666667,88.0141666816,0.923515625,64.82164049823166
1361816372.0,14.066956125000003,32.276666666666664,88.04333333333334,0.376171875,64.81427648899084
1361816372.25,14.063486291666669,32.27666666666667,88.06166665728,0.09515624999999998,64.75968371430672
1361816372.5,14.061564583333334,32.276666666666664,88.08000000000001,-0.262265625,64.70596502957369
1361816372.75,14.060497041666666,32.2775,88.09833334272001,-0.6246614583333333,64.5822271990298
1361816373.0,14.059803166666667,32.27916666666667,88.11666666666667,-0.6418489583333333,64.44638746106033
1361816373.25,14.060657374999998,32.280833333333334,88.12499999573333,-1.035703125,64.33892997035744
1361816373.5,14.061511583333333,32.2825,88.13333333333333,-1.1426041666666666,64.22499455031404
1361816373.75,14.067014499999999,32.28333333333333,88.14166667093333,-1.0720052083333333,64.10782016560039
1361816374.0,14.077326208333334,32.28333333333334,88.14999999999999,-0.8542708333333334,63.97837551118791
1361816374.25,14.089079208333333,32.28333333333333,88.15583333034667,-0.7261979166666667,63.89364343709132
1361816374.5,14.10147275,32.28333333333334,88.16166666666666,-0.33739583333333334,63.822042526657896
1361816374.75,14.115254208333335,32.285000000000004,88.16750000298666,-0.5129427083333333,63.75757583296212
1361816375.0,14.130850666666666,32.288333333333334,88.17333333333333,0.16968750000000002,63.71122612289167
1361816375.25,14.146287,32.291666666666664,88.17916666368001,0.7054166666666667,63.66087861175051
1361816375.5,14.159854916666667,32.295,88.185,0.5471614583333334,63.55259481563474
1361816375.75,14.173422833333333,32.29666666666666,88.19083333632,0.09697916666666669,63.56512911953184
1361816376.0,14.18699075,32.29666666666667,88.19666666666667,-0.8332291666666668,63.57499933899677
1361816376.25,14.199384250000001,32.29666666666667,88.21166665898667,-1.741328125,63.574786271760054
1361816376.5,14.211350666666668,32.29666666666666,88.22666666666666,-3.017682291666667,63.56441529558057
1361816376.75,14.215732375000002,32.29666666666667,88.24166667434666,-3.97140625,63.5694997232272
1361816377.0,14.21375725,32.29666666666667,88.25666666666666,-4.91140625,63.594319768853495
1361816377.25,14.209486666666669,32.29666666666667,88.28166665386667,-6.139635416666668,63.57401611707547
1361816377.5,14.202280041666667,32.29666666666667,88.30666666666667,-7.581041666666667,63.54398153253211
1361816377.75,14.189308125000002,32.29583333333333,88.33166667946666,-8.037083333333333,63.50916715536355
1361816378.0,14.170891208333336,32.29416666666666,88.35666666666667,-8.922864583333334,63.47914434733872
1361816378.25,14.151246541666666,32.2925,88.39416664746666,-9.915572916666667,63.49507078381876
1361816378.5,14.132616125,32.29083333333333,88.43166666666667,-9.826171875,63.56575126456253
1361816378.75,14.113772166666665,32.29083333333333,88.46916668586667,-9.456640625,63.58362183436977
1361816379.0,14.094821458333334,32.2925,88.50666666666666,-8.670520833333333,63.61625839603477
1361816379.25,14.073948999999999,32.29416666666666,88.54999997781333,-7.5378645833333335,63.62773420825497
1361816379.5,14.051314958333334,32.295833333333334,88.59333333333333,-6.2159375,63.65584585875848
1361816379.75,14.03054925,32.29833333333333,88.63666668885334,-5.2140625,63.67059635455417
1361816380.0,14.008822583333332,32.30166666666667,88.68,-4.202135416666667,63.67816768095702
1361816380.25,13.986508791666665,32.305,88.73166664021333,-2.816640625,63.68529158778434
1361816380.5,13.965529583333334,32.30833333333333,88.78333333333333,-1.3153125,63.68467691267855
1361816380.75,13.947112708333334,32.31166666666666,88.83500002645334,-0.017526041666666648,63.67640459464719
1361816381.0,13.931151416666665,32.315,88.88666666666667,1.5532291666666669,63.66337895721167
1361816381.25,13.916417875,32.318333333333335,88.94749996885334,3.595260416666667,63.644501945567946
1361816381.5,13.901684333333334,32.321666666666665,89.00833333333334,4.986666666666667,63.623373396891736
1361816381.75,13.887164333333333,32.32416666666666,89.06916669781333,6.326276041666667,63.60043943451189
1361816382.0,13.872751083333334,32.32583333333333,89.13,7.523723958333332,63.57344046878007
1361816382.25,13.860046041666669,32.3275,89.20083329706667,8.360234375000001,63.55152081714365
1361816382.5,13.849529666666664,32.329166666666666,89.27166666666668,8.935234375,63.531448643643635
1361816382.75,13.840668166666665,32.33,89.34250003626667,9.378255208333334,63.51252118569557
1361816383.0,13.833995416666667,32.33,89.41333333333334,9.915494791666665,63.49330754885952
1361816383.25,13.828763958333333,32.33,89.496666624,9.971692708333334,63.474952448687425
1361816383.5,13.824226458333333,32.33,89.58000000000001,9.785911458333334,63.46093569955062
1361816383.75,13.819795708333332,32.33,89.66333337600001,9.527395833333333,63.453348506827275
1361816384.0,13.814137166666667,32.33,89.74666666666667,8.583072916666666,63.44928730537263
1361816384.25,13.807304208333335,32.33,89.83583328768,7.273541666666667,63.446661249076435
1361816384.5,13.798869791666666,32.33,89.92500000000001,6.163072916666668,63.444855835372806
1361816384.75,13.788940708333334,32.330416666666665,90.01416671232,5.065364583333333,63.444855835372806
1361816385.0,13.77826425,32.331250000000004,90.10333333333334,3.8814322916666666,63.448920838724796
1361816385.25,13.765826166666665,32.33208333333333,90.19583328597334,2.9560156250000005,63.45076831686122
1361816385.5,13.751573083333334,32.33291666666667,90.28833333333333,2.4543489583333336,63.45076831686122
1361816385.75,13.736626000000001,32.33375,90.38083338069332,2.0155468749999996,63.45076831686122
1361816386.0,13.721732291666667,32.334583333333335,90.47333333333331,1.3438802083333332,63.45076831686122
1361816386.25,13.706731833333334,32.33541666666667,90.56333328725331,1.2453385416666667,63.45076831686122
1361816386.5,13.692265166666667,32.33625,90.65333333333332,1.1840625,63.45076831686122
1361816386.75,13.679133083333333,32.33833333333334,90.74333337941333,1.0360416666666665,63.45076831686122
1361816387.0,13.667602458333334,32.34166666666667,90.83333333333333,1.3913020833333334,63.45076831686122
1361816387.25,13.65660566666667,32.345,90.92166662144,1.579375,63.45076831686122
1361816387.5,13.647050208333333,32.348333333333336,91.00999999999999,1.845,63.45076831686122
1361816387.75,13.638775916666667,32.35125,91.09833337856,2.253203125,63.45167063196163
1361816388.0,13.631035458333335,32.35375,91.18666666666667,2.4454947916666665,63.49330911694714
1361816388.25,13.62500325,32.35625,91.27166662314667,2.801067708333333,63.542209952128125
1361816388.5,13.620786041666667,32.35875,91.35666666666665,3.0086197916666664,63.59513591572706
1361816388.75,13.616835791666666,32.361250000000005,91.44166671018665,3.0875260416666666,63.648061879326
1361816389.0,13.611123874999999,32.36375,91.52666666666666,3.5452604166666664,63.700987842924924
1361816389.25,13.603490166666667,32.36625,91.60416662698665,3.830703125,63.753913806523876
1361816389.5,13.595162499999999,32.36875,91.68166666666666,3.970703125,63.806839770122814
1361816389.75,13.58619425,32.36875,91.75916670634666,4.236562500000001,63.85976573372174
1361816390.0,13.576745583333333,32.36625,91.83666666666666,4.273203124999999,63.91269169732069
1361816390.25,13.566763083333333,32.36375,91.91916662442667,4.47125,63.96561766091961
1361816390.5,13.556140000000001,32.361250000000005,92.00166666666667,4.64828125,64.01781178298802
1361816390.75,13.54514325,32.358333333333334,92.08416670890666,4.637395833333334,64.06177058881312
1361816391.0,13.534253249999999,32.355,92.16666666666667,4.831354166666666,64.05726513116993
1361816391.25,13.522615875000001,32.35166666666667,92.2583332864,4.866197916666667,64.00836429598895
1361816391.5,13.509402458333334,32.348333333333336,92.35000000000001,4.830859375,63.95543833239001
1361816391.75,13.495360333333332,32.345,92.44166671360001,4.982942708333334,63.90251236879107
1361816392.0,13.482599416666668,32.34166666666666,92.53333333333335,4.903072916666667,63.84958640519215
1361816392.25,13.471173041666667,32.33833333333333,92.64083327829334,4.760703125,63.82019605727052
1361816392.5,13.459159458333334,32.335,92.74833333333333,4.800833333333333,63.799631565227905
1361816392.75,13.447252666666666,32.333333333333336,92.85583338837333,4.783932291666667,63.75553145750796
1361816393.0,13.435452625000002,32.333333333333336,92.96333333333332,4.741145833333333,63.702605493909026
1361816393.25,13.423919500000002,32.333333333333336,93.046666624,4.712630208333334,63.64967953031009
1361816393.5,13.41334725,32.333333333333336,93.13,4.688723958333334,63.59748540824168
1361816393.75,13.403202041666667,32.33375,93.213333376,4.6367447916666675,63.55122778140625
1361816394.0,13.392523041666669,32.334583333333335,93.29666666666667,4.579973958333334,63.50415294725897
1361816394.25,13.382271083333334,32.33541666666667,93.34416664234666,4.598307291666667,63.49363565384973
1361816394.5,13.372847791666667,32.33625,93.39166666666668,4.572057291666668,63.48311836044048
1361816394.75,13.363612625000002,32.33833333333333,93.43916669098668,4.5440625,63.472601067031235
1361816395.0,13.354270666666665,32.34166666666667,93.48666666666668,4.6632291666666665,63.46208377362198
1361816395.25,13.344021249999999,32.345000000000006,93.48333333504,4.725052083333334,63.42803086453542
1361816395.5,13.333238041666666,32.348333333333336,93.47999999999999,4.736770833333334,63.38515209956986
1361816395.75,13.322561541666666,32.35125,93.47666666495999,4.7803125,63.36580895028161
1361816396.0,13.312045208333332,32.35375,93.47333333333331,4.842031250000001,63.35529165687237
1361816396.25,13.301422125,32.356249999999996,93.45333334357332,4.924270833333334,63.344774363463124
1361816396.5,13.290638875,32.35874999999999,93.43333333333332,4.904270833333333,63.33425707005387
1361816396.75,13.279375166666668,32.36125,93.41333332309333,4.9571875,63.32513628255456
1361816397.0,13.268004666666664,32.36375,93.39333333333333,5.055833333333333,63.32484853925241
1361816397.25,13.256847749999999,32.36625,93.35000002218666,4.975338541666667,63.33388748251795
1361816397.5,13.245584125,32.36875,93.30666666666666,5.029244791666667,63.3457582485778
1361816397.75,13.234640749999999,32.37,93.26333331114665,5.132760416666667,63.361193968309045
1361816398.0,13.224231166666664,32.37,93.21999999999998,4.98109375,63.37413018949786
1361816398.25,13.21510275,32.37,93.16500002816,4.946484375,63.39096368860996
1361816398.5,13.207308916666667,32.37,93.10999999999999,4.9948958333333335,63.418973356855766
1361816398.75,13.200155708333334,32.36875,93.05499997183999,4.820416666666667,63.441008572541186
1361816399.0,13.193803208333334,32.36625,93.0,4.674479166666667,63.476619292847595
1361816399.25,13.188251416666667,32.363749999999996,92.93250003456001,4.620755208333333,63.50434264103931
1361816399.5,13.182379333333332,32.361250000000005,92.86500000000001,4.671588541666666,63.5203526983463
1361816399.75,13.176560625,32.35875,92.79749996544,4.701276041666667,63.53357693705676
1361816400.0,13.171222416666668,32.35625,92.73,4.726067708333333,63.54470880226427
1361816400.25,13.165991,32.35375,92.66333336746666,4.874505208333333,63.54618715240798
1361816400.5,13.16134675,32.35125,92.59666666666666,4.923125,63.54483367975737
1361816400.75,13.157449875,32.34875,92.52999996586666,4.910494791666666,63.53991525343537
1361816401.0,13.153926750000002,32.346250000000005,92.46333333333332,5.056744791666667,63.53749632565581
1361816401.25,13.150723916666669,32.34375000000001,92.3966667008,5.08390625,63.53118011995295
1361816401.5,13.14832175,32.34125000000001,92.33,5.0539322916666665,63.51368774511639
1361816401.75,13.146239875000001,32.34,92.2633332992,5.338828125,63.50216982284022
1361816402.0,13.144371541666667,32.34,92.19666666666667,5.463828125,63.477076395943065
1361816402.25,13.143197125,32.34,92.12833336832,5.455312500000001,63.45987034116059
1361816402.5,13.142076166666667,32.34,92.06,5.5030729166666665,63.45437757726285
1361816402.75,13.141061958333333,32.34,91.99166663168,5.327161458333333,63.4524912745542
1361816403.0,13.140741708333332,32.34,91.92333333333333,5.165130208333333,63.45273785908336
1361816403.25,13.141222125,32.34,91.85416670208001,5.1222916666666665,63.455035658342524
1361816403.5,13.142503291666666,32.34,91.78500000000001,4.821328125,63.455199786861044
1361816403.75,13.143784458333334,32.34,91.71583329792001,4.5785937500000005,63.45684107204617
1361816404.0,13.145012208333334,32.34,91.64666666666669,4.489427083333333,63.458974742786815
1361816404.25,13.145973041666666,32.34,91.57583336960002,4.452161458333333,63.46418406036824
1361816404.5,13.146346708333333,32.34,91.50500000000002,4.5414062500000005,63.47140258117148
1361816404.75,13.146453458333333,32.34,91.43416663040001,4.4584375,63.478621101974745
1361816405.0,13.146560208333334,32.34,91.36333333333334,4.395052083333334,63.488051654298516
1361816405.25,13.146186583333332,32.34,91.30333336405334,4.47546875,63.4974822066223
1361816405.5,13.14656025,32.34,91.24333333333334,4.318489583333333,63.50691275894607
1361816405.75,13.148108333333331,32.34,91.18333330261333,4.2969791666666675,63.51478532483711
1361816406.0,13.1498165,32.34,91.12333333333333,4.296015625,63.52085494601079
1361816406.25,13.15040370833333,32.34,91.08000002218667,3.9738802083333336,63.52577566755489
1361816406.5,13.1498165,32.34,91.03666666666666,3.97390625,63.532830059839625
1361816406.75,13.149229291666666,32.34,90.99333331114667,4.103098958333334,63.538407295457766
1361816407.0,13.148001458333331,32.34,90.95,3.8668229166666666,63.54349214552037
1361816407.25,13.147040541666664,32.34,90.93166667605334,3.5923958333333332,63.5455013487422
1361816407.5,13.146453291666667,32.34,90.91333333333333,3.3364583333333333,63.545501348742214
1361816407.75,13.145972833333332,32.34,90.89499999061333,2.9207031249999997,63.5455013487422
1361816408.0,13.142876625,32.34,90.87666666666667,2.780052083333333,63.543289317221685
1361816408.25,13.136737625,32.34,90.87166666922667,2.6474739583333333,63.54050322763778
1361816408.5,13.128303166666667,32.34,90.86666666666667,2.6112760416666667,63.53570793483203
1361816408.75,13.117199583333333,32.34,90.86166666410666,2.7414062499999994,63.533372160056615
1361816409.0,13.103800624999998,32.34,90.85666666666667,3.0932552083333333,63.533085131024926
1361816409.25,13.089654291666667,32.34,90.86249999701333,3.747369791666666,63.533453802945
1361816409.5,13.074707208333335,32.34,90.86833333333334,4.2909375,63.53996655118138
1361816409.75,13.058394999999999,32.34125,90.87416666965333,4.684557291666667,63.54586530190277
1361816410.0,13.040771083333334,32.34375,90.88,5.392630208333333,63.55650808366971
1361816410.25,13.021011875,32.346250000000005,90.88666666325334,5.941223958333333,63.573528512039495
1361816410.5,13.000185041666667,32.34875,90.89333333333335,6.30890625,63.5960626871678
1361816410.75,12.978664208333333,32.35208333333333,90.90000000341334,6.9959895833333325,63.624838791261574
1361816411.0,12.958477916666666,32.356249999999996,90.90666666666668,7.390807291666666,63.659236445950846
1361816411.25,12.941334416666669,32.36041666666667,90.91166666410668,7.5440885416666665,63.690298057119726
1361816411.5,12.925365333333332,32.364583333333336,90.91666666666669,7.913619791666666,63.726423891373095
1361816411.75,12.911157875,32.36875,90.92166666922668,8.15671875,63.761601447218204
1361816412.0,12.898231541666668,32.37291666666666,90.92666666666668,8.093151041666665,63.79636448463955
1361816412.25,12.885999166666666,32.37708333333333,90.92250000213335,8.012317708333333,63.82513858796174
1361816412.5,12.874620958333333,32.38125,90.91833333333335,7.972239583333333,63.83711894051472
1361816412.75,12.861191416666665,32.38333333333333,90.91416666453334,7.893411458333333,63.845258059911096
1361816413.0,12.835727999999998,32.38333333333333,90.91000000000001,7.767499999999999,63.834858622083026
1361816413.25,12.800121958333333,32.38333333333333,90.89333334186666,7.805286458333334,63.810291252817045
1361816413.5,12.749756125,32.38333333333333,90.87666666666667,7.161953125,63.77515715900751
1361816413.75,12.676623166666666,32.3825,90.85999999146667,5.703776041666667,63.72864524070124
1361816414.0,12.586652041666667,32.380833333333335,90.84333333333332,5.129765625,63.676511771799476
1361816414.25,12.481711041666665,32.37916666666666,90.81333334869332,4.367578125,63.62841176914281
1361816414.5,12.368068708333334,32.3775,90.78333333333332,3.2693229166666664,63.583994770743004
1361816414.75,12.249113291666667,32.376666666666665,90.75333331797331,2.64390625,63.53888611966887
1361816415.0,12.127513916666667,32.376666666666665,90.72333333333331,1.625,63.496534872591496
1361816415.25,12.00468675,32.376666666666665,90.68250002090664,0.7922135416666665,63.459516858661495
1361816415.5,11.881379083333334,32.376666666666665,90.64166666666665,0.3820052083333332,63.43314851918442
1361816415.75,11.761327708333333,32.3775,90.60083331242666,-0.4136718750000002,63.41123541037893
1361816416.0,11.655102416666665,32.37916666666666,90.55999999999999,-1.223828125,63.403116827752335
1361816416.25,11.559927291666666,32.38083333333333,90.51416669013332,-1.6056770833333334,63.402788529960816
1361816416.5,11.47844425,32.3825,90.46833333333333,-1.2280729166666668,63.407513209954296
1361816416.75,11.419087708333334,32.384166666666665,90.42249997653333,-0.1000260416666668,63.41737378547908
1361816417.0,11.375875416666666,32.38583333333333,90.37666666666667,0.2868489583333332,63.427234361003855
1361816417.25,11.344750374999998,32.387499999999996,90.32250002773334,0.9737239583333333,63.436971571867296
1361816417.5,11.320671833333334,32.38916666666667,90.26833333333335,1.6776302083333332,63.43997075861123
1361816417.75,11.298810166666668,32.39083333333333,90.21416663893334,1.9742187500000001,63.4428877022476
1361816418.0,11.276603083333333,32.392500000000005,90.16000000000001,2.712552083333333,63.44637305638202
1361816418.25,11.254182499999999,32.39416666666667,90.09750003200001,3.0007291666666664,63.45752618961217
1361816418.5,11.230160458333335,32.395833333333336,90.03500000000001,2.8796874999999997,63.46867932284231
1361816418.75,11.202775333333333,32.3975,89.97249996800001,3.2362239583333334,63.47983245607245
1361816419.0,11.173254875,32.399166666666666,89.91000000000001,3.384375,63.490985589302596
1361816419.25,11.142506583333335,32.40083333333333,89.84250003456,2.895286458333333,63.50213872253274
1361816419.5,11.110838125,32.402499999999996,89.775,2.551484375,63.513291855762894
1361816419.75,11.078729916666667,32.40416666666666,89.70749996544001,2.1611197916666667,63.51776210327187
1361816420.0,11.046941958333333,32.405833333333334,89.64,1.691328125,63.517926252167626
1361816420.25,11.016702083333334,32.4075,89.57000003584,1.3534895833333334,63.517926252167626
1361816420.5,10.987423083333333,32.409166666666664,89.5,1.1200520833333334,63.517926252167626
1361816420.75,10.959105000000001,32.41,89.42999996416,0.7473437500000001,63.51792625216762
1361816421.0,10.932121458333333,32.41,89.36,0.450859375,63.5144408980332
1361816421.25,10.906045375,32.41,89.29083336874666,0.3058072916666667,63.503287764803055
1361816421.5,10.8823715,32.41,89.22166666666666,0.08218749999999998,63.49213463157292
1361816421.75,10.862007333333333,32.41,89.15249996458667,-0.21369791666666668,63.48098149834277
1361816422.0,10.843564958333333,32.41,89.08333333333333,-0.3253125,63.469828365112626
1361816422.25,10.8272045,32.41,89.01500003498666,-0.049869791666666684,63.45867523188249
1361816422.5,10.813685999999999,32.41,88.94666666666666,0.033020833333333326,63.44752209865234
1361816422.75,10.801781708333332,32.41,88.87833329834666,0.06124999999999999,63.44305185114336
1361816423.0,10.790251125,32.41,88.80999999999999,0.18583333333333332,63.4428877022476
1361816423.25,10.778026541666668,32.41,88.74500003328,0.14359375,63.4428877022476
1361816423.5,10.765908708333333,32.41,88.67999999999999,0.14518229166666666,63.4428877022476
1361816423.75,10.75613970833333,32.41,88.61499996671999,0.32492187499999997,63.4428877022476
1361816424.0,10.748452624999999,32.41,88.55,0.562421875,63.4428877022476
1361816424.25,10.741939958333333,32.41,88.48500003328,0.8652083333333334,63.4428877022476
1361816424.5,10.735694208333333,32.41,88.42,1.3525260416666667,63.45334376465087
1361816424.75,10.729662,32.41,88.35499996672,1.9277343749999998,63.46449689788101
1361816425.0,10.724804208333333,32.41,88.29,2.48453125,63.47565003111115
1361816425.25,10.72048025,32.41,88.22166670165333,2.797421875,63.486803164341296
1361816425.5,10.716369833333333,32.41,88.15333333333334,3.3003125,63.49795629757144
1361816425.75,10.712579708333335,32.41083333333333,88.08499996501334,3.905703125,63.509109430801594
1361816426.0,10.71007075,32.4125,88.01666666666667,4.229505208333333,63.52026256403173
1361816426.25,10.709590333333333,32.41416666666667,87.94750003541333,4.726692708333333,63.53141569726188
1361816426.5,10.71055125,32.41583333333333,87.87833333333333,5.33078125,63.54256883049202
1361816426.75,10.708736291666668,32.4175,87.80916663125333,5.617994791666667,63.55372196372216
1361816427.0,10.7034515,32.41916666666667,87.74,5.748255208333333,63.564875096952306
1361816427.25,10.695284083333334,32.42083333333333,87.66916670293332,6.004557291666667,63.57602823018245
1361816427.5,10.684127250000001,32.4225,87.59833333333333,5.942578125000001,63.57672530100933
1361816427.75,10.672152291666668,32.424166666666665,87.52749996373333,5.701953124999999,63.57672530100933
1361816428.0,10.659376583333334,32.42583333333333,87.45666666666666,5.726770833333333,63.57672530100933
1361816428.25,10.646440708333332,32.4275,87.38500003669333,5.885911458333333,63.57672530100933
1361816428.5,10.633504833333333,32.42916666666667,87.31333333333333,5.473098958333334,63.57672530100933
1361816428.75,10.620568958333331,32.43083333333333,87.24166662997334,4.679010416666666,63.57672530100933
1361816429.0,10.607633083333333,32.4325,87.17,4.316927083333333,63.57672530100933
1361816429.25,10.597722625,32.43416666666666,87.09750003712,3.9254427083333336,63.57672530100933
1361816429.5,10.597367624999999,32.435833333333335,87.025,3.5958072916666666,63.57672530100933
1361816429.75,10.612760416666667,32.43666666666667,86.95249996288,3.963229166666667,63.57680721795629
1361816430.0,10.638616125,32.43666666666667,86.88,4.2271875,63.59234285621276
1361816430.25,10.669934166666666,32.43666666666667,86.80750003712,3.48671875,63.61824789063174
1361816430.5,10.707942375,32.43666666666667,86.73499999999999,3.223697916666667,63.6791479607247
1361816430.75,10.7486905,32.43666666666667,86.66249996287999,1.6234375000000003,63.76793086441978
1361816431.0,10.789812291666665,32.43666666666667,86.58999999999999,-1.099609375,63.86569277865065
1361816431.25,10.831841583333334,32.43666666666667,86.52583336618666,-3.19921875,63.96108060296138
1361816431.5,10.875205458333333,32.43666666666667,86.46166666666666,-3.9336458333333333,64.0451153268162
1361816431.75,10.920170791666669,32.435833333333335,86.39749996714666,-3.7825520833333335,64.13732820428815
1361816432.0,10.965136125,32.43416666666667,86.33333333333333,-3.9450000000000003,64.21785800516419
1361816432.25,11.005474583333333,32.4325,86.2791666944,-4.448333333333333,64.29289879896244
1361816432.5,11.035189916666667,32.43083333333333,86.225,-5.033125,64.35831911889393
1361816432.75,11.0513995,32.43,86.1708333056,-5.962473958333333,64.4214302682047
1361816433.0,11.059975416666667,32.43,86.11666666666667,-6.827239583333333,64.46066313911469
1361816433.25,11.065224291666667,32.43,86.07500002133334,-6.430703125000001,64.48952661386218
1361816433.5,11.064957416666667,32.43,86.03333333333333,-6.165104166666667,64.48339505293568
1361816433.75,11.0603665,32.43,85.99166664533332,-4.435182291666666,64.44938065840707
1361816434.0,11.053586916666667,32.43,85.94999999999999,-1.7011458333333334,64.40638725334266
1361816434.25,11.044725416666665,32.43,85.91000002048,0.27625,64.36576793819839
1361816434.5,11.033675208333333,32.43,85.87,1.2709895833333333,64.33650172351004
1361816434.75,11.020116041666666,32.43,85.82999997952,1.8650781250000001,64.29905735520455
1361816435.0,11.005222333333334,32.43,85.79,2.635390625,64.27329606349497
1361816435.25,10.990008333333334,32.43,85.74666668885334,3.5853645833333334,64.2530237788632
1361816435.5,10.974313875,32.43,85.70333333333335,4.306901041666667,64.24237196809815
1361816435.75,10.958566041666666,32.43,85.65999997781334,4.842421875,64.23378520405946
1361816436.0,10.942658083333335,32.43,85.61666666666667,5.356380208333333,64.23118989290039
1361816436.25,10.926376416666665,32.43,85.56000002901334,5.385703125,64.22433380695854
1361816436.5,10.910842083333334,32.43,85.50333333333333,5.119505208333333,64.2171936693645
1361816436.75,10.89669575,32.43,85.44666663765334,4.958697916666666,64.20883550203746
1361816437.0,10.883830583333333,32.43,85.39,4.571588541666666,64.2003961327282
1361816437.25,10.871606,32.43,85.32166670165333,4.139401041666667,64.19195676341896
1361816437.5,10.858901000000001,32.43,85.25333333333333,3.952213541666667,64.18351739410969
1361816437.75,10.8459825,32.43,85.18499996501333,3.49734375,64.17507802480044
1361816438.0,10.833544458333334,32.43,85.11666666666666,2.8593489583333334,64.16663865549118
1361816438.25,10.822067250000002,32.43,85.03666670762667,2.5322135416666667,64.15819928618193
1361816438.5,10.811604291666667,32.43,84.95666666666666,2.1847656250000003,64.14975991687268
1361816438.75,10.800874458333332,32.43,84.87666662570666,1.9135156250000003,64.14148275451087
1361816439.0,10.790464916666666,32.43,84.79666666666667,1.9029427083333335,64.13563869636069
1361816439.25,10.780856083333333,32.43,84.71166671018666,1.8158072916666665,64.13405541299328
1361816439.5,10.771567541666668,32.43,84.62666666666667,1.9454947916666667,64.13275618127805
1361816439.75,10.762332416666666,32.42916666666667,84.54166662314667,2.042838541666667,64.13267497929586
1361816440.0,10.752990541666668,32.4275,84.45666666666666,2.0749479166666664,64.13267497929586
1361816440.25,10.74338175,32.42583333333334,84.36250004821333,2.324557291666667,64.13267497929586
1361816440.5,10.7342,32.424166666666665,84.26833333333333,2.3826302083333335,64.13267497929586
1361816440.75,10.725818958333333,32.42249999999999,84.17416661845333,2.4728645833333336,64.13267497929586
1361816441.0,10.717117583333334,32.420833333333334,84.08,2.7534375,64.15760366341823
1361816441.25,10.707935791666666,32.41916666666666,83.99500004352,2.805442708333333,64.19386356759621
1361816441.5,10.698860833333335,32.4175,83.91,2.9887760416666667,64.2301234717742
1361816441.75,10.689892583333332,32.41583333333333,83.82499995648,3.1961197916666664,64.26638337595219
1361816442.0,10.680176958333334,32.41416666666667,83.74,3.215286458333333,64.30264328013017
1361816442.25,10.670194500000001,32.412499999999994,83.6650000384,3.3476041666666667,64.33890318430817
1361816442.5,10.660532333333334,32.41083333333333,83.59,3.475520833333334,64.37516308848616
1361816442.75,10.651831,32.410833333333336,83.5149999616,3.4703385416666666,64.41142299266414
1361816443.0,10.643183,32.4125,83.44,3.5600520833333333,64.44768289684212
1361816443.25,10.634481625000001,32.41416666666666,83.37333336746667,3.603046875,64.48394280102012
1361816443.5,10.626047166666666,32.41583333333333,83.30666666666667,3.6313541666666667,64.5202027051981
1361816443.75,10.617879625,32.4175,83.23999996586666,3.761354166666667,64.55646260937608
1361816444.0,10.610299333333334,32.41916666666666,83.17333333333333,3.7602083333333334,64.56779382943171
1361816444.25,10.600423625,32.420833333333334,83.10000003754666,3.7346614583333335,64.56609909380909
1361816444.5,10.579657875,32.4225,83.02666666666667,3.8398177083333334,64.5591155233405
1361816444.75,10.547717833333333,32.424166666666665,82.95333329578666,3.84953125,64.55471694329479
1361816445.0,10.509568041666666,32.42583333333334,82.88,3.695651041666667,64.55542529943833
1361816445.25,10.464723083333334,32.4275,82.79916670805333,3.8734635416666667,64.53355804060153
1361816445.5,10.4140595,32.42916666666667,82.71833333333333,4.068828125,64.5154541262442
1361816445.75,10.362007958333333,32.43,82.63749995861333,3.851822916666667,64.52538720629067
1361816446.0,10.308995583333333,32.43,82.55666666666667,3.9106770833333333,64.53481415425591
1361816446.25,10.255876458333333,32.43,82.47000004437334,4.22953125,64.54560977072003
1361816446.5,10.202757333333334,32.43,82.38333333333333,4.496588541666667,64.55934219829867
1361816446.75,10.149455666666666,32.42916666666667,82.29666662229333,4.666171875,64.5793099611859
1361816447.0,10.093805166666668,32.4275,82.21,4.787317708333333,64.59927772407315
1361816447.25,10.038581708333334,32.42583333333334,82.11250004992,4.465625,64.620940222583
1361816447.5,9.994088083333335,32.424166666666665,82.015,3.8065625,64.64789155593884
1361816447.75,9.961142458333335,32.42333333333333,81.91749995008,3.5859635416666666,64.67225789887179
1361816448.0,9.934299833333332,32.42333333333333,81.82000000000001,3.7932812499999997,64.69151730561549
1361816448.25,9.913138083333335,32.42333333333333,81.72166671701333,3.26921875,64.73335232733952
1361816448.5,9.897474708333334,32.42333333333334,81.62333333333333,2.6804947916666664,64.7714240045841
1361816448.75,9.882238375,32.4225,81.52499994965333,2.869479166666667,64.78145868742486
1361816449.0,9.866574958333333,32.420833333333334,81.42666666666666,2.6959375,64.79199950234687
1361816449.25,9.850591249999999,32.41916666666666,81.33666671274666,2.162890625,64.80117164876998
1361816449.5,9.834340625,32.4175,81.24666666666667,1.6344791666666667,64.8074069840786
1361816449.75,9.816884583333334,32.4175,81.15666662058666,1.1670572916666668,64.8074069840786
1361816450.0,9.800709708333333,32.41916666666666,81.06666666666666,1.0616666666666668,64.8074069840786
1361816450.25,9.786616791666667,32.42083333333333,80.97916671146666,1.5081770833333332,64.8074069840786
1361816450.5,9.772256958333333,32.4225,80.89166666666667,2.1473697916666667,64.81675969179429
1361816450.75,9.756615916666666,32.42333333333333,80.80416662186667,2.501484375,64.82832007016424
1361816451.0,9.740761333333333,32.42333333333333,80.71666666666667,2.534244791666667,64.83988044853419
1361816451.25,9.725066875000001,32.42333333333333,80.62250004821333,2.9574739583333334,64.85144082690415
1361816451.5,9.709052125000001,32.42333333333333,80.52833333333334,3.4585937500000004,64.8630012052741
1361816451.75,9.693624625,32.425000000000004,80.43416661845333,3.638229166666667,64.87456158364405
1361816452.0,9.678624208333334,32.428333333333335,80.33999999999999,3.950130208333334,64.88612196201402
1361816452.25,9.663196708333333,32.431666666666665,80.23333338794666,4.345963541666666,64.89768234038398
1361816452.5,9.64798275,32.434999999999995,80.12666666666667,4.812864583333334,64.90924271875393
1361816452.75,9.632928958333332,32.4375,80.01999994538667,5.278567708333334,64.92080309712388
1361816453.0,9.618088666666667,32.43916666666667,79.91333333333334,5.454713541666667,64.93236347549383
1361816453.25,9.603622041666666,32.44083333333334,79.82750004394667,5.500234375000001,64.94392385386381
1361816453.5,9.588675041666667,32.4425,79.74166666666667,5.557604166666667,64.94613152451807
1361816453.75,9.574368625,32.44416666666667,79.65583328938666,5.487604166666666,64.94613152451807
1361816454.0,9.560969708333333,32.44583333333333,79.57,5.502109375,64.94613152451807
1361816454.25,9.547464041666666,32.4475,79.507500032,5.542369791666668,64.94613152451807
1361816454.5,9.533798166666665,32.44916666666666,79.445,5.444453125,64.94613152451807
1361816454.75,9.520077583333334,32.450833333333335,79.38249996799999,5.305338541666667,64.94613152451807
1361816455.0,9.506729416666667,32.4525,79.32,5.1378125,64.94613152451807
1361816455.25,9.493488041666668,32.45416666666667,79.27833335466666,4.955312500000001,64.94613152451807
1361816455.5,9.480033125,32.45583333333334,79.23666666666666,4.723802083333333,64.94613152451807
1361816455.75,9.466578208333333,32.4575,79.19499997866667,4.477838541666666,64.94613152451807
1361816456.0,9.453230041666666,32.45916666666667,79.15333333333334,4.235755208333333,64.94613152451807
1361816456.25,9.440095375,32.46083333333333,79.10833335637334,4.054010416666666,64.94613152451807
1361816456.5,9.427654625,32.4625,79.06333333333333,3.8995052083333337,64.94613152451807
1361816456.75,9.414840208333333,32.464166666666664,79.01833331029333,3.780338541666667,64.94613152451807
1361816457.0,9.401064916666668,32.46583333333333,78.97333333333333,3.625911458333334,64.94613152451807
1361816457.25,9.387503166666667,32.4675,78.92750002346666,3.4711458333333334,64.94613152451807
1361816457.5,9.374368541666668,32.469166666666666,78.88166666666666,3.3865624999999997,64.94613152451807
1361816457.75,9.360701375,32.47083333333333,78.83583330986667,3.3116927083333327,64.94613152451807
1361816458.0,9.346555,32.472500000000004,78.79,3.24984375,64.946612606989
1361816458.25,9.333316125000001,32.47416666666667,78.75666668373334,3.2006770833333333,64.94853693687276
1361816458.5,9.320023874999999,32.475833333333334,78.72333333333333,3.131979166666666,64.95046126675652
1361816458.75,9.306998541666667,32.4775,78.68999998293333,3.083880208333333,64.95238559664028
1361816459.0,9.294880708333332,32.479166666666664,78.65666666666667,3.1189062499999998,64.95430992652403
1361816459.25,9.282282416666668,32.48083333333333,78.63916667562667,3.0803125,64.9562342564078
1361816459.5,9.26850975,32.4825,78.62166666666667,3.0600520833333333,64.95815858629153
1361816459.75,9.254950666666666,32.48416666666667,78.60416665770666,3.1122656249999996,64.9600829161753
1361816460.0,9.242245708333334,32.48583333333334,78.58666666666666,3.089296875,64.96200724605906
1361816460.25,9.22975425,32.487500000000004,78.58333333504,3.0952864583333333,64.9654530228311
1361816460.5,9.217262791666668,32.48916666666667,78.57999999999998,3.1565364583333335,64.97042024649143
1361816460.75,9.204557833333334,32.49,78.57666666495999,3.161875,64.97690891704006
1361816461.0,9.1917995,32.49,78.57333333333332,3.202890625,64.99052373955918
1361816461.25,9.178720833333335,32.49,78.57749999786665,3.2602083333333334,65.00269531466549
1361816461.5,9.165535375,32.49,78.58166666666665,3.252864583333334,65.0148668897718
1361816461.75,9.152403291666667,32.49,78.58583333546666,3.2816927083333334,65.02703846487809
1361816462.0,9.13927125,32.49,78.58999999999999,3.249765625,65.03921003998441
1361816462.25,9.125979083333332,32.49,78.59666666325333,3.1653645833333335,65.0513816150907
1361816462.5,9.113594416666666,32.49,78.60333333333332,3.1471875,65.06355319019703
1361816462.75,9.101957083333334,32.49,78.61000000341333,3.0772656250000003,65.07592471937262
1361816463.0,9.089892666666668,32.49,78.61666666666667,3.0540885416666668,65.08865616587295
1361816463.25,9.077614708333334,32.49,78.62499999573335,3.15625,65.09994614711272
1361816463.5,9.065336749999998,32.49,78.63333333333335,3.1248958333333334,65.10971468146418
1361816463.75,9.053379125,32.49,78.64166667093335,3.066796875,65.11796176892737
1361816464.0,9.042008708333332,32.49,78.65000000000002,3.092864583333333,65.11860162194911
1361816464.25,9.031011958333332,32.49,78.65833332906668,2.8990364583333332,65.11924147497086
1361816464.5,9.020709166666668,32.49,78.66666666666669,2.8375520833333336,65.1198813279926
1361816464.75,9.010513125000001,32.49041666666667,78.67500000426668,2.868385416666667,65.12052118101435
1361816465.0,8.999738041666667,32.49125,78.68333333333334,2.77546875,65.12116103403609
1361816465.25,8.989131291666668,32.49208333333333,78.69333332821334,2.9415625,65.12180088705783
1361816465.5,8.978417791666667,32.492916666666666,78.70333333333333,3.092161458333333,65.12244074007957
1361816465.75,8.967383958333334,32.493750000000006,78.71333333845332,3.0367968750000003,65.12288063903202
1361816466.0,8.956670375,32.49458333333334,78.72333333333333,3.117734375,65.12296062065974
1361816466.25,8.946490625000001,32.49541666666667,78.73333332821333,3.0448177083333334,65.12296062065974
1361816466.5,8.936631208333333,32.49625,78.74333333333334,2.8934635416666663,65.12296062065974
1361816466.75,8.927092083333333,32.498333333333335,78.75333333845333,2.9810416666666666,65.12296062065974
1361816467.0,8.917819833333335,32.501666666666665,78.76333333333334,2.91453125,65.12296062065974
1361816467.25,8.9088145,32.505,78.77166666240001,3.0360156249999997,65.12296062065974
1361816467.5,8.899382166666667,32.50833333333333,78.78,3.2236197916666662,65.12296062065974
1361816467.75,8.889309291666667,32.51125,78.7883333376,3.181796875,65.12296062065974
1361816468.0,8.879495125,32.513749999999995,78.79666666666667,3.2969010416666666,65.12296062065974
1361816468.25,8.870046416666666,32.51625,78.8008333312,3.319661458333334,65.12296062065974
1361816468.5,8.86081125,32.51875,78.805,3.185729166666667,65.12296062065974
1361816468.75,8.851896416666667,32.52125,78.8091666688,3.268489583333333,65.12296062065974
1361816469.0,8.842661333333334,32.52375,78.81333333333333,3.3109375,65.12296062065974
1361816469.25,8.832732291666666,32.52625,78.81333333333333,3.26609375,65.12296062065974
1361816469.5,8.822536249999999,32.528749999999995,78.81333333333333,3.4147916666666673,65.12296062065974
1361816469.75,8.812180041666666,32.53,78.81333333333332,3.4474479166666665,65.12296062065974
1361816470.0,8.801450208333334,32.53,78.81333333333332,3.402604166666667,65.12296062065974
1361816470.25,8.790346708333333,32.53,78.81166666751999,3.4897395833333333,65.12296062065974
1361816470.5,8.779723625,32.53,78.81,3.53359375,65.12260070333501
1361816470.75,8.770168166666666,32.53,78.80833333248,3.6044531250000005,65.12196085031327
1361816471.0,8.761360083333335,32.53,78.80666666666667,3.7516406250000003,65.12132099729153
1361816471.25,8.753299375,32.53,78.80666666666667,3.7999739583333327,65.1123945663269
1361816471.5,8.746039375,32.53,78.80666666666667,3.7671875,65.076805569125
1361816471.75,8.739206416666667,32.530833333333334,78.80666666666667,3.9244010416666666,65.03719233011788
1361816472.0,8.733547875000001,32.532500000000006,78.80666666666667,4.041171875,64.99568539333164
1361816472.25,8.730078,32.534166666666664,78.81249999701333,4.345651041666667,64.9499859092312
1361816472.5,8.727355500000002,32.535833333333336,78.81833333333333,4.541979166666667,64.90815646398214
1361816472.75,8.725326958333335,32.5375,78.82416666965334,4.5271614583333335,64.867092914178
1361816473.0,8.724526208333335,32.53916666666667,78.83,4.962994791666667,64.82594876744004
1361816473.25,8.724472833333335,32.54083333333333,78.84083332778667,5.297187500000001,64.78016583812531
1361816473.5,8.724526250000002,32.5425,78.85166666666666,5.166796875,64.74312271178165
1361816473.75,8.724387375000001,32.54416666666666,78.86250000554666,5.347942708333334,64.72914363573541
1361816474.0,8.723629166666667,32.545833333333334,78.87333333333333,5.277994791666667,64.70894804002366
1361816474.25,8.722870958333335,32.54749999999999,78.89249999018666,4.705052083333334,64.70778458937825
1361816474.5,8.72211275,32.549166666666665,78.91166666666666,5.04578125,64.74617130033486
1361816474.75,8.721354541666669,32.55,78.93083334314667,4.863984375,64.7908991088129
1361816475.0,8.720596333333335,32.55,78.95,4.433177083333333,64.83484151995393
1361816475.25,8.713218750000001,32.55,78.97583332010667,3.713203125,64.869932441264
1361816475.5,8.711766583333334,32.55,79.00166666666667,3.285416666666667,64.88609473034151
1361816475.75,8.710581333333334,32.55083333333333,79.02750001322667,2.912942708333333,64.87737648269238
1361816476.0,8.709396083333333,32.552499999999995,79.05333333333334,1.700859375,64.89612009770954
1361816476.25,8.708210833333334,32.55416666666667,79.0866666496,0.7480208333333334,64.92616380646842
1361816476.5,8.707239083333333,32.55583333333333,79.12,0.5464322916666666,64.96731310548778
1361816476.75,8.706886666666668,32.55833333333333,79.1533333504,-0.06119791666666669,64.96976129008826
1361816477.0,8.706192708333335,32.56166666666666,79.18666666666667,-0.48330729166666675,65.03027199770669
1361816477.25,8.701761958333334,32.565,79.22999997781334,-0.40187500000000004,65.06779246444742
1361816477.5,8.694875625,32.568333333333335,79.27333333333334,-1.0868229166666667,64.98723170652822
1361816477.75,8.687135166666666,32.571666666666665,79.31666668885333,-1.197734375,64.90182333170777
1361816478.0,8.67779325,32.574999999999996,79.36,-1.3743229166666666,64.86923618485032
1361816478.25,8.67437675,32.57833333333334,79.41416663893334,-2.1966666666666668,64.8410640177357
1361816478.5,8.662632625,32.58166666666667,79.46833333333333,-3.363958333333333,64.83181339778295
1361816478.75,8.648486291666666,32.58416666666667,79.52250002773333,-3.0799999999999996,64.90567822517961
1361816479.0,8.631670875,32.58583333333333,79.57666666666667,-2.415286458333333,64.95164355333726
1361816479.25,8.612613375,32.587500000000006,79.64083330048,-2.1858333333333335,64.92219523680434
1361816479.5,8.593555875,32.589166666666664,79.705,-2.4707291666666666,64.84606503090043
1361816479.75,8.574498375,32.590833333333336,79.76916669952,-3.750078125,64.79313597121494
1361816480.0,8.553839375,32.59250000000001,79.83333333333333,-4.878489583333334,64.68856722769844
1361816480.25,8.5347285,32.594166666666666,79.9041666304,-3.870703125,64.59207418736595
1361816480.5,8.517112291666667,32.59583333333334,79.975,-2.615494791666667,64.61100737054015
1361816480.75,8.499175791666667,32.597500000000004,80.0458333696,-1.8419531249999999,64.62846795339354
1361816481.0,8.480598708333334,32.59916666666667,80.11666666666667,-1.123828125,64.58346826111755
1361816481.25,8.459512666666667,32.600833333333334,80.19499995989334,0.6513020833333334,64.56487262002717
1361816481.5,8.438800291666666,32.6025,80.27333333333334,2.341979166666667,64.54083279058902
1361816481.75,8.41883525,32.604166666666664,80.35166670677333,2.320989583333333,64.44661688794291
1361816482.0,8.401539291666667,32.60583333333334,80.42999999999999,2.76421875,64.33597848765135
1361816482.25,8.386165125,32.607499999999995,80.51166662485332,3.0619791666666667,64.31293118209287
1361816482.5,8.370150375,32.60916666666667,80.59333333333333,3.438125,64.32327910101195
1361816482.75,8.352747708333334,32.61,80.67500004181333,5.3531249999999995,64.33501183516113
1361816483.0,8.336839791666666,32.61,80.75666666666666,7.066432291666666,64.34653824978888
1361816483.25,8.322052875,32.61,80.83666662570666,6.569739583333334,64.36223363498686
1361816483.5,8.30667875,32.61,80.91666666666666,5.832317708333332,64.36769642597336
1361816483.75,8.291464791666668,32.61083333333333,80.99666670762666,5.1015885416666675,64.3771625784657
1361816484.0,8.277532041666666,32.6125,81.07666666666665,4.7546875,64.39894687324052
1361816484.25,8.26520075,32.61416666666667,81.15249996117332,4.393802083333333,64.40295617423209
1361816484.5,8.25409725,32.615833333333335,81.22833333333332,4.336588541666667,64.40854670979071
1361816484.75,8.243474208333334,32.6175,81.30416670549333,4.633229166666666,64.42531251248964
1361816485.0,8.231836916666666,32.619166666666665,81.38,4.468984375,64.45901904634054
1361816485.25,8.219665791666666,32.62083333333334,81.46083329194666,4.806432291666667,64.47388681898398
1361816485.5,8.207120958333332,32.6225,81.54166666666666,5.244661458333333,64.48255578061404
1361816485.75,8.194629458333333,32.62416666666667,81.62250004138667,5.112864583333333,64.48255578061404
1361816486.0,8.182618416666667,32.62583333333333,81.70333333333333,5.078046875,64.48255578061404
1361816486.25,8.17114125,32.6275,81.79249995434667,5.163697916666667,64.47592012719444
1361816486.5,8.1601445,32.62916666666667,81.88166666666666,4.965755208333333,64.44830563992097
1361816486.75,8.149414666666667,32.63,81.97083337898667,5.042656249999999,64.41979832517137
1361816487.0,8.139218625,32.63,82.06,5.205234375,64.3906415917282
1361816487.25,8.129556375,32.63,82.16166661461334,4.966067708333333,64.3600630456576
1361816487.5,8.120588125,32.63,82.26333333333335,4.6078125000000005,64.3263565118067
1361816487.75,8.112527374999999,32.63,82.36500005205335,4.334401041666667,64.29264997795579
1361816488.0,8.105480875,32.63,82.46666666666668,4.109296875,64.26178706935971
1361816488.25,8.099288499999998,32.63,82.57499994453335,3.655338541666666,64.23263033591653
1361816488.5,8.094110416666668,32.63,82.68333333333334,3.1773958333333336,64.20347360247335
1361816488.75,8.090373666666666,32.630833333333335,82.79166672213333,2.9202083333333335,64.17232633135178
1361816489.0,8.088451874999999,32.6325,82.89999999999999,2.6833072916666665,64.13861979750088
1361816489.25,8.089679625,32.63416666666667,83.00583327914666,2.3734895833333334,64.11154891706957
1361816489.5,8.095444958333333,32.63583333333333,83.11166666666666,2.401432291666667,64.10545687049212
1361816489.75,8.106708666666666,32.637499999999996,83.21750005418667,2.3120052083333333,64.10025765139083
1361816490.0,8.12347075,32.63916666666667,83.32333333333334,2.0496093749999997,64.0957078509831
1361816490.25,8.140606541666665,32.64083333333333,83.41333328725334,1.9440885416666667,64.08529473296315
1361816490.5,8.157849083333334,32.642500000000005,83.50333333333333,1.556276041666667,64.04316958859553
1361816490.75,8.178454708333334,32.64416666666667,83.59333337941332,0.7657291666666669,63.969178900055134
1361816491.0,8.199807666666667,32.645833333333336,83.68333333333332,0.1944531250000001,63.88396792909048
1361816491.25,8.221160625000001,32.6475,83.75583329621332,-0.32479166666666665,63.78817127333085
1361816491.5,8.243367708333333,32.649166666666666,83.82833333333332,-1.1097395833333332,63.69543168789076
1361816491.75,8.265468041666667,32.65,83.90083337045333,-2.235130208333333,63.61616010448429
1361816492.0,8.286714250000001,32.65,83.97333333333333,-3.9448958333333333,63.554593308255704
1361816492.25,8.305344708333335,32.65,84.0316666368,-5.609062499999999,63.50346647342943
1361816492.5,8.320505291666668,32.65,84.09,-7.403776041666667,63.45918323082626
1361816492.75,8.330914833333335,32.649166666666666,84.1483333632,-9.182630208333332,63.435396143137304
1361816493.0,8.336573333333336,32.6475,84.20666666666666,-10.629765625,63.422982905342316
1361816493.25,8.343726541666667,32.645833333333336,84.24416664746667,-11.255963541666667,63.42319078266589
1361816493.5,8.352641333333334,32.64416666666667,84.28166666666667,-11.46734375,63.46844203599193
1361816493.75,8.359634375,32.6425,84.31916668586666,-10.47140625,63.54763208160534
1361816494.0,8.370310791666666,32.64083333333333,84.35666666666667,-9.430625000000001,63.632354698029765
1361816494.25,8.386539,32.63916666666666,84.37416665770667,-9.395989583333334,63.7281513537894
1361816494.5,8.406076916666667,32.6375,84.39166666666668,-9.297265625,63.82154047616402
1361816494.75,8.425614833333334,32.63666666666667,84.40916667562668,-8.785572916666666,63.9047912600395
1361816495.0,8.444779083333334,32.63666666666666,84.42666666666668,-7.2771875,63.98035966535719
1361816495.25,8.463943333333333,32.63666666666667,84.42749999957334,-5.926875,64.04868881302913
1361816495.5,8.483107583333334,32.63666666666666,84.42833333333334,-4.760859375,64.1124440047032
1361816495.75,8.502271833333333,32.637499999999996,84.42916666709334,-3.008463541666666,64.16435454010748
1361816496.0,8.521009,32.63916666666667,84.43,-1.6573697916666665,64.21370418901505
1361816496.25,8.536276333333333,32.64083333333333,84.43,-1.506380208333333,64.2577178530437
1361816496.5,8.547967083333333,32.642500000000005,84.43,-0.8887239583333332,64.29152815519787
1361816496.75,8.557415749999999,32.64416666666667,84.43,-1.0769010416666667,64.32326520923743
1361816497.0,8.561579624999998,32.645833333333336,84.43,-1.8753385416666666,64.35784634963541
1361816497.25,8.559177458333332,32.6475,84.43166666581334,-1.306328125,64.39023296034027
1361816497.5,8.552291125,32.649166666666666,84.43333333333334,-0.25281249999999994,64.4219700341106
1361816497.75,8.544817583333332,32.65,84.43500000085334,0.6642708333333334,64.45236798202482
1361816498.0,8.536276416666666,32.65,84.43666666666667,1.0020572916666668,64.4753027840483
1361816498.25,8.52704125,32.65,84.4408333312,1.5048177083333334,64.49503688231522
1361816498.5,8.516898583333333,32.65,84.445,2.2460416666666667,64.51250134435689
1361816498.75,8.505421375,32.649166666666666,84.4491666688,2.3992708333333335,64.52131430775415
1361816499.0,8.493410375,32.6475,84.45333333333333,2.6440885416666666,64.49797110883736
1361816499.25,8.482627166666665,32.645833333333336,84.46333332821334,3.300651041666667,64.4369210611302
1361816499.5,8.472804875,32.64416666666667,84.47333333333333,3.3739062499999997,64.37587101342305
1361816499.75,8.463569833333333,32.6425,84.48333333845332,3.325130208333334,64.31482096571588
1361816500.0,8.454388083333333,32.64083333333333,84.49333333333333,3.7063802083333335,64.25377091800873
1361816500.25,8.445313083333334,32.63916666666666,84.50416666112,3.7811458333333334,64.19272087030157
1361816500.5,8.436344916666666,32.6375,84.515,3.502239583333333,64.13167082259442
1361816500.75,8.427430124999999,32.63666666666667,84.52583333888,3.285520833333333,64.06142669548554
1361816501.0,8.4191025,32.63666666666666,84.53666666666668,3.232786458333333,63.990569629749906
1361816501.25,8.411148541666668,32.63666666666667,84.54499999573333,3.070651041666667,63.919712564014254
1361816501.5,8.403728416666667,32.63666666666666,84.55333333333334,3.0183854166666664,63.84885549827862
1361816501.75,8.397322583333333,32.637499999999996,84.56166667093333,3.055260416666666,63.77799843254297
1361816502.0,8.391343833333332,32.63916666666667,84.57,2.9854427083333337,63.73048456572412
1361816502.25,8.386005625000001,32.64083333333333,84.57,3.08984375,63.72067754769563
1361816502.5,8.381094416666667,32.642500000000005,84.57,3.168645833333333,63.71087052966714
1361816502.75,8.376023041666667,32.64333333333334,84.57,3.1786718749999996,63.701063511638665
1361816503.0,8.371752458333333,32.64333333333334,84.57,3.403932291666667,63.691256493610176
1361816503.25,8.368389375,32.64333333333334,84.56750000128,3.4847656249999996,63.68144947558168
1361816503.5,8.365186416666667,32.64333333333333,84.565,3.514791666666667,63.67164245755321
1361816503.75,8.362463875000001,32.6425,84.56249999872,3.746979166666667,63.671029518926424
1361816504.0,8.360168374999999,32.64083333333333,84.56,3.9573177083333335,63.671029518926424
1361816504.25,8.358193208333333,32.63916666666666,84.55583333546667,4.395130208333334,63.67274659225433
1361816504.5,8.356431583333332,32.6375,84.55166666666668,4.689322916666666,63.680348358798256
1361816504.75,8.353015083333334,32.63583333333334,84.54749999786667,4.7615625,63.6883169203881
1361816505.0,8.347890291666667,32.634166666666665,84.54333333333334,5.151927083333333,63.697020766740685
1361816505.25,8.341591083333332,32.6325,84.54166666752,5.540755208333333,63.69795672229096
1361816505.5,8.332195749999999,32.630833333333335,84.53999999999999,6.117838541666665,63.69631644020824
1361816505.75,8.320131333333334,32.63,84.53833333248,6.895572916666666,63.68935607810271
1361816506.0,8.304757208333333,32.63,84.53666666666666,7.109817708333334,63.67821949873386
1361816506.25,8.285913208333334,32.63,84.53500000085333,6.965755208333333,63.66708291936502
1361816506.5,8.265307583333334,32.63,84.53333333333333,7.113489583333333,63.65594633999618
1361816506.75,8.244755375000002,32.63,84.53166666581333,7.096067708333333,63.64480976062733
1361816507.0,8.224256583333334,32.63,84.53,6.6609375,63.633673181258494
1361816507.25,8.202476625000001,32.63,84.53583333034666,6.238124999999999,63.620819528561746
1361816507.5,8.180162791666667,32.63,84.54166666666666,6.356927083333333,63.602081182648966
1361816507.75,8.158062458333333,32.63,84.54750000298667,6.602838541666666,63.58297604169028
1361816508.0,8.135641875,32.63,84.55333333333333,6.911953125,63.56313561596884
1361816508.25,8.112473958333334,32.63,84.56333332821333,6.770494791666668,63.55106308104973
1361816508.5,8.091601458333335,32.63,84.57333333333332,6.155286458333333,63.541566783763614
1361816508.75,8.072490541666665,32.63,84.58333333845333,5.717942708333333,63.53739056650029
1361816509.0,8.055087875,32.63,84.59333333333333,5.659375000000001,63.53739056650029
1361816509.25,8.039660374999999,32.63,84.60916665856,6.066171875000001,63.53739056650029
1361816509.5,8.024392999999998,32.63,84.625,6.358333333333333,63.53739056650029
1361816509.75,8.008365999999999,32.63,84.64083334144,6.440703125,63.53739056650029
1361816510.0,7.990885416666667,32.63,84.65666666666667,6.858125,63.53739056650029
1361816510.25,7.972604125,32.63,84.6733333248,7.03234375,63.53739056650029
1361816510.5,7.9536822916666665,32.63,84.69,6.58625,63.53739056650029
1361816510.75,7.934813833333333,32.630833333333335,84.70666667520001,6.270911458333334,63.53739056650029
1361816511.0,7.917653583333334,32.6325,84.72333333333334,5.552526041666667,63.53739056650029
1361816511.25,7.902521875000001,32.63416666666667,84.74249999018667,5.064401041666667,63.53739056650029
1361816511.5,7.888617958333334,32.63583333333333,84.76166666666667,4.980234375,63.53739056650029
1361816511.75,7.875995208333333,32.637499999999996,84.78083334314667,4.504583333333334,63.53739056650029
1361816512.0,7.864973916666666,32.63916666666667,84.8,4.011666666666667,63.53739056650029
1361816512.25,7.855447333333333,32.64083333333333,84.81916665685333,3.531796875,63.53739056650029
1361816512.5,7.8496575,32.642500000000005,84.83833333333334,2.8611718749999997,63.52925861374171
1361816512.75,7.8461753750000005,32.64333333333334,84.85750000981334,2.422734375,63.50757340638547
1361816513.0,7.844146833333333,32.64333333333334,84.87666666666667,2.0084375,63.48588819902924
1361816513.25,7.844200166666667,32.64333333333334,84.89583332352,1.711953125,63.464202991673005
1361816513.5,7.845588041666667,32.64333333333333,84.91499999999999,1.6984635416666665,63.44251778431677
1361816513.75,7.848684166666668,32.6425,84.93416667648,1.5086979166666667,63.42083257696054
1361816514.0,7.8523141249999995,32.64083333333333,84.95333333333333,1.4667708333333334,63.399147369604314
1361816514.25,7.855463666666666,32.63916666666666,84.97749998762667,1.5804947916666665,63.37746216224807
1361816514.5,7.85722525,32.6375,85.00166666666667,1.506484375,63.355776954891844
1361816514.75,7.85743875,32.63583333333334,85.02583334570667,1.6066666666666667,63.33409174753561
1361816515.0,7.856157541666668,32.634166666666665,85.05000000000001,1.7387499999999998,63.31240654017938
1361816515.25,7.853648541666666,32.6325,85.08583331498667,1.7915625000000002,63.290721332823146
1361816515.5,7.848310333333334,32.630833333333335,85.12166666666667,1.9769531249999999,63.2771680782255
1361816515.75,7.840783458333334,32.63,85.15750001834667,2.0559895833333335,63.2771680782255
1361816516.0,7.832028791666667,32.63,85.19333333333333,2.1582812500000004,63.2771680782255
1361816516.25,7.822153083333333,32.63,85.24249997482666,2.2508854166666663,63.2771680782255
1361816516.5,7.811796916666666,32.63,85.29166666666666,2.1263020833333335,63.2771680782255
1361816516.75,7.800960333333333,32.63,85.34083335850667,2.1858333333333335,63.2771680782255
1361816517.0,7.788896,32.63,85.39,2.2716927083333336,63.2771680782255
1361816517.25,7.776137625,32.63,85.44499997184,2.179296875,63.2771680782255
1361816517.5,7.764233333333333,32.63,85.5,2.2499479166666667,63.2771680782255
1361816517.75,7.753610208333334,32.63,85.55500002816,2.2936979166666664,63.2771680782255
1361816518.0,7.744428458333332,32.63,85.61,2.167682291666667,63.2771680782255
1361816518.25,7.736421166666666,32.63,85.65583330986667,2.1173177083333337,63.2771680782255
1361816518.5,7.729001041666667,32.63,85.70166666666667,2.1060677083333332,63.2771680782255
1361816518.75,7.722061333333333,32.63,85.74750002346667,2.0652604166666664,63.2771680782255
1361816519.0,7.7162426250000005,32.63,85.79333333333334,2.013359375,63.2771680782255
1361816519.25,7.711384833333333,32.63,85.82333331797334,1.991666666666667,63.2771680782255
1361816519.5,7.70690075,32.63,85.85333333333334,2.047916666666667,63.2771680782255
1361816519.75,7.702630125,32.63,85.88333334869334,2.0167968750000003,63.2771680782255
1361816520.0,7.6993203333333335,32.63,85.91333333333334,1.9699479166666667,63.2771680782255
1361816520.25,7.697185,32.63,85.92583332693334,2.055494791666667,63.2771680782255
1361816520.5,7.695583541666667,32.63,85.93833333333333,2.0802604166666665,63.2771680782255
1361816520.75,7.693982083333334,32.63,85.95083333973332,2.1077083333333335,63.2771680782255
1361816521.0,7.692167083333334,32.63,85.96333333333332,2.24953125,63.2771680782255
1361816521.25,7.690191916666667,32.63,85.96749999786667,2.3590104166666666,63.2771680782255
1361816521.5,7.687949833333334,32.63,85.97166666666666,2.5301562499999997,63.2771680782255
1361816521.75,7.685921291666666,32.63,85.97583333546666,2.66453125,63.2771680782255
1361816522.0,7.684373249999999,32.63,85.98,2.721979166666667,63.2771680782255
1361816522.25,7.683198833333333,32.63,85.97916666709334,2.9482031250000005,63.2771680782255
1361816522.5,7.682451416666666,32.63,85.97833333333334,3.1609374999999997,63.2771680782255
1361816522.75,7.681970958333333,32.63,85.97749999957334,3.2179687500000003,63.2771680782255
1361816523.0,7.682237874999999,32.63,85.97666666666667,3.3593489583333334,63.2771680782255
1361816523.25,7.684373208333334,32.63,85.97166666922666,3.5053385416666667,63.2771680782255
1361816523.5,7.693234749999999,32.63,85.96666666666667,3.4835677083333327,63.2771680782255
1361816523.75,7.713893791666666,32.62916666666667,85.96166666410667,3.485,63.2771680782255
1361816524.0,7.746617166666667,32.627500000000005,85.95666666666666,3.592630208333333,63.27823723897277
1361816524.25,7.787668125000001,32.62583333333334,85.94416667306666,3.5502083333333334,63.27823723897277
1361816524.5,7.833203291666666,32.62416666666667,85.93166666666666,3.2815104166666664,63.28304846233548
1361816524.75,7.879325708333333,32.6225,85.91916666026665,3.234244791666667,63.297551558614764
1361816525.0,7.926996166666668,32.62083333333334,85.90666666666665,3.304010416666667,63.325050054949905
1361816525.25,7.9764282500000006,32.61916666666667,85.88250001237333,3.063177083333333,63.36277655670179
1361816525.5,8.026554375,32.6175,85.85833333333332,2.6865104166666662,63.40471085428337
1361816525.75,8.077534583333334,32.615833333333335,85.83416665429333,2.7633593750000003,63.457737850584344
1361816526.0,8.128354583333333,32.61416666666667,85.81,2.5327864583333333,63.514391882198076
1361816526.25,8.177733250000001,32.612500000000004,85.77666668373334,2.046979166666667,63.57137167332841
1361816526.5,8.225563833333334,32.61083333333333,85.74333333333334,1.8781770833333333,63.628351464458746
1361816526.75,8.276663041666668,32.61083333333333,85.70999998293333,1.789296875,63.68533125558909
1361816527.0,8.332739125000002,32.612500000000004,85.67666666666666,1.6017968749999998,63.74124188597215
1361816527.25,8.393726416666667,32.61416666666667,85.63250002261333,1.5702604166666665,63.80017460918333
1361816527.5,8.461098208333334,32.615833333333335,85.58833333333334,1.7440104166666668,63.85344174312531
1361816527.75,8.533253125,32.6175,85.54416664405333,1.7612500000000002,63.897138769253594
1361816528.0,8.605461458333332,32.619166666666665,85.5,1.5195312499999998,63.92845056096462
1361816528.25,8.677189333333333,32.62083333333333,85.44916669269334,1.5189062499999997,63.95258517545198
1361816528.5,8.748276583333334,32.6225,85.39833333333334,1.6492968749999999,63.973122159748236
1361816528.75,8.819203708333333,32.62416666666667,85.34749997397333,1.2877604166666667,63.98378677660235
1361816529.0,8.890291,32.62583333333333,85.29666666666667,1.263203125,63.99387518633676
1361816529.25,8.966449625000001,32.627500000000005,85.23666669738667,1.5450520833333332,64.00363783655456
1361816529.5,9.049281041666665,32.62916666666667,85.17666666666666,1.5728385416666668,64.01340048677237
1361816529.75,9.129743166666666,32.62916666666667,85.11666663594666,1.4714322916666667,64.02316313699016
1361816530.0,9.197960291666666,32.627500000000005,85.05666666666666,1.3560937499999997,64.03292578720797
1361816530.25,9.253152125,32.62583333333333,84.99250003285333,1.254296875,64.04073550534493
1361816530.5,9.297902333333333,32.62416666666667,84.92833333333333,1.0465625,64.04939958938839
1361816530.75,9.337228791666666,32.6225,84.86416663381333,0.8495572916666667,64.05794190832896
1361816531.0,9.374580083333333,32.62083333333334,84.8,0.9793489583333334,64.06587406163092
1361816531.25,9.410436708333334,32.619166666666665,84.73166670165332,0.9228385416666667,64.07075538673982
1361816531.5,9.442343083333332,32.6175,84.66333333333333,0.8754427083333334,64.07502654621011
1361816531.75,9.469018,32.615833333333335,84.59499996501333,1.1976041666666666,64.07807737440318
1361816532.0,9.493397458333334,32.61416666666667,84.52666666666666,1.4778124999999998,64.06965588115203
1361816532.25,9.5122785,32.6125,84.45750003541333,1.4874739583333332,64.05296570970413
1361816532.5,9.519308625,32.61083333333333,84.38833333333332,1.5706770833333332,64.02901533252187
1361816532.75,9.513748666666666,32.61,84.31916663125332,1.595703125,64.00146920787
1361816533.0,9.502218083333334,32.61,84.25,1.2153645833333333,63.96386532730789
1361816533.25,9.489513083333334,32.61,84.18083336874668,0.6297395833333334,63.913061781425434
1361816533.5,9.475206625,32.61,84.11166666666668,0.29205729166666666,63.85277668679655
1361816533.75,9.460312916666668,32.61,84.04249996458667,0.05468750000000001,63.786195121951586
1361816534.0,9.445419208333334,32.61,83.97333333333334,-0.3992708333333333,63.71907803671368
1361816534.25,9.4305255,32.61,83.90083337045334,-0.8069010416666665,63.65051990894687
1361816534.5,9.419208375000002,32.61,83.82833333333335,-0.9069531249999999,63.58895929043902
1361816534.75,9.407357416666668,32.61,83.75583329621334,-1.3394531250000001,63.528797529724464
1361816535.0,9.391556208333334,32.61,83.68333333333334,-1.9165104166666664,63.479357919339314
1361816535.25,9.370950583333334,32.61,83.60833337173334,-2.151953125,63.441144974822926
1361816535.5,9.346287916666668,32.61,83.53333333333333,-2.2797135416666667,63.4101922360409
1361816535.75,9.318742625,32.61,83.45833329493333,-2.07234375,63.38283524472846
1361816536.0,9.290770208333335,32.61,83.38333333333333,-1.2441145833333334,63.36553600932629
1361816536.25,9.262157208333335,32.61,83.3041667072,-0.24929687499999995,63.36143643924445
1361816536.5,9.233330666666667,32.61,83.225,0.5181510416666667,63.36681841790905
1361816536.75,9.204183875,32.61,83.14583329279999,1.1562760416666666,63.378496866789725
1361816537.0,9.173969458333334,32.61,83.06666666666666,1.8689583333333333,63.39071083606334
1361816537.25,9.142473875,32.61,82.98750004053333,2.5813020833333336,63.404365847865876
1361816537.5,9.110444458333333,32.61,82.90833333333333,2.9922395833333333,63.41102335040943
1361816537.75,9.083486375,32.61,82.82916662613333,3.560703125,63.41628199515969
1361816538.0,9.062293583333334,32.61,82.75,4.082005208333333,63.419239982831705
1361816538.25,9.045905208333334,32.61,82.67083337386667,4.430494791666667,63.419239982831705
1361816538.5,9.033573875,32.61,82.59166666666667,4.8156510416666665,63.419239982831705
1361816538.75,9.024285333333333,32.61,82.51249995946667,4.801197916666666,63.419239982831705
1361816539.0,9.017025333333335,32.61,82.43333333333334,4.55390625,63.419239982831705
1361816539.25,9.013875791666665,32.61,82.35583337301334,4.369817708333334,63.419239982831705
1361816539.5,9.016598333333333,32.61,82.27833333333334,4.089973958333333,63.419239982831705
1361816539.75,9.023484708333333,32.61,82.20083329365333,3.827369791666667,63.419239982831705
1361816540.0,9.031545458333333,32.61,82.12333333333333,3.650286458333333,63.419239982831705
1361816540.25,9.040887375,32.61,82.04583337301334,3.4467447916666667,63.419239982831705
1361816540.5,9.050763125,32.61,81.96833333333333,3.215442708333333,63.419239982831705
1361816540.75,9.060638875,32.61,81.89083329365333,3.0277864583333334,63.419239982831705
1361816541.0,9.070514625,32.61,81.81333333333333,2.9397656249999997,63.419239982831705
1361816541.25,9.080390375,32.61,81.73500004010667,2.7835677083333334,63.419239982831705
1361816541.5,9.088024083333332,32.61,81.65666666666667,2.5111197916666668,63.419239982831705
1361816541.75,9.09432325,32.61,81.57833329322666,2.3843489583333333,63.419239982831705
1361816542.0,9.099608166666668,32.61,81.5,2.1790624999999997,63.419239982831705
1361816542.25,9.10185025,32.61,81.42083337386667,1.957447916666667,63.419239982831705
1361816542.5,9.099608208333333,32.61,81.34166666666667,1.9215364583333334,63.419239982831705
1361816542.75,9.093309125,32.61,81.26249995946667,1.7909895833333331,63.419239982831705
1361816543.0,9.086049125,32.61,81.18333333333334,1.6698437499999998,63.419239982831705
1361816543.25,9.078789125,32.61,81.10583337301334,1.6533854166666666,63.419239982831705
1361816543.5,9.071529125,32.61,81.02833333333334,1.575755208333333,63.419239982831705
1361816543.75,9.064269125,32.61,80.95083329365333,1.5008854166666667,63.419239982831705
1361816544.0,9.057009125,32.61,80.87333333333333,1.489375,63.419239982831705
1361816544.25,9.049749125,32.61,80.79583337301334,1.4852083333333332,63.419239982831705
1361816544.5,9.04537175,32.61,80.71833333333333,1.49,63.419239982831705
1361816544.75,9.04467775,32.60916666666667,80.64083329365333,1.5243489583333334,63.419239982831705
1361816545.0,9.046385958333333,32.6075,80.56333333333333,1.6660677083333333,63.419239982831705
1361816545.25,9.049909166666666,32.60583333333334,80.47833337685333,1.746692708333333,63.419239982831705
1361816545.5,9.05813,32.604166666666664,80.39333333333335,1.7024479166666666,63.419239982831705
1361816545.75,9.076226541666665,32.6025,80.30833328981335,1.750078125,63.419239982831705
1361816546.0,9.106814583333334,32.600833333333334,80.22333333333334,1.7173958333333335,63.419239982831705
1361816546.25,9.147865625,32.59916666666667,80.12833338197335,1.6269270833333334,63.419239982831705
1361816546.5,9.191852708333334,32.597500000000004,80.03333333333335,1.6224739583333332,63.419239982831705
1361816546.75,9.235839791666667,32.59583333333334,79.93833328469334,1.5691666666666666,63.419239982831705
1361816547.0,9.279826875,32.59416666666667,79.84333333333335,1.4729947916666666,63.419239982831705
1361816547.25,9.323813958333334,32.59250000000001,79.73666672128002,1.4763802083333335,63.419239982831705
1361816547.5,9.367160458333334,32.590833333333336,79.63000000000001,1.4335416666666667,63.419239982831705
1361816547.75,9.408158125,32.59,79.52333327872,1.3307291666666667,63.419239982831705
1361816548.0,9.443870916666667,32.59,79.41666666666667,1.3328645833333332,63.419239982831705
1361816548.25,9.47595375,32.59,79.30583339008,1.2609895833333333,63.419239982831705
1361816548.5,9.503766,32.59,79.195,1.2447916666666667,63.419239982831705
1361816548.75,9.522503250000002,32.59,79.08416660992,1.3894270833333335,63.419239982831705
1361816549.0,9.529603166666668,32.59,78.97333333333333,1.4590364583333333,63.419239982831705
1361816549.25,9.526240083333334,32.59,78.86416672256,1.49390625,63.419239982831705
1361816549.5,9.519940958333335,32.59,78.755,1.658359375,63.419239982831705
1361816549.75,9.513161375000001,32.59,78.64583327744,1.7569010416666668,63.419239982831705
1361816550.0,9.506381791666668,32.59,78.53666666666668,1.794296875,63.422194296893274
1361816550.25,9.499602208333334,32.59,78.44750004565334,1.8346614583333334,63.430072467724095
1361816550.5,9.492822625,32.59,78.35833333333333,1.8969531250000002,63.43795063855492
1361816550.75,9.485989666666667,32.59,78.26916662101333,1.9741666666666668,63.44533642370883
1361816551.0,9.482573208333333,32.59,78.17999999999999,1.8519010416666666,63.451245051831954
1361816551.25,9.482466458333333,32.59,78.11000003584,1.9270572916666666,63.453214594539666
1361816551.5,9.482359708333334,32.59,78.03999999999999,2.004166666666667,63.45321459453965
1361816551.75,9.482252958333333,32.59,77.96999996416,1.8315104166666665,63.453214594539666
1361816552.0,9.482146208333333,32.59,77.9,1.8428645833333335,63.453214594539666
1361816552.25,9.482039458333334,32.59,77.84666669397333,1.884765625,63.44646305775961
1361816552.5,9.482092833333333,32.59,77.79333333333334,1.74,63.41945691063942
1361816552.75,9.485669458333332,32.59,77.73999997269334,1.7000520833333332,63.39245076351923
1361816553.0,9.492876083333334,32.59,77.68666666666667,1.7315625000000001,63.36249030233748
1361816553.25,9.501257083333334,32.59,77.65166668458667,1.6636979166666668,63.32760598438646
1361816553.5,9.509638083333334,32.59,77.61666666666667,1.6402864583333334,63.29272166643545
1361816553.75,9.518072458333334,32.59,77.58166664874666,1.6967187499999998,63.25832973416135
1361816554.0,9.526827125,32.59,77.54666666666667,1.7580989583333333,63.22541495891804
1361816554.25,9.534834416666667,32.59,77.53166667434667,1.65515625,63.19643926909014
1361816554.5,9.542841708333333,32.59,77.51666666666667,1.6608854166666667,63.16943312196995
1361816554.75,9.549674625,32.589166666666664,77.50166665898666,1.7131510416666667,63.14242697484976
1361816555.0,9.555279791666667,32.587500000000006,77.48666666666666,1.5129687499999998,63.115420827729565
1361816555.25,9.559443625,32.58583333333333,77.49416666282667,1.462265625,63.10768360176411
1361816555.5,9.561845875,32.58416666666667,77.50166666666667,1.5239843750000002,63.13333396733859
1361816555.75,9.560137708333334,32.583333333333336,77.50916667050666,1.4029166666666668,63.16514030116409
1361816556.0,9.554799541666666,32.583333333333336,77.51666666666667,1.4138541666666666,63.19817782863981
1361816556.25,9.548287,32.583333333333336,77.52499999573334,1.486015625,63.23244654976572
1361816556.5,9.541774458333334,32.583333333333336,77.53333333333333,1.3737760416666667,63.26733086771673
1361816556.75,9.535261916666668,32.583333333333336,77.54166667093332,1.2763802083333333,63.30270711345313
1361816557.0,9.528749375,32.583333333333336,77.55,1.3100520833333333,63.3379603772432
1361816557.25,9.522557083333334,32.583333333333336,77.55666666325334,1.3503125,63.37370556881865
1361816557.5,9.517272291666666,32.583333333333336,77.56333333333333,1.2691666666666666,63.41771829674866
1361816557.75,9.513375458333334,32.58416666666667,77.57000000341333,1.2666666666666668,63.476167081211734
1361816558.0,9.510813083333334,32.58583333333334,77.57666666666667,1.5748958333333336,63.5346158656748
1361816558.25,9.509852166666667,32.5875,77.57666666666667,1.6832291666666668,63.58054726576321
1361816558.5,9.5105995,32.58916666666667,77.57666666666667,1.6004947916666667,63.6133456846518
1361816558.75,9.512467833333334,32.59,77.57666666666667,1.8387239583333335,63.63998813528938
1361816559.0,9.514336166666668,32.59,77.57666666666667,1.8889322916666667,63.66539939227673
1361816559.25,9.516311250000001,32.59,77.57166666922666,1.8450520833333333,63.68957945561389
1361816559.5,9.518286333333334,32.59,77.56666666666666,2.115390625,63.71314392212596
1361816559.75,9.520261416666667,32.59,77.56166666410667,2.2740104166666666,63.736216460852624
1361816560.0,9.5222365,32.59,77.55666666666666,2.34484375,63.75941198152563
1361816560.25,9.523891333333333,32.59,77.55166666922666,2.5327604166666666,63.7633201905743
1361816560.5,9.524638666666668,32.59,77.54666666666665,2.7424999999999997,63.74434223139366
1361816560.75,9.525012291666668,32.59,77.54166666410666,2.9232291666666668,63.71092821567996
1361816561.0,9.524958916666668,32.59,77.53666666666666,2.80015625,63.677514199966254
1361816561.25,9.524211583333335,32.59,77.53083333632,2.8238541666666666,63.644100184252544
1361816561.5,9.523090541666667,32.59,77.525,3.1010416666666667,63.61068616853884
1361816561.75,9.521756,32.59,77.51916666368,2.9956250000000004,63.577272152825124
1361816562.0,9.520207916666667,32.59,77.51333333333334,2.8265885416666667,63.54385813711142
1361816562.25,9.518339541666668,32.59,77.50750000298666,2.95765625,63.51044412139772
1361816562.5,9.516257625,32.59,77.50166666666667,2.827421875,63.49202120231299
1361816562.75,9.514068916666668,32.58916666666667,77.49583333034667,2.5472395833333334,63.49202120231299
1361816563.0,9.511613291666668,32.5875,77.49,2.46046875,63.48973332067584
1361816563.25,9.5085705,32.58583333333333,77.47750000639999,2.345078125,63.50395294124047
1361816563.5,9.505100666666667,32.58416666666667,77.465,2.039322916666667,63.536794986544884
1361816563.75,9.501257083333334,32.5825,77.4524999936,1.8018489583333333,63.57020900225859
1361816564.0,9.497733791666667,32.58083333333333,77.44,1.8732291666666667,63.603623017972296
1361816564.25,9.494744333333333,32.57916666666667,77.4275000064,1.6950781250000002,63.628983849189005
1361816564.5,9.492021791666668,32.5775,77.41499999999999,1.318828125,63.63710821567495
1361816564.75,9.489459375000001,32.575833333333335,77.4024999936,1.370390625,63.63710821567495
1361816565.0,9.487163916666667,32.57416666666667,77.39,1.5609895833333332,63.63710821567495
1361816565.25,9.48540225,32.5725,77.38166667093333,1.3566927083333333,63.63710821567495
1361816565.5,9.488071375,32.57083333333333,77.37333333333333,1.3265364583333332,63.629381528714816
1361816565.75,9.497840416666667,32.57,77.36499999573334,1.5484114583333335,63.60581706220276
1361816566.0,9.513695041666667,32.57,77.35666666666667,1.49296875,63.58454047732786
1361816566.25,9.531791666666667,32.57,77.35916666538667,1.3474479166666666,63.565551774090125
1361816566.5,9.550315333333332,32.57,77.36166666666668,1.4686979166666667,63.546164639266216
1361816566.75,9.569372875000001,32.57,77.36416666794668,1.5166927083333333,63.53627681575549
1361816567.0,9.588430416666666,32.57,77.36666666666667,1.3970572916666668,63.52826923002544
1361816567.25,9.607487958333333,32.57,77.3708333312,1.4425260416666668,63.53575044411314
1361816567.5,9.6265455,32.57,77.375,1.5887239583333332,63.5610400933409
1361816567.75,9.643894833333334,32.57083333333333,77.3791666688,1.4931510416666667,63.5944541090546
1361816568.0,9.659269,32.5725,77.38333333333333,1.3096614583333335,63.62786812476832
1361816568.25,9.6724545,32.57416666666666,77.38333333333333,1.3886979166666666,63.65752147968786
1361816568.5,9.679340833333333,32.575833333333335,77.38333333333333,1.3568489583333336,63.678108807443124
1361816568.75,9.678113041666668,32.5775,77.38333333333334,1.2215885416666667,63.70167327395519
1361816569.0,9.670212458333333,32.57916666666667,77.38333333333334,1.3113802083333332,63.72253814604593
1361816569.25,9.660229958333334,32.58083333333333,77.37500000426667,1.51484375,63.74610261255798
1361816569.5,9.650247458333334,32.5825,77.36666666666667,1.5269791666666668,63.74752105461672
1361816569.75,9.640264958333333,32.58416666666667,77.35833332906667,1.6589843750000002,63.72990349258532
1361816570.0,9.630282458333333,32.58583333333333,77.35,1.8022135416666665,63.707451377687484
1361816570.25,9.620299958333334,32.5875,77.33750000639999,1.9188802083333334,63.67460933238308
1361816570.5,9.610317458333332,32.58916666666667,77.32499999999999,1.9613802083333336,63.64414963175516
1361816570.75,9.605352875,32.58916666666667,77.3124999936,2.053046875,63.61073561604146
1361816571.0,9.610584291666667,32.5875,77.3,2.2826302083333334,63.58458002771001
1361816571.25,9.627933541666666,32.58583333333333,77.2875000064,2.297057291666667,63.5842912968722
1361816571.5,9.654411166666668,32.58416666666667,77.275,2.413880208333333,63.589853575161804
1361816571.75,9.686868875,32.5825,77.2624999936,2.8305989583333333,63.58985357516179
1361816572.0,9.723171458333333,32.58083333333334,77.25,3.108828125,63.592553169583105
1361816572.25,9.76166275,32.57916666666667,77.23166667605334,3.079375,63.59255316958311
1361816572.5,9.801808875,32.5775,77.21333333333334,3.1286979166666664,63.60986901104215
1361816572.75,9.842809125,32.57666666666667,77.19499999061333,2.8049479166666664,63.63443428207727
1361816573.0,9.885090541666665,32.57666666666667,77.17666666666666,2.314322916666667,63.65893092869961
