2013-02-25 19:22:42
64.0
-0.0
-0.0
-0.0
-0.0
-0.0
-0.0
-0.0
-0.0
-0.0
-0.0
0.0
0.01
0.01
-0.0
-0.03
-0.05
-0.05
0.0
0.13
0.36
0.66
1.01
1.37
1.72
2.06
2.4
2.79
3.24
3.8
4.42
5.06
5.66
6.2
6.68
7.15
7.68
8.31
9.14
10.09
11.04
11.88
12.56
13.14
13.76
14.65
15.96
17.91
20.32
22.9
25.38
27.58
29.57
31.68
34.32
37.81
42.54
48.15
54.1
59.83
64.97
69.58
74.14
79.34
85.71
93.76
103.0
112.62
121.73
129.77
136.75
143.3
150.75
157.77
166.64
177.95
191.79
206.97
220.57
228.25
225.36
208.53
176.87
132.76
80.05
23.07
-34.94
-92.44
-149.16
-205.23
-260.37
-313.74
-363.87
-409.83
-450.91
-486.5
-515.74
-537.23
-549.22
-549.96
-538.37
-514.21
-478.67
-433.88
-382.45
-327.02
-269.84
-212.63
-156.66
-102.95
-52.37
-5.91
35.57
71.42
101.36
125.53
144.43
158.74
169.16
176.3
180.57
182.28
181.69
179.1
174.85
169.31
162.86
155.81
148.39
140.76
133.03
125.29
117.61
110.04
102.6
95.27
88.06
80.96
74.07
67.48
61.32
55.66
50.47
45.62
40.92
36.22
31.5
26.87
22.57
18.84
15.84
13.48
11.47
9.4
6.96
4.06
0.95
-1.88
-3.93
-4.94
-5.07
-4.88
-5.13
-6.35
-8.65
-11.55
-14.2
-15.81
-16.11
-15.36
-14.36
-13.97
-14.67
-16.51
-19.3
-22.84
-26.86
-30.5
-32.22
-30.03
-22.54
-9.88
5.79
21.12
32.88
39.34
40.66
38.61
35.17
31.77
28.93
26.27
23.45
20.13
16.44
13.26
11.83
12.99
16.32
20.16
21.74
19.23
13.09
5.89
0.85
-0.26
1.62
3.63
2.93
-1.21
-6.92
-10.92
-10.62
-5.62
2.01
9.21
13.6
14.59
13.05
10.85
9.58
9.96
11.75
13.8
15.11
15.13
13.99
12.49
11.61
11.88
13.09
14.85
16.59
17.93
18.81
19.23
19.16
18.64
17.56
15.73
13.02
9.18
4.35
-0.87
-5.66
-9.38
-11.95
-13.85
-15.82
-18.27
-21.06
-23.51
-24.86
-24.69
-23.12
-20.79
-18.55
-17.1
-16.72
-17.22
-18.02
-18.26
-17.33
-15.13
-11.81
-7.99
-4.19
-0.71
2.18
4.24
5.18
4.87
3.66
2.32
1.75
2.37
3.82
5.28
5.9
5.5
4.53
3.62
3.12
2.99
3.08
3.41
4.25
5.76
7.64
8.96
8.79
6.81
3.61
0.54
-1.19
-1.25
-0.07
1.47
2.76
3.76
4.81
6.11
7.38
7.73
6.35
2.71
-2.87
-9.18
-14.69
-18.24
-19.64
-19.65
-19.38
-19.59
-20.17
-20.35
-19.15
-16.12
-11.75
-7.17
-3.49
-1.21
0.1
1.32
3.19
5.79
8.53
10.51
11.08
10.25
8.69
7.41
7.15
8.12
9.89
11.58
12.36
11.87
10.22
8.05
6.07
4.86
4.69
5.51
6.98
8.6
9.91
10.49
10.05
8.5
5.85
2.3
-1.87
-6.34
-10.81
-15.0
-18.75
-22.02
-24.73
-26.78
-27.92
-27.86
-26.55
-24.14
-21.11
-17.94
-14.89
-11.94
-8.9
-5.64
-2.3
0.74
3.17
4.98
6.43
7.98
9.86
11.9
13.61
14.52
14.35
13.3
11.88
10.57
9.65
9.04
8.49
7.79
6.98
6.27
5.88
5.81
5.85
5.72
5.27
4.59
3.97
3.64
3.62
3.69
3.45
2.6
1.0
-1.35
-4.27
-7.59
-11.14
-14.8
-18.45
-21.95
-25.14
-27.62
-28.9
-28.38
-25.58
-20.42
-13.39
-5.48
2.02
7.92
11.53
12.91
12.71
11.97
11.59
11.95
12.89
13.8
14.24
14.39
14.81
16.04
17.92
19.43
19.15
16.23
11.2
5.83
2.4
2.17
4.74
8.14
9.92
8.63
4.52
-0.67
-4.67
-6.04
-4.86
-2.67
-1.64
-3.54
-8.83
-16.48
-24.46
-30.66
-33.99
-34.62
-33.72
-32.66
-32.13
-31.77
-30.56
-27.52
-22.29
-15.24
-7.27
0.59
7.47
12.64
15.71
16.6
15.64
13.74
12.05
11.61
13.02
16.17
20.27
24.27
27.26
28.71
28.6
27.26
25.13
22.48
19.29
15.32
10.4
4.74
-1.11
-6.17
-9.61
-10.99
-10.53
-8.99
-7.45
-6.9
-7.88
-10.37
-13.65
-16.8
-18.96
-19.58
-18.71
-16.7
-14.1
-11.36
-8.75
-6.3
-3.98
-1.79
0.2
1.87
3.06
3.84
4.38
5.04
6.07
7.46
9.03
10.6
12.07
13.64
15.43
17.35
18.9
19.42
18.49
16.34
13.83
12.08
12.01
13.79
16.92
20.51
23.63
25.57
25.87
24.35
21.07
16.45
11.1
5.79
1.21
-2.36
-4.96
-6.83
-8.5
-10.18
-11.81
-13.05
-13.54
-13.23
-12.43
-11.59
-10.96
-10.38
-9.34
-7.41
-4.66
-1.72
0.5
1.45
1.2
0.36
-0.42
-0.93
-1.52
-2.71
-4.75
-7.31
-9.76
-11.46
-12.27
-12.4
-12.12
-11.75
-11.36
-10.92
-10.46
-9.85
-8.69
-6.43
-2.65
2.52
8.2
12.98
15.63
15.62
13.49
10.47
7.75
5.88
4.52
2.79
-0.09
-4.1
-8.5
-12.3
-14.79
-15.99
-16.44
-16.74
-17.07
-17.1
-16.34
-14.54
-12.03
-9.54
-7.77
-6.96
-6.79
-6.63
-5.78
-3.9
-0.97
2.69
6.69
10.53
13.86
16.44
18.23
19.32
19.74
19.59
19.14
18.98
19.94
22.76
27.49
33.13
37.92
40.04
38.49
33.5
26.43
18.86
11.92
5.93
0.48
-4.83
-10.28
-15.55
-20.1
-23.43
-25.24
-25.64
-25.0
-23.92
-22.91
-22.53
-22.94
-24.14
-25.89
-27.82
-29.51
-30.47
-30.31
-28.7
-25.7
-21.68
-17.34
-13.49
-10.59
-8.89
-8.22
-8.2
-8.32
-8.19
-7.61
-6.43
-4.65
-2.07
1.22
5.1
9.08
12.48
14.59
14.92
13.34
10.32
6.82
3.73
1.78
1.06
1.19
1.61
1.89
1.9
1.44
0.56
-0.71
-2.12
-3.41
-4.61
-6.1
-8.53
-12.43
-17.81
-23.73
-28.58
-30.65
-28.93
-23.87
-17.13
-10.92
-6.8
-5.08
-4.79
-4.41
-2.72
0.4
3.83
5.86
5.05
1.23
-4.08
-8.28
-8.93
-4.9
3.24
13.21
22.26
27.94
28.99
25.81
20.12
14.25
10.33
9.36
10.9
13.52
15.59
16.22
15.68
14.86
14.42
14.15
12.98
9.78
4.52
-1.54
-6.36
-8.37
-7.54
-5.37
-4.07
-5.36
-9.4
-14.76
-19.11
-20.38
-17.83
-12.22
-5.41
0.7
5.12
7.81
9.19
9.44
8.0
4.09
-2.27
-9.84
-16.56
-20.35
-20.59
-18.38
-15.88
-14.49
-14.16
-13.44
-10.84
-6.29
-0.95
3.42
5.93
7.2
8.58
10.85
13.53
15.2
14.52
11.63
7.78
4.64
3.05
2.4
1.73
0.35
-1.17
-1.62
-0.41
1.56
2.48
0.81
-3.65
-9.28
-13.69
-14.96
-12.72
-8.13
-3.11
0.9
3.36
4.56
5.08
5.04
3.96
1.33
-2.93
-7.91
-11.85
-12.65
-9.24
-1.95
7.28
15.78
21.4
23.29
22.18
19.54
16.74
14.47
12.7
11.22
10.06
9.6
10.32
12.49
15.74
19.07
21.25
21.24
18.71
14.24
9.16
5.06
2.97
2.84
3.42
3.12
0.88
-2.89
-6.76
-8.89
-8.3
-5.48
-2.02
0.18
-0.03
-2.7
-6.75
-10.77
-13.55
-14.45
-13.55
-11.21
-7.97
-4.25
-0.54
2.56
4.32
4.08
1.44
-3.35
-9.47
-15.63
-20.44
-22.97
-22.96
-20.95
-17.93
-14.83
-12.2
-10.1
-8.34
-6.7
-5.08
-3.64
-2.65
-2.5
-3.3
-5.09
-7.46
-9.92
-11.88
-12.99
-13.16
-12.46
-11.25
-9.79
-8.34
-7.0
-5.84
-4.65
-3.31
-1.71
0.16
2.3
4.63
7.0
9.37
11.78
14.21
16.63
18.9
20.85
22.49
23.93
25.34
26.63
27.35
26.91
24.91
21.58
17.52
13.53
10.13
7.28
4.73
2.39
0.45
-0.81
-1.45
-2.12
-3.78
-7.04
-11.77
-16.91
-21.08
-23.27
-23.39
-22.11
-20.51
-19.09
-17.89
-16.55
-14.76
-12.52
-10.08
-7.57
-4.67
-0.81
4.58
11.49
19.12
26.34
31.8
34.72
35.0
32.94
29.12
24.16
18.83
14.18
11.39
11.21
13.53
17.29
20.73
22.34
21.51
18.66
14.88
11.26
8.08
4.95
1.27
-3.4
-8.88
-14.51
-19.54
-23.35
-25.65
-26.69
-26.89
-26.82
-27.07
-27.93
-29.45
-31.45
-33.56
-35.42
-36.59
-36.58
-34.88
-31.0
-24.63
-15.98
-5.75
4.88
14.6
22.32
27.65
30.82
32.58
33.76
34.91
36.05
36.9
36.96
35.92
33.76
30.6
26.77
22.72
18.94
15.88
13.87
13.04
13.24
14.07
14.93
15.16
14.13
11.49
7.29
1.85
-4.22
-10.35
-16.24
-21.63
-26.43
-30.52
-33.76
-36.1
-37.68
-38.7
-39.19
-38.9
-37.23
-33.65
-28.26
-21.79
-15.35
-9.9
-5.7
-2.36
0.85
4.48
8.57
12.62
15.99
18.19
19.07
18.95
18.27
17.45
16.69
15.84
14.67
13.0
10.95
9.02
7.7
7.08
6.63
5.33
2.25
-2.78
-8.84
-14.33
-17.73
-18.39
-16.88
-14.68
-13.45
-14.21
-17.04
-21.23
-25.84
-29.99
-33.13
-34.89
-34.82
-32.52
-27.72
-20.58
-11.91
-2.95
5.04
11.09
14.93
16.84
17.51
17.69
17.99
18.71
19.91
21.54
23.42
25.36
27.18
28.66
29.62
29.86
29.34
28.21
26.8
25.52
24.61
23.98
23.27
21.99
19.82
16.79
13.27
9.66
6.32
3.4
0.82
-1.67
-4.36
-7.43
-10.92
-14.59
-17.94
-20.49
-21.74
-21.4
-19.42
-15.89
-11.02
-5.24
0.62
5.49
8.26
8.44
6.36
3.21
0.5
-0.57
0.42
3.11
6.62
9.88
12.03
12.68
12.0
10.71
9.8
10.06
11.78
14.61
17.72
20.18
21.32
20.86
18.97
16.01
12.47
9.02
6.28
4.65
4.21
4.47
4.59
3.82
1.68
-1.79
-6.26
-11.25
-16.41
-21.42
-26.04
-30.02
-33.06
-34.89
-35.32
-34.29
-32.03
-28.8
-24.88
-20.4
-15.4
-9.95
-4.37
0.63
4.11
5.21
3.65
-0.06
-4.67
-8.62
-10.62
-10.07
-7.11
-2.56
2.53
7.19
10.86
13.46
15.36
17.07
18.92
21.25
24.35
28.53
34.02
40.65
47.75
54.22
58.97
61.4
61.67
60.52
58.87
57.23
55.41
52.68
48.26
41.69
33.18
23.49
13.67
4.6
-3.16
-9.38
-14.01
-16.99
-18.08
-17.07
-13.94
-9.22
-3.87
1.04
4.65
6.64
7.12
6.47
4.98
2.81
-0.0
-3.53
-7.79
-12.65
-17.78
-22.61
-26.3
-28.1
-27.65
-25.26
-21.78
-18.32
-15.77
-14.63
-14.97
-16.65
-19.39
-22.81
-26.34
-29.24
-30.77
-30.52
-28.56
-25.6
-22.61
-20.62
-20.3
-21.84
-24.88
-28.56
-31.86
-33.8
-33.77
-31.56
-27.46
-21.91
-15.46
-8.55
-1.54
5.21
11.3
16.35
19.97
22.04
22.66
22.21
21.25
20.28
19.62
19.34
19.28
19.22
19.13
19.24
19.88
21.3
23.43
25.88
28.07
29.42
29.4
27.71
24.22
19.0
12.26
4.53
-3.44
-10.7
-16.32
-19.78
-21.2
-21.37
-21.5
-22.68
-25.41
-29.38
-33.7
-37.33
-39.62
-40.52
-40.41
-39.73
-38.67
-37.09
-34.59
-30.91
-26.02
-20.24
-14.11
-8.22
-3.09
0.92
3.57
4.68
4.23
2.28
-0.91
-4.94
-9.29
-13.38
-16.73
-19.03
-20.19
-20.35
-19.72
-18.64
-17.37
-16.07
-14.75
-13.32
-11.72
-10.04
-8.63
-7.82
-7.77
-8.32
-8.98
-9.25
-8.82
-7.78
-6.54
-5.67
-5.64
-6.58
-8.36
-10.59
-12.73
-14.21
-14.48
-13.24
-10.54
-6.78
-2.52
1.75
5.74
9.44
12.89
16.1
18.92
21.11
22.55
23.34
23.81
24.47
25.55
26.95
28.07
28.09
26.46
23.2
18.9
14.39
10.32
6.8
3.53
0.1
-3.54
-7.01
-9.77
-11.51
-12.44
-13.1
-13.96
-15.1
-16.1
-16.35
-15.56
-14.03
-12.62
-12.19
-13.14
-14.99
-16.62
-16.74
-14.56
-10.14
-4.26
2.07
8.16
13.8
19.0
23.63
27.14
28.73
27.89
24.77
20.35
16.0
12.92
11.67
12.03
13.36
14.84
15.89
16.17
15.62
14.35
12.59
10.61
8.56
6.47
4.14
1.17
-2.73
-7.53
-12.8
-17.84
-22.01
-24.98
-26.83
-27.93
-28.75
-29.57
-30.52
-31.68
-33.07
-34.64
-36.16
-37.06
-36.44
-33.27
-26.77
-16.7
-3.69
10.96
25.53
38.33
48.17
54.58
57.84
58.74
58.0
56.03
52.82
48.32
42.84
37.12
32.18
28.75
26.93
26.17
25.69
24.86
23.36
21.21
18.57
15.58
12.36
9.03
5.73
2.55
-0.57
-3.85
-7.62
-12.06
-17.16
-22.6
-27.88
-32.49
-35.97
-38.08
-38.83
-38.61
-38.06
-37.88
-38.45
-39.63
-40.7
-40.7
-38.79
-34.64
-28.45
-20.89
-12.8
-4.98
2.02
7.85
12.44
15.92
18.57
20.82
22.94
24.95
26.53
27.27
26.92
25.68
24.12
22.84
22.11
21.71
21.05
19.7
17.68
15.44
13.61
12.59
12.31
12.35
12.17
11.43
10.04
8.06
5.57
2.57
-1.0
-5.34
-10.55
-16.59
-23.14
-29.63
-35.46
-40.14
-43.42
-45.27
-45.66
-44.37
-41.15
-35.92
-28.94
-21.0
-13.0
-5.66
0.71
6.22
11.16
15.7
19.76
23.05
25.26
26.29
26.33
25.82
25.35
25.42
26.17
27.43
28.69
29.31
28.92
27.41
25.07
22.37
19.7
17.2
14.86
12.64
10.48
8.52
6.88
5.59
4.64
3.81
2.76
1.07
-1.5
-5.08
-9.55
-14.64
-19.99
-25.11
-29.53
-32.85
-34.8
-35.37
-34.56
-32.42
-28.89
-23.91
-17.5
-9.87
-1.44
7.22
15.57
23.11
29.49
34.43
37.77
39.59
40.12
39.89
39.45
39.19
39.28
39.66
40.21
40.66
40.74
39.97
37.96
34.59
30.19
25.47
21.1
17.32
13.75
9.61
4.43
-1.76
-8.12
-13.68
-17.77
-20.4
-22.21
-23.91
-25.83
-27.74
-29.23
-29.99
-30.19
-30.42
-31.36
-33.36
-36.32
-39.72
-42.87
-45.32
-46.88
-47.64
-47.8
-47.41
-46.21
-43.75
-39.55
-33.44
-25.8
-17.43
-9.39
-2.43
3.18
7.72
11.66
15.34
18.74
21.51
23.31
23.99
23.7
22.92
22.11
21.57
21.35
21.2
20.79
19.89
18.6
17.35
16.81
17.45
19.15
21.17
22.33
21.61
18.63
13.71
7.69
1.28
-5.12
-11.45
-17.59
-23.04
-26.96
-28.42
-27.14
-23.76
-19.7
-16.67
-15.75
-16.96
-19.27
-21.37
-22.23
-21.73
-20.48
-19.23
-18.4
-17.72
-16.57
-14.4
-11.26
-7.75
-4.69
-2.53
-1.14
0.09
1.76
4.04
6.64
9.0
10.67
11.49
11.82
12.22
13.14
14.77
16.86
18.89
20.38
21.25
21.82
22.57
23.86
25.52
27.04
27.8
27.39
25.71
22.82
18.78
13.53
7.22
0.28
-6.4
-11.76
-15.01
-16.02
-15.3
-13.74
-12.17
-11.08
-10.43
-9.97
-9.44
-8.71
-8.06
-7.95
-8.86
-10.93
-13.75
-16.44
-17.97
-17.54
-14.88
-10.11
-3.66
3.99
12.18
20.14
26.94
31.82
34.48
35.16
34.54
33.25
31.56
29.42
26.67
23.43
20.09
17.3
15.43
14.53
14.18
13.64
12.22
9.31
4.57
-2.1
-10.51
-20.24
-30.56
-40.49
-48.98
-55.12
-58.44
-59.05
-57.62
-55.02
-52.01
-48.9
-45.58
-41.74
-37.13
-31.94
-26.65
-21.89
-18.24
-16.0
-15.14
-15.33
-15.89
-16.07
-15.25
-13.02
-9.29
-4.14
2.22
9.52
17.29
24.73
30.89
34.91
36.43
35.84
34.08
32.29
31.28
31.16
31.48
31.49
30.7
29.07
27.07
25.23
23.9
23.04
22.16
20.61
17.79
13.41
7.65
1.01
-5.54
-10.86
-13.95
-14.29
-12.29
-9.13
-6.51
-5.79
-7.42
-10.75
-14.27
-16.41
-16.19
-13.54
-9.31
-4.76
-1.07
1.0
1.33
0.45
-0.84
-1.77
-1.83
-0.77
1.37
4.61
8.86
13.8
18.7
22.43
23.89
22.61
19.15
14.89
11.5
10.11
10.82
12.89
15.14
16.55
16.54
14.97
12.04
8.15
3.88
-0.17
-3.53
-6.15
-8.3
-10.67
-13.87
-18.08
-22.84
-27.16
-29.99
-30.73
-29.52
-27.1
-24.33
-21.77
-19.4
-16.84
-13.77
-10.3
-6.95
-4.42
-3.11
-2.84
-2.97
-2.8
-1.97
-0.65
0.69
1.74
2.57
3.78
6.15
10.11
15.48
21.44
26.91
30.96
33.25
34.06
33.97
33.45
32.41
30.39
26.83
21.55
15.01
8.01
1.43
-4.19
-8.62
-11.92
-14.18
-15.53
-16.24
-16.75
-17.68
-19.5
-22.31
-25.69
-28.75
-30.5
-30.31
-28.25
-25.1
-22.05
-20.22
-20.11
-21.44
-23.33
-24.7
-24.87
-23.8
-22.08
-20.5
-19.69
-19.75
-20.26
-20.49
-19.69
-17.43
-13.72
-8.91
-3.62
1.56
6.27
10.47
14.28
17.81
20.99
23.56
25.22
25.76
25.17
23.6
21.35
18.84
16.47
14.56
13.27
12.5
11.97
11.36
10.41
8.91
6.62
3.33
-1.1
-6.39
-11.78
-16.2
-18.69
-18.92
-17.32
-14.88
-12.53
-10.76
-9.54
-8.52
-7.44
-6.39
-5.63
-5.46
-5.87
-6.65
-7.43
-8.03
-8.48
-8.99
-9.74
-10.73
-11.76
-12.42
-12.26
-10.99
-8.48
-4.9
-0.67
3.64
7.39
10.11
11.6
12.05
11.96
11.96
12.54
13.72
15.16
16.26
16.59
15.94
14.34
11.97
8.9
5.19
0.91
-3.62
-7.81
-11.07
-12.98
-13.62
-13.46
-13.18
-13.29
-13.93
-14.81
-15.45
-15.38
-14.41
-12.59
-10.2
-7.6
-5.01
-2.7
-0.81
0.43
0.94
0.76
0.14
-0.6
-1.29
-1.86
-2.35
-2.63
-2.31
-0.89
1.97
6.11
10.88
15.47
19.3
22.32
24.85
27.21
29.33
30.66
30.45
28.22
24.04
18.63
13.08
8.45
5.36
3.92
3.76
4.26
4.75
4.61
3.29
0.35
-4.4
-10.75
-17.83
-24.32
-28.68
-29.82
-27.55
-22.68
-16.76
-11.42
-7.75
-5.97
-5.51
-5.5
-5.34
-4.89
-4.54
-4.86
-6.22
-8.58
-11.48
-14.23
-16.18
-16.92
-16.24
-14.13
-10.65
-5.98
-0.58
4.86
9.41
12.4
13.52
12.98
11.38
9.39
7.66
6.52
6.07
6.12
6.37
6.5
6.38
5.97
5.35
4.5
3.28
1.53
-0.77
-3.4
-5.97
-8.08
-9.62
-10.76
-11.85
-13.15
-14.7
-16.26
-17.43
-17.86
-17.3
-15.79
-13.6
-11.16
-8.93
-7.2
-5.99
-5.1
-4.25
-3.4
-2.69
-2.34
-2.42
-2.68
-2.66
-1.89
-0.05
2.97
7.17
12.37
18.22
24.11
29.31
33.31
36.05
37.96
39.57
41.15
42.43
42.77
41.66
39.14
35.97
33.21
31.69
31.47
31.87
31.87
30.74
28.43
25.53
22.82
20.65
18.67
16.07
12.06
6.52
0.15
-5.97
-11.02
-14.92
-18.39
-22.49
-27.93
-34.7
-42.21
-49.58
-56.25
-61.98
-66.77
-70.73
-73.86
-76.19
-77.77
-78.71
-78.97
-78.29
-76.14
-71.88
-65.11
-56.02
-45.44
-34.74
-25.34
-18.19
-13.51
-10.74
-9.01
-7.49
-5.74
-3.66
-1.35
1.17
3.97
7.14
10.65
14.49
18.83
24.37
32.09
42.92
57.17
74.13
92.17
109.15
123.24
133.27
139.01
140.75
138.73
132.59
121.2
103.24
78.23
47.5
14.47
-16.03
-39.22
-51.98
-53.73
-46.26
-32.6
-15.78
1.93
19.09
34.68
47.66
56.96
61.86
62.46
59.98
56.3
53.35
52.22
52.75
53.58
52.91
49.32
42.56
33.57
24.0
15.57
9.34
5.43
2.82
-0.18
-5.56
-14.99
-29.15
-47.5
-68.25
-88.89
-106.83
-120.18
-128.08
-130.78
-129.5
-126.05
-122.23
-119.43
-118.26
-118.39
-118.93
-118.83
-117.4
-114.48
-110.27
-104.93
-98.33
-90.33
-80.81
-70.06
-58.65
-47.17
-36.27
-26.31
-17.64
-10.54
-5.08
-1.09
2.01
4.9
8.1
11.45
14.29
15.68
15.03
12.82
10.59
10.45
14.18
22.22
33.52
46.11
58.05
68.43
77.73
87.38
98.9
113.4
131.22
151.96
174.58
197.21
217.18
231.6
237.91
235.08
223.86
206.45
185.4
162.53
138.57
113.68
88.34
63.7
41.5
23.15
8.85
-2.65
-13.93
-27.81
-46.11
-68.79
-93.59
-116.56
-133.44
-141.31
-139.66
-130.51
-117.53
-104.3
-92.98
-83.84
-75.64
-67.07
-57.7
-48.25
-40.16
-34.63
-31.93
-31.12
-30.58
-28.78
-25.12
-20.43
-16.47
-15.25
-17.94
-24.29
-32.73
-41.08
-47.54
-51.3
-52.62
-52.22
-50.83
-48.78
-46.28
-43.75
-41.84
-41.29
-42.22
-43.85
-44.55
-42.62
-37.05
-28.12
-17.17
-5.92
4.41
13.67
22.54
31.88
41.88
51.82
60.21
65.39
66.13
61.97
53.31
41.13
26.91
12.16
-1.65
-13.49
-22.79
-29.63
-34.63
-38.6
-42.36
-46.32
-50.44
-54.31
-57.38
-59.21
-59.66
-58.93
-57.45
-55.83
-54.62
-54.09
-54.25
-54.65
-54.62
-53.35
-50.26
-45.3
-39.05
-32.61
-27.12
-23.22
-20.89
-19.52
-18.29
-16.6
-14.32
-11.69
-8.97
-6.32
-3.69
-1.0
1.59
3.81
5.52
7.11
9.62
14.57
23.33
36.6
54.07
74.42
95.8
116.3
134.38
149.07
159.74
166.15
168.58
167.66
164.29
159.05
151.94
142.27
129.15
112.28
92.44
71.66
52.2
35.58
21.98
10.1
-1.73
-14.66
-28.62
-42.7
-55.67
-66.61
-74.98
-80.28
-82.16
-80.22
-74.54
-65.89
-55.69
-45.58
-36.78
-29.57
-23.39
-17.4
-10.95
-4.1
2.43
7.57
10.37
10.25
7.32
2.21
-4.14
-10.7
-16.77
-22.04
-26.52
-30.16
-32.77
-33.78
-32.5
-28.64
-22.63
-15.79
-10.02
-6.96
-7.5
-11.26
-16.88
-22.59
-26.98
-29.29
-29.32
-27.18
-23.0
-17.07
-9.95
-2.55
4.04
9.05
12.41
14.69
16.8
19.44
22.68
26.1
29.13
31.39
32.74
33.17
32.37
29.71
24.5
16.33
5.42
-7.37
-20.98
-34.33
-46.57
-56.97
-64.88
-69.82
-71.82
-71.5
-69.96
-68.24
-66.83
-65.54
-63.62
-60.42
-55.71
-49.68
-42.71
-34.84
-25.77
-14.99
-2.48
11.04
24.17
35.27
43.12
47.23
47.92
45.95
42.28
37.86
33.43
29.54
26.31
23.31
19.66
14.37
7.04
-1.8
-10.5
-17.03
-19.94
-19.2
-16.21
-13.26
-12.16
-13.49
-16.43
-19.26
-20.59
-20.04
-18.49
-17.27
-17.3
-18.28
-18.81
-17.2
-12.45
-4.99
3.6
11.35
17.05
20.63
23.06
25.49
28.41
31.42
33.5
33.78
32.21
29.51
26.92
25.46
25.37
26.02
26.3
24.96
21.39
15.78
8.97
1.97
-4.56
-10.51
-16.14
-21.71
-27.07
-31.66
-34.77
-35.98
-35.44
-33.7
-31.46
-29.33
-27.45
-25.95
-24.92
-24.67
-25.61
-27.88
-31.04
-33.96
-35.03
-32.97
-27.54
-20.05
-12.98
-8.81
-8.92
-12.72
-17.94
-21.83
-22.46
-19.62
-14.58
-9.22
-4.93
-2.13
-0.29
1.42
3.66
6.59
9.86
12.99
15.52
17.06
17.49
16.71
14.85
12.11
8.79
5.25
1.9
-0.9
-2.77
-3.31
-2.16
0.78
5.14
10.03
14.17
16.44
16.35
14.37
11.69
9.7
9.22
10.25
12.05
13.57
14.1
13.31
11.33
8.39
4.65
0.24
-4.69
-9.7
-13.96
-16.47
-16.34
-13.25
-7.65
-0.8
5.75
10.73
13.66
14.94
15.45
16.07
17.21
18.83
20.58
22.29
23.84
25.19
25.87
25.13
22.15
16.58
8.99
0.77
-6.27
-10.62
-11.73
-10.29
-7.81
-5.91
-5.5
-6.45
-7.91
-8.86
-8.85
-8.26
-7.98
-8.84
-11.04
-14.15
-17.22
-19.51
-20.72
-20.95
-20.44
-19.18
-16.77
-12.59
-6.29
1.98
11.35
20.46
27.97
32.96
35.24
35.54
35.11
35.39
37.3
40.78
44.81
47.69
47.95
44.91
39.08
31.85
24.7
18.54
13.22
8.04
2.36
-3.82
-9.72
-14.47
-17.62
-19.47
-20.67
-21.84
-23.16
-24.45
-25.56
-26.39
-27.08
-27.63
-27.78
-27.02
-24.79
-20.75
-14.96
-7.6
0.94
10.19
19.51
28.09
35.17
40.33
43.88
46.83
50.31
55.02
60.68
66.15
69.71
70.03
66.71
60.43
52.57
44.61
37.64
32.08
27.96
25.16
23.58
23.1
23.19
23.05
21.8
18.76
13.88
7.44
-0.03
-8.05
-16.18
-24.01
-30.95
-36.24
-39.24
-39.46
-36.73
-31.0
-22.74
-12.75
-2.23
7.61
16.09
23.35
30.38
38.5
48.88
61.85
76.54
90.63
100.8
103.58
96.7
80.4
57.73
33.9
14.31
2.46
-1.23
0.78
4.82
7.85
8.71
7.77
6.02
3.93
0.99
-3.69
-10.71
-19.47
-28.41
-35.3
-38.46
-37.64
-34.35
-31.43
-31.81
-37.28
-47.48
-60.08
-71.6
-78.85
-80.07
-75.34
-66.24
-54.98
-43.5
-32.97
-23.8
-16.0
-9.44
-3.97
0.81
5.65
11.63
19.62
29.58
40.34
49.87
56.37
59.09
58.78
57.08
55.58
54.94
54.95
54.94
54.49
53.72
52.9
52.01
50.44
47.29
41.93
34.43
25.63
16.75
8.85
2.52
-2.23
-5.75
-8.67
-11.89
-16.38
-22.88
-31.63
-42.2
-53.54
-64.38
-73.54
-80.27
-84.22
-85.35
-83.84
-80.03
-74.42
-67.7
-60.58
-53.67
-47.24
-41.31
-35.73
-30.47
-25.76
-21.92
-19.17
-17.36
-16.07
-14.73
-12.8
-9.99
-6.27
-1.78
3.26
8.58
13.73
18.21
21.44
22.97
22.71
20.91
18.23
15.34
12.85
10.93
9.4
7.85
5.97
3.81
1.75
0.33
-0.15
0.04
0.12
-0.94
-4.01
-9.45
-17.06
-26.01
-35.09
-43.02
-48.69
-51.57
-51.68
-49.57
-45.96
-41.46
-36.41
-31.02
-25.6
-20.68
-16.77
-14.07
-12.32
-10.99
-9.56
-7.79
-5.81
-3.83
-1.97
0.02
2.5
5.7
9.48
13.33
16.68
19.09
20.61
21.65
22.83
24.58
26.77
28.79
29.78
29.16
26.98
23.86
20.68
18.04
16.09
14.59
13.38
12.31
11.3
10.12
8.26
5.19
0.62
-5.27
-11.88
-18.41
-24.07
-28.3
-30.65
-30.77
-28.54
-24.2
-18.44
-12.25
-6.45
-1.52
2.65
6.47
10.28
14.14
17.68
20.36
21.72
21.74
20.97
20.3
20.56
22.13
24.67
27.38
29.4
30.34
30.51
30.73
31.8
34.04
37.08
39.98
41.73
41.53
39.06
34.33
27.54
19.11
9.62
-0.13
-9.2
-16.86
-22.75
-27.15
-30.73
-34.27
-38.24
-42.64
-46.92
-50.3
-52.05
-51.81
-49.65
-46.0
-41.6
-37.18
-33.31
-30.32
-28.12
-26.24
-24.13
-21.42
-18.04
-14.36
-10.95
-8.33
-6.66
-5.67
-4.78
-3.55
-1.75
0.46
2.72
4.81
6.7
8.57
10.57
12.64
14.6
16.25
17.54
18.55
19.39
20.09
20.48
20.4
19.73
18.5
16.8
14.64
11.9
8.5
4.52
0.25
-3.94
-7.75
-11.12
-14.15
-16.87
-19.1
-20.39
-20.4
-19.02
-16.61
-13.79
-11.15
-9.13
-7.76
-6.78
-5.91
-4.96
-3.83
-2.59
-1.31
0.12
1.93
4.49
8.12
12.78
18.03
23.14
27.29
29.97
31.15
31.34
31.29
31.71
32.84
34.49
36.18
37.36
37.74
37.28
36.18
34.74
33.05
31.0
28.19
24.15
18.48
11.19
2.85
-5.44
-12.3
-16.5
-17.47
-15.49
-11.71
-7.68
-4.8
-3.83
-4.83
-7.2
-10.05
-12.53
-14.03
-14.29
-13.35
-11.31
-8.28
-4.28
0.63
6.19
11.91
17.08
21.15
24.06
26.29
28.66
31.76
35.62
39.64
42.82
44.28
43.58
40.73
35.93
29.38
21.3
11.95
1.87
-8.32
-17.99
-26.77
-34.51
-41.32
-47.35
-52.6
-56.93
-59.97
-61.36
-60.9
-58.71
-55.22
-51.01
-46.62
-42.42
-38.56
-35.15
-32.3
-30.2
-29.0
-28.69
-29.09
-29.77
-30.38
-30.58
-30.15
-28.99
-27.01
-24.25
-20.83
-16.95
-12.74
-8.16
-3.01
3.0
10.0
17.75
25.44
31.91
36.06
37.37
36.32
34.23
32.62
32.39
33.25
33.84
32.54
28.51
22.3
15.64
10.63
8.61
9.47
11.91
13.92
13.84
11.09
6.11
-0.05
-6.18
-11.19
-14.2
-14.59
-12.33
-8.19
-3.88
-1.56
-2.86
-8.11
-16.04
-24.32
-30.76
-34.26
-35.05
-34.21
-32.77
-31.06
-28.85
-26.01
-22.95
-20.53
-19.5
-19.91
-21.15
-22.28
-22.47
-21.43
-19.54
-17.58
-16.52
-17.21
-20.01
-24.61
-29.78
-33.64
-34.32
-30.54
-22.2
-10.47
2.62
14.79
24.35
30.46
33.34
33.77
32.83
31.44
30.15
29.34
29.33
30.46
32.8
35.93
38.85
40.4
39.76
36.98
32.95
28.85
25.63
23.23
20.69
16.75
10.53
2.09
-7.48
-16.58
-23.62
-27.74
-29.2
-29.34
-29.93
-32.33
-36.38
-40.71
-43.29
-42.93
-39.92
-35.87
-32.64
-31.01
-30.2
-28.26
-23.34
-14.69
-3.14
9.49
21.29
31.23
39.25
45.7
50.85
54.29
55.16
52.9
47.74
40.95
34.47
29.85
27.72
27.46
27.85
27.85
27.08
25.8
24.25
22.22
19.02
14.17
8.01
1.64
-3.38
-6.26
-7.24
-7.58
-8.69
-11.27
-14.97
-18.84
-22.27
-25.36
-29.09
-34.39
-41.19
-48.05
-52.52
-52.31
-46.35
-35.47
-21.74
-7.68
4.93
15.41
23.92
30.85
36.24
40.0
42.03
42.68
42.68
42.8
43.61
45.18
47.22
49.12
50.16
49.57
46.72
41.24
33.42
24.29
15.21
7.56
1.99
-1.58
-3.77
-5.29
-6.4
-7.1
-7.45
-8.14
-10.6
-16.61
-27.18
-41.61
-57.35
-70.66
-78.21
-78.31
-71.4
-59.53
-45.17
-30.23
-15.8
-1.99
11.41
24.73
38.1
51.36
63.98
74.96
83.27
88.11
89.53
88.55
86.56
84.91
84.29
85.11
87.9
93.21
100.68
108.07
111.05
104.52
85.12
53.58
15.06
-22.42
-51.39
-67.91
-72.69
-69.96
-64.85
-60.76
-58.54
-57.1
-55.08
-52.13
-49.25
-47.96
-49.24
-52.88
-57.28
-60.38
-60.35
-56.46
-49.23
-39.99
-30.33
-21.38
-13.5
-6.31
0.8
8.2
15.73
22.71
28.32
32.12
34.14
34.94
35.31
35.86
36.9
38.52
40.81
43.96
48.26
53.74
59.98
65.94
70.2
71.49
69.06
63.04
54.19
43.54
31.9
19.59
6.64
-6.94
-20.79
-34.17
-46.37
-56.93
-65.8
-73.18
-79.16
-83.51
-85.87
-85.92
-83.69
-79.74
-74.93
-70.36
-67.05
-65.6
-66.02
-67.5
-68.5
-67.43
-63.2
-55.87
-46.67
-37.45
-29.89
-24.79
-21.88
-20.08
-18.12
-15.12
-10.83
-5.77
-0.92
2.78
4.72
4.91
3.95
2.57
1.24
-0.04
-1.62
-3.83
-6.5
-9.15
-11.15
-12.13
-12.14
-11.5
-10.42
-8.7
-5.8
-1.18
5.23
12.88
20.74
27.67
32.97
36.56
38.93
40.86
43.01
45.58
48.31
50.58
51.62
50.94
48.43
44.41
39.55
34.69
30.69
28.15
27.28
27.89
29.48
31.4
33.09
34.17
34.39
33.52
31.39
27.99
23.5
18.48
13.52
8.93
4.54
-0.48
-7.22
-16.61
-28.75
-42.74
-56.76
-68.66
-76.72
-80.13
-79.16
-74.85
-68.41
-60.77
-52.35
-43.26
-33.54
-23.5
-13.68
-4.76
2.74
8.64
13.04
16.08
17.76
17.8
15.7
11.14
4.21
-4.32
-13.15
-20.93
-26.69
-30.07
-31.36
-31.0
-29.42
-26.9
-23.67
-20.01
-16.18
-12.4
-8.74
-5.15
-1.67
1.52
4.08
5.74
6.43
6.17
5.03
3.02
0.09
-3.47
-6.98
-9.31
-9.24
-6.06
-0.03
7.76
15.57
21.77
25.5
26.81
26.72
26.53
27.18
28.93
31.32
33.6
35.1
35.55
34.98
33.51
31.2
28.14
24.59
21.03
17.94
15.62
14.01
12.89
11.96
11.13
10.4
9.78
9.0
7.68
5.48
2.48
-0.86
-3.76
-5.59
-6.16
-5.87
-5.57
-5.94
-7.27
-9.26
-11.32
-13.02
-14.42
-16.1
-18.67
-22.27
-26.33
-29.82
-31.9
-32.2
-31.08
-29.14
-26.82
-24.16
-20.85
-16.7
-11.75
-6.47
-1.44
2.86
6.21
8.56
10.05
10.9
11.42
12.0
12.93
14.46
16.61
19.2
21.69
23.49
23.96
22.77
20.08
16.44
12.66
9.45
7.25
6.27
6.48
7.64
9.22
10.48
10.57
8.95
5.65
1.45
-2.26
-4.26
-4.06
-2.13
0.2
1.45
0.65
-2.29
-6.66
-11.1
-14.31
-15.28
-13.51
-9.13
-2.85
4.33
11.33
17.23
21.49
24.01
25.09
25.35
25.36
25.46
25.78
26.12
26.34
26.48
26.71
27.36
28.64
30.6
33.05
35.67
38.12
40.25
42.18
44.21
46.67
49.69
53.16
56.77
60.3
63.76
67.47
71.71
76.42
80.71
83.18
82.29
77.24
68.35
56.93
44.7
33.0
22.34
12.48
2.87
-6.77
-16.12
-24.46
-31.06
-35.55
-38.01
-38.83
-38.36
-36.83
-34.46
-31.56
-28.71
-26.59
-25.76
-26.37
-28.16
-30.69
-33.56
-36.61
-39.8
-43.0
-45.94
-48.21
-49.51
-49.73
-48.96
-47.38
-45.17
-42.55
-39.9
-37.93
-37.45
-39.22
-43.48
-49.71
-56.8
-63.35
-68.18
-70.64
-70.8
-69.29
-66.98
-64.69
-62.81
-61.36
-60.16
-58.92
-57.25
-54.56
-50.1
-43.24
-33.84
-22.63
-11.03
-0.6
7.62
13.6
17.99
21.57
24.52
26.28
25.9
22.77
17.2
10.38
4.04
-0.34
-2.05
-1.14
1.68
5.61
10.05
14.71
19.42
23.69
26.7
27.35
24.81
18.97
10.6
1.16
-7.79
-15.09
-20.24
-23.29
-24.61
-24.64
-23.74
-22.25
-20.47
-18.55
-16.51
-14.1
-10.96
-6.63
-0.78
6.63
15.32
24.71
34.13
42.87
50.37
56.28
60.58
63.57
65.8
67.74
69.49
70.68
70.55
68.33
63.66
56.88
48.89
40.71
32.98
25.71
18.53
10.98
3.06
-4.93
-12.43
-19.01
-24.54
-29.26
-33.66
-38.25
-43.39
-49.06
-54.88
-60.3
-64.83
-68.37
-70.98
-72.72
-73.13
-71.4
-66.78
-59.29
-50.16
-41.49
-35.29
-32.5
-32.46
-33.28
-33.04
-30.59
-26.12
-20.74
-15.85
-12.19
-9.58
-7.07
-3.55
1.68
8.48
15.9
22.41
26.28
26.3
22.1
14.07
3.5
-7.87
-18.25
-25.97
-29.76
-29.3
-25.11
-18.78
-12.32
-7.25
-4.23
-3.03
-3.12
-4.36
-6.9
-11.03
-16.25
-20.9
-22.69
-19.76
-11.85
-0.59
11.27
21.36
28.6
33.37
36.76
39.45
41.07
40.94
38.72
35.05
31.53
29.87
30.75
33.39
35.88
36.0
32.45
25.66
17.66
11.31
8.82
10.54
14.9
19.02
20.64
19.07
15.19
10.79
7.15
4.51
2.13
-0.91
-5.12
-10.24
-15.74
-21.01
-25.26
-27.48
-26.57
-21.66
-13.17
-2.98
5.94
10.8
10.32
5.12
-2.6
-10.22
-15.66
-17.86
-16.9
-13.39
-8.2
-1.99
4.68
11.1
16.38
19.7
20.45
18.57
14.83
10.63
7.73
7.5
10.45
16.03
22.73
28.44
31.25
30.16
25.38
18.46
11.42
6.08
3.22
2.28
2.05
1.49
0.36
-1.1
-2.72
-5.02
-9.01
-14.95
-21.97
-28.0
-30.77
-28.93
-22.86
-14.35
-5.71
1.37
6.51
10.24
13.35
16.19
18.37
18.89
16.88
12.1
5.17
-2.46
-9.12
-13.34
-14.52
-13.2
-10.57
-7.87
-5.66
-3.78
-1.55
1.53
5.58
10.29
14.99
19.01
21.74
22.87
22.4
20.62
18.04
15.28
12.73
10.47
8.35
6.06
3.55
1.03
-0.98
-2.16
-2.66
-3.21
-4.89
-8.61
-14.51
-21.74
-28.48
-32.85
-33.52
-30.21
-23.76
-15.71
-7.52
-0.16
6.04
11.21
15.53
18.84
20.48
19.51
15.33
8.34
0.11
-7.09
-11.26
-11.62
-8.89
-4.82
-1.22
0.96
1.92
2.65
4.11
6.56
9.47
11.95
13.24
13.18
12.26
11.15
10.41
10.35
10.85
11.53
11.97
11.84
11.04
9.62
7.78
5.78
4.02
2.82
2.21
1.79
0.83
-1.18
-4.14
-7.21
-9.33
-9.9
-9.02
-7.39
-5.69
-4.01
-1.82
1.35
5.23
8.58
9.67
7.39
1.86
-5.32
-12.12
-16.81
-18.66
-17.88
-15.23
-11.58
-7.48
-3.44
0.08
2.57
3.68
3.55
2.78
2.42
3.36
5.92
9.58
13.18
15.55
15.93
14.47
11.96
9.51
8.03
7.99
9.38
11.76
14.23
15.77
15.59
13.37
9.68
5.53
2.19
0.5
0.49
1.43
2.15
1.49
-1.33
-6.41
-13.19
-20.58
-27.21
-31.81
-33.59
-32.51
-29.32
-25.28
-21.74
-19.65
-19.3
-20.2
-21.22
-20.97
-18.3
-12.96
-5.71
1.82
7.87
11.3
12.11
11.28
10.14
9.68
10.23
11.53
13.26
15.22
17.47
19.98
22.37
23.82
23.5
21.2
17.71
14.58
13.28
14.44
17.49
20.99
23.39
23.78
22.3
19.74
16.94
14.28
11.59
8.6
5.32
2.06
-0.86
-3.6
-6.71
-10.81
-16.01
-21.52
-26.1
-28.68
-29.01
-27.7
-25.94
-24.59
-23.61
-22.2
-19.34
-14.56
-8.4
-2.26
2.3
4.31
3.86
2.15
0.8
0.93
2.93
6.17
9.68
12.69
14.84
16.24
17.2
17.98
18.67
19.27
19.68
19.67
18.98
17.27
14.45
10.84
7.22
4.62
3.71
4.56
6.54
8.44
9.12
7.83
4.57
0.03
-4.61
-8.18
-10.04
-10.3
-9.83
-9.78
-11.06
-14.03
-18.36
-23.15
-27.18
-29.4
-29.27
-27.03
-23.71
-20.63
-18.85
-18.62
-19.26
-19.71
-19.05
-17.15
-14.59
-12.2
-10.36
-8.66
-6.18
-2.14
3.5
9.86
15.61
19.47
21.0
20.64
19.63
19.32
20.38
22.66
25.27
27.27
28.19
28.24
28.03
28.03
28.16
27.76
25.94
22.11
16.16
8.76
1.02
-5.85
-10.92
-13.85
-14.94
-15.07
-15.41
-16.91
-20.05
-24.54
-29.68
-34.56
-38.47
-41.1
-42.39
-42.62
-42.02
-40.84
-39.21
-37.21
-34.96
-32.63
-30.44
-28.42
-26.34
-23.67
-19.79
-14.33
-7.5
-0.05
7.14
13.51
19.02
23.97
28.61
32.79
35.94
37.3
36.47
33.77
30.27
27.54
26.94
29.01
33.1
37.55
40.44
40.41
37.36
32.41
27.31
23.44
21.22
19.98
18.56
16.07
12.27
7.59
2.73
-1.75
-5.63
-9.09
-12.46
-16.08
-20.13
-24.62
-29.51
-34.71
-40.04
-45.08
-49.12
-51.19
-50.36
-46.21
-39.11
-30.17
-20.84
-12.37
-5.35
0.42
5.42
10.02
14.14
17.2
18.55
17.97
16.03
14.11
13.84
16.23
21.11
27.03
31.9
34.1
33.33
30.75
28.16
26.74
26.39
25.74
23.32
18.54
12.19
5.99
1.62
-0.21
0.03
1.12
1.92
1.91
1.19
0.12
-1.22
-3.32
-6.87
-12.27
-19.3
-27.06
-34.37
-40.36
-44.59
-47.19
-48.4
-48.2
-46.26
-42.18
-35.93
-28.01
-19.41
-11.16
-3.95
1.96
6.84
11.06
14.95
18.69
22.08
24.83
26.57
27.06
26.31
24.64
22.6
20.85
20.06
20.45
21.81
23.43
24.3
23.51
20.68
16.14
10.81
5.84
2.1
-0.04
-0.79
-0.74
-0.48
-0.44
-0.84
-1.72
-3.18
-5.41
-8.7
-13.45
-19.82
-27.42
-35.25
-41.77
-45.41
-45.24
-41.42
-35.09
-27.85
-21.01
-15.11
-9.95
-5.0
0.16
5.6
11.09
16.19
20.53
23.73
25.61
26.17
25.7
24.71
23.72
23.17
23.14
23.61
24.43
25.51
26.81
28.2
29.3
29.57
28.29
24.92
19.28
11.75
3.21
-5.27
-12.76
-18.69
-22.78
-24.84
-24.53
-21.54
-16.0
-8.89
-2.17
1.7
0.9
-4.95
-14.48
-25.17
-34.4
-40.53
-43.15
-42.83
-40.56
-37.08
-32.84
-28.08
-23.06
-18.02
-13.29
-9.01
-5.08
-1.2
3.04
7.83
13.05
18.29
23.04
26.77
29.24
30.39
30.45
29.69
28.55
27.47
26.76
26.47
26.3
25.84
24.73
22.93
20.72
18.42
16.27
14.25
12.3
10.45
8.97
8.14
7.93
7.9
7.25
5.36
2.09
-2.19
-6.76
-10.98
-14.57
-17.41
-19.39
-20.32
-20.04
-18.53
-16.09
-13.24
-10.51
-8.27
-6.67
-5.68
-5.32
-5.63
-6.67
-8.32
-10.23
-11.97
-13.12
-13.58
-13.54
-13.33
-13.22
-13.14
-12.85
-12.06
-10.71
-9.04
-7.46
-6.46
-6.23
-6.74
-7.8
-9.18
-10.68
-12.12
-13.33
-14.12
-14.34
-13.88
-12.74
-10.99
-8.85
-6.67
-4.98
-4.4
-5.44
-8.33
-12.88
-18.48
-24.36
-29.73
-34.02
-36.95
-38.41
-38.47
-37.12
-34.32
-29.99
-24.14
-17.07
-9.38
-1.8
5.04
10.76
15.31
18.84
21.54
23.51
24.84
25.6
25.94
25.98
25.78
25.32
24.54
23.44
22.1
20.7
19.36
18.15
17.0
15.77
14.34
12.6
10.55
8.4
6.48
5.12
4.43
4.22
4.04
3.46
2.31
0.8
-0.7
-2.02
-3.41
-5.49
-8.89
-13.85
-19.98
-26.34
-31.82
-35.56
-37.24
-37.19
-36.06
-34.5
-32.8
-30.83
-28.17
-24.44
-19.55
-13.83
-7.86
-2.28
2.57
6.57
9.92
12.82
15.43
17.78
19.75
21.22
22.06
22.32
22.22
22.07
22.19
22.67
23.37
23.95
23.97
23.18
21.4
18.64
14.94
10.38
5.2
-0.23
-5.32
-9.46
-12.22
-13.5
-13.62
-13.22
-13.11
-14.01
-16.34
-20.09
-24.76
-29.66
-34.0
-37.15
-38.67
-38.4
-36.35
-32.79
-28.17
-23.02
-17.83
-12.94
-8.44
-4.2
-0.06
4.07
8.1
11.81
14.91
17.2
18.53
18.94
18.67
18.07
17.64
17.77
18.6
19.99
21.51
22.65
23.02
22.52
21.34
19.8
18.15
16.33
14.11
11.2
7.75
4.28
1.6
0.25
0.02
-0.09
-1.37
-4.61
-9.66
-15.37
-20.3
-23.43
-24.61
-24.5
-23.98
-23.57
-23.24
-22.48
-20.66
-17.45
-12.96
-7.73
-2.48
2.11
5.73
8.48
10.86
13.39
16.33
19.31
21.68
22.74
22.4
21.17
19.98
19.58
20.16
21.22
21.88
21.43
19.77
17.38
15.0
13.11
11.67
10.13
7.84
4.41
0.01
-4.79
-9.26
-12.81
-15.13
-16.15
-16.03
-15.09
-13.73
-12.48
-11.95
-12.65
-14.93
-18.79
-23.88
-29.4
-34.22
-37.04
-36.88
-33.59
-27.87
-21.14
-14.76
-9.54
-5.34
-1.32
3.47
9.53
16.65
24.05
30.76
35.98
39.39
41.2
41.92
42.17
42.35
42.52
42.48
42.01
41.04
39.81
38.61
37.54
36.34
34.58
31.98
28.64
25.02
21.6
18.63
15.95
13.29
10.5
7.79
5.5
3.94
3.23
3.28
3.98
5.12
6.42
7.37
7.33
5.7
2.27
-2.48
-7.43
-11.12
-12.33
-10.45
-5.64
1.2
8.94
16.29
22.17
25.8
26.77
25.23
21.83
17.88
14.83
14.0
15.99
20.51
26.48
32.39
36.95
39.34
39.35
37.21
33.39
28.4
22.69
16.49
9.88
2.78
-4.86
-12.89
-20.95
-28.4
-34.61
-39.05
-41.53
-42.18
-41.48
-40.09
-38.7
-37.87
-37.86
-38.6
-39.94
-41.65
-43.68
-45.95
-48.37
-50.67
-52.43
-53.28
-53.01
-51.48
-48.66
-44.51
-39.03
-32.48
-25.34
-18.22
-11.59
-5.55
0.05
5.33
10.14
14.08
16.78
18.21
18.78
19.26
20.35
22.41
25.28
28.47
31.23
32.8
32.4
29.57
24.21
16.88
8.68
1.07
-4.64
-7.64
-7.87
-6.01
-3.23
-0.98
-0.51
-2.75
-7.94
-15.67
-24.91
-34.3
-42.52
-48.62
-52.26
-53.67
-53.53
-52.65
-51.82
-51.53
-51.84
-52.26
-51.92
-49.76
-45.03
-37.52
-27.86
-17.25
-7.16
1.19
7.1
10.55
11.94
12.01
11.66
11.79
13.17
16.2
20.73
26.05
31.11
34.95
36.96
37.17
35.95
33.84
31.31
28.67
26.1
23.69
21.53
19.55
17.64
15.67
13.55
11.31
8.92
6.28
3.1
-0.93
-6.01
-11.98
-18.27
-24.0
-28.21
-30.33
-30.31
-28.68
-26.3
-23.94
-22.01
-20.51
-19.25
-18.06
-16.91
-15.7
-14.09
-11.56
-7.72
-2.61
3.04
8.23
12.24
14.98
17.11
19.39
22.21
25.26
27.84
29.34
29.59
28.95
27.92
26.89
25.96
24.98
23.88
22.77
21.88
21.5
21.63
22.0
21.97
20.8
17.87
12.9
6.07
-2.1
-10.69
-18.71
-25.16
-29.26
-30.69
-29.66
-27.02
-24.03
-21.84
-21.14
-21.75
-22.98
-23.94
-24.13
-23.5
-22.25
-20.47
-17.93
-14.29
-9.42
-3.76
1.77
6.13
8.65
9.49
9.57
10.14
12.14
15.6
19.8
23.58
26.01
26.78
26.26
25.12
23.94
22.95
22.05
21.13
20.22
19.63
19.62
20.26
21.14
21.56
20.78
18.33
14.16
8.69
2.61
-3.33
-8.57
-13.07
-17.05
-20.87
-24.65
-28.13
-30.81
-32.15
-31.99
-30.55
-28.3
-25.69
-23.04
-20.49
-18.19
-16.37
-15.17
-14.51
-13.92
-12.6
-9.74
-4.8
2.04
9.98
17.72
23.88
27.47
28.22
26.7
24.03
21.32
19.28
17.98
17.02
15.89
14.35
12.61
11.13
10.35
10.55
11.63
13.32
15.16
16.74
17.66
17.66
16.52
14.1
10.3
5.17
-0.93
-7.41
-13.41
-18.13
-21.13
-22.58
-23.2
-23.82
-25.0
-26.74
-28.58
-29.92
-30.32
-29.76
-28.52
-26.91
-25.09
-22.9
-20.06
-16.31
-11.7
-6.61
-1.54
3.1
7.2
10.98
14.86
19.23
24.2
29.42
34.07
37.06
37.5
34.98
29.95
23.57
17.47
13.09
11.11
11.33
12.85
14.76
16.49
18.0
19.53
20.99
21.94
21.57
19.23
14.78
8.7
2.05
-4.15
-9.14
-12.65
-14.8
-15.85
-16.11
-15.73
-14.91
-13.82
-12.69
-11.8
-11.4
-11.62
-12.38
-13.45
-14.61
-15.64
-16.38
-16.7
-16.4
-15.38
-13.59
-11.24
-8.54
-5.64
-2.44
1.39
6.09
11.65
17.49
22.77
26.57
28.3
27.88
25.69
22.47
19.06
16.31
14.86
15.01
16.55
18.81
20.91
22.01
21.55
19.49
16.16
12.12
7.97
4.07
0.49
-2.91
-6.29
-9.62
-12.63
-14.76
-15.61
-15.02
-13.24
-10.76
-8.0
-5.2
-2.45
0.18
2.4
3.77
3.92
2.75
0.45
-2.46
-5.52
-8.41
-11.01
-13.34
-15.46
-17.34
-18.83
-19.69
-19.69
-18.74
-16.94
-14.51
-11.79
-9.04
-6.53
-4.53
-3.22
-2.53
-2.02
-0.98
1.27
4.93
9.46
13.66
16.08
15.64
12.1
6.08
-1.14
-8.14
-13.67
-16.85
-17.28
-14.98
-10.43
-4.46
1.78
7.11
10.55
11.66
10.71
8.6
6.51
5.46
5.78
7.08
8.5
9.26
9.02
8.0
6.83
6.16
6.38
7.58
9.46
11.57
13.31
14.22
14.07
12.94
11.08
8.73
6.01
2.9
-0.49
-3.74
-6.08
-6.68
-5.05
-1.28
3.92
9.48
14.37
17.81
19.44
19.17
17.17
13.74
9.29
4.29
-0.74
-5.19
-8.48
-10.11
-9.9
-8.04
-5.17
-2.14
0.26
1.56
1.66
0.79
-0.54
-1.74
-2.24
-1.65
0.06
2.45
4.88
6.59
7.19
6.71
5.49
3.93
2.31
0.69
-1.0
-2.85
-4.88
-7.14
-9.58
-12.1
-14.44
-16.34
-17.61
-18.32
-18.71
-19.0
-19.09
-18.63
-17.14
-14.44
-10.84
-7.11
-4.14
-2.6
-2.74
-4.33
-6.8
-9.4
-11.26
-11.74
-10.49
-7.71
-4.16
-1.06
0.47
-0.13
-2.57
-5.57
-7.47
-6.89
-3.4
2.17
8.15
12.77
14.99
14.83
13.17
11.08
9.2
7.57
5.94
4.17
2.53
1.57
1.7
2.85
4.42
5.53
5.38
3.65
0.71
-2.58
-5.17
-6.37
-6.1
-4.97
-3.81
-3.18
-3.02
-2.65
-1.34
1.2
4.5
7.58
9.45
9.58
8.05
5.33
2.0
-1.51
-4.85
-7.61
-9.31
-9.6
-8.38
-5.98
-2.98
0.01
2.57
4.45
5.61
5.97
5.46
4.14
2.18
-0.04
-2.07
-3.53
-4.37
-4.93
-5.78
-7.46
-10.04
-13.11
-15.86
-17.53
-17.79
-16.83
-15.16
-13.25
-11.22
-8.95
-6.21
-3.06
0.2
3.1
5.39
7.18
8.81
10.6
12.6
14.58
16.24
17.28
17.5
16.81
15.16
12.56
9.24
5.65
2.39
-0.01
-1.31
-1.68
-1.49
-1.12
-0.68
0.02
1.26
3.1
5.16
6.75
7.22
6.33
4.37
1.89
-0.59
-2.95
-5.36
-7.99
-10.72
-13.05
-14.29
-13.95
-12.02
-8.92
-5.33
-1.89
1.02
3.2
4.64
5.48
5.94
6.34
6.94
7.93
9.35
11.1
13.0
14.79
16.21
16.97
16.95
16.15
14.7
12.74
10.32
7.44
4.13
0.6
-2.76
-5.47
-7.14
-7.69
-7.26
-6.15
-4.77
-3.5
-2.74
-2.71
-3.41
-4.52
-5.54
-6.04
-5.95
-5.72
-5.95
-7.27
-9.93
-13.65
-17.83
-21.69
-24.49
-25.62
-24.66
-21.45
-16.31
-10.05
-3.88
0.92
3.4
3.31
1.2
-1.77
-4.3
-5.53
-5.27
-3.95
-2.28
-0.76
0.52
1.87
3.48
5.25
6.72
7.26
6.45
4.27
1.2
-2.14
-5.16
-7.61
-9.54
-11.14
-12.61
-13.94
-14.97
-15.38
-14.94
-13.68
-11.89
-10.07
-8.66
-7.93
-7.85
-8.2
-8.7
-9.08
-9.15
-8.75
-7.78
-6.25
-4.28
-2.02
0.41
3.07
6.16
9.9
14.43
19.63
25.02
29.85
33.32
34.84
34.34
32.32
29.66
27.23
25.48
24.35
23.44
22.48
21.55
21.09
21.59
23.13
25.26
27.21
28.18
27.75
25.88
22.79
18.82
14.39
10.03
6.41
4.14
3.47
4.16
5.33
5.79
4.52
1.0
-4.64
-11.68
-19.17
-26.35
-32.92
-39.01
-44.89
-50.49
-55.2
-58.0
-57.87
-54.31
-47.71
-39.23
-30.38
-22.36
-15.81
-10.59
-6.15
-1.81
2.79
7.63
12.48
16.99
20.97
24.2
26.45
27.39
26.75
24.55
21.4
18.5
17.12
18.09
21.25
25.36
28.67
29.53
27.08
21.37
13.25
3.85
-5.79
-14.94
-23.16
-30.13
-35.59
-39.19
-40.63
-39.89
-37.43
-34.16
-31.13
-29.05
-27.89
-26.94
-25.16
-21.9
-17.26
-12.09
-7.5
-4.26
-2.41
-1.25
0.26
2.99
7.37
13.21
19.88
26.49
32.15
36.21
38.45
39.13
38.92
38.57
38.56
38.96
39.4
39.33
38.45
36.93
35.42
34.74
35.36
37.19
39.53
41.46
42.28
41.72
39.84
36.73
32.35
26.72
20.14
13.57
8.33
5.51
5.22
6.34
6.8
4.57
-1.44
-10.77
-21.71
-32.14
-40.39
-45.88
-49.06
-50.87
-52.15
-53.25
-54.0
-53.96
-52.74
-50.18
-46.41
-41.67
-36.24
-30.38
-24.44
-18.88
-14.32
-11.34
-10.36
-11.63
-15.05
-20.23
-26.36
-32.29
-36.79
-38.88
-38.21
-35.13
-30.54
-25.47
-20.71
-16.75
-13.76
-11.87
-11.26
-12.12
-14.51
-18.22
-22.7
-27.14
-30.7
-32.59
-32.34
-29.83
-25.26
-19.06
-11.67
-3.56
4.7
12.43
18.83
23.2
25.27
25.35
24.24
22.92
22.1
22.05
22.65
23.68
24.93
26.27
27.55
28.53
28.96
28.71
27.78
26.35
24.58
22.54
20.19
17.4
14.09
10.39
6.58
3.01
-0.14
-2.94
-5.53
-7.95
-9.87
-10.65
-9.6
-6.46
-1.83
3.02
6.55
7.75
6.55
3.67
0.22
-2.98
-5.56
-7.46
-8.57
-8.63
-7.3
-4.6
-1.04
2.51
5.15
6.42
6.48
5.94
5.41
5.24
5.28
5.23
4.8
3.97
2.98
2.15
1.63
1.34
1.08
0.81
0.72
1.18
2.44
4.37
6.36
7.58
7.25
5.08
1.31
-3.41
-8.17
-12.09
-14.44
-14.79
-13.11
-9.81
-5.63
-1.36
2.49
5.78
8.7
11.42
13.86
15.56
15.91
14.48
11.25
6.76
1.87
-2.57
-5.97
-8.21
-9.46
-9.97
-9.85
-9.05
-7.52
-5.38
-3.1
-1.21
-0.11
0.19
0.08
-0.01
0.17
0.55
0.91
1.03
0.88
0.55
0.06
-0.71
-1.88
-3.43
-4.98
-5.96
-5.87
-4.42
-1.71
1.86
5.74
9.39
12.33
14.29
15.23
15.38
15.2
15.1
15.4
16.09
16.91
17.55
17.67
17.12
15.81
13.61
10.36
5.92
0.38
-5.75
-11.56
-16.11
-18.64
-19.08
-18.01
-16.4
-15.11
-14.54
-14.51
-14.47
-13.83
-12.35
-10.24
-8.04
-6.4
-5.78
-6.32
-7.72
-9.31
-10.27
-9.89
-7.96
-4.84
-1.31
1.73
3.71
4.54
4.65
4.74
5.44
7.07
9.52
12.23
14.46
15.65
15.65
14.8
13.71
12.86
12.42
12.2
11.91
11.45
11.04
10.97
11.28
11.56
11.09
9.12
5.38
0.18
-5.64
-11.07
-15.35
-18.08
-19.32
-19.3
-18.38
-16.87
-15.07
-13.32
-11.93
-11.13
-10.98
-11.28
-11.59
-11.41
-10.49
-8.9
-7.03
-5.37
-4.18
-3.4
-2.71
-1.72
-0.13
2.18
5.18
8.7
12.39
15.75
18.21
19.34
19.05
17.6
15.66
13.94
13.02
13.14
14.14
15.68
17.33
18.79
19.92
20.65
20.82
20.01
17.63
13.29
7.15
0.08
-6.56
-11.52
-14.37
-15.65
-16.6
-18.37
-21.27
-24.66
-27.26
-28.0
-26.72
-24.28
-22.06
-21.13
-21.62
-22.62
-22.76
-21.06
-17.46
-12.81
-8.24
-4.38
-1.01
2.62
7.06
12.15
17.04
20.7
22.69
23.38
23.72
24.39
25.39
26.02
25.43
23.3
20.1
16.89
14.68
13.95
14.41
15.31
15.87
15.66
14.65
13.19
11.58
10.0
8.29
6.1
3.07
-0.92
-5.72
-10.91
-15.86
-19.96
-22.8
-24.22
-24.45
-23.97
-23.36
-23.08
-23.22
-23.44
-23.07
-21.6
-18.82
-15.09
-11.09
-7.44
-4.53
-2.3
-0.39
1.62
4.04
7.01
10.5
14.23
17.79
20.55
21.84
21.22
18.73
14.97
11.07
8.25
7.51
9.17
12.79
17.3
21.49
24.31
25.21
24.12
21.23
16.77
10.97
4.13
-3.22
-10.38
-16.63
-21.48
-24.83
-27.03
-28.52
-29.62
-30.34
-30.31
-29.07
-26.21
-21.58
-15.44
-8.42
-1.39
4.83
9.65
12.87
14.68
15.46
15.72
15.9
16.23
16.87
17.64
18.26
18.42
18.0
17.17
16.26
15.5
14.87
14.06
12.65
10.48
7.87
5.42
3.88
3.75
5.04
7.3
9.69
11.41
11.88
10.99
8.91
5.99
2.45
-1.64
-6.36
-11.69
-17.3
-22.58
-26.85
-29.68
-30.95
-30.86
-29.64
-27.45
-24.32
-20.27
-15.44
-10.11
-4.59
0.91
6.28
11.47
16.45
21.02
24.81
27.23
27.77
26.24
22.97
18.92
15.29
13.13
12.93
14.47
16.98
19.47
21.05
21.11
19.47
16.36
12.41
8.39
5.04
2.8
1.69
1.38
1.44
1.55
1.64
1.82
2.12
2.39
2.28
1.34
-0.79
-4.2
-8.78
-14.16
-19.75
-24.96
-29.25
-32.22
-33.51
-32.79
-29.8
-24.54
-17.54
-9.83
-2.63
3.15
7.28
10.18
12.56
14.84
16.94
18.44
18.96
18.55
17.69
17.06
17.16
18.11
19.77
21.94
24.48
27.25
29.85
31.61
31.7
29.48
24.86
18.39
11.18
4.46
-0.8
-4.29
-6.27
-7.42
-8.4
-9.66
-11.35
-13.38
-15.66
-18.13
-20.84
-23.92
-27.5
-31.67
-36.38
-41.32
-45.9
-49.24
-50.51
-49.19
-45.26
-39.21
-31.87
-24.06
-16.31
-8.82
-1.52
5.7
12.8
19.49
25.33
29.92
33.05
34.72
35.06
34.17
32.12
29.01
25.15
21.1
17.52
14.95
13.55
13.02
12.72
11.94
10.17
7.14
2.91
-2.11
-7.17
-11.43
-14.12
-14.98
-14.29
-12.7
-10.92
-9.33
-8.02
-7.07
-6.62
-6.94
-8.2
-10.36
-13.07
-15.87
-18.37
-20.33
-21.62
-22.1
-21.58
-19.93
-17.28
-14.06
-10.86
-8.13
-6.08
-4.49
-2.98
-1.2
0.98
3.33
5.47
6.87
7.21
6.55
5.27
4.0
3.26
3.35
4.16
5.41
6.85
8.26
9.65
11.02
12.24
12.98
12.76
11.2
8.19
4.09
-0.41
-4.5
-7.53
-9.17
-9.34
-8.01
-5.05
-0.22
6.42
14.35
22.32
28.8
32.42
32.67
30.07
26.04
22.36
20.47
21.03
23.79
27.89
32.26
36.07
38.93
40.76
41.66
41.68
40.88
39.27
36.96
34.1
30.79
26.88
22.04
16.02
8.78
0.78
-7.39
-15.23
-22.52
-29.27
-35.56
-41.38
-46.62
-51.32
-55.69
-60.14
-65.08
-70.58
-76.34
-81.6
-85.42
-86.79
-85.0
-79.81
-71.55
-61.17
-50.05
-39.67
-31.18
-25.22
-21.85
-20.72
-21.24
-22.78
-24.72
-26.42
-27.39
-27.26
-25.95
-23.71
-21.05
-18.5
-16.52
-15.11
-13.97
-12.61
-10.73
-8.46
-6.22
-4.5
-3.28
-2.08
-0.18
2.74
6.12
8.71
9.2
7.1
2.99
-1.6
-5.06
-6.47
-5.89
-4.27
-2.75
-2.16
-2.66
-3.76
-4.64
-4.58
-3.15
-0.38
3.44
7.94
12.81
17.92
23.07
27.89
31.68
33.61
32.98
29.51
23.53
15.83
7.56
-0.03
-5.9
-9.42
-10.51
-9.56
-7.36
-4.69
-2.15
-0.13
1.3
2.12
2.36
2.0
0.93
-0.97
-3.88
-7.75
-12.38
-17.21
-21.64
-25.16
-27.58
-28.8
-28.7
-26.99
-23.31
-17.58
-10.32
-2.52
4.71
10.63
15.06
18.28
20.68
22.41
23.54
24.09
24.13
23.93
23.87
24.25
25.33
27.2
29.66
32.12
33.57
32.85
29.16
22.53
13.85
4.52
-4.16
-11.37
-16.96
-20.98
-23.42
-24.12
-22.8
-19.47
-14.67
-9.28
-4.47
-1.16
0.22
-0.26
-2.06
-4.63
-7.36
-9.81
-11.65
-12.63
-12.49
-10.98
-7.96
-3.45
2.21
8.43
14.56
20.03
24.67
28.56
32.08
35.48
38.71
41.35
42.69
42.23
39.82
35.93
31.39
27.15
23.91
22.07
21.5
21.75
22.29
22.56
22.17
20.72
17.74
12.65
4.99
-5.37
-17.66
-30.26
-41.04
-48.04
-50.32
-48.22
-43.2
-37.13
-31.6
-27.55
-25.23
-24.5
-24.95
-26.04
-27.19
-27.81
-27.49
-25.93
-23.01
-18.64
-13.0
-6.58
-0.32
4.73
7.9
9.55
11.09
14.17
19.64
27.01
34.57
40.3
43.01
42.77
40.66
37.95
35.47
33.36
31.5
29.9
28.76
28.41
28.85
29.6
29.81
28.43
24.68
18.27
9.67
-0.1
-9.73
-17.99
-24.39
-29.02
-32.56
-35.59
-38.46
-41.11
-43.1
-43.86
-42.72
-39.2
-33.13
-24.78
-14.94
-4.64
5.11
13.64
20.77
26.54
30.93
33.89
35.35
35.55
35.0
34.38
34.29
34.94
36.09
37.16
37.64
37.11
35.56
33.39
31.16
29.5
28.57
28.07
27.41
26.02
23.65
20.45
16.82
13.0
9.1
5.09
1.07
-2.69
-5.97
-9.0
-12.39
-16.89
-22.97
-30.31
-37.9
-44.44
-48.76
-50.31
-49.23
-45.91
-40.87
-34.39
-26.53
-17.5
-7.82
1.4
8.86
13.57
15.51
15.62
15.39
15.98
17.49
19.0
19.06
16.91
12.96
8.74
6.14
6.59
10.38
16.65
23.78
29.84
33.25
33.07
29.38
23.11
15.76
8.8
3.24
-0.58
-2.85
-4.06
-4.73
-5.51
-7.12
-10.4
-16.0
-24.09
-33.99
-44.25
-52.95
-58.23
-58.95
-55.03
-47.74
-39.24
-31.84
-27.02
-24.79
-23.7
-21.69
-17.24
-10.15
-1.61
6.51
12.56
15.8
16.45
15.42
13.58
11.54
9.44
7.34
5.44
4.25
4.38
6.12
9.18
12.57
15.06
15.62
14.1
11.25
8.51
7.16
7.83
10.34
13.82
17.1
19.13
19.1
16.72
12.17
6.17
-0.24
-6.07
-10.86
-14.89
-18.99
-24.14
-30.98
-39.34
-48.23
-56.37
-62.45
-65.45
-64.68
-59.95
-51.4
-39.73
-26.18
-12.26
0.34
10.25
16.79
20.14
21.26
21.37
21.48
21.98
22.95
24.27
26.09
28.81
32.67
37.47
42.35
46.18
48.08
47.79
46.03
43.92
42.48
42.18
42.78
43.43
42.99
40.39
35.13
27.45
18.46
9.74
2.73
-1.84
-4.1
-4.78
-4.68
-4.12
-2.9
-0.54
3.11
7.7
12.53
16.97
21.03
25.23
30.49
37.39
45.74
54.37
61.57
65.86
66.61
64.31
59.95
54.29
47.24
38.05
26.01
11.27
-4.88
-20.35
-33.27
-42.89
-49.69
-55.15
-60.76
-67.22
-74.16
-80.29
-84.06
-84.35
-81.03
-74.93
-67.68
-61.1
-56.35
-53.73
-52.63
-52.06
-51.16
-49.46
-46.83
-43.17
-38.36
-32.18
-24.7
-16.42
-8.33
-1.57
2.94
4.87
4.51
2.59
0.06
-2.32
-4.16
-5.34
-6.06
-6.69
-7.73
-9.7
-12.85
-17.05
-21.81
-26.43
-30.25
-32.9
-34.22
-34.05
-32.25
-28.76
-23.96
-18.86
-14.7
-12.34
-11.7
-11.71
-11.0
-8.8
-5.47
-2.22
-0.33
-0.41
-2.09
-4.54
-6.94
-8.84
-9.89
-9.68
-7.69
-3.72
1.75
7.64
12.71
16.48
19.41
22.45
26.19
30.24
33.26
33.74
30.78
24.55
16.2
7.27
-0.74
-6.83
-10.44
-11.45
-9.89
-5.98
-0.07
7.29
15.21
22.4
27.5
29.55
28.48
25.29
21.56
18.71
17.49
17.86
19.3
21.6
24.82
29.43
35.85
44.26
54.48
66.3
79.74
94.94
111.45
127.45
139.35
142.67
133.73
111.76
79.96
44.78
13.59
-8.22
-19.09
-21.29
-19.01
-16.04
-14.1
-13.02
-12.04
-11.05
-11.03
-13.3
-18.34
-25.18
-31.7
-35.49
-35.06
-30.38
-22.97
-15.11
-8.97
-5.72
-5.27
-6.38
-7.43
-7.33
-5.91
-3.96
-2.73
-3.23
-5.81
-10.1
-15.26
-20.3
-24.48
-27.4
-29.04
-29.62
-29.5
-29.13
-28.94
-29.37
-30.77
-33.31
-36.84
-40.84
-44.58
-47.4
-48.96
-49.36
-48.95
-48.08
-46.78
-44.85
-42.06
-38.42
-34.33
-30.4
-27.2
-25.02
-23.97
-24.14
-25.62
-28.66
-33.31
-39.17
-45.33
-50.41
-53.02
-52.16
-47.59
-39.86
-30.02
-19.28
-8.6
1.41
10.34
17.81
23.37
26.78
28.2
28.34
28.18
28.5
29.47
30.62
31.26
30.92
29.69
28.19
27.16
27.17
28.32
30.38
32.98
35.75
38.3
40.28
41.24
40.84
38.74
34.97
29.89
24.23
18.99
15.0
12.76
12.13
12.54
13.13
13.15
12.19
10.11
7.07
3.28
-0.97
-5.3
-9.32
-12.49
-14.41
-14.81
-13.65
-11.1
-7.49
-3.36
0.69
4.12
6.64
8.18
8.96
9.23
9.16
8.82
8.12
7.06
5.74
4.42
3.38
2.9
3.17
4.16
5.53
6.7
7.0
6.09
4.12
1.66
-0.49
-1.79
-2.17
-1.92
-1.47
-1.09
-0.8
-0.52
-0.3
-0.42
-1.29
-3.08
-5.57
-8.16
-10.18
-11.24
-11.47
-11.29
-11.29
-11.76
-12.57
-13.21
-12.98
-11.42
-8.4
-4.26
0.42
4.93
8.61
11.16
12.6
13.31
13.76
14.3
14.93
15.32
15.14
14.27
12.98
11.76
10.92
10.46
9.99
9.04
7.39
5.2
2.94
1.0
-0.49
-1.8
-3.32
-5.32
-7.72
-10.13
-11.93
-12.58
-11.89
-10.16
-8.16
-6.79
-6.79
-8.38
-11.17
-14.36
-17.19
-19.25
-20.5
-21.14
-21.24
-20.68
-19.24
-16.83
-13.72
-10.57
-8.11
-6.8
-6.6
-6.83
-6.59
-5.11
-2.11
2.07
6.7
11.06
14.85
18.19
21.48
24.96
28.41
31.12
32.3
31.47
28.86
25.25
21.59
18.61
16.42
14.68
12.74
10.05
6.37
1.91
-2.85
-7.5
-11.79
-15.84
-19.83
-23.73
-27.12
-29.2
-29.22
-26.81
-22.31
-16.61
-10.8
-5.79
-2.03
0.17
0.7
-0.5
-3.22
-6.93
-10.77
-13.74
-14.97
-13.86
-10.26
-4.42
2.95
10.72
17.54
22.17
23.85
22.66
19.45
15.51
12.21
10.66
11.45
14.59
19.54
25.19
30.2
33.34
33.9
31.98
28.28
23.7
19.1
14.96
11.39
8.31
5.52
2.84
0.19
-2.36
-4.61
-6.21
-7.01
-7.23
-7.43
-8.34
-10.45
-13.72
-17.53
-20.94
-23.05
-23.36
-21.83
-18.83
-14.96
-10.93
-7.45
-5.18
-4.47
-5.36
-7.43
-9.94
-12.04
-13.06
-12.76
-11.37
-9.47
-7.61
-6.03
-4.56
-2.8
-0.41
2.62
5.89
8.84
11.01
12.2
12.54
12.27
11.59
10.59
9.31
7.88
6.49
5.36
4.55
3.92
3.15
1.88
-0.01
-2.27
-4.18
-4.83
-3.52
-0.15
4.66
9.76
13.99
16.66
17.7
17.47
16.42
14.8
12.6
9.77
6.55
3.53
1.53
1.25
2.99
6.52
11.24
16.31
20.99
24.64
26.79
26.95
24.64
19.45
11.36
0.96
-10.64
-22.15
-32.64
-41.88
-50.2
-58.03
-65.38
-71.66
-75.91
-77.37
-75.74
-71.27
-64.5
-56.05
-46.48
-36.5
-26.88
-18.33
-11.21
-5.38
-0.33
4.51
9.35
14.01
17.94
20.58
21.68
21.36
20.09
18.52
17.18
16.28
15.54
14.39
12.33
9.32
5.95
3.28
2.35
3.77
7.48
12.97
19.52
26.57
33.77
40.99
48.18
55.34
62.41
69.34
76.0
82.18
87.61
92.08
95.58
98.31
100.59
102.66
104.51
105.88
106.26
105.02
101.62
95.79
87.6
77.47
65.99
53.84
41.64
29.99
19.35
10.04
2.06
-4.97
-11.65
-18.51
-25.88
-33.66
-41.57
-49.18
-56.15
-62.28
-67.59
-72.29
-76.71
-81.22
-85.92
-90.53
-94.32
-96.48
-96.58
-94.85
-92.16
-89.54
-87.63
-86.46
-85.54
-84.15
-81.7
-77.85
-72.4
-65.33
-56.89
-47.72
-38.76
-31.07
-25.42
-21.99
-20.36
-19.66
-19.01
-17.81
-15.97
-13.85
-12.17
-11.67
-12.76
-15.44
-19.1
-22.72
-25.24
-25.76
-23.86
-19.72
-14.11
-8.32
-3.78
-1.61
-2.26
-5.32
-9.7
-14.13
-17.53
-19.33
-19.38
-17.86
-15.15
-11.79
-8.48
-5.86
-4.18
-3.05
-1.51
1.56
6.92
14.55
23.57
32.62
40.28
45.62
48.31
48.74
47.58
45.57
43.17
40.43
37.12
32.85
27.48
21.2
14.53
8.09
2.29
-2.88
-7.74
-12.72
-18.11
-23.88
-29.6
-34.52
-37.71
-38.26
-35.61
-29.87
-21.87
-13.13
-5.43
-0.42
0.87
-1.86
-8.18
-17.12
-27.39
-37.54
-46.05
-51.49
-52.91
-50.08
-43.65
-35.04
-25.9
-17.63
-10.98
-6.05
-2.67
-0.58
0.25
-0.28
-2.09
-4.91
-8.17
-11.23
-13.37
-14.05
-12.78
-9.3
-3.71
3.37
10.75
17.01
20.9
21.96
20.46
17.23
13.2
9.05
5.28
2.41
1.04
1.75
4.74
9.47
14.62
18.39
19.21
16.33
9.96
1.06
-9.15
-19.76
-30.27
-40.36
-49.49
-56.61
-60.34
-59.53
-53.81
-43.84
-31.16
-17.59
-4.61
6.93
16.57
24.09
29.22
31.79
31.84
29.67
25.85
21.07
16.19
12.14
9.99
10.54
13.96
19.61
26.1
31.96
36.09
38.08
38.03
36.25
32.97
28.41
22.9
17.12
11.97
8.29
6.4
5.9
5.77
4.64
1.3
-4.8
-13.35
-23.22
-32.94
-41.03
-46.62
-49.36
-49.16
-46.07
-40.04
-31.22
-20.13
-7.81
4.5
15.78
25.38
33.19
39.09
42.9
44.25
42.88
38.9
32.97
26.29
20.2
15.99
14.44
15.61
18.92
23.47
28.39
33.11
37.3
40.59
42.36
41.92
39.03
34.42
29.55
26.2
25.48
27.21
29.92
31.42
29.73
23.82
13.86
1.03
-12.83
-25.69
-35.74
-41.85
-43.63
-41.4
-35.83
-27.5
-16.57
-2.75
14.4
35.16
59.09
84.44
107.69
123.81
127.67
116.2
90.21
54.8
17.75
-13.29
-33.58
-42.42
-42.3
-36.95
-29.34
-20.98
-12.33
-3.87
3.35
7.88
8.61
5.57
-0.0
-6.18
-11.08
-13.58
-13.64
-12.21
-10.65
-10.11
-11.08
-13.28
-16.01
-18.61
-20.94
-23.41
-26.72
-31.37
-37.28
-43.67
-49.2
-52.39
-52.05
-47.74
-39.89
-29.67
-18.64
-8.2
0.74
7.86
13.25
17.03
19.3
20.07
19.46
17.94
16.25
15.14
15.12
16.29
18.35
20.85
23.39
25.69
27.61
29.02
29.77
29.66
28.53
26.25
22.83
18.46
13.57
8.71
4.57
1.78
0.64
1.09
2.42
3.45
2.92
-0.0
-5.34
-12.2
-19.14
-24.78
-28.34
-29.76
-29.45
-27.8
-24.96
-20.78
-15.27
-8.76
-1.98
4.2
9.25
12.98
15.58
17.17
17.85
17.54
16.25
14.19
11.83
9.79
8.56
8.34
8.96
10.05
11.21
12.06
12.31
11.75
10.08
7.17
3.07
-1.73
-6.39
-9.97
-11.88
-12.05
-10.93
-9.26
-7.72
-6.83
-7.0
-8.49
-11.4
-15.5
-20.08
-24.24
-27.03
-27.93
-26.95
-24.57
-21.29
-17.38
-12.81
-7.33
-0.88
6.28
13.47
19.75
24.18
26.14
25.42
22.47
18.15
13.52
9.54
6.86
5.81
6.38
8.44
11.6
15.49
19.6
23.42
26.42
28.06
27.97
26.05
22.62
18.42
14.41
11.4
9.7
9.04
8.71
7.91
6.08
2.94
-1.49
-7.06
-13.48
-20.39
-27.17
-33.09
-37.49
-39.85
-39.99
-37.95
-33.99
-28.48
-21.92
-14.91
-7.92
-1.34
4.65
9.91
14.18
17.01
17.93
16.68
13.49
9.2
5.08
2.4
2.07
4.28
8.45
13.41
17.83
20.67
21.47
20.38
17.96
14.82
11.47
8.25
5.42
3.28
2.02
1.61
1.65
1.41
0.17
-2.61
-6.96
-12.49
-18.46
-24.03
-28.43
-31.19
-32.4
-32.55
-32.43
-32.63
-33.15
-33.4
-32.46
-29.61
-24.7
-18.31
-11.44
-5.07
0.08
3.84
6.38
8.11
9.44
10.71
12.1
13.66
15.43
17.47
19.92
22.87
26.13
29.01
30.59
30.04
27.17
22.46
16.9
11.49
6.8
2.91
-0.35
-3.12
-5.37
-6.93
-7.83
-8.53
-9.86
-12.73
-17.56
-23.98
-30.9
-37.01
-41.3
-43.51
-44.0
-43.34
-41.76
-39.01
-34.31
-27.07
-17.3
-5.79
6.04
16.67
24.81
29.64
30.8
28.54
23.64
17.39
11.35
6.93
5.07
6.07
9.56
14.64
20.13
24.72
27.25
27.01
23.94
18.73
12.64
6.94
2.52
-0.3
-1.81
-2.61
-3.33
-4.44
-6.16
-8.43
-11.01
-13.63
-16.05
-18.31
-20.56
-23.05
-25.93
-29.18
-32.62
-35.71
-37.69
-37.56
-34.41
-27.83
-18.17
-6.68
4.91
14.93
22.38
27.13
29.63
30.67
30.95
31.02
31.16
31.5
32.01
32.47
32.64
32.37
31.63
30.43
28.67
26.19
22.91
19.08
15.19
11.67
8.56
5.52
2.02
-2.2
-6.93
-11.54
-15.5
-18.6
-21.05
-23.37
-26.0
-29.25
-33.05
-37.12
-40.92
-43.64
-44.44
-42.67
-38.25
-31.7
-23.95
-15.76
-7.57
0.52
8.43
15.89
22.5
27.91
31.9
34.49
35.68
35.5
34.02
31.6
29.02
27.24
27.08
28.78
31.83
35.17
37.6
38.24
36.86
33.85
30.02
26.31
23.54
22.19
22.38
23.83
25.87
27.64
28.15
26.73
23.38
19.05
15.47
14.39
16.91
22.68
29.99
36.45
39.92
39.49
35.61
29.69
23.42
18.17
14.78
13.5
14.33
17.12
21.73
27.84
34.92
42.34
49.37
55.46
60.34
63.95
66.37
67.54
67.19
64.76
59.66
51.49
40.25
26.5
11.24
-4.33
-19.03
-31.96
-42.49
-50.36
-55.53
-58.21
-58.67
-57.39
-55.05
-52.51
-50.67
-50.15
-51.15
-53.32
-55.88
-57.94
-58.85
-58.36
-56.7
-54.36
-51.97
-49.95
-48.49
-47.47
-46.62
-45.75
-44.88
-44.09
-43.3
-42.07
-39.65
-35.39
-29.21
-21.8
-14.32
-7.87
-2.92
0.68
3.51
5.92
7.79
8.67
8.15
6.34
3.87
1.57
0.05
-0.51
-0.34
0.1
0.46
0.48
-0.01
-1.04
-2.58
-4.47
-6.38
-7.95
-8.86
-9.01
-8.52
-7.77
-7.32
-7.77
-9.68
-13.4
-19.08
-26.41
-34.72
-42.91
-49.77
-54.2
-55.58
-53.98
-50.0
-44.66
-38.85
-33.28
-28.2
-23.54
-19.0
-14.18
-8.81
-2.93
3.02
8.27
12.01
13.71
13.38
11.52
8.87
6.15
3.9
2.59
2.51
3.85
6.43
9.64
12.47
13.78
12.67
8.93
3.02
-3.86
-10.24
-14.76
-16.62
-15.84
-13.23
-10.03
-7.44
-6.19
-6.4
-7.78
-9.9
-12.4
-15.0
-17.26
-18.61
-18.44
-16.44
-12.82
-8.22
-3.34
1.27
5.63
10.09
15.11
20.89
27.13
33.05
37.52
39.54
38.54
34.67
28.84
22.44
16.95
13.41
12.28
13.25
15.41
17.63
18.68
17.7
14.31
8.78
1.9
-5.29
-11.64
-16.28
-18.68
-18.84
-17.26
-14.84
-12.61
-11.46
-11.8
-13.41
-15.59
-17.57
-18.92
-19.73
-20.47
-21.62
-23.29
-25.1
-26.3
-26.14
-24.06
-19.91
-13.87
-6.5
1.43
9.15
15.95
21.32
25.0
27.03
27.67
27.38
26.67
25.99
25.66
25.75
26.21
26.83
27.28
27.2
26.15
23.76
19.87
14.75
9.1
3.85
-0.17
-2.57
-3.55
-3.72
-3.82
-4.36
-5.54
-7.28
-9.31
-11.3
-12.96
-14.13
-14.84
-15.39
-16.2
-17.72
-20.11
-23.3
-26.94
-30.44
-33.05
-33.9
-32.16
-27.4
-19.88
-10.61
-1.15
6.94
12.59
15.56
16.33
15.81
14.98
14.58
15.01
16.31
18.18
20.26
22.2
23.83
25.1
25.89
25.9
24.76
22.13
18.12
13.4
8.93
5.55
3.55
2.54
1.8
0.74
-0.71
-2.05
-2.57
-1.89
-0.19
1.76
2.92
2.56
0.68
-2.07
-4.59
-6.0
-6.01
-4.99
-3.64
-2.54
-1.81
-1.11
0.09
2.26
5.52
9.67
14.35
19.19
23.96
28.51
32.77
36.54
39.57
41.64
42.7
43.12
43.54
44.75
47.27
51.02
55.36
59.38
62.25
63.6
63.39
61.76
58.81
54.69
49.64
44.19
38.95
34.29
30.17
26.09
21.42
15.65
8.68
0.78
-7.48
-15.41
-22.42
-28.09
-32.31
-35.33
-37.68
-39.96
-42.49
-45.15
-47.33
-48.1
-46.59
-42.33
-35.43
-26.51
-16.64
-6.89
1.82
8.99
14.59
18.87
21.95
23.75
24.07
22.83
20.35
17.3
14.45
12.33
11.05
10.31
9.7
8.98
8.14
7.38
6.84
6.33
5.36
3.2
-0.61
-6.05
-12.58
-19.31
-25.5
-30.85
-35.66
-40.5
-45.92
-52.0
-58.35
-64.51
-70.09
-74.94
-78.96
-81.94
-83.42
-82.93
-80.26
-75.59
-69.44
-62.42
-55.0
-47.49
-39.92
-32.24
-24.4
-16.51
-8.95
-2.37
2.58
5.53
6.76
7.07
7.45
8.56
10.41
12.44
13.96
14.54
14.14
13.08
11.6
9.78
7.51
4.65
1.26
-2.53
-6.44
-10.32
-14.16
-18.05
-22.14
-26.45
-30.86
-34.96
-38.12
-39.71
-39.35
-37.06
-33.19
-28.21
-22.49
-16.25
-9.55
-2.54
4.52
11.37
17.84
23.91
29.66
35.21
40.62
45.89
50.93
55.56
59.39
61.92
62.58
61.0
57.28
51.89
45.67
39.49
34.0
29.5
25.95
23.26
21.31
20.11
19.54
19.16
18.22
15.77
11.05
3.89
-5.05
-14.47
-22.87
-29.05
-32.46
-33.19
-31.75
-28.87
-25.13
-21.08
-17.15
-13.77
-11.34
-10.25
-10.89
-13.59
-18.37
-24.88
-32.28
-39.39
-45.02
-48.32
-48.94
-47.15
-43.6
-38.98
-33.86
-28.43
-22.64
-16.34
-9.58
-2.9
2.78
6.45
7.53
6.21
3.42
0.46
-1.68
-2.72
-3.08
-3.59
-4.87
-7.12
-10.15
-13.66
-17.45
-21.42
-25.37
-28.8
-31.09
-31.58
-29.95
-26.32
-21.14
-15.07
-8.61
-2.06
4.42
10.59
16.11
20.59
23.71
25.45
25.89
25.14
23.32
20.56
17.28
14.23
12.22
11.81
13.01
15.2
17.42
18.92
19.47
19.32
18.98
18.72
18.48
18.08
17.29
16.09
14.36
11.87
8.28
3.41
-2.48
-8.63
-13.91
-17.34
-18.28
-16.74
-13.38
-9.23
-5.39
-2.68
-1.52
-1.85
-3.36
-5.73
-8.66
-11.89
-14.94
-17.06
-17.57
-16.02
-12.55
-7.9
-3.03
1.23
4.55
7.05
9.06
10.82
12.35
13.61
14.51
15.01
15.16
15.0
14.65
14.33
14.3
14.66
15.32
15.89
15.98
15.33
13.82
11.52
8.48
4.75
0.52
-3.78
-7.42
-9.48
-9.21
-6.3
-0.95
6.0
13.27
19.56
23.87
25.91
26.11
25.36
24.43
23.62
22.62
20.78
17.74
13.69
9.39
5.81
3.58
2.74
2.83
3.26
3.68
4.09
4.63
5.34
5.96
5.99
4.9
2.48
-0.94
-4.5
-7.18
-8.39
-8.17
-7.25
-6.6
-6.9
-8.19
-9.88
-11.21
-11.62
-11.18
-10.36
-9.79
-9.86
-10.4
-10.81
-10.29
-8.24
-4.52
0.43
5.84
10.94
15.25
18.74
21.55
23.73
25.05
25.14
23.78
21.18
17.93
14.7
12.05
10.05
8.39
6.63
4.43
1.7
-1.32
-4.22
-6.47
-7.66
-7.76
-7.09
-6.25
-5.7
-5.48
-5.11
-4.01
-1.96
0.58
2.58
2.99
1.4
-1.7
-5.18
-7.83
-8.94
-8.57
-7.36
-6.13
-5.47
-5.69
-6.8
-8.72
-11.3
-14.42
-17.82
-21.02
-23.42
-24.28
-23.17
-19.99
-15.19
-9.53
-3.83
1.25
5.43
8.71
11.29
13.28
14.59
14.93
13.95
11.5
7.73
3.25
-1.14
-4.63
-6.73
-7.38
-6.82
-5.46
-3.56
-1.23
1.51
4.68
8.25
12.17
16.27
20.34
23.97
26.68
28.06
27.94
26.59
24.58
22.52
20.94
20.04
19.86
20.32
21.15
21.94
22.08
20.95
18.12
13.48
7.23
-0.14
-8.05
-15.87
-23.07
-29.23
-34.17
-37.92
-40.62
-42.31
-42.76
-41.65
-38.76
-34.41
-29.43
-24.94
-21.78
-20.01
-18.98
-17.68
-15.33
-11.76
-7.49
-3.37
-0.09
2.13
3.66
5.13
7.06
9.62
12.59
15.57
18.27
20.63
22.76
24.81
26.74
28.34
29.39
29.79
29.58
28.96
28.05
26.96
25.84
24.82
24.04
23.42
22.7
21.53
19.74
17.37
14.57
11.49
8.03
4.02
-0.62
-5.61
-10.32
-14.16
-16.91
-19.0
-21.35
-24.87
-30.01
-36.4
-42.96
-48.3
-51.16
-50.89
-47.55
-41.76
-34.42
-26.23
-17.64
-8.84
-0.05
8.23
15.27
20.35
23.21
24.12
24.01
23.87
24.42
25.8
27.62
29.21
29.94
29.63
28.55
27.41
26.94
27.52
29.0
30.74
31.87
31.8
30.32
27.6
23.97
19.55
14.33
8.43
2.34
-3.0
-6.52
-7.66
-6.75
-5.03
-4.17
-5.37
-8.87
-13.81
-18.58
-21.57
-21.89
-19.65
-15.78
-11.55
-7.91
-5.19
-3.11
-1.04
1.54
4.93
9.06
13.64
18.15
22.0
24.55
25.35
24.34
21.8
18.22
14.04
9.45
4.37
-1.28
-7.32
-13.37
-19.01
-24.09
-28.78
-33.34
-37.83
-41.94
-45.09
-46.69
-46.46
-44.48
-41.16
-37.06
-32.93
-29.48
-27.33
-26.74
-27.51
-29.12
-30.96
-32.54
-33.65
-34.09
-33.64
-31.9
-28.68
-24.25
-19.49
-15.58
-13.34
-12.74
-12.84
-12.28
-10.07
-6.18
-1.48
2.86
6.05
8.28
10.48
13.81
18.94
25.52
32.41
38.25
42.06
43.65
43.49
42.44
41.26
40.47
40.18
40.26
40.43
40.5
40.42
40.33
40.43
40.81
41.15
40.87
39.23
35.74
30.45
23.94
17.08
10.65
5.04
0.22
-4.01
-7.76
-10.97
-13.26
-14.25
-13.69
-11.67
-8.72
-5.62
-3.24
-2.25
-2.87
-4.81
-7.44
-10.06
-12.09
-13.14
-13.04
-11.73
-9.41
-6.46
-3.32
-0.32
2.61
5.82
9.74
14.4
19.27
23.34
25.62
25.69
23.85
21.06
18.41
16.67
16.05
16.17
16.35
15.78
13.82
10.12
4.76
-1.87
-9.32
-17.14
-25.1
-33.09
-40.98
-48.5
-55.19
-60.51
-64.0
-65.41
-64.73
-62.16
-58.11
-52.98
-47.13
-40.75
-33.89
-26.67
-19.47
-12.94
-7.84
-4.66
-3.34
-3.15
-3.07
-2.19
-0.07
3.17
6.94
10.43
12.84
13.55
12.24
8.95
4.14
-1.4
-6.85
-11.53
-15.09
-17.46
-18.8
-19.37
-19.39
-19.07
-18.55
-17.79
-16.81
-15.6
-14.23
-12.79
-11.39
-10.09
-8.94
-8.23
-8.36
-9.69
-12.27
-15.58
-18.61
-20.21
-19.61
-16.61
-11.63
-5.36
1.47
8.22
14.28
18.9
21.32
21.11
18.41
14.05
9.22
5.08
2.26
0.73
-0.07
-0.74
-1.59
-2.46
-2.83
-2.17
-0.36
2.22
4.87
6.95
8.18
8.71
8.99
9.38
10.02
10.76
11.27
11.29
10.6
9.22
7.26
5.04
2.89
1.03
-0.54
-2.12
-4.13
-6.87
-10.29
-13.82
-16.73
-18.21
-17.75
-15.21
-10.73
-4.78
1.96
8.73
14.76
19.6
23.07
25.32
26.65
27.3
27.35
26.72
25.28
22.79
19.15
14.49
9.35
4.54
0.89
-1.0
-1.18
-0.21
1.01
1.76
1.79
1.37
1.05
1.4
2.6
4.48
6.67
8.78
10.69
12.49
14.38
16.4
18.24
19.33
19.07
17.23
14.11
10.45
6.93
3.9
1.19
-1.63
-4.91
-8.65
-12.43
-15.68
-17.79
-18.32
-17.07
-14.03
-9.53
-4.08
1.87
7.98
14.1
20.09
25.62
30.15
33.05
33.99
33.16
31.26
29.1
27.28
25.91
24.67
23.02
20.47
16.84
12.34
7.58
3.51
1.06
0.8
2.45
5.13
7.75
9.69
11.14
12.75
15.01
17.75
19.98
20.47
18.42
13.96
8.03
1.9
-3.57
-8.16
-12.23
-16.25
-20.42
-24.58
-28.34
-31.44
-33.86
-35.73
-37.01
-37.35
-36.15
-32.84
-27.25
-19.92
-11.78
-3.77
3.72
11.01
18.71
27.18
35.98
43.86
49.1
50.27
46.68
38.62
27.29
14.43
1.96
-8.35
-15.33
-18.59
-18.51
-15.92
-11.8
-7.0
-2.1
2.36
5.96
8.22
8.95
8.26
6.59
4.53
2.52
0.72
-1.08
-3.3
-6.27
-9.99
-14.1
-17.89
-20.65
-21.95
-22.05
-21.71
-22.16
-24.48
-29.1
-35.64
-42.93
-49.45
-53.78
-54.95
-52.7
-47.37
-39.9
-31.42
-23.06
-15.63
-9.51
-4.84
-1.56
0.34
0.92
0.33
-1.19
-3.29
-5.7
-8.27
-11.02
-14.0
-17.19
-20.31
-22.77
-23.7
-22.22
-17.77
-10.4
-0.89
9.44
19.3
27.78
34.59
39.94
44.02
46.93
48.58
49.1
48.86
48.45
48.37
48.6
48.6
47.58
45.02
41.0
36.11
31.01
26.03
20.99
15.53
9.44
3.14
-2.4
-5.99
-6.77
-4.72
-0.71
3.79
7.49
9.7
10.51
10.52
10.2
9.68
8.83
7.63
6.34
5.47
5.62
6.94
9.11
11.46
13.36
14.56
15.24
15.99
17.6
20.87
26.25
33.54
41.74
49.23
54.34
56.14
54.72
51.01
46.04
40.33
33.63
25.42
15.6
4.7
-6.11
-15.81
-23.93
-30.7
-36.84
-43.04
-49.69
-56.7
-63.65
-69.98
-75.33
-79.66
-83.21
-86.27
-88.73
-89.91
-88.69
-84.01
-75.62
-64.47
-52.48
-41.77
-33.82
-28.88
-26.17
-24.44
-22.63
-20.27
-17.44
-14.56
-12.13
-10.44
-9.35
-8.39
-6.89
-4.36
-0.82
3.26
7.12
10.21
12.44
14.22
16.08
18.27
20.57
22.34
22.96
22.07
19.78
16.63
13.37
10.61
8.67
7.62
7.11
6.74
6.13
5.08
3.7
2.26
1.17
0.77
1.3
2.94
5.68
9.47
13.93
18.45
22.24
24.58
25.1
24.01
22.24
21.1
21.83
24.9
29.74
34.79
38.23
38.81
36.41
32.11
27.59
24.45
23.62
25.27
28.87
33.39
37.45
39.49
38.19
32.96
24.25
13.47
2.44
-7.34
-15.03
-20.36
-23.42
-24.41
-23.89
-22.83
-22.71
-25.01
-30.38
-38.05
-46.0
-51.7
-53.12
-49.53
-41.58
-30.92
-19.31
-8.06
2.34
12.18
22.21
33.05
44.86
57.15
69.01
79.54
88.2
95.09
100.78
106.12
112.02
119.18
127.98
138.07
148.28
156.58
160.56
158.4
149.42
134.36
114.79
92.48
68.68
44.08
19.21
-5.15
-27.83
-47.82
-64.62
-78.74
-91.54
-104.69
-119.42
-136.0
-153.53
-170.05
-183.13
-190.5
-190.76
-183.88
-171.28
-155.39
-138.79
-123.5
-110.38
-99.25
-89.19
-79.12
-68.14
-55.82
-42.3
-28.15
-14.16
-0.94
11.43
23.39
35.59
48.31
60.92
71.8
78.79
79.98
74.43
62.51
45.67
25.88
5.03
-15.26
-33.83
-49.76
-62.45
-71.72
-77.96
-82.33
-86.39
-91.73
-99.26
-108.66
-118.39
-126.18
-129.89
-128.27
-121.49
-110.84
-98.11
-84.85
-71.83
-59.02
-45.86
-31.85
-17.04
-2.17
11.53
23.0
31.76
38.22
43.29
47.77
51.88
55.15
56.86
56.52
54.3
50.81
46.8
42.71
38.55
34.2
29.64
25.12
21.16
18.22
16.55
16.17
16.76
17.85
18.7
18.49
16.45
12.04
5.14
-3.92
-14.3
-24.79
-33.97
-40.35
-42.72
-40.34
-33.17
-21.83
-7.41
8.74
25.31
41.09
55.15
66.81
75.53
80.98
82.85
81.05
75.76
67.63
57.82
47.86
39.19
32.79
28.96
27.39
27.48
28.58
30.03
31.14
31.08
29.05
24.59
17.88
9.68
1.02
-7.14
-14.24
-20.13
-24.97
-29.08
-32.85
-36.69
-41.0
-46.15
-52.33
-59.47
-67.29
-75.18
-82.4
-88.05
-91.29
-91.53
-88.54
-82.38
-73.42
-62.16
-49.07
-34.56
-19.01
-2.75
13.77
29.93
44.7
56.76
64.82
68.24
67.57
64.43
60.94
58.67
58.06
58.39
58.45
57.39
55.06
51.93
48.65
45.62
42.97
40.71
38.86
37.4
36.01
34.04
30.68
25.41
18.19
9.52
0.16
-9.09
-17.56
-24.75
-30.57
-35.39
-40.11
-45.78
-52.95
-61.33
-69.72
-76.56
-80.59
-81.43
-79.33
-74.63
-67.29
-56.61
-41.81
-22.78
-0.66
22.12
42.86
59.52
71.67
80.43
87.84
95.83
105.44
116.87
129.48
141.99
152.16
156.81
152.42
136.55
109.4
74.52
38.09
6.55
-15.81
-28.2
-33.02
-33.89
-33.64
-33.43
-33.07
-32.14
-30.9
-30.33
-31.42
-34.38
-38.48
-42.49
-45.3
-46.44
-46.37
-46.27
-47.42
-50.64
-55.79
-61.69
-66.47
-68.36
-66.33
-60.48
-51.92
-42.08
-32.11
-22.57
-13.36
-4.2
4.95
13.56
20.73
25.51
27.39
26.59
24.0
20.86
18.23
16.66
16.1
16.11
16.12
15.74
14.69
12.84
10.03
6.26
1.82
-2.59
-6.0
-7.57
-6.94
-4.46
-0.98
2.4
4.76
5.6
4.87
2.91
0.29
-2.42
-4.86
-7.12
-9.47
-12.25
-15.38
-18.26
-19.91
-19.37
-16.2
-10.63
-3.48
4.34
12.15
19.53
26.28
32.11
36.61
39.31
39.97
38.73
36.17
33.14
30.5
28.89
28.53
29.2
30.43
31.83
33.23
34.74
36.46
38.42
40.39
42.11
43.37
44.22
44.86
45.48
46.1
46.58
46.71
46.35
45.36
43.55
40.68
36.48
30.8
23.82
15.98
7.7
-0.66
-9.0
-17.22
-25.23
-32.96
-40.35
-47.33
-53.71
-58.94
-62.11
-62.2
-58.54
-51.21
-41.21
-30.21
-20.05
-12.12
-7.05
-4.62
-4.22
-5.18
-7.2
-10.18
-14.08
-18.39
-22.16
-24.16
-23.43
-19.81
-14.06
-7.6
-1.89
2.12
4.3
5.18
5.53
6.04
7.0
8.41
10.09
11.76
13.21
14.35
15.23
15.81
15.95
15.19
13.02
9.2
3.95
-1.9
-7.27
-11.27
-13.58
-14.56
-15.17
-16.52
-19.57
-24.61
-31.19
-38.09
-43.64
-46.33
-45.27
-40.6
-33.32
-24.89
-16.55
-8.96
-2.25
3.8
9.4
14.66
19.69
24.7
29.93
35.53
41.42
47.25
52.46
56.61
59.38
60.75
60.94
60.34
59.36
58.2
56.64
54.18
50.26
44.72
38.01
31.06
24.77
19.58
15.31
11.33
7.01
1.91
-4.05
-10.81
-18.16
-25.82
-33.25
-39.78
-44.9
-48.51
-51.13
-53.67
-56.9
-61.08
-65.76
-69.98
-72.61
-72.84
-70.3
-65.13
-57.85
-49.14
-39.63
-29.77
-19.76
-9.83
-0.28
8.36
15.57
21.04
24.84
27.3
28.77
29.48
29.49
29.01
28.5
28.63
29.88
32.31
35.39
38.2
39.84
39.64
37.26
32.58
25.62
16.47
5.6
-6.22
-17.99
-28.69
-37.57
-44.23
-48.7
-51.34
-52.77
-53.66
-54.58
-55.93
-57.69
-59.57
-60.95
-61.04
-59.0
-54.1
-45.93
-34.6
-20.92
-6.19
7.91
19.88
28.72
34.13
36.52
36.8
36.04
35.15
34.64
34.44
34.03
32.78
30.35
26.91
23.08
19.65
17.22
16.04
16.08
17.18
19.16
21.73
24.52
27.17
29.46
31.55
33.91
36.98
40.79
44.79
47.8
48.52
45.97
39.82
30.49
19.03
6.84
-4.65
-14.35
-21.92
-27.76
-32.82
-38.08
-44.06
-50.58
-56.85
-61.86
-64.79
-65.23
-63.14
-58.78
-52.51
-44.85
-36.4
-27.73
-19.24
-10.94
-2.45
6.87
17.6
29.82
42.89
55.36
65.26
70.75
70.68
65.2
55.66
44.12
32.58
22.31
13.67
6.37
-0.08
-5.98
-11.49
-16.72
-21.9
-27.38
-33.33
-39.71
-46.13
-52.06
-56.94
-60.41
-62.39
-63.08
-62.78
-61.75
-60.04
-57.39
-53.44
-48.04
-41.39
-34.08
-26.87
-20.35
-14.94
-10.82
-8.19
-7.24
-7.97
-9.94
-12.29
-13.93
-13.92
-11.66
-6.9
0.37
10.06
21.8
34.85
47.95
59.63
68.61
74.14
75.98
74.24
69.09
60.89
50.35
38.66
27.39
18.07
11.68
8.39
7.65
8.45
9.64
10.29
9.79
7.97
5.05
1.47
-2.22
-5.65
-8.66
-11.31
-13.66
-15.71
-17.36
-18.43
-18.83
-18.56
-17.78
-16.73
-15.69
-14.9
-14.45
-14.26
-14.13
-13.77
-12.98
-11.65
-9.72
-7.23
-4.14
-0.5
3.54
7.69
11.54
14.75
17.06
18.34
18.42
17.09
14.18
9.7
4.0
-2.34
-8.57
-14.08
-18.45
-21.54
-23.49
-24.74
-25.94
-27.7
-30.38
-33.75
-37.03
-39.12
-39.05
-36.4
-31.39
-24.83
-17.59
-10.49
-4.03
1.57
6.22
9.88
12.53
14.2
14.98
15.13
14.93
14.53
13.87
12.7
10.73
7.93
4.66
1.64
-0.3
-0.63
0.76
3.49
6.96
10.6
14.01
16.97
19.35
21.09
22.1
22.27
21.53
19.89
17.63
15.23
13.3
12.23
11.91
11.75
10.91
8.8
5.43
1.39
-2.36
-5.08
-6.36
-6.34
-5.4
-3.98
-2.4
-0.8
0.88
2.86
5.3
8.19
11.24
13.89
15.73
16.6
16.7
16.33
15.56
14.1
11.49
7.49
2.4
-3.0
-7.82
-11.46
-13.81
-15.08
-15.44
-14.81
-12.91
-9.54
-4.85
0.52
5.63
9.42
11.07
10.09
6.63
1.34
-4.75
-10.49
-15.05
-18.13
-19.91
-20.73
-20.79
-19.99
-18.05
-14.82
-10.53
-5.8
-1.44
1.91
4.12
5.54
6.8
8.45
10.63
12.93
14.7
15.35
14.72
13.21
11.42
9.91
8.85
8.03
7.09
5.76
4.02
1.95
-0.36
-2.95
-5.91
-9.24
-12.76
-16.01
-18.49
-19.73
-19.53
-17.96
-15.43
-12.55
-9.9
-7.85
-6.39
-5.26
-4.26
-3.46
-3.28
-4.18
-6.32
-9.36
-12.56
-15.17
-16.67
-16.92
-16.02
-14.12
-11.35
-7.77
-3.49
1.42
6.72
12.11
17.13
21.2
23.83
24.86
24.61
23.84
23.37
23.62
24.48
25.4
25.9
25.86
25.65
25.72
26.27
27.02
27.2
26.07
23.19
18.7
13.3
7.95
3.47
0.21
-1.93
-3.39
-4.55
-5.59
-6.44
-6.84
-6.7
-6.11
-5.37
-4.8
-4.56
-4.75
-5.31
-6.06
-6.57
-6.15
-3.93
0.81
8.26
17.84
28.3
37.98
45.43
49.79
50.94
49.46
46.32
42.48
38.53
34.62
30.34
25.14
18.69
11.15
3.26
-3.98
-9.7
-13.5
-15.42
-15.91
-15.58
-15.1
-15.21
-16.56
-19.57
-24.15
-29.7
-35.2
-39.67
-42.45
-43.47
-43.22
-42.27
-41.07
-39.66
-37.71
-34.82
-30.79
-25.9
-20.84
-16.49
-13.49
-11.97
-11.44
-10.98
-9.6
-6.6
-1.82
4.48
11.68
19.26
26.77
33.99
40.62
46.22
50.07
51.39
49.72
45.25
39.0
32.38
26.68
22.46
19.32
16.3
12.46
7.43
1.56
-4.44
-9.91
-14.58
-18.57
-22.06
-25.16
-27.78
-29.88
-31.64
-33.51
-36.04
-39.64
-44.27
-49.34
-53.84
-56.72
-57.3
-55.59
-52.27
-48.41
-44.96
-42.38
-40.54
-38.96
-37.26
-35.45
-33.92
-33.08
-33.02
-33.32
-33.21
-31.78
-28.4
-22.91
-15.67
-7.34
1.22
9.31
16.47
22.59
27.76
32.13
35.73
38.47
40.23
40.87
40.35
38.73
36.04
32.45
28.26
23.92
19.89
16.48
13.59
10.83
7.8
4.28
0.36
-3.67
-7.56
-11.22
-14.71
-18.22
-21.87
-25.78
-30.07
-34.77
-39.69
-44.29
-47.83
-49.56
-49.12
-46.7
-43.0
-38.92
-35.19
-32.24
-30.19
-29.02
-28.68
-29.1
-30.12
-31.34
-32.13
-31.59
-28.9
-23.52
-15.44
-5.32
5.64
16.11
24.93
31.42
35.51
37.61
38.29
38.18
37.67
36.95
36.0
34.73
33.09
31.27
29.55
28.24
27.46
27.04
26.52
25.43
23.46
20.64
17.3
13.83
10.4
6.9
3.04
-1.34
-6.06
-10.61
-14.34
-16.77
-17.92
-18.28
-18.6
-19.46
-20.97
-22.71
-24.1
-24.71
-24.67
-24.52
-24.84
-25.86
-27.37
-28.89
-29.95
-30.31
-29.93
-28.73
-26.5
-22.8
-17.27
-9.88
-1.08
8.31
17.33
25.17
31.37
35.72
38.25
39.07
38.23
35.86
32.28
28.17
24.53
22.5
22.78
25.36
29.42
33.7
37.03
38.73
38.74
37.37
35.05
32.14
28.85
25.31
21.54
17.49
13.08
8.35
3.68
-0.11
-2.0
-1.08
3.03
9.92
18.45
26.93
33.51
36.52
34.82
28.1
16.97
2.76
-12.79
-27.87
-40.86
-50.44
-55.71
-56.38
-52.86
-46.29
-38.02
-29.23
-20.5
-11.87
-3.19
5.47
13.55
20.27
24.9
27.14
27.24
25.77
23.42
20.91
18.88
17.87
18.18
19.73
21.97
24.14
25.44
25.26
23.33
19.58
14.07
6.98
-1.44
-10.7
-20.14
-28.84
-35.81
-40.27
-41.82
-40.83
-38.33
-35.91
-35.1
-36.76
-40.81
-46.04
-50.59
-52.48
-50.34
-43.8
-33.66
-21.68
-10.03
-0.58
5.65
8.74
9.69
9.86
10.48
12.21
15.08
18.64
22.18
24.99
26.54
26.63
25.36
23.06
20.09
16.74
13.31
10.13
7.79
6.82
7.4
8.93
10.08
9.29
5.53
-1.02
-9.16
-17.12
-23.6
-28.22
-31.68
-35.11
-39.55
-45.26
-51.63
-57.44
-61.21
-61.91
-59.26
-53.79
-46.29
-37.5
-27.74
-17.14
-6.03
4.76
14.02
20.64
24.34
25.78
26.21
26.81
28.07
29.73
31.23
32.26
33.01
34.01
35.73
38.13
40.66
42.51
42.96
41.74
38.96
35.14
30.86
26.59
22.61
19.05
16.02
13.58
11.79
10.6
9.68
8.55
6.63
3.41
-1.46
-8.18
-16.66
-26.31
-35.97
-44.07
-49.09
-50.17
-47.57
-42.64
-37.25
-33.06
-30.99
-31.04
-32.63
-34.99
-37.37
-39.3
-40.5
-40.82
-40.26
-38.84
-36.51
-33.06
-28.23
-21.92
-14.42
-6.21
2.22
10.81
19.93
30.06
41.2
52.54
62.5
69.36
72.07
70.62
66.01
59.77
53.29
47.33
41.82
36.11
29.27
20.68
10.46
-0.4
-10.11
-16.67
-18.48
-15.03
-7.11
3.37
13.92
22.46
27.83
30.35
31.38
32.81
36.23
42.49
51.82
63.89
77.73
91.19
100.81
102.47
93.05
72.3
43.72
13.72
-10.9
-25.8
-30.73
-28.87
-24.7
-21.53
-20.2
-19.62
-18.37
-15.89
-12.93
-10.85
-10.46
-11.54
-13.11
-14.05
-13.92
-13.3
-13.56
-16.02
-21.29
-28.68
-36.43
-42.37
-44.69
-42.76
-37.15
-29.38
-21.16
-13.83
-8.01
-3.7
-0.5
2.03
4.12
5.61
6.2
5.49
3.24
-0.38
-4.96
-9.73
-13.94
-16.9
-18.26
-17.93
-16.14
-13.39
-10.34
-7.72
-6.09
-5.64
-6.15
-7.02
-7.62
-7.54
-6.82
-5.86
-5.21
-5.24
-5.93
-6.83
-7.27
-6.71
-5.02
-2.63
-0.29
1.23
1.57
0.99
0.2
0.18
1.76
5.46
11.39
19.21
28.24
37.66
46.8
55.48
64.08
73.41
84.21
96.62
109.83
122.21
131.69
136.47
135.41
128.36
116.15
100.3
82.59
64.62
47.46
31.52
16.76
3.09
-9.34
-20.09
-28.79
-35.34
-40.11
-43.7
-46.59
-49.08
-51.19
-52.94
-54.45
-55.97
-57.69
-59.7
-61.99
-64.54
-67.39
-70.63
-74.31
-78.51
-83.14
-87.91
-92.28
-95.5
-96.68
-95.09
-90.41
-82.86
-73.25
-62.77
-52.71
-44.26
-38.24
-34.97
-34.15
-34.89
-36.11
-36.94
-37.04
-36.56
-35.82
-34.9
-33.56
-31.5
-28.68
-25.49
-22.65
-20.75
-19.93
-19.78
-19.49
-18.31
-15.89
-12.26
-7.84
-3.24
0.99
4.38
6.57
7.46
7.05
5.66
3.87
2.47
2.28
3.79
6.85
10.6
13.86
15.78
16.23
16.03
16.25
17.7
20.36
23.4
25.7
26.39
25.04
21.63
16.42
10.16
4.32
1.13
3.06
11.83
27.33
47.21
67.4
83.24
91.07
89.26
78.6
61.81
42.59
24.55
10.34
1.34
-2.32
-1.49
2.38
7.49
11.91
13.86
12.09
6.45
-1.67
-9.71
-14.8
-14.89
-9.73
-1.05
7.97
13.74
13.31
5.24
-9.99
-30.15
-51.85
-71.57
-86.73
-96.06
-99.68
-98.39
-92.89
-83.54
-70.39
-53.75
-34.61
-14.51
4.87
22.26
37.05
49.5
60.43
71.03
82.64
96.26
112.4
131.08
152.08
175.02
198.99
222.01
240.68
250.95
249.77
236.91
215.57
191.07
168.43
149.86
133.94
117.05
95.94
70.01
41.72
15.23
-5.72
-19.4
-26.58
-29.76
-31.82
-34.79
-39.05
-42.97
-43.59
-37.82
-23.79
-1.81
25.48
54.15
80.21
100.73
114.33
120.84
120.78
114.9
103.91
88.67
70.23
49.87
28.97
8.86
-9.44
-25.44
-39.19
-51.36
-62.87
-74.47
-86.37
-97.89
-107.59
-113.66
-114.54
-109.48
-98.99
-84.55
-68.15
-51.75
-36.82
-24.37
-15.18
-9.75
-8.19
-9.88
-13.26
-16.5
-18.17
-17.97
-16.79
-16.03
-16.69
-18.88
-22.11
-25.82
-29.86
-34.08
-37.37
-37.34
-30.74
-15.11
9.41
39.3
68.81
92.19
106.12
110.69
108.37
101.5
90.37
73.15
47.94
15.3
-20.39
-52.21
-73.61
-81.57
-77.27
-64.51
-46.82
-25.41
0.22
29.61
59.04
81.79
91.54
86.94
73.78
62.8
63.92
80.46
106.88
131.33
142.19
133.3
105.92
66.36
21.53
-24.06
-67.99
-107.81
-139.15
-156.21
-154.87
-136.05
-106.65
-77.6
-59.69
-60.12
-80.98
-119.94
-171.51
-228.4
-282.14
-323.58
-344.56
-339.75
-308.63
-256.14
-191.79
-127.3
-73.83
-38.94
-24.59
-27.28
-39.46
-52.4
-59.61
-58.82
-52.06
-43.74
-38.08
-37.42
-42.11
-51.31
-63.64
-76.99
-87.8
-91.21
-82.64
-60.08
-25.79
13.77
50.74
79.17
97.05
106.26
109.91
109.81
105.46
95.37
79.47
60.67
44.08
34.38
33.17
37.76
42.59
42.16
33.74
18.28
-0.64
-18.87
-33.47
-43.36
-48.68
-50.08
-48.14
-43.49
-37.12
-30.31
-24.48
-20.88
-20.25
-22.76
-28.07
-35.27
-43.04
-49.76
-53.73
-53.63
-48.86
-39.75
-27.62
-14.43
-2.36
6.69
11.48
11.21
5.61
-5.0
-19.41
-35.42
-50.01
-60.11
-63.69
-60.35
-51.6
-40.18
-28.91
-19.71
-13.3
-9.57
-8.26
-9.54
-13.77
-20.94
-30.11
-39.13
-45.26
-46.03
-40.46
-29.76
-17.31
-7.72
-5.27
-12.38
-28.69
-51.0
-74.1
-92.34
-101.34
-99.12
-86.7
-67.71
-47.18
-29.79
-18.58
-13.81
-13.23
-13.54
-12.26
-9.48
-7.91
-11.44
-22.69
-41.31
-63.56
-83.83
-96.86
-99.84
-93.38
-80.94
-67.28
-56.61
-51.27
-50.98
-53.21
-54.18
-50.23
-38.88
-19.31
8.05
41.87
80.32
120.95
160.52
195.49
222.94
241.18
249.49
247.31
233.16
205.18
163.11
110.35
54.65
6.05
-27.18
-41.94
-41.24
-31.7
-19.8
-9.48
-2.04
1.66
-0.39
-10.91
-31.13
-58.44
-86.28
-106.64
-113.72
-106.44
-88.08
-63.79
-38.39
-15.74
0.29
4.92
-6.44
-35.31
-77.22
-121.06
-152.12
-157.28
-130.34
-74.48
-1.23
73.58
134.93
172.44
181.76
163.82
123.05
65.48
-1.94
-71.6
-135.22
-184.56
-212.63
-215.89
-195.5
-157.13
-109.12
-59.44
-13.37
26.96
61.22
88.98
109.02
120.13
123.28
122.87
125.94
139.05
164.47
197.69
227.8
241.55
228.92
187.91
125.74
56.3
-5.28
-47.82
-66.8
-63.52
-41.89
-5.48
43.3
101.22
161.67
213.08
241.27
234.64
190.01
115.87
30.84
-42.54
-85.81
-90.91
-61.79
-11.87
41.57
82.8
101.38
93.73
62.48
15.14
-38.09
-86.61
-121.66
-137.59
-132.46
-107.47
-65.93
-12.7
46.18
103.38
150.9
181.4
189.81
174.65
137.87
84.02
19.22
-49.09
-112.15
-160.17
-183.84
-177.07
-139.78
-79.29
-8.95
55.2
98.8
112.67
94.55
49.17
-13.42
-80.41
-138.89
-178.43
-193.0
-181.51
-147.05
-95.08
-31.89
35.81
100.27
152.33
182.44
183.77
156.23
108.92
58.63
24.18
18.9
44.63
91.09
140.34
174.65
183.35
165.41
127.24
77.55
22.97
-33.36
-89.75
-142.94
-186.14
-209.8
-205.49
-170.21
-109.32
-36.16
31.77
78.3
93.67
77.32
37.64
-11.43
-54.96
-81.13
-83.73
-62.64
-22.72
28.01
80.25
125.21
155.5
165.76
152.88
116.49
59.47
-11.3
-84.76
-146.91
-184.01
-186.73
-153.77
-93.23
-20.32
47.41
95.31
115.17
106.03
72.71
23.78
-30.52
-79.66
-113.93
-125.84
-111.28
-70.82
-9.85
62.18
133.46
192.28
229.33
239.34
221.67
179.75
119.83
49.79
-21.67
-85.7
-133.64
-157.94
-153.83
-121.26
-65.86
1.53
67.38
118.74
146.02
144.52
114.31
59.69
-11.58
-88.8
-159.35
-210.28
-230.97
-215.98
-167.36
-95.22
-16.03
51.42
91.24
94.81
63.48
7.71
-56.16
-111.19
-144.5
-149.8
-127.27
-81.68
-19.91
50.22
120.11
180.36
221.54
236.03
219.97
174.88
107.62
29.42
-46.33
-106.46
-140.13
-141.11
-109.74
-53.53
13.91
75.81
116.46
125.68
101.39
50.11
-15.13
-78.89
-127.36
-151.06
-145.72
-111.79
-53.7
20.31
97.92
163.11
199.43
195.1
148.7
71.66
-14.56
-85.37
-122.01
-117.21
-76.22
-13.03
55.17
112.73
148.53
157.06
138.84
100.35
53.15
11.17
-13.42
-14.01
8.35
46.07
88.54
126.21
152.55
164.44
160.73
140.89
104.72
53.36
-9.08
-74.54
-131.47
-167.62
-173.94
-148.0
-95.7
-29.93
33.1
78.48
96.42
84.4
46.01
-10.93
-76.41
-139.66
-190.27
-219.01
-219.3
-188.59
-129.06
-49.27
36.58
111.64
161.01
175.99
156.52
111.17
54.53
4.6
-24.21
-25.0
0.92
46.06
99.67
150.39
188.23
205.91
202.3
178.41
136.68
81.43
20.21
-36.02
-75.13
-86.93
-66.12
-11.02
71.03
164.68
250.81
313.27
343.89
343.28
318.96
260.44
171.44
68.32
-28.11
-105.49
-161.54
-197.99
-215.85
-216.27
-202.83
-179.27
-152.34
-129.41
-116.72
-115.36
-122.33
-133.07
-144.49
-155.39
-162.13
-160.37
-146.07
-119.57
-84.84
-48.96
-20.15
-5.26
-7.34
-23.15
-46.55
-70.65
-93.97
-118.25
-146.72
-181.54
-223.48
-272.34
-326.1
-381.42
-416.65
-413.69
-366.01
-283.48
-184.67
-87.79
-6.03
54.36
93.61
116.72
127.57
129.42
125.16
119.44
117.53
122.35
133.64
146.23
152.51
143.15
112.54
61.17
-1.9
-62.87
-108.89
-131.68
-129.09
-104.22
-65.13
-17.45
27.07
59.96
79.02
86.29
85.7
80.76
74.09
66.85
60.43
56.24
58.35
69.77
90.41
116.83
142.97
161.67
166.42
153.81
124.37
79.54
29.68
-14.08
-45.09
-63.1
-72.28
-77.61
-81.57
-83.95
-82.73
-76.15
-65.53
-54.5
-47.06
-45.94
-52.09
-65.26
-82.28
-98.67
-108.59
-107.18
-91.97
-64.13
-27.08
10.21
39.32
56.19
61.54
60.15
57.15
55.76
56.86
60.27
66.81
77.59
93.53
112.85
130.84
140.36
135.21
113.28
76.9
36.13
1.88
-18.58
-24.3
-19.08
-9.13
0.19
6.11
8.32
7.83
5.41
1.55
-4.15
-10.99
-18.45
-26.41
-35.09
-45.06
-56.58
-69.5
-81.18
-90.95
-97.77
-101.32
-102.2
-101.72
-101.57
-103.28
-108.04
-115.91
-125.33
-132.3
-131.72
-119.34
-93.94
-58.63
-20.04
14.16
38.61
52.11
57.73
59.98
61.95
63.77
63.46
58.97
50.38
40.34
32.87
31.64
38.14
51.47
68.76
85.56
96.37
95.97
80.98
52.4
16.83
-15.3
-33.27
-30.44
-6.81
31.07
72.86
108.06
129.32
133.57
121.25
95.39
60.58
22.85
-11.18
-35.47
-47.29
-48.03
-41.02
-31.32
-23.88
-22.33
-27.37
-36.87
-47.16
-54.44
-56.05
-51.84
-44.62
-38.74
-39.33
-49.43
-69.11
-95.19
-121.73
-140.46
-143.39
-125.97
-87.46
-38.34
5.41
27.82
20.56
-15.54
-69.66
-124.81
-164.65
-178.92
-166.96
-135.39
-94.21
-52.59
-15.89
14.24
37.06
50.8
52.65
40.73
17.37
-10.6
-34.41
-47.53
-46.92
-36.52
-24.42
-19.11
-25.4
-41.42
-57.88
-67.72
-68.03
-59.96
-47.61
-36.74
-30.15
-27.48
-25.35
-18.75
-3.46
23.36
61.52
106.0
146.93
171.94
170.45
138.78
83.02
17.29
-40.79
-77.01
-85.43
-68.52
-33.74
10.38
56.34
97.14
124.88
131.87
113.6
72.21
17.91
-33.84
-68.25
-76.48
-57.99
-18.7
33.05
88.98
141.16
181.2
200.29
192.02
156.31
101.72
43.86
0.23
-15.76
0.68
45.06
106.13
170.06
224.23
259.47
270.86
257.42
221.25
166.78
100.18
29.0
-37.83
-90.55
-119.88
-119.15
-86.77
-27.79
46.52
121.43
182.78
220.71
231.65
217.77
184.83
139.09
85.66
28.77
-26.44
-72.68
-101.45
-106.13
-85.97
-48.35
-6.98
23.32
32.23
17.33
-16.7
-61.4
-108.18
-150.12
-181.72
-197.81
-193.28
-164.8
-113.07
-44.54
29.2
94.27
138.01
152.3
134.89
89.27
23.43
-51.79
-124.08
-181.04
-211.96
-209.89
-173.98
-111.0
-34.85
36.68
86.6
103.53
84.71
35.91
-30.74
-100.11
-157.99
-193.73
-201.89
-182.2
-138.74
-78.38
-9.91
56.53
110.74
143.74
149.48
126.17
76.61
8.35
-67.28
-137.65
-191.13
-218.77
-215.38
-180.31
-118.33
-39.75
40.8
107.48
146.38
149.24
116.62
58.59
-7.52
-62.6
-91.64
-87.37
-50.45
11.27
85.69
159.46
220.38
259.44
272.04
258.32
218.38
159.79
95.5
39.16
-1.45
-26.34
-40.08
-47.2
-51.43
-54.31
-56.46
-60.24
-69.61
-88.66
-119.23
-158.8
-197.56
-224.22
-229.5
-208.97
-165.12
-105.67
-41.18
18.26
65.42
96.61
110.24
106.44
87.59
56.53
19.91
-14.28
-41.23
-63.93
-87.07
-112.49
-137.8
-154.92
-155.64
-134.41
-91.77
-35.35
21.89
65.51
82.99
67.79
22.0
-44.13
-114.82
-173.91
-209.73
-217.3
-197.51
-155.41
-97.9
-32.75
31.33
84.34
116.79
123.41
106.88
78.72
55.57
52.99
79.15
131.6
198.34
262.59
308.92
328.17
319.36
288.14
243.74
195.58
150.37
110.1
72.03
30.92
-17.13
-71.94
-128.57
-178.61
-213.45
-225.15
-210.98
-176.93
-135.91
-101.13
-79.25
-69.13
-64.98
-60.91
-52.87
-40.07
-23.17
-2.81
20.43
44.98
67.22
82.08
84.65
69.83
37.17
-8.8
-59.03
-101.92
-126.43
-125.3
-96.78
-44.74
23.28
98.08
170.11
230.71
272.99
292.11
285.66
254.63
204.58
146.33
94.2
61.33
55.46
75.95
114.09
156.07
188.54
203.08
199.05
181.98
158.68
133.44
106.02
73.31
34.09
-5.9
-38.33
-53.86
-44.17
-10.18
37.67
82.96
110.69
113.45
94.13
62.7
30.87
6.58
-8.67
-17.22
-21.5
-21.5
-15.82
-3.8
12.35
27.99
38.25
39.97
33.59
22.56
11.62
3.12
-2.6
-6.84
-11.21
-16.93
-24.87
-35.12
-46.77
-57.95
-69.14
-80.95
-93.57
-106.85
-120.57
-135.16
-151.25
-169.12
-188.26
-212.22
-243.66
-283.18
-328.99
-377.56
-425.08
-467.94
-502.82
-527.2
-545.73
-563.98
-586.47
-615.75
-652.43
-696.86
-749.53
-810.68
-841.55
-814.88
-720.67
-570.97
-391.31
-206.93
-37.05
105.86
215.6
292.65
337.98
356.6
360.17
359.2
360.52
363.64
363.68
353.98
329.5
285.49
224.28
155.56
92.78
47.87
26.16
25.85
41.14
64.09
85.71
101.19
110.47
116.23
121.37
126.64
131.9
137.45
144.52
154.2
167.95
187.07
212.53
243.86
276.94
306.35
326.39
331.41
317.1
281.85
227.1
158.47
83.25
6.94
-62.94
-117.23
-148.8
-154.24
-135.24
-98.35
-50.48
0.99
46.31
81.47
108.75
131.95
154.92
180.6
210.85
249.8
298.97
350.85
397.43
432.65
450.66
448.43
427.43
372.41
280.83
190.76
116.85
49.63
-16.87
-85.31
-152.57
-210.58
-250.09
-262.16
-245.47
-211.72
-173.39
-137.8
-107.89
-81.65
-54.25
-20.91
23.3
79.12
139.09
195.11
241.04
271.28
282.5
274.87
252.21
221.88
190.66
160.37
130.97
102.3
73.42
43.97
14.48
-14.05
-40.4
-64.2
-86.39
-105.79
-117.38
-116.07
-99.83
-71.03
-34.7
3.73
37.99
66.2
88.03
104.03
114.6
119.89
119.75
115.82
109.31
101.33
92.93
84.2
74.32
61.49
43.69
19.43
-11.16
-46.45
-83.54
-118.73
-148.99
-172.36
-188.29
-197.29
-201.13
-202.48
-205.22
-213.54
-229.74
-252.52
-275.34
-287.8
-279.51
-245.84
-190.96
-127.73
-73.15
-41.51
-39.26
-63.64
-105.61
-154.39
-201.68
-241.25
-268.16
-278.32
-269.8
-245.28
-212.94
-184.87
-172.69
-184.0
-217.07
-261.3
-301.98
-326.17
-327.68
-307.97
-273.56
-231.68
-189.1
-147.32
-104.01
-57.08
-8.51
34.13
60.35
61.66
35.64
-15.49
-81.98
-149.73
-205.35
-240.54
-254.17
-250.58
-236.36
-199.51
-137.78
-57.63
28.63
108.85
175.01
222.17
247.96
252.67
243.32
226.81
211.99
207.93
220.42
250.15
291.92
335.42
369.28
384.35
373.79
338.09
285.68
229.57
184.3
161.2
165.47
195.14
241.83
291.72
331.38
352.3
351.34
331.45
298.51
258.6
215.81
171.24
123.36
69.42
15.27
-33.56
-69.36
-86.58
-85.37
-72.33
-58.26
-53.88
-65.0
-90.17
-124.14
-160.92
-198.41
-238.59
-284.08
-333.71
-380.08
-411.45
-416.59
-391.41
-340.7
-276.73
-214.33
-164.4
-130.36
-108.09
-89.76
-68.27
-40.77
-7.85
28.94
69.33
115.17
168.36
227.57
286.33
334.3
361.24
361.75
337.37
294.74
243.85
195.24
158.13
138.42
137.78
153.06
176.87
199.71
211.22
205.94
185.56
157.16
128.68
104.24
82.53
58.33
26.28
-17.94
-72.01
-127.28
-172.57
-200.58
-211.89
-214.52
-219.83
-237.29
-274.6
-332.19
-403.54
-478.07
-545.67
-599.33
-634.9
-650.73
-624.25
-547.05
-429.8
-298.41
-178.14
-82.04
-11.27
39.24
74.95
99.68
112.65
114.42
108.34
101.18
98.66
103.44
116.63
138.4
169.02
205.02
241.3
271.9
292.32
301.53
299.38
293.27
294.13
310.77
342.22
378.72
406.39
414.24
398.28
361.77
312.6
258.16
203.41
151.13
105.85
75.16
67.2
85.26
123.89
169.94
206.75
221.29
208.66
173.35
126.08
78.08
36.31
1.72
-28.33
-57.13
-85.65
-112.07
-133.52
-148.39
-158.57
-169.18
-186.98
-217.51
-262.72
-319.61
-380.49
-435.17
-473.97
-490.96
-484.79
-458.0
-414.83
-360.12
-299.31
-238.93
-187.86
-155.81
-150.96
-175.27
-221.87
-275.71
-319.33
-340.05
-334.05
-307.38
-270.84
-235.61
-208.53
-190.52
-177.39
-163.69
-145.67
-121.09
-89.65
-50.07
-1.23
57.2
124.53
200.29
282.95
361.04
418.98
442.97
431.5
393.79
341.7
283.33
223.61
164.41
106.84
60.31
25.07
1.84
-9.16
-10.53
-6.5
2.37
17.26
39.83
72.59
108.45
142.66
173.1
197.76
215.59
230.59
247.11
267.57
293.52
323.85
356.46
390.83
423.47
425.97
378.5
277.48
139.3
-7.67
-127.72
-220.71
-293.14
-351.35
-395.83
-419.37
-413.41
-375.01
-306.81
-220.14
-132.02
-54.96
3.17
44.19
77.3
111.57
152.33
204.0
265.87
331.34
393.45
442.78
474.72
488.11
483.27
436.76
342.7
217.26
89.3
-5.02
-73.16
-129.23
-182.8
-237.5
-288.21
-322.19
-329.21
-307.32
-262.56
-208.91
-157.6
-117.03
-91.08
-77.95
-68.07
-50.87
-19.68
25.83
77.08
123.69
154.31
161.07
143.19
109.1
70.66
37.62
13.98
-4.17
-22.45
-46.31
-78.25
-117.62
-161.67
-208.19
-256.04
-295.1
-311.91
-295.57
-247.72
-180.95
-111.04
-49.79
-2.75
30.42
53.51
70.28
83.42
93.05
98.75
100.15
97.28
90.06
77.91
60.4
37.68
11.2
-17.81
-47.55
-76.75
-105.51
-135.49
-166.33
-198.68
-231.69
-255.39
-259.89
-239.31
-196.42
-141.48
-86.47
-40.89
-9.35
8.56
15.95
14.32
5.28
-8.6
-22.69
-30.43
-26.84
-11.51
12.27
37.61
53.22
49.88
24.06
-22.86
-76.43
-122.22
-150.25
-154.15
-132.11
-88.22
-29.26
37.45
106.3
174.37
239.27
297.38
348.15
394.2
423.67
428.07
406.24
366.29
321.59
296.6
290.43
281.91
260.97
220.63
160.48
86.49
9.8
-56.91
-104.32
-131.82
-142.93
-143.44
-141.87
-143.16
-147.38
-150.66
-147.86
-135.77
-116.22
-92.46
-68.75
-51.32
-44.47
-48.4
-59.73
-73.06
-83.4
-87.93
-83.2
-66.55
-38.89
-5.05
27.1
48.46
51.98
35.73
3.79
-33.66
-65.61
-85.57
-93.13
-92.4
-89.32
-88.9
-90.7
-96.29
-101.09
-99.81
-85.0
-56.92
-20.94
14.84
42.57
58.56
63.33
61.4
57.24
53.3
49.12
44.18
39.52
37.39
40.23
48.08
57.89
63.43
58.48
39.68
9.59
-24.63
-55.83
-79.36
-95.38
-106.85
-116.95
-125.93
-130.78
-126.63
-105.08
-67.68
-23.81
13.67
35.87
41.05
34.02
22.14
11.26
3.82
-1.35
-4.72
-6.54
-5.48
-0.95
5.34
8.95
4.73
-10.65
-39.81
-78.42
-120.03
-159.81
-194.09
-218.67
-229.2
-221.96
-195.52
-151.39
-97.31
-45.65
-6.44
15.13
21.31
19.38
17.81
23.38
38.78
63.96
96.84
137.01
172.62
188.71
170.96
114.04
26.33
-73.15
-155.28
-208.91
-229.86
-221.22
-190.63
-146.98
-100.86
-59.03
-24.22
3.78
25.13
41.29
52.8
60.67
66.55
72.53
80.95
92.9
107.81
123.37
138.88
154.49
171.82
192.38
216.18
240.99
262.32
274.7
273.67
258.72
232.95
202.06
172.22
148.07
131.36
120.65
112.37
102.48
88.81
71.67
53.34
36.8
24.2
16.08
11.4
8.48
6.06
3.71
1.75
0.15
-1.81
-5.46
-11.94
-21.69
-33.72
-45.65
-54.5
-57.79
-54.81
-47.46
-39.28
-33.95
-33.08
-35.41
-37.53
-36.2
-30.4
-22.18
-15.42
-13.3
-16.65
-23.18
-29.11
-31.21
-28.55
-22.55
-15.9
-10.99
-8.61
-8.26
-8.28
-7.35
-5.07
-2.01
0.7
2.18
2.16
1.11
-0.21
-1.13
-1.35
-0.98
-0.26
0.68
1.83
3.15
4.72
6.39
7.96
9.09
9.43
8.85
7.43
5.4
3.16
1.11
-0.36
-0.9
-0.24
1.77
5.03
8.94
12.62
15.26
16.51
16.65
16.42
16.42
16.68
16.77
16.08
14.41
12.06
9.55
7.23
5.08
2.78
-0.04
-3.48
-7.33
-11.26
-14.83
-17.65
-19.25
-19.19
-17.32
-14.04
-10.29
-7.26
-5.96
-6.76
-9.51
-13.72
-18.84
-24.32
-29.55
-33.82
-36.72
-38.19
-38.8
-39.41
-40.81
-43.26
-46.39
-49.45
-51.64
-52.43
-51.59
-49.13
-45.35
-40.71
-35.77
-31.03
-26.81
-23.04
-19.57
-16.3
-13.34
-10.95
-9.25
-8.14
-7.38
-6.77
-6.35
-6.45
-7.43
-9.38
-11.97
-14.48
-16.16
-16.43
-15.09
-12.32
-8.68
-4.95
-1.85
0.14
1.03
1.22
1.36
1.74
2.3
2.61
2.28
1.29
-0.05
-1.29
-2.49
-4.28
-7.32
-11.6
-16.05
-18.91
-18.68
-15.25
-9.99
-5.07
-2.42
-2.65
-4.97
-7.8
-9.95
-11.01
-11.56
-12.31
-13.58
-14.98
-15.63
-15.01
-13.38
-11.84
-11.62
-13.58
-17.59
-22.4
-26.35
-27.75
-25.81
-20.75
-13.46
-5.29
2.68
9.7
15.52
19.97
23.15
24.87
24.75
22.64
18.63
13.38
7.89
3.24
-0.18
-2.15
-2.72
-1.61
1.35
5.93
11.19
15.47
17.39
16.54
13.88
11.13
9.73
10.13
11.33
11.97
11.06
8.52
5.1
1.39
-2.38
-6.2
-9.62
-11.98
-12.31
-10.31
-6.5
-2.02
1.82
4.37
5.66
6.48
7.55
9.01
10.17
10.08
8.01
4.12
-0.54
-4.33
-6.06
-5.54
-3.47
-1.04
0.54
0.76
-0.78
-4.08
-8.89
-13.97
-16.57
-13.31
-1.79
17.36
40.08
59.67
70.3
69.56
59.64
45.79
32.91
23.16
14.84
4.57
-9.73
-26.6
-41.3
-48.81
-46.68
-36.61
-22.92
-9.83
1.02
10.26
19.14
27.08
30.7
26.45
12.77
-7.08
-26.13
-37.15
-36.19
-25.43
-12.03
-4.55
-8.25
-22.66
-41.63
-56.09
-58.6
-46.59
-23.46
3.2
25.0
37.06
39.03
34.33
27.26
20.33
13.4
5.06
-4.5
-12.76
-15.37
-9.77
2.81
16.52
23.15
17.11
-1.56
-26.16
-46.44
-53.51
-44.21
-22.02
5.34
30.05
47.55
57.2
60.13
57.42
48.98
34.27
14.3
-7.76
-27.4
-40.07
-43.54
-38.14
-26.49
-11.57
3.82
17.34
27.37
33.17
34.8
32.56
26.83
17.92
6.11
-7.05
-18.5
-24.3
-21.29
-9.12
8.25
24.29
32.49
29.32
16.46
0.06
-12.4
-15.65
-9.56
1.23
9.75
10.39
1.88
-12.02
-24.96
-31.5
-30.0
-23.17
-15.76
-11.97
-13.57
-19.51
-27.14
-33.53
-36.63
-35.1
-28.9
-19.7
-10.29
-3.82
-1.58
-1.97
-1.12
5.07
17.89
34.63
50.02
59.48
61.58
58.76
55.13
53.93
55.73
58.49
59.54
57.49
52.86
47.64
43.86
42.29
42.35
43.02
43.39
42.85
41.3
38.57
34.41
28.86
22.24
15.06
7.97
1.15
-5.8
-13.47
-22.02
-30.36
-36.19
-36.89
-31.54
-21.48
-9.91
-0.59
3.9
2.86
-2.49
-10.23
-18.05
-23.97
-26.42
-24.34
-17.77
-7.93
2.59
10.82
14.17
11.34
3.16
-7.61
-16.41
-18.08
-8.85
11.74
39.91
68.11
87.88
93.62
84.73
65.39
42.06
20.46
3.0
-10.67
-21.85
-31.27
-38.79
-44.69
-50.24
-57.74
-68.68
-82.74
-96.75
-105.61
-104.98
-92.71
-70.22
-42.6
-17.29
-1.74
-0.99
-15.59
-40.57
-66.75
-84.22
-86.27
-72.31
-47.54
-19.86
3.85
20.58
30.96
37.0
39.9
39.45
34.82
25.96
14.61
3.66
-4.67
-9.77
-13.15
-17.01
-22.94
-30.53
-37.43
-40.78
-38.73
-31.26
-19.81
-6.67
5.98
16.6
24.2
27.97
27.48
22.61
14.47
5.15
-2.37
-5.3
-2.39
5.43
15.71
25.56
32.66
36.1
36.68
35.94
35.36
35.72
36.32
35.65
32.01
24.5
13.72
1.57
-9.78
-18.38
-22.46
-20.91
-12.94
0.71
17.1
31.63
39.59
38.31
28.69
14.65
1.05
-9.31
-16.8
-23.86
-32.07
-40.95
-48.2
-52.03
-53.1
-54.63
-59.97
-69.67
-80.73
-87.99
-87.49
-78.77
-64.87
-50.18
-37.91
-28.55
-20.4
-11.34
-0.8
9.69
17.29
19.89
17.39
12.04
7.84
8.35
15.07
26.26
37.97
45.91
47.92
44.92
40.01
36.22
34.74
34.24
32.24
27.44
20.37
13.04
7.08
2.97
0.26
-1.65
-3.02
-3.64
-3.48
-3.43
-4.9
-8.61
-14.18
-19.53
-22.24
-21.0
-15.86
-8.5
-0.85
5.5
9.77
11.76
11.36
8.38
2.92
-4.06
-10.93
-15.53
-16.49
-14.06
-10.71
-9.84
-14.1
-23.35
-34.23
-41.35
-39.86
-28.36
-10.08
8.3
19.83
20.28
10.16
-5.67
-20.68
-29.26
-28.5
-19.25
-4.98
9.72
21.16
27.49
29.23
28.66
28.14
28.88
30.32
30.56
27.32
19.66
8.37
-4.3
-15.76
-24.51
-30.34
-33.7
-34.69
-32.62
-26.59
-16.91
-5.75
3.68
8.42
7.71
3.24
-1.69
-4.33
-3.75
-1.09
1.92
4.35
6.77
10.83
17.32
25.49
33.25
38.62
40.98
41.31
41.7
42.98
44.21
43.22
38.21
29.93
21.6
17.22
19.07
26.23
35.1
41.66
43.92
41.98
36.81
28.92
18.02
4.36
-10.2
-22.22
-28.18
-27.14
-21.84
-17.37
-18.07
-25.11
-36.11
-46.6
-53.08
-54.27
-51.42
-46.7
-41.4
-35.77
-29.65
-23.26
-17.56
-13.59
-12.01
-12.99
-16.13
-20.43
-24.43
-26.69
-25.82
-21.05
-12.76
-1.94
9.61
20.37
29.0
34.92
37.89
38.27
36.55
33.43
30.11
27.77
27.04
27.86
29.04
29.06
26.61
21.45
14.28
6.8
1.03
-1.32
0.36
5.5
12.45
19.14
24.18
27.03
28.01
27.7
26.4
23.98
20.33
15.68
10.78
6.43
2.83
-0.45
-4.48
-10.13
-17.69
-26.67
-36.03
-44.73
-52.01
-57.6
-61.63
-64.5
-66.78
-68.77
-70.36
-70.77
-68.76
-63.12
-53.53
-40.61
-26.18
-12.64
-2.11
4.13
6.15
5.03
2.34
-0.44
-2.26
-2.49
-0.88
2.56
7.51
12.98
17.47
19.6
18.67
15.4
11.57
9.55
10.95
16.05
23.6
31.65
38.54
43.58
47.07
49.52
51.32
52.31
52.08
50.72
48.8
47.63
48.45
51.96
57.87
65.0
71.47
75.5
76.2
73.78
69.23
63.64
57.82
51.85
45.5
38.4
30.15
20.64
10.0
-1.17
-11.62
-19.7
-23.9
-23.69
-20.06
-15.17
-11.32
-9.9
-10.79
-12.83
-15.0
-17.18
-20.13
-24.47
-30.04
-35.35
-38.47
-37.88
-33.6
-27.57
-22.51
-20.79
-23.22
-28.89
-35.55
-40.8
-42.91
-41.36
-36.71
-30.1
-22.65
-15.28
-8.6
-2.97
1.02
2.71
1.56
-2.48
-8.78
-15.93
-21.88
-24.33
-21.59
-13.5
-1.96
9.71
17.77
19.69
15.1
5.72
-5.52
-15.93
-23.9
-29.06
-31.71
-32.48
-32.17
-31.99
-33.42
-37.72
-44.9
-53.12
-59.13
-59.47
-52.64
-39.57
-23.53
-8.51
2.48
8.45
10.45
10.5
10.79
12.89
17.87
26.02
36.74
48.5
58.94
65.77
67.88
66.12
63.02
61.44
63.17
67.88
73.09
75.6
72.76
63.54
48.8
30.7
11.94
-4.95
-18.09
-26.57
-30.41
-30.67
-29.1
-27.42
-26.86
-27.56
-28.94
-29.85
-29.37
-27.32
-24.12
-20.74
-18.07
-16.97
-17.68
-20.0
-23.26
-26.67
-29.33
-30.54
-29.71
-25.85
-18.15
-5.9
10.42
29.11
47.46
62.73
72.99
77.91
78.02
73.89
65.93
54.34
39.96
24.84
11.93
4.11
2.34
5.42
9.96
12.42
10.33
3.54
-6.31
-17.04
-27.06
-35.84
-43.46
-50.05
-55.04
-57.56
-57.14
-54.1
-49.87
-46.13
-44.38
-44.84
-46.48
-47.34
-45.85
-41.26
-34.29
-26.65
-20.38
-16.96
-16.61
-18.28
-20.19
-20.85
-19.8
-17.92
-16.93
-17.94
-21.21
-25.63
-29.7
-32.31
-33.34
-33.11
-32.08
-30.59
-28.73
-26.77
-25.14
-24.19
-23.65
-22.62
-19.96
-14.93
-7.94
-0.49
5.41
8.37
8.35
6.73
5.79
7.35
12.02
18.94
26.51
32.78
36.61
37.66
36.17
32.71
27.58
21.15
14.17
8.05
4.42
4.34
7.45
11.86
15.0
14.93
11.29
5.11
-1.75
-7.8
-12.28
-14.79
-14.98
-12.47
-7.47
-0.99
5.34
10.26
13.79
17.11
21.77
27.92
34.06
37.48
36.22
30.4
22.36
15.19
10.73
8.62
6.71
3.1
-2.56
-8.54
-12.08
-11.05
-5.06
4.38
14.84
24.05
30.88
35.5
38.98
42.6
46.83
51.24
54.34
54.49
50.75
43.55
34.55
25.62
18.2
12.34
6.91
0.64
-6.84
-14.58
-20.55
-23.22
-22.55
-20.37
-19.63
-22.46
-29.04
-37.47
-44.62
-48.14
-47.4
-43.71
-39.02
-34.68
-30.64
-26.17
-21.07
-16.44
-14.37
-16.18
-21.12
-26.02
-26.84
-20.81
-8.14
7.83
22.39
31.85
34.98
33.14
29.12
25.63
24.54
26.73
32.54
41.97
54.54
69.13
84.09
97.64
108.74
117.15
123.16
126.93
127.9
124.89
116.74
103.15
85.02
64.36
43.49
24.1
6.81
-8.74
-23.41
-37.72
-51.53
-64.01
-74.05
-80.65
-83.41
-82.86
-80.23
-77.19
-75.15
-74.55
-74.66
-74.16
-72.05
-68.37
-64.36
-61.68
-61.18
-62.32
-63.41
-62.66
-59.2
-53.64
-47.33
-41.49
-36.57
-32.28
-28.11
-24.0
-20.5
-18.16
-17.04
-16.17
-14.05
-9.21
-1.13
9.43
20.56
29.91
35.91
38.47
39.04
40.03
43.53
50.26
59.19
68.35
75.64
79.65
79.75
75.76
67.45
54.71
38.1
19.08
0.25
-15.6
-26.53
-32.39
-34.46
-34.85
-35.47
-37.35
-40.64
-44.5
-47.59
-48.44
-45.89
-39.84
-31.45
-22.88
-16.32
-13.01
-12.93
-15.22
-18.89
-23.61
-29.32
-35.79
-41.78
-45.39
-44.85
-39.68
-31.2
-21.55
-12.63
-5.28
0.9
6.65
12.55
18.39
23.82
28.18
30.88
31.39
29.41
25.27
20.26
16.23
15.06
17.43
22.51
28.09
31.78
31.92
28.11
21.1
11.99
1.75
-8.79
-18.57
-26.05
-29.72
-28.49
-22.43
-12.99
-2.42
6.93
13.57
17.17
18.38
18.3
17.86
17.57
17.28
16.58
14.95
12.12
7.95
2.6
-3.68
-10.31
-16.5
-21.28
-24.04
-24.58
-23.41
-21.41
-19.61
-18.59
-18.28
-18.12
-17.24
-15.02
-11.41
-6.99
-2.69
0.5
1.65
0.17
-3.94
-9.85
-15.84
-19.93
-20.6
-17.53
-11.65
-4.55
2.15
7.83
12.75
17.78
23.5
29.4
33.83
34.99
32.15
26.38
20.33
16.91
17.6
21.72
26.61
29.11
27.38
21.82
15.01
9.79
7.84
8.44
9.19
7.7
3.23
-2.96
-8.7
-12.33
-13.92
-14.78
-16.26
-18.58
-20.68
-20.96
-18.63
-14.46
-10.31
-7.96
-8.0
-9.41
-10.41
-9.55
-6.57
-2.68
0.27
0.74
-1.86
-6.82
-12.64
-17.65
-20.39
-20.16
-16.94
-11.29
-4.07
3.52
10.19
14.65
15.87
13.53
8.12
1.15
-5.57
-10.25
-11.85
-10.28
-6.31
-1.3
3.51
7.2
9.55
10.96
12.08
13.34
14.75
15.94
16.65
17.07
17.73
19.29
21.91
25.16
28.29
30.75
32.42
33.69
34.79
35.59
35.45
33.62
30.05
25.53
21.37
18.96
18.75
20.17
21.97
22.9
22.35
20.6
18.77
18.1
19.42
22.53
26.27
28.9
28.96
26.25
21.9
17.84
15.64
15.51
15.96
14.92
10.96
4.06
-4.71
-14.19
-24.08
-34.44
-44.66
-52.85
-56.04
-51.92
-40.58
-25.01
-10.02
0.19
4.0
2.78
-0.34
-2.62
-3.14
-3.02
-4.1
-7.69
-13.62
-20.42
-26.45
-30.57
-32.61
-33.14
-33.05
-33.14
-33.87
-35.19
-36.78
-37.98
-38.12
-36.64
-33.45
-29.12
-24.69
-21.32
-19.41
-18.41
-17.03
-14.18
-9.77
-4.87
-0.97
1.1
1.85
2.89
5.73
10.66
16.65
21.59
23.58
22.03
17.94
13.16
9.68
8.85
10.7
14.08
17.2
18.22
15.68
9.27
-0.25
-11.04
-20.73
-26.66
-26.61
-19.01
-3.7
17.28
39.23
55.59
60.25
50.41
27.97
-0.61
-27.37
-45.97
-54.05
-53.24
-47.08
-38.79
-30.03
-21.21
-12.54
-5.34
-1.54
-2.27
-7.12
-14.0
-20.19
-23.75
-24.36
-22.81
-20.11
-16.88
-12.9
-7.58
-0.77
7.31
15.7
23.25
29.05
32.36
32.71
30.24
25.58
20.45
16.97
16.88
20.48
26.12
30.82
31.73
27.64
19.38
9.52
0.73
-5.12
-7.49
-6.68
-3.41
1.65
7.56
13.04
16.51
16.72
13.38
7.55
1.09
-4.36
-8.05
-10.13
-11.11
-11.22
-10.13
-7.28
-2.51
3.51
9.54
14.56
18.32
21.64
25.54
30.76
37.17
44.08
50.51
55.94
60.26
63.7
66.24
67.37
66.19
61.93
54.37
44.27
33.19
22.85
14.51
8.4
3.71
-1.11
-7.66
-16.71
-27.54
-38.48
-47.34
-52.71
-54.5
-53.53
-50.95
-47.47
-43.42
-38.97
-34.66
-31.54
-30.71
-32.78
-37.38
-43.24
-48.76
-52.63
-54.35
-54.22
-53.07
-51.7
-50.7
-50.22
-50.02
-49.78
-49.03
-47.43
-44.49
-39.74
-32.65
-23.07
-11.18
1.85
14.24
23.98
29.59
30.88
28.71
24.77
20.78
17.99
16.95
17.45
18.98
21.0
23.47
26.65
31.05
36.84
43.25
48.67
51.2
49.62
43.94
35.58
26.75
19.4
14.84
12.98
12.77
12.6
10.97
6.62
-0.59
-9.63
-18.53
-25.26
-28.48
-28.41
-26.69
-25.54
-26.59
-30.16
-35.31
-40.73
-45.49
-49.12
-51.22
-51.04
-47.68
-40.81
-31.23
-20.69
-11.23
-3.71
2.12
7.3
12.45
16.96
19.67
20.01
18.91
18.61
21.4
27.59
35.02
40.1
39.99
34.01
24.3
14.04
5.07
-2.97
-11.8
-22.92
-35.62
-47.04
-53.88
-54.27
-48.82
-39.9
-29.56
-18.3
-5.1
11.06
28.93
44.65
53.53
52.8
43.71
31.32
22.0
19.97
25.22
34.53
43.45
48.85
49.94
47.52
43.0
37.02
30.03
22.91
16.77
12.48
9.92
7.8
4.41
-0.64
-6.22
-10.33
-11.59
-10.51
-8.8
-7.96
-7.9
-6.96
-3.42
2.57
8.7
12.14
11.42
7.52
3.58
2.87
6.05
11.08
13.79
10.55
0.55
-13.81
-28.08
-37.94
-40.84
-36.39
-25.4
-8.78
12.55
36.99
60.78
78.08
82.73
71.39
46.11
14.13
-14.98
-33.7
-39.24
-33.71
-22.04
-9.02
1.89
8.74
10.51
6.48
-3.1
-16.78
-32.15
-46.28
-57.11
-63.35
-64.77
-61.63
-55.23
-47.43
-40.31
-34.96
-31.19
-27.29
-21.57
-14.3
-8.09
-6.19
-9.64
-15.22
-16.36
-6.89
15.06
44.97
73.51
91.35
93.39
81.13
61.0
40.81
26.22
18.88
17.42
19.19
22.44
26.77
32.08
37.51
40.7
39.03
30.93
17.5
2.13
-10.68
-17.86
-19.09
-17.02
-15.69
-18.31
-25.98
-37.24
-48.7
-56.32
-57.28
-50.82
-38.88
-25.55
-15.45
-12.05
-15.73
-23.57
-30.49
-31.73
-25.17
-12.22
3.24
17.18
27.09
32.57
34.61
34.41
32.44
28.59
23.04
16.54
10.38
5.88
3.75
3.62
4.28
4.11
1.69
-3.5
-10.67
-18.12
-23.98
-27.09
-27.62
-26.74
-25.93
-26.19
-27.62
-29.72
-31.94
-33.84
-35.2
-35.77
-35.25
-33.51
-30.83
-27.95
-25.69
-24.28
-23.07
-20.93
-16.8
-10.51
-2.98
4.35
9.97
12.86
12.54
9.05
3.01
-4.36
-11.29
-16.25
-18.71
-19.35
-19.79
-21.59
-25.22
-29.89
-33.75
-34.88
-32.19
-25.72
-16.72
-6.86
1.97
8.19
10.8
9.58
5.08
-1.42
-8.5
-15.14
-20.85
-25.32
-27.98
-28.15
-25.34
-19.86
-12.88
-6.02
-0.42
3.72
7.24
11.29
16.42
22.08
26.53
27.89
25.09
18.51
9.98
1.76
-4.31
-7.28
-7.63
-6.31
-4.44
-2.64
-1.02
0.37
1.59
2.74
4.18
6.5
10.0
14.39
18.63
21.42
22.13
21.36
20.48
20.55
21.5
22.15
21.64
20.58
20.9
24.22
29.41
32.03
26.54
10.59
-12.81
-35.9
-50.66
-53.22
-46.14
-36.2
-29.96
-29.66
-32.5
-34.03
-32.01
-27.72
-24.24
-22.93
-21.61
-16.1
-3.5
15.29
35.35
50.81
57.79
55.96
48.06
37.68
27.65
19.4
13.32
9.33
7.82
9.13
13.21
19.51
26.67
32.94
36.22
34.49
26.61
13.26
-2.92
-17.87
-27.81
-30.69
-27.44
-21.1
-15.24
-12.34
-12.72
-15.26
-18.3
-20.56
-21.8
-22.17
-21.92
-21.1
-19.25
-16.36
-12.82
-9.4
-6.74
-5.25
-5.11
-6.73
-10.33
-15.33
-19.6
-20.02
-13.86
-1.24
14.34
27.01
31.38
25.28
10.98
-6.15
-20.4
-28.47
-30.23
-27.8
-23.36
-17.86
-10.88
-1.51
10.23
23.19
35.35
44.84
50.7
53.11
53.11
52.07
51.35
51.48
52.13
52.37
51.56
50.09
49.29
50.78
55.55
62.92
70.68
76.05
77.07
73.32
66.05
56.94
47.11
36.36
23.44
7.02
-12.38
-31.82
-46.81
-53.46
-50.99
-42.48
-33.37
-28.19
-28.22
-30.54
-30.63
-25.52
-15.84
-5.6
0.47
-0.35
-7.37
-17.55
-27.52
-35.35
-40.64
-43.19
-42.75
-38.84
-32.11
-24.76
-19.95
-20.43
-27.29
-39.07
-52.2
-62.47
-66.16
-61.44
-48.86
-31.43
-13.94
-0.99
4.3
1.84
-6.11
-15.91
-24.59
-30.28
-32.62
-31.83
-28.26
-22.25
-14.19
-5.0
4.38
12.7
18.6
20.93
18.91
12.78
3.8
-5.89
-14.09
-19.22
-21.03
-20.07
-17.01
-12.17
-5.35
3.08
11.97
19.75
25.3
28.97
32.4
37.33
44.3
52.33
59.39
64.08
66.39
67.58
69.26
72.34
76.77
81.1
83.72
83.18
78.81
70.77
59.96
47.98
36.52
27.4
21.67
19.08
17.67
14.45
6.83
-6.18
-23.04
-40.15
-53.58
-60.82
-62.12
-60.18
-58.33
-59.05
-62.66
-67.2
-70.01
-69.11
-63.8
-55.15
-44.84
-34.54
-25.4
-17.84
-11.51
-6.05
-1.48
1.74
2.62
0.75
-3.52
-8.93
-13.42
-14.95
-12.73
-7.33
-0.03
7.61
14.52
20.02
23.41
24.47
23.36
20.95
18.79
18.33
19.46
20.64
19.39
13.93
4.5
-6.76
-16.61
-22.21
-22.76
-19.93
-16.55
-15.5
-18.25
-24.3
-31.52
-36.79
-37.26
-31.91
-21.86
-9.83
1.14
8.97
13.17
14.28
13.41
11.4
8.79
6.48
5.59
7.3
11.69
17.75
23.47
27.1
27.96
26.6
24.16
21.09
17.14
11.95
5.79
0.09
-2.98
-1.93
2.95
9.38
14.24
15.07
11.66
5.96
1.18
-0.08
2.66
7.82
12.77
15.42
15.18
12.8
9.39
5.66
1.46
-3.39
-8.54
-12.64
-14.08
-12.12
-7.75
-3.54
-1.95
-4.29
-9.7
-15.6
-19.19
-18.68
-14.09
-6.62
1.76
9.34
15.04
18.6
20.36
20.87
20.73
20.6
20.95
22.07
23.85
25.68
26.67
25.86
22.78
17.81
12.05
7.1
4.1
3.53
4.71
6.37
7.22
6.68
4.99
3.02
1.72
1.49
2.23
3.25
3.67
3.09
1.54
-0.39
-1.97
-2.72
-2.65
-2.27
-2.23
-2.77
-3.57
-4.07
-3.98
-3.7
-4.06
-5.8
-8.8
-11.96
-13.76
-13.1
-10.15
-6.2
-3.23
-2.72
-4.82
-8.2
-10.61
-9.75
-4.51
4.35
14.28
21.68
23.43
18.29
7.73
-4.57
-14.17
-18.02
-15.85
-9.91
-3.72
0.08
0.72
-0.51
-1.6
-1.22
0.36
1.78
1.73
-0.08
-2.51
-3.97
-3.45
-1.18
1.43
2.95
2.56
0.7
-1.69
-3.66
-5.15
-6.49
-8.04
-9.56
-10.52
-10.96
-11.94
-15.46
-22.94
-33.53
-44.1
-50.35
-49.42
-41.31
-29.32
-17.89
-10.29
-6.91
-5.61
-3.76
-0.29
3.44
5.26
3.85
0.39
-2.04
-0.46
6.37
17.06
28.44
36.91
40.32
37.95
30.68
20.52
10.17
2.91
1.25
6.19
15.94
26.67
33.74
34.03
27.43
16.58
5.36
-2.99
-7.06
-7.27
-4.82
-0.88
3.78
8.26
10.9
10.02
4.19
-6.18
-19.06
-31.15
-39.61
-42.69
-40.28
-33.63
-24.32
-13.75
-2.93
7.15
14.97
18.75
17.35
11.61
4.54
0.64
3.35
13.24
27.11
39.95
47.5
48.69
45.78
42.42
41.03
41.26
40.96
38.06
32.44
26.17
22.16
22.38
26.44
32.53
37.99
41.06
41.0
38.4
34.27
29.6
24.86
19.78
14.05
7.85
2.43
0.05
2.78
10.55
20.6
28.44
29.97
23.82
11.98
-1.98
-15.15
-26.41
-36.01
-43.94
-48.91
-49.37
-44.98
-38.19
-33.41
-34.6
-42.93
-55.57
-67.68
-74.96
-76.22
-73.18
-69.06
-66.03
-63.86
-60.62
-54.12
-43.74
-31.09
-19.23
-11.13
-8.51
-10.84
-15.9
-20.91
-23.63
-23.06
-19.68
-14.8
-9.95
-6.01
-3.34
-1.85
-1.39
-1.76
-2.49
-3.05
-2.86
-1.76
0.14
2.46
4.82
6.88
8.4
9.11
8.66
7.01
4.52
2.04
0.59
0.57
1.54
2.25
1.24
-2.04
-6.6
-10.59
-11.82
-9.24
-3.55
3.1
7.93
8.96
5.92
0.1
-6.44
-11.97
-16.01
-19.3
-22.56
-25.5
-26.65
-23.94
-16.0
-3.42
11.04
23.69
31.23
32.22
27.21
18.19
7.99
-0.68
-5.68
-5.98
-2.0
4.39
10.77
14.93
16.13
15.12
13.66
13.27
14.56
17.17
20.0
21.87
21.69
19.01
14.2
8.3
2.84
-0.9
-2.61
-3.22
-4.33
-7.15
-11.76
-16.9
-21.01
-23.41
-24.7
-26.42
-29.82
-34.88
-40.23
-43.87
-44.18
-40.57
-33.52
-24.07
-13.4
-2.8
6.86
14.94
21.24
26.06
29.87
33.39
37.31
41.9
46.69
50.38
51.21
47.75
40.01
29.66
19.74
13.28
11.6
13.74
16.85
17.98
15.58
9.81
2.2
-5.49
-12.24
-17.61
-21.29
-22.6
-20.77
-15.49
-7.27
2.29
11.15
17.38
19.79
18.38
14.16
9.09
5.31
4.64
7.66
13.7
20.96
27.16
30.35
29.48
24.88
18.28
12.27
9.54
11.65
18.84
29.74
42.01
52.84
59.87
61.78
58.98
53.26
47.36
43.8
43.94
47.36
51.73
54.03
51.9
44.83
34.38
22.84
11.72
0.83
-11.02
-24.78
-40.24
-55.47
-68.22
-76.78
-80.91
-81.4
-79.41
-75.67
-70.37
-63.61
-55.8
-48.3
-42.28
-38.33
-36.03
-34.09
-31.03
-26.14
-19.77
-13.21
-8.4
-6.87
-9.2
-14.43
-20.4
-24.43
-24.54
-20.7
-15.18
-11.65
-13.18
-19.98
-29.23
-35.82
-35.54
-27.16
-13.56
-0.11
8.4
10.02
6.44
1.59
-0.73
1.02
6.06
11.85
16.18
18.04
17.69
15.72
12.47
7.89
2.09
-3.95
-8.36
-8.9
-4.47
3.94
13.43
20.44
22.37
18.83
11.96
4.93
0.48
-0.38
1.57
5.0
8.87
13.16
18.52
25.6
33.79
41.45
46.38
46.84
42.44
34.24
24.78
16.96
13.08
13.93
18.32
23.76
27.4
27.46
24.1
19.2
15.34
14.45
17.47
24.55
35.22
48.58
63.2
76.67
85.95
88.06
81.34
66.79
47.74
28.47
12.16
-0.26
-9.75
-17.64
-24.36
-28.85
-29.92
-27.63
-23.73
-20.79
-21.19
-25.63
-33.4
-42.76
-51.83
-59.28
-64.31
-66.41
-65.17
-60.45
-52.74
-43.13
-33.43
-25.07
-18.82
-14.48
-11.09
-7.7
-3.95
-0.64
0.17
-4.19
-15.72
-34.66
-58.0
-79.63
-92.83
-92.46
-77.16
-50.8
-21.23
2.84
14.46
11.59
-2.37
-20.4
-35.15
-41.89
-39.98
-31.96
-21.31
-10.35
0.03
10.16
19.9
28.25
33.5
34.52
31.91
28.13
26.61
29.84
38.02
48.87
58.49
62.97
59.95
49.94
35.51
20.5
8.38
1.36
-0.18
2.87
8.75
15.43
20.78
23.02
21.11
15.26
7.24
-0.17
-4.48
-4.22
0.55
8.56
18.01
26.94
33.21
34.96
30.92
21.25
8.02
-5.36
-15.48
-20.31
-20.14
-17.12
-13.87
-11.84
-10.76
-9.0
-5.05
1.46
9.36
16.69
21.6
23.28
21.98
18.76
14.95
11.53
8.7
6.32
3.79
0.66
-3.27
-7.99
-13.04
-17.72
-21.48
-23.8
-24.68
-24.58
-24.2
-24.2
-24.93
-26.07
-26.96
-26.99
-26.03
-24.27
-22.2
-20.08
-18.06
-16.2
-14.66
-13.63
-13.34
-13.82
-14.9
-16.27
-17.69
-18.88
-19.65
-19.8
-19.51
-19.21
-19.57
-21.22
-24.02
-27.05
-28.84
-28.05
-24.19
-17.91
-10.83
-4.79
-1.2
-0.37
-1.64
-3.35
-3.77
-1.83
2.23
6.96
10.6
12.08
11.72
11.06
11.65
13.87
16.43
17.11
14.04
7.21
-1.5
-9.33
-14.28
-15.97
-15.38
-14.17
-13.38
-13.01
-12.33
-10.57
-7.57
-3.77
-0.26
1.98
2.62
1.99
0.6
-1.17
-3.47
-6.6
-10.26
-13.47
-14.51
-12.17
-6.4
1.41
8.92
14.23
16.68
17.53
18.42
20.53
23.63
26.27
27.13
25.89
23.5
21.53
21.13
22.49
24.79
27.08
28.43
28.53
27.34
24.99
21.73
18.21
15.03
12.47
10.3
7.82
4.41
0.19
-3.64
-5.96
-6.43
-6.04
-6.69
-9.5
-14.14
-18.82
-21.59
-21.77
-20.27
-19.2
-20.47
-24.49
-30.12
-35.24
-37.78
-36.62
-31.59
-23.55
-14.26
-5.71
0.22
2.64
1.84
-0.54
-2.33
-2.01
0.46
3.95
6.87
8.05
7.48
6.01
4.89
4.99
6.11
7.24
7.13
5.13
2.0
-1.03
-2.57
-1.95
0.4
3.8
7.93
13.06
19.86
28.62
38.55
47.72
53.47
53.61
47.23
35.45
21.28
8.37
-0.09
-2.9
-1.48
0.72
0.06
-5.3
-14.38
-24.03
-30.93
-33.7
-33.48
-32.46
-32.23
-32.21
-29.99
-23.33
-12.06
1.44
13.11
19.24
18.71
13.16
6.32
1.88
1.75
5.61
11.32
16.55
19.57
20.26
19.42
18.39
17.98
18.36
19.42
20.88
22.76
24.85
26.54
26.47
23.3
16.47
7.01
-2.54
-9.01
-9.39
-1.97
12.95
32.15
50.27
61.51
61.82
50.94
32.47
12.8
-2.37
-10.04
-10.93
-8.39
-5.85
-4.83
-4.64
-4.03
-2.42
-1.1
-2.08
-6.44
-12.91
-18.38
-19.31
-13.92
-3.34
8.99
18.71
22.54
19.42
10.73
-0.91
-12.6
-22.35
-29.16
-32.84
-33.46
-31.35
-26.89
-20.9
-14.39
-8.99
-6.27
-7.01
-10.97
-16.55
-21.54
-23.87
-22.8
-19.05
-14.19
-9.35
-4.72
0.53
7.19
15.35
23.82
30.44
33.35
31.8
26.69
19.76
12.78
6.85
2.6
0.46
1.12
5.04
12.07
20.59
28.27
32.63
32.64
29.13
24.16
20.07
17.75
16.76
15.71
14.29
13.87
16.95
25.38
38.26
52.15
62.28
65.01
59.5
47.8
33.47
19.71
8.44
0.05
-5.57
-8.77
-9.84
-9.63
-9.7
-11.56
-16.16
-23.06
-30.83
-37.54
-41.84
-43.49
-42.99
-41.28
-39.3
-37.4
-35.41
-33.13
-30.47
-28.09
-27.23
-28.86
-33.26
-39.35
-45.24
-48.7
-48.62
-45.29
-40.18
-35.36
-31.83
-29.86
-28.81
-27.98
-26.67
-24.67
-21.93
-18.42
-14.3
-9.84
-5.17
-0.12
5.93
13.27
21.33
28.54
32.48
31.05
23.82
12.11
-1.24
-12.98
-20.68
-23.68
-22.88
-20.1
-17.49
-16.27
-16.63
-17.7
-18.05
-16.35
-12.17
-6.22
-0.17
4.31
6.4
6.23
4.98
3.87
3.88
5.14
7.41
10.12
12.95
15.82
18.94
22.47
26.26
29.69
31.71
31.37
28.04
22.06
14.78
7.98
3.01
0.07
-2.26
-6.0
-12.36
-21.02
-29.93
-35.97
-36.98
-32.49
-24.27
-14.85
-6.33
0.69
6.95
13.31
19.81
25.12
27.4
25.52
20.2
13.58
8.49
6.56
7.6
9.86
10.89
9.39
5.71
1.59
-0.8
0.11
4.42
11.04
18.48
25.42
31.45
36.74
41.46
45.39
47.83
48.07
45.82
41.31
35.13
27.95
20.31
12.7
5.9
1.01
-0.9
0.87
6.1
13.36
20.62
25.59
26.75
23.77
17.79
11.12
6.49
6.18
10.84
19.43
29.49
38.1
43.45
45.04
43.63
40.3
35.56
29.13
20.49
9.63
-2.47
-13.71
-21.77
-25.28
-24.42
-20.97
-17.15
-14.65
-14.04
-14.86
-16.46
-18.66
-22.02
-27.16
-34.09
-42.07
-49.38
-54.4
-56.28
-55.08
-51.9
-48.34
-45.78
-45.25
-46.8
-49.46
-51.25
-49.93
-43.95
-33.61
-21.33
-10.52
-4.47
-4.62
-10.02
-18.05
-25.72
-31.08
-33.8
-34.84
-35.17
-35.16
-34.46
-32.52
-29.56
-26.41
-24.12
-23.1
-22.4
-20.32
-15.73
-8.86
-1.55
3.59
4.67
1.41
-4.84
-11.61
-16.34
-17.17
-13.45
-5.89
3.52
12.36
18.6
21.71
22.84
24.07
26.91
31.08
34.46
34.51
30.04
22.19
14.09
8.72
7.26
8.87
11.27
12.85
13.22
13.17
13.42
13.87
13.4
11.14
7.27
3.06
-0.01
-1.54
-2.52
-4.5
-8.2
-12.73
-15.79
-15.22
-10.46
-3.08
4.02
8.34
8.9
6.53
2.45
-2.45
-8.18
-15.11
-22.78
-29.9
-34.82
-36.59
-35.86
-34.38
-33.84
-34.55
-35.05
-32.65
-25.31
-12.63
3.66
20.39
34.24
42.6
44.47
40.58
33.15
25.31
20.52
21.27
28.32
40.32
54.11
65.78
71.85
70.67
62.8
50.88
38.45
28.78
23.73
23.07
24.85
26.43
25.69
21.76
15.07
7.05
-0.88
-7.43
-11.62
-12.5
-9.25
-1.76
9.1
21.26
31.98
38.81
40.29
36.27
27.82
16.55
4.15
-7.53
-16.67
-21.86
-22.26
-18.28
-11.47
-4.08
1.87
5.3
6.41
6.43
6.5
7.24
8.3
8.72
7.08
2.24
-6.5
-18.78
-32.76
-45.35
-52.7
-52.24
-44.11
-31.35
-19.19
-12.68
-14.39
-23.17
-34.79
-43.86
-46.65
-42.59
-34.35
-26.31
-22.04
-22.64
-26.35
-29.98
-30.54
-26.92
-20.47
-14.01
-10.32
-10.46
-13.53
-17.09
-18.94
-17.99
-14.83
-10.9
-7.55
-5.07
-2.31
2.13
8.89
16.93
23.49
25.72
22.87
17.18
12.93
14.04
21.2
30.99
37.76
37.02
28.56
16.27
5.91
1.69
4.35
11.38
19.23
24.99
27.18
25.11
18.59
8.06
-5.02
-17.64
-26.8
-30.56
-29.52
-26.05
-22.53
-20.23
-18.47
-15.82
-11.6
-6.88
-3.48
-2.78
-5.12
-9.84
-15.74
-21.53
-25.87
-27.42
-24.81
-17.4
-6.43
5.11
13.69
16.86
14.91
10.53
7.65
8.88
14.45
21.68
26.3
24.94
16.68
4.26
-7.35
-13.08
-10.1
0.18
13.04
22.52
24.81
19.67
10.53
2.5
-0.28
3.31
11.08
19.12
23.51
21.84
13.8
1.68
-11.16
-21.32
-26.63
-26.82
-22.65
-15.85
-7.95
-0.68
4.11
4.39
-1.25
-12.17
-25.67
-37.18
-43.18
-42.56
-37.47
-31.98
-29.51
-31.13
-34.93
-37.72
-37.01
-32.77
-26.9
-22.17
-21.04
-24.81
-33.11
-44.26
-55.33
-62.24
-60.59
-47.1
-21.24
13.67
51.44
84.4
105.6
110.79
99.69
75.54
44.19
12.83
-12.14
-26.09
-27.38
-18.02
-3.64
8.65
13.1
7.89
-3.45
-13.95
-16.63
-8.83
6.22
21.27
29.13
26.72
16.86
6.07
0.51
1.93
7.66
13.2
16.02
17.3
20.38
27.75
38.13
47.19
50.4
46.05
36.52
26.44
20.12
19.26
22.82
28.21
32.61
34.01
31.3
24.11
13.12
0.42
-10.82
-17.4
-17.77
-13.46
-8.34
-7.08
-12.37
-23.87
-37.93
-50.18
-57.44
-59.0
-56.68
-53.19
-50.51
-48.8
-46.62
-42.15
-34.72
-25.42
-16.23
-9.17
-5.0
-2.81
-0.85
2.5
7.82
14.44
20.29
23.06
20.77
12.92
0.86
-12.81
-25.16
-34.44
-40.24
-43.77
-46.18
-48.23
-49.37
-48.81
-46.47
-43.34
-41.28
-41.47
-43.21
-43.65
-39.44
-28.54
-11.53
8.46
27.3
42.0
51.9
58.27
63.07
67.25
69.83
68.81
62.63
51.76
39.01
28.38
23.13
24.27
30.39
38.63
46.42
52.11
55.01
54.99
52.08
46.67
40.02
34.56
32.85
36.71
46.32
60.3
75.98
90.05
98.92
99.18
88.29
65.71
34.05
-1.23
-33.45
-57.18
-70.17
-73.91
-71.75
-66.66
-60.05
-52.06
-42.85
-33.89
-27.45
-25.29
-27.17
-30.93
-33.43
-32.49
-27.93
-21.3
-15.03
-10.65
-8.1
-6.17
-3.41
0.8
5.91
10.67
13.83
14.6
13.18
9.85
4.93
-1.07
-7.49
-12.99
-15.86
-15.08
-11.0
-5.62
-1.89
-2.28
-7.47
-16.18
-25.94
-34.33
-40.05
-43.12
-43.9
-42.47
-38.59
-31.82
-22.7
-12.97
-4.65
0.74
3.37
4.62
6.38
9.87
15.05
20.7
25.5
28.55
29.36
27.91
23.73
16.59
7.05
-2.89
-10.59
-13.85
-12.42
-8.13
-4.1
-2.94
-5.54
-11.28
-18.57
-26.31
-34.01
-41.41
-47.92
-52.22
-52.65
-48.37
-39.94
-29.54
-19.91
-13.57
-11.52
-13.17
-16.81
-20.35
-22.36
-22.4
-20.98
-18.9
-16.84
-14.84
-12.37
-8.77
-3.55
3.25
11.0
18.84
25.74
31.0
34.55
36.84
38.67
40.5
41.98
42.09
39.78
34.88
28.52
22.58
18.53
16.39
14.71
11.52
5.66
-2.11
-9.61
-14.43
-15.57
-14.03
-12.25
-12.58
-16.05
-21.93
-27.9
-31.72
-31.97
-28.65
-22.8
-15.82
-8.7
-1.87
4.41
9.97
14.16
16.39
16.44
14.81
12.83
12.02
13.3
16.07
18.41
17.83
12.74
3.65
-6.93
-15.56
-19.46
-17.73
-11.84
-4.52
1.71
5.47
6.77
6.25
4.71
2.7
1.07
0.97
3.89
10.97
21.98
35.12
47.33
55.53
57.62
53.27
43.9
32.09
20.67
11.94
7.23
6.38
8.19
10.75
12.27
11.77
9.43
6.14
3.08
0.88
-0.59
-2.25
-5.15
-9.91
-16.3
-22.99
-27.81
-28.64
-24.18
-14.97
-2.88
9.65
20.39
28.09
32.3
32.95
30.29
25.37
19.83
15.97
15.37
18.09
22.6
26.34
27.31
25.13
21.19
17.25
14.15
11.26
7.12
0.59
-7.9
-16.93
-24.7
-29.73
-31.42
-30.0
-26.27
-21.39
-16.48
-12.4
-9.21
-6.09
-2.26
2.48
7.23
10.26
9.97
6.27
0.82
-3.06
-2.25
4.37
15.45
27.47
36.42
39.46
35.99
27.46
16.55
6.1
-1.77
-5.86
-5.84
-2.21
3.76
10.22
15.34
17.96
17.85
15.86
13.01
10.12
7.34
4.65
1.9
-0.94
-3.91
-7.25
-11.0
-14.78
-17.74
-18.86
-17.91
-15.78
-14.33
-15.04
-18.02
-21.91
-24.84
-25.74
-25.26
-25.05
-26.22
-28.45
-29.96
-28.66
-23.76
-16.25
-8.27
-1.9
1.94
3.89
5.39
7.92
12.25
18.37
25.66
33.22
39.86
44.14
44.88
41.49
34.74
26.59
19.39
15.2
14.7
17.05
20.31
22.33
21.69
18.33
13.65
9.65
8.18
10.26
15.51
22.55
29.41
34.13
35.25
32.54
27.03
20.5
14.71
10.49
7.6
5.0
1.54
-3.3
-9.15
-15.04
-20.42
-25.47
-30.76
-36.61
-42.31
-46.47
-47.71
-45.59
-40.94
-35.23
-29.68
-24.71
-19.82
-14.32
-8.31
-2.21
3.09
7.2
10.45
13.54
16.79
20.12
23.26
26.46
31.18
38.9
49.92
62.04
70.94
71.84
62.12
43.15
19.85
-1.33
-15.39
-21.09
-20.78
-18.46
-17.41
-18.48
-20.38
-21.23
-20.21
-18.16
-16.78
-17.14
-19.0
-20.74
-20.7
-18.21
-14.12
-10.32
-8.64
-9.76
-12.82
-16.42
-19.01
-20.01
-19.56
-18.1
-15.78
-12.48
-8.03
-2.73
2.31
5.59
5.87
2.87
-2.33
-7.55
-10.47
-9.46
-4.34
3.84
13.3
22.1
28.76
32.46
33.05
30.97
27.03
22.06
16.57
10.8
4.6
-1.97
-8.38
-13.84
-17.43
-18.84
-18.6
-18.01
-18.57
-21.08
-25.21
-29.71
-33.23
-34.88
-34.67
-33.28
-31.55
-30.03
-28.49
-26.08
-21.72
-14.8
-5.68
4.0
11.8
15.16
12.85
5.55
-4.17
-13.06
-18.72
-20.43
-19.4
-17.56
-16.13
-15.11
-13.42
-10.13
-5.23
0.1
3.96
4.88
2.51
-2.34
-8.44
-14.68
-20.49
-25.68
-29.9
-32.42
-32.19
-28.55
-21.88
-13.96
-7.37
-4.2
-5.04
-8.6
-12.29
-13.77
-12.39
-9.35
-6.96
-7.24
-10.46
-15.08
-18.84
-20.39
-20.35
-20.81
-23.78
-29.33
-35.03
-37.44
-34.16
-25.23
-13.24
-1.29
8.72
16.78
23.68
29.12
31.19
27.3
16.56
1.29
-13.42
-21.85
-21.0
-11.8
1.52
14.13
22.79
27.22
29.2
30.5
31.71
32.12
30.55
26.96
23.05
22.06
26.87
38.15
53.75
68.91
78.55
79.78
72.82
60.74
47.55
36.71
29.98
27.57
28.81
32.59
37.49
41.73
43.61
42.47
38.79
34.19
30.22
27.35
24.41
19.42
10.65
-2.12
-17.61
-33.78
-48.81
-62.03
-73.71
-84.23
-93.28
-99.66
-101.4
-97.12
-87.0
-72.88
-57.54
-43.69
-32.46
-23.17
-13.99
-3.4
8.78
21.04
31.05
36.8
37.46
33.92
28.04
21.96
17.16
14.13
12.48
11.14
8.8
4.77
-0.87
-7.37
-13.22
-16.89
-17.05
-12.96
-4.78
6.5
19.02
30.67
39.57
44.84
47.03
47.65
48.46
50.35
52.84
54.3
53.09
48.66
42.04
35.35
30.7
29.09
29.83
31.15
31.05
28.21
22.86
16.28
9.7
3.69
-2.24
-9.16
-17.91
-28.2
-38.67
-47.26
-52.33
-53.43
-51.7
-49.12
-47.71
-48.61
-51.59
-55.25
-57.66
-56.98
-52.1
-43.04
-31.16
-18.84
-8.68
-2.55
-0.74
-1.89
-3.9
-5.03
-4.85
-4.35
-5.19
-8.27
-13.35
-18.78
-22.55
-23.1
-19.86
-12.83
-2.66
9.69
22.93
35.24
44.82
50.62
52.86
53.09
53.3
54.58
56.63
57.97
57.2
54.03
49.6
45.7
43.34
41.87
39.09
32.82
22.3
8.8
-5.0
-16.41
-24.31
-29.44
-33.89
-39.4
-46.2
-52.92
-57.59
-58.69
-56.31
-51.88
-47.45
-44.72
-44.18
-44.97
-45.56
-44.37
-40.55
-34.12
-25.79
-16.66
-7.55
0.86
7.92
13.0
15.3
14.48
10.63
4.76
-1.57
-7.04
-11.13
-14.3
-17.37
-20.7
-23.77
-25.51
-25.2
-23.28
-21.11
-20.08
-20.89
-22.7
-23.95
-23.17
-20.03
-15.32
-10.57
-7.11
-5.53
-5.33
-5.18
-3.51
0.84
7.93
16.37
23.64
26.97
24.72
17.14
6.6
-3.56
-10.59
-13.31
-12.19
-8.81
-4.8
-1.53
0.02
-0.89
-4.48
-9.93
-14.95
-16.54
-12.13
-1.84
11.44
22.81
27.86
25.06
16.37
6.23
-1.11
-3.48
-1.56
1.98
4.17
3.26
-0.85
-7.22
-14.54
-21.97
-28.73
-33.68
-35.63
-33.77
-28.02
-19.7
-10.76
-3.21
1.56
3.36
2.85
1.35
0.19
0.23
1.77
4.06
6.16
7.03
6.3
4.2
1.21
-2.17
-5.61
-8.0
-7.22
-0.33
14.25
34.83
55.91
70.09
71.7
59.69
38.32
14.78
-4.2
-15.55
-20.03
-20.17
-18.19
-14.6
-9.05
-1.43
6.84
13.56
17.01
17.0
14.84
12.29
10.55
9.76
9.43
9.01
8.2
6.82
4.55
0.9
-4.76
-12.33
-20.73
-28.28
-33.42
-35.23
-34.06
-31.01
-27.37
-23.93
-20.86
-17.79
-14.17
-9.05
-1.72
8.03
19.3
29.99
37.22
38.66
34.02
25.18
15.88
10.27
10.91
17.84
28.26
37.6
41.38
36.97
24.9
8.4
-8.34
-21.9
-30.82
-35.59
-37.23
-36.17
-32.34
-26.35
-21.13
-21.12
-29.92
-47.03
-66.65
-79.3
-76.87
-57.09
-25.17
8.56
33.85
45.41
44.69
37.59
30.58
27.31
27.3
27.78
26.24
22.0
16.67
12.48
11.38
13.49
17.67
22.24
26.22
29.63
33.28
37.62
41.87
44.32
42.83
36.44
26.29
15.07
5.64
-0.85
-5.96
-12.74
-23.37
-37.4
-50.88
-58.29
-55.83
-43.88
-26.65
-10.14
0.99
5.67
5.89
4.78
4.6
5.64
7.26
8.42
8.77
7.75
4.89
-0.21
-7.01
-13.39
-17.05
-16.36
-12.0
-6.56
-2.27
0.35
3.25
8.85
17.6
26.71
31.62
28.97
19.36
7.66
0.11
0.56
7.82
16.61
20.86
18.16
10.72
3.6
0.96
3.02
6.2
5.89
0.39
-7.83
-13.28
-11.63
-2.32
10.91
22.29
28.0
27.75
24.42
21.54
20.82
21.24
20.39
16.29
8.33
-2.37
-13.67
-23.23
-28.8
-29.21
-23.96
-13.94
-1.52
9.23
13.79
8.76
-6.73
-30.1
-55.92
-77.56
-89.4
-88.56
-75.83
-54.52
-29.64
-6.02
12.89
25.39
31.58
32.76
30.64
26.82
22.72
19.43
17.87
18.95
23.13
29.9
37.52
43.25
44.89
41.59
34.45
25.97
18.64
13.56
10.1
6.83
2.21
-3.81
-9.93
-13.86
-13.55
-8.15
1.5
13.34
24.67
32.87
36.19
33.73
25.64
13.31
-0.77
-13.67
-22.79
-26.85
-26.63
-24.52
-23.94
-27.62
-36.14
-47.82
-59.27
-67.06
-69.16
-65.55
-57.93
-48.68
-39.78
-31.65
-23.79
-15.13
-5.61
4.15
13.07
20.28
25.8
30.32
34.42
37.87
39.78
39.08
35.51
29.78
23.52
18.21
15.04
14.1
14.41
14.28
11.07
2.89
-10.44
-26.37
-39.99
-46.12
-42.0
-29.34
-13.33
-0.44
5.41
4.48
0.49
-1.96
-0.45
4.53
10.71
16.03
20.3
24.97
31.42
39.42
47.31
52.91
54.86
53.27
49.42
44.71
40.3
36.62
33.61
31.12
28.53
25.33
20.8
14.54
6.39
-3.27
-13.66
-23.97
-32.93
-39.26
-41.43
-37.89
-28.18
-14.1
0.31
10.26
12.1
5.12
-8.63
-25.21
-40.0
-49.41
-51.58
-46.3
-34.69
-19.01
-2.04
12.84
22.24
23.65
16.52
2.78
-13.72
-28.34
-37.67
-40.19
-36.89
-30.54
-24.26
-20.28
-18.94
-19.1
-19.04
-17.37
-13.9
-9.36
-4.81
-0.81
2.76
6.74
11.83
17.72
23.47
28.14
31.65
35.1
40.15
47.04
54.04
57.63
54.94
45.63
33.09
22.57
18.3
20.77
26.24
29.04
25.02
13.64
-2.19
-18.44
-31.76
-40.82
-45.52
-45.61
-40.47
-29.61
-13.8
4.5
21.57
33.57
38.16
34.88
25.4
12.66
0.06
-9.43
-13.52
-11.4
-3.93
6.63
17.08
24.14
25.42
19.96
8.46
-6.63
-21.64
-33.11
-38.98
-39.63
-37.25
-34.99
-34.9
-36.95
-39.41
-39.67
-35.95
-28.01
-17.56
-7.17
0.29
2.78
-0.14
-7.16
-14.93
-19.59
-17.61
-8.05
7.31
24.48
38.84
47.35
49.47
47.07
42.88
39.43
38.2
39.31
41.83
43.97
43.83
39.67
30.92
17.97
2.45
-13.0
-25.53
-32.38
-31.98
-24.27
-11.66
1.79
11.48
13.95
8.24
-3.44
-16.25
-25.03
-25.92
-18.32
-4.8
9.81
19.86
20.73
10.28
-9.41
-32.49
-51.32
-59.49
-55.15
-41.68
-25.95
-14.31
-9.2
-8.46
-8.06
-5.18
-0.08
4.37
5.83
4.47
3.38
6.02
12.9
20.88
24.56
19.69
6.15
-12.04
-28.96
-39.33
-40.38
-32.06
-15.96
4.9
26.58
44.14
53.15
51.35
39.44
20.96
0.72
-16.64
-28.14
-32.39
-29.6
-21.05
-9.15
2.53
10.49
11.96
6.44
-4.23
-16.9
-28.3
-36.13
-38.88
-35.77
-26.82
-13.01
2.73
16.12
22.98
21.12
11.23
-3.24
-17.79
-28.01
-31.32
-27.27
-17.3
-4.35
7.96
16.21
18.47
14.69
7.11
-1.09
-7.3
-10.23
-10.55
-9.42
-7.98
-6.45
-4.9
-3.78
-4.28
-7.54
-13.08
-18.14
-18.47
-10.24
7.13
29.71
50.39
62.13
61.15
48.89
30.74
13.19
0.57
-6.12
-8.55
-8.64
-6.79
-2.2
5.6
15.02
22.35
23.48
16.36
2.71
-12.64
-24.43
-30.0
-30.21
-28.18
-26.34
-24.63
-20.92
-12.82
-0.08
14.64
27.63
36.43
40.83
42.38
42.72
41.93
38.99
33.14
24.95
16.66
10.27
5.51
-0.03
-8.98
-21.34
-33.46
-39.48
-34.46
-17.46
7.75
34.47
56.35
69.54
73.72
70.22
60.8
46.69
29.14
10.22
-6.82
-18.29
-21.73
-16.93
-6.05
7.52
20.34
30.25
36.46
39.43
39.92
38.71
36.32
33.22
29.62
25.18
19.03
10.57
0.48
-8.9
-13.73
-10.78
0.28
15.76
28.98
33.23
25.04
6.19
-16.87
-35.82
-44.59
-41.88
-31.64
-20.42
-14.17
-15.17
-21.44
-28.34
-31.09
-27.23
-17.59
-5.62
4.61
10.41
11.43
9.23
5.56
1.03
-5.61
-15.82
-30.02
-46.68
-62.65
-74.8
-81.64
-83.57
-82.07
-77.7
-69.3
-54.99
-34.26
-9.57
14.3
32.73
43.92
49.61
52.66
54.35
52.71
44.15
26.65
2.39
-22.29
-39.68
-44.04
-34.04
-12.77
13.82
38.88
56.39
62.56
56.5
40.69
20.35
1.57
-11.16
-17.01
-18.77
-20.91
-26.11
-33.45
-39.18
-39.02
-30.92
-15.92
2.27
19.38
31.67
36.86
34.28
24.52
9.83
-6.06
-18.38
-23.24
-18.77
-6.57
8.79
21.67
27.38
24.18
13.26
-1.61
-16.24
-27.26
-33.17
-34.99
-35.21
-36.29
-39.28
-43.38
-46.13
-44.85
-37.61
-24.31
-6.87
11.29
26.12
34.33
34.43
27.57
17.07
6.74
-0.89
-5.82
-9.64
-14.06
-18.76
-21.36
-18.97
-10.41
2.48
15.53
24.06
25.39
19.51
8.91
-2.53
-11.7
-16.83
-18.08
-16.42
-12.62
-6.64
1.7
12.02
22.74
31.04
34.1
30.41
20.82
8.63
-2.23
-8.99
-11.05
-9.73
-7.09
-4.21
-1.33
1.44
3.56
3.87
1.62
-2.47
-6.42
-7.98
-5.84
-0.74
4.47
6.88
4.34
-2.61
-11.73
-19.98
-25.07
-25.89
-22.51
-15.71
-6.44
4.15
14.91
24.57
31.93
35.96
36.02
31.68
23.26
11.93
-0.33
-10.64
-16.94
-18.84
-17.94
-16.99
-18.19
-21.37
-24.65
-25.73
-23.53
-19.56
-17.08
-18.93
-25.86
-35.62
-44.19
-47.34
-42.5
-29.57
-11.44
7.46
22.44
29.62
27.21
16.28
0.71
-13.92
-21.75
-19.32
-6.52
12.83
32.05
44.58
46.04
36.05
17.79
-3.42
-22.27
-34.35
-37.28
-30.84
-16.42
2.55
21.16
34.04
37.13
29.4
13.04
-7.43
-27.34
-42.81
-51.91
-53.7
-47.92
-35.16
-17.41
1.83
18.75
30.69
37.53
41.17
44.41
49.49
57.04
66.58
76.94
86.82
93.92
94.81
85.52
63.39
29.59
-10.65
-48.97
-77.44
-92.02
-93.59
-87.35
-78.88
-71.72
-65.82
-58.95
-48.8
-35.1
-19.92
-6.15
4.15
10.8
15.01
18.1
20.09
19.76
15.41
6.61
-5.28
-16.46
-22.24
-18.68
-3.99
19.73
46.81
69.7
81.18
77.32
59.2
32.85
7.04
-10.54
-16.51
-13.17
-6.54
-2.23
-2.21
-3.84
-2.49
4.58
15.77
25.66
28.59
22.64
11.23
1.04
-2.08
3.21
12.85
20.47
20.85
13.06
-0.19
-14.66
-27.04
-36.05
-42.17
-46.22
-48.76
-50.38
-51.54
-53.49
-57.2
-62.65
-68.16
-70.32
-65.7
-52.2
-30.61
-3.87
23.79
48.37
67.24
78.95
83.3
80.69
72.38
60.77
48.72
38.5
30.78
24.2
16.23
5.29
-7.99
-20.56
-28.51
-29.17
-22.45
-10.99
1.0
8.93
9.5
1.54
-13.92
-33.91
-54.59
-72.07
-82.88
-84.39
-75.44
-56.3
-29.46
0.32
27.06
45.26
52.05
48.47
39.13
30.41
27.2
31.21
40.78
52.45
62.67
69.17
70.65
66.71
57.77
44.66
29.3
14.24
2.28
-4.64
-6.22
-3.42
1.21
4.6
4.11
-1.12
-9.54
-17.88
-22.68
-21.76
-14.63
-2.66
11.84
26.53
38.97
46.79
47.73
40.29
24.82
4.71
-14.55
-27.2
-29.81
-22.81
-10.67
0.71
7.15
7.84
4.93
1.52
-0.05
0.9
3.62
6.59
8.15
7.01
2.27
-6.76
-20.01
-35.95
-51.46
-62.82
-66.66
-61.28
-47.51
-27.84
-5.82
15.04
31.5
40.48
39.85
29.56
12.52
-5.53
-17.16
-15.45
2.95
36.0
75.67
110.42
129.25
126.11
102.13
64.94
25.31
-7.63
-29.42
-40.81
-45.52
-47.31
-47.99
-47.26
-44.06
-38.38
-31.8
-26.4
-23.85
-24.34
-26.59
-28.64
-28.99
-27.09
-23.54
-19.72
-17.05
-16.24
-16.92
-17.8
-17.55
-15.44
-12.0
-8.52
-6.62
-7.28
-10.47
-15.05
-19.38
-21.83
-21.37
-17.97
-12.56
-6.75
-2.04
0.96
2.66
4.31
7.33
12.25
18.38
24.29
28.87
31.87
34.1
36.84
40.88
46.02
50.84
54.31
56.62
59.19
63.36
68.85
73.25
73.03
66.12
53.56
39.29
28.24
22.82
21.79
21.33
17.62
9.65
-0.66
-10.51
-18.4
-25.29
-33.13
-41.7
-47.67
-46.22
-34.47
-14.04
8.99
27.18
35.77
34.77
28.61
22.46
19.5
19.55
20.37
19.74
17.04
13.58
10.85
9.51
8.61
6.38
1.57
-5.83
-14.56
-22.82
-29.44
-34.21
-37.29
-38.91
-38.72
-36.13
-31.24
-25.22
-19.99
-17.65
-19.05
-23.5
-29.11
-33.98
-36.95
-38.0
-37.68
-36.38
-34.25
-31.35
-28.23
-25.8
-24.94
-25.66
-26.86
-27.21
-26.33
-25.13
-25.59
-29.22
-35.74
-42.68
-46.6
-44.85
-37.18
-25.87
-14.52
-6.24
-2.48
-3.12
-7.14
-13.03
-18.5
-20.4
-15.2
-1.11
20.19
42.8
58.84
62.03
50.73
29.04
4.94
-13.1
-19.63
-14.0
-0.14
15.54
26.6
28.76
21.08
6.02
-11.85
-27.76
-38.88
-45.3
-49.34
-53.21
-57.42
-60.23
-59.15
-52.89
-43.0
-33.02
-26.76
-26.23
-30.47
-36.28
-39.58
-37.51
-29.65
-18.28
-7.28
-0.73
-1.52
-9.98
-23.87
-38.35
-47.48
-45.62
-29.33
1.3
42.14
85.69
123.07
145.62
147.7
128.31
91.95
47.79
6.63
-22.91
-37.35
-39.08
-34.98
-32.31
-35.42
-44.23
-54.66
-61.89
-62.75
-56.64
-44.75
-28.84
-9.8
11.98
35.16
57.12
73.86
82.2
81.64
74.78
65.86
58.3
52.67
45.99
34.92
17.64
-3.71
-24.22
-38.85
-45.38
-44.98
-40.87
-35.91
-30.4
-22.91
-12.25
0.65
12.13
17.97
16.01
7.46
-3.92
-13.38
-17.86
-16.71
-10.95
-2.34
7.33
15.63
19.58
16.03
3.72
-15.67
-36.89
-53.01
-59.02
-54.39
-43.61
-33.37
-28.77
-29.45
-30.51
-25.59
-10.64
12.94
38.92
59.06
66.34
57.75
35.48
5.79
-22.94
-41.99
-45.43
-31.15
-2.32
32.99
64.02
81.19
79.8
61.69
34.33
7.48
-10.4
-15.87
-10.85
-1.35
5.73
5.26
-3.88
-18.85
-34.73
-46.12
-48.82
-40.57
-20.96
8.1
42.0
73.48
93.9
96.04
77.95
45.28
9.85
