2013-07-03 19:16:37
64.0
-0.0
-0.0
-0.0
-0.0
-0.0
-0.0
-0.0
-0.0
-0.0
-0.0
0.0
0.01
0.01
-0.0
-0.03
-0.05
-0.05
0.0
0.13
0.36
0.66
1.01
1.37
1.72
2.06
2.4
2.79
3.24
3.8
4.42
5.06
5.66
6.2
6.68
7.15
7.68
8.31
9.14
10.09
11.04
11.88
12.56
13.14
13.76
14.65
15.96
17.91
20.32
22.9
25.38
27.58
29.57
31.68
34.32
37.81
42.54
48.15
54.1
59.83
64.97
69.58
74.14
79.34
85.71
93.76
103.0
112.62
121.73
129.77
136.75
143.3
150.75
157.77
166.64
177.95
191.79
206.97
220.57
228.25
225.36
208.53
176.87
132.76
80.05
23.07
-34.94
-92.44
-149.16
-205.23
-260.37
-313.74
-363.87
-409.83
-450.91
-486.5
-515.74
-537.23
-549.22
-549.96
-538.37
-514.21
-478.67
-433.88
-382.45
-327.02
-269.84
-212.63
-156.66
-102.95
-52.37
-5.9
35.58
71.43
101.35
125.5
144.38
158.69
169.15
176.37
180.75
182.57
182.07
179.51
175.23
169.65
163.18
156.15
148.81
141.3
133.69
126.02
118.33
110.69
103.16
95.8
88.68
81.83
75.25
68.95
62.95
57.25
51.86
46.78
42.03
37.59
33.45
29.61
26.07
22.81
19.83
17.11
14.67
12.48
10.54
8.83
7.35
6.07
4.97
4.05
3.27
2.62
2.09
1.65
1.3
1.01
0.79
0.61
0.47
0.37
0.28
0.22
0.18
0.15
0.13
0.12
0.13
0.13
0.15
0.17
0.2
0.23
0.27
0.31
0.35
0.39
0.44
0.48
0.53
0.58
0.64
0.69
0.75
0.82
0.89
0.96
1.05
1.14
1.24
1.36
1.49
1.64
1.8
1.99
2.19
2.41
2.66
2.94
3.24
3.58
3.94
4.34
4.77
5.25
5.75
6.3
6.88
7.51
8.18
8.9
9.65
10.46
11.31
12.2
13.14
14.13
15.18
16.31
17.49
18.72
19.99
21.25
22.44
23.47
24.25
24.63
24.52
23.79
22.4
20.28
17.48
14.07
10.15
5.89
1.5
-2.82
-6.89
-10.53
-13.61
-16.03
-17.77
-18.81
-19.18
-18.97
-18.28
-17.22
-15.92
-14.46
-12.94
-11.38
-9.78
-8.11
-6.37
-4.57
-2.76
-0.95
0.82
2.54
4.23
5.97
7.88
9.91
12.03
14.2
16.34
18.4
20.38
22.36
24.52
27.14
30.11
33.38
36.8
40.17
43.28
46.06
48.59
51.21
54.39
58.05
62.07
66.13
69.81
72.68
74.5
75.43
76.01
77.04
78.5
80.18
81.48
81.39
78.77
72.57
61.91
45.74
27.65
8.95
-9.74
-28.45
-47.65
-68.08
-90.61
-115.96
-144.29
-174.63
-205.16
-232.35
-251.91
-260.17
-255.5
-239.07
-214.44
-186.19
-158.24
-133.37
-112.29
-94.43
-78.95
-65.37
-53.6
-43.64
-35.09
-27.1
-19.09
-10.81
-2.67
4.3
9.03
10.99
10.68
9.48
9.07
10.52
14.05
18.9
23.78
27.52
29.52
29.91
29.29
28.41
27.77
27.57
27.72
28.02
28.2
28.0
27.18
25.56
23.03
19.77
16.23
13.15
11.25
10.95
12.17
14.31
16.52
18.16
19.03
19.39
19.69
20.24
20.98
21.65
21.92
21.6
20.66
19.09
16.82
13.79
10.11
6.22
2.87
0.83
0.53
1.83
4.08
6.36
7.94
8.53
8.28
7.64
7.04
6.69
6.56
6.43
6.1
5.44
4.48
3.25
1.7
-0.32
-2.86
-5.77
-8.55
-10.4
-10.62
-8.95
-5.66
-1.57
2.42
5.62
7.83
9.24
10.19
10.9
11.41
11.58
11.35
10.78
10.14
9.77
9.9
10.48
11.16
11.34
10.45
8.25
5.05
1.66
-0.94
-2.03
-1.46
0.27
2.35
3.98
4.75
4.68
4.06
3.24
2.38
1.5
0.51
-0.52
-1.45
-2.1
-2.5
-3.0
-4.22
-6.78
-10.86
-15.97
-20.92
-24.31
-25.07
-22.94
-18.56
-13.14
-7.92
-3.69
-0.65
1.48
3.08
4.42
5.56
6.48
7.19
7.76
8.22
8.45
8.18
7.04
4.91
2.02
-1.02
-3.37
-4.36
-3.76
-1.88
0.62
2.93
4.5
5.15
5.03
4.53
3.99
3.64
3.58
3.73
4.0
4.19
4.07
3.28
1.45
-1.67
-6.02
-11.12
-16.09
-19.99
-22.16
-22.52
-21.58
-20.25
-19.4
-19.54
-20.7
-22.51
-24.46
-26.18
-27.58
-28.78
-30.06
-31.65
-33.71
-36.38
-39.78
-43.95
-48.63
-53.19
-56.59
-57.69
-55.44
-49.38
-39.51
-26.18
-9.81
9.35
31.23
55.74
82.43
110.37
138.12
164.01
186.26
203.19
213.44
216.08
210.91
198.48
180.07
157.38
132.08
105.51
78.54
51.78
25.88
1.72
-19.69
-37.47
-51.16
-60.84
-67.01
-70.3
-71.31
-70.68
-69.1
-67.34
-66.06
-65.57
-65.64
-65.61
-64.67
-62.31
-58.58
-54.02
-49.39
-45.22
-41.68
-38.59
-35.61
-32.55
-29.33
-26.06
-22.89
-19.92
-17.39
-15.62
-15.0
-15.78
-17.66
-19.82
-20.98
-19.9
-15.86
-9.0
-0.19
9.4
18.71
27.11
34.32
40.26
44.75
47.47
48.11
46.56
42.94
37.6
30.84
22.82
13.65
3.6
-6.61
-15.89
-22.99
-27.05
-27.88
-26.14
-23.02
-19.71
-17.02
-15.2
-14.02
-13.15
-12.3
-11.35
-10.21
-8.78
-6.95
-4.78
-2.57
-0.93
-0.48
-1.54
-3.9
-6.74
-8.92
-9.51
-8.14
-5.21
-1.65
1.49
3.5
4.28
4.18
3.76
3.46
3.46
3.71
4.06
4.3
4.2
3.43
1.71
-1.01
-4.38
-7.64
-9.95
-10.74
-10.08
-8.62
-7.22
-6.5
-6.52
-6.8
-6.7
-5.78
-4.05
-1.82
0.47
2.43
3.85
4.56
4.48
3.66
2.39
1.21
0.71
1.32
2.99
5.24
7.37
8.79
9.3
9.1
8.57
8.06
7.7
7.47
7.29
7.14
6.93
6.49
5.48
3.59
0.78
-2.56
-5.64
-7.61
-7.95
-6.77
-4.68
-2.51
-0.85
0.14
0.69
1.17
1.77
2.39
2.82
2.8
2.19
0.91
-1.13
-4.0
-7.59
-11.42
-14.74
-16.63
-16.49
-14.29
-10.57
-6.27
-2.25
0.95
3.24
4.81
5.88
6.56
6.87
6.87
6.75
6.69
6.74
6.67
5.98
4.2
1.22
-2.49
-5.99
-8.22
-8.44
-6.63
-3.38
0.33
3.56
5.77
6.89
7.21
7.08
6.78
6.44
6.11
5.82
5.61
5.51
5.36
4.81
3.36
0.66
-3.21
-7.61
-11.42
-13.46
-13.07
-10.37
-6.31
-2.2
0.83
2.3
2.44
1.92
1.43
1.38
1.76
2.39
3.0
3.34
3.22
2.42
0.84
-1.34
-3.64
-5.33
-5.72
-4.51
-1.92
1.37
4.51
6.92
8.44
9.24
9.64
9.83
9.83
9.52
8.82
7.63
5.85
3.38
0.17
-3.57
-7.32
-10.34
-12.01
-12.1
-10.93
-9.19
-7.52
-6.26
-5.32
-4.32
-2.95
-1.22
0.61
2.17
3.25
3.8
3.84
3.3
2.06
0.09
-2.31
-4.55
-5.86
-5.71
-4.04
-1.33
1.67
4.26
6.07
7.13
7.67
7.92
8.03
8.04
7.97
7.89
7.84
7.71
7.2
5.95
3.74
0.72
-2.51
-5.11
-6.33
-5.85
-3.94
-1.3
1.22
2.96
3.64
3.39
2.52
1.38
0.24
-0.69
-1.2
-1.15
-0.53
0.4
1.06
0.81
-0.78
-3.58
-6.87
-9.59
-10.8
-10.08
-7.77
-4.73
-1.89
0.1
1.13
1.47
1.53
1.57
1.73
2.05
2.58
3.46
4.77
6.31
7.64
8.15
7.36
5.29
2.52
0.01
-1.33
-1.06
0.59
2.81
4.66
5.51
5.31
4.48
3.62
3.15
3.17
3.51
3.94
4.26
4.27
3.74
2.34
-0.14
-3.63
-7.56
-11.01
-13.06
-13.2
-11.58
-8.94
-6.22
-4.16
-3.0
-2.5
-2.23
-1.84
-1.22
-0.39
0.56
1.62
2.72
3.64
3.99
3.37
1.64
-0.87
-3.39
-5.05
-5.24
-3.94
-1.65
0.89
2.98
4.33
4.94
5.06
4.91
4.67
4.4
4.18
4.15
4.42
4.94
5.4
5.28
4.06
1.54
-1.98
-5.67
-8.58
-9.97
-9.74
-8.36
-6.63
-5.24
-4.4
-3.89
-3.24
-2.14
-0.6
1.07
2.46
3.37
3.81
3.96
3.84
3.32
2.14
0.15
-2.43
-4.97
-6.69
-7.0
-5.83
-3.58
-0.98
1.3
2.9
3.84
4.39
4.81
5.26
5.7
6.06
6.31
6.48
6.65
6.76
6.57
5.66
3.67
0.51
-3.38
-7.13
-9.76
-10.59
-9.65
-7.62
-5.49
-4.04
-3.53
-3.63
-3.73
-3.35
-2.36
-0.98
0.47
1.79
2.94
3.98
4.8
5.08
4.41
2.57
-0.19
-3.18
-5.49
-6.44
-5.87
-4.23
-2.28
-0.72
0.14
0.41
0.45
0.62
1.07
1.73
2.41
2.99
3.45
3.75
3.79
3.3
1.95
-0.4
-3.55
-6.85
-9.46
-10.65
-10.13
-8.2
-5.59
-3.14
-1.45
-0.72
-0.74
-1.16
-1.68
-2.14
-2.47
-2.57
-2.27
-1.4
0.09
1.9
3.47
4.17
3.58
1.78
-0.65
-2.82
-3.95
-3.76
-2.44
-0.59
1.23
2.72
3.96
5.17
6.5
7.85
9.01
9.8
10.26
10.61
11.07
11.56
11.69
10.94
8.96
5.95
2.59
-0.2
-1.66
-1.6
-0.42
1.13
2.35
2.83
2.63
2.13
1.77
1.89
2.64
3.99
5.84
7.88
9.63
10.4
9.41
6.17
0.74
-6.01
-12.7
-17.8
-20.29
-20.01
-17.58
-14.14
-10.67
-7.75
-5.45
-3.56
-1.86
-0.28
1.14
2.33
3.27
3.86
3.9
3.05
1.11
-1.79
-5.03
-7.73
-9.13
-8.95
-7.56
-5.69
-4.07
-3.04
-2.45
-1.93
-1.19
-0.22
0.71
1.27
1.24
0.49
-0.96
-3.03
-5.5
-8.0
-10.01
-11.11
-11.17
-10.42
-9.34
-8.31
-7.4
-6.31
-4.54
-1.77
1.89
5.99
9.84
12.82
14.5
14.68
13.36
10.86
7.7
4.57
2.1
0.62
0.08
0.08
0.2
0.2
0.15
0.33
0.92
1.83
2.76
3.3
3.13
2.18
0.57
-1.43
-3.49
-5.22
-6.3
-6.61
-6.32
-5.84
-5.71
-6.2
-7.21
-8.2
-8.54
-7.79
-6.0
-3.62
-1.32
0.26
0.76
0.14
-1.31
-3.06
-4.47
-4.98
-4.31
-2.57
-0.21
2.18
4.18
5.65
6.73
7.67
8.65
9.72
10.73
11.52
11.79
11.28
9.81
7.39
4.4
1.45
-0.76
-1.85
-1.89
-1.34
-0.83
-0.77
-1.22
-1.99
-2.83
-3.63
-4.41
-5.19
-5.89
-6.39
-6.66
-6.84
-7.17
-7.76
-8.44
-8.76
-8.3
-6.89
-4.74
-2.33
-0.15
1.61
3.04
4.36
5.7
6.96
7.96
8.5
8.62
8.37
7.81
6.83
5.29
3.23
0.98
-0.81
-1.56
-1.02
0.56
2.48
4.03
4.77
4.75
4.31
3.81
3.42
3.03
2.47
1.63
0.5
-0.95
-2.85
-5.35
-8.41
-11.68
-14.49
-16.08
-15.97
-14.2
-11.37
-8.26
-5.57
-3.59
-2.22
-1.16
-0.14
0.98
2.15
3.26
4.17
4.69
4.58
3.65
1.86
-0.44
-2.64
-4.02
-4.08
-2.78
-0.59
1.78
3.69
4.85
5.37
5.56
5.74
6.02
6.36
6.64
6.74
6.56
6.0
4.97
3.45
1.64
-0.06
-1.18
-1.43
-0.83
0.22
1.14
1.5
1.16
0.3
-0.7
-1.45
-1.71
-1.37
-0.51
0.63
1.68
2.12
1.59
0.06
-2.11
-4.2
-5.53
-5.72
-4.89
-3.57
-2.35
-1.58
-1.24
-1.02
-0.58
0.2
1.21
2.28
3.29
4.28
5.28
6.18
6.6
6.02
4.17
1.24
-1.99
-4.5
-5.44
-4.57
-2.31
0.4
2.64
3.83
3.96
3.35
2.41
1.4
0.41
-0.52
-1.27
-1.65
-1.56
-1.15
-0.87
-1.22
-2.48
-4.43
-6.39
-7.5
-7.15
-5.33
-2.6
0.18
2.28
3.44
3.88
4.04
4.3
4.76
5.33
5.85
6.3
6.69
6.94
6.79
5.84
3.82
0.87
-2.36
-4.95
-6.1
-5.54
-3.68
-1.39
0.46
1.38
1.41
0.99
0.57
0.45
0.59
0.8
0.93
0.92
0.81
0.53
-0.16
-1.65
-4.17
-7.55
-11.07
-13.64
-14.27
-12.6
-9.05
-4.69
-0.76
1.84
2.87
2.74
2.13
1.72
1.83
2.45
3.4
4.44
5.4
6.11
6.34
5.83
4.4
2.18
-0.34
-2.36
-3.11
-2.23
0.06
2.99
5.64
7.37
8.07
8.1
7.97
8.07
8.41
8.81
9.01
8.89
8.38
7.38
5.68
3.1
-0.33
-4.15
-7.58
-9.77
-10.27
-9.25
-7.44
-5.8
-5.04
-5.36
-6.39
-7.48
-8.09
-7.91
-6.95
-5.38
-3.41
-1.28
0.63
1.84
1.89
0.59
-1.77
-4.4
-6.26
-6.58
-5.19
-2.61
0.25
2.57
3.96
4.53
4.72
4.94
5.37
5.98
6.65
7.39
8.21
9.04
9.54
9.23
7.69
4.91
1.45
-1.76
-3.75
-4.01
-2.65
-0.35
1.99
3.65
4.33
4.18
3.56
2.86
2.29
1.91
1.64
1.38
1.05
0.55
-0.26
-1.6
-3.68
-6.46
-9.61
-12.42
-14.08
-13.94
-11.88
-8.38
-4.3
-0.56
2.28
4.07
5.07
5.67
6.08
6.36
6.44
6.33
6.16
6.2
6.66
7.53
8.45
8.81
8.06
5.98
2.9
-0.3
-2.6
-3.29
-2.27
-0.13
2.18
3.77
4.2
3.59
2.38
1.08
0.03
-0.67
-1.09
-1.34
-1.48
-1.51
-1.52
-1.72
-2.41
-3.89
-6.26
-9.25
-12.21
-14.32
-14.88
-13.62
-10.81
-7.15
-3.46
-0.35
1.88
3.29
4.08
4.5
4.71
4.85
5.05
5.44
6.13
7.09
8.13
8.93
9.04
8.06
5.83
2.55
-1.21
-4.62
-6.89
-7.58
-6.75
-4.9
-2.81
-1.09
-0.04
0.41
0.56
0.69
0.92
1.21
1.44
1.52
1.46
1.33
1.27
1.35
1.53
1.59
1.21
0.07
-1.87
-4.29
-6.51
-7.78
-7.58
-5.91
-3.3
-0.57
1.58
2.8
3.19
3.16
3.1
3.24
3.57
3.97
4.32
4.61
4.91
5.25
5.48
5.22
4.03
1.68
-1.64
-5.22
-8.1
-9.46
-9.04
-7.24
-4.98
-3.25
-2.64
-3.22
-4.52
-5.89
-6.77
-6.9
-6.23
-4.93
-3.16
-1.15
0.79
2.2
2.59
1.7
-0.38
-3.05
-5.47
-6.8
-6.62
-5.07
-2.7
-0.2
1.88
3.34
4.22
4.71
4.94
5.02
5.04
5.14
5.48
6.13
6.9
7.41
7.09
5.53
2.68
-1.01
-4.63
-7.25
-8.23
-7.58
-5.94
-4.24
-3.29
-3.35
-4.15
-5.07
-5.49
-5.13
-4.02
-2.44
-0.64
1.2
2.89
4.17
4.65
3.95
2.01
-0.74
-3.45
-5.15
-5.26
-3.79
-1.39
1.05
2.79
3.59
3.71
3.64
3.81
4.29
4.94
5.55
6.05
6.57
7.16
7.69
7.69
6.61
4.16
0.6
-3.17
-6.06
-7.24
-6.54
-4.54
-2.25
-0.57
0.03
-0.3
-1.07
-1.79
-2.15
-2.14
-1.88
-1.4
-0.67
0.4
1.72
2.95
3.55
3.05
1.35
-1.09
-3.4
-4.65
-4.35
-2.61
-0.11
2.31
4.01
4.84
5.04
5.04
5.17
5.53
6.08
6.68
7.29
7.88
8.5
9.08
9.42
9.16
7.88
5.35
1.69
-2.49
-6.27
-8.76
-9.46
-8.52
-6.67
-4.82
-3.68
-3.51
-4.09
-5.02
-5.96
-6.69
-7.2
-7.43
-7.22
-6.38
-4.81
-2.67
-0.44
1.21
1.64
0.57
-1.75
-4.52
-6.77
-7.65
-6.87
-4.71
-1.94
0.61
2.35
3.16
3.32
3.26
3.33
3.61
4.01
4.4
4.78
5.22
5.8
6.34
6.37
5.32
2.86
-0.83
-5.01
-8.58
-10.61
-10.66
-9.04
-6.53
-4.06
-2.29
-1.47
-1.41
-1.72
-2.05
-2.12
-1.85
-1.23
-0.31
0.88
2.25
3.57
4.45
4.42
3.18
0.8
-2.12
-4.69
-6.06
-5.79
-4.09
-1.61
0.77
2.48
3.36
3.65
3.79
4.11
4.72
5.52
6.37
7.16
7.88
8.55
9.12
9.34
8.8
7.14
4.24
0.5
-3.27
-6.1
-7.26
-6.63
-4.71
-2.42
-0.63
0.17
0.03
-0.65
-1.37
-1.83
-2.02
-2.05
-1.99
-1.77
-1.2
-0.17
1.12
2.17
2.4
1.43
-0.59
-3.05
-5.06
-5.92
-5.38
-3.75
-1.71
0.08
1.19
1.63
1.62
1.49
1.48
1.67
2.05
2.59
3.24
4.0
4.84
5.58
5.93
5.52
4.06
1.64
-1.33
-4.07
-5.85
-6.23
-5.33
-3.71
-2.05
-0.86
-0.18
0.22
0.65
1.22
1.8
2.12
2.01
1.52
0.88
0.4
0.27
0.53
1.01
1.48
1.63
1.21
0.04
-1.85
-4.2
-6.5
-8.17
-8.81
-8.32
-6.94
-5.12
-3.3
-1.72
-0.41
0.7
1.69
2.55
3.22
3.68
4.06
4.59
5.48
6.84
8.55
10.28
11.56
11.9
10.93
8.58
5.2
1.47
-1.71
-3.66
-4.13
-3.42
-2.2
-1.15
-0.7
-0.87
-1.43
-2.09
-2.7
-3.27
-3.81
-4.26
-4.39
-3.96
-2.84
-1.13
0.93
2.97
4.61
5.51
5.39
4.08
1.7
-1.33
-4.3
-6.5
-7.44
-7.12
-5.92
-4.39
-2.97
-1.81
-0.78
0.28
1.39
2.42
3.15
3.51
3.6
3.69
3.98
4.5
5.14
5.69
5.95
5.81
5.17
3.93
2.03
-0.44
-3.22
-5.81
-7.71
-8.56
-8.28
-7.11
-5.44
-3.64
-1.91
-0.29
1.33
3.14
5.24
7.66
10.28
12.87
15.18
17.0
18.18
18.7
18.47
17.41
15.47
12.81
9.92
7.64
6.81
7.93
10.8
14.52
17.8
19.49
19.07
16.77
13.43
10.09
7.53
6.09
5.65
5.83
6.25
6.67
6.96
7.04
6.71
5.63
3.5
0.35
-3.28
-6.42
-7.99
-7.28
-4.31
0.23
5.32
10.1
14.21
17.83
21.4
25.32
29.73
34.52
39.62
45.05
51.0
57.55
64.6
71.67
78.12
83.32
86.83
88.58
88.86
88.1
86.72
84.87
82.38
78.73
73.28
65.55
55.41
43.1
29.14
14.0
-2.02
-18.92
-36.72
-55.2
-73.83
-91.83
-108.59
-123.87
-137.92
-151.26
-164.4
-177.44
-189.94
-200.94
-209.06
-212.71
-210.12
-199.69
-180.46
-152.83
-118.98
-82.77
-48.79
-21.04
-1.57
10.1
16.45
20.83
25.87
32.58
40.24
47.22
52.11
54.66
55.86
57.39
60.65
65.95
72.29
77.87
80.91
80.59
77.32
72.3
66.75
61.15
55.03
47.46
37.86
26.61
15.09
5.02
-2.47
-7.4
-10.88
-14.37
-18.76
-23.8
-28.27
-30.7
-30.22
-27.08
-22.51
-18.13
-15.19
-14.13
-14.51
-15.24
-14.92
-12.22
-6.21
3.26
15.25
27.61
37.25
40.97
36.39
22.95
2.25
-22.37
-46.76
-67.21
-81.4
-88.63
-89.55
-85.51
-77.9
-67.84
-56.24
-43.97
-31.96
-21.1
-11.92
-4.37
2.15
8.46
15.05
21.72
27.58
31.47
32.5
30.68
26.94
22.89
20.14
19.68
21.49
24.48
26.85
26.65
22.3
12.91
-1.47
-19.73
-39.59
-57.8
-70.56
-74.63
-68.46
-53.2
-32.51
-11.49
5.26
15.24
18.76
18.29
16.93
16.83
18.35
20.31
20.94
18.94
13.98
6.71
-1.82
-10.64
-19.16
-27.32
-35.44
-44.28
-55.03
-69.49
-89.67
-117.02
-151.14
-188.69
-223.42
-247.53
-254.15
-239.92
-206.31
-159.08
-105.93
-53.67
-6.26
35.5
72.78
107.05
138.79
167.3
191.02
208.16
216.92
215.66
202.91
177.78
140.55
93.03
38.6
-18.39
-73.36
-122.23
-161.73
-189.69
-205.09
-208.24
-200.62
-184.46
-162.2
-136.12
-108.4
-81.37
-57.54
-39.26
-27.93
-23.36
-23.8
-26.75
-30.19
-33.43
-37.11
-42.23
-49.12
-56.73
-62.83
-64.57
-59.07
-43.69
-16.36
23.92
76.12
136.5
198.78
255.51
300.26
329.36
342.88
344.02
337.83
329.48
322.95
320.27
321.54
325.26
329.16
331.06
329.55
324.27
315.51
303.58
288.29
268.96
244.9
215.98
182.77
146.26
107.35
66.75
25.17
-16.17
-55.32
-90.02
-118.25
-138.9
-152.15
-159.09
-161.19
-159.77
-155.59
-148.85
-139.44
-127.21
-112.28
-95.2
-77.02
-59.29
-43.89
-32.71
-27.19
-27.76
-33.53
-42.23
-50.75
-55.96
-55.55
-48.79
-36.56
-21.07
-5.13
8.65
18.48
23.64
24.53
22.31
18.41
14.18
10.45
7.47
4.94
2.25
-1.25
-6.14
-12.77
-20.98
-30.02
-38.6
-45.39
-49.54
-51.15
-51.34
-51.87
-54.55
-60.49
-69.63
-81.06
-93.7
-106.86
-120.25
-133.79
-147.21
-159.97
-171.41
-180.7
-187.5
-192.45
-197.02
-202.51
-209.41
-216.74
-222.75
-225.63
-223.6
-215.74
-202.34
-184.43
-162.62
-136.74
-105.78
-69.05
-26.94
19.64
68.94
117.75
162.13
198.63
225.06
241.41
248.93
245.55
231.13
210.74
192.59
182.2
180.56
180.31
172.77
150.84
111.5
56.85
-3.87
-58.33
-95.74
-110.42
-103.48
-81.1
-52.08
-24.47
-2.78
11.75
19.19
19.76
14.02
3.43
-9.06
-19.99
-26.55
-27.26
-22.58
-15.16
-8.58
-5.74
-7.67
-13.22
-20.03
-25.52
-27.56
-25.03
-18.07
-7.79
4.28
16.63
28.11
37.95
45.63
50.97
54.15
55.46
55.24
53.84
51.54
48.45
44.33
38.74
31.19
21.44
9.58
-3.98
-18.68
-33.94
-49.35
-64.63
-79.63
-94.27
-108.49
-122.18
-135.19
-147.27
-158.02
-167.01
-173.86
-178.41
-180.69
-180.93
-179.34
-175.87
-170.28
-162.27
-151.72
-138.98
-124.98
-111.15
-99.0
-89.58
-83.03
-78.42
-73.98
-67.89
-58.93
-46.95
-32.75
-17.56
-2.44
11.97
25.37
37.23
46.51
51.61
50.8
43.03
28.61
9.58
-10.37
-26.75
-35.38
-33.73
-21.81
-2.18
20.9
43.03
61.01
73.63
81.26
84.99
85.65
83.45
78.32
70.52
61.08
51.68
44.02
39.14
37.06
36.91
37.4
37.43
36.43
34.46
31.93
29.3
26.76
24.16
21.03
16.75
10.72
2.39
-8.74
-22.87
-39.6
-57.52
-73.99
-85.54
-88.84
-81.86
-64.79
-40.13
-11.86
15.88
40.01
59.14
73.33
83.34
89.96
93.55
94.15
91.86
87.1
80.85
74.36
68.88
65.26
63.75
63.93
64.89
65.49
64.62
61.53
55.97
48.24
39.15
29.7
20.7
12.51
4.88
-2.94
-11.94
-22.95
-36.39
-51.95
-68.43
-83.63
-94.68
-98.53
-92.95
-77.29
-53.0
-23.36
7.47
35.64
58.56
75.2
85.74
90.93
91.58
88.49
82.59
75.18
67.8
61.85
58.16
56.68
56.66
57.1
57.29
57.05
56.66
56.48
56.49
56.2
54.74
51.3
45.54
37.77
28.79
19.51
10.48
1.67
-7.46
-17.67
-29.59
-43.44
-58.76
-74.32
-88.05
-97.34
-99.53
-92.74
-76.66
-52.91
-24.75
3.86
29.41
49.79
64.47
74.14
79.93
82.68
82.71
80.07
74.98
68.24
61.25
55.68
52.85
53.25
56.35
60.97
65.72
69.65
72.38
73.92
74.23
72.84
68.91
61.51
50.35
36.03
20.09
4.38
-9.65
-21.61
-32.22
-42.84
-54.75
-68.53
-83.81
-99.43
-113.65
-124.44
-129.64
-127.27
-116.14
-96.46
-70.13
-40.56
-11.66
13.31
32.66
46.39
55.67
61.86
65.81
67.66
67.21
64.45
59.93
54.72
50.09
47.02
45.81
46.09
47.12
48.16
48.87
49.4
50.1
51.22
52.48
53.07
51.86
47.98
41.15
31.92
21.43
10.9
1.13
-7.76
-16.26
-25.1
-34.86
-45.79
-57.77
-70.41
-82.92
-93.96
-101.6
-103.56
-97.91
-83.95
-62.78
-37.14
-10.62
13.47
33.09
47.72
57.99
64.91
69.29
71.39
71.16
68.61
64.23
59.06
54.46
51.58
50.93
52.19
54.37
56.29
57.14
56.72
55.4
53.69
51.78
49.3
45.53
39.77
31.82
22.25
12.22
2.98
-4.74
-11.05
-16.93
-23.7
-32.45
-43.54
-56.42
-69.72
-81.59
-89.93
-92.76
-88.67
-77.22
-59.28
-37.02
-13.36
8.84
27.53
41.91
52.22
59.2
63.49
65.32
64.6
61.31
55.79
48.95
42.06
36.46
33.12
32.36
33.8
36.54
39.51
41.89
43.26
43.65
43.24
42.1
39.95
36.34
30.88
23.59
15.05
6.22
-1.94
-8.96
-15.06
-21.12
-28.21
-37.13
-48.08
-60.6
-73.68
-85.92
-95.6
-100.81
-99.74
-91.21
-75.29
-53.48
-28.59
-3.88
17.82
34.89
47.04
54.97
59.62
61.62
61.12
58.02
52.49
45.38
38.21
32.77
30.49
31.81
36.01
41.53
46.62
50.06
51.5
51.37
50.4
49.1
47.43
44.87
40.75
34.65
26.65
17.28
7.3
-2.63
-12.18
-21.3
-30.07
-38.59
-46.9
-55.13
-63.63
-72.73
-82.43
-91.9
-99.24
-101.95
-97.73
-85.59
-66.45
-42.99
-18.68
3.32
21.13
34.3
43.36
49.03
51.73
51.44
48.19
42.51
35.69
29.48
25.53
24.72
26.84
30.75
34.92
38.04
39.49
39.39
38.28
36.77
35.13
33.26
30.74
27.09
21.99
15.4
7.55
-1.13
-10.19
-19.24
-27.91
-35.94
-43.11
-49.41
-55.13
-60.91
-67.5
-75.37
-84.04
-91.88
-96.35
-94.9
-86.08
-70.27
-49.63
-27.31
-6.3
11.49
25.37
35.45
41.97
44.98
44.48
40.81
34.96
28.48
22.98
19.6
18.69
19.87
22.3
25.12
27.66
29.59
30.83
31.5
31.8
31.87
31.68
30.97
29.3
26.16
21.1
13.92
4.8
-5.6
-16.22
-25.9
-33.69
-39.25
-43.07
-46.26
-50.27
-56.29
-64.8
-75.15
-85.62
-93.7
-96.73
-92.71
-81.0
-62.66
-40.15
-16.66
4.78
22.07
34.21
41.25
43.9
43.25
40.53
36.96
33.62
31.2
29.95
29.7
30.02
30.48
30.82
31.0
31.1
31.28
31.68
32.4
33.29
33.86
33.22
30.32
24.4
15.48
4.58
-6.52
-15.92
-22.41
-25.95
-27.66
-29.31
-32.55
-38.35
-46.75
-56.85
-67.02
-75.18
-79.1
-76.91
-67.72
-52.15
-32.41
-11.81
6.36
19.81
27.97
31.79
32.96
33.0
32.61
31.65
29.63
26.27
21.93
17.45
13.85
11.82
11.54
12.67
14.52
16.31
17.25
16.64
14.0
9.17
2.53
-5.11
-12.71
-19.39
-24.78
-29.14
-33.26
-38.14
-44.62
-53.07
-63.1
-73.44
-82.04
-86.46
-84.49
-74.98
-58.45
-37.1
-14.34
6.27
22.04
31.89
36.34
37.05
35.95
34.53
33.48
32.72
31.74
30.12
27.76
25.02
22.46
20.68
19.98
20.33
21.4
22.67
23.49
23.1
20.75
15.89
8.44
-1.04
-11.35
-21.11
-29.21
-35.39
-40.35
-45.56
-52.56
-62.2
-73.99
-86.0
-95.24
-98.63
-94.07
-81.19
-61.61
-38.46
-15.41
4.43
19.27
28.96
34.55
37.62
39.58
41.22
42.69
43.83
44.46
44.61
44.59
44.66
44.94
45.24
45.21
44.64
43.6
42.4
41.28
40.09
38.12
34.44
28.34
19.86
9.81
-0.38
-9.34
-16.27
-21.19
-24.85
-28.4
-32.98
-39.47
-48.36
-59.58
-72.32
-84.88
-94.75
-99.14
-95.92
-84.54
-66.52
-45.03
-23.83
-5.92
7.42
16.71
23.55
29.58
35.67
41.69
46.94
50.74
52.89
53.75
53.9
53.89
54.02
54.35
54.91
55.74
56.84
58.06
58.91
58.63
56.41
51.81
45.06
36.99
28.88
21.78
16.2
11.82
7.74
2.93
-3.24
-10.73
-18.93
-26.94
-34.02
-39.87
-44.68
-49.07
-53.96
-60.42
-69.37
-81.15
-94.96
-108.58
-118.63
-121.57
-115.05
-98.98
-75.8
-49.65
-24.78
-4.19
11.15
21.97
29.83
36.09
41.42
45.76
48.74
50.07
49.75
48.19
46.08
44.25
43.44
44.01
45.8
48.12
50.11
51.02
50.62
49.17
47.19
45.09
42.88
40.17
36.41
31.16
24.23
15.75
6.01
-4.52
-15.26
-25.56
-34.86
-42.89
-49.89
-56.64
-64.22
-73.46
-84.36
-95.66
-105.01
-109.56
-106.97
-96.39
-78.81
-56.87
-34.02
-13.46
2.87
14.57
22.59
28.53
33.82
39.2
44.63
49.54
53.33
55.75
57.02
57.66
58.24
59.03
59.94
60.65
60.75
59.97
58.09
55.0
50.68
45.24
39.06
32.63
26.44
20.65
15.07
9.25
2.85
-4.12
-11.17
-17.61
-22.95
-27.17
-30.82
-34.82
-40.09
-47.42
-57.28
-69.68
-83.85
-98.0
-109.36
-114.78
-111.86
-99.91
-80.48
-56.88
-33.05
-12.18
4.15
16.05
24.64
31.19
36.49
40.78
43.97
45.99
46.96
47.04
46.38
44.98
42.95
40.69
38.99
38.92
41.3
46.14
52.46
58.48
62.25
62.46
58.89
52.41
44.43
36.29
28.76
21.97
15.66
9.49
3.2
-3.35
-10.29
-17.72
-25.61
-33.74
-41.77
-49.45
-56.95
-64.9
-73.97
-84.24
-94.6
-102.67
-105.47
-100.64
-87.48
-67.42
-43.64
-19.87
0.7
16.28
26.68
32.88
36.4
38.73
40.81
43.02
45.13
46.68
47.26
46.78
45.57
44.25
43.43
43.51
44.53
46.24
48.14
49.62
50.01
48.72
45.48
40.44
34.32
28.12
22.77
18.76
15.9
13.42
10.42
6.26
0.86
-5.31
-11.49
-17.04
-21.65
-25.55
-29.39
-34.12
-40.75
-50.05
-62.15
-76.1
-89.74
-100.06
-103.97
-99.43
-86.3
-66.53
-43.45
-20.69
-0.98
14.41
25.51
33.1
37.96
40.56
41.02
39.35
35.71
30.57
24.77
19.35
15.4
13.71
14.51
17.35
21.27
25.17
28.23
30.18
31.17
31.41
30.87
29.17
25.77
20.35
13.15
4.93
-3.4
-11.19
-18.3
-25.07
-31.97
-39.32
-47.08
-55.1
-63.22
-71.3
-78.9
-84.97
-87.82
-85.57
-76.96
-62.11
-42.77
-21.76
-2.04
14.27
26.25
34.02
38.23
39.59
38.81
36.51
33.42
30.2
27.31
24.82
22.5
20.06
17.42
14.83
12.61
10.98
9.76
8.46
6.4
3.04
-1.96
-8.74
-17.24
-27.26
-38.39
-49.98
-61.29
-71.62
-80.7
-88.85
-96.91
-105.8
-115.98
-126.79
-136.56
-143.07
-144.58
-140.52
-131.56
-118.87
-103.1
-83.82
-59.86
-30.46
3.65
39.95
74.85
105.14
129.1
146.6
158.27
164.21
163.45
154.44
136.43
110.88
81.85
55.23
36.99
31.22
38.81
57.05
80.47
102.63
117.89
123.07
117.9
104.51
86.47
67.79
52.51
44.18
45.07
54.89
69.87
83.22
87.42
77.55
53.83
21.98
-9.24
-31.77
-41.17
-37.2
-22.29
0.72
29.76
63.09
97.98
129.97
153.71
164.96
162.48
148.65
128.55
108.04
91.84
82.5
80.28
83.65
90.22
97.44
103.03
105.36
103.59
97.74
88.62
77.51
65.74
54.25
43.31
32.52
21.23
8.89
-4.6
-18.85
-33.24
-47.06
-59.74
-70.74
-79.51
-85.49
-88.43
-88.65
-87.12
-85.16
-83.87
-83.59
-83.82
-83.59
-82.11
-79.28
-75.74
-72.39
-69.91
-68.38
-67.35
-66.22
-64.62
-62.59
-60.44
-58.49
-56.95
-55.99
-55.82
-56.68
-58.69
-61.58
-64.75
-67.46
-69.21
-69.95
-70.06
-69.94
-69.65
-68.67
-66.08
-60.95
-52.93
-42.58
-31.43
-21.65
-15.44
-14.41
-19.09
-28.7
-41.29
-54.09
-64.03
-68.42
-65.54
-55.13
-38.53
-18.48
1.54
18.12
28.84
32.9
31.23
26.13
20.56
17.2
17.7
22.28
29.86
38.61
46.68
52.79
56.44
57.71
56.91
54.27
49.87
43.79
36.25
27.74
18.85
10.13
1.96
-5.54
-12.47
-19.03
-25.36
-31.49
-37.25
-42.45
-47.07
-51.43
-56.11
-61.75
-68.73
-76.95
-85.87
-94.81
-103.24
-111.01
-118.43
-126.17
-135.06
-145.87
-158.94
-173.8
-188.79
-200.98
-206.73
-202.81
-187.58
-161.96
-129.32
-94.51
-62.28
-35.82
-16.2
-2.74
6.03
11.31
13.69
13.4
10.96
7.56
4.91
4.56
7.21
12.41
18.86
25.11
30.22
34.03
36.91
39.28
41.12
41.85
40.71
37.11
31.13
23.49
15.38
7.88
1.54
-3.92
-9.55
-16.72
-26.61
-39.56
-54.76
-70.13
-82.8
-89.79
-88.91
-79.49
-62.6
-40.81
-17.34
4.88
23.96
39.3
51.26
60.7
68.28
74.31
78.71
81.28
81.84
80.38
77.09
72.38
66.89
61.38
56.62
53.11
50.96
49.81
49.06
48.14
46.65
44.42
41.38
37.39
32.23
25.69
17.79
8.93
-0.2
-8.81
-16.32
-22.6
-28.04
-33.47
-39.84
-47.93
-58.06
-69.93
-82.53
-94.15
-102.61
-105.58
-101.23
-88.76
-68.9
-43.81
-16.64
9.42
31.85
49.35
61.86
70.15
75.34
78.46
80.22
80.95
80.65
79.16
76.4
72.63
68.55
65.17
63.41
63.74
65.88
68.88
71.53
72.71
71.87
68.97
64.46
58.92
52.85
46.58
40.14
33.48
26.45
18.9
10.72
1.86
-7.65
-17.58
-27.46
-36.7
-44.78
-51.69
-58.02
-64.96
-73.62
-84.25
-95.64
-105.12
-109.36
-105.58
-92.82
-72.34
-47.23
-21.32
1.99
20.52
33.51
41.3
44.88
45.53
44.5
42.92
41.58
40.89
40.81
41.08
41.44
41.83
42.35
43.15
44.27
45.52
46.67
47.49
47.97
48.09
47.76
46.56
43.85
39.04
31.89
22.84
12.94
3.52
-4.33
-10.18
-14.35
-17.73
-21.31
-25.8
-31.53
-38.59
-46.97
-56.57
-66.87
-76.58
-83.59
-85.45
-80.32
-67.87
-49.68
-28.73
-8.28
9.21
22.73
32.57
39.59
44.51
47.53
48.51
47.42
44.64
41.04
37.7
35.51
34.95
36.06
38.49
41.64
44.74
46.98
47.67
46.44
43.41
39.12
34.35
29.71
25.39
21.08
16.17
10.17
3.02
-4.8
-12.47
-19.22
-24.66
-28.94
-32.67
-36.66
-41.69
-48.41
-57.2
-68.03
-80.1
-91.69
-100.22
-102.83
-97.41
-83.48
-62.61
-38.05
-13.64
7.41
23.38
34.19
40.89
44.88
47.35
48.97
50.06
50.75
51.22
51.62
52.05
52.5
52.73
52.41
51.28
49.38
47.11
45.13
43.99
43.85
44.23
44.23
42.9
39.72
34.8
28.73
22.25
15.8
9.45
3.02
-3.63
-10.4
-17.05
-23.39
-29.52
-35.82
-42.76
-50.69
-59.68
-69.56
-79.87
-89.69
-97.61
-101.77
-100.24
-91.81
-76.57
-56.2
-33.53
-11.61
7.2
21.85
32.52
40.06
45.31
48.69
50.21
49.87
47.94
45.16
42.6
41.21
41.53
43.45
46.33
49.33
51.8
53.44
54.3
54.56
54.25
53.18
51.03
47.61
43.02
37.64
31.9
26.0
19.82
12.98
5.22
-3.35
-12.05
-19.95
-26.22
-30.61
-33.53
-35.97
-39.09
-43.9
-50.98
-60.35
-71.32
-82.36
-91.16
-95.1
-92.08
-81.45
-64.34
-43.48
-22.11
-2.92
12.75
24.85
34.1
41.24
46.55
49.89
51.11
50.3
47.96
44.83
41.64
38.95
37.11
36.18
35.92
35.83
35.23
33.53
30.62
26.93
23.26
20.42
18.71
17.78
16.72
14.6
10.95
5.96
0.39
-4.85
-9.15
-12.39
-14.95
-17.48
-20.7
-25.36
-32.15
-41.54
-53.35
-66.39
-78.29
-86.02
-86.78
-79.15
-63.77
-43.2
-21.11
-0.97
14.93
25.88
32.5
36.01
37.64
38.23
38.21
37.85
37.36
37.0
36.98
37.29
37.73
37.98
37.81
37.3
36.89
37.1
38.28
40.27
42.39
43.7
43.34
40.92
36.56
30.74
24.03
16.85
9.39
1.76
-5.92
-13.43
-20.51
-27.01
-33.02
-39.0
-45.71
-53.95
-64.2
-76.18
-88.66
-99.45
-105.9
-105.67
-97.52
-81.87
-60.77
-37.31
-14.72
4.54
19.24
29.42
35.9
39.77
41.97
43.14
43.72
44.07
44.56
45.4
46.52
47.49
47.75
46.88
44.99
42.73
41.14
41.11
42.95
46.09
49.32
51.18
50.6
47.23
41.51
34.42
27.09
20.42
14.86
10.43
6.73
3.11
-1.13
-6.6
-13.52
-21.66
-30.28
-38.37
-45.01
-49.79
-53.04
-55.85
-59.67
-65.72
-74.37
-84.68
-94.37
-100.44
-100.12
-91.85
-76.0
-54.76
-31.46
-9.46
8.78
22.11
30.57
34.93
36.16
35.3
33.42
31.58
30.7
31.32
33.4
36.34
39.3
41.57
42.91
43.53
43.92
44.55
45.62
46.9
47.88
47.94
46.61
43.75
39.53
34.29
28.36
21.94
15.09
7.91
0.66
-6.26
-12.4
-17.45
-21.4
-24.51
-27.22
-29.98
-33.19
-37.26
-42.59
-49.54
-58.12
-67.65
-76.51
-82.35
-82.74
-76.2
-62.97
-45.14
-26.01
-8.83
4.35
13.25
18.97
23.08
26.65
29.78
31.87
32.27
30.92
28.49
26.14
24.92
25.33
27.13
29.63
32.08
33.97
35.15
35.72
35.68
34.83
32.79
29.2
24.0
17.57
10.59
3.86
-2.01
-6.77
-10.51
-13.58
-16.4
-19.46
-23.21
-28.08
-34.44
-42.35
-51.29
-59.94
-66.33
-68.33
-64.47
-54.57
-39.87
-22.67
-5.4
10.08
22.89
32.97
40.56
45.83
48.74
49.22
47.45
43.99
39.61
35.07
30.98
27.71
25.44
24.25
24.02
24.36
24.61
23.89
21.5
17.17
11.28
4.8
-1.14
-5.76
-8.95
-11.3
-13.75
-17.07
-21.44
-26.49
-31.49
-35.84
-39.36
-42.31
-45.22
-48.6
-52.88
-58.46
-65.72
-74.73
-84.87
-94.42
-100.64
-100.58
-92.28
-75.72
-53.11
-28.17
-4.8
14.24
27.92
36.73
41.91
44.65
45.72
45.6
44.69
43.54
42.73
42.65
43.17
43.78
43.78
42.77
40.93
39.06
38.2
39.07
41.6
44.85
47.4
47.99
46.08
41.98
36.66
31.08
25.81
20.79
15.59
9.78
3.21
-3.97
-11.45
-18.95
-26.26
-33.26
-39.83
-45.9
-51.65
-57.55
-64.15
-71.65
-79.28
-85.2
-86.79
-81.79
-69.32
-50.51
-28.31
-6.32
12.42
26.31
35.32
40.38
42.64
43.02
42.06
40.24
38.15
36.53
35.97
36.71
38.44
40.55
42.3
43.17
42.96
41.8
40.03
38.03
36.14
34.5
33.06
31.49
29.2
25.51
19.84
11.99
2.42
-7.82
-17.31
-24.79
-29.64
-32.21
-33.66
-35.54
-39.3
-45.74
-54.76
-65.26
-75.27
-82.33
-84.12
-79.07
-67.03
-49.41
-28.86
-8.57
8.62
20.9
27.73
29.79
28.47
25.46
22.2
19.67
18.21
17.7
17.73
17.95
18.16
18.41
18.8
19.44
20.33
21.38
22.45
23.34
23.67
22.97
20.72
16.52
10.25
2.2
-6.93
-16.19
-24.65
-31.66
-37.19
-41.9
-46.92
-53.33
-61.34
-69.9
-76.68
-78.89
-74.39
-62.68
-45.24
-24.96
-5.09
11.91
24.87
33.87
39.54
42.51
43.08
41.37
37.76
33.11
28.63
25.48
24.31
24.96
26.62
28.29
29.21
29.24
28.76
28.34
28.37
28.7
28.69
27.46
24.34
19.15
12.31
4.58
-3.28
-10.82
-18.01
-25.07
-32.27
-39.78
-47.73
-56.17
-65.02
-73.73
-80.98
-84.72
-82.81
-73.89
-58.18
-37.68
-15.66
4.57
20.64
31.79
38.66
42.6
44.86
46.08
46.23
45.08
42.58
39.22
35.92
33.68
33.16
34.32
36.51
38.73
40.06
40.07
38.82
36.76
34.35
31.81
29.0
25.57
21.11
15.36
8.37
0.39
-8.21
-17.06
-25.91
-34.51
-42.58
-49.85
-56.14
-61.53
-66.56
-72.03
-78.62
-86.29
-93.82
-98.96
-99.06
-92.13
-77.76
-57.46
-34.16
-11.23
8.66
24.15
35.28
42.94
48.15
51.52
53.14
52.81
50.43
46.38
41.55
37.14
34.25
33.45
34.52
36.65
38.79
40.11
40.38
39.87
39.09
38.37
37.6
36.3
33.86
29.82
24.16
17.3
9.95
2.78
-3.83
-9.99
-16.16
-22.9
-30.58
-39.23
-48.56
-58.2
-67.71
-76.53
-83.66
-87.61
-86.71
-79.71
-66.53
-48.54
-28.31
-8.65
8.21
21.21
30.48
36.81
41.03
43.63
44.64
43.88
41.25
37.04
31.99
27.22
23.89
22.72
23.7
26.14
28.94
31.14
32.3
32.53
32.19
31.39
29.82
26.8
21.75
14.68
6.32
-2.08
-9.33
-14.93
-19.34
-23.81
-29.85
-38.52
-49.92
-63.11
-76.2
-86.88
-92.87
-92.44
-84.85
-70.6
-51.35
-29.58
-7.98
11.17
26.48
37.56
44.8
49.04
51.17
51.86
51.47
50.12
47.78
44.51
40.67
36.95
34.22
33.22
34.22
36.92
40.57
44.31
47.41
49.47
50.32
49.88
48.04
44.76
40.17
34.59
28.46
22.12
15.63
8.65
0.68
-8.61
-19.04
-29.77
-39.62
-47.54
-53.11
-56.87
-60.17
-64.68
-71.67
-81.31
-92.31
-102.06
-107.35
-105.48
-95.29
-77.67
-55.31
-31.76
-10.24
7.24
20.09
28.77
34.16
37.07
38.27
38.56
38.88
40.16
42.97
47.26
52.36
57.26
61.06
63.32
64.14
64.07
63.78
63.73
63.99
64.18
63.6
61.53
57.48
51.37
43.55
34.67
25.43
16.47
8.29
1.13
-4.92
-10.02
-14.43
-18.43
-22.22
-25.85
-29.24
-32.38
-35.44
-38.93
-43.58
-50.08
-58.64
-68.58
-78.23
-85.25
-87.26
-82.76
-71.7
-55.54
-36.73
-17.94
-1.24
12.3
22.53
29.85
34.8
37.86
39.38
39.71
39.26
38.47
37.74
37.36
37.48
38.14
39.19
40.38
41.29
41.49
40.69
38.87
36.28
33.37
30.55
28.04
25.74
23.39
20.69
17.48
13.71
9.37
4.42
-1.21
-7.47
-14.11
-20.63
-26.5
-31.45
-35.68
-39.98
-45.47
-53.13
-63.31
-75.21
-86.86
-95.47
-98.21
-93.17
-80.09
-60.52
-37.41
-14.23
6.14
21.95
32.87
39.5
42.88
43.94
43.28
41.22
37.96
33.79
29.08
24.33
20.05
16.74
14.85
14.63
16.09
18.87
22.37
25.81
28.48
29.8
29.41
27.14
22.97
17.12
10.07
2.63
-4.34
-10.13
-14.63
-18.42
-22.59
-28.33
-36.38
-46.72
-58.43
-69.88
-79.03
-83.79
-82.53
-74.49
-60.14
-41.14
-20.07
0.29
17.73
31.12
40.38
46.2
49.36
50.28
49.0
45.42
39.78
32.92
26.21
21.09
18.51
18.53
20.34
22.71
24.53
25.3
25.14
24.54
23.81
22.77
20.81
17.24
11.75
4.66
-3.24
-11.1
-18.38
-25.01
-31.3
-37.69
-44.48
-51.88
-59.99
-68.74
-77.63
-85.44
-90.26
-89.85
-82.55
-68.17
-48.27
-25.84
-4.2
14.11
27.93
37.4
43.28
46.27
46.74
44.9
41.21
36.67
32.55
30.0
29.48
30.63
32.5
34.03
34.57
34.08
33.07
32.21
32.03
32.64
33.61
34.06
32.86
28.97
21.91
12.07
0.7
-10.41
-19.58
-25.9
-29.55
-31.67
-33.89
-37.76
-44.16
-53.1
-63.65
-73.97
-81.69
-84.34
-80.08
-68.41
-50.58
-29.43
-8.55
8.83
20.89
27.65
30.56
31.73
32.86
34.76
37.28
39.72
41.42
42.14
42.14
41.94
42.03
42.64
43.74
45.19
46.81
48.4
49.63
49.92
48.5
44.74
38.52
30.48
21.89
14.2
8.4
4.62
2.06
-0.47
-4.05
-9.05
-15.1
-21.35
-27.03
-31.77
-35.79
-39.69
-44.23
-50.07
-57.57
-66.58
-76.2
-84.74
-89.85
-89.2
-81.29
-66.17
-45.67
-22.94
-1.4
16.25
28.77
36.4
40.29
41.87
42.28
42.09
41.52
40.62
39.55
38.59
38.09
38.16
38.61
38.98
38.75
37.7
36.04
34.33
33.13
32.68
32.63
32.27
30.8
27.7
22.97
16.96
10.31
3.6
-2.61
-7.95
-12.22
-15.56
-18.47
-21.81
-26.51
-33.31
-42.39
-53.29
-64.84
-75.31
-82.7
-85.11
-81.27
-70.96
-55.23
-36.24
-16.6
1.26
15.81
26.55
33.87
38.53
41.15
41.93
40.79
37.69
33.03
27.75
23.2
20.62
20.67
23.12
26.87
30.51
32.83
33.31
32.12
29.8
26.79
23.14
18.57
12.82
5.96
-1.51
-8.86
-15.53
-21.38
-26.7
-32.02
-37.85
-44.51
-52.17
-60.81
-70.04
-78.84
-85.38
-87.38
-82.83
-70.95
-52.82
-31.12
-9.31
9.65
24.17
34.17
40.48
44.07
45.53
45.06
42.84
39.38
35.56
32.42
30.63
30.35
31.16
32.38
33.41
33.98
34.17
34.24
34.48
35.0
35.64
35.91
35.02
32.09
26.47
18.12
7.83
-2.95
-12.58
-19.88
-24.58
-27.35
-29.49
-32.31
-36.78
-43.26
-51.58
-60.88
-69.71
-76.0
-77.48
-72.41
-60.41
-42.93
-22.89
-3.77
11.77
22.6
29.21
33.06
35.61
37.66
39.29
40.22
40.26
39.59
38.66
37.92
37.62
37.77
38.23
38.97
40.08
41.62
43.44
44.92
45.12
43.1
38.32
31.04
22.33
13.66
6.35
1.05
-2.48
-5.11
-7.89
-11.47
-15.95
-20.86
-25.55
-29.51
-32.57
-34.99
-37.35
-40.46
-45.17
-52.12
-61.36
-71.88
-81.58
-87.55
-87.05
-78.58
-62.63
-41.7
-19.41
0.73
16.53
27.51
34.56
39.11
42.3
44.56
45.77
45.69
44.45
42.56
40.72
39.42
38.67
38.03
36.95
35.14
32.76
30.37
28.55
27.54
27.09
26.53
25.1
22.27
17.86
12.07
5.38
-1.64
-8.39
-14.35
-19.23
-23.05
-26.21
-29.47
-33.83
-40.26
-49.33
-60.84
-73.58
-85.32
-93.31
-95.0
-88.96
-75.5
-56.65
-35.53
-15.34
1.61
14.37
23.23
29.22
33.39
36.44
38.62
39.78
39.7
38.32
35.86
32.87
30.05
28.14
27.62
28.54
30.52
32.9
34.95
36.06
35.89
34.29
31.31
27.19
22.31
17.23
12.46
8.27
4.47
0.49
-4.35
-10.37
-17.31
-24.35
-30.5
-35.13
-38.27
-40.67
-43.46
-47.72
-54.1
-62.58
-72.34
-81.72
-88.43
-90.03
-84.68
-71.99
-53.42
-32.04
-11.49
5.31
17.12
24.47
28.99
32.38
35.61
38.72
41.22
42.67
43.05
42.73
42.23
41.92
41.87
42.06
42.42
42.95
43.53
43.84
43.38
41.62
38.31
33.65
28.28
22.95
18.25
14.34
10.96
7.58
3.75
-0.74
-5.86
-11.3
-16.72
-21.76
-26.16
-29.8
-32.83
-35.88
-39.99
-46.39
-55.94
-68.37
-81.87
-93.22
-98.68
-95.39
-82.59
-62.1
-37.68
-13.67
6.49
21.18
30.62
36.17
39.35
41.27
42.43
42.95
42.91
42.36
41.31
39.71
37.44
34.64
31.77
29.58
28.83
29.88
32.45
35.65
38.33
39.43
38.46
35.48
31.05
25.93
20.78
16.01
11.69
7.59
3.22
-1.98
-8.39
-15.99
-24.27
-32.32
-39.19
-44.29
-47.77
-50.53
-53.9
-59.04
-66.16
-74.15
-80.59
-82.57
-77.71
-65.2
-46.22
-23.6
-0.97
18.38
32.34
40.25
42.76
41.35
37.68
33.21
28.88
25.14
22.04
19.54
17.72
16.84
17.2
18.92
21.65
24.75
27.41
29.06
29.42
28.49
26.32
22.95
18.35
12.63
6.08
-0.83
-7.62
-13.85
-19.23
-23.6
-26.81
-28.8
-29.68
-29.77
-29.61
-29.93
-31.33
-34.08
-37.84
-41.52
-43.5
-41.96
-35.61
-24.24
-9.0
7.84
23.64
36.21
44.41
48.28
48.68
46.68
43.13
38.46
32.99
27.14
21.63
17.39
15.11
14.87
15.99
17.21
17.38
15.93
13.29
10.55
8.92
8.96
10.26
11.56
11.3
8.42
2.77
-4.82
-12.97
-20.36
-26.23
-30.57
-34.01
-37.53
-42.17
-48.83
-57.98
-69.35
-81.57
-92.14
-97.85
-95.83
-84.67
-65.28
-40.75
-15.41
6.77
23.38
34.08
40.1
43.27
45.05
46.21
46.86
46.89
46.2
44.84
42.85
40.33
37.46
34.62
32.4
31.35
31.77
33.45
35.71
37.64
38.47
37.8
35.63
32.26
27.94
22.82
16.91
10.28
3.19
-3.94
-10.75
-17.17
-23.47
-30.07
-37.24
-44.92
-52.76
-60.47
-68.03
-75.62
-83.12
-89.56
-93.0
-91.03
-81.88
-65.37
-43.4
-19.36
3.07
21.17
33.94
41.88
46.31
48.44
48.88
47.73
44.96
40.91
36.4
32.55
30.32
30.14
31.81
34.63
37.81
40.71
43.01
44.56
45.27
45.0
43.61
41.02
37.38
32.98
28.21
23.28
18.1
12.3
5.37
-2.97
-12.47
-22.31
-31.32
-38.47
-43.29
-46.2
-48.37
-51.31
-56.29
-63.83
-73.37
-83.18
-90.67
-93.05
-88.2
-75.51
-56.26
-33.31
-10.2
9.95
25.26
35.29
40.65
42.42
41.58
38.98
35.34
31.47
28.19
26.23
25.89
27.11
29.42
32.12
34.52
36.13
36.76
36.54
35.84
35.06
34.38
33.64
32.33
29.82
25.63
19.61
11.98
3.22
-6.05
-15.15
-23.43
-30.42
-35.95
-40.35
-44.44
-49.29
-55.74
-63.86
-72.51
-79.53
-82.32
-78.79
-68.15
-51.38
-30.81
-9.46
9.94
25.67
37.14
44.6
48.54
49.38
47.38
42.94
36.89
30.52
25.32
22.39
22.07
23.75
26.24
28.29
29.22
29.06
28.44
28.09
28.33
28.79
28.5
26.36
21.66
14.45
5.49
-4.14
-13.5
-22.21
-30.41
-38.56
-47.06
-56.12
-65.69
-75.44
-84.63
-91.91
-95.37
-92.96
-83.31
-66.51
-44.4
-20.2
2.56
21.21
34.6
43.16
48.23
51.34
53.49
55.0
55.62
54.97
52.91
49.85
46.7
44.64
44.61
46.86
50.84
55.39
59.2
61.28
61.2
59.1
55.38
50.43
44.49
37.65
29.93
21.49
12.61
3.71
-4.9
-13.12
-21.12
-29.2
-37.57
-46.11
-54.48
-62.39
-69.95
-77.7
-86.22
-95.42
-103.89
-109.1
-108.16
-99.17
-82.28
-59.8
-35.48
-13.0
5.2
18.47
27.6
33.9
38.3
41.02
41.81
40.51
37.61
34.25
31.85
31.44
33.23
36.58
40.35
43.5
45.51
46.54
47.19
48.08
49.45
51.08
52.28
52.24
50.33
46.31
40.4
33.11
24.98
16.48
7.9
-0.57
-8.73
-16.39
-23.56
-30.65
-38.44
-47.73
-58.7
-70.27
-80.11
-85.23
-83.11
-72.86
-55.76
-34.76
-13.48
5.08
19.35
29.14
35.12
38.13
38.77
37.46
34.7
31.35
28.47
27.0
27.38
29.47
32.62
36.04
39.1
41.44
42.98
43.82
44.1
43.92
43.36
42.38
40.86
38.58
35.25
30.51
24.08
15.98
6.6
-3.14
-12.07
-19.14
-23.86
-26.59
-28.49
-31.1
-35.78
-43.24
-53.29
-64.71
-75.49
-83.18
-85.44
-80.69
-68.65
-50.62
-29.2
-7.64
11.02
24.79
33.02
36.33
36.17
34.15
31.64
29.47
27.98
27.19
26.98
27.23
27.85
28.68
29.54
30.23
30.65
30.9
31.2
31.66
32.14
32.07
30.58
26.77
20.12
10.85
-0.1
-11.17
-20.76
-27.73
-31.89
-34.02
-35.67
-38.46
-43.57
-51.16
-60.22
-68.71
-74.1
-74.09
-67.35
-54.07
-35.95
-15.75
3.57
19.76
31.71
39.41
43.52
44.72
43.46
40.01
34.83
28.81
23.22
19.31
17.75
18.4
20.39
22.65
24.35
25.29
25.72
25.94
25.95
25.27
23.16
19.03
12.88
5.31
-2.62
-9.84
-15.64
-20.04
-23.77
-28.12
-34.49
-43.85
-56.24
-70.31
-83.54
-92.73
-95.01
-88.8
-74.4
-54.03
-31.0
-8.71
10.32
24.94
35.23
41.98
46.07
48.17
48.64
47.78
45.98
43.63
41.04
38.29
35.32
32.08
28.73
25.74
23.7
23.1
24.0
25.96
28.17
29.57
29.25
26.57
21.39
14.08
5.48
-3.33
-11.3
-17.71
-22.47
-26.14
-29.84
-34.96
-42.7
-53.52
-66.75
-80.3
-91.06
-95.73
-91.92
-79.18
-59.26
-35.61
-12.23
7.67
22.44
32.12
37.82
40.96
42.66
43.59
44.12
44.44
44.71
44.89
44.72
43.8
41.88
39.13
36.26
34.24
33.85
35.25
37.8
40.34
41.63
40.9
38.05
33.58
28.18
22.42
16.54
10.49
4.18
-2.37
-9.03
-15.63
-22.13
-28.59
-35.1
-41.66
-48.12
-54.39
-60.61
-67.15
-74.29
-81.67
-87.92
-90.79
-87.94
-78.0
-61.46
-40.64
-18.9
0.56
15.82
26.46
33.18
36.95
38.44
37.96
35.73
32.32
28.71
26.03
25.12
26.12
28.47
31.21
33.47
34.74
35.07
34.83
34.48
34.25
34.1
33.65
32.23
29.11
23.72
15.9
6.19
-4.21
-13.79
-21.17
-25.76
-27.95
-28.98
-30.47
-33.83
-39.81
-48.29
-58.26
-68.02
-75.41
-78.26
-74.93
-64.84
-48.87
-29.25
-8.99
8.91
22.34
30.6
34.31
34.93
34.07
32.87
31.77
30.69
29.35
27.69
26.01
24.77
24.37
24.82
25.81
26.84
27.61
28.12
28.57
29.03
29.14
28.01
24.53
17.94
8.31
-3.22
-14.8
-24.53
-31.22
-34.86
-36.58
-38.14
-41.32
-47.23
-56.0
-66.62
-77.07
-84.67
-86.8
-81.61
-68.79
-49.83
-27.63
-5.64
13.18
27.06
35.66
39.7
40.51
39.52
37.94
36.59
35.89
35.83
36.14
36.48
36.71
36.92
37.4
38.33
39.66
41.02
41.86
41.72
40.46
38.23
35.34
32.04
28.3
23.77
17.98
10.64
1.94
-7.35
-16.12
-23.27
-28.23
-31.14
-32.76
-34.26
-36.71
-40.93
-47.39
-56.14
-66.76
-78.09
-88.1
-94.09
-93.42
-84.49
-67.55
-44.95
-20.44
2.01
19.59
31.34
38.12
41.79
44.26
46.72
49.48
52.23
54.53
56.12
57.07
57.6
58.0
58.4
58.83
59.19
59.41
59.44
59.25
58.75
57.69
55.68
52.22
46.88
39.53
30.51
20.56
10.62
1.53
-6.23
-12.63
-17.95
-22.58
-26.82
-30.89
-35.04
-39.64
-45.3
-52.58
-61.66
-71.9
-81.6
-88.3
-89.51
-83.67
-70.96
-53.38
-34.1
-16.29
-2.09
7.98
14.65
19.2
22.66
25.38
27.21
27.88
27.38
26.12
24.75
23.87
23.78
24.44
25.55
26.71
27.64
28.12
28.04
27.24
25.45
22.44
18.15
12.79
6.88
0.99
-4.45
-9.37
-13.97
-18.46
-22.91
-27.05
-30.55
-33.19
-35.14
-36.96
-39.46
-43.47
-49.38
-56.89
-64.8
-71.16
-73.73
-70.81
-61.9
-47.99
-31.26
-14.29
0.8
12.89
21.86
28.14
32.19
34.2
34.2
32.31
28.98
24.93
20.93
17.49
14.71
12.44
10.5
8.94
8.04
8.13
9.19
10.67
11.57
10.8
7.71
2.48
-3.93
-10.16
-15.07
-18.17
-19.77
-20.78
-22.36
-25.58
-31.15
-39.27
-49.34
-59.79
-68.18
-71.71
-68.01
-56.17
-37.33
-14.52
8.13
26.65
38.51
43.19
42.09
37.73
32.63
28.5
25.85
24.19
22.62
20.46
17.62
14.59
12.2
11.11
11.52
13.14
15.3
17.24
18.33
18.09
16.2
12.44
6.74
-0.68
-9.21
-17.96
-25.98
-32.72
-38.4
-43.99
-50.75
-59.46
-69.54
-78.82
-84.08
-82.26
-71.79
-53.48
-30.23
-6.0
15.61
32.41
43.93
50.79
53.93
54.12
51.85
47.7
42.63
37.91
34.7
33.56
34.2
35.65
36.77
36.76
35.51
33.58
31.83
30.92
30.97
31.41
31.18
29.2
24.82
18.06
9.57
0.3
-8.9
-17.46
-25.18
-32.1
-38.46
-44.74
-51.6
-59.69
-69.15
-79.08
-87.32
-90.92
-87.2
-74.99
-55.31
-31.28
-6.9
14.27
30.26
40.86
47.05
50.09
50.97
50.18
48.09
45.25
42.5
40.69
40.36
41.44
43.36
45.28
46.55
46.88
46.35
45.3
44.07
42.87
41.68
40.3
38.29
35.12
30.11
22.77
12.95
1.14
-11.45
-23.22
-32.73
-39.17
-42.79
-44.69
-46.51
-49.81
-55.61
-64.12
-74.56
-85.11
-93.15
-95.79
-90.7
-77.02
-55.92
-30.4
-4.51
17.88
34.2
43.64
47.07
46.36
43.56
40.27
37.4
35.2
33.51
32.09
30.78
29.64
28.82
28.45
28.47
28.72
29.02
29.3
29.67
30.28
31.03
31.44
30.59
27.51
21.57
13.0
2.96
-6.81
-14.63
-19.54
-21.73
-22.32
-22.93
-25.02
-29.53
-36.72
-46.2
-57.0
-67.56
-75.76
-79.25
-76.13
-65.71
-49.03
-28.79
-8.5
8.63
20.78
27.88
31.29
32.87
34.08
35.48
36.81
37.45
36.93
35.36
33.25
31.31
30.01
29.46
29.44
29.63
29.88
30.21
30.65
30.93
30.36
27.96
22.99
15.37
5.94
-3.76
-12.06
-17.86
-21.0
-22.33
-23.29
-25.42
-29.87
-37.17
-46.95
-57.96
-67.98
-74.32
-74.42
-66.78
-51.67
-31.27
-9.12
10.99
26.27
35.59
39.7
40.47
40.02
39.84
40.41
41.37
41.97
41.62
40.18
38.06
35.91
34.39
33.92
34.57
36.16
38.28
40.42
41.98
42.4
41.12
37.75
32.19
24.76
16.18
7.42
-0.59
-7.31
-12.67
-17.04
-20.95
-24.77
-28.58
-32.27
-35.73
-39.06
-42.69
-47.26
-53.44
-61.61
-71.44
-81.64
-89.95
-93.57
-90.1
-78.54
-59.97
-37.36
-14.62
4.87
19.22
28.48
33.96
37.34
39.78
41.64
42.79
43.09
42.7
42.11
41.75
41.82
42.15
42.35
42.16
41.68
41.3
41.58
42.8
44.7
46.4
46.64
44.32
39.0
31.2
22.34
14.12
7.82
3.77
1.26
-1.04
-4.41
-9.41
-15.69
-22.27
-28.13
-32.69
-36.08
-39.04
-42.59
-47.66
-54.8
-64.04
-74.66
-85.06
-92.89
-95.49
-90.72
-77.76
-57.75
-33.53
-8.85
12.76
29.06
39.5
44.89
46.83
46.86
46.09
45.08
44.05
43.12
42.35
41.74
41.11
40.14
38.57
36.42
34.1
32.29
31.59
32.1
33.3
34.16
33.67
31.26
27.06
21.78
16.31
11.24
6.71
2.43
-1.97
-6.73
-11.91
-17.41
-23.19
-29.24
-35.56
-42.13
-48.86
-55.71
-62.84
-70.38
-78.18
-85.31
-89.93
-89.69
-82.63
-68.14
-47.51
-23.74
-0.45
19.25
33.77
43.09
48.2
50.24
49.84
47.17
42.31
35.85
29.02
23.39
20.24
20.0
22.12
25.32
28.3
30.22
30.97
30.95
30.73
30.64
30.6
30.19
28.75
25.59
20.19
12.49
3.04
-7.07
-16.42
-23.79
-28.63
-31.3
-32.88
-34.8
-38.24
-43.87
-51.65
-60.88
-70.2
-77.65
-80.96
-78.09
-68.01
-51.4
-30.62
-9.05
10.06
24.71
34.57
40.66
44.41
46.89
48.32
48.39
46.72
43.37
39.05
34.85
31.79
30.49
30.98
32.77
35.1
37.12
38.12
37.67
35.72
32.62
28.97
25.37
22.13
19.14
15.91
11.86
6.67
0.49
-6.09
-12.32
-17.66
-22.12
-26.24
-30.88
-36.97
-45.24
-56.05
-69.12
-83.27
-96.37
-105.48
-107.61
-100.83
-85.11
-62.68
-37.39
-13.45
5.93
19.32
27.13
30.76
31.85
31.48
30.18
28.1
25.35
22.21
19.03
16.2
14.07
12.93
13.01
14.45
17.28
21.29
26.13
31.26
36.04
39.7
41.44
40.59
36.78
30.22
21.77
12.74
4.51
-2.12
-7.23
-11.88
-17.63
-25.83
-37.01
-50.64
-65.18
-78.5
-88.3
-92.52
-89.76
-79.62
-62.96
-41.83
-19.1
2.28
20.03
33.07
41.55
46.44
48.82
49.37
48.23
45.28
40.58
34.71
28.76
23.97
21.21
20.61
21.58
23.1
24.3
24.81
24.76
24.51
24.18
23.41
21.51
17.85
12.32
5.36
-2.22
-9.74
-16.91
-23.84
-30.86
-38.24
-46.08
-54.37
-63.06
-71.89
-80.02
-85.9
-87.34
-82.32
-69.93
-51.07
-28.44
-5.63
14.14
29.03
38.83
44.51
47.26
47.84
46.41
42.88
37.49
31.11
25.05
20.62
18.58
18.91
20.85
23.37
25.56
26.88
27.15
26.38
24.55
21.58
17.47
12.38
6.66
0.61
-5.67
-12.47
-20.36
-29.89
-41.3
-54.21
-67.45
-79.12
-86.92
-88.63
-82.84
-69.5
-50.07
-27.33
-4.55
15.37
30.69
41.04
47.17
50.31
51.46
51.1
49.23
45.77
40.92
35.37
30.11
26.06
23.71
22.93
23.2
23.92
24.73
25.53
26.25
26.58
25.87
23.35
18.55
11.65
3.48
-4.84
-12.5
-19.35
-25.94
-33.24
-42.15
-53.11
-65.73
-78.75
-90.04
-96.96
-97.04
-88.74
-72.24
-49.61
-24.35
-0.31
19.52
33.82
42.95
48.35
51.64
53.84
55.21
55.42
53.96
50.64
45.82
40.43
35.69
32.66
31.88
33.12
35.48
37.83
39.24
39.37
38.39
36.78
34.85
32.55
29.48
25.14
19.27
11.95
3.63
-5.11
-13.71
-21.76
-28.95
-35.19
-40.56
-45.48
-50.7
-57.14
-65.42
-75.24
-85.05
-92.15
-93.52
-87.0
-72.21
-50.91
-26.39
-2.35
18.23
33.68
43.71
48.91
50.33
49.14
46.57
43.86
42.06
41.76
42.88
44.74
46.46
47.32
47.17
46.34
45.49
45.17
45.6
46.56
47.5
47.69
46.44
43.25
37.99
30.92
22.73
14.33
6.62
0.21
-4.83
-8.92
-12.72
-16.81
-21.39
-26.28
-31.06
-35.43
-39.49
-43.78
-49.18
-56.47
-65.85
-76.52
-86.64
-93.63
-94.89
-88.76
-75.12
-55.6
-33.08
-10.72
8.91
24.42
35.61
43.06
47.61
49.9
50.38
49.36
47.22
44.54
41.96
40.06
39.21
39.48
40.65
42.29
43.84
44.66
44.2
42.16
38.59
34.0
29.12
24.66
20.93
17.8
14.75
11.15
6.65
1.23
-4.74
-10.75
-16.37
-21.34
-25.65
-29.49
-33.22
-37.39
-42.61
-49.51
-58.32
-68.47
-78.36
-85.45
-86.93
-80.76
-66.57
-46.04
-22.45
0.42
19.51
33.34
42.0
46.62
48.53
48.7
47.55
45.23
42.0
38.42
35.28
33.35
32.98
33.84
35.05
35.47
34.25
31.28
27.26
23.39
20.75
19.74
19.81
19.74
18.25
14.5
8.56
1.2
-6.41
-13.25
-18.79
-23.04
-26.41
-29.51
-32.99
-37.53
-43.86
-52.51
-63.47
-75.64
-86.66
-93.3
-92.47
-82.48
-63.96
-39.8
-14.22
8.74
26.49
38.4
45.45
49.27
51.28
52.27
52.44
51.86
50.69
49.27
47.88
46.51
44.84
42.46
39.22
35.51
32.19
30.18
30.02
31.41
33.39
34.64
34.14
31.54
27.22
21.96
16.46
11.04
5.61
-0.1
-6.26
-12.72
-19.06
-24.85
-29.97
-34.74
-39.83
-46.0
-53.78
-63.23
-73.81
-84.4
-93.32
-98.54
-98.09
-90.59
-75.89
-55.36
-31.69
-8.16
12.32
27.98
38.49
44.63
47.75
49.09
49.48
49.18
48.11
46.03
42.87
38.89
34.74
31.32
29.38
29.32
30.91
33.52
36.28
38.45
39.52
39.26
37.59
34.58
30.42
25.47
20.22
15.1
10.35
5.86
1.21
-4.17
-10.65
-18.17
-26.18
-33.75
-39.91
-44.18
-46.76
-48.67
-51.35
-56.14
-63.52
-72.68
-81.4
-86.65
-85.57
-76.54
-59.9
-37.97
-14.22
7.85
25.8
38.64
46.55
50.35
50.84
48.7
44.6
39.39
34.2
30.12
27.84
27.41
28.34
29.85
31.23
32.06
32.22
31.84
31.1
30.19
29.23
28.2
26.9
24.92
21.67
16.55
9.26
-0.02
-10.41
-20.59
-29.18
-35.25
-38.71
-40.37
-41.64
-44.01
-48.58
-55.6
-64.36
-73.17
-79.64
-81.26
-76.15
-63.77
-45.25
-23.19
-0.93
18.41
32.76
41.44
45.04
44.89
42.54
39.32
36.09
33.32
31.15
29.58
28.54
28.01
27.9
28.07
28.29
28.29
27.98
27.47
27.08
27.05
27.25
26.99
25.13
20.55
12.73
2.19
-9.54
-20.43
-28.77
-33.83
-36.14
-37.2
-38.83
-42.51
-49.0
-58.19
-69.16
-80.19
-88.97
-92.92
-89.81
-78.61
-60.14
-37.05
-13.21
7.54
22.66
31.57
35.57
36.94
37.84
39.46
41.81
44.1
45.42
45.32
44.01
42.17
40.58
39.69
39.6
40.18
41.22
42.46
43.53
43.86
42.77
39.73
34.75
28.45
21.9
16.1
11.49
7.75
4.05
-0.5
-6.27
-12.89
-19.5
-25.16
-29.37
-32.3
-34.78
-38.0
-43.25
-51.53
-63.06
-76.83
-90.39
-100.1
-102.18
-94.09
-75.69
-49.7
-20.79
6.03
27.13
41.22
49.08
52.59
53.44
52.47
49.84
45.59
40.2
34.62
29.84
26.36
23.94
21.89
19.5
16.58
13.62
11.46
10.87
12.07
14.58
17.37
19.23
19.13
16.55
11.61
4.94
-2.49
-9.65
-15.74
-20.34
-23.48
-25.64
-27.61
-30.36
-34.77
-41.43
-50.43
-61.17
-72.27
-81.64
-86.82
-85.55
-76.5
-59.82
-37.35
-12.11
12.41
33.34
49.07
59.41
65.24
67.83
68.2
66.84
63.79
58.98
52.72
45.74
39.18
34.16
31.41
30.93
32.12
34.0
35.72
36.77
37.06
36.72
35.89
34.47
32.19
28.8
24.23
18.72
12.81
7.05
1.86
-2.71
-6.9
-11.15
-15.87
-21.21
-27.04
-32.94
-38.39
-43.01
-46.68
-49.72
-52.76
-56.58
-61.83
-68.81
-77.33
-86.69
-95.68
-102.6
-105.55
-102.73
-92.99
-76.36
-54.35
-29.62
-5.39
15.62
31.76
42.8
49.46
52.85
53.86
52.88
49.98
45.23
39.09
32.45
26.51
22.32
20.42
20.65
22.22
24.15
25.66
26.46
26.66
26.47
25.86
24.41
21.51
16.64
9.82
1.68
-6.66
-14.01
-19.57
-23.33
-26.12
-29.37
-34.66
-43.11
-54.93
-69.18
-83.73
-95.62
-101.74
-99.67
-88.49
-69.27
-44.82
-18.96
4.68
23.61
36.96
45.29
49.94
52.31
53.41
53.78
53.56
52.67
50.94
48.21
44.49
40.17
36.05
33.1
32.07
33.13
35.67
38.57
40.58
40.89
39.34
36.33
32.54
28.57
24.67
20.74
16.47
11.57
5.84
-0.7
-7.93
-15.63
-23.5
-31.2
-38.34
-44.69
-50.39
-56.03
-62.49
-70.37
-79.41
-87.98
-93.32
-92.46
-83.35
-65.95
-42.37
-16.24
8.61
29.28
44.38
53.95
58.83
60.07
58.65
55.51
51.67
48.19
45.94
45.31
46.06
47.48
48.77
49.38
49.24
48.65
48.08
47.82
47.83
47.72
46.92
44.91
41.42
36.53
30.46
23.54
16.0
8.05
-0.08
-8.07
-15.49
-22.03
-27.56
-32.19
-36.2
-39.89
-43.48
-47.16
-51.18
-56.06
-62.37
-70.44
-79.82
-88.93
-95.22
-95.95
-89.29
-75.24
-55.86
-34.55
-14.76
1.27
13.11
21.71
28.54
34.6
40.03
44.27
46.69
47.11
46.0
44.31
43.08
43.1
44.65
47.55
51.18
54.77
57.51
58.68
57.7
54.15
47.85
38.92
27.84
15.41
2.61
-9.64
-20.69
-30.26
-38.55
-46.11
-53.64
-61.77
-70.75
-80.39
-90.14
-99.34
-107.45
-114.02
-118.39
-119.64
-116.69
-108.84
-96.25
-80.14
-62.5
-45.27
-29.73
-16.16
-4.12
6.95
17.29
26.67
34.55
40.48
44.34
46.31
46.84
46.48
45.85
45.47
45.7
46.64
48.05
49.41
50.05
49.36
47.01
42.97
37.49
30.89
23.47
15.37
6.66
-2.58
-12.21
-22.01
-31.89
-41.96
-52.62
-64.21
-76.71
-89.3
-100.12
-106.61
-106.38
-98.21
-82.8
-62.77
-41.79
-23.19
-8.74
1.73
9.74
17.1
24.77
32.56
39.51
44.72
47.99
49.93
51.54
53.6
56.26
59.1
61.46
62.92
63.54
63.65
63.59
63.24
62.02
59.08
53.81
46.21
37.0
27.37
18.45
10.92
4.78
-0.48
-5.56
-11.13
-17.76
-25.92
-35.96
-47.74
-60.24
-71.3
-77.97
-77.47
-68.43
-51.71
-30.29
-8.15
11.27
26.37
37.59
46.71
55.48
64.69
73.84
81.71
87.09
89.52
89.34
87.41
84.67
81.72
78.76
75.75
72.59
69.33
66.09
62.96
59.75
56.01
51.18
44.87
37.23
28.89
20.73
13.42
7.11
1.44
-4.08
-9.69
-15.2
-20.13
-24.11
-27.31
-30.49
-34.76
-40.94
-49.02
-57.83
-65.31
-69.16
-67.66
-60.33
-48.04
-32.67
-16.44
-1.17
12.07
23.02
31.85
38.87
44.19
47.76
49.51
49.47
47.89
45.17
41.78
38.23
35.03
32.67
31.51
31.52
32.12
32.21
30.53
26.3
19.68
11.86
4.5
-0.98
-4.17
-5.82
-7.46
-10.62
-16.14
-24.0
-33.46
-43.48
-53.21
-62.13
-70.12
-77.33
-84.14
-90.94
-97.87
-104.53
-109.77
-111.79
-108.66
-98.95
-82.4
-60.28
-35.07
-9.89
12.5
30.25
42.79
50.49
54.26
54.97
53.24
49.49
44.24
38.32
32.79
28.77
26.88
26.99
28.12
28.96
28.45
26.4
23.55
21.18
20.37
21.35
23.28
24.65
23.99
20.61
14.92
8.17
1.83
-3.13
-6.6
-9.25
-12.18
-16.4
-22.54
-30.75
-40.68
-51.47
-61.63
-69.1
-71.57
-67.21
-55.38
-37.22
-15.44
6.45
25.23
38.95
47.19
50.82
51.19
49.54
46.59
42.68
38.05
33.08
28.3
24.1
20.58
17.46
14.32
10.99
7.72
5.22
4.18
4.79
6.5
8.11
8.32
6.31
2.14
-3.35
-9.01
-13.9
-17.78
-21.17
-25.11
-30.66
-38.4
-47.94
-57.85
-65.86
-69.58
-67.17
-58.08
-43.24
-24.86
-5.73
11.55
25.19
34.47
39.6
41.33
40.54
37.91
33.9
28.83
23.05
17.16
11.93
8.15
6.3
6.44
8.07
10.25
11.86
11.91
9.85
5.72
0.19
-5.74
-11.02
-15.05
-17.83
-20.01
-22.64
-26.73
-32.93
-41.12
-50.29
-58.59
-63.72
-63.56
-56.82
-43.6
-25.56
-5.46
13.54
28.74
38.57
42.83
42.49
39.19
34.54
29.7
25.16
20.89
16.68
12.56
8.87
6.18
4.88
4.92
5.76
6.6
6.78
6.07
4.61
2.61
0.06
-3.35
-8.05
-14.25
-21.7
-29.87
-38.18
-46.32
-54.23
-61.69
-67.86
-71.11
-69.44
-61.35
-46.74
-27.28
-5.96
13.93
29.87
40.85
47.16
49.76
49.59
47.09
42.42
35.85
28.12
20.45
14.15
10.15
8.66
9.13
10.64
12.25
13.33
13.58
12.89
11.26
8.71
5.37
1.47
-2.67
-6.91
-11.45
-16.73
-23.34
-31.65
-41.65
-52.71
-63.58
-72.46
-77.32
-76.32
-68.43
-53.93
-34.51
-12.99
7.58
24.81
37.53
45.89
50.83
53.42
54.36
53.78
51.51
47.43
41.79
35.33
29.13
24.29
21.53
20.9
21.85
23.47
24.89
25.66
25.78
25.49
24.92
23.8
21.6
17.78
12.17
5.19
-2.28
-9.24
-14.92
-19.18
-22.56
-26.16
-31.27
-38.9
-49.37
-62.02
-75.19
-86.45
-93.08
-92.87
-84.71
-69.07
-47.97
-24.45
-1.7
17.71
32.43
42.32
48.09
50.84
51.59
51.05
49.57
47.24
43.98
39.81
34.99
30.12
26.08
23.73
23.49
25.19
28.04
30.95
32.92
33.35
32.17
29.63
26.15
22.09
17.68
13.07
8.38
3.65
-1.16
-6.2
-11.71
-17.83
-24.51
-31.37
-37.89
-43.59
-48.38
-52.77
-57.63
-63.76
-71.1
-78.36
-83.11
-82.62
-75.0
-60.07
-39.64
-16.89
4.74
22.61
35.36
42.88
45.81
44.99
41.38
35.96
29.89
24.39
20.42
18.44
18.27
19.27
20.7
21.97
22.85
23.42
23.9
24.46
25.14
25.72
25.74
24.47
21.18
15.38
7.15
-2.64
-12.52
-20.89
-26.66
-29.69
-30.9
-31.92
-34.46
-39.72
-47.88
-57.9
-67.64
-74.36
-75.48
-69.33
-55.9
-36.85
-15.16
5.86
23.43
35.95
43.09
45.48
44.31
40.86
36.36
31.76
27.77
24.79
22.91
22.0
21.86
22.21
22.79
23.38
23.81
24.04
24.2
24.48
24.97
25.35
24.89
22.52
17.32
9.01
-1.71
-13.28
-23.72
-31.45
-35.9
-37.74
-38.61
-40.42
-44.67
-51.95
-61.68
-72.25
-81.26
-86.04
-84.29
-74.84
-58.13
-36.38
-13.01
8.27
24.67
35.0
39.88
41.09
40.75
40.45
40.79
41.5
41.89
41.41
39.99
38.06
36.27
35.15
34.91
35.42
36.4
37.53
38.57
39.14
38.71
36.65
32.52
26.4
18.95
11.23
4.25
-1.47
-6.06
-10.06
-14.05
-18.32
-22.75
-27.04
-30.98
-34.7
-38.69
-43.62
-50.07
-58.25
-67.78
-77.54
-85.72
-90.09
-88.57
-79.94
-64.39
-43.67
-20.63
1.55
20.29
34.22
43.25
48.25
50.46
50.98
50.52
49.47
48.08
46.61
45.39
44.65
44.34
44.07
43.36
41.87
39.71
37.4
35.64
34.83
34.81
34.83
33.96
31.49
27.37
22.07
16.37
10.85
5.66
0.62
-4.57
-10.02
-15.61
-21.14
-26.55
-31.98
-37.67
-43.82
-50.47
-57.63
-65.3
-73.4
-81.35
-87.83
-90.71
-87.76
-77.54
-60.33
-38.36
-15.1
5.96
22.51
33.92
40.96
44.9
46.69
46.68
44.84
41.36
36.9
32.57
29.48
28.31
29.01
30.99
33.43
35.7
37.52
38.85
39.74
40.07
39.63
38.23
35.86
32.73
29.04
24.85
19.89
13.77
6.31
-2.23
-10.97
-18.77
-24.66
-28.36
-30.31
-31.6
-33.49
-36.98
-42.6
-50.32
-59.49
-68.78
-76.25
-79.58
-76.73
-66.74
-50.34
-29.99
-9.21
8.6
21.37
28.85
32.37
33.87
34.86
35.83
36.35
35.64
33.31
29.74
26.0
23.27
22.28
22.96
24.54
26.04
26.76
26.58
25.89
25.09
24.15
22.44
18.98
13.02
4.64
-5.16
-14.87
-23.13
-29.28
-33.44
-36.11
-37.65
-38.17
-37.66
-36.53
-35.72
-36.36
-38.88
-42.41
-44.72
-43.16
-36.01
-23.49
-7.8
7.78
20.41
28.78
33.32
35.55
36.96
38.32
39.52
40.01
39.44
37.97
36.23
34.89
34.35
34.66
35.56
36.73
37.91
38.88
39.36
38.88
36.89
33.01
27.29
20.32
13.18
6.97
2.38
-0.68
-2.98
-5.61
-9.35
-14.32
-19.96
-25.38
-29.87
-33.26
-35.96
-38.78
-42.64
-48.34
-56.38
-66.69
-78.25
-88.99
-95.95
-96.13
-87.67
-70.74
-47.77
-22.69
0.49
19.01
31.97
40.11
44.96
47.9
49.74
50.78
51.11
50.89
50.33
49.49
48.18
46.13
43.19
39.66
36.29
33.98
33.43
34.73
37.27
39.93
41.46
40.93
38.02
33.04
26.81
20.33
14.53
9.95
6.64
4.07
1.29
-2.76
-8.77
-16.73
-25.77
-34.45
-41.28
-45.41
-47.05
-47.48
-48.61
-52.2
-59.13
-68.79
-79.16
-87.17
-89.77
-84.78
-71.79
-52.28
-29.21
-6.17
13.72
28.43
37.4
41.35
41.73
40.28
38.47
37.26
37.05
37.74
38.96
40.27
41.38
42.15
42.57
42.74
42.81
42.99
43.46
44.35
45.48
46.4
46.34
44.54
40.45
34.02
25.78
16.77
8.22
1.13
-4.01
-7.47
-10.02
-12.65
-16.02
-20.23
-24.83
-29.12
-32.54
-35.07
-37.21
-39.9
-44.16
-50.64
-59.22
-68.8
-77.28
-82.11
-81.09
-73.22
-59.21
-41.22
-22.14
-4.55
10.01
21.16
29.33
35.15
39.02
41.02
41.18
39.68
37.04
34.01
31.28
29.36
28.48
28.61
29.58
31.16
33.05
34.79
35.76
35.31
32.93
28.61
22.9
16.79
11.28
6.99
3.84
1.2
-1.73
-5.49
-10.1
-15.12
-19.93
-24.07
-27.5
-30.53
-33.75
-37.78
-43.18
-50.18
-58.54
-67.33
-74.92
-79.27
-78.43
-71.17
-57.56
-39.05
-18.16
2.24
19.72
32.87
41.45
46.11
47.94
48.0
47.01
45.39
43.35
41.1
38.94
37.22
36.21
35.96
36.19
36.38
36.03
34.86
32.98
30.84
28.9
27.37
26.0
24.2
21.37
17.33
12.43
7.47
3.2
-0.09
-2.76
-5.6
-9.35
-14.22
-19.78
-25.18
-29.75
-33.41
-36.83
-41.12
-47.35
-56.03
-66.81
-78.5
-89.23
-96.78
-99.01
-94.35
-82.36
-63.96
-41.43
-17.83
3.83
21.36
33.86
41.68
45.93
47.86
48.42
48.03
46.72
44.37
41.02
37.03
33.12
30.13
28.71
29.08
30.89
33.44
35.98
38.06
39.54
40.48
40.86
40.4
38.61
35.12
30.02
23.93
17.84
12.64
8.6
5.19
1.34
-3.98
-11.14
-19.53
-27.8
-34.48
-38.69
-40.5
-40.91
-41.33
-43.17
-47.37
-54.28
-63.54
-74.05
-83.87
-90.45
-91.16
-84.2
-69.38
-48.5
-25.0
-2.84
14.75
26.32
32.32
34.64
35.47
36.41
37.98
39.79
41.08
41.37
40.77
39.89
39.5
40.06
41.48
43.33
45.07
46.41
47.32
47.92
48.13
47.46
45.17
40.62
33.68
25.05
16.06
8.24
2.73
-0.15
-1.0
-1.02
-1.52
-3.47
-7.17
-12.26
-17.97
-23.43
-28.0
-31.45
-34.05
-36.4
-39.37
-43.94
-51.01
-61.0
-73.36
-86.23
-96.51
-100.74
-96.23
-82.31
-60.76
-35.32
-10.4
10.46
25.51
34.87
39.91
42.25
43.13
43.15
42.53
41.32
39.56
37.32
34.59
31.43
28.06
24.97
22.85
22.37
23.77
26.64
29.99
32.6
33.44
32.12
28.91
24.54
19.84
15.4
11.41
7.74
4.09
0.11
-4.47
-9.84
-16.0
-22.71
-29.48
-35.68
-40.78
-44.72
-48.02
-51.67
-56.59
-63.05
-70.09
-75.58
-76.89
-71.88
-59.83
-41.87
-20.63
0.69
19.28
33.51
42.96
48.09
49.63
48.25
44.51
39.07
32.87
27.03
22.63
20.32
20.13
21.56
23.86
26.36
28.66
30.59
32.11
33.12
33.41
32.74
30.97
28.14
24.43
19.99
14.8
8.72
1.65
-6.26
-14.52
-22.3
-28.82
-33.62
-36.79
-38.9
-40.85
-43.6
-47.91
-54.26
-62.64
-72.32
-81.68
-88.31
-89.63
-83.68
-70.0
-49.97
-26.59
-3.51
15.94
29.72
37.41
40.0
39.36
37.47
35.85
35.28
35.78
36.91
38.12
39.05
39.59
39.86
40.08
40.34
40.72
41.2
41.87
42.79
43.91
44.93
45.2
43.84
40.06
33.59
24.95
15.43
6.71
0.14
-3.78
-5.68
-6.94
-9.04
-12.8
-18.11
-24.05
-29.5
-33.73
-36.74
-39.21
-42.2
-46.76
-53.58
-62.76
-73.55
-84.35
-92.83
-96.45
-93.2
-82.32
-64.73
-42.84
-19.88
1.1
18.05
30.28
38.23
42.99
45.66
47.0
47.4
47.06
46.23
45.26
44.58
44.5
45.1
46.17
47.34
48.15
48.22
47.39
45.74
43.66
41.61
39.97
38.75
37.5
35.54
32.25
27.47
21.71
15.85
10.8
6.96
4.0
1.14
-2.47
-7.25
-12.96
-18.98
-24.65
-29.7
-34.39
-39.33
-45.09
-51.97
-59.94
-68.7
-77.8
-86.57
-93.86
-98.01
-97.06
-89.49
-74.91
-54.55
-31.13
-7.98
12.0
27.17
37.39
43.5
46.67
47.72
46.98
44.53
40.62
35.98
31.67
28.79
27.99
29.22
31.8
34.77
37.36
39.24
40.51
41.41
42.04
42.17
41.33
39.1
35.41
30.56
25.08
19.39
13.6
7.54
1.01
-5.99
-13.04
-19.5
-24.74
-28.5
-30.96
-32.71
-34.53
-37.16
-41.26
-47.18
-54.91
-63.76
-72.21
-78.12
-79.32
-74.31
-62.95
-46.57
-27.52
-8.43
8.54
22.16
32.1
38.67
42.43
44.01
43.92
42.65
40.61
38.19
35.76
33.72
32.45
32.24
33.1
34.62
36.09
36.67
35.79
33.42
30.07
26.48
23.26
20.59
18.17
15.45
11.9
7.36
1.98
-3.88
-9.85
-15.66
-21.15
-26.15
-30.53
-34.32
-37.93
-42.19
-48.15
-56.65
-67.67
-79.97
-91.1
-97.98
-97.88
-89.43
-73.19
-51.48
-27.67
-5.1
13.85
28.1
37.85
44.01
47.72
49.91
51.09
51.4
50.68
48.77
45.72
41.98
38.31
35.66
34.75
35.76
38.29
41.52
44.53
46.69
47.78
47.83
47.01
45.37
42.89
39.5
35.27
30.41
25.3
20.33
15.75
11.51
7.26
2.43
-3.39
-10.32
-17.92
-25.46
-32.07
-37.2
-40.72
-43.02
-44.71
-46.49
-48.98
-52.7
-58.16
-65.71
-75.29
-85.95
-95.69
-101.69
-101.11
-92.14
-74.91
-51.64
-26.17
-2.6
15.84
27.76
33.65
35.34
35.1
34.79
35.42
37.11
39.47
41.89
43.92
45.4
46.39
47.05
47.55
48.0
48.53
49.22
50.17
51.37
52.62
53.51
53.48
51.94
48.49
43.03
35.88
27.78
19.74
12.69
7.28
3.63
1.37
-0.15
-1.6
-3.45
-5.92
-9.08
-12.89
-17.29
-22.1
-27.08
-31.86
-36.14
-39.81
-43.09
-46.56
-51.06
-57.46
-66.32
-77.39
-89.2
-99.06
-103.69
-100.34
-87.88
-67.55
-42.64
-17.34
4.68
21.38
32.59
39.4
43.25
45.2
45.72
44.98
43.23
41.05
39.15
38.16
38.29
39.32
40.68
41.71
41.91
41.08
39.42
37.42
35.64
34.44
33.71
32.94
31.38
28.49
24.24
19.2
14.26
10.18
7.12
4.63
1.85
-1.99
-7.15
-13.24
-19.4
-24.67
-28.44
-30.71
-32.14
-33.92
-37.38
-43.53
-52.69
-64.09
-75.9
-85.44
-89.89
-87.12
-76.41
-58.78
-36.75
-13.63
7.48
24.38
36.27
43.44
46.94
47.92
47.32
45.74
43.54
41.01
38.37
35.78
33.28
30.89
28.65
26.81
25.75
25.84
27.27
29.83
32.92
35.64
37.09
36.58
33.83
29.04
22.83
16.12
9.86
4.76
1.03
-1.71
-4.23
-7.4
-11.76
-17.37
-23.87
-30.71
-37.36
-43.53
-49.16
-54.46
-59.87
-65.93
-73.13
-81.39
-89.75
-96.23
-98.25
-93.54
-81.14
-62.03
-38.93
-15.41
5.31
21.32
32.27
39.01
42.89
45.1
46.32
46.69
46.04
44.25
41.39
37.94
34.69
32.47
31.86
32.91
35.18
37.9
40.41
42.33
43.68
44.61
45.13
44.9
43.39
40.13
35.04
28.63
21.86
15.78
11.13
8.02
5.93
3.9
0.96
-3.59
-9.93
-17.69
-26.08
-34.13
-40.93
-45.96
-49.24
-51.42
-53.66
-57.27
-63.2
-71.51
-81.07
-89.59
-94.24
-92.47
-82.99
-66.26
-44.47
-20.86
1.32
19.68
33.13
41.76
46.3
47.64
46.54
43.74
40.03
36.38
33.65
32.41
32.69
34.11
36.04
37.91
39.45
40.62
41.53
42.33
43.1
43.76
44.09
43.77
42.46
39.91
36.06
31.11
25.37
19.21
12.89
6.63
0.61
-4.96
-9.88
-14.08
-17.67
-20.88
-23.95
-26.96
-29.81
-32.36
-34.6
-36.85
-39.72
-44.02
-50.39
-59.0
-69.19
-79.33
-87.05
-89.81
-85.81
-74.7
-57.88
-38.06
-18.34
-1.11
12.49
22.5
29.62
34.53
37.57
38.84
38.47
36.88
34.69
32.54
30.81
29.63
28.95
28.75
29.12
30.16
31.76
33.47
34.6
34.41
32.44
28.79
24.02
18.99
14.47
10.88
8.21
6.06
3.92
1.3
-2.09
-6.29
-11.12
-16.21
-21.14
-25.52
-29.11
-32.0
-34.66
-37.97
-42.99
-50.56
-60.61
-71.79
-81.41
-86.18
-83.34
-71.85
-52.97
-29.91
-6.71
13.22
28.02
37.57
42.94
45.52
46.34
45.91
44.43
42.13
39.47
36.94
34.85
33.11
31.35
29.2
26.69
24.42
23.28
23.96
26.46
29.92
32.87
33.89
32.19
27.94
22.09
15.86
10.2
5.44
1.3
-2.81
-7.37
-12.53
-18.05
-23.48
-28.49
-33.07
-37.59
-42.62
-48.74
-56.34
-65.41
-75.45
-85.39
-93.52
-97.77
-96.11
-87.31
-71.51
-50.44
-27.03
-4.52
14.47
28.57
37.76
43.01
45.65
46.85
47.39
47.56
47.27
46.27
44.4
41.77
38.9
36.51
35.29
35.57
37.17
39.57
42.14
44.45
46.29
47.47
47.69
46.46
43.32
38.17
31.45
24.11
17.31
11.89
8.04
5.13
1.97
-2.65
-9.41
-17.97
-27.08
-35.05
-40.52
-43.06
-43.4
-43.19
-44.26
-48.08
-55.18
-65.04
-76.14
-86.16
-92.39
-92.36
-84.61
-69.29
-48.41
-25.33
-3.82
13.28
24.75
31.16
34.27
36.0
37.71
39.82
42.04
43.87
45.0
45.51
45.77
46.16
46.9
48.05
49.54
51.38
53.62
56.27
59.13
61.63
62.89
62.04
58.56
52.65
45.28
37.87
31.76
27.63
25.17
23.34
20.8
16.61
10.58
3.28
-4.35
-11.42
-17.53
-22.82
-27.88
-33.55
-40.66
-49.83
-61.12
-73.88
-86.56
-96.9
-102.41
-101.09
-92.12
-76.28
-55.76
-33.61
-12.84
4.35
16.96
25.11
29.69
31.72
32.1
31.43
30.1
28.53
27.18
26.59
27.12
28.8
31.17
33.42
34.61
34.05
31.62
27.84
23.65
19.94
17.07
14.65
11.76
7.42
1.27
-6.23
-13.94
-20.57
-25.37
-28.41
-30.56
-33.08
-37.03
-42.99
-50.79
-59.57
-67.92
-74.09
-76.33
-73.3
-64.46
-50.31
-32.38
-12.89
5.79
21.69
33.65
41.39
45.37
46.42
45.45
43.12
39.85
35.85
31.37
26.7
22.25
18.46
15.56
13.57
12.36
11.83
12.02
13.09
15.12
17.87
20.72
22.69
22.84
20.66
16.31
10.53
4.28
-1.7
-7.09
-11.99
-16.66
-21.28
-25.98
-30.93
-36.43
-42.92
-50.7
-59.74
-69.71
-80.02
-90.04
-99.04
-105.9
-109.04
-106.59
-97.09
-80.39
-58.04
-33.19
-9.49
10.1
24.21
33.13
38.18
40.81
42.0
42.23
41.82
41.28
41.27
42.36
44.71
47.89
51.19
53.95
55.93
57.33
58.56
59.89
61.18
61.93
61.48
59.29
55.08
48.93
41.23
32.56
23.64
15.19
7.73
1.47
-3.77
-8.4
-12.87
-17.46
-22.09
-26.52
-30.5
-34.03
-37.55
-41.86
-47.83
-56.01
-66.05
-76.54
-85.13
-89.22
-86.82
-77.37
-61.94
-42.86
-22.97
-4.62
10.75
22.74
31.58
37.73
41.66
43.71
44.27
43.76
42.65
41.34
40.18
39.44
39.34
39.87
40.74
41.4
41.21
39.77
37.2
34.1
31.27
29.26
28.04
26.94
24.97
21.33
15.78
8.79
1.28
-5.74
-11.62
-16.16
-19.6
-22.46
-25.4
-29.21
-34.75
-42.7
-53.15
-65.09
-76.26
-83.51
-83.8
-75.43
-58.87
-36.8
-13.2
8.09
24.57
35.62
42.08
45.48
47.08
47.56
47.03
45.48
43.04
40.06
37.0
34.17
31.77
29.85
28.46
27.71
27.68
28.28
29.26
30.18
30.56
30.03
28.38
25.51
21.43
16.19
9.97
3.08
-3.98
-10.67
-16.51
-21.28
-25.08
-28.38
-31.97
-36.8
-43.81
-53.53
-65.79
-79.32
-91.81
-100.26
-101.88
-94.98
-79.74
-58.22
-33.83
-10.19
9.89
25.01
35.21
41.45
44.98
46.84
47.72
48.05
48.12
48.14
48.16
47.97
47.26
45.76
43.58
41.24
39.53
39.23
40.65
43.42
46.61
49.0
49.49
47.46
42.91
36.4
28.84
21.27
14.57
9.22
5.18
1.84
-1.78
-6.71
-13.55
-22.14
-31.53
-40.3
-47.09
-51.31
-53.38
-54.68
-57.04
-61.99
-70.13
-80.67
-91.48
-99.54
-101.84
-96.21
-82.21
-61.38
-36.85
-12.49
8.26
23.36
32.53
36.99
38.69
39.48
40.57
42.3
44.44
46.55
48.26
49.46
50.21
50.64
50.8
50.68
50.31
49.82
49.48
49.55
50.08
50.69
50.56
48.67
44.23
37.15
28.24
19.04
11.23
6.0
3.5
2.8
2.37
0.71
-3.02
-8.73
-15.6
-22.51
-28.47
-32.99
-36.12
-38.4
-40.62
-43.88
-49.26
-57.56
-68.8
-81.76
-93.85
-101.66
-101.98
-93.06
-75.43
-51.82
-26.29
-2.82
15.83
28.71
36.43
40.4
42.11
42.62
42.47
41.85
40.89
39.74
38.56
37.46
36.36
35.11
33.62
32.07
30.89
30.56
31.36
33.01
34.75
35.59
34.75
31.97
27.64
22.47
17.19
12.21
7.54
2.97
-1.76
-6.69
-11.63
-16.29
-20.48
-24.36
-28.43
-33.42
-40.01
-48.51
-58.6
-69.28
-78.9
-85.45
-86.96
-82.08
-70.47
-53.13
-32.25
-10.65
8.95
24.59
35.5
41.96
44.95
45.63
44.86
43.07
40.28
36.38
31.43
25.92
20.73
16.96
15.5
16.63
19.96
24.48
28.96
32.34
33.93
33.57
31.41
27.87
23.38
18.36
13.11
7.8
2.46
-2.87
-8.2
-13.54
-18.96
-24.61
-30.61
-36.95
-43.46
-49.84
-55.94
-61.95
-68.32
-75.33
-82.54
-88.4
-90.53
-86.55
-75.17
-57.01
-34.51
-11.15
9.77
26.16
37.47
44.36
47.94
49.13
48.42
46.02
42.31
37.99
34.07
31.47
30.67
31.51
33.31
35.33
37.08
38.49
39.78
41.14
42.39
43.01
42.29
39.72
35.3
29.56
23.39
17.65
12.79
8.56
4.21
-1.25
-8.43
-17.16
-26.51
-35.05
-41.58
-45.59
-47.53
-48.55
-50.12
-53.53
-59.53
-68.11
-78.32
-88.22
-95.13
-96.21
-89.45
-74.5
-53.05
-28.36
-4.28
16.01
30.75
39.72
43.81
44.41
42.94
40.61
38.38
36.91
36.48
36.99
38.08
39.29
40.3
41.01
41.44
41.7
41.87
42.04
42.28
42.6
42.85
42.65
41.41
38.63
34.15
28.3
21.73
15.15
8.94
3.07
-2.8
-8.96
-15.4
-21.76
-27.41
-31.84
-34.87
-36.76
-38.1
-39.69
-42.33
-46.74
-53.39
-62.27
-72.64
-82.76
-90.11
-91.95
-86.26
-72.6
-52.58
-29.5
-7.33
10.66
22.87
29.64
32.67
34.01
35.05
36.2
37.04
37.0
35.82
33.81
31.68
30.11
29.54
29.98
31.24
33.04
35.11
37.14
38.79
39.6
39.15
37.19
33.66
28.71
22.6
15.65
8.2
0.69
-6.41
-12.72
-18.02
-22.33
-25.92
-29.09
-32.1
-35.17
-38.56
-42.68
-48.09
-55.22
-63.94
-73.15
-80.75
-84.12
-80.96
-70.22
-52.66
-30.86
-8.36
11.33
25.84
34.46
38.05
38.41
37.47
36.56
36.21
36.25
36.27
36.01
35.54
35.25
35.51
36.52
38.12
39.96
41.7
43.13
44.18
44.8
44.82
43.91
41.71
37.92
32.48
25.61
17.74
9.41
1.22
-6.38
-13.08
-18.78
-23.54
-27.55
-31.01
-34.13
-37.18
-40.61
-45.14
-51.6
-60.57
-71.83
-83.94
-94.23
-99.45
-96.86
-85.36
-66.03
-41.96
-17.23
4.29
20.08
29.44
33.34
33.66
32.54
31.57
31.59
32.68
34.42
36.23
37.7
38.72
39.43
40.04
40.75
41.61
42.65
43.92
45.44
47.19
48.84
49.7
48.78
45.15
38.39
28.98
18.31
8.33
0.75
-3.67
-5.4
-5.94
-7.06
-10.0
-14.95
-21.15
-27.38
-32.61
-36.5
-39.4
-42.15
-45.81
-51.28
-59.11
-69.26
-80.82
-91.85
-99.67
-101.41
-95.02
-80.13
-58.39
-33.14
-8.31
12.77
28.27
38.03
43.18
45.33
45.92
45.87
45.59
45.28
45.09
45.22
45.75
46.51
47.06
46.84
45.56
43.46
41.28
40.02
40.33
42.13
44.47
45.94
45.23
41.76
35.89
28.71
21.55
15.51
11.07
8.11
5.96
3.68
0.31
-4.83
-11.84
-20.21
-28.81
-36.34
-41.84
-45.14
-47.01
-48.9
-52.35
-58.41
-67.04
-76.89
-85.5
-89.98
-87.87
-78.02
-61.06
-39.26
-15.9
5.69
23.0
34.79
41.05
42.66
40.97
37.42
33.34
29.8
27.46
26.53
26.77
27.77
29.1
30.57
32.19
34.08
36.31
38.74
40.99
42.52
42.81
41.51
38.58
34.24
28.87
22.79
16.19
9.11
1.66
-5.93
-13.21
-19.63
-24.8
-28.61
-31.3
-33.35
-35.32
-37.81
-41.41
-46.67
-53.95
-63.03
-72.73
-80.91
-84.82
-81.99
-71.31
-53.67
-31.86
-9.67
9.4
23.34
32.02
36.75
39.33
41.11
42.55
43.4
43.24
42.03
40.22
38.56
37.68
37.84
38.82
40.2
41.63
43.0
44.4
45.87
47.14
47.62
46.48
43.11
37.44
30.06
22.11
14.83
9.18
5.43
3.16
1.44
-0.77
-4.27
-9.36
-15.76
-22.77
-29.48
-35.1
-39.26
-42.2
-44.79
-48.36
-54.32
-63.58
-76.04
-90.23
-103.4
-112.11
-113.23
-105.02
-87.82
-63.97
-37.18
-11.31
10.69
27.3
38.56
45.5
49.48
51.68
52.74
52.77
51.59
49.12
45.64
41.89
38.86
37.45
38.04
40.31
43.44
46.47
48.74
50.05
50.62
50.74
50.44
49.49
47.48
44.12
39.4
33.59
27.09
20.28
13.47
6.89
0.8
-4.58
-9.19
-13.24
-17.12
-21.26
-25.84
-30.66
-35.22
-39.02
-41.94
-44.45
-47.49
-52.22
-59.54
-69.72
-81.98
-94.43
-104.23
-108.2
-103.84
-90.29
-68.89
-42.86
-16.32
7.06
25.12
37.49
45.1
49.36
51.43
51.97
51.35
49.82
47.74
45.41
43.08
40.8
38.68
36.86
35.66
35.37
36.12
37.77
39.94
42.14
43.85
44.6
43.95
41.57
37.38
31.74
25.41
19.31
14.09
9.79
5.82
1.28
-4.47
-11.46
-18.98
-25.99
-31.57
-35.39
-37.78
-39.54
-41.62
-44.93
-50.09
-57.42
-66.68
-76.75
-85.6
-90.62
-89.41
-80.78
-65.34
-45.38
-24.09
-4.4
11.79
23.9
32.29
37.69
40.75
41.86
41.33
39.54
37.0
34.29
31.91
30.29
29.68
30.09
31.25
32.57
33.43
33.37
32.37
30.74
28.96
27.32
25.72
23.76
20.96
17.07
12.17
6.57
0.69
-5.14
-10.69
-15.85
-20.61
-25.15
-29.82
-35.17
-41.7
-49.72
-59.18
-69.51
-79.59
-87.8
-92.18
-90.79
-82.4
-66.97
-46.02
-22.31
0.82
20.54
35.24
44.72
49.84
51.76
51.37
49.24
45.76
41.6
37.7
35.05
34.3
35.37
37.59
39.98
41.82
42.9
43.55
44.31
45.47
46.93
48.06
48.0
45.91
41.27
34.1
25.08
15.47
6.69
-0.07
-4.38
-6.76
-8.47
-10.94
-15.11
-21.0
-27.81
-34.33
-39.56
-43.22
-45.77
-48.2
-51.71
-57.39
-65.93
-77.35
-90.56
-103.19
-111.91
-113.25
-104.89
-86.77
-61.34
-32.88
-5.97
15.96
31.56
41.35
46.96
50.09
51.91
52.9
53.16
52.63
51.31
49.28
46.74
44.09
41.84
40.54
40.5
41.68
43.63
45.77
47.57
48.74
49.17
48.74
47.3
44.55
40.35
34.89
28.73
22.63
17.19
12.6
8.44
4.02
-1.33
-7.91
-15.4
-23.05
-29.91
-35.25
-38.81
-40.89
-42.23
-43.8
-46.56
-51.34
-58.64
-68.49
-80.13
-91.78
-100.73
-103.98
-99.22
-85.91
-65.7
-42.0
-18.79
0.76
15.28
25.14
31.77
36.61
40.43
43.28
44.86
45.04
44.17
42.92
41.95
41.63
41.98
42.75
43.7
44.66
45.53
46.24
46.6
46.34
45.24
43.14
40.04
36.08
31.48
26.49
21.41
16.56
12.19
8.42
5.1
1.76
-2.12
-6.93
-12.6
-18.61
-24.29
-29.19
-33.38
-37.39
-42.06
-48.07
-55.73
-64.83
-74.68
-84.05
-91.28
-94.37
-91.43
-81.32
-64.26
-42.1
-17.91
4.87
23.46
36.49
44.04
47.13
47.11
45.11
41.99
38.38
34.9
32.1
30.39
29.87
30.37
31.62
33.35
35.43
37.69
39.92
41.75
42.7
42.36
40.45
36.93
31.87
25.5
18.17
10.4
2.77
-4.15
-10.06
-15.04
-19.41
-23.59
-27.84
-32.13
-36.25
-40.12
-43.97
-48.43
-54.34
-62.32
-72.14
-82.5
-91.04
-94.94
-91.8
-80.59
-62.21
-39.27
-15.35
6.14
22.95
34.39
41.15
44.6
46.13
46.69
46.7
46.27
45.47
44.4
43.18
41.89
40.62
39.49
38.7
38.56
39.3
40.95
43.22
45.49
47.04
47.15
45.39
41.64
36.2
29.67
22.86
16.56
11.29
6.99
3.08
-1.39
-7.2
-14.56
-22.86
-30.95
-37.61
-42.13
-44.63
-46.03
-47.62
-50.68
-56.14
-64.34
-74.87
-86.43
-96.78
-103.06
-102.53
-93.59
-76.62
-54.12
-29.94
-7.91
9.48
21.64
29.61
35.11
39.49
43.26
46.2
47.89
48.27
47.74
46.99
46.63
46.94
47.83
48.98
50.07
50.78
50.9
50.31
49.05
47.34
45.44
43.53
41.53
39.05
35.61
30.94
25.26
19.26
13.86
9.69
6.76
4.39
1.59
-2.51
-8.24
-15.33
-23.11
-30.74
-37.53
-43.11
-47.55
-51.43
-55.74
-61.65
-69.99
-80.71
-92.44
-102.51
-107.68
-105.18
-93.82
-74.58
-50.33
-25.01
-2.32
15.21
26.79
33.18
36.09
37.33
38.2
39.25
40.43
41.42
42.03
42.36
42.78
43.66
45.12
46.94
48.71
50.09
50.96
51.41
51.49
51.02
49.6
46.78
42.4
36.7
30.38
24.25
18.92
14.63
11.12
7.85
4.17
-0.4
-6.01
-12.38
-18.93
-24.95
-29.96
-34.0
-37.73
-42.24
-48.7
-57.76
-69.18
-81.57
-92.62
-99.52
-99.85
-92.21
-76.85
-55.63
-31.61
-8.14
11.98
27.22
37.41
43.42
46.57
47.95
48.1
46.95
44.25
39.98
34.72
29.6
25.95
24.76
26.28
29.94
34.62
39.1
42.51
44.44
44.82
43.78
41.44
37.95
33.48
28.37
22.88
17.1
10.82
3.69
-4.53
-13.6
-22.76
-30.96
-37.34
-41.64
-44.45
-46.99
-50.65
-56.47
-64.74
-74.69
-84.62
-92.06
-94.46
-89.9
-77.81
-59.42
-37.6
-16.03
2.0
14.61
21.77
24.89
25.88
26.27
26.65
26.85
26.51
25.54
24.33
23.6
23.93
25.53
28.14
31.23
34.25
36.81
38.73
39.94
40.41
40.23
39.52
38.55
37.62
37.05
37.1
37.86
39.21
40.74
41.88
42.0
40.74
38.05
34.2
29.64
24.73
19.75
14.83
10.12
5.81
1.97
-1.53
-5.1
-9.29
-14.52
-20.88
-28.03
-35.43
-42.49
-48.83
-54.32
-59.15
-63.78
-68.97
-75.5
-83.73
-93.01
-101.44
-106.18
-104.26
-93.95
-75.57
-51.58
-25.81
-2.09
16.88
30.04
37.74
41.19
41.81
40.88
39.44
38.3
37.99
38.63
39.99
41.64
43.21
44.55
45.71
46.91
48.26
49.76
51.28
52.64
53.59
53.78
52.74
49.97
45.23
38.71
31.11
23.47
16.82
11.77
8.38
6.19
4.48
2.53
-0.17
-3.84
-8.45
-13.74
-19.3
-24.64
-29.36
-33.46
-37.29
-41.57
-47.0
-54.05
-62.7
-72.54
-82.72
-91.95
-98.57
-100.61
-96.29
-84.72
-66.48
-43.8
-19.99
1.54
18.45
29.97
36.78
40.23
41.52
41.29
39.7
36.97
33.63
30.59
28.77
28.66
30.14
32.57
35.22
37.59
39.61
41.48
43.44
45.49
47.37
48.58
48.52
46.65
42.59
36.34
28.38
19.72
11.66
5.36
1.3
-0.94
-2.54
-4.85
-8.8
-14.43
-20.95
-27.17
-32.1
-35.42
-37.5
-39.19
-41.58
-45.71
-52.42
-62.05
-74.11
-86.82
-97.3
-102.15
-98.63
-85.83
-65.22
-40.26
-15.2
6.37
22.52
33.12
39.25
42.34
43.49
43.3
41.92
39.4
35.85
31.59
27.12
23.13
20.4
19.55
20.86
24.07
28.42
32.88
36.45
38.49
38.76
37.43
34.83
31.32
27.2
22.65
17.72
12.3
6.19
-0.78
-8.5
-16.54
-24.08
-30.34
-34.89
-37.96
-40.48
-43.74
-48.94
-56.66
-66.49
-76.92
-85.56
-89.72
-87.11
-76.72
-59.3
-37.33
-14.34
6.2
21.97
32.36
38.24
41.28
43.0
44.22
45.03
45.14
44.34
42.76
40.86
39.17
38.07
37.66
37.92
38.76
40.06
41.67
43.18
43.96
43.25
40.47
35.52
28.9
21.62
14.83
9.35
5.38
2.47
-0.27
-3.73
-8.44
-14.42
-21.18
-28.02
-34.22
-39.32
-43.24
-46.44
-49.82
-54.68
-62.32
-73.36
-87.09
-101.1
-111.65
-114.8
-107.89
-90.71
-65.72
-37.25
-9.95
12.65
29.01
39.42
45.3
48.31
49.71
50.25
50.28
49.97
49.4
48.57
47.42
45.87
44.0
42.1
40.63
40.07
40.72
42.53
45.14
47.88
50.07
51.02
50.24
47.47
42.71
36.36
29.12
21.95
15.76
11.17
8.18
6.14
3.85
0.07
-6.06
-14.5
-24.32
-33.96
-41.83
-47.0
-49.54
-50.52
-51.58
-54.43
-60.24
-69.34
-80.96
-93.26
-103.46
-108.47
-105.71
-93.99
-74.11
-48.81
-21.98
2.47
21.67
34.45
41.26
43.69
43.75
43.19
43.11
43.84
45.11
46.42
47.33
47.76
48.01
48.5
49.58
51.25
53.21
55.1
56.67
57.84
58.58
58.68
57.55
54.51
49.05
41.27
32.07
22.83
15.0
9.44
6.2
4.46
3.03
0.77
-2.97
-8.26
-14.65
-21.41
-27.78
-33.11
-37.16
-40.11
-42.64
-45.85
-50.99
-59.06
-70.34
-83.96
-97.77
-108.63
-113.21
-109.07
-95.55
-74.18
-48.22
-21.67
1.95
20.5
33.44
41.46
45.83
47.78
48.15
47.34
45.41
42.35
38.28
33.66
29.3
26.18
25.12
26.45
29.83
34.38
39.0
42.76
45.06
45.7
44.69
42.16
38.29
33.42
27.96
22.34
16.74
10.97
4.57
-2.87
-11.29
-20.07
-28.16
-34.52
-38.73
-41.17
-43.02
-45.75
-50.69
-58.41
-68.39
-79.0
-87.65
-91.47
-88.09
-76.54
-57.7
-34.28
-10.04
11.36
27.44
37.51
42.48
44.17
44.39
44.28
44.08
43.53
42.27
40.3
38.08
36.3
35.49
35.83
37.07
38.84
40.8
42.76
44.49
45.58
45.39
43.31
39.08
33.03
26.0
19.09
13.16
8.52
4.87
1.53
-2.31
-7.18
-13.2
-20.04
-27.02
-33.41
-38.64
-42.63
-45.91
-49.59
-54.98
-63.17
-74.5
-88.12
-101.89
-112.74
-117.37
-113.36
-99.92
-78.43
-52.0
-24.65
-0.06
19.41
33.07
41.65
46.63
49.45
51.04
51.68
51.24
49.6
47.03
44.18
41.96
41.12
41.93
44.01
46.64
49.07
50.88
52.13
53.07
53.88
54.38
54.04
52.23
48.43
42.53
34.8
25.92
16.83
8.55
1.92
-2.75
-5.84
-8.32
-11.37
-15.82
-21.73
-28.41
-34.8
-39.99
-43.78
-46.67
-49.72
-54.09
-60.73
-70.15
-82.13
-95.48
-107.85
-116.01
-116.69
-107.76
-89.22
-63.52
-34.87
-7.83
14.2
29.8
39.45
44.81
47.66
49.26
50.18
50.59
50.55
50.19
49.66
49.02
48.24
47.32
46.38
45.75
45.79
46.76
48.6
50.94
53.16
54.58
54.59
52.74
48.89
43.17
36.1
28.49
21.3
15.25
10.52
6.62
2.58
-2.56
-9.35
-17.51
-26.12
-33.92
-39.87
-43.59
-45.46
-46.51
-48.06
-51.41
-57.49
-66.63
-78.32
-91.03
-102.18
-108.67
-107.64
-97.49
-78.67
-53.76
-26.85
-2.2
17.07
29.79
36.73
39.86
41.23
42.21
43.16
43.81
43.75
42.87
41.52
40.28
39.67
39.93
41.0
42.66
44.71
46.93
48.98
50.3
50.14
47.84
43.18
36.6
29.17
22.11
16.35
12.09
8.82
5.65
1.76
-3.28
-9.3
-15.79
-22.08
-27.66
-32.28
-36.07
-39.56
-43.68
-49.56
-58.12
-69.44
-82.3
-94.06
-101.29
-100.85
-91.09
-72.64
-48.23
-21.83
2.63
22.42
36.5
45.22
49.79
51.54
51.49
50.34
48.51
46.25
43.7
40.89
37.81
34.53
31.4
29.06
28.22
29.36
32.35
36.37
40.08
42.09
41.45
37.96
32.19
25.19
18.07
11.59
6.05
1.29
-3.19
-8.01
-13.7
-20.56
-28.43
-36.72
-44.55
-51.09
-55.97
-59.59
-63.13
-68.1
-75.67
-85.78
-96.76
-105.52
-108.5
-102.99
-88.18
-65.67
-38.81
-11.76
11.91
29.97
41.8
48.08
50.21
49.8
48.36
47.01
46.43
46.81
47.89
49.18
50.22
50.81
50.99
51.0
51.07
51.4
52.1
53.21
54.64
55.98
56.43
54.94
50.6
43.13
33.23
22.43
12.64
5.34
0.98
-1.16
-2.65
-5.14
-9.7
-16.42
-24.47
-32.58
-39.61
-44.93
-48.64
-51.49
-54.62
-59.39
-66.94
-77.78
-91.31
-105.45
-116.83
-121.57
-116.61
-100.94
-76.3
-46.69
-17.08
8.28
27.07
39.18
46.12
49.89
52.14
53.71
54.83
55.49
55.78
55.94
56.17
56.51
56.73
56.51
55.68
54.42
53.25
52.82
53.54
55.33
57.46
58.81
58.27
55.17
49.49
41.88
33.39
25.07
17.78
11.92
7.49
4.0
0.67
-3.46
-9.21
-16.86
-25.97
-35.41
-43.76
-49.86
-53.38
-54.99
-56.17
-58.7
-64.05
-72.9
-84.72
-97.69
-108.94
-115.12
-113.3
-102.01
-81.9
-55.75
-27.75
-2.17
17.88
31.27
38.73
42.19
43.8
45.06
46.6
48.26
49.58
50.23
50.25
50.03
50.01
50.5
51.47
52.71
53.95
55.1
56.19
57.21
57.9
57.71
55.9
51.93
45.75
37.96
29.64
21.99
15.85
11.48
8.49
6.02
3.11
-0.98
-6.53
-13.31
-20.64
-27.61
-33.36
-37.43
-39.94
-41.74
-44.17
-48.77
-56.67
-68.06
-81.82
-95.53
-105.89
-109.63
-104.56
-90.31
-68.54
-42.52
-16.08
7.42
25.93
38.85
46.78
50.9
52.42
52.19
50.72
48.25
44.93
41.04
36.95
33.19
30.34
28.88
29.11
30.99
34.15
37.89
41.37
43.71
44.18
42.43
38.44
32.65
25.86
18.96
12.72
7.5
3.19
-0.73
-4.99
-10.25
-16.84
-24.66
-33.16
-41.54
-48.96
-54.94
-59.62
-63.82
-68.87
-75.92
-85.21
-95.5
-104.04
-107.4
-102.69
-88.78
-66.93
-40.39
-13.33
10.6
29.24
42.14
50.11
54.34
55.83
55.13
52.67
49.03
45.1
41.91
40.28
40.49
42.22
44.76
47.36
49.51
51.08
52.26
53.25
54.12
54.63
54.26
52.42
48.69
43.06
35.95
28.12
20.35
13.18
6.73
0.8
-5.01
-11.01
-17.29
-23.72
-30.0
-35.82
-40.94
-45.29
-48.97
-52.33
-55.96
-60.68
-67.42
-76.77
-88.51
-101.1
-111.71
-116.91
-113.83
-101.38
-80.8
-55.38
-29.2
-5.73
13.1
27.05
37.0
44.09
49.16
52.62
54.62
55.39
55.29
54.74
54.11
53.62
53.41
53.6
54.32
55.62
57.38
59.21
60.45
60.47
58.92
55.88
51.89
47.6
43.48
39.6
35.6
31.04
25.72
19.89
14.09
8.92
4.66
1.12
-2.28
-6.18
-10.98
-16.65
-22.82
-29.01
-34.92
-40.61
-46.38
-52.57
-59.39
-66.92
-75.24
-84.51
-94.77
-105.39
-114.7
-119.96
-118.19
-107.35
-87.45
-60.9
-31.75
-4.3
18.28
34.72
45.43
51.7
54.85
55.7
54.68
52.15
48.74
45.41
43.13
42.54
43.71
46.2
49.26
52.23
54.77
56.81
58.45
59.69
60.33
60.01
58.43
55.46
51.27
46.23
40.65
34.69
28.28
21.35
13.98
6.62
-0.03
-5.36
-9.12
-11.66
-13.78
-16.43
-20.19
-25.11
-30.7
-36.25
-41.16
-45.26
-48.79
-52.31
-56.56
-62.29
-70.15
-80.4
-92.57
-105.03
-115.0
-119.1
-114.48
-99.93
-76.74
-48.38
-19.48
5.75
24.76
37.13
44.08
47.51
49.07
49.63
49.43
48.48
46.96
45.31
44.12
43.77
44.18
44.91
45.41
45.42
45.12
45.05
45.73
47.28
49.17
50.4
49.87
46.89
41.48
34.39
26.71
19.62
13.88
9.74
6.82
4.26
0.97
-4.01
-11.09
-19.88
-29.22
-37.58
-43.66
-47.0
-48.16
-48.58
-50.03
-54.01
-61.25
-71.43
-83.13
-93.95
-100.91
-101.19
-92.94
-76.08
-52.57
-25.99
-0.5
20.46
35.04
43.29
46.65
47.1
46.34
45.33
44.34
43.22
41.82
40.27
38.95
38.36
38.83
40.36
42.59
45.0
47.12
48.75
49.91
50.63
50.79
49.93
47.34
42.42
35.02
25.73
15.82
6.83
0.06
-3.99
-5.79
-6.58
-7.86
-10.73
-15.58
-21.97
-28.91
-35.33
-40.54
-44.39
-47.33
-50.18
-53.95
-59.59
-67.77
-78.59
-91.26
-103.84
-113.39
-116.69
-111.19
-96.12
-72.96
-45.13
-16.93
7.81
26.79
39.5
46.9
50.59
52.1
52.5
52.36
51.91
51.22
50.39
49.53
48.82
48.43
48.42
48.71
49.05
49.15
48.83
48.1
47.2
46.33
45.58
44.69
43.26
40.93
37.51
33.12
28.07
22.74
17.41
12.3
7.55
3.29
-0.46
-3.85
-7.22
-11.08
-15.87
-21.87
-29.0
-36.86
-44.81
-52.15
-58.35
-63.29
-67.42
-71.71
-77.38
-85.3
-95.32
-105.85
-113.97
-116.21
-109.83
-93.97
-70.16
-41.88
-13.46
11.32
30.24
42.87
50.16
53.56
54.36
53.38
51.09
47.93
44.52
41.66
39.98
39.77
40.85
42.74
44.92
47.06
49.08
51.05
52.91
54.38
55.02
54.4
52.32
48.94
44.67
40.04
35.42
30.85
26.11
20.83
14.76
8.01
1.11
-5.18
-10.24
-13.87
-16.41
-18.63
-21.3
-24.84
-29.17
-33.83
-38.3
-42.28
-45.88
-49.57
-54.04
-60.02
-68.04
-78.15
-89.56
-100.35
-107.74
-108.82
-101.63
-86.08
-64.1
-39.08
-14.63
6.47
22.9
34.66
42.46
47.11
49.29
49.51
48.34
46.43
44.45
42.9
42.04
41.9
42.46
43.59
45.12
46.72
47.93
48.39
47.9
46.63
44.94
43.18
41.43
39.42
36.69
32.84
27.86
22.15
16.47
11.51
7.66
4.81
2.49
0.08
-2.95
-6.93
-11.94
-17.88
-24.48
-31.29
-37.73
-43.26
-47.6
-50.96
-54.15
-58.37
-64.71
-73.52
-83.86
-93.45
-99.13
-97.94
-88.2
-70.24
-46.37
-20.23
4.32
24.26
37.99
45.35
47.3
45.38
41.32
36.58
32.31
29.09
27.08
26.08
25.82
26.11
26.92
28.34
30.43
33.14
36.3
39.62
42.7
45.0
45.79
44.32
40.04
32.99
23.96
14.36
5.76
-0.78
-5.08
-7.95
-10.7
-14.43
-19.5
-25.46
-31.38
-36.44
-40.45
-43.92
-47.87
-53.37
-61.18
-71.37
-83.18
-94.92
-104.14
-108.05
-104.38
-92.14
-72.22
-47.28
-21.08
2.7
21.49
34.33
41.83
45.48
46.96
47.55
47.92
48.26
48.58
48.92
49.42
50.25
51.45
52.77
53.8
54.15
53.71
52.83
52.11
52.01
52.46
52.7
51.62
48.24
42.33
34.5
26.01
18.08
11.44
5.96
0.96
-4.38
-10.51
-17.27
-24.03
-30.09
-35.04
-39.1
-43.01
-47.82
-54.49
-63.56
-74.93
-87.73
-100.24
-110.04
-114.4
-111.01
-98.75
-78.35
-52.42
-24.79
0.7
21.28
35.89
45.08
50.32
53.18
54.75
55.42
55.09
53.51
50.72
47.14
43.58
40.95
39.93
40.65
42.73
45.46
48.16
50.45
52.23
53.45
53.83
52.82
49.8
44.48
37.21
28.89
20.67
13.39
7.18
1.59
-4.15
-10.57
-17.65
-24.84
-31.34
-36.5
-40.16
-42.66
-44.77
-47.42
-51.51
-57.85
-66.83
-78.19
-90.65
-101.88
-108.91
-109.0
-100.62
-84.08
-61.54
-36.32
-11.89
9.08
25.23
36.42
43.41
47.27
49.05
49.48
49.03
47.92
46.32
44.45
42.69
41.48
41.13
41.59
42.51
43.34
43.61
43.16
42.15
40.83
39.31
37.46
34.92
31.35
26.59
20.73
14.06
6.98
-0.14
-6.99
-13.29
-18.83
-23.56
-27.7
-31.77
-36.5
-42.65
-50.73
-60.76
-72.06
-83.21
-92.15
-96.51
-94.21
-84.13
-66.65
-43.76
-18.57
5.5
25.69
40.57
50.1
55.17
56.9
56.13
53.3
48.73
43.0
37.09
32.18
29.3
28.88
30.7
34.02
37.93
41.59
44.47
46.21
46.62
45.61
43.24
39.63
34.9
29.05
21.94
13.49
3.91
-6.14
-15.64
-23.63
-29.61
-33.76
-36.88
-39.96
-43.84
-49.04
-55.82
-64.3
-74.36
-85.29
-95.43
-102.22
-102.89
-95.49
-79.89
-57.96
-33.05
-8.8
12.05
28.21
39.77
47.56
52.53
55.37
56.52
56.36
55.36
54.08
52.96
52.29
52.1
52.21
52.31
52.09
51.39
50.32
49.29
48.78
49.06
49.87
50.4
49.51
46.29
40.5
32.81
24.53
17.06
11.33
7.39
4.52
1.51
-2.77
-8.98
-17.1
-26.37
-35.62
-43.6
-49.47
-53.17
-55.5
-57.96
-62.25
-69.62
-80.26
-92.87
-104.76
-112.49
-112.84
-103.93
-85.96
-61.34
-33.96
-8.05
13.13
28.13
37.39
42.6
45.7
48.09
50.28
52.1
53.17
53.4
53.08
52.81
53.12
54.27
56.15
58.44
60.7
62.5
63.49
63.46
62.35
60.32
57.64
54.56
51.13
47.16
42.37
36.61
30.1
23.37
17.09
11.78
7.52
3.99
0.59
-3.38
-8.43
-14.82
-22.45
-30.84
-39.19
-46.59
-52.31
-56.21
-58.83
-61.39
-65.4
-72.13
-81.94
-93.91
-105.74
-114.15
-115.83
-108.48
-91.67
-67.24
-38.8
-10.77
12.97
30.11
40.36
45.11
46.58
46.86
47.21
47.96
48.74
49.03
48.61
47.7
46.85
46.63
47.32
48.87
50.98
53.22
55.15
56.29
56.2
54.58
51.34
46.83
41.61
36.27
31.17
26.36
21.68
17.05
12.61
8.69
5.57
3.17
0.98
-1.72
-5.55
-10.73
-16.99
-23.8
-30.58
-36.9
-42.52
-47.43
-51.84
-56.28
-61.57
-68.56
-77.6
-87.92
-97.42
-103.04
-101.72
-91.66
-73.2
-48.77
-22.18
2.59
22.56
36.32
44.01
46.88
46.6
44.72
42.3
39.84
37.51
35.34
33.52
32.43
32.52
34.01
36.69
39.97
43.05
45.33
46.46
46.45
45.38
43.33
40.24
36.06
30.76
24.5
17.65
10.78
4.6
-0.33
-3.75
-5.91
-7.54
-9.59
-12.9
-17.78
-23.97
-30.81
-37.57
-43.7
-48.99
-53.52
-57.68
-62.12
-67.73
-75.28
-84.89
-95.52
-104.72
-109.19
-105.88
-93.29
-72.22
-45.71
-18.03
6.73
25.81
38.27
44.81
47.11
47.06
46.16
45.29
44.7
44.29
43.81
43.19
42.57
42.31
42.71
43.91
45.76
47.95
50.05
51.6
52.21
51.51
49.32
45.68
40.96
35.64
30.19
24.86
19.69
14.58
9.55
4.79
0.61
-2.76
-5.43
-7.89
-10.79
-14.62
-19.53
-25.22
-31.25
-37.2
-42.86
-48.2
-53.31
-58.34
-63.59
-69.59
-76.97
-86.01
-96.03
-105.06
-110.1
-108.08
-97.14
-77.55
-51.83
-23.93
2.1
23.27
38.24
47.13
50.99
51.16
49.01
45.76
42.5
40.06
38.91
39.05
40.09
41.48
42.77
43.77
44.57
45.35
46.28
47.41
48.71
49.98
50.89
50.9
49.31
45.48
39.17
30.75
21.22
11.99
4.34
-0.97
-3.97
-5.37
-6.24
-7.62
-10.21
-14.21
-19.38
-25.14
-30.8
-35.78
-39.76
-42.81
-45.44
-48.56
-53.28
-60.68
-71.28
-84.56
-98.64
-110.37
-116.11
-112.88
-99.52
-77.33
-49.71
-21.09
4.5
24.53
38.28
46.44
50.4
51.49
50.73
48.8
46.2
43.36
40.53
37.79
35.05
32.26
29.61
27.59
26.86
27.93
30.84
35.07
39.67
43.49
45.58
45.32
42.59
37.7
31.34
24.42
17.95
12.72
9.05
6.6
4.39
1.15
-4.09
-11.54
-20.44
-29.33
-36.6
-41.27
-43.39
-44.05
-44.94
-47.79
-53.68
-62.69
-73.73
-84.58
-92.36
-94.16
-87.92
-73.27
-51.82
-26.89
-2.52
17.84
32.25
40.64
44.29
45.04
44.37
43.08
41.34
39.09
36.44
33.77
31.62
30.42
30.32
31.17
32.68
34.62
36.91
39.54
42.3
44.61
45.49
43.91
39.19
31.52
22.02
12.36
4.26
-1.32
-4.42
-6.09
-7.77
-10.7
-15.39
-21.53
-28.19
-34.31
-39.08
-42.22
-44.08
-45.58
-48.06
-53.01
-61.54
-73.79
-88.46
-102.75
-112.92
-115.37
-107.88
-90.52
-65.72
-37.49
-10.18
12.83
29.84
40.85
47.01
49.87
50.81
50.71
49.93
48.49
46.28
43.31
39.88
36.63
34.31
33.56
34.6
37.12
40.4
43.64
46.29
48.14
49.24
49.6
49.09
47.37
44.17
39.47
33.6
27.08
20.4
13.9
7.74
1.97
-3.41
-8.42
-13.23
-18.09
-23.22
-28.65
-34.07
-38.95
-42.8
-45.57
-47.72
-50.23
-54.3
-60.97
-70.76
-83.24
-96.73
-108.34
-114.48
-111.94
-99.19
-77.12
-49.02
-19.52
6.94
27.52
41.37
49.38
53.24
54.54
54.4
53.45
52.14
50.79
49.61
48.52
47.29
45.68
43.72
41.93
41.08
41.9
44.64
48.81
53.35
56.97
58.67
57.97
55.09
50.61
45.27
39.71
34.29
29.19
24.37
19.6
14.59
9.11
3.13
-3.08
-9.05
-14.34
-18.78
-22.52
-25.97
-29.5
-33.27
-37.15
-40.86
-44.27
-47.59
-51.44
-56.73
-64.25
-74.29
-86.21
-98.27
-107.74
-111.55
-107.21
-93.76
-72.32
-45.89
-18.39
6.4
25.98
39.5
47.52
51.34
52.35
51.6
49.74
47.21
44.47
41.99
40.26
39.5
39.55
39.96
40.13
39.77
39.07
38.64
39.18
40.98
43.6
45.91
46.5
44.34
39.3
32.19
24.44
17.44
11.98
8.03
4.86
1.52
-2.71
-8.09
-14.4
-21.16
-27.88
-34.18
-39.86
-44.92
-49.59
-54.46
-60.27
-67.66
-76.45
-85.29
-91.65
-92.51
-85.55
-70.16
-47.91
-22.1
3.32
24.99
40.88
50.51
54.59
54.51
51.76
47.67
43.28
39.3
36.15
34.02
32.93
32.85
33.69
35.29
37.44
39.94
42.54
45.12
47.47
49.22
49.72
48.13
43.74
36.43
26.89
16.58
7.19
0.07
-4.35
-6.63
-8.03
-9.94
-13.31
-18.32
-24.47
-30.84
-36.53
-40.98
-44.19
-46.74
-49.77
-54.62
-62.47
-73.73
-87.61
-101.83
-113.04
-117.65
-113.07
-98.65
-76.04
-48.74
-21.0
3.54
22.66
35.85
43.89
48.23
50.23
50.85
50.49
49.18
46.9
43.82
40.47
37.68
36.33
36.98
39.6
43.56
47.92
51.82
54.73
56.52
57.27
57.05
55.72
53.07
48.97
43.44
36.67
28.97
20.75
12.54
4.95
-1.39
-6.1
-9.32
-11.69
-14.17
-17.56
-22.11
-27.4
-32.64
-37.07
-40.42
-43.06
-45.8
-49.59
-55.26
-63.4
-74.17
-86.98
-100.15
-110.9
-115.79
-111.84
-97.74
-74.69
-46.25
-17.16
8.22
27.26
39.5
46.22
49.37
50.71
51.26
51.47
51.48
51.44
51.55
51.93
52.46
52.84
52.7
51.87
50.58
49.4
49.03
49.91
51.92
54.36
56.13
56.15
53.76
48.95
42.27
34.64
27.01
20.16
14.52
10.13
6.6
3.17
-1.0
-6.59
-13.67
-21.68
-29.52
-36.07
-40.65
-43.33
-44.9
-46.52
-49.34
-54.22
-61.55
-71.25
-82.51
-93.67
-102.21
-105.24
-100.36
-86.8
-65.93
-41.04
-16.21
5.14
21.22
32.16
39.28
44.08
47.49
49.68
50.38
49.5
47.41
44.92
42.94
42.08
42.49
43.88
45.71
47.41
48.5
48.74
48.12
46.87
45.32
43.7
41.97
39.8
36.67
32.26
26.68
20.53
14.72
9.99
6.58
4.02
1.42
-2.14
-7.08
-13.2
-19.84
-26.27
-32.0
-36.97
-41.47
-45.97
-50.98
-57.02
-64.47
-73.37
-82.93
-91.38
-96.15
-94.5
-84.65
-66.65
-42.62
-16.17
8.69
28.83
42.65
50.16
52.5
51.24
47.92
43.68
39.34
35.43
32.27
30.06
28.89
28.77
29.66
31.46
34.03
37.19
40.67
44.0
46.49
47.3
45.67
41.26
34.43
26.22
18.03
11.02
5.67
1.62
-2.07
-6.35
-11.67
-17.82
-24.09
-29.7
-34.21
-37.72
-40.83
-44.48
-49.71
-57.44
-68.03
-80.86
-94.04
-104.58
-109.14
-105.11
-91.72
-70.4
-44.47
-17.96
5.62
24.17
37.19
45.4
50.03
52.24
52.77
51.98
50.05
47.22
43.97
40.98
39.0
38.47
39.35
41.15
43.14
44.84
46.14
47.34
48.77
50.39
51.63
51.46
48.9
43.45
35.46
26.09
16.94
9.46
4.39
1.49
-0.37
-2.63
-6.43
-12.09
-19.02
-26.04
-31.96
-36.16
-38.85
-41.06
-44.22
-49.82
-58.8
-71.28
-86.13
-100.96
-112.46
-117.2
-112.75
-98.56
-76.31
-49.46
-22.12
2.15
21.28
34.82
43.56
48.74
51.47
52.43
51.88
50.05
47.36
44.52
42.35
41.52
42.26
44.23
46.77
49.2
51.15
52.67
54.07
55.61
57.19
58.27
58.04
55.72
50.85
43.48
34.25
24.26
14.8
7.0
1.42
-2.17
-4.73
-7.5
-11.43
-16.77
-22.9
-28.78
-33.47
-36.66
-38.78
-40.85
-44.16
-49.87
-58.74
-70.76
-84.9
-98.92
-109.65
-113.8
-108.96
-94.64
-72.54
-46.05
-19.14
4.83
23.86
37.46
46.16
51.0
52.96
52.79
50.98
47.97
44.28
40.57
37.57
35.89
35.8
37.08
39.16
41.39
43.4
45.17
46.98
48.98
50.91
52.03
51.38
48.3
42.72
35.27
26.96
18.75
11.22
4.51
-1.57
-7.32
-12.93
-18.42
-23.69
-28.58
-32.92
-36.59
-39.6
-42.24
-45.09
-49.04
-54.92
-63.08
-72.91
-82.66
-89.78
-91.6
-86.21
-73.22
-53.95
-31.15
-8.14
12.07
27.61
37.93
43.7
46.16
46.58
45.81
44.17
41.72
38.55
34.97
31.49
28.63
26.7
25.71
25.52
25.98
27.02
28.52
30.21
31.6
32.04
31.01
28.36
24.28
19.19
13.49
7.37
0.94
-5.7
-12.32
-18.62
-24.41
-29.83
-35.28
-41.26
-48.13
-56.02
-64.8
-74.16
-83.41
-91.41
-96.37
-96.21
-89.17
-74.71
-53.96
-29.66
-5.33
15.9
32.12
42.9
48.92
51.27
50.9
48.55
44.86
40.63
36.78
34.21
33.35
34.16
36.04
38.24
40.13
41.5
42.53
43.61
45.05
46.78
48.27
48.61
46.82
42.24
34.84
25.44
15.46
6.53
-0.12
-4.17
-6.26
-7.72
-9.97
-13.85
-19.35
-25.71
-31.87
-37.03
-40.95
-44.1
-47.42
-52.12
-59.35
-69.79
-83.12
-97.67
-110.37
-117.37
-115.36
-102.84
-80.98
-53.35
-24.66
0.78
20.43
33.84
42.08
46.83
49.52
50.93
51.42
51.14
50.27
48.94
47.3
45.43
43.52
41.92
41.09
41.45
43.13
45.85
49.02
51.9
53.88
54.52
53.6
51.04
46.82
41.13
34.42
27.38
20.83
15.34
10.94
7.06
2.79
-2.71
-9.69
-17.64
-25.54
-32.3
-37.28
-40.52
-42.63
-44.46
-46.83
-50.37
-55.6
-62.9
-72.34
-83.13
-93.45
-100.6
-101.77
-95.09
-80.45
-59.65
-35.81
-12.3
8.18
24.19
35.46
42.56
46.42
48.04
48.27
47.8
47.1
46.42
45.85
45.36
44.84
44.12
43.02
41.52
39.82
38.41
37.95
38.81
40.87
43.34
44.95
44.54
41.49
36.04
29.14
22.06
15.87
11.06
7.49
4.5
1.25
-3.04
-8.82
-16.08
-24.32
-32.64
-39.98
-45.53
-49.08
-51.23
-53.28
-56.87
-63.21
-72.45
-83.24
-92.88
-98.05
-95.87
-85.03
-66.26
-42.24
-16.77
6.38
24.43
36.17
41.97
43.29
42.0
39.71
37.39
35.36
33.45
31.45
29.41
27.72
26.95
27.49
29.32
31.96
34.71
37.01
38.54
39.22
38.98
37.57
34.6
29.75
23.07
15.09
6.72
-1.15
-7.88
-13.31
-17.62
-21.2
-24.42
-27.57
-30.96
-35.02
-40.27
-47.16
-55.62
-64.72
-72.65
-77.09
-75.91
-67.92
-53.38
-33.89
-11.96
9.7
28.85
44.03
54.6
60.6
62.47
60.9
56.73
50.8
43.94
37.0
30.76
25.98
23.17
22.41
23.27
24.85
26.13
26.45
25.68
24.27
22.87
21.89
21.19
20.09
17.77
13.59
7.45
-0.16
-8.44
-16.55
-23.89
-30.23
-35.65
-40.52
-45.37
-50.86
-57.68
-66.38
-77.04
-89.04
-100.81
-109.95
-113.8
-110.19
-98.19
-78.65
-54.0
-27.62
-2.9
17.66
32.86
42.76
48.28
50.6
50.72
49.34
46.97
44.12
41.38
39.32
38.32
38.35
39.08
40.03
40.94
41.88
43.18
45.13
47.59
49.91
51.02
49.84
45.73
38.83
30.03
20.73
12.37
5.87
1.35
-1.89
-5.01
-9.07
-14.47
-20.83
-27.2
-32.57
-36.41
-38.94
-41.14
-44.41
-50.1
-59.05
-71.18
-85.14
-98.42
-107.73
-109.94
-103.08
-87.12
-64.13
-37.64
-11.55
11.02
28.44
40.55
48.21
52.53
54.4
54.36
52.79
50.16
47.21
44.81
43.61
43.83
45.14
46.89
48.46
49.56
50.33
51.19
52.46
54.13
55.71
56.38
55.25
51.66
45.43
37.03
27.5
18.22
10.46
4.94
1.55
-0.61
-2.8
-6.11
-11.01
-17.21
-23.82
-29.9
-34.76
-38.29
-40.93
-43.53
-47.16
-52.84
-61.29
-72.51
-85.55
-98.35
-108.03
-111.61
-106.87
-93.2
-71.93
-46.04
-19.26
4.96
24.37
38.14
46.74
51.26
52.89
52.46
50.43
47.15
43.08
38.99
35.78
34.14
34.29
35.84
38.07
40.26
42.1
43.7
45.39
47.32
49.17
50.17
49.43
46.36
40.96
33.83
25.86
17.96
10.82
4.7
-0.5
-5.18
-9.83
-14.82
-20.19
-25.63
-30.55
-34.44
-37.1
-38.91
-40.82
-44.06
-49.67
-58.08
-68.64
-79.57
-88.17
-91.52
-87.33
-74.83
-55.22
-31.35
-6.93
14.65
31.22
42.2
48.26
50.72
50.84
49.5
47.23
44.38
41.31
38.41
35.98
34.12
32.77
31.86
31.41
31.62
32.68
34.58
36.93
38.99
39.85
38.8
35.58
30.46
24.18
17.7
11.84
7.04
3.18
-0.4
-4.63
-10.32
-17.73
-26.3
-34.88
-42.13
-47.15
-49.93
-51.36
-52.96
-56.34
-62.56
-71.7
-82.62
-93.01
-99.86
-100.23
-92.2
-75.72
-52.87
-27.32
-3.21
16.23
29.55
37.23
41.03
42.91
44.28
45.56
46.54
46.77
46.13
44.92
43.71
43.01
43.07
43.76
44.79
45.93
47.09
48.3
49.46
50.18
49.78
47.56
43.11
36.67
29.09
21.51
14.97
10.03
6.68
4.36
2.33
-0.16
-3.63
-8.31
-14.07
-20.44
-26.69
-32.12
-36.31
-39.49
-42.44
-46.34
-52.32
-61.05
-72.4
-85.31
-97.85
-107.48
-111.47
-107.68
-95.24
-75.03
-49.61
-22.59
2.42
22.79
37.44
46.73
51.78
53.86
53.8
52.06
48.99
45.14
41.31
38.4
37.08
37.47
39.19
41.52
43.78
45.52
46.71
47.56
48.29
48.96
49.31
48.88
47.13
43.6
38.07
30.68
22.01
13.04
4.95
-1.31
-5.33
-7.5
-8.89
-10.77
-14.06
-18.91
-24.65
-30.23
-34.73
-37.84
-39.99
-42.15
-45.47
-50.94
-59.12
-69.95
-82.4
-94.39
-102.96
-104.97
-98.17
-82.12
-58.68
-31.55
-5.05
17.23
33.4
43.38
48.43
50.15
49.92
48.5
46.27
43.37
40.01
36.47
33.08
30.25
28.36
27.75
28.62
30.87
34.11
37.67
40.72
42.52
42.53
40.57
36.79
31.69
25.97
20.36
15.37
11.1
7.11
2.61
-3.14
-10.38
-18.61
-26.7
-33.31
-37.51
-39.21
-39.23
-39.05
-40.25
-44.03
-50.72
-59.54
-68.56
-75.1
-76.39
-70.48
-57.08
-37.89
-16.19
4.23
20.36
30.89
36.31
38.32
38.76
38.79
38.62
37.79
35.82
32.72
29.07
25.83
23.83
23.49
24.65
26.78
29.13
30.95
31.64
30.84
28.52
25.01
20.84
16.54
12.38
8.27
3.84
-1.23
-6.99
-13.14
-19.15
-24.55
-29.11
-32.94
-36.4
-40.04
-44.52
-50.6
-58.89
-69.46
-81.5
-93.07
-101.42
-103.67
-97.87
-83.67
-62.62
-37.71
-12.46
10.04
27.83
40.24
47.72
51.28
52.11
51.14
49.07
46.38
43.51
40.95
39.12
38.24
38.23
38.78
39.54
40.33
41.32
42.82
45.03
47.64
49.86
50.58
48.85
44.27
37.12
28.32
19.05
10.48
3.33
-2.24
-6.71
-10.97
-15.86
-21.83
-28.62
-35.43
-41.25
-45.47
-48.19
-50.34
-53.32
-58.51
-66.78
-77.96
-90.68
-102.35
-109.59
-109.22
-99.34
-80.18
-54.33
-25.97
0.48
21.77
36.65
45.71
50.63
53.15
54.46
55.05
55.02
54.38
53.23
51.7
49.87
47.78
45.56
43.51
42.04
41.6
42.39
44.26
46.74
49.13
50.65
50.66
48.72
44.76
39.11
32.47
25.71
19.53
14.09
8.98
3.39
-3.35
-11.36
-20.03
-28.27
-35.06
-39.86
-42.9
-44.95
-47.01
-49.97
-54.53
-61.13
-69.9
-80.32
-90.97
-99.5
-103.08
-99.36
-87.38
-68.13
-44.33
-19.53
2.89
20.75
33.27
40.94
45.01
46.84
47.55
47.82
47.93
47.88
47.6
47.02
46.12
44.91
43.48
41.96
40.71
40.13
40.53
41.81
43.4
44.31
43.58
40.71
35.93
30.07
24.06
18.56
13.61
8.76
3.4
-2.89
-10.15
-17.95
-25.58
-32.3
-37.61
-41.49
-44.52
-47.79
-52.56
-59.68
-69.01
-79.0
-86.99
-89.83
-85.11
-72.05
-51.94
-27.87
-3.71
17.01
32.07
40.97
44.71
45.08
43.88
42.31
40.8
39.19
37.19
34.76
32.3
30.55
30.2
31.52
34.2
37.46
40.34
42.0
41.9
39.86
36.0
30.7
24.53
18.07
11.79
5.87
0.17
-5.56
-11.46
-17.41
-23.05
-27.98
-32.11
-35.71
-39.38
-43.85
-49.75
-57.48
-67.08
-77.96
-88.69
-96.93
-99.94
-95.32
-82.09
-61.29
-35.84
-9.66
13.59
31.59
43.68
50.62
53.83
54.74
54.41
53.49
52.39
51.38
50.63
50.07
49.43
48.29
46.38
43.81
41.19
39.41
39.22
40.8
43.41
45.72
46.26
44.11
39.26
32.62
25.47
18.92
13.43
8.76
4.21
-1.07
-7.61
-15.48
-24.16
-32.76
-40.26
-45.91
-49.63
-52.09
-54.66
-58.89
-65.9
-75.77
-87.13
-97.32
-103.08
-101.54
-91.26
-72.88
-49.06
-23.69
-0.69
17.21
29.16
36.09
39.9
42.5
44.99
47.51
49.57
50.65
50.61
49.84
48.97
48.54
48.7
49.23
49.81
50.15
50.21
50.03
49.57
48.65
46.91
44.01
39.83
34.51
28.48
22.29
16.46
11.32
7.02
3.42
0.16
-3.29
-7.47
-12.71
-18.94
-25.61
-31.93
-37.1
-40.76
-43.16
-45.12
-47.67
-51.69
-57.56
-64.99
-73.08
-80.39
-85.11
-85.35
-79.61
-67.28
-49.09
-27.06
-4.03
17.22
34.72
47.76
56.68
62.26
65.12
65.42
63.13
58.46
52.18
45.56
39.88
36.01
34.02
33.39
33.39
33.55
33.82
34.48
35.71
37.34
38.71
38.94
37.29
33.45
27.62
20.38
12.51
4.78
-2.22
-8.16
-13.06
-17.25
-21.15
-25.17
-29.45
-33.77
-37.78
-41.24
-44.29
-47.53
-51.86
-58.08
-66.46
-76.42
-86.47
-94.38
-97.66
-94.24
-83.13
-64.91
-41.68
-16.56
7.15
26.87
41.34
50.59
55.65
57.83
58.25
57.62
56.29
54.52
52.55
50.7
49.16
47.97
47.05
46.35
45.99
46.27
47.5
49.74
52.62
55.34
56.9
56.47
53.72
48.83
42.32
34.77
26.57
17.82
8.44
-1.64
-12.24
-22.83
-32.61
-40.8
-46.97
-51.36
-54.93
-59.07
-65.16
-73.92
-84.93
-96.4
-105.48
-109.04
-104.66
-91.57
-71.06
-46.25
-21.07
0.89
17.41
28.11
34.02
36.84
38.04
38.4
37.97
36.54
34.08
31.08
28.4
26.88
27.02
28.68
31.26
34.01
36.39
38.19
39.39
39.94
39.63
38.16
35.31
31.19
26.24
21.13
16.45
12.61
9.66
7.4
5.4
3.06
-0.19
-4.69
-10.3
-16.34
-21.82
-25.97
-28.72
-30.92
-34.02
-39.52
-48.3
-60.38
-74.82
-89.91
-103.35
-112.48
-114.77
-108.44
-93.24
-70.77
-44.3
-17.84
5.09
22.4
33.73
39.99
42.53
42.6
41.09
38.67
36.0
33.77
32.52
32.46
33.39
34.83
36.29
37.54
38.64
39.89
41.55
43.64
45.69
46.86
46.12
42.71
36.55
28.36
19.54
11.63
5.68
1.85
-0.63
-2.96
-6.26
-10.98
-16.82
-22.97
-28.52
-32.91
-36.12
-38.69
-41.57
-45.81
-52.36
-61.65
-73.28
-85.82
-96.93
-103.73
-103.65
-95.2
-78.55
-55.64
-29.65
-4.11
17.99
34.84
45.99
51.99
53.91
52.86
49.77
45.39
40.46
35.72
31.87
29.39
28.41
28.73
29.93
31.66
33.68
35.92
38.27
40.43
41.88
41.96
40.13
36.15
30.2
22.86
14.91
7.17
0.16
-5.91
-11.22
-16.09
-20.79
-25.34
-29.55
-33.18
-36.27
-39.24
-42.94
-48.28
-55.78
-65.11
-74.84
-82.65
-85.91
-82.41
-71.26
-53.18
-30.48
-6.43
15.69
33.45
45.72
52.74
55.67
55.93
54.68
52.53
49.7
46.22
42.35
38.6
35.57
33.6
32.58
31.98
31.15
29.7
27.69
25.54
23.67
22.19
20.78
18.85
15.84
11.43
5.68
-1.08
-8.4
-15.79
-22.79
-28.97
-34.1
-38.21
-41.77
-45.66
-50.89
-58.36
-68.38
-80.43
-93.03
-103.89
-110.29
-109.79
-100.91
-83.75
-60.12
-33.19
-6.56
16.61
34.37
46.28
53.05
55.99
56.33
54.93
52.22
48.53
44.33
40.35
37.36
35.92
36.06
37.32
38.98
40.51
41.79
43.08
44.72
46.63
48.24
48.54
46.64
42.16
35.48
27.45
19.11
11.21
4.12
-2.22
-8.08
-13.86
-19.81
-26.03
-32.34
-38.3
-43.4
-47.23
-49.88
-51.99
-54.76
-59.58
-67.39
-78.1
-90.19
-100.87
-106.72
-104.75
-93.49
-73.61
-47.83
-20.14
5.47
26.08
40.51
49.16
53.4
54.81
54.61
53.51
51.85
49.86
47.81
45.95
44.34
42.83
41.12
39.07
36.93
35.34
35.05
36.48
39.36
42.76
45.29
45.71
43.31
38.21
31.23
23.55
16.34
10.35
5.67
1.72
-2.47
-7.8
-14.64
-22.56
-30.58
-37.58
-42.83
-46.32
-48.66
-50.87
-54.06
-59.12
-66.62
-76.5
-87.76
-98.39
-105.55
-106.42
-99.21
-83.97
-62.64
-38.37
-14.41
6.77
23.93
36.81
45.8
51.61
55.14
57.45
59.6
62.35
65.93
69.94
73.67
76.39
77.66
77.38
75.8
73.33
70.51
67.88
65.75
64.06
62.3
59.67
55.47
49.43
41.91
33.69
25.53
17.79
10.35
2.71
-5.56
-14.64
-24.35
-34.26
-43.87
-52.75
-60.65
-67.54
-73.78
-80.06
-87.2
-95.53
-104.4
-111.8
-114.84
-110.71
-97.98
-77.37
-51.76
-25.19
-1.54
16.63
28.53
34.86
37.15
37.14
36.29
35.61
35.63
36.45
37.82
39.38
40.9
42.44
44.3
46.84
50.17
53.97
57.53
59.95
60.44
58.53
54.15
47.62
39.67
31.22
23.21
16.29
10.58
5.65
0.71
-4.94
-11.61
-18.97
-26.3
-32.9
-38.53
-43.6
-49.1
-56.29
-66.12
-78.74
-93.12
-106.86
-116.68
-119.25
-112.31
-95.67
-71.49
-43.62
-16.41
6.71
24.02
35.61
42.67
46.66
48.71
49.41
49.1
48.11
46.93
46.1
45.9
46.16
46.34
45.82
44.34
42.26
40.47
39.97
41.29
44.12
47.33
49.38
48.99
45.62
39.63
32.14
24.47
17.75
12.44
8.34
4.59
0.13
-6.03
-14.34
-24.47
-35.4
-45.67
-53.96
-59.57
-62.8
-64.9
-67.78
-73.26
-82.29
-94.3
-106.97
-116.71
-119.7
-113.21
-96.66
-71.92
-42.78
-13.8
11.12
29.71
41.6
48.04
50.98
52.27
53.07
53.79
54.31
54.39
54.03
53.47
53.13
53.32
54.04
55.05
56.02
56.71
57.05
57.05
56.65
55.63
53.73
50.71
46.5
41.23
35.14
28.61
22.1
16.09
11.05
7.15
4.18
1.42
-1.98
-6.74
-13.06
-20.53
-28.38
-35.76
-42.16
-47.49
-52.16
-56.94
-62.86
-70.85
-81.32
-93.61
-105.62
-114.12
-115.67
-107.85
-90.36
-65.34
-36.65
-8.63
15.18
32.82
43.99
49.62
51.19
50.28
48.22
45.98
44.11
42.81
42.02
41.59
41.46
41.68
42.37
43.57
45.24
47.25
49.38
51.3
52.47
52.16
49.68
44.73
37.68
29.58
21.82
15.56
11.24
8.42
6.05
3.02
-1.36
-7.08
-13.5
-19.71
-24.97
-29.0
-32.12
-35.21
-39.46
-46.01
-55.46
-67.53
-80.77
-92.66
-100.16
-100.53
-92.22
-75.47
-52.35
-26.24
-0.79
21.03
37.61
48.75
55.24
58.19
58.42
56.27
51.84
45.39
37.72
30.22
24.47
21.66
22.1
25.09
29.28
33.25
36.03
37.34
37.44
36.76
35.54
33.72
31.01
27.09
21.74
14.89
6.7
-2.44
-11.86
-20.75
-28.4
-34.46
-39.08
-42.96
-47.11
-52.55
-60.03
-69.67
-80.67
-91.26
-98.84
-100.65
-94.67
-80.48
-59.62
-35.16
-10.69
10.84
27.81
39.95
47.85
52.38
54.3
54.24
52.84
50.84
48.9
47.47
46.65
46.2
45.74
44.93
43.65
42.13
40.82
40.23
40.61
41.7
42.67
42.39
39.96
35.18
28.69
21.68
15.28
9.98
5.49
0.97
-4.41
-11.07
-18.85
-27.22
-35.48
-43.07
-49.69
-55.39
-60.67
-66.42
-73.72
-83.25
-94.64
-105.98
-114.11
-115.56
-107.82
-90.5
-65.64
-37.03
-8.89
15.32
33.73
45.95
52.63
54.93
54.15
51.61
48.6
46.2
45.03
45.08
45.83
46.58
46.87
46.7
46.43
46.59
47.54
49.29
51.46
53.39
54.2
53.02
49.21
42.77
34.45
25.58
17.61
11.45
7.11
3.68
-0.11
-5.26
-11.94
-19.48
-26.77
-32.84
-37.29
-40.42
-43.1
-46.54
-52.03
-60.6
-72.53
-86.8
-100.86
-110.96
-113.32
-105.5
-87.51
-62.02
-33.38
-6.12
16.49
33.13
44.21
51.03
54.89
56.7
56.87
55.57
52.98
49.34
45.03
40.57
36.6
33.78
32.62
33.21
35.12
37.54
39.58
40.64
40.56
39.51
37.69
35.08
31.33
26.0
18.82
9.98
0.16
-9.72
-18.71
-26.2
-32.04
-36.61
-40.68
-45.31
-51.45
-59.62
-69.49
-79.69
-87.97
-91.72
-88.78
-78.27
-60.88
-38.89
-15.42
6.41
24.29
37.21
45.41
49.86
51.68
51.61
49.93
46.67
41.99
36.5
31.18
27.04
24.69
24.05
24.53
25.33
25.9
26.06
25.8
24.99
23.21
19.9
14.61
7.43
-1.02
-9.77
-17.87
-24.75
-30.32
-35.0
-39.51
-44.76
-51.64
-60.67
-71.64
-83.22
-93.03
-98.15
-96.08
-85.69
-67.77
-44.8
-20.21
2.77
21.89
36.22
46.0
52.06
55.41
56.82
56.81
55.67
53.65
51.02
48.19
45.58
43.48
41.93
40.68
39.45
38.09
36.72
35.63
35.08
35.01
34.9
33.94
31.32
26.56
19.71
11.3
2.19
-6.7
-14.67
-21.49
-27.46
-33.3
-39.86
-47.8
-57.39
-68.52
-80.62
-92.66
-102.96
-109.29
-109.24
-101.03
-84.32
-60.72
-33.48
-6.54
16.72
34.38
46.2
53.1
56.42
57.34
56.69
55.15
53.37
51.92
51.2
51.19
51.54
51.79
51.68
51.29
51.03
51.38
52.59
54.49
56.43
57.43
56.42
52.63
45.9
36.86
26.79
17.18
9.24
3.37
-0.9
-4.62
-8.84
-14.16
-20.44
-26.98
-32.92
-37.67
-41.28
-44.4
-48.12
-53.67
-61.97
-73.28
-86.85
-100.81
-112.35
-118.33
-116.14
-104.6
-84.48
-58.39
-30.1
-3.4
18.86
35.32
46.0
51.85
54.09
53.9
52.25
50.02
48.05
46.95
46.98
47.9
49.13
50.04
50.34
50.23
50.24
50.97
52.61
54.79
56.54
56.65
54.1
48.55
40.52
31.3
22.46
15.23
10.05
6.42
3.22
-0.73
-6.07
-12.66
-19.71
-26.23
-31.54
-35.59
-38.97
-42.73
-48.0
-55.69
-66.06
-78.49
-91.28
-101.85
-107.31
-105.27
-94.66
-76.21
-52.36
-26.56
-2.25
18.0
33.04
42.99
48.75
51.32
51.41
49.39
45.6
40.66
35.55
31.45
29.28
29.34
31.2
33.97
36.69
38.71
39.86
40.3
40.2
39.57
38.24
35.95
32.41
27.41
20.86
12.86
3.84
-5.43
-13.98
-20.99
-26.1
-29.65
-32.55
-35.9
-40.6
-47.13
-55.5
-65.27
-75.5
-84.66
-90.6
-91.04
-84.26
-70.0
-49.81
-26.64
-3.94
15.58
30.59
41.16
48.19
52.63
55.0
55.46
54.1
51.27
47.67
44.15
41.43
39.83
39.29
39.46
39.88
40.15
40.03
39.44
38.46
37.15
35.48
33.25
30.16
26.0
20.83
15.05
9.23
3.9
-0.82
-5.26
-9.98
-15.45
-21.66
-28.19
-34.39
-39.85
-44.61
-49.27
-54.62
-61.47
-70.27
-80.92
-92.58
-103.49
-111.15
-112.74
-106.14
-90.67
-67.75
-40.53
-12.97
11.43
30.56
43.94
52.25
56.59
57.95
57.01
54.35
50.69
46.94
44.0
42.49
42.53
43.76
45.56
47.37
48.88
50.1
51.23
52.47
53.83
55.01
55.49
54.66
52.01
47.17
40.15
31.36
21.65
12.16
4.03
-2.03
-6.07
-8.9
-11.81
-15.88
-21.59
-28.51
-35.63
-41.83
-46.47
-49.63
-52.1
-55.09
-59.89
-67.55
-78.48
-92.03
-106.1
-117.42
-122.22
-117.53
-102.35
-78.22
-48.81
-18.67
8.18
29.32
44.2
53.57
58.8
61.22
61.75
60.89
58.87
55.82
51.96
47.73
43.79
40.88
39.55
39.93
41.72
44.3
47.05
49.5
51.41
52.59
52.77
51.59
48.73
44.09
37.98
31.04
24.04
17.61
11.98
7.02
2.29
-2.66
-8.08
-13.9
-19.79
-25.27
-29.96
-33.66
-36.44
-38.6
-40.58
-42.9
-46.15
-50.92
-57.78
-67.02
-78.3
-90.3
-100.61
-106.18
-104.22
-93.34
-74.28
-49.84
-23.97
-0.38
18.61
32.44
41.86
48.08
51.96
53.78
53.48
51.13
47.25
42.74
38.54
35.36
33.49
32.92
33.44
34.89
37.03
39.49
41.69
42.86
42.37
39.93
35.75
30.46
24.89
19.69
15.13
11.11
7.21
2.97
-1.96
-7.64
-13.87
-20.19
-26.06
-31.0
-34.81
-37.77
-40.73
-44.88
-51.5
-61.25
-73.7
-86.93
-97.81
-102.81
-99.18
-86.05
-64.87
-39.04
-12.71
10.47
28.34
40.49
47.74
51.45
52.8
52.46
50.61
47.2
42.28
36.14
29.46
23.19
18.39
15.89
16.05
18.56
22.57
26.91
30.5
32.6
32.95
31.63
28.91
25.04
20.18
14.46
8.02
1.13
-5.91
-12.85
-19.6
-26.26
-33.01
-39.87
-46.74
-53.41
-59.87
-66.41
-73.54
-81.43
-89.42
-95.71
-97.7
-92.94
-80.19
-60.2
-35.54
-9.8
13.66
32.57
46.06
54.29
57.88
57.47
53.65
47.18
39.15
31.04
24.27
19.86
18.06
18.38
19.92
21.78
23.43
24.83
26.21
27.81
29.55
30.93
31.02
28.77
23.36
14.59
3.14
-9.53
-21.53
-31.23
-37.92
-42.01
-45.01
-48.88
-55.3
-64.94
-77.05
-89.41
-98.89
-102.24
-97.14
-82.98
-61.17
-34.77
-7.7
16.38
35.0
47.22
53.62
55.63
54.96
53.02
50.63
48.04
45.22
42.11
38.88
35.93
33.74
32.58
32.37
32.77
33.37
33.94
34.37
34.54
34.06
32.2
28.17
21.51
12.41
1.8
-8.88
-18.28
-25.57
-30.67
-34.32
-37.65
-41.91
-48.16
-57.02
-68.47
-81.51
-94.11
-103.32
-106.07
-100.16
-85.24
-63.11
-37.23
-11.52
10.9
28.48
41.26
50.18
56.31
60.35
62.53
63.0
62.02
60.1
57.77
55.48
53.4
51.58
50.05
48.94
48.34
48.29
48.55
48.72
48.34
47.01
44.56
41.02
36.58
31.53
26.11
20.54
14.89
9.06
2.85
-3.98
-11.5
-19.46
-27.34
-34.5
-40.51
-45.5
-50.21
-55.85
-63.63
-74.35
-87.8
-102.56
-115.99
-124.75
-125.7
-116.9
-98.42
-72.4
-42.57
-13.06
12.75
32.96
47.28
56.55
62.02
64.8
65.53
64.56
62.22
59.07
55.89
53.47
52.3
52.37
53.21
54.16
54.77
54.99
55.21
55.88
57.18
58.68
59.51
58.62
55.26
49.22
40.93
31.29
21.38
12.2
4.4
-1.88
-7.0
-11.67
-16.64
-22.32
-28.64
-35.04
-40.79
-45.42
-49.01
-52.31
-56.44
-62.6
-71.56
-83.32
-96.84
-109.93
-119.61
-122.69
-116.78
-101.17
-77.26
-48.29
-18.44
8.41
29.65
44.41
53.29
57.73
59.32
59.26
58.34
56.99
55.52
54.15
52.97
51.84
50.46
48.59
46.27
44.01
42.65
42.92
44.94
47.98
50.63
51.31
49.03
43.82
36.67
29.02
22.08
16.39
11.67
7.18
2.1
-4.06
-11.39
-19.55
-27.97
-35.94
-42.88
-48.5
-53.03
-57.29
-62.5
-69.69
-79.0
-89.14
-97.43
-100.5
-95.57
-81.62
-59.92
-33.66
-6.97
16.42
34.14
45.52
51.3
53.05
52.32
50.29
47.52
44.18
40.32
36.19
32.36
29.56
28.49
29.4
31.98
35.47
38.88
41.4
42.52
42.04
39.92
36.28
31.31
25.34
18.75
11.88
4.95
-1.99
-8.91
-15.7
-22.03
-27.56
-32.09
-35.83
-39.42
-43.81
-49.99
-58.69
-70.0
-83.08
-96.0
-105.82
-109.27
-103.77
-88.49
-64.95
-36.65
-8.03
17.07
36.38
49.54
57.57
61.97
63.98
64.32
63.29
61.1
58.03
54.42
50.64
47.03
43.92
41.61
40.38
40.37
41.53
43.59
46.11
48.56
50.33
50.79
49.41
45.85
40.2
33.01
25.21
17.75
11.23
5.55
0.01
-6.25
-13.76
-22.3
-31.02
-38.78
-44.81
-49.03
-52.05
-55.0
-59.01
-65.08
-73.78
-85.09
-98.09
-110.7
-119.85
-122.22
-115.39
-98.91
-74.68
-46.4
-18.28
6.37
25.87
40.13
50.02
56.58
60.55
62.36
62.37
61.08
59.16
57.29
55.93
55.3
55.31
55.68
56.0
55.87
55.12
53.91
52.63
51.74
51.47
51.55
51.25
49.61
45.92
40.04
32.51
24.33
16.63
10.22
5.35
1.69
-1.51
-5.13
-9.99
-16.54
-24.73
-33.95
-43.16
-51.21
-57.27
-61.22
-63.75
-66.26
-70.39
-77.48
-87.9
-100.67
-113.25
-122.12
-123.65
-115.3
-96.63
-69.62
-38.13
-6.83
20.3
40.91
54.73
63.11
68.22
72.02
75.69
79.42
82.62
84.53
84.61
82.82
79.61
75.58
71.28
66.99
62.88
59.08
55.82
53.17
50.88
48.21
44.19
38.04
29.67
19.78
9.69
0.84
-5.84
-10.2
-12.88
-15.01
-17.72
-21.7
-27.05
-33.27
-39.51
-44.96
-49.2
-52.42
-55.4
-59.29
-65.21
-73.81
-84.99
-97.63
-109.63
-118.13
-120.19
-113.56
-97.56
-73.5
-44.5
-14.66
12.14
33.27
47.83
56.36
60.18
60.61
58.51
54.4
48.76
42.34
36.16
31.28
28.39
27.63
28.63
30.77
33.47
36.27
38.9
41.01
42.22
42.13
40.43
37.07
32.15
25.87
18.42
9.94
0.68
-8.87
-18.02
-26.07
-32.55
-37.48
-41.32
-44.8
-48.69
-53.59
-59.95
-68.1
-78.05
-89.14
-99.74
-107.24
-108.64
-101.59
-85.41
-61.54
-33.27
-4.62
20.81
40.76
54.58
62.87
66.87
67.85
66.85
64.54
61.4
57.8
54.05
50.36
46.86
43.58
40.56
37.97
36.16
35.59
36.58
38.97
42.06
44.69
45.62
44.04
39.83
33.62
26.45
19.41
13.16
7.75
2.65
-3.05
-10.07
-18.62
-28.13
-37.48
-45.47
-51.39
-55.32
-58.15
-61.19
-65.72
-72.64
-82.23
-93.87
-105.94
-115.79
-120.21
-116.35
-102.8
-80.4
-52.14
-22.27
5.15
27.39
43.5
54.03
60.2
63.22
63.99
63.18
61.35
59.12
57.05
55.47
54.48
53.86
53.21
52.17
50.59
48.69
47.09
46.44
47.15
48.94
50.87
51.56
49.84
45.23
38.17
29.83
21.54
14.38
8.71
4.17
-0.07
-5.04
-11.46
-19.49
-28.56
-37.59
-45.34
-50.99
-54.44
-56.39
-58.14
-61.11
-66.5
-74.94
-86.27
-99.23
-111.43
-119.63
-120.49
-111.72
-93.08
-66.62
-36.14
-5.99
20.28
40.66
54.8
63.44
67.72
68.76
67.51
64.73
61.17
57.48
54.07
51.09
48.4
45.76
43.06
40.53
38.72
38.28
39.63
42.56
46.21
49.21
50.23
48.43
43.8
37.12
29.56
22.35
16.21
11.23
6.81
2.0
-4.13
-11.92
-20.95
-30.19
-38.37
-44.57
-48.61
-51.09
-53.11
-55.94
-60.65
-67.89
-77.69
-89.11
-100.12
-107.75
-108.83
-101.04
-83.95
-59.33
-30.75
-2.37
22.24
41.03
53.55
60.57
63.37
63.2
61.02
57.51
53.14
48.34
43.52
39.06
35.28
32.42
30.61
29.85
30.07
31.15
32.81
34.61
35.95
36.17
34.8
31.72
27.19
21.72
15.75
9.47
2.89
-4.14
-11.64
-19.49
-27.4
-35.1
-42.36
-49.12
-55.51
-61.99
-69.3
-78.19
-88.89
-100.46
-110.49
-115.56
-112.32
-98.94
-76.03
-46.68
-15.46
13.07
35.72
51.26
60.2
64.08
64.61
63.16
60.6
57.43
53.97
50.57
47.55
45.23
43.79
43.22
43.4
44.15
45.41
47.11
49.13
50.99
51.87
50.8
47.06
40.62
32.23
23.22
14.93
8.23
3.22
-0.7
-4.53
-9.18
-15.13
-22.27
-30.03
-37.56
-44.13
-49.35
-53.37
-56.95
-61.32
-67.93
-77.91
-91.42
-107.07
-121.82
-131.56
-132.23
-121.41
-99.28
-68.76
-34.66
-2.01
25.39
45.74
59.17
66.98
70.76
71.78
70.86
68.43
64.82
60.4
55.63
51.1
47.35
44.8
43.59
43.63
44.59
46.17
48.11
50.26
52.39
54.05
54.57
53.19
49.41
43.28
35.51
27.28
19.78
13.71
8.87
4.35
-1.07
-8.28
-17.3
-27.17
-36.39
-43.61
-48.25
-50.7
-52.18
-54.22
-58.17
-64.94
-74.87
-87.57
-101.69
-114.75
-123.36
-124.04
-114.5
-94.64
-66.97
-35.86
-6.12
18.63
36.82
48.88
56.39
60.98
63.66
64.75
64.23
62.22
59.23
56.0
53.26
51.47
50.69
50.66
51.06
51.7
52.56
53.76
55.25
56.65
57.1
55.59
51.37
44.42
35.56
26.23
17.98
11.8
7.84
5.35
3.11
-0.1
-5.03
-11.73
-19.61
-27.71
-35.03
-40.88
-45.14
-48.32
-51.44
-55.95
-63.24
-74.2
-88.54
-104.32
-118.05
-125.45
-122.86
-108.65
-84.04
-52.83
-20.11
9.42
32.75
49.0
58.99
64.25
66.27
66.03
64.15
61.01
56.95
52.3
47.33
42.3
37.57
33.63
31.07
30.42
31.87
35.05
39.05
42.65
44.68
44.42
41.75
37.14
31.4
25.29
19.33
13.65
8.11
2.42
-3.7
-10.43
-17.83
-25.79
-33.99
-41.98
-49.26
-55.6
-61.29
-67.13
-74.16
-82.9
-92.67
-101.22
-105.3
-101.67
-88.62
-66.74
-38.94
-9.47
17.55
39.27
54.59
63.83
68.02
68.22
65.31
60.12
53.58
46.82
40.91
36.64
34.22
33.44
33.83
34.97
36.57
38.47
40.45
42.09
42.89
42.38
40.35
36.84
32.12
26.4
19.8
12.33
4.05
-4.79
-13.72
-22.12
-29.5
-35.6
-40.56
-44.8
-48.92
-53.59
-59.48
-67.24
-77.3
-89.49
-102.58
-114.12
-120.8
-119.42
-108.26
-87.82
-60.93
-31.8
-4.51
18.21
35.48
47.8
56.26
61.72
64.6
65.11
63.71
61.17
58.47
56.3
54.94
54.17
53.52
52.59
51.23
49.56
47.94
46.77
46.32
46.47
46.69
46.09
43.79
39.28
32.7
24.97
17.28
10.67
5.49
1.28
-2.93
-8.12
-14.71
-22.51
-30.85
-38.97
-46.31
-52.73
-58.49
-64.2
-70.75
-79.02
-89.52
-101.71
-113.64
-122.03
-123.21
-114.44
-95.22
-67.72
-36.16
-5.31
21.04
40.99
54.45
62.43
66.17
66.7
64.86
61.55
57.82
54.74
53.02
52.74
53.41
54.27
54.71
54.52
53.94
53.4
53.38
54.02
55.16
56.22
56.37
54.64
50.32
43.17
33.65
22.9
12.5
3.82
-2.42
-6.47
-9.45
-12.75
-17.44
-23.71
-30.85
-37.69
-43.22
-47.06
-49.71
-52.3
-56.22
-62.57
-71.95
-84.01
-97.31
-109.33
-116.79
-116.52
-106.48
-86.63
-59.2
-28.16
1.99
27.55
46.45
58.45
64.68
66.74
66.12
63.77
60.22
55.83
51.04
46.44
42.67
40.16
38.94
38.61
38.54
38.17
37.27
36.04
34.9
34.15
33.7
33.03
31.39
28.16
23.09
16.43
8.75
0.8
-6.77
-13.56
-19.39
-24.28
-28.56
-32.78
-37.76
-44.37
-53.27
-64.62
-77.61
-90.42
-100.31
-104.21
-99.68
-85.81
-63.75
-36.52
-8.22
17.26
37.3
51.05
59.21
63.26
64.66
64.29
62.37
58.8
53.55
46.97
39.84
33.22
28.16
25.37
24.95
26.44
28.89
31.32
32.92
33.39
32.75
31.14
28.51
24.54
18.8
11.1
1.82
-8.13
-17.59
-25.61
-31.97
-37.26
-42.61
-49.21
-57.81
-68.57
-81.0
-94.09
-106.27
-115.41
-119.03
-114.83
-101.54
-79.68
-51.73
-21.53
6.88
30.43
47.68
58.74
64.59
66.44
65.38
62.39
58.49
54.71
51.86
50.24
49.59
49.26
48.69
47.7
46.61
45.98
46.23
47.37
48.85
49.79
49.25
46.51
41.32
33.95
25.15
15.95
7.34
-0.09
-6.3
-11.78
-17.25
-23.22
-29.7
-36.23
-42.07
-46.72
-50.21
-53.28
-57.21
-63.41
-72.86
-85.52
-99.93
-113.13
-121.24
-120.58
-109.03
-87.04
-57.69
-25.75
3.91
27.86
44.85
55.55
61.68
64.91
66.32
66.41
65.39
63.57
61.38
59.19
57.16
55.18
53.06
50.77
48.62
47.1
46.74
47.81
50.04
52.74
54.89
55.4
53.48
48.84
41.87
33.51
25.02
17.58
11.79
7.47
3.67
-0.86
-7.1
-15.25
-24.6
-33.79
-41.47
-46.83
-49.98
-51.87
-53.87
-57.38
-63.46
-72.61
-84.59
-98.13
-110.82
-119.41
-120.58
-112.11
-93.9
-68.2
-38.97
-10.53
13.72
32.14
44.73
52.48
56.65
58.25
57.99
56.43
54.09
51.46
48.92
46.68
44.8
43.29
42.12
41.31
40.91
40.98
41.51
42.33
43.03
43.01
41.62
38.43
33.53
27.47
21.04
14.9
9.26
3.84
-1.87
-8.26
-15.41
-22.96
-30.37
-37.19
-43.22
-48.69
-54.26
-60.85
-69.26
-79.64
-90.92
-100.68
-105.57
-102.49
-89.82
-68.31
-41.01
-12.29
13.56
33.68
47.14
54.73
58.14
59.05
58.61
57.28
55.09
52.07
48.49
44.95
42.16
40.68
40.6
41.63
43.21
44.85
46.27
47.32
47.76
47.21
45.13
41.12
35.17
27.8
19.89
12.45
6.18
1.28
-2.6
-6.14
-10.15
-15.23
-21.55
-28.82
-36.4
-43.59
-49.95
-55.49
-60.7
-66.41
-73.54
-82.84
-94.42
-107.36
-119.45
-127.39
-127.62
-117.58
-96.93
-67.97
-35.13
-3.47
22.9
41.9
53.58
59.45
61.45
61.28
60.05
58.42
56.72
55.14
53.77
52.61
51.69
51.08
50.9
51.24
52.08
53.28
54.63
55.9
56.8
56.87
55.56
52.32
46.91
39.61
31.19
22.72
15.17
9.1
4.57
1.13
-1.88
-5.19
-9.36
-14.64
-20.91
-27.72
-34.38
-40.29
-45.21
-49.35
-53.33
-57.98
-64.07
-72.21
-82.67
-95.0
-107.8
-118.48
-123.68
-120.19
-106.26
-82.52
-52.14
-19.82
9.71
33.19
49.4
58.92
63.32
64.18
62.76
59.9
56.32
52.71
49.65
47.52
46.35
45.91
45.92
46.19
46.68
47.48
48.66
50.15
51.68
52.7
52.47
50.31
45.88
39.34
31.45
23.31
16.02
10.29
6.24
3.44
1.1
-1.64
-5.42
-10.51
-16.74
-23.53
-30.15
-35.97
-40.78
-44.93
-49.23
-54.65
-61.94
-71.42
-82.73
-94.66
-105.17
-111.53
-110.99
-101.65
-83.25
-57.69
-28.52
0.02
24.36
42.5
54.25
60.64
63.08
62.66
59.88
55.0
48.44
41.05
34.09
28.8
26.0
25.8
27.67
30.69
33.97
36.88
39.06
40.29
40.43
39.28
36.71
32.77
27.67
21.66
14.93
7.52
-0.57
-9.15
-17.79
-25.86
-32.71
-38.03
-41.93
-44.98
-47.96
-51.71
-56.92
-64.04
-73.09
-83.27
-92.77
-98.92
-98.8
-90.36
-73.36
-49.65
-22.68
3.68
26.33
43.6
55.27
62.06
65.0
65.03
62.98
59.58
55.54
51.53
47.97
45.01
42.51
40.21
37.9
35.66
33.88
33.14
33.8
35.74
38.14
39.65
39.01
35.54
29.52
22.07
14.59
8.15
3.05
-1.22
-5.62
-11.05
-17.96
-26.15
-34.91
-43.24
-50.24
-55.49
-59.24
-62.46
-66.56
-72.96
-82.39
-94.22
-106.2
-114.79
-116.18
-107.61
-88.61
-61.32
-29.95
0.56
26.12
44.54
55.76
61.28
63.12
63.02
61.98
60.38
58.3
55.87
53.4
51.24
49.64
48.61
47.98
47.54
47.22
47.18
47.56
48.32
49.01
48.91
47.24
43.5
37.71
30.37
22.35
14.61
7.87
2.46
-1.84
-5.68
-9.92
-15.23
-21.77
-29.03
-36.12
-42.17
-46.83
-50.53
-54.26
-59.19
-66.29
-75.97
-87.94
-101.0
-112.97
-120.87
-121.52
-112.53
-93.43
-66.13
-34.59
-3.58
22.8
42.22
54.36
60.34
61.86
60.51
57.56
53.96
50.5
47.73
45.87
44.78
44.11
43.52
42.96
42.61
42.85
43.95
45.91
48.32
50.39
51.05
49.31
44.6
37.1
27.83
18.36
10.23
4.29
0.35
-2.66
-6.13
-11.07
-17.62
-25.1
-32.31
-38.24
-42.43
-45.18
-47.48
-50.68
-56.16
-64.89
-76.91
-90.92
-104.19
-112.97
-113.62
-103.85
-83.74
-55.93
-24.84
4.78
29.24
46.81
57.67
63.2
65.05
64.45
61.97
57.68
51.64
44.26
36.44
29.45
24.55
22.53
23.43
26.54
30.65
34.53
37.3
38.56
38.37
36.94
34.45
30.9
26.2
20.27
13.07
4.69
-4.6
-14.37
-24.0
-32.75
-39.97
-45.34
-49.1
-52.07
-55.53
-60.86
-68.99
-79.79
-91.75
-102.04
-107.14
-103.99
-91.04
-69.05
-40.93
-10.95
16.52
38.27
52.83
60.53
62.89
61.87
59.22
56.1
53.12
50.46
48.11
46.0
44.15
42.58
41.35
40.56
40.33
40.91
42.5
45.07
48.09
50.48
50.86
48.09
41.83
32.82
22.65
13.15
5.65
0.47
-3.13
-6.46
-10.82
-16.88
-24.49
-32.82
-40.75
-47.33
-52.16
-55.51
-58.33
-62.1
-68.48
-78.65
-92.63
-108.7
-123.34
-132.03
-130.71
-117.32
-92.73
-60.62
-26.26
5.34
30.77
48.87
60.37
66.91
70.18
71.32
70.91
69.13
66.07
61.95
57.21
52.49
48.51
45.88
44.83
45.25
46.69
48.69
50.86
52.99
54.86
56.11
56.11
54.16
49.83
43.21
35.05
26.48
18.56
11.79
6.0
0.42
-5.81
-13.18
-21.61
-30.41
-38.66
-45.57
-50.77
-54.38
-57.03
-59.6
-63.13
-68.68
-77.01
-88.26
-101.45
-114.34
-123.62
-125.81
-118.36
-100.64
-74.41
-43.34
-11.94
15.83
37.48
52.36
61.3
65.8
67.42
67.26
65.96
63.88
61.29
58.51
55.83
53.41
51.19
49.01
46.78
44.73
43.38
43.36
44.97
47.82
50.84
52.54
51.62
47.54
40.7
32.35
24.05
17.06
11.92
8.23
4.84
0.4
-6.14
-14.93
-25.11
-35.15
-43.46
-49.08
-52.15
-53.82
-55.82
-59.85
-67.0
-77.33
-89.68
-101.67
-110.08
-111.58
-103.73
-85.94
-60.03
-29.85
-0.17
24.83
42.73
53.34
58.17
59.39
58.82
57.4
55.26
52.19
48.15
43.52
39.04
35.49
33.48
33.23
34.55
37.01
40.04
43.04
45.39
46.44
45.61
42.48
37.01
29.6
21.09
12.42
4.37
-2.75
-9.09
-15.06
-21.03
-27.08
-32.99
-38.46
-43.38
-48.07
-53.26
-59.85
-68.57
-79.52
-91.74
-103.15
-110.81
-111.68
-103.61
-86.25
-61.36
-32.36
-3.32
22.22
42.1
55.75
63.86
67.64
68.36
66.95
64.12
60.44
56.5
52.87
50.03
48.24
47.38
47.07
46.8
46.2
45.25
44.27
43.67
43.63
43.83
43.46
41.59
37.6
31.59
24.34
16.98
10.42
4.95
0.13
-4.9
-10.95
-18.22
-26.26
-34.14
-40.95
-46.32
-50.65
-55.04
-60.9
-69.44
-81.18
-95.62
-111.02
-124.49
-132.53
-131.89
-120.62
-98.94
-69.45
-36.4
-4.51
22.47
42.66
56.04
63.95
68.11
69.97
70.32
69.46
67.4
64.17
60.0
55.39
51.05
47.69
45.79
45.44
46.38
48.15
50.32
52.61
54.79
56.47
57.04
55.75
52.01
45.81
37.83
29.28
21.38
14.85
9.51
4.45
-1.56
-9.29
-18.72
-28.88
-38.37
-45.95
-51.05
-54.01
-55.84
-57.85
-61.34
-67.31
-76.31
-88.16
-101.55
-113.9
-121.62
-121.18
-110.36
-89.39
-61.13
-30.16
-1.22
22.34
39.33
50.42
57.18
61.08
62.93
62.94
61.27
58.31
54.82
51.57
49.07
47.41
46.34
45.62
45.24
45.4
46.33
47.95
49.7
50.68
49.98
47.04
41.94
35.37
28.33
21.76
16.23
11.75
7.89
3.9
-0.92
-6.98
-14.16
-21.92
-29.36
-35.67
-40.44
-43.91
-47.04
-51.28
-58.15
-68.57
-82.26
-97.24
-110.05
-116.54
-113.29
-98.94
-74.87
-44.89
-13.9
13.69
35.22
50.07
59.18
64.04
65.92
65.48
62.93
58.39
52.19
44.93
37.52
31.0
26.32
24.13
24.55
27.06
30.61
34.01
36.28
37.0
36.28
34.48
31.85
28.35
23.68
17.57
10.09
1.69
-6.94
-15.2
-22.79
-29.73
-36.24
-42.55
-48.85
-55.47
-62.9
-71.66
-81.85
-92.52
-101.46
-105.52
-101.72
-88.48
-66.51
-38.71
-9.28
17.73
39.56
55.17
64.83
69.49
70.08
67.47
62.54
56.42
50.42
45.7
42.88
41.9
42.17
42.98
43.87
44.82
46.17
48.26
51.22
54.68
57.89
59.83
59.53
56.37
50.31
42.04
32.79
24.01
16.83
11.74
8.41
5.93
3.25
-0.37
-5.13
-10.75
-16.69
-22.46
-27.84
-32.85
-37.75
-42.77
-48.05
-53.42
-58.52
-62.88
-66.22
-68.65
-70.81
-73.83
-78.97
-87.1
-98.16
-110.69
-121.81
-127.95
-125.87
-113.91
-92.77
-65.29
-35.56
-7.49
16.26
34.72
48.15
57.41
63.24
66.12
66.42
64.68
61.77
58.61
55.99
54.26
53.37
52.98
52.65
52.05
51.09
49.87
48.73
47.97
47.72
47.72
47.36
45.81
42.46
37.16
30.42
23.2
16.54
11.06
6.64
2.54
-2.23
-8.38
-15.93
-24.23
-32.32
-39.42
-45.32
-50.41
-55.52
-61.54
-69.21
-78.88
-90.43
-102.93
-114.47
-122.24
-123.13
-114.73
-96.46
-70.05
-39.25
-8.6
18.01
38.36
52.17
60.45
64.7
66.04
65.09
62.18
57.74
52.54
47.6
43.8
41.62
40.96
41.32
42.15
43.15
44.31
45.76
47.45
48.92
49.42
48.17
44.82
39.57
33.16
26.39
19.74
13.15
6.2
-1.56
-10.1
-18.9
-27.05
-33.72
-38.57
-41.91
-44.55
-47.56
-51.99
-58.63
-67.79
-79.06
-90.99
-100.99
-105.81
-102.48
-89.52
-67.81
-40.55
-12.3
12.62
31.48
43.78
50.8
54.53
56.6
57.63
57.4
55.38
51.42
46.07
40.43
35.74
32.85
32.05
33.0
35.04
37.4
39.39
40.46
40.21
38.31
34.71
29.56
23.26
16.32
9.15
2.0
-5.08
-12.06
-18.85
-25.17
-30.75
-35.56
-39.9
-44.48
-50.17
-57.73
-67.45
-78.91
-90.77
-100.86
-106.57
-105.42
-95.87
-77.97
-53.53
-25.78
1.56
25.25
43.34
55.35
62.04
64.78
64.98
63.66
61.46
58.75
55.79
52.83
50.09
47.66
45.46
43.37
41.43
39.93
39.29
39.83
41.37
43.15
44.0
42.81
39.06
33.04
25.71
18.22
11.37
5.33
-0.33
-6.26
-12.87
-20.15
-27.71
-35.02
-41.79
-48.15
-54.49
-61.42
-69.45
-78.94
-89.89
-101.74
-113.07
-121.54
-124.26
-118.62
-103.4
-79.52
-50.0
-19.13
9.01
31.69
48.08
58.92
65.61
69.38
70.86
70.16
67.35
62.87
57.67
52.93
49.69
48.4
48.79
50.13
51.59
52.68
53.38
54.02
54.82
55.67
55.94
54.79
51.55
46.06
38.83
30.78
22.82
15.51
8.84
2.39
-4.35
-11.71
-19.55
-27.4
-34.64
-40.77
-45.62
-49.47
-52.95
-56.92
-62.34
-70.0
-80.28
-92.58
-105.17
-115.19
-119.37
-115.13
-101.57
-79.94
-53.29
-25.48
0.09
21.28
37.38
48.76
56.15
60.33
61.86
61.29
59.2
56.28
53.16
50.34
48.15
46.72
46.03
45.91
46.11
46.44
46.74
46.97
47.08
46.87
45.93
43.77
40.04
34.78
28.48
21.92
15.77
10.31
5.31
0.19
-5.56
-12.09
-19.08
-25.98
-32.33
-38.01
-43.32
-48.84
-55.24
-63.11
-72.7
-83.59
-94.38
-102.66
-105.43
-100.05
-85.31
-62.2
-33.8
-4.37
22.01
42.59
56.4
63.95
66.52
65.49
62.05
57.14
51.62
46.3
41.85
38.66
36.78
36.03
36.11
36.87
38.23
40.27
42.99
46.05
48.77
50.06
48.83
44.39
36.91
27.46
17.72
9.26
2.92
-1.54
-5.19
-9.36
-14.92
-21.94
-29.7
-37.13
-43.4
-48.2
-51.93
-55.44
-59.96
-66.74
-76.67
-89.76
-104.59
-118.22
-126.67
-126.22
-114.72
-92.7
-63.27
-31.16
-1.11
23.59
41.63
53.57
60.81
64.86
66.73
66.92
65.61
63.0
59.4
55.32
51.41
48.29
46.41
45.89
46.51
47.85
49.45
51.05
52.54
53.87
54.74
54.58
52.72
48.65
42.36
34.37
25.59
16.93
9.05
2.19
-3.78
-9.24
-14.66
-20.4
-26.6
-33.12
-39.53
-45.24
-49.83
-53.24
-55.96
-59.01
-63.65
-70.94
-81.24
-93.7
-106.2
-115.62
-118.67
-112.89
-97.54
-73.99
-45.39
-15.71
11.38
33.38
49.25
59.25
64.37
65.87
64.92
62.48
59.36
56.21
53.45
51.25
49.48
47.77
45.71
43.16
40.45
38.31
37.59
38.75
41.5
44.78
47.1
47.09
44.1
38.45
31.22
23.78
17.22
11.98
7.71
3.55
-1.52
-8.15
-16.33
-25.38
-34.15
-41.55
-47.04
-50.88
-53.99
-57.71
-63.25
-71.34
-81.88
-93.69
-104.52
-111.38
-111.31
-102.39
-84.59
-60.0
-32.24
-5.27
17.8
35.47
47.74
55.49
59.78
61.33
60.58
57.86
53.68
48.74
43.83
39.64
36.57
34.67
33.69
33.22
32.81
32.29
31.75
31.44
31.51
31.78
31.68
30.45
27.41
22.31
15.41
7.36
-0.98
-8.86
-15.81
-21.7
-26.83
-31.79
-37.35
-44.26
-53.02
-63.72
-75.88
-88.29
-98.95
-105.35
-104.95
-96.02
-78.36
-53.68
-25.29
2.85
27.26
45.84
58.12
64.85
67.25
66.45
63.23
58.18
51.97
45.42
39.39
34.58
31.36
29.75
29.58
30.62
32.59
35.11
37.66
39.57
40.19
39.03
35.9
30.92
24.42
16.85
8.66
0.26
-8.01
-15.9
-23.23
-29.9
-35.87
-41.18
-45.93
-50.46
-55.31
-61.31
-69.28
-79.7
-92.19
-105.09
-115.57
-120.18
-115.97
-101.59
-78.02
-48.39
-17.09
11.61
34.74
51.17
61.38
66.79
68.93
68.95
67.51
65.02
61.83
58.33
54.88
51.63
48.5
45.35
42.22
39.48
37.73
37.53
38.97
41.4
43.62
44.3
42.56
38.31
32.25
25.42
18.64
12.23
5.95
-0.65
-7.9
-15.73
-23.76
-31.54
-38.74
-45.37
-51.63
-57.87
-64.51
-72.03
-80.91
-91.3
-102.51
-112.63
-118.72
-117.52
-106.81
-86.5
-58.93
-28.3
0.82
24.94
42.49
53.72
59.95
62.57
62.55
60.38
56.45
51.4
46.16
41.71
38.75
37.48
37.6
38.62
40.12
41.92
43.96
46.14
48.12
49.3
49.08
47.12
43.52
38.72
33.18
27.15
20.5
12.92
4.25
-5.19
-14.66
-23.21
-30.16
-35.42
-39.53
-43.44
-48.22
-54.66
-63.22
-73.78
-85.47
-96.49
-104.19
-105.63
-98.54
-82.44
-59.09
-32.11
-5.81
16.37
32.79
43.73
50.59
54.87
57.33
57.98
56.41
52.55
46.96
40.8
35.44
31.87
30.47
30.86
32.25
33.8
34.88
35.21
34.79
33.69
31.89
29.2
25.39
20.25
13.79
6.31
-1.72
-9.66
-16.94
-23.19
-28.4
-33.01
-37.75
-43.54
-51.21
-61.19
-73.3
-86.45
-98.61
-106.96
-108.57
-101.26
-84.53
-59.99
-31.07
-2.01
23.43
42.93
56.01
63.59
67.2
68.2
67.45
65.34
62.1
58.08
53.78
49.7
46.17
43.31
41.04
39.34
38.3
38.11
38.84
40.24
41.67
42.2
41.02
37.72
32.5
25.98
18.88
11.66
4.45
-2.87
-10.42
-18.12
-25.71
-32.95
-39.76
