2013-02-25 15:14:19
64.0
-0.0
-0.0
-0.0
-0.0
-0.0
-0.0
-0.0
-0.0
-0.0
-0.0
0.0
0.01
0.01
-0.0
-0.03
-0.05
-0.05
0.0
0.13
0.36
0.66
1.01
1.37
1.72
2.06
2.4
2.79
3.24
3.8
4.42
5.06
5.66
6.2
6.68
7.15
7.68
8.31
9.14
10.09
11.04
11.88
12.56
13.14
13.76
14.65
15.96
17.91
20.32
22.9
25.38
27.58
29.57
31.68
34.32
37.81
42.54
48.15
54.1
59.83
64.97
69.58
74.14
79.34
85.71
93.76
103.0
112.62
121.73
129.77
136.75
143.3
150.75
157.77
166.64
177.95
191.79
206.97
220.57
228.25
225.36
208.53
176.87
132.76
80.05
23.07
-34.94
-92.44
-149.16
-205.23
-260.37
-313.74
-363.87
-409.83
-450.91
-486.5
-515.74
-537.23
-549.22
-549.96
-538.37
-514.21
-478.67
-433.88
-382.45
-327.02
-269.84
-212.63
-156.66
-102.95
-52.37
-5.9
35.58
71.43
101.35
125.5
144.38
158.69
169.15
176.37
180.75
182.57
182.07
179.51
175.23
169.65
163.18
156.15
148.81
141.3
133.69
126.02
118.33
110.69
103.16
95.81
88.69
81.83
75.25
68.95
62.95
57.25
51.86
46.8
42.05
37.61
33.45
29.57
25.96
22.63
19.58
16.81
14.33
12.12
10.17
8.44
6.91
5.57
4.42
3.45
2.64
2.0
1.47
1.02
0.62
0.23
-0.15
-0.5
-0.77
-0.96
-1.07
-1.13
-1.22
-1.4
-1.71
-2.13
-2.58
-2.97
-3.21
-3.3
-3.31
-3.39
-3.67
-4.23
-5.03
-5.92
-6.72
-7.26
-7.53
-7.64
-7.81
-8.26
-9.11
-10.3
-11.62
-12.82
-13.69
-14.18
-14.4
-14.53
-14.8
-15.42
-16.63
-18.58
-21.21
-23.95
-25.77
-25.34
-21.63
-14.32
-4.13
7.45
18.68
28.2
35.34
40.09
42.72
43.51
42.59
40.09
36.33
31.91
27.62
24.14
21.85
20.71
20.38
20.42
20.48
20.41
20.28
20.31
20.65
21.28
21.94
22.14
21.36
19.24
15.8
11.14
5.68
-0.07
-5.63
-10.57
-14.48
-16.93
-17.61
-16.36
-13.39
-9.27
-4.83
-0.94
1.71
2.78
2.3
0.53
-2.12
-5.24
-8.42
-11.31
-13.6
-15.12
-15.81
-15.79
-15.29
-14.58
-13.87
-13.2
-12.5
-11.58
-10.34
-8.86
-7.41
-6.34
-5.98
-6.42
-7.46
-8.55
-8.92
-7.83
-4.78
0.2
6.49
12.99
18.5
22.05
23.36
22.78
21.06
18.93
16.77
14.48
11.76
8.5
4.85
1.38
-1.27
-2.74
-3.17
-3.12
-3.3
-4.27
-5.89
-7.88
-9.84
-11.52
-12.97
-14.5
-16.66
-19.94
-24.55
-30.29
-36.47
-41.93
-45.35
-45.58
-42.05
-34.91
-24.99
-13.55
-1.84
9.06
18.41
25.73
30.75
33.32
33.51
31.7
28.51
24.72
21.01
17.76
15.0
12.48
9.87
6.95
3.78
0.64
-2.06
-4.03
-5.24
-5.93
-6.58
-7.78
-10.11
-13.95
-19.37
-25.94
-32.65
-38.05
-40.59
-39.08
-33.11
-23.18
-10.5
3.39
17.05
29.41
39.75
47.57
52.49
54.32
53.16
49.46
44.02
37.69
31.16
24.78
18.59
12.48
6.4
0.49
-4.99
-9.74
-13.68
-16.91
-19.82
-22.91
-26.8
-32.04
-38.91
-47.16
-55.84
-63.29
-67.56
-66.92
-60.58
-48.97
-33.65
-16.79
-0.51
13.72
25.23
33.94
40.03
43.59
44.65
43.27
39.78
34.8
29.17
23.59
18.44
13.77
9.38
5.07
0.85
-3.08
-6.49
-9.28
-11.68
-14.25
-17.8
-23.14
-30.78
-40.64
-51.81
-62.6
-70.85
-74.56
-72.51
-64.63
-52.0
-36.35
-19.54
-3.02
12.27
25.74
36.9
45.28
50.49
52.49
51.7
48.98
45.36
41.71
38.49
35.71
33.1
30.32
27.2
23.8
20.34
17.05
13.97
10.9
7.39
2.85
-3.29
-11.37
-21.24
-32.16
-42.71
-51.07
-55.45
-54.63
-48.34
-37.39
-23.34
-8.03
6.94
20.43
31.79
40.62
46.64
49.67
49.72
47.08
42.43
36.62
30.48
24.6
19.21
14.27
9.63
5.23
1.2
-2.16
-4.58
-5.99
-6.73
-7.49
-9.16
-12.6
-18.35
-26.41
-36.11
-46.04
-54.32
-58.91
-58.23
-51.58
-39.43
-23.3
-5.29
12.43
28.11
40.64
49.51
54.67
56.42
55.3
52.1
47.75
43.23
39.3
36.29
34.03
31.8
28.68
23.88
17.12
8.79
-0.24
-8.97
-16.85
-24.04
-31.35
-39.76
-49.83
-61.12
-72.11
-80.52
-83.99
-80.81
-70.5
-53.95
-33.17
-10.78
10.63
28.94
42.85
51.8
55.94
55.87
52.59
47.25
41.07
35.1
30.02
26.0
22.71
19.59
16.1
12.05
7.58
3.1
-1.03
-4.61
-7.83
-11.15
-15.28
-20.96
-28.68
-38.39
-49.19
-59.35
-66.6
-68.8
-64.61
-54.03
-38.46
-20.26
-2.03
14.02
26.54
35.03
39.71
41.18
40.26
37.84
34.79
31.84
29.5
27.93
26.95
26.12
24.91
22.88
19.81
15.74
10.95
5.84
0.89
-3.51
-7.17
-10.21
-13.13
-16.68
-21.71
-28.85
-38.16
-48.9
-59.49
-67.81
-71.71
-69.62
-61.1
-46.95
-29.03
-9.69
8.78
24.67
36.99
45.43
50.13
51.55
50.3
47.07
42.64
37.7
32.79
28.15
23.73
19.36
14.92
10.59
6.83
4.26
3.23
3.53
4.33
4.26
1.9
-3.77
-12.95
-24.75
-37.32
-48.1
-54.55
-54.73
-47.97
-35.04
-17.99
0.58
18.16
32.99
44.17
51.47
55.09
55.36
52.68
47.62
40.91
33.37
25.67
18.18
10.93
3.79
-3.36
-10.34
-16.76
-22.1
-26.07
-28.73
-30.69
-32.96
-36.56
-42.23
-49.99
-59.02
-67.72
-73.99
-75.74
-71.39
-60.38
-43.37
-22.23
0.37
21.58
39.03
51.35
58.3
60.49
59.01
54.94
49.2
42.43
35.18
28.0
21.32
15.44
10.42
6.06
2.01
-2.0
-6.08
-10.2
-14.32
-18.59
-23.51
-29.79
-38.05
-48.29
-59.57
-69.99
-77.12
-78.78
-73.81
-62.5
-46.45
-28.06
-9.79
6.46
19.55
28.97
34.7
37.0
36.29
33.19
28.4
22.72
16.85
11.39
6.8
3.35
1.15
0.16
0.12
0.63
1.23
1.4
0.6
-1.7
-6.01
-12.54
-20.89
-29.83
-37.34
-41.0
-38.75
-29.62
-14.2
5.5
26.6
46.21
62.16
73.34
79.62
81.5
79.66
74.76
67.43
58.3
48.06
37.42
26.99
17.21
8.33
0.48
-6.24
-11.84
-16.41
-20.22
-23.69
-27.34
-31.79
-37.59
-45.01
-53.77
-62.78
-70.2
-73.83
-71.78
-63.24
-48.79
-30.31
-10.2
9.33
26.85
41.75
53.89
63.25
69.7
73.15
73.77
72.21
69.42
66.34
63.52
60.91
58.06
54.4
49.65
43.96
37.79
31.6
25.61
19.55
12.84
4.68
-5.62
-18.4
-33.35
-49.28
-64.06
-74.95
-79.25
-75.16
-62.47
-42.77
-18.98
5.5
27.77
46.08
59.85
69.34
75.07
77.45
76.69
72.99
66.77
58.83
50.19
41.87
34.53
28.4
23.35
19.11
15.51
12.6
10.55
9.36
8.72
7.93
6.15
2.63
-2.99
-10.68
-20.08
-30.64
-41.67
-52.19
-60.96
-66.57
-67.73
-63.74
-54.73
-41.75
-26.41
-10.51
4.36
16.98
26.52
32.44
34.48
32.79
28.03
21.38
14.27
8.11
3.8
1.59
1.09
1.56
2.19
2.37
1.84
0.5
-1.62
-4.61
-8.67
-14.12
-21.24
-30.09
-40.25
-50.62
-59.55
-65.06
-65.48
-59.91
-48.58
-32.75
-14.3
4.75
22.7
38.21
50.35
58.41
61.99
61.19
56.67
49.69
41.69
33.89
26.92
20.73
14.85
8.8
2.44
-3.92
-9.74
-14.58
-18.38
-21.56
-24.94
-29.43
-35.7
-43.79
-52.94
-61.56
-67.53
-68.77
-63.86
-52.59
-36.04
-16.3
4.23
23.44
40.01
53.39
63.6
70.94
75.66
77.97
78.04
76.07
72.26
66.84
59.99
51.89
42.77
32.97
22.93
13.1
3.79
-4.93
-13.22
-21.52
-30.38
-40.37
-51.82
-64.56
-77.72
-89.65
-98.22
-101.32
-97.53
-86.66
-69.79
-49.04
-26.94
-5.83
12.51
27.04
37.34
43.48
45.89
45.35
42.73
38.99
34.91
31.0
27.48
24.3
21.24
18.03
14.48
10.49
6.19
1.73
-2.74
-7.27
-12.22
-18.17
-25.7
-35.01
-45.57
-56.02
-64.38
-68.64
-67.28
-59.86
-47.07
-30.53
-12.32
5.57
21.51
34.37
43.44
48.4
49.31
46.65
41.31
34.45
27.24
20.57
14.84
9.96
5.49
0.88
-4.21
-9.79
-15.49
-20.75
-25.1
-28.41
-31.02
-33.7
-37.34
-42.58
-49.44
-57.15
-64.16
-68.59
-68.62
-63.12
-51.97
-36.14
-17.42
1.99
20.07
35.35
47.0
54.78
58.82
59.5
57.38
53.2
47.73
41.68
35.49
29.32
23.09
16.71
10.24
3.96
-1.77
-6.62
-10.52
-13.67
-16.46
-19.44
-23.18
-28.16
-34.56
-42.04
-49.55
-55.44
-57.89
-55.41
-47.42
-34.46
-17.97
0.08
17.67
33.18
45.44
53.81
58.14
58.76
56.39
52.05
46.83
41.56
36.61
31.82
26.68
20.59
13.35
5.4
-2.16
-7.87
-10.44
-9.32
-4.99
1.19
7.27
11.3
11.89
8.51
1.72
-6.97
-15.42
-21.49
-23.58
-21.12
-14.63
-5.38
5.17
15.83
25.91
34.97
42.6
48.15
50.88
50.29
46.37
39.75
31.48
22.73
14.35
6.75
-0.15
-6.69
-13.16
-19.63
-25.86
-31.41
-35.92
-39.32
-41.97
-44.56
-47.8
-52.03
-56.92
-61.38
-63.83
-62.6
-56.51
-45.23
-29.46
-10.72
8.96
27.54
43.33
55.18
62.49
65.14
63.4
57.94
49.75
40.06
30.13
20.98
13.18
6.77
1.46
-3.18
-7.4
-11.26
-14.66
-17.5
-19.78
-21.66
-23.43
-25.4
-27.94
-31.27
-35.35
-39.73
-43.48
-45.41
-44.34
-39.56
-30.98
-19.27
-5.58
8.74
22.45
34.58
44.47
51.76
56.29
58.15
57.69
55.45
52.17
48.52
44.99
41.73
38.52
34.93
30.55
25.23
19.15
12.67
6.16
-0.21
-6.54
-13.12
-20.29
-28.22
-36.8
-45.47
-53.28
-58.95
-61.18
-59.08
-52.44
-41.95
-28.97
-15.23
-2.32
8.64
17.14
23.12
26.79
28.45
28.39
26.95
24.49
21.46
18.32
15.42
12.99
11.0
9.31
7.7
6.03
4.25
2.42
0.55
-1.47
-3.93
-7.26
-11.79
-17.65
-24.56
-31.75
-38.1
-42.3
-43.25
-40.31
-33.64
-24.09
-13.04
-1.97
7.95
15.99
21.88
25.6
27.19
26.7
24.31
20.41
15.65
10.82
6.54
3.15
0.51
-1.77
-4.14
-6.89
-10.02
-13.29
-16.37
-19.04
-21.34
-23.6
-26.38
-30.1
-34.72
-39.53
-43.13
-43.87
-40.45
-32.51
-20.84
-7.19
6.42
18.28
27.4
33.61
37.2
38.58
38.06
35.82
32.03
26.93
20.93
14.49
8.05
1.86
-4.03
-9.65
-15.11
-20.4
-25.39
-29.86
-33.6
-36.66
-39.37
-42.34
-46.1
-50.73
-55.59
-59.37
-60.5
-57.76
-50.83
-40.39
-27.86
-14.81
-2.47
8.45
17.66
25.02
30.33
33.44
34.44
33.8
32.29
30.7
29.53
28.81
28.14
27.01
25.09
22.39
19.19
15.86
12.65
9.54
6.33
2.6
-2.11
-8.19
-15.71
-24.27
-32.9
-40.2
-44.67
-45.2
-41.4
-33.77
-23.49
-12.02
-0.7
9.53
18.1
24.71
29.17
31.39
31.47
29.8
26.97
23.65
20.37
17.31
14.37
11.28
7.88
4.26
0.78
-2.16
-4.25
-5.5
-6.24
-7.05
-8.53
-11.19
-15.23
-20.42
-26.05
-30.97
-33.81
-33.37
-28.95
-20.71
-9.66
2.63
14.47
24.5
31.94
36.59
38.63
38.38
36.17
32.31
27.26
21.54
15.75
10.39
5.69
1.6
-2.19
-5.99
-9.97
-14.08
-18.07
-21.68
-24.75
-27.43
-30.11
-33.35
-37.55
-42.71
-48.26
-53.08
-55.74
-54.91
-49.81
-40.48
-27.8
-13.21
1.64
15.3
26.71
35.3
40.93
43.78
44.33
43.22
41.13
38.61
35.97
33.24
30.24
26.8
22.83
18.44
13.91
9.52
5.52
1.92
-1.44
-4.97
-9.16
-14.51
-21.17
-28.78
-36.37
-42.45
-45.47
-44.3
-38.72
-29.45
-18.01
-6.13
4.72
13.68
20.49
25.25
28.1
29.14
28.46
26.27
22.99
19.21
15.51
12.25
9.52
7.21
5.15
3.22
1.42
-0.23
-1.74
-3.26
-5.08
-7.51
-10.92
-15.49
-21.13
-27.3
-32.99
-36.93
-37.88
-35.08
-28.58
-19.18
-8.2
2.91
13.04
21.56
28.31
33.4
36.96
38.99
39.4
38.13
35.28
31.21
26.51
21.76
17.44
13.75
10.61
7.77
5.0
2.21
-0.5
-2.89
-4.76
-6.11
-7.16
-8.39
-10.29
-13.27
-17.52
-22.95
-29.23
-35.76
-41.62
-45.66
-46.66
-43.66
-36.37
-25.36
-11.94
2.17
15.38
26.62
35.42
41.77
45.79
47.63
47.42
45.44
42.11
38.06
33.84
29.78
26.01
22.46
19.02
15.7
12.59
9.75
7.13
4.44
1.23
-2.99
-8.59
-15.63
-23.83
-32.44
-40.39
-46.39
-49.26
-48.27
-43.33
-35.05
-24.54
-13.07
-1.77
8.55
17.39
24.41
29.29
31.76
31.73
29.51
25.84
21.75
18.24
15.94
14.92
14.75
14.75
14.34
13.26
11.53
9.38
6.99
4.49
1.89
-0.89
-3.91
-7.32
-11.38
-16.41
-22.7
-30.21
-38.37
-46.04
-51.68
-53.91
-51.93
-45.86
-36.74
-26.22
-15.99
-7.34
-0.85
3.54
6.32
7.98
8.88
9.13
8.74
7.79
6.48
5.2
4.23
3.73
3.54
3.3
2.58
1.16
-0.86
-3.16
-5.36
-7.31
-9.2
-11.55
-14.86
-19.28
-24.28
-28.68
-30.98
-29.87
-24.79
-16.16
-5.21
6.44
17.27
26.26
33.03
37.69
40.65
42.39
43.24
43.42
42.96
41.78
39.89
37.38
34.47
31.44
28.49
25.65
22.79
19.73
16.39
12.84
9.29
5.9
2.76
-0.24
-3.29
-6.55
-10.11
-13.88
-17.74
-21.61
-25.63
-30.07
-35.22
-41.07
-47.04
-51.96
-54.37
-52.99
-47.29
-37.71
-25.49
-12.23
0.63
12.21
22.12
30.26
36.55
40.83
42.93
42.91
41.11
38.24
35.08
32.26
30.02
28.17
26.19
23.57
20.01
15.6
10.8
6.14
1.98
-1.67
-5.18
-9.1
-13.91
-19.79
-26.56
-33.62
-40.15
-45.2
-47.94
-47.8
-44.64
-38.74
-30.71
-21.35
-11.54
-2.04
6.53
13.69
19.16
22.82
24.71
25.01
24.0
22.06
19.63
17.18
15.06
13.4
12.12
10.96
9.66
8.12
6.42
4.7
3.0
1.21
-0.99
-3.99
-8.08
-13.4
-19.81
-26.84
-33.62
-38.97
-41.71
-41.03
-36.82
-29.84
-21.38
-12.79
-4.99
1.73
7.58
12.85
17.6
21.52
24.06
24.8
23.58
20.68
16.61
12.05
7.58
3.59
0.25
-2.44
-4.54
-6.1
-7.1
-7.52
-7.39
-6.85
-6.18
-5.73
-5.92
-7.02
-9.07
-11.71
-14.23
-15.7
-15.27
-12.47
-7.41
-0.73
6.64
13.87
20.38
25.88
30.28
33.53
35.51
36.1
35.27
33.06
29.57
25.0
19.64
13.99
8.68
4.31
1.29
-0.36
-1.0
-1.13
-1.14
-1.1
-0.87
-0.24
0.81
2.06
3.06
3.35
2.54
0.44
-2.95
-7.45
-12.62
-17.78
-22.05
-24.54
-24.52
-21.71
-16.3
-9.0
-0.77
7.39
14.61
20.24
23.9
25.39
24.74
22.21
18.4
14.16
10.44
7.95
6.9
6.97
7.38
7.36
6.45
4.74
2.7
0.91
-0.35
-1.28
-2.58
-5.17
-9.8
-16.62
-24.97
-33.38
-39.91
-42.78
-40.97
-34.59
-24.83
-13.52
-2.52
6.74
13.54
17.76
19.65
19.66
18.25
15.85
12.82
9.43
5.85
2.12
-1.79
-5.93
-10.32
-14.94
-19.68
-24.38
-28.77
-32.52
-35.36
-37.23
-38.32
-39.08
-40.07
-41.77
-44.28
-47.19
-49.62
-50.35
-48.34
-43.05
-34.73
-24.36
-13.32
-2.86
6.25
13.89
20.36
26.05
31.15
35.59
39.19
41.83
43.57
44.54
44.86
44.56
43.69
42.32
40.66
39.0
37.57
36.46
35.67
35.24
35.4
36.63
39.53
44.41
51.03
58.5
65.43
70.46
72.69
71.93
68.66
63.68
57.79
51.49
45.0
38.28
31.03
22.71
12.59
0.16
-14.39
-29.89
-44.37
-55.85
-63.17
-66.6
-67.64
-68.22
-69.75
-72.55
-76.04
-79.29
-81.8
-83.71
-85.65
-88.2
-91.49
-95.1
-98.36
-100.67
-101.61
-101.01
-98.75
-94.63
-88.38
-79.83
-69.07
-56.59
-43.21
-29.92
-17.63
-7.03
1.52
7.92
12.23
14.65
15.53
15.42
15.07
15.42
17.34
21.42
27.69
35.49
43.66
50.94
56.26
59.14
59.56
57.76
53.96
48.24
40.63
31.48
21.74
13.03
7.46
7.08
13.31
26.48
45.73
69.17
94.15
117.74
136.98
149.27
152.71
146.51
131.26
108.93
82.44
54.93
28.97
6.04
-13.52
-30.06
-44.09
-55.7
-64.54
-69.94
-71.38
-68.9
-63.24
-55.83
-48.42
-42.71
-39.95
-40.77
-45.06
-52.07
-60.58
-69.03
-75.81
-79.45
-78.94
-73.97
-65.04
-53.43
-40.86
-29.07
-19.38
-12.5
-8.46
-6.82
-6.92
-8.13
-10.0
-12.27
-14.84
-17.69
-20.7
-23.61
-25.95
-27.18
-26.87
-24.87
-21.44
-17.3
-13.37
-10.59
-9.7
-10.98
-14.21
-18.54
-22.66
-24.88
-23.56
-17.58
-6.78
7.82
24.18
39.8
52.49
60.93
64.96
65.37
63.38
60.07
55.99
51.2
45.44
38.54
30.65
22.25
14.0
6.56
0.4
-4.22
-7.3
-9.04
-9.86
-10.37
-11.32
-13.45
-17.28
-22.83
-29.46
-35.75
-39.82
-39.8
-34.43
-23.59
-8.36
9.24
26.96
43.05
56.62
67.61
76.35
83.03
87.54
89.62
89.19
86.72
83.0
78.84
74.55
69.81
63.93
56.39
47.29
37.42
27.85
19.47
12.48
6.35
0.03
-7.59
-17.29
-29.18
-42.56
-55.98
-67.46
-74.95
-76.88
-72.69
-63.01
-49.48
-34.25
-19.29
-5.94
5.21
14.16
21.12
26.21
29.46
30.89
30.69
29.24
26.94
23.98
20.28
15.54
9.58
2.65
-4.52
-10.87
-15.46
-17.84
-18.27
-17.66
-17.19
-17.99
-20.72
-25.5
-31.81
-38.6
-44.37
-47.52
-46.65
-41.03
-30.87
-17.33
-2.28
12.25
24.62
33.94
40.09
43.52
44.87
44.68
43.33
41.01
37.91
34.24
30.29
26.32
22.47
18.77
15.13
11.53
8.07
4.95
2.33
0.09
-2.39
-6.2
-12.54
-22.18
-34.85
-49.04
-62.18
-71.42
-74.53
-70.56
-60.08
-44.84
-27.1
-9.08
7.49
21.47
32.26
39.64
43.76
45.09
44.31
42.17
39.22
35.79
31.9
27.46
22.38
16.71
10.7
4.7
-0.85
-5.63
-9.55
-12.82
-16.0
-19.86
-25.1
-31.93
-39.87
-47.63
-53.37
-55.29
-52.19
-43.88
-31.24
-15.9
0.27
15.6
28.9
39.43
46.83
50.96
51.93
50.18
46.46
41.76
37.09
33.23
30.47
28.61
27.02
24.99
22.05
18.17
13.81
9.63
6.16
3.41
0.89
-2.27
-6.86
-13.32
-21.48
-30.56
-39.37
-46.52
-50.68
-50.88
-46.75
-38.66
-27.65
-15.23
-2.95
7.85
16.34
22.12
25.15
25.67
24.04
20.87
16.94
13.25
10.78
10.28
12.05
15.77
20.5
24.93
27.75
28.03
25.57
20.91
15.04
8.98
3.39
-1.6
-6.37
-11.58
-17.82
-25.35
-33.85
-42.48
-49.86
-54.51
-55.13
-51.07
-42.54
-30.58
-16.72
-2.67
10.06
20.33
27.39
30.9
31.0
28.35
23.99
19.14
14.8
11.45
9.04
7.1
5.08
2.64
-0.24
-3.3
-6.14
-8.38
-9.78
-10.3
-10.13
-9.67
-9.46
-10.12
-12.07
-15.37
-19.55
-23.61
-26.3
-26.44
-23.4
-17.27
-8.85
0.72
10.31
19.04
26.41
32.07
35.73
37.17
36.33
33.56
29.64
25.58
22.32
20.44
20.0
20.59
21.49
21.93
21.21
18.89
14.96
9.86
4.37
-0.68
-4.7
-7.59
-9.72
-11.67
-14.02
-17.07
-20.84
-25.1
-29.41
-33.12
-35.44
-35.54
-32.82
-27.18
-19.08
-9.47
0.49
9.8
17.8
24.21
28.97
32.11
33.57
33.33
31.47
28.29
24.28
20.03
16.05
12.7
10.16
8.45
7.62
7.69
8.7
10.54
12.97
15.54
17.71
18.96
18.85
17.07
13.45
8.06
1.36
-5.7
-11.82
-15.69
-16.38
-13.73
-8.41
-1.67
5.15
11.0
15.4
18.4
20.26
21.29
21.63
21.24
20.04
18.04
15.36
12.28
9.13
6.18
3.54
1.12
-1.26
-3.8
-6.57
-9.57
-12.74
-16.06
-19.59
-23.5
-27.97
-33.11
-38.87
-44.95
-50.76
-55.43
-57.94
-57.42
-53.47
-46.29
-36.71
-25.86
-14.92
-4.81
3.76
10.28
14.39
15.94
15.08
12.34
8.49
4.33
0.38
-3.19
-6.49
-9.72
-12.97
-16.1
-18.83
-20.92
-22.27
-23.04
-23.57
-24.27
-25.58
-27.81
-31.02
-34.93
-38.9
-41.98
-43.17
-41.66
-37.13
-29.89
-20.76
-10.88
-1.35
6.96
13.58
18.32
21.15
22.15
21.53
19.61
16.95
14.14
11.75
10.1
9.17
8.66
8.22
7.54
6.54
5.28
3.9
2.43
0.81
-1.13
-3.6
-6.79
-10.83
-15.66
-20.95
-26.02
-29.94
-31.75
-30.81
-27.04
-20.98
-13.67
-6.25
0.35
5.54
9.1
11.01
11.31
10.09
7.56
4.22
0.83
-1.75
-2.84
-2.21
-0.26
2.2
4.27
5.27
4.99
3.64
1.65
-0.64
-3.06
-5.64
-8.53
-11.86
-15.67
-19.84
-24.02
-27.6
-29.76
-29.7
-26.94
-21.54
-14.15
-5.82
2.34
9.46
15.03
18.86
21.0
21.57
20.79
18.94
16.45
13.81
11.53
9.93
9.12
8.91
8.91
8.67
7.8
6.13
3.74
0.9
-2.03
-4.73
-6.99
-8.78
-10.27
-11.74
-13.5
-15.67
-18.06
-20.03
-20.75
-19.43
-15.68
-9.64
-1.94
6.58
15.04
22.73
29.07
33.62
36.12
36.57
35.29
32.84
29.83
26.7
23.6
20.46
17.15
13.66
10.1
6.59
3.17
-0.26
-3.8
-7.46
-11.06
-14.31
-17.01
-19.11
-20.72
-21.94
-22.67
-22.57
-21.15
-18.01
-13.03
-6.54
0.8
8.14
14.71
19.93
23.41
24.98
24.59
22.38
18.63
13.86
8.69
3.73
-0.52
-3.85
-6.39
-8.56
-10.98
-14.24
-18.65
-24.07
-29.88
-35.22
-39.35
-42.06
-43.72
-45.14
-46.99
-49.31
-51.37
-51.92
-49.83
-44.58
-36.57
-26.86
-16.76
-7.4
0.52
6.64
10.84
13.15
13.67
12.69
10.71
8.34
6.14
4.53
3.68
3.61
4.17
5.09
6.09
6.85
7.18
7.03
6.61
6.22
6.15
6.51
7.13
7.68
7.91
7.85
7.86
8.55
10.42
13.62
17.91
22.7
27.36
31.38
34.49
36.55
37.51
37.31
35.86
33.23
29.6
25.28
20.7
16.29
12.38
9.21
6.84
5.2
4.1
3.29
2.55
1.7
0.64
-0.77
-2.66
-5.19
-8.46
-12.41
-16.79
-21.12
-24.72
-26.77
-26.47
-23.19
-16.73
-7.46
3.73
15.56
26.77
36.4
43.87
48.97
51.7
52.16
50.51
47.14
42.62
37.64
32.76
28.31
24.27
20.42
16.51
12.44
8.25
4.03
-0.17
-4.37
-8.7
-13.31
-18.34
-23.83
-29.71
-35.63
-40.94
-44.75
-46.11
-44.36
-39.36
-31.61
-22.12
-12.07
-2.48
6.0
13.18
19.16
24.09
28.03
30.82
32.25
32.19
30.81
28.53
25.93
23.48
21.34
19.33
17.14
14.46
11.24
7.59
3.64
-0.63
-5.49
-11.28
-18.19
-25.89
-33.48
-39.64
-42.99
-42.62
-38.43
-31.14
-22.14
-12.98
-4.95
1.2
5.31
7.62
8.57
8.53
7.83
6.66
5.14
3.36
1.36
-0.84
-3.23
-5.74
-8.22
-10.43
-12.04
-12.76
-12.5
-11.44
-10.21
-9.73
-10.98
-14.53
-20.19
-26.8
-32.49
-35.23
-33.58
-27.24
-17.12
-5.0
7.12
17.7
25.95
31.77
35.48
37.45
37.9
37.0
34.89
31.86
28.28
24.39
20.25
15.7
10.53
4.78
-1.15
-6.59
-10.88
-13.7
-15.32
-16.47
-18.07
-20.89
-25.25
-30.92
-37.21
-43.09
-47.36
-48.92
-47.02
-41.43
-32.6
-21.54
-9.53
2.18
12.68
21.4
28.1
32.75
35.51
36.69
36.78
36.39
36.03
36.04
36.39
36.76
36.72
35.9
34.26
32.04
29.73
27.74
26.24
24.98
23.42
20.93
16.99
11.43
4.47
-3.26
-10.89
-17.34
-21.61
-22.99
-21.27
-16.86
-10.63
-3.71
2.92
8.61
13.04
16.12
17.87
18.31
17.56
15.88
13.66
11.35
9.3
7.63
6.25
4.96
3.57
2.03
0.37
-1.28
-2.84
-4.29
-5.71
-7.34
-9.48
-12.39
-16.16
-20.47
-24.61
-27.5
-28.02
-25.37
-19.38
-10.68
-0.5
9.68
18.61
25.53
30.26
32.97
33.93
33.37
31.37
28.09
23.85
19.11
14.45
10.32
6.93
4.22
1.9
-0.41
-2.95
-5.77
-8.62
-11.05
-12.62
-13.19
-13.16
-13.36
-14.78
-17.91
-22.35
-26.66
-28.93
-27.6
-22.27
-13.94
-4.62
3.44
8.51
9.73
7.05
1.08
-6.97
-15.08
-20.49
-20.22
-12.15
3.85
25.4
48.16
67.4
79.69
83.95
81.32
74.03
64.09
52.44
39.04
23.66
6.75
-10.04
-24.24
-33.4
-36.14
-32.6
-24.36
-13.77
-3.01
6.51
14.26
20.16
24.12
25.45
23.37
17.42
7.94
-3.81
-16.01
-26.75
-34.79
-39.78
-42.71
-44.91
-47.7
-51.97
-58.02
-65.46
-73.33
-80.5
-86.02
-90.08
-93.27
-96.53
-101.08
-107.97
-117.49
-128.77
-139.72
-147.41
-149.59
-144.13
-129.72
-106.73
-77.51
-46.21
-17.88
2.78
17.76
27.67
33.88
38.87
45.05
53.38
62.97
71.89
78.37
81.79
81.96
79.7
76.53
73.4
70.43
67.14
62.84
57.21
50.21
41.03
28.46
11.69
-8.77
-30.49
-48.96
-58.65
-55.37
-38.28
-9.76
21.29
46.94
63.11
70.1
71.06
69.91
67.46
62.98
55.29
44.42
32.99
24.45
21.16
23.0
27.46
30.89
30.42
25.07
15.94
5.86
-2.53
-8.08
-11.38
-14.09
-17.9
-22.65
-26.81
-27.92
-23.37
-11.86
5.78
26.81
47.51
64.36
75.12
78.87
75.88
67.31
54.68
39.78
24.57
11.13
1.34
-3.44
-2.99
1.64
8.24
13.89
15.78
12.27
3.51
-8.56
-21.04
-31.35
-38.15
-41.72
-43.26
-43.97
-44.19
-43.37
-40.56
-35.26
-28.02
-20.31
-13.96
-10.43
-10.32
-13.35
-18.55
-24.69
-30.58
-35.38
-38.64
-40.38
-40.85
-40.35
-39.18
-37.58
-35.95
-34.93
-35.19
-37.2
-40.8
-45.09
-48.7
-50.41
-49.7
-47.16
-44.24
-42.7
-43.74
-47.52
-53.15
-58.98
-63.32
-64.85
-62.88
-57.4
-48.94
-38.51
-27.61
-18.06
-11.7
-9.84
-12.67
-18.93
-26.01
-30.56
-29.55
-21.31
-6.27
13.12
33.03
49.5
59.57
62.07
57.68
48.37
36.55
24.37
13.34
4.42
-1.82
-4.95
-4.8
-1.63
3.74
9.93
15.4
18.85
19.66
18.04
14.89
11.5
9.19
8.99
11.47
16.58
23.77
32.0
40.01
46.58
50.78
52.12
50.55
46.4
40.21
32.58
24.06
15.04
5.82
-3.35
-12.06
-19.68
-25.42
-28.49
-28.47
-25.52
-20.4
-14.31
-8.47
-3.86
-0.96
0.31
0.48
0.35
0.73
2.16
4.77
8.18
11.69
14.51
16.02
15.95
14.34
11.44
7.56
3.09
-1.58
-6.08
-10.18
-13.88
-17.36
-20.86
-24.3
-27.17
-28.45
-27.03
-22.18
-13.9
-3.01
9.04
20.61
30.3
37.13
40.74
41.31
39.54
36.48
33.24
30.74
29.4
29.12
29.37
29.48
28.95
27.53
25.17
21.92
17.83
12.95
7.44
1.48
-4.71
-10.86
-16.65
-21.54
-24.78
-25.46
-22.9
-17.01
-8.48
1.25
10.51
17.9
22.74
25.11
25.67
25.28
24.72
24.57
25.2
26.8
29.4
32.84
36.74
40.59
43.82
45.88
46.23
44.45
40.32
33.99
26.05
17.47
9.4
2.76
-1.83
-4.21
-4.49
-2.96
-0.01
3.91
8.35
12.89
17.27
21.44
25.34
28.68
30.75
30.53
27.12
20.24
10.56
-0.42
-10.74
-18.63
-22.98
-23.57
-21.03
-16.55
-11.53
-7.19
-4.33
-3.18
-3.52
-4.81
-6.43
-7.71
-8.04
-6.87
-3.88
0.88
6.95
13.59
20.06
25.91
30.93
34.9
37.32
37.31
33.99
27.11
17.52
7.15
-1.56
-6.55
-6.86
-2.84
4.16
12.42
20.42
27.08
31.73
33.92
33.34
29.92
24.02
16.62
9.16
3.21
-0.07
-0.43
1.39
3.89
5.46
4.93
2.08
-2.44
-7.45
-11.82
-15.0
-17.25
-19.49
-22.85
-28.04
-34.9
-42.26
-48.29
-51.19
-49.86
-44.26
-35.42
-24.95
-14.59
-5.81
0.38
3.5
3.68
1.69
-1.13
-3.17
-3.03
-0.03
5.56
12.65
19.81
25.77
29.82
31.82
32.02
30.72
28.05
23.91
18.08
10.43
1.09
-9.35
-19.88
-29.24
-36.22
-39.88
-39.81
-36.22
-29.93
-22.21
-14.53
-8.18
-4.01
-2.13
-2.01
-2.61
-2.84
-1.87
0.67
4.62
9.47
14.45
18.66
21.24
21.58
19.59
15.72
10.91
6.19
2.29
-0.73
-3.38
-6.51
-10.74
-16.05
-21.64
-26.17
-28.38
-27.66
-24.38
-19.75
-15.28
-12.09
-10.45
-9.7
-8.67
-6.26
-1.89
4.32
11.75
19.55
26.84
32.82
36.67
37.68
35.39
29.85
21.75
12.33
2.92
-5.52
-12.72
-19.02
-24.94
-30.59
-35.31
-37.95
-37.5
-33.88
-28.19
-22.28
-17.89
-15.74
-15.2
-14.69
-12.56
-7.82
-0.47
8.75
18.81
28.68
37.28
43.31
45.39
42.52
34.76
23.46
10.85
-0.82
-10.33
-17.77
-24.07
-30.08
-35.73
-39.99
-41.49
-39.52
-34.66
-28.62
-23.33
-20.05
-18.76
-18.39
-17.51
-15.07
-10.8
-5.06
1.64
9.07
17.32
26.44
35.92
44.45
50.12
51.17
46.78
37.54
25.18
11.73
-1.33
-13.46
-24.78
-35.26
-44.19
-50.24
-52.16
-49.73
-44.13
-37.52
-32.02
-28.69
-27.12
-25.95
-23.72
-19.67
-13.92
-7.06
0.44
8.51
17.34
26.83
36.1
43.46
46.91
44.95
37.3
25.16
10.79
-3.38
-15.54
-24.9
-31.47
-35.52
-37.19
-36.48
-33.55
-29.1
-24.3
-20.38
-18.05
-17.19
-17.02
-16.61
-15.36
-13.05
-9.6
-4.71
2.1
11.16
22.02
33.17
42.27
46.85
45.2
37.09
23.9
8.15
-7.28
-19.95
-28.34
-31.99
-31.3
-27.28
-21.3
-14.81
-9.19
-5.42
-3.9
-4.32
-5.86
-7.41
-8.02
-7.05
-4.17
0.75
7.73
16.66
26.94
37.39
46.21
51.4
51.37
45.42
34.18
19.43
3.67
-10.67
-21.85
-29.11
-32.64
-33.27
-31.94
-29.45
-26.23
-22.54
-18.5
-14.28
-10.07
-6.02
-2.11
1.92
6.5
12.1
19.06
27.43
36.81
46.34
54.7
60.3
61.6
57.61
48.33
34.91
19.54
4.6
-8.2
-18.51
-27.3
-36.12
-45.88
-56.16
-65.15
-70.45
-70.3
-64.37
-53.91
-41.1
-28.13
-16.47
-6.6
1.68
8.85
15.28
21.11
26.38
31.11
35.38
39.18
42.17
43.53
42.22
37.41
29.03
18.06
6.12
-5.19
-15.07
-23.79
-32.26
-41.13
-50.03
-57.35
-60.87
-58.74
-50.32
-36.4
-18.86
0.07
18.42
34.66
47.67
56.63
60.98
60.66
56.35
49.56
42.43
37.06
34.91
36.26
40.0
43.97
45.51
42.23
32.68
16.9
-3.52
-25.75
-46.61
-63.47
-75.0
-81.26
-83.26
-82.08
-78.31
-71.9
-62.52
-50.14
-35.42
-19.59
-4.04
10.05
21.87
30.95
37.08
40.33
41.2
40.6
39.6
38.98
38.91
38.94
38.32
36.46
33.2
28.76
23.41
17.42
11.11
5.07
0.15
-2.95
-4.32
-5.19
-7.66
-13.7
-24.08
-37.67
-51.68
-62.8
-68.52
-67.99
-61.96
-52.12
-40.21
-27.55
-15.08
-3.76
5.33
11.11
13.11
11.88
9.05
6.75
6.83
10.09
16.04
23.2
29.74
34.07
35.25
33.15
28.38
22.1
15.56
9.61
4.24
-1.46
-8.8
-18.53
-30.09
-41.56
-50.4
-54.72
-54.23
-50.29
-45.0
-39.92
-35.25
-29.93
-22.56
-12.52
-0.49
11.86
22.8
31.38
37.89
43.4
49.03
55.16
61.07
65.26
66.15
62.73
55.0
43.74
30.09
15.07
-0.61
-16.42
-31.8
-45.98
-57.96
-66.72
-71.44
-71.61
-67.06
-57.93
-44.66
-28.11
-9.49
9.65
27.7
43.25
55.39
63.79
68.77
71.1
71.91
72.27
72.93
74.05
75.2
75.59
74.35
70.74
64.26
54.57
41.66
26.06
9.02
-7.55
-21.57
-31.38
-36.37
-37.01
-34.58
-30.56
-26.13
-21.92
-18.12
-14.52
-10.73
-6.19
-0.42
6.73
14.8
22.78
29.44
33.98
36.39
37.43
38.26
39.72
41.99
44.48
46.24
46.31
44.1
39.42
32.41
23.5
13.41
3.2
-5.98
-13.17
-18.04
-21.04
-23.1
-25.18
-27.77
-30.66
-33.11
-34.32
-33.71
-31.07
-26.54
-20.45
-13.38
-6.22
-0.2
3.46
4.18
2.42
-0.11
-1.07
1.6
8.65
19.2
30.98
41.09
46.98
47.03
40.78
28.81
12.56
-5.95
-24.4
-40.48
-52.3
-58.76
-59.71
-55.85
-48.43
-38.89
-28.53
-18.34
-8.78
0.14
8.85
17.89
27.57
37.74
47.79
56.92
64.49
70.14
73.74
75.15
74.0
69.76
61.91
50.28
35.13
17.23
-2.24
-21.88
-40.27
-56.25
-69.17
-79.02
-86.19
-91.14
-93.95
-94.28
-91.62
-85.77
-77.13
-66.62
-55.2
-43.39
-31.09
-17.96
-4.06
9.71
21.66
29.97
33.45
32.07
27.05
20.3
13.69
8.35
4.44
1.18
-2.62
-8.15
-16.09
-26.42
-38.32
-50.37
-60.81
-67.95
-70.7
-68.84
-63.07
-54.74
-45.28
-35.78
-26.8
-18.53
-11.03
-4.52
0.76
4.69
7.59
10.04
12.62
15.48
18.13
19.7
19.39
17.02
13.31
9.62
7.38
7.44
9.7
12.99
15.57
15.76
12.57
6.02
-2.75
-11.97
-19.9
-25.47
-28.55
-29.69
-29.66
-28.89
-27.29
-24.49
-20.19
-14.58
-8.3
-2.2
2.96
6.77
9.12
9.97
9.29
7.23
4.35
1.67
0.46
1.57
4.84
9.02
12.16
12.38
8.8
1.9
-6.67
-14.85
-21.0
-24.43
-25.38
-24.57
-22.75
-20.32
-17.34
-13.7
-9.27
-3.98
2.17
9.15
16.82
24.97
33.39
41.9
50.49
59.16
67.74
75.73
82.12
85.73
85.43
80.61
71.09
57.25
39.81
19.85
-1.3
-22.12
-41.04
-56.72
-68.13
-74.58
-75.69
-71.33
-61.71
-47.63
-30.5
-12.26
5.13
20.11
31.82
40.12
45.2
47.3
46.55
43.07
37.15
29.42
20.76
12.16
4.32
-2.46
-8.37
-14.05
-20.29
-27.81
-36.89
-47.17
-57.63
-66.84
-73.43
-76.46
-75.55
-70.76
-62.53
-51.54
-38.84
-25.88
-14.32
-5.64
-0.59
1.07
0.44
-1.02
-2.23
-2.93
-3.63
-5.13
-7.79
-11.18
-14.16
-15.48
-14.45
-11.19
-6.54
-1.51
3.3
7.84
12.19
16.13
18.91
19.76
18.58
16.46
15.21
16.45
20.47
25.92
30.43
31.91
29.54
24.12
17.43
11.22
6.63
4.01
3.33
4.6
7.9
13.13
19.66
26.13
30.73
31.78
28.15
19.81
7.82
-5.87
-19.03
-29.71
-36.82
-40.21
-40.63
-39.21
-37.1
-35.0
-32.97
-30.49
-26.63
-20.45
-11.42
0.34
13.91
27.81
40.4
50.31
56.76
59.61
59.22
56.3
51.71
46.4
41.28
36.96
33.55
30.51
26.75
20.99
12.31
0.53
-13.63
-28.83
-43.51
-56.2
-65.7
-71.15
-72.01
-68.21
-60.25
-49.24
-36.7
-24.08
-12.34
-1.67
8.4
18.48
28.9
39.47
49.58
58.56
65.97
71.64
75.5
77.36
76.77
73.2
66.26
55.89
42.61
27.38
11.5
-3.67
-17.04
-28.05
-36.82
-44.01
-50.41
-56.5
-62.16
-66.75
-69.5
-69.83
-67.67
-63.28
-57.03
-49.22
-40.19
-30.44
-20.8
-12.25
-5.59
-1.01
1.96
4.32
7.05
10.63
14.77
18.45
20.4
19.54
15.41
8.31
-0.93
-11.14
-21.11
-29.84
-36.71
-41.64
-44.94
-47.15
-48.62
-49.22
-48.2
-44.36
-36.56
-24.23
-7.68
11.89
32.75
52.98
70.86
84.96
94.28
98.33
97.33
92.16
84.25
75.18
66.22
57.93
50.16
42.12
32.85
21.7
8.68
-5.43
-19.19
-30.84
-38.88
-42.61
-42.41
-39.58
-35.82
-32.51
-30.19
-28.48
-26.57
-23.88
-20.55
-17.46
-15.63
-15.57
-16.95
-18.85
-20.37
-21.2
-21.68
-22.28
-22.92
-22.62
-19.76
-12.89
-1.65
12.76
27.89
40.86
49.5
52.92
51.64
47.15
41.15
34.81
28.47
21.76
13.94
4.52
-6.47
-18.38
-30.12
-40.41
-47.91
-51.3
-49.31
-40.99
-26.13
-5.67
18.15
42.18
63.13
78.44
86.88
88.52
84.34
75.63
63.6
49.19
33.15
16.18
-0.97
-17.54
-32.96
-46.93
-59.34
-70.04
-78.43
-83.37
-83.42
-77.56
-65.88
-49.86
-32.02
-14.96
-0.28
11.88
22.59
33.14
44.13
54.89
63.85
69.31
70.33
66.98
60.13
50.72
39.24
25.67
9.93
-7.42
-24.77
-39.63
-49.35
-52.09
-47.61
-37.47
-24.53
-12.03
-2.64
2.21
2.43
-1.08
-6.88
-13.4
-19.13
-22.79
-23.48
-20.97
-15.83
-9.35
-3.1
1.73
4.89
7.22
10.24
15.35
23.09
32.76
42.65
50.71
55.26
55.46
51.45
44.08
34.47
23.71
12.61
1.69
-8.77
-18.67
-28.14
-37.46
-46.88
-56.2
-64.45
-69.76
-69.73
-62.24
-46.37
-22.99
5.3
34.8
61.81
83.56
98.72
107.3
110.27
108.86
104.05
96.34
85.68
71.68
53.84
31.96
6.39
-21.58
-49.64
-74.7
-93.44
-103.22
-102.8
-92.94
-76.33
-56.99
-39.27
-26.74
-21.32
-22.91
-29.76
-39.15
-48.19
-54.46
-56.38
-53.35
-45.76
-34.94
-22.82
-11.46
-2.21
4.75
10.63
17.34
26.52
38.44
51.7
63.61
71.32
72.89
67.83
57.02
42.1
24.87
6.86
-10.75
-27.07
-41.43
-53.56
-63.71
-72.66
-81.37
-90.43
-99.51
-107.16
-111.23
-109.63
-101.13
-85.8
-65.01
-40.94
-16.12
7.05
26.56
40.99
49.68
52.81
51.45
47.26
42.11
37.36
33.51
30.08
25.98
20.1
12.02
2.28
-7.62
-15.79
-20.67
-21.58
-18.85
-13.51
-6.79
0.26
6.85
12.29
15.86
16.84
14.8
9.96
3.42
-3.01
-7.28
-7.95
-4.83
0.91
7.23
12.29
15.54
18.1
22.34
30.56
43.56
59.89
76.24
88.84
95.06
94.35
88.13
78.69
67.99
56.95
45.54
33.48
20.84
8.2
-3.76
-14.75
-25.06
-35.2
-45.28
-54.52
-61.32
-63.87
-60.91
-52.33
-39.23
-23.52
-7.22
8.02
21.18
31.92
40.46
47.4
53.54
59.43
65.09
69.77
72.08
70.49
64.15
53.41
40.09
27.0
16.99
11.93
12.05
16.02
21.55
26.3
28.5
27.2
22.09
13.31
1.23
-13.49
-29.9
-46.88
-63.41
-78.73
-92.42
-104.03
-112.66
-116.85
-114.8
-105.22
-87.99
-64.65
-38.03
-11.43
12.28
31.27
44.82
53.01
56.28
55.26
50.85
44.29
37.03
30.23
24.17
18.09
10.67
0.98
-10.62
-22.17
-30.72
-33.6
-29.61
-19.56
-5.95
7.91
18.99
25.12
25.22
19.22
7.96
-6.89
-22.92
-37.32
-47.52
-51.97
-50.58
-44.63
-36.05
-26.51
-16.62
-5.9
6.73
22.05
39.8
58.45
75.67
89.1
97.1
99.13
95.59
87.46
75.81
61.63
45.82
29.26
12.81
-2.78
-17.08
-30.05
-42.04
-53.57
-64.83
-75.33
-83.78
-88.36
-87.33
-79.8
-66.16
-48.0
-27.67
-7.46
10.95
26.76
39.92
50.8
59.87
67.48
73.77
78.56
81.37
81.5
78.24
71.24
60.79
47.97
34.34
21.57
10.94
3.08
-2.04
-4.88
-6.07
-6.35
-6.65
-8.12
-12.0
-19.32
-30.34
-44.32
-59.7
-74.62
-87.56
-97.77
-105.19
-109.94
-111.92
-110.5
-104.67
-93.45
-76.26
-53.18
-24.99
6.77
39.84
71.28
97.78
116.26
124.7
122.7
111.6
93.96
72.63
49.89
27.1
4.93
-15.88
-33.9
-46.79
-52.0
-47.68
-33.8
-12.54
12.0
34.9
51.65
59.25
56.77
45.22
27.06
5.42
-16.58
-36.37
-52.26
-63.51
-70.35
-73.5
-73.62
-70.73
-63.92
-51.65
-32.59
-6.72
23.91
55.19
81.91
99.24
104.06
95.63
75.43
46.34
11.85
-24.5
-59.38
-89.99
-114.46
-132.34
-144.6
-152.98
-158.82
-162.05
-161.01
-153.27
-137.09
-112.65
-82.36
-50.13
-20.1
4.57
22.24
32.54
35.89
33.17
25.63
15.1
3.94
-5.42
-11.22
-13.13
-12.33
-10.99
-11.07
-13.22
-16.29
-17.82
-15.41
-8.17
2.39
12.83
19.09
18.2
9.39
-5.67
-23.64
-40.64
-53.34
-59.68
-59.15
-52.72
-42.57
-31.51
-22.14
-15.92
-12.59
-10.12
-5.56
3.74
18.77
38.38
59.74
79.59
95.64
107.4
116.19
124.22
133.35
144.35
156.65
168.72
178.46
183.67
182.09
171.59
150.57
118.73
77.74
31.51
-14.32
-53.67
-81.47
-94.98
-94.28
-81.99
-62.33
-39.93
-18.92
-2.47
7.41
9.76
4.72
-6.41
-21.35
-37.25
-51.41
-62.03
-68.35
-70.25
-67.48
-59.05
-43.29
-18.75
14.63
54.79
97.65
138.12
171.4
193.79
203.12
198.65
181.12
152.74
117.3
79.62
44.5
15.38
-6.66
-22.88
-35.95
-48.46
-61.72
-75.38
-87.95
-97.58
-102.89
-103.14
-98.16
-88.08
-73.49
-55.74
-37.2
-21.18
-11.17
-9.76
-17.72
-33.68
-54.5
-76.29
-95.35
-108.77
-114.65
-112.0
-100.76
-81.87
-57.38
-30.32
-4.32
17.12
31.38
37.27
35.18
26.77
14.4
0.55
-12.7
-24.01
-32.85
-39.3
-43.47
-45.08
-43.13
-36.08
-22.48
-1.51
25.89
56.87
87.27
113.03
131.37
141.46
144.26
141.73
136.55
130.68
125.18
120.45
116.99
115.82
118.41
125.95
138.98
157.72
180.75
205.16
226.96
242.58
249.54
246.78
234.1
212.17
183.54
151.06
117.49
84.79
54.76
28.57
6.58
-12.15
-34.69
-62.44
-91.45
-115.71
-132.45
-142.41
-149.78
-156.7
-163.73
-171.32
-180.0
-192.78
-210.89
-237.38
-273.65
-317.96
-364.84
-406.7
-435.66
-444.91
-431.67
-397.93
-350.18
-296.5
-244.48
-199.48
-164.24
-138.66
-119.81
-103.71
-86.68
-66.75
-43.53
-18.06
7.77
31.63
51.44
65.92
74.4
76.79
73.39
65.44
54.96
44.36
35.69
30.08
27.64
27.68
29.27
31.68
34.92
39.52
46.04
54.46
63.87
72.58
78.61
80.31
76.87
68.57
56.62
42.79
28.86
16.26
5.78
-2.47
-8.97
-14.52
-19.83
-25.09
-29.72
-32.25
-30.74
-23.52
-9.92
9.17
31.44
53.85
73.73
89.52
101.04
109.08
114.64
118.31
120.01
119.23
115.45
108.39
98.2
85.49
71.29
57.15
44.98
36.71
33.68
36.11
42.8
51.49
59.49
64.55
65.4
61.98
55.12
46.2
36.69
27.8
20.33
14.46
9.85
5.74
1.47
-3.17
-7.63
-10.7
-11.01
-7.65
-0.62
9.01
19.48
28.92
35.85
39.55
39.93
37.31
32.18
25.04
16.46
7.17
-2.03
-10.42
-17.65
-23.73
-28.89
-33.2
-36.26
-37.14
-34.75
-28.39
-18.27
-5.63
7.55
19.26
27.96
33.0
34.51
33.21
30.05
26.0
21.89
18.3
15.39
12.86
10.02
6.14
0.87
-5.42
-11.51
-15.68
-16.37
-12.79
-5.37
4.33
14.09
21.79
25.99
26.26
23.06
17.37
10.22
2.33
-5.95
-14.67
-24.04
-34.21
-45.0
-55.67
-64.91
-71.1
-72.82
-69.35
-61.07
-49.41
-36.5
-24.59
-15.6
-10.74
-10.48
-14.59
-22.23
-32.15
-42.92
-53.24
-62.26
-69.8
-76.16
-81.81
-86.83
-90.6
-91.86
-89.17
-81.57
-69.14
-53.18
-35.85
-19.54
-6.07
3.7
9.94
13.52
15.58
17.16
19.09
21.86
25.66
30.27
35.12
39.57
43.23
46.28
49.51
53.97
60.48
69.14
79.17
89.11
97.38
102.65
104.2
101.96
96.36
88.21
78.49
68.13
57.81
47.77
37.75
27.26
15.97
4.19
-6.9
-15.41
-19.36
-17.46
-9.77
2.17
15.76
28.16
37.12
41.52
41.38
37.58
31.26
23.52
15.16
6.62
-1.93
-10.72
-20.14
-30.55
-41.79
-52.87
-61.96
-66.88
-65.88
-58.46
-45.7
-29.95
-14.07
-0.4
9.79
16.45
20.35
22.52
23.77
24.51
24.81
24.55
23.5
21.38
17.94
13.14
7.33
1.43
-3.19
-5.16
-3.65
1.15
7.9
14.51
18.87
19.51
16.06
9.14
0.03
-9.92
-19.62
-28.43
-36.14
-42.96
-49.37
-55.88
-62.76
-69.66
-75.5
-78.65
-77.51
-71.21
-60.09
-45.78
-30.63
-17.02
-6.72
-0.51
1.69
0.56
-2.98
-7.95
-13.43
-18.63
-22.99
-26.32
-28.76
-30.62
-32.05
-32.76
-32.01
-28.9
-22.82
-13.82
-2.79
8.84
19.59
28.36
34.69
38.65
40.61
40.93
39.91
37.74
34.61
30.63
25.73
19.7
12.35
3.88
-4.84
-12.24
-16.49
-16.21
-11.08
-2.08
8.78
19.13
26.98
31.23
31.7
29.01
24.1
17.95
11.35
4.84
-1.37
-7.3
-13.16
-19.05
-24.71
-29.39
-31.84
-30.78
-25.41
-15.9
-3.56
9.47
20.91
28.98
32.88
32.81
29.65
24.57
18.68
12.89
7.84
3.88
0.93
-1.48
-4.0
-7.08
-10.57
-13.55
-14.6
-12.4
-6.36
2.95
13.94
24.51
32.69
37.24
37.83
34.94
29.57
22.82
15.62
8.49
1.49
-5.71
-13.52
-22.12
-31.09
-39.33
-45.26
-47.27
-44.35
-36.49
-24.76
-11.05
2.47
13.9
22.05
26.6
28.01
27.29
25.66
24.2
23.55
23.69
23.9
23.02
19.96
14.27
6.52
-1.72
-8.32
-11.43
-10.16
-4.98
2.47
9.97
15.51
17.9
16.93
13.21
7.71
1.4
-4.92
-10.68
-15.49
-19.23
-22.17
-24.92
-28.18
-32.32
-36.92
-40.68
-41.86
-38.99
-31.65
-20.79
-8.5
2.75
10.93
15.0
15.02
11.81
6.55
0.43
-5.59
-10.83
-14.95
-18.06
-20.64
-23.34
-26.59
-30.18
-33.14
-33.99
-31.38
-24.74
-14.74
-3.08
7.91
16.14
20.29
20.09
16.14
9.6
1.73
-6.3
-13.65
-19.81
-24.73
-28.72
-32.25
-35.61
-38.58
-40.24
-39.32
-34.66
-25.83
-13.51
0.62
14.45
26.1
34.48
39.36
41.14
40.47
37.93
33.99
29.02
23.38
17.34
11.04
4.49
-2.17
-8.42
-13.2
-15.08
-12.83
-5.97
4.78
17.61
30.15
40.23
46.46
48.52
46.96
42.78
37.07
30.68
24.14
17.65
11.19
4.55
-2.47
-9.74
-16.67
-22.07
-24.55
-22.95
-16.97
-7.44
3.82
14.57
22.81
27.31
27.79
24.72
18.99
11.61
3.48
-4.61
-12.12
-18.8
-24.77
-30.33
-35.67
-40.48
-43.86
-44.51
-41.31
-33.91
-23.12
-10.75
0.99
10.2
15.83
17.79
16.74
13.69
9.63
5.4
1.63
-1.32
-3.42
-5.02
-6.68
-8.82
-11.36
-13.53
-14.03
-11.5
-5.16
4.73
16.78
28.81
38.49
44.0
44.52
40.22
32.14
21.74
10.52
-0.19
-9.39
-16.51
-21.48
-24.7
-26.98
-29.14
-31.65
-34.34
-36.4
-36.78
-34.69
-30.13
-23.93
-17.48
-12.21
-9.05
-8.29
-9.65
-12.52
-16.27
-20.37
-24.48
-28.44
-32.34
-36.47
-41.19
-46.63
-52.39
-57.46
-60.38
-59.77
-54.93
-46.17
-34.83
-22.76
-11.66
-2.58
4.23
9.1
12.55
15.01
16.76
17.98
18.8
19.29
19.3
18.48
16.56
13.7
10.76
9.23
10.78
16.5
26.31
38.82
51.79
62.88
70.39
73.62
72.82
68.75
62.29
54.13
44.77
34.54
23.67
12.3
0.64
-10.89
-21.39
-29.53
-33.71
-32.67
-26.09
-15.0
-1.61
11.3
21.18
26.44
26.61
22.23
14.32
4.04
-7.53
-19.45
-30.97
-41.69
-51.63
-61.18
-70.7
-79.99
-87.87
-92.28
-90.95
-82.31
-66.38
-44.89
-20.86
2.38
22.12
36.87
46.26
50.79
51.33
48.84
44.21
38.3
31.9
25.58
19.56
13.72
7.86
2.13
-2.7
-5.24
-3.97
2.05
12.59
26.06
39.96
51.65
59.14
61.55
59.11
52.77
43.8
33.47
22.81
12.55
3.01
-5.9
-14.53
-23.22
-31.86
-39.66
-45.17
-46.72
-43.04
-33.89
-20.35
-4.57
10.8
23.39
31.67
35.17
34.33
30.16
23.77
16.19
8.19
0.23
-7.66
-15.76
-24.53
-34.15
-44.11
-52.97
-58.6
-58.94
-52.84
-40.71
-24.47
-6.9
9.25
22.07
30.75
35.41
36.65
35.19
31.68
26.75
20.95
14.66
7.88
0.29
-8.46
-18.14
-27.58
-34.62
-36.82
-32.43
-21.3
-5.18
12.76
28.92
40.46
45.94
45.42
40.05
31.39
20.91
9.75
-1.42
-12.33
-23.08
-33.99
-45.22
-56.39
-66.3
-73.06
-74.64
-69.59
-57.82
-40.76
-21.05
-1.8
14.35
25.74
31.92
33.31
30.89
25.77
18.95
11.21
2.94
-5.87
-15.5
-26.13
-37.37
-47.93
-55.61
-57.92
-53.01
-40.5
-21.92
-0.4
20.32
36.95
47.57
51.89
50.96
46.48
40.19
33.4
26.89
20.92
15.3
9.58
3.21
-3.96
-11.36
-17.45
-20.03
-16.97
-7.17
8.74
28.37
48.17
64.6
75.13
78.83
76.29
69.14
59.38
48.91
39.2
31.14
24.94
20.02
15.32
9.8
3.17
-3.59
-8.26
-7.98
-0.42
15.3
38.05
65.0
92.38
116.39
133.94
143.1
143.19
134.75
119.41
99.5
77.51
55.43
34.16
13.43
-7.78
-30.35
-54.09
-77.27
-96.94
-109.93
-114.13
-109.45
-97.97
-83.28
-69.21
-58.59
-52.65
-51.03
-52.45
-55.35
-58.46
-60.92
-62.26
-62.35
-61.52
-60.54
-60.44
-61.98
-65.03
-68.2
-69.03
-64.8
-53.7
-35.68
-12.6
12.27
35.39
53.91
66.29
72.29
72.65
68.61
61.61
53.05
44.14
35.7
27.89
20.22
11.81
2.03
-8.88
-19.44
-27.19
-29.46
-24.54
-12.48
4.61
23.26
39.67
50.98
55.96
55.02
49.8
42.33
34.45
27.42
21.85
17.71
14.4
11.06
6.97
2.11
-2.37
-4.18
-0.46
11.08
31.03
57.54
86.63
113.18
132.47
141.41
139.14
126.71
106.34
80.61
51.94
22.45
-6.06
-32.2
-55.28
-75.38
-93.1
-108.89
-122.33
-131.88
-135.33
-130.92
-118.4
-99.64
-78.13
-57.84
-41.81
-31.4
-26.29
-25.1
-26.27
-28.64
-31.5
-34.45
-37.26
-39.83
-42.28
-44.77
-47.2
-48.7
-47.63
-41.99
-30.37
-12.84
8.77
31.31
51.43
66.59
75.65
78.64
76.23
69.16
58.15
44.09
28.36
12.64
-1.67
-14.2
-25.79
-37.94
-51.69
-66.54
-80.16
-89.24
-91.01
-84.77
-72.52
-58.37
-46.99
-41.99
-44.84
-54.75
-69.41
-85.88
-101.52
-114.36
-123.38
-128.47
-130.3
-130.09
-128.93
-127.16
-123.85
-116.94
-103.91
-83.03
-54.38
-20.26
15.34
47.94
73.93
91.44
100.46
102.39
99.18
92.81
84.93
76.86
69.45
62.95
56.81
49.93
41.28
30.7
19.63
10.85
7.65
12.33
25.07
43.53
63.6
80.77
91.61
94.57
90.04
79.7
65.79
50.44
35.38
21.8
10.21
0.36
-8.71
-18.29
-29.18
-40.92
-51.39
-57.18
-54.86
-42.42
-20.46
7.73
37.12
62.58
80.4
89.08
89.14
82.44
71.26
57.81
43.97
31.3
20.9
13.13
7.44
2.42
-3.52
-11.33
-20.43
-28.62
-32.69
-29.79
-18.74
-0.78
20.71
41.39
57.41
66.51
68.31
63.84
54.85
43.13
30.15
17.04
4.55
-6.98
-17.77
-28.46
-39.65
-51.29
-62.19
-70.02
-72.03
-66.15
-51.98
-31.32
-7.69
14.69
32.22
42.84
46.33
43.84
37.18
28.1
17.92
7.45
-2.93
-13.2
-23.7
-34.86
-46.85
-59.12
-70.06
-77.22
-78.06
-71.03
-56.29
-35.93
-13.33
7.92
24.98
36.33
41.69
41.72
37.54
30.51
22.05
13.46
5.66
-1.05
-7.03
-13.04
-19.76
-27.25
-34.71
-40.62
-43.22
-41.21
-34.28
-23.22
-9.74
4.07
16.25
25.36
30.69
32.16
30.23
25.77
19.84
13.47
7.25
1.18
-5.36
-13.15
-22.55
-32.88
-42.39
-48.65
-49.51
-43.89
-32.27
-16.57
0.51
16.28
28.74
36.8
40.25
39.48
35.26
28.48
20.07
10.86
1.4
-8.19
-18.23
-29.23
-41.42
-54.09
-65.4
-72.7
-73.33
-65.81
-50.56
-30.0
-7.84
12.09
26.98
35.56
38.08
35.7
29.91
22.09
13.27
4.13
-5.08
-14.52
-24.57
-35.39
-46.34
-55.56
-60.16
-57.04
-44.16
-21.62
7.9
39.85
69.07
91.36
104.45
108.18
103.98
94.07
80.79
66.12
51.6
38.21
26.22
15.13
3.87
-8.54
-22.22
-35.72
-46.14
-50.02
-44.82
-30.28
-8.82
15.07
36.34
51.08
57.53
56.2
49.13
38.83
27.42
16.31
6.18
-2.78
-10.76
-18.36
-26.48
-36.0
-47.15
-58.88
-68.67
-73.04
-68.83
-54.63
-31.62
-3.49
24.77
48.45
64.52
72.13
72.22
66.63
57.34
45.98
33.8
21.75
10.42
-0.11
-10.35
-21.11
-32.92
-45.34
-56.58
-63.84
-64.28
-56.32
-40.49
-19.5
2.48
21.32
34.05
39.55
38.41
32.2
22.82
11.93
0.88
-9.36
-18.25
-25.78
-32.55
-39.41
-46.77
-54.0
-59.18
-59.56
-52.76
-37.9
-16.29
8.9
33.63
54.29
68.62
75.98
76.95
72.75
64.81
54.48
42.99
31.37
20.23
9.46
-1.67
-14.09
-28.13
-42.74
-55.32
-62.35
-60.81
-49.59
-30.24
-6.67
16.22
34.19
44.81
47.75
44.14
35.69
24.09
10.83
-2.73
-15.37
-26.25
-35.32
-43.39
-51.59
-60.46
-69.09
-75.01
-74.95
-66.35
-48.73
-24.28
2.76
27.59
46.47
57.66
61.43
59.28
52.91
43.68
32.51
20.28
8.0
-3.31
-13.12
-21.69
-29.74
-37.8
-45.21
-49.93
-49.1
-40.43
-23.62
-0.79
24.09
46.72
63.89
74.31
78.33
77.21
72.33
64.94
56.26
47.67
40.67
36.26
34.41
33.9
32.83
29.77
24.84
20.13
19.07
24.89
38.94
59.78
83.39
104.58
118.85
123.78
119.43
107.67
91.05
71.87
51.76
31.83
12.96
-4.16
-19.34
-33.08
-46.49
-60.55
-75.18
-88.5
-97.17
-97.54
-87.34
-67.07
-40.11
-11.7
12.9
30.09
38.72
39.78
35.31
27.32
17.24
5.97
-5.67
-16.78
-26.58
-34.91
-42.5
-50.63
-60.14
-70.42
-78.96
-81.98
-76.06
-59.85
-35.04
-5.99
21.71
43.17
55.47
58.09
52.28
40.14
23.85
5.26
-14.17
-33.21
-50.96
-67.07
-81.8
-95.79
-109.45
-122.09
-131.62
-134.84
-128.69
-111.73
-85.17
-52.82
-20.01
8.19
28.53
40.12
44.14
42.76
38.19
32.07
25.51
19.23
13.65
8.75
3.99
-1.55
-8.59
-16.85
-24.53
-28.62
-25.95
-14.6
4.93
29.62
54.85
75.93
89.59
94.75
92.2
83.88
72.0
58.44
44.61
31.57
20.01
10.1
1.34
-7.42
-17.43
-29.31
-42.19
-53.6
-60.05
-58.44
-47.45
-28.38
-4.91
18.13
36.32
46.95
49.45
45.02
35.7
23.66
10.64
-2.05
-13.48
-23.15
-31.13
-38.17
-45.43
-53.86
-63.29
-71.91
-76.5
-73.53
-60.8
-38.65
-10.24
19.41
45.07
63.03
71.88
72.41
66.67
56.97
45.18
32.6
20.12
8.3
-2.66
-13.21
-24.27
-36.73
-50.64
-64.42
-74.91
-78.34
-71.89
-55.22
-31.07
-4.48
18.87
34.59
40.74
37.95
28.47
15.15
0.48
-13.73
-26.3
-36.61
-44.71
-51.42
-58.09
-66.06
-75.61
-85.33
-92.18
-92.46
-83.38
-64.54
-38.37
-9.48
16.96
36.89
48.51
52.31
50.35
45.24
39.28
34.15
30.96
30.37
32.57
37.09
42.75
47.91
51.21
52.52
53.37
56.61
65.07
80.0
100.02
121.22
138.41
146.91
144.02
129.51
105.28
74.36
40.11
5.65
-26.25
-53.41
-74.46
-89.17
-98.64
-104.9
-110.07
-115.37
-120.31
-122.72
-119.56
-108.26
-88.1
-60.79
-30.08
-0.61
23.59
40.18
48.73
50.33
46.8
40.06
31.77
23.29
15.63
9.31
4.14
-0.75
-6.61
-14.42
-24.03
-33.87
-41.16
-42.93
-37.21
-24.06
-5.7
14.14
31.56
43.64
49.16
48.43
42.75
33.69
22.62
10.65
-1.35
-12.75
-23.37
-33.56
-44.06
-55.29
-66.62
-75.86
-79.64
-74.66
-59.21
-34.32
-3.82
26.84
52.29
68.86
75.43
73.1
64.23
51.45
36.95
22.26
8.36
-4.25
-15.65
-26.51
-37.81
-50.13
-62.87
-73.72
-79.18
-75.76
-61.61
-37.73
-7.88
22.5
48.15
65.47
73.28
72.44
65.01
53.32
39.5
25.25
11.9
0.19
-9.95
-19.45
-29.64
-41.34
-53.92
-64.8
-70.08
-65.99
-50.62
-25.13
6.4
38.21
64.83
82.7
90.8
90.34
83.64
73.22
61.14
48.96
37.74
28.08
19.98
12.69
4.92
-4.5
-15.71
-27.18
-35.82
-37.98
-31.07
-14.83
8.11
33.02
54.55
68.49
72.79
67.69
55.12
37.74
18.23
-1.13
-18.6
-33.05
-44.08
-52.18
-58.68
-65.29
-73.25
-82.43
-90.79
-94.69
-90.14
-74.49
-47.76
-13.03
24.4
58.75
85.46
102.3
109.46
108.85
103.1
94.78
85.86
77.58
70.38
63.8
56.57
46.88
32.99
14.09
-8.93
-33.23
-54.56
-68.61
-72.47
-65.82
-51.06
-32.45
-14.59
-0.98
6.68
8.46
5.48
-0.81
-9.08
-18.31
-27.74
-36.93
-45.89
-55.04
-64.85
-75.25
-84.97
-91.47
-91.52
-82.51
-63.65
-36.74
-5.85
23.96
48.11
63.8
70.46
69.35
62.68
52.77
41.54
30.4
20.28
11.62
4.19
-2.88
-10.7
-19.95
-29.93
-38.28
-41.49
-36.29
-21.27
2.08
29.63
55.91
75.97
86.87
88.19
81.53
69.47
54.66
39.19
24.58
11.76
1.1
-7.76
-15.86
-24.5
-34.45
-45.01
-53.75
-57.04
-51.58
-35.95
-11.68
17.01
44.62
66.26
79.14
82.98
79.48
71.09
60.11
48.2
36.43
25.55
15.99
7.77
0.2
-7.83
-17.34
-28.29
-38.99
-46.22
-46.3
-36.69
-17.34
8.86
36.92
61.4
78.16
85.46
83.92
75.78
63.78
50.38
37.39
25.96
16.74
9.79
4.51
-0.33
-6.14
-13.84
-22.94
-31.18
-34.95
-30.51
-15.64
9.12
40.21
72.06
98.84
116.2
122.33
117.93
105.32
87.4
66.77
45.42
24.77
5.77
-11.26
-26.68
-41.49
-56.89
-73.38
-89.96
-103.99
-111.97
-111.11
-100.78
-83.21
-62.92
-45.11
-33.87
-30.97
-35.78
-46.11
-59.32
-73.25
-86.45
-98.1
-107.74
-115.28
-121.08
-125.94
-130.64
-135.33
-138.82
-138.68
-131.98
-116.58
-92.35
-61.61
-28.54
2.23
27.05
44.17
53.79
57.36
56.78
53.77
49.71
45.66
42.42
40.24
38.63
36.35
31.99
24.9
16.12
8.58
6.27
12.53
28.39
51.68
77.48
99.89
114.04
117.58
111.01
96.83
78.21
57.83
37.42
17.91
-0.15
-16.38
-30.6
-43.11
-54.6
-65.7
-76.15
-84.25
-87.12
-81.83
-66.95
-43.69
-15.97
10.8
31.62
43.49
46.05
41.07
31.22
18.97
6.0
-6.6
-18.08
-27.75
-35.28
-40.99
-46.01
-51.84
-59.38
-67.93
-74.9
-76.51
-69.33
-51.98
-26.11
4.02
32.91
55.71
69.57
74.03
70.47
61.12
48.26
33.73
18.99
5.19
-6.87
-16.97
-25.58
-33.78
-42.64
-52.36
-61.67
-67.88
-67.84
-59.37
-42.53
-19.98
3.75
23.84
36.86
41.67
39.35
32.25
22.84
12.89
3.3
-5.64
-13.93
-21.73
-29.44
-37.72
-47.17
-57.75
-68.09
-75.48
-76.53
-68.59
-51.07
-26.1
2.02
28.24
48.4
60.34
63.92
60.38
51.45
38.81
24.06
8.85
-5.07
-16.24
-24.05
-28.97
-32.24
-34.93
-37.02
-36.93
-32.09
-20.28
-0.99
23.86
50.28
73.61
90.11
98.08
98.09
92.21
83.06
72.9
63.26
55.0
48.44
43.37
39.01
34.12
27.4
18.3
7.72
-1.86
-7.04
-4.85
5.84
23.62
44.87
64.97
79.86
87.27
87.05
80.74
70.67
59.15
47.9
37.97
29.7
22.86
16.65
9.85
1.19
-10.1
-23.54
-37.03
-47.16
-50.21
-43.55
-26.93
-2.86
24.06
48.57
66.4
75.32
75.41
68.37
56.67
42.67
28.14
14.18
1.32
-10.4
-21.31
-32.11
-43.5
-55.75
-68.21
-78.98
-85.29
-84.39
-74.67
-56.63
-32.93
-7.61
15.27
33.0
44.84
51.84
55.85
58.56
60.75
62.25
62.39
60.42
55.81
48.14
37.04
22.32
4.36
-15.37
-34.33
-49.46
-58.33
-60.24
-56.64
-50.58
-45.5
-43.94
-46.78
-53.43
-62.53
-72.73
-83.05
-92.85
-101.49
-108.29
-112.77
-115.06
-116.04
-116.99
-118.83
-121.24
-122.41
-119.49
-109.83
-92.2
-67.53
-38.76
-9.82
15.56
34.86
47.05
52.4
51.94
47.01
38.98
29.16
18.66
8.26
-1.78
-11.72
-21.99
-32.71
-43.14
-51.54
-55.58
-53.21
-43.58
-27.6
-7.79
12.51
30.18
43.12
50.65
53.18
51.79
47.75
42.25
36.25
30.45
25.12
19.99
14.36
7.46
-1.01
-10.29
-18.47
-22.95
-21.45
-12.96
1.64
19.72
37.84
52.8
62.61
66.7
65.69
60.78
53.24
44.19
34.55
25.13
16.45
8.61
1.1
-6.96
-16.21
-26.45
-36.16
-42.79
-43.66
-37.1
-23.35
-4.66
15.5
33.56
47.04
54.94
57.59
56.05
51.48
44.95
37.38
29.59
22.3
15.79
9.65
2.87
-5.71
-16.65
-29.1
-40.67
-47.97
-47.89
-38.93
-22.02
-0.41
21.43
39.35
50.79
55.26
53.95
48.87
41.95
34.62
27.7
21.59
16.4
11.85
7.19
1.21
-7.29
-18.82
-32.55
-46.02
-55.8
-58.55
-52.4
-37.78
-17.4
4.73
24.58
39.36
48.03
51.09
50.01
46.48
41.96
37.46
33.59
30.46
27.64
24.22
19.06
11.37
1.33
-9.48
-18.43
-22.56
-19.81
-9.97
5.17
22.28
37.74
48.66
53.63
52.71
46.95
37.86
26.96
15.59
4.9
-4.31
-11.77
-17.94
-23.84
-30.62
-38.71
-47.3
-54.17
-56.39
-51.44
-38.42
-18.51
5.29
29.3
50.25
66.1
76.12
80.34
79.16
73.11
62.97
49.95
35.57
21.19
7.37
-6.34
-21.05
-37.47
-54.92
-70.98
-82.08
-85.0
-78.32
-63.29
-43.43
-23.29
-6.89
3.41
7.17
5.33
-0.64
-9.35
-19.68
-30.76
-41.81
-52.23
-61.82
-71.06
-80.75
-91.5
-102.91
-113.23
-119.76
-119.86
-112.18
-97.5
-78.56
-59.14
-42.68
-31.37
-25.78
-25.31
-28.77
-34.93
-42.64
-50.84
-58.52
-64.85
-69.49
-72.73
-75.33
-78.07
-81.1
-83.39
-82.81
-76.73
-63.08
-41.5
-13.74
16.56
45.0
67.73
82.52
89.11
88.78
83.56
75.48
66.11
56.52
47.36
38.9
31.0
23.02
14.09
3.51
-8.51
-20.5
-29.73
-33.16
-28.49
-15.32
4.59
27.82
50.41
69.11
82.17
89.39
91.64
90.14
85.98
79.92
72.43
63.76
53.94
42.76
29.89
15.3
-0.23
-14.89
-25.92
-30.48
-26.68
-14.49
3.97
24.98
44.47
59.14
67.3
68.98
65.36
58.17
49.08
39.4
30.04
21.37
13.13
4.31
-6.56
-20.75
-38.41
-57.83
-75.57
-87.38
-89.79
-81.52
-64.11
-41.39
-18.04
1.88
15.98
23.63
25.43
22.46
15.85
6.62
-4.26
-15.84
-27.44
-38.88
-50.43
-62.39
-74.46
-85.17
-92.02
-92.17
-83.66
-66.41
-42.64
-16.27
8.26
27.32
38.97
43.15
41.17
34.93
26.32
16.72
6.96
-2.69
-12.48
-23.07
-35.16
-49.01
-63.76
-77.13
-85.71
-85.89
-75.23
-53.54
-23.3
10.95
43.96
71.18
89.8
99.07
99.94
94.32
84.46
72.39
59.77
47.68
36.61
26.4
16.33
5.54
-6.29
-18.35
-28.41
-33.26
-29.82
-16.52
5.69
33.32
61.28
84.51
99.52
105.14
102.38
93.46
80.88
66.68
52.26
38.48
25.78
14.2
3.31
-7.61
-19.11
-30.86
-41.14
-46.97
-45.0
-32.94
-10.82
18.58
50.35
79.02
100.18
111.63
113.49
107.5
96.08
81.47
65.44
49.26
33.84
19.7
6.85
-5.34
-17.84
-31.38
-45.72
-59.18
-68.97
-72.04
-66.49
-52.49
-32.58
-10.9
8.13
21.2
26.84
25.45
18.55
8.08
-4.27
-17.19
-29.66
-40.84
-50.19
-57.72
-64.06
-70.15
-76.65
-83.13
-87.79
-87.89
-80.81
-65.33
-42.39
-15.11
12.27
35.63
52.1
60.59
61.52
56.3
46.63
34.12
20.16
5.83
-8.11
-21.39
-34.22
-47.07
-60.11
-72.63
-82.67
-87.4
-84.08
-71.27
-49.76
-22.63
5.68
30.73
49.31
60.04
63.19
60.03
52.15
41.11
28.33
15.11
2.42
-9.28
-20.21
-31.06
-42.39
-53.86
-63.82
-69.51
-67.94
-57.1
-37.08
-10.25
19.22
46.66
68.13
81.36
85.96
83.0
74.38
62.21
48.44
34.61
21.79
10.34
-0.06
-10.27
-21.11
-32.6
-43.39
-50.88
-51.99
-44.53
-28.32
-5.62
19.43
42.24
59.08
68.1
69.33
64.11
54.25
41.45
27.03
12.07
-2.52
-16.02
-28.16
-39.07
-49.14
-58.37
-65.84
-69.49
-66.65
-55.17
-34.64
-7.09
23.4
51.84
73.99
87.48
92.14
89.45
81.47
70.14
56.94
42.94
29.06
16.09
4.35
-6.49
-17.34
-29.1
-41.71
-53.54
-61.54
-62.26
-53.43
-35.14
-10.28
16.38
39.79
56.21
64.17
64.3
58.55
49.14
37.83
25.75
13.55
1.64
-9.75
-20.64
-31.33
-42.04
-52.35
-60.74
-64.62
-61.05
-48.04
-25.68
3.33
34.29
61.9
81.84
91.91
92.23
84.65
71.77
56.12
39.66
23.78
9.29
-3.43
-14.58
-24.9
-35.31
-46.31
-57.21
-65.88
-69.11
-63.84
-48.62
-24.6
4.53
33.64
57.86
74.02
81.17
80.27
73.29
62.32
49.19
35.43
22.3
10.85
1.6
-5.66
-11.91
-18.43
-26.04
-34.25
-41.09
-43.54
-38.82
-25.7
-5.38
18.62
41.62
59.31
69.05
70.37
64.61
54.02
40.9
27.1
13.87
2.02
-8.1
-16.62
-24.28
-32.24
-41.61
-52.77
-64.64
-74.63
-79.27
-75.48
-61.93
-39.89
-13.03
13.69
35.57
49.5
54.45
51.23
41.81
28.58
13.89
-0.18
-12.04
-20.8
-26.53
-30.32
-33.79
-38.41
-44.58
-51.16
-55.66
-55.13
-47.4
-32.15
-11.3
11.56
32.26
47.36
55.04
55.27
49.4
39.39
27.18
14.31
1.84
-9.52
-19.52
-28.37
-36.68
-45.23
-54.39
-63.52
-70.74
-73.37
-68.86
-56.03
-35.86
-11.39
13.09
33.38
46.61
51.78
49.63
42.01
31.08
18.84
6.8
-3.93
-12.73
-19.56
-24.99
-30.12
-36.07
-43.33
-51.08
-57.15
-58.6
-52.89
-39.05
-18.31
6.13
30.14
49.95
63.15
69.0
68.13
61.97
52.18
40.29
27.64
15.27
3.74
-6.96
-17.44
-28.51
-40.54
-52.9
-63.6
-69.79
-68.7
-58.92
-41.16
-18.33
5.36
25.68
39.64
46.11
45.73
40.26
31.84
22.35
13.25
5.44
-0.65
-5.17
-8.76
-12.4
-16.82
-21.96
-26.55
-28.31
-24.78
-14.42
2.46
23.5
44.97
62.97
74.73
79.26
77.31
70.65
61.22
50.56
39.55
28.57
17.67
6.72
-4.7
-17.14
-31.01
-46.06
-60.95
-73.29
-80.27
-79.75
-71.26
-56.44
-38.54
-21.36
-8.04
-0.12
2.58
1.5
-1.38
-4.23
-5.86
-5.82
-4.33
-2.15
-0.33
-0.03
-2.29
-7.65
-15.78
-25.13
-33.09
-36.57
-33.08
-21.78
-4.02
16.96
37.1
52.83
62.1
64.68
61.81
55.43
47.45
39.34
31.99
25.78
20.67
16.24
11.66
5.87
-2.12
-12.63
-24.85
-36.7
-45.38
-48.32
-44.24
-33.83
-19.5
-4.57
7.85
15.79
18.69
17.12
12.27
5.49
-1.97
-9.06
-15.01
-19.45
-22.56
-25.14
-28.33
-33.17
-39.97
-47.85
-54.76
-58.0
-55.26
-45.56
-29.82
-10.67
8.4
24.2
34.67
39.21
38.42
33.6
26.17
17.46
8.62
0.51
-6.43
-12.41
-18.25
-25.15
-33.94
-44.41
-54.88
-62.49
-64.09
-57.45
-42.23
-20.31
4.76
28.93
48.71
62.03
68.3
68.13
62.76
53.73
42.57
30.77
19.49
9.3
-0.05
-9.54
-20.32
-32.78
-45.9
-57.08
-62.97
-60.78
-49.61
-31.02
-8.6
13.25
30.79
41.87
46.15
44.56
38.56
29.59
18.85
7.45
-3.58
-13.4
-21.75
-29.15
-36.66
-45.08
-54.11
-61.85
-65.23
-61.17
-48.08
-26.76
-0.41
26.48
49.57
66.01
74.95
77.24
74.7
69.24
62.43
55.28
48.37
41.91
35.83
29.66
22.64
14.05
3.8
-7.03
-16.05
-20.2
-16.92
-5.39
12.76
33.91
53.61
68.05
75.19
74.91
68.55
58.1
45.56
32.55
20.2
9.13
-0.58
-9.48
-18.6
-29.13
-41.9
-56.78
-72.26
-85.51
-93.03
-91.85
-80.63
-60.43
-34.49
-7.27
16.95
35.22
46.43
51.03
50.39
46.06
39.41
31.49
23.12
14.88
6.97
-0.88
-9.39
-19.38
-31.2
-44.23
-56.59
-65.54
-68.3
-63.18
-50.4
-32.27
-12.46
5.17
17.75
24.15
24.85
21.33
15.25
7.89
-0.07
-8.33
-16.8
-25.52
-34.62
-44.37
-54.86
-65.63
-75.28
-81.52
-81.7
-73.86
-57.59
-34.5
-7.9
18.24
40.31
56.04
64.65
66.61
63.14
55.65
45.53
34.03
22.16
10.57
-0.61
-11.89
-24.05
-37.53
-51.67
-64.36
-72.45
-72.73
-63.38
-44.91
-20.31
5.93
29.19
46.18
55.61
58.01
54.94
48.16
39.07
28.67
17.77
7.15
-2.57
-11.22
-19.13
-26.78
-34.01
-39.46
-40.57
-34.47
-19.41
4.03
32.72
61.88
86.71
103.91
112.45
113.22
108.14
99.24
88.07
75.79
63.24
51.13
39.86
29.29
18.7
7.01
-6.46
-21.23
-35.26
-45.3
-47.99
-41.27
-25.49
-3.56
19.95
40.32
54.11
60.03
58.73
52.12
42.35
31.26
20.07
9.5
-0.01
-8.27
-15.35
-21.7
-28.1
-35.31
-43.57
-52.0
-58.54
-60.38
-55.1
-41.71
-21.36
2.8
26.69
46.52
59.92
66.21
66.19
61.33
53.26
43.35
32.76
22.49
13.37
5.89
-0.03
-5.21
-10.91
-18.3
-27.59
-37.59
-45.73
-48.93
-44.8
-32.79
-14.53
6.55
26.47
41.97
51.27
54.25
51.86
45.54
36.62
26.1
14.71
2.98
-8.67
-20.04
-31.12
-42.02
-52.72
-62.7
-70.72
-74.9
-73.28
-64.58
-48.96
-28.27
-5.78
14.74
30.07
38.41
39.59
34.75
25.66
14.13
1.54
-11.11
-23.23
-34.56
-45.19
-55.5
-65.9
-76.28
-85.65
-92.01
-92.88
-86.3
-71.74
-50.6
-26.01
-1.76
18.7
33.25
41.33
43.65
41.55
36.52
29.76
22.25
14.7
7.59
0.99
-5.55
-12.91
-21.97
-32.88
-44.48
-54.25
-59.0
-56.11
-44.78
-26.6
-5.15
15.17
30.56
38.83
39.68
34.25
24.42
12.15
-0.85
-13.21
-23.93
-32.49
-38.91
-43.86
-48.38
-53.41
-59.07
-64.21
-66.43
-62.92
-51.59
-32.16
-6.65
21.18
47.0
67.31
80.35
86.17
85.98
81.3
73.32
62.81
50.33
36.5
22.04
7.52
-6.85
-21.27
-35.88
-50.12
-62.39
-70.12
-70.55
-61.89
-44.24
-19.81
7.58
33.61
54.65
68.53
74.74
74.07
68.06
58.4
46.64
33.99
21.33
9.18
-2.36
-13.63
-25.23
-37.59
-50.44
-62.49
-71.43
-74.65
-70.16
-57.53
-38.33
-15.71
6.46
24.82
37.26
43.31
43.78
40.17
34.08
26.73
18.85
10.72
2.37
-6.4
-15.87
-26.37
-37.9
-49.78
-60.3
-66.93
-66.96
-58.54
-41.58
-18.1
8.29
33.52
54.18
68.39
75.9
77.65
75.11
69.71
62.56
54.43
45.92
37.49
29.49
21.95
14.51
6.53
-2.46
-12.19
-21.3
-27.49
-28.34
-22.32
-9.64
7.54
25.79
41.47
51.79
55.47
52.74
44.95
33.98
21.74
9.88
-0.56
-9.11
-15.99
-22.07
-28.58
-36.84
-47.65
-60.73
-74.43
-85.87
-91.67
-89.08
-77.03
-56.69
-31.13
-4.34
19.87
38.87
51.4
57.48
57.85
53.64
46.11
36.57
26.31
16.38
7.39
-0.73
-8.66
-17.4
-27.54
-38.72
-49.26
-56.53
-57.82
-51.47
-37.68
-18.67
2.0
20.54
33.96
40.78
41.07
36.06
27.57
17.43
7.14
-2.46
-11.19
-19.46
-28.15
-38.17
-50.02
-63.34
-76.58
-87.01
-91.36
-86.8
-71.96
-47.69
-16.97
15.89
46.5
71.49
89.13
99.26
102.72
100.83
95.02
86.78
77.53
68.53
60.45
53.17
45.69
36.56
24.72
10.39
-4.57
-16.98
-23.4
-21.55
-11.3
5.13
23.94
41.09
53.56
59.99
60.61
56.58
49.17
39.41
27.92
15.21
1.84
-11.62
-24.78
-37.74
-51.0
-65.16
-80.18
-94.75
-106.27
-111.41
-107.4
-93.21
-70.24
-42.08
-13.31
11.9
30.84
42.62
47.75
47.45
42.98
35.52
26.12
15.92
5.97
-2.94
-10.73
-18.05
-26.05
-35.78
-47.41
-59.72
-70.28
-76.11
-74.88
-65.87
-50.47
-31.78
-13.6
0.75
9.3
11.65
8.68
1.77
-7.7
-18.7
-30.51
-42.56
-54.27
-65.13
-74.81
-83.33
-90.91
-97.57
-102.66
-104.53
-100.83
-89.33
-68.97
-40.65
-7.31
26.83
57.46
81.3
96.75
103.79
103.53
97.59
87.65
75.28
61.86
48.54
36.1
24.7
13.89
2.73
-9.57
-22.99
-36.19
-46.65
-51.32
-47.81
-35.42
-15.52
8.77
33.52
55.15
71.14
80.31
82.56
78.48
69.1
55.68
39.69
22.85
6.87
-6.76
-17.13
-24.07
-28.04
-29.6
-28.87
-25.2
-17.37
-4.26
14.22
36.7
60.42
82.06
98.76
108.81
111.85
108.57
100.21
88.14
73.7
58.07
42.2
26.7
11.73
-2.95
-17.78
-33.01
-48.26
-62.24
-72.79
-77.38
-73.92
-61.61
-41.57
-16.7
9.0
31.5
47.85
56.63
57.92
52.92
43.29
30.82
17.11
3.55
-8.87
-19.66
-28.93
-37.37
-45.89
-55.05
-64.48
-72.53
-76.48
-73.47
-61.65
-41.15
-14.36
14.67
41.47
62.38
75.45
80.53
78.81
72.16
62.52
51.57
40.59
30.39
21.31
13.16
5.19
-3.68
-14.38
-27.04
-40.48
-52.09
-58.43
-56.46
-44.77
-24.46
0.98
26.73
48.12
61.98
67.23
64.68
56.28
44.33
30.95
17.76
5.91
-4.05
-12.13
-19.02
-25.87
-33.91
-43.76
-54.83
-65.02
-71.15
-69.95
-59.29
-39.21
-12.09
17.93
46.19
68.81
83.58
90.13
89.56
83.75
74.72
64.26
53.72
43.97
35.37
27.75
20.47
12.46
2.57
-9.91
-24.64
-39.85
-52.46
-58.95
-56.59
-44.68
-25.05
-1.63
20.85
38.29
48.34
50.69
46.54
37.79
26.3
13.52
0.48
-12.03
-23.45
-33.6
-42.84
-52.05
-62.36
-74.48
-87.94
-100.76
-109.77
-111.54
-103.74
-86.22
-61.31
-33.16
-6.5
14.83
28.73
35.04
34.98
30.35
22.91
14.04
4.77
-4.08
-11.86
-18.27
-23.5
-28.36
-33.94
-40.98
-49.16
-56.74
-60.86
-58.48
-47.64
-28.44
-3.22
24.01
48.88
67.91
79.26
82.93
80.26
73.2
63.71
53.32
43.05
33.4
24.43
15.72
6.43
-4.37
-17.13
-31.14
-44.16
-52.77
-53.41
-43.86
-24.32
2.36
31.51
58.16
78.45
90.53
94.44
91.51
83.59
72.45
59.64
46.42
33.76
22.29
12.1
2.65
-7.13
-18.44
-31.81
-46.54
-60.36
-69.96
-72.08
-64.86
-48.77
-26.63
-2.75
18.53
33.96
42.08
43.02
38.0
28.68
16.77
3.9
-8.51
-19.32
-27.89
-34.28
-39.25
-44.13
-50.25
-58.27
-67.57
-76.02
-80.46
-77.75
-65.95
-45.28
-18.22
11.24
38.77
60.94
75.91
83.46
84.58
80.82
73.8
64.94
55.34
45.83
36.85
28.46
20.24
11.29
0.62
-12.36
-27.12
-41.78
-53.38
-58.8
-55.99
-44.77
-27.12
-6.46
13.35
29.11
38.94
42.32
39.77
32.44
21.72
9.06
-4.22
-17.02
-28.69
-39.22
-49.23
-59.84
-71.98
-85.64
-99.21
-109.55
-112.8
-105.84
-87.68
-60.14
-27.48
5.03
32.64
52.37
63.34
66.37
63.09
55.35
44.73
32.52
19.81
7.45
-4.13
-14.97
-25.6
-36.61
-48.0
-58.65
-66.28
-68.1
-61.89
-47.11
-25.38
-0.01
25.06
46.63
62.99
74.08
80.9
84.68
86.23
85.85
83.4
78.75
71.92
63.11
52.44
39.86
25.11
8.2
-9.98
-27.27
-40.45
-46.2
-42.35
-28.98
-8.62
14.57
36.16
52.84
63.12
67.2
66.26
61.67
54.59
45.84
36.13
26.09
16.27
6.85
-2.45
-12.41
-24.02
-37.9
-53.66
-69.56
-82.53
-89.06
-86.36
-73.55
-52.25
-26.23
-0.21
21.52
36.26
43.28
43.42
38.32
29.77
19.24
7.89
-3.4
-14.03
-23.89
-33.51
-44.06
-56.97
-73.14
-92.1
-111.49
-127.41
-135.55
-132.71
-118.09
-93.69
-63.63
-32.68
-4.83
17.58
34.01
45.05
51.76
55.2
56.25
55.74
54.45
52.93
51.18
48.49
43.52
35.07
22.81
8.02
-6.37
-16.56
-19.17
-12.64
2.07
21.69
41.76
58.06
67.8
70.13
65.83
56.56
44.05
29.63
14.08
-2.15
-18.75
-35.45
-52.06
-68.46
-84.38
-98.94
-110.35
-115.98
-113.14
-100.26
-77.81
-48.62
-16.98
12.64
37.01
54.76
66.09
71.99
73.4
70.92
64.92
55.99
45.05
33.26
21.62
10.57
-0.05
-10.77
-21.95
-33.14
-42.81
-48.55
-47.86
-39.16
-22.62
-0.34
24.27
47.52
66.47
79.48
86.18
86.99
82.68
74.08
62.22
48.4
34.32
21.81
12.41
6.96
5.29
6.39
8.92
11.96
15.45
20.22
27.53
38.28
52.37
68.47
84.43
97.93
107.18
111.25
110.11
104.29
94.63
82.11
67.79
52.8
38.22
24.73
12.32
0.11
-13.29
-29.19
-47.84
-67.77
-85.89
-98.34
-101.83
-94.96
-78.82
-56.62
-32.61
-10.81
5.92
16.2
19.98
18.06
11.82
2.94
-6.8
-15.82
-23.09
-28.5
-32.96
-38.13
-45.72
-56.57
-69.97
-83.47
-93.55
-96.86
-91.46
-77.69
-58.06
-36.3
-16.07
0.09
11.24
17.65
20.25
19.98
17.54
13.46
8.22
2.27
-4.12
-11.11
-19.29
-29.43
-41.82
-55.69
-68.94
-78.47
-81.13
-74.95
-60.02
-38.71
-14.92
7.16
24.34
35.18
40.01
40.26
37.76
34.09
30.35
27.14
24.68
22.82
20.98
18.25
13.61
6.4
-3.26
-14.06
-23.72
-29.54
-29.38
-22.51
-10.01
5.49
20.73
32.9
40.49
43.43
42.76
39.86
35.81
31.23
26.28
21.04
15.7
10.46
5.35
0.04
-6.05
-13.28
-21.29
-28.7
-33.36
-33.11
-26.67
-14.27
2.34
20.47
37.38
51.03
60.42
65.47
66.63
64.54
59.83
53.17
45.3
37.06
29.18
22.08
15.64
9.18
1.72
-7.53
-18.5
-29.9
-39.33
-43.91
-41.45
-31.34
-15.1
4.1
22.35
36.28
43.89
44.85
40.08
31.07
19.39
6.32
-7.01
-19.55
-30.35
-38.84
-45.14
-50.1
-54.98
-60.7
-67.17
-73.01
-75.93
-73.63
-64.81
-49.84
-30.66
-10.16
8.73
23.85
34.06
39.16
39.55
35.87
28.89
19.49
8.63
-2.73
-13.79
-24.25
-34.31
-44.45
-54.98
-65.42
-74.26
-79.25
-78.19
-69.91
-54.89
-35.37
-14.58
4.25
18.81
28.21
32.76
33.54
31.79
28.49
24.35
19.8
15.1
10.33
5.31
-0.38
-7.24
-15.33
-23.91
-31.13
-34.51
-31.73
-21.61
-4.81
16.26
38.2
57.62
72.09
80.5
82.96
80.34
73.87
64.84
54.4
43.57
33.03
23.11
13.67
4.17
-6.1
-17.53
-29.72
-41.15
-49.31
-51.47
-45.73
-31.98
-12.22
9.91
30.36
45.87
54.81
57.19
54.2
47.45
38.43
28.32
18.04
8.26
-0.6
-8.48
-15.76
-23.22
-31.7
-41.6
-52.41
-62.52
-69.5
-70.9
-65.17
-52.35
-34.23
-13.82
5.63
21.44
32.06
37.11
37.13
33.19
26.57
18.61
10.47
3.04
-3.28
-8.62
-13.58
-19.07
-25.89
-34.34
-43.8
-52.64
-58.55
-59.26
-53.4
-41.13
-24.3
-5.83
11.2
24.46
32.91
36.81
37.27
35.68
33.16
30.34
27.36
24.06
20.23
15.76
10.61
4.72
-1.99
-9.42
-16.97
-23.37
-26.69
-25.0
-17.07
-3.07
15.23
34.95
52.91
66.61
74.71
77.12
74.65
68.47
59.76
49.51
38.53
27.49
16.86
6.79
-2.96
-12.86
-23.18
-33.56
-42.74
-48.76
-49.68
-44.41
-33.35
-18.42
-2.56
11.3
20.98
25.5
25.05
20.55
13.21
4.19
-5.57
-15.26
-24.25
-32.06
-38.53
-43.83
-48.37
-52.44
-55.81
-57.49
-56.02
-50.05
-39.07
-23.9
-6.6
10.17
23.97
33.28
37.73
37.84
34.54
28.81
21.51
13.34
4.96
-3.04
-10.27
-16.67
-22.5
-28.28
-34.28
-40.23
-45.1
-47.29
-45.18
-37.78
-25.24
-8.93
8.91
25.83
39.77
49.47
54.53
55.27
52.44
47.01
39.99
32.26
24.51
17.13
10.21
3.57
-3.15
-10.3
-18.1
-26.27
-33.95
-39.75
-42.07
-39.67
-32.2
-20.38
-5.9
9.1
22.67
33.46
40.86
44.87
45.85
44.31
40.88
36.28
31.24
26.35
21.88
17.58
12.86
6.96
-0.55
-9.47
-18.73
-26.63
-31.3
-31.3
-26.16
-16.55
-4.2
8.6
19.61
27.2
30.6
30.02
26.3
20.62
14.17
7.89
2.33
-2.31
-6.25
-9.94
-13.96
-18.77
-24.46
-30.47
-35.59
-38.15
-36.55
-29.83
-18.14
-2.86
13.7
28.98
40.82
48.04
50.52
49.03
44.77
39.0
32.66
26.25
19.86
13.3
6.14
-2.13
-12.01
-23.81
-37.4
-51.99
-66.06
-77.61
-84.63
-85.82
-81.12
-71.81
-60.15
-48.67
-39.36
-33.13
-29.87
-28.81
-29.02
-29.82
-30.76
-31.52
-31.74
-31.13
-29.67
-27.83
-26.43
-26.08
-26.6
-26.71
-24.27
-17.23
-4.58
12.98
33.15
52.83
69.19
80.4
85.95
86.38
82.73
76.12
67.44
57.4
46.55
35.36
24.16
13.04
1.76
-10.17
-23.12
-36.79
-49.9
-60.24
-65.26
-63.12
-53.45
-37.79
-19.17
-1.16
13.22
22.25
25.62
24.16
19.2
12.15
4.28
-3.34
-9.86
-14.75
-18.05
-20.48
-23.36
-28.02
-35.05
-43.63
-51.41
-55.16
-51.89
-40.09
-20.39
4.58
31.11
55.48
74.84
87.63
93.4
92.51
85.84
74.63
60.43
44.99
29.91
16.39
4.81
-5.25
-14.86
-25.14
-36.58
-48.47
-58.9
-65.17
-64.9
-56.95
-41.97
-22.35
-1.29
18.17
34.07
45.84
54.05
59.77
63.97
67.05
68.87
68.92
66.67
61.78
54.12
43.72
30.71
15.43
-1.34
-18.08
-32.59
-42.34
-45.17
-40.13
-27.86
-10.56
8.66
26.57
40.61
49.3
52.34
50.33
44.53
36.37
27.22
18.09
9.52
1.55
-6.14
-14.12
-23.04
-33.42
-45.39
-58.41
-71.1
-81.38
-86.92
-85.92
-77.91
-64.11
-47.16
-30.42
-16.97
-8.8
-6.59
-9.81
-17.24
-27.35
-38.69
-49.93
-60.02
-68.18
-74.1
-77.99
-80.6
-82.99
-86.07
-90.1
-94.37
-97.19
-96.45
-90.42
-78.57
-61.93
-42.84
-24.2
-8.57
2.54
8.8
10.82
9.67
6.45
2.13
-2.5
-6.81
-10.42
-13.3
-15.92
-19.13
-23.85
-30.42
-38.18
-45.2
-48.7
-45.93
-35.19
-16.6
7.74
34.35
59.41
79.72
93.39
99.95
99.97
94.58
85.1
72.8
58.9
44.55
30.76
18.2
7.03
-3.18
-13.26
-23.9
-35.13
-45.92
-54.4
-58.39
-56.34
-48.03
-34.81
-19.1
-3.58
9.62
19.43
25.81
29.39
30.98
31.32
30.87
29.95
28.68
27.09
25.02
22.06
17.68
11.38
3.14
-6.29
-15.28
-21.63
-23.31
-19.13
-9.27
4.69
20.36
35.32
47.74
56.72
62.17
64.46
64.13
61.71
57.72
52.67
47.03
41.1
34.88
28.02
20.02
10.51
-0.28
-11.28
-20.63
-26.14
-26.02
-19.63
-7.77
7.44
23.21
36.87
46.55
51.44
51.71
48.24
42.25
35.03
27.76
21.35
16.3
12.66
9.98
7.46
4.21
-0.34
-6.04
-11.84
-15.93
-16.33
-11.65
-1.7
12.34
28.33
43.92
57.29
67.43
74.09
77.33
77.21
73.74
67.05
57.65
46.48
34.74
23.45
13.19
3.87
-5.08
-14.37
-24.31
-34.45
-43.49
-49.57
-50.94
-46.62
-36.86
-23.21
-7.94
6.56
18.52
27.0
31.85
33.45
32.35
29.12
24.3
18.48
12.28
6.29
0.83
-4.17
-9.28
-15.44
-23.42
-33.4
-44.5
-54.84
-62.04
-64.04
-59.84
-49.94
-36.09
-20.73
-6.23
5.61
13.82
18.05
18.43
15.3
9.3
1.43
-6.86
-13.85
-17.96
-18.42
-15.61
-11.19
-7.4
-6.1
-7.86
-11.53
-14.7
-14.77
-10.05
-0.46
12.49
26.46
39.09
48.68
54.46
56.31
54.57
49.74
42.41
33.34
23.42
13.62
4.77
-2.73
-9.02
-14.86
-21.21
-28.8
-37.54
-46.33
-53.26
-56.32
-54.25
-47.13
-36.51
-24.88
-14.88
-8.51
-6.8
-9.71
-16.47
-25.9
-36.66
-47.39
-56.83
-63.95
-68.22
-69.83
-69.68
-69.19
-69.82
-72.41
-76.63
-80.88
-82.69
-79.49
-69.63
-53.03
-31.31
-7.32
15.75
35.25
49.58
58.35
62.17
62.22
59.93
56.63
53.42
51.03
49.66
48.92
47.79
44.83
38.72
28.92
16.24
2.93
-7.88
-13.17
-11.18
-2.11
12.0
27.9
42.29
52.71
57.88
57.63
52.53
43.61
32.36
20.75
11.06
5.35
4.57
7.96
12.98
16.05
14.02
5.51
-8.31
-24.08
-37.52
-45.0
-44.8
-37.43
-25.11
-10.75
3.05
14.47
22.57
27.0
27.76
25.1
19.61
12.27
4.32
-2.99
-8.86
-13.25
-16.89
-21.06
-26.91
-34.91
-44.35
-53.35
-59.31
-59.84
-53.65
-41.08
-24.05
-5.46
11.8
25.59
34.87
39.61
40.34
37.85
32.94
26.41
19.14
11.94
5.46
-0.11
-5.03
-9.97
-15.79
-23.06
-31.78
-41.05
-49.07
-53.59
-52.58
-45.0
-31.29
-13.41
5.71
23.07
36.34
44.31
46.92
44.91
39.45
31.88
23.43
15.18
7.84
1.67
-3.6
-8.68
-14.51
-21.91
-31.21
-41.93
-52.67
-61.28
-65.41
-63.28
-54.31
-39.43
-20.96
-1.91
14.81
27.08
33.89
35.29
32.11
25.57
16.96
7.54
-1.63
-9.72
-16.26
-21.29
-25.42
-29.62
-34.8
-41.1
-47.44
-51.6
-50.88
-43.19
-28.04
-6.9
17.23
40.81
60.8
75.29
83.62
86.07
83.48
76.97
67.78
57.28
46.71
36.94
28.23
20.06
11.39
1.07
-11.44
-25.44
-38.8
-48.38
-51.09
-45.04
-30.4
-9.5
13.83
35.59
52.61
63.25
67.36
65.88
60.29
52.19
43.11
34.32
26.65
20.37
15.12
10.01
4.01
-3.58
-12.65
-22.04
-29.62
-32.86
-29.7
-19.34
-2.64
18.05
39.56
58.79
73.44
82.33
85.21
82.57
75.24
64.38
51.3
37.49
24.28
12.6
2.72
-5.82
-14.06
-23.18
-33.95
-46.15
-58.28
-67.72
-71.51
-67.45
-55.01
-35.75
-12.89
9.77
28.97
42.79
50.71
53.27
51.38
46.0
38.0
28.24
17.71
7.39
-1.92
-9.88
-16.75
-23.32
-30.46
-38.69
-47.57
-55.52
-60.19
-59.23
-51.29
-36.74
-17.69
2.6
20.86
34.7
43.14
46.37
45.28
40.94
34.29
26.2
17.56
9.3
2.29
-3.04
-6.89
-10.14
-13.98
-19.44
-26.69
-34.79
-41.76
-45.22
-43.2
-34.88
-20.97
-3.48
14.8
31.03
42.94
49.18
49.44
44.38
35.31
23.92
11.88
0.49
-9.46
-17.8
-24.87
-31.43
-38.37
-46.36
-55.44
-64.65
-72.12
-75.5
-72.81
-63.33
-47.96
-29.1
-9.86
6.83
19.0
25.84
27.59
25.12
19.63
12.39
4.62
-2.63
-8.69
-13.39
-17.16
-20.92
-25.72
-32.2
-40.11
-48.08
-53.82
-54.87
-49.46
-37.29
-19.71
0.69
20.85
38.16
51.01
58.85
61.98
61.2
57.47
51.74
44.94
37.8
30.86
24.3
17.97
11.45
4.21
-4.09
-13.32
-22.56
-30.26
-34.47
-33.57
-26.93
-15.22
-0.34
15.21
29.08
39.61
46.04
48.37
47.09
42.89
36.7
29.5
22.26
15.69
10.08
5.2
0.37
-5.22
-12.14
-20.32
-28.86
-36.07
-39.9
-38.58
-31.29
-18.56
-2.17
15.37
31.53
44.32
52.65
56.29
55.64
51.51
44.96
37.09
28.89
21.12
14.17
8.0
2.24
-3.77
-10.69
-18.9
-28.09
-37.11
-44.05
-46.87
-44.18
-35.92
-23.5
-9.31
4.03
14.5
21.05
23.53
22.41
18.41
12.36
5.17
-2.26
-9.17
-15.13
-20.13
-24.62
-29.23
-34.58
-40.92
-47.9
-54.51
-59.12
-59.93
-55.48
-45.28
-30.06
-11.73
7.15
24.04
37.08
45.43
49.19
49.18
46.47
42.12
36.94
31.48
26.03
20.66
15.25
9.48
2.88
-5.02
-14.28
-24.27
-33.51
-39.97
-41.79
-37.94
-28.81
-16.04
-1.98
11.03
21.33
28.05
31.01
30.46
26.93
21.12
13.97
6.5
-0.42
-6.26
-10.97
-14.93
-18.81
-23.27
-28.82
-35.46
-42.55
-48.76
-52.33
-51.6
-45.61
-34.6
-19.94
-3.83
11.47
24.14
33.12
38.13
39.46
37.73
33.74
28.34
22.34
16.38
10.84
5.79
1.05
-3.8
-9.29
-15.93
-23.92
-32.89
-41.86
-49.28
-53.49
-53.34
-48.6
-40.1
-29.5
-18.69
-9.35
-2.51
1.49
2.75
1.65
-1.41
-6.0
-11.68
-17.85
-23.93
-29.39
-33.97
-37.82
-41.44
-45.41
-49.96
-54.62
-58.09
-58.52
-54.21
-44.22
-28.85
-9.66
11.0
30.63
47.22
59.48
66.96
69.82
68.67
64.35
57.89
50.37
42.7
35.53
28.98
22.75
16.21
8.77
0.29
-8.59
-16.43
-21.34
-21.59
-16.32
-5.93
7.88
22.62
35.76
45.44
50.86
52.17
50.23
46.1
40.75
34.91
29.13
23.75
18.98
14.78
10.85
6.57
1.28
-5.42
-13.24
-21.01
-26.88
-28.82
-25.42
-16.43
-2.95
12.81
28.33
41.36
50.48
55.18
55.66
52.56
46.66
38.78
29.81
20.62
11.96
4.32
-2.26
-8.19
-14.24
-21.24
-29.73
-39.56
-49.7
-58.37
-63.55
-63.59
-57.9
-47.18
-33.19
-18.23
-4.4
6.84
14.78
19.28
20.48
18.66
14.28
8.05
0.93
-6.04
-12.08
-16.8
-20.41
-23.5
-26.86
-31.12
-36.43
-42.16
-46.95
-49.0
-46.67
-39.16
-26.91
-11.64
4.25
18.39
29.15
35.86
38.74
38.46
35.76
31.3
25.61
19.16
12.38
5.56
-1.26
-8.34
-16.14
-25.12
-35.34
-46.23
-56.51
-64.36
-67.97
-66.11
-58.58
-46.34
-31.14
-15.14
-0.26
12.0
20.72
25.51
26.45
24.12
19.48
13.76
8.11
3.33
-0.33
-3.18
-5.85
-9.1
-13.42
-18.77
-24.35
-28.69
-29.99
-26.7
-18.16
-4.99
11.01
27.41
41.86
52.73
59.2
61.28
59.45
54.43
47.13
38.58
29.77
21.51
14.16
7.5
0.93
-6.37
-14.98
-24.83
-35.01
-43.85
-49.35
-49.84
-44.61
-34.15
-20.09
-4.63
10.08
22.44
31.54
37.12
39.36
38.81
36.33
32.96
29.69
27.19
25.47
23.98
21.73
17.71
11.21
2.23
-8.4
-19.0
-27.37
-31.31
-29.37
-21.46
-8.92
5.83
20.14
31.87
39.96
44.26
45.19
43.26
38.91
32.53
24.66
16.01
7.35
-0.84
-8.46
-15.93
-23.96
-33.2
-43.9
-55.55
-66.83
-75.8
-80.51
-79.59
-72.8
-61.22
-46.78
-31.81
-18.29
-7.59
-0.47
2.78
2.22
-1.72
-8.08
-15.34
-21.71
-25.52
-25.81
-22.58
-16.72
-9.81
-3.53
0.79
2.62
2.44
1.64
2.06
5.4
12.51
23.08
35.72
48.52
59.58
67.66
72.24
73.42
71.63
67.42
61.34
53.96
45.93
37.84
30.1
22.87
15.96
8.9
1.09
-7.85
-17.78
-27.8
-36.33
-41.41
-41.41
-35.62
-24.56
-9.95
5.82
20.31
31.65
38.76
41.39
39.89
35.02
27.73
19.04
9.88
1.03
-7.05
-14.27
-20.98
-27.78
-35.19
-43.2
-50.91
-56.49
-57.68
-52.48
-40.06
-21.17
1.94
26.15
48.35
66.08
77.94
83.64
83.68
79.12
71.26
61.41
50.64
39.7
28.9
18.18
7.18
-4.6
-17.43
-31.03
-44.13
-54.49
-59.31
-56.17
-43.98
-23.7
1.87
28.92
53.93
74.55
89.92
100.35
106.57
109.27
108.92
105.92
100.85
94.49
87.76
81.39
75.74
70.62
65.44
59.49
52.4
44.44
36.54
29.93
25.57
23.72
23.86
25.1
26.59
27.83
28.41
27.64
24.23
16.57
3.43
-15.28
-38.23
-63.2
-87.91
-110.91
-131.83
-151.03
-169.02
-185.92
-201.24
-213.93
-222.54
-225.38
-220.85
-207.89
-186.5
-158.01
-125.1
-91.21
-59.8
-33.67
-14.51
-2.88
1.69
0.53
-4.44
-11.03
-17.21
-21.56
-23.54
-23.48
-22.36
-21.38
-21.7
-24.07
-28.57
-34.36
-39.72
-42.35
-40.06
-31.62
-17.18
1.62
22.29
42.2
59.25
72.1
80.12
83.18
81.49
75.6
66.45
55.32
43.5
32.03
21.37
11.31
1.03
-10.43
-23.62
-38.17
-52.51
-64.14
-70.33
-69.12
-60.1
-44.62
-25.35
-5.45
12.37
26.28
35.5
39.97
40.08
36.45
29.86
21.25
11.66
2.06
-6.8
-14.53
-21.26
-27.56
-34.13
-41.32
-48.69
-54.77
-57.43
-54.58
-45.04
-29.13
-8.66
13.59
34.7
52.35
65.11
72.53
74.87
72.8
67.26
59.3
49.89
39.9
29.87
20.01
10.12
-0.36
-12.03
-25.06
-38.72
-51.2
-59.87
-62.05
-56.04
-41.77
-21.01
3.2
27.34
48.44
64.51
74.68
78.96
77.98
72.71
64.39
54.4
44.08
34.5
26.25
19.27
12.88
6.08
-1.91
-11.02
-20.0
-26.53
-27.96
-22.35
-9.3
9.74
31.85
53.53
71.73
84.44
90.89
91.39
86.81
78.39
67.47
55.38
43.31
32.15
22.28
13.46
4.89
-4.55
-15.79
-28.94
-42.86
-55.12
-62.66
-62.79
-54.29
-37.94
-16.36
6.88
28.33
45.5
57.19
63.23
64.1
60.55
53.55
44.28
34.16
24.66
16.86
11.17
7.15
3.64
-0.83
-7.49
-16.71
-27.65
-38.21
-45.59
-47.11
-41.18
-27.97
-9.37
11.55
31.5
47.85
59.09
64.74
65.11
60.89
53.02
42.69
31.26
20.09
10.26
2.21
-4.34
-10.32
-16.92
-25.18
-35.48
-47.23
-58.76
-67.67
-71.42
-68.22
-57.75
-41.36
-21.71
-2.03
14.84
27.08
33.95
35.67
32.98
26.89
18.58
9.32
0.38
-7.29
-13.25
-17.78
-21.68
-26.1
-31.99
-39.7
-48.58
-56.93
-62.25
-62.01
-54.48
-39.5
-18.7
4.87
27.63
46.5
59.55
66.18
66.87
62.64
54.76
44.49
33.04
21.57
10.92
1.54
-6.62
-14.1
-21.73
-30.24
-39.84
-49.82
-58.45
-63.29
-62.01
-53.29
-37.45
-16.6
6.01
26.99
43.71
54.91
60.64
61.71
59.27
54.38
47.94
40.67
33.13
25.7
18.5
11.33
3.73
-4.88
-14.86
-25.99
-37.1
-46.19
-50.92
-49.44
-41.17
-27.09
-9.54
8.65
24.97
37.86
46.69
51.53
52.69
50.6
45.82
39.21
31.87
24.95
19.28
15.08
11.88
8.66
4.22
-2.38
-11.26
-21.41
-30.83
-37.0
-37.77
-32.11
-20.58
-5.13
11.55
26.84
38.84
46.52
49.6
48.23
42.89
34.32
23.63
12.24
1.71
-6.75
-12.58
-16.13
-18.53
-21.32
-25.86
-32.7
-41.26
-49.86
-56.17
-57.94
-53.81
-43.76
-29.12
-12.17
4.49
18.62
28.67
34.01
34.73
31.52
25.38
17.42
8.72
0.18
-7.59
-14.32
-20.12
-25.49
-31.18
-37.9
-45.94
-54.78
-63.01
-68.54
-69.3
-63.99
-52.66
-36.71
-18.5
-0.66
14.59
25.8
32.4
34.47
32.55
27.49
20.28
12.04
3.78
-3.76
-10.3
-16.13
-22.0
-28.79
-37.04
-46.47
-55.76
-62.79
-65.28
-61.63
-51.61
-36.45
-18.57
-0.77
14.53
25.8
32.56
35.15
34.36
31.09
26.2
20.36
14.1
7.78
1.54
-4.72
-11.37
-18.87
-27.39
-36.38
-44.39
-49.23
-48.75
-41.69
-28.37
-10.7
8.48
26.3
40.67
50.64
56.2
57.84
56.19
51.91
45.75
38.62
31.39
24.69
18.64
12.84
6.5
-1.26
-10.89
-22.11
-33.61
-43.24
-48.55
-47.59
-39.72
-25.91
-8.54
9.36
25.07
36.78
43.76
46.19
44.74
40.23
33.55
25.66
17.53
10.04
3.79
-1.07
-4.91
-8.48
-12.72
-18.28
-25.16
-32.39
-38.18
-40.42
-37.5
-28.98
-15.92
-0.51
14.63
27.24
35.97
40.42
40.9
38.09
32.75
25.71
17.85
10.05
3.08
-2.57
-6.88
-10.24
-13.45
-17.41
-22.78
-29.57
-36.85
-42.85
-45.39
-42.64
-33.87
-19.78
-2.38
15.63
31.63
43.76
51.11
53.64
51.92
46.77
39.11
29.88
19.96
10.11
0.88
-7.54
-15.38
-23.24
-31.88
-41.79
-52.76
-63.61
-72.36
-76.76
-75.06
-66.74
-52.72
-35.09
-16.58
0.24
13.38
21.71
25.03
23.84
19.22
12.5
5.0
-2.25
-8.61
-13.93
-18.42
-22.58
-27.07
-32.47
-38.95
-45.97
-52.11
-55.33
-53.63
-45.82
-32.1
-14.13
5.45
23.86
38.91
49.39
55.03
56.22
53.63
48.11
40.53
31.83
22.88
14.29
6.29
-1.34
-9.16
-17.85
-27.79
-38.77
-49.73
-58.86
-63.99
-63.3
-55.91
-42.37
-24.55
-5.24
12.66
26.86
36.11
40.24
39.88
36.06
29.91
22.43
14.49
6.77
-0.29
-6.64
-12.64
-18.99
-26.3
-34.62
-43.0
-49.49
-51.64
-47.33
-35.69
-17.51
4.83
28.09
49.03
65.22
75.43
79.66
78.8
74.17
67.18
58.99
50.41
41.91
33.68
25.65
17.45
8.53
-1.64
-13.16
-25.24
-36.09
-43.21
-44.22
-37.78
-24.31
-5.96
14.01
32.29
46.4
55.2
58.74
57.84
53.57
46.97
38.92
30.29
21.8
14.03
7.14
0.76
-5.91
-13.74
-23.09
-33.25
-42.37
-47.87
-47.35
-39.52
-24.83
-5.38
15.81
35.68
51.98
63.56
70.22
72.38
70.76
66.2
59.65
52.16
44.64
37.66
31.24
24.82
17.48
8.29
-3.23
-16.67
-30.57
-42.55
-49.96
-50.71
-44.05
-31.0
-14.07
3.46
18.6
29.36
35.08
36.15
33.5
28.2
21.17
13.2
5.04
-2.63
-9.33
-14.97
-19.94
-25.02
-31.14
-38.89
-48.15
-57.79
-65.72
-69.51
-67.12
-57.75
-42.25
-22.95
-2.89
15.08
29.05
38.34
43.24
44.57
43.26
40.08
35.68
30.65
25.57
20.96
17.13
14.09
11.39
8.18
3.57
-2.96
-10.99
-18.99
-24.57
-25.26
-19.5
-7.32
9.54
28.22
45.66
59.46
68.27
71.85
70.7
65.75
58.06
48.67
38.42
27.87
17.26
6.48
-4.88
-17.39
-31.57
-47.61
-64.94
-82.07
-96.68
-106.21
-108.73
-103.7
-92.28
-76.92
-60.53
-45.51
-33.29
-24.31
-18.37
-15.11
-14.16
-15.11
-17.42
-20.32
-23.03
-24.98
-26.07
-26.74
-27.86
-30.24
-34.12
-38.78
-42.55
-43.21
-38.9
-28.84
-13.77
4.33
22.91
39.62
52.9
61.99
66.7
67.19
63.84
57.41
49.04
40.2
32.35
26.5
22.89
20.93
19.4
17.02
12.97
7.41
1.54
-2.72
-3.45
0.52
9.04
20.74
33.51
45.31
54.78
61.47
65.61
67.64
67.86
66.33
63.05
58.19
52.16
45.55
38.81
31.98
24.55
15.71
4.76
-8.39
-22.9
-37.16
-49.35
-58.06
-62.88
-64.34
-63.71
-62.36
-61.35
-61.25
-62.28
-64.46
-67.75
-72.04
-76.97
-81.93
-86.1
-88.61
-88.9
-86.92
-83.23
-78.91
-74.95
-71.84
-69.11
-65.41
-59.03
-48.73
-34.34
-16.9
1.67
19.28
34.25
45.62
53.06
56.72
57.02
54.6
50.27
44.97
39.51
34.41
29.72
25.02
19.52
12.46
3.47
-6.99
-17.49
-25.8
-29.57
-27.18
-18.35
-4.43
12.08
28.28
41.72
50.87
55.21
55.02
51.06
44.28
35.74
26.52
17.62
9.8
3.44
-1.6
-6.01
-10.77
-16.87
-24.69
-33.64
-42.05
-47.65
-48.36
-43.24
-32.96
-19.59
-5.82
6.04
14.72
20.05
22.57
22.9
21.48
18.52
14.4
9.85
5.9
3.58
3.41
5.2
8.06
10.73
12.12
11.75
10.02
8.13
7.68
10.09
16.03
25.23
36.46
48.04
58.35
66.21
71.1
72.97
72.08
68.77
63.52
56.9
49.67
42.62
36.32
30.96
26.25
21.54
16.08
9.29
1.05
-8.08
-16.92
-23.87
-27.32
-26.16
-20.28
-10.62
1.02
12.46
21.8
27.81
30.02
28.64
24.31
17.88
10.27
2.36
-5.15
-11.75
-17.31
-22.01
-26.32
-30.88
-36.25
-42.67
-49.7
-56.23
-60.52
-60.76
-55.68
-45.14
-30.33
-13.46
2.84
16.28
25.36
29.59
29.29
25.28
18.61
10.33
1.42
-7.34
-15.42
-22.67
-29.33
-36.03
-43.47
-52.11
-61.75
-71.27
-78.8
-82.19
-79.79
-71.09
-57.09
-39.95
-22.42
-6.95
4.78
12.06
14.91
13.8
9.37
2.42
-6.14
-15.29
-24.07
-31.76
-38.07
-43.21
-47.79
-52.54
-57.88
-63.62
-68.78
-71.7
-70.51
-63.72
-50.84
-32.66
-11.08
11.33
32.07
49.14
61.38
68.46
70.71
68.9
64.04
57.2
49.27
40.92
32.46
23.91
15.03
5.43
-5.16
-16.59
-28.02
-37.81
-43.84
-44.14
-37.65
-24.82
-7.62
10.99
27.95
40.92
48.75
51.44
49.77
44.83
37.74
29.47
20.86
12.58
5.05
-1.67
-7.95
-14.48
-21.96
-30.6
-39.58
-47.04
-50.49
-47.72
-37.79
-21.53
-1.42
19.34
37.79
52.03
61.38
66.1
66.86
64.36
59.28
52.36
44.46
36.44
28.96
22.25
16.08
9.85
2.94
-4.97
-13.47
-21.33
-26.69
-27.62
-22.89
-12.54
1.91
17.91
32.56
43.44
49.18
49.59
45.5
38.47
30.37
23.04
17.89
15.58
15.82
17.48
18.89
18.34
14.51
6.92
-3.92
-16.4
-28.1
-36.32
-38.85
-34.66
-24.32
-9.76
6.33
21.32
33.24
41.0
44.37
43.7
39.73
33.51
26.19
18.87
12.31
6.81
2.16
-2.19
-7.05
-13.18
-21.06
-30.66
-41.06
-50.52
-56.77
-57.77
-52.44
-41.21
-25.9
-9.14
6.52
19.23
28.08
32.94
34.1
32.08
27.5
21.21
14.22
7.56
2.01
-2.17
-5.27
-8.11
-11.74
-17.05
-24.31
-32.86
-41.08
-46.7
-47.57
-42.34
-31.14
-15.52
1.97
18.59
32.16
41.44
46.12
46.51
43.25
37.19
29.31
20.75
12.58
5.63
0.16
-4.17
-8.2
-12.97
-19.27
-27.28
-36.37
-45.05
-51.36
-53.33
-49.72
-40.45
-26.8
-11.1
3.95
16.06
23.84
27.01
26.14
22.26
16.48
9.8
2.99
-3.37
-8.93
-13.74
-18.16
-22.9
-28.75
-36.16
-44.84
-53.56
-60.36
-63.04
-60.01
-50.83
-36.52
-19.19
-1.38
14.7
27.67
37.04
43.06
46.28
47.33
46.75
44.97
42.36
39.27
35.93
32.48
28.8
24.53
19.21
12.53
4.67
-3.43
-10.09
-13.45
-12.04
-5.47
5.35
18.48
31.51
42.31
49.37
52.0
50.21
44.59
36.09
25.89
15.23
5.17
-3.65
-11.07
-17.46
-23.49
-29.95
-37.42
-45.96
-54.93
-62.93
-68.13
-68.75
-63.73
-53.18
-38.47
-21.89
-6.01
7.0
15.77
19.95
19.99
16.88
11.8
5.84
-0.19
-5.76
-10.65
-14.82
-18.44
-21.81
-25.39
-29.54
-34.26
-38.82
-41.82
-41.51
-36.41
-26.06
-11.28
5.91
22.97
37.56
48.07
53.87
55.16
52.6
47.1
39.63
31.07
22.23
13.76
6.05
-0.8
-7.04
-13.25
-19.98
-27.42
-34.96
-41.11
-43.88
-41.46
-33.07
-19.39
-2.48
14.9
30.18
41.62
48.54
51.11
50.0
46.01
40.0
32.87
25.53
18.79
13.1
8.49
4.42
-0.0
-5.67
-13.12
-22.08
-31.31
-38.82
-42.33
-40.1
-31.6
-17.75
-0.76
16.56
31.59
42.54
48.58
49.79
46.86
40.77
32.68
23.72
14.85
6.77
-0.28
-6.42
-12.11
-17.95
-24.44
-31.71
-39.28
-45.94
-49.93
-49.44
-43.29
-31.46
-15.36
2.58
19.58
33.33
42.5
46.76
46.62
42.97
36.93
29.64
22.21
15.61
10.51
7.1
5.03
3.52
1.5
-1.95
-7.2
-13.77
-20.18
-24.27
-23.89
-17.71
-5.85
10.04
27.28
43.0
54.94
61.93
63.85
61.33
55.34
46.93
37.19
27.11
17.62
9.36
2.6
-2.85
-7.58
-12.4
-18.1
-25.1
-33.15
-41.1
-47.15
-49.26
-45.93
-36.86
-23.18
-7.19
8.37
21.06
29.34
32.67
31.27
25.85
17.32
6.7
-4.87
-16.18
-26.14
-33.91
-39.18
-42.21
-43.83
-45.18
-47.35
-50.85
-55.27
-59.24
-60.84
-58.21
-50.35
-37.54
-21.26
-3.83
12.34
25.24
33.67
37.19
36.08
31.11
23.39
14.18
4.66
-4.25
-12.01
-18.55
-24.2
-29.6
-35.6
-42.84
-51.4
-60.45
-68.19
-72.29
-70.62
-62.15
-47.42
-28.47
-8.23
10.37
25.11
34.87
39.47
39.43
35.66
29.25
21.39
13.21
5.68
-0.65
-5.76
-10.15
-14.69
-20.29
-27.44
-35.73
-43.77
-49.31
-49.98
-44.12
-31.49
-13.52
7.09
27.25
44.24
56.38
63.05
64.51
61.48
54.97
46.15
36.24
26.37
17.39
9.63
2.81
-3.85
-11.33
-20.33
-30.85
-41.87
-51.41
-56.98
-56.4
-48.6
-34.06
-14.84
6.11
25.74
41.68
52.56
58.05
58.55
54.99
48.61
40.78
32.83
25.71
19.83
14.96
10.45
5.42
-0.89
-8.88
-18.3
-28.1
-36.46
-41.09
-39.95
-31.93
-17.5
1.38
21.73
40.54
55.51
65.46
70.2
70.2
66.2
59.08
49.84
39.6
29.48
20.36
12.68
6.34
0.68
-5.23
-12.36
-21.26
-31.71
-42.48
-51.47
-56.22
-54.78
-46.42
-32.09
-14.05
4.75
21.62
34.7
43.13
46.86
46.31
42.09
34.97
25.9
16.01
6.45
-1.89
-8.61
-13.97
-18.77
-24.09
-30.8
-39.05
-48.0
-55.77
-60.0
-58.56
-50.41
-36.11
-17.69
1.93
19.8
33.74
42.62
46.36
45.55
41.08
33.88
24.93
15.15
5.43
-3.56
-11.47
-18.43
-25.02
-32.15
-40.58
-50.55
-61.36
-71.27
-77.91
-78.99
-73.17
-60.64
-43.17
-23.55
-4.75
10.84
21.83
27.8
29.0
26.1
20.04
11.97
3.19
-5.06
-11.97
-17.36
-21.79
-26.36
-32.29
-40.27
-50.01
-59.92
-67.4
-69.52
-64.0
-50.11
-29.08
-3.78
22.12
45.18
62.96
74.37
79.4
78.83
73.8
65.64
55.82
45.74
36.53
28.71
22.12
15.93
8.96
0.15
-10.94
-23.64
-36.12
-45.63
-49.35
-45.36
-33.44
-15.31
5.93
26.8
44.54
57.61
65.65
68.96
67.97
63.17
55.15
44.98
34.14
24.18
16.16
10.21
5.47
0.37
-6.71
-16.71
-29.29
-42.68
-53.99
-59.98
-58.22
-47.9
-30.17
-7.79
15.82
37.49
54.98
67.08
73.39
74.01
69.47
60.79
49.5
37.41
26.23
16.99
9.81
3.96
-1.86
-8.99
-18.39
-30.17
-43.35
-55.87
-64.98
-67.98
-63.17
-50.49
-31.72
-9.98
11.13
28.57
40.38
45.94
45.63
40.49
31.86
21.16
9.78
-1.03
-10.35
-17.72
-23.38
-28.19
-33.47
-40.55
-50.01
-61.19
-71.93
-79.1
-79.49
-71.11
-53.99
-30.31
-3.75
21.64
42.55
57.02
64.53
65.6
61.32
52.98
41.9
29.4
16.78
5.12
-4.9
-13.26
-20.67
-28.37
-37.59
-48.81
-61.09
-71.98
-78.13
-76.43
-65.33
-45.55
-20.07
6.88
31.05
49.3
60.12
63.49
60.39
52.26
40.7
27.35
13.73
1.12
-9.69
-18.57
-26.06
-33.27
-41.38
-51.11
-62.03
-72.35
-79.16
-79.28
-70.5
-52.53
-27.36
1.28
29.1
52.41
68.97
78.13
80.41
77.04
69.55
59.56
48.67
38.32
29.45
22.3
16.3
10.28
2.85
-7.02
-19.39
-32.91
-44.85
-51.74
-50.48
-39.53
-19.74
5.86
32.97
57.36
76.04
87.68
92.35
90.89
84.37
73.93
60.86
46.68
33.01
21.16
11.68
4.2
-2.52
-10.05
-19.66
-31.61
-44.65
-56.16
-62.7
-61.23
-50.27
-30.59
-5.1
22.08
46.93
66.51
79.39
85.39
85.05
79.26
69.18
56.32
42.49
29.58
19.01
11.33
6.04
1.76
-3.29
-10.69
-21.12
-33.92
-46.88
-56.73
-60.01
-54.34
-39.42
-17.24
8.45
33.37
53.93
67.91
74.59
74.32
68.07
57.14
43.08
27.62
12.5
-0.9
-11.94
-20.86
-28.62
-36.55
-45.81
-56.93
-69.36
-81.34
-90.18
-92.94
-87.36
-72.8
-50.6
-23.92
3.23
26.98
44.55
54.66
57.34
53.61
44.98
33.15
19.85
6.68
-5.03
-14.54
-21.78
-27.54
-33.13
-40.02
-48.99
-59.59
-69.81
-76.51
-76.38
-67.21
-48.87
-23.5
5.01
32.24
54.41
69.16
75.84
75.08
68.36
57.54
44.52
30.99
18.27
7.13
-2.34
-10.61
-18.64
-27.54
-38.07
-50.18
-62.55
-72.63
-77.28
-73.76
-60.89
-39.68
-13.13
14.68
39.79
59.42
72.26
78.32
78.33
73.38
64.69
53.64
41.78
30.56
21.05
13.62
7.81
2.53
-3.55
-11.45
-21.27
-31.81
-40.64
-44.75
-41.55
-29.96
-10.94
12.61
36.86
58.19
74.15
83.78
87.25
85.33
78.83
68.6
55.6
41.17
26.84
14.01
3.45
-4.95
-12.17
-19.64
-28.64
-39.65
-51.94
-63.51
-71.58
-73.48
-67.52
-53.72
-33.91
-11.12
11.25
30.38
44.45
52.7
55.18
52.41
45.32
35.17
23.55
12.13
2.28
-5.29
-10.62
-14.51
-18.17
-22.87
-29.44
-37.79
-46.67
-53.78
-56.34
-52.12
-40.25
-21.8
0.58
23.39
43.35
58.18
66.87
69.44
66.58
59.32
48.85
36.52
23.75
11.89
1.91
-5.84
-11.78
-16.99
-22.84
-30.36
-39.57
-49.08
-56.3
-58.2
-52.43
-38.34
-17.32
7.56
32.55
54.34
70.93
81.77
87.41
88.97
87.62
84.43
80.39
76.43
73.32
71.33
69.89
67.68
62.86
53.84
40.05
22.42
3.4
-13.76
-25.92
-31.1
-28.96
-20.81
-9.01
3.78
15.3
24.02
29.14
30.46
28.15
22.64
14.67
5.15
-4.91
-14.75
-24.04
-33.04
-42.41
-52.98
-65.29
-79.2
-93.56
-106.28
-114.71
-116.46
-110.21
-96.36
-77.04
-55.57
-35.48
-19.56
-9.32
-4.86
-5.36
-9.54
-16.13
-23.92
-31.77
-38.55
-43.38
-45.89
-46.54
-46.64
-48.01
-52.11
-59.26
-68.11
-75.77
-78.74
-74.15
-60.8
-39.71
-13.7
13.5
38.4
58.42
72.24
79.54
80.68
76.47
67.97
56.54
43.7
30.86
18.95
8.24
-1.7
-11.83
-23.23
-36.7
-52.23
-68.81
-84.37
-96.31
-102.17
-100.53
-91.49
-76.65
-58.56
-39.92
-22.88
-8.8
1.67
8.39
11.5
11.56
9.56
6.84
4.71
3.93
4.43
5.36
5.36
3.05
-2.46
-11.17
-21.94
-32.45
-39.62
-40.39
-32.76
-16.5
6.57
33.23
59.82
83.31
101.8
114.52
121.45
122.89
119.34
111.58
100.72
88.04
74.72
61.51
48.61
35.77
22.58
8.79
-5.44
-19.36
-31.64
-40.58
-44.53
-42.36
-33.95
-20.32
-3.42
14.37
30.82
44.2
53.44
58.08
58.11
53.97
46.46
36.79
26.33
16.35
7.67
0.45
-5.84
-12.24
-20.01
-30.11
-42.77
-57.07
-71.01
-81.9
-87.25
-85.6
-77.15
-63.58
-47.43
-31.22
-16.77
-5.07
3.48
8.65
10.27
8.23
2.85
-4.95
-13.75
-22.05
-28.76
-33.52
-36.87
-39.96
-44.1
-50.14
-57.93
-66.08
-72.26
-73.88
-69.06
-57.38
-40.11
-19.69
0.99
19.47
34.2
44.51
50.31
51.79
49.28
43.35
34.99
25.44
16.06
7.95
1.61
-3.07
-6.78
-10.53
-15.16
-21.02
-27.58
-33.39
-36.48
-34.97
-27.88
-15.54
0.46
17.81
34.21
47.91
57.91
63.74
65.21
62.27
55.22
44.83
32.4
19.55
7.7
-2.32
-10.46
-17.34
-23.98
-31.36
-40.15
-50.41
-61.41
-71.66
-79.07
-81.56
-77.64
-66.97
-50.51
-30.28
-8.82
11.37
28.24
40.38
47.11
48.54
45.54
39.62
32.52
25.75
20.1
15.47
11.07
5.8
-1.35
-10.9
-22.69
-35.68
-47.98
-57.13
-60.67
-56.96
-45.84
-28.82
-8.73
11.13
27.93
39.82
46.1
46.92
42.98
35.25
24.9
13.22
1.49
-9.28
-18.6
-26.54
-33.75
-41.18
-49.75
-59.87
-71.01
-81.56
-89.08
-90.95
-85.34
-71.95
-52.22
-28.97
-5.44
15.54
32.18
43.8
50.52
52.86
51.55
47.5
41.88
36.07
31.41
28.74
28.14
28.78
29.16
27.62
23.06
15.56
6.63
-1.08
-4.61
-1.79
7.94
23.23
41.36
59.17
74.03
84.42
89.88
90.6
86.93
79.24
68.02
54.12
38.82
23.59
9.54
-2.89
-14.18
-25.46
-38.04
-52.85
-70.01
-88.57
-106.69
-121.98
-132.05
-135.12
-130.56
-118.93
-101.95
-82.04
-61.82
-43.63
-29.17
-19.35
-14.37
-13.79
-16.64
-21.71
-27.63
-33.2
-37.6
-40.49
-42.14
-43.31
-45.03
-48.21
-53.24
-59.55
-65.55
-68.96
-67.41
-59.32
-44.42
-23.96
-0.26
23.84
45.77
63.62
76.31
83.44
85.23
82.35
75.89
67.17
57.49
47.85
38.71
29.94
20.97
11.03
-0.53
-13.83
-28.19
-42.07
-53.26
-59.33
-58.44
-49.89
-34.53
-14.54
7.13
27.54
44.36
56.22
62.71
64.21
61.58
55.98
48.66
40.73
33.0
25.83
19.08
12.23
4.62
-4.29
-14.43
-24.92
-33.99
-39.26
-38.48
-30.29
-14.88
5.94
29.17
51.47
70.11
83.36
90.62
92.02
88.18
79.97
68.49
55.08
41.25
28.36
17.28
8.22
0.6
-6.7
-14.89
-24.74
-36.09
-47.61
-56.99
-61.56
-59.17
-49.01
-31.9
-10.19
13.02
34.67
52.41
64.95
71.96
73.87
71.62
66.42
59.59
52.34
45.56
39.68
34.56
29.6
23.93
16.8
7.97
-1.94
-11.38
-18.14
-19.98
-15.41
-4.31
11.96
30.99
50.01
66.65
79.36
87.44
90.76
89.62
84.5
76.12
65.49
53.84
42.37
31.99
23.0
15.08
7.35
-1.28
-11.65
-23.88
-37.04
-49.23
-57.97
-61.0
-57.03
-46.26
-30.37
-11.97
6.12
21.62
33.08
39.91
42.06
39.89
34.12
25.8
16.38
7.36
-0.09
-5.48
-9.1
-11.94
-15.32
-20.43
-27.92
-37.49
-47.72
-56.21
-60.15
-57.27
-46.66
-29.29
-7.71
14.73
34.95
50.87
61.58
67.1
67.82
64.34
57.42
48.18
38.03
28.46
20.52
14.52
9.98
5.76
0.58
-6.61
-16.19
-27.56
-39.15
-48.61
-53.5
-52.01
-43.77
-29.97
-13.05
4.17
19.34
31.06
38.89
42.91
43.33
40.32
34.2
25.71
16.11
6.86
-0.78
-6.3
-10.04
-13.06
-16.74
-22.23
-30.03
-39.72
-49.92
-58.46
-62.95
-61.39
-52.94
-38.21
-19.19
1.31
20.45
36.09
47.05
53.08
54.46
51.71
45.52
36.73
26.45
15.96
6.37
-1.64
-8.11
-13.71
-19.53
-26.64
-35.64
-46.37
-57.67
-67.59
-73.88
-74.65
-69.08
-57.74
-42.47
-25.74
-9.92
3.28
12.93
18.66
20.42
18.34
12.89
5.01
-3.92
-12.42
-19.38
-24.44
-27.99
-30.94
-34.31
-38.77
-44.39
-50.44
-55.46
-57.53
-54.75
-45.98
-31.3
-12.16
8.98
29.44
46.98
60.23
68.7
72.46
71.92
67.65
60.44
51.34
41.51
32.02
23.54
16.22
9.67
3.1
-4.35
-13.31
-23.83
-35.06
-45.28
-52.2
-53.76
-48.81
-37.64
-21.83
-3.8
14.0
29.56
41.59
49.43
52.8
51.82
47.03
39.4
30.32
21.22
13.22
6.81
1.72
-2.85
-7.97
-14.6
-23.19
-33.39
-43.86
-52.44
-56.7
-54.7
-45.67
-30.45
-11.24
9.05
27.68
42.8
53.56
59.91
62.14
60.55
55.52
47.69
38.17
28.43
19.84
13.18
8.33
4.37
-0.06
-6.14
-14.5
-24.91
-36.38
-47.28
-55.75
-60.06
-59.14
-52.89
-42.26
-29.0
-15.2
-2.72
7.16
13.78
16.99
16.95
14.04
8.91
2.48
-4.16
-9.98
-14.35
-17.21
-19.12
-21.09
-24.18
-29.13
-35.96
-43.8
-50.89
-55.11
-54.51
-47.98
-35.68
-19.03
-0.28
18.11
34.07
46.26
54.1
57.56
56.95
52.78
45.74
36.76
26.95
17.4
8.89
1.64
-4.74
-11.16
-18.59
-27.66
-38.3
-49.61
-60.02
-67.68
-70.89
-68.56
-60.58
-47.81
-31.95
-15.14
0.56
13.51
22.71
27.83
29.03
26.89
22.26
16.15
9.6
3.45
-1.88
-6.49
-10.92
-15.85
-21.85
-29.02
-36.78
-43.82
-48.37
-48.57
-43.08
-31.58
-15.04
4.54
24.6
42.7
57.02
66.55
70.94
70.35
65.33
56.75
45.78
33.78
21.99
11.28
1.87
-6.62
-15.06
-24.42
-35.37
-47.84
-60.73
-71.94
-78.89
-79.3
-72.1
-57.82
-38.51
-17.07
3.59
21.24
34.53
42.9
46.32
45.17
40.15
32.4
23.34
14.41
6.67
0.48
-4.49
-9.15
-14.61
-21.83
-31.08
-41.72
-52.03
-59.53
-61.65
-56.65
-44.27
-25.99
-4.52
17.08
36.27
51.56
62.4
68.72
70.52
67.78
60.7
50.04
37.29
24.26
12.58
3.09
-4.34
-10.66
-17.15
-24.92
-34.47
-45.41
-56.5
-65.74
-70.82
-69.76
-61.6
-46.77
-27.12
-5.41
15.5
33.24
46.37
54.21
56.72
54.24
47.51
37.75
26.56
15.66
6.38
-0.68
-5.91
-10.35
-15.39
-22.18
-31.19
-41.94
-52.89
-61.67
-65.63
-62.64
-51.86
-34.14
-11.85
11.83
33.81
51.84
64.69
72.05
74.07
71.2
64.16
54.05
42.33
30.5
19.75
10.54
2.57
-5.07
-13.48
-23.55
-35.52
-48.77
-61.75
-72.15
-77.51
-75.87
-66.51
-50.23
-29.27
-6.7
14.39
31.49
43.06
48.54
48.2
42.95
34.16
23.48
12.61
2.91
-4.82
-10.57
-15.07
-19.59
-25.46
-33.41
-43.04
-52.6
-59.22
-59.87
-52.41
-36.54
-14.02
11.86
37.34
59.3
75.86
86.33
90.81
89.71
83.67
73.59
60.87
47.21
34.22
22.85
13.07
4.0
-5.68
-17.17
-31.02
-46.82
-63.0
-77.04
-85.94
-86.99
-78.7
-61.45
-37.49
-10.37
16.15
39.0
56.39
67.69
73.0
72.86
68.04
59.63
49.12
38.12
28.05
19.7
13.12
7.69
2.46
-3.47
-10.57
-18.54
-26.16
-31.47
-32.24
-26.8
-14.72
2.86
23.55
44.47
63.16
78.05
88.47
94.25
95.31
91.61
83.34
71.35
57.17
42.73
29.76
19.19
10.86
3.75
-3.67
-12.77
-24.23
-37.63
-51.38
-62.91
-69.38
-68.53
-59.55
-43.37
-22.45
0.1
21.42
39.51
53.31
62.34
66.35
65.16
59.01
48.84
36.42
23.92
13.25
5.4
0.26
-3.21
-6.5
-11.01
-17.61
-26.45
-36.76
-46.87
-54.51
-57.36
-53.74
-43.34
-27.34
-8.16
11.33
28.55
41.71
49.84
52.61
50.14
42.95
32.02
18.83
5.06
-7.7
-18.47
-27.06
-34.0
-40.33
-47.22
-55.57
-65.63
-76.7
-87.01
-94.09
-95.34
-88.94
-74.54
-53.51
-28.6
-3.23
19.36
36.73
47.5
51.3
48.67
40.89
29.81
17.55
6.16
-2.93
-9.17
-13.01
-15.68
-18.76
-23.66
-31.1
-40.66
-50.67
-58.47
-61.1
-56.27
-43.26
-23.3
0.71
25.12
46.56
62.71
72.56
76.17
74.2
67.66
57.79
46.04
34.0
23.03
13.98
6.89
1.08
-4.65
-11.58
-20.66
-32.01
-44.6
-56.21
-63.87
-64.69
-56.97
-40.95
-18.93
5.47
28.52
47.45
60.92
68.8
71.54
69.69
63.74
54.47
43.16
31.54
21.29
13.46
8.09
4.22
0.33
-5.09
-13.01
-23.49
-35.54
-47.13
-55.65
-58.54
-54.16
-42.39
-24.82
-4.33
15.92
33.31
46.31
54.46
57.88
56.86
51.76
43.15
32.13
20.3
9.42
0.87
-4.89
-8.35
-10.79
-13.72
-18.35
-25.13
-33.5
-41.91
-48.14
-49.88
-45.49
-34.59
-18.37
0.86
20.29
37.54
51.15
60.55
65.78
66.99
64.28
57.85
48.36
37.04
25.51
15.31
7.3
1.44
-3.17
-7.81
-13.7
-21.54
-31.38
-42.46
-53.34
-62.07
-66.58
-65.24
-57.46
-43.95
-26.64
-8.19
8.86
22.63
32.14
37.16
37.94
34.89
28.69
20.28
10.93
2.08
-5.15
-10.3
-13.7
-16.43
-19.84
-25.02
-32.4
-41.47
-50.76
-58.19
-61.57
-59.24
-50.57
-36.27
-18.16
1.28
19.6
34.85
45.8
51.94
53.26
50.15
43.33
33.88
23.09
12.2
2.18
-6.6
-14.3
-21.53
-29.13
-37.74
-47.56
-58.04
-67.83
-74.95
-77.33
-73.49
-63.07
-47.15
-27.85
-7.8
10.63
25.74
36.6
42.89
44.68
42.38
36.75
28.85
19.94
11.13
3.19
-3.68
-9.75
-15.61
-21.97
-29.3
-37.53
-45.84
-52.58
-55.69
-53.29
-44.44
-29.62
-10.67
9.71
28.75
44.21
54.72
59.68
59.13
53.62
44.21
32.49
20.34
9.59
1.48
-3.67
-6.55
-8.64
-11.62
-16.81
-24.54
-33.83
-42.49
-47.69
-46.85
-38.57
-23.22
-2.91
19.14
39.67
56.21
67.56
73.62
74.92
72.11
65.82
56.75
45.88
34.5
23.95
15.16
8.3
2.71
-2.88
-9.83
-19.06
-30.58
-43.28
-55.08
-63.44
-66.13
-61.99
-51.33
-35.82
-17.89
0.02
16.05
29.06
38.41
43.72
44.74
41.59
34.95
26.25
17.28
9.65
4.32
1.19
-0.65
-2.61
-6.13
-12.16
-20.87
-31.43
-42.02
-50.18
-53.39
-49.92
-39.42
-23.18
-3.7
16.02
33.37
46.66
55.18
58.95
58.25
53.52
45.41
34.9
23.39
12.42
3.13
-4.06
-9.64
-14.75
-20.72
-28.44
-38.02
-48.57
-58.31
-64.98
-66.4
-61.21
-49.28
-31.96
-11.71
8.62
26.5
40.33
49.55
54.34
55.23
52.79
47.61
40.4
32.07
23.65
16.03
9.71
4.68
0.41
-3.88
-9.0
-15.53
-23.5
-32.21
-40.22
-45.57
-46.38
-41.42
-30.69
-15.51
1.87
18.94
33.59
44.51
51.2
53.68
52.23
47.31
39.61
30.15
20.21
11.1
3.76
-1.52
-5.23
-8.41
-12.32
-17.96
-25.69
-35.04
-44.72
-52.83
-57.39
-56.85
-50.56
-39.02
-23.81
-7.11
8.85
22.31
32.24
38.26
40.48
39.19
34.85
28.06
19.66
10.65
1.98
-5.69
-12.21
-17.93
-23.64
-30.19
-38.18
-47.58
-57.51
-66.29
-71.8
-72.09
-66.12
-54.08
-37.41
-18.32
0.83
18.06
31.89
41.37
45.92
45.38
40.14
31.28
20.49
9.63
0.25
-6.86
-11.79
-15.44
-19.13
-24.18
-31.38
-40.62
-50.54
-58.82
-62.74
-60.11
-50.07
-33.5
-12.71
9.35
29.97
47.25
60.21
68.47
71.95
70.75
65.24
56.28
45.29
33.94
23.7
15.37
8.89
3.41
-2.35
-9.6
-19.05
-30.6
-43.22
-55.09
-63.95
-67.69
-64.95
-55.6
-40.78
-22.62
-3.6
14.02
28.56
39.0
44.79
45.82
42.35
35.23
25.83
15.87
6.95
0.11
-4.5
-7.61
-10.48
-14.46
-20.57
-29.09
-39.33
-49.65
-57.71
-61.07
-57.94
-47.84
-31.79
-11.99
8.81
28.15
44.21
55.94
62.82
64.66
61.64
54.39
44.08
32.28
20.52
9.85
0.57
-7.73
-15.91
-24.84
-35.08
-46.58
-58.53
-69.38
-77.05
-79.45
-75.0
-63.25
-45.06
-22.5
1.65
24.58
43.94
58.21
66.67
69.38
67.02
60.78
52.19
42.89
34.29
27.22
21.81
17.38
12.77
6.64
-1.89
-12.71
-24.42
-34.47
-39.85
-38.09
-28.24
-11.26
10.22
32.82
53.47
70.04
81.52
87.62
88.38
83.96
74.81
61.94
46.98
31.86
18.24
6.99
-2.03
-9.78
-17.64
-26.88
-38.22
-51.5
-65.53
-78.14
-86.6
-88.35
-81.83
-67.13
-46.07
-21.71
2.59
23.98
40.61
51.61
56.83
56.58
51.53
42.81
31.97
20.8
10.85
3.06
-2.53
-6.64
-10.45
-15.21
-21.9
-30.8
-41.34
-51.94
-60.2
-63.51
-59.81
-48.42
-30.34
-8.06
15.22
36.41
53.24
64.46
69.67
69.04
63.18
53.13
40.39
26.76
13.98
3.26
-5.11
-11.74
-17.88
-24.99
-34.06
-45.17
-57.19
-67.87
-74.41
-74.28
-66.14
-50.34
-28.86
-4.7
18.99
39.58
55.27
65.02
68.37
65.35
56.66
43.75
28.72
13.89
1.11
-8.78
-16.15
-22.31
-29.03
-37.84
-49.46
-63.34
-77.55
-89.08
-94.53
-91.25
-78.26
-56.7
-29.55
-0.7
26.2
48.48
64.65
74.16
77.02
73.73
65.32
53.55
40.66
28.9
19.81
13.76
9.89
6.49
1.63
-6.22
-17.61
-31.75
-46.48
-58.56
-64.54
-61.73
-49.15
-27.99
-1.23
27.27
53.87
75.93
92.01
101.64
104.85
101.96
93.71
81.34
66.7
51.9
38.71
28.02
19.65
12.46
4.9
-4.48
-16.39
-30.5
-45.27
-58.23
-66.42
-67.27
-59.49
-43.61
-21.93
2.17
25.15
44.3
58.08
65.99
68.18
65.07
57.32
45.94
32.36
18.33
5.53
-4.91
-12.69
-18.38
-23.25
-28.77
-36.14
-45.73
-56.74
-67.12
-74.07
-74.81
-67.7
-52.83
-32.18
-8.89
13.72
33.03
47.55
56.74
60.63
59.48
53.72
44.22
32.44
20.34
9.83
2.24
-2.18
-4.31
-5.74
-8.28
-13.29
-21.23
-31.38
-41.84
-49.92
-52.76
-48.32
-36.17
-17.76
3.95
25.4
43.57
56.71
64.4
67.09
65.47
60.09
51.41
40.19
27.63
15.38
5.04
-2.35
-6.62
-8.53
-9.41
-10.77
-13.85
-19.27
-26.78
-35.14
-42.26
-45.74
-43.58
-34.89
-20.34
-1.97
17.41
35.12
49.16
58.51
62.89
62.42
57.47
48.62
36.92
23.86
11.22
0.51
-7.45
-12.81
-16.53
-20.02
-24.61
-31.17
-39.81
-49.8
-59.68
-67.48
-71.21
-69.4
-61.54
-48.34
-31.51
-13.25
4.23
19.2
30.53
37.6
40.24
38.7
33.74
26.62
18.92
12.05
6.9
3.46
0.93
-1.99
-6.63
-13.87
-23.68
-35.0
-45.76
-53.34
-55.28
-50.08
-37.75
-19.85
0.98
21.81
40.16
54.32
63.4
67.08
65.5
59.26
49.52
37.86
26.01
15.3
6.37
-1.05
-7.87
-15.3
-24.46
-35.88
-49.2
-62.86
-74.28
-80.39
-78.58
-67.74
-48.75
-24.25
2.15
26.96
47.62
62.62
71.37
73.78
70.17
61.26
48.4
33.44
18.39
4.82
-6.49
-15.78
-24.1
-32.92
-43.59
-56.8
-72.07
-87.6
-100.43
-107.2
-105.23
-93.48
-73.07
-46.89
-18.66
8.15
31.13
49.0
61.26
67.75
68.49
63.84
54.88
43.37
31.49
21.12
13.23
7.61
3.06
-2.1
-9.38
-19.49
-31.95
-45.02
-55.92
-61.58
-59.59
-49.09
-31.14
-8.47
15.39
37.17
54.54
66.26
71.96
71.62
65.52
54.31
39.35
22.74
6.89
-6.15
-15.38
-21.16
-24.96
-28.82
-34.59
-43.31
-54.74
-67.26
-78.0
-83.55
-80.88
-68.39
-46.56
-17.95
13.6
44.09
70.43
90.97
105.32
113.86
117.2
116.02
111.17
103.92
95.92
88.9
84.17
82.18
82.43
83.63
84.14
82.53
78.04
71.0
62.87
56.0
52.98
55.78
65.13
80.23
99.01
118.67
136.34
149.46
155.95
154.33
143.81
124.52
97.67
65.36
30.15
-5.65
-40.49
-73.59
-104.82
-134.24
-161.95
-188.05
-212.58
-235.3
-255.33
-271.01
-280.1
-280.51
-271.15
-252.43
-226.28
-195.58
-163.36
-132.31
-104.44
-81.12
-63.1
-50.39
-42.3
-37.57
-34.74
-32.67
-30.87
-29.54
-29.3
-30.92
-34.98
-41.7
-50.62
-60.38
-68.75
-72.91
-70.29
-59.46
-40.75
-16.31
10.51
36.08
57.36
72.4
80.38
81.44
76.45
66.77
54.14
40.36
27.04
15.18
5.11
-3.63
-12.0
-21.11
-31.68
-43.46
-54.95
-63.5
-66.03
-60.08
-44.86
-21.64
6.49
35.58
61.88
82.69
96.52
102.98
102.41
95.69
84.2
69.69
54.15
39.28
26.14
14.86
4.74
-5.51
-17.16
-30.87
-46.03
-60.61
-71.46
-75.22
-69.5
-53.87
-30.12
-1.77
27.06
52.75
72.9
86.38
92.99
93.17
87.82
78.35
66.56
54.4
43.4
34.26
26.71
19.73
12.01
2.45
-9.25
-22.26
-34.53
-43.11
-44.92
-37.86
-21.69
1.64
28.56
54.97
77.45
93.97
103.85
107.25
104.63
96.51
83.74
67.69
50.33
33.73
19.55
8.41
-0.16
-7.5
-15.3
-24.92
-36.9
-50.44
-63.41
-72.7
-75.08
-68.33
-52.17
-28.52
-0.97
26.37
50.06
67.96
79.33
84.33
83.46
77.42
67.17
54.1
40.02
26.82
15.94
7.92
2.31
-2.18
-7.16
-14.03
-23.35
-34.44
-45.29
-53.0
-54.68
-48.49
-34.45
-14.53
7.91
29.21
46.37
57.5
61.82
59.34
50.65
36.89
19.9
1.98
-14.46
-27.64
-36.99
-43.26
-48.15
-53.68
-61.4
-71.84
-84.1
-95.96
-104.29
-105.93
-98.75
-82.47
-58.92
-31.59
-4.56
18.6
35.63
45.67
48.98
46.5
39.55
29.71
18.73
8.31
-0.33
-6.7
-11.26
-15.14
-19.8
-26.55
-35.98
-47.66
-59.91
-70.02
-74.9
-72.03
-60.49
-41.4
-17.76
6.62
28.31
45.18
56.68
63.34
66.14
65.92
63.3
58.89
53.51
48.16
43.69
40.37
37.67
34.33
28.8
19.92
7.62
-6.72
-20.39
-30.05
-32.71
-26.85
-12.91
6.82
28.97
50.22
68.06
81.13
89.02
91.92
90.25
84.65
76.07
65.77
55.11
45.19
36.46
28.67
20.98
12.38
2.03
-10.34
-24.19
-38.04
-49.68
-56.64
-56.92
-49.76
-35.97
-17.77
1.89
20.2
35.17
45.74
51.66
53.02
50.04
43.17
33.18
21.35
9.23
-1.78
-10.85
-18.01
-24.04
-30.07
-37.19
-45.92
-55.92
-65.99
-74.17
-78.29
-76.54
-68.1
-53.43
-34.21
-12.94
7.73
25.52
38.86
46.89
49.4
46.65
39.36
28.66
16.03
3.11
-8.7
-18.52
-26.23
-32.45
-38.39
-45.34
-54.12
-64.55
-75.26
-83.83
-87.59
-84.47
-73.83
-56.66
-35.28
-12.55
8.84
26.89
40.29
48.29
50.68
47.77
40.62
30.85
20.38
10.76
2.75
-3.83
-9.88
-16.49
-24.56
-34.41
-45.62
-56.94
-66.45
-71.87
-71.21
-63.41
-48.81
-29.17
-7.11
14.58
33.61
48.55
58.69
63.87
64.25
60.31
52.85
43.02
32.12
21.39
11.65
3.19
-4.31
-11.58
-19.39
-28.08
-37.09
-44.85
-49.15
-47.89
-39.91
-25.52
-6.45
14.74
35.42
53.51
67.64
77.07
81.44
80.76
75.47
66.56
55.48
43.83
32.95
23.53
15.44
7.89
-0.28
-10.23
-22.56
-36.97
-52.04
-65.36
-74.11
-75.91
-69.66
-56.02
-37.18
-16.19
4.01
21.23
34.41
43.27
48.02
49.01
46.73
41.9
35.59
29.04
23.29
18.82
15.37
11.99
7.49
0.88
-8.13
-18.88
-29.7
-38.22
-41.97
-39.12
-29.14
-12.98
7.14
28.43
48.3
64.89
77.2
84.91
88.01
86.56
80.8
71.33
59.26
46.31
34.37
25.13
19.54
17.49
17.78
18.5
17.61
13.62
6.19
-3.75
-14.27
-23.04
-28.01
-28.0
-22.84
-13.34
-0.84
13.03
26.68
38.54
47.05
50.75
48.5
39.9
25.66
7.61
-11.68
-29.69
-44.52
-55.31
-62.17
-65.85
-67.44
-68.05
-68.48
-68.95
-68.81
-66.53
-60.22
-48.49
-31.4
-10.9
9.45
25.56
34.11
33.56
24.49
9.2
-9.09
-27.03
-41.92
-52.04
-56.84
-56.72
-52.69
-46.0
-37.92
-29.61
-22.19
-16.55
-13.07
-11.12
-8.97
-4.07
6.15
23.21
46.74
74.49
102.86
128.01
146.82
157.42
159.16
152.37
138.04
117.71
93.4
67.37
41.8
18.28
-2.48
-20.69
-37.23
-53.26
-69.85
-87.61
-106.5
-125.66
-143.53
-158.14
-167.67
-171.17
-168.91
-162.38
-153.73
-145.07
-137.92
-133.03
-130.54
-130.32
-132.1
-135.45
-139.58
-143.34
-145.43
-144.94
-141.69
-136.37
-130.39
-125.34
-122.52
-122.43
-124.49
-127.04
-127.54
-123.23
-111.93
-92.82
-66.78
-36.25
-4.54
25.13
50.36
69.87
83.32
91.02
93.66
92.24
88.12
82.92
78.08
74.49
72.2
70.44
68.0
63.67
56.77
47.43
36.79
26.87
20.11
18.74
23.95
35.5
51.66
69.84
87.36
102.24
113.4
120.4
123.14
121.51
115.58
105.78
93.15
79.21
65.54
53.3
42.9
34.05
25.91
17.45
7.75
-3.67
-16.59
-29.86
-41.5
-49.1
-50.53
-44.76
-32.29
-15.04
4.3
23.09
39.43
52.33
61.45
66.65
67.68
64.36
56.86
46.07
33.55
21.13
10.3
1.7
-4.99
-10.79
-17.0
-24.62
-34.13
-45.16
-56.53
-66.36
-72.52
-73.14
-67.28
-55.27
-38.57
-19.38
0.12
18.19
33.68
45.86
54.15
58.11
57.61
53.09
45.65
36.82
28.1
20.45
14.01
8.2
2.12
-5.07
-13.75
-23.7
-34.12
-43.61
-50.43
-52.87
-49.7
-40.64
-26.68
-9.79
7.56
23.16
35.6
44.33
49.44
51.13
49.59
44.97
37.74
28.83
19.51
10.99
4.0
-1.42
-5.85
-10.19
-15.25
-21.48
-28.78
-36.44
-43.06
-46.91
-46.22
-39.91
-27.9
-11.36
7.66
26.74
43.7
56.95
65.44
68.62
66.27
58.62
46.38
30.84
13.59
-3.83
-20.27
-35.21
-48.6
-60.67
-71.62
-81.49
-90.0
-96.53
-100.17
-99.78
-94.32
-83.17
-66.45
-45.22
-21.28
3.14
25.85
44.99
59.18
67.56
69.76
65.96
56.97
44.14
29.13
13.68
-0.8
-13.29
-23.22
-30.44
-35.24
-38.3
-40.54
-42.68
-44.73
-45.7
-43.75
-37.0
-24.48
-6.79
13.9
34.67
52.86
66.86
76.17
80.93
81.22
76.81
67.4
53.18
35.32
15.85
-2.77
-18.51
-30.31
-38.29
-43.49
-47.43
-51.66
-57.29
-64.67
-73.12
-80.9
-85.57
-84.66
-76.63
-61.43
-40.66
-17.04
6.43
27.31
44.14
56.37
63.93
66.92
65.52
60.19
51.89
42.12
32.58
24.71
19.19
15.79
13.46
10.75
6.24
-0.98
-11.04
-23.12
-35.5
-45.85
-51.78
-51.51
-44.45
-31.42
-14.37
4.19
21.79
36.53
47.13
52.89
53.6
49.55
41.7
31.65
21.44
13.04
7.71
5.58
5.55
5.63
3.54
-2.45
-12.92
-26.83
-41.67
-54.06
-60.8
-59.94
-51.38
-36.92
-19.48
-2.05
13.13
24.9
32.95
37.41
38.43
36.26
31.41
24.81
17.65
11.06
5.6
1.16
-2.94
-7.64
-13.78
-21.82
-31.75
-42.85
-53.7
-62.23
-66.08
-63.33
-53.16
-36.28
-14.83
8.32
30.29
48.86
62.72
71.31
74.53
72.59
66.06
55.94
43.72
31.09
19.51
9.73
1.61
-5.88
-14.23
-24.82
-38.32
-54.17
-70.29
-83.49
-90.19
-87.62
-74.86
-53.26
-26.04
2.76
29.59
52.21
69.81
82.5
90.62
94.31
93.58
88.73
80.64
70.81
60.85
51.98
44.56
38.08
31.46
23.53
13.45
1.14
-12.59
-26.03
-36.91
-42.88
-42.29
-34.75
-21.32
-4.21
13.94
30.92
45.27
56.3
63.64
66.86
65.4
59.01
48.19
34.42
19.9
6.88
-3.14
-9.82
-13.97
-17.01
-20.42
-25.23
-31.74
-39.46
-47.06
-52.65
-54.15
-49.87
-39.11
-22.49
-1.88
20.11
40.78
57.87
69.91
76.12
76.3
70.74
60.23
46.21
30.68
15.88
3.78
-4.52
-9.15
-11.52
-13.91
-18.74
-27.77
-41.3
-57.86
-74.39
-87.02
-92.28
-88.2
-75.06
-55.25
-32.43
-10.36
8.16
21.85
30.91
36.47
40.04
42.88
45.79
48.97
52.14
54.69
55.91
55.19
52.02
45.99
36.69
23.76
7.17
-12.32
-32.85
-51.53
-65.08
-70.82
-67.58
-56.16
-38.94
-19.12
0.29
17.16
30.35
39.35
43.84
43.5
38.18
28.26
15.02
0.43
-13.25
-24.28
-31.95
-36.72
-39.98
-43.35
-48.07
-54.4
-61.52
-67.67
-70.61
-68.32
-59.55
-44.3
-23.86
-0.52
23.03
44.26
61.33
73.22
79.57
80.44
76.21
67.5
55.31
41.01
26.17
12.22
0.06
-10.18
-19.19
-28.17
-38.33
-50.35
-63.92
-77.5
-88.62
-94.52
-93.01
-83.19
-65.8
-43.02
-17.8
6.89
28.67
45.9
57.61
63.35
63.2
57.84
48.63
37.46
26.32
16.73
9.26
3.39
-2.21
-9.08
-18.31
-29.96
-42.88
-54.8
-62.9
-64.57
-58.18
-43.62
-22.4
2.83
28.96
53.19
73.5
88.71
98.18
101.64
99.09
91.05
78.78
64.21
49.57
36.68
26.37
18.23
10.88
2.55
-8.19
-21.93
-38.06
-54.74
-69.15
-78.02
-78.42
-68.75
-49.33
-22.56
7.69
37.17
62.31
80.95
92.31
96.56
94.35
86.51
74.15
58.84
42.55
27.31
14.66
5.13
-1.87
-7.9
-14.84
-24.33
-37.11
-52.6
-68.83
-82.7
-90.83
-90.52
-80.83
-62.96
-39.89
-15.33
7.41
26.27
40.46
50.02
55.14
55.83
52.08
44.29
33.59
21.76
10.75
2.01
-3.95
-7.65
-10.38
-13.7
-18.92
-26.81
-37.26
-49.2
-60.56
-68.61
-70.59
-64.61
-50.4
-29.52
-4.97
19.78
41.8
59.33
71.77
79.23
82.05
80.46
74.8
65.78
54.68
43.13
32.72
24.41
18.3
13.63
9.11
3.4
-4.54
-15.13
-28.01
-41.98
-55.06
-64.87
-69.09
-66.22
-56.02
-39.7
-19.67
1.21
20.26
35.59
46.17
51.66
52.16
48.06
40.03
29.19
17.08
5.44
-4.22
-11.1
-15.28
-17.67
-19.56
-22.28
-26.7
-33.08
-40.91
-48.88
-55.02
-57.08
-53.14
-42.32
-25.26
-4.08
18.26
38.75
55.19
66.39
72.07
72.35
67.57
58.23
45.21
29.91
14.16
-0.26
-12.09
-20.97
-27.51
-33.02
-39.0
-46.67
-56.56
-68.2
-80.03
-89.66
-94.38
-91.98
-81.53
-63.76
-40.94
-16.22
7.29
27.3
42.6
52.91
58.38
59.29
55.91
48.83
39.15
28.47
18.53
10.72
5.58
2.67
0.77
-1.7
-6.25
-13.79
-24.4
-37.03
-49.56
-59.17
-63.14
-59.7
-48.81
-32.2
-12.78
6.38
22.98
35.85
44.85
50.34
52.79
52.66
50.59
47.52
44.68
43.25
43.95
46.74
50.79
54.74
57.11
56.61
52.4
44.19
32.45
18.46
4.29
-7.59
-14.87
-16.1
-11.23
-1.55
10.77
23.5
35.01
44.44
51.5
55.96
57.44
55.49
50.03
41.61
31.49
21.19
11.96
4.31
-2.04
-7.89
-14.2
-21.71
-30.79
-41.3
-52.59
-63.36
-71.91
-76.48
-75.75
-69.34
-57.96
-43.14
-26.75
-10.43
4.62
17.65
28.14
35.63
39.75
40.39
37.86
32.97
26.89
20.93
16.19
13.32
12.21
11.97
11.15
8.25
2.45
-5.76
-14.45
-20.73
-21.77
-15.86
-3.14
14.41
33.69
51.44
65.0
72.53
72.82
65.1
48.96
24.79
-5.88
-40.21
-74.58
-105.44
-130.22
-147.87
-158.76
-164.28
-166.26
-166.63
-167.06
-168.6
-171.32
-174.0
-174.34
-169.7
-158.24
-139.77
-115.97
-89.8
-64.36
-41.87
-23.31
-8.66
2.53
10.74
16.44
20.41
23.99
28.87
36.54
47.56
61.18
75.45
87.88
96.25
99.2
96.5
88.94
78.21
66.7
57.24
52.58
54.6
63.57
77.88
94.4
109.56
120.47
125.69
125.12
119.39
109.16
94.84
76.84
56.07
34.13
13.08
-5.25
-19.85
-30.84
-39.15
-46.1
-52.81
-60.01
-67.89
-76.08
-83.59
-88.88
-90.07
-85.56
-74.72
-58.24
-38.09
-16.9
2.83
19.4
32.0
40.57
45.34
46.56
44.44
39.43
32.3
24.25
16.6
10.48
6.41
4.27
3.31
2.41
0.46
-3.52
-10.1
-19.19
-29.9
-40.54
-48.81
-52.52
-50.21
-41.81
-28.63
-12.95
2.77
16.55
27.28
34.5
38.14
38.23
34.8
28.05
18.52
7.1
-5.12
-17.08
-28.05
-37.79
-46.46
-54.53
-62.43
-70.42
-78.35
-85.63
-91.18
-93.69
-91.84
-84.72
-72.16
-54.94
-34.69
-13.52
6.52
23.88
37.71
47.7
53.89
56.4
55.48
51.6
45.67
38.99
32.99
28.8
26.84
26.65
26.98
26.22
22.86
16.05
5.98
-5.98
-17.53
-25.94
-28.87
-25.09
-14.84
0.23
17.67
34.92
49.94
61.5
69.06
72.54
72.07
67.96
60.78
51.4
41.06
31.08
22.72
16.77
13.43
12.28
12.51
13.16
13.47
13.06
11.98
10.75
10.11
10.91
13.86
19.28
26.95
36.04
45.3
53.33
58.88
61.0
59.15
53.15
43.19
29.94
14.56
-1.43
-16.4
-28.97
-38.32
-44.25
-47.17
-47.92
-47.53
-47.1
-47.53
-49.29
-52.19
-55.32
-57.14
-55.88
-50.06
-38.9
-22.66
-2.6
19.25
40.59
59.28
73.68
82.81
86.25
84.09
76.82
65.49
51.69
37.5
25.01
15.83
10.45
8.16
7.19
5.36
0.83
-7.27
-18.59
-31.58
-43.94
-53.25
-57.66
-56.41
-50.13
-40.56
-29.89
-19.97
-11.79
-5.41
-0.49
3.11
4.92
4.04
-0.21
-7.67
-17.17
-26.86
-35.0
-40.8
-44.7
-48.19
-53.13
-61.03
-72.42
-86.69
-102.13
-116.34
-126.76
-131.25
-128.68
-119.23
-104.39
-86.66
-68.92
-53.79
-43.05
-37.3
-35.91
-37.37
-39.68
-41.02
-40.15
-36.61
-30.75
-23.47
-16.02
-9.65
-5.51
-4.39
-6.51
-11.25
-16.97
-21.29
-21.58
-15.8
-3.24
15.15
37.07
59.58
80.05
96.73
108.96
116.66
119.92
118.57
112.35
101.31
86.26
68.86
51.32
35.71
23.31
14.27
7.63
1.7
-5.39
-15.08
-27.92
-43.23
-59.06
-72.67
-81.2
-82.61
-76.3
-63.36
-46.09
-27.32
-9.6
5.25
16.26
23.11
25.93
25.12
21.4
15.85
9.74
4.33
0.49
-1.57
-2.3
-2.63
-3.62
-6.12
-10.41
-16.15
-22.27
-27.13
-28.84
-25.69
-16.75
-2.29
16.18
36.23
55.27
71.17
82.68
89.29
91.02
88.05
80.74
69.8
56.43
42.31
29.13
18.03
9.3
2.29
-4.23
-11.53
-20.43
-31.08
-42.78
-54.04
-62.85
-67.05
-64.92
-55.73
-40.15
-20.12
1.66
22.45
40.16
53.73
63.0
68.33
70.2
68.97
64.99
58.76
51.12
43.12
35.77
29.58
24.34
19.04
12.32
2.99
-9.37
-24.06
-39.31
-52.74
-61.99
-65.44
-62.61
-54.21
-41.87
-27.64
-13.43
-0.72
9.45
16.39
19.6
18.8
14.05
6.05
-3.94
-14.22
-23.26
-30.03
-34.39
-36.98
-39.0
-41.61
-45.56
-50.74
-56.15
-60.07
-60.51
-55.92
-45.73
-30.72
-12.73
5.86
22.88
36.84
46.97
52.98
54.75
52.34
46.13
37.12
26.82
16.89
8.58
2.35
-2.2
-6.0
-10.09
-15.22
-21.62
-28.88
-35.86
-40.81
-41.74
-37.01
-25.94
-9.29
10.97
32.24
52.1
68.86
81.68
90.33
94.85
95.47
92.62
87.09
80.01
72.54
65.5
59.13
53.11
46.72
39.28
30.41
20.25
9.62
-0.07
-6.98
-9.29
-5.83
3.4
17.09
32.84
47.93
60.05
67.79
70.72
69.08
63.33
54.01
41.83
27.79
13.32
0.02
-10.81
-18.6
-23.68
-27.09
-30.22
-34.34
-40.16
-47.62
-55.77
-62.91
-66.97
-66.11
-59.38
-47.12
-30.96
-13.27
3.61
17.97
29.04
36.69
41.08
42.32
40.46
35.76
28.95
21.26
14.09
8.54
5.0
3.03
1.55
-0.63
-4.37
-9.88
-16.58
-23.31
-28.54
-30.79
-28.9
-22.36
-11.43
2.85
18.95
35.1
49.61
61.13
68.63
71.54
69.83
64.14
55.86
46.94
39.41
34.73
33.33
34.53
36.92
38.95
39.46
38.02
34.9
30.97
27.61
26.56
29.61
38.1
52.16
70.43
90.15
108.03
121.37
128.85
130.63
127.86
121.81
113.28
102.62
90.11
76.36
62.43
49.51
38.34
28.88
20.26
11.09
0.07
-13.51
-29.42
-46.43
-62.52
-75.48
-83.57
-86.16
-84.04
-79.13
-73.81
-70.12
-69.23
-71.31
-75.97
-82.76
-91.5
-102.33
-115.3
-130.09
-145.77
-161.09
-174.84
-186.36
-195.71
-203.51
-210.53
-217.15
-223.1
-227.34
-228.41
-224.86
-215.87
-201.6
-183.25
-162.76
-142.32
-123.69
-107.75
-94.53
-83.27
-72.7
-61.24
-47.25
-29.48
-7.55
17.55
43.46
66.94
84.94
95.55
98.49
94.8
86.17
74.1
59.68
43.86
27.83
13.35
2.36
-3.6
-3.97
0.55
8.43
17.81
27.1
35.3
41.96
46.82
49.6
49.92
47.42
42.17
34.85
26.71
19.19
13.42
9.73
7.61
5.95
3.49
-0.62
-6.55
-13.62
-20.53
-25.57
-27.16
-24.23
-16.62
-5.19
8.46
22.39
34.93
45.03
52.28
56.68
58.36
57.44
54.07
48.64
41.89
34.76
28.17
22.66
18.28
14.57
10.76
6.1
0.21
-6.68
-13.61
-19.09
-21.46
-19.56
-13.09
-2.76
9.87
23.04
35.19
45.34
53.05
58.18
60.64
60.32
57.26
51.82
44.86
37.57
31.1
26.21
22.97
20.79
18.67
15.53
10.62
3.67
-4.92
-14.1
-22.36
-28.02
-29.69
-26.72
-19.5
-9.41
1.68
11.93
20.07
25.52
28.23
28.33
26.01
21.52
15.37
8.41
1.67
-3.91
-7.86
-10.31
-11.83
-13.16
-14.95
-17.63
-21.38
-26.07
-31.16
-35.66
-38.24
-37.6
-33.0
-24.62
-13.58
-1.64
9.43
18.41
24.69
28.26
29.27
27.86
24.11
18.32
11.13
3.53
-3.38
-8.81
-12.52
-14.89
-16.7
-18.84
-22.01
-26.51
-32.19
-38.34
-43.87
-47.45
-47.82
-44.33
-37.08
-27.05
-15.71
-4.59
5.15
12.88
18.28
21.25
21.73
19.84
16.03
11.19
6.35
2.45
-0.1
-1.43
-2.03
-2.56
-3.51
-5.18
-7.62
-10.53
-13.23
-14.66
-13.59
-9.08
-0.87
10.34
23.1
35.62
46.34
54.21
58.78
60.04
58.14
53.47
46.67
38.78
31.13
24.98
21.11
19.49
19.22
18.91
17.17
13.04
6.24
-2.84
-13.24
-23.62
-32.37
-37.89
-38.9
-34.87
-26.31
-14.65
-1.84
10.26
20.42
28.17
33.58
36.93
38.34
37.8
35.36
31.29
26.16
20.75
15.74
11.5
7.94
4.49
0.35
-5.27
-12.77
-21.98
-32.02
-41.44
-48.56
-51.91
-50.6
-44.55
-34.48
-21.67
-7.61
6.31
19.1
30.25
39.69
47.63
54.29
59.77
63.92
66.42
66.92
65.11
60.73
53.51
43.06
29.08
11.53
-9.08
-31.53
-54.05
-74.68
-91.64
-103.63
-109.94
-110.38
-105.25
-95.31
-81.78
-66.3
-50.67
-36.54
-25.12
-17.0
-12.2
-10.36
-10.87
-12.98
-15.82
-18.45
-20.08
-20.22
-18.92
-16.72
-14.41
-12.78
-12.29
-12.94
-14.29
-15.54
-15.67
-13.64
-8.55
-0.01
11.77
25.85
40.84
55.17
67.48
76.86
82.88
85.44
84.68
80.93
74.72
66.77
57.94
49.06
40.81
33.47
26.98
20.94
14.77
7.88
-0.1
-9.21
-18.98
-28.51
-36.53
-41.68
-42.87
-39.69
-32.61
-22.95
-12.54
-3.11
4.14
8.73
10.8
10.69
8.65
4.8
-0.74
-7.57
-14.95
-21.96
-27.86
-32.36
-35.65
-38.26
-40.75
-43.49
-46.52
-49.59
-52.14
-53.45
-52.77
-49.52
-43.62
-35.52
-26.15
-16.6
-7.77
-0.21
5.88
10.4
13.26
14.33
13.6
11.38
8.29
5.2
2.85
1.68
1.67
2.37
3.03
2.81
1.04
-2.58
-7.76
-13.51
-18.34
-20.62
-19.13
-13.49
-4.35
6.84
18.31
28.5
36.44
41.79
44.7
45.48
44.48
41.99
38.32
33.85
29.01
24.17
19.55
15.22
11.08
7.01
2.8
-1.74
-6.86
-12.7
-19.19
-25.84
-31.69
-35.55
-36.38
-33.64
-27.5
-18.64
-8.01
3.46
14.98
25.78
34.92
41.43
44.5
43.84
40.03
34.35
28.38
23.47
20.22
18.35
16.9
14.66
10.57
4.04
-4.96
-15.89
-27.65
-38.76
-47.59
-52.72
-53.29
-49.27
-41.41
-30.96
-19.28
-7.56
3.36
12.89
20.6
26.13
29.29
30.18
29.15
26.79
23.61
19.85
15.41
9.91
2.97
-5.63
-15.77
-26.98
-38.44
-49.0
-57.36
-62.17
-62.43
-57.79
-48.81
-36.89
-23.82
-11.35
-0.66
7.75
13.87
17.91
20.01
20.28
18.9
16.24
12.8
9.08
5.41
2.02
-0.93
-3.27
-4.91
-5.99
-6.96
-8.39
-10.48
-12.77
-14.13
-13.22
-9.18
-2.07
7.02
16.56
25.24
32.56
38.81
44.63
50.35
55.61
59.36
60.4
58.0
52.36
44.6
36.27
28.65
22.18
16.33
9.89
1.63
-9.05
-21.76
-35.12
-47.13
-55.68
-59.09
-56.63
-48.72
-36.83
-23.09
-9.67
1.81
10.6
16.79
20.89
23.47
24.91
25.36
24.98
24.11
23.25
22.87
23.1
23.64
23.72
22.42
18.91
12.76
4.11
-6.26
-17.03
-26.56
-33.27
-36.07
-34.69
-29.74
-22.49
-14.4
-6.74
-0.29
4.64
8.05
10.0
10.55
9.77
7.85
5.19
2.28
-0.4
-2.57
-4.23
-5.67
-7.34
-9.7
-13.1
-17.67
-23.26
-29.35
-35.0
-39.02
-40.15
-37.49
-30.88
-21.01
-9.23
2.89
14.04
23.44
30.71
35.68
38.11
37.73
34.52
28.97
22.11
15.27
9.51
5.3
2.38
-0.03
-2.87
-6.9
-12.48
-19.58
-27.62
-35.53
-41.88
-45.18
-44.37
-39.24
-30.56
-19.83
-8.8
1.09
9.0
14.63
17.98
19.09
17.96
14.7
9.72
3.77
-2.13
-7.05
-10.41
-12.27
-13.2
-14.13
-15.98
-19.36
-24.29
-30.1
-35.52
-38.95
-38.88
-34.39
-25.56
-13.37
0.49
14.3
26.7
36.96
44.8
50.2
53.1
53.52
51.67
48.14
43.79
39.49
35.81
32.85
30.32
27.73
24.59
20.52
15.23
8.56
0.56
-8.3
-17.04
-24.22
-28.36
-28.35
-23.89
-15.67
-5.11
6.05
16.23
24.41
30.11
33.3
34.18
32.98
30.0
25.63
20.43
15.05
10.07
5.84
2.4
-0.48
-3.26
-6.4
-10.34
-15.34
-21.34
-27.83
-33.79
-37.91
-38.9
-36.01
-29.22
-19.35
-7.73
4.26
15.46
25.1
32.66
37.71
39.94
39.22
35.82
30.45
24.15
17.97
12.65
8.39
4.86
1.35
-2.96
-8.7
-16.2
-25.33
-35.5
-45.62
-54.23
-59.79
-61.11
-57.7
-50.08
-39.58
-27.95
-16.77
-7.09
0.67
6.47
10.31
12.08
11.62
9.0
4.79
0.01
-4.17
-6.86
-7.83
-7.54
-6.92
-7.0
-8.59
-12.1
-17.49
-24.22
-31.27
-37.11
-40.02
-38.53
-31.96
-20.72
-6.19
9.69
25.11
38.84
50.28
59.19
65.37
68.35
67.65
63.16
55.39
45.62
35.46
26.29
18.79
12.83
7.7
2.59
-3.0
-9.09
-15.22
-20.59
-24.24
-25.19
-22.64
-16.23
-6.28
6.14
19.47
32.04
42.56
50.36
55.27
57.46
57.09
54.36
49.5
42.93
35.34
27.53
20.24
14.0
8.94
4.81
1.1
-2.84
-7.6
-13.5
-20.51
-28.09
-35.27
-40.76
-43.27
-41.79
-35.98
-26.35
-14.22
-1.36
10.5
20.16
27.04
31.13
32.63
31.8
28.86
24.19
18.42
12.4
6.91
2.43
-1.11
-4.21
-7.6
-11.9
-17.49
-24.42
-32.5
-41.25
-49.89
-57.24
-61.85
-62.37
-57.96
-48.75
-35.81
-20.97
-6.16
7.04
17.77
25.76
31.1
33.89
34.21
32.17
28.12
22.78
17.07
11.84
7.57
4.18
1.18
-2.17
-6.51
-12.24
-19.42
-27.71
-36.3
-43.98
-49.28
-50.9
-48.13
-41.16
-31.07
-19.5
-8.04
2.1
10.31
16.32
19.98
21.08
19.44
15.1
8.58
0.8
-7.11
-14.15
-19.75
-23.89
-26.99
-29.79
-33.01
-37.23
-42.6
-48.68
-54.41
-58.19
-58.31
-53.5
-43.41
-28.86
-11.59
6.3
22.99
37.35
48.88
57.43
62.77
64.57
62.55
56.91
48.57
38.91
29.47
21.26
14.54
8.79
3.12
-3.45
-11.57
-21.45
-32.7
-44.31
-54.68
-61.95
-64.46
-61.33
-52.77
-40.08
-25.15
-9.92
4.17
16.29
26.1
33.37
37.89
39.46
38.05
34.15
28.69
22.95
18.21
15.26
14.24
14.52
14.98
14.35
11.65
6.52
-0.58
-8.42
-15.18
-18.94
-18.22
-12.43
-2.07
11.4
26.08
40.11
52.07
61.08
66.67
68.56
66.65
61.11
52.52
41.92
30.6
19.83
10.49
2.89
-3.27
-8.72
-14.35
-20.96
-28.99
-38.23
-47.74
-55.91
-60.8
-60.7
-54.68
-43.04
-27.22
-9.46
7.89
22.91
34.43
42.02
45.79
46.08
43.31
38.02
30.92
22.88
14.84
7.6
1.63
-3.03
-6.71
-9.99
-13.6
-18.2
-24.27
-31.79
-40.04
-47.57
-52.39
-52.56
-46.92
-35.6
-20.09
-2.77
13.89
27.99
38.55
45.33
48.52
48.39
45.22
39.39
31.55
22.59
13.57
5.42
-1.32
-6.51
-10.48
-13.82
-17.22
-21.24
-26.15
-31.72
-37.17
-41.25
-42.49
-39.64
-32.11
-20.23
-5.27
10.9
26.33
39.46
49.39
55.8
58.73
58.37
54.93
48.83
40.84
32.12
23.99
17.55
13.36
11.2
10.23
9.32
7.36
3.62
-2.17
-9.72
-18.2
-26.4
-32.83
-36.12
-35.34
-30.32
-21.7
-10.78
0.88
11.81
20.82
27.1
30.11
29.63
25.77
19.08
10.65
1.88
-5.79
-11.35
-14.51
-15.7
-15.87
-16.08
-17.14
-19.45
-22.87
-26.75
-29.96
-31.06
-28.68
-21.91
-10.8
3.56
19.3
34.42
47.32
57.17
63.81
67.32
67.75
65.06
59.38
51.22
41.6
31.77
22.79
15.25
9.06
3.62
-1.9
-8.38
-16.41
-26.09
-36.83
-47.3
-55.66
-60.06
-59.19
-52.85
-42.02
-28.52
-14.42
-1.43
9.42
17.74
23.48
26.63
27.17
25.16
20.99
15.46
9.73
4.83
1.44
-0.48
-1.54
-2.67
-4.78
-8.47
-13.86
-20.56
-27.67
-33.88
-37.67
-37.72
-33.35
-24.81
-13.34
-0.74
11.18
21.1
28.36
32.82
34.6
33.79
30.52
25.04
17.94
10.11
2.55
-3.89
-8.76
-12.16
-14.65
-17.03
-20.15
-24.58
-30.49
-37.43
-44.39
-49.96
-52.7
-51.57
-46.32
-37.6
-26.77
-15.46
-5.12
3.43
9.93
14.53
17.47
18.91
18.95
17.84
16.07
14.26
12.92
12.23
11.93
11.43
10.1
7.51
3.6
-1.44
-7.18
-13.02
-18.17
-21.69
-22.66
-20.48
-15.1
-7.14
2.3
11.97
20.81
28.13
33.56
36.96
38.24
37.44
34.68
30.39
25.22
19.97
15.36
11.86
9.56
8.14
7.08
5.77
3.71
0.63
-3.35
-7.72
-11.57
-13.72
-13.09
-9.03
-1.61
8.3
19.33
30.01
39.2
46.3
51.15
53.8
54.32
52.8
49.48
44.9
39.95
35.55
32.33
30.36
29.02
27.27
23.97
18.29
9.91
-0.82
-13.06
-25.58
-37.08
-46.35
-52.48
-55.1
-54.34
-50.89
-45.71
-39.86
-34.27
-29.66
-26.55
-25.38
-26.44
-29.74
-34.91
-41.16
-47.47
-52.87
-56.74
-59.01
-60.05
-60.46
-60.86
-61.71
-63.28
-65.55
-68.13
-70.21
-70.64
-68.28
-62.34
-52.79
-40.41
-26.59
-12.84
-0.41
9.88
17.64
22.74
25.15
25.11
23.06
19.78
16.19
13.11
10.96
9.71
8.85
7.65
5.31
1.26
-4.71
-12.25
-20.48
-28.08
-33.68
-36.2
-35.24
-31.12
-24.75
-17.26
-9.7
-2.88
2.63
6.35
7.84
6.71
2.87
-3.33
-11.0
-18.88
-25.76
-30.79
-33.87
-35.53
-36.73
-38.42
-41.19
-45.09
-49.58
-53.66
-56.11
-55.74
-51.69
-43.74
-32.38
-18.73
-4.2
9.9
22.64
33.49
42.19
48.58
52.58
54.24
54.0
52.62
51.07
50.17
50.34
51.41
52.69
53.2
51.95
48.23
41.93
33.56
24.31
15.77
9.47
6.52
7.3
11.41
17.95
25.71
33.57
40.54
45.84
48.94
49.54
47.72
43.94
39.0
33.78
29.05
25.18
22.12
19.52
16.85
13.61
9.34
3.73
-3.26
-11.27
-19.42
-26.29
-30.32
-30.3
-25.89
-17.83
-7.69
2.74
11.98
19.31
24.63
28.12
29.87
29.77
27.69
23.75
18.54
12.97
7.9
3.8
0.56
-2.37
-5.65
-9.83
-15.22
-21.9
-29.62
-37.77
-45.26
-50.59
-52.25
-49.3
-41.76
-30.7
-17.83
-4.88
6.95
17.13
25.58
32.29
37.01
39.34
38.93
35.87
30.84
24.92
19.21
14.53
11.08
8.54
6.23
3.37
-0.66
-6.16
-13.07
-20.77
-28.14
-33.69
-35.93
-33.8
-27.1
-16.64
-3.96
9.08
20.91
30.49
37.38
41.62
43.4
42.95
40.5
36.36
30.94
24.84
18.7
13.09
8.41
4.78
1.98
-0.47
-3.23
-6.97
-12.21
-19.01
-26.8
-34.36
-40.06
-42.36
-40.36
-34.16
-24.89
-14.29
-4.13
4.32
10.48
14.29
15.9
15.43
12.89
8.39
2.37
-4.37
-10.79
-15.96
-19.36
-21.04
-21.57
-21.79
-22.46
-24.15
-27.02
-30.87
-35.15
-39.04
-41.57
-41.79
-39.03
-33.15
-24.64
-14.54
-4.14
5.43
13.47
19.79
24.48
27.65
29.22
29.0
26.92
23.37
19.2
15.55
13.38
13.03
14.12
15.68
16.54
15.73
12.76
7.72
1.31
-5.24
-10.4
-12.67
-11.03
-5.34
3.6
14.14
24.43
32.82
38.31
40.67
40.38
38.32
35.47
32.64
30.24
28.22
26.25
23.92
20.99
17.51
13.61
9.38
4.61
-1.07
-8.02
-16.31
-25.44
-34.41
-41.84
-46.32
-46.77
-42.73
-34.58
-23.43
-10.79
1.86
13.41
23.28
31.24
37.22
41.12
42.86
42.52
40.5
37.43
34.0
30.64
27.41
23.95
19.76
14.48
7.96
0.38
-7.9
-16.41
-24.51
-31.38
-36.08
-37.69
-35.66
-30.15
-22.09
-12.99
-4.5
2.19
6.59
8.94
9.8
9.72
8.92
7.4
5.18
2.59
0.27
-1.02
-0.77
0.98
3.5
5.67
6.29
4.42
-0.33
-7.8
-17.3
-27.69
-37.56
-45.38
-49.92
-50.43
-46.97
-40.3
-31.63
-22.21
-13.06
-4.75
2.45
8.43
13.03
16.06
17.41
17.23
15.97
14.28
12.73
11.61
10.68
9.35
6.96
3.06
-2.3
-8.64
-15.2
-21.14
-25.77
-28.5
-28.93
-26.9
-22.56
-16.45
-9.41
-2.37
3.91
8.95
12.54
14.59
14.99
13.73
10.99
7.28
3.38
0.02
-2.31
-3.63
-4.39
-5.29
-6.98
-9.92
-14.25
-19.76
-25.87
-31.61
-35.73
-37.02
-34.69
-28.66
-19.6
-8.68
2.83
13.96
24.2
33.34
41.19
47.49
51.86
54.05
54.3
53.42
52.64
53.19
55.68
59.86
64.7
68.75
70.74
69.88
66.04
59.64
51.48
42.67
34.47
28.16
24.71
24.44
26.81
30.44
33.61
34.7
32.76
27.53
19.32
8.62
-4.17
-18.7
-34.57
-50.97
-66.66
-80.13
-90.08
-95.92
-98.09
-97.89
-97.06
-97.13
-98.92
-102.38
-106.68
-110.52
-112.46
-111.25
-106.06
-96.7
-83.75
-68.4
-52.24
-36.75
-23.02
-11.68
-2.97
3.04
6.32
6.95
5.27
1.97
-2.03
-5.83
-8.84
-10.91
-12.24
-13.21
-14.19
-15.46
-17.23
-19.7
-22.93
-26.72
-30.43
-33.02
-33.22
-30.02
-23.07
-12.86
-0.64
11.97
23.38
32.38
38.26
40.77
39.99
36.26
30.17
22.51
14.19
6.08
-1.15
-7.15
-11.92
-15.78
-19.23
-22.87
-27.19
-32.51
-38.61
-44.73
-49.49
-51.25
-48.6
-40.83
-28.31
-12.34
5.13
22.14
37.08
48.92
57.21
61.84
62.92
60.77
55.95
49.33
41.95
34.89
28.91
24.27
20.69
17.48
13.79
8.93
2.6
-5.01
-13.14
-20.5
-25.46
-26.39
-22.18
-12.64
1.3
17.82
34.76
50.24
63.02
72.46
78.18
79.77
76.73
68.84
56.5
40.94
24.03
7.66
-6.82
-18.91
-28.96
-37.79
-46.32
-55.25
-64.94
-75.35
-85.94
-95.58
-102.6
-105.17
-101.76
-91.78
-75.84
-55.7
-33.76
-12.37
6.7
22.41
34.32
42.25
46.18
46.19
42.7
36.59
29.1
21.63
15.33
10.83
8.1
6.51
5.07
2.72
-1.42
-7.79
-16.21
-25.72
-34.64
-40.85
-42.43
-38.15
-28.02
-13.23
4.13
21.77
37.64
50.34
59.07
63.48
63.59
59.67
52.4
42.86
32.4
22.38
13.82
7.16
2.27
-1.51
-5.07
-9.3
-14.84
-21.92
-30.16
-38.48
-45.27
-48.7
-47.26
-40.25
-28.04
-11.93
6.23
24.54
41.48
55.97
67.18
74.43
77.16
75.19
68.99
59.77
49.26
39.27
31.08
25.13
20.94
17.4
13.18
7.12
-1.42
-12.39
-24.84
-36.98
-46.4
-50.6
-47.76
-37.37
-20.52
0.38
22.31
42.44
58.75
70.18
76.41
77.44
73.47
64.85
52.41
37.5
22.0
7.82
-3.64
-11.94
-17.71
-22.4
-27.75
-35.2
-45.37
-57.72
-70.45
-80.82
-85.81
-82.97
-71.35
-51.93
-27.43
-1.51
22.4
41.95
56.18
65.12
69.18
68.66
63.82
55.22
44.09
32.29
21.84
14.21
9.81
7.91
6.95
5.19
1.18
-5.86
-15.92
-28.07
-40.49
-50.62
-55.71
-53.56
-43.36
-26.05
-4.09
19.26
41.01
59.02
72.24
80.38
83.44
81.43
74.48
63.15
48.75
33.22
18.75
7.17
-0.66
-4.94
-6.89
-8.2
-10.59
-15.35
-22.97
-33.02
-44.04
-53.8
-59.73
-59.66
-52.54
-38.89
-20.71
-0.88
17.72
33.0
43.96
50.56
53.22
52.39
48.4
41.58
32.54
22.33
12.3
3.7
-2.72
-7.05
-10.07
-12.99
-16.98
-22.89
-30.99
-40.98
-51.9
-62.1
-69.37
-71.34
-66.17
-53.26
-33.65
-9.8
15.15
38.32
57.79
72.67
82.78
88.13
88.71
84.67
76.67
66.1
54.87
44.82
37.13
31.88
28.13
24.31
18.77
10.25
-1.61
-16.16
-31.6
-45.29
-54.32
-56.26
-49.97
-36.02
-16.52
5.43
26.75
44.97
58.61
66.97
69.83
67.22
59.38
47.06
31.65
15.04
-0.82
-14.4
-25.09
-33.24
-39.92
-46.46
-54.1
-63.64
-75.26
-88.31
-101.16
-111.4
-116.31
-113.72
-102.74
-84.26
-60.6
-34.87
-10.02
11.75
29.15
41.51
48.53
50.11
46.51
38.52
27.56
15.44
3.89
-5.9
-13.54
-19.45
-24.6
-30.12
-36.91
-45.32
-54.84
-64.0
-70.5
-71.67
-65.35
-50.63
-28.47
-1.52
26.63
52.53
73.75
89.22
98.88
103.06
102.03
95.99
85.45
71.54
56.03
40.99
28.1
18.17
10.95
5.39
0.02
-6.58
-15.4
-26.66
-39.57
-52.21
-61.86
-65.65
-61.49
-48.94
-29.41
-5.83
18.34
40.13
57.7
70.4
78.36
81.91
81.19
76.23
67.28
55.2
41.57
28.35
17.37
9.7
5.36
3.38
2.24
0.38
-3.38
-9.58
-18.05
-27.86
-37.39
-44.52
-47.17
-43.82
-34.16
-19.21
-1.15
17.35
33.85
46.64
54.88
58.38
57.37
52.31
43.89
33.1
21.17
9.47
-0.81
-8.89
-14.69
-18.72
-21.98
-25.59
-30.43
-36.87
-44.56
-52.47
-59.0
-62.33
-60.88
-53.83
-41.39
-24.83
-6.23
12.12
28.27
40.9
49.4
53.64
53.77
50.13
43.34
34.4
24.66
15.49
7.91
2.25
-1.95
-5.72
-10.3
-16.74
-25.65
-37.06
-50.3
-64.06
-76.44
-85.32
-88.88
-86.14
-77.31
-63.71
-47.35
-30.18
-13.76
0.96
13.38
22.97
29.15
31.49
30.08
25.71
19.85
14.14
9.8
7.08
5.3
3.07
-1.06
-8.06
-18.14
-30.62
-43.98
-56.18
-64.94
-68.21
-64.76
-54.53
-38.73
-19.58
0.4
19.02
34.81
47.01
55.26
59.4
59.4
55.61
48.91
40.72
32.62
25.78
20.63
16.71
12.95
8.1
1.08
-8.66
-20.95
-34.74
-48.11
-58.58
-63.74
-62.0
-53.19
-38.67
-20.8
-2.17
15.12
29.77
41.13
48.82
52.5
51.96
47.4
39.76
30.63
21.83
14.75
9.83
6.43
3.17
-1.53
-8.89
-19.36
-32.54
-47.08
-60.78
-70.86
-74.44
-69.38
-55.04
-32.78
-5.68
22.27
47.49
67.56
81.62
89.86
92.89
91.2
85.14
75.22
62.45
48.38
34.78
23.12
14.06
7.36
2.08
-3.01
-8.98
-16.43
-25.36
-34.99
-43.9
-50.13
-51.68
-47.01
-35.74
-18.87
1.35
22.08
40.74
55.61
65.99
71.93
73.68
71.42
65.33
55.81
43.78
30.66
18.01
7.07
-1.62
-8.24
-13.49
-18.25
-23.33
-29.27
-36.26
-43.95
-51.36
-56.9
-58.72
-55.29
-46.0
-31.47
-13.44
5.69
23.58
38.44
49.21
55.46
57.14
54.42
47.74
37.91
26.16
14.05
3.15
-5.38
-11.02
-14.04
-15.32
-15.99
-17.22
-19.91
-24.54
-30.99
-38.39
-45.08
-48.92
-47.87
-40.68
-27.5
-9.99
9.18
27.1
41.39
50.65
54.44
52.93
46.64
36.29
22.91
7.96
-6.74
-19.34
-28.46
-33.56
-35.08
-34.33
-32.99
-32.66
-34.47
