2013-02-20 18:42:53
64.0
-0.0
-0.0
-0.0
-0.0
-0.0
-0.0
-0.0
-0.0
-0.0
-0.0
0.0
0.01
0.01
-0.0
-0.03
-0.05
-0.05
0.0
0.13
0.36
0.66
1.01
1.37
1.72
2.06
2.4
2.79
3.24
3.8
4.42
5.06
5.66
6.2
6.68
7.15
7.68
8.31
9.14
10.09
11.04
11.88
12.56
13.14
13.76
14.65
15.96
17.91
20.32
22.9
25.38
27.58
29.57
31.68
34.32
37.81
42.54
48.15
54.1
59.83
64.97
69.58
74.14
79.34
85.71
93.76
103.0
112.62
121.73
129.77
136.75
143.3
150.75
157.77
166.64
177.95
191.79
206.97
220.57
228.25
225.36
208.53
176.87
132.76
80.05
23.07
-34.94
-92.44
-149.16
-205.23
-260.37
-313.74
-363.87
-409.83
-450.91
-486.5
-515.74
-537.23
-549.22
-549.96
-538.37
-514.21
-478.67
-433.88
-382.45
-327.02
-269.84
-212.63
-156.66
-102.95
-52.37
-5.9
35.58
71.43
101.35
125.5
144.38
158.69
169.15
176.37
180.75
182.57
182.07
179.51
175.23
169.65
163.18
156.15
148.81
141.3
133.69
126.02
118.33
110.69
103.16
95.8
88.68
81.83
75.25
68.95
62.95
57.25
51.86
46.78
42.03
37.59
33.45
29.61
26.07
22.81
19.83
17.11
14.67
12.48
10.54
8.83
7.35
6.07
4.97
4.05
3.27
2.62
2.09
1.65
1.3
1.01
0.79
0.61
0.47
0.37
0.28
0.22
0.18
0.14
0.12
0.11
0.11
0.11
0.12
0.14
0.17
0.2
0.23
0.27
0.31
0.36
0.4
0.45
0.5
0.54
0.59
0.64
0.7
0.75
0.81
0.88
0.96
1.04
1.13
1.24
1.35
1.48
1.63
1.79
1.97
2.17
2.4
2.67
2.98
3.31
3.64
3.98
4.3
4.62
4.96
5.36
5.85
6.43
7.09
7.8
8.51
9.2
9.87
10.55
11.3
12.15
13.12
14.18
15.28
16.36
17.36
18.3
19.21
20.15
21.11
21.99
22.58
22.57
21.65
19.64
16.53
12.53
7.98
3.19
-1.57
-6.28
-11.06
-16.05
-21.23
-26.34
-30.89
-34.27
-36.06
-36.25
-35.27
-33.91
-32.99
-33.04
-34.08
-35.59
-36.84
-37.24
-36.57
-35.15
-33.66
-32.83
-33.32
-35.59
-39.86
-45.75
-51.98
-56.25
-55.86
-48.79
-34.82
-16.11
3.36
19.31
28.82
31.38
28.67
23.47
18.39
14.93
13.51
13.99
16.23
20.3
26.2
33.45
40.96
47.28
51.05
51.42
48.37
42.61
35.28
27.5
20.13
13.54
7.76
2.69
-1.78
-5.65
-8.87
-11.28
-12.79
-12.86
-11.41
-8.67
-5.03
-1.07
2.75
6.04
8.72
10.91
12.89
14.89
17.04
19.31
21.35
22.54
22.18
19.65
14.66
7.36
-1.69
-11.5
-20.81
-28.32
-32.99
-34.39
-32.93
-29.8
-26.63
-24.94
-25.53
-28.14
-31.66
-34.58
-35.62
-34.03
-29.71
-22.97
-14.36
-4.55
5.72
15.68
24.57
31.84
37.23
40.87
43.09
44.3
44.83
44.91
44.62
43.96
42.86
41.15
38.66
35.39
31.59
27.72
24.27
21.45
19.05
16.54
13.31
9.05
3.99
-1.32
-6.2
-10.26
-13.58
-16.58
-19.73
-23.23
-26.88
-30.16
-32.55
-33.83
-34.18
-34.1
-34.15
-34.64
-35.48
-36.2
-36.12
-34.73
-31.81
-27.62
-22.85
-18.44
-15.36
-14.27
-15.34
-18.14
-21.75
-25.01
-26.86
-26.59
-23.98
-19.32
-13.18
-6.21
1.06
8.36
15.61
22.7
29.29
34.74
38.14
38.69
36.05
30.6
23.38
15.78
9.12
4.31
1.69
1.16
2.32
4.67
7.71
11.02
14.31
17.43
20.4
23.3
26.28
29.37
32.5
35.44
37.84
39.37
39.77
38.92
36.86
33.75
29.76
24.93
19.25
12.73
5.59
-1.64
-8.25
-13.65
-17.68
-20.74
-23.64
-27.26
-32.23
-38.8
-46.77
-55.67
-64.73
-72.94
-79.16
-82.34
-81.92
-78.05
-71.66
-64.16
-56.89
-50.76
-46.01
-42.46
-40.01
-39.04
-40.42
-45.14
-53.64
-65.28
-78.24
-89.94
-97.8
-100.0
-95.85
-85.73
-70.82
-52.65
-32.79
-12.73
6.23
23.02
36.91
47.52
54.93
59.56
62.07
63.16
63.39
63.07
62.2
60.59
58.12
54.8
50.77
46.22
41.3
36.13
31.04
26.65
23.81
23.25
25.17
28.95
33.23
36.3
36.68
33.58
27.13
18.21
8.19
-1.55
-9.92
-16.32
-20.65
-23.15
-24.12
-23.77
-22.11
-19.08
-14.76
-9.46
-3.58
2.59
9.13
16.44
24.99
34.85
45.38
55.25
62.79
66.64
66.1
61.44
53.61
43.9
33.48
23.24
13.66
5.01
-2.63
-9.33
-15.44
-21.45
-27.87
-34.92
-42.25
-48.92
-53.69
-55.5
-53.87
-49.13
-42.25
-34.47
-26.9
-20.25
-14.77
-10.35
-6.65
-3.24
0.22
3.87
7.54
10.82
13.25
14.57
14.82
14.29
13.37
12.35
11.37
10.47
9.76
9.52
10.19
12.22
15.82
20.83
26.61
32.25
36.7
39.01
38.6
35.43
30.07
23.52
16.91
11.17
6.75
3.51
1.0
-1.34
-3.88
-6.83
-10.26
-14.21
-18.69
-23.46
-27.9
-30.99
-31.58
-28.9
-22.9
-14.39
-4.8
4.31
11.74
16.98
20.15
21.87
22.86
23.71
24.64
25.58
26.23
26.35
25.88
25.01
24.08
23.39
23.11
23.19
23.48
23.79
23.94
23.81
23.32
22.51
21.45
20.22
18.83
17.14
14.91
11.96
8.25
3.94
-0.76
-5.78
-11.22
-17.27
-24.01
-31.11
-37.78
-42.94
-45.65
-45.63
-43.42
-40.33
-37.85
-37.04
-38.03
-40.01
-41.7
-41.98
-40.43
-37.41
-33.7
-29.96
-26.36
-22.65
-18.49
-13.88
-9.3
-5.48
-3.06
-2.27
-2.94
-4.65
-6.89
-9.21
-11.03
-11.52
-9.73
-4.83
3.43
14.42
26.77
38.82
49.18
57.19
63.0
67.17
70.18
72.03
72.24
70.17
65.54
58.69
50.52
42.15
34.37
27.37
20.76
13.86
6.14
-2.53
-11.89
-21.46
-30.76
-39.36
-46.81
-52.58
-56.11
-56.99
-55.15
-50.86
-44.62
-36.96
-28.31
-19.03
-9.56
-0.45
7.65
14.21
19.0
22.2
24.37
26.15
28.04
30.17
32.24
33.66
33.79
32.23
29.04
24.89
20.89
18.37
18.41
21.55
27.5
35.24
43.27
50.11
54.76
56.91
56.95
55.67
53.84
51.89
49.74
46.97
43.08
37.81
31.24
23.76
15.82
7.81
-0.12
-8.02
-16.1
-24.66
-34.01
-44.35
-55.56
-67.08
-77.9
-86.76
-92.57
-94.75
-93.48
-89.59
-84.21
-78.29
-72.37
-66.53
-60.64
-54.62
-48.62
-43.01
-38.12
-34.07
-30.59
-27.1
-22.92
-17.58
-11.02
-3.62
3.95
11.08
17.39
22.83
27.53
31.65
35.19
38.08
40.26
41.83
42.98
43.88
44.54
44.75
44.22
42.72
40.28
37.08
33.4
29.4
25.14
20.59
15.71
10.52
5.09
-0.48
-5.98
-11.01
-14.92
-16.89
-16.13
-12.23
-5.39
3.53
13.3
22.69
30.88
37.64
43.26
48.27
53.11
57.9
62.36
66.01
68.43
69.57
69.85
70.01
70.78
72.57
75.32
78.59
81.91
84.99
87.79
90.46
92.99
95.06
96.01
94.98
91.18
84.0
73.14
58.57
40.57
19.8
-2.71
-25.7
-47.82
-67.93
-85.26
-99.51
-110.82
-119.65
-126.66
-132.59
-138.05
-143.44
-148.8
-153.81
-157.92
-160.49
-161.1
-159.53
-155.83
-150.15
-142.67
-133.56
-123.08
-111.68
-100.05
-89.01
-79.33
-71.44
-65.3
-60.33
-55.62
-50.23
-43.47
-35.03
-24.97
-13.52
-0.99
12.35
26.21
40.06
53.2
64.76
73.93
80.26
83.71
84.59
83.28
80.06
74.96
67.99
59.33
49.5
39.38
29.96
22.13
16.39
12.88
11.36
11.45
12.6
14.16
15.37
15.49
13.95
10.55
5.5
-0.59
-6.89
-12.52
-16.65
-18.59
-17.93
-14.59
-8.94
-1.76
5.94
13.26
19.61
24.79
28.9
32.1
34.47
36.04
36.87
37.21
37.39
37.72
38.24
38.71
38.72
37.88
36.03
33.35
30.3
27.32
24.74
22.56
20.53
18.2
15.17
11.27
6.67
1.86
-2.57
-6.24
-9.1
-11.44
-13.66
-16.01
-18.39
-20.53
-22.12
-23.14
-23.83
-24.67
-26.09
-28.28
-31.14
-34.32
-37.36
-39.72
-40.93
-40.57
-38.31
-33.99
-27.61
-19.49
-10.23
-0.7
8.16
15.52
20.96
24.5
26.5
27.44
27.58
26.92
25.2
22.21
18.04
13.22
8.6
5.03
3.05
2.69
3.52
4.86
6.08
6.79
6.97
6.79
6.53
6.48
6.76
7.46
8.55
9.92
11.43
12.86
14.01
14.69
14.8
14.3
13.19
11.45
8.99
5.68
1.36
-4.12
-10.78
-18.44
-26.62
-34.49
-41.07
-45.39
-46.9
-45.73
-42.7
-39.1
-36.28
-35.15
-35.87
-37.96
-40.58
-42.87
-44.28
-44.52
-43.45
-40.9
-36.69
-30.67
-22.95
-13.94
-4.31
5.17
13.86
21.33
27.47
32.38
36.37
39.7
42.53
44.72
45.97
45.95
44.49
41.75
38.22
34.44
30.88
27.75
25.05
22.69
20.67
19.08
18.0
17.37
16.95
16.34
15.22
13.46
11.09
8.26
4.95
1.01
-3.72
-9.1
-14.34
-18.07
-18.67
-14.9
-6.46
5.76
20.02
34.32
47.07
57.38
64.98
69.96
72.44
72.46
70.1
65.58
59.3
51.82
43.59
34.95
26.14
17.41
9.12
1.72
-4.39
-9.04
-12.26
-14.28
-15.4
-15.9
-16.09
-16.3
-16.95
-18.48
-21.25
-25.45
-31.12
-38.2
-46.67
-56.53
-67.65
-79.6
-91.48
-102.12
-110.44
-115.92
-118.81
-120.13
-121.32
-123.66
-127.72
-133.13
-138.57
-142.18
-142.15
-137.23
-127.07
-112.18
-93.63
-72.63
-50.29
-27.5
-5.1
16.09
35.22
51.52
64.5
74.01
80.17
83.29
83.71
81.8
78.0
72.77
66.52
59.49
51.67
42.84
32.78
21.53
9.49
-2.55
-13.61
-22.81
-29.68
-34.29
-37.22
-39.21
-41.03
-43.15
-45.64
-48.24
-50.47
-51.87
-52.23
-51.73
-50.78
-49.92
-49.46
-49.32
-49.05
-47.96
-45.4
-40.94
-34.53
-26.44
-17.2
-7.51
1.96
10.65
18.32
25.15
31.68
38.53
46.15
54.53
63.19
71.41
78.52
84.26
88.83
92.85
96.98
101.58
106.33
110.34
112.38
111.41
107.0
99.52
89.89
79.16
68.09
57.0
45.91
34.82
23.99
14.06
5.85
-0.01
-3.29
-4.38
-4.22
-4.0
-4.91
-7.86
-13.32
-21.31
-31.49
-43.25
-55.84
-68.43
-80.21
-90.36
-98.09
-102.68
-103.59
-100.65
-94.2
-85.18
-74.96
-65.04
-56.67
-50.58
-46.96
-45.64
-46.3
-48.57
-51.94
-55.56
-58.21
-58.48
-55.07
-47.16
-34.63
-18.02
1.59
22.81
44.16
64.21
81.79
96.08
106.63
113.24
115.9
114.64
109.64
101.36
90.57
78.34
65.81
53.92
43.29
34.19
26.63
20.5
15.66
11.94
9.12
7.01
5.55
4.86
5.22
6.97
10.26
15.07
21.07
27.79
34.67
41.09
46.46
50.2
51.84
51.03
47.7
42.08
34.75
26.59
18.57
11.56
6.12
2.37
0.05
-1.33
-2.29
-3.23
-4.35
-5.74
-7.36
-9.05
-10.54
-11.4
-11.2
-9.68
-6.87
-3.21
0.49
3.28
4.27
2.85
-1.15
-7.39
-15.17
-23.51
-31.33
-37.68
-41.84
-43.43
-42.44
-39.2
-34.28
-28.24
-21.41
-13.78
-5.25
4.13
13.72
22.31
28.38
30.7
28.88
23.6
16.38
8.95
2.7
-1.73
-4.37
-5.61
-5.91
-5.53
-4.52
-2.81
-0.35
2.79
6.3
9.68
12.39
14.0
14.33
13.46
11.62
8.98
5.5
0.87
-5.28
-13.2
-22.7
-33.04
-42.98
-51.0
-55.57
-55.53
-50.36
-40.34
-26.54
-10.46
6.24
22.09
36.01
47.18
55.1
59.46
60.24
57.84
53.07
47.12
41.28
36.65
33.86
33.01
33.68
35.11
36.45
37.03
36.61
35.38
33.78
32.24
30.99
29.98
28.94
27.63
25.94
23.95
21.86
19.84
17.93
16.03
13.86
11.12
7.55
3.01
-2.47
-8.61
-14.91
-20.77
-25.56
-28.83
-30.37
-30.28
-28.83
-26.42
-23.41
-20.08
-16.5
-12.66
-8.48
-3.98
0.73
5.45
10.02
14.38
18.53
22.48
26.08
29.02
30.82
31.03
29.45
26.21
21.66
16.34
10.66
4.94
-0.62
-5.81
-10.34
-13.87
-16.13
-16.95
-16.39
-14.73
-12.45
-10.13
-8.41
-7.81
-8.67
-11.07
-14.76
-19.27
-24.08
-28.75
-33.2
-37.74
-43.07
-49.95
-58.84
-69.51
-80.92
-91.44
-99.28
-103.01
-101.83
-95.74
-85.42
-71.99
-56.79
-41.21
-26.43
-13.23
-2.04
7.16
14.48
20.06
23.95
26.32
27.65
28.78
30.67
33.94
38.59
43.95
49.03
52.97
55.41
56.5
56.53
55.68
53.77
50.48
45.74
39.93
33.96
28.85
25.35
23.62
23.08
22.76
21.65
19.16
15.2
10.19
4.72
-0.7
-5.73
-10.28
-14.39
-18.24
-22.18
-26.59
-31.73
-37.48
-43.03
-47.09
-48.21
-45.37
-38.48
-28.45
-16.99
-5.92
3.33
10.08
14.32
16.48
17.17
16.97
16.32
15.49
14.7
14.22
14.48
16.02
19.3
24.42
30.9
37.75
43.79
48.05
50.08
50.08
48.57
46.15
43.18
39.74
35.8
31.35
26.49
21.3
15.71
9.47
2.26
-6.18
-15.91
-26.76
-38.43
-50.52
-62.6
-74.11
-84.31
-92.23
-96.66
-96.44
-90.86
-80.08
-65.3
-48.6
-32.42
-18.86
-9.07
-3.02
0.29
2.41
4.67
7.9
12.12
16.75
20.84
23.38
23.65
21.43
17.22
12.14
7.62
5.07
5.48
9.28
16.34
26.07
37.5
49.47
60.69
70.0
76.59
80.17
80.91
79.2
75.26
68.99
60.07
48.28
33.83
17.46
0.17
-17.04
-33.49
-48.81
-62.9
-75.75
-87.38
-97.78
-106.79
-113.96
-118.57
-119.7
-116.68
-109.27
-97.86
-83.36
-66.81
-49.2
-31.43
-14.48
0.44
12.05
19.37
22.21
21.45
18.74
16.07
14.97
16.15
19.39
23.82
28.38
32.29
35.26
37.5
39.47
41.56
43.85
45.99
47.36
47.3
45.52
42.25
38.25
34.54
32.02
31.11
31.61
32.82
33.81
33.77
32.23
29.09
24.46
18.48
11.21
2.68
-6.83
-16.72
-25.99
-33.42
-38.0
-39.29
-37.65
-34.23
-30.67
-28.59
-29.08
-32.41
-37.85
-43.93
-48.72
-50.36
-47.64
-40.3
-29.21
-16.08
-3.0
8.17
16.2
20.77
22.29
21.64
19.81
17.55
15.3
13.25
11.44
9.9
8.71
8.0
7.89
8.42
9.6
11.33
13.51
16.04
18.85
21.88
25.15
28.68
32.53
36.7
41.05
45.21
48.69
51.02
51.91
51.3
49.18
45.5
40.09
32.81
23.8
13.68
3.46
-5.78
-13.32
-19.03
-23.33
-26.89
-30.27
-33.87
-37.87
-42.44
-47.71
-53.72
-60.12
-65.97
-69.87
-70.39
-66.62
-58.6
-47.39
-34.66
-22.03
-10.66
-1.01
6.99
13.55
18.78
22.63
25.03
26.21
26.71
27.22
28.22
29.73
31.36
32.53
32.81
32.1
30.62
28.69
26.49
24.02
21.16
17.88
14.45
11.37
9.3
8.72
9.75
12.05
14.9
17.45
18.84
18.44
15.86
10.96
3.85
-5.07
-15.24
-25.88
-36.26
-45.8
-54.07
-60.79
-65.63
-68.15
-67.83
-64.31
-57.75
-48.89
-39.03
-29.59
-21.73
-15.97
-12.3
-10.29
-9.55
-9.85
-11.16
-13.41
-16.28
-19.14
-21.19
-21.72
-20.43
-17.46
-13.29
-8.39
-3.1
2.56
8.64
15.06
21.47
27.26
31.81
34.63
35.67
35.13
33.42
30.92
27.85
24.34
20.55
16.76
13.44
11.05
9.91
10.02
10.98
11.99
12.0
9.86
4.7
-3.77
-14.96
-27.36
-38.8
-47.02
-50.33
-48.1
-40.93
-30.34
-18.27
-6.54
3.43
10.77
15.02
16.04
14.02
9.38
2.88
-4.61
-12.14
-18.91
-24.35
-28.17
-30.31
-30.9
-30.16
-28.35
-25.59
-21.92
-17.25
-11.57
-4.99
2.06
8.94
14.84
19.11
21.36
21.58
20.05
17.19
13.39
9.01
4.33
-0.41
-4.92
-8.91
-12.15
-14.42
-15.68
-16.02
-15.76
-15.34
-15.15
-15.28
-15.41
-14.89
-12.93
-9.03
-3.19
4.18
12.37
20.69
28.61
35.66
41.32
44.96
45.94
43.87
38.86
31.49
22.65
13.18
3.61
-5.99
-15.83
-26.19
-37.06
-47.95
-57.94
-65.88
-70.7
-71.82
-69.26
-63.7
-56.13
-47.56
-38.68
-29.86
-21.16
-12.65
-4.57
2.64
8.43
12.38
14.4
14.79
14.09
12.88
11.56
10.25
8.83
7.02
4.5
0.98
-3.61
-8.94
-14.25
-18.34
-19.87
-17.75
-11.6
-1.91
9.98
22.36
33.65
42.82
49.49
53.78
56.06
56.67
55.89
53.97
51.26
48.19
45.21
42.62
40.49
38.58
36.56
34.13
31.2
27.89
24.39
20.81
17.11
13.08
8.52
3.33
-2.41
-8.5
-14.68
-20.69
-26.28
-31.14
-34.96
-37.52
-38.76
-38.9
-38.22
-37.03
-35.43
-33.32
-30.52
-27.01
-23.04
-19.13
-15.9
-13.89
-13.37
-14.39
-16.75
-20.08
-23.79
-27.0
-28.61
-27.5
-22.82
-14.41
-2.94
10.15
23.17
34.55
43.35
49.3
52.62
53.7
52.87
50.39
46.53
41.72
36.58
31.73
27.56
24.13
21.24
18.64
16.25
14.19
12.63
11.61
10.89
9.97
8.21
5.13
0.53
-5.39
-12.07
-18.69
-24.38
-28.49
-30.86
-31.86
-32.26
-32.85
-34.01
-35.56
-36.84
-37.16
-36.23
-34.27
-31.91
-29.92
-28.87
-29.03
-30.38
-32.67
-35.45
-38.03
-39.62
-39.51
-37.3
-33.05
-27.19
-20.23
-12.57
-4.32
4.57
14.16
24.33
34.68
44.55
53.08
59.4
62.79
62.99
60.34
55.75
50.46
45.64
42.1
40.11
39.48
39.76
40.46
41.06
41.12
40.23
38.08
34.49
29.49
23.27
16.14
8.44
0.36
-8.11
-17.17
-27.05
-37.75
-48.92
-59.74
-69.1
-75.99
-79.79
-80.49
-78.59
-74.96
-70.45
-65.79
-61.43
-57.62
-54.43
-51.76
-49.26
-46.39
-42.47
-36.78
-28.86
-18.77
-7.13
4.98
16.32
25.87
33.06
37.87
40.75
42.34
43.32
44.14
44.95
45.6
45.68
44.73
42.42
38.73
33.98
28.69
23.43
18.58
14.38
10.92
8.4
7.12
7.37
9.19
12.13
15.18
17.02
16.51
13.11
7.18
-0.22
-7.73
-14.29
-19.49
-23.58
-27.22
-30.99
-35.1
-39.23
-42.79
-45.2
-46.24
-46.16
-45.44
-44.61
-43.86
-43.1
-42.09
-40.64
-38.73
-36.33
-33.2
-28.8
-22.43
-13.6
-2.41
10.33
23.24
34.79
43.77
49.59
52.33
52.59
51.17
48.8
45.96
42.86
39.52
35.98
32.37
28.97
26.06
23.79
22.2
21.23
20.84
20.98
21.54
22.15
22.3
21.43
19.19
15.51
10.58
4.68
-1.89
-8.85
-15.85
-22.56
-28.7
-34.23
-39.38
-44.58
-50.21
-56.42
-63.07
-69.88
-76.6
-83.13
-89.47
-95.54
-101.02
-105.35
-107.87
-107.97
-105.28
-99.73
-91.47
-80.86
-68.26
-54.03
-38.46
-21.82
-4.45
13.17
30.46
46.72
61.27
73.5
83.0
89.72
93.97
96.42
97.93
99.3
100.98
103.02
105.01
106.35
106.37
104.56
100.64
94.59
86.64
77.3
67.25
57.28
48.06
40.03
33.32
27.75
23.02
18.78
14.81
11.05
7.55
4.39
1.58
-1.07
-4.01
-7.9
-13.35
-20.66
-29.53
-38.99
-47.72
-54.37
-58.09
-58.63
-56.38
-52.05
-46.47
-40.41
-34.38
-28.71
-23.43
-18.39
-13.34
-8.07
-2.64
2.77
7.84
12.36
16.27
19.69
22.72
25.41
27.72
29.64
31.27
32.79
34.32
35.78
36.9
37.33
36.79
35.22
32.69
29.37
25.38
20.81
15.77
10.35
4.6
-1.6
-8.53
-16.54
-25.91
-36.62
-48.34
-60.52
-72.54
-83.69
-93.25
-100.44
-104.56
-105.13
-102.16
-96.13
-87.96
-78.73
-69.51
-61.21
-54.52
-49.88
-47.39
-46.7
-47.04
-47.34
-46.61
-44.2
-39.95
-34.03
-26.77
-18.36
-8.88
1.56
12.69
24.05
35.09
45.29
54.38
62.27
68.91
74.21
77.95
79.86
79.82
77.99
74.81
70.84
66.58
62.39
58.42
54.73
51.4
48.51
46.13
44.13
42.16
39.63
35.92
30.57
23.59
15.59
7.72
1.42
-1.92
-1.44
2.93
10.42
19.62
28.95
37.06
43.13
46.86
48.3
47.76
45.55
42.1
37.84
33.21
28.58
24.13
19.88
15.73
11.68
7.85
4.61
2.35
1.3
1.45
2.44
3.83
5.27
6.62
7.99
9.58
11.5
13.63
15.69
17.35
18.41
18.9
18.98
18.76
18.12
16.77
14.39
10.93
6.72
2.32
-1.71
-5.1
-7.82
-9.92
-11.16
-11.07
-9.11
-5.11
0.43
6.5
11.99
16.16
18.99
20.99
22.77
24.74
26.85
28.71
29.87
29.93
28.68
26.09
22.24
17.35
11.77
6.0
0.57
-4.11
-7.91
-10.99
-13.75
-16.58
-19.72
-23.16
-26.67
-29.97
-32.83
-35.15
-36.97
-38.31
-39.1
-39.14
-38.18
-36.14
-33.2
-29.81
-26.59
-24.11
-22.69
-22.37
-22.92
-23.98
-25.29
-26.74
-28.34
-30.14
-32.25
-34.7
-37.54
-40.7
-43.92
-46.66
-48.12
-47.49
-44.23
-38.34
-30.37
-21.24
-11.94
-3.24
4.37
10.64
15.39
18.36
19.35
18.33
15.51
11.48
6.98
2.67
-0.93
-3.61
-5.33
-6.17
-6.2
-5.53
-4.33
-2.73
-0.85
1.38
4.07
7.27
10.76
14.02
16.36
17.29
16.68
14.85
12.3
9.46
6.5
3.43
0.35
-2.38
-4.2
-4.69
-3.82
-2.08
-0.26
0.83
0.63
-1.06
-4.14
-8.2
-12.62
-16.55
-19.05
-19.27
-16.76
-11.61
-4.43
3.87
12.33
20.18
26.96
32.39
36.41
39.1
40.64
41.26
41.14
40.35
38.82
36.44
33.19
29.24
24.85
20.38
16.15
12.46
9.47
7.27
5.83
4.96
4.37
3.68
2.49
0.53
-2.33
-6.04
-10.38
-15.11
-19.97
-24.78
-29.42
-33.78
-37.77
-41.29
-44.23
-46.54
-48.23
-49.4
-50.13
-50.53
-50.67
-50.63
-50.46
-50.1
-49.2
-47.19
-43.35
-37.2
-28.83
-19.03
-9.02
-0.06
7.06
12.21
15.81
18.56
20.93
23.04
24.69
25.54
25.4
24.39
22.92
21.52
20.64
20.52
21.08
21.94
22.59
22.56
21.64
19.87
17.51
14.95
12.56
10.59
9.17
8.21
7.46
6.66
5.58
4.12
2.33
0.34
-1.71
-3.68
-5.42
-6.74
-7.48
-7.59
-7.24
-6.71
-6.34
-6.28
-6.46
-6.74
-7.06
-7.61
-8.71
-10.52
-12.9
-15.37
-17.27
-18.11
-17.72
-16.24
-13.93
-11.06
-7.85
-4.54
-1.45
1.07
2.78
3.7
4.05
4.19
4.4
4.86
5.59
6.52
7.59
8.72
9.79
10.62
10.94
10.47
8.96
6.31
2.72
-1.38
-5.4
-8.77
-11.2
-12.61
-13.1
-12.72
-11.41
-9.05
-5.59
-1.3
3.24
7.3
10.18
11.45
10.99
8.94
5.65
1.69
-2.19
-5.17
-6.58
-6.25
-4.71
-2.98
-2.28
-3.48
-6.76
-11.64
-17.18
-22.35
-26.27
-28.29
-28.04
-25.42
-20.66
-14.38
-7.55
-1.14
4.07
7.76
10.05
11.36
12.14
12.82
13.69
14.91
16.58
18.64
20.93
23.21
25.27
26.98
28.34
29.4
30.11
30.32
29.65
27.62
23.77
17.91
10.34
1.84
-6.5
-13.56
-18.57
-21.27
-21.82
-20.62
-18.06
-14.51
-10.33
-6.09
-2.49
-0.2
0.39
-0.72
-3.17
-6.49
-10.27
-14.24
-18.24
-21.97
-25.04
-26.92
-27.17
-25.61
-22.33
-17.74
-12.31
-6.5
-0.61
5.15
10.53
15.25
18.95
21.38
22.47
22.51
22.04
21.7
21.99
23.09
24.83
26.81
28.61
29.84
30.26
29.79
28.51
26.45
23.66
20.13
15.86
10.93
5.61
0.37
-4.21
-7.61
-9.64
-10.53
-10.9
-11.59
-13.3
-16.28
-20.24
-24.44
-28.0
-30.28
-31.05
-30.57
-29.38
-28.05
-26.86
-25.68
-23.93
-20.82
-15.7
-8.43
0.47
9.85
18.36
24.94
29.18
31.35
32.16
32.24
31.86
30.86
28.94
26.03
22.57
19.39
17.4
17.1
18.36
20.53
22.77
24.48
25.5
26.07
26.56
27.14
27.75
28.14
28.02
27.22
25.64
23.28
20.17
16.4
12.13
7.63
3.16
-1.07
-5.03
-8.71
-12.07
-15.08
-17.79
-20.46
-23.54
-27.47
-32.33
-37.6
-42.18
-44.76
-44.32
-40.57
-34.07
-25.95
-17.52
-9.77
-3.33
1.57
4.85
6.45
6.33
4.6
1.53
-2.43
-6.7
-10.76
-14.23
-16.92
-18.85
-20.18
-21.14
-21.9
-22.5
-22.79
-22.59
-21.76
-20.3
-18.39
-16.19
-13.77
-11.05
-7.93
-4.49
-1.04
1.8
3.44
3.56
2.3
0.16
-2.25
-4.5
-6.52
-8.57
-11.06
-14.32
-18.31
-22.6
-26.43
-28.9
-29.28
-27.19
-22.73
-16.41
-8.98
-1.21
6.26
13.02
18.8
23.45
26.89
28.98
29.65
28.85
26.65
23.21
18.87
14.08
9.35
5.13
1.79
-0.44
-1.5
-1.48
-0.68
0.49
1.56
2.22
2.43
2.33
2.16
1.98
1.62
0.78
-0.68
-2.57
-4.3
-5.19
-4.86
-3.38
-1.26
0.88
2.62
3.94
5.08
6.36
7.93
9.71
11.3
12.19
11.79
9.54
5.12
-1.43
-9.54
-18.01
-25.29
-29.83
-30.67
-27.73
-21.91
-14.71
-7.82
-2.52
0.59
1.62
1.19
0.14
-0.79
-1.13
-0.69
0.49
2.34
4.88
8.26
12.68
18.27
24.86
31.82
38.14
42.67
44.56
43.54
40.06
35.14
30.03
25.76
22.79
20.97
19.62
18.01
15.6
12.33
8.43
4.2
-0.24
-5.03
-10.31
-16.05
-21.88
-27.35
-32.17
-36.44
-40.6
-45.13
-50.18
-55.39
-60.15
-63.92
-66.56
-68.28
-69.41
-70.04
-69.81
-68.0
-63.83
-56.73
-46.49
-33.41
-18.15
-1.71
14.67
29.74
42.42
52.19
59.21
64.29
68.51
72.81
77.54
82.4
86.71
89.7
90.91
90.3
88.11
84.77
80.67
76.09
71.19
66.06
60.75
55.26
49.57
43.58
37.21
30.4
23.14
15.55
7.86
0.4
-6.56
-12.83
-18.42
-23.52
-28.42
-33.4
-38.64
-44.11
-49.56
-54.54
-58.55
-61.16
-62.16
-61.65
-59.91
-57.3
-54.13
-50.61
-46.88
-43.09
-39.32
-35.4
-30.85
-24.99
-17.15
-7.0
5.27
18.95
33.1
46.84
59.53
70.87
80.79
89.35
96.64
102.66
107.37
110.59
112.07
111.62
109.16
104.8
98.85
91.64
83.44
74.4
64.54
53.87
42.39
30.18
17.37
4.15
-9.26
-22.62
-35.63
-48.07
-59.74
-70.54
-80.38
-89.16
-96.74
-102.97
-107.85
-111.53
-114.31
-116.49
-118.18
-119.27
-119.38
-118.08
-115.11
-110.53
-104.75
-98.39
-92.13
-86.48
-81.74
-78.0
-75.19
-73.16
-71.59
-69.88
-67.15
-62.33
-54.51
-43.31
-29.13
-13.2
2.77
17.14
28.74
37.15
42.64
45.95
47.96
49.42
50.78
52.16
53.44
54.39
54.76
54.44
53.38
51.52
48.8
45.27
41.21
37.19
33.95
32.05
31.56
32.01
32.59
32.53
31.46
29.43
26.65
23.17
18.84
13.32
6.54
-1.2
-9.21
-16.73
-23.2
-28.44
-32.68
-36.31
-39.76
-43.28
-46.94
-50.56
-53.71
-55.92
-56.75
-56.14
-54.43
-52.33
-50.68
-50.05
-50.5
-51.47
-51.92
-50.64
-46.6
-39.29
-28.93
-16.42
-3.16
9.45
20.3
28.77
34.8
38.7
41.05
42.55
44.02
46.21
49.62
54.3
59.74
65.03
69.14
71.33
71.36
69.4
66.02
61.81
57.4
53.23
49.57
46.42
43.49
40.26
36.19
30.9
24.35
16.83
8.85
0.85
-6.86
-14.21
-21.27
-28.11
-34.77
-41.15
-47.16
-52.79
-58.24
-63.75
-69.42
-74.86
-79.03
-80.44
-77.62
-69.76
-57.06
-40.68
-22.29
-3.55
14.27
30.31
43.91
54.5
61.54
64.78
64.37
60.91
55.19
47.96
39.9
31.57
23.71
17.17
12.91
11.62
13.59
18.58
25.94
34.73
43.86
52.15
58.41
61.59
61.02
56.61
48.99
39.37
29.23
19.84
12.04
6.05
1.56
-1.99
-5.27
-8.87
-13.18
-18.47
-24.9
-32.46
-41.01
-50.11
-58.96
-66.44
-71.25
-72.33
-69.26
-62.54
-53.44
-43.67
-34.57
-26.72
-19.78
-12.83
-5.01
3.99
13.75
23.38
31.94
38.82
43.9
47.34
49.44
50.4
50.4
49.6
48.13
46.11
43.47
40.11
36.07
31.8
28.15
26.05
25.94
27.29
28.6
27.86
23.46
14.88
2.97
-10.45
-23.36
-34.33
-42.89
-49.44
-54.83
-59.93
-65.28
-71.06
-76.96
-82.28
-86.0
-86.99
-84.41
-78.04
-68.6
-57.55
-46.69
-37.62
-31.23
-27.56
-26.12
-26.25
-27.44
-29.45
-32.14
-35.22
-38.09
-39.92
-39.89
-37.43
-32.38
-25.0
-15.93
-5.98
3.89
12.69
19.51
23.69
24.94
23.4
19.63
14.39
8.46
2.52
-2.92
-7.41
-10.52
-11.84
-11.15
-8.53
-4.48
0.26
4.95
9.08
12.36
14.49
14.93
12.81
7.35
-1.56
-13.0
-24.96
-35.03
-41.13
-42.26
-38.68
-31.59
-22.66
-13.48
-5.44
0.37
3.08
2.22
-2.11
-9.14
-17.56
-25.84
-32.72
-37.46
-39.79
-39.84
-37.86
-34.13
-28.92
-22.52
-15.2
-7.22
1.19
9.92
18.78
27.4
35.18
41.46
45.7
47.84
48.3
47.88
47.4
47.26
47.22
46.59
44.59
40.95
36.3
32.05
29.83
30.77
34.91
41.08
47.34
51.65
52.52
49.23
41.88
31.17
18.27
4.74
-7.57
-16.79
-21.57
-21.5
-17.28
-10.5
-3.1
3.26
7.51
9.25
8.47
5.34
0.12
-6.8
-14.78
-22.95
-30.39
-36.34
-40.26
-41.97
-41.44
-38.79
-34.2
-27.94
-20.39
-12.06
-3.54
4.58
11.68
17.26
20.94
22.57
22.35
20.82
18.73
16.79
15.39
14.39
13.22
11.13
7.69
3.1
-1.7
-5.38
-6.78
-5.44
-1.89
2.51
6.02
7.11
5.01
-0.11
-7.13
-14.35
-19.91
-22.38
-21.02
-16.02
-8.31
0.73
9.73
17.58
23.63
27.57
29.31
28.81
26.21
21.79
16.1
9.94
4.18
-0.39
-3.3
-4.42
-4.06
-2.78
-1.2
0.21
1.24
1.97
2.64
3.49
4.63
5.95
7.22
8.15
8.54
8.3
7.41
5.87
3.64
0.66
-3.03
-7.31
-11.98
-16.81
-21.55
-25.98
-29.79
-32.6
-33.93
-33.43
-30.85
-26.23
-19.88
-12.29
-4.13
3.87
11.02
16.74
20.72
22.96
23.78
23.64
22.94
21.91
20.53
18.62
16.01
12.58
8.34
3.46
-1.73
-6.71
-10.88
-13.71
-14.88
-14.41
-12.65
-10.23
-7.84
-6.16
-5.71
-6.81
-9.51
-13.48
-18.06
-22.38
-25.64
-27.28
-27.22
-25.77
-23.55
-21.24
-19.43
-18.48
-18.45
-19.11
-19.94
-20.28
-19.34
-16.48
-11.28
-3.7
5.94
17.0
28.69
40.17
50.76
59.96
67.41
72.75
75.63
75.81
73.25
68.4
62.06
55.13
48.38
42.17
36.45
31.0
25.67
20.5
15.59
10.91
6.15
0.85
-5.38
-12.52
-20.14
-27.56
-34.25
-39.95
-44.73
-48.84
-52.46
-55.7
-58.53
-60.91
-62.78
-64.14
-64.91
-64.94
-63.91
-61.45
-57.27
-51.23
-43.51
-34.54
-24.93
-15.21
-5.74
3.3
11.8
19.52
26.1
31.1
34.23
35.54
35.53
34.99
34.67
35.11
36.29
37.72
38.62
38.27
36.34
33.12
29.43
26.3
24.49
24.2
24.93
25.76
25.76
24.32
21.31
16.99
11.84
6.42
1.23
-3.34
-7.03
-9.73
-11.53
-12.82
-14.19
-16.43
-20.15
-25.56
-32.18
-38.81
-43.88
-45.86
-43.82
-37.73
-28.49
-17.56
-6.45
3.69
12.28
19.24
24.75
29.03
32.15
34.0
34.35
32.94
29.77
25.19
19.96
15.11
11.62
10.12
10.7
12.94
16.09
19.31
21.85
23.14
22.86
20.91
17.41
12.7
7.24
1.6
-3.7
-8.22
-11.77
-14.4
-16.62
-19.3
-23.54
-30.2
-39.4
-50.23
-60.87
-69.14
-73.27
-72.41
-66.77
-57.38
-45.5
-32.37
-18.93
-6.02
5.68
15.55
23.28
28.99
33.17
36.41
39.13
41.3
42.6
42.73
41.62
39.59
37.05
34.26
31.19
27.67
23.72
19.82
16.85
15.82
17.34
21.35
27.07
33.29
38.78
42.64
44.43
44.25
42.51
39.82
36.78
33.81
31.04
28.36
25.56
22.57
19.65
17.33
16.18
16.58
18.57
21.91
26.26
31.33
36.94
42.87
48.66
53.56
56.6
56.96
54.31
49.07
42.24
35.21
29.22
25.12
23.14
23.08
24.44
26.7
29.37
32.02
34.12
35.06
34.21
31.18
25.98
19.14
11.64
4.65
-0.79
-3.99
-4.89
-3.95
-2.08
-0.34
0.31
-0.81
-4.01
-9.29
-16.52
-25.34
-35.23
-45.34
-54.56
-61.55
-65.11
-64.46
-59.56
-51.11
-40.41
-29.02
-18.31
-9.17
-1.97
3.4
7.14
9.48
10.6
10.73
10.33
10.0
10.28
11.42
13.24
15.24
16.86
17.8
18.17
18.35
18.87
20.1
22.16
24.98
28.28
31.66
34.56
36.28
36.03
33.07
26.86
17.26
4.68
-9.85
-24.65
-37.69
-47.05
-51.44
-50.65
-45.68
-38.42
-31.07
-25.55
-23.07
-23.97
-27.84
-33.86
-41.04
-48.51
-55.63
-62.06
-67.7
-72.57
-76.59
-79.48
-80.76
-79.92
-76.76
-71.56
-65.16
-58.76
-53.62
-50.68
-50.32
-52.24
-55.58
-59.09
-61.44
-61.45
-58.38
-51.96
-42.49
-30.68
-17.53
-4.1
8.66
20.03
29.58
37.17
42.92
47.16
50.32
52.8
54.72
55.87
55.69
53.54
49.02
42.21
33.66
24.29
15.01
6.6
-0.46
-5.79
-9.13
-10.22
-9.06
-6.09
-2.28
1.04
2.63
1.85
-1.07
-5.01
-8.34
-9.49
-7.46
-2.09
5.95
15.48
25.2
34.01
41.21
46.49
49.84
51.35
51.2
49.54
46.56
42.63
38.23
33.9
30.02
26.72
23.75
20.79
17.65
14.57
12.15
11.09
11.83
14.28
17.87
21.81
25.4
28.24
30.21
31.33
31.59
31.01
29.67
27.79
25.65
23.56
21.66
19.94
18.34
16.84
15.59
14.77
14.39
14.11
13.19
10.74
6.13
-0.6
-8.69
-16.83
-23.61
-28.09
-30.1
-30.23
-29.46
-28.82
-28.91
-29.91
-31.62
-33.62
-35.47
-36.7
-36.95
-35.94
-33.52
-29.75
-24.94
-19.68
-14.74
-10.92
-8.71
-8.12
-8.64
-9.55
-10.27
-10.7
-11.23
-12.45
-14.75
-18.09
-22.05
-26.13
-30.13
-34.13
-38.34
-42.61
-46.29
-48.31
-47.59
-43.61
-36.64
-27.65
-17.86
-8.22
0.96
10.0
19.52
30.1
41.92
54.64
67.59
79.96
91.13
100.73
108.53
114.44
118.29
119.91
119.29
116.62
112.35
106.99
100.85
93.8
85.36
74.93
62.22
47.6
32.03
16.76
2.95
-8.79
-18.38
-26.14
-32.52
-37.86
-42.38
-46.2
-49.52
-52.59
-55.79
-59.44
-63.7
-68.48
-73.32
-77.55
-80.43
-81.51
-80.79
-78.86
-76.57
-74.67
-73.53
-73.03
-72.9
-72.99
-73.57
-75.2
-78.3
-82.74
-87.58
-91.27
-92.17
-89.17
-82.05
-71.57
-59.1
-46.09
-33.75
-22.77
-13.38
-5.46
1.25
7.01
11.93
16.04
19.32
21.81
23.66
25.02
25.94
26.31
25.9
24.45
21.82
18.1
13.66
9.0
4.66
0.98
-1.87
-3.97
-5.49
-6.64
-7.64
-8.65
-9.81
-11.21
-12.82
-14.54
-16.12
-17.34
-18.15
-18.75
-19.52
-20.82
-22.58
-24.29
-25.07
-24.06
-20.83
-15.56
-8.99
-2.09
4.25
9.43
13.2
15.54
16.6
16.6
15.8
14.5
13.09
12.02
11.85
13.07
15.93
20.29
25.54
30.81
35.26
38.43
40.32
41.29
41.71
41.71
41.16
39.71
37.16
33.59
29.44
25.28
21.55
18.28
14.96
10.79
4.95
-2.95
-12.66
-23.31
-33.57
-42.04
-47.54
-49.34
-47.16
-41.22
-32.2
-21.12
-9.4
1.5
10.33
16.35
19.45
20.09
18.91
16.51
13.25
9.27
4.62
-0.55
-5.98
-11.35
-16.36
-20.9
-24.88
-28.17
-30.49
-31.34
-30.18
-26.65
-20.77
-13.06
-4.45
4.02
11.43
17.22
21.17
23.27
23.52
21.89
18.38
13.12
6.46
-1.11
-9.03
-16.81
-24.06
-30.39
-35.33
-38.3
-38.77
-36.35
-30.99
-23.03
-13.22
-2.6
7.69
16.67
23.77
28.97
32.77
35.95
39.23
43.03
47.31
51.69
55.62
58.6
60.29
60.5
59.27
56.84
53.71
50.49
47.68
45.42
43.38
40.97
37.66
33.32
28.23
22.94
17.87
13.07
8.24
2.93
-3.1
-9.68
-16.16
-21.66
-25.25
-26.22
-24.22
-19.44
-12.52
-4.49
3.47
10.35
15.44
18.47
19.46
18.66
16.47
13.38
9.92
6.61
3.79
1.61
0.04
-1.07
-1.85
-2.38
-2.77
-3.2
-3.98
-5.4
-7.61
-10.49
-13.58
-16.33
-18.21
-19.08
-19.18
-19.03
-19.08
-19.5
-20.07
-20.31
-19.76
-18.2
-15.73
-12.64
-9.27
-5.81
-2.31
1.15
4.36
6.94
8.47
8.77
8.17
7.47
7.71
9.7
13.62
18.92
24.55
29.43
33.02
35.52
37.76
40.63
44.62
49.5
54.35
57.91
59.04
56.97
51.54
43.14
32.73
21.57
11.0
2.13
-4.51
-9.11
-12.44
-15.62
-19.72
-25.49
-33.21
-42.68
-53.25
-63.87
-73.28
-80.29
-84.16
-84.81
-82.76
-78.89
-73.97
-68.47
-62.44
-55.84
-48.76
-41.5
-34.42
-27.75
-21.39
-14.95
-7.98
-0.24
8.14
16.77
25.09
32.64
39.12
44.42
48.54
51.47
53.15
53.5
52.57
50.55
47.85
44.89
41.98
39.16
36.19
32.69
28.23
22.49
15.34
6.84
-2.62
-12.31
-21.14
-27.8
-31.04
-30.1
-25.06
-16.93
-7.42
1.45
7.99
11.21
10.99
7.93
3.03
-2.72
-8.58
-14.25
-19.78
-25.35
-31.06
-36.76
-42.04
-46.44
-49.67
-51.85
-53.52
-55.44
-58.29
-62.36
-67.36
-72.42
-76.35
-78.06
-76.9
-72.94
-66.98
-60.31
-54.22
-49.55
-46.43
-44.39
-42.77
-41.07
-39.32
-37.87
-37.13
-37.13
-37.29
-36.61
-33.99
-28.68
-20.48
-9.81
2.51
15.49
28.17
39.65
49.22
56.36
60.87
62.91
62.99
61.72
59.66
57.25
54.77
52.55
51.06
50.89
52.4
55.52
59.57
63.35
65.47
64.68
60.23
52.07
41.01
28.6
16.87
7.69
2.24
0.55
1.6
3.81
5.71
6.41
5.76
4.03
1.56
-1.52
-5.35
-10.06
-15.55
-21.44
-27.12
-31.91
-35.3
-37.01
-37.03
-35.56
-32.92
-29.4
-25.2
-20.39
-14.96
-8.86
-2.07
5.35
13.27
21.4
29.29
36.35
41.96
45.65
47.25
46.86
44.72
41.08
36.07
29.74
22.2
13.81
5.24
-2.63
-8.88
-12.9
-14.51
-13.97
-11.87
-8.88
-5.68
-2.82
-0.84
-0.22
-1.42
-4.75
-10.13
-16.96
-24.17
-30.49
-34.89
-36.98
-37.06
-35.87
-34.19
-32.48
-30.72
-28.6
-25.73
-21.81
-16.85
-11.11
-5.03
0.8
5.83
9.61
12.04
13.31
13.91
14.3
14.78
15.34
15.7
15.56
14.84
13.82
13.15
13.56
15.61
19.39
24.42
29.78
34.48
37.72
39.14
38.78
36.89
33.56
28.66
21.99
13.46
3.41
-7.49
-18.4
-28.71
-38.13
-46.68
-54.54
-61.77
-68.23
-73.63
-77.7
-80.33
-81.66
-81.96
-81.58
-80.69
-79.39
-77.58
-75.11
-71.84
-67.74
-62.94
-57.76
-52.6
-47.88
-43.96
-41.04
-39.02
-37.51
-35.76
-32.83
-27.91
-20.57
-10.96
0.39
12.83
25.86
39.3
52.95
66.47
79.1
89.83
97.71
102.19
103.36
101.78
98.25
93.55
88.37
83.19
78.42
74.25
70.69
67.53
64.41
60.98
56.98
52.3
46.89
40.69
33.63
25.7
17.03
7.98
-0.83
-8.83
-15.55
-20.85
-24.92
-28.23
-31.36
-34.77
-38.7
-42.98
-47.15
-50.55
-52.48
-52.37
-49.94
-45.2
-38.42
-30.05
-20.66
-10.91
-1.47
7.02
14.09
19.62
23.87
27.53
31.42
36.31
42.49
49.67
56.99
63.34
67.82
69.96
69.9
68.17
65.47
62.38
59.25
56.18
53.1
49.91
46.45
42.57
38.1
33.0
27.38
21.57
16.01
11.05
6.71
2.66
-1.69
-6.8
-12.8
-19.28
-25.5
-30.67
-34.3
-36.38
-37.28
-37.48
-37.3
-36.77
-35.6
-33.42
-29.85
-24.72
-18.08
-10.19
-1.48
7.6
16.6
25.12
32.81
39.38
44.66
48.71
51.74
54.08
56.01
57.62
58.78
59.21
58.67
57.09
54.63
51.57
48.18
44.66
41.09
37.48
33.73
29.68
25.14
20.0
14.35
8.54
3.14
-1.38
-4.83
-7.54
-10.22
-13.69
-18.54
-24.87
-32.41
-40.61
-48.97
-57.14
-64.88
-72.04
-78.42
-83.78
-87.86
-90.41
-91.09
-89.45
-84.84
-76.61
-64.33
-48.21
-29.31
-9.48
8.99
23.93
33.87
38.31
37.71
33.16
26.2
18.47
11.64
7.08
5.63
7.16
10.61
14.32
16.65
16.77
14.87
11.99
9.4
7.93
7.64
7.95
8.03
7.17
4.89
0.96
-4.73
-12.16
-21.06
-30.88
-40.85
-50.39
-59.16
-67.18
-74.66
-81.81
-88.66
-95.06
-100.78
-105.6
-109.31
-111.7
-112.37
-110.69
-105.81
-96.98
-83.86
-66.82
-47.07
-26.43
-6.86
10.08
23.63
33.91
41.54
47.3
51.67
54.85
56.96
58.11
58.51
58.32
57.73
56.95
56.35
56.47
57.76
60.34
63.78
67.2
69.5
69.81
67.71
63.25
56.79
48.8
39.77
30.29
20.99
12.46
5.05
-1.19
-6.41
-10.86
-14.83
-18.61
-22.62
-27.3
-33.0
-39.77
-47.34
-55.12
-62.46
-68.73
-73.35
-75.62
-74.76
-70.01
-61.14
-48.83
-34.71
-20.97
-9.82
-2.72
-0.21
-1.84
-6.5
-12.73
-19.02
-24.12
-27.3
-28.62
-28.8
-28.87
-29.62
-31.08
-32.36
-32.08
-29.0
-22.74
-13.99
-4.22
4.95
12.34
17.52
20.79
22.77
24.05
24.99
25.62
25.91
25.8
25.41
24.92
24.47
24.0
23.25
21.78
19.16
15.09
9.57
3.01
-3.77
-9.68
-13.7
-15.15
-13.89
-10.28
-4.98
1.29
7.95
14.55
20.7
26.02
30.22
33.14
34.85
35.61
35.71
35.26
34.12
31.97
28.58
23.95
18.51
12.98
8.22
4.87
3.2
3.0
3.76
4.91
6.05
7.07
7.99
8.82
9.43
9.63
9.33
8.63
7.78
6.97
6.09
4.68
2.1
-2.13
-7.9
-14.47
-20.48
-24.48
-25.31
-22.57
-16.73
-9.08
-1.39
4.7
8.06
8.51
6.73
3.87
1.05
-1.1
-2.55
-3.67
-4.88
-6.32
-7.78
-8.92
-9.5
-9.48
-8.98
-8.11
-6.82
-5.0
-2.54
0.49
3.78
6.79
8.98
9.93
9.51
7.87
5.3
2.05
-1.78
-6.23
-11.31
-16.83
-22.33
-27.19
-30.87
-33.18
-34.25
-34.4
-33.7
-31.84
-28.34
-22.76
-15.19
-6.3
2.85
11.19
17.97
22.91
26.12
27.87
28.46
28.13
27.08
25.51
23.63
21.56
19.27
16.62
13.47
9.77
5.74
1.83
-1.4
-3.41
-3.89
-2.79
-0.41
2.78
6.21
9.41
12.11
14.28
16.12
17.94
20.05
22.61
25.66
29.04
32.49
35.63
38.02
39.15
38.6
36.15
31.98
26.75
21.42
17.08
14.63
14.6
17.02
21.42
27.03
32.88
38.05
41.82
43.83
44.07
42.86
40.72
38.15
35.41
32.37
28.49
23.01
15.37
5.48
-6.02
-17.96
-29.13
-38.8
-47.16
-55.04
-63.46
-72.97
-83.31
-93.46
-102.16
-108.35
-111.52
-111.68
-109.08
-104.06
-96.9
-87.91
-77.6
-66.75
-56.28
-46.98
-39.4
-33.68
-29.64
-26.8
-24.61
-22.52
-20.21
-17.69
-15.2
-13.09
-11.52
-10.21
-8.43
-5.15
0.61
9.38
21.01
34.57
48.62
61.58
72.11
79.47
83.51
84.63
83.43
80.54
76.4
71.32
65.57
59.47
53.33
47.38
41.63
35.9
29.93
23.57
16.83
9.9
2.98
-3.72
-10.11
-16.13
-21.78
-27.15
-32.43
-37.84
-43.45
-49.1
-54.34
-58.54
-61.2
-62.1
-61.44
-59.66
-57.27
-54.6
-51.68
-48.37
-44.54
-40.25
-35.75
-31.52
-28.07
-25.83
-25.01
-25.54
-26.98
-28.51
-29.07
-27.52
-22.96
-14.97
-3.9
9.17
22.69
35.03
44.94
51.81
55.67
56.96
56.33
54.44
51.91
49.34
47.19
45.72
44.8
43.95
42.36
39.3
34.37
27.65
19.69
11.28
3.19
-4.02
-9.96
-14.41
-17.27
-18.59
-18.64
-17.75
-16.31
-14.54
-12.57
-10.48
-8.38
-6.37
-4.45
-2.41
0.15
3.67
8.42
14.46
21.62
29.67
38.42
47.67
57.0
65.62
72.44
76.38
76.84
74.02
68.94
63.11
58.16
55.37
55.39
58.19
63.13
69.15
74.99
79.32
80.84
78.54
71.93
61.34
47.95
33.63
20.3
9.46
1.62
-3.68
-7.49
-10.84
-14.31
-17.84
-21.14
-24.13
-27.2
-31.06
-36.2
-42.55
-49.34
-55.41
-59.68
-61.56
-61.01
-58.44
-54.45
-49.68
-44.76
-40.25
-36.58
-33.9
-32.02
-30.58
-29.19
-27.76
-26.47
-25.66
-25.52
-25.87
-26.21
-25.9
-24.47
-21.82
-18.25
-14.22
-10.23
-6.52
-3.13
-0.07
2.61
4.8
6.44
7.73
9.11
11.07
13.93
17.58
21.58
25.37
28.56
31.07
32.91
33.97
33.8
31.75
27.38
20.75
12.58
3.92
-4.23
-11.33
-17.43
-22.89
-28.13
-33.31
-38.34
-42.93
-46.92
-50.32
-53.31
-56.14
-58.94
-61.6
-63.73
-64.67
-63.68
-60.12
-53.61
-44.21
-32.33
-18.76
-4.48
9.39
21.83
32.03
39.44
43.77
44.95
43.16
38.93
33.31
27.9
24.53
24.83
29.53
38.24
49.5
61.42
72.44
81.67
88.92
94.15
97.1
97.26
94.2
88.07
79.77
70.65
61.83
53.68
45.58
36.47
25.38
12.17
-2.45
-17.25
-31.07
-43.36
-54.29
-64.48
-74.55
-84.81
-95.12
-105.07
-114.1
-121.59
-126.91
-129.33
-128.13
-122.79
-113.26
-99.99
-83.92
-66.14
-47.76
-29.76
-13.08
1.36
12.75
20.56
24.77
25.9
24.91
22.95
20.95
19.53
18.99
19.4
20.83
23.3
26.71
30.73
34.72
37.93
39.79
40.11
39.13
37.25
34.71
31.4
26.94
20.99
13.62
5.4
-2.79
-10.19
-16.46
-21.83
-26.91
-32.36
-38.61
-45.71
-53.32
-60.82
-67.41
-72.27
-74.71
-74.22
-70.67
-64.27
-55.64
-45.55
-34.81
-23.98
-13.36
-3.09
6.75
15.95
24.12
30.75
35.43
37.86
38.09
36.35
33.07
28.8
24.22
20.1
17.35
16.85
19.2
24.43
31.83
39.99
47.08
51.38
51.76
47.98
40.63
30.75
19.49
7.73
-3.94
-15.1
-25.47
-34.79
-43.08
-50.62
-58.0
-65.88
-74.78
-84.7
-94.99
-104.45
-111.67
-115.56
-115.58
-111.96
-105.45
-96.89
-86.9
-75.6
-62.76
-48.03
-31.41
-13.43
4.76
21.59
35.45
45.06
49.87
50.23
47.32
42.89
38.75
36.38
36.6
39.57
44.9
51.94
59.9
68.03
75.54
81.73
85.98
87.87
87.3
84.39
79.52
73.02
65.13
55.92
45.39
33.56
20.6
6.79
-7.57
-22.34
-37.58
-53.51
-70.28
-87.74
-105.29
-121.78
-135.69
-145.36
-149.38
-147.01
-138.36
-124.47
-106.99
-87.73
-68.14
-49.1
-30.92
-13.63
2.66
17.61
30.6
41.02
48.44
52.91
54.92
55.29
54.95
54.73
55.21
56.74
59.43
63.25
67.96
73.08
77.9
81.55
83.2
82.34
78.93
73.46
66.7
59.41
52.09
44.84
37.52
29.9
21.85
13.43
4.8
-3.87
-12.65
-21.82
-31.72
-42.52
-53.95
-65.27
-75.32
-82.87
-86.88
-86.72
-82.26
-73.87
-62.29
-48.54
-33.62
-18.41
-3.48
10.84
24.35
36.79
47.73
56.6
62.82
66.04
66.27
64.02
60.23
55.97
52.17
49.3
47.37
46.06
45.06
44.36
44.15
44.7
46.01
47.66
48.94
49.16
48.0
45.58
42.28
38.42
34.05
28.87
22.52
14.83
6.02
-3.25
-12.17
-19.95
-26.09
-30.38
-32.87
-33.73
-33.25
-31.93
-30.47
-29.65
-30.02
-31.52
-33.43
-34.54
-33.64
-30.11
-24.21
-16.82
-9.09
-1.91
4.38
9.91
15.02
20.05
25.16
30.35
35.56
40.76
45.91
50.97
55.75
59.94
63.09
64.78
64.67
62.71
59.13
54.53
49.68
45.35
42.15
40.28
39.58
39.52
39.32
38.13
35.21
30.14
22.92
14.05
4.44
-4.81
-12.69
-18.46
-21.76
-22.61
-21.44
-19.0
-16.27
-14.32
-14.13
-16.25
-20.66
-26.74
-33.44
-39.73
-44.81
-48.31
-50.15
-50.45
-49.46
-47.6
-45.48
-43.76
-42.87
-42.79
-42.97
-42.51
-40.54
-36.59
-30.76
-23.63
-15.96
-8.48
-1.63
4.31
9.21
12.99
15.71
17.62
19.09
20.56
22.3
24.38
26.57
28.44
29.51
29.39
27.89
25.06
21.14
16.45
11.38
6.4
2.07
-0.99
-2.29
-1.64
0.72
4.18
7.82
10.7
12.14
11.95
10.55
8.68
7.09
6.11
5.54
4.83
3.49
1.45
-0.88
-2.8
-3.77
-3.69
-2.93
-2.04
-1.29
-0.5
0.86
3.22
6.51
10.02
12.74
13.82
12.95
10.5
7.24
4.01
1.36
-0.53
-1.8
-2.69
-3.43
-4.05
-4.47
-4.5
-3.92
-2.58
-0.44
2.36
5.61
9.06
12.62
16.35
20.45
25.09
30.29
35.8
41.24
46.15
50.14
52.96
54.46
54.49
52.91
49.59
44.53
38.08
30.98
24.26
18.93
15.53
13.89
13.08
11.82
9.04
4.33
-1.79
-8.29
-13.98
-18.18
-20.82
-22.34
-23.32
-24.15
-24.97
-25.87
-27.1
-29.09
-32.35
-37.1
-43.11
-49.78
-56.37
-62.42
-67.85
-72.91
-77.82
-82.45
-86.17
-87.89
-86.5
-81.29
-72.23
-60.13
-46.33
-32.35
-19.52
-8.64
0.06
6.75
11.86
15.9
19.28
22.35
25.3
28.16
30.77
32.85
34.12
34.42
33.82
32.57
30.98
29.3
27.5
25.31
22.19
17.63
11.3
3.36
-5.61
-14.68
-22.95
-29.84
-35.21
-39.26
-42.28
-44.4
-45.51
-45.43
-44.17
-42.07
-39.72
-37.78
-36.63
-36.33
-36.66
-37.27
-37.82
-37.96
-37.28
-35.34
-31.69
-26.06
-18.44
-9.12
1.3
12.02
22.11
30.61
36.7
39.91
40.24
38.31
35.19
32.16
30.43
30.86
33.84
39.13
45.93
52.92
58.53
61.4
60.86
57.15
51.46
45.41
40.46
37.37
36.01
35.61
35.21
34.13
32.09
29.18
25.54
21.25
16.33
10.81
4.98
-0.77
-5.98
-10.36
-13.99
-17.22
-20.42
-23.71
-26.8
-29.14
-30.13
-29.49
-27.32
-24.0
-19.9
-15.24
-9.98
-4.09
2.33
8.94
15.23
20.84
25.53
29.28
32.05
33.78
34.33
33.6
31.64
28.73
25.28
21.74
18.55
16.0
14.28
13.44
13.36
13.67
13.85
13.26
11.38
7.96
3.23
-2.25
-7.69
-12.28
-15.51
-17.19
-17.53
-17.02
-16.24
-15.87
-16.48
-18.49
-21.97
-26.5
-31.21
-34.95
-36.68
-35.91
-32.81
-28.17
-22.92
-17.81
-13.16
-8.96
-5.08
-1.46
1.92
5.16
8.62
12.81
18.19
24.82
32.34
40.06
47.27
53.43
58.22
61.52
63.22
63.24
61.62
58.45
54.01
48.58
42.41
35.58
28.02
19.59
10.16
-0.25
-11.48
-23.24
-35.22
-47.09
-58.45
-68.81
-77.54
-84.03
-87.94
-89.43
-89.26
-88.57
-88.41
-89.2
-90.53
-91.3
-90.24
-86.49
-79.88
-70.89
-60.34
-49.03
-37.56
-26.38
-15.92
-6.75
0.47
5.17
7.11
6.46
3.73
-0.35
-4.99
-9.32
-12.37
-13.19
-11.07
-5.83
2.0
11.18
20.09
27.23
31.65
33.18
32.32
29.88
26.53
22.67
18.35
13.61
8.64
3.92
0.09
-2.43
-3.57
-3.88
-4.34
-6.05
-9.82
-15.92
-23.87
-32.52
-40.34
-45.66
-47.15
-44.11
-36.71
-25.95
-13.46
-1.0
9.93
18.48
24.56
28.67
31.6
34.06
36.34
38.27
39.32
38.91
36.7
32.79
27.71
22.16
16.63
11.14
5.31
-1.26
-8.42
-15.25
-20.24
-21.87
-19.34
-13.01
-4.35
4.65
12.22
17.38
20.04
20.71
20.08
18.51
16.04
12.43
7.46
1.09
-6.44
-14.79
-23.68
-32.94
-42.55
-52.41
-62.2
-71.32
-78.97
-84.37
-87.09
-87.07
-84.69
-80.51
-75.0
-68.36
-60.6
-51.66
-41.65
-30.92
-20.01
-9.43
0.46
9.49
17.63
24.8
30.84
35.54
38.78
40.66
41.45
41.4
40.56
38.69
35.37
30.27
23.41
15.28
6.77
-1.11
-7.54
-11.9
-13.91
-13.5
-10.83
-6.29
-0.55
5.54
11.06
15.17
17.27
17.01
14.46
10.03
4.58
-0.7
-4.53
-5.9
-4.49
-0.75
4.28
9.42
13.88
17.37
20.07
22.27
24.19
25.79
26.93
27.55
27.65
27.27
26.39
24.9
22.76
20.14
17.51
15.49
14.63
15.11
16.69
18.79
20.7
21.81
21.89
21.13
20.07
19.35
19.43
20.37
21.72
22.83
23.12
22.42
21.08
19.77
19.19
19.66
21.11
23.15
25.23
26.85
27.52
26.78
24.21
19.58
13.16
5.86
-0.9
-5.51
-6.8
-4.43
1.01
8.29
15.89
22.5
27.13
29.25
28.69
25.72
20.95
15.22
9.38
4.05
-0.57
-4.54
-8.04
-11.15
-13.77
-15.76
-17.1
-17.85
-18.17
-18.13
-17.65
-16.6
-14.99
-13.06
-11.37
-10.55
-11.08
-13.0
-15.96
-19.43
-23.01
-26.71
-30.87
-35.94
-42.08
-48.93
-55.59
-60.94
-64.02
-64.37
-62.04
-57.34
-50.65
-42.19
-32.15
-20.86
-8.98
2.65
13.19
22.14
29.52
35.73
41.26
46.34
50.75
53.93
55.23
54.25
50.99
45.79
39.18
31.82
24.36
17.49
11.89
8.11
6.4
6.56
7.96
9.64
10.6
9.99
7.33
2.64
-3.62
-10.61
-17.3
-22.69
-26.07
-27.17
-26.15
-23.64
-20.47
-17.65
-16.13
-16.84
-20.49
-27.4
-37.1
-48.23
-58.5
-65.25
-66.22
-60.31
-48.07
-31.5
-13.32
3.93
18.53
29.75
37.67
42.69
45.32
46.13
45.89
45.54
45.95
47.64
50.44
53.55
55.78
56.02
53.67
48.74
41.93
34.29
26.96
20.8
16.23
13.09
10.87
8.92
6.73
4.05
0.88
-2.68
-6.51
-10.55
-14.69
-18.68
-22.19
-24.9
-26.75
-28.02
-29.31
-31.29
-34.5
-39.18
-45.25
-52.34
-59.81
-66.72
-71.84
-73.83
-71.56
-64.51
-53.02
-38.29
-22.04
-6.02
8.47
20.75
30.77
38.71
44.81
49.11
51.53
52.11
51.11
49.07
46.74
44.8
43.54
42.73
41.63
39.35
35.27
29.34
22.11
14.51
7.47
1.61
-2.9
-6.25
-8.71
-10.45
-11.42
-11.45
-10.46
-8.66
-6.55
-4.74
-3.75
-3.73
-4.54
-5.88
-7.49
-9.21
-10.85
-11.93
-11.65
-9.12
-3.88
3.63
12.1
19.77
25.32
28.52
30.41
32.73
37.07
44.01
52.9
62.15
69.99
75.17
77.33
76.95
74.87
71.91
68.56
65.01
61.28
57.44
53.71
50.26
47.13
44.05
40.57
36.3
31.21
25.74
20.59
16.36
13.18
10.62
7.85
4.06
-1.23
-7.9
-15.46
-23.18
-30.48
-37.06
-42.81
-47.67
-51.46
-53.81
-54.27
-52.48
-48.4
-42.34
-35.02
-27.31
-20.05
-13.87
-9.01
-5.47
-2.98
-1.15
0.43
2.13
4.24
6.85
9.88
13.14
16.33
19.14
21.29
22.51
22.61
21.54
19.42
16.54
13.24
9.81
6.4
2.98
-0.59
-4.46
-8.67
-13.12
-17.52
-21.55
-24.92
-27.55
-29.6
-31.44
-33.44
-35.78
-38.42
-41.18
-43.95
-46.9
-50.34
-54.48
-59.09
-63.39
-66.27
-66.74
-64.39
-59.53
-53.09
-46.11
-39.38
-33.23
-27.62
-22.42
-17.63
-13.45
-10.16
-7.91
-6.6
-5.75
-4.55
-2.08
2.38
9.09
17.64
27.1
36.26
44.04
49.83
53.52
55.45
56.0
55.47
53.96
51.45
47.99
43.71
38.74
33.12
26.79
19.68
11.8
3.34
-5.37
-13.93
-21.89
-28.74
-33.98
-37.24
-38.44
-37.91
-36.46
-35.11
-34.82
-36.12
-38.91
-42.56
-46.11
-48.63
-49.48
-48.4
-45.52
-41.19
-35.84
-29.87
-23.5
-16.75
-9.42
-1.13
8.53
19.75
32.37
45.82
59.25
71.82
82.99
92.67
101.0
108.06
113.5
116.62
116.6
113.02
106.14
96.96
86.8
76.9
68.01
60.35
53.63
47.29
40.55
32.54
22.49
9.91
-5.14
-21.99
-39.51
-56.46
-71.78
-84.77
-95.03
-102.33
-106.52
-107.63
-106.02
-102.52
-98.22
-94.21
-91.12
-88.89
-86.84
-84.1
-80.02
-74.52
-68.03
-61.31
-54.99
-49.23
-43.79
-38.16
-31.91
-24.86
-17.12
-8.87
-0.32
8.39
17.03
25.26
32.66
38.89
43.81
47.56
50.46
52.89
55.09
57.12
58.79
59.76
59.59
57.84
54.19
48.54
41.13
32.47
23.25
14.16
5.77
-1.49
-7.48
-12.35
-16.58
-20.89
-25.91
-31.91
-38.6
-45.22
-50.85
-54.86
-57.15
-58.19
-58.71
-59.36
-60.34
-61.43
-61.97
-61.15
-58.21
-52.62
-44.24
-33.47
-21.16
-8.46
3.54
14.13
23.12
30.76
37.54
43.83
49.73
54.96
59.13
61.87
63.05
62.77
61.34
59.07
56.21
52.87
49.08
44.85
40.27
35.46
30.49
25.25
19.36
12.36
4.03
-5.32
-14.8
-23.27
-29.83
-34.26
-37.1
-39.29
-41.68
-44.59
-47.81
-50.94
-53.79
-56.45
-59.11
-61.66
-63.39
-63.2
-60.06
-53.6
-44.36
-33.64
-23.03
-13.74
-6.29
-0.6
3.81
7.37
10.31
12.7
14.66
16.45
18.44
20.9
23.74
26.49
28.43
28.9
27.62
24.84
21.18
17.31
13.64
10.1
6.27
1.63
-4.15
-11.04
-18.77
-26.92
-35.23
-43.62
-52.14
-60.84
-69.6
-78.12
-85.93
-92.65
-98.04
-102.15
-105.21
-107.48
-109.02
-109.63
-108.92
-106.47
-102.1
-95.76
-87.37
-76.67
-63.13
-46.31
-26.19
-3.63
19.78
41.96
61.06
75.93
86.4
93.17
97.44
100.49
103.28
106.26
109.3
111.87
113.27
112.88
110.46
106.1
100.21
93.4
86.26
79.28
72.76
66.72
60.8
54.45
47.06
38.21
27.91
16.58
4.93
-6.21
-16.13
-24.4
-30.94
-36.08
-40.4
-44.52
-48.87
-53.36
-57.51
-60.48
-61.51
-60.2
-56.62
-51.2
-44.43
-36.67
-28.03
-18.57
-8.48
1.75
11.39
19.66
25.96
30.07
32.14
32.64
32.21
31.51
31.17
31.71
33.5
36.67
41.03
45.97
50.56
53.77
54.75
53.25
49.61
44.71
39.51
34.61
29.94
24.84
18.36
9.76
-1.08
-13.68
-27.06
-40.1
-51.79
-61.38
-68.52
-73.24
-75.94
-77.18
-77.48
-77.08
-75.9
-73.54
-69.51
-63.29
-54.5
-42.89
-28.46
-11.53
7.14
26.27
44.24
59.35
70.25
76.25
77.47
74.78
69.49
63.0
56.52
50.82
46.2
42.53
39.44
36.5
33.45
30.25
27.21
24.91
23.99
24.89
27.57
31.34
34.97
37.09
36.65
33.26
27.23
19.35
10.59
1.76
-6.58
-14.24
-21.31
-28.13
-35.2
-42.97
-51.57
-60.58
-69.08
-75.87
-79.97
-81.01
-79.37
-75.85
-71.27
-66.16
-60.79
-55.38
-50.29
-45.93
-42.56
-39.99
-37.68
-35.14
-32.29
-29.66
-28.02
-27.92
-29.29
-31.52
-33.82
-35.69
-37.05
-37.92
-38.09
-36.94
-33.73
-28.23
-21.18
-14.14
-8.81
-6.12
-5.6
-5.52
-3.77
1.1
9.16
19.04
28.55
35.67
39.27
39.46
37.2
33.82
30.48
27.92
26.53
26.4
27.42
29.2
31.08
32.28
32.12
30.31
27.17
23.62
20.98
20.66
23.77
30.76
41.31
54.3
68.07
80.76
90.79
97.2
99.78
99.0
95.72
90.82
85.03
78.86
72.68
66.81
61.58
57.24
53.94
51.67
50.27
49.53
49.2
49.1
49.08
49.04
48.84
48.27
47.1
45.16
42.44
39.11
35.49
31.89
28.57
25.68
23.28
21.31
19.61
17.87
15.78
13.06
9.72
5.98
2.21
-1.3
-4.56
-7.89
-11.73
-16.43
-22.12
-28.67
-35.8
-43.12
-50.14
-56.17
-60.33
-61.82
-60.19
-55.62
-48.93
-41.26
-33.74
-27.22
-22.21
-18.89
-17.27
-17.19
-18.29
-20.06
-21.88
-23.11
-23.29
-22.25
-20.07
-17.0
-13.26
-8.95
-4.03
1.58
7.82
14.41
20.81
26.36
30.44
32.61
32.71
30.83
27.31
22.69
17.76
13.44
10.54
9.48
10.03
11.35
12.29
11.89
9.66
5.79
0.8
-4.72
-10.38
-16.11
-21.94
-27.93
-33.97
-39.77
-44.99
-49.3
-52.42
-54.14
-54.38
-53.15
-50.69
-47.32
-43.4
-39.15
-34.61
-29.68
-24.31
-18.65
-13.09
-8.18
-4.35
-1.85
-0.59
-0.28
-0.6
-1.27
-2.08
-2.8
-3.13
-2.66
-1.05
1.83
5.81
10.42
15.04
19.12
22.32
24.51
25.82
26.4
26.39
25.89
25.0
23.9
22.84
22.08
21.79
21.95
22.32
22.54
22.19
20.99
18.88
16.02
12.7
9.2
5.71
2.21
-1.46
-5.61
-10.6
-16.69
-23.81
-31.4
-38.42
-43.54
-45.62
-44.08
-39.18
-32.06
-24.23
-17.17
-11.82
-8.39
-6.56
-5.72
-5.33
-5.07
-4.84
-4.63
-4.32
-3.69
-2.52
-0.68
1.68
4.23
6.62
8.73
10.69
12.73
14.92
16.93
18.14
17.96
16.18
13.09
9.33
5.65
2.6
0.48
-0.58
-0.52
0.72
3.03
6.07
9.21
11.77
13.24
13.52
12.88
11.75
10.39
8.72
6.36
2.86
-1.98
-7.9
-14.08
-19.32
-22.39
-22.46
-19.39
-13.83
-7.02
-0.4
4.75
7.64
8.06
6.31
3.08
-0.84
-4.68
-7.88
-10.2
-11.61
-12.27
-12.31
-11.78
-10.59
-8.62
-5.83
-2.38
1.32
4.67
7.0
7.72
6.51
3.38
-1.34
-7.14
-13.36
-19.43
-24.93
-29.54
-33.11
-35.51
-36.77
-37.0
-36.45
-35.4
-34.13
-32.82
-31.64
-30.73
-30.16
-29.83
-29.41
-28.34
-26.0
-22.02
-16.47
-10.0
-3.57
1.81
5.41
6.87
6.17
3.54
-0.61
-5.69
-11.0
-15.83
-19.7
-22.39
-23.99
-24.71
-24.71
-23.98
-22.38
-19.7
-15.88
-11.06
-5.58
0.01
5.08
9.11
11.82
13.29
13.87
14.02
14.03
13.87
13.29
11.88
9.44
6.0
1.84
-2.62
-6.96
-10.86
-14.1
-16.64
-18.57
-20.03
-21.18
-21.94
-22.09
-21.26
-19.14
-15.6
-10.76
-4.82
2.02
9.72
18.34
27.84
37.96
48.14
57.59
65.47
70.92
73.15
71.49
65.56
55.46
41.97
26.52
10.92
-3.09
-14.25
-22.04
-26.62
-28.5
-28.21
-26.11
-22.45
-17.58
-12.14
-7.06
-3.29
-1.53
-1.94
-4.15
-7.46
-11.19
-14.94
-18.69
-22.68
-27.23
-32.5
-38.47
-44.95
-51.54
-57.57
-62.12
-64.02
-62.3
-56.54
-47.21
-35.51
-23.05
-11.25
-0.86
8.04
15.74
22.47
28.13
32.34
34.76
35.44
34.81
33.49
31.92
30.23
28.22
25.62
22.26
18.3
14.01
9.76
5.72
1.89
-1.9
-5.78
-9.67
-13.27
-16.06
-17.61
-17.75
-16.73
-15.13
-13.58
-12.5
-11.85
-11.3
-10.55
-9.67
-9.26
-10.29
-13.72
-19.98
-28.68
-38.56
-47.73
-54.21
-56.53
-54.18
-47.7
-38.41
-27.86
-17.3
-7.44
1.5
9.54
16.68
22.74
27.56
31.13
33.65
35.38
36.57
37.27
37.5
37.27
36.68
35.76
34.33
32.12
28.9
24.76
20.24
16.03
12.69
10.33
8.52
6.59
3.95
0.29
-4.28
-9.4
-14.58
-19.31
-23.09
-25.5
-26.31
-25.53
-23.53
-20.89
-18.36
-16.66
-16.35
-17.7
-20.54
-24.29
-27.9
-30.19
-30.04
-26.77
-20.27
-11.08
-0.14
11.44
22.59
32.5
40.64
46.89
51.39
54.49
56.63
58.18
59.42
60.57
61.8
63.2
64.77
66.26
67.29
67.34
65.93
62.72
57.51
50.2
40.72
29.12
15.67
1.02
-13.82
-27.62
-39.22
-47.78
-52.99
-55.06
-54.55
-52.24
-48.91
-45.18
-41.49
-38.14
-35.4
-33.51
-32.69
-32.98
-34.23
-36.02
-37.85
-39.22
-39.76
-39.18
-37.25
-33.78
-28.68
-22.1
-14.37
-5.98
2.64
11.24
19.72
27.96
35.73
42.57
48.02
51.78
53.88
54.68
54.75
54.71
55.02
55.88
57.14
58.28
58.55
57.17
53.69
48.15
41.16
33.59
26.22
19.49
13.48
8.1
3.33
-0.64
-3.51
-5.1
-5.64
-5.73
-6.3
-8.1
-11.5
-16.24
-21.63
-26.83
-31.18
-34.46
-36.81
-38.64
-40.3
-42.01
-43.76
-45.42
-46.79
-47.72
-47.96
-47.17
-44.9
-40.79
-34.74
-27.02
-18.18
-8.87
0.36
9.14
17.15
24.02
29.27
32.39
33.09
31.53
28.31
24.35
20.57
17.6
15.75
15.09
15.56
17.12
19.65
22.83
26.11
28.76
29.99
29.17
26.04
20.74
13.78
5.93
-1.94
-9.0
-14.58
-18.15
-19.51
-18.88
-16.93
-14.6
-12.81
-12.15
-12.71
-14.14
-15.88
-17.38
-18.33
-18.57
-17.99
-16.4
-13.58
-9.49
-4.52
0.61
5.09
8.38
10.55
12.17
13.93
16.35
19.5
22.96
26.08
28.27
29.18
28.77
27.27
25.08
22.73
20.89
20.23
21.27
24.17
28.54
33.5
37.84
40.41
40.41
37.6
32.21
24.83
16.12
6.74
-2.71
-11.68
-19.71
-26.5
-32.11
-36.97
-41.74
-47.03
-53.0
-59.23
-64.73
-68.24
-68.59
-65.08
-57.72
-47.29
-35.2
-23.11
-12.56
-4.59
0.41
2.73
3.0
1.9
-0.1
-2.73
-5.81
-8.95
-11.58
-12.97
-12.54
-10.04
-5.63
0.21
6.8
13.4
19.28
23.7
26.14
26.4
24.76
21.94
18.9
16.54
15.47
15.86
17.55
20.1
22.92
25.29
26.52
26.07
23.67
19.46
13.84
7.33
0.37
-6.76
-13.87
-20.72
-26.82
-31.47
-33.93
-33.67
-30.57
-24.99
-17.6
-9.14
-0.23
8.71
17.3
25.11
31.59
36.21
38.63
38.92
37.62
35.46
33.22
31.43
30.32
29.91
30.07
30.61
31.23
31.55
31.22
30.03
28.02
25.47
22.7
19.92
17.07
13.92
10.16
5.63
0.4
-5.3
-11.08
-16.45
-20.78
-23.29
-23.3
-20.53
-15.45
-9.29
-3.79
-0.52
-0.39
-3.34
-8.52
-14.69
-20.68
-25.57
-28.72
-29.68
-28.19
-24.36
-18.69
-12.1
-5.65
-0.2
3.9
6.91
9.5
12.5
16.58
21.93
28.11
34.14
38.7
40.58
39.17
34.74
28.43
21.91
16.73
13.92
13.67
15.54
18.71
22.35
25.75
28.41
29.96
30.17
28.98
26.55
23.27
19.64
16.06
12.72
9.51
6.18
2.48
-1.55
-5.71
-9.57
-12.83
-15.41
-17.58
-19.95
-23.28
-28.25
-35.26
-44.24
-54.56
-65.01
-73.99
-79.86
-81.42
-78.34
-71.38
-62.14
-52.53
-44.18
-37.97
-33.97
-31.74
-30.65
-30.13
-29.73
-29.03
-27.58
-24.91
-20.68
-14.72
-7.23
1.35
10.3
18.8
26.11
31.8
35.95
39.09
41.99
45.22
48.82
52.21
54.42
54.56
52.28
48.01
42.84
38.27
35.85
36.95
42.45
52.59
66.74
83.43
100.43
115.23
125.47
129.37
126.07
115.52
98.31
75.41
47.98
17.43
-14.35
-44.85
-71.12
-90.39
-100.99
-102.99
-98.33
-90.13
-81.54
-74.6
-69.7
-65.98
-62.11
-57.4
-52.07
-47.01
-43.0
-40.09
-37.57
-34.45
-30.19
-24.95
-19.61
-15.16
-12.03
-9.9
-7.82
-4.84
-0.5
4.82
10.27
14.84
17.96
19.53
19.92
19.67
19.32
19.21
19.51
20.26
21.47
23.06
24.91
26.72
28.02
28.29
27.16
24.52
20.64
16.11
11.52
7.21
3.05
-1.56
-7.47
-15.43
-25.68
-37.76
-50.47
-62.11
-70.84
-75.09
-73.96
-67.41
-56.31
-42.21
-26.96
-12.33
0.29
10.08
16.73
20.41
21.57
20.86
18.88
16.18
13.15
10.01
6.95
4.15
1.88
0.48
0.23
1.26
3.57
7.0
11.41
16.6
22.28
27.94
32.81
35.99
36.71
34.69
30.32
24.61
18.85
14.11
10.72
8.15
5.28
0.76
-6.43
-16.77
-30.13
-45.93
-63.25
-80.88
-97.46
-111.59
-122.08
-128.19
-129.74
-127.02
-120.58
-111.01
-98.88
-84.71
-69.12
-52.82
-36.54
-20.95
-6.58
6.12
16.8
25.2
31.25
35.26
37.83
39.66
41.27
42.71
43.72
43.95
43.36
42.2
40.87
39.52
37.81
35.06
30.63
24.33
16.68
8.72
1.65
-3.6
-6.56
-7.21
-5.9
-3.38
-0.76
0.64
-0.42
-4.54
-11.37
-19.63
-27.56
-33.57
-36.83
-37.41
-36.04
-33.6
-30.75
-27.77
-24.64
-21.36
-18.06
-15.07
-12.7
-11.0
-9.69
-8.16
-5.81
-2.24
2.49
7.89
13.24
17.93
21.65
24.49
26.84
29.05
31.4
33.95
36.67
39.51
42.39
45.19
47.7
49.6
50.48
49.97
47.89
44.38
39.86
34.99
30.38
26.38
22.99
20.0
17.18
14.57
12.4
10.87
9.9
8.94
7.26
4.28
-0.04
-5.07
-9.89
-13.69
-16.17
-17.65
-18.88
-20.69
-23.66
-27.98
-33.45
-39.69
-46.23
-52.6
-58.24
-62.53
-64.71
-64.11
-60.36
-53.6
-44.62
-34.65
-25.13
-17.33
-12.04
-9.44
-9.08
-9.98
-10.76
-10.05
-6.78
-0.6
7.99
17.69
26.73
33.38
36.4
35.46
31.25
25.35
19.74
16.32
16.33
20.05
26.83
35.35
44.12
51.83
57.6
60.98
61.89
60.54
57.48
53.48
49.34
45.67
42.58
39.62
35.96
30.8
23.84
15.48
6.8
-0.81
-6.15
-8.63
-8.42
-6.26
-3.2
-0.26
1.8
2.57
1.96
0.18
-2.43
-5.51
-8.77
-12.05
-15.23
-18.19
-20.75
-22.7
-23.92
-24.41
-24.32
-23.74
-22.6
-20.67
-17.62
-13.39
-8.21
-2.64
2.7
7.36
11.27
14.61
17.71
20.87
24.19
27.6
30.82
33.42
34.87
34.66
32.49
28.48
23.2
17.51
12.42
8.76
7.02
7.26
9.06
11.61
13.89
15.01
14.47
12.44
9.64
7.01
5.29
4.63
4.68
4.78
4.32
2.91
0.39
-3.32
-8.24
-14.34
-21.4
-28.86
-35.95
-41.83
-45.83
-47.61
-47.27
-45.27
-42.23
-38.78
-35.34
-32.01
-28.63
-25.01
-21.06
-16.85
-12.57
-8.29
-4.02
0.39
4.9
9.23
12.82
14.96
15.12
13.14
9.33
4.34
-1.01
-5.91
-9.73
-12.07
-12.75
-11.83
-9.6
-6.46
-2.97
0.31
2.88
4.42
4.89
4.52
3.72
2.96
2.66
3.07
4.4
6.75
10.23
14.8
20.12
25.44
29.59
31.28
29.5
24.07
15.87
6.72
-1.09
-5.54
-5.52
-1.18
6.07
14.03
20.34
23.24
21.99
17.05
9.69
1.45
-6.23
-12.27
-15.86
-16.38
-13.47
-7.34
1.14
10.39
18.61
24.35
26.95
26.64
24.23
20.61
16.45
12.14
7.98
4.33
1.7
0.51
1.01
3.12
6.51
10.67
15.08
19.39
23.34
26.8
29.56
31.29
31.57
30.09
26.82
22.1
16.56
10.92
5.79
1.61
-1.31
-2.72
-2.44
-0.43
2.93
6.8
10.03
11.53
10.67
7.58
3.15
-1.22
-4.14
-4.65
-2.51
1.81
7.39
13.2
18.36
22.28
24.53
24.72
22.53
17.73
10.42
1.16
-8.99
-18.76
-26.99
-32.99
-36.67
-38.43
-38.87
-38.58
-37.93
-37.12
-36.32
-35.67
-35.3
-35.26
-35.36
-35.32
-34.78
-33.47
-31.4
-28.86
-26.42
-24.72
-24.3
-25.37
-27.65
-30.52
-33.25
-35.31
-36.51
-37.05
-37.36
-37.88
-38.89
-40.49
-42.64
-45.16
-47.68
-49.68
-50.53
-49.73
-47.16
-43.08
-38.05
-32.79
-27.94
-24.02
-21.4
-20.23
-20.27
-20.93
-21.35
-20.79
-18.89
-15.88
-12.38
-9.02
-6.16
-3.78
-1.73
-0.12
0.6
-0.18
-2.79
-6.85
-11.24
-14.51
-15.49
-13.78
-9.75
-4.32
1.66
7.75
13.99
20.62
27.74
34.96
41.47
46.4
49.19
49.9
49.16
47.89
46.9
46.72
47.49
49.12
51.37
53.93
56.33
57.99
58.23
56.57
52.94
47.82
42.12
36.76
32.41
29.21
26.78
24.51
21.79
18.27
13.87
8.74
3.17
-2.59
-8.33
-13.93
-19.3
-24.46
-29.46
-34.34
-39.03
-43.2
-46.36
-47.93
-47.42
-44.62
-39.53
-32.42
-23.67
-13.82
-3.54
6.27
14.62
20.61
23.57
23.32
20.24
15.18
9.32
3.99
0.38
-0.69
1.09
5.36
11.18
17.25
22.21
25.08
25.41
23.32
19.38
14.4
9.15
4.35
0.51
-2.03
-3.13
-2.9
-1.71
-0.12
1.32
2.23
2.5
2.23
1.59
0.78
-0.06
-0.73
-1.1
-1.22
-1.49
-2.64
-5.4
-10.09
-16.38
-23.28
-29.42
-33.5
-34.49
-31.79
-25.25
-15.25
-2.8
10.46
22.51
31.44
35.96
35.75
31.59
25.08
18.34
13.5
12.24
15.32
22.27
31.46
40.6
47.6
51.22
51.38
48.91
44.92
40.34
35.68
31.16
26.89
23.06
19.69
16.58
13.14
8.61
2.27
-6.21
-16.69
-28.56
-40.92
-52.78
-63.2
-71.45
-77.18
-80.47
-81.82
-81.96
-81.66
-81.41
-81.32
-81.12
-80.29
-78.25
-74.48
-68.61
-60.5
-50.22
-38.15
-25.0
-11.81
0.17
9.61
15.39
16.86
14.07
7.87
-0.29
-8.64
-15.61
-20.03
-21.38
-19.74
-15.75
-10.49
-5.4
-2.06
-1.86
-5.64
-13.31
-23.78
-35.17
-45.19
-51.73
-53.38
-49.8
-41.69
-30.76
-19.2
-9.29
-2.72
-0.31
-1.8
-6.0
-11.33
-16.28
-19.84
-21.72
-22.15
-21.7
-20.97
-20.48
-20.46
-20.93
-21.6
-21.9
-21.0
-18.02
-12.37
-3.93
6.71
18.39
29.72
39.5
47.13
52.62
56.56
59.75
62.91
66.51
70.78
75.85
81.77
88.48
95.67
102.75
108.92
113.53
116.27
117.38
117.45
117.08
116.55
115.68
114.0
111.1
106.84
101.35
94.92
87.62
79.23
69.25
57.15
42.65
25.83
7.17
-12.58
-32.4
-51.0
-66.79
-78.13
-83.76
-83.35
-77.75
-68.82
-58.78
-49.51
-41.99
-36.23
-31.63
-27.45
-23.28
-19.01
-14.81
-10.84
-7.17
-3.83
-0.93
1.31
2.67
3.0
2.43
1.22
-0.22
-1.51
-2.32
-2.52
-2.08
-1.05
0.5
2.48
4.74
6.92
8.5
8.89
7.65
4.71
0.49
-4.27
-8.66
-11.98
-13.96
-14.77
-15.01
-15.41
-16.65
-19.12
-22.77
-27.08
-31.19
-34.07
-34.86
-33.11
-28.99
-23.16
-16.6
-10.22
-4.64
-0.04
3.83
7.43
11.28
15.67
20.65
26.03
31.59
37.26
43.06
49.08
55.22
61.1
66.1
69.51
70.74
69.45
65.64
59.64
52.08
43.79
35.7
28.54
22.72
18.11
14.15
10.12
5.37
-0.38
-7.13
-14.68
-22.91
-31.81
-41.48
-51.82
-62.5
-72.81
-81.91
-89.13
-94.24
-97.52
-99.65
-101.38
-103.28
-105.59
-108.3
-111.23
-114.12
-116.49
-117.59
-116.39
-111.84
-103.16
-90.11
-73.09
-52.91
-30.66
-7.5
15.43
37.05
56.39
72.81
86.08
96.34
103.95
109.32
112.85
114.84
115.56
115.14
113.48
110.08
104.13
94.81
81.74
65.39
47.13
28.85
12.44
-0.9
-10.94
-18.29
-24.04
-29.31
-34.83
-40.87
-47.31
-53.78
-59.82
-64.96
-68.76
-70.94
-71.54
-70.93
-69.74
-68.67
-68.14
-68.15
-68.34
-68.08
-66.63
-63.27
-57.32
-48.37
-36.5
-22.46
-7.58
6.72
19.46
30.54
40.57
50.27
59.77
68.25
74.28
76.57
74.82
69.97
63.85
58.32
54.58
52.82
52.41
52.37
51.89
50.61
48.66
46.58
45.03
44.58
45.45
47.43
49.99
52.47
54.29
55.08
54.66
52.89
49.66
44.95
38.99
32.25
25.33
18.6
11.89
4.54
-4.38
-15.44
-28.37
-41.92
-54.11
-62.87
-66.8
-65.63
-60.34
-52.68
-44.57
-37.55
-32.39
-29.2
-27.7
-27.43
-27.93
-28.71
-29.3
-29.32
-28.63
-27.35
-25.78
-24.15
-22.43
-20.25
-17.15
-12.79
-7.25
-0.93
5.51
11.47
16.46
20.21
22.58
23.61
23.48
22.6
21.48
20.64
20.31
20.34
20.19
19.01
16.03
10.77
3.28
-5.79
-15.41
-24.48
-32.21
-38.34
-43.17
-47.31
-51.34
-55.48
-59.53
-62.97
-65.27
-66.03
-65.09
-62.51
-58.43
-53.08
-46.73
-39.73
-32.53
-25.62
-19.42
-14.21
-10.03
-6.71
-3.83
-0.96
2.29
6.09
10.31
14.69
18.97
23.04
27.06
31.28
35.92
40.96
46.13
51.02
55.27
58.61
60.92
62.28
62.83
62.79
62.41
61.87
61.23
60.3
58.71
55.97
51.64
45.45
37.43
27.82
17.06
5.56
-6.35
-18.6
-31.31
-44.8
-59.33
-74.97
-91.41
-107.87
-123.04
-135.2
-142.47
-143.3
-137.05
-124.25
-106.68
-86.86
-67.32
-49.96
-35.76
-24.9
-17.09
-11.92
-8.89
-7.3
-6.16
-4.3
-0.75
4.91
12.4
20.88
29.38
37.14
43.75
49.13
53.32
56.38
58.35
59.42
59.92
60.27
60.82
61.78
63.09
64.64
66.31
68.03
69.73
71.15
71.94
71.7
70.22
67.57
64.12
60.38
56.86
53.96
51.93
50.92
51.09
52.46
54.97
58.3
61.95
65.19
67.13
66.89
63.82
57.73
49.01
38.58
27.57
16.93
7.23
-1.32
-8.69
-14.79
-19.39
-22.26
-23.4
-23.22
-22.36
-21.52
-21.14
-21.35
-22.11
-23.37
-25.19
-27.64
-30.72
-34.27
-37.99
-41.56
-44.71
-47.24
-48.97
-49.73
-49.33
-47.68
-44.86
-41.16
-37.07
-33.13
-29.84
-27.41
-25.71
-24.19
-21.98
-18.21
-12.38
-4.62
4.22
12.81
19.8
24.23
25.7
24.41
21.02
16.38
11.41
6.98
3.85
2.57
3.29
5.77
9.27
12.95
16.11
18.46
20.2
21.77
23.54
25.52
27.3
28.22
27.71
25.56
22.02
17.64
12.95
8.24
3.47
-1.6
-7.17
-13.3
-19.68
-25.86
-31.35
-35.79
-39.05
-41.21
-42.47
-43.09
-43.32
-43.41
-43.51
-43.66
-43.67
-43.21
-41.82
-39.17
-35.09
-29.66
-23.2
-16.14
-8.94
-2.03
4.3
9.85
14.47
17.97
20.16
20.86
20.04
17.92
14.92
11.53
8.15
4.96
2.06
-0.48
-2.5
-3.79
-4.25
-3.99
-3.34
-2.7
-2.41
-2.6
-3.33
-4.58
-6.31
-8.44
-10.71
-12.69
-13.87
-13.92
-12.84
-11.06
-9.35
-8.61
-9.59
-12.55
-17.2
-22.62
-27.52
-30.67
-31.24
-29.08
-24.6
-18.55
-11.67
-4.56
2.39
8.86
14.57
19.32
23.02
25.74
27.69
29.02
29.76
29.84
29.12
27.56
25.21
22.21
18.68
14.68
10.23
5.44
0.64
-3.63
-6.69
-7.99
-7.41
-5.39
-2.89
-0.96
-0.37
-1.28
-3.31
-5.87
-8.51
-11.16
-13.93
-16.96
-20.14
-23.16
-25.72
-27.71
-29.15
-30.08
-30.36
-29.7
-27.97
-25.5
-23.03
-21.37
-20.84
-20.82
-20.07
-17.28
-11.8
-4.11
4.39
11.98
17.33
19.91
20.02
18.4
15.84
12.89
9.89
7.11
4.88
3.62
3.59
4.69
6.31
7.35
6.53
2.74
-4.58
-15.25
-28.37
-42.56
-56.24
-68.01
-76.86
-82.37
-84.72
-84.61
-82.94
-80.54
-77.89
-75.06
-71.89
-68.14
-63.62
-58.24
-51.8
-44.04
-34.72
-23.76
-11.52
1.24
13.57
24.59
33.84
41.31
47.35
52.47
57.15
61.79
66.61
71.66
76.83
81.75
86.03
89.23
91.2
92.06
92.2
92.06
91.95
91.85
91.45
90.25
87.82
83.84
78.28
71.22
62.74
52.9
41.68
29.22
16.03
3.0
-8.75
-18.15
-24.68
-28.47
-30.23
-30.92
-31.4
-32.18
-33.42
-35.0
-36.63
-37.85
-38.04
-36.49
-32.63
-26.25
-17.7
-7.84
2.23
11.54
19.57
26.38
32.51
38.64
45.2
52.07
58.63
64.09
67.9
70.09
71.23
72.1
73.17
74.42
75.35
75.3
73.72
70.29
64.69
56.41
44.8
29.26
9.64
-13.46
-38.62
-64.0
-87.82
-108.86
-126.74
-141.75
-154.47
-165.22
-173.78
-179.36
-181.13
-178.72
-172.65
-164.28
-155.36
-147.39
-141.19
-136.81
-133.71
-131.09
-128.05
-123.64
-116.83
-106.61
-92.31
-73.81
-51.85
-27.78
-3.32
19.9
40.71
58.48
73.02
84.37
92.72
98.28
101.3
102.02
100.72
97.61
92.91
87.0
80.34
73.53
67.08
61.24
55.9
50.69
45.2
39.11
32.37
25.02
17.17
8.79
-0.14
-9.63
-19.54
-29.5
-39.1
-47.94
-55.85
-62.92
-69.43
-75.73
-82.11
-88.65
-95.14
-101.12
-105.9
-108.76
-109.03
-106.25
-100.23
-91.09
-79.36
-65.88
-51.63
-37.4
-23.36
-9.01
6.6
24.21
43.79
64.3
83.92
100.91
114.27
124.09
131.26
136.84
141.53
145.46
148.42
150.31
151.41
152.24
153.27
154.51
155.36
154.79
151.68
145.26
135.42
122.74
108.28
93.25
78.68
65.17
52.97
42.06
32.35
23.72
15.94
8.66
1.54
-5.53
-12.28
-18.02
-21.88
-23.2
-21.8
-18.12
-13.1
-7.83
-3.26
0.1
2.2
3.46
4.44
5.59
7.07
8.67
9.96
10.57
10.39
9.66
8.82
8.37
8.69
9.88
11.87
14.38
17.0
19.29
20.86
21.47
21.12
19.98
18.38
16.53
14.42
11.78
8.26
3.64
-1.98
-8.17
-14.36
-20.1
-25.26
-30.01
-34.65
-39.3
-43.71
-47.36
-49.65
-50.22
-49.2
-47.12
-44.74
-42.7
-41.19
-40.0
-38.54
-36.22
-32.71
-28.13
-22.96
-17.83
-13.23
-9.37
-6.25
-3.76
-1.84
-0.5
0.28
0.64
0.92
1.56
3.03
5.66
9.55
14.55
20.35
26.42
32.25
37.33
41.32
44.02
45.41
45.62
44.89
43.59
42.11
40.83
39.99
39.61
39.42
38.96
37.67
35.09
30.98
25.38
18.6
11.17
3.72
-3.11
-8.74
-12.75
-14.96
-15.48
-14.67
-13.04
-11.17
-9.55
-8.48
-8.09
-8.32
-9.01
-10.0
-11.16
-12.42
-13.73
-15.12
-16.58
-18.07
-19.46
-20.65
-21.54
-22.09
-22.31
-22.04
-20.99
-18.7
-14.81
-9.32
-2.84
3.54
8.51
10.99
10.52
7.25
1.89
-4.7
-11.7
-18.5
-24.77
-30.27
-34.89
-38.58
-41.29
-42.87
-43.12
-41.76
-38.59
-33.7
-27.55
-20.9
-14.59
-9.33
-5.54
-3.36
-2.79
-3.81
-6.59
-11.34
-18.3
-27.42
-38.28
-50.01
-61.45
-71.33
-78.47
-82.0
-81.39
-76.62
-68.13
-56.91
-44.36
-32.14
-21.84
-14.66
-11.22
-11.4
-14.56
-19.59
-25.16
-29.82
-32.26
-31.63
-27.82
-21.66
-14.78
-9.17
-6.53
-7.76
-12.75
-20.53
-29.76
-39.19
-47.76
-54.58
-58.68
-59.01
-54.55
-44.83
-30.31
-12.44
6.6
24.6
39.97
52.1
61.29
68.31
73.79
77.99
80.73
81.66
80.53
77.3
72.09
65.11
56.61
46.97
36.87
27.17
18.8
12.43
8.22
5.89
4.96
4.97
5.77
7.45
10.2
14.01
18.65
23.51
27.85
31.06
32.76
32.96
31.92
29.94
27.19
23.78
19.87
15.91
12.66
11.0
11.5
14.14
18.28
22.95
27.3
30.99
34.13
37.11
40.22
43.47
46.47
48.63
49.3
48.01
44.57
39.13
32.12
24.15
15.82
7.57
-0.44
-8.34
-16.46
-25.22
-34.87
-45.33
-56.13
-66.37
-74.98
-81.0
-83.99
-84.14
-82.14
-78.91
-75.14
-71.13
-66.76
-61.77
-56.04
-49.73
-43.26
-37.11
-31.61
-26.81
-22.5
-18.41
-14.32
-10.18
-6.03
-1.92
2.25
6.64
11.53
17.15
23.62
30.94
38.88
47.07
54.94
61.84
67.11
70.21
70.87
69.12
65.24
59.62
52.7
44.75
35.97
26.55
16.76
7.0
-2.23
-10.47
-17.36
-22.74
-26.69
-29.46
-31.35
-32.59
-33.19
-32.97
-31.64
-29.01
-25.19
-20.58
-15.87
-11.8
-9.07
-8.2
-9.45
-12.68
-17.18
-21.78
-24.97
-25.42
-22.43
-16.3
-8.27
-0.04
6.84
11.55
14.19
15.62
17.02
19.35
23.08
28.04
33.59
38.91
43.26
46.14
47.29
46.57
43.94
39.48
33.43
26.33
18.96
12.2
6.74
2.9
0.59
-0.7
-1.6
-2.68
-4.16
-5.87
-7.25
-7.61
-6.38
-3.41
0.94
5.95
10.78
14.76
17.6
19.42
20.65
21.83
23.45
25.93
29.51
34.2
39.75
45.61
50.95
54.88
56.68
56.08
53.44
49.67
46.03
43.76
43.79
46.59
52.11
59.86
69.01
78.43
86.77
92.46
93.81
89.28
77.73
58.78
32.97
1.98
-31.65
-64.82
-94.55
-118.69
-136.34
-147.84
-154.35
-157.2
-157.28
-154.93
-150.07
-142.67
-132.96
-121.5
-108.82
-95.22
-80.7
-65.22
-49.06
-32.96
-17.88
-4.54
6.94
17.06
26.66
36.32
46.02
54.99
62.05
66.01
66.07
61.91
53.72
42.01
27.46
10.97
-6.42
-23.48
-38.96
-51.65
-60.68
-65.69
-66.94
-65.3
-62.01
-58.33
-55.16
-52.88
-51.39
-50.24
-48.94
-47.16
-44.75
-41.7
-38.06
-33.92
-29.31
-24.24
-18.64
-12.42
-5.49
2.17
10.54
19.51
28.99
38.94
49.34
60.12
71.08
81.95
92.4
102.26
111.4
119.61
126.4
130.83
131.65
127.69
118.36
104.12
86.48
67.63
49.76
34.47
22.26
12.68
4.65
-2.94
-10.81
-19.1
-27.41
-35.11
-41.57
-46.41
-49.49
-50.93
-51.01
-50.15
-48.93
-48.01
-48.15
-49.99
-53.99
-60.22
-68.35
-77.62
-87.0
-95.31
-101.34
-104.07
-102.84
-97.58
-88.85
-77.7
-65.38
-52.94
-40.95
-29.6
-18.85
-8.78
0.33
8.08
14.19
18.78
22.4
25.8
29.57
33.8
38.02
41.34
42.82
41.8
38.05
31.88
23.96
15.21
6.48
-1.51
-8.41
-14.07
-18.45
-21.44
-22.81
-22.33
-20.04
-16.46
-12.57
-9.59
-8.4
-9.26
-11.72
-14.98
-18.31
-21.41
-24.34
-27.25
-30.09
-32.54
-34.24
-35.05
-35.24
-35.38
-36.05
-37.63
-40.13
-43.29
-46.6
-49.47
-51.27
-51.49
-49.86
-46.53
-41.98
-36.91
-32.0
-27.62
-23.81
-20.3
-16.69
-12.61
-7.86
-2.47
3.41
9.49
15.48
21.15
26.34
30.89
34.55
36.94
37.61
36.17
32.52
26.92
19.81
11.65
2.62
-7.38
-18.6
-31.11
-44.51
-57.87
-69.9
-79.29
-85.06
-86.79
-84.6
-78.93
-70.37
-59.49
-46.86
-33.12
-18.99
-5.27
7.39
18.6
28.29
36.62
43.8
49.9
54.74
57.95
59.16
58.17
55.06
50.22
44.23
37.78
31.48
25.87
21.4
18.44
17.21
17.73
19.86
23.24
27.47
32.29
37.68
43.89
51.28
60.12
70.46
82.08
94.52
107.24
119.65
131.05
140.59
147.25
150.01
148.05
141.01
129.07
112.86
93.24
71.02
46.94
21.68
-3.94
-28.87
-51.92
-71.86
-87.62
-98.36
-103.43
-102.34
-94.93
-81.62
-63.85
-44.13
-25.66
-11.51
-3.62
-2.29
-6.26
-13.33
-21.23
-28.32
-33.77
-37.32
-38.99
-38.87
-37.09
-34.06
-30.52
-27.44
-25.68
-25.67
-27.22
-29.62
-31.9
-33.23
-33.14
-31.59
-28.84
-25.17
-20.79
-15.75
-10.15
-4.26
1.29
5.71
8.16
8.11
5.49
0.69
-5.71
-13.14
-21.25
-29.83
-38.67
-47.26
-54.84
-60.51
-63.58
-63.86
-61.73
-58.0
-53.59
-49.25
-45.39
-42.08
-39.19
-36.4
-33.31
-29.4
-24.18
-17.22
-8.27
2.74
15.78
30.74
47.41
65.29
83.48
100.7
115.48
126.56
133.17
135.21
133.11
127.61
119.55
109.85
99.48
89.49
80.91
74.44
70.13
67.23
64.34
59.94
52.91
42.87
30.18
15.55
-0.26
-16.67
-33.06
-48.55
-61.8
-71.3
-75.94
-75.51
-70.99
-64.13
-56.74
-50.02
-44.18
-38.75
-33.07
-26.89
-20.62
-15.11
-11.18
-9.21
-8.96
-9.74
-10.83
-11.76
-12.42
-12.81
-12.68
-11.48
-8.43
-2.93
5.12
15.29
26.87
39.15
51.71
64.29
76.61
88.07
97.72
104.61
108.09
108.22
105.88
102.53
99.73
98.62
99.57
102.1
105.09
107.13
106.9
103.39
95.94
84.24
68.32
48.73
26.65
3.81
-17.78
-36.32
-50.7
-60.71
-66.98
-70.57
-72.56
-73.71
-74.31
-74.3
-73.55
-72.04
-70.02
-67.94
-66.28
-65.33
-65.1
-65.38
-65.75
-65.79
-64.99
-62.83
-58.74
-52.3
-43.39
-32.36
-19.9
-6.9
5.76
17.37
27.36
35.16
40.26
42.29
41.3
37.92
33.27
28.58
24.71
21.87
19.68
17.48
14.76
11.42
7.69
4.0
0.64
-2.27
-4.78
-6.95
-8.74
-9.97
-10.38
-9.75
-7.96
-5.04
-1.18
3.22
7.68
11.63
14.58
16.25
16.64
16.03
14.92
13.97
13.84
15.09
17.98
22.33
27.52
32.55
36.46
38.58
38.73
37.25
34.77
32.04
29.66
28.07
27.43
27.77
28.85
30.33
31.8
32.97
33.77
34.42
35.31
36.83
39.2
42.29
45.63
48.52
50.08
49.52
46.35
40.56
32.72
23.91
15.29
7.86
2.14
-1.9
-4.79
-7.37
-10.65
-15.45
-22.16
-30.51
-39.5
-47.75
-53.91
-57.19
-57.59
-55.76
-52.61
-48.9
-45.02
-41.05
-37.04
-33.13
-29.56
-26.54
-24.12
-22.14
-20.39
-18.67
-16.88
-15.03
-13.16
-11.27
-9.27
-6.95
-3.91
0.32
6.06
13.26
21.32
29.27
36.08
41.05
44.09
45.6
46.27
46.73
47.35
48.12
48.65
48.2
45.74
40.16
30.53
16.62
-0.88
-20.33
-39.53
-56.35
-69.4
-78.36
-83.92
-87.32
-89.82
-92.23
-94.78
-97.26
-99.32
-100.74
-101.52
-101.77
-101.52
-100.6
-98.66
-95.44
-90.99
-85.79
-80.71
-76.61
-73.98
-72.67
-71.97
-70.9
-68.58
-64.6
-58.95
-51.93
-43.84
-34.84
-24.99
-14.46
-3.67
6.61
15.55
22.56
27.54
30.93
33.36
35.35
36.92
37.57
36.59
33.36
27.8
20.39
12.08
3.85
-3.56
-9.66
-14.22
-17.04
-17.93
-16.81
-13.84
-9.48
-4.28
1.28
7.0
12.9
18.91
24.69
29.62
33.06
34.82
35.34
35.48
36.18
37.9
40.58
43.86
47.48
51.52
56.31
62.14
68.87
75.87
82.13
86.58
88.29
86.47
80.47
69.69
53.85
33.33
9.6
-14.81
-36.84
-53.85
-64.56
-69.39
-70.12
-68.86
-67.11
-65.2
-62.61
-58.65
-53.16
-46.74
-40.33
-34.65
-29.75
-25.16
-20.33
-15.12
-10.06
-6.07
-4.09
-4.53
-7.12
-11.1
-15.6
-19.97
-23.9
-27.36
-30.37
-32.83
-34.49
-35.02
-34.22
-32.12
-28.98
-25.3
-21.71
-18.8
-17.03
-16.53
-16.98
-17.68
-17.63
-15.82
-11.55
-4.64
4.45
14.79
25.2
34.65
42.48
48.49
52.81
55.69
57.32
57.76
56.96
54.81
51.13
45.74
38.5
29.53
19.4
9.2
0.41
-5.53
-7.74
-6.28
-2.15
3.06
7.65
10.36
10.6
8.32
3.97
-1.88
-8.65
-15.8
-22.9
-29.57
-35.47
-40.26
-43.68
-45.59
-45.98
-45.06
-43.13
-40.48
-37.36
-33.87
-30.1
-26.16
-22.18
-18.26
-14.39
-10.46
-6.31
-1.85
2.8
7.37
11.52
15.02
17.7
19.44
20.01
19.07
16.3
11.65
5.54
-1.18
-7.49
-12.62
-16.36
-19.03
-21.2
-23.24
-25.01
-25.81
-24.65
-20.79
-14.1
-5.18
4.9
14.97
24.15
31.89
37.82
41.55
42.47
40.01
33.89
24.46
12.74
0.19
-11.78
-22.06
-30.0
-35.17
-37.2
-35.67
-30.39
-21.65
-10.43
1.75
13.3
23.02
30.42
35.74
39.7
42.94
45.88
48.46
50.39
51.28
50.91
49.21
46.32
42.44
37.8
32.55
26.81
20.64
14.04
7.05
-0.24
-7.58
-14.56
-20.62
-25.18
-27.81
-28.29
-26.75
-23.52
-19.06
-13.81
-8.19
-2.55
2.79
7.48
11.17
13.46
14.04
12.68
9.57
5.39
1.33
-1.11
-0.68
3.16
9.82
17.78
24.99
29.67
30.8
28.34
23.0
15.73
7.4
-1.35
-9.93
-17.6
-23.38
-26.26
-25.63
-21.63
-15.28
-8.17
-2.15
1.24
1.08
-2.86
-10.01
-19.2
-28.79
-36.98
-42.18
-43.34
-40.19
-33.27
-23.65
-12.53
-0.97
10.3
20.88
30.5
39.03
46.34
52.34
56.99
60.34
62.48
63.48
63.26
61.51
57.84
51.98
44.05
34.71
25.06
16.33
9.47
4.91
2.4
1.21
0.38
-0.92
-3.18
-6.47
-10.44
-14.46
-17.75
-19.61
-19.45
-16.89
-11.87
-4.65
4.02
12.93
20.65
25.8
27.58
25.95
21.6
15.68
9.49
4.19
0.78
0.01
2.36
7.81
15.73
24.94
34.01
41.7
47.28
50.68
52.19
52.14
50.58
47.24
41.71
33.71
23.29
10.9
-2.69
-16.48
-29.41
-40.5
-49.0
-54.53
-57.08
-56.92
-54.42
-49.9
-43.61
-35.87
-27.23
-18.49
-10.56
-4.18
0.23
2.62
3.1
1.86
-0.93
-5.08
-10.21
-15.8
-21.27
-26.21
-30.56
-34.59
-38.69
-43.03
-47.36
-50.91
-52.67
-51.65
-47.33
-39.88
-30.27
-19.94
-10.47
-3.05
1.85
4.44
5.45
5.67
5.62
5.37
4.75
3.56
1.8
-0.31
-2.52
-4.73
-7.17
-10.15
-13.88
-18.21
-22.62
-26.37
-28.72
-29.25
-27.89
-25.0
-21.27
-17.55
-14.66
-13.16
-13.24
-14.67
-16.95
-19.55
-22.02
-24.06
-25.48
-26.16
-26.09
-25.53
-25.0
-25.17
-26.56
-29.21
-32.5
-35.33
-36.48
-35.08
-31.0
-24.91
-17.95
-11.37
-6.02
-2.31
-0.16
0.63
0.22
-1.39
-4.26
-8.26
-12.88
-17.3
-20.57
-21.99
-21.32
-18.84
-15.13
-10.88
-6.56
-2.42
1.52
5.36
9.15
12.91
16.66
20.49
24.57
29.03
33.78
38.41
42.27
44.65
45.01
43.06
38.86
32.64
24.83
15.96
6.75
-2.02
-9.57
-15.28
-18.86
-20.37
-20.09
-18.43
-15.78
-12.42
-8.55
-4.25
0.58
6.16
12.75
20.47
29.1
37.99
46.1
52.2
55.17
54.38
49.88
42.52
33.68
24.99
17.7
12.56
9.62
8.47
8.62
9.6
11.11
12.91
14.72
16.21
17.07
17.11
16.27
14.55
11.85
8.0
2.91
-3.28
-10.1
-16.88
-22.92
-27.71
-31.05
-32.92
-33.35
-32.36
-30.01
-26.58
-22.64
-18.98
-16.38
-15.16
-15.04
-15.09
-14.09
-11.0
-5.41
2.21
10.68
18.53
24.52
28.04
29.16
28.4
26.39
23.6
20.22
16.39
12.35
8.56
5.6
3.91
3.52
3.98
4.53
4.33
2.92
0.28
-3.14
-6.65
-9.57
-11.44
-12.14
-11.75
-10.59
-9.08
-7.66
-6.72
-6.56
-7.29
-8.86
-11.14
-13.98
-17.32
-21.07
-25.18
-29.47
-33.61
-37.16
-39.56
-40.23
-38.67
-34.66
-28.32
-20.19
-11.07
-1.79
7.0
14.97
22.07
28.42
34.05
38.91
42.76
45.36
46.54
46.32
44.93
42.67
39.85
36.68
33.28
29.77
26.36
23.32
20.87
19.07
17.76
16.64
15.42
13.88
11.89
9.25
5.62
0.67
-5.71
-13.09
-20.52
-26.72
-30.65
-31.91
-30.89
-28.66
-26.54
-25.68
-26.85
-30.25
-35.45
-41.39
-46.45
-48.82
-46.97
-40.18
-28.84
-14.39
1.15
15.7
27.75
36.59
42.33
45.62
47.33
48.26
48.92
49.36
49.3
48.28
45.98
42.36
37.7
32.45
26.97
21.52
16.32
11.64
7.87
5.35
4.17
4.04
4.3
4.12
2.83
0.13
-3.79
-8.34
-12.7
-16.11
-18.07
-18.52
-17.81
-16.61
-15.8
-16.19
-18.38
-22.47
-27.95
-33.7
-38.25
-40.09
-38.16
-32.22
-22.85
-11.27
1.1
13.07
23.87
33.03
40.32
45.55
48.66
49.8
49.39
47.99
46.12
44.03
41.69
38.82
35.21
30.82
25.83
20.6
15.48
10.74
6.59
3.13
0.36
-1.82
-3.7
-5.65
-8.09
-11.28
-15.2
-19.44
-23.3
-25.97
-26.81
-25.61
-22.79
-19.4
-16.79
-16.25
-18.56
-23.64
-30.64
-38.1
-44.44
-48.29
-48.77
-45.65
-39.27
-30.45
-20.22
-9.54
0.89
10.69
19.78
28.11
35.54
41.84
46.76
50.22
52.39
53.6
54.2
54.32
53.86
52.61
50.45
47.45
43.95
40.29
36.67
33.0
28.89
23.85
17.5
9.78
1.0
-8.32
-17.6
-26.51
-35.05
-43.46
-51.92
-60.39
-68.52
-75.85
-82.07
-87.2
-91.62
-95.83
-100.13
-104.49
-108.47
-111.28
-112.02
-109.86
-104.23
-95.02
-82.6
-67.76
-51.45
-34.56
-17.71
-1.28
14.52
29.44
43.16
55.28
65.51
73.78
80.22
85.2
89.1
92.22
94.72
96.55
97.59
97.79
97.34
96.63
96.13
96.08
96.24
95.83
93.73
88.9
80.74
69.3
55.2
39.43
23.05
6.94
-8.34
-22.6
-35.91
-48.6
-61.02
-73.4
-85.63
-97.14
-106.97
-114.0
-117.24
-116.11
-110.51
-100.82
-87.79
-72.39
-55.71
-38.85
-22.84
-8.59
3.09
11.63
16.74
18.52
17.55
14.8
11.45
8.66
7.32
7.84
10.2
14.12
19.31
25.58
32.75
40.51
48.22
54.94
59.62
61.42
59.96
55.48
48.71
40.62
32.11
23.67
15.34
6.8
-2.35
-12.38
-23.3
-34.82
-46.53
-58.04
-69.17
-79.96
-90.67
-101.54
-112.64
-123.5
-133.01
-139.42
-140.72
-135.25
-122.31
-102.54
-77.8
-50.68
-23.76
1.04
22.68
40.93
56.02
68.33
78.22
85.98
91.77
95.66
97.62
97.51
95.2
90.66
84.12
76.11
67.49
59.2
52.15
46.86
43.47
41.6
40.58
39.59
37.93
35.15
31.07
25.81
19.64
13.01
6.42
0.39
-4.71
-8.75
-11.98
-14.97
-18.37
-22.61
-27.69
-33.09
-38.0
-41.56
-43.18
-42.62
-40.05
-35.82
-30.32
-23.83
-16.45
-8.21
0.77
10.15
19.39
27.83
34.89
40.23
43.83
45.91
46.78
46.71
45.86
44.31
42.14
39.45
36.32
32.77
28.71
24.03
18.77
13.21
7.86
3.44
0.7
0.15
1.92
5.68
10.66
15.89
20.49
23.87
25.87
26.68
26.61
25.9
24.56
22.37
19.05
14.52
8.96
2.91
-2.93
-7.86
-11.36
-13.2
-13.54
-12.87
-11.94
-11.55
-12.34
-14.64
-18.45
-23.59
-29.73
-36.55
-43.71
-50.77
-57.19
-62.42
-65.97
-67.45
-66.65
-63.38
-57.57
-49.28
-38.86
-27.07
-14.98
-3.76
5.68
12.89
17.88
20.99
22.57
22.87
22.2
20.97
19.85
19.6
20.85
23.75
27.84
32.19
35.71
37.48
36.99
34.14
29.24
22.83
15.72
8.89
3.41
0.16
-0.35
1.83
6.05
11.18
15.88
18.87
19.17
16.3
10.24
1.39
-9.6
-21.93
-34.76
-47.19
-58.42
-67.75
-74.75
-79.33
-81.71
-82.24
-81.24
-78.84
-75.0
-69.66
-62.82
-54.68
-45.52
-35.75
-25.84
-16.36
-7.94
-1.19
3.48
6.04
6.97
7.08
7.22
7.97
9.43
11.25
12.87
13.76
13.7
12.77
11.31
9.79
8.71
8.58
9.91
13.12
18.39
25.48
33.69
41.88
48.89
53.84
56.41
56.92
56.03
54.38
52.27
49.6
45.96
41.0
34.65
27.28
19.55
12.26
6.08
1.43
-1.62
-3.31
-4.12
-4.58
-5.11
-5.91
-6.93
-7.92
-8.57
-8.59
-7.71
-5.77
-2.79
1.01
5.08
8.6
10.6
10.25
7.1
1.34
-6.12
-13.83
-20.13
-23.64
-23.55
-19.83
-13.09
-4.23
5.82
16.3
26.54
35.86
43.51
48.92
51.9
52.72
51.95
50.2
47.9
45.13
41.69
37.24
31.47
24.24
15.58
5.64
-5.26
-16.62
-27.99
-39.09
-49.87
-60.33
-70.41
-79.9
-88.57
-96.3
-102.83
-108.23
-112.95
-117.65
-122.93
-129.05
-136.03
-143.61
-151.21
-157.07
-159.2
-156.01
-146.77
-131.7
-111.88
-89.09
-65.52
-43.39
-23.22
-4.77
12.29
28.06
42.69
56.36
69.23
81.45
93.43
107.4
125.45
148.06
173.37
197.93
218.27
232.21
239.45
232.58
208.65
171.38
129.76
92.01
61.62
38.19
19.72
4.07
-10.35
-22.92
-32.5
-38.47
-41.21
-41.87
-41.58
-41.33
-41.85
-43.52
-45.18
-45.67
-44.64
-42.62
-40.47
-38.62
-37.29
-36.56
-36.55
-36.74
-36.85
-37.05
-37.89
-39.4
-40.48
-39.23
-33.7
-23.21
-8.56
7.77
22.54
33.21
39.13
41.47
42.16
42.55
42.62
41.34
37.56
31.12
22.32
12.5
3.2
-4.63
-10.84
-16.08
-21.4
-27.71
-35.34
-43.82
-51.65
-56.86
-57.38
-51.92
-40.37
-24.12
-5.68
11.79
25.33
33.09
34.79
31.94
26.91
22.08
18.87
17.42
16.7
15.34
12.34
7.52
1.7
-4.24
-9.69
-14.61
-19.2
-23.68
-27.7
-30.27
-30.19
-26.32
-18.81
-9.31
-0.42
5.19
5.89
1.6
-6.24
-17.8
-31.46
-45.57
-58.6
-68.91
-74.63
-73.86
-65.22
-48.62
-25.55
1.58
29.56
55.44
77.15
93.79
105.32
112.27
115.24
114.71
111.39
105.76
98.4
90.0
81.36
73.24
66.15
60.23
55.19
50.55
45.42
38.68
28.99
15.04
-4.26
-29.24
-58.98
-90.91
-120.91
-144.33
-157.3
-157.93
-147.0
-127.58
-103.81
-79.48
-56.98
-37.04
-19.39
-3.53
10.63
22.84
32.81
40.72
47.23
53.18
59.05
64.6
68.91
70.76
69.25
64.28
56.71
48.16
40.46
34.96
31.92
30.22
27.48
20.64
6.93
-15.15
-45.06
-79.82
-114.43
-142.83
-159.51
-161.28
-148.4
-124.67
-96.19
-69.26
-48.29
-34.6
-26.56
-20.9
-14.44
-5.33
6.51
19.95
33.41
45.67
56.09
64.52
71.04
75.75
78.71
80.16
80.48
80.16
79.41
77.8
74.06
66.45
53.47
34.84
12.03
-11.8
-32.67
-46.95
-52.54
-49.41
-39.42
-25.54
-10.8
2.59
13.66
22.58
30.04
36.57
41.97
45.37
45.69
42.43
36.27
29.03
23.08
20.34
21.6
26.47
33.86
42.69
52.17
61.5
69.18
72.65
68.68
54.64
30.1
-2.27
-36.97
-67.27
-87.29
-93.9
-87.34
-70.83
-49.07
-26.71
-7.1
8.17
19.03
26.31
31.01
33.94
35.59
36.04
35.11
32.35
27.28
19.69
10.07
-0.17
-8.79
-13.35
-12.05
-4.47
8.16
23.37
38.18
49.98
56.95
58.06
52.9
41.46
24.31
2.9
-20.17
-41.45
-57.31
-65.09
-63.87
-54.78
-40.51
-24.39
-9.28
3.05
12.04
17.97
21.41
22.87
22.7
21.07
18.17
14.2
9.43
4.18
-1.15
-6.14
-10.31
-13.33
-14.95
-15.08
-13.71
-10.79
-6.24
-0.15
6.99
14.01
19.03
19.78
14.26
1.52
-17.79
-41.14
-64.47
-82.96
-92.18
-89.53
-75.22
-52.45
-26.58
-3.37
12.94
20.9
21.92
19.19
15.95
14.08
13.66
13.46
12.03
8.65
3.74
-1.52
-5.77
-8.19
-8.7
-7.87
-6.48
-5.07
-3.67
-1.87
0.73
3.98
6.74
6.9
2.04
-9.62
-28.17
-51.52
-75.66
-95.59
-106.7
-105.96
-92.75
-68.95
-38.4
-5.86
24.22
48.76
66.54
78.02
84.65
87.92
88.78
87.32
83.2
75.93
65.35
51.77
36.0
19.32
3.41
-9.95
-19.18
-23.47
-23.15
-19.67
-15.32
-12.49
-13.04
-17.92
-27.23
-40.39
-56.31
-73.52
-90.16
-104.05
-112.99
-115.29
-110.04
-97.14
-77.04
-50.54
-18.89
15.86
50.64
81.71
105.51
119.76
124.2
120.52
111.56
100.08
87.99
76.06
64.28
52.43
40.47
28.74
17.81
8.31
0.68
-4.88
-8.6
-10.94
-12.44
-13.62
-15.02
-17.27
-21.0
-26.44
-33.03
-39.31
-43.32
-43.48
-39.44
-32.38
-24.61
-18.51
-15.52
-15.6
-17.53
-19.56
-20.29
-19.13
-16.43
-13.17
-10.52
-9.46
-10.31
-12.7
-15.8
-18.8
-21.48
-24.39
-28.52
-34.6
-42.41
-50.59
-57.07
-60.0
-58.5
-53.05
-45.2
-36.88
-29.73
-24.62
-21.52
-19.64
-17.65
-14.05
-7.61
2.04
14.13
26.79
37.74
45.19
48.58
48.73
47.34
46.1
45.92
46.7
47.68
48.03
47.37
45.83
43.8
41.42
38.37
33.88
27.14
17.63
5.5
-8.38
-22.52
-35.12
-44.51
-49.61
-50.22
-47.11
-41.72
-35.72
-30.4
-26.38
-23.57
-21.36
-18.99
-15.86
-11.63
-6.38
-0.46
5.49
10.75
14.69
16.99
17.72
17.26
16.12
14.68
13.11
11.5
9.85
8.1
6.02
3.16
-1.14
-7.43
-15.9
-26.06
-36.82
-46.73
-54.36
-58.7
-59.25
-56.1
-49.77
-41.03
-30.89
-20.44
-10.84
-3.1
2.17
5.07
6.51
7.99
11.02
16.45
24.06
32.74
41.11
48.21
53.84
58.29
61.78
64.03
64.24
61.67
56.18
48.5
39.84
31.32
23.29
15.29
6.45
-3.84
-15.42
-27.42
-38.54
-47.74
-54.57
-59.32
-62.77
-65.84
-69.1
-72.52
-75.44
-76.63
-74.68
-68.37
-57.18
-41.58
-23.08
-3.91
13.68
28.12
38.93
46.68
52.4
56.93
60.44
62.56
62.82
61.17
58.11
54.34
50.24
45.41
38.81
29.21
15.87
-1.14
-20.89
-41.89
-62.43
-80.92
-96.17
-107.69
-115.94
-122.28
-128.3
-134.85
-141.21
-144.89
-142.53
-131.56
-111.73
-85.59
-57.63
-32.39
-12.54
1.87
12.81
22.66
32.59
42.04
49.23
52.51
51.52
47.5
42.55
38.48
35.9
34.0
31.2
25.93
17.27
5.11
-10.34
-28.75
-49.68
-72.2
-94.34
-112.86
-123.86
-123.84
-111.0
-85.96
-51.77
-12.92
25.87
60.9
90.05
112.78
129.52
141.12
148.27
151.41
150.87
147.14
141.01
133.47
125.45
117.48
109.57
101.34
92.3
82.12
70.66
57.78
43.04
25.65
4.63
-20.65
-50.05
-82.26
-114.58
-143.08
-163.16
-170.65
-163.06
-140.69
-106.91
-67.4
-28.37
5.27
31.25
50.05
63.91
75.33
85.87
95.8
104.41
110.78
114.44
115.44
114.2
111.07
106.03
98.75
88.85
76.27
61.56
45.64
29.29
12.47
-5.92
-27.49
-53.13
-81.56
-108.79
-128.98
-136.59
-128.88
-107.35
-77.31
-45.67
-18.25
2.19
16.01
25.36
32.4
38.06
42.1
43.95
43.61
41.86
39.8
37.99
35.93
32.26
25.56
15.34
2.56
-10.6
-21.82
-30.03
-36.25
-43.34
-54.71
-72.4
-95.72
-121.02
-142.78
-155.35
-154.46
-138.17
-107.13
-64.27
-14.43
36.31
81.69
116.6
138.37
147.48
147.15
141.83
135.54
130.55
127.17
124.4
120.89
115.71
108.6
99.71
89.34
77.7
64.81
50.4
33.83
14.16
-9.46
-37.24
-68.03
-99.05
-126.29
-145.65
-154.31
-151.75
-139.79
-121.72
-100.91
-79.75
-59.26
-39.51
-20.43
-2.37
13.86
27.37
37.72
45.09
50.21
53.82
56.31
57.68
57.74
56.45
53.99
50.72
46.86
42.28
36.43
28.66
18.65
6.83
-5.44
-16.18
-23.29
-25.35
-22.01
-14.13
-3.3
8.84
21.23
33.74
46.95
61.59
77.8
94.67
110.26
122.2
128.49
128.3
122.28
112.33
100.8
89.65
79.74
70.69
61.26
50.13
36.5
20.44
2.73
-15.55
-33.43
-50.2
-65.22
-77.68
-86.57
-90.98
-90.65
-86.34
-79.74
-72.86
-67.05
-62.45
-57.86
-51.51
-42.0
-29.11
-13.99
1.34
14.8
25.0
31.62
35.24
36.87
37.46
37.7
37.95
38.42
39.32
40.82
42.76
44.57
45.22
43.38
37.91
28.24
14.72
-1.41
-18.32
-34.02
-46.99
-56.56
-63.1
-67.74
-71.94
-76.79
-82.57
-88.66
-93.82
-96.67
-96.26
-92.21
-84.76
-74.53
-62.28
-48.83
-34.99
-21.64
-9.64
0.27
7.63
12.3
14.49
14.63
13.26
10.89
7.86
4.31
0.23
-4.47
-9.76
-15.39
-20.86
-25.61
-29.24
-31.81
-33.87
-36.14
-39.06
-42.34
-44.84
-45.0
-41.5
-33.93
-23.01
-10.28
2.55
14.23
24.26
32.68
39.56
44.73
47.69
47.98
45.64
41.35
36.24
31.41
27.34
23.78
20.0
15.26
9.29
2.5
-4.23
-10.0
-14.38
-17.65
-20.61
-24.19
-28.95
-34.6
-40.03
-43.67
-44.09
-40.57
-33.28
-23.06
-11.03
1.79
14.52
26.21
35.62
41.33
42.22
38.05
29.74
19.23
8.64
-0.39
-7.26
-12.37
-16.54
-20.43
-24.1
-27.0
-28.31
-27.51
-24.8
-21.3
-18.75
-18.7
-21.71
-26.75
-31.53
-33.29
-30.05
-21.42
-8.69
5.83
19.9
32.03
41.64
48.64
52.95
54.25
52.3
47.28
40.03
31.86
23.98
17.1
11.12
5.36
-0.85
-7.65
-14.41
-19.89
-22.79
-22.32
-18.62
-12.78
-6.43
-1.16
2.19
3.78
4.67
6.27
9.74
15.44
22.91
31.02
38.44
44.07
47.24
47.71
45.46
40.54
33.13
23.75
13.38
3.37
-5.04
-11.27
-15.78
-19.91
-25.12
-32.18
-40.58
-48.71
-54.72
-57.49
-57.24
-55.23
-52.88
-50.79
-48.34
-43.97
-36.12
-24.06
-8.3
9.61
27.76
44.51
58.84
70.35
79.0
84.81
87.69
87.39
83.72
76.86
67.48
56.8
46.14
36.44
27.83
19.76
11.57
3.11
-5.1
-12.42
-19.02
-26.45
-37.2
-53.39
-74.98
-98.97
-120.03
-132.51
-132.77
-120.46
-98.26
-70.22
-39.99
-9.92
18.69
44.69
66.39
81.83
89.73
90.32
85.54
78.3
71.34
66.12
62.42
58.64
52.6
42.55
28.07
10.47
-7.41
-22.18
-31.2
-33.7
-31.05
-25.86
-20.67
-16.61
-13.14
-8.82
-2.64
5.08
12.74
18.46
21.21
21.5
21.05
21.92
25.36
31.2
37.93
43.47
46.09
45.01
40.63
34.08
26.62
19.06
11.57
3.77
-4.79
-14.23
-24.09
-33.48
-41.5
-47.59
-51.66
-53.95
-54.6
-53.49
-50.24
-44.48
-36.21
-25.9
-14.54
-3.22
7.03
15.49
21.72
25.46
26.73
25.81
23.24
19.73
15.84
11.82
7.57
2.92
-2.2
-7.68
-13.37
-19.25
-25.43
-31.8
-37.8
-42.3
-44.11
-42.59
-38.19
-32.44
-27.16
-23.61
-21.8
-20.45
-17.52
-10.99
0.44
16.9
37.33
59.56
80.64
97.39
107.14
108.57
102.19
90.35
76.52
64.28
56.17
53.02
53.86
56.34
57.6
55.1
47.2
33.46
14.43
-8.52
-33.51
-58.25
-80.39
-97.92
-109.62
-115.27
-115.53
-111.32
-103.34
-91.72
-76.17
-56.67
-34.13
-10.73
10.34
25.81
33.51
33.19
26.67
17.25
8.38
2.52
0.34
0.81
2.08
2.62
2.03
1.03
0.78
1.87
3.72
4.7
2.97
-2.43
-10.92
-20.45
-28.45
-32.82
-32.65
-28.13
-19.88
-8.25
6.83
25.37
46.4
67.37
84.52
94.05
93.69
83.9
67.82
50.35
36.24
28.63
28.13
33.13
40.69
47.8
52.31
53.21
50.22
43.16
31.52
14.6
-7.66
-33.89
-60.88
-84.24
-100.02
-106.28
-103.98
-96.39
-87.27
-78.95
-71.27
-62.03
-48.63
-30.1
-8.09
13.54
30.33
39.23
39.84
34.38
26.49
19.53
15.21
13.25
11.98
9.49
4.77
-1.92
-9.4
-16.45
-22.55
-28.25
-34.73
-43.15
-53.94
-66.48
-79.24
-90.36
-98.11
-101.36
-99.55
-92.58
-80.72
-64.64
-45.5
-25.08
-5.43
11.58
24.97
34.75
41.83
47.41
52.36
56.87
60.5
62.51
62.25
59.43
54.12
46.77
38.04
28.64
19.13
9.76
0.39
-9.47
-20.44
-32.95
-46.83
-61.11
-73.91
-82.76
-85.21
-79.64
-65.93
-45.6
-21.35
3.81
27.45
48.18
65.52
79.38
89.69
96.27
99.08
98.41
94.97
89.53
82.5
73.76
62.74
49.0
32.72
14.98
-2.62
-18.56
-32.21
-44.25
-56.39
-70.59
-88.02
-108.27
-129.16
-147.27
-158.86
-161.06
-152.72
-134.62
-109.2
-79.73
-49.54
-21.29
3.35
23.62
39.65
52.13
62.03
70.26
77.31
83.09
86.92
87.89
85.31
79.07
69.75
58.38
46.03
33.47
21.03
8.66
-3.87
-16.83
-30.38
-44.52
-58.88
-72.6
-84.14
-91.55
-93.0
-87.51
-75.52
-58.87
-40.34
-22.62
-7.38
5.18
16.04
26.55
37.5
48.62
58.79
66.7
71.66
73.9
74.32
73.82
72.66
70.32
65.86
58.51
48.28
36.14
23.73
12.86
4.87
0.31
-1.27
-1.1
-0.76
-1.56
-4.0
-7.45
-10.4
-11.16
-8.73
-3.45
2.99
8.28
10.43
8.57
3.08
-4.78
-13.57
-22.04
-29.37
-34.87
-37.84
-37.54
-33.45
-25.62
-14.94
-3.05
8.05
16.61
21.81
24.06
25.02
26.93
31.73
40.08
50.9
61.58
68.98
70.83
66.74
58.4
48.72
40.41
34.64
30.54
25.74
17.81
5.69
-9.41
-24.4
-35.53
-40.1
-37.54
-29.69
-19.81
-11.31
-6.55
-6.49
-10.99
-19.37
-30.84
-44.39
-58.35
-70.17
-76.75
-75.31
-64.45
-44.94
-19.9
5.88
27.14
39.56
40.91
31.54
14.18
-7.01
-27.73
-44.76
-56.77
-64.24
-68.79
-72.06
-74.82
-76.62
-76.21
-72.29
-64.42
-53.21
-40.19
-27.12
-15.4
-5.67
2.04
8.01
12.52
15.91
18.76
22.21
27.83
37.23
51.34
69.79
90.75
111.41
128.83
140.93
147.13
148.52
147.33
146.15
146.88
149.97
154.15
156.82
155.12
147.09
132.63
113.63
93.2
74.48
59.38
47.96
38.57
28.67
15.76
-1.76
-24.27
-51.05
-80.61
-110.88
-139.44
-163.54
-180.41
-187.58
-183.53
-168.27
-143.71
-113.75
-83.54
-58.35
-42.25
-36.99
-41.73
-53.63
-69.0
-84.6
-98.42
-109.85
-119.06
-126.21
-130.9
-132.17
-129.12
-121.52
-110.16
-96.63
-82.72
-69.92
-59.24
-51.3
-46.36
-44.3
-44.3
-44.62
-42.89
-36.77
-24.94
-7.73
12.86
33.87
52.26
65.75
73.05
73.88
68.8
59.04
46.35
32.72
19.93
9.04
0.22
-7.21
-14.13
-20.93
-26.97
-30.55
-29.48
-22.14
-8.41
9.94
29.57
46.76
58.71
64.46
65.0
62.55
59.51
57.55
57.4
59.07
62.25
66.49
71.05
74.6
75.28
71.24
61.49
46.7
29.28
12.57
-0.62
-9.29
-14.7
-19.53
-26.27
-35.82
-46.94
-56.87
-62.66
-62.33
-55.36
-42.41
-24.73
-3.77
18.91
41.46
61.67
77.19
86.14
87.65
82.23
71.61
58.27
44.77
33.06
24.05
17.4
11.63
4.57
-5.87
-20.81
-39.66
-60.0
-78.26
-91.02
-96.47
-95.17
-89.66
-83.11
-77.68
-73.5
-68.95
-61.88
-51.12
-37.24
-22.23
-8.26
3.5
13.24
22.01
30.66
38.96
45.6
48.99
48.3
44.22
38.79
34.35
32.32
32.23
31.83
28.09
18.84
4.01
-14.06
-31.52
-44.7
-51.63
-52.72
-50.12
-46.41
-43.18
-40.51
-37.44
-32.94
-26.7
-19.18
-11.01
-2.18
8.17
21.29
37.92
57.55
78.14
96.71
110.18
116.54
115.4
108.04
96.72
83.64
69.94
55.2
37.89
16.29
-10.34
-41.0
-73.06
-103.03
-127.51
-143.92
-150.71
-147.22
-133.61
-110.91
-81.1
-47.05
-12.1
20.5
48.27
69.83
84.97
94.39
99.29
100.93
100.15
97.24
91.96
83.99
73.42
61.0
48.05
35.89
25.1
15.12
4.41
-8.83
-25.63
-45.45
-66.02
-83.93
-95.82
-99.52
-94.71
-82.75
-65.82
-45.98
-24.58
-2.39
19.91
41.27
60.33
75.9
87.49
95.25
99.6
100.66
98.06
91.31
80.53
66.73
51.61
36.78
22.98
10.01
-2.94
-16.59
-31.05
-46.09
-61.45
-77.19
-93.42
-109.62
-124.09
-133.96
-136.1
-128.41
-110.85
-85.58
-56.11
-25.92
2.66
28.76
52.56
74.39
94.07
110.7
123.07
130.23
131.93
128.7
121.64
112.05
101.01
89.19
76.78
63.75
50.03
35.68
20.94
5.95
-9.44
-25.77
-43.63
-63.1
-83.22
-101.77
-115.83
-122.81
-121.51
-112.55
-98.05
-80.48
-61.69
-42.29
-22.07
-0.73
21.24
42.32
60.33
73.28
80.13
81.17
77.82
72.09
65.87
60.39
56.01
52.39
48.98
45.41
41.84
38.75
36.45
34.73
32.74
29.36
23.63
15.21
4.39
-7.97
-20.68
-32.22
-40.82
-44.77
-42.83
-34.94
-22.31
-7.2
8.02
21.7
33.32
43.34
52.46
61.05
68.88
75.32
79.82
82.23
82.89
82.25
80.52
77.39
72.05
63.61
51.47
35.81
17.69
-1.19
-19.0
-34.4
-47.02
-57.48
-67.02
-77.01
-88.34
-101.27
-115.47
-130.3
-145.0
-158.66
-169.96
-177.01
-177.47
-169.27
-151.45
-124.97
-92.68
-58.57
-26.48
0.99
23.08
40.46
54.4
65.78
74.71
80.84
84.06
85.01
85.19
86.36
89.83
95.88
103.75
112.13
119.81
126.16
131.0
134.13
134.69
130.87
120.29
100.97
72.42
36.5
-2.62
-39.36
-68.29
-85.68
-90.57
-84.78
-72.04
-56.63
-42.17
-30.97
-23.96
-21.01
-21.4
-24.02
-27.56
-30.65
-32.18
-31.56
-28.99
-25.34
-21.78
-19.22
-18.03
-17.9
-18.27
-18.61
-18.79
-19.09
-20.09
-22.6
-27.43
-35.28
-46.28
-59.71
-73.72
-85.64
-92.56
-92.32
-84.24
-69.41
-50.25
-29.64
-10.08
7.09
21.68
34.49
46.65
59.08
72.07
85.09
96.89
105.89
110.68
110.46
105.26
96.03
84.45
72.59
62.43
55.32
51.36
49.04
45.35
36.57
19.58
-6.74
-40.53
-77.13
-110.35
-134.45
-145.98
-144.59
-132.56
-113.43
-90.52
-66.1
-41.49
-17.71
4.0
22.23
35.87
44.75
49.75
52.37
53.89
54.72
54.17
50.82
43.37
31.27
15.13
-3.33
-21.77
-38.05
-51.0
-60.91
-69.48
-79.07
-91.69
-108.0
-126.98
-146.28
-163.02
-174.7
-179.87
-178.26
-170.54
-157.7
-140.52
-119.41
-94.65
-66.92
-37.81
-9.74
14.51
32.71
43.93
48.74
48.85
46.2
42.13
37.1
31.02
23.87
16.28
9.38
4.3
1.51
0.47
-0.3
-2.8
-8.85
-19.51
-34.62
-52.69
-71.16
-86.87
-96.82
-98.87
-92.33
-78.12
-58.25
-34.99
-9.92
16.47
44.43
74.09
104.69
134.38
160.66
181.17
194.39
199.89
198.16
190.27
177.64
161.9
144.83
128.17
113.28
100.71
90.07
80.13
69.24
55.72
38.48
17.45
-6.12
-29.69
-49.96
-63.77
-69.2
-66.26
-56.8
-43.69
-29.67
-16.33
-3.96
8.04
20.19
32.19
42.86
50.61
54.29
53.84
50.3
45.23
39.95
34.9
29.58
23.09
14.73
4.36
-7.64
-20.7
-34.34
-48.24
-62.02
-75.07
-86.51
-95.43
-101.07
-103.06
-101.38
-96.37
-88.58
-78.63
-67.07
-54.28
-40.39
-25.51
-9.91
5.66
20.1
32.17
41.06
46.68
49.65
50.87
50.95
49.85
46.99
41.77
34.09
24.56
14.38
4.81
-3.08
-8.58
-11.18
-10.58
-6.81
-0.63
6.27
11.49
12.71
8.7
0.1
-10.65
-20.2
-25.61
-25.37
-19.83
-10.87
-1.03
7.55
13.91
18.6
23.35
30.22
40.61
54.45
70.05
84.57
94.77
97.92
92.44
78.42
57.8
34.24
12.37
-3.33
-9.91
-7.05
2.91
15.88
27.69
35.51
38.29
36.26
29.86
19.04
3.51
-16.57
-39.79
-63.51
-84.43
-99.6
-107.08
-106.05
-96.73
-80.16
-58.12
-33.18
-8.46
12.84
28.08
35.81
35.93
29.67
19.29
7.65
-2.34
-8.36
-9.36
-5.84
0.45
7.32
13.13
17.17
19.48
20.05
18.36
13.28
3.83
-9.89
-26.38
-43.03
-57.1
-66.68
-71.18
-71.13
-67.59
-61.53
-53.68
-44.58
-34.87
-25.21
-16.13
-7.59
0.99
10.46
21.38
33.58
46.08
57.43
66.21
71.53
73.15
71.54
67.69
62.88
58.34
54.83
52.31
49.75
45.49
37.87
26.03
10.49
-6.93
-23.82
-38.22
-49.38
-57.91
-65.04
-71.49
-76.78
-79.15
-76.51
-67.61
-52.87
-34.3
-14.6
4.01
20.49
34.81
47.17
57.26
64.14
66.75
64.73
58.87
50.93
42.89
36.05
30.71
26.34
22.2
17.83
13.06
7.59
0.37
-10.39
-26.64
-49.22
-76.8
-105.65
-130.65
-147.02
-152.09
-146.18
-132.0
-113.12
-92.31
-70.7
-48.09
-24.15
0.62
24.57
45.49
61.66
72.58
78.95
82.08
83.1
82.5
80.23
76.18
70.6
64.38
58.64
54.25
51.25
48.57
44.27
36.18
22.8
4.12
-17.93
-39.96
-58.0
-68.87
-71.14
-65.36
-53.57
-38.3
-21.68
-4.95
11.39
27.17
42.06
55.49
66.73
75.24
80.82
83.72
84.4
83.34
80.94
77.33
72.54
66.62
59.82
52.54
45.2
37.84
29.99
20.75
9.17
-5.13
-21.54
-38.4
-53.37
-64.17
-69.33
-68.64
-63.1
-54.48
-44.56
-34.57
-24.97
-15.73
-6.88
0.89
6.05
6.6
0.86
-11.59
-29.57
-50.56
-71.49
-89.65
-103.37
-112.12
-116.37
-117.17
-115.62
-112.56
-108.31
-102.7
-95.32
-85.91
-74.8
-63.18
-52.99
-46.38
-44.98
-49.14
-57.69
-68.15
-77.49
-82.99
-82.94
-77.04
-66.13
-51.72
-35.45
-18.62
-2.09
13.59
28.03
40.87
51.77
60.37
66.34
69.4
69.48
66.95
62.74
58.23
54.96
54.14
56.32
61.34
68.47
76.66
84.72
91.38
95.29
95.16
89.97
79.24
63.22
42.86
19.68
-4.5
-27.69
-47.94
-63.43
-72.77
-75.12
-70.41
-59.31
-43.3
-24.42
-5.07
12.29
25.59
33.59
36.17
34.45
30.59
27.18
26.44
29.49
36.0
44.37
52.46
58.45
61.51
61.88
60.39
57.71
53.88
48.27
40.01
28.56
14.16
-2.12
-18.63
-33.48
-45.04
-52.15
-54.3
-51.63
-44.81
-34.8
-22.64
-9.17
4.96
19.25
33.23
46.3
57.87
67.38
74.52
79.27
81.84
82.69
82.28
80.91
78.56
74.85
69.14
60.83
49.68
35.89
20.22
3.81
-12.07
-26.34
-38.36
-48.14
-56.41
-64.44
-73.69
-85.23
-99.25
-114.75
-129.77
-142.01
-149.5
-151.18
-146.82
-136.8
-121.67
-102.08
-78.82
-53.16
-26.85
-1.87
20.09
38.02
51.78
61.87
68.95
73.47
75.48
74.93
71.95
67.21
61.81
56.94
53.17
49.97
45.65
37.85
24.71
5.94
-16.65
-39.43
-58.14
-69.35
-71.48
-65.11
-52.36
-35.92
-18.14
-0.57
16.07
31.55
45.8
58.7
69.94
79.02
85.31
88.09
86.69
80.76
70.44
56.42
39.93
22.55
5.93
-8.49
-19.74
-27.56
-32.44
-35.42
-37.83
-40.71
-44.59
-49.27
-53.93
-57.48
-58.77
-56.81
-50.8
-40.37
-25.86
-8.69
8.68
23.29
32.78
36.38
35.47
32.93
31.92
34.42
40.47
48.42
55.95
61.22
63.46
62.76
59.4
53.28
43.93
30.95
14.73
-3.2
-20.45
-34.49
-43.59
-47.41
-47.0
-44.37
-41.58
-40.05
-40.12
-41.12
-41.93
-41.55
-39.52
-36.02
-31.62
-26.94
-22.32
-17.78
-13.03
-7.57
-0.9
7.27
16.72
26.51
34.92
39.8
39.29
32.6
20.58
5.54
-9.48
-21.65
-29.23
-31.84
-30.3
-26.05
-20.76
-16.14
-13.8
-15.04
-20.22
-28.31
-36.82
-42.72
-43.69
-39.18
-30.57
-20.25
-10.38
-1.95
5.16
11.38
16.71
20.49
22.04
21.31
19.14
16.82
15.44
15.37
16.4
18.12
20.38
23.35
26.94
30.61
33.39
34.47
33.63
31.12
27.28
22.1
15.28
6.21
-5.15
-18.08
-30.88
-41.43
-48.08
-50.33
-48.68
-43.89
-36.97
-27.93
-16.12
-0.53
19.6
44.13
70.84
94.47
109.51
112.32
103.51
86.05
63.9
41.05
20.92
5.49
-4.96
-11.37
-17.8
-26.9
-40.34
-58.72
-81.44
-106.54
-130.89
-150.62
-155.12
-141.82
-114.35
-80.95
-50.64
-29.55
-19.02
-16.06
-16.57
-15.94
-12.94
-7.6
-0.47
8.1
18.23
30.03
43.11
56.48
69.15
79.56
86.57
90.43
92.27
93.4
94.61
95.77
95.96
93.99
88.24
78.17
64.51
48.93
33.4
19.68
8.69
0.36
-6.15
-12.42
-19.6
-27.91
-36.61
-44.31
-49.55
-51.46
-50.08
-46.27
-41.4
-36.55
-32.08
-27.71
-22.98
-17.69
-12.18
-7.2
-3.5
-1.43
-0.71
-0.55
-0.08
1.29
3.63
6.58
9.62
12.26
14.13
14.91
14.17
11.33
5.86
-2.38
-12.82
-24.07
-34.2
-41.35
-44.32
-42.99
-38.18
-31.2
-23.26
-15.06
-6.67
2.13
11.49
21.3
31.1
40.23
47.99
53.78
57.14
57.83
55.92
51.8
46.13
39.61
32.78
25.92
19.03
12.12
5.39
-0.6
-5.07
-7.22
-6.43
-2.49
4.46
13.87
24.99
36.86
48.47
58.87
67.26
73.13
76.21
76.48
74.04
69.05
61.77
52.56
41.92
30.41
18.55
6.75
-4.78
-15.92
-26.62
-36.88
-46.81
-56.6
-66.51
-76.61
-86.61
-95.65
-102.48
-105.81
-104.75
-99.19
-89.84
-77.94
-64.95
-52.14
-40.5
-30.7
-23.11
-17.82
-14.61
-12.97
-12.23
-11.84
-11.52
-11.39
-11.77
-12.95
-14.91
-17.27
-19.42
-20.8
-20.99
-19.87
-17.49
-14.0
-9.56
-4.33
1.5
7.7
14.11
20.7
27.64
35.13
43.21
51.59
59.66
66.66
71.97
75.33
76.82
76.66
75.01
71.81
66.79
59.8
51.01
40.97
30.54
20.59
11.7
4.05
-2.54
-8.49
-14.26
-20.17
-26.38
-32.85
-39.35
-45.54
-50.85
-54.65
-56.32
-55.5
-52.18
-46.81
-40.13
-33.0
-26.2
-20.28
-15.57
-12.2
-10.21
-9.46
-9.64
-10.21
-10.5
-9.93
-8.12
-5.04
-0.9
4.0
9.42
15.18
21.13
26.99
32.24
36.33
38.87
39.88
39.81
39.42
39.44
40.27
41.97
44.22
46.59
48.61
49.87
49.96
48.59
45.57
40.87
34.71
27.45
19.43
10.87
1.8
-7.88
-18.23
-29.13
-40.18
-50.72
-60.0
-67.34
-72.41
-75.27
-76.32
-76.23
-75.67
-75.18
-74.97
-74.91
-74.46
-72.91
-69.51
-63.74
-55.51
-45.2
-33.6
-21.67
-10.4
-0.53
7.51
13.64
18.08
21.22
23.61
25.77
28.08
30.61
33.17
35.37
36.78
37.18
36.49
34.88
32.52
29.52
25.86
21.42
16.11
9.97
3.33
-3.28
-9.07
-13.14
-14.7
-13.26
-8.86
-2.2
5.45
12.68
18.24
21.45
22.18
20.74
17.55
13.01
7.5
1.45
-4.6
-10.07
-14.51
-17.71
-19.75
-20.87
-21.31
-21.25
-20.84
-20.35
-20.25
-21.12
-23.37
-26.95
-31.19
-34.9
-36.7
-35.44
-30.61
-22.53
-12.13
-0.64
10.72
21.12
30.08
37.39
42.97
46.77
48.79
49.02
47.48
44.09
38.74
31.34
21.96
10.97
-0.96
-13.02
-24.56
-35.33
-45.58
-55.78
-66.44
-77.59
-88.68
-98.56
-105.76
-108.91
-107.17
-100.62
-90.29
-77.93
-65.53
-54.71
-46.32
-40.3
-35.94
-32.28
-28.51
-24.24
-19.39
-14.11
-8.58
-2.98
2.57
7.9
12.8
17.08
20.61
23.42
25.63
27.47
29.02
30.24
30.81
30.41
29.02
27.17
26.06
27.19
31.79
40.25
51.8
64.7
76.73
85.99
91.24
92.09
88.83
82.19
73.07
62.38
50.91
39.22
27.56
15.9
4.08
-8.08
-20.59
-33.38
-46.3
-59.2
-71.94
-84.32
-96.02
-106.64
-115.79
-123.16
-128.6
-131.94
-132.93
-131.15
-126.11
-117.56
-105.71
-91.44
-76.16
-61.54
-49.02
-39.48
-33.17
-29.73
-28.48
-28.63
-29.48
-30.36
-30.66
-29.83
-27.45
-23.42
-17.96
-11.52
-4.59
2.47
9.56
16.76
24.14
31.54
38.57
44.75
49.85
54.07
58.05
62.61
68.26
75.04
82.39
89.51
95.66
100.56
104.37
107.55
110.53
113.48
116.29
118.59
120.04
120.24
118.84
115.51
109.94
102.0
91.83
79.8
66.51
52.59
38.56
24.78
11.52
-0.95
-12.25
-21.92
-29.47
-34.44
-36.52
-35.63
-32.07
-26.56
-20.17
-14.09
-9.31
-6.4
-5.38
-5.87
-7.41
-9.61
-12.21
-14.98
-17.52
-19.25
-19.62
-18.41
-15.85
-12.53
-9.14
-6.08
-3.39
-0.84
1.84
4.63
7.24
9.16
9.96
9.46
7.9
5.86
4.1
3.34
3.96
5.89
8.56
11.19
13.06
13.69
12.96
10.91
7.62
3.14
-2.42
-8.86
-15.69
-22.29
-28.03
-32.46
-35.34
-36.69
-36.81
-36.2
-35.6
-35.66
-36.86
-39.18
-42.18
-45.11
-47.16
-47.72
-46.44
-43.17
-37.88
-30.75
-22.18
-12.9
-3.91
3.81
9.55
13.1
14.65
14.61
13.35
11.06
7.72
3.24
-2.37
-8.89
-15.79
-22.31
-27.66
-31.25
-32.82
-32.61
-31.23
-29.43
-27.91
-27.11
-27.26
-28.4
-30.38
-32.82
-35.01
-36.02
-34.87
-31.01
-24.55
-16.35
-7.7
0.15
6.44
11.07
14.52
17.45
20.39
23.48
26.51
29.09
30.79
31.32
30.51
28.28
24.6
19.47
12.97
5.29
-3.21
-11.99
-20.45
-28.04
-34.36
-39.28
-42.86
-45.13
-46.0
-45.09
-41.86
-35.88
-27.16
-16.31
-4.49
6.99
17.17
25.68
32.82
39.25
45.6
52.14
58.67
64.71
69.71
73.29
75.27
75.58
74.23
71.28
66.91
61.45
55.27
48.59
41.37
33.26
23.79
12.64
-0.06
-13.59
-26.68
-37.89
-45.94
-50.13
-50.54
-48.08
-44.27
-40.8
-38.99
-39.35
-41.33
-43.6
-44.67
-43.53
-40.22
-35.74
-31.62
-29.19
-29.05
-30.9
-33.79
-36.7
-38.91
-40.21
-40.79
-40.95
-40.9
-40.8
-40.7
-40.77
-41.17
-41.93
-42.72
-42.7
-40.62
-35.1
-25.06
-10.12
9.1
31.2
54.29
76.6
96.91
114.68
129.88
142.66
152.96
160.35
164.16
163.78
159.05
150.49
139.17
126.41
113.38
100.81
88.98
77.88
67.4
57.47
47.98
38.59
28.64
17.34
4.1
-11.01
-27.1
-42.56
-55.48
-64.2
-67.84
-66.56
-61.42
-54.08
-46.26
-39.29
-33.87
-30.06
-27.57
-25.92
-24.73
-23.73
-22.72
-21.59
-20.29
-18.95
-17.85
-17.38
-17.81
-19.12
-20.97
-22.71
-23.64
-23.14
-20.94
-17.21
-12.58
-7.93
-4.12
-1.66
-0.58
-0.46
-0.58
-0.2
1.35
4.68
10.39
18.88
30.16
43.51
57.43
69.98
79.3
84.17
84.36
80.54
73.9
65.63
56.64
47.35
37.87
28.16
18.28
8.48
-0.85
-9.36
-17.04
-24.29
-31.86
-40.46
-50.3
-60.81
-70.72
-78.48
-82.78
-82.9
-78.74
-70.72
-59.62
-46.57
-32.97
-20.42
-10.35
-3.57
0.13
1.89
3.35
5.97
10.45
16.59
23.5
30.0
35.12
38.35
39.69
39.41
37.95
35.65
32.67
29.05
24.72
19.62
13.74
7.22
0.37
-6.27
-11.96
-15.8
-17.01
-15.12
-10.24
-3.14
4.91
12.34
17.63
19.7
17.96
12.55
4.23
-5.73
-15.82
-24.67
-31.31
-35.39
-37.12
-37.07
-35.87
-33.99
-31.68
-29.05
-26.3
-23.73
-21.8
-20.98
-21.68
-24.06
-27.91
-32.67
-37.36
-40.75
-41.62
-39.04
-32.66
-22.83
-10.41
3.45
17.62
31.21
43.63
54.41
63.12
69.2
72.04
71.15
66.47
58.56
48.5
37.74
27.65
19.13
12.39
7.02
2.2
-2.88
-8.73
-15.52
-23.15
-31.43
-40.23
-49.43
-58.79
-67.82
-75.76
-81.74
-85.11
-85.63
-83.48
-79.18
-73.31
-66.34
-58.59
-50.35
-42.02
-34.15
-27.37
-22.19
-18.78
-16.77
-15.42
-13.77
-11.1
-7.18
-2.44
2.26
6.07
8.49
9.63
10.01
10.34
11.0
11.96
12.8
13.01
12.36
11.2
10.51
11.56
15.52
22.88
33.28
45.55
58.17
69.84
79.85
88.18
95.19
101.29
106.65
111.15
114.52
116.37
116.19
113.29
106.81
95.99
80.56
61.02
38.67
15.26
-7.62
-28.93
-48.44
-66.54
-83.89
-101.07
-118.27
-135.1
-150.59
-163.24
-171.31
-173.24
-168.19
-156.4
-139.33
-119.33
-99.08
-80.93
-66.38
-55.95
-49.26
-45.41
-43.34
-42.03
-40.66
-38.52
-35.05
-29.84
-22.72
-13.85
-3.68
7.11
17.82
27.8
36.56
43.71
48.88
51.7
51.88
49.32
44.23
37.32
29.83
23.44
20.03
21.08
27.18
37.69
50.75
63.9
74.79
81.9
84.87
84.31
81.34
76.97
71.82
65.97
59.13
50.88
40.91
29.25
16.4
3.27
-9.16
-20.14
-29.47
-37.35
-44.17
-50.16
-55.25
-59.3
-62.32
-64.61
-66.61
-68.5
-69.96
-70.07
-67.71
-62.03
-52.88
-40.82
-26.9
-12.23
2.33
16.21
29.02
40.35
49.68
56.39
59.96
60.13
56.99
51.03
43.04
33.92
24.61
15.93
8.45
2.39
-2.44
-6.69
-11.23
-16.9
-24.17
-32.89
-42.22
-50.7
-56.61
-58.42
-55.3
-47.4
-35.89
-22.57
-9.29
2.57
12.45
20.41
26.85
32.06
36.07
38.69
39.73
39.27
37.62
35.25
32.63
30.02
27.55
25.24
23.03
20.86
18.58
15.99
12.8
8.81
4.01
-1.33
-6.59
-10.81
-12.92
-11.9
-7.08
1.56
13.38
27.12
41.26
54.35
65.37
73.87
79.94
84.03
86.63
88.07
88.44
87.58
85.25
81.22
75.45
68.11
59.61
50.5
41.24
32.06
22.72
12.66
1.06
-12.77
-29.1
-47.6
-67.29
-86.78
-104.43
-118.77
-128.77
-133.95
-134.45
-130.86
-123.94
-114.14
-101.35
-84.7
-62.92
-34.98
-0.91
37.62
77.16
113.04
140.62
156.56
160.03
152.76
138.22
120.38
102.38
86.04
71.9
59.97
49.88
40.74
30.39
15.54
-7.04
-38.65
-77.04
-116.34
-148.57
-166.63
-166.86
-150.71
-123.99
-94.4
-68.8
-51.31
-43.03
-41.9
-45.22
-49.44
-51.54
-50.33
-46.48
-41.74
-38.19
-37.93
-42.12
-50.1
-58.42
-61.78
-54.98
-35.34
-4.64
32.25
67.76
94.21
106.42
103.04
86.07
59.59
28.37
-3.05
-30.74
-51.96
-65.22
-70.56
-69.42
-64.49
-58.5
-53.17
-48.42
-42.41
-32.73
-17.69
2.8
26.92
51.64
73.79
91.18
103.02
109.82
112.7
112.85
111.07
107.6
102.14
94.15
83.25
69.57
53.88
37.34
21.15
6.25
-6.9
-18.18
-27.52
-34.67
-39.21
-40.73
-39.2
-35.08
-29.2
-22.54
-15.85
-9.59
-3.88
1.31
6.02
10.23
13.74
16.29
17.5
16.98
14.46
9.9
3.55
-3.99
-11.76
-18.67
-23.73
-26.31
-26.35
-24.27
-20.72
-16.28
-11.25
-5.65
0.55
7.33
14.56
22.15
30.07
38.34
46.83
55.18
62.77
68.9
73.07
75.08
75.07
73.32
70.21
66.12
61.49
56.67
51.77
46.47
39.94
31.14
19.18
3.79
-14.42
-34.11
-53.47
-70.76
-84.71
-94.66
-100.67
-103.3
-103.43
-102.03
-99.99
-97.95
-96.25
-94.92
-93.7
-92.06
-89.37
-85.01
-78.61
-70.12
-59.99
-48.96
-37.87
-27.42
-17.89
-9.22
-1.16
6.6
14.33
22.27
30.64
39.64
49.19
58.91
68.05
75.71
81.12
83.91
84.14
82.22
78.59
73.54
67.03
58.92
49.23
38.32
27.09
16.81
8.83
4.16
3.16
5.48
10.28
16.75
24.3
32.73
41.81
50.92
58.96
64.65
67.01
65.92
62.13
56.97
51.72
47.17
43.43
40.24
37.22
34.21
31.33
28.92
27.37
26.95
27.76
29.69
32.41
35.42
38.21
40.31
41.44
41.62
41.19
40.82
41.35
43.49
47.46
52.79
58.39
62.88
65.08
64.31
60.39
53.46
43.85
31.99
18.56
4.52
-9.0
-21.0
-30.96
-39.05
-45.87
-52.18
-58.55
-65.1
-71.66
-77.88
-83.43
-88.06
-91.64
-94.18
-95.8
-96.65
-96.81
-96.19
-94.55
-91.58
-87.08
-81.06
-73.76
-65.53
-56.69
-47.47
-38.03
-28.57
-19.3
-10.51
-2.47
4.67
10.81
15.92
19.9
22.52
23.6
23.15
21.55
19.6
18.35
18.68
21.02
25.13
30.28
35.54
40.02
43.07
44.17
42.93
39.12
32.95
25.2
17.2
10.49
6.41
5.65
8.26
13.65
20.85
28.71
35.99
41.5
44.26
43.65
39.45
31.94
21.7
9.5
-3.9
-17.9
-32.13
-46.4
-60.66
-74.87
-88.95
-102.7
-115.79
-127.87
-138.62
-147.85
-155.51
-161.52
-165.69
-167.62
-166.71
-162.36
-154.22
-142.48
-127.93
-111.75
-95.22
-79.32
-64.53
-50.95
-38.42
-26.78
-15.99
-6.1
2.82
10.83
18.08
24.8
31.12
36.86
41.53
44.46
45.15
43.61
40.47
36.76
33.48
31.05
29.16
26.8
22.81
16.33
7.27
-3.65
-15.02
-25.15
-32.42
-35.67
-34.4
-28.92
-20.21
-9.69
1.18
11.19
19.64
26.27
31.21
34.7
36.97
38.2
38.68
38.79
39.0
39.67
40.7
41.53
41.29
39.14
34.62
27.89
19.4
9.7
-0.96
-12.6
-25.22
-38.39
-51.12
-62.03
-69.73
-73.28
-72.31
-66.98
-57.87
-45.85
-32.14
-18.21
-5.52
4.81
12.4
17.51
20.77
22.69
23.39
22.66
20.25
16.17
10.77
4.66
-1.63
-7.65
-13.04
-17.42
-20.52
-22.34
-23.41
-24.82
-27.64
-32.49
-38.98
-45.84
-51.43
-54.4
-54.06
-50.42
-43.99
-35.5
-25.79
-15.88
-6.84
0.35
5.19
7.79
8.9
9.53
10.6
12.62
15.65
19.39
23.3
26.76
29.08
29.73
28.46
25.46
21.39
17.26
14.18
13.06
14.43
18.06
23.13
28.37
32.6
35.32
36.82
38.01
39.87
42.82
46.59
50.5
53.92
56.67
58.96
61.05
62.99
64.41
64.83
63.9
61.63
58.23
53.95
48.84
42.79
35.78
28.04
20.11
12.66
6.26
1.16
-2.72
-5.63
-7.87
-9.69
-11.39
-13.33
-15.93
-19.44
-23.68
-27.93
-31.06
-31.92
-29.84
-24.91
-18.03
-10.56
-3.88
1.06
3.87
4.76
4.29
3.31
2.7
3.33
5.85
10.53
17.14
24.94
32.86
39.82
44.96
47.85
48.53
47.34
44.79
41.35
37.39
33.11
28.53
23.56
18.04
11.95
5.5
-0.78
-6.04
-9.4
-10.19
-8.22
-3.84
2.24
9.06
15.75
21.58
25.97
28.51
29.01
27.49
24.36
20.27
16.06
12.49
9.96
8.43
7.45
6.35
4.48
1.48
-2.61
-7.34
-11.92
-15.47
-17.19
-16.72
-14.13
-9.92
-4.73
0.94
6.85
13.03
19.54
26.18
32.45
37.57
40.85
41.97
41.1
38.78
35.62
32.1
28.45
24.87
21.61
18.97
17.13
15.85
14.4
11.84
7.52
1.53
-5.16
-11.09
-14.96
-16.22
-15.35
-13.56
-12.2
-12.15
-13.61
-16.18
-19.21
-22.1
-24.38
-25.64
-25.5
-23.56
-19.64
-13.84
-6.63
1.27
9.11
16.34
22.65
28.01
32.44
35.97
38.53
40.06
40.61
40.42
39.9
39.42
39.08
38.57
37.28
34.53
29.95
23.67
16.31
8.85
2.21
-3.02
-6.79
-9.67
-12.69
-16.92
-23.02
-30.86
-39.62
-48.09
-55.39
-61.33
-66.46
-71.41
-76.36
-80.63
-83.06
-82.73
-79.76
-75.4
-71.53
-69.85
-71.06
-74.65
-79.33
-83.64
-86.62
-88.05
-88.32
-88.2
-88.47
-89.71
-92.2
-95.95
-100.77
-106.36
-112.38
-118.4
-123.85
-128.04
-130.32
-130.42
-128.65
-125.68
-122.18
-118.2
-112.91
-104.93
-93.0
-76.71
-56.85
-34.95
-12.71
8.66
28.48
46.41
61.92
74.31
82.99
87.95
90.08
90.95
92.34
95.51
100.85
107.69
114.68
120.21
122.9
121.92
117.05
108.63
97.28
83.71
68.56
52.38
35.75
19.39
4.11
-9.26
-20.07
-28.0
-33.04
-35.45
-35.56
-33.72
-30.17
-25.07
-18.64
-11.21
-3.35
4.26
10.9
16.08
19.58
21.39
21.51
19.85
16.38
11.36
5.66
0.64
-2.2
-1.85
1.78
7.75
14.5
20.42
24.26
25.32
23.3
18.26
10.51
0.86
-9.36
-18.36
-24.2
-25.37
-21.22
-12.25
-0.04
13.19
25.24
34.6
40.86
44.65
47.07
49.08
51.06
52.72
53.45
52.81
50.73
47.49
43.46
38.83
33.56
27.51
20.62
12.95
4.7
-3.99
-13.03
-22.49
-32.57
-43.52
-55.28
-67.12
-77.36
-83.54
-83.03
-74.11
-56.85
-33.58
-8.42
13.96
29.79
37.36
37.39
32.4
25.6
19.7
16.09
14.75
14.67
14.45
13.0
9.81
4.93
-1.15
-7.77
-14.23
-19.91
-24.32
-27.27
-28.84
-29.37
-29.37
-29.52
-30.51
-32.93
-36.85
-41.53
-45.4
-46.45
-43.09
-34.9
-22.95
-9.5
2.88
12.24
17.76
19.84
19.52
17.94
15.93
13.92
12.29
11.47
11.99
14.28
18.37
23.78
29.65
35.17
39.98
44.38
49.14
55.04
62.26
70.08
77.05
81.41
81.81
77.79
69.94
59.77
49.26
40.3
34.23
31.51
31.8
34.18
37.63
41.32
44.83
47.96
50.64
52.71
53.95
54.23
53.54
52.03
49.9
47.24
43.99
39.95
34.85
28.48
20.75
11.72
1.59
-9.32
-20.68
-32.21
-43.78
-55.38
-67.01
-78.4
-88.92
-97.49
-102.78
-103.51
-98.91
-88.99
-74.6
-57.33
-38.93
-20.84
-3.76
12.3
27.64
42.35
55.99
67.58
76.14
81.16
82.94
82.39
80.56
78.09
75.14
71.43
66.84
61.69
56.79
53.16
51.54
52.02
53.8
55.53
55.61
52.76
46.26
36.08
22.85
7.67
-7.99
-22.42
-34.01
-41.56
-44.55
-43.36
-39.09
-33.18
-27.02
-21.6
-17.43
-14.57
-12.84
-11.94
-11.59
-11.59
-11.86
-12.44
-13.45
-14.99
-17.1
-19.63
-22.18
-24.07
-24.48
-22.71
-18.43
-11.98
-4.37
3.05
9.0
12.7
13.94
12.98
10.33
6.6
2.48
-1.2
-3.43
-3.21
0.19
7.02
16.88
28.95
42.11
55.13
66.8
75.99
81.75
83.4
80.65
73.67
63.09
49.92
35.48
21.12
7.98
-3.23
-12.42
-19.91
-26.29
-32.04
-37.42
-42.45
-47.09
-51.4
-55.6
-60.0
-64.81
-70.06
-75.47
-80.47
-84.24
-85.76
-84.03
-78.29
-68.3
-54.45
-37.84
-19.99
-2.57
12.98
25.61
34.79
40.51
43.18
43.57
42.61
41.21
40.13
39.87
40.66
42.42
44.86
47.4
49.24
49.45
47.17
41.84
33.33
22.0
8.61
-5.79
-20.09
-33.22
-44.32
-52.82
-58.48
-61.43
-61.95
-60.45
-57.3
-52.83
-47.33
-41.15
-34.62
-28.09
-21.79
-15.86
-10.38
-5.41
-1.01
2.8
6.12
9.2
12.43
16.25
21.03
26.98
33.97
41.58
49.07
55.44
59.76
61.35
60.0
56.0
50.05
43.0
35.7
28.92
23.31
19.48
17.87
18.63
21.61
26.36
32.33
39.04
46.23
53.73
61.38
68.8
75.46
80.74
84.13
85.34
84.27
80.91
75.27
67.35
57.18
44.93
31.14
16.67
2.64
-9.88
-20.17
-28.07
-34.02
-38.75
-43.03
-47.22
-51.32
-55.07
-58.12
-60.26
-61.29
-60.99
-59.0
-54.94
-48.7
-40.64
-31.56
-22.45
-14.16
-7.2
-1.74
2.19
4.64
5.62
5.21
3.66
1.3
-1.62
-5.07
-9.23
-14.28
-20.17
-26.42
-32.19
-36.6
-39.07
-39.57
-38.59
-36.95
-35.4
-34.47
-34.36
-35.0
-36.15
-37.53
-38.75
-39.33
-38.81
-36.85
-33.54
-29.47
-25.67
-23.36
-23.45
-26.18
-30.95
-36.51
-41.36
-44.21
-44.31
-41.64
-36.73
-30.45
-23.71
-17.06
-10.69
-4.4
1.96
8.32
14.28
19.34
23.25
26.18
28.62
30.92
32.95
33.94
32.8
28.69
21.48
11.93
1.38
-8.56
-16.41
-20.95
-21.39
-17.52
-9.87
0.16
10.61
19.56
25.6
28.27
27.91
25.36
21.47
16.94
12.21
7.55
3.14
-1.05
-5.3
-10.01
-15.57
-22.09
-29.23
-36.39
-42.81
-47.93
-51.49
-53.52
-54.33
-54.28
-53.72
-52.94
-52.06
-51.05
-49.57
-47.07
-42.88
-36.5
-27.87
-17.5
-6.39
4.3
13.54
20.74
25.7
28.61
29.75
29.46
28.08
25.97
23.5
20.99
18.62
16.29
13.76
10.74
7.03
2.57
-2.57
-8.25
-14.28
-20.43
-26.45
-32.19
-37.72
-43.39
-49.75
-57.25
-65.99
-75.53
-85.07
-93.68
-100.8
-106.34
-110.62
-114.09
-116.93
-118.94
-119.58
-118.28
-114.67
-108.73
-100.77
-91.18
-80.3
-68.38
-55.63
-42.34
-29.08
-16.6
-5.7
2.98
9.17
13.0
14.9
15.39
14.98
14.06
12.95
11.91
11.15
10.72
10.5
10.19
9.58
8.67
7.89
7.91
9.44
12.91
18.26
25.0
32.37
39.6
46.12
51.59
55.91
59.08
61.15
62.19
62.26
61.45
59.86
57.66
55.08
52.31
49.53
46.81
44.11
41.32
38.28
34.88
31.11
27.1
23.17
19.72
17.12
15.56
15.0
15.27
16.22
17.88
20.4
24.01
28.7
34.21
40.02
45.54
50.3
54.02
56.67
58.34
59.22
59.6
59.82
60.17
60.77
61.43
61.6
60.61
57.87
53.14
46.57
38.58
29.72
20.33
10.54
0.25
-10.53
-21.58
-32.29
-41.84
-49.42
-54.54
-57.16
-57.56
-56.22
-53.57
-49.87
-45.26
-39.82
-33.65
-26.89
-19.64
-11.98
-3.95
4.37
12.81
21.05
28.7
35.34
40.6
44.21
46.09
46.36
45.3
43.24
40.46
37.15
33.41
29.29
24.84
20.11
15.08
9.63
3.51
-3.65
-12.17
-22.2
-33.67
-46.21
-59.22
-71.96
-83.57
-93.2
-100.07
-103.68
-103.9
-100.98
-95.51
-88.2
-79.75
-70.68
-61.34
-51.95
-42.82
-34.39
-27.26
-22.03
-19.17
-18.77
-20.56
-23.87
-27.74
-31.13
-33.07
-32.91
-30.36
-25.62
-19.27
-12.08
-4.83
1.92
7.89
13.09
17.67
21.79
25.61
29.18
32.51
35.52
38.18
40.49
42.56
44.73
47.41
50.83
54.82
58.7
61.44
62.05
59.92
55.13
48.22
40.03
31.27
22.42
13.76
5.49
-2.13
-8.81
-14.4
-18.97
-22.84
-26.53
-30.63
-35.62
-41.67
-48.54
-55.53
-61.7
-66.03
-67.68
-66.08
-60.94
-52.18
-39.97
-24.77
-7.61
9.97
26.09
39.06
47.84
52.3
53.11
51.26
47.58
42.48
35.91
27.72
17.91
6.78
-4.98
-16.5
-26.8
-34.88
-39.88
-41.16
-38.58
-32.6
-24.34
-15.26
-6.76
0.26
5.76
10.44
15.41
21.73
29.96
40.01
51.16
62.36
72.52
80.57
85.54
86.51
82.77
74.01
60.71
44.25
26.73
10.52
-2.33
-10.59
-14.06
-13.46
-10.16
-5.71
-1.42
1.89
3.95
4.93
5.07
4.41
2.68
-0.63
-5.99
-13.61
-23.17
-33.91
-44.62
-53.86
-60.21
-62.54
-60.28
-53.61
-43.44
-31.18
-18.35
-6.26
4.19
12.56
18.79
23.0
25.54
26.72
26.77
25.78
23.71
20.56
16.48
11.84
7.16
2.94
-0.53
-3.21
-5.36
-7.41
-9.92
-13.37
-18.0
-23.7
-30.0
-36.19
-41.56
-45.54
-47.76
-47.9
-45.64
-40.72
-33.14
-23.37
-12.4
-1.48
8.2
15.86
21.24
24.43
25.69
25.26
23.34
20.21
16.25
11.97
7.96
4.77
2.86
2.47
3.56
5.8
8.73
11.87
14.93
17.75
20.18
21.73
21.56
18.6
12.07
1.96
-10.69
-24.08
-36.19
-45.4
-50.94
-52.86
-51.84
-48.74
-44.33
-39.13
-33.44
-27.3
-20.55
-12.79
-3.44
7.96
21.5
36.64
52.22
66.74
78.81
87.52
92.63
94.44
93.43
89.98
84.15
75.82
65.0
52.16
38.37
25.19
14.24
6.81
3.39
3.58
6.2
9.66
12.44
13.5
12.56
10.07
6.96
4.25
2.7
2.6
3.77
5.71
7.78
9.33
9.75
8.55
5.41
0.36
-6.15
-13.28
-20.09
-25.84
-30.3
-33.62
-36.15
-37.96
-38.68
-37.58
-33.86
-27.08
-17.4
-5.57
7.12
19.19
29.16
35.86
38.71
37.94
34.56
30.13
26.35
24.54
25.36
28.74
34.11
40.66
47.64
54.4
60.37
65.07
68.05
68.95
67.61
64.02
58.46
51.43
43.65
35.84
28.53
21.83
15.48
9.05
2.28
-4.68
-11.33
-17.07
-21.63
-25.25
-28.6
-32.51
-37.6
-44.04
-51.53
-59.45
-66.89
-72.75
-75.8
-74.87
-69.11
-58.4
-43.51
-26.01
-7.92
8.92
23.25
34.63
43.4
50.41
56.6
62.76
69.38
76.54
83.97
91.07
96.87
100.19
99.76
94.51
83.97
68.45
49.11
27.75
6.39
-13.22
-29.98
-43.65
-54.76
-64.38
-73.71
-83.59
-94.18
-104.71
-113.7
-119.35
-120.15
-115.46
-105.66
-92.06
-76.36
-60.25
-44.94
-31.2
-19.38
-9.63
-1.97
3.61
7.16
8.69
8.29
6.29
3.4
0.76
-0.28
1.32
5.94
13.09
21.66
30.35
38.15
44.54
49.38
52.73
54.57
54.83
53.43
50.54
46.56
42.16
38.02
34.73
32.69
32.07
32.87
34.95
38.12
42.1
46.58
51.14
55.24
58.18
59.24
57.81
53.55
46.54
37.25
26.49
15.2
4.24
-5.77
-14.66
-22.5
-29.54
-35.97
-41.94
-47.63
-53.47
-60.25
-68.83
-79.74
-92.66
-106.17
-118.01
-125.81
-127.78
-123.4
-113.34
-99.21
-82.89
-66.05
-49.82
-34.77
-21.05
-8.64
2.57
12.55
21.2
28.27
33.46
36.53
37.35
36.05
33.0
28.79
24.15
19.73
15.98
12.95
10.23
7.06
2.58
-3.89
-12.66
-23.59
-36.21
-49.86
-63.7
-76.68
-87.58
-95.18
-98.56
-97.46
-92.41
-84.66
-75.84
-67.42
-60.2
-54.05
-47.82
-39.84
-28.55
-13.31
5.17
24.94
43.45
58.53
69.03
75.02
77.32
76.86
74.21
69.61
63.36
56.16
49.09
43.29
39.41
37.4
36.61
36.12
35.22
33.58
31.22
28.34
25.17
21.92
18.78
15.91
13.39
11.24
9.37
7.72
6.25
4.94
3.71
2.29
0.25
-2.85
-7.15
-12.28
-17.41
-21.62
-24.23
-25.21
-25.05
-24.58
-24.49
-25.01
-25.8
-26.09
-25.08
-22.3
-17.78
-11.97
-5.51
1.04
7.26
12.78
17.24
20.27
21.7
21.77
21.24
21.31
23.32
28.3
36.56
47.58
60.04
72.23
82.49
89.63
93.12
93.11
90.2
85.16
78.63
71.04
62.61
53.5
43.92
34.17
24.59
15.52
7.16
-0.43
-7.41
-14.05
-20.68
-27.46
-34.35
-41.04
-47.09
-52.04
-55.59
-57.65
-58.36
-58.09
-57.32
-56.54
-56.03
-55.7
-54.97
-52.94
-48.61
-41.22
-30.57
-16.96
-1.19
15.69
32.52
48.11
61.32
71.2
77.12
78.93
76.99
72.12
65.43
58.1
51.27
45.76
41.95
39.59
37.79
35.27
30.78
23.58
13.71
2.0
-10.38
-22.24
-32.79
-41.65
-48.81
-54.47
-59.01
-62.93
-66.92
-71.69
-77.79
-85.29
-93.55
-101.33
-107.07
-109.42
-107.67
-101.94
-93.09
-82.39
-71.08
-59.89
-48.92
-37.8
-26.07
-13.62
-0.88
11.34
22.26
31.56
39.65
47.41
55.71
64.78
73.99
81.93
86.99
87.98
84.55
77.2
67.02
55.23
42.96
31.08
20.3
11.22
4.26
-0.36
-2.83
-3.63
-3.42
-2.77
-1.93
-0.87
0.62
2.65
5.05
7.25
8.45
7.85
4.93
-0.28
-7.22
-14.98
-22.61
-29.4
-35.07
-39.8
-44.04
-48.25
-52.66
-57.05
-60.78
-62.98
-62.78
-59.61
-53.41
-44.66
-34.27
-23.35
-12.96
-3.96
3.07
7.87
10.43
10.91
9.67
7.14
3.82
0.3
-2.8
-4.83
-5.22
-3.66
-0.29
4.34
9.36
13.96
17.65
20.38
22.31
23.54
23.91
23.02
20.57
16.58
11.6
6.48
2.06
-1.19
-3.39
-5.12
-7.12
-9.93
-13.62
-17.78
-21.69
-24.64
-26.17
-26.26
-25.26
-23.78
-22.37
-21.53
-21.57
-22.68
-24.76
-27.32
-29.37
-29.61
-26.85
-20.47
-10.79
1.06
13.45
24.88
34.32
41.34
45.95
48.37
48.8
47.42
44.39
39.97
34.54
28.57
22.5
16.65
11.2
6.15
1.33
-3.45
-8.31
-13.17
-17.79
-21.89
-25.31
-28.15
-30.71
-33.35
-36.37
-39.92
-44.05
-48.71
-53.83
-59.18
-64.32
-68.6
-71.25
-71.59
-69.26
-64.35
-57.34
-48.93
-39.86
-30.67
-21.65
-12.78
-3.86
5.3
14.74
24.22
33.3
41.5
48.48
54.15
58.59
61.87
63.96
64.65
63.78
61.39
57.85
53.74
49.61
45.63
41.42
36.16
28.89
18.99
6.54
-7.67
-22.35
-36.12
-47.86
-56.83
-62.69
-65.33
-64.76
-61.15
-54.9
-46.75
-37.66
-28.65
-20.54
-13.71
-8.17
-3.66
0.09
3.16
5.42
6.59
6.36
4.58
1.28
-3.28
-8.67
-14.29
-19.43
-23.37
-25.46
-25.28
-22.74
-18.18
-12.34
-6.24
-0.98
2.52
3.81
2.99
0.74
-1.94
-3.97
-4.47
-2.96
0.62
5.94
12.43
19.37
25.89
31.13
34.32
35.06
33.32
29.53
24.4
18.58
12.48
6.04
-1.16
-9.63
-19.58
-30.78
-42.51
-53.77
-63.6
-71.22
-76.08
-77.84
-76.21
-71.03
-62.51
-51.39
-39.02
-27.2
-17.56
-11.02
-7.38
-5.32
-2.89
1.7
9.49
20.51
33.88
48.31
62.52
75.5
86.57
95.2
100.94
103.47
102.63
98.57
91.77
83.04
73.41
63.9
55.3
48.0
41.89
36.45
31.07
25.31
19.15
12.9
7.02
1.73
-3.11
-8.0
-13.57
-20.32
-28.4
-37.56
-47.27
-56.8
-65.31
-71.79
-75.08
-74.03
-67.9
-56.69
-41.41
-23.89
-6.29
9.49
22.21
31.3
36.69
38.55
37.28
33.66
28.93
24.73
22.6
23.53
27.61
34.09
41.68
48.87
54.26
56.8
56.03
52.23
46.35
39.75
33.61
28.5
24.24
20.11
15.33
9.54
2.84
-4.31
-11.43
-18.02
-23.58
-27.5
-29.07
-27.89
-24.07
-18.43
-12.22
-6.65
-2.54
0.03
1.5
2.54
3.64
4.85
5.77
5.79
4.36
1.29
-3.09
-8.07
-12.73
-16.3
-18.31
-18.6
-17.16
-14.01
-9.15
-2.71
4.98
13.19
21.03
27.68
32.72
36.25
38.87
41.34
44.33
48.11
52.38
56.39
59.15
59.71
57.58
52.79
46.01
38.23
30.49
23.64
18.08
13.81
10.42
7.26
3.51
-1.57
-8.55
-17.65
-28.61
-40.7
-52.87
-63.95
-73.01
-79.55
-83.69
-86.08
-87.64
-89.23
-91.42
-94.27
-97.41
-100.15
-101.65
-101.0
-97.34
-90.0
-78.68
-63.54
-45.26
-24.83
-3.33
18.2
38.91
58.01
74.8
88.64
99.07
105.9
109.28
109.56
107.18
102.49
95.71
87.02
76.65
65.01
52.69
40.38
28.74
18.28
9.27
1.58
-5.25
-11.99
-19.56
-28.72
-39.77
-52.33
-65.31
-77.1
-85.96
-90.4
-89.58
-83.43
-72.61
-58.38
-42.43
-26.55
-12.4
-1.21
6.51
11.03
13.28
14.47
15.72
17.72
20.65
24.31
28.29
32.13
35.46
38.12
40.25
42.29
44.88
48.63
53.78
59.99
66.32
71.5
74.25
73.7
69.52
61.98
51.86
40.3
28.67
18.34
10.42
5.61
4.07
5.45
9.13
14.36
20.46
26.85
33.06
38.8
43.84
48.04
51.28
53.37
54.1
53.3
50.9
47.04
41.94
35.88
29.05
21.54
13.49
5.18
-2.95
-10.32
-16.48
-21.21
-24.56
-26.76
-28.05
-28.61
-28.54
-27.96
-26.98
-25.69
-24.13
-22.15
-19.49
-15.78
-10.74
-4.27
3.38
11.65
19.73
26.81
32.29
35.9
37.7
37.97
36.99
34.95
31.83
27.46
21.71
14.6
6.48
-1.95
-9.77
-16.01
-19.99
-21.51
-20.96
-19.13
-16.99
-15.35
-14.71
-15.29
-17.11
-20.25
-24.86
-31.1
-39.02
-48.45
-59.05
-70.39
-81.99
-93.34
-103.74
-112.21
-117.52
-118.42
-114.1
-104.62
-91.02
-75.1
-58.87
-43.97
-31.18
-20.4
-10.83
-1.44
8.6
19.65
31.44
43.25
54.06
62.93
69.18
72.5
72.99
71.05
67.23
62.14
56.23
49.73
42.59
34.5
25.08
13.99
1.1
-13.43
-29.27
-45.94
-62.83
-79.3
-94.64
-108.1
-118.95
-126.5
-130.14
-129.46
-124.41
-115.4
-103.34
-89.46
-74.97
-60.8
-47.49
-35.25
-24.24
-14.66
-6.81
-0.95
2.86
4.7
4.76
3.31
0.78
-2.16
-4.52
-5.21
-3.35
1.39
8.58
17.14
25.62
32.61
37.01
38.23
36.22
31.4
24.58
16.75
8.92
1.76
-4.41
-9.72
-14.55
-19.18
-23.48
-26.72
-27.64
-24.88
-17.44
-5.18
11.08
29.65
48.34
64.91
77.46
84.71
86.27
82.61
75.06
65.42
55.6
47.11
40.75
36.42
33.36
30.39
26.33
20.31
11.85
1.02
-11.59
-24.89
-37.32
-47.2
-53.13
-54.46
-51.54
-45.64
-38.52
-31.82
-26.58
-23.14
-21.31
-20.85
-21.74
-24.25
-28.65
-34.88
-42.23
-49.37
-54.67
-56.68
-54.5
-48.0
-37.81
-25.12
-11.39
1.99
13.93
23.78
31.38
36.97
40.98
43.86
45.92
47.28
47.96
47.94
47.26
45.92
43.88
41.0
37.14
32.38
27.16
22.2
18.26
15.82
14.83
14.76
14.91
14.77
14.3
14.02
14.65
16.79
20.55
25.48
30.62
34.85
37.15
36.83
33.76
28.46
22.07
16.14
12.28
11.73
15.14
22.41
32.87
45.44
58.77
71.46
82.25
90.22
94.96
96.61
95.62
92.58
87.88
81.69
73.96
64.58
53.56
41.09
27.52
13.41
-0.52
-13.38
-24.26
-32.49
-37.89
-40.91
-42.52
-43.89
-45.89
-48.68
-51.62
-53.42
-52.66
-48.41
-40.64
-30.31
-19.06
-8.64
-0.46
4.67
6.6
5.68
2.66
-1.37
-5.02
-6.75
-5.14
0.67
10.68
24.0
39.08
54.14
67.69
78.72
86.76
91.69
93.49
92.2
87.98
81.19
72.36
62.02
50.48
37.74
23.67
8.25
-8.06
-24.31
-39.28
-51.81
-61.17
-67.28
-70.72
-72.47
-73.68
-75.37
-78.21
-82.55
-88.48
-95.94
-104.75
-114.53
-124.52
-133.58
-140.29
-143.23
-141.46
-134.7
-123.44
-108.73
-92.04
-74.99
-59.25
-46.32
-37.2
-32.18
-30.49
-30.56
-30.32
-27.92
-22.21
-13.06
-1.3
11.73
24.54
35.93
45.13
51.79
55.85
57.37
56.5
53.5
48.78
42.92
36.68
30.8
25.76
21.64
18.02
14.25
9.79
4.52
-1.17
-6.5
-10.83
-13.88
-16.01
-18.03
-20.77
-24.72
-29.8
-35.37
-40.55
-44.33
-45.86
-44.42
-39.5
-30.89
-18.7
-3.52
13.62
31.4
48.35
63.15
74.71
82.36
85.81
85.27
81.47
75.52
68.74
62.28
56.75
52.17
48.03
43.73
38.91
33.61
28.19
22.99
18.18
13.71
9.51
5.68
2.56
0.51
-0.33
-0.27
-0.01
-0.44
-2.37
-6.29
-12.35
-20.42
-30.16
-41.22
-53.1
-65.23
-76.81
-86.83
-94.22
-98.15
-98.35
-95.31
-90.16
-84.3
-78.78
-74.0
-69.58
-64.73
-58.64
-50.91
-41.52
-30.79
-19.12
-6.92
5.38
17.33
28.46
38.31
46.57
53.03
57.64
60.51
61.9
62.23
62.05
61.87
61.97
62.32
62.61
62.4
61.36
59.33
56.31
52.35
47.52
42.0
36.15
30.58
25.96
22.75
20.93
19.98
18.99
17.06
13.49
7.86
-0.11
-10.75
-24.37
-41.02
-60.15
-80.5
-100.17
-117.12
-129.56
-136.41
-137.39
-132.92
-123.91
-111.53
-97.11
-81.97
-67.4
-54.44
-43.69
-35.23
-28.5
-22.52
-16.18
-8.59
0.58
11.01
21.88
32.21
41.18
48.28
53.33
56.38
57.62
57.34
56.02
54.25
52.61
51.4
50.56
49.6
47.95
45.15
41.11
36.05
30.26
23.97
17.22
10.02
2.48
-5.12
-12.43
-19.23
-25.55
-31.73
-38.11
-44.81
-51.53
-57.59
-62.2
-64.75
-65.08
-63.47
-60.46
-56.58
-52.03
-46.75
-40.49
-33.1
-24.71
-15.71
-6.55
2.4
11.06
19.48
27.71
35.79
43.66
51.28
58.54
65.23
70.92
74.96
76.76
75.97
72.71
67.47
60.86
53.44
45.59
37.51
29.36
21.28
13.26
5.18
-3.24
-12.18
-21.59
-31.1
-40.04
-47.72
-53.58
-57.33
-58.89
-58.37
-55.96
-51.86
-46.29
-39.38
-31.16
-21.4
-9.76
4.08
20.14
37.85
56.03
72.92
86.63
95.55
98.74
96.13
88.41
76.91
63.31
49.51
37.54
29.3
26.14
28.15
33.89
40.46
44.36
42.72
34.32
19.91
1.72
-17.65
-36.07
-52.33
-65.88
-76.43
-83.7
-87.64
-88.69
-87.98
-87.06
-87.44
-90.14
-95.49
-103.11
-112.0
-120.61
-126.98
-129.09
-125.25
-114.72
-97.97
-76.58
-52.82
-28.96
-6.87
12.25
27.75
39.42
47.3
51.69
53.14
52.34
50.03
46.79
42.96
38.61
33.73
28.4
23.07
18.58
16.0
16.36
20.24
27.53
37.34
48.21
58.5
66.8
72.32
74.9
74.97
73.19
70.21
66.58
62.69
58.8
55.12
51.86
49.24
47.6
47.27
48.52
51.37
55.52
60.39
65.3
69.7
73.33
76.12
78.03
78.84
78.06
75.13
69.61
61.4
50.84
38.54
25.24
11.65
-1.67
-14.34
-26.19
-37.09
-47.03
-56.03
-64.07
-71.13
-77.17
-82.12
-85.89
-88.33
-89.28
-88.51
-85.73
-80.7
-73.27
-63.53
-51.93
-39.19
-26.13
-13.5
-1.83
8.49
17.18
24.07
29.11
32.45
34.54
35.94
37.2
38.61
40.18
41.65
42.76
43.38
43.55
43.48
43.36
43.36
43.59
44.17
45.17
46.56
48.02
48.98
48.78
46.88
43.18
38.03
32.2
26.46
21.4
17.2
13.68
10.36
6.65
1.9
-4.44
-12.63
-22.34
-32.54
-41.54
-47.46
-48.8
-45.0
-36.68
-25.4
-13.18
-1.94
6.9
12.57
14.84
13.89
10.31
5.06
-0.65
-5.51
-8.5
-9.2
-7.91
-5.51
-3.13
-1.76
-1.96
-3.81
-7.02
-11.13
-15.63
-20.03
-23.9
-26.83
-28.53
-28.87
-28.08
-26.69
-25.52
-25.42
-26.9
-29.87
-33.65
-37.19
-39.47
-39.88
-38.42
-35.45
-31.48
-26.91
-21.89
-16.49
-10.99
-5.99
-2.36
-0.98
-2.33
-6.27
-12.03
-18.45
-24.34
-28.8
-31.29
-31.63
-29.88
-26.27
-21.28
-15.72
-10.68
-7.35
-6.62
-8.72
-13.09
-18.46
-23.41
-26.82
-28.24
-27.8
-26.0
-23.28
-19.89
-15.89
-11.36
-6.54
-1.73
2.9
7.39
12.07
17.32
23.28
29.63
35.61
40.28
42.85
43.02
41.1
37.91
34.5
31.71
29.92
28.96
28.26
27.15
25.1
21.82
17.28
11.59
4.94
-2.44
-10.34
-18.5
-26.54
-33.83
-39.41
-42.16
-41.08
-35.7
-26.48
-14.75
-2.5
8.32
16.25
20.76
22.29
21.96
21.19
21.24
22.89
26.38
31.43
37.44
43.67
49.29
53.41
55.11
53.68
48.88
41.22
32.04
23.05
15.78
10.87
7.76
4.9
0.33
-7.5
-19.12
-33.81
-49.77
-64.68
-76.38
-83.5
-85.83
-84.22
-80.26
-75.55
-71.19
-67.52
-64.19
-60.63
-56.54
-52.08
-47.77
-44.15
-41.35
-39.01
-36.35
-32.56
-27.16
-20.17
-12.04
-3.45
4.76
11.69
16.34
17.77
15.41
9.43
1.04
-7.7
-14.47
-17.53
-16.34
-11.62
-4.82
2.65
9.94
16.82
23.25
29.04
33.66
36.64
37.95
38.3
38.85
40.62
43.93
48.18
52.19
54.73
55.1
53.33
49.99
45.9
41.72
37.76
33.99
30.15
25.96
21.25
16.01
10.4
4.6
-1.26
-7.17
-13.24
-19.56
-26.08
-32.52
-38.41
-43.23
-46.49
-47.88
-47.26
-44.65
-40.11
-33.86
-26.17
-17.46
-8.18
1.25
10.53
19.49
28.0
35.83
42.58
47.65
50.4
50.34
47.32
41.68
34.3
26.33
19.0
13.22
9.32
7.04
5.64
4.23
2.14
-0.87
-4.6
-8.58
-12.26
-15.24
-17.35
-18.74
-19.8
-21.01
-22.77
-25.15
-27.87
-30.32
-31.72
-31.43
-29.12
-24.88
-19.07
-12.13
-4.46
3.55
11.34
18.13
23.0
25.19
24.43
21.1
16.2
10.98
6.62
3.9
3.15
4.23
6.76
10.14
13.73
16.86
18.99
19.8
19.22
17.47
14.99
12.35
10.07
8.49
7.62
7.28
7.28
7.69
8.98
11.79
16.6
23.29
31.1
38.68
44.6
47.65
47.12
42.73
34.6
23.18
9.36
-5.54
-19.9
-32.12
-41.06
-46.34
-48.3
-47.84
-46.01
-43.67
-41.39
-39.43
-37.91
-36.86
-36.34
-36.22
-36.13
-35.57
-34.03
-31.44
-28.32
-25.71
-24.81
-26.32
-30.01
-34.6
-38.18
-38.9
-35.66
-28.53
-18.6
-7.54
3.01
11.91
18.59
22.95
25.15
25.33
23.75
20.8
17.16
13.7
11.25
10.25
10.58
11.59
12.38
12.14
10.48
7.5
3.73
-0.14
-3.5
-5.9
-7.22
-7.61
-7.43
-7.25
-7.67
-9.23
-12.29
-16.83
-22.42
-28.1
-32.61
-34.66
-33.28
-28.16
-19.7
-8.94
2.77
14.01
23.6
30.72
35.06
36.75
36.43
35.05
33.66
33.13
33.86
35.7
38.03
40.05
41.06
40.76
39.27
37.13
34.99
33.38
32.46
31.93
31.1
29.09
25.17
18.93
10.37
-0.07
-11.7
-23.69
-35.2
-45.49
-54.02
-60.46
-64.62
-66.34
-65.34
-61.29
-53.98
-43.5
-30.39
-15.55
-0.06
15.11
29.19
41.69
52.24
60.49
66.14
68.99
69.16
67.1
63.57
59.33
54.96
50.72
46.51
42.03
37.03
31.52
25.8
20.45
16.0
12.72
10.45
8.66
6.58
3.36
-1.73
-9.3
-19.67
-32.66
-47.34
-61.93
-74.06
-81.29
-81.96
-75.86
-64.38
-50.07
-35.85
-24.13
-16.26
-12.4
-11.75
-12.91
-14.34
-14.59
-12.68
-8.25
-1.62
6.41
14.85
22.83
29.73
35.19
39.08
41.35
42.11
41.61
40.18
38.08
35.39
31.89
27.2
21.07
13.55
5.12
-3.45
-11.36
-17.92
-22.64
-25.23
-25.66
-24.29
-22.05
-20.42
-20.97
-24.73
-31.53
-39.82
-47.15
-51.27
-51.04
-47.03
-41.08
-35.44
-31.66
-30.14
-30.12
-30.28
-29.38
-26.68
-22.05
-15.82
-8.64
-1.26
5.58
11.24
