2013-02-23 18:55:02
64.0
-0.0
-0.0
-0.0
-0.0
-0.0
-0.0
-0.0
-0.0
-0.0
-0.0
0.0
0.01
0.01
-0.0
-0.03
-0.05
-0.05
0.0
0.13
0.36
0.66
1.01
1.37
1.72
2.06
2.4
2.79
3.24
3.8
4.42
5.06
5.66
6.2
6.68
7.15
7.68
8.31
9.14
10.09
11.04
11.88
12.56
13.14
13.76
14.65
15.96
17.91
20.32
22.9
25.38
27.58
29.57
31.68
34.32
37.81
42.54
48.15
54.1
59.83
64.97
69.58
74.14
79.34
85.71
93.76
103.0
112.62
121.73
129.77
136.75
143.3
150.75
157.77
166.64
177.95
191.79
206.97
220.57
228.25
225.36
208.53
176.87
132.76
80.05
23.07
-34.94
-92.44
-149.16
-205.23
-260.37
-313.74
-363.87
-409.83
-450.91
-486.5
-515.74
-537.23
-549.22
-549.96
-538.37
-514.21
-478.67
-433.88
-382.45
-327.02
-269.84
-212.63
-156.66
-102.95
-52.37
-5.9
35.58
71.43
101.35
125.5
144.38
158.69
169.15
176.37
180.75
182.57
182.07
179.51
175.23
169.65
163.18
156.15
148.81
141.3
133.69
126.02
118.33
110.69
103.15
95.79
88.68
81.85
75.29
69.01
62.99
57.21
51.7
46.49
41.61
37.09
32.96
29.19
25.73
22.53
19.53
16.73
14.15
11.83
9.82
8.13
6.74
5.55
4.47
3.41
2.35
1.33
0.47
-0.12
-0.39
-0.41
-0.35
-0.46
-0.93
-1.79
-2.85
-3.79
-4.3
-4.2
-3.63
-2.98
-2.78
-3.4
-4.9
-6.88
-8.69
-9.67
-9.5
-8.4
-7.11
-6.52
-7.31
-9.57
-12.7
-15.61
-17.35
-17.42
-16.08
-14.21
-12.85
-12.86
-14.67
-18.39
-23.69
-29.54
-33.96
-34.22
-27.74
-13.58
6.51
28.22
46.16
56.13
56.84
50.14
39.72
29.13
20.3
13.43
7.95
3.61
1.0
1.07
4.29
9.87
16.09
20.96
23.2
22.71
20.46
17.8
15.8
14.81
14.47
14.11
13.12
11.3
8.92
6.51
4.76
4.32
5.69
9.06
14.17
19.86
24.43
26.06
23.55
17.0
8.0
-0.82
-6.84
-8.51
-6.04
-1.23
3.43
5.79
5.06
1.82
-2.33
-5.8
-7.66
-8.15
-8.46
-10.19
-14.64
-21.98
-31.09
-40.05
-47.06
-51.3
-53.29
-54.21
-54.92
-55.3
-54.23
-50.61
-44.5
-37.57
-32.5
-31.46
-34.61
-39.67
-42.86
-40.64
-31.37
-15.85
3.2
22.55
39.51
52.62
61.38
65.63
65.11
59.55
49.03
34.44
17.59
0.81
-13.69
-24.59
-31.79
-36.03
-38.39
-39.77
-40.55
-40.7
-40.81
-41.21
-42.3
-44.26
-46.95
-49.88
-52.54
-54.67
-56.35
-57.79
-58.76
-58.5
-55.74
-49.29
-38.63
-24.36
-8.02
8.48
23.53
36.37
47.01
55.83
63.13
68.85
72.71
74.58
74.79
74.21
73.91
74.46
75.57
76.16
74.9
71.02
64.77
57.39
50.52
45.45
42.57
41.33
40.66
39.59
37.6
34.7
31.24
27.74
24.7
22.43
20.97
19.98
18.85
17.01
14.17
10.56
6.79
3.42
0.71
-1.55
-3.79
-6.25
-8.78
-11.03
-12.72
-14.02
-15.57
-18.11
-22.08
-27.26
-32.78
-37.45
-40.3
-40.84
-39.35
-36.68
-34.12
-32.91
-34.0
-37.69
-43.58
-50.61
-57.41
-62.63
-65.32
-65.13
-62.34
-57.58
-51.55
-44.72
-37.2
-28.81
-19.37
-8.87
2.45
14.21
25.91
36.94
46.47
53.52
57.18
57.18
54.12
49.51
45.18
42.47
41.68
42.05
42.32
41.4
38.85
34.81
29.69
23.76
17.17
10.07
2.9
-3.5
-8.22
-10.56
-10.36
-8.11
-4.81
-1.69
0.16
0.03
-2.24
-6.25
-11.19
-16.15
-20.35
-23.25
-24.66
-24.6
-23.32
-21.17
-18.72
-16.57
-15.23
-14.99
-15.83
-17.46
-19.49
-21.65
-23.81
-25.95
-27.97
-29.61
-30.48
-30.07
-28.09
-24.44
-19.31
-13.07
-6.13
1.16
8.46
15.5
22.01
27.74
32.45
35.88
37.75
37.79
35.87
32.07
26.74
20.42
13.76
7.23
1.17
-4.22
-8.76
-12.25
-14.52
-15.57
-15.68
-15.35
-15.12
-15.34
-16.08
-17.05
-17.77
-17.66
-16.22
-13.11
-8.32
-2.17
4.83
12.09
19.17
25.83
31.91
37.17
41.19
43.48
43.74
42.12
39.21
35.76
32.33
29.03
25.56
21.58
17.03
12.28
7.88
4.26
1.48
-0.83
-3.22
-6.12
-9.68
-13.75
-18.01
-22.1
-25.65
-28.26
-29.51
-28.95
-26.33
-21.73
-15.58
-8.62
-1.62
4.76
10.24
14.82
18.77
22.42
25.91
29.11
31.55
32.6
31.69
28.62
23.77
17.98
12.3
7.54
3.99
1.32
-1.08
-3.75
-6.88
-10.32
-13.8
-17.09
-20.04
-22.36
-23.42
-22.33
-18.36
-11.46
-2.43
7.24
16.06
23.17
28.7
33.4
38.1
43.07
47.81
51.33
52.68
51.4
47.82
42.87
37.68
33.09
29.43
26.45
23.69
20.75
17.54
14.29
11.22
8.25
4.84
0.26
-5.87
-13.04
-19.81
-24.19
-24.4
-19.75
-10.94
0.15
11.26
20.49
26.95
30.57
31.58
30.47
28.2
26.53
27.72
33.33
42.58
52.2
57.24
53.55
40.6
22.07
4.17
-7.57
-11.13
-8.88
-5.2
-3.94
-6.53
-11.55
-16.47
-19.75
-21.52
-22.94
-24.9
-26.43
-25.38
-22.43
-18.91
-16.92
-17.95
-21.81
-25.22
-27.91
-29.85
-31.11
-31.84
-32.52
-32.87
-32.16
-29.58
-24.68
-18.06
-10.47
-2.93
3.65
8.93
12.91
15.4
15.85
13.46
7.57
-1.21
-11.19
-20.17
-25.89
-26.85
-22.73
-14.37
-3.45
7.85
17.61
24.42
27.51
27.02
23.93
19.61
15.3
11.69
8.69
5.83
2.56
-1.44
-6.1
-11.1
-16.18
-21.37
-26.87
-32.97
-39.61
-46.34
-52.35
-56.7
-58.55
-57.34
-52.9
-45.39
-35.31
-23.44
-10.77
1.53
12.17
20.0
24.2
24.6
21.77
16.73
10.59
3.98
-3.11
-11.15
-20.52
-30.99
-41.48
-50.17
-55.2
-55.23
-50.04
-40.56
-28.68
-16.72
-6.87
-0.7
1.22
-0.73
-5.38
-11.24
-16.85
-20.92
-22.38
-20.45
-14.75
-5.68
5.56
17.12
27.18
34.68
39.69
43.15
46.06
48.66
50.09
48.77
43.26
33.08
19.01
2.88
-13.03
-26.58
-36.24
-41.38
-42.55
-41.56
-41.32
-44.99
-54.81
-70.89
-90.61
-109.06
-120.53
-120.41
-106.81
-81.29
-48.3
-13.67
17.22
40.89
56.15
63.7
65.11
61.96
55.44
46.48
36.03
25.33
15.71
8.2
3.21
0.44
-0.85
-1.39
-1.65
-1.73
-1.64
-1.56
-1.9
-3.19
-5.86
-9.94
-15.07
-20.55
-25.54
-29.28
-31.15
-30.71
-27.7
-22.12
-14.33
-4.97
5.07
14.88
23.72
31.05
36.44
39.48
39.84
37.51
32.94
27.01
20.85
15.34
10.83
7.07
3.47
-0.5
-5.0
-9.75
-14.18
-17.79
-20.32
-21.83
-22.6
-22.97
-23.21
-23.35
-23.16
-22.13
-19.62
-15.07
-8.32
0.28
9.87
19.48
28.35
36.18
43.02
48.92
53.61
56.38
56.33
52.81
45.81
36.16
25.34
15.1
7.06
2.34
1.21
3.08
6.62
10.15
12.26
12.19
10.01
6.38
1.98
-2.83
-8.07
-13.69
-19.07
-22.76
-22.79
-17.48
-6.27
9.74
28.01
45.44
59.37
68.34
72.29
72.05
68.57
62.34
53.16
40.53
24.27
5.0
-15.67
-35.5
-52.16
-63.88
-69.83
-70.27
-66.33
-59.66
-51.89
-44.16
-36.91
-29.88
-22.59
-14.87
-7.21
-0.69
3.53
4.77
3.33
0.46
-2.14
-2.96
-1.24
2.81
8.19
13.47
17.26
18.65
17.44
14.2
10.11
6.51
4.46
4.43
6.25
9.21
12.35
14.67
15.3
13.73
10.04
5.01
-0.0
-3.52
-4.56
-3.21
-0.67
1.2
0.79
-2.37
-7.23
-11.58
-12.92
-9.68
-1.8
9.16
20.67
30.2
36.06
37.8
36.02
31.92
26.62
20.91
15.19
9.67
4.35
-0.94
-6.75
-13.88
-22.95
-33.81
-45.01
-53.91
-57.44
-53.36
-41.39
-23.69
-4.26
12.39
22.74
25.33
20.89
11.76
0.88
-9.01
-15.96
-18.81
-17.27
-11.73
-3.3
6.49
15.84
23.19
27.57
28.77
27.24
23.84
19.43
14.58
9.53
4.15
-1.71
-8.03
-14.39
-19.94
-23.59
-24.4
-21.94
-16.48
-8.86
-0.18
8.4
15.92
21.5
24.4
24.1
20.52
14.23
6.36
-1.7
-8.79
-14.34
-18.33
-20.96
-22.29
-22.07
-19.93
-15.84
-10.43
-5.08
-1.49
-1.02
-4.14
-10.04
-16.86
-22.31
-24.44
-22.36
-16.36
-7.75
1.84
10.95
18.64
24.36
27.69
28.16
25.33
19.1
10.09
-0.3
-10.15
-17.61
-21.52
-21.7
-18.82
-13.96
-8.12
-1.87
4.58
11.17
17.66
23.42
27.57
29.37
28.41
24.92
19.51
12.98
6.0
-0.89
-7.14
-12.01
-14.6
-14.09
-10.25
-3.74
3.89
10.69
14.98
15.95
13.84
9.67
4.63
-0.34
-4.85
-8.83
-12.19
-14.61
-15.48
-14.16
-10.41
-4.67
1.89
7.5
10.32
9.01
3.29
-5.91
-16.56
-26.09
-32.04
-32.81
-28.02
-18.51
-6.16
6.7
17.73
25.05
27.55
25.08
18.46
9.23
-0.78
-9.93
-17.1
-21.87
-24.39
-25.14
-24.65
-23.34
-21.5
-19.29
-16.96
-14.81
-13.19
-12.3
-11.95
-11.51
-10.01
-6.63
-1.21
5.51
12.09
16.99
19.32
19.28
17.97
16.78
16.6
17.48
18.71
19.38
19.02
17.78
16.35
15.4
15.16
15.17
14.51
12.16
7.62
1.27
-5.55
-10.81
-12.37
-8.9
-0.47
11.11
22.82
31.37
34.44
31.51
23.81
13.69
3.54
-5.02
-11.35
-15.44
-17.48
-17.6
-15.92
-12.89
-9.46
-6.93
-6.53
-8.97
-14.18
-21.38
-29.41
-37.0
-43.18
-47.36
-49.33
-49.16
-47.01
-43.05
-37.32
-29.92
-21.05
-11.23
-1.33
7.44
13.81
16.73
15.72
11.14
4.23
-3.18
-9.1
-11.99
-11.19
-7.06
-0.81
5.98
11.86
15.85
17.64
17.52
16.15
14.31
12.57
11.06
9.55
7.62
5.05
2.14
-0.32
-1.33
-0.29
2.66
6.67
10.58
13.52
15.18
15.84
16.0
16.06
16.14
16.3
16.78
18.15
21.0
25.35
30.42
34.62
36.13
33.47
26.06
14.53
0.85
-12.54
-23.48
-30.5
-32.99
-31.18
-26.12
-19.43
-12.99
-7.79
-4.27
-2.42
-1.7
-0.94
1.27
6.02
13.58
23.33
34.85
47.07
57.91
65.03
66.83
63.3
55.93
47.27
40.21
38.31
43.57
55.3
70.61
85.94
98.18
104.96
104.75
89.98
58.5
15.81
-27.96
-64.14
-88.58
-100.69
-101.94
-95.34
-84.86
-74.46
-65.47
-58.76
-54.18
-50.23
-44.83
-36.56
-25.43
-12.56
1.59
16.32
29.86
40.36
46.56
48.22
46.07
41.57
36.43
32.68
31.54
32.59
34.21
34.49
31.62
24.22
11.54
-6.01
-26.42
-46.66
-63.96
-76.87
-85.87
-93.18
-101.64
-113.21
-127.58
-141.86
-151.56
-152.3
-141.32
-118.29
-85.41
-46.78
-7.44
27.61
54.3
70.02
73.99
67.31
52.74
34.21
16.11
2.18
-5.57
-7.46
-5.97
-4.7
-6.92
-14.21
-25.82
-39.14
-50.72
-57.56
-58.02
-51.9
-40.19
-24.4
-6.24
12.56
30.33
45.47
56.63
62.94
64.32
61.53
56.14
50.14
45.58
43.97
46.0
51.31
58.69
66.52
73.29
78.02
80.48
81.04
80.33
78.92
77.11
74.98
72.45
69.41
65.81
61.56
56.46
50.18
42.25
32.2
19.75
4.97
-11.76
-29.73
-48.17
-66.37
-83.72
-99.73
-113.91
-125.77
-134.91
-141.16
-144.72
-146.08
-145.89
-144.7
-142.78
-140.1
-136.49
-131.84
-126.23
-119.9
-113.14
-106.17
-99.09
-91.85
-84.37
-76.56
-68.46
-60.17
-51.91
-43.9
-36.35
-29.39
-23.09
-17.53
-12.83
-9.18
-6.79
-5.66
-5.53
-5.77
-5.53
-3.99
-0.58
4.74
11.64
19.48
27.57
35.38
42.58
49.0
54.48
58.86
61.98
63.71
64.06
63.12
61.07
58.05
54.2
49.63
44.5
39.03
33.56
28.49
24.21
21.02
18.96
17.85
17.22
16.59
15.61
14.31
13.08
12.58
13.46
16.09
20.45
26.13
32.39
38.39
43.34
46.78
48.6
49.1
48.8
48.15
47.43
46.71
45.96
45.21
44.55
44.04
43.57
42.8
41.35
38.91
35.41
31.04
26.03
20.54
14.54
7.87
0.37
-7.73
-16.0
-23.92
-30.93
-36.45
-40.02
-41.35
-40.53
-37.96
-34.07
-29.39
-24.57
-20.28
-17.11
-15.41
-15.24
-16.43
-18.64
-21.04
-23.02
-24.5
-25.95
-27.94
-30.75
-34.26
-38.02
-41.56
-43.19
-41.81
-37.5
-31.46
-25.08
-19.27
-14.39
-10.53
-7.68
-2.91
6.27
20.62
38.87
59.01
79.52
99.56
118.58
136.12
156.16
181.54
212.01
243.91
272.87
296.18
313.21
324.61
331.53
340.93
358.11
384.0
414.95
445.94
473.69
497.17
516.69
497.45
420.75
292.79
143.09
2.88
-111.29
-196.96
-258.44
-301.43
-331.04
-345.97
-346.21
-335.31
-319.84
-305.42
-293.83
-283.76
-273.42
-262.94
-248.5
-228.03
-202.08
-173.73
-146.8
-124.34
-108.68
-101.93
-104.27
-110.69
-115.28
-114.07
-106.75
-95.91
-84.73
-75.41
-68.58
-63.75
-58.96
-53.41
-47.92
-44.24
-43.86
-46.88
-52.27
-58.39
-63.48
-65.56
-63.38
-57.43
-48.4
-37.87
-27.46
-18.17
-10.17
-3.07
3.46
9.28
13.78
16.37
16.75
15.24
12.7
10.02
7.8
6.12
4.65
2.94
0.74
-1.99
-5.02
-7.97
-10.5
-12.4
-13.7
-14.67
-15.63
-16.77
-18.18
-19.62
-20.65
-20.74
-19.44
-16.46
-11.83
-5.87
0.86
7.66
13.93
19.28
23.53
26.65
28.58
29.3
28.74
27.01
24.35
21.18
18.1
15.69
14.47
14.76
16.49
19.21
22.01
23.84
23.84
21.59
17.27
11.48
4.83
-2.36
-10.18
-18.83
-28.24
-37.78
-46.31
-52.61
-55.92
-56.27
-54.48
-51.73
-49.09
-47.13
-45.9
-45.12
-44.46
-43.68
-42.64
-41.21
-39.17
-36.29
-32.42
-27.61
-22.08
-16.14
-10.12
-4.32
0.96
5.44
8.92
11.27
12.57
12.97
12.64
11.68
10.08
7.9
5.35
2.87
1.05
0.39
1.14
3.22
6.29
9.91
13.74
17.61
21.44
25.17
28.58
31.36
33.19
33.92
33.64
32.67
31.35
29.89
28.32
26.5
24.3
21.66
18.67
15.48
12.23
9.02
5.87
2.75
-0.43
-3.87
-7.86
-12.64
-18.3
-24.52
-30.59
-35.54
-38.43
-38.64
-36.08
-31.16
-24.72
-17.74
-11.15
-5.59
-1.31
1.89
4.53
7.3
10.83
15.33
20.48
25.46
29.21
30.77
29.7
26.29
21.6
17.15
14.46
14.58
17.73
23.29
29.99
36.3
40.79
42.53
41.19
37.21
31.6
25.76
21.1
18.72
19.17
22.34
27.52
33.69
39.77
44.9
48.58
50.75
51.7
51.96
52.0
52.13
52.29
52.13
51.12
48.75
44.68
38.9
31.69
23.51
14.96
6.56
-1.27
-8.31
-14.56
-20.19
-25.43
-30.51
-35.5
-40.32
-44.74
-48.46
-51.21
-52.87
-53.46
-53.2
-52.35
-51.19
-49.91
-48.58
-47.08
-45.23
-42.85
-39.98
-36.93
-34.24
-32.44
-31.82
-32.3
-33.45
-34.75
-35.78
-36.32
-36.28
-35.6
-34.21
-32.02
-29.11
-25.73
-22.27
-19.08
-16.38
-14.2
-12.48
-11.18
-10.34
-10.01
-10.11
-10.42
-10.51
-9.94
-8.41
-5.84
-2.43
1.44
5.32
8.83
11.69
13.82
15.23
16.03
16.33
16.23
15.89
15.46
15.18
15.28
15.92
17.08
18.62
20.23
21.63
22.6
23.11
23.25
23.11
22.74
22.07
20.94
19.19
16.78
13.8
10.53
7.36
4.76
3.13
2.76
3.77
6.07
9.42
13.49
17.89
22.2
25.99
28.8
30.26
30.2
28.69
26.08
22.91
19.7
16.84
14.45
12.44
10.63
8.83
6.95
4.99
3.02
1.09
-0.83
-2.78
-4.8
-6.88
-8.95
-10.91
-12.65
-14.11
-15.24
-15.95
-16.1
-15.48
-13.95
-11.46
-8.13
-4.25
-0.18
3.71
7.12
9.84
11.78
12.97
13.49
13.5
13.19
12.74
12.26
11.84
11.51
11.29
11.18
11.2
11.3
11.43
11.53
11.56
11.49
11.29
10.87
10.08
8.77
6.91
4.64
2.31
0.41
-0.59
-0.41
0.91
3.0
5.3
7.28
8.61
9.21
9.22
8.79
8.02
6.85
5.2
3.08
0.66
-1.74
-3.82
-5.43
-6.7
-7.93
-9.41
-11.27
-13.34
-15.24
-16.62
-17.29
-17.38
-17.29
-17.5
-18.36
-19.91
-21.84
-23.6
-24.63
-24.55
-23.25
-20.86
-17.6
-13.67
-9.24
-4.45
0.48
5.2
9.31
12.5
14.69
16.05
16.87
17.42
17.85
18.11
18.11
17.78
17.15
16.34
15.51
14.75
14.09
13.46
12.74
11.82
10.6
9.04
7.11
4.87
2.48
0.23
-1.57
-2.57
-2.61
-1.74
-0.24
1.51
3.16
4.48
5.38
5.84
5.82
5.23
4.02
2.18
-0.16
-2.84
-5.69
-8.63
-11.65
-14.67
-17.57
-20.09
-21.93
-22.79
-22.51
-21.06
-18.63
-15.54
-12.19
-8.97
-6.15
-3.83
-1.94
-0.25
1.52
3.63
6.29
9.6
13.54
17.97
22.58
27.0
30.8
33.6
35.18
35.47
34.53
32.53
29.66
26.16
22.27
18.27
14.42
10.89
7.71
4.83
2.14
-0.42
-2.8
-4.9
-6.66
-8.15
-9.6
-11.25
-13.26
-15.53
-17.73
-19.38
-20.1
-19.63
-17.96
-15.23
-11.66
-7.47
-2.88
1.82
6.35
10.38
13.62
15.89
17.11
17.31
16.67
15.45
13.98
12.5
11.1
9.66
7.93
5.62
2.64
-0.89
-4.64
-8.26
-11.5
-14.27
-16.68
-18.86
-20.9
-22.72
-24.07
-24.58
-23.91
-21.85
-18.45
-14.01
-8.99
-3.86
1.04
5.5
9.38
12.61
15.07
16.66
17.35
17.22
16.49
15.48
14.49
13.72
13.2
12.79
12.25
11.32
9.91
8.04
5.91
3.72
1.6
-0.46
-2.53
-4.73
-7.05
-9.35
-11.43
-13.06
-14.06
-14.32
-13.81
-12.54
-10.57
-8.0
-4.99
-1.76
1.36
4.11
6.25
7.7
8.49
8.69
8.36
7.54
6.16
4.2
1.64
-1.47
-5.0
-8.8
-12.63
-16.29
-19.6
-22.5
-25.03
-27.31
-29.43
-31.48
-33.38
-35.05
-36.39
-37.27
-37.54
-36.95
-35.18
-31.97
-27.25
-21.28
-14.63
-7.98
-1.92
3.28
7.62
11.27
14.39
17.01
18.99
20.15
20.41
19.83
18.66
17.19
15.7
14.29
12.87
11.3
9.47
7.44
5.44
3.81
2.81
2.51
2.72
3.07
3.15
2.74
1.84
0.77
0.03
0.17
1.59
4.37
8.22
12.57
16.74
20.2
22.73
24.45
25.63
26.53
27.3
27.89
28.25
28.37
28.42
28.61
29.15
30.14
31.46
32.86
33.97
34.44
34.02
32.66
30.5
27.9
25.38
23.57
23.18
24.86
28.9
34.93
41.59
46.77
48.19
44.34
35.29
22.88
10.11
-0.03
-5.79
-7.17
-5.68
-3.47
-2.28
-2.98
-5.57
-9.65
-14.99
-21.55
-29.35
-38.04
-46.76
-54.29
-59.57
-62.06
-62.06
-60.49
-58.43
-56.66
-55.34
-54.11
-52.4
-49.84
-46.5
-42.85
-39.55
-37.0
-35.19
-33.64
-31.64
-28.63
-24.45
-19.39
-14.03
-8.93
-4.4
-0.49
2.87
5.71
7.89
9.2
9.55
9.1
8.26
7.52
7.22
7.38
7.67
7.68
7.07
5.76
3.95
1.99
0.17
-1.36
-2.65
-3.85
-5.13
-6.59
-8.2
-9.84
-11.34
-12.53
-13.27
-13.46
-12.99
-11.79
-9.81
-7.04
-3.66
0.03
3.6
6.57
8.65
9.74
10.02
9.8
9.4
8.98
8.51
7.85
6.86
5.5
3.88
2.21
0.72
-0.41
-1.11
-1.36
-1.13
-0.37
0.95
2.81
5.03
7.3
9.21
10.37
10.56
9.87
8.59
7.23
6.22
5.86
6.23
7.2
8.59
10.18
11.81
13.31
14.52
15.28
15.44
14.93
13.8
12.16
10.2
8.13
6.14
4.4
3.03
2.04
1.38
0.89
0.41
-0.18
-0.89
-1.68
-2.45
-3.11
-3.58
-3.9
-4.14
-4.45
-4.98
-5.81
-6.97
-8.33
-9.62
-10.48
-10.62
-9.87
-8.26
-6.02
-3.54
-1.21
0.67
1.91
2.5
2.47
1.92
0.93
-0.41
-1.89
-3.25
-4.15
-4.36
-3.84
-2.75
-1.41
-0.16
0.78
1.4
1.81
2.15
2.51
2.87
3.14
3.2
3.0
2.52
1.76
0.78
-0.34
-1.41
-2.15
-2.26
-1.5
0.13
2.34
4.66
6.56
7.67
7.89
7.33
6.21
4.71
2.88
0.76
-1.58
-3.92
-5.98
-7.53
-8.51
-9.01
-9.23
-9.29
-9.23
-8.94
-8.33
-7.33
-6.01
-4.57
-3.23
-2.19
-1.62
-1.6
-2.16
-3.23
-4.61
-5.95
-6.87
-7.07
-6.44
-5.13
-3.46
-1.77
-0.29
0.96
2.05
3.1
4.09
4.95
5.57
5.94
6.17
6.46
6.95
7.73
8.73
9.83
10.86
11.66
12.1
12.12
11.76
11.13
10.39
9.65
8.94
8.14
7.06
5.57
3.65
1.45
-0.77
-2.74
-4.24
-5.21
-5.74
-5.96
-6.04
-6.1
-6.16
-6.18
-6.07
-5.83
-5.44
-4.94
-4.3
-3.46
-2.31
-0.79
1.03
2.94
4.67
5.99
6.87
7.4
7.8
8.23
8.71
9.11
9.21
8.77
7.65
5.88
3.59
1.02
-1.59
-4.08
-6.37
-8.39
-10.09
-11.33
-11.99
-11.96
-11.27
-10.11
-8.7
-7.29
-6.02
-4.91
-3.91
-2.99
-2.11
-1.25
-0.33
0.76
2.11
3.76
5.64
7.61
9.5
11.08
12.19
12.65
12.35
11.26
9.48
7.17
4.51
1.64
-1.31
-4.23
-6.88
-8.95
-10.15
-10.35
-9.64
-8.36
-6.95
-5.78
-5.04
-4.76
-4.81
-5.05
-5.34
-5.58
-5.65
-5.48
-5.01
-4.24
-3.17
-1.88
-0.44
0.99
2.27
3.23
3.79
3.97
3.9
3.72
3.49
3.08
2.24
0.71
-1.62
-4.51
-7.47
-9.89
-11.29
-11.5
-10.68
-9.21
-7.49
-5.77
-4.13
-2.59
-1.12
0.23
1.38
2.3
3.03
3.76
4.66
5.89
7.47
9.27
11.01
12.43
13.38
13.84
14.0
14.01
13.98
13.8
13.26
12.16
10.37
8.01
5.37
2.79
0.58
-1.12
-2.29
-3.06
-3.54
-3.81
-3.87
-3.69
-3.25
-2.64
-2.06
-1.72
-1.82
-2.41
-3.4
-4.6
-5.84
-6.99
-7.97
-8.71
-9.13
-9.16
-8.77
-8.04
-7.18
-6.49
-6.19
-6.42
-7.15
-8.28
-9.65
-11.07
-12.36
-13.26
-13.57
-13.14
-11.96
-10.21
-8.17
-6.13
-4.28
-2.75
-1.56
-0.72
-0.19
0.05
0.06
-0.08
-0.31
-0.56
-0.8
-0.93
-0.81
-0.28
0.76
2.28
4.09
5.83
7.22
8.09
8.41
8.24
7.62
6.49
4.77
2.47
-0.16
-2.62
-4.27
-4.61
-3.48
-1.18
1.71
4.47
6.57
7.8
8.18
7.94
7.26
6.28
5.04
3.49
1.59
-0.64
-3.12
-5.74
-8.34
-10.8
-12.97
-14.74
-16.04
-16.78
-16.95
-16.56
-15.74
-14.67
-13.6
-12.81
-12.54
-12.86
-13.7
-14.8
-15.75
-16.17
-15.77
-14.46
-12.35
-9.68
-6.68
-3.56
-0.46
2.53
5.4
8.11
10.68
13.08
15.22
16.99
18.28
19.1
19.54
19.77
19.96
20.13
20.19
19.98
19.36
18.3
16.91
15.33
13.69
12.06
10.45
8.81
7.07
5.17
3.07
0.82
-1.37
-3.18
-4.23
-4.24
-3.13
-1.05
1.67
4.67
7.62
10.24
12.29
13.63
14.14
13.87
12.95
11.65
10.2
8.8
7.48
6.15
4.66
2.85
0.67
-1.79
-4.39
-6.96
-9.37
-11.57
-13.58
-15.46
-17.2
-18.76
-20.1
-21.17
-21.97
-22.49
-22.66
-22.3
-21.21
-19.29
-16.61
-13.44
-10.14
-7.05
-4.3
-1.88
0.33
2.35
4.09
5.35
5.95
5.84
5.2
4.26
3.26
2.26
1.19
-0.07
-1.51
-3.0
-4.24
-5.03
-5.25
-5.04
-4.64
-4.33
-4.27
-4.48
-4.86
-5.27
-5.59
-5.73
-5.57
-4.95
-3.71
-1.74
0.95
4.14
7.52
10.7
13.41
15.53
17.1
18.23
19.01
19.44
19.46
18.98
17.95
16.4
14.47
12.29
9.96
7.49
4.76
1.68
-1.79
-5.56
-9.39
-12.98
-16.1
-18.69
-20.9
-23.05
-25.46
-28.26
-31.31
-34.18
-36.31
-37.22
-36.64
-34.64
-31.48
-27.56
-23.22
-18.66
-13.96
-9.18
-4.41
0.15
4.25
7.64
10.2
11.98
13.15
13.95
14.56
14.99
15.12
14.76
13.74
12.06
9.89
7.51
5.21
3.12
1.26
-0.49
-2.25
-4.06
-5.84
-7.48
-8.81
-9.77
-10.33
-10.46
-10.08
-9.08
-7.32
-4.76
-1.49
2.26
6.21
10.06
13.59
16.63
19.05
20.72
21.6
21.68
21.05
19.86
18.29
16.53
14.74
13.06
11.6
10.4
9.41
8.57
7.71
6.74
5.57
4.15
2.38
0.15
-2.63
-5.95
-9.61
-13.21
-16.21
-18.1
-18.52
-17.45
-15.16
-12.16
-9.01
-6.14
-3.73
-1.71
0.07
1.75
3.26
4.44
5.08
5.14
4.75
4.17
3.63
3.19
2.74
2.15
1.33
0.41
-0.39
-0.85
-0.87
-0.56
-0.19
-0.1
-0.56
-1.71
-3.51
-5.78
-8.22
-10.51
-12.34
-13.43
-13.57
-12.65
-10.72
-7.94
-4.62
-1.09
2.33
5.44
8.17
10.54
12.58
14.31
15.71
16.73
17.39
17.74
17.9
17.97
17.94
17.74
17.22
16.28
14.89
13.15
11.27
9.47
7.88
6.49
5.15
3.66
1.86
-0.29
-2.67
-5.03
-7.09
-8.57
-9.34
-9.4
-8.89
-8.02
-6.99
-5.93
-4.88
-3.84
-2.79
-1.78
-0.9
-0.24
0.12
0.21
0.08
-0.15
-0.39
-0.62
-0.84
-1.08
-1.32
-1.51
-1.58
-1.46
-1.17
-0.87
-0.76
-1.07
-1.95
-3.4
-5.3
-7.43
-9.52
-11.34
-12.66
-13.28
-13.05
-11.91
-9.91
-7.24
-4.12
-0.87
2.28
5.14
7.56
9.45
10.75
11.49
11.71
11.51
10.98
10.26
9.47
8.73
8.19
7.88
7.79
7.78
7.67
7.31
6.64
5.71
4.55
3.17
1.48
-0.67
-3.4
-6.67
-10.26
-13.77
-16.71
-18.67
-19.42
-18.98
-17.54
-15.43
-12.91
-10.23
-7.54
-5.0
-2.79
-1.09
-0.01
0.48
0.61
0.71
1.1
1.97
3.24
4.65
5.8
6.36
6.16
5.27
3.92
2.42
0.98
-0.35
-1.68
-3.22
-5.17
-7.61
-10.41
-13.3
-15.87
-17.74
-18.58
-18.2
-16.61
-13.96
-10.54
-6.74
-2.94
0.52
3.4
5.63
7.29
8.55
9.6
10.6
11.59
12.53
13.28
13.74
13.85
13.61
13.07
12.28
11.27
10.04
8.6
7.02
5.41
3.86
2.39
0.92
-0.67
-2.48
-4.49
-6.49
-8.17
-9.19
-9.3
-8.43
-6.7
-4.34
-1.66
1.08
3.69
6.03
8.03
9.64
10.8
11.45
11.57
11.2
10.47
9.59
8.77
8.1
7.54
6.87
5.84
4.31
2.37
0.32
-1.5
-2.9
-3.91
-4.81
-5.94
-7.54
-9.61
-11.92
-14.09
-15.72
-16.51
-16.28
-15.06
-12.95
-10.2
-7.03
-3.69
-0.33
2.89
5.76
8.02
9.45
9.91
9.54
8.67
7.78
7.24
7.1
7.12
6.89
6.09
4.7
2.99
1.39
0.21
-0.51
-1.07
-1.89
-3.32
-5.44
-8.07
-10.86
-13.49
-15.76
-17.54
-18.78
-19.38
-19.2
-18.17
-16.32
-13.86
-11.13
-8.43
-5.94
-3.68
-1.54
0.62
2.84
5.05
7.07
8.68
9.7
10.14
10.12
9.9
9.71
9.67
9.7
9.59
9.15
8.24
6.86
5.1
3.02
0.61
-2.23
-5.48
-8.96
-12.25
-14.8
-16.1
-15.96
-14.48
-12.08
-9.23
-6.33
-3.59
-1.1
1.09
2.89
4.17
4.85
5.02
4.94
4.95
5.32
6.13
7.26
8.44
9.4
9.96
10.08
9.79
9.15
8.21
6.97
5.48
3.77
1.92
0.06
-1.65
-3.07
-4.09
-4.67
-4.87
-4.85
-4.78
-4.81
-4.98
-5.27
-5.56
-5.76
-5.81
-5.77
-5.73
-5.76
-5.8
-5.65
-5.0
-3.56
-1.26
1.74
5.02
8.11
10.64
12.43
13.5
13.97
13.92
13.4
12.4
10.98
9.31
7.69
6.47
5.96
6.25
7.22
8.57
9.96
11.17
12.11
12.8
13.29
13.56
13.51
13.01
12.03
10.65
9.03
7.36
5.67
3.97
2.18
0.33
-1.44
-2.96
-4.1
-4.83
-5.26
-5.6
-6.08
-6.87
-8.04
-9.47
-10.9
-12.0
-12.44
-12.01
-10.63
-8.44
-5.69
-2.72
0.16
2.71
4.78
6.29
7.22
7.61
7.49
6.92
6.0
4.84
3.56
2.28
1.02
-0.25
-1.62
-3.17
-4.91
-6.76
-8.59
-10.23
-11.6
-12.63
-13.4
-14.0
-14.54
-15.11
-15.63
-15.9
-15.69
-14.76
-13.02
-10.5
-7.39
-3.91
-0.31
3.2
6.4
9.02
10.78
11.45
10.94
9.39
7.16
4.79
2.75
1.4
0.83
0.94
1.46
2.15
2.82
3.35
3.7
3.84
3.77
3.52
3.16
2.75
2.35
1.99
1.66
1.41
1.36
1.7
2.63
4.27
6.62
9.52
12.69
15.78
18.47
20.53
21.88
22.58
22.72
22.38
21.54
20.15
18.13
15.43
12.17
8.59
4.93
1.44
-1.78
-4.71
-7.37
-9.8
-12.03
-14.15
-16.27
-18.52
-20.91
-23.29
-25.3
-26.44
-26.27
-24.51
-21.24
-16.88
-12.06
-7.48
-3.77
-1.35
-0.39
-0.75
-2.0
-3.57
-4.85
-5.34
-4.77
-3.15
-0.72
2.13
4.92
7.16
8.47
8.6
7.58
5.64
3.19
0.67
-1.57
-3.33
-4.55
-5.28
-5.56
-5.49
-5.19
-4.79
-4.42
-4.12
-3.84
-3.39
-2.6
-1.35
0.37
2.41
4.56
6.53
8.01
8.76
8.65
7.71
6.15
4.31
2.56
1.17
0.23
-0.3
-0.53
-0.58
-0.53
-0.41
-0.27
-0.1
0.08
0.29
0.59
0.99
1.42
1.76
1.83
1.52
0.79
-0.25
-1.41
-2.43
-3.07
-3.17
-2.7
-1.73
-0.45
0.91
2.17
3.21
4.03
4.66
5.14
5.44
5.48
5.17
4.42
3.25
1.8
0.28
-1.06
-2.04
-2.56
-2.65
-2.39
-1.88
-1.14
-0.13
1.25
3.03
5.12
7.27
9.09
10.25
10.59
10.18
9.31
8.39
7.77
7.78
8.67
10.69
14.06
18.8
24.49
30.27
34.99
37.63
37.73
35.59
32.06
28.1
24.3
20.72
16.99
12.77
8.05
3.3
-0.76
-3.49
-4.76
-4.99
-5.01
-5.74
-7.68
-10.77
-14.39
-17.7
-20.04
-21.3
-21.89
-22.51
-23.79
-25.98
-28.92
-32.19
-35.36
-38.13
-40.35
-41.89
-42.61
-42.43
-41.38
-39.69
-37.71
-35.79
-34.14
-32.76
-31.52
-30.29
-29.06
-27.91
-27.04
-26.55
-26.43
-26.52
-26.55
-26.33
-25.72
-24.82
-23.89
-23.25
-23.24
-24.01
-25.48
-27.36
-29.17
-30.43
-30.67
-29.56
-26.91
-22.75
-17.27
-11.05
-4.86
0.43
4.17
6.17
6.9
7.38
8.72
11.68
16.23
21.77
27.55
32.91
37.49
41.02
43.3
44.03
43.12
40.56
36.91
32.97
29.32
25.95
22.18
17.33
11.2
4.53
-1.47
-5.26
-5.79
-3.07
1.84
6.98
10.39
10.55
8.45
4.71
-0.27
-5.97
-11.33
-14.69
-14.66
-10.52
-3.08
5.49
12.39
15.83
15.64
13.22
10.43
7.54
4.89
1.99
-1.68
-6.37
-11.55
-16.16
-19.17
-18.64
-15.27
-10.64
-6.56
-4.15
-3.39
-3.23
-2.55
-0.85
1.31
2.39
1.3
-2.1
-6.75
-11.21
-13.83
-13.87
-11.7
-8.36
-5.31
-3.3
-2.61
-2.83
-3.39
-3.65
-3.23
-2.17
-0.66
0.78
1.83
2.35
2.52
2.64
3.12
4.23
5.51
6.59
7.09
6.89
6.18
5.39
4.97
5.16
5.86
6.79
7.74
8.67
9.76
11.24
13.15
15.25
17.04
18.02
17.93
16.92
15.4
13.82
12.42
11.18
9.84
8.13
5.96
3.46
1.04
-0.86
-1.93
-2.06
-1.39
-0.2
1.23
2.7
4.16
5.65
7.15
8.56
9.61
9.99
9.48
8.05
5.85
3.16
0.28
-2.53
-5.07
-7.14
-8.59
-9.29
-9.24
-8.56
-7.52
-6.37
-5.28
-4.33
-3.47
-2.68
-1.97
-1.42
-1.17
-1.35
-2.09
-3.41
-5.14
-6.98
-8.54
-9.42
-9.37
-8.34
-6.52
-4.18
-1.66
0.78
2.95
4.77
6.24
7.4
8.37
9.28
10.22
11.26
12.42
13.64
14.82
15.84
16.52
16.75
16.41
15.49
14.07
12.3
10.37
8.46
6.65
4.93
3.19
1.34
-0.63
-2.6
-4.4
-5.92
-7.26
-8.68
-10.49
-12.83
-15.53
-18.14
-20.1
-20.95
-20.55
-19.01
-16.68
-13.93
-10.99
-8.01
-4.98
-1.9
1.18
4.13
6.78
8.97
10.63
11.81
12.6
13.1
13.3
13.11
12.44
11.3
9.83
8.31
6.95
5.81
4.68
3.25
1.23
-1.42
-4.47
-7.44
-9.86
-11.43
-12.22
-12.58
-13.0
-13.81
-15.05
-16.38
-17.24
-17.05
-15.48
-12.5
-8.38
-3.56
1.51
6.43
10.91
14.74
17.7
19.66
20.53
20.39
19.46
18.11
16.75
15.72
15.14
14.92
14.81
14.6
14.12
13.39
12.43
11.25
9.76
7.81
5.35
2.43
-0.73
-3.89
-6.88
-9.61
-12.13
-14.44
-16.5
-18.15
-19.11
-19.14
-18.0
-15.68
-12.34
-8.39
-4.33
-0.65
2.39
4.7
6.36
7.45
7.96
7.74
6.69
4.85
2.48
0.04
-2.08
-3.65
-4.77
-5.74
-6.89
-8.38
-10.09
-11.7
-12.87
-13.45
-13.56
-13.52
-13.67
-14.25
-15.23
-16.42
-17.54
-18.27
-18.35
-17.58
-15.77
-12.85
-8.82
-3.83
1.86
7.9
13.9
19.46
24.2
27.86
30.28
31.45
31.44
30.42
28.56
26.07
23.18
20.17
17.36
14.98
13.1
11.62
10.21
8.54
6.36
3.59
0.35
-3.12
-6.53
-9.7
-12.51
-14.93
-16.92
-18.41
-19.22
-19.17
-18.12
-16.06
-13.15
-9.7
-6.04
-2.49
0.77
3.71
6.32
8.59
10.4
11.61
12.09
11.9
11.2
10.25
9.24
8.23
7.11
5.73
4.06
2.23
0.53
-0.78
-1.6
-2.04
-2.4
-2.98
-3.92
-5.12
-6.29
-7.07
-7.17
-6.46
-4.98
-2.85
-0.26
2.63
5.7
8.86
12.05
15.19
18.15
20.78
22.92
24.42
25.1
24.89
23.75
21.83
19.35
16.61
13.88
11.29
8.84
6.38
3.75
0.88
-2.21
-5.42
-8.65
-11.81
-14.78
-17.4
-19.52
-21.01
-21.92
-22.43
-22.77
-23.01
-22.99
-22.36
-20.8
-18.16
-14.64
-10.66
-6.73
-3.16
-0.08
2.56
4.8
6.59
7.74
8.1
7.64
6.59
5.33
4.3
3.75
3.69
3.92
4.13
4.11
3.81
3.38
3.04
2.94
3.1
3.39
3.6
3.61
3.36
2.95
2.5
2.13
1.96
2.09
2.64
3.78
5.63
8.25
11.59
15.41
19.36
23.01
25.96
27.88
28.56
28.01
26.37
23.92
20.97
17.79
14.55
11.36
8.24
5.19
2.22
-0.72
-3.63
-6.5
-9.26
-11.79
-13.9
-15.44
-16.34
-16.66
-16.57
-16.38
-16.3
-16.41
-16.57
-16.44
-15.64
-13.95
-11.36
-8.17
-4.81
-1.66
1.06
3.37
5.43
7.39
9.22
10.71
11.5
11.26
9.81
7.24
3.91
0.34
-2.96
-5.58
-7.35
-8.27
-8.46
-8.09
-7.34
-6.4
-5.49
-4.89
-4.8
-5.34
-6.41
-7.76
-9.1
-10.17
-10.87
-11.18
-11.13
-10.65
-9.63
-7.92
-5.46
-2.37
1.1
4.56
7.63
10.01
11.6
12.46
12.75
12.65
12.22
11.33
9.71
7.05
3.21
-1.67
-7.18
-12.69
-17.55
-21.3
-23.65
-24.5
-23.82
-21.68
-18.29
-14.16
-10.02
-6.77
-5.11
-5.26
-6.87
-9.13
-11.1
-12.04
-11.68
-10.16
-7.88
-5.21
-2.42
0.37
3.09
5.61
7.8
9.46
10.49
10.89
10.77
10.34
9.81
9.31
8.86
8.36
7.65
6.63
5.31
3.88
2.66
1.95
1.94
2.6
3.73
4.98
6.05
6.68
6.77
6.36
5.57
4.63
3.83
3.43
3.61
4.41
5.72
7.24
8.61
9.51
9.78
9.51
8.94
8.35
7.92
7.61
7.17
6.25
4.55
2.01
-1.16
-4.52
-7.53
-9.72
-10.79
-10.68
-9.56
-7.7
-5.48
-3.23
-1.24
0.26
1.13
1.34
0.96
0.26
-0.42
-0.62
-0.01
1.55
3.93
6.75
9.51
11.77
13.33
14.21
14.63
14.79
14.79
14.51
13.79
12.55
10.89
9.17
7.76
6.87
6.45
6.11
5.38
3.98
1.97
-0.21
-1.95
-2.77
-2.52
-1.55
-0.5
-0.09
-0.75
-2.44
-4.67
-6.68
-7.77
-7.58
-6.18
-3.95
-1.36
1.25
3.72
5.99
7.99
9.43
9.96
9.26
7.24
4.15
0.49
-3.15
-6.29
-8.76
-10.63
-12.12
-13.35
-14.28
-14.64
-14.15
-12.7
-10.49
-8.05
-6.0
-4.85
-4.77
-5.56
-6.8
-7.99
-8.74
-8.85
-8.22
-6.89
-4.92
-2.49
0.13
2.61
4.57
5.79
6.18
5.91
5.28
4.65
4.27
4.24
4.41
4.54
4.37
3.81
2.97
2.07
1.38
1.06
1.18
1.71
2.6
3.84
5.44
7.34
9.34
11.07
12.06
11.89
10.39
7.74
4.44
1.15
-1.51
-3.21
-3.94
-3.93
-3.49
-2.86
-2.13
-1.28
-0.26
0.89
1.96
2.58
2.41
1.19
-1.03
-3.9
-6.86
-9.34
-10.95
-11.67
-11.78
-11.67
-11.61
-11.67
-11.68
-11.41
-10.83
-10.07
-9.37
-8.97
-8.88
-8.96
-8.99
-8.83
-8.54
-8.36
-8.45
-8.81
-9.17
-9.07
-8.04
-5.9
-2.79
0.81
4.34
7.31
9.52
11.02
12.02
12.66
12.97
12.85
12.22
11.17
9.99
9.01
8.49
8.42
8.57
8.59
8.23
7.47
6.51
5.63
5.06
4.85
4.84
4.79
4.44
3.63
2.37
0.76
-1.05
-2.91
-4.74
-6.45
-7.92
-8.93
-9.25
-8.72
-7.42
-5.74
-4.27
-3.58
-3.91
-5.08
-6.53
-7.61
-7.85
-7.18
-5.87
-4.38
-3.08
-2.16
-1.56
-1.11
-0.66
-0.17
0.28
0.55
0.58
0.41
0.17
0.07
0.22
0.6
1.02
1.2
0.9
0.1
-1.08
-2.36
-3.51
-4.41
-5.07
-5.55
-5.83
-5.76
-5.09
-3.54
-1.02
2.32
6.08
9.72
12.8
15.03
16.4
17.0
16.94
16.25
14.88
12.8
10.17
7.31
4.63
2.45
0.89
-0.15
-0.9
-1.57
-2.25
-2.88
-3.35
-3.6
-3.66
-3.69
-3.96
-4.7
-6.08
-8.07
-10.5
-13.07
-15.44
-17.31
-18.48
-18.84
-18.34
-16.99
-14.82
-11.97
-8.64
-5.15
-1.88
0.84
2.83
4.11
4.87
5.39
5.84
6.28
6.57
6.53
6.06
5.22
4.21
3.27
2.5
1.89
1.24
0.39
-0.76
-2.12
-3.45
-4.53
-5.23
-5.63
-6.0
-6.64
-7.75
-9.27
-10.85
-11.96
-12.13
-11.05
-8.81
-5.76
-2.44
0.66
3.21
5.14
6.55
7.67
8.66
9.56
10.3
10.76
10.82
10.47
9.8
8.92
7.91
6.72
5.26
3.44
1.33
-0.87
-2.9
-4.55
-5.82
-6.85
-7.88
-9.1
-10.57
-12.19
-13.82
-15.3
-16.52
-17.43
-18.01
-18.18
-17.88
-16.98
-15.39
-13.07
-10.08
-6.62
-2.94
0.68
4.01
6.93
9.34
11.15
12.22
12.38
11.64
10.17
8.39
6.78
5.73
5.34
5.38
5.4
4.99
3.98
2.48
0.83
-0.63
-1.71
-2.5
-3.21
-4.02
-4.99
-5.99
-6.82
-7.31
-7.4
-7.13
-6.51
-5.48
-3.9
-1.65
1.3
4.79
8.51
12.03
14.9
16.78
17.53
17.28
16.34
15.05
13.67
12.27
10.74
8.95
6.84
4.52
2.2
0.08
-1.74
-3.32
-4.84
-6.49
-8.4
-10.58
-12.94
-15.29
-17.45
-19.39
-21.15
-22.89
-24.68
-26.4
-27.76
-28.36
-27.9
-26.32
-23.81
-20.71
-17.36
-13.94
-10.5
-7.05
-3.66
-0.59
1.86
3.35
3.75
3.13
1.83
0.31
-1.03
-1.96
-2.52
-2.91
-3.36
-3.97
-4.74
-5.54
-6.23
-6.82
-7.34
-7.87
-8.45
-9.06
-9.65
-10.29
-11.05
-11.98
-13.01
-13.86
-14.07
-13.1
-10.55
-6.27
-0.53
6.04
12.56
18.18
22.33
24.8
25.74
25.46
24.17
21.87
18.44
13.86
8.42
2.84
-1.89
-4.8
-5.28
-3.4
0.17
4.37
8.16
10.86
12.34
12.92
13.12
13.22
13.17
12.66
11.31
9.0
5.96
2.69
-0.3
-2.59
-4.03
-4.62
-4.45
-3.62
-2.3
-0.72
0.8
1.89
2.24
1.73
0.41
-1.44
-3.48
-5.41
-7.04
-8.3
-9.25
-9.94
-10.4
-10.65
-10.68
-10.49
-10.07
-9.36
-8.3
-6.81
-4.94
-2.82
-0.73
0.99
2.09
2.42
2.06
1.34
0.77
0.91
2.19
4.71
8.19
12.0
15.45
18.02
19.54
20.17
20.24
20.01
19.62
18.98
17.9
16.25
14.03
11.39
8.54
5.69
2.92
0.14
-2.78
-5.89
-9.11
-12.14
-14.64
-16.37
-17.35
-17.87
-18.3
-18.9
-19.63
-20.22
-20.21
-19.28
-17.31
-14.42
-10.89
-6.98
-2.95
0.99
4.57
7.5
9.46
10.3
10.05
8.99
7.49
5.92
4.45
3.05
1.58
-0.12
-2.07
-4.12
-6.03
-7.57
-8.58
-9.12
-9.33
-9.46
-9.81
-10.59
-11.94
-13.83
-16.08
-18.38
-20.37
-21.78
-22.44
-22.26
-21.22
-19.28
-16.39
-12.58
-8.08
-3.37
0.95
4.35
6.53
7.59
7.94
8.1
8.49
9.27
10.31
11.35
12.13
12.54
12.59
12.37
11.94
11.26
10.14
8.39
5.89
2.68
-1.04
-4.98
-8.83
-12.42
-15.71
-18.76
-21.61
-24.14
-26.04
-26.91
-26.36
-24.22
-20.54
-15.59
-9.69
-3.12
3.92
11.18
18.33
24.86
30.22
33.98
36.02
36.6
36.24
35.47
34.69
33.96
33.14
32.04
30.58
28.92
27.37
26.24
25.71
25.72
26.07
26.46
26.61
26.31
25.3
23.34
20.3
16.27
11.68
7.26
3.84
2.11
2.34
4.36
7.66
11.53
15.38
18.82
21.67
23.93
25.6
26.62
26.88
26.22
24.6
22.1
19.0
15.68
12.48
9.54
6.82
4.09
1.14
-2.11
-5.53
-8.79
-11.53
-13.53
-14.86
-15.88
-17.12
-19.05
-21.93
-25.64
-29.78
-33.84
-37.26
-39.64
-40.68
-40.19
-38.05
-34.22
-28.82
-22.12
-14.57
-6.78
0.62
7.07
12.16
15.79
18.15
19.7
20.96
22.28
23.7
24.9
25.42
24.89
23.21
20.59
17.4
13.94
10.37
6.73
3.05
-0.46
-3.5
-5.74
-7.11
-7.9
-8.71
-10.18
-12.69
-16.07
-19.64
-22.46
-23.65
-22.78
-19.97
-15.69
-10.54
-5.0
0.66
6.29
11.72
16.59
20.5
23.07
24.12
23.71
22.09
19.63
16.74
13.83
11.24
9.26
7.96
7.2
6.65
5.94
4.73
2.86
0.37
-2.64
-5.95
-9.4
-12.83
-16.15
-19.29
-22.29
-25.25
-28.24
-31.21
-33.9
-35.79
-36.28
-34.9
-31.52
-26.41
-20.13
-13.35
-6.63
-0.4
5.05
9.45
12.59
14.33
14.77
14.25
13.26
12.29
11.62
11.26
10.96
10.42
9.45
8.06
6.47
4.94
3.68
2.73
1.95
1.14
0.13
-1.09
-2.37
-3.51
-4.33
-4.77
-4.93
-5.0
-5.18
-5.63
-6.36
-7.27
-8.13
-8.62
-8.45
-7.44
-5.5
-2.7
0.84
4.97
9.48
14.07
18.27
21.57
23.51
23.86
22.74
20.51
17.64
14.57
11.59
8.85
6.41
4.32
2.58
1.11
-0.25
-1.74
-3.56
-5.86
-8.6
-11.6
-14.56
-17.16
-19.16
-20.45
-21.15
-21.49
-21.77
-22.19
-22.79
-23.46
-24.01
-24.3
-24.33
-24.14
-23.73
-22.99
-21.69
-19.57
-16.48
-12.48
-7.89
-3.18
1.15
4.79
7.65
9.84
11.5
12.71
13.39
13.43
12.81
11.74
10.58
9.73
9.36
9.38
9.43
9.13
8.3
7.08
5.84
4.98
4.71
4.98
5.5
5.9
5.91
5.4
4.41
3.13
1.77
0.54
-0.39
-0.87
-0.81
-0.15
1.12
2.91
5.04
7.27
9.32
10.92
11.94
12.31
12.13
11.53
10.65
9.61
8.41
7.06
5.56
3.94
2.33
0.84
-0.45
-1.51
-2.45
-3.44
-4.6
-6.05
-7.74
-9.58
-11.39
-12.95
-14.15
-14.93
-15.36
-15.62
-15.84
-16.05
-16.13
-15.83
-14.88
-13.15
-10.64
-7.52
-4.03
-0.39
3.26
6.8
10.09
12.94
15.12
16.41
16.72
16.13
14.88
13.27
11.61
10.08
8.77
7.69
6.81
6.11
5.56
5.11
4.65
4.05
3.22
2.2
1.1
0.07
-0.81
-1.53
-2.23
-3.03
-4.01
-5.1
-6.09
-6.66
-6.57
-5.64
-3.97
-1.79
0.53
2.72
4.62
6.26
7.75
9.16
10.41
11.29
11.58
11.11
9.91
8.15
6.11
4.04
2.1
0.35
-1.2
-2.53
-3.66
-4.57
-5.35
-6.11
-7.12
-8.6
-10.67
-13.25
-16.01
-18.55
-20.53
-21.88
-22.84
-23.74
-24.8
-25.9
-26.56
-26.15
-24.16
-20.51
-15.57
-10.03
-4.64
0.11
4.04
7.21
9.73
11.65
12.88
13.32
13.03
12.29
11.5
11.05
11.09
11.45
11.67
11.3
10.04
7.98
5.49
3.1
1.28
0.25
-0.1
-0.09
-0.14
-0.58
-1.55
-3.04
-4.9
-6.98
-9.1
-11.08
-12.72
-13.73
-13.86
-12.97
-11.08
-8.44
-5.46
-2.59
-0.17
1.65
2.96
4.02
5.12
6.47
8.06
9.75
11.33
12.64
13.66
14.43
14.95
15.09
14.53
12.92
10.05
6.02
1.2
-3.91
-8.85
-13.35
-17.33
-20.8
-23.78
-26.31
-28.41
-30.13
-31.52
-32.57
-33.23
-33.37
-32.8
-31.46
-29.34
-26.62
-23.58
-20.57
-17.98
-16.06
-14.89
-14.29
-13.89
-13.22
-11.89
-9.67
-6.64
-3.08
0.59
3.93
6.65
8.63
9.91
10.6
10.82
10.61
10.0
9.02
7.79
6.54
5.65
5.58
6.81
9.72
14.44
20.77
28.12
35.65
42.53
48.15
52.24
54.83
56.06
56.01
54.65
51.9
47.84
42.75
37.11
31.48
26.27
21.66
17.56
13.81
10.24
6.87
3.82
1.32
-0.41
-1.27
-1.25
-0.4
1.14
3.08
4.91
5.94
5.39
2.73
-2.14
-8.77
-16.24
-23.44
-29.39
-33.42
-35.24
-34.95
-32.86
-29.41
-25.07
-20.34
-15.7
-11.57
-8.22
-5.78
-4.13
-2.99
-1.98
-0.86
0.34
1.34
1.76
1.39
0.37
-0.87
-1.8
-2.13
-1.95
-1.62
-1.54
-1.91
-2.6
-3.28
-3.63
-3.56
-3.29
-3.16
-3.49
-4.44
-5.91
-7.6
-9.16
-10.21
-10.51
-9.97
-8.6
-6.49
-3.75
-0.43
3.34
7.39
11.34
14.75
17.21
18.54
18.89
18.68
18.47
18.73
19.73
21.53
23.94
26.56
28.75
29.66
28.41
24.32
17.29
7.94
-2.46
-12.35
-20.39
-25.79
-28.46
-28.88
-27.83
-26.12
-24.44
-23.23
-22.7
-22.77
-23.07
-23.08
-22.29
-20.41
-17.49
-13.86
-10.03
-6.5
-3.59
-1.45
-0.07
0.65
0.91
0.95
1.05
1.44
2.23
3.36
4.59
5.56
5.95
5.62
4.6
3.15
1.53
0.03
-1.24
-2.28
-3.19
-4.09
-5.05
-6.13
-7.35
-8.78
-10.51
-12.49
-14.45
-15.87
-16.04
-14.38
-10.67
-5.24
1.1
7.33
12.57
16.4
18.86
20.35
21.32
22.07
22.64
22.9
22.7
22.05
21.14
20.22
19.51
19.06
18.67
18.04
16.91
15.16
12.84
10.14
7.21
4.17
0.98
-2.36
-5.8
-9.21
-12.39
-15.17
-17.48
-19.36
-20.85
-21.93
-22.42
-22.07
-20.63
-18.02
-14.39
-10.13
-5.71
-1.57
2.01
4.94
7.3
9.16
10.58
11.51
11.8
11.35
10.13
8.32
6.21
4.16
2.42
1.02
-0.19
-1.47
-3.01
-4.81
-6.67
-8.34
-9.66
-10.63
-11.42
-12.21
-13.05
-13.78
-14.07
-13.54
-11.94
-9.21
-5.56
-1.34
3.06
7.36
11.39
15.11
18.51
21.53
24.01
25.75
26.63
26.67
26.04
25.09
24.19
23.6
23.44
23.62
23.93
24.08
23.85
23.1
21.8
20.01
17.8
15.19
12.17
8.72
4.84
0.64
-3.76
-8.14
-12.34
-16.15
-19.34
-21.67
-22.85
-22.67
-21.05
-18.15
-14.34
-10.16
-6.07
-2.41
0.69
3.33
5.65
7.79
9.67
11.14
11.98
12.15
11.84
11.47
11.52
12.32
13.82
15.56
16.88
17.12
16.02
13.75
10.82
7.83
5.07
2.5
-0.25
-3.57
-7.54
-11.83
-15.79
-18.71
-20.15
-20.06
-18.71
-16.56
-13.96
-11.08
-7.96
-4.66
-1.4
1.38
3.23
3.88
3.4
2.27
1.09
0.41
0.39
0.91
1.62
2.17
2.38
2.25
1.88
1.32
0.57
-0.43
-1.71
-3.27
-5.03
-6.99
-9.23
-11.95
-15.36
-19.5
-24.14
-28.73
-32.49
-34.63
-34.62
-32.36
-28.31
-23.27
-18.14
-13.59
-9.89
-6.95
-4.49
-2.33
-0.46
0.97
1.86
2.25
2.37
2.48
2.72
2.99
2.96
2.31
0.89
-1.15
-3.37
-5.25
-6.42
-6.76
-6.49
-6.02
-5.76
-5.97
-6.67
-7.68
-8.79
-9.83
-10.76
-11.58
-12.2
-12.37
-11.66
-9.65
-6.07
-1.14
4.57
10.24
14.96
18.03
19.2
18.73
17.33
15.89
14.98
14.85
15.17
15.23
14.2
11.58
7.43
2.41
-2.49
-6.42
-8.63
-8.66
-6.47
-2.53
2.13
5.86
6.59
4.09
-1.98
-10.88
-20.64
-29.01
-34.53
-36.86
-36.44
-33.88
-29.43
-23.4
-16.27
-9.01
-3.06
0.21
0.14
-2.67
-6.52
-9.22
-9.2
-6.18
-1.26
3.56
6.0
4.16
-3.05
-15.16
-30.07
-43.11
-48.84
-42.72
-23.04
7.79
43.45
75.59
95.63
99.61
88.81
68.32
44.32
21.85
3.51
-10.25
-20.03
-26.36
-29.07
-28.32
-23.95
-16.85
-8.6
-1.0
4.77
8.46
10.79
13.02
15.95
19.61
23.05
25.07
24.83
22.2
17.83
12.8
8.11
4.08
0.47
-3.58
-8.62
-14.49
-20.46
-25.56
-29.12
-30.92
-31.33
-30.82
-29.8
-28.76
-27.23
-25.09
-22.55
-20.07
-18.02
-16.46
-14.98
-13.01
-10.07
-6.01
-1.32
3.23
6.81
8.94
9.61
9.23
8.31
7.25
6.25
5.19
3.95
2.53
1.2
0.1
-0.46
-0.34
0.33
1.2
1.86
2.03
1.69
1.01
0.22
-0.54
-1.36
-2.45
-3.98
-5.95
-8.15
-10.29
-12.18
-13.9
-15.75
-18.11
-21.17
-24.73
-28.14
-30.58
-31.34
-30.08
-26.93
-22.35
-16.9
-11.07
-5.2
0.41
5.41
9.4
11.99
12.93
12.26
10.33
7.69
4.94
2.54
0.79
-0.29
-0.7
-0.47
0.47
2.26
4.96
8.43
12.18
15.48
17.57
17.93
16.48
13.58
9.81
5.69
1.53
-2.66
-6.89
-11.09
-14.94
-17.92
-19.54
-19.45
-17.57
-14.12
-9.43
-3.92
2.04
8.06
13.74
18.64
22.3
24.33
24.57
23.11
20.41
17.05
13.65
10.69
8.41
6.84
5.88
5.44
5.45
5.85
6.51
7.23
7.72
7.7
7.04
5.77
4.09
2.26
0.51
-1.09
-2.68
-4.52
-6.89
-9.9
-13.34
-16.71
-19.37
-20.73
-20.47
-18.65
-15.67
-12.09
-8.39
-4.91
-1.71
1.28
4.22
7.2
10.24
13.22
15.96
18.27
20.0
21.11
21.7
21.9
21.88
21.74
21.51
21.2
20.85
20.55
20.42
20.51
20.75
20.87
20.53
19.38
17.16
13.79
9.37
4.08
-1.74
-7.68
-13.14
-17.46
-19.97
-20.25
-18.29
-14.53
-9.65
-4.41
0.61
5.09
8.89
12.0
14.4
16.09
17.13
17.7
18.0
18.23
18.45
18.53
18.23
17.27
15.54
13.11
10.26
7.4
4.91
2.98
1.65
0.7
-0.15
-1.23
-2.73
-4.72
-7.09
-9.62
-11.93
-13.61
-14.22
-13.43
-11.05
-7.1
-1.77
4.61
11.66
18.94
26.07
32.71
38.5
43.09
46.1
47.18
46.07
42.71
37.37
30.59
23.16
15.93
9.54
4.27
-0.04
-3.91
-7.96
-12.61
-17.9
-23.45
-28.65
-32.93
-35.96
-37.76
-38.62
-38.86
-38.72
-38.24
-37.35
-35.93
-33.94
-31.44
-28.42
-24.89
-20.82
-16.22
-11.25
-6.18
-1.41
2.65
5.68
7.53
8.24
8.04
7.33
6.55
6.11
6.25
6.96
7.95
8.8
9.11
8.73
7.75
6.55
5.5
4.87
4.7
4.79
4.91
4.82
4.46
3.83
2.97
1.91
0.72
-0.46
-1.33
-1.58
-0.92
0.7
3.11
5.92
8.74
11.23
13.21
14.64
15.48
15.69
15.18
13.88
11.76
8.88
5.41
1.6
-2.26
-5.81
-8.74
-10.86
-12.12
-12.68
-12.8
-12.74
-12.61
-12.41
-12.1
-11.71
-11.43
-11.55
-12.25
-13.47
-14.95
-16.32
-17.29
-17.67
-17.42
-16.51
-14.86
-12.38
-9.09
-5.14
-0.82
3.51
7.56
11.12
14.07
16.27
17.56
17.81
17.04
15.47
13.52
11.71
10.53
10.28
11.04
12.67
14.87
17.3
19.69
21.83
23.58
24.81
25.39
25.2
24.21
22.52
20.28
17.64
14.75
11.72
8.72
5.98
3.78
2.38
1.82
1.93
2.36
2.68
2.5
1.55
-0.3
-3.08
-6.67
-10.8
-15.03
-18.86
-21.76
-23.41
-23.72
-22.86
-21.21
-19.28
-17.56
-16.39
-15.91
-16.02
-16.41
-16.63
-16.26
-15.02
-12.89
-10.14
-7.3
-5.05
-4.01
-4.57
-6.64
-9.75
-13.1
-15.84
-17.37
-17.51
-16.48
-14.8
-12.98
-11.39
-10.04
-8.75
-7.18
-5.07
-2.4
0.62
3.59
6.09
7.84
8.83
9.27
9.49
9.75
10.15
10.52
10.6
10.12
8.97
7.28
5.33
3.44
1.81
0.47
-0.77
-2.18
-4.02
-6.45
-9.43
-12.79
-16.22
-19.32
-21.75
-23.18
-23.46
-22.63
-20.84
-18.39
-15.57
-12.67
-9.89
-7.41
-5.3
-3.63
-2.38
-1.5
-0.87
-0.33
0.29
1.13
2.28
3.74
5.41
7.17
8.88
10.53
12.15
13.85
15.66
17.49
19.11
20.12
20.17
18.98
16.48
12.9
8.71
4.58
1.22
-0.85
-1.4
-0.57
1.28
3.69
6.3
8.93
11.46
13.8
15.8
17.3
18.2
18.61
18.79
19.06
19.66
20.64
21.91
23.27
24.55
25.64
26.48
27.04
27.25
26.98
26.06
24.3
21.5
17.55
12.47
6.37
-0.44
-7.62
-14.67
-21.1
-26.42
-30.25
-32.42
-32.99
-32.23
-30.53
-28.22
-25.45
-22.23
-18.5
-14.33
-10.01
-6.01
-2.86
-0.83
0.06
0.18
0.01
0.02
0.38
0.96
1.39
1.27
0.43
-1.07
-2.95
-4.91
-6.78
-8.51
-10.15
-11.66
-12.88
-13.63
-13.84
-13.68
-13.54
-13.86
-14.85
-16.32
-17.71
-18.3
-17.44
-14.84
-10.59
-5.09
1.05
7.25
13.06
18.15
22.36
25.6
27.83
29.05
29.41
29.12
28.53
27.96
27.66
27.64
27.68
27.41
26.38
24.29
21.05
16.85
12.11
7.33
2.9
-0.93
-4.16
-6.88
-9.2
-11.16
-12.63
-13.39
-13.16
-11.75
-9.11
-5.34
-0.68
4.64
10.42
16.56
23.04
29.92
37.28
45.17
53.54
61.99
69.66
75.17
76.89
73.42
64.24
50.13
33.14
16.03
1.41
-9.08
-15.11
-17.55
-17.91
-17.71
-17.94
-18.98
-20.64
-22.47
-23.98
-24.81
-24.8
-23.89
-22.11
-19.58
-16.59
-13.58
-11.09
-9.55
-9.08
-9.43
-10.06
-10.41
-10.09
-9.01
-7.31
-5.18
-2.77
-0.16
2.53
5.1
7.21
8.53
8.81
7.97
6.08
3.3
-0.13
-3.97
-7.91
-11.7
-15.14
-18.15
-20.76
-23.02
-25.02
-26.82
-28.47
-30.0
-31.43
-32.74
-33.91
-34.84
-35.47
-35.74
-35.7
-35.43
-35.02
-34.5
-33.75
-32.55
-30.59
-27.57
-23.3
-17.82
-11.37
-4.35
2.69
9.26
14.94
19.5
22.88
25.11
26.33
26.69
26.35
25.53
24.47
23.42
22.62
22.16
21.95
21.77
21.37
20.54
19.22
17.43
15.29
12.86
10.2
7.29
4.09
0.58
-3.28
-7.52
-12.04
-16.67
-21.01
-24.5
-26.6
-26.93
-25.46
-22.55
-18.82
-14.9
-11.27
-8.18
-5.7
-3.83
-2.6
-2.1
-2.43
-3.58
-5.37
-7.47
-9.51
-11.21
-12.43
-13.24
-13.81
-14.37
-15.07
-15.94
-16.92
-17.91
-18.89
-19.95
-21.32
-23.26
-26.01
-29.62
-33.89
-38.34
-42.22
-44.76
-45.3
-43.52
-39.49
-33.63
-26.61
-19.1
-11.67
-4.63
1.85
7.78
13.15
17.97
22.17
25.68
28.44
30.39
31.53
31.9
31.63
30.92
29.99
29.06
28.28
27.62
26.95
26.05
24.7
22.77
20.23
17.2
13.82
10.24
6.62
3.14
0.1
-2.11
-3.09
-2.49
-0.15
3.96
9.77
17.25
26.32
36.79
48.16
59.57
69.94
78.37
84.38
88.07
89.94
90.56
90.24
88.99
86.59
82.81
77.59
71.18
64.06
56.81
49.93
43.63
37.83
32.16
26.21
19.69
12.59
5.14
-2.35
-9.6
-16.43
-22.69
-28.1
-32.21
-34.65
-35.22
-34.16
-32.02
-29.5
-27.16
-25.21
-23.55
-21.86
-19.86
-17.5
-14.94
-12.52
-10.63
-9.45
-8.96
-8.91
-8.94
-8.78
-8.34
-7.75
-7.3
-7.31
-7.96
-9.28
-11.1
-13.21
-15.45
-17.81
-20.38
-23.21
-26.24
-29.12
-31.34
-32.37
-31.87
-29.87
-26.69
-22.81
-18.68
-14.6
-10.74
-7.27
-4.37
-2.15
-0.65
0.24
0.73
0.92
0.8
0.19
-1.1
-3.18
-5.97
-9.2
-12.52
-15.54
-17.94
-19.53
-20.25
-20.26
-19.87
-19.49
-19.51
-20.18
-21.53
-23.37
-25.21
-26.44
-26.37
-24.47
-20.59
-15.05
-8.58
-2.1
3.59
8.01
11.08
12.98
13.98
14.28
13.99
13.18
12.01
10.69
9.48
8.55
7.89
7.36
6.74
5.86
4.68
3.27
1.73
0.12
-1.58
-3.43
-5.41
-7.49
-9.58
-11.6
-13.53
-15.3
-16.7
-17.34
-16.72
-14.44
-10.34
-4.62
2.17
9.35
16.3
22.54
27.7
31.45
33.5
33.6
31.73
28.16
23.31
17.7
11.67
5.29
-1.55
-8.92
-16.72
-24.5
-31.61
-37.47
-41.74
-44.49
-46.02
-46.61
-46.28
-44.75
-41.65
-36.82
-30.58
-23.75
-17.41
-12.53
-9.64
-8.71
-9.32
-10.92
-13.1
-15.66
-18.5
-21.37
-23.84
-25.32
-25.31
-23.69
-20.79
-17.35
-14.2
-11.88
-10.49
-9.72
-9.05
-8.1
-6.75
-5.21
-3.77
-2.65
-1.86
-1.29
-0.82
-0.44
-0.32
-0.76
-2.0
-4.07
-6.7
-9.36
-11.42
-12.36
-11.97
-10.42
-8.08
-5.33
-2.39
0.72
4.08
7.66
11.29
14.58
17.14
18.75
19.43
19.45
19.16
18.77
18.36
17.77
16.83
15.45
13.72
11.89
10.34
9.36
9.06
9.35
9.94
10.52
10.87
10.89
10.6
10.05
9.27
8.2
6.78
4.98
2.93
0.9
-0.8
-1.94
-2.51
-2.71
-2.84
-3.13
-3.64
-4.23
-4.72
-4.98
-5.04
-5.12
-5.46
-6.23
-7.49
-9.11
-10.86
-12.47
-13.68
-14.41
-14.77
-15.07
-15.71
-17.06
-19.26
-22.16
-25.34
-28.17
-30.0
-30.32
-28.83
-25.59
-20.93
-15.43
-9.73
-4.38
0.26
4.01
6.77
8.52
9.27
9.11
8.3
7.18
6.09
5.22
4.57
3.97
3.24
2.29
1.2
0.11
-0.85
-1.65
-2.35
-3.11
-4.12
-5.55
-7.48
-9.87
-12.51
-15.04
-16.99
-17.9
-17.48
-15.65
-12.57
-8.59
-4.12
0.45
4.78
8.63
11.78
14.03
15.24
15.35
14.44
12.73
10.54
8.24
6.1
4.32
2.92
1.81
0.86
-0.07
-1.06
-2.14
-3.27
-4.47
-5.73
-7.15
-8.86
-10.98
-13.56
-16.45
-19.31
-21.59
-22.65
-21.98
-19.29
-14.66
-8.55
-1.63
5.39
11.94
17.74
22.66
26.69
29.8
31.92
32.96
32.94
31.99
30.4
28.5
26.56
24.69
22.83
20.84
18.56
15.9
12.95
9.9
7.01
4.46
2.21
0.02
-2.53
-5.84
-10.12
-15.25
-20.68
-25.58
-29.06
-30.39
-29.24
-25.76
-20.52
-14.29
-7.85
-1.76
3.67
8.37
12.33
15.59
18.2
20.22
21.78
23.01
24.0
24.77
25.26
25.4
25.22
24.86
24.6
24.74
25.47
26.74
28.16
29.03
28.51
25.92
21.02
14.18
6.28
-1.57
-8.38
-13.55
-16.91
-18.64
-18.94
-17.93
-15.61
-11.93
-7.04
-1.26
4.84
10.64
15.53
19.09
21.05
21.34
20.09
17.62
14.42
11.01
7.77
4.82
1.97
-1.1
-4.68
-8.84
-13.37
-17.87
-21.97
-25.42
-28.22
-30.58
-32.81
-35.25
-38.11
-41.46
-45.13
-48.76
-51.87
-54.07
-55.19
-55.34
-54.81
-53.99
-53.07
-52.05
-50.75
-48.96
-46.68
-44.22
-42.18
-41.35
-42.42
-45.67
-50.73
-56.43
-60.93
-62.05
-57.79
-46.94
-29.39
-6.34
19.93
46.56
70.56
89.52
101.95
107.48
106.74
100.95
91.43
79.25
65.17
49.9
34.41
20.1
8.59
1.18
-1.65
-0.5
3.22
7.76
11.65
13.97
14.41
12.99
9.85
5.2
-0.59
-6.85
-12.58
-16.68
-18.32
-17.26
-13.95
-9.37
-4.69
-0.79
2.0
3.94
5.68
7.91
10.97
14.6
18.15
20.69
21.42
19.86
16.12
10.92
5.36
0.63
-2.35
-3.1
-1.58
1.79
6.37
11.45
16.52
21.29
25.57
29.17
31.99
34.03
35.36
36.15
36.6
37.21
38.42
40.45
42.77
44.69
45.39
44.16
40.45
34.15
26.14
17.63
9.7
2.3
-4.57
-10.8
-16.08
-20.19
-22.99
-23.97
-22.98
-20.66
-19.18
-19.63
-21.89
-24.55
-25.96
-24.62
-18.78
-7.5
8.93
27.97
47.89
67.76
87.41
106.33
118.44
118.41
104.85
88.45
73.19
60.33
47.73
34.99
21.8
7.96
-5.65
-17.74
-27.38
-35.53
-42.61
-48.9
-54.4
-59.51
-64.52
-68.84
-71.52
-71.97
-71.18
-69.76
-68.08
-66.19
-64.3
-62.6
-60.71
-58.07
-54.28
-49.82
-44.82
-39.34
-33.33
-27.03
-20.86
-15.0
-9.51
-4.42
-0.14
3.13
5.32
6.57
7.03
6.94
6.64
6.4
6.27
5.99
5.34
4.22
2.8
1.36
0.16
-0.65
-1.09
-1.33
-1.57
-1.92
-2.44
-3.09
-3.84
-4.73
-5.83
-7.22
-8.92
-10.77
-12.42
-13.38
-13.2
-11.63
-8.74
-4.86
-0.53
3.78
7.73
11.17
14.05
16.34
17.99
18.9
18.97
18.18
16.62
14.54
12.3
10.33
8.92
8.18
7.98
8.06
8.1
7.9
7.36
6.48
5.28
3.75
1.92
-0.19
-2.47
-4.87
-7.32
-9.88
-12.58
-15.4
-18.15
-20.44
-21.78
-21.74
-20.12
-17.06
-13.0
-8.6
-4.48
-1.07
1.48
3.3
4.63
5.69
6.65
7.53
8.29
8.83
9.1
9.04
8.71
8.21
7.65
7.09
6.57
6.05
5.54
5.06
4.64
4.24
3.76
2.96
1.64
-0.24
-2.61
-5.22
-7.9
-10.59
-13.32
-16.14
-18.93
-21.34
-22.87
-23.02
-21.48
-18.26
-13.65
-8.2
-2.49
2.95
7.73
11.58
14.34
15.96
16.54
16.27
15.46
14.49
13.61
13.0
12.63
12.41
12.22
12.03
11.87
11.77
11.7
11.56
11.19
10.45
9.31
7.83
6.13
4.36
2.63
1.04
-0.41
-1.79
-3.22
-4.79
-6.47
-7.99
-8.93
-8.72
-6.9
-3.31
1.85
7.99
14.28
19.97
24.46
27.44
28.82
28.7
27.31
24.95
22.01
18.85
15.76
12.85
10.05
7.12
3.88
0.21
-3.75
-7.73
-11.35
-14.18
-15.94
-16.54
-16.12
-15.05
-13.81
-12.84
-12.41
-12.55
-13.13
-14.03
-15.14
-16.42
-17.74
-18.73
-18.8
-17.37
-14.07
-9.05
-2.93
3.32
8.8
12.9
15.45
16.68
16.9
16.39
15.25
13.47
11.15
8.56
6.12
4.28
3.3
3.17
3.6
4.19
4.67
4.88
4.9
4.84
4.8
4.73
4.59
4.29
3.83
3.25
2.53
1.56
0.12
-2.06
-5.1
-8.85
-12.82
-16.26
-18.31
-18.32
-16.09
-11.89
-6.46
-0.75
4.36
8.26
10.69
11.75
11.71
10.95
9.75
8.3
6.77
5.29
4.08
3.32
3.11
3.31
3.58
3.48
2.66
1.05
-1.09
-3.34
-5.3
-6.83
-8.03
-9.2
-10.65
-12.59
-15.02
-17.8
-20.7
-23.47
-25.82
-27.5
-28.23
-27.76
-25.94
-22.73
-18.25
-12.81
-6.85
-0.88
4.68
9.54
13.57
16.77
19.2
20.85
21.68
21.65
20.82
19.42
17.73
16.11
14.77
13.73
12.83
11.8
10.43
8.66
6.6
4.5
2.6
1.01
-0.32
-1.61
-3.08
-4.89
-7.06
-9.51
-12.01
-14.34
-16.2
-17.27
-17.2
-15.67
-12.53
-7.91
-2.25
3.74
9.26
13.57
16.27
17.31
16.91
15.45
13.3
10.74
7.97
5.14
2.4
-0.12
-2.41
-4.54
-6.63
-8.85
-11.21
-13.68
-16.17
-18.58
-20.89
-23.13
-25.38
-27.67
-30.02
-32.31
-34.29
-35.55
-35.58
-33.93
-30.27
-24.56
-16.96
-7.91
2.05
12.22
21.83
30.13
36.51
40.59
42.38
42.27
40.86
38.86
36.78
34.91
33.32
31.86
30.28
28.26
25.58
22.15
18.1
13.71
9.31
5.31
1.92
-0.95
-3.66
-6.59
-10.02
-13.87
-17.77
-21.18
-23.38
-23.92
-22.76
-20.12
-16.23
-11.32
-5.49
0.93
7.3
13.25
18.35
22.15
24.41
25.36
25.4
25.2
25.11
24.93
24.87
24.91
24.57
23.19
20.47
16.35
11.81
8.18
6.93
10.11
18.65
31.39
45.46
57.62
65.22
67.91
66.87
58.01
40.51
17.41
-5.96
-25.31
-36.37
-41.35
-42.36
-41.04
-38.1
-34.55
-30.81
-27.61
-25.62
-24.85
-24.93
-24.45
-22.2
-17.12
-8.42
3.46
16.78
29.38
39.83
47.45
52.7
52.44
45.42
33.53
20.61
9.52
0.86
-6.36
-13.47
-21.03
-28.89
-36.04
-41.73
-46.24
-50.84
-56.73
-63.98
-71.13
-75.58
-74.55
-65.79
-48.97
-25.82
0.18
25.11
45.47
59.54
66.37
66.07
60.05
50.38
39.31
28.76
20.2
14.19
10.59
8.47
6.69
4.37
1.02
-3.2
-7.5
-10.74
-12.07
-11.2
-8.8
-6.04
-4.06
-3.55
-4.55
-6.88
-8.94
-10.12
-10.36
-10.11
-9.98
-10.44
-11.69
-13.51
-15.33
-16.32
-15.91
-13.77
-10.1
-5.61
-1.25
2.17
4.47
6.13
8.14
11.3
15.94
21.69
27.76
33.43
38.44
43.09
47.88
53.18
58.64
63.41
66.51
67.36
66.21
64.08
62.35
62.09
63.73
66.8
70.31
73.14
74.4
73.61
70.7
65.87
59.37
51.41
42.09
31.48
19.72
7.13
-5.84
-18.64
-30.76
-41.85
-51.7
-60.21
-67.29
-72.85
-76.82
-79.3
-80.6
-81.25
-81.74
-82.33
-82.9
-82.93
-81.7
-78.64
-73.51
-66.53
-58.26
-49.38
-40.5
-32.14
-24.74
-18.69
-14.33
-11.86
-11.21
-11.95
-13.47
-15.09
-16.28
-16.8
-16.65
-16.05
-15.34
-14.89
-15.12
-16.27
-18.35
-21.0
-23.59
-25.47
-26.27
-26.08
-25.43
-25.0
-25.29
-26.31
-27.65
-28.58
-28.42
-26.77
-23.59
-19.2
-14.09
-8.72
-3.39
1.76
6.65
11.14
14.91
17.5
18.46
17.65
15.3
12.01
8.53
5.4
2.74
0.28
-2.49
-5.92
-10.01
-14.39
-18.51
-21.99
-24.83
-27.34
-29.99
-33.06
-36.42
-39.54
-41.71
-42.25
-40.76
-37.09
-31.4
-24.05
-15.49
-6.32
2.85
11.41
18.86
24.84
29.16
31.78
32.79
32.41
30.93
28.69
25.98
23.02
19.91
16.7
13.48
10.38
7.58
5.2
3.24
1.54
-0.17
-2.14
-4.53
-7.4
-10.67
-14.29
-18.17
-22.18
-26.07
-29.37
-31.53
-32.07
-30.85
-28.1
-24.37
-20.22
-15.95
-11.51
-6.66
-1.22
4.61
10.31
15.14
18.45
19.96
19.95
19.0
17.75
16.76
16.38
16.62
17.24
17.76
17.72
16.9
15.31
13.11
10.58
7.97
5.39
2.82
0.07
-3.01
-6.22
-9.38
-12.42
-15.19
-17.43
-18.81
-18.89
-17.72
-15.41
-11.61
-6.53
-1.01
4.18
8.44
11.47
13.17
12.74
9.63
5.0
-0.43
-6.53
-12.97
-19.19
-24.69
-29.12
-33.73
-39.65
-45.53
-50.82
-56.11
-61.53
-66.79
-71.26
-74.11
-76.26
-78.41
-78.43
-75.86
-72.54
-70.34
-70.72
-74.14
-69.47
-49.88
-29.32
-12.32
5.37
24.1
43.15
61.33
77.57
91.29
100.69
104.78
106.17
106.44
105.53
103.55
100.63
96.99
93.04
87.97
81.38
75.44
71.32
68.75
67.58
67.34
67.71
68.57
69.28
69.35
69.91
71.15
72.33
72.83
71.47
67.4
60.67
51.73
41.34
31.1
21.31
11.55
1.5
-10.01
-23.5
-38.06
-51.95
-63.49
-71.13
-75.42
-77.68
-79.26
-82.76
-90.04
-101.22
-114.88
-129.28
-142.53
-154.62
-165.97
-166.97
-152.26
-123.72
-89.04
-55.81
-32.64
-16.9
-6.23
0.66
4.32
5.22
3.19
-0.89
-5.14
-7.86
-7.67
-5.29
-1.84
1.82
4.13
4.03
1.84
-0.97
-2.75
-1.73
2.3
9.06
17.98
27.5
35.88
42.14
46.19
48.49
50.07
51.29
52.4
53.45
53.98
53.39
51.53
48.81
45.89
43.55
42.02
41.17
40.64
39.84
38.24
35.7
32.39
28.67
24.9
21.22
17.57
13.85
9.92
5.67
1.05
-3.94
-9.25
-14.68
-19.89
-24.38
-27.58
-29.0
-28.29
-25.41
-20.56
-14.22
-7.1
0.05
6.49
11.71
15.55
18.14
19.81
20.86
21.42
21.44
20.83
19.64
18.12
16.6
15.33
14.26
13.13
11.64
9.57
6.97
4.09
1.22
-1.4
-3.73
-5.85
-7.94
-10.26
-12.97
-16.14
-19.61
-23.02
-25.79
-27.31
-27.0
-24.55
-19.94
-13.49
-5.78
2.48
10.55
17.88
24.09
29.02
32.61
34.89
35.91
35.83
34.88
33.35
31.53
29.58
27.5
25.2
22.56
19.51
16.08
12.35
8.48
4.66
1.08
-2.03
-4.58
-6.58
-8.26
-9.99
-12.15
-14.98
-18.49
-22.48
-26.52
-30.1
-32.64
-33.61
-32.59
-29.41
-24.2
-17.47
-9.97
-2.56
4.04
9.37
13.31
15.98
17.64
18.5
18.73
18.38
17.51
16.2
14.55
12.64
10.54
8.27
5.88
3.42
1.02
-1.19
-3.1
-4.66
-5.89
-6.83
-7.57
-8.18
-8.75
-9.42
-10.33
-11.67
-13.52
-15.82
-18.25
-20.24
-21.1
-20.18
-17.17
-12.2
-5.85
1.02
7.52
13.04
17.28
20.26
22.18
23.21
23.48
23.05
21.93
20.21
18.04
15.6
13.11
10.7
8.43
6.35
4.43
2.7
1.16
-0.18
-1.36
-2.47
-3.62
-4.87
-6.25
-7.75
-9.3
-10.84
-12.37
-13.95
-15.7
-17.72
-20.09
-22.62
-24.9
-26.29
-26.04
-23.6
-18.75
-11.7
-3.07
6.2
14.99
22.14
26.58
27.58
24.98
19.37
11.98
4.41
-1.86
-5.89
-7.51
-7.22
-5.85
-4.24
-2.94
-2.18
-2.02
-2.45
-3.56
-5.48
-8.23
-11.6
-15.1
-18.15
-20.29
-21.42
-21.83
-22.08
-22.74
-24.12
-26.17
-28.5
-30.61
-31.97
-32.18
-30.98
-28.15
-23.6
-17.4
-9.86
-1.51
6.94
14.79
21.51
26.86
30.84
33.7
35.71
37.08
37.9
38.15
37.81
36.94
35.7
34.38
33.25
32.45
31.95
31.49
30.65
29.05
26.42
22.75
18.28
13.42
8.57
3.99
-0.28
-4.33
-8.28
-12.15
-15.84
-19.17
-21.97
-24.08
-25.36
-25.59
-24.51
-21.88
-17.67
-12.13
-5.81
0.58
6.33
10.97
14.32
16.43
17.5
17.73
17.29
16.28
14.74
12.84
10.84
9.02
7.64
6.79
6.34
6.04
5.51
4.54
3.1
1.34
-0.52
-2.35
-4.19
-6.19
-8.54
-11.35
-14.6
-18.18
-21.89
-25.53
-28.84
-31.46
-32.92
-32.75
-30.61
-26.49
-20.77
-14.17
-7.54
-1.58
3.24
6.74
8.98
10.11
10.29
9.64
8.23
6.17
3.61
0.77
-2.05
-4.49
-6.17
-6.71
-5.9
-3.72
-0.49
3.25
6.8
9.51
10.98
11.12
10.09
8.19
5.66
2.66
-0.73
-4.34
-7.85
-10.77
-12.54
-12.72
-11.12
-7.91
-3.56
1.28
5.94
9.92
13.04
15.41
17.29
19.0
20.66
22.18
23.34
23.91
23.78
23.01
21.84
20.59
19.6
19.08
19.08
19.4
19.67
19.43
18.31
16.28
13.61
10.84
8.5
6.83
5.7
4.62
2.97
0.25
-3.67
-8.53
-13.68
-18.32
-21.63
-23.0
-22.21
-19.36
-14.85
-9.33
-3.46
2.12
6.89
10.51
12.81
13.83
13.79
13.0
11.79
10.41
8.98
7.58
6.15
4.61
2.86
0.85
-1.33
-3.52
-5.53
-7.19
-8.38
-9.12
-9.61
-10.2
-11.24
-12.94
-15.3
-18.11
-21.1
-23.8
-25.86
-27.13
-27.64
-27.4
-26.29
-24.13
-20.78
-16.27
-10.4
-3.26
4.6
12.34
19.19
24.84
29.34
32.96
35.96
39.46
44.19
49.98
55.77
60.39
63.14
64.02
63.49
62.27
62.52
65.77
71.91
79.2
85.51
89.54
91.19
91.24
90.89
93.35
101.04
114.43
131.77
150.23
166.94
179.16
184.21
167.94
123.58
56.27
-18.27
-83.79
-131.6
-161.08
-176.19
-182.18
-183.31
-180.3
-173.27
-163.32
-152.93
-144.3
-137.72
-131.43
-122.86
-110.06
-91.48
-68.15
-43.63
-22.53
-8.2
-1.28
0.41
-0.94
-3.43
-5.15
-5.36
-4.44
-3.4
-3.02
-3.39
-4.0
-4.26
-3.68
-1.65
2.09
7.15
12.65
17.54
20.97
22.58
22.48
21.25
19.83
19.02
19.11
19.84
20.93
21.83
22.05
21.33
19.64
17.17
14.19
10.94
7.71
4.73
2.1
-0.14
-2.12
-3.98
-5.9
-8.02
-10.35
-12.79
-15.2
-17.49
-19.56
-21.33
-22.71
-23.57
-23.77
-23.12
-21.38
-18.35
-13.9
-8.1
-1.27
6.05
13.19
19.48
24.43
27.81
29.63
30.09
29.48
28.12
26.27
24.15
21.95
19.78
17.7
15.73
13.82
11.95
10.16
8.51
7.1
5.95
4.94
3.83
2.21
-0.34
-4.21
-9.67
-16.76
-25.24
-34.48
-43.49
-51.05
-56.07
-57.94
-56.77
-53.35
-48.76
-43.97
-39.54
-35.57
-31.94
-28.52
-25.4
-22.78
-20.91
-19.81
-19.3
-19.01
-18.56
-17.65
-16.13
-14.04
-11.49
-8.64
-5.6
-2.54
0.37
2.87
4.67
5.55
5.41
4.37
2.68
0.59
-1.77
-4.36
-7.2
-10.13
-12.77
-14.58
-14.96
-13.6
-10.55
-6.23
-1.35
3.46
7.75
11.38
14.33
16.61
18.02
18.24
16.95
14.08
9.87
4.92
-0.09
-4.64
-8.51
-11.8
-14.8
-17.79
-20.86
-23.92
-26.74
-29.04
-30.64
-31.53
-31.87
-31.96
-32.15
-32.75
-33.88
-35.45
-37.21
-38.76
-39.78
-40.06
-39.61
-38.59
-37.21
-35.65
-34.02
-32.39
-30.88
-29.71
-29.24
-29.83
-31.8
-35.33
-40.44
-46.93
-54.45
-62.45
-70.19
-76.88
-81.78
-84.47
-85.04
-84.12
-82.77
-82.04
-82.51
-83.93
-85.24
-84.93
-81.71
-75.01
-65.27
-53.62
-41.31
-29.15
-17.16
-4.78
8.7
23.68
39.87
56.51
72.59
87.24
99.96
110.59
119.09
125.38
129.29
130.63
129.39
125.88
120.78
114.95
109.2
104.02
99.45
95.19
90.74
85.69
79.86
73.37
66.51
59.61
52.86
46.28
39.75
33.18
26.57
20.07
13.96
8.58
4.23
1.16
-0.44
-0.53
0.84
3.39
6.7
10.24
13.42
15.82
17.15
17.33
16.41
14.58
12.06
9.13
6.06
3.13
0.56
-1.57
-3.28
-4.78
-6.33
-8.12
-10.25
-12.6
-14.92
-16.94
-18.45
-19.42
-20.02
-20.55
-21.31
-22.45
-23.8
-24.97
-25.36
-24.46
-21.98
-17.99
-12.86
-7.12
-1.3
4.24
9.26
13.61
17.16
19.74
21.2
21.51
20.87
19.67
18.44
17.59
17.33
17.52
17.72
17.45
16.4
14.57
12.31
10.13
8.44
7.35
6.66
5.95
4.81
3.02
0.68
-1.91
-4.26
-5.83
-6.23
-5.24
-2.9
0.53
4.64
9.03
13.34
17.35
20.84
23.52
25.05
25.11
23.66
20.95
17.51
13.94
10.65
7.77
5.23
2.86
0.66
-1.3
-2.88
-3.97
-4.61
-4.89
-4.96
-5.01
-5.25
-5.96
-7.39
-9.65
-12.56
-15.61
-18.09
-19.25
-18.59
-15.97
-11.65
-6.2
-0.39
5.02
9.38
12.28
13.62
13.54
12.38
10.55
8.38
6.14
4.01
2.12
0.54
-0.77
-1.93
-3.14
-4.56
-6.21
-7.92
-9.36
-10.23
-10.47
-10.3
-10.22
-10.78
-12.37
-14.99
-18.21
-21.31
-23.46
-24.01
-22.62
-19.35
-14.64
-9.12
-3.49
1.7
6.07
9.43
11.7
12.8
12.73
11.57
9.63
7.36
5.28
3.76
2.94
2.64
2.56
2.44
2.18
1.82
1.47
1.18
0.89
0.44
-0.39
-1.8
-3.93
-6.73
-9.94
-13.11
-15.64
-17.01
-16.9
-15.32
-12.51
-8.89
-4.96
-1.23
1.8
3.69
4.21
3.45
1.86
0.17
-0.9
-0.88
0.33
2.4
4.77
6.84
8.17
8.55
7.95
6.52
4.46
2.04
-0.46
-2.73
-4.54
-5.84
-6.8
-7.76
-9.14
-11.17
-13.74
-16.38
-18.41
-19.19
-18.37
-16.01
-12.53
-8.62
-4.94
-1.98
0.13
1.56
2.67
3.78
5.03
6.29
7.26
7.68
7.46
6.73
5.74
4.71
3.75
2.83
1.85
0.81
-0.26
-1.22
-1.98
-2.58
-3.14
-3.97
-5.45
-7.88
-11.24
-15.14
-18.88
-21.7
-23.07
-22.76
-20.95
-18.07
-14.64
-11.03
-7.47
-4.07
-0.95
1.7
3.83
5.4
6.37
6.69
6.41
5.7
4.74
3.64
2.39
1.43
1.12
1.62
2.79
4.44
6.42
8.54
10.51
11.92
13.28
14.95
16.68
17.66
17.1
14.87
11.63
8.54
6.78
8.79
15.97
27.9
42.45
57.03
69.92
80.57
89.27
96.54
104.9
116.06
130.01
145.09
159.29
171.71
182.56
192.56
189.4
165.93
123.81
73.23
25.55
-12.94
-40.88
-59.74
-71.87
-79.7
-83.17
-82.18
-77.49
-70.42
-63.44
-58.04
-54.78
-53.71
-54.72
-55.95
-55.6
-52.86
-48.1
-42.45
-36.8
-31.9
-28.03
-25.54
-23.62
-21.42
-18.59
-15.52
-13.02
-11.66
-11.72
-13.27
-16.23
-19.89
-23.54
-26.8
-29.73
-32.62
-35.59
-38.69
-41.97
-45.6
-49.61
-54.06
-58.98
-64.34
-69.93
-75.33
-79.99
-83.4
-85.25
-85.4
-83.93
-81.07
-77.13
-72.46
-67.32
-61.78
-55.66
-48.63
-40.3
-30.48
-19.32
-7.33
4.74
16.15
26.35
35.12
42.41
48.24
52.57
55.3
56.36
55.8
53.86
50.92
47.34
43.44
39.34
35.09
30.66
26.07
21.46
17.12
13.41
10.65
9.04
8.43
8.44
8.53
8.25
7.39
6.06
4.55
3.16
1.97
0.88
-0.36
-1.96
-4.0
-6.41
-9.0
-11.5
-13.67
-15.23
-15.87
-15.35
-13.49
-10.31
-6.03
-1.09
3.95
8.53
12.27
14.99
16.71
17.63
17.92
17.65
16.83
15.44
13.58
11.51
9.62
8.23
7.48
7.3
7.43
7.63
7.8
7.97
8.22
8.48
8.48
7.81
6.12
3.27
-0.51
-4.8
-9.09
-13.05
-16.51
-19.5
-22.14
-24.57
-26.88
-29.06
-30.98
-32.33
-32.71
-31.71
-29.17
-25.25
-20.46
-15.48
-10.94
-7.21
-4.35
-2.21
-0.66
0.35
0.76
0.51
-0.3
-1.36
-2.26
-2.62
-2.35
-1.67
-1.01
-0.77
-1.11
-1.86
-2.67
-3.22
-3.54
-3.87
-4.65
-6.13
-8.25
-10.63
-12.8
-14.47
-15.65
-16.63
-17.76
-19.25
-21.04
-22.78
-24.01
-24.25
-23.21
-20.81
-17.18
-12.69
-7.77
-2.87
1.64
5.54
8.71
11.12
12.76
13.6
13.7
13.13
12.07
10.68
9.06
7.24
5.18
2.82
0.19
-2.62
-5.52
-8.41
-11.3
-14.23
-17.23
-20.31
-23.39
-26.39
-29.25
-32.03
-34.96
-38.27
-42.15
-46.63
-51.43
-56.07
-59.88
-62.22
-62.61
-60.8
-56.83
-50.96
-43.58
-35.08
-25.84
-16.16
-6.42
2.97
11.57
18.99
25.13
30.15
34.39
38.19
41.63
44.55
46.72
48.03
48.63
48.88
49.11
49.45
49.78
49.84
49.42
48.52
47.29
45.89
44.41
42.82
41.02
38.94
36.6
34.07
31.39
28.55
25.44
21.95
18.05
13.9
9.94
6.77
5.07
5.34
7.68
11.75
16.82
21.94
26.33
29.52
31.46
32.36
32.48
31.97
30.8
28.91
26.34
23.29
20.13
17.16
14.47
11.92
9.23
6.23
2.97
-0.24
-3.05
-5.25
-6.91
-8.29
-9.74
-11.46
-13.46
-15.5
-17.27
-18.48
-19.0
-18.92
-18.49
-18.0
-17.63
-17.32
-16.77
-15.56
-13.36
-10.11
-6.05
-1.67
2.53
6.15
9.01
11.09
12.5
13.33
13.6
13.3
12.41
10.96
9.1
7.06
5.07
3.35
1.98
0.89
-0.01
-0.79
-1.45
-1.88
-2.0
-1.78
-1.33
-0.83
-0.48
-0.42
-0.63
-1.03
-1.49
-1.93
-2.44
-3.19
-4.39
-6.08
-8.09
-9.99
-11.28
-11.55
-10.69
-8.98
-6.88
-4.88
-3.25
-1.99
-0.98
-0.04
0.79
1.38
1.57
1.33
0.87
0.56
0.76
1.63
3.03
4.58
5.84
6.55
6.72
6.62
6.55
6.72
7.03
7.17
6.77
5.57
3.5
0.72
-2.53
-6.0
-9.45
-12.68
-15.4
-17.31
-18.09
-17.59
-15.82
-13.02
-9.58
-5.85
-2.12
1.48
4.93
8.21
11.23
13.79
15.62
16.52
16.47
15.64
14.42
13.2
12.22
11.51
10.87
9.99
8.63
6.71
4.35
1.8
-0.69
-2.98
-5.17
-7.51
-10.26
-13.57
-17.32
-21.13
-24.46
-26.78
-27.68
-27.0
-24.77
-21.17
-16.49
-11.08
-5.29
0.47
5.79
10.31
13.79
16.18
17.62
18.37
18.7
18.8
18.67
18.25
17.45
16.28
14.88
13.45
12.15
10.98
9.78
8.37
6.68
4.81
3.04
1.68
0.88
0.64
0.7
0.69
0.31
-0.61
-1.98
-3.48
-4.67
-5.14
-4.69
-3.37
-1.45
0.72
2.78
4.55
5.96
7.03
7.71
7.93
7.59
6.67
5.24
3.49
1.61
-0.28
-2.19
-4.19
-6.3
-8.46
-10.4
-11.82
-12.45
-12.19
-11.18
-9.72
-8.18
-6.87
-5.92
-5.37
-5.16
-5.29
-5.8
-6.8
-8.3
-10.18
-12.15
-13.76
-14.57
-14.3
-12.91
-10.67
-7.98
-5.26
-2.74
-0.45
1.7
3.73
5.5
6.76
7.25
6.97
6.19
5.41
5.12
5.58
6.75
8.33
9.95
11.33
12.37
13.11
13.59
13.85
13.79
13.27
12.17
10.46
8.25
5.78
3.28
0.93
-1.28
-3.53
-6.04
-8.99
-12.36
-15.92
-19.28
-21.95
-23.51
-23.71
-22.51
-20.14
-16.97
-13.39
-9.72
-6.13
-2.66
0.67
3.85
6.74
9.2
11.11
12.47
13.35
13.88
14.17
14.3
14.28
14.18
14.11
14.17
14.45
14.92
15.47
15.88
15.97
15.64
14.97
14.11
13.27
12.55
11.97
11.5
11.08
10.72
10.42
10.16
9.9
9.55
9.1
8.75
8.8
9.63
11.46
14.23
17.57
20.93
23.78
25.83
27.06
27.69
28.02
28.21
28.26
27.95
27.0
25.22
22.57
19.24
15.51
11.71
8.09
4.83
2.05
-0.12
-1.58
-2.23
-2.08
-1.36
-0.48
0.04
-0.26
-1.52
-3.54
-5.85
-7.93
-9.47
-10.51
-11.45
-12.8
-14.93
-17.9
-21.39
-24.88
-27.81
-29.76
-30.54
-30.2
-28.86
-26.73
-24.02
-20.9
-17.57
-14.27
-11.25
-8.73
-6.81
-5.43
-4.39
-3.51
-2.68
-1.96
-1.5
-1.49
-1.97
-2.77
-3.52
-3.86
-3.58
-2.75
-1.77
-1.19
-1.45
-2.78
-5.03
-7.82
-10.69
-13.26
-15.4
-17.17
-18.71
-20.14
-21.47
-22.62
-23.52
-24.11
-24.38
-24.24
-23.5
-21.9
-19.25
-15.56
-11.12
-6.46
-2.16
1.35
3.95
5.74
6.97
7.84
8.42
8.66
8.44
7.68
6.38
4.65
2.71
0.81
-0.83
-2.1
-2.98
-3.59
-4.07
-4.51
-4.93
-5.33
-5.69
-6.02
-6.36
-6.74
-7.17
-7.61
-8.0
-8.32
-8.57
-8.76
-8.87
-8.82
-8.48
-7.7
-6.39
-4.58
-2.39
-0.02
2.25
4.2
5.67
6.6
7.03
7.06
6.76
6.14
5.14
3.64
1.61
-0.92
-3.72
-6.5
-8.96
-10.92
-12.36
-13.38
-14.06
-14.43
-14.32
-13.57
-12.06
-9.89
-7.38
-4.96
-3.02
-1.79
-1.26
-1.25
-1.51
-1.79
-1.92
-1.73
-1.05
0.26
2.31
5.02
8.18
11.42
14.32
16.55
17.9
18.39
18.19
17.54
16.68
15.78
14.83
13.79
12.63
11.4
10.3
9.59
9.47
10.01
11.04
12.28
13.38
14.07
14.21
13.81
12.97
11.81
10.42
8.88
7.28
5.68
4.15
2.67
1.16
-0.5
-2.41
-4.54
-6.72
-8.63
-10.01
-10.69
-10.74
-10.38
-9.88
-9.43
-9.0
-8.47
-7.65
-6.42
-4.79
-2.9
-0.95
0.89
2.53
3.98
5.31
6.59
7.83
8.96
9.84
10.34
10.39
10.04
9.37
8.48
7.38
6.04
4.38
2.4
0.25
-1.96
-4.13
-6.31
-8.63
-11.21
-14.11
-17.11
-19.8
-21.6
-22.03
-20.88
-18.3
-14.77
-10.94
-7.39
-4.43
-1.96
0.34
2.66
4.89
6.59
7.27
6.72
5.21
3.49
2.7
3.59
5.91
8.37
9.09
6.42
-0.62
-12.12
-27.35
-44.4
-60.88
-74.52
-83.53
-86.66
-83.27
-73.66
-59.31
-42.6
-25.54
-9.97
2.29
9.78
12.23
11.07
9.04
9.26
14.18
26.09
45.85
72.42
102.99
133.9
161.39
181.68
191.24
181.49
148.66
98.09
43.09
-3.26
-34.75
-52.38
-60.94
-65.37
-68.52
-69.76
-67.29
-60.52
-51.16
-42.36
-36.88
-35.93
-38.94
-43.88
-47.38
-46.75
-41.51
-33.54
-25.92
-21.24
-20.57
-23.41
-28.31
-33.19
-36.3
-36.53
-33.09
-25.17
-12.25
4.83
23.12
38.13
46.03
45.49
38.53
29.53
22.88
20.66
21.68
22.62
20.39
14.35
6.61
0.52
-1.52
0.55
4.59
7.71
7.9
5.19
1.25
-1.7
-2.35
-0.8
1.63
3.43
3.7
2.54
0.91
-0.17
-0.04
1.17
2.84
4.14
4.56
4.0
2.73
1.23
-0.11
-1.02
-1.38
-1.25
-0.74
-0.01
0.78
1.4
1.62
1.22
0.08
-1.65
-3.61
-5.24
-5.98
-5.57
-4.19
-2.36
-0.86
-0.31
-0.85
-2.17
-3.63
-4.45
-4.26
-3.11
-1.45
0.17
1.19
1.53
1.43
0.96
-0.03
-1.75
-3.74
-4.54
-2.35
3.77
12.77
21.51
26.17
24.46
17.08
7.65
0.9
0.1
5.42
14.25
22.91
28.91
32.05
33.72
35.52
37.83
39.57
39.24
35.83
29.57
21.63
14.46
9.81
8.14
8.59
9.51
9.48
8.01
5.57
3.18
1.57
0.6
-0.61
-3.01
-7.08
-12.34
-17.56
-21.26
-22.34
-20.5
-16.44
-11.4
-6.73
-3.35
-1.58
-1.24
-1.88
-3.06
-4.5
-6.15
-8.01
-9.91
-11.54
-12.44
-12.28
-10.93
-8.65
-5.96
-3.52
-1.86
-1.13
-1.16
-1.53
-1.85
-1.89
-1.6
-1.08
-0.4
0.45
1.55
2.94
4.59
6.29
7.71
8.39
7.89
5.93
2.57
-1.73
-6.1
-9.55
-11.28
-11.0
-9.04
-6.1
-3.02
-0.47
1.15
1.62
0.71
-1.85
-6.29
-12.4
-19.29
-25.39
-28.88
-28.4
-23.7
-16.0
-7.55
-0.79
2.6
2.3
-0.68
-4.51
-7.34
-7.88
-5.75
-1.24
4.95
12.03
19.23
25.83
31.18
34.69
36.0
35.19
32.82
29.88
27.52
26.69
27.84
30.81
34.92
39.26
42.94
45.33
46.03
44.87
41.86
37.07
30.69
23.0
14.3
5.03
-4.28
-13.03
-20.56
-26.38
-30.29
-32.36
-32.95
-32.46
-31.31
-29.81
-28.29
-27.12
-26.7
-27.34
-29.19
-32.04
-35.42
-38.68
-41.26
-42.86
-43.51
-43.48
-43.04
-42.31
-41.28
-39.96
-38.49
-37.26
-36.66
-36.93
-37.86
-38.88
-39.24
-38.4
-36.27
-33.12
-29.38
-25.38
-21.23
-16.83
-11.99
-6.57
-0.55
5.85
12.12
17.52
21.21
22.53
21.16
17.23
11.3
4.13
-3.35
-9.87
-13.77
-13.0
-5.67
9.12
30.37
54.93
78.02
94.67
101.25
96.71
82.79
63.25
42.49
24.07
9.96
0.49
-5.15
-8.17
-9.69
-10.56
-11.3
-12.26
-13.63
-15.33
-16.96
-17.89
-17.39
-15.0
-10.77
-5.28
0.56
5.87
10.08
13.03
14.9
15.89
16.08
15.38
13.64
10.79
6.99
2.63
-1.82
-5.85
-9.11
-11.4
-12.75
-13.38
-13.55
-13.39
-12.85
-11.69
-9.64
-6.7
-3.16
0.39
3.33
5.18
5.7
4.87
2.74
-0.69
-5.34
-10.97
-17.13
-23.17
-28.39
-32.22
-34.32
-34.64
-33.4
-31.07
-28.17
-25.21
-22.63
-20.69
-19.52
-19.17
-19.51
-20.35
-21.34
-22.0
-21.89
-20.73
-18.55
-15.78
-13.04
-10.97
-9.91
-9.82
-10.3
-10.86
-11.05
-10.61
-9.51
-7.95
-6.21
-4.63
-3.59
-3.36
-4.0
-5.31
-6.89
-8.2
-8.85
-8.63
-7.56
-5.77
-3.41
-0.72
2.04
4.51
6.26
6.98
6.61
5.39
3.78
2.21
0.91
-0.2
-1.4
-2.95
-4.9
-6.88
-8.32
-8.56
-7.17
-4.09
0.32
5.36
10.21
14.15
16.68
17.55
16.78
14.67
11.75
8.73
6.26
4.82
4.56
5.31
6.74
8.46
10.11
11.33
11.67
10.65
7.95
3.66
-1.46
-6.06
-8.49
-7.5
-2.76
4.81
13.33
20.5
24.48
24.5
21.1
15.76
10.22
5.75
2.75
0.82
-0.71
-2.23
-3.57
-4.0
-2.7
0.82
6.34
12.91
19.21
23.95
26.34
26.25
24.15
20.9
17.31
13.89
10.86
8.29
6.35
5.5
6.31
9.29
14.65
22.29
31.78
42.38
52.84
61.45
66.08
64.83
56.82
42.73
24.86
6.45
-9.42
-20.81
-27.29
-29.67
-29.28
-27.26
-24.33
-20.8
-16.98
-13.38
-10.77
-9.8
-10.7
-13.02
-15.7
-17.44
-17.31
-15.09
-11.46
-7.56
-4.44
-2.57
-1.64
-0.76
0.99
4.11
8.36
12.93
16.87
19.66
21.38
22.63
24.01
25.39
25.8
23.62
17.4
6.62
-7.77
-23.6
-38.27
-49.6
-56.61
-59.44
-58.99
-56.29
-52.1
-46.81
-40.76
-34.45
-28.61
-24.06
-21.26
-20.2
-20.31
-20.81
-21.03
-20.74
-20.04
-19.23
-18.47
-17.66
-16.57
-15.09
-13.44
-12.22
-12.21
-13.91
-17.19
-21.28
-24.9
-26.8
-26.25
-23.25
-18.54
-13.28
-8.54
-5.0
-2.86
-1.86
-1.53
-1.35
-0.84
0.39
2.65
6.08
10.6
15.91
21.67
27.42
32.73
37.15
40.09
40.92
39.1
34.48
27.46
18.99
10.28
2.43
-3.83
-8.25
-10.91
-12.0
-11.72
-10.25
-7.87
-5.04
-2.45
-0.85
-0.86
-2.68
-5.94
-9.77
-12.96
-14.48
-13.81
-11.19
-7.48
-3.73
-0.85
0.7
0.91
0.09
-1.4
-3.25
-5.22
-7.09
-8.59
-9.37
-9.11
-7.6
-4.87
-1.3
2.3
4.92
5.62
3.92
0.14
-4.74
-9.34
-12.44
-13.34
-12.08
-9.2
-5.48
-1.61
1.96
4.97
7.27
8.79
9.6
9.92
10.06
10.21
10.3
10.03
9.01
7.06
4.31
1.2
-1.81
-4.35
-6.35
-7.87
-8.99
-9.68
-9.75
-9.08
-7.68
-5.82
-3.95
-2.58
-2.16
-2.95
-4.96
-7.96
-11.5
-15.08
-18.21
-20.67
-22.53
-24.21
-26.39
-29.76
-34.82
-41.56
-49.2
-55.98
-59.46
-57.05
-46.94
-28.97
-5.01
21.38
45.98
65.16
76.81
80.77
78.38
71.68
62.64
52.78
43.29
35.21
29.41
26.33
25.6
26.05
26.09
24.51
21.04
16.57
12.54
10.23
9.9
10.73
11.29
10.39
7.63
3.54
-0.98
-5.2
-8.89
-12.12
-14.92
-16.94
-17.52
-16.11
-12.67
-7.87
-2.88
1.08
3.36
3.96
3.46
2.6
1.86
1.34
0.89
0.29
-0.52
-1.49
-2.48
-3.36
-4.08
-4.67
-5.16
-5.58
-6.0
-6.47
-7.02
-7.61
-8.11
-8.34
-8.12
-7.4
-6.25
-4.8
-3.25
-1.78
-0.6
0.07
0.1
-0.54
-1.57
-2.46
-2.55
-1.26
1.7
6.15
11.56
17.22
22.53
27.15
30.98
34.08
36.45
37.97
38.37
37.45
35.26
32.08
28.33
24.28
19.89
14.89
9.15
2.86
-3.22
-8.09
-10.94
-11.61
-10.69
-9.29
-8.43
-8.62
-9.59
-10.68
-11.18
-10.85
-10.03
-9.36
-9.48
-10.64
-12.65
-15.04
-17.37
-19.38
-21.07
-22.52
-23.72
-24.55
-24.86
-24.69
-24.35
-24.25
-24.77
-25.93
-27.27
-27.96
-26.99
-23.57
-17.48
-9.25
-0.13
8.33
14.67
18.09
18.66
17.28
15.31
14.07
14.38
16.48
20.19
25.09
30.74
36.61
41.86
45.43
46.19
43.48
37.52
29.53
21.42
15.09
11.68
11.25
12.94
15.44
17.67
18.96
19.08
18.05
15.89
12.56
7.96
2.08
-4.85
-12.31
-19.4
-25.11
-28.52
-29.14
-27.15
-23.35
-18.83
-14.61
-11.33
-9.16
-7.97
-7.49
-7.48
-7.64
-7.72
-7.51
-7.0
-6.33
-5.76
-5.38
-5.08
-4.62
-3.81
-2.79
-1.99
-1.94
-3.01
-5.12
-7.82
-10.48
-12.46
-13.33
-12.75
-10.45
-6.24
-0.03
7.98
17.18
26.64
35.22
41.9
45.97
47.03
45.07
40.32
33.35
24.95
16.14
7.92
1.0
-4.46
-8.78
-12.65
-16.58
-20.67
-24.5
-27.3
-28.38
-27.49
-24.91
-21.3
-17.4
-13.76
-10.57
-7.78
-5.27
-2.97
-0.88
0.96
2.54
3.96
5.39
7.11
9.42
12.56
16.57
21.21
26.02
30.39
33.83
36.02
36.93
36.68
35.4
33.07
29.54
24.66
18.61
12.02
5.91
1.4
-0.75
-0.5
1.46
4.03
6.3
7.89
9.09
10.46
12.26
14.04
14.85
13.79
10.6
5.87
0.75
-3.72
-7.0
-9.31
-11.26
-13.39
-15.77
-18.02
-19.49
-19.7
-18.43
-15.87
-12.36
-8.28
-3.94
0.38
4.36
7.62
9.71
10.3
9.29
6.94
3.89
1.09
-0.56
-0.46
1.4
4.36
7.32
9.04
8.65
5.89
1.09
-5.0
-11.42
-17.19
-21.34
-23.05
-21.89
-18.13
-12.85
-7.71
-4.33
-3.54
-5.03
-7.48
-9.26
-9.13
-6.78
-2.69
2.25
7.26
11.88
15.85
18.95
20.83
21.03
19.15
15.01
8.68
0.67
-8.15
-16.54
-23.08
-26.57
-26.47
-23.18
-17.97
-12.59
-8.42
-6.06
-5.11
-4.55
-3.45
-1.46
0.96
2.87
3.38
2.18
-0.33
-3.2
-5.33
-5.75
-3.78
0.86
7.93
16.41
24.47
29.69
29.87
23.84
12.17
-2.88
-18.06
-30.27
-37.56
-39.48
-36.85
-31.11
-23.71
-15.81
-8.23
-1.56
3.76
7.45
9.46
10.03
9.58
8.71
7.91
7.46
7.29
7.05
6.28
4.73
2.41
-0.28
-2.72
-4.33
-4.81
-4.26
-3.15
-2.05
-1.35
-1.02
-0.48
1.07
4.31
9.32
15.46
21.58
26.46
29.32
30.14
29.5
28.34
27.43
27.13
27.42
27.83
27.82
26.83
24.49
20.71
15.66
9.67
3.14
-3.59
-10.21
-16.43
-21.88
-26.19
-29.04
-30.33
-30.24
-29.13
-27.48
-25.69
-24.1
-22.9
-22.21
-22.11
-22.5
-23.14
-23.65
-23.58
-22.6
-20.67
-18.11
-15.56
-13.65
-12.82
-13.03
-13.76
-14.21
-13.57
-11.48
-8.11
-4.13
-0.38
2.47
4.18
4.9
5.02
4.87
4.54
3.95
2.98
1.67
0.27
-0.92
-1.65
-1.9
-1.85
-1.76
-1.78
-1.9
-1.99
-1.92
-1.63
-1.2
-0.72
-0.3
0.0
0.13
0.07
-0.18
-0.53
-0.85
-1.04
-1.09
-1.11
-1.31
-1.81
-2.57
-3.37
-3.98
-4.3
-4.42
-4.61
-5.07
-5.83
-6.67
-7.3
-7.57
-7.58
-7.64
-8.07
-8.99
-10.19
-11.23
-11.66
-11.28
-10.26
-9.04
-8.11
-7.79
-8.0
-8.39
-8.47
-7.93
-6.79
-5.37
-4.14
-3.49
-3.47
-3.79
-3.93
-3.4
-2.0
0.1
2.37
4.22
5.24
5.41
5.04
4.59
4.38
4.42
4.46
4.14
3.3
2.05
0.79
-0.09
-0.31
0.13
1.02
2.02
2.88
3.45
3.75
3.88
3.9
3.79
3.47
2.91
2.19
1.54
1.32
1.8
3.05
4.89
6.9
8.59
9.54
9.57
8.72
7.25
5.43
3.56
1.76
0.07
-1.5
-2.88
-3.93
-4.5
-4.51
-4.03
-3.36
-2.83
-2.69
-3.04
-3.75
-4.61
-5.39
-6.0
-6.44
-6.75
-6.95
-6.98
-6.81
-6.4
-5.83
-5.24
-4.78
-4.51
-4.37
-4.17
-3.7
-2.87
-1.79
-0.74
-0.08
-0.04
-0.55
-1.26
-1.67
-1.39
-0.25
1.6
3.7
5.52
6.69
7.11
6.95
6.61
6.43
6.57
6.93
7.23
7.25
6.97
6.63
6.57
6.97
7.74
8.51
8.89
8.7
8.14
7.68
7.79
8.65
10.08
11.61
12.74
13.22
13.14
12.76
12.32
11.89
11.31
10.33
8.86
7.12
5.63
5.0
5.56
7.13
9.11
10.68
11.2
10.46
8.71
6.56
4.71
3.63
3.47
3.99
4.82
5.67
6.47
7.42
8.72
10.42
12.24
13.67
14.22
13.67
12.21
10.34
8.65
7.57
7.28
7.66
8.51
9.53
10.41
10.79
10.34
8.8
6.06
2.15
-2.7
-8.09
-13.5
-18.33
-22.0
-24.13
-24.6
-23.63
-21.68
-19.34
-17.25
-15.87
-15.48
-16.05
-17.34
-18.94
-20.41
-21.4
-21.75
-21.5
-20.84
-20.0
-19.13
-18.3
-17.54
-16.82
-16.1
-15.31
-14.35
-13.17
-11.81
-10.44
-9.26
-8.4
-7.9
-7.53
-6.98
-5.86
-3.94
-1.26
1.97
5.35
8.52
11.27
13.53
15.37
16.83
17.79
18.03
17.27
15.41
12.71
9.71
7.0
4.8
3.01
1.28
-0.73
-3.05
-5.19
-6.36
-5.89
-3.74
-0.77
1.73
2.64
1.6
-0.74
-2.88
-3.23
-0.81
4.12
9.95
14.66
16.57
15.0
10.42
4.35
-1.29
-4.83
-5.53
-4.2
-2.25
-1.28
-3.04
-8.73
-18.07
-28.72
-36.23
-35.08
-21.44
6.77
47.93
95.23
137.72
163.99
166.46
144.29
103.63
53.55
5.06
-33.18
-58.41
-73.78
-84.93
-96.44
-110.14
-125.4
-142.3
-158.63
-170.6
-174.9
-169.7
-154.24
-128.84
-95.5
-45.95
10.77
56.74
80.66
83.45
72.08
54.21
36.15
22.31
14.63
10.91
9.74
11.33
16.21
24.34
35.01
46.68
56.97
62.95
60.98
51.12
37.12
23.64
13.97
9.11
7.68
8.23
9.34
9.43
8.7
8.46
9.36
11.03
12.44
13.1
13.36
14.08
15.67
18.39
22.34
25.94
27.41
25.23
18.93
9.29
-2.14
-13.67
-23.59
-30.63
-34.96
-36.25
-34.76
-31.01
-25.57
-19.22
-12.86
-7.48
-3.84
-2.25
-2.33
-3.38
-4.56
-5.02
-4.27
-2.39
-0.03
1.81
2.06
0.13
-4.12
-10.26
-17.1
-23.21
-27.46
-29.42
-29.39
-28.13
-26.44
-25.02
-24.24
-23.7
-22.86
-21.46
-19.67
-17.91
-16.54
-15.76
-15.55
-15.65
-14.92
-12.48
-8.4
-3.63
0.84
4.51
7.55
10.42
13.5
18.07
24.57
32.11
38.87
43.4
45.39
45.46
44.64
43.96
45.97
52.67
64.46
80.09
97.68
115.4
131.45
144.19
142.78
121.95
86.41
48.18
17.31
-3.06
-15.01
-22.58
-29.04
-35.73
-40.57
-41.05
-36.32
-27.56
-16.64
-4.96
6.5
16.43
22.71
23.92
19.18
8.91
-4.66
-17.7
-26.43
-29.5
-28.74
-27.95
-29.67
-34.06
-39.21
-42.52
-42.35
-38.98
-34.52
-31.48
-31.27
-33.22
-35.66
-37.31
-37.71
-37.03
-35.13
-31.3
-24.77
-15.38
-3.62
8.81
19.63
26.97
30.01
29.13
25.39
19.89
13.48
6.75
0.23
-5.32
-9.12
-10.68
-10.12
-8.22
-6.04
-4.53
-4.16
-4.78
-5.84
-6.7
-6.95
-6.62
-6.14
-6.13
-7.07
-9.07
-11.92
-15.04
-17.72
-19.28
-19.33
-17.92
-15.52
-12.84
-10.48
-8.77
-7.74
-7.14
-6.68
-6.1
-5.22
-3.83
-2.09
0.11
2.88
6.14
9.52
12.47
14.44
15.15
14.68
13.36
11.66
9.84
7.93
5.76
3.15
0.03
-3.46
-7.06
-10.46
-13.39
-15.76
-17.65
-19.29
-20.91
-22.64
-24.41
-25.93
-26.82
-26.65
-25.2
-22.52
-18.92
-14.96
-11.29
-8.55
-7.25
-7.64
-9.6
-12.53
-15.48
-17.29
-17.04
-14.28
-9.33
-3.18
2.85
7.57
10.31
11.08
10.36
8.66
6.16
2.57
-2.71
-10.15
-19.72
-30.72
-41.84
-51.58
-58.6
-62.11
-61.87
-58.11
-51.21
-41.48
-29.23
-14.9
0.6
15.82
28.93
38.18
42.54
42.06
37.9
31.94
25.97
21.01
17.01
13.13
8.32
1.99
-5.66
-13.67
-20.72
-25.54
-27.19
-25.32
-20.37
-13.6
-7.04
-3.05
-3.45
-8.63
-17.14
-26.07
-32.16
-33.06
-28.17
-18.58
-6.35
6.4
18.13
28.03
35.9
41.85
46.13
49.18
51.57
53.76
55.91
57.54
57.69
55.21
49.32
39.92
27.75
14.15
0.61
-11.76
-22.42
-31.53
-39.7
-47.53
-55.27
-62.39
-67.68
-69.51
-66.45
-57.92
-44.58
-28.17
-10.92
5.15
18.8
29.62
37.82
43.89
48.32
51.52
53.8
55.38
56.31
56.44
55.5
53.23
49.48
44.3
37.87
30.55
22.78
15.06
7.89
1.64
-3.62
-8.18
-12.51
-17.03
-21.86
-26.72
-31.14
-34.77
-37.6
-39.81
-41.47
-42.2
-41.11
-37.13
-29.55
-18.51
-5.1
8.86
21.42
30.94
36.49
37.88
35.7
31.19
25.96
21.67
19.5
19.65
21.26
22.74
22.5
19.63
14.29
7.59
1.12
-3.71
-6.19
-6.37
-4.9
-2.63
-0.34
1.44
2.37
2.24
0.98
-1.28
-4.14
-6.95
-8.86
-9.11
-7.19
-3.05
3.0
10.25
17.73
24.38
29.25
31.76
31.88
30.18
27.58
25.01
23.07
21.8
20.77
19.3
16.78
13.01
8.23
3.09
-1.59
-5.03
-6.62
-6.14
-3.77
-0.21
3.46
5.93
6.04
3.19
-2.38
-9.6
-16.83
-22.41
-25.14
-24.66
-21.45
-16.54
-11.07
-6.02
-1.95
0.87
2.53
3.35
3.82
4.49
5.81
8.14
11.58
15.98
20.82
25.28
28.44
29.54
28.3
24.96
20.23
14.94
9.68
4.61
-0.6
-6.36
-12.87
-19.8
-26.46
-32.01
-35.73
-37.14
-35.95
-31.93
-25.0
-15.27
-3.29
9.78
22.32
32.54
39.05
41.32
39.86
36.05
31.64
28.2
26.63
26.96
28.4
29.72
29.65
27.35
22.59
15.85
8.13
0.61
-5.76
-10.65
-14.36
-17.67
-21.4
-26.06
-31.64
-37.7
-43.54
-48.42
-51.6
-52.39
-50.13
-44.32
-34.85
-22.19
-7.44
7.84
21.95
33.53
41.81
46.66
48.53
48.15
46.24
43.38
39.86
35.78
31.2
26.22
21.06
16.01
11.46
7.91
5.92
5.92
7.98
11.56
15.47
18.14
18.16
14.78
8.24
-0.27
-8.94
-15.92
-19.78
-19.99
-16.84
-11.27
-4.49
2.46
8.85
14.35
18.77
21.8
23.05
22.18
19.28
14.98
10.36
6.47
3.92
2.64
2.08
1.53
0.56
-1.0
-3.09
-5.62
-8.63
-12.08
-15.71
-18.89
-20.85
-21.04
-19.51
-17.01
-14.52
-12.93
-12.48
-12.77
-13.01
-12.39
-10.48
-7.27
-3.02
1.98
7.51
13.44
19.64
25.81
31.53
36.33
39.76
41.51
41.48
39.79
36.78
32.92
28.7
24.47
20.4
16.44
12.48
8.52
4.71
1.33
-1.31
-2.99
-3.72
-3.72
-3.43
-3.31
-3.7
-4.62
-5.67
-6.16
-5.35
-2.83
1.26
6.2
10.99
14.74
16.93
17.47
16.58
14.65
12.27
10.3
9.82
11.94
17.4
26.13
37.0
47.89
56.24
59.83
57.51
49.63
37.78
24.21
11.1
-0.17
-9.14
-16.09
-21.61
-26.27
-30.48
-34.56
-38.84
-43.62
-48.83
-53.93
-57.94
-59.68
-58.27
-53.5
-45.9
-36.64
-27.16
-18.68
-11.93
-6.99
-3.44
-0.71
1.66
3.83
5.64
6.91
7.65
8.18
8.98
10.45
12.58
14.73
15.83
14.8
11.02
4.68
-3.34
-11.79
-19.58
-26.25
-31.84
-36.61
-40.54
-42.97
-43.09
-40.16
-34.09
-25.62
-15.96
-6.3
2.58
10.42
17.28
22.95
27.14
29.49
29.86
28.53
26.11
23.39
21.01
19.5
18.67
18.28
18.07
17.78
17.23
16.34
15.06
13.29
11.45
8.57
4.44
-0.89
-6.99
-13.09
-18.41
-22.45
-25.15
-25.6
-25.69
-25.65
-25.32
-24.12
-21.36
-16.51
-9.38
-0.26
12.35
25.45
38.17
49.55
58.48
63.88
64.9
61.2
53.18
44.75
34.92
25.95
20.03
18.82
23.11
32.63
45.88
43.63
44.27
42.03
35.51
24.7
10.73
-4.83
-20.47
-35.19
-48.39
-56.97
-63.36
-67.04
-67.77
-65.84
-62.06
-57.46
-52.83
-48.49
-42.34
-36.52
-31.12
-26.59
-23.57
-22.45
-23.18
-25.21
-27.67
-28.46
-28.51
-27.75
-26.41
-24.89
-23.53
-22.69
-22.67
-23.67
-25.03
-27.12
-29.31
-30.89
-31.33
-30.46
-28.62
-26.42
-24.41
-22.68
-21.34
-19.83
-17.41
-13.33
-7.2
0.88
10.19
19.51
27.51
33.15
36.07
36.56
35.33
33.05
30.16
26.86
23.34
19.94
17.09
15.01
13.54
12.15
10.14
7.01
2.73
-2.3
-7.42
-12.02
-15.73
-18.5
-20.37
-21.49
-21.92
-21.56
-20.22
-17.64
-13.69
-8.51
-2.61
3.13
7.76
10.46
10.92
9.39
6.66
3.74
1.54
0.54
0.69
1.43
2.07
1.97
0.88
-1.04
-3.32
-5.36
-6.71
-7.04
-6.24
-4.29
-1.35
2.16
5.42
7.32
6.8
3.46
-1.99
-7.77
-11.6
-11.67
-7.41
0.22
9.19
17.35
23.17
26.19
26.85
25.99
24.36
22.38
20.16
17.64
14.77
11.6
8.24
4.83
1.49
-1.77
-5.03
-8.37
-11.9
-15.63
-19.55
-23.67
-27.88
-31.99
-35.58
-38.07
-38.87
-37.51
-33.86
-28.2
-21.14
-13.49
-6.02
0.77
6.69
11.85
16.47
20.65
24.22
26.75
27.75
26.98
24.61
21.2
17.46
13.93
10.88
8.33
6.2
4.45
3.05
1.94
0.93
-0.33
-2.19
-4.94
-8.67
-13.29
-18.51
-23.91
-28.88
-32.61
-34.07
-32.15
-25.97
-15.3
-0.83
15.8
32.27
46.12
55.45
59.34
57.98
52.45
44.19
34.63
24.8
15.39
6.8
-0.78
-7.31
-12.91
-17.85
-22.54
-27.4
-32.77
-38.71
-44.91
-50.77
-55.54
-58.68
-60.04
-59.94
-58.93
-57.52
-55.85
-53.69
-50.5
-45.79
-39.3
-31.15
-21.83
-11.97
-2.31
6.54
14.14
20.4
25.58
30.11
34.46
38.83
43.04
46.57
48.87
49.55
48.61
46.36
43.22
39.48
35.24
30.53
25.47
20.37
15.61
11.47
8.04
5.17
2.69
0.51
-1.2
-2.18
-2.29
-1.67
-0.71
0.14
0.58
0.58
0.29
-0.22
-0.98
-2.17
-3.86
-5.83
-7.61
-8.67
-8.76
-8.08
-7.16
-6.53
-6.35
-6.28
-5.78
-4.47
-2.52
-0.56
0.55
0.25
-1.44
-3.98
-6.54
-8.35
-8.96
-8.28
-6.49
-3.97
-1.16
1.41
3.27
4.16
4.21
3.91
4.05
5.41
8.46
13.23
19.21
25.54
31.29
35.58
37.78
37.45
34.39
28.74
21.08
12.48
4.33
-2.05
-5.8
-6.86
-5.97
-4.33
-3.23
-3.54
-5.55
-9.04
-13.47
-18.24
-22.77
-26.5
-28.94
-29.74
-28.77
-26.21
-22.47
-18.06
-13.43
-8.94
-4.84
-1.42
1.13
2.69
3.32
3.22
2.61
1.58
0.13
-1.83
-4.24
-6.96
-9.73
-12.31
-14.54
-16.29
-17.42
-17.79
-17.32
-16.16
-14.71
-13.52
-13.06
-13.48
-14.58
-15.87
-16.73
-16.55
-14.86
-11.43
-6.4
-0.27
6.12
11.93
16.49
19.57
21.27
21.91
21.78
21.1
19.99
18.59
17.15
15.88
14.94
14.22
13.53
12.65
11.42
9.82
7.89
5.59
2.84
-0.48
-4.42
-8.84
-13.48
-17.99
-22.05
-25.42
-27.93
-29.44
-29.81
-28.93
-26.8
-23.64
-19.83
-15.91
-12.38
-9.49
-7.24
-5.42
-3.82
-2.33
-1.04
-0.08
0.58
1.29
2.58
4.95
8.5
12.78
16.97
20.07
21.31
20.36
17.42
13.04
7.83
2.4
-2.69
-6.8
-9.38
-10.05
-8.8
-6.04
-2.59
0.69
3.36
5.77
8.91
13.59
19.76
26.25
31.24
33.09
31.2
26.45
21.06
17.58
17.29
19.42
21.72
21.67
17.57
9.18
-2.3
-14.39
-24.23
-30.04
-31.83
-30.89
-28.95
-27.67
-28.28
-31.29
-35.55
-38.29
-36.31
-27.45
-11.31
10.12
32.35
49.32
52.8
36.88
4.42
-32.69
-61.77
-76.27
-76.52
-66.81
-52.09
-35.82
-19.32
-2.78
12.98
26.09
35.18
40.43
43.03
43.73
41.58
34.72
22.34
6.42
-8.06
-14.9
-10.39
3.65
20.28
31.23
32.17
25.27
17.45
15.25
20.55
29.62
35.7
33.75
23.82
10.76
0.97
-1.93
0.85
5.18
7.77
8.12
9.05
13.56
21.83
30.11
32.7
25.79
10.91
-5.07
-13.47
-9.05
6.44
24.87
35.65
32.53
16.99
-3.06
-18.3
-23.34
-18.8
-10.24
-4.18
-4.3
-9.98
-17.49
-22.32
-21.73
-15.76
-6.79
1.73
6.97
7.61
4.42
-0.44
-4.64
-6.95
-7.91
-9.51
-13.99
-22.32
-33.27
-43.77
-50.44
-51.28
-46.6
-38.64
-30.22
-23.5
-18.86
-15.53
-12.31
-8.34
-3.61
1.12
4.84
6.7
6.38
4.07
0.35
-4.17
-8.68
-12.5
-14.99
-15.78
-14.89
-12.82
-10.38
-8.43
-7.42
-7.21
-7.19
-6.67
-5.26
-3.09
-0.64
1.57
3.32
4.73
6.22
8.21
11.01
14.64
18.8
22.9
26.16
27.8
27.3
24.6
20.12
14.59
8.86
3.62
-0.74
-4.1
-6.54
-8.3
-9.59
-10.65
-11.64
-12.75
-14.16
-15.98
-18.24
-20.8
-23.35
-25.4
-26.48
-26.25
-24.7
-22.02
-18.59
-14.88
-11.31
-8.23
-5.88
-4.33
-3.57
-3.6
-4.42
-6.15
-8.89
-12.67
-17.26
-22.54
-27.71
-31.59
-33.02
-31.24
-26.12
-18.27
-8.77
1.06
10.04
17.43
22.97
26.69
28.69
29.08
28.04
25.97
23.42
21.0
19.27
18.76
19.61
21.41
23.42
25.01
25.86
26.02
25.52
24.3
22.59
20.41
17.4
13.14
7.68
1.77
-3.39
-6.81
-7.91
-5.66
0.25
9.02
18.85
27.85
34.82
39.44
42.07
43.58
46.48
53.17
64.74
80.58
98.94
117.48
133.65
144.86
141.55
119.2
81.62
39.3
1.96
-26.29
-46.34
-61.01
-72.89
-83.23
-90.89
-94.58
-94.22
-91.03
-86.22
-81.05
-74.72
-66.36
-55.45
-40.99
-22.73
-1.91
17.96
32.94
40.21
38.83
29.6
14.89
-1.49
-16.14
-27.32
-35.16
-40.62
-44.59
-47.31
-48.76
-48.79
-47.59
-45.01
-41.46
-37.67
-34.05
-30.68
-27.31
-23.77
-20.14
-16.52
-13.12
-10.23
-8.14
-6.92
-6.51
-6.77
-7.67
-9.23
-11.35
-13.77
-16.11
-17.94
-18.77
-18.49
-16.99
-14.34
-10.71
-6.4
-1.74
2.79
6.65
9.34
10.46
9.97
8.18
5.73
3.44
2.11
2.18
3.65
6.05
8.63
10.64
11.48
10.91
9.04
6.33
3.46
1.18
0.14
0.66
2.72
5.88
9.47
12.89
15.77
18.07
20.03
21.9
23.82
25.71
27.24
28.05
27.84
26.44
23.85
20.16
15.52
10.06
3.9
-2.87
-10.13
-17.73
-25.51
-33.17
-40.24
-45.94
-49.18
-48.8
-44.0
-34.91
-22.63
-9.07
3.85
14.87
23.78
31.2
38.05
44.79
51.29
56.97
61.35
64.44
66.71
68.78
71.03
73.32
75.09
75.68
74.51
71.26
65.74
57.9
47.76
35.61
22.1
8.27
-4.66
-15.54
-23.64
-28.78
-31.26
-31.72
-30.93
-29.61
-28.35
-27.52
-27.28
-27.63
-28.36
-29.27
-30.22
-31.18
-32.28
-33.58
-35.06
-36.55
-37.83
-38.73
-39.19
-39.23
-38.87
-38.04
-36.6
-34.51
-31.85
-28.97
-26.26
-23.96
-22.0
-19.94
-17.16
-13.2
-7.95
-1.82
4.48
10.23
14.95
18.53
21.11
22.84
23.77
23.79
22.79
20.79
18.07
15.09
12.34
10.15
8.59
7.49
6.62
5.78
4.94
4.19
3.63
3.21
2.71
1.78
0.15
-2.17
-4.86
-7.34
-9.05
-9.56
-8.78
-6.85
-4.06
-0.7
3.03
7.01
11.24
15.72
20.46
25.25
29.68
33.18
35.25
35.72
34.91
33.49
32.1
30.97
29.79
27.93
24.85
20.49
15.44
10.57
6.64
3.85
1.8
-0.19
-2.69
-5.79
-9.05
-11.8
-13.56
-14.28
-14.29
-14.09
-13.97
-13.86
-13.46
-12.55
-11.22
-10.0
-9.55
-10.38
-12.5
-15.42
-18.27
-20.11
-20.27
-18.47
-14.94
-10.27
-5.22
-0.48
3.5
6.51
8.51
9.51
9.52
8.67
7.28
5.88
4.93
4.67
4.92
5.25
5.23
4.79
4.29
4.26
5.15
7.04
9.57
12.08
13.89
14.56
14.06
12.63
10.68
8.63
6.88
5.75
5.54
6.54
9.0
12.89
17.45
20.91
20.94
15.46
3.8
-12.63
-30.41
-44.98
-52.21
-50.01
-39.33
-23.62
-7.5
5.03
11.73
12.53
9.39
5.23
3.01
4.09
8.29
14.17
19.92
23.85
23.52
16.99
4.28
-11.47
-26.53
-38.23
-46.03
-51.03
-55.46
-61.43
-69.15
-75.93
-76.01
-65.43
-41.1
-3.98
41.05
86.37
124.08
148.18
151.01
132.4
97.21
52.84
6.7
-34.61
-66.5
-86.57
-94.65
-92.52
-82.51
-68.08
-52.82
-41.04
-34.2
-32.66
-35.27
-39.46
-42.09
-40.1
-32.39
-19.97
-5.37
8.69
20.05
27.68
31.66
32.8
32.43
31.44
30.24
28.85
26.87
24.23
21.1
17.72
14.36
11.57
9.96
10.17
12.68
17.65
24.61
32.46
39.77
45.17
47.77
47.25
43.74
37.77
30.13
21.77
13.63
6.46
0.47
-4.89
-10.77
-18.48
-28.88
-41.79
-55.99
-69.56
-80.6
-87.88
-91.1
-90.87
-88.19
-84.14
-79.6
-75.22
-71.43
-68.42
-65.9
-63.1
-58.99
-52.68
-43.93
-33.32
-22.12
-11.87
-3.78
1.67
4.69
6.0
6.37
6.41
6.53
7.0
8.04
9.78
12.2
15.14
18.29
21.24
23.53
24.73
24.52
22.57
18.59
12.48
4.7
-3.55
-10.34
-13.69
-12.1
-5.23
5.75
18.48
30.15
38.54
42.55
42.18
38.21
31.75
24.49
17.96
13.28
11.09
11.55
14.1
17.46
19.8
19.34
16.02
10.55
3.98
-2.46
-7.27
-8.9
-6.15
1.24
12.38
26.78
42.74
57.49
68.4
74.61
77.46
79.52
83.23
89.74
100.6
115.41
131.78
146.49
157.33
163.73
166.46
166.68
152.66
119.42
71.21
18.68
-29.09
-67.72
-95.96
-113.81
-122.15
-122.82
-116.37
-103.98
-87.54
-69.41
-50.71
-32.28
-15.04
-0.24
10.53
17.0
18.49
13.81
1.77
-17.47
-41.91
-68.35
-92.81
-110.74
-118.26
-114.29
-100.58
-80.78
-58.78
-37.72
-19.7
-5.88
3.43
9.32
12.94
16.18
20.68
26.46
31.46
32.81
28.56
18.53
4.17
-12.42
-29.42
-46.04
-60.85
-71.54
-75.59
-71.45
-59.52
-42.51
-24.24
-8.07
4.38
12.39
16.6
18.37
19.04
19.82
21.62
25.63
33.12
43.36
53.9
61.2
61.94
54.47
39.25
18.2
-5.43
-27.77
-44.97
-54.11
-53.62
-43.74
-27.47
-7.12
14.22
33.55
48.7
58.72
63.65
64.29
61.66
56.88
51.19
45.6
41.18
37.6
34.92
32.61
29.75
25.44
19.11
10.97
1.4
-8.93
-19.39
-29.12
-37.16
-42.15
-42.62
-37.37
-26.06
-9.83
8.83
26.63
40.46
48.08
48.78
43.35
33.7
22.14
10.51
-0.02
-8.88
-15.71
-20.3
-22.91
-24.83
-28.6
-37.35
-53.31
-75.85
-100.58
-120.3
-127.66
-118.37
-93.32
-58.25
-21.37
9.77
30.73
40.58
40.79
33.56
20.7
3.58
-16.18
-36.13
-53.12
-64.32
-68.3
-65.65
-58.73
-50.82
-45.02
-43.09
-44.68
-47.38
-47.56
-41.85
-28.55
-8.37
15.61
38.75
56.64
66.55
68.23
63.43
54.89
45.24
36.5
29.73
24.83
21.23
18.3
15.68
13.1
10.23
6.63
1.99
-2.41
-5.2
-5.57
-3.99
-1.22
2.69
8.25
15.97
25.92
38.16
51.47
63.98
73.55
78.35
77.31
70.58
58.07
42.59
28.53
19.78
18.6
24.14
32.74
39.23
38.83
28.44
7.14
-24.59
-65.06
-110.1
-153.58
-187.75
-204.99
-199.71
-170.42
-120.79
-59.37
2.98
57.26
97.24
120.41
127.45
122.04
109.44
94.55
80.18
66.73
54.19
41.08
25.42
5.09
-20.63
-49.13
-74.02
-89.32
-100.89
-111.81
-122.91
-128.41
-124.98
-110.78
-86.16
-54.26
-20.69
8.18
28.54
38.53
38.83
32.0
23.08
18.09
22.03
36.95
61.22
90.88
119.17
138.26
141.13
124.41
89.44
41.82
-10.23
-57.82
-92.77
-110.12
-108.85
-91.79
-64.08
-32.02
-2.16
19.54
28.47
22.77
3.82
-23.46
-51.24
-70.46
-73.61
-57.55
-24.98
16.05
54.52
79.57
83.62
64.65
26.8
-20.73
-66.33
-99.24
-112.35
-103.49
-74.86
-31.25
21.64
78.0
131.71
176.19
205.07
214.06
202.84
175.85
141.02
106.93
79.78
61.66
50.87
43.64
36.3
26.45
13.2
-3.48
-23.25
-45.45
-68.83
-91.15
-109.41
-120.34
-121.58
-112.6
-95.1
-72.56
-48.95
-27.41
-9.43
5.01
16.69
26.43
34.78
42.23
49.47
57.29
65.86
74.22
79.7
78.56
67.12
43.29
7.87
-35.21
-79.62
-118.38
-145.89
-159.47
-159.71
-149.73
-133.62
-114.74
-95.06
-75.38
-56.26
-38.77
-24.25
-13.43
-5.48
1.9
11.42
24.76
41.53
59.47
75.21
85.53
88.23
82.57
69.19
50.01
27.81
5.67
-13.78
-28.99
-39.68
-46.34
-49.32
-48.25
-42.44
-31.93
-18.5
-5.52
3.5
6.89
6.13
5.36
9.51
21.86
42.46
67.93
92.78
111.07
117.86
109.89
86.22
48.83
3.05
-42.83
-79.37
-98.75
-97.66
-78.85
-50.41
-22.84
-5.33
-2.7
-14.4
-35.41
-58.26
-75.54
-81.79
-74.51
-54.27
-23.92
11.95
47.56
76.43
92.55
91.57
72.03
36.24
-9.66
-56.76
-95.65
-119.17
-124.67
-112.98
-87.44
-52.54
-12.94
26.86
62.98
91.97
110.57
115.64
107.38
89.19
66.45
44.58
27.89
19.65
21.78
33.5
49.63
64.19
70.79
63.99
40.91
3.75
-38.73
-73.66
-89.74
-83.39
-55.77
-12.74
37.49
86.41
121.63
131.29
114.9
93.3
73.7
56.66
37.82
15.9
-9.24
-36.43
-62.08
-81.02
-89.59
-89.0
-81.2
-68.97
-55.18
-42.54
-32.38
-23.56
-13.4
-0.23
14.13
27.7
38.39
44.14
42.54
31.73
11.69
-15.28
-45.43
-74.96
-98.97
-113.1
-114.97
-105.21
-86.83
-63.39
-37.76
-11.72
12.95
34.22
48.35
50.08
34.59
0.75
-46.4
-95.94
-134.47
-151.26
-141.69
-108.37
-59.02
-3.01
51.54
98.6
133.65
153.1
154.78
139.4
111.44
78.27
47.38
23.58
7.37
-4.16
-14.75
-26.53
-39.15
-50.6
-58.98
-63.84
-66.23
-67.86
-69.93
-72.56
-74.82
-75.25
-72.33
-64.86
-52.13
-34.07
-11.42
14.18
40.24
63.7
81.51
91.37
92.27
84.86
71.34
54.9
38.83
25.76
17.13
13.24
13.51
16.56
20.4
22.5
20.29
12.2
-1.27
-17.02
-30.01
-35.09
-29.07
-12.21
11.78
37.02
57.42
68.61
68.92
59.56
44.09
27.2
13.63
6.87
8.21
16.63
29.26
42.36
52.47
57.04
54.36
43.52
24.32
-2.2
-33.31
-64.44
-89.9
-104.26
-104.0
-88.7
-61.17
-26.64
8.71
39.39
61.62
73.67
75.58
68.74
55.33
38.09
20.01
3.91
-7.88
-14.1
-14.78
-11.12
-5.17
0.68
4.19
3.17
-4.24
-19.26
-41.78
-69.66
-98.56
-122.44
-135.02
-131.7
-111.09
-75.65
-31.26
14.39
53.74
80.97
93.1
90.34
75.69
54.24
31.88
13.98
4.15
3.53
10.89
23.26
37.0
48.58
55.11
54.45
45.11
26.41
-1.22
-35.59
-72.52
-106.03
-129.37
-136.8
-125.43
-96.56
-55.84
-12.06
25.3
48.76
54.97
45.7
26.87
6.34
-8.96
-15.64
-14.83
-11.37
-11.46
-19.66
-36.89
-60.29
-84.95
-106.42
-122.47
-133.15
-139.47
-141.79
-139.1
-129.67
-112.55
-88.46
-59.72
-29.02
1.91
32.64
63.28
93.06
119.45
138.42
146.01
140.31
122.66
97.6
71.27
49.34
35.62
31.24
34.98
44.16
55.47
65.61
71.7
71.56
64.11
49.54
29.49
6.86
-14.64
-31.32
-40.49
-41.18
-34.35
-22.5
-8.79
4.11
14.74
23.1
30.19
37.19
44.76
52.67
60.04
65.92
69.91
72.55
75.19
79.23
85.22
91.96
96.46
94.86
83.97
62.89
33.68
0.95
-29.59
-53.08
-66.7
-70.2
-65.32
-54.93
-42.04
-29.31
-18.84
-12.18
-10.13
-12.47
-17.55
-22.34
-23.26
-17.49
-4.6
12.77
29.62
40.49
41.85
33.43
18.2
0.61
-15.32
-27.6
-36.36
-42.92
-48.55
-53.61
-57.52
-59.16
-57.26
-50.63
-38.09
-18.7
7.71
39.82
74.36
106.39
130.33
141.66
138.45
121.93
96.01
65.79
35.81
9.05
-13.23
-30.94
-44.35
-53.63
-58.88
-60.36
-58.71
-55.01
-50.6
-46.82
-44.73
-44.79
-46.43
-48.03
-47.24
-41.87
-30.92
-15.5
1.23
14.85
21.18
17.66
4.07
-17.31
-42.5
-67.0
-87.0
-100.24
-106.17
-105.51
-99.57
-89.79
-77.6
-64.86
-53.9
-47.23
-46.7
-52.51
-62.89
-74.66
-84.55
-90.37
-91.6
-88.87
-83.0
-74.15
-61.84
-45.72
-26.57
-6.56
11.27
24.32
31.65
34.41
35.06
36.08
38.7
42.47
45.96
47.91
48.09
47.44
47.2
47.82
48.65
48.14
45.08
39.4
32.43
26.27
22.76
22.68
25.55
30.13
35.08
39.51
42.99
45.34
46.3
45.65
43.38
40.09
36.98
35.45
36.45
39.91
44.59
48.57
50.05
47.94
42.13
33.2
21.99
9.25
-4.31
-17.76
-29.63
-38.09
-41.46
-38.91
-30.96
-19.39
-6.74
4.56
12.87
17.62
19.16
18.37
16.22
13.55
11.09
9.6
9.9
12.63
17.76
24.23
29.95
32.44
29.8
21.58
9.04
-5.37
-18.96
-29.74
-36.81
-40.13
-39.91
-36.25
-29.11
-18.82
-6.33
6.7
18.46
27.57
33.48
36.47
37.18
36.17
33.74
30.08
25.54
20.78
16.68
13.86
12.32
11.36
9.86
7.0
2.72
-2.14
-6.18
-8.12
-7.43
-4.62
-1.02
1.85
2.98
2.33
0.81
-0.11
0.87
4.33
9.94
16.55
22.7
27.11
29.04
28.4
25.51
20.88
15.02
8.42
1.63
-4.72
-9.95
-13.47
-15.03
-14.79
-13.27
-11.04
-8.58
-5.95
-3.02
0.26
3.59
6.29
7.51
6.77
4.27
0.87
-2.24
-4.16
-4.64
-4.21
-3.76
-4.08
-5.45
-7.57
-9.82
-11.51
-12.11
-11.3
-8.9
-4.87
0.56
6.77
12.69
17.02
18.71
17.39
13.66
8.94
4.88
2.68
2.56
3.77
5.08
5.57
5.12
4.52
4.97
7.39
11.87
17.7
23.64
28.52
31.58
32.54
31.44
28.47
23.85
17.98
11.55
5.52
0.81
-2.02
-3.14
-3.41
-4.09
-6.34
-10.61
-16.57
-23.13
-29.0
-33.13
-35.05
-34.85
-32.92
-29.65
-25.27
-19.94
-13.91
-7.79
-2.4
1.4
3.08
2.66
0.63
-2.24
-5.24
-8.03
-10.66
-13.41
-16.53
-20.02
-23.51
-26.45
-28.24
-28.52
-27.2
-24.45
-20.59
-15.98
-10.99
-6.0
-1.42
2.34
5.04
6.7
7.58
8.11
8.61
9.14
9.46
9.11
7.74
5.21
1.73
-2.2
-5.93
-8.85
-10.46
-10.53
-9.09
-6.48
-3.22
0.13
3.09
5.41
7.04
8.03
8.59
8.96
9.43
10.28
11.61
13.31
15.03
16.26
16.56
15.82
14.3
12.67
11.72
12.11
14.08
17.36
21.26
24.91
27.53
28.64
28.08
26.0
22.69
18.49
13.8
9.05
4.73
1.29
-1.16
-2.83
-4.32
-6.3
-9.14
-12.7
-16.26
-18.75
-19.23
-17.26
-13.17
-7.99
-2.95
0.98
3.52
5.09
6.48
8.3
10.62
12.94
14.44
14.46
12.77
9.6
5.3
0.04
-6.27
-13.76
-22.17
-30.64
-37.84
-42.42
-43.64
-41.62
-37.3
-31.87
-26.28
-20.89
-15.6
-10.2
-4.72
0.48
4.9
8.32
10.95
13.42
16.34
19.89
23.57
26.37
27.22
25.49
21.35
15.66
9.64
4.35
0.3
-2.57
-4.72
-6.61
-8.36
-9.77
-10.46
-10.19
-9.12
-7.78
-6.88
-6.94
-8.13
-10.21
-12.71
-15.13
-17.0
-17.95
-17.6
-15.63
-11.89
-6.53
-0.1
6.57
12.57
17.22
20.25
21.84
22.48
22.7
22.84
22.9
22.5
21.07
18.13
13.52
7.65
1.38
-4.2
-8.12
-9.89
-9.52
-7.45
-4.26
-0.46
3.62
7.75
11.65
14.91
17.14
18.24
18.45
18.39
18.63
19.36
20.23
20.45
19.27
16.36
12.08
7.22
2.63
-1.25
-4.43
-7.19
-9.68
-11.67
-12.61
-11.93
-9.44
-5.58
-1.22
2.64
5.28
6.59
7.01
7.38
8.52
10.98
14.77
19.34
23.75
27.0
28.32
27.4
24.42
19.88
14.46
8.79
3.5
-0.81
-3.62
-4.58
-3.77
-1.79
0.42
1.9
2.11
1.19
-0.13
-0.88
-0.35
1.6
4.47
7.31
9.16
9.43
8.21
6.28
4.86
5.16
7.9
12.94
19.4
25.89
31.09
34.15
34.88
33.68
31.41
29.22
28.39
30.06
34.81
42.25
50.68
57.49
59.91
55.98
45.26
28.79
8.55
-13.34
-35.11
-55.45
-73.34
-87.98
-98.76
-105.41
-107.89
-106.23
-100.5
-90.98
-78.65
-65.45
-53.93
-46.21
-42.95
-42.96
-43.72
-42.91
-39.61
-34.66
-29.87
-26.69
-25.17
-24.01
-21.56
-16.96
-10.74
-4.54
-0.15
1.45
0.42
-2.08
-4.71
-6.53
-7.35
-7.71
-8.37
-9.79
-11.84
-13.82
-14.89
-14.56
-13.01
-10.92
-9.14
-8.1
-7.68
-7.31
-6.32
-4.35
-1.44
2.01
5.49
8.62
11.19
13.1
14.22
14.37
13.38
11.11
7.66
3.37
-1.12
-4.96
-7.35
-7.74
-6.14
-3.11
0.38
3.37
5.31
6.32
7.17
8.88
12.26
17.46
23.86
30.36
35.83
39.69
42.01
43.47
44.83
46.53
48.37
49.59
49.25
46.62
41.44
33.95
24.74
14.49
3.95
-6.12
-14.83
-21.27
-24.63
-24.55
-21.4
-16.3
-10.88
-6.82
-5.28
-6.57
-10.12
-14.79
-19.3
-22.72
-24.61
-24.97
-24.08
-22.22
-19.64
-16.55
-13.21
-9.87
-6.78
-4.07
-1.71
0.43
2.45
4.32
5.92
7.02
7.51
7.39
6.76
5.8
4.61
3.22
1.59
-0.4
-2.9
-6.06
-9.97
-14.56
-19.51
-24.27
-28.08
-30.24
-30.28
-28.11
-24.01
-18.52
-12.21
-5.64
0.75
6.56
11.47
15.3
18.08
20.11
21.81
23.49
25.2
26.61
27.23
26.65
24.78
21.93
18.63
15.5
12.97
11.28
10.44
10.28
10.51
10.7
10.43
9.33
7.32
4.61
1.65
-1.01
-2.95
-3.97
-4.14
-3.71
-3.04
-2.44
-2.19
-2.41
-3.18
-4.45
-6.09
-7.89
-9.51
-10.62
-10.88
-10.1
-8.29
-5.66
-2.55
0.71
3.88
6.81
9.44
11.66
13.34
14.29
14.29
13.13
10.65
6.67
1.1
-6.0
-14.3
-23.04
-31.12
-37.26
-40.35
-39.84
-35.9
-29.41
-21.58
-13.65
-6.47
-0.46
4.33
7.97
10.48
11.82
11.86
10.55
7.95
4.3
-0.01
-4.47
-8.61
-12.05
-14.57
-16.1
-16.69
-16.48
-15.66
-14.54
-13.53
-13.06
-13.38
-14.29
-15.19
-15.22
-13.66
-10.33
-5.64
-0.43
4.39
8.19
10.78
12.25
12.88
12.93
12.62
12.28
12.26
12.99
14.71
17.35
20.48
23.38
25.36
25.93
24.98
22.76
19.73
16.28
12.6
8.63
4.17
-0.86
-6.26
-11.52
-15.94
-18.89
-20.02
-19.36
-17.2
-13.98
-10.14
-5.99
-1.79
2.24
5.88
8.83
10.88
11.89
11.97
11.46
10.82
10.42
10.42
10.53
10.24
9.02
6.58
3.12
-0.8
-4.55
-7.69
-10.16
-12.11
-13.72
-14.85
-15.15
-14.14
-11.59
-7.69
-3.09
1.37
4.92
7.12
7.95
7.7
6.77
5.53
4.25
3.15
2.42
2.28
2.88
4.22
6.15
8.37
10.55
12.43
13.91
14.99
15.72
16.1
16.05
15.42
14.16
12.35
10.25
8.25
6.79
6.19
6.55
7.7
9.18
10.5
11.27
11.38
11.14
11.1
11.95
14.23
17.93
22.39
26.31
28.03
26.09
19.74
9.23
-4.19
-18.72
-32.49
-44.06
-52.58
-57.75
-59.68
-58.75
-55.52
-50.76
-45.28
-39.83
-34.84
-30.37
-26.21
-22.06
-17.79
-13.57
-9.78
-6.83
-4.87
-3.68
-2.75
-1.51
0.44
3.06
5.91
8.36
9.85
10.13
9.33
7.88
6.29
5.02
4.32
4.29
4.86
5.89
7.12
8.28
9.13
9.55
9.62
9.56
9.67
10.2
11.18
12.41
13.49
13.96
13.48
11.96
9.58
6.82
4.28
2.51
1.9
2.47
3.98
5.95
7.89
9.49
10.7
11.73
12.97
14.7
17.0
19.7
22.34
24.38
25.3
24.81
22.97
20.2
17.2
14.74
13.4
13.34
14.24
15.37
15.9
15.24
13.21
10.15
6.74
3.81
2.02
1.73
2.88
4.97
7.22
8.73
8.73
6.86
3.29
-1.31
-5.92
-9.51
-11.39
-11.33
-9.71
-7.27
-4.93
-3.45
-3.25
-4.27
-6.03
-7.74
-8.56
-7.83
-5.31
-1.24
3.64
8.23
11.38
12.17
10.19
5.64
-0.67
-7.58
-13.93
-18.93
-22.3
-24.31
-25.54
-26.57
-27.72
-28.91
-29.84
-30.2
-29.85
-28.9
-27.65
-26.4
-25.3
-24.29
-23.2
-21.91
-20.46
-19.04
-17.85
-17.04
-16.53
-16.11
-15.53
-14.63
-13.33
-11.63
-9.37
-6.23
-1.85
3.99
11.04
18.54
25.45
30.81
34.28
36.27
37.78
39.9
43.24
47.61
52.06
55.39
56.72
55.92
53.52
50.31
46.85
43.09
38.58
32.89
26.04
18.77
12.22
7.47
4.97
4.34
4.57
4.53
3.47
1.25
-1.68
-4.66
-7.15
-9.01
-10.47
-11.93
-13.77
-16.13
-18.93
-21.98
-25.09
-28.13
-31.0
-33.56
-35.57
-36.8
-37.13
-36.62
-35.56
-34.4
-33.56
-33.31
-33.68
-34.46
-35.24
-35.61
-35.37
-34.57
-33.51
-32.51
-31.81
-31.43
-31.17
-30.82
-30.19
-29.34
-28.41
-27.52
-26.65
-25.63
-24.24
-22.25
-19.61
-16.52
-13.52
-11.27
-10.3
-10.8
-12.49
-14.79
-16.83
-17.79
-17.28
-15.67
-13.91
-13.29
-14.85
-18.8
-24.44
-29.92
-32.9
-31.59
-25.88
-17.18
-7.95
-0.39
4.42
6.66
7.91
10.23
15.21
23.1
33.12
43.78
53.48
61.75
66.37
64.47
54.69
39.1
21.63
6.18
-5.16
-12.34
-17.04
-21.85
-28.36
-35.63
-39.71
-37.37
-24.87
-2.02
27.05
55.07
74.19
79.44
69.63
49.6
27.16
8.97
-2.76
-9.67
-14.7
-19.53
-23.44
-25.16
-22.25
-14.83
-5.1
3.95
10.14
13.25
14.47
15.41
17.08
19.65
21.87
22.15
19.25
12.97
4.14
-5.27
-13.45
-19.32
-22.51
-23.66
-23.8
-23.95
-24.64
-25.79
-26.81
-27.09
-26.22
-24.1
-21.18
-18.2
-16.0
-15.19
-15.92
-17.85
-20.4
-22.9
-24.8
-25.6
-25.13
-23.5
-21.14
-18.59
-16.3
-14.5
-13.08
-11.59
-9.13
-4.89
1.25
8.49
15.45
20.86
24.11
25.39
25.58
26.25
28.61
32.79
37.73
41.81
43.86
43.7
41.92
39.58
38.32
39.58
44.13
51.81
61.8
72.92
83.59
91.39
89.61
73.48
44.22
9.81
-19.95
-38.83
-45.96
-44.15
-38.25
-31.1
-23.15
-13.83
-3.07
7.9
16.9
20.46
17.05
7.28
-6.19
-19.62
-29.86
-35.52
-37.14
-36.94
-36.87
-37.71
-39.44
-41.38
-42.52
-42.01
-39.65
-36.1
-31.88
-27.76
-24.06
-20.85
-18.08
-15.57
-13.29
-11.31
-9.82
-8.91
-8.41
-7.71
-6.15
-3.32
0.84
5.87
10.98
15.18
17.65
17.94
16.22
13.14
9.56
6.27
3.8
2.28
1.52
1.16
0.79
0.21
-0.57
-1.32
-1.7
-1.48
-0.61
0.75
2.32
3.85
5.21
6.34
7.24
7.79
7.85
7.26
6.01
4.28
2.38
0.64
-0.74
-1.84
-2.84
-3.91
-5.09
-6.13
-6.6
-6.13
-4.55
-2.06
0.89
3.74
6.1
7.84
9.09
10.07
10.9
11.53
11.77
11.48
10.68
9.54
8.26
6.92
5.39
3.42
0.79
-2.46
-5.95
-9.06
-11.11
-11.61
-10.42
-7.86
-4.54
-1.18
1.61
3.5
4.45
4.62
4.24
3.5
2.53
1.42
0.35
-0.49
-0.95
-1.04
-1.0
-1.27
-2.2
-3.93
-6.18
-8.32
-9.64
-9.62
-8.17
-5.68
-2.82
-0.19
1.91
3.57
5.15
6.95
9.08
11.28
13.15
14.31
14.61
14.17
13.22
11.98
10.53
8.79
6.69
4.32
1.97
0.11
-0.81
-0.63
0.52
2.13
3.6
4.43
4.42
3.73
2.71
1.74
1.03
0.58
0.25
-0.11
-0.56
-1.07
-1.57
-2.06
-2.6
-3.3
-4.16
-5.08
-5.82
-6.12
-5.85
-5.01
-3.76
-2.39
-1.17
-0.29
0.14
0.15
-0.17
-0.72
-1.42
-2.27
-3.26
-4.32
-5.22
-5.63
-5.22
-3.88
-1.82
0.53
2.66
4.22
5.13
5.56
5.78
6.02
6.39
6.84
7.34
7.87
8.47
9.16
9.8
10.1
9.68
8.21
5.61
2.16
-1.64
-5.21
-8.1
-10.1
-11.23
-11.64
-11.46
-10.77
-9.61
-8.0
-6.01
-3.77
-1.41
0.88
2.86
4.29
4.96
4.79
3.9
2.55
1.07
-0.32
-1.57
-2.78
-4.12
-5.69
-7.46
-9.25
-10.83
-12.04
-12.77
-12.92
-12.34
-10.78
-8.03
-4.09
0.67
5.49
9.5
12.01
12.86
12.38
11.26
10.15
9.43
9.05
8.69
7.9
6.35
3.94
0.83
-2.63
-5.92
-8.57
-10.22
-10.75
-10.24
-8.93
-7.06
-4.81
-2.31
0.27
2.72
4.83
6.47
7.69
8.67
9.59
10.46
11.04
10.9
9.69
7.28
3.88
-0.05
-3.94
-7.31
-9.85
-11.47
-12.16
-11.96
-10.89
-8.97
-6.31
-3.12
0.29
3.54
6.32
8.46
10.0
11.06
11.81
12.34
12.63
12.63
12.31
11.72
10.99
10.25
9.55
8.79
7.76
6.25
4.2
1.78
-0.58
-2.36
-3.14
-2.73
-1.33
0.58
2.39
3.62
4.04
3.7
2.81
1.59
0.11
-1.71
-4.02
-6.91
-10.33
-14.05
-17.7
-20.93
-23.48
-25.21
-26.12
-26.24
-25.63
-24.37
-22.64
-20.69
-18.81
-17.22
-15.99
-14.97
-13.91
-12.57
-10.82
-8.68
-6.3
-3.81
-1.28
1.3
3.94
6.6
9.13
11.35
13.14
14.47
15.47
16.33
17.23
18.23
19.25
20.06
20.36
19.92
18.71
16.95
15.07
13.48
12.46
12.04
11.94
11.73
11.06
9.77
7.93
5.8
3.63
1.6
-0.28
-2.01
-3.6
-4.88
-5.64
-5.71
-5.12
-4.09
-3.0
-2.23
-1.93
-2.04
-2.23
-2.21
-1.86
-1.34
-1.05
-1.4
-2.67
-4.83
-7.52
-10.03
-11.59
-11.58
-9.85
-6.72
-2.88
0.82
3.74
5.7
7.24
9.17
11.98
15.68
19.8
23.79
27.28
30.22
32.87
36.06
40.22
45.07
49.69
53.15
55.08
55.79
56.11
57.07
60.2
66.27
74.74
83.88
91.56
96.05
96.43
92.67
85.61
77.7
71.33
67.82
67.11
68.29
70.14
71.24
69.87
58.03
31.63
-7.14
-50.28
-88.99
-117.79
-135.09
-142.26
-142.2
-138.25
-132.13
-124.7
-116.44
-107.98
-99.95
-92.78
-86.77
-81.97
-78.31
-74.92
-71.3
-67.67
-64.78
-62.84
-60.8
-56.56
-47.6
-32.44
-11.14
13.79
38.05
56.9
67.08
68.26
61.59
49.87
36.29
23.78
14.14
7.89
4.58
3.43
3.55
4.41
5.99
8.16
10.45
11.93
11.83
9.84
6.62
3.1
0.47
-0.11
1.73
5.45
9.77
13.58
16.12
17.43
17.51
16.88
16.62
17.55
19.56
21.3
21.84
20.39
17.22
12.42
6.58
0.44
-5.33
-9.97
-12.32
-9.79
0.12
22.75
55.64
88.45
109.73
115.18
108.3
95.63
82.85
69.04
51.52
27.52
-2.34
-34.95
-66.18
-88.66
-99.22
-98.91
-93.61
-89.37
-90.33
-96.28
-105.25
-113.71
-118.7
-118.99
-115.02
-110.73
-109.39
-112.28
-117.02
-121.14
-121.36
-115.17
-101.18
-68.79
-19.21
35.53
75.09
97.73
105.25
100.17
83.33
57.46
27.74
-1.12
-23.6
-34.71
-31.32
-16.55
8.11
33.99
51.43
56.03
48.65
33.98
17.12
2.25
-9.72
-18.64
-24.76
-27.15
-25.06
-20.03
-14.63
-11.09
-9.94
-11.4
-14.66
-18.86
-22.25
-23.28
-21.77
-18.42
-14.11
-9.36
-4.75
-0.47
2.88
6.18
10.09
14.46
18.58
21.6
23.08
23.02
21.99
20.73
20.25
21.12
23.21
25.57
26.85
25.88
22.11
15.8
7.89
-0.15
-7.03
-12.1
-15.53
-18.25
-21.41
-25.91
-32.01
-39.3
-46.88
-53.72
-58.94
-62.02
-62.89
-61.93
-59.9
-57.89
-57.05
-58.14
-61.19
-65.29
-68.81
-70.02
-67.84
-62.39
-54.92
-47.28
-40.92
-36.31
-32.79
-28.99
-23.6
-15.93
-6.19
4.6
14.97
23.44
28.98
31.36
31.36
30.61
31.21
34.88
42.32
52.86
64.71
75.69
84.0
88.8
89.95
87.83
82.82
75.28
65.72
55.02
44.4
35.17
28.28
23.97
21.71
20.5
19.29
17.46
14.99
12.4
10.49
9.88
10.78
12.87
15.45
17.78
19.35
20.11
20.46
21.05
22.56
25.55
30.32
36.97
45.28
54.74
64.64
74.17
82.61
89.51
94.74
98.38
100.58
101.34
100.56
98.1
93.96
88.33
81.53
73.92
65.92
58.0
50.77
44.81
40.46
37.56
35.41
32.95
29.17
23.5
15.95
6.99
-2.71
-12.51
-21.96
-30.64
-38.12
-44.1
-48.43
-51.37
-53.51
-55.53
-57.99
-61.04
-64.49
-67.92
-71.0
-73.65
-76.0
-78.25
-80.49
-82.65
-84.52
-85.89
-86.64
-86.82
-86.45
-85.51
-83.83
-81.22
-77.59
-73.14
-68.28
-63.59
-59.49
-56.09
-53.25
-50.6
-47.85
-44.94
-42.05
-39.56
-37.83
-37.08
-37.24
-38.0
-38.9
-39.4
-39.08
-37.65
-35.04
-31.31
-26.56
-20.83
-14.16
-6.69
1.21
8.89
15.55
20.55
23.63
25.05
25.4
25.35
25.31
25.27
24.95
24.01
22.28
19.89
17.18
14.49
12.04
9.9
8.12
6.83
6.28
6.84
8.72
11.91
16.04
20.48
24.52
27.62
29.53
30.36
30.45
30.19
29.85
29.42
28.72
27.53
25.69
23.27
20.44
17.37
14.13
10.68
7.01
3.33
0.12
-1.93
-2.2
-0.41
3.24
8.08
13.22
17.87
21.5
23.98
25.45
26.16
26.35
26.13
25.56
24.66
23.48
22.1
20.55
18.77
16.61
13.87
10.47
6.57
2.58
-0.95
-3.53
-4.89
-5.11
-4.52
-3.6
-2.73
-2.09
-1.69
-1.4
-1.11
-0.72
-0.26
0.22
0.65
1.01
1.36
1.76
2.23
2.67
2.82
2.35
1.06
-1.01
-3.48
-5.79
-7.37
-7.88
-7.32
-6.0
-4.27
-2.43
-0.6
1.22
3.0
4.63
5.9
6.61
6.66
6.16
5.35
4.53
3.91
3.54
3.27
2.83
1.94
0.48
-1.45
-3.5
-5.16
-5.95
-5.64
-4.27
-2.12
0.46
3.17
5.85
8.41
10.76
12.69
13.92
14.25
13.62
12.29
10.66
9.16
8.02
7.16
6.23
4.77
2.51
-0.47
-3.71
-6.53
-8.27
-8.54
-7.3
-4.85
-1.69
1.68
4.81
7.38
9.24
10.29
10.53
10.09
9.19
8.11
7.12
6.34
5.7
4.86
3.35
0.8
-2.88
-7.34
-11.88
-15.65
-17.95
-18.49
-17.36
-15.01
-11.97
-8.67
-5.4
-2.3
0.48
2.76
4.3
4.91
4.58
3.51
2.05
0.52
-0.88
-2.19
-3.64
-5.46
-7.77
-10.5
-13.44
-16.31
-18.84
-20.85
-22.14
-22.63
-22.23
-20.91
-18.75
-15.87
-12.41
-8.58
-4.58
-0.65
2.99
6.15
8.8
11.02
13.01
14.87
16.6
18.01
18.86
18.95
18.24
16.84
14.95
12.77
10.53
8.46
6.88
6.13
6.47
7.92
10.27
12.99
15.53
17.43
18.49
18.76
18.45
17.75
16.77
15.45
13.73
11.61
9.27
6.94
4.86
3.06
1.36
-0.54
-2.88
-5.67
-8.62
-11.25
-13.11
-14.01
-14.0
-13.47
-12.87
-12.56
-12.64
-12.89
-12.91
-12.27
-10.66
-8.07
-4.71
-0.97
2.74
6.07
8.85
11.01
12.55
13.47
13.75
13.37
12.45
11.24
10.13
9.53
9.69
10.54
11.72
12.75
13.21
13.01
12.37
11.63
11.08
10.76
10.46
9.88
8.83
7.3
5.51
3.67
1.93
0.27
-1.44
-3.24
-5.02
-6.4
-6.9
-6.12
-3.91
-0.52
3.53
7.6
11.17
13.95
15.85
16.9
17.11
16.47
15.0
12.88
10.45
8.11
6.14
4.6
3.29
1.83
-0.07
-2.49
-5.13
-7.43
-8.7
-8.39
-6.34
-2.82
1.48
5.74
9.26
11.71
13.1
13.67
13.69
13.3
12.48
11.18
9.48
7.59
5.8
4.3
3.07
1.81
0.09
-2.37
-5.55
-9.02
-12.05
-13.94
-14.21
-12.85
-10.23
-6.99
-3.72
-0.85
1.45
3.18
4.4
5.16
5.46
5.28
4.65
3.68
2.51
1.28
0.09
-1.06
-2.26
-3.62
-5.17
-6.82
-8.35
-9.48
-9.98
-9.79
-9.04
-7.99
-6.84
-5.68
-4.51
-3.28
-2.02
-0.9
-0.14
0.1
-0.18
-0.77
-1.38
-1.78
-1.93
-2.02
-2.39
-3.34
-5.0
-7.21
-9.57
-11.54
-12.61
-12.53
-11.28
-9.12
-6.36
-3.31
-0.19
2.86
5.67
8.09
9.94
11.12
11.62
11.57
11.11
10.37
9.38
8.09
6.4
4.26
1.7
-1.11
-3.87
-6.28
-8.0
-8.84
-8.68
-7.56
-5.58
-2.91
0.17
3.33
6.16
8.28
9.39
9.36
8.27
6.36
3.98
1.5
-0.81
-2.79
-4.44
-5.85
-7.17
-8.52
-9.96
-11.46
-12.9
-14.06
-14.66
-14.38
-12.97
-10.34
-6.67
-2.38
1.85
5.35
7.61
8.46
8.08
6.9
5.41
4.03
2.97
2.28
1.89
1.6
1.26
0.66
-0.32
-1.79
-3.72
-5.95
-8.15
-9.89
-10.75
-10.36
-8.62
-5.68
-1.95
1.97
5.44
8.01
9.49
9.97
9.75
9.17
8.46
7.71
6.84
5.71
4.23
2.37
0.19
-2.24
-4.79
-7.36
-9.81
-11.87
-13.21
-13.48
-12.43
-10.07
-6.68
-2.76
1.07
4.33
6.77
8.35
9.19
9.43
9.16
8.38
7.06
5.24
3.01
0.58
-1.82
-3.97
-5.76
-7.21
-8.42
-9.49
-10.4
-10.98
-10.99
-10.2
-8.55
-6.24
-3.61
-1.09
1.01
2.6
3.72
4.49
4.98
5.14
4.88
4.1
2.82
1.17
-0.6
-2.27
-3.67
-4.81
-5.84
-6.91
-8.1
-9.19
-9.77
-9.33
-7.52
-4.41
-0.45
3.64
7.17
9.78
11.47
12.52
13.22
13.64
13.6
12.83
11.18
8.82
6.16
3.68
1.72
0.27
-0.94
-2.27
-3.89
-5.63
-7.02
-7.54
-6.86
-5.02
-2.43
0.4
3.0
5.11
6.67
7.72
8.24
8.19
7.54
6.38
4.95
3.59
2.54
1.87
1.43
0.87
-0.18
-1.97
-4.56
-7.7
-11.0
-13.95
-16.11
-17.25
-17.41
-16.8
-15.77
-14.6
-13.48
-12.46
-11.55
-10.77
-10.19
-9.87
-9.78
-9.77
-9.56
-8.91
-7.67
-5.94
-3.94
-1.97
-0.28
1.05
2.07
2.94
3.83
4.85
6.01
7.25
8.45
9.55
10.52
11.42
12.31
13.16
13.83
14.09
13.76
12.82
11.47
10.01
8.73
7.71
6.81
5.75
4.3
2.4
0.21
-1.97
-3.86
-5.25
-6.13
-6.51
-6.45
-5.95
-5.03
-3.76
-2.3
-0.93
0.09
0.59
0.6
0.32
0.03
-0.03
0.21
0.59
0.88
0.83
0.32
-0.63
-1.91
-3.37
-4.88
-6.32
-7.55
-8.37
-8.53
-7.72
-5.78
-2.75
1.05
5.05
8.58
11.04
12.14
11.93
10.78
9.13
7.39
5.71
4.02
2.2
0.17
-1.95
-3.94
-5.57
-6.68
-7.28
-7.45
-7.26
-6.71
-5.69
-4.08
-1.87
0.8
3.57
6.05
7.85
8.78
8.93
8.51
7.82
7.01
6.09
4.9
3.33
1.42
-0.57
-2.26
-3.36
-3.77
-3.69
-3.45
-3.36
-3.52
-3.77
-3.79
-3.24
-1.98
-0.11
2.07
4.23
6.1
7.58
8.69
9.49
9.99
10.09
9.66
8.64
7.07
5.2
3.31
1.63
0.26
-0.95
-2.22
-3.74
-5.52
-7.39
-9.02
-10.07
-10.38
-9.96
-8.98
-7.69
-6.26
-4.76
-3.19
-1.54
0.15
1.71
2.89
3.44
3.23
2.29
0.82
-0.94
-2.81
-4.76
-6.87
-9.21
-11.71
-14.08
-15.96
-17.02
-17.14
-16.42
-15.09
-13.37
-11.36
-9.01
-6.32
-3.36
-0.35
2.37
4.51
5.92
6.61
6.77
6.63
6.35
6.02
5.59
4.95
4.0
2.73
1.23
-0.3
-1.64
-2.64
-3.27
-3.56
-3.52
-3.13
-2.24
-0.73
1.37
3.85
6.28
8.17
9.15
9.1
8.26
7.05
5.94
5.23
4.94
4.84
4.63
4.03
2.93
1.39
-0.49
-2.57
-4.75
-6.91
-8.84
-10.26
-10.85
-10.41
-8.89
-6.47
-3.53
-0.48
2.29
4.51
6.09
7.04
7.46
7.46
7.12
6.51
5.69
4.78
3.98
3.45
3.27
3.38
3.51
3.41
2.9
2.04
1.13
0.59
0.78
1.84
3.58
5.61
7.45
8.78
9.53
9.81
9.87
9.87
9.74
9.33
8.45
7.06
5.31
3.46
1.7
0.03
-1.75
-3.92
-6.63
-9.72
-12.8
-15.35
-16.99
-17.56
-17.24
-16.32
-15.12
-13.79
-12.34
-10.73
-8.98
-7.19
-5.57
-4.3
-3.45
-2.97
-2.71
-2.54
-2.42
-2.33
-2.38
-2.65
-3.21
-4.08
-5.14
-6.19
-6.91
-6.98
-6.22
-4.64
-2.48
-0.1
2.15
3.97
5.21
5.82
5.77
5.1
3.9
2.37
0.74
-0.78
-2.18
-3.54
-4.96
-6.54
-8.24
-9.89
-11.26
-12.15
-12.46
-12.2
-11.49
-10.47
-9.21
-7.68
-5.77
-3.3
-0.21
3.27
6.56
8.99
10.05
9.7
8.44
7.09
6.62
7.53
9.6
11.95
13.6
13.96
13.1
11.59
10.29
10.17
11.68
14.33
16.95
18.35
17.99
16.27
14.21
13.11
14.38
18.48
24.38
29.92
32.94
32.38
28.59
23.0
17.59
14.86
16.68
23.43
33.78
45.22
54.63
58.43
52.99
32.35
-4.29
-49.59
-90.19
-114.2
-116.99
-101.4
-74.86
-45.61
-19.83
0.13
14.33
23.23
26.31
22.6
12.16
-3.19
-20.01
-34.21
-42.06
-41.81
-34.37
-22.02
-7.47
7.05
19.91
29.77
35.59
37.21
34.23
27.89
19.31
8.99
-2.83
-15.94
-29.51
-41.93
-51.29
-56.42
-57.39
-55.64
-53.58
-51.64
-49.36
-45.78
-40.14
-32.46
-23.6
-14.78
-7.2
-1.54
2.29
4.63
5.83
6.14
5.61
4.31
2.54
0.69
-0.81
-1.58
-1.6
-1.13
-0.58
-0.32
-0.5
-1.07
-1.81
-2.5
-2.97
-3.34
-3.91
-4.97
-6.63
-8.72
-10.75
-12.08
-12.14
-10.57
-7.4
-3.05
1.89
6.77
11.07
14.5
17.01
18.72
19.79
20.27
20.18
19.54
18.49
17.28
16.19
15.39
14.79
14.1
12.93
11.01
8.33
5.14
1.82
-1.18
-3.53
-5.01
-5.54
-5.14
-3.95
-2.15
0.04
2.41
4.77
6.91
8.66
9.88
10.52
10.67
10.51
10.22
9.82
9.24
8.37
7.2
5.86
4.54
3.34
2.19
0.86
-0.85
-2.89
-4.94
-6.39
-6.71
-5.59
-3.09
0.39
4.26
7.89
10.81
12.67
13.32
12.8
11.34
9.29
7.01
4.84
2.97
1.48
0.32
-0.6
-1.39
-2.18
-3.04
-3.96
-4.81
-5.38
-5.47
-4.96
-3.87
-2.43
-0.89
0.49
1.6
2.42
3.03
3.53
3.97
4.38
4.73
5.01
5.2
5.26
5.13
4.73
3.94
2.62
0.65
-1.96
-5.01
-8.1
-10.65
-12.12
-12.19
-10.94
-8.76
-6.19
-3.62
-1.2
1.15
3.51
5.82
7.73
8.84
8.86
7.81
6.01
3.89
1.85
0.11
-1.33
-2.54
-3.67
-4.85
-6.18
-7.66
-9.14
-10.3
-10.77
-10.31
-8.97
-7.05
-4.94
-2.97
-1.28
0.16
1.33
2.16
2.5
2.3
1.64
0.77
-0.07
-0.83
-1.79
-3.41
-6.07
-9.84
-14.43
-19.31
-23.86
-27.63
-30.41
-32.26
-33.4
-33.98
-34.07
-33.6
-32.5
-30.77
-28.52
-25.97
-23.35
-20.86
-18.51
-16.08
-13.28
-9.85
-5.76
-1.08
3.8
8.25
11.56
13.33
13.69
13.23
12.71
12.8
14.14
16.9
20.57
24.21
26.98
28.57
29.26
29.64
30.31
32.07
35.12
38.76
41.7
43.0
42.61
41.37
40.47
40.78
43.25
48.11
54.73
61.96
68.86
74.95
80.0
83.72
81.5
71.6
57.18
45.04
40.03
41.21
42.67
37.47
21.62
-3.8
-32.64
-57.44
-73.36
-79.99
-80.39
-78.44
-76.63
-75.3
-73.45
-69.52
-63.22
-55.94
-49.91
-46.81
-46.69
-48.18
-49.33
-48.66
-45.52
-40.54
-35.4
-32.01
-31.4
-33.11
-35.34
-35.72
-32.57
-25.35
-15.17
-4.44
4.19
8.96
9.74
7.94
5.69
4.73
5.66
7.77
9.51
9.52
7.62
4.91
3.3
4.34
8.2
13.73
19.24
23.79
27.67
31.66
35.57
37.5
34.97
26.54
14.15
2.67
-2.71
0.28
9.17
18.22
21.92
18.73
11.91
7.24
9.08
17.61
29.18
38.95
43.83
43.78
40.79
36.54
31.46
24.69
15.35
3.74
-8.54
-19.31
-26.83
-30.39
-30.49
-28.35
-25.41
-22.88
-21.5
-21.38
-22.0
-22.4
-21.58
-19.02
-14.96
-10.27
-6.1
-3.38
-2.32
-2.52
-3.26
-4.01
-4.74
-5.78
-7.53
-10.02
-12.8
-15.08
-16.16
-15.85
-14.53
-12.92
-11.73
-11.28
-11.47
-11.97
-12.38
-12.58
-12.65
-12.81
-13.16
-13.6
-13.83
-13.54
-12.6
-11.18
-9.55
-8.0
-6.68
-5.48
-4.13
-2.38
-0.18
2.3
4.71
6.8
8.5
9.9
11.15
12.21
12.81
12.61
11.38
9.4
7.33
6.03
6.18
7.83
10.46
13.1
14.81
15.04
13.77
11.39
8.44
5.37
2.45
-0.12
-2.2
-3.6
-4.2
-4.08
-3.48
-2.84
-2.59
-3.0
-4.16
-5.95
-8.05
-10.04
-11.45
-11.87
-11.1
-9.26
-6.82
-4.44
-2.75
-2.17
-2.77
-4.32
-6.53
-9.06
-11.67
-14.18
-16.41
-18.19
-19.38
-19.98
-20.09
-20.07
-20.24
-20.8
-21.74
-22.85
-23.74
-23.89
-22.88
-20.4
-16.47
-11.4
-5.68
0.1
5.47
10.08
13.69
16.1
17.12
16.68
14.95
12.33
9.43
6.79
4.75
3.28
2.08
0.77
-0.9
-2.97
-5.21
-7.27
-8.78
-9.38
-8.83
-7.05
-4.09
-0.22
4.17
8.57
12.5
15.58
17.53
18.25
17.78
16.28
14.1
11.57
9.04
6.68
4.49
2.31
-0.02
-2.64
-5.5
-8.44
-11.18
-13.37
-14.68
-14.76
-13.32
-10.32
-5.93
-0.71
4.64
9.36
12.96
15.22
16.26
16.33
15.69
14.52
12.95
11.1
9.1
7.09
5.1
3.04
0.68
-2.18
-5.63
-9.48
-13.33
-16.59
-18.65
-19.02
-17.47
-14.14
-9.5
-4.22
0.93
5.32
8.54
10.51
11.36
11.38
10.85
10.02
9.03
7.91
6.61
5.09
3.32
1.27
-1.02
-3.58
-6.44
-9.59
-12.88
-16.0
-18.49
-19.85
-19.76
-18.14
-15.25
-11.6
-7.8
-4.35
-1.59
0.35
1.56
2.22
2.55
2.75
2.96
3.3
3.86
4.64
5.58
6.43
6.82
6.31
4.64
1.87
-1.5
-4.67
-6.81
-7.33
-6.16
-3.69
-0.6
2.41
4.84
6.51
7.47
7.89
7.91
7.56
6.79
5.61
4.16
2.67
1.38
0.39
-0.44
-1.44
-2.98
-5.18
-7.83
-10.37
-12.14
-12.59
-11.55
-9.21
-6.05
-2.62
0.61
3.38
5.62
7.36
8.64
9.42
9.63
9.17
7.98
6.09
3.6
0.73
-2.27
-5.1
-7.42
-8.86
-9.1
-7.94
-5.35
-1.48
3.34
8.7
14.15
19.29
23.76
27.3
29.75
31.13
31.54
31.14
30.08
28.52
26.59
24.38
21.98
19.41
16.67
13.75
10.7
7.68
4.94
2.69
1.05
0.06
-0.33
-0.03
1.18
3.6
7.41
12.45
18.2
23.85
28.59
31.89
33.55
33.74
32.74
30.85
28.24
25.07
21.48
17.71
13.97
10.42
7.07
3.78
0.32
-3.46
-7.54
-11.62
-15.18
-17.64
-18.55
-17.81
-15.62
-12.49
-9.04
-5.89
-3.47
-1.98
-1.39
-1.51
-2.02
-2.62
-3.11
-3.4
-3.54
-3.63
-3.77
-4.04
-4.53
-5.36
-6.71
-8.69
-11.27
-14.1
-16.57
-18.01
-17.82
-15.8
-12.14
-7.43
-2.41
2.24
6.09
8.91
10.7
11.56
11.62
11.01
9.93
8.59
7.27
6.18
5.47
5.1
4.88
4.46
3.51
1.87
-0.32
-2.59
-4.3
-4.85
-4.0
-1.87
1.01
4.05
6.73
8.82
10.28
11.19
11.58
11.39
10.62
9.32
7.77
6.37
5.5
5.41
5.95
6.72
7.1
6.56
4.85
2.14
-1.01
-3.87
-5.83
-6.56
-6.08
-4.71
-2.83
-0.74
1.41
3.55
5.58
7.28
8.37
8.57
7.79
6.21
4.25
2.42
1.04
0.19
-0.36
-0.96
-1.9
-3.21
-4.7
-6.04
-6.91
-7.12
-6.57
-5.24
-3.15
-0.38
2.89
6.35
9.59
12.2
13.9
14.58
14.27
13.09
11.2
8.79
6.07
3.32
0.77
-1.38
-3.11
-4.54
-5.9
-7.37
-9.09
-10.95
-12.63
-13.66
-13.59
-12.12
-9.27
-5.38
-1.05
3.06
6.38
8.62
9.68
9.72
8.94
7.65
6.11
4.53
3.08
1.84
0.8
-0.11
-1.03
-2.12
-3.55
-5.41
-7.56
-9.67
-11.18
-11.56
-10.47
-7.95
-4.43
-0.55
3.02
5.84
7.7
8.57
8.55
7.76
6.36
4.5
2.42
0.35
-1.45
-2.86
-3.9
-4.75
-5.79
-7.36
-9.66
-12.57
-15.62
-18.05
-19.13
-18.4
-15.83
-11.84
-7.12
-2.38
1.88
5.39
8.09
9.94
10.92
10.93
10.02
8.4
6.52
4.88
3.86
3.54
3.66
3.79
3.53
2.72
1.49
0.19
-0.79
-1.14
-0.75
0.41
2.25
4.62
7.29
9.98
12.35
14.12
15.07
15.12
14.32
12.81
10.83
8.64
6.52
4.61
2.99
1.54
0.07
-1.65
-3.76
-6.28
-9.04
-11.72
-13.9
-15.19
-15.3
-14.19
-12.02
-9.16
-6.09
-3.24
-0.99
0.41
0.86
0.4
-0.81
-2.45
-4.15
-5.58
-6.56
-7.1
-7.39
-7.64
-8.01
-8.54
-9.16
-9.77
-10.31
-10.71
-10.88
-10.68
-9.92
-8.42
-6.16
-3.31
-0.27
2.49
4.53
5.66
5.92
5.55
4.86
4.09
3.32
2.54
1.68
0.7
-0.39
-1.57
-2.85
-4.26
-5.81
-7.38
-8.73
-9.49
-9.31
-8.04
-5.75
-2.77
0.42
3.37
5.81
7.64
8.94
9.8
10.26
10.29
9.81
8.76
7.21
5.32
3.35
1.48
-0.21
-1.75
-3.31
-5.04
-6.99
-9.04
-10.88
-12.11
-12.37
-11.51
-9.69
-7.33
-4.96
-3.02
-1.68
-0.84
-0.29
0.14
0.41
0.35
-0.18
-1.16
-2.26
-3.04
-3.14
-2.53
-1.55
-0.77
-0.7
-1.51
-2.87
-4.19
-4.81
-4.36
-2.92
-0.95
0.98
2.41
3.25
3.63
3.8
3.93
3.98
3.76
3.12
2.08
0.84
-0.3
-1.14
-1.63
-1.96
-2.39
-3.12
-4.22
-5.56
-6.92
-7.99
-8.5
-8.3
-7.38
-5.85
-3.91
-1.75
0.45
2.57
4.53
6.2
7.41
7.98
7.8
6.91
5.55
4.05
2.77
1.86
1.25
0.69
-0.14
-1.43
-3.19
-5.26
-7.32
-9.09
-10.29
-10.73
-10.28
-8.89
-6.65
-3.77
-0.57
2.59
5.35
7.48
8.83
9.4
9.28
8.56
7.42
5.97
4.35
2.66
1.05
-0.35
-1.48
-2.42
-3.42
-4.77
-6.66
-8.93
-11.11
-12.52
-12.57
-11.05
-8.17
-4.48
-0.66
2.78
5.48
7.32
8.29
8.45
7.93
6.93
5.65
4.26
2.88
1.58
0.36
-0.76
-1.73
-2.53
-3.18
-3.79
-4.49
-5.34
-6.25
-6.94
-7.1
-6.44
-4.85
-2.47
0.31
3.03
5.25
6.76
7.54
7.74
7.73
7.92
8.57
9.64
10.81
11.6
11.53
10.31
7.88
4.72
1.61
-0.67
-1.74
-1.71
-1.0
-0.16
0.4
0.55
0.82
2.04
4.8
8.9
13.33
16.62
17.54
15.51
10.91
5.54
1.76
1.69
6.25
15.05
26.8
39.7
51.47
57.2
52.19
34.57
7.82
-20.49
-42.32
-52.18
-48.44
-33.66
-13.47
5.79
18.81
22.77
17.58
5.35
-10.58
-26.74
-40.83
-51.58
-57.98
-58.98
-53.34
-40.63
-22.25
-1.94
16.48
29.07
33.58
30.42
21.91
11.25
0.92
-8.04
-15.73
-22.47
-28.3
-32.68
-33.4
-30.24
-23.89
-15.89
-8.29
-2.95
-0.91
-2.28
-6.16
-10.96
-15.47
-18.76
-20.67
-21.59
-22.06
-22.42
-22.65
-22.83
-22.24
-20.64
-17.97
-14.42
-10.3
-6.04
-1.92
1.79
5.04
7.86
10.18
11.98
13.25
13.92
13.94
13.38
12.39
11.19
10.07
9.14
8.45
7.9
7.33
6.58
5.64
4.7
4.1
4.22
5.26
7.07
9.2
11.02
12.03
12.08
11.35
10.2
8.85
7.24
5.06
2.04
-1.86
-6.33
-10.86
-14.93
-18.25
-20.79
-22.74
-24.37
-25.94
-27.54
-29.09
-30.31
-30.8
-30.21
-28.34
-25.32
-21.52
-17.4
-13.41
-9.78
-6.59
-3.81
-1.45
0.45
1.86
2.79
3.41
3.96
4.65
5.51
6.39
6.99
6.99
6.17
4.51
2.13
-0.7
-3.67
-6.38
-8.42
-9.34
-8.79
-6.62
-3.0
1.53
6.19
10.23
13.17
14.97
15.94
16.49
16.94
17.39
17.67
17.59
17.05
16.07
14.78
13.25
11.46
9.32
6.72
3.65
0.25
-3.22
-6.46
-9.19
-11.29
-12.75
-13.66
-14.08
-14.0
-13.31
-11.89
-9.81
-7.4
-5.14
-3.56
-2.96
-3.29
-4.13
-4.85
-4.92
-4.08
-2.41
-0.31
1.66
3.03
3.59
3.46
3.04
2.8
3.15
4.21
5.83
7.74
9.68
11.51
13.18
14.61
15.6
15.82
14.97
12.99
10.19
7.19
4.68
3.11
2.48
2.37
2.15
1.32
-0.28
-2.38
-4.44
-5.89
-6.31
-5.6
-3.89
-1.54
1.07
3.58
5.79
7.55
8.83
9.51
9.47
8.53
6.66
3.97
0.83
-2.22
-4.69
-6.32
-7.18
-7.61
-8.05
-8.81
-9.96
-11.3
-12.5
-13.2
-13.1
-12.07
-10.05
-7.14
-3.5
0.56
4.69
8.44
11.44
13.41
14.25
14.04
13.01
11.42
9.53
7.55
5.57
3.65
1.83
0.19
-1.22
-2.41
-3.48
-4.56
-5.64
-6.5
-6.65
-5.49
-2.66
1.79
7.24
12.8
17.6
21.1
23.21
24.13
24.09
23.16
21.33
18.61
15.28
11.81
8.72
6.36
4.67
3.21
1.41
-1.18
-4.67
-8.72
-12.66
-15.77
-17.46
-17.48
-15.96
-13.32
-10.1
-6.8
-3.74
-1.05
1.21
3.03
4.4
5.25
5.57
5.46
5.13
4.84
4.8
5.06
5.51
5.85
5.74
4.88
3.22
0.94
-1.52
-3.62
-4.87
-4.99
-3.98
-2.09
0.3
2.81
5.17
7.2
8.79
9.78
10.01
9.34
7.79
5.64
3.33
1.37
0.1
-0.4
-0.41
-0.37
-0.72
-1.74
-3.41
-5.48
-7.54
-9.17
-10.02
-9.86
-8.66
-6.5
-3.65
-0.48
2.59
5.09
6.66
7.12
6.52
5.1
3.27
1.4
-0.27
-1.67
-2.88
-4.03
-5.21
-6.4
-7.57
-8.71
-9.85
-11.04
-12.19
-13.05
-13.22
-12.27
-9.98
-6.39
-1.86
3.0
7.54
11.27
13.95
15.53
16.1
15.8
14.84
13.45
11.82
10.03
8.19
6.41
4.8
3.38
2.11
0.95
-0.17
-1.33
-2.43
-3.12
-2.87
-1.21
1.98
6.33
11.57
17.15
22.31
26.33
28.82
29.93
30.14
29.94
29.72
30.53
32.96
36.67
40.62
43.75
45.57
46.12
45.81
45.22
46.31
50.33
57.04
64.94
72.39
78.55
83.35
87.12
90.4
95.74
105.17
118.99
135.37
151.07
162.32
165.3
157.01
125.61
68.82
-3.72
-75.03
-131.43
-168.24
-187.51
-193.29
-188.86
-176.47
-156.7
-131.72
-106.02
-84.89
-71.75
-66.66
-67.12
-69.8
-72.04
-71.05
-65.69
-56.58
-45.64
-34.95
-25.96
-19.58
-16.3
-16.17
-17.87
-19.93
-21.47
-22.42
-23.04
-23.59
-24.17
-24.8
-25.29
-24.82
-22.6
-18.3
-12.31
-5.57
0.77
5.64
8.22
8.11
5.74
2.19
-0.79
-1.0
3.67
14.31
30.06
47.65
62.27
69.36
66.47
54.26
36.23
17.04
0.72
-10.66
-17.15
-20.04
-20.78
-20.28
-18.88
-16.79
-14.44
-12.6
-12.05
-13.18
-15.62
-18.49
-20.8
-21.88
-21.6
-20.39
-19.01
-18.03
-17.84
-18.44
-19.58
-20.89
-22.04
-22.82
-23.16
-23.14
-22.86
-22.41
-21.83
-21.05
-20.07
-18.82
-17.21
-15.28
-12.92
-10.18
-7.24
-4.31
-1.6
0.81
2.96
4.97
6.92
8.81
10.48
11.74
12.41
12.42
11.83
10.85
9.76
8.84
8.27
8.12
8.29
8.61
8.97
9.3
9.61
9.86
9.91
9.6
8.73
7.28
5.45
3.56
1.96
0.86
0.2
-0.19
-0.57
-1.09
-1.81
-2.66
-3.54
-4.36
-5.02
-5.37
-5.26
-4.5
-3.06
-1.1
1.08
3.01
4.31
4.75
4.3
3.09
1.3
-0.88
-3.29
-5.79
-8.2
-10.32
-11.98
-13.1
-13.69
-13.92
-13.96
-13.95
-14.05
-14.34
-14.85
-15.42
-15.76
-15.38
-13.78
-10.62
-5.95
-0.21
5.89
11.58
16.3
19.77
21.96
22.96
22.87
21.83
19.95
17.47
14.72
12.04
9.7
7.78
6.17
4.64
2.88
0.7
-1.92
-4.74
-7.28
-9.04
-9.55
-8.62
-6.4
-3.3
0.14
3.49
6.53
9.26
11.77
14.08
16.02
17.29
17.56
16.66
14.65
11.82
8.52
5.08
1.64
-1.73
-5.06
-8.34
-11.53
-14.56
-17.34
-19.77
-21.73
-23.02
-23.42
-22.77
-21.01
-18.32
-15.0
-11.5
-8.24
-5.53
-3.56
-2.32
-1.73
-1.7
-2.1
-2.78
-3.57
-4.29
-4.83
-5.21
-5.58
-6.1
-6.85
-7.74
-8.48
-8.68
-8.03
-6.41
-3.86
-0.44
3.78
8.74
14.33
20.37
26.59
32.57
37.78
41.75
44.28
45.47
45.67
45.37
45.13
45.49
46.65
48.36
50.18
51.72
52.75
53.13
52.87
52.08
51.06
49.71
47.59
44.15
39.26
33.28
26.94
21.05
16.28
13.25
11.86
11.42
10.82
8.78
3.76
-6.1
-22.53
-46.74
-75.6
-102.38
-120.47
-127.29
-124.48
-115.77
-104.8
-93.86
-83.73
-74.21
-65.8
-59.64
-56.76
-56.72
-57.15
-54.48
-45.53
-29.01
-5.96
19.65
42.85
59.5
67.6
67.34
60.41
49.28
37.01
27.94
24.71
29.27
41.7
59.84
79.59
96.15
105.51
103.98
92.82
74.69
52.88
30.41
9.61
-7.93
-21.34
-30.46
-35.72
-37.75
-37.79
-36.9
-35.94
-35.41
-35.5
-36.07
-36.83
-37.37
-37.25
-36.55
-35.54
-34.61
-34.06
-34.05
-34.41
-34.72
-34.47
-33.09
-30.52
-26.96
-23.16
-19.44
-16.12
-13.28
-10.76
-8.33
-5.8
-3.22
-0.74
1.51
3.56
5.49
7.37
9.15
10.63
11.59
11.8
11.3
10.31
9.25
8.48
8.2
8.46
9.15
10.02
10.89
11.59
11.99
12.03
11.63
10.77
9.46
7.77
5.79
3.62
1.4
-0.77
-2.79
-4.57
-6.02
-7.13
-7.93
-8.53
-9.02
-9.51
-10.14
-10.97
-12.02
-13.24
-14.43
-15.31
-15.49
-14.61
-12.48
-9.19
-5.08
-0.7
3.41
6.81
9.26
10.67
11.15
10.88
10.01
8.68
6.98
5.04
2.98
0.99
-0.79
-2.15
-2.98
-3.41
-3.85
-4.69
-6.07
-7.75
-9.15
-9.57
-8.23
-4.72
0.67
7.01
13.09
17.96
21.21
22.92
23.54
24.06
25.35
27.69
30.57
33.05
34.38
34.27
32.89
30.69
28.78
28.36
30.3
34.81
41.65
50.27
59.46
67.02
66.94
54.45
29.36
-2.71
-33.93
-58.3
-73.34
-79.77
-80.12
-77.24
-72.76
-67.32
-61.34
-56.0
-52.54
-51.17
-50.56
-48.38
-42.13
-29.77
-10.79
13.62
40.64
66.16
86.22
97.84
99.75
92.68
79.42
61.86
44.69
30.22
18.33
7.61
-3.24
-14.57
-25.67
-35.28
-42.48
-46.88
-49.06
-49.78
-49.43
-48.05
-45.82
-43.55
-41.35
-39.54
-37.89
-36.18
-33.86
-30.28
-25.06
-18.35
-10.89
-3.69
2.1
5.84
7.25
6.55
4.34
1.29
-2.07
-5.47
-8.74
-11.85
-14.65
-17.05
-18.95
-20.31
-21.18
-21.72
-22.14
-22.6
-23.19
-23.89
-24.55
-24.75
-23.93
-21.65
-17.76
-12.42
-6.05
0.84
7.74
14.15
19.5
23.19
24.68
23.76
20.74
16.4
11.77
7.69
4.62
2.44
0.7
-1.18
-3.68
-6.99
-11.1
-15.73
-20.42
-24.55
-27.44
-28.5
-27.36
-24.03
-18.89
-12.68
-6.21
-0.29
4.55
8.04
10.21
11.22
11.35
10.87
10.06
9.1
8.07
6.96
5.69
4.16
2.3
0.01
-2.77
-6.05
-9.7
-13.37
-16.43
-18.12
-17.81
-15.24
-10.63
-4.69
1.73
7.87
13.26
17.69
21.12
23.49
24.73
24.75
23.58
21.47
18.78
15.92
13.2
10.73
8.4
5.92
2.94
-0.8
-5.35
-10.44
-15.53
-19.86
-22.69
-23.51
-22.18
-18.95
-14.26
-8.63
-2.54
3.58
9.23
13.81
16.73
17.63
16.58
14.11
11.07
8.25
6.1
4.62
3.55
2.55
1.44
0.18
-1.19
-2.65
-4.22
-5.89
-7.47
-8.63
-9.01
-8.3
-6.48
-3.75
-0.48
2.91
6.08
8.83
11.02
12.65
13.74
14.35
14.56
14.45
14.05
13.45
12.7
11.88
11.02
10.07
8.88
7.26
5.06
2.29
-0.77
-3.67
-5.86
-6.9
-6.54
-4.86
-2.12
1.27
4.87
8.28
11.13
13.1
14.06
14.08
13.46
12.66
12.17
12.3
13.11
14.36
15.66
16.54
16.67
15.9
14.32
12.29
10.39
9.27
9.43
10.96
13.48
16.23
18.49
19.98
21.09
22.68
25.65
30.3
36.06
41.62
45.45
46.57
44.99
41.74
38.41
36.4
36.42
38.29
41.22
44.23
46.6
48.0
48.5
48.29
47.58
46.49
45.07
43.36
41.44
39.4
37.26
34.93
32.16
28.59
23.85
17.71
10.19
1.54
-7.79
-17.36
-26.79
-35.82
-44.27
-52.01
-58.99
-65.31
-71.21
-76.93
-82.48
-87.48
-91.11
-92.42
-90.68
-85.71
-77.99
-68.48
-58.3
-48.35
-39.2
-31.11
-24.26
-18.82
-14.92
-12.61
-11.64
-11.52
-11.57
-11.21
-10.18
-8.61
-6.97
-5.88
-5.82
-6.99
-9.09
-11.4
-12.94
-12.73
-10.12
-5.05
1.86
9.59
17.0
23.29
28.2
31.93
34.85
37.16
38.8
39.49
39.06
37.6
35.51
33.27
31.26
29.49
27.73
25.61
22.78
19.0
14.17
8.33
1.7
-5.21
-11.66
-16.76
-19.79
-20.43
-18.86
-15.69
-11.8
-8.05
-5.1
-3.38
-3.04
-4.07
-6.29
-9.34
-12.74
-16.01
-18.72
-20.75
-22.26
-23.67
-25.55
-28.32
-32.13
-36.85
-42.02
-46.99
-51.09
-53.72
-54.46
-53.18
-50.01
-45.36
-39.82
-33.92
-28.11
-22.6
-17.52
-12.98
-9.16
-6.28
-4.54
-3.99
-4.45
-5.52
-6.72
-7.61
-7.98
-7.93
-7.79
-7.92
-8.48
-9.22
-9.58
-8.85
-6.53
-2.55
2.7
8.56
14.41
19.88
24.91
29.52
33.64
36.96
39.03
39.48
38.28
35.83
32.78
29.8
27.23
24.91
22.35
18.96
14.47
9.13
3.63
-1.13
-4.35
-5.68
-5.19
-3.26
-0.38
3.01
6.53
9.84
12.62
14.52
15.24
14.61
12.67
9.66
5.97
2.07
-1.65
-4.95
-7.75
-10.16
-12.32
-14.36
-16.33
-18.13
-19.55
-20.29
-20.0
-18.34
-15.07
-10.17
-3.86
3.38
10.88
17.92
23.87
28.24
30.85
31.76
31.28
29.85
27.94
25.88
23.85
21.88
19.96
18.13
16.45
14.96
13.55
12.01
10.09
7.71
5.09
2.79
1.46
1.61
3.32
6.24
9.71
13.07
15.88
17.98
19.4
20.19
20.31
19.61
18.01
15.68
13.01
10.65
9.17
8.74
9.05
9.44
9.22
7.96
5.66
2.8
0.31
-0.86
-0.14
2.41
6.23
10.46
14.34
17.41
19.59
21.37
23.14
24.82
25.85
25.63
23.94
21.16
18.14
15.74
15.33
17.42
21.28
25.21
27.46
27.22
24.79
21.31
18.24
18.65
24.57
35.95
50.54
65.31
78.03
87.83
95.01
100.44
107.81
119.66
135.69
152.76
167.03
176.32
180.64
181.51
180.85
183.94
194.44
212.65
235.52
259.04
280.24
297.15
307.78
286.75
220.04
113.23
-8.58
-117.36
-197.37
-247.67
-275.98
-291.95
-302.35
-305.93
-299.3
-281.62
-256.94
-232.09
-212.71
-200.48
-193.35
-186.97
-174.81
-153.57
-125.21
-95.91
-71.96
-57.16
-51.6
-52.71
-56.94
-59.5
-57.39
-50.59
-41.93
-34.64
-31.19
-32.15
-36.47
-42.21
-46.65
-48.01
-46.32
-43.14
-40.4
-39.31
-39.81
-40.97
-41.68
-41.45
-40.01
-37.84
-35.98
-34.93
-34.47
-33.59
-31.0
-25.88
-18.29
-9.2
-0.2
7.18
11.96
13.91
13.52
11.66
9.23
7.0
5.51
4.97
5.24
5.75
5.51
3.43
-1.18
-8.18
-16.47
-24.33
-30.16
-32.56
-31.23
-27.11
-21.88
-17.07
-13.5
-11.04
-9.01
-6.72
-3.96
-1.18
0.77
1.1
-0.56
-3.95
-8.36
-12.8
-16.34
-18.46
-19.19
-19.04
-18.65
-18.42
-18.27
-17.71
-15.99
-12.54
-7.3
-0.97
5.36
10.58
14.07
15.91
16.81
17.84
20.12
24.38
30.79
39.14
48.95
59.59
70.1
79.11
85.17
87.33
85.55
81.04
76.09
73.19
73.63
76.5
78.73
76.47
67.2
50.83
29.81
7.92
-11.52
-27.08
-39.48
-50.49
-62.25
-74.26
-84.35
-90.36
-92.15
-91.66
-91.49
-93.24
-96.77
-100.99
-103.62
-103.15
-99.32
-93.03
-85.55
-77.95
-70.64
-63.34
-55.75
-47.46
-38.45
-29.12
-20.04
-11.65
-4.07
2.85
9.4
15.8
22.27
28.67
34.61
39.58
43.2
45.32
46.09
45.8
44.83
43.53
42.07
40.45
38.56
36.36
33.87
31.18
28.31
25.15
21.63
17.76
13.76
10.12
7.37
5.84
5.52
5.9
6.27
6.05
4.95
3.18
1.18
-0.52
-1.58
-1.89
-1.54
-0.69
0.56
2.22
4.31
6.73
9.22
11.31
12.47
12.36
10.93
8.54
5.8
3.33
1.53
0.47
0.01
-0.08
0.07
0.44
1.11
2.1
3.37
4.76
6.11
7.33
8.38
9.35
10.34
11.44
12.64
13.84
14.82
15.34
15.21
14.36
12.9
11.07
9.17
7.5
6.29
