2013-06-12 17:26:25
64.0
-0.0
-0.0
-0.0
-0.0
-0.0
-0.0
-0.0
-0.0
-0.0
-0.0
0.0
0.01
0.01
-0.0
-0.03
-0.05
-0.05
0.0
0.13
0.36
0.66
1.01
1.37
1.72
2.06
2.4
2.79
3.24
3.8
4.42
5.06
5.66
6.2
6.68
7.15
7.68
8.31
9.14
10.09
11.04
11.88
12.56
13.14
13.76
14.65
15.96
17.91
20.32
22.9
25.38
27.58
29.57
31.68
34.32
37.81
42.54
48.15
54.1
59.83
64.97
69.58
74.14
79.34
85.71
93.76
103.0
112.62
121.73
129.77
136.75
143.3
150.75
157.77
166.64
177.95
191.79
206.97
220.57
228.25
225.36
208.53
176.87
132.76
80.05
23.07
-34.94
-92.44
-149.16
-205.23
-260.37
-313.74
-363.87
-409.83
-450.91
-486.5
-515.74
-537.23
-549.22
-549.96
-538.37
-514.21
-478.67
-433.88
-382.45
-327.02
-269.84
-212.63
-156.66
-102.95
-52.37
-5.9
35.58
71.43
101.35
125.5
144.38
158.69
169.15
176.37
180.75
182.57
182.07
179.51
175.23
169.65
163.18
156.15
148.81
141.3
133.69
126.02
118.33
110.69
103.16
95.8
88.68
81.83
75.25
68.95
62.95
57.25
51.86
46.78
42.03
37.59
33.45
29.61
26.07
22.81
19.83
17.11
14.67
12.48
10.54
8.83
7.35
6.07
4.97
4.05
3.27
2.62
2.09
1.65
1.3
1.01
0.79
0.61
0.47
0.37
0.28
0.22
0.18
0.15
0.13
0.12
0.12
0.12
0.13
0.15
0.18
0.21
0.25
0.29
0.33
0.38
0.42
0.46
0.51
0.56
0.61
0.67
0.75
0.83
0.9
0.95
0.96
0.95
0.93
0.93
0.98
1.09
1.25
1.45
1.63
1.79
1.92
2.05
2.21
2.45
2.78
3.18
3.61
4.0
4.33
4.58
4.82
5.15
5.63
6.31
7.12
7.95
8.62
9.05
9.24
9.35
9.6
10.21
11.23
12.57
13.9
14.88
15.24
14.91
14.09
13.08
12.16
11.38
10.43
8.78
5.82
1.23
-4.94
-12.09
-19.38
-26.07
-31.67
-36.18
-39.94
-43.42
-47.04
-51.2
-56.17
-61.87
-67.52
-71.5
-71.61
-66.03
-54.2
-37.51
-18.99
-2.29
9.76
16.06
17.37
15.65
12.98
10.74
9.43
8.92
8.98
9.61
10.95
13.03
15.55
17.91
19.4
19.46
18.09
15.89
13.86
12.84
13.03
13.85
14.29
13.46
11.07
7.62
3.96
0.98
-1.11
-2.72
-4.69
-7.71
-11.98
-17.04
-22.02
-25.98
-28.13
-28.18
-26.37
-23.35
-20.02
-17.33
-16.01
-16.38
-19.05
-23.69
-29.22
-34.08
-36.6
-35.46
-30.01
-20.43
-7.61
7.09
22.55
37.95
53.0
67.82
82.61
97.39
111.83
125.4
137.77
149.21
160.33
171.68
183.11
193.48
200.97
203.77
200.73
191.6
176.67
156.06
129.39
96.11
56.33
11.5
-35.46
-80.91
-121.56
-155.38
-181.84
-201.5
-215.3
-223.95
-227.76
-226.64
-220.4
-209.13
-193.51
-175.08
-156.15
-139.24
-126.21
-117.46
-111.73
-106.48
-99.09
-87.88
-72.79
-55.21
-37.26
-20.93
-7.52
2.55
9.41
13.51
15.42
15.66
14.78
13.3
11.64
10.09
8.71
7.29
5.38
2.42
-2.07
-8.31
-16.1
-24.87
-33.86
-42.41
-50.2
-57.34
-64.19
-71.04
-77.87
-84.16
-89.07
-91.77
-91.82
-89.3
-84.77
-78.93
-72.2
-64.52
-55.34
-43.85
-29.41
-11.84
8.42
30.33
52.49
73.42
91.79
106.69
117.78
125.43
130.48
134.02
136.89
139.44
141.66
143.57
145.68
149.14
155.32
164.96
177.47
190.83
202.24
209.21
210.57
206.88
200.0
192.26
185.28
179.38
173.31
164.71
150.92
129.92
101.24
66.32
28.28
-8.89
-41.4
-66.76
-84.2
-94.67
-100.17
-102.99
-104.93
-106.9
-108.86
-110.12
-109.84
-107.4
-102.59
-95.51
-86.31
-75.06
-61.79
-46.76
-30.72
-15.0
-1.28
8.88
14.46
15.21
11.53
4.21
-5.89
-17.92
-30.95
-43.73
-54.72
-62.28
-65.11
-62.53
-54.49
-41.38
-23.79
-2.48
21.43
46.38
70.49
92.15
110.48
125.52
137.88
147.84
154.64
156.18
149.51
131.76
100.98
56.83
0.81
-63.64
-131.2
-195.11
-248.26
-284.61
-300.75
-296.6
-274.92
-239.77
-195.05
-143.7
-88.24
-31.82
21.12
65.44
96.88
113.71
117.42
112.07
102.6
93.22
86.45
83.17
83.09
85.31
88.59
91.46
92.57
91.03
86.77
80.55
73.53
66.68
60.42
54.67
49.07
43.45
37.88
32.55
27.61
23.09
18.94
15.25
12.34
10.63
10.47
11.8
14.15
16.68
18.55
19.21
18.54
16.77
14.32
11.53
8.57
5.52
2.38
-0.82
-4.05
-7.29
-10.54
-13.78
-16.87
-19.52
-21.3
-21.79
-20.71
-18.14
-14.51
-10.55
-7.03
-4.51
-3.25
-3.04
-3.27
-3.07
-1.61
1.56
6.22
11.39
15.49
16.87
14.34
7.55
-2.87
-15.5
-28.6
-40.54
-50.18
-57.1
-61.67
-64.81
-67.79
-71.78
-77.47
-84.89
-93.38
-101.92
-109.53
-115.6
-119.95
-122.64
-123.69
-122.89
-119.93
-114.64
-107.23
-98.46
-89.3
-80.57
-72.61
-65.07
-57.33
-48.91
-39.9
-30.93
-22.92
-16.51
-11.71
-7.9
-4.12
0.37
5.79
11.71
17.37
21.94
24.93
26.32
26.44
25.96
25.7
26.53
29.21
34.08
40.85
48.63
56.06
61.73
64.57
63.99
59.97
52.91
43.52
32.76
21.89
12.27
5.21
1.64
1.9
5.65
12.05
20.03
28.52
36.62
43.67
49.22
53.05
55.08
55.39
54.15
51.57
47.9
43.38
38.26
32.77
27.15
21.61
16.26
11.24
6.56
2.19
-1.94
-5.84
-9.44
-12.52
-14.74
-15.81
-15.56
-14.09
-11.69
-8.82
-5.86
-3.04
-0.5
1.78
3.74
5.32
6.35
6.75
6.46
5.61
4.43
3.14
1.94
0.86
-0.15
-1.23
-2.48
-3.93
-5.49
-6.99
-8.21
-8.94
-9.05
-8.51
-7.51
-6.36
-5.49
-5.24
-5.71
-6.82
-8.25
-9.72
-11.05
-12.27
-13.46
-14.77
-16.23
-17.87
-19.65
-21.56
-23.53
-25.44
-26.97
-27.73
-27.29
-25.37
-21.95
-17.34
-12.05
-6.73
-1.88
2.17
5.29
7.56
9.1
10.03
10.37
10.2
9.63
8.85
8.08
7.52
7.25
7.24
7.36
7.45
7.37
7.0
6.31
5.34
4.16
2.91
1.72
0.68
-0.23
-1.07
-1.97
-2.99
-4.1
-5.24
-6.31
-7.29
-8.24
-9.28
-10.56
-12.19
-14.22
-16.63
-19.3
-22.11
-24.83
-27.2
-28.87
-29.46
-28.62
-26.21
-22.4
-17.67
-12.65
-7.89
-3.72
-0.17
2.9
5.66
8.07
9.96
11.14
11.55
11.36
10.89
10.45
10.27
10.37
10.68
11.08
11.46
11.75
11.86
11.73
11.33
10.73
10.05
9.44
8.99
8.72
8.51
8.25
7.85
7.3
6.65
6.0
5.46
5.06
4.84
4.81
4.92
5.07
5.07
4.75
3.99
2.96
2.09
2.01
3.34
6.44
11.2
17.09
23.29
28.93
33.33
36.04
36.86
35.79
33.01
28.85
23.82
18.53
13.62
9.56
6.69
5.01
4.34
4.26
4.29
3.97
2.9
0.97
-1.72
-4.84
-8.01
-10.84
-13.13
-14.85
-16.14
-17.16
-18.01
-18.69
-19.09
-19.09
-18.67
-17.92
-17.0
-16.12
-15.43
-15.03
-15.0
-15.42
-16.4
-17.97
-20.01
-22.3
-24.46
-26.08
-26.81
-26.49
-25.1
-22.77
-19.74
-16.32
-12.83
-9.51
-6.54
-3.95
-1.73
0.19
1.82
3.13
4.12
4.84
5.4
5.97
6.63
7.32
7.85
8.05
7.79
7.13
6.23
5.33
4.52
3.76
2.88
1.7
0.08
-2.01
-4.46
-7.21
-10.13
-13.11
-16.04
-18.75
-21.06
-22.85
-24.12
-24.99
-25.73
-26.6
-27.81
-29.38
-31.12
-32.62
-33.42
-33.09
-31.41
-28.44
-24.45
-19.85
-15.01
-10.19
-5.53
-1.1
3.03
6.77
9.94
12.38
13.98
14.75
14.82
14.37
13.69
12.99
12.45
12.11
11.91
11.72
11.43
10.94
10.26
9.42
8.42
7.24
5.84
4.15
2.19
0.04
-2.19
-4.43
-6.64
-8.81
-10.92
-12.98
-15.01
-17.06
-19.2
-21.35
-23.3
-24.68
-25.04
-24.0
-21.41
-17.41
-12.34
-6.69
-0.9
4.63
9.68
14.11
17.85
20.84
22.97
24.12
24.26
23.47
22.0
20.22
18.45
16.81
15.26
13.65
11.86
9.96
8.17
6.81
6.06
5.9
6.05
6.07
5.58
4.38
2.53
0.27
-2.11
-4.44
-6.74
-9.16
-11.87
-14.92
-18.21
-21.48
-24.42
-26.73
-28.13
-28.34
-27.21
-24.68
-20.91
-16.3
-11.33
-6.51
-2.1
1.82
5.35
8.58
11.47
13.81
15.36
15.97
15.72
14.91
13.88
12.9
12.04
11.21
10.19
8.83
7.14
5.23
3.26
1.36
-0.4
-2.04
-3.55
-4.96
-6.25
-7.43
-8.56
-9.68
-10.86
-12.1
-13.38
-14.6
-15.7
-16.66
-17.51
-18.35
-19.29
-20.36
-21.47
-22.33
-22.53
-21.59
-19.24
-15.43
-10.45
-4.86
0.72
5.69
9.75
12.77
14.85
16.18
17.0
17.49
17.81
18.06
18.26
18.4
18.34
17.94
17.09
15.79
14.16
12.43
10.82
9.48
8.36
7.31
6.08
4.48
2.5
0.33
-1.75
-3.42
-4.57
-5.25
-5.78
-6.51
-7.79
-9.81
-12.54
-15.72
-18.89
-21.49
-23.01
-23.06
-21.52
-18.55
-14.49
-9.81
-4.97
-0.34
3.78
7.18
9.78
11.57
12.66
13.19
13.33
13.22
12.95
12.56
12.1
11.63
11.2
10.9
10.79
10.87
11.04
11.05
10.62
9.52
7.74
5.48
3.13
1.1
-0.37
-1.3
-1.93
-2.64
-3.75
-5.43
-7.69
-10.44
-13.53
-16.83
-20.18
-23.26
-25.55
-26.49
-25.64
-22.93
-18.74
-13.79
-8.83
-4.39
-0.56
2.83
6.1
9.37
12.52
15.28
17.33
18.55
18.97
18.79
18.27
17.65
17.09
16.64
16.27
15.87
15.34
14.62
13.76
12.84
11.98
11.25
10.61
9.94
9.06
7.83
6.16
4.04
1.52
-1.29
-4.26
-7.21
-9.99
-12.52
-14.84
-17.12
-19.57
-22.36
-25.49
-28.64
-31.29
-32.72
-32.4
-30.07
-25.94
-20.58
-14.68
-8.9
-3.57
1.14
5.27
8.84
11.8
14.12
15.76
16.76
17.28
17.48
17.5
17.44
17.39
17.36
17.37
17.42
17.52
17.67
17.84
18.01
18.03
17.73
16.94
15.56
13.68
11.52
9.38
7.48
5.84
4.3
2.55
0.36
-2.34
-5.39
-8.46
-11.24
-13.55
-15.4
-17.05
-18.83
-20.97
-23.45
-25.94
-27.84
-28.5
-27.48
-24.71
-20.52
-15.49
-10.21
-5.05
-0.19
4.32
8.46
12.12
15.22
17.75
19.82
21.59
23.16
24.48
25.37
25.63
25.14
23.96
22.29
20.44
18.68
17.21
16.07
15.18
14.34
13.36
12.1
10.52
8.62
6.42
3.92
1.1
-1.9
-4.89
-7.63
-9.93
-11.8
-13.41
-15.03
-16.87
-19.06
-21.58
-24.28
-26.94
-29.2
-30.61
-30.66
-29.0
-25.54
-20.59
-14.76
-8.78
-3.22
1.61
5.68
9.11
12.04
14.49
16.39
17.63
18.2
18.17
17.77
17.25
16.81
16.52
16.29
16.01
15.59
15.05
14.46
13.93
13.4
12.72
11.64
9.99
7.8
5.28
2.77
0.51
-1.37
-3.0
-4.59
-6.41
-8.69
-11.53
-14.91
-18.63
-22.32
-25.36
-27.09
-26.92
-24.58
-20.24
-14.48
-8.12
-1.96
3.49
8.03
11.74
14.78
17.31
19.32
20.77
21.6
21.82
21.51
20.8
19.84
18.72
17.45
16.08
14.63
13.17
11.78
10.48
9.23
7.83
6.11
3.91
1.2
-1.82
-4.88
-7.65
-9.99
-11.94
-13.71
-15.63
-17.99
-20.95
-24.42
-28.05
-31.28
-33.42
-33.85
-32.22
-28.55
-23.3
-17.14
-10.81
-4.82
0.54
5.26
9.37
12.9
15.79
17.95
19.38
20.14
20.35
20.14
19.56
18.68
17.55
16.31
15.12
14.15
13.44
12.9
12.33
11.49
10.15
8.24
5.86
3.22
0.6
-1.77
-3.83
-5.72
-7.73
-10.22
-13.47
-17.6
-22.45
-27.54
-32.11
-35.26
-36.17
-34.37
-29.9
-23.29
-15.44
-7.25
0.48
7.27
12.9
17.27
20.39
22.27
23.02
22.82
21.93
20.62
19.11
17.58
16.14
14.84
13.76
12.92
12.36
12.02
11.78
11.44
10.72
9.41
7.39
4.72
1.61
-1.63
-4.74
-7.59
-10.17
-12.65
-15.25
-18.22
-21.67
-25.51
-29.32
-32.4
-33.91
-33.21
-30.04
-24.65
-17.74
-10.2
-2.82
3.87
9.69
14.61
18.68
21.89
24.22
25.67
26.35
26.48
26.28
25.94
25.54
25.02
24.33
23.42
22.35
21.25
20.22
19.23
18.08
16.44
14.05
10.79
6.89
2.74
-1.17
-4.53
-7.34
-9.83
-12.37
-15.28
-18.72
-22.72
-27.2
-32.01
-36.89
-41.36
-44.77
-46.39
-45.74
-42.76
-37.89
-31.98
-25.93
-20.43
-15.81
-12.09
-9.2
-7.14
-6.0
-5.93
-7.01
-9.14
-12.06
-15.46
-19.11
-22.87
-26.73
-30.65
-34.59
-38.44
-42.13
-45.75
-49.57
-53.9
-59.0
-64.93
-71.47
-78.16
-84.45
-89.76
-93.68
-95.99
-96.73
-96.28
-95.22
-94.15
-93.39
-92.75
-91.35
-87.84
-80.72
-68.88
-51.97
-30.57
-6.1
19.55
44.52
67.43
87.67
105.37
121.14
135.64
149.22
161.8
172.88
181.79
187.83
190.45
189.33
184.51
176.42
165.92
154.18
142.37
131.34
121.43
112.41
103.71
94.74
85.13
74.82
64.05
53.18
42.58
32.54
23.22
14.72
7.02
0.11
-5.93
-10.9
-14.48
-16.34
-16.34
-14.58
-11.42
-7.4
-3.07
1.13
4.99
8.44
11.55
14.41
16.96
19.08
20.53
21.11
20.72
19.4
17.36
14.88
12.2
9.45
6.71
4.0
1.35
-1.14
-3.43
-5.5
-7.4
-9.16
-10.86
-12.54
-14.27
-16.12
-18.13
-20.29
-22.46
-24.47
-26.22
-27.68
-29.02
-30.46
-32.21
-34.44
-37.2
-40.44
-43.95
-47.33
-49.94
-51.03
-49.97
-46.47
-40.75
-33.45
-25.42
-17.43
-10.0
-3.41
2.25
6.89
10.44
12.87
14.26
14.86
15.02
15.06
15.2
15.48
15.74
15.78
15.39
14.45
13.0
11.25
9.41
7.68
6.1
4.61
3.09
1.48
-0.21
-1.86
-3.38
-4.77
-6.1
-7.48
-9.02
-10.77
-12.81
-15.21
-18.11
-21.65
-25.86
-30.54
-35.2
-39.11
-41.45
-41.55
-39.09
-34.2
-27.42
-19.55
-11.4
-3.64
3.26
9.04
13.56
16.78
18.75
19.59
19.53
18.85
17.84
16.77
15.84
15.21
14.96
15.1
15.56
16.19
16.79
17.18
17.24
16.93
16.23
15.16
13.73
11.92
9.79
7.44
5.08
2.92
1.15
-0.16
-1.16
-2.08
-3.25
-4.89
-7.04
-9.6
-12.35
-15.05
-17.58
-19.94
-22.24
-24.66
-27.39
-30.48
-33.82
-36.98
-39.31
-40.06
-38.7
-35.07
-29.58
-22.94
-15.98
-9.31
-3.22
2.25
7.15
11.43
14.94
17.57
19.31
20.35
20.97
21.4
21.71
21.8
21.53
20.76
19.54
18.02
16.43
14.91
13.53
12.26
11.01
9.74
8.46
7.23
6.14
5.18
4.24
3.2
1.91
0.29
-1.66
-3.88
-6.25
-8.62
-10.9
-13.05
-15.14
-17.32
-19.8
-22.71
-26.01
-29.47
-32.62
-34.9
-35.79
-34.88
-32.03
-27.39
-21.34
-14.47
-7.51
-1.09
4.34
8.6
11.75
14.03
15.71
16.99
17.92
18.48
18.58
18.18
17.27
15.98
14.45
12.82
11.2
9.61
8.03
6.44
4.82
3.17
1.47
-0.36
-2.45
-4.9
-7.75
-10.94
-14.23
-17.44
-20.48
-23.39
-26.39
-29.7
-33.43
-37.55
-41.87
-46.21
-50.51
-54.94
-59.81
-65.43
-71.96
-79.24
-86.78
-93.78
-99.34
-102.71
-103.45
-101.55
-97.47
-91.97
-85.89
-79.96
-74.66
-70.17
-66.45
-63.36
-60.8
-58.73
-57.08
-55.72
-54.35
-52.55
-49.96
-46.33
-41.67
-36.23
-30.39
-24.49
-18.74
-13.27
-8.14
-3.46
0.58
3.82
6.33
8.46
10.76
13.82
17.94
23.07
28.73
34.34
39.43
43.8
47.48
50.66
53.54
56.26
58.84
61.31
63.62
65.64
67.14
67.89
67.9
67.58
67.88
70.08
75.44
84.75
98.08
114.57
132.68
150.53
166.26
178.43
186.12
188.97
187.04
180.77
170.86
158.23
143.9
128.88
113.94
99.57
85.87
72.74
59.97
47.53
35.63
24.63
14.93
6.8
0.2
-5.11
-9.55
-13.55
-17.41
-21.31
-25.31
-29.37
-33.46
-37.49
-41.38
-44.96
-48.06
-50.6
-52.6
-54.25
-55.88
-57.77
-60.08
-62.65
-65.03
-66.55
-66.5
-64.3
-59.79
-53.19
-45.08
-36.28
-27.62
-19.76
-13.11
-7.81
-3.78
-0.81
1.39
3.08
4.5
5.73
6.82
7.76
8.61
9.45
10.38
11.42
12.49
13.39
13.94
14.03
13.68
12.96
11.93
10.57
8.84
6.76
4.38
1.83
-0.83
-3.64
-6.7
-10.08
-13.69
-17.31
-20.61
-23.35
-25.45
-27.03
-28.35
-29.75
-31.57
-34.07
-37.38
-41.31
-45.28
-48.41
-49.72
-48.53
-44.61
-38.4
-30.74
-22.57
-14.67
-7.49
-1.19
4.19
8.64
12.14
14.71
16.47
17.58
18.22
18.47
18.3
17.61
16.28
14.29
11.75
8.88
5.99
3.39
1.31
-0.18
-1.17
-1.79
-2.23
-2.59
-2.93
-3.3
-3.79
-4.54
-5.72
-7.46
-9.77
-12.67
-16.14
-20.17
-24.89
-30.43
-36.95
-44.5
-53.04
-62.32
-72.0
-81.73
-91.32
-100.97
-111.17
-122.5
-135.18
-148.82
-162.32
-174.16
-183.05
-188.42
-190.7
-191.24
-191.85
-194.17
-199.15
-206.73
-215.7
-223.85
-228.34
-226.21
-214.96
-193.1
-160.69
-119.58
-73.45
-27.12
14.5
47.59
70.29
82.83
87.06
85.46
80.34
73.51
66.25
59.62
54.52
51.53
50.65
51.19
52.07
52.28
51.43
49.91
48.63
48.52
49.96
52.51
55.01
56.05
54.64
50.81
45.65
40.87
37.92
37.13
37.31
36.16
31.24
21.22
6.68
-9.91
-24.94
-34.91
-37.67
-32.89
-22.02
-7.51
8.11
22.87
35.65
46.1
54.41
60.94
66.11
70.23
73.49
75.93
77.53
78.26
78.18
77.45
76.36
75.23
74.4
74.15
74.69
76.0
77.84
79.73
81.1
81.51
80.74
78.86
76.17
73.01
69.69
66.39
63.28
60.53
58.28
56.48
54.76
52.53
49.07
43.99
37.36
29.74
22.01
14.88
8.62
2.99
-2.6
-8.81
-16.06
-24.38
-33.3
-41.85
-48.6
-51.86
-50.02
-41.96
-27.5
-7.56
15.85
40.13
62.75
81.93
97.08
108.76
118.28
126.92
135.41
143.56
150.6
155.6
158.0
157.83
155.53
151.56
146.11
139.15
130.61
120.77
110.29
100.03
90.67
82.5
75.27
68.43
61.44
53.97
46.05
37.93
29.92
22.2
14.93
8.22
2.4
-2.18
-5.35
-7.37
-9.07
-11.58
-15.98
-22.77
-31.58
-41.2
-49.95
-56.16
-58.59
-56.7
-50.65
-41.29
-29.96
-18.23
-7.66
0.65
6.27
9.65
11.86
14.3
18.0
23.15
28.84
33.45
35.34
33.82
29.62
24.75
21.59
21.8
25.5
31.25
36.7
39.86
39.99
38.05
36.18
36.93
42.07
51.72
63.93
74.72
78.65
69.82
43.43
-2.32
-64.53
-135.23
-202.66
-254.45
-281.56
-281.2
-257.58
-219.9
-178.56
-141.6
-112.69
-91.35
-74.76
-59.9
-44.89
-29.26
-13.47
1.77
15.81
28.07
38.08
45.49
50.03
51.88
51.66
50.63
50.45
52.8
58.7
67.91
78.65
87.97
92.72
90.77
81.79
67.41
50.51
34.14
20.49
10.37
3.29
-1.99
-6.76
-11.83
-17.35
-22.84
-27.5
-30.54
-31.52
-30.39
-27.56
-23.77
-19.88
-16.82
-15.39
-16.18
-19.36
-24.47
-30.39
-35.43
-37.81
-36.12
-29.84
-19.46
-6.32
7.87
21.44
33.17
42.49
49.3
53.89
56.69
58.1
58.42
57.8
56.39
54.37
52.0
49.59
47.35
45.3
43.29
41.08
38.63
36.14
34.03
32.75
32.52
33.26
34.6
36.07
37.34
38.29
38.94
39.43
39.81
40.01
39.76
38.73
36.54
33.03
28.22
22.39
15.93
9.19
2.3
-4.81
-12.36
-20.36
-28.47
-35.86
-41.43
-44.21
-43.71
-40.19
-34.58
-28.14
-22.08
-17.14
-13.57
-11.16
-9.56
-8.5
-7.9
-7.81
-8.31
-9.35
-10.75
-12.25
-13.66
-14.91
-15.97
-16.8
-17.29
-17.31
-16.73
-15.65
-14.33
-13.06
-12.04
-11.29
-10.62
-9.85
-8.9
-7.95
-7.34
-7.44
-8.51
-10.61
-13.61
-17.26
-21.24
-25.32
-29.38
-33.38
-37.46
-41.75
-46.38
-51.38
-56.57
-61.48
-65.41
-67.5
-66.98
-63.41
-56.87
-48.07
-38.12
-28.19
-19.27
-11.85
-5.96
-1.34
2.29
5.12
7.13
8.33
8.77
8.7
8.44
8.26
8.3
8.44
8.44
8.02
7.0
5.42
3.53
1.59
-0.13
-1.62
-3.06
-4.72
-6.84
-9.44
-12.37
-15.31
-18.01
-20.37
-22.5
-24.61
-26.9
-29.55
-32.62
-36.13
-40.01
-44.02
-47.67
-50.23
-50.85
-48.9
-44.12
-36.86
-27.97
-18.58
-9.77
-2.3
3.5
7.69
10.6
12.58
13.89
14.6
14.69
14.15
13.06
11.65
10.24
9.16
8.56
8.37
8.37
8.25
7.8
6.96
5.81
4.48
3.06
1.54
-0.08
-1.77
-3.45
-5.07
-6.7
-8.51
-10.7
-13.36
-16.36
-19.44
-22.33
-24.9
-27.24
-29.58
-32.2
-35.27
-38.82
-42.64
-46.22
-48.86
-49.7
-47.98
-43.34
-35.99
-26.75
-16.79
-7.27
0.91
7.37
12.09
15.31
17.31
18.36
18.68
18.53
18.17
17.84
17.66
17.63
17.6
17.43
17.01
16.38
15.67
15.08
14.71
14.5
14.3
13.81
12.78
11.12
8.87
6.23
3.49
0.9
-1.38
-3.32
-5.02
-6.68
-8.49
-10.58
-12.96
-15.54
-18.15
-20.65
-23.03
-25.38
-27.92
-30.87
-34.36
-38.33
-42.51
-46.31
-48.89
-49.37
-47.04
-41.69
-33.77
-24.25
-14.37
-5.18
2.68
9.05
14.11
18.06
21.01
22.95
23.82
23.67
22.66
21.07
19.15
17.2
15.39
13.84
12.61
11.7
11.1
10.76
10.54
10.18
9.38
7.83
5.44
2.45
-0.57
-2.88
-3.82
-3.15
-1.13
1.53
3.88
5.06
4.55
2.25
-1.51
-6.19
-11.26
-16.34
-21.35
-26.52
-32.27
-39.03
-46.94
-55.61
-64.03
-70.76
-74.29
-73.54
-68.26
-59.07
-47.23
-34.25
-21.37
-9.37
1.42
10.97
19.3
26.33
31.99
36.28
39.3
41.36
42.73
43.6
44.02
43.87
43.01
41.44
39.32
36.96
34.74
32.86
31.34
29.99
28.47
26.5
23.9
20.69
17.04
13.18
9.31
5.58
2.0
-1.44
-4.8
-8.07
-11.22
-14.14
-16.71
-18.9
-20.7
-22.18
-23.53
-24.97
-26.83
-29.43
-32.99
-37.5
-42.56
-47.37
-50.83
-51.82
-49.6
-44.01
-35.63
-25.56
-15.12
-5.49
2.6
8.96
13.74
17.29
19.9
21.74
22.83
23.25
23.22
23.02
22.99
23.35
24.09
24.99
25.76
26.21
26.27
26.06
25.73
25.35
24.87
24.13
22.9
21.11
18.76
16.07
13.29
10.7
8.47
6.6
4.97
3.33
1.41
-0.96
-3.85
-7.18
-10.72
-14.2
-17.4
-20.21
-22.71
-25.12
-27.74
-30.89
-34.74
-39.34
-44.49
-49.64
-53.9
-56.23
-55.62
-51.55
-44.19
-34.42
-23.59
-13.09
-3.88
3.63
9.51
13.99
17.23
19.22
19.86
19.23
17.61
15.58
13.86
13.15
13.91
16.36
20.41
25.73
31.79
37.98
43.7
48.42
51.73
53.36
53.17
51.12
47.29
41.89
35.3
27.99
20.52
13.43
7.09
1.58
-3.28
-7.9
-12.69
-17.86
-23.32
-28.66
-33.44
-37.32
-40.25
-42.4
-44.07
-45.55
-47.03
-48.55
-49.92
-50.73
-50.29
-47.78
-42.48
-34.13
-23.14
-10.62
1.9
12.93
21.38
26.78
29.3
29.51
28.18
26.08
23.88
22.1
21.09
20.99
21.68
22.89
24.18
25.11
25.28
24.47
22.63
19.98
16.94
14.03
11.71
10.25
9.65
9.63
9.83
9.89
9.58
8.88
7.84
6.56
5.11
3.51
1.75
-0.14
-2.17
-4.32
-6.6
-8.99
-11.47
-14.01
-16.65
-19.51
-22.79
-26.69
-31.36
-36.78
-42.65
-48.32
-52.86
-55.24
-54.59
-50.52
-43.29
-33.75
-23.12
-12.52
-2.8
5.7
12.91
18.88
23.55
26.78
28.5
28.84
28.24
27.22
26.25
25.51
24.93
24.31
23.46
22.41
21.32
20.44
19.93
19.77
19.78
19.65
19.07
17.86
16.06
13.81
11.31
8.66
5.81
2.66
-0.87
-4.71
-8.55
-12.08
-15.01
-17.29
-19.13
-20.84
-22.83
-25.44
-28.97
-33.58
-39.17
-45.22
-50.73
-54.42
-55.1
-52.06
-45.41
-36.02
-25.23
-14.37
-4.44
4.07
11.09
16.65
20.77
23.38
24.47
24.18
22.96
21.36
19.96
19.08
18.75
18.71
18.61
18.23
17.6
16.95
16.59
16.75
17.41
18.31
19.0
18.97
17.8
15.26
11.35
6.35
0.68
-5.18
-10.9
-16.31
-21.48
-26.63
-32.02
-37.92
-44.37
-51.12
-57.49
-62.46
-64.78
-63.49
-58.15
-49.2
-37.79
-25.45
-13.52
-2.92
6.05
13.42
19.32
23.83
26.98
28.86
29.71
29.88
29.76
29.56
29.29
28.84
28.1
27.03
25.76
24.44
23.17
21.87
20.36
18.47
16.14
13.49
10.72
8.03
5.45
2.91
0.27
-2.48
-5.19
-7.6
-9.44
-10.64
-11.34
-11.9
-12.8
-14.5
-17.34
-21.3
-26.0
-30.59
-33.94
-34.95
-32.96
-27.97
-20.74
-12.46
-4.37
2.66
8.31
12.75
16.38
19.58
22.49
25.01
26.94
28.07
28.32
27.78
26.63
25.13
23.48
21.8
20.1
18.38
16.6
14.83
13.15
11.71
10.57
9.74
9.04
8.19
6.85
4.79
1.97
-1.33
-4.63
-7.34
-9.07
-9.71
-9.6
-9.33
-9.61
-11.06
-14.06
-18.66
-24.6
-31.28
-37.79
-43.05
-45.98
-45.81
-42.32
-35.94
-27.64
-18.6
-9.86
-2.06
4.68
10.58
15.93
20.8
25.01
28.24
30.25
31.13
31.25
31.15
31.25
31.61
32.01
32.07
31.49
30.23
28.53
26.7
25.0
23.47
21.93
20.08
17.65
14.48
10.65
6.4
2.01
-2.27
-6.31
-10.15
-13.88
-17.65
-21.62
-25.99
-30.93
-36.52
-42.63
-48.66
-53.62
-56.29
-55.66
-51.31
-43.6
-33.55
-22.49
-11.56
-1.5
7.44
15.34
22.37
28.62
34.07
38.65
42.31
45.05
46.95
48.1
48.63
48.62
48.12
47.14
45.7
43.88
41.82
39.73
37.79
36.09
34.54
32.97
31.1
28.74
25.77
22.27
18.44
14.54
10.93
7.8
5.31
3.36
1.71
-0.02
-2.22
-5.12
-8.76
-12.93
-17.36
-21.71
-25.73
-29.33
-32.56
-35.67
-39.11
-43.36
-48.79
-55.35
-62.37
-68.51
-72.11
-71.63
-66.33
-56.52
-43.55
-29.27
-15.4
-3.06
7.43
16.29
23.96
30.63
36.26
40.6
43.47
44.93
45.33
45.16
44.88
44.74
44.72
44.65
44.33
43.69
42.82
41.88
41.01
40.17
39.23
37.96
36.29
34.28
32.16
30.28
28.86
27.89
27.05
25.75
23.28
19.03
12.72
4.45
-5.24
-15.56
-25.61
-34.55
-41.83
-47.18
-50.59
-52.38
-53.06
-53.22
-53.45
-54.06
-54.96
-55.64
-55.33
-53.25
-48.92
-42.31
-33.87
-24.29
-14.27
-4.36
5.12
13.92
21.84
28.6
33.97
37.82
40.22
41.41
41.69
41.34
40.63
39.72
38.75
37.83
36.99
36.18
35.3
34.29
33.14
31.91
30.7
29.56
28.47
27.28
25.84
24.06
21.92
19.52
16.99
14.42
11.79
8.97
5.76
2.02
-2.28
-6.91
-11.53
-15.64
-18.9
-21.21
-22.83
-24.38
-26.6
-30.16
-35.45
-42.43
-50.67
-59.39
-67.58
-74.03
-77.51
-76.99
-72.0
-62.75
-50.22
-35.92
-21.42
-8.02
3.5
12.79
19.79
24.48
26.95
27.46
26.55
25.08
23.99
24.03
25.53
28.27
31.66
34.96
37.54
39.11
39.64
39.36
38.52
37.29
35.7
33.62
30.93
27.57
23.62
19.3
14.92
10.77
7.01
3.61
0.38
-3.0
-6.85
-11.31
-16.25
-21.33
-26.03
-29.93
-32.82
-34.83
-36.39
-38.13
-40.67
-44.54
-49.95
-56.67
-63.97
-70.55
-74.87
-75.53
-71.74
-63.73
-52.59
-40.04
-27.73
-16.79
-7.54
0.29
7.2
13.53
19.32
24.33
28.28
31.09
32.9
33.98
34.54
34.67
34.38
33.61
32.47
31.22
30.22
29.81
30.18
31.26
32.76
34.25
35.34
35.75
35.44
34.53
33.27
31.88
30.47
28.95
27.12
24.69
21.51
17.54
12.96
8.02
3.05
-1.7
-6.09
-10.11
-13.91
-17.69
-21.77
-26.52
-32.19
-38.79
-45.88
-52.5
-57.28
-58.83
-56.2
-49.26
-38.81
-26.3
-13.37
-1.37
8.95
17.35
23.92
28.87
32.29
34.27
34.91
34.45
33.27
31.78
30.33
29.12
28.14
27.32
26.5
25.63
24.73
23.88
23.14
22.42
21.5
20.11
18.09
15.56
12.9
10.63
9.14
8.5
8.35
8.07
7.0
4.67
0.96
-3.99
-9.88
-16.47
-23.62
-31.28
-39.48
-48.17
-57.2
-66.3
-75.01
-82.62
-88.14
-90.41
-88.36
-81.37
-69.59
-54.02
-36.26
-18.18
-1.44
12.82
24.07
32.2
37.29
39.41
38.51
34.6
27.83
18.72
8.06
-3.09
-13.71
-22.98
-30.39
-35.73
-38.95
-40.04
-38.97
-35.7
-30.26
-22.81
-13.67
-3.3
7.73
18.78
29.22
38.47
46.06
51.63
54.96
56.02
54.91
51.91
47.38
41.73
35.28
28.23
20.58
12.21
2.98
-7.05
-17.48
-27.4
-35.59
-40.71
-41.74
-38.35
-31.02
-20.94
-9.65
1.39
11.19
19.28
25.7
30.67
34.41
36.99
38.4
38.58
37.64
35.84
33.59
31.24
29.07
27.09
25.17
23.2
21.18
19.26
17.68
16.58
15.91
15.43
14.79
13.76
12.26
10.38
8.19
5.67
2.74
-0.83
-5.12
-9.97
-15.04
-19.81
-23.85
-26.91
-28.96
-30.22
-31.04
-31.86
-33.09
-35.08
-37.93
-41.33
-44.58
-46.63
-46.46
-43.38
-37.38
-29.14
-19.87
-10.83
-3.04
3.02
7.35
10.29
12.19
13.32
13.75
13.5
12.68
11.51
10.34
9.52
9.28
9.67
10.59
11.82
13.15
14.35
15.26
15.76
15.78
15.28
14.27
12.72
10.57
7.81
4.46
0.73
-3.05
-6.54
-9.52
-12.02
-14.27
-16.68
-19.63
-23.32
-27.81
-32.93
-38.38
-43.56
-47.65
-49.65
-48.66
-44.17
-36.37
-26.14
-14.79
-3.73
5.98
13.81
19.72
23.95
26.82
28.58
29.34
29.19
28.27
26.82
25.14
23.57
22.31
21.44
20.8
20.13
19.18
17.83
16.08
14.1
12.07
10.16
8.41
6.76
5.1
3.25
1.06
-1.54
-4.51
-7.73
-10.98
-14.12
-17.14
-20.14
-23.36
-27.1
-31.64
-37.07
-43.26
-49.74
-55.67
-59.95
-61.48
-59.41
-53.5
-44.15
-32.4
-19.6
-6.99
4.48
14.29
22.28
28.46
32.9
35.77
37.33
38.08
38.62
39.52
41.02
42.9
44.53
45.15
44.26
41.88
38.64
35.52
33.36
32.53
32.64
32.81
31.97
29.41
25.05
19.5
13.71
8.52
4.33
0.69
-3.96
-12.3
-27.63
-52.92
-89.44
-135.64
-186.89
-236.19
-275.96
-300.1
-305.66
-293.53
-267.83
-234.52
-199.55
-167.25
-139.63
-116.37
-95.76
-75.82
-55.32
-34.28
-13.64
5.49
22.33
36.81
49.1
59.32
67.29
72.65
75.28
75.74
75.18
74.66
74.39
73.37
69.84
62.62
52.24
41.21
32.95
29.9
32.13
37.25
41.74
43.01
40.63
36.31
32.45
30.52
30.27
30.16
28.59
24.95
19.93
14.92
11.12
8.95
7.88
6.92
5.08
1.78
-3.04
-9.12
-16.04
-23.29
-30.26
-36.06
-39.54
-39.56
-35.32
-26.79
-14.78
-0.82
13.28
25.8
35.51
41.85
44.88
45.13
43.39
40.47
37.13
33.97
31.54
30.25
30.33
31.74
34.15
37.09
40.14
43.15
46.17
49.34
52.66
55.91
58.85
61.36
63.69
66.25
69.45
73.39
77.81
82.18
85.78
87.85
87.52
83.94
76.34
64.33
48.15
28.72
7.63
-13.1
-31.35
-45.23
-53.35
-55.1
-50.75
-41.45
-29.0
-15.43
-2.54
8.47
17.13
23.62
28.42
32.08
34.91
37.02
38.36
38.89
38.69
37.97
36.95
35.79
34.48
32.95
31.1
28.91
26.47
23.92
21.35
18.85
16.41
13.99
11.49
8.8
5.83
2.46
-1.32
-5.42
-9.7
-13.99
-18.13
-22.02
-25.63
-29.04
-32.38
-35.93
-39.97
-44.66
-49.81
-54.71
-58.23
-59.08
-56.2
-49.25
-38.8
-26.14
-12.84
-0.29
10.67
19.91
27.71
34.52
40.64
46.14
50.88
54.69
57.48
59.28
60.2
60.25
59.4
57.6
54.85
51.34
47.43
43.53
40.0
36.93
34.19
31.51
28.61
25.37
21.84
18.25
14.78
11.51
8.34
5.07
1.48
-2.49
-6.69
-10.76
-14.34
-17.22
-19.43
-21.34
-23.56
-26.7
-31.17
-36.93
-43.36
-49.25
-53.13
-53.64
-50.04
-42.42
-31.76
-19.53
-7.19
4.12
13.83
21.83
28.26
33.3
37.04
39.51
40.74
40.87
40.13
38.86
37.37
35.81
34.28
32.76
31.24
29.79
28.49
27.4
26.42
25.36
23.94
22.0
19.52
16.69
13.75
10.87
8.05
5.15
1.99
-1.55
-5.43
-9.52
-13.63
-17.58
-21.32
-24.9
-28.51
-32.4
-36.83
-41.86
-47.28
-52.45
-56.36
-57.86
-55.94
-50.2
-41.02
-29.51
-17.16
-5.43
4.8
13.28
20.35
26.56
32.24
37.22
40.89
42.46
41.37
37.63
31.93
25.5
19.66
15.46
13.34
13.11
14.13
15.6
16.92
17.7
17.78
17.13
15.72
13.54
10.62
7.13
3.33
-0.48
-4.09
-7.51
-10.88
-14.48
-18.5
-23.01
-27.92
-33.09
-38.41
-43.88
-49.55
-55.3
-60.71
-65.0
-67.13
-66.15
-61.55
-53.53
-42.92
-31.06
-19.28
-8.64
0.38
7.76
13.79
18.8
23.04
26.58
29.4
31.46
32.81
33.51
33.69
33.46
32.89
32.05
31.04
30.01
29.12
28.46
28.02
27.61
26.94
25.73
23.83
21.28
18.32
15.28
12.43
9.8
7.26
4.5
1.3
-2.39
-6.4
-10.41
-14.08
-17.25
-19.98
-22.6
-25.58
-29.4
-34.27
-39.99
-45.87
-50.82
-53.59
-53.21
-49.22
-41.89
-32.16
-21.31
-10.69
-1.35
6.13
11.65
15.52
18.25
20.38
22.27
24.04
25.59
26.65
27.01
26.6
25.54
24.11
22.6
21.24
20.12
19.2
18.35
17.45
16.4
15.14
13.67
12.03
10.25
8.36
6.39
4.32
2.11
-0.3
-2.93
-5.79
-8.83
-11.95
-15.06
-18.09
-21.0
-23.83
-26.74
-30.02
-33.98
-38.78
-44.2
-49.52
-53.56
-55.02
-52.9
-46.95
-37.81
-26.81
-15.54
-5.31
3.12
9.63
14.49
18.08
20.65
22.29
23.02
22.95
22.3
21.38
20.42
19.47
18.42
17.12
15.54
13.82
12.29
11.26
10.83
10.86
10.98
10.78
10.0
8.62
6.76
4.66
2.51
0.34
-1.86
-4.2
-6.74
-9.49
-12.32
-15.08
-17.64
-19.92
-22.0
-24.04
-26.28
-28.98
-32.32
-36.37
-40.91
-45.39
-48.86
-50.25
-48.62
-43.67
-35.77
-26.03
-15.78
-6.21
1.99
8.69
14.07
18.39
21.78
24.3
25.92
26.73
26.93
26.73
26.32
25.75
25.0
24.04
22.86
21.54
20.28
19.25
18.58
18.25
18.12
17.93
17.39
16.27
14.46
11.97
9.05
6.04
3.32
1.09
-0.71
-2.49
-4.76
-7.93
-12.07
-16.85
-21.78
-26.36
-30.37
-33.88
-37.11
-40.31
-43.7
-47.35
-51.18
-54.73
-57.28
-57.81
-55.41
-49.61
-40.64
-29.45
-17.34
-5.55
5.03
14.02
21.37
27.16
31.46
34.34
35.9
36.32
35.86
34.79
33.31
31.53
29.46
27.04
24.18
20.89
17.34
13.85
10.79
8.42
6.78
5.66
4.71
3.63
2.29
0.86
-0.43
-1.35
-1.87
-2.2
-2.64
-3.47
-4.81
-6.56
-8.52
-10.41
-12.03
-13.32
-14.34
-15.29
-16.46
-18.19
-20.76
-24.31
-28.66
-33.2
-36.96
-38.86
-38.01
-34.08
-27.49
-19.24
-10.6
-2.71
3.77
8.66
12.21
14.76
16.56
17.68
18.07
17.71
16.75
15.47
14.24
13.31
12.8
12.61
12.55
12.46
12.23
11.89
11.48
11.07
10.63
10.17
9.66
9.11
8.58
8.07
7.51
6.75
5.58
3.79
1.31
-1.82
-5.4
-9.2
-13.12
-17.2
-21.67
-26.84
-32.95
-39.98
-47.62
-55.11
-61.44
-65.43
-66.14
-63.03
-56.22
-46.47
-35.0
-23.11
-11.92
-2.1
6.07
12.65
17.78
21.64
24.35
26.06
26.92
27.1
26.77
26.1
25.22
24.26
23.36
22.69
22.33
22.3
22.49
22.75
22.87
22.7
22.12
21.09
19.59
17.69
15.45
12.93
10.12
6.98
3.47
-0.43
-4.56
-8.65
-12.34
-15.39
-17.78
-19.78
-21.91
-24.69
-28.49
-33.29
-38.63
-43.62
-47.19
-48.27
-46.14
-40.63
-32.16
-21.72
-10.59
0.02
9.23
16.63
22.24
26.39
29.45
31.68
33.16
33.85
33.71
32.75
31.13
29.18
27.26
25.7
24.73
24.36
24.39
24.53
24.45
23.89
22.77
21.1
18.97
16.5
13.73
10.67
7.3
3.67
-0.14
-3.97
-7.69
-11.17
-14.37
-17.32
-20.1
-22.84
-25.75
-29.1
-33.12
-37.97
-43.44
-48.92
-53.42
-55.77
-54.99
-50.67
-43.19
-33.58
-23.21
-13.36
-4.84
2.05
7.44
11.59
14.79
17.19
18.9
20.05
20.8
21.31
21.73
22.12
22.42
22.57
22.54
22.38
22.2
22.15
22.23
22.29
22.02
21.06
19.22
16.58
13.5
10.45
7.83
5.73
3.91
1.95
-0.52
-3.65
-7.32
-11.19
-14.89
-18.18
-21.0
-23.52
-26.12
-29.23
-33.25
-38.34
-44.2
-50.05
-54.66
-56.76
-55.33
-50.05
-41.4
-30.54
-18.89
-7.71
2.2
10.59
17.59
23.41
28.26
32.17
35.11
37.11
38.25
38.69
38.61
38.13
37.32
36.21
34.8
33.15
31.4
29.72
28.33
27.39
26.95
26.84
26.76
26.39
25.52
24.18
22.58
21.01
19.59
18.22
16.6
14.42
11.46
7.77
3.52
-0.98
-5.43
-9.58
-13.27
-16.53
-19.56
-22.79
-26.7
-31.61
-37.44
-43.54
-48.85
-52.07
-52.15
-48.61
-41.73
-32.49
-22.24
-12.34
-3.8
2.9
7.75
11.08
13.23
14.48
14.99
14.91
14.42
13.79
13.24
12.85
12.54
12.13
11.47
10.65
9.91
9.55
9.73
10.32
10.98
11.24
10.79
9.53
7.64
5.44
3.23
1.23
-0.54
-2.24
-4.18
-6.68
-9.94
-13.97
-18.49
-23.12
-27.45
-31.22
-34.39
-37.08
-39.51
-42.0
-44.79
-48.03
-51.6
-54.99
-57.27
-57.31
-54.16
-47.47
-37.71
-26.09
-14.23
-3.65
4.67
10.43
13.9
15.72
16.53
16.8
16.82
16.71
16.54
16.44
16.58
17.11
18.08
19.38
20.73
21.88
22.65
23.06
23.21
23.21
23.04
22.53
21.44
19.59
17.0
13.89
10.67
7.75
5.41
3.74
2.62
1.72
0.68
-0.83
-2.96
-5.7
-8.87
-12.25
-15.67
-19.09
-22.63
-26.48
-30.91
-36.14
-42.16
-48.63
-54.78
-59.5
-61.68
-60.57
-56.09
-48.92
-40.24
-31.27
-22.94
-15.72
-9.67
-4.74
-0.89
1.81
3.29
3.64
3.13
2.17
1.15
0.3
-0.39
-1.17
-2.37
-4.32
-7.17
-10.78
-14.69
-18.29
-20.93
-22.18
-22.07
-21.08
-19.99
-19.55
-20.1
-21.43
-22.77
-23.03
-21.2
-16.6
-9.04
1.32
14.11
28.93
45.39
63.02
81.09
98.62
114.43
127.2
135.75
139.1
136.76
128.87
116.33
100.76
84.16
68.49
55.18
44.95
37.86
33.63
32.03
33.02
36.69
43.02
51.54
61.21
70.47
77.58
81.07
80.11
74.77
65.88
54.71
42.46
29.91
17.35
4.87
-7.19
-18.08
-26.74
-32.36
-34.75
-34.59
-32.98
-30.88
-28.64
-25.99
-22.75
-19.44
-17.52
-18.92
-25.05
-35.82
-49.49
-63.24
-74.35
-81.23
-83.75
-82.95
-80.29
-76.94
-73.62
-70.64
-68.09
-65.78
-63.03
-58.41
-50.08
-36.5
-17.42
5.53
29.06
49.15
62.51
67.62
65.14
57.29
46.86
36.15
26.5
18.25
11.2
5.08
-0.17
-4.38
-7.31
-8.82
-9.04
-8.32
-7.23
-6.32
-5.99
-6.35
-7.36
-8.94
-11.13
-14.16
-18.34
-23.96
-31.06
-39.34
-48.17
-56.73
-64.2
-69.97
-73.79
-75.69
-75.98
-74.99
-73.04
-70.31
-66.87
-62.6
-57.23
-50.27
-41.22
-29.75
-16.01
-0.83
14.38
27.96
38.53
45.39
48.67
49.09
47.56
44.83
41.36
37.4
33.19
29.12
25.67
23.2
21.8
21.17
20.74
19.87
18.05
15.18
11.49
7.5
3.8
0.83
-1.3
-2.76
-3.94
-5.19
-6.68
-8.28
-9.62
-10.3
-10.11
-9.14
-7.82
-6.76
-6.6
-7.81
-10.54
-14.56
-19.28
-23.84
-27.22
-28.5
-27.06
-22.72
-15.87
-7.33
1.82
10.51
17.95
23.72
27.79
30.37
31.81
32.46
32.58
32.4
32.14
31.96
31.93
31.99
31.93
31.39
30.08
27.86
24.88
21.5
18.09
14.92
11.94
8.91
5.47
1.41
-3.23
-8.1
-12.71
-16.57
-19.42
-21.3
-22.59
-23.88
-25.84
-28.91
-33.13
-38.04
-42.63
-45.66
-45.95
-42.79
-36.19
-26.86
-16.02
-4.99
5.15
13.76
20.65
25.96
29.98
32.96
35.12
36.6
37.53
38.05
38.29
38.37
38.34
38.21
37.99
37.69
37.37
37.09
36.93
36.87
36.77
36.32
35.05
32.4
27.89
21.31
12.83
3.02
-7.3
-17.34
-26.55
-34.81
-42.35
-49.57
-56.82
-64.06
-70.81
-76.21
-79.18
-78.74
-74.3
-65.84
-54.01
-39.95
-25.14
-11.04
1.18
10.85
17.78
22.1
24.19
24.38
23.03
20.46
17.1
13.45
10.16
7.87
7.02
7.79
10.03
13.3
17.0
20.55
23.53
25.76
27.17
27.78
27.51
26.19
23.64
19.82
14.96
9.51
4.01
-1.06
-5.43
-9.08
-12.13
-14.89
-17.73
-21.04
-25.09
-29.76
-34.43
-38.08
-39.49
-37.83
-32.96
-25.5
-16.66
-7.68
0.52
7.54
13.36
18.13
21.93
24.75
26.54
27.36
27.44
27.06
26.5
25.91
25.27
24.51
23.54
22.35
21.04
19.84
18.99
18.64
18.75
19.06
19.08
18.3
16.39
13.28
9.3
4.98
0.88
-2.71
-5.77
-8.62
-11.64
-15.24
-19.66
-24.97
-31.01
-37.3
-42.99
-47.0
-48.23
-45.94
-40.06
-31.29
-20.92
-10.38
-0.84
7.12
13.44
18.41
22.36
25.48
27.78
29.18
29.71
29.49
28.85
28.1
27.51
27.13
26.83
26.39
25.65
24.63
23.49
22.54
21.98
21.79
21.7
21.23
19.95
17.58
14.14
9.91
5.32
0.81
-3.33
-7.01
-10.33
-13.51
-16.88
-20.75
-25.38
-30.77
-36.58
-42.0
-45.95
-47.32
-45.39
-40.08
-31.97
-22.16
-11.88
-2.19
6.23
13.15
18.66
22.97
26.3
28.85
30.73
31.99
32.65
32.74
32.32
31.45
30.32
29.06
27.87
26.87
26.16
25.72
25.49
25.32
25.01
24.37
23.27
21.68
19.66
17.38
14.95
12.4
9.63
6.48
2.79
-1.44
-6.05
-10.73
-15.12
-18.95
-22.12
-24.74
-27.13
-29.73
-33.04
-37.29
-42.37
-47.55
-51.75
-53.7
-52.56
-48.17
-41.16
-32.72
-24.05
-16.03
-9.0
-2.83
2.78
8.1
13.19
17.98
22.34
26.18
29.48
32.31
34.74
36.76
38.29
39.17
39.31
38.69
37.51
36.01
34.5
33.09
31.74
30.21
28.21
25.63
22.48
19.04
15.66
12.7
10.36
8.64
7.31
6.07
4.57
2.57
0.04
-2.92
-6.08
-9.23
-12.31
-15.42
-18.81
-22.78
-27.57
-33.15
-39.1
-44.61
-48.58
-49.89
-47.74
-41.98
-33.22
-22.65
-11.67
-1.53
7.01
13.71
18.75
22.44
25.1
26.92
28.02
28.48
28.48
28.25
28.08
28.22
28.77
29.69
30.79
31.83
32.67
33.32
33.9
34.55
35.3
36.02
36.42
36.22
35.3
33.81
32.11
30.7
30.03
30.25
31.23
32.54
33.64
34.1
33.66
32.27
29.97
26.78
22.72
17.89
12.58
7.25
2.39
-1.65
-4.81
-7.13
-8.69
-9.39
-9.14
-8.15
-7.21
-7.69
-11.15
-18.65
-30.15
-44.32
-58.96
-71.67
-80.66
-85.24
-85.71
-83.04
-78.32
-72.36
-65.57
-58.07
-50.0
-41.63
-33.44
-26.01
-19.82
-15.1
-11.78
-9.54
-7.84
-6.13
-3.9
-0.88
2.92
7.1
11.07
14.27
16.45
17.76
18.78
20.24
22.75
26.61
31.67
37.37
42.85
47.15
49.5
49.7
48.29
46.59
46.37
49.34
56.48
67.59
81.16
94.57
104.75
108.99
105.73
95.04
78.64
59.3
39.96
22.88
9.23
-0.75
-7.16
-9.98
-8.96
-4.06
4.11
14.09
23.98
32.26
38.44
43.11
47.33
51.67
55.41
56.59
52.7
41.93
24.15
1.21
-23.63
-47.01
-66.65
-82.12
-94.77
-106.81
-120.22
-135.8
-153.04
-170.49
-186.6
-200.45
-211.71
-220.36
-226.08
-228.06
-225.23
-216.87
-203.17
-185.19
-164.35
-141.71
-117.55
-91.53
-63.45
-33.92
-4.54
22.42
44.97
62.2
74.72
84.27
93.19
103.55
116.61
132.58
150.78
169.82
188.16
204.68
219.12
232.13
244.84
257.93
271.03
282.71
290.97
294.2
291.72
283.83
271.25
254.53
233.82
209.13
180.87
150.2
118.8
88.26
59.37
31.85
4.66
-23.27
-52.27
-81.63
-109.67
-134.34
-154.1
-168.67
-179.24
-188.09
-197.66
-209.34
-222.79
-236.12
-246.83
-253.13
-254.68
-252.48
-247.98
-242.17
-235.35
-227.66
-219.89
-213.68
-210.78
-211.62
-214.29
-214.68
-208.09
-191.34
-164.44
-130.48
-94.17
-59.67
-28.92
-1.39
24.88
51.7
79.57
107.33
132.84
154.04
169.87
180.59
187.33
191.41
193.68
194.2
192.58
188.55
182.39
175.1
168.16
163.06
160.84
161.76
165.05
168.97
171.01
168.45
159.05
141.79
117.22
87.29
54.65
21.8
-9.53
-38.55
-65.15
-89.45
-111.39
-130.74
-147.16
-160.45
-170.6
-177.73
-181.95
-183.37
-182.08
-178.4
-172.92
-166.43
-159.64
-152.89
-146.06
-138.88
-131.44
-124.57
-119.82
-118.86
-122.64
-130.67
-140.94
-150.43
-156.07
-155.67
-148.3
-134.24
-114.6
-90.93
-64.92
-38.32
-12.88
9.85
28.7
43.06
53.05
59.27
62.67
64.25
64.82
64.84
64.43
63.46
61.77
59.42
56.83
54.78
54.19
55.67
59.27
64.29
69.49
73.53
75.38
74.65
71.58
66.8
60.99
54.61
47.87
40.7
32.9
24.23
14.48
3.55
-8.39
-20.86
-33.2
-44.75
-55.15
-64.35
-72.47
-79.55
-85.24
-88.92
-89.89
-87.73
-82.53
-74.94
-65.95
-56.5
-47.34
-38.89
-31.23
-24.15
-17.18
-9.76
-1.36
8.35
19.38
31.4
43.84
55.9
66.59
74.92
80.15
82.12
81.42
79.25
77.06
75.9
76.07
77.07
77.94
77.67
75.74
72.07
67.01
61.02
54.6
48.22
42.3
37.28
33.41
30.63
28.54
26.41
23.39
18.81
12.47
4.82
-3.15
-10.09
-14.73
-16.31
-14.78
-10.81
-5.48
0.01
4.77
8.18
10.06
10.53
9.94
8.79
7.58
6.66
6.1
5.65
4.86
3.25
0.62
-2.98
-7.22
-11.72
-16.22
-20.65
-25.11
-29.73
-34.58
-39.48
-44.09
-47.87
-50.23
-50.66
-48.86
-44.89
-39.16
-32.35
-25.27
-18.67
-13.09
-8.77
-5.7
-3.63
-2.23
-1.16
-0.13
0.99
2.18
3.31
4.18
4.58
4.45
3.85
2.96
2.03
1.22
0.52
-0.24
-1.31
-2.86
-4.85
-7.09
-9.33
-11.4
-13.26
-15.04
-16.92
-19.09
-21.78
-25.17
-29.41
-34.32
-39.28
-43.21
-44.82
-43.0
-37.35
-28.43
-17.58
-6.53
3.18
10.66
15.8
19.04
21.08
22.52
23.64
24.43
24.72
24.37
23.37
21.89
20.18
18.49
16.92
15.44
13.94
12.28
10.42
8.35
6.11
3.72
1.19
-1.47
-4.23
-6.98
-9.72
-12.48
-15.47
-18.97
-23.26
-28.48
-34.41
-40.45
-45.63
-48.87
-49.25
-46.33
-40.33
-32.1
-22.77
-13.47
-5.0
2.21
8.11
12.79
16.39
19.04
20.89
22.08
22.73
22.84
22.36
21.21
19.4
17.06
14.43
11.82
9.44
7.38
5.59
3.91
2.1
-0.05
-2.66
-5.67
-8.86
-11.89
-14.53
-16.75
-18.86
-21.4
-24.88
-29.39
-34.35
-38.54
-40.47
-38.9
-33.35
-24.35
-13.18
-1.45
9.49
18.8
26.24
31.89
35.99
38.73
40.32
41.04
41.25
41.25
41.22
41.1
40.65
39.55
37.65
35.01
31.93
28.84
26.11
23.9
22.08
20.31
18.22
15.62
12.55
9.29
6.16
3.4
0.99
-1.33
-3.99
-7.47
-12.06
-17.72
-23.89
-29.58
-33.45
-34.24
-31.16
-24.21
-14.3
-2.96
8.1
17.49
24.45
28.94
31.52
33.12
34.84
37.72
42.39
48.89
56.48
63.9
69.7
72.74
72.55
69.31
63.53
55.62
45.63
33.23
18.08
0.26
-19.49
-39.88
-59.41
-76.9
-91.79
-104.23
-114.82
-124.28
-133.13
-141.6
-149.69
-157.21
-163.79
-168.59
-170.27
-167.07
-157.26
-139.84
-115.03
-84.53
-51.2
-18.43
10.64
33.72
49.73
58.73
61.63
59.84
54.92
48.33
41.37
35.11
30.37
27.61
26.85
27.6
29.03
30.23
30.64
30.39
30.29
31.59
35.29
41.56
49.41
56.82
61.51
61.87
57.61
49.92
40.88
32.6
26.37
22.46
20.53
20.14
21.3
24.46
30.08
38.0
47.2
56.02
62.76
66.43
66.98
65.26
62.43
59.42
56.66
54.12
51.6
49.05
46.62
44.62
43.25
42.47
41.97
41.35
40.22
38.4
35.9
32.94
29.83
26.86
24.18
21.79
19.51
17.18
14.69
12.05
9.37
6.73
4.09
1.31
-1.81
-5.3
-8.98
-12.45
-15.22
-16.78
-16.81
-15.19
-12.04
-7.72
-2.72
2.37
7.01
10.75
13.39
14.9
15.43
15.28
14.77
14.2
13.78
13.57
13.48
13.33
12.96
12.31
11.49
10.64
9.93
9.39
8.91
8.31
7.42
6.16
4.55
2.73
0.86
-0.91
-2.45
-3.73
-4.77
-5.66
-6.6
-7.81
-9.54
-11.88
-14.73
-17.63
-19.83
-20.46
-18.9
-15.03
-9.36
-2.92
3.12
7.92
11.06
12.7
13.26
13.19
12.8
12.24
11.62
11.08
10.82
10.98
11.5
12.13
12.48
12.24
11.3
9.93
8.66
8.08
8.49
9.73
11.21
12.11
11.81
10.21
7.76
5.37
3.99
4.23
6.15
9.18
12.43
15.0
16.38
16.69
16.75
17.95
21.9
29.9
42.41
58.56
75.99
91.25
100.67
101.55
93.05
76.6
55.37
33.17
13.2
-2.7
-14.27
-22.32
-28.13
-32.84
-37.24
-41.72
-46.34
-50.81
-54.69
-57.58
-59.37
-60.37
-61.16
-62.31
-64.08
-66.41
-69.11
-72.17
-75.89
-80.63
-86.47
-92.9
-99.06
-104.03
-107.36
-109.2
-110.07
-110.33
-109.74
-107.45
-102.38
-93.83
-81.92
-67.67
-52.66
-38.45
-26.08
-15.8
-7.16
0.61
8.28
16.23
24.38
32.32
39.53
45.6
50.45
54.19
57.03
59.13
60.37
60.49
59.18
56.26
51.73
45.84
38.96
31.51
23.99
16.89
10.73
5.97
2.94
1.69
1.91
2.96
3.97
4.07
2.6
-0.66
-5.48
-11.23
-17.1
-22.25
-26.0
-27.81
-27.32
-24.49
-19.66
-13.75
-8.08
-4.08
-2.81
-4.57
-8.73
-14.09
-19.26
-23.18
-25.27
-25.43
-23.94
-21.35
-18.47
-16.28
-15.75
-17.57
-21.78
-27.63
-33.78
-38.66
-41.03
-40.33
-36.85
-31.42
-25.07
-18.56
-12.2
-5.88
0.69
7.6
14.63
21.3
27.05
31.5
34.63
36.65
38.02
39.26
40.97
43.69
47.78
53.25
59.57
65.74
70.57
73.1
72.98
70.56
66.72
62.48
58.55
55.14
51.89
48.25
43.73
38.28
32.35
26.7
22.13
19.11
17.6
17.18
17.16
16.85
15.79
13.75
10.7
6.83
2.38
-2.31
-6.98
-11.43
-15.58
-19.38
-22.85
-26.06
-29.16
-32.4
-36.08
-40.34
-45.16
-50.32
-55.49
-60.36
-64.73
-68.32
-70.74
-71.34
-69.49
-64.81
-57.47
-48.25
-38.26
-28.57
-19.89
-12.43
-6.11
-0.7
3.95
8.0
11.5
14.6
17.42
20.1
22.72
25.31
27.88
30.42
32.94
35.41
37.84
40.25
42.63
45.0
47.3
49.45
51.36
53.07
54.71
56.46
58.44
60.55
62.44
63.61
63.55
61.94
58.75
54.24
48.71
42.42
35.39
27.44
18.36
8.02
-3.36
-15.22
-26.76
-37.04
-45.07
-49.99
-51.06
-47.83
-40.34
-29.22
-15.8
-1.8
11.07
21.6
29.32
34.47
37.69
39.58
40.43
40.26
38.99
36.7
33.72
30.55
27.56
24.89
22.33
19.49
15.92
11.25
5.19
-2.52
-12.14
-23.76
-37.1
-51.4
-65.51
-78.16
-88.57
-96.74
-103.45
-109.77
-116.26
-122.29
-126.0
-124.92
-117.08
-102.08
-81.43
-58.0
-34.95
-14.76
1.35
13.03
20.31
23.12
21.27
14.94
5.08
-6.55
-17.89
-27.24
-33.84
-37.76
-39.43
-39.05
-36.36
-30.87
-22.55
-12.24
-1.66
7.24
13.09
15.64
15.84
15.18
14.98
15.82
17.46
19.15
20.12
19.94
18.69
16.77
14.59
12.39
10.09
7.43
4.19
0.41
-3.41
-6.53
-8.13
-7.77
-5.56
-2.1
1.83
5.65
9.18
12.58
16.06
19.51
22.45
24.18
24.16
22.38
19.45
16.32
13.91
12.61
12.19
11.98
11.26
9.67
7.37
4.9
2.9
1.7
1.18
0.83
0.02
-1.71
-4.43
-7.84
-11.43
-14.81
-17.78
-20.46
-23.1
-26.0
-29.32
-33.13
-37.41
-42.04
-46.69
-50.67
-52.91
-52.24
-47.77
-39.38
-27.94
-15.03
-2.51
8.11
16.04
21.25
24.15
25.25
25.01
23.75
21.75
19.35
16.89
14.65
12.78
11.24
9.94
8.78
7.74
6.9
6.35
6.13
6.11
6.03
5.5
4.22
2.03
-0.93
-4.27
-7.55
-10.42
-12.8
-14.87
-17.08
-19.88
-23.62
-28.35
-33.73
-39.0
-43.07
-44.8
-43.31
-38.32
-30.32
-20.42
-10.0
-0.31
7.81
14.01
18.4
21.29
23.04
24.0
24.44
24.54
24.4
24.03
23.43
22.52
21.3
19.74
17.98
16.17
14.48
13.07
11.93
10.89
9.64
7.87
5.36
2.15
-1.48
-5.17
-8.56
-11.41
-13.69
-15.61
-17.5
-19.8
-22.95
-27.2
-32.41
-37.93
-42.68
-45.35
-44.82
-40.59
-32.95
-22.98
-12.12
-1.86
6.79
13.37
18.04
21.21
23.38
24.87
25.85
26.36
26.51
26.44
26.33
26.26
26.17
25.88
25.15
23.88
22.14
20.19
18.4
17.09
16.43
16.26
16.15
15.53
13.83
10.81
6.67
1.99
-2.55
-6.46
-9.7
-12.66
-15.96
-20.18
-25.67
-32.36
-39.73
-46.86
-52.53
-55.44
-54.54
-49.46
-40.71
-29.55
-17.61
-6.4
3.1
10.56
16.13
20.2
23.18
25.4
27.15
28.7
30.24
31.92
33.73
35.48
36.81
37.3
36.68
34.9
32.25
29.28
26.56
24.45
22.91
21.5
19.56
16.57
12.33
7.03
1.15
-4.73
-10.18
-15.0
-19.26
-23.19
-27.19
-31.71
-37.07
-43.28
-49.87
-55.82
-59.7
-60.11
-56.14
-47.8
-36.1
-22.72
-9.55
1.94
11.02
17.65
22.26
25.37
27.34
28.33
28.48
27.97
27.13
26.31
25.69
25.21
24.62
23.62
22.09
20.21
18.3
16.67
15.37
14.1
12.32
9.55
5.6
0.72
-4.56
-9.6
-13.96
-17.58
-20.81
-24.21
-28.36
-33.65
-40.1
-47.23
-54.1
-59.36
-61.61
-59.68
-53.06
-42.02
-27.64
-11.36
5.41
21.62
36.68
50.33
62.4
72.66
80.93
87.2
91.77
95.2
98.17
101.26
104.82
108.85
112.99
116.55
118.63
118.33
114.99
108.4
98.8
86.68
72.48
56.35
38.32
18.66
-1.8
-21.53
-38.7
-51.79
-60.22
-64.55
-66.26
-67.01
-68.15
-70.3
-73.45
-77.21
-81.05
-84.34
-86.24
-85.68
-81.55
-73.12
-60.51
-44.79
-27.69
-11.13
3.5
15.57
25.23
32.9
39.03
43.74
46.98
48.68
48.99
48.29
47.04
45.61
44.15
42.59
40.73
38.44
35.67
32.53
29.22
25.99
23.01
20.25
17.49
14.45
10.87
6.73
2.24
-2.2
-6.22
-9.67
-12.71
-15.71
-19.1
-23.26
-28.35
-34.33
-40.77
-46.88
-51.46
-53.18
-51.03
-44.69
-34.83
-22.88
-10.62
0.45
9.51
16.43
21.58
25.38
28.07
29.64
30.05
29.43
28.14
26.7
25.59
25.01
24.78
24.49
23.67
22.1
19.91
17.57
15.62
14.4
13.83
13.42
12.53
10.52
7.14
2.6
-2.56
-7.68
-12.25
-16.04
-19.12
-21.83
-24.58
-27.77
-31.7
-36.49
-41.92
-47.33
-51.66
-53.58
-51.94
-46.2
-36.75
-24.81
-12.13
-0.35
9.41
16.86
22.25
26.11
28.84
30.55
31.13
30.53
28.89
26.7
24.56
22.97
22.12
21.88
21.8
21.45
20.57
19.23
17.67
16.2
14.98
13.93
12.78
11.19
8.95
6.04
2.65
-0.88
-4.28
-7.38
-10.23
-12.99
-15.87
-19.04
-22.59
-26.63
-31.22
-36.27
-41.36
-45.61
-47.83
-46.82
-41.89
-33.23
-21.99
-9.86
1.46
10.85
17.92
22.93
26.39
28.73
30.16
30.71
30.43
29.52
28.34
27.19
26.27
25.55
24.88
24.08
23.04
21.72
20.21
18.55
16.78
14.88
12.86
10.7
8.42
6.07
3.64
1.08
-1.63
-4.51
-7.53
-10.54
-13.37
-15.81
-17.76
-19.26
-20.46
-21.63
-23.08
-25.14
-28.01
-31.78
-36.12
-40.25
-42.94
-42.82
-38.91
-30.98
-19.85
-7.09
5.46
16.35
24.86
31.07
35.48
38.65
40.89
42.25
42.68
42.28
41.31
40.16
39.11
38.27
37.52
36.71
35.79
34.86
34.11
33.76
33.84
34.22
34.7
35.05
35.2
35.14
34.88
34.4
33.52
32.04
29.8
26.76
23.07
18.97
14.77
10.68
6.8
3.04
-0.82
-5.1
-10.19
-16.37
-23.74
-31.99
-40.32
-47.55
-52.41
-53.94
-51.93
-46.97
-40.34
-33.56
-27.96
-24.32
-22.77
-22.88
-23.88
-24.86
-25.03
-23.92
-21.46
-18.05
-14.35
-11.05
-8.64
-7.27
-6.79
-6.95
-7.53
-8.39
-9.43
-10.48
-11.35
-11.86
-11.98
-11.92
-11.97
-12.36
-13.17
-14.23
-15.3
-16.17
-16.83
-17.38
-17.93
-18.54
-19.15
-19.67
-20.06
-20.37
-20.68
-21.06
-21.5
-21.91
-22.09
-21.75
-20.66
-18.7
-15.93
-12.66
-9.31
-6.29
-3.87
-2.08
-0.79
0.1
0.68
0.92
0.77
0.26
-0.46
-1.16
-1.6
-1.63
-1.24
-0.56
0.22
0.89
1.33
1.53
1.61
1.73
1.98
2.38
2.84
3.25
3.52
3.67
3.81
4.0
4.32
4.73
5.09
5.3
5.22
4.85
4.25
3.52
2.75
2.04
1.45
1.01
0.7
0.51
0.43
0.49
0.75
1.25
2.02
3.04
4.29
5.75
7.4
9.2
11.05
12.85
14.46
15.79
16.83
17.64
18.33
18.9
19.33
19.51
19.32
18.67
17.55
16.0
14.16
12.19
10.21
8.32
6.52
4.81
3.14
1.54
0.03
-1.42
-2.84
-4.3
-5.8
-7.29
-8.62
-9.64
-10.31
-10.75
-11.17
-11.77
-12.66
-13.81
-15.12
-16.48
-17.83
-19.17
-20.42
-21.51
-22.35
-22.93
-23.33
-23.74
-24.3
-25.08
-25.94
-26.72
-27.22
-27.36
-27.24
-27.07
-27.09
-27.48
-28.33
-29.58
-31.08
-32.64
-34.09
-35.33
-36.32
-37.13
-37.85
-38.56
-39.31
-40.05
-40.67
-41.05
-41.18
-41.19
-41.4
-42.23
-44.11
-47.32
-52.0
-57.89
-64.38
-70.42
-74.62
-75.69
-72.77
-65.88
-55.93
-44.35
-32.61
-21.64
-11.71
-2.57
6.12
14.43
22.11
28.7
33.83
37.46
39.83
41.33
42.23
42.65
42.47
41.61
40.05
37.99
35.75
33.74
32.18
31.04
30.0
28.53
26.11
22.53
17.89
12.56
7.05
1.7
-3.43
-8.52
-13.91
-19.95
-26.82
-34.44
-42.37
-49.73
-55.22
-57.35
-54.92
-47.51
-35.72
-21.11
-5.67
8.86
21.41
31.77
40.25
47.3
53.11
57.57
60.42
61.5
60.96
59.2
56.76
54.05
51.24
48.24
44.88
41.05
36.89
32.72
28.97
25.89
23.47
21.38
19.08
16.11
12.21
7.49
2.37
-2.61
-7.02
-10.69
-13.82
-16.84
-20.31
-24.75
-30.46
-37.36
-44.88
-51.95
-57.13
-59.01
-56.6
-49.73
-39.15
-26.34
-13.01
-0.63
9.89
18.24
24.56
29.15
32.26
34.08
34.73
34.39
33.37
32.04
30.84
30.01
29.61
29.44
29.17
28.48
27.17
25.19
22.62
19.62
16.36
12.97
9.55
6.15
2.75
-0.73
-4.4
-8.28
-12.26
-16.16
-19.72
-22.83
-25.57
-28.25
-31.29
-35.13
-40.03
-45.98
-52.55
-58.83
-63.51
-65.09
-62.34
-54.72
-42.7
-27.69
-11.71
3.33
16.1
26.14
33.68
39.31
43.48
46.31
47.69
47.46
45.66
42.64
38.95
35.22
31.88
29.17
27.06
25.45
24.16
23.08
22.1
21.17
20.19
19.07
17.69
15.98
13.87
11.33
8.32
4.86
1.01
-3.08
-7.21
-11.17
-14.89
-18.43
-22.01
-25.93
-30.51
-35.94
-42.27
-49.12
-55.71
-60.68
-62.5
-59.81
-51.98
-39.56
-24.11
-7.78
7.35
19.91
29.41
36.13
40.68
43.62
45.26
45.75
45.21
43.87
42.14
40.44
39.13
38.34
37.94
37.61
37.06
36.09
34.7
33.04
31.31
29.55
27.69
25.51
22.84
19.6
15.81
11.56
6.99
2.25
-2.47
-6.94
-10.95
-14.43
-17.45
-20.27
-23.21
-26.58
-30.57
-35.27
-40.64
-46.22
-51.15
-54.09
-53.55
-48.49
-38.76
-25.4
-10.3
4.39
17.02
26.84
33.94
38.91
42.37
44.65
45.88
46.08
45.43
44.19
42.68
41.08
39.38
37.42
35.09
32.42
29.59
26.85
24.4
22.22
20.1
17.74
14.89
11.51
7.74
3.89
0.22
-3.2
-6.48
-9.82
-13.41
-17.28
-21.31
-25.3
-29.02
-32.32
-35.14
-37.53
-39.73
-42.08
-44.99
-48.67
-52.84
-56.54
-58.24
-56.27
-49.47
-37.76
-22.3
-5.08
11.71
26.46
38.47
47.91
55.43
61.79
67.58
73.17
78.88
84.95
91.57
98.74
106.31
114.04
121.67
128.99
135.69
141.31
145.11
146.29
144.22
138.67
129.87
118.42
105.04
90.38
74.95
59.15
43.38
27.97
13.23
-0.62
-13.43
-25.05
-35.19
-43.52
-49.84
-54.22
-57.24
-59.97
-63.55
-68.8
-75.69
-83.22
-89.59
-92.92
-91.85
-86.12
-76.66
-65.24
-53.86
-44.23
-37.35
-33.66
-33.16
-35.69
-40.96
-48.49
-57.49
-66.88
-75.51
-82.52
-87.56
-90.91
-93.36
-95.86
-99.26
-103.96
-109.89
-116.58
-123.27
-129.19
-133.78
-136.95
-139.15
-141.38
-144.93
-150.95
-160.0
-171.71
-184.68
-196.87
-206.18
-211.15
-211.34
-207.38
-200.67
-192.72
-184.59
-176.51
-167.69
-156.67
-141.81
-121.99
-97.16
-68.58
-38.57
-9.84
15.29
35.43
50.41
60.94
68.16
73.23
77.01
80.07
82.73
85.2
87.61
90.14
92.88
95.87
98.95
101.77
103.87
104.9
104.8
103.84
102.42
100.74
98.56
95.21
89.86
81.95
71.55
59.35
46.4
33.7
21.86
10.9
0.37
-10.4
-22.02
-34.86
-49.01
-64.37
-80.65
-97.17
-112.79
-125.64
-133.43
-134.04
-126.36
-110.85
-89.36
-64.36
-37.8
-10.46
17.95
47.86
78.84
108.97
135.33
155.06
166.56
170.05
167.29
160.8
153.05
146.05
141.28
139.8
142.09
147.78
155.57
163.5
169.55
172.49
172.21
169.65
166.09
162.46
158.93
154.93
149.67
142.49
133.1
121.55
108.08
93.12
77.27
61.35
46.38
33.31
22.72
14.72
8.89
4.38
0.28
-4.24
-9.79
-16.77
-25.37
-35.45
-46.41
-57.05
-65.61
-70.21
-69.43
-62.81
-51.11
-36.13
-20.11
-5.14
7.4
16.86
23.24
26.83
27.96
26.99
24.33
20.56
16.38
12.42
9.08
6.39
4.1
1.84
-0.61
-3.29
-6.04
-8.75
-11.4
-14.16
-17.28
-20.93
-25.11
-29.7
-34.46
-39.26
-44.07
-49.07
-54.58
-60.92
-68.21
-76.08
-83.49
-88.84
-90.4
-86.86
-77.87
-64.31
-47.94
-30.82
-14.67
-0.48
11.5
21.37
29.28
35.28
39.35
41.67
42.62
42.73
42.5
42.13
41.54
40.46
38.69
36.28
33.56
30.91
28.61
26.66
24.75
22.46
19.49
15.73
11.37
6.7
2.04
-2.49
-6.97
-11.68
-17.09
-23.66
-31.65
-40.8
-50.14
-58.09
-62.8
-62.76
-57.37
-47.3
-34.27
-20.48
-7.92
2.15
9.43
14.3
17.46
19.49
20.74
21.29
21.11
20.21
18.79
17.11
15.49
14.12
13.03
12.09
11.11
9.92
8.43
6.66
4.65
2.45
0.02
-2.71
-5.8
-9.35
-13.43
-18.15
-23.66
-30.14
-37.65
-45.99
-54.48
-61.9
-66.71
-67.41
-63.04
-53.6
-40.19
-24.6
-8.86
5.37
17.2
26.46
33.43
38.48
41.94
43.94
44.57
43.95
42.35
40.14
37.82
35.88
34.79
34.92
36.42
39.19
42.76
46.31
48.85
49.36
47.13
41.95
34.19
24.71
14.56
4.68
-4.39
-12.57
-20.2
-27.76
-35.51
-43.27
-50.22
-55.11
-56.55
-53.64
-46.27
-35.34
-22.44
-9.43
2.18
11.54
18.52
23.48
26.88
29.08
30.26
30.52
30.06
29.16
28.11
27.08
26.07
24.89
23.3
21.1
18.18
14.54
10.3
5.67
0.94
-3.55
-7.46
-10.56
-12.84
-14.55
-16.13
-18.06
-20.72
-24.4
-29.26
-35.24
-42.0
-48.71
-54.09
-56.69
-55.29
-49.38
-39.41
-26.73
-13.11
-0.2
10.87
19.66
26.27
31.07
34.48
36.84
38.34
39.1
39.21
38.75
37.8
36.45
34.76
32.74
30.42
27.86
25.2
22.58
20.13
17.83
15.47
12.74
9.36
5.21
0.46
-4.49
-9.22
-13.38
-16.95
-20.2
-23.67
-27.93
-33.35
-39.8
-46.47
-52.01
-54.77
-53.37
-47.19
-36.68
-23.25
-8.83
4.75
16.24
25.16
31.61
35.96
38.54
39.58
39.25
37.86
35.86
33.79
32.02
30.69
29.6
28.42
26.84
24.77
22.42
20.14
18.3
17.08
16.35
15.69
14.6
12.61
9.51
5.45
0.84
-3.75
-7.8
-11.01
-13.41
-15.3
-17.25
-19.84
-23.55
-28.52
-34.36
-40.08
-44.28
-45.43
-42.49
-35.23
-24.49
-11.87
0.73
11.73
20.18
25.84
29.0
30.16
29.83
28.42
26.34
23.97
21.69
19.8
18.4
17.37
16.52
15.59
14.47
13.21
12.01
11.12
10.65
10.49
10.29
9.64
8.21
5.88
2.82
-0.59
-3.99
-7.14
-9.91
-12.4
-14.82
-17.52
-20.87
-25.17
-30.38
-35.92
-40.66
-43.17
-42.15
-36.94
-27.75
-15.66
-2.18
11.15
23.11
32.96
40.31
45.03
47.18
46.92
44.63
40.88
36.36
31.73
27.47
23.79
20.67
17.97
15.53
13.3
11.32
9.64
8.17
6.67
4.83
2.39
-0.66
-4.12
-7.6
-10.79
-13.57
-16.06
-18.62
-21.75
-25.98
-31.63
-38.66
-46.5
-53.94
-59.44
-61.46
-59.06
-52.31
-42.25
-30.64
-19.29
-9.55
-2.03
3.32
6.92
9.22
10.61
11.32
11.61
11.73
11.92
12.28
12.69
12.87
12.5
11.47
9.91
8.19
6.76
5.93
5.73
5.83
5.69
4.78
2.76
-0.36
-4.27
-8.45
-12.42
-15.88
-18.84
-21.62
-24.71
-28.66
-33.77
-39.88
-46.21
-51.44
-53.97
-52.49
-46.5
-36.54
-24.11
-11.12
0.65
10.18
17.19
22.05
25.34
27.55
28.91
29.52
29.46
28.87
27.98
26.99
25.99
24.93
23.72
22.23
20.43
18.38
16.25
14.25
12.61
11.45
10.67
10.01
9.06
7.43
4.97
1.79
-1.72
-5.13
-8.15
-10.81
-13.4
-16.4
-20.16
-24.88
-30.41
-36.28
-41.67
-45.55
-46.81
-44.61
-38.65
-29.38
-17.92
-5.8
5.53
15.05
22.42
27.81
31.69
34.51
36.46
37.55
37.72
37.05
35.73
34.09
32.4
30.8
29.27
27.72
26.07
24.37
22.78
21.53
20.8
20.58
20.71
20.83
20.48
19.27
17.0
13.75
9.87
5.81
1.92
-1.76
-5.49
-9.74
-14.9
-21.17
-28.45
-36.42
-44.56
-52.22
-58.57
-62.71
-63.85
-61.62
-56.33
-49.03
-41.21
-34.31
-29.29
-26.46
-25.57
-26.21
-28.06
-31.02
-35.01
-39.79
-44.82
-49.35
-52.61
-54.09
-53.68
-51.53
-47.94
-43.16
-37.3
-30.37
-22.41
-13.62
-4.44
4.39
11.98
17.42
20.01
19.53
16.33
11.31
5.7
0.72
-2.78
-4.54
-4.94
-4.69
-4.59
-5.12
-6.16
-6.93
-6.12
-2.24
5.79
18.03
33.08
48.03
58.93
61.81
53.79
34.23
5.24
-28.39
-60.24
-83.84
-94.39
-90.21
-73.0
-47.24
-18.43
8.63
31.23
48.95
62.92
74.54
84.41
91.98
95.96
95.08
88.75
77.17
61.2
42.21
22.05
3.06
-12.26
-22.03
-26.11
-26.55
-27.03
-31.23
-40.98
-55.17
-70.21
-81.85
-87.28
-86.29
-80.92
-73.83
-66.61
-59.0
-49.34
-35.93
-18.34
2.11
22.81
41.06
55.2
65.13
72.06
77.51
82.44
86.6
88.81
87.69
82.66
74.42
64.71
55.6
48.55
43.88
40.85
38.33
35.45
32.08
28.67
25.82
23.73
22.11
20.23
17.42
13.39
8.43
3.14
-1.69
-5.5
-7.98
-9.17
-9.39
-9.07
-8.8
-9.12
-10.44
-12.82
-15.82
-18.53
-19.78
-18.61
-14.58
-8.05
-0.03
8.13
15.25
20.62
24.13
26.05
26.8
26.69
25.79
24.1
21.61
18.49
15.06
11.67
8.57
5.82
3.3
0.78
-1.88
-4.7
-7.56
-10.27
-12.66
-14.7
-16.49
-18.22
-20.06
-22.1
-24.35
-26.7
-28.98
-31.02
-32.67
-33.86
-34.6
-35.02
-35.32
-35.73
-36.48
-37.76
-39.65
-41.97
-44.26
-45.72
-45.44
-42.62
-36.94
-28.73
-18.91
-8.72
0.68
8.49
14.43
18.56
21.12
22.32
22.31
21.26
19.44
17.21
14.95
13.0
11.55
10.56
9.86
9.2
8.4
7.4
6.22
4.85
3.24
1.24
-1.3
-4.36
-7.7
-10.82
-13.21
-14.54
-14.82
-14.4
-13.84
-13.71
-14.49
-16.51
-19.93
-24.62
-30.08
-35.34
-39.18
-40.31
-37.89
-31.78
-22.66
-11.71
-0.3
10.45
19.81
27.48
33.32
37.28
39.35
39.49
37.88
34.91
31.15
27.27
23.75
20.89
18.6
16.62
14.59
12.41
10.18
8.28
7.12
6.96
7.74
9.08
10.41
11.19
11.07
10.01
8.21
6.01
3.67
1.3
-1.25
-4.25
-8.03
-12.83
-18.67
-25.3
-32.08
-38.08
-42.32
-43.91
-42.42
-38.02
-31.46
-23.89
-16.43
-9.9
-4.69
-0.75
2.05
3.82
4.41
3.64
1.47
-1.89
-5.87
-9.84
-13.29
-16.11
-18.6
-21.27
-24.66
-29.02
-34.17
-39.42
-43.68
-45.63
-44.02
-38.13
-28.17
-15.43
-2.18
9.0
16.09
18.28
16.23
11.65
6.45
1.91
-1.7
-4.9
-8.51
-13.06
-18.61
-24.73
-30.91
-36.7
-41.8
-45.93
-48.83
-50.24
-50.09
-48.51
-45.97
-43.08
-40.46
-38.53
-37.43
-36.91
-36.46
-35.45
-33.33
-29.86
-25.24
-19.95
-14.59
-9.6
-5.2
-1.33
2.18
5.4
8.35
10.98
13.29
15.37
17.31
19.15
20.76
21.85
22.11
21.34
19.5
16.75
13.36
9.64
5.82
2.03
-1.74
-5.58
-9.68
-14.29
-19.64
-25.96
-33.28
-41.35
-49.59
-57.03
-62.5
-64.89
-63.5
-58.32
-49.97
-39.54
-28.16
-16.75
-5.81
4.42
13.76
22.07
29.18
34.99
39.63
43.38
46.6
49.57
52.35
54.82
56.78
58.08
58.74
58.98
59.14
59.52
60.27
61.34
62.42
63.12
63.05
62.01
59.97
57.01
53.29
48.82
43.43
36.8
28.46
18.07
5.56
-8.73
-24.07
-39.39
-53.43
-64.96
-72.89
-76.49
-75.4
-69.75
-60.07
-47.17
-31.98
-15.43
1.63
18.4
34.19
48.35
60.33
69.74
76.29
79.73
79.73
75.85
67.78
55.59
40.08
22.85
5.96
-8.52
-19.16
-25.5
-28.06
-27.98
-26.56
-24.87
-23.55
-22.89
-22.92
-23.55
-24.55
-25.55
-26.1
-25.83
-24.57
-22.53
-20.29
-18.62
-18.23
-19.54
-22.47
-26.43
-30.39
-33.11
-33.41
-30.47
-24.12
-14.73
-3.33
8.58
19.44
28.08
34.05
37.61
39.4
40.15
40.58
41.3
42.55
44.25
46.02
47.18
47.06
44.99
40.7
34.88
28.76
23.51
19.7
17.24
15.36
13.33
10.43
6.23
1.71
-1.92
-4.04
-4.7
-3.95
-1.76
2.55
8.75
15.45
22.58
29.8
35.93
39.3
39.35
36.65
34.06
33.5
34.87
39.5
46.85
53.39
53.74
44.42
25.7
4.46
-10.66
-11.81
11.05
64.13
146.23
248.32
357.11
457.78
540.27
597.46
599.26
531.0
406.04
261.37
132.34
43.27
-17.87
-63.75
-102.66
-138.92
-169.21
-189.62
-200.65
-207.84
-217.84
-236.09
-262.1
-293.85
-328.91
-361.05
-384.19
-394.96
-393.51
-381.69
-362.3
-335.89
-303.81
-268.39
-230.23
-190.11
-150.37
-114.74
-86.54
-67.7
-56.49
-50.0
-45.26
-38.78
-28.25
-13.45
3.93
21.32
36.21
47.61
55.23
59.31
60.84
60.99
60.61
60.03
59.19
57.78
55.65
52.58
48.46
43.41
37.89
32.45
27.48
22.99
18.52
13.42
7.06
-0.75
-9.58
-18.42
-25.91
-30.7
-31.82
-29.0
-22.74
-14.16
-4.6
4.77
13.19
20.41
26.5
31.59
35.79
39.07
41.38
42.76
43.33
43.36
43.08
42.62
41.92
40.86
39.29
37.26
34.96
32.77
30.97
29.67
28.69
27.63
25.97
23.33
19.61
15.03
10.05
5.22
0.97
-2.56
-5.48
-8.17
-11.08
-14.66
-19.18
-24.59
-30.46
-35.9
-39.76
-40.91
-38.62
-32.94
-24.65
-15.04
-5.5
2.97
9.9
15.3
19.47
22.72
25.23
27.06
28.26
28.92
29.17
29.19
29.09
28.95
28.72
28.31
27.59
26.48
25.0
23.3
21.67
20.35
19.47
18.86
18.04
16.43
13.54
9.26
3.91
-1.88
-7.45
-12.44
-16.92
-21.31
-26.16
-31.87
-38.57
-46.09
-53.99
-61.66
-68.31
-73.09
-75.26
-74.42
-70.7
-64.76
-57.61
-50.17
-42.94
-35.93
-28.76
-21.08
-12.76
-4.02
4.75
13.2
21.24
29.0
36.78
44.92
53.68
63.25
73.72
85.07
97.1
109.46
121.6
132.85
142.49
149.94
154.81
157.03
156.81
154.58
150.86
146.12
140.62
134.32
126.84
117.45
105.23
89.38
69.77
47.23
23.66
1.58
-16.72
-30.01
-38.57
-43.9
-48.0
-52.33
-57.23
-61.93
-65.14
-65.8
-63.63
-59.22
-53.62
-47.79
-42.18
-36.69
-30.98
-24.85
-18.54
-12.74
-8.24
-5.54
-4.6
-4.83
-5.52
-6.16
-6.79
-7.82
-9.73
-12.61
-16.02
-19.15
-21.17
-21.6
-20.52
-18.46
-16.15
-14.26
-13.2
-13.11
-13.87
-15.21
-16.82
-18.43
-19.96
-21.51
-23.29
-25.43
-27.81
-30.02
-31.59
-32.13
-31.65
-30.5
-29.22
-28.31
-28.06
-28.51
-29.53
-30.86
-32.12
-32.75
-32.12
-29.71
-25.28
-19.08
-11.83
-4.45
2.14
7.37
11.08
13.46
14.86
15.66
16.07
16.14
15.82
15.02
13.75
12.12
10.31
8.51
6.83
5.35
4.05
2.99
2.2
1.71
1.48
1.4
1.23
0.81
0.0
-1.19
-2.68
-4.37
-6.19
-8.1
-10.07
-12.04
-13.89
-15.49
-16.79
-17.84
-18.81
-20.02
-21.76
-24.19
-27.24
-30.49
-33.18
-34.35
-33.18
-29.32
-23.05
-15.23
-7.07
0.4
6.52
11.16
14.52
16.94
18.6
19.48
19.47
18.55
16.91
14.96
13.17
11.95
11.43
11.47
11.71
11.73
11.22
10.04
8.32
6.29
4.21
2.27
0.56
-0.96
-2.46
-4.16
-6.26
-8.82
-11.72
-14.61
-17.14
-18.96
-20.04
-20.59
-21.06
-21.93
-23.57
-26.09
-29.28
-32.61
-35.29
-36.45
-35.33
-31.55
-25.24
-17.1
-8.2
0.31
7.47
12.78
16.2
18.08
18.91
19.14
19.01
18.6
17.84
16.68
15.16
13.45
11.73
10.17
8.79
7.5
6.19
4.81
3.42
2.2
1.33
0.85
0.61
0.28
-0.52
-2.04
-4.3
-7.05
-9.89
-12.47
-14.64
-16.5
-18.27
-20.21
-22.41
-24.87
-27.49
-30.2
-32.87
-35.25
-36.81
-36.84
-34.66
-29.94
-23.0
-14.71
-6.25
1.25
7.12
11.17
13.63
14.89
15.31
15.13
14.51
13.62
12.62
11.65
10.79
10.04
9.33
8.56
7.68
6.72
5.8
5.06
4.64
4.48
4.38
4.01
3.03
1.25
-1.23
-4.13
-7.0
-9.5
-11.51
-13.21
-15.0
-17.35
-20.6
-24.89
-29.93
-35.03
-39.19
-41.36
-40.68
-36.88
-30.31
-21.91
-12.88
-4.39
2.81
8.39
12.42
15.17
16.98
18.07
18.57
18.58
18.12
17.31
16.23
15.02
13.79
12.55
11.26
9.87
8.41
6.95
5.67
4.66
3.89
3.19
2.2
0.62
-1.67
-4.49
-7.44
-10.06
-12.02
-13.31
-14.23
-15.34
-17.16
-20.07
-24.16
-29.21
-34.62
-39.5
-42.78
-43.4
-40.7
-34.69
-26.1
-16.23
-6.47
2.09
8.96
14.22
18.22
21.3
23.6
25.1
25.73
25.55
24.74
23.59
22.35
21.24
20.37
19.78
19.43
19.22
18.94
18.37
17.34
15.85
14.06
12.18
10.34
8.51
6.45
3.98
1.03
-2.21
-5.41
-8.3
-10.79
-13.08
-15.48
-18.33
-21.79
-25.9
-30.66
-36.03
-41.73
-47.15
-51.26
-52.86
-50.95
-45.28
-36.42
-25.66
-14.56
-4.43
4.04
10.75
16.0
20.12
23.33
25.7
27.29
28.23
28.77
29.18
29.6
30.03
30.33
30.36
30.08
29.57
28.96
28.31
27.52
26.43
24.9
22.9
20.52
17.91
15.19
12.44
9.72
7.08
4.62
2.4
0.34
-1.76
-4.12
-6.92
-10.08
-13.36
-16.47
-19.24
-21.76
-24.38
-27.55
-31.68
-36.93
-43.06
-49.37
-54.7
-57.73
-57.31
-52.86
-44.67
-33.84
-22.05
-10.92
-1.56
5.71
11.2
15.55
19.29
22.57
25.25
27.04
27.84
27.8
27.33
26.93
26.96
27.55
28.58
29.73
30.7
31.24
31.24
30.71
29.72
28.31
26.51
24.22
21.32
17.7
13.35
8.5
3.49
-1.27
-5.47
-9.08
-12.31
-15.48
-18.93
-22.88
-27.43
-32.55
-38.05
-43.51
-48.18
-51.11
-51.29
-48.07
-41.45
-32.15
-21.44
-10.69
-0.99
7.1
13.55
18.63
22.7
25.95
28.36
29.85
30.48
30.41
30.0
29.61
29.45
29.53
29.61
29.42
28.75
27.61
26.23
24.92
23.88
23.1
22.24
20.82
18.4
14.84
10.35
5.44
0.75
-3.33
-6.72
-9.73
-12.81
-16.42
-20.79
-25.94
-31.61
-37.24
-41.98
-44.78
-44.67
-41.02
-33.88
-24.06
-12.9
-1.82
8.09
16.29
22.78
27.8
31.64
34.44
36.26
37.18
37.28
36.73
35.64
34.11
32.2
30.01
27.77
25.69
24.01
22.83
22.07
21.44
20.6
19.26
17.3
14.83
12.11
9.49
7.15
5.1
3.16
1.03
-1.46
-4.34
-7.42
-10.47
-13.25
-15.69
-17.9
-20.18
-22.9
-26.46
-31.1
-36.81
-43.15
-49.24
-53.82
-55.59
-53.6
-47.62
-38.34
-27.14
-15.67
-5.3
3.27
9.99
15.28
19.58
23.11
25.87
27.71
28.63
28.81
28.57
28.2
27.85
27.5
27.06
26.51
25.93
25.48
25.27
25.3
25.34
25.12
24.34
22.86
20.72
18.12
15.33
12.62
10.18
8.07
6.23
4.47
2.52
0.14
-2.78
-6.14
-9.62
-12.86
-15.61
-17.86
-19.92
-22.35
-25.7
-30.35
-36.2
-42.6
-48.38
-52.16
-52.72
-49.4
-42.41
-32.7
-21.76
-11.04
-1.62
6.07
12.16
17.06
21.11
24.52
27.28
29.32
30.7
31.61
32.31
33.03
33.8
34.49
34.84
34.7
34.08
33.14
32.17
31.35
30.67
30.01
29.09
27.71
25.79
23.38
20.66
17.75
14.73
11.62
8.43
5.23
2.15
-0.63
-3.06
-5.19
-7.28
-9.56
-12.26
-15.36
-18.72
-22.06
-25.15
-27.85
-30.19
-32.36
-34.69
-37.5
-41.09
-45.46
-50.22
-54.42
-56.81
-56.09
-51.42
-42.76
-30.94
-17.44
-3.91
8.26
18.23
25.79
31.14
34.71
36.92
38.14
38.63
38.6
38.26
37.79
37.3
36.79
36.12
35.15
33.77
31.97
29.89
27.76
25.78
24.06
22.55
21.1
19.57
17.84
15.87
13.68
11.31
8.8
6.19
3.61
1.19
-0.92
-2.7
-4.21
-5.68
-7.34
-9.39
-11.83
-14.54
-17.28
-19.82
-22.03
-23.88
-25.49
-27.03
-28.77
-31.02
-34.05
-37.98
-42.53
-46.98
-50.22
-51.08
-48.67
-42.79
-34.0
-23.47
-12.67
-2.86
5.14
11.09
15.22
17.98
19.85
21.18
22.11
22.68
22.86
22.72
22.42
22.2
22.27
22.64
23.19
23.65
23.77
23.46
22.81
22.02
21.23
20.41
19.33
17.74
15.46
12.56
9.27
5.98
2.97
0.36
-1.9
-3.98
-6.08
-8.32
-10.74
-13.24
-15.72
-18.0
-19.99
-21.66
-23.05
-24.32
-25.63
-27.17
-29.19
-31.89
-35.31
-39.24
-43.03
-45.73
-46.28
-43.88
-38.37
-30.29
-20.78
-11.14
-2.47
4.56
9.8
13.41
15.69
16.99
17.57
17.7
17.61
17.56
17.74
18.24
19.06
20.07
21.06
21.85
22.36
22.63
22.81
23.02
23.22
23.16
22.43
20.66
17.76
13.99
9.86
5.99
2.72
0.02
-2.42
-5.08
-8.27
-12.0
-16.02
-19.96
-23.54
-26.67
-29.44
-32.11
-34.87
-37.91
-41.27
-44.81
-48.14
-50.58
-51.25
-49.33
-44.35
-36.48
-26.54
-15.84
-5.75
2.65
8.84
12.88
15.19
16.33
16.79
16.92
16.93
16.91
16.9
16.9
16.9
16.91
16.95
17.04
17.18
17.33
17.4
17.34
17.13
16.75
16.18
15.32
14.04
12.18
9.7
6.66
3.29
-0.06
-3.06
-5.47
-7.21
-8.41
-9.33
-10.3
-11.62
-13.58
-16.34
-19.99
-24.36
-28.98
-32.97
-35.23
-34.71
-30.82
-23.68
-14.12
-3.5
6.85
15.87
23.02
28.24
31.75
33.89
34.99
35.31
35.08
34.47
33.7
33.02
32.68
32.91
33.77
35.15
36.76
38.19
39.11
39.38
39.04
38.27
37.25
36.02
34.49
32.5
29.96
26.84
23.24
19.3
15.09
10.57
5.61
0.06
-6.17
-13.06
-20.51
-28.33
-36.22
-43.74
-50.25
-54.92
-56.99
-55.94
-51.84
-45.36
-37.61
-29.8
-22.9
-17.43
-13.47
-10.84
-9.25
-8.49
-8.37
-8.8
-9.65
-10.79
-12.08
-13.35
-14.48
-15.37
-16.11
-16.82
-17.69
-18.76
-19.9
-20.83
-21.31
-21.31
-21.11
-21.15
-21.88
-23.43
-25.6
-27.95
-30.06
-31.66
-32.83
-33.86
-35.18
-37.26
-40.42
-44.79
-50.08
-55.58
-60.16
-62.53
-61.66
-57.12
-49.29
-39.25
-28.39
-17.99
-8.85
-1.22
5.08
10.38
14.93
18.85
22.17
24.96
27.35
29.48
31.45
33.19
34.6
35.58
36.18
36.64
37.28
38.31
39.73
41.23
42.31
42.46
41.35
38.92
35.42
31.3
27.11
23.29
20.04
17.23
14.43
11.03
6.46
0.53
-6.42
-13.44
-19.17
-22.26
-21.75
-17.46
-10.05
-0.83
8.68
17.18
23.89
28.61
31.54
33.08
33.53
33.1
31.88
29.96
27.44
24.42
20.97
17.04
12.61
7.67
2.42
-2.79
-7.5
-11.27
-13.93
-15.56
-16.56
-17.43
-18.59
-20.24
-22.34
-24.66
-26.93
-28.95
-30.69
-32.23
-33.86
-35.97
-39.03
-43.39
-49.03
-55.32
-60.94
-64.12
-63.16
-56.98
-45.6
-30.19
-12.73
4.61
20.08
32.7
42.34
49.41
54.54
58.28
60.95
62.68
63.61
63.91
63.83
63.62
63.35
62.9
61.98
60.27
57.52
53.72
49.06
43.86
38.51
33.36
28.69
24.63
21.18
18.19
15.36
12.35
8.89
4.91
0.55
-3.92
-8.17
-11.99
-15.27
-18.11
-20.7
-23.4
-26.57
-30.44
-34.91
-39.4
-42.83
-43.91
-41.66
-35.8
-26.99
-16.67
-6.52
2.13
8.61
12.99
15.75
17.42
18.34
18.59
18.21
17.36
16.37
15.66
15.55
16.12
17.18
18.31
19.08
19.19
18.51
17.15
15.43
13.64
12.06
10.72
9.42
7.81
5.53
2.39
-1.51
-5.78
-9.92
-13.52
-16.44
-18.86
-21.21
-23.94
-27.39
-31.67
-36.58
-41.57
-45.81
-48.28
-48.04
-44.46
-37.5
-27.81
-16.57
-5.16
5.21
13.86
20.6
25.67
29.44
32.17
34.02
35.04
35.29
34.89
34.05
32.91
31.6
30.15
28.6
26.98
25.38
23.93
22.71
21.75
20.97
20.27
19.5
18.53
17.26
15.62
13.53
10.96
7.92
4.53
1.0
-2.39
-5.38
-7.83
-9.78
-11.53
-13.53
-16.26
-20.03
-24.83
-30.13
-34.98
-38.17
-38.63
-35.71
-29.52
-20.83
-10.9
-1.08
7.53
14.28
19.03
21.97
23.5
24.0
23.82
23.14
22.06
20.65
18.94
16.99
14.95
12.91
11.0
9.32
7.91
6.78
5.88
5.19
4.6
4.07
3.54
2.94
2.19
1.12
-0.46
-2.79
-5.97
-9.89
-14.2
-18.41
-22.08
-24.96
-27.18
-29.1
-31.2
-33.9
-37.37
-41.54
-46.2
-50.99
-55.47
-59.05
-60.98
-60.62
-57.65
-52.42
-45.85
-39.12
-33.02
-27.48
-21.56
-13.96
-3.79
8.83
22.76
36.38
48.37
58.32
66.73
74.46
82.19
89.84
96.6
101.25
102.58
99.75
92.56
81.52
67.8
53.03
38.95
26.9
17.52
10.49
4.85
-0.59
-6.73
-13.87
-21.68
-29.49
-36.56
-42.41
-46.86
-49.99
-51.99
-53.24
-54.07
-54.83
-55.71
-56.5
-56.56
-54.88
-50.37
-42.39
-31.14
-17.74
-4.08
7.82
16.39
20.99
21.92
20.13
16.87
13.2
9.89
7.32
5.64
4.76
4.42
4.25
3.81
2.84
1.28
-0.59
-2.35
-3.57
-4.05
-3.88
-3.44
-3.28
-3.86
-5.5
-8.15
-11.47
-14.87
-17.7
-19.46
-19.97
-19.46
-18.46
-17.7
-17.87
-19.43
-22.38
-26.22
-29.95
-32.32
-32.21
-28.97
-22.77
-14.46
-5.41
3.05
9.95
14.93
18.09
19.81
20.46
20.31
19.54
18.34
16.97
15.8
15.08
14.9
15.14
15.5
15.65
15.42
14.81
13.97
13.06
12.19
11.38
10.52
9.49
8.17
6.44
4.25
1.62
-1.35
-4.44
-7.45
-10.16
-12.52
-14.64
-16.7
-18.95
-21.61
-24.84
-28.71
-33.21
-38.13
-42.96
-46.86
-48.76
-47.74
-43.29
-35.62
-25.7
-14.94
-4.79
3.7
10.11
14.6
17.65
19.76
21.25
22.29
22.88
23.06
22.94
22.7
22.5
22.42
22.42
22.4
22.24
21.84
21.16
20.23
19.1
17.84
16.5
15.07
13.52
11.76
9.68
7.17
4.16
0.68
-3.16
-7.15
-11.03
-14.6
-17.79
-20.71
-23.62
-26.82
-30.61
-35.11
-40.13
-45.15
-49.3
-51.52
-50.87
-46.78
-39.42
-29.66
-18.83
-8.38
0.57
7.52
12.52
15.99
18.38
20.01
21.02
21.43
21.27
20.68
19.84
18.94
18.09
17.32
16.58
15.77
14.8
13.62
12.27
10.84
9.55
8.56
7.95
7.58
7.08
6.05
4.12
1.26
-2.33
-6.2
-10.0
-13.5
-16.75
-19.97
-23.46
-27.46
-32.1
-37.35
-42.95
-48.28
-52.43
-54.32
-52.98
-47.98
-39.55
-28.7
-16.87
-5.52
4.21
11.78
17.19
20.81
23.09
24.42
25.01
24.92
24.26
23.23
22.11
21.18
20.61
20.33
20.09
19.53
18.45
16.88
15.12
13.58
12.54
11.98
11.55
10.67
8.84
5.81
1.8
-2.7
-7.06
-10.84
-13.93
-16.58
-19.23
-22.35
-26.3
-31.18
-36.86
-42.93
-48.64
-52.99
-54.91
-53.54
-48.59
-40.47
-30.27
-19.43
-9.24
-0.54
6.41
11.83
16.09
19.51
22.21
24.2
25.5
26.28
26.79
27.32
28.0
28.75
29.3
29.37
28.73
27.38
25.48
23.29
21.1
19.09
17.29
15.54
13.56
10.98
7.56
3.3
-1.53
-6.42
-10.87
-14.61
-17.73
-20.68
-24.06
-28.39
-33.87
-40.25
-46.83
-52.58
-56.24
-56.68
-53.18
-45.77
-35.24
-22.96
-10.49
0.95
10.69
18.65
25.05
30.14
34.03
36.71
38.21
38.8
38.9
38.95
39.21
39.59
39.7
39.08
37.4
34.63
31.1
27.3
23.72
20.59
17.83
15.11
12.03
8.31
3.95
-0.81
-5.5
-9.68
-13.04
-15.56
-17.52
-19.43
-21.8
-25.04
-29.24
-34.1
-38.82
-42.3
-43.29
-40.81
-34.52
-24.96
-13.43
-1.66
8.77
16.86
22.39
25.72
27.47
28.13
27.85
26.57
24.23
20.98
17.25
13.64
10.74
8.9
8.2
8.51
9.55
11.09
12.98
15.21
17.8
20.75
23.88
26.87
29.35
30.96
31.57
31.26
30.22
28.63
26.5
23.56
19.41
13.77
6.66
-1.51
-9.95
-17.79
-24.31
-29.14
-32.38
-34.59
-36.53
-39.0
-42.63
-47.68
-53.94
-60.63
-66.39
-69.63
-68.86
-63.29
-53.08
-39.41
-24.12
-9.13
4.13
14.94
23.32
29.62
34.28
37.61
39.77
40.92
41.28
41.17
40.93
40.75
40.7
40.67
40.49
40.0
39.22
38.23
37.21
36.31
35.52
34.74
33.77
32.39
30.47
27.95
24.98
21.74
18.53
15.6
13.13
11.12
9.39
7.63
5.5
2.73
-0.77
-4.85
-9.22
-13.55
-17.55
-21.13
-24.37
-27.55
-31.06
-35.29
-40.48
-46.49
-52.68
-57.83
-60.44
-59.13
-53.18
-42.9
-29.56
-15.09
-1.39
10.16
18.98
25.24
29.5
32.38
34.3
35.46
35.94
35.84
35.44
35.06
35.05
35.56
36.52
37.61
38.52
39.01
39.06
38.83
38.54
38.28
38.01
37.5
36.49
34.8
32.37
29.29
25.76
22.06
18.48
15.23
12.41
9.97
7.71
5.34
2.63
-0.5
-3.97
-7.54
-10.91
-13.86
-16.31
-18.39
-20.38
-22.67
-25.6
-29.45
-34.18
-39.36
-44.07
-47.07
-47.1
-43.36
-35.85
-25.46
-13.67
-2.04
8.24
16.61
23.03
27.7
30.83
32.56
32.99
32.43
31.35
30.34
29.85
30.08
30.92
32.03
33.02
33.57
33.53
32.94
31.93
30.71
29.46
28.3
27.2
26.03
24.5
22.28
19.15
15.13
10.52
5.91
1.91
-1.11
-3.19
-4.72
-6.28
-8.3
-10.94
-13.98
-17.05
-19.79
-22.05
-23.95
-25.76
-27.78
-30.29
-33.4
-37.1
-41.16
-45.11
-48.27
-49.75
-48.73
-44.75
-37.85
-28.75
-18.58
-8.6
0.16
7.14
12.25
15.74
17.94
19.15
19.68
19.76
19.69
19.68
19.84
20.11
20.28
20.15
19.55
18.5
17.1
15.48
13.77
11.96
9.98
7.78
5.26
2.45
-0.66
-4.0
-7.47
-10.88
-14.03
-16.7
-18.74
-20.1
-20.84
-21.13
-21.17
-21.16
-21.29
-21.66
-22.3
-23.13
-24.01
-24.76
-25.23
-25.43
-25.45
-25.48
-25.78
-26.52
-27.77
-29.32
-30.7
-31.17
-29.88
-26.14
-19.67
-10.73
-0.06
11.25
22.1
31.59
39.14
44.46
47.53
48.47
47.62
45.48
42.68
39.97
38.06
37.52
38.64
41.38
45.34
49.89
54.36
58.21
61.14
63.14
64.42
65.22
65.74
65.95
65.6
64.23
61.32
56.47
49.49
40.49
29.87
18.24
6.27
-5.36
-16.12
-25.64
-33.75
-40.48
-45.96
-50.37
-53.86
-56.59
-58.68
-60.35
-61.89
-63.62
-65.89
-68.93
-72.72
-76.9
-80.72
-83.24
-83.55
-81.09
-75.93
-68.78
-60.79
-53.21
-47.1
-43.12
-41.45
-41.89
-43.92
-46.83
-49.73
-51.75
-52.23
-50.84
-47.65
-43.0
-37.3
-30.88
-23.96
-16.7
-9.33
-2.19
4.34
9.97
14.64
18.43
21.54
24.07
25.97
27.09
27.26
26.45
24.83
22.67
20.24
17.82
15.55
13.47
11.58
9.84
8.21
6.7
5.39
4.35
3.65
3.16
2.6
1.56
-0.39
-3.49
-7.66
-12.45
-17.12
-20.83
-22.86
-22.81
-20.67
-16.87
-12.15
-7.34
-3.14
-0.0
1.94
2.75
2.6
1.65
0.1
-1.81
-3.71
-5.14
-5.68
-5.02
-3.16
-0.31
3.15
6.76
10.13
12.94
15.07
16.47
17.19
17.32
16.9
15.99
14.66
13.0
11.19
9.43
7.9
6.59
5.34
3.9
2.01
-0.35
-3.03
-5.71
-8.04
-9.85
-11.18
-12.22
-13.29
-14.65
-16.51
-18.94
-21.96
-25.45
-29.11
-32.46
-34.81
-35.42
-33.78
-29.82
-23.96
-17.03
-9.98
-3.61
1.58
5.47
8.21
10.07
11.31
12.18
12.84
13.42
13.96
14.5
14.99
15.38
15.63
15.68
15.51
15.11
14.53
13.83
13.06
12.26
11.4
10.44
9.35
8.14
6.84
5.45
3.94
2.24
0.29
-1.93
-4.34
-6.83
-9.25
-11.58
-13.75
-15.76
-17.62
-19.39
-21.25
-23.42
-26.08
-29.07
-31.85
-33.5
-33.02
-29.78
-23.8
-15.82
-7.07
1.23
8.2
13.5
17.2
19.61
21.05
21.72
21.75
21.29
20.54
19.76
19.15
18.78
18.62
18.52
18.41
18.28
18.27
18.56
19.3
20.52
22.09
23.76
25.25
26.36
27.03
27.36
27.58
27.89
28.36
28.85
29.06
28.66
27.46
25.48
23.07
20.62
18.49
16.83
15.55
14.41
13.1
11.38
9.02
5.83
1.71
-3.28
-8.77
-14.11
-18.47
-21.17
-21.9
-20.91
-18.88
-16.63
-14.88
-14.08
-14.37
-15.69
-17.92
-20.79
-23.89
-26.73
-28.77
-29.65
-29.3
-27.95
-25.89
-23.35
-20.4
-16.94
-12.93
-8.44
-3.72
0.92
5.17
8.84
11.81
14.07
15.67
16.67
17.23
17.47
17.49
17.25
16.64
15.53
13.87
11.73
9.24
6.54
3.65
0.51
-2.97
-6.78
-10.75
-14.56
-17.86
-20.46
-22.39
-23.96
-25.59
-27.78
-30.83
-34.82
-39.54
-44.48
-48.93
-52.06
-53.08
-51.48
-47.12
-40.42
-32.21
-23.54
-15.39
-8.41
-2.84
1.44
4.66
7.01
8.53
9.23
9.24
8.97
9.02
10.03
12.39
16.07
20.72
25.75
30.65
35.19
39.36
43.29
47.05
50.57
53.59
55.87
57.26
57.81
57.77
57.45
57.13
56.94
56.84
56.68
56.21
55.15
53.2
50.1
45.7
39.95
33.02
25.16
16.67
7.81
-1.28
-10.49
-19.79
-29.11
-38.3
-47.25
-55.87
-64.12
-71.82
-78.6
-83.75
-86.37
-85.66
-81.22
-73.33
-62.94
-51.44
-40.22
-30.3
-22.13
-15.62
-10.39
-5.97
-2.05
1.52
4.75
7.59
10.01
12.07
13.83
15.39
16.84
18.2
19.46
20.52
21.33
21.83
22.05
22.08
22.01
21.84
21.56
21.07
20.23
18.96
17.24
15.11
12.68
10.12
7.63
5.38
3.45
1.78
0.18
-1.57
-3.66
-6.08
-8.66
-11.23
-13.66
-15.92
-18.12
-20.42
-22.94
-25.81
-29.14
-33.04
-37.45
-41.95
-45.73
-47.68
-46.75
-42.39
-34.83
-25.06
-14.48
-4.54
3.79
10.06
14.38
17.15
18.86
19.92
20.62
21.13
21.57
22.04
22.63
23.36
24.19
25.01
25.61
25.87
25.72
25.26
24.71
24.24
23.97
23.84
23.63
23.1
22.08
20.54
18.6
16.48
14.43
12.59
11.02
9.65
8.32
6.86
5.21
3.39
1.57
-0.04
-1.34
-2.31
-3.1
-3.93
-5.03
-6.56
-8.56
-10.98
-13.67
-16.45
-19.15
-21.66
-23.98
-26.24
-28.65
-31.49
-35.06
-39.45
-44.48
-49.54
-53.62
-55.57
-54.38
-49.61
-41.58
-31.36
-20.34
-9.9
-0.96
6.12
11.41
15.21
17.84
19.54
20.52
21.0
21.27
21.57
22.05
22.73
23.49
24.2
24.8
25.29
25.76
26.23
26.66
26.9
26.71
25.87
24.23
21.82
18.82
15.54
12.33
9.44
6.96
4.75
2.52
-0.03
-3.07
-6.54
-10.17
-13.69
-16.85
-19.57
-21.94
-24.13
-26.42
-29.12
-32.52
-36.78
-41.71
-46.65
-50.51
-52.04
-50.24
-44.74
-36.02
-25.32
-14.23
-4.25
3.65
9.21
12.76
14.97
16.46
17.65
18.66
19.47
20.13
20.81
21.74
23.13
24.93
26.86
28.53
29.63
30.12
30.18
30.16
30.26
30.5
30.68
30.49
29.65
28.04
25.72
22.93
19.96
17.13
14.63
12.45
10.43
8.22
5.5
2.11
-1.87
-6.16
-10.39
-14.31
-17.88
-21.33
-24.97
-29.2
-34.28
-40.32
-47.17
-54.32
-60.88
-65.6
-67.18
-64.69
-57.91
-47.54
-35.03
-22.11
-10.29
-0.46
7.2
13.01
17.49
21.11
24.17
26.81
29.11
31.15
33.0
34.73
36.37
37.86
39.12
40.04
40.6
40.85
40.95
41.07
41.29
41.44
41.07
39.56
36.29
30.99
23.89
15.74
7.61
0.52
-4.87
-8.43
-10.58
-12.01
-13.42
-15.24
-17.52
-20.04
-22.48
-24.6
-26.37
-28.01
-29.86
-32.27
-35.58
-39.92
-45.22
-50.97
-56.21
-59.67
-60.0
-56.29
-48.37
-36.98
-23.59
-9.88
2.71
13.25
21.42
27.32
31.29
33.8
35.25
36.07
36.66
37.32
38.22
39.34
40.5
41.36
41.55
40.76
38.91
36.16
32.95
29.86
27.33
25.54
24.29
23.13
21.61
19.53
16.97
14.29
11.83
9.7
7.71
5.46
2.52
-1.3
-5.89
-10.81
-15.52
-19.59
-22.89
-25.67
-28.45
-31.91
-36.58
-42.68
-49.96
-57.6
-64.39
-68.87
-69.72
-66.17
-58.27
-46.88
-33.51
-19.84
-7.33
3.08
11.0
16.53
20.03
21.99
22.92
23.25
23.3
23.29
23.32
23.42
23.61
23.91
24.29
24.7
25.0
25.08
24.84
24.27
23.42
22.37
21.14
19.73
18.04
15.89
13.11
9.57
5.31
0.52
-4.47
-9.28
-13.62
-17.38
-20.64
-23.67
-26.8
-30.36
-34.6
-39.66
-45.43
-51.49
-56.93
-60.55
-61.08
-57.61
-49.95
-38.87
-25.81
-12.59
-0.72
8.9
16.14
21.49
25.6
28.98
31.82
34.02
35.44
36.08
36.15
35.98
35.83
35.76
35.64
35.31
34.72
33.97
33.3
32.81
32.43
31.86
30.73
28.76
25.98
22.65
19.16
15.9
13.05
10.48
7.88
4.83
1.07
-3.33
-8.02
-12.53
-16.46
-19.81
-22.95
-26.55
-31.29
-37.62
-45.47
-54.16
-62.49
-68.87
-71.79
-70.14
-63.69
-53.07
-39.75
-25.53
-12.0
-0.18
9.6
17.56
24.13
29.64
34.22
37.88
40.61
42.51
43.81
44.78
45.64
46.42
47.05
47.39
47.4
47.17
46.9
46.75
46.75
46.69
46.19
44.87
42.39
38.76
34.2
29.23
24.39
20.08
16.4
13.14
9.86
6.11
1.65
-3.41
-8.61
-13.36
-17.17
-19.92
-21.88
-23.65
-25.93
-29.38
-34.38
-40.89
-48.36
-55.56
-60.82
-62.37
-59.02
-50.61
-38.22
-23.87
-9.79
2.28
11.57
18.24
22.99
26.63
29.62
32.17
34.27
35.94
37.27
38.34
39.24
39.91
40.25
40.12
39.48
38.39
37.01
35.6
34.37
33.41
32.61
31.73
30.41
28.36
25.48
21.89
17.94
14.06
10.58
7.59
4.98
2.42
-0.41
-3.69
-7.38
-11.23
-14.96
-18.32
-21.3
-24.06
-26.93
-30.3
-34.53
-39.88
-46.32
-53.42
-60.21
-65.31
-67.25
-64.97
-58.28
-47.93
-35.47
-22.64
-10.88
-1.03
6.74
12.65
17.03
20.19
22.37
23.84
24.91
25.92
27.13
28.6
30.23
31.75
32.94
33.7
34.09
34.28
34.33
34.2
33.65
32.36
30.09
26.83
22.79
18.39
14.06
10.09
6.58
3.37
0.18
-3.24
-7.02
-11.06
-15.12
-18.91
-22.23
-25.15
-27.96
-31.11
-35.09
-40.22
-46.43
-53.14
-59.21
-63.18
-63.63
-59.61
-51.13
-39.14
-25.37
-11.7
0.36
10.06
17.37
22.82
27.0
30.35
33.04
35.09
36.48
37.3
37.77
38.11
38.47
38.82
38.99
38.7
37.81
36.36
34.55
32.72
31.1
29.76
28.48
26.96
24.87
22.08
18.66
14.88
11.1
7.66
4.8
2.58
0.83
-0.74
-2.54
-4.91
-7.97
-11.59
-15.4
-18.99
-22.05
-24.52
-26.66
-28.94
-31.91
-36.04
-41.57
-48.3
-55.53
-62.04
-66.34
-67.04
-63.33
-55.29
-43.93
-30.9
-17.98
-6.56
2.61
9.44
14.34
17.87
20.58
22.86
24.93
26.84
28.5
29.81
30.7
31.18
31.36
31.33
31.16
30.85
30.39
29.83
29.25
28.77
28.37
27.9
27.04
25.44
22.89
19.43
15.4
11.32
7.68
4.77
2.56
0.74
-1.1
-3.34
-6.13
-9.32
-12.59
-15.63
-18.28
-20.57
-22.78
-25.28
-28.47
-32.68
-38.06
-44.5
-51.41
-57.72
-61.95
-62.62
-58.77
-50.38
-38.51
-24.98
-11.78
-0.42
8.42
14.85
19.47
22.96
25.73
27.88
29.35
30.07
30.1
29.68
29.06
28.43
27.87
27.34
26.74
26.06
25.36
24.76
24.33
23.97
23.36
22.09
19.84
16.56
12.53
8.28
4.4
1.21
-1.27
-3.37
-5.57
-8.22
-11.46
-15.11
-18.81
-22.15
-24.83
-26.82
-28.31
-29.77
-31.78
-34.88
-39.31
-44.86
-50.64
-55.32
-57.38
-55.64
-49.68
-40.06
-28.16
-15.69
-4.22
5.21
12.21
16.86
19.56
20.71
20.75
20.06
19.04
17.97
17.08
16.44
16.1
16.05
16.29
16.79
17.42
17.98
18.27
18.14
17.55
16.6
15.41
14.04
12.47
10.57
8.15
5.1
1.38
-2.92
-7.59
-12.36
-16.93
-21.0
-24.42
-27.18
-29.5
-31.79
-34.6
-38.36
-43.2
-48.73
-53.98
-57.66
-58.44
-55.45
-48.6
-38.6
-26.77
-14.65
-3.61
5.46
12.28
16.99
20.03
21.91
23.02
23.62
23.89
23.96
23.92
23.9
23.95
24.05
24.12
24.09
23.97
23.77
23.53
23.23
22.75
21.93
20.69
19.03
17.04
14.81
12.38
9.69
6.62
3.07
-0.98
-5.43
-10.13
-14.83
-19.32
-23.39
-26.98
-30.14
-33.17
-36.5
-40.64
-45.85
-51.89
-57.98
-62.75
-64.67
-62.56
-55.99
-45.54
-32.65
-19.15
-6.74
3.52
11.27
16.79
20.63
23.3
25.15
26.32
26.92
27.13
27.2
27.39
27.88
28.68
29.59
30.36
30.76
30.7
30.3
29.8
29.45
29.33
29.34
29.16
28.44
26.91
24.56
21.62
18.45
15.4
12.62
9.98
7.2
3.96
0.11
-4.28
-8.9
-13.33
-17.25
-20.49
-23.17
-25.6
-28.15
-31.22
-35.12
-40.05
-46.09
-53.01
-60.13
-66.22
-69.7
-69.07
-63.51
-53.28
-39.77
-25.09
-11.34
0.07
8.67
14.84
19.32
22.8
25.61
27.81
29.36
30.37
31.13
31.97
33.12
34.54
35.99
37.07
37.52
37.28
36.57
35.71
34.98
34.37
33.62
32.29
29.99
26.59
22.31
17.67
13.27
9.61
6.86
4.83
3.09
1.12
-1.39
-4.47
-7.86
-11.08
-13.75
-15.72
-17.17
-18.59
-20.59
-23.74
-28.44
-34.73
-42.2
-49.85
-56.25
-59.77
-59.06
-53.57
-43.84
-31.36
-18.13
-5.99
3.88
11.14
16.11
19.37
21.43
22.62
23.08
22.96
22.5
21.98
21.61
21.46
21.42
21.26
20.79
19.91
18.72
17.37
15.96
14.51
12.89
10.9
8.37
5.32
1.93
-1.52
-4.76
-7.7
-10.43
-13.24
-16.45
-20.26
-24.72
-29.64
-34.66
-39.42
-43.67
-47.36
-50.73
-54.18
-58.27
-63.45
-69.83
-77.0
-83.94
-89.25
-91.52
-89.72
-83.6
-73.64
-60.84
-46.37
-31.17
-15.82
-0.55
14.58
29.47
43.95
57.72
70.41
81.69
91.22
98.73
103.96
106.63
106.58
103.72
98.22
90.5
81.2
71.02
60.54
50.04
39.57
29.08
18.52
7.98
-2.33
-12.25
-21.72
-30.78
-39.54
-48.01
-56.01
-63.23
-69.23
-73.75
-76.7
-78.32
-79.12
-79.77
-81.05
-83.62
-87.85
-93.56
-99.94
-105.5
-108.47
-107.27
-101.1
-90.19
-75.68
-59.23
-42.47
-26.62
-12.3
0.24
10.99
20.04
27.54
33.7
38.83
43.24
47.08
50.32
52.75
54.02
53.76
51.72
47.97
43.01
37.74
33.19
30.23
29.11
29.47
30.44
31.07
30.75
29.3
27.01
24.36
21.76
19.44
17.46
15.69
13.99
12.16
10.01
7.41
4.29
0.66
-3.51
-8.28
-13.75
-20.02
-26.98
-34.3
-41.25
-46.84
-49.96
-49.54
-44.89
-35.73
-22.36
-5.57
13.6
34.2
55.61
77.69
100.5
124.01
147.68
170.37
190.6
207.14
219.4
227.68
232.88
235.95
237.37
236.94
233.92
227.47
217.06
202.73
185.1
165.2
144.27
123.31
102.92
83.11
63.53
43.75
23.65
3.57
-15.9
-34.37
-52.01
-69.48
-87.63
-106.82
-126.43
-144.83
-159.89
-169.82
-173.86
-172.64
-167.86
-161.73
-156.1
-151.95
-149.07
-146.41
-142.56
-136.4
-127.58
-116.66
-104.71
-92.98
-82.36
-73.16
-65.33
-58.71
-53.15
-48.27
-43.22
-36.69
-27.49
-15.46
-2.06
9.87
17.38
18.96
15.52
10.12
6.47
7.21
12.77
21.6
31.3
40.05
47.27
53.32
58.67
63.17
66.09
66.65
64.83
61.67
59.11
59.12
62.81
69.94
79.01
87.92
94.86
98.96
100.38
100.06
98.98
97.77
96.4
94.5
91.54
87.28
81.82
75.55
68.97
62.4
56.02
49.78
43.51
37.04
30.16
22.63
14.26
4.94
-5.34
-16.3
-27.51
-38.39
-48.35
-56.93
-63.82
-68.92
-72.3
-74.24
-75.17
-75.64
-76.16
-77.14
-78.65
-80.42
-81.87
-82.3
-81.19
-78.36
-74.02
-68.69
-62.9
-57.02
-51.13
-45.1
-38.74
-32.02
-25.1
-18.31
-12.01
-6.46
-1.78
2.04
5.09
7.47
9.27
10.5
11.0
10.44
8.4
4.54
-1.13
-8.31
-16.48
-25.19
-34.26
-43.87
-54.26
-65.44
-76.94
-87.85
-97.19
-104.34
-109.23
-112.27
-114.05
-114.87
-114.65
-113.02
-109.62
-104.4
-97.69
-90.06
-82.17
-74.57
-67.78
-62.23
-58.12
-55.1
-52.09
-47.25
-38.61
-25.01
-6.83
13.75
33.42
49.07
59.01
63.58
64.76
65.0
66.0
68.07
70.35
71.74
71.75
70.98
70.67
71.85
74.5
77.37
78.48
76.16
70.02
61.27
52.23
45.35
42.13
42.59
45.38
48.65
50.89
51.64
51.43
51.43
52.81
56.24
61.77
69.04
77.44
86.16
94.23
100.58
104.25
104.75
102.26
97.62
91.91
85.89
79.69
72.85
64.66
54.69
42.96
29.85
15.83
1.21
-13.8
-28.92
-43.68
-57.46
-69.73
-80.4
-89.77
-98.35
-106.43
-113.8
-119.81
-123.67
-124.99
-123.92
-121.04
-116.92
-111.8
-105.69
-98.56
-90.73
-82.91
-75.92
-70.28
-66.02
-62.74
-60.14
-58.31
-57.83
-59.33
-62.9
-67.63
-71.8
-73.39
-70.98
-64.21
-53.87
-41.52
-28.82
-17.1
-6.96
1.56
8.71
14.75
19.78
23.81
26.9
29.35
31.65
34.34
37.75
41.79
46.0
49.8
52.69
54.5
55.41
55.76
55.86
55.78
55.36
54.3
52.29
49.25
45.33
40.96
36.67
32.95
30.09
28.04
26.5
24.98
23.07
20.51
17.42
14.3
11.94
11.35
13.39
18.62
27.12
38.33
51.33
64.99
78.27
90.51
101.44
111.06
119.51
126.76
132.66
136.91
139.22
139.41
137.48
133.56
127.77
120.1
110.39
98.43
84.15
67.85
50.33
32.76
16.53
2.84
-7.6
-14.81
-19.34
-22.11
-23.91
-25.12
-25.67
-25.11
-23.02
-19.31
-14.34
-8.94
-4.14
-0.91
0.0
-1.75
-6.18
-12.98
-21.63
-31.53
-41.97
-52.2
-61.38
-68.65
-73.27
-74.86
-73.57
-70.07
-65.39
-60.59
-56.42
-53.26
-51.07
-49.61
-48.59
-47.79
-46.96
-45.86
-44.29
-42.17
-39.65
-37.05
-34.72
-32.95
-31.75
-30.94
-30.12
-28.94
-27.13
-24.68
-21.71
-18.49
-15.34
-12.48
-10.12
-8.4
-7.42
-7.29
-8.08
-9.85
-12.63
-16.4
-20.97
-25.95
-30.69
-34.44
-36.5
-36.47
-34.4
-30.72
-26.1
-21.17
-16.38
-11.95
-7.91
-4.24
-0.95
1.87
4.13
5.77
6.78
7.21
7.18
6.78
6.1
5.19
4.06
2.72
1.2
-0.43
-2.06
-3.56
-4.9
-6.1
-7.29
-8.63
-10.3
-12.37
-14.73
-17.16
-19.34
-20.99
-22.05
-22.67
-23.15
-23.83
-24.96
-26.66
-28.99
-31.92
-35.3
-38.8
-41.83
-43.7
-43.77
-41.77
-37.9
-32.75
-27.06
-21.44
-16.2
-11.37
-6.91
-2.78
0.93
4.13
6.79
8.96
10.76
12.32
13.66
14.78
15.59
15.96
15.8
15.03
13.72
12.03
10.29
8.77
7.62
6.8
6.1
5.25
4.09
2.57
0.8
-1.16
-3.23
-5.47
-7.88
-10.46
-13.12
-15.81
-18.58
-21.61
-25.13
-29.27
-33.82
-38.18
-41.49
-42.92
-41.95
-38.63
-33.48
-27.29
-20.83
-14.59
-8.76
-3.38
1.56
5.99
9.75
12.72
14.95
16.64
18.07
19.48
20.98
22.48
23.83
24.87
25.53
25.84
25.86
25.62
25.09
24.19
22.83
21.02
18.82
16.29
13.46
10.32
6.84
3.05
-0.88
-4.71
-8.17
-11.13
-13.59
-15.71
-17.84
-20.3
-23.39
-27.16
-31.32
-35.2
-37.98
-38.85
-37.4
-33.72
-28.43
-22.38
-16.32
-10.72
-5.67
-1.04
3.28
7.26
10.75
13.58
15.69
17.23
18.43
19.58
20.81
22.07
23.23
24.1
24.56
24.63
24.41
24.03
23.55
22.93
22.0
20.6
18.64
16.17
13.34
10.32
7.25
4.12
0.88
-2.55
-6.14
-9.78
-13.35
-16.75
-20.09
-23.57
-27.31
-31.24
-34.91
-37.59
-38.47
-37.01
-33.13
-27.3
-20.34
-13.12
-6.27
-0.1
5.33
10.06
14.08
17.28
19.55
20.91
21.53
21.73
21.86
22.17
22.78
23.6
24.45
25.12
25.48
25.5
25.22
24.72
24.04
23.13
21.89
20.24
18.16
15.67
12.84
9.75
6.47
3.12
-0.19
-3.31
-6.13
-8.65
-11.01
-13.46
-16.25
-19.58
-23.47
-27.7
-31.84
-35.28
-37.37
-37.53
-35.45
-31.23
-25.34
-18.46
-11.36
-4.59
1.53
6.9
11.48
15.24
18.09
19.93
20.76
20.71
20.05
19.06
17.95
16.82
15.72
14.7
13.83
13.28
13.12
13.36
13.83
14.27
14.33
13.74
12.36
10.22
7.5
4.45
1.35
-1.62
-4.37
-6.96
-9.6
-12.55
-16.03
-20.14
-24.8
-29.66
-34.18
-37.7
-39.53
-39.17
-36.41
-31.41
-24.66
-16.85
-8.72
-0.9
6.19
12.32
17.46
21.63
24.87
27.21
28.66
29.26
29.16
28.6
27.89
27.32
27.03
27.0
27.05
26.98
26.64
26.0
25.15
24.15
23.01
21.67
20.01
17.93
15.42
12.54
9.42
6.17
2.86
-0.52
-3.99
-7.55
-11.1
-14.58
-17.98
-21.5
-25.4
-29.84
-34.7
-39.4
-43.05
-44.69
-43.68
-39.92
-33.89
-26.45
-18.58
-11.07
-4.4
1.29
6.08
10.18
13.77
16.96
19.77
22.1
23.82
24.84
25.18
25.0
24.54
24.06
23.74
23.59
23.53
23.34
22.81
21.79
20.19
18.06
15.5
12.7
9.79
6.87
3.95
1.02
-1.96
-4.94
-7.83
-10.5
-12.87
-14.89
-16.5
-17.72
-18.65
-19.5
-20.64
-22.4
-24.91
-27.92
-30.76
-32.53
-32.4
-29.9
-25.05
-18.35
-10.51
-2.28
5.67
12.83
18.86
23.56
26.95
29.19
30.58
31.36
31.7
31.62
31.09
30.07
28.64
26.95
25.2
23.49
21.89
20.38
18.94
17.54
16.21
14.98
13.87
12.8
11.65
10.29
8.63
6.63
4.39
2.03
-0.31
-2.53
-4.67
-6.78
-9.03
-11.6
-14.74
-18.64
-23.41
-28.96
-34.87
-40.44
-44.71
-46.78
-46.0
-42.26
-35.99
-28.03
-19.41
-11.02
-3.39
3.27
9.05
14.12
18.64
22.63
26.03
28.73
30.69
31.99
32.78
33.26
33.63
33.97
34.27
34.4
34.29
33.88
33.17
32.23
31.06
29.58
27.67
25.21
22.12
18.48
14.4
10.08
5.66
1.25
-3.05
-7.23
-11.24
-15.12
-18.94
-22.85
-27.02
-31.61
-36.61
-41.78
-46.61
-50.35
-52.23
-51.66
-48.48
-42.94
-35.67
-27.51
-19.21
-11.36
-4.28
1.84
6.94
10.96
13.92
15.94
17.23
18.11
18.83
19.56
20.32
20.98
21.4
21.45
21.11
20.43
19.5
18.43
17.25
15.9
14.26
12.14
9.4
6.03
2.23
-1.66
-5.27
-8.38
-10.99
-13.39
-15.95
-19.05
-22.83
-27.19
-31.8
-36.13
-39.56
-41.49
-41.41
-39.06
-34.5
-28.12
-20.56
-12.52
-4.66
2.56
8.87
14.15
18.38
21.58
23.85
25.3
26.1
26.42
26.48
26.43
26.35
26.24
25.93
25.27
24.2
22.79
21.28
19.85
18.58
17.33
15.85
13.86
11.28
8.22
4.94
1.71
-1.37
-4.43
-7.73
-11.58
-16.19
-21.62
-27.77
-34.31
-40.72
-46.26
-50.1
-51.45
-49.89
-45.48
-38.81
-30.85
-22.61
-14.85
-7.97
-2.07
2.86
6.86
9.93
12.1
13.51
14.44
15.18
15.89
16.61
17.12
17.22
16.79
15.94
14.95
14.11
13.57
13.27
12.94
12.26
11.02
9.15
6.75
3.95
0.85
-2.5
-6.11
-10.0
-14.25
-18.96
-24.17
-29.79
-35.42
-40.32
-43.59
-44.38
-42.32
-37.64
-31.06
-23.61
-16.16
-9.19
-2.78
3.15
8.71
13.81
18.24
21.8
24.48
26.43
27.89
28.99
29.72
29.94
29.53
28.51
27.06
25.38
23.57
21.55
19.12
16.08
12.43
8.32
4.12
0.11
-3.55
-6.92
-10.19
-13.6
-17.34
-21.55
-26.26
-31.29
-36.18
-40.19
-42.43
-42.17
-39.05
-33.32
-25.72
-17.3
-9.08
-1.74
4.46
9.63
14.02
17.88
21.29
24.19
26.39
27.8
28.41
28.38
27.94
27.3
26.56
25.79
25.01
24.24
23.51
22.72
21.72
20.22
18.01
14.99
11.23
7.01
2.64
-1.62
-5.67
-9.6
-13.64
-18.13
-23.35
-29.37
-35.87
-42.08
-46.94
-49.4
-48.74
-44.88
-38.4
-30.33
-21.8
-13.69
-6.47
-0.22
5.21
10.0
14.24
17.88
20.83
22.99
24.31
24.85
24.71
24.03
22.94
21.59
20.14
18.78
17.69
16.96
16.52
16.12
15.39
13.95
11.61
8.48
4.98
1.63
-1.13
-3.18
-4.81
-6.66
-9.45
-13.76
-19.72
-26.87
-34.25
-40.58
-44.61
-45.51
-43.02
-37.55
-30.01
-21.49
-12.94
-5.0
2.1
8.32
13.76
18.41
22.22
25.08
26.99
28.07
28.55
28.67
28.56
28.21
27.56
26.58
25.39
24.29
23.57
23.35
23.47
23.5
22.9
21.25
18.43
14.64
10.27
5.75
1.3
-3.06
-7.52
-12.3
-17.56
-23.36
-29.6
-36.01
-42.05
-46.96
-49.85
-49.98
-47.01
-41.14
-33.08
-23.81
-14.26
-5.05
3.51
11.34
18.37
24.48
29.48
33.23
35.71
37.04
37.45
37.2
36.51
35.6
34.56
33.47
32.34
31.19
30.02
28.89
27.86
26.96
26.15
25.25
24.07
22.37
20.0
16.89
13.08
8.72
3.99
-0.86
-5.59
-10.02
-14.08
-17.83
-21.52
-25.52
-30.21
-35.84
-42.29
-49.04
-55.06
-59.12
-60.11
-57.43
-51.28
-42.55
-32.5
-22.3
-12.71
-3.97
4.02
11.41
18.2
24.28
29.43
33.56
36.75
39.12
40.83
41.93
42.43
42.36
41.87
41.23
40.69
40.39
40.28
40.17
39.79
38.99
37.74
36.1
34.15
31.89
29.31
26.38
23.22
20.04
16.97
14.05
11.12
7.88
4.14
-0.09
-4.6
-9.06
-13.22
-17.07
-20.83
-24.88
-29.62
-35.29
-41.84
-48.88
-55.64
-61.04
-64.03
-63.86
-60.29
-53.75
-45.14
-35.49
-25.76
-16.56
-8.21
-0.83
5.58
11.03
15.6
19.41
22.6
25.34
27.7
29.71
31.28
32.39
33.0
33.19
33.04
32.63
32.01
31.16
30.04
28.59
26.82
24.81
22.64
20.36
17.96
15.39
12.55
9.42
6.0
2.37
-1.36
-5.09
-8.72
-12.16
-15.35
-18.26
-20.99
-23.73
-26.77
-30.41
-34.72
-39.51
-44.14
-47.71
-49.27
-48.12
-44.05
-37.46
-29.17
-20.17
-11.3
-3.1
4.22
10.63
16.19
20.87
24.6
27.32
29.1
30.09
30.58
30.85
31.12
31.44
31.75
31.86
31.67
31.14
30.33
29.38
28.37
27.31
26.1
24.64
22.88
20.8
18.43
15.79
12.82
9.45
5.64
1.49
-2.79
-6.95
-10.78
-14.21
-17.31
-20.33
-23.58
-27.38
-31.97
-37.37
-43.29
-49.03
-53.65
-56.11
-55.69
-52.17
-45.98
-37.94
-29.08
-20.3
-12.2
-5.07
1.03
6.15
10.42
13.97
16.93
19.38
21.34
22.85
23.92
24.62
25.08
25.39
25.6
25.74
25.8
25.8
25.76
25.68
25.54
25.22
24.6
23.56
22.07
20.16
17.86
15.25
12.31
9.04
5.43
1.51
-2.65
-6.93
-11.17
-15.23
-19.05
-22.71
-26.41
-30.45
-35.03
-40.13
-45.34
-49.87
-52.78
-53.22
-50.79
-45.68
-38.57
-30.39
-22.0
-14.0
-6.7
-0.21
5.42
10.16
13.94
16.78
18.8
20.18
21.21
22.09
22.93
23.73
24.34
24.61
24.45
23.93
23.18
22.34
21.46
20.49
19.27
17.69
15.7
13.39
10.88
8.23
5.4
2.32
-1.08
-4.78
-8.63
-12.4
-15.87
-18.91
-21.54
-23.93
-26.38
-29.21
-32.69
-36.82
-41.3
-45.43
-48.34
-49.17
-47.36
-42.89
-36.2
-28.12
-19.56
-11.3
-3.85
2.56
7.89
12.2
15.55
17.99
19.59
20.46
20.74
20.65
20.37
20.08
19.87
19.75
19.64
19.4
18.92
18.11
17.0
15.66
14.23
12.73
11.1
9.15
6.67
3.6
0.04
-3.71
-7.3
-10.48
-13.25
-15.77
-18.32
-21.18
-24.54
-28.46
-32.91
-37.69
-42.44
-46.48
-49.03
-49.31
-46.89
-41.89
-34.9
-26.86
-18.7
-11.05
-4.22
1.8
7.1
11.72
15.58
18.6
20.73
22.06
22.83
23.28
23.62
23.96
24.27
24.44
24.31
23.73
22.64
21.08
19.18
17.15
15.18
13.38
11.72
10.1
8.31
6.26
3.91
1.32
-1.39
-4.17
-6.96
-9.8
-12.7
-15.68
-18.81
-22.22
-26.12
-30.74
-36.18
-42.16
-48.02
-52.78
-55.47
-55.38
-52.33
-46.7
-39.22
-30.75
-22.0
-13.5
-5.51
1.8
8.36
14.04
18.77
22.54
25.4
27.5
29.0
30.03
30.72
31.08
31.09
30.78
30.19
29.42
28.62
27.8
26.93
25.83
24.28
22.17
19.5
16.44
13.23
10.06
7.01
4.0
0.88
-2.51
-6.19
-10.1
-14.11
-18.1
-21.94
-25.53
-28.83
-31.86
-34.78
-37.9
-41.58
-46.07
-51.23
-56.5
-60.94
-63.5
-63.35
-60.22
-54.39
-46.64
-37.86
-28.86
-20.15
-11.97
-4.35
2.72
9.22
15.1
20.26
24.65
28.29
31.22
33.45
35.03
35.98
36.32
36.15
35.62
34.88
34.11
33.36
32.63
31.79
30.67
29.08
26.92
24.21
21.0
17.43
13.59
9.54
5.33
1.04
-3.19
-7.26
-11.1
-14.78
-18.51
-22.54
-27.1
-32.28
-38.01
-43.99
-49.73
-54.58
-57.77
-58.61
-56.68
-51.93
-44.76
-35.92
-26.25
-16.51
-7.2
1.41
9.22
16.21
22.32
27.51
31.71
34.93
37.25
38.76
39.6
39.89
39.74
39.21
38.35
37.17
35.66
33.81
31.69
29.41
27.15
25.01
22.98
20.91
18.6
15.88
12.77
9.43
6.12
3.02
0.21
-2.4
-4.99
-7.77
-10.91
-14.64
-19.02
-24.06
-29.49
-34.75
-39.07
-41.62
-41.77
-39.22
-34.1
-26.82
-17.99
-8.26
1.75
11.53
20.62
28.73
35.7
41.51
46.17
49.72
52.14
53.43
53.58
52.66
50.74
47.89
44.24
39.99
35.42
30.93
26.87
23.52
20.9
18.87
17.19
15.6
13.97
12.22
10.36
8.34
6.06
3.36
0.05
-3.91
-8.42
-13.2
-17.88
-22.09
-25.66
-28.72
-31.66
-35.0
-39.21
-44.5
-50.75
-57.5
-64.03
-69.48
-73.0
-73.9
-71.77
-66.68
-59.01
-49.52
-39.0
-28.16
-17.52
-7.42
1.93
10.42
17.96
24.53
30.17
34.98
39.08
42.52
45.37
47.63
49.33
50.55
51.36
51.87
52.14
52.19
51.94
51.3
50.15
48.4
46.04
43.2
40.01
36.65
33.25
29.82
26.35
22.79
19.1
15.29
11.4
7.47
3.52
-0.46
-4.48
-8.56
-12.75
-17.13
-21.84
-26.98
-32.65
-38.76
-44.98
-50.75
-55.3
-57.87
-57.89
-55.13
-49.84
-42.59
-34.17
-25.32
-16.65
-8.57
-1.29
5.07
10.41
14.73
18.11
20.69
22.7
24.31
25.65
26.81
27.8
28.64
29.37
29.98
30.46
30.7
30.57
30.0
29.02
27.72
26.27
24.79
23.27
21.64
19.75
17.48
14.77
11.65
8.26
4.72
1.16
-2.36
-5.84
-9.31
-12.84
-16.55
-20.6
-25.14
-30.19
-35.55
-40.73
-44.99
-47.55
-47.81
-45.6
-41.16
-35.07
-28.02
-20.64
-13.38
-6.52
-0.25
5.31
10.16
14.31
17.85
20.88
23.49
25.7
27.45
28.73
29.54
29.92
29.98
29.79
29.45
28.98
28.33
27.47
26.33
24.85
22.99
20.78
18.24
15.51
12.77
10.22
7.95
5.94
4.01
1.95
-0.41
-3.02
-5.72
-8.29
-10.59
-12.65
-14.63
-16.86
-19.68
-23.35
-27.96
-33.29
-38.75
-43.42
-46.31
-46.62
-44.11
-39.12
-32.43
-25.03
-17.71
-10.95
-4.87
0.57
5.44
9.74
13.43
16.49
18.98
21.0
22.72
24.24
25.58
26.65
27.31
27.45
27.05
26.25
25.29
24.4
23.71
23.18
22.64
21.81
20.46
18.45
15.82
12.72
9.41
6.08
2.9
-0.12
-3.05
-6.04
-9.28
-12.84
-16.73
-20.84
-25.03
-29.18
-33.2
-37.13
-41.05
-45.08
-49.38
-54.1
-59.28
-64.89
-70.64
-76.0
-80.23
-82.61
-82.66
-80.36
-76.19
-70.95
-65.42
-60.11
-55.08
-49.99
-44.25
-37.38
-29.14
-19.57
-8.93
2.46
14.29
26.28
38.1
49.33
59.46
67.93
74.38
78.69
81.01
81.68
81.13
79.67
77.48
74.62
71.1
66.96
62.32
57.39
52.37
47.43
42.6
37.79
32.92
27.95
22.93
18.04
13.4
9.1
5.1
1.3
-2.42
-6.18
-10.07
-14.22
-18.78
-23.77
-29.03
-34.05
-38.04
-40.22
-39.96
-37.18
-32.26
-25.98
-19.2
-12.67
-6.84
-1.93
2.03
5.04
7.14
8.41
9.0
9.09
8.9
8.62
8.41
8.42
8.75
9.41
10.36
11.45
12.48
13.3
13.84
14.09
14.06
13.72
13.0
11.78
10.01
7.72
5.05
2.19
-0.69
-3.51
-6.27
-9.0
-11.73
-14.41
-16.98
-19.4
-21.72
-24.12
-26.88
-30.19
-34.03
-37.99
-41.34
-43.22
-42.96
-40.33
-35.64
-29.58
-22.98
-16.51
-10.55
-5.19
-0.39
3.86
7.54
10.58
12.97
14.79
16.15
17.18
17.98
18.58
18.98
19.16
19.09
18.81
18.4
17.98
17.68
17.54
17.54
17.52
17.26
16.57
15.37
13.71
11.7
9.51
7.17
4.67
1.92
-1.15
-4.51
-8.05
-11.51
-14.7
-17.54
-20.16
-22.86
-25.98
-29.79
-34.3
-39.21
-43.95
-47.82
-50.06
-50.11
-47.65
-42.78
-35.99
-28.08
-19.95
-12.38
-5.85
-0.47
3.9
7.55
10.7
13.49
15.97
18.15
20.02
21.59
22.91
24.02
24.94
25.68
26.24
26.61
26.84
26.96
27.04
27.08
26.99
26.53
25.42
23.5
20.78
17.49
14.0
10.61
7.45
4.41
1.25
-2.15
-5.81
-9.5
-12.91
-15.87
-18.4
-20.77
-23.34
-26.42
-30.14
-34.42
-38.91
-43.12
-46.38
-48.05
-47.57
-44.69
-39.54
-32.68
-24.94
-17.17
-10.0
-3.75
1.55
6.1
10.06
13.58
16.72
19.47
21.82
23.75
25.26
26.34
27.05
27.42
27.55
27.5
27.34
27.1
26.8
26.42
25.92
25.23
24.23
22.87
21.13
19.08
16.86
14.57
12.24
9.79
7.11
4.12
0.89
-2.43
-5.66
-8.69
-11.59
-14.54
-17.76
-21.45
-25.72
-30.52
-35.63
-40.58
-44.7
-47.19
-47.4
-45.0
-40.2
-33.66
-26.3
-18.98
-12.22
-6.2
-0.86
3.92
8.15
11.75
14.59
16.59
17.78
18.32
18.46
18.44
18.51
18.84
19.46
20.27
21.05
21.54
21.54
20.97
19.92
18.62
17.26
15.94
14.61
13.07
11.11
8.63
5.66
2.4
-0.95
-4.2
-7.3
-10.27
-13.24
-16.29
-19.55
-23.07
-26.89
-30.98
-35.2
-39.19
-42.42
-44.23
-44.01
-41.5
-36.82
-30.54
-23.5
-16.45
-9.87
-3.91
1.54
6.62
11.35
15.62
19.33
22.45
25.08
27.38
29.42
31.13
32.34
32.9
32.83
32.29
31.57
30.97
30.59
30.39
30.17
29.66
28.64
27.03
24.84
22.26
19.47
16.67
13.92
11.18
8.34
5.23
1.82
-1.84
-5.58
-9.18
-12.45
-15.34
-17.94
-20.53
-23.53
-27.28
-31.96
-37.38
-42.99
-47.91
-51.21
-52.13
-50.3
-45.86
-39.35
-31.56
-23.31
-15.31
-7.96
-1.41
4.38
9.53
14.12
18.13
21.51
24.2
26.26
27.81
29.0
29.95
30.67
31.11
31.18
30.86
30.23
29.46
28.78
28.33
28.11
27.97
27.61
26.78
25.34
23.32
20.98
18.59
16.33
14.21
12.06
9.63
6.7
3.25
-0.57
-4.46
-8.13
-11.42
-14.35
-17.06
-19.82
-22.88
-26.45
-30.65
-35.46
-40.59
-45.52
-49.48
-51.68
-51.46
-48.57
-43.28
-36.21
-28.25
-20.27
-12.88
-6.42
-0.89
3.9
8.19
12.15
15.82
19.14
22.01
24.44
26.52
28.38
30.15
31.8
33.21
34.18
34.58
34.43
33.85
33.04
32.14
31.18
30.05
28.61
26.75
24.48
21.91
19.25
16.65
14.19
11.77
9.25
6.45
3.34
0.01
-3.27
-6.28
-8.88
-11.12
-13.19
-15.4
-18.0
-21.18
-25.03
-29.52
-34.5
-39.6
-44.21
-47.58
-48.96
-47.85
-44.21
-38.42
-31.26
-23.56
-16.06
-9.23
-3.28
1.78
6.03
9.61
12.62
15.11
17.16
18.78
20.02
20.91
21.52
21.94
22.21
22.36
22.44
22.47
22.44
22.34
22.08
21.54
20.62
19.26
17.52
15.51
13.34
11.06
8.62
5.92
2.87
-0.47
-3.98
-7.47
-10.79
-13.96
-17.07
-20.31
-23.86
-27.86
-32.32
-37.07
-41.76
-45.78
-48.41
-48.99
-47.18
-43.06
-37.14
-30.2
-22.95
-15.92
-9.29
-3.1
2.69
8.03
12.79
16.82
19.98
22.28
23.8
24.77
25.38
25.81
26.12
26.25
26.12
25.69
24.99
24.15
23.28
22.39
21.41
20.15
18.48
16.39
14.02
11.56
9.18
6.94
4.78
2.63
0.44
-1.75
-3.87
-5.87
-7.81
-9.88
-12.39
-15.7
-20.03
-25.33
-31.13
-36.64
-40.91
-43.14
-42.92
-40.34
-35.84
-30.08
-23.66
-17.04
-10.55
-4.46
1.06
5.87
10.01
13.56
16.71
19.55
22.12
24.34
26.07
27.23
27.8
27.85
27.57
27.17
26.86
26.76
26.86
27.01
26.99
26.56
25.58
24.05
22.06
19.81
17.48
15.19
12.98
10.7
8.2
5.28
1.91
-1.76
-5.46
-8.94
-12.07
-14.95
-17.91
-21.34
-25.57
-30.75
-36.72
-43.05
-49.01
-53.71
-56.27
-56.09
-53.03
-47.49
-40.26
-32.33
-24.49
-17.21
-10.62
-4.54
1.16
6.58
11.62
16.14
20.01
23.16
25.65
27.54
28.92
29.83
30.32
30.43
30.25
29.92
29.63
29.53
29.63
29.85
29.95
29.68
28.83
27.36
25.38
23.1
20.76
18.46
16.2
13.82
11.15
8.1
4.66
0.95
-2.89
-6.72
-10.47
-14.12
-17.72
-21.35
-25.14
-29.25
-33.82
-38.9
-44.3
-49.54
-53.82
-56.28
-56.23
-53.34
-47.85
-40.44
-32.03
-23.52
-15.55
-8.44
-2.2
3.27
8.11
12.37
16.1
19.32
22.06
24.43
26.49
28.3
29.84
31.07
31.93
32.39
32.51
32.41
32.25
32.19
32.33
32.6
32.85
32.84
32.31
31.15
29.35
27.04
24.41
21.65
18.85
15.99
12.98
9.72
6.13
2.2
-1.92
-6.05
-9.99
-13.69
-17.22
-20.79
-24.61
-28.87
-33.6
-38.71
-43.93
-48.84
-52.86
-55.28
-55.51
-53.2
-48.43
-41.69
-33.76
-25.41
-17.23
-9.57
-2.55
3.77
9.36
14.19
18.24
21.56
24.25
26.41
28.15
29.53
30.63
31.47
32.0
32.19
31.98
31.4
30.57
29.65
28.77
27.89
26.84
25.39
23.35
20.71
17.66
14.47
11.36
8.48
5.75
3.03
0.16
-2.93
-6.2
-9.53
-12.81
-15.89
-18.76
-21.52
-24.39
-27.63
-31.41
-35.72
-40.22
-44.28
-47.1
-47.96
-46.46
-42.56
-36.68
-29.45
-21.56
-13.58
-5.96
1.01
7.13
12.27
16.4
19.6
22.07
24.0
25.52
26.69
27.48
27.89
28.02
27.99
27.95
28.0
28.13
28.28
28.33
28.2
27.78
26.99
25.69
23.83
21.47
18.79
16.05
13.47
11.11
8.83
6.42
3.73
0.74
-2.35
-5.3
-7.93
-10.23
-12.34
-14.52
-17.01
-20.0
-23.53
-27.4
-31.12
-33.89
-34.81
-33.16
-28.65
-21.57
-12.71
-3.07
6.42
15.2
23.07
30.15
36.66
42.78
48.65
54.26
59.53
64.34
68.55
72.04
74.71
76.54
77.56
77.93
77.84
77.51
77.08
76.45
75.26
72.85
68.49
61.51
51.57
38.79
23.69
7.04
-10.37
-27.98
-45.4
-62.34
-78.42
-93.0
-105.21
-114.17
-119.31
-120.66
-119.0
-115.7
-112.31
-110.18
-110.06
-112.07
-115.76
-120.44
-125.26
-129.41
-132.05
-132.35
-129.69
-123.77
-114.87
-103.77
-91.6
-79.43
-67.98
-57.46
-47.66
-38.19
-28.83
-19.56
-10.68
-2.55
4.61
10.84
16.46
21.91
27.49
33.27
39.01
44.33
48.82
52.22
54.29
54.81
53.47
49.97
44.17
36.28
26.91
16.88
6.87
-2.77
-12.14
-21.56
-31.3
-41.26
-50.97
-59.76
-67.06
-72.71
-76.97
-80.54
-84.23
-88.75
-94.4
-100.88
-107.15
-111.59
-112.34
-107.86
-97.53
-81.97
-62.9
-42.64
-23.37
-6.6
7.02
17.5
25.16
30.3
33.11
33.78
32.6
30.05
26.73
23.16
19.58
15.93
11.83
6.8
0.44
-7.42
-16.47
-25.87
-34.3
-40.19
-42.11
-39.26
-31.79
-20.82
-8.18
4.18
14.74
22.68
27.92
30.82
31.84
31.33
29.51
26.5
22.42
17.4
11.62
5.42
-0.67
-5.75
-8.69
-8.34
-3.92
4.55
16.16
29.32
42.26
53.55
62.47
69.02
73.65
76.86
78.9
79.85
79.66
78.45
76.6
74.64
73.05
72.06
71.57
71.25
70.74
69.73
68.2
66.3
64.29
62.41
60.66
58.86
56.57
53.38
49.02
43.55
37.3
30.78
24.45
18.55
13.05
7.72
2.23
-3.68
-10.25
-17.64
-25.82
-34.47
-42.83
-49.69
-53.6
-53.33
-48.28
-38.87
-26.42
-12.75
0.4
11.91
21.45
29.3
35.92
41.6
46.27
49.59
51.36
51.59
50.67
49.16
47.59
46.22
45.1
44.1
43.12
42.13
41.22
40.42
39.71
38.92
37.87
36.4
34.44
32.04
29.23
25.99
22.24
17.89
12.97
7.7
2.43
-2.45
-6.77
-10.64
-14.48
-18.81
-24.13
-30.66
-38.21
-46.16
-53.43
-58.72
-60.75
-58.64
-52.22
-42.16
-29.81
-16.81
-4.56
6.07
14.89
22.16
28.31
33.67
38.33
42.24
45.26
47.37
48.58
49.02
48.85
48.18
47.13
45.8
44.3
42.71
41.11
39.53
37.97
36.38
34.66
32.71
30.43
27.77
24.76
21.45
17.98
14.39
10.72
6.93
2.97
-1.15
-5.35
-9.5
-13.51
-17.35
-21.17
-25.29
-30.12
-35.97
-42.81
-50.07
-56.55
-60.75
-61.26
-57.38
-49.33
-38.25
-25.75
-13.42
-2.32
7.07
14.79
21.14
26.36
30.65
34.07
36.72
38.67
40.03
40.88
41.26
41.17
40.63
39.68
38.44
37.05
35.71
34.55
33.56
32.61
31.42
29.69
27.27
24.16
20.57
16.77
12.95
9.12
5.15
0.91
-3.66
-8.39
-12.97
-17.07
-20.48
-23.24
-25.64
-28.14
-31.26
-35.35
-40.47
-46.14
-51.39
-54.96
-55.6
-52.59
-45.94
-36.45
-25.45
-14.28
-3.96
4.99
12.5
18.7
23.71
27.57
30.25
31.79
32.3
32.04
31.25
30.2
29.04
27.86
26.71
25.64
24.65
23.73
22.8
21.74
20.45
18.89
17.1
15.12
13.01
10.72
8.18
5.26
1.92
-1.81
-5.79
-9.82
-13.74
-17.43
-20.88
-24.12
-27.3
-30.59
-34.24
-38.43
-43.18
-48.16
-52.62
-55.52
-55.77
-52.65
-46.07
-36.7
-25.76
-14.62
-4.46
4.07
10.84
16.1
20.25
23.61
26.35
28.45
29.84
30.46
30.39
29.82
29.06
28.35
27.85
27.57
27.47
27.43
27.43
27.44
27.42
27.28
26.83
25.88
24.24
21.8
18.56
14.58
10.03
5.06
-0.15
-5.4
-10.54
-15.4
-19.86
-23.79
-27.23
-30.34
-33.49
-37.08
-41.46
-46.66
-52.22
-57.21
-60.38
-60.57
-57.02
-49.73
-39.43
-27.46
-15.26
-4.04
5.49
13.18
19.23
23.97
27.65
30.41
32.31
33.5
34.19
34.59
34.81
34.79
34.35
33.35
31.81
29.97
28.19
26.75
25.71
24.87
23.87
22.33
20.08
17.11
13.63
9.91
6.21
2.71
-0.49
-3.45
-6.31
-9.33
-12.66
-16.32
-20.11
-23.73
-26.89
-29.51
-31.74
-33.89
-36.37
-39.47
-43.28
-47.57
-51.76
-54.96
-56.08
-54.14
-48.7
-40.03
-29.16
-17.56
-6.69
2.45
9.49
14.63
18.33
21.06
23.08
24.48
25.25
25.38
24.96
24.15
23.13
22.07
21.03
20.07
19.19
18.44
17.8
17.26
16.7
15.94
14.82
13.24
11.25
8.97
6.56
4.11
1.65
-0.86
-3.47
-6.18
-9.0
-11.92
-14.91
-17.95
-21.01
-24.09
-27.31
-30.87
-34.98
-39.57
-44.13
-47.69
-49.03
-47.19
-41.84
-33.52
-23.45
-13.07
-3.62
4.23
10.32
14.88
18.22
20.53
21.92
22.45
22.25
21.56
20.71
19.97
19.46
19.15
18.81
18.17
17.05
15.43
13.49
11.47
9.61
8.0
6.52
4.89
2.82
0.1
-3.24
-6.96
-10.69
-14.06
-16.86
-19.09
-20.97
-22.82
-24.99
-27.78
-31.33
-35.5
-39.79
-43.37
-45.24
-44.47
-40.59
-33.75
-24.72
-14.68
-4.84
3.86
10.93
16.3
20.19
22.88
24.59
25.46
25.6
25.16
24.35
23.47
22.72
22.21
21.93
21.73
21.46
21.0
20.32
19.44
18.39
17.19
15.79
14.11
12.04
9.56
6.71
3.67
0.64
-2.21
-4.89
-7.57
-10.44
-13.56
-16.8
-19.85
-22.43
-24.43
-26.06
-27.75
-30.01
-33.23
-37.47
-42.34
-47.04
-50.48
-51.56
-49.49
-44.07
-35.79
-25.69
-15.07
-5.12
3.43
10.28
15.52
19.42
22.26
24.21
25.42
26.03
26.2
26.13
25.99
25.88
25.79
25.64
25.31
24.71
23.87
22.87
21.87
20.96
20.14
19.3
18.27
16.9
15.1
12.93
10.52
8.05
5.72
3.61
1.72
-0.07
-2.01
-4.31
-7.09
-10.3
-13.64
-16.73
-19.24
-21.01
-22.13
-22.95
-23.91
-25.45
-27.9
-31.33
-35.49
-39.75
-43.15
-44.63
-43.29
-38.79
-31.45
-22.2
-12.35
-3.13
4.57
10.38
14.38
16.95
18.49
19.29
19.54
19.34
18.82
18.14
17.55
17.19
17.09
17.14
17.17
17.05
16.79
16.53
16.4
16.4
16.3
15.79
14.55
12.45
9.62
6.42
3.23
0.37
-2.08
-4.23
-6.31
-8.55
-11.01
-13.62
-16.16
-18.43
-20.36
-22.03
-23.69
-25.63
-28.13
-31.35
-35.24
-39.43
-43.25
-45.79
-46.12
-43.58
-38.08
-30.12
-20.7
-10.99
-1.99
5.72
11.92
16.7
20.24
22.7
24.24
25.01
25.23
25.09
24.77
24.36
23.88
23.34
22.71
22.01
21.28
20.61
20.13
19.93
19.96
20.06
19.9
19.14
17.57
15.26
12.49
9.66
7.08
4.77
2.51
-0.04
-3.12
-6.72
-10.57
-14.25
-17.42
-19.91
-21.81
-23.44
-25.2
-27.5
-30.57
-34.41
-38.62
-42.43
-44.83
-44.83
-41.78
-35.64
-27.05
-17.15
-7.23
1.65
8.91
14.47
18.58
21.61
23.84
25.39
26.3
26.58
26.36
25.81
25.15
24.51
23.93
23.36
22.73
22.05
21.4
20.89
20.55
20.32
20.02
19.46
18.53
17.22
15.61
13.86
12.05
10.23
8.37
6.48
4.57
2.68
0.84
-1.01
-2.98
-5.18
-7.7
-10.5
-13.44
-16.32
-18.94
-21.25
-23.3
-25.27
-27.42
-29.98
-33.15
-36.98
-41.28
-45.54
-48.89
-50.29
-48.84
-44.12
-36.44
-26.74
-16.38
-6.65
1.54
7.91
12.65
16.24
19.13
21.58
23.61
25.07
25.84
25.9
25.41
24.6
23.68
22.76
21.8
20.81
19.86
19.11
18.73
18.81
19.16
19.49
19.43
18.77
17.51
15.81
13.9
11.92
9.93
7.94
5.98
4.06
2.19
0.35
-1.56
-3.65
-5.98
-8.54
-11.23
-13.87
-16.28
-18.35
-20.07
-21.52
-22.89
-24.42
-26.41
-29.08
-32.53
-36.64
-40.89
-44.46
-46.35
-45.67
-41.95
-35.34
-26.64
-17.03
-7.69
0.46
6.98
11.84
15.33
17.73
19.28
20.16
20.5
20.47
20.3
20.22
20.34
20.64
20.97
21.19
21.2
21.02
20.73
20.37
20.0
19.58
19.1
18.51
17.76
16.78
15.49
13.85
11.86
9.66
7.45
5.39
3.56
1.89
0.26
-1.52
-3.49
-5.67
-7.98
-10.35
-12.75
-15.17
-17.63
-20.09
-22.53
-24.94
-27.46
-30.27
-33.49
-36.98
-40.2
-42.32
-42.4
-39.83
-34.54
-27.12
-18.61
-10.12
-2.53
3.68
8.39
11.71
13.8
14.86
15.06
14.63
13.8
12.8
11.81
10.92
10.15
9.47
8.85
8.29
7.82
7.51
7.42
7.56
7.91
8.3
8.52
8.36
7.69
6.59
5.27
3.96
2.84
1.86
0.8
-0.61
-2.56
-5.04
-7.89
-10.84
-13.69
-16.34
-18.82
-21.24
-23.74
-26.45
-29.53
-33.02
-36.74
-40.22
-42.67
-43.21
-41.17
-36.36
-29.22
-20.75
-12.08
-4.23
2.25
7.22
10.87
13.49
15.3
16.47
17.11
17.35
17.31
17.11
16.83
16.5
16.16
15.86
15.69
15.75
16.07
16.59
17.13
17.44
17.25
16.39
14.82
12.64
10.04
7.26
4.51
1.88
-0.59
-2.99
-5.43
-8.03
-10.81
-13.73
-16.62
-19.29
-21.62
-23.66
-25.66
-28.03
-31.16
-35.2
-39.88
-44.48
-47.89
-49.02
-47.09
-41.97
-34.17
-24.76
-14.94
-5.76
2.1
8.37
13.07
16.35
18.45
19.65
20.3
20.72
21.17
21.75
22.39
22.93
23.21
23.11
22.68
22.0
21.25
20.57
20.05
19.72
19.48
19.18
18.66
17.77
16.42
14.66
12.6
10.43
8.33
6.4
4.63
2.9
1.0
-1.26
-3.99
-7.12
-10.45
-13.73
-16.75
-19.44
-21.9
-24.34
-27.04
-30.28
-34.24
-38.88
-43.82
-48.24
-51.11
-51.36
-48.33
-42.04
-33.22
-23.11
-13.05
-4.11
3.21
8.91
13.28
16.7
19.43
21.63
23.33
24.64
25.67
26.58
27.5
28.48
29.43
30.22
30.69
30.8
30.63
30.33
30.07
29.89
29.71
29.31
28.46
27.02
25.0
22.59
20.07
17.67
15.49
13.45
11.31
8.84
5.9
2.54
-0.99
-4.35
-7.3
-9.74
-11.77
-13.65
-15.71
-18.31
-21.75
-26.29
-31.92
-38.31
-44.66
-49.77
-52.34
-51.38
-46.55
-38.39
-28.15
-17.39
-7.49
0.7
7.0
11.71
15.32
18.21
20.53
22.28
23.38
23.87
23.93
23.83
23.84
24.08
24.54
25.08
25.56
25.89
26.04
25.99
25.69
25.03
23.85
22.02
19.56
16.59
13.4
10.25
7.28
4.51
1.78
-1.08
-4.16
-7.41
-10.61
-13.54
-15.98
-17.91
-19.49
-21.08
-23.14
-26.11
-30.16
-35.06
-40.04
-43.91
-45.43
-43.65
-38.35
-30.09
-20.05
-9.62
0.02
8.13
14.48
19.23
22.67
25.17
26.99
28.34
29.38
30.18
30.81
31.3
31.6
31.66
31.39
30.69
29.57
28.18
26.77
25.62
24.87
24.44
24.0
23.17
21.68
19.51
16.91
14.26
11.83
9.73
7.78
5.69
3.18
0.13
-3.37
-7.06
-10.58
-13.67
-16.24
-18.41
-20.51
-22.97
-26.23
-30.52
-35.7
-41.22
-46.1
-49.17
-49.4
-46.25
-39.87
-31.03
-20.93
-10.8
-1.62
6.09
12.23
17.0
20.7
23.6
25.88
27.65
28.93
29.75
30.19
30.32
30.22
29.94
29.52
28.94
28.22
27.4
26.56
25.81
25.18
24.67
24.19
23.54
22.53
20.98
18.84
16.21
13.33
10.54
8.08
6.03
4.24
2.37
0.11
-2.73
-6.05
-9.5
-12.67
-15.27
-17.25
-18.81
-20.35
-22.31
-25.06
-28.78
-33.28
-38.04
-42.17
-44.65
-44.56
-41.43
-35.41
-27.26
-18.09
-9.07
-1.09
5.42
10.43
14.26
17.26
19.75
21.89
23.7
25.17
26.23
26.89
27.19
27.17
26.9
26.43
25.83
25.18
24.55
23.96
23.42
22.85
22.15
21.19
19.85
18.03
15.72
13.02
10.1
7.23
4.55
2.13
-0.19
-2.59
-5.25
-8.2
-11.29
-14.24
-16.78
-18.82
-20.42
-21.82
-23.33
-25.28
-27.94
-31.39
-35.45
-39.57
-42.89
-44.45
-43.43
-39.55
-33.15
-25.12
-16.61
-8.62
-1.76
3.76
8.05
11.31
13.74
15.5
16.74
17.63
18.38
19.13
19.88
20.5
20.74
20.44
19.6
18.47
17.42
16.81
16.75
17.03
17.2
16.8
15.53
13.4
10.71
7.9
5.32
3.13
1.23
-0.6
-2.6
-4.91
-7.52
-10.27
-12.95
-15.37
-17.41
-19.08
-20.56
-22.13
-24.18
-27.0
-30.69
-34.96
-39.09
-42.08
-42.94
-41.0
-36.2
-29.12
-20.8
-12.38
-4.76
1.61
6.68
10.65
13.75
16.19
18.05
19.4
20.32
20.94
21.38
21.68
21.86
21.86
21.67
21.3
20.82
20.29
19.8
19.38
19.02
18.61
17.97
16.89
15.22
13.02
10.58
8.29
6.53
5.41
4.72
4.05
2.94
1.13
-1.34
-4.18
-7.06
-9.68
-11.91
-13.71
-15.22
-16.62
-18.25
-20.52
-23.75
-27.98
-32.79
-37.26
-40.24
-40.66
-38.01
-32.5
-25.01
-16.78
-9.02
-2.51
2.51
6.18
8.92
11.1
12.92
14.47
15.68
16.59
17.26
17.81
18.36
18.93
19.45
19.81
19.93
19.85
19.71
19.7
19.97
20.48
21.07
21.46
21.41
20.76
19.5
17.7
15.52
13.1
10.63
8.3
6.24
4.47
2.85
1.15
-0.84
-3.19
-5.74
-8.21
-10.39
-12.24
-13.86
-15.45
-17.16
-19.12
-21.47
-24.42
-28.16
-32.56
-37.07
-40.69
-42.24
-40.87
-36.38
-29.37
-20.95
-12.38
-4.68
1.59
6.31
9.65
11.9
13.38
14.37
15.08
15.65
16.21
16.76
17.29
17.72
17.96
17.91
17.54
16.93
16.23
15.65
15.26
15.0
14.64
13.89
12.55
10.63
8.33
5.97
3.82
1.99
0.45
-0.99
-2.49
-4.19
-6.09
-8.12
-10.14
-12.01
-13.66
-15.08
-16.38
-17.73
-19.38
-21.59
-24.51
-28.09
-31.95
-35.39
-37.53
-37.5
-34.83
-29.6
-22.44
-14.37
-6.49
0.37
5.8
9.8
12.62
14.57
15.89
16.77
17.32
17.66
17.87
17.99
17.99
17.79
17.32
16.55
15.59
14.62
13.87
13.41
13.19
12.98
12.49
11.49
9.94
8.03
6.03
4.22
2.71
1.36
-0.04
-1.75
-3.89
-6.41
-9.11
-11.77
-14.24
-16.43
-18.4
-20.26
-22.24
-24.59
-27.51
-31.06
-35.02
-38.75
-41.36
-41.88
-39.69
-34.67
-27.41
-18.9
-10.33
-2.62
3.68
8.52
12.07
14.67
16.59
18.03
19.12
19.96
20.6
21.08
21.36
21.39
21.15
20.6
19.8
18.85
17.86
16.97
16.27
15.79
15.47
15.16
14.69
13.87
12.58
10.81
8.7
6.45
4.34
2.54
1.08
-0.2
-1.54
-3.23
-5.35
-7.79
-10.27
-12.45
-14.15
-15.41
-16.53
-17.91
-19.97
-22.96
-26.92
-31.55
-36.26
-40.18
-42.36
-42.0
-38.76
-32.9
-25.26
-16.98
-9.14
-2.41
3.02
7.34
10.87
13.82
16.25
18.1
19.34
20.06
20.52
20.98
21.6
22.37
23.1
23.56
23.56
23.13
22.48
21.86
21.51
21.48
21.65
21.75
21.45
20.54
18.93
16.78
14.37
12.05
10.1
8.56
7.3
5.98
4.31
2.09
-0.64
-3.65
-6.69
-9.53
-12.09
-14.42
-16.62
-18.82
-21.14
-23.78
-26.89
-30.54
-34.52
-38.22
-40.76
-41.14
-38.71
-33.42
-25.97
-17.53
-9.31
-2.26
3.28
7.38
10.35
12.48
13.91
14.65
14.75
14.38
13.84
13.42
13.32
13.59
14.07
14.54
14.84
14.98
15.08
15.3
15.69
16.09
16.2
15.72
14.51
12.68
10.57
8.52
6.67
4.95
3.05
0.64
-2.39
-5.93
-9.62
-13.07
-15.99
-18.34
-20.31
-22.24
-24.55
-27.51
-31.23
-35.52
-39.89
-43.58
-45.7
-45.45
-42.35
-36.49
-28.43
-19.18
-9.84
-1.3
5.84
11.37
15.33
17.91
19.37
20.08
20.39
20.66
21.07
21.63
22.21
22.6
22.68
22.45
22.03
21.58
21.21
20.94
20.69
20.32
19.65
18.54
16.93
14.9
12.63
10.37
8.3
6.44
4.64
2.67
0.3
-2.52
-5.64
-8.78
-11.69
-14.15
-16.18
-17.99
-19.91
-22.36
-25.68
-29.97
-34.88
-39.59
-42.96
-43.84
-41.5
-35.91
-27.86
-18.63
-9.63
-1.93
3.96
8.13
11.01
13.12
14.84
16.34
17.6
18.58
19.29
19.83
20.32
20.82
21.26
21.52
21.51
21.23
20.84
20.5
20.27
20.03
19.55
18.56
16.99
14.97
12.79
10.81
9.17
7.85
6.57
5.01
2.95
0.38
-2.48
-5.29
-7.76
-9.78
-11.48
-13.18
-15.32
-18.29
-22.3
-27.25
-32.65
-37.63
-41.05
-41.8
-39.2
-33.26
-24.73
-14.95
-5.38
2.8
9.02
13.29
16.07
17.95
19.41
20.69
21.8
22.63
23.05
23.02
22.62
22.0
21.29
20.56
19.81
19.02
18.16
17.26
16.41
15.65
14.94
14.16
13.19
11.92
10.37
8.6
6.68
4.63
2.43
0.08
-2.37
-4.82
-7.17
-9.37
-11.5
-13.71
-16.22
-19.25
-22.94
-27.21
-31.73
-35.81
-38.56
-39.11
-36.9
-31.95
-24.89
-16.75
-8.61
-1.29
4.78
9.6
13.36
16.28
18.52
20.1
21.06
21.5
21.65
21.76
22.02
22.52
23.08
23.5
23.54
23.14
22.37
21.41
20.43
19.53
18.64
17.66
16.44
14.84
12.79
10.26
7.3
4.04
0.71
-2.47
-5.33
-7.81
-10.02
-12.17
-14.55
-17.4
-20.92
-25.08
-29.64
-34.01
-37.34
-38.72
-37.45
-33.33
-26.76
-18.67
-10.23
-2.45
4.02
9.02
12.69
15.36
17.29
18.63
19.5
19.94
20.04
19.93
19.71
19.44
19.1
18.62
17.9
16.94
15.82
14.72
13.87
13.41
13.25
13.11
12.54
11.16
8.82
5.74
2.4
-0.65
-3.06
-4.85
-6.31
-7.89
-9.94
-12.62
-15.9
-19.59
-23.4
-26.86
-29.35
-30.14
-28.64
-24.65
-18.55
-11.26
-3.91
2.58
7.74
11.57
14.41
16.65
18.54
20.11
21.29
22.03
22.38
22.44
22.4
22.39
22.44
22.47
22.33
21.89
21.09
19.98
18.68
17.35
16.09
14.9
13.73
12.42
10.82
8.78
6.23
3.24
-0.0
-3.18
-6.01
-8.35
-10.23
-11.92
-13.74
-16.0
-18.87
-22.39
-26.41
-30.57
-34.23
-36.59
-36.78
-34.21
-28.84
-21.26
-12.6
-4.13
3.1
8.53
12.16
14.39
15.76
16.72
17.49
18.12
18.55
18.77
18.83
18.88
19.04
19.27
19.42
19.31
18.83
18.06
17.19
16.41
15.73
15.0
13.93
12.32
10.2
7.85
5.63
3.81
2.39
1.1
-0.45
-2.58
-5.34
-8.49
-11.65
-14.4
-16.55
-18.14
-19.41
-20.73
-22.45
-24.84
-27.98
-31.68
-35.41
-38.3
-39.38
-37.87
-33.49
-26.67
-18.46
-10.14
-2.82
2.89
6.89
9.51
11.19
12.29
13.04
13.5
13.72
13.69
13.48
13.2
12.98
12.91
13.03
13.19
13.24
13.01
12.47
11.71
10.9
10.15
9.49
8.75
7.74
6.3
4.36
1.97
-0.67
-3.37
-5.9
-8.13
-9.99
-11.56
-13.01
-14.59
-16.56
-19.15
-22.5
-26.53
-30.88
-34.91
-37.7
-38.4
-36.46
-31.9
-25.33
-17.81
-10.43
-4.04
1.02
4.83
7.73
10.1
12.19
14.05
15.66
16.95
17.84
18.38
18.62
18.67
18.62
18.53
18.48
18.49
18.61
18.78
18.93
18.93
18.65
18.03
17.07
15.81
14.28
12.48
10.37
7.89
5.06
1.97
-1.27
-4.47
-7.49
-10.23
-12.63
-14.72
-16.64
-18.63
-20.99
-24.0
-27.69
-31.73
-35.43
-37.81
-37.96
-35.38
-30.13
-22.9
-14.77
-6.83
0.13
5.73
9.99
13.14
15.43
17.0
18.0
18.54
18.8
18.98
19.22
19.6
20.1
20.64
21.11
21.4
21.41
21.17
20.7
20.15
19.61
19.06
18.31
17.08
15.13
12.42
9.24
6.08
3.42
1.52
0.3
-0.64
-1.75
-3.32
-5.32
-7.47
-9.44
-11.01
-12.22
-13.28
-14.53
-16.31
-18.83
-22.24
-26.45
-31.12
-35.51
-38.66
-39.55
-37.5
-32.51
-25.24
-16.92
-8.8
-1.83
3.59
7.53
10.34
12.37
13.85
14.9
15.56
15.91
16.03
16.05
16.1
16.27
16.6
17.04
17.46
17.75
17.83
17.71
17.53
17.41
17.34
17.13
16.5
15.25
13.34
11.01
8.63
6.57
4.99
3.78
2.66
1.27
-0.62
-3.03
-5.79
-8.59
-11.17
-13.4
-15.33
-17.17
-19.13
-21.43
-24.16
-27.36
-30.95
-34.71
-38.19
-40.65
-41.23
-39.19
-34.28
-26.91
-18.07
-9.03
-0.91
5.71
10.71
14.34
16.93
18.68
19.66
19.94
19.66
19.1
18.55
18.28
18.4
18.87
19.49
20.03
20.32
20.26
19.95
19.56
19.24
19.01
18.74
18.15
16.98
15.15
12.78
10.16
7.66
5.5
3.73
2.14
0.42
-1.71
-4.31
-7.21
-10.06
-12.5
-14.31
-15.55
-16.49
-17.51
-19.01
-21.25
-24.41
-28.45
-33.11
-37.8
-41.68
-43.77
-43.24
-39.72
-33.44
-25.27
-16.4
-8.0
-0.93
4.43
8.14
10.54
12.03
12.94
13.51
13.87
14.15
14.44
14.81
15.28
15.76
16.16
16.36
16.29
15.91
15.27
14.41
13.42
12.35
11.2
9.95
8.54
6.91
5.03
2.96
0.77
-1.42
-3.6
-5.81
-8.12
-10.59
-13.16
-15.69
-18.07
-20.29
-22.57
-25.24
-28.59
-32.7
-37.22
-41.4
-44.27
-44.88
-42.69
-37.68
-30.39
-21.78
-12.95
-4.89
1.77
6.83
10.46
13.04
14.93
16.35
17.33
17.86
17.99
17.88
17.77
17.82
18.05
18.35
18.57
18.61
18.5
18.32
18.12
17.81
17.21
16.2
14.8
13.18
11.53
9.94
8.27
6.28
3.68
0.4
-3.36
-7.25
-10.85
-13.9
-16.38
-18.5
-20.61
-23.06
-26.16
-30.03
-34.61
-39.52
-44.01
-47.12
-47.87
-45.61
-40.28
-32.46
-23.22
-13.81
-5.26
1.84
7.33
11.42
14.49
16.92
18.95
20.71
22.21
23.43
24.36
25.04
25.51
25.79
25.88
25.79
25.58
25.39
25.33
25.42
25.49
25.2
24.16
22.15
19.23
15.75
12.16
8.83
5.95
3.4
0.96
-1.66
-4.6
-7.82
-11.15
-14.29
-16.99
-19.15
-20.84
-22.3
-23.93
-26.14
-29.29
-33.47
-38.35
-43.16
-46.79
-48.09
-46.25
-41.12
-33.31
-23.95
-14.36
-5.58
1.83
7.76
12.45
16.19
19.21
21.68
23.65
25.19
26.41
27.38
28.17
28.78
29.2
29.38
29.27
28.91
28.4
27.89
27.52
27.36
27.31
27.13
26.51
25.19
23.13
20.45
17.5
14.62
12.06
9.84
7.75
5.47
2.74
-0.48
-3.97
-7.39
-10.4
-12.83
-14.8
-16.64
-18.76
-21.58
-25.34
-30.04
-35.38
-40.69
-45.01
-47.28
-46.66
-42.82
-36.07
-27.31
-17.73
-8.49
-0.37
6.34
11.69
15.94
19.32
21.95
23.92
25.27
26.14
26.69
27.07
27.37
27.59
27.68
27.55
27.21
26.69
26.08
25.43
24.72
23.87
22.71
21.11
18.99
16.42
13.59
10.74
8.1
5.73
3.55
1.33
-1.16
-4.01
-7.13
-10.26
-13.14
-15.6
-17.72
-19.73
-21.98
-24.82
-28.46
-32.88
-37.73
-42.29
-45.55
-46.48
-44.35
-39.05
-31.16
-21.73
-12.02
-3.05
4.63
10.83
15.67
19.29
21.84
23.42
24.16
24.32
24.14
23.91
23.8
23.9
24.18
24.56
24.94
25.2
25.28
25.12
24.68
23.91
22.77
21.24
19.3
16.99
14.35
11.46
8.4
5.23
2.03
-1.18
-4.36
-7.55
-10.7
-13.75
-16.57
-19.06
-21.2
-23.18
-25.38
-28.17
-31.81
-36.09
-40.3
-43.41
-44.3
-42.25
-37.12
-29.44
-20.24
-10.72
-1.87
5.66
11.67
16.29
19.82
22.55
24.67
26.3
27.44
28.1
28.36
28.29
28.01
27.58
27.02
26.35
25.63
25.01
24.65
24.67
25.05
25.58
25.92
25.67
24.54
22.44
19.53
16.18
12.78
9.64
6.86
4.29
1.67
-1.28
-4.62
-8.21
-11.74
-14.87
-17.41
-19.42
-21.18
-23.09
-25.56
-28.89
-33.16
-38.12
-43.17
-47.34
-49.48
-48.66
-44.47
-37.22
-27.91
-17.88
-8.42
-0.36
5.99
10.78
14.37
17.07
19.12
20.64
21.74
22.56
23.21
23.78
24.24
24.55
24.62
24.46
24.17
23.85
23.61
23.51
23.54
23.66
23.79
23.82
23.54
22.72
21.15
18.79
15.79
12.53
9.44
6.86
4.86
3.25
1.61
-0.45
-3.17
-6.49
-10.09
-13.56
-16.53
-18.87
-20.72
-22.38
-24.27
-26.78
-30.12
-34.27
-38.79
-42.91
-45.58
-45.78
-42.9
-36.96
-28.66
-19.19
-9.81
-1.49
5.27
10.44
14.29
17.13
19.2
20.68
21.68
22.34
22.8
23.25
23.8
24.47
25.18
25.8
26.2
26.33
26.19
25.86
25.4
24.87
24.27
23.6
22.81
21.84
20.61
19.05
17.16
15.01
12.77
10.62
8.63
6.75
4.77
2.44
-0.38
-3.64
-7.1
-10.39
-13.19
-15.37
-17.0
-18.35
-19.74
-21.46
-23.73
-26.67
-30.25
-34.23
-38.05
-40.87
-41.75
-39.93
-35.14
-27.8
-18.9
-9.73
-1.45
5.22
10.11
13.42
15.53
16.79
17.38
17.42
17.08
16.57
16.15
16.01
16.13
16.37
16.45
16.21
15.65
14.9
14.2
13.72
13.48
13.34
13.07
12.42
11.21
9.38
7.02
4.36
1.72
-0.6
-2.41
-3.78
-4.93
-6.21
-7.84
-9.86
-12.04
-14.1
-15.83
-17.26
-18.64
-20.37
-22.83
-26.16
-30.26
-34.67
-38.66
-41.32
-41.82
-39.64
-34.76
-27.7
-19.37
-10.83
-3.03
3.44
8.36
11.81
14.02
15.32
16.01
16.36
16.57
16.74
16.89
16.93
16.77
16.33
15.62
14.74
13.9
13.29
13.02
13.08
13.3
13.43
13.23
12.55
11.41
9.9
8.19
6.38
4.46
2.41
0.16
-2.31
-4.91
-7.55
-10.09
-12.44
-14.59
-16.56
-18.51
-20.64
-23.21
-26.41
-30.25
-34.42
-38.24
-40.74
-40.97
-38.33
-32.82
-25.08
-16.25
-7.55
0.05
6.06
10.45
13.52
15.65
17.13
18.15
18.79
19.16
19.36
19.5
19.69
19.92
20.11
20.13
19.86
19.32
18.64
18.03
17.65
17.52
17.46
17.14
16.21
14.5
12.09
9.34
6.75
4.74
3.42
2.58
1.69
0.22
-2.19
-5.49
-9.29
-13.03
-16.26
-18.79
-20.73
-22.45
-24.4
-26.98
-30.41
-34.63
-39.25
-43.5
-46.36
-46.84
-44.32
-38.78
-30.87
-21.7
-12.49
-4.23
2.49
7.56
11.14
13.59
15.27
16.47
17.39
18.14
18.75
19.27
19.71
20.09
20.41
20.65
20.79
20.9
21.07
21.44
22.08
22.94
23.85
24.52
24.65
24.04
22.62
20.48
17.82
14.94
12.12
9.57
7.32
5.24
3.07
0.58
-2.36
-5.7
-9.19
-12.48
-15.28
-17.46
-19.12
-20.57
-22.26
-24.58
-27.77
-31.8
-36.3
-40.58
-43.77
-44.96
-43.53
-39.27
-32.55
-24.2
-15.32
-6.93
0.27
6.0
10.38
13.73
16.37
18.53
20.3
21.66
22.6
23.16
23.5
23.76
24.06
24.37
24.55
24.43
23.95
23.19
22.38
21.81
21.6
21.62
21.57
21.08
19.92
18.06
15.69
13.1
10.56
8.26
6.21
4.36
2.6
0.79
-1.15
-3.3
-5.68
-8.2
-10.74
-13.14
-15.28
-17.17
-18.94
-20.83
-23.08
-25.93
-29.49
-33.65
-38.01
-41.84
-44.23
-44.31
-41.6
-36.12
-28.59
-20.08
-11.71
-4.36
1.59
6.15
9.61
12.23
14.24
15.71
16.72
17.3
17.59
17.74
17.9
18.18
18.52
18.82
18.93
18.8
18.43
17.93
17.38
16.78
15.96
14.72
12.94
10.64
8.01
5.34
2.87
0.69
-1.25
-3.15
-5.25
-7.68
-10.49
-13.53
-16.53
-19.24
-21.48
-23.3
-24.96
-26.83
-29.23
-32.26
-35.69
-38.87
-40.89
-40.86
-38.16
-32.77
-25.25
-16.64
-8.13
-0.66
5.3
9.75
13.05
15.59
17.67
19.37
20.65
21.47
21.89
22.02
22.03
22.04
22.03
21.9
21.58
21.06
20.51
20.16
20.18
20.55
21.0
21.17
20.76
19.61
17.79
15.52
13.05
10.58
8.21
5.92
3.67
1.3
-1.29
-4.15
-7.19
-10.19
-12.89
-15.06
-16.66
-17.86
-19.0
-20.49
-22.7
-25.87
-30.01
-34.82
-39.63
-43.44
-45.15
-43.89
-39.41
-32.19
-23.34
-14.24
-6.04
0.64
5.78
9.75
12.97
15.7
18.04
19.97
21.53
22.85
24.04
25.11
25.97
26.44
26.44
26.01
25.42
24.92
24.69
24.72
24.81
24.69
24.13
23.02
21.4
19.4
17.21
14.99
12.87
10.89
9.02
7.23
5.47
3.77
2.17
0.69
-0.76
-2.34
-4.22
-6.51
-9.16
-11.98
-14.73
-17.21
-19.38
-21.36
-23.39
-25.76
-28.74
-32.51
-36.97
-41.65
-45.72
-48.1
-47.81
-44.29
-37.68
-28.77
-18.83
-9.13
-0.64
6.17
11.28
15.06
17.94
20.33
22.46
24.4
26.05
27.27
27.99
28.19
27.99
27.51
26.89
26.24
25.65
25.18
24.89
24.78
24.78
24.71
24.38
23.63
22.43
20.81
18.94
16.98
15.06
13.27
11.63
10.09
8.56
6.9
5.04
2.99
0.82
-1.39
-3.61
-5.83
-8.12
-10.48
-12.85
-15.14
-17.3
-19.39
-21.62
-24.27
-27.59
-31.63
-36.11
-40.39
-43.53
-44.53
-42.65
-37.66
-30.02
-20.78
-11.27
-2.71
4.13
9.06
12.32
14.34
15.5
16.04
16.03
15.61
14.96
14.36
14.05
14.1
14.38
14.58
14.44
13.87
12.96
11.98
11.18
10.71
10.54
10.52
10.44
10.14
9.56
8.74
7.84
7.04
6.52
6.3
6.28
6.19
5.75
4.83
3.48
1.95
0.47
-0.82
-1.97
-3.1
-4.42
-6.03
-7.96
-10.12
-12.42
-14.69
-16.8
-18.64
-20.26
-21.81
-23.63
-26.03
-29.25
-33.2
-37.42
-41.16
-43.5
-43.6
-40.96
-35.6
-28.04
-19.25
-10.31
-2.19
4.55
9.73
13.53
16.32
18.4
20.0
21.17
21.94
22.35
22.49
22.47
22.36
22.16
21.85
21.4
20.82
20.16
19.53
18.93
18.32
17.56
16.48
14.97
13.04
10.79
8.42
6.07
3.83
1.65
-0.58
-3.0
-5.65
-8.49
-11.37
-14.1
-16.54
-18.66
-20.63
-22.71
-25.25
-28.54
-32.64
-37.2
-41.49
-44.45
-45.03
-42.54
-36.91
-28.81
-19.43
-10.11
-1.91
4.66
9.6
13.28
16.13
18.42
20.24
21.61
22.55
23.17
23.65
24.09
24.46
24.64
24.5
24.0
23.24
22.47
21.94
21.81
22.0
22.27
22.24
21.58
20.06
17.76
14.94
11.99
9.24
6.85
4.77
2.77
0.6
-1.92
-4.8
-7.89
-10.97
-13.77
-16.17
-18.19
-20.02
-21.98
-24.42
-27.65
-31.8
-36.69
-41.78
-46.17
-48.77
-48.65
-45.38
-39.18
-30.95
-21.97
-13.4
-6.05
-0.11
4.63
8.56
12.04
15.22
18.09
20.56
22.56
24.12
25.33
26.35
27.34
28.36
29.37
30.19
30.59
30.46
29.84
28.91
27.92
26.98
26.05
24.93
23.4
21.33
18.82
16.11
13.52
11.27
9.46
8.04
6.78
5.43
3.71
1.45
-1.32
-4.41
-7.53
-10.44
-13.02
-15.38
-17.73
-20.32
-23.34
-26.93
-31.11
-35.8
-40.64
-45.0
-47.99
-48.66
-46.35
-41.01
-33.26
-24.23
-15.18
-7.07
-0.37
4.93
9.09
12.4
15.04
17.05
18.46
19.35
19.91
20.36
20.83
21.34
21.78
21.99
21.87
21.48
20.96
20.49
20.19
20.03
19.87
19.48
18.63
17.19
15.17
12.73
10.12
7.56
5.18
2.87
0.41
-2.49
-5.94
-9.8
-13.69
-17.15
-19.89
-21.92
-23.59
-25.39
-27.82
-31.15
-35.3
-39.82
-43.94
-46.71
-47.19
-44.77
-39.36
-31.49
-22.22
-12.8
-4.34
2.52
7.67
11.4
14.22
16.55
18.63
20.51
22.12
23.4
24.33
24.98
25.41
25.67
25.81
25.79
25.61
25.3
24.87
24.34
23.71
22.86
21.65
19.94
17.68
14.95
12.0
9.13
6.57
4.41
2.51
0.58
-1.68
-4.39
-7.46
-10.62
-13.58
-16.18
-18.44
-20.59
-22.98
-25.92
-29.66
-34.19
-39.16
-43.83
-47.17
-48.1
-45.92
-40.53
-32.52
-23.07
-13.46
-4.75
2.5
8.22
12.69
16.27
19.27
21.82
23.91
25.5
26.56
27.14
27.3
27.18
26.85
26.36
25.74
25.02
24.28
23.66
23.26
23.07
23.03
22.96
22.66
21.96
20.7
18.8
16.23
13.1
9.64
6.18
2.99
0.19
-2.29
-4.71
-7.3
-10.2
-13.31
-16.41
-19.27
-21.78
-24.01
-26.17
-28.5
-31.25
-34.65
-38.86
-43.89
-49.47
-54.9
-59.05
-60.51
-58.07
-51.17
-40.12
-26.15
-11.02
3.58
16.38
26.81
34.9
40.97
45.44
48.65
50.93
52.61
54.09
55.69
57.57
59.66
61.65
63.17
63.9
63.71
62.68
61.04
59.07
56.96
54.79
52.45
49.71
46.35
42.2
37.36
32.1
26.88
22.15
18.16
14.88
12.0
8.96
5.21
0.31
-5.85
-13.02
-20.67
-28.12
-34.84
-40.55
-45.33
-49.55
-53.68
-58.17
-63.26
-68.87
-74.58
-79.64
-83.07
-83.99
-81.83
-76.63
-69.03
-60.12
-51.08
-42.81
-35.81
-30.15
-25.65
-22.03
-19.05
-16.59
-14.55
-12.88
-11.49
-10.31
-9.23
-8.21
-7.21
-6.25
-5.3
-4.29
-3.06
-1.46
0.58
3.02
5.73
8.57
11.45
14.34
17.24
20.09
22.78
25.23
27.4
29.31
30.99
32.4
33.41
33.85
33.65
32.88
31.73
30.37
28.82
26.82
24.01
20.1
15.15
9.76
4.93
1.78
1.12
3.09
7.21
12.44
17.69
22.12
25.34
27.4
28.53
28.97
28.85
28.18
26.94
25.22
23.22
21.24
19.54
18.26
17.35
16.65
15.96
15.15
14.28
13.48
12.88
12.52
12.26
11.88
11.17
10.02
8.44
6.49
4.19
1.47
-1.71
-5.33
-9.21
-13.02
-16.41
-19.14
-21.22
-22.85
-24.35
-26.08
-28.34
-31.35
-35.14
-39.43
-43.56
-46.49
-47.14
-44.76
-39.27
-31.39
-22.35
-13.54
-5.97
-0.1
4.13
7.08
9.17
10.7
11.87
12.74
13.31
13.55
13.41
12.87
11.98
10.83
9.54
8.19
6.87
5.59
4.41
3.38
2.55
1.95
1.58
1.39
1.27
1.07
0.6
-0.24
-1.49
-3.03
-4.67
-6.21
-7.57
-8.84
-10.22
-11.94
-14.17
-17.03
-20.61
-24.89
-29.74
-34.7
-38.97
-41.49
-41.19
-37.53
-30.7
-21.63
-11.76
-2.47
5.31
11.3
15.73
19.07
21.74
23.94
25.72
27.07
28.07
28.86
29.64
30.56
31.67
32.87
34.06
35.11
36.07
37.19
38.84
41.41
45.12
49.84
55.1
60.24
64.65
67.91
69.94
70.9
71.01
70.49
69.48
68.03
66.14
63.75
60.75
56.98
52.26
46.52
39.88
32.8
26.07
20.66
17.34
16.4
17.47
19.48
21.16
21.36
19.52
15.76
10.7
5.11
-0.42
-5.61
-10.48
-15.1
-19.45
-23.33
-26.41
-28.35
-28.93
-28.19
-26.36
-23.78
-20.71
-17.27
-13.37
-8.84
-3.57
2.27
8.26
13.67
17.58
19.08
17.44
12.36
4.09
-6.65
-18.83
-31.45
-43.76
-55.42
-66.44
-76.97
-87.19
-97.24
-107.2
-116.97
-126.15
-133.86
-138.86
-139.88
-136.18
-127.88
-116.15
-102.71
-89.35
-77.25
-66.87
-58.04
-50.3
-43.31
-36.97
-31.39
-26.61
-22.58
-19.11
-15.93
-12.85
-9.78
-6.71
-3.65
-0.54
2.69
6.08
9.58
12.94
15.81
17.84
18.81
18.75
17.92
16.73
15.55
14.55
13.68
12.64
11.1
8.78
5.68
2.02
-1.78
-5.31
-8.28
-10.68
-12.81
-15.11
-18.12
-22.18
-27.4
-33.46
-39.58
-44.62
-47.24
-46.31
-41.36
-32.81
-21.88
-10.25
0.54
9.45
16.21
21.07
24.53
27.01
28.76
29.8
30.14
29.87
29.18
28.34
27.59
27.11
26.91
26.9
26.89
26.74
26.41
25.9
25.32
24.67
23.89
22.78
21.17
18.9
15.98
12.55
8.83
5.1
1.65
-1.23
-3.31
-4.44
-4.62
-4.0
-2.93
-1.83
-1.19
-1.5
-3.18
-6.47
-11.22
-16.82
-22.18
-25.94
-26.92
-24.5
-18.85
-10.84
-1.65
7.61
16.23
23.86
30.44
35.9
40.16
43.06
44.51
44.55
43.31
40.93
37.52
33.14
27.97
22.25
16.39
10.86
6.08
2.32
-0.25
-1.58
-1.75
-0.99
0.34
1.74
2.77
3.13
2.8
2.01
1.06
0.12
-0.82
-2.02
-3.73
-6.01
-8.73
-11.56
-14.15
-16.33
-18.12
-19.73
-21.52
-23.84
-27.01
-31.23
-36.45
-42.31
-47.95
-52.18
-53.75
-51.8
-46.19
-37.64
-27.5
-17.28
-8.13
-0.59
5.35
10.05
13.85
16.9
19.2
20.75
21.65
22.17
22.58
23.13
23.9
24.8
25.68
26.4
26.91
27.24
27.54
28.01
28.83
30.16
32.01
34.17
36.31
