2013-06-20 12:03:54
64.0
-0.0
-0.0
-0.0
-0.0
-0.0
-0.0
-0.0
-0.0
-0.0
-0.0
0.0
0.01
0.01
-0.0
-0.03
-0.05
-0.05
0.0
0.13
0.36
0.66
1.01
1.37
1.72
2.06
2.4
2.79
3.24
3.8
4.42
5.06
5.66
6.2
6.68
7.15
7.68
8.31
9.14
10.09
11.04
11.88
12.56
13.14
13.76
14.65
15.96
17.91
20.32
22.9
25.38
27.58
29.57
31.68
34.32
37.81
42.54
48.15
54.1
59.83
64.97
69.58
74.14
79.34
85.71
93.76
103.0
112.62
121.73
129.77
136.75
143.3
150.75
157.77
166.64
177.95
191.79
206.97
220.57
228.25
225.36
208.53
176.87
132.76
80.05
23.07
-34.94
-92.44
-149.16
-205.23
-260.37
-313.74
-363.87
-409.83
-450.91
-486.5
-515.74
-537.23
-549.22
-549.96
-538.37
-514.21
-478.67
-433.88
-382.45
-327.02
-269.84
-212.63
-156.66
-102.95
-52.37
-5.9
35.58
71.43
101.35
125.5
144.38
158.69
169.15
176.37
180.75
182.57
182.07
179.51
175.23
169.65
163.18
156.15
148.81
141.3
133.69
126.02
118.33
110.69
103.16
95.8
88.68
81.83
75.25
68.95
62.95
57.25
51.86
46.78
42.03
37.59
33.45
29.61
26.07
22.81
19.83
17.11
14.67
12.48
10.54
8.83
7.35
6.07
4.97
4.05
3.27
2.62
2.09
1.65
1.3
1.01
0.79
0.61
0.48
0.37
0.29
0.22
0.18
0.14
0.11
0.09
0.08
0.07
0.06
0.05
0.04
0.04
0.04
0.04
0.05
0.06
0.08
0.11
0.14
0.19
0.24
0.3
0.36
0.44
0.52
0.6
0.68
0.76
0.84
0.92
0.99
1.07
1.14
1.22
1.3
1.38
1.48
1.59
1.71
1.86
2.02
2.21
2.42
2.67
2.95
3.27
3.62
4.01
4.45
4.92
5.45
6.02
6.65
7.32
8.05
8.83
9.66
10.55
11.5
12.51
13.59
14.7
15.84
16.97
18.12
19.28
20.54
21.92
23.47
25.17
26.94
28.72
30.38
31.83
32.94
33.57
33.53
32.62
30.6
27.23
22.33
15.82
7.83
-1.32
-11.17
-21.21
-30.93
-39.89
-47.81
-54.43
-59.53
-62.86
-64.07
-62.9
-59.25
-53.32
-45.71
-37.35
-29.21
-22.05
-16.22
-11.53
-7.46
-3.5
0.55
4.45
7.54
9.16
8.96
7.26
4.94
3.16
2.7
3.61
5.27
6.67
6.97
5.91
3.7
0.78
-2.52
-5.81
-7.99
-6.96
-0.44
13.15
32.81
54.72
73.5
84.12
84.05
74.0
57.64
39.72
24.26
13.51
8.47
10.15
19.93
38.73
65.25
94.88
120.03
132.59
126.79
101.03
59.02
8.69
-41.21
-84.69
-120.37
-150.78
-179.87
-210.38
-242.69
-275.28
-306.48
-335.04
-360.04
-379.65
-390.51
-388.26
-369.17
-332.25
-280.07
-218.18
-153.06
-90.1
-32.43
18.69
62.58
98.14
123.78
138.59
143.77
142.87
140.45
139.68
140.41
139.02
130.94
113.99
91.14
70.08
59.87
66.27
88.55
119.63
149.37
169.07
174.5
165.96
145.78
115.21
73.59
19.96
-43.76
-110.68
-169.72
-209.55
-223.7
-213.98
-190.08
-165.2
-149.98
-148.04
-155.13
-162.42
-161.56
-148.89
-126.33
-99.29
-72.78
-48.71
-25.27
1.59
35.81
79.4
131.95
190.99
252.59
311.67
362.33
398.62
416.08
413.27
392.88
361.45
327.44
298.63
279.67
270.85
268.57
267.04
260.49
244.91
218.7
182.52
138.45
89.3
38.15
-11.79
-57.33
-95.78
-125.42
-146.14
-159.44
-167.94
-174.36
-180.57
-187.1
-193.37
-198.27
-200.74
-200.14
-196.36
-189.78
-181.2
-171.54
-161.47
-151.01
-139.35
-125.14
-107.23
-85.44
-60.87
-35.62
-12.07
7.93
23.47
34.46
41.3
44.4
44.09
40.73
34.95
27.71
20.27
13.99
9.89
8.51
9.89
13.74
19.69
27.37
36.47
46.63
57.46
68.57
79.82
91.45
103.81
116.95
130.15
141.74
149.48
151.45
146.84
136.1
120.65
102.0
81.18
58.64
34.83
10.51
-13.16
-35.27
-55.75
-75.36
-94.71
-113.25
-128.63
-137.85
-139.31
-134.71
-129.54
-131.59
-148.18
-183.27
-235.68
-299.09
-363.56
-418.19
-453.85
-465.29
-452.24
-418.78
-371.53
-317.1
-260.19
-203.4
-148.36
-97.28
-53.67
-21.19
-1.56
6.88
9.04
11.3
18.99
34.66
58.04
86.77
117.82
148.42
176.17
199.01
215.24
223.92
225.48
221.92
216.42
212.48
212.89
218.81
229.6
242.92
255.37
263.66
265.63
260.99
251.17
238.5
225.02
211.87
199.33
187.53
177.2
169.73
166.44
167.58
171.77
176.32
178.52
176.88
171.73
164.53
156.64
148.33
138.83
127.23
113.52
98.89
84.98
72.74
61.73
50.42
37.35
22.24
6.35
-8.23
-19.88
-28.47
-35.58
-43.82
-55.86
-73.64
-98.01
-128.91
-165.78
-207.78
-254.22
-304.92
-360.17
-419.91
-482.58
-544.27
-599.0
-640.38
-663.79
-668.05
-655.47
-630.35
-596.98
-558.15
-515.15
-468.69
-420.08
-371.59
-325.83
-284.67
-248.45
-216.12
-185.98
-156.55
-127.09
-97.51
-68.12
-39.31
-11.31
15.91
42.43
68.39
93.98
119.29
144.34
169.06
193.25
216.89
240.41
264.71
290.85
319.12
348.38
375.87
398.0
411.66
415.41
409.58
395.56
374.81
348.38
317.22
283.09
249.04
219.12
197.3
186.17
186.26
196.08
212.71
232.44
251.33
265.7
272.76
271.32
261.82
245.93
225.78
203.24
180.02
158.19
140.16
128.07
122.4
121.0
119.48
113.15
99.44
79.37
57.22
38.24
26.24
22.1
23.87
28.26
32.27
34.23
33.66
30.87
26.19
19.67
11.05
-0.18
-14.46
-31.81
-51.52
-72.11
-91.81
-109.25
-124.01
-136.55
-147.56
-157.12
-164.41
-168.06
-166.95
-160.99
-151.39
-140.32
-130.15
-122.73
-118.85
-118.23
-119.88
-122.57
-125.42
-128.03
-130.23
-131.69
-131.65
-129.05
-123.14
-114.13
-103.22
-92.05
-82.06
-73.65
-66.31
-59.25
-51.97
-44.47
-37.11
-30.31
-24.55
-20.52
-19.07
-20.74
-24.83
-28.82
-28.62
-20.03
-0.92
27.35
59.89
90.06
111.93
122.39
121.75
112.74
98.89
83.09
67.19
52.32
39.46
29.54
23.06
19.52
17.11
13.51
6.98
-2.36
-12.31
-19.35
-20.18
-13.34
-0.08
15.94
29.98
37.95
37.73
29.62
15.78
-0.85
-17.52
-32.26
-43.88
-51.7
-55.49
-55.53
-52.9
-49.26
-46.29
-44.87
-44.51
-43.51
-39.87
-32.22
-20.5
-5.89
9.87
25.19
38.93
50.22
58.24
62.09
61.22
55.92
47.53
38.17
29.94
24.13
20.81
19.01
17.41
14.91
11.15
6.55
2.17
-0.7
-0.99
1.76
7.16
14.18
21.52
28.1
33.38
37.37
40.2
41.7
41.25
37.95
31.21
21.27
9.67
-1.15
-8.63
-11.19
-8.99
-3.97
1.1
3.93
3.87
2.0
0.33
0.55
3.06
7.02
11.22
15.08
19.06
24.18
30.95
38.66
45.48
49.44
49.61
46.82
43.32
41.68
43.43
48.26
54.13
58.21
58.32
54.0
46.97
40.6
38.45
42.8
53.57
68.4
83.67
96.05
103.88
107.4
108.29
108.49
109.25
110.82
112.82
115.02
117.93
122.76
130.96
143.33
159.41
177.28
194.15
207.47
216.2
221.56
226.8
235.92
251.71
274.18
299.98
323.37
338.01
338.98
323.73
292.33
247.49
194.62
141.87
98.93
74.48
72.75
91.13
120.37
147.96
163.06
160.51
141.83
113.14
81.34
51.09
24.0
-0.19
-21.85
-40.7
-56.21
-68.78
-80.12
-92.68
-108.41
-127.66
-149.07
-170.33
-189.48
-206.15
-221.78
-239.19
-261.28
-289.62
-323.16
-358.1
-388.35
-407.18
-409.33
-393.08
-361.32
-321.01
-280.9
-248.3
-226.61
-214.64
-208.2
-202.76
-195.86
-187.79
-180.57
-175.98
-174.06
-172.99
-170.34
-165.01
-158.53
-154.67
-157.63
-169.63
-189.07
-210.52
-226.68
-231.44
-222.47
-202.0
-175.55
-149.44
-128.71
-116.17
-112.5
-116.61
-125.62
-134.72
-138.01
-130.57
-111.05
-83.1
-54.27
-32.67
-23.02
-24.57
-32.0
-38.59
-39.62
-33.99
-23.59
-11.06
1.99
15.85
32.03
51.8
74.93
99.26
121.36
137.92
147.16
149.5
147.09
142.16
135.27
124.82
108.09
83.58
52.92
20.86
-6.84
-26.34
-37.79
-44.83
-51.9
-61.45
-72.69
-82.79
-89.4
-92.59
-95.09
-100.72
-111.98
-128.23
-145.49
-157.98
-160.14
-148.93
-125.21
-93.89
-62.9
-41.12
-35.62
-49.35
-79.61
-118.18
-153.03
-171.81
-166.0
-134.42
-84.33
-29.43
15.36
40.03
43.88
35.84
30.42
41.66
77.66
138.28
216.26
300.41
378.55
439.42
473.78
475.97
445.87
390.6
324.28
264.69
227.51
220.63
241.1
276.33
309.21
324.79
315.13
280.66
228.04
165.78
100.43
34.68
-31.82
-100.01
-168.65
-233.13
-286.12
-320.04
-330.09
-316.18
-283.04
-238.4
-190.17
-144.01
-102.44
-65.79
-34.06
-8.41
8.71
14.92
9.59
-4.92
-23.82
-41.71
-54.84
-62.37
-65.98
-67.98
-69.36
-68.8
-63.28
-49.86
-27.44
2.53
36.52
70.35
100.76
126.28
147.32
165.58
182.97
200.65
218.37
234.49
246.65
252.8
252.09
244.98
232.7
216.22
195.55
169.96
138.64
101.7
60.18
15.45
-31.67
-81.24
-133.35
-186.68
-237.46
-279.63
-306.83
-315.05
-304.68
-280.48
-249.56
-218.49
-191.4
-169.63
-153.12
-141.74
-135.49
-133.58
-133.1
-128.47
-112.77
-80.3
-29.4
35.86
105.93
168.11
210.18
223.34
204.35
155.89
85.85
5.74
-70.97
-130.85
-162.77
-160.59
-125.56
-67.15
-1.48
53.32
82.55
79.14
44.98
-10.48
-73.43
-128.92
-164.28
-172.24
-152.76
-113.65
-69.01
-35.27
-25.91
-46.59
-93.03
-152.66
-209.88
-251.28
-269.6
-264.53
-241.3
-207.47
-169.58
-131.01
-91.66
-50.58
-7.97
33.89
71.79
103.31
127.72
145.68
157.62
162.61
157.45
139.22
109.51
77.09
54.37
49.62
62.85
88.6
121.31
155.89
190.18
220.1
239.97
244.29
230.64
201.76
159.34
113.35
75.38
52.65
43.8
41.66
37.39
27.36
12.62
-3.64
-17.5
-27.25
-32.27
-32.93
-30.83
-28.37
-27.48
-32.98
-46.85
-69.01
-98.75
-131.79
-163.32
-187.65
-200.08
-197.36
-172.9
-130.27
-80.62
-35.59
-0.73
24.17
41.87
54.68
66.65
81.61
102.56
132.74
175.28
232.88
302.35
377.77
441.57
476.03
469.18
421.41
346.39
264.07
192.05
139.47
107.24
86.12
69.42
53.59
37.33
20.49
2.45
-18.97
-43.96
-73.57
-108.52
-146.89
-186.11
-224.05
-259.93
-294.38
-328.8
-364.04
-399.63
-433.26
-460.29
-476.4
-479.39
-469.7
-449.6
-421.67
-387.59
-348.25
-304.24
-256.24
-206.32
-158.1
-116.34
-85.95
-70.78
-72.26
-88.61
-114.72
-143.2
-167.18
-182.9
-190.72
-194.11
-197.01
-201.28
-205.81
-207.52
-203.43
-192.68
-176.87
-158.89
-141.2
-124.77
-109.07
-93.17
-76.68
-60.2
-44.93
-31.89
-21.25
-12.03
-2.65
8.39
21.68
36.66
52.1
66.66
79.71
91.6
103.4
116.22
130.51
145.87
161.22
175.57
188.63
201.17
214.63
230.44
249.22
270.29
292.07
312.89
331.81
349.14
366.24
384.83
406.45
432.18
462.67
497.87
536.39
574.76
607.15
626.47
626.22
602.87
557.03
493.09
417.33
335.51
251.52
167.26
83.84
3.23
-70.91
-133.82
-181.23
-211.21
-224.94
-225.6
-216.08
-196.98
-166.59
-123.17
-68.88
-12.08
33.54
53.85
40.7
-3.6
-66.11
-128.15
-172.58
-189.68
-179.44
-149.71
-112.44
-79.5
-59.62
-56.52
-68.17
-87.24
-102.82
-103.57
-81.71
-36.22
26.54
94.6
154.67
196.33
214.5
209.27
184.05
143.76
93.89
40.76
-8.68
-47.82
-72.42
-82.19
-80.79
-74.2
-67.76
-64.02
-62.43
-61.06
-59.01
-57.81
-60.87
-71.46
-90.49
-115.4
-140.99
-161.26
-171.53
-169.66
-156.18
-133.94
-106.82
-78.98
-54.16
-35.52
-25.15
-23.46
-28.73
-37.16
-44.15
-45.94
-40.96
-29.89
-14.47
3.96
25.37
50.32
78.55
107.87
134.08
152.3
158.49
151.02
130.85
101.68
69.37
40.94
22.78
18.25
26.08
40.3
52.36
54.47
42.89
19.5
-8.84
-33.25
-46.56
-46.36
-36.23
-24.38
-20.26
-30.32
-55.01
-88.4
-120.52
-141.79
-146.55
-134.48
-109.35
-76.3
-39.85
-3.65
28.54
52.6
64.62
62.76
48.42
26.37
2.95
-16.39
-29.09
-35.92
-40.12
-45.69
-55.62
-70.63
-88.75
-105.87
-117.05
-118.37
-108.45
-89.04
-64.4
-39.57
-18.56
-3.22
6.62
12.15
14.44
14.0
11.07
6.18
0.5
-4.3
-6.63
-5.37
-0.06
9.24
21.88
36.72
52.12
66.26
77.54
85.06
88.94
90.01
89.21
86.95
82.82
75.9
65.47
51.68
35.76
19.68
5.25
-6.66
-16.3
-24.52
-31.86
-37.76
-40.78
-39.63
-34.33
-26.6
-18.99
-13.3
-9.31
-4.85
2.8
15.16
31.45
48.82
63.73
73.59
77.63
76.75
72.64
66.9
60.55
54.01
47.32
40.44
33.42
26.34
19.36
12.59
6.02
-0.48
-6.92
-12.97
-17.85
-20.57
-20.32
-16.83
-10.57
-2.46
6.41
15.01
22.3
27.24
28.74
26.11
19.53
10.26
0.34
-8.16
-13.9
-16.59
-16.73
-15.24
-13.05
-11.17
-10.58
-12.01
-15.29
-18.81
-19.75
-15.06
-3.01
15.7
37.86
58.99
75.03
83.69
84.85
79.89
70.7
58.91
45.8
32.58
20.64
11.45
6.07
4.5
5.44
6.54
5.25
-0.05
-9.12
-19.78
-28.61
-32.42
-29.72
-21.52
-10.81
-1.27
4.39
5.44
3.0
-1.0
-5.16
-9.45
-15.24
-24.38
-38.03
-55.88
-75.93
-95.25
-110.96
-121.21
-125.66
-125.28
-121.79
-116.98
-112.17
-107.6
-102.11
-93.27
-77.81
-52.65
-16.04
31.33
85.76
140.91
189.39
224.87
244.08
247.63
239.2
223.65
204.83
184.35
161.6
134.82
102.63
65.19
24.89
-13.93
-46.18
-67.95
-78.06
-78.65
-74.34
-69.97
-68.08
-67.68
-65.53
-58.82
-47.58
-35.01
-25.3
-20.67
-19.68
-18.3
-12.82
-3.14
6.43
9.0
-1.83
-29.48
-73.48
-129.94
-192.44
-252.29
-299.21
-323.31
-318.65
-286.58
-236.6
-183.33
-140.62
-115.98
-108.02
-108.41
-106.73
-95.39
-71.99
-37.91
4.1
51.64
102.45
153.08
198.26
232.28
251.2
254.59
245.44
227.8
203.96
173.16
132.06
77.49
9.85
-64.81
-135.45
-188.57
-212.31
-200.38
-154.4
-84.31
-6.62
59.75
98.86
102.75
74.79
28.4
-17.75
-47.03
-51.3
-33.44
-4.63
21.52
35.08
33.27
19.35
-0.43
-19.96
-34.44
-40.02
-33.3
-12.16
22.66
66.02
108.77
140.49
153.06
143.46
114.13
71.45
22.87
-24.98
-66.74
-97.65
-112.59
-106.67
-77.61
-28.2
32.4
90.29
131.21
145.7
132.41
98.01
53.48
8.89
-30.25
-63.89
-95.59
-129.68
-168.92
-213.67
-261.78
-309.0
-349.28
-375.7
-382.06
-365.2
-326.52
-271.96
-209.84
-147.81
-90.4
-38.01
11.99
62.84
116.29
171.36
224.64
271.73
308.96
334.31
347.59
349.77
342.28
326.76
305.32
280.83
256.65
235.22
216.35
196.93
172.44
140.14
101.88
64.01
33.92
15.03
3.92
-8.1
-29.64
-63.58
-104.32
-140.41
-160.48
-158.36
-134.88
-95.83
-47.51
6.14
63.38
122.43
179.07
226.31
256.7
265.36
252.27
222.47
184.11
145.31
111.81
85.58
64.97
46.17
25.07
-1.36
-34.35
-73.21
-115.66
-158.23
-196.8
-227.19
-246.1
-252.0
-245.33
-228.29
-204.09
-175.87
-146.16
-116.7
-88.68
-63.23
-41.78
-26.03
-17.67
-17.79
-26.09
-40.57
-57.82
-74.15
-87.04
-96.26
-103.62
-111.71
-122.17
-134.63
-146.79
-155.7
-159.14
-156.4
-148.02
-134.97
-117.85
-96.96
-72.92
-47.36
-22.98
-2.87
10.56
16.54
16.16
11.75
5.98
0.85
-2.71
-4.8
-6.07
-7.33
-9.28
-12.35
-16.65
-21.76
-26.78
-30.3
-30.77
-27.06
-18.95
-7.22
6.5
20.31
32.5
41.89
47.88
50.28
49.29
45.4
39.44
32.51
25.81
20.37
16.76
14.9
14.16
13.45
11.63
7.98
2.51
-3.94
-9.84
-13.63
-14.29
-11.74
-6.8
-0.69
5.55
11.37
16.69
21.58
25.76
28.64
29.38
27.52
23.29
17.73
12.27
8.17
6.02
5.58
5.93
5.9
4.44
0.81
-5.16
-12.96
-21.31
-28.31
-31.9
-30.54
-23.79
-12.56
1.31
15.73
29.06
40.32
49.05
54.86
57.32
56.07
51.31
44.05
35.85
28.46
22.99
19.65
17.86
16.58
14.8
11.77
7.09
0.77
-6.72
-14.4
-20.82
-24.41
-23.98
-19.11
-10.49
0.41
11.72
21.85
29.74
34.89
37.03
35.99
31.7
24.4
14.96
4.91
-3.84
-9.62
-11.55
-9.81
-5.56
-0.51
3.55
5.17
3.52
-1.42
-8.73
-16.62
-22.81
-25.26
-22.9
-16.08
-6.43
3.86
12.85
19.53
23.75
25.84
26.06
24.39
20.69
15.16
8.58
2.22
-2.63
-5.26
-5.78
-5.07
-4.25
-4.24
-5.49
-8.0
-11.55
-15.72
-19.89
-23.06
-23.84
-20.9
-13.49
-2.03
11.89
25.93
37.91
46.5
51.55
53.64
53.54
51.74
48.38
43.52
37.57
31.34
25.82
21.67
18.94
16.95
14.64
11.07
5.85
-0.78
-8.16
-15.64
-22.91
-30.12
-37.52
-45.0
-51.7
-56.11
-56.47
-51.56
-41.23
-26.61
-9.66
7.36
22.57
34.71
43.24
48.03
49.26
47.36
42.96
36.97
30.39
24.16
18.91
14.92
12.09
10.1
8.56
7.1
5.54
3.82
2.0
0.03
-2.32
-5.51
-10.09
-16.35
-23.89
-31.5
-37.34
-39.48
-36.65
-28.77
-17.05
-3.55
9.54
20.5
28.42
33.08
34.74
33.92
31.29
27.64
23.86
20.71
18.59
17.39
16.59
15.54
13.77
11.15
7.89
4.3
0.63
-3.07
-6.95
-11.23
-16.23
-22.22
-29.23
-36.89
-44.22
-49.68
-51.6
-48.76
-40.99
-29.33
-15.75
-2.45
8.83
17.24
22.69
25.53
26.16
24.94
22.25
18.65
14.88
11.7
9.51
8.25
7.42
6.36
4.55
1.89
-1.36
-4.75
-7.95
-10.92
-13.92
-17.47
-22.02
-27.78
-34.44
-41.06
-46.22
-48.38
-46.31
-39.64
-29.0
-15.96
-2.5
9.51
18.83
24.91
27.86
28.1
26.23
22.89
18.77
14.62
11.07
8.52
6.97
6.1
5.37
4.33
2.75
0.78
-1.21
-2.77
-3.64
-3.9
-3.97
-4.57
-6.44
-10.07
-15.34
-21.38
-26.61
-29.29
-28.15
-23.02
-15.05
-6.25
1.28
6.17
8.17
7.91
6.37
4.22
1.69
-1.2
-4.34
-7.23
-9.15
-9.47
-7.91
-4.63
-0.16
4.81
9.46
13.05
15.05
15.25
13.85
11.3
7.99
4.16
0.03
-3.77
-5.9
-4.48
2.09
14.18
30.33
47.49
62.12
71.54
74.86
72.93
67.56
60.4
52.32
43.45
33.63
23.12
12.69
3.42
-3.77
-8.61
-11.52
-13.34
-14.91
-16.68
-18.62
-20.42
-21.81
-22.9
-24.26
-26.74
-30.99
-36.95
-43.52
-48.76
-50.53
-47.33
-38.95
-26.66
-12.69
0.57
11.33
18.76
22.91
24.31
23.65
21.53
18.56
15.31
12.32
9.96
8.32
7.18
6.07
4.5
2.1
-1.27
-5.48
-10.2
-15.02
-19.65
-24.02
-28.39
-33.13
-38.38
-43.7
-47.94
-49.5
-46.92
-39.57
-28.01
-13.94
0.31
12.55
21.33
26.21
27.59
26.38
23.55
19.91
16.12
12.63
9.78
7.75
6.49
5.69
4.87
3.54
1.41
-1.56
-5.16
-9.06
-13.12
-17.43
-22.27
-27.8
-33.71
-39.03
-42.23
-41.74
-36.65
-27.16
-14.71
-1.47
10.31
19.09
24.34
26.38
25.94
23.85
20.67
16.81
12.66
8.65
5.26
2.86
1.49
0.9
0.55
-0.2
-1.84
-4.64
-8.54
-13.37
-18.91
-24.99
-31.4
-37.57
-42.46
-44.58
-42.52
-35.54
-24.08
-9.8
4.86
17.52
26.55
31.43
32.57
30.91
27.47
23.06
18.33
13.77
9.8
6.76
4.71
3.5
2.72
1.83
0.33
-2.07
-5.5
-9.95
-15.31
-21.47
-28.07
-34.36
-39.1
-40.79
-38.14
-30.72
-19.29
-5.74
7.59
18.66
26.32
30.48
31.74
30.9
28.57
25.16
20.98
16.5
12.29
8.94
6.71
5.49
4.81
4.05
2.66
0.23
-3.48
-8.6
-15.16
-22.91
-31.15
-38.58
-43.48
-44.17
-39.63
-30.0
-16.64
-1.7
12.57
24.42
33.01
38.24
40.4
39.88
37.02
32.24
26.28
20.17
15.04
11.69
10.29
10.25
10.45
9.66
7.06
2.57
-3.22
-9.35
-14.96
-19.53
-22.96
-25.22
-25.98
-24.27
-18.73
-8.04
8.11
28.45
50.09
69.41
83.41
91.02
93.53
93.73
94.45
96.93
100.27
101.82
98.18
86.1
63.17
28.48
-16.44
-66.74
-114.15
-148.26
-159.25
-141.15
-94.34
-25.96
52.03
126.16
185.17
222.22
235.42
226.87
200.69
161.17
111.28
52.74
-12.77
-81.73
-147.73
-202.0
-235.91
-244.3
-227.7
-192.36
-147.82
-103.38
-65.1
-34.81
-11.54
5.98
17.32
20.34
12.91
-4.73
-28.66
-51.86
-66.66
-67.63
-53.81
-29.42
-2.33
18.3
24.52
11.52
-21.09
-69.19
-125.05
-179.52
-224.73
-255.96
-271.91
-273.6
-262.31
-239.05
-205.48
-165.55
-125.96
-94.6
-77.17
-74.28
-80.7
-87.47
-85.71
-69.85
-39.07
3.23
51.06
97.56
136.3
162.43
173.94
172.16
161.06
145.36
128.35
110.84
92.14
71.66
50.71
32.55
20.85
18.01
24.22
37.36
54.1
71.02
85.38
95.93
103.23
109.78
119.2
135.0
158.84
189.44
222.57
252.5
273.89
283.26
279.41
263.22
237.15
204.64
169.71
136.22
106.97
82.84
62.51
43.28
22.86
0.66
-21.66
-41.03
-55.0
-63.35
-68.39
-73.87
-82.96
-96.47
-112.53
-127.58
-138.4
-143.88
-145.43
-146.19
-149.09
-155.13
-162.76
-168.5
-168.53
-160.21
-142.75
-116.97
-84.62
-47.71
-8.41
30.78
67.12
97.93
121.26
136.17
142.71
141.37
132.73
117.78
98.55
78.46
61.84
52.51
52.28
60.12
73.01
87.5
101.39
114.25
126.75
139.28
150.95
159.61
163.13
160.88
154.48
147.09
141.66
138.91
136.42
129.27
112.12
81.76
38.78
-12.18
-63.8
-108.09
-138.15
-149.59
-141.26
-115.8
-79.61
-42.18
-14.28
-5.2
-19.85
-56.97
-109.25
-165.7
-215.02
-249.04
-264.53
-263.04
-249.44
-229.83
-209.85
-193.68
-183.58
-179.85
-180.97
-183.91
-184.94
-180.75
-169.69
-152.43
-131.55
-110.43
-91.79
-76.97
-65.93
-57.85
-52.06
-48.34
-46.74
-47.1
-48.78
-50.86
-52.67
-54.19
-55.91
-58.64
-62.96
-68.89
-75.81
-82.59
-88.08
-91.42
-92.25
-90.43
-85.97
-79.12
-70.33
-60.12
-48.97
-37.11
-24.37
-10.18
6.46
25.85
46.35
64.07
74.13
73.18
61.66
44.54
29.76
25.35
35.88
60.32
92.95
126.47
155.49
178.03
194.98
205.13
205.84
195.55
175.39
148.56
119.08
90.94
67.29
49.58
37.29
28.84
22.46
16.72
11.06
5.91
2.41
1.72
4.8
11.68
21.71
33.44
44.51
52.11
53.98
49.53
39.99
28.08
16.49
7.09
0.4
-4.17
-7.49
-9.91
-10.97
-11.22
-10.91
-10.89
-12.11
-15.11
-19.54
-24.27
-27.99
-29.83
-29.72
-28.3
-26.82
-26.53
-28.25
-32.0
-36.99
-41.73
-44.52
-44.09
-39.95
-32.79
-24.02
-15.22
-7.51
-1.38
3.14
6.03
7.14
6.34
3.77
0.09
-3.66
-6.48
-7.96
-8.41
-8.44
-8.4
-7.99
-6.51
-3.45
0.89
5.37
8.61
9.83
9.48
9.06
10.25
14.01
20.1
27.49
35.08
42.35
49.28
55.89
61.8
66.2
68.6
69.65
71.32
76.25
86.37
101.56
119.3
135.53
146.15
148.49
142.05
128.22
109.54
88.74
68.24
49.86
34.76
23.36
15.41
10.0
5.9
1.85
-3.12
-9.52
-17.48
-26.79
-37.03
-47.73
-58.43
-68.84
-78.81
-88.2
-96.59
-103.27
-107.47
-108.84
-107.74
-105.26
-102.42
-99.39
-95.0
-87.21
-74.28
-56.13
-34.87
-14.2
2.27
12.61
17.3
18.52
18.7
19.17
19.85
20.04
19.63
19.6
21.65
26.96
35.24
44.67
52.93
58.52
61.5
63.3
65.55
69.06
73.32
76.98
78.81
78.39
76.38
73.98
72.26
71.58
71.52
71.15
69.5
65.93
60.24
52.66
43.64
33.73
23.41
13.09
3.2
-5.8
-13.43
-19.34
-23.41
-25.83
-27.09
-27.77
-28.48
-29.71
-31.75
-34.63
-38.02
-41.24
-43.38
-43.52
-41.08
-35.99
-28.83
-20.59
-12.44
-5.35
0.08
3.68
5.6
6.15
5.67
4.48
2.84
1.01
-0.81
-2.47
-3.92
-5.15
-6.25
-7.29
-8.35
-9.48
-10.7
-12.11
-13.78
-15.75
-17.92
-20.01
-21.56
-22.0
-20.88
-18.01
-13.58
-8.13
-2.42
2.79
6.88
9.55
10.76
10.7
9.72
8.21
6.58
5.17
4.17
3.62
3.38
3.25
2.99
2.45
1.59
0.47
-0.82
-2.2
-3.66
-5.22
-6.98
-9.07
-11.54
-14.31
-17.04
-19.15
-19.94
-18.86
-15.8
-11.18
-5.82
-0.67
3.52
6.4
7.99
8.53
8.29
7.45
6.17
4.67
3.23
2.15
1.57
1.43
1.49
1.41
0.99
0.2
-0.8
-1.83
-2.79
-3.69
-4.67
-5.88
-7.43
-9.37
-11.63
-13.97
-16.0
-17.16
-16.88
-14.81
-10.96
-5.78
-0.07
5.27
9.51
12.3
13.64
13.78
13.11
12.0
10.76
9.59
8.63
7.91
7.42
7.06
6.69
6.16
5.32
4.04
2.35
0.29
-1.98
-4.36
-6.84
-9.51
-12.48
-15.7
-18.83
-21.24
-22.16
-21.03
-17.74
-12.74
-6.91
-1.18
3.7
7.36
9.77
11.03
11.25
10.48
8.84
6.58
4.11
1.9
0.31
-0.52
-0.71
-0.58
-0.47
-0.67
-1.39
-2.72
-4.68
-7.25
-10.35
-13.82
-17.43
-20.73
-23.13
-24.03
-22.95
-19.87
-15.24
-9.9
-4.82
-0.76
1.98
3.55
4.34
4.74
4.91
4.78
4.22
3.15
1.71
0.15
-1.2
-2.14
-2.62
-2.8
-2.96
-3.38
-4.28
-5.79
-7.96
-10.72
-13.91
-17.15
-19.89
-21.45
-21.24
-18.98
-14.88
-9.61
-4.13
0.64
4.12
6.14
6.91
6.81
6.24
5.45
4.61
3.78
3.02
2.38
1.9
1.59
1.37
1.07
0.47
-0.69
-2.59
-5.33
-8.86
-12.93
-17.14
-20.93
-23.63
-24.65
-23.62
-20.48
-15.61
-9.72
-3.64
1.85
6.27
9.42
11.32
12.09
11.89
10.82
9.06
6.89
4.7
2.84
1.55
0.83
0.37
-0.26
-1.48
-3.54
-6.46
-10.06
-14.06
-18.09
-21.69
-24.28
-25.27
-24.23
-21.05
-16.12
-10.23
-4.26
1.02
5.21
8.22
10.14
11.05
10.99
10.04
8.46
6.67
5.16
4.28
4.07
4.26
4.43
4.21
3.4
1.97
-0.01
-2.47
-5.44
-8.86
-12.46
-15.65
-17.61
-17.59
-15.25
-10.82
-5.07
1.02
6.53
10.94
14.16
16.31
17.53
17.89
17.36
15.97
13.91
11.56
9.33
7.56
6.34
5.47
4.61
3.33
1.37
-1.36
-4.78
-8.74
-13.03
-17.38
-21.38
-24.46
-25.91
-25.15
-21.96
-16.66
-10.08
-3.28
2.75
7.41
10.49
12.15
12.69
12.35
11.36
9.87
8.08
6.22
4.55
3.24
2.34
1.69
1.04
0.06
-1.49
-3.73
-6.64
-10.17
-14.15
-18.34
-22.29
-25.33
-26.7
-25.8
-22.43
-16.96
-10.23
-3.25
3.07
8.13
11.69
13.77
14.55
14.28
13.25
11.77
10.12
8.54
7.15
5.98
4.99
4.08
3.13
1.96
0.35
-1.93
-5.05
-9.08
-13.88
-19.04
-23.86
-27.44
-28.88
-27.59
-23.49
-17.16
-9.59
-1.91
4.92
10.39
14.39
17.07
18.64
19.27
19.07
18.17
16.78
15.14
13.49
11.93
10.44
8.95
7.35
5.57
3.52
1.09
-1.93
-5.75
-10.4
-15.64
-20.81
-24.96
-27.08
-26.41
-22.74
-16.49
-8.65
-0.39
7.2
13.42
18.01
21.02
22.69
23.22
22.77
21.54
19.75
17.75
15.86
14.28
13.0
11.8
10.38
8.51
6.15
3.43
0.49
-2.65
-6.17
-10.35
-15.36
-21.0
-26.59
-31.12
-33.5
-32.98
-29.36
-23.07
-15.0
-6.27
2.06
9.15
14.47
17.83
19.33
19.35
18.47
17.3
16.35
15.91
15.98
16.37
16.72
16.67
15.99
14.56
12.45
9.85
6.99
4.03
1.02
-2.16
-5.75
-10.02
-15.06
-20.55
-25.72
-29.47
-30.71
-28.74
-23.56
-15.93
-7.02
1.87
9.74
15.99
20.37
22.9
23.72
23.15
21.7
20.02
18.77
18.36
18.77
19.55
20.03
19.6
18.01
15.41
12.29
9.22
6.59
4.49
2.64
0.58
-2.15
-5.85
-10.56
-15.93
-21.28
-25.66
-28.05
-27.68
-24.25
-18.05
-9.97
-1.18
7.17
14.23
19.54
23.05
24.94
25.46
24.91
23.7
22.24
20.96
20.12
19.71
19.4
18.7
17.25
15.01
12.33
9.86
8.15
7.49
7.79
8.63
9.42
9.56
8.53
6.0
1.93
-3.25
-8.66
-13.09
-15.38
-14.86
-11.53
-6.14
0.17
6.27
11.31
14.84
16.73
16.97
15.69
13.1
9.66
6.11
3.26
1.81
2.02
3.66
6.01
8.2
9.54
9.69
8.71
7.0
4.99
3.0
1.09
-0.92
-3.3
-6.4
-10.39
-15.23
-20.49
-25.42
-29.04
-30.42
-29.01
-24.81
-18.4
-10.79
-3.03
3.97
9.61
13.55
15.64
15.91
14.57
12.13
9.31
6.88
5.42
5.11
5.69
6.64
7.39
7.59
7.17
6.25
5.05
3.68
2.13
0.26
-2.16
-5.31
-9.29
-13.93
-18.75
-22.82
-25.01
-24.22
-19.83
-12.1
-2.12
8.42
17.75
24.54
28.24
29.03
27.6
24.82
21.44
17.95
14.62
11.53
8.69
6.07
3.61
1.3
-0.89
-3.04
-5.19
-7.39
-9.62
-11.89
-14.24
-16.82
-19.81
-23.22
-26.77
-29.76
-31.25
-30.37
-26.73
-20.63
-13.09
-5.47
1.03
5.64
8.29
9.37
9.44
8.98
8.23
7.26
6.03
4.56
2.96
1.35
-0.18
-1.62
-3.1
-4.79
-6.88
-9.57
-13.02
-17.3
-22.34
-27.73
-32.76
-36.48
-37.92
-36.5
-32.18
-25.64
-18.02
-10.6
-4.38
0.1
2.83
4.08
4.2
3.48
2.13
0.39
-1.45
-3.03
-4.07
-4.52
-4.55
-4.57
-5.04
-6.3
-8.53
-11.78
-15.95
-20.88
-26.21
-31.35
-35.45
-37.6
-37.17
-34.02
-28.59
-21.68
-14.14
-6.53
0.91
8.04
14.64
20.15
23.9
25.31
24.33
21.47
17.67
13.9
10.78
8.37
6.28
3.9
0.67
-3.68
-9.11
-15.32
-21.88
-28.2
-33.6
-37.29
-38.56
-36.94
-32.42
-25.59
-17.43
-9.1
-1.59
4.47
8.86
11.64
12.98
13.08
12.13
10.44
8.45
6.62
5.28
4.49
3.96
3.2
1.72
-0.76
-4.27
-8.61
-13.37
-17.95
-21.6
-23.49
-22.88
-19.41
-13.32
-5.47
2.97
10.84
17.39
22.3
25.56
27.25
27.41
26.05
23.38
19.85
16.21
13.22
11.55
11.43
12.71
14.84
17.08
18.64
18.91
17.51
14.46
10.26
5.77
2.07
0.14
0.52
3.16
7.44
12.36
16.91
20.29
22.06
22.14
20.66
17.86
14.09
9.78
5.4
1.39
-1.9
-4.33
-5.91
-6.77
-7.12
-7.27
-7.57
-8.43
-10.27
-13.37
-17.73
-22.92
-28.12
-32.17
-33.94
-32.7
-28.37
-21.66
-13.85
-6.37
-0.38
3.54
5.41
5.67
4.87
3.47
1.71
-0.36
-2.78
-5.55
-8.46
-11.1
-12.95
-13.57
-12.95
-11.55
-10.22
-9.81
-10.8
-13.03
-15.72
-17.69
-17.63
-14.34
-6.92
5.0
20.93
39.28
57.41
72.17
80.9
82.39
77.29
67.81
56.78
46.61
38.66
33.18
29.78
27.94
27.34
27.81
29.12
30.74
31.85
31.46
28.65
22.81
13.8
2.06
-11.34
-24.83
-36.58
-45.0
-49.11
-48.77
-44.72
-38.26
-30.86
-23.78
-17.79
-13.21
-9.95
-7.7
-6.17
-5.13
-4.4
-3.59
-2.04
1.11
6.53
14.23
23.33
32.32
39.73
44.73
47.42
48.44
48.32
47.01
44.08
39.35
33.52
28.36
26.01
27.91
33.9
42.14
49.77
54.08
53.47
47.88
38.59
27.46
16.31
6.41
-1.63
-7.7
-11.88
-14.28
-14.97
-14.12
-12.18
-9.91
-8.27
-8.11
-9.86
-13.44
-18.37
-23.99
-29.77
-35.37
-40.51
-44.75
-47.42
-47.71
-45.03
-39.36
-31.34
-22.16
-13.21
-5.57
0.16
3.85
5.71
6.09
5.34
3.86
2.07
0.44
-0.65
-0.96
-0.54
0.34
1.26
1.81
1.71
0.8
-0.92
-3.42
-6.66
-10.58
-14.98
-19.37
-22.92
-24.6
-23.57
-19.52
-12.89
-4.81
3.3
10.23
15.31
18.45
19.96
20.21
19.47
17.86
15.52
12.75
9.93
7.45
5.53
4.15
3.02
1.78
0.06
-2.42
-5.82
-10.22
-15.53
-21.46
-27.35
-32.28
-35.19
-35.28
-32.29
-26.62
-19.28
-11.5
-4.34
1.61
6.22
9.64
12.02
13.36
13.57
12.61
10.71
8.32
6.03
4.3
3.33
2.96
2.8
2.4
1.35
-0.56
-3.4
-7.08
-11.41
-15.98
-20.19
-23.24
-24.31
-22.81
-18.63
-12.26
-4.71
2.86
9.44
14.46
17.82
19.73
20.47
20.3
19.38
17.92
16.14
14.34
12.71
11.35
10.14
8.9
7.42
5.62
3.51
1.14
-1.5
-4.53
-8.1
-12.22
-16.6
-20.55
-23.16
-23.55
-21.23
-16.37
-9.73
-2.46
4.23
9.42
12.64
13.82
13.26
11.42
8.87
6.2
3.84
2.01
0.63
-0.56
-1.91
-3.55
-5.38
-7.05
-8.2
-8.67
-8.76
-9.2
-10.83
-14.12
-18.62
-22.69
-23.86
-19.63
-8.6
8.91
30.89
54.67
78.1
100.35
121.81
143.04
163.48
180.89
191.9
193.4
184.06
164.97
139.09
109.86
80.33
52.96
30.18
14.71
8.81
13.03
25.26
41.04
55.55
66.08
73.37
80.89
92.08
107.55
123.71
134.08
132.4
115.7
85.81
48.28
9.86
-24.2
-51.58
-72.63
-89.06
-102.24
-112.01
-116.74
-114.55
-104.98
-90.49
-76.57
-70.26
-77.33
-99.48
-132.88
-169.2
-198.52
-212.99
-209.51
-190.44
-162.06
-131.86
-105.9
-87.15
-75.36
-67.88
-61.12
-51.88
-38.41
-20.59
0.29
22.23
43.12
61.16
74.8
82.64
83.49
76.71
62.84
43.92
23.14
3.99
-11.19
-22.09
-30.47
-39.17
-50.49
-64.87
-80.57
-94.52
-103.71
-106.45
-102.63
-93.34
-80.18
-64.86
-49.33
-35.91
-27.05
-24.52
-28.52
-37.27
-47.58
-55.99
-60.16
-59.56
-55.4
-49.93
-45.5
-43.81
-45.38
-49.52
-54.68
-59.13
-61.66
-61.94
-60.27
-57.14
-52.81
-47.5
-41.74
-36.53
-32.6
-29.12
-22.73
-8.28
18.49
57.69
103.75
147.0
178.15
193.09
195.31
193.81
197.96
212.25
233.94
254.98
266.44
262.82
243.54
211.28
169.14
118.67
60.67
-2.76
-66.45
-122.69
-164.16
-187.52
-195.37
-195.37
-196.44
-204.28
-218.52
-233.08
-239.4
-230.77
-205.5
-167.35
-123.37
-80.66
-43.98
-15.19
6.0
20.89
31.18
39.34
48.79
63.36
85.8
116.12
150.81
183.85
208.84
221.12
219.15
204.35
180.15
150.97
121.36
95.34
75.62
62.9
55.57
50.32
43.57
32.96
18.34
1.6
-14.28
-26.54
-33.48
-34.75
-31.36
-25.35
-19.42
-16.37
-18.22
-25.29
-35.69
-45.79
-51.72
-51.15
-44.45
-34.53
-25.41
-20.45
-21.15
-27.26
-37.88
-52.46
-70.99
-93.13
-116.95
-138.62
-153.24
-156.86
-148.36
-130.22
-107.66
-86.71
-72.16
-66.09
-67.73
-74.15
-81.59
-86.83
-88.24
-86.03
-81.71
-77.0
-72.66
-67.95
-61.0
-49.96
-34.2
-14.99
4.8
21.8
33.31
38.09
36.38
29.43
18.99
6.98
-4.63
-13.94
-19.43
-20.36
-16.93
-10.29
-1.93
6.76
14.81
21.6
26.47
28.67
27.54
23.06
16.12
8.4
1.76
-2.49
-4.03
-3.36
-1.34
1.26
3.92
6.22
7.63
7.56
5.59
1.79
-3.19
-8.29
-12.42
-14.65
-14.13
-10.1
-1.95
10.31
25.57
41.41
54.7
62.71
64.39
60.89
55.06
50.07
47.86
48.23
48.94
46.85
39.44
26.05
8.34
-10.34
-26.14
-36.41
-40.83
-41.52
-42.03
-45.47
-52.85
-62.74
-72.14
-78.4
-80.43
-78.85
-74.86
-68.98
-60.69
-49.25
-35.14
-20.9
-10.45
-7.28
-12.56
-24.28
-38.28
-50.34
-58.24
-62.7
-66.75
-73.97
-86.59
-104.25
-123.81
-140.4
-148.95
-146.0
-130.78
-105.24
-73.2
-38.94
-5.89
24.04
50.36
73.37
93.52
111.11
126.26
139.07
149.62
157.99
164.11
167.91
169.38
168.7
166.13
161.8
155.61
147.32
137.08
125.71
114.66
105.35
98.34
92.81
86.83
78.39
66.62
52.33
37.69
25.21
16.5
11.79
10.13
10.22
11.19
12.81
15.09
17.83
20.21
20.94
18.83
13.33
4.82
-5.5
-16.1
-25.6
-33.12
-38.51
-42.13
-44.79
-47.4
-50.77
-55.4
-61.32
-68.03
-74.52
-79.47
-81.49
-79.34
-72.36
-60.55
-44.59
-25.73
-5.44
14.87
34.1
51.49
66.6
79.12
88.79
95.34
98.63
98.71
95.97
91.1
84.94
78.25
71.47
64.64
57.45
49.43
40.25
29.82
18.43
6.7
-4.57
-14.49
-22.25
-27.31
-29.55
-29.34
-27.55
-25.3
-23.67
-23.33
-24.39
-26.37
-28.5
-30.0
-30.34
-29.28
-26.86
-23.21
-18.47
-12.85
-6.69
-0.54
4.88
8.78
10.53
9.75
6.43
0.89
-6.17
-13.7
-20.36
-24.8
-25.97
-23.48
-17.79
-10.04
-1.7
5.88
11.83
15.82
17.99
18.71
18.44
17.6
16.49
15.36
14.35
13.47
12.66
11.77
10.64
9.08
6.95
4.15
0.64
-3.55
-8.42
-13.86
-19.67
-25.4
-30.33
-33.6
-34.47
-32.63
-28.37
-22.5
-16.17
-10.47
-6.15
-3.62
-2.86
-3.63
-5.48
-7.9
-10.33
-12.27
-13.43
-13.68
-13.05
-11.7
-9.84
-7.7
-5.67
-4.25
-3.99
-5.28
-8.08
-11.78
-15.21
-17.02
-15.95
-11.21
-2.54
9.81
25.19
42.55
60.48
77.25
91.13
100.79
105.66
106.15
103.4
98.83
93.59
88.24
82.75
76.73
69.68
61.25
51.2
39.38
25.66
10.02
-7.28
-25.46
-43.12
-58.4
-69.42
-74.91
-74.7
-69.81
-62.12
-53.63
-45.83
-39.38
-34.2
-29.98
-26.57
-24.11
-22.89
-23.05
-24.36
-26.33
-28.39
-30.19
-31.74
-33.33
-35.37
-38.3
-42.41
-47.89
-54.72
-62.58
-70.71
-77.91
-82.72
-83.9
-80.91
-74.17
-64.91
-54.61
-44.29
-34.1
-23.44
-11.49
2.13
17.1
32.49
47.2
60.36
71.49
80.55
87.69
93.25
97.56
100.83
102.96
103.48
101.71
97.09
89.59
79.82
68.87
57.88
47.7
38.78
31.31
25.45
21.28
18.8
17.65
17.22
16.82
15.98
14.62
12.85
10.72
8.0
4.34
-0.49
-6.22
-11.99
-16.71
-19.53
-20.34
-19.81
-19.14
-19.47
-21.32
-24.46
-27.99
-30.81
-32.07
-31.33
-28.62
-24.31
-18.91
-12.96
-7.03
-1.66
2.58
5.16
5.66
3.88
-0.08
-5.79
-12.51
-19.37
-25.53
-30.38
-33.71
-35.6
-36.43
-36.64
-36.59
-36.52
-36.63
-37.07
-38.06
-39.8
-42.31
-45.31
-48.09
-49.61
-48.84
-45.09
-38.35
-29.33
-19.27
-9.44
-0.87
5.91
10.82
14.0
15.64
15.87
14.89
12.95
10.42
7.71
5.15
2.93
1.08
-0.46
-1.81
-3.09
-4.42
-5.86
-7.52
-9.5
-11.96
-15.04
-18.67
-22.45
-25.58
-27.07
-26.08
-22.23
-15.84
-7.79
0.79
8.95
16.28
23.03
29.94
37.79
46.94
57.02
67.0
75.61
81.88
85.51
86.94
86.93
86.08
84.45
81.56
76.77
69.64
60.21
48.81
35.92
21.89
7.12
-7.78
-21.81
-33.6
-41.82
-45.6
-44.93
-40.72
-34.51
-28.01
-22.61
-19.01
-17.26
-16.96
-17.5
-18.37
-19.25
-19.99
-20.53
-20.87
-20.99
-20.89
-20.63
-20.36
-20.27
-20.6
-21.47
-22.91
-24.84
-27.14
-29.79
-32.81
-36.15
-39.57
-42.44
-43.86
-43.01
-39.4
-33.24
-25.33
-16.84
-8.83
-1.99
3.46
7.59
10.55
12.46
13.42
13.68
13.7
14.07
15.35
17.71
20.9
24.19
26.71
27.71
26.81
24.08
19.91
14.85
9.35
3.64
-2.23
-8.24
-14.19
-19.57
-23.61
-25.48
-24.68
-21.22
-15.69
-9.05
-2.32
3.77
8.85
12.83
15.75
17.55
18.16
17.59
16.11
14.24
12.61
11.76
11.88
12.81
14.15
15.43
16.36
16.86
16.97
16.72
16.04
14.72
12.55
9.4
5.31
0.6
-4.1
-7.83
-9.31
-7.23
-0.7
10.24
24.37
39.55
53.4
64.03
70.63
73.37
72.92
69.9
64.58
57.01
47.45
36.64
25.73
15.81
7.49
0.67
-5.22
-10.77
-16.21
-21.33
-25.66
-28.83
-30.8
-31.95
-32.88
-34.16
-36.21
-39.14
-42.8
-46.81
-50.56
-53.26
-54.09
-52.42
-48.01
-41.23
-32.94
-24.26
-16.16
-9.25
-3.68
0.69
4.03
6.42
7.87
8.47
8.5
8.4
8.62
9.36
10.48
11.56
12.13
11.94
11.03
9.71
8.36
7.22
6.32
5.47
4.33
2.55
-0.1
-3.66
-7.82
-11.94
-15.08
-16.23
-14.74
-10.48
-4.1
3.24
10.27
15.99
19.97
22.3
23.38
23.65
23.42
22.86
22.09
21.22
20.38
19.63
18.88
17.94
16.59
14.67
12.19
9.32
6.27
3.26
0.35
-2.59
-5.76
-9.37
-13.31
-17.12
-20.01
-21.11
-19.84
-16.22
-10.93
-5.06
0.24
4.16
6.42
7.11
6.55
5.04
2.82
0.09
-2.9
-5.82
-8.34
-10.22
-11.43
-12.1
-12.49
-12.9
-13.58
-14.7
-16.37
-18.65
-21.55
-25.03
-28.94
-32.95
-36.45
-38.68
-38.93
-36.78
-32.39
-26.46
-20.03
-14.15
-9.48
-6.2
-4.13
-2.98
-2.53
-2.75
-3.58
-4.86
-6.23
-7.24
-7.55
-7.07
-6.04
-4.86
-4.01
-3.8
-4.39
-5.75
-7.83
-10.58
-13.9
-17.58
-21.19
-24.07
-25.47
-24.84
-22.05
-17.5
-12.0
-6.42
-1.46
2.61
5.82
8.3
10.11
11.2
11.43
10.82
9.63
8.28
7.18
6.61
6.52
6.65
6.58
5.96
4.62
2.57
-0.05
-3.11
-6.53
-10.21
-13.91
-17.12
-19.06
-18.96
-16.42
-11.59
-5.26
1.42
7.38
11.96
15.01
16.79
17.72
18.12
18.2
18.1
17.88
17.64
17.44
17.29
17.15
16.97
16.67
16.19
15.47
14.46
13.11
11.34
9.12
6.51
3.69
1.01
-0.98
-1.68
-0.67
2.18
6.52
11.65
16.68
20.86
23.71
25.15
25.4
24.77
23.57
22.0
20.19
18.26
16.34
14.56
13.0
11.69
10.56
9.46
8.22
6.7
4.77
2.39
-0.51
-3.92
-7.72
-11.62
-15.08
-17.44
-18.05
-16.59
-13.25
-8.66
-3.8
0.43
3.42
4.99
5.34
4.8
3.71
2.26
0.63
-1.03
-2.57
-3.82
-4.7
-5.25
-5.68
-6.31
-7.43
-9.29
-11.93
-15.29
-19.18
-23.38
-27.64
-31.63
-34.85
-36.7
-36.56
-34.15
-29.63
-23.74
-17.48
-11.84
-7.4
-4.24
-2.09
-0.58
0.45
0.99
0.9
0.13
-1.15
-2.6
-3.81
-4.57
-4.85
-4.9
-5.07
-5.66
-6.82
-8.58
-10.85
-13.57
-16.68
-19.97
-22.99
-25.04
-25.32
-23.25
-18.81
-12.59
-5.69
0.73
5.83
9.3
11.34
12.37
12.76
12.71
12.29
11.55
10.61
9.68
8.95
8.48
8.19
7.85
7.26
6.27
4.84
3.0
0.77
-1.93
-5.18
-8.97
-13.0
-16.62
-18.88
-18.87
-16.05
-10.56
-3.25
4.61
11.72
17.19
20.7
22.52
23.15
23.15
22.86
22.47
22.05
21.66
21.34
21.11
20.94
20.74
20.37
19.76
18.94
17.94
16.76
15.23
13.09
10.03
5.99
1.31
-3.21
-6.5
-7.55
-5.87
-1.7
4.01
9.93
14.77
17.73
18.61
17.71
15.56
12.58
9.01
4.97
0.58
-3.85
-7.84
-10.88
-12.65
-13.22
-12.99
-12.62
-12.72
-13.64
-15.47
-18.04
-21.17
-24.73
-28.57
-32.37
-35.5
-37.1
-36.37
-32.9
-26.95
-19.44
-11.61
-4.6
0.9
4.72
7.12
8.45
9.02
8.99
8.45
7.52
6.42
5.39
4.64
4.19
3.9
3.47
2.65
1.31
-0.52
-2.69
-5.11
-7.8
-10.88
-14.32
-17.78
-20.54
-21.68
-20.45
-16.66
-10.83
-4.03
2.55
8.03
12.04
14.69
16.34
17.32
17.81
17.89
17.6
17.09
16.49
15.91
15.35
14.69
13.77
12.47
10.78
8.72
6.35
3.63
0.46
-3.22
-7.29
-11.29
-14.47
-15.96
-15.04
-11.51
-5.77
1.24
8.33
14.48
19.04
21.83
22.99
22.83
21.64
19.68
17.22
14.57
12.07
10.06
8.73
8.1
7.96
7.94
7.66
6.83
5.32
3.14
0.37
-2.9
-6.49
-10.08
-13.06
-14.66
-14.11
-11.03
-5.6
1.4
8.79
15.37
20.31
23.24
24.33
24.02
22.83
21.26
19.67
18.3
17.33
16.89
16.95
17.41
18.01
18.38
18.21
17.33
15.7
13.36
10.43
6.96
3.08
-0.87
-4.26
-6.3
-6.33
-4.07
0.14
5.44
10.76
15.14
18.04
19.32
19.14
17.75
15.41
12.31
8.76
5.11
1.8
-0.79
-2.48
-3.38
-3.83
-4.28
-5.18
-6.84
-9.44
-13.03
-17.49
-22.45
-27.25
-31.02
-32.87
-32.23
-29.08
-24.01
-18.01
-12.19
-7.36
-3.96
-2.09
-1.63
-2.4
-4.23
-6.88
-9.98
-13.05
-15.62
-17.34
-18.13
-18.21
-17.99
-17.98
-18.59
-20.07
-22.49
-25.76
-29.62
-33.65
-37.19
-39.45
-39.7
-37.5
-32.96
-26.72
-19.77
-13.1
-7.38
-2.87
0.49
2.87
4.37
5.03
4.9
4.17
3.16
2.26
1.74
1.64
1.8
1.88
1.5
0.37
-1.75
-4.92
-9.04
-13.72
-18.28
-21.82
-23.46
-22.61
-19.21
-13.83
-7.45
-1.09
4.46
8.84
12.08
14.36
15.77
16.33
15.95
14.7
12.88
10.95
9.41
8.55
8.37
8.53
8.61
8.22
7.1
5.16
2.42
-1.0
-4.78
-8.32
-10.79
-11.29
-9.21
-4.51
2.21
9.9
17.42
23.88
28.88
32.39
34.62
35.75
35.94
35.28
33.97
32.33
30.72
29.4
28.45
27.68
26.79
25.44
23.41
20.61
17.01
12.65
7.57
2.0
-3.55
-8.24
-11.13
-11.51
-9.24
-4.85
0.61
5.98
10.36
13.34
14.93
15.34
14.82
13.46
11.35
8.69
5.81
3.14
1.01
-0.45
-1.38
-2.12
-3.05
-4.51
-6.76
-9.96
-14.23
-19.54
-25.63
-31.84
-37.17
-40.47
-40.8
-37.86
-32.09
-24.63
-16.91
-10.18
-5.23
-2.22
-0.93
-0.95
-1.89
-3.57
-5.84
-8.59
-11.6
-14.6
-17.27
-19.43
-21.1
-22.53
-24.17
-26.61
-30.33
-35.68
-42.62
-50.64
-58.72
-65.47
-69.46
-69.71
-66.12
-59.61
-51.76
-44.31
-38.41
-34.29
-31.43
-29.02
-26.5
-23.76
-21.02
-18.43
-15.75
-12.37
-7.4
-0.0
10.47
24.34
41.43
60.94
81.19
99.58
112.89
118.26
114.08
100.86
81.28
59.37
39.09
23.02
11.65
3.73
-2.55
-8.17
-12.27
-12.23
-4.92
11.45
36.05
65.23
93.93
118.06
136.39
150.72
164.5
180.31
197.96
214.31
224.87
226.11
217.33
200.7
179.74
157.49
135.36
113.35
91.09
68.56
45.71
21.66
-5.76
-39.28
-80.23
-126.87
-173.96
-214.42
-242.08
-253.89
-250.79
-236.72
-216.57
-194.58
-173.75
-156.14
-143.31
-136.31
-134.9
-136.89
-138.26
-134.43
-122.0
-100.39
-72.17
-42.05
-15.24
4.48
15.85
19.93
19.3
16.7
14.02
11.91
10.08
7.69
3.93
-1.74
-9.31
-18.08
-26.7
-33.44
-36.76
-35.96
-31.6
-25.26
-18.93
-14.14
-11.26
-9.49
-7.36
-3.72
1.64
7.83
13.27
16.35
15.94
11.51
3.23
-7.78
-19.06
-26.9
-27.58
-19.06
-2.7
16.7
32.83
40.98
40.56
35.3
31.1
32.64
40.86
52.84
63.73
69.55
68.85
62.88
54.19
45.14
36.93
29.88
24.0
19.53
17.03
17.14
19.99
25.0
30.84
35.83
38.46
37.94
34.52
29.52
24.83
22.29
23.13
27.68
35.27
44.48
53.52
60.73
65.07
66.54
66.15
65.49
66.0
68.35
72.04
75.68
77.62
76.6
72.19
64.83
55.4
44.85
33.92
23.18
13.35
5.4
0.43
-0.8
1.7
6.92
13.14
18.55
21.9
22.81
21.56
18.7
14.53
9.02
2.14
-5.81
-13.92
-20.97
-25.87
-28.2
-28.33
-27.19
-25.73
-24.57
-23.84
-23.33
-22.86
-22.49
-22.51
-23.26
-24.86
-27.11
-29.65
-32.14
-34.53
-37.1
-40.22
-43.97
-47.97
-51.3
-52.85
-51.75
-47.8
-41.56
-34.15
-26.84
-20.61
-15.96
-12.95
-11.46
-11.32
-12.49
-14.88
-18.19
-21.85
-25.1
-27.26
-28.12
-27.97
-27.62
-27.93
-29.41
-32.02
-35.19
-38.21
-40.72
-42.93
-45.48
-49.18
-54.45
-61.09
-68.32
-75.01
-80.09
-82.82
-82.92
-80.59
-76.35
-70.89
-64.92
-59.11
-53.89
-49.11
-43.87
-36.51
-25.18
-8.75
12.34
35.71
57.68
74.61
84.3
86.83
84.13
78.72
72.32
65.21
56.6
45.83
33.18
19.94
7.55
-3.46
-13.92
-25.46
-39.34
-55.47
-72.06
-86.19
-94.78
-95.55
-87.62
-71.64
-49.65
-24.69
-0.22
20.6
35.63
44.14
46.84
45.26
41.14
35.79
29.94
23.87
17.77
11.93
6.79
2.82
0.36
-0.5
0.05
1.57
3.53
5.45
7.0
7.83
7.67
6.18
3.17
-1.22
-6.34
-10.96
-13.49
-12.27
-6.06
5.59
22.0
41.39
61.21
78.71
91.64
98.77
100.07
96.45
89.29
79.94
69.39
58.36
47.36
36.93
27.6
19.76
13.56
8.83
5.18
2.16
-0.53
-3.0
-5.21
-7.13
-8.9
-10.9
-13.63
-17.39
-22.07
-27.0
-31.09
-33.21
-32.58
-29.09
-23.3
-16.22
-8.92
-2.29
3.16
7.18
9.72
10.82
10.73
9.87
8.88
8.37
8.76
9.99
11.51
12.52
12.27
10.45
7.33
3.59
0.0
-2.94
-5.23
-7.19
-9.25
-11.61
-14.04
-15.99
-16.78
-15.96
-13.5
-9.77
-5.45
-1.3
2.11
4.42
5.54
5.53
4.58
2.9
0.76
-1.6
-4.0
-6.38
-8.75
-11.25
-13.93
-16.75
-19.54
-22.09
-24.32
-26.34
-28.52
-31.34
-35.19
-40.2
-46.01
-51.84
-56.64
-59.43
-59.57
-56.98
-52.21
-46.24
-40.3
-35.53
-32.64
-31.57
-31.3
-29.99
-25.67
-17.01
-4.07
11.53
27.16
40.17
48.98
53.51
54.95
54.84
54.11
52.58
49.14
42.46
31.77
17.42
0.81
-16.05
-31.12
-42.84
-50.39
-53.63
-52.99
-49.38
-44.1
-38.62
-33.89
-29.55
-23.45
-12.19
7.51
36.76
73.16
110.8
142.21
161.17
164.81
153.95
131.99
103.11
71.27
40.22
13.79
-4.51
-12.82
-12.39
-7.58
-4.11
-6.03
-13.51
-22.99
-29.74
-31.3
-29.18
-27.9
-31.79
-41.92
-55.38
-67.11
-73.14
-72.99
-69.69
-67.69
-70.0
-76.48
-84.28
-89.81
-91.0
-88.34
-84.39
-82.26
-83.77
-88.33
-92.96
-93.52
-86.36
-69.71
-43.73
-9.66
31.39
78.75
131.41
186.51
238.42
279.49
302.85
305.48
289.82
262.72
232.16
203.64
178.49
154.7
129.51
101.77
72.7
44.78
19.98
-1.33
-20.35
-38.81
-57.9
-77.72
-97.46
-116.04
-132.43
-145.97
-156.39
-164.09
-170.1
-176.04
-183.56
-193.56
-205.66
-218.17
-228.76
-235.4
-236.83
-232.51
-222.13
-205.31
-181.85
-152.07
-117.03
-78.17
-36.91
5.18
45.64
80.43
104.42
113.25
105.76
85.44
59.58
36.42
21.82
17.45
21.34
29.87
39.9
49.47
57.28
61.87
61.61
55.66
45.05
32.81
22.89
18.37
20.17
26.95
36.12
45.07
52.17
56.97
59.85
61.55
62.87
64.49
66.89
70.23
74.28
78.4
81.78
83.85
84.51
84.17
83.4
82.6
81.84
80.95
79.85
78.63
77.36
75.79
73.11
68.18
60.16
49.23
36.79
24.94
15.49
8.97
4.35
-0.48
-7.53
-17.63
-30.01
-42.84
-54.26
-63.41
-70.74
-77.47
-84.72
-92.66
-100.39
-106.42
-109.48
-109.17
-106.19
-101.96
-98.12
-95.99
-96.22
-98.85
-103.43
-109.32
-115.68
-121.32
-124.65
-124.0
-118.27
-107.65
-93.89
-79.7
-67.55
-58.54
-51.96
-45.9
-38.4
-28.51
-16.56
-3.62
9.25
21.5
32.92
43.19
51.63
57.37
59.84
59.04
55.24
48.5
38.32
23.95
5.32
-16.04
-36.74
-52.55
-60.18
-58.97
-51.54
-42.78
-37.62
-38.57
-44.42
-50.56
-51.07
-41.33
-19.84
11.4
48.03
85.04
118.08
143.86
159.88
164.32
156.64
138.51
114.23
89.94
71.44
61.89
60.73
64.6
70.12
76.44
86.11
103.38
130.95
166.85
203.85
231.74
241.49
229.26
198.04
156.32
114.5
80.87
59.1
47.92
43.02
39.66
34.75
27.49
18.71
9.58
0.57
-8.78
-19.19
-30.8
-42.64
-52.81
-59.41
-61.54
-60.01
-57.26
-56.48
-60.19
-69.18
-82.0
-95.52
-106.11
-111.07
-109.5
-102.41
-92.09
-81.08
-71.24
-63.32
-57.02
-51.48
-45.89
-39.93
-33.86
-28.4
-24.32
-22.14
-21.87
-23.06
-24.94
-26.79
-28.21
-29.24
-30.28
-31.78
-33.89
-36.26
-38.01
-38.06
-35.62
-30.58
-23.67
-16.14
-9.29
-3.9
-0.1
2.44
4.11
5.0
4.88
3.48
0.9
-2.27
-5.11
-6.75
-6.92
-6.02
-5.05
-5.2
-7.37
-11.89
-18.46
-26.2
-33.92
-40.41
-44.71
-46.36
-45.4
-42.33
-37.81
-32.55
-27.1
-21.97
-17.74
-15.05
-14.45
-16.09
-19.5
-23.65
-27.27
-29.26
-28.95
-26.11
-20.77
-13.15
-3.74
6.47
15.93
22.89
26.12
25.75
23.56
22.51
25.68
34.96
50.41
70.35
92.32
114.14
134.24
151.37
163.91
169.62
166.35
153.48
133.06
109.71
89.07
75.48
70.1
70.57
72.46
71.52
65.55
54.97
42.08
29.44
18.71
10.16
3.11
-3.27
-9.37
-14.97
-19.66
-23.53
-27.31
-32.09
-38.32
-45.01
-49.78
-49.91
-43.88
-32.48
-18.65
-6.02
2.76
7.09
8.11
7.38
5.74
3.04
-1.19
-6.83
-12.82
-17.64
-20.11
-19.93
-17.33
-12.46
-4.98
5.72
19.66
35.44
50.17
60.25
62.68
56.31
42.31
23.69
4.15
-13.18
-26.53
-35.6
-41.1
-43.96
-44.76
-43.63
-40.54
-35.74
-30.0
-24.63
-21.15
-20.84
-24.26
-30.97
-39.45
-47.42
-52.58
-53.49
-50.13
-43.89
-36.81
-30.54
-25.51
-20.98
-15.82
-9.6
-3.24
1.28
1.85
-2.52
-11.21
-22.15
-32.67
-40.42
-44.07
-43.51
-39.66
-34.1
-28.57
-24.59
-23.07
-24.02
-26.59
-29.36
-30.78
-29.81
-26.07
-19.89
-12.01
-3.24
5.73
14.24
21.53
26.65
28.57
26.4
19.72
8.7
-5.96
-23.17
-41.38
-58.67
-72.72
-81.2
-82.41
-76.0
-63.34
-47.23
-30.99
-17.23
-6.97
0.6
7.59
16.38
28.75
45.26
65.3
87.49
110.09
131.46
150.23
165.24
175.34
179.34
175.98
164.33
144.3
117.09
85.33
52.59
22.53
-2.25
-20.85
-34.1
-43.83
-51.99
-59.83
-67.76
-75.69
-83.51
-91.24
-98.83
-105.74
-110.86
-112.79
-110.37
-102.96
-90.5
-73.27
-51.79
-27.14
-1.3
22.68
41.32
51.88
53.54
47.9
38.3
28.4
20.74
16.05
13.51
11.68
9.39
6.09
1.69
-3.86
-10.88
-19.83
-30.81
-43.1
-55.03
-64.37
-69.25
-69.13
-65.19
-59.75
-55.17
-52.71
-52.1
-52.0
-51.06
-48.8
-45.87
-43.51
-42.66
-43.24
-44.19
-44.05
-41.66
-36.55
-28.78
-18.55
-5.95
8.86
25.05
40.72
52.98
58.85
56.39
45.84
29.82
12.55
-1.77
-10.38
-12.62
-9.61
-3.29
4.51
12.33
19.03
23.36
24.0
20.07
11.76
0.63
-10.6
-19.05
-22.69
-21.12
-15.73
-9.09
-3.88
-1.89
-3.33
-6.92
-10.51
-12.17
-11.03
-7.55
-3.03
1.24
4.7
7.58
10.34
12.95
14.69
14.72
12.81
9.91
7.8
8.3
12.38
19.84
29.75
41.07
52.95
64.48
74.23
80.22
80.6
74.78
64.28
52.41
43.08
38.98
40.5
45.69
51.27
54.11
52.38
46.04
36.63
26.54
18.09
12.83
11.13
12.23
14.69
17.11
18.73
19.75
21.06
23.67
28.09
33.99
40.27
45.49
48.24
47.45
42.46
33.12
19.9
4.02
-12.59
-27.55
-38.63
-44.39
-44.54
-39.99
-32.58
-24.51
-18.1
-15.35
-17.68
-25.48
-37.71
-51.77
-63.95
-70.49
-68.77
-58.26
-40.72
-19.56
1.31
18.64
30.61
37.02
38.96
38.3
37.01
36.6
37.84
40.59
43.87
46.13
45.74
41.5
33.17
21.72
9.18
-1.98
-9.84
-13.83
-14.97
-15.16
-15.84
-16.65
-14.97
-6.74
11.77
42.05
82.34
127.83
172.15
209.31
235.32
248.94
251.32
245.03
232.75
216.49
197.22
175.13
150.15
122.23
91.26
56.76
18.0
-25.32
-72.01
-118.88
-161.16
-194.16
-215.11
-224.15
-223.86
-217.74
-208.51
-197.47
-185.12
-172.47
-161.83
-156.33
-158.28
-167.54
-180.85
-192.9
-198.6
-195.35
-183.97
-167.89
-150.97
-135.22
-119.89
-102.32
-80.06
-52.7
-22.63
6.09
29.55
45.61
54.22
56.81
55.52
52.63
50.54
51.39
56.36
64.68
73.37
78.21
75.63
64.48
46.44
25.05
3.91
-14.6
-29.38
-39.73
-44.58
-42.59
-33.35
-18.48
-1.82
11.96
19.49
20.29
17.01
13.94
14.94
21.72
33.41
47.4
60.78
71.5
78.88
83.37
85.96
87.57
88.83
89.86
90.34
89.41
85.8
78.09
65.17
46.88
24.31
-0.01
-22.62
-39.85
-48.97
-49.18
-42.03
-31.03
-20.29
-12.94
-9.81
-9.24
-8.03
-3.11
6.99
21.64
38.45
54.31
66.45
72.94
72.83
65.98
52.97
35.07
14.07
-7.9
-28.95
-47.76
-63.81
-77.28
-88.72
-98.79
-107.86
-115.89
-122.31
-126.04
-125.75
-120.34
-109.54
-94.19
-76.1
-57.54
-40.49
-26.03
-14.12
-3.85
6.05
16.7
28.67
41.76
55.09
67.16
76.19
80.62
79.75
74.15
65.63
56.58
48.95
43.39
39.16
34.72
28.8
21.16
12.66
4.8
-1.24
-5.09
-7.3
-8.78
-10.21
-11.62
-12.54
-12.41
-11.12
-9.22
-7.7
-7.48
-8.94
-11.68
-14.79
-17.42
-19.26
-20.76
-22.77
-26.07
-30.8
-36.41
-42.01
-46.77
-50.36
-52.93
-54.99
-57.01
-59.29
-61.72
-63.78
-64.66
-63.42
-59.36
-52.31
-42.7
-31.4
-19.44
-7.72
3.03
12.22
19.23
23.49
24.65
22.9
19.06
14.49
10.67
8.76
9.32
12.18
16.59
21.46
25.5
27.54
26.53
21.81
13.25
1.47
-12.05
-25.09
-35.07
-39.63
-37.37
-28.17
-13.23
5.27
24.85
43.25
58.85
70.83
79.09
84.19
87.09
88.94
90.93
94.11
99.15
106.18
114.69
123.55
131.35
136.76
139.03
138.07
134.38
128.64
121.47
113.31
104.68
96.31
89.18
84.08
80.98
78.73
75.23
68.26
56.55
40.54
22.38
5.1
-8.89
-18.99
-26.85
-35.5
-47.81
-64.85
-85.16
-105.13
-120.34
-127.12
-123.75
-110.92
-91.59
-70.18
-51.57
-39.67
-36.28
-40.34
-48.29
-55.29
-57.12
-51.75
-39.85
-23.84
-6.37
11.02
28.24
45.77
63.35
79.0
89.05
89.58
78.39
56.52
28.19
-0.72
-25.23
-43.18
-55.71
-65.95
-76.81
-89.29
-102.27
-113.68
-122.31
-128.82
-135.41
-144.32
-156.12
-169.05
-179.61
-184.28
-181.14
-170.75
-155.74
-139.49
-124.73
-112.52
-102.31
-92.7
-82.54
-71.58
-60.65
-51.06
-43.95
-39.56
-37.17
-35.37
-32.78
-28.66
-23.31
-17.81
-13.52
-11.32
-11.26
-12.67
-14.64
-16.67
-18.82
-21.46
-24.66
-27.69
-29.15
-27.47
-21.78
-12.45
-1.01
10.51
20.38
27.88
33.32
37.6
41.58
45.49
48.88
50.97
51.19
49.59
46.9
44.11
41.95
40.48
39.17
37.23
34.16
29.89
24.7
18.78
12.04
4.26
-4.47
-13.3
-20.6
-24.48
-23.58
-17.7
-7.84
4.24
16.79
28.58
39.02
47.81
54.61
58.95
60.43
59.05
55.43
50.61
45.68
41.48
38.34
36.23
34.96
34.28
33.9
33.4
32.21
29.69
25.34
18.87
10.37
0.29
-10.63
-21.27
-30.26
-36.14
-37.72
-34.47
-26.73
-15.71
-3.12
9.35
20.5
29.75
37.06
42.62
46.58
48.94
49.64
48.68
46.26
42.79
38.78
34.72
30.91
27.48
24.41
21.51
18.62
15.57
12.2
8.34
3.77
-1.72
-8.24
-15.54
-22.87
-29.0
-32.57
-32.52
-28.51
-21.13
-11.55
-1.11
9.18
18.78
27.49
35.19
41.66
46.64
49.95
51.69
52.15
51.7
50.57
48.83
46.42
43.32
39.67
35.78
31.99
28.53
25.33
22.07
18.18
13.14
6.63
-1.35
-10.33
-19.49
-27.7
-33.76
-36.63
-35.66
-30.84
-22.75
-12.44
-1.16
9.98
20.16
28.91
35.99
41.23
44.46
45.59
44.65
41.89
37.79
32.98
28.11
23.62
19.69
16.19
12.79
9.18
5.24
1.09
-3.09
-7.21
-11.56
-16.79
-23.68
-32.69
-43.6
-55.31
-66.01
-73.76
-77.05
-75.37
-69.32
-60.26
-49.8
-39.27
-29.46
-20.79
-13.65
-8.61
-6.28
-7.0
-10.43
-15.39
-20.2
-23.46
-24.54
-23.92
-22.75
-22.18
-22.7
-23.92
-24.72
-23.57
-19.03
-9.99
4.16
23.22
45.99
70.08
92.21
108.88
117.44
117.03
108.95
96.33
83.12
72.97
68.21
69.34
75.27
84.06
93.94
103.97
114.2
125.08
136.78
148.75
160.08
170.2
179.51
189.3
200.7
213.33
224.57
230.07
225.41
208.03
178.63
140.98
100.7
63.15
31.74
6.85
-13.99
-35.03
-60.37
-92.2
-129.59
-168.39
-202.5
-225.84
-234.32
-226.82
-205.01
-172.23
-132.25
-88.66
-44.89
-4.58
28.52
51.23
62.11
62.24
55.04
45.03
36.02
29.85
26.14
23.08
18.86
12.68
4.86
-3.83
-12.94
-22.74
-33.63
-45.5
-57.34
-67.52
-74.78
-78.76
-79.93
-78.8
-75.11
-67.8
-55.91
-39.68
-20.92
-2.47
13.2
25.06
33.5
39.2
42.15
41.31
35.19
23.05
5.31
-16.65
-41.16
-66.67
-91.6
-114.06
-132.0
-144.2
-151.36
-156.62
-164.39
-178.18
-198.43
-221.9
-243.08
-256.88
-261.04
-256.89
-248.26
-239.15
-231.55
-224.68
-215.38
-199.81
-175.22
-141.12
-99.37
-53.67
-8.51
31.95
64.63
88.17
102.87
110.38
112.89
112.43
110.4
107.67
104.83
102.55
101.4
101.43
101.72
100.5
95.99
87.6
76.71
66.41
60.15
60.01
65.5
73.82
81.28
85.19
84.93
81.81
77.78
74.07
70.58
66.32
60.48
53.28
45.86
39.51
34.71
30.8
26.38
20.26
12.2
2.96
-6.28
-14.77
-22.65
-30.84
-40.36
-51.71
-64.5
-77.56
-89.34
-98.47
-104.13
-106.1
-104.78
-100.88
-95.14
-88.11
-80.01
-70.91
-61.02
-50.94
-41.7
-34.47
-29.99
-28.21
-28.16
-28.37
-27.43
-24.68
-20.41
-15.58
-11.33
-8.36
-6.73
-6.04
-5.8
-5.81
-6.06
-6.43
-6.34
-4.71
-0.34
7.34
17.81
29.46
40.25
48.52
53.67
56.11
56.74
56.15
54.27
50.6
44.87
37.59
30.04
23.81
19.95
18.42
18.04
17.09
14.1
8.43
0.4
-9.02
-18.73
-27.85
-35.82
-42.23
-46.7
-48.85
-48.46
-45.66
-41.02
-35.39
-29.64
-24.4
-19.93
-16.18
-12.98
-10.28
-8.11
-6.56
-5.65
-5.27
-5.23
-5.38
-5.67
-6.14
-6.87
-7.92
-9.31
-11.19
-13.81
-17.5
-22.38
-28.12
-33.7
-37.66
-38.54
-35.49
-28.71
-19.46
-9.66
-1.28
4.28
6.51
5.95
3.9
2.02
1.86
4.34
9.53
16.67
24.55
31.98
38.17
42.84
46.04
47.89
48.35
47.39
45.06
41.77
38.18
35.0
32.67
31.15
30.02
28.65
26.51
23.3
19.01
13.7
7.55
0.86
-5.8
-11.57
-15.39
-16.31
-13.93
-8.53
-1.09
7.08
14.77
21.14
25.91
29.12
30.93
31.43
30.66
28.6
25.43
21.52
17.46
13.82
11.02
9.2
8.13
7.29
6.06
3.89
0.39
-4.48
-10.4
-16.66
-22.25
-26.03
-27.04
-24.79
-19.44
-11.71
-2.71
6.38
14.58
21.2
25.87
28.5
29.18
28.2
26.07
23.42
20.91
19.05
18.05
17.78
17.81
17.49
16.21
13.47
9.02
2.93
-4.51
-12.65
-20.6
-27.15
-31.07
-31.39
-27.78
-20.72
-11.42
-1.43
7.87
15.62
21.57
25.83
28.59
29.88
29.64
27.92
25.07
21.75
18.68
16.37
14.85
13.74
12.41
10.33
7.22
3.06
-1.99
-7.7
-13.7
-19.34
-23.7
-25.76
-24.75
-20.5
-13.58
-5.08
3.74
11.92
18.89
24.46
28.53
30.91
31.42
30.04
27.13
23.41
19.75
16.9
15.14
14.29
13.78
12.89
11.01
7.82
3.21
-2.56
-8.94
-15.14
-20.16
-23.03
-23.09
-20.16
-14.71
-7.68
-0.24
6.55
12.0
15.72
17.62
17.71
16.08
12.95
8.74
4.06
-0.49
-4.49
-7.83
-10.78
-13.81
-17.34
-21.65
-26.83
-32.84
-39.55
-46.7
-53.84
-60.31
-65.35
-68.27
-68.55
-65.93
-60.25
-51.35
-39.07
-23.43
-4.9
15.31
35.3
52.96
66.66
75.79
80.95
83.51
84.91
85.92
86.39
85.55
82.58
77.13
69.44
60.18
49.96
39.29
28.7
19.0
11.32
6.82
6.05
8.56
12.93
17.27
20.02
20.46
18.74
15.58
11.79
8.02
4.76
2.51
1.78
2.91
5.91
10.3
15.27
19.93
23.6
25.84
26.38
25.11
22.05
17.58
12.61
8.49
6.69
8.17
12.95
19.99
27.5
33.74
37.54
38.77
38.1
36.48
34.63
32.7
30.38
27.2
22.87
17.4
11.04
4.05
-3.35
-10.97
-18.61
-26.01
-32.97
-39.5
-45.74
-51.81
-57.53
-62.23
-64.97
-64.91
-61.72
-55.79
-48.12
-39.85
-31.93
-24.84
-18.74
-13.67
-9.78
-7.37
-6.66
-7.58
-9.61
-11.9
-13.56
-14.07
-13.42
-12.16
-11.11
-11.05
-12.51
-15.63
-20.1
-25.28
-30.22
-33.89
-35.33
-33.97
-29.78
-23.35
-15.66
-7.72
-0.35
5.98
11.07
14.82
17.11
17.84
17.06
15.07
12.46
9.91
7.92
6.73
6.16
5.77
5.06
3.61
1.15
-2.4
-6.89
-11.99
-17.01
-21.03
-23.03
-22.25
-18.49
-12.24
-4.54
3.43
10.68
16.66
21.19
24.27
25.85
25.86
24.28
21.38
17.74
14.11
11.19
9.31
8.32
7.72
6.85
5.19
2.48
-1.27
-5.86
-10.94
-15.99
-20.26
-22.86
-22.96
-20.11
-14.58
-7.28
0.48
7.49
12.99
16.8
19.13
20.26
20.36
19.45
17.6
15.05
12.22
9.64
7.67
6.43
5.72
5.17
4.33
2.8
0.33
-3.21
-7.7
-12.75
-17.66
-21.54
-23.49
-22.89
-19.64
-14.21
-7.52
-0.65
5.53
10.45
13.92
15.98
16.7
16.15
14.47
11.95
9.07
6.44
4.52
3.51
3.23
3.22
2.97
2.09
0.46
-1.89
-4.86
-8.47
-12.72
-17.42
-22.01
-25.52
-26.85
-25.21
-20.54
-13.59
-5.71
1.65
7.44
11.24
13.21
13.78
13.41
12.38
10.87
9.03
7.11
5.37
4.03
3.15
2.59
2.11
1.41
0.31
-1.22
-3.1
-5.27
-7.77
-10.71
-14.21
-18.08
-21.73
-24.18
-24.43
-21.81
-16.41
-9.12
-1.27
5.79
11.18
14.64
16.41
16.94
16.57
15.44
13.65
11.33
8.8
6.48
4.72
3.64
3.09
2.69
2.01
0.75
-1.21
-3.86
-7.19
-11.23
-15.95
-21.07
-25.89
-29.37
-30.41
-28.29
-23.06
-15.58
-7.23
0.57
6.83
11.13
13.57
14.47
14.15
12.83
10.7
8.01
5.11
2.43
0.31
-1.03
-1.68
-1.92
-2.17
-2.89
-4.42
-6.95
-10.55
-15.14
-20.47
-26.01
-30.96
-34.32
-35.17
-33.01
-27.98
-20.89
-12.98
-5.47
0.78
5.41
8.51
10.36
11.18
11.09
10.11
8.32
5.93
3.32
0.94
-0.92
-2.19
-3.08
-4.0
-5.37
-7.49
-10.48
-14.33
-18.93
-24.1
-29.43
-34.28
-37.77
-39.06
-37.65
-33.71
-28.07
-21.96
-16.63
-12.93
-11.12
-11.01
-12.24
-14.59
-18.03
-22.6
-28.2
-34.39
-40.47
-45.74
-49.87
-53.17
-56.48
-60.62
-65.74
-70.91
-74.27
-73.67
-67.55
-55.46
-37.94
-16.06
9.1
36.45
64.55
91.27
114.02
130.55
140.01
143.43
143.16
141.62
140.14
138.66
136.42
133.03
129.08
125.98
125.16
127.38
132.52
139.83
148.26
156.61
163.56
167.71
168.03
164.29
157.19
148.13
138.29
128.05
116.85
103.76
88.23
70.5
51.37
31.53
11.17
-10.02
-32.21
-54.79
-76.22
-94.47
-107.97
-116.32
-120.52
-122.43
-123.84
-125.78
-128.23
-130.59
-132.18
-132.76
-132.51
-131.85
-131.12
-130.56
-130.42
-131.02
-132.55
-134.76
-136.63
-136.48
-132.53
-123.76
-110.52
-94.63
-78.77
-65.51
-56.4
-51.65
-50.29
-50.84
-51.85
-52.37
-51.84
-50.01
-46.8
-42.36
-37.1
-31.74
-27.06
-23.59
-21.37
-19.86
-18.23
-15.75
-12.14
-7.75
-3.47
-0.32
1.01
0.5
-1.12
-2.67
-2.96
-1.28
2.41
7.44
12.85
17.74
21.56
24.17
25.65
26.11
25.56
23.97
21.35
17.91
14.08
10.42
7.43
5.35
4.06
3.12
1.94
0.03
-2.84
-6.64
-11.23
-16.5
-22.37
-28.55
-34.36
-38.65
-40.15
-37.91
-31.76
-22.45
-11.31
0.23
11.1
20.78
29.14
36.21
42.01
46.51
49.63
51.33
51.49
50.03
46.97
42.61
37.64
32.89
28.96
25.86
22.95
19.23
13.92
6.87
-1.43
-10.17
-18.64
-26.41
-33.13
-38.27
-40.94
-40.12
-35.22
-26.57
-15.43
-3.71
6.82
15.02
20.64
24.06
25.85
26.49
26.21
25.11
23.37
21.27
19.11
17.1
15.21
13.27
11.08
8.59
5.9
3.16
0.35
-2.81
-6.89
-12.3
-19.02
-26.29
-32.69
-36.64
-36.95
-33.25
-26.11
-16.75
-6.52
3.41
12.36
20.01
26.26
31.08
34.43
36.27
36.62
35.71
33.92
31.76
29.64
27.72
25.84
23.65
20.86
17.53
14.06
10.98
8.58
6.58
4.21
0.52
-5.06
-12.4
-20.58
-28.14
-33.5
-35.38
-33.09
-26.72
-17.14
-5.8
5.64
15.78
23.72
29.21
32.41
33.64
33.19
31.39
28.7
25.85
23.64
22.65
22.91
23.85
24.6
24.5
23.36
21.53
19.54
17.66
15.7
13.11
9.38
4.32
-1.81
-8.49
-15.16
-21.37
-26.68
-30.48
-31.93
-30.21
-24.94
-16.58
-6.39
3.88
12.66
19.08
23.06
25.1
25.86
25.79
25.02
23.58
21.63
19.51
17.67
16.44
15.76
15.27
14.46
13.01
10.93
8.56
6.25
4.12
1.84
-1.25
-5.8
-12.0
-19.25
-26.22
-31.2
-32.68
-29.89
-23.07
-13.36
-2.4
8.12
16.95
23.39
27.33
29.09
29.22
28.32
26.89
25.3
23.71
22.14
20.48
18.58
16.35
13.67
10.49
6.78
2.58
-1.97
-6.73
-11.67
-16.93
-22.77
-29.31
-36.2
-42.47
-46.66
-47.33
-43.63
-35.7
-24.71
-12.39
-0.47
9.85
18.04
24.06
28.11
30.41
31.16
30.57
28.97
26.77
24.38
22.1
20.06
18.21
16.41
14.41
12.03
9.11
5.57
1.43
-3.28
-8.6
-14.55
-21.04
-27.58
-33.2
-36.59
-36.53
-32.38
-24.45
-13.96
-2.61
8.0
16.78
23.34
27.74
30.21
30.98
30.27
28.39
25.85
23.22
20.95
19.21
17.89
16.69
15.36
13.75
11.83
9.57
6.92
3.77
0.02
-4.41
-9.6
-15.52
-21.86
-27.86
-32.31
-33.84
-31.46
-24.96
-15.23
-3.9
7.18
16.52
23.39
27.69
29.74
29.97
28.79
26.62
23.99
21.46
19.47
18.16
17.32
16.47
15.15
13.05
10.16
6.74
3.13
-0.35
-3.56
-6.67
-10.02
-14.06
-19.12
-25.03
-31.11
-36.12
-38.65
-37.55
-32.44
-23.91
-13.32
-2.38
7.38
15.01
20.15
22.93
23.68
22.82
20.83
18.23
15.59
13.39
11.9
11.07
10.56
9.94
8.86
7.16
4.93
2.36
-0.32
-2.99
-5.68
-8.59
-12.03
-16.36
-21.7
-27.72
-33.51
-37.74
-39.1
-36.75
-30.72
-21.92
-11.81
-1.9
6.65
13.19
17.57
19.94
20.59
19.92
18.37
16.4
14.38
12.53
10.87
9.28
7.59
5.69
3.61
1.45
-0.66
-2.71
-4.79
-7.15
-10.11
-13.91
-18.63
-24.06
-29.6
-34.34
-37.16
-37.02
-33.32
-26.15
-16.45
-5.77
4.23
12.21
17.55
20.34
21.14
20.6
19.22
17.3
15.04
12.72
10.57
8.81
7.45
6.37
5.4
4.46
3.58
2.81
2.1
1.13
-0.61
-3.68
-8.34
-14.34
-20.81
-26.39
-29.6
-29.3
-25.08
-17.45
-7.72
2.42
11.45
18.38
22.96
25.45
26.36
26.15
25.13
23.51
21.46
19.17
16.82
14.62
12.67
11.1
9.94
9.16
8.58
7.77
6.24
3.48
-0.84
-6.72
-13.81
-21.44
-28.69
-34.47
-37.76
-37.78
-34.29
-27.72
-19.13
-9.93
-1.51
5.16
9.69
12.24
13.27
13.29
12.63
11.5
10.0
8.3
6.6
5.13
3.95
2.98
1.96
0.67
-1.01
-3.0
-5.17
-7.45
-10.05
-13.35
-17.69
-23.01
-28.67
-33.39
-35.69
-34.41
-29.27
-21.07
-11.39
-2.08
5.49
10.77
13.98
15.77
16.66
16.84
16.16
14.5
11.98
9.08
6.45
4.6
3.72
3.53
3.52
3.14
2.0
-0.01
-2.79
-6.14
-9.96
-14.24
-19.0
-24.02
-28.68
-31.89
-32.48
-29.57
-23.13
-14.08
-4.04
5.22
12.43
17.06
19.3
19.73
18.98
17.47
15.49
13.25
10.97
8.94
7.42
6.48
5.99
5.58
4.75
3.07
0.3
-3.55
-8.29
-13.71
-19.6
-25.74
-31.66
-36.59
-39.43
-39.16
-35.28
-28.08
-18.7
-8.71
0.38
7.64
12.79
16.04
17.79
18.38
17.97
16.71
14.8
12.57
10.45
8.73
7.53
6.71
5.96
4.97
3.45
1.27
-1.61
-5.2
-9.52
-14.56
-20.12
-25.7
-30.38
-33.03
-32.64
-28.75
-21.62
-12.29
-2.21
7.25
15.13
21.02
24.95
27.14
27.81
27.18
25.44
22.92
20.05
17.25
14.86
13.01
11.61
10.49
9.37
8.08
6.43
4.29
1.5
-2.13
-6.79
-12.51
-18.97
-25.43
-30.8
-33.86
-33.65
-29.82
-22.79
-13.59
-3.59
5.89
13.86
19.8
23.53
25.16
24.95
23.25
20.53
17.35
14.33
11.93
10.39
9.6
9.18
8.66
7.67
6.11
4.07
1.75
-0.76
-3.59
-7.06
-11.49
-16.98
-23.18
-29.28
-34.09
-36.43
-35.45
-30.97
-23.52
-14.24
-4.49
4.49
11.85
17.2
20.48
21.86
21.64
20.21
18.06
15.74
13.7
12.17
11.06
10.0
8.52
6.23
3.0
-1.01
-5.49
-10.17
-14.95
-19.99
-25.58
-32.03
-39.43
-47.56
-55.85
-63.49
-69.68
-73.77
-75.31
-74.05
-69.85
-62.8
-53.33
-42.49
-32.04
-24.12
-20.78
-23.29
-31.72
-44.86
-60.64
-76.5
-89.73
-97.73
-98.38
-90.68
-75.28
-54.69
-32.64
-12.86
2.36
12.85
20.39
27.49
35.91
45.79
55.7
63.59
67.93
68.53
66.6
64.2
63.12
64.03
66.07
67.27
65.56
59.96
51.21
41.5
33.41
28.83
28.14
30.32
33.74
37.07
39.84
42.33
45.02
48.02
50.89
52.79
53.01
51.26
47.78
42.98
37.19
30.5
23.07
15.61
9.45
6.23
6.88
10.96
16.59
21.38
23.73
23.76
23.24
24.46
28.86
36.42
45.98
56.35
67.05
78.19
89.37
98.73
102.92
98.44
83.64
60.09
32.37
6.36
-13.31
-24.99
-30.24
-32.41
-34.59
-38.27
-43.19
-48.27
-52.82
-57.03
-61.53
-66.47
-70.9
-72.93
-70.64
-63.17
-51.34
-37.34
-23.89
-13.16
-6.14
-2.45
-0.93
-0.23
0.55
1.6
2.55
2.81
2.03
0.33
-1.76
-3.58
-4.78
-5.38
-5.76
-6.39
-7.54
-9.22
-11.18
-13.22
-15.3
-17.64
-20.6
-24.42
-28.96
-33.56
-37.08
-38.19
-35.86
-29.78
-20.61
-9.84
0.69
9.42
15.5
18.86
19.94
19.32
17.47
14.9
12.38
11.08
12.15
16.22
22.83
30.45
37.01
40.86
41.44
39.34
35.77
31.77
27.71
23.35
18.26
12.3
5.84
-0.37
-5.53
-8.99
-10.35
-9.4
-6.17
-1.0
5.4
12.06
17.99
22.46
25.16
26.12
25.54
23.56
20.3
15.95
10.97
6.05
1.98
-0.73
-1.99
-2.25
-2.26
-2.69
-3.89
-5.79
-8.09
-10.5
-12.97
-15.81
-19.49
-24.32
-30.09
-35.95
-40.49
-42.18
-39.94
-33.61
-24.16
-13.27
-2.83
5.75
11.85
15.62
17.63
18.43
18.34
17.47
15.89
13.85
11.72
9.94
8.78
8.33
8.4
8.72
8.98
8.94
8.42
7.2
5.11
1.88
-2.68
-8.51
-15.14
-21.57
-26.42
-28.35
-26.59
-21.26
-13.4
-4.54
3.83
10.74
15.83
19.08
20.52
20.03
17.52
13.17
7.7
2.13
-2.53
-5.8
-7.9
-9.52
-11.43
-14.05
-17.36
-21.07
-24.96
-29.02
-33.52
-38.63
-44.15
-49.38
-53.27
-54.81
-53.38
-48.97
-42.13
-33.75
-24.76
-15.98
-8.08
-1.6
3.08
5.75
6.53
5.89
4.49
3.06
2.06
1.67
1.77
2.14
2.51
2.68
2.46
1.64
0.07
-2.26
-5.25
-8.54
-11.66
-14.12
-15.45
-15.33
-13.62
-10.45
-6.16
-1.33
3.43
7.59
10.85
13.11
14.38
14.7
14.04
12.42
9.99
7.06
4.09
1.56
-0.2
-1.11
-1.44
-1.64
-2.3
-3.99
-7.14
-11.99
-18.43
-25.86
-33.19
-38.94
-41.64
-40.33
-34.92
-26.27
-15.89
-5.45
3.83
11.36
17.11
21.35
24.29
26.0
26.45
25.68
23.93
21.67
19.43
17.61
16.31
15.36
14.34
12.79
10.34
6.78
2.06
-3.81
-10.67
-18.16
-25.58
-31.82
-35.57
-35.71
-31.77
-24.16
-14.09
-3.21
6.94
15.34
21.6
25.79
28.14
28.93
28.34
26.64
24.23
21.62
19.32
17.63
16.57
15.85
15.03
13.69
11.57
8.59
4.75
0.05
-5.55
-11.99
-18.94
-25.61
-30.84
-33.32
-32.08
-26.84
-18.22
-7.52
3.6
13.68
21.71
27.31
30.55
31.76
31.37
29.77
27.34
24.46
21.47
18.68
16.25
14.12
12.09
9.81
7.0
3.5
-0.67
-5.36
-10.49
-16.05
-22.16
-28.73
-35.32
-40.93
-44.21
-43.86
-39.18
-30.44
-18.85
-6.22
5.7
15.58
22.87
27.6
30.17
31.07
30.68
29.3
27.22
24.73
22.12
19.62
17.37
15.35
13.43
11.44
9.16
6.37
2.88
-1.48
-6.89
-13.39
-20.79
-28.49
-35.42
-40.24
-41.68
-38.94
-32.06
-21.92
-9.94
2.32
13.59
23.09
30.52
35.91
39.39
41.16
41.44
40.53
38.78
36.57
34.21
31.88
29.68
27.58
25.52
23.42
21.15
18.56
15.44
11.53
6.59
0.45
-6.77
-14.59
-22.12
-28.14
-31.41
-31.04
-26.8
-19.22
-9.46
1.07
11.1
19.73
26.47
31.09
33.58
34.02
32.71
30.19
27.21
24.51
22.56
21.41
20.62
19.51
17.49
14.31
10.18
5.65
1.31
-2.49
-5.82
-9.16
-13.11
-18.16
-24.45
-31.62
-38.85
-44.91
-48.44
-48.22
-43.6
-34.74
-22.71
-9.24
3.83
15.11
24.03
30.85
36.28
41.04
45.55
49.82
53.63
56.84
59.44
61.55
63.18
64.15
64.02
62.29
58.68
53.25
46.46
38.93
31.25
23.72
16.38
9.1
1.79
-5.55
-12.77
-19.75
-26.56
-33.39
-40.53
-47.99
-55.33
-61.55
-65.31
-65.38
-61.18
-53.0
-42.1
-30.23
-19.1
-9.93
-3.16
1.35
4.05
5.36
5.55
4.73
3.09
0.93
-1.29
-3.12
-4.28
-4.78
-4.92
-5.12
-5.85
-7.37
-9.76
-12.89
-16.5
-20.28
-24.04
-27.71
-31.46
-35.57
-40.37
-46.04
-52.56
-59.68
-67.0
-74.03
-80.19
-84.82
-87.19
-86.55
-82.34
-74.38
-62.92
-48.6
-32.13
-14.2
4.51
23.06
40.07
53.81
62.74
66.21
64.92
60.91
56.86
55.2
57.35
63.33
71.88
80.97
88.42
92.48
92.49
89.0
83.57
77.96
73.09
68.48
62.38
52.89
39.23
22.48
5.31
-9.3
-19.43
-24.93
-27.05
-27.41
-26.89
-25.34
-22.03
-16.57
-9.6
-2.71
2.21
3.98
2.56
-0.92
-4.83
-7.87
-9.64
-10.61
-11.78
-13.97
-17.38
-21.51
-25.44
-28.37
-30.03
-30.74
-31.18
-32.04
-33.68
-36.07
-38.99
-42.23
-45.77
-49.77
-54.33
-59.28
-64.0
-67.45
-68.4
-65.82
-59.17
-48.6
-34.93
-19.39
-3.35
12.0
25.72
37.19
46.04
52.18
55.88
57.78
58.83
60.03
62.05
65.07
68.74
72.4
75.41
77.21
77.28
74.95
69.47
60.18
47.03
30.79
13.07
-4.3
-19.84
-32.9
-43.61
-52.32
-59.12
-63.52
-64.73
-62.2
-56.14
-47.65
-38.34
-29.72
-22.71
-17.56
-13.96
-11.49
-9.83
-8.87
-8.57
-8.83
-9.44
-10.1
-10.6
-10.88
-11.0
-11.09
-11.21
-11.36
-11.52
-11.71
-12.09
-13.0
-14.8
-17.7
-21.54
-25.61
-28.71
-29.47
-26.82
-20.47
-11.1
-0.12
10.89
20.82
29.51
37.55
45.8
54.7
63.94
72.62
79.85
85.43
90.15
95.44
102.87
113.75
129.16
150.05
177.01
209.54
245.3
279.93
307.97
324.57
327.23
316.52
295.5
268.17
237.93
206.85
175.84
145.28
115.4
86.1
56.72
25.97
-7.51
-44.28
-83.46
-122.81
-159.1
-189.09
-210.53
-222.97
-228.0
-228.85
-229.27
-232.18
-238.45
-246.69
-254.02
-257.7
-256.8
-252.97
-250.15
-252.93
-264.57
-285.33
-311.88
-337.9
-355.88
-359.18
-344.02
-310.48
-262.2
-205.27
-146.3
-91.1
-43.88
-7.44
16.58
27.43
25.61
13.4
-5.0
-24.15
-38.76
-45.27
-42.81
-32.98
-18.68
-2.71
13.12
28.01
41.51
53.04
61.74
66.9
68.52
67.52
65.59
64.45
65.16
67.61
70.63
72.52
71.93
68.43
62.69
56.05
49.8
44.58
40.3
36.65
33.62
31.78
32.07
35.08
40.53
47.3
53.88
58.98
61.77
61.72
58.25
50.71
38.82
23.38
6.62
-8.16
-17.75
-20.41
-16.55
-8.56
0.27
7.09
10.39
10.1
7.11
2.54
-2.62
-7.57
-11.59
-14.13
-15.02
-14.68
-14.13
-14.48
-16.35
-19.4
-22.55
-24.47
-24.4
-22.59
-20.19
-18.62
-18.69
-20.09
-21.42
-20.81
-16.8
-8.98
1.97
14.64
27.52
39.47
49.79
58.02
63.64
66.05
64.87
60.3
53.34
45.64
38.97
34.62
32.95
33.37
34.59
35.07
33.56
29.37
22.48
13.35
2.69
-8.72
-19.99
-30.13
-37.94
-42.26
-42.42
-38.55
-31.75
-23.74
-16.28
-10.67
-7.44
-6.52
-7.56
-10.21
-14.16
-19.02
-24.17
-28.8
-32.24
-34.21
-35.0
-35.25
-35.61
-36.4
-37.45
-38.5
-39.54
-41.21
-44.54
-50.36
-58.54
-67.57
-74.82
-77.42
-73.51
-63.01
-47.69
-30.42
-14.0
-0.28
10.2
17.8
23.11
26.47
27.86
27.27
25.09
22.32
20.21
19.81
21.41
24.44
27.75
30.17
31.03
30.25
28.1
24.9
20.77
15.94
11.03
7.31
6.33
9.23
15.99
25.18
34.29
40.68
42.52
39.32
31.89
21.89
11.28
1.78
-5.31
-9.21
-9.69
-7.02
-1.99
4.29
10.46
15.13
17.03
15.32
9.77
0.9
-10.12
-21.72
-32.48
-41.32
-47.53
-50.65
-50.28
-46.18
-38.47
-27.85
-15.55
-3.14
8.02
17.02
23.59
27.92
30.46
31.67
31.87
31.25
29.98
28.19
26.08
23.82
21.52
19.19
16.63
13.54
9.53
4.28
-2.28
-9.85
-17.69
-24.68
-29.49
-30.98
-28.57
-22.46
-13.56
-3.26
7.08
16.48
24.38
30.57
34.94
37.41
37.95
36.68
33.93
30.13
25.71
20.96
16.08
11.2
6.48
1.98
-2.4
-6.93
-11.89
-17.2
-22.23
-25.85
-26.82
-24.33
-18.45
-10.11
-0.77
8.15
15.65
21.34
25.23
27.46
28.17
27.41
25.27
22.02
18.13
14.28
11.25
9.68
9.89
11.63
14.1
16.1
16.5
14.56
10.31
4.62
-1.02
-4.87
-5.49
-2.25
4.44
13.15
21.95
29.17
34.06
37.08
39.45
42.2
45.45
48.09
48.44
45.28
38.85
30.93
24.08
20.4
20.58
23.64
27.5
29.85
28.94
23.75
13.94
-0.31
-18.2
-38.1
-57.59
-73.87
-84.54
-88.36
-85.45
-76.94
-64.24
-48.48
-30.54
-11.48
6.98
22.56
33.11
37.45
36.06
30.9
24.55
19.16
15.74
14.17
13.65
13.33
12.57
10.84
7.55
2.09
-5.85
-15.64
-25.6
-33.27
-36.31
-33.47
-25.04
-12.77
0.98
14.11
25.45
34.75
42.24
48.11
52.2
54.06
53.3
50.0
44.87
39.1
33.97
30.39
28.57
27.95
27.37
25.53
21.4
14.46
4.91
-6.44
-18.39
-29.52
-38.49
-44.18
-45.84
-43.2
-36.5
-26.52
-14.4
-1.45
11.15
22.61
32.61
41.2
48.46
54.28
58.24
59.75
58.33
53.92
46.99
38.33
28.85
19.28
10.09
1.59
-6.0
-12.5
-17.85
-22.21
-26.08
-30.15
-35.02
-40.73
-46.61
-51.26
-53.11
-51.08
-45.03
-35.65
-24.04
-11.05
2.95
17.79
32.79
46.41
56.48
61.44
61.52
59.17
57.98
60.56
66.76
73.35
75.74
70.65
58.3
42.47
28.6
21.0
20.81
26.03
33.15
39.19
42.7
43.67
42.72
40.73
39.05
39.86
45.94
59.44
80.05
103.63
122.76
129.26
117.99
90.23
54.45
24.13
12.89
29.07
72.37
134.05
200.65
259.25
301.79
326.48
336.06
334.54
324.6
307.0
281.86
250.33
215.35
180.99
150.75
126.14
106.21
88.16
68.88
46.11
19.06
-11.48
-43.9
-76.69
-109.36
-142.81
-178.61
-217.47
-257.84
-295.3
-323.94
-339.16
-340.22
-331.0
-318.27
-308.34
-304.17
-304.58
-305.75
-303.75
-296.39
-283.36
-265.32
-243.11
-217.97
-192.39
-170.79
-158.31
-158.45
-170.69
-189.57
-205.8
-209.39
-193.22
-155.59
-101.72
-42.68
7.38
35.86
36.51
12.79
-22.07
-49.57
-53.48
-26.98
23.75
81.76
126.3
141.58
122.97
78.32
24.04
-21.91
-46.68
-46.23
-24.98
7.75
42.35
72.11
94.13
108.02
113.79
110.41
96.32
71.22
37.85
2.7
-25.84
-40.74
-39.37
-24.68
-3.77
15.38
27.57
32.25
33.06
35.45
43.73
59.04
79.16
99.76
116.55
127.0
130.88
129.78
125.81
120.39
113.79
105.25
93.71
78.64
60.67
41.65
24.24
10.9
2.8
-0.79
-2.51
-5.88
-13.77
-26.78
-42.47
-55.69
-60.35
-51.69
-28.35
6.74
46.74
82.68
105.8
110.08
94.17
62.58
25.15
-5.39
-17.38
-4.58
31.01
79.42
126.01
156.67
162.65
142.99
103.75
54.42
3.65
-43.84
-87.42
-128.18
-165.82
-196.81
-215.56
-217.75
-203.84
-180.13
-156.35
-140.81
-136.07
-137.92
-138.22
-130.09
-111.74
-86.86
-61.68
-40.9
-25.32
-12.48
1.02
16.88
34.18
50.19
61.93
67.77
68.01
64.89
61.87
62.48
68.72
79.91
92.39
100.69
100.09
89.06
70.4
50.15
34.94
28.81
31.19
37.08
39.41
32.31
13.81
-13.21
-42.45
-67.16
-83.17
-90.37
-92.01
-92.13
-93.11
-94.64
-94.77
-91.9
-86.19
-79.37
-73.27
-68.3
-63.05
-55.29
-43.57
-28.23
-11.19
4.99
18.21
27.37
32.13
32.43
28.46
20.79
10.64
-0.24
-10.17
-18.04
-23.75
-27.85
-31.09
-33.76
-35.59
-35.92
-34.25
-30.65
-25.86
-21.04
-17.18
-14.72
-13.28
-11.91
-9.62
-5.83
-0.72
4.84
9.62
12.64
13.5
12.46
10.24
7.55
4.74
1.7
-1.87
-6.1
-10.66
-14.84
-17.94
-19.7
-20.51
-21.24
-22.78
-25.58
-29.45
-33.75
-37.75
-40.87
-42.79
-43.18
-41.71
-37.98
-31.79
-23.45
-13.77
-3.97
4.79
11.75
16.76
20.15
22.45
24.02
25.01
25.44
25.42
25.31
25.57
26.5
27.92
29.19
29.43
28.05
25.06
21.07
16.98
13.47
10.57
7.63
3.75
-1.66
-8.41
-15.35
-20.8
-23.17
-21.67
-16.67
-9.53
-1.94
4.72
9.91
13.84
17.04
19.79
21.83
22.46
21.1
17.76
13.19
8.64
5.29
3.72
3.68
4.31
4.65
4.02
2.39
0.25
-1.73
-3.1
-3.91
-4.73
-6.44
-9.75
-14.84
-21.09
-27.16
-31.49
-32.87
-30.98
-26.43
-20.47
-14.37
-8.88
-4.12
0.21
4.25
7.81
10.26
11.0
9.88
7.39
4.45
2.03
0.67
0.35
0.65
1.05
1.18
0.94
0.4
-0.32
-1.1
-1.88
-2.58
-3.23
-3.94
-4.95
-6.49
-8.54
-10.75
-12.48
-12.96
-11.62
-8.37
-3.6
1.96
7.47
12.27
16.02
18.62
20.17
20.8
20.59
19.59
17.89
15.71
13.39
11.29
9.63
8.34
7.02
5.15
2.37
-1.31
-5.46
-9.52
-13.04
-16.03
-18.95
-22.39
-26.68
-31.47
-35.69
-37.85
-36.69
-31.67
-23.35
-13.18
-2.97
5.76
12.25
16.56
19.28
21.02
22.14
22.64
22.37
21.24
19.44
17.28
15.05
12.85
10.59
8.06
5.23
2.24
-0.63
-3.19
-5.5
-7.98
-11.27
-15.98
-22.3
-29.8
-37.39
-43.53
-46.77
-46.25
-42.03
-35.1
-27.0
-19.21
-12.67
-7.69
-4.08
-1.6
-0.19
-0.01
-1.17
-3.49
-6.36
-9.01
-10.86
-11.77
-12.16
-12.66
-13.77
-15.65
-18.06
-20.58
-22.91
-24.98
-26.92
-28.93
-31.1
-33.22
-34.76
-34.9
-32.74
-27.49
-18.76
-6.75
7.69
23.19
38.26
51.48
61.92
69.06
72.85
73.61
71.9
68.44
63.91
58.8
53.31
47.37
40.87
33.85
26.72
20.14
14.82
11.1
8.78
7.02
4.65
0.61
-5.56
-13.5
-22.15
-30.11
-36.23
-39.95
-41.36
-40.92
-39.1
-36.16
-32.23
-27.66
-23.19
-20.04
-19.44
-22.03
-27.36
-33.95
-39.73
-42.96
-42.99
-40.58
-37.59
-36.19
-37.87
-42.79
-49.86
-57.27
-63.56
-68.3
-72.18
-76.41
-81.7
-87.59
-92.5
-94.57
-92.63
-86.78
-78.16
-67.97
-56.88
-45.27
-34.29
-26.66
-26.31
-36.32
-56.06
-79.63
-96.83
-97.12
-75.18
-34.61
12.64
51.48
70.5
66.54
44.74
14.19
-17.39
-46.42
-72.35
-94.48
-109.39
-111.25
-95.3
-61.66
-17.23
26.34
57.65
70.94
68.74
60.35
56.92
65.86
87.13
113.61
134.8
142.62
135.79
120.41
106.28
101.41
107.49
119.33
128.25
127.23
114.63
94.43
73.44
57.42
47.94
42.23
35.38
23.69
6.83
-11.9
-27.88
-37.87
-41.68
-41.84
-41.76
-43.76
-47.78
-51.5
-51.83
-46.59
-35.68
-21.16
-6.4
5.35
12.07
13.64
11.66
8.8
7.65
9.63
14.56
21.06
27.5
32.75
36.29
37.91
37.35
34.47
29.75
24.55
20.82
20.3
23.75
30.58
39.27
48.23
56.35
63.19
68.76
73.09
76.01
77.21
76.36
73.21
67.7
60.07
50.85
40.99
31.47
23.04
15.79
9.18
2.43
-5.05
-13.42
-22.73
-33.11
-44.62
-56.63
-67.36
-74.0
-73.7
-64.98
-48.74
-28.16
-7.45
9.68
21.49
28.35
32.02
34.48
37.11
40.41
44.33
48.52
52.4
55.23
56.18
54.73
51.02
45.91
40.53
35.69
31.35
26.69
20.95
14.32
8.38
5.58
7.88
15.5
26.62
38.25
47.83
54.42
58.81
62.42
66.07
69.26
70.62
69.04
64.55
58.41
52.42
47.87
44.91
42.64
39.72
35.0
27.72
17.57
4.61
-10.37
-25.69
-38.85
-47.25
-49.25
-44.96
-36.1
-25.25
-14.75
-5.97
0.76
5.71
9.17
11.19
11.56
10.09
6.83
2.16
-3.21
-8.44
-12.75
-15.73
-17.54
-18.87
-20.66
-23.61
-27.91
-33.17
-38.62
-43.45
-46.88
-48.26
-46.96
-42.59
-35.25
-25.6
-14.72
-3.83
6.13
14.64
21.4
26.18
28.71
28.7
26.22
21.77
16.37
11.19
7.19
4.7
3.33
2.06
-0.35
-4.94
-12.1
-21.33
-31.34
-40.31
-46.41
-48.3
-45.52
-38.65
-29.08
-18.55
-8.57
0.04
7.16
12.99
17.57
20.6
21.6
20.48
17.87
15.04
13.25
13.02
13.78
14.21
13.05
9.77
4.75
-1.18
-7.29
-13.24
-18.77
-23.3
-25.75
-24.88
-20.01
-11.59
-1.09
9.6
18.99
26.43
31.99
35.95
38.32
38.79
37.11
33.45
28.54
23.37
18.75
14.94
11.57
7.96
3.41
-2.55
-9.98
-18.56
-27.57
-35.93
-42.34
-45.52
-44.62
-39.5
-30.91
-20.29
-9.3
0.58
8.49
14.05
17.32
18.47
17.77
15.5
12.14
8.31
4.71
1.9
0.12
-0.83
-1.5
-2.66
-5.01
-8.88
-14.05
-19.66
-24.35
-26.65
-25.44
-20.41
-12.1
-1.72
9.33
19.78
28.75
35.71
40.26
42.18
41.47
38.44
33.85
28.68
23.85
19.92
17.02
14.79
12.65
9.94
6.09
0.77
-5.95
-13.49
-20.78
-26.52
-29.5
-28.99
-24.9
-17.74
-8.51
1.72
11.89
21.15
28.85
34.48
37.7
38.32
36.46
32.48
27.08
21.11
15.4
10.47
6.37
2.76
-0.9
-5.12
-10.18
-16.03
-22.4
-28.82
-34.55
-38.74
-40.52
-39.27
-34.92
-28.13
-20.11
-12.31
-5.91
-1.52
0.83
1.56
1.13
-0.06
-1.75
-3.77
-5.92
-7.97
-9.64
-10.79
-11.5
-12.1
-13.04
-14.76
-17.41
-20.73
-24.07
-26.56
-27.39
-26.06
-22.55
-17.19
-10.61
-3.51
3.46
9.7
14.75
18.24
19.98
19.99
18.56
16.21
13.54
11.16
9.52
8.82
8.91
9.34
9.37
8.24
5.49
1.24
-3.69
-8.0
-10.33
-9.84
-6.61
-1.47
4.32
9.77
14.42
18.46
22.16
25.53
28.01
28.74
27.02
22.85
17.03
10.83
5.51
1.69
-0.74
-2.48
-4.43
-7.33
-11.52
-16.82
-22.68
-28.22
-32.47
-34.55
-33.88
-30.4
-24.53
-17.06
-8.95
-1.07
5.85
11.23
14.68
16.02
15.38
13.27
10.41
7.58
5.27
3.62
2.34
0.93
-1.1
-4.08
-8.06
-12.84
-17.98
-22.92
-26.96
-29.48
-29.97
-28.16
-24.17
-18.42
-11.63
-4.65
1.74
6.98
10.74
12.89
13.41
12.32
9.69
5.79
1.13
-3.54
-7.44
-10.02
-11.16
-11.26
-10.96
-10.96
-11.64
-13.06
-14.9
-16.63
-17.64
-17.45
-15.73
-12.43
-7.84
-2.59
2.42
6.26
8.22
7.94
5.58
1.68
-3.02
-7.68
-11.56
-14.07
-14.87
-13.99
-11.96
-9.59
-7.77
-7.1
-7.59
-8.76
-9.8
-9.97
-8.79
-6.11
-2.0
3.38
9.77
16.77
23.88
30.45
35.88
39.68
41.62
41.74
40.32
37.82
34.89
32.13
29.98
28.47
27.21
25.53
22.75
18.51
12.9
6.45
-0.08
-6.01
-10.83
-14.26
-16.17
-16.52
-15.4
-13.08
-10.02
-6.85
-4.17
-2.39
-1.64
-1.78
-2.52
-3.51
-4.5
-5.28
-5.75
-5.96
-6.05
-6.31
-7.08
-8.64
-11.15
-14.58
-18.68
-23.13
-27.47
-31.15
-33.69
-34.71
-34.07
-31.95
-28.78
-25.17
-21.64
-18.57
-16.03
-13.91
-12.03
-10.26
-8.59
-7.11
-5.95
-5.26
-5.2
-5.84
-7.24
-9.36
-12.0
-14.77
-17.16
-18.6
-18.69
-17.46
-15.37
-13.28
-12.08
-12.38
-14.3
-17.45
-21.15
-24.64
-27.29
-28.57
-28.11
-25.65
-21.23
-15.22
-8.35
-1.57
4.28
8.67
11.45
12.71
12.68
11.61
9.75
7.44
5.13
3.26
2.1
1.61
1.48
1.16
0.18
-1.79
-4.7
-8.21
-11.66
-14.19
-15.01
-13.49
-9.41
-3.06
4.81
13.11
20.68
26.54
30.07
31.15
30.12
27.64
24.48
21.27
18.39
15.9
13.64
11.31
8.58
5.18
0.94
-4.16
-9.89
-15.69
-20.79
-24.27
-25.38
-23.77
-19.6
-13.43
-6.17
1.24
8.0
13.47
17.21
18.97
18.78
16.97
14.12
10.92
7.96
5.52
3.55
1.74
-0.3
-2.93
-6.41
-10.88
-16.21
-21.92
-27.1
-30.59
-31.31
-28.73
-23.12
-15.41
-6.94
1.17
8.23
13.98
18.39
21.41
22.94
22.9
21.55
19.38
17.08
15.15
13.72
12.48
10.91
8.51
5.0
0.41
-5.1
-11.19
-17.4
-23.03
-27.18
-28.9
-27.54
-23.01
-15.95
-7.48
1.12
8.82
15.04
19.64
22.7
24.34
24.64
23.62
21.39
18.25
14.71
11.34
8.64
6.84
5.73
4.76
3.22
0.52
-3.63
-9.08
-15.23
-21.18
-25.92
-28.52
-28.31
-25.07
-19.01
-10.8
-1.35
8.36
17.4
25.12
31.1
35.25
37.6
38.31
37.51
35.42
32.36
28.81
25.38
22.59
20.65
19.28
17.89
15.74
12.38
7.71
1.99
-4.37
-10.99
-17.48
-23.34
-27.78
-29.9
-28.95
-24.74
-17.83
-9.43
-0.93
6.5
12.27
16.32
18.87
20.17
20.32
19.38
17.45
14.86
12.04
9.55
7.83
7.05
7.19
7.95
8.87
9.49
9.37
8.27
6.15
3.22
-0.15
-3.43
-6.03
-7.32
-6.78
-4.14
0.45
6.35
12.63
18.32
22.71
25.51
26.83
26.94
26.08
24.37
21.87
18.74
15.27
11.93
9.12
7.05
5.58
4.32
2.77
0.52
-2.59
-6.48
-10.89
-15.49
-20.04
-24.27
-27.85
-30.25
-30.86
-29.1
-24.82
-18.46
-11.02
-3.78
2.16
6.28
8.7
9.94
10.55
10.77
10.55
9.69
8.13
6.08
3.9
1.93
0.33
-0.91
-1.94
-2.93
-4.0
-5.35
-7.18
-9.69
-12.95
-16.64
-20.06
-22.2
-22.13
-19.37
-14.13
-7.24
0.12
6.82
12.14
15.9
18.29
19.61
20.02
19.43
17.68
14.75
10.97
6.91
3.27
0.55
-1.16
-2.16
-3.03
-4.36
-6.56
-9.73
-13.76
-18.36
-23.22
-28.01
-32.37
-35.86
-37.99
-38.41
-36.92
-33.69
-29.16
-23.89
-18.45
-13.27
-8.7
-4.97
-2.31
-0.85
-0.58
-1.31
-2.71
-4.42
-6.2
-7.88
-9.36
-10.54
-11.33
-11.75
-11.95
-12.16
-12.67
-13.57
-14.85
-16.31
-17.68
-18.71
-19.2
-19.0
-17.94
-15.82
-12.47
-7.83
-2.06
4.43
11.04
17.13
22.15
25.81
28.08
29.14
29.3
28.88
28.14
27.29
26.48
25.77
25.18
24.64
24.07
23.4
22.54
21.37
19.74
17.48
14.49
10.82
6.69
2.51
-1.21
-3.86
-4.9
-4.0
-1.17
3.14
8.18
13.04
17.01
19.7
21.07
21.3
20.61
19.15
17.0
14.34
11.45
8.68
6.25
4.21
2.41
0.6
-1.39
-3.62
-6.04
-8.69
-11.65
-15.06
-18.94
-22.96
-26.47
-28.55
-28.43
-25.77
-20.98
-15.1
-9.53
-5.55
-3.98
-4.92
-7.87
-12.0
-16.48
-20.79
-24.76
-28.55
-32.42
-36.59
-41.21
-46.32
-51.88
-57.61
-62.93
-67.04
-69.12
-68.77
-66.38
-63.21
-61.12
-61.96
-66.95
-76.17
-88.36
-101.11
-111.35
-116.08
-113.29
-102.8
-86.49
-67.85
-50.91
-38.88
-33.42
-34.49
-40.53
-48.52
-54.03
-51.46
-35.29
-2.24
46.54
104.64
161.63
206.38
230.79
232.08
212.87
179.26
138.06
94.91
53.61
16.88
-12.77
-32.33
-38.6
-29.51
-5.77
28.04
63.9
92.72
107.69
106.97
94.01
75.48
57.66
43.96
34.4
27.33
21.61
17.5
16.04
17.47
20.31
21.8
19.33
11.72
-0.47
-15.49
-31.26
-45.84
-57.57
-65.25
-68.65
-68.88
-68.34
-69.7
-74.56
-82.27
-90.1
-94.51
-92.93
-85.03
-72.88
-59.86
-49.0
-41.67
-37.12
-33.12
-27.34
-18.7
-7.97
2.66
10.89
15.65
17.6
18.59
20.45
23.82
28.05
31.88
34.55
36.49
38.93
43.03
48.91
55.36
60.48
62.75
61.83
58.6
54.62
51.28
49.26
48.3
47.53
45.81
42.23
36.47
29.05
21.34
15.15
12.19
13.5
19.1
28.12
39.13
50.6
61.1
69.36
74.32
75.2
71.74
64.33
53.98
42.03
29.86
18.62
9.17
2.1
-2.29
-4.1
-4.03
-3.22
-3.0
-4.39
-7.75
-12.69
-18.37
-23.93
-28.92
-33.34
-37.37
-41.06
-44.13
-46.1
-46.58
-45.63
-43.82
-42.0
-40.85
-40.55
-40.77
-40.86
-40.24
-38.58
-35.75
-31.72
-26.44
-19.95
-12.52
-4.86
2.02
7.05
9.62
9.99
9.51
10.49
15.53
26.53
43.71
65.2
87.39
105.92
117.01
118.29
109.2
90.82
65.53
36.78
8.71
-14.61
-30.06
-36.54
-35.3
-29.42
-22.47
-17.11
-14.38
-13.9
-14.65
-15.63
-15.95
-14.67
-10.57
-2.41
10.55
28.05
48.77
70.76
92.02
110.92
126.32
137.3
143.04
142.67
135.39
120.67
98.45
69.48
35.49
-0.82
-36.18
-67.56
-93.07
-112.31
-126.11
-135.74
-142.17
-145.73
-146.27
-143.62
-137.73
-128.77
-116.97
-102.78
-87.08
-71.34
-57.38
-46.53
-38.87
-32.96
-26.54
-17.85
-6.93
3.92
11.05
11.21
3.23
-11.13
-27.77
-41.85
-49.75
-50.31
-44.96
-36.78
-29.12
-24.35
-23.37
-25.72
-30.1
-34.83
-38.07
-37.88
-32.35
-20.0
-0.35
25.55
55.1
84.58
110.07
128.46
138.22
139.79
135.17
127.32
119.06
112.48
108.51
107.12
107.73
109.46
111.1
110.91
106.84
97.33
82.69
65.95
52.62
48.68
57.85
79.6
109.2
139.82
165.54
183.34
193.29
197.19
196.87
193.37
187.13
178.57
168.24
156.38
142.28
124.63
102.39
76.04
47.67
20.15
-4.49
-25.96
-45.49
-64.69
-84.38
-104.18
-122.76
-138.56
-150.19
-156.63
-157.27
-152.13
-142.33
-130.35
-120.0
-115.63
-120.93
-137.68
-165.03
-199.7
-236.8
-270.94
-297.29
-312.24
-313.88
-302.1
-278.6
-246.56
-210.2
-173.81
-140.64
-112.15
-87.87
-66.2
-45.6
-25.59
-7.05
8.38
19.33
25.42
27.39
26.7
24.92
23.28
22.43
22.56
23.45
24.59
25.26
24.73
22.43
18.3
12.82
6.97
1.91
-1.46
-2.9
-2.96
-2.83
-3.78
-6.6
-11.15
-16.35
-20.45
-21.52
-18.11
-9.63
3.4
19.4
36.01
50.55
60.67
64.87
62.78
55.11
43.19
28.56
12.71
-2.9
-16.81
-27.5
-33.79
-35.31
-32.86
-28.27
-23.75
-21.03
-20.7
-22.19
-24.29
-25.86
-26.28
-25.61
-24.3
-22.92
-21.85
-21.35
-21.56
-22.57
-24.47
-27.33
-31.14
-35.9
-41.47
-47.54
-53.52
-58.58
-61.84
-62.68
-60.87
-56.61
-50.46
-43.19
-35.69
-28.86
-23.47
-19.86
-17.9
-16.99
-16.34
-15.42
-14.17
-13.02
-12.58
-13.28
-15.16
-18.04
-21.65
-25.85
-30.48
-35.11
-38.84
-40.38
-38.59
-33.05
-24.43
-14.38
-4.85
2.64
7.62
10.51
12.23
13.44
14.25
14.26
13.11
10.83
8.0
5.45
3.7
2.68
1.73
-0.05
-3.33
-8.29
-14.57
-21.32
-27.44
-31.73
-33.14
-31.01
-25.36
-16.97
-7.2
2.48
10.87
17.34
21.82
24.51
25.6
25.26
23.68
21.28
18.79
17.0
16.49
17.25
18.65
19.57
18.83
15.6
9.77
2.0
-6.32
-13.37
-17.29
-16.67
-10.94
-0.61
12.82
27.24
40.55
51.16
58.26
61.61
61.3
57.53
50.62
41.21
30.45
19.89
11.17
5.44
3.07
3.53
5.53
7.38
7.28
3.82
-3.54
-13.99
-25.27
-34.24
-38.05
-35.29
-26.69
-14.7
-2.34
8.11
15.69
20.57
23.4
24.85
25.74
27.37
31.44
39.43
51.56
66.4
81.32
93.84
102.79
108.63
112.61
115.42
116.4
113.83
106.07
92.9
75.92
58.01
42.11
30.13
22.55
18.71
17.48
17.8
18.99
20.7
22.71
24.7
26.2
26.65
25.66
23.23
19.87
16.32
13.16
10.46
7.6
3.6
-2.45
-10.9
-21.4
-32.95
-44.32
-54.25
-61.64
-65.61
-65.5
-61.06
-52.56
-40.91
-27.58
-14.25
-2.52
6.52
12.34
15.1
15.31
13.67
10.88
7.52
4.02
0.75
-1.88
-3.57
-4.14
-3.8
-3.12
-2.91
-3.89
-6.5
-10.76
-16.38
-22.91
-29.76
-36.13
-40.97
-43.02
-41.26
-35.3
-25.69
-13.85
-1.55
9.6
18.6
25.06
29.03
30.71
30.37
28.42
25.47
22.32
19.69
17.95
16.96
16.16
14.92
12.83
9.95
6.68
3.5
0.7
-1.87
-4.77
-8.76
-14.4
-21.68
-29.75
-36.94
-41.28
-41.11
-35.82
-26.14
-13.86
-1.12
10.19
19.05
25.21
29.02
31.14
32.45
33.97
36.75
41.51
48.16
55.66
62.26
66.14
66.17
62.41
55.93
48.23
40.57
33.43
26.55
19.22
10.82
1.21
-9.08
-18.98
-27.15
-32.33
-33.71
-31.05
-24.78
-15.85
-5.63
4.41
12.82
18.51
20.91
20.12
16.87
12.22
7.27
2.87
-0.51
-2.77
-4.02
-4.47
-4.4
-4.19
-4.36
-5.44
-7.79
-11.45
-16.15
-21.49
-27.14
-33.03
-39.06
-44.91
-49.73
-52.22
-51.05
-45.46
-35.71
-23.07
-9.45
3.26
13.74
21.46
26.5
29.26
30.23
29.81
28.37
26.23
23.73
21.13
18.64
16.37
14.35
12.55
10.85
9.13
7.28
5.25
3.04
0.6
-2.27
-6.04
-11.18
-17.88
-25.58
-32.91
-37.96
-39.07
-35.49
-27.79
-17.6
-6.92
2.64
10.32
16.1
20.26
23.01
24.42
24.52
23.67
22.54
21.84
21.91
22.4
22.4
20.98
17.66
12.77
7.27
2.21
-1.81
-4.89
-7.66
-10.86
-14.94
-19.92
-25.48
-31.12
-36.22
-39.93
-41.28
-39.28
-33.47
-24.18
-12.69
-0.91
9.37
17.01
21.78
24.19
25.02
24.83
23.94
22.48
20.66
18.86
17.46
16.72
16.62
16.95
17.45
18.06
18.87
20.02
21.38
22.45
22.4
20.25
15.3
7.47
-2.51
-13.19
-22.68
-29.2
-31.61
-29.69
-24.18
-16.43
-7.98
-0.05
6.57
11.56
14.88
16.63
16.98
16.14
14.39
12.05
9.46
6.82
4.32
2.04
0.04
-1.69
-3.19
-4.57
-5.99
-7.57
-9.46
-11.86
-15.02
-19.14
-24.15
-29.5
-34.13
-36.7
-36.05
-31.76
-24.34
-15.12
-5.77
2.32
8.38
12.31
14.43
15.15
14.81
13.66
11.94
10.0
8.2
6.8
5.82
5.05
4.17
2.9
1.15
-1.0
-3.4
-5.93
-8.68
-11.9
-15.87
-20.74
-26.28
-31.77
-36.08
-37.96
-36.42
-31.19
-22.86
-12.76
-2.57
6.25
12.92
17.37
20.14
21.94
23.38
24.88
26.66
28.85
31.45
34.2
36.48
37.4
36.04
31.83
24.94
16.26
7.08
-1.43
-8.69
-14.78
-20.18
-25.25
-29.77
-32.93
-33.7
-31.35
-25.95
-18.49
-10.51
-3.51
1.6
4.69
6.23
6.87
7.08
6.98
6.46
5.43
3.99
2.45
1.18
0.36
-0.13
-0.76
-2.09
-4.57
-8.33
-13.2
-18.87
-25.08
-31.72
-38.61
-45.27
-50.77
-53.82
-53.33
-48.95
-41.48
-32.59
-24.27
-18.0
-14.32
-12.92
-13.05
-14.11
-15.9
-18.5
-21.84
-25.42
-28.26
-29.27
-27.82
-24.09
-19.07
-14.15
-10.52
-8.83
-9.04
-10.7
-13.2
-15.83
-17.77
-17.97
-15.3
-9.01
0.75
12.78
25.07
35.46
42.47
45.61
45.26
42.19
37.0
29.93
21.07
10.71
-0.4
-11.08
-19.94
-25.71
-27.59
-25.43
-19.87
-12.2
-4.2
2.32
6.04
6.59
4.75
2.26
1.1
2.73
7.37
13.84
20.08
24.16
25.25
23.98
22.04
21.1
21.86
23.7
25.23
25.3
23.72
21.4
19.62
19.14
19.6
19.75
18.3
14.78
9.99
5.53
3.0
3.2
5.85
9.93
14.3
18.38
22.35
26.82
32.42
39.2
46.61
53.69
59.56
63.77
66.35
67.51
67.22
65.06
60.24
52.11
40.62
26.58
11.52
-2.86
-15.21
-25.01
-32.52
-38.51
-43.84
-49.07
-54.3
-59.2
-63.26
-65.89
-66.64
-65.16
-61.31
-55.1
-46.76
-36.74
-25.69
-14.44
-3.9
5.06
11.78
16.01
17.98
18.4
18.2
18.25
18.99
20.33
21.71
22.4
21.8
19.69
16.24
11.86
6.97
2.01
-2.51
-5.93
-7.46
-6.45
-2.75
3.0
9.52
15.28
19.19
20.91
20.84
19.71
18.09
16.1
13.58
10.48
7.13
4.25
2.61
2.55
3.75
5.35
6.41
6.32
4.98
2.69
-0.17
-3.33
-6.63
-9.79
-12.21
-13.07
-11.59
-7.48
-1.27
5.8
12.16
16.52
18.34
17.96
16.31
14.45
13.1
12.36
11.93
11.39
10.49
9.35
8.28
7.56
7.24
7.11
6.8
5.97
4.38
1.86
-1.63
-6.05
-11.09
-16.07
-20.05
-22.03
-21.36
-18.04
-12.75
-6.57
-0.66
4.11
7.25
8.66
8.48
7.04
4.8
2.34
0.25
-1.16
-1.93
-2.46
-3.28
-4.81
-7.17
-10.2
-13.65
-17.29
-20.98
-24.47
-27.3
-28.74
-28.05
-24.85
-19.36
-12.45
-5.33
0.85
5.39
8.14
9.35
9.45
8.87
7.87
6.63
5.21
3.63
1.82
-0.3
-2.75
-5.43
-8.07
-10.37
-12.13
-13.33
-14.25
-15.3
-16.89
-19.23
-22.12
-24.94
-26.79
-26.7
-24.0
-18.52
-10.73
-1.62
7.62
15.9
22.51
27.22
30.12
31.49
31.51
30.3
27.92
24.56
20.61
16.66
13.26
10.71
8.86
7.21
5.08
1.95
-2.35
-7.6
-13.34
-18.98
-23.96
-27.72
-29.77
-29.71
-27.28
-22.48
-15.56
-7.11
2.03
10.83
18.17
23.18
25.41
25.0
22.6
19.21
15.84
13.34
12.31
13.11
15.79
19.93
24.63
28.61
30.64
30.08
27.11
22.66
17.82
13.32
9.29
5.49
1.71
-1.85
-4.6
-5.91
-5.48
-3.58
-0.89
1.72
3.51
3.92
2.61
-0.53
-5.23
-10.91
-16.65
-21.55
-25.08
-27.21
-28.35
-29.05
-29.63
-30.16
-30.57
-30.88
-31.33
-32.22
-33.52
-34.65
-34.39
-31.3
-24.32
-13.41
0.3
14.8
27.78
37.43
42.8
43.9
41.45
36.5
30.19
23.55
17.44
12.52
9.11
7.17
6.25
5.69
4.73
2.76
-0.57
-5.32
-11.2
-17.72
-24.28
-30.38
-35.76
-40.36
-44.07
-46.65
-47.53
-46.12
-42.19
-36.24
-29.55
-23.85
-20.66
-20.77
-23.88
-28.81
-33.93
-37.74
-39.38
-38.82
-36.76
-34.2
-31.86
-29.81
-27.36
-23.33
-16.77
-7.37
4.27
16.92
29.28
40.46
50.2
58.76
66.66
74.34
81.96
89.34
95.91
100.82
103.03
101.51
95.22
83.35
65.61
42.67
16.49
-9.71
-32.29
-48.38
-56.91
-58.88
-56.56
-52.08
-46.38
-38.97
-28.83
-15.74
-1.04
12.57
22.18
26.15
24.8
20.29
15.57
13.12
14.01
17.75
22.79
27.48
30.8
32.57
32.9
31.4
26.73
17.06
1.29
-19.74
-42.96
-64.04
-79.39
-87.86
-91.1
-92.41
-94.76
-99.13
-104.34
-108.23
-109.33
-107.89
-105.54
-103.91
-103.31
-102.35
-98.82
-90.95
-78.41
-62.16
-43.62
-23.88
-3.2
18.6
41.57
65.05
87.57
107.27
122.55
132.47
136.76
135.62
129.52
119.21
105.82
90.92
76.4
64.03
55.06
49.84
47.69
47.13
46.44
44.03
39.02
31.58
23.18
16.48
14.95
21.92
39.15
65.81
97.95
129.23
152.84
163.85
161.15
147.77
129.64
113.01
101.95
96.83
94.68
90.49
79.23
57.81
26.4
-10.96
-47.18
-74.3
-86.63
-83.57
-70.31
-55.82
-48.52
-52.46
-65.73
-82.29
-95.76
-102.9
-104.29
-102.6
-99.98
-96.29
-89.75
-79.01
-64.67
-49.5
-36.99
-29.47
-27.08
-27.72
-28.1
-24.92
-15.84
-0.17
20.73
43.54
63.71
77.12
81.92
79.65
74.99
73.57
79.4
92.91
110.98
128.97
143.49
154.16
163.28
173.7
186.4
199.0
206.57
203.81
187.48
157.63
117.48
71.95
26.28
-15.36
-50.64
-79.41
-103.73
-127.4
-154.84
-189.56
-232.34
-280.2
-326.88
-364.41
-385.65
-386.69
-368.03
-334.31
-292.47
-249.36
-209.89
-176.22
-148.22
-124.65
-104.38
-86.89
-72.04
-59.51
-48.63
-38.54
-28.7
-19.39
-11.56
-6.33
-4.09
-4.03
-4.33
-3.05
0.89
7.14
14.01
19.35
21.48
19.87
15.12
8.46
1.13
-6.02
-12.51
-18.0
-22.04
-24.04
-23.45
-20.13
-14.47
-7.38
0.06
7.0
13.06
18.24
22.7
26.44
29.16
30.49
30.34
29.25
28.31
28.69
31.01
34.86
38.87
41.2
40.25
35.18
26.22
14.48
1.67
-10.22
-19.25
-23.77
-22.76
-16.11
-4.82
9.18
23.56
36.33
46.4
53.78
59.1
62.67
63.9
61.27
53.24
39.6
22.29
5.19
-7.18
-11.28
-5.92
7.45
25.06
41.91
53.04
54.9
46.55
30.34
11.35
-4.27
-11.67
-9.19
1.3
15.86
30.75
44.0
55.44
65.36
72.99
76.23
72.79
62.02
45.98
29.09
16.43
11.91
17.06
31.06
51.67
76.01
101.16
123.91
140.58
146.97
138.7
112.48
67.73
7.83
-59.63
-124.47
-176.48
-208.26
-216.41
-201.45
-166.84
-118.31
-64.08
-14.54
19.84
32.28
23.15
0.34
-24.12
-40.09
-44.17
-40.56
-37.43
-41.59
-55.22
-76.26
-101.22
-127.83
-154.97
-180.9
-202.0
-213.94
-214.73
-207.04
-197.25
-191.73
-192.58
-196.35
-196.24
-186.44
-164.89
-133.37
-95.08
-52.17
-5.39
44.17
93.08
135.44
165.3
179.67
180.49
173.69
166.21
162.89
164.99
171.08
178.57
185.23
189.51
190.13
186.09
177.34
166.03
156.53
153.94
161.39
177.68
196.69
209.23
206.66
184.27
142.78
87.57
26.15
-34.13
-87.23
-128.2
-152.68
-157.24
-140.89
-106.82
-62.78
-19.32
13.71
30.71
31.99
22.79
10.31
0.21
-5.36
-7.66
-9.51
-13.15
-19.04
-25.95
-31.95
-35.68
-36.86
-36.1
-34.13
-31.29
-27.3
-21.71
-14.39
-5.93
2.41
9.22
13.48
15.07
14.71
13.71
13.31
14.22
16.32
18.81
20.45
20.14
17.3
12.09
5.21
-2.39
-9.85
-16.64
-22.38
-26.67
-28.87
-28.27
-24.34
-17.19
-7.67
2.8
12.7
20.87
26.8
30.57
32.58
33.27
32.97
31.95
30.52
29.02
27.76
26.85
26.08
24.99
23.1
20.09
16.0
11.21
6.25
1.51
-2.9
-7.24
-11.89
-17.06
-22.47
-27.3
-30.35
-30.49
-27.09
-20.29
-11.06
-0.8
9.08
17.5
23.9
28.23
30.68
31.59
31.25
29.99
28.11
25.89
23.57
21.31
19.12
16.92
14.59
11.97
8.97
5.6
1.96
-1.81
-5.68
-9.8
-14.43
-19.73
-25.51
-30.98
-34.97
-36.2
-33.89
-28.12
-19.83
-10.51
-1.62
5.81
11.37
15.14
17.45
18.61
18.94
18.64
18.01
17.25
16.49
15.65
14.47
12.63
9.92
6.37
2.25
-2.01
-5.95
-9.26
-11.9
-14.15
-16.49
-19.39
-23.02
-27.0
-30.39
-31.99
-30.79
-26.38
-19.2
-10.38
-1.28
6.87
13.41
18.15
21.24
22.95
23.49
23.11
22.17
21.16
20.52
20.55
21.16
21.95
22.31
21.75
20.05
17.32
13.95
10.33
6.75
3.21
-0.44
-4.46
-9.13
-14.59
-20.72
-27.03
-32.64
-36.49
-37.53
-35.19
-29.6
-21.61
-12.51
-3.66
3.9
9.63
13.44
15.49
16.04
15.41
13.98
12.25
10.76
9.98
10.09
10.88
11.81
12.21
11.56
9.73
6.97
3.81
0.78
-1.83
-4.1
-6.38
-9.17
-12.84
-17.53
-22.97
-28.47
-33.02
-35.49
-34.98
-31.12
-24.28
-15.49
-6.13
2.47
9.34
14.05
16.61
17.3
16.6
15.06
13.27
11.81
11.05
11.12
11.76
12.47
12.67
11.97
10.3
7.89
5.17
2.5
0.08
-2.23
-4.77
-7.97
-12.08
-17.02
-22.2
-26.59
-29.02
-28.54
-24.79
-18.21
-9.97
-1.57
5.6
10.7
13.5
14.34
13.76
12.3
10.36
8.23
6.18
4.51
3.44
3.04
3.16
3.5
3.68
3.45
2.71
1.5
-0.12
-2.2
-4.93
-8.51
-12.94
-17.84
-22.38
-25.5
-26.21
-23.99
-19.04
-12.24
-4.86
1.84
6.94
10.0
11.05
10.43
8.6
6.08
3.35
0.81
-1.28
-2.79
-3.77
-4.33
-4.66
-4.93
-5.31
-5.94
-6.93
-8.37
-10.3
-12.76
-15.69
-18.93
-22.13
-24.74
-26.06
-25.47
-22.66
-17.8
-11.55
-4.88
1.22
6.01
9.07
10.41
10.22
8.88
6.76
4.26
1.77
-0.42
-2.05
-3.02
-3.34
-3.15
-2.65
-2.13
-1.84
-2.02
-2.91
-4.65
-7.32
-10.79
-14.62
-18.1
-20.34
-20.58
-18.49
-14.3
-8.79
-2.99
2.15
5.99
8.29
9.11
8.64
7.11
4.77
1.99
-0.74
-2.93
-4.19
-4.45
-3.94
-3.14
-2.6
-2.72
-3.74
-5.72
-8.61
-12.25
-16.31
-20.22
-23.2
-24.46
-23.46
-20.17
-15.1
-9.15
-3.27
1.76
5.53
7.94
9.02
8.88
7.65
5.56
2.94
0.26
-2.06
-3.76
-4.82
-5.43
-5.94
-6.7
-8.04
-10.16
-13.18
-16.98
-21.17
-25.0
-27.54
-27.9
-25.63
-20.93
-14.6
-7.81
-1.71
2.98
6.05
7.65
8.09
7.64
6.49
4.83
2.95
1.26
0.14
-0.19
0.21
1.0
1.67
1.74
0.84
-1.26
-4.58
-8.91
-13.73
-18.22
-21.34
-22.14
-20.12
-15.44
-8.93
-1.83
4.73
10.03
13.83
16.29
17.59
17.79
16.83
14.71
11.68
8.25
5.05
2.56
0.9
-0.13
-1.0
-2.16
-3.94
-6.5
-9.88
-13.9
-18.2
-22.05
-24.59
-24.97
-22.75
-18.09
-11.78
-4.93
1.42
6.56
10.24
12.53
13.61
13.66
12.78
11.18
9.11
6.97
5.16
3.92
3.32
3.18
3.15
2.86
2.0
0.35
-2.14
-5.4
-9.12
-12.78
-15.58
-16.75
-15.65
-12.18
-6.76
-0.26
6.28
11.99
16.39
19.36
21.0
21.43
20.76
19.15
16.89
14.41
12.17
10.5
9.46
8.83
8.22
7.2
5.47
2.86
-0.65
-4.99
-9.84
-14.66
-18.56
-20.64
-20.18
-17.05
-11.77
-5.34
1.07
6.58
10.72
13.41
14.7
14.63
13.16
10.38
6.68
2.79
-0.46
-2.47
-3.07
-2.64
-1.87
-1.46
-1.96
-3.65
-6.64
-10.81
-15.83
-21.07
-25.62
-28.42
-28.59
-25.79
-20.28
-12.95
-4.92
2.72
9.23
14.23
17.65
19.57
20.11
19.43
17.75
15.39
12.78
10.37
8.49
7.28
6.62
6.15
5.42
3.95
1.38
-2.48
-7.53
-13.41
-19.38
-24.43
-27.44
-27.53
-24.37
-18.37
-10.57
-2.35
5.08
10.96
15.11
17.75
19.22
19.79
19.6
18.78
17.57
16.29
15.29
14.77
14.69
14.78
14.71
14.2
13.11
11.4
8.98
5.67
1.29
-4.14
-10.08
-15.51
-19.09
-19.67
-16.77
-10.77
-2.81
5.66
13.36
19.53
23.95
26.76
28.16
28.31
27.33
25.45
23.06
20.59
18.42
16.67
15.2
13.69
11.85
9.49
6.6
3.28
-0.36
-4.3
-8.56
-13.13
-17.86
-22.31
-25.8
-27.53
-26.78
-23.21
-16.98
-8.75
0.46
9.6
17.76
24.34
29.01
31.67
32.34
31.24
28.74
25.34
21.61
18.03
14.86
12.2
9.97
8.09
6.5
5.25
4.38
3.9
3.66
3.36
2.53
0.73
-2.41
-6.87
-12.22
-17.58
-21.83
-23.87
-23.0
-19.2
-13.12
-5.88
1.28
7.39
11.94
14.85
16.35
16.72
16.17
14.88
13.06
11.07
9.36
8.3
8.06
8.52
9.34
10.1
10.42
10.13
9.21
7.76
5.94
3.87
1.57
-0.99
-3.9
-7.26
-11.11
-15.27
-19.3
-22.49
-24.07
-23.4
-20.27
-14.99
-8.3
-1.17
5.51
11.11
15.23
17.76
18.71
18.2
16.55
14.24
11.86
9.95
8.85
8.55
8.82
9.25
9.51
9.39
8.82
7.8
6.41
4.74
2.9
1.06
-0.71
-2.47
-4.49
-7.12
-10.62
-14.82
-19.04
-22.23
-23.33
-21.71
-17.43
-11.29
-4.46
1.87
6.89
10.28
12.11
12.66
12.24
11.11
9.55
7.86
6.35
5.31
4.89
4.99
5.36
5.62
5.42
4.63
3.32
1.73
0.12
-1.38
-2.86
-4.59
-6.93
-10.12
-14.12
-18.55
-22.74
-25.83
-27.02
-25.86
-22.34
-16.95
-10.52
-4.01
1.78
6.32
9.45
11.22
11.84
11.61
10.84
9.86
9.02
8.55
8.53
8.84
9.21
9.33
9.0
8.16
6.92
5.46
3.9
2.28
0.55
-1.4
-3.7
-6.46
-9.65
-13.09
-16.39
-18.95
-20.11
-19.32
-16.4
-11.64
-5.73
0.41
5.94
10.22
12.93
14.02
13.6
11.95
9.49
6.74
4.26
2.48
1.58
1.41
1.61
1.77
1.61
1.08
0.27
-0.66
-1.63
-2.64
-3.7
-4.9
-6.36
-8.24
-10.7
-13.74
-17.02
-19.86
-21.35
-20.71
-17.63
-12.46
-6.1
0.31
5.84
9.99
12.72
14.26
14.91
14.85
14.22
13.16
11.92
10.77
9.96
9.53
9.36
9.22
8.88
8.3
7.52
6.61
5.59
4.33
2.62
0.29
-2.72
-6.28
-10.02
-13.41
-15.79
-16.55
-15.32
-12.05
-7.18
-1.5
4.03
8.56
11.58
13.01
13.07
12.14
10.63
8.86
7.11
5.59
4.48
3.84
3.6
3.56
3.46
3.07
2.33
1.29
0.1
-1.21
-2.76
-4.8
-7.56
-11.05
-14.86
-18.18
-20.07
-19.78
-17.12
-12.56
-7.08
-1.82
2.34
4.98
6.19
6.39
6.01
5.36
4.54
3.59
2.55
1.6
0.99
0.86
1.25
1.9
2.39
2.31
1.44
-0.22
-2.41
-4.9
-7.54
-10.28
-13.02
-15.46
-17.06
-17.18
-15.39
-11.73
-6.74
-1.27
3.8
7.89
10.76
12.47
13.17
13.03
12.21
10.94
9.5
8.23
7.36
6.94
6.73
6.31
5.21
3.11
-0.05
-4.05
-8.48
-12.93
-17.03
-20.57
-23.41
-25.33
-26.09
-25.38
-22.98
-18.87
-13.35
-6.97
-0.43
5.56
10.44
13.85
15.69
16.01
15.08
13.21
10.73
8.05
5.55
3.59
2.44
2.23
2.81
3.88
4.98
5.6
5.35
3.97
1.47
-1.93
-5.78
-9.49
-12.4
-13.95
-13.75
-11.77
-8.29
-3.86
0.81
4.99
8.17
10.09
10.82
10.67
10.02
9.23
8.49
7.85
7.25
6.64
5.97
5.28
4.62
4.03
3.48
2.85
1.93
0.51
-1.58
-4.34
-7.5
-10.55
-12.84
-13.7
-12.72
-9.87
-5.53
-0.43
4.58
8.78
11.71
13.26
13.54
12.83
11.4
9.56
7.61
5.83
4.46
3.62
3.26
3.22
3.24
3.08
2.54
1.53
-0.02
-2.12
-4.8
-8.01
-11.58
-15.16
-18.16
-19.94
-19.9
-17.76
-13.67
-8.23
-2.31
3.21
7.66
10.77
12.59
13.37
13.39
12.85
11.91
10.68
9.31
7.93
6.7
5.64
4.74
3.87
2.93
1.8
0.43
-1.21
-3.2
-5.57
-8.4
-11.6
-14.89
-17.73
-19.44
-19.4
-17.25
-13.11
-7.53
-1.42
4.3
8.92
12.1
13.89
14.58
14.5
13.95
13.14
12.17
11.15
10.19
9.37
8.73
8.22
7.73
7.11
6.26
5.1
3.64
1.88
-0.2
-2.65
-5.53
-8.77
-12.15
-15.19
-17.23
-17.67
-16.14
-12.69
-7.81
-2.23
3.32
8.29
12.37
15.4
17.33
18.09
17.72
16.47
14.76
13.07
11.8
11.1
10.84
10.75
10.5
9.87
8.8
7.36
5.65
3.81
1.9
-0.02
-1.98
-4.03
-6.28
-8.82
-11.69
-14.74
-17.58
-19.61
-20.23
-19.05
-16.05
-11.71
-6.79
-2.06
1.93
5.02
7.34
9.11
10.46
11.34
11.58
11.11
10.01
8.65
7.52
7.02
7.29
8.13
9.11
9.77
9.79
9.16
8.08
6.83
5.64
4.58
3.62
2.64
1.55
0.28
-1.26
-3.16
-5.45
-7.97
-10.33
-11.95
-12.25
-10.88
-7.93
-3.89
0.51
4.58
7.88
10.3
11.9
12.82
13.13
12.82
11.94
10.64
9.2
7.94
7.12
6.78
6.78
6.83
6.63
5.96
4.82
3.31
1.64
-0.03
-1.6
-3.1
-4.64
-6.41
-8.56
-11.19
-14.23
-17.42
-20.28
-22.27
-22.86
-21.77
-19.03
-15.0
-10.27
-5.48
-1.22
2.1
4.22
5.09
4.84
3.75
2.25
0.78
-0.31
-0.82
-0.85
-0.68
-0.71
-1.26
-2.44
-4.06
-5.65
-6.65
-6.57
-5.15
-2.5
0.93
4.48
7.45
9.4
10.24
10.31
10.31
11.05
13.25
17.19
22.51
28.18
32.68
34.5
32.58
26.77
17.87
7.37
-3.01
-11.82
-18.14
-21.6
-22.22
-20.23
-16.06
-10.38
-4.16
1.48
5.57
7.58
7.63
6.26
4.23
2.09
0.02
-2.12
-4.54
-7.31
-10.13
-12.42
-13.56
-13.22
-11.54
-9.19
-7.13
-6.11
-6.46
-7.78
-9.25
-9.91
-9.14
-6.71
-2.8
2.22
7.93
13.8
19.13
23.07
24.75
23.71
20.08
14.62
8.4
2.43
-2.69
-6.77
-9.85
-11.86
-12.6
-11.78
-9.26
-5.27
-0.43
4.39
8.36
10.78
11.16
9.21
4.89
-1.5
-9.15
-16.84
-23.11
-26.75
-27.14
-24.49
-19.6
-13.57
-7.36
-1.58
3.45
7.63
10.87
13.05
14.07
13.89
12.58
10.32
7.38
4.16
1.12
-1.35
-2.94
-3.58
-3.36
-2.45
-0.95
1.13
3.76
6.68
9.21
10.42
9.47
6.15
1.07
-4.44
-8.89
-11.31
-11.65
-10.66
-9.35
-8.32
-7.53
-6.46
-4.73
-2.55
-0.76
-0.44
-2.19
-5.8
-10.24
-14.2
-16.73
-17.63
-17.44
-16.97
-16.85
-17.15
-17.45
-17.1
-15.7
-13.36
-10.66
-8.45
-7.39
-7.57
-8.5
-9.25
-8.95
-7.14
-4.02
-0.28
3.22
5.85
7.38
7.99
8.01
7.73
7.27
6.64
5.88
5.15
4.7
4.83
5.64
7.0
8.64
10.3
11.81
13.15
14.33
15.24
15.62
15.2
13.82
11.65
9.13
6.9
5.49
5.16
5.76
6.9
8.1
9.05
9.67
10.1
10.54
11.15
11.92
12.67
13.11
13.06
12.52
11.78
11.24
11.3
12.09
13.47
14.93
15.88
15.8
14.42
11.82
8.33
4.43
0.61
-2.65
-4.86
-5.61
-4.63
-1.97
1.84
5.87
9.05
10.6
10.36
8.84
7.04
5.94
6.12
7.56
9.76
12.04
13.82
14.81
14.94
14.32
13.06
11.31
9.32
7.43
6.07
5.6
6.22
7.84
10.06
12.29
13.85
14.26
13.39
11.52
9.24
7.24
6.09
5.99
6.78
7.93
8.78
8.7
7.27
4.43
0.49
-3.9
-7.96
-10.97
-12.47
-12.39
-11.0
-8.87
-6.63
-4.9
-4.14
-4.58
-6.19
-8.68
-11.6
-14.49
-16.97
-18.92
-20.39
-21.54
-22.45
-23.05
-23.07
-22.12
-19.81
-15.91
-10.5
-4.05
2.55
8.11
11.39
11.55
8.38
2.45
-5.06
-12.82
-19.76
-25.34
-29.55
-32.73
-35.22
-37.25
-38.88
-40.16
-41.19
-42.03
-42.63
-42.76
-42.04
-40.11
-36.93
-32.8
-28.34
-24.12
-20.37
-16.85
-13.0
-8.19
-2.22
4.61
11.47
17.26
21.01
22.07
20.35
16.2
10.4
3.99
-1.92
-6.37
-8.92
-9.66
-9.19
-8.38
-8.05
-8.67
-10.38
-13.05
-16.35
-19.79
-22.68
-24.14
-23.3
-19.59
-13.05
-4.49
4.71
13.07
19.47
23.46
25.24
25.39
24.48
22.92
20.87
18.45
15.78
13.11
10.66
8.56
6.77
5.12
3.39
1.38
-0.97
-3.62
-6.35
-8.78
-10.4
-10.76
-9.56
-6.91
-3.34
0.31
3.26
5.01
5.63
5.63
5.67
6.26
7.49
9.05
10.46
11.35
11.64
11.51
11.25
10.99
10.64
9.88
8.35
5.79
2.13
-2.51
-7.84
-13.39
-18.53
-22.52
-24.64
-24.45
-21.88
-17.33
-11.51
-5.19
0.97
6.46
10.91
13.99
15.48
15.35
13.93
11.85
9.87
8.66
8.55
9.48
11.11
13.0
14.74
15.98
16.39
15.62
13.45
9.88
5.41
1.05
-1.93
-2.42
0.12
5.42
12.5
20.11
27.19
33.11
37.78
41.32
43.83
45.28
45.58
44.86
43.46
41.84
40.18
38.09
34.55
28.15
17.61
2.42
-16.82
-38.26
-59.28
-77.08
-89.41
-94.95
-93.5
-85.78
-73.28
-58.08
-42.81
-30.36
-23.35
-23.24
-29.66
-40.06
-50.32
-55.99
-53.76
-42.58
-23.79
-0.45
23.85
45.98
63.75
75.9
81.69
80.8
73.41
60.51
44.17
27.25
12.77
3.03
-1.05
-0.16
3.93
9.05
13.48
16.27
17.23
16.62
14.7
11.64
7.5
2.46
-3.09
-8.53
-13.2
-16.67
-18.88
-20.18
-21.14
-22.35
-24.09
-26.27
-28.4
-29.75
-29.63
-27.63
-23.73
-18.31
-11.95
-5.22
1.51
8.12
14.68
21.33
28.15
35.05
41.74
47.84
52.94
56.83
59.68
62.03
64.71
68.41
73.34
79.06
84.62
89.04
91.77
92.92
93.06
92.79
92.28
91.0
87.89
81.66
71.24
56.11
36.51
13.56
-10.93
-34.76
-55.86
-72.78
-85.1
-93.33
-98.52
-101.65
-103.2
-102.95
-100.33
-94.86
-86.65
-76.57
-66.1
-56.93
-50.37
-46.9
-45.95
-46.12
-45.67
-43.12
-37.83
-30.23
-21.73
-14.18
-9.28
-7.92
-9.85
-13.8
-17.97
-20.72
-21.16
-19.44
-16.51
-13.7
-12.1
-12.22
-14.04
-17.21
-21.32
-26.07
-31.12
-35.96
-39.8
-41.74
-41.1
-37.8
-32.47
-26.28
-20.49
-15.9
-12.59
-10.01
-7.4
-4.23
-0.52
3.23
6.42
8.74
10.41
12.08
14.46
17.98
22.54
27.58
32.34
36.19
38.8
40.12
40.31
39.63
38.36
36.91
35.7
34.97
34.53
33.64
31.2
26.23
18.41
8.33
-2.65
-13.04
-21.89
-29.14
-35.49
-41.77
-48.35
-54.83
-60.2
-63.36
-63.64
-61.0
-56.05
-49.75
-43.14
-37.17
-32.65
-30.23
-30.28
-32.81
-37.26
-42.53
-47.2
-49.79
-49.29
-45.42
-38.78
-30.58
-22.25
-14.92
-9.09
-4.6
-0.86
2.73
6.52
10.43
14.1
17.12
19.17
20.15
20.21
19.69
19.15
19.19
20.36
22.95
26.88
31.73
36.9
41.89
46.44
50.57
54.42
58.03
61.27
63.97
66.01
67.49
68.75
70.22
72.21
74.84
77.95
81.24
84.39
87.12
89.3
90.86
91.78
92.11
91.91
91.27
90.32
89.21
88.05
86.89
85.66
84.12
81.93
78.68
73.98
67.59
59.53
50.07
39.74
29.1
18.54
8.06
-2.88
-15.11
-29.4
-45.99
-64.21
-82.52
-98.85
-111.13
-117.88
-118.52
-113.32
-103.27
-89.82
-74.73
-59.9
-47.21
-38.23
-33.84
-33.98
-37.69
-43.3
-48.92
-52.89
-54.16
-52.49
-48.49
-43.41
-38.84
-36.17
-36.22
-38.98
-43.68
-49.1
-54.08
-57.8
-59.99
-60.82
-60.72
-60.16
-59.44
-58.61
-57.46
-55.69
-53.04
-49.47
-45.28
-40.96
-36.98
-33.54
-30.49
-27.43
-24.04
-20.3
-16.49
-13.11
-10.49
-8.68
-7.35
-6.08
-4.56
-2.74
-0.79
1.06
2.71
4.23
5.77
7.5
9.41
11.4
13.27
14.88
16.14
17.06
17.67
18.02
18.17
18.13
17.88
17.35
16.51
15.4
14.16
12.98
12.02
11.31
10.73
10.16
9.52
8.79
7.98
6.9
5.14
2.11
-2.73
-9.57
-18.06
-27.31
-36.04
-42.88
-46.71
-47.0
-43.92
-38.52
-32.35
-26.96
-23.06
-20.01
-15.95
-8.61
3.28
19.02
35.83
49.9
57.95
58.46
51.96
40.34
25.9
10.88
-2.6
-12.33
-16.35
-13.69
-5.32
5.94
16.56
24.17
28.81
32.67
38.33
46.7
55.94
62.32
62.26
54.35
40.08
22.87
6.27
-7.64
-18.57
-27.35
-34.7
-40.52
-43.98
-44.17
-40.9
-34.93
-27.67
-20.6
-14.75
-10.5
-7.7
-5.95
-4.96
-4.69
-5.31
-7.11
-10.24
-14.44
-18.98
-22.74
-24.48
-23.23
-18.67
-11.25
-2.12
7.25
15.46
21.6
25.45
27.36
27.98
27.9
27.3
26.01
23.62
19.86
14.9
9.44
4.51
1.11
-0.27
0.2
1.76
3.42
4.39
4.43
3.8
3.0
2.43
2.11
1.69
0.7
-1.18
-3.94
-7.23
-10.56
-13.48
-15.63
-16.81
-16.83
-15.63
-13.24
-9.84
-5.73
-1.23
3.37
7.87
12.09
15.79
18.7
20.56
21.24
20.88
19.79
18.43
17.13
16.07
15.23
14.48
13.77
13.13
12.66
12.45
12.42
12.35
11.94
10.93
9.24
6.96
4.35
1.69
-0.74
-2.71
-4.1
-4.9
-5.31
-5.69
-6.45
-7.87
-9.91
-12.11
-13.74
-14.11
-12.81
-9.9
-5.82
-1.22
3.33
7.43
10.91
13.7
15.76
17.09
17.76
17.96
17.97
18.04
18.33
18.82
19.33
19.67
19.75
19.56
19.23
18.8
18.24
17.38
16.06
14.25
12.22
10.36
9.07
8.5
8.5
8.66
8.53
7.86
6.62
5.02
3.35
1.9
0.96
0.85
1.86
4.2
7.91
12.73
18.18
23.65
28.55
32.46
35.08
36.26
35.94
34.19
31.22
27.4
23.22
19.13
15.53
12.55
10.23
8.45
7.09
6.03
5.15
4.33
3.43
2.29
0.79
-1.14
-3.44
-5.96
-8.51
-10.93
-13.19
-15.41
-17.82
-20.64
-23.86
-27.18
-30.01
-31.74
-31.95
-30.72
-28.54
-26.09
-23.92
-22.26
-21.0
-19.88
-18.75
-17.65
-16.78
-16.27
-16.09
-15.99
-15.74
-15.21
-14.5
-13.81
-13.3
-12.95
-12.57
-11.95
-11.03
-9.99
-9.16
-8.86
-9.2
-10.01
-10.92
-11.56
-11.74
-11.55
-11.3
-11.27
-11.54
-11.91
-11.95
-11.2
-9.43
-6.68
-3.28
0.36
3.86
6.99
9.68
11.93
13.77
15.2
16.18
16.69
16.71
16.23
15.28
13.92
12.25
10.42
8.6
6.96
5.64
4.75
4.28
4.14
4.16
4.15
3.96
3.51
2.78
1.8
0.53
-1.03
-2.83
-4.68
-6.2
-6.92
-6.47
-4.72
-1.83
1.82
5.81
9.81
13.65
17.24
20.46
23.14
25.12
26.28
26.7
26.65
26.44
26.34
26.47
26.76
27.05
27.16
26.98
26.5
25.81
25.03
24.29
23.65
23.06
22.38
21.44
20.05
18.08
15.52
12.46
9.12
5.83
2.97
0.95
0.12
0.61
2.28
4.72
7.36
9.66
11.25
12.07
12.23
11.94
11.33
10.38
8.97
7.02
4.62
2.06
-0.26
-1.95
-2.86
-3.08
-2.95
-2.84
-3.09
-3.84
-5.07
-6.62
-8.34
-10.11
-11.9
-13.69
-15.45
-17.04
-18.27
-18.96
-19.0
-18.39
-17.24
-15.7
-13.91
-12.03
-10.23
-8.72
-7.69
-7.22
-7.25
-7.52
-7.74
-7.66
-7.21
-6.47
-5.64
-4.92
-4.47
-4.38
-4.66
-5.29
-6.14
-7.06
-7.94
-8.74
-9.55
-10.5
-11.71
-13.19
-14.82
-16.49
-18.03
-19.31
-20.17
-20.39
-19.74
-18.1
-15.56
-12.42
-9.17
-6.28
-4.04
-2.5
-1.46
-0.67
0.12
0.99
1.85
2.52
2.83
2.72
2.3
1.78
1.37
1.16
1.08
0.91
0.46
-0.35
-1.43
-2.6
-3.74
-4.82
-5.98
-7.36
-9.02
-10.84
-12.56
-13.87
-14.52
-14.41
-13.55
-12.04
-10.02
-7.62
-4.99
-2.3
0.25
2.51
4.4
5.93
7.15
8.1
8.78
9.09
8.94
8.3
7.24
5.95
4.66
3.57
2.76
2.19
1.7
1.15
0.46
-0.35
-1.13
-1.77
-2.22
-2.58
-3.11
-4.08
-5.66
-7.79
-10.18
-12.35
-13.78
-14.09
-13.14
-11.05
-8.14
-4.83
-1.54
1.45
3.97
6.02
7.64
8.93
9.96
10.79
11.45
11.97
12.38
12.73
13.04
13.31
13.51
13.55
13.42
13.12
12.75
12.48
12.39
12.47
12.55
12.35
11.63
10.26
8.31
6.03
3.8
2.02
1.04
1.14
2.38
4.6
7.42
10.34
12.86
14.66
15.66
16.0
15.94
15.72
15.49
15.33
15.23
15.15
14.99
14.56
13.71
12.32
10.45
8.35
6.37
4.81
3.78
3.13
2.54
1.65
0.22
-1.8
-4.34
-7.19
-10.12
-12.88
-15.2
-16.78
-17.39
-16.91
-15.42
-13.16
-10.52
-7.86
-5.48
-3.59
-2.31
-1.72
-1.82
-2.5
-3.56
-4.72
-5.68
-6.29
-6.53
-6.56
-6.57
-6.72
-7.04
-7.47
-7.94
-8.44
-9.06
-9.91
-11.02
-12.35
-13.75
-15.14
-16.53
-18.01
-19.66
-21.36
-22.79
-23.45
-22.93
-21.07
-18.1
-14.53
-10.94
-7.76
-5.18
-3.16
-1.55
-0.28
0.65
1.15
1.17
0.79
0.16
-0.56
-1.22
-1.76
-2.22
-2.61
-2.9
-3.06
-3.04
-2.9
-2.79
-2.95
-3.6
-4.87
-6.7
-8.85
-10.95
-12.57
-13.35
-13.11
-11.87
-9.82
-7.23
-4.41
-1.61
0.94
3.09
4.73
5.81
6.4
6.66
6.81
6.97
7.17
7.26
7.06
6.48
5.6
4.71
4.08
3.85
3.87
3.81
3.33
2.26
0.72
-0.99
-2.57
-3.9
-5.05
-6.23
-7.53
-8.8
-9.72
-9.89
-9.05
-7.17
-4.47
-1.29
1.99
5.04
7.61
9.53
10.72
11.21
11.17
10.87
10.55
10.41
10.49
10.73
10.98
11.13
11.16
11.08
10.91
10.65
10.26
9.66
8.81
7.75
6.57
5.41
4.34
3.37
2.47
1.6
0.83
0.38
0.54
1.61
3.68
6.57
9.83
12.88
15.26
16.71
17.28
17.21
16.76
16.14
15.43
14.66
13.82
12.93
12.0
11.08
10.17
9.28
8.39
7.51
6.62
5.7
4.7
3.58
2.27
0.7
-1.15
-3.29
-5.58
-7.75
-9.44
-10.24
-9.88
-8.32
-5.77
-2.65
0.56
3.38
5.44
6.5
6.47
5.42
3.63
1.49
-0.57
-2.26
-3.49
-4.39
-5.24
-6.26
-7.59
-9.19
-10.93
-12.62
-14.14
-15.42
-16.54
-17.65
-18.96
-20.64
-22.7
-24.94
-26.94
-28.21
-28.34
-27.13
-24.68
-21.29
-17.39
-13.41
-9.76
-6.79
-4.74
-3.7
-3.57
-4.07
-4.79
-5.39
-5.68
-5.73
-5.69
-5.76
-6.0
-6.33
-6.61
-6.71
-6.64
-6.55
-6.67
-7.18
-8.17
-9.59
-11.27
-12.97
-14.41
-15.29
-15.33
-14.33
-12.23
-9.14
-5.39
-1.45
2.19
5.15
7.24
8.53
9.21
9.51
9.57
9.45
9.12
8.56
7.79
6.89
5.96
5.09
4.32
3.58
2.83
1.99
1.08
0.09
-1.03
-2.38
-4.06
-6.05
-8.08
-9.71
-10.37
-9.63
-7.38
-3.91
0.2
4.32
7.9
10.66
12.5
13.48
13.71
13.34
12.56
11.62
10.72
10.05
9.63
9.35
9.02
8.48
7.7
6.84
6.08
5.56
5.22
4.8
4.02
2.65
0.74
-1.44
-3.43
-4.81
-5.29
-4.74
-3.16
-0.65
2.59
6.25
9.94
13.25
15.85
17.64
18.71
19.29
19.64
19.88
20.02
19.94
19.56
18.88
18.01
17.09
16.23
15.44
14.62
13.65
12.45
10.97
9.19
7.09
4.65
1.91
-0.96
-3.68
-5.92
-7.36
-7.85
-7.36
-5.95
-3.78
-0.99
2.21
5.5
8.5
10.74
11.87
11.7
10.27
7.85
4.84
1.71
-1.12
-3.29
-4.59
-4.93
-4.33
-2.97
-1.15
0.73
2.19
2.8
2.28
0.56
-2.2
-5.66
-9.41
-13.12
-16.56
-19.6
-22.08
-23.81
-24.55
-24.09
-22.38
-19.61
-16.19
-12.75
-9.93
-8.26
-7.98
-9.04
-11.07
-13.63
-16.35
-18.99
-21.47
-23.73
-25.63
-26.93
-27.36
-26.85
-25.51
-23.69
-21.76
-20.01
-18.57
-17.42
-16.5
-15.68
-14.73
-13.36
-11.22
-8.12
-4.15
0.34
4.84
8.96
12.57
15.76
18.72
21.46
23.8
25.39
25.94
25.44
24.11
22.32
20.39
18.45
16.53
14.67
13.01
11.75
10.93
10.32
9.35
7.39
3.99
-0.81
-6.43
-11.97
-16.48
-19.23
-19.87
-18.46
-15.33
-10.98
-5.98
-0.9
3.67
7.27
9.6
10.56
10.35
9.32
7.86
6.25
4.62
2.93
1.16
-0.69
-2.46
-4.0
-5.22
-6.18
-7.07
-8.08
-9.25
-10.42
-11.33
-11.7
-11.47
-10.81
-10.16
-9.91
-10.29
-11.2
-12.33
-13.35
-14.08
-14.59
-15.01
-15.41
-15.68
-15.65
-15.28
-14.75
-14.48
-14.79
-15.7
-16.86
-17.77
-18.2
-18.43
-19.22
-21.44
-25.55
-31.21
-37.37
-42.6
-45.69
-46.1
-44.12
-40.65
-36.78
-33.28
-30.3
-27.38
-23.74
-18.62
-11.69
-3.21
6.02
14.96
22.63
28.48
32.46
34.95
36.61
38.14
40.11
42.82
46.2
49.78
52.78
54.26
53.51
50.33
45.22
39.3
33.98
30.55
29.71
31.46
35.02
39.08
42.19
43.12
41.25
36.71
30.44
23.85
18.52
15.7
15.98
19.15
24.26
29.9
34.63
37.3
37.43
35.2
31.34
26.77
22.3
18.38
15.07
12.15
9.28
6.26
3.16
0.32
-1.78
-2.69
-2.23
-0.6
1.7
4.08
6.11
7.63
8.68
9.4
9.83
9.93
9.64
9.0
8.19
7.43
6.82
6.26
5.34
3.53
0.36
-4.36
-10.43
-17.34
-24.43
-31.14
-37.21
-42.61
-47.49
-51.85
-55.47
-57.95
-58.92
-58.33
-56.52
-54.12
-51.74
-49.66
-47.54
-44.56
-39.73
-32.23
-21.78
-8.77
5.76
20.36
33.42
43.56
49.77
51.75
49.84
44.95
38.37
31.39
25.07
20.11
16.98
16.0
17.49
21.68
28.47
37.2
46.64
55.28
61.77
65.36
66.16
65.01
63.22
62.09
62.6
65.07
69.13
73.91
78.59
82.91
87.66
94.51
105.34
121.26
141.91
165.4
188.92
209.64
225.45
235.24
238.8
236.53
229.32
218.3
204.79
189.88
174.24
158.05
141.28
124.15
107.27
91.29
76.2
60.66
41.7
15.76
-19.72
-64.81
-116.44
-168.64
-213.51
-243.2
-251.78
-237.28
-202.93
-156.81
-109.97
-73.55
-55.74
-59.52
-82.22
-116.42
-152.44
-181.29
-197.14
-198.52
-187.58
-168.25
-144.09
-117.32
-89.03
-60.66
-35.23
-17.44
-11.88
-20.52
-41.18
-67.85
-93.05
-110.59
-117.62
-114.81
-105.19
-92.91
-81.75
-74.01
-69.95
-67.84
-64.96
-59.38
-51.62
-44.87
-43.59
-50.8
-65.79
-83.77
-97.78
-101.92
-93.94
-75.7
-51.43
-25.12
1.23
27.38
53.33
77.64
97.03
107.33
105.22
89.9
63.44
30.27
-4.03
-33.59
-52.88
-57.5
-45.36
-18.17
18.0
53.74
79.49
89.19
82.63
65.01
43.98
25.83
13.17
5.3
0.45
-2.01
-0.95
5.01
15.43
26.86
33.48
29.49
11.72
-18.42
-54.72
-87.31
-105.35
-100.46
-70.18
-20.08
36.81
83.97
107.45
101.38
70.28
26.71
-14.54
-43.0
-56.39
-60.05
-62.98
-72.57
-91.12
-115.45
-139.44
-157.42
-166.62
-167.47
-162.3
-153.39
-141.71
-126.72
-107.54
-84.22
-58.54
-33.61
-12.64
2.59
12.51
19.33
25.78
33.73
43.43
53.74
63.25
71.18
77.63
83.14
88.03
92.22
95.69
98.92
102.83
107.86
112.85
114.65
109.09
93.0
66.1
31.76
-4.06
-35.1
-57.25
-69.96
-75.8
-78.76
-81.86
-85.81
-89.01
-89.08
-84.66
-76.46
-66.93
-58.71
-53.0
-48.94
-44.32
-37.16
-27.03
-15.3
-4.01
5.37
12.84
19.42
26.06
32.71
38.1
40.44
38.53
32.46
23.74
14.86
8.36
5.98
8.04
13.25
19.16
23.2
24.02
22.34
20.73
22.25
28.63
39.08
50.53
59.15
62.42
60.29
54.98
49.58
46.47
46.39
48.68
52.04
55.4
58.26
60.56
62.31
63.45
63.82
63.2
61.4
58.16
53.09
45.76
35.8
23.16
8.3
-7.66
-23.1
-36.18
-45.32
-49.77
-49.89
-47.08
-43.2
-39.79
-37.45
-35.75
-33.66
-30.31
-25.59
-20.31
-15.75
-12.94
-12.18
-13.12
-15.1
-17.54
-19.88
-21.29
-20.36
-15.37
-4.98
10.83
30.33
50.51
68.19
81.28
89.49
94.32
98.27
103.88
113.03
126.53
144.04
164.02
183.9
200.45
210.61
212.34
205.39
191.38
173.3
154.47
137.31
122.78
110.18
97.86
84.13
68.06
49.65
29.59
8.81
-11.82
-31.48
-49.39
-64.79
-77.02
-85.31
-88.6
-85.44
-74.53
-55.83
-31.53
-6.45
12.87
20.17
11.54
-13.63
-52.99
-102.37
-156.53
-209.25
-253.58
-282.66
-291.96
-281.64
-257.35
-228.54
-204.52
-190.3
-184.75
-181.9
-174.75
-159.32
-136.66
-112.16
-92.55
-82.42
-82.33
-88.84
-96.41
-99.92
-96.7
-87.34
-74.67
-62.15
-52.39
-46.45
-44.01
-43.89
-44.56
-44.45
-42.23
-37.28
-30.13
-22.53
-16.87
-15.31
-18.97
-27.87
-41.36
-58.67
-78.94
-100.87
-122.36
-140.59
-152.9
-157.75
-155.22
-146.64
-133.86
-118.66
-102.56
-86.98
-73.33
-62.58
-54.8
-48.9
-42.98
-35.17
-24.28
-10.1
6.83
25.5
44.8
63.71
81.41
97.43
111.58
123.67
133.26
139.63
142.2
141.07
137.45
133.17
129.77
127.66
125.91
122.9
117.39
109.48
100.53
92.34
86.12
81.91
78.81
75.56
71.15
65.02
57.0
47.38
36.88
26.83
19.1
15.79
18.56
28.21
44.37
65.6
89.64
113.74
134.93
150.48
158.48
158.57
152.47
143.78
136.81
134.91
138.83
146.24
152.54
152.9
144.26
126.54
102.34
75.74
50.86
30.93
18.0
12.93
15.38
23.66
34.79
45.05
51.04
50.68
43.8
32.07
18.28
5.28
-4.92
-11.88
-16.89
-22.42
-30.87
-43.1
-57.45
-70.19
-77.27
-76.79
-70.46
-63.1
-60.42
-66.17
-80.44
-99.99
-120.23
-137.57
-150.7
-160.16
-166.84
-170.42
-169.1
-160.7
-144.63
-123.05
-100.68
-82.85
-73.17
-71.91
-76.09
-81.29
-84.02
-83.33
-80.71
-78.69
-78.92
-81.21
-83.81
-84.61
-82.32
-76.96
-69.59
-61.59
-54.12
-47.82
-42.74
-38.33
-33.49
-27.01
-18.15
-7.3
3.84
12.78
17.32
16.64
11.69
4.74
-1.73
-6.15
-8.37
-9.42
-10.64
-12.84
-15.93
-19.12
-21.53
-22.78
-23.13
-23.14
-23.3
-23.44
-22.79
-20.3
-15.05
-6.69
4.55
17.78
31.57
44.12
53.63
58.94
60.16
58.81
57.29
57.68
60.41
63.61
63.7
57.04
41.77
18.94
-7.73
-33.22
-53.06
-64.66
-67.76
-64.0
-56.09
-46.87
-38.75
-33.1
-30.15
-29.03
-28.18
-26.03
-21.57
-14.83
-6.86
0.62
5.8
7.48
5.31
0.02
-6.92
-13.85
-19.45
-23.29
-25.98
-28.89
-33.42
-40.02
-47.53
-53.1
-53.0
-44.05
-24.96
3.05
36.53
70.79
101.4
125.3
141.28
149.72
151.89
149.19
142.7
133.16
121.12
107.12
91.76
75.54
58.83
41.78
24.51
7.28
-9.44
-24.93
-38.24
-48.4
-54.68
-56.83
-55.08
-49.95
-41.96
-31.32
-17.82
-1.22
18.17
39.06
59.12
75.59
86.24
90.26
88.39
82.51
74.67
66.26
57.63
48.46
38.25
26.9
14.84
2.81
-8.45
-18.56
-27.3
-34.15
-37.91
-36.61
-28.11
-11.14
13.67
43.43
73.63
99.57
117.9
127.6
129.93
127.47
122.89
117.93
113.33
109.17
105.49
102.71
101.45
102.1
104.19
106.21
105.82
100.73
89.5
72.21
50.6
27.5
6.22
-10.28
-20.0
-22.34
-18.11
-9.11
2.6
15.43
28.65
42.29
56.46
70.82
84.37
95.71
103.39
105.93
101.71
88.74
65.28
30.82
-12.9
-61.59
-109.45
-151.0
-182.88
-204.61
-218.1
-226.28
-231.78
-236.13
-239.56
-241.57
-241.73
-240.24
-238.18
-237.22
-238.59
-241.86
-244.24
-241.23
-228.35
-203.21
-166.86
-123.67
-79.66
-40.25
-8.67
14.61
31.44
45.08
59.08
76.44
98.78
125.67
154.17
179.23
195.17
197.76
186.12
163.34
135.29
108.17
86.24
70.79
60.73
54.07
49.47
46.63
45.68
46.44
48.07
49.42
49.65
48.77
47.68
47.51
48.9
51.53
54.21
55.28
53.27
47.76
39.85
31.92
26.91
27.2
33.52
44.35
56.39
65.52
68.2
62.7
50.0
33.58
18.44
9.41
9.19
17.44
31.22
46.92
62.21
76.77
91.13
104.7
114.89
118.18
112.93
101.7
90.88
87.39
94.64
110.0
125.87
133.86
129.6
114.85
96.07
80.08
69.64
61.84
50.04
28.37
-4.33
-43.57
-82.08
-114.31
-139.61
-162.21
-187.81
-219.21
-253.96
-285.15
-304.69
-307.12
-291.78
-262.55
-225.73
-187.55
-152.48
-122.58
-97.75
-76.42
-56.18
-34.55
-9.98
17.35
45.65
72.31
95.26
114.03
129.56
143.33
155.97
166.2
170.91
166.6
151.39
126.72
97.53
70.24
49.76
37.12
29.56
22.74
13.82
3.12
-6.58
-12.28
-12.64
-8.62
-2.4
4.13
10.24
16.11
22.09
27.93
32.47
34.36
32.88
28.65
23.59
19.95
18.75
18.81
16.86
9.08
-6.61
-28.85
-52.85
-72.22
-81.78
-79.68
-67.78
-50.21
-31.31
-14.16
-0.48
8.71
12.54
10.2
1.46
-12.89
-30.94
-49.75
-65.99
-76.68
-79.99
-75.92
-66.35
-54.22
-42.21
-31.68
-22.23
-12.47
-1.29
11.27
23.85
34.49
41.52
44.36
43.78
41.49
39.57
39.68
42.42
47.24
52.77
57.61
61.1
63.55
65.88
68.86
72.4
75.43
76.43
74.24
68.79
61.21
53.37
47.2
43.99
44.13
47.06
51.44
55.45
56.99
53.93
44.58
28.13
5.14
-22.44
-51.63
-79.32
-103.06
-121.52
-134.33
-141.55
-143.17
-139.26
-130.61
-119.38
-109.06
-103.39
-104.84
-113.53
-127.29
-142.84
-157.33
-169.2
-178.05
-183.86
-186.25
-184.7
-179.35
-171.91
-165.35
-162.5
-164.2
-168.1
-169.12
-161.65
-142.06
-110.39
-70.12
-26.28
16.72
56.7
93.7
128.73
162.23
193.21
219.58
239.01
250.18
253.04
248.56
238.23
223.75
206.89
189.69
174.24
162.13
154.02
148.88
143.85
135.03
119.05
94.79
64.76
34.54
10.78
-1.84
-2.65
5.01
15.89
25.54
32.28
36.75
39.95
41.12
37.07
23.39
-2.77
-40.57
-84.94
-127.97
-161.8
-181.25
-185.3
-176.71
-160.32
-140.76
-121.08
-102.7
-86.32
-73.27
-65.99
-67.09
-77.44
-94.86
-114.24
-129.64
-136.94
-135.71
-129.06
-121.69
-117.41
-117.69
-121.42
-126.05
-128.9
-127.98
-122.15
-111.06
-95.15
-75.85
-55.58
-37.19
-22.7
-12.31
-4.14
5.04
18.29
37.04
59.98
83.29
101.65
109.98
105.49
89.21
66.4
45.17
33.57
36.4
52.93
77.14
100.36
115.02
117.64
109.2
93.6
74.95
55.75
36.76
18.22
1.19
-12.15
-19.48
-20.01
-15.51
-9.86
-7.44
-11.1
-20.84
-34.11
-47.09
-56.78
-62.19
-64.39
-65.52
-67.42
-70.5
-73.59
-74.65
-71.92
-64.82
-54.42
-42.83
-32.46
-25.08
-21.19
-20.15
-20.73
-21.91
-23.38
-25.41
-28.25
-31.56
-33.95
-33.46
-28.49
-18.83
-5.88
7.78
19.69
28.5
34.32
38.35
41.91
45.63
49.28
52.18
53.73
53.8
52.72
50.98
48.9
46.51
43.62
40.0
35.6
30.59
25.38
20.48
16.37
13.25
10.94
8.89
6.38
2.86
-1.89
-7.72
-14.22
-20.89
-27.12
-32.15
-35.01
-34.85
-31.27
-24.63
-16.01
-6.85
1.66
8.95
15.08
20.41
25.13
29.15
32.13
33.84
34.35
34.09
33.6
33.29
33.26
33.32
33.15
32.5
31.27
29.57
27.62
25.63
23.63
21.44
18.7
15.04
10.26
4.5
-1.91
-8.45
-14.59
-19.77
-23.44
-25.04
-24.16
-20.81
-15.55
-9.38
-3.47
1.39
5.01
7.77
10.24
12.78
15.29
17.37
18.56
18.71
18.03
16.9
15.67
14.48
13.31
12.16
11.16
10.5
10.24
10.12
9.55
7.84
4.51
-0.47
-6.66
-13.32
-19.68
-25.08
-29.05
-31.21
-31.27
-29.03
-24.54
-18.25
-10.93
-3.54
3.16
8.79
13.39
17.22
20.54
23.31
25.31
26.26
26.11
25.15
23.88
22.72
21.85
21.18
20.44
19.5
18.39
17.27
16.23
15.11
13.57
11.22
7.9
3.75
-0.83
-5.34
-9.32
-12.39
-14.16
-14.27
-12.43
-8.62
-3.14
3.34
9.97
16.01
20.99
24.71
27.13
28.17
27.69
25.62
22.11
17.62
12.85
8.44
4.81
2.06
0.07
-1.31
-2.24
-2.79
-3.13
-3.53
-4.32
-5.77
-8.04
-11.12
-14.91
-19.3
-24.04
-28.62
-32.23
-33.82
-32.48
-27.75
-19.91
-9.9
0.88
11.06
19.63
26.09
30.46
33.06
34.28
34.44
33.78
32.52
30.95
29.44
28.31
27.68
27.4
27.07
26.25
24.65
22.27
19.34
16.11
12.74
9.17
5.15
0.46
-5.02
-11.11
-17.28
-22.69
-26.35
-27.47
-25.73
-21.45
-15.45
-8.84
-2.53
2.94
7.46
11.18
14.32
16.98
19.16
20.8
21.82
22.16
21.82
20.83
19.3
17.41
15.38
13.42
11.71
10.27
9.07
8.0
6.85
5.41
3.46
0.83
-2.55
-6.66
-11.26
-15.9
-19.91
-22.51
-23.04
-21.24
-17.4
-12.24
-6.65
-1.31
3.4
7.4
10.68
13.1
14.45
14.58
13.6
11.92
10.16
8.83
8.2
8.16
8.41
8.53
8.25
7.45
6.17
4.5
2.54
0.32
-2.26
-5.33
-9.06
-13.5
-18.47
-23.48
-27.77
-30.47
-30.88
-28.68
-24.12
-17.9
-10.96
-4.2
1.71
6.37
9.62
11.45
11.96
11.43
10.2
8.66
7.11
5.68
4.4
3.24
2.19
1.26
0.49
-0.18
-0.93
-1.99
-3.61
-5.93
-9.01
-12.75
-16.9
-21.1
-24.78
-27.29
-27.96
-26.32
-22.31
-16.39
-9.42
-2.44
3.71
8.58
12.17
14.71
16.49
17.65
18.19
18.09
17.4
16.27
14.9
13.42
11.89
10.31
8.66
6.96
5.2
3.28
1.01
-1.88
-5.66
-10.39
-15.84
-21.46
-26.44
-29.88
-31.04
-29.54
-25.53
-19.6
-12.65
-5.57
0.92
6.36
10.53
13.35
14.88
15.21
14.52
13.09
11.25
9.39
7.85
6.83
6.39
6.36
6.44
6.2
5.3
3.55
1.01
-2.11
-5.48
-8.86
-12.13
-15.24
-18.08
-20.35
-21.57
-21.27
-19.11
-15.15
-9.79
-3.7
2.45
8.1
12.89
16.64
19.17
20.39
20.26
18.98
17.02
14.98
13.46
12.78
12.89
13.43
13.89
13.84
13.06
11.51
9.33
6.63
3.51
-0.02
-3.98
-8.34
-12.89
-17.19
-20.56
-22.24
-21.68
-18.75
-13.82
-7.71
-1.36
4.42
9.11
12.47
14.49
15.22
14.85
13.7
12.19
10.74
9.65
8.99
8.58
8.11
7.31
6.02
4.27
2.22
0.02
-2.23
-4.53
-6.99
-9.76
-12.98
-16.69
-20.68
-24.5
-27.4
-28.57
-27.37
-23.58
-17.54
-10.06
-2.21
4.99
10.84
15.03
17.52
18.45
18.05
16.63
14.64
12.58
10.89
9.84
9.37
9.21
8.98
8.39
7.32
5.8
3.97
1.91
-0.31
-2.76
-5.55
-8.8
-12.63
-16.95
-21.37
-25.13
-27.27
-26.9
-23.58
-17.58
-9.82
-1.63
5.75
11.54
15.5
17.84
18.97
19.2
18.75
17.75
16.4
14.98
13.79
12.98
12.5
12.07
11.36
10.19
8.55
6.64
4.68
2.76
0.78
-1.55
-4.6
-8.64
-13.66
-19.25
-24.51
-28.28
-29.42
-27.26
-21.87
-14.14
-5.45
2.79
9.59
14.56
17.81
19.67
20.41
20.17
19.06
17.31
15.32
13.55
12.3
11.63
11.31
10.96
10.27
9.12
7.62
6.0
4.5
3.16
1.83
0.16
-2.25
-5.73
-10.33
-15.66
-20.92
-25.03
-26.93
-25.93
-21.97
-15.63
-7.95
-0.08
7.04
12.86
17.21
20.19
21.99
22.79
22.74
22.06
21.04
20.0
19.22
18.76
18.47
18.07
17.25
15.89
14.09
12.12
10.25
8.6
7.04
5.29
3.02
-0.01
-3.91
-8.55
-13.58
-18.39
-22.19
-24.15
-23.66
-20.55
-15.24
-8.61
-1.74
4.4
9.23
12.54
14.42
15.0
14.37
12.68
10.2
7.45
5.04
3.49
2.93
3.04
3.18
2.77
1.55
-0.32
-2.43
-4.4
-6.1
-7.7
-9.52
-11.83
-14.76
-18.28
-22.18
-26.1
-29.44
-31.46
-31.37
-28.69
-23.45
-16.29
-8.24
-0.38
6.43
11.72
15.33
17.26
17.57
16.47
14.35
11.83
9.61
8.2
7.71
7.88
8.12
7.95
7.13
5.76
4.17
2.63
1.22
-0.26
-2.15
-4.75
-8.15
-12.19
-16.48
-20.49
-23.59
-25.17
-24.78
-22.21
-17.62
-11.54
-4.78
1.85
7.7
12.46
16.03
18.41
19.59
19.59
18.58
16.95
15.26
14.03
13.52
13.57
13.7
13.34
12.17
10.17
7.64
4.99
2.52
0.29
-1.89
-4.31
-7.27
-10.91
-15.11
-19.48
-23.34
-25.91
-26.51
-24.8
-20.93
-15.49
-9.31
-3.21
2.28
6.9
10.62
13.47
15.38
16.27
16.16
15.3
14.15
13.28
13.05
13.48
14.23
14.74
14.5
13.33
11.39
9.13
7.02
5.36
4.1
2.95
1.43
-0.83
-4.02
-8.01
-12.37
-16.4
-19.31
-20.33
-18.99
-15.24
-9.53
-2.66
4.36
10.68
15.71
19.25
21.32
22.07
21.65
20.25
18.13
15.68
13.38
11.66
10.77
10.66
10.94
11.07
10.58
9.25
7.16
4.63
2.06
-0.29
-2.38
-4.36
-6.48
-9.02
-12.17
-15.99
-20.36
-24.87
-28.87
-31.54
-32.16
-30.33
-26.25
-20.62
-14.46
-8.74
-4.06
-0.58
1.93
3.8
5.25
6.3
6.88
6.93
6.59
6.15
5.91
6.03
6.38
6.6
6.28
5.1
3.02
0.32
-2.62
-5.41
-7.83
-9.87
-11.69
-13.54
-15.64
-18.1
-20.87
-23.68
-26.05
-27.42
-27.2
-25.06
-21.06
-15.67
-9.69
-3.97
0.8
4.28
6.47
7.59
7.93
7.77
7.34
6.79
6.27
5.84
5.5
5.2
4.93
4.75
4.81
5.26
6.14
7.28
8.33
8.84
8.4
6.72
3.83
0.01
-4.1
-7.67
-9.84
-9.98
-7.86
-3.75
1.66
7.43
12.68
16.76
19.36
20.55
20.64
20.1
19.44
19.12
19.4
20.32
21.66
22.95
23.62
23.17
21.36
18.33
14.51
10.47
6.66
3.31
0.36
-2.43
-5.38
-8.77
-12.74
-17.15
-21.5
-24.98
-26.71
-26.05
-23.02
-18.31
-13.11
-8.66
-5.79
-4.74
-5.22
-6.7
-8.72
-10.93
-13.04
-14.72
-15.47
-14.77
-12.26
-7.97
-2.49
3.15
7.78
10.45
10.78
9.09
6.22
3.19
0.74
-0.92
-2.09
-3.31
-4.9
-6.77
-8.32
-8.77
-7.5
-4.3
0.46
6.03
11.49
15.98
18.94
20.17
19.79
18.17
15.76
13.03
10.32
7.9
5.97
4.71
4.24
4.61
5.61
6.83
7.64
7.42
5.8
2.73
-1.4
-6.01
-10.51
-14.46
-17.62
-19.89
-21.13
-21.17
-19.85
-17.19
-13.44
-9.07
-4.63
-0.55
2.9
5.64
7.55
8.37
7.83
5.79
2.58
-0.95
-3.6
-4.26
-2.37
1.82
7.33
12.78
16.81
18.38
17.02
12.72
5.95
-2.57
-11.92
-21.08
-29.06
-34.91
-37.85
-37.35
-33.36
-26.46
-17.88
-9.16
-1.67
3.92
7.95
11.52
16.04
22.42
30.68
39.7
47.76
53.13
54.82
52.91
48.58
43.55
39.4
36.96
36.11
36.03
35.69
34.39
32.01
28.83
25.34
21.92
18.86
16.35
14.55
13.54
13.15
12.96
12.5
11.5
10.05
8.55
7.31
6.12
4.11
0.12
-6.71
-16.36
-27.65
-38.7
-47.57
-52.98
-54.6
-52.87
-48.52
-42.28
-34.86
-27.21
-20.74
-17.13
-17.75
-22.91
-31.42
-40.79
-48.16
-51.34
-49.54
-43.39
-34.4
-24.16
-13.77
-3.8
5.57
14.31
22.4
29.77
36.21
41.18
43.66
42.26
35.65
23.12
5.15
-16.53
-39.28
-60.2
-76.86
-87.69
-92.19
-90.71
-84.1
-73.4
-59.73
-44.43
-29.22
-16.17
-7.26
-3.48
-4.21
-7.06
-8.65
-5.94
2.56
16.15
32.51
48.69
62.34
72.27
78.52
81.87
83.39
84.07
84.68
85.63
86.85
87.81
87.69
85.7
81.32
74.43
65.12
53.61
40.16
25.19
9.38
-6.46
-21.61
-35.74
-48.91
-61.19
-72.21
-80.98
-86.1
-86.55
-82.46
-75.5
-68.49
-64.26
-64.57
-69.37
-76.94
-84.63
-89.91
-91.14
-87.75
-80.11
-69.24
-56.44
-43.09
-30.41
-19.22
-9.71
-1.48
6.15
13.86
21.94
30.48
39.52
49.22
59.66
70.46
80.48
88.08
91.74
90.96
86.63
80.76
75.55
72.32
71.12
71.03
71.02
70.63
70.11
69.92
70.14
70.16
69.05
66.24
62.0
57.43
53.8
51.75
50.8
49.62
46.62
40.85
32.37
22.18
11.72
2.37
-4.98
-10.04
-13.12
-14.94
-16.41
-18.4
-21.54
-26.11
-32.11
-39.37
-47.64
-56.59
-65.71
-74.28
-81.55
-86.97
-90.45
-92.46
-93.74
-94.9
-96.04
-96.66
-95.85
-92.72
-86.93
-78.88
-69.65
-60.5
-52.47
-46.0
-40.92
-36.83
-33.4
-30.64
-28.77
-27.97
-28.07
-28.51
-28.61
-27.85
-26.18
-23.88
-21.32
-18.69
-15.85
-12.56
-8.69
-4.49
-0.54
2.44
3.89
3.67
2.07
-0.31
-2.68
-4.37
-4.86
-3.91
-1.49
2.2
6.78
11.74
16.55
20.77
24.04
26.18
27.05
26.63
25.0
22.47
19.55
16.86
14.96
14.06
14.04
14.4
14.57
14.06
12.73
10.69
8.26
5.81
3.61
1.74
0.09
-1.58
-3.53
-5.85
-8.32
-10.43
-11.47
-10.78
-7.99
-3.22
2.99
9.8
16.33
21.89
26.06
28.69
29.89
29.91
29.07
27.68
26.02
24.28
22.54
20.8
19.01
17.11
15.11
12.97
10.71
8.36
5.97
3.62
1.42
-0.6
-2.52
-4.5
-6.71
-9.07
-11.22
-12.56
-12.46
-10.55
-6.94
-2.24
2.67
6.95
10.05
11.84
12.49
12.26
11.43
10.15
8.51
6.68
4.89
3.42
2.47
2.1
2.13
2.22
2.02
1.26
-0.11
-1.97
-4.1
-6.32
-8.55
-10.75
-12.77
-14.27
-14.74
-13.67
-10.77
-6.19
-0.53
5.34
10.57
14.63
17.34
18.86
19.41
19.23
18.46
17.21
15.69
14.15
12.84
11.87
11.06
10.0
8.2
5.35
1.46
-3.13
-7.91
-12.41
-16.38
-19.76
-22.51
-24.5
-25.39
-24.81
-22.5
-18.54
-13.35
-7.58
-1.88
3.24
7.52
10.86
13.26
14.76
15.43
15.38
14.84
14.08
13.42
13.07
13.06
13.22
13.21
12.69
11.44
9.5
7.02
4.19
1.05
-2.51
-6.58
-11.0
-15.23
-18.48
-20.01
-19.42
-16.93
-13.25
-9.35
-6.14
-4.26
-3.91
-4.96
-6.9
-8.97
-10.21
-9.82
-7.42
-3.34
1.39
5.38
7.47
7.14
4.79
1.47
-1.6
-3.59
-4.36
-4.38
-4.33
-4.67
-5.37
-6.0
-6.07
-5.4
-4.31
-3.47
-3.55
-4.74
-6.62
-8.31
-8.97
-8.26
-6.5
-4.5
-3.03
-2.41
-2.43
-2.52
-2.21
-1.41
-0.42
0.29
0.35
-0.37
-1.83
-3.92
-6.54
-9.55
-12.7
-15.55
-17.64
-18.61
-18.3
-16.82
-14.34
-11.03
-6.99
-2.39
2.43
6.92
10.37
12.21
12.14
10.31
7.14
3.2
-0.87
-4.47
-7.06
-8.24
-7.95
-6.57
-4.87
-3.76
-3.93
-5.55
-8.26
-11.38
-14.17
-16.09
-16.81
-16.19
-14.18
-10.96
-6.92
-2.68
1.13
4.05
5.91
6.84
7.05
6.71
5.96
4.99
4.17
3.97
4.82
6.85
9.81
13.17
16.35
18.94
20.78
21.9
22.38
22.29
21.71
20.88
20.15
20.03
20.95
23.09
26.27
29.96
33.31
35.35
35.27
32.61
27.43
20.38
12.49
4.93
-1.31
-5.57
-7.65
-7.78
-6.56
-4.9
-3.91
-4.64
-7.82
-13.53
-21.07
-29.0
-35.55
-39.09
-38.64
-34.17
-26.59
-17.4
-8.27
-0.55
5.08
8.55
10.32
10.97
11.04
10.83
10.5
10.1
9.68
9.26
8.8
8.1
6.85
4.69
1.32
-3.29
-8.86
-14.81
-20.31
-24.54
-26.83
-26.86
-24.72
-20.82
-15.75
-10.09
-4.32
1.22
6.29
10.64
14.02
16.24
17.28
17.3
16.66
15.72
14.75
13.78
12.59
10.78
7.96
3.84
-1.51
-7.67
-13.92
-19.43
-23.62
-26.31
-27.76
-28.38
-28.41
-27.76
-25.98
-22.62
-17.58
-11.32
-4.73
1.23
5.86
9.02
11.04
12.44
13.65
14.75
15.52
15.66
15.01
13.73
12.28
11.12
10.44
9.97
9.2
7.75
5.63
3.34
1.56
0.74
0.85
1.48
2.28
3.29
4.97
7.86
12.1
17.04
21.47
24.09
24.21
21.99
18.43
14.86
12.35
11.37
11.68
12.57
13.12
12.6
10.62
7.19
2.66
-2.38
-7.27
-11.44
-14.55
-16.5
-17.42
-17.59
-17.31
-16.74
-15.88
-14.59
-12.66
-9.99
-6.71
-3.21
0.05
2.7
4.68
6.25
7.83
9.76
12.12
14.61
16.75
18.12
18.56
18.25
17.51
16.59
15.53
14.07
11.97
9.18
6.07
3.31
1.56
1.07
1.49
1.94
1.49
-0.44
-3.72
-7.57
-11.02
-13.27
-14.03
-13.44
-11.82
-9.44
-6.31
-2.33
2.56
8.22
14.28
20.22
25.5
29.72
32.67
34.35
34.98
34.9
34.54
34.33
34.51
35.07
35.78
36.25
36.15
35.37
34.06
32.54
31.1
29.85
28.68
27.31
25.52
23.29
20.79
18.25
15.79
13.31
10.55
7.24
3.31
-1.04
-5.34
-9.06
-11.75
-13.2
-13.44
-12.68
-11.16
-9.16
-6.94
-4.83
-3.17
-2.35
-2.56
-3.77
-5.63
-7.56
-9.0
-9.61
-9.44
-8.93
-8.66
-9.16
-10.65
-12.99
-15.76
-18.44
-20.58
-21.94
-22.56
-22.67
-22.62
-22.74
-23.27
-24.23
-25.52
