2013-07-04 12:10:40
64.0
-0.0
-0.0
-0.0
-0.0
-0.0
-0.0
-0.0
-0.0
-0.0
-0.0
0.0
0.01
0.01
-0.0
-0.03
-0.05
-0.05
0.0
0.13
0.36
0.66
1.01
1.37
1.72
2.06
2.4
2.79
3.24
3.8
4.42
5.06
5.66
6.2
6.68
7.15
7.68
8.31
9.14
10.09
11.04
11.88
12.56
13.14
13.76
14.65
15.96
17.91
20.32
22.9
25.38
27.58
29.57
31.68
34.32
37.81
42.54
48.15
54.1
59.83
64.97
69.58
74.14
79.34
85.71
93.76
103.0
112.62
121.73
129.77
136.75
143.3
150.75
157.77
166.64
177.95
191.79
206.97
220.57
228.25
225.36
208.53
176.87
132.76
80.05
23.07
-34.94
-92.44
-149.16
-205.23
-260.37
-313.74
-363.87
-409.83
-450.91
-486.5
-515.74
-537.23
-549.22
-549.96
-538.37
-514.21
-478.67
-433.88
-382.45
-327.02
-269.84
-212.63
-156.66
-102.95
-52.37
-5.9
35.58
71.43
101.35
125.5
144.38
158.69
169.15
176.37
180.75
182.57
182.07
179.51
175.23
169.65
163.18
156.15
148.81
141.3
133.69
126.02
118.33
110.69
103.16
95.8
88.68
81.83
75.25
68.95
62.95
57.25
51.86
46.78
42.03
37.59
33.45
29.61
26.07
22.81
19.83
17.11
14.67
12.48
10.54
8.83
7.35
6.07
4.97
4.05
3.27
2.62
2.09
1.65
1.3
1.01
0.79
0.61
0.47
0.37
0.28
0.22
0.18
0.15
0.13
0.12
0.13
0.14
0.16
0.18
0.22
0.26
0.3
0.35
0.4
0.46
0.51
0.56
0.62
0.67
0.72
0.77
0.83
0.88
0.94
1.01
1.09
1.17
1.27
1.39
1.52
1.67
1.84
2.03
2.25
2.49
2.75
3.05
3.38
3.73
4.12
4.55
5.01
5.51
6.05
6.62
7.24
7.89
8.59
9.32
10.1
10.92
11.77
12.67
13.62
14.63
15.7
16.83
17.98
19.12
20.23
21.29
22.26
23.1
23.75
24.06
23.88
23.02
21.31
18.65
15.02
10.44
5.1
-0.78
-6.96
-13.17
-19.16
-24.7
-29.5
-33.28
-35.73
-36.61
-35.81
-33.43
-29.79
-25.37
-20.7
-16.22
-12.15
-8.49
-5.07
-1.74
1.5
4.43
6.68
7.91
7.98
7.17
6.07
5.49
5.96
7.6
10.0
12.39
13.93
14.17
13.27
12.02
11.49
12.39
14.95
18.78
23.02
26.7
28.88
28.9
26.54
22.67
19.16
19.12
26.12
42.61
68.59
101.05
134.75
164.01
184.63
194.66
194.79
187.39
175.18
160.41
144.5
128.15
111.3
96.11
83.15
71.88
60.9
48.49
33.25
14.56
-7.04
-29.86
-51.25
-68.79
-80.53
-85.79
-85.47
-81.69
-76.97
-73.32
-71.57
-71.44
-72.35
-73.73
-75.25
-76.86
-78.54
-80.23
-81.77
-83.08
-84.13
-85.13
-86.18
-87.36
-88.74
-90.58
-93.25
-97.03
-101.79
-106.78
-110.82
-112.5
-110.67
-104.8
-95.09
-82.31
-67.51
-51.76
-36.02
-21.09
-7.66
3.61
12.16
17.52
19.49
18.18
14.01
7.62
-0.3
-8.94
-17.43
-24.78
-29.99
-32.2
-30.91
-26.25
-18.9
-10.09
-1.11
6.86
13.11
17.37
19.73
20.54
20.3
19.63
19.22
19.75
21.64
24.94
29.38
34.51
39.94
45.38
50.64
55.48
59.52
62.31
63.45
62.79
60.5
56.96
52.62
47.76
42.51
36.97
31.25
25.5
19.91
14.51
9.18
3.67
-2.26
-8.74
-15.7
-22.87
-29.89
-36.43
-42.23
-47.14
-51.15
-54.32
-56.75
-58.5
-59.52
-59.63
-58.62
-56.34
-52.86
-48.57
-44.05
-39.87
-36.35
-33.48
-30.99
-28.55
-26.06
-23.63
-21.5
-19.78
-18.32
-16.77
-14.81
-12.28
-9.29
-6.1
-2.87
0.37
3.71
7.12
10.36
13.07
14.92
15.94
16.57
17.51
19.38
22.29
25.85
29.27
31.74
32.87
32.73
31.72
30.26
28.52
26.3
23.24
19.0
13.51
7.0
-0.09
-7.36
-14.54
-21.6
-28.64
-35.85
-43.26
-50.66
-57.62
-63.48
-67.71
-70.04
-70.56
-69.67
-67.83
-65.36
-62.36
-58.76
-54.47
-49.53
-44.05
-38.16
-31.91
-25.25
-18.13
-10.54
-2.71
4.99
11.97
17.61
21.3
22.63
21.61
18.73
14.94
11.42
9.27
9.14
11.04
14.37
18.17
21.41
23.36
23.68
22.45
20.08
17.12
14.09
11.42
9.32
7.84
6.86
6.09
5.19
3.91
2.22
0.41
-0.98
-1.37
-0.41
1.87
5.0
8.38
11.51
14.16
16.36
18.21
19.65
20.46
20.45
19.51
17.69
15.13
11.89
8.04
3.89
0.14
-2.14
-1.85
1.6
7.87
15.77
23.67
30.11
34.24
35.86
35.25
32.78
28.88
24.02
18.87
14.16
10.58
8.49
7.71
7.66
7.58
6.78
5.05
2.53
-0.42
-3.34
-6.01
-8.41
-10.69
-13.02
-15.48
-18.01
-20.5
-22.85
-24.98
-26.82
-28.21
-28.92
-28.72
-27.5
-25.31
-22.48
-19.41
-16.52
-14.15
-12.49
-11.59
-11.5
-12.13
-13.31
-14.7
-15.79
-16.04
-15.06
-12.83
-9.68
-6.27
-3.17
-0.77
0.95
2.21
3.2
3.87
3.85
2.69
0.03
-4.04
-8.97
-13.84
-17.61
-19.36
-18.58
-15.21
-9.7
-2.84
4.44
11.21
16.83
20.88
23.16
23.64
22.34
19.39
15.06
9.87
4.63
0.29
-2.26
-2.58
-0.8
2.27
5.61
8.29
9.94
10.73
11.12
11.49
11.8
11.61
10.38
7.7
3.48
-2.1
-8.8
-16.34
-24.38
-32.37
-39.53
-45.06
-48.46
-49.74
-49.46
-48.4
-47.24
-46.25
-45.38
-44.44
-43.38
-42.47
-42.21
-43.03
-44.88
-47.02
-47.98
-46.02
-39.75
-28.79
-14.02
2.7
19.19
33.73
45.55
54.73
61.69
66.66
69.45
69.76
67.63
63.85
59.92
57.46
57.57
60.45
65.23
70.42
74.51
76.45
75.88
73.08
68.71
63.59
58.38
53.44
48.77
43.95
38.39
31.46
22.85
12.74
1.78
-9.04
-18.7
-26.44
-31.83
-34.8
-35.55
-34.53
-32.36
-29.8
-27.63
-26.48
-26.59
-27.74
-29.37
-30.66
-30.98
-30.06
-28.06
-25.44
-22.82
-20.68
-19.25
-18.53
-18.38
-18.63
-19.28
-20.44
-22.24
-24.8
-28.12
-32.06
-36.37
-40.69
-44.54
-47.35
-48.58
-47.75
-44.62
-39.17
-31.59
-22.21
-11.48
0.04
11.63
22.53
31.97
39.4
44.45
46.98
46.98
44.54
40.02
34.02
27.39
21.12
16.02
12.58
10.77
10.26
10.51
11.01
11.31
11.06
9.99
7.82
4.38
-0.43
-6.46
-13.23
-19.91
-25.42
-28.68
-28.93
-26.04
-20.59
-13.73
-6.76
-0.78
3.57
6.14
7.18
7.03
6.01
4.34
2.16
-0.4
-3.2
-6.06
-8.81
-11.28
-13.3
-14.69
-15.35
-15.21
-14.39
-13.09
-11.51
-9.74
-7.69
-5.23
-2.41
0.37
2.5
3.36
2.8
1.33
0.04
0.34
3.41
9.96
20.05
33.15
48.18
63.62
77.56
88.02
93.28
92.29
85.0
72.38
56.19
38.54
21.58
7.11
-3.57
-9.74
-11.43
-9.45
-5.21
-0.52
2.86
3.76
1.76
-2.72
-8.81
-15.58
-22.5
-29.52
-36.96
-45.11
-53.83
-62.4
-69.64
-74.23
-75.28
-72.53
-66.4
-57.81
-47.95
-38.14
-29.65
-23.5
-20.11
-19.09
-19.19
-18.69
-16.13
-10.89
-3.5
4.65
12.03
17.56
20.9
22.3
22.14
20.63
17.8
13.71
8.61
3.07
-2.3
-7.04
-11.06
-14.63
-18.15
-21.84
-25.51
-28.54
-30.02
-29.07
-25.23
-18.64
-9.99
-0.36
9.24
17.99
25.39
31.23
35.43
37.95
38.82
38.14
36.18
33.34
30.04
26.66
23.44
20.42
17.56
14.75
11.96
9.19
6.52
3.95
1.4
-1.3
-4.38
-8.01
-12.24
-17.08
-22.39
-27.89
-33.09
-37.3
-39.7
-39.6
-36.65
-30.99
-23.14
-13.86
-3.9
6.15
15.83
24.77
32.58
38.85
43.23
45.51
45.72
44.14
41.27
37.71
34.03
30.61
27.59
24.85
22.19
19.45
16.65
13.91
11.4
9.15
6.99
4.58
1.55
-2.37
-7.32
-13.14
-19.45
-25.54
-30.5
-33.36
-33.37
-30.23
-24.26
-16.2
-7.03
2.35
11.3
19.39
26.3
31.71
35.29
36.83
36.41
34.5
31.86
29.34
27.6
26.95
27.18
27.8
28.15
27.71
26.3
24.05
21.3
18.43
15.64
12.89
9.98
6.6
2.49
-2.45
-8.12
-14.1
-19.7
-24.06
-26.32
-25.88
-22.56
-16.71
-9.06
-0.57
7.74
15.02
20.59
24.03
25.18
24.26
21.86
18.83
16.13
14.49
14.14
14.76
15.6
15.84
14.91
12.7
9.5
5.82
2.09
-1.44
-4.76
-7.93
-10.95
-13.77
-16.33
-18.76
-21.43
-24.8
-29.13
-34.19
-39.12
-42.61
-43.34
-40.52
-34.18
-25.23
-15.04
-4.93
4.15
11.79
17.98
22.78
26.18
28.07
28.42
27.38
25.27
22.39
18.96
15.05
10.73
6.23
2.06
-1.08
-2.61
-2.31
-0.42
2.42
5.45
8.08
10.04
11.29
11.94
12.02
11.44
9.93
7.16
2.88
-2.96
-9.99
-17.46
-24.25
-29.15
-31.2
-30.01
-25.93
-19.83
-12.93
-6.29
-0.69
3.54
6.42
8.12
8.89
8.96
8.64
8.25
8.14
8.53
9.57
11.22
13.44
16.16
19.32
22.76
26.18
29.13
31.17
31.91
31.26
29.35
26.47
22.97
19.12
15.08
10.87
6.41
1.48
-4.25
-11.12
-19.15
-27.93
-36.5
-43.59
-47.96
-48.89
-46.33
-40.88
-33.49
-25.24
-17.13
-10.01
-4.53
-0.98
0.91
1.99
3.47
6.38
11.13
17.24
23.57
28.9
32.46
34.24
34.85
35.09
35.6
36.57
37.86
39.16
40.15
40.52
40.06
38.62
36.22
32.97
29.1
24.81
20.14
14.99
9.13
2.37
-5.27
-13.41
-21.31
-28.1
-32.94
-35.39
-35.38
-33.31
-29.78
-25.47
-20.9
-16.39
-12.13
-8.22
-4.78
-1.99
-0.02
1.04
1.2
0.6
-0.51
-1.88
-3.31
-4.66
-5.91
-7.06
-8.09
-8.92
-9.45
-9.48
-8.93
-7.82
-6.35
-4.82
-3.55
-2.71
-2.26
-2.04
-1.87
-1.66
-1.42
-1.06
-0.27
1.38
4.26
8.35
13.08
17.44
20.3
20.89
19.07
15.39
10.95
7.02
4.56
3.9
4.65
5.85
6.38
5.47
2.94
-0.7
-4.55
-7.66
-9.36
-9.44
-8.16
-6.18
-4.36
-3.48
-3.93
-5.45
-7.22
-8.26
-8.01
-6.75
-5.45
-5.29
-6.88
-9.74
-12.47
-13.2
-10.49
-4.29
4.37
14.06
23.56
32.24
40.31
48.63
58.36
70.21
83.21
95.0
102.5
103.02
95.38
80.57
61.65
43.03
29.34
23.26
26.12
38.19
58.46
84.09
110.32
131.57
143.64
145.87
139.28
128.43
119.87
118.91
126.37
138.29
148.82
153.68
152.88
144.2
127.68
105.97
82.98
61.27
41.32
23.18
7.45
-3.56
-17.03
-39.55
-72.81
-113.09
-155.36
-196.32
-234.44
-269.56
-300.36
-338.33
-393.12
-466.32
-551.45
-640.48
-728.56
-814.19
-898.59
-917.2
-834.64
-663.98
-458.64
-268.87
-117.01
-3.22
81.72
134.4
169.48
184.76
176.61
148.03
109.45
71.97
41.28
27.25
30.09
47.99
66.51
73.36
64.56
45.02
22.66
3.52
-9.47
-17.2
-19.55
-23.11
-32.41
-47.08
-62.61
-74.4
-80.29
-80.45
-77.09
-70.77
-64.97
-62.03
-62.25
-64.3
-66.7
-68.45
-68.56
-66.38
-60.39
-51.03
-39.61
-27.81
-17.2
-8.96
-3.77
-1.61
-2.3
-4.98
-8.74
-12.5
-14.94
-14.68
-10.95
-3.75
5.87
16.02
24.9
31.69
36.8
41.5
46.69
51.83
54.79
52.8
44.11
29.2
10.88
-7.17
-22.08
-33.11
-41.32
-48.23
-54.39
-58.74
-59.44
-55.26
-46.66
-35.74
-25.13
-16.67
-10.53
-5.47
0.28
8.39
19.41
32.74
46.85
59.76
69.63
75.52
77.6
77.24
76.36
76.8
79.45
84.09
89.58
94.55
98.08
100.11
101.42
103.12
106.11
110.66
116.32
122.27
127.79
132.79
138.06
145.04
155.4
170.47
190.98
217.02
247.88
281.87
316.13
346.65
369.01
379.63
376.98
362.25
338.9
311.39
283.56
257.69
234.39
213.29
193.83
175.76
159.13
143.97
130.08
117.02
104.42
92.09
80.08
68.56
57.63
47.05
36.35
24.96
12.52
-0.78
-13.98
-25.45
-33.37
-36.28
-33.74
-26.57
-16.62
-6.25
2.42
8.07
10.33
9.67
6.96
3.08
-1.37
-6.07
-10.95
-16.07
-21.55
-27.46
-33.79
-40.3
-46.51
-51.65
-54.95
-55.96
-54.82
-52.46
-50.33
-50.06
-52.86
-59.28
-68.91
-80.44
-91.81
-100.53
-104.21
-101.25
-91.4
-75.96
-57.42
-38.58
-21.61
-7.46
4.15
14.13
23.25
31.66
38.83
43.96
46.43
46.13
43.51
39.48
35.11
31.3
28.55
26.82
25.56
23.95
21.29
17.25
12.05
6.22
0.31
-5.34
-10.73
-16.01
-21.35
-26.76
-32.21
-37.72
-43.48
-49.67
-56.13
-62.11
-66.31
-67.24
-63.91
-56.27
-45.34
-32.82
-20.52
-9.74
-1.09
5.35
9.75
12.16
12.53
10.92
7.69
3.62
-0.26
-3.02
-4.13
-3.73
-2.47
-1.29
-0.92
-1.62
-3.02
-4.33
-4.7
-3.66
-1.35
1.49
3.84
4.9
4.35
2.52
0.34
-0.87
0.34
5.3
14.8
28.81
46.02
63.97
79.52
89.8
93.12
89.49
80.54
68.68
56.17
44.44
33.91
24.32
15.29
6.68
-1.22
-7.96
-13.2
-17.01
-19.92
-22.7
-26.09
-30.45
-35.65
-41.12
-46.17
-50.35
-53.63
-56.32
-58.89
-61.66
-64.71
-67.88
-70.93
-73.62
-75.62
-76.37
-75.1
-71.0
-63.5
-52.62
-39.12
-24.27
-9.59
3.59
14.31
22.05
26.64
28.1
26.63
22.63
16.81
10.17
3.9
-0.96
-3.83
-4.86
-4.89
-5.12
-6.65
-9.98
-14.85
-20.33
-25.23
-28.65
-30.26
-30.43
-29.97
-29.74
-30.33
-31.75
-33.47
-34.53
-33.86
-30.52
-24.04
-14.45
-2.41
10.99
24.36
36.37
45.94
52.41
55.59
55.65
52.99
48.17
41.89
34.9
28.01
21.89
16.92
13.1
9.99
6.87
3.05
-1.9
-7.93
-14.52
-20.94
-26.59
-31.31
-35.49
-39.92
-45.48
-52.68
-61.47
-71.17
-80.7
-88.79
-94.2
-95.83
-92.95
-85.34
-73.53
-58.81
-42.92
-27.6
-14.03
-2.64
6.7
14.18
19.67
22.56
22.17
18.37
11.97
4.68
-1.58
-5.47
-6.76
-6.41
-5.95
-6.78
-9.48
-13.74
-18.73
-23.64
-28.19
-32.69
-37.81
-44.14
-51.86
-60.52
-69.21
-76.71
-81.89
-83.96
-82.65
-78.19
-71.23
-62.67
-53.59
-45.06
-38.1
-33.46
-31.37
-31.47
-32.8
-34.13
-34.22
-31.98
-26.51
-16.98
-2.68
16.71
40.76
68.03
96.26
122.85
145.54
162.93
174.58
180.87
182.52
180.43
175.56
169.05
162.41
157.58
156.71
161.68
173.33
190.58
210.12
226.91
235.64
232.51
216.45
189.31
154.64
116.12
76.26
36.23
-3.32
-41.23
-75.32
-102.9
-121.88
-131.87
-134.41
-132.29
-128.38
-124.51
-121.16
-117.79
-113.65
-108.51
-102.94
-98.03
-94.78
-93.49
-93.65
-94.16
-93.96
-92.5
-89.82
-86.18
-81.66
-75.78
-67.74
-56.86
-43.12
-27.45
-11.47
3.1
14.92
23.4
28.61
31.04
31.31
30.08
27.99
25.68
23.59
21.88
20.27
18.25
15.31
11.33
6.73
2.38
-0.75
-2.04
-1.46
0.29
2.07
2.62
0.97
-3.31
-10.07
-18.69
-28.28
-37.77
-45.96
-51.63
-53.59
-51.07
-43.97
-33.21
-20.6
-8.36
1.53
7.87
10.48
9.96
7.27
3.29
-1.38
-6.45
-11.74
-17.16
-22.68
-28.35
-34.26
-40.51
-47.07
-53.76
-60.28
-66.39
-72.08
-77.63
-83.56
-90.41
-98.54
-108.01
-118.63
-130.04
-141.74
-153.03
-162.75
-169.29
-170.64
-164.95
-151.01
-128.75
-99.22
-64.22
-25.96
13.24
50.82
84.0
109.94
126.45
132.69
129.72
120.19
107.38
94.04
81.56
70.07
59.14
48.69
39.34
32.06
27.34
24.56
21.95
17.24
8.67
-4.13
-19.62
-34.48
-44.41
-45.46
-35.58
-15.65
10.46
37.08
58.74
72.21
77.29
76.36
72.66
68.59
64.77
60.42
54.44
46.53
37.58
29.2
22.79
18.83
16.73
15.21
12.99
9.42
4.76
0.02
-3.51
-4.93
-4.21
-2.22
-0.42
-0.13
-1.88
-5.05
-8.0
-8.75
-5.83
1.15
11.33
23.04
34.53
44.54
52.53
58.44
62.26
63.65
62.13
57.5
50.28
41.8
33.77
27.53
23.48
20.93
18.63
15.45
10.98
5.59
0.18
-4.42
-7.81
-10.08
-11.7
-13.25
-15.21
-18.01
-21.81
-26.43
-31.26
-35.21
-36.94
-35.34
-29.92
-21.12
-10.2
1.17
11.41
19.41
24.66
27.17
27.3
25.56
22.56
18.93
15.31
12.17
9.77
8.09
6.92
6.04
5.35
4.94
4.87
5.06
5.11
4.39
2.28
-1.52
-6.83
-12.97
-18.92
-23.65
-26.22
-25.94
-22.45
-15.85
-6.8
3.47
13.44
21.7
27.38
30.36
31.11
30.32
28.49
25.76
22.06
17.39
12.03
6.54
1.52
-2.71
-6.19
-9.19
-11.93
-14.35
-16.11
-16.84
-16.46
-15.44
-14.67
-15.11
-17.28
-20.9
-24.87
-27.61
-27.65
-24.07
-16.8
-6.61
5.14
16.7
26.26
32.22
33.61
30.27
22.97
13.23
2.85
-6.63
-14.19
-19.45
-22.37
-23.01
-21.45
-17.99
-13.2
-8.01
-3.5
-0.58
0.31
-0.82
-3.61
-7.55
-12.01
-16.15
-18.92
-19.02
-15.26
-7.01
5.55
21.27
38.37
54.97
69.56
81.38
90.4
97.13
102.31
106.61
110.58
114.45
118.1
120.94
121.92
119.7
113.11
101.55
85.45
66.22
45.82
26.22
8.7
-6.39
-19.57
-31.82
-44.06
-56.73
-69.62
-81.89
-92.39
-100.0
-104.0
-104.23
-101.09
-95.34
-87.84
-79.42
-70.84
-62.86
-56.31
-51.95
-50.3
-51.32
-54.29
-57.91
-60.73
-61.47
-59.52
-55.03
-48.79
-41.88
-35.27
-29.58
-25.03
-21.61
-19.31
-18.28
-18.72
-20.6
-23.37
-26.01
-27.27
-26.18
-22.5
-16.75
-9.91
-2.95
3.57
9.59
15.29
20.79
25.96
30.45
33.85
35.98
36.89
36.85
36.1
34.8
32.93
30.4
27.15
23.32
19.23
15.34
12.06
9.62
7.99
6.95
6.15
5.25
4.02
2.36
0.35
-1.66
-3.15
-3.45
-2.04
1.29
6.33
12.5
19.06
25.32
30.68
34.61
36.6
36.25
33.4
28.35
21.78
14.6
7.54
1.0
-4.92
-10.19
-14.58
-17.68
-19.14
-19.0
-17.83
-16.58
-16.18
-17.14
-19.48
-22.89
-26.89
-31.11
-35.11
-38.22
-39.44
-37.67
-32.09
-22.7
-10.46
2.96
15.7
26.34
34.15
39.13
41.66
42.21
41.14
38.79
35.54
31.86
28.34
25.34
22.93
20.73
18.16
14.7
10.19
4.94
-0.43
-5.29
-9.3
-12.5
-15.17
-17.62
-19.95
-22.14
-24.09
-25.78
-27.2
-28.2
-28.33
-26.89
-23.3
-17.44
-9.86
-1.63
6.04
12.33
16.91
19.87
21.46
21.76
20.77
18.57
15.49
12.21
9.53
8.07
7.92
8.66
9.51
9.69
8.78
6.82
4.22
1.51
-0.92
-3.05
-5.13
-7.56
-10.68
-14.56
-18.98
-23.43
-27.16
-29.34
-29.23
-26.32
-20.61
-12.57
-3.11
6.68
15.77
23.37
29.03
32.57
34.08
33.77
31.97
29.12
25.67
22.08
18.71
15.81
13.55
11.93
10.87
10.16
9.6
8.99
8.31
7.56
6.76
5.85
4.65
2.9
0.45
-2.65
-6.12
-9.44
-11.97
-13.13
-12.51
-10.1
-6.27
-1.76
2.53
5.83
7.77
8.44
8.32
8.01
7.97
8.41
9.22
10.12
10.84
11.2
11.19
10.94
10.64
10.47
10.54
10.86
11.2
11.21
10.43
8.4
4.86
-0.14
-6.12
-12.21
-17.29
-20.28
-20.4
-17.4
-11.67
-4.12
4.06
11.69
17.8
21.83
23.58
23.13
20.8
16.96
12.02
6.43
0.62
-4.9
-9.6
-12.96
-14.56
-14.24
-12.16
-8.86
-5.15
-1.94
-0.0
0.16
-1.6
-5.0
-9.28
-13.38
-15.98
-15.87
-12.27
-5.1
4.93
16.48
28.05
38.36
46.69
52.94
57.49
60.79
63.23
64.98
66.02
66.34
66.01
65.28
64.55
64.24
64.63
65.8
67.48
69.27
70.59
70.93
69.84
67.03
62.36
55.94
48.32
40.43
33.51
28.71
26.72
27.6
30.79
35.41
40.62
45.69
49.87
52.11
50.97
44.88
32.69
14.28
-9.19
-35.45
-61.83
-85.92
-106.1
-121.59
-132.28
-138.39
-140.29
-138.47
-133.68
-126.95
-119.59
-112.84
-107.68
-104.43
-102.74
-101.61
-99.71
-95.72
-88.77
-78.65
-65.92
-51.79
-37.74
-25.16
-15.0
-7.63
-2.97
-0.6
-0.1
-1.15
-3.55
-7.2
-11.86
-17.15
-22.5
-27.22
-30.7
-32.54
-32.71
-31.56
-29.72
-27.85
-26.51
-26.01
-26.46
-27.8
-29.83
-32.19
-34.29
-35.3
-34.34
-30.73
-24.34
-15.68
-5.81
3.95
12.42
18.86
22.98
24.89
24.91
23.39
20.66
17.05
12.97
8.9
5.29
2.42
0.35
-1.21
-2.67
-4.42
-6.56
-8.96
-11.27
-13.3
-15.22
-17.61
-21.24
-26.63
-33.58
-41.02
-47.28
-50.61
-49.93
-45.27
-37.81
-29.57
-22.69
-18.78
-18.52
-21.61
-27.02
-33.53
-40.16
-46.5
-52.69
-59.17
-66.34
-74.24
-82.41
-90.14
-96.79
-102.15
-106.61
-111.16
-117.21
-126.25
-139.33
-156.32
-175.42
-192.99
-204.05
-203.72
-189.06
-160.44
-121.92
-80.29
-43.33
-17.78
-7.81
-14.14
-33.88
-61.07
-87.73
-105.56
-107.93
-91.55
-57.35
-10.03
43.46
96.13
142.41
179.16
205.64
223.1
234.12
242.5
252.95
269.97
296.09
330.16
366.47
395.97
409.6
402.06
374.65
335.02
294.01
261.09
240.58
230.78
226.04
220.36
210.53
196.93
182.3
169.25
158.26
147.27
132.74
111.26
81.0
42.56
-1.41
-46.94
-89.77
-126.02
-152.91
-169.21
-175.3
-172.88
-164.15
-150.8
-133.42
-111.5
-84.19
-51.52
-15.38
20.2
49.5
66.45
66.38
48.01
14.9
-24.28
-57.73
-74.28
-67.71
-39.59
1.08
41.39
69.83
80.49
74.28
56.75
34.22
10.67
-13.06
-37.77
-63.55
-88.43
-108.83
-121.46
-125.16
-121.56
-114.11
-106.27
-99.82
-94.2
-87.16
-76.23
-60.17
-39.62
-16.92
4.78
22.39
33.58
37.15
33.1
22.6
7.77
-8.74
-24.3
-36.92
-45.48
-49.74
-50.01
-46.85
-40.98
-33.57
-26.35
-21.5
-21.2
-26.96
-39.04
-56.26
-76.23
-95.91
-112.41
-123.74
-129.31
-130.16
-128.53
-127.18
-128.47
-133.56
-142.14
-152.62
-162.87
-171.09
-176.44
-179.25
-180.66
-181.96
-183.97
-186.55
-188.66
-188.63
-184.64
-174.97
-158.21
-133.45
-100.65
-60.94
-16.87
27.93
69.62
105.28
133.85
156.32
175.14
192.97
211.5
230.88
249.76
266.11
277.97
284.17
284.34
278.64
267.47
251.23
230.61
206.67
181.0
155.38
131.22
109.21
89.04
69.81
50.5
30.64
10.56
-8.78
-26.07
-40.33
-51.21
-59.21
-65.41
-71.03
-76.78
-82.51
-87.05
-88.61
-85.54
-76.97
-63.36
-46.4
-28.56
-12.41
-0.0
7.54
10.04
8.01
2.4
-5.73
-15.3
-25.24
-34.65
-42.91
-49.8
-55.61
-61.1
-67.23
-74.83
-84.23
-94.96
-105.73
-114.73
-120.15
-120.92
-117.22
-110.58
-103.45
-98.35
-96.96
-99.59
-105.16
-111.81
-117.68
-121.63
-123.5
-123.99
-124.21
-125.12
-127.37
-131.09
-136.12
-142.07
-148.28
-153.89
-157.78
-158.79
-155.98
-148.83
-137.24
-121.46
-101.96
-79.37
-54.62
-29.01
-4.1
18.65
38.15
53.91
66.02
75.08
82.28
89.71
100.36
117.28
142.13
174.05
209.72
244.74
275.51
300.31
318.84
330.96
335.92
332.93
322.69
308.59
296.19
290.95
295.53
308.36
324.4
337.66
343.83
341.49
331.6
316.06
296.57
274.39
250.57
226.19
202.24
179.42
157.85
137.25
117.07
96.62
75.14
51.88
26.27
-1.79
-32.09
-64.18
-97.57
-131.73
-165.89
-198.88
-229.09
-254.98
-275.46
-290.38
-300.52
-307.16
-311.57
-314.47
-316.0
-315.91
-314.03
-310.35
-304.88
-297.46
-287.37
-273.46
-254.59
-230.31
-201.3
-169.42
-137.18
-106.96
-80.34
-57.89
-39.43
-24.59
-13.29
-5.86
-2.82
-4.43
-10.39
-19.75
-31.08
-42.9
-54.0
-63.65
-71.36
-76.72
-79.05
-77.43
-71.12
-60.04
-45.16
-28.41
-12.16
1.45
11.0
16.0
16.8
14.32
9.92
5.16
1.58
0.32
1.9
6.04
11.9
18.45
24.8
30.42
35.17
39.09
42.5
45.92
49.95
55.1
61.62
69.31
77.73
86.35
94.78
102.8
110.17
116.46
120.94
122.62
120.46
113.7
102.21
86.64
68.54
49.99
33.22
19.98
11.16
6.57
5.21
5.65
6.61
7.3
7.53
7.53
7.77
8.62
10.15
12.07
13.81
14.69
14.33
12.82
10.74
8.96
8.22
8.81
10.52
12.66
14.4
15.04
14.13
11.56
7.49
2.32
-3.34
-8.71
-13.02
-15.68
-16.45
-15.55
-13.56
-11.26
-9.25
-7.83
-6.81
-5.65
-3.74
-0.67
3.54
8.37
13.08
16.89
19.29
20.08
19.34
17.33
14.36
10.76
6.77
2.52
-1.96
-6.59
-11.07
-14.82
-17.06
-17.12
-14.79
-10.54
-5.35
-0.36
3.6
6.23
7.73
8.43
8.58
8.19
7.12
5.33
2.99
0.52
-1.59
-2.99
-3.6
-3.71
-3.83
-4.49
-6.07
-8.71
-12.37
-16.86
-21.94
-27.27
-32.31
-36.32
-38.41
-37.81
-34.2
-27.89
-19.91
-11.59
-4.21
1.4
4.98
6.82
7.39
7.14
6.33
5.03
3.27
1.17
-1.0
-2.92
-4.3
-5.12
-5.55
-5.86
-6.36
-7.2
-8.49
-10.26
-12.58
-15.39
-18.35
-20.76
-21.66
-20.22
-16.11
-9.85
-2.63
4.05
9.0
11.69
12.32
11.45
9.71
7.46
4.85
1.93
-1.1
-3.94
-6.19
-7.64
-8.31
-8.47
-8.51
-8.83
-9.68
-11.19
-13.4
-16.24
-19.57
-23.06
-26.13
-28.1
-28.21
-26.03
-21.56
-15.36
-8.35
-1.53
4.28
8.63
11.44
12.81
12.96
12.05
10.28
7.92
5.37
3.05
1.27
0.12
-0.5
-0.86
-1.25
-1.9
-2.98
-4.61
-6.94
-10.11
-14.17
-18.83
-23.4
-26.82
-27.96
-26.03
-20.9
-13.19
-4.11
5.02
13.05
19.32
23.57
25.83
26.29
25.23
23.01
20.05
16.85
13.82
11.25
9.28
7.89
6.93
6.16
5.25
3.87
1.72
-1.43
-5.73
-11.16
-17.48
-24.09
-30.02
-33.99
-34.8
-31.7
-24.8
-15.09
-4.21
6.11
14.51
20.36
23.67
24.87
24.42
22.68
19.83
16.08
11.79
7.52
3.88
1.24
-0.36
-1.35
-2.38
-4.08
-6.81
-10.68
-15.65
-21.59
-28.34
-35.48
-42.29
-47.72
-50.72
-50.6
-47.36
-41.69
-34.64
-27.27
-20.32
-14.26
-9.44
-6.22
-4.95
-5.62
-7.71
-10.08
-11.22
-9.69
-4.47
4.84
18.04
34.31
52.36
70.31
85.93
97.07
102.4
101.97
97.26
90.63
84.32
79.81
77.46
76.94
77.73
79.64
82.71
86.9
91.76
96.34
99.49
100.3
98.23
93.1
84.85
73.41
58.87
41.9
23.87
6.64
-8.16
-19.91
-29.43
-38.82
-50.64
-66.96
-88.42
-114.06
-141.45
-167.2
-187.76
-200.15
-202.82
-196.2
-182.83
-166.6
-151.36
-139.25
-129.67
-119.51
-104.58
-81.59
-49.41
-9.27
36.12
83.72
130.81
174.99
213.7
244.03
263.19
269.43
262.88
245.69
221.36
193.54
165.1
137.72
112.32
89.84
71.82
60.27
56.71
60.91
70.11
79.26
82.44
75.01
55.4
25.64
-9.66
-45.28
-77.4
-104.5
-126.94
-145.71
-161.28
-173.02
-179.79
-180.7
-175.76
-165.92
-152.52
-136.68
-119.03
-99.99
-80.28
-61.3
-44.88
-32.63
-25.13
-21.75
-20.92
-21.01
-21.07
-21.15
-22.15
-25.17
-30.9
-39.34
-49.71
-60.84
-71.47
-80.61
-87.81
-93.29
-97.94
-102.98
-109.54
-118.01
-127.76
-137.13
-144.0
-146.46
-143.46
-135.18
-122.83
-108.1
-92.34
-76.06
-58.85
-39.83
-18.38
5.31
30.2
54.82
77.71
97.9
114.87
128.18
137.24
141.47
140.74
135.96
129.09
122.42
117.53
114.47
111.77
107.48
100.42
91.13
81.64
74.51
71.46
72.53
76.3
80.51
83.15
82.93
79.48
73.33
65.77
58.99
55.74
58.66
69.18
86.57
107.79
128.31
143.61
150.63
148.49
138.17
121.75
101.47
79.37
57.24
36.74
19.43
6.49
-1.79
-6.11
-7.98
-9.17
-10.97
-13.89
-17.7
-21.72
-25.4
-28.56
-31.59
-35.21
-40.12
-46.66
-54.46
-62.41
-68.77
-71.58
-69.08
-60.19
-44.91
-24.56
-1.55
21.05
40.3
54.12
61.72
63.65
61.3
56.36
50.17
43.52
36.75
29.93
23.12
16.4
9.87
3.59
-2.43
-8.08
-13.22
-17.68
-21.5
-24.96
-28.56
-32.93
-38.48
-45.28
-52.85
-60.18
-65.83
-68.37
-66.75
-60.7
-50.82
-38.27
-24.4
-10.31
3.31
15.97
27.08
35.79
41.05
42.05
38.68
31.64
22.22
11.75
1.07
-9.64
-20.57
-31.65
-41.92
-49.49
-51.99
-47.71
-36.48
-20.11
-1.8
15.01
27.95
36.35
41.01
43.28
44.06
43.4
40.64
35.28
27.6
18.97
11.41
6.82
6.16
9.16
14.41
19.96
23.95
24.94
21.8
13.49
-0.71
-20.59
-44.07
-67.0
-84.03
-90.55
-84.84
-69.03
-48.4
-28.99
-15.06
-7.65
-5.03
-4.48
-4.18
-4.0
-4.96
-7.94
-12.69
-17.93
-22.2
-24.89
-26.66
-28.76
-32.03
-35.88
-38.3
-36.7
-29.32
-16.25
0.48
17.7
32.4
42.62
47.82
48.47
45.5
39.9
32.63
24.69
17.1
10.76
6.04
2.75
0.22
-2.4
-5.71
-9.93
-14.86
-20.08
-25.09
-29.44
-32.65
-34.14
-33.2
-29.04
-21.03
-9.01
6.49
24.3
42.95
61.11
77.92
92.95
105.99
116.65
124.15
127.52
125.84
118.66
106.24
89.53
70.01
49.51
29.88
12.76
-0.66
-9.77
-14.65
-15.92
-14.6
-11.86
-8.76
-6.1
-4.31
-3.52
-3.7
-4.91
-7.36
-11.36
-17.22
-24.98
-34.31
-44.42
-54.15
-62.04
-66.64
-66.68
-61.47
-51.12
-36.62
-19.66
-2.31
13.51
26.34
35.43
40.7
42.61
41.95
39.64
36.58
33.53
31.1
29.65
29.3
29.98
31.32
32.89
34.26
35.21
35.84
36.52
37.6
39.09
40.42
40.32
37.24
29.87
17.8
1.9
-15.79
-32.6
-46.06
-54.64
-58.01
-56.88
-52.56
-46.36
-39.35
-32.28
-25.73
-20.27
-16.38
-14.36
-14.19
-15.5
-17.76
-20.44
-23.11
-25.48
-27.29
-28.37
-28.7
-28.51
-28.33
-28.76
-30.33
-33.18
-37.12
-41.74
-46.55
-51.16
-55.21
-58.25
-59.63
-58.54
-54.22
-46.35
-35.08
-21.22
-5.89
9.63
24.17
36.87
47.24
55.18
60.96
65.02
67.83
69.68
70.66
70.64
69.47
67.09
63.58
59.13
53.86
47.77
40.74
32.61
23.34
13.07
2.11
-9.07
-19.84
-29.42
-36.99
-41.86
-43.73
-42.87
-40.05
-36.33
-32.64
-29.52
-27.08
-25.11
-23.47
-22.17
-21.47
-21.65
-22.91
-25.3
-28.68
-32.81
-37.33
-41.72
-45.36
-47.62
-48.01
-46.42
-43.09
-38.6
-33.64
-28.97
-25.34
-23.38
-23.46
-25.48
-28.69
-31.81
-33.4
-32.37
-28.44
-22.2
-14.8
-7.44
-0.9
4.74
10.0
15.67
22.3
29.9
37.81
44.96
50.25
52.92
52.82
50.25
45.74
39.71
32.5
24.44
16.12
8.46
2.5
-1.01
-1.96
-0.89
1.33
3.93
6.61
9.57
13.22
17.87
23.45
29.53
35.46
40.61
44.59
47.3
48.83
49.33
48.92
47.58
45.2
41.66
36.95
31.19
24.66
17.69
10.61
3.7
-2.77
-8.5
-13.19
-16.64
-18.91
-20.38
-21.7
-23.51
-26.18
-29.61
-33.21
-36.13
-37.56
-36.94
-34.12
-29.28
-22.83
-15.32
-7.28
0.74
8.21
14.68
19.84
23.6
26.1
27.62
28.54
29.21
29.88
30.61
31.2
31.16
29.75
26.12
19.61
9.93
-2.61
-17.21
-32.83
-48.41
-62.95
-75.53
-85.21
-91.08
-92.49
-89.37
-82.4
-72.88
-62.37
-52.07
-42.53
-33.58
-24.59
-14.93
-4.37
6.81
17.82
27.6
34.99
39.14
39.71
37.14
32.53
27.29
22.62
19.21
17.12
15.99
15.31
14.61
13.6
12.16
10.12
7.36
4.1
0.92
-1.27
-1.52
0.72
5.39
11.9
18.62
23.81
26.22
25.61
22.74
19.13
16.0
14.25
14.23
14.63
13.68
10.24
4.43
-2.6
-9.01
-14.21
-18.09
-20.73
-23.72
-28.36
-34.66
-41.25
-46.38
-48.36
-47.82
-45.61
-41.98
-38.83
-38.29
-41.93
-50.2
-62.66
-77.36
-93.37
-108.93
-108.62
-81.3
-26.29
44.69
115.45
167.97
204.21
228.67
244.74
253.52
253.92
242.99
219.52
185.47
145.25
104.73
66.97
33.31
3.67
-24.65
-55.08
-90.02
-130.13
-174.71
-221.4
-268.09
-310.92
-344.24
-363.2
-365.06
-350.03
-321.28
-283.99
-243.28
-203.79
-168.12
-137.02
-111.0
-90.79
-76.86
-68.83
-65.1
-62.98
-60.06
-54.62
-45.98
-34.85
-23.04
-12.61
-5.25
-1.72
-1.73
-4.2
-7.68
-10.69
-12.15
-11.56
-8.63
-3.17
5.1
16.32
30.21
45.76
61.32
74.84
84.57
89.52
89.88
86.84
82.1
77.21
73.01
69.49
65.95
61.46
55.42
47.79
39.02
29.83
20.86
12.46
4.58
-3.11
-11.07
-19.7
-29.08
-38.87
-48.25
-56.11
-61.26
-62.9
-60.81
-55.53
-48.2
-40.28
-33.16
-27.84
-24.84
-24.29
-25.92
-29.19
-33.24
-36.89
-38.81
-37.75
-32.96
-24.46
-13.12
-0.37
12.22
23.44
32.7
39.97
45.62
50.14
53.85
56.86
58.99
59.99
59.55
57.5
53.88
49.03
43.69
38.97
36.31
37.09
42.17
51.42
63.51
76.11
86.59
92.81
93.76
89.72
81.92
71.88
60.92
49.93
39.48
29.98
21.8
15.15
9.99
5.94
2.39
-1.29
-5.64
-11.01
-17.39
-24.43
-31.2
-36.24
-37.77
-34.26
-25.13
-11.04
6.1
23.88
40.13
53.58
63.86
71.2
75.94
78.37
78.77
77.76
76.34
75.57
76.11
77.71
79.33
79.67
77.88
74.11
69.4
65.14
62.26
60.68
59.36
56.71
51.46
43.24
32.74
21.5
11.34
3.69
-0.75
-2.13
-1.29
0.58
2.28
2.86
1.75
-1.18
-5.69
-11.27
-17.31
-23.2
-28.52
-33.07
-36.84
-40.02
-42.96
-46.05
-49.64
-53.87
-58.6
-63.39
-67.77
-71.45
-74.52
-77.49
-81.0
-85.42
-90.49
-95.18
-97.85
-96.75
-90.56
-78.88
-62.37
-42.65
-21.76
-1.76
15.76
29.77
39.83
45.95
48.55
48.3
46.07
42.67
38.78
34.7
30.51
26.11
21.52
16.91
12.59
8.84
5.82
3.44
1.46
-0.54
-3.11
-6.84
-12.21
-19.26
-27.28
-34.7
-39.38
-39.16
-32.56
-19.34
-0.54
21.77
45.07
67.06
85.98
100.74
110.78
115.85
115.86
110.86
101.33
88.27
73.18
57.73
43.23
30.3
18.85
8.41
-1.28
-10.04
-17.31
-22.65
-26.17
-28.75
-31.66
-36.07
-42.46
-50.39
-58.67
-65.67
-69.78
-69.73
-64.83
-55.15
-41.5
-25.33
-8.43
7.44
20.89
31.02
37.43
40.19
39.63
36.43
31.48
25.89
20.79
16.99
14.9
14.33
14.74
15.46
15.96
15.98
15.46
14.42
12.8
10.44
7.15
2.7
-3.08
-10.34
-18.98
-28.45
-37.59
-44.71
-48.13
-46.81
-40.93
-31.84
-21.65
-12.38
-5.32
-0.86
1.32
1.76
0.91
-0.92
-3.41
-6.17
-8.8
-11.07
-13.03
-14.97
-17.1
-19.36
-21.34
-22.51
-22.49
-21.39
-19.7
-18.22
-17.69
-18.64
-21.26
-25.38
-30.32
-34.9
-37.53
-36.67
-31.46
-22.15
-10.05
2.94
15.13
25.53
33.94
40.44
44.98
47.12
46.4
42.79
36.99
30.25
23.85
18.49
14.21
10.62
7.44
4.79
3.1
2.74
3.68
5.32
6.77
7.21
6.13
3.46
-0.63
-5.75
-11.31
-16.34
-19.48
-19.26
-14.69
-5.84
6.01
18.67
29.84
37.94
42.59
44.43
44.6
44.0
42.87
40.87
37.44
32.33
26.03
19.71
15.0
13.46
16.19
23.54
35.13
49.94
66.56
83.34
98.62
110.89
119.13
123.06
123.21
120.91
117.93
115.97
116.27
119.5
125.8
135.02
146.93
161.21
177.35
194.46
210.98
224.81
233.54
235.02
228.01
212.56
189.93
162.03
130.66
96.86
60.84
22.54
-17.65
-58.25
-96.73
-130.21
-156.46
-174.8
-186.24
-192.91
-197.07
-200.07
-201.79
-200.94
-195.95
-185.91
-171.08
-152.74
-132.57
-112.0
-92.08
-73.62
-57.5
-44.67
-35.79
-30.8
-28.87
-28.78
-29.53
-30.69
-32.17
-33.79
-34.93
-34.72
-32.61
-28.88
-24.73
-21.74
-21.13
-23.28
-27.79
-33.82
-40.33
-46.35
-50.8
-52.57
-50.73
-44.85
-35.3
-23.3
-10.57
1.09
10.19
15.71
17.21
14.76
8.94
0.74
-8.54
-17.57
-25.22
-30.88
-34.52
-36.65
-37.99
-39.22
-40.71
-42.36
-43.84
-44.8
-45.17
-45.28
-45.71
-46.99
-49.24
-51.99
-54.29
-55.05
-53.6
-50.04
-45.26
-40.68
-37.65
-36.9
-38.4
-41.47
-45.31
-49.43
-53.91
-59.28
-66.08
-74.4
-83.62
-92.52
-99.63
-103.8
-104.55
-102.24
-97.86
-92.72
-87.94
-84.2
-81.64
-79.94
-78.52
-76.8
-74.29
-70.69
-65.85
-59.76
-52.31
-43.11
-31.28
-15.5
5.59
32.71
65.2
100.63
135.11
164.29
184.56
194.05
192.89
182.74
166.0
145.01
121.68
97.54
73.92
52.07
32.96
17.03
4.0
-6.81
-16.04
-23.74
-29.28
-31.67
-30.17
-24.9
-16.95
-7.86
1.06
9.38
17.65
26.89
37.94
50.92
65.06
79.07
91.48
101.13
107.31
109.86
109.07
105.6
100.32
94.12
87.72
81.54
75.62
69.71
63.43
56.49
48.73
40.35
31.91
24.23
18.19
14.41
12.96
13.26
14.33
15.11
14.78
12.97
9.69
5.21
-0.07
-5.72
-11.33
-16.42
-20.62
-23.71
-25.8
-27.3
-28.83
-30.93
-33.86
-37.47
-41.23
-44.55
-47.06
-48.84
-50.35
-52.16
-54.48
-56.86
-58.28
-57.51
-53.8
-47.29
-39.1
-30.95
-24.48
-20.69
-19.75
-21.19
-24.3
-28.58
-33.86
-40.26
-47.9
-56.73
-66.47
-76.6
-86.51
-95.64
-103.56
-109.99
-114.88
-118.36
-120.8
-122.86
-125.44
-129.57
-136.04
-144.96
-155.56
-166.27
-175.32
-181.3
-183.5
-181.64
-175.39
-163.82
-145.4
-118.7
-83.21
-39.77
9.69
62.94
118.02
173.24
226.68
275.57
316.42
345.82
361.74
364.23
355.3
337.92
314.76
287.48
256.9
223.59
188.47
152.87
117.93
83.69
48.84
11.09
-31.47
-78.9
-128.43
-174.48
-209.93
-228.17
-225.14
-200.76
-159.02
-106.78
-51.72
0.07
45.54
84.97
120.64
154.74
187.45
216.33
237.3
246.7
243.26
228.86
207.68
184.12
161.0
138.68
115.59
89.85
60.77
29.52
-1.15
-28.0
-48.21
-59.91
-62.31
-55.6
-40.81
-19.98
4.07
27.95
48.32
62.45
68.61
66.15
55.2
36.46
11.18
-18.78
-51.04
-83.05
-112.7
-138.68
-160.58
-178.52
-192.74
-203.43
-210.8
-215.3
-217.7
-218.75
-218.76
-217.22
-212.81
-204.0
-189.7
-169.94
-145.85
-119.39
-92.82
-68.04
-46.41
-28.64
-14.91
-5.07
1.14
4.09
4.15
1.62
-3.34
-10.74
-20.85
-33.95
-50.16
-69.24
-90.55
-113.24
-136.68
-160.7
-185.53
-211.16
-236.6
-259.35
-275.85
-282.47
-276.9
-258.94
-230.41
-194.29
-153.54
-110.57
-67.17
-24.85
14.81
50.35
80.8
106.1
126.99
144.49
159.36
171.8
181.81
189.79
196.84
204.4
213.35
222.99
230.87
233.52
227.91
212.98
190.21
163.06
135.51
110.67
90.03
73.84
61.84
53.89
49.87
49.14
50.29
51.67
52.47
53.65
57.83
68.01
85.85
110.26
137.32
161.46
177.26
181.0
171.44
149.57
117.98
80.03
39.3
-0.88
-37.72
-69.35
-95.0
-114.92
-130.25
-142.6
-153.64
-164.78
-176.77
-189.37
-201.4
-210.92
-215.93
-214.89
-207.33
-193.96
-176.46
-156.93
-137.24
-118.48
-100.72
-83.37
-65.59
-46.93
-27.61
-8.35
9.94
26.57
41.11
53.28
62.62
68.41
69.91
66.81
59.55
49.45
38.21
27.39
17.9
9.79
2.42
-5.09
-13.37
-22.35
-31.14
-38.29
-42.28
-42.16
-37.99
-30.94
-22.9
-15.91
-11.5
-10.35
-12.25
-16.35
-21.58
-26.96
-31.8
-35.7
-38.45
-39.99
-40.31
-39.45
-37.59
-34.98
-31.87
-28.42
-24.63
-20.44
-15.91
-11.38
-7.46
-4.86
-3.89
-4.27
-5.0
-4.63
-1.87
4.01
12.92
24.07
36.28
48.4
59.46
68.81
76.01
80.82
83.17
83.19
81.26
77.96
74.0
70.04
66.61
64.12
62.76
62.54
63.28
64.59
65.86
66.43
65.65
63.02
58.34
51.8
44.03
35.96
28.75
23.59
21.44
22.88
27.98
36.26
46.8
58.47
70.14
80.82
89.77
96.54
100.96
103.13
103.38
102.06
99.47
95.64
90.44
83.67
75.34
65.88
56.08
46.85
38.88
32.34
26.58
20.16
11.24
-1.55
-18.33
-37.46
-55.69
-69.06
-74.27
-70.46
-59.91
-47.57
-39.03
-38.13
-45.14
-56.4
-65.47
-64.92
-49.1
-16.09
31.09
85.16
135.8
172.11
185.67
173.34
139.33
93.15
46.58
9.56
-11.04
-13.22
0.69
25.43
54.96
85.31
112.97
134.41
145.16
143.56
129.91
106.08
74.38
37.42
0.17
-33.92
-63.69
-91.54
-117.08
-138.21
-151.43
-153.14
-140.38
-109.08
-60.21
-1.64
51.17
85.94
95.34
78.79
41.33
-26.82
-121.21
-223.99
-295.36
-326.52
-320.4
-288.73
-241.35
-188.18
-137.73
-92.48
-52.92
-19.27
5.14
20.41
28.17
31.14
32.03
33.84
41.88
59.6
87.34
120.72
156.55
191.59
222.28
244.26
253.82
250.91
237.67
217.68
193.75
169.97
149.65
134.49
124.25
117.73
114.27
112.91
112.09
109.18
102.56
91.69
77.19
60.4
43.08
27.14
13.73
2.81
-7.03
-17.63
-30.86
-47.94
-68.87
-92.02
-114.3
-132.07
-142.28
-143.61
-136.89
-124.71
-110.37
-96.73
-85.41
-76.71
-70.11
-64.91
-60.66
-57.14
-53.99
-50.51
-45.58
-38.1
-27.52
-14.21
0.55
15.13
28.21
39.29
48.74
57.37
65.81
74.15
81.92
88.52
93.72
97.85
101.73
106.23
111.91
118.73
126.06
132.86
138.01
140.54
140.06
137.08
133.33
131.4
133.89
142.06
154.56
167.21
174.13
169.91
152.05
122.19
85.52
48.25
15.2
-12.11
-35.36
-57.53
-80.98
-106.51
-133.67
-162.02
-191.44
-221.2
-248.39
-267.09
-269.7
-250.31
-208.62
-151.72
-92.48
-45.02
-19.55
-19.38
-41.27
-78.8
-125.85
-178.2
-232.47
-283.83
-324.67
-345.81
-340.1
-306.19
-250.31
-184.9
-123.83
-77.2
-48.53
-34.79
-29.73
-27.89
-27.0
-28.02
-32.9
-42.16
-53.63
-63.43
-67.94
-66.02
-59.75
-53.2
-50.24
-52.46
-58.52
-65.17
-69.09
-68.71
-64.82
-59.74
-55.81
-53.88
-52.97
-51.03
-46.28
-38.44
-28.9
-20.01
-13.8
-10.89
-10.38
-10.45
-9.32
-6.07
-1.02
4.52
8.83
10.45
8.76
4.33
-1.02
-4.75
-4.37
1.64
13.15
28.39
44.56
58.89
69.53
75.9
78.5
78.22
75.69
71.11
64.45
55.82
45.8
35.25
25.07
15.79
7.54
0.22
-6.18
-11.3
-14.4
-14.62
-11.52
-5.41
2.6
10.93
17.99
22.58
24.05
22.15
16.85
8.33
-2.89
-15.69
-28.34
-38.68
-44.67
-44.94
-39.14
-27.95
-12.74
4.77
22.81
39.7
53.96
64.38
70.25
71.56
69.05
63.9
57.39
50.5
43.74
37.3
31.29
25.89
21.34
17.68
14.63
11.52
7.57
2.19
-4.69
-12.55
-20.39
-26.98
-31.17
-32.08
-29.26
-22.74
-12.98
-0.88
12.34
25.28
36.49
44.82
49.54
50.43
47.75
42.07
34.05
24.39
13.78
3.06
-6.83
-14.96
-20.69
-23.97
-25.21
-25.12
-24.38
-23.47
-22.74
-22.63
-23.77
-26.79
-31.85
-38.31
-44.56
-48.49
-48.23
-42.93
-33.09
-20.38
-7.0
5.05
14.58
21.25
25.39
27.6
28.38
27.99
26.51
23.98
20.56
16.53
12.13
7.49
2.56
-2.78
-8.55
-14.44
-19.91
-24.3
-27.19
-28.64
-29.28
-30.06
-31.97
-35.6
-40.84
-46.83
-52.04
-54.71
-53.38
-47.34
-36.9
-23.23
-8.01
7.1
20.87
32.55
41.83
48.56
52.59
53.81
52.34
48.63
43.59
38.35
34.0
31.26
30.22
30.36
30.79
30.62
29.3
26.83
23.63
20.25
17.11
14.23
11.28
7.75
3.24
-2.37
-8.92
-15.99
-23.0
-29.16
-33.53
-35.08
-32.93
-26.65
-16.6
-3.91
9.78
22.79
33.9
42.54
48.77
52.93
55.36
56.35
56.1
54.89
53.16
51.37
49.87
48.75
47.82
46.69
44.83
41.8
37.26
31.13
23.61
15.18
6.51
-1.75
-9.13
-15.47
-20.95
-25.96
-30.92
-36.1
-41.38
-46.13
-49.37
-49.93
-46.93
-40.07
-29.88
-17.54
-4.55
7.69
18.24
26.58
32.55
36.08
37.14
35.85
32.63
28.23
23.63
19.78
17.22
16.01
15.73
15.71
15.41
14.61
13.56
12.89
13.29
15.21
18.57
22.68
26.43
28.68
28.53
25.56
19.89
12.08
3.07
-5.97
-13.75
-19.15
-21.57
-21.14
-18.68
-15.38
-12.31
-10.02
-8.58
-7.82
-7.74
-8.65
-11.0
-14.93
-19.88
-24.58
-27.37
-26.85
-22.38
-14.46
-4.6
5.08
12.45
15.91
14.79
9.49
1.33
-7.9
-16.48
-23.24
-27.86
-30.85
-33.2
-35.99
-39.91
-45.01
-50.68
-55.8
-59.09
-59.39
-56.11
-49.32
-39.78
-28.63
-17.11
-6.3
2.92
9.88
13.99
14.86
12.54
7.73
1.76
-3.88
-8.0
-10.22
-10.86
-10.59
-9.83
-8.54
-6.31
-2.87
1.51
5.96
9.45
11.23
11.23
9.99
8.29
6.82
5.91
5.85
7.1
10.36
16.38
25.48
37.3
50.69
64.12
76.23
86.17
93.81
99.52
103.96
107.86
111.87
116.53
122.16
128.62
135.34
141.29
145.43
147.03
146.0
142.98
139.03
135.16
131.81
128.35
123.13
113.88
98.42
75.6
45.84
11.26
-24.84
-58.94
-88.25
-111.3
-127.92
-138.82
-144.94
-147.01
-145.53
-141.03
-134.42
-127.09
-120.62
-116.25
-114.36
-114.33
-114.84
-114.58
-112.89
-110.02
-107.04
-105.38
-106.17
-109.79
-115.51
-121.49
-125.13
-123.72
-115.43
-100.15
-79.66
-57.16
-36.16
-19.23
-7.34
0.03
4.2
6.44
7.65
8.59
10.39
14.76
23.72
38.89
60.76
88.33
119.37
150.83
179.53
202.48
217.38
222.84
218.71
206.15
187.38
165.19
142.05
119.58
98.18
77.43
56.75
36.09
16.28
-1.39
-16.01
-28.04
-39.43
-52.84
-69.99
-90.2
-110.11
-124.87
-130.48
-125.7
-112.57
-95.27
-77.95
-63.09
-51.11
-41.3
-33.13
-26.99
-23.73
-23.75
-26.29
-29.58
-31.82
-32.18
-31.21
-30.43
-31.39
-34.79
-40.25
-46.67
-53.01
-58.85
-64.62
-71.2
-79.44
-89.58
-101.08
-112.71
-122.98
-130.61
-135.0
-136.24
-134.9
-131.41
-125.43
-115.51
-99.26
-74.23
-39.09
5.3
55.49
106.16
151.5
186.78
209.39
218.87
216.18
202.73
179.85
149.02
112.33
72.78
33.98
-0.85
-29.92
-53.2
-71.95
-87.38
-99.38
-106.09
-104.66
-92.66
-69.71
-38.15
-2.57
31.65
60.05
80.12
91.47
95.13
92.61
85.43
75.02
63.09
51.77
43.28
39.38
40.74
46.9
56.65
68.47
80.85
92.22
100.78
104.47
101.43
90.69
72.81
50.01
25.74
3.74
-12.99
-22.89
-26.23
-24.83
-21.49
-19.19
-20.43
-26.71
-38.34
-54.43
-72.98
-91.16
-105.72
-113.78
-113.69
-105.8
-92.63
-78.26
-67.04
-62.19
-64.88
-74.16
-87.61
-102.27
-115.42
-124.78
-128.61
-125.61
-114.98
-96.54
-70.87
-39.22
-3.25
35.25
74.47
112.57
147.65
177.83
201.46
217.59
226.34
228.93
227.41
223.97
220.32
217.15
214.12
210.19
204.17
195.35
183.77
170.11
155.51
141.28
128.78
119.19
113.08
109.99
108.07
104.5
96.34
81.83
61.09
36.17
10.31
-13.27
-32.28
-45.94
-54.94
-61.02
-66.47
-73.45
-83.34
-95.97
-109.43
-120.56
-126.21
-124.83
-117.36
-106.97
-97.57
-92.02
-90.9
-92.7
-95.02
-96.18
-96.11
-96.11
-97.78
-101.85
-107.71
-113.79
-118.45
-120.57
-119.67
-115.62
-108.31
-97.8
-84.55
-69.67
-54.73
-41.23
-30.08
-21.53
-15.53
-12.32
-12.67
-17.66
-28.11
-43.98
-64.0
-85.68
-105.65
-120.08
-125.37
-118.94
-100.23
-71.26
-36.57
-2.15
26.23
44.71
52.24
50.27
41.62
29.28
15.59
2.45
-8.26
-14.39
-13.9
-5.68
9.62
29.49
50.39
68.87
82.66
90.93
94.06
93.02
88.89
82.69
75.39
67.95
61.22
55.82
51.98
49.65
48.62
48.58
49.17
49.92
50.32
49.96
48.71
46.82
44.83
43.4
43.1
44.38
47.52
52.6
59.4
67.35
75.46
82.46
87.13
88.49
85.98
79.37
68.72
54.21
36.25
15.54
-6.85
-29.64
-51.51
-71.37
-88.48
-102.44
-113.07
-120.36
-124.31
-125.02
-122.67
-117.54
-110.07
-100.93
-91.07
-81.61
-73.59
-67.62
-63.58
-60.54
-57.12
-51.89
-43.96
-33.24
-20.45
-6.93
5.64
15.55
21.34
22.04
17.36
7.97
-4.58
-18.07
-29.96
-38.03
-40.78
-37.72
-29.35
-16.84
-1.66
14.81
31.39
46.98
60.35
70.0
74.28
71.87
62.31
46.5
26.75
6.33
-11.34
-23.66
-29.51
-29.38
-25.03
-18.75
-12.74
-8.55
-6.93
-7.82
-10.5
-13.87
-16.74
-18.12
-17.56
-15.28
-12.1
-9.23
-7.81
-8.62
-11.85
-17.02
-23.05
-28.63
-32.59
-34.55
-35.15
-36.03
-39.15
-45.96
-56.53
-69.33
-81.57
-90.16
-92.79
-88.69
-78.74
-64.99
-49.88
-35.38
-22.56
-11.5
-1.65
7.62
16.51
24.61
31.03
34.92
35.89
34.19
30.51
25.56
19.69
12.93
5.21
-3.23
-11.73
-19.43
-25.69
-30.48
-34.4
-38.4
-43.22
-49.1
-55.59
-61.76
-66.41
-68.38
-66.89
-61.68
-53.16
-42.34
-30.5
-18.8
-8.07
1.28
9.06
15.13
19.29
21.41
21.69
20.71
19.41
18.79
19.47
21.48
24.21
26.6
27.48
26.04
22.01
15.73
7.99
-0.29
-8.23
-15.09
-20.29
-23.3
-23.7
-21.36
-16.53
-9.86
-2.15
5.98
14.26
22.82
31.95
41.8
52.13
62.41
71.93
80.14
86.81
92.02
95.95
98.62
99.69
98.47
94.24
86.79
76.73
65.64
55.54
48.07
43.73
41.43
38.75
32.82
21.13
2.41
-22.98
-52.93
-83.49
-109.52
-125.83
-129.05
-119.36
-101.23
-82.15
-70.07
-70.08
-82.59
-103.5
-126.38
-145.46
-157.7
-163.24
-164.28
-163.55
-163.17
-164.42
-168.08
-174.85
-185.35
-199.7
-217.01
-235.09
-250.71
-260.29
-260.94
-251.39
-232.42
-206.67
-177.7
-148.9
-122.34
-98.51
-76.5
-54.76
-31.86
-6.91
20.61
51.17
85.34
123.54
165.27
208.43
249.3
283.32
306.63
317.34
316.05
305.23
288.04
267.14
244.25
220.38
196.41
173.37
152.51
135.12
122.38
115.18
113.8
117.38
123.7
129.36
130.95
126.35
115.55
100.43
83.55
66.77
50.66
35.03
20.1
7.3
-0.97
-2.56
3.09
14.41
28.31
41.54
51.89
58.6
62.03
62.79
61.27
57.55
51.83
44.83
37.77
31.96
28.23
26.5
25.9
25.23
23.6
20.75
17.11
13.33
9.89
6.77
3.61
-0.05
-4.3
-8.65
-12.21
-14.16
-14.19
-12.65
-10.32
-7.73
-4.81
-0.84
5.03
13.0
22.14
30.46
35.7
36.26
31.95
24.02
14.61
5.78
-1.05
-5.4
-7.47
-7.74
-6.69
-4.73
-2.31
-0.05
1.25
0.87
-1.57
-5.87
-11.23
-16.59
-20.96
-23.67
-24.47
-23.29
-20.0
-14.24
-5.44
6.85
22.64
41.2
61.1
80.61
98.25
113.33
126.04
137.14
147.35
156.71
164.49
169.42
170.22
166.13
156.99
143.2
125.53
105.14
83.67
63.27
46.17
34.05
27.48
25.59
26.57
28.39
29.66
30.07
30.4
32.1
36.55
44.27
54.25
63.76
68.83
65.31
50.3
23.37
-13.25
-55.4
-98.4
-138.5
-173.56
-202.91
-226.56
-244.42
-256.1
-261.18
-259.84
-253.27
-243.62
-233.47
-225.11
-219.98
-218.43
-219.87
-223.15
-227.09
-230.77
-233.84
-236.45
-238.91
-241.23
-242.63
-241.33
-235.01
-221.44
-199.48
-169.6
-133.75
-94.43
-53.44
-11.04
33.89
82.57
134.65
187.01
234.05
269.45
288.57
290.18
276.67
252.68
223.17
192.13
162.47
136.74
117.58
107.0
104.97
108.18
110.46
104.93
87.17
57.46
20.77
-15.44
-44.64
-63.62
-72.93
-75.21
-72.83
-66.27
-54.31
-35.79
-11.43
15.26
38.98
54.88
60.64
57.37
48.64
38.52
29.53
21.92
14.35
5.42
-4.99
-15.48
-23.94
-28.86
-30.08
-28.68
-26.23
-23.95
-22.34
-21.46
-21.33
-22.1
-23.83
-26.04
-27.61
-27.11
-23.39
-16.26
-6.51
4.49
15.39
25.27
33.62
40.07
44.15
45.45
43.93
40.25
35.69
31.58
28.65
26.68
24.7
21.55
16.71
10.56
4.19
-1.16
-4.8
-6.84
-8.08
-9.61
-12.33
-16.7
-22.69
-29.83
-37.27
-43.95
-48.62
-50.19
-47.89
-41.48
-31.35
-18.44
-4.1
10.08
22.52
31.86
37.24
38.54
36.46
32.48
28.5
26.31
27.05
30.81
36.66
43.07
48.45
51.73
52.51
50.84
46.92
40.88
32.76
22.84
11.83
0.86
-8.85
-16.43
-21.58
-24.47
-25.32
-24.1
-20.44
-13.98
-4.83
6.12
17.25
26.69
32.96
35.53
34.83
32.04
28.53
25.32
22.88
21.1
19.59
17.94
15.99
13.83
11.82
10.29
9.38
8.9
8.3
6.88
4.06
-0.35
-6.1
-12.58
-19.06
-24.82
-29.28
-31.89
-32.24
-30.22
-26.08
-20.56
-14.65
-9.25
-4.76
-0.98
2.66
6.7
11.21
15.66
19.11
20.69
19.98
17.22
13.22
9.05
5.61
3.48
2.74
3.08
3.96
4.72
4.82
3.88
1.76
-1.51
-5.7
-10.48
-15.45
-20.22
-24.36
-27.55
-29.47
-29.83
-28.32
-24.74
-19.16
-12.12
-4.69
1.63
5.51
6.27
4.34
1.12
-1.56
-2.3
-0.79
2.0
4.38
4.74
2.27
-2.62
-8.72
-14.59
-19.26
-22.6
-25.13
-27.67
-30.82
-34.76
-39.21
-43.72
-47.72
-50.6
-51.74
-50.45
-46.16
-38.56
-27.87
-14.93
-1.11
11.78
21.97
28.02
29.25
25.95
19.32
11.09
3.08
-3.45
-7.96
-10.6
-11.79
-11.9
-11.04
-9.16
-6.4
-3.29
-0.76
0.07
-1.68
-6.31
-13.49
-22.29
-31.53
-39.95
-46.41
-50.02
-50.23
-46.89
-40.41
-31.73
-22.15
-12.97
-5.14
1.02
5.81
9.8
13.43
16.63
18.89
19.48
18.0
14.65
10.29
6.09
3.08
1.88
2.52
4.7
7.86
11.35
14.47
16.48
16.83
15.38
12.66
9.82
8.27
9.25
13.31
20.22
29.07
38.63
47.71
55.37
61.1
64.9
67.1
68.21
68.52
67.94
65.97
62.03
55.84
47.71
38.4
28.75
19.11
9.31
-1.08
-12.08
-23.06
-32.89
-40.57
-45.86
-49.29
-51.66
-53.34
-53.86
-52.33
-48.23
-41.99
-34.89
-28.37
-23.07
-18.56
-13.73
-7.83
-1.15
4.93
8.63
8.7
5.08
-1.15
-8.27
-14.62
-19.06
-21.14
-21.14
-19.96
-19.05
-20.16
-24.96
-34.47
-48.42
-65.07
-81.28
-93.29
-97.74
-92.66
-78.11
-56.15
-30.15
-3.96
19.16
37.08
48.94
54.99
56.18
53.91
49.68
45.02
41.23
39.21
39.31
41.34
44.69
48.52
51.99
54.41
55.33
54.59
52.26
48.61
43.93
38.45
32.36
25.86
19.37
13.67
9.73
8.4
10.06
14.34
20.11
25.8
29.83
30.97
28.65
23.01
14.87
5.55
-3.49
-11.06
-16.75
-21.11
-25.5
-31.5
-40.26
-52.04
-66.11
-80.97
-94.88
-106.24
-113.98
-117.58
-117.16
-113.32
-106.89
-98.42
-87.73
-73.77
-55.11
-30.79
-1.28
31.02
62.19
87.96
105.03
112.06
109.82
100.57
87.25
72.73
59.39
48.91
42.19
39.18
38.78
39.1
37.9
33.31
24.17
10.43
-6.98
-26.35
-45.57
-62.53
-75.68
-84.37
-88.95
-90.43
-89.86
-87.68
-83.64
-77.1
-67.8
-56.3
-44.06
-32.81
-23.84
-17.55
-13.51
-10.99
-9.38
-8.24
-7.13
-5.36
-2.21
2.38
7.31
10.18
8.15
-0.67
-16.06
-35.26
-53.79
-66.98
-71.78
-67.65
-56.46
-41.46
-25.78
-11.42
1.17
12.57
23.69
34.87
45.63
54.87
61.4
64.53
64.42
61.97
58.49
55.26
53.29
53.18
54.96
57.98
60.77
61.24
57.27
47.49
32.13
13.35
-5.19
-19.43
-26.33
-24.84
-16.2
-3.25
10.7
23.03
32.41
38.76
42.62
44.53
44.66
42.86
39.0
33.33
26.47
19.18
11.97
4.83
-2.54
-10.39
-18.48
-26.02
-32.07
-36.05
-38.26
-39.76
-42.0
-46.09
-52.24
-59.58
-66.55
-71.41
-72.98
-70.9
-65.66
-58.25
-49.61
-40.49
-31.3
-22.35
-14.11
-7.23
-2.31
0.47
1.47
1.58
1.81
2.87
4.99
7.98
11.44
15.0
18.23
20.59
21.43
20.13
16.36
10.29
2.57
-5.89
-14.22
-21.62
-27.37
-30.71
-30.86
-27.18
-19.56
-8.64
4.15
16.89
27.7
35.33
39.59
41.36
42.18
43.58
46.39
50.42
54.62
57.55
58.12
56.0
51.68
46.1
40.18
34.47
29.06
23.8
18.55
13.21
7.79
2.23
-3.59
-9.87
-16.66
-23.69
-30.2
-34.94
-36.47
-33.6
-25.98
-14.34
-0.5
13.22
24.77
33.08
38.42
42.03
45.38
49.38
53.92
58.03
60.4
60.01
56.56
50.49
42.77
34.5
26.69
20.06
15.09
11.98
10.67
10.79
11.68
12.36
11.73
8.7
2.4
-7.6
-21.14
-37.24
-54.1
-69.15
-79.66
-83.38
-79.42
-68.66
-53.52
-37.12
-22.13
-9.95
-0.5
7.22
14.29
21.23
27.72
32.97
36.16
36.81
34.85
30.57
24.57
17.73
11.15
5.82
2.33
0.51
-0.57
-2.16
-5.24
-9.96
-15.68
-21.32
-26.1
-29.88
-33.2
-36.68
-40.43
-43.8
-45.42
-43.89
-38.37
-29.0
-16.84
-3.46
9.62
21.31
31.03
38.57
43.81
46.59
46.78
44.46
40.07
34.51
28.88
24.16
20.91
19.09
18.17
17.41
16.31
14.72
12.9
11.15
9.44
7.09
2.89
-4.51
-15.93
-31.16
-48.7
-66.09
-80.53
-89.57
-91.77
-86.93
-76.05
-60.99
-43.98
-27.12
-11.98
0.66
10.82
18.99
25.67
30.97
34.43
35.33
33.25
28.53
22.41
16.58
12.42
10.39
10.02
10.29
10.43
10.2
9.81
9.27
7.93
4.56
-2.0
-12.01
-24.25
-36.29
-45.3
-49.2
-47.32
-40.48
-30.38
-18.73
-6.74
5.05
16.45
27.06
36.1
42.38
44.82
42.91
37.04
28.34
18.26
8.14
-1.05
-8.59
-13.72
-15.48
-12.93
-5.54
6.3
21.11
36.52
49.74
58.29
60.4
55.49
44.35
29.0
12.47
-1.97
-11.66
-15.34
-13.39
-7.5
0.19
7.95
15.0
21.37
27.45
33.4
38.84
42.91
44.6
43.23
38.76
31.81
23.49
14.99
7.2
0.47
-5.31
-10.5
-15.46
-20.47
-25.84
-32.15
-40.2
-50.84
-64.41
-80.28
-96.74
-111.27
-121.27
-124.85
-121.39
-111.71
-97.85
-82.49
-68.23
-57.06
-49.85
-46.37
-45.39
-45.26
-44.46
-42.1
-38.11
-33.11
-28.02
-23.57
-20.05
-17.38
-15.24
-13.41
-11.76
-10.24
-8.71
-6.86
-4.43
-1.39
1.84
4.34
5.09
3.38
-0.86
-6.94
-13.6
-19.11
-21.56
-19.08
-10.21
5.49
27.09
52.03
76.66
97.11
110.36
115.09
111.79
102.33
89.14
74.43
59.7
45.79
33.08
21.85
12.52
5.76
2.19
1.95
4.32
7.58
9.37
7.48
0.64
-10.94
-25.49
-40.07
-51.01
-54.59
-47.88
-29.76
-1.9
30.87
61.54
82.94
90.38
83.46
66.17
45.11
26.6
14.35
8.59
7.01
6.7
5.72
3.7
1.17
-1.46
-4.45
-8.46
-13.76
-19.54
-24.03
-25.39
-23.01
-18.26
-14.28
-14.51
-20.92
-32.77
-46.72
-58.22
-63.5
-61.09
-52.24
-40.03
-27.86
-18.11
-11.54
-7.58
-5.15
-3.43
-2.25
-1.98
-3.09
-5.73
-9.54
-13.6
-16.71
-17.71
-15.75
-10.49
-2.25
8.03
18.79
28.0
33.61
34.13
29.33
20.63
10.95
3.83
2.2
7.25
18.04
31.94
45.78
57.06
64.75
69.33
72.24
75.1
78.96
83.93
89.03
92.46
92.14
86.54
75.43
60.27
43.91
29.76
20.54
17.34
19.17
23.51
27.23
27.69
23.45
14.5
1.96
-12.32
-26.22
-37.68
-45.07
-47.42
-44.61
-37.46
-27.49
-16.58
-6.48
1.62
7.17
10.26
11.22
10.44
8.17
4.39
-1.09
-8.62
-18.46
-30.51
-44.05
-57.71
-69.73
-78.6
-83.62
-85.2
-84.66
-83.69
-83.73
-85.59
-89.4
-94.73
-100.68
-106.06
-109.39
-109.25
-104.63
-95.25
-81.74
-65.42
-47.98
-31.04
-15.85
-3.3
6.13
12.32
15.59
16.67
16.56
16.25
16.43
17.17
18.1
18.6
18.25
17.07
15.52
14.19
13.37
12.89
12.04
10.0
6.32
1.23
-4.22
-8.56
-10.34
-8.69
-3.46
4.82
15.25
27.01
39.42
52.01
64.34
75.74
85.26
91.77
94.36
92.72
87.36
79.58
71.07
63.38
57.48
53.53
51.13
49.72
48.97
48.95
49.93
51.97
54.54
56.4
55.87
51.4
42.27
28.99
13.39
-1.88
-14.06
-21.02
-21.9
-17.21
-8.7
1.17
9.78
14.85
14.85
9.27
-1.36
-15.7
-32.01
-48.62
-64.31
-78.38
-90.44
-100.17
-107.07
-110.51
-110.01
-105.61
-97.97
-88.41
-78.6
-70.19
-64.4
-61.79
-62.05
-64.03
-66.06
-66.33
-63.54
-57.31
-48.31
-38.01
-28.09
-19.93
-14.14
-10.55
-8.34
-6.41
-3.72
0.5
6.47
13.91
22.03
29.79
36.16
40.35
41.94
40.85
37.4
32.13
25.83
19.42
13.75
9.48
6.88
5.91
6.4
8.27
11.61
16.53
22.88
30.09
37.27
43.61
48.94
53.87
59.45
66.41
74.42
81.97
87.03
88.14
85.36
80.37
75.6
72.88
72.44
72.95
72.44
69.68
64.97
60.14
57.51
58.68
63.58
70.43
76.34
78.28
74.16
63.51
47.7
29.82
13.78
3.28
0.6
5.78
16.48
28.76
38.38
42.24
39.2
30.21
17.64
4.21
-7.86
-17.38
-24.16
-28.71
-31.9
-34.63
-37.64
-41.47
-46.26
-51.75
-57.23
-61.59
-63.66
-62.6
-58.32
-51.62
-44.09
-37.5
-33.19
-31.52
-31.88
-32.96
-33.29
-31.71
-27.57
-20.89
-12.35
-3.27
4.49
9.05
9.15
4.77
-2.65
-10.87
-17.83
-22.61
-25.63
-28.05
-30.73
-33.41
-34.74
-33.02
-27.23
-17.68
-5.94
5.78
15.36
21.22
22.41
18.47
9.38
-4.32
-21.43
-40.04
-57.9
-73.0
-84.08
-90.86
-93.8
-93.5
-90.28
-84.11
-74.95
-63.33
-50.48
-38.3
-28.66
-22.77
-20.84
-22.01
-24.92
-28.09
-30.44
-31.42
-31.07
-29.88
-28.69
-28.37
-29.54
-32.38
-36.5
-41.17
-45.57
-49.08
-51.39
-52.52
-52.69
-52.17
-51.12
-49.53
-47.28
-44.25
-40.45
-36.01
-31.17
-25.98
-20.17
-13.17
-4.41
6.33
18.64
31.52
43.79
54.52
63.39
70.73
77.15
83.18
88.87
93.74
97.16
98.8
98.96
98.6
98.84
100.35
102.85
104.99
104.95
101.24
93.5
82.83
71.37
61.55
55.18
52.84
53.85
56.59
59.05
59.43
56.58
50.41
42.0
33.49
27.55
26.48
31.21
40.79
52.53
62.91
68.8
68.55
62.47
52.56
41.81
33.28
29.16
30.27
35.83
43.86
52.02
58.55
62.93
65.86
68.38
70.87
72.39
70.84
64.15
51.4
33.52
13.02
-7.15
-24.8
-39.23
-50.95
-60.94
-69.76
-77.35
-83.21
-87.14
-89.6
-91.57
-94.09
-97.43
-100.89
-103.04
-102.66
-99.55
-94.88
-90.74
-89.14
-91.07
-96.06
-102.34
-107.55
-109.45
-106.52
-98.19
-85.03
-68.59
-51.18
-35.24
-22.73
-14.35
-9.33
-5.64
-0.72
7.51
19.93
35.84
53.13
68.84
79.97
84.4
81.6
72.91
61.15
49.7
41.23
36.82
35.52
34.8
31.42
22.63
7.23
-13.83
-37.43
-59.02
-73.95
-78.8
-72.53
-56.75
-35.06
-11.84
9.13
25.51
36.64
43.07
45.89
46.09
44.23
40.47
34.88
27.71
19.53
11.24
3.67
-2.68
-7.9
-12.53
-17.21
-22.21
-27.31
-31.95
-35.65
-38.49
-41.06
-44.28
-48.77
-54.55
-60.91
-66.77
-71.06
-73.11
-72.86
-70.68
-67.21
-63.13
-58.95
-55.04
-51.59
-48.67
-46.25
-44.34
-43.01
-42.36
-42.53
-43.64
-45.74
-48.83
-52.78
-57.26
-61.59
-64.74
-65.39
-62.37
-55.05
-43.84
-30.35
-17.21
-7.43
-3.5
-6.58
-16.11
-30.0
-45.32
-59.23
-69.68
-75.71
-77.26
-74.76
-68.75
-59.63
-47.63
-32.89
-15.62
3.74
24.34
44.81
63.35
78.07
87.52
91.22
89.93
85.35
79.48
73.94
69.54
66.15
63.17
59.83
55.63
50.35
43.87
36.09
26.82
16.11
4.52
-6.46
-14.56
-17.34
-13.05
-1.57
15.22
34.02
51.1
63.72
70.97
73.64
73.49
72.05
69.83
66.28
60.46
51.83
40.9
29.22
18.73
11.1
7.07
6.21
7.21
8.33
8.1
5.81
1.78
-2.78
-6.47
-8.31
-8.36
-7.57
-7.21
-7.92
-9.13
-9.15
-6.09
1.05
11.77
24.29
36.74
48.14
58.84
69.82
81.55
93.11
102.32
106.7
104.76
96.7
84.07
68.8
52.27
35.29
18.54
3.24
-8.83
-16.12
-18.33
-17.01
-15.13
-15.8
-20.91
-30.44
-42.7
-55.33
-66.23
-73.89
-77.22
-75.23
-67.32
-54.03
-37.72
-22.49
-12.88
-12.06
-20.23
-34.44
-49.76
-61.42
-66.53
-64.72
-57.4
-46.48
-33.28
-18.36
-2.12
14.48
29.74
41.62
48.6
50.43
48.17
43.66
38.77
34.55
31.0
27.38
22.86
17.15
10.74
4.68
-0.02
-2.94
-4.44
-5.36
-6.46
-7.91
-9.21
-9.52
-8.2
-5.13
-0.74
4.29
9.41
14.4
19.18
23.61
27.26
29.49
29.67
27.53
23.34
17.85
12.1
7.05
3.29
0.9
-0.49
-1.49
-2.62
-4.12
-5.84
-7.45
-8.72
-9.75
-11.01
-13.09
-16.34
-20.54
-24.86
-27.95
-28.41
-25.22
-18.08
-7.48
5.54
19.8
34.47
49.15
63.75
78.11
91.63
103.29
112.04
117.28
119.25
118.94
117.58
116.05
114.47
112.31
108.86
103.68
96.78
88.46
79.04
68.61
57.07
44.5
31.26
18.13
6.0
-4.47
-13.06
-19.79
-24.58
-27.0
-26.3
-22.04
-14.71
-6.13
0.86
3.33
-0.41
-10.14
-23.75
-38.25
-51.12
-61.25
-69.01
-75.45
-81.32
-86.44
-90.03
-91.49
-91.18
-90.6
-91.65
-95.6
-102.31
-110.25
-117.41
-122.61
-126.27
-130.26
-136.72
-146.48
-157.84
-166.67
-167.8
-157.21
-133.8
-99.88
-60.09
-19.45
18.45
52.07
81.16
105.46
123.79
134.34
135.88
129.01
116.47
102.16
89.38
79.54
71.81
64.14
54.72
43.12
30.41
18.48
9.08
2.94
-0.29
-1.69
-2.47
-3.51
-5.34
-8.19
-12.2
-17.5
-24.13
-31.74
-39.48
-46.07
-50.14
-50.76
-47.71
-41.65
-33.77
-25.4
-17.61
-11.06
-6.06
-2.73
-1.16
-1.33
-2.96
-5.51
-8.21
-10.3
-11.27
-10.97
-9.69
-7.9
-6.13
-4.75
-3.95
-3.76
-4.22
-5.54
-8.18
-12.73
-19.67
-29.04
-40.17
-51.68
-61.68
-68.27
-70.12
-66.91
-59.39
-49.2
-38.34
-28.53
-20.82
-15.53
-12.47
-11.33
-11.93
-14.22
-18.0
-22.75
-27.48
-31.15
-33.01
-33.03
-31.89
-30.63
-30.15
-30.77
-32.21
-33.76
-34.79
-34.96
-34.45
-33.82
-33.75
-34.67
-36.47
-38.44
-39.44
-38.33
-34.33
-27.43
-18.34
-8.24
1.58
10.07
16.46
20.28
21.26
19.44
15.36
10.13
5.26
2.3
2.53
6.74
15.31
28.39
45.91
67.27
90.88
113.92
132.65
143.48
144.11
134.46
116.65
94.19
70.81
49.69
33.18
22.91
20.03
24.91
36.83
53.57
71.66
87.22
97.1
99.83
95.79
86.76
75.03
62.64
50.87
40.18
30.41
21.06
11.57
1.53
-9.22
-20.68
-32.74
-45.34
-58.47
-72.02
-85.76
-99.24
-111.89
-123.19
-132.7
-140.04
-144.75
-146.16
-143.49
-136.14
-124.14
-108.36
-90.47
-72.47
-56.11
-42.44
-31.71
-23.59
-17.59
-13.41
-11.0
-10.29
-10.92
-12.02
-12.43
-11.14
-7.8
-2.97
2.04
5.81
7.43
6.88
4.92
2.57
0.45
-1.61
-4.41
-8.86
-15.17
-22.41
-28.6
-31.43
-29.29
-21.93
-10.7
2.02
13.74
22.71
28.38
31.24
32.19
31.83
30.18
26.82
21.45
14.33
6.54
-0.5
-5.5
-7.82
-7.48
-4.83
-0.12
6.55
14.92
24.12
32.44
37.71
38.16
33.26
24.02
12.63
1.58
-7.21
-12.73
-14.75
-13.36
-8.6
-0.45
10.83
24.31
38.37
50.93
60.09
64.77
64.93
61.42
55.5
48.24
40.33
32.26
24.55
17.9
12.88
9.43
6.58
2.63
-4.05
-14.12
-26.63
-39.38
-49.86
-56.31
-58.44
-57.27
-54.29
-50.58
-46.4
-41.22
-34.38
-25.48
-14.62
-2.25
11.05
24.6
37.65
49.29
58.62
64.95
68.23
68.89
67.68
65.32
62.27
58.87
55.51
52.62
50.29
47.92
44.15
37.4
26.96
13.81
0.65
-9.12
-12.99
-10.51
-3.44
5.18
12.56
17.27
19.49
20.4
21.32
23.03
25.75
29.37
33.77
38.93
44.78
51.0
56.99
62.0
65.27
66.31
64.92
61.23
55.72
49.21
42.72
37.32
33.83
32.6
33.22
34.43
34.24
30.24
20.26
3.03
-21.19
-50.28
-80.58
-107.66
-127.46
-137.42
-136.93
-127.32
-111.14
-91.2
-69.98
-49.32
-30.67
-15.47
-5.19
-1.04
-3.4
-11.26
-22.26
-33.23
-41.26
-44.66
-43.41
-38.88
-33.08
-27.72
-23.74
-21.19
-19.61
-18.51
-17.78
-17.7
-18.83
-21.59
-25.83
-30.53
-33.88
-33.68
-28.14
-16.65
-0.15
19.13
38.45
55.53
69.17
79.14
85.68
88.89
88.29
83.23
73.45
59.64
43.62
27.86
14.76
5.92
1.63
0.89
1.88
2.55
1.28
-2.78
-9.69
-18.93
-29.77
-41.49
-53.38
-64.39
-72.9
-76.67
-73.46
-61.85
-42.11
-16.46
11.41
37.44
58.4
72.72
80.56
83.25
82.52
79.75
75.83
71.32
66.79
62.95
60.55
59.93
60.64
61.43
60.67
57.07
50.32
41.28
31.61
22.93
15.98
10.19
3.88
-4.95
-17.69
-34.44
-53.78
-73.27
-90.15
-102.18
-108.26
-108.49
-103.95
-96.19
-86.76
-76.94
-67.76
-59.96
-54.08
-50.26
-48.15
-46.8
-44.95
-41.35
-35.23
-26.46
-15.6
-3.6
8.48
19.6
28.8
35.27
38.5
38.43
35.67
31.28
26.63
22.71
19.89
17.75
15.45
12.3
8.29
4.39
2.22
3.44
9.0
18.81
31.68
45.84
59.52
71.33
80.38
86.22
88.69
87.96
84.61
79.68
74.36
69.72
66.33
64.14
62.7
61.53
60.37
59.29
58.56
58.48
59.24
60.89
63.25
65.77
67.49
67.18
63.8
57.06
47.88
38.27
30.72
27.19
28.36
33.27
39.81
45.49
48.4
47.5
42.57
33.84
21.63
6.41
-11.05
-29.4
-46.69
-60.7
-69.45
-71.73
-67.44
-57.7
-44.72
-31.44
-20.97
-15.86
-17.46
-25.6
-38.69
-54.45
-70.68
-85.95
-99.62
-111.42
-120.93
-127.14
-128.77
-124.73
-114.79
-99.77
-81.31
-61.4
-41.78
-23.79
-8.33
3.93
12.47
17.01
17.79
15.76
12.45
9.61
8.5
9.41
11.41
12.79
11.77
7.4
0.13
-8.31
-15.57
-19.72
-20.06
-17.45
-13.86
-11.61
-12.38
-16.62
-23.35
-30.48
-35.53
-36.44
-32.26
-23.45
-11.56
1.53
14.45
26.91
39.35
52.24
65.17
76.53
83.96
85.43
80.25
69.48
55.59
41.4
29.05
19.37
11.85
5.13
-2.21
-10.9
-20.55
-29.76
-36.73
-40.15
-39.96
-37.64
-35.64
-36.46
-41.58
-50.99
-63.12
-75.27
-84.01
-85.83
-78.0
-59.66
-32.9
-2.91
23.26
39.06
41.09
30.62
13.1
-4.07
-14.56
-15.42
-7.67
4.84
17.41
26.39
30.04
28.38
22.41
13.47
2.89
-7.78
-16.48
-20.71
-18.24
-8.26
7.69
25.69
40.6
48.06
46.28
36.73
23.28
10.4
1.21
-3.46
-4.71
-4.39
-3.68
-2.5
0.17
5.46
13.73
24.33
36.06
47.77
58.82
68.91
77.64
84.05
86.69
84.26
76.36
63.99
49.22
34.44
21.45
11.1
3.46
-1.57
-3.83
-2.99
1.0
7.28
14.04
18.96
20.05
16.49
8.75
-1.64
-12.71
-22.62
-29.97
-33.78
-33.48
-28.87
-20.22
-8.45
5.04
18.5
30.28
39.09
44.16
45.27
42.69
37.3
30.38
23.57
18.36
15.71
15.68
17.33
18.98
18.73
15.09
7.43
-3.77
-17.05
-30.53
-42.39
-51.53
-57.76
-61.82
-64.98
-68.49
-73.0
-78.29
-83.24
-86.28
-86.05
-81.96
-74.41
-64.64
-54.19
-44.36
-35.83
-28.72
-22.87
-18.05
-14.06
-10.59
-6.99
-2.37
4.01
12.11
20.69
27.53
30.15
26.93
17.99
5.38
-7.54
-17.31
-21.65
-20.25
-14.76
-8.18
-3.72
-3.75
-9.17
-19.2
-31.69
-43.77
-52.76
-56.81
-55.34
-48.92
-38.87
-26.64
-13.44
-0.14
12.53
23.8
32.93
39.46
43.49
45.74
47.13
48.26
48.95
48.32
45.32
39.49
31.38
22.42
14.35
8.5
5.31
4.37
4.72
5.34
5.33
3.91
0.39
-5.81
-14.8
-25.92
-37.61
-47.77
-54.45
-56.61
-54.42
-49.11
-42.21
-34.89
-27.55
-19.94
-11.83
-3.46
4.3
10.32
13.84
15.0
14.82
14.74
15.94
18.91
23.33
28.44
33.37
37.44
40.18
41.27
40.5
37.77
33.27
27.4
20.76
13.88
7.14
0.78
-4.95
-9.57
-12.39
-12.64
-9.75
-3.71
4.81
14.57
23.99
31.63
36.6
38.76
38.61
36.88
34.05
30.07
24.42
16.54
6.39
-5.25
-16.74
-26.03
-31.27
-31.39
-26.46
-17.61
-6.71
4.1
12.84
17.92
18.23
13.15
2.71
-12.23
-29.85
-47.45
-62.05
-71.16
-73.53
-69.28
-59.55
-45.8
-29.46
-11.88
5.31
20.14
30.71
35.98
36.3
33.27
28.91
24.53
20.15
14.82
7.71
-0.92
-9.55
-16.06
-19.04
-18.61
-16.5
-15.09
-16.28
-20.58
-27.02
-33.78
-38.91
-41.08
-39.83
-35.46
-28.8
-20.87
-12.66
-5.01
1.55
6.79
10.79
13.82
16.18
17.97
19.1
19.3
18.34
16.15
12.87
8.9
4.72
0.84
-2.31
-4.43
-5.38
-5.19
-4.0
-2.2
-0.47
0.29
-0.91
-4.91
-12.04
-21.96
-33.55
-45.06
-54.44
-59.86
-60.12
-54.99
-45.28
-32.65
-19.11
-6.55
3.7
11.1
15.75
18.2
19.11
19.21
19.11
19.37
20.24
21.55
22.73
22.94
21.59
18.55
14.36
9.89
5.95
2.84
0.25
-2.47
-5.95
-10.41
-15.61
-21.02
-26.05
-30.25
-33.37
-35.27
-35.78
-34.71
-31.86
-27.05
-20.23
-11.45
-1.03
10.4
21.72
31.55
38.44
41.43
40.36
36.04
29.96
23.78
18.85
15.89
15.05
16.08
18.51
21.68
24.67
26.34
25.62
21.9
15.38
7.11
-1.53
-9.31
-15.83
-21.52
-27.21
-33.36
-39.49
-44.15
-45.47
-42.0
-33.44
-20.66
-5.22
11.34
27.91
43.8
58.35
70.6
79.26
83.22
82.1
76.64
68.45
59.5
51.36
44.88
40.07
36.42
33.3
30.22
27.0
23.8
20.99
19.04
18.27
18.56
19.37
19.76
18.77
15.76
10.84
4.86
-0.68
-4.15
-4.25
-0.47
6.78
16.26
26.24
34.96
41.01
43.61
42.69
38.74
32.58
25.11
17.16
9.38
2.11
-4.6
-10.96
-17.24
-23.53
-29.57
-34.8
-38.55
-40.47
-40.64
-39.6
-38.09
-36.75
-36.04
-36.24
-37.55
-40.04
-43.44
-47.04
-49.72
-50.37
-48.41
-44.05
-38.19
-31.91
-26.03
-20.85
-16.26
-12.13
-8.6
-6.07
-4.97
-5.45
-7.19
-9.51
-11.65
-12.93
-13.06
-12.12
-10.64
-9.38
-9.16
-10.57
-13.75
-18.28
-23.38
-28.09
-31.69
-33.84
-34.62
-34.41
-33.61
-32.52
-31.32
-30.11
-28.86
-27.38
-25.22
-21.58
-15.65
-6.95
4.23
16.66
28.37
37.26
41.85
41.85
38.19
32.64
27.04
22.59
19.51
17.23
14.92
12.0
8.56
5.21
2.77
1.71
1.9
2.62
2.88
1.88
-0.6
-4.27
-8.48
-12.6
-16.25
-19.25
-21.41
-22.46
-21.93
-19.37
-14.54
-7.59
0.97
10.28
19.33
27.03
32.4
34.88
34.53
32.18
29.12
26.58
25.18
24.67
24.17
22.79
20.27
17.15
14.42
12.88
12.58
12.78
12.3
10.19
6.16
0.82
-4.78
-9.57
-13.03
-15.35
-17.19
-19.17
-21.34
-23.02
-23.03
-20.31
-14.48
-5.98
4.21
15.05
25.86
36.11
45.03
51.29
53.2
49.62
40.94
29.54
19.08
12.97
12.76
17.33
23.49
27.53
26.98
21.65
13.36
4.78
-2.01
-6.34
-8.97
-11.23
-14.12
-17.77
-21.54
-24.61
-26.65
-28.02
-29.5
-31.74
-34.71
-37.57
-38.94
-37.46
-32.35
-23.7
-12.5
-0.45
10.46
18.41
22.15
21.46
17.21
11.06
4.88
0.08
-2.84
-4.26
-5.04
-5.99
-7.41
-9.05
-10.37
-10.97
-10.85
-10.42
-10.32
-11.12
-13.08
-16.21
-20.28
-24.92
-29.58
-33.51
-35.79
-35.51
-32.01
-25.24
-15.79
-4.89
6.06
15.78
23.42
28.65
31.5
32.22
31.0
27.98
23.25
17.02
9.67
1.77
-5.98
-12.98
-18.82
-23.35
-26.64
-28.85
-30.19
-30.91
-31.17
-31.13
-30.84
-30.31
-29.64
-29.09
-29.11
-30.1
-32.1
-34.55
-36.28
-35.93
-32.53
-26.05
-17.61
-9.01
-2.06
2.2
3.84
3.8
3.33
3.42
4.46
6.37
8.84
11.67
14.74
17.93
20.88
23.1
24.11
23.89
23.04
22.57
23.5
26.19
29.99
33.35
34.34
31.54
24.7
14.98
4.49
-4.51
-10.43
-12.8
-12.14
-9.41
-5.39
-0.42
5.43
11.93
18.35
23.46
25.84
24.43
19.01
10.3
-0.26
-11.01
-20.6
-28.35
-34.27
-38.82
-42.44
-45.31
-47.37
-48.56
-49.23
-50.17
-52.4
-56.76
-63.41
-71.88
-81.12
-89.94
-97.1
-101.32
-101.39
-96.35
-85.94
-70.89
-52.85
-33.82
-15.38
1.77
17.72
32.78
46.88
59.43
69.48
76.32
79.75
80.1
77.93
73.73
67.88
60.86
53.38
46.39
40.94
37.86
37.6
40.05
44.54
49.77
53.92
54.95
51.17
41.89
27.95
11.7
-3.66
-14.98
-20.2
-18.91
-12.31
-2.67
7.47
16.05
21.81
24.36
23.8
20.39
14.36
5.99
-4.14
-15.09
-25.56
-34.36
-40.77
-44.77
-46.89
-47.9
-48.32
-48.31
-47.87
-47.13
-46.66
-47.32
-49.88
-54.62
-61.07
-68.1
-74.28
-78.33
-79.24
-76.46
-69.83
-59.48
-45.85
-29.68
-12.02
5.94
22.9
37.76
49.68
58.25
63.65
66.54
67.88
68.55
68.93
68.86
67.88
65.62
62.14
58.02
53.94
50.26
46.78
42.76
37.48
30.75
23.03
15.27
8.34
2.58
-2.18
-6.24
-9.5
-11.22
-10.29
-5.84
2.1
12.46
23.42
33.12
40.36
44.93
47.34
48.39
48.67
48.35
47.33
45.54
43.11
40.43
37.89
35.73
33.85
31.78
28.8
24.21
17.49
8.53
-2.37
-14.44
-26.78
-38.55
-49.27
-58.87
-67.46
-74.93
-80.65
-83.39
-81.81
-75.11
-63.57
-48.65
-32.56
-17.51
-5.02
4.28
10.49
13.98
15.12
14.18
11.58
8.02
4.36
1.33
-0.7
-1.88
-2.65
-3.49
-4.6
-6.01
-7.63
-9.54
-12.0
-15.36
-19.85
-25.46
-31.95
-38.87
-45.68
-51.7
-56.0
-57.51
-55.24
-48.65
-38.06
-24.79
-10.86
1.62
11.13
17.17
20.24
21.33
21.36
20.64
18.95
15.87
11.37
6.21
1.76
-0.5
0.35
4.2
10.0
16.24
21.56
25.23
27.2
27.86
27.68
26.97
25.79
24.03
21.49
18.04
13.71
8.95
4.76
2.64
4.17
10.37
21.2
35.3
50.37
63.94
74.11
80.04
81.91
80.51
76.75
71.29
64.59
57.09
49.45
42.55
37.2
33.76
32.0
31.09
30.03
28.09
25.07
21.21
16.92
12.37
7.37
1.5
-5.46
-13.2
-20.67
-26.35
-28.64
-26.33
-18.97
-7.15
7.57
22.86
36.01
44.62
47.08
43.04
33.42
20.07
5.18
-9.33
-22.1
-32.47
-40.19
-45.27
-47.92
-48.53
-47.79
-46.55
-45.57
-45.2
-45.27
-45.23
-44.59
-43.31
-41.92
-41.29
-42.04
-43.98
-45.88
-45.84
-41.9
-32.89
-18.98
-1.63
16.82
33.94
47.83
57.46
62.65
63.74
61.31
56.0
48.49
39.61
30.35
21.72
14.62
9.49
6.22
4.29
2.89
1.38
-0.54
-2.7
-4.79
-6.56
-8.21
-10.48
-14.35
-20.61
-29.22
-39.01
-47.83
-53.22
-53.24
-47.23
-36.11
-21.97
-7.4
5.39
15.03
21.15
24.04
24.32
22.65
19.66
16.02
12.39
9.37
7.28
6.05
5.22
4.22
2.62
0.32
-2.36
-4.97
-7.14
-8.86
-10.55
-12.91
-16.65
-22.09
-28.83
-35.67
-40.86
-42.62
-39.85
-32.53
-21.75
-9.28
3.1
14.14
23.25
30.28
35.13
37.42
36.68
32.69
25.91
17.56
9.28
2.53
-1.96
-4.44
-5.88
-7.53
-10.29
-14.45
-19.67
-25.17
-30.08
-33.68
-35.54
-35.57
-33.98
-31.07
-27.09
-22.05
-15.67
-7.61
2.3
13.72
25.76
37.15
46.57
53.08
56.25
56.21
53.4
48.43
41.96
34.72
27.5
21.19
16.57
14.13
13.92
15.43
17.82
20.1
21.44
21.41
20.01
17.48
14.2
10.46
6.48
2.6
-0.67
-2.61
-2.51
-0.01
4.68
10.79
17.24
23.03
27.55
30.5
31.77
31.14
28.24
22.72
14.63
4.57
-6.33
-16.75
-25.57
-32.15
-36.42
-38.71
-39.6
-39.65
-39.32
-38.87
-38.38
-37.88
-37.44
-37.28
-37.7
-38.83
-40.45
-41.83
-41.86
-39.46
-34.03
-25.83
-15.98
-6.11
2.2
7.84
10.4
10.06
7.43
3.18
-1.96
-7.32
-12.2
-15.98
-18.23
-18.88
-18.29
-17.06
-15.78
-14.76
-14.01
-13.34
-12.61
-12.01
-11.96
-12.93
-15.03
-17.76
-20.03
-20.49
-17.94
-11.78
-2.2
9.96
23.34
36.49
48.01
56.86
62.34
64.28
63.02
59.32
54.31
49.12
44.65
41.32
39.03
37.27
35.43
33.03
30.0
26.71
23.77
21.82
21.18
21.64
22.3
21.89
19.07
13.06
4.13
-6.29
-16.01
-22.84
-25.37
-23.47
-18.26
-11.53
-5.0
0.23
3.88
6.26
7.84
8.91
9.43
9.17
7.92
5.65
2.51
-1.23
-5.29
-9.55
-13.96
-18.48
-22.98
-27.31
-31.35
-35.11
-38.69
-42.11
-45.08
-46.89
-46.49
-42.93
-35.66
-24.82
-11.28
3.57
18.04
30.46
39.41
43.96
43.89
39.76
32.83
24.77
17.2
11.27
7.4
5.3
4.22
3.3
1.93
-0.15
-2.81
-5.72
-8.62
-11.44
-14.45
-18.08
-22.76
-28.57
-35.02
-41.03
-45.12
-45.84
-42.27
-34.35
-22.89
-9.43
4.29
16.73
26.78
33.87
37.73
38.36
35.96
31.01
24.32
16.92
9.9
4.09
-0.13
-2.91
-4.72
-6.14
-7.62
-9.31
-11.14
-12.92
-14.56
-16.11
-17.85
-20.11
-23.14
-26.87
-30.78
-33.89
-34.95
-32.79
-26.63
-16.41
-2.8
12.89
28.99
43.76
55.71
63.87
67.89
68.12
65.39
60.88
55.79
51.1
47.34
44.55
42.36
40.11
37.12
32.85
27.05
19.84
11.49
2.32
-7.45
-17.7
-28.34
-39.03
-49.03
-57.19
-62.18
-62.89
-58.81
-50.3
-38.48
-24.91
-11.08
1.84
13.19
22.6
29.84
34.76
37.31
37.68
36.21
33.32
29.31
24.44
19.03
13.53
8.59
4.79
2.36
1.09
0.44
-0.2
-1.15
-2.32
-3.42
-4.28
-5.01
-6.09
-8.05
-11.26
-15.83
-21.72
-28.79
-36.93
-45.84
-54.92
-63.0
-68.5
-69.83
-66.03
-57.22
-44.69
-30.55
-16.9
-5.22
4.08
11.52
18.0
24.29
30.64
36.76
42.09
46.19
49.07
51.21
53.46
56.74
61.59
67.9
74.76
80.66
83.88
83.13
78.05
69.39
58.66
47.6
37.39
28.32
19.88
11.19
1.65
-8.67
-18.89
-27.52
-32.82
-33.08
-27.01
-14.2
4.4
26.26
47.61
64.3
73.1
72.64
63.7
48.47
29.37
7.95
-15.59
-41.9
-71.37
-103.02
-134.11
-160.73
-179.39
-188.61
-189.73
-186.31
-182.44
-180.43
-179.48
-175.94
-165.25
-144.63
-115.03
-81.17
-49.5
-25.12
-9.8
-1.66
3.05
7.7
13.73
20.71
27.82
35.38
45.17
59.43
79.24
103.75
130.6
157.19
181.65
202.82
219.45
229.55
230.89
222.17
204.36
180.75
155.68
132.48
112.12
92.89
71.58
45.51
14.32
-19.68
-52.35
-79.61
-99.52
-113.24
-124.58
-138.02
-156.2
-178.26
-200.02
-215.93
-221.89
-217.29
-205.2
-190.51
-177.38
-167.17
-158.3
-147.62
-132.33
-111.44
-86.17
-59.42
-34.47
-13.89
1.36
11.98
19.74
26.75
34.74
44.51
55.92
67.88
78.29
83.98
81.26
67.01
40.16
2.74
-40.13
-81.36
-113.99
-133.26
-137.6
-128.27
-108.06
-79.78
-45.35
-6.01
36.91
81.22
123.77
161.2
190.76
211.02
222.04
224.58
219.21
205.61
182.71
149.88
108.51
62.39
16.94
-22.71
-53.65
-76.01
-92.14
-104.89
-115.65
-123.59
-126.09
-120.08
-103.46
-76.17
-40.26
0.68
42.36
80.67
112.38
135.41
149.07
153.94
151.67
144.7
135.79
127.46
121.17
116.95
113.36
108.03
98.57
83.35
61.66
33.32
-1.74
-43.25
-89.53
-136.24
-176.04
-200.3
-202.5
-181.65
-143.82
-100.21
-62.76
-39.37
-31.39
-34.43
-41.86
-48.67
-53.21
-56.5
-59.87
-62.88
-62.97
-57.02
-43.56
-24.24
-3.58
12.86
21.02
20.02
12.31
2.36
-5.43
-8.42
-6.31
-0.63
6.51
13.48
19.53
24.53
28.39
30.71
30.65
27.3
20.13
9.34
-3.96
-17.7
-29.2
-35.95
-36.45
-30.84
-21.11
-10.28
-1.25
4.28
6.3
6.17
5.84
7.03
10.77
17.32
26.36
37.15
48.52
58.94
66.75
70.62
70.05
65.65
59.01
52.13
46.75
43.69
42.6
42.14
40.41
35.52
26.12
11.81
-6.71
-27.74
-49.05
-68.23
-83.18
-92.29
-94.54
-89.67
-78.21
-61.6
-42.04
-22.18
-4.44
9.34
18.32
22.46
22.39
19.04
13.47
6.74
-0.23
-6.77
-12.51
-17.41
-21.66
-25.5
-29.09
-32.45
-35.54
-38.22
-40.34
-41.66
-41.88
-40.7
-37.89
-33.55
-28.2
-22.83
-18.71
-16.86
-17.57
-20.06
-22.55
-22.95
-19.66
-12.28
-1.71
10.24
21.72
31.45
39.01
44.58
48.66
51.68
54.0
55.98
58.06
60.73
64.33
68.94
74.37
80.32
86.58
93.2
100.39
108.23
116.28
123.36
127.56
126.73
119.14
104.26
83.04
57.81
31.56
7.08
-13.74
-30.2
-42.49
-51.09
-56.34
-58.21
-56.63
-51.97
-45.51
-39.27
-35.42
-35.51
-39.83
-47.34
-56.18
-64.48
-70.95
-75.2
-77.71
-79.78
-83.32
-90.59
-103.4
-121.94
-143.86
-164.01
-175.68
-172.97
-153.19
-118.34
-74.7
-30.61
6.42
31.93
45.28
48.8
46.06
40.18
33.11
25.72
18.54
12.38
8.32
7.35
9.56
13.89
18.34
20.83
20.17
16.51
11.25
6.2
2.72
1.11
0.63
0.06
-1.7
-5.09
-9.89
-15.48
-21.24
-26.77
-31.89
-36.38
-39.79
-41.41
-40.48
-36.6
-29.94
-21.32
-11.96
-3.08
4.39
10.01
13.73
15.73
16.23
15.49
13.76
11.41
8.85
6.46
4.48
2.9
1.57
0.26
-1.19
-2.8
-4.52
-6.39
-8.62
-11.57
-15.53
-20.37
-25.24
-28.72
-29.17
-25.4
-17.28
-5.85
6.86
18.49
27.15
31.92
32.94
31.27
28.31
25.31
22.92
21.04
18.85
15.1
8.62
-1.2
-14.01
-28.52
-42.86
-55.09
-63.83
-68.43
-68.99
-66.23
-61.19
-55.08
-49.12
-44.29
-41.12
-39.46
-38.41
-36.57
-32.43
-24.98
-14.05
-0.52
13.98
27.39
37.81
43.91
45.28
42.51
36.97
30.45
24.59
20.47
18.41
18.08
18.76
19.74
20.62
21.25
21.72
22.07
22.21
21.9
20.77
18.51
14.91
10.0
4.12
-1.99
-7.23
-10.38
-10.4
-6.92
-0.28
8.51
18.2
27.67
36.12
43.08
48.08
50.67
50.4
47.14
41.24
33.7
25.76
18.55
12.7
8.17
4.53
1.19
-2.28
-6.08
-10.24
-14.74
-19.55
-24.62
-29.84
-35.08
-40.15
-44.83
-48.75
-51.34
-51.84
-49.46
-43.71
-34.7
-23.16
-10.36
2.24
13.29
21.74
26.9
28.53
26.84
22.47
16.5
10.19
4.7
0.89
-0.8
-0.25
2.47
7.09
13.13
19.78
26.01
30.77
33.33
33.44
31.32
27.38
21.89
14.89
6.31
-3.64
-14.1
-23.51
-29.97
-31.89
-28.56
-20.47
-9.05
3.85
16.55
27.99
37.67
45.46
51.33
55.21
57.0
56.86
55.32
53.14
51.18
50.04
49.83
50.1
50.07
48.91
46.15
41.83
36.47
30.81
25.53
20.97
17.16
13.95
11.15
8.71
6.54
4.38
1.76
-1.91
-6.96
-13.24
-20.04
-26.37
-31.41
-34.84
-36.94
-38.28
-39.37
-40.3
-40.74
-40.22
-38.43
-35.44
-31.61
-27.39
-23.01
-18.34
-13.02
-6.63
0.92
9.31
17.68
24.97
30.16
32.72
32.73
30.87
28.09
25.25
22.82
20.85
19.02
16.82
13.74
9.31
3.27
-4.36
-13.07
-21.79
-28.99
-33.04
-32.66
-27.28
-17.28
-3.79
11.5
26.76
40.31
50.87
57.65
60.37
59.27
54.99
48.47
40.8
33.1
26.29
20.95
17.22
14.81
13.15
11.66
9.89
7.7
5.14
2.45
-0.18
-2.63
-4.91
-7.14
-9.51
-12.35
-15.97
-20.67
-26.35
-32.42
-37.69
-40.68
-40.03
-35.03
-25.87
-13.66
-0.04
13.3
24.94
33.96
39.85
42.48
42.05
39.11
34.46
29.15
24.19
20.36
18.01
17.03
16.96
17.14
16.88
15.62
13.01
8.98
3.78
-2.06
-7.87
-13.01
-17.03
-19.85
-21.76
-23.31
-25.16
-27.87
-31.66
-36.26
-40.85
-44.2
-44.95
-42.04
-35.13
-24.73
-12.11
1.17
13.7
24.55
33.35
40.04
44.73
47.49
48.4
47.71
45.84
43.35
40.8
38.57
36.83
35.57
34.7
34.11
33.66
33.19
32.49
31.41
29.93
28.16
26.26
24.36
22.42
20.3
17.84
15.03
11.98
8.94
6.08
3.43
0.91
-1.51
-3.56
-4.7
-4.26
-1.76
2.83
8.91
15.49
21.43
25.79
28.0
27.83
25.37
20.93
15.07
8.54
2.29
-2.8
-6.12
-7.57
-7.58
-6.93
-6.43
-6.66
-7.8
-9.73
-12.24
-15.17
-18.51
-22.33
-26.65
-31.28
-35.91
-40.18
-43.9
-47.15
-50.29
-53.79
-58.0
-63.0
-68.41
-73.54
-77.38
-78.9
-77.19
-71.8
-62.83
-51.15
-38.18
-25.56
-14.62
-6.05
0.35
5.44
10.31
15.85
22.51
30.31
39.09
48.7
59.16
70.52
82.69
95.33
107.76
119.14
128.59
135.43
139.17
139.58
136.5
129.96
120.1
107.43
92.78
77.23
61.86
47.37
33.97
21.48
9.64
-1.47
-11.3
-18.94
-23.53
-24.66
-22.55
-18.0
-12.08
-5.87
-0.27
4.04
6.54
7.02
5.68
3.12
0.25
-2.12
-3.54
-4.0
-3.65
-2.49
-0.13
4.01
10.33
18.53
27.61
36.12
42.87
47.36
49.91
51.35
52.54
53.95
55.61
57.17
58.18
58.25
57.11
54.48
50.04
43.48
34.81
24.5
13.47
2.58
-7.97
-18.98
-31.95
-48.16
-67.73
-89.21
-109.83
-126.61
-137.64
-142.59
-142.4
-138.36
-131.12
-120.56
-106.36
-88.85
-69.53
-50.91
-35.63
-25.5
-20.94
-21.1
-24.57
-30.13
-37.34
-46.43
-57.74
-71.02
-85.04
-97.79
-107.04
-111.17
-109.69
-103.31
-93.62
-82.41
-71.18
-60.95
-52.32
-45.67
-41.32
-39.47
-39.96
-42.08
-44.54
-45.66
-43.9
-38.34
-28.96
-16.7
-3.06
10.45
22.57
32.5
39.68
43.58
43.78
40.17
33.32
24.43
15.03
6.39
-0.77
-6.14
-9.45
-10.0
-6.83
0.79
12.76
27.77
43.66
58.18
69.72
77.71
82.38
84.29
83.92
81.52
77.3
71.59
64.94
57.99
51.11
44.28
36.99
28.5
18.17
5.81
-8.21
-23.11
-37.88
-51.68
-64.02
-74.82
-84.42
-93.31
-101.9
-110.22
-117.73
-123.49
-126.37
-125.53
-120.84
-112.94
-103.05
-92.49
-82.11
-72.08
-61.94
-51.08
-39.2
-26.65
-14.13
-2.12
9.71
22.72
38.88
59.85
86.26
117.31
151.27
186.02
219.52
249.63
273.87
289.27
292.91
282.95
259.52
224.83
182.38
135.63
87.2
38.92
-7.39
-49.1
-82.84
-105.48
-115.59
-114.46
-105.8
-94.43
-84.47
-78.12
-75.44
-75.2
-76.12
-77.55
-79.61
-82.51
-86.01
-89.14
-90.53
-89.11
-84.54
-77.45
-69.03
-60.58
-53.03
-46.87
-42.23
-39.08
-37.34
-36.95
-37.84
-39.79
-42.4
-44.96
-46.51
-45.92
-42.23
-35.03
-24.63
-12.07
1.27
14.11
25.57
35.26
42.96
48.42
51.18
50.74
46.92
40.15
31.55
22.61
14.71
8.56
3.97
0.02
-4.45
-10.23
-17.33
-24.97
-31.94
-37.22
-40.38
-41.75
-42.13
-42.43
-43.24
-44.69
-46.6
-48.74
-50.93
-53.06
-54.93
-55.94
-55.12
-51.4
-43.98
-32.94
-19.36
-5.19
7.34
16.41
21.22
22.21
20.74
18.48
16.62
15.43
14.23
11.98
7.92
2.13
-4.34
-9.9
-13.11
-13.24
-10.45
-5.57
0.38
6.48
11.91
15.81
17.27
15.84
12.24
9.0
9.61
16.97
31.38
49.55
65.84
75.33
76.84
73.79
72.22
77.09
89.35
105.6
120.71
131.36
138.17
144.96
155.82
172.3
192.55
212.71
229.46
241.92
251.81
261.88
273.89
286.96
297.44
299.86
289.0
261.71
218.26
162.38
99.47
34.02
-32.48
-102.07
-178.18
-262.07
-349.88
-432.09
-496.24
-531.41
-531.93
-498.52
-436.8
-354.49
-259.46
-159.37
-62.51
21.93
85.23
121.88
131.96
121.43
99.89
76.8
58.4
46.66
40.43
37.28
35.31
33.61
31.86
29.84
27.28
24.09
20.58
17.34
14.89
13.31
12.09
10.35
7.37
2.96
-2.37
-7.54
-11.34
-12.79
-11.49
-7.73
-2.41
3.22
7.9
10.68
11.32
10.35
8.98
8.69
10.63
15.13
21.51
28.33
33.96
37.18
37.6
35.59
31.96
27.55
22.86
18.01
12.87
7.28
1.16
-5.54
-12.81
-20.64
-28.94
-37.4
-45.5
-52.54
-57.76
-60.44
-60.15
-56.8
-50.73
-42.71
-33.81
-25.13
-17.59
-11.79
-7.98
-6.16
-6.23
-7.93
-10.79
-14.09
-16.93
-18.45
-18.22
-16.32
-13.33
-10.04
-7.09
-4.8
-3.11
-1.81
-0.72
0.17
0.65
0.49
-0.51
-2.33
-4.76
-7.34
-9.56
-10.89
-10.87
-9.15
-5.55
-0.08
7.05
15.38
24.26
32.96
40.74
47.03
51.46
53.87
54.25
52.76
49.79
46.0
42.4
40.07
39.86
42.08
46.32
51.6
56.79
61.03
63.93
65.6
66.37
66.65
66.71
66.77
67.09
67.96
69.63
72.19
75.47
79.07
82.31
84.27
83.73
79.31
69.72
54.17
32.79
6.88
-21.3
-49.07
-73.91
-94.13
-109.03
-118.85
-124.35
-126.41
-125.79
-123.16
-119.19
-114.66
-110.39
-107.01
-104.79
-103.48
-102.49
-101.16
-99.0
-95.71
-91.05
-84.73
-76.47
-66.23
-54.48
-42.19
-30.51
-20.29
-11.75
-4.59
1.64
6.94
10.74
12.12
10.45
5.92
-0.33
-6.65
-11.54
-14.18
-14.58
-13.34
-11.21
-8.78
-6.42
-4.35
-2.8
-2.04
-2.26
-3.48
-5.47
-7.88
-10.39
-12.83
-15.18
-17.47
-19.77
-22.02
-24.12
-25.92
-27.26
-27.95
-27.96
-27.32
-26.31
-25.37
-25.02
-25.67
-27.39
-29.84
-32.25
-33.63
-33.03
-29.87
-24.13
-16.28
-7.12
2.52
11.95
20.73
28.63
35.5
41.23
45.72
49.01
51.27
52.85
54.09
55.21
56.24
57.12
57.76
58.17
58.52
59.0
59.77
60.84
61.96
62.67
62.28
60.05
55.27
47.49
36.63
23.16
8.1
-7.09
-20.76
-31.41
-38.12
-40.73
-39.93
-37.03
-33.59
-30.91
-29.82
-30.5
-32.61
-35.57
-38.74
-41.56
-43.65
-44.81
-44.98
-44.28
-42.88
-41.04
-38.94
-36.79
-34.71
-32.87
-31.37
-30.25
-29.43
-28.69
-27.87
-26.97
-26.28
-26.25
-27.14
-28.83
-30.66
-31.64
-30.89
-27.99
-23.25
-17.47
-11.7
-6.81
-3.32
-1.43
-1.09
-2.13
-4.26
-6.96
-9.59
-11.47
-12.13
-11.47
-9.72
-7.32
-4.69
-2.08
0.47
2.94
5.22
7.05
8.0
7.68
5.95
3.04
-0.43
-3.54
-5.29
-4.8
-1.54
4.62
13.34
23.9
35.25
46.21
55.77
63.19
68.14
70.57
70.55
68.15
63.51
56.95
49.15
41.23
34.5
30.15
28.89
30.78
35.25
41.25
47.55
52.86
55.97
55.9
52.01
44.18
32.79
18.82
3.62
-11.2
-24.0
-33.41
-38.56
-39.31
-36.38
-31.15
-25.28
-20.24
-16.95
-15.64
-15.99
-17.45
-19.5
-21.73
-23.91
-25.82
-27.31
-28.24
-28.45
-27.89
-26.49
-24.26
-21.37
-18.18
-15.31
-13.51
-13.52
-15.82
-20.48
-27.03
-34.44
-41.27
-45.9
-47.04
-44.03
-37.14
-27.49
-16.73
-6.54
1.8
7.59
10.73
11.51
10.45
8.1
5.0
1.51
-2.19
-6.08
-10.27
-14.8
-19.59
-24.35
-28.71
-32.39
-35.35
-37.85
-40.41
-43.65
-48.05
-53.77
-60.38
-66.95
-72.08
-74.36
-72.66
-66.58
-56.57
-43.89
-30.34
-17.72
-7.49
-0.35
3.75
5.5
5.82
5.52
5.02
4.39
3.48
2.27
0.92
-0.18
-0.73
-0.75
-0.57
-0.75
-1.81
-3.96
-7.1
-10.98
-15.44
-20.48
-26.09
-32.0
-37.36
-40.79
-40.91
-36.84
-28.79
-18.03
-6.47
4.04
12.3
17.97
21.33
22.81
22.69
21.04
17.92
13.67
8.92
4.5
1.16
-0.8
-1.48
-1.35
-0.98
-0.81
-1.12
-2.04
-3.64
-6.02
-9.24
-13.28
-17.79
-22.04
-24.89
-25.17
-21.96
-15.08
-5.14
6.55
18.5
29.39
38.37
45.13
49.56
51.72
51.69
49.75
46.49
42.82
39.68
37.63
36.71
36.38
35.87
34.54
32.13
28.84
25.09
21.25
17.51
13.83
10.04
5.95
1.49
-3.29
-8.2
-12.83
-16.57
-18.63
-18.25
-15.02
-9.05
-1.0
8.13
17.37
26.05
33.94
40.93
46.88
51.32
53.67
53.5
50.89
46.58
41.71
37.42
34.42
32.78
32.01
31.39
30.33
28.54
26.1
23.24
20.25
17.25
14.25
11.15
7.81
4.13
-0.04
-4.78
-10.07
-15.48
-20.17
-22.89
-22.38
-17.83
-9.21
2.62
16.17
29.83
42.22
52.5
60.34
65.76
69.02
70.51
70.72
70.25
69.72
69.63
70.23
71.39
72.52
72.8
71.46
68.1
62.95
56.73
50.34
44.45
39.16
34.09
28.66
22.56
15.88
9.06
2.52
-3.68
-9.8
-16.2
-22.9
-29.31
-34.32
-36.72
-35.82
-31.76
-25.51
-18.46
-11.93
-6.75
-3.13
-0.91
0.22
0.52
0.14
-0.76
-1.93
-3.07
-3.91
-4.41
-4.69
-5.03
-5.64
-6.53
-7.53
-8.43
-9.09
-9.63
-10.32
-11.51
-13.39
-15.93
-18.9
-21.98
-25.04
-28.14
-31.49
-35.31
-39.49
-43.53
-46.49
-47.33
-45.3
-40.23
-32.71
-23.9
-15.16
-7.68
-2.2
1.13
2.54
2.54
1.7
0.56
-0.45
-1.04
-1.02
-0.36
0.9
2.68
4.9
7.49
10.28
12.95
14.94
15.56
14.18
10.44
4.57
-2.77
-10.53
-17.79
-24.04
-29.32
-34.05
-38.73
-43.6
-48.46
-52.82
-55.99
-57.38
-56.58
-53.38
-47.79
-40.16
-31.13
-21.6
-12.58
-4.88
1.06
5.31
8.27
10.5
12.5
14.54
16.72
18.97
21.13
23.05
24.53
25.45
25.72
25.31
24.24
22.57
20.32
17.54
14.27
10.57
6.58
2.45
-1.64
-5.62
-9.51
-13.4
-17.4
-21.53
-25.65
-29.38
-32.11
-33.1
-31.74
-27.79
-21.59
-14.02
-6.25
0.68
6.09
9.8
11.99
12.96
12.93
12.02
10.36
8.2
5.96
4.07
2.87
2.44
2.65
3.25
3.98
4.78
5.74
7.07
8.95
11.34
13.94
16.23
17.68
17.87
16.67
14.2
10.71
6.49
1.95
-2.39
-5.8
-7.49
-6.93
-4.1
0.41
5.59
10.42
14.24
16.92
18.68
19.8
20.39
20.29
19.34
17.49
14.99
12.31
9.9
7.98
6.47
5.08
3.46
1.39
-1.11
-3.85
-6.54
-8.91
-10.78
-12.15
-13.22
-14.34
-15.93
-18.32
-21.58
-25.35
-28.91
-31.33
-31.82
-29.99
-26.02
-20.6
-14.7
-9.26
-5.02
-2.4
-1.54
-2.31
-4.45
-7.45
-10.71
-13.51
-15.22
-15.52
-14.5
-12.71
-10.95
-9.99
-10.29
-11.81
-14.04
-16.29
-18.0
-19.01
-19.59
-20.27
-21.55
-23.6
-26.22
-28.81
-30.62
-30.91
-29.16
-25.2
-19.26
-11.96
-4.23
2.96
8.77
12.69
14.61
14.74
13.47
11.25
8.48
5.49
2.62
0.18
-1.57
-2.53
-2.76
-2.51
-2.1
-1.83
-1.91
-2.46
-3.52
-5.21
-7.67
-11.02
-15.16
-19.7
-23.92
-26.96
-28.02
-26.71
-23.07
-17.66
-11.3
-4.9
0.73
5.03
7.68
8.62
7.97
6.05
3.25
0.02
-3.25
-6.27
-8.88
-11.09
-12.97
-14.67
-16.33
-18.03
-19.82
-21.7
-23.69
-25.87
-28.4
-31.47
-35.12
-39.09
-42.77
-45.22
-45.46
-42.72
-36.73
-27.84
-16.85
-4.9
6.81
17.27
25.8
32.11
36.37
39.03
40.64
41.68
42.41
42.92
43.22
43.36
43.45
43.62
44.03
44.81
45.99
47.49
48.87
49.27
47.52
42.55
33.94
22.46
10.01
-0.88
-7.93
-9.82
-6.63
0.36
9.31
18.47
26.57
32.9
37.11
38.99
38.42
35.39
30.21
23.56
16.36
9.53
3.68
-1.09
-5.14
-8.99
-13.04
-17.37
-21.74
-25.84
-29.59
-33.2
-37.13
-41.71
-46.78
-51.55
-54.72
-54.99
-51.6
-44.66
-35.15
-24.53
-14.29
-5.43
1.54
6.59
9.85
11.43
11.41
9.97
7.47
4.5
1.73
-0.35
-1.55
-2.05
-2.26
-2.61
-3.38
-4.72
-6.72
-9.55
-13.45
-18.52
-24.45
-30.36
-34.95
-36.83
-35.02
-29.32
-20.37
-9.42
2.09
12.85
21.89
28.63
32.83
34.6
34.23
32.26
29.3
25.94
22.58
19.46
16.6
13.92
11.36
8.87
6.45
4.09
1.7
-1.0
-4.41
-8.91
-14.63
-21.19
-27.62
-32.51
-34.48
-32.58
-26.66
-17.45
-6.35
5.02
15.25
23.43
29.24
32.8
34.52
34.84
34.17
32.83
31.08
29.14
27.22
25.43
23.79
22.17
20.41
18.33
15.87
12.97
9.58
5.53
0.63
-5.19
-11.59
-17.78
-22.55
-24.7
-23.42
-18.71
-11.34
-2.58
6.24
14.15
20.62
25.47
28.67
30.22
30.14
28.61
26.04
23.01
20.16
17.96
16.6
15.93
15.59
15.16
14.36
13.03
11.14
8.67
5.45
1.2
-4.34
-11.11
-18.52
-25.38
-30.18
-31.54
-28.62
-21.49
-10.98
1.47
14.24
25.77
34.85
40.68
42.96
41.87
38.09
32.63
26.68
21.26
17.01
14.12
12.34
11.09
9.72
7.69
4.71
0.76
-3.96
-9.23
-14.9
-21.01
-27.76
-35.41
-44.06
-53.41
-62.62
-70.41
-75.35
-76.29
-72.76
-65.09
-54.39
-42.13
-29.82
-18.71
-9.62
-2.93
1.23
2.99
2.59
0.41
-3.11
-7.47
-12.18
-16.74
-20.71
-23.71
-25.59
-26.37
-26.27
-25.6
-24.7
-23.83
-23.23
-23.1
-23.72
-25.36
-28.25
-32.53
-38.17
-45.01
-52.73
-60.76
-68.24
-74.09
-77.12
-76.36
-71.4
-62.57
-50.82
-37.44
-23.78
-10.91
0.42
9.69
16.59
20.97
22.86
22.64
20.98
18.77
17.01
16.45
17.48
19.96
23.39
27.03
30.25
32.68
34.31
35.44
36.53
38.08
40.46
43.84
48.14
52.89
57.34
60.56
61.7
60.31
56.59
51.39
46.06
42.12
40.86
43.04
48.7
57.23
67.64
78.78
89.66
99.5
107.78
114.18
118.56
120.97
121.61
120.84
119.16
117.07
115.04
113.39
112.22
111.32
110.21
108.16
104.48
98.68
90.68
80.75
69.37
57.06
44.2
31.1
18.02
5.31
-6.65
-17.57
-27.36
-36.12
-43.84
-50.32
-54.96
-57.01
-55.96
-51.87
-45.53
-38.13
-30.83
-24.28
-18.63
-13.68
-9.36
-5.96
-4.01
-3.95
-5.8
-9.11
-13.05
-16.89
-20.12
-22.66
-24.66
-26.41
-28.15
-30.03
-32.13
-34.44
-36.9
-39.44
-42.03
-44.61
-47.09
-49.31
-51.02
-51.99
-52.16
-51.75
-51.28
-51.3
-52.1
-53.45
-54.54
-54.26
-51.63
-46.19
-38.22
-28.56
-18.33
-8.48
0.39
8.02
14.35
19.29
22.62
24.1
23.66
21.58
18.44
15.0
11.92
9.55
7.85
6.58
5.49
4.45
3.48
2.68
2.05
1.49
0.9
0.18
-0.6
-1.33
-1.93
-2.42
-2.98
-3.82
-5.2
-7.3
-10.26
-14.08
-18.52
-23.01
-26.75
-28.86
-28.71
-26.14
-21.54
-15.68
-9.41
-3.47
1.67
5.69
8.33
9.33
8.52
5.94
1.94
-2.87
-7.81
-12.29
-15.97
-18.77
-20.82
-22.36
-23.68
-25.0
-26.38
-27.74
-28.78
-29.19
-28.68
-27.24
-25.09
-22.66
-20.48
-18.99
-18.45
-18.88
-20.09
-21.72
-23.27
-24.2
-24.01
-22.34
-18.98
-13.96
-7.54
-0.2
7.44
14.64
20.66
24.91
27.05
27.06
25.18
21.86
17.66
13.2
9.12
6.0
4.26
4.03
5.1
6.89
8.65
9.75
9.8
8.85
7.23
5.38
3.62
2.02
0.36
-1.73
-4.59
-8.31
-12.55
-16.58
-19.47
-20.4
-18.94
-15.19
-9.7
-3.2
3.66
10.41
16.73
22.34
26.93
30.21
32.09
32.77
32.73
32.55
32.73
33.45
34.59
35.81
36.72
37.04
36.67
35.66
34.18
32.42
30.62
28.95
27.5
26.23
24.91
23.13
20.52
16.85
12.35
7.77
4.23
2.92
4.68
9.62
17.04
25.62
33.85
40.43
44.55
45.97
44.92
41.91
37.63
32.81
28.11
24.08
20.94
18.63
16.77
14.92
12.76
10.19
7.32
4.29
1.14
-2.2
-5.92
-10.16
-14.97
-20.3
-26.11
-32.37
-39.02
-45.82
-52.22
-57.48
-60.81
-61.64
-59.8
-55.48
-49.1
-41.19
-32.35
-23.23
-14.56
-7.1
-1.42
2.31
4.4
5.47
6.2
7.03
8.02
8.94
9.56
9.79
9.87
10.06
10.52
11.1
11.32
10.64
8.65
5.33
1.02
-3.64
-7.99
-11.42
-13.55
-14.1
-12.96
-10.1
-5.67
0.05
6.59
13.39
19.9
25.72
30.65
34.59
37.48
39.22
39.59
38.49
36.03
32.58
28.68
24.8
21.15
17.61
13.94
9.98
5.85
1.91
-1.41
-3.94
-5.79
-7.35
-9.08
-11.31
-14.07
-17.2
-20.4
-23.4
-26.06
-28.36
-30.4
-32.28
-34.12
-35.89
-37.49
-38.64
-38.95
-38.0
-35.51
-31.58
-26.75
-21.97
-18.25
-16.34
-16.4
-17.95
-20.17
-22.29
-23.87
-24.87
-25.49
-25.88
-26.05
-25.92
-25.46
-24.85
-24.46
-24.73
-25.92
-28.0
-30.61
-33.13
-34.88
-35.2
-33.68
-30.19
-24.96
-18.45
-11.25
-3.98
2.86
8.9
13.86
17.54
19.8
20.6
20.04
18.41
16.18
13.87
11.95
10.7
10.15
10.15
10.42
10.69
10.74
10.42
9.67
8.51
6.99
5.16
3.06
0.68
-2.01
-4.91
-7.74
-9.97
-10.97
-10.2
-7.42
-2.83
2.97
9.24
15.2
20.27
24.09
26.48
27.4
26.89
25.12
22.42
19.2
15.95
13.11
10.85
9.09
7.52
5.84
3.85
1.61
-0.64
-2.67
-4.37
-5.86
-7.35
-9.08
-11.17
-13.57
-16.1
-18.4
-19.99
-20.33
-18.9
-15.45
-10.09
-3.33
4.04
11.19
17.47
22.44
25.86
27.56
27.48
25.69
22.5
18.53
14.54
11.2
8.87
7.5
6.67
5.83
4.6
2.93
1.04
-0.71
-2.13
-3.3
-4.59
-6.47
-9.23
-12.83
-16.9
-20.87
-24.19
-26.37
-27.11
-26.16
-23.39
-18.92
-13.23
-7.23
-2.07
1.25
2.17
0.75
-2.48
-6.84
-11.74
-16.76
-21.4
-24.94
-26.44
-25.04
-20.4
-13.06
-4.38
3.83
9.93
13.0
13.04
10.76
7.18
3.17
-0.84
-4.79
-8.87
-13.09
-17.18
-20.58
-22.57
-22.51
-19.95
-14.69
-6.72
3.87
16.82
31.67
47.66
63.7
78.5
90.89
100.12
106.04
109.13
110.22
110.14
109.36
107.93
105.53
101.82
96.59
89.96
82.3
74.14
66.06
58.66
52.57
48.26
45.85
44.84
44.2
42.57
38.84
32.57
24.22
14.95
6.08
-1.48
-7.64
-13.04
-18.74
-25.71
-34.45
-44.9
-56.54
-68.69
-80.63
-91.78
-101.59
-109.57
-115.23
-118.11
-117.91
-114.53
-108.21
-99.59
-89.73
-79.9
-71.32
-64.8
-60.47
-57.85
-56.13
-54.62
-53.04
-51.56
-50.56
-50.29
-50.59
-50.94
-50.62
-49.01
-45.78
-40.97
-34.85
-27.79
-20.11
-12.08
-3.91
4.16
11.8
18.55
23.96
27.65
29.46
29.49
28.13
25.98
23.7
21.86
20.79
20.51
20.76
21.14
21.39
21.56
22.03
23.34
25.89
29.62
33.94
37.87
40.34
40.53
38.13
33.38
26.94
19.74
12.82
7.14
3.44
2.15
3.33
6.72
11.88
18.3
25.49
32.91
39.88
45.67
49.57
51.26
51.02
49.71
48.44
48.04
48.7
49.9
50.79
50.72
49.59
47.83
45.98
44.25
42.28
39.33
34.7
28.14
19.89
10.49
0.5
-9.78
-20.23
-30.71
-40.78
-49.69
-56.49
-60.41
-61.11
-58.83
-54.3
-48.55
-42.65
-37.48
-33.63
-31.36
-30.64
-31.22
-32.69
-34.56
-36.34
-37.62
-38.17
-37.94
-37.07
-35.81
-34.43
-33.16
-32.16
-31.5
-31.25
-31.47
-32.25
-33.64
-35.62
-38.11
-40.86
-43.46
-45.41
-46.18
-45.34
-42.7
-38.37
-32.7
-26.22
-19.45
-12.86
-6.87
-1.8
2.04
4.46
5.44
5.19
4.1
2.59
0.97
-0.63
-2.19
-3.7
-5.09
-6.18
-6.86
-7.13
-7.14
-7.16
-7.45
-8.19
-9.44
-11.32
-13.99
-17.76
-22.77
-28.87
-35.37
-41.17
-45.06
-46.18
-44.42
-40.45
-35.54
-31.0
-27.75
-26.09
-25.77
-26.22
-26.94
-27.68
-28.46
-29.48
-30.93
-32.93
-35.39
-37.94
-39.94
-40.59
-39.14
-35.21
-28.97
-21.15
-12.83
-5.19
0.82
4.64
6.34
6.74
7.45
10.52
17.87
30.42
47.49
66.85
85.4
100.31
110.04
114.55
114.95
112.65
108.74
103.8
98.25
92.65
87.92
84.98
84.31
85.46
87.05
87.24
84.48
78.1
68.62
57.34
45.62
34.1
22.42
9.44
-5.87
-23.74
-43.1
-62.05
-78.52
-91.15
-99.67
-104.65
-107.07
-107.62
-106.57
-103.79
-99.02
-92.03
-82.68
-71.0
-57.23
-41.99
-26.36
-11.78
0.38
9.26
14.78
17.67
19.04
19.94
20.99
22.41
24.17
26.3
28.95
32.34
36.44
40.86
44.82
47.42
47.93
46.23
42.88
39.12
36.47
36.33
39.53
45.96
54.54
63.37
70.18
73.02
70.82
63.76
53.15
40.89
28.75
17.84
8.54
0.82
-5.36
-9.79
-12.21
-12.65
-11.67
-10.33
-9.74
-10.56
-12.73
-15.58
-18.26
-20.16
-21.23
-21.97
-23.28
-26.28
-32.01
-41.16
-53.78
-69.06
-85.41
-100.61
-112.23
-118.01
-116.29
-106.42
-89.03
-65.98
-40.17
-14.92
6.86
23.29
34.02
40.03
43.03
44.63
45.73
46.32
45.79
43.47
39.12
33.17
26.4
19.55
12.96
6.51
-0.09
-6.89
-13.52
-19.3
-23.65
-26.46
-28.16
-29.44
-30.68
-31.67
-31.56
-29.19
-23.72
-14.96
-3.57
9.2
21.93
33.38
42.69
49.48
53.66
55.34
54.83
52.66
49.61
46.72
45.03
45.29
47.59
51.18
54.73
56.78
56.32
53.14
47.79
41.19
34.14
27.02
19.72
12.0
3.8
-4.59
-12.57
-19.44
-24.63
-27.82
-28.97
-28.15
-25.51
-21.18
-15.31
-8.03
0.37
9.47
18.62
26.98
33.62
37.68
38.64
36.48
31.8
25.63
19.17
13.42
8.83
5.16
1.65
-2.75
-8.89
-17.07
-26.99
-37.85
-48.69
-58.74
-67.68
-75.62
-83.01
-90.25
-97.44
-104.25
-109.92
-113.53
-114.34
-111.92
-106.16
-97.2
-85.2
-70.33
-52.96
-33.79
-13.94
5.16
22.13
36.07
46.84
54.97
61.34
66.77
71.87
77.24
83.86
93.36
107.7
128.17
154.27
182.97
209.22
227.63
234.6
229.86
216.52
199.48
183.2
169.91
159.19
148.82
136.56
121.48
104.44
87.37
72.02
58.78
46.44
32.75
15.68
-5.23
-28.41
-50.73
-68.75
-79.89
-82.96
-78.02
-65.91
-48.36
-28.28
-10.12
0.66
-0.79
-16.54
-44.49
-78.83
-112.36
-139.33
-157.44
-168.02
-174.22
-178.98
-183.53
-187.34
-189.06
-187.53
-182.36
-173.81
-162.35
-148.38
-132.2
-114.37
-95.85
-78.06
-62.41
-49.95
-41.05
-35.36
-31.89
-29.29
-26.27
-21.84
-15.67
-8.14
-0.21
6.93
12.26
15.27
16.05
15.11
13.03
10.06
5.94
-0.03
-8.6
-20.16
-34.4
-50.13
-65.5
-78.38
-86.89
-89.88
-87.17
-79.51
-68.2
-54.75
-40.5
-26.44
-13.28
-1.56
8.3
16.06
21.81
26.01
29.43
32.83
36.6
40.66
44.48
47.41
48.98
49.08
47.93
45.91
43.3
40.16
36.22
31.04
24.13
15.16
4.27
-7.84
-19.82
-29.86
-36.17
-37.51
-33.51
-24.83
-12.91
0.47
13.66
25.41
34.99
42.09
46.69
49.0
49.41
48.51
46.92
45.17
43.54
41.96
40.07
37.42
33.7
28.92
23.37
17.56
12.04
7.2
3.18
-0.26
-3.61
-7.54
-12.62
-19.04
-26.34
-33.42
-38.76
-40.94
-39.07
-33.2
-24.29
-13.86
-3.46
5.66
12.83
17.82
20.63
21.35
20.0
16.59
11.24
4.26
-3.79
-12.18
-20.12
-26.89
-32.02
-35.3
-36.77
-36.6
-35.02
-32.27
-28.73
-24.94
-21.6
-19.44
-18.94
-20.13
-22.47
-25.02
-26.68
-26.53
-24.1
-19.41
-12.81
-4.77
4.29
13.99
23.88
33.35
41.67
48.08
52.16
53.97
53.97
52.9
51.43
49.96
48.61
47.31
45.95
44.47
42.83
41.02
39.04
36.92
34.67
32.2
29.3
25.6
20.73
14.52
7.27
-0.23
-6.76
-11.04
-12.03
-9.24
-2.85
6.34
17.11
28.0
37.59
44.65
48.39
48.54
45.45
40.04
33.54
27.18
21.81
17.76
14.79
12.34
9.76
6.59
2.76
-1.43
-5.38
-8.46
-10.19
-10.56
-10.01
-9.42
-9.74
-11.72
-15.47
-20.35
-25.04
-27.89
-27.49
-23.07
-14.75
-3.47
9.37
22.38
34.49
45.11
53.93
60.79
65.54
67.98
68.13
66.18
62.55
57.71
51.95
45.41
38.08
29.99
21.38
12.66
4.32
-3.22
-9.79
-15.51
-20.79
-26.22
-32.43
-39.91
-48.79
-58.73
-68.77
-77.55
-83.62
-85.81
-83.66
-77.46
-68.25
-57.37
-46.23
-35.93
-27.13
-20.09
-14.74
-10.72
-7.61
-4.95
-2.46
-0.02
2.34
4.5
6.31
7.63
8.33
8.3
7.56
6.28
4.82
3.58
2.78
2.25
1.43
-0.53
-4.31
-10.12
-17.43
-25.0
-31.19
-34.41
-33.59
-28.4
-19.36
-7.63
5.41
18.51
30.73
41.47
50.32
56.89
60.83
61.99
60.6
57.36
53.36
49.72
47.28
46.28
46.38
46.83
46.83
45.85
43.77
40.87
37.61
34.34
31.09
27.52
22.93
16.59
8.01
-2.77
-14.93
-26.96
-36.94
-43.06
-44.16
-40.15
-31.92
-21.08
-9.43
1.46
10.48
16.98
20.62
21.31
19.3
15.22
10.04
4.96
0.91
-1.6
-2.71
-3.04
-3.44
-4.72
-7.37
-11.59
-17.24
-23.95
-31.24
-38.64
-45.79
-52.55
-58.95
-65.04
-70.76
-75.76
-79.34
-80.68
-79.1
-74.23
-66.16
-55.44
-42.82
-29.19
-15.36
-2.1
9.87
19.9
27.45
32.16
34.01
33.33
30.78
27.19
23.3
19.57
16.1
12.72
9.21
5.56
2.07
-0.71
-2.25
-2.38
-1.45
-0.33
-0.05
-1.48
-4.98
-10.38
-17.05
-24.06
-30.38
-35.01
-37.04
-35.83
-31.11
-23.08
-12.34
0.2
13.46
26.3
37.51
45.98
50.91
51.96
49.48
44.43
38.16
32.12
27.44
24.72
23.87
24.26
25.0
25.28
24.72
23.42
21.88
20.7
20.22
20.46
21.08
21.59
21.56
20.7
18.94
16.46
13.73
11.41
10.17
10.43
12.25
15.36
19.45
24.49
30.63
38.01
46.23
54.21
60.37
63.32
62.46
58.31
52.26
45.91
40.42
36.2
33.09
30.71
28.93
27.91
27.95
29.16
31.17
33.16
34.06
32.93
29.29
23.45
16.4
9.63
4.67
2.48
3.08
5.42
7.74
8.2
5.62
-0.23
-8.62
-18.3
-28.06
-37.04
-44.87
-51.43
-56.61
-60.21
-61.98
-61.82
-59.98
-57.08
-53.95
-51.27
-49.31
-47.82
-46.22
-43.92
-40.73
-37.07
-33.83
-32.09
-32.66
-35.84
-41.23
-47.93
-54.65
-60.0
-62.62
-61.49
-56.15
-46.87
-34.59
-20.68
-6.58
6.58
18.02
27.3
34.21
38.67
40.82
41.07
40.1
38.69
37.49
36.78
36.49
36.26
35.7
34.56
32.77
30.42
27.7
24.82
21.94
19.14
16.34
13.3
9.62
4.99
-0.64
-6.88
-12.92
-17.77
-20.59
-21.02
-19.32
-16.25
-12.79
-9.73
-7.49
-6.03
-5.0
-4.1
-3.29
-2.94
-3.62
-5.93
-10.12
-15.99
-22.9
-29.92
-36.14
-40.84
-43.63
-44.48
-43.75
-42.1
-40.38
-39.45
-39.91
-41.89
-44.98
-48.37
-51.09
-52.3
-51.53
-48.72
-44.18
-38.42
-31.97
-25.22
-18.34
-11.33
-4.2
2.97
9.87
16.11
21.29
25.22
27.95
29.71
30.71
31.03
30.59
29.26
27.04
24.26
21.47
19.28
18.05
17.8
18.1
18.23
17.42
15.1
11.1
5.64
-0.74
-7.38
-13.66
-19.06
-23.19
-25.67
-26.17
-24.4
-20.26
-13.85
-5.57
3.97
13.96
23.51
31.78
38.05
41.94
43.52
43.36
42.39
41.6
41.78
43.25
45.94
49.46
53.37
57.31
61.04
64.32
66.84
68.09
67.5
64.57
59.12
51.5
42.5
33.12
24.23
16.21
8.96
2.04
-4.89
-11.8
-18.15
-23.13
-25.96
-26.31
-24.5
-21.45
-18.52
-17.04
-17.99
-21.68
-27.68
-35.03
-42.54
-49.17
-54.2
-57.28
-58.41
-57.87
-56.24
-54.33
-53.06
-53.25
-55.3
-59.07
-63.86
-68.64
-72.36
-74.2
-73.77
-71.09
-66.46
-60.42
-53.47
-45.98
-38.08
-29.73
-20.82
-11.37
-1.69
7.63
15.71
21.62
24.49
23.86
20.1
14.69
10.16
9.5
15.14
27.85
46.27
67.22
86.96
102.49
112.47
117.31
118.28
116.63
112.89
106.81
97.88
85.96
71.71
56.42
41.66
28.71
18.22
10.18
4.16
-0.32
-3.54
-5.55
-6.33
-6.08
-5.3
-4.75
-5.19
-7.0
-10.13
-14.1
-18.34
-22.37
-25.91
-28.92
-31.46
-33.68
-35.71
-37.6
-39.34
-40.85
-42.09
-43.19
-44.56
-46.85
-50.66
-56.27
-63.32
-70.79
-77.27
-81.38
-82.25
-79.74
-74.36
-67.03
-58.6
-49.71
-40.7
-31.85
-23.55
-16.44
-11.25
-8.57
-8.63
-11.06
-15.05
-19.59
-23.79
-27.11
-29.4
-30.72
-31.06
-30.33
-28.38
-25.17
-21.01
-16.4
-11.89
-7.75
-3.94
-0.18
3.78
7.97
12.22
16.31
20.19
24.02
27.97
31.96
35.53
38.01
38.97
38.59
37.74
37.78
39.8
44.12
50.07
56.29
61.37
64.52
65.75
65.75
65.27
64.67
63.72
61.87
58.71
54.19
48.77
43.01
37.31
31.74
26.14
20.35
14.38
8.46
2.83
-2.38
-7.36
-12.41
-17.8
-23.42
-28.72
-32.73
-34.42
-33.04
-28.37
-20.81
-11.17
-0.49
10.29
20.41
29.31
36.52
41.64
44.37
44.55
42.24
37.7
31.32
23.58
15.16
6.97
0.16
-4.06
-4.86
-2.09
3.44
10.18
16.26
20.1
20.86
18.6
14.11
8.45
2.53
-3.22
-8.82
-14.51
-20.45
-26.45
-31.87
-35.76
-37.05
-34.92
-28.96
-19.39
-6.87
7.5
22.45
36.72
49.29
59.47
67.11
72.72
77.34
82.17
88.08
94.97
101.66
106.3
107.29
104.3
98.93
94.33
94.21
101.24
116.01
136.78
160.02
181.69
198.32
207.79
209.47
204.06
192.98
177.99
160.78
142.76
125.02
108.4
93.53
80.66
69.59
59.49
48.95
36.19
19.51
-2.56
-31.03
-66.2
-107.14
-151.14
-193.48
-228.26
-250.02
-255.79
-246.29
-225.77
-200.28
-175.32
-154.15
-137.36
-123.9
-112.48
-102.71
-95.15
-90.71
-89.87
-92.37
-97.35
-103.9
-111.36
-119.41
-127.98
-136.83
-145.29
-152.25
-156.37
-156.55
-152.43
-144.64
-134.69
-124.48
-115.68
-109.14
-104.7
-101.42
-97.87
-92.74
-85.1
-74.69
-61.75
-46.89
-30.85
-14.22
2.65
19.63
36.69
53.64
69.93
84.71
96.9
105.64
110.5
111.64
109.83
106.11
101.65
97.48
94.47
93.23
94.15
97.32
102.46
109.07
116.49
124.03
131.12
137.19
141.71
144.18
144.31
142.19
138.39
133.79
129.26
125.36
122.22
119.63
117.32
115.12
112.99
111.02
109.4
108.46
108.67
110.57
114.59
120.81
128.82
137.72
146.27
153.07
156.64
155.59
148.78
135.57
116.16
91.53
63.31
33.24
2.76
-27.2
-56.1
-83.46
-108.67
-131.02
-150.01
-165.61
-178.29
-188.85
-198.0
-206.17
-213.5
-220.02
-225.92
-231.56
-237.29
-243.12
-248.54
-252.69
-254.74
-254.47
-252.63
-250.98
-251.72
-256.52
-265.37
-275.89
-283.59
-283.12
-270.13
-243.02
-203.69
-156.79
-108.09
-62.32
-21.91
13.22
44.74
74.71
104.67
135.08
165.08
192.35
213.14
222.96
217.91
196.26
159.69
113.18
63.6
17.51
-20.81
-50.15
-71.84
-88.29
-101.64
-113.16
-123.35
-132.48
-141.05
-149.74
-159.25
-169.78
-180.96
-191.8
-201.04
-207.45
-209.96
-207.58
-199.17
-183.51
-159.7
-127.96
-90.34
-50.78
-14.33
14.33
32.46
40.07
39.66
35.03
29.75
26.02
24.43
24.51
25.41
26.58
27.84
29.29
31.12
33.56
36.92
41.61
47.81
55.29
63.11
69.88
74.14
75.0
72.46
67.42
61.23
55.14
49.82
45.27
41.03
36.41
30.85
24.08
16.24
7.96
0.26
-5.62
-8.64
-8.29
-4.84
0.73
7.06
12.83
17.15
19.62
20.27
19.31
16.97
13.48
9.07
4.04
-1.33
-6.85
-12.55
-18.57
-25.02
-31.9
-38.95
-45.73
-51.84
-57.08
-61.62
-65.99
-70.94
-77.14
-84.96
-94.22
-104.17
-113.72
-121.75
-127.39
-130.16
-129.8
-126.01
-118.33
-106.2
-89.28
-67.57
-41.37
-11.0
23.44
61.98
104.27
149.11
194.19
236.58
273.57
303.42
325.61
340.36
348.1
349.03
343.38
331.77
315.28
295.12
272.05
246.01
216.45
183.2
147.15
110.34
75.24
43.51
15.23
-11.26
-38.63
-69.41
-104.88
-144.05
-183.15
-216.02
-235.69
-237.13
-219.96
-189.71
-156.24
-130.01
-117.47
-118.55
-127.23
-134.62
-133.01
-118.23
-90.27
-52.41
-10.44
28.04
54.84
63.7
53.38
29.61
3.89
-11.16
-7.74
13.23
42.76
68.44
80.7
76.71
60.19
37.72
14.57
-7.54
-29.62
-52.69
-75.55
-94.55
-105.3
-105.35
-95.66
-80.37
-64.95
-53.75
-48.61
-48.6
-50.53
-50.07
-42.92
-26.26
-0.58
28.95
52.91
60.22
42.91
0.43
-58.53
-118.63
-163.62
-182.74
-174.2
-144.51
-104.56
-64.99
-33.22
-12.98
-5.33
-9.63
-23.43
-42.09
-58.72
-65.33
-55.01
-24.29
25.53
88.53
155.74
217.41
265.51
295.62
307.6
305.08
293.79
279.38
266.02
255.88
249.55
246.76
246.64
247.51
246.69
240.75
226.29
200.99
163.96
115.56
57.14
-8.63
-77.29
-142.11
-194.89
-227.96
-236.6
-220.39
-182.82
-129.43
-66.16
1.16
66.35
122.34
161.92
179.68
174.44
150.22
114.91
77.09
42.7
13.11
-14.54
-45.19
-83.05
-129.3
-181.23
-232.85
-276.49
-304.85
-312.68
-297.82
-261.49
-207.57
-142.1
-72.67
-7.88
43.5
74.29
81.14
66.3
37.72
6.89
-15.41
-23.41
-18.61
-8.76
-4.05
-11.87
-33.23
-62.54
-90.57
-108.79
-112.6
-101.94
-79.72
-49.94
-16.6
16.17
43.95
62.76
71.14
72.15
73.38
83.92
109.83
150.32
197.18
237.99
261.31
260.8
236.47
193.05
137.45
77.08
19.73
-26.36
-53.14
-55.09
-32.2
8.66
54.9
92.23
109.28
101.38
71.13
26.42
-22.5
-66.24
-97.85
-113.37
-111.57
-93.42
-60.94
-16.21
38.94
102.1
169.19
233.55
286.64
320.15
328.42
311.03
273.05
223.19
170.94
123.84
86.33
59.9
43.87
35.32
30.93
27.54
22.64
14.5
2.37
-13.53
-32.16
-52.19
-74.17
-97.96
-122.51
-146.07
-167.66
-188.03
-209.38
-234.04
-263.32
-299.71
-341.77
-384.65
-421.0
-444.41
-452.0
-445.17
-428.67
-409.02
-396.2
-395.23
-405.18
-418.36
-425.03
-418.42
-397.66
-367.37
-308.99
-218.81
-108.08
-0.28
84.69
137.56
158.01
150.42
121.95
81.25
28.95
-30.46
-91.75
-146.06
-183.36
-194.46
-174.01
-122.28
-46.3
39.88
125.01
187.62
209.6
185.34
126.19
55.05
-0.46
-29.78
-34.52
-21.79
-0.87
23.82
47.84
69.72
88.78
103.88
112.75
113.57
106.63
93.88
80.65
73.23
76.34
90.45
111.86
134.35
152.83
165.15
171.96
177.05
185.04
199.33
220.17
244.94
269.5
291.31
310.05
326.99
344.29
363.07
382.65
400.29
412.17
414.78
406.39
387.08
358.32
323.08
285.57
250.91
223.65
206.17
196.93
190.72
180.09
158.11
120.95
69.13
7.32
-57.38
-117.66
-168.1
-206.29
-233.0
-251.17
-264.32
-275.0
-283.91
-290.22
-292.57
-290.37
-284.26
-275.76
-266.02
-255.22
-242.7
-227.78
-210.6
-192.05
-173.06
-153.58
-132.28
-107.15
-76.23
-38.41
6.19
55.89
107.37
155.76
195.64
222.79
236.19
238.9
237.09
237.27
243.21
254.26
266.13
273.52
273.18
265.26
252.55
238.36
224.41
210.26
194.31
175.34
153.6
130.74
108.65
88.32
69.17
49.31
26.43
-1.24
-34.38
-72.4
-113.66
-155.74
-195.8
-230.86
-258.43
-277.12
-287.1
-290.03
-288.36
-284.24
-278.66
-271.38
-261.67
-249.36
-235.47
-221.83
-209.87
-199.46
-188.56
-174.15
-153.96
-127.97
-98.73
-70.27
-46.26
-28.51
-16.64
-8.97
-3.91
-0.97
-0.88
-4.78
-13.25
-25.7
-40.45
-55.33
-68.28
-77.72
-82.68
-82.68
-77.8
-68.63
-56.25
-42.06
-27.44
-13.47
-0.81
10.26
19.64
27.31
33.17
37.19
39.48
40.41
40.56
40.58
40.96
41.79
42.78
43.54
43.77
43.51
42.98
42.16
40.56
37.16
30.93
21.55
9.9
-2.0
-11.7
-17.31
-18.27
-15.44
-10.63
-5.65
-1.62
1.32
3.73
6.31
9.36
12.56
15.07
15.97
14.69
11.32
6.58
1.5
-3.06
-6.85
-10.28
-14.17
-19.31
-25.99
-33.95
-42.59
-51.3
-59.76
-67.87
-75.36
-81.39
-84.6
-83.41
-76.84
-65.06
-49.41
-32.0
-14.87
0.53
13.59
24.26
32.65
38.76
42.47
43.81
43.13
41.14
38.71
36.56
34.95
33.7
32.28
30.06
26.56
21.5
14.82
6.56
-3.07
-13.67
-24.44
-34.2
-41.52
-45.06
-44.0
-38.36
-29.01
-17.41
-5.16
6.4
16.38
24.39
30.35
34.32
36.41
36.75
35.59
33.31
30.4
27.41
24.75
22.63
20.93
19.29
17.2
14.09
9.47
2.99
-5.51
-15.78
-27.06
-38.01
-46.87
-51.96
-52.12
-47.24
-38.26
-26.87
-14.9
-3.69
6.36
15.82
25.87
37.71
51.86
67.7
83.48
96.87
105.68
108.65
105.77
98.14
87.38
75.05
62.3
49.88
38.37
28.21
19.56
12.14
5.07
-2.62
-11.4
-20.68
-28.72
-33.24
-32.36
-25.53
-13.83
0.39
14.37
25.93
34.0
38.61
40.52
40.52
39.13
36.59
33.03
28.79
24.5
20.91
18.64
17.88
18.44
19.85
21.63
23.4
24.81
25.41
24.51
21.4
15.64
7.63
-1.36
-9.34
-14.31
-14.91
-10.8
-2.65
8.23
20.35
32.24
42.6
50.3
54.44
54.62
51.17
45.15
38.16
31.85
27.28
24.64
23.35
22.32
20.5
17.2
12.31
6.08
-1.04
-8.77
-17.06
-26.22
-36.71
-48.98
-63.32
-79.58
-97.11
-114.59
-130.06
-141.18
-145.53
-141.28
-127.73
-105.65
-77.1
-45.04
-12.54
17.76
43.93
64.83
79.87
88.97
92.49
91.39
87.17
81.63
76.42
72.53
70.03
68.25
66.21
63.14
58.8
53.44
47.54
41.46
35.33
29.05
22.41
15.25
7.41
-1.3
-11.07
-21.82
-32.91
-42.88
-49.66
-51.11
-45.8
-33.57
-15.74
5.38
27.2
47.57
65.21
79.56
90.51
98.0
101.97
102.48
99.98
95.49
90.32
85.74
82.49
80.57
79.36
77.93
75.5
71.65
66.4
60.03
52.86
45.04
36.49
26.87
15.68
2.46
-12.92
-30.08
-47.94
-64.76
-78.44
-87.09
-89.54
-85.64
-76.29
-63.07
-47.71
-31.75
-16.35
-2.33
9.61
18.78
24.63
26.87
25.73
21.97
16.75
11.37
6.83
3.63
1.66
0.34
-1.14
-3.41
-6.73
-10.88
-15.33
-19.51
-23.1
-26.15
-29.03
-32.28
-36.42
-41.91
-49.05
-57.79
-67.52
-76.89
-83.82
-85.98
-81.51
-69.82
-51.96
-30.48
-8.54
11.08
26.8
38.38
46.48
51.9
55.09
56.05
54.69
51.24
46.47
41.44
37.1
33.84
31.52
29.61
27.7
25.63
23.54
21.68
20.17
18.93
17.7
16.16
13.98
10.94
6.82
1.47
-5.22
-13.3
-22.7
-33.05
-43.54
-52.81
-59.05
-60.45
-55.77
-44.87
-28.88
-9.95
9.42
27.05
41.53
52.27
59.25
62.68
62.78
59.75
53.96
46.07
37.04
27.97
19.86
13.34
8.59
5.38
3.25
1.66
0.1
-1.89
-4.64
-8.39
-13.09
-18.51
-24.21
-29.78
-34.94
-39.68
-44.25
-49.04
-54.51
-61.03
-68.72
-77.26
-85.77
-92.75
-96.4
-95.07
-87.82
-74.81
-57.25
-37.09
-16.45
2.89
19.72
33.39
43.65
50.57
54.46
55.87
55.51
54.22
52.76
51.62
50.96
50.53
49.83
48.29
45.63
41.95
37.78
33.76
30.2
26.9
23.19
18.43
12.5
6.1
0.42
-3.41
-5.06
-5.33
-5.89
-8.74
-15.39
-26.36
-40.95
-57.35
-73.07
-85.43
-92.24
-92.3
-85.79
-74.17
-59.74
-44.97
-31.91
-21.7
-14.65
-10.37
-8.11
-7.0
-6.25
-5.11
-2.97
0.63
5.94
12.81
20.6
28.12
33.85
36.27
34.44
28.33
18.89
7.77
-3.33
-13.19
-21.33
-27.93
-33.55
-38.69
-43.68
-48.69
-53.81
-59.0
-63.95
-67.82
-69.32
-66.96
-59.66
-47.34
-31.1
-13.04
4.33
18.82
29.08
34.76
36.35
34.74
30.95
25.93
20.55
15.59
11.74
9.4
8.5
8.47
8.45
7.47
4.96
0.83
-4.44
-10.05
-15.2
-19.37
-22.48
-24.87
-27.19
-30.2
-34.5
-40.33
-47.38
-54.79
-61.23
-65.25
-65.64
-61.85
-54.19
-43.75
-32.08
-20.61
-10.12
-0.49
9.04
19.33
30.59
42.08
52.2
59.19
61.9
60.3
55.49
49.16
42.91
37.68
33.58
30.25
27.17
24.08
21.0
18.09
15.37
12.62
9.36
5.04
-0.74
-8.12
-16.94
-26.74
-36.85
-46.35
-54.14
-59.01
-59.87
-56.05
-47.61
-35.36
-20.82
-5.75
8.13
19.61
28.01
33.19
35.42
35.12
32.84
29.22
24.92
20.62
16.87
13.94
11.72
9.75
7.35
3.94
-0.77
-6.57
-12.79
-18.52
-22.94
-25.58
-26.61
-26.74
-27.1
-28.81
-32.8
-39.42
-48.38
-58.69
-68.84
-77.08
-81.88
-82.33
-78.44
-71.12
-61.93
-52.48
-44.0
-37.02
-31.48
-27.08
-23.69
-21.5
-20.96
-22.43
-25.89
-30.85
-36.51
-42.07
-46.98
-51.1
-54.53
-57.4
-59.71
-61.24
-61.46
-59.5
-54.2
-44.38
-29.44
-9.98
11.78
32.19
47.03
52.83
48.05
33.79
13.74
-6.74
-21.94
-27.44
-21.41
-5.22
16.92
39.3
56.56
65.49
65.9
60.29
52.56
46.33
43.8
45.27
49.53
54.54
58.17
58.71
55.07
47.06
35.41
21.83
8.66
-1.63
-7.1
-7.01
-1.95
6.38
15.77
24.2
30.44
34.08
35.42
35.1
33.76
31.99
30.33
29.36
29.6
31.38
34.6
38.69
42.84
46.31
48.82
50.59
52.14
53.93
56.01
57.96
59.12
58.94
57.26
54.45
51.21
48.39
46.77
47.02
49.5
54.22
60.64
67.68
73.93
77.9
78.36
74.62
66.62
54.73
39.53
21.6
1.52
-19.83
-41.41
-61.85
-79.43
-92.16
-98.19
-96.32
-86.47
-69.78
-48.15
-24.3
-1.06
19.23
35.34
47.23
55.76
62.2
67.8
73.91
80.87
88.18
94.86
100.25
104.39
108.1
112.59
118.82
127.58
137.84
147.06
152.09
150.73
142.59
129.16
113.09
93.4
72.57
54.73
43.3
39.05
40.77
46.23
53.36
60.24
64.78
65.56
60.92
50.75
35.56
16.66
-4.46
-26.77
-50.28
-75.99
-104.68
-136.79
-171.6
-206.83
-238.7
-262.96
-276.15
-276.5
-264.16
-240.8
-209.82
-176.0
-144.73
-120.63
-106.36
-102.02
-105.62
-114.3
-125.37
-137.29
-149.25
-160.46
-169.43
-174.34
-174.14
-169.43
-162.3
-155.28
-150.18
-147.53
-146.95
-148.21
-151.87
-159.37
-172.3
-191.33
-215.49
-241.98
-266.63
-284.75
-292.48
-287.78
-271.18
-245.54
-215.04
-183.8
-154.61
-128.41
-104.7
-82.42
-60.73
-39.29
-17.92
3.82
26.88
52.54
82.06
116.24
155.18
198.03
242.76
286.25
324.66
354.31
372.66
379.04
374.65
361.91
343.48
321.49
297.33
271.98
246.44
221.92
199.66
180.44
164.29
150.4
137.56
124.68
111.21
97.28
83.66
71.31
60.95
52.69
46.01
39.9
33.37
25.71
16.69
6.42
-4.77
-16.36
-27.53
-37.07
-43.46
-45.28
-41.78
-33.44
-21.92
-9.69
0.87
8.24
12.1
13.17
12.56
11.24
9.82
8.64
8.03
8.47
10.36
13.75
17.99
21.8
23.67
22.4
17.6
9.85
0.32
-9.64
-19.07
-27.49
-34.78
-40.91
-45.77
-49.28
-51.6
-53.21
-54.77
-56.66
-58.63
-59.74
-58.8
-55.03
-48.5
-40.19
-31.45
-23.44
-16.71
-11.28
-6.97
-3.7
-1.62
-0.85
-1.18
-2.02
-2.49
-1.79
0.5
4.29
9.02
13.87
18.11
21.24
23.14
24.01
24.28
24.37
24.55
24.86
25.1
24.96
24.11
22.44
20.11
17.66
15.95
15.94
18.43
23.7
31.29
40.1
48.62
55.49
59.86
61.59
61.13
59.16
56.21
52.59
48.33
43.38
37.83
31.93
26.11
20.9
16.76
13.94
12.35
11.5
10.64
8.99
6.05
1.71
-3.69
-9.55
-15.36
-20.83
-26.04
-31.26
-36.74
-42.43
-47.88
-52.29
-54.76
-54.53
-51.27
-45.08
-36.49
-26.26
-15.22
-4.06
6.65
16.53
25.44
33.38
40.47
46.72
51.98
55.97
58.53
59.91
60.84
62.36
65.37
70.21
76.52
83.3
89.31
93.14
93.35
88.48
77.64
61.5
43.03
27.25
19.71
24.05
40.16
63.98
88.9
108.4
118.06
116.26
103.5
81.18
50.93
14.79
-24.29
-62.28
-94.68
-117.76
-129.71
-130.91
-123.41
-109.88
-92.96
-74.99
-58.35
-45.93
-41.04
-46.78
-64.87
-94.68
-133.08
-175.3
-216.25
-251.95
-280.22
-300.98
-315.5
-325.51
-332.19
-335.53
-333.99
-324.76
-304.8
-272.28
-228.06
-176.18
-123.17
-76.07
-40.11
-17.08
-5.0
0.67
5.19
12.75
25.46
43.39
65.34
89.86
115.84
142.51
168.87
193.2
213.17
226.41
231.64
229.32
221.82
212.46
204.21
198.43
194.45
190.2
183.39
172.85
159.29
145.11
133.49
127.11
127.28
133.53
143.9
155.57
165.56
171.56
172.58
169.73
166.47
167.58
177.6
198.58
228.36
260.58
286.67
298.98
293.69
271.75
237.48
196.39
153.09
110.39
69.64
31.75
-2.26
-31.43
-55.67
-76.98
-98.72
-124.37
-156.21
-194.33
-236.34
-277.8
-313.36
-338.41
-351.96
-355.6
-352.09
-343.74
-331.38
-314.19
-290.29
-258.2
-218.53
-177.66
-143.43
-121.43
-112.46
-113.06
-117.73
-120.91
-118.59
-109.12
-98.1
-92.08
-95.21
-108.02
-129.39
-158.27
-193.4
-232.04
-269.79
-307.88
-347.67
-388.63
-427.92
-462.81
-492.3
-516.44
-535.15
-510.07
-420.09
-273.27
-104.45
49.52
169.71
255.32
314.49
356.67
388.5
406.92
407.09
388.55
357.04
321.41
289.26
265.02
249.7
241.76
233.38
216.4
187.34
148.04
102.67
54.72
6.49
-39.33
-79.12
-104.1
-111.03
-100.79
-78.3
-51.48
-28.7
-15.4
-11.65
-13.45
-16.95
-21.04
-25.22
-29.27
-32.79
-35.06
-35.33
-32.57
-26.52
-18.32
-10.22
-3.42
2.74
10.52
23.03
39.01
56.49
71.42
78.94
74.88
58.74
34.39
8.89
-10.23
-17.95
-12.74
2.87
24.1
45.84
64.72
79.63
91.24
101.07
110.66
121.63
134.93
150.75
168.26
185.31
198.34
202.73
194.0
169.39
129.72
79.65
26.67
-21.07
-57.37
-79.87
-90.32
-93.08
-92.89
-92.7
-93.11
-93.05
-91.29
-87.88
-84.53
-83.72
-87.2
-94.68
-103.51
-109.72
-109.76
-102.04
-87.52
-69.0
-49.73
-32.13
-17.22
-4.91
5.28
13.5
19.5
22.78
23.03
20.35
15.36
9.08
2.74
-2.39
-5.27
-5.31
-2.58
2.29
8.39
14.98
21.68
28.46
35.14
41.04
45.07
46.18
44.2
40.22
36.45
35.31
38.34
45.45
54.81
63.64
69.23
69.93
65.57
57.32
47.08
36.85
28.05
21.24
16.03
11.35
5.96
-1.01
-9.6
-18.93
-27.58
-34.24
-38.51
-41.18
-44.02
-48.92
-56.99
-67.91
-79.94
-90.59
-97.54
-99.31
-95.66
-87.42
-76.23
-64.0
-52.6
-43.27
-36.06
-29.56
-21.14
-7.72
12.88
40.53
72.08
101.92
124.15
135.23
135.67
129.89
123.86
122.0
124.92
129.39
130.25
123.37
107.34
83.5
54.13
20.49
-18.04
-62.84
-113.71
-167.01
-215.49
-250.35
-264.62
-255.92
-227.64
-187.6
-145.04
-107.12
-76.79
-52.59
-30.3
-4.99
27.27
68.39
117.73
171.81
224.27
266.94
292.0
294.72
275.52
240.13
197.4
156.2
122.54
98.59
83.31
74.28
69.05
65.76
62.94
59.25
53.52
45.21
34.77
23.53
13.24
5.61
1.67
1.52
4.32
8.44
11.97
13.25
11.41
6.64
0.1
-6.54
-11.67
-14.27
-14.08
-11.61
-7.81
-3.74
-0.27
2.12
3.33
3.62
3.46
3.37
3.67
4.44
5.49
6.67
8.09
10.22
13.74
19.2
26.61
35.31
44.08
51.6
56.9
59.7
60.31
59.41
57.7
55.62
53.3
50.52
46.79
41.57
34.5
25.66
15.67
5.63
-3.25
-9.97
-14.02
-15.44
-14.8
-12.95
-10.89
-9.46
-9.09
-9.6
-10.14
-9.41
-6.14
0.3
9.61
20.58
31.54
40.99
47.91
51.91
52.85
50.7
45.48
37.46
27.37
16.33
5.43
-4.64
-13.78
-22.31
-30.52
-38.29
-45.11
-50.4
-53.95
-56.21
-58.17
-60.91
-65.09
-70.59
-76.49
-81.32
-83.45
-81.67
-75.58
-65.78
-53.7
-41.13
-29.66
-20.26
-13.27
-8.52
-5.73
-4.6
-4.82
-6.05
-7.87
-9.92
-12.11
-14.64
-17.96
-22.33
-27.61
-33.14
-37.99
-41.41
-43.27
-44.15
-45.14
-47.32
-51.21
-56.42
-61.66
-65.2
-65.37
-61.14
-52.4
-39.98
-25.34
-10.22
3.73
15.3
23.94
29.81
33.88
37.67
42.87
50.79
61.83
75.18
88.95
100.7
108.18
110.03
106.08
97.25
85.05
71.03
56.41
41.86
27.55
13.47
-0.33
-13.43
-24.97
-33.78
-38.67
-38.93
-34.66
-27.05
-18.13
-10.37
-6.03
-6.49
-11.91
-21.21
-32.42
-43.18
-51.39
-55.67
-55.63
-51.77
-45.17
-37.17
-28.97
-21.46
-15.18
-10.27
-6.57
-3.67
-1.05
1.65
4.43
6.74
7.67
6.31
2.3
-3.83
-10.59
-16.04
-18.43
-16.92
-11.82
-4.39
3.65
10.81
16.22
19.63
21.26
21.35
20.0
17.1
12.5
6.18
-1.58
-10.31
-19.45
-28.57
-37.39
-45.68
-53.08
-59.02
-62.84
-63.98
-62.29
-58.19
-52.51
-46.2
-39.88
-33.61
-26.92
-19.01
-9.19
2.76
16.46
30.97
45.02
57.31
66.72
72.48
74.26
72.24
66.99
59.34
50.11
39.87
28.88
17.2
5.01
-7.16
-18.4
-27.72
-34.47
-38.58
-40.58
-41.33
-41.63
-42.04
-42.93
-44.51
-46.95
-50.15
-53.54
-56.01
-56.12
-52.61
-44.94
-33.55
-19.72
-5.15
8.65
20.6
30.16
37.13
41.43
43.02
41.95
38.51
33.23
26.8
19.93
13.15
6.75
0.8
-4.74
-9.95
-14.84
-19.41
-23.64
-27.62
-31.41
-34.98
-38.1
-40.31
-40.96
-39.41
-35.2
-28.16
-18.55
-6.93
5.82
18.68
30.61
40.66
48.19
52.98
55.3
55.66
54.69
52.8
50.14
46.72
42.53
37.71
32.53
27.34
22.34
17.63
13.17
8.95
5.1
1.86
-0.54
-2.01
-2.7
-3.05
-3.66
-5.15
-7.96
-12.19
-17.48
-23.02
-27.71
-30.41
-30.36
-27.28
-21.57
-14.03
-5.71
2.41
9.56
15.14
18.74
20.09
19.14
16.12
11.52
5.98
0.11
-5.71
-11.3
-16.67
-21.93
-27.08
-32.01
-36.45
-40.08
-42.62
-43.95
-44.17
-43.6
-42.73
-42.06
-41.99
-42.65
-43.83
-44.89
-44.94
-42.96
-38.14
-30.18
-19.41
-6.82
6.26
18.47
28.73
36.48
41.55
44.03
44.04
41.68
37.19
31.18
24.69
19.05
15.44
14.45
15.76
18.29
20.68
21.89
21.56
20.0
17.83
15.55
13.24
10.59
7.24
3.19
-1.09
-4.67
-6.5
-5.81
-2.35
3.49
10.83
18.56
25.62
31.25
34.96
36.63
36.31
34.26
30.9
26.81
22.6
18.87
16.01
14.09
12.91
12.02
10.86
8.98
6.13
2.31
-2.29
-7.53
-13.35
-19.89
-27.34
-35.72
-44.64
-53.23
-60.15
-63.93
-63.29
-57.51
-46.55
-31.05
-12.25
8.33
29.04
48.43
65.35
79.08
89.3
95.98
99.2
98.92
94.87
86.6
73.78
56.51
35.52
12.22
-11.54
-33.92
-53.42
-69.11
-80.75
-88.62
-93.47
-96.35
-98.53
-101.18
-104.93
-109.4
-112.94
-112.97
-106.85
-92.93
-71.32
-44.08
-14.55
13.65
37.63
55.82
68.04
75.08
78.22
78.79
77.93
76.48
74.98
73.77
73.15
73.48
75.28
79.13
85.36
93.66
102.84
111.03
116.03
116.28
111.22
101.39
88.06
73.06
58.85
48.74
46.29
53.86
70.85
92.57
111.02
117.44
105.68
74.44
27.19
-29.98
-91.05
-151.71
-209.03
-260.16
-301.48
-329.22
-341.19
-338.3
-324.36
-304.21
-281.25
-255.86
-225.45
-186.32
-136.4
-77.09
-13.64
46.43
95.8
129.76
147.43
151.34
145.97
135.73
123.74
111.4
99.14
87.2
76.25
67.21
60.75
56.76
54.29
52.0
48.93
44.88
40.43
36.52
33.85
32.39
31.31
29.33
25.22
18.32
8.71
-2.88
-15.37
-27.7
-39.13
-49.25
-57.91
-65.13
-71.02
-75.82
-80.06
-84.34
-89.12
-94.38
-99.33
-102.46
-101.99
-96.49
-85.49
-69.75
-51.06
-31.69
-13.86
0.73
10.99
16.41
16.85
12.66
4.64
-5.8
-16.69
-25.74
-30.86
-30.67
-25.11
-15.47
-3.99
6.81
15.01
19.68
20.83
19.02
14.73
8.22
-0.28
-10.09
-19.71
-26.9
-29.3
-25.35
-14.94
0.47
18.29
35.75
50.59
61.48
67.97
70.08
67.96
61.75
51.72
38.49
23.24
7.62
-6.54
-17.65
-24.83
-28.08
-28.21
-26.6
-24.59
-23.18
-22.79
-23.34
-24.55
-26.18
-28.14
-30.4
-32.92
-35.53
-37.96
-39.91
-41.11
-41.16
-39.43
-35.1
-27.35
-15.76
-0.65
16.83
34.98
52.03
66.57
77.83
85.6
89.99
91.21
89.44
84.81
77.44
67.44
54.95
40.2
23.77
6.61
-9.92
-24.32
-35.47
-43.02
-47.43
-49.73
-51.08
-52.39
-54.07
-56.05
-57.8
-58.42
-56.79
-51.75
-42.57
-29.2
-12.55
5.67
23.35
38.53
49.84
56.69
59.2
57.9
53.51
46.76
38.35
28.98
19.29
9.85
1.07
-6.86
-14.05
-20.76
-27.45
-34.58
-42.48
-51.29
-60.85
-70.68
-80.08
-88.23
-94.21
-97.17
-96.27
-90.85
-80.64
-65.98
-47.97
-28.21
-8.41
10.03
26.26
39.89
50.86
59.29
65.52
70.19
74.1
77.9
81.65
84.69
85.74
83.58
77.61
68.18
56.49
44.08
32.2
21.42
11.57
1.94
-8.37
-20.02
-33.15
-47.2
-60.92
-72.58
-80.4
-82.99
-79.83
-71.52
-59.53
-45.89
-32.54
-20.91
-11.73
-5.09
-0.56
2.6
5.34
8.63
12.94
18.03
22.87
26.11
26.94
25.7
23.99
24.08
27.83
35.74
46.85
59.21
70.59
79.27
84.26
85.3
82.75
77.53
71.21
65.83
63.38
65.16
71.32
80.61
90.51
97.52
97.75
87.78
65.84
32.83
-7.06
-47.04
-79.66
-99.18
-103.45
-94.39
-76.74
-55.94
-36.12
-19.24
-5.37
6.13
15.61
22.68
26.46
26.12
21.42
12.81
1.39
-11.32
-23.74
-34.54
-42.95
-48.87
-52.71
-55.13
-56.68
-57.56
-57.65
-56.74
-54.71
-51.6
-47.49
-42.36
-35.97
-28.1
-18.79
-8.69
0.97
8.71
13.29
14.17
11.59
6.43
-0.11
-6.92
-13.13
-18.2
-21.85
-24.1
-25.18
-25.48
-25.4
-25.04
-24.12
-22.1
-18.46
-12.97
-6.07
1.32
7.98
12.78
15.08
14.76
12.19
7.99
2.83
-2.76
-8.53
-14.51
-21.02
-28.48
-37.3
-47.55
-58.88
-70.43
-80.89
-88.54
-91.52
-88.05
-76.91
-58.0
-32.63
-3.58
25.61
51.54
72.1
86.97
97.45
105.59
113.21
121.03
128.61
134.74
138.05
137.72
133.55
125.99
115.8
103.82
90.82
77.48
64.43
52.24
41.3
31.74
23.22
15.03
6.2
-4.06
-16.05
-29.32
-42.78
-55.11
-65.24
-72.8
-78.16
-82.14
-85.48
-88.33
-89.85
-88.34
-81.79
-68.68
-48.71
-23.22
5.04
32.53
55.88
72.76
82.26
84.93
82.29
76.24
68.63
60.96
54.34
49.5
46.82
46.25
47.45
49.69
52.16
54.0
54.63
53.73
51.39
47.99
44.06
40.2
36.88
34.46
33.25
33.61
36.01
41.0
49.06
60.31
74.36
90.29
106.88
122.84
137.22
149.44
159.26
166.5
170.78
171.42
167.52
158.25
143.03
121.66
94.3
61.4
23.66
-17.98
-62.24
-107.57
-152.25
-194.73
-233.88
-269.02
-299.67
-325.18
-344.55
-356.39
-359.45
-353.08
-337.69
-314.66
-286.05
-254.08
-220.63
-187.09
-154.21
-122.1
-90.19
-57.29
-21.95
16.91
59.27
103.54
146.65
184.7
213.94
231.77
237.32
231.53
216.77
196.24
173.23
150.34
129.01
109.3
90.21
70.45
49.31
27.26
6.04
-11.91
-24.49
-30.65
-30.81
-26.49
-19.73
-12.5
-6.33
-2.33
-1.27
-3.57
-9.02
-16.74
-25.2
-32.57
-37.14
-37.71
-33.54
-24.18
-9.35
10.64
34.45
59.2
80.76
94.6
97.14
86.79
64.29
32.16
-6.2
-47.14
-86.87
-121.3
-146.1
-157.42
-153.34
-134.94
-106.61
-74.59
-44.98
-21.59
-5.25
5.99
15.51
26.95
43.52
67.76
100.95
142.32
188.4
233.03
269.06
290.32
294.06
281.51
257.08
226.43
194.41
164.19
137.38
114.57
96.0
81.76
71.86
66.26
64.76
67.11
72.75
80.7
89.51
97.72
104.22
108.65
110.98
111.08
108.07
100.5
87.24
68.81
47.82
28.45
14.8
8.88
9.91
14.58
18.85
19.63
15.8
7.97
-2.56
-14.83
-28.47
-43.3
-58.7
-73.5
-86.57
-97.64
-107.66
-118.5
-131.95
-148.67
-167.7
-186.82
-203.45
-215.5
-221.98
-222.92
-219.0
-211.18
-200.58
-188.35
-175.8
-164.26
-154.74
-147.66
-142.76
-139.23
-136.04
-132.4
-127.99
-123.0
-118.02
-113.68
-110.59
-109.0
-108.77
-109.32
-109.76
-109.1
-106.57
-101.79
-94.9
-86.42
-77.09
-67.74
-59.12
-51.83
-46.2
-42.27
-39.73
-38.04
-36.61
-34.99
-33.02
-30.9
-29.16
-28.53
-29.72
-33.21
-38.85
-45.74
-52.28
-56.58
-57.15
-53.51
-46.47
-37.83
-29.63
-23.31
-19.35
-17.45
-17.0
-17.61
-19.07
-21.11
-22.94
-23.4
-21.43
-16.82
-10.73
-5.52
-3.91
-7.96
-18.12
-33.09
-50.36
-67.09
-81.09
-91.36
-98.05
-102.0
-104.0
-104.12
-101.52
-94.56
-81.24
-59.66
-28.52
12.09
59.93
110.06
155.16
186.96
198.6
186.99
154.06
106.28
52.5
1.08
-42.41
-75.97
-100.5
-118.25
-131.27
-140.67
-146.49
-148.17
-145.27
-137.75
-126.2
-111.56
-94.63
-75.93
-55.79
-34.53
-12.83
8.14
27.02
42.46
53.55
59.95
61.85
59.93
55.25
49.42
44.54
42.92
46.72
57.18
74.23
96.39
121.11
145.5
166.99
183.76
194.94
200.49
200.81
196.54
188.32
176.84
162.87
147.3
131.25
115.93
102.51
91.86
84.33
79.58
76.74
74.67
72.35
69.2
65.15
60.53
55.74
51.14
46.94
43.38
40.88
40.18
42.17
47.44
55.9
66.53
77.53
86.81
92.59
93.91
90.74
83.76
73.84
61.72
47.78
32.27
15.53
-1.87
-19.1
-35.22
-49.44
-61.26
-70.49
-77.31
-82.1
-85.41
-87.69
-89.24
-90.03
-89.85
-88.49
-85.89
-82.12
-77.1
-70.37
-61.03
-47.99
-30.61
-9.21
14.58
38.17
58.45
72.51
78.18
74.39
61.46
41.23
16.86
-7.72
-28.85
-44.14
-53.1
-56.91
-57.68
-57.31
-56.93
-56.82
-56.88
-57.13
-58.05
-60.32
-64.48
-70.67
-78.37
-86.41
-92.83
-95.18
-90.94
-78.55
-58.16
-31.78
-2.71
25.9
52.23
76.27
99.09
121.59
143.4
162.79
177.51
186.02
188.4
186.26
181.99
177.73
174.68
173.02
172.25
171.62
170.43
168.13
164.19
158.09
149.4
137.94
124.02
108.53
92.89
78.76
67.57
60.12
56.38
55.63
56.64
58.04
58.53
57.1
53.19
46.77
38.41
29.06
19.56
10.27
0.78
-9.83
-22.49
-37.53
-54.31
-71.44
-87.26
-100.49
-110.7
-118.38
-124.72
-131.28
-139.45
-150.12
-163.2
-177.54
-191.02
-201.08
-205.56
-203.37
-194.84
-181.49
-165.36
-148.3
-131.57
-115.65
-100.54
-86.14
-72.35
-59.2
-46.65
-34.41
-22.01
-9.03
4.57
18.08
30.05
38.56
41.88
39.11
30.43
16.91
-0.09
-19.5
-40.79
-63.65
-87.39
-110.57
-131.08
-146.8
-156.37
-159.75
-158.14
-153.51
-147.91
-143.0
-139.89
-139.15
-140.8
-144.39
-148.91
-153.0
-155.33
-154.94
-151.63
-145.94
-138.95
-132.02
-126.51
-123.7
-124.62
-129.93
-139.73
-153.5
-170.11
-187.92
-205.0
-219.25
-228.57
-231.09
-225.46
-211.21
-188.96
-160.3
-127.43
-92.74
-58.23
-25.28
5.46
34.02
61.01
87.43
114.63
144.08
177.03
213.85
253.25
291.96
325.17
347.79
356.32
350.3
332.59
308.44
283.31
260.98
242.47
226.52
211.13
195.07
178.7
163.51
151.06
141.85
134.95
128.59
121.22
112.58
104.06
98.16
97.11
101.71
110.72
121.21
129.89
134.46
134.62
132.08
129.6
129.61
133.12
139.45
146.72
152.83
156.18
155.97
152.11
144.87
134.85
123.1
111.39
101.96
96.79
96.56
99.83
103.24
102.46
93.78
75.37
47.69
12.77
-27.04
-70.18
-116.02
-164.08
-212.96
-259.64
-299.93
-329.96
-347.77
-354.23
-352.57
-346.9
-340.29
-333.71
-325.91
-314.68
-298.43
-277.29
-253.07
-228.21
-204.22
-180.57
-154.94
-124.49
-87.73
-45.94
-3.06
35.75
66.21
86.62
98.1
103.53
105.78
106.45
105.66
102.85
97.79
91.22
84.56
79.03
74.88
71.12
66.04
58.14
46.97
33.33
18.91
5.44
-5.92
-14.84
-21.55
-26.31
-29.2
-30.02
-28.66
-25.38
-20.82
-15.83
-11.05
-6.68
-2.46
2.05
7.19
12.93
18.86
24.27
28.35
30.45
30.26
27.91
23.83
18.59
12.49
5.63
-2.17
-11.04
-20.78
-30.63
-39.23
-44.96
-46.28
-42.26
-32.94
-19.41
-3.48
12.82
27.87
40.84
51.6
60.46
67.71
73.41
77.44
79.78
80.65
80.43
79.44
77.73
75.02
70.92
65.29
58.41
50.85
43.34
36.3
29.83
23.76
18.01
12.79
8.84
7.13
8.59
13.59
21.69
31.69
41.98
51.14
58.25
63.1
65.8
66.52
65.23
61.8
56.33
49.33
41.79
34.83
29.3
25.41
22.85
20.96
19.04
16.53
12.86
7.36
-0.76
-12.0
-26.14
-41.86
-56.94
-68.71
-74.75
-73.65
-65.38
-51.51
-34.78
-18.61
-6.23
-0.06
-1.17
-9.09
-22.05
-37.22
-51.35
-61.24
-64.23
-58.79
-45.17
-25.93
-5.85
8.92
12.67
2.3
-21.31
-53.12
-85.55
-110.87
-123.56
-121.76
-107.3
-84.51
-58.66
-34.58
-15.79
-4.09
0.44
-0.85
-5.56
-10.96
-14.66
-15.19
-12.17
-6.15
1.74
10.34
18.62
25.89
31.69
35.79
37.98
38.08
36.04
32.22
27.58
23.64
22.11
24.27
30.41
39.57
49.9
59.3
66.22
69.91
70.33
67.68
61.89
52.72
40.07
24.45
7.23
-9.64
-24.34
-35.68
-43.55
-48.66
-52.15
-55.03
-57.89
-60.93
-64.0
-66.68
-68.29
-67.91
-64.65
-57.93
-47.74
-34.72
-19.99
-4.72
10.04
23.54
35.2
44.42
50.5
52.74
50.76
44.81
35.94
25.65
15.46
6.39
-1.31
-7.97
-14.08
-19.85
-25.08
-29.3
-32.11
-33.34
-32.97
-30.79
-26.14
-18.01
-5.48
11.68
32.63
55.52
78.1
98.4
115.26
128.44
138.28
145.2
149.31
150.35
148.03
142.33
133.71
123.06
111.45
99.8
88.72
78.48
69.24
61.12
54.19
48.41
43.51
39.13
34.95
31.07
28.07
26.81
28.16
32.59
39.93
49.4
59.87
70.05
78.76
85.07
88.36
88.54
86.11
82.13
77.89
74.38
71.87
69.64
66.33
60.6
51.82
40.47
27.96
16.0
5.72
-3.17
-12.63
-25.82
-46.12
-75.53
-113.59
-156.92
-200.03
-236.83
-262.41
-274.32
-273.02
-261.22
-242.66
-220.69
-197.3
-172.75
-145.76
-114.22
-76.17
-31.08
19.1
69.62
113.71
144.56
157.77
152.94
134.04
107.71
80.69
57.64
40.13
26.93
15.32
2.61
-12.78
-30.52
-48.45
-63.06
-70.7
-69.01
-58.12
-40.83
-21.45
-4.19
8.5
16.31
20.28
21.58
20.7
17.64
12.87
7.93
5.2
6.81
13.42
23.53
34.06
41.41
43.09
38.53
29.12
17.44
6.25
-2.4
-7.5
-8.91
-7.11
-2.82
3.15
9.84
16.17
21.09
23.71
23.48
20.26
14.33
6.26
-3.17
-13.15
-23.05
-32.52
-41.51
-50.21
-58.75
-67.1
-74.99
-82.02
-87.78
-91.86
-93.81
-93.04
-88.85
-80.8
-68.99
-54.38
-38.59
-23.49
-10.55
-0.43
7.02
12.4
16.28
18.86
20.19
20.44
20.31
20.85
23.08
27.51
33.76
40.83
47.47
52.69
55.87
56.72
55.06
50.92
44.74
37.66
31.43
27.84
28.05
31.98
38.42
45.53
51.76
56.27
59.0
60.31
60.44
59.36
56.8
52.58
46.81
39.86
32.22
24.2
15.93
7.37
-1.53
-10.71
-20.02
-29.37
-38.85
-48.63
-58.86
-69.25
-78.89
-86.31
-89.87
-88.41
-81.76
-70.91
-57.67
-44.06
-31.76
-21.78
-14.53
-10.03
-8.08
-8.22
-9.62
-11.15
-11.59
-10.07
-6.46
-1.39
4.06
8.78
12.12
13.95
14.47
13.86
12.06
8.81
3.97
-2.12
-8.48
-13.65
-16.14
-15.01
-10.26
-2.79
5.97
14.61
22.18
28.32
33.0
36.19
37.63
36.9
33.69
28.24
21.43
14.59
9.02
5.54
4.24
4.7
6.23
8.25
10.36
12.25
13.49
13.51
11.75
8.02
2.8
-2.81
-7.38
-9.71
-9.26
-6.28
-1.63
3.55
8.11
11.17
12.17
10.94
7.67
2.8
-3.07
-9.42
-15.96
-22.74
-30.02
-38.04
-46.84
-56.18
-65.54
-74.25
-81.62
-86.91
-89.49
-88.99
-85.45
-79.35
-71.43
-62.42
-52.67
-42.05
-30.25
-17.05
-2.82
11.47
24.43
34.83
41.93
45.74
46.74
45.65
43.14
39.69
35.64
31.19
26.45
21.43
16.05
10.35
4.66
-0.26
-3.34
-3.57
-0.44
5.78
14.15
23.43
32.64
41.43
49.96
58.5
66.96
74.65
80.41
83.11
82.11
77.53
70.09
60.91
50.98
41.06
31.48
22.41
13.96
6.26
-0.46
-6.1
-10.69
-14.52
-18.1
-22.04
-26.9
-33.1
-40.78
-49.83
-59.8
-69.77
-78.33
-83.64
-83.87
-77.74
-65.15
-47.36
-26.7
-5.92
12.56
27.22
37.53
43.72
46.44
46.42
44.4
41.14
37.39
33.79
30.83
28.73
27.5
26.99
27.03
27.38
27.78
27.84
27.1
25.11
21.61
16.75
11.19
6.05
2.62
2.05
4.94
11.24
20.18
30.51
40.82
49.78
56.37
59.87
59.9
56.33
49.32
39.29
26.93
13.11
-1.2
-15.14
-28.05
-39.49
-49.23
-57.17
-63.35
-67.94
-71.38
-74.35
-77.62
-81.68
-86.4
-90.88
-93.57
-92.77
-87.21
-76.55
-61.49
-43.53
-24.53
-6.18
10.25
24.03
34.74
42.12
46.0
46.31
43.31
37.61
30.16
22.01
13.99
6.54
-0.35
-6.91
-13.39
-19.72
-25.52
-30.19
-33.16
-34.1
-33.03
-30.19
-25.91
-20.53
-14.4
-7.91
-1.47
4.5
9.84
14.7
19.52
24.87
31.1
38.07
45.16
51.47
56.16
58.73
59.06
57.31
53.72
48.54
42.0
34.44
26.39
18.56
11.64
6.0
1.64
-1.79
-4.73
-7.49
-10.16
-12.75
-15.36
-18.33
-22.09
-26.87
-32.4
-37.73
-41.43
-42.04
-38.59
-31.04
-20.24
-7.75
4.74
15.78
24.55
30.86
34.97
37.37
38.53
38.83
38.53
37.83
36.77
35.24
32.88
29.22
23.81
16.5
7.61
-2.16
-11.82
-20.47
-27.42
-32.34
-35.17
-36.08
-35.34
-33.32
-30.42
-27.12
-23.84
-20.82
-18.02
-15.02
-11.19
-5.94
0.93
9.08
17.57
25.08
30.26
31.92
29.18
21.44
8.43
-9.66
-31.97
-56.72
-81.48
-103.64
-121.13
-133.0
-139.56
-142.23
-142.91
-143.36
-144.54
-146.19
-146.74
-143.74
-134.58
-117.55
-92.55
-61.33
-27.09
6.55
36.56
61.16
79.82
92.78
100.59
103.65
102.28
96.86
88.02
76.56
63.3
48.98
34.18
19.54
5.95
-5.32
-12.85
-15.51
-12.99
-6.06
3.54
13.72
22.7
29.64
34.79
39.12
43.74
49.26
55.58
62.06
67.87
72.38
75.34
76.8
76.78
75.17
71.57
65.49
56.5
44.4
29.32
11.79
-7.21
-26.31
-43.81
-58.02
-67.61
-71.99
-71.52
-67.51
-61.78
-56.15
-51.79
-48.9
-46.66
-43.63
-38.31
-29.73
-17.82
-3.41
12.11
27.29
41.0
52.64
62.0
69.05
73.73
75.98
75.77
73.16
68.32
61.34
52.26
41.26
28.92
16.63
6.55
1.21
2.62
11.43
26.61
45.5
64.73
81.25
93.23
100.36
103.72
105.16
106.63
109.64
114.96
122.58
131.85
141.8
151.23
158.91
163.49
163.6
157.94
145.54
125.98
99.55
67.19
30.36
-8.99
-48.44
-85.1
-115.75
-137.15
-146.65
-142.93
-126.44
-99.54
-66.16
-31.04
1.1
26.36
42.28
48.06
44.59
34.04
19.26
3.07
-12.31
-25.61
-36.47
-45.21
-52.48
-58.93
-65.02
-71.13
-77.55
-84.59
-92.41
-100.93
-109.58
-117.41
-123.17
-125.74
-124.47
-119.35
-111.08
-100.74
-89.5
-78.34
-67.86
-58.42
-50.31
-43.83
-39.28
-36.78
-36.01
-36.11
-35.91
-34.27
-30.56
-24.93
-18.32
-12.23
-8.22
-7.62
-11.23
-19.19
-30.93
-45.17
-60.08
-73.48
-83.31
-88.1
-87.29
-81.28
-71.25
-58.86
-45.85
-33.71
-23.52
-15.78
-10.41
-6.89
-4.53
-2.7
-1.01
0.66
2.39
4.36
6.75
9.55
12.26
13.91
13.26
9.32
1.77
-8.94
-21.63
-34.66
-46.22
-54.52
-58.15
-56.47
-50.07
-41.03
-32.53
-27.99
-29.85
-38.53
-52.29
-67.84
-81.57
-90.7
-93.89
-91.21
-83.67
-72.66
-59.56
-45.65
-31.99
-19.44
-8.5
0.7
8.24
14.08
17.88
19.04
17.06
12.08
5.18
-1.7
-6.38
-7.15
-3.47
4.02
13.7
23.67
32.43
39.15
43.72
46.51
48.03
48.71
48.95
49.02
49.24
49.93
51.25
53.22
55.52
57.64
58.98
59.03
57.43
53.97
48.51
40.96
31.38
20.21
8.38
-2.79
-11.99
-18.28
-21.6
-22.73
-22.96
-23.51
-25.02
-27.34
-29.77
-31.44
-31.79
-30.64
-28.11
-24.37
-19.43
-13.17
-5.59
3.06
12.12
20.65
27.54
31.72
32.16
28.12
19.29
6.14
-9.87
-26.38
-40.67
-50.44
-54.47
-53.04
-47.58
-40.06
-32.23
-25.2
-19.31
-14.44
-10.37
-7.03
-4.58
-3.29
-3.33
-4.61
-6.66
