2013-02-25 19:57:24
64.0
-0.0
-0.0
-0.0
-0.0
-0.0
-0.0
-0.0
-0.0
-0.0
-0.0
0.0
0.01
0.01
-0.0
-0.03
-0.05
-0.05
0.0
0.13
0.36
0.66
1.01
1.37
1.72
2.06
2.4
2.79
3.24
3.8
4.42
5.06
5.66
6.2
6.68
7.15
7.68
8.31
9.14
10.09
11.04
11.88
12.56
13.14
13.76
14.65
15.96
17.91
20.32
22.9
25.38
27.58
29.57
31.68
34.32
37.81
42.54
48.15
54.1
59.83
64.97
69.58
74.14
79.34
85.71
93.76
103.0
112.62
121.73
129.77
136.75
143.3
150.75
157.77
166.64
177.95
191.79
206.97
220.57
228.25
225.36
208.53
176.87
132.76
80.05
23.07
-34.94
-92.44
-149.16
-205.23
-260.37
-313.74
-363.87
-409.83
-450.91
-486.5
-515.74
-537.23
-549.22
-549.96
-538.37
-514.21
-478.67
-433.88
-382.45
-327.02
-269.84
-212.63
-156.66
-102.95
-52.37
-5.9
35.58
71.43
101.35
125.5
144.38
158.69
169.15
176.37
180.75
182.57
182.07
179.51
175.23
169.65
163.18
156.15
148.81
141.3
133.69
126.02
118.33
110.69
103.16
95.8
88.68
81.83
75.25
68.95
62.95
57.25
51.86
46.78
42.03
37.59
33.45
29.61
26.07
22.81
19.83
17.11
14.67
12.48
10.54
8.83
7.35
6.07
4.97
4.05
3.27
2.62
2.09
1.65
1.3
1.01
0.79
0.61
0.47
0.37
0.28
0.22
0.18
0.15
0.12
0.11
0.11
0.12
0.13
0.15
0.17
0.21
0.24
0.28
0.32
0.37
0.41
0.46
0.5
0.56
0.61
0.66
0.72
0.78
0.85
0.93
1.01
1.1
1.19
1.3
1.43
1.56
1.71
1.89
2.08
2.29
2.52
2.79
3.08
3.4
3.74
4.13
4.55
5.01
5.5
6.03
6.61
7.22
7.88
8.58
9.33
10.12
10.95
11.83
12.75
13.73
14.76
15.85
17.01
18.23
19.51
20.82
22.11
23.33
24.38
25.12
25.46
25.27
24.44
22.91
20.66
17.71
14.08
9.92
5.37
0.63
-4.06
-8.44
-12.31
-15.5
-17.96
-19.71
-20.83
-21.47
-21.7
-21.57
-21.08
-20.24
-19.07
-17.64
-16.07
-14.47
-13.0
-11.69
-10.52
-9.32
-7.94
-6.33
-4.56
-2.85
-1.44
-0.69
-0.71
-1.32
-2.09
-2.57
-2.48
-1.82
-0.92
-0.13
-0.08
-0.9
-2.19
-3.16
-3.07
-1.51
1.26
4.46
7.15
8.09
6.87
3.94
0.49
-2.43
-4.17
-4.83
-5.14
-5.93
-8.86
-15.19
-26.08
-41.89
-61.99
-83.99
-104.37
-120.18
-125.09
-118.6
-104.67
-89.96
-80.38
-78.42
-82.05
-86.26
-85.94
-78.68
-66.79
-54.96
-47.95
-47.98
-54.07
-62.77
-69.95
-72.74
-69.72
-61.54
-49.26
-34.4
-18.94
-5.62
2.4
2.9
-4.27
-15.56
-25.13
-25.76
-11.8
18.34
61.3
109.32
152.65
182.55
194.56
189.58
173.14
152.7
134.07
119.13
105.92
91.39
74.36
57.2
44.57
40.56
46.15
58.08
70.5
78.24
79.18
74.77
68.24
62.28
57.4
52.26
45.1
35.83
26.35
19.86
18.74
22.75
29.08
33.5
32.83
26.2
15.2
2.86
-8.45
-17.55
-24.56
-30.13
-34.79
-38.9
-42.91
-47.56
-53.43
-60.64
-68.26
-74.6
-78.21
-78.47
-76.28
-73.17
-70.69
-69.75
-71.02
-75.24
-83.38
-95.78
-111.05
-125.64
-134.94
-135.49
-126.61
-111.34
-94.3
-79.22
-66.61
-53.19
-33.61
-2.83
41.62
98.65
164.17
232.41
297.05
352.45
394.36
420.41
430.3
425.6
409.13
384.31
354.42
322.26
289.78
258.06
227.08
196.31
164.96
132.61
99.57
67.25
37.94
14.11
-2.32
-11.04
-13.45
-12.24
-10.18
-9.02
-9.1
-9.49
-9.09
-7.05
-3.24
1.94
8.09
14.43
19.96
23.26
23.35
20.32
15.67
11.49
8.68
5.79
-1.09
-16.67
-43.78
-81.78
-126.49
-171.93
-212.82
-246.03
-270.48
-286.51
-294.84
-296.33
-292.02
-283.55
-272.78
-261.2
-249.75
-238.83
-229.38
-222.62
-219.7
-220.64
-223.55
-225.13
-221.58
-210.27
-190.04
-161.14
-124.68
-82.21
-36.33
9.23
49.62
80.07
97.65
102.26
97.06
86.78
75.76
66.2
57.86
49.04
38.22
24.9
9.7
-6.28
-21.69
-34.76
-42.71
-41.95
-29.53
-5.13
27.15
59.69
84.02
94.55
91.18
78.79
64.43
53.35
47.06
43.61
39.86
33.69
24.57
13.23
0.93
-11.01
-21.1
-27.57
-28.87
-24.02
-13.38
1.17
16.6
29.5
37.23
38.63
34.58
27.69
21.26
17.79
18.1
21.34
25.34
28.08
28.44
26.38
22.32
16.6
9.2
0.12
-10.14
-20.49
-29.32
-35.22
-37.74
-37.63
-36.67
-37.04
-40.48
-47.53
-57.6
-68.98
-79.83
-88.91
-95.98
-101.48
-105.79
-108.35
-108.07
-103.52
-94.01
-80.34
-64.69
-50.03
-39.12
-33.5
-32.79
-34.63
-35.34
-31.41
-20.76
-3.18
19.74
45.17
70.22
92.53
110.65
124.36
134.07
140.38
143.61
143.55
139.39
130.44
116.69
99.32
80.48
62.46
46.32
31.72
17.13
1.07
-16.36
-33.32
-46.93
-54.3
-53.93
-45.98
-32.31
-15.59
1.35
16.37
28.7
38.88
48.55
59.09
70.52
81.01
87.57
87.89
81.81
71.64
60.41
50.1
40.44
29.52
15.6
-1.28
-19.31
-35.86
-49.27
-59.59
-67.97
-75.57
-82.24
-86.76
-87.93
-85.47
-80.43
-74.56
-69.16
-64.01
-57.8
-48.78
-36.43
-21.94
-7.94
2.86
9.06
11.15
11.17
11.13
11.97
13.24
13.7
12.67
10.69
9.34
10.38
14.88
22.68
32.62
43.09
52.52
60.1
66.04
71.2
76.58
82.57
88.3
92.01
91.96
87.42
79.06
68.56
57.47
46.45
35.52
24.31
13.06
2.78
-5.39
-10.69
-12.97
-12.83
-10.94
-8.06
-5.1
-3.29
-3.91
-7.8
-14.96
-23.9
-32.31
-37.49
-37.53
-32.08
-22.4
-11.17
-1.85
2.01
-2.05
-15.05
-36.08
-62.65
-91.44
-118.6
-140.99
-156.49
-164.32
-164.88
-159.34
-149.33
-136.64
-123.33
-111.09
-101.35
-94.5
-89.87
-86.01
-81.2
-74.01
-63.63
-50.3
-34.72
-18.24
-2.57
10.65
19.93
24.69
25.7
25.11
25.37
27.96
32.31
36.0
35.95
30.25
19.72
7.85
-0.62
-1.67
6.23
21.89
42.5
65.18
87.78
108.88
126.76
138.95
142.78
136.69
121.53
100.85
79.73
62.47
51.03
44.64
40.65
36.18
29.31
19.33
6.13
-10.25
-28.96
-47.89
-63.68
-72.54
-72.17
-63.3
-49.54
-35.75
-25.79
-20.41
-17.49
-13.78
-6.79
3.74
15.95
27.26
35.32
38.96
38.35
34.74
29.95
25.57
22.34
19.34
14.6
6.04
-6.78
-22.08
-36.03
-44.53
-44.77
-36.43
-21.47
-2.7
17.09
36.09
53.4
69.05
83.63
97.94
112.44
127.16
141.54
155.1
167.78
180.01
192.02
203.05
211.39
214.99
212.95
206.39
198.15
191.3
187.58
186.95
188.27
190.29
192.56
194.77
196.11
194.88
188.56
174.95
152.79
122.35
85.1
43.33
-0.48
-43.65
-83.6
-118.58
-148.2
-173.72
-197.75
-222.83
-250.67
-281.03
-311.72
-339.06
-358.52
-365.33
-355.18
-325.36
-275.58
-209.26
-133.82
-59.99
0.26
36.9
45.1
27.07
-8.88
-51.26
-89.82
-118.9
-138.38
-151.99
-164.49
-179.31
-197.92
-220.32
-245.67
-271.9
-294.95
-308.13
-303.56
-274.9
-220.95
-147.67
-66.98
6.87
62.03
92.96
101.22
93.31
77.24
58.96
40.84
22.28
1.88
-20.32
-42.23
-60.5
-72.57
-77.98
-78.5
-76.58
-73.55
-68.81
-60.33
-46.12
-25.82
-1.33
23.75
45.65
61.6
70.8
74.16
73.49
70.7
67.0
62.8
57.78
51.43
43.62
34.9
26.51
19.94
16.61
17.55
23.17
32.86
44.94
56.35
63.81
64.59
58.07
46.09
32.3
20.87
14.57
13.77
16.49
19.49
20.14
17.66
13.22
9.16
7.27
7.71
8.72
7.73
3.05
-4.75
-12.98
-18.15
-18.01
-12.85
-5.17
1.51
4.43
2.56
-3.31
-11.33
-19.2
-24.73
-26.29
-23.23
-16.39
-7.84
-0.2
4.46
5.61
4.05
1.21
-2.24
-6.41
-11.69
-17.78
-23.2
-26.0
-24.87
-20.05
-12.91
-5.6
-0.01
2.46
1.2
-3.75
-11.28
-19.23
-25.02
-26.82
-24.84
-21.36
-19.72
-22.76
-30.85
-42.1
-53.08
-60.31
-61.34
-55.02
-41.57
-22.21
0.47
23.21
42.82
56.96
64.51
64.96
57.39
40.7
14.43
-19.74
-56.77
-89.66
-112.0
-121.14
-119.15
-111.85
-105.7
-104.98
-110.33
-119.54
-129.29
-137.25
-142.26
-143.56
-139.51
-127.31
-103.82
-67.22
-18.91
36.52
92.08
141.43
181.4
212.65
238.51
262.39
286.01
308.73
328.9
344.75
356.06
364.75
373.28
382.77
392.49
400.52
404.83
404.96
400.2
390.07
375.05
355.96
333.79
309.4
283.75
257.28
229.97
198.26
157.11
103.31
37.15
-36.88
-111.35
-177.49
-233.47
-271.17
-287.02
-286.19
-277.12
-264.69
-248.31
-225.99
-198.58
-170.92
-149.29
-140.58
-149.6
-173.71
-204.07
-230.27
-245.51
-249.4
-247.29
-246.13
-251.63
-264.57
-279.92
-290.45
-291.2
-281.61
-264.36
-242.58
-217.01
-186.61
-149.92
-106.09
-56.7
-5.35
44.15
90.15
133.66
177.01
220.64
262.0
296.51
319.38
328.13
323.42
308.28
285.88
258.43
226.6
190.77
152.62
115.03
81.37
53.77
32.45
15.7
1.1
-13.36
-28.57
-44.03
-58.43
-69.96
-77.01
-78.9
-75.71
-67.83
-55.66
-39.24
-18.72
4.88
29.16
50.21
64.12
68.36
62.9
50.26
34.62
20.15
9.69
4.28
3.43
5.49
8.43
10.2
9.59
6.47
1.94
-2.38
-4.99
-5.31
-3.42
-0.03
3.97
7.87
11.01
12.83
12.92
11.71
10.04
9.23
9.67
10.19
8.11
0.09
-15.79
-39.13
-67.16
-96.15
-122.91
-145.86
-164.76
-179.99
-191.75
-199.73
-203.41
-202.33
-196.32
-185.23
-169.12
-148.47
-124.51
-99.47
-75.52
-54.27
-35.9
-19.32
-3.39
11.72
24.58
33.49
37.95
39.82
42.5
48.84
59.24
71.04
79.8
81.87
76.48
66.55
57.12
52.2
52.5
54.49
52.01
39.42
14.68
-19.19
-55.18
-85.03
-102.69
-105.99
-97.11
-80.58
-60.94
-41.26
-22.47
-4.5
12.84
28.32
39.8
44.81
42.47
34.4
24.9
19.34
21.77
32.89
49.3
65.22
74.96
75.82
69.24
59.61
52.07
49.62
52.23
56.85
59.37
56.41
46.94
32.64
16.62
2.05
-9.59
-18.66
-26.53
-34.25
-41.3
-45.87
-45.7
-39.37
-26.61
-8.76
12.87
37.24
63.64
90.62
115.3
133.65
141.83
138.28
124.35
103.89
81.45
60.73
43.8
31.18
22.95
18.95
18.95
22.0
26.16
29.0
28.48
23.78
15.56
5.27
-5.6
-16.12
-25.91
-34.59
-42.01
-48.05
-52.85
-57.47
-63.2
-71.01
-80.63
-89.99
-95.75
-94.78
-85.72
-69.76
-50.14
-30.24
-12.2
3.92
19.22
34.34
48.34
58.88
63.75
62.47
57.11
51.31
48.45
49.79
53.94
57.48
56.66
49.01
34.37
14.84
-6.41
-26.15
-42.37
-54.67
-63.91
-71.32
-77.62
-82.67
-85.49
-85.62
-83.43
-80.3
-77.6
-75.41
-71.57
-62.59
-45.44
-19.52
12.31
44.87
73.11
94.17
108.61
118.94
127.32
133.55
135.17
129.12
114.3
92.63
68.45
46.35
29.19
17.25
9.31
3.86
0.39
-0.6
1.37
5.95
11.59
16.04
17.36
14.77
8.66
-0.0
-10.05
-20.78
-32.0
-43.75
-56.16
-68.82
-80.53
-89.69
-94.58
-94.26
-89.09
-80.67
-71.22
-62.68
-56.0
-50.78
-45.48
-37.99
-26.38
-9.98
10.21
31.03
48.01
56.87
55.28
44.18
27.45
10.32
-3.16
-11.06
-13.92
-13.28
-10.17
-4.6
3.67
14.06
24.47
31.7
33.22
28.72
20.29
11.32
4.56
0.61
-2.04
-5.41
-10.58
-16.64
-21.46
-22.85
-20.23
-14.72
-8.56
-3.81
-0.91
1.17
4.34
9.34
15.23
19.64
20.29
17.11
12.59
10.77
14.67
24.61
37.36
48.22
53.54
52.33
46.45
38.69
31.0
23.39
15.0
5.94
-2.31
-6.99
-5.89
1.5
13.28
26.29
37.23
43.57
44.12
39.12
30.05
19.37
10.03
4.2
2.68
4.39
6.81
7.13
3.67
-3.18
-11.28
-17.65
-20.19
-18.42
-13.58
-7.98
-3.45
-1.07
-0.41
-0.51
-0.05
1.51
3.38
3.82
0.8
-6.1
-15.03
-22.17
-23.53
-17.2
-4.75
9.31
19.64
23.24
21.09
17.41
17.1
22.58
32.73
43.69
51.58
54.81
54.77
54.54
56.62
61.74
68.78
75.97
81.78
85.34
85.79
81.63
71.02
52.57
27.0
-2.4
-30.39
-51.85
-63.81
-66.25
-61.86
-54.35
-47.08
-41.93
-39.58
-39.65
-41.36
-43.69
-45.58
-46.25
-45.21
-42.38
-38.25
-33.83
-30.19
-28.25
-28.13
-29.27
-30.52
-30.55
-28.69
-24.8
-19.91
-15.46
-12.74
-11.75
-11.09
-8.88
-3.4
5.33
15.47
24.25
29.27
30.03
27.77
24.87
22.92
21.9
20.26
16.36
9.93
2.91
-1.94
-2.67
0.06
3.09
2.6
-3.93
-16.11
-30.76
-43.59
-51.07
-51.74
-46.25
-36.4
-24.17
-11.39
0.41
9.76
15.23
16.26
13.35
7.98
1.88
-3.96
-9.57
-15.77
-23.03
-30.76
-37.11
-39.62
-36.53
-27.9
-15.39
-1.76
10.35
19.32
24.52
26.2
24.84
20.91
15.22
9.01
3.99
1.67
2.44
5.21
7.92
8.59
6.31
1.78
-3.6
-8.73
-13.47
-18.76
-25.47
-33.59
-41.55
-47.2
-48.98
-46.87
-42.56
-38.32
-35.8
-35.64
-37.4
-40.08
-42.65
-43.84
-42.52
-37.71
-29.25
-18.11
-6.37
3.64
10.59
14.51
16.8
19.27
23.39
29.63
37.29
45.05
50.94
53.17
50.73
43.68
33.66
22.94
13.93
8.05
5.76
6.78
9.98
13.78
16.14
15.25
10.39
2.92
-4.49
-9.26
-11.05
-12.54
-17.94
-30.0
-47.76
-66.43
-79.29
-81.8
-73.96
-59.94
-45.85
-36.24
-32.52
-33.26
-36.18
-39.22
-40.68
-39.09
-32.41
-18.97
1.24
25.12
47.15
61.44
64.37
56.66
43.21
31.08
25.81
29.31
38.8
48.99
54.93
54.13
47.42
37.85
28.76
22.03
17.81
14.69
11.2
6.99
3.11
1.45
3.62
9.55
16.87
21.87
21.07
13.1
-0.18
-14.19
-23.72
-25.46
-19.22
-7.99
4.31
14.49
21.39
25.48
27.69
28.43
27.33
23.56
16.76
7.48
-2.82
-11.69
-16.75
-16.32
-10.24
-0.16
10.84
19.29
22.8
21.01
15.45
8.79
3.59
1.24
1.74
4.09
6.95
9.73
12.65
16.43
21.76
28.24
34.51
38.49
38.48
33.73
24.65
12.44
-1.34
-15.34
-27.88
-37.12
-41.49
-40.2
-34.11
-25.44
-16.92
-10.57
-6.92
-5.17
-4.6
-4.81
-6.07
-8.91
-13.07
-17.96
-22.49
-25.58
-26.37
-24.44
-19.7
-12.84
-5.15
1.88
7.22
11.0
14.73
20.41
28.86
39.09
48.44
54.09
55.16
52.82
49.47
46.92
45.03
42.1
36.67
28.28
18.25
9.0
2.32
-1.52
-3.76
-6.48
-11.52
-19.66
-30.48
-42.81
-54.41
-62.84
-65.49
-60.58
-48.26
-31.18
-13.77
-0.75
4.75
2.32
-6.07
-17.55
-29.8
-41.81
-53.48
-64.51
-73.46
-77.66
-74.79
-64.87
-51.02
-38.68
-32.83
-35.51
-44.43
-54.36
-59.99
-58.5
-51.03
-41.62
-35.15
-34.75
-40.29
-48.49
-54.51
-54.01
-44.62
-26.4
-1.3
28.12
59.75
91.92
123.65
153.45
178.95
197.45
206.67
205.97
196.39
180.6
161.55
141.47
121.16
100.44
79.09
57.39
36.66
18.9
5.65
-2.75
-7.81
-12.3
-19.33
-30.3
-44.53
-59.25
-71.09
-77.77
-78.88
-75.68
-70.25
-65.01
-61.75
-62.0
-66.25
-73.66
-82.24
-89.06
-91.45
-88.21
-80.4
-70.71
-62.08
-56.06
-52.24
-48.99
-44.81
-39.81
-35.65
-34.45
-37.55
-44.42
-52.81
-60.18
-65.05
-67.75
-69.64
-71.51
-72.29
-69.05
-58.63
-39.78
-14.54
12.34
35.79
52.45
62.05
66.8
69.15
70.66
71.4
70.81
68.89
66.13
62.96
58.69
51.6
39.78
23.01
3.6
-14.03
-25.27
-27.69
-22.5
-14.29
-9.19
-11.94
-24.11
-43.05
-62.99
-77.61
-82.54
-76.89
-62.72
-43.32
-21.16
3.19
30.31
61.1
95.49
131.84
167.55
199.34
224.05
239.13
243.13
236.28
220.4
198.55
174.36
151.16
131.67
117.82
110.4
108.8
110.64
112.08
109.35
100.49
86.52
71.0
58.38
51.73
51.69
56.77
64.7
73.93
83.83
94.39
105.37
115.83
124.09
128.25
126.74
119.08
106.16
90.25
73.82
58.58
44.64
30.63
15.41
-0.86
-15.89
-26.49
-30.47
-28.44
-24.22
-23.17
-29.97
-46.08
-69.12
-93.71
-113.7
-124.5
-124.57
-115.58
-101.64
-87.38
-76.0
-68.56
-64.04
-60.94
-58.67
-57.93
-59.95
-64.83
-70.53
-73.22
-69.16
-56.84
-38.38
-19.22
-5.97
-4.37
-17.21
-44.03
-81.21
-123.25
-163.79
-197.1
-219.67
-230.61
-231.8
-226.3
-217.15
-206.24
-194.4
-182.04
-170.02
-159.79
-152.51
-148.25
-145.4
-141.41
-133.81
-121.58
-105.54
-87.75
-70.64
-56.23
-45.67
-39.28
-36.92
-37.93
-40.95
-43.89
-43.79
-37.83
-24.25
-3.43
22.17
48.81
72.97
92.6
107.09
116.91
122.04
121.72
115.21
102.98
87.58
72.77
61.99
56.39
54.59
53.62
51.1
46.7
42.11
39.91
41.97
48.36
57.54
67.4
75.92
81.64
83.58
81.01
73.67
62.14
47.72
31.95
15.97
0.13
-15.77
-31.64
-46.76
-59.63
-68.86
-73.84
-75.12
-74.08
-72.18
-70.78
-70.95
-73.75
-79.57
-87.39
-94.21
-95.42
-86.63
-66.22
-36.36
-2.67
28.12
51.04
64.2
68.72
67.01
61.32
53.18
43.77
34.57
27.59
24.63
26.4
31.88
38.78
44.4
46.74
45.2
40.67
34.99
30.31
28.02
28.51
31.03
34.07
36.02
35.65
32.47
26.69
19.44
12.36
7.48
6.52
9.88
16.4
23.42
28.04
27.99
22.78
14.07
5.01
-0.95
-1.76
2.13
7.83
11.22
8.77
-0.64
-15.21
-31.12
-44.48
-53.31
-58.1
-61.22
-65.21
-71.04
-77.85
-83.79
-87.62
-89.62
-91.35
-94.43
-99.6
-106.09
-112.06
-115.69
-116.22
-114.27
-111.3
-108.27
-104.38
-97.14
-83.39
-61.31
-32.14
-0.52
26.84
43.79
47.3
38.66
22.7
5.3
-9.27
-19.93
-28.22
-36.5
-46.11
-56.51
-65.7
-71.49
-72.76
-69.63
-62.97
-53.84
-42.9
-30.62
-17.82
-5.91
3.38
8.83
10.36
9.23
7.76
8.44
13.06
22.03
33.97
46.15
55.49
59.68
57.86
50.7
40.12
28.55
18.46
11.61
8.32
7.3
6.05
1.57
-8.34
-23.99
-43.54
-63.53
-80.3
-91.44
-96.41
-96.16
-92.44
-86.85
-80.67
-75.07
-70.86
-68.18
-65.88
-61.48
-52.13
-35.88
-13.02
13.39
38.29
56.6
65.37
64.85
58.06
48.81
40.0
32.98
27.6
23.6
21.31
21.52
24.79
30.45
36.33
39.64
38.26
31.69
21.3
9.52
-1.33
-9.46
-13.7
-13.32
-7.64
3.87
21.23
43.33
67.26
88.28
100.69
99.7
83.55
54.51
18.89
-15.4
-41.46
-56.04
-60.31
-58.57
-55.99
-55.79
-58.36
-61.65
-63.0
-60.74
-55.27
-48.21
-41.2
-34.94
-28.67
-21.36
-12.87
-4.82
0.12
-0.46
-7.0
-17.43
-28.2
-36.17
-40.41
-42.48
-45.18
-50.48
-57.89
-64.11
-64.41
-54.7
-33.45
-2.62
32.63
65.62
90.1
101.96
100.26
87.33
68.13
48.95
35.65
32.44
40.78
58.51
80.07
97.58
102.98
90.9
60.97
18.06
-29.22
-72.03
-104.47
-124.94
-134.95
-137.0
-132.38
-120.98
-102.77
-79.23
-53.79
-30.34
-11.01
5.07
20.82
39.01
60.33
82.41
101.28
113.38
117.39
114.63
108.21
101.41
96.5
94.27
94.1
94.85
95.54
95.8
96.08
97.51
101.53
109.21
120.22
131.97
139.92
138.5
123.11
92.1
48.08
-2.49
-50.85
-88.8
-111.01
-116.27
-107.02
-87.97
-64.09
-39.76
-18.52
-2.93
5.57
6.83
2.42
-4.85
-11.74
-15.77
-16.03
-13.56
-10.65
-9.47
-11.22
-15.39
-20.29
-23.69
-23.97
-20.66
-14.49
-6.93
0.69
7.36
12.56
15.73
16.24
13.42
7.22
-1.35
-10.19
-16.91
-19.8
-18.45
-13.84
-7.53
-0.62
6.54
14.36
23.43
34.1
45.98
58.65
71.87
85.42
98.64
109.67
115.68
113.88
103.35
86.24
67.82
54.6
51.64
60.31
77.6
97.77
114.91
125.78
130.52
131.79
132.61
134.48
136.65
137.1
134.04
127.09
117.43
107.02
97.25
87.7
76.49
61.43
41.78
19.5
-1.06
-14.88
-18.61
-12.25
0.43
13.34
20.3
17.29
3.83
-17.33
-41.24
-62.6
-77.33
-83.42
-81.35
-73.32
-62.5
-52.05
-44.45
-41.04
-42.26
-47.55
-55.77
-65.25
-74.0
-80.39
-83.34
-82.88
-80.01
-76.45
-73.8
-72.77
-72.73
-71.73
-67.39
-57.78
-42.63
-23.62
-4.09
12.17
22.45
26.06
24.38
20.05
15.62
12.57
11.11
10.43
9.57
7.69
4.6
0.66
-3.32
-6.24
-7.66
-8.24
-10.09
-16.37
-29.93
-51.79
-80.29
-111.64
-141.16
-165.27
-182.2
-191.59
-193.5
-187.76
-173.96
-152.55
-125.64
-96.7
-69.32
-45.46
-24.94
-5.72
14.16
35.54
57.32
76.92
91.8
100.41
103.08
101.81
99.54
98.69
100.09
102.48
103.4
101.08
95.65
89.42
85.09
83.56
82.93
79.49
70.21
55.15
38.1
24.3
17.44
17.25
20.13
21.64
19.3
13.73
7.79
4.2
3.44
3.94
3.47
0.91
-2.17
-1.88
6.37
25.12
52.87
83.27
107.13
115.88
105.39
78.19
42.48
8.77
-14.51
-24.15
-22.33
-14.26
-4.97
2.51
7.44
10.1
10.63
8.3
2.51
-6.71
-18.01
-29.29
-38.14
-42.82
-42.51
-37.49
-29.04
-19.11
-9.98
-3.64
-1.31
-3.53
-10.35
-21.66
-37.47
-57.41
-80.14
-102.97
-121.94
-132.88
-133.04
-122.66
-105.34
-87.05
-73.78
-69.15
-73.18
-82.67
-93.47
-102.88
-110.55
-117.91
-126.12
-134.48
-140.28
-140.58
-134.4
-123.65
-112.36
-104.06
-99.97
-98.28
-95.32
-87.59
-73.38
-53.09
-28.82
-3.16
21.86
45.21
67.15
88.44
109.67
130.37
148.31
160.28
162.97
154.56
135.44
108.05
75.82
42.04
9.0
-21.91
-49.53
-72.57
-89.22
-97.42
-95.36
-81.93
-57.29
-22.89
18.57
63.82
109.94
154.72
196.52
233.54
263.6
284.03
292.87
289.75
276.9
258.57
239.88
225.16
216.2
212.03
209.39
204.4
194.67
180.61
165.28
152.67
145.6
143.86
144.68
143.78
137.79
125.46
107.38
84.88
58.66
28.56
-6.04
-44.91
-86.4
-127.33
-163.77
-192.1
-209.59
-215.33
-210.12
-196.36
-177.11
-155.18
-132.14
-108.62
-84.72
-60.93
-38.49
-19.05
-4.1
5.83
11.35
14.29
17.47
23.91
36.22
55.16
78.97
103.32
122.51
131.1
125.93
106.96
76.93
40.31
1.89
-34.31
-65.23
-88.75
-103.28
-107.75
-101.86
-86.41
-63.86
-38.07
-13.64
4.97
14.87
15.4
8.08
-4.04
-17.74
-30.48
-41.15
-49.98
-58.3
-67.81
-80.11
-95.91
-114.42
-133.6
-150.74
-163.73
-171.78
-175.3
-175.37
-172.91
-168.19
-161.6
-153.93
-146.66
-141.32
-138.65
-137.48
-135.0
-128.17
-115.2
-96.64
-74.92
-52.78
-31.89
-12.47
5.87
22.84
36.98
46.28
49.4
46.68
40.08
32.02
24.25
17.48
11.81
7.86
7.27
12.37
24.83
44.26
68.12
92.59
114.04
130.33
141.15
147.27
149.13
146.31
137.31
120.76
96.51
66.46
34.11
3.42
-22.5
-42.38
-56.22
-64.64
-67.73
-64.8
-55.19
-39.01
-18.21
3.29
20.73
29.94
28.91
18.13
0.24
-20.99
-42.3
-61.54
-77.5
-89.24
-95.46
-95.11
-88.16
-76.55
-64.22
-55.52
-53.26
-56.88
-62.59
-65.12
-60.68
-48.89
-32.8
-17.34
-6.5
-1.83
-2.0
-4.06
-4.82
-1.64
7.29
23.14
46.05
74.83
106.75
137.67
163.22
180.37
188.5
189.48
186.47
182.2
177.75
171.95
162.18
145.65
120.72
87.6
48.46
6.71
-33.74
-69.31
-97.52
-117.23
-128.73
-133.75
-134.64
-133.77
-132.58
-131.22
-128.35
-122.19
-111.44
-96.2
-78.25
-60.02
-43.57
-29.35
-16.17
-1.93
15.23
35.96
59.88
85.9
112.91
139.55
163.74
182.72
193.75
195.48
189.11
178.19
167.27
159.66
155.71
152.95
147.63
136.51
118.28
93.87
65.58
35.99
7.39
-18.94
-42.5
-63.38
-81.91
-97.71
-109.68
-116.25
-116.52
-111.31
-103.54
-97.21
-95.61
-99.9
-108.39
-117.73
-124.61
-127.35
-126.37
-123.47
-120.57
-118.54
-116.87
-114.1
-108.76
-100.01
-87.88
-72.96
-56.0
-37.68
-18.73
-0.08
16.73
29.72
36.99
37.49
31.71
21.55
9.74
-1.25
-9.76
-15.24
-17.83
-18.09
-16.98
-15.93
-16.45
-19.52
-24.68
-29.79
-31.67
-27.7
-17.29
-2.42
13.19
25.9
33.7
36.91
37.21
36.36
35.45
34.86
35.16
38.03
45.72
59.93
80.41
104.12
125.81
139.99
142.97
134.18
116.24
93.5
70.44
50.36
34.88
24.44
18.91
17.9
20.43
24.67
27.79
26.72
19.44
6.09
-10.5
-25.7
-34.81
-35.23
-27.47
-15.11
-3.16
4.09
4.61
-0.92
-10.28
-21.06
-31.64
-41.22
-49.3
-54.94
-56.57
-52.82
-43.5
-30.18
-16.05
-4.45
2.49
4.86
4.55
4.12
5.22
7.68
9.48
7.75
0.29
-13.21
-30.93
-49.52
-65.41
-76.23
-81.23
-81.14
-77.38
-71.18
-63.2
-53.7
-43.15
-32.51
-23.08
-16.05
-11.99
-10.96
-12.53
-16.5
-22.93
-31.99
-43.7
-57.51
-72.13
-85.51
-95.16
-98.83
-95.17
-84.35
-68.08
-49.14
-30.41
-13.91
-0.55
9.69
16.89
20.87
21.38
18.6
13.53
7.79
3.15
0.68
0.75
3.0
7.0
12.46
19.26
26.96
34.66
40.87
44.07
43.25
38.5
31.15
23.24
16.91
13.7
14.4
18.92
26.62
36.59
47.65
58.73
68.67
76.51
81.67
84.02
83.71
81.04
76.24
69.63
61.89
54.31
48.43
45.53
45.94
48.97
53.34
58.08
62.77
67.61
72.82
78.31
83.53
87.86
90.93
92.87
94.23
95.76
98.59
104.18
114.46
131.14
154.27
181.39
207.42
226.18
232.61
224.75
204.33
175.7
143.79
112.18
82.34
53.85
25.45
-3.68
-33.05
-60.77
-84.17
-100.74
-109.25
-110.2
-105.74
-98.57
-90.61
-82.24
-72.62
-60.68
-46.52
-31.81
-18.99
-9.92
-4.8
-2.06
0.61
4.96
11.23
18.07
23.44
25.66
24.24
20.07
14.84
10.4
8.06
8.44
11.4
16.33
22.56
29.32
35.97
41.76
45.64
46.39
43.0
35.14
23.63
10.49
-2.06
-12.17
-19.2
-23.97
-28.26
-34.18
-43.3
-56.3
-72.98
-92.47
-113.29
-133.81
-152.32
-167.32
-177.92
-184.09
-186.82
-187.68
-188.06
-188.29
-187.62
-184.48
-177.4
-165.51
-148.95
-128.53
-105.22
-79.97
-53.81
-28.21
-5.06
13.78
27.23
35.31
39.01
39.7
38.27
34.74
28.73
20.24
10.27
0.43
-7.68
-13.33
-17.33
-21.58
-28.27
-38.65
-52.26
-66.79
-78.76
-84.75
-83.16
-74.89
-63.28
-52.2
-44.38
-40.15
-37.77
-34.9
-30.35
-24.92
-20.8
-19.99
-22.6
-26.58
-28.79
-26.68
-19.77
-9.59
1.19
10.34
16.95
21.43
24.74
27.67
30.14
31.35
30.17
25.82
18.31
8.7
-1.24
-9.43
-14.1
-14.36
-10.64
-4.53
1.57
5.21
4.6
-0.75
-9.99
-21.26
-32.38
-41.7
-48.56
-53.35
-57.14
-60.75
-64.1
-66.17
-65.48
-61.13
-53.61
-44.65
-36.35
-30.05
-25.56
-21.42
-15.88
-7.96
2.03
12.88
23.42
33.28
42.94
53.16
64.02
74.56
83.13
88.19
89.14
86.56
81.91
76.6
71.5
66.61
61.29
54.97
47.42
38.84
29.45
19.14
7.63
-5.07
-18.14
-30.02
-38.97
-44.05
-45.79
-45.93
-46.48
-48.66
-52.26
-56.16
-59.2
-60.86
-61.47
-61.47
-60.62
-57.7
-50.84
-38.46
-20.15
2.83
27.94
52.01
72.48
88.02
98.73
105.36
108.49
107.99
103.36
94.5
82.43
69.25
57.27
47.95
41.34
36.65
33.12
30.79
30.29
31.85
34.55
36.33
34.96
29.53
20.96
11.4
3.21
-2.43
-5.77
-7.65
-8.82
-9.17
-7.9
-4.04
2.75
11.83
21.74
30.71
37.45
41.35
42.85
42.9
42.32
41.5
40.04
37.32
32.76
26.53
19.44
12.63
6.96
2.49
-1.57
-6.54
-13.85
-24.28
-37.96
-54.41
-72.53
-91.02
-108.83
-125.18
-139.79
-152.52
-163.19
-171.2
-175.64
-175.43
-169.79
-158.68
-142.82
-123.86
-103.72
-84.08
-65.65
-47.93
-29.99
-11.12
8.06
25.52
38.68
45.78
46.84
43.97
40.21
38.1
38.49
40.62
43.27
45.91
49.3
54.7
62.55
71.72
79.7
83.93
83.04
77.65
69.53
60.86
52.95
45.99
39.32
32.02
23.37
12.95
0.87
-12.31
-25.83
-39.02
-51.31
-62.58
-72.61
-80.51
-84.63
-82.95
-74.33
-59.42
-40.89
-22.58
-7.77
1.97
7.13
9.53
10.89
12.01
12.66
12.21
10.21
6.58
1.45
-4.75
-11.38
-17.28
-20.94
-20.85
-16.09
-6.9
5.26
18.35
30.26
39.25
44.26
44.86
41.35
34.85
27.28
20.71
16.25
13.15
8.92
0.87
-11.78
-26.99
-40.59
-48.52
-49.15
-43.95
-36.37
-29.5
-24.42
-20.26
-15.66
-9.96
-3.79
1.81
6.63
11.44
17.31
24.35
31.2
35.57
35.63
31.13
23.81
16.72
13.15
15.46
24.23
38.13
54.24
68.97
79.26
83.78
83.46
80.85
78.95
79.7
83.1
87.34
89.37
86.0
74.9
55.17
27.6
-5.33
-40.18
-72.93
-99.68
-117.29
-123.89
-119.37
-105.52
-85.58
-63.5
-42.89
-26.13
-14.13
-6.52
-2.15
0.3
2.15
4.58
8.45
13.99
20.43
26.01
28.6
26.81
20.66
11.68
2.53
-3.93
-5.27
-0.22
11.01
26.57
43.22
57.36
66.24
69.11
67.33
63.64
60.47
58.32
55.79
50.36
40.18
25.37
8.33
-7.39
-18.78
-24.63
-25.86
-24.75
-23.76
-24.17
-25.43
-25.68
-22.67
-15.08
-3.57
9.17
19.24
22.98
18.45
6.28
-10.52
-27.7
-41.38
-49.41
-51.93
-50.95
-49.47
-49.65
-51.92
-55.06
-56.95
-56.26
-53.16
-49.35
-46.57
-45.34
-44.3
-41.17
-34.3
-23.72
-11.44
-0.06
9.04
16.31
23.39
31.67
40.57
47.84
50.93
48.74
42.2
33.56
24.66
16.0
6.99
-2.82
-12.5
-19.84
-22.7
-20.69
-15.67
-11.06
-9.68
-12.07
-16.36
-19.66
-19.96
-17.53
-14.4
-13.07
-15.22
-21.03
-29.55
-39.41
-48.99
-56.63
-60.77
-60.34
-55.48
-47.76
-39.62
-33.09
-28.77
-25.34
-20.66
-12.82
-1.2
13.42
29.5
45.47
60.18
72.65
82.04
87.4
87.8
82.73
72.08
56.29
36.62
14.86
-6.78
-25.98
-41.28
-52.24
-59.16
-62.66
-62.92
-59.95
-54.05
-46.39
-39.0
-33.85
-32.03
-33.07
-35.15
-36.07
-34.52
-30.33
-24.55
-18.78
-14.77
-14.04
-17.57
-25.2
-35.22
-44.26
-48.16
-43.52
-29.28
-7.37
18.16
42.67
62.96
78.26
89.65
98.93
107.09
114.03
119.08
122.0
123.42
124.4
125.16
124.04
117.92
103.76
80.88
52.39
24.2
2.6
-8.54
-9.64
-4.58
1.74
5.75
6.8
6.14
4.92
2.49
-3.36
-14.74
-31.71
-51.14
-67.9
-77.39
-77.61
-70.22
-59.45
-49.89
-44.0
-41.08
-37.91
-30.8
-17.75
0.8
22.47
44.8
66.39
87.22
107.69
127.17
142.99
151.66
149.94
136.69
113.76
84.9
54.78
27.29
4.75
-12.35
-24.82
-34.12
-41.75
-48.39
-53.62
-56.34
-55.5
-50.96
-44.0
-36.94
-32.0
-30.22
-31.18
-33.85
-37.72
-43.31
-51.28
-61.38
-71.28
-77.09
-75.11
-63.73
-44.62
-21.72
0.66
19.98
36.67
53.17
72.2
94.89
119.86
143.65
162.02
171.33
169.23
155.1
130.08
96.89
59.54
22.71
-9.05
-32.9
-48.51
-57.85
-63.82
-68.56
-72.19
-73.47
-71.24
-66.36
-61.77
-61.07
-66.0
-75.1
-84.42
-89.95
-90.21
-87.04
-84.09
-83.95
-86.37
-88.19
-85.48
-75.98
-60.59
-42.59
-25.88
-12.84
-3.19
5.21
14.9
26.99
40.65
53.6
63.53
69.52
72.5
74.52
77.34
81.23
84.82
85.59
81.39
71.14
55.37
35.82
15.01
-4.44
-20.47
-32.1
-40.03
-46.3
-53.62
-63.9
-77.17
-91.12
-102.05
-106.36
-102.07
-89.71
-71.61
-51.32
-32.39
-17.68
-9.02
-6.77
-9.92
-16.26
-22.88
-26.82
-25.71
-18.21
-4.18
14.77
35.75
55.06
69.35
76.69
77.32
73.18
66.72
59.56
51.54
41.11
26.57
7.44
-15.16
-39.09
-62.36
-83.79
-102.83
-119.15
-131.71
-139.01
-139.52
-132.59
-118.92
-100.58
-80.35
-60.97
-44.46
-31.79
-22.92
-17.13
-12.97
-8.68
-2.64
6.22
18.07
32.07
46.57
59.55
68.8
72.73
70.92
64.33
55.28
46.57
40.53
38.26
39.25
41.81
43.94
44.19
42.01
37.77
32.15
25.84
19.56
14.02
9.93
7.25
4.62
-0.53
-11.14
-29.09
-53.92
-82.22
-108.49
-126.67
-132.19
-123.26
-101.5
-71.14
-38.06
-8.05
14.58
27.86
32.71
32.51
31.73
34.22
41.97
54.67
70.64
88.18
106.22
124.57
143.11
161.31
178.06
192.33
203.8
213.02
220.55
225.87
226.62
218.99
199.35
166.35
122.15
72.15
23.06
-19.28
-51.76
-74.29
-89.07
-99.08
-106.66
-113.13
-119.07
-124.96
-131.37
-138.63
-146.24
-152.71
-156.02
-154.6
-148.23
-138.32
-127.19
-116.98
-108.65
-101.46
-93.44
-82.24
-66.42
-46.18
-23.31
-0.55
19.53
35.48
47.52
57.08
65.87
74.99
84.31
92.89
99.86
105.07
109.16
112.97
116.86
120.37
122.26
121.2
116.11
106.2
91.27
71.65
48.24
22.59
-3.3
-27.45
-48.13
-64.16
-75.1
-81.14
-83.03
-81.86
-78.65
-74.0
-67.78
-59.35
-48.51
-36.29
-25.3
-18.77
-18.71
-24.64
-33.52
-41.43
-45.64
-45.85
-44.02
-42.62
-43.04
-44.87
-46.21
-45.52
-42.45
-38.1
-34.35
-32.54
-32.86
-34.32
-35.15
-33.54
-28.41
-19.78
-8.88
2.3
11.84
18.71
23.06
26.08
28.65
30.79
31.01
27.5
19.12
6.64
-7.15
-18.94
-26.15
-28.38
-27.18
-25.0
-23.88
-24.68
-27.05
-30.07
-33.14
-36.13
-39.36
-42.96
-46.47
-48.8
-48.73
-45.63
-40.23
-34.31
-29.89
-28.18
-28.79
-29.88
-29.13
-24.7
-16.21
-4.79
6.97
16.35
21.13
20.53
15.4
8.04
1.92
0.31
5.44
17.18
32.93
48.73
61.04
68.56
72.71
77.01
84.83
97.12
111.31
122.04
124.0
115.01
97.49
77.5
61.48
52.93
50.88
51.0
48.4
40.53
28.12
14.11
1.32
-9.23
-18.76
-29.06
-41.05
-53.74
-64.86
-72.33
-74.94
-72.73
-66.36
-56.51
-43.36
-27.09
-8.56
10.69
28.34
42.06
50.1
51.7
46.84
36.22
21.1
3.62
-12.97
-25.18
-30.32
-28.0
-20.33
-11.1
-3.8
0.03
1.25
2.15
4.31
7.22
8.37
4.92
-4.09
-16.75
-28.93
-36.21
-36.1
-28.95
-17.54
-5.43
4.41
10.71
13.79
14.87
15.31
16.05
17.37
19.17
20.92
21.9
21.62
20.17
18.4
17.57
18.97
23.09
29.57
36.99
43.42
46.95
46.17
40.62
30.96
18.91
6.9
-2.59
-7.94
-8.82
-6.32
-2.32
1.38
3.74
4.58
4.24
2.98
0.78
-2.49
-6.84
-12.05
-17.88
-24.32
-31.97
-41.77
-54.44
-69.82
-86.46
-101.51
-111.77
-114.65
-109.08
-96.0
-78.11
-58.94
-41.83
-28.74
-19.59
-12.76
-5.91
2.82
14.17
27.86
42.93
58.31
73.03
86.12
96.38
102.3
102.53
96.24
83.77
66.81
48.08
30.57
16.62
7.56
3.27
2.5
2.71
1.02
-5.12
-16.81
-32.95
-50.6
-65.91
-75.68
-78.59
-75.63
-69.17
-61.67
-54.55
-47.89
-41.08
-33.64
-25.48
-16.62
-6.67
5.34
20.18
37.55
55.78
72.27
84.83
92.31
95.11
94.37
91.23
86.48
80.43
73.54
66.13
58.26
49.55
39.41
27.55
14.77
3.16
-5.02
-8.33
-7.5
-5.52
-6.54
-14.13
-29.62
-51.24
-74.7
-94.91
-107.71
-111.35
-106.78
-96.78
-84.42
-72.02
-60.61
-50.4
-41.7
-35.04
-30.93
-29.22
-28.58
-26.61
-20.82
-9.76
5.94
23.69
40.06
51.86
57.72
58.34
56.01
53.56
53.15
55.39
59.21
62.52
62.91
58.98
50.64
39.23
26.85
15.46
6.22
-0.78
-6.32
-11.72
-18.12
-26.45
-37.25
-50.49
-65.34
-79.75
-90.63
-94.46
-88.64
-72.74
-49.13
-22.28
2.75
22.18
34.72
41.56
45.27
48.19
51.79
56.33
61.45
66.89
72.57
78.56
84.59
90.15
94.81
98.38
101.1
103.44
105.69
107.51
107.85
105.35
98.61
86.98
70.9
52.07
32.94
15.99
2.83
-6.32
-12.5
-17.43
-22.57
-28.8
-36.6
-46.12
-57.21
-69.18
-80.33
-88.16
-90.23
-85.59
-75.22
-61.9
-48.96
-38.7
-31.55
-26.36
-21.39
-15.41
-8.36
-1.11
5.22
10.36
15.18
21.55
31.39
45.43
62.42
79.44
92.92
100.24
100.99
96.92
91.0
85.75
81.99
78.51
72.78
62.18
45.23
22.23
-4.34
-30.6
-52.24
-66.06
-71.67
-71.57
-70.34
-72.5
-80.32
-92.8
-106.37
-116.78
-121.06
-118.68
-111.15
-101.08
-90.68
-81.38
-73.85
-68.53
-65.7
-65.18
-65.92
-65.85
-62.6
-54.59
-42.12
-27.43
-13.72
-3.42
3.49
9.66
19.22
35.52
58.9
85.89
110.15
125.06
126.13
112.6
87.31
55.65
23.89
-2.51
-20.15
-28.31
-28.56
-24.08
-18.19
-13.48
-11.11
-11.26
-13.43
-17.1
-21.8
-26.95
-31.97
-36.42
-40.45
-44.68
-49.73
-55.26
-59.66
-60.68
-56.62
-47.52
-35.08
-21.76
-9.46
1.12
10.13
17.81
23.82
27.68
29.79
32.14
37.99
50.14
68.92
91.13
110.91
121.96
120.36
106.19
83.19
56.79
31.65
10.34
-6.57
-19.27
-27.5
-30.55
-28.24
-21.83
-14.44
-10.22
-12.56
-22.74
-39.3
-58.86
-77.36
-91.23
-98.04
-96.91
-88.5
-75.22
-60.73
-48.96
-42.52
-41.41
-42.82
-42.55
-36.81
-24.27
-6.53
13.07
31.02
45.3
55.28
61.1
62.58
59.1
50.63
38.73
26.85
19.15
18.54
24.96
35.2
44.4
48.31
45.13
35.81
23.17
10.74
1.32
-3.28
-2.45
3.27
11.97
20.52
25.4
23.62
14.06
-2.03
-21.31
-39.55
-53.2
-60.76
-62.96
-62.19
-61.2
-61.79
-64.32
-68.0
-71.61
-74.17
-75.48
-75.62
-74.59
-72.02
-67.23
-60.01
-51.27
-43.25
-38.78
-39.7
-45.64
-53.95
-61.05
-63.93
-62.0
-56.79
-50.66
-44.95
-38.64
-28.94
-12.86
10.91
41.27
75.1
108.75
139.04
163.35
179.56
185.97
181.67
167.34
145.97
122.14
101.06
86.95
81.6
84.15
91.81
101.01
108.99
114.58
118.18
121.27
125.17
130.1
135.37
139.71
142.19
142.85
142.59
142.35
142.49
142.75
142.76
142.71
143.34
145.31
148.1
149.67
146.58
135.54
114.71
84.44
47.47
7.92
-29.79
-61.97
-86.31
-102.42
-111.55
-116.13
-119.08
-122.71
-128.31
-135.99
-144.92
-154.09
-162.43
-168.92
-172.91
-174.26
-173.53
-171.95
-170.7
-169.92
-168.42
-164.18
-155.51
-142.22
-125.95
-109.32
-94.57
-82.43
-72.22
-62.7
-53.38
-45.36
-40.87
-42.21
-50.53
-65.35
-85.05
-107.44
-130.49
-152.21
-170.54
-183.36
-188.82
-186.17
-176.15
-161.25
-144.76
-129.89
-118.45
-110.38
-103.93
-96.41
-85.68
-70.88
-52.84
-33.62
-15.46
0.17
13.2
24.58
35.38
46.14
56.56
66.11
74.85
83.7
93.52
103.81
111.68
112.71
103.04
81.76
51.97
19.83
-8.25
-28.37
-40.4
-47.2
-52.28
-57.6
-62.64
-65.28
-63.64
-57.33
-47.98
-38.0
-29.46
-23.11
-18.41
-14.01
-8.62
-1.79
5.98
13.3
18.76
21.61
22.3
22.37
23.76
27.7
33.82
40.36
45.05
46.71
45.86
44.6
45.39
49.28
55.2
60.37
61.8
57.98
49.57
38.97
28.83
20.72
14.65
9.91
5.86
2.6
0.55
-0.61
-2.4
-7.05
-16.0
-28.74
-42.08
-51.39
-52.39
-43.21
-24.95
-1.0
24.43
47.86
67.1
81.68
92.12
99.53
105.27
110.56
116.62
124.24
133.23
141.65
145.95
141.94
126.67
100.65
68.25
36.52
12.44
-0.11
-1.71
3.52
10.38
15.1
16.33
14.36
9.53
1.55
-10.12
-25.23
-41.93
-57.13
-67.87
-72.48
-71.2
-65.79
-58.73
-52.14
-47.29
-44.65
-44.05
-45.06
-46.87
-48.32
-47.7
-43.09
-33.11
-17.54
2.03
22.47
40.24
52.68
59.02
60.33
58.54
55.22
50.94
45.47
38.81
31.73
25.79
22.46
22.11
23.85
25.83
26.13
23.79
19.17
13.86
9.8
8.69
10.94
15.77
21.77
27.46
31.97
35.09
36.68
36.39
33.46
27.08
17.21
4.99
-7.61
-18.28
-25.28
-27.8
-25.71
-19.43
-9.98
1.06
11.5
18.97
21.73
19.02
11.41
0.5
-11.57
-22.75
-31.48
-36.77
-38.71
-38.13
-36.48
-35.41
-35.76
-37.34
-38.98
-38.89
-35.75
-29.31
-20.67
-11.73
-4.53
0.13
3.01
6.36
12.72
23.12
36.02
47.48
52.83
48.83
35.53
16.56
-2.25
-15.65
-21.2
-19.98
-15.37
-10.59
-6.91
-3.13
2.71
11.38
21.17
28.43
29.78
24.17
13.58
2.13
-6.16
-9.41
-8.15
-4.38
0.08
4.76
10.21
17.15
25.57
34.57
42.93
49.6
54.16
56.33
55.89
52.49
46.04
36.96
26.32
15.52
5.82
-2.01
-7.97
-12.61
-16.94
-22.0
-28.6
-37.06
-46.79
-56.5
-64.38
-68.77
-69.1
-66.43
-63.02
-61.34
-62.6
-65.82
-68.23
-66.46
-58.22
-43.53
-24.66
-4.87
13.07
27.88
39.83
49.71
57.86
64.0
67.64
68.76
68.2
67.22
66.81
67.3
68.21
68.49
66.87
62.02
53.1
40.05
24.08
7.56
-6.87
-17.33
-23.56
-26.88
-29.21
-31.77
-34.28
-35.5
-34.1
-29.7
-23.06
-15.42
-7.71
0.01
8.41
18.06
28.91
40.0
49.95
57.21
60.93
60.99
58.11
53.47
48.32
43.67
40.17
38.01
37.02
36.71
36.36
35.29
33.2
30.34
27.4
25.03
23.42
21.92
19.64
15.82
10.42
4.08
-2.37
-8.4
-14.17
-20.28
-27.17
-34.71
-42.15
-48.52
-53.07
-55.65
-56.38
-55.48
-52.82
-48.1
-41.3
-33.12
-25.24
-19.88
-19.06
-23.46
-31.86
-41.43
-48.96
-52.33
-51.38
-47.78
-43.82
-41.04
-39.4
-37.64
-34.36
-29.06
-22.55
-16.4
-12.13
-10.45
-11.25
-13.97
-17.93
-22.47
-26.98
-30.64
-32.62
-32.36
-29.8
-25.19
-18.95
-11.32
-2.58
6.65
14.92
20.26
20.8
15.96
6.86
-3.81
-12.87
-17.91
-18.3
-15.26
-11.01
-7.47
-5.34
-4.02
-2.22
1.01
5.53
10.29
13.84
15.14
14.0
11.16
7.89
5.61
5.53
8.41
14.3
22.54
31.8
40.45
46.96
50.38
50.49
47.88
43.79
39.67
36.69
35.28
35.01
34.96
34.24
32.44
29.47
25.15
18.71
8.82
-5.36
-23.19
-42.03
-58.16
-68.52
-72.22
-70.88
-67.39
-64.29
-62.42
-61.24
-59.84
-58.02
-56.5
-56.04
-56.47
-56.43
-53.78
-46.83
-35.22
-20.08
-3.44
12.56
26.24
36.63
43.52
47.38
49.17
49.92
50.52
51.53
53.18
55.49
58.19
60.56
61.05
57.53
47.94
31.66
10.5
-11.53
-29.56
-40.0
-42.08
-38.12
-32.04
-27.53
-26.52
-29.04
-34.22
-41.31
-50.12
-60.49
-71.31
-80.12
-83.8
-79.89
-68.04
-50.39
-30.78
-13.14
0.07
8.52
13.77
18.1
23.32
30.03
37.61
44.83
50.51
54.28
56.68
58.92
62.12
66.65
71.75
75.92
77.81
76.77
73.14
67.86
61.49
53.99
44.78
33.66
21.33
9.35
-0.7
-8.06
-13.15
-17.28
-21.69
-26.88
-32.5
-37.85
-42.46
-46.23
-49.2
-51.23
-51.87
-50.52
-46.75
-40.61
-32.7
-24.01
-15.66
-8.46
-2.88
1.25
4.73
8.58
13.56
19.74
26.36
32.2
36.22
38.08
38.3
37.99
38.22
39.57
42.0
44.68
46.49
46.16
42.73
35.83
25.74
13.58
1.01
-9.98
-17.8
-21.63
-21.66
-19.03
-15.13
-11.08
-7.49
-4.71
-3.05
-3.25
-6.15
-12.12
-20.44
-29.22
-36.04
-39.02
-37.63
-32.9
-26.91
-21.57
-17.98
-16.11
-14.89
-13.08
-9.64
-4.31
2.64
10.36
17.91
24.27
28.47
29.59
26.91
20.53
11.49
1.93
-5.83
-10.18
-11.16
-10.62
-10.92
-13.71
-18.61
-23.39
-25.26
-22.57
-15.75
-7.14
0.28
4.43
4.53
1.11
-4.77
-12.06
-19.73
-26.61
-31.25
-32.46
-29.65
-23.63
-16.24
-9.83
-6.1
-5.44
-6.63
-7.67
-6.67
-2.6
4.18
12.39
20.25
26.15
29.04
28.48
24.67
18.54
11.44
4.93
0.34
-1.96
-2.97
-4.77
-9.57
-18.63
-31.25
-45.05
-56.75
-63.67
-64.6
-60.1
-52.05
-42.7
-34.33
-28.65
-26.6
-27.96
-31.11
-33.55
-32.72
-27.45
-18.5
-8.34
0.2
5.6
8.21
9.93
12.56
16.86
22.04
26.49
28.99
29.41
28.39
26.36
23.12
17.79
9.95
0.48
-8.27
-13.57
-13.73
-9.16
-2.15
4.53
9.08
11.57
13.6
17.01
22.69
30.28
38.75
47.29
55.81
64.53
73.21
80.96
86.52
89.37
90.35
91.41
94.37
99.53
104.86
106.84
102.05
88.87
68.54
44.61
21.22
1.45
-13.59
-24.54
-32.72
-38.99
-43.12
-44.26
-41.85
-36.6
-30.43
-25.74
-24.23
-25.92
-29.22
-31.89
-32.11
-29.39
-24.84
-20.29
-17.56
-17.62
-20.27
-24.43
-28.51
-30.87
-30.46
-27.05
-21.46
-15.3
-10.4
-8.08
-8.92
-13.05
-20.35
-30.68
-43.46
-57.41
-70.28
-79.35
-82.33
-78.37
-68.21
-53.9
-37.94
-22.52
-9.09
1.34
8.33
11.92
12.8
12.32
11.8
11.99
12.68
12.96
11.88
9.24
5.83
3.15
2.7
5.27
10.51
17.08
23.32
27.68
29.26
27.67
23.02
15.51
5.58
-6.05
-18.11
-29.14
-37.8
-43.29
-45.58
-45.08
-42.24
-37.27
-30.16
-21.18
-11.24
-1.66
6.51
13.01
18.35
23.57
29.16
34.77
39.32
41.68
41.4
38.95
35.29
31.41
27.97
25.14
22.76
20.75
19.15
18.05
17.5
17.24
16.86
15.89
13.97
10.9
6.6
1.01
-6.03
-14.64
-24.46
-34.36
-42.56
-47.29
-47.45
-43.11
-35.35
-25.4
-13.89
-0.68
14.69
32.04
49.92
65.87
77.37
82.97
82.83
78.37
71.34
62.81
52.92
41.2
27.39
12.23
-2.62
-15.09
-23.68
-28.12
-29.41
-29.09
-28.43
-27.98
-27.46
-26.44
-24.94
-23.71
-24.0
-26.93
-32.96
-41.65
-51.63
-61.06
-67.96
-70.75
-68.58
-61.69
-51.3
-39.35
-27.68
-17.49
-8.92
-1.56
5.18
11.56
17.52
22.95
27.82
32.3
36.5
40.2
42.75
43.31
41.4
37.02
30.9
24.04
17.56
12.42
9.13
7.83
8.05
8.87
8.94
7.04
2.44
-4.95
-14.3
-24.33
-33.26
-39.35
-41.16
-38.04
-30.29
-18.99
-5.63
8.43
22.23
35.3
47.4
58.32
67.68
75.06
80.25
83.31
84.77
85.43
86.29
88.1
90.94
94.04
95.84
94.54
89.01
79.39
67.08
54.17
42.41
32.48
24.01
16.0
7.76
-0.71
-8.7
-15.42
-20.7
-25.29
-30.63
-38.17
-48.46
-60.6
-72.68
-82.46
-88.12
-88.85
-84.56
-75.75
-63.32
-48.51
-33.17
-19.49
-9.43
-3.95
-2.46
-3.3
-4.42
-4.34
-2.49
1.28
7.14
15.58
26.78
39.85
52.64
62.51
67.64
68.07
65.49
62.08
59.11
55.84
49.88
38.61
20.9
-2.06
-26.69
-48.58
-64.05
-71.43
-71.39
-66.15
-58.4
-50.39
-43.72
-39.39
-37.89
-39.29
-42.76
-46.67
-49.09
-48.76
-45.85
-41.91
-38.92
-38.03
-38.88
-39.92
-39.57
-37.3
-33.89
-30.71
-28.61
-27.39
-25.79
-22.37
-16.36
-8.08
1.41
10.73
18.6
24.08
26.23
24.3
17.78
6.84
-7.34
-22.58
-36.16
-45.71
-49.87
-48.7
-43.44
-35.91
-27.85
-20.64
-15.26
-12.3
-11.98
-13.85
-16.67
-18.82
-18.87
-16.2
-11.33
-5.67
-0.84
1.98
2.6
1.62
0.37
0.16
2.06
6.61
13.43
21.49
29.05
34.38
36.38
35.09
31.86
29.05
29.36
34.92
46.36
61.85
77.24
86.9
85.98
72.62
49.16
21.45
-3.51
-20.76
-29.11
-30.93
-30.25
-30.33
-32.22
-35.01
-37.3
-38.39
-38.67
-39.04
-39.98
-41.07
-41.17
-38.97
-33.72
-25.48
-15.16
-4.41
4.71
10.66
12.84
12.02
10.09
9.23
10.99
15.85
23.35
32.57
42.6
52.83
63.06
73.49
84.68
97.34
111.91
127.74
142.67
153.16
155.07
145.36
123.19
90.68
52.15
12.79
-22.65
-51.07
-71.19
-83.42
-89.09
-89.82
-87.17
-82.38
-76.59
-70.72
-65.58
-61.61
-58.97
-57.67
-57.71
-59.11
-61.59
-64.42
-66.29
-65.7
-61.46
-53.14
-41.02
-25.84
-8.44
10.4
29.72
48.35
65.03
78.96
90.14
99.01
105.79
109.68
109.05
102.15
88.34
68.92
46.77
25.38
7.43
-5.83
-14.57
-19.7
-22.36
-23.64
-24.77
-27.09
-31.93
-40.16
-51.7
-65.32
-78.74
-89.35
-94.91
-94.33
-87.77
-76.31
-61.42
-44.46
-26.48
-8.41
8.78
24.17
37.34
48.62
59.08
69.99
81.94
94.54
106.38
115.75
121.3
122.25
118.2
108.84
93.93
73.73
49.48
23.51
-1.38
-22.69
-39.25
-51.35
-60.29
-67.61
-74.15
-79.82
-83.76
-85.05
-83.21
-78.67
-72.49
-65.99
-60.2
-55.63
-52.19
-49.4
-46.55
-42.98
-38.25
-32.19
-25.05
-17.24
-9.41
-2.1
4.13
8.88
11.85
12.84
11.9
9.48
6.52
4.3
4.05
6.56
12.02
20.08
30.0
40.75
50.79
57.81
58.83
50.99
32.93
5.92
-25.85
-56.2
-79.05
-90.6
-90.64
-82.35
-70.77
-60.5
-54.02
-51.06
-49.53
-47.02
-42.33
-35.91
-29.33
-24.21
-21.26
-20.13
-19.83
-19.33
-18.0
-15.59
-11.79
-6.16
1.78
12.03
23.71
35.3
45.24
52.7
58.09
62.71
67.82
73.73
79.09
81.06
76.43
63.12
41.33
13.98
-14.24
-38.37
-54.87
-62.44
-61.81
-55.0
-44.35
-32.1
-20.24
-10.52
-4.37
-2.4
-4.19
-8.44
-13.52
-18.29
-22.29
-25.61
-28.54
-30.97
-32.32
-31.85
-28.86
-23.13
-15.08
-5.58
4.28
13.51
21.53
28.14
33.16
36.24
36.66
33.97
28.29
20.56
12.41
5.29
-0.03
-3.76
-6.48
-8.44
-8.98
-6.81
-1.0
8.3
19.4
29.57
36.07
37.24
33.11
25.52
17.17
10.8
8.03
8.81
11.69
14.68
16.2
15.8
14.11
12.24
11.2
11.64
13.56
16.6
20.23
24.01
27.82
31.71
35.74
39.72
42.91
44.08
42.03
36.15
26.95
15.89
4.85
-4.57
-11.39
-15.29
-16.34
-14.75
-10.99
-5.92
-0.59
3.95
7.02
8.51
8.64
7.63
5.75
3.15
0.01
-3.32
-6.42
-8.81
-10.11
-10.06
-8.5
-5.55
-1.66
2.43
5.91
8.23
9.32
9.31
8.48
6.84
4.32
1.01
-2.78
-6.3
-8.84
-9.81
-8.88
-5.98
-1.17
5.32
12.83
20.11
25.68
28.15
26.88
22.17
14.91
6.13
-3.47
-13.47
-23.54
-32.91
-40.34
-44.38
-44.16
-39.9
-33.1
-25.93
-20.32
-17.07
-15.55
-14.11
-10.89
-4.8
4.03
14.36
24.37
32.33
37.32
39.29
39.01
37.87
37.31
38.31
40.94
44.1
45.84
44.27
38.63
29.71
19.77
11.58
7.11
6.87
9.72
13.6
16.37
16.33
12.42
4.33
-7.51
-21.68
-35.86
-47.37
-54.0
-54.94
-51.2
-45.2
-39.74
-37.0
-37.62
-40.78
-44.87
-48.23
-49.88
-49.72
-48.3
-46.15
-43.49
-40.01
-35.14
-28.7
-21.01
-13.01
-5.67
0.47
5.56
10.14
14.69
19.23
23.19
25.76
26.34
24.82
21.76
18.05
14.54
11.62
8.9
5.32
-0.36
-8.94
-20.15
-32.52
-43.89
-52.21
-56.37
-56.62
-54.25
-50.94
-48.01
-45.91
-44.29
-42.44
-39.67
-35.74
-30.81
-25.4
-19.89
-14.32
-8.26
-0.9
8.32
19.58
32.52
46.66
61.57
76.77
91.32
103.12
109.27
106.75
93.85
71.42
42.85
13.15
-12.84
-31.94
-43.37
-48.25
-48.61
-46.46
-43.27
-40.01
-37.21
-35.24
-34.23
-34.07
-34.33
-34.5
-34.05
-32.76
-30.79
-28.52
-26.48
-24.97
-23.83
-22.35
-19.54
-14.42
-6.47
4.09
16.51
29.53
41.86
52.65
61.72
69.54
76.99
84.69
92.37
98.68
101.41
98.32
88.21
71.58
50.92
30.0
12.53
0.98
-4.35
-5.39
-5.31
-7.13
-12.46
-20.68
-29.44
-36.2
-39.5
-39.81
-38.99
-39.04
-40.79
-43.52
-45.33
-44.35
-39.83
-32.43
-23.83
-15.75
-9.09
-3.7
1.36
7.17
14.26
22.52
31.12
39.02
45.14
48.56
48.56
44.67
36.94
26.0
13.03
-0.46
-13.21
-24.4
-33.67
-40.89
-46.03
-49.13
-50.73
-51.85
-53.52
-56.26
-59.25
-60.6
-58.35
-51.6
-41.07
-28.6
-15.71
-2.4
13.12
33.39
60.28
93.52
130.42
166.67
197.43
218.95
229.4
229.13
220.24
205.76
188.68
171.0
153.7
136.73
119.64
102.25
84.71
67.59
51.6
37.85
28.0
24.0
27.32
37.59
51.77
64.49
69.99
64.52
48.23
25.22
1.76
-16.54
-26.84
-29.85
-28.7
-26.89
-26.74
-28.79
-32.36
-36.67
-41.51
-47.33
-54.72
-64.06
-75.08
-87.03
-99.04
-110.45
-120.96
-130.62
-139.52
-147.67
-154.7
-159.85
-162.2
-161.12
-156.51
-148.97
-139.72
-130.12
-121.23
-113.63
-107.44
-102.61
-99.08
-96.78
-95.47
-94.62
-93.53
-91.55
-88.19
-83.27
-76.65
-68.41
-58.85
-48.52
-38.23
-28.63
-19.96
-12.08
-4.76
1.77
6.84
9.53
9.41
6.91
3.14
-0.61
-3.45
-5.11
-5.93
-6.34
-6.78
-7.47
-8.46
-9.53
-10.04
-9.03
-5.53
0.93
9.74
19.32
27.52
32.37
32.9
29.38
23.17
16.11
9.86
5.47
3.06
1.96
1.29
0.39
-0.91
-2.3
-3.23
-3.01
-1.07
2.99
9.19
16.77
24.12
29.13
30.14
26.86
20.66
14.04
9.52
8.27
9.69
12.05
13.4
12.96
11.28
9.9
10.34
13.27
18.21
23.89
29.11
33.24
36.54
39.8
43.73
48.56
53.81
58.98
64.01
69.64
76.91
86.35
97.35
107.98
115.95
119.32
117.43
110.9
100.89
88.42
73.88
57.06
37.75
16.42
-5.55
-26.0
-42.84
-54.84
-62.26
-66.62
-70.02
-74.1
-79.36
-85.04
-89.76
-92.5
-92.98
-91.55
-88.44
-83.33
-75.26
-63.56
-48.46
-31.32
-13.98
2.01
15.99
28.11
38.76
47.96
55.02
58.9
58.72
54.39
46.73
37.2
27.31
17.86
8.95
0.07
-9.36
-19.6
-30.31
-40.73
-50.25
-58.55
-65.69
-71.75
-76.46
-79.18
-79.24
-76.68
-72.22
-67.02
-62.03
-57.6
-53.59
-49.89
-46.57
-43.8
-41.31
-38.31
-33.69
-26.77
-17.76
-7.7
2.18
11.33
20.11
29.47
40.1
51.77
63.11
72.12
77.06
77.07
72.35
64.02
53.64
42.8
32.8
24.43
17.87
12.75
8.22
3.2
-3.43
-12.3
-23.27
-35.18
-45.99
-53.48
-56.02
-53.26
-46.06
-35.98
-24.72
-13.61
-3.67
4.25
9.29
10.85
8.82
3.88
-2.65
-9.21
-14.4
-17.29
-17.7
-15.91
-12.53
-8.24
-3.43
1.74
7.46
13.88
20.9
28.02
34.28
38.73
40.63
39.68
36.0
30.04
22.53
14.49
7.11
1.6
-1.29
-1.54
0.03
2.11
3.32
2.64
-0.31
-5.24
-11.32
-17.4
-22.31
-25.0
-24.95
-22.14
-17.09
-10.88
-4.72
0.18
3.05
3.63
2.17
-0.64
-4.12
-7.52
-10.21
-11.5
-10.75
-7.57
-2.2
4.42
10.94
16.16
19.67
21.88
23.63
25.59
27.74
29.58
30.46
30.27
29.47
28.79
28.63
28.76
28.47
26.85
23.46
18.28
11.82
4.77
-2.32
-8.92
-14.84
-20.02
-24.83
-29.85
-35.7
-42.54
-49.77
-55.98
-59.47
-59.22
-55.54
-50.36
-46.32
-45.53
-48.33
-52.96
-56.22
-54.98
-47.88
-35.62
-20.78
-6.11
6.63
17.35
27.12
36.99
47.23
56.97
65.12
71.18
75.63
79.87
85.32
92.98
103.38
117.15
135.41
159.61
190.48
226.69
264.52
298.42
322.64
333.01
327.97
308.45
276.92
236.11
188.66
137.1
84.29
33.79
-10.57
-45.64
-70.12
-84.84
-92.61
-97.12
-101.6
-108.02
-116.38
-124.99
-131.07
-131.9
-125.98
-113.86
-98.14
-82.5
-70.31
-63.25
-60.89
-61.44
-62.82
-63.67
-63.75
-63.26
-62.26
-60.3
-56.81
-51.88
-46.66
-43.25
-43.84
-49.76
-60.53
-74.05
-87.33
-97.34
-102.17
-101.59
-96.74
-89.3
-80.69
-71.52
-61.74
-51.27
-40.44
-30.22
-21.77
-15.8
-12.25
-10.39
-9.45
-8.95
-8.96
-9.59
-10.6
-11.2
-10.3
-7.21
-2.09
4.18
10.53
16.5
22.6
29.88
39.11
49.81
60.1
67.32
69.51
66.4
59.7
52.41
47.22
45.43
46.46
48.42
49.16
47.26
42.46
35.26
26.45
16.5
5.41
-6.95
-20.67
-35.41
-50.45
-64.92
-78.12
-89.78
-100.0
-108.89
-116.12
-120.96
-122.34
-119.47
-112.44
-102.34
-91.01
-80.48
-72.27
-67.21
-65.52
-67.03
-71.32
-77.66
-84.92
-91.61
-96.38
-98.48
-98.1
-96.36
-94.77
-94.65
-96.45
-99.12
-100.17
-96.35
-84.67
-63.57
-33.61
2.92
42.84
83.26
122.1
157.67
188.07
210.78
223.24
224.01
213.9
196.12
175.18
155.24
138.54
125.04
113.07
100.41
85.47
67.89
48.46
28.76
10.68
-4.05
-13.9
-17.66
-14.58
-4.35
12.52
34.55
59.38
84.22
106.65
125.2
139.62
150.61
159.07
165.48
169.46
169.87
165.2
154.05
135.64
110.32
79.59
45.92
11.93
-20.3
-49.73
-76.36
-100.71
-123.09
-143.27
-160.53
-173.92
-182.72
-186.6
-185.78
-180.88
-172.82
-162.5
-150.58
-137.34
-122.65
-106.27
-88.44
-69.96
-52.03
-35.62
-21.07
-8.09
3.92
15.22
25.59
34.31
40.57
43.81
43.85
40.99
36.0
29.98
24.19
19.53
16.26
13.85
11.33
7.85
3.12
-2.4
-7.96
-12.88
-16.99
-20.47
-23.66
-26.84
-30.13
-33.6
-37.26
-40.91
-43.95
-45.31
-43.76
-38.36
-28.95
-16.23
-1.54
13.53
27.55
39.47
48.67
54.9
58.12
58.51
56.46
52.65
47.86
42.77
37.66
32.27
26.01
18.36
9.28
-0.79
-11.0
-20.36
-28.19
-34.03
-37.83
-39.81
-40.47
-40.57
-40.91
-42.2
-44.62
-47.84
-51.3
-54.41
-56.9
-58.65
-59.41
-58.74
-55.98
-50.74
-43.02
-33.27
-22.02
-9.66
3.51
17.08
30.21
41.64
49.82
53.48
51.93
45.29
34.4
20.84
6.5
-6.9
-18.13
-26.32
-30.84
-30.97
-26.11
-16.49
-3.58
9.77
20.24
25.41
24.62
19.37
12.05
4.81
-1.22
-5.75
-8.36
-8.11
-3.57
6.25
21.32
40.39
61.45
82.13
99.97
112.61
118.09
115.41
104.86
88.37
68.97
49.93
33.79
21.76
13.24
6.31
-1.43
-12.09
-26.54
-44.14
-62.95
-80.44
-94.36
-102.88
-104.55
-97.77
-81.49
-55.89
-23.33
11.85
44.77
72.22
94.02
112.68
131.68
152.97
176.03
198.31
217.13
231.33
241.55
249.4
255.76
259.89
259.5
251.94
235.44
210.06
177.68
141.34
104.17
68.5
35.38
4.72
-24.05
-51.47
-77.53
-101.72
-123.37
-142.2
-158.33
-172.28
-184.65
-195.66
-205.21
-212.77
-217.66
-219.23
-217.04
-210.97
-201.16
-187.88
-171.3
-151.59
-129.31
-105.8
-83.46
-65.38
-54.24
-51.16
-55.11
-62.98
-70.85
-75.34
-74.65
-68.93
-59.76
-49.17
-38.87
-29.92
-22.77
-17.72
-15.07
-15.12
-17.96
-23.09
-29.44
-35.88
-41.61
-46.61
-51.57
-57.39
-64.6
-73.12
-82.3
-91.07
-98.18
-102.37
-102.41
-97.57
-87.98
-74.88
-60.32
-46.33
-34.0
-23.2
-12.67
-1.09
12.29
27.24
42.9
58.34
72.75
85.57
96.16
103.59
107.09
106.38
102.16
96.03
90.21
86.65
86.19
88.24
90.59
90.4
85.09
73.53
56.67
37.07
18.24
3.33
-5.64
-8.27
-5.51
0.64
7.89
14.12
17.83
18.53
16.6
13.1
9.15
5.5
2.16
-1.23
-4.89
-8.45
-10.88
-10.98
-8.13
-2.62
4.28
10.9
15.65
17.63
16.71
13.58
9.41
5.57
3.18
2.82
4.27
6.72
9.11
10.63
11.18
11.51
13.03
17.09
23.98
32.76
41.33
47.34
49.34
47.37
43.03
38.6
35.77
35.01
35.38
35.29
33.48
29.77
24.88
19.98
15.98
13.14
11.23
9.86
8.8
7.96
7.29
6.46
4.8
1.54
-4.04
-11.93
-21.33
-30.87
-39.05
-44.94
-48.64
-51.2
-53.92
-57.61
-61.72
-64.52
-64.04
-59.13
-50.61
-40.94
-33.15
-29.29
-29.36
-31.44
-32.85
-31.7
-27.62
-21.74
-15.76
-10.82
-7.23
-4.61
-2.69
-1.71
-2.34
-5.01
-9.42
-14.49
-18.82
-21.47
-22.26
-21.58
-20.03
-18.18
-16.44
-15.36
-15.48
-17.08
-20.02
-23.31
-25.65
-25.77
-23.04
-17.44
-9.35
0.75
12.5
25.35
38.49
50.71
60.66
67.28
70.09
69.32
65.77
61.0
56.62
53.9
53.01
52.72
50.8
45.25
35.38
22.33
8.57
-3.54
-12.78
-19.49
-24.82
-29.78
-34.66
-39.38
-43.92
-48.49
-53.38
-58.2
-61.77
-62.37
-58.56
-49.84
-36.99
-21.54
-5.23
10.49
24.67
36.83
46.71
54.02
58.08
57.94
53.25
45.19
36.6
31.4
32.48
39.89
50.3
58.35
59.52
52.38
39.23
24.51
12.07
3.17
-3.68
-11.1
-20.75
-32.09
-42.86
-50.51
-53.61
-52.37
-48.27
-43.26
-38.71
-34.89
-31.24
-26.96
-21.7
-16.0
-10.96
-7.73
-6.6
-6.57
-5.74
-2.08
5.53
16.98
30.84
45.05
57.75
67.73
74.47
78.13
78.7
76.07
69.85
59.79
46.26
30.52
14.41
-0.24
-12.28
-21.64
-28.99
-35.35
-41.46
-47.52
-53.28
-57.99
-60.59
-59.86
-54.7
-44.9
-31.52
-16.85
-3.52
6.5
12.66
15.91
17.8
19.39
20.79
21.32
20.15
17.41
14.05
11.93
12.89
18.02
27.24
39.2
51.3
60.52
64.19
61.11
51.93
38.88
24.81
11.93
1.03
-8.48
-17.73
-27.45
-37.48
-46.82
-54.51
-60.3
-64.77
-68.79
-72.73
-75.98
-77.19
-75.25
-70.09
-63.01
-56.33
-52.13
-51.33
-53.32
-56.38
-58.92
-60.05
-59.82
-58.73
-57.02
-54.16
-48.98
-40.42
-28.25
-13.59
1.47
14.45
23.45
27.67
27.3
23.16
16.18
7.24
-2.59
-11.93
-19.31
-23.73
-25.09
-24.41
-23.13
-22.21
-21.37
-19.56
-15.75
-10.04
-3.41
3.0
8.86
14.92
22.23
30.99
39.89
46.75
49.55
47.81
42.68
35.89
28.98
22.52
16.79
12.36
10.27
11.69
17.03
25.4
34.97
43.9
50.98
55.85
58.7
59.7
58.78
55.64
50.24
42.86
34.19
25.24
16.96
10.21
5.67
3.63
4.06
6.38
9.4
11.85
12.47
10.74
7.1
2.65
-1.26
-3.88
-5.1
-5.19
-4.08
-0.89
5.83
17.2
32.86
50.36
65.71
74.7
74.85
66.52
52.98
39.1
29.86
28.92
37.69
55.06
77.16
97.99
110.67
109.42
91.7
59.48
18.69
-22.65
-57.22
-80.74
-92.35
-93.85
-88.13
-77.76
-64.76
-50.78
-37.66
-27.15
-20.34
-17.16
-16.41
-16.64
-16.83
-16.92
-17.66
-19.99
-24.23
-29.84
-35.41
-39.29
-40.08
-37.19
-31.07
-23.07
-15.03
-8.76
-5.41
-5.15
-7.41
-10.82
-13.72
-14.76
-13.2
-8.9
-2.44
5.43
14.07
22.95
31.69
39.71
46.24
50.51
52.09
50.99
47.36
41.56
33.78
24.21
13.35
1.96
-9.02
-18.81
-26.79
-32.52
-35.3
-34.56
-30.03
-22.36
-13.21
-4.71
1.36
4.39
4.93
4.15
2.88
1.34
-0.64
-3.1
-5.43
-6.89
-7.06
-6.53
-6.59
-8.73
-13.56
-20.22
-26.8
-30.69
-29.89
-23.7
-12.98
0.39
14.34
27.22
38.11
46.4
51.59
52.91
49.73
41.98
30.59
17.28
4.05
-7.61
-17.26
-25.3
-32.55
-39.65
-46.84
-54.11
-61.53
-69.25
-77.32
-85.35
-92.35
-97.26
-99.32
-98.52
-95.67
-91.81
-87.7
-83.32
-77.93
-70.26
-59.26
-44.44
-26.21
-5.77
15.27
35.26
52.92
67.41
78.45
86.22
91.38
94.84
97.52
100.05
102.46
104.45
105.37
104.83
102.93
100.25
97.33
94.06
89.23
80.67
66.22
44.82
17.17
-14.34
-46.49
-76.36
-102.13
-122.96
-138.42
-147.7
-149.76
-143.88
-130.66
-112.46
-92.69
-74.61
-59.91
-48.31
-38.29
-28.21
-17.63
-7.26
1.62
8.26
12.76
16.0
18.97
21.98
24.68
26.53
27.24
27.27
27.67
29.86
34.85
42.74
52.62
62.74
71.04
75.63
74.96
67.93
53.9
33.02
6.61
-22.73
-51.47
-76.08
-94.37
-106.13
-112.93
-116.86
-119.52
-121.41
-122.28
-122.11
-121.63
-121.78
-122.63
-122.65
-118.99
-108.75
-90.59
-65.69
-37.21
-9.0
15.78
35.54
50.18
60.53
67.29
71.13
72.49
72.01
70.54
68.86
67.31
65.54
62.46
56.87
48.12
37.0
25.91
18.1
16.4
21.43
31.38
42.41
50.47
52.8
48.49
38.35
23.85
6.69
-11.14
-27.25
-38.86
-43.3
-38.92
-26.06
-7.46
12.03
26.32
29.94
20.04
-2.27
-31.55
-59.51
-77.97
-81.78
-70.67
-48.56
-21.22
6.6
32.64
56.88
80.02
101.88
121.09
135.69
144.48
147.75
147.27
145.53
144.64
145.51
147.33
148.44
147.09
142.44
135.1
126.54
118.36
111.22
104.62
97.23
88.08
77.03
64.81
52.38
40.23
28.3
16.03
2.81
-12.09
-29.5
-50.32
-75.25
-104.11
-135.5
-167.1
-196.4
-221.4
-240.85
-253.98
-259.99
-257.75
-246.15
-224.95
-195.11
-158.76
-118.54
-76.75
-35.29
4.23
40.1
70.3
93.05
107.68
115.09
117.77
118.84
120.74
124.03
127.16
127.34
122.18
111.31
96.75
82.12
70.94
65.05
63.93
65.25
66.22
64.82
60.49
53.97
46.81
40.61
36.59
35.4
37.13
41.39
47.71
55.7
65.31
76.77
90.54
107.27
127.74
152.25
180.13
209.15
235.72
255.78
266.06
265.03
253.0
231.17
200.19
159.76
109.58
51.0
-11.54
-71.02
-119.71
-152.31
-167.87
-170.09
-165.37
-160.17
-158.78
-162.18
-168.6
-174.99
-178.75
-178.79
-175.52
-170.08
-163.34
-155.4
-145.59
-133.37
-119.04
-104.16
-91.22
-82.28
-77.99
-77.17
-77.43
-76.46
-73.17
-68.08
-62.85
-59.1
-57.43
-57.11
-56.57
-54.4
-50.31
-45.52
-42.01
-41.73
-45.28
-51.76
-59.16
-65.47
-69.45
-70.81
-69.77
-66.42
-60.81
-53.2
-44.41
-35.85
-28.76
-23.6
-19.86
-16.41
-12.51
-8.12
-3.83
-0.16
3.01
6.4
10.63
15.47
19.99
23.03
24.07
23.56
22.57
22.26
23.43
26.24
30.2
33.94
35.4
32.43
23.9
10.56
-4.68
-17.3
-22.84
-18.84
-6.42
9.64
22.67
26.59
18.48
-0.12
-23.99
-46.57
-62.67
-70.44
-71.48
-69.18
-66.45
-64.19
-61.37
-56.5
-49.05
-40.02
-31.09
-23.39
-16.85
-10.4
-3.02
5.64
14.83
23.01
28.51
30.05
27.3
21.04
13.3
6.83
4.23
6.93
14.63
25.55
37.36
48.31
58.02
66.9
75.72
84.96
94.9
105.89
117.87
129.6
138.07
138.96
128.48
105.73
73.86
39.23
8.86
-12.41
-23.52
-26.55
-24.86
-21.1
-16.36
-10.69
-4.08
2.64
8.15
11.07
10.78
7.59
2.49
-3.13
-7.88
-10.57
-10.45
-7.27
-1.5
5.66
12.52
17.27
18.42
15.2
7.81
-2.69
-14.54
-25.86
-35.03
-40.79
-42.42
-39.62
-32.67
-22.77
-11.81
-2.05
4.64
7.52
7.18
5.08
2.9
1.63
1.28
0.96
-0.41
-3.29
-7.01
-9.74
-9.18
-3.45
8.04
24.19
42.47
59.91
74.02
83.53
88.56
89.98
89.0
86.69
84.1
82.32
82.03
83.1
84.33
83.74
79.55
71.13
59.19
45.35
31.38
18.59
7.69
-1.06
-7.76
-13.12
-18.51
-25.72
-36.09
-49.56
-64.2
-76.98
-84.92
-86.59
-82.38
-73.83
-62.68
-49.91
-35.71
-20.23
-4.2
10.76
22.9
30.97
34.88
35.63
34.6
32.52
29.13
23.38
14.38
2.23
-11.61
-24.9
-35.76
-43.57
-49.11
-53.81
-58.7
-63.71
-67.98
-70.54
-71.1
-70.26
-68.96
-67.95
-67.09
-65.63
-62.62
-57.62
-50.97
-43.62
-36.53
-30.06
-23.69
-16.33
-6.87
5.26
19.9
36.2
52.95
68.87
82.7
93.08
98.69
98.57
92.41
80.97
65.86
49.0
32.04
16.0
1.33
-11.77
-22.98
-31.98
-38.44
-41.97
-42.08
-38.23
-30.08
-18.01
-3.31
11.85
24.92
33.65
36.63
33.39
24.38
10.99
-4.7
-19.87
-31.86
-38.87
-40.86
-39.4
-36.65
-34.08
-31.65
-27.99
-21.64
-12.13
-0.37
11.81
22.91
32.22
40.04
46.7
51.95
54.64
53.17
46.53
35.0
20.42
5.65
-6.46
-13.83
-15.85
-12.97
-6.37
2.73
13.55
25.46
38.01
50.51
62.03
71.68
78.87
83.48
85.57
85.47
83.55
80.28
76.38
72.69
69.94
68.79
70.04
74.75
83.8
96.82
111.09
121.58
122.59
110.41
85.53
53.12
21.0
-3.5
-16.58
-18.67
-13.47
-5.53
1.6
6.01
7.07
4.79
-0.54
-8.15
-16.63
-24.22
-29.33
-30.97
-29.14
-24.56
-18.38
-11.88
-6.24
-2.19
-0.27
-0.54
-2.66
-6.06
-10.03
-13.94
-17.22
-19.29
-19.72
-18.28
-15.11
-10.97
-7.07
-4.89
-5.65
-9.9
-17.3
-26.63
-36.35
-45.22
-52.77
-59.28
-65.36
-71.32
-76.84
-81.12
-83.53
-84.14
-83.76
-83.73
-85.43
-89.47
-95.79
-103.54
-111.44
-117.84
-121.15
-120.16
-114.53
-105.02
-93.31
-81.35
-70.55
-61.29
-53.13
-45.34
-37.7
-30.69
-25.24
-21.93
-20.57
-20.27
-19.72
-17.87
-13.97
-7.75
0.68
10.96
22.48
34.48
46.28
57.55
68.33
78.93
89.69
100.87
112.62
124.93
137.28
148.17
154.85
153.81
141.85
117.65
82.93
42.37
2.35
-31.01
-53.77
-65.09
-67.02
-63.34
-58.2
-54.95
-55.36
-59.67
-66.56
-73.82
-78.96
-79.88
-75.46
-65.72
-51.71
-35.19
-18.16
-2.55
10.07
18.6
22.57
22.31
19.11
14.96
12.09
12.33
16.49
24.29
34.58
45.97
57.18
67.13
74.88
79.43
79.92
76.04
68.37
58.32
47.72
38.27
30.87
25.51
21.52
17.81
13.39
7.56
0.11
-8.69
-17.99
-26.81
-34.22
-39.78
-43.68
-46.54
-49.04
-51.6
-54.12
-56.08
-56.82
-55.72
-52.48
-47.14
-40.16
-32.22
-24.2
-17.1
-11.86
-9.05
-8.5
-9.04
-8.78
-5.81
0.75
10.16
20.28
28.33
32.15
31.05
25.83
17.96
8.9
-0.34
-9.03
-16.42
-21.64
-24.18
-24.48
-23.95
-24.55
-27.59
-33.1
-39.85
-46.0
-50.01
-51.2
-49.58
-45.43
-39.23
-31.36
-22.52
-13.77
-6.14
-0.3
3.77
6.69
9.48
13.1
18.25
25.17
33.53
42.57
51.24
58.48
63.6
66.53
67.62
67.29
65.54
61.68
54.77
44.04
29.54
12.45
-5.25
-21.17
-33.29
-40.47
-42.76
-41.04
-36.78
-31.29
-25.67
-20.76
-17.31
-15.91
-16.52
-18.37
-19.83
-19.18
-15.55
-9.37
-2.33
3.47
6.69
7.18
6.06
4.9
5.06
7.25
11.61
17.76
24.98
32.33
38.84
44.11
48.26
51.9
55.48
58.64
60.03
57.78
50.34
37.27
19.57
-0.22
-18.71
-32.62
-39.42
-38.42
-30.92
-19.9
-9.33
-2.77
-2.43
-8.44
-18.91
-30.71
-40.54
-45.8
-45.35
-39.68
-30.52
-20.2
-10.86
-3.78
0.92
4.0
6.54
9.74
14.39
20.85
28.98
38.25
48.1
58.23
68.71
79.88
91.93
104.1
114.37
119.74
117.03
104.16
81.03
49.88
14.81
-19.32
-48.07
-68.51
-79.92
-83.41
-81.42
-76.58
-71.14
-66.57
-63.92
-63.94
-66.82
-72.07
-78.22
-83.03
-84.45
-81.5
-74.73
-65.92
-57.38
-50.86
-47.05
-45.55
-45.25
-44.73
-42.6
-37.75
-29.79
-19.21
-7.31
4.11
13.46
19.74
22.68
22.62
20.06
15.45
9.07
1.2
-7.97
-18.14
-28.96
-39.94
-50.47
-60.01
-68.29
-75.16
-80.34
-83.36
-83.53
-80.33
-74.02
-65.58
-56.26
-46.81
-37.07
-26.15
-13.41
0.63
14.12
24.66
30.76
32.51
31.67
30.49
30.47
31.79
33.75
35.5
37.05
39.19
42.96
48.96
56.74
65.05
72.22
76.88
78.27
76.28
71.17
63.22
52.7
40.02
25.94
11.55
-1.87
-13.28
-22.34
-29.34
-35.11
-40.5
-46.1
-52.09
-58.17
-63.94
-68.83
-72.46
-74.67
-75.8
-76.63
-78.18
-81.1
-85.1
-88.8
-90.03
-86.8
-78.17
-64.74
-48.4
-31.6
-16.52
-4.59
3.71
8.65
10.95
11.48
10.99
10.1
9.24
8.57
7.98
6.98
4.93
1.49
-3.12
-7.77
-10.73
-10.21
-5.39
3.26
13.86
24.04
32.01
37.26
40.64
43.57
47.05
51.0
54.5
56.24
55.43
52.18
47.39
42.18
37.25
32.65
28.21
24.26
21.87
22.38
26.56
33.87
42.56
50.66
56.97
61.63
65.69
70.1
74.69
78.21
78.99
76.04
69.7
61.48
53.06
45.67
39.51
33.92
28.13
21.6
14.47
7.47
1.53
-2.73
-5.49
-7.81
-11.26
-16.99
-25.04
-34.06
-41.88
-46.63
-47.81
-46.33
-43.78
-41.68
-40.66
-40.61
-41.09
-41.66
-42.05
-42.02
-41.33
-39.84
-37.5
-34.52
-31.38
-28.3
-25.05
-21.09
-15.77
-8.93
-1.12
6.61
13.1
17.59
19.91
20.36
19.42
17.58
15.02
11.76
7.81
3.64
0.1
-1.7
-0.98
2.04
6.21
9.75
11.01
9.17
4.47
-1.79
-8.04
-12.87
-15.56
-16.19
-15.54
-14.8
-14.91
-16.33
-18.67
-20.98
-22.25
-21.86
-20.0
-17.33
-14.58
-12.01
-9.34
-5.99
-1.43
4.39
11.16
18.34
25.49
32.23
38.21
43.04
46.08
46.6
43.95
38.09
29.68
20.22
11.45
4.71
0.36
-2.32
-4.63
-7.68
-11.7
-16.07
-19.75
-22.04
-23.03
-23.2
-22.91
-21.9
-19.58
-15.75
-11.33
-8.33
-8.9
-14.05
-22.66
-31.86
-37.87
-37.89
-31.12
-18.94
-4.32
9.61
20.53
27.5
30.64
30.72
28.64
25.21
21.06
16.41
10.98
4.14
-4.8
-16.07
-29.04
-42.33
-54.49
-64.54
-72.11
-77.13
-79.4
-78.48
-74.1
-66.6
-57.25
-47.68
-39.06
-31.49
-24.0
-15.57
-6.12
3.15
10.35
13.98
13.84
11.12
7.7
5.36
5.2
7.6
12.52
19.65
28.46
38.27
48.18
57.22
64.54
69.59
72.22
72.81
71.87
69.95
67.3
63.58
57.9
49.29
37.27
22.33
6.05
-9.29
-21.69
-29.85
-33.55
-33.5
-30.86
-27.12
-23.89
-22.68
-24.49
-29.42
-36.36
-43.18
-47.69
-48.43
-45.12
-38.5
-29.69
-19.7
-9.13
1.48
11.53
20.4
27.66
33.62
39.23
45.71
53.65
62.67
71.31
77.58
79.84
77.32
70.33
59.93
47.64
34.89
22.79
11.7
1.06
-10.34
-23.77
-39.93
-58.14
-76.34
-91.78
-101.98
-105.89
-103.98
-97.55
-87.98
-76.15
-62.58
-48.08
-34.14
-22.64
-14.96
-10.96
-8.77
-5.73
0.34
9.97
21.76
33.14
41.52
45.48
45.21
42.36
39.43
38.76
41.65
47.76
55.45
62.52
67.24
69.14
68.84
67.32
65.21
62.29
57.75
51.0
42.2
32.32
22.58
13.89
6.37
-0.49
-7.53
-15.17
-23.01
-29.84
-34.07
-34.47
-30.89
-24.47
-17.19
-11.03
-7.0
-4.96
-3.83
-2.42
-0.0
3.37
7.22
11.16
15.1
19.08
23.21
27.22
30.55
32.52
32.66
31.12
28.84
27.58
29.35
35.58
46.37
59.99
73.19
82.36
84.71
79.26
67.05
50.47
32.24
14.51
-1.59
-15.71
-27.98
-38.58
-47.57
-54.97
-60.65
-64.57
-66.52
-66.07
-62.57
-55.42
-44.53
-30.74
-15.96
-2.91
5.82
8.78
6.41
0.99
-4.31
-6.83
-5.48
-1.08
4.25
8.51
10.7
11.13
10.98
11.59
13.89
18.37
25.18
34.22
44.96
56.15
65.79
71.29
70.3
61.38
44.84
22.62
-2.1
-25.86
-45.88
-60.61
-69.81
-73.99
-74.01
-70.42
-63.45
-53.24
-40.04
-24.54
-7.7
9.33
25.31
39.03
49.24
54.96
55.57
51.16
42.6
31.45
19.8
9.63
2.53
-0.86
-0.9
1.29
4.49
7.87
11.47
16.09
22.62
31.39
41.75
52.09
60.47
65.26
65.47
61.02
52.36
40.19
25.34
8.74
-8.52
-25.16
-39.67
-50.68
-57.43
-60.06
-59.88
-58.86
-59.05
-61.73
-66.81
-72.83
-77.41
-78.21
-73.52
-63.06
-47.79
-29.69
-11.17
5.43
18.44
27.24
32.37
35.26
37.49
40.06
42.87
44.85
44.75
42.0
37.23
32.08
28.37
27.07
27.86
29.22
29.51
27.88
24.64
21.01
18.19
16.46
14.95
12.18
6.79
-1.71
-12.7
-25.16
-38.11
-51.19
-64.52
-78.23
-91.91
-104.49
-114.57
-120.87
-122.76
-120.3
-114.03
-104.63
-92.6
-78.21
-61.74
-43.93
-26.19
-10.51
1.12
7.58
9.13
7.47
4.94
3.41
3.81
5.98
9.44
14.02
20.17
28.53
39.25
51.48
63.58
73.71
80.55
83.72
83.51
80.48
75.0
67.06
56.38
42.85
27.03
10.4
-5.11
-17.7
-26.7
-32.98
-38.38
-44.89
-53.27
-62.69
-71.29
-77.22
-79.73
-79.42
-77.65
-75.53
-73.26
-70.42
-66.44
-61.34
-55.79
-50.67
-46.47
-42.88
-39.14
-34.2
-27.33
-18.35
-7.49
4.77
18.07
32.04
46.17
59.54
70.8
78.64
82.24
81.59
77.51
70.92
62.31
51.44
37.72
20.99
2.12
-17.02
-34.41
-48.66
-59.57
-67.81
-74.09
-78.56
-80.74
-80.07
-76.67
-71.41
-65.76
-61.13
-58.25
-56.86
-55.95
-54.13
-50.22
-43.78
-35.23
-25.83
-17.02
-9.77
-4.06
1.06
6.79
13.94
22.32
31.04
38.95
45.41
50.56
55.19
60.26
66.38
73.37
80.26
85.45
87.35
84.67
76.87
64.07
46.93
26.48
3.96
-19.04
-40.64
-59.08
-73.01
-81.97
-86.26
-86.56
-83.1
-75.11
-61.0
-39.17
-9.46
26.04
62.8
94.92
117.21
126.66
123.64
111.55
95.37
79.59
66.76
57.21
49.89
43.93
39.47
37.73
39.92
46.03
54.26
61.43
64.29
60.83
51.04
36.62
19.8
2.28
-15.41
-33.66
-52.87
-72.59
-91.17
-106.36
-116.31
-120.48
-120.08
-117.45
-114.8
-113.1
-111.64
-108.49
-101.58
-89.88
-74.07
-56.38
-39.93
-27.35
-20.18
-18.24
-19.98
-23.12
-25.64
-26.78
-27.01
-27.74
-30.29
-34.92
-40.51
-45.09
-46.76
-44.64
-39.14
-31.2
-21.55
-10.29
2.87
17.82
33.38
47.71
59.03
66.76
71.83
75.88
79.87
83.09
83.6
79.49
70.58
59.22
49.34
44.64
46.71
54.68
66.06
77.96
87.93
94.05
94.59
88.06
73.94
53.29
28.97
4.53
-17.39
-36.16
-53.03
-69.86
-87.64
-105.52
-121.29
-132.58
-137.87
-136.99
-130.57
-119.5
-104.43
-85.97
-64.6
-41.22
-17.26
5.59
25.74
42.23
54.94
64.31
70.89
74.7
75.11
71.16
62.45
49.84
35.4
21.76
11.13
4.59
1.97
2.21
3.76
4.79
3.33
-2.43
-13.47
-29.09
-46.68
-62.54
-73.23
-77.21
-75.36
-70.33
-64.82
-60.1
-55.36
-48.32
-36.84
-20.2
0.15
20.96
38.4
49.39
52.83
49.83
43.55
38.18
37.73
44.77
59.66
80.41
103.0
122.8
135.73
139.33
133.52
120.15
102.3
83.05
64.57
47.72
32.26
17.61
3.31
-10.59
-23.46
-34.24
-41.44
-43.23
-37.74
-23.73
-2.09
23.36
46.2
59.42
58.39
43.07
18.29
-8.26
-29.49
-41.82
-45.98
-45.31
-43.14
-40.53
-36.3
-28.58
-16.64
-1.96
12.94
25.97
36.97
47.38
58.83
71.69
84.25
93.41
96.25
91.49
79.91
63.54
44.48
24.13
3.14
-17.91
-38.11
-56.09
-70.52
-80.54
-86.03
-87.41
-85.31
-80.41
-73.26
-64.57
-55.07
-45.4
-36.0
-26.93
-18.19
-9.86
-2.39
3.55
7.27
8.48
7.44
4.98
2.24
0.19
-0.66
-0.32
1.03
3.49
7.6
14.08
23.42
35.53
49.84
65.61
82.35
99.46
115.73
128.79
135.37
132.35
118.41
94.85
65.63
35.86
10.06
-9.35
-22.27
-30.2
-35.12
-38.3
-40.18
-40.47
-38.86
-35.48
-30.82
-25.55
-19.99
-14.24
-8.24
-2.24
3.11
6.83
8.23
7.21
4.35
0.59
-3.15
-6.21
-7.99
-8.01
-5.88
-1.64
4.01
9.95
15.19
19.32
22.71
25.89
28.82
30.57
29.63
24.79
15.78
3.7
-9.63
-22.31
-33.01
-41.13
-46.55
-49.53
-50.3
-49.16
-46.27
-41.99
-36.81
-31.36
-26.46
-22.68
-20.13
-18.3
-16.3
-13.4
-9.48
-5.25
-1.55
1.07
2.85
4.65
7.2
10.6
13.96
15.85
15.15
11.77
6.78
2.17
0.01
1.72
7.81
17.52
29.22
40.79
50.08
55.51
56.63
53.95
48.65
41.95
34.29
25.23
13.74
-0.75
-17.61
-34.71
-49.08
-58.5
-62.4
-62.38
-61.15
-60.87
-62.14
-63.85
-64.22
-62.13
-57.8
-52.16
-45.93
-38.78
-29.41
-16.97
-1.75
14.08
27.42
35.6
37.71
34.94
30.03
26.09
25.24
28.19
34.32
42.32
50.85
58.92
65.93
71.44
75.03
76.41
75.69
73.62
71.19
69.13
67.22
64.12
57.91
47.31
32.47
15.15
-1.99
-16.65
-27.71
-35.51
-40.94
-44.88
-47.57
-48.82
-48.25
-45.73
-41.38
-35.21
-27.13
-16.78
-3.92
11.3
27.98
44.5
59.15
70.82
79.52
86.17
91.94
97.59
102.99
107.36
109.88
110.25
108.76
106.14
102.75
98.25
91.73
82.24
69.35
53.34
34.98
15.12
-5.52
-26.15
-45.65
-62.29
-74.01
-78.92
-76.19
-66.56
-52.59
-37.99
-26.55
-20.91
-21.95
-28.75
-39.29
-51.37
-63.16
-73.4
-81.33
-86.34
-88.07
-86.52
-82.31
-76.56
-70.82
-66.69
-65.36
-67.33
-71.97
-77.56
-81.63
-81.87
-77.1
-67.85
-56.36
-45.23
-36.54
-30.75
-27.05
-24.2
-21.44
-18.98
-17.54
-17.62
-19.01
-20.81
-22.06
-22.32
-21.94
-21.69
-22.07
-22.87
-23.06
-21.27
-16.67
-9.36
-0.6
7.82
14.27
18.02
19.41
19.56
19.85
21.24
24.13
28.41
33.51
39.05
44.73
50.59
56.92
64.08
72.22
80.98
89.54
96.59
100.87
101.64
98.78
92.9
84.91
75.7
65.88
55.75
45.29
34.38
22.98
11.24
-0.51
-11.8
-22.29
-31.8
-40.52
-48.58
-55.87
-61.92
-65.99
-67.42
-65.88
-61.42
-54.47
-45.71
-36.09
-26.64
-18.43
-12.22
-8.18
-5.83
-4.35
-3.02
-1.4
0.46
2.47
4.62
7.17
10.46
14.61
19.44
24.35
28.71
31.85
33.3
32.71
29.97
25.05
18.0
8.71
-2.9
-16.79
-32.38
-48.33
-62.83
-74.0
-80.64
-82.57
-80.66
-76.45
-71.38
-66.5
-61.94
-57.25
-51.71
-44.78
-36.69
-28.32
-21.09
-16.23
-14.46
-15.55
-18.53
-22.34
-25.98
-29.03
-31.21
-32.27
-31.88
-29.74
-25.75
-20.01
-12.76
-4.44
4.3
12.4
18.48
21.18
19.98
15.56
9.69
4.66
2.14
2.46
4.54
6.63
7.22
5.7
2.44
-1.78
-6.25
-10.66
-15.14
-19.78
-24.25
-27.8
-29.49
-28.7
-25.62
-21.13
-16.4
-12.27
-8.96
-6.2
-3.78
-1.99
-1.6
-3.38
-7.34
-12.64
-17.84
-21.64
-23.44
-23.48
-22.43
-20.76
-18.63
-15.88
-12.32
-7.84
-2.54
3.42
9.89
16.77
24.03
31.55
39.13
46.33
52.46
56.52
57.6
55.3
50.02
42.95
35.66
29.4
24.67
21.3
18.85
16.93
15.44
14.49
14.02
13.61
12.49
9.68
4.38
-3.66
-13.88
-25.03
-35.55
-44.04
-49.67
-52.19
-51.67
-48.17
-41.75
-32.6
-21.42
-9.7
0.77
8.19
11.71
11.69
9.58
7.29
6.57
8.5
13.28
20.37
28.67
36.92
43.99
49.18
52.49
54.52
56.26
58.7
62.43
67.3
72.47
76.5
77.98
76.01
70.64
62.76
53.74
45.04
37.6
31.92
28.08
25.84
24.84
24.38
23.66
21.87
18.7
14.5
10.53
8.55
10.08
15.81
24.86
34.82
42.31
44.11
38.38
25.42
7.62
-11.24
-27.37
-38.08
-42.59
-41.98
-38.54
-35.01
-33.65
-35.81
-41.72
-50.62
-61.24
-72.19
-82.43
-91.24
-98.17
-102.7
-104.28
-102.64
-97.96
-91.26
-84.07
-77.74
-73.05
-69.72
-66.59
-62.14
-54.99
-44.43
-30.67
-14.88
1.09
15.15
25.69
32.03
34.8
35.58
36.42
39.16
44.92
53.94
65.53
78.31
90.44
99.94
105.13
105.18
100.17
91.02
79.08
65.5
51.17
36.83
23.23
11.25
1.61
-5.43
-10.02
-12.6
-13.34
-12.0
-8.11
-1.52
7.08
16.09
23.35
26.79
25.22
18.54
7.96
-4.48
-16.4
-25.77
-31.64
-34.28
-35.01
-35.3
-36.11
-37.36
-38.12
-37.25
-34.08
-28.89
-22.77
-17.16
-13.5
-12.64
-14.72
-19.17
-24.92
-30.72
-35.49
-38.63
-39.95
-39.68
-38.2
-35.83
-33.04
-30.4
-28.55
-28.0
-28.66
-29.8
-30.23
-28.8
-24.81
-18.24
-9.57
0.41
10.73
20.12
27.1
30.26
28.72
22.57
13.03
2.15
-8.0
-16.13
-22.08
-26.7
-31.22
-36.4
-42.07
-47.01
-49.3
-47.3
-40.12
-28.4
-14.01
0.35
11.96
19.03
20.97
18.64
13.92
9.23
6.51
6.4
7.89
8.93
7.29
1.76
-7.18
-17.65
-27.29
-34.28
-37.75
-37.67
-34.3
-28.07
-19.6
-9.97
-0.64
6.97
12.06
14.77
15.83
15.71
14.38
11.14
5.46
-2.51
-11.84
-21.08
-28.96
-35.02
-39.39
-42.29
-43.34
-41.28
-34.71
-22.88
-6.79
10.77
26.23
36.69
41.3
41.51
40.2
40.1
42.77
48.51
56.97
67.97
81.67
97.87
115.23
131.35
143.52
150.1
151.35
149.05
145.2
140.83
135.55
128.29
118.56
107.08
95.81
86.83
81.29
78.98
78.77
79.52
80.88
83.41
88.17
95.84
106.1
117.34
127.34
133.94
135.81
132.82
125.69
115.47
102.81
87.81
70.01
48.93
24.32
-3.63
-34.42
-67.46
-102.05
-137.05
-170.77
-200.85
-224.84
-240.93
-248.65
-248.97
-243.86
-235.48
-225.37
-214.27
-202.21
-189.1
-175.21
-161.34
-148.28
-136.29
-124.82
-112.64
-98.43
-81.76
-63.32
-44.83
-28.42
-15.72
-7.35
-2.81
-1.23
-1.66
-3.7
-7.25
-12.33
-18.62
-25.14
-30.54
-33.45
-33.13
-29.93
-25.33
-21.5
-20.44
-23.31
-29.89
-38.85
-48.34
-56.69
-63.22
-68.16
-72.28
-76.42
-81.01
-85.76
-90.01
-92.66
-92.54
-88.55
-80.0
-66.54
-48.26
-25.94
-1.13
23.74
45.93
63.02
74.0
79.53
81.73
83.21
85.77
89.77
94.28
97.91
99.5
98.55
95.14
89.49
82.03
73.4
64.9
58.18
54.66
54.74
57.45
60.76
62.46
60.86
55.15
45.47
32.6
17.85
2.93
-10.17
-19.8
-25.17
-26.64
-25.58
-23.58
-21.96
-21.18
-20.93
-20.61
-19.84
-18.69
-17.52
-16.63
-15.97
-15.11
-13.47
-10.59
-6.73
-2.75
-0.07
0.05
-2.9
-8.36
-14.87
-20.6
-23.97
-24.13
-20.82
-14.19
-4.91
5.75
15.96
23.63
27.06
25.75
20.65
13.73
7.16
2.34
-0.31
-1.16
-0.84
0.03
0.8
0.62
-1.65
-7.14
-16.2
-27.75
-39.4
-48.25
-52.12
-50.49
-44.42
-35.97
-26.97
-18.4
-10.37
-2.76
4.35
10.26
14.23
15.75
15.09
13.14
10.86
8.99
7.65
6.55
5.09
2.42
-2.43
-9.93
-19.89
-31.03
-41.48
-49.47
-54.08
-55.32
-53.9
-50.4
-45.08
-38.11
-29.9
-21.45
-14.21
-9.51
-7.83
-8.6
-10.45
-11.93
-12.15
-11.2
-10.04
-10.19
-12.93
-18.62
-26.38
-34.25
-39.97
-41.9
-39.66
-34.09
-26.72
-18.73
-10.68
-2.64
5.34
12.59
17.72
19.19
16.15
9.23
0.67
-6.22
-8.32
-3.62
8.1
25.75
47.61
71.75
95.67
115.78
127.48
126.42
110.73
82.67
48.67
17.19
-4.82
-14.59
-14.02
-7.97
-1.27
3.39
5.7
6.46
6.02
3.6
-2.06
-11.4
-23.36
-35.73
-45.72
-51.27
-51.58
-47.24
-40.11
-32.43
-26.09
-21.74
-18.49
-14.03
-5.94
6.89
23.47
40.96
56.3
67.82
76.03
83.06
91.05
100.69
110.86
119.46
124.81
126.37
124.86
121.35
116.6
110.67
103.05
93.3
81.37
67.82
53.67
39.97
27.23
15.23
2.96
-10.77
-26.33
-42.71
-57.8
-69.06
-74.87
-75.15
-71.15
-64.88
-57.93
-51.1
-44.47
-37.63
-29.96
-20.9
-10.1
2.18
15.02
26.88
36.29
42.44
45.59
46.83
47.43
48.16
49.07
49.64
49.5
48.78
47.9
47.29
46.65
44.75
40.0
31.31
18.92
4.67
-8.6
-18.3
-23.25
-24.42
-24.37
-26.0
-31.15
-39.84
-50.36
-60.33
-67.68
-71.13
-70.15
-64.5
-54.23
-39.97
-23.29
-6.71
7.03
15.84
19.27
18.46
15.43
12.15
9.56
7.55
5.55
3.3
1.21
0.12
0.67
2.83
5.9
8.79
10.72
11.63
12.26
13.75
17.0
21.93
27.33
31.19
31.36
26.37
16.14
1.89
-14.03
-28.92
-40.49
-47.29
-49.02
-46.25
-40.18
-32.16
-23.65
-15.69
-8.72
-2.43
3.96
11.23
19.56
28.18
35.62
40.24
41.18
38.71
34.11
28.97
24.46
21.0
18.54
16.88
15.75
14.77
13.07
9.43
2.79
-7.16
-19.68
-33.34
-46.44
-57.65
-66.08
-71.2
-72.78
-71.0
-66.64
-60.98
-55.42
-50.67
-46.63
-42.62
-38.23
-34.02
-31.27
-31.32
-34.44
-39.6
-44.97
-48.87
-50.64
-50.65
-49.75
-48.59
-47.33
-45.74
-43.67
-41.25
-38.65
-35.83
-32.4
-27.89
-22.1
-15.28
-7.97
-0.74
6.18
12.69
18.76
24.19
28.81
32.74
36.51
40.98
47.01
55.12
65.14
76.19
86.91
95.66
100.95
101.83
97.99
89.92
78.59
65.2
50.83
36.3
22.12
8.65
-3.94
-15.56
-26.06
-35.26
-42.88
-48.65
-52.59
-55.1
-56.87
-58.57
-60.48
-62.37
-63.67
-63.98
-63.36
-62.34
-61.68
-62.0
-63.46
-65.75
-68.08
-69.26
-68.06
-63.53
-55.39
-44.4
-31.95
-19.54
-8.12
2.38
12.66
23.46
34.77
45.62
54.59
60.48
63.1
63.42
62.95
63.0
64.0
65.53
66.73
67.03
66.55
66.0
66.2
67.46
69.27
70.62
70.7
69.36
67.12
64.55
61.55
57.22
50.37
40.33
27.82
14.92
4.15
-2.57
-4.81
-3.69
-1.2
0.84
1.44
0.49
-1.6
-4.48
-8.02
-12.26
-17.18
-22.3
-26.83
-29.74
-30.2
-27.97
-23.55
-17.85
-11.79
-5.93
-0.22
5.56
11.48
17.08
21.41
23.27
21.8
16.67
7.99
-3.58
-17.25
-31.86
-45.98
-58.09
-66.97
-71.98
-73.04
-70.45
-64.37
-54.84
-42.11
-27.03
-11.41
2.53
12.83
18.59
20.27
19.2
17.01
14.91
13.58
13.05
13.23
14.0
15.2
16.75
18.52
20.25
21.7
22.7
23.11
23.01
22.53
21.73
20.29
17.59
12.77
5.26
-4.87
-16.88
-29.53
-41.48
-51.63
-59.12
-63.27
-63.73
-60.61
-54.78
-47.77
-41.4
-37.21
-35.9
-37.1
-39.85
-42.72
-44.23
-43.05
-38.05
-28.82
-15.98
-1.32
12.44
22.53
27.09
25.99
20.81
14.28
9.18
7.25
8.68
12.2
15.65
17.03
15.18
10.06
2.65
-5.21
-11.42
-13.8
-10.51
-0.58
15.59
35.83
56.62
73.99
84.81
87.74
83.36
73.71
61.13
47.39
33.3
19.13
5.02
-8.81
-21.8
-33.39
-42.94
-50.17
-55.2
-58.63
-61.3
-63.85
-66.32
-68.0
-67.91
-65.4
-60.62
-54.63
-48.91
-44.7
-42.55
-42.14
-42.51
-42.29
-40.18
-35.27
-27.12
-16.06
-3.07
10.47
23.4
35.41
46.81
58.48
71.02
84.53
98.43
111.56
122.43
129.23
130.43
125.19
114.13
99.24
83.49
69.61
58.97
51.23
44.81
38.08
30.49
23.01
17.5
15.55
17.44
21.87
26.43
28.76
27.61
22.99
16.12
8.59
1.73
-3.76
-7.78
-10.4
-11.61
-11.26
-9.33
-6.1
-2.14
1.98
5.74
8.89
11.36
13.25
14.88
16.78
19.58
23.63
28.57
33.28
36.24
36.28
33.04
26.99
19.2
10.72
2.23
-6.08
-14.26
-22.49
-31.0
-39.97
-49.5
-59.35
-68.73
-76.53
-81.52
-82.74
-79.62
-72.04
-60.23
-44.95
-27.81
-11.17
2.11
9.76
10.81
6.02
-2.54
-12.18
-20.26
-24.91
-25.1
-20.84
-13.29
-4.42
3.51
8.68
10.49
9.47
6.96
4.22
1.76
-0.56
-3.11
-6.13
-9.7
-14.04
-19.64
-27.0
-35.86
-44.76
-51.02
-51.87
-45.67
-32.86
-16.11
0.65
13.56
20.37
20.82
16.5
10.1
4.19
0.65
0.48
3.76
9.82
17.22
23.85
27.22
25.3
17.33
4.45
-10.58
-24.51
-34.55
-39.51
-39.69
-36.42
-31.18
-25.12
-19.08
-13.48
-8.53
-4.02
0.34
4.71
8.81
11.78
12.53
10.47
5.86
0.06
-5.01
-7.61
-6.85
-3.06
2.42
7.55
10.39
9.66
4.9
-3.32
-13.88
-25.41
-36.66
-46.63
-54.62
-60.09
-62.77
-62.97
-61.52
-59.77
-58.99
-59.83
-62.01
-64.34
-65.24
-63.29
-57.87
-49.02
-37.65
-24.93
-12.04
0.58
13.49
28.29
46.95
70.5
98.13
126.56
151.12
167.3
172.59
167.27
154.19
137.26
120.29
106.05
96.01
90.67
89.69
91.86
95.07
96.42
93.11
83.11
66.28
44.38
20.75
-0.89
-17.67
-28.18
-32.84
-33.12
-30.81
-27.4
-24.16
-22.49
-24.15
-30.95
-43.44
-60.29
-77.91
-91.58
-97.13
-92.61
-78.99
-59.87
-39.66
-22.11
-8.98
0.05
6.69
12.88
19.58
26.74
33.63
39.64
44.81
49.81
55.15
60.28
63.58
62.88
56.89
46.02
32.28
18.28
5.81
-4.87
-14.91
-25.91
-38.88
-53.61
-68.6
-81.59
-90.19
-92.6
-88.25
-78.0
-63.77
-47.99
-32.79
-19.53
-8.5
0.84
9.38
18.24
28.36
40.39
53.71
66.05
73.61
72.29
59.76
36.81
7.71
-21.4
-44.67
-58.8
-63.56
-61.05
-54.29
-45.73
-36.74
-27.85
-19.72
-13.53
-10.98
-13.5
-21.24
-32.6
-44.76
-54.64
-60.38
-62.07
-61.18
-59.45
-57.64
-55.01
-50.0
-41.35
-29.15
-15.05
-1.61
8.86
15.03
16.94
15.58
12.57
9.61
7.89
7.9
9.32
11.51
13.96
16.79
20.49
25.27
30.62
35.31
38.0
37.96
35.51
31.64
27.49
23.38
18.67
12.15
2.92
-8.64
-20.57
-29.61
-32.0
-24.72
-6.61
20.87
53.55
85.46
110.34
123.32
122.22
107.93
83.65
53.61
21.94
-8.25
-35.16
-57.93
-76.12
-89.46
-97.8
-101.46
-101.33
-98.8
-95.27
-91.7
-88.28
-84.8
-81.09
-77.57
-75.22
-74.97
-77.2
-81.15
-85.05
-86.74
-84.46
-77.58
-66.82
-54.07
-41.92
-32.79
-28.24
-28.5
-32.45
-38.33
-44.33
-49.21
-52.27
-53.14
-51.41
-46.57
-38.41
-27.18
-13.63
1.47
17.64
34.61
52.01
68.74
83.07
92.95
96.87
94.3
85.74
72.54
56.64
40.4
26.49
17.27
14.26
17.54
25.66
36.14
46.59
55.36
61.93
66.69
70.27
73.13
75.37
76.91
77.46
76.99
75.55
73.45
71.36
69.82
69.14
69.36
70.51
72.86
76.74
81.92
86.89
89.0
85.34
74.18
56.19
34.47
13.54
-2.4
-10.85
-11.42
-5.41
4.89
16.92
28.21
36.73
41.35
42.4
41.55
41.11
42.87
46.95
52.06
56.08
57.28
55.32
51.08
46.11
41.78
38.61
36.42
34.77
33.55
33.04
33.61
35.18
36.66
36.38
32.41
23.75
10.84
-4.47
-19.47
-31.53
-38.67
-40.07
-35.94
-27.53
-16.8
-6.01
2.71
8.07
9.97
9.49
8.23
7.57
8.03
9.23
10.39
10.85
10.37
9.1
7.5
5.94
4.93
4.89
6.09
8.51
11.5
14.14
15.23
13.97
10.17
4.37
-2.29
-8.43
-12.79
-14.66
-13.97
-11.29
-7.49
-3.21
1.47
6.85
13.0
19.46
25.0
28.32
28.84
27.1
24.51
22.4
21.27
20.37
18.53
14.96
10.05
5.28
2.43
2.58
5.48
9.69
13.26
14.41
11.97
5.5
-4.81
-18.03
-32.42
-45.4
-54.15
-56.48
-51.76
-41.34
-28.11
-15.38
-5.7
0.01
2.37
2.69
1.97
0.42
-2.47
-7.2
-13.68
-21.27
-29.12
-36.8
-44.39
-52.26
-60.34
-67.87
-73.71
-77.0
-77.99
-78.19
-79.72
-84.37
-92.7
-103.68
-115.08
-124.2
-128.64
-126.89
-118.73
-105.18
-88.44
-71.15
-55.76
-43.68
-34.77
-27.79
-20.99
-13.26
-4.81
2.97
8.41
10.76
10.93
10.93
12.7
16.34
19.24
16.48
2.57
-25.6
-66.65
-113.87
-156.79
-184.83
-191.45
-177.08
-148.93
-118.06
-94.25
-81.64
-77.28
-72.89
-59.15
-29.8
15.79
73.33
135.74
195.7
247.36
286.78
311.86
322.09
318.66
304.01
281.54
254.37
224.73
193.61
161.1
127.34
93.15
60.41
31.35
7.84
-9.3
-20.28
-25.92
-27.14
-24.84
-20.57
-17.19
-19.07
-31.34
-58.12
-100.12
-153.02
-207.51
-251.41
-273.62
-268.16
-236.62
-187.79
-134.12
-86.96
-52.24
-29.12
-11.69
6.99
31.19
60.98
93.39
124.9
153.71
180.0
204.51
226.65
243.39
249.73
240.06
210.67
161.49
97.28
27.15
-37.39
-85.48
-110.18
-110.55
-91.96
-63.9
-36.63
-17.71
-10.07
-12.17
-19.92
-29.13
-37.19
-43.68
-49.38
-55.11
-60.82
-65.48
-67.66
-66.67
-63.63
-61.08
-61.83
-67.23
-76.13
-85.11
-90.08
-88.45
-80.21
-67.79
-54.7
-43.6
-35.33
-28.98
-22.94
-16.13
-8.81
-2.38
1.47
1.73
-1.3
-6.36
-11.7
-15.89
-18.24
-19.07
-19.38
-20.11
-21.98
-25.06
-28.9
-32.97
-36.89
-40.63
-44.2
-47.28
-49.03
-48.18
-43.66
-35.25
-23.93
-11.71
-0.94
6.84
11.42
13.66
14.7
15.02
14.06
10.84
5.03
-2.45
-9.32
-13.24
-12.98
-9.07
-3.64
0.55
1.28
-2.28
-9.71
-19.69
-30.59
-40.97
-49.47
-54.91
-56.13
-52.26
-43.0
-29.03
-11.92
5.95
21.88
33.52
39.58
40.08
36.44
30.86
25.66
22.58
22.41
24.77
28.22
30.79
30.72
27.05
20.19
11.47
2.46
-5.94
-13.72
-21.38
-29.07
-35.95
-40.47
-40.88
-36.55
-28.02
-16.91
-4.98
6.45
16.41
24.11
28.64
29.48
26.89
22.42
18.31
16.48
17.64
20.92
24.51
26.62
26.39
24.05
20.57
16.89
13.07
8.36
1.55
-7.99
-19.71
-31.73
-41.67
-47.56
-48.67
-45.65
-39.7
-32.13
-23.64
-14.69
-5.89
1.81
7.45
10.75
12.53
14.51
18.18
23.79
30.12
34.99
36.56
33.97
27.72
18.92
8.73
-2.12
-13.28
-24.32
-34.48
-42.7
-47.85
-49.22
-46.59
-40.43
-31.66
-21.46
-11.13
-2.03
4.81
9.03
10.95
11.66
12.45
14.24
16.99
19.74
21.11
20.08
16.77
12.3
8.06
4.78
1.97
-1.9
-8.31
-17.79
-29.45
-41.31
-50.92
-56.14
-55.63
-49.08
-37.15
-21.6
-4.92
10.06
21.07
27.49
30.45
32.19
34.77
38.86
43.27
45.82
44.84
40.17
33.46
27.16
23.17
21.95
22.27
21.88
18.6
11.53
1.63
-8.66
-15.95
-17.26
-10.74
3.83
25.05
50.02
74.52
93.52
102.16
97.3
79.01
51.16
20.4
-6.15
-23.74
-31.43
-31.78
-28.74
-25.47
-23.31
-22.13
-21.78
-22.98
-27.1
-35.08
-46.37
-58.85
-69.54
-75.63
-75.77
-70.25
-61.07
-50.99
-42.64
-37.55
-35.32
-33.8
-30.17
-22.55
-11.08
1.9
13.02
19.79
21.64
20.1
17.54
15.67
14.39
12.13
6.98
-1.96
-13.64
-25.37
-33.97
-37.43
-35.87
-31.24
-26.14
-22.6
-20.93
-19.79
-17.57
-13.34
-7.46
-1.06
4.96
10.56
16.31
22.66
29.16
34.47
37.23
37.01
34.49
30.96
27.13
22.54
15.89
6.02
-7.43
-23.33
-39.45
-53.28
-62.81
-66.6
-64.28
-56.07
-42.86
-26.04
-7.22
11.84
29.54
44.75
56.89
65.97
72.34
76.48
78.31
77.24
72.66
64.86
55.63
47.67
43.13
42.03
41.86
38.69
29.14
12.5
-8.76
-29.99
-46.23
-54.1
-52.47
-42.14
-24.89
-2.56
22.49
46.93
66.17
75.21
70.39
51.22
21.37
-11.94
-40.2
-56.75
-59.41
-50.71
-36.52
-23.01
-14.33
-11.67
-14.13
-20.46
-29.76
-41.4
-53.97
-64.96
-71.56
-71.53
-64.6
-52.42
-37.85
-23.47
-10.77
0.12
9.67
18.36
26.2
32.51
36.57
37.83
36.41
33.11
29.41
26.92
26.68
28.52
30.72
30.95
27.05
18.31
5.57
-8.92
-22.47
-32.58
-37.55
-36.85
-30.83
-20.42
-6.78
9.24
26.8
44.88
61.72
74.93
82.31
82.86
77.49
69.01
60.91
55.52
53.03
51.82
49.58
44.83
37.71
29.66
22.64
18.38
18.02
21.99
29.42
37.95
44.0
44.06
36.29
21.78
4.28
-11.53
-22.27
-27.25
-28.42
-28.66
-30.04
-32.78
-35.6
-37.08
-36.45
-34.23
-31.77
-30.55
-31.5
-34.67
-39.24
-43.63
-46.15
-45.64
-42.01
-36.23
-29.61
-23.32
-17.9
-13.25
-8.85
-4.17
1.2
7.38
13.99
19.84
23.27
22.41
16.22
5.07
-9.37
-24.63
-38.56
-49.81
-58.07
-63.61
-66.64
-66.85
-63.36
-55.13
-41.45
-22.77
-0.88
21.19
40.04
52.86
58.41
57.57
52.67
46.65
41.62
38.33
36.42
35.38
35.32
36.87
40.76
46.36
51.63
53.75
51.06
44.32
36.5
31.12
29.81
31.24
31.79
28.22
19.99
9.97
2.48
0.33
3.03
6.87
7.6
3.2
-4.81
-12.65
-17.0
-16.95
-14.81
-14.18
-17.99
-26.96
-39.64
-53.25
-64.89
-72.7
-75.68
-73.82
-67.83
-58.75
-47.6
-34.67
-19.48
-1.15
20.61
44.6
67.88
86.63
97.59
99.32
92.34
78.68
60.8
40.84
20.49
1.11
-16.04
-29.82
-39.55
-44.86
-45.92
-43.08
-36.97
-28.17
-17.13
-4.04
11.51
30.28
53.56
82.04
114.97
149.05
178.46
196.33
197.03
178.72
144.38
100.93
56.5
17.34
-13.9
-37.85
-56.58
-71.61
-82.93
-89.57
-90.76
-86.76
-78.79
-68.23
-56.11
-42.99
-29.31
-15.62
-2.43
10.03
21.75
32.66
42.2
49.27
52.86
52.67
49.34
43.92
36.95
28.0
15.89
-0.27
-20.02
-40.9
-59.14
-70.9
-73.71
-67.25
-53.02
-33.52
-11.2
11.95
34.53
55.31
72.88
85.85
93.13
94.8
92.12
87.32
82.37
78.22
74.4
69.58
62.59
52.95
40.94
27.27
12.51
-2.66
-17.25
-29.47
-36.99
-37.76
-31.08
-18.13
-1.67
14.98
29.02
38.75
43.68
44.03
40.61
34.41
26.59
18.23
10.14
2.67
-4.38
-11.59
-19.85
-29.56
-40.45
-51.3
-60.06
-64.7
-63.84
-57.57
-47.36
-35.35
-23.33
-12.09
-1.68
7.89
15.87
20.7
20.8
15.51
5.7
-6.63
-19.31
-31.11
-41.97
-52.67
-63.96
-75.67
-86.63
-94.92
-98.69
-96.81
-89.18
-76.74
-61.07
-44.0
-27.19
-12.18
-0.3
7.42
10.45
9.21
4.94
-0.65
-6.03
-10.44
-14.03
-17.47
-21.48
-26.54
-32.85
-40.4
-48.98
-57.97
-66.2
-72.16
-74.18
-70.96
-61.69
-46.07
-24.4
2.39
32.24
62.09
88.27
107.63
118.27
119.95
113.76
101.36
84.68
65.67
46.4
28.57
13.16
-0.22
-12.71
-25.23
-37.46
-47.51
-52.49
-50.01
-39.39
-22.13
-1.53
18.77
35.85
48.35
56.59
62.08
66.9
72.71
80.2
88.72
96.53
101.43
101.28
94.71
81.14
61.05
36.03
8.88
-16.81
-37.46
-50.49
-55.06
-51.95
-43.26
-31.24
-17.84
-4.46
7.85
18.28
26.11
30.89
32.67
31.81
29.07
25.16
20.59
15.42
9.14
0.82
-10.35
-24.37
-40.04
-55.04
-66.87
-73.96
-76.11
-74.2
-69.25
-61.56
-50.66
-36.28
-19.36
-2.46
11.11
18.8
19.97
15.99
9.25
1.62
-6.41
-15.6
-26.77
-39.75
-52.89
-63.68
-69.79
-69.89
-64.01
-52.87
-37.38
-18.22
3.88
27.59
50.72
70.69
85.32
93.65
96.18
94.39
89.62
82.5
72.64
59.44
42.77
23.47
3.17
-16.17
-32.79
-45.6
-53.98
-57.77
-57.1
-52.16
-43.39
-31.31
-16.64
-0.42
15.92
30.64
41.88
47.88
47.46
40.35
27.5
11.2
-5.4
-19.2
-28.41
-33.44
-36.72
-41.42
-49.57
-60.69
-71.82
-78.86
-78.45
-69.48
-53.32
-32.79
-10.87
10.17
28.88
44.25
55.47
62.01
63.82
61.54
56.36
49.74
42.79
36.1
29.49
21.93
12.0
-1.34
-18.05
-36.45
-53.74
-66.78
-73.38
-72.98
-66.58
-56.06
-43.19
-29.35
-15.51
-2.71
7.79
14.67
17.11
15.21
10.1
3.51
-2.86
-7.99
-11.65
-14.46
-17.35
-21.01
-25.53
-30.19
-33.89
-35.45
-34.24
-30.41
-24.66
-18.03
-11.47
-5.9
-2.13
-0.87
-2.48
-6.7
-12.6
-18.64
-23.28
-25.57
-25.76
-25.25
-26.08
-29.84
-36.8
-45.51
-53.02
-55.92
-51.43
-38.25
-16.95
10.18
39.67
67.74
91.12
107.71
116.83
119.1
115.95
108.84
98.77
86.23
71.59
55.48
38.87
22.63
7.17
-7.63
-21.99
-35.34
-46.03
-51.63
-50.07
-40.6
-24.54
-4.79
15.1
31.96
44.09
51.42
55.07
56.58
57.12
56.99
55.54
51.59
44.19
33.04
18.8
2.65
-14.13
-30.38
-45.09
-57.02
-64.71
-66.88
-63.16
-54.46
-42.87
-30.66
-19.59
-10.38
-2.95
2.87
7.06
9.15
8.69
5.72
1.02
-4.14
-8.49
-11.11
-11.61
-10.01
-6.48
-1.12
5.89
14.17
23.18
32.2
40.42
47.2
52.13
55.07
55.87
54.22
49.63
41.71
30.55
17.0
2.45
-11.7
-24.64
-36.37
-47.36
-57.86
-67.29
-74.23
-77.08
-74.72
-67.03
-54.86
-39.48
-22.12
-3.63
15.3
33.8
50.67
64.36
73.32
76.59
74.2
67.04
56.66
44.39
30.86
15.78
-1.56
-21.4
-42.68
-62.96
-79.17
-88.74
-90.61
-85.5
-75.25
-61.99
-47.37
-32.35
-17.45
-3.13
9.96
21.15
29.69
35.27
37.85
37.49
34.32
28.12
18.64
5.97
-9.07
-24.55
-37.69
-45.7
-46.86
-41.07
-30.02
-16.5
-3.44
6.82
13.0
14.83
12.91
8.36
2.55
-3.3
-8.46
-12.67
-16.04
-18.7
-20.63
-21.9
-22.74
-23.29
-23.2
-21.11
-14.82
-2.46
16.32
39.51
63.19
83.26
97.26
105.08
108.69
110.48
111.85
112.59
111.51
107.42
100.01
90.08
79.02
68.18
58.34
49.76
42.7
37.98
37.22
42.5
55.4
75.85
101.84
129.77
155.93
177.84
194.78
207.37
216.4
221.88
222.82
218.21
207.67
191.98
172.89
152.2
131.31
110.96
91.71
74.05
58.62
45.69
34.76
24.58
13.47
0.05
-16.09
-34.1
-52.11
-67.87
-79.57
-86.64
-89.98
-91.68
-93.96
-98.24
-104.46
-111.44
-117.54
-121.97
-125.45
-130.16
-139.3
-156.14
-183.42
-222.66
-273.27
-331.88
-392.12
-445.67
-484.38
-503.03
-501.02
-482.08
-452.18
-416.32
-376.3
-331.0
-278.67
-220.02
-160.05
-107.02
-69.45
-52.27
-54.5
-69.7
-88.52
-101.96
-103.74
-91.63
-67.23
-35.55
-3.65
20.95
32.55
29.33
14.06
-7.22
-27.91
-43.54
-53.28
-58.65
-61.43
-61.86
-58.61
-50.38
-37.64
-23.04
-10.09
-1.3
3.33
5.86
8.91
14.4
22.67
32.88
43.81
54.49
64.28
72.63
78.93
83.07
85.59
87.81
91.52
98.02
107.15
117.09
124.72
126.97
122.21
111.21
96.5
81.22
67.47
55.34
43.9
32.39
21.78
14.84
14.7
22.63
36.84
52.64
64.46
68.55
64.24
53.89
41.37
30.02
21.55
16.16
13.48
13.23
15.12
18.1
20.09
18.63
12.32
2.02
-9.18
-17.42
-20.1
-17.11
-10.93
-4.9
-1.24
-0.44
-1.53
-3.54
-6.63
-12.17
-21.59
-35.31
-51.95
-68.79
-83.02
-92.26
-95.17
-91.5
-81.78
-67.22
-49.57
-31.04
-13.66
1.02
12.28
20.14
25.16
27.89
28.98
28.97
28.44
27.8
27.06
25.91
23.85
20.39
15.5
9.59
3.17
-3.12
-8.84
-13.37
-15.67
-14.52
-8.97
0.92
13.52
25.79
34.26
36.44
31.57
21.23
8.36
-3.82
-12.95
-17.93
-18.47
-14.46
-5.78
6.63
20.19
30.74
34.32
29.77
20.05
11.55
10.9
21.27
40.33
61.45
77.27
83.51
80.58
72.33
63.04
54.75
46.55
36.11
21.81
4.07
-14.64
-30.8
-41.45
-44.9
-41.21
-32.12
-20.33
-8.69
0.63
6.87
10.66
13.11
15.13
16.7
17.0
15.25
11.26
5.71
-0.35
-5.89
-10.43
-13.95
-16.55
-18.52
-20.21
-22.03
-24.35
-26.84
-28.31
-26.9
-21.09
-10.53
3.5
18.51
31.98
41.95
47.55
48.91
46.68
41.67
34.99
28.12
22.71
19.68
18.27
15.93
9.27
-4.0
-23.31
-44.39
-60.89
-66.91
-59.86
-41.55
-17.26
6.74
25.83
38.53
46.01
50.33
53.01
54.31
53.7
50.84
45.9
39.54
32.6
25.76
19.15
12.85
6.93
1.66
-2.36
-4.37
-3.43
1.12
9.24
20.1
32.04
43.0
50.99
54.71
53.79
48.93
41.56
33.66
27.32
24.17
24.95
29.03
34.81
40.13
43.39
44.02
42.72
40.77
39.35
39.11
39.97
41.75
43.9
45.98
47.33
47.1
44.3
38.19
28.59
15.94
1.16
-14.72
-30.49
-44.95
-56.72
-64.39
-66.68
-62.61
-51.66
-33.66
-9.09
20.27
50.97
77.95
96.11
101.96
95.31
79.36
59.22
39.72
23.42
10.05
-2.29
-15.21
-28.79
-41.18
-49.72
-52.38
-48.72
-39.81
-27.62
-14.03
-0.46
12.09
22.89
31.22
36.21
37.06
33.32
24.99
12.72
-2.36
-18.81
-35.13
-49.91
-61.89
-69.77
-72.3
-68.32
-57.24
-39.61
-17.3
6.51
28.2
44.77
54.68
58.1
56.35
51.31
44.75
38.24
33.22
30.92
32.22
37.23
45.27
54.86
64.42
72.37
77.33
78.39
75.04
67.48
56.71
44.37
32.27
21.76
13.4
7.08
2.51
-0.28
-0.89
1.19
6.05
13.05
20.92
28.1
33.3
35.69
34.9
30.9
23.86
14.36
3.27
-7.87
-17.29
-23.21
-24.45
-20.93
-13.51
-3.66
7.24
18.33
29.17
39.02
46.27
48.61
43.81
31.0
11.52
-11.15
-32.66
-49.31
-59.11
-62.1
-59.61
-53.26
-44.28
-33.31
-20.59
-6.35
9.05
24.96
40.35
53.87
63.8
68.41
66.21
56.41
39.2
15.88
-11.18
-38.83
-63.59
-82.29
-92.46
-92.91
-83.96
-67.48
-46.65
-25.5
-7.99
2.94
6.09
2.27
-6.13
-16.23
-25.54
-32.6
-36.92
-38.48
-37.28
-33.14
-26.05
-16.44
-5.7
4.17
11.08
13.58
11.5
6.09
-0.36
-5.58
-8.13
-8.12
-6.75
-5.29
-3.98
-1.55
3.83
13.06
25.0
36.53
43.95
44.89
39.37
29.51
18.01
6.59
-4.54
-16.14
-28.56
-40.91
-51.08
-56.87
-57.27
-53.0
-46.41
-40.29
-36.7
-35.98
-36.91
-37.5
-36.26
-33.36
-30.7
-31.37
-37.96
-51.37
-70.32
-91.54
-111.17
-125.82
-133.52
-133.85
-127.73
-116.83
-103.15
-88.44
-73.91
-60.39
-48.38
-38.18
-29.75
-22.59
-15.69
-8.03
0.87
10.45
19.14
25.02
26.72
24.03
17.93
10.0
1.83
-5.51
-11.52
-16.08
-19.31
-21.51
-23.18
-24.97
-27.42
-30.58
-34.11
-37.27
-39.18
-38.92
-36.16
-31.05
-24.48
-17.86
-12.08
-7.03
-1.17
7.58
20.57
37.15
54.5
68.86
77.2
78.64
74.52
67.37
59.6
52.45
46.07
40.13
34.43
29.07
24.37
20.76
18.65
18.4
20.13
23.42
27.14
29.75
30.19
28.5
25.71
23.36
22.5
23.13
24.35
24.82
23.73
21.04
17.7
15.49
16.47
22.42
33.93
49.83
66.99
81.12
88.18
85.77
74.03
55.34
33.52
12.35
-5.35
-18.02
-25.44
-28.25
-27.4
-23.8
-17.97
-10.06
-0.19
11.27
23.37
34.66
43.47
48.36
48.39
43.35
33.81
21.08
6.99
-6.32
-16.72
-22.3
-21.71
-14.38
-0.87
17.07
36.53
54.13
66.96
73.34
73.24
67.78
58.51
46.71
33.44
19.64
6.69
-3.97
-11.46
-16.06
-19.13
-22.23
-26.02
-29.59
-30.87
-27.69
-18.96
-5.41
10.55
25.75
37.01
42.04
39.83
30.62
15.93
-1.84
-19.95
-35.77
-47.3
-53.55
-54.48
-51.03
-44.64
-36.78
-28.46
-19.96
-10.89
-0.93
9.79
20.25
28.91
34.34
35.76
33.47
28.56
22.57
16.94
12.72
10.58
10.47
11.86
13.87
15.57
16.39
16.34
15.81
15.14
14.36
13.04
10.58
6.58
1.08
-5.27
-11.53
-16.66
-19.92
-20.92
-19.76
-16.78
-12.36
-6.77
-0.05
7.8
16.56
25.5
33.56
39.68
43.24
44.28
43.36
41.27
38.75
36.18
33.72
31.2
28.18
24.13
18.72
12.25
5.76
0.71
-1.67
-1.03
1.87
5.26
7.19
5.94
0.36
-9.99
-24.81
-42.95
-62.22
-79.51
-91.32
-94.7
-88.44
-73.73
-53.75
-32.63
-13.89
0.56
10.58
17.1
21.15
23.18
23.02
20.41
15.53
9.09
1.94
-5.36
-12.79
-20.36
-27.62
-33.08
-34.67
-30.74
-20.9
-6.4
10.17
25.83
38.17
45.8
48.26
45.75
38.67
27.72
13.92
-1.33
-16.35
-29.69
-40.53
-48.94
-55.76
-61.93
-67.88
-72.94
-75.5
-73.64
-66.05
-52.96
-36.29
-19.06
-4.35
5.7
10.47
10.76
8.15
4.38
0.73
-1.99
-3.6
-4.16
-3.83
-2.63
-0.33
3.27
8.11
13.46
17.86
19.56
17.17
10.15
-0.92
-14.56
-28.79
-41.46
-50.63
-54.8
-53.37
-46.98
-37.46
-27.37
-19.12
-14.17
-12.9
-14.97
-19.92
-27.42
-36.97
-47.36
-56.63
-62.5
-63.37
-58.97
-50.37
-39.32
-27.35
-15.54
-4.39
5.61
13.68
18.86
20.53
18.67
13.74
6.22
-4.09
-18.1
-37.06
-61.52
-90.4
-120.66
-147.72
-166.92
-174.98
-171.36
-158.4
-140.56
-122.78
-109.07
-101.72
-101.31
-107.37
-118.84
-134.31
-151.76
-168.59
-181.97
-190.07
-193.01
-192.92
-192.76
-194.25
-196.22
-194.27
-182.37
-155.29
-110.61
-49.71
22.67
99.27
171.29
229.48
265.83
276.07
262.1
233.24
204.12
189.87
199.81
233.41
280.13
323.8
349.26
347.72
318.65
267.72
202.85
131.19
58.09
-11.85
-73.56
-121.4
-150.54
-158.85
-147.83
-121.65
-84.97
-40.49
11.87
73.85
146.42
227.1
309.14
382.6
437.48
467.15
470.52
451.98
419.44
381.04
342.28
305.04
268.08
228.66
184.34
134.38
80.21
25.04
-26.85
-71.43
-106.0
-129.95
-144.71
-152.78
-156.46
-157.14
-155.29
-151.31
-146.12
-141.27
-138.21
-137.27
-137.23
-135.77
-130.66
-120.89
-107.24
-91.72
-76.69
-63.8
-53.25
-44.07
-34.94
-25.09
-14.67
-4.86
2.74
6.83
6.86
3.35
-2.41
-8.6
-13.34
-15.09
-13.17
-8.28
-2.34
1.96
2.36
-2.19
-11.13
-22.76
-35.2
-47.3
-58.72
-69.44
-79.1
-86.94
-92.1
-94.47
-94.88
-94.72
-95.09
-96.09
-96.6
-94.85
-89.17
-78.76
-63.99
-46.14
-27.17
-9.01
6.77
19.41
28.89
35.72
40.64
44.03
46.09
46.96
47.14
47.27
47.63
47.6
45.5
39.09
26.63
7.84
-15.56
-40.54
-63.31
-80.81
-91.39
-95.15
-93.72
-89.54
-85.21
-82.79
-83.23
-85.98
-89.24
-90.47
-87.39
-78.94
-65.49
-48.85
-31.54
-15.98
-3.65
5.22
11.53
16.65
21.49
26.03
29.42
30.52
28.66
24.23
18.28
12.06
6.39
1.24
-3.75
-8.98
-14.37
-19.35
-23.24
-25.7
-26.75
-26.72
-26.12
-25.12
-23.59
-21.13
-17.19
-11.41
-3.76
5.34
15.11
24.49
32.48
38.25
41.34
41.87
40.32
37.51
34.41
31.8
29.95
28.62
27.06
24.59
20.9
16.41
11.99
8.69
7.26
7.89
10.28
13.54
16.78
19.09
20.04
19.65
18.25
16.2
13.71
10.9
7.98
5.42
3.84
3.8
5.48
8.56
12.27
15.81
18.72
21.19
23.77
27.26
32.12
38.19
44.68
50.17
52.99
51.6
45.16
33.91
19.17
2.98
-12.69
-26.46
-37.81
-47.0
-54.58
-61.12
-66.94
-72.09
-76.34
-79.34
-80.69
-80.09
-77.61
-73.68
-69.05
-64.64
-61.25
-59.47
-59.46
-60.77
-62.3
-62.48
-59.81
-53.49
-44.02
-33.1
-23.08
-16.08
-13.1
-13.86
-17.16
-21.59
-26.04
-29.65
-31.73
-31.49
-28.23
-21.81
-12.96
-3.27
5.36
11.31
13.97
14.01
13.05
12.77
14.07
16.55
18.82
19.43
17.66
14.11
10.4
8.26
8.76
11.91
16.71
21.76
25.98
28.89
30.85
32.68
35.21
38.74
42.74
46.06
47.4
46.04
42.42
37.81
33.7
30.97
29.51
28.45
26.85
24.18
20.47
16.14
11.66
7.51
4.38
2.93
3.56
6.09
9.62
13.01
15.43
16.7
17.0
16.37
14.28
9.93
3.07
-5.39
-13.4
-18.76
-20.36
-18.93
-16.44
-14.94
-15.09
-15.7
-14.65
-10.33
-2.7
6.38
13.99
17.57
16.14
10.61
3.17
-4.23
-10.57
-16.18
-22.0
-28.69
-35.88
-42.29
-46.37
-47.28
-45.42
-42.27
-39.76
-39.16
-40.31
-41.81
-41.65
-38.22
-31.07
-21.24
-10.74
-1.73
4.14
6.63
6.7
5.85
5.34
5.45
5.6
4.92
3.03
0.46
-1.58
-1.9
-0.29
2.3
4.15
3.66
0.27
-5.32
-11.57
-17.04
-20.9
-23.25
-24.7
-25.77
-26.63
-27.06
-26.89
-26.36
-26.31
-27.89
-31.93
-38.17
-45.21
-51.12
-54.54
-55.6
-56.04
-58.34
-64.2
-73.43
-83.57
-90.95
-92.42
-86.78
-75.7
-62.69
-51.65
-44.99
-42.84
-43.14
-43.13
-40.94
-36.7
-32.61
-31.63
-35.71
-44.51
-55.28
-63.95
-66.38
-59.19
-40.02
-7.78
36.77
90.04
145.14
193.0
224.95
235.64
224.97
197.75
161.14
121.82
83.89
48.86
17.28
-9.71
-29.57
-39.27
-37.0
-23.64
-2.6
21.28
43.68
62.25
76.97
89.09
99.76
109.03
115.88
119.52
120.08
118.9
117.73
117.63
118.51
119.38
119.19
117.23
112.94
105.22
92.39
73.33
48.64
21.49
-3.11
-20.53
-28.72
-29.23
-26.22
-24.4
-26.48
-32.52
-40.35
-47.11
-50.8
-50.79
-47.35
-40.8
-30.99
-17.85
-2.73
11.09
18.83
16.12
1.26
-23.32
-51.6
-76.37
-92.26
-97.86
-95.73
-90.45
-86.02
-84.32
-84.93
-86.23
-86.45
-84.53
-80.02
-72.9
-63.38
-52.17
-40.16
-28.37
-17.65
-8.33
-0.63
5.19
8.65
9.28
7.17
3.24
-1.07
-4.53
-6.73
-8.41
-10.71
-14.45
-19.52
-24.9
-29.11
-30.95
-29.94
-26.45
-21.25
-15.29
-9.23
-3.61
1.49
5.9
9.22
10.96
10.54
7.84
3.51
-1.1
-4.61
-6.12
-5.93
-5.27
-5.49
-7.36
-10.61
-13.87
-15.47
-14.04
-8.72
0.75
13.92
29.24
43.69
53.01
53.09
41.64
19.49
-9.28
-38.99
-64.34
-82.29
-92.62
-97.01
-97.86
-97.05
-95.37
-92.85
-89.26
-84.48
-78.35
-70.33
-59.37
-44.19
-23.98
0.92
28.66
56.01
79.57
96.9
107.45
112.46
113.91
113.15
110.28
104.23
93.78
78.8
60.23
39.79
19.23
-0.19
-17.42
-30.93
-38.42
-37.26
-25.93
-5.58
19.69
43.86
61.38
69.56
69.44
64.88
60.06
57.21
55.73
53.02
46.51
35.3
20.47
4.19
-11.92
-27.5
-43.17
-59.39
-75.27
-88.53
-96.16
-95.51
-85.62
-67.66
-44.5
-19.63
3.96
24.77
42.75
58.69
73.17
85.71
94.71
98.21
94.84
84.67
69.07
50.15
29.82
9.09
-11.89
-33.31
-54.85
-75.05
-91.25
-100.05
-98.58
-85.87
-63.35
-34.5
-3.54
26.32
53.52
77.91
99.65
117.97
131.04
136.73
134.02
123.76
108.27
90.18
71.01
50.87
29.24
6.43
-15.45
-32.43
-39.88
-34.49
-16.15
10.93
39.16
60.18
68.24
62.74
48.31
32.4
21.7
18.8
21.73
25.76
26.41
21.84
13.06
2.38
-8.76
-20.82
-35.57
-54.44
-77.0
-100.52
-120.93
-133.99
-136.66
-128.05
-109.51
-84.27
-56.51
-30.04
-7.36
10.75
24.81
35.35
42.11
43.94
39.56
28.62
12.39
-6.61
-25.63
-42.7
-57.24
-69.34
-78.87
-84.75
-85.11
-78.06
-62.93
-40.83
-14.52
12.56
37.46
58.43
74.98
87.53
96.85
103.72
108.95
113.46
118.15
123.54
129.5
135.18
139.62
142.12
142.75
142.36
142.16
143.23
146.21
151.29
158.38
167.41
178.22
190.44
203.37
215.74
225.8
231.75
232.25
226.91
216.64
203.17
188.51
174.14
160.26
146.0
129.71
109.59
83.91
51.53
12.3
-32.37
-78.99
-122.62
-157.89
-180.75
-189.79
-186.51
-174.51
-157.95
-140.36
-124.01
-110.24
-99.77
-92.97
-89.65
-88.87
-89.1
-88.75
-86.72
-82.68
-76.85
-69.62
-61.47
-52.89
-44.58
-37.58
-32.83
-30.77
-30.86
-31.73
-31.58
-28.83
-22.65
-13.05
-0.68
13.43
28.13
42.24
54.67
64.7
72.23
77.58
81.62
85.12
88.51
91.57
93.31
92.54
88.51
81.35
71.98
61.42
49.82
36.01
17.7
-7.43
-40.01
-77.52
-114.58
-144.34
-161.1
-162.2
-148.32
-122.99
-91.13
-57.96
-27.44
-2.27
16.42
28.78
35.69
39.16
41.39
43.92
47.03
50.12
52.11
52.3
50.88
48.86
48.5
51.94
59.89
68.68
73.75
71.36
61.01
46.76
29.56
8.83
-17.17
-48.56
-84.08
-120.64
-154.32
-181.84
-201.73
-214.79
-222.4
-225.93
-226.42
-224.76
-221.51
-216.96
-210.97
-203.07
-192.94
-180.11
-164.7
-147.54
-129.89
-112.54
-95.57
-78.7
-61.87
-45.74
-31.17
-18.67
-8.17
0.86
9.13
16.86
23.66
28.84
31.76
32.35
31.07
28.47
24.96
20.97
17.04
14.06
13.06
14.82
19.45
26.21
33.55
39.62
42.75
42.13
37.79
30.55
21.48
11.53
1.26
-9.02
-18.91
-27.78
-34.92
-40.08
-43.85
-47.56
-52.59
-59.56
-67.78
-75.23
-79.5
-78.73
-72.43
-61.67
-48.67
-35.85
-25.03
-16.91
-10.99
-6.13
-1.31
3.98
9.51
14.58
18.51
21.19
22.86
23.86
24.26
23.71
21.91
19.04
16.06
14.52
15.94
21.09
29.63
40.22
51.02
60.16
66.24
68.51
66.87
61.86
54.42
45.71
36.81
28.55
21.23
14.68
8.37
1.65
-5.94
-14.66
-24.29
-34.29
-43.91
-52.27
-58.49
-61.75
-61.45
-57.38
-49.8
-39.6
-27.97
-16.16
-5.14
4.53
12.52
18.61
22.65
24.78
25.52
25.85
26.69
28.48
30.71
32.07
31.06
26.65
18.85
8.86
-1.35
-9.37
-13.01
-10.94
-2.99
9.56
24.38
38.72
50.33
57.97
61.5
61.38
58.16
52.3
44.16
34.38
23.8
13.21
3.15
-6.43
-15.97
-26.2
-37.91
-51.5
-66.85
-82.91
-97.63
-108.36
-112.47
-108.27
-95.32
-74.62
-48.03
-17.81
13.76
44.64
73.18
98.05
118.23
132.96
141.8
144.97
143.61
140.11
137.71
139.62
147.79
162.23
181.13
201.77
221.54
238.37
250.75
257.32
257.03
249.72
236.41
219.3
200.9
183.14
166.84
152.0
138.46
126.06
114.81
104.34
93.82
82.13
68.49
52.91
36.16
19.33
3.36
-11.18
-24.27
-36.31
-47.87
-59.71
-72.27
-85.28
-97.86
-108.66
-116.73
-121.98
-125.21
-127.48
-129.25
-130.11
-129.07
-125.58
-119.97
-113.44
-107.41
-102.71
-99.33
-96.76
-94.42
-92.19
-90.36
-89.44
-89.85
-91.91
-95.67
-100.93
-106.93
-112.26
-115.09
-113.73
-107.22
-95.84
-81.07
-64.95
-49.59
-36.54
-26.59
-19.97
-16.51
-15.87
-17.73
-21.73
-27.39
-33.93
-40.58
-46.64
-51.91
-56.82
-62.4
-69.64
-79.04
-90.18
-101.64
-111.32
-116.88
-116.46
-109.15
-95.42
-76.92
-56.04
-35.11
-15.77
1.25
15.83
27.74
36.34
40.75
40.49
36.19
29.59
23.02
18.37
16.39
16.54
17.44
17.68
16.09
12.22
6.33
-0.59
-7.1
-11.55
-12.59
-9.65
-3.14
5.51
14.33
21.28
24.77
23.94
18.98
11.1
2.26
-5.43
-10.38
-12.05
-11.17
-9.37
-8.5
-10.15
-15.34
-24.37
-36.74
-51.08
-65.23
-76.46
-82.22
-80.68
-71.25
-54.76
-33.1
-8.83
15.24
36.67
53.76
65.84
73.39
77.49
79.45
80.07
79.6
77.71
74.09
68.79
62.22
55.14
48.17
41.68
35.64
29.78
23.71
17.14
10.04
2.71
-4.19
-9.96
-14.05
-16.16
-16.05
-13.6
-8.75
-2.06
5.14
10.75
12.69
9.66
1.91
-8.97
-20.73
-31.47
-40.29
-47.19
-52.69
-57.34
-61.44
-65.2
-68.55
-71.19
-72.37
-71.02
-66.24
-57.77
-46.41
-33.59
-20.78
-8.87
2.01
12.07
21.41
29.75
36.62
41.76
45.41
48.28
51.19
54.67
58.7
62.56
65.11
65.01
61.18
53.14
41.23
26.73
11.58
-1.7
-10.47
-12.62
-7.2
4.96
21.12
37.04
48.29
51.7
46.46
34.19
17.89
0.62
-15.56
-29.65
-41.35
-50.42
-56.65
-60.03
-61.14
-60.91
-60.14
-59.09
-57.26
-53.77
-47.82
-39.1
-27.68
-13.96
1.56
18.2
35.16
51.61
66.89
80.65
92.41
101.45
106.5
106.25
100.01
88.35
73.04
56.44
40.49
25.96
12.51
-0.63
-13.84
-26.66
-37.93
-46.25
-50.55
-50.37
-45.8
-37.6
-27.04
-15.79
-5.71
1.66
5.48
6.2
5.62
6.55
12.14
24.8
45.66
74.01
107.4
142.0
173.28
196.9
209.3
208.58
194.9
170.81
140.88
110.64
85.29
68.15
60.04
59.45
63.48
69.17
74.41
78.26
80.61
81.66
81.25
78.71
72.99
63.2
49.11
31.4
11.53
-8.81
-28.28
-46.39
-63.39
-79.83
-95.78
-110.76
-123.65
-133.22
-138.84
-140.64
-139.55
-136.92
-133.96
-131.47
-129.67
-128.39
-127.2
-125.67
-123.21
-118.94
-111.77
-100.6
-84.97
-65.67
-44.89
-25.6
-10.58
-1.23
2.64
2.24
-0.94
-5.99
-12.43
-19.62
-26.28
-30.44
-30.11
-24.27
-13.36
0.91
16.21
30.31
41.63
49.1
52.07
50.24
43.71
33.17
20.07
6.27
-6.44
-16.66
-24.03
-29.28
-33.82
-39.31
-46.71
-55.84
-65.24
-72.63
-75.8
-73.33
-65.07
-51.98
-35.78
-18.56
-2.29
11.3
20.99
26.03
26.05
21.0
11.24
-2.13
-16.99
-30.13
-38.06
-38.3
-30.48
-16.77
-1.1
12.49
21.31
24.78
24.05
21.04
17.48
14.59
13.2
13.78
16.65
21.59
27.74
33.65
37.66
38.45
35.45
29.06
20.49
11.39
3.32
-2.72
-6.56
-8.65
-9.77
-10.52
-11.35
-12.53
-14.37
-17.21
-21.07
-25.28
-28.45
-28.98
-25.62
-18.1
-7.18
5.79
19.39
32.47
44.11
53.52
59.94
62.99
62.98
60.92
58.32
56.48
55.93
56.24
56.21
54.51
50.18
43.1
33.83
23.38
12.86
3.12
-5.19
-11.6
-15.66
-17.18
-16.44
-14.22
-11.71
-10.05
-9.77
-10.3
-10.14
-7.52
-1.06
9.47
23.12
37.87
50.98
59.57
61.21
54.58
39.92
19.14
-4.59
-27.67
-46.92
-60.2
-66.7
-66.87
-62.28
-55.23
-48.13
-42.67
-39.18
-36.47
-32.33
-24.9
-13.55
0.6
15.17
27.71
36.51
41.21
42.54
41.88
40.55
39.33
38.26
36.62
33.34
27.58
19.11
8.43
-3.45
-15.53
-26.96
-36.84
-44.01
-47.04
-44.73
-37.21
-26.26
-15.05
-7.05
-4.67
-8.28
-16.12
-24.91
-31.27
-32.68
-28.51
-20.11
-10.37
-2.59
0.86
-0.53
-5.28
-10.74
-14.25
-14.32
-10.8
-4.68
2.78
10.46
17.37
22.75
25.81
26.11
23.67
19.05
13.11
6.82
0.96
-4.0
-7.97
-11.42
-15.51
-21.76
-31.52
-44.97
-60.75
-76.23
-88.52
-95.6
-97.01
-93.67
-87.32
-79.56
-71.57
-63.92
-56.88
-50.4
-44.31
-38.38
-32.38
-26.36
-20.67
-15.94
-12.87
-11.85
-13.08
-16.21
-20.41
-24.43
-26.99
-27.27
-25.4
-22.38
-19.42
-17.07
-14.73
-11.0
-4.59
4.64
15.56
26.47
35.97
43.67
49.95
55.15
58.92
60.13
57.41
50.29
39.41
26.44
13.37
1.61
-8.34
-16.88
-24.92
-33.32
-42.4
-51.69
-59.88
-65.12
-65.81
-60.94
-50.56
-35.79
-18.5
-0.93
15.0
27.91
37.36
43.79
48.07
50.96
52.8
53.61
53.26
51.88
49.52
46.22
41.71
35.66
28.04
19.56
11.57
5.59
2.38
1.81
3.12
5.61
9.1
13.72
19.43
25.53
30.93
34.78
36.95
38.01
38.43
38.06
36.49
33.59
30.29
28.54
30.42
36.74
46.53
57.26
65.93
70.19
68.48
59.93
44.15
21.59
-5.8
-34.11
-57.98
-72.25
-73.86
-63.16
-43.7
-20.89
0.05
15.57
24.48
27.62
26.95
24.63
22.6
22.54
25.7
32.29
40.67
47.14
46.6
34.69
10.11
-24.04
-60.99
-92.83
-113.6
-121.35
-117.97
-107.39
-93.37
-78.12
-62.64
-47.59
-34.06
-23.6
-17.44
-15.88
-18.22
-23.18
-29.31
-35.53
-41.05
-45.41
-48.51
-50.47
-51.72
-52.73
-53.64
-54.24
-53.77
-51.18
-45.48
-35.99
-22.72
-6.26
12.2
31.4
50.15
67.6
83.11
96.02
105.63
111.37
113.11
111.22
106.61
100.02
91.72
81.65
69.62
55.87
41.24
26.71
13.05
0.44
-11.3
-22.13
-31.47
-38.17
-41.09
-39.77
-34.64
-27.02
-18.45
-10.18
-2.9
3.28
8.56
13.25
17.74
22.53
28.23
35.45
44.51
55.14
66.31
76.18
82.9
85.04
82.21
75.34
66.38
57.73
51.76
50.28
54.39
64.42
79.78
99.03
120.17
141.09
159.87
174.81
184.3
186.46
179.52
162.34
135.26
100.4
61.18
21.05
-17.31
-52.72
-84.73
-113.06
-137.06
-155.89
-169.15
-177.04
-180.3
-179.46
-174.75
-166.14
-153.91
-139.13
-123.45
-108.54
-95.48
-84.64
-75.99
-69.54
-65.61
-64.47
-65.91
-69.07
-72.5
-74.72
-74.6
-71.67
-66.29
-59.4
-52.46
-47.02
-43.93
-43.06
-43.04
-41.88
-37.75
-29.62
-17.58
-2.61
13.8
30.17
44.9
56.41
63.24
64.33
59.6
50.0
37.55
24.65
13.52
5.58
1.15
-0.52
-1.0
-2.29
-6.11
-13.37
-23.5
-34.48
-43.35
-47.3
-44.55
-35.02
-19.97
-1.39
18.91
39.81
60.82
81.74
102.28
121.74
139.13
153.34
163.4
168.66
168.89
164.45
156.28
145.85
134.59
123.37
111.92
98.7
81.6
58.91
30.55
-1.6
-33.96
-62.23
-82.75
-93.43
-94.34
-87.39
-75.74
-62.93
-51.88
-44.32
-40.37
-38.97
-38.46
-37.46
-35.17
-31.61
-27.25
-22.77
-18.89
-16.32
-15.76
-17.78
-22.65
-30.01
-38.87
-47.8
-54.94
-58.46
-57.01
-50.3
-39.32
-26.31
-13.99
-4.57
0.89
2.53
1.06
-2.92
-9.19
-17.64
-27.69
-38.06
-47.17
-53.87
-57.92
-60.1
-61.5
-63.02
-64.79
-66.26
-66.51
-64.52
-59.59
-51.36
-40.11
-26.69
-12.24
2.12
15.67
28.23
39.67
49.49
56.57
59.51
57.38
50.6
40.99
31.21
23.71
19.65
18.66
19.36
20.16
20.22
19.65
19.29
20.13
22.81
27.53
33.93
41.58
49.85
58.1
65.7
71.89
75.93
77.18
75.35
70.65
63.89
56.09
48.48
42.18
37.97
36.16
36.5
38.18
40.02
40.92
40.09
37.26
32.67
26.73
19.87
12.54
5.42
-0.51
-4.07
-4.43
-1.54
3.7
9.54
14.17
15.98
13.96
7.74
-2.34
-15.13
-28.62
-40.36
-48.04
-50.28
-47.16
-40.08
-31.41
-24.1
-21.17
-25.09
-36.55
-53.64
-71.49
-83.72
-84.96
-73.26
-51.34
-25.49
-2.75
11.85
16.9
14.14
6.71
-2.88
-13.35
-24.39
-35.7
-46.14
-54.22
-58.64
-59.16
-56.92
-54.15
-53.28
-55.66
-60.92
-66.84
-70.45
-69.43
-63.24
-53.46
-43.0
-34.54
-29.33
-26.79
-25.18
-22.89
-19.36
-15.53
-13.12
-13.69
-17.72
-24.31
-31.59
-37.6
-41.02
-41.53
-39.79
-36.91
-33.75
-30.88
-28.3
-25.73
-22.62
-18.27
-11.82
-2.43
10.47
26.89
46.16
67.01
87.74
106.48
121.37
130.71
133.42
129.57
120.6
109.04
97.68
88.44
81.77
76.76
71.93
66.01
58.58
49.81
40.23
30.49
21.38
14.03
9.67
9.3
13.04
19.99
28.64
37.37
44.97
50.62
53.98
54.79
53.28
50.09
46.37
43.58
43.07
45.85
52.34
62.52
75.75
90.61
104.96
116.39
123.18
125.33
125.17
126.78
134.72
152.19
179.77
214.8
252.01
285.0
307.81
316.81
311.33
293.66
267.9
238.4
208.39
179.4
151.61
124.54
98.04
72.39
47.93
24.68
2.02
-21.18
-45.85
-72.52
-101.3
-132.22
-165.37
-200.37
-235.74
-268.17
-292.95
-305.54
-303.87
-289.67
-268.42
-247.53
-233.5
-229.89
-236.89
-252.45
-273.72
-297.79
-321.29
-340.19
-350.18
-348.35
-335.06
-314.32
-292.31
-274.49
-263.06
-256.03
-248.59
-235.94
-215.24
-186.45
-151.21
-111.56
-68.96
-24.64
19.66
61.26
96.94
124.19
141.81
150.43
152.21
149.96
146.55
144.1
143.78
145.66
148.92
152.26
154.29
153.88
150.4
143.74
134.53
124.4
116.31
113.95
120.17
134.75
153.1
167.57
170.47
157.99
132.03
98.97
66.21
38.12
14.74
-6.93
-29.9
-54.61
-78.79
-99.52
-115.52
-128.04
-139.37
-150.56
-160.02
-164.46
-161.41
-151.38
-138.35
-127.85
-124.15
-128.26
-137.76
-148.77
-158.4
-166.01
-172.51
-178.68
-183.49
-183.95
-176.76
-160.19
-135.44
-106.14
-76.62
-50.09
-27.47
-7.75
10.87
29.62
48.72
67.69
86.22
104.54
122.81
140.16
153.88
160.17
155.82
140.21
116.4
90.14
67.6
52.63
45.17
41.85
37.81
29.35
15.33
-2.78
-22.39
-40.96
-57.05
-70.17
-80.15
-86.75
-89.84
-89.73
-87.63
-85.58
-85.74
-89.36
-96.02
-103.83
-110.05
-112.26
-109.12
-100.54
-87.43
-71.03
-52.51
-32.75
-12.45
7.75
27.06
44.4
58.58
68.63
74.15
75.52
73.83
70.54
66.82
63.38
60.17
56.66
52.13
46.07
38.46
30.07
22.47
17.67
17.62
23.22
34.04
48.23
63.09
75.69
83.67
85.74
81.87
73.4
62.43
51.14
40.74
31.22
21.4
9.78
-4.28
-20.07
-35.92
-50.4
-63.09
-74.94
-87.06
-99.36
-109.79
-114.46
-109.2
-90.97
-59.17
-15.76
35.33
88.93
139.89
183.54
216.28
235.72
240.95
232.69
213.5
187.68
160.42
136.48
118.43
105.67
94.58
80.29
58.97
29.47
-6.13
-43.55
-77.92
-105.19
-122.78
-129.72
-126.53
-115.05
-98.38
-80.29
-64.4
-53.16
-47.28
-45.85
-47.08
-49.14
-50.78
-51.65
-52.11
-53.08
-55.57
-60.28
-67.67
-77.84
-90.95
-107.3
-127.14
-150.18
-175.06
-199.08
-218.42
-229.32
-229.03
-216.91
-194.56
-165.38
-133.6
-103.03
-76.41
-55.08
-39.15
-27.84
-19.72
-12.79
-4.4
8.23
27.3
53.05
83.23
113.19
137.42
151.39
153.27
144.42
128.65
110.7
94.77
83.5
78.09
78.51
83.76
92.28
101.95
110.53
116.54
119.71
120.95
121.18
120.04
115.32
103.98
83.97
56.28
25.32
-2.61
-22.03
-30.79
-30.87
-26.89
-23.61
-23.43
-25.9
-28.58
-29.04
-26.28
-20.84
-13.91
-6.32
1.88
10.9
20.67
30.22
37.78
41.55
40.58
35.23
27.07
18.4
11.23
6.82
5.15
5.08
4.66
1.75
-5.19
-16.37
-30.41
-44.82
-56.8
-64.08
-65.64
-61.73
-53.19
-41.24
-26.74
-10.18
8.28
28.38
49.5
70.6
90.14
106.15
116.32
118.41
111.01
94.13
69.86
42.05
15.29
-6.37
-20.97
-28.9
-32.54
-34.77
-37.49
-40.75
-42.89
-41.71
-35.62
-24.7
-10.63
3.94
16.41
24.92
28.77
28.4
24.76
18.98
11.98
4.46
-3.12
-10.15
-15.87
-19.57
-20.94
-20.62
-20.25
-22.03
-27.83
-38.06
-51.2
-64.01
-72.64
-74.09
-67.09
-52.54
-32.69
-10.36
12.03
32.9
51.37
66.95
79.03
86.58
88.32
83.34
71.87
55.74
38.12
22.36
10.75
3.73
-0.13
-3.11
-6.93
-12.03
-17.52
-22.0
-24.42
-24.58
-22.97
-20.19
-16.38
-11.24
-4.17
5.04
15.84
26.57
34.71
37.42
32.58
19.89
1.44
-18.73
-35.91
-46.41
-49.15
-45.83
-40.11
-36.31
-37.7
-45.46
-58.38
-72.94
-84.0
-86.03
-74.86
-49.62
-13.83
25.31
59.48
82.55
93.22
95.04
94.23
96.24
103.34
114.08
124.84
132.32
134.98
133.12
127.76
119.09
106.32
88.16
64.23
35.85
5.91
-22.02
-44.86
-60.55
-68.7
-70.0
-65.92
-58.4
-49.31
-40.06
-31.19
-22.41
-13.06
-3.15
6.13
12.62
14.32
10.68
3.35
-4.48
-9.58
-10.34
-7.5
-3.47
-1.14
-2.35
-7.35
-15.05
-23.49
-30.66
-34.73
-34.62
-29.93
-21.02
-8.99
4.84
19.15
32.75
44.5
53.25
57.9
57.95
53.66
46.13
36.99
27.52
18.46
9.94
1.99
-5.14
-10.95
-15.23
-18.42
-21.73
-26.54
-33.55
-42.2
-50.57
-56.16
-56.99
-52.48
-43.54
-31.92
-19.34
-6.98
4.63
15.05
23.37
28.29
28.59
24.05
15.9
6.65
-0.91
-4.88
-5.03
-2.71
-0.19
0.38
-2.32
-8.24
-16.09
-23.53
-27.79
-26.39
-17.9
-2.63
17.57
39.73
60.98
79.47
94.85
107.89
119.72
131.23
142.52
152.68
159.69
160.58
152.36
133.38
104.66
70.25
36.07
7.61
-12.11
-23.47
-29.23
-32.35
-34.06
-33.48
-28.68
-18.54
-3.99
12.06
26.19
36.06
41.27
43.07
43.36
43.44
43.4
42.2
38.62
32.22
23.72
14.87
7.49
2.53
-0.35
-2.39
-4.68
-7.2
-8.56
-6.57
0.85
14.86
35.51
61.72
91.82
123.59
154.5
181.72
202.43
214.32
216.29
208.66
193.19
172.79
150.51
128.94
109.43
91.78
74.55
55.9
34.85
12.16
-9.73
-28.13
-41.64
-51.33
-60.46
-72.77
-90.42
-112.52
-135.4
-154.21
-165.26
-167.39
-161.9
-151.46
-138.19
-123.05
-106.06
-87.41
-68.51
-52.09
-41.0
-36.66
-38.14
-42.23
-45.1
-44.21
-39.43
-32.97
-27.9
-26.48
-29.16
-34.7
-40.95
-45.86
-48.05
-46.84
-42.06
-33.93
-22.91
-9.48
5.75
22.35
39.73
56.91
72.29
83.94
90.27
90.7
86.19
78.8
70.84
63.94
58.83
55.64
54.33
54.86
56.69
58.58
58.59
54.97
47.36
37.15
27.26
20.77
19.51
23.32
30.49
38.72
46.22
52.28
56.71
59.25
59.07
55.14
47.05
35.66
22.98
11.64
3.85
0.17
-0.51
-0.6
-3.09
-10.37
-23.81
-43.38
-67.73
-94.6
-121.42
-145.77
-166.03
-181.75
-193.48
-202.64
-210.94
-219.86
-230.57
-244.16
-261.61
-283.92
-311.61
-343.9
-378.2
-410.02
-433.63
-443.74
-437.26
-414.27
-378.21
-334.6
-288.95
-245.22
-204.98
-167.92
-133.28
-100.57
-69.82
-40.89
-12.77
16.4
48.35
83.47
120.09
154.75
183.53
203.6
214.1
216.55
214.17
210.88
209.98
213.02
219.16
225.12
226.29
218.24
198.63
168.17
130.44
90.8
54.81
27.06
10.5
5.94
12.37
26.88
45.53
64.34
80.54
92.89
101.45
106.77
108.92
107.73
103.1
95.65
86.71
77.67
68.85
59.41
47.81
33.12
16.06
-0.59
-12.76
-16.52
-9.44
7.95
31.93
56.26
74.05
80.07
72.73
54.8
32.14
11.06
-4.27
-13.38
-18.86
-24.71
-33.93
-47.51
-64.22
-81.78
-98.0
-111.3
-120.92
-126.62
-128.65
-127.63
-124.65
-120.72
-116.71
-112.83
-108.46
-102.54
-93.84
-81.78
-66.31
-48.09
-28.02
-6.95
14.26
34.79
53.32
68.21
77.81
81.2
78.58
71.39
61.89
52.32
44.36
38.86
35.98
35.05
34.72
32.76
26.65
14.44
-4.22
-27.46
-51.75
-73.01
-88.43
-97.21
-100.66
-101.24
-101.17
-101.65
-102.64
-103.27
-102.48
-99.7
-94.9
-88.29
-79.94
-69.5
-56.25
-39.67
-19.79
2.53
25.59
46.85
62.99
70.38
65.99
48.75
20.85
-12.22
-43.02
-64.84
-74.47
-73.23
-65.87
-57.83
-52.55
-50.34
-49.35
-47.62
-44.65
-41.6
-40.15
-40.99
-43.09
-44.27
-42.44
-36.98
-29.28
-22.11
-18.24
-18.77
-22.36
-25.53
-24.14
-15.14
2.09
25.73
52.67
79.9
105.36
128.02
146.99
161.02
168.44
168.06
159.9
145.57
127.67
108.84
90.9
74.78
60.9
49.48
40.59
33.86
28.33
22.75
16.17
8.45
0.5
-6.23
-10.54
-12.07
-11.6
-10.61
-10.79
-13.42
-19.12
-27.71
-38.19
-48.77
-57.22
-61.35
-59.71
-52.14
-39.93
-25.48
-11.56
-0.43
6.72
9.95
10.11
8.38
5.94
3.89
3.47
6.25
13.67
26.54
44.36
65.2
86.31
105.03
119.48
128.8
132.72
131.02
123.62
110.8
93.84
75.31
58.47
46.48
41.31
43.09
50.32
60.34
70.37
78.39
83.91
88.33
94.48
105.49
123.09
146.34
171.34
192.47
204.39
204.02
191.13
167.76
136.78
100.48
60.34
17.62
-25.68
-66.29
-100.24
-124.25
-137.0
-139.67
-135.34
-127.52
-118.65
-109.39
-98.88
-85.82
-69.53
-50.46
-30.01
-9.83
8.95
26.09
41.99
56.88
70.29
80.57
85.2
81.78
68.85
46.92
18.68
-11.38
-37.98
-56.8
-65.94
-66.67
-63.08
-60.57
-63.78
-74.98
-93.5
-116.4
-139.9
-160.83
-177.26
-188.44
-194.28
-194.83
-190.2
-180.94
-168.2
-153.78
-139.92
-128.53
-120.99
-118.23
-120.35
-126.81
-135.88
-144.23
-147.24
-140.46
-121.48
-91.75
-56.69
-23.96
-0.55
10.24
9.72
2.94
-3.9
-5.97
-1.25
9.52
24.32
40.87
57.44
72.99
86.87
98.58
107.66
113.3
114.51
110.4
100.58
85.94
68.6
51.4
36.9
26.29
19.03
13.09
6.1
-3.81
-17.0
-32.26
-47.06
-58.41
-63.78
-61.77
-52.62
-37.77
-19.38
0.64
20.93
40.51
58.5
73.91
86.12
95.4
102.57
108.18
111.24
108.87
97.42
74.9
42.8
6.6
-26.46
-50.49
-63.52
-67.88
-68.09
-68.03
-68.82
-68.85
-65.39
-56.71
-43.23
-27.38
-12.11
0.4
9.48
15.86
20.67
24.55
27.11
27.26
24.01
17.34
8.32
-0.86
-7.87
-11.16
-10.49
-7.18
-3.68
-2.58
-5.72
-13.19
-23.07
-31.99
-36.16
-33.12
-22.58
-6.59
11.31
27.9
41.15
50.86
58.07
63.93
68.9
72.23
72.29
67.47
57.24
42.59
26.12
10.83
-1.1
-9.05
-14.09
-18.04
-22.34
-27.44
-32.65
-36.67
-37.99
-35.35
-27.98
-15.49
1.77
22.69
45.42
67.83
88.09
105.19
118.65
128.41
134.47
136.67
134.98
129.71
121.55
111.59
101.07
91.22
82.73
75.37
67.83
57.99
43.82
24.27
0.18
-26.02
-51.16
-72.17
-86.96
-94.8
-96.1
-92.01
-84.39
-75.22
-66.31
-59.01
-53.92
-51.12
-50.74
-53.06
-58.37
-66.69
-77.17
-88.27
-98.15
-105.38
-109.14
-109.33
-106.24
-100.42
-92.88
-84.91
-77.96
-72.74
-68.81
-64.58
-57.71
-46.34
-29.96
-9.63
12.56
34.26
53.65
69.8
82.22
90.86
95.71
96.83
94.6
89.87
83.79
77.6
72.21
67.74
63.51
58.24
50.67
39.87
25.81
9.19
-8.5
-25.16
-38.32
-45.33
-44.27
-34.64
-18.17
1.47
19.51
31.97
37.0
35.26
29.44
22.55
16.92
13.63
13.09
15.52
20.82
27.91
34.0
35.11
27.31
8.99
-18.14
-49.22
-78.12
-99.79
-111.73
-114.31
-109.51
-99.59
-86.07
-69.68
-51.02
-31.02
-11.32
6.03
19.08
26.67
28.53
25.69
20.09
14.0
9.29
6.66
5.49
4.06
0.58
-5.97
-15.25
-25.81
-35.93
-44.34
-50.83
-55.67
-59.15
-60.78
-59.34
-53.73
-43.95
-31.62
-19.37
-9.69
-3.51
-0.02
2.51
5.55
9.35
12.99
15.17
15.29
13.86
12.26
11.96
13.93
18.37
24.78
32.25
39.55
45.51
49.14
50.46
50.48
51.33
55.65
65.42
81.4
102.75
127.84
155.09
183.69
213.21
242.77
270.14
291.59
302.95
301.34
286.53
261.35
230.54
198.92
169.48
142.71
116.93
89.57
58.1
20.37
-25.26
-79.27
-139.92
-202.26
-258.24
-298.73
-316.25
-307.71
-275.26
-225.19
-165.49
-103.55
-44.67
8.06
53.25
90.53
120.07
142.25
157.29
165.17
165.44
157.79
142.6
121.25
95.54
67.1
36.83
5.04
-27.88
-61.02
-92.65
-120.88
-144.09
-161.34
-172.61
-178.57
-180.25
-178.47
-173.7
-165.82
-154.73
-140.7
-124.76
-108.54
-93.62
-80.78
-69.38
-57.74
-43.65
-25.61
-3.52
21.21
45.82
67.01
81.78
88.4
86.92
79.24
68.39
57.44
48.49
42.21
38.27
35.77
33.86
31.88
29.22
25.35
19.72
12.13
2.66
-8.08
-19.26
-29.93
-39.23
-46.61
-52.13
-56.38
-60.37
-65.09
-70.89
-77.36
-83.52
-88.25
-90.83
-91.07
-89.11
-85.26
-79.9
-73.33
-65.86
-57.8
-49.18
-39.85
-29.8
-19.59
-10.74
-5.87
-7.72
-17.79
-34.8
-54.01
-68.43
-71.28
-59.02
-33.28
-0.5
30.32
51.19
57.98
51.44
36.26
18.87
5.22
-0.52
3.64
17.45
38.75
63.75
87.69
105.66
113.88
110.46
95.52
71.1
40.43
7.52
-23.58
-49.29
-67.31
-76.97
-79.51
-77.68
-74.97
-74.65
-78.82
-88.33
-102.69
-120.46
-139.54
-157.34
-171.23
-178.82
-178.78
-171.11
-157.42
-140.3
-122.54
-106.16
-91.76
-78.87
-66.36
-53.65
-41.09
-29.84
-20.99
-14.67
-9.67
-3.74
5.39
18.82
35.74
53.57
68.83
78.48
81.18
77.99
72.41
69.26
72.96
85.77
106.8
132.26
157.1
177.06
189.93
196.02
196.95
194.41
189.7
183.85
178.1
173.41
169.65
164.5
153.96
134.27
104.57
68.36
32.48
4.28
-11.8
-15.99
-12.5
-6.96
-3.73
-4.47
-8.4
-13.93
-19.88
-25.84
-31.73
-37.19
-41.32
-43.32
-42.98
-41.19
-40.09
-42.31
-49.96
-63.64
-81.89
-101.58
-118.86
-130.67
-135.77
-135.23
-131.89
-129.44
-130.9
-137.49
-147.94
-158.89
-165.94
-165.04
-153.7
-131.29
-98.94
-58.73
-13.32
34.38
81.2
123.74
158.75
183.68
197.1
198.86
189.76
171.31
145.67
115.54
83.92
53.55
25.96
0.95
-23.2
-48.9
-78.04
-110.8
-145.25
-177.63
-203.28
-218.27
-220.82
-212.08
-195.68
-176.56
-159.05
-145.65
-136.79
-131.48
-128.5
-127.29
-127.93
-130.62
-134.75
-138.66
-139.96
-136.13
-125.21
-106.23
-79.05
-44.46
-4.76
35.7
70.48
92.4
96.17
81.22
53.16
22.56
1.14
-3.1
10.97
37.63
67.59
92.58
108.44
115.42
116.24
113.35
107.74
99.42
88.83
77.66
68.55
63.73
63.73
67.12
71.02
72.45
69.33
61.37
50.51
40.52
35.72
39.14
50.7
66.71
81.21
88.64
86.58
76.86
64.45
54.75
50.81
52.19
55.57
56.82
52.98
43.5
29.92
14.84
0.8
-10.67
-19.08
-24.58
-27.14
-26.21
-21.65
-14.72
-8.51
-6.81
-11.98
-22.9
-34.74
-41.25
-38.07
-25.4
-7.65
9.04
20.6
26.77
30.46
35.23
42.66
51.5
58.69
61.65
59.8
54.77
49.2
45.41
44.07
43.95
42.42
36.7
25.18
8.44
-10.36
-26.26
-34.06
-29.74
-11.51
19.65
59.94
103.18
141.84
168.88
179.75
173.91
155.02
129.23
102.93
80.49
63.78
52.75
47.07
46.93
52.84
64.58
80.26
96.57
109.66
116.68
116.57
110.38
100.71
91.02
84.64
83.77
89.05
99.53
113.07
127.14
139.52
148.45
152.71
151.3
143.49
129.19
109.12
85.04
59.32
34.61
12.95
-4.51
-17.71
-27.84
-36.97
-47.33
-60.37
-75.95
-92.26
-106.69
-117.08
-122.48
-123.53
-121.72
-118.7
-115.74
-113.52
-112.43
-112.54
-113.32
-113.51
-111.13
-104.06
-90.95
-71.9
-48.59
-23.58
0.36
21.11
37.52
49.05
55.65
57.5
55.15
49.51
42.07
34.53
28.47
24.86
23.5
23.17
22.06
18.66
12.39
3.74
-6.23
-16.57
-26.97
-37.72
-49.28
-61.93
-75.5
-89.51
-103.34
-116.28
-127.45
-135.64
-139.62
-138.25
-131.16
-119.1
-103.74
-87.15
-71.08
-56.13
-41.67
-26.09
-7.52
14.99
40.83
67.78
92.71
112.85
126.74
134.49
137.17
135.83
130.78
121.57
107.55
88.62
65.64
40.24
14.52
-9.67
-31.0
-48.96
-64.09
-77.73
-91.85
-108.24
-127.85
-150.13
-172.84
-192.59
-205.73
-209.44
-202.63
-186.17
-162.74
-135.76
-108.63
-83.83
-62.84
-46.31
-34.38
-26.64
-21.73
-17.26
-10.13
2.38
21.03
44.05
67.29
85.8
95.8
95.97
87.81
74.97
62.04
53.32
51.99
59.47
75.02
95.91
117.85
136.21
147.22
148.77
140.76
124.54
102.21
75.81
46.94
16.95
-12.56
-39.48
-61.31
-75.77
-81.85
-80.45
-74.39
-67.43
-62.83
-61.87
-63.48
-64.96
-63.51
-57.73
-48.33
-37.61
-28.3
-22.43
-20.3
-20.74
-21.71
-21.43
-19.36
-16.37
-14.2
-14.35
-17.09
-21.1
-23.99
-23.52
-18.67
-9.99
0.62
10.91
18.93
23.59
24.54
22.02
16.92
10.78
5.74
4.13
7.83
17.54
32.57
51.13
70.8
89.5
105.75
118.86
128.5
134.61
137.13
136.08
131.87
125.43
118.04
110.94
104.71
98.95
92.59
84.58
74.74
64.3
55.56
51.2
53.18
61.98
76.2
92.76
107.54
116.23
115.44
103.35
80.07
47.16
6.99
-37.89
-84.93
-131.31
-173.71
-208.42
-232.46
-244.43
-245.35
-238.2
-226.85
-214.76
-204.13
-195.92
-190.37
-187.49
-187.18
-189.04
-192.06
-194.45
-193.99
-188.43
-176.14
-156.68
-131.07
-101.69
-71.47
-43.08
-18.23
2.49
19.15
31.97
41.03
46.52
49.13
50.21
51.26
53.17
55.68
57.5
57.12
53.74
47.77
40.58
33.87
29.24
27.78
30.26
37.04
47.9
61.99
78.04
94.51
110.12
124.18
136.72
148.14
158.39
166.12
168.52
162.13
144.6
116.33
81.32
46.12
17.34
-1.15
-9.56
-11.72
-12.46
-15.2
-20.58
-26.96
-32.3
-35.37
-36.21
-35.42
-33.19
-29.17
-22.78
-13.9
-3.13
8.11
18.15
25.41
28.76
27.71
22.7
15.08
6.85
-0.11
-4.75
-7.24
-8.75
-10.77
-14.39
-19.78
-26.41
-33.4
-39.91
-45.25
-48.73
-49.64
-47.26
-41.09
-31.14
-18.08
-3.11
12.19
26.29
38.15
47.58
55.1
61.44
66.96
71.21
73.14
71.83
67.08
59.58
50.71
41.67
33.09
24.86
16.51
7.7
-1.53
-10.83
-19.59
-26.96
-31.8
-32.91
-29.28
-20.76
-8.34
5.89
19.54
30.64
38.12
41.89
42.27
39.73
34.45
26.59
16.47
4.75
-7.57
-19.43
-30.1
-39.32
-47.38
-54.8
-61.97
-68.81
-74.76
-79.01
-80.83
-79.75
-75.56
-68.2
-57.61
-43.92
-27.64
-9.78
8.21
24.8
38.81
49.48
56.46
59.63
59.1
55.24
48.82
41.08
33.27
26.54
21.57
18.52
17.21
17.13
17.57
17.74
16.82
14.39
10.58
6.25
2.71
1.29
2.86
7.39
13.9
20.71
26.0
28.4
27.28
22.75
15.24
5.09
-7.53
-22.2
-37.92
-52.83
-64.6
-71.43
-72.67
-69.07
-62.25
-53.84
-44.93
-35.96
-27.13
-18.55
-10.31
-2.05
7.11
18.1
31.39
46.3
61.23
74.34
84.55
91.85
97.06
101.12
104.42
106.61
106.7
103.5
96.0
83.53
66.02
44.12
19.19
-6.69
-31.38
-53.19
-71.42
-86.38
-98.98
-110.17
-120.24
-128.66
-134.14
-135.29
-131.36
-122.64
-110.55
-97.29
-84.76
-74.06
-65.25
-57.85
-51.32
-45.57
-40.79
-37.11
-34.23
-31.31
-27.47
-22.17
-15.52
-8.16
-0.97
5.27
10.11
13.3
14.87
14.98
14.0
12.54
11.41
11.53
13.72
18.4
25.46
34.18
43.36
51.64
57.9
61.62
62.86
62.18
60.17
57.33
53.86
49.99
46.14
42.75
40.32
39.0
38.51
38.16
37.1
34.73
30.95
26.22
21.31
17.02
13.94
12.29
12.21
13.84
17.37
22.91
30.27
38.74
47.19
54.28
58.84
60.12
57.95
52.69
45.1
36.14
26.84
18.17
10.66
4.5
-0.62
-5.4
-10.88
-18.16
-27.99
-40.23
-53.39
-64.72
-70.89
-69.27
-58.91
-41.11
-19.04
3.45
22.83
36.64
43.59
43.3
35.94
22.22
3.55
-17.87
-39.43
-58.92
-75.42
-89.63
-103.51
-119.13
-137.32
-156.94
-175.03
-188.13
-193.68
-191.24
-182.48
-170.09
-156.25
-141.7
-125.86
-107.77
-87.25
-65.48
-44.56
-26.49
-12.36
-1.86
6.09
12.66
18.41
23.21
26.69
28.65
29.44
29.72
30.2
31.17
32.33
32.91
31.82
28.09
21.32
11.88
1.0
-9.49
-17.66
-22.17
-22.59
-19.63
-14.5
-8.56
-2.82
2.11
6.03
9.12
11.72
14.21
16.63
18.5
18.91
16.98
12.41
5.99
-0.57
-5.21
-6.33
-3.6
1.97
8.37
13.35
15.25
13.6
9.26
4.29
1.29
2.49
9.16
21.21
37.35
55.63
73.93
90.44
103.61
112.52
116.82
117.1
114.96
112.62
112.18
114.16
116.7
115.75
106.58
86.05
54.51
16.26
-22.04
-53.92
-75.7
-87.53
-92.42
-94.03
-94.72
-94.61
-92.42
-86.89
-77.96
-66.92
-55.66
-45.67
-37.55
-31.2
-26.09
-21.83
-18.29
-15.6
-13.89
-13.19
-13.26
-13.52
-13.25
-11.81
-9.06
-5.57
-2.47
-0.94
-1.8
-4.94
-9.3
-13.18
-14.82
-12.9
-7.01
2.31
13.7
25.52
36.37
45.47
52.62
57.83
61.0
61.7
59.61
54.89
48.55
42.03
36.62
32.67
29.66
26.6
22.78
18.34
13.96
10.58
8.75
8.34
8.64
8.53
6.78
2.42
-4.89
-14.53
-25.05
-34.7
-42.29
-47.67
-51.68
-55.34
-58.97
-61.97
-63.1
-61.33
-56.24
-48.28
-38.13
-26.44
-13.67
-0.29
12.66
23.7
31.32
34.54
33.29
28.48
21.85
15.82
12.98
15.32
23.42
36.18
50.96
64.58
74.36
79.2
80.26
79.69
79.38
79.89
80.69
80.74
79.16
75.33
68.96
60.74
51.4
41.13
29.64
16.92
3.82
-8.07
-17.31
-23.32
-25.38
-23.85
-20.41
-17.4
-16.33
-17.0
-18.25
-18.93
-18.2
-13.03
0.76
26.68
65.57
114.64
167.91
217.4
255.57
265.48
238.58
181.73
114.6
56.37
15.62
-8.39
-19.86
-21.86
-15.98
-3.65
12.29
27.14
37.51
41.74
42.06
43.11
48.73
59.01
68.73
71.05
60.93
37.58
4.51
-32.64
-69.43
-101.82
-129.08
-156.13
-188.36
-229.13
-279.04
-336.89
-400.8
-467.77
-533.07
-568.0
-550.59
-475.73
-360.06
-231.15
-113.37
-21.04
42.06
78.1
97.2
103.68
99.81
88.1
72.56
57.66
46.81
42.54
44.91
52.6
60.38
63.72
60.61
52.4
42.39
34.01
29.5
29.06
31.24
31.15
24.14
8.16
-15.28
-41.63
-65.4
-81.77
-88.35
-85.32
-76.17
-65.02
-54.86
-46.38
-38.31
-28.98
-17.59
-5.13
6.35
14.48
18.65
20.55
23.48
30.47
42.51
57.99
73.36
85.07
90.82
90.42
85.47
78.37
71.41
66.4
64.87
68.0
76.07
87.71
99.46
106.5
104.39
91.29
68.99
42.54
17.97
-0.41
-11.41
-16.83
-19.56
-21.65
-23.36
-23.58
-21.48
-17.49
-13.58
-12.15
-14.7
-21.15
-30.08
-39.39
-47.22
-52.53
-55.01
-54.84
-52.4
-47.97
-41.8
-34.09
-25.07
-15.19
-5.07
4.43
12.3
17.64
19.87
18.96
15.49
10.52
5.2
0.52
-2.92
-5.16
-6.81
-8.86
-12.52
-18.68
-27.53
-38.37
-49.57
-58.92
-64.11
-63.43
-56.36
-43.87
-28.1
-11.75
2.74
14.02
21.97
27.23
30.63
32.6
33.15
32.21
29.95
26.9
23.88
21.81
21.52
23.46
27.43
32.26
36.03
36.78
33.54
27.12
20.06
15.61
16.33
23.32
36.21
53.62
73.52
93.03
108.14
114.26
107.79
88.09
58.43
25.09
-5.02
-27.34
-40.86
-47.67
-50.98
-53.18
-54.98
-56.1
-56.38
-56.59
-58.2
-62.52
-69.4
-77.04
-82.5
-82.9
-76.78
-64.91
-49.94
-35.1
-22.78
-13.57
-6.5
-0.14
6.34
12.59
17.59
20.37
20.75
19.4
17.3
15.32
13.93
13.37
13.81
15.09
16.77
17.79
17.19
14.49
10.23
5.96
3.56
4.37
8.62
15.35
22.76
29.08
33.1
34.5
33.92
32.44
31.11
30.4
30.07
29.33
27.47
24.3
20.49
17.1
15.1
14.72
15.29
15.52
13.98
9.77
2.78
-6.22
-15.65
-23.78
-28.82
-29.54
-25.46
-16.91
-4.8
9.64
25.16
40.66
55.13
67.66
77.29
83.14
84.63
81.81
75.66
68.0
61.07
56.55
54.9
55.15
55.2
53.02
47.47
38.67
27.92
17.03
7.89
2.37
2.46
9.96
25.5
47.01
69.3
85.07
87.62
73.86
46.05
11.18
-21.96
-46.32
-59.0
-61.49
-57.86
-52.22
-46.9
-42.3
-37.9
-33.69
-30.69
-30.55
-34.38
-41.91
-51.28
-59.46
-63.37
-60.84
-51.45
-36.52
-18.52
-0.38
15.56
28.09
37.3
44.1
49.51
53.91
56.63
56.43
52.42
44.78
35.12
25.6
17.98
12.67
8.86
5.32
1.37
-2.76
-6.4
-9.17
-11.47
-14.17
-17.82
-22.06
-25.58
-26.88
-25.1
-20.54
-14.4
-7.99
-2.08
3.28
8.44
13.6
18.5
22.34
24.39
24.36
22.72
20.48
18.81
18.43
19.41
21.18
22.98
24.3
25.0
25.12
24.65
23.44
21.45
18.93
16.59
15.28
15.6
17.6
20.84
24.67
28.53
31.95
34.45
35.27
33.44
28.23
19.57
8.42
-3.43
-13.95
-21.53
-25.5
-26.35
-25.6
-25.27
-27.22
-32.45
-40.75
-50.78
-60.51
-67.98
-71.75
-71.36
-67.07
-59.63
-50.03
-39.27
-28.28
-17.92
-9.02
-2.29
1.81
3.19
2.25
-0.19
-3.07
-5.42
-6.68
-7.0
-6.97
-7.36
-8.74
-11.26
-14.74
-18.83
-23.13
-27.11
-29.92
-30.36
-27.39
-20.46
-10.09
2.26
14.49
24.63
31.39
34.53
34.75
33.13
30.67
27.73
24.04
18.96
12.12
3.86
-4.79
-12.51
-18.4
-22.29
-24.83
-27.01
-29.49
-32.3
-35.0
-36.83
-37.22
-35.87
-32.76
-28.01
-21.88
-14.63
-6.7
1.4
9.11
15.91
21.19
24.5
25.67
25.14
23.92
23.14
23.64
25.52
28.2
30.7
32.16
32.06
30.18
26.4
20.51
12.35
1.99
-10.0
-22.3
-33.06
-40.28
-42.36
-38.62
-29.59
-17.04
-3.51
8.46
17.23
22.46
24.69
24.84
23.39
20.21
14.76
6.76
-3.27
-13.89
-23.08
-28.94
-30.37
-27.66
-22.49
-17.24
-14.3
-15.13
-19.87
-27.46
-36.15
-44.02
-49.47
-51.27
-48.56
-41.08
-29.4
-15.13
-0.58
12.01
21.31
27.26
30.92
33.64
36.34
39.17
41.75
43.74
45.07
45.87
46.13
45.5
43.24
38.77
32.0
23.34
13.51
3.26
-6.96
-16.95
-26.47
-35.12
-42.25
-47.11
-49.24
-48.7
-46.0
-42.04
-37.62
-33.17
-28.7
-23.99
-18.93
-13.76
-8.89
-4.58
-0.52
4.01
9.76
16.9
24.61
31.53
36.14
37.73
36.59
33.79
30.73
28.6
28.29
30.12
34.1
39.44
44.82
48.44
48.61
44.48
36.34
25.78
15.09
6.48
1.09
-1.47
-3.0
-5.85
-11.7
-20.7
-31.31
-41.13
-48.08
-51.48
-52.19
-51.98
-52.43
-54.03
-56.23
-57.89
-57.98
-55.97
-51.88
-46.0
-38.84
-31.05
-23.21
-15.87
-9.41
-4.08
-0.16
2.04
2.2
0.28
-3.28
-7.47
-11.15
-13.44
-14.01
-13.3
