2013-02-23 16:02:04
64.0
-0.0
-0.0
-0.0
-0.0
-0.0
-0.0
-0.0
-0.0
-0.0
-0.0
0.0
0.01
0.01
-0.0
-0.03
-0.05
-0.05
0.0
0.13
0.36
0.66
1.01
1.37
1.72
2.06
2.4
2.79
3.24
3.8
4.42
5.06
5.66
6.2
6.68
7.15
7.68
8.31
9.14
10.09
11.04
11.88
12.56
13.14
13.76
14.65
15.96
17.91
20.32
22.9
25.38
27.58
29.57
31.68
34.32
37.81
42.54
48.15
54.1
59.83
64.97
69.58
74.14
79.34
85.71
93.76
103.0
112.62
121.73
129.77
136.75
143.3
150.75
157.77
166.64
177.95
191.79
206.97
220.57
228.25
225.36
208.53
176.87
132.77
80.07
23.11
-34.91
-92.43
-149.22
-205.39
-260.65
-314.12
-364.32
-410.3
-451.38
-486.98
-516.24
-537.8
-549.89
-550.75
-539.24
-515.12
-479.57
-434.74
-383.3
-327.93
-270.91
-213.95
-158.24
-104.74
-54.26
-7.77
33.79
69.64
99.38
123.08
141.29
154.87
164.7
171.58
175.92
177.86
177.37
174.44
169.29
162.38
154.42
146.13
138.05
130.38
122.95
115.33
107.13
98.17
88.61
78.97
69.85
61.69
54.62
48.41
42.62
36.77
30.45
23.35
15.26
6.42
-2.24
-9.0
-11.74
-8.79
0.11
13.44
28.27
41.4
50.65
55.48
56.81
56.17
54.76
52.94
50.47
47.04
42.75
38.14
33.87
30.37
27.61
25.2
22.64
19.64
16.28
12.93
10.12
8.18
7.07
6.45
5.86
5.08
4.23
3.67
3.75
4.43
5.28
5.67
5.08
3.46
1.16
-1.2
-3.12
-4.39
-5.11
-5.52
-5.79
-5.99
-6.08
-6.06
-6.02
-6.04
-6.18
-6.33
-6.3
-5.78
-4.54
-2.59
-0.12
2.44
4.62
6.0
6.39
5.82
4.62
3.18
1.9
0.96
0.35
-0.04
-0.36
-0.63
-0.77
-0.59
0.02
1.08
2.48
4.05
5.61
7.08
8.44
9.68
10.78
11.63
12.09
12.07
11.52
10.52
9.2
7.69
6.08
4.4
2.64
0.65
-1.64
-4.28
-7.22
-10.33
-13.32
-15.84
-17.47
-17.9
-17.02
-14.97
-12.12
-8.98
-6.03
-3.62
-1.94
-0.99
-0.7
-0.95
-1.58
-2.44
-3.34
-4.18
-4.85
-5.35
-5.67
-5.88
-6.03
-6.13
-6.19
-6.17
-6.04
-5.81
-5.53
-5.26
-5.05
-4.89
-4.7
-4.43
-4.11
-3.86
-3.85
-4.14
-4.61
-5.0
-5.04
-4.6
-3.8
-2.98
-2.56
-2.81
-3.83
-5.44
-7.34
-9.16
-10.47
-10.9
-10.19
-8.22
-5.03
-0.8
4.15
9.46
14.54
18.76
21.68
23.11
23.16
22.15
20.51
18.57
16.58
14.65
12.83
11.2
9.84
8.8
8.09
7.63
7.36
7.22
7.16
7.12
6.98
6.58
5.75
4.41
2.66
0.75
-0.97
-2.24
-2.97
-3.36
-3.77
-4.62
-6.2
-8.54
-11.48
-14.73
-18.04
-21.28
-24.47
-27.65
-30.75
-33.45
-35.2
-35.34
-33.35
-29.08
-22.82
-15.31
-7.46
-0.11
6.15
11.09
14.73
17.28
18.93
19.85
20.11
19.82
19.08
18.01
16.76
15.42
14.04
12.67
11.38
10.3
9.54
9.22
9.35
9.89
10.76
11.84
13.0
14.05
14.73
14.8
14.04
12.45
10.16
7.43
4.56
1.82
-0.62
-2.66
-4.33
-5.8
-7.4
-9.52
-12.45
-16.16
-20.2
-23.76
-25.95
-26.12
-24.08
-20.16
-15.03
-9.4
-3.82
1.47
6.42
10.99
15.06
18.29
20.28
20.67
19.26
16.05
11.31
5.57
-0.4
-5.67
-9.3
-10.67
-9.7
-6.92
-3.3
0.13
2.68
4.11
4.58
4.36
3.59
2.26
0.34
-2.06
-4.54
-6.64
-8.07
-8.91
-9.63
-10.8
-12.85
-15.78
-19.25
-22.77
-25.94
-28.65
-30.91
-32.75
-33.98
-34.18
-32.88
-29.81
-25.12
-19.28
-12.95
-6.68
-0.74
4.79
9.85
14.3
17.88
20.34
21.64
22.05
22.02
21.99
22.14
22.39
22.5
22.24
21.56
20.63
19.7
18.97
18.45
17.95
17.2
15.94
14.07
11.64
8.82
5.86
3.0
0.41
-1.78
-3.59
-5.14
-6.67
-8.46
-10.72
-13.45
-16.47
-19.46
-22.08
-24.08
-25.32
-25.67
-25.0
-23.18
-20.12
-15.91
-10.85
-5.39
-0.06
4.75
8.81
12.08
14.66
16.7
18.31
19.57
20.5
21.11
21.33
21.04
20.04
18.05
14.97
11.22
8.0
7.28
11.17
21.03
36.57
55.68
74.81
90.2
98.94
99.71
92.8
79.6
62.04
42.19
22.11
3.7
-11.49
-22.67
-30.08
-34.86
-38.58
-42.57
-47.49
-53.2
-59.05
-64.29
-68.33
-70.87
-71.75
-70.95
-68.51
-64.58
-59.51
-53.82
-48.11
-42.88
-38.4
-34.64
-31.33
-28.11
-24.63
-20.72
-16.35
-11.69
-7.03
-2.72
0.95
3.83
6.03
7.9
9.83
12.01
14.25
15.9
16.12
14.29
10.26
4.58
-1.8
-7.91
-13.15
-17.47
-21.19
-24.74
-28.26
-31.46
-33.73
-34.39
-33.1
-30.02
-25.82
-21.46
-17.77
-15.15
-13.46
-12.2
-10.83
-9.04
-6.84
-4.46
-2.12
0.07
2.18
4.31
6.47
8.58
10.52
12.22
13.73
15.2
16.78
18.53
20.43
22.39
24.29
25.99
27.3
28.04
28.07
27.3
25.79
23.72
21.3
18.76
16.21
13.65
10.98
8.05
4.79
1.3
-2.06
-4.78
-6.33
-6.46
-5.33
-3.4
-1.26
0.76
2.63
4.58
6.81
9.3
11.74
13.72
14.97
15.5
15.58
15.53
15.48
15.37
15.07
14.51
13.78
13.07
12.59
12.42
12.55
12.94
13.55
14.3
15.11
15.81
16.21
16.17
15.72
15.0
14.22
13.54
13.02
12.58
12.1
11.46
10.62
9.51
8.09
6.27
4.1
1.8
-0.13
-0.96
0.04
3.41
9.29
17.38
26.97
37.11
46.71
54.74
60.36
63.04
62.66
59.43
53.72
45.87
36.11
24.69
12.06
-0.94
-13.16
-23.4
-30.85
-35.3
-37.25
-37.67
-37.6
-37.9
-39.14
-41.63
-45.38
-50.07
-55.03
-59.21
-61.49
-61.04
-57.63
-51.84
-44.84
-38.04
-32.62
-29.2
-27.74
-27.74
-28.55
-29.59
-30.61
-31.62
-32.84
-34.56
-36.85
-39.54
-42.12
-43.93
-44.45
-43.48
-41.26
-38.35
-35.35
-32.64
-30.33
-28.33
-26.52
-24.97
-23.85
-23.33
-23.42
-23.82
-24.0
-23.34
-21.27
-17.5
-11.98
-5.01
2.85
10.84
18.23
24.45
29.26
32.8
35.51
37.94
40.55
43.44
46.31
48.51
49.3
48.24
45.41
41.44
37.29
33.87
31.69
30.77
30.72
30.97
30.96
30.28
28.63
25.91
22.28
18.29
14.79
12.76
12.97
15.68
20.65
27.3
35.07
43.62
52.92
62.87
72.99
82.04
88.19
89.6
85.27
75.63
62.65
49.14
37.72
29.86
25.47
23.21
21.23
17.94
12.63
5.61
-1.8
-7.74
-10.23
-7.93
-0.69
10.2
22.3
32.72
38.94
39.45
33.9
23.01
8.2
-8.62
-25.32
-39.96
-51.19
-58.6
-62.84
-65.23
-67.18
-69.65
-72.85
-76.42
-79.76
-82.36
-83.93
-84.39
-83.7
-81.81
-78.75
-74.61
-69.63
-64.1
-58.19
-51.93
-45.16
-37.72
-29.5
-20.61
-11.33
-2.07
6.66
14.25
20.05
23.5
24.37
22.92
19.9
16.35
13.17
10.79
9.06
7.51
5.74
3.74
1.94
0.95
1.14
2.42
4.27
6.0
7.05
7.23
6.69
5.77
4.77
3.85
2.98
2.07
1.06
-0.03
-1.1
-2.05
-2.86
-3.61
-4.48
-5.75
-7.67
-10.39
-13.84
-17.65
-21.21
-23.81
-24.84
-23.94
-21.13
-16.72
-11.29
-5.45
0.25
5.4
9.79
13.33
16.04
18.0
19.29
20.04
20.28
20.06
19.34
18.16
16.6
14.83
13.13
11.78
11.0
10.78
10.93
11.11
11.06
10.68
10.05
9.35
8.7
8.08
7.3
6.15
4.53
2.52
0.34
-1.77
-3.78
-5.81
-8.07
-10.69
-13.65
-16.73
-19.65
-22.15
-24.08
-25.3
-25.62
-24.8
-22.53
-18.62
-13.13
-6.47
0.75
7.8
14.09
19.3
23.38
26.48
28.77
30.35
31.2
31.18
30.22
28.43
26.12
23.78
21.78
20.31
19.29
18.42
17.45
16.25
14.89
13.56
12.34
11.21
9.97
8.47
6.65
4.64
2.68
0.92
-0.6
-2.02
-3.5
-5.15
-6.94
-8.79
-10.62
-12.5
-14.55
-16.93
-19.63
-22.38
-24.7
-25.95
-25.59
-23.34
-19.23
-13.69
-7.39
-1.1
4.4
8.56
11.18
12.38
12.59
12.35
12.19
12.36
12.87
13.44
13.74
13.48
12.58
11.05
8.99
6.54
3.86
1.28
-0.69
-1.39
-0.26
2.86
7.52
12.71
17.21
19.99
20.54
18.96
15.73
11.4
6.41
1.06
-4.34
-9.44
-13.86
-17.38
-20.11
-22.41
-24.7
-27.11
-29.26
-30.43
-29.83
-27.0
-22.03
-15.51
-8.33
-1.31
4.98
10.33
14.75
18.36
21.26
23.46
24.96
25.76
25.86
25.26
23.89
21.66
18.52
14.61
10.33
6.29
3.13
1.28
0.78
1.34
2.45
3.63
4.6
5.23
5.52
5.42
4.75
3.33
1.07
-1.89
-5.14
-8.17
-10.54
-12.07
-12.93
-13.55
-14.37
-15.79
-17.95
-20.83
-24.32
-28.24
-32.35
-36.27
-39.43
-41.06
-40.5
-37.36
-31.74
-24.29
-16.03
-7.99
-0.93
4.86
9.49
13.16
15.97
17.78
18.36
17.58
15.76
13.53
11.7
10.82
11.0
11.85
12.74
13.2
13.11
12.76
12.6
12.95
13.77
14.7
15.24
15.02
13.98
12.29
10.28
8.16
6.0
3.69
1.09
-1.8
-4.76
-7.37
-9.2
-9.97
-9.78
-9.12
-8.64
-8.93
-10.2
-12.16
-14.11
-15.18
-14.74
-12.6
-9.07
-4.83
-0.62
2.96
5.61
7.37
8.51
9.34
10.12
10.95
11.79
12.59
13.27
13.81
14.14
14.13
13.57
12.28
10.28
7.78
5.22
3.02
1.46
0.51
-0.05
-0.58
-1.35
-2.41
-3.67
-4.89
-5.96
-6.9
-7.92
-9.32
-11.36
-14.1
-17.39
-20.9
-24.24
-27.06
-29.1
-30.18
-30.15
-28.96
-26.63
-23.32
-19.26
-14.7
-9.83
-4.68
0.69
6.14
11.32
15.76
18.99
20.76
21.15
20.56
19.51
18.4
17.34
16.24
14.93
13.43
11.99
10.99
10.72
11.1
11.62
11.55
10.29
7.72
4.28
0.79
-1.91
-3.42
-3.88
-3.94
-4.38
-5.76
-8.17
-11.24
-14.41
-17.15
-19.19
-20.51
-21.25
-21.47
-21.11
-20.01
-17.99
-15.05
-11.39
-7.31
-3.09
1.12
5.29
9.41
13.34
16.78
19.36
20.87
21.36
21.15
20.73
20.44
20.39
20.4
20.24
19.77
19.08
18.42
18.09
18.24
18.72
19.18
19.07
17.94
15.52
11.84
7.21
2.19
-2.64
-6.77
-9.89
-11.88
-12.77
-12.62
-11.63
-10.03
-8.22
-6.66
-5.75
-5.74
-6.56
-7.92
-9.36
-10.48
-11.03
-11.02
-10.63
-10.04
-9.39
-8.72
-8.04
-7.4
-6.88
-6.55
-6.4
-6.32
-6.1
-5.54
-4.6
-3.4
-2.22
-1.28
-0.68
-0.34
-0.1
0.2
0.56
0.87
0.92
0.57
-0.2
-1.34
-2.72
-4.2
-5.69
-7.16
-8.6
-10.05
-11.53
-13.09
-14.75
-16.47
-18.17
-19.63
-20.55
-20.58
-19.42
-16.9
-13.1
-8.31
-3.0
2.32
7.17
11.25
14.38
16.53
17.76
18.2
18.0
17.33
16.37
15.23
14.05
12.9
11.84
10.93
10.16
9.5
8.92
8.34
7.71
7.01
6.23
5.39
4.44
3.36
2.11
0.73
-0.72
-2.16
-3.53
-4.89
-6.34
-8.04
-10.07
-12.45
-15.11
-17.92
-20.67
-23.03
-24.62
-24.97
-23.71
-20.76
-16.33
-10.94
-5.21
0.29
5.19
9.32
12.57
14.88
16.18
16.46
15.8
14.47
12.83
11.24
9.96
9.01
8.23
7.37
6.25
4.85
3.32
1.85
0.59
-0.48
-1.46
-2.49
-3.62
-4.82
-6.02
-7.17
-8.27
-9.32
-10.3
-11.23
-12.19
-13.42
-15.24
-17.91
-21.42
-25.35
-28.94
-31.33
-31.86
-30.27
-26.8
-22.0
-16.48
-10.72
-4.91
0.92
6.81
12.67
18.18
22.9
26.36
28.29
28.72
27.94
26.44
24.73
23.24
22.22
21.72
21.62
21.72
21.82
21.81
21.68
21.48
21.21
20.77
19.98
18.63
16.74
14.52
12.4
10.79
9.95
9.79
9.95
9.9
9.18
7.55
5.07
2.12
-0.79
-3.18
-4.78
-5.67
-6.28
-7.18
-8.91
-11.65
-15.27
-19.34
-23.36
-26.89
-29.57
-31.16
-31.4
-30.08
-26.98
-21.9
-14.75
-5.58
5.2
16.65
27.2
34.89
37.79
34.79
26.22
14.07
1.6
-7.71
-11.4
-9.0
-2.21
5.83
11.88
13.8
11.22
5.27
-2.32
-10.14
-17.53
-24.4
-30.54
-35.14
-36.94
-34.66
-27.87
-17.41
-5.18
6.32
14.61
17.76
14.91
6.65
-4.89
-16.49
-24.85
-27.8
-25.11
-18.4
-10.13
-2.3
4.33
10.24
16.23
22.44
28.0
31.55
32.08
29.68
25.48
21.06
17.63
15.51
14.2
12.9
10.87
8.01
4.83
2.2
0.96
1.56
3.85
7.18
10.58
13.14
14.3
13.93
12.4
10.31
8.31
6.84
5.99
5.5
4.87
3.69
1.76
-0.73
-3.39
-5.77
-7.6
-8.9
-10.0
-11.25
-12.86
-14.86
-16.94
-18.64
-19.54
-19.26
-17.4
-13.54
-7.61
-0.24
7.1
12.42
14.07
11.63
6.16
-0.22
-5.26
-7.47
-6.72
-3.97
-0.68
1.89
2.97
2.41
0.31
-3.15
-7.59
-12.27
-16.09
-17.88
-16.92
-13.1
-7.03
0.08
6.8
11.84
14.37
14.2
11.76
7.89
3.6
-0.14
-2.65
-3.71
-3.58
-2.9
-2.35
-2.4
-3.18
-4.52
-6.23
-8.23
-10.49
-12.87
-15.21
-17.12
-18.11
-17.82
-16.05
-12.9
-8.68
-3.89
0.9
5.23
8.81
11.61
13.76
15.52
17.14
18.75
20.23
21.33
21.77
21.33
20.09
18.28
16.24
14.31
12.82
12.14
12.63
14.44
17.0
19.09
19.03
15.62
8.82
0.08
-8.3
-14.25
-16.69
-15.8
-12.61
-8.53
-4.8
-2.32
-1.59
-2.57
-4.75
-7.14
-8.75
-9.04
-8.27
-7.33
-7.15
-8.11
-9.82
-11.64
-13.07
-14.29
-15.82
-18.16
-21.19
-24.23
-26.41
-26.93
-25.44
-22.03
-17.23
-11.72
-6.24
-1.35
2.59
5.49
7.54
9.07
10.36
11.59
12.95
14.7
17.01
19.87
22.66
24.48
24.35
21.85
17.38
12.14
7.68
5.36
5.71
8.1
11.04
12.77
12.15
9.24
5.25
1.87
0.31
0.72
2.1
3.1
2.81
1.47
0.2
0.07
1.28
2.9
3.58
2.35
-0.59
-4.06
-6.86
-8.33
-8.84
-9.25
-10.38
-12.41
-15.08
-18.04
-21.19
-24.44
-27.35
-28.94
-28.09
-24.42
-18.84
-13.46
-10.54
-11.21
-14.69
-18.65
-20.63
-19.27
-15.04
-9.59
-4.68
-1.08
1.55
4.09
7.25
10.95
14.51
17.1
18.21
17.9
16.72
15.39
14.46
14.15
14.24
14.35
14.11
13.4
12.43
11.61
11.3
11.6
12.29
12.9
13.0
12.38
11.15
9.74
8.6
8.01
7.92
8.01
7.85
7.08
5.68
3.95
2.43
1.6
1.64
2.28
2.83
2.65
1.35
-0.94
-3.63
-5.98
-7.49
-8.01
-7.59
-6.3
-4.32
-2.33
-1.68
-4.05
-10.57
-20.82
-32.56
-42.4
-47.39
-46.42
-40.71
-32.99
-25.9
-20.71
-17.01
-13.5
-9.17
-4.03
1.01
4.88
7.12
8.13
8.73
9.68
11.24
13.09
14.55
15.04
14.34
12.76
10.95
9.66
9.38
10.15
11.5
12.77
13.38
13.11
12.18
11.05
10.18
9.82
9.89
10.11
10.18
9.9
9.26
8.38
7.41
6.42
5.41
4.29
2.99
1.55
0.11
-1.14
-2.06
-2.71
-3.33
-4.25
-5.72
-7.73
-10.02
-12.17
-13.76
-14.68
-15.07
-15.34
-15.97
-17.26
-19.32
-21.97
-24.91
-27.74
-30.0
-31.09
-30.36
-27.29
-21.83
-14.58
-6.7
0.44
5.88
9.42
11.6
13.31
15.21
17.43
19.51
20.86
21.09
20.26
18.74
16.94
15.04
13.04
10.9
8.68
6.68
5.28
4.75
5.13
6.14
7.37
8.44
9.13
9.39
9.3
8.93
8.3
7.43
6.4
5.29
4.23
3.27
2.46
1.76
1.15
0.54
-0.14
-1.05
-2.32
-3.83
-5.22
-5.9
-5.38
-3.67
-1.43
0.21
0.1
-2.36
-6.94
-12.66
-18.3
-22.84
-25.81
-27.19
-27.19
-26.06
-24.06
-21.54
-18.97
-16.71
-14.77
-12.73
-9.93
-5.92
-0.76
4.91
10.17
14.2
16.65
17.62
17.44
16.41
14.72
12.77
11.27
11.23
13.33
17.31
21.76
24.42
23.29
17.59
8.35
-1.92
-10.39
-14.99
-15.21
-12.07
-7.31
-2.62
0.89
2.69
2.59
0.63
-2.85
-7.0
-10.61
-12.59
-12.41
-10.42
-7.67
-5.34
-4.17
-4.2
-5.07
-6.35
-7.97
-10.13
-12.95
-16.14
-19.03
-20.75
-20.56
-18.03
-13.09
-6.08
2.11
10.19
16.6
20.08
20.17
17.5
13.49
9.77
7.38
6.48
6.49
6.6
6.24
5.34
4.15
2.93
1.87
1.05
0.59
0.72
1.53
2.98
4.8
6.56
7.92
8.8
9.33
9.76
10.17
10.41
10.15
9.1
7.2
4.78
2.42
0.75
0.13
0.52
1.37
1.86
1.33
-0.61
-3.67
-7.12
-10.12
-12.08
-12.78
-12.3
-10.84
-8.82
-7.07
-7.06
-10.5
-18.4
-29.98
-42.3
-51.11
-52.73
-45.89
-32.53
-16.8
-3.08
6.06
10.56
12.22
13.08
14.1
14.93
14.67
12.84
10.01
7.46
6.58
7.89
10.87
14.26
16.68
17.28
16.12
14.02
12.06
11.08
11.26
12.14
12.9
12.81
11.56
9.37
6.77
4.32
2.36
0.88
-0.35
-1.59
-3.03
-4.65
-6.31
-7.87
-9.29
-10.69
-12.26
-14.18
-16.51
-19.12
-21.73
-23.93
-25.27
-25.45
-24.28
-21.78
-18.16
-13.75
-8.95
-4.16
0.3
4.19
7.37
9.83
11.68
13.12
14.32
15.39
16.34
17.07
17.48
17.59
17.48
17.35
17.35
17.55
17.95
18.5
19.19
19.93
20.57
20.88
20.61
19.6
17.95
15.95
14.02
12.46
11.35
10.5
9.58
8.23
6.24
3.62
0.57
-2.61
-5.57
-8.05
-9.96
-11.38
-12.59
-13.97
-15.86
-18.5
-21.85
-25.59
-29.14
-31.85
-33.14
-32.71
-30.59
-27.07
-22.54
-17.37
-11.88
-6.36
-1.17
3.32
6.8
9.18
10.64
11.55
12.34
13.25
14.25
15.16
15.75
15.91
15.72
15.37
15.05
14.88
14.88
14.95
14.98
14.84
14.45
13.76
12.84
11.81
10.77
9.78
8.81
7.77
6.6
5.32
4.07
3.01
2.22
1.64
1.02
0.06
-1.52
-3.75
-6.47
-9.31
-11.9
-14.03
-15.72
-17.24
-18.88
-20.78
-22.75
-24.32
-24.92
-24.11
-21.8
-18.2
-13.76
-8.98
-4.23
0.25
4.35
8.02
11.19
13.81
15.82
17.14
17.75
17.63
16.88
15.65
14.2
12.79
11.63
10.84
10.44
10.42
10.73
11.35
12.17
13.04
13.69
13.87
13.43
12.46
11.23
10.07
9.23
8.72
8.31
7.67
6.59
5.06
3.3
1.59
0.15
-0.99
-1.95
-2.89
-3.94
-5.11
-6.35
-7.63
-8.95
-10.39
-12.0
-13.82
-15.83
-17.99
-20.23
-22.47
-24.55
-26.22
-27.14
-27.01
-25.63
-23.01
-19.34
-14.96
-10.27
-5.61
-1.25
2.68
6.13
9.11
11.61
13.61
15.05
15.94
16.29
16.21
15.82
15.25
14.66
14.16
13.87
13.87
14.11
14.47
14.76
14.82
14.58
14.13
13.6
13.13
12.73
12.33
11.81
11.06
10.02
8.72
7.19
5.58
4.01
2.63
1.51
0.61
-0.23
-1.22
-2.57
-4.33
-6.43
-8.64
-10.69
-12.37
-13.59
-14.48
-15.27
-16.24
-17.63
-19.5
-21.7
-23.91
-25.65
-26.48
-26.07
-24.3
-21.28
-17.34
-12.86
-8.26
-3.83
0.27
3.94
7.14
9.83
11.97
13.54
14.55
15.03
15.07
14.77
14.25
13.67
13.16
12.82
12.68
12.71
12.86
13.07
13.32
13.6
13.88
14.06
14.03
13.7
13.05
12.15
11.14
10.13
9.14
8.11
6.92
5.48
3.79
1.96
0.24
-1.15
-2.01
-2.35
-2.34
-2.29
-2.51
-3.22
-4.42
-5.93
-7.47
-8.81
-9.9
-10.82
-11.72
-12.74
-13.89
-15.18
-16.6
-18.2
-20.02
-22.01
-23.94
-25.4
-25.96
-25.26
-23.18
-19.87
-15.69
-11.07
-6.42
-2.06
1.8
5.07
7.74
9.88
11.57
12.88
13.83
14.41
14.63
14.52
14.23
13.9
13.67
13.59
13.64
13.72
13.72
13.64
13.53
13.51
13.62
13.83
13.99
13.95
13.63
13.05
12.3
11.5
10.69
9.87
8.95
7.91
6.74
5.5
4.24
3.0
1.78
0.55
-0.68
-1.91
-3.13
-4.33
-5.49
-6.59
-7.61
-8.6
-9.59
-10.65
-11.81
-13.04
-14.23
-15.25
-16.03
-16.64
-17.27
-18.16
-19.47
-21.13
-22.83
-24.07
-24.38
-23.48
-21.38
-18.36
-14.84
-11.19
-7.63
-4.25
-1.08
1.79
4.21
6.0
7.09
7.53
7.56
7.44
7.42
7.61
8.0
8.51
9.08
9.69
10.37
11.15
11.97
12.73
13.23
13.3
12.94
12.25
11.5
11.0
10.88
11.01
11.05
10.66
9.75
8.67
8.09
8.64
10.53
13.31
15.95
17.25
16.52
13.71
9.58
5.2
1.42
-1.41
-3.44
-4.89
-5.72
-5.67
-4.79
-3.87
-4.35
-7.65
-14.14
-22.7
-30.94
-36.43
-37.91
-35.86
-32.04
-28.36
-25.77
-23.93
-21.76
-18.35
-13.66
-8.49
-3.93
-0.65
1.34
2.51
3.54
4.78
6.28
7.75
8.78
9.14
8.83
8.09
7.29
6.76
6.69
7.04
7.62
8.15
8.42
8.41
8.24
8.16
8.42
9.07
9.95
10.77
11.2
11.02
10.18
8.82
7.17
5.49
3.92
2.55
1.4
0.44
-0.32
-0.93
-1.52
-2.28
-3.48
-5.36
-7.97
-10.94
-13.5
-14.71
-14.02
-11.63
-8.65
-6.54
-6.49
-8.68
-12.27
-15.76
-17.78
-17.66
-15.41
-11.41
-6.24
-0.61
4.51
7.9
8.59
6.43
2.45
-1.48
-3.57
-3.04
-0.43
2.8
5.28
6.45
6.74
7.01
7.85
9.09
10.06
10.11
9.11
7.56
6.2
5.69
6.17
7.28
8.3
8.6
7.82
6.06
3.82
1.74
0.37
-0.06
0.26
0.79
0.92
0.23
-1.34
-3.48
-5.72
-7.62
-8.95
-9.54
-9.24
-8.09
-6.61
-5.94
-7.63
-12.6
-20.52
-29.38
-36.35
-39.02
-36.67
-30.53
-22.86
-15.65
-9.75
-5.11
-1.51
0.79
1.24
-0.31
-2.97
-4.92
-4.35
-0.66
5.23
11.38
15.95
18.08
18.1
17.03
15.84
14.97
14.46
14.18
14.12
14.33
14.74
15.21
15.49
15.42
14.87
13.85
12.41
10.66
8.73
6.85
5.27
4.19
3.6
3.29
2.88
2.01
0.49
-1.59
-3.87
-5.89
-7.34
-8.23
-8.85
-9.67
-11.06
-13.12
-15.61
-18.1
-20.16
-21.53
-22.2
-22.31
-21.92
-20.98
-19.29
-16.63
-13.0
-8.64
-4.03
0.28
3.84
6.51
8.39
9.76
10.87
11.83
12.59
13.03
13.09
12.79
12.29
11.75
11.32
11.06
10.94
10.87
10.74
10.52
10.21
9.9
9.7
9.63
9.62
9.49
9.06
8.25
7.11
5.81
4.56
3.48
2.59
1.82
1.03
0.12
-1.0
-2.34
-3.86
-5.45
-7.0
-8.44
-9.73
-10.92
-12.07
-13.26
-14.58
-16.08
-17.75
-19.55
-21.27
-22.64
-23.28
-22.85
-21.14
-18.19
-14.24
-9.73
-5.13
-0.88
2.78
5.71
7.94
9.55
10.66
11.38
11.78
11.96
11.94
11.79
11.54
11.27
11.08
11.04
11.22
11.57
11.98
12.3
12.44
12.34
12.09
11.79
11.5
11.18
10.72
9.96
8.81
7.27
5.42
3.4
1.35
-0.67
-2.68
-4.75
-6.93
-9.26
-11.7
-14.22
-16.73
-19.2
-21.62
-24.05
-26.62
-29.47
-32.75
-36.52
-40.74
-45.27
-49.9
-54.46
-58.95
-63.56
-68.62
-74.47
-81.28
-88.92
-96.82
-104.13
-109.79
-112.88
-112.97
-110.43
-106.49
-102.94
-101.71
-104.14
-110.37
-118.81
-126.68
-130.85
-128.89
-119.86
-104.87
-86.76
-69.66
-57.94
-54.66
-60.66
-74.14
-90.93
-105.76
-114.08
-113.42
-104.18
-89.19
-71.73
-54.7
-39.92
-28.16
-19.05
-11.29
-2.21
11.3
31.65
60.3
95.28
130.93
159.92
176.75
179.99
173.59
163.7
155.71
155.0
163.42
178.98
197.05
213.08
223.42
228.34
229.37
228.73
233.17
248.05
274.31
307.55
340.82
366.63
383.15
391.21
393.44
398.65
414.16
441.98
477.85
514.58
543.81
563.21
572.11
535.93
436.49
282.74
109.31
-46.91
-153.88
-222.7
-266.45
-294.17
-309.74
-310.27
-291.42
-252.88
-201.25
-147.73
-106.55
-85.76
-88.86
-113.18
-148.22
-182.37
-208.2
-222.91
-225.3
-218.57
-205.98
-198.24
-196.76
-198.23
-201.39
-204.12
-208.72
-217.2
-229.79
-241.97
-248.22
-243.99
-228.0
-202.62
-172.43
-142.97
-118.23
-100.48
-89.04
-82.03
-76.71
-71.24
-64.6
-56.4
-47.27
-38.23
-30.67
-25.41
-22.67
-21.57
-21.34
-21.09
-19.88
-17.23
-13.06
-7.87
-2.39
2.72
7.35
11.43
14.99
18.22
21.14
23.74
25.87
27.36
28.15
28.33
28.05
27.46
26.8
26.2
25.74
25.46
25.35
25.37
25.43
25.49
25.56
25.67
25.78
25.79
25.53
24.88
23.82
22.45
21.06
20.02
19.63
19.85
20.34
20.56
20.18
19.21
17.83
16.52
15.91
16.44
18.01
19.95
21.41
21.93
21.55
20.38
19.03
18.4
19.24
21.54
24.36
26.3
26.54
24.68
20.59
15.13
10.35
8.75
12.16
20.73
32.99
46.59
57.71
61.38
53.82
34.25
5.32
-28.1
-61.04
-89.96
-113.34
-126.56
-128.45
-122.39
-113.85
-105.79
-97.25
-85.97
-74.67
-62.51
-49.92
-38.81
-30.55
-25.24
-22.11
-19.06
-16.11
-14.03
-12.89
-12.8
-13.84
-15.41
-16.35
-15.69
-13.42
-10.81
-9.19
-8.65
-8.75
-8.85
-8.1
-5.77
-1.59
4.14
10.53
16.88
23.28
29.78
36.14
41.88
46.45
49.47
50.97
51.22
50.81
50.29
49.44
47.25
42.34
33.69
21.15
5.57
-11.55
-28.45
-43.49
-55.47
-63.5
-67.13
-66.48
-62.35
-56.12
-49.31
-42.98
-37.47
-32.5
-27.64
-22.78
-18.22
-14.39
-11.48
-9.16
-6.83
-4.03
-0.76
2.69
6.05
9.52
13.71
19.22
26.17
33.85
41.03
46.37
49.01
48.78
46.12
41.84
36.94
32.37
29.0
27.4
27.71
29.5
31.9
33.85
34.53
33.61
31.29
28.12
24.76
21.75
19.48
18.18
17.94
18.73
20.34
22.37
24.32
25.68
26.08
25.4
23.81
21.71
19.53
17.61
16.03
14.66
13.3
11.73
9.91
7.86
5.68
3.43
1.13
-1.11
-3.1
-4.54
-5.12
-4.6
-2.98
-0.53
2.31
5.02
7.13
8.33
8.46
7.47
5.43
2.5
-1.1
-5.08
-9.07
-12.7
-15.6
-17.55
-18.54
-18.81
-18.76
-18.88
-19.6
-21.14
-23.45
-26.26
-29.08
-31.32
-32.46
-32.11
-30.14
-26.7
-22.13
-16.89
-11.36
-5.79
-0.29
5.07
10.15
14.64
18.13
20.25
20.9
20.33
19.15
18.14
17.94
18.85
20.71
23.02
25.14
26.49
26.73
25.74
23.62
20.59
16.97
13.11
9.43
6.27
3.94
2.48
1.74
1.28
0.56
-0.95
-3.5
-6.97
-10.91
-14.68
-17.78
-20.01
-21.5
-22.65
-23.84
-25.34
-27.22
-29.35
-31.54
-33.46
-34.74
-34.94
-33.68
-30.76
-26.27
-20.55
-14.11
-7.43
-0.86
5.44
11.35
16.75
21.45
25.24
27.98
29.69
30.55
30.87
30.93
30.85
30.62
30.1
29.21
27.98
26.69
25.68
25.27
25.58
26.39
27.23
27.5
26.61
24.27
20.57
16.01
11.41
7.76
5.84
6.05
8.13
11.24
14.13
15.62
14.92
11.87
6.97
1.09
-4.88
-10.31
-14.92
-18.76
-21.97
-24.61
-26.56
-27.61
-27.57
-26.34
-24.04
-20.91
-17.21
-13.15
-8.83
-4.32
0.28
4.76
8.82
12.13
14.45
15.77
16.3
16.42
16.51
16.76
17.13
17.41
17.32
16.71
15.69
14.52
13.52
12.94
12.78
12.93
13.17
13.29
13.14
12.6
11.61
10.21
8.54
6.82
5.28
3.98
2.8
1.51
-0.1
-2.07
-4.18
-6.14
-7.68
-8.8
-9.67
-10.62
-11.92
-13.69
-15.92
-18.5
-21.31
-24.21
-27.0
-29.33
-30.8
-30.97
-29.54
-26.47
-22.02
-16.67
-10.99
-5.5
-0.49
3.91
7.72
11.02
13.8
16.0
17.53
18.31
18.43
18.08
17.49
16.88
16.35
15.9
15.49
15.06
14.68
14.39
14.23
14.19
14.16
13.99
13.54
12.79
11.81
10.76
9.78
8.97
8.28
7.58
6.7
5.48
3.89
1.98
-0.11
-2.25
-4.35
-6.38
-8.35
-10.25
-12.02
-13.61
-14.99
-16.26
-17.61
-19.21
-21.18
-23.47
-25.85
-27.94
-29.36
-29.75
-28.88
-26.64
-23.1
-18.45
-13.02
-7.21
-1.47
3.77
8.19
11.59
13.95
15.39
16.13
16.42
16.48
16.41
16.25
15.97
15.56
15.01
14.37
13.75
13.22
12.85
12.64
12.52
12.41
12.25
12.0
11.67
11.24
10.7
10.04
9.2
8.18
7.01
5.7
4.3
2.83
1.36
-0.05
-1.28
-2.31
-3.18
-4.03
-5.02
-6.22
-7.58
-8.95
-10.16
-11.1
-11.81
-12.47
-13.29
-14.5
-16.24
-18.49
-21.01
-23.4
-25.09
-25.53
-24.37
-21.57
-17.39
-12.29
-6.71
-1.0
4.72
10.42
16.06
21.47
26.34
30.34
33.29
35.33
36.91
38.64
41.02
44.26
48.11
52.08
55.69
58.83
61.85
65.41
70.17
76.33
83.43
90.4
96.03
99.47
100.7
100.61
100.74
102.88
108.51
118.42
132.26
148.21
162.81
171.45
169.42
153.42
122.99
81.17
33.76
-12.31
-51.2
-79.64
-97.43
-106.63
-110.29
-111.25
-111.54
-112.44
-114.78
-119.26
-126.45
-136.53
-149.04
-162.72
-175.61
-185.51
-190.56
-189.65
-182.65
-170.24
-153.68
-134.43
-113.98
-93.75
-74.97
-58.57
-44.97
-34.01
-25.06
-17.31
-10.22
-3.71
1.91
6.22
8.98
10.23
10.21
9.32
8.02
6.85
6.36
7.0
8.86
11.62
14.59
16.95
17.95
17.12
14.26
9.49
3.34
-3.31
-9.21
-13.13
-14.26
-12.56
-8.77
-3.93
1.12
6.11
11.25
16.71
22.27
27.22
30.86
33.05
34.55
36.77
40.95
47.26
54.17
58.84
58.25
50.68
36.85
19.97
4.73
-4.55
-5.55
1.13
12.37
23.75
31.33
32.89
28.44
19.74
9.23
-0.93
-9.59
-16.54
-22.15
-26.82
-30.54
-32.94
-33.61
-32.6
-30.52
-28.41
-27.23
-27.36
-28.38
-29.34
-29.27
-27.77
-25.23
-22.65
-21.12
-21.31
-23.18
-25.98
-28.62
-30.16
-30.1
-28.59
-26.3
-24.2
-23.21
-23.88
-26.17
-29.41
-32.61
-34.82
-35.62
-35.26
-34.47
-34.06
-34.38
-35.15
-35.56
-34.74
-32.17
-27.89
-22.47
-16.68
-11.21
-6.47
-2.59
0.54
3.09
5.27
7.19
8.93
10.52
11.99
13.44
15.06
16.99
19.31
21.94
24.61
26.99
28.76
29.71
29.74
28.81
26.91
24.07
20.43
16.3
12.08
8.21
4.92
2.18
-0.25
-2.76
-5.62
-8.92
-12.49
-16.05
-19.28
-22.02
-24.28
-26.23
-28.15
-30.26
-32.74
-35.59
-38.61
-41.43
-43.55
-44.53
-44.17
-42.66
-40.56
-38.57
-37.32
-37.12
-37.9
-39.28
-40.77
-41.88
-42.23
-41.55
-39.78
-37.14
-34.14
-31.5
-29.95
-29.93
-31.41
-33.95
-36.96
-40.07
-43.44
-47.75
-53.97
-62.87
-74.66
-88.81
-104.19
-119.42
-133.16
-144.2
-151.53
-154.14
-151.08
-141.65
-125.58
-103.02
-74.58
-41.21
-4.09
35.31
75.23
113.67
148.57
178.11
201.07
217.05
226.49
230.45
230.22
226.99
221.58
214.52
206.19
196.96
187.28
177.33
166.74
154.58
139.91
122.56
103.74
85.78
70.9
60.1
52.63
46.56
40.07
32.8
26.1
22.37
23.71
30.66
41.8
54.24
64.61
70.16
69.33
61.99
49.29
33.38
17.0
2.89
-6.89
-11.54
-11.68
-9.02
-5.64
-3.19
-2.37
-2.94
-4.3
-6.18
-8.98
-13.64
-20.94
-30.78
-41.84
-52.26
-60.75
-67.67
-75.11
-85.89
-101.89
-122.59
-144.84
-163.99
-175.69
-177.59
-169.88
-154.59
-134.28
-110.94
-85.9
-60.66
-37.61
-20.06
-11.17
-12.33
-22.08
-36.37
-49.99
-58.46
-59.52
-53.31
-41.53
-26.13
-8.43
10.86
31.04
50.75
68.02
80.87
88.29
90.67
89.58
86.95
84.18
81.63
78.68
74.2
67.13
56.94
43.86
28.89
13.59
-0.33
-11.5
-19.27
-23.93
-26.51
-28.29
-30.19
-32.36
-34.17
-34.6
-32.8
-28.58
-22.51
-15.6
-8.86
-2.83
2.54
7.71
13.13
18.85
24.4
28.95
31.72
32.29
30.79
27.79
24.09
20.39
17.17
14.62
12.71
11.27
10.1
8.9
7.42
5.45
2.92
0.0
-2.85
-5.05
-6.07
-5.7
-4.2
-2.2
-0.45
0.47
0.36
-0.6
-2.12
-3.96
-6.06
-8.44
-10.99
-13.44
-15.31
-16.18
-15.89
-14.61
-12.75
-10.69
-8.65
-6.56
-4.29
-1.74
0.99
3.67
6.08
8.07
9.64
10.82
11.58
11.88
11.67
11.03
10.16
9.33
8.79
8.61
8.71
8.93
9.16
9.35
9.55
9.84
10.24
10.67
11.0
11.04
10.63
9.67
8.23
6.46
4.57
2.71
0.83
-1.26
-3.84
-7.08
-10.83
-14.61
-17.64
-19.21
-18.89
-16.75
-13.33
-9.44
-5.93
-3.38
-2.05
-1.87
-2.53
-3.58
-4.61
-5.29
-5.53
-5.51
-5.6
-6.18
-7.48
-9.41
-11.58
-13.43
-14.48
-14.52
-13.76
-12.66
-11.83
-11.72
-12.51
-14.02
-15.87
-17.64
-19.02
-19.97
-20.69
-21.45
-22.38
-23.19
-23.04
-20.75
-15.23
-6.04
6.23
19.94
33.01
43.65
51.0
55.31
57.52
58.72
59.67
60.66
61.55
61.84
60.71
57.03
49.75
38.54
24.31
9.26
-3.9
-12.99
-17.3
-17.79
-16.28
-14.42
-12.83
-11.01
-7.83
-2.29
5.93
16.38
28.05
39.63
49.8
57.46
62.05
63.65
62.93
60.82
58.03
54.67
50.22
43.84
34.76
22.78
8.29
-7.69
-23.76
-38.31
-49.73
-56.7
-58.47
-55.13
-47.7
-37.86
-27.58
-18.48
-11.58
-7.13
-4.8
-3.97
-4.03
-4.48
-4.93
-5.09
-4.72
-3.76
-2.36
-0.88
0.26
0.73
0.46
-0.32
-1.23
-1.91
-2.21
-2.28
-2.42
-2.9
-3.78
-4.88
-5.92
-6.74
-7.4
-8.19
-9.49
-11.5
-14.11
-16.89
-19.24
-20.64
-20.74
-19.44
-16.86
-13.25
-8.93
-4.28
0.32
4.5
7.99
10.66
12.52
13.66
14.26
14.43
14.28
13.86
13.2
12.35
11.41
10.45
9.54
8.72
7.94
7.21
6.51
5.84
5.18
4.47
3.61
2.52
1.24
-0.1
-1.34
-2.32
-3.04
-3.66
-4.42
-5.61
-7.4
-9.9
-13.07
-16.77
-20.7
-24.39
-27.3
-28.96
-29.08
-27.75
-25.31
-22.27
-19.15
-16.27
-13.73
-11.45
-9.24
-6.9
-4.34
-1.57
1.2
3.65
5.36
5.99
5.44
3.95
2.02
0.25
-0.92
-1.35
-1.18
-0.7
-0.13
0.41
0.8
0.87
0.38
-0.78
-2.44
-4.04
-4.88
-4.45
-2.8
-0.55
1.33
2.06
1.36
-0.5
-2.9
-5.26
-7.26
-8.85
-10.16
-11.35
-12.55
-13.92
-15.64
-17.83
-20.32
-22.56
-23.68
-22.73
-19.1
-12.82
-4.61
4.38
12.93
20.13
25.51
29.0
30.75
31.03
30.22
28.86
27.58
27.06
27.77
29.8
32.84
36.27
39.38
41.54
42.29
41.42
38.89
34.88
29.78
24.11
18.45
13.28
8.9
5.43
2.88
1.29
0.74
1.26
2.79
5.16
8.13
11.39
14.69
17.71
20.14
21.66
22.01
21.05
18.82
15.39
10.84
5.21
-1.36
-8.52
-15.62
-21.78
-26.11
-28.04
-27.39
-24.42
-19.62
-13.64
-7.16
-0.82
4.75
9.09
12.01
13.68
14.56
15.21
16.03
16.96
17.35
15.89
10.97
1.24
-13.68
-32.46
-52.12
-68.59
-78.04
-78.07
-68.34
-50.35
-26.56
0.53
28.67
55.82
79.73
97.95
108.29
109.54
101.82
86.51
65.59
41.07
14.67
-12.06
-37.45
-59.7
-77.23
-89.17
-95.62
-97.6
-96.56
-93.85
-90.37
-86.49
-82.31
-77.92
-73.59
-69.74
-66.73
-64.69
-63.29
-61.82
-59.35
-55.15
-48.95
-41.06
-32.23
-23.33
-14.97
-7.37
-0.37
6.25
12.51
18.14
22.67
25.72
27.24
27.58
27.34
27.05
26.97
27.06
27.06
26.78
26.24
25.67
25.34
25.4
25.76
26.09
26.02
25.28
23.86
22.0
19.99
18.12
16.45
14.92
13.4
11.77
10.0
8.14
6.21
4.24
2.2
0.12
-1.89
-3.58
-4.67
-5.0
-4.59
-3.73
-2.85
-2.4
-2.7
-3.85
-5.74
-8.16
-10.92
-13.87
-16.92
-19.94
-22.64
-24.58
-25.27
-24.35
-21.76
-17.73
-12.75
-7.35
-1.99
3.06
7.64
11.64
14.96
17.49
19.14
19.94
19.99
19.47
18.54
17.34
16.0
14.65
13.48
12.65
12.24
12.24
12.46
12.68
12.69
12.4
11.85
11.16
10.44
9.73
9.0
8.22
7.34
6.38
5.33
4.19
2.92
1.49
-0.06
-1.66
-3.17
-4.49
-5.57
-6.45
-7.25
-8.14
-9.21
-10.48
-11.85
-13.21
-14.46
-15.57
-16.63
-17.77
-19.15
-20.85
-22.83
-24.92
-26.78
-27.97
-28.04
-26.69
-23.85
-19.71
-14.64
-9.05
-3.36
2.1
7.01
11.06
14.03
15.86
16.67
16.78
16.54
16.22
15.94
15.7
15.42
15.05
14.52
13.89
13.23
12.72
12.54
12.86
13.7
14.95
16.33
17.55
18.38
18.8
18.98
19.24
19.87
21.02
22.59
24.15
24.99
24.28
21.33
15.79
7.82
-1.87
-12.25
-22.15
-30.54
-36.73
-40.29
-41.06
-39.03
-34.37
-27.52
-19.27
-10.72
-3.16
2.26
4.75
4.05
0.43
-5.38
-12.39
-19.47
-25.5
-29.5
-30.78
-29.12
-24.76
-18.39
-11.02
-3.67
2.76
7.69
10.89
12.5
12.93
12.72
12.43
12.46
13.01
14.03
15.26
16.37
17.03
17.06
16.47
15.42
14.2
13.06
12.17
11.57
11.2
10.93
10.58
9.98
9.04
7.77
6.28
4.8
3.54
2.63
2.05
1.61
1.06
0.26
-0.79
-1.97
-3.08
-4.08
-5.02
-6.1
-7.5
-9.26
-11.25
-13.2
-14.8
-15.9
-16.58
-17.12
-17.92
-19.3
-21.35
-23.83
-26.27
-28.0
-28.47
-27.32
-24.56
-20.51
-15.66
-10.51
-5.45
-0.7
3.64
7.6
11.22
14.49
17.32
19.51
20.81
21.01
20.09
18.37
16.36
14.63
13.46
12.93
12.75
12.61
12.37
12.11
12.05
12.32
12.82
13.25
13.37
13.1
12.52
11.82
11.11
10.36
9.48
8.45
7.35
6.54
6.22
6.31
6.45
6.12
4.98
3.06
0.84
-1.26
-2.39
-2.43
-1.77
-1.19
-1.46
-3.04
-5.85
-9.27
-12.77
-14.67
-14.21
-11.27
-6.42
-0.75
4.64
9.13
12.9
16.11
20.9
28.1
37.69
48.49
58.31
64.28
63.41
53.25
31.66
0.98
-35.02
-70.2
-97.42
-110.85
-108.0
-90.63
-57.32
-23.21
8.41
35.45
57.78
75.55
87.93
92.94
88.65
74.58
51.46
23.79
-5.02
-32.48
-57.09
-77.59
-92.45
-100.02
-99.54
-92.91
-82.36
-72.27
-66.47
-66.79
-72.34
-79.98
-85.4
-84.44
-74.65
-54.59
-25.92
7.27
39.3
64.48
78.78
81.04
73.08
58.58
42.24
27.48
15.92
7.31
0.14
-7.53
-17.11
-28.68
-40.51
-48.96
-49.59
-38.58
-14.37
21.41
64.17
107.63
145.42
172.44
185.28
181.97
161.78
125.48
76.2
19.94
-35.08
-80.33
-109.62
-121.14
-117.77
-105.67
-91.66
-80.87
-75.46
-74.79
-76.42
-77.31
-74.72
-66.8
-52.93
-33.96
-11.97
10.23
30.02
45.59
55.92
60.09
56.88
45.0
24.37
-2.49
-30.02
-51.15
-60.09
-55.22
-40.06
-21.61
-7.03
-0.24
-0.67
-4.46
-7.29
-6.9
-3.99
-1.07
-0.51
-3.06
-7.62
-12.26
-15.52
-17.14
-17.97
-19.18
-21.44
-24.56
-27.73
-30.25
-32.16
-34.44
-38.59
-45.75
-55.5
-65.13
-69.75
-63.83
-43.45
-8.49
36.44
83.11
122.36
147.2
155.0
147.74
130.51
109.12
88.15
70.06
55.49
44.14
35.43
28.81
23.61
18.98
13.95
7.78
0.21
-8.37
-16.88
-23.89
-28.06
-28.6
-25.57
-19.95
-13.31
-7.24
-2.9
-0.68
-0.27
-0.98
-2.1
-3.16
-3.99
-4.58
-4.99
-5.17
-5.04
-4.5
-3.48
-2.06
-0.37
1.36
2.89
4.01
4.63
4.81
4.72
4.62
4.66
4.91
5.29
5.66
5.81
5.53
4.6
2.95
0.6
-2.15
-4.9
-7.25
-8.99
-10.17
-11.04
-11.96
-13.19
-14.85
-16.96
-19.47
-22.27
-25.15
-27.75
-29.51
-29.91
-28.54
-25.32
-20.57
-14.85
-8.84
-3.11
1.95
6.2
9.69
12.53
14.79
16.48
17.58
18.09
18.12
17.85
17.55
17.4
17.49
17.82
18.25
18.71
19.13
19.5
19.81
20.0
19.98
19.65
18.97
17.98
16.79
15.54
14.33
13.17
11.98
10.65
9.08
7.29
5.35
3.4
1.54
-0.18
-1.78
-3.33
-4.88
-6.48
-8.16
-9.91
-11.74
-13.65
-15.67
-17.82
-20.15
-22.7
-25.44
-28.25
-30.88
-32.92
-33.9
-33.35
-31.0
-26.86
-21.2
-14.57
-7.61
-0.95
4.96
9.88
13.73
16.61
18.61
19.88
20.51
20.6
20.27
19.7
19.11
18.71
18.68
19.07
19.79
20.68
21.52
22.11
22.39
22.35
22.03
21.5
20.79
19.9
18.85
17.65
16.36
15.02
13.67
12.35
11.07
9.84
8.68
7.58
6.48
5.3
3.98
2.52
1.01
-0.45
-1.74
-2.83
-3.77
-4.66
-5.63
-6.77
-8.1
-9.57
-11.12
-12.66
-14.2
-15.77
-17.42
-19.26
-21.35
-23.73
-26.38
-29.14
-31.68
-33.51
-34.07
-32.83
-29.54
-24.28
-17.55
-10.09
-2.75
3.79
9.13
13.16
15.98
17.8
18.81
19.15
18.93
18.32
17.52
16.79
16.33
16.22
16.43
16.84
17.31
17.7
17.94
18.06
18.07
18.04
17.96
17.77
17.39
16.72
15.76
14.59
13.33
12.11
10.99
9.92
8.8
7.56
6.17
4.69
3.21
1.8
0.52
-0.62
-1.65
-2.56
-3.4
-4.2
-5.01
-5.91
-6.93
-8.06
-9.29
-10.57
-11.86
-13.14
-14.41
-15.74
-17.21
-18.96
-21.09
-23.57
-26.2
-28.62
-30.36
-30.92
-29.94
-27.29
-23.13
-17.83
-11.93
-5.93
-0.26
4.82
9.17
12.67
15.23
16.78
17.35
17.09
16.29
15.22
14.16
13.22
12.43
11.77
11.23
10.87
10.8
11.12
11.85
12.88
14.03
15.06
15.78
16.09
15.97
15.48
14.67
13.59
12.26
10.71
8.94
7.03
5.05
3.08
1.25
-0.35
-1.63
-2.61
-3.36
-4.07
-4.93
-6.11
-7.62
-9.39
-11.27
-13.1
-14.76
-16.21
-17.49
-18.67
-19.93
-21.44
-23.36
-25.65
-28.04
-30.02
-30.94
-30.24
-27.66
-23.35
-17.8
-11.67
-5.64
-0.17
4.48
8.25
11.18
13.33
14.74
15.45
15.5
15.01
14.13
13.06
11.99
11.05
10.32
9.86
9.72
9.94
10.55
11.53
12.76
14.04
15.06
15.59
15.46
14.7
13.45
11.92
10.28
8.63
7.02
5.45
3.93
2.52
1.22
0.01
-1.19
-2.42
-3.74
-5.08
-6.43
-7.72
-8.99
-10.3
-11.71
-13.25
-14.88
-16.56
-18.2
-19.79
-21.38
-23.07
-24.97
-27.07
-29.18
-30.94
-31.84
-31.42
-29.4
-25.75
-20.75
-14.86
-8.64
-2.6
2.78
7.19
10.51
12.76
14.11
14.78
14.96
14.75
14.19
13.35
12.31
11.29
10.51
10.15
10.32
10.99
12.01
13.17
14.27
15.11
15.58
15.61
15.21
14.49
13.57
12.59
11.64
10.7
9.66
8.41
6.91
5.23
3.56
2.07
0.84
-0.2
-1.22
-2.38
-3.71
-5.18
-6.69
-8.15
-9.53
-10.84
-12.12
-13.42
-14.84
-16.48
-18.5
-20.87
-23.41
-25.69
-27.16
-27.35
-26.01
-23.2
-19.24
-14.53
-9.48
-4.43
0.31
4.46
7.79
10.1
11.32
11.53
10.94
9.88
8.66
7.58
6.84
6.54
6.69
7.25
8.16
9.33
10.68
12.12
13.52
14.75
15.59
15.85
15.41
14.24
12.51
10.44
8.32
6.34
4.58
2.99
1.43
-0.28
-2.23
-4.46
-6.84
-9.16
-11.2
-12.8
-13.95
-14.81
-15.63
-16.62
-17.92
-19.5
-21.27
-23.06
-24.68
-25.87
-26.35
-25.81
-23.99
-20.81
-16.38
-10.99
-5.09
0.84
6.35
11.06
14.71
17.22
18.62
19.05
18.71
17.84
16.68
15.46
14.4
13.61
13.12
12.91
12.92
13.14
13.65
14.47
15.6
16.85
17.93
18.57
18.62
18.18
17.51
16.95
16.65
16.55
16.34
15.67
14.32
12.37
10.2
8.32
7.18
6.94
7.43
8.21
8.73
8.55
7.52
5.75
3.63
1.68
0.34
-0.18
-0.12
-0.27
-1.93
-6.65
-15.75
-29.79
-48.02
-68.31
-87.44
-101.93
-109.06
-107.69
-98.53
-83.72
-66.08
-48.23
-32.01
-18.49
-8.18
-1.37
1.8
1.51
-1.43
-5.49
-8.6
-8.76
-4.78
3.29
14.14
25.72
36.14
44.27
50.04
54.14
57.45
60.57
63.62
66.46
68.9
70.78
71.65
70.48
65.67
55.74
40.22
20.59
0.11
-17.16
-27.89
-30.82
-27.11
-19.56
-11.39
-5.06
-1.81
-1.9
-5.09
-10.93
-18.73
-27.29
-34.88
-39.6
-40.06
-35.99
-28.41
-19.24
-10.61
-4.21
-0.88
-0.77
-3.57
-8.93
-16.44
-25.41
-34.59
-42.23
-46.61
-46.65
-42.51
-35.47
-27.35
-19.68
-13.04
-7.02
-0.68
6.85
15.95
26.4
37.62
48.93
59.67
69.24
77.08
82.71
85.55
84.96
80.17
70.72
57.1
41.29
26.59
16.62
13.67
17.48
25.13
32.27
35.25
32.82
26.41
19.12
13.78
11.68
12.26
14.12
16.18
18.32
20.87
23.75
25.83
25.17
20.12
10.34
-2.74
-16.46
-28.02
-35.57
-38.73
-38.42
-36.3
-34.0
-32.66
-32.67
-33.76
-35.32
-36.82
-38.13
-39.55
-41.4
-43.51
-44.88
-43.92
-39.36
-31.16
-20.92
-11.37
-5.1
-3.44
-5.93
-10.78
-15.91
-19.9
-22.41
-23.83
-24.69
-25.18
-25.12
-24.2
-22.36
-19.95
-17.54
-15.6
-14.28
-13.4
-12.59
-11.56
-10.29
-9.05
-8.23
-8.13
-8.78
-9.93
-11.12
-11.93
-12.18
-12.01
-11.8
-11.99
-12.86
-14.38
-16.29
-18.19
-19.71
-20.62
-20.96
-20.96
-20.98
-21.16
-21.18
-19.95
-15.8
-7.2
6.35
23.7
42.01
57.74
67.84
70.64
65.85
53.94
35.53
11.5
-16.47
-45.22
-70.29
-86.99
-91.94
-84.16
-65.18
-38.33
-7.69
22.72
49.27
69.02
80.11
82.22
76.79
66.5
54.33
42.54
32.13
23.12
15.08
7.6
0.5
-6.18
-12.26
-17.29
-20.49
-20.79
-17.27
-9.68
1.14
13.26
24.1
31.25
33.27
30.22
23.56
15.67
9.03
5.48
5.78
9.65
16.06
23.67
31.16
37.33
41.23
42.2
40.1
35.34
28.85
21.79
15.17
9.61
5.18
1.56
-1.74
-5.13
-8.81
-12.8
-17.02
-21.43
-26.02
-30.82
-35.69
-40.26
-43.88
-45.87
-45.71
-43.33
-39.08
-33.63
-27.66
-21.65
-15.84
-10.29
-5.07
-0.37
3.51
6.31
7.93
8.46
8.2
7.5
6.76
6.26
6.2
6.65
7.59
8.91
10.42
11.93
13.25
14.25
14.82
14.89
14.47
13.65
12.58
11.47
10.47
9.7
9.13
8.68
8.24
7.75
7.18
6.54
5.85
5.06
4.11
2.99
1.71
0.36
-0.97
-2.25
-3.47
-4.68
-5.86
-6.97
-7.92
-8.7
-9.38
-10.17
-11.33
-13.11
-15.58
-18.61
-21.88
-24.9
-27.18
-28.26
-27.83
-25.78
-22.18
-17.33
-11.67
-5.7
0.11
5.35
9.76
13.23
15.76
17.46
18.47
18.93
18.96
18.68
18.22
17.72
17.31
17.11
17.16
17.4
17.72
18.03
18.32
18.67
19.26
20.17
21.39
22.71
23.83
24.42
24.37
23.76
22.88
21.99
21.24
20.56
19.8
18.88
17.85
16.89
16.14
15.56
14.98
14.11
12.77
10.86
8.47
5.69
2.68
-0.34
-3.04
-5.1
-6.39
-7.18
-8.25
-10.78
-16.09
-25.23
-38.49
-55.12
-73.14
-89.64
-101.31
-105.28
-100.0
-85.73
-64.57
-39.88
-15.41
5.59
21.0
30.11
33.38
32.12
28.09
23.03
18.33
14.83
12.82
12.08
12.12
12.36
12.33
11.77
10.7
9.41
8.33
7.87
8.27
9.45
11.07
12.6
13.54
13.6
12.82
11.5
10.05
8.87
8.13
7.75
7.45
6.87
5.78
4.14
2.13
0.07
-1.74
-3.13
-4.09
-4.79
-5.45
-6.28
-7.37
-8.68
-10.1
-11.53
-12.88
-14.15
-15.36
-16.57
-17.84
-19.27
-20.93
-22.89
-25.08
-27.29
-29.15
-30.19
-29.93
-28.04
-24.46
-19.41
-13.39
-7.06
-1.02
4.27
8.62
12.0
14.51
16.19
17.07
17.14
16.48
15.28
13.84
12.48
11.45
10.88
10.77
11.09
11.77
12.72
13.84
14.97
15.9
16.47
16.54
16.1
15.27
14.18
12.99
11.8
10.58
9.29
7.9
6.46
5.06
3.78
2.61
1.46
0.24
-1.11
-2.53
-3.92
-5.22
-6.46
-7.76
-9.21
-10.83
-12.52
-14.14
-15.58
-16.85
-18.06
-19.38
-21.04
-23.15
-25.71
-28.47
-30.89
-32.26
-31.91
-29.47
-25.01
-19.03
-12.31
-5.62
0.45
5.59
9.65
12.63
14.61
15.68
16.06
15.94
15.52
14.92
14.19
13.35
12.5
11.81
11.45
11.55
12.05
12.8
13.61
14.32
14.85
15.2
15.34
15.2
14.74
13.93
12.89
11.82
10.9
10.16
9.43
8.44
6.97
5.04
2.97
1.19
0.04
-0.47
-0.59
-0.82
-1.56
-3.01
-5.07
-7.46
-9.85
-11.99
-13.79
-15.31
-16.74
-18.28
-20.15
-22.43
-25.11
-27.98
-30.76
-33.11
-34.71
-35.38
-34.99
-33.48
-30.79
-26.85
-21.66
-15.32
-8.09
-0.26
7.76
15.34
21.51
24.96
24.42
19.26
10.08
-1.2
-11.71
-18.66
-20.32
-16.64
-9.11
0.04
8.7
15.59
20.41
23.51
25.35
26.15
25.76
23.89
20.47
15.94
11.23
7.39
5.03
3.86
2.8
0.49
-3.88
-10.03
-16.5
-21.26
-22.52
-19.33
-11.84
-1.11
11.26
23.4
33.49
40.0
41.97
39.3
32.74
23.67
13.65
3.95
-4.66
-11.85
-17.53
-21.73
-24.56
-26.28
-27.31
-28.05
-28.7
-29.08
-28.74
-27.15
-23.97
-19.25
-13.32
-6.74
-0.09
6.12
11.51
15.82
18.91
20.83
21.75
21.93
21.58
20.88
19.91
18.76
17.55
16.44
15.56
14.91
14.42
13.97
13.47
12.98
12.63
12.52
12.69
13.05
13.41
13.61
13.54
13.12
12.33
11.19
9.78
8.21
6.67
5.3
4.21
3.42
2.84
2.4
1.98
1.52
0.93
0.14
-0.95
-2.4
-4.21
-6.37
-8.75
-11.14
-13.27
-14.91
-15.95
-16.54
-17.03
-17.89
-19.48
-21.94
-25.06
-28.37
-31.24
-33.01
-33.17
-31.42
-27.77
-22.52
-16.24
-9.59
-3.21
2.44
7.1
10.66
13.17
14.71
15.46
15.65
15.55
15.37
15.21
15.06
14.83
14.46
14.0
13.57
13.36
13.47
13.95
14.71
15.6
16.45
17.08
17.32
17.04
16.17
14.74
12.93
11.01
9.27
7.95
7.13
6.68
6.36
5.86
5.0
3.73
2.18
0.56
-0.95
-2.21
-3.26
-4.2
-5.19
-6.38
-7.82
-9.48
-11.21
-12.83
-14.17
-15.18
-15.9
-16.54
-17.35
-18.55
-20.25
-22.32
-24.4
-25.98
-26.5
-25.55
-22.99
-18.98
-13.98
-8.55
-3.26
1.46
5.39
8.45
10.72
12.3
13.26
13.65
13.52
12.95
12.13
11.26
10.55
10.07
9.85
9.87
10.15
10.71
11.52
12.41
13.13
13.43
13.18
12.47
11.56
10.7
10.0
9.35
8.55
7.44
5.99
4.38
2.82
1.44
0.23
-0.93
-2.21
-3.65
-5.19
-6.71
-8.1
-9.34
-10.5
-11.68
-12.93
-14.18
-15.31
-16.28
-17.21
-18.34
-19.91
-21.92
-24.0
-25.51
-25.71
-24.09
-20.6
-15.63
-9.88
-4.09
1.16
5.54
8.96
11.42
12.99
13.75
13.86
13.45
12.72
11.8
10.8
9.85
9.09
8.63
8.59
8.93
9.54
10.26
10.93
11.47
11.83
11.96
11.73
11.01
9.74
7.99
5.96
3.94
2.14
0.65
-0.6
-1.72
-2.83
-3.98
-5.17
-6.4
-7.64
-8.88
-10.11
-11.34
-12.63
-14.05
-15.67
-17.51
-19.48
-21.34
-22.73
-23.25
-22.55
-20.45
-17.0
-12.51
-7.42
-2.25
2.56
6.74
10.16
12.77
14.57
15.55
15.74
15.25
14.26
13.06
11.92
11.06
10.56
10.39
10.4
10.45
10.45
10.38
10.25
10.12
10.0
9.86
9.6
9.12
8.3
7.1
5.55
3.81
2.08
0.56
-0.66
-1.65
-2.57
-3.64
-4.98
-6.59
-8.35
-10.12
-11.79
-13.32
-14.74
-16.15
-17.68
-19.48
-21.62
-24.02
-26.36
-28.06
-28.44
-26.9
-23.18
-17.53
-10.62
-3.38
3.33
8.91
13.13
16.09
18.05
19.28
19.95
20.18
20.07
19.74
19.34
19.04
18.94
19.09
19.42
19.83
20.21
20.4
20.36
20.05
19.6
19.19
19.06
19.34
19.98
20.72
21.12
20.83
19.67
17.76
15.5
13.36
11.73
10.7
10.04
9.33
8.09
6.06
3.31
0.24
-2.55
-4.57
-5.63
-6.04
-6.54
-8.06
-11.49
-17.33
-25.58
-35.55
-46.01
-55.35
-62.04
-65.03
-64.07
-59.76
-53.15
-45.31
-36.94
-28.31
-19.56
-11.01
-3.33
2.42
4.91
2.93
-4.2
-16.11
-31.08
-46.16
-57.99
-63.91
-62.99
-56.39
-46.67
-36.59
-27.95
-21.16
-15.7
-10.91
-6.7
-3.38
-1.24
0.06
1.42
3.93
8.13
13.75
19.75
24.87
28.19
29.5
29.22
28.12
26.89
25.83
24.74
23.06
20.16
15.77
10.24
4.53
-0.15
-2.79
-3.16
-1.89
-0.25
0.41
-0.75
-3.73
-7.78
-11.86
-15.09
-17.16
-18.21
-18.57
-18.4
-17.47
-15.33
-11.58
-6.35
-0.37
5.17
9.15
10.99
10.83
9.37
7.42
5.49
3.73
2.08
0.59
-0.43
-0.57
0.44
2.44
5.03
8.03
12.01
18.42
29.01
44.74
64.69
85.9
104.03
115.0
116.55
109.1
95.45
79.45
64.54
52.7
44.31
38.75
35.19
33.0
31.86
31.35
30.77
29.16
25.69
20.06
12.74
4.85
-2.27
-7.63
-11.0
-12.92
-14.48
-16.76
-20.43
-25.51
-31.35
-36.98
-41.52
-44.45
-45.86
-46.26
-46.37
-46.79
-47.72
-48.95
-49.97
-50.22
-49.32
-47.15
-43.88
-39.79
-35.13
-30.03
-24.58
-18.93
-13.34
-8.19
-3.82
-0.46
1.89
3.42
4.36
4.94
5.31
5.58
5.87
6.29
6.96
7.91
9.05
10.23
11.26
12.04
12.56
12.91
13.19
13.4
13.45
13.18
12.4
11.04
9.24
7.34
5.74
4.74
4.39
4.48
4.59
4.29
3.32
1.63
-0.56
-2.93
-5.14
-6.94
-8.19
-8.83
-8.93
-8.64
-8.19
-7.93
-8.16
-9.1
-10.73
-12.83
-15.05
-17.09
-18.85
-20.39
-21.85
-23.29
-24.58
-25.38
-25.31
-24.08
-21.64
-18.11
-13.78
-9.0
-4.15
0.43
4.41
7.55
9.75
11.05
11.62
11.69
11.44
11.0
10.42
9.79
9.19
8.75
8.57
8.68
9.05
9.58
10.19
10.8
11.38
11.91
12.35
12.66
12.8
12.75
12.47
11.94
11.17
10.19
9.09
8.01
7.08
6.37
5.82
5.32
4.71
3.9
2.89
1.72
0.45
-0.84
-2.1
-3.26
-4.22
-4.96
-5.5
-5.96
-6.53
-7.35
-8.41
-9.56
-10.61
-11.36
-11.82
-12.17
-12.71
-13.68
-15.18
-17.02
-18.86
-20.25
-20.81
-20.33
-18.74
-16.15
-12.76
-8.82
-4.62
-0.46
3.39
6.69
9.29
11.13
12.23
12.72
12.77
12.54
12.17
11.71
11.14
10.46
9.69
8.99
8.55
8.54
9.02
9.87
10.89
11.84
12.52
12.86
12.82
12.42
11.65
10.57
9.27
7.91
6.65
5.64
4.91
4.4
3.99
3.52
2.91
2.12
1.2
0.25
-0.65
-1.43
-2.12
-2.78
-3.55
-4.53
-5.8
-7.28
-8.83
-10.2
-11.21
-11.73
-11.81
-11.64
-11.54
-11.85
-12.81
-14.47
-16.68
-19.04
-21.05
-22.21
-22.13
-20.68
-17.95
-14.27
-10.1
-5.9
-2.05
1.22
3.82
5.81
7.28
8.3
8.88
9.02
8.72
8.07
7.26
6.52
6.02
5.87
6.01
6.35
6.82
7.39
8.1
8.92
9.79
10.52
10.95
10.98
10.6
9.92
9.05
8.04
6.92
5.68
4.37
3.06
1.85
0.81
-0.07
-0.83
-1.54
-2.25
-2.97
-3.71
-4.52
-5.42
-6.45
-7.58
-8.69
-9.68
-10.45
-11.06
-11.64
-12.43
-13.61
-15.25
-17.23
-19.28
-21.0
-22.01
-22.0
-20.85
-18.59
-15.43
-11.69
-7.72
-3.8
-0.11
3.25
6.21
8.73
10.7
12.03
12.67
12.66
12.11
11.23
10.25
9.38
8.73
8.31
8.02
7.76
7.5
7.3
7.32
7.67
8.33
9.08
9.64
9.79
9.46
8.72
7.71
6.55
5.34
4.18
3.17
2.4
1.93
1.67
1.41
0.93
0.06
-1.21
-2.77
-4.45
-6.09
-7.59
-8.89
-10.04
-11.09
-12.14
-13.3
-14.67
-16.32
-18.25
-20.37
-22.47
-24.22
-25.22
-25.12
-23.7
-20.97
-17.18
-12.73
-8.07
-3.62
0.32
3.61
6.23
8.24
9.76
10.86
11.55
11.83
11.71
11.26
10.63
9.99
9.5
9.24
9.2
9.38
9.77
10.34
11.02
11.69
12.2
12.42
12.31
11.93
11.42
10.94
10.59
10.35
10.08
9.55
8.55
7.05
5.18
3.28
1.69
0.58
-0.09
-0.62
-1.35
-2.49
-4.04
-5.76
-7.4
-8.76
-9.82
-10.73
-11.69
-12.9
-14.44
-16.29
-18.36
-20.47
-22.34
-23.66
-24.07
-23.28
-21.17
-17.83
-13.6
-8.94
-4.3
-0.03
3.69
6.85
9.47
11.59
13.15
14.1
14.43
14.26
13.79
13.22
12.74
12.41
12.17
11.94
11.7
11.48
11.41
11.59
12.05
12.71
13.42
13.99
14.24
14.05
13.37
12.29
10.96
9.61
8.45
7.53
6.75
5.91
4.86
3.6
2.29
1.18
0.43
0.0
-0.33
-0.84
-1.68
-2.86
-4.22
-5.57
-6.79
-7.87
-8.87
-9.89
-11.03
-12.32
-13.77
-15.34
-16.98
-18.59
-20.02
-21.08
-21.55
-21.19
-19.84
-17.45
-14.17
-10.26
-6.08
-1.98
1.79
5.09
7.86
10.08
11.71
12.77
13.27
13.28
12.89
12.19
11.3
10.33
9.44
8.77
8.43
8.46
8.83
9.47
10.29
11.18
12.01
12.66
12.99
12.88
12.32
11.39
10.25
9.07
7.99
7.04
6.18
5.33
4.4
3.31
2.08
0.77
-0.5
-1.57
-2.36
-2.87
-3.24
-3.67
-4.34
-5.36
-6.66
-8.1
-9.48
-10.69
-11.72
-12.66
-13.65
-14.82
-16.26
-17.99
-19.94
-21.96
-23.74
-24.92
-25.09
-23.97
-21.43
-17.6
-12.82
-7.62
-2.56
1.85
5.31
7.74
9.27
10.14
10.62
10.87
10.97
10.88
10.59
10.16
9.69
9.35
9.27
9.5
9.98
10.64
11.4
12.25
13.21
14.3
15.44
16.49
17.23
17.49
17.2
16.44
15.36
14.18
13.04
12.03
11.11
10.2
9.16
7.85
6.23
4.41
2.63
1.22
0.42
0.23
0.38
0.38
-0.3
-2.03
-5.0
-9.19
-14.45
-20.48
-26.73
-32.46
-36.81
-39.15
-39.35
-37.94
-35.81
-33.82
-32.29
-30.93
-28.99
-25.83
-21.32
-15.9
-10.37
-5.39
-1.19
2.48
6.11
10.05
14.26
18.34
21.77
24.21
25.7
26.62
27.49
28.68
30.2
31.82
33.1
33.72
33.46
32.24
30.04
26.94
23.15
19.09
15.27
12.09
9.6
7.37
4.66
0.69
-4.96
-12.2
-20.44
-28.87
-36.73
-43.46
-48.79
-52.77
-55.67
-58.02
-60.38
-63.25
-66.75
-70.49
-73.52
-74.42
-71.73
-64.41
-52.31
-36.47
-18.95
-2.34
11.02
19.79
23.94
24.65
23.78
23.12
23.87
26.47
30.76
36.22
42.26
48.24
53.43
57.1
58.53
57.34
53.64
48.03
41.49
35.03
29.45
25.14
22.17
20.37
19.57
19.62
20.43
21.86
23.71
25.65
27.33
28.45
28.84
28.5
27.57
26.29
24.93
23.69
22.66
21.75
20.66
18.92
16.02
11.57
5.58
-1.41
-8.4
-14.23
-18.03
-19.59
-19.45
-18.65
-18.25
-18.93
-20.77
-23.36
-26.16
-28.82
-31.37
-34.06
-37.14
-40.6
-44.05
-46.87
-48.4
-48.19
-46.14
-42.46
-37.65
-32.28
-26.87
-21.81
-17.36
-13.69
-10.96
-9.32
-8.96
-9.94
-12.16
-15.26
-18.74
-21.98
-24.48
-26.01
-26.63
-26.7
-26.73
-27.14
-28.06
-29.21
-29.76
-28.55
-24.29
-16.05
-3.71
11.79
28.48
43.93
55.95
63.24
65.78
64.58
61.19
57.0
52.84
48.97
45.36
42.01
39.08
36.7
34.78
32.93
30.56
27.29
23.16
18.71
14.63
11.45
9.24
7.59
5.92
3.69
0.62
-3.37
-8.26
-14.01
-20.43
-27.05
-33.06
-37.38
-39.06
-37.58
-33.16
-26.62
-19.12
-11.78
-5.42
-0.49
2.83
4.52
4.65
3.39
1.02
-2.07
-5.53
-9.07
-12.56
-15.88
-18.87
-21.31
-23.0
-23.85
-23.97
-23.66
-23.31
-23.2
-23.43
-23.93
-24.5
-24.95
-25.08
-24.78
-23.96
-22.65
-20.96
-19.19
-17.62
-16.48
-15.72
-15.02
-13.84
-11.81
-8.89
-5.56
-2.6
-0.7
-0.09
-0.24
-0.21
0.94
3.47
6.75
9.5
10.38
8.74
4.85
-0.42
-6.15
-11.98
-18.13
-25.03
-32.71
-40.52
-47.22
-51.43
-52.06
-48.33
-39.63
-25.49
-5.95
17.88
43.35
66.69
84.05
92.96
93.24
86.98
77.47
67.86
60.07
54.61
51.11
48.98
47.93
47.87
48.61
49.66
50.18
49.39
46.92
42.94
38.14
33.41
29.44
26.55
24.62
23.28
22.1
20.8
19.28
17.61
15.93
14.41
13.17
12.31
11.87
11.79
11.91
11.98
11.74
11.09
10.12
9.17
8.68
8.99
10.14
11.76
13.18
13.6
12.35
9.07
3.62
-3.97
-13.64
-25.1
-37.57
-49.54
-58.98
-63.9
-63.18
-57.11
-47.41
-36.57
-26.95
-19.99
-16.01
-14.51
-14.75
-16.29
-19.05
-23.13
-28.47
-34.66
-40.95
-46.39
-50.02
-51.01
-48.6
-42.04
-30.64
-14.16
6.72
30.02
52.63
71.18
83.16
87.9
86.85
82.85
78.89
76.99
77.61
79.85
81.89
81.56
76.81
66.36
50.25
30.34
9.98
-7.12
-18.44
-23.78
-25.14
-25.46
-26.96
-30.15
-34.04
-37.43
-40.1
-43.14
-48.22
-56.27
-66.64
-77.26
-85.66
-90.11
-90.16
-86.38
-79.61
-70.32
-58.47
-43.91
-26.94
-8.61
9.38
25.18
37.39
45.31
48.78
47.82
42.32
32.33
18.58
2.87
-12.07
-23.58
-30.27
-32.65
-32.85
-33.36
-35.69
-39.65
-43.88
-46.99
-48.61
-49.55
-51.09
-53.76
-56.77
-58.2
-55.84
-48.13
-34.64
-16.11
5.84
29.05
51.08
69.62
82.92
90.28
92.22
90.11
85.37
78.59
69.22
56.09
38.67
18.1
-2.7
-20.0
-31.08
-35.58
-35.78
-35.33
-37.48
-43.49
-52.28
-61.32
-68.1
-71.17
-70.4
-66.4
-59.73
-50.54
-38.78
-24.7
-9.24
6.02
19.32
29.37
35.88
39.62
42.06
44.69
48.35
52.85
57.01
59.09
57.44
51.15
40.48
26.91
12.83
0.91
-6.65
-8.77
-5.75
0.91
9.12
17.01
23.43
28.22
31.96
35.47
39.36
43.76
48.27
52.18
54.72
55.32
53.83
50.46
45.73
40.15
34.15
27.8
20.85
12.72
2.82
-9.06
-22.35
-35.67
-47.21
-55.45
-59.82
-61.0
-60.54
-60.08
-60.62
-62.18
-64.09
-65.54
-66.15
-66.12
-65.87
-65.62
-65.05
-63.43
-59.86
-53.78
-45.21
-34.82
-23.71
-13.04
-3.58
4.5
11.56
18.17
24.63
30.73
35.78
39.01
40.04
39.17
37.3
35.48
34.51
34.61
35.43
36.33
36.68
36.06
34.38
31.75
28.45
24.75
20.88
16.98
13.15
9.49
6.23
3.66
2.05
1.45
1.63
2.09
2.29
1.85
0.72
-0.78
-2.19
-3.09
-3.31
-3.01
-2.59
-2.52
-3.12
-4.46
-6.33
-8.35
-10.16
-11.55
-12.51
-13.23
-13.93
-14.75
-15.56
-16.05
-15.81
-14.54
-12.2
-9.1
-5.73
-2.59
0.1
2.39
4.57
6.87
9.24
11.34
12.67
12.92
12.14
10.76
9.39
8.5
8.22
8.38
8.72
9.03
9.34
9.84
10.67
11.85
13.18
14.35
15.09
15.26
14.94
14.27
13.43
12.56
11.77
11.14
10.71
10.49
10.41
10.34
10.11
9.58
8.68
7.43
5.91
4.22
2.42
0.54
-1.44
-3.54
-5.73
-7.9
-9.93
-11.7
-13.19
-14.53
-15.93
-17.56
-19.47
-21.51
-23.32
-24.44
-24.46
-23.08
-20.24
-16.04
-10.82
-5.04
0.74
6.0
10.31
13.46
15.47
16.51
16.8
16.54
15.84
14.73
13.32
11.78
10.42
9.56
9.39
9.87
10.74
11.64
12.29
12.65
12.85
13.12
13.56
14.14
14.62
14.71
14.19
13.02
11.35
9.48
7.72
6.35
5.44
4.88
4.44
3.91
3.12
2.05
0.7
-0.91
-2.81
-5.03
-7.55
-10.26
-12.96
-15.48
-17.67
-19.44
-20.77
-21.69
-22.34
-22.95
-23.83
-25.21
-27.11
-29.16
-30.75
-31.13
-29.78
-26.53
-21.71
-15.99
-10.13
-4.71
-0.06
3.8
6.98
9.57
11.56
12.84
13.32
13.06
12.29
11.42
10.78
10.61
10.91
11.5
12.14
12.67
13.03
13.25
13.41
13.56
13.67
13.7
13.62
13.47
13.26
13.01
12.66
12.15
11.45
10.67
9.97
9.58
9.68
10.24
11.08
11.87
12.26
12.04
11.17
9.78
8.12
6.36
4.59
2.75
0.73
-1.53
-3.97
-6.45
-8.86
-11.18
-13.49
-15.93
-18.5
-20.99
-23.01
-24.14
-24.08
-22.76
-20.36
-17.18
-13.52
-9.64
-5.74
-2.01
1.34
4.1
6.13
7.43
8.1
8.3
8.21
7.94
7.59
7.23
6.97
6.91
7.12
7.64
8.37
9.21
10.01
10.64
11.03
11.14
11.03
10.76
10.42
10.02
9.5
8.74
7.62
6.16
4.54
3.12
2.29
2.3
3.18
4.65
6.22
7.32
7.45
6.36
4.08
0.97
-2.44
-5.67
-8.39
-10.55
-12.32
-13.93
-15.57
-17.35
-19.27
-21.27
-23.22
-24.85
-25.75
-25.44
-23.61
-20.21
-15.65
-10.57
-5.69
-1.45
1.98
4.76
7.06
9.0
10.51
11.48
11.8
11.54
10.89
10.09
9.3
8.59
7.92
7.23
6.53
5.92
5.57
5.62
6.06
6.72
7.25
7.26
6.45
4.77
2.45
-0.07
-2.28
-3.79
-4.59
-4.98
-5.58
-7.0
-9.6
-13.26
-17.47
-21.54
-24.93
-27.47
-29.41
-31.18
-33.24
-35.83
-38.93
-42.22
-45.06
-46.29
-44.31
-37.41
-24.54
-6.07
15.79
37.32
54.5
64.35
66.06
61.2
52.96
44.84
39.44
37.82
39.57
43.42
47.96
52.11
55.23
56.88
56.62
53.83
47.91
38.69
26.73
13.39
0.49
-10.49
-18.89
-24.98
-29.61
-33.48
-36.78
-39.15
-40.24
-40.09
-39.33
-38.67
-38.37
-37.66
-34.98
-28.53
-17.26
-1.54
16.78
34.99
50.41
61.31
67.17
68.51
66.22
60.94
52.72
41.29
26.51
8.98
-9.74
-27.4
-41.79
-51.48
-56.33
-57.52
-56.93
-56.39
-56.95
-58.48
-59.77
-59.07
-54.71
-45.73
-32.29
-15.64
2.22
19.07
33.09
43.24
49.41
52.13
52.07
49.54
44.33
36.01
24.52
10.73
-3.48
-15.84
-24.7
-29.85
-32.54
-34.64
-37.42
-40.43
-41.38
-37.06
-25.03
-5.03
20.4
46.61
68.42
81.82
85.21
79.66
68.19
54.57
42.07
32.55
26.19
21.82
17.59
11.77
3.41
-7.31
-19.14
-30.27
-39.08
-44.74
-47.46
-48.23
-48.19
-48.11
-48.19
-48.21
-47.88
-47.03
-45.58
-43.13
-38.8
-31.36
-19.86
-4.44
13.29
30.52
44.03
51.41
51.88
46.47
37.45
27.19
17.21
7.69
-2.21
-13.31
-25.54
-37.47
-46.86
-51.74
-51.55
-47.51
-42.08
-37.74
-35.85
-36.2
-37.44
-38.12
-37.49
-35.75
-33.5
-30.96
-27.4
-21.21
-10.72
4.77
24.17
44.69
62.6
74.57
78.88
75.88
67.63
56.84
45.79
35.75
27.06
19.73
13.84
9.72
7.59
7.15
7.51
7.46
5.96
2.62
-2.27
-7.91
-13.45
-18.26
-22.11
-25.08
-27.41
-29.25
-30.52
-30.92
-30.03
-27.49
-23.28
-17.8
-11.78
-6.01
-1.08
2.78
5.58
7.45
8.4
8.35
7.25
5.25
2.78
0.45
-1.21
-1.86
-1.52
-0.45
1.0
2.44
3.59
4.25
4.35
3.95
3.26
2.5
1.86
1.39
0.98
0.44
-0.36
-1.43
-2.66
-3.89
-5.01
-6.01
-6.99
-8.02
-9.09
-10.1
-10.9
-11.43
-11.76
-12.11
-12.73
-13.81
-15.44
-17.54
-19.99
-22.6
-25.18
-27.46
-29.11
-29.75
-29.06
-26.88
-23.28
-18.56
-13.17
-7.62
-2.39
2.17
5.83
8.53
10.33
11.4
11.91
12.0
11.8
11.38
10.82
10.19
9.6
9.15
8.94
9.03
9.4
10.02
10.77
11.52
12.13
12.48
12.45
11.98
11.06
9.77
8.26
6.73
5.34
4.09
2.9
1.59
0.03
-1.75
-3.63
-5.38
-6.87
-8.1
-9.18
-10.3
-11.58
-13.1
-14.85
-16.8
-18.92
-21.11
-23.2
-24.9
-25.86
-25.74
-24.29
-21.46
-17.44
-12.56
-7.29
-2.12
2.56
6.43
9.34
11.26
12.27
12.53
12.28
11.76
11.2
10.74
10.46
10.37
10.41
10.55
10.79
11.15
11.68
12.37
13.18
13.98
14.61
14.89
14.69
13.98
12.87
11.5
10.05
8.64
7.3
6.02
4.73
3.37
1.9
0.3
-1.44
-3.29
-5.16
-6.97
-8.62
-10.08
-11.38
-12.62
-13.91
-15.32
-16.91
-18.69
-20.71
-22.89
-25.08
-26.93
-27.95
-27.64
-25.64
-21.91
-16.75
-10.72
-4.46
1.49
6.75
11.11
14.45
16.7
17.88
18.14
17.72
16.99
16.26
15.71
15.42
15.32
15.35
15.5
15.81
16.3
16.94
17.62
18.16
18.37
18.13
17.44
16.43
15.3
14.28
13.49
12.9
12.39
11.79
10.97
9.93
8.7
7.33
5.83
4.14
2.28
0.34
-1.52
-3.14
-4.47
-5.62
-6.78
-8.15
-9.82
-11.76
-13.82
-15.86
-17.82
-19.74
-21.76
-23.99
-26.43
-28.87
-30.87
-31.88
-31.38
-29.08
-25.04
-19.67
-13.59
-7.45
-1.75
3.2
7.32
10.61
13.05
14.6
15.16
14.77
13.63
12.17
10.95
10.42
10.81
12.05
13.82
15.72
17.44
18.81
19.8
20.43
20.71
20.66
20.3
19.67
18.87
17.93
16.87
15.64
14.19
12.51
10.68
8.79
6.96
5.28
3.77
2.43
1.19
0.04
-1.02
-1.94
-2.71
-3.37
-4.09
-5.07
-6.5
-8.37
-10.48
-12.43
-13.83
-14.42
-14.24
-13.64
-13.11
-13.13
-13.94
-15.49
-17.44
-19.24
-20.33
-20.23
-18.7
-15.72
-11.51
-6.48
-1.11
4.09
8.71
12.43
15.1
16.73
17.46
17.51
17.13
16.53
15.77
14.86
13.8
12.64
11.54
10.67
10.18
10.01
10.02
9.95
9.67
9.17
8.57
8.06
7.7
7.43
7.08
6.44
5.41
4.0
2.35
0.57
-1.26
-3.12
-5.03
-6.93
-8.7
-10.14
-11.08
-11.45
-11.33
-10.96
-10.64
-10.63
-11.05
-11.86
-12.9
-13.98
-14.97
-15.84
-16.6
-17.37
-18.25
-19.38
-20.89
-22.85
-25.16
-27.54
-29.52
-30.55
-30.11
-27.96
-24.19
-19.21
-13.63
-8.07
-2.97
1.46
5.25
8.56
11.47
13.94
15.81
16.91
17.19
16.83
16.12
15.37
14.78
14.39
14.13
13.98
14.0
14.28
14.89
15.76
16.67
17.32
17.51
17.17
16.38
15.32
14.2
13.15
12.26
11.47
10.71
9.83
8.71
7.27
5.55
3.69
1.89
0.37
-0.75
-1.49
-2.02
-2.6
-3.45
-4.71
-6.37
-8.26
-10.17
-11.93
-13.42
-14.66
-15.75
-16.86
-18.2
-19.92
-22.1
-24.6
-27.05
-28.86
-29.42
-28.24
-25.22
-20.65
-15.09
-9.2
-3.55
1.51
5.81
9.28
11.9
13.66
14.63
14.97
14.93
14.74
14.54
14.39
14.25
14.06
13.84
13.66
13.61
13.76
14.08
14.49
14.87
15.13
15.24
15.23
15.12
14.92
14.61
14.13
13.42
12.42
11.13
9.61
7.97
6.35
4.84
3.44
2.11
0.77
-0.59
-1.94
-3.19
-4.29
-5.22
-6.1
-7.08
-8.27
-9.72
-11.35
-13.02
-14.57
-15.87
-16.93
-17.88
-18.93
-20.32
-22.24
-24.66
-27.31
-29.74
-31.39
-31.75
-30.51
-27.61
-23.25
-17.86
-11.98
-6.19
-0.97
3.35
6.61
8.8
10.05
10.6
10.72
10.69
10.71
10.87
11.12
11.38
11.55
11.7
11.95
12.48
13.34
14.4
15.44
16.21
16.57
16.55
16.23
15.72
15.05
14.2
13.15
11.91
10.54
9.12
7.73
6.35
4.92
3.37
1.66
-0.15
-1.91
-3.44
-4.62
-5.48
-6.13
-6.8
-7.64
-8.72
-9.99
-11.37
-12.82
-14.35
-16.01
-17.81
-19.73
-21.66
-23.38
-24.58
-24.92
-24.05
-21.76
-18.09
-13.36
-8.08
-2.79
2.04
6.17
9.53
12.12
13.96
15.09
15.52
15.37
14.85
14.23
13.76
13.56
13.58
13.67
13.63
13.38
13.03
12.76
12.79
13.17
13.78
14.37
14.69
14.57
14.03
13.18
12.15
11.04
9.86
8.59
7.17
5.6
3.88
2.02
0.11
-1.78
-3.53
-5.07
-6.4
-7.57
-8.72
-9.94
-11.26
-12.68
-14.15
-15.63
-17.14
-18.7
-20.39
-22.25
-24.29
-26.45
-28.53
-30.2
-30.98
-30.4
-28.14
-24.19
-18.93
-12.97
-7.05
-1.76
2.54
5.8
8.14
9.76
10.81
11.38
11.52
11.28
10.78
10.14
9.49
8.89
8.42
8.12
8.02
8.19
8.61
9.26
10.03
10.82
11.48
11.89
11.96
11.62
10.87
9.81
8.57
7.38
6.39
5.7
5.28
4.98
4.55
3.78
2.59
1.01
-0.77
-2.51
-4.04
-5.27
-6.29
-7.24
-8.25
-9.38
-10.65
-12.11
-13.85
-15.96
-18.43
-21.05
-23.37
-24.84
-24.97
-23.5
-20.47
-16.27
-11.45
-6.57
-2.02
2.08
5.77
9.13
12.1
14.48
15.99
16.46
15.99
14.96
13.93
13.33
13.43
14.2
15.43
16.82
18.07
18.97
19.42
19.47
19.27
19.09
19.1
19.32
19.6
19.72
19.5
18.98
18.37
17.91
17.76
17.85
17.94
17.73
17.07
15.95
14.56
13.17
11.97
11.02
10.28
9.62
8.9
7.89
6.26
3.46
-1.08
-7.76
-16.53
-26.77
-37.42
-47.28
-55.43
-61.42
-65.23
-67.05
-67.11
-65.48
-62.18
-57.23
-50.87
-43.49
-35.65
-27.9
-20.71
-14.35
-8.9
-4.32
-0.53
2.47
4.58
5.63
5.54
4.41
2.58
0.55
-1.17
-2.21
-2.48
-2.08
-1.37
-0.76
-0.69
-1.49
-3.27
-5.91
-9.03
-12.08
-14.52
-16.01
-16.47
-16.09
-15.25
-14.27
-13.38
-12.59
-11.68
-10.17
-7.29
-2.01
6.58
18.79
33.84
49.7
63.56
72.74
75.7
72.53
64.75
54.47
43.49
32.71
22.23
11.88
1.71
-7.69
-15.44
-20.72
-23.19
-23.18
-21.58
-19.5
-17.9
-17.3
-17.68
-18.66
-19.81
-21.0
-22.53
-24.95
-28.74
-34.0
-40.3
-46.81
-52.57
-56.75
-58.85
-58.83
-57.08
-54.3
-51.33
-48.75
-46.71
-44.84
-42.31
-38.03
-30.78
-19.33
-2.7
19.44
46.29
75.72
104.49
129.08
146.66
155.87
156.83
150.66
138.71
122.11
101.86
79.34
56.59
36.07
19.85
8.66
1.49
-3.95
-10.14
-18.62
-29.43
-41.33
-52.66
-62.26
-69.84
-75.84
-80.76
-84.54
-86.37
-84.71
-77.67
-63.62
-41.79
-12.85
20.71
54.85
84.82
106.22
116.08
113.5
99.7
77.72
51.64
25.77
3.69
-12.47
-22.52
-27.94
-31.13
-34.34
-38.76
-44.24
-49.67
-53.54
-54.45
-51.05
-42.06
-26.49
-4.32
22.8
51.36
76.74
94.72
102.96
101.82
93.82
82.13
68.97
54.95
39.58
22.49
4.49
-12.51
-26.38
-36.1
-42.32
-46.94
-51.89
-58.1
-65.11
-71.68
-76.81
-80.44
-83.46
-86.89
-91.09
-95.06
-96.48
-92.33
-79.82
-57.64
-26.8
9.11
44.73
74.41
94.02
102.05
99.62
89.52
74.88
58.24
41.44
25.84
12.72
3.11
-2.55
-4.81
-5.16
-5.53
-7.49
-11.76
-18.12
-25.54
-32.58
-37.58
-38.88
-34.96
-24.79
-8.22
13.65
38.43
62.65
82.27
93.64
94.59
85.22
67.98
46.88
26.07
8.42
-5.18
-15.49
-23.96
-31.56
-38.43
-44.12
-48.38
-51.61
-54.82
-58.92
-63.97
-68.88
-71.79
-71.0
-65.87
-57.11
-46.46
-35.9
-26.77
-19.42
-13.36
-7.82
-2.34
2.98
7.61
11.07
13.21
14.35
15.01
15.56
16.07
16.35
16.17
15.48
14.49
13.51
12.82
12.52
12.55
12.7
12.81
12.75
12.5
12.1
11.61
11.11
10.65
10.27
10.0
9.85
9.79
9.76
9.65
9.39
8.98
8.5
8.06
7.71
7.37
6.87
5.94
4.42
2.29
-0.33
-3.15
-5.93
-8.53
-10.93
-13.28
-15.74
-18.4
-21.15
-23.66
-25.39
-25.81
-24.54
-21.56
-17.2
-12.05
-6.73
-1.75
2.64
6.41
9.6
12.22
14.23
15.59
16.3
16.51
16.47
16.41
16.48
16.68
16.9
17.03
17.01
16.9
16.82
16.86
17.01
17.2
17.31
17.23
16.93
16.43
15.8
15.06
14.21
13.21
12.05
10.76
9.41
8.09
6.84
5.63
4.39
3.01
1.46
-0.26
-2.04
-3.74
-5.28
-6.62
-7.83
-8.98
-10.14
-11.4
-12.79
-14.37
-16.21
-18.29
-20.54
-22.79
-24.78
-26.21
-26.86
-26.55
-25.17
-22.69
-19.13
-14.64
-9.52
-4.24
0.66
4.7
7.63
9.46
10.44
10.93
11.18
11.33
11.38
11.34
11.27
11.3
11.54
12.01
12.59
13.1
13.41
13.5
13.44
13.36
13.34
13.39
13.44
13.43
13.31
13.09
12.72
12.16
11.36
10.29
8.96
7.43
5.81
4.19
2.71
1.49
0.64
0.2
0.1
0.2
0.32
0.29
-0.03
-0.69
-1.73
-3.18
-5.1
-7.59
-10.72
-14.47
-18.63
-22.82
-26.55
-29.33
-30.85
-31.06
-30.17
-28.49
-26.34
-23.9
-21.23
-18.35
-15.27
-12.13
-9.12
-6.52
-4.57
-3.45
-3.15
-3.48
-4.1
-4.63
-4.81
-4.55
-3.93
-3.02
-1.79
-0.06
2.33
5.42
9.03
12.81
16.39
19.54
22.33
25.21
28.96
34.47
42.44
53.03
65.49
78.15
88.8
95.46
97.06
93.85
87.17
78.77
69.92
60.88
50.94
38.99
24.24
6.8
-12.27
-31.28
-48.58
-63.23
-75.63
-87.52
-101.5
-120.0
-143.95
-171.97
-200.15
-222.81
-233.88
-228.58
-204.74
-163.57
-109.62
-49.67
8.84
59.58
98.64
124.95
139.8
145.64
145.11
140.33
133.04
124.9
117.55
112.28
109.33
107.64
105.13
99.75
90.58
78.39
65.3
53.81
45.63
40.97
38.69
37.08
34.77
31.32
27.25
23.48
20.77
19.22
18.39
17.6
16.39
14.72
12.91
11.36
10.28
9.57
8.87
7.77
6.11
4.01
1.85
0.06
-0.99
-1.05
-0.07
1.88
4.36
6.36
6.17
1.82
-8.07
-23.44
-42.15
-60.5
-74.38
-80.74
-78.79
-70.08
-57.75
-45.28
-35.35
-29.34
-27.35
-28.54
-31.56
-34.87
-37.28
-38.51
-39.75
-43.62
-53.34
-71.25
-97.31
-128.46
-159.08
-182.57
-193.36
-188.52
-168.48
-136.59
-98.0
-58.15
-21.56
8.95
32.49
49.58
61.58
69.89
75.57
79.36
81.82
83.68
85.6
87.93
90.36
91.87
91.22
87.57
80.96
72.4
63.43
55.49
49.35
44.93
41.55
38.33
34.64
30.3
25.49
20.59
15.91
11.54
7.44
3.5
-0.4
-4.32
-8.24
-12.07
-15.76
-19.33
-22.89
-26.56
-30.36
-34.1
-37.38
-39.55
-39.85
-37.69
-32.91
-25.97
-17.79
-9.34
-1.63
4.65
9.26
12.41
14.55
16.16
17.37
18.26
19.06
19.63
19.56
18.63
16.98
15.14
13.88
13.41
13.91
15.83
18.54
20.8
21.62
20.73
18.65
16.48
14.63
13.83
15.6
20.07
26.07
31.95
35.29
32.93
21.81
-0.71
-33.56
-70.37
-103.43
-125.89
-133.45
-125.92
-107.13
-76.64
-39.77
-11.28
4.81
10.81
8.61
0.59
-10.4
-21.27
-29.47
-34.97
-39.07
-42.98
-49.46
-61.32
-79.11
-100.5
-120.56
-132.71
-131.27
-112.16
-73.81
-20.19
40.08
96.89
141.63
169.47
180.04
175.95
161.52
141.65
119.69
97.73
77.73
61.7
51.19
46.43
45.74
46.23
45.11
40.12
30.52
17.46
3.52
-8.46
-16.89
-22.67
-29.31
-41.61
-63.56
-95.79
-134.04
-169.8
-192.85
-194.95
-172.98
-130.35
-75.87
-20.83
24.79
55.18
69.7
71.76
66.54
58.51
50.16
42.1
34.12
26.38
19.81
15.61
14.28
14.97
15.73
14.6
10.71
4.91
-0.66
-3.6
-2.43
2.62
9.82
16.74
21.3
22.59
21.05
18.09
15.31
13.82
13.85
14.9
16.1
16.67
16.21
14.78
12.77
10.74
9.23
8.62
9.07
10.4
12.13
13.61
14.23
13.68
12.07
9.88
7.75
6.16
5.33
5.13
5.18
5.11
4.65
3.81
2.77
1.85
1.3
1.17
1.29
1.32
0.93
-0.05
-1.6
-3.53
-5.65
-7.87
-10.23
-12.85
-15.78
-18.98
-22.32
-25.67
-28.92
-31.96
-34.6
-36.49
-37.16
-36.13
-33.11
-28.14
-21.63
-14.25
-6.75
0.24
6.35
11.43
15.52
18.74
21.21
23.09
24.47
25.45
26.17
26.74
27.32
28.07
29.18
30.74
32.74
34.99
37.28
39.38
41.29
43.11
44.97
46.65
47.52
46.48
42.39
34.54
23.13
9.46
-4.43
-16.31
-24.61
-28.84
-29.62
-28.21
-25.81
-23.02
-19.77
-15.58
-10.13
-3.64
3.07
9.01
13.48
16.46
18.34
19.39
19.31
17.13
11.73
2.5
-10.14
-24.98
-40.63
-56.31
-72.06
-88.03
-103.32
-115.14
-119.35
-112.27
-93.13
-65.3
-35.48
-11.03
3.25
6.93
3.51
-1.9
-5.35
-5.63
-3.94
-2.18
-1.27
-0.53
1.53
5.96
12.39
19.17
24.32
26.55
25.9
23.49
20.97
19.62
19.84
21.13
22.38
22.51
20.97
17.96
14.28
10.99
8.83
8.01
8.15
8.5
8.28
6.96
4.4
0.86
-3.17
-7.11
-10.49
-13.01
-14.66
-15.66
-16.43
-17.45
-19.05
-21.32
-23.92
-26.21
-27.38
-26.73
-23.93
-19.14
-12.9
-5.95
1.03
7.59
13.5
18.63
22.86
25.99
27.86
28.48
28.13
27.38
26.95
27.45
29.29
32.51
36.91
42.06
47.35
51.95
54.76
54.55
50.3
41.63
29.13
14.25
-1.13
-15.24
-26.89
-35.55
-41.14
-43.68
-43.19
-39.78
-33.88
-26.21
-17.39
-7.59
3.68
17.13
32.69
48.65
61.26
65.65
57.41
34.58
-1.36
-45.7
-91.63
-131.85
-159.72
-170.15
-160.46
-131.35
-87.76
-38.47
5.73
35.36
45.46
37.23
17.05
-6.64
-26.85
-39.93
-45.38
-43.98
-36.01
-20.85
1.97
31.16
62.99
92.11
113.36
123.5
121.85
109.75
89.57
63.85
35.26
6.89
-17.41
-33.45
-37.9
-29.71
-10.99
13.25
36.49
52.91
59.06
54.68
42.19
25.38
8.0
-7.12
-18.26
-24.46
-25.17
-20.32
-10.9
0.78
11.32
17.31
16.69
9.81
-0.73
-11.17
-18.44
-21.65
-22.38
-23.86
-29.44
-41.28
-59.62
-82.85
-107.74
-129.94
-144.47
-146.84
-134.53
-108.14
-71.8
-31.87
5.21
34.75
54.33
62.99
60.19
45.48
19.49
-14.78
-51.44
-83.02
-102.88
-107.43
-97.13
-75.63
-47.78
-17.97
10.77
36.58
58.18
74.07
82.19
80.17
66.28
40.71
6.6
-29.93
-61.05
-79.66
-81.82
-67.95
-42.44
-11.81
17.59
41.25
57.14
65.14
66.39
62.5
55.29
46.53
37.88
30.61
25.48
22.62
21.53
21.2
20.47
18.4
14.63
9.48
3.85
-1.15
-4.72
-6.71
-7.72
-8.7
-10.42
-12.93
-15.35
-16.2
-14.07
-8.39
0.22
10.17
19.62
27.28
32.8
36.83
40.36
44.19
48.62
53.42
57.97
61.3
62.14
59.25
52.02
41.11
28.61
17.36
9.67
6.07
5.09
4.13
0.97
-5.06
-13.09
-21.6
-29.75
-37.85
-46.89
-57.5
-69.13
-80.24
-89.2
-95.24
-98.74
-100.81
-102.46
-104.03
-105.13
-104.91
-102.31
-95.87
-83.65
-63.5
-34.11
3.65
45.99
86.72
119.22
138.83
144.57
139.07
126.96
112.62
98.54
85.17
71.94
58.53
45.58
34.34
25.75
19.73
15.16
10.63
5.25
-0.72
-5.97
-8.86
-8.16
-3.7
3.57
11.96
19.71
25.49
28.73
29.6
28.68
26.69
24.26
21.84
19.76
18.22
17.44
17.6
18.89
21.39
25.07
29.68
34.76
39.68
43.75
46.34
46.94
45.25
41.2
34.97
26.97
17.81
8.14
-1.47
-10.68
-19.44
-27.93
-36.5
-45.43
-54.86
-64.69
-74.46
-83.48
-90.97
-96.33
-99.39
-100.55
-100.66
-100.64
-101.06
-101.75
-101.73
-99.25
-92.18
-78.74
-58.18
-31.43
-1.17
28.7
54.18
72.36
82.32
85.13
83.14
78.88
74.19
69.87
66.0
62.4
59.09
56.31
54.25
52.82
51.54
49.79
47.11
43.49
39.41
35.61
32.83
31.4
31.14
31.48
31.73
31.41
30.49
29.28
28.31
27.95
28.26
28.92
29.36
28.79
26.34
21.18
12.74
1.14
-12.59
-26.51
-38.32
-46.26
-49.83
-49.97
-48.56
-47.41
-47.46
-48.5
-49.57
-49.77
-48.94
-47.84
-47.74
-49.8
-54.46
-61.23
-68.74
-75.14
-78.4
-76.74
-68.89
-54.39
-33.87
-9.1
17.21
41.97
62.43
76.86
84.86
87.25
85.57
81.36
75.63
68.62
60.1
49.9
38.4
26.63
15.92
7.3
0.96
-3.81
-8.24
-13.38
-19.5
-26.03
-32.01
-36.74
-40.24
-43.19
-46.39
-50.09
-53.64
-55.57
-54.05
-47.59
-35.61
-18.83
0.72
20.17
36.53
47.57
52.42
51.67
47.0
40.43
33.58
27.31
21.85
17.11
13.07
9.87
7.69
6.4
5.52
4.23
1.79
-2.16
-7.29
-12.74
-17.28
-19.78
-19.58
-16.62
-11.48
-5.13
1.35
7.06
11.41
14.19
15.48
15.58
14.82
13.55
12.1
10.8
9.95
9.79
10.41
11.73
13.51
15.41
17.08
18.28
18.88
18.92
18.52
17.87
17.13
16.39
15.65
14.86
13.95
12.88
11.62
10.15
8.48
6.62
4.61
2.55
0.55
-1.3
-2.96
-4.48
-5.93
-7.4
-8.93
-10.52
-12.12
-13.67
-15.12
-16.51
-17.9
-19.38
-21.04
-22.93
-25.02
-27.26
-29.48
-31.46
-32.84
-33.19
-32.05
-29.13
-24.41
-18.29
-11.43
-4.63
1.45
6.44
10.23
12.92
14.66
15.58
15.77
15.3
14.35
13.15
11.97
11.03
10.41
10.11
10.07
10.21
10.51
10.95
11.52
12.15
12.71
13.08
13.12
12.79
12.1
11.15
10.04
8.88
7.71
6.49
5.15
3.65
2.01
0.36
-1.14
-2.36
-3.32
-4.17
-5.13
-6.33
-7.79
-9.38
-10.96
-12.42
-13.79
-15.17
-16.72
-18.53
-20.66
-23.1
-25.81
-28.68
-31.46
-33.75
-35.0
-34.65
-32.35
-28.05
-22.11
-15.23
-8.23
-1.83
3.5
7.65
10.75
13.01
14.65
15.77
16.4
16.57
16.35
15.86
15.28
14.75
14.35
14.08
13.9
13.81
13.8
13.9
14.13
14.43
14.67
14.67
14.31
13.59
12.65
11.66
10.79
10.05
9.35
8.57
7.66
6.66
5.68
4.87
4.26
3.78
3.32
2.77
2.07
1.18
0.13
-1.04
-2.27
-3.49
-4.65
-5.73
-6.8
-7.88
-9.04
-10.27
-11.49
-12.7
-13.91
-15.17
-16.63
-18.44
-20.7
-23.48
-26.71
-30.13
-33.25
-35.43
-36.02
-34.56
-30.99
-25.69
-19.37
-12.85
-6.79
-1.57
2.7
6.09
8.71
10.62
11.86
12.5
12.66
12.52
12.23
11.93
11.64
11.36
11.08
10.85
10.75
10.85
11.22
11.86
12.69
13.59
14.39
14.9
15.01
14.66
13.91
12.82
11.5
10.02
8.39
6.7
5.02
3.43
1.92
0.42
-1.2
-3.03
-5.05
-7.13
-9.09
-10.78
-12.2
-13.47
-14.79
-16.38
-18.35
-20.71
-23.34
-25.94
-28.02
-29.04
-28.47
-26.07
-21.91
-16.49
-10.49
-4.72
0.19
3.81
6.01
6.93
6.91
6.37
5.75
5.36
5.39
5.84
6.63
7.66
8.86
10.2
11.65
13.09
14.37
15.36
16.0
16.4
16.71
17.07
17.44
17.64
17.39
16.5
15.04
13.3
11.69
10.52
9.86
9.47
8.97
8.01
6.46
4.47
2.39
0.55
-0.89
-2.0
-3.09
-4.53
-6.58
-9.35
-12.69
-16.29
-19.78
-22.77
-24.9
-26.03
-26.21
-25.77
-25.24
-25.17
-25.9
-27.34
-28.95
-29.92
-29.47
-27.13
-22.9
-17.22
-10.8
-4.39
1.4
6.22
9.95
12.7
14.63
15.94
16.75
17.13
17.12
16.77
16.2
15.56
14.99
14.56
14.31
14.22
14.26
14.47
14.9
15.57
16.44
17.33
18.02
18.23
17.81
16.79
15.33
13.72
12.22
10.98
10.03
9.27
8.6
7.9
7.16
6.37
5.56
4.74
3.92
3.08
2.17
1.14
-0.04
-1.28
-2.38
-3.08
-3.2
-2.83
-2.38
-2.46
-3.64
-6.15
-9.76
-13.82
-17.5
-20.05
-20.96
-20.02
-17.28
-12.97
-7.35
-0.69
6.75
14.71
22.91
30.99
38.54
44.99
49.51
50.91
47.85
39.37
25.61
8.34
-9.25
-23.54
-31.88
-33.69
-30.62
-25.67
-21.61
-19.86
-20.13
-21.11
-21.6
-21.26
-20.68
-20.82
-22.19
-24.5
-26.77
-27.87
-27.07
-24.54
-21.2
-18.44
-17.45
-18.77
-22.05
-26.22
-29.95
-32.23
-32.75
-31.92
-30.6
-29.71
-29.81
-30.96
-32.78
-34.67
-36.15
-37.02
-37.42
-37.72
-38.25
-38.96
-39.42
-38.89
-36.71
-32.45
-25.8
-16.2
-2.72
15.55
38.63
64.82
90.72
112.11
125.66
130.4
128.13
122.48
117.05
113.88
112.82
112.24
110.35
106.29
100.41
93.8
87.53
82.06
77.17
72.15
66.23
58.75
49.21
37.36
23.27
7.68
-7.99
-21.81
-31.91
-37.18
-37.84
-35.64
-33.41
-34.14
-39.92
-51.08
-65.91
-81.23
-93.45
-99.94
-99.96
-94.72
-86.72
-78.62
-72.25
-68.19
-66.04
-64.96
-64.13
-62.83
-60.23
-55.18
-46.18
-31.96
-12.23
11.49
35.81
56.3
68.9
71.53
64.96
52.49
38.63
27.27
20.31
17.3
16.15
14.47
10.73
4.8
-2.28
-9.22
-15.43
-21.55
-29.15
-39.74
-53.65
-69.32
-83.59
-92.91
-94.75
-88.66
-76.41
-61.1
-45.87
-32.84
-22.73
-15.13
-9.25
-4.49
-0.68
2.04
3.54
3.96
3.66
3.07
2.34
1.32
-0.14
-1.56
-1.33
2.86
12.96
29.13
49.05
68.52
83.15
90.44
90.71
86.45
80.43
73.91
66.14
55.41
40.9
23.9
7.4
-5.57
-13.81
-18.57
-22.41
-27.22
-32.94
-37.87
-40.19
-39.62
-37.8
-37.17
-39.26
-43.6
-48.1
-50.61
-50.33
-48.25
-46.31
-45.85
-46.73
-47.36
-45.76
-40.85
-33.05
-24.03
-15.88
-10.25
-7.7
-7.72
-9.06
-10.36
-10.88
-10.75
-10.72
-11.58
-13.53
-15.92
-17.54
-17.3
-14.7
-9.69
-2.13
8.71
23.85
43.71
67.04
90.57
109.89
121.12
122.57
115.36
102.82
88.79
76.2
66.3
58.96
53.5
49.35
46.21
43.75
41.32
38.0
33.12
26.75
19.94
14.32
11.22
10.81
11.76
11.73
8.51
1.01
-10.31
-23.79
-37.52
-50.09
-60.94
-70.24
-78.52
-86.21
-93.42
-99.74
-104.02
-104.23
-97.68
-82.02
-56.56
-23.31
12.98
46.19
71.06
85.07
89.15
86.82
82.18
78.01
74.71
70.6
63.08
50.17
31.67
9.44
-13.11
-32.22
-45.12
-50.96
-51.03
-47.97
-44.42
-41.79
-39.71
-36.39
-29.59
-17.62
-0.17
21.61
45.32
67.97
86.61
98.96
103.82
101.24
92.33
78.76
62.38
45.11
28.8
15.18
5.51
0.16
-1.7
-1.93
-2.58
-5.13
-9.99
-16.82
-25.06
-34.35
-44.44
-54.8
-64.64
-73.32
-81.05
-88.99
-98.45
-109.6
-120.47
-127.44
-126.83
-117.05
-99.66
-78.86
-59.45
-44.65
-35.03
-28.96
-24.23
-19.42
-14.49
-10.27
-7.56
-6.48
-6.4
-6.43
-5.87
-4.58
-2.99
-1.73
-1.26
-1.49
-1.79
-1.35
0.39
3.28
6.42
8.54
8.66
6.59
3.18
-0.07
-1.7
-1.0
1.65
4.96
7.28
7.37
5.0
1.36
-1.14
0.53
8.92
24.83
46.56
70.09
90.37
103.09
106.38
101.27
90.99
79.29
68.85
60.48
53.48
46.64
39.28
31.68
24.72
19.29
15.74
13.8
12.7
11.52
9.39
5.62
-0.2
-8.17
-17.9
-28.34
-38.02
-45.33
-49.15
-49.27
-46.51
-42.43
-38.63
-36.14
-34.93
-33.86
-31.09
-24.78
-13.92
1.12
18.52
35.59
49.69
59.16
63.76
64.53
63.08
60.8
58.13
54.51
48.79
39.88
27.39
11.96
-4.89
-21.15
-35.01
-45.35
-52.01
-55.55
-56.88
-56.74
-55.54
-53.46
-50.78
-48.12
-46.43
-46.49
-48.27
-50.47
-50.66
-46.22
-35.59
-19.33
-0.27
17.47
30.02
35.36
33.9
28.05
20.86
14.7
10.45
7.55
4.76
0.96
-4.18
-10.1
-15.62
-19.59
-21.5
-21.71
-21.4
-21.84
-23.63
-26.08
-27.28
-24.77
-16.7
-2.82
15.28
34.57
51.5
62.94
66.98
63.3
53.16
39.07
23.96
10.3
-0.66
-9.04
-15.81
-21.99
-27.83
-32.76
-35.77
-36.23
-34.3
-30.95
-27.35
-24.32
-22.0
-19.76
-16.47
-10.61
-0.71
14.02
32.95
53.67
72.28
84.7
88.23
82.76
70.82
56.24
42.45
30.98
21.28
11.52
-0.04
-13.97
-29.43
-44.59
-57.53
-66.85
-71.89
-72.63
-69.41
-62.84
-53.74
-43.26
-32.75
-23.61
-16.79
-12.64
-10.72
-10.1
-9.8
-9.26
-8.56
-8.26
-8.94
-10.76
-13.25
-15.57
-16.91
-17.05
-16.4
-15.8
-15.96
-16.96
-18.18
-18.52
-16.7
-11.54
-2.11
11.94
29.95
50.04
69.14
83.79
91.24
90.5
82.78
70.89
58.09
46.92
38.5
32.71
28.79
26.0
23.87
22.14
20.55
18.65
16.0
12.34
7.78
2.87
-1.64
-5.1
-7.27
-8.38
-9.05
-9.94
-11.5
-13.66
-15.93
-17.44
-17.28
-14.75
-9.6
-2.11
7.01
16.78
26.3
34.96
42.51
48.91
54.14
58.1
60.51
61.1
59.72
56.46
51.63
45.71
39.26
32.85
26.99
22.02
17.99
14.69
11.61
8.21
4.06
-0.97
-6.7
-12.72
-18.51
-23.61
-27.72
-30.77
-32.92
-34.37
-35.28
-35.72
-35.81
-35.89
-36.66
-38.88
-43.06
-49.01
-55.78
-62.03
-66.64
-69.13
-69.79
-69.25
-68.04
-66.28
-63.74
-60.21
-55.88
-51.34
-47.38
-44.52
-42.74
-41.44
-39.76
-36.94
-32.63
-27.0
-20.58
-14.05
-7.91
-2.4
2.52
7.04
11.34
15.41
19.05
21.95
23.81
24.47
24.01
22.72
21.09
19.63
18.74
18.6
19.16
20.19
21.37
22.38
23.04
23.3
23.33
23.35
23.6
24.15
24.92
25.66
26.13
26.24
26.13
26.1
26.48
27.44
28.89
30.53
31.91
32.59
32.24
30.78
28.26
24.92
21.03
16.84
12.54
8.24
3.87
-0.75
-5.95
-12.06
-19.22
-27.21
-35.29
-42.37
-47.31
-49.32
-48.27
-44.79
-40.06
-35.48
-32.25
-31.06
-31.97
-34.46
-37.55
-40.08
-40.93
-39.3
-34.91
-28.09
-19.71
-10.93
-2.95
3.36
7.64
10.05
11.05
11.23
10.94
10.27
9.14
7.44
5.31
3.1
1.29
0.32
0.36
1.31
2.86
4.67
6.44
8.03
9.34
10.35
10.98
11.15
10.81
9.95
8.65
7.12
5.65
4.5
3.8
3.45
3.16
2.56
1.39
-0.35
-2.39
-4.3
-5.7
-6.42
-6.61
-6.6
-6.78
-7.48
-8.89
-11.01
-13.71
-16.64
-19.34
-21.22
-21.73
-20.48
-17.36
-12.63
-6.83
-0.63
5.3
10.49
14.73
17.99
20.4
22.07
23.04
23.33
22.97
22.09
20.95
19.86
19.09
18.81
18.98
19.45
19.99
20.46
20.81
21.06
21.27
21.42
21.43
21.17
20.53
19.52
18.23
16.82
15.42
14.05
12.67
11.22
9.74
8.36
7.23
6.47
6.05
5.79
5.47
4.92
4.06
2.94
1.69
0.44
-0.78
-1.96
-3.19
-4.54
-6.05
-7.71
-9.48
-11.32
-13.17
-15.03
-16.84
-18.58
-20.22
-21.8
-23.45
-25.41
-27.88
-30.9
-34.18
-37.12
-38.91
-38.8
-36.32
-31.52
-24.9
-17.3
-9.63
-2.6
3.38
8.17
11.87
14.57
16.38
17.38
17.7
17.52
17.06
16.55
16.09
15.7
15.36
15.06
14.88
14.91
15.25
15.9
16.77
17.72
18.61
19.36
19.92
20.24
20.27
19.92
19.11
17.82
16.13
14.19
12.13
10.1
8.13
6.19
4.28
2.42
0.7
-0.76
-1.93
-2.88
-3.79
-4.86
-6.26
-8.02
-10.02
-12.09
-14.05
-15.77
-17.25
-18.6
-19.97
-21.54
-23.45
-25.77
-28.47
-31.28
-33.74
-35.26
-35.18
-33.05
-28.76
-22.65
-15.4
-7.85
-0.7
5.57
10.79
14.97
18.18
20.48
21.92
22.6
22.66
22.27
21.59
20.71
19.73
18.71
17.78
17.09
16.76
16.83
17.25
17.84
18.4
18.73
18.71
18.3
17.55
16.54
15.35
14.05
12.67
11.22
9.71
8.17
6.67
5.23
3.85
2.5
1.12
-0.31
-1.75
-3.13
-4.34
-5.37
-6.29
-7.28
-8.48
-10.0
-11.76
-13.6
-15.3
-16.73
-17.88
-18.9
-19.95
-21.18
-22.68
-24.49
-26.57
-28.82
-31.02
-32.78
-33.59
-32.91
-30.41
-26.06
-20.21
-13.49
-6.6
-0.17
5.43
10.01
13.53
16.02
17.58
18.28
18.28
17.72
16.79
15.72
14.71
13.98
13.65
13.75
14.21
14.89
15.68
16.47
17.21
17.83
18.24
18.34
18.08
17.47
16.62
15.66
14.65
13.56
12.28
10.7
8.78
6.6
4.32
2.17
0.31
-1.22
-2.52
-3.73
-5.0
-6.41
-7.91
-9.38
-10.73
-11.92
-13.02
-14.14
-15.37
-16.79
-18.44
-20.41
-22.73
-25.3
-27.81
-29.65
-30.15
-28.69
-25.09
-19.62
-12.97
-6.0
0.55
6.19
10.75
14.22
16.69
18.19
18.78
18.51
17.52
16.06
14.4
12.83
11.57
10.8
10.58
10.91
11.66
12.64
13.6
14.29
14.54
14.29
13.58
12.52
11.28
9.98
8.73
7.54
6.37
5.09
3.58
1.74
-0.37
-2.59
-4.69
-6.5
-7.98
-9.27
-10.53
-11.92
-13.44
-15.0
-16.52
-17.96
-19.41
-20.97
-22.73
-24.7
-26.84
-29.12
-31.46
-33.75
-35.67
-36.71
-36.28
-33.95
-29.69
-23.92
-17.38
-10.88
-5.02
-0.05
4.03
7.31
9.78
11.36
11.94
11.54
10.35
8.69
6.9
5.29
4.04
3.23
2.82
2.73
2.81
2.97
3.13
3.32
3.6
3.97
4.41
4.79
4.96
4.82
4.35
3.64
2.93
2.51
2.67
3.57
5.13
7.04
8.78
9.9
10.2
9.89
9.52
9.68
10.71
12.52
14.54
16.06
16.53
15.86
14.38
12.69
11.25
10.15
9.04
7.41
4.9
1.61
-1.87
-4.62
-5.68
-4.34
-0.25
6.41
14.8
23.26
29.27
29.96
22.97
7.8
-13.44
-36.12
-54.46
-63.57
-61.15
-48.22
-28.45
-6.56
13.33
28.56
38.14
42.13
41.18
36.21
28.44
19.42
10.75
3.67
-1.39
-4.79
-7.39
-9.96
-12.73
-15.28
-16.82
-16.57
-14.15
-9.73
-3.87
2.66
9.12
14.89
19.46
22.4
23.41
22.37
19.4
14.93
9.55
3.98
-1.02
-4.74
-6.56
-6.03
-2.93
2.6
10.07
18.65
27.21
34.53
39.44
41.05
39.04
33.74
26.16
17.72
9.85
3.54
-0.92
-3.92
-6.2
-8.55
-11.43
-14.9
-18.68
-22.27
-25.16
-26.89
-27.26
-26.29
-24.33
-21.91
-19.66
-18.11
-17.5
-17.76
-18.56
-19.48
-20.14
-20.28
-19.82
-18.82
-17.47
-16.08
-15.03
-14.66
-15.12
-16.32
-17.9
-19.42
-20.55
-21.19
-21.5
-21.75
-22.0
-22.02
-21.32
-19.39
-16.0
-11.35
-6.02
-0.71
4.02
7.83
10.65
12.54
13.53
13.68
13.08
11.91
10.51
9.27
8.53
8.49
9.18
10.42
11.95
13.45
14.67
15.42
15.6
15.23
14.34
13.01
11.35
9.46
7.44
5.36
3.29
1.22
-0.83
-2.87
-4.87
-6.78
-8.6
-10.36
-12.19
-14.29
-16.84
-19.94
-23.39
-26.67
-29.01
-29.54
-27.65
-23.28
-16.87
-9.3
-1.52
5.69
11.88
16.83
20.41
22.56
23.22
22.49
20.69
18.31
15.93
13.98
12.65
11.89
11.48
11.19
10.89
10.56
10.29
10.14
10.1
10.06
9.93
9.61
9.11
8.47
7.72
6.84
5.82
4.62
3.29
1.91
0.5
-1.01
-2.79
-5.07
-8.02
-11.74
-16.1
-20.81
-25.31
-28.93
-30.92
-30.78
-28.34
-23.91
-18.15
-11.84
-5.68
-0.1
4.69
8.66
11.79
14.1
15.61
16.41
16.66
16.6
16.44
16.35
16.41
16.59
16.8
16.92
16.84
16.54
16.04
15.41
14.67
13.82
12.84
11.72
10.52
9.33
8.19
7.03
5.64
3.78
1.31
-1.71
-4.97
-8.05
-10.6
-12.48
-13.81
-14.94
-16.27
-18.14
-20.7
-23.85
-27.16
-30.0
-31.63
-31.41
-28.99
-24.48
-18.43
-11.62
-4.86
1.22
6.32
10.41
13.63
16.13
17.99
19.19
19.71
19.56
18.87
17.82
16.69
15.68
14.94
14.52
14.42
14.57
14.9
15.31
15.64
15.79
15.64
15.15
14.39
13.41
12.28
10.97
9.47
7.77
5.92
4.01
2.14
0.37
-1.38
-3.2
-5.19
-7.38
-9.64
-11.79
-13.67
-15.2
-16.42
-17.49
-18.64
-20.09
-21.97
-24.31
-26.89
-29.28
-30.86
-30.99
-29.18
-25.31
-19.7
-13.0
-6.04
0.45
5.96
10.3
13.55
15.9
17.51
18.44
18.68
18.22
17.17
15.8
14.47
13.53
13.15
13.33
13.86
14.53
15.16
15.66
16.02
16.23
16.27
16.12
15.78
15.27
14.54
13.53
12.18
10.48
8.52
6.48
4.53
2.76
1.14
-0.46
-2.17
-4.07
-6.08
-8.07
-9.91
-11.49
-12.83
-13.98
-15.08
-16.26
-17.66
-19.44
-21.71
-24.48
-27.56
-30.48
-32.54
-33.01
-31.31
-27.31
-21.38
-14.29
-6.93
-0.1
5.73
10.35
13.8
16.21
17.68
18.29
18.09
17.14
15.61
13.77
11.96
10.55
9.79
9.74
10.28
11.15
12.1
12.99
13.83
14.67
15.49
16.19
16.54
16.29
15.32
13.65
11.46
9.02
6.61
4.38
2.36
0.45
-1.46
-3.47
-5.53
-7.55
-9.35
-10.86
-12.08
-13.12
-14.19
-15.43
-16.97
-18.81
-20.95
-23.38
-26.05
-28.85
-31.47
-33.39
-33.96
-32.59
-28.98
-23.28
-16.08
-8.25
-0.66
6.02
11.42
15.43
18.08
19.46
19.71
19.07
17.86
16.43
15.1
14.04
13.33
12.93
12.79
12.87
13.14
13.58
14.14
14.71
15.19
15.43
15.33
14.85
14.07
13.14
12.22
11.4
10.68
9.92
8.96
7.69
6.1
4.25
2.29
0.38
-1.35
-2.81
-4.05
-5.17
-6.39
-7.86
-9.67
-11.72
-13.78
-15.61
-17.1
-18.31
-19.45
-20.85
-22.77
-25.32
-28.44
-31.8
-34.85
-36.84
-37.05
-34.96
-30.51
-24.13
-16.58
-8.8
-1.55
4.66
9.63
13.35
15.95
17.56
18.38
18.57
18.28
17.64
16.72
15.61
14.45
13.45
12.76
12.49
12.62
13.07
13.7
14.4
15.09
15.72
16.17
16.3
15.99
15.21
14.03
12.62
11.21
9.93
8.81
7.78
6.67
5.36
3.77
1.98
0.14
-1.57
-3.07
-4.36
-5.6
-6.93
-8.44
-10.13
-11.88
-13.51
-14.93
-16.15
-17.26
-18.49
-20.04
-22.1
-24.72
-27.76
-30.85
-33.41
-34.77
-34.37
-31.92
-27.48
-21.49
-14.6
-7.51
-0.81
5.07
9.88
13.58
16.24
17.96
18.89
19.09
18.6
17.44
15.75
13.83
12.05
10.81
10.33
10.6
11.41
12.48
13.54
14.43
15.06
15.38
15.32
14.84
13.95
12.77
11.49
10.31
9.29
8.39
7.42
6.22
4.7
2.9
0.98
-0.94
-2.76
-4.48
-6.15
-7.83
-9.57
-11.36
-13.19
-14.97
-16.62
-18.07
-19.26
-20.26
-21.23
-22.42
-24.1
-26.4
-29.24
-32.25
-34.83
-36.25
-35.82
-33.14
-28.17
-21.23
-12.91
-3.87
5.35
14.26
22.46
29.49
34.95
38.52
40.14
40.06
38.79
36.9
34.9
33.1
31.59
30.37
29.38
28.58
27.9
27.26
26.59
25.76
24.71
23.39
21.79
19.97
17.99
15.96
13.93
11.91
9.84
7.63
5.21
2.6
-0.1
-2.71
-5.07
-7.07
-8.7
-10.08
-11.36
-12.76
-14.37
-16.25
-18.32
-20.43
-22.4
-24.12
-25.59
-26.96
-28.47
-30.37
-32.72
-35.37
-37.88
-39.64
-39.93
-38.16
-33.98
-27.47
-19.11
-9.77
-0.47
7.88
14.71
19.93
23.81
26.84
29.41
31.69
33.61
34.97
35.68
35.94
36.21
37.09
39.07
42.28
46.46
50.99
55.27
58.88
61.77
64.18
66.46
68.79
71.04
72.85
73.77
73.46
71.86
69.1
65.41
60.98
55.98
50.68
45.6
41.51
38.85
37.17
34.74
29.1
18.22
1.79
-18.42
-39.34
-58.22
-74.01
-87.59
-100.7
-114.41
-128.19
-140.22
-148.58
-152.4
-152.17
-149.07
-143.96
-137.02
-127.99
-116.96
-104.72
-92.52
-81.47
-72.09
-64.3
-57.72
-52.12
-47.48
-43.83
-40.98
-38.57
-36.23
-33.86
-31.59
-29.61
-27.83
-25.83
-23.03
-19.06
-14.09
-8.77
-3.94
-0.23
2.17
3.53
4.29
4.74
4.95
4.76
4.03
2.79
1.24
-0.32
-1.52
-2.0
-1.31
1.04
5.4
11.79
19.73
28.38
36.76
44.17
50.33
55.33
59.35
62.5
64.68
65.7
65.31
63.17
58.68
51.18
40.28
26.35
10.79
-4.27
-16.7
-25.18
-29.75
-31.49
-31.84
-31.76
-31.29
-29.82
-26.72
-21.94
-16.24
-10.78
-6.5
-3.72
-2.03
-0.62
1.3
4.09
7.63
11.46
15.05
18.1
20.55
22.57
24.34
25.93
27.24
28.1
28.35
27.97
27.12
26.04
24.98
24.08
23.3
22.45
21.25
19.48
17.05
14.08
10.84
7.64
4.76
2.31
0.21
-1.72
-3.7
-5.8
-7.97
-10.07
-11.99
-13.79
-15.65
-17.83
-20.52
-23.74
-27.27
-30.73
-33.56
-35.14
-34.92
-32.54
-27.98
-21.63
-14.21
-6.55
0.63
6.93
12.25
16.66
20.21
22.87
24.49
25.0
24.48
23.25
21.7
20.24
19.13
18.45
18.14
18.14
18.42
19.02
19.97
21.23
22.56
23.65
24.12
23.75
22.55
20.79
18.81
16.93
15.27
13.78
12.31
10.75
9.06
7.29
5.49
3.65
1.71
-0.35
-2.53
-4.76
-6.92
-8.91
-10.66
-12.17
-13.51
-14.75
-15.98
-17.3
-18.86
-20.77
-23.16
-26.04
-29.22
-32.28
-34.56
-35.34
-34.02
-30.34
-24.46
-16.99
-8.73
-0.53
6.91
13.18
18.07
21.6
23.87
25.01
25.16
24.47
23.17
21.51
19.82
18.35
17.25
16.56
16.28
16.42
16.97
17.91
19.1
20.25
21.03
21.16
20.54
19.27
17.56
15.6
13.54
11.42
9.26
7.05
4.81
2.55
0.29
-1.89
-3.91
-5.69
-7.2
-8.51
-9.74
-11.0
-12.28
-13.51
-14.57
-15.44
-16.24
-17.23
-18.73
-20.99
-24.12
-28.01
-32.29
-36.31
-39.27
-40.32
-38.86
-34.69
-28.16
-20.05
-11.36
-3.02
4.29
10.27
14.89
18.34
20.79
22.36
23.11
23.07
22.37
21.26
20.04
19.05
18.46
18.31
18.46
18.7
18.87
18.9
18.82
18.67
18.51
18.33
18.11
17.76
17.23
16.44
15.33
13.86
12.06
9.99
7.8
5.57
3.41
1.35
-0.64
-2.59
-4.52
-6.44
-8.36
-10.24
-12.08
-13.87
-15.6
-17.27
-18.89
-20.54
-22.34
-24.46
-27.04
-30.09
-33.36
-36.29
-38.14
-38.14
-35.79
-30.99
-24.19
-16.15
-7.81
0.02
6.8
12.3
16.51
19.5
21.38
22.19
22.02
21.06
19.59
17.96
16.55
15.59
15.12
15.04
15.16
15.3
15.4
15.54
15.86
16.47
17.35
18.29
18.93
18.92
18.04
16.32
14.03
11.55
9.19
7.1
5.16
3.17
0.96
-1.48
-4.03
-6.5
-8.73
-10.69
-12.47
-14.2
-16.04
-18.15
-20.67
-23.63
-26.94
-30.24
-32.96
-34.36
-33.76
-30.76
-25.37
-18.08
-9.73
-1.27
6.46
12.9
17.8
21.18
23.2
24.07
24.01
23.29
22.23
21.2
20.49
20.24
20.43
20.87
21.35
21.65
21.67
21.38
20.82
20.09
19.29
18.46
17.52
16.35
14.76
12.67
10.14
7.42
4.79
2.52
0.69
-0.83
-2.3
-3.98
-6.05
-8.46
-11.01
-13.35
-15.17
-16.3
-16.82
-17.0
-17.27
-18.07
-19.75
-22.48
-26.14
-30.33
-34.39
-37.44
-38.58
-37.16
-32.97
-26.36
-18.17
-9.47
-1.29
5.63
10.94
14.61
16.81
17.79
17.8
17.07
15.81
14.26
12.65
11.25
10.25
9.76
9.81
10.31
11.11
11.98
12.7
13.14
13.27
13.17
12.95
12.62
12.12
11.28
9.98
8.22
6.12
3.87
1.57
-0.75
-3.2
-5.88
-8.78
-11.71
-14.41
-16.61
-18.24
-19.48
-20.72
-22.4
-24.81
-27.96
-31.63
-35.44
-39.03
-42.1
-44.31
-45.26
-44.44
-41.41
-36.0
-28.58
-19.99
-11.28
-3.34
3.39
8.95
13.54
17.24
19.84
20.94
20.35
18.29
15.52
13.02
11.61
11.68
13.03
15.21
17.72
20.36
23.22
26.46
30.04
33.6
36.52
38.19
38.31
37.08
35.06
32.94
31.16
29.73
28.29
26.3
23.37
19.39
14.61
9.47
4.44
-0.08
-3.86
-6.8
-8.92
-10.34
-11.26
-11.92
-12.59
-13.49
-14.64
-15.81
-16.46
-15.81
-13.13
-8.03
-0.7
8.05
17.01
24.99
31.14
35.14
37.11
37.36
36.19
33.82
30.4
26.24
21.84
17.88
15.05
13.76
13.94
14.97
15.87
15.71
14.03
11.02
7.49
4.43
2.55
1.95
2.11
2.07
0.83
-2.43
-8.18
-16.5
-27.11
-39.37
-52.39
-65.12
-76.6
-86.2
-93.74
-99.36
-103.34
-105.8
-106.68
-105.81
-103.03
-98.4
-92.1
-84.32
-75.13
-64.51
-52.5
-39.4
-25.91
-13.02
-1.79
7.07
13.36
17.39
19.78
21.15
22.0
22.61
23.26
24.29
26.11
29.07
33.26
38.31
43.47
47.77
50.33
50.65
48.76
45.11
40.42
35.37
30.44
25.9
21.81
18.18
15.08
12.56
10.62
9.12
7.76
6.22
4.25
1.75
-1.23
-4.68
-8.73
-13.57
-19.27
-25.57
-31.69
-36.44
-38.59
-37.28
-32.38
-24.54
-14.96
-5.02
4.13
11.8
17.76
22.08
24.94
26.51
26.84
26.02
24.2
21.71
19.04
16.73
15.23
14.8
15.43
16.8
18.48
19.98
20.95
21.24
20.86
19.92
18.49
16.65
14.44
11.99
9.45
6.98
4.66
2.38
-0.03
-2.75
-5.79
-8.99
-12.07
-14.87
-17.44
-20.04
-23.0
-26.44
-30.04
-33.08
-34.6
-33.82
-30.42
-24.71
-17.44
-9.56
-1.87
5.15
11.33
16.71
21.3
24.99
27.59
28.89
28.81
27.47
25.23
22.6
20.13
18.22
17.07
16.64
16.73
17.12
17.67
18.32
19.03
19.73
20.22
20.27
19.68
18.42
16.63
14.56
12.49
10.58
8.91
7.41
5.96
4.42
2.75
0.94
-0.94
-2.8
-4.58
-6.27
-7.94
-9.65
-11.43
-13.3
-15.23
-17.29
-19.63
-22.42
-25.66
-28.94
-31.29
-31.39
-27.94
-20.25
-8.71
5.22
19.45
32.01
41.77
48.72
53.68
57.57
60.85
63.16
63.69
61.64
56.57
48.43
37.35
23.65
8.2
-7.24
-19.97
-27.07
-26.61
-18.63
-5.38
9.62
23.01
32.84
38.93
42.16
43.51
43.3
41.29
37.41
32.34
27.66
25.21
26.15
30.19
35.57
39.77
40.52
36.87
29.58
20.72
12.93
8.44
8.47
12.88
20.12
27.2
30.07
24.56
7.91
-19.58
-53.9
-88.26
-115.54
-131.08
-134.39
-128.86
-119.64
-111.02
-104.7
-99.77
-94.19
-86.48
-76.73
-66.39
-57.26
-50.48
-46.12
-43.39
-41.29
-39.1
-36.62
-34.18
-32.27
-31.3
-31.2
-31.56
-31.89
-32.13
-33.02
-35.82
-41.49
-49.73
-58.5
-64.56
-64.82
-57.78
-44.26
-26.97
-9.18
6.69
19.77
30.3
38.74
44.92
48.06
47.46
43.3
37.03
30.94
27.21
27.08
30.46
36.14
42.61
48.75
54.23
59.48
65.28
72.17
80.16
88.68
96.77
103.42
107.68
108.78
106.01
98.8
86.85
70.45
50.75
29.67
9.61
-7.34
-19.91
-28.07
-32.71
-35.15
-36.49
-37.23
-37.34
-36.59
-34.89
-32.42
-29.53
-26.48
-23.38
-20.13
-16.62
-12.97
-9.47
-6.54
-4.6
-3.96
-4.7
-6.7
-9.58
-12.75
-15.46
-17.08
-17.22
-15.95
-13.64
-10.71
-7.35
-3.4
1.56
7.89
15.62
24.36
33.38
41.87
49.01
54.2
57.08
57.62
56.12
53.21
49.65
46.13
43.16
41.02
39.9
39.96
41.26
43.53
46.07
47.86
47.94
45.82
41.75
36.54
31.14
26.13
21.39
15.88
7.83
-4.75
-23.26
-47.75
-76.54
-106.41
-133.57
-154.91
-169.01
-176.43
-179.02
-178.8
-177.0
-173.72
-168.31
-160.03
-148.56
-134.13
-117.34
-98.92
-79.62
-60.21
-41.58
-24.67
-10.29
1.05
9.35
15.09
18.99
21.8
24.02
25.82
27.12
27.74
27.57
26.64
25.14
23.35
21.53
19.99
19.0
18.82
19.63
21.44
23.99
26.79
29.22
30.75
31.04
30.05
27.94
24.93
21.18
16.75
11.68
6.08
0.22
-5.56
-10.98
-15.96
-20.7
-25.62
-31.03
-36.93
-42.8
-47.68
-50.47
-50.42
-47.42
-42.16
-35.83
-29.67
-24.43
-20.23
-16.67
-13.22
-9.67
-6.3
-3.76
-2.7
-3.41
-5.66
-8.79
-12.04
-14.8
-16.73
-17.71
-17.71
-16.67
-14.51
-11.12
-6.36
0.02
8.2
18.3
30.01
42.45
54.16
63.36
68.4
68.31
63.1
53.81
42.16
30.13
19.43
11.14
5.56
2.25
0.26
-1.45
-3.69
-6.72
-10.11
-12.97
-14.19
-12.83
-8.39
-0.98
8.72
19.59
30.46
40.32
48.67
55.54
61.37
66.7
71.73
76.12
79.06
79.53
76.84
71.01
62.86
53.87
45.72
39.84
37.09
37.61
40.93
46.23
52.57
59.13
65.33
70.72
74.94
77.53
77.98
75.89
71.17
64.29
56.18
47.97
40.48
33.93
27.71
20.64
11.39
-1.02
-16.87
-35.58
-55.95
-76.27
-94.57
-108.89
-117.61
-119.97
-116.44
-108.67
-98.99
-89.61
-81.87
-75.99
-71.32
-67.05
-62.78
-58.81
-55.81
-54.43
-54.72
-55.98
-57.02
-56.59
-53.78
-48.28
-40.26
-30.0
-17.64
-3.13
13.37
30.93
47.57
60.53
67.34
66.92
60.32
50.39
40.45
32.72
27.27
22.2
14.88
3.75
-10.51
-24.99
-35.7
-39.43
-35.25
-24.79
-11.43
1.25
10.95
17.25
21.44
25.57
31.51
40.28
51.78
64.9
77.83
88.48
95.09
96.83
94.11
88.36
81.26
73.76
65.59
55.5
42.24
25.61
7.04
-10.96
-25.93
-36.6
-43.5
-48.56
-54.22
-62.38
-73.85
-88.14
-103.49
-116.88
-124.43
-122.33
-108.42
-83.55
-51.99
-20.32
4.99
20.13
25.2
23.57
19.86
17.62
18.14
20.73
24.08
27.5
31.34
36.41
43.04
50.46
57.0
60.78
60.6
56.39
49.16
40.47
31.68
23.5
15.88
8.35
0.5
-7.58
-15.23
-21.48
-25.5
-27.05
-26.72
-25.79
-25.79
-28.07
-33.33
-41.47
-51.66
-62.53
-72.49
-79.97
-83.77
-83.17
-78.18
-69.38
-57.89
-45.01
-31.96
-19.69
-8.78
0.42
7.65
12.72
15.54
16.32
15.57
14.08
12.68
11.96
12.09
12.92
14.16
15.6
17.12
18.49
19.1
17.9
13.71
5.89
-5.12
-17.57
-28.85
-36.38
-38.55
-35.24
-27.77
-18.17
-8.48
-0.22
5.77
9.2
10.08
8.69
5.65
1.94
-1.2
-2.61
-1.49
2.24
8.07
15.1
22.44
29.54
36.23
42.65
48.92
54.94
60.29
64.39
66.66
66.68
64.38
59.98
53.94
46.86
39.39
32.15
25.58
19.96
15.33
11.52
8.21
5.03
1.72
-1.8
-5.39
-8.8
-11.82
-14.42
-16.82
-19.44
-22.78
-27.21
-32.86
-39.61
-47.01
-54.4
-60.89
-65.53
-67.47
-66.14
-61.46
-53.84
-44.12
-33.3
-22.33
-11.86
-2.27
6.3
13.74
19.93
24.72
28.04
29.97
30.82
30.98
30.8
30.48
30.01
29.32
28.41
27.42
26.52
25.76
24.88
23.37
20.78
17.0
12.44
7.97
4.54
2.8
2.83
4.12
5.87
7.26
7.78
7.23
5.69
3.33
0.39
-2.92
-6.36
-9.68
-12.74
-15.55
-18.25
-21.08
-24.18
-27.41
-30.33
-32.27
-32.51
-30.54
-26.27
-20.02
-12.45
-4.36
3.46
10.36
15.91
19.93
22.48
23.8
24.19
23.97
23.35
22.41
21.2
19.75
18.18
16.71
15.61
15.15
15.47
16.55
18.18
20.06
21.82
23.18
23.96
24.13
23.77
23.04
22.07
21.04
20.07
19.3
18.78
18.5
18.33
18.13
17.74
17.16
16.52
16.09
16.1
16.62
17.44
18.16
18.36
17.89
17.03
16.52
17.37
20.45
26.15
34.2
43.67
53.34
62.03
69.06
74.37
78.48
82.13
85.91
89.9
93.54
95.65
94.72
89.2
77.96
60.64
37.93
11.56
-15.95
-41.92
-64.17
-81.51
-93.98
-102.47
-108.18
-111.88
-113.53
-112.38
-107.46
-98.38
-85.93
-72.15
-59.91
-51.91
-49.73
-53.31
-61.13
-70.85
-80.23
-87.62
-92.02
-92.87
-89.75
-82.43
-71.1
-56.6
-40.52
-24.9
-11.73
-2.39
2.7
4.15
3.38
2.14
2.03
4.01
8.2
13.91
20.01
25.41
29.46
32.05
33.55
34.4
34.83
34.7
33.58
31.02
26.92
21.61
15.81
10.26
5.55
2.01
-0.04
-0.1
2.53
8.42
17.51
28.88
40.87
51.64
59.81
64.74
66.34
64.63
59.46
50.45
37.53
21.29
3.21
-14.73
-30.64
-43.4
-52.83
-59.52
-64.37
-68.04
-70.68
-72.02
-71.7
-69.69
-66.54
-63.31
-61.21
-60.97
-62.45
-64.63
-65.88
-64.66
-60.04
-52.02
-41.5
-29.88
-18.6
-8.72
-0.68
5.63
10.69
14.94
18.61
21.59
23.61
24.48
24.28
23.37
22.21
21.15
20.25
19.39
18.41
17.26
16.12
15.27
14.94
15.16
15.7
16.07
15.73
14.3
11.76
8.49
5.18
2.54
1.01
0.52
0.57
0.47
-0.28
-1.81
-3.94
-6.37
-8.92
-11.66
-14.72
-18.07
-21.32
-23.72
-24.42
-22.8
-18.74
-12.73
-5.66
1.47
7.9
13.25
17.49
20.79
23.32
25.12
26.11
26.17
25.32
23.71
21.68
19.59
17.77
16.36
15.35
14.58
13.9
13.23
12.6
12.11
11.81
11.69
11.55
11.17
10.29
8.82
6.84
4.57
2.25
0.06
-1.96
-3.86
-5.75
-7.64
-9.53
-11.33
-13.1
-14.98
-17.23
-19.97
-23.06
-26.0
-28.04
-28.41
-26.66
-22.77
-17.2
-10.67
-3.92
2.48
8.19
13.07
17.05
20.04
21.94
22.71
22.43
21.33
19.74
18.01
16.4
15.0
13.8
12.78
11.93
11.33
11.03
11.05
11.24
11.4
11.29
10.76
9.76
8.39
6.79
5.09
3.34
1.51
-0.49
-2.73
-5.23
-7.94
-10.71
-13.43
-16.0
-18.44
-20.83
-23.34
-26.16
-29.46
-33.32
-37.65
-42.09
-46.09
-48.94
-50.03
-49.03
-46.06
-41.65
-36.59
-31.69
-27.63
-24.8
-23.39
-23.46
-24.95
-27.62
-31.07
-34.75
-38.17
-41.01
-43.18
-44.74
-45.65
-45.6
-44.05
-40.46
-34.57
-26.55
-16.94
-6.38
4.62
15.95
27.86
40.87
55.56
72.26
90.81
110.34
129.34
145.91
158.41
166.03
169.15
169.34
168.68
168.96
170.87
173.77
176.05
175.99
172.53
165.74
156.69
146.91
137.66
129.69
123.12
117.42
111.28
102.46
88.0
65.18
32.88
-7.16
-50.34
-90.4
-121.63
-140.81
-148.07
-146.12
-138.7
-128.97
-118.8
-108.97
-99.85
-91.89
-85.57
-81.04
-77.79
-74.72
-70.64
-64.81
-57.3
-49.06
-41.54
-36.13
-33.67
-34.2
-37.01
-40.88
-44.57
-47.19
-48.31
-48.0
-46.49
-44.08
-40.92
-37.09
-32.67
-27.84
-22.92
-18.32
-14.49
-11.72
-10.15
-9.71
-10.13
-11.0
-11.84
-12.22
-11.9
-10.91
-9.54
-8.27
-7.6
-7.8
-8.93
-10.78
-13.02
-15.33
-17.54
-19.71
-22.02
-24.71
-27.92
-31.5
-35.03
-37.89
-39.44
-39.31
-37.44
-34.16
-29.98
-25.44
-21.01
-17.1
-13.99
-11.79
-10.3
-8.97
-6.98
-3.65
1.16
6.89
12.47
16.76
19.11
19.66
19.11
18.37
18.01
18.08
18.29
18.3
18.0
17.57
17.29
17.29
17.38
17.11
15.97
13.63
10.24
6.38
2.94
0.73
0.22
1.31
3.39
5.56
6.97
7.1
5.87
3.63
0.89
-1.85
-4.31
-6.46
-8.43
-10.42
-12.59
-15.01
-17.61
-20.29
-22.93
-25.4
-27.55
-29.18
-30.04
-29.85
-28.44
-25.79
-22.09
-17.67
-12.9
-8.14
-3.61
0.55
4.32
7.68
10.63
13.15
15.22
16.89
18.26
19.5
20.78
22.24
23.91
25.7
27.42
28.92
30.1
30.95
31.56
31.98
32.16
31.99
31.34
30.14
28.42
26.34
24.06
21.73
19.46
17.31
15.34
13.59
12.05
10.62
9.11
7.35
5.23
2.79
0.17
-2.48
-5.02
-7.4
-9.64
-11.73
-13.65
-15.42
-17.15
-19.05
-21.33
-24.1
-27.18
-30.07
-32.03
-32.36
-30.6
-26.73
-21.19
-14.7
-8.01
-1.73
3.79
8.38
11.97
14.52
16.01
16.47
16.06
15.06
13.79
12.5
11.32
10.23
9.2
8.28
7.6
7.33
7.6
8.4
9.53
10.72
11.64
12.07
11.91
11.19
10.05
8.65
7.18
5.72
4.34
3.02
1.72
0.35
-1.19
-2.94
-4.88
-6.91
-8.88
-10.67
-12.26
-13.74
-15.29
-17.11
-19.26
-21.68
-24.12
-26.17
-27.37
-27.25
-25.45
-21.86
-16.7
-10.5
-3.98
2.19
7.51
11.81
15.12
17.59
19.3
20.25
20.43
19.86
18.67
17.1
15.39
13.75
12.31
11.14
10.28
9.77
9.65
9.92
10.5
11.2
11.79
12.03
11.82
11.16
10.14
8.85
7.35
5.66
3.8
1.83
-0.18
-2.14
-4.06
-5.98
-7.97
-10.08
-12.32
-14.71
-17.3
-20.15
-23.26
-26.4
-29.05
-30.52
-30.11
-27.45
-22.64
-16.26
-9.14
-2.12
4.18
9.44
13.62
16.79
19.06
20.48
21.05
20.84
19.96
18.6
16.99
15.35
13.86
12.65
11.77
11.29
11.22
11.53
12.13
12.87
13.56
13.99
13.99
13.48
12.47
11.04
9.34
7.48
5.54
3.54
1.43
-0.78
-3.1
-5.43
-7.64
-9.63
-11.37
-12.94
-14.51
-16.25
-18.32
-20.79
-23.59
-26.47
-29.0
-30.61
-30.68
-28.74
-24.69
-18.85
-11.96
-4.92
1.49
6.83
11.03
14.27
16.77
18.66
19.9
20.42
20.18
19.27
17.93
16.43
14.99
13.77
12.83
12.23
12.01
12.2
12.78
13.65
14.61
15.41
15.81
15.65
14.89
13.67
12.18
10.64
9.2
7.86
6.52
5.01
3.24
1.2
-1.01
-3.23
-5.36
-7.32
-9.11
-10.77
-12.33
-13.81
-15.24
-16.69
-18.28
-20.19
-22.58
-25.51
-28.78
-31.94
-34.26
-34.97
-33.48
-29.65
-23.83
-16.8
-9.44
-2.54
3.44
8.32
12.14
14.99
16.97
18.16
18.63
18.53
18.03
17.31
16.51
15.71
14.89
14.06
13.23
12.52
12.07
12.05
12.48
13.25
14.1
14.7
14.81
14.33
13.34
12.09
10.85
9.82
9.0
8.28
7.46
6.37
5.03
3.53
2.06
0.71
-0.56
-1.89
-3.41
-5.15
-7.0
-8.78
-10.3
-11.53
-12.55
-13.58
-14.82
-16.43
-18.5
-20.97
-23.7
-26.36
-28.53
-29.66
-29.28
-27.07
-23.06
-17.55
-11.12
-4.44
1.86
7.35
11.76
15.06
17.31
18.6
19.08
18.87
18.14
17.08
15.93
14.88
14.1
13.66
13.51
13.56
13.72
13.92
14.12
14.33
14.53
14.71
14.8
14.7
14.32
13.59
12.53
11.23
9.84
8.48
7.23
6.05
4.85
3.53
2.04
0.42
-1.22
-2.77
-4.14
-5.33
-6.4
-7.48
-8.67
-10.05
-11.64
-13.35
-15.04
-16.6
-17.97
-19.23
-20.61
-22.34
-24.6
-27.33
-30.17
-32.54
-33.76
-33.25
-30.72
-26.25
-20.28
-13.5
-6.67
-0.42
4.84
8.99
12.12
14.37
15.9
16.76
16.99
16.62
15.79
14.74
13.68
12.79
12.12
11.67
11.39
11.3
11.45
11.87
12.57
13.45
14.33
14.95
15.09
14.6
13.56
12.16
10.71
9.46
8.52
7.82
7.16
6.38
5.37
4.16
2.84
1.5
0.18
-1.13
-2.43
-3.74
-5.04
-6.36
-7.74
-9.22
-10.79
-12.4
-13.96
-15.39
-16.7
-17.99
-19.42
-21.17
-23.33
-25.81
-28.3
-30.33
-31.37
-30.96
-28.86
-25.08
-19.87
-13.71
-7.18
-0.87
4.71
9.29
12.8
15.37
17.17
18.29
18.74
18.5
17.63
16.29
14.79
13.42
12.35
11.59
11.03
10.61
10.34
10.34
10.72
11.48
12.47
13.44
14.09
14.25
13.88
13.05
11.95
10.71
9.41
8.02
6.46
4.71
2.85
1.02
-0.64
-2.06
-3.31
-4.54
-5.87
-7.32
-8.81
-10.19
-11.39
-12.44
-13.46
-14.6
-15.98
-17.62
-19.52
-21.66
-24.0
-26.38
-28.49
-29.82
-29.79
-27.94
-24.14
-18.66
-12.15
-5.42
0.78
5.99
10.06
13.08
15.26
16.77
17.7
18.06
17.84
17.12
16.08
14.93
13.86
12.98
12.28
11.72
11.25
10.92
10.82
11.01
11.48
12.06
12.53
12.72
12.53
12.03
11.29
10.39
9.31
8.01
6.42
4.56
2.51
0.4
-1.58
-3.33
-4.79
-5.95
-6.92
-7.83
-8.83
-10.02
-11.42
-12.99
-14.57
-16.05
-17.31
-18.33
-19.19
-20.09
-21.28
-22.99
-25.28
-27.97
-30.56
-32.38
-32.76
-31.23
-27.65
-22.27
-15.65
-8.52
-1.62
4.45
9.33
12.87
15.17
16.44
16.94
16.9
16.51
15.92
15.24
14.55
13.89
13.28
12.71
12.23
11.88
11.76
11.89
12.27
12.78
13.29
13.64
13.73
13.52
13.01
12.24
11.24
10.07
8.75
7.32
5.82
4.32
2.85
1.47
0.22
-0.88
-1.87
-2.83
-3.86
-5.05
-6.43
-7.96
-9.55
-11.08
-12.48
-13.72
-14.85
-15.96
-17.23
-18.78
-20.71
-22.94
-25.15
-26.86
-27.44
-26.42
-23.58
-19.11
-13.55
-7.58
-1.88
3.13
7.26
10.54
13.09
15.01
16.29
16.9
16.82
16.1
14.87
13.29
11.57
9.91
8.5
7.51
7.09
7.29
8.07
9.28
10.63
11.82
12.55
12.65
12.1
11.01
9.61
8.09
6.58
5.07
3.45
1.61
-0.52
-2.94
-5.58
-8.33
-11.08
-13.68
-15.96
-17.72
-18.89
-19.55
-19.99
-20.63
-21.79
-23.57
-25.75
-27.82
-29.09
-28.92
-26.92
-23.03
-17.61
-11.29
-4.76
1.35
6.68
11.1
14.61
17.27
19.08
20.01
20.04
19.28
17.93
16.28
14.58
13.01
11.66
10.58
9.78
9.28
9.08
9.21
9.63
10.26
10.96
11.55
11.81
11.56
10.72
9.37
7.72
6.04
4.53
3.22
1.98
0.54
-1.32
-3.68
-6.44
-9.28
-11.83
-13.82
-15.17
-16.06
-16.87
-18.06
-19.99
-22.77
-26.16
-29.55
-32.19
-33.3
-32.41
-29.42
-24.63
-18.66
-12.2
-5.87
-0.07
5.0
9.25
12.69
15.33
17.17
18.22
18.54
18.22
17.37
16.14
14.69
13.23
11.92
10.93
10.32
10.03
9.98
10.09
10.33
10.73
11.26
11.78
12.06
11.81
10.92
9.45
7.69
5.97
4.49
3.22
1.94
0.39
-1.57
-3.91
-6.45
-8.96
-11.3
-13.4
-15.29
-17.03
-18.74
-20.57
-22.66
-25.04
-27.57
-29.87
-31.36
-31.45
-29.71
-26.04
-20.71
-14.28
-7.45
-0.92
4.79
9.42
12.9
15.36
16.96
17.83
18.05
17.66
16.75
15.47
14.03
12.67
11.57
10.8
10.34
10.14
10.14
10.32
10.66
11.1
11.51
11.69
11.45
10.71
9.47
7.85
5.99
3.99
1.91
-0.23
-2.41
-4.54
-6.54
-8.37
-10.11
-11.92
-13.99
-16.47
-19.33
-22.34
-25.08
-27.01
-27.59
-26.42
-23.39
-18.72
-12.93
-6.69
-0.65
4.76
9.35
13.09
16.01
18.15
19.48
20.0
19.75
18.86
17.51
15.93
14.31
12.84
11.72
11.05
10.89
11.16
11.66
12.14
12.38
12.25
11.75
10.93
9.85
8.55
7.03
5.28
3.34
1.23
-0.96
-3.2
-5.44
-7.69
-9.94
-12.17
-14.34
-16.47
-18.59
-20.88
-23.5
-26.53
-29.78
-32.71
-34.58
-34.65
-32.46
-27.99
-21.71
-14.39
-6.89
0.1
6.14
11.05
14.87
17.7
19.64
20.75
21.1
20.74
19.81
18.53
17.14
15.85
14.78
13.96
13.39
13.09
13.1
13.43
14.01
14.66
15.16
15.27
14.86
13.85
12.31
10.37
8.24
6.13
4.17
2.37
0.62
-1.2
-3.16
-5.22
-7.24
-9.13
-10.83
-12.4
-13.94
-15.61
-17.52
-19.79
-22.38
-25.05
-27.27
-28.29
-27.39
-24.19
-18.79
-11.79
-4.13
3.3
9.82
15.08
19.0
21.64
23.14
23.65
23.34
22.4
21.02
19.42
17.81
16.43
15.45
14.96
14.95
15.29
15.85
16.51
17.23
18.01
18.86
19.69
20.38
20.74
20.71
20.29
19.63
18.86
18.06
17.11
15.88
14.28
12.44
10.72
9.5
8.93
8.78
8.41
7.06
4.1
-0.78
-7.52
-15.82
-25.23
-35.17
-44.86
-53.32
-59.46
-62.35
-61.56
-57.28
-50.34
-41.89
-33.13
-24.99
-17.99
-12.22
-7.51
-3.57
-0.22
2.63
4.91
6.55
7.55
8.05
8.24
8.31
8.38
8.47
8.6
8.8
9.11
9.62
10.32
11.13
11.84
12.26
12.19
11.6
10.58
9.28
7.89
6.47
4.98
3.26
1.2
-1.21
-3.82
-6.36
-8.62
-10.54
-12.21
-13.81
-15.54
-17.51
-19.77
-22.3
-24.95
-27.35
-28.93
-29.01
-27.04
-22.85
-16.79
-9.65
-2.37
4.28
9.93
14.52
18.18
20.96
22.83
23.68
23.54
22.61
21.25
19.8
18.47
17.31
16.27
15.33
14.58
14.15
14.16
14.58
15.22
15.79
16.05
15.84
15.09
13.84
12.13
10.05
7.72
5.29
2.91
0.67
-1.44
-3.5
-5.62
-7.87
-10.23
-12.61
-14.93
-17.16
-19.37
-21.74
-24.43
-27.49
-30.7
-33.52
-35.21
-35.12
-32.85
-28.5
-22.6
-15.96
-9.4
-3.53
1.31
5.02
7.65
9.31
10.2
10.54
10.62
10.66
10.78
10.84
10.44
8.99
6.03
1.44
-4.31
-10.18
-14.85
-17.14
-16.45
-12.85
-7.02
0.07
7.44
14.3
20.02
24.14
26.29
26.31
24.29
20.66
16.06
11.21
6.72
2.91
-0.23
-2.97
-5.66
-8.67
-12.17
-16.11
-20.18
-23.87
-26.53
-27.52
-26.41
-23.1
-17.89
-11.45
-4.64
1.73
7.11
11.29
14.36
16.56
18.12
19.17
19.69
19.65
19.04
17.94
16.54
15.05
13.65
12.48
11.59
11.05
10.93
11.28
12.04
13.03
13.95
14.5
14.5
13.94
12.98
11.8
10.51
9.07
7.38
5.31
2.83
0.07
-2.76
-5.44
-7.82
-9.9
-11.83
-13.84
-16.2
-19.06
-22.37
-25.86
-29.02
-31.18
-31.7
-30.08
-26.13
-20.1
-12.62
-4.58
3.09
9.71
14.94
18.74
21.29
22.8
23.36
23.02
21.81
19.91
17.66
15.5
13.81
12.83
12.57
12.83
13.32
13.77
13.99
13.95
13.66
13.16
12.42
11.34
9.82
7.79
5.22
2.22
-1.08
-4.53
-8.01
-11.41
-14.68
-17.79
-20.76
-23.65
-26.57
-29.61
-32.8
-36.01
-38.88
-40.89
-41.4
-39.91
-36.2
-30.48
-23.32
-15.51
-7.82
-0.86
5.02
9.67
13.09
15.32
16.44
16.58
15.96
14.83
13.51
12.29
11.42
11.04
11.16
11.62
12.25
12.89
13.39
13.64
13.52
12.88
11.62
9.73
7.36
4.85
2.6
0.88
-0.37
-1.53
-3.08
-5.42
-8.56
-12.12
-15.38
-17.59
-18.51
-18.45
-18.14
-18.22
-18.74
-19.0
-17.74
-13.48
-5.24
6.57
20.1
32.64
41.68
46.03
46.09
43.54
40.95
40.71
43.85
49.95
57.68
65.32
70.92
71.9
65.05
48.36
22.86
-6.9
-33.41
-49.32
-50.75
-39.39
-22.01
-10.1
-13.6
-33.63
-62.33
-88.4
-104.28
-110.11
-109.35
-104.99
-99.39
-93.91
-89.13
-86.11
-84.23
-82.9
-80.36
-72.84
-54.64
-21.73
26.04
83.96
142.56
192.15
224.8
237.01
222.48
183.74
131.43
79.26
41.29
16.45
1.08
-7.92
-13.24
-16.07
-16.27
-14.49
-12.37
-11.56
-13.48
-17.03
-20.52
-22.74
-23.26
-21.69
-18.7
-15.78
-14.49
-16.06
-19.64
-23.84
-27.51
-30.01
-30.78
-30.06
-28.81
-28.19
-29.31
-31.9
-35.2
-38.31
-40.3
-40.19
-37.39
-32.0
-24.69
-16.6
-8.55
-1.2
5.01
9.93
13.64
16.32
18.02
18.74
18.48
17.45
15.96
14.33
12.8
11.49
10.39
9.43
8.56
7.81
7.29
7.11
7.28
7.68
8.01
7.94
7.2
5.73
3.65
1.27
-1.12
-3.28
-5.11
-6.67
-8.12
-9.66
-11.51
-13.82
-16.65
-19.89
-23.21
-26.09
-27.88
-27.95
-25.9
-21.67
-15.64
-8.49
-1.08
5.85
11.78
16.5
20.02
22.42
23.79
24.18
23.67
22.46
20.88
19.3
18.02
17.16
16.64
16.28
15.89
15.37
14.78
14.16
13.57
12.95
12.21
11.21
9.84
8.1
5.99
3.56
0.85
-2.07
-5.1
-8.12
-11.0
-13.67
-16.13
-18.49
-20.92
-23.54
-26.31
-28.94
-30.95
-31.76
-30.86
-28.03
-23.38
-17.37
-10.65
-3.86
2.44
7.89
12.3
15.57
17.75
18.94
19.36
19.25
18.88
18.41
17.94
17.46
16.91
16.25
15.5
14.76
14.2
13.97
14.1
14.51
15.02
15.39
15.45
15.13
14.52
13.77
13.03
12.37
11.76
11.09
10.15
8.77
6.81
4.26
1.24
-1.95
-4.87
-7.03
-7.99
-7.49
-5.44
-1.92
2.94
8.99
16.06
23.81
31.72
39.03
44.94
48.77
50.08
48.59
44.12
36.62
26.33
13.95
0.55
-12.74
-25.16
-36.55
-47.13
-56.99
-65.55
-71.53
-73.47
-70.44
-62.58
-51.07
-37.49
-23.3
-9.57
2.73
12.32
17.68
17.51
11.56
1.19
-10.95
-21.71
-28.65
-30.83
-28.86
-24.29
-18.74
-13.25
-8.16
-3.35
1.3
5.65
9.33
11.96
13.4
13.85
13.75
13.56
13.49
13.52
13.4
12.88
11.85
10.44
8.91
7.56
6.58
5.93
5.4
4.7
3.52
1.73
-0.59
-3.18
-5.66
-7.72
-9.23
-10.3
-11.3
-12.64
-14.69
-17.56
-21.08
-24.78
-27.99
-29.95
-30.07
-28.06
-24.02
-18.41
-11.9
-5.18
1.19
6.8
11.42
14.92
17.26
18.52
18.85
18.48
17.63
16.5
15.19
13.78
12.34
10.97
9.78
8.83
8.17
7.76
7.52
7.37
7.18
6.83
6.17
5.09
3.54
1.54
-0.8
-3.32
-5.85
-8.29
-10.66
-13.09
-15.8
-18.95
-22.53
-26.22
-29.42
-31.36
-31.35
-29.06
-24.61
-18.55
-11.71
-4.9
1.28
6.48
10.62
13.73
15.88
17.13
17.52
17.14
16.2
14.98
13.81
12.95
12.53
12.47
12.56
12.53
12.26
11.76
11.23
10.89
10.82
10.94
11.02
10.8
10.12
8.97
7.43
5.62
3.53
1.1
-1.73
-4.94
-8.33
-11.61
-14.46
-16.71
-18.37
-19.73
-21.19
-23.15
-25.73
-28.61
-31.11
-32.3
-31.43
-28.13
-22.67
-15.81
-8.54
-1.71
4.19
9.04
12.98
16.19
18.79
20.78
22.12
22.79
22.84
22.38
21.58
20.59
19.58
18.64
17.82
17.14
16.59
16.19
15.96
15.89
15.9
15.81
15.36
14.37
12.77
10.73
8.49
6.34
4.46
2.82
1.28
-0.38
-2.35
-4.67
-7.22
-9.77
-12.07
-13.92
-15.29
-16.31
-17.27
-18.55
-20.46
-23.13
-26.48
-30.11
-33.38
-35.51
-35.83
-33.89
-29.68
-23.61
-16.42
-8.99
-2.07
3.85
8.64
12.4
15.36
17.63
19.25
20.13
20.28
19.84
19.12
18.46
18.1
18.07
18.18
18.16
17.81
17.1
16.2
15.37
14.87
14.76
14.93
15.09
14.89
14.11
12.74
10.96
9.12
7.57
6.45
5.76
5.29
4.79
4.01
2.81
1.19
-0.8
-3.06
-5.44
-7.82
-10.12
-12.35
-14.59
-16.96
-19.57
-22.43
-25.36
-28.05
-29.98
-30.63
-29.54
-26.52
-21.79
-15.91
-9.68
-3.8
1.28
5.46
8.86
11.63
13.81
15.26
15.86
15.6
14.69
13.44
12.2
11.14
10.3
9.59
8.96
8.42
8.06
7.97
8.15
8.5
8.81
8.86
8.53
7.82
6.92
6.07
5.45
5.08
4.81
4.38
3.58
2.34
0.72
-1.08
-2.91
-4.67
-6.37
-8.05
-9.72
-11.33
-12.8
-14.07
-15.17
-16.25
-17.52
-19.13
-21.17
-23.49
-25.74
-27.42
-27.96
-26.88
-24.01
-19.49
-13.83
-7.75
-1.96
3.01
6.93
9.84
11.92
13.31
14.07
14.2
13.7
12.71
11.5
10.4
9.62
9.23
9.11
9.09
9.02
8.87
8.72
8.63
8.62
8.63
8.5
8.13
7.43
6.4
5.11
3.66
2.16
0.72
-0.56
-1.66
-2.66
-3.69
-4.93
-6.48
-8.33
-10.36
-12.36
-14.07
-15.33
-16.1
-16.53
-16.93
-17.63
-18.89
-20.8
-23.22
-25.83
-28.14
-29.61
-29.78
-28.25
-24.89
-19.85
-13.57
-6.71
-0.06
5.75
10.31
13.54
15.58
16.72
17.21
17.2
16.77
15.95
14.82
13.53
12.27
11.18
10.36
9.76
9.31
8.92
8.61
8.42
8.43
8.66
9.0
9.25
9.21
8.76
7.86
6.61
5.11
3.47
1.74
-0.04
-1.86
-3.73
-5.62
-7.57
-9.57
-11.59
-13.54
-15.28
-16.71
-17.84
-18.83
-19.96
-21.55
-23.79
-26.64
-29.78
-32.57
-34.25
-34.11
-31.71
-27.06
-20.57
-13.01
-5.26
1.92
8.03
12.89
16.57
19.25
21.13
22.3
22.82
22.75
22.24
21.54
20.97
20.77
21.0
21.54
22.12
22.48
22.49
22.19
21.8
21.65
21.96
22.77
23.8
24.49
24.17
22.37
19.13
15.06
11.08
7.79
4.9
1.17
-5.18
-15.6
-30.37
-48.25
-66.64
-82.26
-92.09
-94.4
-89.38
-79.41
-68.68
-62.33
-65.01
-79.22
-103.92
-134.15
-162.05
-179.17
-179.17
-159.99
-124.53
-79.77
-34.56
3.1
28.32
40.41
42.38
39.28
35.94
35.02
36.27
36.99
33.49
22.83
4.22
-20.5
-47.42
-71.46
-87.57
-91.46
-80.06
-51.89
-7.45
50.49
116.81
184.58
246.22
295.03
326.48
338.86
333.15
312.23
279.94
240.2
196.44
151.36
106.8
63.91
23.38
-13.94
-46.59
-72.29
-88.53
-93.68
-88.0
-74.11
-56.41
-39.77
-27.84
-21.92
-20.75
-21.3
-20.16
-14.96
-5.15
7.84
21.32
32.34
38.69
39.43
34.97
26.76
16.79
7.12
-0.58
-5.2
-6.4
-4.55
-0.55
4.32
8.71
11.41
11.47
8.37
2.09
-6.81
-17.35
-28.47
-39.34
-49.63
-59.41
-68.84
-77.81
-85.66
-91.33
-93.72
-92.22
-87.06
-79.36
-70.85
-63.26
-57.87
-55.19
-55.0
-56.67
-59.55
-63.12
-67.05
-70.97
-74.39
-76.6
-76.89
-74.77
-70.07
-62.9
-53.57
-42.41
-29.82
-16.44
-3.15
8.95
18.84
25.91
30.14
32.12
32.79
33.01
33.34
33.93
34.58
34.99
34.91
34.17
32.74
30.69
28.15
25.44
22.98
21.29
20.71
21.27
22.62
24.08
24.95
24.72
23.28
20.88
17.94
14.89
12.03
9.44
7.06
4.73
2.26
-0.48
-3.56
-6.92
-10.4
-13.74
-16.63
-18.74
-19.8
-19.6
-18.05
-15.23
-11.3
-6.57
-1.38
3.93
8.99
13.5
17.15
19.72
21.07
21.21
20.3
18.6
16.47
14.24
12.18
10.49
9.27
8.53
8.23
8.27
8.52
8.8
8.95
8.83
8.36
7.53
6.42
5.09
3.61
2.0
0.29
-1.48
-3.27
-5.06
-6.91
-9.0
-11.57
-14.78
-18.59
-22.61
-26.2
-28.55
-28.97
-27.08
-22.92
-16.93
-9.81
-2.36
4.76
11.07
16.31
20.43
23.48
25.51
26.57
26.75
26.16
25.04
23.69
22.39
21.33
20.54
19.95
19.44
18.9
18.35
17.85
17.47
17.22
16.97
16.54
15.66
14.18
12.05
9.42
6.56
3.73
1.13
-1.21
-3.4
-5.67
-8.25
-11.33
-14.98
-19.14
-23.48
-27.48
-30.37
-31.44
-30.2
-26.62
-21.14
-14.51
-7.55
-0.84
5.31
10.82
15.67
19.81
23.09
25.33
26.46
26.56
25.88
24.72
23.38
22.09
20.91
19.86
18.87
17.94
17.1
16.42
15.94
15.65
15.45
15.18
14.67
13.86
12.74
11.37
9.83
8.14
6.25
4.09
1.63
-1.07
-3.86
-6.57
-9.09
-11.42
-13.72
-16.24
-19.22
-22.75
-26.61
-30.29
-33.01
-33.94
-32.42
-28.25
-21.81
-14.0
-5.99
1.05
6.25
9.22
10.05
9.16
7.15
4.62
2.0
-0.4
-2.41
-3.95
-4.92
-5.25
-4.94
-4.19
-3.35
-2.93
-3.39
-4.97
-7.57
-10.86
-14.45
-17.99
-21.29
-24.19
-26.62
-28.53
-29.98
-31.05
-31.69
-31.5
-29.7
-25.18
-16.97
-4.71
10.99
28.62
46.25
62.25
75.79
86.93
96.25
104.5
112.16
119.41
126.22
132.43
137.91
142.47
145.87
147.76
147.77
145.67
141.55
135.87
129.35
122.61
115.83
108.44
99.18
86.55
69.45
47.8
22.72
-3.84
-29.76
-53.38
-73.71
-90.34
-103.06
-111.62
-115.8
-115.56
-111.36
-104.07
-94.95
-85.25
-76.08
-68.24
-62.18
-57.97
-55.47
-54.3
-54.04
-54.34
-55.07
-56.34
-58.38
-61.39
-65.28
-69.59
-73.56
-76.3
-77.1
-75.56
-71.55
-65.23
-56.88
-47.01
-36.36
-25.93
-16.83
-9.91
-5.5
-3.25
-2.29
-1.58
-0.3
1.92
4.99
8.55
12.13
15.31
17.81
19.46
20.3
20.54
20.56
20.76
21.4
22.5
23.83
25.03
25.89
26.49
27.23
28.66
31.22
34.95
39.38
43.68
46.95
48.62
48.64
47.56
46.31
45.88
46.97
49.7
53.49
57.05
58.58
56.31
49.15
37.22
22.09
6.22
-7.84
-18.49
-25.68
-30.79
-36.04
-43.53
-54.55
-69.0
-85.22
-100.27
-110.58
-113.06
-106.19
-90.78
-69.78
-47.22
-26.74
-10.48
1.19
9.22
14.95
19.44
23.19
26.45
29.59
33.13
37.47
42.29
46.6
49.13
49.04
46.33
41.84
36.76
31.93
27.49
22.78
17.17
10.91
5.23
1.7
1.09
2.71
4.62
4.68
1.06
-6.19
-15.02
-22.26
-25.42
-23.94
-19.31
-13.9
-9.7
-9.0
-12.64
-19.61
-27.37
-33.08
-34.67
-31.4
-23.92
-14.61
-10.08
-17.62
-41.71
-81.31
-129.5
-175.79
-209.65
-223.72
-216.55
-196.4
-175.82
-166.04
-172.94
-195.99
-230.63
-271.38
-313.52
-333.68
-315.96
-260.04
-182.81
-105.67
-40.69
10.39
50.13
81.28
104.89
117.61
116.58
102.31
78.17
48.17
17.0
-12.69
-38.77
-58.43
-70.36
-73.36
-62.39
-40.42
-13.9
9.9
25.57
33.2
35.41
33.59
28.44
21.05
12.1
3.6
-1.87
-2.27
3.64
16.06
34.33
53.24
70.75
86.63
102.86
121.99
145.3
172.01
199.03
221.84
236.25
240.71
235.78
224.42
210.59
197.48
186.7
178.1
170.48
162.36
153.16
142.49
130.46
117.43
103.74
89.77
75.87
62.39
49.58
37.89
27.47
18.73
12.54
10.12
12.53
19.91
31.02
43.37
54.07
60.65
61.91
58.03
50.1
39.57
27.84
16.12
5.43
-3.57
-11.01
-17.94
-26.09
-37.08
-51.66
-69.36
-88.78
-108.21
-126.29
-142.28
-155.84
-166.52
-173.42
-174.96
-169.26
-154.64
-130.34
-97.17
-57.7
-15.97
23.32
55.95
79.09
91.64
94.08
87.91
75.14
58.03
38.92
20.14
3.63
-9.35
-18.45
-24.03
-26.87
-27.65
-26.73
-24.06
-19.48
-12.97
-4.96
3.71
11.9
18.48
22.58
23.86
22.5
19.13
14.59
9.78
5.42
1.99
-0.27
-1.39
-1.63
-1.38
-1.17
-1.51
-2.83
-5.3
-8.74
-12.63
-16.24
-18.81
-19.79
-18.93
-16.34
-12.32
-7.3
-1.77
3.83
9.07
13.58
17.07
19.41
20.61
20.8
20.23
19.18
17.92
16.68
15.64
14.87
14.38
14.07
13.87
13.67
13.36
12.83
12.02
10.95
9.71
8.5
7.49
6.75
6.21
5.66
4.92
3.85
2.48
0.89
-0.8
-2.46
-3.95
-5.06
-5.57
-5.37
-4.68
-4.15
-4.77
-7.52
-12.96
-20.91
-30.44
-40.06
-48.2
-53.61
-55.59
-54.06
-49.39
-42.31
-33.7
-24.47
-15.45
-7.25
-0.24
5.47
9.97
13.56
16.78
20.37
24.99
30.94
37.76
44.18
48.46
49.06
45.36
37.96
28.55
19.19
11.54
6.39
3.59
2.41
2.08
2.02
1.97
1.79
1.32
0.36
-1.23
-3.35
-5.65
-7.65
-8.96
-9.49
-9.49
-9.48
-10.04
-11.54
-14.1
-17.45
-21.1
-24.46
-26.97
-28.3
-28.35
-27.28
-25.38
-22.9
-20.04
-16.8
-13.2
-9.26
-5.17
-1.23
2.18
4.76
6.37
7.09
7.16
6.85
6.36
5.8
5.22
4.7
4.43
4.66
5.52
6.97
8.71
10.35
11.54
12.18
12.39
12.4
12.29
11.96
11.18
9.74
7.67
5.3
3.11
1.45
0.43
-0.21
-0.9
-2.04
-3.78
-6.02
-8.54
-11.16
-13.78
-16.4
-18.88
-20.94
-22.12
-22.04
-20.53
-17.75
-14.13
-10.16
-6.25
-2.63
0.63
3.52
6.03
8.12
9.72
10.79
11.3
11.28
10.8
9.96
8.9
7.79
6.79
6.0
5.48
5.24
5.2
5.25
5.31
5.24
5.0
4.56
3.94
3.21
2.42
1.62
0.78
-0.15
-1.24
-2.56
-4.13
-5.93
-7.86
-9.84
-11.82
-13.79
-15.76
-17.73
-19.59
-21.1
-21.9
-21.64
-20.08
-17.25
-13.41
-9.04
-4.61
-0.53
3.0
5.92
8.29
10.14
11.5
12.34
12.65
12.42
11.75
10.81
9.78
8.85
8.15
7.69
7.43
7.25
7.05
6.78
6.47
6.18
5.97
5.85
5.74
5.51
4.98
4.07
2.75
1.14
-0.62
-2.37
-4.05
-5.66
-7.3
-9.07
-11.01
-13.11
-15.29
-17.43
-19.37
-20.91
-21.81
-21.87
-20.91
-18.85
-15.75
-11.83
-7.46
-3.02
1.1
4.68
7.59
9.79
11.3
12.09
12.2
11.71
10.8
9.72
8.67
7.73
6.88
6.03
5.16
4.37
3.84
3.7
3.9
4.24
4.43
4.26
3.65
2.68
1.53
0.33
-0.83
-1.95
-3.02
-4.03
-4.98
-5.86
-6.76
-7.83
-9.23
-11.07
-13.37
-15.99
-18.62
-20.86
-22.32
-22.68
-21.8
-19.74
-16.74
-13.16
-9.36
-5.62
-2.05
1.34
4.55
7.52
10.04
11.87
12.84
13.02
12.65
12.11
11.68
11.47
11.4
11.3
11.06
10.68
10.25
9.83
9.42
8.95
8.3
7.42
6.34
5.14
3.96
2.88
1.91
0.96
-0.11
-1.42
-3.04
-4.93
-6.99
-9.14
-11.33
-13.59
-15.91
-18.2
-20.23
-21.7
-22.33
-21.94
-20.51
-18.15
-15.01
-11.35
-7.42
-3.49
0.21
3.53
6.36
8.68
10.44
11.58
12.08
12.03
11.61
11.14
10.86
10.9
11.16
11.44
11.53
11.33
10.91
10.42
10.0
9.68
9.4
9.0
8.37
7.44
6.23
4.83
3.29
1.69
0.05
-1.6
-3.29
-5.07
-7.01
-9.13
-11.37
-13.53
-15.38
-16.66
-17.23
-17.09
-16.29
-14.93
-13.08
-10.74
-7.96
-4.91
-1.81
1.05
3.47
5.37
6.79
7.81
8.53
9.02
9.32
9.48
9.52
9.46
9.29
9.0
8.6
8.08
7.48
6.8
6.07
5.31
4.57
3.88
3.24
2.56
1.74
0.65
-0.73
-2.35
-4.09
-5.87
-7.7
-9.63
-11.72
-14.02
-16.45
-18.91
-21.22
-23.19
-24.54
-24.91
-24.01
-21.7
-18.09
-13.57
-8.67
-3.87
0.54
4.43
7.76
10.48
12.51
13.75
14.21
14.05
13.51
12.84
12.19
11.57
10.95
10.27
9.57
8.93
8.46
8.24
8.24
8.39
8.54
8.6
8.52
8.26
7.81
7.18
6.36
5.33
4.09
2.65
1.05
-0.7
-2.55
-4.51
-6.59
-8.83
-11.26
-13.86
-16.56
-19.15
-21.31
-22.69
-22.98
-22.06
-19.98
-17.0
-13.43
-9.52
-5.45
-1.34
2.65
6.32
9.39
11.67
13.11
13.84
14.11
14.19
14.19
14.1
13.84
13.35
12.65
11.87
11.17
10.64
10.29
10.01
9.69
9.22
8.55
7.74
6.82
5.86
4.89
3.92
2.95
1.96
0.91
-0.27
-1.66
-3.31
-5.19
-7.26
-9.41
-11.53
-13.51
-15.16
-16.27
-16.56
-15.84
-14.02
-11.23
-7.77
-4.02
-0.31
3.12
6.15
8.69
10.68
12.11
13.01
13.5
13.7
13.71
13.57
13.28
12.8
12.17
11.46
10.78
10.22
9.79
9.41
8.97
8.34
7.51
6.55
5.56
4.64
3.82
3.04
2.18
1.13
-0.15
-1.62
-3.16
-4.67
-6.02
-7.14
-8.02
-8.7
-9.3
-9.98
-10.84
-11.88
-12.92
-13.63
-13.65
-12.68
-10.63
-7.6
-3.91
0.07
3.94
7.43
10.39
12.77
14.58
15.8
16.4
16.36
15.73
14.65
13.32
11.96
10.8
9.97
9.55
9.53
9.78
10.08
10.14
9.7
8.67
7.18
5.52
4.02
2.92
2.23
1.79
1.31
0.44
-1.09
-3.39
-6.33
-9.59
-12.7
-15.17
-16.67
-17.05
-16.35
-14.7
-12.2
-8.92
-4.96
-0.54
3.99
8.21
11.82
14.7
16.93
18.58
19.65
19.98
19.34
17.67
15.15
12.25
9.47
7.19
5.44
4.03
2.71
1.37
0.04
-1.17
-2.29
-3.58
-5.42
-8.04
-11.38
-14.99
-18.24
-20.6
-21.93
-22.47
-22.78
-23.37
-24.52
-26.16
-27.95
-29.49
-30.52
-30.93
-30.74
-30.0
-28.62
-26.44
-23.26
-19.0
-13.8
-8.07
-2.37
2.71
6.74
9.55
11.25
12.15
12.61
12.9
13.13
13.23
13.1
12.62
11.8
10.74
9.59
8.53
7.67
7.05
6.57
6.08
5.39
4.4
3.07
1.53
-0.04
-1.5
-2.86
-4.26
-5.91
-7.97
-10.43
-13.09
-15.67
-17.93
-19.68
-20.8
-21.12
-20.41
-18.47
-15.26
-11.01
-6.24
-1.57
2.5
5.74
8.26
10.3
12.01
13.37
14.19
14.27
13.59
12.35
10.9
9.61
8.69
8.18
7.97
7.9
7.83
7.68
7.37
6.9
6.24
5.42
4.44
3.29
2.02
0.65
-0.73
-2.08
-3.41
-4.85
-6.59
-8.78
-11.42
-14.3
-17.0
-18.99
-19.81
-19.15
-16.96
-13.44
-8.98
-4.09
0.75
5.15
8.88
11.85
14.01
15.33
15.78
15.46
14.62
13.65
12.95
12.73
12.95
13.32
13.49
13.21
12.49
11.53
10.62
9.89
9.33
8.75
7.93
6.72
5.14
3.33
1.45
-0.38
-2.16
-3.94
-5.82
-7.84
-10.04
-12.4
-14.84
-17.17
-19.04
-20.0
-19.6
-17.63
-14.25
-10.01
-5.67
-1.94
0.77
2.39
3.13
3.3
3.18
2.96
2.82
2.93
3.47
4.54
6.05
7.72
9.21
10.2
10.52
10.22
9.45
8.49
7.53
6.7
5.99
5.35
4.65
3.8
2.74
1.49
0.07
-1.48
-3.16
-4.98
-6.93
-8.99
-11.05
-12.94
-14.43
-15.32
-15.43
-14.7
-13.17
-10.91
-8.11
-4.94
-1.61
1.71
4.83
7.64
10.04
11.98
13.44
14.41
14.86
14.83
14.38
13.64
12.75
11.85
10.98
10.16
9.37
8.66
8.1
7.7
7.44
7.21
6.83
6.18
5.18
3.86
2.25
0.43
-1.57
-3.71
-5.91
-8.06
-10.04
-11.78
-13.31
-14.79
-16.45
-18.48
-20.92
-23.51
-25.75
-26.95
-26.5
-24.14
-20.03
-14.72
-8.91
-3.27
1.71
5.8
8.91
11.11
12.57
13.58
14.46
15.49
16.71
17.91
18.67
18.55
17.33
15.06
12.07
8.83
5.77
3.23
1.37
0.26
-0.19
-0.12
0.21
0.58
0.78
0.73
0.43
-0.1
-0.8
-1.66
-2.7
-3.91
-5.31
-6.93
-8.89
-11.31
-14.31
-17.84
-21.62
-25.13
-27.77
-29.01
-28.61
-26.63
-23.36
-19.21
-14.53
-9.77
-5.5
-2.53
-1.75
-3.84
-8.97
-16.53
-25.31
-33.79
-40.6
-44.85
-46.17
-44.67
-40.76
-35.05
-28.37
-21.65
-15.7
-11.0
-7.52
-4.68
-1.73
1.9
6.3
11.04
15.42
18.86
21.26
23.1
25.28
28.71
33.85
40.43
47.53
53.98
58.97
62.41
65.0
67.83
71.67
76.5
81.27
84.31
83.99
79.4
70.69
58.92
45.56
31.84
18.56
5.99
-5.72
-16.3
-25.11
-31.35
-34.48
-34.57
-32.5
-29.61
-27.23
-26.1
-26.28
-27.25
-28.4
-29.44
-30.46
-31.81
-33.71
-36.07
-38.37
-39.77
-39.37
-36.41
-30.5
-21.75
-10.86
0.87
11.81
20.33
25.29
26.32
23.75
18.54
11.88
5.02
-0.94
-5.1
-7.01
-6.68
-4.7
-1.97
0.57
2.4
3.57
4.59
6.15
8.62
11.87
15.35
18.34
20.28
20.97
20.58
19.43
17.89
16.23
14.67
13.37
12.52
12.22
12.48
13.12
13.89
14.48
14.69
14.4
13.62
12.5
11.26
10.14
9.22
8.23
6.62
3.73
-0.81
-6.78
-13.39
-19.61
-24.63
-28.24
-30.72
-32.48
-33.68
-34.08
-33.3
-31.14
-27.87
-24.13
-20.61
-17.65
-15.12
-12.55
-9.5
-5.79
-1.67
2.37
5.87
8.6
10.66
12.37
14.05
15.79
17.51
18.96
20.0
20.6
20.97
21.35
21.89
22.55
23.15
23.43
23.06
21.73
19.1
14.96
9.33
2.58
-4.47
-10.83
-15.61
-18.43
-19.58
-19.97
-20.6
-22.17
-24.72
-27.63
-29.95
-30.89
-30.14
-27.96
-24.94
-21.65
-18.4
-15.25
-12.08
-8.91
-5.96
-3.58
-2.11
-1.64
-1.98
-2.78
-3.68
-4.5
-5.31
-6.31
-7.61
-9.14
-10.59
-11.56
-11.74
-11.05
-9.67
-7.94
-6.17
-4.6
-3.34
-2.45
-1.99
-2.0
-2.45
-3.14
-3.7
-3.75
-3.09
-1.88
-0.6
0.16
-0.07
-1.44
-3.72
-6.51
-9.43
-12.19
-14.62
-16.48
-17.44
-17.12
-15.28
-11.98
-7.64
-2.93
1.48
5.19
8.12
10.46
12.52
14.51
16.44
18.1
19.25
19.64
19.22
18.12
16.65
15.25
14.33
14.14
14.61
15.42
16.01
15.91
14.86
12.94
10.49
7.9
5.45
3.22
1.19
-0.69
-2.49
-4.37
-6.68
-9.87
-14.26
-19.7
-25.43
-30.27
-32.99
-32.96
-30.4
-26.39
-22.39
-19.67
-18.79
-19.5
-20.87
-21.69
-20.94
-18.0
-12.79
-5.73
2.37
10.47
17.41
22.16
24.05
22.9
19.21
14.0
8.53
3.96
0.96
-0.34
-0.3
0.43
1.23
1.69
1.62
1.1
0.28
-0.71
-1.79
-2.99
-4.35
-5.95
-7.75
-9.66
-11.57
-13.35
-14.97
-16.41
-17.67
-18.66
-19.2
-19.07
-18.12
-16.32
-13.85
-11.02
-8.15
-5.43
-2.93
-0.58
1.67
3.77
5.54
6.73
7.15
6.81
5.93
4.9
4.14
3.94
4.36
5.24
6.33
7.37
8.18
8.75
9.09
9.26
9.28
9.14
8.76
8.09
7.1
5.77
4.15
2.32
0.34
-1.72
-3.83
-5.98
-8.08
-10.01
-11.52
-12.31
-12.13
-10.85
-8.48
-5.21
-1.28
3.08
7.67
12.34
16.9
21.11
24.67
27.3
28.88
29.44
29.19
28.37
27.24
25.96
24.66
23.42
22.31
21.35
20.52
19.69
18.73
17.54
16.09
14.4
12.51
10.45
8.21
5.81
3.32
0.83
-1.54
-3.78
-5.93
-8.13
-10.56
-13.32
-16.41
-19.64
-22.62
-24.86
-25.9
-25.44
-23.36
-19.85
-15.27
-10.06
-4.66
0.56
5.29
9.32
12.5
14.78
16.18
16.78
16.69
15.98
14.77
13.18
11.41
9.69
8.2
7.01
6.08
5.33
4.71
4.23
3.93
3.77
3.58
3.12
2.14
0.53
-1.6
-4.01
-6.43
-8.71
-10.84
-13.02
-15.44
-18.24
-21.32
-24.36
-26.84
-28.24
-28.18
-26.49
-23.31
-18.98
-13.89
-8.44
-2.96
2.29
7.06
11.17
14.49
16.98
18.65
19.57
19.85
19.62
19.04
18.26
17.4
16.52
15.64
14.75
13.89
13.11
12.47
11.93
11.39
10.7
9.7
8.31
6.58
4.63
2.59
0.55
-1.48
-3.57
-5.83
-8.36
-11.24
-14.47
-17.95
-21.47
-24.73
-27.3
-28.74
-28.68
-26.91
-23.47
-18.68
-13.05
-7.13
-1.38
3.91
8.62
12.68
16.07
18.74
20.65
21.83
22.39
22.45
22.11
21.44
20.43
19.14
17.69
16.24
15.0
14.14
13.72
13.67
13.84
13.94
13.69
12.87
11.39
9.36
6.99
4.55
2.23
0.08
-1.99
-4.14
-6.51
-9.14
-12.02
-15.07
-18.21
-21.39
-24.53
-27.5
-30.02
-31.75
-32.27
-31.28
-28.63
-24.45
-19.07
-12.94
-6.54
-0.27
5.55
10.67
14.92
18.18
20.42
21.73
22.29
22.33
22.09
21.76
21.43
21.12
20.76
20.28
19.63
18.87
18.14
17.56
17.23
17.12
17.08
16.89
16.36
15.41
14.07
12.47
10.73
8.95
7.13
5.22
3.18
0.99
-1.28
-3.52
-5.62
-7.49
-9.18
-10.82
-12.57
-14.56
-16.8
-19.25
-21.88
-24.66
-27.61
-30.65
-33.54
-35.86
-37.05
-36.65
-34.39
-30.37
-24.95
-18.71
-12.2
-5.86
0.01
5.27
9.85
13.72
16.82
19.11
20.58
21.32
21.49
21.32
21.0
20.66
20.34
20.03
19.73
19.42
19.07
18.63
18.05
17.32
16.53
15.78
15.14
14.57
13.9
12.93
11.52
9.69
7.67
5.72
4.08
2.78
1.71
0.63
-0.65
-2.2
-3.96
-5.77
-7.54
-9.29
-11.14
-13.24
-15.68
-18.41
-21.31
-24.23
-27.07
-29.72
-32.07
-33.85
-34.71
-34.29
-32.34
-28.94
-24.35
-19.03
-13.4
-7.77
-2.34
2.76
7.41
11.51
14.91
17.52
19.27
20.19
20.39
20.07
19.47
18.81
18.22
17.72
17.29
16.88
16.5
16.21
16.06
16.08
16.21
16.35
16.38
16.22
15.82
15.13
14.1
12.69
10.95
8.97
6.91
4.94
3.15
1.54
-0.03
-1.71
-3.66
-5.91
-8.4
-10.96
-13.39
-15.6
-17.57
-19.4
-21.23
-23.19
-25.37
-27.79
-30.39
-32.99
-35.32
-36.97
-37.51
-36.59
-34.02
-29.83
-24.32
-17.97
-11.31
-4.84
1.06
6.16
10.37
13.71
16.2
17.85
18.71
18.82
18.34
17.54
16.74
16.2
16.03
16.17
16.44
16.66
16.72
16.69
16.7
16.88
17.3
17.9
18.56
19.2
19.73
20.12
20.28
20.08
19.4
18.15
16.39
14.29
12.13
10.13
8.4
6.96
5.71
4.54
3.3
1.87
0.09
-2.13
-4.86
-8.05
-11.56
-15.25
-19.02
-22.81
-26.56
-30.06
-32.96
-34.8
-35.12
-33.71
-30.66
-26.38
-21.39
-16.21
-11.19
-6.48
-2.12
1.85
5.39
8.44
10.96
12.94
14.39
15.32
15.74
15.7
15.28
14.63
13.93
13.31
12.86
12.56
12.34
12.14
11.9
11.61
11.21
10.68
9.96
9.04
7.95
6.76
5.58
4.47
3.47
2.58
1.74
0.89
-0.05
-1.17
-2.55
-4.29
-6.39
-8.79
-11.33
-13.79
-16.04
-18.01
-19.8
-21.55
-23.45
-25.56
-27.81
-29.95
-31.58
-32.27
-31.66
-29.58
-26.11
-21.58
-16.45
-11.19
-6.16
-1.56
2.52
6.0
8.82
10.91
12.27
12.97
13.2
13.13
12.91
12.58
12.15
11.61
11.05
10.57
10.3
10.27
10.44
10.69
10.91
11.0
10.92
10.66
10.22
9.6
8.87
8.06
7.26
6.5
5.78
5.03
4.11
2.92
1.38
-0.48
-2.58
-4.79
-6.97
-9.01
-10.88
-12.58
-14.22
-15.89
-17.74
-19.83
-22.17
-24.66
-27.05
-28.97
-29.99
-29.73
-27.97
-24.7
-20.17
-14.76
-8.95
-3.15
2.27
7.06
11.02
14.0
16.0
17.08
17.42
17.22
16.64
15.82
14.83
13.79
12.81
12.02
11.51
11.31
11.36
11.54
11.71
11.73
11.48
10.89
9.93
8.64
7.16
5.66
4.27
3.06
1.98
0.9
-0.29
-1.67
-3.22
-4.88
-6.6
-8.33
-10.08
-11.9
-13.8
-15.81
-17.95
-20.17
-22.35
-24.27
-25.57
-25.91
-24.98
-22.71
-19.28
-15.12
-10.71
-6.42
-2.45
1.22
4.69
7.99
11.05
13.66
15.57
16.59
16.72
16.11
15.04
13.82
12.73
11.9
11.36
11.03
10.77
10.49
10.14
9.76
9.39
9.03
8.58
7.92
6.97
5.75
4.43
3.19
2.12
1.19
0.22
-0.97
-2.48
-4.3
-6.3
-8.38
-10.44
-12.43
-14.32
-16.07
-17.7
-19.29
-21.01
-23.03
-25.39
-27.87
-29.99
-31.17
-30.94
-29.08
-25.72
-21.21
-16.02
-10.6
-5.28
-0.3
4.18
8.08
11.37
14.01
16.01
17.37
18.1
18.29
18.08
17.64
17.14
16.68
16.3
15.98
15.69
15.4
15.14
14.89
14.62
14.26
13.72
12.93
11.92
10.74
9.52
8.31
7.11
5.84
4.38
2.7
0.84
-1.05
-2.81
-4.35
-5.7
-6.98
-8.34
-9.88
-11.65
-13.61
-15.69
-17.84
-20.02
-22.16
-24.17
-25.89
-27.07
-27.43
-26.78
-25.02
-22.24
-18.62
-14.44
-9.99
-5.52
-1.24
2.65
6.03
8.77
10.86
12.33
13.28
13.84
14.12
14.21
14.16
14.04
13.91
13.79
13.72
13.69
13.69
13.76
13.85
13.94
13.92
13.7
13.22
12.45
11.47
10.35
9.12
7.77
6.29
4.68
2.98
1.26
-0.45
-2.17
-3.96
-5.86
-7.86
-9.94
-12.08
-14.31
-16.7
-19.27
-21.91
-24.42
-26.5
-27.83
-28.14
-27.27
-25.2
-22.09
-18.2
-13.91
-9.53
-5.32
-1.38
2.25
5.54
8.42
10.78
12.55
13.73
14.46
14.91
15.27
15.65
16.09
16.51
16.83
16.94
16.82
16.49
16.08
15.73
15.53
15.44
15.35
15.09
14.62
13.96
13.21
12.44
11.58
10.49
9.04
7.18
5.08
2.96
1.04
-0.59
-1.97
-3.25
-4.57
-6.01
-7.58
-9.25
-11.02
-12.89
-14.87
-16.96
-19.1
-21.14
-22.87
-24.1
-24.65
-24.46
-23.56
-22.02
-19.94
-17.42
-14.49
-11.19
-7.62
-3.93
-0.37
2.82
5.43
7.38
8.75
9.7
10.43
11.08
11.73
12.4
13.1
13.82
14.6
15.38
16.06
16.5
16.61
16.38
15.9
15.32
14.7
14.03
13.23
12.22
10.96
9.52
8.0
6.46
4.95
3.45
1.98
0.55
-0.81
-2.1
-3.36
-4.71
-6.28
-8.17
-10.41
-12.88
-15.38
-17.61
-19.33
-20.39
-20.76
-20.52
-19.77
-18.61
-17.08
-15.19
-12.98
-10.45
-7.69
-4.76
-1.78
1.15
3.89
6.3
8.26
9.7
10.63
11.13
11.31
11.31
11.26
11.3
11.52
11.97
12.66
13.53
14.51
15.48
16.31
16.88
17.05
16.74
15.95
14.77
13.36
11.87
10.36
8.8
7.1
5.2
3.16
1.1
-0.83
-2.55
-4.09
-5.59
-7.18
-8.94
-10.86
-12.88
-14.91
-16.9
-18.86
-20.77
-22.55
-24.05
-25.07
-25.45
-25.1
-24.06
-22.47
-20.48
-18.2
-15.65
-12.79
-9.64
-6.31
-3.03
-0.1
2.26
4.06
5.47
6.78
8.23
9.9
11.66
13.29
14.55
15.38
15.83
16.08
16.29
16.51
16.7
16.73
16.47
15.9
15.06
14.08
13.08
12.11
11.11
9.96
8.61
7.09
5.56
4.2
3.12
2.24
1.39
0.32
-1.09
-2.8
-4.64
-6.43
-8.08
-9.69
-11.44
-13.49
-15.8
-18.15
-20.16
-21.46
-21.84
-21.3
-20.03
-18.29
-16.27
-14.08
-11.71
-9.15
-6.43
-3.64
-0.88
1.73
4.13
6.23
7.98
9.34
10.3
10.94
11.37
11.74
12.15
12.67
13.31
14.06
14.86
15.64
16.25
16.56
16.44
15.84
14.79
13.44
11.98
10.57
9.29
8.15
7.07
5.96
4.7
3.24
1.55
-0.33
-2.32
-4.3
-6.2
-7.94
-9.53
-11.01
-12.46
-13.99
-15.69
-17.66
-19.96
-22.57
-25.38
-28.07
-30.26
-31.54
-31.66
-30.6
-28.58
-25.93
-22.94
-19.74
-16.32
-12.61
-8.61
-4.41
-0.23
3.73
7.3
10.39
12.97
15.02
16.52
17.45
17.86
17.86
17.63
17.38
17.3
17.5
17.95
18.51
18.97
19.15
18.94
18.34
17.42
16.27
14.95
13.52
11.99
10.43
8.89
7.43
6.06
4.74
3.42
2.09
0.8
-0.36
-1.33
-2.11
-2.82
-3.59
-4.56
-5.76
-7.18
-8.73
-10.39
-12.11
-13.92
-15.77
-17.56
-19.13
-20.29
-20.95
-21.08
-20.71
-19.89
-18.62
-16.9
-14.69
-12.04
-9.06
-5.92
-2.81
0.11
2.67
4.76
6.32
7.38
8.07
8.56
9.02
9.53
10.11
10.69
11.25
11.78
12.33
12.92
13.55
14.18
14.68
14.95
14.89
14.49
13.8
12.92
11.96
10.98
9.97
8.87
7.57
6.01
4.19
2.2
0.18
-1.8
-3.69
-5.56
-7.47
-9.49
-11.68
-14.03
-16.53
-19.09
-21.54
-23.66
-25.18
-25.89
-25.65
-24.5
-22.57
-20.05
-17.12
-13.91
-10.51
-6.97
-3.41
0.03
3.13
5.74
7.74
9.11
9.99
10.56
11.01
11.49
12.03
12.54
12.92
13.07
12.98
12.8
12.72
12.99
13.71
14.84
16.13
17.22
17.77
17.59
16.69
15.31
13.77
12.39
11.33
10.56
9.88
9.01
7.67
5.78
3.43
0.87
-1.51
-3.43
-4.75
-5.56
-6.23
-7.3
-9.33
-12.5
-16.23
-18.91
-18.54
-13.22
-2.17
13.54
31.08
46.46
55.77
56.36
47.71
31.53
11.17
-9.48
-27.13
-39.95
-47.82
-51.93
-54.05
-55.64
-57.41
-59.23
-60.48
-60.62
-59.24
-56.17
-51.5
-45.62
-39.37
-34.02
-30.84
-30.57
-32.86
-35.99
-37.81
-36.78
-33.05
-28.57
-26.22
-28.05
-34.2
-42.65
-50.47
-55.65
-58.35
-60.96
-66.54
-76.76
-90.25
-102.38
-106.72
-97.23
-70.48
-26.75
30.12
93.87
157.52
215.0
262.16
297.23
320.55
333.85
339.47
339.59
335.72
328.35
316.88
299.85
275.65
243.4
203.85
159.87
115.88
76.23
43.23
15.97
-9.12
-36.17
-67.29
-100.98
-132.71
-157.26
-171.38
-175.25
-171.99
-165.54
-158.59
-151.63
-143.63
-133.65
-122.06
-110.67
-101.72
-96.57
-94.85
-94.65
-93.62
-90.04
-83.65
-75.65
-67.98
-62.35
-59.51
-58.98
-59.42
-59.37
-57.93
-55.13
-51.79
-48.97
-47.4
-47.1
-47.4
-47.27
-45.8
-42.53
-37.62
-31.63
-25.21
-18.86
-12.78
-6.94
-1.25
4.29
9.49
14.06
17.73
20.39
22.11
23.1
23.59
23.72
23.54
23.05
22.34
21.59
20.99
20.73
20.83
21.21
21.72
22.21
22.57
22.75
22.68
22.3
21.57
20.52
19.27
17.97
16.68
15.38
13.94
12.27
10.32
8.19
6.08
4.16
2.53
1.18
0.02
-1.12
-2.34
-3.73
-5.31
-7.03
-8.86
-10.73
-12.61
-14.51
-16.47
-18.56
-20.83
-23.32
-25.99
-28.69
-31.14
-32.98
-33.83
-33.43
-31.69
-28.74
-24.86
-20.34
-15.44
-10.31
-5.08
0.07
4.97
9.39
13.15
16.14
18.35
19.84
20.75
21.22
21.4
21.43
21.39
21.31
21.22
21.11
20.96
20.8
20.58
20.25
