2013-06-20 12:49:36
64.0
-0.0
-0.0
-0.0
-0.0
-0.0
-0.0
-0.0
-0.0
-0.0
-0.0
0.0
0.01
0.01
-0.0
-0.03
-0.05
-0.05
0.0
0.13
0.36
0.66
1.01
1.37
1.72
2.06
2.4
2.79
3.24
3.8
4.42
5.06
5.66
6.2
6.68
7.15
7.68
8.31
9.14
10.09
11.04
11.88
12.56
13.14
13.76
14.65
15.96
17.91
20.32
22.9
25.38
27.58
29.57
31.68
34.32
37.81
42.54
48.15
54.1
59.83
64.97
69.58
74.14
79.34
85.71
93.76
103.0
112.62
121.73
129.77
136.75
143.3
150.75
157.77
166.64
177.95
191.79
206.97
220.57
228.25
225.36
208.53
176.87
132.76
80.05
23.07
-34.94
-92.44
-149.16
-205.23
-260.37
-313.74
-363.86
-409.81
-450.87
-486.45
-515.66
-537.12
-549.07
-549.77
-538.13
-513.91
-478.32
-433.47
-381.97
-326.48
-269.23
-211.95
-155.9
-102.12
-51.46
-4.91
36.67
72.61
102.64
126.91
145.91
160.36
170.97
178.37
182.94
184.99
184.73
182.44
178.47
173.23
167.13
160.51
153.63
146.62
139.57
132.5
125.46
118.52
111.74
105.2
98.95
93.02
87.44
82.2
77.32
72.8
68.66
64.9
61.53
58.56
55.99
53.81
52.0
50.54
49.38
48.43
47.6
46.73
45.66
44.22
42.22
39.55
36.09
31.81
26.77
21.03
14.77
8.21
1.61
-4.77
-10.67
-15.88
-20.22
-23.6
-25.97
-27.33
-27.75
-27.32
-26.15
-24.37
-22.08
-19.4
-16.42
-13.21
-9.84
-6.4
-2.97
0.37
3.56
6.57
9.36
11.94
14.33
16.6
18.77
20.87
22.98
25.16
27.49
30.05
32.88
36.05
39.61
43.47
47.54
51.76
56.1
60.52
65.03
69.63
74.4
79.42
84.57
89.78
95.02
100.29
105.6
110.98
116.44
122.0
127.69
133.23
138.37
142.86
146.45
148.84
149.64
148.37
144.32
138.85
132.49
125.59
118.37
111.05
103.76
96.63
89.78
83.33
77.43
71.91
66.66
61.63
56.79
52.13
47.67
43.47
39.61
36.21
33.12
30.28
27.62
25.09
22.66
20.3
18.02
15.89
13.98
12.21
10.55
8.93
7.31
5.68
4.03
2.41
0.88
-0.46
-1.65
-2.69
-3.68
-4.72
-5.88
-7.23
-8.76
-10.37
-11.95
-13.43
-14.88
-16.4
-18.19
-20.41
-23.12
-26.2
-29.4
-32.44
-35.16
-37.62
-40.16
-43.24
-47.31
-52.56
-58.86
-65.74
-72.67
-79.29
-85.62
-92.12
-99.47
-108.29
-118.85
-130.92
-143.85
-156.92
-169.62
-181.87
-194.04
-206.77
-220.92
-237.39
-257.0
-280.11
-305.93
-332.17
-355.02
-370.26
-374.5
-366.61
-348.05
-322.18
-292.84
-262.92
-233.8
-205.72
-178.62
-152.86
-129.29
-108.69
-91.18
-75.95
-61.7
-47.35
-32.59
-17.93
-4.4
7.13
16.36
23.62
29.59
34.85
39.66
43.91
47.41
50.03
51.88
53.21
54.3
55.38
56.61
58.15
60.11
62.39
64.59
65.96
65.68
63.19
58.49
52.26
45.56
39.38
34.23
29.97
26.06
21.9
17.29
12.57
8.53
6.07
5.82
7.9
11.93
17.21
22.98
28.66
33.87
38.38
42.0
44.54
45.86
45.95
44.97
43.27
41.27
39.29
37.46
35.71
33.83
31.6
28.9
25.8
22.45
19.04
15.7
12.47
9.3
6.15
3.0
-0.08
-3.01
-5.76
-8.32
-10.73
-12.95
-14.93
-16.55
-17.7
-18.4
-18.78
-19.04
-19.4
-20.04
-21.07
-22.55
-24.49
-26.82
-29.34
-31.7
-33.38
-33.89
-32.94
-30.5
-26.87
-22.52
-17.93
-13.49
-9.46
-5.92
-2.9
-0.39
1.68
3.38
4.83
6.13
7.29
8.26
8.9
9.07
8.7
7.81
6.5
4.99
3.47
2.15
1.15
0.52
0.22
0.14
0.13
0.0
-0.41
-1.23
-2.43
-3.93
-5.49
-6.94
-8.18
-9.26
-10.35
-11.71
-13.5
-15.8
-18.42
-20.98
-23.0
-23.99
-23.65
-21.93
-19.09
-15.58
-11.96
-8.71
-6.11
-4.23
-2.97
-2.21
-1.8
-1.74
-2.09
-2.91
-4.23
-5.95
-7.92
-9.93
-11.83
-13.55
-15.15
-16.76
-18.42
-20.2
-22.01
-23.82
-25.56
-27.33
-29.25
-31.47
-34.1
-37.17
-40.65
-44.41
-48.21
-51.54
-53.74
-54.01
-51.68
-46.48
-38.64
-28.88
-18.15
-7.34
2.87
12.04
19.91
26.33
31.31
34.95
37.57
39.57
41.29
42.9
44.4
45.7
46.81
47.78
48.78
49.96
51.35
52.78
53.92
54.4
53.95
52.46
49.99
46.76
43.1
39.34
35.75
32.5
29.71
27.34
25.33
23.62
22.17
20.99
20.13
19.57
19.2
18.84
18.27
17.32
15.92
14.1
11.91
9.47
6.87
4.3
1.89
-0.27
-2.25
-4.23
-6.46
-8.98
-11.53
-13.55
-14.39
-13.56
-11.03
-7.21
-2.79
1.48
5.04
7.61
9.25
10.14
10.54
10.61
10.53
10.33
10.05
9.68
9.17
8.6
8.07
7.79
7.9
8.53
9.61
10.96
12.3
13.41
14.11
14.38
14.23
13.63
12.55
10.96
8.93
6.61
4.28
2.13
0.29
-1.28
-2.67
-4.02
-5.33
-6.52
-7.46
-8.05
-8.23
-8.09
-7.88
-7.89
-8.44
-9.74
-11.7
-14.02
-16.18
-17.6
-17.74
-16.31
-13.26
-8.89
-3.78
1.37
5.88
9.27
11.34
12.25
12.39
12.19
12.06
12.15
12.44
12.79
13.04
13.11
13.06
13.08
13.31
13.8
14.45
15.04
15.37
15.39
15.21
14.96
14.67
14.2
13.28
11.73
9.59
7.2
5.02
3.45
2.61
2.41
2.49
2.54
2.33
1.86
1.21
0.5
-0.22
-1.05
-2.06
-3.39
-5.03
-6.87
-8.79
-10.65
-12.33
-13.71
-14.63
-14.81
-14.05
-12.23
-9.48
-6.14
-2.63
0.67
3.49
5.72
7.35
8.4
8.94
9.01
8.69
8.11
7.41
6.73
6.17
5.79
5.59
5.52
5.53
5.55
5.57
5.57
5.51
5.32
4.94
4.28
3.37
2.22
0.98
-0.14
-0.98
-1.4
-1.36
-0.94
-0.34
0.25
0.71
1.06
1.4
1.87
2.53
3.26
3.82
3.95
3.41
2.05
-0.15
-3.03
-6.36
-9.72
-12.58
-14.44
-14.96
-14.05
-11.96
-9.14
-6.09
-3.18
-0.61
1.53
3.18
4.26
4.63
4.24
3.16
1.63
-0.07
-1.61
-2.77
-3.5
-3.83
-3.88
-3.72
-3.4
-2.99
-2.53
-2.07
-1.7
-1.51
-1.5
-1.61
-1.73
-1.71
-1.48
-1.04
-0.49
0.06
0.5
0.76
0.76
0.54
0.13
-0.4
-0.95
-1.46
-1.9
-2.3
-2.68
-3.13
-3.69
-4.37
-5.1
-5.7
-5.88
-5.32
-3.78
-1.29
1.84
5.07
7.89
9.93
11.14
11.72
11.93
11.91
11.71
11.28
10.51
9.45
8.22
6.99
5.93
5.1
4.52
4.18
4.01
4.0
4.07
4.11
4.01
3.64
3.02
2.17
1.21
0.26
-0.63
-1.5
-2.39
-3.35
-4.38
-5.45
-6.53
-7.62
-8.78
-10.02
-11.28
-12.42
-13.27
-13.73
-13.84
-13.68
-13.34
-12.73
-11.64
-9.84
-7.24
-3.98
-0.41
3.08
6.21
8.82
10.9
12.48
13.5
13.97
13.88
13.35
12.6
11.82
11.12
10.51
9.94
9.33
8.64
7.93
7.24
6.61
6.1
5.71
5.43
5.22
4.99
4.59
3.9
2.86
1.5
-0.03
-1.53
-2.83
-3.86
-4.65
-5.33
-6.0
-6.69
-7.34
-7.87
-8.26
-8.64
-9.24
-10.26
-11.72
-13.4
-14.87
-15.65
-15.4
-14.07
-11.86
-9.13
-6.2
-3.29
-0.57
1.91
4.07
5.86
7.24
8.2
8.74
8.9
8.78
8.45
7.99
7.4
6.65
5.7
4.52
3.19
1.85
0.74
-0.02
-0.42
-0.67
-1.01
-1.65
-2.64
-3.84
-4.96
-5.74
-6.03
-5.8
-5.19
-4.37
-3.6
-3.13
-3.16
-3.81
-5.07
-6.8
-8.84
-11.08
-13.52
-16.3
-19.49
-22.96
-26.33
-29.0
-30.47
-30.5
-29.25
-27.14
-24.68
-22.2
-19.74
-17.18
-14.31
-11.01
-7.28
-3.29
0.79
4.76
8.42
11.62
14.29
16.46
18.27
19.94
21.65
23.5
25.41
27.2
28.7
29.75
30.28
30.25
29.68
28.58
27.05
25.19
23.2
21.28
19.49
17.81
16.13
14.32
12.33
10.24
8.17
6.27
4.65
3.27
2.05
0.81
-0.61
-2.42
-4.67
-7.23
-9.74
-11.65
-12.55
-12.25
-10.93
-9.04
-7.1
-5.53
-4.47
-3.86
-3.57
-3.49
-3.5
-3.52
-3.36
-2.8
-1.68
0.07
2.31
4.71
6.97
8.82
10.15
10.98
11.45
11.62
11.54
11.15
10.36
9.11
7.46
5.62
3.79
2.24
1.08
0.35
-0.1
-0.48
-0.98
-1.66
-2.51
-3.44
-4.36
-5.33
-6.47
-7.95
-9.85
-12.1
-14.5
-16.75
-18.57
-19.75
-20.17
-19.71
-18.27
-15.81
-12.41
-8.38
-4.18
-0.32
2.81
5.03
6.43
7.27
7.89
8.53
9.29
10.09
10.82
11.32
11.58
11.66
11.7
11.82
12.07
12.37
12.62
12.68
12.47
11.98
11.22
10.25
9.08
7.8
6.53
5.39
4.5
3.87
3.39
2.87
2.17
1.23
0.02
-1.41
-3.03
-4.87
-7.05
-9.67
-12.79
-16.4
-20.31
-24.18
-27.57
-29.99
-31.11
-30.78
-29.19
-26.67
-23.62
-20.42
-17.3
-14.4
-11.75
-9.37
-7.18
-5.07
-2.87
-0.48
2.11
4.81
7.46
9.87
11.96
13.74
15.22
16.41
17.34
18.0
18.46
18.77
18.97
18.96
18.57
17.64
16.14
14.22
12.21
10.44
9.06
7.98
6.96
5.71
4.04
1.96
-0.39
-2.79
-5.06
-7.14
-9.04
-10.93
-13.0
-15.41
-18.1
-20.83
-23.1
-24.32
-24.04
-22.1
-18.68
-14.29
-9.54
-4.93
-0.73
3.06
6.58
9.96
13.23
16.24
18.71
20.45
21.33
21.41
20.88
19.96
18.81
17.59
16.42
15.46
14.79
14.45
14.36
14.35
14.17
13.6
12.47
10.75
8.5
5.88
3.14
0.54
-1.72
-3.5
-4.78
-5.68
-6.4
-7.17
-8.2
-9.62
-11.48
-13.73
-16.29
-19.04
-21.79
-24.29
-26.2
-27.09
-26.66
-24.73
-21.48
-17.39
-13.11
-9.28
-6.34
-4.46
-3.5
-3.16
-3.16
-3.2
-3.16
-2.91
-2.36
-1.46
-0.21
1.33
3.07
4.92
6.87
9.01
11.36
13.89
16.48
18.92
21.1
22.99
24.63
26.07
27.3
28.19
28.48
28.03
26.81
24.99
22.88
20.75
18.74
16.93
15.2
13.46
11.63
9.65
7.45
4.95
2.2
-0.67
-3.29
-5.18
-5.89
-5.21
-3.29
-0.66
2.02
4.14
5.41
5.88
5.79
5.53
5.4
5.51
5.83
6.2
6.37
6.18
5.59
4.7
3.76
3.07
2.78
2.91
3.27
3.62
3.75
3.64
3.38
3.13
2.96
2.84
2.68
2.41
2.04
1.65
1.35
1.09
0.81
0.38
-0.31
-1.27
-2.42
-3.73
-5.14
-6.69
-8.39
-10.24
-12.15
-13.94
-15.31
-15.96
-15.68
-14.4
-12.28
-9.59
-6.67
-3.79
-1.12
1.25
3.28
4.95
6.25
7.21
7.96
8.61
9.33
10.17
11.1
12.0
12.74
13.21
13.38
13.3
13.11
12.91
12.81
12.79
12.84
12.83
12.66
12.27
11.66
10.89
10.08
9.32
8.71
8.16
7.54
6.66
5.44
3.9
2.2
0.55
-0.92
-2.15
-3.26
-4.41
-5.72
-7.32
-9.27
-11.65
-14.38
-17.28
-20.05
-22.22
-23.38
-23.28
-21.93
-19.6
-16.68
-13.61
-10.68
-8.05
-5.7
-3.54
-1.44
0.64
2.67
4.49
5.94
6.94
7.52
7.85
8.11
8.45
8.9
9.46
10.08
10.73
11.42
12.09
12.69
13.09
13.18
12.88
12.2
11.17
9.89
8.42
6.87
5.29
3.71
2.19
0.76
-0.49
-1.49
-2.24
-2.8
-3.28
-3.79
-4.41
-5.15
-6.0
-6.99
-8.2
-9.68
-11.38
-13.09
-14.43
-15.0
-14.45
-12.67
-9.78
-6.13
-2.19
1.6
4.88
7.4
9.14
10.18
10.72
10.93
11.0
10.93
10.74
10.37
9.85
9.25
8.73
8.41
8.34
8.53
8.87
9.2
9.38
9.27
8.85
8.16
7.26
6.32
5.39
4.52
3.7
2.89
2.16
1.59
1.28
1.26
1.39
1.51
1.43
1.1
0.56
-0.14
-1.04
-2.31
-4.15
-6.62
-9.42
-11.97
-13.55
-13.6
-12.01
-9.13
-5.63
-2.25
0.53
2.57
3.98
5.02
5.88
6.64
7.25
7.62
7.74
7.62
7.36
7.07
6.85
6.73
6.71
6.75
6.86
7.05
7.36
7.77
8.15
8.26
7.88
6.89
5.36
3.6
2.0
0.87
0.32
0.23
0.28
0.1
-0.51
-1.57
-2.86
-4.14
-5.2
-5.96
-6.48
-6.95
-7.56
-8.46
-9.68
-11.17
-12.78
-14.29
-15.5
-16.14
-16.02
-15.0
-13.09
-10.37
-7.14
-3.77
-0.64
1.96
3.89
5.17
6.01
6.62
7.18
7.72
8.18
8.44
8.4
8.06
7.52
6.92
6.43
6.15
6.13
6.37
6.83
7.39
7.88
8.11
7.91
7.16
5.9
4.24
2.4
0.6
-1.0
-2.33
-3.39
-4.27
-5.02
-5.65
-6.11
-6.34
-6.26
-5.87
-5.28
-4.63
-4.08
-3.83
-4.05
-4.83
-6.16
-7.89
-9.68
-11.1
-11.8
-11.66
-10.83
-9.58
-8.3
-7.26
-6.62
-6.38
-6.46
-6.74
-7.06
-7.27
-7.28
-7.0
-6.41
-5.57
-4.54
-3.41
-2.24
-1.06
0.09
1.24
2.36
3.46
4.51
5.41
6.01
6.25
6.16
5.84
5.44
5.14
4.99
5.0
5.06
5.1
5.08
4.99
4.85
4.63
4.27
3.66
2.72
1.41
-0.11
-1.64
-2.97
-3.96
-4.64
-5.18
-5.75
-6.48
-7.41
-8.47
-9.55
-10.5
-11.18
-11.35
-10.86
-9.57
-7.49
-4.81
-1.83
1.2
4.07
6.66
8.89
10.67
11.88
12.47
12.45
11.96
11.18
10.26
9.28
8.22
7.09
5.96
4.92
4.07
3.44
3.01
2.75
2.63
2.66
2.83
3.08
3.35
3.57
3.75
3.94
4.12
4.22
4.07
3.51
2.48
1.14
-0.29
-1.62
-2.8
-3.96
-5.24
-6.74
-8.42
-10.18
-11.87
-13.38
-14.55
-15.19
-15.08
-14.0
-11.89
-8.93
-5.48
-2.01
1.08
3.54
5.34
6.52
7.24
7.64
7.82
7.85
7.8
7.74
7.71
7.76
7.83
7.88
7.84
7.67
7.36
6.95
6.5
6.07
5.74
5.49
5.3
5.08
4.77
4.32
3.78
3.22
2.7
2.25
1.81
1.29
0.59
-0.35
-1.47
-2.71
-3.96
-5.18
-6.27
-7.24
-8.08
-8.84
-9.71
-10.86
-12.34
-14.0
-15.5
-16.42
-16.48
-15.58
-13.92
-11.84
-9.72
-7.78
-6.11
-4.68
-3.4
-2.23
-1.16
-0.13
0.93
2.17
3.63
5.3
7.06
8.74
10.2
11.37
12.24
12.85
13.19
13.21
12.87
12.17
11.19
10.01
8.66
7.12
5.4
3.6
1.96
0.71
-0.05
-0.4
-0.63
-1.0
-1.62
-2.46
-3.3
-4.0
-4.58
-5.17
-6.03
-7.37
-9.21
-11.5
-14.09
-16.74
-19.13
-20.88
-21.62
-21.16
-19.5
-16.94
-13.92
-10.89
-8.15
-5.88
-4.09
-2.69
-1.63
-0.84
-0.28
0.12
0.52
1.04
1.78
2.76
3.92
5.19
6.54
8.0
9.62
11.42
13.3
15.08
16.52
17.43
17.72
17.42
16.59
15.3
13.6
11.58
9.38
7.29
5.52
4.22
3.3
2.49
1.47
0.01
-1.89
-4.0
-6.0
-7.63
-8.83
-9.74
-10.58
-11.56
-12.71
-13.97
-15.12
-15.95
-16.32
-16.13
-15.35
-14.02
-12.24
-10.16
-7.96
-5.81
-3.82
-1.96
-0.16
1.65
3.51
5.3
6.83
7.95
8.59
8.84
8.85
8.81
8.79
8.79
8.76
8.7
8.67
8.71
8.84
8.92
8.82
8.36
7.5
6.37
5.18
4.15
3.43
3.05
2.95
2.99
3.06
3.06
2.86
2.41
1.72
0.82
-0.23
-1.4
-2.76
-4.46
-6.61
-9.25
-12.23
-15.16
-17.54
-18.81
-18.6
-16.83
-13.77
-9.96
-5.98
-2.4
0.51
2.69
4.27
5.44
6.31
6.93
7.28
7.39
7.37
7.32
7.34
7.45
7.58
7.61
7.45
7.12
6.66
6.16
5.68
5.22
4.73
4.2
3.65
3.14
2.77
2.62
2.69
2.94
3.24
3.46
3.46
3.1
2.29
0.98
-0.79
-2.89
-5.09
-7.13
-8.84
-10.19
-11.37
-12.72
-14.55
-16.91
-19.59
-22.07
-23.79
-24.37
-23.75
-22.2
-20.16
-18.03
-16.03
-14.21
-12.5
-10.8
-9.1
-7.45
-5.94
-4.69
-3.77
-3.22
-3.07
-3.28
-3.72
-4.24
-4.75
-5.2
-5.6
-5.97
-6.29
-6.53
-6.58
-6.34
-5.69
-4.44
-2.28
1.03
5.54
10.94
16.62
21.96
26.72
31.23
36.37
43.12
52.08
63.14
75.49
87.93
99.36
108.95
116.23
121.01
123.19
122.71
119.61
114.04
106.21
96.22
84.04
69.6
53.06
35.06
16.87
0.29
-12.94
-21.63
-25.59
-25.72
-23.6
-20.97
-19.15
-18.71
-19.65
-21.64
-24.41
-27.86
-31.89
-36.08
-39.63
-41.49
-40.95
-38.09
-33.9
-29.76
-26.7
-24.85
-23.36
-20.96
-16.83
-11.11
-4.92
0.25
3.26
3.72
1.91
-1.47
-5.85
-10.84
-16.22
-21.86
-27.54
-33.11
-38.52
-43.77
-48.78
-53.29
-56.88
-59.18
-60.0
-59.53
-58.27
-56.73
-55.34
-54.11
-52.82
-51.07
-48.51
-45.01
-40.62
-35.51
-29.87
-23.95
-17.93
-12.1
-6.74
-2.16
1.44
3.99
5.63
6.63
7.29
7.89
8.63
9.61
10.83
12.18
13.52
14.72
15.63
16.23
16.58
16.74
16.76
16.64
16.27
15.57
14.51
13.19
11.82
10.65
9.84
9.34
8.95
8.42
7.6
6.54
5.51
4.74
4.37
4.38
4.59
4.94
5.47
6.31
7.53
8.97
10.25
10.87
10.44
8.83
6.22
3.02
-0.24
-3.03
-4.93
-5.73
-5.46
-4.45
-3.13
-1.96
-1.24
-1.0
-1.06
-1.25
-1.46
-1.74
-2.28
-3.25
-4.64
-6.23
-7.7
-8.75
-9.24
-9.21
-8.88
-8.46
-8.07
-7.7
-7.24
-6.63
-5.94
-5.4
-5.21
-5.54
-6.32
-7.33
-8.27
-8.85
-8.91
-8.47
-7.65
-6.69
-5.84
-5.33
-5.31
-5.82
-6.76
-7.92
-9.08
-10.07
-10.84
-11.47
-12.14
-13.04
-14.32
-15.96
-17.77
-19.33
-20.1
-19.6
-17.6
-14.29
-10.19
-6.03
-2.37
0.47
2.52
4.01
5.14
6.0
6.5
6.5
5.96
5.05
4.1
3.54
3.64
4.42
5.67
7.01
8.09
8.74
9.02
9.09
9.12
9.16
9.15
9.0
8.66
8.24
7.9
7.77
7.84
7.97
7.97
7.69
7.07
6.2
5.17
4.03
2.77
1.35
-0.21
-1.8
-3.35
-4.81
-6.26
-7.82
-9.54
-11.34
-12.92
-13.87
-13.84
-12.6
-10.19
-6.81
-2.82
1.33
5.27
8.65
11.26
13.03
14.01
14.27
13.93
13.03
11.65
9.9
7.97
6.14
4.7
3.87
3.65
3.97
4.69
5.68
6.9
8.29
9.75
11.08
12.09
12.63
12.71
12.41
11.81
10.93
9.69
8.01
5.92
3.56
1.15
-1.09
-3.09
-4.92
-6.69
-8.49
-10.39
-12.42
-14.63
-17.06
-19.62
-22.06
-23.94
-24.75
-24.07
-21.81
-18.17
-13.62
-8.72
-4.0
0.18
3.67
6.47
8.67
10.42
11.86
13.06
14.1
14.99
15.72
16.2
16.37
16.07
15.25
13.94
12.27
10.51
8.94
7.76
6.97
6.49
6.16
5.81
5.36
4.78
4.06
3.25
2.37
1.41
0.34
-0.85
-2.22
-3.7
-5.18
-6.47
-7.43
-7.96
-8.12
-8.07
-8.03
-8.19
-8.71
-9.65
-10.97
-12.51
-13.95
-14.83
-14.75
-13.46
-11.03
-7.79
-4.3
-1.12
1.43
3.24
4.45
5.24
5.74
5.96
5.89
5.56
5.08
4.69
4.55
4.74
5.21
5.78
6.29
6.65
6.87
7.01
7.11
7.13
7.03
6.73
6.2
5.45
4.54
3.57
2.66
1.94
1.45
1.19
1.03
0.85
0.53
0.03
-0.61
-1.31
-2.04
-2.81
-3.65
-4.68
-5.94
-7.46
-9.16
-10.88
-12.37
-13.35
-13.56
-12.81
-11.08
-8.5
-5.38
-2.13
0.92
3.51
5.57
7.08
8.14
8.79
9.01
8.78
8.13
7.19
6.16
5.31
4.83
4.8
5.1
5.52
5.9
6.13
6.38
6.88
7.77
9.0
10.23
11.03
11.08
10.32
8.99
7.47
6.01
4.65
3.23
1.53
-0.56
-2.94
-5.29
-7.3
-8.73
-9.52
-9.8
-9.75
-9.59
-9.47
-9.55
-9.94
-10.74
-11.98
-13.52
-14.98
-15.86
-15.67
-14.1
-11.26
-7.57
-3.62
0.01
3.02
5.31
6.99
8.13
8.81
9.01
8.76
8.14
7.27
6.33
5.42
4.57
3.78
3.06
2.49
2.2
2.32
2.86
3.67
4.48
5.05
5.23
5.07
4.76
4.42
3.99
3.22
1.85
-0.23
-2.79
-5.43
-7.75
-9.55
-10.88
-11.97
-12.93
-13.73
-14.17
-14.08
-13.55
-12.87
-12.41
-12.29
-12.28
-11.86
-10.45
-7.79
-4.09
0.04
3.82
6.68
8.37
9.0
8.97
8.68
8.47
8.48
8.81
9.35
9.98
10.56
10.97
11.2
11.29
11.35
11.41
11.48
11.48
11.29
10.81
10.03
9.03
7.96
6.98
6.24
5.79
5.58
5.48
5.27
4.72
3.73
2.31
0.65
-1.05
-2.57
-3.88
-5.13
-6.52
-8.31
-10.6
-13.23
-15.86
-18.04
-19.37
-19.64
-18.88
-17.24
-14.98
-12.24
-9.23
-6.1
-3.06
-0.36
1.78
3.28
4.21
4.76
5.16
5.52
5.89
6.18
6.28
6.1
5.6
4.86
4.0
3.25
2.8
2.8
3.28
4.14
5.2
6.2
6.92
7.16
6.84
5.97
4.69
3.21
1.79
0.6
-0.37
-1.3
-2.41
-3.91
-5.81
-7.93
-9.99
-11.8
-13.33
-14.72
-16.16
-17.74
-19.32
-20.6
-21.17
-20.63
-18.83
-15.78
-11.82
-7.38
-3.01
0.81
3.81
5.9
7.18
7.82
8.02
7.91
7.62
7.27
7.0
6.99
7.35
8.04
8.95
9.91
10.81
11.6
12.3
12.92
13.4
13.59
13.3
12.36
10.71
8.41
5.63
2.64
-0.21
-2.62
-4.31
-5.19
-5.39
-5.14
-4.74
-4.33
-3.97
-3.6
-3.24
-3.04
-3.27
-4.2
-6.04
-8.79
-12.2
-15.74
-18.8
-20.79
-21.28
-20.12
-17.43
-13.6
-9.07
-4.28
0.41
4.73
8.48
11.52
13.78
15.3
16.16
16.52
16.48
16.15
15.56
14.77
13.85
12.91
12.04
11.31
10.75
10.34
10.01
9.67
9.23
8.66
7.92
7.06
6.14
5.22
4.37
3.67
3.16
2.81
2.55
2.25
1.75
0.96
-0.1
-1.34
-2.57
-3.6
-4.35
-4.84
-5.18
-5.6
-6.34
-7.62
-9.53
-11.93
-14.44
-16.58
-17.82
-17.87
-16.7
-14.56
-11.85
-8.98
-6.27
-3.91
-2.0
-0.52
0.6
1.5
2.39
3.43
4.68
6.14
7.67
9.07
10.22
11.01
11.45
11.59
11.56
11.48
11.45
11.51
11.56
11.46
11.01
10.14
8.89
7.5
6.25
5.33
4.79
4.4
3.84
2.81
1.15
-1.01
-3.36
-5.54
-7.22
-8.33
-8.94
-9.28
-9.67
-10.36
-11.49
-13.0
-14.62
-15.84
-16.09
-14.95
-12.24
-8.25
-3.53
1.3
5.72
9.45
12.46
14.74
16.24
16.88
16.57
15.42
13.72
11.84
10.14
8.76
7.71
6.85
6.07
5.36
4.82
4.59
4.73
5.2
5.82
6.36
6.64
6.57
6.15
5.42
4.48
3.41
2.29
1.19
0.16
-0.82
-1.78
-2.84
-4.13
-5.74
-7.67
-9.76
-11.81
-13.64
-15.26
-16.8
-18.44
-20.25
-22.05
-23.43
-23.89
-23.05
-20.84
-17.5
-13.56
-9.57
-5.98
-3.04
-0.78
0.93
2.31
3.49
4.57
5.54
6.41
7.23
8.1
9.07
10.1
10.99
11.49
11.53
11.16
10.7
10.49
10.73
11.43
12.34
13.13
13.48
13.23
12.39
11.08
9.52
7.91
6.4
5.02
3.64
2.14
0.38
-1.62
-3.69
-5.57
-7.07
-8.12
-8.83
-9.39
-10.1
-11.13
-12.58
-14.4
-16.37
-18.13
-19.27
-19.48
-18.63
-16.77
-14.16
-11.12
-7.97
-4.96
-2.25
0.02
1.83
3.24
4.35
5.26
6.06
6.8
7.45
7.97
8.33
8.5
8.5
8.37
8.13
7.86
7.65
7.65
7.93
8.5
9.3
10.18
10.98
11.56
11.85
11.86
11.67
11.39
11.12
10.84
10.46
9.83
8.85
7.45
5.67
3.63
1.55
-0.42
-2.13
-3.56
-4.73
-5.77
-6.89
-8.33
-10.29
-12.81
-15.63
-18.22
-19.95
-20.29
-19.09
-16.61
-13.43
-10.18
-7.31
-5.01
-3.21
-1.76
-0.62
0.22
0.7
0.81
0.64
0.39
0.24
0.32
0.69
1.38
2.42
3.81
5.57
7.56
9.57
11.26
12.3
12.48
11.74
10.23
8.19
5.89
3.53
1.26
-0.82
-2.56
-3.84
-4.5
-4.51
-3.94
-2.95
-1.78
-0.67
0.21
0.72
0.82
0.5
-0.19
-1.2
-2.46
-3.94
-5.58
-7.3
-8.94
-10.16
-10.58
-9.85
-7.8
-4.54
-0.51
3.66
7.33
10.01
11.45
11.69
11.01
9.82
8.5
7.37
6.59
6.19
6.13
6.26
6.49
6.71
6.87
6.9
6.77
6.52
6.18
5.8
5.38
4.9
4.34
3.71
3.06
2.48
2.05
1.76
1.57
1.36
0.99
0.36
-0.63
-1.97
-3.62
-5.4
-7.1
-8.5
-9.49
-10.11
-10.56
-11.06
-11.8
-12.92
-14.4
-16.14
-17.96
-19.56
-20.61
-20.72
-19.63
-17.29
-13.96
-10.09
-6.25
-2.84
-0.1
1.94
3.4
4.34
4.8
4.79
4.37
3.64
2.83
2.21
1.95
2.12
2.64
3.32
4.01
4.62
5.15
5.66
6.26
6.96
7.69
8.32
8.71
8.77
8.47
7.96
7.38
6.92
6.68
6.71
6.94
7.21
7.39
7.27
6.7
5.61
4.0
2.01
-0.12
-2.1
-3.77
-5.09
-6.19
-7.31
-8.59
-10.13
-11.76
-13.18
-13.96
-13.81
-12.51
-10.12
-6.9
-3.29
0.22
3.23
5.47
6.89
7.57
7.75
7.65
7.52
7.48
7.49
7.46
7.25
6.84
6.32
5.86
5.63
5.68
5.89
6.06
6.02
5.72
5.19
4.55
3.84
3.03
2.02
0.78
-0.6
-1.99
-3.16
-4.03
-4.54
-4.8
-4.92
-5.02
-5.19
-5.47
-5.85
-6.34
-6.91
-7.53
-8.2
-8.89
-9.59
-10.32
-11.1
-12.03
-13.22
-14.72
-16.35
-17.77
-18.53
-18.16
-16.48
-13.62
-10.02
-6.25
-2.81
-0.01
2.16
3.86
5.31
6.57
7.62
8.33
8.57
8.41
8.01
7.58
7.26
7.1
6.98
6.81
6.56
6.3
6.13
6.03
5.96
5.79
5.48
5.05
4.6
4.28
4.1
4.0
3.84
3.59
3.2
2.76
2.32
1.94
1.58
1.21
0.87
0.58
0.36
0.17
-0.17
-0.89
-2.2
-4.14
-6.52
-8.93
-10.8
-11.68
-11.31
-9.79
-7.46
-4.82
-2.33
-0.31
1.19
2.22
2.94
3.46
3.82
4.04
4.09
3.98
3.76
3.49
3.22
3.04
3.03
3.22
3.65
4.26
5.0
5.74
6.35
6.72
6.74
6.34
5.56
4.55
3.54
2.76
2.36
2.34
2.49
2.55
2.2
1.32
-0.02
-1.55
-2.94
-3.9
-4.39
-4.57
-4.79
-5.44
-6.86
-9.19
-12.38
-16.15
-20.05
-23.48
-25.81
-26.58
-25.64
-23.26
-20.09
-16.92
-14.46
-13.08
-12.77
-13.24
-14.04
-14.78
-15.15
-14.89
-13.77
-11.65
-8.53
-4.63
-0.48
3.23
5.83
6.98
6.77
5.69
4.38
3.4
2.96
2.89
2.9
2.73
2.39
2.1
2.19
2.88
4.13
5.72
7.3
8.6
9.51
10.06
10.34
10.42
10.33
10.07
9.68
9.29
9.04
8.95
8.85
8.43
7.34
5.47
2.95
0.29
-1.92
-3.27
-3.68
-3.43
-3.02
-2.86
-3.13
-3.76
-4.52
-5.28
-6.06
-7.1
-8.64
-10.74
-13.18
-15.44
-17.02
-17.47
-16.66
-14.68
-11.69
-7.81
-3.17
2.12
7.78
13.36
18.35
22.32
25.08
26.78
27.73
28.26
28.6
28.8
28.76
28.35
27.44
25.98
23.99
21.56
18.82
15.94
13.11
10.52
8.31
6.52
5.1
3.96
2.94
1.88
0.67
-0.77
-2.41
-4.01
-5.2
-5.58
-4.82
-2.89
-0.09
3.05
5.98
8.37
10.11
11.32
12.12
12.54
12.55
12.05
11.03
9.66
8.13
6.64
5.34
4.27
3.45
2.92
2.72
2.88
3.31
3.83
4.25
4.37
4.14
3.58
2.75
1.66
0.32
-1.29
-3.1
-4.97
-6.7
-8.15
-9.28
-10.14
-10.87
-11.53
-12.13
-12.65
-13.05
-13.31
-13.54
-13.87
-14.45
-15.4
-16.75
-18.36
-19.92
-20.99
-21.15
-20.12
-17.87
-14.66
-10.9
-7.06
-3.48
-0.3
2.5
4.99
7.16
8.84
9.87
10.1
9.53
8.41
7.06
5.79
4.77
4.02
3.46
2.99
2.53
2.02
1.4
0.64
-0.31
-1.37
-2.33
-2.96
-3.11
-2.81
-2.19
-1.5
-0.93
-0.56
-0.32
-0.16
-0.04
-0.06
-0.31
-0.98
-2.16
-3.89
-6.1
-8.65
-11.25
-13.49
-14.97
-15.35
-14.5
-12.52
-9.68
-6.41
-3.11
-0.13
2.29
4.05
5.09
5.45
5.24
4.58
3.61
2.44
1.25
0.17
-0.68
-1.24
-1.51
-1.54
-1.44
-1.3
-1.15
-1.0
-0.72
-0.22
0.55
1.43
2.15
2.4
1.96
0.85
-0.68
-2.3
-3.76
-5.0
-6.14
-7.38
-8.91
-10.75
-12.86
-15.17
-17.57
-19.89
-21.8
-22.96
-22.99
-21.7
-19.15
-15.66
-11.65
-7.59
-3.81
-0.52
2.23
4.5
6.43
8.19
9.87
11.41
12.65
13.33
13.33
12.61
11.34
9.7
7.87
5.95
4.04
2.26
0.77
-0.28
-0.84
-1.02
-1.06
-1.18
-1.52
-2.06
-2.67
-3.23
-3.57
-3.64
-3.45
-3.07
-2.62
-2.2
-1.87
-1.67
-1.58
-1.65
-2.0
-2.74
-3.91
-5.33
-6.61
-7.32
-7.16
-6.1
-4.44
-2.6
-0.93
0.4
1.41
2.22
2.97
3.78
4.76
5.96
7.41
9.06
10.77
12.34
13.61
14.52
15.07
15.3
15.24
14.81
13.99
12.73
11.14
9.41
7.77
6.38
5.23
4.21
3.2
2.09
0.89
-0.32
-1.44
-2.38
-3.13
-3.72
-4.19
-4.61
-5.06
-5.68
-6.61
-7.94
-9.6
-11.35
-12.78
-13.51
-13.32
-12.16
-10.23
-7.87
-5.44
-3.23
-1.35
0.18
1.42
2.41
3.15
3.62
3.82
3.84
3.77
3.71
3.72
3.79
3.9
4.05
4.28
4.73
5.51
6.66
8.06
9.52
10.72
11.43
11.51
10.94
9.89
8.59
7.33
6.32
5.67
5.33
5.15
4.89
4.31
3.21
1.46
-0.92
-3.75
-6.56
-8.74
-9.74
-9.22
-7.24
-4.3
-1.08
1.79
3.99
5.54
6.72
7.82
9.03
10.36
11.65
12.71
13.42
13.7
13.5
12.79
11.57
9.88
7.87
5.81
4.02
2.78
2.27
2.4
2.99
3.75
4.42
4.82
4.83
4.37
3.43
2.0
0.15
-2.08
-4.66
-7.62
-11.01
-14.84
-19.0
-23.29
-27.55
-31.63
-35.47
-39.04
-42.19
-44.66
-46.16
-46.48
-45.66
-43.91
-41.62
-39.25
-37.16
-35.65
-34.83
-34.72
-35.13
-35.72
-36.1
-35.87
-34.79
-32.78
-29.9
-26.38
-22.53
-18.74
-15.39
-12.72
-10.81
-9.5
-8.46
-7.27
-5.62
-3.39
-0.6
2.67
6.39
10.68
15.77
21.95
29.35
37.83
46.92
55.92
64.11
71.08
76.88
81.94
86.66
91.0
94.21
94.99
91.98
84.44
72.57
57.66
41.53
26.04
12.51
1.68
-6.21
-11.31
-13.98
-14.8
-14.57
-14.16
-14.29
-15.31
-17.1
-19.22
-21.14
-22.5
-23.15
-23.23
-22.92
-22.42
-21.84
-21.26
-20.68
-20.1
-19.5
-18.82
-17.92
-16.72
-15.23
-13.53
-11.81
-10.22
-8.79
-7.43
-5.96
-4.23
-2.25
-0.27
1.19
1.51
0.13
-3.12
-8.05
-14.01
-20.14
-25.65
-30.13
-33.67
-36.75
-39.92
-43.51
-47.53
-51.86
-56.47
-61.53
-67.37
-74.21
-81.97
-90.27
-98.59
-106.68
-114.58
-122.63
-131.04
-139.47
-146.98
-152.28
-154.23
-152.25
-146.39
-136.86
-123.56
-105.82
-82.43
-52.3
-15.23
27.58
73.46
118.86
160.23
194.77
220.82
237.89
246.46
247.57
242.66
233.27
220.97
207.08
192.74
178.7
165.44
153.04
141.28
129.74
117.94
105.76
93.52
81.95
71.8
63.45
56.69
50.89
45.36
39.66
33.68
27.41
20.76
13.55
5.74
-2.43
-10.37
-17.4
-23.24
-28.18
-32.9
-37.98
-43.51
-48.89
-53.07
-55.16
-54.62
-51.52
-46.26
-39.35
-31.4
-22.97
-14.85
-7.8
-2.54
0.62
1.84
1.59
0.32
-1.73
-4.58
-8.28
-12.53
-16.78
-20.32
-22.79
-24.26
-25.28
-26.53
-28.38
-30.85
-33.63
-36.42
-39.07
-41.53
-43.75
-45.47
-46.31
-45.99
-44.58
-42.43
-40.03
-37.65
-35.28
-32.72
-29.81
-26.65
-23.58
-21.02
-19.34
-18.67
-18.97
-20.02
-21.53
-23.16
-24.48
-25.09
-24.69
-23.2
-20.78
-17.81
-14.71
-11.88
-9.59
-7.9
-6.62
-5.43
-3.95
-1.92
0.64
3.53
6.51
9.65
13.34
18.31
25.17
34.08
44.46
54.92
63.57
68.54
68.6
63.6
54.89
45.13
37.83
36.49
43.52
59.31
81.7
106.29
127.56
140.74
143.39
136.27
122.68
106.83
92.09
79.76
69.3
59.33
48.98
38.5
29.06
21.93
17.59
15.46
14.22
12.52
9.49
4.94
-0.84
-7.31
-13.94
-20.36
-26.34
-31.8
-36.75
-41.1
-44.68
-47.24
-48.61
-48.86
-48.35
-47.66
-47.47
-48.31
-50.29
-53.05
-55.86
-57.85
-58.38
-57.25
-54.71
-51.26
-47.34
-43.21
-38.85
-34.21
-29.37
-24.57
-20.2
-16.55
-13.71
-11.54
-9.79
-8.26
-6.89
-5.69
-4.72
-3.97
-3.42
-3.04
-2.88
-3.01
-3.46
-4.15
-4.85
-5.27
-5.2
-4.64
-3.79
-3.01
-2.72
-3.19
-4.49
-6.37
-8.38
-10.01
-10.88
-10.94
-10.42
-9.74
-9.33
-9.41
-9.9
-10.57
-11.16
-11.54
-11.81
-12.09
-12.36
-12.45
-12.04
-10.84
-8.81
-6.21
-3.47
-1.09
0.63
1.63
2.05
2.12
2.05
1.96
1.86
1.75
1.6
1.4
1.18
0.95
0.74
0.6
0.55
0.62
0.83
1.14
1.46
1.67
1.56
1.04
0.05
-1.38
-3.13
-5.11
-7.3
-9.72
-12.42
-15.38
-18.48
-21.48
-24.14
-26.27
-27.86
-29.09
-30.22
-31.55
-33.23
-35.29
-37.5
-39.64
-41.39
-42.56
-43.08
-43.06
-42.71
-42.28
-42.01
-41.98
-42.22
-42.6
-43.07
-43.65
-44.5
-45.81
-47.64
-49.81
-51.75
-52.7
-51.86
-48.7
-43.11
-35.44
-26.26
-16.15
-5.49
5.52
17.02
29.42
43.32
59.26
77.41
97.31
117.84
137.64
155.46
170.61
182.92
192.54
199.68
204.57
207.64
209.63
211.42
213.59
216.02
217.81
217.8
215.38
210.85
205.2
199.31
193.28
186.35
177.51
166.28
153.25
139.84
127.51
117.0
107.99
99.41
90.27
80.25
69.76
59.51
49.93
40.88
31.84
22.34
12.42
2.58
-6.51
-14.45
-21.39
-27.94
-34.72
-42.04
-49.64
-56.86
-62.93
-67.29
-69.61
-69.78
-67.86
-64.24
-59.8
-55.78
-53.55
-54.08
-57.43
-62.64
-68.16
-72.53
-75.1
-76.25
-77.06
-78.68
-81.54
-85.17
-88.43
-90.16
-89.72
-87.18
-83.24
-78.74
-74.31
-70.2
-66.29
-62.28
-57.91
-53.18
-48.25
-43.56
-39.63
-36.9
-35.55
-35.37
-35.85
-36.43
-36.89
-37.51
-38.98
-41.87
-46.15
-50.96
-54.86
-56.46
-55.2
-51.68
-47.44
-44.26
-43.24
-44.38
-46.62
-48.52
-48.97
-47.68
-45.07
-41.74
-38.14
-34.46
-30.82
-27.71
-25.98
-26.72
-30.66
-37.65
-46.48
-55.22
-61.81
-64.82
-64.02
-60.33
-55.51
-51.49
-49.54
-49.99
-52.2
-54.96
-57.19
-58.36
-58.59
-58.35
-58.25
-58.82
-60.58
-63.9
-68.64
-73.94
-78.07
-79.05
-75.63
-68.13
-58.59
-49.81
-44.08
-42.1
-42.83
-44.27
-44.69
-43.35
-40.53
-36.95
-33.13
-29.11
-24.8
-20.52
-17.19
-16.22
-18.85
-25.5
-35.38
-46.6
-56.71
-63.45
-65.39
-62.21
-54.69
-44.25
-32.37
-20.24
-8.51
2.54
12.8
22.08
30.01
36.14
40.33
42.8
44.18
45.16
46.16
47.05
47.32
46.41
44.08
40.68
37.0
34.0
32.37
32.34
33.66
35.67
37.59
38.68
38.44
36.71
33.69
30.0
26.3
23.19
20.89
19.23
17.73
15.86
13.2
9.54
4.9
-0.47
-6.04
-10.99
-14.36
-15.28
-13.28
-8.52
-1.74
6.06
13.93
21.23
27.6
32.83
36.73
39.15
40.08
39.79
38.8
37.57
36.18
34.16
30.61
24.65
15.89
4.81
-7.32
-18.88
-28.51
-35.53
-40.07
-42.78
-44.49
-45.74
-46.68
-47.12
-46.92
-46.14
-45.15
-44.44
-44.4
-45.11
-46.38
-47.94
-49.54
-51.14
-52.73
-54.27
-55.5
-55.99
-55.19
-52.67
-48.34
-42.5
-35.75
-28.77
-22.08
-15.91
-10.15
-4.5
1.25
7.12
12.94
18.54
23.89
29.28
35.09
41.5
48.26
54.67
59.78
62.77
63.27
61.47
58.14
54.42
51.58
50.68
52.17
55.74
60.3
64.39
66.61
66.05
62.51
56.41
48.46
39.43
29.98
20.72
12.2
4.87
-1.03
-5.57
-9.15
-12.3
-15.54
-19.09
-22.71
-25.76
-27.3
-26.44
-22.68
-16.15
-7.75
1.11
8.95
14.63
17.76
18.7
18.32
17.53
16.8
16.1
14.93
12.75
9.21
4.42
-1.11
-6.61
-11.32
-14.77
-16.79
-17.67
-17.95
-18.39
-19.7
-22.33
-26.33
-31.26
-36.22
-40.24
-42.45
-42.39
-40.1
-35.97
-30.53
-24.32
-17.78
-11.36
-5.51
-0.75
2.48
4.0
4.05
3.28
2.55
2.68
4.24
7.44
12.16
18.12
24.93
32.06
38.9
44.7
48.81
50.88
51.09
50.0
48.43
47.04
46.07
45.29
44.09
41.83
38.11
32.97
26.84
20.41
14.29
8.88
4.12
-0.3
-4.79
-9.63
-14.73
-19.72
-24.04
-27.21
-29.01
-29.49
-28.96
-27.82
-26.37
-24.86
-23.48
-22.4
-21.83
-22.02
-23.22
-25.53
-28.84
-32.72
-36.45
-39.13
-39.99
-38.44
-34.35
-27.91
-19.68
-10.44
-1.13
7.31
14.13
18.87
21.44
22.13
21.5
20.23
18.93
18.08
17.92
18.61
20.16
22.44
25.16
27.9
30.23
31.76
32.36
32.15
31.42
30.52
29.6
28.61
27.22
24.98
21.59
17.04
11.65
5.96
0.57
-4.1
-7.86
-10.77
-13.05
-15.01
-16.95
-19.08
-21.34
-23.27
-24.07
-22.76
-18.53
-11.14
-1.08
10.39
21.7
31.42
38.74
43.59
46.57
48.51
49.95
50.92
50.92
49.12
44.85
37.79
28.18
16.68
4.17
-8.44
-20.42
-31.19
-40.25
-47.15
-51.54
-53.37
-52.93
-50.97
-48.54
-46.6
-45.69
-45.77
-46.22
-46.27
-45.35
-43.45
-41.11
-39.12
-38.09
-38.2
-39.16
-40.38
-41.22
-41.1
-39.54
-36.1
-30.45
-22.46
-12.32
-0.67
11.55
23.31
33.79
42.55
49.49
54.7
58.27
60.2
60.44
59.08
56.39
52.9
49.26
45.97
43.28
41.02
38.88
36.53
33.97
31.47
29.48
28.28
27.78
27.51
26.83
25.24
22.58
19.12
15.37
11.76
8.5
5.5
2.44
-1.03
-5.15
-9.9
-14.95
-19.64
-23.15
-24.64
-23.59
-19.97
-14.22
-7.16
0.26
7.14
12.87
17.1
19.77
20.99
21.07
20.36
19.18
17.75
16.19
14.62
13.19
12.14
11.78
12.27
13.54
15.32
17.14
18.5
18.97
18.27
16.3
13.25
9.57
5.97
3.12
1.55
1.38
2.33
3.94
5.74
7.49
9.05
10.46
11.7
12.81
13.91
15.31
17.45
20.62
24.69
28.98
32.52
34.39
34.17
32.09
28.82
25.13
21.46
17.94
14.47
10.98
7.56
4.39
1.54
-1.12
-3.88
-6.94
-10.18
-13.13
-15.22
-16.15
-16.03
-15.36
-14.7
-14.35
-14.24
-14.07
-13.65
-13.14
-13.04
-13.95
-16.28
-20.13
-25.31
-31.42
-37.91
-43.95
-48.36
-49.8
-47.19
-40.33
-30.16
-18.53
-7.58
1.2
7.4
11.67
15.02
18.26
21.41
23.92
25.13
24.71
23.02
20.85
19.11
18.48
19.09
20.63
22.53
24.25
25.48
26.22
26.63
26.82
26.7
25.93
24.11
20.83
15.97
9.74
2.76
-4.17
-10.24
-14.91
-18.11
-20.22
-21.83
-23.3
-24.44
-24.19
-20.93
-12.89
1.1
21.11
45.91
73.14
99.63
121.9
136.77
142.05
137.2
123.76
105.24
86.13
70.58
60.83
56.39
54.25
50.3
41.11
25.4
4.46
-18.53
-39.93
-57.03
-68.64
-75.02
-77.26
-76.58
-74.11
-70.85
-67.97
-66.83
-68.73
-74.52
-84.11
-96.49
-110.01
-122.94
-134.16
-143.49
-151.63
-159.77
-169.0
-179.73
-191.61
-203.61
-214.54
-223.38
-229.53
-232.67
-232.43
-228.17
-218.91
-203.63
-181.7
-153.24
-119.38
-82.07
-43.72
-6.76
26.92
56.19
80.59
100.1
114.84
124.87
130.26
131.3
128.66
123.46
117.16
111.13
106.3
103.05
100.97
99.16
96.46
91.92
85.34
77.58
70.54
66.62
67.74
74.46
85.44
97.86
108.41
114.63
115.85
113.25
109.2
106.27
106.45
110.85
119.67
132.14
146.25
158.79
165.83
164.04
151.96
130.89
104.45
77.16
52.72
32.87
17.35
4.81
-5.93
-15.42
-23.64
-30.67
-37.23
-44.57
-53.89
-65.63
-79.27
-93.42
-106.45
-117.04
-124.47
-128.7
-130.1
-129.22
-126.48
-122.2
-116.56
-109.81
-102.31
-94.49
-86.91
-80.14
-74.8
-71.34
-69.84
-69.81
-70.25
-69.89
-67.74
-63.54
-57.76
-51.45
-45.7
-41.19
-37.89
-35.08
-31.74
-26.97
-20.23
-11.41
-0.72
11.46
24.52
37.58
49.46
58.91
64.89
67.03
65.71
62.1
57.67
53.7
50.94
49.43
48.64
47.78
46.13
43.16
38.63
32.58
25.3
17.27
9.07
1.4
-5.03
-9.59
-11.89
-11.86
-9.81
-6.39
-2.31
1.99
6.54
11.88
18.69
27.31
37.36
47.71
56.93
63.91
68.33
70.82
72.53
74.52
77.33
80.8
84.16
86.29
86.03
82.4
74.85
63.62
49.98
36.07
24.35
16.75
14.07
15.8
20.46
26.22
31.44
34.86
35.67
33.5
28.37
20.82
11.73
2.1
-7.2
-15.63
-23.04
-29.59
-35.58
-41.31
-46.91
-52.35
-57.44
-61.92
-65.64
-68.67
-71.3
-73.8
-76.33
-78.67
-80.37
-80.9
-79.95
-77.51
-73.9
-69.6
-64.99
-60.15
-54.73
-47.94
-38.91
-27.1
-12.85
2.51
16.97
28.56
36.15
39.84
40.8
40.58
40.29
40.16
39.69
38.18
35.36
31.66
28.03
25.48
24.54
25.09
26.53
28.1
29.28
29.9
30.0
29.62
28.64
26.76
23.72
19.53
14.48
9.15
4.12
-0.19
-3.64
-6.27
-8.25
-9.68
-10.53
-10.7
-10.03
-8.39
-5.69
-2.02
2.35
6.9
11.0
14.1
15.82
16.21
15.61
14.56
13.51
12.7
12.1
11.57
10.99
10.32
9.64
8.99
8.35
7.6
6.63
5.37
3.82
2.13
0.42
-1.16
-2.52
-3.67
-4.65
-5.57
-6.57
-7.69
-8.96
-10.3
-11.56
-12.51
-12.93
-12.58
-11.33
-9.18
-6.24
-2.79
0.91
4.57
8.02
11.15
13.87
16.12
17.83
18.91
19.25
18.8
17.54
15.55
12.96
9.91
6.52
2.8
-1.36
-6.12
-11.56
-17.63
-24.09
-30.55
-36.53
-41.52
-45.14
-47.26
-48.08
-48.18
-48.33
-49.16
-50.72
-52.47
-53.45
-52.81
-50.2
-45.87
-40.33
-33.99
-26.88
-18.87
-10.11
-1.25
6.64
12.7
16.62
18.91
20.48
22.08
23.94
25.8
27.34
28.54
29.7
31.2
33.08
34.83
35.59
34.58
31.44
26.37
20.0
13.21
6.88
1.72
-1.83
-3.87
-4.96
-6.01
-7.85
-10.79
-14.45
-18.0
-20.56
-21.76
-21.91
-21.76
-22.11
-23.39
-25.47
-27.88
-30.07
-31.73
-32.85
-33.66
-34.46
-35.43
-36.47
-37.24
-37.34
-36.5
-34.75
-32.44
-30.01
-27.71
-25.39
-22.51
-18.3
-12.17
-4.03
5.48
15.16
23.67
30.08
34.27
36.93
39.29
42.38
46.66
51.89
57.44
62.74
67.6
72.05
75.99
79.04
80.58
80.32
78.63
76.6
75.57
76.29
78.53
81.08
82.36
81.14
77.11
70.78
63.19
55.33
47.73
40.47
33.32
26.09
18.81
11.66
4.73
-2.16
-9.5
-17.85
-27.54
-38.38
-49.65
-60.42
-69.93
-77.95
-84.68
-90.53
-95.8
-100.3
-103.44
-104.39
-102.42
-97.25
-89.29
-79.53
-69.19
-59.24
-50.04
-41.3
-32.61
-23.83
-15.49
-8.45
-3.43
-0.44
1.33
3.12
5.83
9.55
13.5
16.61
18.14
18.03
16.84
15.33
14.09
13.25
12.59
11.82
10.75
9.33
7.64
5.77
3.72
1.61
-0.39
-1.99
-2.94
-3.12
-2.66
-1.87
-1.1
-0.61
-0.47
-0.59
-0.81
-1.01
-1.15
-1.26
-1.38
-1.51
-1.67
-1.89
-2.26
-2.82
-3.65
-4.72
-6.02
-7.5
-9.12
-10.88
-12.79
-14.87
-17.16
-19.68
-22.4
-25.23
-28.03
-30.61
-32.86
-34.81
-36.62
-38.56
-40.75
-43.02
-44.9
-45.76
-45.04
-42.44
-38.04
-32.34
-26.11
-20.21
-15.35
-11.91
-9.93
-9.07
-8.72
-8.13
-6.59
-3.61
0.85
6.21
11.36
14.91
15.7
13.47
9.14
4.65
2.22
3.36
8.07
14.67
20.68
23.81
23.07
19.12
13.83
9.3
6.86
6.65
8.06
10.38
13.36
17.15
21.83
26.91
31.22
33.66
33.95
33.08
32.87
34.93
39.31
44.32
47.63
47.84
45.7
43.98
46.14
54.32
68.05
84.2
98.42
107.17
109.2
105.67
98.85
90.32
79.88
65.84
46.36
20.98
-8.66
-39.41
-68.03
-92.56
-112.91
-130.4
-146.62
-162.31
-176.94
-189.38
-198.72
-204.91
-208.84
-211.83
-214.51
-215.96
-213.43
-203.29
-182.82
-152.02
-114.19
-75.07
-40.57
-14.61
1.98
10.96
15.13
16.79
17.24
17.24
17.79
20.31
26.2
35.84
48.11
60.6
70.64
76.4
77.52
75.03
70.66
66.11
62.41
59.88
58.33
57.5
57.41
58.43
61.01
65.27
70.85
76.87
82.23
86.02
87.75
87.46
85.58
82.7
79.31
75.76
72.1
68.24
64.07
59.52
54.69
49.78
45.07
40.84
37.31
34.52
32.36
30.56
28.84
26.94
24.68
22.03
19.0
15.68
12.18
8.61
5.09
1.76
-1.32
-4.11
-6.63
-8.84
-10.6
-11.68
-11.84
-10.94
-9.0
-6.27
-3.19
-0.17
2.42
4.4
5.79
6.79
7.62
8.46
9.31
10.04
10.42
10.24
9.52
8.46
7.41
6.67
6.33
6.19
5.89
5.06
3.55
1.53
-0.59
-2.26
-3.11
-3.02
-2.24
-1.32
-0.96
-1.78
-4.09
-7.67
-11.63
-14.4
-14.01
-8.68
2.62
19.58
40.47
62.53
82.8
99.05
110.25
116.62
119.13
118.86
116.47
112.02
105.15
95.52
83.21
68.95
54.06
40.13
28.61
20.44
15.76
14.09
14.6
16.43
18.94
21.66
24.12
25.74
25.89
24.07
20.04
13.84
5.51
-5.03
-17.89
-32.84
-48.94
-64.36
-76.79
-84.13
-85.32
-80.68
-71.76
-60.61
-49.05
-38.21
-28.61
-20.5
-14.15
-9.95
-8.14
-8.58
-10.6
-13.31
-15.85
-17.77
-19.1
-20.22
-21.47
-23.03
-24.86
-26.79
-28.76
-30.75
-32.82
-34.86
-36.69
-38.07
-38.97
-39.64
-40.63
-42.57
-45.76
-49.95
-54.27
-57.49
-58.4
-56.3
-51.15
-43.45
-33.94
-23.31
-12.2
-1.29
8.51
16.24
21.13
23.02
22.44
20.31
17.49
14.28
10.44
5.5
-0.74
-7.85
-14.99
-21.2
-25.85
-28.71
-29.92
-29.69
-28.2
-25.75
-22.85
-20.22
-18.62
-18.54
-19.85
-21.88
-23.75
-24.9
-25.31
-25.61
-26.62
-28.83
-32.13
-35.69
-38.4
-39.3
-37.98
-34.61
-29.79
-24.25
-18.54
-13.11
-8.27
-4.35
-1.65
-0.34
-0.31
-1.12
-2.06
-2.49
-2.0
-0.66
1.06
2.55
3.38
3.5
3.2
2.93
2.96
3.3
3.65
3.67
3.14
2.11
0.8
-0.53
-1.78
-3.07
-4.57
-6.34
-8.13
-9.44
-9.68
-8.42
-5.66
-1.82
2.39
6.25
9.27
11.34
12.61
13.39
13.93
14.39
14.8
15.18
15.51
15.76
15.87
15.77
15.38
14.63
13.51
12.16
10.76
9.57
8.83
8.62
8.82
9.08
8.99
8.25
6.85
5.05
3.23
1.63
0.22
-1.3
-3.23
-5.62
-8.13
-10.21
-11.37
-11.41
-10.45
-8.78
-6.67
-4.18
-1.29
1.93
5.25
8.25
10.57
12.11
13.08
13.8
14.54
15.25
15.66
15.49
14.61
13.15
11.44
9.68
7.95
6.07
3.91
1.47
-0.99
-3.08
-4.44
-5.0
-4.94
-4.62
-4.42
-4.64
-5.45
-6.86
-8.77
-10.95
-12.96
-14.29
-14.48
-13.28
-10.74
-7.25
-3.32
0.56
3.99
6.79
8.89
10.3
11.05
11.17
10.75
9.9
8.77
7.47
6.17
4.91
3.66
2.29
0.65
-1.37
-3.7
-6.11
-8.31
-10.11
-11.57
-13.0
-14.72
-16.94
-19.57
-22.29
-24.66
-26.33
-27.08
-26.79
-25.35
-22.63
-18.54
-13.17
-6.88
-0.28
5.94
11.19
15.1
17.58
18.74
18.83
18.16
17.08
15.85
14.64
13.54
12.5
11.5
10.53
9.55
8.62
7.71
6.8
5.82
4.79
3.82
3.01
2.46
2.06
1.51
0.46
-1.38
-4.1
-7.5
-11.31
-15.26
-19.16
-22.83
-25.98
-28.2
-29.0
-28.03
-25.31
-21.19
-16.24
-11.03
-5.9
-0.96
3.72
8.09
11.91
14.89
16.84
17.69
17.62
16.87
15.7
14.35
12.98
11.75
10.77
10.1
9.78
9.82
10.15
10.62
11.05
11.26
11.13
10.62
9.83
8.84
7.65
6.09
3.91
1.0
-2.42
-5.8
-8.39
-9.63
-9.36
-7.83
-5.54
-3.08
-0.79
1.17
2.87
4.44
6.0
7.69
9.56
11.63
13.84
16.02
17.9
19.25
19.96
20.05
19.67
19.05
18.38
17.73
17.1
16.38
15.47
14.32
12.85
11.0
8.65
5.67
2.03
-2.19
-6.73
-11.32
-15.83
-20.29
-24.84
-29.55
-34.24
-38.47
-41.66
-43.34
-43.27
-41.56
-38.52
-34.54
-29.94
-24.77
-18.88
-11.96
-3.66
6.14
17.28
29.14
40.82
51.25
59.38
64.45
66.06
64.36
60.04
54.23
48.08
42.44
37.59
33.29
29.08
24.66
20.09
15.67
11.67
7.99
4.21
-0.2
-5.56
-11.83
-18.65
-25.54
-32.08
-37.98
-42.98
-46.82
-49.28
-50.31
-50.11
-49.09
-47.77
-46.56
-45.75
-45.44
-45.72
-46.65
-48.33
-50.73
-53.68
-56.9
-60.01
-62.72
-64.84
-66.39
-67.4
-67.91
-67.88
-67.18
-65.66
-63.19
-59.74
-55.32
-50.02
-43.94
-37.18
-29.94
-22.39
-14.65
-6.69
1.72
10.96
21.29
32.58
44.28
55.52
65.39
73.26
78.99
82.91
85.54
87.36
88.57
89.04
88.31
85.85
81.34
74.76
66.55
57.38
48.08
39.3
31.58
25.23
20.36
16.9
14.44
12.32
9.69
5.87
0.67
-5.5
-11.67
-16.7
-19.73
-20.55
-19.58
-17.69
-15.79
-14.39
-13.48
-12.6
-11.15
-8.8
-5.62
-1.95
1.82
5.51
9.2
13.04
17.06
20.99
24.38
26.8
27.97
27.9
26.87
25.24
23.41
21.69
20.17
18.76
17.28
15.59
13.81
12.32
11.56
11.74
12.61
13.49
13.6
12.43
10.06
7.15
4.61
3.16
3.03
3.93
5.21
6.17
6.32
5.53
3.9
1.66
-1.07
-4.3
-8.1
-12.48
-17.15
-21.53
-24.8
-26.21
-25.38
-22.52
-18.37
-13.91
-10.03
-7.17
-5.21
-3.68
-2.03
-0.04
2.21
4.42
6.21
7.46
8.3
8.99
9.8
10.77
11.76
12.54
12.9
12.78
12.27
11.5
10.54
9.31
7.6
5.24
2.17
-1.44
-5.23
-8.8
-11.84
-14.29
-16.34
-18.31
-20.53
-23.18
-26.13
-29.0
-31.21
-32.21
-31.61
-29.25
-25.29
-20.08
-14.19
-8.26
-2.92
1.33
4.22
5.73
6.19
6.13
6.15
6.66
7.75
9.14
10.41
11.27
11.65
11.73
11.72
11.72
11.66
11.53
11.53
12.13
13.92
17.18
21.64
26.48
30.66
33.47
34.7
34.68
33.89
32.55
30.47
27.2
22.41
16.18
9.2
2.55
-2.74
-6.0
-7.24
-7.05
-6.3
-5.76
-5.78
-6.15
-6.4
-6.04
-4.92
-3.24
-1.44
0.14
1.44
2.72
4.33
6.39
8.69
10.69
11.77
11.57
10.09
7.7
5.0
2.58
0.82
-0.18
-0.61
-0.83
-1.22
-2.08
-3.48
-5.32
-7.29
-9.05
-10.34
-11.04
-11.21
-11.01
-10.69
-10.51
-10.75
-11.64
-13.36
-15.98
-19.33
-22.91
-26.01
-27.85
-27.88
-25.92
-22.26
-17.43
-12.16
-6.99
-2.33
1.61
4.69
6.87
8.1
8.48
8.16
7.39
6.47
5.64
5.03
4.68
4.49
4.33
4.09
3.76
3.41
3.23
3.37
3.88
4.64
5.43
5.94
5.93
5.29
4.12
2.61
0.97
-0.67
-2.31
-3.98
-5.71
-7.39
-8.83
-9.93
-10.77
-11.63
-12.88
-14.62
-16.63
-18.31
-18.92
-17.92
-15.21
-11.18
-6.5
-1.89
2.18
5.43
7.88
9.61
10.69
11.2
11.16
10.71
9.96
9.06
8.14
7.23
6.32
5.43
4.64
4.05
3.76
3.72
3.73
3.55
2.98
2.03
0.88
-0.18
-0.98
-1.5
-1.88
-2.27
-2.78
-3.39
-4.03
-4.6
-5.11
-5.69
-6.48
-7.65
-9.28
-11.22
-13.2
-14.81
-15.7
-15.65
-14.57
-12.61
-9.95
-6.84
-3.51
-0.24
2.69
5.05
6.7
7.66
8.08
8.18
8.08
7.81
7.34
6.66
5.83
5.03
4.47
4.27
4.37
4.6
4.74
4.67
4.44
4.21
4.16
4.33
4.64
4.9
4.91
4.55
3.83
2.86
1.77
0.66
-0.43
-1.49
-2.57
-3.75
-5.2
-7.03
-9.39
-12.29
-15.57
-18.85
-21.59
-23.25
-23.4
-21.92
-18.98
-14.99
-10.49
-6.04
-2.05
1.23
3.71
5.47
6.67
7.52
8.17
8.66
8.99
9.15
9.13
9.06
9.01
9.02
9.02
8.91
8.68
8.45
8.46
8.92
9.88
11.13
12.3
13.03
13.13
12.67
11.83
10.83
9.75
8.55
7.1
5.34
3.26
0.98
-1.35
-3.59
-5.67
-7.65
-9.66
-11.92
-14.62
-17.81
-21.28
-24.57
-27.02
-28.1
-27.5
-25.31
-21.96
-18.02
-13.98
-10.15
-6.61
-3.34
-0.34
2.32
4.52
6.16
7.24
7.86
8.13
8.21
8.17
8.03
7.76
7.35
6.83
6.3
5.89
5.77
6.06
6.82
8.03
9.51
11.06
12.48
13.66
14.58
15.21
15.49
15.29
14.48
12.99
10.84
8.21
5.28
2.28
-0.65
-3.4
-5.94
-8.3
-10.52
-12.8
-15.25
-18.01
-20.97
-23.84
-26.1
-27.21
-26.74
-24.57
-20.92
-16.28
-11.25
-6.33
-1.81
2.2
5.73
8.75
11.24
13.1
14.38
15.17
15.64
15.96
16.19
16.35
16.41
16.39
16.31
16.23
16.2
16.2
16.19
16.07
15.75
15.12
14.18
12.98
11.74
10.66
9.84
9.14
8.21
6.6
4.03
0.53
-3.53
-7.7
-11.66
-15.43
-19.3
-23.58
-28.4
-33.64
-38.95
-43.97
-48.44
-52.12
-54.74
-55.85
-54.98
-51.78
-46.27
-38.88
-30.34
-21.46
-12.83
-4.77
2.62
9.19
14.62
18.4
20.12
19.76
17.84
15.36
13.45
12.92
13.95
16.15
18.75
21.07
22.73
23.75
24.38
24.91
25.46
26.0
26.36
26.37
25.88
24.81
23.16
20.97
18.32
15.31
12.1
8.91
5.98
3.51
1.5
-0.21
-1.99
-4.23
-7.15
-10.64
-14.24
-17.32
-19.21
-19.49
-18.09
-15.24
-11.43
-7.21
-3.04
0.77
4.1
6.94
9.32
11.2
12.54
13.3
13.56
13.51
13.43
13.49
13.72
13.93
13.9
13.47
12.67
11.66
10.66
9.77
9.0
8.28
7.53
6.72
5.82
4.8
3.62
2.2
0.56
-1.2
-2.88
-4.27
-5.22
-5.69
-5.77
-5.65
-5.48
-5.4
-5.52
-5.9
-6.66
-7.92
-9.74
-12.0
-14.34
-16.15
-16.83
-15.96
-13.48
-9.77
-5.46
-1.15
2.78
6.2
9.2
11.91
14.33
16.42
18.1
19.33
20.2
20.85
21.38
21.81
22.0
21.81
21.15
19.95
18.3
16.34
14.21
12.13
10.25
8.65
7.24
5.82
4.17
2.18
0.0
-2.07
-3.67
-4.54
-4.74
-4.55
-4.37
-4.58
-5.36
-6.74
-8.63
-10.96
-13.6
-16.4
-19.09
-21.27
-22.53
-22.51
-21.18
-18.74
-15.62
-12.31
-9.22
-6.54
-4.3
-2.44
-0.85
0.55
1.8
2.86
3.67
4.07
4.02
3.56
2.93
2.45
2.36
2.65
3.09
3.33
3.09
2.3
1.18
0.02
-0.9
-1.55
-2.05
-2.65
-3.53
-4.7
-6.04
-7.32
-8.36
-9.09
-9.57
-9.94
-10.36
-10.92
-11.67
-12.68
-14.06
-15.86
-18.05
-20.34
-22.24
-23.14
-22.56
-20.42
-17.07
-13.27
-9.87
-7.51
-6.42
-6.29
-6.53
-6.44
-5.63
-4.09
-2.21
-0.59
0.22
0.03
-0.94
-2.11
-2.84
-2.74
-1.87
-0.72
-0.06
-0.61
-2.67
-6.04
-10.03
-13.72
-16.3
-17.38
-17.33
-17.08
-17.9
-20.91
-26.61
-34.63
-43.67
-51.87
-56.97
-56.82
-49.99
-36.67
-19.41
-3.0
6.55
4.31
-11.45
-38.2
-69.99
-99.92
-122.78
-136.43
-141.33
-138.84
-129.82
-114.85
-95.8
-77.12
-65.43
-66.92
-83.93
-112.76
-144.47
-168.12
-175.04
-161.79
-130.68
-87.65
-39.24
9.56
56.23
100.17
141.72
181.48
220.47
260.34
302.84
348.67
396.09
440.12
473.46
488.82
481.76
452.77
407.18
353.0
297.98
247.1
201.57
159.69
118.54
75.82
30.97
-14.5
-57.37
-93.5
-118.77
-130.01
-125.88
-107.27
-77.47
-42.07
-8.56
14.55
19.56
1.97
-37.1
-89.88
-143.31
-182.66
-196.05
-178.03
-130.7
-62.44
15.0
89.63
151.44
193.57
212.59
208.48
184.23
144.91
96.41
43.94
-8.72
-59.13
-105.13
-143.92
-171.88
-185.66
-183.9
-168.44
-144.17
-117.46
-93.91
-76.62
-65.82
-59.98
-57.38
-57.27
-59.85
-65.43
-73.44
-82.2
-89.47
-93.44
-93.61
-91.02
-87.63
-85.48
-85.72
-88.22
-91.6
-93.81
-92.98
-88.22
-80.08
-70.21
-60.59
-52.65
-46.69
-42.05
-37.73
-33.13
-28.27
-23.71
-20.0
-17.44
-15.94
-15.22
-14.94
-14.74
-14.18
-12.73
-9.95
-5.72
-0.56
4.68
9.01
11.8
13.0
13.0
12.23
10.95
9.15
6.82
4.27
2.18
1.29
2.01
4.01
6.35
7.89
7.94
6.55
4.42
2.5
1.44
1.33
1.8
2.28
2.3
1.64
0.33
-1.49
-3.49
-5.26
-6.27
-6.13
-4.65
-2.04
1.17
4.35
7.0
8.98
10.37
11.41
12.3
13.06
13.66
14.04
14.21
14.2
14.16
14.12
14.13
14.18
14.19
14.09
13.83
13.45
13.03
12.75
12.76
13.07
13.48
13.67
13.33
12.3
10.76
9.11
7.82
7.18
7.2
7.56
7.88
7.78
7.13
5.96
4.37
2.31
-0.35
-3.76
-7.81
-12.0
-15.48
-17.39
-17.18
-14.91
-11.2
-6.97
-2.99
0.3
2.89
4.96
6.65
8.01
8.96
9.55
9.98
10.51
11.28
12.17
12.79
12.71
11.84
10.57
9.59
9.64
10.94
13.12
15.35
16.8
17.05
16.31
15.18
14.3
13.98
14.04
14.03
13.45
12.07
9.91
7.19
4.1
0.76
-2.77
-6.45
-10.09
-13.45
-16.22
-18.2
-19.36
-19.92
-20.16
-20.37
-20.62
-20.71
-20.29
-19.02
-16.8
-13.85
-10.68
-7.86
-5.84
-4.73
-4.31
-4.14
-3.7
-2.68
-1.01
1.11
3.33
5.39
7.16
8.7
10.19
11.76
13.43
15.11
16.61
17.78
18.45
18.51
17.91
16.63
14.68
12.1
9.05
5.69
2.36
-0.59
-2.79
-4.08
-4.59
-4.71
-4.9
-5.43
-6.29
-7.24
-7.96
-8.37
-8.65
-9.2
-10.36
-12.16
-14.35
-16.43
-17.93
-18.53
-18.19
-17.04
-15.35
-13.36
-11.16
-8.81
-6.24
-3.42
-0.44
2.47
5.01
6.86
7.86
8.09
7.85
7.59
7.7
8.37
9.52
10.87
12.16
13.28
14.36
15.72
17.57
19.81
21.93
23.21
22.97
20.94
17.45
13.28
9.44
6.65
5.04
4.22
3.5
2.28
0.47
-1.6
-3.38
-4.48
-4.96
-5.34
-6.23
-8.08
-10.99
-14.75
-18.95
-23.17
-26.88
-29.49
-30.32
-28.88
-25.05
-19.39
-12.95
-7.0
-2.59
-0.22
0.26
-0.47
-1.52
-2.06
-1.57
0.12
2.79
6.01
9.33
12.4
15.1
17.4
19.29
20.61
21.25
21.12
20.33
19.14
17.83
16.51
15.0
12.97
10.14
6.53
2.62
-0.94
-3.48
-4.75
-4.94
-4.7
-4.74
-5.59
-7.38
-9.89
-12.64
-15.15
-17.1
-18.38
-19.15
-19.65
-20.16
-20.85
-21.67
-22.41
-22.7
-22.17
-20.58
-17.83
-14.03
-9.46
-4.51
0.39
4.78
8.29
10.69
11.98
12.43
12.5
12.69
13.34
14.48
15.83
16.87
17.09
16.32
14.74
12.97
11.72
11.51
12.39
13.96
15.63
16.83
17.36
17.31
16.96
16.46
15.7
14.39
12.33
9.62
6.75
4.36
2.89
2.34
2.21
1.76
0.37
-2.21
-5.86
-10.26
-15.17
-20.4
-25.68
-30.41
-33.74
-34.69
-32.65
-27.78
-21.0
-13.75
-7.45
-3.01
-0.62
0.08
-0.18
-0.76
-1.19
-1.25
-0.85
-0.01
1.21
2.67
4.15
5.41
6.15
6.26
5.78
4.94
4.04
3.33
3.01
3.13
3.65
4.46
5.39
6.22
6.78
6.95
6.84
6.64
6.59
6.82
7.16
7.19
6.45
4.69
2.02
-1.04
-3.85
-5.94
-7.22
-8.07
-9.13
-10.98
-13.84
-17.47
-21.25
-24.44
-26.44
-26.87
-25.64
-22.9
-18.93
-14.18
-9.14
-4.29
-0.04
3.39
6.01
7.98
9.49
10.67
11.48
11.83
11.66
11.06
10.19
9.25
8.41
7.77
7.43
7.41
7.75
8.44
9.37
10.39
11.25
11.73
11.67
11.12
10.24
9.27
8.39
7.64
6.84
5.67
3.87
1.39
-1.53
-4.46
-6.91
-8.62
-9.63
-10.26
-10.98
-12.23
-14.3
-17.19
-20.65
-24.12
-26.91
-28.33
-27.94
-25.65
-21.8
-16.99
-11.89
-6.95
-2.44
1.6
5.16
8.13
10.4
11.91
12.83
13.48
14.28
15.53
17.24
19.26
21.28
23.01
24.28
25.02
25.24
24.9
23.98
22.42
20.31
17.82
15.18
12.59
10.23
8.17
6.39
4.89
3.63
2.57
1.63
0.66
-0.42
-1.67
-3.05
-4.48
-5.85
-7.12
-8.34
-9.65
-11.24
-13.31
-15.94
-19.06
-22.4
-25.43
-27.52
-28.11
-26.84
-23.78
-19.37
-14.33
-9.39
-5.12
-1.75
0.77
2.7
4.39
6.08
7.81
9.42
10.66
11.27
11.17
10.49
9.51
8.61
8.1
8.19
8.96
10.37
12.29
14.46
16.56
18.18
19.02
18.9
17.84
16.08
13.96
11.84
9.98
8.54
7.49
6.64
5.66
4.17
1.99
-0.81
-3.84
-6.53
-8.35
-9.13
-9.16
-9.05
-9.54
-11.12
-13.88
-17.44
-21.16
-24.34
-26.4
-27.01
-26.04
-23.57
-19.86
-15.36
-10.63
-6.26
-2.68
0.0
2.02
3.85
5.93
8.42
11.13
13.57
15.26
15.91
15.58
14.61
13.47
12.49
11.86
11.6
11.62
11.87
12.34
12.97
13.63
14.02
13.83
12.81
11.03
8.85
6.84
5.51
5.11
5.48
6.15
6.52
6.11
4.75
2.59
0.06
-2.3
-4.03
-4.87
-4.9
-4.43
-3.93
-3.86
-4.55
-6.02
-8.09
-10.44
-12.71
-14.62
-15.99
-16.83
-17.29
-17.63
-18.2
-19.28
-21.02
-23.16
-25.23
-26.53
-26.45
-24.67
-21.31
-16.83
-11.82
-6.85
-2.26
1.79
5.33
8.39
10.99
13.14
14.85
16.23
17.34
18.28
19.03
19.51
19.64
19.34
18.65
17.69
16.65
15.75
15.14
14.89
14.98
15.31
15.61
15.6
14.96
13.52
11.3
8.5
5.52
2.74
0.47
-1.19
-2.31
-3.09
-3.78
-4.71
-6.18
-8.4
-11.36
-14.73
-17.96
-20.47
-21.95
-22.59
-22.88
-23.35
-24.21
-25.19
-25.68
-25.07
-23.17
-20.22
-16.75
-13.3
-10.07
-6.96
-3.76
-0.4
2.96
5.93
8.19
9.71
10.82
12.06
13.9
16.47
19.45
22.15
23.75
23.71
21.92
18.9
15.55
12.9
11.7
12.12
13.77
15.77
17.26
17.61
16.66
14.71
12.15
9.34
6.44
3.51
0.64
-2.02
-4.2
-5.79
-6.8
-7.42
-7.94
-8.66
-9.82
-11.53
-13.85
-16.79
-20.21
-23.85
-27.3
-30.07
-31.68
-31.8
-30.33
-27.37
-23.24
-18.33
-13.03
-7.68
-2.54
2.22
6.44
10.05
13.05
15.5
17.43
18.78
19.43
19.23
18.17
16.49
14.61
12.95
11.76
11.01
10.46
9.85
9.15
8.51
8.22
8.42
9.02
9.63
9.81
9.28
8.0
6.22
4.31
2.64
1.36
0.42
-0.43
-1.52
-3.12
-5.32
-8.02
-10.94
-13.79
-16.37
-18.61
-20.56
-22.24
-23.65
-24.81
-25.68
-26.24
-26.46
-26.19
-25.19
-23.15
-19.98
-15.85
-11.27
-6.91
-3.33
-0.74
0.96
2.16
3.18
4.16
5.03
5.65
5.97
6.07
6.16
6.43
6.95
7.6
8.23
8.82
9.39
10.19
11.36
12.89
14.52
15.85
16.44
16.04
14.71
12.75
10.61
8.75
7.48
6.85
6.65
6.5
5.97
4.84
3.02
0.79
-1.54
-3.62
-5.23
-6.37
-7.19
-7.92
-8.73
-9.76
-11.05
-12.64
-14.54
-16.68
-18.91
-20.85
-22.06
-22.06
-20.64
-17.82
-13.98
-9.61
-5.21
-1.09
2.67
6.09
9.23
12.12
14.68
16.76
18.3
19.34
19.99
20.47
20.98
21.62
22.33
22.91
23.1
22.72
21.75
20.37
18.83
17.36
16.04
14.87
13.71
12.53
11.35
10.32
9.57
9.17
9.04
8.95
8.61
7.78
6.4
4.53
2.41
0.38
-1.28
-2.43
-3.16
-3.76
-4.55
-5.84
-7.77
-10.15
-12.64
-14.72
-15.92
-15.89
-14.54
-12.01
-8.62
-4.81
-1.05
2.29
4.95
6.83
7.95
8.47
8.62
8.65
8.71
8.83
8.9
8.76
8.33
7.61
6.72
5.82
5.01
4.36
3.87
3.47
3.13
2.77
2.32
1.73
1.06
0.35
-0.25
-0.69
-0.95
-1.1
-1.29
-1.59
-2.06
-2.71
-3.54
-4.53
-5.68
-7.02
-8.57
-10.45
-12.75
-15.51
-18.59
-21.6
-24.05
-25.43
-25.41
-23.92
-21.25
-17.84
-14.24
-10.95
-8.3
-6.39
-5.11
-4.14
-3.16
-1.97
-0.54
1.01
2.47
3.74
4.81
5.72
6.44
6.93
7.13
7.12
7.05
7.14
7.45
7.86
8.14
8.01
7.34
6.16
4.63
2.95
1.29
-0.15
-1.23
-1.81
-1.96
-1.84
-1.8
-2.11
-2.89
-4.03
-5.21
-6.2
-6.9
-7.44
-8.1
-9.17
-10.81
-12.92
-15.2
-17.24
-18.65
-19.13
-18.52
-16.87
-14.36
-11.28
-7.93
-4.56
-1.39
1.43
3.77
5.54
6.74
7.46
7.9
8.26
8.68
9.22
9.77
10.24
10.58
10.85
11.14
11.56
12.16
12.88
13.58
14.05
14.06
13.38
11.94
9.83
7.31
4.72
2.36
0.33
-1.4
-2.99
-4.54
-6.08
-7.53
-8.83
-9.95
-10.94
-11.89
-12.88
-13.91
-14.99
-16.06
-17.16
-18.31
-19.47
-20.46
-20.95
-20.6
-19.12
-16.53
-13.12
-9.41
-5.98
-3.28
-1.46
-0.45
-0.01
0.11
0.07
0.1
0.43
1.29
2.83
4.95
7.38
9.84
12.17
14.52
17.19
20.38
23.96
27.28
29.61
30.44
29.86
28.55
27.48
27.46
28.93
31.97
36.56
42.68
50.33
59.33
69.16
78.9
87.49
93.87
97.18
96.71
91.77
81.75
66.39
46.2
22.7
-1.71
-24.36
-43.0
-56.51
-65.01
-69.55
-71.54
-72.02
-71.38
-69.43
-65.72
-60.0
-52.59
-44.25
-35.93
-28.52
-22.63
-18.54
-16.38
-16.11
-17.57
-20.33
-23.68
-26.72
-28.67
-29.09
-28.0
-25.82
-23.04
-20.01
-16.88
-13.71
-10.6
-7.74
-5.3
-3.25
-1.39
0.54
2.69
5.0
7.32
9.47
11.42
13.23
14.88
16.1
16.45
15.57
13.32
10.03
6.31
2.67
-0.7
-4.0
-7.6
-11.71
-16.25
-20.87
-25.06
-28.29
-30.1
-30.13
-28.09
-24.02
-18.3
-11.74
-5.34
-0.01
3.83
6.29
7.85
9.01
10.04
10.92
11.48
11.62
11.4
11.03
10.67
10.39
10.07
9.53
8.69
7.65
6.65
5.92
5.49
5.16
4.62
3.61
2.04
0.08
-1.89
-3.57
-4.82
-5.79
-6.81
-8.21
-10.08
-12.25
-14.46
-16.44
-18.14
-19.73
-21.4
-23.24
-25.14
-26.86
-28.31
-29.6
-31.04
-32.82
-34.84
-36.53
-37.12
-35.96
-32.92
-28.43
-23.32
-18.41
-14.26
-10.95
-8.22
-5.72
-3.27
-0.88
1.28
3.01
4.27
5.17
5.94
6.79
7.78
8.75
9.5
9.91
9.94
9.8
9.7
9.82
10.11
10.35
10.19
9.41
7.97
6.04
3.91
1.86
0.0
-1.65
-3.16
-4.55
-5.81
-6.91
-7.8
-8.47
-8.87
-8.97
-8.76
-8.31
-7.93
-8.04
-9.04
-11.1
-13.98
-17.05
-19.54
-20.74
-20.32
-18.4
-15.45
-12.09
-8.89
-6.13
-3.79
-1.68
0.45
2.73
5.1
7.4
9.46
11.18
12.58
13.8
14.9
15.86
16.57
16.9
16.86
16.55
16.2
16.06
16.19
16.53
16.8
16.75
16.21
15.25
14.16
13.26
12.76
12.63
12.61
12.39
11.77
10.78
9.67
8.75
8.25
8.17
8.37
8.53
8.43
8.0
7.21
6.1
4.6
2.61
0.1
-2.74
-5.41
-7.29
-7.79
-6.6
-3.88
-0.18
3.8
7.5
10.67
13.37
15.8
18.01
19.86
20.95
20.9
19.53
17.01
13.81
10.52
7.6
5.22
3.35
1.87
0.73
0.01
-0.16
0.26
1.15
2.28
3.28
3.87
3.96
3.62
3.04
2.46
2.0
1.63
1.15
0.37
-0.87
-2.5
-4.33
-6.07
-7.56
-8.8
-9.93
-11.1
-12.36
-13.61
-14.74
-15.74
-16.75
-18.0
-19.66
-21.6
-23.36
-24.28
-23.72
-21.41
-17.51
-12.55
-7.25
-2.24
2.02
5.34
7.66
9.08
9.73
9.82
9.57
9.2
8.87
8.67
8.57
8.5
8.39
8.22
7.99
7.73
7.47
7.29
7.24
7.39
7.68
7.92
7.82
7.09
5.69
3.84
1.99
0.58
-0.15
-0.28
-0.18
-0.25
-0.77
-1.71
-2.83
-3.81
-4.44
-4.69
-4.72
-4.79
-5.12
-5.81
-6.83
-8.1
-9.5
-10.96
-12.28
-13.32
-13.94
-14.07
-13.82
-13.37
-12.97
-12.73
-12.73
-12.96
-13.44
-14.2
-15.3
-16.75
-18.49
-20.43
-22.5
-24.76
-27.32
-30.28
-33.53
-36.81
-39.79
-42.24
-44.1
-45.55
-46.78
-47.86
-48.74
-49.3
-49.49
-49.39
-49.11
-48.68
-47.84
-46.16
-43.23
-38.92
-33.39
-26.94
-19.75
-11.8
-2.97
6.53
15.89
23.89
29.19
31.07
29.71
26.21
22.24
19.46
19.09
21.52
26.39
32.67
39.14
44.77
49.0
51.89
53.95
55.73
57.51
59.26
60.8
61.94
62.68
63.05
62.95
62.11
60.23
57.37
54.07
51.32
50.01
50.49
52.16
53.76
53.88
51.64
47.02
40.82
34.16
27.93
22.49
17.73
13.38
9.3
5.59
2.43
-0.16
-2.34
-4.39
-6.42
-8.35
-9.97
-11.18
-12.14
-13.3
-15.12
-17.89
-21.58
-25.92
-30.45
-34.57
-37.61
-38.91
-37.98
-34.72
-29.52
-23.16
-16.54
-10.31
-4.74
0.1
4.26
7.58
9.71
10.49
10.02
8.88
7.92
7.87
9.0
11.01
13.23
14.94
15.66
15.38
14.4
13.1
11.72
10.23
8.45
6.25
3.65
0.9
-1.61
-3.49
-4.52
-4.6
-3.87
-2.64
-1.32
-0.38
-0.22
-1.05
-2.79
-5.0
-7.11
-8.61
-9.28
-9.17
-8.52
-7.55
-6.33
-4.85
-3.14
-1.33
0.3
1.49
2.16
2.4
2.45
2.48
2.51
2.43
2.14
1.59
0.91
0.24
-0.4
-1.03
-1.71
-2.45
-3.18
-3.83
-4.43
-5.13
-6.15
-7.6
-9.42
-11.32
-12.98
-14.14
-14.74
-14.97
-15.15
-15.6
-16.51
-17.85
-19.33
-20.47
-20.7
-19.62
-17.14
-13.52
-9.23
-4.88
-0.92
2.4
4.96
6.81
8.02
8.65
8.74
8.46
7.96
7.42
6.92
6.44
5.85
5.02
3.93
2.71
1.61
0.83
0.46
0.45
0.57
0.65
0.58
0.35
0.03
-0.41
-1.02
-1.91
-3.21
-4.91
-6.95
-9.3
-11.92
-14.83
-17.95
-20.9
-23.07
-23.81
-22.68
-19.74
-15.59
-11.05
-6.97
-3.77
-1.49
0.13
1.38
2.35
3.05
3.43
3.58
3.74
4.17
5.03
6.32
7.89
9.54
11.16
12.74
14.37
16.14
18.03
19.89
21.42
22.34
22.44
21.7
20.24
18.35
16.27
14.15
12.01
9.75
7.31
4.66
1.9
-0.75
-3.06
-4.79
-5.82
-6.1
-5.64
-4.51
-2.79
-0.61
1.8
4.14
6.13
7.53
8.32
8.58
8.55
8.47
8.44
8.48
8.5
8.34
7.9
7.15
6.21
5.31
4.82
5.02
5.98
7.49
9.04
10.08
10.24
9.47
8.09
6.48
4.91
3.39
1.73
-0.33
-2.9
-5.92
-9.16
-12.31
-15.12
-17.35
-18.82
-19.35
-18.82
-17.14
-14.41
-10.91
-6.99
-3.04
0.63
3.88
6.74
9.31
11.64
13.71
15.37
16.48
16.93
16.79
16.25
15.55
14.86
14.22
13.59
12.92
12.2
11.55
11.12
10.99
11.07
11.11
10.78
9.84
8.3
6.35
4.33
2.53
1.05
-0.16
-1.29
-2.53
-3.99
-5.69
-7.67
-9.98
-12.6
-15.45
-18.18
-20.24
-21.07
-20.25
-17.81
-14.18
-9.98
-5.85
-2.18
0.99
3.82
6.46
8.99
11.27
13.07
14.18
14.51
14.07
13.06
11.72
10.28
8.97
7.84
6.86
5.91
4.89
3.73
2.52
1.39
0.48
-0.12
-0.46
-0.72
-1.06
-1.57
-2.16
-2.65
-2.85
-2.69
-2.3
-1.95
-1.95
-2.44
-3.35
-4.36
-4.99
-4.78
-3.45
-0.99
2.29
5.86
9.09
11.46
12.72
12.93
12.38
11.42
10.29
9.03
7.61
6.02
4.36
2.85
1.74
1.15
1.02
1.17
1.37
1.48
1.47
1.3
0.93
0.23
-0.89
-2.41
-4.2
-6.04
-7.75
-9.29
-10.69
-12.02
-13.24
-14.2
-14.71
-14.71
-14.37
-13.99
-13.92
-14.3
-15.0
-15.57
-15.54
-14.54
-12.55
-9.89
-7.0
-4.31
-2.07
-0.26
1.3
2.77
4.24
5.62
6.71
7.35
7.47
7.25
7.03
7.18
7.95
9.28
10.76
11.82
12.07
11.56
10.95
11.14
12.94
16.59
21.66
27.32
32.86
38.16
43.89
51.19
61.0
73.34
87.07
100.23
110.89
117.99
122.0
124.87
129.51
139.21
157.19
186.09
227.08
278.7
335.77
389.55
429.52
446.62
436.54
401.13
347.45
284.65
220.32
158.26
98.45
38.62
-23.7
-89.53
-157.99
-226.51
-291.34
-348.37
-393.88
-425.38
-442.31
-445.94
-438.6
-422.83
-400.55
-373.14
-341.93
-308.77
-275.96
-245.5
-218.11
-192.83
-167.71
-140.92
-112.01
-82.2
-53.76
-29.02
-9.29
5.47
16.32
24.63
31.51
37.38
41.91
44.3
43.6
39.35
32.02
23.39
16.09
12.83
15.34
23.65
36.05
49.69
61.5
69.04
71.01
67.36
59.12
48.03
36.12
25.18
16.43
10.32
6.59
4.53
3.19
1.74
-0.4
-3.44
-7.26
-11.45
-15.52
-19.03
-21.64
-23.12
-23.41
-22.66
-21.31
-20.04
-19.55
-20.23
-22.0
-24.24
-26.05
-26.61
-25.51
-22.91
-19.48
-16.13
-13.72
-12.82
-13.44
-15.13
-17.11
-18.58
-19.02
-18.22
-16.3
-13.57
-10.41
-7.22
-4.33
-2.02
-0.34
0.83
1.73
2.49
3.05
3.12
2.57
1.48
0.21
-0.84
-1.55
-2.08
-2.74
-3.68
-4.73
-5.39
-5.3
-4.36
-2.88
-1.32
0.02
1.09
1.97
2.7
3.15
3.19
2.86
2.51
2.6
3.39
4.82
6.5
8.01
9.12
9.87
10.45
10.89
11.08
10.82
10.01
8.8
7.52
6.44
5.7
5.23
4.96
4.91
5.27
6.17
7.54
9.12
10.57
11.6
12.13
12.23
12.06
11.61
10.81
9.49
7.72
5.76
4.03
2.88
2.38
2.32
2.3
1.95
1.24
0.38
-0.24
-0.34
0.14
0.92
1.6
1.88
1.69
1.25
0.82
0.58
0.53
0.59
0.64
0.62
0.47
0.11
-0.61
-1.77
-3.34
-5.05
-6.43
-7.06
-6.66
-5.24
-2.99
-0.25
2.66
5.43
7.79
9.51
10.48
10.68
10.3
9.58
8.78
8.06
7.48
7.04
6.77
6.71
6.81
6.93
6.81
6.19
4.96
3.25
1.4
-0.27
-1.59
-2.61
-3.51
-4.44
-5.37
-6.1
-6.44
-6.36
-6.06
-5.93
-6.32
-7.38
-9.04
-11.05
-13.16
-15.2
-17.03
-18.42
-19.12
-18.85
-17.55
-15.36
-12.72
-10.13
-8.0
-6.44
-5.39
-4.63
-3.99
-3.42
-2.93
-2.59
-2.44
-2.43
-2.59
-2.92
-3.45
-4.16
-4.98
-5.82
-6.62
-7.33
-7.94
-8.46
-8.94
-9.45
-10.11
-11.06
-12.31
-13.79
-15.35
-16.84
-18.22
-19.51
-20.68
-21.59
-22.02
-21.84
-21.18
-20.37
-19.77
-19.47
-19.12
-18.08
-15.8
-12.08
-7.26
-1.95
3.23
7.91
12.02
15.63
18.81
21.55
23.81
25.56
26.84
27.72
28.31
28.66
28.91
29.23
29.8
30.73
31.91
33.05
33.74
33.74
33.03
31.84
30.48
29.11
27.62
25.66
22.93
19.23
14.71
9.73
4.73
0.08
-4.1
-7.96
-11.84
-16.13
-21.19
-27.13
-33.82
-40.87
-47.84
-54.24
-59.7
-63.81
-66.11
-66.18
-63.87
-59.52
-54.0
-48.32
-43.25
-38.98
-35.14
-31.2
-26.83
-21.99
-16.82
-11.47
-6.01
-0.49
4.87
9.76
13.94
17.46
20.77
24.43
28.76
33.56
38.12
41.66
43.78
44.7
45.02
45.21
45.27
44.89
43.81
42.23
40.8
40.28
41.12
43.12
45.59
47.52
48.15
47.24
45.15
42.79
41.34
41.92
45.27
51.61
60.46
70.77
81.14
90.1
96.44
99.48
99.01
95.34
89.03
80.64
70.61
59.35
47.49
35.98
25.98
18.36
13.3
10.03
7.23
3.59
-1.81
-9.34
-18.85
-29.83
-41.27
-51.67
-59.41
-63.56
-64.73
-65.22
-68.11
-75.63
-87.81
-102.32
-115.73
-125.5
-131.42
-135.63
-141.3
-150.6
-163.34
-177.0
-187.9
-193.04
-191.52
-184.87
-176.58
-170.49
-169.15
-172.61
-178.01
-180.0
-172.0
-148.27
-106.21
-48.06
18.65
82.45
131.03
154.91
151.18
124.91
88.26
56.72
43.49
54.38
85.68
126.0
161.57
181.83
182.82
166.98
140.4
109.5
79.11
51.99
29.86
14.26
6.86
8.95
20.42
39.03
60.3
78.29
87.45
85.01
72.82
57.83
49.74
56.83
81.74
119.54
160.31
193.82
214.32
222.24
222.05
218.33
212.35
201.42
180.94
147.76
102.63
50.7
-0.03
-41.42
-67.51
-75.82
-67.4
-46.61
-20.13
4.61
21.27
26.54
20.78
7.3
-9.54
-26.69
-43.69
-62.46
-85.44
-113.24
-143.21
-170.05
-188.21
-194.77
-190.86
-180.76
-169.18
-158.58
-148.06
-134.41
-115.23
-91.39
-67.54
-50.01
-43.5
-48.83
-62.94
-80.9
-98.07
-111.37
-119.17
-120.58
-115.5
-104.89
-91.03
-77.01
-65.16
-55.97
-48.12
-39.92
-30.87
-22.6
-17.86
-18.63
-24.36
-31.81
-36.67
-35.87
-28.92
-17.82
-5.86
4.51
12.55
19.19
26.01
34.01
42.99
51.68
58.15
60.63
58.27
51.53
42.15
32.67
25.5
22.14
22.69
26.09
30.8
35.79
40.83
46.36
52.97
60.66
68.73
75.93
81.03
83.34
82.92
80.63
77.54
74.66
72.36
70.27
67.61
63.59
58.07
51.71
45.73
41.19
38.54
37.32
36.56
35.31
33.01
29.66
25.58
21.17
16.6
11.87
6.88
1.61
-3.85
-9.41
-15.06
-20.98
-27.4
-34.42
-41.73
-48.6
-54.08
-57.22
-57.55
-55.13
-50.58
-44.75
-38.44
-32.24
-26.36
-20.77
-15.25
-9.6
-3.91
1.48
6.02
9.23
10.81
10.77
9.41
7.12
4.31
1.34
-1.5
-3.99
-6.07
-7.82
-9.38
-10.81
-12.06
-12.99
-13.44
-13.41
-13.11
-12.81
-12.67
-12.67
-12.59
-12.15
-11.27
-10.1
-8.93
-7.95
-6.97
-5.38
-2.44
2.38
9.07
17.08
25.55
33.59
40.51
45.84
49.38
51.03
50.96
49.54
47.36
44.84
41.81
37.44
30.49
19.99
6.06
-9.67
-24.5
-35.67
-41.39
-41.6
-37.86
-32.8
-29.2
-29.19
-33.75
-42.62
-54.41
-67.02
-78.29
-86.55
-91.01
-91.89
-90.17
-87.1
-83.68
-80.34
-76.76
-72.33
-66.56
-59.72
-52.9
-47.72
-45.44
-46.16
-48.3
-49.17
-46.25
-38.52
-27.17
-15.04
-5.09
0.98
3.4
3.79
3.97
4.9
6.43
7.65
7.63
5.98
2.84
-1.39
-6.31
-11.75
-17.61
-23.65
-29.46
-34.51
-38.31
-40.47
-40.84
-39.63
-37.4
-35.15
-33.98
-34.45
-36.05
-36.96
-34.63
-26.87
-13.25
4.39
22.29
36.26
43.41
43.27
37.75
30.13
23.6
20.08
19.86
22.01
25.2
28.42
30.87
31.91
30.8
27.01
20.73
13.42
7.53
5.51
8.23
13.82
18.09
16.5
7.0
-8.08
-22.34
-28.09
-20.03
2.01
32.68
63.37
85.58
94.14
89.05
75.08
59.43
48.41
44.82
47.09
50.69
50.88
45.42
35.75
25.74
18.98
16.48
16.32
15.16
10.94
4.28
-1.9
-4.53
-2.51
2.59
7.46
9.15
6.64
1.22
-4.43
-7.88
-8.29
-6.71
-5.26
-5.74
-8.39
-11.69
-13.17
-10.79
-4.2
4.92
13.6
18.93
19.31
15.11
8.29
1.42
-3.47
-5.59
-5.44
-4.33
-3.48
-3.22
-2.51
1.0
10.27
27.55
53.19
84.99
118.44
147.98
168.41
176.5
171.76
156.58
135.4
113.39
94.72
81.38
72.9
67.15
62.07
57.01
53.24
52.91
57.38
65.83
75.29
82.34
85.18
85.23
86.53
93.5
108.09
128.05
147.41
159.21
158.73
145.54
123.2
97.12
71.69
48.6
27.05
5.25
-17.95
-42.66
-68.53
-95.54
-123.93
-152.95
-179.75
-199.81
-209.13
-206.91
-196.74
-185.18
-178.22
-177.82
-180.73
-180.48
-171.09
-150.37
-120.8
-87.77
-56.72
-30.94
-11.48
1.69
8.28
7.3
-1.9
-18.2
-38.02
-56.19
-68.25
-72.73
-72.07
-71.5
-76.11
-87.91
-104.66
-120.89
-130.74
-131.01
-122.68
-110.28
-99.52
-94.57
-96.48
-103.26
-111.12
-116.28
-116.13
-109.87
-98.66
-85.25
-73.18
-65.53
-63.8
-67.27
-73.48
-79.59
-83.54
-84.37
-81.69
-74.8
-62.88
-46.18
-27.27
-11.33
-4.28
-9.28
-23.99
-40.56
-48.83
-41.42
-17.52
16.64
51.0
76.38
88.33
87.92
80.2
71.51
67.4
71.78
86.58
111.55
143.94
178.62
209.02
228.91
234.44
225.41
205.11
178.97
152.62
130.33
113.96
102.84
94.62
86.44
76.22
63.43
49.27
35.86
25.19
18.27
14.83
13.74
13.66
13.58
13.02
11.75
9.71
6.77
2.9
-1.78
-6.82
-11.46
-14.68
-15.52
-13.33
-8.09
-0.49
8.31
17.12
25.25
32.65
39.77
47.15
55.05
63.32
71.68
79.9
88.02
96.24
104.72
113.39
121.98
130.1
137.53
144.11
149.57
153.32
154.41
151.82
144.97
134.03
119.79
103.17
84.79
64.82
43.35
20.81
-1.71
-22.81
-41.51
-57.98
-73.69
-90.6
-110.01
-131.58
-153.32
-172.52
-187.11
-196.68
-202.49
-206.61
-210.49
-214.03
-215.55
-212.89
-204.6
-190.86
-173.39
-154.65
-136.84
-121.24
-108.1
-96.93
-86.79
-76.56
-65.16
-51.78
-36.17
-18.93
-1.32
15.16
29.39
40.91
49.82
56.25
59.97
60.42
57.23
50.61
41.57
31.6
22.18
14.21
7.99
3.4
0.27
-1.35
-1.3
0.46
3.69
7.82
12.25
16.58
20.7
24.74
28.85
32.95
36.82
40.16
42.79
44.69
45.97
46.7
46.81
46.07
44.28
41.43
37.85
34.08
30.59
27.58
24.78
21.75
18.15
14.07
9.94
6.35
3.6
1.48
-0.61
-3.19
-6.36
-9.62
-12.2
-13.51
-13.47
-12.47
-11.08
-9.66
-8.27
-6.74
-4.88
-2.54
0.29
3.68
7.68
12.33
17.42
22.49
26.85
29.81
30.88
29.94
27.17
23.03
18.17
13.27
8.93
5.47
2.9
0.89
-1.01
-3.15
-5.67
-8.43
-11.24
-13.95
-16.53
-19.09
-21.78
-24.81
-28.4
-32.77
-38.04
-44.06
-50.28
-55.81
-59.67
-61.14
-60.08
-56.93
-52.45
-47.35
-42.04
-36.54
-30.74
-24.56
-18.03
-11.34
-4.69
1.72
7.76
13.25
18.02
21.94
24.89
26.98
28.42
29.5
30.49
31.56
32.69
33.79
34.72
35.38
35.82
36.21
36.72
37.45
38.44
39.8
41.88
45.22
50.35
57.38
65.66
73.77
79.77
81.89
79.05
71.3
59.78
46.35
33.1
21.67
13.02
7.25
3.81
1.68
-0.2
-2.72
-6.54
-12.06
-19.47
-28.62
-38.9
-49.33
-58.8
-66.39
-71.77
-75.27
-77.67
-79.61
-81.32
-82.28
-81.52
-78.03
-71.27
-61.48
-49.5
-36.36
-22.87
-9.37
4.11
17.72
31.37
44.73
57.34
68.83
79.21
88.84
98.11
107.03
115.08
121.25
124.53
124.37
120.92
115.02
107.95
100.99
95.14
90.85
87.97
85.9
83.88
81.25
77.7
73.23
68.19
62.97
57.92
53.24
48.99
45.19
41.71
38.28
34.33
28.99
21.45
11.12
-2.01
-17.24
-33.24
-48.4
-61.12
-70.15
-74.72
-74.71
-70.57
-63.26
-54.09
-44.38
-35.21
-27.15
-20.27
-14.27
-8.84
-3.85
0.54
3.97
6.15
7.03
6.73
5.43
3.27
0.28
-3.45
-7.6
-11.63
-14.91
-16.99
-17.8
-17.68
-17.22
-17.04
-17.5
-18.74
-20.65
-23.01
-25.58
-28.11
-30.34
-32.08
-33.26
-33.96
-34.38
-34.59
-34.5
-33.76
-32.07
-29.34
-25.85
-22.2
-19.01
-16.72
-15.43
-14.97
-15.05
-15.56
-16.52
-18.07
-20.25
-22.93
-25.75
-28.24
-29.98
-30.73
-30.48
-29.44
-27.9
-26.2
-24.62
-23.34
-22.43
-21.88
-21.59
-21.46
-21.42
-21.51
-21.78
-22.26
-22.83
-23.27
-23.32
-22.78
-21.59
-19.79
-17.43
-14.51
-11.02
-7.01
-2.61
1.92
6.31
10.34
13.87
16.89
19.43
21.49
23.02
23.9
23.96
23.03
21.11
18.42
15.37
12.58
10.56
9.61
9.72
10.63
12.02
13.66
15.43
17.26
19.03
20.5
21.39
21.5
20.71
19.16
17.18
15.35
14.32
14.65
16.65
20.22
24.94
30.15
35.22
39.62
42.9
44.62
44.29
41.49
36.02
28.13
18.56
8.34
-1.51
-10.4
-18.28
-25.54
-32.59
-39.57
-46.12
-51.54
-55.04
-56.19
-55.15
-52.56
-49.29
-46.05
-43.18
-40.62
-38.23
-35.96
-33.99
-32.63
-32.02
-32.04
-32.2
-31.9
-30.65
-28.28
-24.91
-20.81
-16.15
-10.97
-5.24
0.9
7.01
12.39
16.16
17.64
16.41
12.46
6.13
-1.98
-11.06
-20.24
-28.77
-36.21
-42.57
-48.24
-53.79
-59.61
-65.66
-71.45
-76.35
-79.84
-81.81
-82.48
-82.17
-81.13
-79.52
-77.58
-75.81
-75.06
-76.05
-78.93
-82.97
-86.81
-89.1
-89.16
-87.39
-84.83
-82.5
-80.66
-78.68
-75.44
-69.99
-62.07
-52.07
-40.76
-28.84
-16.72
-4.62
7.18
18.12
27.38
34.3
38.73
41.31
43.3
46.11
50.73
57.28
65.12
73.18
80.45
86.43
91.06
94.57
97.29
99.37
100.88
101.7
101.72
100.74
98.52
94.92
89.92
83.8
77.0
70.02
63.28
57.09
51.64
47.07
43.36
40.38
37.86
35.49
33.07
30.7
28.66
27.36
27.1
27.93
29.72
32.26
35.34
38.88
42.71
46.56
49.98
52.45
53.65
53.58
52.57
51.14
49.76
48.65
47.81
47.03
46.03
44.57
42.47
39.73
36.42
32.76
29.03
25.45
22.18
19.36
17.11
15.61
14.96
15.19
16.21
17.82
19.82
21.9
23.66
24.57
23.98
21.43
16.89
10.86
4.19
-2.21
-7.75
-12.29
-16.07
-19.55
-23.41
-28.5
-35.72
-45.62
-58.03
-71.72
-84.63
-94.61
-100.36
-101.96
-100.75
-98.38
-95.66
-92.03
-85.87
-75.6
-60.88
-43.02
-24.55
-8.2
4.2
12.11
15.96
16.62
14.91
11.65
7.78
4.46
2.85
3.47
5.94
9.11
11.61
12.52
11.67
9.5
6.6
3.4
0.15
-2.95
-5.53
-7.23
-7.92
-7.97
-8.17
-9.36
-11.96
-15.72
-19.98
-23.93
-27.19
-29.85
-32.37
-35.23
-38.67
-42.64
-46.83
-50.85
-54.27
-56.67
-57.67
-57.07
-54.89
-51.49
-47.39
-43.09
-38.91
-34.87
-30.85
-26.73
-22.47
-18.17
-13.93
-9.86
-5.97
-2.19
1.52
5.13
8.56
11.7
14.44
16.71
18.45
19.51
19.73
18.92
17.0
13.99
10.11
5.7
1.19
-3.16
-7.3
-11.52
-16.28
-21.96
-28.7
-36.22
-43.86
-50.64
-55.59
-58.02
-57.77
-55.29
-51.4
-47.08
-43.12
-39.82
-37.05
-34.45
-31.71
-28.83
-26.11
-23.78
-21.8
-19.66
-16.6
-12.13
-6.36
0.02
6.02
10.89
14.45
16.94
18.6
19.4
19.06
17.48
15.22
13.56
14.05
17.76
24.43
32.31
38.79
41.55
39.77
34.66
28.96
25.69
26.81
32.36
40.72
49.54
56.85
61.69
64.15
64.62
63.25
59.85
54.21
46.51
37.43
27.85
18.74
11.09
6.1
5.11
9.25
18.56
31.47
45.04
56.0
62.25
63.79
62.35
59.88
56.98
52.2
42.98
27.57
6.72
-16.11
-36.04
-49.08
-54.05
-52.7
-48.6
-44.95
-43.16
-42.6
-41.73
-39.4
-35.71
-31.83
-29.01
-27.67
-27.14
-26.12
-23.56
-19.24
-13.78
-8.31
-3.87
-1.06
-0.08
-0.75
-2.56
-4.64
-5.97
-5.55
-2.99
1.16
5.63
8.93
10.04
8.91
6.08
2.13
-2.93
-9.79
-19.37
-32.0
-47.1
-63.27
-78.95
-93.11
-105.5
-116.37
-125.63
-132.22
-134.15
-129.39
-117.13
-98.73
-77.85
-59.32
-47.44
-44.26
-48.79
-56.99
-63.08
-61.37
-48.35
-24.16
7.07
38.61
63.47
76.93
77.95
69.16
55.26
41.1
30.15
24.14
23.35
27.2
34.55
43.93
53.74
62.47
69.08
73.11
74.5
73.47
70.51
66.3
61.5
56.32
50.19
42.25
32.09
20.84
11.42
7.64
12.32
25.63
44.56
63.98
78.6
84.74
81.27
69.97
55.24
43.24
40.37
50.76
73.89
103.74
130.3
143.4
137.24
113.39
80.54
50.75
34.11
34.57
48.84
68.64
84.89
91.64
87.83
76.54
62.53
49.82
40.38
34.53
32.02
32.9
37.25
43.74
48.99
48.11
36.77
13.75
-17.96
-51.99
-80.76
-98.16
-101.44
-91.64
-72.8
-50.7
-31.62
-21.16
-23.16
-38.74
-66.22
-101.54
-139.55
-175.29
-205.03
-226.63
-239.62
-244.91
-244.45
-240.8
-236.65
-234.12
-234.36
-237.49
-242.5
-247.37
-248.91
-243.03
-225.55
-193.77
-148.2
-93.29
-36.18
16.42
61.3
100.05
137.07
175.69
214.56
247.14
264.83
262.08
240.19
207.2
173.83
147.91
131.24
120.34
110.04
96.9
80.36
61.53
41.48
21.01
1.98
-11.63
-14.46
-2.82
22.12
53.31
80.32
93.91
90.32
72.4
47.25
22.23
2.05
-11.8
-19.89
-23.22
-22.6
-18.81
-13.08
-7.14
-2.71
-0.72
-1.01
-2.72
-4.8
-6.6
-7.65
-7.53
-5.83
-2.48
1.84
5.64
7.33
6.16
2.91
-0.48
-2.1
-1.3
1.05
3.09
3.21
1.13
-1.82
-3.59
-2.57
1.53
7.38
12.79
15.58
14.9
12.09
10.48
13.99
25.09
43.06
63.56
80.21
87.17
81.85
65.92
44.26
22.47
4.55
-8.09
-16.14
-20.94
-23.54
-24.28
-23.27
-20.89
-18.04
-15.95
-15.8
-18.25
-23.13
-29.46
-35.81
-41.0
-44.57
-46.86
-48.65
-50.51
-52.35
-53.43
-52.77
-49.71
-44.37
-37.57
-30.42
-24.03
-19.13
-15.98
-14.54
-14.5
-15.49
-17.1
-18.94
-20.73
-22.35
-23.79
-25.16
-26.53
-27.89
-29.12
-30.03
-30.5
-30.68
-31.02
-32.23
-34.77
-38.51
-42.45
-44.98
-44.51
-40.29
-32.92
-24.33
-16.92
-12.64
-12.02
-13.89
-15.94
-15.63
-11.4
-3.33
7.01
17.33
25.86
32.22
37.52
43.47
51.38
61.75
74.52
89.62
107.09
126.34
145.29
160.57
168.95
169.55
165.07
161.02
162.91
173.02
188.64
202.95
208.4
200.28
178.89
149.21
118.54
93.79
79.28
75.72
80.41
88.46
94.73
95.26
88.28
73.98
53.71
28.99
1.11
-28.48
-57.66
-83.68
-103.81
-116.52
-122.41
-124.21
-125.62
-129.74
-137.8
-148.79
-160.21
-169.26
-174.0
-174.1
-170.7
-165.62
-160.4
-155.59
-150.71
-144.76
-136.92
-127.1
-116.03
-104.95
-95.0
-86.74
-80.06
-74.31
-68.67
-62.5
-55.76
-49.0
-43.3
-39.96
-39.99
-43.57
-49.83
-57.0
-62.91
-65.79
-64.99
-61.2
-56.06
-51.33
-48.03
-45.98
-44.07
-40.84
-35.3
-27.31
-17.53
-6.95
3.58
13.62
23.02
31.87
40.45
49.37
59.6
72.06
87.1
103.91
120.34
133.58
141.11
141.77
136.17
126.38
115.03
104.31
95.43
88.57
83.32
79.15
75.55
72.11
68.31
63.6
57.71
50.78
43.54
37.0
32.08
29.03
27.28
25.64
22.8
17.89
10.8
2.13
-7.07
-15.75
-23.18
-28.99
-33.16
-35.91
-37.62
-38.66
-39.44
-40.31
-41.65
-43.91
-47.5
-52.62
-59.13
-66.41
-73.5
-79.36
-83.09
-84.0
-81.6
-75.56
-65.97
-53.69
-40.47
-28.71
-20.36
-15.98
-14.29
-12.7
-8.64
-0.97
9.4
20.11
28.57
33.37
34.8
34.37
33.78
33.96
34.78
35.44
35.23
34.02
32.34
31.01
30.58
30.99
31.52
31.15
28.98
24.71
18.81
12.3
6.33
1.62
-1.66
-3.88
-5.56
-7.14
-8.83
-10.64
-12.46
-14.13
-15.47
-16.33
-16.63
-16.45
-15.99
-15.6
-15.55
-15.88
-16.23
-16.07
-14.92
-12.68
-9.68
-6.36
-2.93
0.81
5.34
11.08
18.0
25.4
32.09
36.87
39.06
38.77
36.69
33.68
30.21
26.2
21.24
15.07
7.96
0.74
-5.5
-9.96
-12.7
-14.73
-17.75
-23.59
-33.48
-47.75
-65.66
-85.52
-104.98
-121.34
-132.27
-136.37
-134.01
-127.35
-119.64
-113.76
-110.86
-109.85
-108.06
-102.61
-91.76
-75.29
-53.98
-29.33
-3.53
20.13
37.46
44.94
42.08
32.95
25.37
27.42
42.99
69.03
96.6
115.1
117.48
103.22
77.68
48.75
22.88
2.86
-11.88
-23.2
-31.99
-37.03
-35.63
-25.39
-5.99
19.85
46.99
70.14
86.4
96.72
105.57
118.34
137.86
162.22
184.87
197.68
194.66
174.86
142.82
106.32
73.26
48.67
33.46
24.96
18.87
11.46
1.21
-10.89
-22.23
-30.21
-33.8
-34.01
-33.33
-34.2
-37.53
-42.33
-46.37
-47.51
-45.13
-40.4
-35.46
-32.27
-31.61
-32.85
-34.58
-35.36
-34.51
-32.12
-28.85
-25.55
-22.76
-20.66
-19.08
-17.76
-16.47
-15.24
-14.3
-13.93
-14.21
-14.81
-15.1
-14.3
-11.96
-8.31
-4.04
-0.03
3.23
5.73
7.78
9.54
10.71
10.61
8.67
4.73
-0.73
-6.87
-12.91
-18.4
-23.1
-26.81
-29.33
-30.55
-30.72
-30.38
-30.18
-30.39
-30.7
-30.24
-27.94
-22.98
-15.28
-5.63
4.45
13.19
19.27
22.42
23.46
23.81
24.6
26.07
27.42
27.66
26.5
24.84
24.11
25.21
27.6
29.69
29.86
27.66
24.01
20.49
18.16
17.0
16.3
15.42
14.52
14.27
15.11
16.78
18.37
18.92
18.11
16.27
14.06
11.88
9.77
7.78
6.44
6.71
9.48
14.82
21.62
27.97
32.01
32.92
31.16
28.09
25.06
22.78
21.14
19.62
17.85
16.03
14.73
14.4
14.96
15.73
15.85
14.85
12.91
10.64
8.61
6.82
4.78
1.93
-1.83
-5.84
-8.96
-10.28
-9.9
-8.99
-9.28
-12.0
-16.97
-22.49
-26.21
-26.29
-22.42
-15.95
-9.05
-3.45
0.4
3.22
5.92
8.55
9.96
8.4
2.76
-6.55
-17.58
-27.75
-35.02
-38.61
-39.02
-37.39
-34.81
-31.79
-28.4
-24.61
-20.73
-17.34
-15.16
-14.59
-15.58
-17.61
-20.04
-22.38
-24.43
-26.23
-27.73
-28.67
-28.55
-26.96
-23.93
-20.18
-16.8
-14.69
-14.07
-14.32
-14.4
-13.43
-11.08
-7.65
-3.74
0.19
4.01
7.76
11.41
14.63
16.9
17.77
17.13
15.35
13.19
11.41
10.54
10.74
11.8
13.22
14.5
15.18
15.02
14.06
12.59
11.11
10.15
9.96
10.19
9.83
7.54
2.19
-6.31
-16.75
-26.68
-33.31
-34.59
-30.18
-21.57
-11.51
-2.88
2.47
4.2
3.32
1.42
-0.09
-0.29
1.29
5.05
11.38
20.5
31.88
44.03
54.85
62.5
66.17
66.19
63.4
58.15
49.89
37.49
20.33
-0.36
-21.26
-37.7
-45.64
-43.59
-33.69
-20.97
-11.22
-8.58
-13.86
-24.73
-37.08
-47.22
-53.2
-55.13
-54.34
-52.22
-49.52
-46.25
-42.2
-37.28
-31.73
-26.06
-21.01
-17.34
-15.44
-14.94
-14.43
-11.88
-5.57
4.78
17.66
30.33
40.05
45.28
45.99
43.23
38.24
31.76
24.14
15.71
7.14
-0.58
-6.66
-10.81
-13.32
-14.64
-15.08
-14.67
-13.4
-11.48
-9.42
-7.81
-7.04
-7.08
-7.53
-7.96
-8.07
-7.93
-7.82
-8.05
-8.67
-9.48
-10.11
-10.32
-10.15
-9.93
-10.09
-10.96
-12.59
-14.65
-16.58
-17.78
-17.69
-16.14
-13.37
-10.02
-7.04
-5.36
-5.54
-7.43
-10.03
-11.68
-10.6
-5.64
3.17
14.52
26.12
35.5
40.77
41.22
37.39
30.72
23.01
15.86
10.41
7.2
6.14
6.66
7.85
8.82
9.11
9.01
9.48
11.73
16.69
24.48
34.21
44.21
52.55
57.63
58.64
55.76
49.95
42.64
35.33
29.27
25.35
24.13
26.03
31.36
40.29
52.58
67.3
82.83
97.13
108.5
116.27
121.12
124.62
128.27
132.49
136.17
137.08
133.06
123.32
109.02
92.71
76.93
63.03
50.62
38.4
25.38
12.0
0.04
-8.32
-11.98
-11.76
-10.16
-10.25
-14.33
-22.99
-35.19
-48.95
-62.29
-73.9
-83.3
-90.63
-96.46
-101.62
-107.16
-114.15
-123.39
-135.02
-148.19
-161.22
-172.18
-179.6
-182.97
-182.88
-180.47
-176.78
-172.04
-165.64
-156.68
-144.71
-130.21
-114.6
-99.61
-86.49
-75.5
-65.98
-56.93
-47.62
-38.11
-29.05
-21.29
-15.27
-10.77
-7.0
-3.05
1.72
7.36
13.42
19.18
23.99
27.55
29.97
31.66
33.07
34.49
35.94
37.15
37.79
37.59
36.5
34.76
32.8
31.06
29.79
28.98
28.43
27.92
27.33
26.7
26.03
25.24
24.09
22.28
19.69
16.46
13.06
10.11
8.15
7.48
8.06
9.53
11.39
13.21
14.69
15.67
16.18
16.37
16.56
17.09
18.23
20.06
22.44
24.99
27.21
28.63
29.01
28.41
27.15
25.71
24.42
23.39
22.49
21.46
20.14
18.55
16.86
15.28
13.98
12.91
12.0
11.14
10.37
9.81
9.6
9.64
9.67
9.32
8.3
6.61
4.59
2.77
1.7
1.72
2.81
4.67
6.82
8.78
10.2
10.87
10.72
9.85
8.44
6.77
5.11
3.65
2.41
1.35
0.39
-0.44
-0.96
-1.0
-0.45
0.63
2.04
3.62
5.32
7.18
9.21
11.27
13.06
14.2
14.47
13.85
12.55
10.83
8.9
6.81
4.59
2.27
0.06
-1.71
-2.74
-2.92
-2.4
-1.52
-0.65
0.01
0.53
1.11
1.9
2.88
3.85
4.58
4.99
5.19
5.43
5.84
6.3
6.55
6.39
5.82
5.15
4.74
4.71
5.01
5.32
5.41
5.23
4.92
4.66
4.46
4.07
3.06
0.95
-2.5
-7.31
-13.3
-20.2
-27.81
-35.87
-44.1
-52.13
-59.42
-65.43
-69.88
-72.84
-74.76
-76.19
-77.41
-78.19
-77.87
-75.64
-71.02
-64.14
-55.78
-47.02
-38.89
-31.99
-26.48
-22.27
-19.3
-17.87
-18.5
-21.71
-27.42
-34.75
-42.0
-47.21
-48.92
-46.78
-41.62
-34.94
-28.12
-21.81
-15.76
-9.05
-0.82
9.32
21.01
33.24
44.72
54.05
59.9
61.12
57.24
48.9
37.9
26.87
18.25
13.36
11.86
12.07
12.01
10.43
7.32
3.54
0.07
-2.75
-5.24
-8.01
-11.34
-14.89
-17.98
-20.03
-20.9
-20.89
-20.4
-19.66
-18.59
-16.99
-14.64
-11.52
-7.73
-3.49
0.84
4.8
7.81
9.47
9.68
8.81
7.57
6.67
6.51
7.01
7.78
8.4
8.77
9.14
9.94
11.41
13.47
15.76
17.9
19.66
21.08
22.28
23.37
24.26
24.71
24.36
22.84
19.96
15.81
10.89
6.01
1.96
-0.77
-2.21
-2.81
-3.11
-3.44
-3.58
-2.84
-0.32
4.61
12.0
21.28
31.41
41.2
49.52
55.5
58.61
58.72
56.02
50.97
44.16
36.26
28.05
20.5
14.63
11.25
10.7
12.57
15.89
19.33
21.68
22.27
21.0
18.23
14.49
10.24
5.85
1.58
-2.3
-5.66
-8.56
-11.19
-13.77
-16.25
-18.34
-19.58
-19.67
-18.67
-16.96
-15.01
-13.16
-11.53
-10.05
-8.62
-7.27
-6.16
-5.46
-5.3
-5.68
-6.51
-7.62
-8.81
-9.88
-10.6
-10.76
-10.07
-8.35
-5.53
-1.73
2.7
7.24
11.36
14.66
17.0
18.44
19.19
19.48
19.5
19.37
19.17
19.0
18.9
18.88
18.96
19.16
19.53
20.2
21.2
22.54
24.11
25.7
27.13
28.32
29.28
30.15
31.04
31.96
32.76
33.21
33.04
32.05
30.22
27.67
24.65
21.46
18.41
15.77
13.74
12.41
11.7
11.35
10.93
10.0
8.16
5.25
1.42
-2.92
-7.24
-11.09
-14.22
-16.54
-18.0
-18.5
-17.88
-15.94
-12.57
-7.81
-1.9
4.83
11.99
19.25
26.36
33.07
39.08
43.87
46.76
47.24
45.09
40.64
34.68
28.08
21.48
15.15
9.14
3.69
-0.57
-2.69
-1.92
1.83
7.73
14.26
19.86
23.34
24.16
22.36
18.22
12.11
4.41
-4.4
-13.82
-23.17
-31.76
-38.95
-44.31
-47.72
-49.34
-49.65
-49.27
-48.85
-48.86
-49.55
-50.89
-52.64
-54.41
-55.69
-55.9
-54.64
-51.76
-47.57
-42.76
-38.31
-35.11
-33.74
-34.29
-36.33
-39.1
-41.73
-43.43
-43.69
-42.38
-39.66
-35.89
-31.49
-26.81
-22.1
-17.5
-13.14
-9.16
-5.76
-3.17
-1.5
-0.74
-0.7
-1.09
-1.6
-2.01
-2.25
-2.35
-2.45
-2.7
-3.24
-4.1
-5.21
-6.45
-7.71
-8.94
-10.09
-11.21
-12.33
-13.48
-14.61
-15.74
-16.87
-18.06
-19.32
-20.54
-21.47
-21.72
-20.97
-19.06
-16.16
-12.66
-9.13
-6.01
-3.59
-1.85
-0.64
0.27
1.01
1.57
1.97
2.23
2.5
2.96
3.76
4.82
5.84
6.42
6.16
4.95
2.96
0.65
-1.54
-3.34
-4.77
-6.06
-7.53
-9.38
-11.58
-13.93
-16.18
-18.12
-19.67
-20.84
-21.69
-22.15
-22.12
-21.4
-19.83
-17.36
-14.1
-10.28
-6.19
-2.03
2.11
6.19
10.15
13.86
17.06
19.45
20.89
21.33
20.98
20.12
19.07
18.01
16.98
15.9
14.61
13.0
11.11
9.1
7.28
5.9
5.11
4.78
4.66
4.43
3.89
3.05
2.03
1.04
0.16
-0.56
-1.15
-1.6
-1.83
-1.67
-0.9
0.65
3.1
6.36
10.19
14.14
17.7
20.43
22.12
22.79
22.68
22.02
20.94
19.41
17.34
14.72
11.74
8.76
6.1
3.95
2.32
1.03
-0.03
-0.84
-1.25
-1.17
-0.69
-0.16
-0.11
-0.96
-2.85
-5.58
-8.67
-11.58
-13.87
-15.22
-15.45
-14.44
-12.14
-8.66
-4.29
0.5
5.17
9.31
12.72
15.44
17.71
19.79
21.88
24.06
26.24
28.26
30.01
31.44
32.58
33.46
34.07
34.32
34.1
33.36
32.16
30.64
29.0
27.36
25.73
24.05
22.26
20.29
18.12
15.71
12.96
9.76
6.01
1.77
-2.75
-7.15
-10.92
-13.59
-14.92
-14.97
-14.15
-13.04
-12.23
-12.01
-12.29
-12.69
-12.82
-12.45
-11.68
-10.86
-10.32
-10.18
-10.34
-10.6
-10.91
-11.43
-12.51
-14.46
-17.27
-20.52
-23.46
-25.3
-25.5
-23.96
-21.02
-17.28
-13.39
-9.92
-7.29
-5.79
-5.64
-7.0
-9.78
-13.64
-17.86
-21.56
-23.87
-24.27
-22.76
-19.77
-15.99
-12.11
-8.63
-5.76
-3.49
-1.72
-0.27
1.01
2.27
3.64
5.16
6.8
8.39
9.72
10.61
10.91
10.62
9.82
8.77
7.9
7.66
8.46
10.48
13.57
17.27
20.99
24.2
26.51
27.76
27.9
26.91
24.74
21.36
16.87
11.63
6.31
1.66
-1.64
-3.24
-3.28
-2.2
-0.58
1.2
3.06
5.14
7.59
10.52
13.82
17.37
21.13
25.15
29.44
33.79
37.81
41.0
43.14
44.45
45.59
47.38
50.32
54.28
58.49
61.82
63.21
62.1
58.61
53.38
47.39
41.57
36.67
33.14
30.98
29.74
28.45
25.8
20.67
12.67
2.53
-7.95
-16.54
-21.59
-22.76
-21.24
-19.14
-18.56
-20.75
-25.82
-32.81
-40.15
-46.02
-48.59
-46.32
-38.33
-24.76
-6.94
12.77
31.64
47.53
59.64
68.8
76.92
85.93
96.54
107.7
116.67
120.62
117.73
108.03
93.31
75.96
58.02
41.15
27.14
18.48
17.84
26.57
43.54
65.15
87.06
106.55
123.73
140.69
159.15
178.29
194.47
203.05
200.99
188.54
168.85
145.95
122.67
99.76
76.59
52.53
27.99
4.4
-16.75
-34.44
-48.66
-60.25
-70.17
-79.1
-87.21
-94.05
-98.94
-101.38
-101.34
-99.55
-97.26
-95.78
-95.88
-97.55
-100.03
-102.31
-103.64
-103.83
-103.28
-102.6
-102.24
-102.29
-102.42
-102.08
-100.68
-97.87
-93.57
-88.09
-82.03
-76.14
-71.05
-67.05
-63.94
-61.23
-58.41
-55.22
-51.87
-48.75
-46.32
-44.75
-43.92
-43.48
-43.0
-42.18
-40.85
-39.07
-36.98
-34.8
-32.66
-30.65
-28.79
-27.04
-25.48
-24.28
-23.67
-23.85
-24.81
-26.3
-27.95
-29.45
-30.68
-31.69
-32.55
-33.2
-33.34
-32.59
-30.7
-27.7
-23.92
-19.87
-16.01
-12.65
-9.88
-7.64
-5.9
-4.65
-3.92
-3.71
-3.99
-4.64
-5.48
-6.39
-7.27
-8.07
-8.75
-9.28
-9.65
-9.82
-9.86
-9.84
-9.87
-10.0
-10.21
-10.44
-10.59
-10.64
-10.67
-10.78
-11.07
-11.56
-12.23
-13.13
-14.37
-16.1
-18.32
-20.76
-22.84
-23.88
-23.41
-21.39
-18.26
-14.76
-11.64
-9.39
-8.13
-7.72
-7.91
-8.41
-9.01
-9.58
-10.06
-10.49
-10.95
-11.55
-12.3
-13.12
-13.79
-14.1
-13.88
-13.16
-12.09
-10.95
-9.98
-9.36
-9.14
-9.29
-9.7
-10.22
-10.7
-11.01
-11.05
-10.87
-10.67
-10.76
-11.42
-12.71
-14.39
-15.94
-16.74
-16.29
-14.44
-11.38
-7.59
-3.54
0.33
3.81
6.77
9.16
10.95
12.12
12.7
12.72
12.22
11.25
9.87
8.21
6.44
4.73
3.17
1.79
0.52
-0.74
-2.02
-3.3
-4.41
-5.26
-5.8
-6.09
-6.26
-6.45
-6.76
-7.21
-7.79
-8.47
-9.27
-10.25
-11.49
-13.01
-14.72
-16.28
-17.17
-16.83
-14.97
-11.66
-7.44
-3.06
0.79
3.74
5.82
7.38
8.81
10.4
12.16
13.93
15.48
16.53
16.98
16.76
15.97
14.79
13.42
12.06
10.86
9.9
9.23
8.87
8.82
8.98
9.2
9.27
9.0
8.27
7.07
5.5
3.75
2.04
0.55
-0.66
-1.69
-2.76
-4.11
-5.89
-7.98
-10.03
-11.54
-12.09
-11.49
-9.9
-7.72
-5.48
-3.67
-2.55
-2.15
-2.31
-2.82
-3.38
-3.77
-3.79
-3.34
-2.39
-1.0
0.62
2.2
3.47
4.15
4.11
3.36
2.12
0.69
-0.58
-1.46
-1.89
-2.09
-2.43
-3.25
-4.79
-7.03
-9.66
-12.3
-14.6
-16.42
-17.87
-19.28
-21.01
-23.27
-25.98
-28.74
-30.9
-31.82
-31.03
-28.48
-24.49
-19.66
-14.62
-9.85
-5.48
-1.5
2.17
5.49
8.29
10.39
11.72
12.36
12.55
12.55
12.48
12.35
12.03
11.41
10.49
9.42
8.44
7.77
7.5
7.5
7.45
6.95
5.74
3.77
1.26
-1.36
-3.7
-5.51
-6.83
-7.88
-8.98
-10.47
-12.53
-15.21
-18.41
-21.82
-24.96
-27.18
-27.84
-26.51
-23.16
-18.19
-12.36
-6.53
-1.47
2.46
5.23
7.1
8.44
9.5
10.41
11.09
11.39
11.18
10.46
9.37
8.15
7.05
6.16
5.47
4.9
4.42
4.06
3.95
4.12
4.53
4.93
5.04
4.62
3.63
2.18
0.46
-1.4
-3.37
-5.49
-7.78
-10.18
-12.64
-15.15
-17.75
-20.39
-22.92
-24.9
-25.8
-25.12
-22.68
-18.7
-13.79
-8.59
-3.62
0.86
4.84
8.29
11.21
13.45
14.9
15.56
15.57
15.15
14.47
13.58
12.43
10.92
8.97
6.61
3.93
1.09
-1.72
-4.34
-6.65
-8.64
-10.44
-12.26
-14.29
-16.63
-19.19
-21.79
-24.16
-26.21
-27.95
-29.54
-31.17
-32.99
-35.05
-37.35
-39.86
-42.49
-44.99
-46.87
-47.57
-46.59
-43.82
-39.54
-34.37
-28.88
-23.46
-18.17
-12.92
-7.74
-2.78
1.69
5.48
8.62
11.27
13.59
15.6
17.12
17.97
18.06
17.49
16.51
15.3
13.92
12.3
10.35
8.05
5.43
2.65
-0.19
-3.02
-5.79
-8.46
-10.96
-13.24
-15.27
-17.17
-19.11
-21.3
-23.84
-26.62
-29.31
-31.37
-32.26
-31.6
-29.21
-25.16
-19.63
-12.9
-5.33
2.63
10.35
17.16
22.52
26.13
28.13
28.99
29.29
29.52
29.85
30.25
30.47
30.32
29.62
28.31
26.43
24.13
21.71
19.53
17.92
17.01
16.63
16.35
15.61
13.94
11.21
7.7
4.05
0.97
-1.06
-1.99
-2.29
-2.67
-3.88
-6.31
-9.88
-14.04
-17.95
-20.72
-21.6
-20.19
-16.5
-11.02
-4.61
1.8
7.39
11.85
15.31
18.2
20.91
23.52
25.76
27.28
27.94
27.91
27.65
27.54
27.7
27.86
27.59
26.66
25.19
23.68
22.66
22.38
22.63
22.85
22.4
20.94
18.51
15.51
12.43
9.66
7.45
5.77
4.45
3.22
1.68
-0.54
-3.72
-7.94
-13.06
-18.66
-24.19
-29.02
-32.53
-34.27
-33.99
-31.82
-28.3
-24.18
-20.22
-16.99
-14.72
-13.34
-12.6
-12.18
-11.72
-11.0
-9.95
-8.77
-7.83
-7.44
-7.72
-8.43
-9.05
-9.07
-8.28
-6.8
-5.06
-3.49
-2.37
-1.77
-1.75
-2.39
-3.8
-5.91
-8.34
-10.57
-12.09
-12.76
-12.91
-13.11
-13.91
-15.5
-17.61
-19.65
-21.03
-21.38
-20.64
-18.98
-16.6
-13.61
-10.01
-5.7
-0.65
4.98
10.87
16.46
21.14
24.5
26.48
27.35
27.54
27.42
27.16
26.68
25.92
24.86
23.68
22.57
21.7
21.16
20.91
20.85
20.77
20.46
19.67
18.27
16.26
13.83
11.38
9.32
7.91
7.09
6.46
5.41
3.38
0.08
-4.27
-8.96
-13.04
-15.63
-16.17
-14.67
-11.45
-7.09
-2.12
3.0
7.92
12.3
15.91
18.66
20.6
21.94
22.89
23.71
24.54
25.45
26.36
27.13
27.49
27.23
26.28
24.79
23.05
21.32
19.76
18.3
16.84
15.25
13.46
11.34
8.62
4.88
-0.11
-6.28
-13.11
-19.88
-26.15
-32.01
-37.99
-44.77
-52.73
-61.68
-70.95
-79.71
-87.23
-93.05
-97.05
-99.31
-100.23
-100.4
-100.65
-101.75
-104.19
-107.93
-112.34
-116.57
-119.73
-121.17
-120.36
-116.78
-109.77
-98.61
-82.81
-62.38
-37.97
-10.7
18.08
47.16
75.6
102.61
127.37
148.95
166.4
178.97
186.35
188.74
186.8
181.45
173.77
164.91
155.91
147.52
139.85
132.3
123.71
112.96
99.63
84.48
69.18
55.66
45.19
37.87
32.79
28.79
25.15
21.93
19.75
19.17
20.11
21.88
23.5
24.03
22.65
18.58
11.02
-0.67
-16.13
-33.52
-49.55
-60.4
-63.27
-57.5
-44.86
-28.73
-12.72
0.53
9.66
14.3
14.56
10.79
3.58
-5.95
-16.15
-25.32
-32.17
-36.27
-38.04
-38.42
-38.37
-38.57
-39.27
-40.36
-41.48
-42.03
-41.27
-38.46
-33.15
-25.31
-15.48
-4.53
6.63
17.36
27.43
36.85
45.71
53.92
61.16
66.98
71.05
73.38
74.3
74.4
74.22
74.0
73.65
72.81
71.05
68.18
64.35
59.94
55.49
51.36
47.59
43.87
39.67
34.51
28.2
20.99
13.41
6.13
-0.34
-5.8
-10.31
-14.15
-17.59
-20.79
-23.86
-26.83
-29.77
-32.62
-35.23
-37.22
-38.06
-37.26
-34.59
-30.15
-24.4
-18.0
-11.59
-5.7
-0.57
3.79
7.51
10.8
13.9
16.97
20.03
22.93
25.45
27.47
29.04
30.39
31.86
33.65
35.79
38.08
40.22
41.94
43.12
43.86
44.37
44.96
45.91
47.32
48.95
50.06
49.58
46.36
39.7
29.7
17.24
3.82
-8.87
-19.38
-26.88
-31.48
-34.0
-35.66
-37.49
-39.87
-42.42
-44.36
-45.0
-44.17
-42.29
-40.0
-37.65
-35.02
-31.39
-25.92
-18.17
-8.26
3.17
15.19
26.78
37.02
45.29
51.54
56.27
60.36
64.66
69.62
75.06
80.41
84.98
88.28
90.12
90.36
88.61
84.12
76.05
64.08
49.0
32.7
17.7
6.11
-1.15
-4.62
-5.68
-5.7
-5.37
-4.73
-3.83
-3.52
-5.49
-11.54
-22.36
-36.75
-51.98
-64.94
-73.67
-78.13
-79.72
-80.2
-80.6
-80.82
-80.1
-77.87
-74.31
-70.21
-66.41
-63.16
-60.07
-56.55
-52.35
-47.71
-43.13
-38.99
-35.25
-31.63
-27.9
-24.14
-20.75
-18.07
-16.13
-14.63
-13.19
-11.69
-10.42
-9.8
-9.97
-10.45
-10.28
-8.4
-4.3
1.69
8.58
15.17
20.67
24.89
28.28
31.46
34.84
38.29
41.29
43.06
42.93
40.5
35.82
29.29
21.61
13.61
6.06
-0.56
-6.18
-11.07
-15.73
-20.61
-25.88
-31.29
-36.27
-40.16
-42.51
-43.34
-43.12
-42.77
-43.28
-45.51
-49.83
-56.06
-63.34
-70.5
-76.29
-79.83
-80.79
-79.41
-76.45
-72.89
-69.73
-67.69
-66.83
-66.55
-65.76
-63.46
-59.28
-53.81
-48.42
-44.6
-43.26
-44.34
-47.01
-50.19
-53.21
-55.98
-58.85
-62.05
-65.37
-68.23
-69.79
-69.35
-66.47
-61.18
-53.98
-45.84
-38.0
-31.53
-26.94
-23.92
-21.48
-18.49
-14.3
-9.06
-3.57
1.27
5.17
8.73
13.18
19.68
28.85
40.69
55.05
72.01
91.55
112.46
131.47
143.54
144.09
131.74
110.14
87.22
71.87
69.87
81.15
100.02
118.25
128.8
128.42
117.83
100.19
79.11
57.7
38.48
23.68
15.1
13.44
17.65
25.09
32.39
36.64
36.24
31.34
23.27
13.98
5.34
-1.28
-5.11
-6.0
-4.43
-1.44
1.76
4.13
5.18
5.14
4.81
5.04
6.37
8.87
12.15
15.65
18.95
21.78
24.03
25.67
26.72
27.26
27.46
27.49
27.39
27.02
26.07
24.31
21.75
18.7
15.64
12.85
10.29
7.62
4.43
0.65
-3.31
-6.71
-8.8
-9.25
-8.34
-6.86
-5.78
-5.87
-7.46
-10.28
-13.74
-17.01
-19.38
-20.34
-19.7
-17.63
-14.57
-11.08
-7.67
-4.68
-2.15
0.08
2.25
4.53
6.93
9.28
11.44
13.37
15.23
17.21
19.41
21.62
23.42
24.32
24.09
22.86
21.11
19.45
18.33
17.86
17.79
17.76
17.48
16.85
15.94
14.88
13.76
12.55
11.19
9.56
7.66
5.49
3.05
0.31
-2.72
-5.99
-9.3
-12.29
-14.56
-15.78
-15.83
-14.74
-12.74
-10.03
-6.82
-3.3
0.29
3.62
6.29
8.05
8.91
9.15
9.23
9.54
10.24
11.22
12.17
12.84
13.09
12.95
12.58
12.13
11.72
11.42
11.22
11.11
11.03
10.94
10.74
10.36
9.77
8.96
7.92
6.59
4.89
2.69
-0.06
-3.3
-6.85
-10.34
-13.32
-15.34
-16.06
-15.34
-13.37
-10.52
-7.33
-4.31
-1.85
-0.11
0.94
1.52
1.89
2.26
2.69
3.17
3.58
3.8
3.71
3.25
2.45
1.3
-0.1
-1.72
-3.57
-5.67
-8.06
-10.7
-13.46
-16.11
-18.41
-20.19
-21.4
-22.12
-22.54
-22.82
-23.09
-23.41
-23.74
-23.94
-23.85
-23.29
-22.09
-20.19
-17.59
-14.45
-10.96
-7.39
-4.0
-0.96
1.7
4.03
6.21
8.36
10.51
12.52
14.11
15.03
15.18
14.7
13.93
13.21
12.73
12.41
11.96
11.06
9.57
7.59
5.48
3.57
2.11
1.05
0.2
-0.65
-1.55
-2.43
-3.21
-3.84
-4.47
-5.31
-6.59
-8.42
-10.72
-13.33
-15.99
-18.47
-20.55
-22.08
-22.85
-22.72
-21.63
-19.61
-16.84
-13.64
-10.29
-7.08
-4.2
-1.74
0.3
1.96
3.32
4.41
5.21
5.72
5.92
5.84
5.55
5.17
4.77
4.42
4.09
3.74
3.33
2.84
2.33
1.87
1.48
1.18
0.91
0.61
0.23
-0.33
-1.12
-2.25
-3.82
-5.9
-8.47
-11.36
-14.24
-16.67
-18.2
-18.45
-17.31
-14.91
-11.63
-7.97
-4.36
-1.1
1.72
4.14
6.27
8.11
9.65
10.79
11.49
11.79
11.85
11.89
12.05
12.37
12.73
12.96
12.94
12.7
12.42
12.34
12.56
13.04
13.47
13.54
13.02
11.89
10.38
8.84
7.56
6.67
6.09
5.61
4.94
3.9
2.39
0.44
-1.8
-4.12
-6.25
-7.9
-8.78
-8.75
-7.8
-6.08
-3.87
-1.41
1.09
3.56
5.93
8.08
9.83
11.02
11.57
11.57
11.24
10.85
10.49
10.15
9.67
8.93
7.9
6.73
5.65
4.8
4.23
3.77
3.2
2.33
1.08
-0.46
-2.15
-3.84
-5.43
-6.92
-8.29
-9.6
-10.88
-12.18
-13.61
-15.19
-16.85
-18.36
-19.4
-19.64
-18.91
-17.26
-14.91
-12.19
-9.39
-6.73
-4.39
-2.44
-0.97
0.06
0.77
1.34
1.89
2.51
3.15
3.73
4.17
4.43
4.5
4.41
4.17
3.82
3.39
2.91
2.33
1.64
0.75
-0.42
-1.9
-3.73
-5.87
-8.23
-10.7
-13.2
-15.62
-17.94
-20.21
-22.52
-24.89
-27.18
-29.11
-30.23
-30.2
-28.85
-26.32
-22.98
-19.25
-15.52
-12.0
-8.78
-5.85
-3.24
-0.99
0.89
2.42
3.71
4.85
5.87
6.75
7.38
7.69
7.65
7.31
6.74
6.03
5.2
4.3
3.35
2.36
1.31
0.17
-1.12
-2.55
-4.03
-5.4
-6.55
-7.49
-8.37
-9.43
-10.9
-12.9
-15.37
-18.1
-20.81
-23.19
-24.86
-25.5
-24.86
-22.9
-19.79
-15.9
-11.66
-7.44
-3.47
0.19
3.51
6.45
8.91
10.78
12.02
12.7
12.93
12.89
12.71
12.41
11.97
11.33
10.52
9.6
8.76
8.18
8.0
8.25
8.83
9.55
10.21
10.65
10.84
10.84
10.77
10.75
10.76
10.71
10.39
9.64
8.33
6.42
3.98
1.17
-1.76
-4.48
-6.6
-7.7
-7.5
-5.98
-3.45
-0.44
2.49
4.95
6.83
8.26
9.46
10.5
11.32
11.74
11.6
10.9
9.81
8.62
7.6
6.9
6.5
6.31
6.22
6.17
6.12
6.04
5.87
5.54
5.0
4.22
3.28
2.28
1.31
0.4
-0.51
-1.53
-2.8
-4.42
-6.5
-8.97
-11.67
-14.25
-16.27
-17.34
-17.22
-15.93
-13.74
-11.05
-8.25
-5.66
-3.4
-1.44
0.3
1.89
3.3
4.42
5.11
5.31
5.09
4.66
4.26
4.04
4.01
4.06
4.01
3.8
3.51
3.25
3.16
3.27
3.44
3.49
3.25
2.65
1.72
0.58
-0.66
-1.9
-3.09
-4.19
-5.2
-6.15
-7.15
-8.35
-9.91
-11.89
-14.16
-16.35
-17.94
-18.41
-17.46
-15.15
-11.83
-8.03
-4.21
-0.59
2.79
6.04
9.26
12.41
15.34
17.86
19.87
21.4
22.62
23.68
24.75
25.78
26.63
27.05
26.83
25.86
24.16
21.95
19.49
17.04
14.77
12.77
10.96
9.23
7.42
5.32
2.77
-0.33
-3.91
-7.74
-11.47
-14.76
-17.48
-19.75
-21.9
-24.26
-26.99
-30.0
-32.93
-35.37
-37.0
-37.62
-37.21
-35.85
-33.66
-30.78
-27.35
-23.47
-19.29
-15.01
-10.92
-7.31
-4.45
-2.42
-1.15
-0.44
-0.1
0.02
-0.05
-0.3
-0.64
-0.91
-0.91
-0.55
0.11
0.86
1.45
1.68
1.55
1.17
0.77
0.53
0.58
0.89
1.35
1.79
2.07
2.11
1.9
1.49
0.93
0.32
-0.38
-1.24
-2.42
-4.1
-6.31
-8.99
-11.78
-14.16
-15.51
-15.36
-13.55
-10.38
-6.42
-2.37
1.21
4.03
6.11
7.7
9.06
10.4
11.75
13.05
14.18
15.01
15.5
15.57
15.23
14.48
13.41
12.19
11.02
10.07
9.35
8.77
8.09
7.1
5.69
3.93
2.05
0.26
-1.35
-2.82
-4.27
-5.79
-7.34
-8.82
-10.09
-11.13
-12.09
-13.15
-14.44
-15.87
-17.18
-18.01
-18.15
-17.59
-16.51
-15.19
-13.8
-12.37
-10.89
-9.33
-7.79
-6.41
-5.38
-4.77
-4.54
-4.61
-4.83
-5.11
-5.43
-5.75
-5.97
-6.01
-5.74
-5.13
-4.23
-3.22
-2.32
-1.74
-1.58
-1.78
-2.2
-2.69
-3.11
-3.46
-3.83
-4.3
-4.93
-5.68
-6.46
-7.23
-8.06
-9.1
-10.49
-12.26
-14.19
-15.87
-16.76
-16.54
-15.12
-12.7
-9.68
-6.41
-3.12
0.08
3.15
6.0
8.5
10.48
11.9
12.75
13.17
13.28
13.16
12.84
12.33
11.65
10.86
10.07
9.34
8.75
8.31
7.98
7.69
7.4
7.08
6.67
6.14
5.37
4.24
2.63
0.54
-1.88
-4.35
-6.57
-8.35
-9.73
-10.94
-12.28
-13.98
-16.09
-18.45
-20.74
-22.6
-23.67
-23.74
-22.77
-20.9
-18.43
-15.71
-13.07
-10.68
-8.59
-6.67
-4.82
-2.92
-1.03
0.78
2.36
3.65
4.63
5.36
5.92
6.38
6.74
6.98
7.06
7.06
7.08
7.29
7.8
8.66
9.75
10.91
11.98
12.81
13.3
13.38
12.97
12.01
10.49
8.48
6.17
3.78
1.51
-0.56
-2.45
-4.25
-6.12
-8.1
-10.14
-12.03
-13.45
-14.07
-13.64
-12.08
-9.58
-6.48
-3.22
-0.15
2.56
4.87
6.83
8.55
10.1
11.52
12.78
13.78
14.41
14.53
14.17
13.48
12.75
12.3
12.25
12.52
12.81
12.76
12.15
10.99
9.51
7.96
6.49
5.11
3.7
2.12
0.3
-1.72
-3.78
-5.67
-7.18
-8.22
-8.84
-9.26
-9.75
-10.56
-11.76
-13.22
-14.6
-15.49
-15.52
-14.51
-12.46
-9.55
-6.01
-2.08
2.05
6.21
10.24
13.95
17.15
19.63
21.34
22.35
22.86
23.11
23.24
23.28
23.14
22.72
22.03
21.18
20.33
19.61
18.99
18.32
17.46
16.26
14.79
13.21
11.71
10.38
9.22
8.14
7.08
6.05
5.12
4.35
3.69
3.05
2.29
1.32
0.11
-1.23
-2.55
-3.62
-4.17
-3.98
-2.86
-0.74
2.31
6.06
10.24
14.49
18.5
21.99
24.75
26.68
27.85
28.41
28.69
28.96
29.46
30.19
31.08
31.97
32.68
33.07
32.99
32.34
31.11
29.42
27.49
25.5
23.55
21.62
19.66
17.68
15.82
14.21
12.9
11.62
9.93
7.3
3.49
-1.3
-6.38
-10.71
-13.21
-13.12
-10.25
-5.22
0.63
5.6
8.11
7.29
3.32
-2.61
-8.77
-13.53
-15.96
-16.05
-14.54
-12.48
-10.67
-9.42
-8.45
-7.14
-4.77
-0.74
5.26
13.18
22.6
32.75
42.66
51.5
58.8
64.68
69.77
74.82
80.31
86.13
91.69
96.1
98.68
99.02
97.13
93.14
87.18
79.38
69.9
59.09
47.58
36.29
26.38
18.99
15.08
15.15
19.01
25.92
34.68
43.98
52.57
59.31
63.24
63.55
59.8
52.12
41.2
27.84
12.48
-5.13
-25.48
-48.6
-73.17
-96.6
-115.8
-128.62
-134.74
-135.65
-133.62
-130.36
-126.32
-120.95
-113.7
-104.89
-95.98
-88.85
-84.82
-83.92
-84.83
-85.52
-84.0
-79.06
-70.56
-59.35
-46.9
-34.73
-23.99
-15.08
-7.72
-1.24
4.99
11.18
17.11
22.3
26.44
29.54
31.9
33.84
35.43
36.41
36.39
35.14
32.76
29.72
26.56
23.68
21.2
18.91
16.44
13.41
9.6
5.02
-0.13
-5.55
-10.99
-16.31
-21.4
-26.15
-30.4
-33.81
-36.06
-36.97
-36.65
-35.68
-34.99
-35.71
-38.94
-45.6
-56.16
-70.4
-87.18
-104.43
-119.64
-130.48
-135.73
-135.68
-131.95
-126.59
-120.94
-115.11
-108.07
-98.62
-86.45
-72.66
-59.38
-48.76
-41.88
-38.21
-35.89
-32.68
-26.98
-18.38
-7.75
3.27
13.05
20.52
25.56
28.86
31.56
34.66
38.63
43.34
48.27
52.94
57.07
60.56
63.26
64.75
64.36
61.49
56.03
48.52
40.04
31.7
24.29
17.92
12.18
6.43
0.13
-6.83
-14.22
-21.57
-28.4
-34.42
-39.56
-43.89
-47.54
-50.63
-53.28
-55.67
-58.0
-60.38
-62.71
-64.45
-64.8
-63.03
-58.92
-52.95
-46.17
-39.62
-33.84
-28.71
-23.58
-17.8
-11.11
-3.85
3.34
9.85
15.33
19.77
23.27
25.88
27.49
27.99
27.31
25.57
23.07
20.27
17.64
15.61
14.4
13.86
13.5
12.66
10.77
7.82
4.41
1.51
0.03
0.35
2.11
4.47
6.52
7.71
7.97
7.64
7.12
6.74
6.62
6.76
7.04
7.41
7.73
7.91
7.86
7.51
6.84
5.86
4.56
2.97
1.17
-0.65
-2.22
-3.26
-3.63
-3.46
-3.09
-2.91
-3.21
-4.01
-5.18
-6.41
-7.48
-8.31
-9.0
-9.73
-10.64
-11.79
-13.13
-14.54
-15.92
-17.09
-17.9
-18.11
-17.47
-15.8
-13.08
-9.5
-5.48
-1.47
2.13
5.11
7.42
9.1
10.2
10.67
10.5
9.75
8.65
7.47
6.51
5.87
5.49
5.14
4.62
3.9
3.12
2.48
2.15
2.09
2.06
1.74
0.89
-0.49
-2.22
-3.97
-5.47
-6.57
-7.34
-7.98
-8.78
-10.05
-11.96
-14.56
-17.68
-20.83
-23.36
-24.57
-23.91
-21.27
-16.97
-11.7
-6.25
-1.21
3.09
6.65
9.61
12.13
14.26
15.96
17.22
18.02
18.43
18.54
18.42
18.07
17.45
16.5
15.24
13.76
12.22
10.77
9.56
8.58
7.73
6.81
5.6
4.0
2.01
-0.21
-2.45
-4.48
-6.16
-7.5
-8.63
-9.82
-11.32
-13.36
-16.02
-19.11
-22.21
-24.67
-25.79
-25.01
-22.15
-17.43
-11.46
-4.98
1.38
7.29
12.72
17.73
22.35
26.43
29.69
31.91
33.07
33.42
33.4
33.46
33.86
34.65
35.72
36.92
38.08
39.05
39.6
39.33
37.85
34.87
30.54
25.35
20.0
14.96
10.27
5.5
-0.0
-6.67
-14.5
-23.11
-32.0
-40.8
-49.47
-58.04
-66.34
-73.81
-79.6
-82.91
-83.35
-81.11
-76.89
-71.6
-66.06
-60.77
-55.83
-51.0
-45.95
-40.46
-34.56
-28.53
-22.77
-17.66
-13.42
-10.0
-7.17
-4.57
-1.91
0.91
3.76
6.32
8.19
9.1
8.99
8.04
6.65
5.26
4.25
3.93
4.48
5.93
8.07
10.45
12.38
13.27
13.06
12.29
12.06
13.47
16.93
21.9
27.15
31.32
33.69
34.45
34.42
34.5
35.16
36.03
36.34
35.36
32.83
28.87
23.62
16.98
8.82
-0.7
-10.92
-20.81
-29.38
-36.32
-42.09
-47.65
-53.69
-59.53
-62.07
-57.5
-42.81
-17.62
15.2
50.68
83.65
110.14
128.32
138.17
141.01
139.14
134.98
130.41
126.38
122.65
118.14
111.87
103.03
91.0
75.53
57.29
38.78
24.46
20.14
28.03
46.12
67.38
81.72
80.4
60.24
25.4
-14.54
-49.21
-72.18
-82.63
-84.43
-82.73
-80.77
-78.85
-75.39
-69.16
-60.68
-52.26
-46.36
-44.27
-45.28
-47.29
-47.88
-45.72
-41.14
-35.8
-31.84
-30.64
-32.32
-35.74
-39.2
-41.26
-41.33
-39.85
-37.82
-36.28
-35.64
-35.63
-35.39
-33.95
-30.65
-25.45
-19.02
-12.39
-6.66
-2.5
-0.02
1.34
2.37
3.79
5.84
8.17
10.05
10.77
10.04
8.06
5.47
2.94
0.89
-0.55
-1.57
-2.39
-3.19
-4.01
-4.84
-5.74
-6.82
-8.25
-10.09
-12.23
-14.36
-16.03
-16.82
-16.56
-15.41
-13.91
-12.73
-12.4
-13.08
-14.38
-15.6
-16.04
-15.32
-13.48
-10.94
-8.2
-5.51
-2.85
0.04
3.42
7.29
11.41
15.3
18.51
20.84
22.35
23.25
23.67
23.62
22.88
21.25
18.7
15.47
12.06
8.94
6.49
4.77
3.65
2.87
2.24
1.61
0.87
-0.07
-1.32
-2.97
-4.94
-6.96
-8.68
-9.73
-9.99
-9.54
-8.55
-7.13
-5.1
-2.08
2.29
8.14
15.11
22.44
29.31
35.11
39.78
43.65
47.15
50.43
53.27
55.11
55.47
54.19
51.55
48.1
44.49
41.19
38.48
36.47
35.17
34.49
34.25
34.22
34.17
34.0
33.71
33.34
32.88
32.25
31.4
30.4
29.47
28.87
28.7
28.85
28.94
28.69
28.04
27.19
26.54
26.52
27.33
28.9
30.98
33.15
35.03
36.4
37.27
37.96
38.97
40.66
43.09
45.85
48.15
49.15
48.3
45.55
41.28
36.07
30.33
24.29
17.98
11.41
4.72
-1.91
-8.38
-14.66
-20.93
-27.25
-33.54
-39.46
-44.59
-48.56
-51.22
-52.73
-53.34
-53.35
-52.92
-52.14
-51.11
-49.95
-48.72
-47.37
-45.71
-43.36
-40.0
-35.47
-29.96
-23.93
-17.96
-12.61
-8.17
-4.69
-2.02
0.05
1.68
2.95
3.9
4.54
4.92
5.11
5.15
5.02
4.67
4.06
3.17
2.07
0.88
-0.23
-1.18
-1.98
-2.69
-3.43
-4.27
-5.17
-6.11
-7.09
-8.15
-9.42
-11.01
-12.95
-15.1
-17.25
-19.15
-20.62
-21.49
-21.63
-20.95
-19.5
-17.44
-15.15
-13.04
-11.43
-10.42
-9.85
-9.45
-8.93
-8.22
-7.37
-6.45
-5.49
-4.4
-3.01
-1.27
0.69
2.64
4.31
5.51
6.25
6.62
6.74
6.69
6.44
5.93
5.18
4.29
3.45
2.83
2.51
2.46
2.51
2.49
2.25
1.74
0.98
0.08
-0.78
-1.36
-1.42
-0.81
0.5
2.34
4.4
6.28
7.67
8.4
8.51
8.17
7.6
7.02
6.56
6.28
6.19
6.32
6.68
7.28
8.1
9.04
9.98
10.8
11.41
11.81
12.06
12.26
12.47
12.69
12.78
12.62
12.09
11.15
9.87
8.3
6.51
4.5
2.26
-0.15
-2.6
-4.8
-6.44
-7.27
-7.2
-6.39
-5.16
-3.89
-2.92
-2.41
-2.33
-2.56
-2.92
-3.28
-3.56
-3.77
-3.97
-4.19
-4.43
-4.61
-4.59
-4.24
-3.44
-2.15
-0.48
1.36
3.15
4.65
5.74
6.41
6.74
6.84
6.8
6.65
6.34
5.79
4.87
3.51
1.69
-0.5
-2.94
-5.44
-7.8
-9.83
-11.34
-12.23
-12.5
-12.27
-11.78
-11.36
-11.22
-11.44
-11.89
-12.36
-12.58
-12.32
-11.45
-9.9
-7.69
-5.02
-2.23
0.28
2.2
3.42
4.1
4.55
5.01
5.59
6.23
6.81
7.29
7.7
8.02
8.23
8.14
7.6
6.58
5.31
4.09
3.25
2.93
2.94
2.91
2.39
1.14
-0.84
-3.22
-5.54
-7.38
-8.52
-8.94
-8.77
-8.14
-7.14
-5.77
-4.06
-2.09
0.0
2.07
4.01
5.78
7.37
8.78
10.02
11.11
12.12
13.16
14.37
15.85
17.6
19.53
21.49
23.23
24.43
24.79
24.1
22.28
19.44
15.83
11.74
7.45
3.23
-0.7
-4.25
-7.4
-10.26
-12.95
-15.51
-17.8
-19.47
-20.14
-19.6
-17.95
-15.68
-13.38
-11.55
-10.38
-9.75
-9.34
-8.88
-8.28
-7.66
-7.2
-7.06
-7.24
-7.7
-8.42
-9.46
-10.9
-12.8
-15.06
-17.43
-19.67
-21.61
-23.24
-24.6
-25.72
-26.53
-26.87
-26.61
-25.73
-24.41
-22.9
-21.49
-20.41
-19.77
-19.64
-20.08
-21.18
-22.98
-25.44
-28.33
-31.24
-33.76
-35.6
-36.64
-36.92
-36.56
-35.56
-33.86
-31.36
-28.14
-24.52
-20.94
-17.73
-14.89
-12.12
-8.98
-5.19
-0.87
3.54
7.44
10.4
12.27
13.19
13.42
13.13
12.51
11.72
11.14
11.22
12.44
15.01
18.75
23.13
27.46
31.16
33.93
35.81
37.07
38.03
38.93
39.81
40.62
41.15
41.19
40.58
39.19
36.97
34.03
30.61
27.06
23.79
21.13
19.28
18.24
17.84
17.86
18.05
18.29
18.5
18.7
18.88
19.04
19.11
19.09
18.96
18.78
18.67
18.63
18.64
18.54
18.21
17.64
16.93
16.26
15.73
15.3
14.8
14.06
13.0
11.72
10.34
8.94
7.47
5.84
3.98
1.92
-0.24
-2.36
-4.4
-6.36
-8.19
-9.71
-10.66
-10.84
-10.23
-9.03
-7.62
-6.29
-5.21
-4.38
-3.8
-3.53
-3.66
-4.24
-5.15
-6.13
-6.91
-7.4
-7.76
-8.27
-9.19
-10.58
-12.21
-13.83
-15.23
-16.38
-17.37
-18.3
-19.23
-20.18
-21.14
-22.25
-23.61
-25.32
-27.27
-29.24
-30.93
-32.14
-32.82
-33.11
-33.26
-33.52
-34.03
-34.81
-35.71
-36.42
-36.59
-35.89
-34.08
-31.18
-27.43
-23.23
-19.02
-15.16
-11.86
-9.18
-7.07
-5.38
-3.93
-2.49
-0.83
1.12
3.27
5.32
6.93
7.87
8.18
8.1
7.99
8.07
8.39
8.87
9.4
9.94
10.5
11.14
11.77
12.19
12.22
11.76
10.92
9.99
9.27
8.98
9.1
9.38
9.47
9.03
7.85
5.96
3.6
1.1
-1.24
-3.24
-4.84
-6.0
-6.6
-6.47
-5.37
-3.28
-0.41
2.77
5.61
7.64
8.66
8.84
8.61
8.37
8.39
8.63
9.0
9.39
9.82
10.38
11.09
11.79
12.18
11.99
11.12
9.72
8.16
6.85
5.98
5.54
5.29
4.94
4.26
3.17
1.71
0.03
-1.71
-3.38
-4.91
-6.28
-7.53
-8.64
-9.55
-10.19
-10.48
-10.43
-10.07
-9.43
-8.45
-7.11
-5.36
-3.31
-1.16
0.85
2.54
3.96
5.3
6.87
8.87
11.3
13.9
16.34
18.31
19.7
20.6
21.23
21.76
22.28
22.72
22.91
22.65
21.74
20.05
17.51
14.09
9.85
4.95
-0.32
-5.65
-10.78
-15.6
-20.17
-24.69
-29.37
-34.29
-39.33
-44.08
-48.03
-50.66
-51.76
-51.46
-50.24
-48.68
-47.22
-46.0
-44.81
-43.34
-41.4
-39.0
-36.31
-33.45
-30.36
-26.8
-22.59
-17.79
-12.84
-8.32
-4.67
-1.95
0.26
2.58
5.52
9.2
13.35
17.44
21.13
24.31
27.17
29.97
32.8
35.46
37.61
39.05
39.87
40.47
41.31
42.6
44.16
45.55
46.33
46.44
46.23
46.22
46.78
47.93
49.3
50.49
51.27
51.7
51.91
51.9
51.29
49.61
46.48
42.05
36.99
32.24
28.54
26.08
24.5
23.13
21.48
19.38
17.04
14.79
12.77
10.93
9.08
7.07
5.02
3.12
1.54
0.23
-0.98
-2.29
-3.73
-5.15
-6.27
-6.97
-7.3
-7.46
-7.68
-8.04
-8.48
-8.87
-9.18
-9.42
-9.63
-9.85
-9.98
-9.93
-9.6
-9.04
-8.41
-7.95
-7.89
-8.28
-9.1
-10.18
-11.35
-12.5
-13.61
-14.72
-15.81
-16.77
-17.36
-17.34
-16.53
-14.98
-12.96
-10.77
-8.74
-7.06
-5.73
-4.7
-3.85
-3.08
-2.33
-1.59
-0.89
-0.28
0.19
0.49
0.61
0.58
0.44
0.17
-0.26
-0.86
-1.55
-2.28
-2.96
-3.57
-4.13
-4.71
-5.37
-6.14
-7.02
-7.97
-9.04
-10.27
-11.69
-13.3
-15.03
-16.81
-18.56
-20.27
-21.92
-23.47
-24.86
-25.94
-26.59
-26.74
-26.35
-25.46
-24.19
-22.62
-20.87
-19.03
-17.19
-15.42
-13.8
-12.35
-11.04
-9.8
-8.55
-7.24
-5.94
-4.78
-3.93
-3.46
-3.34
-3.41
-3.48
-3.4
-3.14
-2.79
-2.48
-2.33
-2.43
-2.77
-3.36
-4.11
-4.93
-5.73
-6.41
-6.93
-7.24
-7.4
-7.53
-7.82
-8.46
-9.56
-11.05
-12.66
-14.02
-14.76
-14.67
-13.72
-12.11
-10.15
-8.16
-6.37
-4.85
-3.53
-2.3
-1.04
0.3
1.61
2.74
3.6
4.16
4.53
4.86
5.25
5.7
6.15
6.59
6.98
7.37
7.73
7.96
7.88
7.35
6.38
5.1
3.73
2.45
1.35
0.42
-0.42
-1.19
-1.84
-2.32
-2.54
-2.53
-2.41
-2.34
-2.51
-3.05
-4.04
-5.43
-7.05
-8.66
-9.94
-10.67
-10.68
-10.04
-8.95
-7.66
-6.42
-5.34
-4.37
-3.38
-2.25
-0.93
0.58
2.2
3.86
5.47
6.95
8.26
9.38
10.31
11.08
11.71
12.23
12.73
13.26
13.95
14.81
15.85
16.93
17.88
18.54
18.78
18.67
18.31
17.84
17.37
16.87
16.29
15.59
14.74
13.77
12.76
11.72
10.6
9.28
7.6
5.48
2.94
0.18
-2.49
-4.71
-6.14
-6.61
-6.12
-4.86
-3.09
-1.11
0.92
2.91
4.88
6.79
8.59
10.14
11.33
12.09
12.44
12.46
12.24
11.77
11.04
10.03
8.77
7.37
5.89
4.4
2.83
1.07
-1.01
-3.46
-6.16
-8.93
-11.52
-13.72
-15.41
-16.55
-17.22
-17.6
-17.86
-18.22
-18.84
-19.84
-21.22
-22.87
-24.52
-25.81
-26.39
-26.01
-24.67
-22.64
-20.36
-18.34
-16.88
-15.99
-15.47
-15.02
-14.37
-13.45
-12.26
-10.88
-9.36
-7.73
-6.0
-4.3
-2.8
-1.68
-1.03
-0.82
-0.87
-0.97
-0.92
-0.64
-0.13
0.47
1.0
1.26
1.19
0.77
0.11
-0.68
-1.51
-2.38
-3.33
-4.37
-5.49
-6.66
-7.92
-9.38
-11.15
-13.3
-15.67
-17.91
-19.61
-20.45
-20.34
-19.44
-18.09
-16.57
-15.11
-13.72
-12.36
-10.94
-9.37
-7.58
-5.55
-3.31
-0.99
1.22
3.09
4.46
5.3
5.75
6.0
6.21
6.49
6.8
7.11
7.4
7.71
8.03
8.35
8.55
8.46
7.98
7.14
6.13
5.2
4.54
4.19
4.02
3.79
3.27
2.33
0.97
-0.7
-2.58
-4.58
-6.63
-8.6
-10.33
-11.59
-12.19
-12.01
-11.05
-9.45
-7.38
-4.99
-2.37
0.4
3.26
6.14
8.94
11.58
14.06
16.35
18.42
20.14
21.37
22.06
22.32
22.38
22.5
22.76
23.05
23.11
22.71
21.79
20.51
19.13
17.89
16.89
16.1
15.44
14.83
14.2
13.5
12.74
11.92
11.1
10.31
9.52
8.57
7.28
5.53
3.32
0.8
-1.86
-4.51
-7.04
-9.3
-11.11
-12.22
-12.45
-11.84
-10.62
-9.15
-7.75
-6.54
-5.42
-4.14
-2.48
-0.45
1.78
3.86
5.51
6.57
7.13
7.4
7.62
7.92
8.28
8.58
8.71
8.64
8.48
8.4
8.48
8.75
9.03
9.16
8.99
8.45
7.54
6.31
4.86
3.28
1.63
-0.07
-1.87
-3.79
-5.89
-8.21
-10.72
-13.39
-16.22
-19.17
-22.22
-25.21
-27.85
-29.79
-30.75
-30.61
-29.46
-27.57
-25.21
-22.58
-19.79
-16.84
-13.79
-10.72
-7.83
-5.27
-3.18
-1.61
-0.58
-0.02
0.2
0.2
0.09
-0.08
-0.31
-0.65
-1.05
-1.38
-1.41
-1.05
-0.34
0.46
0.99
1.02
0.61
0.1
-0.07
0.42
1.53
2.92
4.07
4.58
4.27
3.27
1.92
0.62
-0.38
-1.04
-1.52
-2.08
-2.95
-4.27
-5.99
-7.99
-10.06
-11.96
-13.43
-14.24
-14.2
-13.27
-11.54
-9.25
-6.65
-3.9
-1.01
2.07
5.35
8.67
11.79
14.5
16.69
18.5
20.16
21.83
23.53
25.13
26.43
27.3
27.8
28.12
28.53
29.29
30.59
32.47
34.84
37.35
39.54
40.94
41.25
40.44
38.82
36.9
35.17
34.0
33.43
33.27
33.14
32.64
31.4
29.27
26.32
22.91
19.56
16.81
14.97
14.01
13.44
12.48
10.27
6.21
0.32
-6.62
-13.14
-17.44
-18.0
-14.16
-6.26
4.49
16.48
28.31
39.02
48.17
55.48
60.73
63.55
63.76
61.45
57.1
51.46
45.33
39.29
33.64
28.36
23.13
17.47
10.82
2.82
-6.52
-16.77
-27.21
-37.1
-46.07
-54.14
-61.66
-68.97
-76.12
-82.71
-88.04
-91.42
-92.59
-91.78
-89.72
-87.23
-84.85
-82.71
-80.55
-78.01
-74.99
-71.71
-68.6
-66.03
-64.05
-62.35
-60.45
-57.92
-54.64
-50.68
-46.29
-41.68
-36.97
-32.22
-27.43
-22.61
-17.69
-12.56
-7.14
-1.49
4.14
9.33
13.68
16.94
19.12
20.46
21.34
22.17
23.3
24.95
27.18
29.84
32.64
35.12
36.85
37.52
37.09
35.72
33.62
30.94
27.65
23.66
18.96
13.73
8.45
3.64
-0.36
-3.55
-6.25
-8.93
-11.85
-14.97
-17.97
-20.43
-22.16
-23.3
-24.3
-25.77
-28.16
-31.61
-35.86
-40.24
-43.84
-45.64
-44.71
-40.49
-33.11
-23.6
-13.69
-5.42
-0.39
0.78
-1.46
-5.8
-10.64
-14.69
-17.12
-17.55
-15.88
-12.27
-7.17
-1.3
4.8
11.07
18.06
26.64
37.25
49.33
61.22
70.83
76.57
78.04
76.11
72.22
67.68
63.19
58.9
54.83
51.11
47.99
45.46
43.06
39.93
35.18
28.29
19.47
9.68
0.44
-6.73
-10.94
-12.22
-11.5
-10.46
-11.04
-14.79
-22.33
-33.01
-45.11
-56.28
-64.36
-68.17
-68.04
-65.73
-63.75
-64.12
-67.1
-70.76
-71.38
-65.17
-49.99
-26.68
1.04
28.13
50.15
64.9
72.61
74.92
73.19
67.66
57.94
44.24
28.13
12.46
0.09
-7.36
-10.04
-9.31
-6.54
-2.46
2.76
8.64
13.82
16.3
14.39
8.05
-0.65
-8.14
-10.93
-7.26
1.97
13.51
23.0
26.66
22.75
12.09
-2.46
-17.35
-29.76
-38.57
-44.25
-48.18
-51.59
-54.98
-58.05
-60.22
-61.08
-60.6
-58.98
-56.31
-52.35
-46.57
-38.47
-27.97
-15.63
-2.52
10.26
22.08
33.19
44.72
58.17
74.76
94.56
116.14
136.72
152.92
161.74
161.59
152.67
136.8
116.6
94.63
72.71
51.88
32.69
15.68
1.61
-8.66
-14.5
-15.86
-13.24
-7.59
0.05
8.67
17.25
24.69
29.75
31.26
28.54
21.64
11.59
0.13
-10.78
-19.48
-25.04
-27.37
-27.02
-24.73
-21.13
-16.58
-11.34
-5.88
-1.02
2.07
2.28
-0.91
-7.19
-15.4
-23.89
-31.13
-36.06
-38.32
-38.04
-35.61
-31.4
-25.75
-19.05
-11.86
-5.0
0.57
4.05
5.01
3.55
0.14
-4.67
-10.54
-17.31
-24.87
-32.81
-40.25
-46.13
-49.53
-50.0
-47.73
-43.19
-36.84
-28.97
-19.81
-9.94
-0.42
7.38
12.33
14.1
13.39
11.53
9.84
9.03
9.04
9.26
9.02
8.08
6.65
5.27
4.45
4.43
5.12
6.25
7.5
8.67
9.73
10.73
11.74
12.79
13.83
14.75
15.4
15.6
15.15
13.9
11.74
8.64
4.68
-0.04
-5.34
-11.03
-16.76
-22.05
-26.3
-29.0
-29.85
-29.01
-27.06
-24.78
-22.88
-21.77
-21.51
-21.87
-22.5
-23.02
-23.07
-22.29
-20.42
-17.32
-13.11
-8.2
-3.09
1.65
5.64
8.68
10.81
12.2
13.06
13.65
14.21
14.89
15.74
16.64
17.43
17.9
17.95
17.57
16.83
15.75
14.41
12.93
11.49
10.31
9.53
9.12
8.83
8.31
7.3
5.77
3.97
2.22
0.77
-0.41
-1.62
-3.25
-5.52
-8.34
-11.18
-13.33
-14.11
-13.09
-10.32
-6.17
-1.21
3.93
8.85
13.29
17.18
20.54
23.46
26.02
28.23
30.06
31.4
32.14
32.22
31.65
30.48
28.73
26.38
23.36
19.63
15.24
10.44
5.52
0.81
-3.49
-7.31
-10.72
-13.83
-16.83
-19.89
-23.17
-26.74
-30.48
-34.08
-37.19
-39.55
-41.0
-41.62
-41.49
-40.64
-38.95
-36.22
-32.38
-27.58
-22.24
-16.85
-11.79
-7.19
-2.97
0.98
4.71
8.13
10.99
13.11
14.4
14.87
14.64
13.84
12.62
11.18
9.68
8.35
7.35
6.73
6.43
6.3
6.22
6.09
5.86
5.48
4.93
4.22
3.41
2.56
1.75
1.0
0.2
-0.75
-2.01
-3.63
-5.61
-7.89
-10.36
-12.83
-15.03
-16.58
-17.11
-16.39
-14.4
-11.49
-8.16
-4.9
-2.05
0.29
2.2
3.82
5.21
6.32
7.01
7.22
6.99
6.48
5.9
5.4
5.03
4.74
4.46
4.19
4.03
4.07
4.33
4.69
4.93
4.83
4.37
3.66
2.93
2.3
1.82
1.36
0.74
-0.15
-1.38
-2.92
-4.69
-6.61
-8.54
-10.29
-11.61
-12.25
-12.01
-10.85
-8.87
-6.34
-3.58
-0.96
1.25
2.89
3.97
4.57
4.77
4.63
4.13
3.35
2.44
1.65
1.17
1.08
1.24
1.37
1.25
0.86
0.41
0.25
0.73
1.94
3.7
5.63
7.25
8.19
8.29
7.56
6.23
4.54
2.74
1.04
-0.43
-1.62
-2.52
-3.2
-3.76
-4.31
-4.96
-5.81
-6.84
-7.92
-8.87
-9.46
-9.52
-8.99
-7.92
-6.41
-4.59
-2.52
-0.27
2.13
4.65
7.19
9.6
11.71
13.37
14.47
14.96
14.83
14.14
12.99
11.51
9.88
8.28
6.9
5.87
5.29
5.17
5.41
5.87
6.36
6.68
6.72
6.44
5.9
5.27
4.71
4.33
4.17
4.09
3.93
3.55
2.87
1.93
0.77
-0.59
-2.17
-3.99
-6.06
-8.3
-10.58
-12.7
-14.45
-15.6
-15.99
-15.55
-14.27
-12.31
-9.88
-7.18
-4.4
-1.64
0.97
3.32
5.29
6.79
7.83
8.56
9.19
9.81
10.44
10.93
11.12
10.92
10.45
9.96
9.74
9.97
10.64
11.55
12.46
13.15
13.52
13.48
13.04
12.16
10.88
9.3
7.64
6.11
4.86
3.91
3.17
2.52
1.84
1.17
0.58
0.21
0.07
0.09
0.09
-0.16
-0.85
-2.07
-3.81
-5.9
-8.1
-10.1
-11.59
-12.36
-12.31
-11.52
-10.19
-8.58
-6.94
-5.42
-4.1
-2.96
-1.97
-1.18
-0.69
-0.65
-1.07
-1.87
-2.77
-3.45
-3.6
-3.09
-1.95
-0.34
1.48
3.22
4.61
5.43
5.56
5.01
3.94
2.67
1.55
0.83
0.69
1.06
1.85
2.88
4.0
5.03
5.78
6.11
5.95
5.41
4.73
4.14
3.72
3.32
2.61
1.2
-1.08
-4.16
-7.71
-11.29
-14.51
-17.01
-18.55
-18.99
-18.26
-16.43
-13.73
-10.49
-7.08
-3.82
-0.97
1.3
2.86
3.68
3.86
3.62
3.3
3.21
3.46
4.01
4.6
5.06
5.29
5.37
5.46
5.67
5.98
6.21
6.23
5.98
5.54
5.13
4.94
5.01
5.24
5.37
5.21
4.67
3.81
2.83
1.94
1.26
0.78
0.44
0.13
-0.23
-0.63
-1.05
-1.42
-1.69
-1.79
-1.68
-1.4
-1.12
-1.02
-1.28
-1.91
-2.67
-3.05
-2.52
-0.64
2.69
7.19
12.3
17.41
22.08
26.17
29.86
33.53
37.49
41.88
46.5
50.99
54.97
58.25
60.92
63.29
65.69
68.28
71.15
74.21
77.27
79.83
80.92
79.03
72.61
60.8
44.23
25.11
6.57
-8.56
-18.9
-25.06
-28.97
-32.81
-37.94
-44.41
-51.38
-57.87
-63.36
-67.9
-71.88
-75.53
-78.7
-80.9
-81.58
-80.42
-77.56
-73.58
-69.38
-65.97
-64.11
-64.12
-65.83
-68.66
-71.94
-75.19
-78.25
-81.17
-83.91
-86.23
-87.65
-87.74
-86.26
-83.24
-78.82
-73.11
-66.06
-57.48
-47.19
-35.22
-21.74
-7.04
8.54
24.65
40.9
56.97
72.53
87.42
101.59
114.93
127.2
137.82
145.89
150.33
150.16
144.74
133.97
118.55
99.92
80.11
61.29
45.34
33.26
24.98
19.34
14.54
8.84
1.26
-8.0
-17.6
-25.65
-30.63
-31.97
-30.31
-27.06
-23.75
-21.43
-20.27
-19.73
-18.79
-16.4
-11.9
-5.33
2.34
9.54
14.65
16.74
16.13
14.17
12.44
11.95
12.99
15.65
20.28
27.31
36.43
45.8
52.09
52.0
44.13
30.17
14.36
1.31
-6.42
-9.35
-10.38
-12.74
-18.06
-25.82
-34.19
-41.44
-47.03
-51.54
-56.09
-61.45
-67.8
-74.52
-80.71
-85.6
-88.91
-90.98
-92.54
-94.26
-96.45
-98.94
-101.35
-103.56
-105.89
-108.8
-112.33
-115.44
-116.13
-112.09
-101.7
-84.73
-62.47
-37.28
-11.89
11.19
30.01
43.29
50.6
52.42
50.13
45.54
40.3
35.14
29.67
22.77
13.39
1.32
-12.47
-26.23
-38.11
-46.83
-51.72
-52.39
-48.37
-39.03
-24.14
-4.41
18.13
40.66
60.39
75.57
85.83
91.84
94.54
94.57
92.15
87.45
81.16
74.44
68.69
64.87
63.13
62.73
62.61
61.89
60.33
58.33
56.54
55.25
53.93
51.32
45.93
36.79
24.06
9.09
-5.99
-19.02
-28.47
-33.83
-35.54
-34.75
-32.84
-31.02
-30.08
-30.25
-31.4
-33.28
-35.75
-38.79
-42.35
-46.05
-48.96
-49.83
-47.42
-41.02
-30.8
-17.62
-2.77
12.45
27.02
40.26
51.78
61.35
68.87
74.38
78.13
80.63
82.66
85.12
88.61
93.03
97.37
99.91
98.99
94.02
85.96
77.16
70.3
67.05
67.27
69.12
70.06
68.28
63.67
57.79
53.08
51.62
54.28
60.57
69.14
78.51
87.69
96.24
104.09
111.06
116.56
119.66
119.43
115.39
107.86
97.88
86.75
75.42
64.01
51.83
37.8
21.09
1.74
-19.35
-40.8
-61.33
-80.2
-97.24
-112.33
-125.16
-134.99
-141.09
-143.31
-142.42
-140.03
-137.95
-137.53
-139.15
-142.25
-145.69
-148.22
-148.77
-146.63
-141.54
-133.69
-123.75
-112.74
-101.75
-91.57
-82.59
-74.75
-67.77
-61.34
-55.14
-49.02
-42.84
-36.61
-30.5
-24.81
-19.88
-15.84
-12.57
-9.76
-7.07
-4.28
-1.37
1.63
4.7
7.88
11.13
14.31
17.11
19.12
20.06
19.9
18.93
17.55
16.16
14.91
13.7
12.2
10.08
7.2
3.63
-0.35
-4.38
-8.26
-11.91
-15.38
-18.75
-22.05
-25.28
-28.41
-31.38
-34.07
-36.28
-37.75
-38.25
-37.6
-35.87
-33.25
-30.08
-26.7
-23.39
-20.33
-17.59
-15.19
-13.07
-11.11
-9.25
-7.41
-5.59
-3.83
-2.23
-0.92
-0.01
0.48
0.61
0.55
0.54
0.71
1.08
1.54
1.92
2.11
2.14
2.12
2.18
2.37
2.61
2.78
2.75
2.46
1.89
1.05
-0.01
-1.25
-2.59
-3.9
-5.08
-6.08
-6.99
-7.98
-9.21
-10.68
-12.22
-13.51
-14.21
-14.1
-13.09
-11.31
-9.01
-6.42
-3.7
-0.93
1.83
4.54
7.15
9.53
11.61
13.34
14.79
16.06
17.29
18.6
19.99
21.34
22.55
23.5
24.17
24.64
25.0
25.32
25.55
25.55
25.18
24.39
23.24
21.86
20.4
18.88
17.24
15.4
13.3
10.97
8.51
6.04
3.65
1.34
-0.88
-3.0
-5.04
-7.02
-8.99
-11.1
-13.56
-16.56
-20.14
-24.12
-28.09
-31.48
-33.74
-34.51
-33.8
-31.89
-29.18
-26.0
-22.53
-18.82
-14.89
-10.92
-7.21
-4.08
-1.73
-0.15
0.84
1.47
1.92
2.26
2.52
2.73
3.0
3.43
4.04
4.72
5.3
5.65
5.72
5.63
5.57
5.66
5.89
6.11
6.07
5.58
4.6
3.2
1.62
0.06
-1.34
-2.58
-3.7
-4.84
-6.1
-7.51
-9.09
-10.78
-12.53
-14.3
-16.06
-17.78
-19.43
-20.9
-22.03
-22.64
-22.49
-21.45
-19.46
-16.63
-13.18
-9.37
-5.46
-1.65
1.87
4.96
7.37
8.86
9.23
8.4
6.46
3.7
0.44
-2.95
-6.18
-8.99
-11.22
-12.76
-13.67
-14.11
-14.34
-14.61
-15.08
-15.77
-16.63
-17.66
-18.93
-20.55
-22.59
-24.92
-27.08
-28.31
-27.6
-23.9
-16.32
-4.42
11.61
30.84
51.76
72.47
90.93
105.29
114.1
116.62
113.03
104.47
92.88
80.42
68.92
59.3
51.51
44.87
38.66
32.55
26.75
21.78
17.93
15.08
12.77
10.52
8.27
6.46
5.86
7.09
10.27
14.73
19.39
23.17
25.56
26.72
27.35
28.17
29.48
31.02
32.15
32.19
30.81
28.16
24.72
21.01
17.39
13.93
10.53
7.07
3.36
-0.81
-5.6
-10.82
-15.73
-18.86
-18.45
-13.06
-2.22
13.11
30.75
47.83
61.73
70.71
74.28
73.04
68.22
61.02
52.18
41.84
29.8
15.95
0.73
-14.79
-29.18
-41.14
-50.02
-55.89
-59.3
-60.93
-61.22
-60.47
-58.98
-57.24
-55.88
-55.46
-56.04
-57.26
-58.34
-58.53
-57.45
-55.21
-52.3
-49.35
-46.81
-44.77
-43.04
-41.32
-39.42
-37.45
-35.69
-34.53
-34.26
-35.0
-36.66
-38.99
-41.68
-44.53
-47.36
-50.11
-52.82
-55.52
-58.26
-61.0
-63.63
-65.98
-67.81
-68.88
-68.91
-67.61
-64.68
-59.86
-52.98
-44.02
-33.06
-20.31
-6.05
9.35
25.62
42.58
60.0
77.39
93.82
108.0
118.65
125.09
127.58
127.32
125.86
124.39
123.17
121.65
119.0
114.86
109.64
104.33
99.84
96.42
93.58
90.44
86.33
81.14
75.37
69.74
64.78
60.53
56.54
52.17
46.94
40.71
33.7
26.29
18.79
11.4
4.11
-3.19
-10.62
-18.23
-25.95
-33.42
-40.04
-44.98
-47.42
-46.96
-43.97
-39.81
-36.65
-36.87
-42.19
-53.05
-68.24
-85.15
-100.64
-111.88
-117.17
-116.22
-109.9
-99.62
-86.9
-72.99
-59.05
-46.29
-36.17
-30.15
-29.33
-34.03
-43.8
-57.84
-75.44
-95.7
-116.83
-135.57
-147.46
-148.5
-137.31
-116.55
-92.38
-71.96
-60.23
-57.88
-61.56
-66.27
-68.16
-66.24
-61.96
-57.36
-53.33
-49.12
-43.18
-34.63
-24.04
-13.1
-3.63
3.45
8.55
12.95
17.94
24.06
30.95
37.68
43.31
47.5
50.59
53.52
57.36
62.94
70.57
80.0
90.43
100.71
109.51
115.54
117.8
115.81
109.7
100.3
88.86
76.79
65.22
54.77
45.53
37.24
29.65
22.67
16.53
11.57
8.04
5.81
4.41
3.08
1.06
-2.08
-6.37
-11.38
-16.4
-20.67
-23.64
-25.05
-24.92
-23.54
-21.25
-18.39
-15.25
-12.12
-9.25
-6.94
-5.4
-4.75
-4.92
-5.67
-6.68
-7.59
-8.17
-8.27
-7.88
-7.0
-5.64
-3.8
-1.44
1.43
4.66
7.98
10.98
13.16
14.14
13.73
12.09
9.68
7.07
4.79
3.09
1.87
0.75
-0.77
-3.03
-6.04
-9.47
-12.77
-15.44
-17.17
-18.0
-18.25
-18.38
-18.74
-19.48
-20.4
-21.08
-20.96
-19.59
-16.72
-12.37
-6.86
-0.6
5.92
12.28
18.27
23.76
28.72
33.1
36.67
38.95
39.43
37.66
33.62
27.89
21.53
15.8
11.81
10.06
10.44
12.29
14.7
16.81
18.1
18.34
17.57
16.0
13.88
11.52
9.18
7.12
5.53
4.59
4.31
4.54
4.95
5.08
4.45
2.76
-0.1
-3.95
-8.43
-13.15
-17.74
-21.96
-25.53
-28.18
-29.58
-29.42
-27.58
-24.24
-19.87
-15.1
-10.52
-6.5
-3.13
-0.32
2.1
4.3
6.34
8.26
10.07
11.71
13.06
13.93
14.14
13.67
12.68
11.59
10.88
10.89
11.67
12.95
14.31
15.41
16.17
16.82
17.73
19.13
21.03
23.16
25.15
26.61
27.36
27.38
26.73
25.49
23.74
21.65
19.36
17.1
14.93
12.8
10.56
8.01
5.1
1.94
-1.15
-3.79
-5.51
-5.93
-4.79
-2.03
2.13
7.18
12.47
17.3
21.17
23.89
25.47
26.05
25.72
24.48
22.29
19.19
15.35
11.07
6.72
2.54
-1.35
-4.93
-8.21
-11.09
-13.36
-14.82
-15.47
-15.65
-15.93
-16.98
-19.24
-22.78
-27.27
-32.18
-37.05
-41.66
-46.1
-50.64
-55.52
-60.86
-66.53
-72.23
-77.53
-82.0
-85.2
-86.78
-86.51
-84.36
-80.6
-75.75
-70.48
-65.46
-61.06
-57.25
-53.6
-49.56
-44.67
-38.86
-32.44
-25.97
-20.03
-15.02
-11.06
-8.04
-5.75
-3.88
-2.14
-0.23
2.15
5.16
8.93
13.35
18.18
22.96
27.14
30.19
31.7
31.52
29.85
27.17
24.1
21.26
19.0
17.41
16.29
15.26
13.99
12.22
9.81
6.77
3.19
-0.71
-4.59
-7.95
-10.21
-10.85
-9.53
-6.25
-1.34
4.59
10.72
16.19
20.33
22.76
23.57
23.31
22.68
22.33
22.45
22.75
22.64
21.62
19.49
16.56
13.4
10.57
8.33
6.63
5.15
3.54
1.62
-0.62
-3.03
-5.43
-7.7
-9.78
-11.66
-13.33
-14.65
-15.49
-15.73
-15.44
-14.95
-14.79
-15.47
-17.22
-19.82
-22.6
-24.65
-25.16
-23.7
-20.34
-15.58
-10.12
-4.57
0.65
5.35
9.48
13.04
15.94
18.11
19.45
20.02
19.99
19.7
19.51
19.73
20.43
21.48
22.56
23.38
23.81
23.87
23.71
23.45
23.05
22.36
21.19
19.43
17.16
14.58
11.96
9.49
7.2
4.98
2.58
-0.26
-3.72
-7.7
-11.82
-15.44
-17.96
-19.09
-19.06
-18.4
-17.6
-16.56
-14.52
-10.39
-3.54
5.63
15.59
24.23
29.82
31.75
30.66
28.04
25.38
23.64
22.91
22.73
22.39
21.35
19.39
16.59
13.34
10.18
7.63
6.0
5.26
5.01
4.67
3.87
2.57
1.17
0.22
0.11
0.79
1.75
2.24
1.66
-0.21
-3.18
-6.81
-10.69
-14.58
-18.4
-22.03
-25.1
-27.07
-27.32
-25.56
-21.93
-17.02
-11.64
-6.51
-2.01
1.81
5.14
8.26
11.34
14.36
17.17
19.42
20.79
21.04
20.16
18.37
16.09
13.79
11.86
10.47
9.61
9.12
8.85
8.65
8.46
8.22
7.9
7.44
6.84
6.09
5.26
4.4
3.56
2.71
1.76
0.5
-1.24
-3.58
-6.52
-9.94
-13.56
-17.0
-19.8
-21.49
-21.71
-20.29
-17.3
-13.1
-8.22
-3.2
1.54
5.76
9.41
12.52
15.11
17.13
18.47
19.07
18.92
18.13
16.94
15.62
14.42
13.44
12.68
12.0
11.31
10.61
10.0
9.61
9.49
9.58
9.72
9.74
9.52
9.06
8.44
7.73
6.98
6.17
5.28
4.26
3.02
1.42
-0.68
-3.38
-6.65
-10.21
-13.63
-16.35
-17.92
-18.0
-16.59
-13.87
-10.19
-5.96
-1.54
2.79
6.86
10.5
13.6
16.02
17.63
18.39
18.36
17.76
16.86
15.97
15.28
14.89
14.69
14.55
14.38
14.11
13.75
13.34
12.89
12.4
11.85
11.19
10.4
9.4
8.1
6.44
4.46
2.3
0.19
-1.64
-3.14
-4.43
-5.76
-7.4
-9.52
-12.11
-15.01
-17.98
-20.75
-23.05
-24.55
-25.01
-24.25
-22.26
-19.23
-15.57
-11.71
-8.12
-5.17
-3.03
-1.68
-0.88
-0.25
0.64
2.09
4.2
6.85
9.79
12.7
15.36
17.66
19.55
21.01
22.0
22.51
22.57
22.23
21.57
20.7
19.7
18.69
17.76
16.99
16.41
15.93
15.45
14.85
14.14
13.37
12.7
12.27
12.1
12.04
11.79
11.03
9.55
7.37
4.67
1.79
-0.96
-3.38
-5.44
-7.18
-8.66
-9.94
-11.13
-12.35
-13.77
-15.53
-17.58
-19.6
-21.09
-21.45
-20.25
-17.38
-13.12
-8.02
-2.76
2.07
6.08
9.13
11.29
12.74
13.68
14.36
14.9
15.38
15.83
16.21
16.44
16.43
16.11
15.39
14.31
12.91
11.37
9.9
8.68
7.79
7.24
6.95
6.8
6.72
6.68
6.71
6.77
6.76
6.51
5.86
4.8
3.4
1.86
0.35
-1.06
-2.47
-4.03
-5.86
-7.97
-10.23
-12.45
-14.48
-16.15
-17.3
-17.66
-16.95
-15.02
-11.98
-8.23
-4.38
-0.98
1.66
3.56
4.95
6.07
7.03
7.76
8.12
8.03
7.59
7.06
6.68
6.62
6.89
7.32
7.77
8.14
8.39
8.58
8.74
8.87
8.91
8.76
8.33
7.55
6.43
5.06
3.57
2.13
0.89
-0.11
-0.87
-1.47
-2.0
-2.53
-3.14
-3.86
-4.72
-5.73
-6.89
-8.17
-9.5
-10.8
-11.95
-12.82
-13.24
-13.05
-12.14
-10.43
-8.0
-5.0
-1.69
1.61
4.62
7.07
8.83
9.89
10.42
10.66
10.89
11.26
11.78
12.31
12.71
12.88
12.86
12.73
12.59
12.46
12.29
12.03
11.64
11.18
10.71
10.24
9.74
9.09
8.21
7.05
5.64
4.05
2.32
0.41
-1.8
-4.44
-7.52
-10.8
-13.79
-15.93
-16.77
-16.29
-14.96
-13.55
-12.76
-12.82
-13.44
-13.87
-13.43
-11.81
-9.26
-6.35
-3.68
-1.59
-0.04
1.25
2.51
3.76
4.82
5.42
5.4
4.88
4.15
3.54
3.24
3.18
3.08
2.58
1.44
-0.36
-2.67
-5.31
-8.13
-11.14
-14.32
-17.47
-20.2
-22.0
-22.44
-21.37
-19.02
-15.83
-12.2
-8.42
-4.48
-0.33
3.98
8.11
11.58
13.88
14.7
14.05
12.23
9.73
7.03
4.54
2.5
1.04
0.18
-0.16
-0.13
0.07
0.25
0.31
0.31
0.39
0.73
1.45
2.55
3.94
5.41
6.81
7.98
8.85
9.35
9.48
9.2
8.45
7.24
5.6
3.62
1.46
-0.66
-2.46
-3.78
-4.49
-4.63
-4.4
-4.1
-4.01
-4.35
-5.15
-6.28
-7.5
-8.58
-9.35
-9.82
-10.08
-10.23
-10.34
-10.48
-10.68
-11.03
-11.56
-12.24
-12.91
-13.27
-13.03
-11.92
-9.9
-7.13
-3.97
-0.88
1.75
3.67
4.81
5.27
5.23
4.88
4.43
4.0
3.69
3.53
3.49
3.5
3.43
3.15
2.62
1.91
1.18
0.63
0.44
0.6
0.99
1.37
1.57
1.47
1.12
0.65
0.15
-0.34
-0.88
-1.57
-2.45
-3.5
-4.59
-5.61
-6.5
-7.26
-7.92
-8.52
-9.13
-9.86
-10.82
-12.08
-13.59
-15.16
-16.47
-17.17
-17.05
-16.1
-14.47
-12.32
-9.77
-6.87
-3.64
-0.22
3.14
6.07
8.19
9.27
9.29
8.5
7.31
6.21
5.6
5.76
6.75
8.49
10.78
13.32
15.79
17.84
19.15
19.57
19.07
17.87
16.31
14.74
13.4
12.35
11.48
10.62
9.62
8.46
7.14
5.77
4.38
2.99
1.6
0.22
-1.11
-2.34
-3.49
-4.63
-5.82
-7.12
-8.48
-9.73
-10.63
-10.94
-10.53
-9.36
-7.6
-5.49
-3.37
-1.52
-0.12
0.78
1.21
1.32
1.3
1.28
1.34
1.43
1.39
1.05
0.31
-0.76
-1.96
-3.02
-3.78
-4.17
-4.29
-4.27
-4.22
-4.15
-4.02
-3.8
-3.47
-3.09
-2.72
-2.34
-1.96
-1.59
-1.31
-1.22
-1.42
-1.84
-2.36
-2.72
-2.77
-2.52
-2.12
-1.88
-2.06
-2.78
-3.91
-5.14
-6.03
-6.18
-5.4
-3.7
-1.37
1.19
3.54
5.36
6.56
7.2
7.44
7.39
7.09
6.51
5.63
4.51
3.28
2.11
1.12
0.31
-0.35
-0.92
-1.41
-1.78
-1.94
-1.83
-1.45
-0.87
-0.21
0.36
0.74
0.85
0.67
0.22
-0.4
-1.13
-1.89
-2.68
-3.49
-4.32
-5.1
-5.75
-6.2
-6.5
-6.78
-7.19
-7.8
-8.5
-9.03
-9.08
-8.43
-7.1
-5.29
-3.34
-1.53
-0.01
1.28
2.52
3.85
5.3
6.75
8.0
8.85
9.22
9.1
8.57
7.77
6.87
5.99
5.24
4.64
4.16
3.76
3.38
2.96
2.5
1.99
1.43
0.86
0.31
-0.12
-0.33
-0.28
-0.02
0.26
0.37
0.16
-0.4
-1.22
-2.13
-3.05
-4.03
-5.17
-6.57
-8.21
-9.88
-11.26
-12.01
-11.97
-11.12
-9.71
-8.0
-6.22
-4.5
-2.83
-1.19
0.46
2.08
3.56
4.82
5.76
6.34
6.55
6.39
5.88
5.03
3.88
2.55
1.19
-0.03
-0.95
-1.48
-1.65
-1.57
-1.34
-1.12
-0.95
-0.86
-0.83
-0.8
-0.75
-0.64
-0.6
-0.71
-1.12
-1.83
-2.78
-3.8
-4.71
-5.36
-5.73
-5.88
-5.94
-6.0
-6.17
-6.47
-6.9
-7.36
-7.73
-7.81
-7.44
-6.51
-5.09
-3.4
-1.79
-0.62
-0.12
-0.26
-0.78
-1.27
-1.35
-0.81
0.26
1.62
2.96
4.11
5.03
5.81
6.51
7.08
7.38
7.3
6.88
6.31
5.86
5.7
5.85
6.15
6.4
6.53
6.62
6.77
6.91
6.82
6.11
4.54
2.18
-0.57
-3.15
-5.1
-6.3
-6.93
-7.36
-7.92
-8.72
-9.72
-10.76
-11.71
-12.49
-13.08
-13.44
-13.52
-13.23
-12.49
-11.22
-9.39
-7.04
-4.31
-1.45
1.22
3.4
4.82
5.46
5.44
4.98
4.42
4.07
4.2
4.98
6.43
8.37
10.45
12.18
13.07
12.82
11.39
9.06
6.35
3.79
1.85
0.77
0.64
1.4
2.88
4.84
6.96
8.87
10.15
10.56
10.05
8.83
7.27
5.79
4.66
3.96
3.53
3.13
2.56
1.76
0.83
-0.09
-0.75
-0.99
-0.58
0.6
2.65
5.55
9.22
13.5
18.24
23.22
28.25
33.09
37.58
41.64
45.33
48.82
52.35
56.1
60.09
64.13
67.9
70.96
72.86
73.16
71.49
67.58
61.44
53.39
44.07
34.28
24.84
16.36
9.14
3.22
-1.57
-5.39
-8.35
-10.49
-11.81
-12.32
-12.07
-11.09
-9.39
-6.9
-3.4
1.34
7.6
15.51
25.01
35.74
46.99
57.82
67.18
74.28
78.74
80.72
80.72
79.26
76.53
72.28
65.83
56.52
43.97
28.43
10.6
-8.67
-28.73
-49.17
-69.67
-89.7
-108.42
-124.75
-137.72
-146.66
-151.21
-151.16
-146.14
-135.82
-120.14
-99.91
-77.05
-54.4
-35.05
-21.39
-14.48
-13.73
-17.22
-22.32
-26.55
-28.26
-27.05
-23.6
-19.15
-14.87
-11.26
-8.07
-4.7
-0.64
4.1
8.95
13.02
15.43
15.43
12.48
6.19
-3.53
-16.23
-30.61
-44.64
-56.06
-63.09
-65.13
-62.94
-58.17
-52.58
-47.3
-42.46
-37.48
-31.61
-24.47
-16.31
-7.8
0.37
7.82
14.59
20.87
26.69
31.78
35.58
37.53
37.46
35.66
32.87
30.02
27.88
26.81
26.78
27.43
28.32
29.07
29.48
29.46
28.99
28.12
26.94
25.6
24.25
23.02
21.97
21.06
20.19
19.36
18.63
18.15
18.11
18.62
19.69
21.23
23.09
25.17
27.56
30.37
33.79
37.78
42.03
45.81
48.2
48.49
46.51
42.8
38.43
34.6
32.22
31.66
32.84
35.39
39.05
43.71
49.42
56.02
62.91
68.9
72.4
71.98
66.91
57.72
46.2
34.96
26.6
22.81
23.94
29.06
36.53
44.52
51.44
56.0
57.04
53.61
45.31
32.75
17.68
2.3
-11.77
-24.41
-37.01
-51.44
-68.79
-88.37
-107.88
-124.51
-136.32
-142.93
-145.34
-145.09
-143.36
-140.65
-137.0
-132.49
-127.42
-122.2
-116.99
-111.54
-105.25
-97.47
-87.79
-76.25
-63.43
-50.22
-37.59
-26.24
-16.39
-7.7
0.54
8.94
17.64
26.2
33.82
39.92
44.48
48.04
51.27
54.42
56.85
57.26
54.22
47.06
36.26
23.43
10.75
0.45
-5.52
-5.41
1.82
15.9
34.54
53.46
67.54
72.66
67.54
54.35
37.7
22.35
11.1
3.94
-1.18
-6.62
-13.47
-21.24
-28.45
-33.99
-37.79
-40.82
-44.44
-49.53
-56.02
-62.91
-68.71
-72.03
-72.11
-68.97
-63.34
-56.36
-49.27
-43.02
-38.08
-34.45
-31.76
-29.73
-28.29
-27.69
-28.24
-29.95
-32.28
-34.24
-34.82
-33.46
-30.42
-26.64
-23.28
-21.19
-20.53
-20.85
-21.49
-21.9
-21.94
-21.7
-21.32
-20.77
-19.88
-18.41
-16.28
-13.51
-10.26
-6.7
-3.04
0.42
3.41
5.61
6.91
7.42
7.46
7.41
7.46
7.59
7.58
7.18
6.34
5.23
4.08
3.12
2.35
1.53
0.41
-1.19
-3.26
-5.55
-7.74
-9.51
-10.64
-10.95
-10.37
-8.82
-6.31
-3.03
0.72
4.43
7.63
9.95
11.32
11.92
12.1
12.18
12.38
12.74
13.17
13.57
13.88
14.1
14.24
14.3
14.23
13.97
13.51
12.9
12.25
11.68
11.21
10.77
10.17
9.27
7.94
6.23
4.34
2.5
0.89
-0.44
-1.59
-2.82
-4.34
-6.27
-8.58
-11.08
-13.38
-15.12
-15.96
-15.77
-14.65
-12.87
-10.8
-8.72
-6.84
-5.22
-3.87
-2.81
-2.08
-1.72
-1.7
-1.88
-2.1
-2.25
-2.29
-2.29
-2.4
-2.67
-3.04
-3.31
-3.2
-2.49
-1.17
0.58
2.33
3.58
3.93
3.3
1.95
0.35
-0.98
-1.74
-1.97
-1.95
-2.07
-2.57
-3.39
-4.25
-4.73
-4.54
-3.58
-1.97
0.05
2.24
4.5
6.89
9.55
12.72
16.46
20.69
25.01
28.86
31.76
33.41
34.01
34.09
34.33
35.24
36.89
38.99
41.15
43.1
45.0
47.38
50.77
55.47
61.48
68.53
76.09
83.53
90.07
94.57
95.48
91.19
80.74
64.46
44.24
22.92
3.22
-13.39
-27.12
-39.1
-50.29
-60.18
-66.95
-68.57
-64.33
-55.88
-46.88
-41.48
-42.36
-49.48
-60.17
-70.6
-77.42
-78.92
-75.38
-68.7
-61.38
-55.49
-52.12
-51.17
-51.56
-51.79
-50.64
-47.74
-43.73
-39.78
-37.12
-36.42
-37.67
-40.37
-43.99
-48.34
-53.8
-60.97
-70.18
-81.13
-92.76
-103.52
-111.95
-117.16
-119.14
-118.67
-116.92
-115.01
-113.61
-112.82
-112.25
-111.17
-108.74
-104.16
-96.84
-86.5
-73.21
-57.37
-39.56
-20.49
-0.96
18.13
35.84
51.28
63.77
73.01
79.04
82.2
82.93
81.76
79.22
75.93
72.53
69.58
67.43
66.12
65.38
64.74
63.78
62.24
60.09
57.4
54.3
50.86
47.13
43.2
39.18
35.24
31.5
28.0
24.67
21.4
18.14
14.87
11.69
8.66
5.76
2.85
-0.31
-3.9
-7.99
-12.46
-17.01
-21.26
-24.72
-26.96
-27.68
-26.75
-24.37
-21.0
-17.32
-13.99
-11.48
-9.93
-9.15
-8.74
-8.23
-7.26
-5.71
-3.73
-1.69
-0.11
0.57
0.05
-1.71
-4.52
-7.9
-11.09
-13.07
-12.7
-9.17
-2.34
6.91
16.94
25.83
32.19
35.74
37.31
38.31
39.99
42.74
46.06
48.89
50.3
49.93
48.08
45.42
42.56
39.77
36.92
33.62
29.51
24.35
18.1
10.87
2.85
-5.62
-14.03
-21.77
-28.16
-32.57
-34.63
-34.13
-31.08
-25.67
-18.28
-9.48
-0.05
9.18
17.44
24.15
29.0
31.91
33.07
32.83
31.69
30.14
28.58
27.18
25.79
24.15
22.03
19.45
16.71
14.18
12.16
10.69
9.62
8.73
7.91
7.19
6.66
6.35
6.1
5.66
4.75
3.25
1.28
-0.85
-2.76
-4.18
-5.11
-5.81
-6.76
-8.41
-11.02
-14.49
-18.43
-22.18
-25.07
-26.57
-26.37
-24.51
-21.29
-17.22
-12.91
-8.87
-5.4
-2.54
-0.11
2.07
4.16
6.18
8.13
10.01
11.76
13.34
