2013-03-02 17:54:51
64.0
-0.0
-0.0
-0.0
-0.0
-0.0
-0.0
-0.0
-0.0
-0.0
-0.0
0.0
0.01
0.01
-0.0
-0.03
-0.05
-0.05
0.0
0.13
0.36
0.66
1.01
1.37
1.72
2.06
2.4
2.79
3.24
3.8
4.42
5.06
5.66
6.2
6.68
7.15
7.68
8.31
9.14
10.09
11.04
11.88
12.56
13.14
13.76
14.65
15.96
17.91
20.32
22.9
25.38
27.58
29.57
31.68
34.32
37.81
42.54
48.15
54.1
59.83
64.97
69.58
74.14
79.34
85.71
93.76
103.0
112.62
121.73
129.77
136.75
143.3
150.75
157.77
166.64
177.95
191.79
206.97
220.57
228.25
225.36
208.53
176.87
132.76
80.05
23.07
-34.94
-92.44
-149.16
-205.23
-260.37
-313.74
-363.87
-409.83
-450.91
-486.5
-515.74
-537.23
-549.22
-549.96
-538.37
-514.21
-478.67
-433.88
-382.45
-327.02
-269.84
-212.63
-156.66
-102.95
-52.37
-5.9
35.58
71.43
101.35
125.5
144.38
158.69
169.15
176.37
180.75
182.57
182.07
179.51
175.23
169.65
163.18
156.15
148.81
141.3
133.69
126.02
118.33
110.69
103.16
95.8
88.68
81.83
75.25
68.95
62.95
57.25
51.86
46.78
42.03
37.59
33.45
29.61
26.07
22.81
19.83
17.11
14.67
12.48
10.54
8.83
7.35
6.07
4.97
4.05
3.27
2.62
2.09
1.65
1.3
1.01
0.79
0.61
0.47
0.37
0.29
0.23
0.19
0.17
0.15
0.15
0.16
0.19
0.23
0.28
0.32
0.34
0.31
0.25
0.18
0.11
0.09
0.11
0.18
0.27
0.33
0.35
0.33
0.28
0.24
0.27
0.37
0.54
0.7
0.81
0.82
0.73
0.61
0.55
0.64
0.93
1.36
1.79
2.05
2.05
1.78
1.4
1.15
1.24
1.79
2.66
3.56
4.12
4.09
3.49
2.6
1.9
1.83
2.59
4.0
5.53
6.54
6.59
5.66
4.17
2.82
2.14
2.36
3.14
3.74
3.31
1.11
-3.31
-10.13
-18.99
-28.81
-37.63
-42.96
-42.66
-35.88
-23.74
-9.14
4.25
13.41
17.1
16.04
12.23
7.79
4.05
1.33
-0.73
-2.47
-3.84
-4.46
-3.9
-2.08
0.6
3.46
5.74
7.04
7.34
7.05
6.77
6.95
7.69
8.63
9.15
8.66
6.9
4.21
1.36
-0.74
-1.49
-0.88
0.52
1.91
2.67
2.62
2.04
1.38
0.94
0.75
0.58
0.17
-0.51
-1.36
-2.11
-2.62
-2.85
-2.91
-2.93
-2.99
-3.14
-3.38
-3.82
-4.59
-5.76
-7.34
-9.22
-11.19
-12.99
-14.51
-15.68
-16.45
-16.72
-16.26
-14.85
-12.37
-8.91
-4.72
-0.21
4.31
8.62
12.65
16.32
19.47
21.79
23.03
23.11
22.23
20.82
19.44
18.47
18.04
18.02
18.1
17.98
17.51
16.71
15.7
14.6
13.38
11.91
10.04
7.76
5.25
2.79
0.53
-1.6
-3.93
-6.79
-10.27
-14.07
-17.55
-20.1
-21.47
-21.89
-22.06
-22.78
-24.6
-27.65
-31.52
-35.49
-38.62
-40.08
-39.37
-36.4
-31.6
-25.79
-19.96
-15.02
-11.58
-9.72
-8.96
-8.44
-7.25
-4.9
-1.54
1.99
4.56
5.23
3.63
0.08
-4.67
-9.88
-15.18
-20.58
-26.35
-32.63
-39.25
-45.63
-51.1
-55.06
-57.24
-57.8
-57.19
-56.03
-54.84
-53.86
-52.85
-51.09
-47.4
-40.46
-29.14
-12.88
7.92
31.86
56.83
80.6
101.52
118.98
133.29
145.37
156.05
165.66
173.89
180.03
183.28
183.04
179.04
171.27
160.05
145.99
130.04
113.45
97.48
83.18
71.14
61.47
53.96
48.31
44.24
41.46
39.79
39.19
39.74
41.67
45.13
50.01
55.8
61.76
67.23
71.94
75.99
79.5
82.13
82.89
80.43
73.64
62.22
46.7
28.05
7.07
-16.07
-41.68
-70.01
-100.62
-131.9
-161.24
-185.59
-202.3
-209.97
-208.92
-201.16
-189.76
-177.81
-167.45
-159.23
-152.27
-145.03
-136.18
-125.31
-112.88
-99.87
-87.06
-74.74
-62.74
-50.84
-39.15
-28.24
-18.98
-11.99
-7.28
-4.09
-1.25
2.34
7.23
13.35
20.18
27.1
33.67
39.53
44.27
47.27
47.81
45.42
40.19
32.94
24.91
17.41
11.3
6.87
3.91
1.91
0.37
-1.16
-3.01
-5.37
-8.33
-11.86
-15.79
-19.92
-24.07
-28.06
-31.8
-35.14
-37.94
-40.09
-41.49
-42.11
-41.92
-40.89
-38.87
-35.69
-31.28
-25.75
-19.52
-13.23
-7.56
-2.99
0.41
2.92
5.01
7.05
9.12
10.99
12.29
12.78
12.48
11.72
10.9
10.33
10.1
10.08
10.03
9.84
9.56
9.32
9.27
9.37
9.44
9.22
8.5
7.21
5.42
3.28
0.87
-1.82
-4.9
-8.52
-12.72
-17.42
-22.37
-27.21
-31.48
-34.74
-36.58
-36.77
-35.3
-32.43
-28.63
-24.4
-20.17
-16.15
-12.41
-8.87
-5.46
-2.19
0.85
3.6
5.99
7.98
9.58
10.78
11.58
12.02
12.19
12.25
12.35
12.59
12.9
13.15
13.15
12.78
11.96
10.74
9.16
7.31
5.28
3.22
1.23
-0.61
-2.35
-4.1
-5.97
-8.0
-10.12
-12.25
-14.46
-16.96
-20.0
-23.66
-27.64
-31.24
-33.63
-34.17
-32.7
-29.58
-25.47
-21.03
-16.68
-12.57
-8.67
-4.92
-1.38
1.86
4.71
7.1
9.11
10.87
12.55
14.31
16.29
18.52
20.9
23.19
25.06
26.22
26.57
26.22
25.49
24.68
23.98
23.28
22.33
20.73
18.17
14.58
10.11
5.09
-0.04
-4.91
-9.23
-12.85
-15.75
-18.0
-19.81
-21.5
-23.4
-25.87
-29.05
-32.8
-36.66
-39.92
-41.73
-41.43
-38.75
-33.84
-27.35
-20.17
-13.2
-7.17
-2.47
0.87
3.06
4.46
5.41
6.13
6.71
7.15
7.44
7.62
7.78
7.99
8.27
8.46
8.25
7.32
5.49
2.92
0.15
-2.13
-3.28
-3.02
-1.52
0.74
3.27
5.81
8.37
11.09
13.91
16.48
18.17
18.41
16.9
13.81
9.59
4.8
-0.19
-5.26
-10.43
-15.74
-21.07
-26.17
-30.66
-34.06
-35.88
-35.56
-32.75
-27.32
-19.65
-10.53
-1.01
7.83
15.14
20.37
23.42
24.5
24.13
23.02
21.94
21.51
22.09
23.6
25.64
27.67
29.24
30.2
30.71
31.04
31.36
31.61
31.45
30.54
28.69
26.05
23.0
19.89
16.83
13.61
9.87
5.4
0.34
-4.85
-9.69
-13.92
-17.75
-21.73
-26.47
-32.37
-39.48
-47.38
-55.28
-62.08
-66.6
-67.84
-65.3
-59.12
-50.11
-39.48
-28.44
-17.92
-8.39
0.05
7.46
13.87
19.24
23.43
26.42
28.26
29.19
29.49
29.48
29.36
29.26
29.21
29.22
29.37
29.72
30.27
30.86
31.21
30.98
29.99
28.24
25.88
23.21
20.47
17.81
15.18
12.35
8.93
4.52
-1.06
-7.61
-14.46
-20.65
-25.23
-27.61
-27.79
-26.28
-23.79
-20.81
-17.29
-12.67
-6.16
2.88
14.55
28.34
43.3
58.34
72.43
84.62
93.95
99.52
100.9
98.55
94.08
89.78
87.65
88.33
90.63
92.05
89.98
83.07
71.78
57.99
43.96
31.33
20.61
11.54
3.7
-3.03
-8.39
-12.06
-14.04
-14.74
-14.79
-14.73
-14.82
-14.99
-15.06
-14.87
-14.56
-14.43
-14.91
-16.34
-18.86
-22.41
-26.7
-31.37
-36.02
-40.44
-44.62
-48.79
-53.27
-58.19
-63.25
-67.61
-70.09
-69.56
-65.31
-57.43
-46.69
-34.37
-21.82
-10.1
0.14
8.62
15.36
20.45
24.02
26.25
27.39
27.77
27.73
27.58
27.48
27.42
27.32
27.08
26.71
26.27
25.9
25.69
25.66
25.69
25.63
25.23
24.3
22.74
20.6
18.08
15.44
12.83
10.21
7.34
3.99
0.03
-4.44
-9.09
-13.61
-17.77
-21.52
-24.98
-28.33
-31.86
-35.92
-40.86
-46.86
-53.72
-60.72
-66.73
-70.45
-70.9
-67.7
-61.11
-51.87
-40.93
-29.13
-17.15
-5.45
5.67
15.93
25.18
33.33
40.42
46.55
51.85
56.35
59.94
62.45
63.65
63.44
61.86
59.16
55.74
52.04
48.43
45.13
42.08
39.05
35.69
31.74
27.19
22.29
17.49
13.19
9.58
6.53
3.69
0.69
-2.76
-6.69
-10.99
-15.47
-19.88
-24.07
-27.93
-31.51
-35.03
-38.85
-43.33
-48.67
-54.68
-60.68
-65.67
-68.47
-68.13
-64.19
-56.84
-46.82
-35.2
-23.09
-11.36
-0.6
8.8
16.5
22.12
25.35
26.09
24.65
21.73
18.37
15.59
14.08
13.95
14.72
15.53
15.45
13.88
10.67
6.17
0.98
-4.3
-9.34
-14.06
-18.64
-23.25
-28.08
-33.12
-38.2
-42.91
-46.66
-48.76
-48.64
-46.15
-41.71
-36.32
-31.22
-27.38
-25.2
-24.27
-23.7
-22.57
-20.43
-17.5
-14.46
-11.9
-9.99
-8.26
-6.01
-2.79
1.17
5.01
7.65
8.43
7.53
5.87
4.61
4.7
6.43
9.58
13.75
18.65
23.9
28.75
31.87
31.51
26.21
15.57
0.66
-16.21
-32.36
-45.62
-54.7
-58.99
-58.12
-51.58
-38.89
-20.09
3.57
29.42
53.77
72.81
83.63
84.97
77.55
63.67
46.5
29.05
13.44
0.59
-9.59
-17.59
-23.84
-28.4
-31.19
-32.28
-32.14
-31.56
-31.19
-31.24
-31.21
-30.06
-26.62
-20.21
-10.98
0.11
11.67
22.44
31.88
40.17
47.95
55.79
63.66
70.91
76.64
80.21
81.68
81.72
81.12
80.29
78.9
76.15
71.2
63.71
54.05
43.19
32.28
22.22
13.51
6.21
0.15
-4.87
-8.98
-12.34
-15.11
-17.6
-20.15
-23.09
-26.58
-30.64
-35.1
-39.68
-44.14
-48.29
-52.05
-55.46
-58.61
-61.6
-64.38
-66.71
-68.16
-68.1
-65.85
-60.89
-53.01
-42.5
-30.14
-17.2
-5.24
4.24
10.08
11.84
9.96
5.69
0.88
-2.48
-2.76
0.78
7.68
16.45
24.93
31.18
34.09
33.83
31.65
29.41
28.82
30.94
35.92
43.2
51.77
60.6
68.71
75.27
79.6
81.16
79.63
74.95
67.45
57.81
47.01
36.04
25.63
16.06
7.22
-1.15
-9.13
-16.45
-22.6
-27.23
-30.46
-32.9
-35.36
-38.33
-41.62
-44.32
-45.25
-43.55
-39.09
-32.52
-24.92
-17.32
-10.37
-4.3
0.86
5.0
7.88
9.27
9.11
7.77
5.93
4.38
3.74
4.25
5.8
8.03
10.56
12.95
14.78
15.52
14.67
11.9
7.27
1.24
-5.39
-11.77
-17.27
-21.62
-24.97
-27.69
-30.24
-32.92
-35.7
-38.2
-39.79
-39.83
-37.93
-34.12
-28.82
-22.64
-16.13
-9.6
-3.18
3.06
8.94
14.11
18.13
20.68
21.7
21.41
20.32
18.96
17.83
17.15
16.9
16.86
16.75
16.45
15.99
15.48
14.97
14.3
13.2
11.44
9.02
6.32
3.93
2.46
2.16
2.78
3.57
3.56
1.88
-1.95
-7.76
-14.82
-22.0
-28.09
-32.13
-33.57
-32.47
-29.28
-24.8
-19.8
-14.93
-10.52
-6.59
-3.03
0.33
3.53
6.53
9.21
11.46
13.23
14.46
15.1
15.12
14.57
13.65
12.65
11.86
11.43
11.32
11.31
11.19
10.8
10.07
8.98
7.48
5.52
3.09
0.37
-2.31
-4.58
-6.19
-7.21
-7.98
-9.02
-10.77
-13.42
-16.79
-20.52
-24.13
-27.26
-29.65
-31.14
-31.52
-30.53
-28.0
-23.98
-18.82
-13.1
-7.42
-2.17
2.59
6.98
11.17
15.2
18.99
22.39
25.36
27.94
30.17
32.0
33.25
33.73
33.35
32.26
30.79
29.37
28.37
27.99
28.21
28.78
29.27
29.19
28.14
25.89
22.55
18.52
14.37
10.66
7.76
5.72
4.25
2.89
1.22
-1.01
-3.66
-6.37
-8.73
-10.51
-11.82
-13.06
-14.75
-17.33
-20.96
-25.5
-30.45
-35.01
-38.22
-39.12
-37.11
-32.21
-25.21
-17.45
-10.47
-5.46
-2.92
-2.55
-3.55
-4.94
-5.93
-6.03
-5.06
-3.01
0.0
3.7
7.7
11.44
14.36
16.06
16.49
15.95
15.05
14.41
14.44
15.13
16.14
16.91
16.92
15.9
13.88
11.16
8.21
5.51
3.4
2.04
1.37
1.23
1.35
1.43
1.22
0.59
-0.45
-1.75
-3.07
-4.21
-5.18
-6.23
-7.78
-10.23
-13.69
-17.81
-21.82
-24.81
-26.03
-25.2
-22.58
-18.78
-14.58
-10.57
-7.05
-4.01
-1.27
1.35
3.91
6.33
8.54
10.5
12.27
13.95
15.55
16.98
18.03
18.6
18.75
18.73
18.83
19.21
19.78
20.21
20.1
19.2
17.48
15.12
12.4
9.54
6.65
3.75
0.87
-1.92
-4.52
-6.77
-8.63
-10.09
-11.22
-12.08
-12.7
-13.09
-13.31
-13.5
-13.93
-14.8
-16.16
-17.77
-19.19
-19.88
-19.47
-17.81
-15.07
-11.66
-8.1
-4.92
-2.53
-1.08
-0.41
-0.1
0.34
1.26
2.63
4.08
5.05
5.05
3.99
2.15
0.09
-1.61
-2.51
-2.42
-1.41
0.25
2.21
4.05
5.34
5.74
5.05
3.3
0.71
-2.35
-5.51
-8.47
-10.99
-12.95
-14.3
-15.06
-15.38
-15.44
-15.47
-15.64
-16.07
-16.8
-17.84
-19.19
-20.8
-22.5
-23.9
-24.43
-23.47
-20.61
-15.82
-9.55
-2.62
4.02
9.55
13.53
15.92
17.03
17.27
16.99
16.33
15.22
13.59
11.43
8.95
6.46
4.32
2.76
1.83
1.48
1.6
2.13
3.0
4.12
5.31
6.29
6.78
6.52
5.45
3.68
1.51
-0.67
-2.56
-4.02
-5.12
-6.12
-7.37
-9.17
-11.73
-15.06
-18.93
-22.86
-26.21
-28.35
-28.87
-27.67
-24.95
-21.09
-16.39
-11.05
-5.2
0.95
7.04
12.54
17.01
20.21
22.24
23.39
24.05
24.49
24.83
25.0
24.88
24.29
23.1
21.32
19.08
16.6
14.1
11.75
9.59
7.68
6.02
4.63
3.45
2.32
0.97
-0.84
-3.19
-5.97
-8.92
-11.8
-14.41
-16.71
-18.7
-20.44
-22.01
-23.5
-24.93
-26.27
-27.3
-27.65
-26.97
-25.03
-21.87
-17.75
-13.1
-8.38
-3.94
0.03
3.54
6.68
9.59
12.38
15.02
17.39
19.33
20.74
21.59
21.98
22.02
21.83
21.46
20.95
20.34
19.66
18.89
17.88
16.43
14.37
11.67
8.44
4.92
1.4
-1.94
-5.0
-7.83
-10.51
-13.05
-15.36
-17.31
-18.76
-19.71
-20.3
-20.86
-21.74
-23.22
-25.32
-27.77
-29.97
-31.18
-30.79
-28.52
-24.63
-19.75
-14.69
-10.08
-6.22
-2.99
-0.17
2.42
4.73
6.61
7.97
8.85
9.49
10.14
10.9
11.7
12.38
12.88
13.3
13.83
14.58
15.5
16.38
16.95
17.09
16.9
16.64
16.49
16.46
16.29
15.6
14.07
11.61
8.33
4.49
0.31
-4.07
-8.51
-12.86
-16.89
-20.37
-23.2
-25.41
-27.2
-28.78
-30.31
-31.81
-33.15
-34.15
-34.54
-34.11
-32.69
-30.24
-26.84
-22.71
-18.11
-13.34
-8.69
-4.39
-0.63
2.48
4.9
6.69
7.95
8.79
9.31
9.65
9.97
10.48
11.38
12.77
14.56
16.55
18.48
20.18
21.57
22.67
23.5
24.08
24.39
24.42
24.14
23.52
22.49
20.95
18.89
16.43
13.8
11.24
8.9
6.8
4.9
3.25
2.02
1.46
1.7
2.59
3.72
4.62
5.02
5.01
4.94
5.27
6.24
7.76
9.46
10.96
11.96
12.52
12.84
13.18
13.67
14.28
14.86
15.18
15.05
14.36
13.09
11.34
9.27
7.12
5.03
3.09
1.29
-0.41
-2.09
-3.84
-5.75
-7.95
-10.54
-13.48
-16.51
-19.2
-21.05
-21.71
-21.13
-19.56
-17.51
-15.6
-14.43
-14.38
-15.54
-17.64
-20.12
-22.4
-24.14
-25.38
-26.51
-27.92
-29.66
-31.33
-32.24
-31.71
-29.52
-25.87
-21.31
-16.36
-11.32
-6.27
-1.33
3.22
6.88
9.19
9.91
9.2
7.58
5.64
3.81
2.22
0.71
-0.97
-2.99
-5.28
-7.61
-9.78
-11.69
-13.43
-15.07
-16.53
-17.36
-17.05
-15.24
-12.0
-7.96
-3.92
-0.42
2.64
5.97
10.41
16.23
22.72
28.37
31.55
31.31
27.79
22.07
15.45
8.8
2.3
-4.4
-11.67
-19.55
-27.7
-35.69
-43.27
-50.51
-57.59
-64.38
-70.15
-73.42
-72.38
-65.49
-52.35
-34.21
-13.89
5.01
19.26
27.19
28.96
26.28
21.39
16.13
11.51
7.81
5.07
3.5
3.33
4.63
6.99
9.56
11.43
12.0
11.32
9.89
8.48
7.63
7.53
7.97
8.52
8.73
8.3
7.15
5.4
3.26
1.04
-0.88
-2.07
-2.08
-0.63
2.27
6.21
10.46
14.15
16.55
17.38
16.75
15.15
13.14
11.18
9.55
8.31
7.4
6.76
6.28
5.9
5.5
5.07
4.6
4.22
4.03
4.12
4.42
4.82
5.17
5.36
5.31
4.95
4.17
2.76
0.59
-2.34
-5.77
-9.29
-12.46
-15.05
-17.08
-18.81
-20.48
-22.12
-23.56
-24.41
-24.36
-23.27
-21.27
-18.7
-15.93
-13.24
-10.67
-8.15
-5.45
-2.39
1.08
4.89
8.86
12.69
16.12
18.9
20.86
21.89
21.99
21.2
19.68
17.66
15.41
13.21
11.3
9.75
8.52
7.42
6.2
4.73
3.03
1.32
-0.13
-1.14
-1.77
-2.25
-2.96
-4.19
-6.04
-8.46
-11.3
-14.39
-17.63
-20.84
-23.77
-26.0
-27.13
-26.88
-25.3
-22.7
-19.52
-16.14
-12.75
-9.27
-5.51
-1.37
3.06
7.49
11.56
14.95
17.48
19.16
20.15
20.68
21.05
21.54
22.4
23.72
25.42
27.25
28.78
29.61
29.45
28.18
25.87
22.69
18.87
14.67
10.34
6.15
2.34
-0.91
-3.54
-5.6
-7.21
-8.55
-9.75
-10.9
-12.04
-13.26
-14.63
-16.25
-18.19
-20.37
-22.49
-24.12
-24.8
-24.19
-22.31
-19.46
-16.15
-12.87
-9.88
-7.22
-4.72
-2.15
0.62
3.56
6.49
9.19
11.47
13.26
14.63
15.72
16.67
17.56
18.4
19.2
20.06
21.13
22.64
24.65
26.98
29.17
30.59
30.65
28.99
25.59
20.72
14.92
8.81
3.05
-1.87
-5.63
-8.15
-9.6
-10.26
-10.5
-10.64
-10.94
-11.53
-12.42
-13.55
-14.85
-16.33
-18.09
-20.28
-22.92
-25.79
-28.41
-30.14
-30.49
-29.26
-26.64
-23.04
-18.95
-14.75
-10.61
-6.6
-2.71
0.99
4.41
7.37
9.74
11.46
12.64
13.5
14.38
15.58
17.34
19.69
22.48
25.47
28.36
30.91
32.96
34.41
35.2
35.26
34.5
32.86
30.4
27.33
23.99
20.75
17.8
15.11
12.44
9.56
6.38
3.13
0.18
-2.05
-3.34
-3.71
-3.47
-3.08
-3.03
-3.79
-5.61
-8.44
-11.76
-14.77
-16.58
-16.63
-14.91
-11.95
-8.54
-5.38
-2.76
-0.52
1.81
4.73
8.44
12.82
17.46
21.78
25.29
27.63
28.7
28.69
28.03
27.41
27.53
28.96
31.83
35.73
39.86
43.24
45.23
45.7
45.02
43.74
42.15
40.1
37.01
32.36
25.92
18.05
9.47
0.92
-7.08
-14.38
-21.08
-27.21
-32.73
-37.51
-41.43
-44.57
-47.15
-49.46
-51.76
-54.16
-56.6
-58.77
-60.06
-59.49
-56.03
-48.91
-38.02
-24.14
-8.96
5.14
15.29
18.7
13.46
-0.74
-21.93
-46.09
-68.2
-84.0
-91.51
-91.59
-87.19
-81.56
-76.64
-72.31
-67.07
-59.52
-49.6
-38.89
-29.72
-23.92
-21.63
-21.21
-20.08
-16.0
-8.25
2.13
13.04
22.47
29.48
34.49
38.73
43.43
49.14
55.58
61.97
67.39
71.14
72.79
72.23
69.54
65.05
59.25
52.78
46.37
40.76
36.63
34.42
34.17
35.31
36.85
37.62
36.84
34.49
31.2
27.95
25.38
23.5
21.7
19.2
15.48
10.41
4.24
-2.79
-10.61
-19.32
-29.01
-39.51
-50.27
-60.43
-69.0
-75.17
-78.48
-78.86
-76.7
-72.59
-67.22
-61.26
-55.25
-49.52
-44.2
-39.23
-34.48
-29.92
-25.63
-21.89
-18.97
-17.02
-15.9
-15.26
-14.68
-13.91
-13.13
-12.93
-13.99
-16.73
-20.82
-25.21
-28.4
-29.03
-26.46
-20.97
-13.56
-5.47
2.32
9.23
15.06
19.74
23.17
25.24
26.0
25.78
25.21
25.07
26.06
28.49
32.19
36.45
40.26
42.53
42.48
39.92
35.25
29.44
23.68
19.19
16.94
17.56
21.12
26.89
33.28
38.04
38.91
34.42
24.46
10.39
-5.61
-21.28
-34.92
-45.59
-52.94
-56.94
-57.81
-56.31
-53.84
-52.3
-53.7
-59.56
-70.48
-85.84
-103.71
-120.95
-133.51
-137.19
-128.99
-108.42
-78.14
-43.53
-11.03
14.04
29.1
34.74
33.75
29.45
24.11
18.49
12.21
4.67
-4.18
-13.79
-23.47
-33.08
-43.37
-55.68
-71.03
-89.35
-109.06
-127.7
-142.86
-153.27
-159.07
-161.35
-161.23
-159.05
-154.31
-146.27
-134.69
-120.25
-104.32
-88.38
-73.33
-59.28
-45.85
-32.69
-19.79
-7.37
4.4
15.72
27.33
40.11
54.82
71.77
90.77
111.3
132.68
154.13
174.76
193.57
209.56
221.9
230.28
234.89
236.44
235.79
233.61
230.2
225.54
219.53
212.25
204.1
195.68
187.52
179.72
171.84
162.87
151.65
137.25
119.49
99.19
78.05
58.19
41.51
29.09
20.99
16.48
14.59
14.49
15.75
18.07
21.02
23.9
25.87
26.28
25.01
22.34
18.64
14.02
8.21
0.72
-8.68
-19.67
-31.35
-42.49
-51.95
-59.01
-63.43
-65.37
-65.18
-63.24
-59.96
-55.73
-50.96
-45.98
-40.83
-35.29
-28.94
-21.51
-13.16
-4.56
3.3
9.6
14.06
17.07
19.41
21.82
24.52
27.21
29.33
30.44
30.55
30.16
30.03
30.85
32.92
35.9
38.94
40.93
41.04
39.17
35.95
32.57
30.16
29.25
29.67
30.78
31.76
31.79
29.81
24.36
13.96
-2.25
-23.54
-47.34
-69.96
-87.87
-99.14
-103.9
-103.77
-100.49
-94.87
-86.57
-74.84
-59.67
-42.39
-25.41
-11.32
-1.7
3.47
5.62
6.81
8.88
12.6
17.64
22.92
27.27
30.11
31.64
32.72
34.35
37.15
41.04
45.41
49.5
52.87
55.66
58.26
60.89
63.18
64.18
62.75
58.1
50.04
38.87
24.96
8.47
-10.42
-31.15
-52.38
-72.24
-89.01
-101.88
-111.25
-118.26
-123.97
-128.58
-131.47
-131.82
-129.34
-124.59
-118.63
-112.37
-105.95
-98.89
-90.5
-80.4
-68.65
-55.53
-41.17
-25.33
-7.69
11.73
32.18
52.22
70.08
84.34
94.42
100.68
104.2
106.29
108.11
110.38
113.44
117.4
122.23
127.73
133.4
138.38
141.6
142.25
140.19
136.07
131.02
125.85
120.52
114.02
105.0
92.75
77.82
62.05
47.63
36.02
27.13
19.35
10.4
-1.67
-17.67
-37.31
-59.61
-83.49
-107.89
-131.61
-152.96
-169.8
-180.12
-182.89
-178.66
-169.53
-158.29
-147.38
-137.97
-129.88
-122.07
-113.53
-103.84
-93.29
-82.51
-72.11
-62.49
-53.89
-46.63
-41.07
-37.47
-35.63
-34.74
-33.64
-31.36
-27.77
-23.9
-21.71
-23.37
-30.16
-41.65
-55.54
-68.21
-75.79
-75.5
-66.71
-51.42
-33.94
-19.77
-13.91
-19.11
-34.68
-56.58
-78.78
-95.57
-103.63
-103.04
-96.71
-88.7
-82.31
-79.01
-78.47
-79.57
-81.54
-84.42
-88.87
-95.49
-104.19
-114.07
-123.79
-132.23
-138.79
-143.37
-145.84
-145.55
-141.25
-131.47
-115.12
-92.18
-63.74
-31.65
2.07
35.77
68.2
98.39
125.27
147.62
164.44
175.35
180.99
182.9
183.01
182.89
183.27
183.74
183.13
180.23
174.27
165.29
153.87
140.75
126.59
112.46
100.4
93.59
95.33
107.14
126.9
148.51
163.83
166.07
153.04
128.07
98.18
70.61
49.48
34.98
24.67
16.16
8.95
4.43
4.48
9.73
18.83
28.98
37.36
42.14
42.95
40.65
36.63
32.34
29.11
28.11
30.3
36.19
45.67
57.86
71.16
83.43
92.35
95.78
92.27
81.53
64.86
44.99
25.59
10.2
0.94
-2.3
-2.04
-2.34
-7.06
-18.08
-33.97
-50.27
-61.0
-61.09
-48.52
-25.26
3.14
29.52
47.39
53.18
47.58
35.4
23.88
19.96
27.35
44.53
64.75
78.16
75.49
51.75
8.33
-47.35
-104.37
-151.91
-182.58
-194.16
-189.67
-175.6
-159.44
-147.13
-141.45
-141.86
-145.63
-149.7
-152.0
-151.8
-149.27
-144.7
-138.12
-129.62
-119.87
-110.37
-102.81
-98.08
-95.67
-94.0
-91.4
-87.3
-82.41
-78.04
-74.98
-72.62
-69.14
-62.31
-50.59
-33.8
-13.27
8.57
28.74
44.57
54.55
58.89
59.59
59.8
62.64
69.93
81.67
96.33
111.74
125.94
137.58
145.73
149.61
148.52
142.13
130.75
115.46
97.72
79.05
60.61
43.25
27.51
13.79
2.24
-7.28
-15.14
-21.83
-27.8
-33.45
-39.1
-45.01
-51.09
-56.69
-60.52
-60.98
-56.83
-47.76
-34.73
-19.69
-5.01
7.24
15.67
19.87
20.21
17.61
13.18
7.95
2.75
-1.74
-4.86
-5.92
-4.29
0.21
7.0
14.78
21.95
27.21
30.2
31.44
31.99
32.7
33.92
35.46
37.04
38.66
40.81
44.28
49.76
57.53
67.24
78.02
88.66
98.09
105.66
111.41
116.03
120.59
126.09
132.81
140.05
146.09
148.71
146.03
137.37
123.67
107.17
90.6
76.2
65.0
56.9
51.17
47.14
44.6
43.67
44.49
46.92
50.37
54.04
57.05
58.47
57.26
52.17
41.99
25.86
3.82
-23.05
-52.69
-82.46
-109.7
-132.28
-148.98
-159.5
-164.16
-163.4
-157.5
-146.49
-130.62
-110.8
-88.87
-67.27
-48.31
-33.37
-22.65
-15.45
-10.97
-8.87
-9.38
-12.91
-19.33
-27.73
-36.55
-44.19
-49.62
-52.83
-54.7
-56.5
-59.35
-63.65
-69.06
-74.63
-79.28
-82.14
-82.73
-80.85
-76.42
-69.49
-60.25
-49.3
-37.56
-26.16
-16.13
-8.15
-2.61
0.33
0.64
-1.5
-5.55
-10.52
-15.16
-18.38
-19.63
-19.15
-17.85
-16.81
-16.92
-18.63
-22.03
-27.0
-33.27
-40.34
-47.31
-52.9
-55.66
-54.45
-49.04
-40.32
-30.23
-21.07
-14.75
-12.13
-12.84
-15.69
-19.32
-22.7
-25.31
-26.79
-26.69
-24.31
-19.12
-11.49
-3.17
2.89
3.61
-2.88
-16.17
-33.69
-51.73
-66.76
-76.41
-79.61
-76.1
-66.09
-50.27
-30.15
-8.12
12.98
30.85
44.68
55.25
64.13
72.33
79.51
84.19
84.85
81.24
74.83
68.42
64.7
65.11
69.2
74.82
78.75
77.35
67.07
44.89
9.15
-39.38
-96.73
-155.72
-207.37
-243.44
-259.0
-253.85
-231.99
-199.75
-163.48
-128.18
-96.82
-70.72
-50.26
-35.48
-26.1
-21.49
-20.65
-22.34
-26.07
-31.24
-36.89
-41.63
-44.59
-45.78
-46.25
-47.41
-49.98
-54.64
-60.23
-63.94
-62.48
-54.0
-38.86
-19.35
1.32
20.43
33.96
39.55
37.15
28.78
16.9
3.81
-8.5
-18.3
-23.54
-25.24
-24.25
-20.78
-14.95
-8.74
-5.56
-8.9
-20.94
-24.0
-5.77
36.01
92.01
149.53
198.35
233.41
253.73
258.84
253.62
239.66
218.76
193.87
168.86
145.01
122.3
103.05
86.8
71.34
50.33
17.7
-29.31
-88.16
-153.45
-215.41
-263.05
-288.89
-290.63
-273.27
-245.22
-214.54
-172.63
-119.95
-63.84
-13.71
24.44
50.79
68.4
80.47
89.27
95.76
98.13
96.51
92.97
90.17
91.63
100.65
118.95
145.86
177.98
208.26
230.29
240.39
233.16
203.15
154.83
100.62
54.64
24.97
10.16
4.24
1.54
-0.78
-2.31
-0.98
3.63
9.7
14.47
15.6
13.07
8.6
4.52
2.84
4.9
10.1
16.45
21.67
24.25
24.32
23.17
22.36
23.12
26.31
31.53
37.4
42.28
45.14
45.78
44.65
42.34
39.13
35.3
30.66
24.63
16.71
6.77
-4.75
-17.07
-28.3
-38.12
-46.08
-52.0
-56.03
-58.41
-59.46
-59.42
-58.5
-56.89
-54.93
-52.78
-50.61
-48.56
-46.67
-44.97
-43.45
-42.09
-40.84
-39.79
-38.85
-38.09
-37.49
-37.06
-36.79
-36.66
-36.67
-36.81
-37.09
-37.42
-37.85
-38.24
-38.45
-38.18
-37.03
-34.68
-31.1
-25.96
-18.58
-8.81
3.33
17.55
33.24
49.61
65.54
79.78
91.17
98.81
101.87
100.09
93.58
82.82
68.69
52.12
34.18
16.07
-0.29
-14.35
-25.45
-33.31
-38.97
-42.11
-43.2
-43.02
-42.33
-41.73
-41.67
-42.19
-43.21
-44.56
-45.87
-47.04
-48.14
-48.96
-49.1
-48.11
-45.53
-41.2
-35.41
-28.59
-21.35
-14.66
-8.78
-3.02
3.79
12.99
25.35
40.72
58.21
76.34
92.78
106.16
116.33
124.09
130.35
135.52
139.16
140.35
138.07
130.16
115.37
93.4
64.66
30.01
-9.08
-50.48
-91.68
-121.14
-133.63
-130.63
-118.99
-106.87
-99.53
-97.52
-97.78
-96.29
-91.01
-84.17
-78.98
-76.97
-76.42
-73.28
-63.63
-46.19
-23.31
0.23
18.45
28.09
29.71
26.7
23.04
21.27
21.67
23.02
23.89
22.97
20.29
16.93
14.11
12.56
12.14
12.04
11.44
9.89
7.16
3.64
0.02
-3.12
-5.55
-7.57
-9.72
-12.49
-16.04
-20.3
-24.99
-29.67
-34.12
-38.29
-42.42
-46.88
-51.83
-57.31
-63.13
-69.09
-74.9
-80.35
-85.27
-89.51
-92.88
-95.38
-96.29
-95.05
-91.19
-84.44
-75.07
-63.03
-48.69
-32.54
-15.23
2.6
20.32
37.42
53.59
68.62
82.52
95.37
107.22
118.15
128.2
137.21
144.9
150.91
154.8
156.29
155.07
151.1
144.44
135.17
123.47
109.5
93.5
75.51
55.63
33.95
10.68
-13.85
-39.2
-64.75
-89.95
-113.41
-133.94
-150.49
-162.66
-170.08
-172.65
-170.63
-164.7
-155.76
-144.96
-133.64
-122.77
-113.24
-105.61
-100.22
-97.17
-96.36
-97.58
-100.57
-105.12
-110.68
-116.85
-123.18
-129.33
-135.03
-140.05
-144.19
-147.34
-149.52
-150.38
-149.74
-147.52
-143.71
-138.33
-131.31
-122.41
-111.05
-99.33
-88.2
-78.26
-69.81
-62.92
-57.58
-53.69
-51.06
-49.49
-48.86
-48.66
-48.49
-48.0
-46.94
-45.12
-42.41
-38.79
-34.38
-29.34
-23.62
-17.27
-10.42
-3.29
3.88
10.86
17.41
23.29
28.29
32.47
35.87
38.55
40.57
42.01
42.91
43.34
43.33
42.91
42.2
41.31
40.27
39.1
37.8
36.34
34.7
32.9
30.95
28.92
26.81
24.6
22.2
19.49
16.35
12.7
8.53
3.94
-0.94
-5.92
-10.86
-15.68
-20.32
-24.76
-28.86
-32.39
-35.0
-36.32
-36.08
-34.24
-31.01
-26.79
-22.02
-16.95
-11.53
-5.41
1.91
10.78
21.23
32.83
44.83
56.47
67.31
77.47
87.64
98.72
111.48
126.13
142.24
158.95
175.36
190.98
205.97
221.07
237.41
256.32
279.14
306.83
339.33
374.85
409.58
438.25
455.6
458.24
445.89
421.51
390.02
356.4
324.13
294.57
267.55
242.44
218.99
197.51
178.51
162.13
147.92
134.97
122.36
109.48
96.27
83.21
70.95
59.94
50.14
40.9
31.25
20.25
7.56
-6.34
-20.24
-32.77
-42.95
-50.6
-56.36
-61.2
-65.96
-70.9
-75.68
-79.69
-82.34
-83.4
-82.96
-81.25
-78.45
-74.65
-70.01
-64.96
-60.36
-57.24
-56.45
-58.11
-61.4
-64.68
-66.03
-64.07
-58.54
-50.52
-42.04
-35.32
-31.94
-32.28
-35.53
-40.09
-44.24
-46.79
-47.45
-46.86
-46.2
-46.67
-48.93
-52.98
-58.4
-64.73
-71.64
-79.04
-86.76
-94.6
-102.34
-110.1
-118.5
-128.35
-139.87
-151.85
-161.36
-164.48
-157.89
-140.61
-114.73
-84.77
-55.79
-31.45
-12.8
1.29
12.78
22.91
31.59
37.78
40.71
40.86
40.02
40.37
43.21
48.16
53.32
56.27
55.39
50.63
43.61
36.88
32.89
33.15
37.86
45.92
55.31
63.64
68.66
68.83
63.73
54.27
42.59
31.48
23.58
20.44
22.12
27.19
33.4
38.54
41.13
40.66
37.47
32.19
25.47
17.74
9.37
0.81
-7.35
-14.46
-20.05
-23.94
-26.23
-27.15
-26.98
-26.01
-24.47
-22.59
-20.35
-17.47
-13.42
-7.62
0.22
9.87
20.59
31.34
41.24
49.86
57.29
63.96
70.3
76.43
82.07
86.59
89.35
89.94
88.35
84.85
79.66
72.65
63.46
51.86
38.19
23.56
9.47
-2.87
-13.07
-21.66
-29.54
-37.28
-44.68
-50.95
-55.32
-57.66
-58.62
-59.13
-59.88
-60.91
-61.78
-62.06
-61.65
-60.8
-59.77
-58.54
-56.63
-53.49
-48.79
-42.72
-35.9
-29.11
-22.93
-17.64
-13.25
-9.6
-6.48
-3.66
-0.95
1.74
4.25
6.1
6.59
5.11
1.52
-3.62
-9.08
-13.29
-14.96
-13.58
-9.6
-4.26
0.93
4.74
6.52
6.19
3.96
0.08
-5.18
-11.44
-18.02
-23.94
-28.21
-30.24
-30.12
-28.47
-26.1
-23.45
-20.39
-16.37
-10.91
-4.1
3.24
9.83
14.46
16.48
15.99
13.56
9.92
5.69
1.46
-2.04
-3.95
-3.61
-1.15
2.15
4.15
2.7
-3.22
-12.81
-23.55
-32.29
-36.6
-35.75
-30.83
-24.02
-17.55
-12.96
-10.95
-11.71
-15.1
-20.58
-26.82
-31.5
-31.84
-25.8
-13.42
2.61
17.77
27.49
29.15
23.0
11.58
-1.86
-14.91
-26.76
-37.71
-48.26
-58.33
-67.22
-74.12
-78.8
-81.71
-83.64
-85.1
-85.98
-85.69
-83.73
-80.3
-76.49
-74.06
-74.71
-79.29
-87.25
-96.62
-104.51
-108.16
-105.81
-97.41
-84.49
-69.6
-55.26
-43.2
-33.89
-26.69
-20.39
-13.89
-6.66
1.19
9.11
16.48
22.91
28.22
32.27
34.8
35.46
34.06
30.9
26.98
23.82
22.9
25.06
30.2
37.32
45.01
52.03
57.69
61.93
65.01
67.22
68.72
69.5
69.54
69.02
68.44
68.54
70.08
73.45
78.3
83.33
86.51
85.67
79.21
66.73
49.13
28.36
6.82
-13.26
-30.14
-42.75
-50.59
-53.67
-52.55
-48.21
-41.93
-35.02
-28.55
-23.12
-18.81
-15.32
-12.21
-9.21
-6.24
-3.47
-1.1
0.75
2.14
3.28
4.4
5.75
7.53
9.92
13.03
16.75
20.61
23.75
25.14
24.01
20.18
14.2
7.1
-0.11
-6.78
-12.82
-18.46
-23.98
-29.46
-34.74
-39.61
-43.95
-47.96
-51.98
-56.4
-61.42
-66.97
-72.83
-78.75
-84.5
-89.84
-94.39
-97.5
-98.3
-95.99
-90.19
-81.31
-70.47
-59.19
-48.82
-40.11
-33.01
-26.96
-21.23
-15.29
-8.9
-1.99
5.39
13.22
21.36
29.46
36.94
43.18
47.73
50.54
52.0
52.74
53.33
54.08
54.92
55.55
55.63
54.97
53.63
51.79
49.63
47.26
44.65
41.79
38.81
36.0
33.79
32.54
32.37
33.15
34.6
36.47
38.67
41.26
44.32
47.77
51.34
54.6
57.1
58.47
58.59
57.48
55.37
52.58
49.54
46.7
44.44
43.0
42.4
42.47
43.0
43.83
44.94
46.42
48.41
50.92
53.79
56.68
59.08
60.34
59.75
56.6
50.37
40.95
28.79
14.81
0.16
-14.15
-27.51
-39.77
-50.94
-60.9
-69.14
-74.88
-77.36
-76.22
-71.75
-64.82
-56.62
-48.27
-40.51
-33.49
-26.84
-19.97
-12.46
-4.55
2.78
7.99
9.53
6.4
-1.45
-13.06
-26.84
-40.91
-53.59
-63.62
-70.27
-73.39
-73.48
-71.54
-68.86
-66.53
-65.01
-63.92
-62.15
-58.43
-52.07
-43.38
-33.7
-24.86
-18.32
-14.53
-12.86
-12.06
-11.05
-9.53
-8.13
-7.88
-9.54
-13.08
-17.63
-22.0
-25.19
-26.72
-26.45
-24.29
-20.25
-14.87
-9.7
-7.19
-9.7
-18.09
-30.73
-43.71
-52.45
-53.79
-47.49
-36.09
-23.36
-12.35
-4.08
2.29
8.21
14.49
20.73
25.81
28.85
29.91
29.99
30.46
32.37
35.97
40.75
45.84
50.55
54.6
58.15
61.57
65.14
68.86
72.43
75.29
76.87
76.82
75.08
71.91
67.74
62.91
57.54
51.55
44.72
36.96
28.33
19.06
9.38
-0.5
-10.39
-19.95
-28.68
-35.96
-41.25
-44.41
-45.79
-46.21
-46.55
-47.4
-48.7
-49.66
-48.98
-45.2
-37.1
-24.05
-6.19
15.44
38.84
61.26
79.66
91.41
95.15
91.53
83.33
74.77
70.15
72.13
80.63
92.8
104.18
110.6
109.84
102.27
90.29
76.96
64.58
54.04
45.08
37.1
29.91
23.84
19.22
15.89
13.16
10.32
7.13
3.64
-0.39
-6.0
-14.76
-27.59
-43.5
-59.31
-70.82
-74.96
-71.56
-63.5
-55.07
-49.6
-47.92
-48.58
-49.57
-49.96
-50.36
-51.76
-54.02
-55.06
-51.73
-41.59
-24.51
-3.04
18.64
36.52
48.35
53.85
54.12
50.35
43.13
32.51
18.67
2.6
-13.79
-28.14
-38.54
-44.09
-45.09
-42.54
-37.63
-31.3
-24.17
-16.77
-9.73
-3.79
0.42
2.7
3.37
3.26
3.35
4.5
7.19
11.44
16.82
22.59
27.84
31.77
33.87
34.08
32.81
30.73
28.38
25.96
23.22
19.63
14.68
8.12
0.13
-8.67
-17.36
-24.84
-30.11
-32.42
-31.49
-27.62
-21.61
-14.53
-7.36
-0.81
4.74
9.16
12.42
14.51
15.53
15.8
15.88
16.46
18.21
21.57
26.63
33.1
40.38
47.64
53.98
58.46
60.32
59.11
54.9
48.37
40.69
33.4
28.12
26.31
28.94
36.2
47.35
60.57
73.27
82.56
85.95
82.08
71.1
54.53
34.77
14.31
-4.99
-22.3
-37.77
-52.25
-66.81
-82.13
-98.05
-113.43
-126.36
-134.83
-137.49
-134.18
-126.03
-115.06
-103.46
-92.92
-84.37
-78.01
-73.62
-70.81
-69.09
-67.88
-66.4
-63.9
-59.82
-54.08
-47.12
-39.8
-33.0
-27.39
-23.22
-20.33
-18.27
-16.51
-14.64
-12.47
-10.04
-7.63
-5.62
-4.4
-4.24
-5.09
-6.7
-8.58
-10.31
-11.61
-12.44
-12.98
-13.49
-14.18
-15.15
-16.39
-17.73
-18.86
-19.38
-18.87
-16.98
-13.6
-8.94
-3.4
2.48
8.25
13.64
18.52
22.83
26.49
29.36
31.35
32.53
33.14
33.56
34.16
35.09
36.26
37.4
38.19
38.44
38.19
37.61
36.91
36.18
35.28
33.94
31.84
28.79
24.8
20.09
15.06
10.2
6.06
3.16
1.88
2.31
4.11
6.59
8.91
10.46
11.06
11.05
11.09
11.7
13.03
14.79
16.41
17.4
17.55
16.95
15.92
14.74
13.53
12.16
10.32
7.7
4.16
-0.17
-4.91
-9.53
-13.62
-17.02
-19.92
-22.72
-25.86
-29.52
-33.59
-37.63
-41.16
-43.83
-45.57
-46.56
-47.05
-47.21
-47.02
-46.34
-45.08
-43.34
-41.49
-40.03
-39.47
-40.03
-41.54
-43.47
-45.01
-45.33
-43.74
-39.9
-33.87
-26.11
-17.35
-8.41
-0.02
7.29
13.27
17.89
21.31
23.77
25.48
26.59
27.07
26.76
25.5
23.19
19.95
16.07
12.0
8.13
4.82
2.26
0.53
-0.47
-0.93
-1.21
-1.68
-2.7
-4.44
-6.87
-9.71
-12.62
-15.27
-17.51
-19.4
-21.14
-23.09
-25.57
-28.77
-32.62
-36.68
-40.23
-42.41
-42.5
-40.15
-35.41
-28.73
-20.8
-12.35
-4.09
3.42
9.79
14.88
18.75
21.67
23.97
25.91
27.52
28.69
29.21
28.93
27.9
26.33
24.57
22.92
21.57
20.57
19.84
19.15
18.2
16.66
14.24
10.74
6.2
0.91
-4.54
-9.5
-13.42
-16.1
-17.75
-18.93
-20.21
-21.95
-24.04
-25.92
-26.8
-25.9
-22.78
-17.49
-10.47
-2.46
5.79
13.63
20.66
26.74
31.88
36.23
39.96
43.24
46.23
49.05
51.81
54.57
57.34
60.09
62.73
65.22
67.63
70.17
73.17
76.94
81.52
86.55
91.26
94.67
95.87
94.29
89.72
82.29
72.23
59.73
44.96
28.06
9.37
-10.52
-30.77
-50.38
-68.32
-83.75
-96.13
-105.33
-111.54
-115.06
-116.11
-114.73
-110.81
-104.29
-95.35
-84.46
-72.29
-59.56
-46.89
-34.84
-23.89
-14.52
-7.07
-1.7
1.75
3.73
4.69
5.02
4.86
4.17
2.93
1.28
-0.47
-1.86
-2.48
-2.07
-0.59
1.73
4.42
6.81
8.01
7.18
3.74
-2.33
-10.39
-19.18
-27.2
-33.1
-36.08
-36.0
-33.35
-28.99
-23.93
-19.18
-15.57
-13.71
-13.81
-15.6
-18.26
-20.63
-21.52
-20.1
-16.19
-10.24
-3.18
3.99
10.45
15.76
19.81
22.73
24.72
25.97
26.63
26.77
26.47
25.8
24.9
23.91
22.93
22.05
21.25
20.51
19.81
19.14
18.53
17.98
17.4
16.56
15.17
12.98
9.9
6.04
1.73
-2.61
-6.63
-10.1
-12.96
-15.29
-17.27
-19.13
-21.15
-23.61
-26.66
-30.27
-34.03
-37.32
-39.33
-39.45
-37.35
-33.11
-27.13
-20.06
-12.58
-5.32
1.26
6.9
11.55
15.27
18.16
20.32
21.81
22.66
22.94
22.71
22.03
20.95
19.49
17.73
15.85
14.1
12.71
11.81
11.29
10.86
10.1
8.67
6.43
3.61
0.67
-1.86
-3.64
-4.75
-5.6
-6.75
-8.69
-11.55
-15.16
-19.1
-22.88
-25.99
-27.94
-28.33
-26.94
-23.83
-19.39
-14.29
-9.21
-4.64
-0.72
2.65
5.69
8.52
11.15
13.5
15.48
17.09
18.35
19.29
19.92
20.26
20.35
20.31
20.29
20.37
20.53
20.58
20.3
19.51
18.16
16.27
13.94
11.26
8.34
5.29
2.32
-0.35
-2.48
-3.99
-5.0
-5.82
-6.84
-8.48
-11.0
-14.45
-18.55
-22.74
-26.2
-28.05
-27.63
-24.67
-19.48
-12.8
-5.55
1.42
7.59
12.72
16.8
19.9
22.06
23.33
23.79
23.6
22.96
22.05
21.01
19.91
18.83
17.87
17.11
16.6
16.31
16.1
15.79
15.21
14.27
12.94
11.28
9.38
7.33
5.2
3.04
0.85
-1.32
-3.38
-5.21
-6.68
-7.74
-8.48
-9.16
-10.1
-11.66
-14.05
-17.34
-21.37
-25.77
-29.92
-33.08
-34.5
-33.61
-30.22
-24.58
-17.35
-9.42
-1.57
5.58
11.73
16.81
20.83
23.84
25.93
27.18
27.74
27.79
27.5
27.0
26.36
25.62
24.82
23.99
23.15
22.31
21.45
20.56
19.62
18.62
17.53
16.32
14.91
13.26
11.36
9.29
7.18
5.14
3.28
1.62
0.12
-1.34
-2.88
-4.59
-6.51
-8.61
-10.8
-12.92
-14.86
-16.53
-17.96
-19.3
-20.75
-22.57
-24.94
-27.77
-30.66
-32.91
-33.67
-32.19
-28.11
-21.65
-13.53
-4.82
3.39
10.37
15.79
19.76
22.58
24.59
26.0
26.9
27.35
27.51
27.64
28.06
29.02
30.53
32.35
34.13
35.55
36.53
37.19
37.7
38.15
38.45
38.44
38.02
37.32
36.63
36.12
35.69
34.84
32.85
29.11
23.45
16.24
8.22
0.24
-7.1
-13.56
-19.2
-24.27
-28.98
-33.42
-37.57
-41.31
-44.52
-47.05
-48.78
-49.51
-48.95
-46.76
-42.66
-36.57
-28.69
-19.49
-9.51
0.81
11.15
21.15
30.23
37.33
41.14
40.47
34.84
24.84
12.04
-1.47
-13.77
-23.6
-30.58
-34.9
-37.02
-37.35
-36.19
-33.84
-30.78
-27.58
-24.77
-22.64
-21.1
-19.8
-18.33
-16.52
-14.51
-12.7
-11.49
-11.05
-11.27
-11.83
-12.46
-13.11
-13.97
-15.41
-17.66
-20.73
-24.28
-27.81
-30.75
-32.63
-33.14
-32.1
-29.46
-25.32
-20.0
-14.05
-8.16
-2.96
1.2
4.34
6.81
9.01
11.17
13.26
15.0
16.11
16.51
16.35
15.93
15.48
15.04
14.44
13.48
12.01
10.08
7.89
5.73
3.83
2.32
1.14
0.15
-0.84
-1.96
-3.24
-4.6
-5.86
-6.84
-7.41
-7.53
-7.27
-6.8
-6.39
-6.34
-7.01
-8.62
-11.21
-14.52
-18.0
-20.92
-22.57
-22.44
-20.37
-16.62
-11.76
-6.49
-1.5
2.72
5.92
8.11
9.45
10.16
10.45
10.5
10.44
10.33
10.16
9.88
9.45
8.89
8.26
7.72
7.4
7.35
7.56
7.96
8.4
8.78
9.02
9.13
9.1
8.94
8.56
7.78
6.39
4.27
1.46
-1.74
-4.91
-7.67
-9.87
-11.7
-13.54
-15.84
-18.81
-22.29
-25.8
-28.64
-30.08
-29.57
-26.84
-22.01
-15.56
-8.21
-0.77
6.08
11.86
16.42
19.81
22.22
23.87
24.89
25.33
25.17
24.37
22.96
21.07
18.91
16.8
14.98
13.61
12.65
11.93
11.24
10.37
9.27
7.95
6.49
4.94
3.27
1.43
-0.59
-2.72
-4.83
-6.72
-8.22
-9.25
-9.89
-10.32
-10.77
-11.46
-12.5
-13.96
-15.85
-18.18
-20.96
-24.08
-27.3
-30.15
-32.06
-32.48
-31.14
-28.08
-23.69
-18.53
-13.14
-7.93
-3.13
1.13
4.77
7.74
10.12
12.09
13.96
16.08
18.61
21.49
24.42
26.92
28.55
28.98
28.1
26.04
23.14
19.88
16.8
14.33
12.56
11.27
9.94
8.01
5.17
1.52
-2.49
-6.3
-9.53
-12.18
-14.57
-17.16
-20.27
-23.92
-27.82
-31.53
-34.62
-36.81
-38.02
-38.28
-37.63
-35.98
-33.18
-29.07
-23.66
-17.18
-10.12
-3.07
3.38
8.77
12.82
15.41
16.61
16.58
15.62
14.11
12.42
10.87
9.66
8.88
8.51
8.5
8.83
9.45
10.36
11.51
12.84
14.22
15.5
16.49
16.99
16.89
16.11
14.71
12.8
10.55
8.11
5.58
2.94
0.05
-3.25
-7.12
-11.48
-16.02
-20.12
-23.09
-24.34
-23.6
-21.02
-17.07
-12.39
-7.59
-3.16
0.57
3.44
5.46
6.73
7.47
7.98
8.51
9.16
9.91
10.56
10.87
10.67
9.93
8.85
7.81
7.25
7.46
8.42
9.72
10.66
10.54
8.91
5.87
1.94
-2.07
-5.47
-7.95
-9.59
-10.83
-12.16
-13.93
-16.15
-18.56
-20.71
-22.08
-22.24
-20.95
-18.15
-13.97
-8.76
-2.97
2.85
8.23
12.81
16.44
19.14
21.04
22.29
22.93
22.97
22.38
21.2
19.53
17.54
15.41
13.26
11.22
9.39
7.89
6.8
6.13
5.75
5.43
4.9
3.94
2.45
0.47
-1.86
-4.32
-6.72
-8.92
-10.89
-12.76
-14.69
-16.85
-19.25
-21.68
-23.72
-24.83
-24.59
-22.83
-19.68
-15.53
-10.87
-6.15
-1.69
2.35
5.89
8.9
11.34
13.19
14.46
15.21
15.59
15.75
15.81
15.81
15.72
15.45
14.95
14.27
13.57
13.07
12.91
13.14
13.63
14.12
14.31
13.98
13.0
11.35
9.14
6.49
3.56
0.47
-2.67
-5.77
-8.81
-11.75
-14.64
-17.58
-20.69
-24.05
-27.56
-30.86
-33.4
-34.54
-33.8
-31.07
-26.7
-21.29
-15.54
-9.98
-4.86
-0.24
3.92
7.65
10.88
13.59
15.73
17.4
18.67
19.61
20.24
20.54
20.47
20.05
19.3
18.31
17.13
15.86
14.6
13.42
12.4
11.59
10.97
10.46
9.98
9.41
8.69
7.84
6.92
6.04
5.31
4.79
4.43
4.15
3.79
3.24
2.41
1.31
-0.01
-1.49
-3.15
-5.07
-7.41
-10.36
-13.99
-18.21
-22.64
-26.74
-29.82
-31.31
-30.82
-28.34
-24.15
-18.83
-13.06
-7.54
-2.78
0.96
3.68
5.58
6.93
7.96
8.8
9.53
10.21
10.9
11.69
12.62
13.6
14.5
15.12
15.33
15.09
14.49
13.66
12.74
11.82
10.92
10.02
9.1
8.1
6.98
5.75
4.46
3.21
2.13
1.28
0.62
0.03
-0.67
-1.6
-2.7
-3.77
-4.51
-4.77
-4.6
-4.31
-4.37
-5.16
-6.84
-9.25
-12.01
-14.6
-16.53
-17.44
-17.13
-15.61
-13.01
-9.65
-5.89
-2.1
1.43
4.52
7.09
9.17
10.78
11.89
12.47
12.42
11.74
10.5
8.93
7.35
6.07
5.34
5.17
5.5
6.14
6.95
7.83
8.72
9.53
10.11
10.3
9.95
9.02
7.55
5.71
3.66
1.54
-0.55
-2.57
-4.49
-6.31
-7.99
-9.52
-10.86
-12.04
-13.09
-14.04
-14.94
-15.75
-16.42
-16.91
-17.22
-17.47
-17.77
-18.21
-18.68
-18.92
-18.52
-17.09
-14.43
-10.64
-6.08
-1.28
3.26
7.15
10.17
12.29
13.57
14.15
14.2
13.94
13.55
13.2
12.94
12.71
12.41
11.94
11.26
10.44
9.57
8.74
7.98
7.25
6.54
5.89
5.35
5.0
4.8
4.63
4.29
3.64
2.66
1.45
0.23
-0.86
-1.8
-2.7
-3.77
-5.13
-6.79
-8.58
-10.25
-11.61
-12.61
-13.42
-14.36
-15.72
-17.64
-19.98
-22.3
-23.98
-24.42
-23.21
-20.35
-16.13
-11.13
-5.97
-1.13
3.14
6.78
9.87
12.49
14.64
16.31
17.45
18.02
18.04
17.53
16.53
15.14
13.5
11.81
10.27
8.96
7.89
6.99
6.17
5.41
4.74
4.22
3.84
3.51
3.12
2.54
1.72
0.68
-0.52
-1.8
-3.11
-4.44
-5.79
-7.18
-8.61
-10.14
-11.8
-13.72
-16.03
-18.83
-22.06
-25.46
-28.56
-30.75
-31.5
-30.53
-27.91
-24.07
-19.57
-15.01
-10.75
-6.94
-3.53
-0.41
2.51
5.24
7.72
9.91
11.74
13.23
14.39
15.24
15.79
16.07
16.11
16.05
16.0
16.05
16.19
16.25
16.04
15.36
14.16
12.53
10.64
8.67
6.62
4.43
1.99
-0.73
-3.54
-6.18
-8.36
-9.94
-11.03
-11.92
-12.99
-14.51
-16.63
-19.3
-22.32
-25.42
-28.17
-30.11
-30.7
-29.53
-26.49
-21.83
-16.15
-10.22
-4.8
-0.33
3.02
5.4
7.12
8.47
9.65
10.75
11.79
12.74
13.6
14.39
15.18
16.03
16.94
17.85
18.66
19.33
19.88
20.41
20.95
21.44
21.65
21.32
20.27
18.49
16.18
13.6
10.99
8.45
6.0
3.6
1.27
-0.96
-3.06
-5.13
-7.33
-9.91
-13.09
-17.01
-21.62
-26.69
-31.76
-36.25
-39.5
-40.95
-40.23
-37.34
-32.62
-26.73
-20.48
-14.59
-9.55
-5.48
-2.26
0.39
2.64
4.52
5.91
6.65
6.72
6.26
5.56
4.93
4.55
4.46
4.59
4.83
5.09
5.39
5.77
6.25
6.79
7.24
7.41
7.12
6.28
4.93
3.29
1.59
0.07
-1.16
-2.13
-2.97
-3.85
-4.9
-6.19
-7.74
-9.55
-11.62
-13.97
-16.54
-19.14
-21.39
-22.84
-23.06
-21.78
-19.04
-15.14
-10.59
-5.89
-1.46
2.46
5.78
8.55
10.83
12.68
14.12
15.17
15.77
15.91
15.54
14.72
13.51
12.01
10.32
8.56
6.86
5.33
4.09
3.21
2.67
2.36
2.1
1.69
0.96
-0.14
-1.58
-3.21
-4.91
-6.56
-8.14
-9.75
-11.56
-13.75
-16.47
-19.74
-23.37
-26.99
-30.09
-32.07
-32.44
-30.91
-27.51
-22.54
-16.53
-10.08
-3.76
2.07
7.19
11.52
15.06
17.8
19.73
20.87
21.31
21.25
20.93
20.56
20.19
19.71
18.92
17.65
15.93
14.01
12.23
10.88
9.96
9.21
8.18
6.52
4.1
1.13
-2.01
-4.92
-7.39
-9.48
-11.41
-13.5
-15.98
-18.95
-22.33
-25.87
-29.13
-31.54
-32.45
-31.31
-27.9
-22.43
-15.49
-7.99
-0.8
5.43
10.43
14.26
17.22
19.59
21.55
23.13
24.32
25.17
25.81
26.43
27.18
28.09
29.14
30.23
31.31
32.42
33.61
34.9
36.22
37.4
38.25
38.61
38.45
37.87
37.02
36.04
34.89
33.25
30.55
26.14
19.48
10.31
-1.19
-14.52
-28.91
-43.36
-56.74
-67.81
-75.39
-78.67
-77.45
-72.28
-64.29
-54.86
-45.25
-36.28
-28.3
-21.33
-15.23
-9.91
-5.34
-1.54
1.51
3.95
5.97
7.75
9.35
10.69
11.61
11.92
11.63
10.94
10.2
9.78
9.84
10.32
10.92
11.28
11.08
10.2
8.62
6.48
3.98
1.35
-1.19
-3.48
-5.51
-7.42
-9.49
-12.03
-15.28
-19.24
-23.65
-27.97
-31.49
-33.46
-33.33
-30.87
-26.33
-20.28
-13.53
-6.85
-0.81
4.3
8.47
11.84
14.62
17.03
19.24
21.3
23.17
24.73
25.81
26.3
26.22
25.69
24.92
24.14
23.53
23.25
23.45
24.21
25.44
26.82
27.83
27.96
26.9
24.74
21.93
19.06
16.56
14.5
12.62
10.51
7.86
4.63
1.08
-2.47
-5.74
-8.6
-11.06
-13.19
-15.09
-16.87
-18.7
-20.83
-23.39
-26.33
-29.25
-31.44
-31.99
-30.17
-25.63
-18.59
-9.82
-0.41
8.52
16.06
21.67
25.18
26.69
26.51
25.02
22.66
19.89
17.19
15.0
13.59
13.05
13.25
13.88
14.65
15.34
15.89
16.34
16.76
17.09
17.17
16.84
15.96
14.62
12.98
11.28
9.61
7.98
6.24
4.3
2.13
-0.15
-2.38
-4.46
-6.41
-8.39
-10.57
-13.11
-16.1
-19.56
-23.51
-27.98
-32.9
-38.08
-43.14
-47.53
-50.61
-51.85
-50.9
-47.68
-42.41
-35.56
-27.72
-19.52
-11.48
-3.95
2.93
9.11
14.54
19.13
22.75
25.33
26.93
27.77
28.14
28.33
28.48
28.57
28.54
28.37
28.1
27.84
27.64
27.46
27.15
26.52
25.44
23.87
21.97
19.9
17.84
15.77
13.56
10.95
7.76
3.97
-0.21
-4.4
-8.21
-11.4
-14.0
-16.28
-18.65
-21.5
-25.07
-29.27
-33.68
-37.61
-40.26
-40.86
-39.01
-34.73
-28.54
-21.3
-13.94
-7.23
-1.55
3.01
6.62
9.48
11.73
13.43
14.65
15.47
16.02
16.55
17.26
18.36
19.97
22.06
24.51
27.14
29.82
32.48
35.16
37.87
40.56
43.03
44.98
46.1
46.23
45.45
43.99
42.17
40.16
37.95
35.35
32.17
28.35
23.98
19.39
14.91
10.82
7.23
4.14
1.47
-0.75
-2.42
-3.41
-3.63
-3.09
-1.93
-0.36
1.36
2.92
4.08
4.67
4.71
4.36
3.86
3.34
2.81
2.09
0.97
-0.66
-2.73
-5.0
-7.19
-9.16
-10.91
-12.59
-14.33
-16.17
-17.98
-19.58
-20.81
-21.62
-22.12
-22.5
-22.99
-23.73
-24.77
-26.05
-27.53
-29.15
-30.91
-32.79
-34.69
-36.48
-38.01
-39.27
-40.4
-41.7
-43.47
-45.84
-48.62
-51.31
-53.2
-53.59
-51.95
-48.1
-42.26
-35.0
-27.08
-19.33
-12.38
-6.58
-1.95
1.78
4.87
7.53
9.8
11.61
12.93
13.83
14.5
15.14
15.84
16.54
17.08
17.32
17.24
16.92
16.5
16.11
15.77
15.45
15.03
14.42
13.5
12.17
10.39
8.18
5.67
3.06
0.55
-1.77
-3.87
-5.89
-7.98
-10.3
-13.01
-16.2
-19.86
-23.8
-27.55
-30.45
-31.76
-30.94
-27.79
-22.6
-16.01
-8.82
-1.76
4.63
10.09
14.58
18.21
21.17
23.62
25.67
27.29
28.39
28.85
28.66
27.97
27.02
26.09
25.33
24.72
24.14
23.44
22.54
21.45
20.19
18.8
17.2
15.3
13.02
10.4
7.53
4.6
1.75
-0.86
-3.16
-5.09
-6.66
-7.96
-9.18
-10.57
-12.43
-14.95
-18.16
-21.88
-25.75
-29.26
-31.79
-32.76
-31.71
-28.46
-23.22
-16.59
-9.42
-2.55
3.43
8.28
12.05
14.97
17.24
18.94
20.08
20.57
20.41
19.67
18.49
17.1
15.74
14.6
13.79
13.3
13.01
12.76
12.38
11.77
10.92
9.84
8.63
7.32
5.92
4.42
2.8
1.09
-0.66
-2.35
-3.98
-5.61
-7.37
-9.39
-11.75
-14.44
-17.39
-20.57
-24.02
-27.71
-31.47
-34.81
-36.99
-37.2
-34.9
-30.04
-23.15
-15.17
-7.18
-0.01
5.83
10.29
13.53
15.85
17.49
18.58
19.18
19.3
19.0
18.4
17.65
16.9
16.21
15.59
14.98
14.32
13.58
12.82
12.04
11.25
10.38
9.33
8.08
6.67
5.25
3.88
2.57
1.16
-0.49
-2.48
-4.72
-7.0
-9.06
-10.81
-12.32
-13.84
-15.65
-17.95
-20.76
-23.88
-26.93
-29.32
-30.41
-29.6
-26.53
-21.21
-14.13
-6.1
1.94
9.14
14.99
19.35
22.32
24.15
25.05
25.19
24.69
23.67
22.33
20.87
19.46
18.21
17.12
16.12
15.12
14.04
12.86
11.52
10.05
8.44
6.75
5.03
3.29
1.45
-0.66
-3.17
-6.1
-9.33
-12.6
-15.66
-18.39
-20.84
-23.14
-25.44
-27.83
-30.34
-32.91
-35.52
-38.03
-40.2
-41.57
-41.59
-39.76
-35.84
-30.03
-22.98
-15.54
-8.52
-2.44
2.57
6.67
10.15
13.16
15.7
17.59
18.68
18.96
18.62
17.96
17.32
16.87
16.63
16.51
16.42
16.27
16.04
15.67
15.12
14.32
13.22
11.8
10.11
8.17
6.03
3.69
1.17
-1.44
-4.04
-6.49
-8.69
-10.66
-12.48
-14.33
-16.4
-18.83
-21.64
-24.64
-27.39
-29.24
-29.53
-27.81
-24.03
-18.56
-12.1
-5.46
0.7
5.94
10.09
13.18
15.34
16.7
17.4
17.58
17.37
16.93
16.41
15.91
15.5
15.11
14.64
13.97
13.06
12.02
11.0
10.21
9.68
9.29
8.81
7.96
6.58
4.64
2.25
-0.38
-3.01
-5.43
-7.48
-9.11
-10.41
-11.62
-13.03
-14.89
-17.32
-20.28
-23.5
-26.61
-29.1
-30.49
-30.33
-28.39
-24.67
-19.47
-13.3
-6.76
-0.44
5.28
10.12
13.97
16.72
18.31
18.72
18.04
16.51
14.5
12.5
10.94
10.05
9.85
10.13
10.55
10.81
10.69
10.15
9.22
8.01
6.63
5.17
3.68
2.14
0.52
-1.25
-3.16
-5.09
-6.86
-8.31
-9.41
-10.35
-11.43
-12.95
-15.09
-17.81
-20.87
-23.92
-26.48
-28.1
-28.3
-26.77
-23.39
-18.39
-12.26
-5.72
0.51
5.84
9.92
12.68
14.25
14.84
14.69
14.03
13.1
12.12
11.3
10.81
10.69
10.85
11.09
11.2
11.03
10.59
10.03
9.54
9.28
9.25
9.31
9.23
8.79
7.84
6.42
4.7
2.92
1.32
0.07
-0.82
-1.44
-1.96
-2.63
-3.73
-5.46
-7.87
-10.74
-13.6
-15.77
-16.63
-15.76
-13.14
-9.09
-4.2
0.87
5.59
9.57
12.59
14.63
15.76
16.17
16.08
15.67
15.12
14.54
14.03
13.66
13.46
13.41
13.38
13.24
12.86
12.25
11.47
10.64
9.8
8.89
7.77
6.31
4.46
2.31
0.01
-2.28
-4.47
-6.54
-8.51
-10.49
-12.6
-15.0
-17.84
-21.2
-25.01
-28.99
-32.72
-35.64
-37.27
-37.31
-35.78
-32.96
-29.26
-25.13
-20.95
-17.05
-13.75
-11.35
-10.02
-9.72
-10.08
-10.51
-10.45
-9.65
-8.35
-7.11
-6.42
-6.27
-6.03
-4.56
-0.8
5.78
14.8
25.08
34.94
42.75
47.28
48.05
45.39
40.4
34.66
29.81
26.96
26.24
26.56
25.92
22.02
13.14
-1.14
-19.6
-39.5
-57.31
-69.75
-74.71
-71.85
-62.56
-49.39
-35.04
-21.67
-10.49
-1.84
4.36
8.34
10.32
10.65
9.94
9.04
8.79
9.7
11.66
13.94
15.52
15.44
13.25
9.24
4.29
-0.45
-4.01
-5.95
-6.42
-6.01
-5.41
-5.1
-5.22
-5.63
-5.99
-6.05
-5.73
-5.19
-4.82
-5.08
-6.35
-8.74
-12.04
-15.65
-18.76
-20.59
-20.63
-18.8
-15.42
-10.98
-6.0
-0.77
4.63
10.25
16.07
21.89
27.33
31.92
35.26
37.12
37.45
36.32
33.88
30.4
26.32
22.27
18.92
16.81
16.2
17.0
18.86
21.36
24.1
26.73
28.98
30.53
31.11
30.58
28.97
26.46
23.29
19.62
15.45
10.66
5.11
-1.2
-8.01
-14.76
-20.65
-24.85
-26.7
-25.97
-22.93
-18.31
-13.01
-7.84
-3.29
0.51
3.66
6.28
8.4
9.95
10.85
11.12
10.87
10.23
9.29
7.96
6.1
3.6
0.5
-2.98
-6.51
-9.86
-12.99
-16.1
-19.52
-23.59
-28.49
-34.2
-40.48
-46.96
-53.22
-58.94
-63.95
-68.27
-72.1
-75.72
-79.33
-82.93
-86.21
-88.6
-89.44
-88.2
-84.69
-79.17
-72.22
-64.49
-56.46
-48.26
-39.75
-30.71
-21.0
-10.75
-0.26
10.06
19.8
28.57
36.0
41.77
45.74
48.0
48.94
49.08
48.91
48.71
48.49
48.11
47.4
46.23
44.51
42.22
39.42
36.26
33.05
30.13
27.77
25.97
24.5
22.89
20.62
17.29
12.8
7.38
1.64
-3.54
-7.18
-8.53
-7.29
-3.86
0.85
5.62
9.4
11.54
11.91
10.77
8.5
5.47
1.96
-1.79
-5.45
-8.68
-11.18
-12.85
-13.85
-14.52
-15.09
-15.4
-14.78
-12.3
-7.25
0.33
9.42
18.28
25.01
28.28
27.81
24.23
18.74
12.46
6.15
0.11
-5.61
-11.06
-16.23
-21.1
-25.55
-29.3
-31.77
-32.16
-29.66
-23.83
-14.87
-3.65
8.55
20.53
31.63
41.89
51.93
62.51
74.18
86.84
99.6
110.87
118.68
121.17
117.14
106.46
90.24
70.58
49.91
30.25
12.62
-3.04
-17.4
-30.98
-43.6
-54.36
-62.09
-66.16
-66.87
-65.38
-63.18
-61.31
-60.07
-59.12
-58.03
-56.75
-55.8
-55.82
-57.11
-59.18
-60.8
-60.45
-56.97
-50.04
-40.32
-29.22
-18.31
-8.8
-1.19
4.69
9.39
13.43
17.02
19.98
21.96
22.69
22.19
20.8
19.05
17.37
15.97
14.77
13.57
12.23
10.78
9.42
8.37
7.65
7.06
6.21
4.76
2.6
-0.07
-2.83
-5.24
-7.05
-8.34
-9.48
-10.99
-13.32
-16.71
-21.05
-25.87
-30.34
-33.47
-34.31
-32.28
-27.34
-20.03
-11.29
-2.2
6.36
13.86
20.16
25.35
29.55
32.78
34.99
36.11
36.23
35.6
34.6
33.62
32.89
32.41
31.96
31.27
30.14
28.51
26.51
24.3
22.0
19.57
16.84
13.58
9.63
5.05
0.13
-4.64
-8.81
-12.14
-14.74
-17.01
-19.51
-22.74
-26.91
-31.89
-37.19
-42.1
-45.76
-47.32
-46.13
-41.9
-34.87
-25.78
-15.74
-5.91
2.78
9.87
15.31
19.34
22.26
24.31
25.62
26.3
26.49
26.39
26.22
26.11
26.09
26.05
25.82
25.28
24.41
23.31
22.2
21.27
20.62
20.12
19.49
18.39
16.54
13.82
10.36
6.42
2.31
-1.76
-5.62
-9.24
-12.64
-15.88
-19.09
-22.42
-25.99
-29.81
-33.64
-37.05
-39.43
-40.15
-38.72
-34.99
-29.12
-21.62
-13.22
-4.68
3.35
10.41
16.21
20.68
23.79
25.58
26.17
25.76
24.73
23.49
22.47
21.91
21.82
21.98
22.08
21.9
21.4
20.68
19.89
19.06
18.07
16.72
14.78
12.21
9.09
5.65
2.11
-1.36
-4.68
-7.79
-10.68
-13.35
-15.94
-18.68
-21.89
-25.78
-30.22
-34.73
-38.45
-40.48
-40.11
-37.14
-31.94
-25.27
-18.03
-10.96
-4.53
1.1
5.89
9.85
12.99
15.3
16.82
17.66
17.97
17.85
17.36
16.53
15.39
14.08
12.82
11.88
11.46
11.6
12.15
12.85
13.34
13.34
12.64
11.21
9.13
6.56
3.7
0.69
-2.4
-5.63
-9.15
-13.11
-17.62
-22.55
-27.59
-32.17
-35.64
-37.35
-36.84
-33.95
-28.91
-22.28
-14.89
-7.63
-1.21
3.93
7.71
10.36
12.18
13.43
14.24
14.64
14.62
14.24
13.62
12.96
12.4
12.03
11.84
11.79
11.89
12.12
12.5
12.93
13.24
13.16
12.41
10.85
8.52
5.67
2.68
-0.11
-2.52
-4.65
-6.82
-9.45
-12.81
-16.94
-21.56
-26.16
-30.12
-32.84
-33.85
-32.84
-29.78
-24.86
-18.58
-11.59
-4.55
2.02
7.87
12.92
17.22
20.72
23.29
24.75
25.03
24.24
22.72
20.86
19.02
17.38
15.98
14.76
13.66
12.69
11.9
11.32
10.88
10.39
9.58
8.21
6.2
3.67
0.93
-1.65
-3.8
-5.48
-6.84
-8.2
-9.87
-12.1
-15.01
-18.63
-22.78
-27.09
-30.98
-33.65
-34.39
-32.74
-28.73
-22.92
-16.17
-9.42
-3.32
1.82
6.08
9.65
12.72
15.35
17.49
19.03
19.91
20.15
19.88
19.25
18.52
17.88
17.48
17.36
17.4
17.39
17.13
16.48
15.44
14.09
12.52
10.8
8.94
6.92
4.81
2.69
0.64
-1.31
-3.24
-5.25
-7.36
-9.55
-11.73
-13.81
-15.83
-17.91
-20.18
-22.72
-25.41
-27.85
-29.45
-29.53
-27.51
-23.17
-16.71
-8.85
-0.56
7.13
13.46
18.11
21.21
23.1
24.17
24.67
24.7
24.23
23.27
21.92
20.33
18.72
17.24
15.93
14.76
13.64
12.54
11.46
10.48
9.67
9.06
8.55
7.96
7.07
5.71
3.81
1.43
-1.3
-4.24
-7.2
-10.05
-12.67
-15.02
-17.14
-19.14
-21.19
-23.46
-26.08
-29.13
-32.51
-35.93
-38.77
-40.26
-39.62
-36.36
-30.51
-22.62
-13.62
-4.54
3.77
10.79
16.31
20.32
22.95
24.36
24.73
24.31
23.36
22.14
20.87
19.64
18.49
17.36
16.2
15.01
13.86
12.89
12.22
11.87
11.67
11.29
10.38
8.67
6.12
2.96
-0.41
-3.53
-6.06
-7.96
-9.46
-11.01
-13.09
-16.07
-19.99
-24.6
-29.35
-33.49
-36.27
-37.05
-35.45
-31.49
-25.57
-18.38
-10.75
-3.42
3.07
8.48
12.8
16.13
18.62
20.45
21.72
22.54
22.98
23.12
23.0
22.65
22.11
21.41
20.6
19.75
18.91
18.15
17.46
16.74
15.8
14.43
12.46
9.85
6.76
3.46
0.27
-2.62
-5.18
-7.56
-10.05
-12.99
-16.63
-21.06
-26.05
-31.09
-35.37
-38.02
-38.31
-35.92
-31.07
-24.46
-17.07
-9.84
-3.4
1.95
6.29
9.79
12.64
14.92
16.63
17.78
18.41
18.62
18.55
18.3
17.97
17.6
17.24
16.93
16.7
16.6
16.67
16.95
17.42
17.95
18.25
17.95
16.7
14.33
10.96
6.98
2.89
-0.85
-4.0
-6.6
-8.96
-11.49
-14.59
-18.48
-23.09
-27.99
-32.47
-35.62
-36.6
-34.91
-30.56
-24.11
-16.49
-8.71
-1.61
4.4
9.25
13.12
16.26
18.82
20.83
22.27
23.18
23.63
23.75
23.59
23.17
22.45
21.44
20.27
19.13
18.24
17.76
17.66
17.79
17.89
17.67
16.94
15.66
13.95
12.05
10.26
8.82
7.79
7.07
6.41
5.56
4.36
2.78
0.9
-1.21
-3.53
-6.13
-9.13
-12.65
-16.74
-21.42
-26.54
-31.73
-36.39
-39.7
-40.86
-39.35
-35.14
-28.76
-21.1
-13.16
-5.8
0.46
5.43
9.12
11.69
13.35
14.31
14.83
15.13
15.31
15.37
15.22
14.77
14.05
13.19
12.41
11.84
11.51
11.27
10.94
10.36
9.53
8.52
7.43
6.3
5.04
3.58
1.9
0.08
-1.71
-3.28
-4.53
-5.49
-6.28
-7.1
-8.12
-9.5
-11.34
-13.76
-16.89
-20.73
-25.13
-29.62
-33.49
-35.89
-36.16
-34.0
-29.65
-23.77
-17.2
-10.7
-4.74
0.5
4.99
8.77
11.86
14.22
15.86
16.85
17.29
17.3
17.01
16.48
15.84
15.22
14.82
14.79
15.2
15.98
16.92
17.75
18.16
17.98
17.16
15.77
14.02
12.08
10.12
8.17
6.2
4.05
1.6
-1.19
-4.21
-7.23
-10.0
-12.31
-14.14
-15.6
-16.96
-18.48
-20.38
-22.75
-25.42
-28.01
-29.89
-30.35
-28.81
-25.05
-19.36
-12.5
-5.5
0.7
5.56
8.99
11.28
12.88
14.15
15.3
16.39
17.39
18.24
18.87
19.19
19.13
18.61
17.67
16.48
15.31
14.45
14.13
14.4
15.08
15.85
16.33
16.21
15.36
13.84
11.84
9.6
7.27
4.88
2.4
-0.22
-2.97
-5.77
-8.51
-11.13
-13.59
-15.91
-18.16
-20.43
-22.83
-25.51
-28.51
-31.72
-34.74
-36.89
-37.41
-35.61
-31.25
-24.61
-16.47
-7.82
0.37
7.47
13.17
17.5
20.58
22.54
23.5
23.54
22.78
21.4
19.66
17.83
16.11
14.64
13.44
12.47
11.66
11.01
10.54
10.27
10.17
10.07
9.78
9.07
7.88
6.31
4.56
2.87
1.32
-0.09
-1.47
-2.93
-4.53
-6.3
-8.23
-10.27
-12.37
-14.49
-16.59
-18.72
-21.01
-23.64
-26.78
-30.4
-34.2
-37.53
-39.55
-39.45
-36.7
-31.24
-23.54
-14.49
-5.1
3.71
11.35
17.57
22.4
26.02
28.6
30.32
31.3
31.65
31.51
30.96
30.1
28.96
27.59
26.08
24.51
22.99
21.6
20.35
19.17
17.96
16.6
15.01
13.18
11.16
9.1
7.09
5.19
3.35
1.45
-0.67
-3.11
-5.85
-8.75
-11.59
-14.19
-16.45
-18.43
-20.32
-22.41
-24.99
-28.23
-32.13
-36.39
-40.42
-43.44
-44.63
-43.38
-39.48
-33.23
-25.37
-16.83
-8.54
-1.17
4.94
9.76
13.43
16.18
18.19
19.66
20.77
21.7
22.57
23.45
24.29
24.96
25.36
25.43
25.26
24.96
24.63
24.26
23.71
22.77
21.27
19.15
16.54
13.64
10.68
7.83
5.1
2.44
-0.27
-3.07
-5.9
-8.63
-11.11
-13.25
-15.11
-16.84
-18.65
-20.73
-23.25
-26.26
-29.69
-33.3
-36.59
-38.89
-39.45
-37.72
-33.58
-27.38
-19.93
-12.2
-5.05
0.99
5.74
9.29
11.88
13.73
14.98
15.67
15.79
15.39
14.54
13.42
12.25
11.24
10.55
10.21
10.22
10.52
11.02
11.66
12.37
13.01
13.49
13.7
13.54
12.99
12.01
10.61
8.78
6.58
4.07
1.36
-1.41
-4.11
-6.65
-9.06
-11.51
-14.22
-17.41
-21.15
-25.31
-29.46
-33.0
-35.26
-35.72
-34.08
-30.41
-25.11
-18.83
-12.28
-6.09
-0.7
3.74
7.23
9.88
11.76
12.9
13.32
13.1
12.44
11.62
10.9
10.47
10.33
10.35
10.35
10.2
9.88
9.47
9.08
8.74
8.35
7.69
6.5
4.6
1.97
-1.18
-4.53
-7.74
-10.56
-12.94
-14.97
-16.88
-18.91
-21.32
-24.25
-27.71
-31.45
-34.92
-37.39
-38.11
-36.5
-32.43
-26.25
-18.69
-10.65
-2.99
3.71
9.15
13.33
16.37
18.49
19.85
20.6
20.84
20.68
20.22
19.58
18.85
18.09
17.33
16.54
15.71
14.84
13.98
13.24
12.74
12.48
12.34
12.06
11.32
9.85
7.57
4.62
1.3
-2.02
-5.1
-7.89
-10.51
-13.22
-16.3
-20.0
-24.42
-29.48
-34.81
-39.78
-43.57
-45.32
-44.39
-40.54
-34.07
-25.69
-16.41
-7.22
1.16
8.36
14.35
19.3
23.44
26.85
29.55
31.46
32.55
32.9
32.69
32.16
31.49
30.75
29.85
28.59
26.77
24.33
21.34
18.07
14.82
11.82
9.14
6.7
4.31
1.86
-0.71
-3.31
-5.84
-8.18
-10.33
-12.35
-14.35
-16.42
-18.64
-21.11
-23.9
-27.11
-30.7
-34.45
-37.84
-40.1
-40.39
-38.07
-32.95
-25.47
-16.57
-7.45
0.87
7.8
13.21
17.3
20.34
22.52
23.9
24.49
24.4
23.81
23.02
22.31
21.85
21.71
21.91
22.39
23.08
23.87
24.63
25.24
25.59
25.61
25.19
24.25
22.66
20.32
17.19
13.31
8.86
4.04
-0.89
-5.67
-10.09
-14.0
-17.33
-20.11
-22.51
-24.76
-27.18
-30.0
-33.3
-36.9
-40.26
-42.63
-43.22
-41.42
-37.03
-30.33
-22.02
-12.97
-4.06
4.01
10.77
16.02
19.74
22.02
23.03
22.96
22.04
20.51
18.63
16.67
14.85
13.32
12.11
11.16
10.38
9.71
9.12
8.6
8.14
7.67
7.03
6.04
4.58
2.64
0.37
-1.96
-4.04
-5.66
-6.84
-7.84
-9.12
-11.21
-14.43
-18.84
-24.04
-29.33
-33.77
-36.44
-36.68
-34.25
-29.37
-22.68
-15.03
-7.31
-0.2
5.87
10.69
14.27
16.69
18.09
18.62
18.49
17.89
17.05
16.16
15.4
14.84
14.48
14.23
14.02
13.78
13.54
13.33
13.19
13.05
12.67
11.71
9.89
7.08
3.4
-0.79
-5.07
-9.04
-12.51
-15.51
-18.26
-21.08
-24.31
-28.17
-32.69
-37.6
-42.31
-45.97
-47.6
-46.39
-41.98
-34.55
-24.89
-14.15
-3.49
6.16
14.3
20.82
25.84
29.52
31.98
33.29
33.58
33.05
32.0
30.7
29.32
27.83
26.11
24.01
21.53
18.85
16.28
14.13
12.61
11.68
11.07
10.36
9.18
7.28
4.64
1.46
-1.97
-5.36
-8.51
-11.4
-14.14
-17.03
-20.44
-24.64
-29.71
-35.34
-40.78
-44.96
-46.81
-45.55
-40.99
-33.6
-24.39
-14.55
-5.2
2.93
9.54
14.68
18.57
21.52
23.71
25.25
26.19
26.56
26.47
26.13
25.73
25.47
25.4
25.45
25.48
25.37
25.14
24.95
25.0
25.4
26.02
26.52
26.41
25.24
22.77
19.12
14.66
9.94
5.46
1.51
-1.9
-4.98
-8.02
-11.32
-15.08
-19.37
-24.07
-28.78
-32.74
-34.92
-34.27
-30.09
-22.41
-12.09
-0.61
10.43
19.85
27.17
32.58
36.67
40.06
43.18
46.16
48.93
51.3
53.02
53.89
53.77
52.61
50.49
47.55
44.01
40.06
35.88
31.71
27.79
24.36
21.55
19.25
17.13
14.71
11.58
7.61
3.03
-1.74
-6.31
-10.51
-14.47
-18.44
-22.61
-27.02
-31.55
-36.1
-40.71
-45.54
-50.62
-55.7
-60.08
-62.81
-63.01
-60.23
-54.56
-46.64
-37.35
-27.62
-18.24
-9.8
-2.68
2.91
6.99
9.76
11.57
12.79
13.73
14.55
15.35
16.24
17.35
18.83
20.68
22.73
24.67
26.1
26.72
26.46
25.44
23.85
21.89
19.65
17.14
14.33
11.17
7.68
3.88
-0.16
-4.33
-8.47
-12.45
-16.12
-19.42
-22.36
-25.08
-27.84
-30.93
-34.55
-38.66
-42.85
-46.34
-48.16
-47.38
-43.5
-36.61
-27.42
-17.14
-7.06
1.7
8.5
13.22
16.13
17.75
18.58
18.99
19.17
19.15
18.96
18.64
18.27
17.93
17.67
17.49
17.4
17.41
17.55
17.8
18.07
18.18
17.92
17.17
15.88
14.14
12.1
9.83
7.35
4.59
1.54
-1.78
-5.2
-8.51
-11.53
-14.22
-16.65
-19.0
-21.44
-24.12
-27.18
-30.67
-34.52
-38.47
-41.95
-44.16
-44.26
-41.61
-36.09
-28.21
-18.96
-9.57
-1.12
5.7
10.66
13.96
15.97
17.11
17.67
17.81
17.61
17.12
16.49
15.86
15.38
15.13
15.06
15.06
15.02
14.86
14.58
14.17
13.62
12.89
11.96
10.86
9.63
8.28
6.81
5.17
3.33
1.31
-0.79
-2.87
-4.87
-6.78
-8.64
-10.49
-12.36
-14.28
-16.36
-18.75
-21.56
-24.67
-27.62
-29.67
-29.97
-27.94
-23.49
-17.08
-9.58
-1.95
5.0
10.72
15.02
17.87
19.38
19.71
19.08
17.75
16.02
14.21
12.55
11.19
10.2
9.48
8.91
8.33
7.66
6.93
6.24
5.74
5.46
5.27
4.87
3.91
2.13
-0.47
-3.61
-6.84
-9.7
-11.92
-13.53
-14.77
-16.05
-17.75
-20.09
-23.1
-26.56
-30.0
-32.81
-34.26
-33.75
-30.95
-25.99
-19.44
-12.12
-4.94
1.42
6.58
10.48
13.25
15.08
16.13
16.51
16.29
15.63
14.68
13.64
12.66
11.75
10.86
9.86
8.65
7.26
5.79
4.39
3.17
2.13
1.16
0.04
-1.44
-3.39
-5.75
-8.33
-10.84
-13.01
-14.75
-16.14
-17.45
-19.07
-21.33
-24.36
-27.94
-31.5
-34.2
-35.18
-33.8
-29.9
-23.84
-16.43
-8.66
-1.39
4.82
9.75
13.45
16.05
17.69
18.49
18.56
18.07
17.25
16.33
15.5
14.84
14.33
13.83
13.17
12.26
11.11
9.9
8.87
8.22
7.99
7.93
7.63
6.63
4.65
1.74
-1.81
-5.51
-8.92
-11.79
-14.18
-16.35
-18.72
-21.63
-25.26
-29.43
-33.62
-37.0
-38.69
-37.95
-34.54
-28.67
-21.05
-12.62
-4.28
3.27
9.66
14.82
18.83
21.84
24.0
25.4
26.11
26.18
25.66
24.66
23.31
21.8
20.31
18.93
17.65
16.39
15.05
13.57
12.04
10.6
9.42
8.52
7.77
6.88
5.56
3.6
0.98
-2.1
-5.36
-8.45
-11.15
-13.42
-15.39
-17.35
-19.64
-22.53
-26.11
-30.22
-34.44
-38.09
-40.41
-40.7
-38.5
-33.77
-26.94
-18.79
-10.3
-2.38
4.37
9.7
13.7
16.63
18.77
20.33
21.35
21.84
21.84
21.48
20.97
20.52
20.24
20.08
19.84
19.33
18.44
17.23
15.87
14.5
13.2
11.89
10.36
8.42
5.95
3.03
-0.17
-3.36
-6.3
-8.83
-10.92
-12.73
-14.49
-16.48
-18.9
-21.86
-25.35
-29.23
-33.21
-36.84
-39.48
-40.42
-39.06
-35.11
-28.82
-20.89
-12.31
-4.12
2.88
8.26
11.96
14.17
15.21
15.36
14.9
14.02
12.93
11.87
11.06
10.7
10.89
11.53
12.4
13.29
14.03
14.65
15.29
16.08
17.02
17.92
18.41
18.15
16.94
14.85
12.18
9.4
6.88
4.78
2.94
0.99
-1.54
-4.95
-9.3
-14.33
-19.49
-24.07
-27.31
-28.56
-27.43
-23.97
-18.63
-12.25
-5.82
-0.2
4.08
6.89
8.41
8.99
8.92
8.43
7.68
6.79
5.88
5.08
4.43
3.93
3.52
3.09
2.63
2.16
1.75
1.46
1.26
1.04
0.63
-0.15
-1.45
-3.31
-5.65
-8.31
-11.04
-13.62
-15.91
-17.91
-19.79
-21.9
-24.55
-27.93
-31.82
-35.61
-38.32
-38.92
-36.69
-31.52
-24.0
-15.26
-6.53
1.23
7.59
12.59
16.53
19.64
22.0
23.55
24.25
24.21
23.69
23.0
22.38
21.87
21.37
20.75
19.92
18.94
17.94
17.09
16.5
16.13
15.84
15.33
14.27
12.44
9.8
6.6
3.23
0.12
-2.53
-4.73
-6.74
-8.91
-11.51
-14.73
-18.65
-23.17
-28.02
-32.63
-36.17
-37.66
-36.36
-31.99
-24.96
-16.17
-6.73
2.45
10.85
18.37
25.05
30.94
35.96
39.98
43.0
45.19
46.94
48.67
50.65
52.85
54.94
56.33
56.42
54.86
51.8
48.01
44.81
43.65
45.53
50.55
57.73
65.19
70.83
72.94
70.62
63.92
53.56
40.65
26.42
12.0
-1.76
-14.49
-26.45
-38.46
-51.5
-66.15
-82.18
-98.4
-113.13
-124.67
-131.82
-134.04
-131.39
-124.31
-113.48
-99.88
-84.75
-69.51
-55.43
-43.29
-33.23
-24.83
-17.42
-10.46
-3.72
2.68
8.42
13.17
16.71
19.0
20.23
20.73
20.88
21.05
21.48
22.23
23.19
24.15
24.88
25.16
24.87
24.01
22.65
20.96
19.11
17.27
15.47
13.68
11.75
9.56
7.05
4.25
1.28
-1.72
-4.6
-7.27
-9.72
-12.04
-14.43
-17.13
-20.32
-24.01
-27.9
-31.32
-33.4
-33.25
-30.25
-24.29
-15.8
-5.73
4.8
14.71
23.27
30.2
35.59
39.74
42.94
45.37
47.07
48.04
48.28
47.9
47.07
45.98
44.82
43.71
42.74
41.92
41.19
40.46
39.61
38.55
37.23
35.63
33.72
31.5
28.97
26.11
22.95
19.51
15.82
11.95
7.99
4.1
0.42
-2.94
-5.91
-8.49
-10.75
-12.86
-15.03
-17.53
-20.49
-23.81
-27.01
-29.4
-30.21
-28.93
-25.51
-20.27
-13.84
-6.86
0.12
6.68
12.45
17.19
20.75
23.16
24.61
25.35
25.54
25.19
24.23
22.58
20.32
17.72
15.11
12.86
11.18
10.12
9.56
9.3
9.09
8.77
8.22
7.39
6.26
4.8
3.03
0.94
-1.39
-3.85
-6.32
-8.72
-11.07
-13.48
-16.14
-19.27
-23.03
-27.55
-32.84
-38.81
-45.14
-51.24
-56.23
-59.12
-59.02
-55.57
-49.07
-40.53
-31.37
-22.97
-16.22
-11.35
-7.97
-5.49
-3.41
-1.61
-0.24
0.47
0.41
-0.26
-1.28
-2.41
-3.53
-4.6
-5.57
-6.25
-6.35
-5.68
-4.19
-2.14
0.05
1.95
3.29
4.01
4.21
4.06
3.69
3.17
2.53
1.8
1.07
0.42
-0.1
-0.52
-0.96
-1.66
-2.86
-4.8
-7.6
-11.21
-15.38
-19.62
-23.28
-25.63
-26.12
-24.53
-21.13
-16.57
-11.73
-7.44
-4.22
-2.22
-1.27
-1.05
-1.2
-1.5
-1.82
-2.17
-2.55
-3.01
-3.56
-4.19
-4.92
-5.74
-6.67
-7.71
-8.81
-9.86
-10.72
-11.24
-11.34
-11.03
-10.45
-9.78
-9.29
-9.22
-9.73
-10.88
-12.59
-14.66
-16.82
-18.82
-20.47
-21.76
-22.8
-23.82
-25.03
-26.56
-28.37
-30.19
-31.55
-31.92
-30.74
-27.62
-22.45
-15.45
-7.14
1.75
10.45
18.31
24.91
30.07
33.8
36.17
37.26
37.17
36.03
34.03
31.45
28.59
25.69
22.9
20.3
17.94
15.85
14.07
12.62
11.44
10.37
9.16
7.59
5.48
2.75
-0.49
-4.02
-7.53
-10.71
-13.39
-15.62
-17.7
-20.13
-23.38
-27.75
-33.1
-38.84
-44.03
-47.66
-48.94
-47.53
-43.57
-37.64
-30.51
-22.97
-15.66
-8.99
-3.15
1.85
6.08
9.64
12.6
14.97
16.71
17.8
18.24
18.09
17.48
16.58
15.53
14.48
13.56
12.86
12.41
12.08
11.61
10.65
8.88
6.13
2.48
-1.84
-6.51
-11.28
-16.04
-20.8
-25.7
-30.85
-36.41
-42.41
-48.74
-55.01
-60.48
-64.18
-65.19
-62.97
-57.58
-49.72
-40.43
-30.77
-21.52
-13.05
-5.48
1.2
6.94
11.66
15.27
17.79
19.31
20.02
20.09
19.65
18.77
17.56
16.13
14.67
13.45
12.68
12.52
12.94
13.72
14.47
14.7
14.03
12.28
9.53
6.05
2.18
-1.88
-6.19
-11.09
-17.07
-24.58
-33.68
-43.9
-54.07
-62.61
-67.88
-68.68
-64.61
-56.19
-44.71
-31.78
-18.89
-7.1
3.01
11.3
17.89
22.93
26.62
29.12
30.63
31.41
31.73
31.84
31.89
31.9
31.78
31.38
30.62
29.47
28.06
26.55
25.12
23.83
22.54
20.97
18.79
15.71
11.7
6.94
1.78
-3.38
-8.27
-12.89
-17.45
-22.31
-27.9
-34.51
-42.25
-50.84
-59.56
-67.21
-72.35
-73.6
-70.07
-61.66
-49.12
-33.85
-17.53
-1.82
11.94
22.78
30.2
34.11
34.85
33.12
29.78
25.73
21.69
18.1
15.13
12.78
10.98
9.66
8.74
8.14
7.82
7.76
8.02
8.7
9.83
11.34
13.01
14.57
15.77
16.44
16.59
16.36
15.95
15.55
15.26
15.0
14.51
13.38
11.14
7.3
1.59
-5.94
-14.81
-23.98
-32.03
-37.35
-38.58
-35.06
-27.04
-15.65
-2.57
10.49
22.3
32.22
40.22
46.54
51.44
55.0
57.18
57.88
57.16
55.23
52.47
49.29
46.01
42.77
39.62
36.47
33.27
30.02
26.77
23.53
20.23
16.65
12.51
7.59
1.81
-4.7
-11.62
-18.55
-25.13
-31.07
-36.32
-40.98
-45.33
-49.71
-54.43
-59.63
-65.25
-70.88
-75.78
-78.97
-79.37
-76.06
-68.63
-57.35
-43.19
-27.55
-11.94
2.48
15.03
25.49
33.9
40.28
44.63
46.93
47.3
46.16
44.08
41.74
39.71
38.37
37.83
38.05
38.86
40.04
41.44
42.92
44.36
45.6
46.37
46.29
44.98
42.21
38.02
32.78
27.04
21.3
15.83
10.58
5.27
-0.51
-7.04
-14.47
-22.59
-30.9
-38.51
-44.27
-47.0
-45.8
-40.45
-31.45
-19.96
-7.4
4.95
16.24
26.16
34.69
41.97
48.1
53.04
56.74
59.13
60.3
60.39
59.65
58.33
56.61
54.56
52.16
49.32
45.97
42.14
37.99
33.78
29.8
26.22
23.08
20.18
17.19
13.75
9.61
4.75
-0.61
-6.09
-11.26
-15.78
-19.59
-22.89
-26.15
-29.87
-34.39
-39.69
-45.26
-50.22
-53.47
-54.0
-51.14
-44.71
-35.1
-23.17
-10.05
3.06
15.17
25.67
34.36
41.3
46.72
50.75
53.43
54.72
54.68
53.51
51.58
49.27
46.89
44.57
42.29
39.93
37.4
34.61
31.5
27.97
23.89
19.14
13.7
7.68
1.35
-4.99
-11.02
-16.47
-21.15
-24.88
-27.58
-29.3
-30.28
-30.98
-31.9
-33.48
-35.84
-38.64
-41.11
-42.25
-41.12
-37.13
-30.27
-21.09
-10.55
0.27
10.49
19.56
27.26
33.59
38.6
42.3
44.64
45.71
45.68
44.84
43.48
41.8
39.85
37.59
35.0
32.14
29.17
26.29
23.58
20.99
18.37
15.51
12.23
8.49
4.34
-0.03
-4.46
-8.81
-13.1
-17.49
-22.24
-27.65
-33.84
-40.75
-47.98
-54.85
-60.51
-64.0
-64.55
-61.69
-55.4
-46.14
-34.8
-22.45
-10.08
1.52
11.95
21.09
29.01
35.78
41.42
45.86
49.02
50.94
51.73
51.58
50.63
48.95
46.54
43.46
39.86
36.02
32.25
28.72
25.42
22.21
18.96
15.65
12.39
9.36
6.58
3.91
0.99
-2.61
-7.2
-12.94
-19.7
-27.07
-34.33
-40.48
-44.47
-45.44
-43.05
-37.69
-30.38
-22.5
-15.35
-9.82
-6.3
-4.73
-4.83
-6.23
-8.5
-11.11
-13.4
-14.69
-14.42
-12.37
-8.7
-3.91
1.31
6.31
10.68
14.26
17.1
19.27
20.78
21.49
21.22
19.86
17.54
14.67
11.77
9.31
7.49
6.15
4.83
2.97
0.05
-4.18
-9.62
-15.77
-21.81
-26.7
-29.43
-29.23
-25.82
-19.46
-10.91
-1.22
8.52
17.54
25.52
32.58
39.06
45.22
51.0
55.99
59.64
61.58
61.84
60.79
58.97
56.78
54.29
51.35
47.74
43.38
38.36
32.89
27.09
20.97
14.38
7.21
-0.48
-8.37
-16.0
-22.87
-28.63
-33.17
-36.63
-39.3
-41.5
-43.49
-45.51
-47.73
-50.33
-53.3
-56.39
-59.0
-60.32
-59.47
-55.87
-49.41
-40.51
-30.06
-19.11
-8.69
0.46
7.93
13.69
17.89
20.81
22.68
23.65
23.81
23.31
22.33
21.13
19.93
18.88
17.99
17.16
16.29
15.33
14.33
13.39
12.56
11.81
11.03
10.05
8.74
7.03
4.94
2.56
-0.02
-2.74
-5.56
-8.47
-11.43
-14.38
-17.22
-19.94
-22.62
-25.47
-28.68
-32.28
-35.96
-39.05
-40.64
-39.89
-36.38
-30.29
-22.39
-13.76
-5.48
1.71
7.5
11.98
15.44
18.17
20.39
22.14
23.38
24.04
24.04
23.38
22.09
20.26
18.0
15.43
12.71
10.08
7.77
6.0
4.83
4.17
3.72
3.11
2.09
0.59
-1.2
-3.02
-4.65
-6.03
-7.3
-8.66
-10.28
-12.17
-14.21
-16.21
-18.02
-19.59
-20.97
-22.35
-23.97
-26.05
-28.61
-31.38
-33.73
-34.79
-33.74
-30.18
-24.27
-16.77
-8.67
-0.95
5.75
11.21
15.44
18.61
20.83
22.23
22.92
23.04
22.79
22.29
21.65
20.86
19.91
18.81
17.59
16.32
15.09
13.94
12.8
11.61
10.22
8.54
6.51
4.12
1.43
-1.46
-4.45
-7.42
-10.28
-13.0
-15.56
-17.94
-20.12
-22.06
-23.74
-25.19
-26.54
-27.93
-29.53
-31.43
-33.61
-35.84
-37.7
-38.64
-38.06
-35.55
-31.06
-24.98
-18.01
-10.97
-4.56
0.83
5.09
8.34
10.77
12.52
13.71
14.38
14.58
14.4
13.99
13.54
13.23
13.24
13.57
14.07
14.53
14.75
14.66
14.37
14.05
13.82
13.63
13.33
12.68
11.49
9.72
7.44
4.82
2.05
-0.73
-3.42
-5.97
-8.38
-10.69
-12.97
-15.35
-17.94
-20.83
-23.91
-26.84
-29.05
-29.83
-28.64
-25.29
-20.04
-13.6
-6.84
-0.62
4.5
8.24
10.64
11.93
12.36
12.15
11.45
10.33
8.86
7.14
5.38
3.84
2.73
2.11
1.85
1.67
1.34
0.77
0.09
-0.48
-0.75
-0.7
-0.54
-0.55
-0.99
-1.96
-3.37
-4.99
-6.55
-7.88
-8.92
-9.74
-10.51
-11.36
-12.39
-13.6
-15.0
-16.64
-18.6
-20.84
-23.14
-25.0
-25.76
-24.83
-21.94
-17.3
-11.52
-5.44
0.18
4.84
8.35
10.74
12.14
12.63
12.26
11.11
9.34
7.26
5.27
3.74
2.91
2.79
3.21
3.93
4.72
5.45
6.1
6.7
7.26
7.74
8.04
7.97
7.38
6.17
4.39
2.24
0.01
-2.01
-3.6
-4.69
-5.33
-5.63
-5.73
-5.76
-5.91
-6.34
-7.2
-8.51
-10.08
-11.47
-12.09
-11.39
-9.03
-5.06
0.07
5.64
10.9
15.22
18.26
19.96
20.46
19.97
18.7
16.83
14.49
11.91
9.29
6.91
5.01
3.72
3.04
2.76
2.65
2.5
2.31
2.25
2.58
3.46
4.83
6.4
7.78
8.65
8.98
8.9
8.67
8.45
8.18
7.63
6.54
4.74
2.25
-0.75
-3.98
-7.21
-10.25
-12.97
-15.21
-16.85
-17.74
-17.83
-17.11
-15.71
-13.8
-11.55
-9.08
-6.5
-3.91
-1.39
0.91
2.83
4.21
4.92
4.94
4.33
3.28
2.02
0.73
-0.47
-1.59
-2.68
-3.81
-5.0
-6.23
-7.39
-8.41
-9.24
-9.96
-10.68
-11.55
-12.65
-13.96
-15.36
-16.73
-17.97
-19.11
-20.22
-21.45
-22.91
-24.64
-26.59
-28.55
-30.17
-31.0
-30.6
-28.74
-25.5
-21.28
-16.74
-12.51
-9.07
-6.67
-5.28
-4.75
-4.88
-5.51
-6.58
-8.02
-9.74
-11.57
-13.28
-14.66
-15.6
-16.17
-16.63
-17.24
-18.18
-19.48
-21.01
-22.65
-24.38
-26.35
-28.77
-31.83
-35.57
-39.84
-44.37
-48.86
-53.11
-57.09
-60.89
-64.66
-68.42
-72.0
-75.09
-77.3
-78.34
-77.97
-76.06
-72.41
-66.87
-59.45
-50.39
-40.27
-29.87
-19.91
-10.83
-2.78
4.33
10.66
16.21
20.82
24.32
26.62
27.84
28.24
28.19
27.99
27.8
27.53
26.95
25.78
23.82
21.12
17.93
14.68
11.74
9.3
7.28
5.44
3.38
0.78
-2.62
-6.98
-12.25
-18.18
-24.21
-29.57
-33.38
-34.93
-33.9
-30.48
-25.3
-19.17
-12.84
-6.8
-1.31
3.52
7.64
10.99
13.52
15.24
16.22
16.53
16.28
15.6
14.64
13.68
12.99
12.79
13.17
13.98
14.95
15.78
16.24
16.25
15.79
14.85
13.38
11.32
8.64
5.32
1.33
-3.41
-8.94
-15.12
-21.49
-27.23
-31.31
-32.83
-31.32
-26.89
-20.14
-11.97
-3.33
5.09
12.8
19.59
25.38
30.15
33.9
36.6
38.23
38.77
38.3
37.02
35.24
33.28
31.39
29.65
28.0
26.23
24.16
21.6
18.54
15.03
11.25
7.37
3.51
-0.3
-4.16
-8.18
-12.49
-17.19
-22.35
-27.97
-33.98
-40.02
-45.43
-49.21
-50.31
-47.9
-41.77
-32.44
-21.01
-8.85
2.79
13.07
21.67
28.64
34.24
38.77
42.38
45.1
46.87
47.7
47.68
47.02
45.92
44.55
43.02
41.36
39.64
37.95
36.42
35.01
33.59
31.86
29.53
26.41
22.58
18.3
13.91
9.74
5.88
2.18
-1.7
-6.14
-11.39
-17.34
-23.42
-28.74
-32.26
-33.11
-30.89
-25.77
-18.42
-9.84
-1.07
7.03
13.93
19.39
23.43
26.2
27.89
28.69
28.82
28.48
27.91
27.29
26.75
26.32
25.94
25.52
25.04
24.51
24.02
23.69
23.54
23.51
23.36
22.8
21.5
19.33
16.38
13.01
9.71
6.9
4.76
3.11
1.55
-0.44
-3.21
-6.85
-11.08
-15.34
-18.85
-20.83
-20.64
-18.0
-13.07
-6.46
0.95
8.18
14.48
19.37
22.76
24.82
25.85
26.13
25.88
25.21
24.19
22.89
21.41
19.9
18.53
17.46
16.76
16.45
16.45
16.61
16.74
16.69
16.36
15.78
15.04
14.26
13.53
12.78
11.86
10.58
8.81
6.57
4.04
1.5
-0.79
-2.73
-4.39
-5.99
-7.84
-10.23
-13.29
-16.95
-20.91
-24.6
-27.29
-28.18
-26.66
-22.51
-16.02
-7.99
0.52
8.45
15.03
19.93
23.21
25.2
26.26
26.71
26.74
26.42
25.8
24.9
23.82
22.63
21.43
20.34
19.37
18.53
17.77
17.05
16.29
15.43
14.41
13.18
11.73
10.07
8.28
6.44
4.64
2.92
1.24
-0.45
-2.19
-3.99
-5.76
-7.43
-8.96
-10.39
-11.91
-13.79
-16.25
-19.41
-23.11
-26.92
-30.19
-32.16
-32.21
-30.07
-25.84
-20.03
-13.4
-6.75
-0.7
4.39
8.43
11.54
13.88
15.62
16.83
17.59
17.94
18.02
17.96
17.89
17.89
17.92
17.93
17.85
17.66
17.42
17.23
17.09
16.92
16.54
15.72
14.31
12.31
9.86
7.27
4.82
2.68
0.9
-0.66
-2.2
-3.88
-5.75
-7.69
-9.48
-10.92
-11.87
-12.4
-12.78
-13.4
-14.68
-16.86
-19.89
-23.35
-26.52
-28.6
-28.93
-27.19
-23.55
-18.58
-13.0
-7.5
-2.51
1.79
5.41
8.38
10.72
12.37
13.34
13.75
13.79
13.72
13.69
13.77
13.89
13.98
13.98
13.91
13.85
13.86
13.97
14.13
14.21
14.02
13.39
12.2
10.44
8.25
5.85
3.48
1.26
-0.76
-2.67
-4.56
-6.46
-8.35
-10.14
-11.76
-13.17
-14.39
-15.48
-16.5
-17.55
-18.7
-20.02
-21.55
-23.19
-24.7
-25.68
-25.63
-24.12
-20.95
-16.25
-10.47
-4.32
1.49
6.41
10.14
12.73
14.39
15.41
15.98
16.17
15.98
15.39
14.48
13.48
12.67
12.26
12.3
12.63
13.01
13.24
13.26
13.12
12.95
12.76
12.42
11.67
10.33
8.36
5.96
3.45
1.16
-0.75
-2.31
-3.74
-5.28
-7.12
-9.27
-11.6
-13.84
-15.75
-17.15
-18.05
-18.63
-19.16
-19.95
-21.24
-23.11
-25.44
-27.85
-29.72
-30.31
-29.0
-25.49
-19.99
-13.17
-6.0
0.6
6.0
9.95
12.54
14.02
14.67
14.7
14.28
13.56
12.73
11.92
11.23
10.7
10.31
10.01
9.77
9.6
9.53
9.63
9.94
10.41
10.86
11.08
10.89
10.2
9.1
7.75
6.32
4.88
3.42
1.85
0.11
-1.81
-3.87
-6.08
-8.45
-10.97
-13.61
-16.23
-18.68
-20.83
-22.67
-24.3
-25.91
-27.67
-29.62
-31.58
-33.18
-33.88
-33.13
-30.59
-26.27
-20.52
-13.97
-7.3
-1.02
4.53
9.23
13.03
15.87
17.7
18.51
18.38
17.54
16.26
14.82
13.45
12.29
11.43
10.88
10.61
10.55
10.63
10.82
11.13
11.56
12.09
12.63
13.07
13.27
13.16
12.73
12.03
11.1
9.99
8.75
7.45
6.24
5.23
4.45
3.74
2.82
1.31
-1.08
-4.46
-8.74
-13.72
-19.14
-24.77
-30.31
-35.31
-39.18
-41.19
-40.77
-37.69
-32.23
-25.15
-17.46
-10.11
-3.76
1.29
5.08
7.81
9.67
10.8
11.24
11.01
10.22
9.07
7.83
6.75
5.94
5.37
4.9
4.35
3.61
2.67
1.63
0.63
-0.26
-1.08
-1.9
-2.81
-3.85
-4.95
-6.02
-6.99
-7.83
-8.61
-9.4
-10.3
-11.31
-12.39
-13.5
-14.63
-15.88
-17.43
-19.48
-22.14
-25.33
-28.78
-31.98
-34.37
-35.46
-34.92
-32.75
-29.18
-24.67
-19.73
-14.82
-10.26
-6.25
-2.88
-0.21
1.75
3.04
3.75
4.07
4.17
4.19
4.22
4.28
4.43
4.72
5.19
5.84
6.61
7.38
8.06
8.6
9.0
9.22
9.19
8.78
7.89
6.5
4.74
2.79
0.8
-1.1
-2.9
-4.63
-6.36
-8.14
-10.02
-12.07
-14.31
-16.79
-19.49
-22.31
-25.02
-27.19
-28.27
-27.7
-25.08
-20.38
-13.98
-6.62
0.83
7.65
13.42
18.0
21.49
23.96
25.47
26.0
25.58
24.34
22.55
20.53
18.6
16.93
15.57
14.42
13.38
12.31
11.19
10.03
8.9
7.84
6.87
5.95
5.03
4.01
2.84
1.46
-0.12
-1.87
-3.7
-5.51
-7.2
-8.82
-10.51
-12.55
-15.26
-18.84
-23.25
-28.11
-32.72
-36.21
-37.8
-36.99
-33.76
-28.59
-22.24
-15.59
-9.33
-3.83
0.87
4.92
8.53
11.82
14.81
17.42
19.55
21.12
22.11
22.59
22.74
22.75
22.84
23.11
23.53
23.92
24.07
23.76
22.88
21.45
19.58
17.44
15.16
12.8
10.33
7.63
4.64
1.33
-2.17
-5.68
-9.02
-12.06
-14.84
-17.49
-20.19
-23.11
-26.41
-30.13
-34.15
-38.17
-41.59
-43.62
-43.46
-40.58
-34.97
-27.25
-18.42
-9.6
-1.7
4.82
9.87
13.66
16.43
18.39
19.7
20.49
20.88
20.98
20.87
20.57
20.07
19.4
18.65
18.04
17.8
18.12
19.03
20.37
21.83
23.05
23.69
23.57
22.65
21.09
19.11
16.93
14.66
12.29
9.72
6.86
3.73
0.46
-2.74
-5.69
-8.37
-10.92
-13.62
-16.75
-20.52
-24.94
-29.76
-34.45
-38.27
-40.42
-40.25
-37.52
-32.49
-25.86
-18.53
-11.34
-4.87
0.64
5.18
8.82
11.67
13.76
15.16
15.93
16.2
16.15
15.98
15.9
16.07
16.52
17.18
17.83
18.25
18.25
17.75
16.8
15.51
14.02
12.42
10.72
8.9
6.91
4.7
2.29
-0.25
-2.78
-5.15
-7.28
-9.15
-10.83
-12.45
-14.15
-16.04
-18.28
-21.0
-24.28
-28.02
-31.85
-35.08
-36.82
-36.29
-33.06
-27.26
-19.59
-11.07
-2.74
4.63
10.66
15.34
18.88
21.49
23.33
24.43
24.78
24.39
23.41
22.06
20.63
19.36
18.4
17.83
17.57
17.56
17.66
17.79
17.86
17.79
17.51
16.93
16.0
14.67
12.88
10.63
7.94
4.86
1.52
-1.94
-5.35
-8.6
-11.66
-14.63
-17.66
-20.96
-24.74
-29.09
-33.89
-38.74
-42.97
-45.7
-46.07
-43.53
-38.02
-30.12
-20.81
-11.2
-2.21
5.66
12.28
17.8
22.38
26.13
29.08
31.22
32.58
33.26
33.43
33.22
32.7
31.93
30.88
29.59
28.16
26.71
25.36
24.15
22.98
21.65
19.98
17.84
15.29
12.52
9.76
7.21
4.91
2.8
0.72
-1.46
-3.76
-6.12
-8.43
-10.51
-12.28
-13.73
-14.99
-16.32
-18.06
-20.5
-23.77
-27.65
-31.59
-34.73
-36.14
-35.14
-31.49
-25.57
-18.2
-10.38
-2.99
3.43
8.76
13.12
16.72
19.75
22.29
24.35
25.94
27.11
27.98
28.65
29.17
29.5
29.52
29.14
28.37
27.38
26.42
25.66
25.1
24.58
23.8
22.52
20.67
18.33
15.74
13.07
10.37
7.55
4.47
1.1
-2.46
-6.04
-9.43
-12.56
-15.49
-18.42
-21.54
-25.06
-29.04
-33.35
-37.68
-41.46
-43.97
-44.49
-42.48
-37.87
-31.07
-22.91
-14.42
-6.48
0.39
6.05
10.7
14.64
18.11
21.17
23.74
25.69
26.9
27.37
27.2
26.57
25.65
24.62
23.56
22.54
21.63
20.85
20.25
19.79
19.4
18.94
18.28
17.34
16.14
14.73
13.2
11.58
9.81
7.77
5.35
2.52
-0.61
-3.85
-6.97
-9.84
-12.44
-14.95
-17.58
-20.55
-23.94
-27.63
-31.21
-34.06
-35.46
-34.82
-31.88
-26.93
-20.69
-14.15
-8.18
-3.29
0.49
3.46
6.03
8.49
10.89
13.13
15.09
16.7
17.96
18.93
19.62
20.0
20.02
19.7
19.13
18.51
18.01
17.73
17.64
17.56
17.22
16.4
14.99
13.0
10.62
8.05
5.48
3.02
0.67
-1.63
-3.99
-6.41
-8.84
-11.2
-13.35
-15.23
-16.83
-18.24
-19.61
-21.13
-23.01
-25.38
-28.24
-31.28
-33.9
-35.33
-34.81
-31.89
-26.62
-19.6
-11.77
-4.12
2.58
7.94
11.9
14.66
16.48
17.58
18.1
18.12
17.7
16.95
15.99
14.98
14.04
13.23
12.53
11.88
11.24
10.63
10.1
9.66
9.28
8.84
8.19
7.2
5.84
4.18
2.33
0.35
-1.74
-3.97
-6.36
-8.8
-11.19
-13.46
-15.6
-17.73
-20.02
-22.59
-25.49
-28.71
-32.09
-35.35
-38.01
-39.43
-38.95
-36.12
-30.93
-23.87
-15.84
-7.86
-0.73
5.15
9.78
13.4
16.29
18.62
20.47
21.85
22.78
23.33
23.55
23.49
23.15
22.54
21.68
20.67
19.65
18.7
17.8
16.83
15.58
13.91
11.8
9.4
6.93
4.59
2.4
0.26
-2.05
-4.65
-7.56
-10.61
-13.53
-16.12
-18.27
-20.11
-21.88
-23.92
-26.51
-29.83
-33.83
-38.12
-42.01
-44.61
-45.04
-42.76
-37.79
-30.77
-22.74
-14.82
-7.82
-2.08
2.45
6.06
8.99
11.38
13.28
14.79
16.07
17.33
18.69
20.11
21.41
22.38
22.9
23.05
23.04
23.1
23.34
23.71
24.0
24.0
23.53
22.51
21.01
19.17
17.16
15.11
13.07
10.97
8.69
6.13
3.27
0.2
-2.91
-5.89
-8.68
-11.31
-13.95
-16.81
-20.14
-24.11
-28.79
-33.95
-39.05
-43.2
-45.41
-44.92
-41.47
-35.47
-27.85
-19.73
-12.11
-5.56
-0.23
4.0
7.38
10.06
12.1
13.46
14.17
14.33
14.13
13.82
13.59
13.46
13.37
13.13
12.62
11.84
10.95
10.14
9.54
9.12
8.65
7.84
6.5
4.61
2.32
-0.1
-2.41
-4.46
-6.22
-7.76
-9.14
-10.48
-11.81
-13.18
-14.6
-16.1
-17.76
-19.75
-22.27
-25.41
-29.03
-32.61
-35.36
-36.43
-35.26
-31.75
-26.36
-19.84
-13.04
-6.6
-0.88
3.97
7.96
11.11
13.5
15.18
16.23
16.74
16.81
16.56
16.14
15.73
15.5
15.51
15.75
16.12
16.49
16.78
16.95
17.03
17.0
16.81
16.32
15.41
13.98
12.03
9.59
6.78
3.77
0.74
-2.14
-4.69
-6.91
-8.9
-10.92
-13.29
-16.24
-19.85
-23.93
-28.01
-31.41
-33.37
-33.25
-30.71
-25.77
-18.92
-10.92
-2.64
5.16
12.03
17.78
22.45
26.15
28.99
31.03
32.39
33.26
33.93
34.68
35.66
36.81
37.82
38.37
38.26
37.62
36.84
36.44
36.8
37.95
39.66
41.53
43.27
44.78
46.15
47.5
48.86
50.11
51.09
51.63
51.7
51.32
50.55
49.41
47.91
46.17
44.52
43.43
43.46
44.92
47.71
51.28
54.77
57.35
58.45
57.93
56.02
53.08
49.41
45.07
39.91
33.71
26.34
17.88
8.62
-1.04
-10.72
-20.13
-29.12
-37.64
-45.65
-53.09
-59.84
-65.78
-70.76
-74.68
-77.47
-79.03
-79.28
-78.21
-75.99
-72.97
-69.71
-66.75
-64.48
-62.98
-62.02
-61.26
-60.42
-59.47
-58.64
-58.37
-59.01
-60.76
-63.43
-66.49
-69.08
-70.22
-69.09
-65.31
-59.09
-51.14
-42.49
-34.06
-26.42
-19.69
-13.7
-8.21
-3.12
1.53
5.63
9.1
11.99
14.38
16.36
17.9
18.93
19.41
19.42
19.21
19.04
19.13
19.55
20.19
20.81
21.11
20.86
19.94
18.4
16.43
14.33
12.41
10.92
9.83
8.92
7.82
6.19
3.89
1.06
-1.95
-4.81
-7.35
-9.64
-11.98
-14.73
-18.19
-22.45
-27.3
-32.25
-36.57
-39.42
-40.06
-38.07
-33.49
-26.9
-19.21
-11.44
-4.43
1.34
5.77
9.06
11.52
13.4
14.83
15.84
16.41
16.61
16.56
16.44
16.37
16.43
16.62
16.87
17.18
17.52
17.86
18.09
18.02
17.45
16.27
14.52
12.39
10.11
7.81
5.52
3.16
0.6
-2.21
-5.2
-8.2
-11.04
-13.63
-15.93
-18.07
-20.27
-22.79
-25.84
-29.43
-33.33
-36.98
-39.57
-40.27
-38.44
-33.92
-27.1
-18.79
-10.06
-1.87
5.14
10.7
14.91
18.06
20.44
22.25
23.59
24.46
24.86
24.85
24.54
24.11
23.72
23.47
23.41
23.48
23.53
23.38
22.82
21.75
20.15
18.14
15.87
13.48
11.06
8.58
5.92
2.97
-0.33
-3.96
-7.8
-11.71
-15.53
-19.17
-22.64
-26.07
-29.68
-33.73
-38.39
-43.56
-48.73
-52.97
-55.14
-54.24
-49.75
-41.93
-31.72
-20.51
-9.67
-0.16
7.6
13.7
18.45
22.15
24.94
26.81
27.74
27.8
27.18
26.2
25.13
24.15
23.27
22.45
21.6
20.73
19.91
19.24
18.76
18.41
18.02
17.42
16.43
15.01
13.18
11.03
8.66
6.13
3.43
0.57
-2.45
-5.54
-8.6
-11.59
-14.59
-17.86
-21.78
-26.66
-32.48
-38.74
-44.41
-48.21
-49.01
-46.24
-40.11
-31.58
-21.92
-12.4
-3.85
3.32
9.13
13.79
17.53
20.52
22.84
24.57
25.81
26.65
27.2
27.51
27.63
27.54
27.3
26.98
26.69
26.52
26.48
26.52
26.48
26.21
25.57
24.52
23.07
21.28
19.23
16.97
14.54
11.91
9.05
5.91
2.55
-0.88
-4.18
-7.19
-10.01
-12.95
-16.51
-21.06
-26.61
-32.64
-38.07
-41.65
-42.3
-39.46
-33.32
-24.71
-14.78
-4.69
4.69
12.89
19.72
25.21
29.38
32.23
33.81
34.18
33.5
31.96
29.72
26.94
23.81
20.55
17.45
14.81
12.85
11.65
11.11
11.01
11.04
10.87
10.21
8.81
6.59
3.57
-0.01
-3.79
-7.37
-10.38
-12.68
-14.34
-15.68
-17.2
-19.39
-22.63
-27.0
-32.27
-37.84
-42.84
-46.25
-47.13
-44.85
-39.31
-31.01
-20.94
-10.37
-0.49
7.89
14.49
19.46
23.18
25.98
28.01
29.26
29.62
29.06
27.7
25.8
23.67
21.59
19.73
18.17
16.89
15.8
14.83
13.93
13.05
12.19
11.31
10.33
9.04
7.22
4.69
1.47
-2.22
-6.04
-9.64
-12.8
-15.54
-18.04
-20.56
-23.37
-26.69
-30.67
-35.4
-40.74
-46.25
-51.15
-54.4
-55.0
-52.31
-46.3
-37.54
-27.01
-15.74
-4.65
5.7
15.0
23.18
30.28
36.43
41.74
46.24
49.82
52.23
53.23
52.73
50.96
48.46
45.95
44.03
42.96
42.6
42.47
42.04
40.87
38.8
35.93
32.51
28.82
25.0
21.02
16.57
11.16
4.32
-4.21
-14.18
-24.73
-34.52
-42.17
-46.76
-48.27
-47.7
-46.72
-47.14
-50.2
-56.18
-64.3
-73.15
-81.09
-86.82
-89.61
-89.36
-86.46
-81.6
-75.58
-69.22
-63.21
-58.02
-53.8
-50.38
-47.33
-44.09
-40.13
-35.08
-28.81
-21.43
-13.35
-5.1
2.76
9.95
16.53
22.97
29.89
37.7
46.41
55.52
64.21
71.78
77.99
83.3
88.82
95.69
104.36
113.77
121.26
123.14
115.98
98.1
70.33
35.91
-0.57
-34.55
-62.59
-82.79
-94.66
-98.81
-96.79
-91.01
-84.45
-80.03
-79.64
-83.31
-88.85
-92.36
-89.51
-76.95
-53.63
-21.29
16.01
53.17
85.75
111.26
129.61
142.61
152.67
161.56
169.77
176.74
181.68
184.35
185.42
186.13
187.67
190.55
194.27
197.37
197.74
193.2
181.96
163.19
137.33
106.09
71.97
37.57
4.74
-25.89
-54.91
-83.55
-112.95
-143.33
-173.7
-201.9
-225.28
-241.52
-249.36
-248.97
-241.73
-229.55
-214.15
-196.72
-177.91
-158.27
-138.57
-119.88
-103.28
-89.35
-77.99
-68.5
-59.98
-51.83
-44.01
-36.89
-30.95
-26.45
-23.2
-20.73
-18.57
-16.51
-14.72
-13.51
-13.04
-12.93
-12.3
-9.95
-4.89
3.15
13.67
25.48
37.28
48.04
57.24
64.68
70.27
73.81
75.16
74.52
72.79
71.56
72.59
77.2
85.69
97.3
110.71
124.75
138.86
152.99
167.04
180.23
191.09
197.87
199.32
195.21
186.33
173.84
158.59
140.84
120.41
97.31
72.07
45.63
18.92
-7.65
-34.19
-60.81
-87.02
-111.38
-131.76
-146.2
-153.7
-154.58
-150.28
-142.69
-133.42
-123.51
-113.45
-103.55
-94.21
-85.91
-79.05
-73.69
-69.48
-65.88
-62.37
-58.79
-55.26
-51.97
-48.93
-45.72
-41.61
-35.79
-27.7
-17.24
-4.92
8.37
21.48
33.27
42.78
49.36
52.7
52.85
50.1
44.92
37.81
29.19
19.47
9.12
-1.16
-10.44
-17.64
-21.8
-22.39
-19.55
-14.01
-6.88
0.82
8.5
16.07
23.81
32.08
41.09
50.86
61.37
72.69
84.92
97.97
111.18
123.25
132.4
136.93
135.7
128.43
115.71
98.61
78.27
55.6
31.31
6.24
-18.35
-40.75
-59.15
-72.28
-79.88
-82.9
-83.12
-82.46
-82.47
-83.97
-87.29
-92.84
-101.42
-114.11
-131.45
-152.43
-173.88
-190.99
-198.84
-194.38
-177.85
-152.84
-124.93
-99.48
-79.75
-66.27
-57.47
-51.2
-45.97
-41.44
-38.01
-36.05
-35.35
-35.12
-34.5
-33.01
-30.79
-28.43
-26.58
-25.51
-25.08
-24.8
-24.26
-23.33
-22.36
-21.96
-22.67
-24.56
-27.06
-29.02
-29.1
-26.28
-20.25
-11.58
-1.47
8.66
17.69
25.05
30.79
35.36
39.21
42.58
45.4
47.44
48.48
48.49
47.69
46.43
45.03
43.68
42.4
41.11
39.73
38.24
36.65
34.95
33.07
30.87
28.21
24.99
21.16
16.78
11.92
6.72
1.39
-3.83
-8.66
-12.87
-16.36
-19.15
-21.47
-23.63
-26.02
-28.96
-32.61
-36.91
-41.46
-45.61
-48.46
-49.16
-47.06
-41.93
-34.04
-24.09
-13.07
-2.0
8.22
16.99
24.03
29.37
33.2
35.74
37.14
37.5
36.88
35.44
33.45
31.24
29.13
27.31
25.83
24.66
23.69
22.81
21.9
20.77
19.23
17.07
14.2
10.67
6.74
2.8
-0.65
-3.2
-4.65
-5.13
-5.1
-5.23
-6.18
-8.31
-11.59
-15.66
-20.06
-24.52
-29.04
-33.81
-38.98
-44.33
-49.17
-52.45
-53.1
-50.41
-44.34
-35.55
-25.14
-14.32
-3.98
5.39
13.65
20.83
26.89
31.68
35.02
36.9
37.52
37.32
36.76
36.17
35.65
35.07
34.27
33.11
31.59
29.84
27.99
26.2
24.55
23.03
21.54
19.87
17.72
14.85
11.19
6.91
2.37
-2.01
-5.92
-9.32
-12.35
-15.28
-18.38
-21.88
-25.96
-30.76
-36.27
-42.13
-47.6
-51.58
-52.93
-50.91
-45.45
-37.22
-27.37
-17.12
-7.35
1.44
9.12
15.67
21.04
25.12
27.82
29.21
29.54
29.21
28.62
28.06
27.64
27.26
26.79
26.14
25.32
24.45
23.66
22.98
22.3
21.37
19.86
17.51
14.24
10.2
5.74
1.33
-2.63
-5.93
-8.67
-11.19
-14.01
-17.6
-22.28
-28.04
-34.46
-40.78
-45.93
-48.84
-48.65
-45.0
-38.16
-28.96
-18.53
-7.99
1.82
10.42
17.65
23.45
27.84
30.84
32.55
33.16
32.97
32.26
31.27
30.08
28.69
27.07
25.29
23.51
21.93
20.73
19.92
19.34
18.68
17.58
15.79
13.2
9.87
6.0
1.85
-2.36
-6.48
-10.54
-14.7
-19.25
-24.42
-30.28
-36.59
-42.74
-47.8
-50.79
-50.92
-47.83
-41.68
-33.14
-23.13
-12.61
-2.41
6.93
15.09
21.93
27.33
31.17
33.42
34.18
33.74
32.57
31.16
29.87
28.78
27.73
26.5
24.94
23.17
21.45
20.1
19.24
18.64
17.85
16.34
13.77
10.15
5.83
1.32
-2.91
-6.65
-9.97
-13.17
-16.66
-20.76
-25.71
-31.53
-38.01
-44.59
-50.37
-54.21
-55.04
-52.17
-45.61
-36.11
-24.94
-13.46
-2.7
6.8
15.02
22.12
28.24
33.33
37.18
39.58
40.51
40.19
39.02
37.45
35.87
34.5
33.41
32.53
31.76
30.98
30.12
29.16
28.12
27.01
25.83
24.53
22.96
20.97
18.4
15.17
11.38
7.22
2.96
-1.14
-4.98
-8.59
-12.15
-15.9
-20.12
-25.06
-30.8
-37.22
-43.81
-49.72
-53.83
-55.0
-52.47
-46.14
-36.65
-25.21
-13.23
-1.95
7.91
16.11
22.77
28.18
32.51
35.84
38.17
39.55
40.16
40.27
40.12
39.81
39.31
38.48
37.26
35.75
34.21
33.01
32.37
32.32
32.59
32.76
32.39
31.17
29.08
26.35
23.33
20.38
17.64
15.0
12.18
8.88
4.99
0.65
-3.79
-7.98
-11.71
-15.06
-18.31
-21.83
-25.92
-30.71
-36.14
-41.88
-47.33
-51.6
-53.69
-52.73
-48.29
-40.67
-30.78
-19.96
-9.46
-0.12
7.76
14.31
19.78
24.34
27.99
30.68
32.39
33.28
33.56
33.44
32.98
32.18
31.03
29.65
28.31
27.31
26.82
26.74
26.76
26.44
25.47
23.76
21.46
18.84
16.18
13.59
11.06
8.52
5.88
3.11
0.19
-2.85
-5.94
-8.96
-11.8
-14.41
-16.92
-19.58
-22.72
-26.54
-30.91
-35.29
-38.82
-40.52
-39.61
-35.79
-29.34
-21.02
-11.92
-3.1
4.64
10.9
15.65
19.1
21.54
23.19
24.17
24.54
24.38
23.87
23.22
22.65
22.25
21.97
21.64
21.11
20.26
19.16
17.98
16.89
15.96
15.1
14.1
12.68
10.68
8.06
4.91
1.42
-2.2
-5.74
-9.05
-12.03
-14.66
-16.99
-19.14
-21.3
-23.66
-26.42
-29.66
-33.22
-36.61
-39.07
-39.74
-37.97
-33.56
-26.93
-18.97
-10.69
-2.92
3.91
9.77
14.79
19.07
22.6
25.23
26.85
27.49
27.34
26.67
25.75
24.73
23.67
22.57
21.41
20.25
19.18
18.28
17.62
17.15
16.76
16.27
15.49
14.27
12.5
10.19
7.46
4.52
1.58
-1.23
-3.92
-6.62
-9.55
-12.89
-16.71
-20.94
-25.34
-29.49
-32.77
-34.54
-34.19
-31.48
-26.59
-20.16
-13.07
-6.14
0.1
5.49
10.08
13.99
17.22
19.68
21.3
22.08
22.21
21.98
21.62
21.22
20.77
20.14
19.25
18.09
16.75
15.36
14.02
12.75
11.48
10.05
8.3
6.14
3.58
0.75
-2.13
-4.88
-7.43
-9.82
-12.25
-14.94
-18.07
-21.69
-25.67
-29.66
-33.18
-35.63
-36.46
-35.29
-32.02
-26.87
-20.34
-13.01
-5.41
2.06
9.21
15.9
22.0
27.25
31.35
34.05
35.25
35.05
33.72
31.59
28.97
26.09
23.11
20.19
17.49
15.22
13.49
12.29
11.47
10.79
9.99
8.96
7.7
6.31
4.87
3.43
1.96
0.38
-1.37
-3.31
-5.4
-7.58
-9.78
-11.95
-14.06
-16.13
-18.19
-20.32
-22.69
-25.4
-28.52
-31.83
-34.81
-36.72
-36.77
-34.42
-29.6
-22.76
-14.81
-6.78
0.41
6.16
10.23
12.66
13.66
13.49
12.46
10.9
9.18
7.64
6.59
6.18
6.42
7.14
8.09
9.05
9.89
10.55
11.08
11.48
11.73
11.76
11.46
10.73
9.52
7.85
5.82
3.66
1.64
0.0
-1.19
-2.04
-2.83
-3.87
-5.34
-7.22
-9.36
-11.53
-13.6
-15.58
-17.6
-19.86
-22.55
-25.79
-29.48
-33.31
-36.67
-38.8
-38.97
-36.78
-32.27
-26.01
-18.9
-11.91
-5.75
-0.77
2.99
5.68
7.51
8.6
9.07
9.04
8.69
8.22
7.8
7.53
7.44
7.54
7.85
8.45
9.39
10.67
12.14
13.56
14.64
15.15
14.99
14.23
13.04
11.6
10.01
8.24
6.23
3.93
1.35
-1.44
-4.34
-7.29
-10.26
-13.22
-16.16
-19.07
-22.0
-25.05
-28.32
-31.77
-35.08
-37.7
-38.87
-37.97
-34.71
-29.31
-22.44
-14.99
-7.78
-1.4
3.87
8.0
11.12
13.38
14.89
15.77
16.12
16.08
15.82
15.54
15.39
15.44
15.7
16.06
16.41
16.63
16.67
16.54
16.31
16.08
15.85
15.52
14.93
13.89
12.3
10.19
7.7
5.03
2.3
-0.46
-3.35
-6.44
-9.77
-13.28
-16.9
-20.54
-24.14
-27.62
-30.77
-33.23
-34.5
-34.13
-31.83
-27.66
-22.03
-15.64
-9.23
-3.4
1.51
5.44
8.52
10.87
12.55
13.57
13.92
13.71
13.11
12.35
11.62
11.04
10.64
10.41
10.37
10.55
10.9
11.35
11.7
11.78
11.42
10.53
9.08
7.09
4.69
2.04
-0.61
-3.01
-4.96
-6.38
-7.39
-8.24
-9.31
-10.99
-13.59
-17.19
-21.56
-26.15
-30.16
-32.71
-33.13
-31.13
-26.89
-20.96
-14.13
-7.14
-0.63
5.05
9.74
13.5
16.45
18.76
20.52
21.76
22.45
22.58
22.27
21.67
21.0
20.37
19.75
19.03
18.06
16.82
15.43
14.08
12.9
11.89
10.91
9.72
8.09
5.95
3.37
0.53
-2.27
-4.82
-6.97
-8.74
-10.29
-11.84
-13.64
-15.86
-18.54
-21.55
-24.6
-27.21
-28.83
-28.91
-27.09
-23.28
-17.78
-11.23
-4.4
1.99
7.42
11.64
14.65
16.55
17.53
17.78
17.51
16.92
16.22
15.54
14.95
14.43
13.92
13.38
12.82
12.3
11.89
11.67
11.62
11.69
11.84
12.02
12.18
12.22
12.03
11.41
10.24
8.51
6.35
4.01
1.68
-0.58
-2.89
-5.56
-8.93
-13.22
-18.44
-24.31
-30.31
-35.76
-39.97
-42.37
-42.63
-40.72
-36.93
-31.84
-26.15
-20.6
-15.77
-11.93
-9.01
-6.63
-4.32
-1.69
1.37
4.69
7.92
10.72
12.88
14.41
15.42
16.12
16.69
17.3
18.09
19.18
20.57
22.1
23.47
24.29
24.25
23.18
21.14
18.41
15.34
12.28
9.46
6.95
4.67
2.48
0.26
-2.03
-4.34
-6.55
-8.51
-10.13
-11.45
-12.61
-13.87
-15.5
-17.69
-20.4
-23.32
-25.86
-27.3
-27.01
-24.67
-20.46
-14.96
-8.97
-3.28
1.62
5.59
8.73
11.23
13.19
14.62
15.44
15.64
15.32
14.73
14.13
13.7
13.49
13.49
13.67
14.01
14.56
15.28
16.05
16.65
16.84
16.47
15.59
14.35
12.94
11.5
10.04
8.49
6.8
4.99
3.17
1.45
-0.08
-1.45
-2.72
-3.99
-5.35
-6.92
-8.79
-11.05
-13.73
-16.71
-19.64
-22.0
-23.19
-22.71
-20.34
-16.23
-10.88
-4.96
0.88
6.18
10.71
14.49
17.63
20.23
22.32
23.78
24.45
24.17
22.88
20.73
18.01
15.09
12.25
9.64
7.2
4.8
2.35
-0.13
-2.51
-4.66
-6.5
-8.1
-9.53
-10.85
-12.03
-12.92
-13.39
-13.38
-13.0
-12.46
-12.03
-11.9
-12.17
-12.82
-13.74
-14.85
-16.13
-17.62
-19.36
-21.22
-22.88
-23.83
-23.57
-21.76
-18.47
-14.12
-9.35
-4.78
-0.82
2.43
5.05
7.22
9.03
10.44
11.39
11.83
11.83
11.49
10.98
10.4
9.77
9.05
8.18
7.13
5.93
4.68
3.47
2.4
1.43
0.47
-0.65
-2.09
-3.96
-6.28
-8.93
-11.76
-14.56
-17.17
-19.51
-21.57
-23.37
-24.93
-26.27
-27.38
-28.3
-29.01
-29.43
-29.37
-28.51
-26.55
-23.32
-18.94
-13.77
-8.37
-3.27
1.12
4.61
7.23
9.14
10.55
11.66
12.59
13.4
14.04
14.45
14.59
14.47
14.16
13.65
12.95
12.0
10.8
9.45
8.09
6.87
5.81
4.83
3.76
2.45
0.87
-0.91
-2.78
-4.62
-6.34
-7.93
-9.4
-10.84
-12.38
-14.15
-16.19
-18.38
-20.35
-21.59
-21.55
-19.87
-16.54
-11.93
-6.67
-1.49
3.03
6.56
9.05
10.63
11.54
11.95
12.01
11.84
11.54
11.22
10.96
10.79
10.61
10.31
9.73
8.83
7.68
6.44
5.34
4.5
3.94
3.56
3.19
2.64
1.83
0.75
-0.54
-1.95
-3.41
-4.89
-6.36
-7.81
-9.29
-10.92
-12.87
-15.3
-18.26
-21.54
-24.69
-27.11
-28.21
-27.6
-25.17
-21.12
-15.9
-10.05
-4.16
1.31
6.02
9.81
12.76
15.02
16.83
18.38
19.75
20.86
21.63
21.98
21.93
21.6
21.13
20.65
20.2
19.77
19.26
18.58
17.64
16.43
15.03
13.51
11.93
10.32
8.66
6.9
5.06
3.15
1.24
-0.64
-2.52
-4.46
-6.55
-8.87
-11.41
-14.19
-17.18
-20.42
-23.91
-27.58
-31.2
-34.34
-36.46
-37.0
-35.66
-32.45
-27.76
-22.23
-16.53
-11.15
-6.34
-2.15
1.47
4.59
7.24
9.44
11.23
12.67
13.82
14.71
15.33
15.68
15.8
15.78
15.77
15.94
16.4
17.11
17.95
18.67
19.0
18.76
17.86
16.4
14.59
12.65
10.77
8.98
7.24
5.4
3.33
0.97
-1.65
-4.42
-7.17
-9.76
-12.13
-14.39
-16.78
-19.6
-23.05
-27.13
-31.56
-35.78
-39.1
-40.91
-40.78
-38.58
-34.51
-29.0
-22.64
-16.05
-9.76
-4.12
0.71
4.77
8.12
10.84
12.92
14.35
15.18
15.6
15.9
16.39
17.26
18.53
20.03
21.52
22.82
23.91
24.89
25.9
26.97
27.98
28.67
28.8
28.24
27.03
25.35
23.42
21.36
19.23
16.95
14.45
11.66
8.51
4.97
0.95
-3.59
-8.61
-13.9
-19.05
-23.43
-26.39
-27.36
-26.17
-23.07
-18.71
-13.93
-9.4
-5.49
-2.13
0.92
3.89
6.77
9.34
11.29
12.47
13.01
13.24
13.57
14.26
15.34
16.6
17.82
18.81
19.6
20.32
21.11
21.97
22.79
23.36
23.63
23.74
24.06
24.95
26.58
28.79
31.14
33.11
34.4
34.94
34.92
34.54
33.92
33.05
31.93
30.78
30.04
30.32
32.08
35.38
39.76
44.38
48.3
50.83
51.73
51.19
49.58
47.27
44.45
41.18
37.47
33.36
29.03
24.7
20.59
16.86
13.58
10.79
8.47
6.55
4.93
3.42
1.89
0.25
-1.48
-3.21
-4.83
-6.31
-7.76
-9.39
-11.42
-14.0
-17.13
-20.62
-24.22
-27.72
-31.04
-34.23
-37.35
-40.49
-43.63
-46.76
-49.84
-52.86
-55.74
-58.21
-59.81
-59.95
-58.13
-54.18
-48.44
-41.64
-34.65
-28.16
-22.5
-17.6
-13.22
-9.18
-5.54
-2.53
-0.43
0.67
0.89
0.54
-0.01
-0.5
-0.81
-0.97
-1.03
-1.01
-0.9
-0.67
-0.29
0.19
0.71
1.22
1.68
2.13
2.56
2.93
3.11
2.95
2.36
1.37
0.1
-1.3
-2.79
-4.43
-6.3
-8.43
-10.79
-13.27
-15.82
-18.47
-21.18
-23.82
-26.01
-27.21
-26.94
-24.98
-21.53
-17.18
-12.69
-8.78
-5.93
-4.31
-3.84
-4.22
-5.08
-6.04
-6.75
-6.98
-6.64
-5.74
-4.45
-2.99
-1.63
-0.55
0.19
0.68
1.12
1.68
2.41
3.16
3.69
3.74
3.19
2.04
0.47
-1.33
-3.24
-5.17
-7.1
-8.97
-10.66
-12.01
-12.92
-13.41
-13.64
-13.85
-14.25
-15.02
-16.17
-17.64
-19.28
-20.84
-21.93
-22.07
-20.84
-18.02
-13.76
-8.53
-3.07
1.94
6.0
8.88
10.61
11.31
11.16
10.38
9.24
8.06
7.2
6.88
7.15
7.87
8.81
9.8
10.76
11.73
12.82
14.06
15.41
16.74
17.93
18.9
19.67
20.34
20.99
21.63
22.17
22.46
22.29
21.48
19.95
17.73
15.0
12.0
9.05
6.39
4.23
2.62
1.48
0.56
-0.42
-1.69
-3.2
-4.59
-5.19
-4.31
-1.47
3.35
9.67
16.69
23.52
29.47
34.09
37.23
38.88
39.11
37.97
35.54
31.96
27.4
22.1
16.38
10.58
5.11
0.27
-3.75
-7.01
-9.68
-11.98
-14.04
-15.86
-17.33
-18.37
-19.05
-19.52
-20.03
-20.69
-21.5
-22.36
-23.16
-23.91
-24.73
-25.77
-27.08
-28.56
-30.01
-31.27
-32.27
-33.12
-34.01
-35.14
-36.63
-38.47
-40.42
-42.03
-42.69
-41.78
-38.94
-34.23
-28.16
-21.56
-15.34
-10.17
-6.45
-4.22
-3.33
-3.49
-4.39
-5.7
-7.1
-8.36
-9.34
-10.05
-10.52
-10.86
-11.18
-11.56
-12.05
-12.68
-13.38
-14.07
-14.65
-15.08
-15.41
-15.77
-16.34
-17.26
-18.61
-20.34
-22.3
-24.28
-26.02
-27.33
-28.11
-28.33
-28.08
-27.42
-26.47
-25.37
-24.35
-23.7
-23.68
-24.36
-25.52
-26.66
-27.17
-26.42
-24.0
-19.75
-13.78
-6.4
1.9
10.57
19.02
26.74
33.37
38.79
43.13
46.69
49.87
52.98
56.16
59.31
62.1
64.23
65.55
66.26
66.82
67.82
69.71
72.59
76.18
80.03
83.7
87.01
90.07
93.21
96.99
102.17
109.78
120.87
136.04
154.73
174.69
192.22
203.03
203.61
192.44
170.42
140.39
106.04
70.76
36.89
5.6
-22.74
-48.27
-71.44
-93.11
-114.46
-136.76
-160.7
-185.97
-211.02
-233.5
-251.05
-262.18
-266.7
-265.65
-260.63
-252.95
-243.21
-231.18
-216.34
-198.49
-178.1
-156.27
-134.38
-113.66
-94.9
-78.46
-64.42
-52.79
-43.58
-36.76
-32.04
-28.9
-26.6
-24.42
-21.95
-19.28
-16.94
-15.74
-16.35
-18.92
-22.88
-26.92
-29.29
-28.3
-22.81
-12.53
1.94
19.33
38.13
56.9
74.49
90.03
102.83
112.32
118.01
119.67
117.42
111.77
103.61
94.01
83.95
74.2
65.22
57.19
50.12
43.95
38.6
34.01
30.14
26.87
23.93
20.94
17.35
12.53
5.96
-2.63
-13.14
-24.94
-37.09
-48.5
-58.25
-65.81
-71.15
-74.58
-76.5
-77.15
-76.42
-73.97
-69.34
-62.2
-52.55
-40.76
-27.52
-13.76
-0.46
11.5
21.49
29.17
34.52
37.7
38.98
38.54
36.59
33.38
29.28
24.84
20.64
17.18
14.69
13.03
11.77
10.32
8.12
4.91
0.75
-4.02
-8.93
-13.66
-18.08
-22.31
-26.56
-31.09
-36.16
-42.1
-49.22
-57.59
-66.61
-74.75
-79.79
-79.46
-72.47
-59.15
-41.45
-22.24
-4.2
11.0
22.93
31.95
38.63
43.25
45.84
46.53
45.81
44.58
43.82
44.13
45.53
47.54
49.54
51.13
52.36
53.58
55.25
57.59
60.5
63.61
66.45
68.61
69.81
69.88
68.72
66.25
62.48
57.5
51.45
44.47
36.66
28.18
19.35
10.78
3.3
-2.23
-5.24
-5.68
-4.13
-1.57
0.9
2.51
2.95
2.43
1.39
0.24
-0.93
-2.34
-4.38
-7.28
-10.93
-14.86
-18.46
-21.34
-23.44
-25.06
-26.51
-27.84
-28.76
-28.68
-27.0
-23.35
-17.72
-10.49
-2.46
5.22
11.18
14.09
13.16
8.47
1.16
-6.89
-13.83
-18.49
-20.92
-22.11
-23.43
-25.68
-28.63
-30.98
-30.97
-27.18
-19.15
-7.59
6.04
20.1
33.42
45.46
56.28
66.15
75.29
83.82
91.86
99.55
106.97
113.69
118.58
119.91
115.93
105.84
90.33
71.58
52.41
35.16
20.9
9.36
-0.34
-8.85
-16.0
-20.97
-22.97
-21.87
-18.43
-13.86
-9.22
-4.98
-1.08
2.61
5.88
8.04
8.15
5.63
0.52
-6.43
-14.15
-21.67
-28.4
-34.2
-39.18
-43.45
-46.98
-49.64
-51.38
-52.24
-52.44
-52.34
-52.36
-52.89
-54.22
-56.39
-59.14
-61.85
-63.69
-63.73
-61.3
-56.12
-48.5
-39.26
-29.51
-20.34
-12.54
-6.49
-2.12
0.93
3.18
5.13
7.14
9.35
11.69
13.91
15.7
16.76
16.91
16.11
14.47
12.16
9.43
6.56
3.84
1.54
-0.2
-1.34
-2.09
-2.83
-4.04
-6.17
-9.51
-14.02
-19.33
-24.72
-29.27
-32.08
-32.46
-30.11
-25.18
-18.23
-10.09
-1.61
6.46
13.67
19.85
25.03
29.32
32.81
35.51
37.35
38.31
38.4
37.74
36.5
34.92
33.21
31.55
30.08
28.87
27.91
27.12
26.39
25.53
24.38
22.76
20.64
18.13
15.51
13.09
11.13
9.69
8.56
7.4
5.88
3.85
1.39
-1.21
-3.66
-5.84
-7.9
-10.17
-12.96
-16.35
-20.03
-23.32
-25.34
-25.3
-22.72
-17.61
-10.42
-1.87
7.22
16.17
24.49
31.95
38.49
44.17
49.09
53.4
57.22
60.69
63.96
67.13
70.21
73.11
75.6
77.44
78.51
78.98
79.31
80.14
82.0
84.95
88.41
91.25
92.14
90.02
84.46
75.77
64.77
52.5
39.8
27.27
15.22
3.84
-6.71
-16.27
-24.78
-32.33
-39.15
-45.54
-51.73
-57.64
-62.87
-66.75
-68.6
-68.02
-65.07
-60.34
-54.66
-48.83
-43.33
-38.3
-33.62
-29.16
-25.03
-21.49
-18.89
-17.45
-17.08
-17.41
-18.0
-18.52
-18.91
-19.38
-20.29
-21.96
-24.55
-28.0
-32.0
-36.1
-39.79
-42.61
-44.26
-44.76
-44.38
-43.64
-43.1
-43.14
-43.79
-44.75
-45.52
-45.63
-44.87
-43.36
-41.52
-39.93
-39.13
-39.45
-40.89
-43.15
-45.68
-47.8
-48.86
-48.31
-45.8
-41.28
-34.99
-27.44
-19.27
-11.14
-3.65
2.83
8.07
12.07
14.97
17.01
18.45
19.5
20.23
20.66
20.73
20.47
19.97
19.38
18.83
18.36
17.92
17.41
16.72
15.83
14.72
13.37
11.74
9.72
7.24
4.25
0.8
-2.97
-6.88
-10.72
-14.32
-17.55
-20.41
-23.08
-25.81
-28.87
-32.37
-36.15
-39.7
-42.24
-42.97
-41.29
-37.05
-30.59
-22.62
-14.03
-5.65
1.88
8.22
13.17
16.72
18.99
20.26
20.89
21.24
21.57
21.92
22.14
22.08
21.63
20.85
19.89
18.89
17.94
17.01
16.09
15.22
14.45
13.81
13.21
12.46
11.36
9.76
7.66
5.16
2.37
-0.61
-3.7
-6.84
-9.9
-12.78
-15.45
-18.01
-20.7
-23.8
-27.56
-32.01
-36.91
-41.66
-45.4
-47.2
-46.31
-42.46
-35.95
-27.6
-18.48
-9.57
-1.5
5.48
11.43
16.48
20.71
24.07
26.56
28.22
29.24
29.84
30.21
30.37
30.24
29.66
28.61
27.26
25.92
24.98
24.64
24.85
25.26
25.42
24.93
23.61
21.53
18.93
16.07
13.18
10.34
7.56
4.73
1.74
-1.43
-4.73
-7.99
-10.95
-13.42
-15.35
-16.91
-18.5
-20.56
-23.49
-27.38
-31.92
-36.37
-39.71
-40.91
-39.28
-34.71
-27.74
-19.36
-10.65
-2.46
4.75
10.91
16.12
20.45
23.92
26.51
28.22
29.16
29.55
29.6
29.45
29.12
28.57
27.75
26.69
25.51
24.38
23.46
22.74
22.06
21.19
19.85
17.93
15.51
12.82
10.11
7.56
5.18
2.89
0.54
-1.94
-4.57
-7.26
-9.94
-12.56
-15.16
-17.88
-20.89
-24.31
-28.2
-32.43
-36.78
-40.81
-43.95
-45.55
-44.97
-41.79
-35.99
-28.01
-18.74
-9.22
-0.47
6.85
12.49
16.58
19.48
21.53
22.96
23.85
24.15
23.81
22.85
21.41
19.71
18.04
16.6
15.54
14.87
14.52
14.36
14.27
14.14
13.88
13.41
12.68
11.6
10.15
8.31
6.15
3.75
1.17
-1.6
-4.59
-7.87
-11.41
-15.17
-19.05
-23.02
-27.11
-31.39
-35.89
-40.43
-44.55
-47.56
-48.66
-47.19
-42.87
-35.91
-27.0
-17.12
-7.25
1.91
9.98
16.96
22.92
27.89
31.75
34.32
35.52
35.47
34.59
33.35
32.2
31.38
30.91
30.62
30.32
29.86
29.17
28.3
27.3
26.25
25.14
23.89
22.37
20.47
18.19
15.61
12.9
10.2
7.62
5.18
2.85
0.51
-2.0
-4.83
-8.12
-11.86
-15.83
-19.62
-22.65
-24.36
-24.38
-22.6
-19.19
-14.58
-9.26
-3.77
1.37
5.76
9.12
11.38
12.64
13.15
13.23
13.14
13.07
13.12
13.33
13.71
14.25
14.93
15.62
16.14
16.25
15.79
14.7
13.04
10.98
8.63
6.05
3.16
-0.23
-4.22
-8.79
-13.74
-18.75
-23.56
-28.09
-32.47
-37.01
-42.05
-47.84
-54.44
-61.65
-68.99
-75.65
-80.61
-82.82
-81.45
-76.18
-67.28
-55.63
-42.42
-28.86
-15.91
-4.15
6.14
14.91
22.17
27.91
32.16
34.98
36.52
37.01
36.66
35.67
34.11
32.02
29.43
26.46
23.36
20.44
18.0
16.21
15.05
14.28
13.53
12.4
10.57
7.88
4.42
0.46
-3.56
-7.25
-10.36
-12.9
-15.17
-17.69
-21.01
-25.55
-31.4
-38.19
-45.04
-50.73
-53.95
-53.7
-49.55
-41.82
-31.47
-19.79
-8.11
2.55
11.56
18.73
24.14
28.07
30.84
32.76
34.06
34.87
35.19
35.02
34.37
33.37
32.23
31.17
30.32
29.72
29.21
28.6
27.66
26.22
24.21
21.62
18.5
14.95
11.04
6.87
2.49
-2.01
-6.58
-11.14
-15.6
-19.93
-24.1
-28.15
-32.22
-36.46
-41.06
-46.12
-51.53
-56.88
-61.37
-63.95
-63.55
-59.38
-51.24
-39.61
-25.65
-10.78
3.61
16.5
27.38
36.15
42.98
48.06
51.55
53.51
54.02
53.22
51.36
48.79
45.88
42.95
40.27
37.99
36.21
34.96
34.18
33.77
33.59
33.46
33.23
32.78
32.01
30.86
29.25
27.15
24.49
21.27
17.47
13.09
8.17
2.8
-2.93
-8.85
-14.88
-21.0
-27.34
-34.08
-41.3
-48.82
-56.02
-61.86
-65.08
-64.55
-59.64
-50.46
-37.94
-23.56
-9.01
4.25
15.28
23.74
29.76
33.73
36.07
37.15
37.31
36.84
36.06
35.27
34.68
34.39
34.37
34.55
34.84
35.22
35.61
35.93
35.96
35.45
34.16
31.97
28.96
25.37
21.53
17.74
14.13
10.65
7.19
3.6
-0.14
-3.95
-7.68
-11.18
-14.4
-17.35
-20.16
-23.02
-26.22
-30.06
-34.76
-40.3
-46.23
-51.6
-55.12
-55.56
-52.12
-44.88
-34.76
-23.32
-12.2
-2.67
4.7
10.0
13.68
16.26
18.06
19.2
19.7
19.64
19.19
18.6
18.15
18.02
18.31
19.03
20.19
21.74
23.53
25.34
26.84
27.76
27.91
27.32
26.14
24.61
22.88
21.0
18.9
16.44
13.52
10.09
6.18
1.93
-2.49
-6.86
-11.01
-14.88
-18.6
-22.43
-26.66
-31.35
-36.2
-40.45
-43.07
-43.09
-39.97
-33.77
-25.18
-15.23
-5.0
4.66
13.2
20.37
26.03
30.14
32.68
33.74
33.55
32.48
30.92
29.18
27.49
25.89
24.34
22.76
21.08
19.29
17.42
15.55
13.71
11.91
10.07
8.04
5.68
2.91
-0.29
-3.8
-7.48
-11.11
-14.49
-17.43
-19.86
-21.83
-23.57
-25.46
-27.93
-31.32
-35.58
-40.21
-44.28
-46.63
-46.26
-42.69
-36.1
-27.34
-17.6
-8.08
0.34
7.27
12.7
16.85
19.92
22.04
23.29
23.78
23.65
23.11
22.33
21.37
20.15
18.59
16.67
14.57
12.62
11.2
10.52
10.54
10.86
10.93
10.17
8.2
4.97
0.74
-3.98
-8.63
-12.75
-16.18
-19.02
-21.64
-24.53
-28.11
-32.59
-37.73
-42.87
-46.99
-48.99
-47.96
-43.57
-36.11
-26.46
-15.82
-5.33
4.13
12.09
18.4
23.19
26.62
28.91
30.29
30.98
31.21
31.14
30.87
30.36
29.52
28.29
26.64
24.71
22.73
20.94
19.5
18.39
17.35
15.98
13.85
10.72
6.64
1.95
-2.8
-7.08
-10.54
-13.21
-15.43
-17.74
-20.72
-24.78
-30.0
-36.08
-42.3
-47.61
-50.89
-51.15
-47.88
-41.26
-32.09
-21.63
-11.16
-1.72
6.21
12.61
17.79
22.12
25.78
28.73
30.82
31.89
31.97
31.28
30.17
29.03
28.1
27.48
27.1
26.88
26.7
26.51
26.29
26.01
25.61
24.96
23.93
22.47
20.53
18.2
15.55
12.64
9.44
5.93
2.05
-2.15
-6.56
-11.08
-15.66
-20.41
-25.51
-31.12
-37.19
-43.35
-48.9
-52.84
-54.2
-52.23
-46.78
-38.28
-27.79
-16.63
-6.09
2.9
9.95
15.11
18.73
21.15
22.64
23.35
23.35
22.74
21.65
20.24
18.66
17.01
15.4
13.97
12.85
12.23
12.19
12.71
13.56
14.35
14.69
14.24
12.95
10.98
8.69
6.4
4.29
2.34
0.4
-1.69
-3.96
-6.37
-8.81
-11.23
-13.7
-16.37
-19.35
-22.77
-26.7
-31.19
-36.25
-41.65
-46.87
-51.0
-53.0
-51.95
-47.43
-39.69
-29.6
-18.42
-7.39
2.55
10.85
17.39
22.33
25.93
28.46
30.13
31.09
31.51
31.52
31.31
31.02
30.75
30.52
30.25
29.9
29.4
28.74
27.88
26.74
25.2
23.16
20.58
17.53
14.15
10.61
7.03
3.51
0.08
-3.19
-6.25
-9.04
-11.56
-13.82
-15.92
-17.98
-20.17
-22.7
-25.75
-29.37
-33.36
-37.15
-39.87
-40.58
-38.58
-33.7
-26.39
-17.61
-8.48
-0.0
7.2
12.94
17.34
20.68
23.24
25.24
26.81
28.06
29.04
29.79
30.32
30.66
30.81
30.76
30.48
29.97
29.22
28.34
27.47
26.7
26.04
25.25
23.97
21.82
18.65
14.56
9.93
5.21
0.71
-3.46
-7.37
-11.09
-14.62
-17.87
-20.73
-23.21
-25.46
-27.78
-30.47
-33.75
-37.68
-42.08
-46.47
-50.12
-52.17
-51.84
-48.65
-42.63
-34.24
-24.33
-13.84
-3.68
5.46
13.1
19.0
23.13
25.62
26.73
26.83
26.27
25.38
24.36
23.33
22.32
21.34
20.46
19.8
19.52
19.69
20.24
20.94
21.51
21.68
21.31
20.43
19.14
17.53
15.68
13.55
11.13
8.39
5.37
2.14
-1.28
-4.85
-8.58
-12.41
-16.22
-19.85
-23.24
-26.41
-29.56
-32.92
-36.6
-40.44
-43.92
-46.26
-46.72
-44.76
-40.35
-33.9
-26.13
-17.87
-9.82
-2.45
4.0
9.48
14.05
17.83
20.91
23.41
25.35
26.73
27.52
27.76
27.53
27.02
26.42
25.88
25.42
24.92
24.21
23.09
21.51
19.52
17.27
14.93
12.64
10.45
8.35
6.27
4.16
1.95
-0.43
-3.01
-5.81
-8.77
-11.79
-14.75
-17.53
-20.16
-22.75
-25.52
-28.66
-32.2
-35.83
-38.92
-40.63
-40.22
-37.28
-31.94
-24.86
-17.01
-9.37
-2.62
2.91
7.25
10.56
13.03
14.78
15.91
16.53
16.79
16.87
16.96
17.16
17.51
17.99
18.56
19.22
19.93
20.66
21.33
21.85
22.08
21.91
21.18
19.8
17.7
14.87
11.47
7.7
3.87
0.26
-2.97
-5.74
-8.15
-10.38
-12.62
-15.04
-17.75
-20.71
-23.81
-26.76
-29.16
-30.56
-30.53
-28.8
-25.36
-20.44
-14.5
-8.09
-1.73
4.13
9.21
13.32
16.37
18.35
19.35
19.51
19.02
18.02
16.63
14.91
12.93
10.8
8.68
6.78
5.18
3.91
2.85
1.86
0.85
-0.19
-1.21
-2.16
-3.1
-4.16
-5.5
-7.2
-9.25
-11.47
-13.62
-15.52
-17.06
-18.39
-19.73
-21.4
-23.61
-26.37
-29.46
-32.42
-34.61
-35.41
-34.33
-31.19
-26.18
-19.84
-12.93
-6.2
-0.23
4.71
8.61
11.6
13.82
15.4
16.44
17.1
17.55
17.99
18.51
19.15
19.81
20.41
20.86
21.12
21.18
20.96
20.4
19.42
18.04
16.31
14.29
11.99
9.36
6.32
2.87
-0.85
-4.61
-8.08
-11.03
-13.39
-15.28
-16.98
-18.82
-21.03
-23.71
-26.68
-29.59
-31.86
-32.9
-32.2
-29.51
-24.92
-18.9
-12.14
-5.37
0.8
6.02
10.24
13.6
16.3
18.47
20.12
21.19
21.6
21.32
20.43
19.12
17.57
15.94
14.34
12.81
11.35
9.97
8.7
7.6
6.72
6.05
5.51
4.96
4.24
3.23
1.88
0.23
-1.59
-3.48
-5.35
-7.19
-9.06
-11.0
-13.05
-15.26
-17.63
-20.25
-23.18
-26.51
-30.23
-34.16
-37.83
-40.53
-41.5
-40.12
-36.18
-30.04
-22.45
-14.41
-6.81
-0.26
5.01
9.02
11.93
13.96
15.3
16.16
16.68
17.04
17.28
17.41
17.42
17.31
17.1
16.86
16.63
16.43
16.22
15.93
15.52
14.92
14.11
13.09
11.86
10.42
8.81
7.04
5.1
2.99
0.73
-1.6
-3.92
-6.08
-8.0
-9.62
-10.94
-12.02
-12.94
-13.91
-15.14
-16.83
-19.07
-21.74
-24.46
-26.67
-27.74
-27.21
-24.87
-20.85
-15.61
-9.78
-4.01
1.17
5.47
8.82
11.3
13.06
14.2
14.77
14.83
14.51
13.98
13.45
13.08
12.9
12.88
12.96
13.09
13.3
13.64
14.15
14.77
15.41
15.9
16.1
15.89
15.23
14.11
12.56
10.65
8.46
6.13
3.74
1.39
-0.97
-3.41
-6.1
-9.17
-12.7
-16.65
-20.86
-25.02
-28.69
-31.38
-32.63
-32.16
-29.92
-26.19
-21.47
-16.38
-11.51
-7.28
-3.92
-1.4
0.45
1.86
2.98
3.87
4.4
4.42
3.8
2.61
1.07
-0.45
-1.6
-2.19
-2.16
-1.57
-0.5
1.0
2.89
5.03
7.21
9.11
10.44
10.95
10.62
9.54
8.0
6.27
4.56
2.97
1.43
-0.23
-2.2
-4.61
-7.49
-10.72
-14.01
-16.96
-19.08
-19.91
-19.1
-16.59
-12.61
-7.67
-2.45
2.44
6.53
9.58
11.56
12.58
12.76
12.31
11.44
10.41
9.43
8.67
8.17
7.86
7.58
7.2
6.6
5.79
4.88
4.02
3.34
2.89
2.59
2.31
1.84
1.04
-0.21
-1.91
-4.03
-6.51
-9.3
-12.3
-15.45
-18.68
-21.96
-25.27
-28.51
-31.42
-33.59
-34.47
-33.6
-30.76
-26.12
-20.19
-13.67
-7.2
-1.28
3.89
8.27
11.93
14.9
17.2
18.83
19.86
20.42
20.63
20.62
20.45
20.12
19.58
18.79
17.74
16.5
15.17
13.84
12.59
11.38
10.09
8.57
6.66
4.25
1.41
-1.72
-4.86
-7.77
-10.3
-12.49
-14.56
-16.82
-19.54
-22.88
-26.71
-30.62
-33.99
-36.1
-36.32
-34.32
-30.21
-24.48
-17.91
-11.31
-5.31
-0.26
3.83
7.07
9.67
11.73
13.33
14.49
15.27
15.75
16.02
16.1
16.03
15.86
15.69
15.66
15.85
16.24
16.66
16.89
16.74
16.18
15.29
14.23
13.09
11.87
10.49
8.89
7.01
4.86
2.4
-0.39
-3.54
-7.02
-10.77
-14.66
-18.64
-22.72
-26.95
-31.28
-35.45
-38.92
-41.01
-41.02
-38.57
-33.66
-26.81
-18.79
-10.55
-2.85
3.8
9.2
13.43
16.69
19.23
21.2
22.69
23.64
23.94
23.51
22.36
20.69
18.86
17.24
16.12
15.55
15.38
15.35
15.2
14.77
14.03
13.06
11.91
10.62
9.19
7.59
5.8
3.81
1.6
-0.8
-3.32
-5.84
-8.23
-10.39
-12.33
-14.13
-15.95
-18.03
-20.55
-23.63
-27.16
-30.69
-33.52
-34.81
-33.92
-30.61
-25.22
-18.51
-11.35
-4.47
1.78
7.27
12.03
16.0
19.07
21.13
22.26
22.68
22.74
22.72
22.72
22.6
22.18
21.33
20.14
18.91
17.97
17.54
17.56
17.73
17.68
17.1
15.9
14.21
12.24
10.11
7.82
5.26
2.39
-0.72
-3.85
-6.76
-9.3
-11.52
-13.59
-15.77
-18.27
-21.24
-24.72
-28.6
-32.55
-36.01
-38.19
-38.33
-35.9
-30.89
-23.77
-15.42
-6.77
1.45
8.85
15.32
20.95
25.84
29.96
33.24
35.56
36.89
37.28
36.84
35.69
33.92
31.63
28.89
25.83
22.62
19.45
16.5
13.88
11.64
9.75
8.09
6.45
4.57
2.19
-0.82
-4.38
-8.21
-11.95
-15.28
-18.1
-20.59
-23.06
-25.84
-29.12
-32.85
-36.73
-40.25
-42.82
-43.86
-42.93
-39.85
-34.78
-28.15
-20.6
-12.81
-5.37
1.33
7.07
11.75
15.38
17.96
19.58
20.35
20.43
20.01
19.31
18.49
17.69
16.97
16.37
15.88
15.49
15.22
15.09
15.11
15.18
15.11
14.62
13.44
11.41
8.56
5.09
1.32
-2.42
-5.93
-9.15
-12.2
-15.32
-18.79
-22.86
-27.65
-33.01
-38.52
-43.42
-46.79
-47.75
-45.79
-40.9
-33.7
-25.13
-16.23
-7.77
-0.21
6.37
12.0
16.77
20.68
23.71
25.86
27.2
27.81
27.77
27.15
26.08
24.75
23.39
22.17
21.14
20.2
19.23
18.15
17.03
16.02
15.19
14.42
13.47
12.05
10.02
7.47
4.66
1.84
-0.83
-3.36
-5.84
-8.38
-11.09
-14.12
-17.63
-21.82
-26.71
-32.03
-37.14
-41.05
-42.75
-41.52
-37.2
-30.32
-21.86
-12.99
-4.64
2.64
8.74
13.75
17.79
20.86
22.95
24.07
24.43
24.38
24.26
24.29
24.47
24.65
24.66
24.44
24.01
23.49
22.97
22.49
21.98
21.36
20.54
19.47
18.06
16.23
13.9
11.0
7.55
3.7
-0.32
-4.27
-8.01
-11.47
-14.7
-17.82
-20.93
-24.11
-27.46
-31.14
-35.26
-39.81
-44.43
-48.38
-50.63
-50.21
-46.55
-39.77
-30.63
-20.3
-9.96
-0.5
7.6
14.22
19.44
23.4
26.23
28.05
28.99
29.18
28.77
27.86
26.58
25.03
23.37
21.74
20.34
19.29
18.65
18.39
18.43
18.6
18.76
18.76
18.48
17.89
16.96
15.74
14.24
12.52
10.62
8.57
6.42
4.22
2.01
-0.19
-2.41
-4.7
-7.18
-9.98
-13.29
-17.26
-21.93
-27.05
-32.04
-35.97
-37.82
-36.77
-32.56
-25.59
-16.88
-7.7
0.81
7.94
13.49
17.62
20.6
22.67
23.9
24.36
24.18
23.56
22.77
22.05
21.5
21.08
20.66
20.12
19.4
18.57
17.79
17.18
16.79
16.48
15.98
15.02
13.43
11.25
8.72
6.15
3.81
1.79
-0.01
-1.72
-3.46
-5.2
-6.84
-8.23
-9.36
-10.36
-11.56
-13.31
-15.91
-19.45
-23.71
-28.18
-32.11
-34.73
-35.39
-33.74
-29.82
-24.05
-17.13
-9.9
-3.11
2.68
7.22
10.5
12.67
13.87
14.23
13.82
12.77
11.31
9.74
8.41
7.55
7.27
7.51
8.11
8.95
9.88
10.82
11.69
12.42
12.93
13.16
13.07
12.58
11.61
10.06
7.91
5.21
2.1
-1.2
-4.49
-7.61
-10.47
-13.07
-15.43
-17.7
-20.03
-22.64
-25.67
-29.12
-32.72
-35.95
-38.13
-38.56
-36.76
-32.59
-26.39
-18.79
-10.67
-2.82
4.12
9.83
14.22
17.31
19.21
20.01
19.84
18.89
17.44
15.75
14.09
12.62
11.44
10.58
10.02
9.69
9.5
9.34
9.13
8.8
8.37
7.85
7.22
6.4
5.32
3.89
2.13
0.14
-1.91
-3.86
-5.6
-7.07
-8.33
-9.51
-10.79
-12.41
-14.53
-17.24
-20.43
-23.8
-26.82
-28.85
-29.32
-27.85
-24.43
-19.41
-13.47
-7.34
-1.68
3.14
6.99
9.94
12.09
13.51
14.24
14.3
13.82
13.02
12.13
11.37
10.83
10.51
10.3
10.14
10.03
9.99
10.06
10.19
10.27
10.13
9.6
8.58
7.11
5.27
3.2
1.03
-1.14
-3.34
-5.67
-8.27
-11.31
-14.81
-18.69
-22.64
-26.2
-28.81
-29.98
-29.38
-26.95
-22.86
-17.5
-11.39
-5.04
1.06
6.56
11.25
15.04
17.91
19.9
21.05
21.44
21.17
20.38
19.21
17.77
16.15
14.38
12.51
10.6
8.8
7.26
6.13
5.39
4.92
4.46
3.74
2.56
0.85
-1.32
-3.78
-6.36
-8.94
-11.53
-14.23
-17.2
-20.61
-24.49
-28.65
-32.68
-35.95
-37.79
-37.71
-35.49
-31.33
-25.74
-19.37
-12.83
-6.56
-0.84
4.18
8.34
11.51
13.6
14.68
14.96
14.79
14.46
14.17
13.97
13.81
13.62
13.38
13.13
12.9
12.7
12.48
12.12
11.51
10.57
9.26
7.56
5.48
3.04
0.29
-2.71
-5.93
-9.36
-13.02
-16.97
-21.27
-25.85
-30.48
-34.64
-37.65
-38.77
-37.47
-33.65
-27.73
-20.52
-13.0
-5.99
0.03
4.95
8.89
12.03
14.46
16.17
17.11
17.26
16.75
15.79
14.68
13.66
12.9
12.45
12.27
12.26
12.34
12.43
12.46
12.36
12.04
11.39
10.31
8.74
6.72
4.35
1.81
-0.75
-3.25
-5.73
-8.36
-11.36
-14.9
-18.91
-23.05
-26.68
-29.0
-29.27
-27.07
-22.47
-16.05
-8.76
-1.61
4.63
9.6
13.32
16.07
18.11
19.56
20.36
20.41
19.72
18.45
16.97
15.63
14.69
14.2
14.04
13.99
13.88
13.64
13.28
12.82
12.21
11.39
10.27
8.82
7.06
5.08
2.97
0.82
-1.33
-3.42
-5.41
-7.3
-9.18
-11.23
-13.69
-16.81
-20.64
-24.96
-29.23
-32.68
-34.5
-34.13
-31.37
-26.51
-20.2
-13.21
-6.25
0.2
5.9
10.81
14.92
18.26
20.86
22.75
24.02
24.79
25.21
25.44
25.59
25.71
25.76
25.6
25.09
24.14
22.76
21.08
19.26
17.42
15.55
13.57
11.41
9.09
6.72
4.45
2.4
0.55
-1.21
-3.06
-5.05
-7.17
-9.3
-11.32
-13.21
-15.04
-17.02
-19.32
-22.03
-24.96
-27.66
-29.47
-29.72
-28.01
-24.38
-19.32
-13.59
-7.94
-2.9
1.36
4.92
7.94
10.48
12.48
13.79
14.31
14.08
13.33
12.38
11.54
11.05
10.98
11.25
11.73
12.32
12.98
13.72
14.57
15.47
16.24
16.62
16.35
15.25
13.32
10.7
7.64
4.38
1.08
-2.19
-5.46
-8.78
-12.17
-15.64
-19.16
-22.65
-25.97
-28.84
-30.89
-31.69
-30.91
-28.44
-24.43
-19.27
-13.46
-7.47
-1.64
3.8
8.64
12.66
15.65
17.4
17.92
17.4
16.21
14.76
13.39
12.25
11.34
10.55
9.8
9.05
8.36
7.87
7.67
7.83
8.35
9.08
9.81
10.27
10.25
9.67
8.68
7.58
6.79
6.67
7.4
8.96
11.07
13.31
15.29
16.81
18.05
19.62
22.38
27.17
34.43
44.03
55.18
66.75
77.5
86.47
93.0
96.78
97.69
95.74
91.08
84.06
75.3
65.59
55.73
46.36
37.82
30.17
23.3
17.09
11.49
6.51
2.17
-1.58
-4.8
-7.52
-9.65
-11.07
-11.75
-11.83
-11.68
-11.74
-12.37
-13.73
-15.78
-18.4
-21.5
-25.09
-29.23
-33.91
-39.02
-44.3
-49.41
-53.98
-57.64
-60.07
-60.98
-60.24
-57.81
-53.84
-48.62
-42.56
-36.11
-29.76
-23.96
-19.01
-15.07
-12.08
-9.88
-8.31
-7.27
-6.8
-6.99
-7.85
-9.26
-10.94
-12.49
-13.57
-13.97
-13.71
-12.98
-12.06
-11.17
-10.44
-9.83
-9.21
-8.45
-7.54
-6.55
-5.64
-4.97
-4.54
-4.3
-4.12
-3.92
-3.69
-3.53
-3.6
-4.07
-5.09
-6.66
-8.63
-10.7
-12.4
-13.24
-12.82
-10.99
-7.92
-4.04
0.13
4.11
7.59
10.48
12.8
14.6
15.89
16.65
16.87
16.6
15.96
15.14
14.3
13.55
12.93
12.44
12.0
11.55
10.99
10.31
9.48
8.58
7.69
6.83
5.94
4.89
3.48
1.61
-0.73
-3.41
-6.21
-8.95
-11.55
-13.99
-16.27
-18.4
-20.35
-22.11
-23.75
-25.42
-27.28
-29.41
-31.78
-34.23
-36.49
-38.26
-39.32
-39.5
-38.75
-37.13
-34.8
-32.08
-29.38
-27.08
-25.43
-24.51
-24.18
-24.25
-24.61
-25.21
-26.06
-27.05
-27.9
-28.14
-27.37
-25.48
-22.8
-20.0
-17.77
-16.5
-16.1
-16.08
-15.86
-15.08
-13.72
-12.11
-10.67
-9.77
-9.6
-10.17
-11.36
-13.1
-15.33
-18.04
-21.14
-24.45
-27.64
-30.33
-32.23
-33.22
-33.41
-33.02
-32.2
-30.9
-28.82
-25.6
-21.04
-15.24
-8.61
-1.75
4.82
10.74
15.89
20.25
23.89
26.85
29.11
30.64
31.42
31.45
30.75
29.43
27.59
25.38
22.94
20.36
17.68
14.91
12.09
9.28
6.59
4.09
1.69
-0.82
-3.75
-7.27
-11.26
-15.26
-18.62
-20.81
-21.7
-21.62
-21.19
-21.06
-21.6
-22.86
-24.59
-26.44
-28.03
-29.01
-29.01
-27.71
-24.96
-20.85
-15.72
-10.12
-4.55
0.61
5.24
9.37
13.13
16.62
19.81
22.59
24.77
26.19
26.81
26.73
26.19
25.44
24.62
23.75
22.72
21.38
19.7
17.83
16.02
14.53
13.46
12.74
12.07
11.08
9.46
7.08
4.02
0.55
-3.02
-6.41
-9.51
-12.33
-15.0
-17.68
-20.53
-23.65
-27.12
-30.93
-34.87
-38.57
-41.44
-42.82
-42.18
-39.3
-34.34
-27.82
-20.46
-12.96
-5.87
0.52
6.06
10.75
14.6
17.62
19.78
21.09
21.62
21.49
20.91
20.05
19.03
17.94
16.82
15.72
14.73
13.91
13.26
12.71
12.05
11.07
9.57
7.5
4.95
2.15
-0.66
-3.3
-5.79
-8.31
-11.15
-14.57
-18.64
-23.17
-27.68
-31.57
-34.2
-35.05
-33.83
-30.56
-25.54
-19.26
-12.34
-5.34
1.3
7.3
12.52
16.85
20.19
22.49
23.72
24.02
23.67
23.0
22.3
21.71
21.21
20.69
20.13
19.58
19.2
19.11
19.27
19.47
19.35
18.53
16.73
13.9
10.21
6.0
1.71
-2.31
-5.87
-8.99
-11.88
-14.85
-18.27
-22.41
-27.36
-32.93
-38.57
-43.36
-46.2
-46.12
-42.64
-35.95
-26.89
-16.68
-6.52
2.72
10.61
17.04
22.11
25.88
28.41
29.77
30.15
29.85
29.25
28.7
28.41
28.39
28.44
28.3
27.76
26.8
25.55
24.25
23.05
21.91
20.58
18.68
15.94
12.28
7.96
3.37
-1.07
-5.12
-8.79
-12.23
-15.67
-19.3
-23.28
-27.77
-32.86
-38.52
-44.34
-49.54
-52.99
-53.58
-50.59
-44.01
-34.62
-23.67
-12.54
-2.31
6.42
13.45
18.92
22.99
25.8
27.5
28.22
28.2
27.72
27.06
26.44
25.99
25.74
25.65
25.63
25.58
25.45
25.22
24.93
24.62
24.3
23.88
23.21
22.12
20.42
18.03
14.96
11.29
7.15
2.68
-1.91
-6.45
-10.75
-14.78
-18.66
-22.69
-27.24
-32.57
-38.57
-44.74
-50.12
-53.57
-54.05
-50.93
-44.23
-34.59
-23.15
-11.29
-0.25
9.07
16.32
21.58
25.24
27.75
29.47
30.62
31.31
31.61
31.64
31.5
31.28
31.05
30.81
30.61
30.48
30.43
30.4
30.23
29.69
28.6
26.9
24.71
22.23
19.69
17.25
14.91
12.58
10.13
7.45
4.46
1.19
-2.29
-5.85
-9.4
-12.88
-16.36
-20.01
-24.07
-28.76
-34.05
-39.56
-44.5
-47.74
-48.19
-45.12
-38.5
-29.06
-18.04
-6.79
3.59
12.49
19.77
25.52
29.86
32.84
34.44
34.74
33.97
32.5
30.79
29.2
27.92
26.97
26.22
25.58
24.98
24.44
24.03
23.75
23.52
23.17
22.48
21.3
19.55
17.24
14.48
11.38
8.08
4.72
1.41
-1.78
-4.87
-7.92
-11.04
-14.36
-18.01
-22.1
-26.73
-31.87
-37.28
-42.38
-46.31
-48.08
-46.91
-42.48
-35.11
-25.65
-15.23
-4.95
4.38
12.28
18.57
23.24
26.38
28.09
28.54
27.97
26.67
24.98
23.2
21.56
20.19
19.11
18.28
17.63
17.14
16.8
16.58
16.43
16.16
15.51
14.23
12.11
9.16
5.59
1.74
-1.99
-5.33
-8.23
-10.85
-13.53
-16.66
-20.58
-25.48
-31.32
-37.7
-43.9
-48.85
-51.45
-50.79
-46.56
-39.12
-29.46
-18.83
-8.41
1.03
9.14
15.88
21.32
25.45
28.25
29.72
30.0
29.36
28.12
26.63
25.05
23.49
21.94
20.42
19.0
17.82
17.02
16.64
16.53
16.4
15.82
14.4
11.92
8.46
4.35
0.02
-4.14
-8.0
-11.73
-15.69
-20.3
-25.83
-32.25
-39.15
-45.69
-50.82
-53.39
-52.56
-47.97
-39.97
-29.48
-17.78
-6.14
4.46
13.53
20.92
26.75
31.12
34.11
35.72
36.03
35.22
33.6
31.56
29.43
27.45
25.64
23.93
22.22
20.44
18.65
16.99
15.6
14.51
13.58
12.53
11.01
8.73
5.6
1.78
-2.43
-6.7
-10.82
-14.77
-18.75
-23.03
-27.85
-33.36
-39.45
-45.71
-51.33
-55.27
-56.42
-53.96
-47.68
-38.11
-26.38
-13.94
-2.11
8.17
16.45
22.74
27.26
30.28
32.02
32.67
32.44
31.63
30.56
29.6
28.98
28.77
28.82
28.86
28.64
28.04
27.15
26.19
25.37
24.77
24.27
23.55
22.26
20.08
16.89
12.78
8.06
3.16
-1.52
-5.74
-9.5
-12.97
-16.45
-20.26
-24.63
-29.68
-35.4
-41.48
-47.25
-51.65
-53.48
-51.72
-45.98
-36.74
-25.25
-13.1
-1.74
7.9
15.56
21.37
25.65
28.65
30.52
31.37
31.42
30.94
30.23
29.49
28.79
28.09
27.33
26.56
25.91
25.58
25.64
25.96
26.21
25.96
24.95
23.17
20.91
18.57
16.45
14.59
12.75
10.6
7.93
4.84
1.66
-1.25
-3.7
-5.85
-8.09
-10.98
-14.98
-20.37
-27.16
-35.0
-43.14
-50.43
-55.49
-57.07
-54.4
-47.53
-37.38
-25.42
-13.29
-2.32
6.73
13.62
18.5
21.65
23.41
24.09
24.03
23.56
23.03
22.72
22.77
23.22
23.92
24.71
25.44
26.06
26.61
27.14
27.62
27.86
27.61
26.63
24.79
22.2
19.09
15.74
12.37
9.02
5.62
2.03
-1.81
-5.88
-9.97
-13.8
-17.05
-19.51
-21.22
-22.51
-23.92
-26.03
-29.19
-33.24
-37.49
-40.87
-42.2
-40.67
-36.04
-28.75
-19.77
-10.23
-1.17
6.78
13.36
18.64
22.79
25.92
28.07
29.19
29.23
28.27
26.51
24.32
22.11
20.25
19.01
18.45
18.49
18.92
19.49
19.99
20.3
20.33
20.01
19.33
18.22
16.69
14.73
12.38
9.68
6.7
3.52
0.25
-2.95
-5.95
-8.68
-11.21
-13.7
-16.44
-19.69
-23.6
-28.08
-32.71
-36.78
-39.36
-39.62
-37.01
-31.53
-23.73
-14.6
-5.24
3.37
10.59
16.16
20.08
22.52
23.67
23.72
22.85
21.33
19.47
17.61
16.04
14.91
14.15
13.55
12.87
11.91
10.7
9.39
8.21
7.28
6.52
5.66
4.35
2.26
-0.71
-4.42
-8.54
-12.59
-16.16
-19.03
-21.25
-23.06
-24.87
-27.05
-29.86
-33.32
-37.2
-40.98
-43.91
-45.13
-43.89
-39.76
-32.89
-23.97
-14.11
-4.46
4.08
11.13
16.73
21.16
24.68
27.37
29.13
29.9
29.68
28.7
27.25
25.65
24.08
22.59
21.14
19.65
18.11
16.6
15.25
14.21
13.51
13.09
12.7
12.09
10.95
9.17
6.76
3.91
0.86
-2.18
-5.17
-8.17
-11.32
-14.75
-18.56
-22.8
-27.48
-32.59
-38.02
-43.43
-48.15
-51.26
-51.79
-49.09
-43.08
-34.4
-24.24
-13.98
-4.8
2.66
8.27
12.33
15.23
17.36
18.9
20.0
20.76
21.34
21.88
22.47
23.06
23.53
23.72
23.62
23.33
23.04
22.95
23.08
23.26
23.17
22.44
20.79
18.19
14.77
10.8
6.62
2.53
-1.27
-4.64
-7.56
-10.12
-12.42
-14.58
-16.68
-18.78
-20.92
-23.26
-26.03
-29.42
-33.38
-37.45
-40.8
-42.41
-41.53
-37.93
-32.01
-24.62
-16.76
-9.24
-2.57
3.12
7.83
11.6
14.44
16.3
17.15
17.08
16.32
15.22
14.15
13.38
13.0
12.88
12.83
12.7
12.45
12.23
12.25
12.58
13.14
13.61
13.57
12.67
10.8
8.08
4.87
1.61
-1.36
-3.9
-6.13
-8.35
-10.95
-14.27
-18.46
-23.36
-28.44
-32.86
-35.61
-35.83
-33.04
-27.4
-19.66
-10.93
-2.35
5.23
11.39
16.1
19.55
21.94
23.39
23.92
23.57
22.48
20.87
19.04
17.27
15.76
14.57
13.67
12.92
12.19
11.4
10.54
9.68
8.89
8.21
7.53
6.67
5.37
3.5
1.04
-1.83
-4.81
-7.59
-9.93
-11.77
-13.24
-14.61
-16.25
-18.49
-21.5
-25.17
-29.03
-32.31
-34.11
-33.69
-30.69
-25.27
-18.11
-10.17
-2.49
4.16
9.34
13.02
15.45
16.95
17.81
18.21
18.27
18.05
17.64
17.14
16.64
16.18
15.76
15.35
14.91
14.41
13.83
13.19
12.53
11.88
11.28
10.7
10.05
9.18
7.97
6.33
4.29
1.95
-0.53
-3.02
-5.43
-7.71
-9.83
-11.82
-13.78
-15.92
-18.48
-21.63
-25.32
-29.19
-32.56
-34.55
-34.32
-31.39
-25.75
-17.95
-8.9
0.41
9.12
16.7
22.98
28.02
31.97
34.96
37.05
38.3
38.8
38.73
38.32
37.83
37.46
37.36
37.59
38.15
39.07
40.41
42.24
44.6
47.43
50.53
53.59
56.23
58.14
59.11
58.95
57.5
54.47
49.53
42.37
32.91
21.41
8.46
-5.14
-18.59
-31.31
-42.99
-53.61
-63.33
-72.38
-80.87
-88.65
-95.21
-99.76
-101.38
-99.3
-93.23
-83.46
-70.86
-56.61
-41.91
-27.7
-14.55
-2.73
7.7
16.72
24.32
30.56
35.55
39.48
42.62
45.24
47.6
50.01
52.71
55.94
59.83
64.29
69.04
73.56
77.26
79.51
79.76
77.68
73.24
66.78
58.98
50.75
42.9
35.93
29.82
24.19
18.5
12.42
6.01
-0.35
-6.11
-10.89
-14.54
-17.18
-19.09
-20.56
-21.93
-23.68
-26.47
-30.95
-37.52
-45.91
-55.1
-63.52
-69.54
-72.13
-71.23
-67.75
-63.11
-58.61
-54.87
-51.84
-49.02
-45.96
-42.67
-39.56
-37.15
-35.77
-35.28
-35.2
-35.02
-34.4
-33.37
-32.18
-31.05
-30.04
-28.99
-27.68
-25.98
-23.93
-21.73
-19.65
-17.88
-16.51
-15.55
-15.02
-14.85
-14.99
-15.33
-15.72
-16.04
-16.31
-16.63
-17.22
-18.31
-20.05
-22.47
-25.43
-28.58
-31.35
-33.02
-32.91
-30.57
-26.02
-19.76
-12.63
-5.51
0.95
6.42
10.85
14.31
16.82
18.35
18.86
18.45
17.33
15.83
14.23
12.72
11.34
10.08
8.92
7.87
6.97
6.22
5.6
5.12
4.81
4.75
5.06
5.73
6.63
7.5
8.02
7.99
7.33
6.11
4.53
2.73
0.78
-1.34
-3.74
-6.58
-9.96
-13.93
-18.42
-23.13
-27.56
-31.01
-32.75
-32.21
-29.17
-23.87
-16.96
-9.33
-1.84
4.86
10.41
14.7
17.76
19.7
20.63
20.66
20.02
18.99
17.92
17.1
16.64
16.46
16.34
16.1
15.7
15.29
15.08
15.21
15.6
15.98
16.04
15.55
14.53
13.15
11.61
9.98
8.23
6.26
4.08
1.81
-0.35
-2.26
-3.94
-5.55
-7.28
-9.27
-11.53
-13.93
-16.25
-18.21
-19.44
-19.5
-17.94
-14.44
-8.95
-1.89
6.0
13.81
20.76
26.47
30.98
34.69
38.04
41.32
44.56
47.6
50.19
52.17
53.6
54.63
55.52
56.43
57.42
58.36
58.91
58.67
57.33
54.81
51.33
47.33
43.22
39.13
34.83
29.78
23.44
15.54
6.26
-3.78
-13.68
-22.53
-29.69
-34.96
-38.79
-42.22
-46.64
-53.29
-62.7
-74.3
-86.44
-96.86
-103.33
-104.33
-99.33
-88.79
-73.95
-56.47
-38.2
-20.96
-6.34
4.53
11.18
13.91
13.58
11.32
8.15
4.66
0.97
-3.15
-8.05
-13.97
-20.84
-28.17
-34.98
-40.0
-41.98
-40.14
-34.63
-26.56
-17.75
-10.09
-4.92
-2.64
-2.77
-4.35
-6.51
-8.79
-11.18
-13.94
-17.3
-21.35
-26.0
-31.12
-36.59
-42.29
-48.07
-53.62
-58.4
-61.66
-62.62
-60.7
-55.71
-48.05
-38.57
-28.41
-18.63
-9.96
-2.65
3.43
8.58
13.07
16.98
20.19
22.49
23.79
24.12
23.71
22.89
21.99
21.25
20.79
20.64
20.7
20.8
20.79
20.5
19.86
18.81
17.3
15.25
12.64
9.55
6.2
2.91
-0.05
-2.56
-4.76
-6.93
-9.39
-12.34
-15.86
-19.87
-24.2
-28.5
-32.21
-34.62
-35.03
-33.04
-28.81
-22.97
-16.44
-10.04
-4.26
0.8
5.29
9.3
12.8
15.58
17.44
18.33
18.41
17.95
17.25
16.51
15.82
15.15
14.48
13.86
13.35
13.06
12.99
13.04
12.94
12.39
11.11
9.02
6.22
2.94
-0.5
-3.89
-7.12
-10.27
-13.54
-17.24
-21.67
-26.92
-32.79
-38.63
-43.45
-46.16
-45.91
-42.38
-35.91
-27.31
-17.64
-7.92
1.13
9.08
15.73
21.04
25.08
27.91
29.65
30.46
30.51
29.99
29.11
28.03
26.82
25.5
24.05
22.47
20.82
19.23
17.75
16.3
14.6
12.26
8.95
4.6
-0.53
-5.91
-10.96
-15.2
-18.5
-21.04
-23.26
-25.73
-28.96
-33.23
-38.46
-44.1
-49.18
-52.47
-52.8
-49.4
-42.2
-31.84
-19.52
-6.57
5.85
16.96
26.45
34.3
40.65
45.71
49.65
52.65
54.89
56.56
57.86
58.95
59.9
60.69
61.17
61.1
60.25
58.44
55.72
52.39
48.89
45.62
42.79
40.25
37.57
34.29
30.11
25.08
19.57
14.06
8.95
4.41
0.36
-3.5
-7.59
-12.25
-17.63
-23.45
-28.77
-32.12
-31.85
-26.76
-16.79
-3.27
11.33
24.2
33.02
36.63
35.1
29.37
20.82
10.77
0.43
-9.14
-16.97
-22.23
-24.49
-23.85
-20.94
-16.77
-12.35
-8.43
-5.38
-3.18
-1.59
-0.36
0.68
1.62
2.44
3.09
3.49
3.55
3.16
2.24
0.76
-1.26
-3.72
-6.53
-9.58
-12.79
-16.07
-19.39
-22.77
-26.3
-30.16
-34.47
-39.2
-44.04
-48.3
-51.08
-51.45
-48.83
-43.18
-35.08
-25.58
-15.85
-6.83
0.97
7.48
12.84
17.24
20.74
23.27
24.74
25.18
24.79
23.92
22.94
22.2
21.87
21.99
22.47
23.19
24.0
24.8
25.54
26.12
26.39
26.19
25.35
23.77
21.45
18.53
15.26
11.94
8.86
6.17
3.88
1.83
-0.28
-2.76
-5.88
-9.72
-14.16
-18.84
-23.25
-26.77
-28.76
-28.68
-26.25
-21.5
-14.87
-7.08
0.98
8.54
15.02
20.18
23.97
26.45
27.68
27.73
26.76
25.06
23.01
21.01
19.32
18.02
17.02
16.19
15.47
14.9
14.53
14.43
14.54
14.74
14.81
14.54
13.73
12.33
10.4
8.15
5.89
3.86
2.12
0.55
-1.16
-3.34
-6.22
-9.85
-14.04
-18.39
-22.28
-24.96
-25.62
-23.64
-18.83
-11.54
-2.59
6.93
16.05
24.1
30.78
36.06
39.99
42.6
43.94
44.15
43.55
42.49
41.27
39.9
38.09
35.38
31.31
25.68
18.64
10.72
2.64
-4.82
-11.02
-15.62
-18.62
-20.31
-21.22
-21.88
-22.68
-23.77
-25.04
-26.26
-27.16
-27.59
-27.56
-27.25
-26.97
-27.08
-27.9
-29.56
-31.82
-34.1
-35.48
-35.01
-31.96
-26.18
-18.17
-8.96
0.21
8.21
14.39
18.6
21.13
22.46
22.99
22.93
22.32
21.16
19.58
17.84
16.34
15.43
15.3
15.94
17.15
18.67
20.2
21.45
22.14
22.01
20.88
18.68
15.49
11.54
7.13
2.61
-1.71
-5.54
-8.7
-11.13
-12.97
-14.52
-16.12
-18.09
-20.57
-23.54
-26.84
-30.27
-33.57
-36.44
-38.52
-39.4
-38.69
-36.11
-31.6
-25.44
-18.12
-10.33
-2.75
4.05
9.67
13.91
16.71
18.12
18.28
17.42
15.94
14.32
13.05
12.45
12.55
13.08
13.65
13.93
13.82
13.44
12.98
12.57
12.17
11.64
10.8
9.6
8.08
6.34
4.49
2.56
0.63
-1.25
-2.96
-4.48
-5.84
-7.24
-8.94
-11.2
-14.14
-17.68
-21.51
-25.07
-27.7
-28.76
-27.82
-24.81
-20.0
-13.97
-7.4
-0.93
4.98
10.04
14.13
17.19
19.22
20.24
20.36
19.81
18.99
18.36
18.32
19.08
20.48
22.09
23.31
23.6
22.72
20.69
17.73
14.12
10.05
5.65
1.0
-3.72
-8.3
-12.51
-16.21
-19.34
-21.96
-24.1
-25.82
-27.18
-28.23
-29.12
-29.99
-30.91
-31.78
-32.34
-32.18
-30.92
-28.33
-24.4
-19.37
-13.67
-7.8
-2.23
2.71
6.82
10.07
12.47
14.04
14.78
14.67
13.78
12.22
10.22
8.0
5.76
3.67
1.8
0.22
-1.03
-1.95
-2.54
-2.84
-2.94
-2.92
-2.87
-2.84
-2.9
-3.12
-3.57
-4.32
-5.46
-7.04
-9.07
-11.53
-14.36
-17.43
-20.54
-23.38
-25.53
-26.48
-25.72
-23.01
-18.43
-12.51
-6.08
-0.01
5.1
9.03
11.87
13.92
15.38
16.35
16.83
16.85
16.56
16.2
15.95
15.89
15.9
15.78
15.37
14.63
13.69
12.77
12.02
11.46
10.94
10.24
9.12
7.44
5.21
2.51
-0.48
-3.58
-6.69
-9.72
-12.72
-15.75
-18.92
-22.23
-25.52
-28.42
-30.41
-30.91
-29.51
-26.13
-21.03
-14.78
-8.12
-1.75
3.82
8.29
11.61
13.93
15.43
16.31
16.67
16.57
16.07
15.23
14.21
13.22
12.45
11.99
11.86
11.93
12.07
12.17
12.13
11.94
11.55
10.92
9.98
8.68
7.02
5.07
2.93
0.75
-1.33
-3.27
-5.07
-6.83
-8.67
-10.75
-13.15
-15.92
-18.97
-22.07
-24.82
-26.71
-27.2
-25.88
-22.65
-17.77
-11.83
-5.56
0.38
5.58
9.96
13.61
16.67
19.15
20.9
21.74
21.58
20.6
19.14
17.62
16.33
15.35
14.58
13.85
13.07
12.27
11.51
10.82
10.13
9.31
8.21
6.73
4.91
2.82
0.57
-1.7
-3.89
-5.88
-7.58
-8.97
-10.1
-11.09
-12.14
-13.46
-15.19
-17.41
-20.02
-22.73
-25.13
-26.7
-26.98
-25.7
-22.79
-18.47
-13.15
-7.35
-1.63
3.56
7.95
11.46
14.13
16.08
17.36
17.98
17.94
17.26
16.08
14.57
12.94
11.33
9.77
8.26
6.77
5.36
4.09
3.0
2.07
1.19
0.23
-0.82
-1.88
-2.81
-3.48
-3.87
-4.12
-4.49
-5.23
-6.53
-8.44
-10.86
-13.6
-16.36
-18.77
-20.43
-20.91
-19.94
-17.44
-13.6
-8.89
-3.88
0.81
4.76
7.77
9.9
11.36
12.4
13.18
13.71
13.91
13.7
13.11
12.35
11.69
11.38
11.46
11.74
11.82
11.29
9.86
7.48
4.38
0.87
-2.72
-6.17
-9.33
-12.13
-14.5
-16.41
-17.89
-19.09
-20.29
-21.81
-23.87
-26.5
-29.38
-31.93
-33.37
-32.96
-30.27
-25.32
-18.64
-11.06
-3.5
3.31
8.98
13.48
16.95
19.57
21.41
22.45
22.69
22.2
21.19
19.9
18.53
17.15
15.73
14.19
12.54
10.92
9.54
8.61
8.18
8.1
8.08
7.77
6.9
5.38
3.32
0.95
-1.5
-3.83
-6.0
-8.08
-10.21
-12.58
-15.34
-18.61
-22.36
-26.36
-30.14
-32.98
-34.18
-33.28
-30.23
-25.46
-19.69
-13.66
-7.96
-2.92
1.35
4.88
7.72
9.93
11.61
12.9
13.92
14.76
15.42
15.89
16.13
16.16
16.01
15.73
15.34
14.85
14.25
13.51
12.64
11.67
10.57
9.3
7.74
5.75
3.24
0.29
-2.86
-5.87
-8.4
-10.26
-11.51
-12.46
-13.45
-14.81
-16.71
-19.15
-22.01
-25.04
-27.93
-30.22
-31.37
-30.84
-28.28
-23.73
-17.64
-10.82
-4.11
1.8
6.62
10.41
13.39
15.79
17.68
19.04
19.78
19.9
19.44
18.52
17.24
15.74
14.16
12.7
11.59
10.98
10.88
11.13
11.5
11.7
11.54
10.96
10.05
8.97
7.86
6.81
5.77
4.63
3.26
1.6
-0.31
-2.35
-4.36
-6.28
-8.1
-9.96
-12.03
-14.45
-17.27
-20.33
-23.29
-25.59
-26.6
-25.8
-22.96
-18.25
-12.21
-5.59
0.87
6.58
11.24
14.75
17.2
18.78
19.72
20.25
20.54
20.65
20.56
20.15
19.33
18.08
16.54
14.93
13.49
12.42
11.77
11.48
11.35
11.13
10.6
9.64
8.22
6.44
4.43
2.35
0.32
-1.58
-3.35
-4.97
-6.5
-7.98
-9.49
-11.16
-13.17
-15.64
-18.61
-21.87
-25.02
-27.46
-28.55
-27.84
-25.2
-20.91
-15.56
-9.88
-4.46
0.31
4.32
7.63
10.33
12.43
13.87
14.61
14.64
14.14
13.34
12.52
11.86
11.4
11.08
10.75
10.26
9.53
8.56
7.41
