2013-07-04 13:08:34
64.0
-0.0
-0.0
-0.0
-0.0
-0.0
-0.0
-0.0
-0.0
-0.0
-0.0
0.0
0.01
0.01
-0.0
-0.03
-0.05
-0.05
0.0
0.13
0.36
0.66
1.01
1.37
1.72
2.06
2.4
2.79
3.24
3.8
4.42
5.06
5.66
6.2
6.68
7.15
7.68
8.31
9.14
10.09
11.04
11.88
12.56
13.14
13.76
14.65
15.96
17.91
20.32
22.9
25.38
27.58
29.57
31.68
34.32
37.81
42.54
48.15
54.1
59.83
64.97
69.58
74.14
79.34
85.71
93.76
103.0
112.62
121.73
129.77
136.75
143.3
150.75
157.77
166.64
177.95
191.79
206.97
220.57
228.25
225.36
208.53
176.87
132.76
80.05
23.07
-34.94
-92.44
-149.16
-205.23
-260.37
-313.74
-363.87
-409.83
-450.91
-486.5
-515.74
-537.23
-549.22
-549.96
-538.37
-514.21
-478.67
-433.88
-382.45
-327.02
-269.84
-212.63
-156.66
-102.95
-52.37
-5.9
35.58
71.43
101.35
125.5
144.38
158.69
169.15
176.37
180.75
182.57
182.07
179.51
175.23
169.65
163.18
156.15
148.81
141.3
133.69
126.02
118.33
110.69
103.16
95.8
88.68
81.83
75.25
68.95
62.95
57.25
51.86
46.78
42.03
37.59
33.45
29.61
26.07
22.81
19.83
17.11
14.67
12.48
10.54
8.83
7.35
6.07
4.97
4.05
3.27
2.62
2.09
1.65
1.3
1.01
0.79
0.61
0.47
0.37
0.29
0.23
0.18
0.15
0.14
0.13
0.13
0.14
0.16
0.18
0.21
0.25
0.28
0.32
0.36
0.41
0.46
0.51
0.56
0.62
0.67
0.73
0.8
0.87
0.95
1.04
1.13
1.23
1.34
1.47
1.61
1.76
1.93
2.11
2.32
2.55
2.79
3.07
3.38
3.71
4.07
4.47
4.91
5.38
5.88
6.43
7.02
7.65
8.34
9.07
9.84
10.67
11.53
12.45
13.42
14.45
15.54
16.69
17.88
19.12
20.35
21.54
22.61
23.49
24.05
24.19
23.81
22.81
21.15
18.8
15.8
12.19
8.12
3.74
-0.78
-5.25
-9.48
-13.32
-16.65
-19.45
-21.71
-23.48
-24.85
-25.89
-26.62
-27.03
-27.09
-26.77
-26.09
-25.04
-23.63
-21.92
-19.91
-17.54
-14.74
-11.43
-7.56
-3.18
1.63
6.79
12.06
17.34
22.71
28.29
34.23
40.53
47.02
53.4
59.32
64.17
67.71
70.09
71.73
73.12
74.53
75.92
76.94
77.24
76.0
73.13
69.19
65.15
62.04
60.39
60.01
60.05
59.47
56.59
50.64
41.82
30.81
18.4
4.66
-11.57
-33.09
-57.75
-86.36
-120.19
-160.03
-205.16
-252.08
-294.44
-324.1
-333.61
-319.0
-282.43
-230.79
-173.49
-119.31
-73.93
-39.17
-13.8
4.8
19.3
31.16
41.61
51.75
62.42
73.77
85.0
94.53
100.56
101.77
97.41
87.98
74.84
59.65
43.89
28.59
14.44
2.06
-7.74
-14.22
-16.7
-15.13
-10.26
-3.59
3.13
8.5
11.8
13.0
12.44
10.44
7.2
2.89
-2.14
-7.18
-11.35
-13.91
-14.63
-13.8
-12.06
-10.07
-8.46
-7.87
-9.08
-12.85
-19.51
-28.54
-38.42
-47.09
-52.79
-54.7
-53.17
-49.38
-44.62
-39.8
-35.31
-31.33
-28.11
-26.02
-25.28
-25.67
-26.36
-26.13
-23.99
-19.54
-13.24
-6.23
0.19
4.98
7.9
9.5
11.03
13.87
19.0
26.64
36.13
46.24
55.63
63.22
68.47
71.3
71.93
70.69
67.91
64.0
59.5
55.13
51.66
49.63
49.19
49.98
51.39
52.82
54.0
55.05
56.32
58.16
60.6
63.33
65.87
67.86
69.25
70.23
71.04
71.66
71.76
70.82
68.51
64.96
60.87
57.23
54.83
53.86
53.73
53.35
51.6
47.75
41.54
32.89
21.47
6.58
-12.54
-35.91
-62.28
-89.06
-113.09
-131.82
-144.14
-150.61
-152.85
-152.49
-150.43
-146.71
-140.97
-133.2
-124.07
-114.88
-107.01
-101.43
-98.38
-97.36
-97.53
-97.99
-98.13
-97.63
-96.46
-94.66
-92.37
-89.72
-86.89
-84.17
-81.88
-80.3
-79.62
-79.66
-79.91
-79.55
-77.72
-73.88
-67.97
-60.18
-50.43
-37.99
-21.45
0.53
28.31
60.52
94.15
125.49
151.48
170.62
183.15
190.25
193.14
192.56
188.82
182.42
174.4
166.28
159.42
154.46
151.02
147.92
143.9
138.12
130.6
121.97
113.12
104.73
97.03
89.85
82.76
75.46
67.9
60.38
53.44
47.63
43.21
39.95
37.05
33.27
27.34
18.31
5.88
-9.54
-27.11
-45.68
-64.05
-81.02
-95.51
-106.73
-114.47
-119.3
-122.47
-125.46
-129.35
-134.38
-139.78
-144.16
-146.01
-144.34
-138.82
-129.81
-118.08
-104.59
-90.3
-76.1
-62.86
-51.35
-42.17
-35.65
-31.76
-29.99
-29.55
-29.51
-29.16
-28.16
-26.54
-24.47
-21.97
-18.81
-14.58
-9.07
-2.53
4.23
10.11
14.13
15.79
15.27
13.18
10.28
7.2
4.42
2.37
1.56
2.63
6.12
12.24
20.71
30.78
41.4
51.6
60.57
67.89
73.43
77.39
80.24
82.57
85.03
88.1
91.96
96.49
101.4
106.4
111.2
115.48
118.78
120.48
119.96
116.9
111.55
104.73
97.62
91.23
86.03
81.73
77.53
72.38
65.51
56.48
45.15
31.42
15.19
-3.54
-24.37
-46.26
-67.61
-86.63
-101.89
-112.83
-119.76
-123.64
-125.57
-126.37
-126.55
-126.38
-126.11
-126.1
-126.63
-127.74
-128.97
-129.41
-127.92
-123.49
-115.66
-104.66
-91.37
-77.02
-62.82
-49.7
-38.05
-27.88
-18.94
-11.06
-4.4
0.55
3.01
2.15
-2.68
-11.62
-23.98
-38.14
-51.58
-61.5
-65.62
-62.93
-54.07
-41.09
-26.61
-12.9
-1.09
9.0
18.61
29.33
42.48
58.75
78.03
99.5
121.79
143.16
161.81
176.16
185.15
188.43
186.41
180.14
171.01
160.43
149.51
138.81
128.46
118.22
107.79
96.96
85.72
74.2
62.65
51.25
40.17
29.47
19.32
9.93
1.61
-5.38
-11.11
-16.09
-21.26
-27.75
-36.48
-47.95
-62.02
-78.2
-95.81
-114.24
-132.91
-151.0
-167.27
-180.13
-188.0
-189.79
-185.36
-175.5
-161.57
-145.05
-127.03
-108.17
-88.77
-69.06
-49.38
-30.18
-11.87
5.28
21.16
35.68
48.64
59.59
67.84
72.54
72.85
68.24
58.71
44.9
28.21
10.42
-6.57
-21.25
-32.74
-40.93
-46.25
-49.36
-50.8
-50.8
-49.3
-46.09
-41.07
-34.27
-26.0
-16.74
-7.14
2.07
10.28
17.14
22.85
28.14
34.2
42.2
52.81
65.81
79.98
93.48
104.41
111.41
114.09
112.95
109.04
103.42
96.71
88.92
79.57
68.11
54.15
37.75
19.29
-0.67
-21.66
-43.33
-65.4
-87.54
-109.31
-130.2
-149.69
-167.37
-182.94
-196.12
-206.45
-213.21
-215.48
-212.41
-203.43
-188.55
-168.34
-143.82
-116.19
-86.64
-56.32
-26.36
2.15
28.17
50.98
70.32
86.39
99.74
110.84
119.82
126.19
129.1
127.53
120.82
109.02
93.13
74.97
56.69
40.29
27.23
18.28
13.76
13.73
17.97
25.79
35.86
46.29
55.08
60.91
63.61
64.15
64.11
64.81
66.75
69.58
72.53
74.97
76.76
78.19
79.63
81.25
82.95
84.44
85.49
85.97
85.83
85.0
83.34
80.63
76.68
71.47
65.25
58.43
51.44
44.47
37.3
29.29
19.48
6.99
-8.74
-27.62
-48.92
-71.42
-93.74
-114.66
-133.26
-148.91
-161.23
-169.89
-174.57
-174.88
-170.36
-160.62
-145.52
-125.49
-101.73
-76.26
-51.57
-30.02
-13.2
-1.51
5.78
10.07
12.76
14.67
15.72
14.98
10.9
1.94
-12.68
-32.35
-54.71
-76.03
-92.28
-100.33
-98.84
-88.36
-70.64
-47.68
-21.15
7.58
36.94
64.83
88.76
106.53
117.03
120.67
119.11
114.5
108.86
103.52
99.17
96.05
94.19
93.63
94.51
97.13
101.77
108.57
117.16
126.47
134.85
140.41
141.72
138.23
130.46
119.63
107.04
93.51
79.01
62.92
44.51
23.53
0.51
-23.29
-46.43
-67.78
-86.9
-103.99
-119.43
-133.33
-145.14
-153.85
-158.41
-158.14
-153.16
-144.31
-132.92
-120.44
-108.03
-96.46
-86.02
-76.64
-68.09
-60.16
-52.84
-46.47
-41.7
-39.46
-40.8
-46.61
-57.3
-72.48
-90.63
-109.21
-125.11
-135.5
-138.65
-134.32
-123.65
-108.55
-90.89
-71.91
-52.03
-31.05
-8.49
16.0
42.44
70.35
98.81
126.47
151.75
173.15
189.63
200.84
207.2
209.85
210.23
209.78
209.53
209.83
210.22
209.58
206.46
199.51
187.96
171.81
151.9
129.61
106.48
83.81
62.31
41.95
22.13
1.91
-19.47
-42.22
-65.86
-89.23
-110.9
-129.51
-144.1
-154.18
-159.7
-160.8
-157.65
-150.51
-139.75
-126.04
-110.4
-94.1
-78.45
-64.47
-52.68
-42.95
-34.64
-26.96
-19.44
-12.37
-6.95
-4.98
-8.17
-17.3
-31.67
-49.13
-66.68
-81.54
-92.0
-97.89
-100.17
-100.26
-99.34
-97.91
-95.96
-93.36
-90.2
-86.88
-83.78
-80.83
-77.33
-72.15
-64.4
-54.08
-42.29
-30.6
-20.18
-11.1
-2.22
8.09
21.19
37.47
56.29
76.22
95.18
110.41
118.45
115.67
99.64
70.83
33.76
-3.45
-31.28
-42.07
-33.01
-7.39
26.47
58.16
78.99
84.89
77.43
62.41
46.85
35.65
29.69
26.12
20.45
9.25
-7.98
-28.71
-48.71
-64.03
-72.34
-73.31
-68.0
-58.01
-44.95
-30.16
-14.8
0.12
13.62
24.87
33.13
38.06
39.92
39.94
40.35
43.95
53.15
69.0
90.6
115.37
139.85
160.69
175.43
182.83
182.8
176.25
164.82
150.75
136.55
124.56
116.49
113.04
113.85
117.6
122.13
124.79
122.68
113.04
93.79
64.19
25.42
-19.3
-65.26
-107.47
-142.25
-168.42
-187.42
-202.13
-214.67
-224.51
-227.88
-219.2
-193.78
-150.65
-93.66
-30.43
30.44
82.52
123.36
154.36
179.1
201.27
222.96
243.98
262.08
273.46
273.63
258.5
225.67
175.74
112.76
43.57
-23.96
-83.02
-129.47
-162.21
-182.42
-192.37
-194.52
-191.15
-184.47
-176.64
-169.39
-163.62
-159.02
-154.25
-147.5
-137.27
-122.93
-104.95
-84.71
-64.09
-44.89
-28.24
-14.24
-1.92
10.44
24.63
41.84
62.17
84.43
106.51
125.84
139.98
147.24
147.01
139.87
127.4
111.82
95.48
80.6
68.98
61.87
59.88
62.85
69.78
79.03
88.63
96.72
101.88
103.36
101.03
95.25
86.79
76.66
65.96
55.62
46.19
37.62
29.43
21.1
12.39
3.55
-4.99
-12.99
-20.98
-30.21
-42.19
-57.97
-77.53
-99.72
-122.76
-145.0
-165.36
-183.48
-199.34
-212.87
-223.81
-231.83
-236.88
-239.37
-240.09
-239.82
-238.91
-237.05
-233.45
-227.34
-218.57
-207.95
-197.08
-187.81
-181.45
-178.22
-177.21
-176.86
-175.76
-173.2
-169.24
-164.22
-158.34
-151.31
-142.49
-131.22
-116.74
-97.89
-72.8
-39.12
5.0
59.38
120.91
183.74
240.95
286.81
318.57
336.87
344.68
345.53
342.02
335.46
326.24
314.67
301.48
287.66
274.02
260.69
247.13
232.47
215.98
197.46
177.3
156.25
135.21
114.89
95.75
77.83
60.81
44.11
27.13
9.32
-9.54
-29.43
-50.1
-71.11
-91.95
-111.99
-130.44
-146.43
-159.12
-167.93
-172.8
-174.19
-173.01
-170.33
-167.15
-164.2
-161.86
-160.16
-158.76
-156.97
-153.95
-148.74
-140.56
-128.97
-114.09
-96.7
-78.14
-60.08
-44.21
-31.88
-23.78
-19.93
-19.72
-22.2
-26.33
-31.18
-36.04
-40.31
-43.39
-44.61
-43.29
-38.86
-31.08
-20.07
-6.33
9.43
26.38
43.72
60.72
76.73
91.2
103.73
114.02
121.96
127.6
131.19
133.19
134.15
134.68
135.26
136.1
137.06
137.7
137.3
135.06
130.28
122.53
111.8
98.48
83.34
67.35
51.48
36.44
22.6
9.92
-2.0
-13.67
-25.49
-37.52
-49.31
-60.05
-68.73
-74.61
-77.43
-77.51
-75.73
-73.25
-71.28
-70.9
-72.82
-77.28
-84.01
-92.23
-100.9
-108.96
-115.49
-119.86
-121.56
-120.07
-114.8
-105.19
-91.03
-72.73
-51.49
-29.14
-7.75
10.84
25.35
35.22
40.54
41.86
39.98
35.77
30.07
23.61
17.03
10.91
5.84
2.48
1.53
3.55
8.73
16.76
26.72
37.37
47.41
55.83
62.04
65.86
67.45
67.14
65.44
63.02
60.56
58.76
58.12
58.88
60.92
63.87
67.07
69.74
70.98
70.02
66.35
59.89
51.13
40.94
30.3
19.91
10.01
0.39
-9.3
-19.1
-28.62
-37.16
-44.14
-49.49
-53.65
-57.23
-60.6
-63.62
-65.79
-66.77
-66.8
-66.77
-67.77
-70.41
-74.42
-78.75
-82.23
-84.32
-85.43
-86.67
-89.14
-93.19
-98.03
-101.98
-103.05
-99.58
-90.74
-76.56
-57.77
-35.46
-10.99
14.06
37.71
57.62
71.3
76.55
72.13
58.35
37.16
11.79
-13.98
-36.87
-54.77
-66.98
-73.97
-76.82
-76.65
-74.38
-70.62
-65.85
-60.62
-55.57
-51.44
-48.86
-47.96
-48.15
-47.98
-45.54
-38.96
-27.12
-9.96
11.73
36.69
63.71
91.79
119.96
146.92
170.94
190.05
202.45
206.82
202.53
189.86
170.19
146.17
121.51
100.15
85.06
76.96
73.96
72.17
67.26
56.17
38.33
15.87
-7.13
-25.9
-36.34
-36.07
-25.12
-6.0
16.84
38.18
53.61
60.81
59.96
53.18
43.23
32.09
20.32
7.21
-8.28
-26.86
-48.59
-73.41
-101.74
-134.53
-172.53
-215.05
-259.06
-299.43
-330.3
-346.85
-346.64
-329.65
-297.52
-252.29
-195.95
-130.67
-59.43
13.59
83.55
146.07
198.4
239.95
271.89
296.05
313.79
325.37
330.07
326.71
314.64
294.42
268.17
239.35
212.02
189.83
175.0
167.69
166.06
167.06
167.41
164.57
157.17
144.84
127.77
106.31
81.0
52.85
23.6
-4.44
-29.0
-48.63
-63.23
-73.91
-82.37
-89.96
-97.26
-104.04
-109.79
-114.32
-118.05
-121.82
-126.41
-132.15
-138.71
-145.29
-150.95
-155.06
-157.31
-157.65
-156.03
-152.12
-145.42
-135.48
-122.45
-107.26
-91.63
-77.71
-67.49
-62.21
-62.01
-65.76
-71.34
-76.14
-77.73
-74.41
-65.44
-50.93
-31.5
-7.98
18.7
47.41
76.82
105.55
132.62
157.79
181.61
205.0
228.62
252.25
274.76
294.41
309.44
318.39
320.41
315.17
302.85
284.16
260.35
233.16
204.42
175.81
148.38
122.51
97.75
72.97
46.65
17.31
-15.96
-53.01
-92.54
-132.41
-170.39
-204.96
-235.75
-263.34
-288.69
-312.25
-333.64
-351.73
-365.16
-373.05
-375.4
-372.97
-366.88
-358.1
-347.11
-333.85
-317.93
-299.06
-277.16
-252.39
-225.08
-195.66
-164.77
-133.3
-102.48
-73.69
-48.09
-26.22
-7.83
7.97
22.35
36.27
50.26
64.49
78.83
93.06
106.77
119.35
130.08
138.35
144.08
147.83
150.74
154.17
159.33
167.04
177.79
191.87
209.5
230.61
254.58
279.98
304.63
326.05
341.96
350.81
352.07
346.17
334.34
318.22
299.36
278.67
256.11
230.65
200.82
165.47
124.6
79.74
33.67
-10.29
-49.31
-81.78
-107.58
-127.84
-144.42
-159.39
-174.71
-192.05
-212.72
-237.66
-267.4
-302.14
-341.75
-385.63
-432.26
-478.66
-520.21
-551.11
-565.66
-559.96
-533.14
-487.57
-428.03
-360.01
-288.31
-216.45
-146.91
-81.77
-22.89
28.39
71.85
108.56
140.44
169.12
195.12
217.68
235.35
247.04
252.79
253.77
251.71
248.03
243.32
237.26
229.08
218.04
203.9
187.15
169.1
151.86
137.98
129.83
128.69
133.99
143.03
151.63
155.45
151.49
139.12
120.05
97.31
73.83
51.19
29.36
7.22
-16.3
-41.37
-66.93
-91.18
-112.41
-129.77
-143.41
-154.25
-163.3
-171.16
-177.84
-182.84
-185.5
-185.19
-181.47
-174.2
-163.63
-150.26
-134.79
-117.96
-100.26
-81.94
-63.05
-43.63
-23.95
-4.47
14.22
31.53
46.81
59.24
67.58
70.32
66.21
55.01
38.18
18.96
1.62
-9.77
-12.63
-6.58
6.75
24.46
43.39
60.85
75.07
85.31
91.99
96.69
101.81
109.84
122.34
139.02
157.49
173.93
184.37
186.05
178.23
161.98
139.47
113.09
84.77
55.93
27.61
0.72
-23.96
-45.87
-64.89
-81.25
-95.1
-105.94
-112.3
-112.14
-104.0
-88.49
-69.09
-51.64
-42.17
-44.33
-57.48
-76.95
-96.08
-109.26
-114.09
-111.75
-105.46
-98.26
-91.44
-84.44
-76.01
-65.7
-54.47
-44.41
-37.56
-34.79
-35.1
-36.02
-34.55
-28.46
-17.34
-2.99
11.15
21.42
25.45
23.17
16.82
9.93
5.83
6.42
12.16
22.75
37.86
57.12
79.63
103.41
125.62
143.68
156.64
165.84
174.33
185.24
200.02
217.86
236.29
252.6
265.13
273.64
278.74
281.06
280.97
278.76
275.17
271.19
267.42
263.29
256.88
245.46
226.57
199.21
164.09
122.96
77.55
28.79
-23.15
-78.25
-135.77
-194.0
-250.53
-302.92
-349.27
-388.45
-419.93
-443.77
-460.45
-470.88
-476.21
-477.37
-474.76
-467.95
-455.88
-437.23
-411.14
-377.68
-338.05
-294.54
-249.98
-207.23
-168.5
-135.1
-107.38
-85.15
-68.05
-55.96
-49.04
-47.32
-50.1
-55.45
-60.07
-59.81
-50.75
-30.37
1.64
43.34
91.25
141.39
190.31
235.41
274.86
307.35
331.9
348.16
356.59
358.62
356.33
351.88
346.86
341.97
337.06
331.39
324.12
314.55
302.2
286.81
268.18
246.11
220.35
190.63
156.76
118.68
76.59
30.98
-17.37
-67.41
-117.76
-166.8
-212.83
-254.29
-290.09
-319.7
-343.11
-360.5
-371.77
-376.36
-373.32
-361.93
-342.27
-315.59
-284.1
-250.24
-215.99
-182.53
-150.41
-120.01
-91.95
-67.1
-46.15
-29.26
-15.9
-5.27
3.13
8.96
11.21
8.7
1.07
-10.52
-23.23
-33.1
-36.03
-29.1
-11.33
16.07
50.01
86.46
121.37
151.64
175.63
193.38
206.3
216.51
226.05
236.18
247.16
258.45
269.34
279.5
289.21
298.99
309.05
318.7
326.42
330.23
328.33
319.55
303.39
279.97
249.93
214.54
175.52
134.67
93.23
51.04
6.36
-43.32
-99.79
-162.56
-228.19
-291.04
-344.98
-385.34
-409.91
-418.8
-413.42
-395.54
-366.81
-329.06
-284.93
-238.0
-192.44
-152.02
-119.17
-94.42
-76.64
-63.68
-53.37
-44.21
-35.66
-28.0
-21.77
-17.25
-14.08
-11.43
-8.4
-4.48
0.02
4.1
6.51
6.34
3.34
-2.14
-9.51
-18.39
-28.52
-39.37
-49.46
-56.22
-56.44
-47.53
-28.7
-1.64
29.88
61.32
88.82
110.2
125.21
134.86
140.6
143.66
144.74
143.96
141.06
135.52
126.87
115.14
101.32
87.57
76.76
71.35
72.13
77.57
84.14
87.74
85.34
76.25
61.84
44.46
25.68
5.31
-18.36
-47.23
-81.83
-120.27
-158.51
-191.54
-214.83
-225.58
-223.19
-209.18
-186.53
-158.78
-129.12
-99.72
-71.53
-44.62
-19.06
4.24
23.17
34.89
36.94
28.57
11.52
-10.08
-30.41
-43.47
-44.42
-30.97
-4.47
29.88
63.83
88.2
96.03
85.52
61.39
33.62
13.55
9.03
20.86
42.35
62.29
69.98
59.86
33.33
-2.83
-40.27
-73.03
-99.39
-120.93
-139.83
-156.12
-166.52
-165.66
-148.75
-114.27
-65.42
-9.14
46.27
94.1
131.03
157.34
175.55
188.75
199.29
208.3
215.9
221.71
225.43
227.04
226.76
224.83
221.0
214.02
201.5
180.47
148.58
105.57
54.19
-0.05
-50.57
-91.76
-120.77
-137.93
-145.89
-148.19
-147.8
-146.34
-144.08
-140.52
-135.08
-127.76
-119.27
-110.7
-102.93
-96.0
-88.79
-79.5
-66.35
-48.58
-26.91
-3.38
19.45
39.5
55.77
68.22
77.18
82.73
84.51
82.09
75.56
65.95
55.03
44.71
36.32
30.25
26.18
23.45
21.54
20.33
20.12
21.6
25.74
33.46
45.15
60.15
76.5
91.41
102.1
106.81
105.25
98.45
87.88
74.68
59.32
41.87
22.55
2.13
-18.14
-36.97
-53.53
-67.7
-79.87
-90.54
-99.95
-107.99
-114.29
-118.48
-120.34
-119.82
-116.94
-111.84
-104.76
-96.18
-86.84
-77.61
-69.21
-62.12
-56.46
-52.24
-49.5
-48.42
-49.2
-51.66
-55.07
-58.17
-59.54
-58.12
-53.67
-46.82
-38.83
-30.96
-23.98
-17.87
-11.94
-5.22
3.07
13.19
24.72
36.73
48.1
57.81
65.3
70.53
73.86
75.85
76.92
77.21
76.56
74.69
71.48
67.13
62.12
56.98
52.01
47.25
42.58
37.95
33.46
29.14
24.71
19.39
12.13
1.97
-11.36
-27.18
-43.95
-59.69
-72.56
-81.36
-85.77
-86.42
-84.68
-82.25
-80.68
-80.74
-82.19
-83.87
-84.27
-82.13
-76.95
-69.16
-59.86
-50.45
-42.16
-35.75
-31.31
-28.31
-25.82
-22.81
-18.51
-12.57
-5.05
3.79
13.67
24.32
35.42
46.51
57.01
66.44
74.63
81.81
88.48
95.03
101.46
107.35
112.03
114.85
115.46
113.89
110.44
105.56
99.74
93.32
86.59
79.74
72.92
66.33
60.26
54.97
50.54
46.73
42.84
37.95
31.22
22.19
10.96
-1.95
-15.91
-30.49
-45.51
-60.89
-76.35
-91.26
-104.7
-115.64
-123.44
-127.98
-129.78
-129.79
-129.09
-128.49
-128.28
-128.06
-126.78
-123.09
-115.78
-104.44
-89.82
-73.82
-58.91
-47.23
-39.66
-35.45
-32.55
-28.46
-21.28
-10.41
3.38
18.42
32.77
44.78
53.43
58.44
60.29
60.16
59.64
60.27
62.91
67.36
72.37
76.18
77.17
74.49
68.22
59.29
49.15
39.48
31.86
27.48
26.79
29.3
33.63
37.92
40.61
40.93
39.23
36.64
34.55
33.93
34.95
37.0
39.02
39.97
39.07
36.09
31.24
25.02
18.1
11.14
4.6
-1.42
-7.4
-14.36
-23.58
-35.86
-50.87
-66.92
-81.39
-91.78
-96.81
-96.98
-94.29
-91.04
-88.68
-87.17
-85.17
-81.11
-74.08
-64.31
-52.69
-40.07
-26.74
-12.49
2.73
18.29
32.77
44.53
52.53
56.77
58.06
57.21
54.24
48.19
37.74
22.19
2.23
-20.03
-41.84
-60.71
-75.23
-85.17
-91.23
-94.54
-96.29
-97.51
-98.87
-100.61
-102.67
-105.09
-108.47
-114.1
-123.32
-136.32
-151.04
-162.8
-165.06
-151.26
-117.01
-61.91
9.8
89.83
167.7
233.23
278.89
301.47
302.48
287.26
262.94
236.24
211.81
191.73
176.23
164.8
156.91
151.92
148.55
144.7
138.02
127.63
115.47
106.01
104.08
111.62
125.82
139.97
146.64
141.3
123.75
96.76
63.1
23.39
-23.41
-77.41
-135.12
-189.25
-231.3
-255.55
-261.55
-253.74
-238.38
-220.1
-200.35
-178.37
-153.5
-127.0
-102.3
-83.52
-73.5
-72.34
-77.47
-84.79
-90.07
-90.2
-83.81
-71.27
-54.27
-35.21
-16.41
0.39
14.44
25.89
35.39
43.49
50.28
55.37
58.33
59.12
58.33
57.04
56.48
57.6
60.91
66.32
73.28
80.88
88.24
94.87
100.75
106.17
111.25
115.64
118.5
118.91
116.65
112.51
108.07
104.97
103.96
104.52
105.13
104.05
100.1
93.02
83.26
71.52
58.34
44.0
28.65
12.55
-3.95
-20.49
-36.86
-53.07
-69.27
-85.54
-101.81
-117.76
-133.04
-147.23
-159.94
-170.59
-178.4
-182.47
-182.08
-177.15
-168.47
-157.71
-146.9
-137.85
-131.57
-128.04
-126.37
-125.3
-123.63
-120.64
-116.21
-110.84
-105.56
-101.66
-100.39
-102.43
-107.47
-114.13
-120.2
-123.39
-121.91
-115.02
-102.96
-86.72
-67.62
-47.13
-26.77
-8.09
7.58
19.46
27.73
33.53
38.81
45.78
56.54
72.68
95.09
123.73
157.31
193.19
227.45
255.8
274.67
282.37
279.58
268.96
253.95
237.47
221.03
204.71
187.82
169.88
151.1
132.3
114.21
96.81
79.1
59.55
36.87
10.81
-17.57
-46.23
-72.9
-95.78
-114.05
-127.86
-138.12
-146.09
-153.02
-159.81
-166.79
-173.7
-179.82
-184.3
-186.48
-186.19
-183.81
-180.07
-175.87
-171.9
-168.58
-166.05
-164.22
-162.92
-161.92
-161.11
-160.52
-160.51
-161.66
-164.62
-169.65
-176.24
-182.67
-186.13
-183.17
-170.51
-145.89
-108.7
-60.17
-3.26
57.96
119.14
176.51
227.71
272.07
310.16
343.05
371.29
394.44
411.24
420.16
420.1
410.77
392.74
367.13
335.36
299.05
259.96
219.93
180.89
144.73
113.38
88.74
72.37
65.03
66.04
73.14
82.86
91.48
96.1
95.27
89.02
78.18
63.7
46.06
25.16
0.52
-28.23
-60.97
-96.68
-133.36
-168.08
-197.58
-218.86
-229.99
-230.7
-222.59
-208.86
-193.62
-180.79
-173.16
-171.55
-174.78
-180.2
-184.67
-185.55
-181.44
-172.36
-159.47
-144.44
-128.93
-114.09
-100.37
-87.49
-74.59
-60.7
-45.24
-28.58
-12.23
1.59
11.06
15.9
18.31
22.54
33.37
53.7
82.65
115.26
144.22
162.89
168.13
161.35
147.45
132.15
119.67
111.4
106.42
102.88
99.31
95.28
91.07
87.3
84.43
82.77
82.63
84.41
88.48
94.98
103.73
114.06
124.7
133.69
138.43
136.15
124.55
102.74
71.97
35.65
-1.27
-33.79
-58.31
-73.63
-81.11
-83.79
-85.16
-88.02
-93.89
-102.97
-114.56
-127.51
-140.47
-152.08
-161.06
-166.33
-167.31
-164.07
-157.53
-149.31
-141.3
-135.09
-131.23
-128.76
-125.36
-118.17
-105.22
-86.49
-64.2
-41.9
-23.0
-9.3
-0.4
5.83
12.18
20.88
32.95
48.06
65.02
82.36
98.73
113.11
124.82
133.59
139.54
143.19
145.42
147.27
149.59
152.65
155.82
157.52
155.7
148.69
136.06
119.12
100.66
83.92
71.21
63.0
57.78
52.76
45.18
33.42
17.49
-1.25
-20.9
-39.78
-56.82
-71.54
-83.68
-93.03
-99.47
-103.17
-104.91
-106.02
-107.87
-111.3
-116.05
-120.67
-122.94
-120.8
-113.29
-101.18
-86.9
-73.77
-64.9
-62.17
-65.61
-73.55
-83.38
-92.5
-99.24
-103.21
-105.14
-106.3
-107.89
-110.73
-115.06
-120.69
-127.12
-133.43
-138.28
-140.14
-137.64
-130.12
-117.71
-101.14
-81.0
-57.17
-28.85
4.78
43.53
85.56
127.56
165.78
197.37
221.47
239.18
252.86
264.82
276.25
286.8
294.91
298.65
296.62
288.52
275.17
258.06
238.68
217.96
196.13
172.81
147.51
119.95
90.32
59.12
27.16
-4.65
-35.3
-63.75
-88.98
-110.14
-126.69
-138.44
-145.64
-148.86
-148.93
-146.8
-143.36
-139.25
-134.73
-129.65
-123.69
-116.54
-108.24
-99.24
-90.4
-82.72
-77.07
-73.97
-73.54
-75.59
-79.85
-86.24
-94.97
-106.45
-120.86
-137.73
-155.53
-171.82
-183.76
-188.9
-185.98
-175.23
-158.2
-137.26
-114.99
-93.72
-75.14
-59.97
-47.57
-35.78
-21.34
-0.8
28.1
65.36
108.48
153.2
194.8
229.63
255.81
273.38
283.63
288.35
289.23
287.67
284.77
281.42
278.19
275.17
271.83
267.05
259.34
247.26
229.79
206.53
177.78
144.4
107.72
69.49
31.84
-2.94
-32.78
-56.47
-73.87
-86.06
-94.92
-102.68
-111.42
-122.75
-137.49
-155.47
-175.32
-194.57
-210.09
-219.05
-219.78
-212.49
-199.16
-182.96
-167.24
-154.48
-145.61
-140.01
-135.91
-131.16
-123.98
-113.5
-99.74
-83.27
-64.85
-45.15
-24.94
-5.39
11.8
24.76
32.27
34.45
33.0
30.63
29.96
32.53
38.34
46.24
54.74
62.71
69.64
75.39
79.73
82.13
81.92
78.67
72.61
64.68
56.27
48.75
43.15
39.92
39.02
39.99
42.24
45.0
47.47
48.8
48.19
45.1
39.47
31.91
23.59
15.98
10.23
6.8
5.34
4.87
4.26
2.65
-0.42
-4.99
-10.91
-17.95
-25.88
-34.32
-42.83
-50.9
-58.25
-64.98
-71.63
-78.97
-87.69
-98.06
-109.71
-121.71
-132.71
-141.44
-147.1
-149.61
-149.57
-147.84
-145.07
-141.3
-136.06
-128.92
-120.13
-110.94
-103.3
-99.03
-98.89
-102.18
-107.03
-111.16
-112.32
-108.32
-96.72
-74.78
-40.31
6.97
64.36
126.2
185.26
235.08
271.77
294.72
305.76
307.68
302.92
293.19
279.79
264.09
247.68
231.84
217.0
202.49
186.8
168.37
146.43
121.44
95.04
69.43
46.46
26.95
10.5
-4.18
-18.51
-33.31
-48.48
-63.29
-76.98
-89.29
-100.48
-110.88
-120.37
-128.13
-132.9
-133.76
-130.81
-125.28
-118.94
-113.18
-108.2
-103.01
-96.18
-86.88
-75.65
-64.29
-55.07
-49.82
-49.34
-53.6
-62.18
-74.63
-90.08
-106.71
-121.64
-131.57
-134.34
-130.26
-122.26
-114.4
-109.69
-108.2
-106.98
-101.8
-89.68
-70.56
-47.26
-23.72
-2.85
14.47
28.84
40.73
49.11
51.4
44.9
28.57
4.2
-23.95
-50.59
-71.21
-82.95
-84.62
-76.07
-57.7
-30.67
2.62
38.36
72.14
100.4
121.72
137.1
148.85
158.87
167.34
172.69
172.76
166.33
154.02
138.05
120.97
104.45
88.7
72.88
56.19
38.72
21.65
6.7
-4.77
-12.34
-16.62
-18.77
-19.81
-20.19
-19.58
-17.16
-12.11
-4.01
6.79
19.19
31.48
41.78
48.53
50.94
49.25
44.67
39.05
34.37
32.25
33.55
38.25
45.54
54.14
62.69
70.1
75.76
79.51
81.47
81.82
80.69
78.28
75.01
71.51
68.54
66.59
65.43
64.09
61.12
55.13
45.35
31.89
15.63
-2.24
-20.62
-38.76
-56.12
-72.15
-86.06
-96.99
-104.19
-107.53
-107.61
-105.72
-103.31
-101.5
-100.62
-100.18
-99.18
-96.57
-91.7
-84.59
-75.84
-66.42
-57.27
-49.08
-42.11
-36.23
-31.02
-25.99
-20.71
-14.97
-8.75
-2.26
4.21
10.29
15.44
19.04
20.48
19.43
16.17
11.74
7.59
5.05
4.54
5.34
6.01
5.34
3.36
1.69
2.85
8.95
20.39
35.39
50.66
62.78
69.6
70.73
67.43
61.53
54.66
47.85
41.62
36.15
31.31
26.52
20.66
12.43
1.11
-12.86
-27.61
-40.41
-48.77
-51.51
-49.22
-43.95
-38.3
-34.42
-33.39
-35.22
-39.27
-44.62
-50.49
-56.11
-60.67
-63.19
-62.71
-58.56
-50.69
-39.8
-27.16
-14.29
-2.49
7.39
15.08
20.77
24.95
28.15
30.75
32.73
33.54
32.14
27.34
18.22
4.61
-12.85
-32.89
-54.1
-75.22
-95.24
-113.11
-127.56
-137.13
-140.39
-136.49
-125.38
-107.79
-84.88
-57.91
-28.15
2.94
33.44
60.98
83.07
97.87
104.96
105.66
102.53
98.77
97.03
98.76
104.11
112.17
121.23
129.03
133.01
130.86
121.48
105.6
85.91
66.18
49.71
37.95
29.9
22.89
14.03
1.7
-13.89
-31.0
-47.34
-60.96
-70.51
-75.16
-74.35
-67.84
-55.88
-39.5
-20.42
-0.57
18.1
34.41
47.97
59.04
68.16
75.72
81.54
84.89
84.7
79.88
69.76
54.33
34.24
10.82
-14.14
-38.44
-59.8
-76.07
-85.59
-87.45
-81.62
-68.94
-50.8
-28.95
-5.24
18.52
40.57
59.21
72.91
80.35
80.59
73.24
58.62
37.88
12.91
-13.85
-39.83
-62.78
-81.19
-94.54
-103.34
-108.96
-113.18
-117.75
-123.88
-131.83
-140.81
-149.18
-154.93
-156.3
-152.2
-142.47
-127.82
-109.49
-88.88
-67.29
-45.74
-24.93
-5.29
13.01
30.0
45.93
61.1
75.69
89.55
102.14
112.64
120.29
124.63
125.83
124.61
122.05
119.18
116.6
114.28
111.51
107.03
99.39
87.33
70.21
48.43
23.43
-2.52
-26.84
-47.17
-61.75
-69.45
-69.79
-62.75
-48.87
-29.29
-5.86
19.04
42.69
62.5
76.32
82.75
81.27
72.24
56.83
36.68
13.64
-10.6
-34.73
-57.86
-79.45
-99.1
-116.62
-132.13
-146.17
-159.56
-173.26
-187.76
-202.73
-216.83
-227.91
-233.46
-231.12
-219.06
-196.17
-162.24
-118.1
-65.83
-8.81
48.64
101.97
147.46
183.06
208.63
225.61
236.06
241.88
244.19
243.46
239.76
233.23
224.19
213.06
200.25
186.03
170.68
154.71
139.0
124.66
112.68
103.5
96.53
90.11
81.85
69.48
51.63
28.58
2.26
-24.13
-47.03
-63.51
-72.0
-72.74
-67.57
-59.38
-51.22
-45.42
-43.01
-43.7
-46.3
-49.51
-52.53
-55.3
-58.27
-61.77
-65.57
-68.88
-70.64
-70.07
-66.94
-61.62
-54.65
-46.52
-37.5
-27.69
-17.21
-6.4
4.26
14.42
24.12
33.83
43.87
53.75
61.55
64.08
57.91
40.94
13.69
-20.37
-55.82
-87.05
-110.08
-123.48
-128.32
-127.0
-122.13
-115.62
-108.51
-101.17
-93.68
-85.9
-77.51
-68.17
-57.57
-45.7
-33.09
-20.81
-10.19
-2.53
1.34
1.19
-2.82
-10.21
-20.49
-32.89
-46.21
-58.66
-68.0
-71.97
-68.87
-57.94
-39.43
-14.53
14.87
46.48
77.82
106.51
130.55
148.67
160.28
165.64
165.5
160.84
152.8
142.59
131.35
120.06
109.27
99.11
89.48
80.3
71.67
63.84
56.95
50.69
44.28
36.62
26.73
14.19
-0.81
-17.64
-35.65
-54.51
-74.25
-95.05
-116.83
-138.98
-160.34
-179.49
-195.05
-205.89
-211.43
-211.53
-206.38
-196.47
-182.44
-165.09
-145.24
-123.65
-100.9
-77.29
-52.92
-27.9
-2.6
22.23
45.57
66.32
83.55
96.76
105.58
109.75
108.99
103.12
92.54
78.55
63.23
48.73
36.52
26.96
19.83
15.26
14.58
20.25
34.73
58.92
91.11
127.09
161.57
190.03
210.05
221.44
225.23
222.37
212.77
195.6
170.16
137.04
98.67
58.92
21.98
-8.91
-32.49
-49.41
-61.51
-70.65
-78.0
-83.77
-87.75
-89.96
-91.08
-92.39
-95.13
-99.9
-106.29
-113.0
-118.44
-121.39
-121.45
-119.11
-115.46
-111.65
-108.35
-105.48
-102.22
-97.34
-89.79
-79.23
-66.33
-52.59
-39.82
-29.44
-21.98
-17.01
-13.62
-11.14
-9.78
-10.83
-16.28
-27.94
-46.43
-70.61
-97.64
-123.67
-145.14
-159.61
-166.01
-164.34
-155.09
-139.16
-117.96
-93.66
-68.81
-45.72
-25.61
-8.36
6.83
20.54
32.29
40.83
45.14
45.61
44.46
44.91
49.66
59.61
73.59
89.21
104.1
116.92
127.37
135.74
142.33
147.21
150.32
151.81
152.15
152.01
151.95
152.27
152.95
153.73
154.0
152.71
148.38
139.32
124.44
103.84
79.18
53.26
29.04
8.64
-7.14
-18.51
-25.91
-29.33
-28.23
-22.16
-11.53
1.81
14.87
24.43
28.26
25.99
19.17
10.62
3.36
-0.51
-0.47
2.37
5.78
7.28
5.12
-0.95
-9.58
-18.23
-24.1
-25.11
-20.38
-10.34
3.68
19.76
35.51
48.12
54.67
52.94
42.45
25.27
5.8
-10.51
-19.08
-17.79
-7.41
9.24
28.79
48.53
66.82
82.74
95.56
104.52
109.06
109.29
106.17
101.19
95.74
90.64
85.93
81.11
75.49
68.32
58.86
46.38
30.37
10.9
-11.1
-33.98
-55.9
-75.45
-92.06
-105.86
-117.26
-126.39
-133.05
-137.03
-138.58
-138.68
-138.83
-140.43
-144.08
-149.3
-154.71
-158.81
-160.68
-160.44
-159.03
-157.56
-156.63
-156.11
-155.46
-154.41
-153.32
-152.97
-153.82
-155.15
-154.98
-150.68
-140.17
-122.88
-99.96
-73.57
-45.86
-18.2
8.81
34.84
59.23
80.88
98.61
111.86
121.07
127.6
133.18
139.22
146.34
154.2
161.83
168.11
172.22
173.93
173.49
171.33
167.71
162.48
155.13
145.15
132.37
117.18
100.35
82.73
64.91
47.2
29.81
13.14
-2.08
-14.99
-25.01
-32.26
-37.72
-43.02
-49.86
-59.52
-72.47
-88.47
-106.72
-126.17
-145.57
-163.45
-178.04
-187.46
-190.14
-185.33
-173.52
-156.35
-136.23
-115.61
-96.38
-79.65
-65.57
-53.64
-42.85
-32.1
-20.54
-8.05
4.65
16.19
25.25
31.16
34.25
35.54
36.1
36.54
36.95
37.3
38.03
40.23
45.24
53.87
65.82
79.67
93.44
105.48
115.04
122.34
128.11
132.99
137.24
140.74
143.27
144.61
144.62
142.98
139.03
131.83
120.48
104.55
84.52
61.72
38.12
15.79
-3.71
-19.62
-32.05
-41.75
-49.7
-56.73
-63.34
-69.64
-75.48
-80.65
-85.08
-88.95
-92.7
-96.86
-101.82
-107.54
-113.4
-118.21
-120.63
-119.64
-115.02
-107.47
-98.28
-88.83
-80.06
-72.34
-65.67
-60.01
-55.53
-52.53
-51.23
-51.65
-53.64
-57.09
-62.14
-68.93
-77.16
-85.66
-92.22
-94.12
-88.99
-75.72
-54.94
-28.77
-0.05
28.51
54.91
77.98
97.12
112.16
123.24
130.89
136.05
139.81
143.07
146.21
148.92
150.44
149.97
147.0
141.41
133.41
123.3
111.37
97.87
83.17
67.76
52.31
37.56
24.12
12.35
2.22
-6.64
-14.92
-23.35
-32.38
-41.92
-51.35
-59.74
-66.22
-70.48
-72.9
-74.44
-76.26
-79.39
-84.46
-91.57
-100.18
-109.03
-116.23
-119.54
-116.98
-107.53
-91.67
-71.32
-49.26
-28.2
-9.98
4.65
15.79
23.71
28.43
29.62
26.92
20.41
10.87
-0.34
-11.58
-21.33
-28.38
-31.91
-31.41
-26.67
-17.85
-5.52
9.25
25.05
40.35
53.82
64.64
72.62
78.16
82.02
85.09
88.08
91.55
95.82
101.12
107.66
115.5
124.48
134.04
143.34
151.27
156.81
159.11
157.61
152.0
142.21
128.49
111.4
91.98
71.47
51.11
31.71
13.49
-3.94
-21.23
-38.85
-56.71
-74.15
-90.16
-103.9
-115.05
-124.03
-131.84
-139.58
-148.06
-157.47
-167.35
-176.7
-184.34
-189.11
-190.2
-187.21
-180.25
-169.79
-156.63
-141.67
-125.79
-109.72
-94.02
-79.14
-65.53
-53.73
-44.47
-38.45
-36.1
-37.19
-40.68
-44.87
-47.86
-48.17
-45.11
-38.8
-29.66
-18.02
-3.84
13.07
32.55
53.79
75.31
95.51
113.23
128.14
140.64
151.35
160.62
168.36
174.21
178.03
180.14
181.29
182.3
183.66
185.29
186.51
186.31
183.56
177.35
167.08
152.51
133.8
111.49
86.53
60.18
33.92
9.03
-13.62
-33.76
-51.56
-67.18
-80.36
-90.12
-95.17
-94.56
-88.53
-78.89
-68.74
-61.48
-59.72
-64.46
-75.02
-89.59
-106.07
-122.82
-138.9
-153.82
-167.19
-178.3
-186.14
-189.57
-187.73
-180.45
-168.35
-152.74
-135.21
-117.25
-99.88
-83.65
-68.86
-55.85
-45.19
-37.61
-33.73
-33.59
-36.48
-40.93
-45.14
-47.43
-46.68
-42.41
-34.7
-23.89
-10.32
5.75
24.04
44.08
65.04
85.75
104.9
121.4
134.67
144.76
152.24
157.9
162.51
166.57
170.33
173.85
177.07
179.87
182.09
183.45
183.61
182.23
179.05
173.89
166.57
156.76
143.98
127.71
107.75
84.52
59.32
34.13
11.17
-7.81
-21.98
-31.61
-37.82
-42.06
-45.69
-49.63
-54.34
-60.02
-66.8
-74.79
-84.15
-94.93
-107.06
-120.2
-133.73
-146.71
-157.97
-166.22
-170.24
-169.14
-162.54
-150.78
-134.93
-116.73
-98.3
-81.63
-68.14
-58.34
-51.83
-47.62
-44.55
-41.78
-38.95
-36.12
-33.57
-31.54
-30.09
-29.06
-28.09
-26.64
-24.05
-19.57
-12.56
-2.69
9.95
24.75
40.69
56.47
70.75
82.35
90.56
95.27
97.18
97.55
97.95
99.78
103.81
110.08
117.93
126.4
134.46
141.32
146.38
149.25
149.56
147.0
141.44
133.0
122.17
109.66
96.3
82.78
69.44
56.23
42.66
28.08
11.85
-6.25
-25.79
-45.59
-63.94
-79.03
-89.44
-94.74
-95.79
-94.8
-94.94
-99.45
-110.62
-128.76
-151.93
-176.24
-197.1
-210.6
-214.73
-209.66
-197.41
-180.84
-162.75
-145.13
-129.11
-115.07
-103.02
-92.82
-84.36
-77.47
-71.91
-67.26
-62.89
-57.96
-51.66
-43.35
-32.73
-19.92
-5.27
10.65
27.23
43.76
59.5
73.96
87.16
99.8
113.16
128.49
146.39
166.39
187.03
206.41
223.02
236.15
245.92
252.66
256.46
256.96
253.55
245.92
234.52
220.48
205.27
189.99
174.95
159.62
142.88
123.64
101.32
76.2
49.26
21.87
-4.77
-29.87
-53.15
-74.51
-93.73
-110.23
-123.18
-131.89
-136.26
-137.03
-135.79
-134.47
-134.83
-137.89
-143.57
-150.77
-157.71
-162.44
-163.58
-160.68
-154.38
-146.03
-137.08
-128.45
-120.27
-112.01
-103.1
-93.51
-83.97
-75.83
-70.36
-68.17
-68.9
-71.39
-74.25
-76.35
-77.1
-76.28
-73.66
-68.82
-61.11
-49.94
-35.26
-17.71
1.51
21.02
39.72
56.98
72.61
86.57
98.71
108.76
116.47
121.87
125.4
127.85
130.03
132.44
135.09
137.53
139.13
139.37
137.9
134.57
129.23
121.75
112.02
100.17
86.53
71.62
55.95
39.89
23.7
7.64
-7.89
-22.34
-35.16
-45.92
-54.51
-61.03
-65.71
-68.79
-70.54
-71.33
-71.66
-72.11
-73.22
-75.22
-77.96
-80.87
-83.03
-83.56
-81.87
-78.0
-72.66
-66.95
-61.92
-58.09
-55.25
-52.66
-49.52
-45.48
-40.84
-36.34
-32.8
-30.77
-30.43
-31.73
-34.48
-38.3
-42.29
-44.92
-44.25
-38.57
-27.23
-11.14
7.41
25.53
40.86
52.34
60.38
66.51
72.56
80.02
89.63
101.22
113.74
125.52
134.71
139.92
140.82
138.36
134.38
130.84
128.95
128.75
129.33
129.54
128.6
126.37
122.98
118.43
112.2
103.46
91.42
75.71
56.54
34.5
10.42
-14.66
-39.38
-62.08
-81.11
-95.44
-105.29
-112.2
-118.51
-126.34
-136.61
-148.68
-160.7
-170.46
-176.47
-178.25
-176.37
-171.82
-165.48
-157.94
-149.58
-140.83
-132.33
-124.8
-118.63
-113.69
-109.06
-103.4
-95.38
-84.18
-69.88
-53.34
-35.92
-18.95
-3.19
11.38
25.52
40.27
56.43
74.05
92.31
109.8
125.06
137.14
145.85
151.72
155.58
158.18
159.83
160.45
159.71
157.28
153.01
147.04
139.75
131.74
123.73
116.43
110.33
105.48
101.2
96.11
88.27
75.77
57.43
33.34
4.99
-25.09
-54.16
-80.09
-101.72
-118.92
-132.05
-141.53
-147.66
-150.63
-150.91
-149.43
-147.55
-146.76
-148.24
-152.48
-159.14
-167.04
-174.48
-179.65
-181.18
-178.43
-171.62
-161.65
-149.63
-136.53
-123.03
-109.56
-96.45
-83.96
-72.08
-60.42
-48.08
-34.01
-17.51
1.29
21.27
40.82
58.51
73.69
86.66
98.32
109.53
120.67
131.5
141.41
149.68
155.83
159.57
160.87
159.87
157.08
153.41
150.05
148.2
148.61
151.22
155.14
158.93
161.0
160.07
155.43
147.03
135.35
121.15
105.2
88.08
70.12
51.43
32.02
12.01
-8.34
-28.66
-48.48
-67.29
-84.53
-99.61
-111.92
-121.07
-127.21
-131.19
-134.53
-138.99
-145.93
-155.8
-167.89
-180.48
-191.31
-198.34
-200.24
-196.81
-188.83
-177.69
-164.92
-151.7
-138.65
-125.84
-113.0
-99.79
-85.93
-71.24
-55.69
-39.31
-22.3
-4.91
12.58
30.09
47.75
65.84
84.48
103.4
121.8
138.61
152.79
163.75
171.44
176.23
178.6
178.99
177.67
174.99
171.48
167.91
165.14
163.81
164.11
165.61
167.32
167.82
165.62
159.43
148.56
133.09
113.87
92.25
69.62
46.96
24.66
2.66
-19.23
-40.98
-62.12
-81.96
-99.79
-115.19
-127.97
-138.15
-145.87
-151.36
-155.09
-157.77
-160.18
-162.77
-165.44
-167.45
-167.8
-165.7
-161.04
-154.39
-146.76
-139.09
-131.84
-124.94
-117.93
-110.21
-101.3
-91.02
-79.51
-67.25
-54.86
-42.89
-31.63
-20.95
-10.41
0.67
12.89
26.65
42.0
58.66
76.14
93.76
110.7
126.07
138.96
148.58
154.49
156.7
155.8
152.84
149.14
145.97
144.16
143.86
144.42
144.56
142.77
137.88
129.46
118.07
104.91
91.39
78.47
66.14
53.51
39.18
21.98
1.66
-20.83
-43.51
-64.03
-80.37
-91.62
-98.22
-101.93
-105.27
-110.78
-120.34
-134.62
-152.92
-173.45
-193.74
-211.29
-223.99
-230.61
-230.87
-225.38
-215.44
-202.61
-188.4
-173.86
-159.43
-144.93
-129.86
-113.59
-95.59
-75.53
-53.31
-29.13
-3.48
22.83
48.91
74.0
97.73
120.1
141.34
161.49
180.03
195.91
207.79
214.76
216.75
214.78
210.65
206.3
203.15
201.75
201.8
202.49
202.98
202.61
200.94
197.49
191.65
182.89
171.08
156.82
141.24
125.42
109.66
93.15
74.27
51.58
24.86
-4.46
-33.66
-59.8
-80.84
-96.28
-107.12
-115.36
-123.46
-133.87
-148.69
-169.17
-195.17
-224.82
-254.74
-280.9
-299.95
-310.24
-312.0
-306.79
-296.4
-281.94
-263.74
-241.85
-216.83
-190.27
-164.65
-142.6
-126.21
-116.25
-111.81
-110.15
-106.87
-96.34
-72.73
-31.59
28.25
103.34
185.61
264.01
327.68
369.31
387.17
385.08
370.21
350.02
329.73
311.35
294.43
277.74
260.78
244.33
229.87
218.42
209.78
202.63
195.25
186.44
175.78
163.41
149.31
132.93
113.46
90.58
65.28
40.0
17.91
1.52
-8.65
-14.61
-20.33
-30.21
-47.53
-73.32
-106.31
-143.57
-181.6
-217.31
-248.43
-273.51
-291.51
-301.54
-302.87
-295.2
-279.09
-256.14
-228.96
-200.87
-175.28
-155.05
-141.7
-134.93
-132.56
-131.03
-126.44
-115.67
-97.26
-71.76
-41.52
-10.04
18.98
42.48
58.77
67.82
70.98
70.25
67.2
62.38
55.23
44.93
31.6
17.09
5.14
0.46
7.44
28.71
64.0
109.76
159.6
205.6
240.32
258.66
259.16
244.03
217.91
186.05
152.59
119.87
88.74
59.48
32.68
9.33
-9.7
-24.45
-36.43
-48.3
-63.1
-83.09
-109.0
-139.7
-172.6
-204.44
-232.13
-253.38
-266.93
-272.47
-270.38
-261.41
-246.52
-226.98
-204.31
-180.18
-156.02
-132.7
-110.39
-88.79
-67.6
-47.08
-28.07
-11.56
2.05
13.55
24.91
38.52
56.1
77.75
101.69
124.89
144.14
157.16
163.2
163.07
158.72
152.59
147.16
144.55
146.21
152.64
163.16
175.88
188.1
197.12
201.05
199.52
193.61
185.25
176.22
167.21
157.54
145.45
128.96
106.91
79.53
48.57
16.64
-13.63
-40.39
-63.07
-82.2
-98.94
-114.46
-129.51
-144.27
-158.55
-172.07
-184.53
-195.72
-205.19
-212.31
-216.06
-215.4
-209.51
-198.15
-181.84
-161.82
-139.84
-117.79
-97.27
-79.22
-63.75
-50.16
-37.32
-24.26
-10.67
2.95
15.51
25.83
33.1
37.08
37.9
35.72
30.69
22.99
13.2
2.34
-8.3
-17.62
-24.83
-29.32
-30.22
-26.17
-15.6
2.48
27.76
58.36
91.43
124.2
154.87
182.81
208.1
230.54
249.15
262.1
267.44
263.75
250.61
228.43
198.12
160.84
118.03
71.71
24.67
-19.71
-58.16
-88.42
-110.02
-124.46
-134.72
-144.24
-155.79
-170.71
-188.82
-208.74
-228.46
-245.86
-258.79
-265.25
-263.42
-252.02
-230.8
-200.71
-163.93
-123.2
-81.1
-39.56
0.25
37.42
70.92
99.34
121.29
135.99
143.88
146.75
147.35
148.46
152.04
158.54
166.81
174.58
179.27
178.94
172.99
162.32
148.92
135.04
122.43
111.8
102.99
95.33
88.26
81.51
75.12
69.24
64.02
59.66
56.53
55.14
55.91
58.71
62.6
65.81
66.18
61.9
52.11
37.18
18.58
-1.73
-21.82
-40.45
-57.21
-72.43
-86.8
-101.02
-115.48
-130.25
-145.26
-160.44
-175.72
-190.98
-205.78
-219.35
-230.65
-238.64
-242.64
-242.51
-238.6
-231.59
-222.1
-210.41
-196.3
-179.35
-159.22
-136.09
-110.95
-85.43
-61.44
-40.49
-23.24
-9.33
2.42
13.47
24.98
37.52
51.01
64.99
78.99
92.66
105.89
118.58
130.53
141.32
150.54
157.93
163.66
168.14
171.82
174.83
176.82
177.15
175.23
170.86
164.19
155.58
145.13
132.57
117.34
99.0
77.54
53.7
28.8
4.52
-17.46
-35.77
-49.54
-58.5
-62.97
-63.71
-61.85
-58.66
-55.42
-53.19
-52.66
-54.02
-56.98
-61.0
-65.52
-70.07
-74.26
-77.53
-79.13
-78.28
-74.86
-69.63
-64.35
-61.06
-61.27
-65.32
-72.42
-81.33
-91.18
-101.82
-113.55
-126.41
-139.46
-150.78
-158.07
-159.48
-154.29
-142.93
-126.34
-105.23
-79.59
-49.01
-13.58
25.02
63.24
96.33
120.01
132.41
135.12
132.64
130.53
132.98
141.02
152.33
162.43
166.75
162.4
148.93
128.08
102.71
75.5
48.08
20.77
-6.99
-35.69
-64.81
-92.35
-115.16
-129.93
-134.54
-128.94
-115.2
-96.72
-77.02
-58.79
-43.64
-32.35
-25.33
-22.66
-23.83
-27.44
-31.22
-32.66
-30.04
-23.19
-13.72
-4.68
0.37
-1.49
-11.51
-28.71
-49.82
-69.95
-83.67
-86.45
-76.05
-53.24
-21.73
12.98
45.23
70.79
87.75
96.45
98.86
97.56
95.0
93.11
93.15
95.75
100.9
108.03
116.19
124.25
131.26
136.77
140.66
142.97
143.64
142.61
140.0
136.35
132.49
129.12
126.26
123.02
117.85
109.39
97.15
81.84
64.93
47.82
31.13
14.64
-2.12
-19.0
-34.72
-47.21
-54.66
-56.65
-54.73
-52.03
-52.12
-57.65
-69.39
-86.03
-104.64
-121.49
-133.14
-137.21
-132.98
-121.56
-105.76
-89.43
-76.44
-69.55
-69.34
-73.77
-78.64
-78.99
-70.95
-53.33
-28.12
0.3
27.0
48.4
63.27
72.55
78.22
81.91
84.17
84.71
83.13
79.66
75.4
71.83
70.15
70.81
73.55
77.97
84.22
93.16
105.9
122.76
142.46
161.92
177.03
184.07
181.01
167.99
146.97
120.62
91.29
60.51
29.34
-1.07
-29.05
-52.59
-70.06
-81.1
-86.94
-90.2
-93.96
-100.74
-111.8
-127.16
-146.17
-168.22
-193.1
-220.72
-250.42
-280.34
-307.47
-328.33
-339.98
-340.83
-330.79
-310.89
-282.77
-248.44
-210.37
-171.52
-135.19
-104.29
-80.67
-64.74
-55.58
-51.41
-50.13
-49.63
-48.05
-43.87
-36.03
-24.04
-7.82
12.64
37.5
66.88
100.26
135.89
170.6
200.65
222.88
235.89
240.37
238.33
231.91
222.44
210.26
195.33
177.98
159.3
140.83
123.86
108.68
94.54
80.15
64.52
47.61
30.38
14.41
1.02
-9.29
-17.01
-23.35
-29.61
-36.67
-44.7
-53.32
-61.87
-69.89
-77.17
-83.69
-89.19
-93.01
-94.0
-90.8
-82.54
-69.32
-52.46
-34.3
-17.43
-3.87
5.48
10.96
13.65
14.93
16.07
18.12
21.91
27.95
36.09
45.38
54.05
60.09
62.06
59.78
54.39
47.78
41.57
36.29
31.37
25.69
18.44
9.85
1.16
-5.9
-9.84
-10.04
-6.86
-1.34
5.25
11.78
17.33
21.17
22.68
21.59
18.07
13.03
7.91
4.35
3.54
5.71
9.89
14.25
16.89
16.66
13.64
9.11
4.91
2.52
2.5
4.29
6.65
8.29
8.38
6.78
3.84
0.16
-3.54
-6.55
-8.19
-7.95
-5.72
-1.86
2.87
7.71
12.21
16.56
21.41
27.63
35.71
45.4
55.52
64.3
69.94
71.24
68.05
61.26
52.32
42.65
33.0
23.37
13.27
2.24
-9.65
-21.74
-33.09
-42.9
-50.91
-57.43
-62.95
-67.75
-71.62
-73.8
-73.36
-69.61
-62.45
-52.44
-40.66
-28.38
-16.82
-7.02
0.2
4.34
5.32
3.72
0.71
-2.28
-4.1
-4.49
-4.28
-5.02
-8.31
-14.9
-24.33
-35.09
-45.24
-53.21
-58.25
-60.43
-60.3
-58.43
-55.18
-50.7
-45.04
-38.3
-30.56
-21.88
-12.34
-2.21
7.65
15.82
20.54
20.36
14.85
4.91
-7.54
-20.24
-31.38
-40.14
-46.58
-51.11
-54.09
-55.53
-55.32
-53.52
-50.51
-46.88
-43.05
-38.97
-34.11
-27.56
-18.53
-6.65
7.79
23.84
40.32
56.31
71.55
86.54
102.03
118.17
133.89
146.7
153.5
151.8
140.86
122.01
98.09
72.26
46.97
23.54
2.52
-15.77
-30.9
-42.49
-50.62
-56.16
-60.61
-65.54
-71.87
-79.44
-87.1
-93.25
-96.55
-96.47
-93.42
-88.53
-83.1
-78.13
-74.07
-70.77
-67.75
-64.44
-60.35
-55.27
-49.18
-42.16
-34.16
-24.95
-14.29
-2.11
11.23
25.13
38.96
52.44
65.76
79.36
93.48
107.72
120.97
131.72
138.6
140.91
138.76
132.98
124.75
115.4
106.23
98.53
93.37
91.4
92.65
96.41
101.39
106.07
109.08
109.59
107.53
103.44
98.15
92.33
86.02
78.52
68.58
54.88
36.66
14.13
-11.39
-37.9
-63.31
-86.02
-105.29
-121.3
-134.89
-147.38
-160.05
-173.81
-188.82
-204.38
-218.96
-230.6
-237.45
-238.13
-232.03
-219.29
-200.65
-177.52
-151.85
-126.17
-103.16
-85.1
-73.27
-67.38
-65.41
-63.91
-58.9
-47.02
-26.74
0.88
32.39
63.07
88.63
106.6
117.04
121.97
124.14
125.75
127.78
130.11
132.13
133.35
133.56
132.71
130.7
127.49
123.32
119.0
115.96
115.95
120.24
128.77
139.58
149.13
153.36
149.26
136.07
115.57
91.33
67.15
45.79
28.32
14.27
2.36
-8.86
-20.65
-34.06
-49.9
-68.59
-89.94
-113.05
-136.47
-158.69
-178.57
-195.56
-209.52
-220.51
-228.48
-233.1
-233.91
-230.4
-222.23
-209.42
-192.43
-172.19
-150.0
-127.32
-105.51
-85.56
-67.88
-52.23
-37.83
-23.7
-8.97
6.75
23.32
40.22
56.96
73.3
89.42
105.72
122.42
139.17
154.94
168.12
176.99
180.38
178.13
171.25
161.65
151.6
143.07
137.36
134.98
135.85
139.54
145.32
152.17
158.72
163.39
164.7
161.8
154.77
144.64
132.94
121.0
109.33
97.29
83.4
65.97
44.04
17.93
-10.64
-39.16
-65.13
-86.92
-104.08
-117.19
-127.34
-135.66
-143.15
-150.63
-158.74
-167.85
-177.81
-187.9
-197.02
-204.09
-208.5
-210.27
-209.86
-207.72
-203.95
-198.15
-189.56
-177.5
-161.66
-142.55
-121.76
-102.03
-86.71
-78.88
-80.16
-89.8
-104.5
-119.11
-127.81
-125.62
-109.56
-79.39
-37.79
10.3
58.82
102.22
136.97
162.31
179.88
192.45
202.38
210.74
217.55
222.67
226.64
230.71
236.0
242.49
248.75
252.47
251.76
246.22
237.06
226.29
215.43
204.5
192.01
175.69
153.78
125.93
93.52
59.13
25.64
-4.73
-30.94
-53.26
-72.9
-91.36
-109.85
-128.76
-147.48
-164.64
-178.69
-188.6
-194.39
-197.18
-198.71
-200.45
-202.79
-204.8
-204.61
-200.28
-190.65
-175.74
-156.77
-135.81
-115.42
-98.32
-86.78
-81.9
-82.9
-86.93
-89.76
-87.21
-76.77
-58.43
-34.49
-8.31
17.17
40.37
61.11
79.91
97.31
113.38
127.88
140.63
151.77
161.71
170.86
179.31
186.72
192.49
196.0
197.05
195.95
193.46
190.42
187.36
184.21
180.23
174.28
165.18
152.15
135.05
114.41
91.31
67.15
43.41
21.37
1.92
-14.57
-28.21
-39.42
-48.66
-56.31
-62.78
-68.72
-75.18
-83.43
-94.53
-108.68
-124.85
-140.91
-154.29
-162.83
-165.52
-162.87
-156.56
-148.9
-142.07
-137.48
-135.52
-135.49
-135.85
-134.61
-129.86
-120.36
-106.02
-88.2
-69.42
-52.82
-40.99
-35.11
-34.25
-35.58
-35.25
-29.73
-17.01
2.68
27.07
52.63
75.68
93.37
104.19
108.07
106.03
99.77
91.19
82.03
73.68
66.91
61.88
58.09
54.67
50.75
45.88
40.27
34.85
30.93
29.65
31.39
35.44
40.17
43.44
43.38
38.88
29.81
16.87
1.28
-15.55
-32.22
-47.38
-59.85
-68.72
-73.68
-75.13
-74.31
-73.08
-73.46
-76.9
-83.63
-92.46
-100.93
-106.19
-105.97
-99.42
-87.31
-71.55
-54.37
-37.66
-22.75
-10.69
-2.4
1.42
0.72
-3.47
-9.12
-13.79
-15.53
-13.46
-7.65
1.41
13.52
28.97
48.24
71.24
96.8
122.62
145.85
163.96
175.4
179.88
178.14
171.54
161.57
149.64
136.94
124.46
113.06
103.3
95.43
89.32
84.48
80.32
76.37
72.49
68.84
65.86
63.96
63.39
63.97
64.93
64.87
61.85
53.86
39.45
18.39
-8.03
-37.24
-66.18
-92.37
-114.58
-133.0
-148.61
-162.37
-174.53
-184.56
-191.61
-195.17
-195.42
-193.11
-189.1
-183.75
-176.71
-167.12
-154.1
-137.43
-117.79
-96.7
-75.98
-57.22
-41.42
-28.93
-19.75
-13.79
-10.89
-10.58
-11.77
-12.66
-11.21
-5.73
4.49
19.07
36.94
56.91
77.94
99.0
118.71
135.07
145.91
149.66
146.28
137.68
127.32
119.07
115.9
118.97
127.44
139.02
150.95
160.86
167.38
170.21
169.63
166.11
159.75
150.18
136.72
118.65
95.57
67.66
35.71
1.14
-34.12
-67.89
-98.0
-122.7
-140.89
-152.35
-157.73
-158.29
-155.7
-151.71
-147.86
-145.34
-144.84
-146.59
-150.4
-155.88
-162.55
-169.96
-177.58
-184.73
-190.6
-194.31
-195.11
-192.51
-186.24
-176.34
-163.07
-146.86
-128.3
-108.15
-87.31
-66.78
-47.74
-31.42
-18.97
-11.19
-8.12
-8.84
-11.44
-13.35
-11.9
-5.01
8.41
28.14
52.93
80.81
109.6
137.32
162.44
183.97
201.31
214.27
223.04
228.3
231.14
232.83
234.35
235.91
236.9
236.11
232.43
225.45
215.75
204.66
193.54
183.12
173.14
162.47
149.7
133.76
114.3
91.66
66.56
39.7
11.59
-17.34
-46.49
-74.98
-101.69
-125.56
-145.9
-162.61
-176.08
-186.91
-195.65
-202.65
-208.14
-212.37
-215.64
-218.28
-220.47
-222.06
-222.53
-221.03
-216.71
-208.91
-197.55
-183.18
-166.88
-150.02
-133.81
-118.87
-105.12
-91.87
-78.32
-64.07
-49.41
-35.19
-22.43
-11.93
-4.17
0.48
1.73
-0.6
-6.0
-12.82
-18.24
-18.92
-12.28
2.38
23.54
48.14
73.08
96.54
118.42
139.71
161.2
182.52
201.93
217.23
226.86
230.69
229.93
226.31
221.17
214.94
207.35
198.06
187.33
176.12
165.66
156.84
149.68
143.26
136.25
127.39
116.18
103.01
88.87
74.88
61.58
48.59
34.73
18.48
-1.25
-24.5
-50.17
-76.3
-100.75
-121.82
-138.7
-151.35
-160.23
-165.89
-168.74
-169.1
-167.36
-164.14
-160.34
-156.93
-154.69
-153.97
-154.65
-156.19
-157.89
-159.1
-159.32
-158.12
-155.06
-149.64
-141.5
-130.68
-117.84
-104.27
-91.44
-80.43
-71.39
-63.47
-55.29
-45.74
-34.55
-22.39
-10.32
0.92
11.26
21.1
30.67
39.54
46.67
51.16
53.07
53.78
55.54
60.28
68.67
79.73
91.45
101.87
110.01
116.09
120.98
125.39
129.22
131.6
131.41
127.9
121.15
112.09
102.2
93.08
86.09
82.23
81.91
84.96
90.61
97.59
104.45
109.95
113.38
114.68
114.41
113.35
112.32
111.88
112.26
113.33
114.54
114.99
113.52
109.04
100.9
89.21
74.94
59.57
44.64
31.13
19.23
8.34
-2.56
-14.46
-27.98
-43.22
-59.79
-76.99
-93.88
-109.56
-123.31
-134.71
-143.78
-150.83
-156.44
-161.11
-165.24
-168.95
-172.22
-174.92
-176.84
-177.71
-177.23
-175.13
-171.29
-165.89
-159.44
-152.65
-146.16
-140.3
-135.02
-129.91
-124.49
-118.49
-111.98
-105.35
-99.05
-93.39
-88.3
-83.42
-78.15
-71.89
-64.21
-55.0
-44.46
-33.07
-21.4
-9.9
1.24
12.12
23.07
34.46
46.56
59.3
72.26
84.61
95.15
102.58
105.81
104.38
98.72
90.14
80.48
71.5
64.43
59.77
57.45
57.2
58.71
61.68
65.59
69.54
72.45
73.41
72.12
69.12
65.62
63.01
62.31
63.87
67.29
71.75
76.36
80.49
83.86
86.49
88.48
89.89
90.61
90.37
88.87
85.96
81.82
77.0
72.39
68.89
67.19
67.44
69.27
71.97
74.71
76.82
77.86
77.7
76.41
74.24
71.6
68.98
66.86
65.49
64.69
63.86
62.16
58.87
53.82
47.48
40.77
34.63
29.53
25.25
20.97
15.55
7.94
-2.52
-16.03
-32.41
-51.19
-71.78
-93.41
-115.21
-136.22
-155.49
-172.19
-185.73
-195.73
-201.99
-204.52
-203.43
-198.98
-191.55
-181.66
-169.99
-157.29
-144.41
-132.14
-121.15
-111.81
-104.2
-98.11
-93.1
-88.69
-84.47
-80.24
-76.0
-71.89
-68.02
-64.36
-60.76
-57.05
-53.23
-49.54
-46.43
-44.39
-43.67
-44.17
-45.42
-46.77
-47.6
-47.49
-46.29
-44.06
-41.0
-37.38
-33.44
-29.42
-25.5
-21.83
-18.55
-15.71
-13.28
-11.08
-8.75
-5.82
-1.89
3.23
9.34
15.92
22.26
27.75
32.03
35.08
37.16
38.65
39.97
41.47
43.41
45.9
48.96
52.47
56.32
60.39
64.75
69.55
75.06
81.43
88.54
95.94
102.99
109.04
113.71
117.06
119.4
121.1
122.29
122.81
122.29
120.47
117.33
113.23
108.7
104.23
100.06
96.15
92.32
88.35
84.18
79.81
75.27
70.52
65.4
59.81
53.77
47.51
41.49
36.26
32.22
29.53
27.99
27.16
26.51
25.66
24.43
22.86
21.0
18.86
16.33
13.28
9.66
5.63
1.54
-2.15
-5.0
-6.72
-7.19
-6.42
-4.5
-1.56
2.22
6.65
11.51
16.59
21.7
26.7
31.52
36.15
40.63
45.01
49.3
53.4
57.03
59.69
60.69
59.25
54.7
46.66
35.14
20.62
3.92
-14.02
-32.3
-50.31
-67.75
-84.57
-100.75
-116.14
-130.32
-142.61
-152.2
-158.34
-160.55
-158.81
-153.51
-145.43
-135.5
-124.61
-113.49
-102.63
-92.34
-82.69
-73.53
-64.45
-55.09
-45.3
-35.55
-26.87
-20.5
-17.36
-17.53
-20.08
-23.53
-26.41
-27.92
-28.06
-27.41
-26.69
-26.29
-26.29
-26.57
-27.1
-28.0
-29.5
-31.69
-34.43
-37.28
-39.75
-41.44
-42.3
-42.61
-42.92
-43.75
-45.36
-47.59
-49.9
-51.59
-52.08
-51.04
-48.52
-44.74
-39.96
-34.39
-28.15
-21.34
-14.1
-6.68
0.61
7.42
13.43
18.41
22.34
25.39
27.99
30.71
34.16
38.68
44.26
50.55
56.93
62.86
67.99
72.25
75.71
78.44
80.43
81.53
81.68
80.87
79.25
77.06
74.48
71.56
68.19
64.11
58.97
52.55
44.82
36.13
27.13
18.67
11.44
5.79
1.59
-1.58
-4.11
-6.1
-7.34
-7.52
-6.49
-4.51
-2.22
-0.45
0.12
-0.88
-3.32
-6.66
-10.09
-12.68
-13.66
-12.5
-9.09
-3.75
2.9
10.04
16.81
22.39
26.12
27.54
26.54
23.47
19.14
14.66
11.09
9.18
9.07
10.37
12.35
14.31
15.72
16.47
16.61
16.35
15.8
15.03
14.03
12.85
11.61
10.48
9.61
9.1
8.96
9.14
9.54
10.04
10.51
10.84
10.98
10.94
10.76
10.52
10.23
9.9
9.46
8.94
8.42
8.02
7.81
7.73
7.61
7.23
6.38
5.03
3.3
1.42
-0.34
-1.74
-2.65
-3.09
-3.18
-3.2
-3.43
-4.1
-5.31
-7.03
-9.12
-11.45
-14.0
-16.89
-20.29
-24.37
-29.15
-34.41
-39.77
-44.77
-49.06
-52.43
-54.87
-56.47
-57.39
-57.77
-57.71
-57.36
-56.92
-56.65
-56.83
-57.63
-59.12
-61.17
-63.6
-66.23
-68.96
-71.81
-74.76
-77.8
-80.88
-83.98
-87.22
-90.78
-94.9
-99.68
-105.03
-110.68
-116.37
-122.0
-127.75
-133.98
-141.0
-148.69
-156.38
-162.75
-166.07
-164.49
-156.31
-140.1
-114.74
-79.58
-34.97
17.3
73.73
129.54
179.72
220.33
249.53
267.65
276.61
278.68
275.67
268.64
258.25
245.25
230.57
214.94
198.43
180.43
160.35
138.62
117.45
100.44
91.25
91.85
101.39
116.14
130.94
141.16
144.33
140.72
132.63
122.99
113.9
105.83
97.74
87.93
75.0
58.67
39.75
19.8
0.49
-16.96
-31.78
-43.38
-51.03
-53.93
-51.54
-44.15
-33.13
-20.75
-9.53
-1.48
2.4
2.16
-1.35
-6.96
-13.43
-19.68
-24.83
-28.39
-30.26
-30.8
-30.72
-30.84
-31.8
-33.92
-37.1
-40.96
-45.02
-48.8
-51.93
-54.18
-55.36
-55.44
-54.48
-52.72
-50.48
-48.09
-45.77
-43.58
-41.41
-39.07
-36.38
-33.37
-30.22
-27.32
-25.01
-23.52
-22.84
-22.68
-22.59
-22.1
-20.92
-19.01
-16.63
-14.23
-12.34
-11.39
-11.6
-12.92
-15.17
-18.01
-21.06
-23.95
-26.28
-27.72
-28.02
-27.06
-24.94
-21.94
-18.43
-14.81
-11.36
-8.2
-5.36
-2.78
-0.43
1.59
3.1
3.85
3.65
2.48
0.55
-1.73
-3.89
-5.58
-6.69
-7.47
-8.44
-10.2
-13.24
-17.68
-23.27
-29.4
-35.37
-40.62
-44.91
-48.38
-51.41
-54.4
-57.57
-60.76
-63.43
-64.57
-62.77
-56.35
-43.8
-24.3
1.67
32.12
63.84
93.27
117.59
135.38
146.74
152.66
154.16
151.73
145.26
134.6
120.14
103.09
85.16
68.0
52.59
39.06
26.98
15.86
5.58
-3.55
-10.89
-15.95
-18.59
-19.14
-18.29
-16.82
-15.39
-14.39
-13.99
-14.18
-14.97
-16.43
-18.68
-21.78
-25.62
-29.93
-34.31
-38.37
-41.87
-44.77
-47.17
-49.14
-50.73
-51.92
-52.7
-53.15
-53.49
-53.91
-54.53
-55.31
-56.09
-56.69
-56.99
-57.01
-56.84
-56.56
-56.25
-55.94
-55.67
-55.45
-55.25
-54.92
-54.13
-52.57
-50.01
-46.53
-42.58
-38.79
-35.82
-34.05
-33.51
-33.92
-34.85
-35.92
-36.83
-37.43
-37.62
-37.29
-36.34
-34.73
-32.5
-29.76
-26.66
-23.4
-20.08
-16.82
-13.73
-10.89
-8.37
-6.2
-4.37
-2.78
-1.36
-0.03
1.2
2.24
2.92
3.08
2.61
1.51
-0.15
-2.22
-4.53
-6.94
-9.29
-11.4
-13.07
-14.14
-14.56
-14.4
-13.82
-13.02
-12.13
-11.26
-10.46
-9.8
-9.41
-9.42
-9.86
-10.63
-11.43
-11.88
-11.62
-10.5
-8.64
-6.38
-4.23
-2.58
-1.66
-1.43
-1.59
-1.77
-1.61
-0.86
0.58
2.64
5.18
7.99
10.86
13.63
16.23
18.67
21.08
23.58
26.23
28.9
31.31
33.13
34.11
34.25
33.75
33.0
32.3
31.85
31.66
31.69
31.93
32.46
33.37
34.73
36.45
38.33
40.14
41.68
42.79
43.43
43.58
43.27
42.65
41.89
41.22
40.83
40.75
40.91
41.22
41.55
41.91
42.34
42.83
43.29
43.61
43.76
43.83
44.1
44.84
46.16
47.82
49.39
50.4
50.54
49.82
48.45
46.72
44.75
42.49
39.78
36.61
33.17
29.88
27.25
25.68
25.36
26.3
28.36
31.34
35.03
39.1
43.12
46.53
48.76
49.27
47.79
44.32
39.19
33.01
26.55
20.62
15.88
12.73
11.22
11.12
11.97
13.26
14.59
15.71
16.58
17.31
18.08
19.1
20.48
22.22
24.21
26.27
28.15
29.56
30.21
29.88
28.54
26.38
23.9
21.69
20.24
19.74
19.98
20.35
20.15
18.73
15.8
11.45
6.11
0.43
-4.99
-9.75
-13.79
-17.41
-21.04
-25.1
-29.71
-34.66
-39.44
-43.45
-46.19
-47.41
-47.25
-46.13
-44.67
-43.46
-42.92
-43.16
-44.05
-45.32
-46.67
-47.92
-49.02
-49.94
-50.67
-51.14
-51.29
-51.14
-50.81
-50.46
-50.16
-49.86
-49.35
-48.48
-47.22
-45.82
-44.71
-44.38
-45.09
-46.78
-49.05
-51.28
-52.87
-53.45
-52.9
-51.33
-49.0
-46.18
-43.1
-39.89
-36.69
-33.66
-31.0
-28.9
-27.44
-26.55
-26.01
-25.58
-25.08
-24.45
-23.83
-23.37
-23.22
-23.34
-23.59
-23.75
-23.59
-22.97
-21.86
-20.34
-18.51
-16.47
-14.31
-12.15
-10.16
-8.54
-7.41
-6.77
-6.49
-6.34
-6.14
-5.86
-5.66
-5.73
-6.26
-7.27
-8.68
-10.38
-12.21
-14.08
-15.89
-17.47
-18.6
-19.08
-18.77
-17.61
-15.7
-13.23
-10.46
-7.64
-4.98
-2.56
-0.34
1.88
4.25
6.88
9.71
12.6
15.4
17.98
20.26
22.12
23.36
23.67
22.78
20.58
17.19
12.92
8.16
3.23
-1.67
-6.47
-11.07
-15.34
-19.11
-22.29
-24.88
-27.01
-28.79
-30.25
-31.25
-31.59
-31.19
-30.23
-29.21
-28.86
-29.91
-32.8
-37.51
-43.57
-50.16
-56.37
-61.42
-64.81
-66.32
-65.99
-63.94
-60.36
-55.36
-49.0
-41.33
-32.39
-22.45
-11.96
-1.6
7.95
16.25
23.37
29.88
36.64
44.37
53.35
63.33
73.74
84.06
94.15
104.23
114.62
125.36
135.95
145.49
153.0
157.87
160.15
160.53
159.99
159.44
159.38
159.87
160.5
160.62
159.5
156.35
150.51
141.4
128.73
112.63
93.72
73.07
52.01
31.84
13.63
-1.9
-14.42
-23.92
-30.67
-35.17
-38.16
-40.42
-42.61
-45.01
-47.47
-49.38
-50.01
-48.81
-45.74
-41.29
-36.3
-31.54
-27.33
-23.37
-18.99
-13.49
-6.68
0.93
8.31
14.26
17.98
19.29
18.64
16.81
14.49
11.97
9.12
5.52
0.67
-5.66
-13.25
-21.4
-28.9
-34.37
-36.33
-33.61
-25.64
-12.9
2.69
17.94
29.17
33.66
30.99
23.64
16.19
13.48
18.41
30.74
47.28
63.54
75.71
81.96
82.48
78.46
70.92
60.14
45.89
28.19
7.93
-13.11
-32.78
-49.38
-62.33
-72.23
-80.41
-88.3
-96.78
-105.95
-115.25
-123.87
-131.06
-136.43
-139.88
-141.58
-141.71
-140.35
-137.45
-132.87
-126.51
-118.45
-109.07
-99.08
-89.31
-80.48
-72.99
-66.8
-61.51
-56.6
-51.6
-46.21
-40.2
-33.42
-25.73
-17.13
-7.91
1.33
9.73
16.34
20.4
21.49
19.61
15.05
8.43
0.45
-8.13
-16.61
-24.45
-31.29
-36.95
-41.45
-44.92
-47.57
-49.55
-50.86
-51.2
-50.02
-46.67
-40.71
-32.13
-21.46
-9.61
2.38
13.64
23.51
31.6
37.72
41.79
43.97
44.61
44.23
43.32
42.27
41.18
40.08
39.01
38.26
38.28
39.52
42.1
45.72
49.6
52.87
54.84
55.37
54.89
54.15
53.89
54.44
55.55
56.57
56.81
55.93
54.16
52.3
51.42
52.38
55.53
60.52
66.44
72.22
77.04
80.72
83.64
86.55
90.12
94.53
99.44
103.96
106.84
106.55
101.41
90.02
71.87
48.09
21.68
-3.19
-22.52
-34.2
-38.9
-39.67
-40.48
-44.33
-52.13
-62.79
-74.28
-84.99
-94.45
-103.12
-111.66
-120.08
-127.62
-133.01
-135.09
-133.44
-128.48
-121.35
-113.44
-105.94
-99.38
-93.57
-87.66
-80.39
-70.38
-56.36
-37.5
-13.45
15.46
48.2
83.15
118.31
151.53
180.74
204.11
220.28
228.48
228.68
221.53
208.14
189.65
166.87
140.22
109.93
76.53
41.16
5.63
-28.11
-58.57
-85.34
-109.12
-131.36
-153.49
-176.05
-198.11
-217.24
-229.92
-232.5
-222.19
-198.06
-161.59
-116.7
-69.13
-25.11
10.14
33.84
46.33
50.7
51.52
53.11
58.18
67.27
79.11
91.6
102.73
111.04
115.76
116.56
113.43
106.81
97.68
87.55
78.28
71.55
68.38
68.81
71.78
75.43
77.64
76.6
71.38
62.1
49.86
36.29
22.94
10.87
0.45
-8.41
-15.97
-22.31
-27.29
-30.69
-32.48
-32.99
-32.77
-32.41
-32.21
-32.11
-31.77
-30.84
-29.19
-26.9
-24.25
-21.48
-18.77
-16.22
-13.91
-11.9
-10.11
-8.3
-5.97
-2.49
2.64
9.58
17.85
26.35
33.51
37.68
37.57
32.63
23.23
10.57
-3.67
-17.83
-30.69
-41.74
-51.14
-59.53
-67.62
-75.88
-84.35
-92.61
-99.94
-105.53
-108.84
-109.57
-107.7
-103.42
-97.19
-89.77
-82.25
-75.82
-71.22
-68.33
-65.92
-61.98
-54.62
-42.93
-27.43
-9.91
7.35
22.51
34.62
43.63
49.89
53.69
55.14
54.22
51.12
46.32
40.44
34.02
27.32
20.33
13.0
5.46
-1.86
-8.35
-13.47
-16.98
-19.01
-19.98
-20.44
-20.89
-21.54
-22.39
-23.18
-23.58
-23.36
-22.47
-21.18
-19.92
-19.14
-19.02
-19.39
-19.71
-19.35
-17.92
-15.39
-12.14
-8.77
-5.82
-3.61
-2.15
-1.29
-0.9
-0.9
-1.32
-2.18
-3.41
-4.8
-6.12
-7.18
-7.9
-8.29
-8.42
-8.31
-7.97
-7.35
-6.45
-5.37
-4.2
-3.11
-2.16
-1.4
-0.77
-0.19
0.4
1.02
1.64
2.17
2.49
2.44
1.88
0.78
-0.78
-2.56
-4.27
-5.62
-6.48
-6.92
-7.18
-7.54
-8.21
-9.27
-10.67
-12.24
-13.83
-15.25
-16.35
-16.91
-16.74
-15.7
-13.81
-11.28
-8.42
-5.55
-2.9
-0.55
1.52
3.35
4.98
6.41
7.64
8.73
9.74
10.75
11.76
12.69
13.39
13.75
13.78
13.61
13.46
13.51
13.84
14.47
15.29
16.2
17.06
17.71
17.99
17.78
17.01
15.78
14.25
12.6
10.96
9.39
7.89
6.5
5.28
4.28
3.55
3.06
2.73
2.48
2.29
2.16
2.14
2.22
2.39
2.61
2.85
3.07
3.3
3.62
4.15
5.04
6.37
8.11
10.12
12.13
13.93
15.46
16.85
18.33
20.1
22.25
24.65
27.1
29.37
31.3
32.85
34.1
35.21
36.4
37.9
39.88
42.37
45.19
47.84
49.5
49.2
46.04
39.55
29.97
18.25
5.78
-6.04
-16.31
-24.88
-32.16
-38.75
-44.97
-50.69
-55.48
-58.9
-60.81
-61.43
-61.14
-60.28
-58.95
-57.06
-54.53
-51.36
-47.71
-43.74
-39.53
-35.08
-30.36
-25.48
-20.73
-16.56
-13.4
-11.4
-10.41
-9.91
-9.25
-7.76
-4.86
-0.23
6.2
14.17
23.02
31.76
39.19
44.17
46.03
44.83
41.31
36.66
32.03
28.13
25.11
22.67
20.47
18.37
16.59
15.43
15.05
15.26
15.51
15.21
14.0
11.98
9.66
7.68
6.46
6.05
6.09
6.09
5.69
4.89
3.99
3.41
3.45
4.09
4.99
5.69
5.75
5.0
3.47
1.33
-1.24
-4.1
-7.15
-10.18
-12.9
-14.93
-15.95
-15.82
-14.73
-13.06
-11.37
-10.14
-9.65
-9.89
-10.61
-11.42
-11.91
-11.8
-11.01
-9.55
-7.57
-5.25
-2.73
-0.2
2.12
4.0
5.23
5.72
5.53
4.93
4.22
3.72
3.55
3.66
3.87
3.99
3.92
3.7
3.49
3.4
3.49
3.7
3.87
3.86
3.61
3.12
2.52
1.9
1.35
0.85
0.35
-0.26
-1.06
-2.07
-3.19
-4.26
-5.06
-5.43
-5.31
-4.73
-3.8
-2.66
-1.4
-0.1
1.18
2.34
3.26
3.85
4.15
4.29
4.46
4.77
5.2
5.58
5.69
5.41
4.78
3.99
3.27
2.77
2.48
2.26
1.93
1.39
0.65
-0.12
-0.72
-1.02
-0.98
-0.72
-0.37
-0.06
0.22
0.57
1.16
2.12
3.46
5.08
6.79
8.38
9.69
10.67
11.32
11.67
11.77
11.62
11.18
10.43
9.39
8.15
6.87
5.75
4.95
4.51
4.35
4.29
4.15
3.83
3.33
2.74
2.13
1.56
0.97
0.33
-0.37
-1.11
-1.79
-2.32
-2.66
-2.78
-2.66
-2.3
-1.75
-1.09
-0.5
-0.12
-0.08
-0.36
-0.81
-1.22
-1.41
-1.26
-0.75
0.04
0.95
1.69
2.0
1.64
0.56
-1.07
-2.85
-4.35
-5.24
-5.44
-5.1
-4.49
-3.9
-3.5
-3.31
-3.31
-3.43
-3.66
-3.91
-4.11
-4.09
-3.67
-2.75
-1.33
0.36
2.0
3.25
3.91
3.94
3.57
3.06
2.67
2.55
2.64
2.83
2.96
2.97
2.87
2.78
2.81
3.05
3.52
4.1
4.66
5.08
5.26
5.19
4.94
4.57
4.19
3.89
3.69
3.57
3.49
3.39
3.21
2.96
2.68
2.41
2.2
2.05
1.93
1.82
1.68
1.52
1.33
1.09
0.78
0.34
-0.19
-0.73
-1.11
-1.23
-1.04
-0.65
-0.24
0.05
0.18
0.26
0.47
0.92
1.61
2.36
2.98
3.31
3.34
3.2
3.04
2.97
3.02
3.19
3.51
4.01
4.73
5.68
6.74
7.73
8.45
8.76
8.65
8.24
7.7
7.19
6.79
6.49
6.2
5.84
5.38
4.83
4.25
3.65
3.0
2.26
1.45
0.64
-0.06
-0.53
-0.77
-0.83
-0.85
-0.87
-0.92
-0.9
-0.74
-0.39
0.12
0.73
1.33
1.88
2.37
2.8
3.19
3.48
3.61
3.47
3.01
2.28
1.43
0.69
0.25
0.2
0.46
0.88
1.23
1.4
1.33
1.11
0.84
0.66
0.61
0.7
0.9
1.16
1.42
1.66
1.89
2.12
2.41
2.75
3.06
3.23
3.12
2.69
1.98
1.14
0.38
-0.2
-0.59
-0.93
-1.35
-1.92
-2.58
-3.2
-3.63
-3.76
-3.61
-3.23
-2.73
-2.19
-1.64
-1.15
-0.71
-0.39
-0.21
-0.18
-0.22
-0.25
-0.16
0.06
0.36
0.66
0.88
1.02
1.17
1.44
1.84
2.31
2.71
2.87
2.7
2.21
1.41
0.39
-0.77
-1.96
-3.08
-4.01
-4.67
-5.06
-5.25
-5.39
-5.59
-5.92
-6.35
-6.86
-7.33
-7.68
-7.77
-7.5
-6.83
-5.82
-4.69
-3.71
-3.13
-3.1
-3.58
-4.37
-5.24
-6.03
-6.68
-7.27
-7.81
-8.3
-8.62
-8.69
-8.52
-8.27
-8.15
-8.31
-8.76
-9.38
-9.98
-10.46
-10.84
-11.23
-11.73
-12.33
-12.96
-13.47
-13.8
-14.03
-14.27
-14.67
-15.26
-15.98
-16.71
-17.33
-17.77
-18.05
-18.2
-18.25
-18.21
-18.05
-17.74
-17.23
-16.38
-15.12
-13.41
-11.33
-9.08
-6.91
-5.04
-3.56
-2.44
-1.54
-0.71
0.18
1.15
2.24
3.46
4.87
6.49
8.34
10.33
12.33
14.18
15.74
16.98
17.94
18.75
19.53
20.32
21.12
21.86
22.41
22.73
22.77
22.6
22.28
21.88
21.4
20.8
20.0
18.95
17.68
16.29
14.93
13.69
12.57
11.43
10.11
8.5
6.65
4.73
2.94
1.43
0.23
-0.78
-1.76
-2.86
-4.15
-5.58
-7.04
-8.36
-9.34
-9.86
-9.84
-9.31
-8.44
-7.48
-6.62
-5.99
-5.54
-5.1
-4.42
-3.36
-1.96
-0.43
0.92
1.82
2.17
2.1
1.92
1.92
2.28
2.97
3.79
4.52
4.98
5.13
5.03
4.81
4.56
4.35
4.22
4.14
4.09
4.0
3.81
3.44
2.87
2.11
1.23
0.33
-0.5
-1.23
-1.85
-2.41
-2.99
-3.6
-4.26
-4.88
-5.32
-5.44
-5.17
-4.5
-3.47
-2.23
-0.88
0.42
1.54
2.38
2.81
2.8
2.37
1.62
0.75
-0.04
-0.61
-0.92
-1.01
-0.96
-0.85
-0.73
-0.61
-0.48
-0.33
-0.16
-0.0
0.15
0.29
0.44
0.59
0.75
0.9
1.01
1.03
0.88
0.54
-0.03
-0.74
-1.45
-2.0
-2.25
-2.18
-1.88
-1.52
-1.28
-1.27
-1.47
-1.74
-1.89
-1.75
-1.19
-0.26
0.92
2.07
2.94
3.3
3.13
2.57
1.9
1.38
1.15
1.21
1.39
1.55
1.63
1.65
1.67
1.77
1.94
2.16
2.4
2.62
2.8
2.91
2.88
2.69
2.36
1.94
1.5
1.07
0.63
0.18
-0.28
-0.69
-1.01
-1.27
-1.56
-1.97
-2.5
-3.08
-3.59
-3.95
-4.16
-4.31
-4.49
-4.65
-4.65
-4.34
-3.68
-2.81
-1.96
-1.34
-1.01
-0.87
-0.7
-0.33
0.3
1.09
1.87
2.49
2.86
2.99
2.98
2.97
3.03
3.23
3.53
3.88
4.2
4.43
4.56
4.59
4.57
4.53
4.45
4.27
3.93
3.38
2.63
1.77
0.94
0.25
-0.24
-0.59
-0.9
-1.3
-1.88
-2.63
-3.47
-4.28
-4.95
-5.38
-5.54
-5.47
-5.22
-4.89
-4.51
-4.07
-3.53
-2.82
-1.95
-1.0
-0.09
0.63
1.06
1.18
1.04
0.75
0.4
0.07
-0.21
-0.44
-0.63
-0.78
-0.92
-1.04
-1.15
-1.26
-1.44
-1.78
-2.39
-3.35
-4.67
-6.31
-8.13
-9.97
-11.64
-13.02
-14.11
-15.05
-16.0
-17.15
-18.58
-20.22
-21.95
-23.61
-25.18
-26.78
-28.63
-30.91
-33.66
-36.67
-39.56
-41.91
-43.43
-44.05
-43.99
-43.72
-43.77
-44.56
-46.23
-48.52
-50.81
-52.26
-52.07
-49.72
-45.18
-39.01
-32.24
-26.13
-21.83
-20.11
-21.24
-25.01
-30.89
-38.16
-45.98
-53.43
-59.52
-63.34
-64.28
-62.33
-58.19
-53.18
-48.8
-46.22
-45.82
-47.02
-48.38
-47.88
-43.29
-32.62
-14.73
10.16
40.1
71.72
101.05
124.64
140.72
149.59
153.3
154.71
156.42
160.1
166.41
175.24
186.05
198.01
209.8
219.71
225.81
226.57
221.39
210.85
196.47
180.17
163.48
147.16
131.15
114.85
97.49
78.5
57.74
35.51
12.6
-9.84
-30.54
-48.45
-63.03
-74.44
-83.32
-90.41
-96.13
-100.49
-103.2
-104.15
-103.62
-102.37
-101.31
-101.04
-101.59
-102.46
-102.91
-102.35
-100.54
-97.63
-93.92
-89.58
-84.69
-79.34
-73.81
-68.63
-64.3
-61.03
-58.5
-55.92
-52.29
-46.8
-39.01
-28.84
-16.36
-1.75
14.6
31.75
48.16
61.83
71.05
75.1
74.69
71.85
69.21
69.11
72.85
80.34
90.12
99.86
106.97
109.34
105.85
96.56
82.51
65.26
46.27
26.55
6.72
-12.74
-31.15
-47.62
-61.34
-71.95
-79.82
-85.95
-91.56
-97.5
-103.95
-110.38
-115.89
-119.66
-121.38
-121.35
-120.34
-119.19
-118.47
-118.15
-117.66
-116.03
-112.17
-105.23
-94.79
-80.97
-64.42
-46.18
-27.4
-9.04
8.29
24.49
39.82
54.76
69.75
85.15
101.12
117.69
134.71
151.78
168.21
183.01
195.09
203.61
208.24
209.23
207.26
203.07
197.3
190.32
182.4
173.8
164.83
155.64
146.04
135.37
122.74
107.41
89.19
68.74
47.3
26.37
7.14
-9.75
-24.16
-36.17
-45.78
-52.77
-56.72
-57.37
-54.97
-50.54
-45.86
-43.13
-44.35
-50.52
-61.11
-74.05
-86.26
-94.69
-97.38
-94.05
-85.97
-75.29
-64.12
-53.85
-45.1
-37.95
-32.36
-28.35
-25.93
-24.84
-24.52
-24.17
-23.13
-21.18
-18.66
-16.28
-14.84
-14.79
-16.04
-18.01
-20.0
-21.5
-22.47
-23.29
-24.52
-26.49
-29.09
-31.74
-33.62
-34.05
-32.8
-30.21
-27.1
-24.47
-23.18
-23.83
-26.68
-31.8
-39.28
-49.32
-62.18
-77.86
-95.82
-114.8
-133.05
-148.81
-160.83
-168.54
-171.97
-171.27
-166.39
-157.09
-143.24
-125.34
-104.66
-83.11
-62.66
-44.76
-30.05
-18.45
-9.49
-2.73
2.04
4.86
5.77
4.91
2.59
-0.75
-4.6
-8.39
-11.53
-13.54
-14.11
-13.29
-11.46
-9.28
-7.45
-6.46
-6.45
-7.17
-8.11
-8.61
-8.08
-6.0
-1.97
4.3
12.88
23.5
35.52
47.92
59.5
69.25
76.63
81.69
84.96
87.18
89.14
91.4
94.3
97.77
101.3
103.95
104.52
102.06
96.35
88.12
78.93
70.59
64.42
60.87
59.48
59.33
59.59
59.82
59.95
59.94
59.52
58.19
55.34
50.59
44.03
36.17
27.78
19.65
12.29
5.9
0.35
-4.66
-9.46
-14.25
-18.99
-23.46
-27.31
-30.23
-32.11
-33.06
-33.38
-33.39
-33.28
-33.03
-32.53
-31.65
-30.45
-29.09
-27.81
-26.78
-25.98
-25.31
-24.62
-23.8
-22.89
-22.02
-21.35
-21.11
-21.52
-22.74
-24.94
-28.1
-31.99
-36.04
-39.38
-40.95
-39.69
-34.92
-26.61
-15.6
-3.43
7.96
16.8
22.04
23.54
22.05
18.71
14.69
10.8
7.41
4.56
2.06
-0.33
-2.83
-5.52
-8.25
-10.62
-12.0
-11.79
-9.72
-5.97
-1.23
3.6
7.71
10.66
12.44
13.43
14.12
14.95
16.16
17.75
19.46
20.84
21.34
20.44
17.88
13.81
8.74
3.49
-1.19
-4.8
-7.23
-8.68
-9.48
-9.91
-10.16
-10.36
-10.72
-11.53
-13.08
-15.52
-18.74
-22.31
-25.72
-28.47
-30.35
-31.41
-31.92
-32.23
-32.62
-33.17
-33.81
-34.38
-34.76
-34.93
-35.0
-35.09
-35.24
-35.37
-35.34
-34.9
-33.73
-31.33
-27.04
-20.16
-10.22
2.75
18.02
34.31
50.07
63.85
74.63
81.85
85.32
85.12
81.43
74.62
65.16
53.73
41.17
28.46
16.61
6.62
-0.8
-5.39
-7.47
-7.86
-7.64
-7.77
-8.8
-10.75
-13.24
-15.76
-17.96
-19.77
-21.39
-23.12
-25.02
-26.89
-28.28
-28.69
-27.93
-26.28
-24.38
-23.02
-22.68
-23.39
-24.7
-25.92
-26.49
-26.16
-25.09
-23.7
-22.51
-22.02
-22.59
-24.38
-27.2
-30.5
-33.4
-34.96
-34.45
-31.7
-27.19
-22.04
-17.75
-15.88
-17.7
-23.87
-34.23
-47.77
-62.81
-77.36
-89.49
-97.62
-100.71
-98.25
-90.23
-77.05
-59.55
-38.91
-16.5
6.35
28.51
49.21
67.97
84.52
98.74
110.58
120.19
127.88
134.16
139.63
144.82
150.12
155.65
161.32
166.84
171.73
175.46
177.58
177.86
176.46
173.74
170.18
166.15
161.79
157.0
151.61
145.46
138.53
130.9
122.78
114.37
105.78
96.87
87.23
76.29
63.64
49.36
34.17
19.37
6.32
-4.14
-11.91
-17.52
-21.71
-24.97
-27.38
-28.86
-29.56
-30.17
-31.74
-35.35
-41.52
-50.04
-60.0
-70.21
-79.66
-87.86
-94.86
-101.0
-106.65
-111.92
-116.75
-120.9
-124.29
-126.99
-129.18
-131.0
-132.27
-132.55
-131.26
-127.97
-122.65
-115.77
-108.18
-100.75
-94.1
-88.37
-83.32
-78.44
-73.32
-67.77
-61.91
-56.11
-50.78
-46.22
-42.49
-39.41
-36.64
-33.9
-31.07
-28.27
-25.81
-24.03
-23.18
-23.26
-24.14
-25.59
-27.38
-29.22
-30.51
-30.27
-27.27
-20.41
-9.28
5.49
22.37
39.44
55.0
67.94
77.61
83.55
85.2
82.03
74.0
61.94
47.61
33.31
21.1
12.19
6.64
3.58
1.66
-0.4
-3.32
-7.18
-11.45
-15.27
-17.91
-19.01
-18.78
-17.83
-16.89
-16.58
-17.37
-19.57
-23.3
-28.38
-34.17
-39.68
-43.75
-45.62
-45.24
-43.31
-41.0
-39.36
-38.81
-38.89
-38.32
-35.49
-28.98
-18.14
-3.41
13.71
31.08
46.62
59.0
67.93
74.0
78.19
81.32
83.72
85.25
85.68
84.83
82.66
79.19
74.41
68.34
61.15
53.26
45.26
37.68
30.81
24.63
18.94
13.58
8.54
3.99
0.02
-3.36
-6.34
-9.08
-11.65
-13.97
-15.88
-17.28
-18.21
-18.81
-19.24
-19.57
-19.8
-19.89
-19.7
-19.18
-18.25
-16.89
-15.17
-13.26
-11.38
-9.75
-8.41
-7.21
-5.81
-3.84
-1.0
2.81
7.46
12.61
17.73
22.2
25.33
26.5
25.4
22.17
17.48
12.33
7.77
4.52
2.83
2.45
2.89
3.6
4.11
4.11
3.48
2.22
0.53
-1.23
-2.62
-3.25
-2.9
-1.62
0.28
2.35
4.14
5.34
5.81
5.66
5.16
4.73
4.76
5.6
7.46
10.3
13.88
17.77
21.42
24.39
26.41
27.5
27.9
27.91
27.77
27.56
27.18
26.52
25.49
24.07
22.29
20.17
17.69
14.77
11.38
7.51
3.34
-0.88
-4.88
-8.5
-11.76
-14.93
-18.32
-22.18
-26.53
-31.16
-35.76
-40.1
-44.08
-47.75
-51.12
-54.12
-56.45
-57.81
-57.95
-56.83
-54.59
-51.42
-47.57
-43.35
-39.1
-35.25
-32.15
-30.0
-28.63
-27.62
-26.34
-24.27
-21.18
-17.21
-12.79
-8.43
-4.43
-0.73
2.93
6.9
11.26
15.84
20.28
24.32
27.99
31.59
35.41
39.41
43.1
45.66
46.42
45.23
42.63
39.5
36.64
34.37
32.47
30.44
27.87
24.71
21.22
17.82
14.81
12.22
9.91
7.7
5.48
3.27
1.18
-0.66
-2.14
-3.24
-3.91
-4.13
-3.89
-3.18
-2.07
-0.72
0.66
1.89
2.88
3.68
4.42
5.21
6.05
6.8
7.25
7.25
6.73
5.76
4.43
2.9
1.28
-0.26
-1.57
-2.54
-3.15
-3.52
-3.83
-4.24
-4.75
-5.22
-5.49
-5.46
-5.21
-4.96
-4.9
-5.06
-5.35
-5.65
-5.89
-6.2
-6.79
-7.8
-9.25
-10.91
-12.44
-13.6
-14.29
-14.63
-14.85
-15.11
-15.47
-15.78
-15.74
-15.09
-13.61
-11.28
-8.29
-4.97
-1.66
1.34
3.86
5.97
7.86
9.78
11.94
14.46
17.27
20.08
22.49
24.05
24.41
23.46
21.27
18.03
13.88
8.96
3.42
-2.47
-8.28
-13.5
-17.77
-20.98
-23.35
-25.3
-27.22
-29.32
-31.53
-33.61
-35.24
-36.18
-36.3
-35.6
-34.24
-32.52
-30.75
-29.2
-27.92
-26.67
-24.99
-22.27
-18.11
-12.52
-6.03
0.44
5.9
9.66
11.62
12.22
12.25
12.38
12.95
13.88
14.84
15.53
15.8
15.79
15.73
15.89
16.37
17.18
18.22
19.37
20.53
21.56
22.21
22.11
20.86
18.15
14.0
8.84
3.41
-1.43
-5.06
-7.27
-8.33
-8.83
-9.38
-10.41
-12.02
-14.02
-16.0
-17.52
-18.29
-18.19
-17.35
-16.1
-14.83
-13.8
-13.14
-12.68
-12.08
-10.99
-9.11
-6.38
-3.01
0.68
4.25
7.39
9.9
11.75
13.06
13.98
14.66
15.18
15.56
15.73
15.6
15.13
14.34
13.32
12.23
11.2
10.29
9.52
8.83
8.16
7.51
6.85
6.16
5.44
4.67
3.93
3.29
2.86
2.62
2.36
1.76
0.52
-1.49
-4.01
-6.47
-8.23
-8.79
-8.07
-6.37
-4.24
-2.2
-0.52
0.76
1.8
2.69
3.34
3.53
3.07
1.91
0.24
-1.57
-3.14
-4.19
-4.65
-4.61
-4.27
-3.89
-3.66
-3.78
-4.31
-5.18
-6.17
-6.95
-7.22
-6.87
-6.04
-5.08
-4.39
-4.24
-4.75
-5.85
-7.34
-8.91
-10.07
-10.21
-8.85
-5.9
-1.94
1.9
4.28
4.27
1.7
-2.73
-7.83
-12.42
-15.7
-17.34
-17.34
-15.81
-12.9
-8.9
-4.34
0.02
3.24
4.57
3.68
0.78
-3.39
-7.75
-11.25
-13.1
-12.97
-11.07
-7.88
-3.96
0.3
4.76
9.42
14.17
18.66
22.39
24.97
26.42
27.23
28.08
29.53
31.63
33.9
35.6
36.16
35.49
33.97
32.13
30.25
28.3
25.95
23.06
19.86
16.96
15.1
14.74
15.73
17.38
18.69
18.79
17.39
14.89
12.29
10.87
11.81
15.81
22.84
32.15
42.32
51.62
58.45
61.73
61.29
57.79
52.5
46.67
41.13
35.98
30.77
24.78
17.48
8.73
-1.2
-11.77
-22.29
-32.08
-40.54
-47.28
-52.29
-55.88
-58.67
-61.25
-63.87
-66.35
-68.19
-68.87
-68.14
-66.19
-63.47
-60.48
-57.58
-55.01
-52.98
-51.78
-51.72
-52.85
-54.69
-56.19
-55.97
-52.89
-46.49
-37.25
-26.4
-15.33
-5.16
3.57
10.75
16.34
20.13
21.85
21.43
19.32
16.56
14.37
13.57
14.19
15.41
15.9
14.45
10.44
4.04
-3.97
-12.58
-20.89
-28.37
-34.93
-40.73
-46.06
-51.11
-55.89
-60.08
-63.21
-64.61
-63.56
-59.44
-51.89
-41.09
-27.9
-13.86
-0.88
9.29
15.58
17.92
17.24
15.04
12.86
11.77
12.15
13.83
16.3
19.15
22.2
25.56
29.51
34.24
39.77
45.87
52.21
58.56
64.85
71.14
77.56
84.11
90.6
96.66
101.78
105.38
106.95
106.21
103.18
98.27
92.13
85.46
78.83
72.53
66.63
60.96
55.03
47.98
38.81
26.82
12.08
-4.3
-20.43
-34.5
-45.5
-53.8
-60.69
-67.69
-75.49
-83.68
-91.07
-96.48
-99.52
-100.71
-101.08
-101.5
-102.12
-102.41
-101.54
-98.84
-94.25
-88.29
-81.8
-75.49
-69.63
-64.04
-58.19
-51.53
-43.78
-35.08
-25.99
-17.23
-9.4
-2.73
2.98
8.18
13.28
18.39
23.22
27.21
29.84
30.87
30.46
28.98
26.84
24.28
21.39
18.22
14.87
11.57
8.56
5.96
3.74
1.78
-0.1
-1.96
-3.72
-5.18
-6.14
-6.48
-6.23
-5.52
-4.54
-3.5
-2.55
-1.79
-1.16
-0.55
0.36
1.95
4.6
8.62
14.0
20.35
26.94
32.88
37.34
39.79
40.14
38.72
36.23
33.54
31.46
30.57
30.93
32.11
33.26
33.4
31.85
28.39
23.4
17.66
12.11
7.6
4.7
3.7
4.66
7.38
11.48
16.39
21.42
25.88
29.21
31.1
31.6
31.07
30.08
29.27
29.06
29.6
30.7
31.95
32.88
33.11
32.49
31.1
29.22
27.28
25.73
24.95
25.1
26.12
27.78
29.85
32.17
34.7
37.52
40.71
44.35
48.42
52.56
55.86
56.68
52.96
42.94
26.14
4.01
-20.2
-42.55
-59.79
-70.55
-75.44
-76.34
-75.17
-73.03
-70.13
-66.33
-61.92
-57.82
-55.29
-55.22
-57.57
-61.36
-65.08
-67.43
-67.68
-65.93
-62.84
-59.12
-55.21
-51.13
-46.57
-41.2
-34.93
-27.93
-20.68
-13.66
-7.24
-1.61
3.17
7.04
9.86
11.4
11.51
10.15
7.55
4.11
0.29
-3.5
-6.97
-9.93
-12.31
-14.12
-15.44
-16.47
-17.46
-18.59
-19.94
-21.46
-22.99
-24.42
-25.71
-26.94
-28.18
-29.51
-30.97
-32.56
-34.3
-36.19
-38.1
-39.81
-40.98
-41.25
-40.41
-38.42
-35.39
-31.46
-26.68
-20.94
-14.02
-5.67
4.24
15.69
28.57
42.81
58.45
75.47
93.61
112.26
130.37
146.82
160.78
171.93
180.23
185.35
186.29
181.62
170.14
151.85
128.42
102.73
77.9
55.99
37.49
21.5
6.71
-7.72
-21.76
-34.8
-46.21
-55.86
-64.13
-71.56
-78.5
-84.81
-90.06
-93.83
-95.87
-96.35
-95.74
-94.53
-93.04
-91.25
-88.76
-84.95
-79.18
-71.11
-60.83
-48.95
-36.36
-24.02
-12.62
-2.48
6.49
14.55
21.95
28.84
35.24
41.14
46.5
51.17
54.74
56.63
56.18
53.01
47.17
39.16
29.74
19.62
9.35
-0.76
-10.42
-19.28
-26.92
-33.09
-37.85
-41.64
-45.1
-48.77
-52.84
-56.97
-60.53
-62.79
-63.19
-61.43
-57.51
-51.67
-44.3
-35.91
-27.09
-18.38
-10.16
-2.61
4.28
10.64
16.57
22.0
26.8
30.76
33.79
36.0
37.62
38.95
40.13
41.16
41.87
42.0
41.38
39.95
37.81
35.14
32.14
28.96
25.77
22.68
19.81
17.17
14.67
12.08
9.11
5.51
1.17
-3.89
-9.49
-15.36
-21.14
-26.47
-30.94
-34.24
-36.2
-36.89
-36.56
-35.53
-34.04
-32.18
-29.86
-26.88
-23.13
-18.65
-13.67
-8.58
-3.81
0.29
3.53
5.93
7.65
8.99
10.19
11.4
12.64
13.78
14.61
14.91
14.53
13.46
11.85
9.99
8.2
6.71
5.56
4.59
3.56
2.29
0.8
-0.76
-2.15
-3.23
-4.01
-4.6
-5.1
-5.53
-5.86
-6.01
-5.98
-5.8
-5.55
-5.25
-4.87
-4.35
-3.66
-2.81
-1.82
-0.74
0.37
1.46
2.46
3.25
3.78
4.02
4.05
4.0
4.03
4.23
4.56
4.88
5.0
4.77
4.16
3.24
2.17
1.09
0.03
-1.05
-2.17
-3.26
-4.15
-4.62
-4.55
-3.99
-3.13
-2.2
-1.35
-0.54
0.37
1.49
2.85
4.36
5.85
7.18
8.23
8.92
9.13
8.76
7.74
6.15
4.28
2.5
1.25
0.79
1.13
2.04
3.18
4.2
4.93
5.34
5.56
5.71
5.88
6.0
6.01
5.86
5.61
5.38
5.32
5.49
5.85
6.26
6.61
6.79
6.83
6.81
6.86
7.11
7.64
8.42
9.36
10.29
11.12
11.9
12.87
14.33
16.54
19.54
23.05
26.62
29.83
32.34
34.16
35.52
36.74
38.11
39.86
42.05
44.46
46.4
46.72
44.16
37.88
28.01
15.82
3.28
-7.79
-16.4
-22.7
-27.61
-32.04
-36.38
-40.45
-43.83
-46.43
-48.68
-51.29
-54.75
-58.94
-63.18
-66.64
-68.73
-69.28
-68.64
-67.32
-65.77
-64.15
-62.31
-59.87
-56.34
-51.28
-44.4
-35.71
-25.53
-14.43
-3.15
7.61
17.32
25.62
32.32
37.3
40.44
41.69
41.16
39.16
36.18
32.66
28.78
24.46
19.42
13.47
6.71
-0.44
-7.31
-13.32
-18.06
-21.42
-23.49
-24.44
-24.44
-23.69
-22.38
-20.74
-18.91
-16.92
-14.68
-11.95
-8.55
-4.35
0.56
5.9
11.3
16.37
20.8
24.44
27.26
29.31
30.64
31.23
31.03
30.03
28.25
25.9
23.24
20.56
18.13
16.09
14.46
13.17
12.07
11.0
9.87
8.62
7.23
5.76
4.27
2.87
1.67
0.75
0.17
-0.03
0.09
0.37
0.66
0.82
0.81
0.74
0.81
1.19
1.95
3.01
4.17
5.17
5.85
6.16
6.16
5.97
5.76
5.62
5.61
5.72
5.9
6.02
6.02
5.83
5.49
5.11
4.78
4.54
4.37
4.21
3.99
3.73
3.45
3.22
3.02
2.81
2.48
1.97
1.29
0.55
-0.12
-0.62
-0.9
-1.04
-1.13
-1.28
-1.51
-1.8
-2.14
-2.48
-2.85
-3.25
-3.7
-4.17
-4.62
-5.01
-5.29
-5.42
-5.36
-5.04
-4.4
-3.43
-2.24
-1.03
-0.04
0.59
0.83
0.86
0.9
1.17
1.7
2.39
3.04
3.5
3.79
3.99
4.27
4.64
5.02
5.25
5.3
5.23
5.21
5.38
5.71
6.01
6.01
5.5
4.52
3.34
2.37
1.97
2.33
3.34
4.73
6.1
7.08
7.43
7.1
6.2
4.97
3.68
2.61
1.95
1.76
1.96
2.39
2.84
3.1
3.03
2.59
1.82
0.88
-0.04
-0.74
-1.13
-1.25
-1.26
-1.33
-1.6
-2.04
-2.62
-3.23
-3.85
-4.44
-4.98
-5.33
-5.37
-5.02
-4.39
-3.72
-3.32
-3.4
-4.04
-5.14
-6.45
-7.77
-8.94
-9.87
-10.55
-11.0
-11.29
-11.41
-11.34
-11.0
-10.36
-9.44
-8.35
-7.25
-6.28
-5.48
-4.83
-4.28
-3.89
-3.72
-3.85
-4.23
-4.62
-4.68
-4.17
-2.99
-1.33
0.5
2.21
3.64
4.76
5.67
6.47
7.21
7.92
8.63
9.35
10.05
10.59
10.75
10.29
9.14
7.37
5.32
3.36
1.86
0.97
0.65
0.61
0.49
-0.07
-1.26
-3.05
-5.24
-7.5
-9.53
-11.1
-12.15
-12.72
-12.91
-12.83
-12.6
-12.32
-12.13
-12.08
-12.19
-12.37
-12.43
-12.2
-11.58
-10.62
-9.49
-8.45
-7.74
-7.47
-7.61
-7.99
-8.34
-8.43
-8.12
-7.42
-6.51
-5.61
-4.97
-4.77
-5.06
-5.78
-6.7
-7.51
-7.92
-7.72
-6.93
-5.73
-4.48
-3.46
-2.82
-2.49
-2.22
-1.73
-0.84
0.47
2.06
3.71
5.23
6.47
7.38
7.94
8.14
8.01
7.61
7.08
6.59
6.24
6.06
5.96
5.79
5.44
4.85
4.11
3.35
2.7
2.2
1.86
1.61
1.42
1.23
1.05
0.85
0.6
0.27
-0.17
-0.72
-1.32
-1.9
-2.4
-2.72
-2.88
-2.93
-3.02
-3.31
-3.87
-4.63
-5.4
-5.97
-6.18
-5.98
-5.46
-4.74
-3.92
-3.07
-2.23
-1.43
-0.71
-0.07
0.5
1.04
1.57
2.08
2.51
2.81
2.98
3.09
3.21
3.39
3.64
3.9
4.07
4.11
3.95
3.61
3.12
2.58
2.05
1.62
1.3
1.04
0.78
0.49
0.18
-0.06
-0.19
-0.19
-0.14
-0.11
-0.16
-0.25
-0.32
-0.32
-0.25
-0.19
-0.24
-0.44
-0.8
-1.22
-1.59
-1.8
-1.77
-1.49
-1.03
-0.48
0.07
0.55
0.94
1.29
1.62
1.96
2.28
2.54
2.71
2.85
3.03
3.31
3.7
4.11
4.38
4.43
4.24
3.93
3.68
3.66
3.93
4.47
5.13
5.74
6.12
6.17
5.87
5.33
4.73
4.27
4.12
4.3
4.7
5.13
5.42
5.46
5.29
5.07
4.94
5.03
5.37
5.88
6.46
6.94
7.21
7.19
6.88
6.28
5.43
4.37
3.1
1.66
0.03
-1.77
-3.72
-5.74
-7.71
-9.5
-10.89
-11.75
-11.98
-11.7
-11.14
-10.68
-10.69
-11.41
-12.88
-14.91
-17.1
-18.95
-19.98
-19.86
-18.46
-15.88
-12.4
-8.45
-4.45
-0.84
2.06
4.06
5.06
5.1
4.32
2.92
1.18
-0.67
-2.49
-4.24
-5.97
-7.75
-9.57
-11.38
-12.95
-14.04
-14.4
-13.97
-12.86
-11.4
-10.01
-9.06
-8.73
-8.98
-9.54
-10.05
-10.15
-9.59
-8.29
-6.37
-4.14
-2.05
-0.52
0.21
0.25
-0.04
-0.08
0.58
2.19
4.69
7.78
11.12
14.32
17.1
19.23
20.63
21.39
21.81
22.3
23.24
24.8
26.79
28.73
30.03
30.26
29.24
27.13
24.31
21.19
18.1
15.24
12.66
10.39
8.41
6.71
5.23
3.92
2.66
1.41
0.21
-0.82
-1.51
-1.78
-1.72
-1.58
-1.71
-2.36
-3.6
-5.26
-6.98
-8.35
-9.06
-9.0
-8.27
-7.1
-5.76
-4.45
-3.22
-1.98
-0.6
0.99
2.77
4.61
6.34
7.87
9.11
9.91
10.02
9.16
7.12
3.94
-0.03
-4.24
-8.05
-10.95
-12.69
-13.26
-12.85
-11.8
-10.46
-9.17
-8.16
-7.47
-6.98
-6.47
-5.81
-5.03
-4.32
-3.89
-3.83
-4.01
-4.18
-4.07
-3.55
-2.7
-1.73
-0.9
-0.36
-0.11
0.0
0.16
0.46
0.89
1.35
1.73
1.99
2.22
2.57
3.16
3.98
4.88
5.67
6.21
6.49
6.63
6.75
6.91
7.04
7.0
6.64
5.93
4.96
3.89
2.86
1.95
1.18
0.5
-0.13
-0.73
-1.26
-1.72
-2.11
-2.45
-2.77
-3.04
-3.24
-3.32
-3.25
-3.06
-2.81
-2.54
-2.26
-1.9
-1.37
-0.63
0.28
1.23
2.07
2.64
2.91
2.9
2.7
2.44
2.2
2.03
1.98
2.05
2.23
2.48
2.75
2.99
3.14
3.18
3.11
2.94
2.72
2.46
2.18
1.87
1.47
0.97
0.34
-0.38
-1.08
-1.65
-2.0
-2.12
-2.12
-2.16
-2.37
-2.78
-3.3
-3.77
-4.06
-4.12
-4.02
-3.92
-3.93
-4.07
-4.28
-4.42
-4.37
-4.09
-3.67
-3.21
-2.81
-2.49
-2.23
-1.93
-1.51
-0.98
-0.38
0.16
0.57
0.81
0.97
1.12
1.33
1.56
1.73
1.75
1.62
1.41
1.25
1.15
1.06
0.84
0.34
-0.4
-1.24
-1.91
-2.24
-2.2
-1.93
-1.66
-1.61
-1.86
-2.32
-2.85
-3.27
-3.52
-3.63
-3.67
-3.73
-3.83
-3.95
-4.04
-4.07
-4.04
-3.93
-3.72
-3.36
-2.83
-2.16
-1.48
-0.91
-0.56
-0.42
-0.41
-0.43
-0.38
-0.26
-0.08
0.11
0.29
0.46
0.62
0.74
0.76
0.6
0.27
-0.19
-0.7
-1.15
-1.51
-1.78
-2.0
-2.19
-2.37
-2.51
-2.63
-2.74
-2.87
-3.0
-3.11
-3.16
-3.14
-3.11
-3.17
-3.43
-3.92
-4.59
-5.31
-5.91
-6.28
-6.37
-6.28
-6.14
-6.09
-6.21
-6.44
-6.62
-6.51
-5.89
-4.63
-2.79
-0.5
2.0
4.5
6.84
8.89
10.6
11.92
12.9
13.63
14.31
15.1
16.12
17.35
18.69
20.01
21.22
22.3
23.19
23.83
24.08
23.84
23.13
22.1
20.93
19.7
18.35
16.67
14.48
11.71
8.53
5.26
2.21
-0.39
-2.45
-4.01
-5.09
-5.66
-5.71
-5.24
-4.32
-3.15
-2.0
-1.18
-0.91
-1.33
-2.4
-4.01
-5.95
-8.1
-10.41
-12.92
-15.65
-18.55
-21.4
-23.86
-25.53
-26.16
-25.76
-24.6
-23.07
-21.54
-20.15
-18.81
-17.34
-15.61
-13.67
-11.68
-9.86
-8.28
-6.94
-5.76
-4.72
-3.86
-3.17
-2.58
-1.92
-0.99
0.32
1.91
3.56
4.97
5.96
6.46
6.52
6.23
5.68
4.96
4.18
3.52
3.13
3.09
3.33
3.66
3.86
3.84
3.63
3.38
3.23
3.26
3.41
3.59
3.74
3.86
4.04
4.37
4.89
5.58
6.35
7.15
7.92
8.64
9.25
9.71
10.0
10.1
10.08
10.03
10.05
10.18
10.41
10.63
10.72
10.56
10.12
9.49
8.79
8.18
7.71
7.34
6.97
6.46
5.72
4.72
3.45
1.94
0.21
-1.71
-3.77
-5.97
-8.31
-10.78
-13.33
-15.83
-18.11
-19.97
-21.32
-22.2
-22.75
-23.14
-23.5
-23.84
-24.03
-23.92
-23.32
-22.13
-20.42
-18.45
-16.55
-15.05
-14.11
-13.58
-13.14
-12.33
-10.84
-8.59
-5.79
-2.85
-0.18
1.89
3.2
3.73
3.65
3.29
3.12
3.63
5.18
7.83
11.27
14.93
18.15
20.43
21.47
21.34
20.36
19.05
17.98
17.69
18.5
20.35
22.84
25.3
27.07
27.77
27.43
26.41
25.12
23.88
22.7
21.49
20.21
18.99
18.02
17.29
16.49
15.02
12.33
8.18
2.84
-3.04
-8.78
-13.93
-18.36
-22.19
-25.54
-28.38
-30.62
-32.19
-33.15
-33.65
-33.75
-33.36
-32.28
-30.35
-27.61
-24.31
-20.76
-17.2
-13.69
-10.2
-6.67
-3.17
0.13
3.0
5.34
7.1
8.28
8.89
8.92
8.48
7.78
7.21
7.15
7.87
9.39
11.47
13.78
16.03
18.03
19.75
21.14
22.24
23.07
23.63
23.85
23.48
22.14
19.47
15.31
9.89
3.85
-2.01
-7.0
-10.77
-13.41
-15.25
-16.68
-17.9
-18.93
-19.69
-20.12
-20.27
-20.27
-20.29
-20.35
-20.35
-20.15
-19.58
-18.58
-17.28
-15.95
-14.93
-14.5
-14.71
-15.43
-16.44
-17.52
-18.61
-19.8
-21.26
-23.11
-25.4
-28.07
-31.05
-34.32
-37.86
-41.61
-45.44
-49.17
-52.56
-55.47
-57.9
-59.91
-61.59
-62.89
-63.56
-63.22
-61.46
-58.01
-52.87
-46.25
-38.53
-30.01
-20.9
-11.23
-0.98
9.81
20.93
31.98
42.47
51.93
60.04
66.62
71.66
75.22
77.4
78.3
78.06
76.86
74.95
72.54
69.79
66.69
63.19
59.19
54.68
49.8
44.85
40.14
35.99
32.6
30.02
28.19
26.95
26.04
25.23
24.29
23.15
21.88
20.67
19.84
19.68
20.23
21.26
22.21
22.46
21.52
19.36
16.38
13.33
10.98
9.82
9.9
10.89
12.32
13.77
15.04
16.09
16.97
17.69
18.24
18.57
18.67
18.56
18.22
17.61
16.62
15.15
13.17
10.82
8.33
6.0
4.08
2.67
1.75
1.24
1.0
0.94
0.97
1.08
1.22
1.36
1.48
1.54
1.53
1.45
1.36
1.34
1.44
1.65
1.8
1.63
0.88
-0.64
-2.84
-5.44
-8.08
-10.44
-12.39
-13.97
-15.36
-16.74
-18.23
-19.86
-21.65
-23.59
-25.66
-27.81
-29.88
-31.7
-33.09
-33.98
-34.44
-34.62
-34.64
-34.53
-34.27
-33.77
-32.96
-31.88
-30.59
-29.2
-27.82
-26.54
-25.42
-24.52
-23.8
-23.2
-22.55
-21.71
-20.58
-19.14
-17.41
-15.46
-13.35
-11.17
-8.98
-6.87
-4.92
-3.2
-1.71
-0.45
0.61
1.49
2.19
2.7
3.03
3.2
3.31
3.47
3.75
4.2
4.76
5.32
5.74
5.94
5.96
5.88
5.82
5.83
5.86
5.75
5.35
4.56
3.49
2.33
1.36
0.79
0.69
0.99
1.46
1.89
2.14
2.17
1.98
1.55
0.83
-0.25
-1.66
-3.27
-4.75
-5.79
-6.18
-5.94
-5.29
-4.55
-4.0
-3.76
-3.8
-3.96
-4.04
-3.88
-3.39
-2.58
-1.57
-0.55
0.31
0.86
1.11
1.17
1.21
1.34
1.61
1.93
2.24
2.54
2.9
3.43
4.17
5.01
5.78
6.28
6.45
6.34
6.11
5.94
5.92
6.05
6.25
6.48
6.75
7.15
7.82
8.84
10.18
11.71
13.19
14.36
14.99
14.99
14.4
13.4
12.27
11.25
10.54
10.19
10.15
10.31
10.53
10.74
10.91
11.1
11.38
11.79
12.26
12.55
12.33
11.25
9.13
6.06
2.35
-1.61
-5.4
-8.74
-11.43
-13.38
-14.52
-14.85
-14.48
-13.56
-12.28
-10.72
-8.87
-6.6
-3.84
-0.72
2.43
5.07
6.68
6.92
5.75
3.47
0.62
-2.2
-4.52
-6.16
-7.2
-7.93
-8.64
-9.49
-10.45
-11.37
-12.15
-12.77
-13.31
-13.84
-14.32
-14.53
-14.11
-12.83
-10.62
-7.73
-4.62
-1.83
0.26
1.55
2.18
2.42
2.53
2.6
2.55
2.1
0.99
-1.05
-4.11
-8.04
-12.49
-16.92
-20.75
-23.51
-24.99
-25.25
-24.62
-23.53
-22.38
-21.45
-20.91
-20.79
-21.05
-21.58
-22.22
-22.85
-23.45
-24.05
-24.8
-25.74
-26.8
-27.74
-28.26
-28.1
-27.21
-25.76
-24.07
-22.48
-21.16
-20.08
-19.04
-17.78
-16.07
-13.79
-10.96
-7.71
-4.2
-0.66
2.72
5.73
8.25
10.25
11.82
13.15
14.42
15.78
17.24
18.73
20.13
21.26
22.01
22.27
21.98
21.16
19.91
18.42
16.95
15.7
14.74
14.02
13.36
12.56
11.5
10.17
8.67
7.15
5.83
4.92
4.62
5.07
6.22
7.87
9.75
11.65
13.61
15.95
19.08
23.34
28.73
34.93
41.44
47.91
54.12
59.83
64.41
66.73
65.44
59.67
49.66
36.9
23.58
11.64
1.94
-5.97
-13.31
-21.25
-30.19
-39.59
-48.38
-55.51
-60.4
-63.0
-63.59
-62.56
-60.4
-57.72
-55.28
-53.74
-53.55
-54.63
-56.44
-58.11
-58.83
-58.05
-55.58
-51.57
-46.35
-40.34
-33.98
-27.51
-20.68
-12.53
-1.42
14.52
36.4
63.83
94.56
124.98
151.23
170.47
181.51
184.67
181.07
171.77
157.44
138.61
116.17
91.73
67.48
45.64
27.79
14.41
4.97
-1.66
-6.71
-11.05
-15.09
-18.9
-22.36
-25.43
-28.06
-30.24
-31.76
-32.2
-30.98
-27.56
-21.77
-14.13
-5.82
1.49
6.3
7.81
6.26
2.67
-1.74
-6.24
-10.91
-16.48
-23.63
-32.46
-42.19
-51.38
-58.58
-62.81
-63.91
-62.37
-59.1
-55.02
-50.87
-47.22
-44.42
-42.56
-41.49
-40.84
-40.16
-39.03
-37.26
-34.89
-32.2
-29.59
-27.52
-26.35
-26.36
-27.61
-29.99
-33.17
-36.69
-40.11
-43.08
-45.47
-47.36
-48.98
-50.53
-52.02
-53.33
-54.23
-54.52
-54.2
-53.38
-52.18
-50.57
-48.33
-45.08
-40.51
-34.53
-27.24
-18.74
-8.93
2.59
16.28
32.37
50.51
69.71
88.53
105.49
119.54
130.18
137.43
141.63
143.2
142.51
139.92
135.76
130.31
123.8
116.44
108.47
100.21
92.15
84.66
77.95
71.88
66.01
59.91
53.41
46.72
40.42
35.07
31.03
28.27
26.54
25.49
24.77
23.96
22.52
19.9
15.77
10.22
3.74
-3.12
-10.05
-17.27
-25.38
-34.89
-45.71
-57.0
-67.27
-75.0
-79.3
-80.26
-78.97
-77.09
-76.2
-77.23
-80.22
-84.38
-88.55
-91.69
-93.25
-93.24
-91.88
-89.23
-85.04
-78.81
-70.29
-59.81
-48.53
-38.11
-30.22
-25.88
-25.16
-27.24
-30.76
-34.35
-36.9
-37.72
-36.43
-32.83
-26.87
-18.78
-9.05
1.57
12.38
22.91
33.04
42.87
52.42
61.33
68.89
74.31
76.99
76.96
74.76
71.26
67.24
63.09
58.81
54.06
48.41
41.42
32.79
22.49
10.9
-1.15
-12.43
-21.62
-27.68
-30.09
-29.05
-25.32
-19.98
-14.18
-8.87
-4.76
-2.19
-1.19
-1.52
-2.79
-4.53
-6.37
-8.03
-9.35
-10.23
-10.63
-10.61
-10.26
-9.69
-8.99
-8.11
-6.95
-5.33
-3.09
-0.15
3.42
7.43
11.49
15.13
17.75
18.83
18.04
15.3
10.9
5.41
-0.48
-6.12
-10.94
-14.66
-17.2
-18.84
-20.12
-21.77
-24.47
-28.52
-33.69
-39.14
-43.68
-46.14
-45.7
-42.17
-35.99
-28.08
-19.59
-11.62
-5.05
-0.38
2.39
3.63
4.07
4.47
5.48
7.39
10.21
13.58
17.02
20.08
22.34
23.62
23.88
23.27
22.06
20.58
19.16
18.08
17.49
17.38
17.52
17.65
17.46
16.82
15.79
14.59
13.5
12.75
12.39
12.23
12.0
11.35
10.1
8.3
6.14
3.93
1.97
0.45
-0.55
-1.06
-1.17
-1.04
-0.83
-0.75
-1.05
-1.9
-3.47
-5.75
-8.65
-11.95
-15.39
-18.7
-21.58
-23.75
-24.96
-25.05
-24.05
-22.16
-19.71
-17.07
-14.53
-12.21
-10.07
-8.03
-6.0
-3.95
-1.94
-0.1
1.4
2.45
2.94
2.91
2.44
1.72
0.97
0.37
0.05
0.09
0.54
1.42
2.75
4.5
6.62
9.01
11.54
14.06
16.43
18.55
20.38
21.9
23.09
23.83
23.95
23.21
21.52
19.01
16.05
13.05
10.24
7.54
4.57
0.94
-3.43
-8.14
-12.46
-15.66
-17.44
-18.09
-18.36
-19.07
-20.63
-22.98
-25.74
-28.67
-31.87
-35.71
-40.43
-45.94
-51.84
-57.65
-63.26
-68.82
-74.39
-79.43
-82.51
-81.73
-75.58
-63.73
-47.4
-28.9
-10.67
5.53
19.02
29.91
38.47
44.76
48.62
49.95
49.1
46.96
44.79
43.73
44.44
46.88
50.47
54.37
57.77
60.15
61.35
61.41
60.53
58.84
56.31
52.74
47.88
41.6
34.15
26.25
18.95
13.35
10.19
9.51
10.73
12.94
15.39
17.81
20.48
23.84
28.08
32.86
37.29
40.47
41.84
41.57
40.42
39.33
38.98
39.48
40.41
41.16
41.16
40.14
38.06
34.99
31.02
26.27
20.97
15.61
10.9
7.54
5.83
5.44
5.35
4.35
1.52
-3.31
-9.47
-15.89
-21.63
-26.26
-29.91
-32.91
-35.51
-37.63
-39.07
-39.76
-39.94
-40.07
-40.51
-41.32
-42.18
-42.63
-42.29
-41.13
-39.37
-37.4
-35.55
-33.98
-32.68
-31.52
-30.38
-29.28
-28.53
-28.64
-30.13
-33.24
-37.68
-42.51
-46.5
-48.54
-48.05
-45.16
-40.44
-34.59
-28.04
-20.95
-13.34
-5.5
1.94
8.13
12.37
14.45
14.64
13.5
11.46
8.58
4.49
-1.21
-8.65
-17.45
-26.75
-35.46
-42.63
-47.57
-49.97
-49.76
-47.11
-42.39
-36.24
-29.5
-23.1
-17.81
-14.02
-11.71
-10.5
-9.88
-9.42
-8.84
-8.06
-7.04
-5.72
-4.05
-1.99
0.35
2.7
4.7
6.04
6.68
6.88
7.13
8.02
9.93
12.98
16.95
21.46
26.11
30.54
34.5
37.78
40.22
41.77
42.52
42.75
42.82
43.03
43.48
44.04
44.48
44.66
44.61
44.49
44.38
44.09
43.13
40.98
37.44
32.94
28.54
25.45
24.53
25.78
28.27
30.57
31.27
29.56
25.46
19.59
12.89
6.17
-0.04
-5.54
-10.25
-14.2
-17.42
-19.98
-22.01
-23.67
-25.13
-26.49
-27.8
-29.02
-30.13
-31.13
-32.06
-32.98
-33.9
-34.83
-35.84
-37.02
-38.54
-40.53
-43.01
-45.82
-48.69
-51.33
-53.6
-55.63
-57.85
-60.88
-65.3
-71.42
-79.03
-87.41
-95.36
-101.5
-104.66
-104.21
-100.21
-93.34
-84.6
-74.91
-64.84
-54.53
-43.93
-32.95
-21.73
-10.61
0.03
9.98
19.31
28.37
37.59
47.36
57.81
68.95
80.69
92.96
105.75
119.07
132.74
146.25
158.68
168.74
175.06
176.44
172.26
162.66
148.58
131.47
113.04
94.81
77.84
62.62
49.09
36.94
25.91
16.05
7.73
1.46
-2.52
-4.58
-5.79
-7.6
-11.37
-17.78
-26.6
-36.77
-46.93
-56.07
-63.96
-71.23
-78.98
-88.31
-99.72
-112.94
-126.89
-139.95
-150.37
-156.59
-157.47
-152.48
-141.73
-125.91
-106.23
-84.23
-61.59
-39.87
-20.29
-3.54
10.18
21.16
29.96
37.18
43.37
48.89
54.04
59.05
64.1
69.13
73.82
77.47
79.22
78.32
74.41
67.79
59.3
50.08
41.19
33.37
26.94
21.92
18.21
15.78
14.8
15.48
17.88
21.61
25.83
29.47
31.67
32.1
31.16
29.8
29.11
29.66
31.1
32.24
31.62
28.07
21.37
12.4
3.24
-3.49
-5.99
-4.35
-0.53
2.41
1.66
-3.91
-13.53
-24.26
-32.31
-35.27
-33.39
-29.2
-26.0
-27.05
-34.9
-52.14
-80.01
-117.54
-161.49
-206.58
-246.08
-273.19
-283.54
-275.99
-253.18
-217.8
-170.2
-108.78
-32.43
57.16
154.22
248.88
330.57
381.8
387.19
344.96
271.43
191.4
124.23
80.66
56.44
47.03
49.33
62.46
86.11
116.95
147.89
170.7
179.55
172.3
151.28
120.45
85.12
50.7
21.21
-1.78
-18.72
-30.97
-40.26
-47.5
-53.66
-58.85
-62.31
-63.32
-62.04
-59.37
-56.48
-54.47
-53.6
-53.89
-54.82
-55.51
-55.25
-53.95
-51.99
-49.89
-48.15
-46.85
-46.02
-45.59
-45.37
-45.14
-44.77
-44.1
-43.01
-41.38
-39.16
-36.5
-33.73
-31.19
-29.09
-27.38
-25.73
-23.59
-20.43
-15.89
-9.99
-3.16
3.9
10.52
16.29
20.94
24.06
24.55
20.78
11.33
-3.82
-22.52
-41.07
-55.82
-65.23
-70.46
-74.19
-78.32
-82.1
-82.37
-75.81
-61.73
-42.96
-24.36
-9.52
1.63
12.69
28.03
49.42
74.45
97.93
115.36
125.75
132.0
138.3
146.62
154.82
157.7
150.35
131.5
104.81
77.01
54.49
40.18
32.73
28.12
22.32
13.51
2.43
-8.71
-17.99
-24.68
-29.22
-32.5
-35.26
-37.95
-40.9
-44.47
-48.97
-54.39
-60.29
-65.92
-70.53
-73.54
-74.55
-73.23
-69.34
-62.96
-54.69
-45.54
-36.72
-29.05
-22.7
-17.3
-12.33
-7.65
-3.67
-1.17
-0.78
-2.71
-6.57
-11.57
-16.72
-21.05
-23.77
-24.44
-23.01
-19.88
-15.8
-11.61
-7.99
-5.29
-3.49
-2.34
-1.55
-0.87
-0.2
0.4
0.79
0.78
0.2
-1.1
-3.13
-5.79
-8.91
-12.29
-15.71
-18.97
-21.92
-24.4
-26.34
-27.79
-28.92
-29.98
-31.18
-32.62
-34.14
-35.43
-36.11
-35.88
-34.54
-32.01
-28.25
-23.22
-16.89
-9.41
-1.11
7.5
15.83
23.44
30.1
35.78
40.55
44.48
47.57
49.81
51.21
51.78
51.53
50.42
48.36
45.34
41.48
37.14
32.79
28.94
25.94
23.94
22.81
22.22
21.78
21.19
20.3
19.21
18.14
17.24
16.6
16.16
15.8
15.56
15.6
16.13
17.16
18.45
19.65
20.66
21.8
23.65
26.61
30.36
33.83
35.62
34.75
31.15
25.72
19.65
13.72
7.9
1.54
-5.95
-14.53
-23.37
-31.2
-36.97
-40.33
-41.68
-41.81
-41.59
-41.6
-41.95
-42.47
-42.87
-42.88
-42.4
-41.38
-39.67
-36.98
-32.8
-26.7
-18.58
-8.96
1.05
9.97
16.5
19.91
20.3
18.48
15.57
12.56
10.14
8.62
8.2
8.99
11.07
14.36
18.52
23.05
27.38
31.15
34.31
37.05
39.53
41.71
43.23
43.58
42.38
39.57
35.5
30.7
25.65
20.54
15.29
9.59
3.2
-3.9
-11.43
-18.89
-25.68
-31.32
-35.44
-37.88
-38.61
-37.61
-34.93
-30.57
-24.68
-17.65
-10.09
-2.77
3.56
8.34
11.39
12.82
13.01
12.37
11.23
9.68
7.58
4.65
0.57
-4.82
-11.37
-18.57
-25.64
-31.83
-36.6
-39.88
-41.99
-43.44
-44.62
-45.67
-46.4
-46.41
-45.28
-42.81
-39.07
-34.47
-29.7
-25.56
-22.82
-22.14
-23.84
-27.82
-33.53
-39.95
-46.02
-50.8
-53.69
-54.22
-51.81
-45.64
-34.76
-18.69
1.97
25.29
48.27
67.87
82.06
90.55
94.74
96.69
97.7
97.31
93.2
82.39
63.05
35.9
4.44
-26.21
-51.35
-68.46
-77.81
-81.61
-82.37
-81.56
-79.11
-74.29
-66.81
-57.51
-47.9
-39.01
-30.46
-20.51
-7.23
10.11
30.23
50.43
68.03
81.85
92.69
102.41
112.48
122.77
131.61
136.82
137.01
132.26
123.72
112.67
99.62
84.35
66.38
45.82
23.61
1.36
-19.27
-37.09
-51.52
-62.36
-69.61
-73.27
-73.45
-70.5
-65.15
-58.35
-51.14
-44.41
-38.75
-34.36
-31.05
-28.21
-24.99
-20.41
-13.71
-4.7
6.09
17.5
28.2
37.13
43.85
48.61
52.11
55.12
58.16
61.35
64.46
67.04
68.68
69.16
68.48
66.88
64.61
61.85
58.55
54.5
49.49
43.52
36.92
30.26
24.12
18.89
14.64
11.09
7.73
4.01
-0.63
-6.66
-14.35
-23.75
-34.52
-45.98
-57.19
-67.18
-75.15
-80.71
-83.89
-85.12
-84.98
-84.13
-83.1
-82.27
-81.83
-81.86
-82.31
-83.11
-84.06
-84.82
-84.91
-83.85
-81.27
-77.2
-72.07
-66.67
-61.79
-57.84
-54.69
-51.71
-48.17
-43.73
-38.72
-34.09
-31.08
-30.73
-33.59
-39.6
-48.29
-58.92
-70.53
-81.92
-91.69
-98.49
-101.36
-100.25
-95.95
-89.91
-83.52
-77.52
-71.93
-66.23
-60.09
-53.73
-47.87
-43.21
-39.75
-36.41
-31.52
-23.7
-12.9
-0.72
10.16
17.24
19.43
17.57
13.83
10.52
8.75
7.93
6.07
0.81
-9.23
-23.65
-40.07
-54.7
-63.43
-62.87
-51.3
-29.06
1.51
36.54
71.51
102.15
125.35
139.63
145.18
143.42
136.34
125.78
113.05
98.81
83.21
66.2
47.71
27.88
7.15
-13.6
-33.01
-49.46
-61.5
-68.31
-70.07
-67.86
-63.33
-58.0
-52.98
-48.69
-45.09
-41.87
-38.72
-35.33
-31.45
-26.76
-20.95
-13.88
-5.71
2.97
11.19
17.84
21.9
22.67
19.85
13.6
4.62
-5.79
-15.85
-23.59
-27.5
-26.95
-22.55
-15.93
-9.07
-3.61
-0.41
0.46
-0.69
-3.57
-8.1
-14.21
-21.62
-29.62
-37.01
-42.31
-43.94
-40.53
-31.2
-15.83
4.62
28.19
52.28
74.29
92.29
105.47
114.09
119.07
121.37
121.6
119.92
116.21
110.44
102.94
94.36
85.56
77.3
69.96
63.44
57.28
50.94
44.04
36.53
28.58
20.43
12.14
3.76
-4.58
-12.39
-18.9
-23.24
-24.96
-24.36
-22.55
-21.15
-21.67
-24.89
-30.51
-37.28
-43.47
-47.65
-49.13
-48.2
-45.84
-43.23
-41.19
-39.96
-39.21
-38.39
-37.03
-34.94
-32.22
-29.11
-25.82
-22.49
-19.17
-15.77
-12.08
-7.69
-2.09
5.2
14.23
24.57
35.24
45.05
52.96
58.48
61.75
63.42
64.24
64.74
65.03
64.84
63.67
61.03
56.57
50.16
41.96
32.41
22.22
12.3
3.65
-2.84
-6.49
-6.98
-4.44
0.57
7.06
13.87
19.88
24.37
27.22
28.95
30.45
32.56
35.72
39.73
43.85
47.09
48.51
47.47
43.72
37.4
28.9
18.78
7.57
-4.33
-16.73
-29.6
-43.01
-56.9
-70.93
-84.35
-95.97
-104.36
-108.14
-106.41
-99.22
-87.61
-73.4
-58.7
-45.27
-34.22
-25.99
-20.55
-17.63
-16.76
-17.21
-18.0
-17.9
-15.86
-11.21
-3.9
5.67
16.84
28.78
40.38
50.24
56.87
59.36
58.04
54.81
52.55
53.9
59.93
69.46
79.59
87.11
90.06
88.45
83.91
78.4
73.04
67.66
61.28
53.17
43.58
33.77
25.3
19.17
15.23
12.39
9.35
5.35
0.54
-4.19
-7.82
-9.76
-10.18
-9.81
-9.52
-9.84
-10.74
-11.78
-12.39
-12.19
-11.15
-9.52
-7.62
-5.73
-4.05
-2.65
-1.62
-0.99
-0.77
-0.89
-1.24
-1.73
-2.35
-3.19
-4.37
-6.01
-8.06
-10.35
-12.61
-14.52
-15.89
-16.64
-16.85
-16.68
-16.33
-15.93
-15.57
-15.21
-14.81
-14.3
-13.67
-12.92
-12.15
-11.47
-11.0
-10.8
-10.85
-11.01
-11.1
-10.93
-10.39
-9.48
-8.33
-7.13
-6.17
-5.65
-5.67
-6.11
-6.69
-7.06
-6.99
-6.46
-5.7
-5.07
-4.86
-5.17
-5.87
-6.67
-7.26
-7.37
-6.86
-5.68
-3.85
-1.46
1.31
4.24
7.16
9.97
12.65
15.2
17.65
19.91
21.91
23.57
24.9
25.86
26.34
26.01
24.5
21.54
17.14
11.7
5.84
0.11
-5.21
-10.15
-14.93
-19.73
-24.49
-29.05
-33.18
-36.76
-39.73
-42.05
-43.64
-44.45
-44.57
-44.26
-43.78
-43.04
-41.35
-37.44
-29.99
-18.26
-2.58
15.59
34.17
51.12
65.04
75.33
81.96
85.06
84.74
81.02
74.03
64.21
52.32
39.27
25.87
12.75
0.31
-11.04
-20.86
-28.65
-33.9
-36.29
-35.82
-32.73
-27.44
-20.43
-12.14
-3.08
6.15
14.8
22.09
27.35
30.19
30.6
28.97
26.07
22.99
21.04
21.56
25.5
32.96
43.03
53.88
63.36
69.69
72.02
70.43
65.67
58.53
49.49
38.64
25.99
11.78
-3.29
-18.1
-31.27
-41.39
-47.28
-48.09
-43.57
-34.24
-21.52
-7.56
5.32
15.19
21.07
23.05
22.12
19.55
16.47
13.61
11.23
9.31
7.65
5.94
3.73
0.54
-3.96
-9.66
-15.93
-21.67
-25.71
-27.31
-26.56
-24.41
-22.28
-21.53
-22.84
-25.92
-29.7
-32.79
-33.97
-32.61
-28.68
-22.63
-15.09
-6.76
1.62
9.26
15.42
19.48
21.24
20.91
19.07
16.48
13.82
11.53
9.7
8.13
6.43
4.23
1.34
-2.15
-5.9
-9.43
-12.43
-14.81
-16.81
-18.78
-21.07
-23.8
-26.85
-29.85
-32.3
-33.66
-33.43
-31.32
-27.36
-22.13
-16.58
-11.85
-8.84
-7.88
-8.69
-10.58
-12.81
-14.86
-16.56
-17.92
-19.03
-19.88
-20.45
-20.82
-21.23
-21.98
-23.27
-25.06
-27.05
-28.8
-29.91
-30.11
-29.25
-27.28
-24.17
-20.02
-15.22
-10.39
-6.33
-3.62
-2.47
-2.56
-3.33
-4.26
-5.14
-6.18
-7.74
-10.02
-12.84
-15.69
-17.95
-19.23
-19.47
-18.86
-17.59
-15.56
-12.39
-7.57
-0.83
7.65
17.1
26.5
34.95
42.03
47.88
53.04
58.08
63.28
68.59
73.66
78.15
81.82
84.61
86.56
87.78
88.42
88.72
88.87
89.0
88.98
88.36
86.48
82.56
75.98
66.48
54.21
39.74
23.95
7.91
-7.4
-21.1
-32.62
-41.69
-48.32
-52.81
-55.62
-57.35
-58.65
-60.13
-62.23
-65.13
-68.74
-72.73
-76.62
-79.93
-82.28
-83.42
-83.41
-82.49
-81.04
-79.4
-77.7
-75.83
-73.51
-70.44
-66.51
-61.89
-56.96
-52.04
-47.19
-42.03
-35.77
-27.54
-16.76
-3.44
11.77
27.62
42.56
54.97
63.48
67.37
66.83
62.92
57.51
52.72
50.35
51.31
55.36
61.07
66.26
68.8
67.68
63.62
58.87
56.32
58.1
64.55
74.01
83.71
90.95
94.02
92.37
86.01
75.0
59.37
39.66
17.49
-4.38
-22.75
-35.23
-41.14
-41.77
-39.63
-37.19
-36.06
-36.58
-38.05
-39.49
-40.17
-39.98
-39.16
-38.07
-36.81
-35.15
-32.7
-29.2
-24.7
-19.5
-13.87
-7.86
-1.32
5.96
13.91
22.0
29.38
35.12
38.57
39.5
38.04
34.54
29.42
23.12
16.05
8.61
1.15
-5.82
-11.63
-15.33
-15.84
-12.4
-4.87
6.06
19.02
32.27
43.89
51.98
54.85
51.35
41.41
26.35
8.82
-7.88
-20.92
-29.01
-32.71
-33.95
-35.02
-37.39
-41.23
-45.48
-48.63
-49.52
-47.89
-44.55
-40.99
-38.8
-39.01
-41.57
-45.53
-49.47
-51.96
-52.09
-49.67
-45.08
-39.18
-33.02
-27.57
-23.66
-21.8
-22.07
-23.97
-26.28
-27.32
-25.55
-20.51
-13.35
-6.89
-4.42
-8.29
-18.53
-32.64
-46.44
-55.82
-58.37
-54.07
-44.9
-33.61
-22.65
-13.58
-7.07
-3.24
-1.91
-2.54
-4.04
-4.9
-3.46
1.61
10.82
23.48
38.03
52.36
64.34
72.16
74.53
70.88
61.42
47.28
30.3
12.7
-3.64
-17.68
-29.45
-39.77
-49.65
-59.49
-68.75
-76.02
-79.62
-78.34
-72.0
-61.54
-48.46
-34.1
-19.2
-3.97
11.46
26.72
41.01
53.76
65.1
76.16
88.49
102.94
118.8
133.69
144.42
148.36
144.46
133.24
116.05
94.04
67.71
37.21
3.11
-32.83
-67.56
-97.37
-118.94
-130.5
-132.35
-126.62
-116.28
-103.99
-91.33
-78.77
-66.34
-54.37
-43.74
-35.41
-29.69
-25.38
-20.43
-12.97
-2.59
9.0
18.52
22.72
20.06
11.42
-0.2
-11.21
-18.93
-22.69
-23.99
-25.61
-30.19
-38.96
-51.05
-63.81
-73.84
-78.32
-75.94
-67.23
-54.0
-38.47
-22.61
-7.79
5.16
15.62
23.12
27.42
28.52
27.12
24.43
21.86
20.69
21.74
24.96
29.6
34.44
38.28
40.42
40.89
40.3
39.48
38.97
38.67
37.94
35.98
32.29
27.14
21.49
16.69
13.91
13.62
15.46
18.4
21.28
23.22
23.94
24.07
25.24
30.13
41.94
63.23
94.39
132.57
171.77
204.51
224.39
228.47
218.28
198.85
176.5
156.29
140.48
128.35
117.28
104.39
87.95
67.94
45.94
24.38
5.87
-7.41
-14.1
-13.79
-7.17
3.87
16.38
26.82
31.89
29.52
19.43
3.2
-16.33
-36.02
-53.39
-67.15
-77.26
-84.71
-90.96
-97.54
-105.51
-115.27
-126.55
-138.74
-151.01
-162.4
-171.72
-177.42
-177.76
-171.26
-157.36
-136.97
-112.57
-87.74
-66.06
-50.02
-40.26
-35.52
-33.38
-31.37
-27.95
-22.97
-17.37
-12.44
-9.11
-7.54
-7.37
-8.15
-9.7
-12.1
-15.37
-19.1
-22.36
-24.12
-23.74
-21.5
-18.56
-16.58
-16.99
-20.43
-26.62
-34.61
-43.37
-52.12
-60.35
-67.57
-73.12
-76.23
-76.39
-73.67
-68.72
-62.45
-55.51
-47.98
-39.45
-29.55
-18.37
-6.55
4.97
15.47
24.74
33.12
41.12
49.08
56.99
64.5
71.15
76.35
79.51
80.01
77.4
71.59
63.06
52.89
42.47
33.09
25.43
19.51
14.76
10.42
5.94
1.26
-3.16
-6.6
-8.35
-8.02
-5.74
-2.16
1.6
4.16
4.21
0.77
-6.38
-16.55
-28.29
-39.67
-49.05
-55.51
-59.14
-60.81
-61.62
-62.27
-62.76
-62.49
-60.62
-56.55
-50.1
-41.45
-30.99
-19.15
-6.45
6.4
18.51
28.95
37.01
42.41
45.34
46.35
46.07
44.97
43.27
41.06
38.4
35.48
32.61
30.13
28.27
27.08
26.48
26.29
26.37
26.65
27.14
27.82
28.53
28.96
28.62
27.06
23.99
19.5
14.06
8.38
3.1
-1.4
-5.2
-8.74
-12.54
-16.98
-22.04
-27.41
-32.63
-37.34
-41.38
-44.79
-47.63
-49.91
-51.51
-52.22
-51.8
-50.12
-47.14
-42.98
-37.91
-32.27
-26.46
-20.82
-15.57
-10.79
-6.43
-2.39
1.44
5.16
8.94
13.04
17.72
23.19
29.51
36.58
44.27
52.48
61.27
70.75
81.0
92.0
103.58
115.5
127.47
139.22
150.42
160.64
169.36
176.13
180.6
182.64
182.34
179.91
175.67
170.01
163.33
156.09
148.68
141.33
134.05
126.55
118.33
108.82
97.67
84.93
71.01
56.47
41.64
26.33
9.82
-8.73
-29.72
-52.71
-76.42
-99.12
-119.3
-136.16
-149.67
-160.23
-168.3
-174.02
-177.31
-178.08
-176.56
-173.38
-169.43
-165.59
-162.39
-159.97
-158.09
-156.34
-154.36
-151.95
-149.07
-145.72
-141.89
-137.4
-131.93
-125.02
-116.2
-105.06
-91.46
-75.62
-58.12
-39.84
-21.78
-4.8
10.46
23.62
34.49
42.87
48.64
51.8
52.62
51.69
49.85
47.88
46.3
45.2
44.34
43.31
41.81
39.82
37.6
35.53
33.98
33.09
32.79
32.75
32.53
31.77
30.21
27.8
24.63
20.9
16.79
12.5
8.19
4.08
0.34
-2.94
-5.82
-8.53
-11.39
-14.6
-18.16
-21.84
-25.12
-27.37
-28.08
-27.01
-24.4
-20.96
-17.65
-15.41
-14.8
-15.83
-18.03
-20.66
-23.0
-24.56
-25.06
-24.41
-22.54
-19.56
-15.76
-11.69
-8.01
-5.22
-3.38
-2.03
-0.35
2.54
7.21
13.69
21.39
29.25
36.05
40.62
42.19
40.46
35.68
28.55
19.98
10.88
1.98
-6.1
-12.82
-17.65
-20.03
-19.64
-16.55
-11.42
-5.39
0.19
4.16
5.89
5.52
3.82
1.89
0.76
1.06
2.82
5.51
8.26
10.12
10.37
8.74
5.4
0.84
-4.37
-9.72
-14.87
-19.58
-23.59
-26.54
-28.05
-27.8
-25.73
-22.13
-17.6
-12.8
-8.23
-4.03
0.06
4.57
10.06
16.84
24.72
33.1
41.01
47.5
51.99
54.47
55.53
56.12
57.13
59.05
61.8
64.77
67.0
67.5
65.55
60.96
54.23
46.53
39.44
34.4
32.14
32.32
33.57
34.06
32.23
27.37
19.8
10.6
1.05
-7.81
-15.29
-20.95
-24.45
-25.55
-24.2
-20.76
-16.02
-11.05
-6.84
-3.95
-2.35
-1.48
-0.59
0.84
2.75
4.4
4.57
2.09
-3.55
-11.81
-21.16
-29.57
-35.15
-36.89
-34.88
-30.21
-24.49
-19.25
-15.47
-13.27
-11.96
-10.34
-7.24
-2.05
4.84
12.04
17.64
20.11
19.18
16.32
14.43
16.61
24.6
37.47
51.37
60.5
59.16
43.8
14.4
-25.17
-67.84
-104.82
-127.57
-129.99
-110.46
-72.82
-25.63
20.3
55.39
74.36
77.38
68.86
54.8
40.15
27.49
17.41
9.86
5.14
3.92
6.46
11.79
17.54
20.71
19.0
11.89
0.88
-11.23
-21.67
-28.89
-33.19
-36.31
-40.41
-46.83
-55.48
-64.97
-73.3
-78.87
-81.04
-80.18
-77.21
-73.12
-68.58
-63.84
-58.84
-53.35
-47.16
-40.29
-33.02
-25.93
-19.77
-15.19
-12.51
-11.5
-11.4
-11.11
-9.54
-5.91
-0.05
7.46
15.43
22.31
26.68
27.72
25.5
21.03
15.82
11.36
8.52
7.23
6.77
6.23
5.2
4.05
3.71
5.05
8.21
12.29
15.7
16.92
15.24
10.96
5.11
-1.17
-7.16
-12.61
-17.43
-21.33
-23.73
-23.97
-21.67
-16.92
-10.21
-2.13
6.86
16.43
26.25
35.75
44.19
50.8
55.09
56.95
56.69
54.88
52.22
49.4
47.02
45.41
44.51
43.83
42.64
40.31
36.6
31.75
26.31
20.89
15.77
10.85
5.73
0.04
-6.33
-13.12
-19.81
-25.8
-30.72
-34.54
-37.55
-40.13
-42.52
-44.71
-46.43
-47.35
-47.22
-45.92
-43.35
-39.38
-33.88
-26.95
-19.12
-11.45
-5.24
-1.49
-0.54
-1.86
-4.34
-6.82
-8.57
-9.4
-9.57
-9.37
-8.88
-7.88
-6.01
-3.13
0.63
4.93
9.44
14.09
19.02
24.46
30.28
35.86
40.15
42.1
41.06
37.14
31.12
24.07
16.85
9.78
2.66
-4.99
-13.44
-22.45
-31.29
-38.91
-44.35
-47.12
-47.29
-45.39
-42.17
-38.24
-33.92
-29.15
-23.64
-17.11
-9.58
-1.43
6.64
13.91
19.86
24.37
27.58
29.69
30.75
30.61
29.12
26.38
22.84
19.15
15.84
12.99
10.2
6.89
2.78
-1.74
-5.51
-6.85
-3.92
4.61
19.06
38.44
60.43
81.88
99.53
110.99
115.44
113.77
108.13
101.04
94.41
89.06
84.74
80.55
75.53
68.96
60.52
50.28
38.66
26.46
14.74
4.49
-3.72
-9.97
-14.99
-19.74
-24.91
-30.57
-36.25
-41.22
-44.95
-47.27
-48.35
-48.45
-47.75
-46.38
-44.53
-42.44
-40.4
-38.52
-36.63
-34.19
-30.55
-25.22
-18.16
-9.86
-1.35
6.15
11.51
14.11
13.98
11.8
8.65
5.64
3.51
2.38
1.88
1.39
0.4
-1.29
-3.51
-5.95
-8.4
-10.91
-13.83
-17.5
-22.05
-27.25
-32.54
-37.31
-41.13
-43.85
-45.6
-46.59
-46.96
-46.72
-45.83
-44.27
-42.18
-39.77
-37.27
-34.78
-32.23
-29.49
-26.45
-23.17
-19.78
-16.49
-13.42
-10.6
-7.94
-5.34
-2.73
-0.09
2.56
5.15
7.49
9.28
10.16
9.88
8.43
6.22
3.89
2.13
1.34
1.45
2.0
2.32
1.88
0.53
-1.52
-3.81
-5.91
-7.6
-8.83
-9.66
-10.05
-9.81
-8.7
-6.62
-3.75
-0.59
2.29
4.43
5.67
6.24
6.46
6.69
7.0
7.36
7.58
7.61
7.46
7.27
7.18
7.32
7.73
8.32
8.92
9.28
9.21
8.63
7.71
6.84
6.46
6.9
8.17
9.91
11.58
12.68
13.03
12.81
12.45
12.32
12.51
12.82
12.9
12.44
11.25
9.35
6.79
3.63
-0.05
-3.99
-7.74
-10.71
-12.44
-12.76
-11.94
-10.55
-9.2
-8.28
-7.87
-7.78
-7.78
-7.75
-7.79
-8.14
-9.04
-10.55
-12.54
-14.76
-16.96
-18.99
-20.89
-22.79
-24.78
-26.8
-28.69
-30.23
-31.35
-32.19
-33.0
-34.02
-35.23
-36.31
-36.78
-36.27
-34.73
-32.48
-29.91
-27.24
-24.19
-20.14
-14.28
-6.13
4.37
16.73
30.12
43.52
55.9
66.22
73.55
77.22
77.07
73.59
67.91
61.51
55.82
51.82
49.9
49.74
50.57
51.42
51.43
50.06
47.16
42.92
37.72
31.89
25.68
19.21
12.55
5.84
-0.66
-6.63
-11.71
-15.65
-18.31
-19.75
-20.1
-19.63
-18.61
-17.28
-15.87
-14.47
-13.09
-11.59
-9.76
-7.34
-4.21
-0.46
3.6
7.43
10.53
12.56
13.5
13.64
13.51
13.7
14.68
16.74
19.89
23.77
27.74
30.99
32.89
33.26
32.57
31.88
32.34
34.7
38.87
43.96
48.68
52.01
53.73
54.5
55.52
57.91
62.15
67.83
73.66
77.77
78.11
72.97
61.45
43.84
21.73
-2.35
-25.57
-45.61
-61.23
-72.36
-79.76
-84.53
-87.68
-89.92
-91.69
-93.19
-94.39
-94.94
-94.15
-91.21
-85.5
-76.93
-66.12
-54.33
-43.01
-33.36
-26.0
-20.82
-17.25
-14.49
-11.91
-9.16
-6.2
-3.18
-0.24
2.46
4.82
6.71
7.99
8.61
8.63
8.25
7.72
7.24
6.8
6.14
4.89
2.81
-0.07
-3.34
-6.3
-8.23
-8.78
-8.07
-6.71
-5.5
-5.03
-5.46
-6.5
-7.58
-8.18
-8.05
-7.2
-5.85
-4.3
-2.87
-1.88
-1.69
-2.54
-4.43
-7.05
-9.75
-11.83
-12.69
-12.13
-10.31
-7.74
-5.07
-2.9
-1.63
-1.38
-1.93
-2.86
-3.7
-4.04
-3.73
-2.85
-1.63
-0.35
0.79
1.63
2.1
2.17
1.88
1.33
0.65
-0.06
-0.77
-1.54
-2.46
-3.55
-4.84
-6.34
-8.11
-10.21
-12.73
-15.64
-18.73
-21.74
-24.41
-26.62
-28.44
-30.05
-31.64
-33.28
-34.95
-36.61
-38.31
-40.29
-42.89
-46.47
-51.2
-57.06
-63.87
-71.44
-79.66
-88.51
-97.92
-107.61
-117.03
-125.6
-133.04
-139.73
-146.73
-155.21
-165.41
-175.75
-182.64
-181.33
-167.66
-139.83
-99.53
-51.5
-1.83
44.03
82.95
114.49
140.24
162.47
183.24
204.11
226.09
249.51
273.35
294.69
308.9
311.06
298.28
271.62
236.3
199.73
168.41
145.12
128.35
113.96
98.17
79.95
61.44
46.52
38.32
37.5
41.93
47.92
51.96
51.94
47.64
40.18
31.15
21.85
13.05
5.12
-1.76
-7.3
-11.13
-12.94
-12.7
-10.72
-7.64
-4.23
-1.26
0.68
1.27
0.51
-1.32
-3.77
-6.39
-8.92
-11.36
-13.85
-16.57
-19.66
-23.1
-26.79
-30.56
-34.21
-37.54
-40.45
-43.06
-45.74
-49.03
-53.21
-57.99
-62.35
-64.82
-64.15
-59.99
-53.25
-45.75
-39.54
-35.96
-35.12
-35.93
-36.63
-35.62
-32.02
-25.98
-18.63
-11.73
-7.24
-6.84
-11.48
-21.09
-34.39
-49.27
-63.16
-73.67
-79.32
-79.96
-76.79
-71.8
-66.86
-62.92
-59.48
-54.85
-46.88
-33.89
-15.45
7.27
31.69
54.32
71.56
80.53
79.8
69.82
52.93
32.73
13.18
-2.46
-12.26
-15.84
-14.03
-8.41
-0.96
6.25
11.55
13.89
13.33
11.2
9.64
10.79
15.74
23.83
32.84
39.82
42.36
39.52
32.2
22.47
12.62
4.31
-1.85
-6.0
-8.56
-9.78
-9.73
-8.45
-6.26
-3.79
-1.81
-0.89
-1.21
-2.51
-4.21
-5.71
-6.54
-6.59
-6.03
-5.22
-4.53
-4.18
-4.15
-4.24
-4.22
-3.93
-3.42
-2.8
-2.19
-1.65
-1.14
-0.6
-0.07
0.33
0.41
0.0
-0.95
-2.41
-4.32
-6.63
-9.24
-11.98
-14.52
-16.37
-17.04
-16.16
-13.72
-10.03
-5.66
-1.29
2.54
5.52
7.6
8.9
9.57
9.77
9.64
9.26
8.76
8.19
7.59
6.89
5.95
4.64
2.86
0.68
-1.77
-4.29
-6.72
-8.99
-11.06
-12.89
-14.41
-15.54
-16.26
-16.66
-16.88
-17.09
-17.39
-17.83
-18.43
-19.22
-20.24
-21.58
-23.23
-25.06
-26.85
-28.39
-29.55
-30.33
-30.83
-31.09
-31.08
-30.56
-29.3
-27.1
-23.97
-20.24
-16.37
-12.88
-10.16
-8.35
-7.39
-7.06
-7.11
-7.37
-7.8
-8.5
-9.64
-11.4
-13.92
-17.21
-21.23
-25.86
-30.98
-36.44
-42.08
-47.71
-53.09
-58.0
-62.3
-65.99
-69.09
-71.43
-72.44
-71.0
-65.62
-54.89
-37.99
-15.08
12.71
43.53
75.35
106.47
135.66
162.15
185.43
205.04
220.58
231.86
238.98
242.44
242.9
241.07
237.39
232.02
224.85
215.66
204.35
190.89
175.4
157.98
138.71
117.59
94.65
70.01
43.96
17.02
-10.1
-36.49
-61.17
-83.14
-101.56
-115.87
-125.84
-131.72
-134.07
-133.74
-131.64
-128.54
-124.89
-120.74
-115.79
-109.54
-101.64
-92.0
-80.95
-69.09
-57.03
-45.24
-33.95
-23.3
-13.44
-4.71
2.46
7.75
11.12
12.94
13.86
14.6
15.67
17.27
19.24
21.27
23.01
24.14
24.41
23.58
21.47
18.05
13.53
8.44
3.48
-0.74
-3.97
-6.4
-8.59
-11.18
-14.55
-18.73
-23.36
-27.91
-31.91
-34.99
-36.9
-37.46
-36.55
-34.2
-30.71
-26.57
-22.45
-18.92
-16.27
-14.37
-12.8
-11.08
-8.99
-6.73
-4.94
-4.42
-5.73
-8.93
-13.48
-18.47
-22.99
-26.46
-28.82
-30.33
-31.32
-31.96
-32.2
-31.86
-30.78
-28.96
-26.58
-23.94
-21.45
-19.68
-19.17
-20.29
-22.93
-26.35
-29.32
-30.5
-28.92
-24.4
-17.5
-9.26
-0.79
7.06
13.82
19.28
23.44
26.36
28.23
29.31
29.89
30.14
30.04
29.31
27.6
24.61
20.3
14.85
8.68
2.37
-3.47
-8.28
-11.65
-13.39
-13.54
-12.38
-10.3
-7.69
-4.83
-1.95
0.76
3.12
4.94
6.06
6.44
6.11
5.26
4.09
2.86
1.87
1.4
1.73
2.93
4.72
6.46
7.29
6.48
3.79
-0.35
-4.95
-8.89
-11.36
-12.2
-11.89
-11.36
-11.51
-12.98
-15.88
-19.98
-24.7
-29.42
-33.57
-36.78
-39.08
-40.8
-42.54
-44.86
-48.03
-51.77
-55.35
-57.8
-58.3
-56.51
-52.59
-47.11
-40.71
-33.95
-27.11
-20.28
-13.47
-6.75
-0.24
5.9
11.55
16.64
21.21
25.3
28.95
32.12
34.77
36.85
38.4
39.53
40.42
41.23
42.12
43.1
44.07
44.86
45.2
44.85
43.66
41.57
38.71
35.29
31.56
27.79
24.2
20.95
18.18
16.01
14.5
13.6
13.17
12.96
12.71
12.2
11.37
10.28
9.07
7.83
6.68
5.65
4.78
4.11
3.71
3.63
3.83
4.16
4.43
4.49
4.27
3.81
3.25
2.74
2.43
2.39
2.62
3.07
3.67
4.26
4.66
4.67
4.06
2.72
0.63
-2.04
-5.01
-7.97
-10.68
-13.03
-15.02
-16.7
-18.09
-19.08
-19.48
-19.08
-17.77
-15.55
-12.54
-8.88
-4.62
0.28
5.9
12.29
19.31
26.65
33.77
40.1
45.15
48.66
50.61
51.22
50.74
49.39
47.34
44.71
41.6
38.09
34.27
30.11
25.55
20.58
15.26
9.84
4.67
0.12
-3.61
-6.47
-8.59
-10.15
-11.29
-12.08
-12.6
-12.89
-13.01
-12.98
-12.78
-12.35
-11.64
-10.67
-9.56
-8.49
-7.66
-7.19
-7.1
-7.29
-7.64
-8.02
-8.37
-8.66
-8.83
-8.77
-8.29
-7.25
-5.55
-3.22
-0.38
2.78
6.07
9.36
12.64
16.03
19.77
24.12
29.24
35.08
41.36
47.57
53.1
57.44
60.19
61.18
60.4
57.97
54.1
49.0
42.87
35.89
28.3
20.5
12.98
6.18
0.34
-4.73
-9.55
-14.78
-20.87
-27.81
-35.04
-41.7
-46.9
-50.03
-50.92
-49.75
-46.97
-43.07
-38.53
-33.77
-29.19
-25.13
-21.98
-20.2
-20.13
-21.98
-25.59
-30.46
-35.8
-40.79
-44.83
-47.65
-49.35
-50.15
-50.21
-49.49
-47.74
-44.73
-40.41
-35.0
-28.89
-22.56
-16.34
-10.45
-4.99
-0.08
4.18
7.68
10.34
12.2
13.37
13.96
14.16
14.11
14.02
14.15
14.79
16.17
18.34
21.07
23.78
25.69
26.06
24.41
20.7
15.34
8.98
2.35
-3.98
-9.65
-14.54
-18.65
-22.01
-24.66
-26.61
-27.87
-28.49
-28.49
-27.91
-26.79
-25.16
-23.17
-21.0
-18.89
-17.05
-15.66
-14.8
-14.51
-14.8
-15.66
-17.08
-19.02
-21.3
-23.66
-25.67
-26.88
-26.91
-25.53
-22.72
-18.64
-13.61
-7.94
-1.93
4.19
10.2
15.81
20.58
24.05
25.87
25.99
24.75
22.73
20.58
18.82
17.68
17.11
16.92
16.85
16.68
16.27
15.55
14.56
13.45
12.41
11.67
11.4
11.55
11.92
12.18
11.98
11.11
9.53
7.44
5.17
3.04
1.23
-0.26
-1.62
-3.17
-5.15
-7.66
-10.55
-13.46
-15.96
-17.73
-18.61
-18.62
-17.93
-16.71
-15.12
-13.24
-11.12
-8.83
-6.42
-4.0
-1.65
0.55
2.56
4.35
5.93
7.33
8.57
9.73
10.88
12.1
13.4
14.75
16.01
17.07
17.84
18.36
18.77
19.24
19.85
20.46
20.81
20.53
19.35
17.15
13.99
10.03
5.51
0.63
-4.4
-9.42
-14.29
-18.91
-23.24
-27.25
-30.94
-34.37
-37.54
-40.46
-42.99
-44.91
-45.92
-45.71
-44.13
-41.17
-37.07
-32.18
-26.84
-21.34
-15.89
-10.59
-5.51
-0.74
3.62
7.43
10.52
12.76
14.1
14.61
14.52
14.15
13.8
13.69
13.9
14.39
15.09
15.89
16.75
17.65
18.6
19.64
20.75
21.91
23.07
24.17
25.16
25.99
26.63
27.07
27.27
27.21
26.85
26.17
25.21
24.03
22.77
21.56
20.51
19.7
19.1
18.6
18.02
17.22
16.12
14.85
13.71
13.05
13.15
14.09
15.7
17.72
19.94
22.26
24.62
26.78
28.26
28.4
26.7
23.19
18.38
13.12
8.04
3.32
-1.29
-6.07
-10.97
-15.39
-18.51
-19.72
-19.06
-17.18
-15.05
-13.51
-12.95
-13.29
-14.22
-15.4
-16.61
-17.82
-19.03
-20.3
-21.61
-22.93
-24.11
-25.03
-25.53
-25.56
-25.12
-24.32
-23.27
-22.08
-20.84
-19.64
-18.54
-17.65
-17.06
-16.81
-16.9
-17.24
-17.7
-18.1
-18.27
-18.12
-17.65
-16.98
-16.32
-15.86
-15.76
-15.99
-16.41
-16.73
-16.62
-15.79
-14.11
-11.65
-8.73
-5.75
-3.08
-0.92
0.76
2.14
3.41
4.66
5.83
6.83
7.59
8.08
8.24
7.9
6.78
4.58
1.15
-3.36
-8.52
-13.8
-18.73
-23.09
-26.89
-30.26
-33.37
-36.27
-38.95
-41.28
-43.08
-44.1
-44.06
-42.7
-39.87
-35.62
-30.13
-23.74
-16.77
-9.54
-2.22
5.03
12.18
19.26
26.31
33.34
40.2
46.59
52.12
56.41
59.25
60.65
60.76
59.81
57.94
55.27
51.9
48.04
44.01
40.17
36.74
33.74
31.04
28.41
25.71
22.93
20.21
17.72
15.58
13.81
12.33
10.94
9.42
7.49
4.8
0.99
-4.21
-10.9
-18.88
-27.68
-36.69
-45.34
-53.31
-60.54
-67.14
-73.15
-78.39
-82.36
-84.42
-84.04
-81.08
-75.98
-69.64
-63.2
-57.69
-53.75
-51.54
-50.86
-51.38
-52.84
-55.14
-58.27
-62.16
-66.55
-71.02
-75.0
-77.77
-78.45
-75.9
-68.98
-56.85
-39.49
-17.95
5.72
28.98
49.65
66.39
78.88
87.43
92.42
93.84
91.3
84.45
73.46
59.3
43.61
28.23
14.81
4.58
-1.7
-3.61
-1.18
5.04
13.81
23.33
31.75
37.71
40.7
41.14
39.92
37.8
35.1
31.6
26.89
20.67
13.0
4.31
-4.54
-12.36
-17.65
-18.92
-15.03
-5.71
8.19
24.92
42.38
58.89
73.67
86.79
98.86
110.39
121.47
131.72
140.52
147.29
151.68
153.5
152.67
149.21
143.23
135.15
125.65
115.56
105.65
96.3
87.55
79.14
70.83
62.62
54.8
47.82
42.08
37.7
34.46
31.84
29.25
26.27
22.85
19.34
16.41
14.79
14.91
16.6
18.99
20.64
19.94
15.65
7.27
-4.69
-18.78
-33.04
-45.46
-54.53
-59.58
-60.89
-59.35
-56.05
-51.81
-47.07
-41.94
-36.54
-31.21
-26.44
-22.67
-19.96
-17.93
-15.97
-13.68
-11.27
-9.67
-10.23
-14.23
-22.38
-34.49
-49.5
-65.79
-81.49
-95.0
-105.24
-111.9
-115.33
-116.32
-115.73
-114.11
-111.58
-107.81
-102.36
-95.03
-86.05
-76.07
-65.84
-56.02
-46.97
-38.79
-31.43
-24.89
-19.27
-14.7
-11.27
-8.91
-7.37
-6.26
-5.09
-3.47
-1.19
1.63
4.48
6.62
7.29
5.98
2.55
-2.78
-9.57
-17.37
-25.77
-34.35
-42.58
-49.78
-55.26
-58.49
-59.3
-57.86
-54.62
-50.03
-44.44
-38.11
-31.21
-23.93
-16.47
-8.97
-1.49
5.88
13.01
19.59
25.19
29.42
32.05
33.19
33.11
32.11
30.38
27.89
24.55
20.34
15.4
10.08
4.78
-0.14
-4.48
-8.23
-11.46
-14.21
-16.43
-17.93
-18.47
-17.86
-16.01
-13.05
-9.31
-5.2
-1.11
2.73
6.25
9.6
12.93
16.29
19.54
22.4
24.56
25.8
26.05
25.31
23.51
20.48
15.98
9.91
2.5
-5.59
-13.43
-20.14
-25.2
-28.59
-30.69
-31.97
-32.76
-33.04
-32.56
-31.07
-28.49
-25.03
-21.15
-17.24
-13.58
-10.19
-7.0
-3.91
-0.95
1.78
4.2
6.27
8.05
9.61
10.95
12.01
12.69
12.9
12.67
12.06
11.14
10.02
8.8
7.62
6.72
6.26
6.35
6.93
7.79
8.68
9.43
10.04
10.59
11.29
12.25
13.51
14.99
16.54
18.0
19.27
20.31
21.17
21.91
22.6
23.24
23.75
24.02
23.93
23.38
22.41
21.09
19.53
17.8
15.95
13.96
11.84
9.66
7.52
5.58
3.88
2.38
0.85
-0.92
-3.02
-5.33
-7.57
-9.42
-10.67
-11.39
-11.83
-12.36
-13.24
-14.55
-16.19
-17.97
-19.72
-21.35
-22.81
-24.06
-25.01
-25.52
-25.48
-24.85
-23.73
-22.27
-20.68
-19.14
-17.73
-16.45
-15.21
-13.9
-12.38
-10.55
-8.39
-5.96
-3.4
-0.91
1.4
3.5
5.49
7.54
9.81
12.32
15.01
17.7
20.22
22.35
23.93
24.86
25.1
24.76
24.12
23.58
23.55
24.35
26.05
28.52
31.41
34.35
37.04
39.28
40.97
41.99
42.16
41.23
38.93
35.15
29.96
23.72
16.97
10.35
4.4
-0.59
-4.6
-7.92
-10.91
-13.87
-16.85
-19.58
-21.64
-22.61
-22.26
-20.64
-18.05
-14.83
-11.26
-7.53
-3.71
0.04
3.51
6.43
8.63
10.06
10.88
11.34
11.72
12.13
12.54
12.85
12.9
12.64
12.1
11.39
10.58
9.68
8.63
7.3
5.6
3.53
1.3
-0.77
-2.29
-3.02
-2.87
-2.02
-0.73
0.71
2.14
3.55
4.99
6.56
8.29
10.16
12.16
14.33
16.73
19.38
22.14
24.8
27.02
28.49
29.06
28.8
27.94
26.87
25.98
25.59
25.89
26.82
28.07
29.03
28.91
26.85
22.27
14.99
5.42
-5.58
-16.93
-27.48
-36.32
-42.72
-46.28
-46.9
-44.75
-40.28
-34.02
-26.52
-18.19
-9.36
-0.44
7.98
15.12
20.04
21.91
20.19
14.85
6.34
-4.45
-16.31
-28.01
-38.5
-47.21
-54.1
-59.6
-64.26
-68.46
-72.13
-74.8
-75.85
-74.85
-71.79
-67.12
-61.59
-56.0
-50.97
-46.82
-43.61
-41.21
-39.43
-38.08
-36.89
-35.58
-33.77
-31.13
-27.52
-23.05
-18.19
-13.47
-9.41
-6.2
-3.72
-1.61
0.53
2.94
5.71
8.75
11.91
15.07
18.19
21.21
24.09
26.67
28.77
30.19
30.74
30.32
28.98
26.86
24.24
21.47
18.95
16.99
15.83
15.52
15.96
16.91
18.12
19.4
20.66
21.93
23.25
24.62
25.97
27.18
28.09
28.54
28.37
27.4
25.53
22.67
18.92
14.56
10.01
5.66
1.84
-1.29
-3.73
-5.63
-7.16
-8.48
-9.7
-10.85
-11.88
-12.68
-13.11
-13.07
-12.48
-11.36
-9.83
-8.02
-6.09
-4.23
-2.59
-1.32
-0.51
-0.15
-0.09
-0.08
0.17
0.84
1.9
3.14
4.22
4.9
5.16
5.23
5.52
6.41
8.07
10.4
13.16
16.12
19.17
22.35
25.73
29.31
32.93
36.37
39.4
41.83
43.54
44.35
44.04
42.44
39.54
35.64
31.32
27.33
24.3
22.5
21.77
21.62
21.47
20.84
19.49
17.41
14.7
11.44
7.7
3.59
-0.73
-5.07
-9.36
-13.81
-19.02
-25.76
-34.68
-45.93
-58.97
-72.66
-85.57
-96.44
-104.46
-109.32
-111.07
-109.93
-106.2
-100.23
-92.44
-83.32
-73.32
-62.73
-51.77
-40.57
-29.36
-18.51
-8.52
0.2
7.46
13.43
18.55
23.4
28.45
33.93
39.79
45.72
51.3
56.07
59.62
61.6
61.72
59.73
55.52
49.14
40.89
31.39
21.58
12.65
5.87
2.25
2.25
5.63
11.39
18.04
24.01
28.06
29.63
28.89
26.61
23.8
21.4
20.04
20.03
21.41
24.06
27.83
32.49
37.69
42.88
47.44
50.72
52.27
52.0
50.09
46.95
42.93
38.23
32.87
26.77
19.93
12.51
4.89
-2.35
-8.59
-13.27
-16.02
-16.84
-16.02
-14.16
-11.97
-10.03
-8.7
-8.12
-8.29
-9.31
-11.44
-15.08
-20.57
-27.92
-36.68
-45.93
-54.53
-61.45
-66.09
-68.39
-68.87
-68.28
-67.39
-66.66
-66.19
-65.71
-64.87
-63.44
-61.46
-59.16
-56.8
-54.55
-52.34
-50.04
-47.57
-45.04
-42.79
-41.24
-40.73
-41.43
-43.27
-46.05
-49.46
-53.04
-56.06
-57.42
-55.74
-49.74
-38.81
-23.44
-5.36
12.92
28.84
40.56
47.44
49.92
49.16
46.57
43.55
41.42
41.49
44.91
52.38
63.74
77.77
92.37
105.17
114.16
118.27
117.46
112.56
104.72
95.06
84.33
72.8
60.35
46.7
31.55
14.84
-3.27
-22.39
-41.99
-61.56
-80.52
-98.25
-114.05
-127.19
-137.14
-143.82
-147.61
-149.3
-149.71
-149.36
-148.24
-145.87
-141.63
-135.01
-125.7
-113.53
-98.36
-80.0
-58.43
-34.04
-7.74
19.08
44.86
68.18
88.02
103.86
115.7
123.87
129.0
131.87
133.17
133.45
133.01
131.89
130.02
127.4
124.16
120.49
116.63
112.67
108.62
104.52
100.37
96.22
92.06
87.77
83.22
78.31
73.06
67.63
62.28
57.17
52.35
47.66
42.79
37.29
30.73
22.72
13.06
1.87
-10.32
-22.62
-33.99
-43.51
-50.74
-55.83
-59.42
-62.27
-64.98
-67.67
-70.07
-71.72
-72.24
-71.5
-69.62
-66.76
-62.99
-58.29
-52.75
-46.67
-40.62
-35.23
-30.95
-27.85
-25.56
-23.56
-21.42
-19.07
-16.85
-15.29
-14.87
-15.77
-17.88
-20.83
-24.17
-27.42
-30.15
-31.9
-32.27
-30.99
-28.08
-23.87
-18.96
-14.06
-9.77
-6.37
-3.77
-1.55
0.79
3.69
7.31
11.48
15.78
19.71
22.96
25.57
27.9
30.44
33.49
36.96
40.4
43.19
44.83
45.17
44.47
43.18
41.73
40.42
39.32
38.38
37.52
36.73
36.12
35.85
36.05
36.76
37.89
39.26
40.64
41.81
42.58
42.78
42.23
40.71
38.02
34.11
29.17
23.69
18.37
13.91
10.79
9.12
8.68
9.03
9.75
10.58
11.46
12.52
13.91
15.7
17.82
20.07
22.17
23.83
24.81
24.96
24.25
22.77
20.73
18.43
16.14
13.95
11.72
9.12
5.85
1.83
-2.72
-7.37
-11.76
-15.85
-19.93
-24.43
-29.54
-34.95
-39.88
-43.38
-44.79
-44.07
-41.78
-38.86
-36.29
-34.79
-34.69
-36.03
-38.58
-41.76
-44.64
-46.17
-45.71
-43.61
-41.55
-42.21
-48.33
-61.54
-81.41
-105.34
-129.17
-148.51
-159.8
-161.19
-152.64
-135.72
-113.02
-87.57
-62.31
-39.56
-20.66
-5.94
5.2
13.87
21.24
28.33
35.78
43.77
52.0
59.78
66.15
70.29
71.86
71.28
69.7
68.51
68.74
70.49
72.78
73.74
71.36
64.16
51.82
35.43
17.33
0.62
-11.67
-17.42
-16.1
-9.01
1.13
11.0
17.69
19.54
16.46
9.66
0.96
-7.87
-15.72
-22.05
-26.71
-29.44
-29.77
-27.05
-20.91
-11.63
-0.24
11.77
22.92
32.35
39.94
46.12
51.41
56.02
59.69
61.94
62.34
60.81
57.66
53.51
49.06
44.86
41.21
38.04
35.02
31.69
27.69
22.93
17.67
12.37
7.46
3.07
-0.99
-5.16
-9.79
-14.92
-20.22
-25.09
-29.0
-31.6
-32.93
-33.23
-32.88
-32.22
-31.47
-30.78
-30.24
-29.9
-29.7
-29.53
-29.29
-28.92
-28.48
-28.13
-27.98
-28.04
-28.19
-28.17
-27.8
-27.02
-25.98
-24.94
-24.18
-23.84
-23.91
-24.25
-24.7
-25.17
-25.66
-26.25
-26.96
-27.73
-28.34
-28.52
-28.07
-26.93
-25.2
-23.09
-20.79
-18.35
-15.72
-12.83
-9.71
-6.54
-3.59
-1.11
0.78
2.1
2.98
3.56
3.97
4.32
4.7
5.2
5.87
6.69
7.48
7.99
7.94
7.14
5.55
3.33
0.81
-1.6
-3.55
-4.97
-6.1
-7.5
-9.8
-13.47
-18.62
-24.83
-31.38
-37.43
-42.41
-46.13
-48.79
-50.82
-52.6
-54.36
-56.11
-57.74
-59.16
-60.29
-61.13
-61.57
-61.38
-60.15
-57.41
-52.77
-46.04
-37.35
-27.12
-16.06
-5.07
4.94
13.24
19.49
23.85
26.85
29.18
31.41
33.85
36.52
39.31
42.1
44.89
47.78
50.83
53.99
57.05
59.7
61.65
62.67
62.67
61.65
59.75
57.23
54.58
52.31
50.87
50.36
50.49
50.6
49.89
47.79
44.14
39.29
33.88
28.56
23.8
19.83
16.8
14.8
13.89
13.96
14.68
15.37
15.34
14.24
12.29
10.37
9.61
10.91
14.39
19.26
23.95
26.79
26.59
23.22
17.69
11.77
7.38
5.92
7.78
12.26
17.98
23.33
27.01
28.31
27.1
23.57
18.05
10.81
2.13
-7.58
-17.83
-28.0
-37.6
-46.27
-53.83
-60.1
-64.79
-67.42
-67.56
-65.01
-60.08
-53.56
-46.51
-39.94
-34.41
-29.96
-26.18
-22.58
-18.9
-15.26
-12.2
-10.44
-10.57
-12.81
-16.89
-22.12
-27.63
-32.63
-36.62
-39.47
-41.37
-42.61
-43.39
-43.61
-42.85
-40.36
-35.25
-26.7
-14.31
1.62
20.04
39.21
57.1
71.93
82.63
89.07
91.96
92.47
91.8
90.81
89.93
89.21
88.53
87.7
86.44
84.37
80.87
75.29
67.01
55.83
41.97
26.14
9.28
-7.62
-23.59
-37.78
-49.39
-57.79
-62.67
-64.26
-63.32
-60.99
-58.35
-56.08
-54.34
-52.94
-51.68
-50.61
-50.07
-50.43
-51.93
-54.5
-57.86
-61.7
-65.85
-70.21
-74.72
-79.24
-83.5
-87.24
-90.35
-92.91
-95.16
-97.34
-99.6
-101.98
-104.44
-106.98
-109.65
-112.48
-115.37
-117.98
-119.7
-119.63
-116.68
-109.69
-97.64
-79.91
-56.5
-28.17
3.56
36.61
68.7
97.73
122.11
141.03
154.45
162.95
167.46
168.95
168.15
165.41
160.84
154.37
146.06
136.17
125.2
113.69
102.17
91.04
80.6
71.16
63.01
56.47
51.75
48.86
47.55
47.37
47.75
48.19
48.23
47.6
46.16
43.94
41.05
37.75
34.36
31.23
28.62
26.66
25.25
24.16
23.06
21.68
19.88
17.69
15.19
12.48
9.58
6.44
3.07
-0.4
-3.73
-6.57
-8.67
-9.9
-10.35
-10.12
-9.37
-8.12
-6.44
-4.35
-2.04
0.3
2.39
4.07
5.31
6.2
6.88
7.42
7.81
7.93
7.65
6.91
5.74
4.21
2.47
0.63
-1.19
-2.91
-4.37
-5.45
-5.99
-5.96
-5.38
-4.42
-3.29
-2.18
-1.22
-0.38
0.49
1.6
3.18
5.32
7.95
10.84
13.66
16.16
18.33
20.33
22.55
25.31
28.78
32.81
37.02
41.0
44.49
47.5
50.25
52.98
55.83
58.69
61.28
63.26
64.26
63.95
62.01
58.18
52.31
44.49
35.06
24.44
12.9
0.46
-13.1
-27.96
-44.0
-60.58
-76.71
-91.34
-103.66
-113.3
-120.27
-124.8
-127.19
-127.64
-126.33
-123.47
-119.42
-114.62
-109.6
-104.75
-100.2
-95.84
-91.33
-86.42
-81.06
-75.54
-70.38
-66.06
-62.81
-60.54
-58.97
-57.83
-57.07
-56.84
-57.28
-58.31
-59.54
-60.29
-59.86
-57.85
-54.29
-49.55
-44.26
-38.97
-34.08
-29.75
-25.97
-22.63
-19.52
-16.35
-12.68
-8.08
-2.28
4.72
12.48
20.21
26.94
31.85
34.43
34.64
32.92
30.05
27.03
24.86
24.37
25.96
29.66
35.1
41.77
49.19
57.07
65.23
73.5
81.54
88.75
94.36
97.61
97.95
95.22
89.69
82.11
73.56
65.15
57.73
51.45
45.64
39.06
30.31
18.54
3.8
-12.89
-29.87
-45.36
-57.94
-66.74
-71.49
-72.37
-69.96
-65.15
-59.05
-52.81
-47.34
-43.1
-40.04
-37.62
-35.19
-32.19
-28.45
-24.14
-19.73
-15.73
-12.49
-10.13
-8.58
-7.59
-6.83
-5.95
-4.57
-2.47
0.36
3.59
6.67
8.99
10.14
10.11
9.21
7.91
6.58
5.36
4.18
2.93
1.62
0.4
-0.5
-0.95
-0.92
-0.53
0.07
0.76
1.51
2.31
3.15
4.01
4.9
5.88
7.03
8.44
10.15
12.09
14.17
16.3
18.51
20.87
23.49
26.42
29.61
32.92
36.17
39.26
42.17
45.02
47.93
50.97
54.01
56.76
58.83
59.89
59.74
58.39
56.03
52.88
49.1
44.77
39.92
34.61
28.98
23.04
16.56
8.99
-0.37
-12.07
-26.17
-42.02
-58.41
-73.97
-87.46
-98.03
-105.17
-108.57
-108.03
-103.39
-94.82
-82.9
-68.71
-53.66
-39.11
-26.08
-14.99
-5.73
2.2
9.29
15.8
21.62
26.43
29.85
31.72
32.15
31.48
30.1
28.27
26.16
23.84
21.41
19.1
17.25
16.23
16.31
17.57
19.78
22.4
24.72
25.98
25.61
23.38
19.43
14.19
8.18
1.85
-4.54
-10.93
-17.37
-23.88
-30.42
-36.81
-42.79
-48.14
-52.65
-56.25
-58.89
-60.52
-61.04
-60.31
-58.15
-54.47
-49.28
-42.76
-35.26
-27.14
-18.78
-10.47
-2.39
5.35
12.63
19.29
25.07
29.72
33.13
35.32
36.51
37.03
37.15
37.02
36.68
36.14
35.43
34.68
34.08
33.79
33.92
34.45
35.27
36.16
36.91
37.33
37.33
36.95
36.37
35.77
35.28
34.92
34.56
34.05
33.19
31.9
30.13
27.87
25.13
21.89
18.13
13.88
9.2
4.23
-0.9
-6.08
-11.22
-16.23
-20.96
-25.21
-28.75
-31.39
-33.04
-33.66
-33.32
-32.14
-30.31
-28.13
-25.93
-24.03
-22.62
-21.68
-21.0
-20.26
-19.21
-17.68
-15.69
-13.36
-10.8
-8.1
-5.3
-2.44
0.43
3.22
5.84
8.2
10.26
12.03
13.51
14.72
15.62
16.15
16.28
16.0
15.34
14.4
13.25
11.91
10.4
8.69
6.88
5.11
3.6
2.52
1.89
1.55
1.24
0.69
-0.18
-1.28
-2.36
-3.19
-3.71
-4.02
-4.33
-4.8
-5.46
-6.19
-6.84
-7.29
-7.6
-7.86
-8.21
-8.69
-9.23
-9.74
-10.16
-10.49
-10.79
-11.16
-11.66
-12.28
-13.05
-13.98
-15.16
-16.71
-18.68
-20.99
-23.41
-25.65
-27.44
-28.65
-29.28
-29.44
-29.21
-28.6
-27.46
-25.65
-23.01
-19.57
-15.38
-10.6
-5.4
0.08
5.71
11.32
16.69
21.57
25.71
28.9
31.05
32.14
32.3
31.76
30.84
29.83
28.96
28.26
27.55
26.53
24.92
22.6
19.69
16.49
13.36
10.64
8.5
6.93
5.78
4.87
4.09
3.46
3.19
3.55
4.78
6.9
9.61
12.32
14.35
15.16
14.62
13.1
11.27
9.88
9.36
9.57
9.83
9.11
6.32
0.6
-8.36
-20.15
-33.49
-46.3
-56.21
-61.4
-61.53
-58.05
-53.67
-51.01
-51.2
-53.22
-54.56
-52.93
-47.89
-41.42
-37.07
-38.2
-46.09
-59.32
-74.17
-85.95
-90.38
-84.35
-66.41
-37.11
0.68
41.73
79.25
106.71
119.97
118.83
106.89
89.86
73.08
59.75
50.73
45.63
44.34
47.6
56.41
70.44
87.16
102.12
110.68
110.04
100.28
84.05
65.42
48.65
37.78
36.35
46.86
69.68
101.94
137.29
167.47
184.92
185.39
169.03
139.7
102.95
64.12
27.44
-3.9
-27.29
-40.84
-44.11
-38.92
-29.32
-20.31
-15.94
-17.68
-23.97
-31.1
-34.76
-31.79
-21.17
-3.97
17.3
39.73
60.77
78.55
91.95
100.63
105.27
107.63
109.94
113.72
118.47
121.09
116.59
100.02
68.88
24.69
-27.07
-78.86
-123.78
-157.78
-180.52
-194.41
-202.78
-208.02
-210.74
-210.07
-204.93
-195.25
-182.45
