2013-02-23 18:12:41
64.0
-0.0
-0.0
-0.0
-0.0
-0.0
-0.0
-0.0
-0.0
-0.0
-0.0
0.0
0.01
0.01
-0.0
-0.03
-0.05
-0.05
0.0
0.13
0.36
0.66
1.01
1.37
1.72
2.06
2.4
2.79
3.24
3.8
4.42
5.06
5.66
6.2
6.68
7.15
7.68
8.31
9.14
10.09
11.04
11.88
12.56
13.14
13.76
14.65
15.96
17.91
20.32
22.9
25.38
27.58
29.57
31.68
34.32
37.81
42.54
48.15
54.1
59.83
64.97
69.58
74.14
79.34
85.71
93.76
103.0
112.62
121.73
129.77
136.75
143.3
150.75
157.77
166.64
177.95
191.79
206.97
220.57
228.25
225.36
208.53
176.87
132.76
80.05
23.07
-34.94
-92.44
-149.16
-205.23
-260.37
-313.74
-363.87
-409.83
-450.91
-486.5
-515.74
-537.23
-549.22
-549.96
-538.37
-514.21
-478.67
-433.88
-382.45
-327.02
-269.84
-212.63
-156.66
-102.95
-52.37
-5.9
35.58
71.42
101.35
125.5
144.39
158.72
169.19
176.4
180.73
182.49
181.89
179.24
174.9
169.3
162.83
155.82
148.49
140.95
133.28
125.53
117.76
110.07
102.54
95.21
88.11
81.22
74.52
68.02
61.77
55.85
50.34
45.28
40.63
36.29
32.12
28.03
24.01
20.14
16.59
13.54
11.04
9.03
7.28
5.5
3.49
1.22
-1.11
-3.19
-4.71
-5.52
-5.8
-5.93
-6.41
-7.54
-9.35
-11.51
-13.44
-14.74
-15.19
-15.02
-14.7
-14.73
-15.44
-16.98
-19.39
-22.55
-26.07
-29.02
-29.93
-27.27
-20.13
-8.95
4.4
17.24
27.11
32.73
34.31
33.12
30.55
27.44
23.94
19.93
15.64
11.9
9.93
10.67
14.24
19.76
25.7
30.37
32.69
32.45
30.23
27.01
23.64
20.47
17.28
13.68
9.37
4.54
-0.17
-3.88
-5.87
-5.94
-4.49
-2.37
-0.51
0.42
0.31
-0.4
-1.04
-0.94
0.19
2.16
4.46
6.49
7.84
8.38
8.28
7.83
7.42
7.46
8.32
10.25
13.25
16.98
20.78
23.84
25.27
24.54
21.59
16.77
10.72
4.13
-2.43
-8.6
-14.15
-18.97
-22.92
-25.81
-27.52
-27.94
-27.18
-25.45
-23.12
-20.55
-18.06
-15.8
-13.8
-12.03
-10.45
-9.09
-8.06
-7.43
-7.24
-7.45
-8.0
-8.83
-9.85
-10.94
-11.76
-11.82
-10.6
-7.74
-3.32
2.13
7.73
12.56
15.98
17.7
17.83
16.62
14.3
11.03
6.96
2.35
-2.37
-6.64
-9.88
-11.65
-11.83
-10.6
-8.39
-5.74
-3.18
-1.09
0.32
1.03
1.12
0.72
-0.12
-1.5
-3.58
-6.61
-10.83
-16.39
-23.06
-30.21
-36.73
-41.27
-42.51
-39.63
-32.53
-21.96
-9.23
4.09
16.59
27.24
35.39
40.7
42.95
42.09
38.25
31.91
23.95
15.57
8.05
2.49
-0.57
-1.2
-0.06
1.87
3.62
4.49
4.17
2.76
0.54
-2.21
-5.31
-8.74
-12.58
-16.98
-22.14
-28.12
-34.75
-41.38
-46.83
-49.61
-48.31
-42.1
-31.12
-16.55
-0.25
15.78
29.94
41.36
49.8
55.41
58.4
58.87
56.88
52.64
46.67
39.78
32.82
26.52
21.24
16.99
13.54
10.61
7.99
5.51
3.12
0.84
-1.3
-3.22
-4.94
-6.61
-8.53
-11.12
-14.75
-19.69
-26.03
-33.62
-41.97
-50.26
-57.26
-61.62
-62.12
-58.08
-49.73
-38.15
-25.04
-12.21
-1.07
7.55
13.45
16.77
17.76
16.65
13.72
9.45
4.61
0.19
-2.84
-3.84
-2.62
0.53
5.03
10.27
15.74
21.03
25.8
29.74
32.54
33.99
33.98
32.54
29.77
25.78
20.59
14.13
6.3
-2.91
-13.24
-24.05
-34.26
-42.42
-46.97
-46.64
-40.8
-29.74
-14.64
2.62
19.94
35.45
47.85
56.55
61.54
63.18
61.98
58.43
53.04
46.36
38.98
31.52
24.51
18.31
13.11
8.93
5.69
3.28
1.5
0.07
-1.35
-3.08
-5.34
-8.11
-11.15
-14.13
-16.75
-18.97
-21.0
-23.27
-26.22
-30.18
-35.11
-40.55
-45.63
-49.15
-49.87
-46.81
-39.67
-28.94
-15.89
-2.18
10.61
21.36
29.59
35.33
38.8
40.2
39.56
36.89
32.37
26.53
20.19
14.3
9.61
6.48
4.77
3.97
3.48
2.76
1.58
-0.05
-1.92
-3.85
-5.77
-7.76
-10.08
-13.02
-16.86
-21.8
-27.93
-35.1
-42.88
-50.48
-56.74
-60.38
-60.22
-55.57
-46.47
-33.73
-18.73
-3.06
11.8
24.72
34.92
41.94
45.58
45.86
43.14
38.09
31.63
24.75
18.33
12.96
8.89
6.01
3.96
2.29
0.61
-1.27
-3.3
-5.28
-6.97
-8.36
-9.63
-11.18
-13.45
-16.82
-21.46
-27.28
-33.88
-40.48
-45.98
-49.09
-48.63
-43.91
-34.99
-22.73
-8.62
5.65
18.56
29.09
36.78
41.62
43.81
43.62
41.29
37.06
31.31
24.63
17.77
11.51
6.46
2.84
0.46
-1.18
-2.66
-4.4
-6.47
-8.63
-10.51
-11.85
-12.65
-13.23
-14.09
-15.77
-18.65
-22.89
-28.3
-34.35
-40.12
-44.43
-46.0
-43.81
-37.38
-27.02
-13.76
0.88
15.31
28.17
38.6
46.19
50.91
52.91
52.49
50.0
45.87
40.68
35.07
29.7
25.1
21.57
19.09
17.4
16.05
14.58
12.65
10.1
7.0
3.59
0.15
-3.11
-6.21
-9.35
-12.94
-17.41
-23.07
-29.94
-37.67
-45.48
-52.25
-56.71
-57.73
-54.6
-47.31
-36.54
-23.51
-9.66
3.67
15.49
25.21
32.54
37.36
39.71
39.73
37.8
34.44
30.3
26.04
22.16
18.95
16.48
14.6
13.01
11.36
9.36
6.8
3.69
0.17
-3.55
-7.26
-10.84
-14.32
-17.84
-21.62
-25.96
-31.11
-37.04
-43.29
-48.86
-52.31
-52.23
-47.74
-38.91
-26.74
-12.92
0.78
12.99
22.97
30.54
35.76
38.72
39.45
37.95
34.39
29.21
23.06
16.77
11.09
6.57
3.46
1.65
0.78
0.37
-0.02
-0.75
-1.93
-3.57
-5.56
-7.75
-10.01
-12.26
-14.51
-16.89
-19.68
-23.22
-27.76
-33.2
-38.94
-43.77
-46.21
-44.9
-39.09
-29.0
-15.77
-1.15
13.05
25.37
35.01
41.71
45.61
47.05
46.41
44.14
40.76
36.86
32.96
29.46
26.53
24.1
22.03
20.11
18.22
16.26
14.16
11.81
9.11
6.02
2.58
-1.09
-4.84
-8.63
-12.56
-16.85
-21.83
-27.76
-34.71
-42.32
-49.74
-55.67
-58.64
-57.38
-51.26
-40.57
-26.41
-10.42
5.67
20.53
33.3
43.56
51.21
56.2
58.53
58.28
55.73
51.39
45.91
40.0
34.27
29.09
24.67
21.05
18.21
16.08
14.52
13.24
11.87
10.03
7.48
4.19
0.39
-3.55
-7.26
-10.52
-13.37
-16.08
-19.1
-22.93
-27.85
-33.7
-39.76
-44.8
-47.43
-46.53
-41.55
-32.78
-21.22
-8.26
4.65
16.27
25.76
32.65
36.73
38.06
36.82
33.4
28.31
22.21
15.76
9.55
4.0
-0.71
-4.51
-7.44
-9.5
-10.67
-11.0
-10.59
-9.7
-8.63
-7.67
-7.03
-6.88
-7.39
-8.75
-11.22
-15.02
-20.24
-26.68
-33.74
-40.45
-45.57
-47.83
-46.33
-40.73
-31.42
-19.4
-6.08
7.08
18.82
28.25
34.91
38.77
40.04
39.18
36.68
33.03
28.69
24.02
19.38
15.07
11.39
8.49
6.4
4.98
3.9
2.82
1.42
-0.43
-2.71
-5.24
-7.86
-10.48
-13.17
-16.07
-19.37
-23.18
-27.48
-32.12
-36.76
-40.83
-43.53
-43.89
-41.06
-34.6
-24.74
-12.42
0.93
13.8
24.97
33.78
40.1
44.19
46.43
47.13
46.48
44.59
41.51
37.4
32.48
27.09
21.62
16.43
11.75
7.68
4.13
0.91
-2.19
-5.32
-8.51
-11.73
-14.92
-17.99
-20.85
-23.41
-25.66
-27.66
-29.7
-32.16
-35.32
-39.08
-42.82
-45.45
-45.73
-42.75
-36.29
-26.92
-15.82
-4.39
6.14
14.92
21.5
25.73
27.6
27.22
24.82
20.8
15.71
10.18
4.86
0.23
-3.49
-6.37
-8.76
-11.16
-14.07
-17.72
-21.95
-26.11
-29.24
-30.38
-28.93
-24.97
-19.23
-12.91
-7.29
-3.41
-1.87
-2.77
-5.72
-9.87
-14.07
-16.97
-17.37
-14.49
-8.23
0.77
11.29
21.93
31.41
38.81
43.74
46.24
46.69
45.6
43.5
40.74
37.52
33.82
29.61
24.88
19.73
14.38
9.1
4.12
-0.39
-4.39
-7.87
-10.84
-13.29
-15.21
-16.63
-17.7
-18.71
-20.03
-22.09
-25.22
-29.47
-34.47
-39.38
-43.0
-44.12
-41.88
-36.04
-27.01
-15.79
-3.63
8.25
18.85
27.45
33.58
37.04
37.78
36.0
32.09
26.68
20.5
14.37
8.99
4.92
2.4
1.38
1.5
2.25
3.11
3.69
3.79
3.41
2.67
1.66
0.33
-1.52
-4.29
-8.34
-13.9
-20.85
-28.61
-36.17
-42.24
-45.51
-45.02
-40.47
-32.32
-21.67
-9.94
1.66
12.35
21.88
30.29
37.64
43.72
48.14
50.47
50.49
48.35
44.61
39.99
35.12
30.4
25.91
21.53
17.15
12.79
8.67
5.06
2.14
-0.15
-2.12
-4.22
-6.91
-10.45
-14.95
-20.31
-26.27
-32.36
-37.88
-41.92
-43.48
-41.79
-36.53
-28.06
-17.33
-5.65
5.59
15.31
22.84
27.94
30.63
31.08
29.48
26.06
21.16
15.25
8.91
2.72
-2.82
-7.32
-10.52
-12.26
-12.56
-11.64
-9.96
-8.15
-6.81
-6.39
-7.07
-8.82
-11.55
-15.28
-20.14
-26.22
-33.31
-40.73
-47.38
-51.93
-53.26
-50.69
-44.2
-34.37
-22.3
-9.24
3.52
14.95
24.31
31.18
35.42
37.13
36.56
34.21
30.74
26.98
23.68
21.29
19.81
18.82
17.66
15.83
13.16
9.89
6.47
3.32
0.57
-1.96
-4.69
-8.14
-12.74
-18.69
-25.84
-33.58
-40.83
-46.22
-48.38
-46.39
-40.1
-30.25
-18.27
-5.81
5.76
15.68
23.78
30.24
35.25
38.75
40.51
40.33
38.29
34.76
30.34
25.6
20.89
16.31
11.79
7.32
3.04
-0.77
-3.81
-6.0
-7.53
-8.89
-10.71
-13.53
-17.66
-23.19
-29.92
-37.38
-44.8
-51.1
-54.92
-54.89
-49.99
-39.98
-25.55
-8.27
9.89
27.01
41.67
53.06
60.96
65.49
66.89
65.45
61.48
55.34
47.56
38.77
29.66
20.86
12.84
5.83
-0.17
-5.29
-9.69
-13.44
-16.45
-18.52
-19.4
-19.02
-17.63
-15.79
-14.38
-14.32
-16.36
-20.78
-27.23
-34.68
-41.6
-46.34
-47.43
-44.03
-36.08
-24.32
-10.08
5.04
19.5
32.02
41.71
48.02
50.83
50.26
46.74
40.83
33.24
24.74
16.15
8.27
1.79
-2.81
-5.39
-6.06
-5.13
-3.02
-0.15
3.05
6.1
8.5
9.74
9.43
7.31
3.28
-2.7
-10.53
-19.84
-29.83
-39.19
-46.32
-49.68
-48.25
-41.83
-31.08
-17.28
-1.98
13.41
27.74
40.16
50.02
56.79
60.11
59.91
56.57
50.92
44.08
37.15
30.95
25.77
21.56
17.98
14.75
11.7
8.87
6.3
4.0
1.81
-0.56
-3.4
-6.92
-11.25
-16.33
-21.9
-27.49
-32.39
-35.71
-36.52
-34.08
-28.03
-18.63
-6.62
6.84
20.48
33.1
43.73
51.61
56.24
57.39
55.17
50.14
43.17
35.36
27.75
21.12
15.81
11.75
8.51
5.59
2.58
-0.68
-4.07
-7.27
-9.96
-12.01
-13.54
-14.91
-16.59
-19.03
-22.56
-27.25
-32.78
-38.44
-43.13
-45.56
-44.58
-39.5
-30.33
-17.84
-3.4
11.36
24.88
35.93
43.67
47.72
48.06
44.98
39.14
31.45
23.03
14.97
8.15
2.95
-0.71
-3.3
-5.35
-7.27
-9.13
-10.76
-11.9
-12.46
-12.6
-12.73
-13.42
-15.15
-18.3
-23.05
-29.35
-36.81
-44.6
-51.48
-55.98
-56.87
-53.51
-46.17
-35.94
-24.33
-12.82
-2.45
6.3
13.31
18.61
22.14
23.84
23.68
21.86
18.79
15.01
11.05
7.32
4.13
1.6
-0.2
-1.3
-1.76
-1.7
-1.26
-0.59
0.11
0.61
0.64
-0.05
-1.71
-4.59
-8.91
-14.81
-22.25
-30.84
-39.71
-47.48
-52.51
-53.27
-48.83
-39.24
-25.55
-9.57
6.67
21.43
33.56
42.54
48.3
50.96
50.68
47.7
42.42
35.53
27.95
20.67
14.47
9.75
6.47
4.29
2.69
1.15
-0.72
-3.22
-6.47
-10.47
-15.03
-19.81
-24.37
-28.33
-31.46
-33.8
-35.64
-37.48
-39.78
-42.75
-46.11
-49.0
-50.19
-48.39
-42.78
-33.34
-20.87
-6.79
7.28
19.96
30.34
37.95
42.71
44.78
44.49
42.32
38.87
34.76
30.57
26.69
23.36
20.64
18.53
16.97
16.0
15.67
16.0
16.88
17.99
18.76
18.58
16.93
13.63
8.94
3.38
-2.41
-7.95
-13.11
-18.06
-23.23
-29.05
-35.7
-42.89
-49.79
-55.16
-57.57
-55.88
-49.51
-38.71
-24.46
-8.31
8.04
22.97
35.31
44.38
50.05
52.65
52.79
51.17
48.45
45.11
41.45
37.55
33.34
28.67
23.44
17.74
11.92
6.53
2.17
-0.75
-2.18
-2.41
-1.94
-1.32
-0.91
-0.88
-1.27
-2.09
-3.43
-5.51
-8.64
-13.06
-18.78
-25.45
-32.21
-37.83
-41.02
-40.81
-36.86
-29.65
-20.29
-10.14
-0.4
8.15
15.15
20.46
23.97
25.51
24.98
22.5
18.53
13.82
9.14
5.0
1.57
-1.37
-4.14
-7.03
-10.14
-13.38
-16.55
-19.45
-21.89
-23.76
-25.02
-25.75
-26.19
-26.72
-27.81
-29.9
-33.28
-37.94
-43.38
-48.66
-52.42
-53.29
-50.23
-42.94
-31.98
-18.6
-4.44
9.0
20.58
29.66
35.98
39.52
40.39
38.8
35.08
29.75
23.48
17.0
10.98
5.89
1.95
-0.84
-2.65
-3.7
-4.17
-4.15
-3.69
-2.86
-1.8
-0.77
-0.05
0.03
-0.87
-3.07
-6.86
-12.31
-19.02
-26.03
-31.88
-34.95
-34.01
-28.66
-19.5
-7.85
4.68
16.71
27.38
36.24
43.07
47.69
49.8
49.2
45.9
40.3
33.13
25.3
17.66
10.81
5.07
0.48
-2.99
-5.4
-6.77
-7.18
-6.91
-6.4
-6.29
-7.16
-9.44
-13.28
-18.63
-25.26
-32.71
-40.32
-47.15
-52.08
-54.05
-52.36
-46.8
-37.78
-26.2
-13.22
-0.06
12.19
22.68
30.91
36.63
39.85
40.7
39.4
36.25
31.64
26.12
20.38
15.04
10.51
6.9
3.98
1.39
-1.18
-3.82
-6.41
-8.71
-10.53
-11.81
-12.77
-13.81
-15.5
-18.39
-22.88
-28.97
-36.15
-43.4
-49.3
-52.36
-51.42
-45.93
-36.18
-23.16
-8.3
6.85
21.0
33.2
42.92
49.93
54.15
55.63
54.53
51.16
46.02
39.79
33.23
27.07
21.83
17.73
14.66
12.24
10.01
7.61
4.91
1.93
-1.16
-4.24
-7.3
-10.44
-13.84
-17.61
-21.82
-26.46
-31.39
-36.31
-40.68
-43.63
-44.16
-41.35
-34.65
-24.22
-10.88
3.98
18.82
32.24
43.25
51.3
56.2
58.03
57.03
53.58
48.18
41.45
34.06
26.69
19.92
14.16
9.54
6.05
3.5
1.64
0.27
-0.8
-1.73
-2.69
-3.91
-5.63
-8.08
-11.46
-15.91
-21.56
-28.43
-36.27
-44.42
-51.72
-56.7
-57.94
-54.57
-46.55
-34.71
-20.53
-5.68
8.34
20.47
30.05
36.84
40.79
42.09
41.01
37.98
33.59
28.47
23.28
18.55
14.58
11.38
8.79
6.56
4.51
2.59
0.86
-0.66
-1.96
-3.23
-4.71
-6.73
-9.65
-13.8
-19.41
-26.47
-34.59
-42.85
-49.87
-54.07
-54.12
-49.3
-39.76
-26.55
-11.26
4.34
18.77
31.0
40.45
46.93
50.37
50.84
48.57
44.02
37.93
31.15
24.54
18.74
14.03
10.34
7.37
4.73
2.07
-0.77
-3.77
-6.8
-9.67
-12.28
-14.65
-16.97
-19.45
-22.4
-26.05
-30.57
-35.87
-41.51
-46.61
-49.95
-50.23
-46.46
-38.39
-26.56
-12.24
2.94
17.43
29.99
39.85
46.63
50.22
50.72
48.43
43.84
37.65
30.73
23.94
18.04
13.55
10.63
9.11
8.6
8.62
8.78
8.84
8.72
8.47
8.16
7.72
6.9
5.26
2.29
-2.39
-8.88
-16.88
-25.63
-34.06
-40.82
-44.61
-44.43
-39.84
-31.14
-19.36
-5.99
7.37
19.35
29.03
36.04
40.29
41.91
41.13
38.24
33.74
28.35
22.92
18.25
14.82
12.66
11.33
10.14
8.47
6.01
2.91
-0.45
-3.57
-6.17
-8.26
-10.12
-12.15
-14.8
-18.48
-23.47
-29.83
-37.14
-44.45
-50.3
-53.09
-51.55
-45.22
-34.63
-21.22
-6.8
6.97
18.95
28.67
36.11
41.43
44.67
45.75
44.54
41.12
35.92
29.69
23.36
17.73
13.22
9.85
7.27
5.04
2.82
0.45
-2.07
-4.68
-7.38
-10.26
-13.51
-17.38
-22.11
-27.86
-34.7
-42.42
-50.42
-57.7
-62.95
-64.81
-62.21
-54.76
-42.84
-27.55
-10.43
6.85
22.8
36.33
46.78
53.92
57.87
58.94
57.52
54.03
48.88
42.56
35.62
28.7
22.34
16.91
12.41
8.62
5.18
1.83
-1.42
-4.35
-6.72
-8.52
-10.02
-11.7
-14.02
-17.11
-20.82
-24.76
-28.6
-32.16
-35.3
-37.74
-38.82
-37.54
-32.99
-24.73
-13.2
0.34
14.19
26.71
36.83
44.13
48.7
50.9
51.07
49.51
46.43
42.14
37.06
31.73
26.71
22.43
19.09
16.57
14.58
12.74
10.71
8.28
5.36
1.96
-1.86
-6.03
-10.4
-14.8
-19.03
-22.98
-26.66
-30.29
-34.24
-38.9
-44.43
-50.55
-56.38
-60.58
-61.67
-58.52
-50.7
-38.69
-23.66
-7.15
9.37
24.72
38.06
48.82
56.55
60.95
61.89
59.58
54.57
47.74
40.08
32.56
25.9
20.52
16.46
13.48
11.13
8.98
6.67
4.05
1.12
-1.99
-5.18
-8.41
-11.71
-15.21
-19.02
-23.25
-27.96
-33.02
-38.05
-42.31
-44.77
-44.42
-40.6
-33.31
-23.26
-11.67
0.17
11.16
20.61
28.2
33.72
37.01
37.91
36.37
32.6
27.17
20.88
14.64
9.17
4.83
1.52
-1.2
-3.85
-6.83
-10.21
-13.68
-16.8
-19.21
-20.83
-21.96
-23.18
-25.18
-28.63
-33.96
-41.17
-49.65
-58.11
-64.71
-67.49
-64.94
-56.6
-43.27
-26.82
-9.6
6.27
19.38
29.23
35.97
39.93
41.34
40.23
36.6
30.65
22.99
14.52
6.16
-1.42
-8.12
-14.35
-20.61
-27.35
-34.53
-41.68
-48.23
-53.86
-58.54
-62.29
-64.84
-65.47
-63.58
-58.97
-52.36
-45.06
-38.19
-32.08
-25.97
-18.5
-8.64
3.37
16.05
27.36
35.85
41.56
45.88
50.71
57.17
64.9
72.03
76.18
75.56
69.75
60.11
48.85
38.18
29.49
23.06
18.44
15.12
12.94
12.06
12.75
14.79
17.48
19.62
19.96
17.68
12.69
5.6
-2.51
-10.52
-17.74
-23.96
-29.41
-34.32
-38.59
-41.55
-42.13
-39.22
-32.1
-20.91
-6.56
9.43
25.41
39.9
51.88
60.74
66.2
68.25
67.09
63.17
57.25
50.24
43.13
36.73
31.44
27.26
23.78
20.46
16.92
13.06
9.06
5.3
2.13
-0.2
-1.65
-2.48
-3.16
-4.32
-6.61
-10.51
-16.17
-23.38
-31.53
-39.69
-46.75
-51.58
-53.2
-51.05
-45.12
-36.05
-25.01
-13.4
-2.48
6.84
14.13
19.29
22.32
23.33
22.44
19.89
16.15
11.84
7.65
4.17
1.71
0.16
-0.85
-1.82
-3.09
-4.69
-6.39
-7.83
-8.87
-9.67
-10.68
-12.45
-15.37
-19.49
-24.59
-30.2
-35.69
-40.37
-43.43
-44.07
-41.62
-35.77
-26.82
-15.63
-3.46
8.45
19.1
27.91
34.65
39.18
41.36
41.03
38.2
33.2
26.83
20.12
14.06
9.3
5.89
3.45
1.35
-0.92
-3.57
-6.5
-9.45
-12.16
-14.57
-16.83
-19.29
-22.34
-26.33
-31.33
-37.1
-42.97
-47.92
-50.74
-50.39
-46.2
-38.15
-26.83
-13.27
1.3
15.65
28.73
39.67
47.75
52.55
53.96
52.32
48.38
43.11
37.41
31.9
26.84
22.15
17.62
13.06
8.43
3.85
-0.42
-4.12
-7.09
-9.32
-11.03
-12.58
-14.46
-17.13
-20.95
-25.97
-31.94
-38.17
-43.62
-47.14
-47.63
-44.46
-37.57
-27.55
-15.48
-2.67
9.65
20.47
29.01
34.8
37.57
37.29
34.28
29.16
22.81
16.21
10.18
5.23
1.43
-1.51
-4.01
-6.44
-8.94
-11.45
-13.77
-15.72
-17.26
-18.5
-19.73
-21.35
-23.72
-27.18
-31.82
-37.42
-43.25
-48.21
-50.96
-50.29
-45.51
-36.64
-24.55
-10.6
3.64
16.8
27.95
36.58
42.48
45.57
45.88
43.55
38.99
32.92
26.28
19.98
14.7
10.71
7.9
5.93
4.47
3.29
2.33
1.58
0.92
0.12
-1.21
-3.47
-7.0
-12.0
-18.49
-26.24
-34.67
-42.76
-49.19
-52.55
-51.74
-46.33
-36.72
-24.04
-9.84
4.33
17.23
28.06
36.4
42.06
45.03
45.41
43.52
39.88
35.21
30.32
25.93
22.52
20.26
18.97
18.29
17.74
16.94
15.64
13.76
11.37
8.56
5.44
2.09
-1.49
-5.35
-9.68
-14.79
-21.01
-28.46
-36.79
-44.97
-51.43
-54.4
-52.48
-45.21
-33.22
-18.09
-1.83
13.63
26.89
37.18
44.28
48.33
49.62
48.48
45.24
40.25
33.97
26.99
20.04
13.81
8.8
5.12
2.51
0.49
-1.42
-3.43
-5.45
-7.29
-8.79
-10.1
-11.59
-13.69
-16.71
-20.74
-25.71
-31.46
-37.76
-44.17
-49.87
-53.62
-53.97
-49.69
-40.35
-26.54
-9.86
7.63
23.93
37.61
47.99
55.02
59.02
60.37
59.45
56.59
52.15
46.61
40.49
34.35
28.62
23.6
19.35
15.79
12.7
9.85
7.1
4.4
1.77
-0.76
-3.23
-5.75
-8.43
-11.45
-14.99
-19.29
-24.6
-31.03
-38.31
-45.69
-51.93
-55.52
-55.19
-50.18
-40.59
-27.32
-11.86
4.05
18.72
30.85
39.67
44.97
47.06
46.55
44.15
40.54
36.25
31.71
27.26
23.2
19.76
17.08
15.15
13.85
13.0
12.39
11.79
11.0
9.78
7.97
5.54
2.55
-0.8
-4.29
-7.81
-11.43
-15.44
-20.27
-26.37
-33.92
-42.63
-51.61
-59.38
-64.16
-64.35
-59.09
-48.59
-34.13
-17.74
-1.57
12.7
24.18
32.73
38.64
42.27
43.81
43.31
40.81
36.6
31.25
25.51
20.05
15.33
11.47
8.35
5.78
3.58
1.58
-0.36
-2.45
-4.84
-7.59
-10.62
-13.76
-16.83
-19.74
-22.54
-25.36
-28.45
-32.08
-36.57
-42.07
-48.34
-54.51
-59.04
-60.05
-55.96
-46.1
-31.13
-12.86
6.27
23.93
38.49
49.19
56.04
59.42
59.81
57.69
53.53
47.91
41.51
35.03
29.05
23.89
19.64
16.21
13.44
11.22
9.43
7.93
6.49
4.88
2.93
0.64
-1.8
-4.17
-6.34
-8.39
-10.66
-13.68
-18.0
-24.0
-31.74
-40.79
-50.13
-58.26
-63.39
-63.93
-58.91
-48.35
-33.41
-16.08
1.25
16.38
27.83
35.04
38.39
38.87
37.7
35.93
34.2
32.69
31.3
29.79
28.02
25.97
23.75
21.5
19.39
17.59
16.25
15.49
15.28
15.4
15.4
14.8
13.19
10.39
6.46
1.63
-3.93
-10.13
-17.05
-24.75
-33.07
-41.52
-49.13
-54.6
-56.53
-53.77
-45.87
-33.24
-17.24
0.15
16.82
31.03
41.71
48.55
51.79
51.96
49.7
45.65
40.43
34.62
28.69
22.97
17.63
12.76
8.5
5.07
2.65
1.29
0.74
0.53
0.1
-0.89
-2.47
-4.38
-6.28
-7.98
-9.59
-11.4
-13.79
-16.96
-20.97
-25.69
-30.9
-36.22
-41.01
-44.34
-45.01
-41.97
-34.72
-23.64
-10.02
4.32
17.6
28.6
36.87
42.57
46.16
47.94
48.04
46.36
42.85
37.7
31.44
24.82
18.69
13.7
10.16
8.01
6.85
6.2
5.62
4.88
3.87
2.5
0.57
-2.15
-5.86
-10.52
-15.78
-21.14
-26.19
-30.89
-35.58
-40.76
-46.6
-52.6
-57.52
-59.7
-57.77
-51.15
-40.42
-27.02
-12.77
0.77
12.63
22.46
30.16
35.62
38.65
39.05
36.91
32.75
27.44
21.99
17.21
13.48
10.78
8.75
6.99
5.18
3.17
0.97
-1.41
-3.9
-6.47
-9.11
-11.81
-14.62
-17.62
-21.01
-25.01
-29.77
-35.21
-40.83
-45.7
-48.58
-48.27
-44.0
-35.73
-24.3
-11.17
1.99
13.73
23.14
29.86
33.88
35.33
34.35
31.15
26.11
19.88
13.28
7.17
2.14
-1.64
-4.39
-6.63
-8.87
-11.39
-14.14
-16.78
-18.88
-20.19
-20.81
-21.19
-21.98
-23.81
-27.0
-31.45
-36.59
-41.42
-44.77
-45.48
-42.72
-36.23
-26.41
-14.27
-1.12
11.72
23.16
32.48
39.2
43.05
43.93
41.93
37.46
31.23
24.12
17.06
10.76
5.61
1.62
-1.44
-3.92
-6.07
-8.05
-9.89
-11.57
-13.08
-14.48
-15.95
-17.79
-20.4
-24.24
-29.6
-36.41
-44.06
-51.36
-56.76
-58.79
-56.42
-49.41
-38.35
-24.48
-9.31
5.7
19.41
31.1
40.3
46.78
50.34
50.91
48.63
43.95
37.77
31.18
25.25
20.61
17.35
15.04
13.0
10.7
7.88
4.72
1.58
-1.2
-3.52
-5.59
-7.88
-10.95
-15.25
-20.94
-27.71
-34.78
-40.91
-44.66
-44.77
-40.56
-32.14
-20.45
-6.95
6.71
19.18
29.58
37.5
42.88
45.9
46.84
46.06
44.02
41.19
37.98
34.59
31.05
27.18
22.8
17.87
12.57
7.28
2.45
-1.6
-4.81
-7.49
-10.19
-13.52
-17.93
-23.58
-30.31
-37.75
-45.33
-52.36
-57.99
-61.18
-60.93
-56.52
-47.81
-35.36
-20.39
-4.47
10.92
24.62
35.96
44.6
50.42
53.33
53.33
50.51
45.24
38.19
30.21
22.18
14.75
8.18
2.4
-2.82
-7.68
-12.22
-16.26
-19.55
-21.93
-23.4
-24.19
-24.59
-24.94
-25.55
-26.57
-27.94
-29.3
-29.92
-28.84
-25.15
-18.28
-8.31
4.06
17.61
30.97
42.93
52.63
59.57
63.52
64.41
62.31
57.49
50.48
42.09
33.26
24.91
17.7
11.89
7.4
3.92
1.04
-1.53
-3.95
-6.27
-8.45
-10.47
-12.4
-14.39
-16.74
-19.86
-24.14
-29.76
-36.52
-43.64
-49.88
-53.78
-54.12
-50.32
-42.59
-31.9
-19.65
-7.22
4.21
13.85
21.19
25.93
27.9
27.16
24.06
19.32
13.94
8.98
5.27
3.16
2.39
2.33
2.21
1.51
0.12
-1.7
-3.58
-5.26
-6.79
-8.53
-11.06
-14.84
-20.09
-26.54
-33.36
-39.34
-43.01
-43.07
-38.7
-29.87
-17.41
-2.79
12.22
26.01
37.46
46.09
51.99
55.54
57.12
56.95
55.12
51.71
47.03
41.7
36.49
32.13
28.95
26.82
25.19
23.37
20.83
17.42
13.33
9.0
4.84
1.02
-2.53
-6.08
-9.98
-14.47
-19.77
-25.97
-33.02
-40.6
-47.95
-53.82
-56.72
-55.26
-48.69
-37.17
-21.85
-4.49
12.99
28.92
42.15
52.07
58.44
61.3
60.89
57.66
52.35
45.89
39.26
33.26
28.24
24.11
20.38
16.5
12.18
7.57
3.16
-0.49
-3.1
-4.83
-6.29
-8.3
-11.46
-15.95
-21.38
-26.96
-31.84
-35.45
-37.75
-39.22
-40.73
-43.19
-47.23
-52.89
-59.5
-65.77
-69.99
-70.53
-66.22
-56.86
-43.2
-26.75
-9.34
7.45
22.54
35.42
45.9
53.86
59.13
61.62
61.48
59.22
55.71
51.91
48.58
46.03
44.14
42.48
40.67
38.53
36.19
33.92
31.94
30.17
28.23
25.62
21.91
17.01
11.14
4.7
-1.85
-8.25
-14.48
-20.64
-26.99
-33.75
-41.14
-49.25
-57.87
-66.37
-73.57
-77.89
-77.78
-72.17
-60.92
-45.0
-26.18
-6.58
11.83
27.66
40.18
49.1
54.44
56.37
55.15
51.22
45.28
38.19
30.83
23.97
18.06
13.23
9.35
6.15
3.37
0.8
-1.65
-4.03
-6.35
-8.63
-10.89
-13.13
-15.27
-17.17
-18.68
-19.69
-20.27
-20.71
-21.56
-23.4
-26.68
-31.33
-36.69
-41.51
-44.28
-43.69
-39.02
-30.38
-18.61
-5.02
8.92
21.93
33.03
41.6
47.28
49.97
49.82
47.23
42.85
37.44
31.72
26.25
21.32
17.07
13.5
10.65
8.58
7.34
6.88
7.0
7.35
7.5
7.05
5.75
3.56
0.68
-2.57
-5.84
-8.9
-11.78
-14.79
-18.45
-23.28
-29.52
-36.82
-44.29
-50.5
-53.92
-53.31
-48.1
-38.58
-25.87
-11.54
2.8
15.85
26.81
35.37
41.49
45.29
46.88
46.38
43.98
40.0
34.87
29.12
23.24
17.56
12.25
7.31
2.69
-1.55
-5.27
-8.24
-10.35
-11.7
-12.64
-13.62
-15.06
-17.11
-19.74
-22.78
-26.21
-30.2
-35.04
-40.89
-47.43
-53.69
-58.2
-59.35
-55.94
-47.64
-35.1
-19.8
-3.56
11.93
25.43
36.22
44.01
48.73
50.41
49.17
45.32
39.43
32.33
25.0
18.33
12.93
8.99
6.23
4.11
2.05
-0.34
-3.07
-5.81
-8.12
-9.63
-10.38
-10.75
-11.42
-13.1
-16.34
-21.39
-28.13
-36.03
-44.1
-51.01
-55.26
-55.55
-51.14
-42.18
-29.7
-15.38
-1.02
11.87
22.37
30.18
35.4
38.26
38.99
37.73
34.73
30.38
25.31
20.26
15.94
12.79
10.85
9.81
9.14
8.33
7.1
5.4
3.41
1.29
-0.91
-3.33
-6.23
-9.86
-14.39
-19.85
-26.19
-33.19
-40.33
-46.7
-51.04
-52.02
-48.7
-40.88
-29.3
-15.37
-0.77
13.09
25.24
35.24
42.92
48.22
51.1
51.54
49.64
45.75
40.38
34.22
27.95
22.06
16.81
12.19
7.98
3.98
0.09
-3.61
-6.93
-9.73
-12.04
-14.08
-16.24
-18.9
-22.41
-26.99
-32.72
-39.47
-46.78
-53.73
-59.04
-61.25
-59.19
-52.36
-41.15
-26.75
-10.79
5.07
19.52
31.6
40.71
46.5
48.82
47.84
44.05
38.24
31.33
24.16
17.41
11.46
6.45
2.29
-1.27
-4.55
-7.87
-11.38
-15.04
-18.59
-21.74
-24.28
-26.32
-28.21
-30.57
-34.09
-39.25
-46.04
-53.74
-60.94
-65.8
-66.54
-61.99
-51.95
-37.24
-19.47
-0.57
17.63
33.78
47.0
56.83
63.07
65.67
64.68
60.39
53.34
44.41
34.71
25.34
17.24
10.88
6.23
2.89
0.3
-2.04
-4.33
-6.54
-8.49
-10.08
-11.46
-12.99
-15.2
-18.61
-23.59
-30.16
-37.88
-45.85
-52.62
-56.52
-55.97
-49.94
-38.41
-22.4
-3.77
15.28
32.76
47.33
58.31
65.62
69.48
70.27
68.38
64.3
58.59
51.92
45.01
38.47
32.72
27.86
23.7
19.9
16.13
12.15
7.89
3.37
-1.34
-6.19
-11.12
-16.06
-20.88
-25.5
-29.97
-34.5
-39.39
-44.78
-50.35
-55.23
-57.99
-57.09
-51.4
-40.61
-25.47
-7.6
10.99
28.36
43.08
54.28
61.56
64.85
64.3
60.33
53.74
45.61
37.19
29.59
23.55
19.29
16.61
15.02
14.02
13.15
12.11
10.69
8.81
6.52
3.97
1.43
-0.89
-2.9
-4.72
-6.71
-9.38
-13.22
-18.64
-25.74
-34.16
-43.05
-51.02
-56.36
-57.47
-53.32
-43.91
-30.3
-14.38
1.73
16.21
27.98
36.67
42.42
45.52
46.22
44.67
41.11
35.92
29.71
23.23
17.22
12.26
8.65
6.39
5.28
4.96
5.06
5.25
5.25
4.82
3.68
1.63
-1.41
-5.33
-9.79
-14.35
-18.68
-22.76
-26.98
-31.86
-37.68
-44.07
-49.84
-53.22
-52.47
-46.56
-35.62
-20.91
-4.47
11.61
25.74
37.11
45.55
51.18
54.18
54.67
52.76
48.74
43.06
36.37
29.34
22.57
16.49
11.31
7.05
3.55
0.64
-1.88
-4.14
-6.23
-8.27
-10.4
-12.84
-15.71
-18.99
-22.5
-25.99
-29.35
-32.81
-36.84
-41.9
-48.02
-54.49
-59.86
-62.32
-60.35
-53.21
-41.3
-26.0
-9.15
7.41
22.33
34.76
44.34
50.89
54.33
54.62
51.91
46.64
39.57
31.65
23.83
16.85
11.0
6.27
2.4
-0.85
-3.59
-5.77
-7.32
-8.24
-8.68
-8.92
-9.27
-10.03
-11.5
-13.98
-17.85
-23.38
-30.63
-39.14
-47.89
-55.34
-59.79
-59.79
-54.55
-44.24
-29.93
-13.36
3.51
18.9
31.54
40.75
46.27
48.17
46.75
42.54
36.35
29.19
22.15
16.17
11.87
9.42
8.57
8.78
9.32
9.49
8.77
6.92
4.03
0.46
-3.33
-6.97
-10.31
-13.49
-16.83
-20.77
-25.68
-31.77
-38.83
-46.2
-52.69
-56.74
-56.79
-51.78
-41.53
-26.86
-9.46
8.64
25.52
39.79
50.72
58.12
62.11
62.94
60.9
56.36
49.88
42.28
34.48
27.34
21.37
16.62
12.74
9.14
5.39
1.36
-2.72
-6.4
-9.29
-11.33
-12.82
-14.32
-16.38
-19.33
-23.24
-27.97
-33.27
-38.8
-44.05
-48.23
-50.27
-49.08
-43.86
-34.52
-21.81
-7.17
7.66
21.1
32.1
40.21
45.47
48.07
48.25
46.17
42.09
36.44
29.94
23.49
17.91
13.67
10.75
8.66
6.67
4.16
0.88
-2.94
-6.74
-9.87
-11.93
-12.92
-13.24
-13.62
-14.82
-17.51
-22.09
-28.66
-36.94
-46.19
-55.16
-62.22
-65.61
-63.95
-56.66
-44.29
-28.37
-11.06
5.48
19.64
30.59
38.25
42.95
45.13
45.07
42.98
39.1
33.94
28.35
23.3
19.62
17.7
17.29
17.59
17.6
16.51
14.0
10.32
6.05
1.8
-2.13
-5.81
-9.58
-13.87
-19.03
-25.2
-32.38
-40.26
-48.23
-55.19
-59.68
-60.1
-55.31
-45.04
-30.12
-12.31
6.19
23.36
37.71
48.46
55.42
58.74
58.71
55.72
50.26
42.93
34.47
25.68
17.28
9.79
3.53
-1.46
-5.27
-8.09
-10.08
-11.39
-12.18
-12.63
-13.02
-13.64
-14.77
-16.6
-19.2
-22.63
-26.89
-31.95
-37.55
-43.09
-47.56
-49.61
-47.96
-41.82
-31.21
-17.04
-0.84
15.65
30.89
43.77
53.62
60.09
63.08
62.68
59.25
53.41
46.03
38.08
30.47
23.86
18.6
14.67
11.8
9.56
7.55
5.51
3.37
1.17
-1.02
-3.25
-5.64
-8.41
-11.83
-16.15
-21.62
-28.4
-36.45
-45.3
-53.97
-60.99
-64.79
-64.1
-58.41
-48.15
-34.62
-19.55
-4.69
8.57
19.42
27.55
33.02
36.05
36.91
35.92
33.45
29.96
26.0
22.07
18.6
15.79
13.67
12.04
10.67
9.26
7.65
5.74
3.58
1.21
-1.38
-4.34
-7.94
-12.48
-18.22
-25.21
-33.22
-41.62
-49.38
-55.16
-57.57
-55.48
-48.4
-36.74
-21.78
-5.32
10.84
25.23
36.96
45.65
51.15
53.42
52.47
48.53
42.16
34.28
26.05
18.51
12.34
7.64
4.04
0.96
-2.09
-5.3
-8.53
-11.46
-13.85
-15.72
-17.37
-19.33
-22.17
-26.38
-32.16
-39.36
-47.27
-54.67
-59.87
-61.09
-56.96
-47.01
-31.96
-13.58
5.8
23.95
39.27
50.99
59.06
63.8
65.55
64.57
61.06
55.42
48.35
40.79
33.71
27.76
23.12
19.51
16.43
13.37
10.14
6.86
3.84
1.42
-0.36
-1.77
-3.33
-5.7
-9.47
-15.07
-22.7
-32.18
-42.86
-53.52
-62.44
-67.77
-68.01
-62.54
-51.83
-37.3
-20.95
-4.75
9.73
21.55
30.29
35.87
38.43
38.23
35.71
31.43
26.14
20.68
15.81
12.15
10.03
9.42
10.01
11.25
12.5
13.15
12.76
11.08
8.17
4.25
-0.38
-5.49
-11.06
-17.21
-24.16
-32.04
-40.75
-49.84
-58.44
-65.31
-68.95
-68.01
-61.61
-49.72
-33.26
-13.98
5.98
24.63
40.55
53.07
62.19
68.31
71.92
73.42
72.98
70.68
66.56
60.77
53.66
45.74
37.57
29.75
22.73
16.76
11.85
7.79
4.19
0.62
-3.26
-7.58
-12.25
-17.03
-21.64
-25.91
-29.82
-33.58
-37.55
-42.06
-47.27
-52.82
-57.75
-60.6
-59.76
-54.09
-43.31
-28.24
-10.58
7.61
24.45
38.63
49.49
56.85
60.86
61.83
60.19
56.55
51.6
46.05
40.46
35.18
30.36
26.07
22.36
19.34
17.11
15.66
14.77
14.04
12.96
11.04
7.96
3.67
-1.63
-7.53
-13.54
-19.27
-24.55
-29.55
-34.7
-40.52
-47.37
-55.07
-62.83
-69.26
-72.73
-71.84
-65.93
-55.24
-40.92
-24.63
-8.09
7.27
20.55
31.27
39.2
44.24
46.38
45.79
42.93
38.56
33.58
28.88
25.01
22.2
20.26
18.78
17.24
15.22
12.42
8.86
4.71
0.32
-4.04
-8.23
-12.28
-16.39
-20.77
-25.65
-31.21
-37.55
-44.48
-51.38
-57.08
-60.03
-58.75
-52.4
-41.14
-26.24
-9.64
6.59
20.8
32.08
40.18
45.25
47.54
47.26
44.59
39.85
33.53
26.37
19.22
12.82
7.63
3.69
0.73
-1.71
-4.06
-6.5
-8.96
-11.16
-12.8
-13.76
-14.21
-14.57
-15.38
-17.09
-19.99
-24.16
-29.49
-35.64
-41.92
-47.23
-50.12
-49.19
-43.54
-33.21
-19.26
-3.5
12.12
26.0
37.21
45.48
50.95
53.87
54.45
52.86
49.31
44.17
37.99
31.49
25.34
20.1
16.0
12.97
10.69
8.75
6.82
4.71
2.42
-0.01
-2.56
-5.3
-8.42
-12.17
-16.79
-22.49
-29.39
-37.42
-46.25
-55.1
-62.69
-67.45
-67.86
-62.97
-52.79
-38.43
-21.76
-4.88
10.5
23.38
33.52
41.07
46.27
49.18
49.79
48.17
44.66
39.9
34.68
29.72
25.48
22.13
19.58
17.54
15.7
13.75
11.43
8.59
5.19
1.37
-2.69
-6.83
-11.02
-15.44
-20.4
-26.25
-33.13
-40.83
-48.65
-55.45
-59.85
-60.55
-56.7
-48.17
-35.68
-20.65
-4.91
9.77
22.05
31.26
37.26
40.3
40.74
38.97
35.36
30.43
24.82
19.23
14.3
10.37
7.4
5.04
2.84
0.38
-2.46
-5.55
-8.54
-11.1
-13.05
-14.51
-15.8
-17.36
-19.54
-22.55
-26.39
-30.91
-35.75
-40.3
-43.65
-44.69
-42.34
-35.93
-25.57
-12.23
2.47
16.72
29.02
38.47
44.9
48.54
49.73
48.73
45.73
41.02
35.13
28.88
23.14
18.55
15.35
13.26
11.73
10.23
8.41
6.17
3.62
0.88
-1.94
-4.9
-8.06
-11.6
-15.69
-20.57
-26.47
-33.5
-41.55
-50.06
-57.98
-63.84
-66.05
-63.44
-55.67
-43.46
-28.42
-12.55
2.35
15.14
25.35
33.06
38.55
42.03
43.65
43.56
42.04
39.55
36.64
33.84
31.51
29.74
28.43
27.34
26.21
24.85
23.16
21.01
18.26
14.75
10.35
5.11
-0.63
-6.37
-11.58
-15.99
-19.78
-23.56
-28.11
-34.01
-41.22
-48.85
-55.29
-58.52
-56.86
-49.46
-36.68
-20.01
-1.61
16.28
31.91
44.25
52.91
57.98
59.76
58.68
55.3
50.36
44.7
39.1
34.04
29.68
25.84
22.27
18.84
15.66
12.99
11.02
9.64
8.4
6.7
4.0
0.11
-4.78
-10.21
-15.66
-20.77
-25.41
-29.66
-33.71
-37.81
-42.14
-46.82
-51.74
-56.47
-60.19
-61.84
-60.31
-54.81
-45.22
-32.19
-17.08
-1.57
12.75
24.73
33.83
40.09
43.9
45.73
45.96
44.83
42.54
39.3
35.45
31.43
27.72
24.68
22.45
20.87
19.59
18.15
16.18
13.45
9.86
5.33
-0.2
-6.77
-14.27
-22.31
-30.25
-37.32
-43.02
-47.29
-50.62
-53.78
-57.31
-61.12
-64.36
-65.6
-63.47
-57.16
-46.79
-33.36
-18.35
-3.23
10.92
23.51
34.32
43.16
49.75
53.72
54.74
52.8
48.32
42.2
35.61
29.71
25.31
22.64
21.38
20.81
20.08
18.52
15.82
12.04
7.47
2.51
-2.52
-7.41
-12.03
-16.32
-20.28
-24.0
-27.7
-31.62
-35.83
-39.99
-43.24
-44.3
-41.92
-35.34
-24.73
-11.2
3.51
17.57
29.62
38.94
45.4
49.19
50.54
49.6
46.58
41.8
35.83
29.42
23.33
18.17
14.23
11.51
9.67
8.24
6.71
4.7
2.11
-0.97
-4.28
-7.55
-10.63
-13.5
-16.3
-19.23
-22.5
-26.37
-31.02
-36.52
-42.66
-48.78
-53.72
-56.04
-54.33
-47.76
-36.45
-21.49
-4.69
11.94
26.77
38.78
47.64
53.47
56.56
57.2
55.65
52.3
47.61
42.25
36.87
32.02
28.03
24.92
22.51
20.51
18.62
16.62
14.39
11.89
9.06
5.87
2.25
-1.9
-6.64
-11.99
-17.94
-24.45
-31.45
-38.96
-46.93
-55.09
-62.78
-68.84
-71.84
-70.51
-64.18
-53.16
-38.69
-22.53
-6.43
8.35
21.19
31.87
40.32
46.38
49.78
50.37
48.32
44.22
38.97
33.53
28.63
24.64
21.46
18.73
15.92
12.63
8.7
4.24
-0.41
-4.9
-9.02
-12.8
-16.49
-20.45
-25.02
-30.38
-36.51
-43.18
-49.86
-55.68
-59.47
-59.97
-56.2
-47.85
-35.52
-20.65
-5.1
9.3
21.29
30.35
36.59
40.42
42.21
42.09
40.01
35.98
30.32
23.73
17.18
11.58
7.46
4.84
3.25
2.03
0.66
-1.04
-2.88
-4.48
-5.55
-6.07
-6.37
-6.98
-8.46
-11.26
-15.59
-21.41
-28.36
-35.65
-42.12
-46.31
-46.86
-42.95
-34.63
-22.88
-9.36
4.14
16.19
26.01
33.44
38.65
41.89
43.27
42.8
40.57
36.82
32.1
27.05
22.37
18.55
15.79
14.05
13.05
12.43
11.78
10.77
9.11
6.68
3.45
-0.53
-5.2
-10.63
-16.99
-24.48
-33.17
-42.8
-52.65
-61.56
-68.04
-70.64
-68.35
-60.96
-49.13
-34.32
-18.32
-2.78
11.13
22.87
32.32
39.56
44.65
47.56
48.32
47.12
44.36
40.62
36.5
32.46
28.74
25.37
22.22
19.12
15.97
12.73
9.44
6.13
2.78
-0.67
-4.32
-8.27
-12.57
-17.26
-22.45
-28.29
-34.85
-41.91
-48.7
-53.92
-55.93
-53.32
-45.45
-32.84
-17.05
-0.26
15.5
28.79
39.0
46.13
50.4
51.99
51.0
47.62
42.3
35.8
29.04
22.81
17.52
13.15
9.34
5.65
1.81
-2.18
-6.07
-9.5
-12.17
-14.04
-15.37
-16.61
-18.35
-21.07
-25.11
-30.56
-37.26
-44.73
-52.16
-58.36
-61.99
-61.82
-57.08
-47.84
-34.97
-20.03
-4.75
9.3
21.08
30.08
36.18
39.44
39.99
37.99
33.73
27.67
20.54
13.23
6.65
1.56
-1.68
-3.08
-3.09
-2.32
-1.3
-0.34
0.59
1.62
2.81
3.86
4.17
2.98
-0.32
-5.93
-13.53
-22.32
-31.14
-38.59
-43.26
-43.98
-40.08
-31.68
-19.73
-5.87
8.05
20.38
30.12
36.97
41.18
43.24
43.63
42.68
40.61
37.7
34.29
30.82
27.68
25.02
22.73
20.42
17.64
14.02
9.53
4.43
-0.82
-5.77
-10.18
-14.09
-17.77
-21.55
-25.72
-30.42
-35.62
-41.12
-46.51
-51.11
-53.96
-53.97
-50.24
-42.34
-30.6
-16.07
-0.21
15.47
29.77
42.0
51.82
59.11
63.75
65.62
64.65
61.05
55.32
48.24
40.69
33.39
26.79
20.93
15.53
10.2
4.6
-1.36
-7.53
-13.64
-19.37
-24.56
-29.19
-33.4
-37.4
-41.43
-45.75
-50.55
-55.88
-61.45
-66.48
-69.75
-69.89
-65.76
-56.88
-43.6
-27.01
-8.67
9.74
26.78
41.36
52.83
60.92
65.72
67.52
66.78
63.96
59.5
53.81
47.32
40.53
33.98
28.17
23.45
19.89
17.31
15.28
13.28
10.82
7.64
3.73
-0.64
-5.07
-9.13
-12.6
-15.52
-18.26
-21.45
-25.77
-31.72
-39.34
-47.94
-56.22
-62.44
-64.9
-62.47
-54.91
-43.0
-28.32
-12.78
1.97
14.8
25.22
33.23
39.01
42.71
44.35
43.96
41.62
37.74
32.93
27.96
23.64
20.56
19.07
19.15
20.45
22.28
23.77
24.02
22.34
18.47
12.67
5.61
-1.85
-8.89
-15.01
-19.99
-23.96
-27.23
-30.28
-33.7
-38.03
-43.54
-49.97
-56.3
-60.87
-61.81
-57.59
-47.68
-32.75
-14.61
4.45
22.21
37.14
48.54
56.44
61.29
63.52
63.46
61.26
57.09
51.22
44.15
36.46
28.76
21.52
15.13
9.92
6.23
4.31
4.17
5.43
7.29
8.71
8.75
6.88
3.14
-1.86
-7.31
-12.45
-16.9
-20.69
-24.27
-28.19
-32.85
-38.26
-43.88
-48.71
-51.43
-50.76
-45.85
-36.59
-23.74
-8.8
6.41
20.2
31.37
39.36
44.16
46.05
45.41
42.62
38.12
32.42
26.21
20.16
14.84
10.6
7.47
5.25
3.55
1.97
0.17
-2.0
-4.48
-7.1
-9.68
-12.17
-14.7
-17.55
-20.98
-25.17
-30.17
-36.0
-42.58
-49.67
-56.68
-62.56
-65.89
-65.3
-59.95
-49.96
-36.49
-21.41
-6.7
6.08
16.24
23.85
29.46
33.65
36.76
38.76
39.5
38.9
37.1
34.53
31.65
28.83
26.25
23.81
21.37
18.83
16.19
13.55
10.98
8.44
5.75
2.69
-0.91
-5.1
-9.82
-15.01
-20.74
-27.21
-34.64
-42.96
-51.55
-59.21
-64.37
-65.54
-61.83
-53.21
-40.62
-25.61
-9.95
4.74
17.28
26.9
33.16
35.86
35.02
30.88
24.02
15.3
5.73
-3.72
-12.41
-20.06
-26.76
-32.7
-37.93
-42.23
-45.14
-46.14
-44.94
-41.7
-36.97
-31.62
-26.49
-22.26
-19.35
-18.02
-18.46
-20.72
-24.52
-29.03
-32.9
-34.54
-32.63
-26.59
-16.67
-3.71
11.31
27.6
44.49
61.17
76.4
88.54
95.96
97.63
93.55
84.75
73.03
60.37
48.44
38.37
30.74
25.68
22.93
21.94
21.9
21.91
21.14
19.07
15.64
11.13
6.07
0.97
-3.94
-8.81
-14.07
-20.24
-27.49
-35.41
-42.88
-48.3
-50.07
-47.15
-39.49
-28.05
-14.48
-0.58
12.24
23.19
31.99
38.58
42.87
44.7
43.97
40.85
35.87
29.87
23.73
18.08
13.16
8.82
4.76
0.77
-3.11
-6.62
-9.38
-11.15
-11.99
-12.29
-12.72
-14.03
-16.85
-21.5
-27.82
-35.17
-42.45
-48.26
-51.2
-50.14
-44.6
-34.79
-21.71
-6.8
8.28
22.07
33.52
42.1
47.65
50.29
50.2
47.65
43.0
36.81
29.81
22.79
16.46
11.19
7.01
3.68
0.83
-1.79
-4.28
-6.58
-8.57
-10.21
-11.63
-13.14
-15.16
-18.15
-22.46
-28.15
-34.88
-41.81
-47.74
-51.3
-51.34
-47.33
-39.57
-29.1
-17.35
-5.66
5.1
14.6
22.79
29.61
34.74
37.61
37.72
34.97
29.89
23.54
17.26
12.17
8.84
7.14
6.42
5.83
4.78
3.03
0.79
-1.63
-4.07
-6.68
-9.87
-14.11
-19.63
-26.3
-33.67
-40.96
-47.24
-51.52
-52.95
-50.92
-45.26
-36.37
-25.12
-12.62
-0.0
11.85
22.29
30.88
37.23
40.95
41.78
39.8
35.5
29.83
23.95
18.87
15.16
12.83
11.41
10.28
8.92
7.09
4.84
2.37
-0.12
-2.57
-5.13
-8.11
-11.94
-17.04
-23.54
-31.15
-38.95
-45.59
-49.53
-49.51
-44.93
-36.03
-23.78
-9.57
5.16
19.23
31.77
42.21
50.09
55.01
56.69
55.12
50.69
44.17
36.64
29.15
22.58
17.32
13.3
10.1
7.14
3.92
0.18
-4.04
-8.52
-13.05
-17.51
-22.01
-26.7
-31.72
-37.11
-42.84
-48.83
-54.97
-60.94
-66.02
-68.99
-68.4
-63.02
-52.39
-37.23
-19.26
-0.76
16.25
30.49
41.61
50.02
56.32
60.98
64.09
65.47
64.92
62.41
58.22
52.82
46.74
40.43
34.24
28.4
23.12
18.57
14.81
11.72
9.03
6.42
3.59
0.37
-3.21
-7.06
-11.14
-15.55
-20.63
-26.8
-34.34
-43.13
-52.43
-60.8
-66.44
-67.59
-63.11
-52.89
-37.98
-20.37
-2.46
13.57
26.25
35.01
40.09
42.17
42.06
40.41
37.71
34.35
30.76
27.38
24.65
22.79
21.73
21.13
20.51
19.46
17.76
15.38
12.46
9.18
5.64
1.94
-1.89
-5.79
-9.76
-13.85
-18.29
-23.45
-29.69
-37.04
-44.96
-52.16
-56.85
-57.23
-52.04
-41.1
-25.44
-7.06
11.58
28.24
41.32
50.1
54.64
55.53
53.55
49.48
43.95
37.52
30.62
23.68
17.04
11.01
5.85
1.77
-1.07
-2.61
-3.02
-2.69
-2.27
-2.52
-4.06
-7.15
-11.63
-16.93
-22.34
-27.27
-31.48
-35.12
-38.66
-42.65
-47.46
-53.0
-58.61
-63.03
-64.68
-62.07
-54.35
-41.63
-25.1
-6.74
11.26
27.06
39.57
48.54
54.26
57.26
58.06
57.02
54.46
50.71
46.22
41.5
37.02
33.12
30.01
27.76
26.28
25.35
24.6
23.53
21.64
18.51
13.98
8.23
1.71
-5.01
-11.46
-17.41
-22.93
-28.4
-34.32
-41.11
-48.89
-57.21
-64.99
-70.59
-72.23
-68.55
-59.13
-44.75
-27.2
-8.75
8.49
23.11
34.53
42.85
48.46
51.78
53.11
52.76
51.04
48.42
45.31
42.05
38.74
35.29
31.58
27.56
23.32
19.02
14.86
10.96
7.37
4.14
1.32
-1.05
-3.05
-4.97
-7.27
-10.45
-14.9
-20.79
-27.98
-36.1
-44.5
-52.19
-57.9
-60.26
-58.1
-50.96
-39.33
-24.68
-9.0
5.75
18.18
27.74
34.5
38.89
41.29
41.91
40.87
38.36
34.74
30.58
26.44
22.71
19.49
16.59
13.69
10.49
6.92
3.15
-0.55
-3.88
-6.68
-8.96
-10.79
-12.3
-13.62
-14.93
-16.5
-18.66
-21.69
-25.79
-30.91
-36.77
-42.74
-47.93
-51.27
-51.7
-48.43
-41.29
-30.78
-18.1
-4.79
7.7
18.4
26.91
33.33
37.89
40.76
41.94
41.38
39.18
35.71
31.59
27.49
23.87
20.83
18.12
15.29
11.91
7.77
2.95
-2.25
-7.46
-12.29
-16.52
-20.11
-23.23
-26.22
-29.48
-33.38
-38.15
-43.72
-49.65
-55.06
-58.71
-59.29
-55.79
-47.87
-36.07
-21.65
-6.23
8.64
21.88
32.94
41.68
48.09
52.17
53.86
53.17
50.33
45.83
40.41
34.84
29.74
25.39
21.77
18.56
15.35
11.79
7.67
2.94
-2.33
-7.94
-13.64
-19.16
-24.21
-28.63
-32.44
-35.91
-39.44
-43.42
-47.93
-52.55
-56.3
-57.92
-56.23
-50.54
-41.01
-28.54
-14.62
-0.82
11.59
21.85
29.74
35.35
38.89
40.57
40.5
38.8
35.65
31.41
26.6
21.81
17.6
14.31
12.03
10.63
9.77
9.1
8.32
7.26
5.87
4.19
2.25
0.05
-2.52
-5.72
-9.9
-15.41
-22.37
-30.51
-38.97
-46.41
-51.26
-52.13
-48.28
-39.83
-27.81
-13.77
0.59
13.89
25.26
34.29
40.96
45.37
47.67
48.07
46.77
44.13
40.55
36.5
32.36
28.43
24.75
21.24
17.7
13.97
10.06
6.11
2.32
-1.21
-4.57
-8.07
-12.03
-16.64
-21.92
-27.76
-34.09
-40.92
-48.21
-55.61
-62.25
-66.76
-67.69
-64.02
-55.6
-43.27
-28.62
-13.41
0.9
13.46
23.94
32.3
38.54
42.55
44.25
43.71
41.33
37.8
33.89
30.23
27.1
24.39
21.74
18.78
15.36
11.62
7.91
4.57
1.73
-0.75
-3.26
-6.23
-10.0
-14.75
-20.47
-26.97
-33.79
-40.14
-44.89
-46.76
-44.65
-38.09
-27.5
-14.13
0.29
14.03
25.77
34.75
40.75
43.82
44.13
41.89
37.44
31.25
24.01
16.48
9.41
3.37
-1.37
-4.86
-7.45
-9.6
-11.7
-13.91
-16.1
-17.91
-18.95
-19.05
-18.48
-17.87
-18.06
-19.73
-23.17
-28.07
-33.6
-38.55
-41.66
-41.86
-38.52
-31.59
-21.63
-9.73
2.72
14.39
24.28
31.87
37.07
40.1
41.19
40.55
38.44
35.28
31.67
28.36
25.94
24.67
24.29
24.16
23.48
21.55
18.07
13.14
7.2
0.8
-5.62
-11.9
-18.18
-24.81
-32.17
-40.39
-49.28
-58.15
-65.98
-71.6
-74.0
-72.51
-67.03
-57.91
-45.93
-32.03
-17.17
-2.2
12.12
25.06
35.89
43.98
48.94
50.77
49.91
47.15
43.32
39.08
34.7
30.09
25.03
19.39
13.32
7.24
1.67
-3.05
-6.91
-10.25
-13.67
-17.77
-23.02
-29.64
-37.57
-46.37
-55.26
-63.03
-68.18
-69.31
-65.46
-56.56
-43.43
-27.59
-10.76
5.68
20.83
34.26
45.68
54.65
60.62
63.05
61.78
57.08
49.67
40.39
29.99
18.98
7.66
-3.72
-14.85
-25.38
-34.92
-43.12
-49.7
-54.52
-57.62
-59.32
-60.29
-61.35
-63.27
-66.31
-69.94
-72.85
-73.26
-69.52
-60.63
-46.68
-28.76
-8.66
11.72
30.81
47.63
61.83
73.36
82.32
88.71
92.53
93.89
93.14
90.91
87.93
84.86
82.06
79.61
77.36
75.13
72.74
69.95
66.38
61.48
54.73
45.78
34.7
21.93
8.18
-5.89
-19.81
-33.28
-45.96
-57.21
-66.01
-71.22
-72.01
-68.25
-60.61
-50.41
-39.07
-27.64
-16.58
-5.86
4.68
14.93
24.41
32.37
38.12
41.4
42.43
41.85
40.41
38.65
36.79
34.76
32.36
29.56
26.51
23.55
21.0
18.92
16.99
14.69
11.46
6.95
1.11
-5.81
-13.39
-21.04
-28.08
-33.72
-37.11
-37.53
-34.62
-28.51
-19.93
-9.99
0.11
9.32
16.92
22.51
25.93
27.13
26.21
23.46
19.41
14.8
10.42
6.88
4.44
2.92
1.87
0.76
-0.76
-2.86
-5.45
-8.31
-11.25
-14.11
-16.9
-19.78
-23.04
-26.97
-31.7
-36.93
-41.95
-45.65
-46.86
-44.73
-38.96
-29.98
-18.78
-6.59
5.35
16.08
24.97
31.67
36.05
38.14
38.06
36.08
32.62
28.23
23.49
18.91
14.84
11.4
8.6
6.29
4.3
2.47
0.58
-1.58
-4.29
-7.79
-12.35
-18.1
-24.99
-32.61
-40.14
-46.37
-49.96
-49.82
-45.45
-37.2
-26.12
-13.7
-1.42
9.55
18.43
24.83
28.54
29.51
27.91
24.18
19.11
13.63
8.57
4.37
1.01
-1.86
-4.66
-7.6
-10.57
-13.27
-15.37
-16.75
-17.56
-18.15
-18.97
-20.47
-22.99
-26.72
-31.52
-36.79
-41.47
-44.13
-43.41
-38.43
-29.2
-16.68
-2.5
11.5
23.77
33.45
40.25
44.32
45.86
45.01
41.88
36.75
30.29
23.52
17.55
13.23
10.83
9.99
9.93
9.8
9.05
7.56
5.58
3.48
1.49
-0.41
-2.54
-5.37
-9.33
-14.65
-21.19
-28.31
-34.94
-39.78
-41.67
-39.92
-34.54
-26.17
-15.86
-4.71
6.35
16.63
25.63
32.83
37.72
39.9
39.25
36.07
31.12
25.42
19.99
15.58
12.55
10.81
9.96
9.42
8.68
7.42
5.53
3.08
0.17
-3.07
-6.58
-10.31
-14.25
-18.44
-23.01
-28.08
-33.58
-39.04
-43.55
-45.89
-44.94
-40.15
-31.82
-21.04
-9.35
1.83
11.6
19.63
26.05
31.08
34.79
37.03
37.63
36.48
33.74
29.8
25.21
20.42
15.69
11.05
6.36
1.51
-3.43
-8.12
-12.05
-14.73
-15.96
-16.06
-15.8
-16.21
-18.16
-22.07
-27.8
-34.74
-42.08
-48.98
-54.5
-57.65
-57.33
-52.68
-43.5
-30.53
-15.42
-0.28
13.09
23.72
31.63
37.45
41.82
44.99
46.77
46.75
44.78
41.16
36.55
31.7
27.13
22.97
19.09
15.29
11.54
8.09
5.31
3.42
2.36
1.67
0.66
-1.38
-4.97
-10.34
-17.49
-26.13
-35.71
-45.27
-53.48
-58.81
-59.91
-56.09
-47.57
-35.42
-21.23
-6.61
7.23
19.51
29.78
37.6
42.52
44.13
42.29
37.41
30.48
22.95
16.26
11.52
9.11
8.68
9.26
9.68
8.99
6.71
2.99
-1.66
-6.61
-11.38
-15.8
-19.9
-23.82
-27.73
-31.77
-36.07
-40.63
-45.07
-48.59
-49.94
-47.81
-41.35
-30.63
-16.67
-1.19
14.0
27.51
38.59
47.03
52.92
56.37
57.46
56.27
53.1
48.46
43.09
37.79
33.15
29.37
26.22
23.19
19.71
15.46
10.52
5.26
0.16
-4.48
-8.64
-12.55
-16.55
-20.95
-26.02
-31.89
-38.54
-45.59
-52.17
-57.05
-58.83
-56.41
-49.33
-37.98
-23.43
-7.22
9.1
24.17
36.99
46.96
53.76
57.34
57.89
55.79
51.66
46.26
40.38
34.65
29.46
24.86
20.61
16.36
11.88
7.14
2.4
-1.94
-5.5
-8.07
-9.77
-10.95
-12.18
-14.1
-17.24
-21.87
-27.84
-34.51
-40.73
-45.08
-46.17
-43.13
-35.89
-25.21
-12.47
0.85
13.53
24.77
34.08
41.14
45.61
47.27
46.12
42.53
37.3
31.38
25.7
20.87
17.09
14.16
11.61
8.99
6.03
2.76
-0.57
-3.7
-6.59
-9.48
-12.9
-17.4
-23.29
-30.5
-38.48
-46.31
-52.81
-56.78
-57.23
-53.63
-46.06
-35.24
-22.35
-8.71
4.43
16.14
25.78
32.91
37.27
38.75
37.49
33.97
28.93
23.26
17.77
12.94
8.89
5.38
2.04
-1.43
-5.08
-8.76
-12.19
-15.2
-17.79
-20.17
-22.71
-25.84
-29.89
-34.93
-40.68
-46.38
-50.91
-52.95
-51.41
-45.7
-36.06
-23.46
-9.34
4.72
17.45
28.03
36.04
41.31
43.82
43.67
41.09
36.64
31.12
25.4
20.23
15.94
12.37
9.08
5.63
1.78
-2.36
-6.53
-10.48
-14.19
-17.91
-22.04
-26.96
-32.83
-39.37
-45.84
-51.03
-53.49
-51.95
-45.73
-35.03
-21.0
-5.43
9.8
23.22
33.99
41.92
47.16
49.93
50.37
48.57
44.67
39.09
32.6
26.12
20.59
16.62
14.33
13.31
12.8
12.01
10.42
7.92
4.76
1.27
-2.35
-6.13
-10.34
-15.26
-20.94
-27.15
-33.24
-38.3
-41.35
-41.5
-38.24
-31.59
-22.06
-10.59
1.72
13.9
25.19
35.11
43.28
49.29
52.7
53.16
50.65
45.64
39.07
32.07
25.69
20.51
16.57
13.48
10.66
7.7
4.56
1.48
-1.15
-3.1
-4.53
-5.97
-8.17
-11.85
-17.44
-24.9
-33.71
-42.88
-51.14
-57.05
-59.36
-57.27
-50.72
-40.42
-27.71
-14.13
-1.1
10.41
19.83
26.84
31.27
33.02
32.16
29.09
24.56
19.56
15.08
11.79
9.92
9.21
9.03
8.71
7.69
5.71
2.79
-0.82
-4.85
-9.01
-13.14
-17.15
-21.12
-25.15
-29.37
-33.7
-37.78
-40.88
-42.11
-40.66
-36.17
-28.88
-19.56
-9.23
1.23
11.2
20.35
28.38
34.96
39.6
41.91
41.78
39.54
35.86
31.51
27.1
22.84
18.64
14.23
9.48
4.56
-0.11
-4.05
-6.99
-9.03
-10.68
-12.68
-15.77
-20.48
-26.98
-34.93
-43.49
-51.28
-56.63
-57.92
-54.12
-45.14
-32.0
-16.5
-0.69
13.79
26.06
35.92
43.52
49.0
52.33
53.35
52.09
48.91
44.53
39.79
35.35
31.47
28.01
24.63
20.96
16.88
12.48
7.97
3.6
-0.49
-4.31
-7.91
-11.4
-14.82
-18.26
-21.91
-26.07
-30.99
-36.66
-42.6
-47.74
-50.7
-50.15
-45.35
-36.44
-24.47
-11.04
2.16
13.83
23.23
30.12
34.64
37.05
37.67
36.87
35.14
33.0
30.93
29.23
27.9
26.66
25.1
22.82
19.7
15.85
11.64
7.48
3.73
0.55
-2.09
-4.31
-6.24
-7.98
-9.63
-11.41
-13.66
-16.9
-21.59
-27.9
-35.41
-43.03
-49.2
-52.3
-51.2
-45.66
-36.42
-24.94
-12.83
-1.4
8.67
17.19
24.23
29.83
33.87
36.11
36.42
35.0
32.35
29.15
25.99
23.13
20.47
17.68
14.46
10.72
6.68
2.7
-0.88
-3.97
-6.77
-9.65
-13.05
-17.31
-22.64
-29.08
-36.35
-43.83
-50.47
-54.92
-55.91
-52.62
-45.0
-33.79
-20.26
-5.88
8.12
20.84
31.69
40.26
46.24
49.45
49.95
48.15
44.73
40.53
36.27
32.35
28.81
25.4
21.81
17.87
13.68
9.56
5.89
2.9
0.53
-1.57
-3.92
-7.05
-11.29
-16.63
-22.67
-28.61
-33.39
-35.91
-35.27
-31.1
-23.66
-13.8
-2.75
8.21
18.0
25.89
31.48
34.63
35.33
33.71
30.1
25.07
19.44
14.07
9.63
6.36
4.02
2.03
-0.21
-3.08
-6.58
-10.35
-13.91
-16.85
-19.09
-20.84
-22.59
-24.91
-28.2
-32.54
-37.55
-42.36
-45.81
-46.72
-44.27
-38.24
-29.11
-17.9
-5.88
5.74
15.99
24.22
30.05
33.3
33.93
32.14
28.39
23.36
17.83
12.52
7.92
4.27
1.55
-0.37
-1.66
-2.45
-2.93
-3.23
-3.55
-4.16
-5.38
-7.61
-11.27
-16.64
-23.7
-31.98
-40.52
-47.95
-52.81
-53.92
-50.69
-43.35
-32.88
-20.71
-8.31
3.14
12.88
20.6
26.19
29.58
30.79
29.94
27.43
23.9
20.1
16.6
13.63
11.07
8.59
5.97
3.23
0.74
-1.05
-1.76
-1.3
0.03
1.62
2.68
2.39
0.17
-4.16
-10.21
-16.93
-22.81
-26.23
-25.97
-21.63
-13.8
-3.76
6.98
17.17
26.18
33.87
40.3
45.44
49.0
50.57
49.91
47.12
42.69
37.33
31.66
26.11
20.84
15.83
11.09
6.63
2.56
-1.07
-4.29
-7.27
-10.26
-13.51
-17.24
-21.61
-26.7
-32.43
-38.45
-44.09
-48.35
-50.12
-48.55
-43.28
-34.68
-23.66
-11.42
0.95
12.61
23.02
31.77
38.44
42.62
44.0
42.58
38.83
33.63
28.07
23.1
19.19
16.27
13.82
11.21
8.06
4.43
0.71
-2.62
-5.27
-7.42
-9.54
-12.25
-16.03
-21.06
-27.22
-34.09
-40.98
-46.93
-50.81
-51.51
-48.24
-40.87
-30.08
-17.22
-4.0
8.03
17.8
24.87
29.24
31.14
30.79
28.42
24.36
19.13
13.51
8.25
3.93
0.63
-1.94
-4.32
-6.85
-9.57
-12.13
-14.1
-15.23
-15.7
-16.05
-17.01
-19.2
-22.85
-27.75
-33.24
-38.32
-41.87
-42.84
-40.53
-34.8
-26.1
-15.41
-3.95
7.06
16.69
24.27
29.38
31.81
31.53
28.8
24.2
18.53
12.63
7.21
2.65
-1.01
-3.96
-6.44
-8.59
-10.45
-11.93
-12.98
-13.63
-14.12
-14.85
-16.36
-19.19
-23.66
-29.6
-36.28
-42.44
-46.57
-47.35
-44.04
-36.69
-26.18
-13.84
-1.13
10.73
20.91
28.94
34.47
37.2
36.92
33.65
27.81
20.26
12.09
4.35
-2.29
-7.65
-11.93
-15.46
-18.54
-21.37
-24.06
-26.61
-28.9
-30.62
-31.32
-30.57
-28.23
-24.62
-20.4
-16.28
-12.64
-9.37
-5.95
-1.74
3.59
9.98
16.98
24.08
30.9
37.26
43.04
48.04
51.82
53.82
53.61
51.16
46.97
41.92
36.94
32.71
29.37
26.67
24.1
21.28
18.01
14.34
10.4
6.27
1.88
-2.98
-8.59
-15.26
-23.15
-32.21
-41.98
-51.53
-59.61
-64.83
-66.06
-62.76
-55.19
-44.29
-31.35
-17.65
-4.12
8.62
20.2
30.2
38.11
43.4
45.81
45.53
43.25
39.97
36.64
33.88
31.81
30.17
28.54
26.55
24.01
20.89
17.23
13.13
8.62
3.67
-1.87
-8.31
-15.97
-25.02
-35.08
-45.02
-53.04
-57.05
-55.45
-47.7
-34.66
-18.22
-0.7
15.88
30.28
41.98
50.88
56.96
60.09
60.1
57.02
51.28
43.76
35.68
28.25
22.35
18.23
15.54
13.45
11.09
7.87
3.64
-1.29
-6.45
-11.4
-15.9
-19.94
-23.68
-27.44
-31.6
-36.58
-42.6
-49.52
-56.53
-62.26
-64.97
-63.11
-55.81
-43.24
-26.62
-7.93
10.67
27.38
41.1
51.53
58.84
63.39
65.4
64.94
62.06
56.99
50.29
42.8
35.46
29.13
24.4
21.59
20.64
21.18
22.53
23.84
24.33
23.43
20.97
17.09
12.11
6.32
-0.13
-7.25
-15.14
-23.88
-33.43
-43.5
-53.47
-62.27
-68.52
-70.7
-67.64
-58.98
-45.38
-28.49
-10.5
6.43
20.7
31.51
38.76
42.77
44.03
43.03
40.21
36.11
31.38
26.72
22.79
20.03
18.52
17.99
17.93
17.71
16.84
15.04
12.28
8.69
4.44
-0.34
-5.52
-10.95
-16.36
-21.47
-26.21
-30.86
-35.99
-42.13
-49.31
-56.73
-62.75
-65.36
-62.94
-54.85
-41.71
-25.19
-7.44
9.53
24.26
35.93
44.21
49.09
50.67
49.23
45.27
39.56
33.06
26.75
21.31
17.0
13.57
10.49
7.18
3.32
-1.01
-5.4
-9.33
-12.39
-14.58
-16.22
-17.87
-20.11
-23.39
-27.91
-33.66
-40.32
-47.16
-53.04
-56.46
-55.9
-50.34
-39.68
-24.94
-7.97
9.13
24.55
37.31
47.19
54.51
59.66
62.85
63.99
62.87
59.46
54.02
47.17
39.69
32.31
25.52
19.57
14.49
10.17
6.51
3.37
0.63
-1.85
-4.2
-6.56
-9.02
-11.66
-14.54
-17.78
-21.61
-26.36
-32.35
-39.61
-47.63
-55.15
-60.38
-61.46
-57.11
-47.19
-32.81
-15.98
1.04
16.36
28.81
38.02
44.14
47.58
48.79
48.22
46.29
43.44
40.06
36.51
33.0
29.66
26.5
23.52
20.7
18.06
15.61
13.29
10.95
8.38
5.32
1.58
-2.93
-8.18
-14.03
-20.25
-26.62
-33.05
-39.52
-46.12
-52.78
-59.05
-63.98
-66.23
-64.51
-58.02
-46.94
-32.42
-16.32
-0.57
13.31
24.47
32.69
38.06
40.74
40.85
38.55
34.21
28.45
22.14
16.11
11.01
7.04
4.03
1.52
-0.95
-3.68
-6.66
-9.67
-12.39
-14.65
-16.49
-18.18
-20.19
-23.01
-27.0
-32.33
-38.77
-45.7
-52.03
-56.38
-57.33
-53.86
-45.64
-33.27
-18.17
-2.2
12.83
25.59
35.46
42.37
46.62
48.56
48.46
46.54
43.04
38.39
33.11
27.77
22.75
18.16
13.87
9.61
5.22
0.81
-3.3
-6.68
-9.02
-10.38
-11.15
-11.98
-13.54
-16.32
-20.57
-26.28
-33.09
-40.27
-46.68
-50.9
-51.55
-47.79
-39.65
-28.07
-14.64
-1.07
11.33
21.81
30.12
36.22
40.06
41.55
40.66
37.59
32.88
27.22
21.38
15.96
11.26
7.34
4.12
1.48
-0.65
-2.32
-3.6
-4.63
-5.62
-6.86
-8.63
-11.21
-14.88
-19.87
-26.34
-34.16
-42.83
-51.29
-58.11
-61.73
-60.94
-55.28
-45.19
-31.93
-17.25
-2.92
9.66
19.72
27.11
32.18
35.44
37.29
37.9
37.17
34.96
31.25
26.35
20.87
15.51
10.79
6.9
3.65
0.66
-2.39
-5.6
-8.8
-11.65
-13.87
-15.35
-16.28
-17.08
-18.25
-20.3
-23.56
-28.11
-33.69
-39.55
-44.5
-47.04
-45.67
-39.32
-27.77
-11.87
6.67
25.66
43.06
57.43
68.13
75.14
78.73
79.23
76.93
72.16
65.5
57.76
49.9
42.76
36.83
32.1
28.21
24.63
20.88
16.76
12.28
7.66
3.06
-1.57
-6.58
-12.54
-19.99
-29.24
-40.19
-52.26
-64.53
-75.83
-84.91
-90.52
-91.58
-87.44
-78.07
-64.18
-47.12
-28.63
-10.36
6.39
20.87
32.74
41.89
48.23
51.67
52.18
50.02
45.79
40.36
34.7
29.51
25.04
21.11
17.3
13.23
8.75
3.95
-1.02
-6.06
-11.26
-16.79
-22.76
-29.21
-36.06
-43.23
-50.6
-57.93
-64.64
-69.84
-72.35
-71.08
-65.41
-55.5
-42.22
-26.96
-11.33
3.51
16.76
28.08
37.62
45.65
52.62
59.01
65.32
72.16
80.0
88.8
97.6
104.41
106.71
102.43
91.04
73.95
53.93
33.74
14.73
-3.76
-23.64
-46.63
-72.74
-99.89
-124.54
-143.11
-152.93
-152.43
-140.5
-116.16
-79.17
-30.88
24.63
80.6
129.29
164.22
182.38
184.85
175.57
159.21
139.11
116.48
91.14
63.01
33.31
4.62
-20.02
-38.38
-49.99
-55.93
-58.13
-58.39
-57.81
-56.75
-55.29
-53.66
-52.39
-52.12
-53.25
-55.83
-59.57
-64.14
-69.41
-75.53
-82.78
-91.24
-100.54
-109.63
-116.94
-120.71
-119.38
-112.08
-98.9
-80.79
-59.39
-36.63
-14.37
5.91
23.14
36.71
46.36
52.15
54.51
54.2
52.33
50.09
48.49
48.05
48.72
49.94
50.99
51.36
50.96
50.06
49.09
48.3
47.57
46.44
44.3
40.63
35.11
27.73
18.76
8.8
-1.21
-10.01
-16.25
-18.8
-17.08
-11.26
-2.14
9.08
21.22
33.24
44.41
54.19
62.17
68.07
71.7
73.0
72.09
69.17
64.54
58.57
51.69
44.39
37.1
30.16
23.71
17.79
12.33
7.32
2.82
-1.07
-4.3
-7.01
-9.49
-12.2
-15.61
-20.15
-26.05
-33.29
-41.47
-49.74
-56.79
-61.07
-61.26
-56.69
-47.66
-35.41
-21.73
-8.46
3.01
11.9
17.99
21.46
22.67
22.09
20.29
17.89
15.52
13.66
12.55
12.09
11.92
11.62
10.83
9.49
7.75
5.92
4.24
2.67
0.92
-1.39
-4.49
-8.32
-12.53
-16.66
-20.4
-23.67
-26.7
-29.9
-33.71
-38.56
-44.67
-51.92
-59.67
-66.71
-71.45
-72.28
-68.13
-58.81
-45.13
-28.7
-11.38
5.09
19.48
31.13
39.8
45.53
48.42
48.61
46.35
42.07
36.39
30.11
24.1
19.03
15.34
13.08
11.97
11.51
11.13
10.35
8.83
6.38
3.01
-1.17
-5.94
-11.01
-16.08
-20.89
-25.32
-29.5
-33.74
-38.43
-43.73
-49.34
-54.34
-57.33
-56.81
-51.77
-42.0
-28.33
-12.39
3.88
18.71
30.95
40.19
46.59
50.65
52.84
53.5
52.79
50.8
47.62
43.45
38.57
33.29
27.92
22.73
17.96
13.79
10.33
7.63
5.56
3.87
2.21
0.15
-2.68
-6.53
-11.45
-17.23
-23.56
-30.13
-36.84
-43.81
-51.11
-58.55
-65.32
-70.05
-71.18
-67.48
-58.58
-45.19
-28.9
-11.59
5.03
19.82
32.21
41.95
48.97
53.21
54.64
53.41
49.84
44.46
37.95
31.0
24.25
18.15
12.96
8.69
5.17
2.17
-0.57
-3.23
-6.01
-9.07
-12.56
-16.44
-20.37
-23.78
-26.06
-26.92
-26.6
-25.81
-25.37
-25.62
-26.18
-25.92
-23.49
-17.84
-8.76
3.05
16.27
29.41
41.25
51.01
58.31
63.01
65.03
64.37
61.13
55.69
48.66
40.83
33.0
25.8
19.59
14.37
9.85
5.66
1.43
-3.08
-7.92
-12.94
-17.91
-22.55
-26.67
-30.24
-33.37
-36.34
-39.55
-43.4
-48.06
-53.34
-58.49
-62.35
-63.56
-61.02
-54.22
-43.43
-29.63
-14.23
1.28
15.69
28.14
38.13
45.39
49.72
50.98
49.19
44.65
37.99
30.17
22.22
15.01
9.07
4.46
0.91
-2.04
-4.87
-7.85
-11.02
-14.2
-17.13
-19.54
-21.35
-22.7
-23.92
-25.48
-27.78
-31.09
-35.3
-39.95
-44.23
-47.1
-47.5
-44.61
-38.14
-28.39
-16.19
-2.66
11.07
24.06
35.67
45.5
53.29
58.79
61.78
62.1
59.78
55.17
48.88
41.74
34.48
27.58
21.14
14.99
8.86
2.61
-3.63
-9.48
-14.48
-18.35
-21.1
-23.12
-25.05
-27.63
-31.44
-36.78
-43.43
-50.64
-57.18
-61.53
-62.21
-58.16
-49.15
-35.83
-19.66
-2.4
14.26
29.11
41.43
50.85
57.18
60.29
60.25
57.4
52.54
46.71
40.99
36.15
32.48
29.83
27.7
25.58
23.07
20.07
16.67
13.12
9.63
6.26
2.87
-0.89
-5.41
-11.02
-17.84
-25.69
-34.11
-42.31
-49.31
-54.06
-55.65
-53.52
-47.61
-38.39
-26.79
-14.02
-1.31
10.28
19.98
27.31
32.06
34.17
33.78
31.2
26.96
21.74
16.31
11.3
7.1
3.72
0.91
-1.66
-4.31
-7.15
-10.13
-13.09
-15.85
-18.42
-20.91
-23.57
-26.61
-30.2
-34.42
-39.2
-44.34
-49.37
-53.51
-55.64
-54.55
-49.28
-39.54
-25.92
-9.75
7.24
23.4
37.58
49.1
57.68
63.14
65.36
64.33
60.28
53.86
46.08
38.13
31.09
25.6
21.7
18.9
16.36
13.33
9.4
4.64
-0.51
-5.58
-10.23
-14.43
-18.38
-22.41
-26.8
-31.73
-37.2
-42.96
-48.44
-52.7
-54.55
-52.88
-46.98
-36.94
-23.68
-8.69
6.33
19.96
31.3
40.0
46.06
49.62
50.85
49.89
46.98
42.54
37.15
31.45
25.99
21.11
16.91
13.3
10.09
7.05
4.0
0.81
-2.56
-6.03
-9.44
-12.66
-15.62
-18.4
-21.22
-24.44
-28.36
-33.18
-38.81
-44.73
-49.95
-53.12
-52.8
-47.98
-38.4
-24.82
-8.79
7.69
22.75
35.08
44.01
49.52
51.95
51.85
49.8
46.43
42.34
38.09
34.17
30.89
28.34
26.42
24.91
23.54
22.09
20.39
18.29
15.62
12.23
8.09
3.33
-1.74
-6.71
-11.22
-15.12
-18.51
-21.8
-25.51
-30.21
-36.19
-43.26
-50.6
-56.83
-60.3
-59.57
-53.87
-43.36
-29.14
-12.88
3.63
18.88
31.86
42.09
49.42
53.93
55.77
55.12
52.23
47.48
41.33
34.37
27.23
20.51
14.63
9.84
6.07
3.02
0.23
-2.81
-6.41
-10.65
-15.35
-20.21
-24.96
-29.48
-33.79
-38.0
-42.27
-46.69
-51.2
-55.46
-58.8
-60.18
-58.52
-52.97
-43.31
-30.12
-14.65
1.47
16.69
29.84
40.25
47.71
52.3
54.31
54.03
51.82
48.0
42.92
36.95
30.54
24.19
18.47
13.8
10.43
8.34
7.27
6.84
6.66
6.4
5.82
4.73
2.93
0.22
-3.52
-8.34
-14.16
-20.81
-28.1
-35.75
-43.28
-49.95
-54.68
-56.37
-54.23
-48.06
-38.42
-26.43
-13.49
-0.85
10.59
20.36
28.28
34.27
38.28
40.25
40.2
38.26
34.8
30.36
25.54
20.88
16.74
13.26
10.45
8.17
6.3
4.7
3.23
1.69
-0.1
-2.33
-5.1
-8.5
-12.56
-17.38
-23.07
-29.74
-37.29
-45.26
-52.71
-58.24
-60.34
-57.75
-49.97
-37.5
-21.74
-4.61
12.05
26.84
39.03
48.34
54.73
58.19
58.81
56.83
52.78
47.44
41.6
35.87
30.59
25.75
21.2
16.73
12.18
7.44
2.56
-2.37
-7.06
-11.22
-14.61
-17.18
-19.06
-20.6
-22.25
-24.45
-27.58
-31.78
-36.91
-42.39
-47.21
-50.08
-49.77
-45.53
-37.37
-26.07
-12.95
0.55
13.21
24.22
33.14
39.7
43.72
45.05
43.65
39.73
33.79
26.61
19.09
12.08
6.22
1.82
-1.14
-2.93
-3.93
-4.45
-4.71
-4.86
-5.04
-5.41
-6.17
-7.48
-9.41
-12.0
-15.31
-19.48
-24.72
-31.02
-38.0
-44.73
-49.89
-52.11
-50.46
-44.73
-35.58
-24.31
-12.44
-1.3
8.19
15.69
21.17
24.75
26.59
26.78
25.44
22.88
19.53
15.94
12.57
9.64
7.08
4.63
1.95
-1.06
-4.27
-7.3
-9.76
-11.48
-12.62
-13.66
-15.22
-17.81
-21.75
-27.03
-33.37
-40.22
-46.7
-51.63
-53.7
-51.73
-45.13
-34.14
-19.87
-3.99
11.79
26.13
38.2
47.59
54.12
57.65
58.12
55.68
50.81
44.36
37.3
30.55
24.64
19.63
15.22
10.93
6.41
1.6
-3.28
-7.85
-11.81
-15.1
-17.93
-20.63
-23.51
-26.76
-30.39
-34.25
-38.07
-41.36
-43.41
-43.39
-40.58
-34.63
-25.81
-14.96
-3.24
8.18
18.47
27.19
34.2
39.42
42.72
43.87
42.74
39.48
34.55
28.71
22.76
17.37
12.88
9.34
6.56
4.26
2.24
0.39
-1.25
-2.56
-3.42
-3.82
-3.93
-4.13
-4.97
-7.03
-10.75
-16.22
-23.06
-30.3
-36.55
-40.3
-40.31
-36.05
-27.82
-16.65
-4.0
8.72
20.39
30.31
38.05
43.39
46.2
46.47
44.4
40.45
35.28
29.65
24.2
19.34
15.15
11.46
7.97
4.44
0.81
-2.81
-6.24
-9.36
-12.21
-14.93
-17.72
-20.8
-24.37
-28.66
-33.87
-40.1
-47.11
-54.19
-60.14
-63.45
-62.75
-57.22
-46.89
-32.67
-16.1
1.08
17.31
31.45
42.77
50.84
55.37
56.26
53.68
48.14
40.57
32.15
24.02
17.01
11.46
7.21
3.79
0.71
-2.33
-5.33
-8.07
-10.36
-12.14
-13.72
-15.54
-18.1
-21.69
-26.3
-31.53
-36.65
-40.69
-42.57
-41.35
-36.47
-27.98
-16.59
-3.51
9.91
22.45
33.29
41.94
48.16
51.72
52.46
50.35
45.64
38.94
31.15
23.25
16.07
10.08
5.41
1.85
-0.95
-3.3
-5.32
-6.99
-8.19
-8.83
-9.03
-9.07
-9.46
-10.75
-13.45
-17.87
-23.97
-31.2
-38.53
-44.54
-47.73
-46.94
-41.66
-32.2
-19.64
-5.47
8.76
21.78
32.68
41.0
46.49
49.12
48.98
46.35
41.79
36.14
30.38
25.42
21.83
19.64
18.43
17.5
16.24
14.35
11.95
9.34
6.83
4.44
1.88
-1.35
-5.74
-11.57
-18.87
-27.44
-36.9
-46.6
-55.63
-62.76
-66.67
-66.25
-61.01
-51.26
-38.06
-22.92
-7.39
7.32
20.43
31.55
40.51
47.22
51.64
53.84
54.01
52.51
49.77
46.23
42.29
38.25
34.23
30.25
26.22
22.02
17.58
12.89
8.06
3.21
-1.55
-6.19
-10.77
-15.46
-20.5
-26.21
-32.88
-40.66
-49.4
-58.48
-66.82
-73.01
-75.6
-73.48
-66.31
-54.56
-39.52
-22.96
-6.61
8.16
20.59
30.47
37.89
42.88
45.44
45.75
44.37
42.24
40.34
39.1
38.15
36.48
33.01
27.09
18.72
8.4
-3.11
-14.9
-25.79
-34.38
-39.35
-40.05
-37.03
-32.11
-27.74
-25.93
-27.46
-31.55
-36.36
-39.94
-40.67
-37.76
-31.07
-20.97
-8.25
5.95
20.29
33.5
44.61
53.05
58.71
61.75
62.48
61.18
58.14
53.64
48.04
41.79
35.39
29.32
23.94
19.4
15.63
12.34
9.14
5.69
1.83
-2.32
-6.44
-10.18
-13.41
-16.23
-19.0
-22.21
-26.32
-31.54
-37.7
-44.19
-49.95
-53.66
-54.06
-50.26
-42.1
-30.23
-15.96
-0.95
13.23
25.32
34.52
40.45
43.09
42.68
39.76
35.07
29.44
23.68
18.43
14.04
10.68
8.32
6.93
6.46
6.78
7.62
8.6
9.25
9.17
8.15
6.28
3.81
1.02
-1.86
-4.82
-8.03
-11.78
-16.43
-22.21
-29.12
-36.68
-43.94
-49.61
-52.34
-51.11
-45.52
-35.99
-23.55
-9.68
4.12
16.61
26.96
34.85
40.33
43.71
45.41
45.81
45.18
43.71
41.55
38.87
35.87
32.75
29.66
26.62
23.62
20.53
17.27
13.73
9.88
5.7
1.22
-3.57
-8.68
-14.08
-19.75
-25.61
-31.54
-37.41
-43.09
-48.47
-53.32
-57.27
-59.74
-60.01
-57.31
-51.11
-41.31
-28.45
-13.62
1.7
16.1
28.48
38.31
45.58
50.53
53.52
54.76
54.43
52.64
49.65
45.83
41.6
37.38
33.44
29.95
26.96
24.46
22.33
20.29
17.93
14.77
10.44
4.84
-1.74
-8.74
-15.55
-21.73
-27.19
-32.2
-37.24
-42.76
-49.0
-55.79
-62.47
-67.88
-70.54
-68.97
-62.19
-50.11
-33.83
-15.34
3.0
19.09
31.65
40.31
45.39
47.49
47.19
44.9
40.97
35.84
30.09
24.4
19.33
15.22
12.08
9.72
7.83
6.12
4.39
2.51
0.33
-2.28
-5.44
-9.2
-13.43
-17.85
-22.17
-26.15
-29.82
-33.5
-37.76
-43.14
-49.85
-57.51
-65.03
-70.82
-73.24
-71.11
-64.19
-53.17
-39.5
-24.9
-10.88
1.51
11.71
19.49
24.87
27.99
29.13
28.71
27.22
25.12
22.77
20.37
18.06
15.95
14.16
12.76
11.74
10.93
10.04
8.8
7.0
4.57
1.51
-2.16
-6.42
-11.3
-16.79
-22.86
-29.45
-36.4
-43.39
-49.85
-54.86
-57.27
-56.01
-50.44
-40.65
-27.5
-12.45
2.87
17.05
29.12
38.59
45.34
49.51
51.43
51.6
50.62
49.08
47.42
45.8
44.16
42.2
39.64
36.28
32.09
27.24
22.04
16.82
11.92
7.56
3.89
0.9
-1.56
-3.84
-6.38
-9.72
-14.25
-20.0
-26.54
-32.89
-37.74
-39.74
-37.91
-32.0
-22.59
-10.94
1.35
12.79
22.32
29.45
34.14
36.6
37.03
35.6
32.47
27.99
22.65
17.03
11.62
6.63
2.04
-2.25
-6.18
-9.45
-11.57
-12.09
-10.88
-8.24
-4.92
-1.84
0.12
0.37
-1.3
-4.83
-9.94
-16.2
-22.97
-29.35
-34.22
-36.47
-35.28
-30.45
-22.49
-12.48
-1.68
8.75
18.02
25.65
31.37
34.93
36.11
34.79
31.19
25.99
20.26
15.19
11.73
10.23
10.4
11.42
12.34
12.35
11.03
8.33
4.46
-0.29
-5.68
-11.48
-17.53
-23.68
-29.83
-35.92
-41.86
-47.36
-51.87
-54.62
-54.78
-51.79
-45.59
-36.64
-25.87
-14.4
-3.25
6.78
15.2
21.76
26.36
28.99
29.81
29.07
27.21
24.71
21.95
19.2
16.53
13.92
11.3
8.69
6.13
3.7
1.43
-0.77
-3.05
-5.61
-8.65
-12.37
-17.0
-22.79
-29.93
-38.34
-47.56
-56.55
-63.83
-67.84
-67.3
-61.59
-50.94
-36.27
-19.04
-0.87
16.67
32.25
44.86
53.91
59.23
61.01
59.74
56.08
50.7
44.27
37.43
30.69
24.37
18.52
13.01
7.67
2.52
-2.14
-5.88
-8.31
-9.41
-9.62
-9.76
-10.72
-13.16
-17.34
-23.01
-29.45
-35.64
-40.28
-42.14
-40.22
-34.07
-23.95
-10.8
3.98
18.81
32.3
43.4
51.47
56.24
57.7
56.04
51.67
45.18
37.42
29.34
21.91
15.8
11.32
8.32
6.35
4.89
3.59
2.31
1.15
0.17
-0.69
-1.73
-3.37
-5.99
-9.78
-14.73
-20.61
-27.0
-33.3
-38.74
-42.45
-43.64
-41.82
-37.0
-29.74
-20.9
-11.42
-2.04
6.73
14.57
21.11
25.92
28.58
28.79
26.6
22.42
16.87
10.66
4.41
-1.39
-6.44
-10.53
-13.58
-15.59
-16.58
-16.5
-15.26
-12.74
-8.96
-4.28
0.51
4.24
5.63
3.7
-1.8
-10.21
-19.98
-29.02
-35.3
-37.32
-34.55
-27.45
-17.25
-5.47
6.52
17.71
27.53
35.64
41.75
45.65
47.23
46.77
44.93
42.7
40.97
40.25
40.41
40.73
40.29
38.34
34.7
29.74
24.19
18.79
13.94
9.62
5.51
1.21
-3.58
-9.0
-15.07
-21.77
-28.98
-36.3
-42.88
-47.51
-48.87
-46.02
-38.85
-28.23
-15.7
-2.97
8.59
18.29
25.95
31.71
35.7
37.92
38.3
36.81
33.64
29.14
23.85
18.29
12.93
8.02
3.58
-0.61
-4.83
-9.27
-13.9
-18.46
-22.6
-26.1
-28.97
-31.52
-34.2
-37.44
-41.52
-46.44
-51.9
-57.29
-61.7
-64.09
-63.51
-59.36
-51.62
-40.84
-27.98
-14.17
-0.48
12.16
23.0
31.42
36.95
39.37
38.77
35.66
30.88
25.41
20.21
15.96
12.97
11.22
10.51
10.55
11.19
12.35
13.98
15.9
17.69
18.66
17.97
14.86
8.87
0.08
-10.76
-22.33
-32.95
-40.93
-44.97
-44.41
-39.39
-30.75
-19.79
-7.98
3.34
13.19
20.92
26.25
29.12
29.64
28.1
25.01
21.07
17.06
13.58
10.92
8.9
7.01
4.6
1.16
-3.49
-9.15
-15.33
-21.44
-27.02
-31.87
-36.14
-40.23
-44.65
-49.84
-55.94
-62.61
-69.03
-73.93
-75.84
-73.38
-65.7
-52.75
-35.45
-15.52
4.9
23.82
39.76
52.0
60.48
65.64
68.14
68.73
68.11
66.86
65.34
63.72
61.96
59.93
57.42
54.27
50.33
45.53
39.94
33.76
27.39
21.34
16.05
11.79
8.49
5.84
3.36
0.55
-3.0
-7.59
-13.35
-20.15
-27.49
-34.37
-39.37
-41.03
-38.26
-30.75
-19.12
-4.76
10.54
25.07
37.52
47.06
53.38
56.54
56.87
54.9
51.22
46.39
40.88
35.04
29.11
23.31
17.77
12.57
7.67
3.03
-1.36
-5.39
-8.86
-11.59
-13.6
-15.09
-16.4
-17.83
-19.51
-21.43
-23.51
-25.77
-28.42
-31.84
-36.37
-42.04
-48.36
-54.24
-58.24
-58.97
-55.56
-48.01
-37.19
-24.64
-12.12
-1.19
7.05
12.06
13.82
12.8
9.92
6.44
3.76
3.0
4.74
8.77
14.26
20.09
25.28
29.29
32.0
33.54
33.98
33.28
31.21
27.6
22.53
16.35
9.56
2.65
-3.99
-10.16
-15.72
-20.67
-25.11
-29.27
-33.47
-37.84
-42.04
-45.22
-46.15
-43.69
-37.32
-27.45
-15.38
-2.93
8.12
16.59
22.06
24.83
25.57
25.01
23.64
21.65
19.16
16.38
13.83
12.2
12.16
13.96
17.22
21.02
24.19
25.74
25.18
22.56
18.34
13.11
7.42
1.65
-3.98
-9.35
-14.44
-19.28
-24.0
-28.76
-33.66
-38.58
-43.03
-46.17
-47.02
-44.75
-39.04
-30.23
-19.27
-7.39
4.24
14.76
23.68
30.72
35.65
38.26
38.43
36.28
32.34
27.49
22.71
18.79
16.09
14.44
13.36
12.25
10.75
8.74
6.36
3.86
1.42
-0.91
-3.19
-5.59
-8.4
-11.98
-16.71
-22.79
-30.05
-37.8
-44.82
-49.63
-50.91
-47.9
-40.67
-30.12
-17.65
-4.8
7.19
17.51
25.8
31.97
36.01
37.95
37.8
35.69
31.96
27.14
21.83
16.61
11.83
7.61
3.89
0.54
-2.53
-5.34
-7.87
-10.11
-12.14
-14.16
-16.37
-19.04
-22.44
-26.84
-32.47
-39.44
-47.49
-55.82
-63.07
-67.47
-67.34
-61.61
-50.18
-34.06
-15.0
4.89
23.68
39.88
52.48
60.93
65.05
65.06
61.61
55.69
48.45
40.92
33.75
27.17
21.07
15.22
9.5
4.02
-0.94
-5.04
-8.08
-10.17
-11.69
-13.25
-15.46
-18.81
-23.44
-29.14
-35.27
-40.9
-44.88
-46.11
-43.73
-37.41
-27.44
-14.78
-0.77
13.12
25.6
35.73
42.92
46.97
47.87
45.89
41.49
35.39
28.43
21.49
15.26
10.11
5.99
2.55
-0.64
-3.86
-7.07
-10.04
-12.45
-14.2
-15.49
-16.85
-18.94
-22.31
-27.19
-33.33
-39.97
-45.94
-49.9
-50.66
-47.49
-40.35
-29.88
-17.19
-3.56
9.78
21.85
31.86
39.23
43.52
44.58
42.53
37.9
31.47
24.12
16.62
9.5
2.95
-3.02
-8.46
-13.31
-17.35
-20.26
-21.75
-21.76
-20.58
-18.89
-17.54
-17.42
-19.13
-22.74
-27.69
-32.88
-36.93
-38.57
-37.0
-32.11
-24.46
-15.01
-4.78
5.4
14.92
23.34
30.21
35.04
37.4
37.11
34.37
29.84
24.39
18.89
13.9
9.65
6.03
2.8
-0.23
-3.12
-5.83
-8.28
-10.45
-12.45
-14.53
-17.05
-20.43
-25.0
-30.86
-37.65
-44.55
-50.3
-53.61
-53.44
-49.38
-41.71
-31.29
-19.3
-6.93
4.73
14.88
22.92
28.48
31.51
32.24
31.18
29.04
26.5
24.11
22.18
20.72
19.52
18.21
16.4
13.85
10.68
7.34
4.5
2.69
2.05
2.17
2.27
1.62
-0.13
-2.74
-5.57
-8.05
-10.01
-11.86
-14.26
-17.57
-21.47
-24.87
-26.29
-24.42
-18.73
-9.63
1.67
13.75
25.49
36.34
46.23
55.24
63.23
69.69
73.91
75.34
73.88
70.05
64.7
58.73
52.7
46.77
40.82
34.73
28.54
22.48
16.85
11.83
7.36
3.13
-1.22
-5.95
-10.99
-16.04
-20.62
-24.39
-27.35
-29.89
-32.64
-36.18
-40.71
-45.81
-50.47
-53.37
-53.3
-49.52
-42.04
-31.5
-19.08
-6.05
6.44
17.54
26.77
33.94
38.96
41.76
42.28
40.52
36.64
31.15
24.85
18.78
13.9
10.82
9.62
9.87
10.85
11.87
12.52
12.69
12.41
11.63
10.08
7.36
3.11
-2.77
-10.1
-18.49
-27.58
-37.07
-46.58
-55.39
-62.34
-65.9
-64.66
-57.94
-46.3
-31.51
-16.04
-2.24
8.36
15.33
19.17
20.76
21.05
20.74
20.41
20.57
21.52
23.15
24.76
25.14
23.08
18.07
10.78
3.01
-2.93
-5.15
-2.99
2.74
10.04
16.51
20.09
19.72
15.46
8.3
-0.28
-8.83
-16.31
-22.27
-26.77
-30.17
-32.93
-35.47
-38.15
-41.27
-44.95
-49.01
-52.75
-54.99
-54.33
-49.63
-40.5
-27.51
-12.05
4.16
19.51
32.88
43.72
51.93
57.65
61.04
62.31
61.68
59.52
56.29
52.54
48.77
45.3
42.22
39.48
36.94
34.48
32.13
30.07
28.54
27.74
27.7
28.26
29.04
29.6
29.53
28.57
26.64
23.79
20.11
15.63
10.32
4.08
-3.21
-11.65
-21.21
-31.67
-42.45
-52.64
-60.99
-66.24
-67.41
-64.18
-56.92
-46.65
-34.67
-22.25
-10.41
0.17
9.05
15.94
20.71
23.36
24.13
23.44
21.84
19.91
18.13
16.82
16.07
15.84
15.92
16.0
15.75
14.93
13.46
11.52
9.43
7.51
5.96
4.65
3.24
1.27
-1.62
-5.49
-10.1
-15.0
-19.78
-24.15
-28.07
-31.7
-35.21
-38.79
-42.53
-46.45
-50.49
-54.37
-57.49
-58.94
-57.63
-52.66
-43.7
-31.24
-16.53
-1.27
12.94
24.94
34.26
40.98
45.49
48.18
49.26
48.86
47.03
43.94
39.85
35.09
29.93
24.57
19.15
13.83
8.82
4.43
0.89
-1.69
-3.45
-4.72
-5.93
-7.49
-9.62
-12.29
-15.23
-18.05
-20.51
-22.62
-24.79
-27.65
-31.81
-37.56
-44.6
-52.06
-58.58
-62.63
-62.9
-58.59
-49.75
-37.22
-22.54
-7.47
6.38
17.91
26.6
32.39
35.47
36.16
34.83
31.94
28.07
23.91
20.1
17.14
15.26
14.37
14.1
13.89
13.17
11.45
8.56
4.62
0.02
-4.8
-9.48
-13.86
-18.05
-22.31
-26.98
-32.32
-38.38
-44.89
-51.21
-56.38
-59.3
-59.1
-55.32
-48.14
-38.32
-27.02
-15.41
-4.39
5.54
14.3
22.0
28.71
34.31
38.51
41.0
41.67
40.67
38.4
35.33
31.77
27.83
23.4
18.35
12.66
6.54
0.31
-5.72
-11.35
-16.6
-21.63
-26.69
-31.99
-37.68
-43.87
-50.57
-57.57
-64.29
-69.78
-72.72
-71.84
-66.33
-56.18
-42.25
-26.06
-9.28
6.63
20.7
32.48
41.76
48.41
52.34
53.52
52.14
48.74
44.12
39.25
34.94
31.62
29.27
27.43
25.48
22.88
19.46
15.42
11.23
7.37
4.14
1.48
-0.96
-3.66
-7.13
-11.69
-17.44
-24.1
-31.04
-37.24
-41.43
-42.39
-39.26
-31.87
-20.91
-7.7
6.1
18.98
29.91
38.44
44.53
48.33
49.95
49.44
46.82
42.35
36.52
30.12
24.0
18.88
15.13
12.76
11.46
10.79
10.36
9.91
9.31
8.46
7.19
5.27
2.46
-1.38
-6.24
-12.01
-18.6
-25.9
-33.73
-41.61
-48.64
-53.55
-55.06
-52.22
-44.86
-33.61
-19.77
-4.93
9.45
22.22
32.68
40.44
45.38
47.59
47.35
45.11
41.5
37.16
32.69
28.55
25.0
22.1
19.72
17.62
15.53
13.28
10.83
8.31
5.87
3.61
1.43
-0.96
-3.97
-7.99
-13.29
-19.86
-27.42
-35.3
-42.46
-47.59
-49.41
-47.05
-40.34
-29.98
-17.28
-3.74
9.31
20.97
30.65
37.96
42.55
44.2
42.94
39.2
33.82
27.77
21.9
16.63
12.01
7.75
3.57
-0.66
-4.81
-8.61
-11.82
-14.35
-16.34
-18.12
-20.09
-22.66
-26.1
-30.51
-35.71
-41.23
-46.27
-49.76
-50.64
-48.11
-41.92
-32.47
-20.73
-7.9
4.85
16.62
26.74
34.8
40.44
43.36
43.44
40.81
36.04
30.0
23.72
18.03
13.31
9.4
5.77
1.87
-2.59
-7.43
-12.07
-15.81
-18.13
-18.97
-18.75
-18.24
-18.33
-19.74
-22.8
-27.28
-32.44
-37.2
-40.33
-40.77
-37.84
-31.43
-21.91
-10.1
2.92
15.97
27.88
37.59
44.19
47.06
45.95
41.21
33.78
25.08
16.65
9.79
5.12
2.54
1.44
0.99
0.6
0.06
-0.46
-0.74
-0.68
-0.5
-0.67
-1.78
-4.3
-8.46
-14.16
-20.92
-27.91
-34.05
-38.09
-38.88
-35.7
-28.52
-18.1
-5.84
6.63
17.94
27.31
34.55
39.85
43.49
45.62
46.25
45.45
43.44
40.64
37.53
34.42
31.3
27.9
23.83
18.86
13.11
7.02
1.12
-4.17
-8.82
-13.13
-17.58
-22.63
-28.56
-35.45
-43.28
-51.8
-60.45
-68.24
-73.71
-75.31
-71.9
-63.24
-50.21
-34.57
-18.38
-3.43
9.16
18.91
25.81
30.05
31.89
31.64
29.82
27.19
24.76
23.48
24.0
26.42
30.12
33.95
36.54
36.79
34.24
29.15
22.43
15.19
8.32
2.21
-3.33
-8.85
-14.98
-22.17
-30.35
-38.98
-46.94
-52.82
-55.2
-53.06
-46.11
-34.94
-20.9
-5.74
8.81
21.47
31.49
38.56
42.68
43.93
42.47
38.66
33.11
26.69
20.34
14.82
10.52
7.41
5.12
3.19
1.31
-0.6
-2.38
-3.82
-4.82
-5.48
-6.06
-6.93
-8.41
-10.73
-14.07
-18.53
-24.1
-30.53
-37.13
-42.77
-46.1
-45.92
-41.62
-33.45
-22.5
-10.24
1.83
12.69
21.79
29.04
34.54
38.41
40.75
41.66
41.3
40.03
38.26
36.49
35.13
34.46
34.51
35.07
35.76
36.08
35.62
34.07
31.37
27.58
22.83
17.21
10.74
3.4
-4.82
-13.81
-23.4
-33.3
-43.14
-52.38
-60.2
-65.58
-67.45
-65.08
-58.37
-48.04
-35.38
-21.94
-9.01
2.65
12.73
21.18
28.01
33.13
36.43
37.95
37.9
36.65
34.66
32.28
29.73
27.04
24.16
20.95
17.35
13.38
9.16
4.81
0.45
-3.89
-8.29
-12.87
-17.76
-23.05
-28.84
-35.28
-42.57
-50.75
-59.52
-67.97
-74.61
-77.67
-75.63
-67.8
-54.6
-37.47
-18.44
0.45
17.57
31.87
42.82
50.26
54.17
54.79
52.55
48.15
42.48
36.41
30.65
25.54
21.11
17.04
12.92
8.45
3.61
-1.3
-5.78
-9.43
-12.18
-14.31
-16.35
-18.81
-22.06
-26.16
-30.9
-35.86
-40.39
-43.68
-44.9
-43.35
-38.73
-31.24
-21.54
-10.51
1.01
12.36
23.03
32.55
40.35
45.83
48.45
48.0
44.72
39.34
32.9
26.48
20.94
16.69
13.66
11.43
9.48
7.39
4.99
2.33
-0.43
-3.08
-5.52
-7.75
-9.82
-11.94
-14.44
-17.69
-21.87
-26.85
-31.91
-35.98
-37.86
-36.59
-31.87
-24.05
-14.01
-2.82
8.51
19.19
28.63
36.32
41.76
44.57
44.58
41.96
37.21
31.06
24.33
17.74
11.84
6.98
3.28
0.7
-0.96
-2.03
-2.83
-3.73
-5.03
-6.92
-9.57
-13.04
-17.35
-22.48
-28.28
-34.4
-40.2
-44.8
-47.18
-46.55
-42.55
-35.45
-26.08
-15.61
-5.2
4.16
11.71
17.0
19.76
20.08
18.41
15.63
12.76
10.76
10.17
10.97
12.73
14.75
16.42
17.3
17.18
16.04
13.99
11.17
7.73
3.83
-0.41
-4.9
-9.53
-14.2
-18.7
-22.75
-25.92
-27.75
-27.82
-25.89
-21.95
-16.19
-8.9
-0.49
8.6
17.81
26.43
33.7
38.94
41.75
42.07
40.22
36.68
31.91
26.25
19.86
12.88
5.53
-1.82
-8.68
-14.6
-19.29
-22.82
-25.59
-28.3
-31.73
-36.55
-43.03
-50.89
-59.19
-66.44
-70.86
-70.84
-65.32
-54.16
-38.18
-18.96
1.49
21.17
38.42
52.04
61.37
66.27
67.02
64.29
58.96
52.0
44.32
36.66
29.56
23.27
17.85
13.2
9.15
5.57
2.36
-0.6
-3.54
-6.85
-11.0
-16.39
-23.05
-30.43
-37.42
-42.55
-44.42
-42.1
-35.45
-25.16
-12.49
1.04
14.02
25.39
34.41
40.71
44.19
44.95
43.34
39.86
35.11
29.67
24.0
18.42
13.12
8.21
3.74
-0.28
-3.87
-7.12
-10.13
-13.06
-16.22
-19.96
-24.71
-30.65
-37.52
-44.4
-49.82
-52.16
-50.15
-43.35
-32.33
-18.42
-3.35
11.28
24.18
34.54
41.9
46.11
47.24
45.68
42.03
37.08
31.66
26.42
21.75
17.76
14.28
11.05
7.8
4.44
1.06
-2.09
-4.78
-6.95
-8.84
-11.0
-14.11
-18.72
-25.0
-32.48
-40.11
-46.35
-49.6
-48.63
-42.97
-33.05
-20.06
-5.65
8.62
21.56
32.49
41.13
47.39
51.2
52.44
51.09
47.36
41.79
35.2
28.45
22.23
16.88
12.37
8.45
4.85
1.36
-2.01
-5.12
-7.77
-9.77
-11.05
-11.67
-11.86
-12.01
-12.58
-14.1
-17.08
-21.88
-28.56
-36.8
-45.77
-54.2
-60.57
-63.48
-62.08
-56.27
-46.7
-34.56
-21.18
-7.69
5.07
16.62
26.56
34.58
40.43
43.99
45.38
44.95
43.13
40.32
36.82
32.79
28.4
23.84
19.33
15.06
11.1
7.46
4.07
0.91
-1.95
-4.37
-6.14
-7.14
-7.38
-7.09
-6.7
-6.83
-8.1
-10.98
-15.56
-21.45
-27.65
-32.8
-35.45
-34.46
-29.28
-20.16
-8.06
5.54
19.06
31.12
40.83
47.8
52.07
53.89
53.56
51.43
47.79
42.98
37.3
31.14
24.86
18.82
13.4
8.89
5.5
3.26
1.99
1.3
0.67
-0.43
-2.36
-5.28
-9.08
-13.4
-17.76
-21.66
-24.77
-27.09
-28.98
-31.18
-34.44
-39.24
-45.36
-51.81
-56.93
-58.92
-56.37
-48.72
-36.47
-20.91
-3.8
13.19
28.71
41.91
52.35
59.86
64.4
66.06
65.04
61.7
56.54
50.19
43.25
36.21
29.37
22.89
16.87
11.47
6.95
3.54
1.34
0.11
-0.71
-1.86
-4.04
-7.59
-12.47
-18.23
-24.31
-30.32
-36.22
-42.36
-49.14
-56.7
-64.51
-71.37
-75.63
-75.75
-70.89
-61.22
-47.84
-32.44
-16.68
-1.8
11.53
23.08
32.8
40.53
45.98
48.83
48.89
46.26
41.38
34.93
27.72
20.64
14.47
9.83
7.0
5.85
5.79
5.99
5.64
4.21
1.61
-1.86
-5.74
-9.65
-13.39
-17.07
-20.93
-25.35
-30.64
-36.91
-43.88
-50.69
-55.99
-58.15
-55.78
-48.21
-35.81
-19.9
-2.45
14.51
29.37
41.17
49.57
54.63
56.58
55.73
52.47
47.36
41.13
34.63
28.57
23.38
19.06
15.33
11.79
8.13
4.25
0.28
-3.52
-6.88
-9.65
-11.87
-13.8
-15.83
-18.38
-21.78
-26.18
-31.53
-37.54
-43.59
-48.77
-51.94
-51.92
-47.86
-39.55
-27.61
-13.34
1.63
15.82
28.19
38.21
45.7
50.61
52.86
52.43
49.43
44.26
37.67
30.58
23.88
18.16
13.59
9.96
6.85
3.89
0.91
-2.0
-4.61
-6.73
-8.38
-9.77
-11.22
-13.03
-15.39
-18.4
-22.04
-26.23
-30.72
-34.97
-38.15
-39.25
-37.4
-32.17
-23.78
-13.03
-1.16
10.56
21.08
29.63
35.83
39.49
40.67
39.53
36.4
31.8
26.38
20.9
16.02
12.12
9.21
6.97
4.87
2.49
-0.26
-3.12
-5.69
-7.62
-8.89
-9.85
-11.11
-13.34
-17.0
-22.21
-28.67
-35.55
-41.71
-45.81
-46.73
-43.84
-37.2
-27.52
-15.95
-3.71
8.15
18.85
27.89
34.91
39.62
41.83
41.52
38.93
34.61
29.3
23.8
18.71
14.37
10.76
7.64
4.76
1.99
-0.6
-2.85
-4.65
-6.04
-7.28
-8.79
-10.96
-14.09
-18.31
-23.52
-29.38
-35.24
-40.2
-43.28
-43.61
-40.69
-34.55
-25.8
-15.41
-4.49
5.91
14.95
21.98
26.55
28.39
27.48
24.13
19.03
13.12
7.31
2.28
-1.75
-4.88
-7.45
-9.71
-11.77
-13.56
-14.93
-15.91
-16.72
-17.7
-19.24
-21.62
-24.93
-29.07
-33.69
-38.22
-41.83
-43.58
-42.59
-38.37
-31.02
-21.32
-10.45
0.3
9.89
17.74
23.69
27.75
29.97
30.31
28.81
25.72
21.66
17.42
13.81
11.28
9.81
9.01
8.33
7.3
5.72
3.65
1.23
-1.42
-4.37
-7.87
-12.28
-17.95
-24.95
-32.9
-40.88
-47.56
-51.49
-51.52
-47.24
-39.08
-28.22
-16.19
-4.39
6.26
15.4
23.09
29.44
34.39
37.66
38.88
37.93
35.11
31.12
26.8
22.84
19.49
16.56
13.69
10.59
7.28
4.1
1.49
-0.26
-1.17
-1.63
-2.23
-3.56
-6.16
-10.33
-16.24
-23.75
-32.37
-41.12
-48.56
-53.08
-53.36
-48.77
-39.64
-27.14
-12.85
1.71
15.44
27.74
38.3
46.9
53.26
57.08
58.21
56.86
53.64
49.48
45.32
41.82
39.2
37.18
35.18
32.62
29.18
24.92
20.3
15.89
12.07
8.89
5.97
2.8
-1.06
-5.73
-10.98
-16.33
-21.32
-25.77
-29.77
-33.65
-37.82
-42.56
-47.96
-53.84
-59.61
-64.26
-66.46
-64.9
-58.74
-47.99
-33.65
-17.5
-1.53
12.75
24.55
33.87
41.08
46.46
50.09
51.78
51.26
48.64
44.58
40.2
36.68
34.73
34.31
34.84
35.35
34.85
32.85
29.6
25.88
22.6
20.35
19.18
18.91
18.82
17.84
14.96
9.68
2.41
-5.61
-12.68
-17.15
-17.6
-13.77
-6.58
2.29
11.28
19.65
27.81
37.19
46.61
55.03
61.24
63.48
59.25
46.53
25.7
0.38
-23.91
-41.86
-50.66
-51.37
-47.89
-44.84
-45.59
-51.45
-61.52
-73.15
-82.73
-85.54
-77.91
-58.55
-29.49
4.23
35.89
59.25
68.6
63.32
47.45
26.6
5.56
-12.78
-27.15
-37.14
-42.53
-43.88
-41.18
-35.32
-28.26
-22.28
-19.18
-19.51
-22.51
-26.42
-29.22
-29.06
-25.04
-17.67
-8.39
0.99
9.06
15.17
19.58
23.19
26.45
29.44
31.69
32.45
31.01
27.16
21.38
14.64
8.11
2.8
-0.89
-3.2
-4.86
-6.55
-8.62
-10.93
-13.08
-14.58
-15.1
-14.62
-13.41
-11.9
-10.61
-9.89
-9.92
-10.68
-12.02
-13.74
-15.69
-17.84
-20.35
-23.42
-27.17
-31.39
-35.49
-38.58
-39.61
-37.69
-32.33
-23.65
-12.4
0.31
13.2
25.18
35.52
43.86
50.11
54.27
56.34
56.35
54.44
50.96
46.49
41.73
37.36
33.84
31.31
29.54
28.12
26.51
24.28
21.19
17.19
12.42
7.14
1.66
-3.68
-8.52
-12.55
-15.56
-17.6
-19.01
-20.44
-22.67
-26.3
-31.44
-37.45
-43.04
-46.55
-46.52
-42.16
-33.64
-21.99
-8.68
4.86
17.62
29.03
38.86
46.88
52.76
56.14
56.8
54.83
50.68
45.05
38.68
32.17
25.88
20.03
14.66
9.86
5.7
2.27
-0.44
-2.5
-4.14
-5.63
-7.26
-9.27
-11.82
-15.04
-18.98
-23.6
-28.73
-33.92
-38.48
-41.55
-42.34
-40.36
-35.61
-28.6
-20.22
-11.48
-3.2
4.11
10.34
15.53
19.73
22.81
24.5
24.56
23.07
20.5
17.56
14.93
12.98
11.64
10.51
9.07
7.04
4.36
1.29
-1.88
-4.87
-7.62
-10.25
-13.04
-16.36
-20.6
-25.99
-32.42
-39.3
-45.55
-49.84
-50.92
-48.1
-41.39
-31.58
-19.9
-7.7
3.88
14.07
22.42
28.68
32.72
34.54
34.32
32.54
29.86
26.95
24.25
21.82
19.39
16.47
12.73
8.19
3.24
-1.5
-5.49
-8.47
-10.59
-12.3
-14.15
-16.65
-20.16
-24.79
-30.28
-36.06
-41.18
-44.58
-45.27
-42.69
-36.84
-28.32
-18.15
-7.42
2.91
12.18
20.05
26.35
30.97
33.76
34.59
33.39
30.32
25.81
20.5
15.07
10.09
5.88
2.54
0.02
-1.73
-2.77
-3.2
-3.22
-3.22
-3.74
-5.3
-8.33
-12.98
-19.07
-26.04
-32.93
-38.55
-41.62
-41.17
-36.8
-28.86
-18.34
-6.66
4.85
15.1
23.49
29.74
33.77
35.58
35.25
33.06
29.53
25.4
21.43
18.14
15.63
13.57
11.43
8.72
5.27
1.3
-2.67
-6.06
-8.48
-9.92
-10.72
-11.46
-12.76
-15.12
-18.77
-23.53
-28.83
-33.66
-36.84
-37.32
-34.45
-28.3
-19.55
-9.27
1.43
11.73
21.14
29.44
36.46
41.98
45.72
47.5
47.31
45.45
42.38
38.7
34.94
31.46
28.33
25.41
22.39
18.94
14.94
10.47
5.79
1.18
-3.2
-7.41
-11.68
-16.32
-21.61
-27.76
-34.79
-42.41
-49.97
-56.43
-60.52
-61.12
-57.52
-49.75
-38.52
-25.04
-10.7
3.26
15.92
26.7
35.3
41.6
45.57
47.32
47.05
45.17
42.14
38.46
34.52
30.58
26.69
22.81
18.83
14.68
10.31
5.74
1.06
-3.54
-7.87
-11.77
-15.22
-18.39
-21.58
-25.14
-29.26
-33.78
-38.15
-41.48
-42.74
-41.03
-35.91
-27.54
-16.68
-4.48
7.79
19.08
28.7
36.28
41.68
44.79
45.47
43.69
39.63
33.83
27.12
20.5
14.83
10.61
7.85
6.13
4.84
3.42
1.65
-0.42
-2.51
-4.34
-5.83
-7.16
-8.71
-10.95
-14.27
-18.84
-24.52
-30.82
-36.88
-41.64
-43.99
-43.08
-38.56
-30.71
-20.42
-8.9
2.64
13.29
22.57
30.34
36.61
41.35
44.37
45.51
44.68
42.04
37.99
33.03
27.69
22.38
17.35
12.67
8.26
3.98
-0.29
-4.56
-8.73
-12.64
-16.19
-19.51
-22.99
-27.15
-32.42
-38.88
-46.09
-53.1
-58.68
-61.61
-61.02
-56.52
-48.35
-37.22
-24.18
-10.37
3.11
15.31
25.5
33.12
37.79
39.41
38.13
34.48
29.23
23.3
17.56
12.64
8.8
5.99
3.91
2.2
0.6
-1.04
-2.81
-4.8
-7.13
-9.94
-13.31
-17.23
-21.64
-26.44
-31.43
-36.2
-40.04
-42.01
-41.11
-36.69
-28.74
-17.94
-5.49
7.27
19.22
29.66
38.19
44.57
48.63
50.23
49.38
46.31
41.47
35.42
28.7
21.76
14.88
8.26
2.07
-3.5
-8.18
-11.72
-13.96
-14.97
-15.09
-14.97
-15.42
-17.21
-20.82
-26.25
-32.83
-39.34
-44.25
-46.07
-43.82
-37.27
-27.0
-14.24
-0.47
12.89
24.75
34.42
41.48
45.74
47.15
45.81
42.09
36.64
30.36
24.21
18.96
14.98
12.09
9.72
7.22
4.11
0.42
-3.47
-6.96
-9.66
-11.55
-13.09
-15.02
-18.1
-22.82
-29.2
-36.72
-44.36
-50.78
-54.66
-54.97
-51.34
-44.12
-34.26
-23.04
-11.68
-1.14
8.07
15.72
21.82
26.42
29.59
31.47
32.24
32.2
31.62
30.71
29.55
28.08
26.17
23.73
20.8
17.6
14.48
11.82
9.85
8.51
7.33
5.54
2.19
-3.51
-11.84
-22.32
-33.7
-44.15
-51.69
-54.69
-52.29
-44.68
-32.97
-18.92
-4.44
8.9
20.09
28.74
34.88
38.66
40.25
39.78
37.48
33.71
29.06
24.08
19.19
14.5
9.9
5.17
0.19
-4.99
-10.19
-15.16
-19.77
-24.03
-28.1
-32.22
-36.65
-41.58
-47.01
-52.65
-57.83
-61.51
-62.5
-59.72
-52.58
-41.21
-26.44
-9.6
7.79
24.42
39.31
51.9
61.93
69.3
73.98
75.95
75.28
72.16
67.0
60.38
52.9
45.08
37.12
29.02
20.7
12.2
3.81
-3.95
-10.59
-15.87
-19.91
-23.12
-26.03
-28.98
-32.07
-35.08
-37.59
-39.01
-38.62
-35.81
-30.19
-21.8
-11.24
0.45
12.05
22.41
30.76
36.71
40.18
41.3
40.34
37.65
33.69
29.08
24.43
20.26
16.83
14.13
11.87
9.64
7.1
4.08
0.68
-2.79
-5.93
-8.4
-10.13
-11.31
-12.46
-14.26
-17.35
-22.08
-28.23
-34.99
-41.0
-44.77
-45.07
-41.32
-33.74
-23.3
-11.42
0.36
10.79
18.94
24.36
26.96
26.95
24.77
21.04
16.49
11.77
7.38
3.49
0.05
-3.15
-6.31
-9.51
-12.59
-15.26
-17.23
-18.4
-18.97
-19.45
-20.58
-23.02
-27.09
-32.56
-38.58
-43.9
-47.11
-47.06
-43.1
-35.26
-24.21
-11.06
2.8
16.06
27.65
36.84
43.22
46.7
47.36
45.47
41.39
35.65
28.88
21.79
15.05
9.18
4.53
1.18
-0.99
-2.28
-3.13
-4.03
-5.47
-7.88
-11.56
-16.65
-23.03
-30.28
-37.57
-43.78
-47.67
-48.14
-44.55
-36.87
-25.74
-12.3
2.1
16.13
28.66
38.83
46.01
49.81
50.13
47.27
41.91
35.03
27.64
20.47
13.85
7.67
1.6
-4.55
-10.69
-16.39
-21.12
-24.52
-26.64
-27.96
-29.25
-31.31
-34.7
-39.54
-45.32
-50.95
-54.97
-55.88
-52.61
-44.81
-33.03
-18.49
-2.79
12.57
26.47
38.32
47.91
55.22
60.14
62.57
62.39
59.67
54.79
48.41
41.32
34.25
27.67
21.7
16.23
11.04
6.0
1.14
-3.35
-7.24
-10.48
-13.24
-16.03
-19.46
-24.03
-29.78
-36.06
-41.62
-44.92
-44.61
-40.01
-31.4
-19.86
-6.95
5.87
17.55
27.57
35.73
41.86
45.67
46.8
45.09
40.85
34.92
28.49
22.69
18.23
15.27
13.53
12.53
11.84
11.26
10.68
10.04
9.23
7.98
6.05
3.22
-0.65
-5.62
-11.64
-18.52
-25.87
-33.04
-39.14
-43.17
-44.26
-41.86
-36.0
-27.21
-16.46
-4.82
6.73
17.47
26.94
34.81
40.79
44.6
46.06
45.19
42.42
38.49
34.3
30.6
27.7
25.41
23.14
20.19
16.12
11.0
5.3
-0.24
-5.02
-8.76
-11.67
-14.3
-17.32
-21.24
-26.35
-32.56
-39.48
-46.41
-52.39
-56.33
-57.21
-54.35
-47.66
-37.77
-25.9
-13.47
-1.74
8.57
17.25
24.39
30.03
33.93
35.64
34.81
31.46
26.22
20.08
14.1
8.92
4.73
1.26
-1.81
-4.58
-6.91
-8.55
-9.41
-9.78
-10.19
-11.26
-13.4
-16.67
-20.85
-25.57
-30.37
-34.71
-37.86
-38.94
-37.11
-31.9
-23.46
-12.64
-0.66
11.21
22.05
31.33
38.75
43.96
46.54
46.1
42.63
36.65
29.26
21.78
15.34
10.61
7.58
5.75
4.4
2.84
0.7
-2.01
-5.02
-7.9
-10.33
-12.25
-13.91
-15.8
-18.51
-22.46
-27.75
-34.01
-40.42
-45.8
-48.8
-48.26
-43.53
-34.69
-22.63
-8.86
4.94
17.33
27.42
34.96
40.12
43.25
44.64
44.46
42.81
39.89
36.01
31.67
27.38
23.54
20.4
17.93
15.95
14.22
12.48
10.58
8.46
6.11
3.56
0.75
-2.47
-6.3
-10.97
-16.65
-23.38
-31.06
-39.34
-47.57
-54.74
-59.67
-61.19
-58.5
-51.5
-40.78
-27.52
-13.19
0.85
13.59
24.36
32.85
38.91
42.51
43.71
42.78
40.14
36.47
32.51
28.83
25.74
23.16
20.72
18.0
14.69
10.81
6.56
2.29
-1.73
-5.4
-8.74
-11.92
-15.13
-18.64
-22.74
-27.68
-33.52
-39.92
-46.02
-50.54
-52.14
-49.79
-43.27
-33.21
-20.95
-8.05
4.15
14.84
23.68
30.62
35.65
38.61
39.28
37.57
33.69
28.23
22.01
15.83
10.31
5.71
1.99
-1.08
-3.7
-5.95
-7.74
-9.0
-9.75
-10.24
-10.95
-12.42
-15.07
-19.11
-24.39
-30.42
-36.33
-40.96
-43.07
-41.68
-36.4
-27.65
-16.52
-4.5
7.04
17.14
25.35
31.57
35.79
37.96
38.02
35.99
32.23
27.41
22.43
18.05
14.7
12.4
10.8
9.46
8.11
6.72
5.5
4.67
4.23
3.95
3.38
2.05
-0.42
-4.23
-9.39
-15.69
-22.63
-29.39
-34.86
-37.92
-37.7
-33.97
-27.17
-18.25
-8.35
1.53
10.74
18.95
25.93
31.37
34.93
36.31
35.47
32.66
28.51
23.73
19.05
14.96
11.71
9.27
7.47
6.03
4.68
3.21
1.48
-0.58
-3.04
-6.06
-9.91
-14.92
-21.33
-29.05
-37.5
-45.6
-51.97
-55.28
-54.58
-49.62
-40.91
-29.51
-16.77
-3.93
8.06
18.55
27.17
33.65
37.81
39.61
39.17
36.89
33.37
29.29
25.23
21.59
18.48
15.78
13.24
10.65
7.9
5.04
2.2
-0.5
-3.04
-5.6
-8.48
-12.06
-16.64
-22.35
-29.03
-36.13
-42.7
-47.48
-49.18
-46.8
-40.01
-29.31
-15.96
-1.55
12.37
24.74
34.98
42.95
48.65
52.15
53.48
52.82
50.51
47.05
43.02
38.86
34.81
30.83
26.76
22.38
17.58
12.41
7.09
1.99
-2.53
-6.26
-9.26
-11.86
-14.57
-17.95
-22.32
-27.67
-33.62
-39.46
-44.28
-47.18
-47.39
-44.42
-38.23
-29.26
-18.39
-6.75
4.48
14.34
22.24
27.96
31.49
32.95
32.47
30.17
26.24
21.0
15.02
8.94
3.39
-1.18
-4.67
-7.21
-9.13
-10.68
-12.02
-13.16
-14.14
-15.07
-16.2
-17.78
-20.01
-22.94
-26.5
-30.47
-34.51
-38.04
-40.26
-40.26
-37.28
-31.11
-22.29
-11.91
-1.37
8.24
16.33
22.88
28.08
32.06
34.66
35.59
34.61
31.86
27.9
23.57
19.68
16.64
14.41
12.59
10.76
8.67
6.39
4.17
2.27
0.75
-0.63
-2.3
-4.71
-8.22
-12.96
-18.85
-25.49
-32.23
-38.12
-42.1
-43.19
-40.81
-34.98
-26.33
-15.97
-5.12
5.15
14.17
21.6
27.33
31.26
33.28
33.34
31.54
28.34
24.4
20.47
17.18
14.78
13.19
12.01
10.77
9.12
6.95
4.44
1.85
-0.61
-2.99
-5.57
-8.8
-13.01
-18.3
-24.36
-30.58
-36.12
-40.07
-41.6
-40.15
-35.54
-28.08
-18.54
-7.97
2.55
12.17
20.32
26.66
30.96
33.02
32.72
30.22
26.01
20.84
15.51
10.65
6.46
2.8
-0.69
-4.36
-8.33
-12.47
-16.54
-20.28
-23.63
-26.68
-29.59
-32.54
-35.61
-38.85
-42.26
-45.72
-48.86
-51.04
-51.36
-48.89
-43.04
-33.76
-21.65
-7.7
6.96
21.28
34.4
45.65
54.42
60.25
62.84
62.32
59.16
54.17
48.28
42.23
36.48
31.1
25.89
20.66
15.34
10.12
5.34
1.34
-1.78
-4.22
-6.51
-9.28
-13.07
-18.14
-24.32
-30.95
-36.97
-41.15
-42.4
-40.1
-34.33
-25.82
-15.72
-5.28
4.44
12.67
18.92
22.85
24.25
23.13
19.76
14.69
8.63
2.22
-4.07
-10.09
-15.82
-21.3
-26.49
-31.2
-35.08
-37.81
-39.08
-38.77
-37.05
-34.39
-31.57
-29.53
-28.98
-30.1
-32.29
-34.28
-34.53
-31.79
-25.5
-15.97
-4.2
8.55
21.04
32.26
41.48
48.15
51.95
52.85
51.16
47.58
43.02
38.4
34.37
31.21
28.78
26.69
24.51
21.91
18.81
15.28
11.49
7.54
3.39
-1.16
-6.42
-12.7
-20.11
-28.35
-36.59
-43.56
-47.77
-48.01
-43.71
-35.26
-23.86
-11.13
1.32
12.29
21.11
27.51
31.45
32.97
32.13
29.17
24.6
19.21
13.99
9.82
7.23
6.22
6.39
7.14
8.0
8.74
9.36
9.85
10.08
9.66
7.98
4.44
-1.41
-9.71
-20.07
-31.51
-42.43
-50.86
-54.91
-53.2
-45.43
-32.37
-15.74
2.31
19.68
34.75
46.45
54.33
58.35
58.85
56.42
51.83
45.94
39.6
33.48
27.98
23.15
18.74
14.26
9.18
3.12
-3.99
-11.88
-20.1
-28.06
-35.3
-41.5
-46.5
-50.29
-52.81
-53.96
-53.47
-50.91
-45.76
-37.65
-26.55
-12.99
1.88
16.51
29.28
38.93
44.77
46.88
45.91
42.97
39.36
36.34
34.89
35.42
37.69
40.81
43.51
44.54
42.99
38.52
31.32
22.01
11.45
0.56
-9.76
-18.71
-25.77
-30.77
-33.88
-35.45
-35.82
-35.06
-33.03
-29.45
-24.15
-17.25
-9.13
-0.36
8.43
16.59
23.58
28.9
32.2
33.3
32.25
29.26
24.75
19.16
13.11
7.33
2.63
-0.31
-1.21
-0.37
1.37
2.99
3.7
3.33
2.25
1.06
0.18
-0.51
-1.63
-3.91
-7.79
-13.02
-18.65
-23.28
-25.57
-24.61
-20.17
-12.74
-3.28
7.08
17.29
26.52
34.1
39.48
42.18
41.91
38.67
32.93
25.57
17.66
10.17
3.75
-1.44
-5.54
-8.89
-11.75
-14.18
-16.07
-17.26
-17.72
-17.72
-17.73
-18.35
-19.99
-22.8
-26.54
-30.66
-34.49
-37.32
-38.51
-37.52
-34.02
-27.93
-19.55
-9.6
0.85
10.62
18.62
24.07
26.61
26.3
23.58
19.13
13.84
8.61
4.17
1.04
-0.66
-1.15
-0.89
-0.47
-0.36
-0.82
-1.83
-3.22
-4.79
-6.53
-8.67
-11.6
-15.58
-20.53
-25.76
-30.14
-32.31
-31.21
-26.5
-18.66
-8.85
1.48
11.08
19.14
25.31
29.58
32.03
32.74
31.82
29.47
26.03
21.96
17.69
13.52
9.64
6.1
2.98
0.33
-1.81
-3.53
-5.05
-6.74
-8.98
-12.13
-16.4
-21.88
-28.37
-35.41
-42.13
-47.39
-49.92
-48.74
-43.45
-34.48
-22.99
-10.53
1.35
11.49
19.22
24.35
26.99
27.4
25.92
22.97
19.03
14.59
10.12
5.97
2.38
-0.54
-2.81
-4.49
-5.75
-6.83
-8.07
-9.84
-12.53
-16.49
-21.85
-28.41
-35.54
-42.09
-46.69
-48.01
-45.22
-38.29
-27.98
-15.66
-2.87
8.96
18.88
26.35
31.23
33.63
33.75
31.88
28.4
23.78
18.6
13.45
8.83
5.08
2.28
0.36
-0.86
-1.61
-2.24
-3.13
-4.8
-7.76
-12.42
-18.88
-26.78
-35.22
-42.88
-48.29
-50.16
-47.71
-40.97
-30.77
-18.53
-5.86
5.81
15.5
22.76
27.56
30.07
30.52
29.19
26.41
22.53
18.02
13.39
9.15
5.65
3.04
1.16
-0.35
-1.97
-4.12
-7.08
-10.92
-15.64
-21.15
-27.22
-33.36
-38.73
-42.14
-42.32
-38.34
-30.01
-17.97
-3.62
11.32
25.2
36.82
45.52
51.09
53.67
53.52
51.09
46.91
41.6
35.73
29.76
23.97
18.45
13.21
8.27
3.62
-0.75
-4.91
-9.03
-13.31
-18.01
-23.35
-29.47
-36.31
-43.37
-49.65
-53.7
-53.98
-49.43
-39.84
-26.06
-9.76
7.09
22.74
36.04
46.38
53.58
57.64
58.68
56.94
52.89
47.25
40.82
34.34
28.3
22.89
18.06
13.68
9.67
6.04
2.89
0.22
-2.14
-4.56
-7.58
-11.79
-17.54
-24.81
-33.01
-40.99
-47.2
-50.09
-48.53
-42.2
-31.7
-18.39
-3.98
9.93
22.16
32.02
39.15
43.4
44.66
43.02
38.87
32.92
26.19
19.64
13.89
9.03
4.74
0.58
-3.66
-7.78
-11.32
-13.83
-15.25
-15.95
-16.68
-18.27
-21.3
-25.99
-32.11
-38.95
-45.38
-49.91
-51.03
-47.6
-39.31
-26.83
-11.62
4.49
19.88
33.41
44.46
52.69
57.85
59.76
58.45
54.36
48.41
41.77
35.57
30.5
26.62
23.52
20.59
17.44
14.02
10.61
7.59
5.12
3.0
0.71
-2.43
-7.01
-13.31
-21.19
-30.01
-38.65
-45.69
-49.61
-49.27
-44.21
-34.82
-22.3
-8.27
5.67
18.26
28.76
36.92
42.75
46.39
47.95
47.51
45.21
41.4
36.61
31.58
27.05
23.55
21.23
19.81
18.7
17.29
15.17
12.32
9.05
5.81
2.9
0.32
-2.25
-5.33
-9.37
-14.71
-21.42
-29.39
-38.22
-47.19
-55.16
-60.64
-62.13
-58.58
-49.91
-37.06
-21.8
-6.17
8.17
20.23
29.71
36.76
41.65
44.58
45.68
45.06
42.92
39.63
35.65
31.51
27.7
24.55
22.19
20.49
19.15
17.82
16.22
14.16
11.6
8.53
4.96
0.86
-3.81
-9.09
-15.01
-21.6
-28.92
-36.84
-44.95
-52.36
-57.83
-59.93
-57.62
-50.58
-39.48
-25.8
-11.38
2.22
14.01
23.64
31.12
36.42
39.38
39.79
37.74
33.81
28.97
24.31
20.53
17.78
15.62
13.4
10.63
7.2
3.41
-0.25
-3.34
-5.66
-7.37
-8.85
-10.66
-13.32
-17.24
-22.54
-29.0
-35.92
-42.21
-46.53
-47.67
-44.9
-38.23
-28.43
-16.79
-4.69
6.72
16.69
24.8
30.79
34.47
35.66
34.27
30.45
24.66
17.68
10.45
3.91
-1.22
-4.59
-6.32
-6.83
-6.74
-6.63
-6.84
-7.43
-8.27
-9.12
-9.89
-10.64
-11.69
-13.38
-16.07
-19.87
-24.61
-29.81
-34.67
-38.13
-39.13
-36.84
-30.96
-21.91
-10.74
1.09
12.18
21.53
28.74
33.92
37.41
39.49
40.29
39.87
38.31
35.8
32.73
29.53
26.62
24.32
22.75
21.87
21.41
20.96
20.1
18.49
16.08
13.05
9.7
6.33
2.97
-0.58
-4.72
-9.87
-16.24
-23.71
-31.73
-39.42
-45.63
-49.28
-49.61
-46.42
-40.13
-31.64
-22.08
-12.47
-3.59
4.06
10.17
14.47
16.79
17.05
15.48
12.58
9.11
5.81
3.19
1.41
0.28
-0.55
-1.35
-2.25
-3.25
-4.23
-5.18
-6.22
-7.62
-9.75
-12.92
-17.39
-23.29
-30.55
-38.83
-47.42
-55.19
-60.75
-62.74
-60.22
-53.04
-41.88
-28.19
-13.63
0.33
12.71
23.07
31.3
37.32
40.99
42.15
40.88
37.63
33.22
28.64
24.69
21.72
19.49
17.32
14.45
10.43
5.31
-0.37
-5.86
-10.61
-14.43
-17.57
-20.45
-23.46
-26.81
-30.56
-34.62
-38.72
-42.34
-44.61
-44.48
-40.99
-33.71
-23.01
-10.0
3.82
16.99
28.51
37.92
45.18
50.38
53.59
54.81
53.97
51.14
46.61
40.86
34.48
28.06
22.04
16.67
12.05
8.15
4.86
2.04
-0.45
-2.71
-4.8
-6.79
-8.79
-11.0
-13.72
-17.26
-21.72
-26.89
-32.16
-36.58
-39.09
-38.82
-35.37
-28.9
-20.14
-10.16
-0.08
9.15
16.95
23.01
27.15
29.25
29.15
26.85
22.65
17.22
11.54
6.6
3.09
1.19
0.57
0.62
0.72
0.5
-0.15
-1.11
-2.25
-3.51
-4.93
-6.61
-8.64
-11.11
-14.17
-18.03
-22.86
-28.63
-34.88
-40.7
-44.88
-46.22
-44.01
-38.15
-29.3
-18.55
-7.13
3.88
13.61
21.46
26.98
29.92
30.31
28.53
25.34
21.71
18.52
16.22
14.76
13.61
12.14
9.93
6.98
3.71
0.69
-1.72
-3.6
-5.47
-8.1
-12.22
-18.25
-26.13
-35.24
-44.49
-52.44
-57.64
-58.92
-55.7
-48.16
-37.15
-23.89
-9.75
4.05
16.56
27.09
35.18
40.59
43.28
43.47
41.66
38.5
34.76
31.1
27.9
25.19
22.67
19.88
16.49
12.47
8.14
3.97
0.33
-2.74
-5.58
-8.77
-12.93
-18.5
-25.52
-33.58
-41.77
-48.79
-53.21
-53.79
-49.86
-41.48
-29.5
-15.27
-0.35
13.82
26.11
35.8
42.52
46.19
47.01
45.43
42.11
37.8
33.22
28.82
24.76
20.92
17.02
12.86
8.4
3.84
-0.5
-4.36
-7.61
-10.33
-12.82
-15.47
-18.77
-23.11
-28.67
-35.21
-41.97
-47.7
-50.92
-50.36
-45.33
-36.04
-23.58
-9.58
4.22
16.34
25.82
32.21
35.36
35.37
32.52
27.37
20.8
13.95
7.94
3.59
1.13
0.23
0.19
0.26
0.03
-0.54
-1.17
-1.51
-1.41
-1.12
-1.29
-2.79
-6.36
-12.35
-20.33
-29.16
-37.08
-42.2
-43.04
-38.94
-30.24
-18.15
-4.37
9.38
21.69
31.71
39.13
44.04
46.8
47.82
47.54
46.3
44.41
42.09
39.54
37.0
34.64
32.52
30.56
28.53
26.15
23.25
19.79
15.86
11.52
6.67
1.0
-5.89
-14.26
-23.9
-34.03
-43.25
-49.86
-52.22
-49.33
-41.12
-28.58
-13.47
2.23
16.8
29.22
39.13
46.56
51.64
54.35
54.61
52.46
48.3
42.88
37.14
31.88
27.5
23.89
20.63
17.19
13.27
8.91
4.47
0.39
-3.07
-5.98
-8.8
-12.19
-16.82
-23.13
-31.21
-40.64
-50.51
-59.44
-65.77
-67.95
-64.96
-56.69
-43.97
-28.41
-11.86
3.96
17.87
29.19
37.63
43.11
45.64
45.4
42.7
38.14
32.5
26.64
21.31
16.95
13.61
10.95
8.47
5.75
2.68
-0.54
-3.54
-6.05
-8.12
-10.15
-12.75
-16.58
-22.02
-29.08
-37.22
-45.41
-52.18
-55.95
-55.43
-49.97
-39.87
-26.24
-10.75
4.88
19.19
31.13
40.07
45.67
47.89
46.98
43.52
38.37
32.46
26.65
21.46
17.12
13.53
10.45
7.6
4.76
1.81
-1.24
-4.25
-7.05
-9.54
-11.79
-14.13
-17.03
-21.05
-26.51
-33.3
-40.71
-47.48
-51.97
-52.63
-48.43
-39.26
-26.03
-10.45
5.44
19.74
31.11
38.94
43.2
44.24
42.51
38.5
32.66
25.51
17.57
9.38
1.33
-6.3
-13.34
-19.47
-24.19
-26.89
-27.17
-25.3
-22.43
-20.31
-20.66
-24.53
-31.83
-41.43
-51.75
-61.26
-68.8
-73.51
-74.56
-71.18
-62.77
-49.32
-31.56
-10.88
10.95
32.13
50.93
65.9
76.05
81.09
81.62
78.96
74.74
70.21
65.85
61.31
55.86
48.97
40.64
31.5
22.42
14.24
7.56
2.69
-0.29
-1.55
-1.6
-1.31
-1.75
-3.8
-7.84
-13.4
-19.25
-23.79
-25.63
-24.14
-19.64
-13.25
-6.36
-0.12
4.88
8.59
11.26
13.07
13.99
13.86
12.65
10.57
8.13
5.94
4.42
3.63
3.31
2.98
2.26
0.99
-0.72
-2.59
-4.39
-6.05
-7.75
-9.82
-12.67
-16.69
-22.09
-28.84
-36.49
-44.14
-50.5
-54.17
-53.96
-49.32
-40.54
-28.56
-14.76
-0.49
13.1
25.11
34.81
41.6
45.05
45.13
42.24
37.24
31.22
25.17
19.78
15.35
11.81
8.84
6.1
3.31
0.37
-2.61
-5.49
-8.14
-10.72
-13.68
-17.63
-23.12
-30.25
-38.46
-46.62
-53.25
-56.96
-56.85
-52.73
-45.07
-34.71
-22.57
-9.43
4.07
17.25
29.31
39.24
46.13
49.42
49.27
46.46
42.18
37.49
32.96
28.58
23.94
18.64
12.63
6.3
0.24
-5.05
-9.43
-13.11
-16.5
-19.92
-23.53
-27.25
-30.99
-34.62
-37.92
-40.4
-41.25
-39.44
-34.13
-25.1
-13.03
0.57
13.8
24.96
33.03
37.83
39.82
39.8
38.54
36.68
34.66
32.83
31.37
30.26
29.12
27.35
24.32
19.66
13.47
6.38
-0.69
-6.9
-11.69
-14.93
-16.94
-18.33
-19.81
-21.97
-24.98
-28.46
-31.44
-32.68
-30.99
-25.75
-17.15
-6.13
5.91
17.52
27.52
35.14
40.01
42.03
41.31
38.17
33.14
26.94
20.28
13.78
7.76
2.28
-2.75
-7.41
-11.65
-15.25
-17.94
-19.58
-20.24
-20.2
-19.89
-19.77
-20.35
-22.03
-25.09
-29.48
-34.59
-39.28
-42.01
-41.32
-36.34
-27.15
-14.78
-0.91
12.7
24.58
33.83
40.04
43.18
43.38
40.93
36.3
30.2
23.51
17.14
11.81
7.9
5.3
3.54
2.04
0.32
-1.78
-4.13
-6.4
-8.34
-9.96
-11.59
-13.84
-17.27
-22.2
-28.44
-35.21
-41.24
-45.09
-45.49
-41.69
-33.72
-22.39
-9.06
4.66
17.26
27.62
35.05
39.28
40.38
38.73
34.94
29.79
24.12
18.64
13.81
9.71
6.13
2.78
-0.55
-3.8
-6.68
-8.87
-10.23
-10.95
-11.58
-12.78
-15.14
-18.92
-23.94
-29.54
-34.75
-38.43
-39.51
-37.23
-31.36
-22.28
-10.89
1.48
13.48
23.94
32.02
37.28
39.59
39.13
36.35
31.89
26.51
20.95
15.77
11.24
7.39
4.03
0.95
-2.02
-4.91
-7.63
-10.06
-12.17
-14.15
-16.36
-19.3
-23.34
-28.6
-34.68
-40.67
-45.29
-47.22
-45.44
-39.65
-30.34
-18.64
-6.06
6.01
16.54
24.9
30.75
33.95
34.45
32.41
28.28
22.84
17.01
11.61
7.09
3.53
0.69
-1.71
-3.86
-5.81
-7.49
-8.89
-10.04
-11.13
-12.47
-14.4
-17.2
-20.94
-25.34
-29.73
-33.1
-34.32
-32.45
-27.01
-18.24
-7.03
5.32
17.45
28.25
37.03
43.47
47.45
49.01
48.3
45.63
41.55
36.77
32.0
27.74
24.17
21.14
18.34
15.52
12.55
9.45
6.33
3.23
0.01
-3.65
-8.18
-13.99
-21.13
-29.16
-37.05
-43.34
-46.53
-45.46
-39.74
-29.86
-16.99
-2.67
11.63
24.82
36.24
45.46
52.18
56.06
56.83
54.56
49.79
43.56
37.05
31.2
26.33
22.12
17.91
13.08
7.49
1.51
-4.16
-8.84
-12.22
-14.43
-16.05
-17.87
-20.61
-24.76
-30.37
-36.94
-43.47
-48.54
-50.68
-48.71
-42.16
-31.46
-17.84
-3.06
11.15
23.41
32.96
39.64
43.63
45.24
44.75
42.41
38.55
33.64
28.23
22.88
17.95
13.51
9.37
5.22
0.88
-3.63
-7.98
-11.74
-14.63
-16.68
-18.29
-20.15
-22.97
-27.27
-33.18
-40.22
-47.4
-53.3
-56.44
-55.63
-50.35
-40.93
-28.44
-14.4
-0.31
12.59
23.57
32.26
38.54
42.39
43.79
42.9
40.07
35.9
31.19
26.7
22.92
19.92
17.42
14.97
12.28
9.35
6.49
4.05
2.15
0.46
-1.7
-5.09
-10.32
-17.54
-26.39
-36.0
-45.18
-52.54
-56.82
-57.11
-53.1
-45.19
-34.36
-21.95
-9.33
2.38
12.42
20.39
26.15
29.73
31.27
30.95
29.08
26.01
22.17
18.04
14.07
10.6
7.8
5.61
3.85
2.3
0.76
-0.86
-2.54
-4.24
-5.97
-7.75
-9.71
-12.02
-14.88
-18.49
-22.92
-28.03
-33.3
-37.83
-40.45
-40.07
-35.99
-28.21
-17.56
-5.41
6.72
17.64
26.67
33.73
39.0
42.65
44.71
45.03
43.55
40.44
36.2
31.53
27.07
23.23
20.02
17.18
14.36
11.31
8.03
4.72
1.68
-0.9
-3.01
-4.87
-6.83
-9.3
-12.57
-16.82
-22.13
-28.34
-35.08
-41.62
-46.94
-49.87
-49.44
-45.22
-37.54
-27.45
-16.36
-5.6
3.95
11.94
18.39
23.35
26.76
28.36
27.97
25.7
22.07
17.9
14.04
11.04
9.08
7.93
7.2
6.55
5.77
4.85
3.83
2.75
1.44
-0.36
-3.02
-6.89
-12.16
-18.73
-26.22
-33.85
-40.57
-45.25
-46.88
-44.85
-39.1
-30.15
-18.97
-6.73
5.43
16.65
26.34
34.2
40.08
43.89
45.61
45.29
43.15
39.59
35.17
30.48
26.06
22.2
18.94
16.02
13.04
9.64
5.65
1.23
-3.22
-7.19
-10.4
-12.89
-15.12
-17.77
-21.47
-26.56
-32.9
-39.81
-46.2
-50.81
-52.46
-50.37
-44.38
-35.0
-23.31
-10.63
1.77
13.01
22.65
30.58
36.81
41.32
43.92
44.44
42.86
39.51
35.03
30.22
25.74
21.95
18.78
15.93
13.08
10.11
7.11
4.26
1.74
-0.43
-2.41
-4.47
-6.92
-10.03
-14.03
-19.03
-24.91
-31.27
-37.35
-42.11
-44.46
-43.55
-39.09
-31.44
-21.56
-10.64
0.21
10.2
18.89
26.05
31.48
34.89
36.04
34.94
31.92
27.69
23.09
18.82
15.26
12.38
9.88
7.42
4.69
1.67
-1.49
-4.48
-7.07
-9.23
-11.16
-13.17
-15.59
-18.6
-22.29
-26.69
-31.74
-37.21
-42.53
-46.74
-48.64
-47.27
-42.26
-34.13
-24.05
-13.44
-3.51
5.09
12.08
17.43
21.05
22.81
22.64
20.76
17.7
14.26
11.15
8.81
7.31
6.34
5.46
4.31
2.73
0.81
-1.17
-2.93
-4.31
-5.4
-6.56
-8.36
-11.45
-16.22
-22.64
-30.01
-37.07
-42.33
-44.48
-42.84
-37.48
-29.06
-18.63
-7.2
4.37
15.4
25.23
33.24
38.87
41.75
41.85
39.55
35.5
30.5
25.29
20.37
15.96
12.01
8.36
4.83
1.37
-1.92
-4.89
-7.39
-9.44
-11.19
-12.97
-15.23
-18.39
-22.82
-28.57
-35.28
-42.13
-47.91
-51.24
-50.97
-46.45
-37.79
-25.83
-11.94
2.36
15.79
27.5
37.11
44.55
49.84
52.93
53.72
52.24
48.74
43.84
38.35
33.08
28.56
24.88
21.78
18.8
15.61
12.12
8.54
5.15
2.19
-0.4
-2.95
-5.9
-9.67
-14.52
-20.46
-27.23
-34.28
-40.76
-45.59
-47.72
-46.37
-41.36
-33.12
-22.63
-11.09
0.38
10.87
19.77
26.69
31.45
34.04
34.65
33.64
31.44
28.52
25.25
21.9
18.64
15.44
12.2
8.78
5.1
1.23
-2.56
-5.96
-8.75
-10.99
-12.95
-15.16
-18.15
-22.29
-27.54
-33.36
-38.73
-42.35
-43.02
-40.03
-33.4
-23.84
-12.56
-0.85
10.17
19.74
27.39
32.91
36.17
37.15
35.99
33.04
28.89
24.26
19.8
15.93
12.72
9.9
7.12
4.13
0.99
-2.03
-4.61
-6.63
-8.31
-10.14
-12.68
-16.34
-21.26
-27.24
-33.75
-39.93
-44.69
-46.87
-45.51
-40.14
-30.98
-18.9
-5.19
8.71
21.53
32.34
40.55
45.89
48.37
48.16
45.67
41.45
36.18
30.59
25.3
20.74
17.06
14.12
11.61
9.24
6.83
4.4
2.1
0.04
-1.81
-3.69
-6.01
-9.17
-13.46
-18.81
-24.74
-30.33
-34.44
-35.96
-34.14
-28.79
-20.41
-9.97
1.29
12.23
21.94
29.81
35.5
38.8
39.71
38.41
35.31
31.04
26.28
21.64
17.43
13.71
10.24
6.73
2.95
-1.12
-5.21
-8.93
-11.85
-13.79
-14.85
-15.51
-16.45
-18.36
-21.71
-26.5
-32.22
-37.93
-42.47
-44.72
-43.92
-39.85
-32.85
-23.75
-13.62
-3.5
5.73
13.46
19.29
22.95
24.31
23.46
20.73
16.77
12.33
8.16
4.73
2.15
0.25
-1.3
-2.75
-4.16
-5.38
-6.2
-6.46
-6.21
-5.78
-5.65
-6.36
-8.3
-11.56
-15.83
-20.4
-24.27
-26.31
-25.62
-21.7
-14.66
-5.25
5.37
15.88
25.22
32.68
37.95
40.93
41.62
40.09
36.59
31.65
26.02
20.53
15.76
11.96
8.94
6.37
3.91
1.47
-0.88
-2.96
-4.71
-6.25
-7.89
-10.06
-13.16
-17.45
-22.89
-29.15
-35.48
-40.85
-44.11
-44.27
-40.76
-33.66
-23.69
-12.02
0.04
11.33
21.04
28.76
34.31
37.68
38.92
38.21
35.93
32.65
29.06
25.76
23.1
21.06
19.3
17.33
14.74
11.4
7.53
3.59
0.04
-2.88
-5.26
-7.51
-10.18
-13.74
-18.42
-24.11
-30.38
-36.46
-41.35
-44.0
-43.53
-39.54
-32.28
-22.58
-11.72
-0.97
8.68
16.57
22.43
26.15
27.72
27.25
25.07
21.76
18.18
15.15
13.24
12.54
12.61
12.68
12.06
10.43
7.95
5.16
2.6
0.51
-1.29
-3.24
-5.86
-9.5
-14.28
-20.04
-26.39
-32.71
-38.09
-41.54
-42.13
-39.32
-33.2
-24.47
-14.25
-3.72
6.11
14.55
21.21
25.87
28.47
29.04
27.86
25.35
22.1
18.71
15.61
12.97
10.69
8.52
6.27
3.91
1.59
-0.47
-2.17
-3.61
-5.06
-6.91
-9.54
-13.2
-17.99
-23.7
-29.81
-35.39
-39.32
-40.52
-38.31
-32.62
-24.02
-13.52
-2.28
8.67
18.55
26.81
33.14
37.32
39.31
39.18
37.09
33.38
28.46
22.91
17.33
12.24
7.9
4.28
1.09
-1.96
-5.03
-8.05
-10.78
-13.0
-14.71
-16.19
-17.94
-20.49
-24.17
-28.91
-34.14
-38.89
-41.95
-42.24
-39.1
-32.53
-23.18
-12.22
-0.9
9.68
18.81
26.16
31.61
35.06
36.4
35.57
32.75
28.44
23.4
18.43
14.04
10.32
6.99
3.63
0.0
-3.78
-7.32
-10.26
-12.49
-14.3
-16.28
-19.06
-23.03
-28.23
-34.33
-40.72
-46.57
-50.88
-52.6
-50.87
-45.23
-35.91
-23.83
-10.39
2.97
15.08
25.23
33.12
38.64
41.74
42.42
40.89
37.55
33.08
28.15
23.26
18.59
14.1
9.66
5.3
1.27
-2.05
-4.36
-5.55
-5.83
-5.68
-5.76
-6.77
-9.28
-13.56
-19.46
-26.36
-33.16
-38.44
-40.81
-39.24
-33.4
-23.78
-11.58
1.64
14.38
25.56
34.62
41.45
46.1
48.64
49.1
47.55
44.33
40.0
35.26
30.71
26.7
23.26
20.23
17.37
14.48
11.47
8.34
5.17
2.13
-0.6
-2.89
-4.78
-6.58
-8.77
-11.9
-16.33
-22.03
-28.51
-34.79
-39.7
-42.11
-41.28
-37.04
-29.9
-20.82
-10.93
-1.19
7.73
15.51
22.0
27.09
30.58
32.26
32.04
30.03
26.64
22.52
18.43
15.01
12.62
11.25
10.56
10.09
9.43
8.41
7.07
5.53
3.88
2.06
-0.08
-2.72
-6.0
-10.0
-14.75
-20.12
-25.79
-31.11
-35.15
-36.86
-35.4
-30.4
-22.11
-11.38
0.6
12.54
23.23
31.66
37.17
39.38
38.3
34.27
27.93
20.12
11.75
3.69
-3.36
-8.95
-12.98
-15.64
-17.33
-18.53
-19.55
-20.56
-21.64
-22.9
-24.59
-27.13
-30.94
-36.27
-42.92
-50.22
-57.03
-62.02
-63.96
-62.05
-56.04
-46.28
-33.53
-18.74
-2.78
13.59
29.65
44.6
57.46
67.23
73.16
75.04
73.35
69.13
63.59
57.79
52.31
47.21
42.27
37.21
31.88
26.36
20.82
15.44
10.28
5.27
0.2
-5.14
-10.93
-17.17
-23.67
-29.97
-35.38
-39.03
-40.05
-37.8
-32.11
-23.33
-12.37
-0.45
11.24
21.77
30.6
37.44
42.18
44.68
44.9
42.97
39.35
34.72
29.82
25.24
21.16
17.53
14.07
10.54
6.83
2.99
-0.83
-4.48
-7.9
-11.13
-14.32
-17.76
-21.81
-26.75
-32.61
-38.97
-44.95
-49.25
-50.58
-47.96
-41.14
-30.7
-17.9
-4.35
8.48
19.51
28.07
33.93
37.03
37.5
35.62
31.86
26.91
21.5
16.28
11.62
7.55
3.85
0.22
-3.57
-7.51
-11.43
-15.07
-18.19
-20.79
-23.1
-25.5
-28.47
-32.29
-36.94
-41.95
-46.43
-49.16
-49.0
-45.19
-37.57
-26.75
-13.85
-0.27
12.66
23.86
32.56
38.26
40.76
40.14
36.9
31.8
25.8
19.75
14.27
9.61
5.75
2.51
-0.31
-2.81
-5.05
-6.99
-8.64
-10.07
-11.54
-13.47
-16.33
-20.48
-25.89
-31.91
-37.34
-40.67
-40.54
-36.16
-27.63
-15.9
-2.48
10.98
23.12
33.05
40.35
44.89
46.66
45.77
42.51
37.51
31.65
25.88
20.94
17.07
13.94
10.87
7.22
2.67
-2.53
-7.73
-12.16
-15.31
-17.19
-18.38
-19.83
-22.5
-27.05
-33.47
-41.05
-48.42
-53.89
-55.81
-53.09
-45.5
-33.75
-19.3
-3.93
10.71
23.49
33.78
41.35
46.09
47.94
46.85
43.07
37.18
30.14
23.04
16.82
11.99
8.56
6.14
4.21
2.38
0.55
-1.19
-2.67
-3.87
-5.03
-6.61
-9.09
-12.82
-17.85
-23.79
-29.89
-35.07
-38.18
-38.2
-34.52
-27.16
-16.81
-4.69
7.83
19.45
29.22
36.54
41.08
42.69
41.43
37.67
32.1
25.68
19.4
13.97
9.67
6.32
3.5
0.83
-1.86
-4.5
-6.86
-8.78
-10.29
-11.69
-13.41
-15.93
-19.51
-24.13
-29.38
-34.53
-38.62
-40.62
-39.65
-35.29
-27.65
-17.45
-5.83
5.93
16.7
25.74
32.64
37.28
39.66
39.83
37.93
34.31
29.55
24.4
19.59
15.65
12.71
10.62
8.99
7.5
5.96
4.36
2.82
1.32
-0.27
-2.29
-5.12
-9.13
-14.46
-21.03
-28.41
-35.79
-42.12
-46.18
-46.95
-43.87
-37.07
-27.36
-16.01
-4.3
6.73
16.48
24.71
31.29
36.08
38.84
39.41
37.84
34.53
30.15
25.44
21.0
17.1
13.73
10.73
7.99
5.52
3.45
1.85
0.61
-0.62
-2.25
-4.63
-7.9
-12.06
-17.04
-22.83
-29.38
-36.42
-43.19
-48.51
-51.0
-49.59
-43.94
-34.67
-23.06
-10.68
1.2
11.79
20.78
28.04
33.45
36.79
37.91
36.91
34.23
30.57
26.64
22.95
19.76
17.03
14.63
12.34
10.03
7.64
5.15
2.66
0.24
-2.05
-4.3
-6.8
-9.99
-14.31
-19.94
-26.6
-33.48
-39.41
-43.1
-43.58
-40.39
-33.69
-24.15
-12.72
-0.39
11.98
23.67
34.04
42.48
48.5
51.79
52.35
50.49
46.78
41.91
36.52
31.17
26.23
21.86
18.02
14.47
10.99
7.4
3.7
0.07
-3.26
-6.21
-8.89
-11.63
-14.89
-19.06
-24.32
-30.52
-37.01
-42.78
-46.54
-47.14
-43.92
-36.96
-27.13
-15.77
-4.23
6.43
15.61
23.07
28.7
32.36
33.89
33.2
30.47
26.22
21.21
16.25
11.98
8.7
6.31
4.5
2.87
1.1
-0.93
-3.21
-5.64
-8.11
-10.55
-12.93
-15.19
-17.35
-19.51
-21.87
-24.63
-27.83
-31.17
-33.89
-34.94
-33.3
-28.42
-20.39
-10.05
1.34
12.51
22.46
30.67
36.91
41.15
43.41
43.74
42.31
39.52
35.87
31.88
27.95
24.32
21.02
17.99
15.13
12.32
9.49
6.64
3.83
1.15
-1.35
-3.77
-6.38
-9.57
-13.76
-19.2
-25.84
-33.22
-40.45
-46.38
-49.82
-49.91
-46.37
-39.57
-30.39
-19.96
-9.32
0.69
9.45
16.45
21.24
23.52
23.31
21.02
17.47
13.56
10.07
7.41
5.63
4.48
3.66
2.95
2.26
1.6
0.97
0.33
-0.46
-1.63
-3.44
-6.19
-10.09
-15.24
-21.51
-28.39
-34.99
-40.08
-42.45
-41.23
-36.19
-27.84
-17.23
-5.62
5.87
16.43
25.55
32.88
38.16
41.1
41.53
39.51
35.38
29.82
23.7
17.87
12.94
9.13
6.22
3.79
1.43
-1.08
-3.73
-6.36
-8.91
-11.47
-14.3
-17.71
-21.93
-26.97
-32.55
-38.14
-42.94
-46.09
-46.74
-44.37
-38.87
-30.68
-20.57
-9.49
1.72
12.4
22.01
30.14
36.36
40.39
42.16
41.92
40.19
37.62
34.77
31.97
29.27
26.5
23.51
20.2
16.69
13.21
10.02
7.31
5.04
3.02
0.85
-1.84
-5.36
-9.72
-14.66
-19.62
-23.87
-26.64
-27.24
-25.2
-20.38
-13.08
-4.03
5.71
14.99
22.82
28.55
31.92
33.01
32.06
29.41
25.5
20.83
15.98
11.48
7.7
4.7
2.24
-0.03
-2.42
-4.98
-7.5
-9.66
-11.29
-12.48
-13.68
-15.53
-18.66
-23.45
-29.9
-37.53
-45.42
-52.36
-57.04
-58.34
-55.65
-49.08
-39.49
-28.19
-16.63
-6.02
2.84
9.57
14.01
16.14
16.03
13.99
10.57
6.56
2.7
-0.47
-2.83
-4.6
-6.11
-7.63
-9.21
-10.73
-12.05
-13.16
-14.2
-15.4
-17.03
-19.27
-22.22
-25.79
-29.72
-33.45
-36.13
-36.82
-34.75
-29.64
-21.84
-12.26
-2.03
7.77
16.38
23.37
28.53
31.72
32.83
31.85
29.0
24.82
19.98
15.2
10.96
7.47
4.57
1.95
-0.72
-3.66
-6.86
-10.16
-13.35
-16.25
-18.94
-21.73
-25.04
-29.24
-34.25
-39.41
-43.5
-45.02
-42.78
-36.28
-26.02
-13.26
0.32
13.18
24.22
32.88
39.05
42.81
44.37
43.98
42.01
38.96
35.39
31.87
28.77
26.24
24.17
22.26
20.16
17.57
14.37
10.73
6.96
3.48
0.52
-1.96
-4.4
-7.43
-11.61
-17.07
-23.26
-29.02
-32.91
-33.7
-30.83
-24.62
-16.1
-6.56
2.84
11.41
18.84
25.03
29.84
32.99
34.2
33.41
30.91
27.25
23.14
19.15
15.52
12.24
9.14
6.1
3.14
0.43
-1.83
-3.54
-4.82
-5.99
-7.47
-9.71
-13.0
-17.47
-22.99
-29.11
-35.09
-39.97
-42.72
-42.5
-38.95
-32.28
-23.26
-12.99
-2.58
7.07
15.37
21.98
26.75
29.6
30.56
29.84
27.78
24.89
21.67
18.52
15.66
13.14
10.84
8.68
6.61
4.64
2.8
1.05
-0.76
-2.87
-5.62
-9.34
-14.28
-20.52
-27.83
-35.46
-42.21
-46.62
-47.38
-43.82
-36.2
-25.6
-13.58
-1.59
9.41
18.99
27.1
33.62
38.24
40.5
40.12
37.3
32.76
27.62
22.94
19.38
17.01
15.34
13.76
11.8
9.4
6.89
4.64
2.84
1.28
-0.58
-3.34
-7.46
-13.06
-19.94
-27.63
-35.38
-42.16
-46.75
-47.9
-44.72
-37.06
-25.64
-11.88
2.52
16.15
28.09
38.01
45.9
51.77
55.62
57.37
57.08
55.02
51.69
47.69
43.58
39.75
36.31
33.16
30.03
26.64
22.81
18.5
13.87
9.12
4.47
0.03
-4.23
-8.47
-12.92
-17.81
-23.37
-29.57
-36.08
-42.18
-46.8
-48.83
-47.49
-42.61
-34.71
-24.78
-13.96
-3.14
7.13
16.57
24.96
31.96
37.08
39.88
40.18
38.19
34.5
29.9
25.14
20.77
17.01
13.79
10.85
7.88
4.71
1.35
-1.95
-4.89
-7.28
-9.16
-10.9
-13.05
-16.16
-20.6
-26.26
-32.57
-38.52
-42.8
-44.23
-42.02
-36.03
-26.83
-15.52
-3.36
8.51
19.27
28.46
35.76
40.93
43.76
44.1
42.06
38.04
32.71
26.88
21.31
16.53
12.72
9.69
7.02
4.21
0.98
-2.75
-6.74
-10.68
-14.26
-17.36
-20.05
-22.61
-25.35
-28.56
-32.32
-36.49
-40.56
-43.76
-45.13
-43.82
-39.27
-31.47
-20.99
-8.84
3.7
15.34
25.09
32.33
37.02
39.48
40.25
39.88
38.68
36.74
34.0
30.47
26.3
21.84
17.47
13.49
10.04
7.15
4.9
3.44
2.96
3.46
4.58
5.62
5.68
4.05
0.48
-4.79
-11.18
-18.06
-24.88
-31.22
-36.63
-40.57
-42.4
-41.59
-37.96
-31.74
-23.59
-14.39
-5.05
3.64
11.04
16.66
20.13
21.33
20.41
17.88
14.49
11.11
8.54
7.22
7.19
8.1
9.36
10.42
10.92
10.76
10.08
9.1
7.98
6.76
5.33
3.43
0.79
-2.88
-7.79
-13.96
-21.14
-28.69
-35.59
-40.63
-42.67
-40.99
-35.59
-27.18
-17.04
-6.61
2.91
10.79
16.79
20.98
23.55
24.65
24.43
23.1
20.99
18.48
15.96
13.63
11.58
9.73
7.99
6.3
4.6
2.82
0.85
-1.42
-4.06
-7.07
-10.39
-14.02
-18.06
-22.68
-28.0
-33.86
-39.62
-44.27
-46.67
-45.93
-41.8
-34.7
-25.51
-15.3
-4.9
5.13
14.46
22.75
29.49
34.1
36.15
35.56
32.69
28.25
23.11
17.95
13.15
8.82
4.88
1.28
-1.95
-4.71
-6.91
-8.59
-9.94
-11.28
-12.89
-14.97
-17.51
-20.42
-23.51
-26.55
-29.26
-31.2
-31.82
-30.65
-27.39
-22.1
-15.19
-7.22
1.24
9.78
18.12
25.9
32.58
37.41
39.68
39.0
35.61
30.37
24.5
19.12
14.85
11.7
9.21
6.8
4.1
1.15
-1.72
-4.1
-5.71
-6.6
-7.04
-7.46
-8.29
-9.87
-12.47
-16.12
-20.67
-25.57
-30.0
-33.01
-33.76
-31.81
-27.28
-20.78
-13.23
-5.51
1.72
8.1
13.41
17.53
20.32
21.69
21.72
20.69
18.99
17.03
15.04
13.07
11.04
8.83
6.41
3.86
1.38
-0.83
-2.58
-3.81
-4.67
-5.47
-6.73
-8.96
-12.55
-17.48
-23.28
-29.03
-33.63
-36.0
-35.41
-31.65
-25.07
-16.43
-6.77
2.89
11.66
18.93
24.24
27.31
28.06
26.62
23.44
19.23
14.82
10.84
7.58
4.96
2.65
0.33
-2.17
-4.77
-7.25
-9.4
-11.18
-12.76
-14.52
-16.89
-20.25
-24.77
-30.28
-36.21
-41.58
-45.25
-46.18
-43.73
-37.86
-29.12
-18.5
-7.12
3.99
14.16
23.03
30.52
36.54
40.89
43.29
43.47
41.4
37.44
32.29
26.81
21.72
17.38
13.68
10.3
6.93
3.46
0.11
-2.83
-5.18
-7.03
-8.78
-11.01
-14.24
-18.77
-24.53
-31.06
-37.5
-42.76
-45.68
-45.32
-41.23
-33.58
-23.16
-11.11
1.37
13.32
24.04
33.05
39.96
44.41
46.19
45.37
42.37
37.91
32.74
27.41
22.19
17.07
12.07
7.28
2.99
-0.49
-2.95
-4.39
-4.98
-4.97
-4.7
-4.51
-4.8
-6.03
-8.58
-12.56
-17.67
-23.07
-27.56
-29.88
-29.12
-24.98
-17.89
-8.78
1.14
10.81
19.43
26.57
32.0
35.64
37.47
37.54
36.01
33.21
29.58
25.56
21.57
17.86
14.5
11.39
8.35
5.23
2.03
-1.09
-3.9
-6.27
-8.27
-10.23
-12.61
-15.86
-20.25
-25.73
-31.93
-38.15
-43.47
-46.85
-47.39
-44.59
-38.52
-29.92
-19.94
-9.83
-0.64
7.04
13.02
17.37
20.18
21.57
21.68
20.81
19.4
17.98
16.91
16.25
15.72
14.87
13.35
11.06
8.25
5.36
2.81
0.81
-0.76
-2.3
-4.3
-7.2
-11.27
-16.45
-22.42
-28.52
-33.89
-37.6
-38.84
-37.13
-32.49
-25.39
-16.68
-7.22
2.3
11.54
20.39
28.72
36.18
42.09
45.72
46.56
44.64
40.61
35.48
30.27
25.66
21.84
18.63
15.71
12.94
10.39
8.31
6.84
5.84
4.85
3.15
0.08
-4.73
-11.23
-18.9
-26.91
-34.17
-39.57
-42.05
-40.82
-35.61
-26.79
-15.37
-2.79
9.49
20.31
29.07
35.62
40.06
42.49
42.95
41.47
38.3
33.98
29.32
25.05
21.64
19.04
16.72
13.99
10.3
5.59
0.32
-4.75
-8.9
-11.75
-13.37
-14.27
-15.04
-16.24
-18.25
-21.17
-24.88
-29.0
-32.9
-35.73
-36.63
-34.97
-30.45
-23.31
-14.14
-3.81
6.78
16.81
25.56
32.52
37.31
39.73
39.81
37.79
34.13
29.42
24.31
19.34
14.83
10.8
7.02
3.2
-0.8
-4.87
-8.64
-11.65
-13.64
-14.67
-15.18
-15.81
-17.27
-19.96
-23.92
-28.68
-33.38
-36.93
-38.29
-36.73
-32.0
-24.41
-14.7
-3.82
7.21
17.55
26.52
33.61
38.47
40.83
40.71
38.36
34.31
29.23
23.77
18.4
13.29
8.47
3.82
-0.66
-4.86
-8.6
-11.62
-13.76
-15.0
-15.51
-15.68
-16.06
-17.26
-19.73
-23.53
-28.23
-32.91
-36.37
-37.55
-35.75
-30.94
-23.62
-14.66
-4.99
4.58
13.49
21.31
27.73
32.41
35.09
35.7
34.43
31.71
28.18
24.44
20.92
17.84
15.22
12.98
11.06
9.45
8.14
7.14
6.36
5.56
4.43
2.62
-0.14
-3.95
-8.72
-14.2
-19.94
-25.33
-29.63
-32.03
-31.78
-28.53
-22.38
-14.03
-4.5
5.1
13.91
21.34
27.1
31.0
32.92
32.83
30.91
27.62
23.61
19.51
15.73
12.33
9.11
5.8
2.24
-1.51
-5.19
-8.47
-11.13
-13.09
-14.54
-15.88
-17.65
-20.44
-24.61
-30.13
-36.45
-42.44
-46.76
-48.17
-46.0
-40.35
-32.1
-22.57
-13.07
-4.6
2.32
7.5
10.96
12.8
13.21
12.52
11.26
9.94
8.94
8.31
7.83
7.14
6.0
4.38
2.43
0.38
-1.58
-3.39
-5.06
-6.63
-8.24
-10.1
-12.5
-15.68
-19.58
-23.76
-27.36
-29.38
-28.99
-25.87
-20.21
-12.7
-4.18
4.51
12.7
19.84
25.44
29.09
30.55
29.81
27.21
23.35
18.94
14.64
10.91
7.9
5.56
3.69
2.03
0.39
-1.34
-3.18
-5.1
-7.07
-9.16
-11.61
-14.76
-18.93
-24.22
-30.22
-35.98
-40.12
-41.29
-38.6
-32.02
-22.4
-11.12
0.34
10.89
19.92
27.2
32.6
35.98
37.23
36.43
33.99
30.54
26.77
23.11
19.7
16.45
13.19
9.85
6.46
3.18
0.09
-2.75
-5.41
-8.03
-10.87
-14.22
-18.28
-22.95
-27.65
-31.39
-33.0
-31.51
-26.55
-18.5
-8.41
2.39
12.57
21.19
27.69
31.94
34.01
34.18
32.79
30.28
27.05
23.42
19.53
15.3
10.58
5.24
-0.64
-6.7
-12.42
-17.27
-20.94
-23.47
-25.28
-27.01
-29.32
-32.57
-36.62
-40.7
-43.66
-44.24
-41.56
-35.45
-26.54
-16.1
-5.65
3.45
10.33
14.87
17.6
19.57
21.82
25.02
29.04
33.04
35.8
36.28
34.13
29.79
24.26
18.61
13.59
9.5
6.35
4.05
2.49
1.41
0.23
-2.0
-6.25
-13.03
-21.96
-31.59
-39.74
-44.1
-43.08
-36.29
-24.65
-10.1
5.12
19.0
30.2
38.14
42.8
44.5
43.68
40.8
36.33
30.81
24.81
18.97
13.83
9.72
6.71
4.57
2.92
1.37
-0.26
-1.97
-3.56
-4.93
-6.13
-7.45
-9.3
-11.99
-15.62
-19.94
-24.43
-28.29
-30.68
-30.79
-28.11
-22.58
-14.73
-5.51
3.88
12.36
19.16
23.89
26.45
26.88
25.31
22.01
17.44
12.24
7.16
2.81
-0.42
-2.52
-3.72
-4.39
-4.89
-5.45
-6.15
-6.98
-7.87
-8.83
-9.99
-11.55
-13.78
-16.79
-20.47
-24.37
-27.74
-29.68
-29.5
-26.86
-21.88
-15.18
-7.59
0.07
7.19
13.41
18.52
22.38
24.75
25.45
24.39
21.77
18.1
14.05
10.3
7.33
5.32
4.2
3.75
3.79
4.2
4.91
5.83
6.68
7.08
6.47
4.39
0.57
-4.8
-11.05
-17.11
-21.75
-23.93
-23.13
-19.45
-13.54
-6.34
1.2
8.37
14.68
19.8
23.41
25.19
24.94
22.69
18.86
14.14
9.24
4.69
0.71
-2.76
-5.88
-8.78
-11.5
-13.99
-16.21
-18.17
-19.93
-21.62
-23.46
-25.78
-28.97
-33.38
-39.1
-45.75
-52.38
-57.62
-60.0
-58.46
-52.71
-43.3
-31.51
-18.87
-6.82
3.6
11.86
17.85
21.85
24.41
26.34
28.44
31.33
35.15
39.49
43.48
46.15
46.82
45.29
41.91
37.35
32.35
27.47
22.95
18.74
14.57
10.03
4.68
-1.73
-9.16
-17.06
-24.43
-29.93
-32.36
-31.04
-26.16
-18.75
-10.31
-2.31
4.27
9.06
12.26
14.21
15.22
15.48
15.13
14.37
13.46
12.56
11.7
10.65
9.12
6.93
4.16
1.06
-1.99
-4.75
-7.11
-9.19
-11.21
-13.39
-15.93
-19.0
-22.7
-26.97
-31.49
-35.52
-38.04
-37.97
-34.53
-27.6
-17.73
-6.06
6.16
17.82
28.15
36.63
42.86
46.51
47.41
45.77
42.27
37.86
33.46
29.62
26.4
23.53
20.64
17.54
14.27
11.06
8.06
5.36
2.87
0.46
-2.02
-4.72
-7.87
-11.72
-16.52
-22.33
-28.82
-35.2
-40.27
-42.72
-41.5
-36.13
-26.92
-14.81
-1.12
12.84
26.04
37.74
47.44
54.78
59.39
61.03
59.63
55.44
49.08
41.47
33.68
26.66
21.0
16.91
14.14
12.24
10.66
8.97
6.93
4.4
1.34
-2.34
-6.74
-11.95
-17.99
-24.68
-31.65
-38.31
-43.88
-47.62
-48.94
-47.58
-43.66
-37.59
-29.98
-21.48
-12.8
-4.62
2.39
7.57
10.5
11.0
9.36
6.17
2.22
-1.8
-5.48
-8.72
-11.63
-14.33
-16.81
-18.89
-20.32
-20.86
-20.46
-19.27
-17.58
-15.88
-14.78
-14.94
-16.87
-20.7
-25.93
-31.42
-35.66
-37.18
-35.04
-29.08
-19.9
-8.61
3.48
15.1
25.18
32.91
37.85
40.0
39.83
38.21
36.12
34.34
33.26
32.75
32.36
31.55
29.91
27.32
23.84
19.62
14.77
9.39
3.57
-2.55
-8.8
-15.08
-21.38
-27.74
-34.06
-39.9
-44.47
-46.78
-45.98
-41.71
-34.24
-24.35
-13.11
-1.61
9.17
18.44
25.6
30.25
32.26
31.8
29.35
25.56
21.16
16.76
12.77
9.36
6.46
3.86
1.38
-1.1
-3.52
-5.84
-8.08
-10.51
-13.61
-17.92
-23.91
-31.68
-40.97
-51.06
-60.82
-68.83
-73.7
-74.35
-70.28
-61.79
-49.85
-35.86
-21.3
-7.45
4.78
14.92
22.85
28.74
32.91
35.77
37.61
38.62
38.88
38.37
37.03
34.83
31.87
28.37
24.74
21.43
18.85
17.19
16.31
15.83
15.2
13.89
11.47
7.72
2.72
-3.03
-8.6
-12.79
-14.38
-12.58
-7.25
1.01
11.05
21.55
31.25
39.14
44.5
46.85
45.99
42.06
35.63
27.65
19.23
11.42
4.81
-0.48
-4.79
-8.61
-12.34
-16.05
-19.54
-22.45
-24.63
-26.25
-27.8
-30.03
-33.65
-39.11
-46.43
-55.06
-63.86
-71.19
-75.27
-74.6
-68.4
-56.9
-41.17
-22.87
-3.66
15.1
32.5
47.86
60.49
69.65
74.61
74.98
70.94
63.31
53.4
42.62
32.22
23.08
15.66
10.1
6.25
3.79
2.14
0.61
-1.53
-4.82
-9.42
-14.91
-20.46
-24.87
-27.01
-26.09
-21.91
-14.91
-6.03
3.51
12.61
20.47
26.79
31.7
35.45
38.3
40.26
41.23
41.12
39.96
37.97
35.38
32.27
28.56
24.05
18.64
12.51
6.1
-0.01
-5.34
-9.7
-13.2
-16.19
-19.12
-22.44
-26.51
-31.5
-37.29
-43.39
-48.86
-52.53
-53.24
-50.29
-43.7
-34.24
-23.21
-12.01
-1.77
6.85
13.61
18.52
21.69
23.31
23.71
23.34
22.76
22.45
22.58
22.96
23.16
22.67
21.1
18.33
14.44
9.71
4.48
-0.86
-5.96
-10.61
-14.79
-18.71
-22.74
-27.23
-32.18
-37.14
-41.2
-43.27
-42.43
-38.27
-31.06
-21.62
-11.09
-0.65
8.71
16.24
21.43
24.05
24.17
22.17
18.71
14.65
10.88
8.07
6.6
6.44
7.28
8.56
9.71
10.26
9.94
8.67
6.49
3.52
-0.16
-4.48
-9.3
-14.35
-19.2
-23.24
-25.75
-26.05
-23.64
-18.39
-10.57
-0.86
9.78
20.29
29.7
37.2
42.23
44.45
43.81
40.55
35.16
28.4
21.13
14.17
8.22
3.7
0.78
-0.62
-0.81
-0.23
0.56
1.02
0.59
-1.16
-4.57
-9.78
-16.69
-24.88
-33.6
-41.8
-48.28
-51.9
-51.79
-47.65
-39.83
-29.29
-17.46
-5.81
4.44
12.53
18.21
21.57
22.88
22.53
20.95
18.66
16.21
14.06
12.37
10.99
9.48
7.38
4.42
0.67
-3.51
-7.62
-11.21
-14.01
-16.0
-17.38
-18.53
-19.95
-22.13
-25.33
-29.3
-33.19
-35.66
-35.29
-31.12
-23.11
-12.23
-0.23
11.07
20.22
26.52
29.95
30.87
29.75
26.98
23.05
18.64
14.63
11.96
11.22
12.44
14.96
17.66
19.38
19.38
17.57
14.4
10.63
6.89
3.38
-0.15
-4.23
-9.4
-15.9
-23.57
-31.83
-39.78
-46.3
-50.16
-50.3
-45.99
-37.18
-24.65
-9.9
5.24
19.09
30.48
38.87
44.26
46.92
47.24
45.63
42.6
38.79
34.92
31.57
29.02
27.1
25.32
23.05
19.86
15.68
10.79
5.64
0.63
-4.1
-8.69
-13.39
-18.44
-23.89
-29.48
-34.69
-38.77
-40.91
-40.34
-36.58
-29.59
-19.78
-7.98
4.78
17.45
29.12
39.02
46.55
51.19
52.61
50.74
45.94
38.97
30.91
22.95
15.99
10.54
6.53
3.48
0.75
-2.12
-5.25
-8.46
-11.34
-13.62
-15.24
-16.5
-17.87
-19.91
-23.03
-27.28
-32.23
-37.0
-40.34
-41.03
-38.2
-31.66
-21.95
-10.18
2.32
14.33
24.84
33.2
38.94
41.81
41.72
38.83
33.56
26.57
18.68
10.78
3.59
-2.36
-6.94
-10.32
-12.86
-14.93
-16.74
-18.32
-19.63
-20.65
-21.52
-22.53
-24.04
-26.4
-29.8
-34.16
-38.97
-43.33
-46.11
-46.2
-42.89
-36.13
-26.51
-15.15
-3.28
7.92
17.55
24.97
29.81
31.88
31.26
28.28
23.5
17.6
11.3
5.13
-0.64
-5.95
-10.81
-15.07
-18.32
-19.91
-19.28
-16.22
-11.21
-5.38
-0.26
2.67
2.42
-1.22
-7.63
-15.44
-22.91
-28.25
-30.06
-27.66
-21.19
-11.49
0.19
12.54
24.42
34.95
43.5
49.61
53.01
53.72
52.12
48.85
44.68
40.18
35.59
30.84
25.64
19.77
13.21
6.17
-1.03
-8.1
-14.88
-21.33
-27.44
-33.22
-38.6
-43.5
-47.7
-50.84
-52.41
-51.8
-48.49
-42.41
-34.06
-24.5
-14.96
-6.27
1.55
9.21
17.76
27.91
39.41
51.04
60.99
67.56
69.82
67.89
62.77
55.82
48.26
40.83
33.76
26.98
20.37
13.92
7.71
1.84
-3.71
-9.13
-14.74
-20.82
-27.46
-34.4
-41.0
-46.27
-49.1
-48.56
-44.18
-36.15
-25.33
-13.01
-0.56
10.86
20.49
27.92
33.01
35.74
36.17
34.55
31.33
27.13
22.59
18.17
13.95
9.75
5.18
-0.05
-6.05
-12.55
-19.01
-24.8
-29.37
-32.45
-34.2
-35.15
-36.05
-37.59
-39.98
-42.8
-45.04
-45.38
-42.7
-36.54
-27.26
-15.82
-3.45
8.73
19.98
29.87
38.15
44.53
48.72
50.42
49.61
46.59
42.03
36.8
31.71
27.31
23.78
20.99
18.66
16.58
14.65
12.89
11.29
9.74
8.03
5.88
3.0
-0.86
-5.89
-12.08
-19.17
-26.47
-32.94
-37.41
-38.88
-36.94
-31.88
-24.57
-16.13
-7.56
0.45
7.48
13.22
17.38
19.69
20.02
18.55
15.75
12.29
8.84
5.87
3.53
1.69
0.09
-1.59
-3.48
-5.57
-7.67
-9.52
-10.89
-11.83
-12.67
-13.99
-16.49
-20.65
-26.46
-33.32
-40.09
-45.36
-47.81
-46.66
-41.79
-33.74
-23.47
-12.07
-0.53
10.36
20.02
27.99
33.87
37.36
38.32
36.89
33.53
28.98
24.04
19.36
15.32
11.91
8.91
6.02
3.14
0.33
-2.23
-4.4
-6.33
-8.45
-11.38
-15.68
-21.57
-28.8
-36.49
-43.36
-47.92
-48.95
-45.84
-38.82
-28.88
-17.44
-5.98
4.39
13.06
19.8
24.67
27.7
28.99
28.66
27.03
24.62
21.96
19.42
17.07
14.64
11.84
8.51
4.89
1.46
-1.26
-3.01
-3.97
-4.71
-6.03
-8.64
-12.95
-18.89
-25.89
-32.93
-38.66
-41.69
-40.95
-35.98
-27.16
-15.59
-2.8
9.62
20.47
29.08
35.25
39.03
40.57
40.02
37.53
33.38
28.04
22.15
16.43
11.53
7.95
5.95
5.48
6.25
7.76
9.48
10.94
11.77
11.68
10.42
7.73
3.44
-2.38
-9.32
-16.67
-23.56
-29.18
-32.88
-34.25
-32.98
-28.93
-22.15
-13.07
-2.63
7.93
17.31
24.57
29.38
32.01
33.05
33.12
32.63
31.7
30.31
28.4
25.98
23.19
20.29
17.59
15.42
13.99
13.29
13.1
13.01
12.61
11.57
9.7
6.96
3.34
-1.11
-6.29
-12.04
-18.11
-24.22
-30.16
-35.75
-40.8
-44.93
-47.55
-48.03
-45.91
-41.16
-34.26
-25.99
-17.21
-8.64
-0.79
5.92
11.13
14.48
15.77
15.08
12.91
10.09
7.45
5.62
4.74
4.56
4.59
4.38
3.73
2.74
1.65
0.7
-0.11
-1.01
-2.47
-4.98
-8.88
-14.24
-20.82
-28.04
-35.07
-40.93
-44.59
-45.22
-42.34
-35.96
-26.64
-15.32
-3.15
8.78
19.62
28.7
35.59
39.97
41.72
41.0
38.29
34.38
30.08
26.01
22.38
19.02
15.51
11.48
6.87
1.99
-2.58
-6.26
-8.7
-9.99
-10.68
-11.59
-13.6
-17.36
-23.15
-30.67
-39.1
-47.15
-53.29
-56.08
-54.55
-48.48
-38.45
-25.71
-11.83
1.69
13.68
23.44
30.68
35.35
37.56
37.53
35.58
32.19
27.93
23.4
19.03
15.01
11.31
7.76
4.32
1.12
-1.57
-3.44
-4.38
-4.62
-4.72
-5.36
-7.07
-10.08
-14.15
-18.59
-22.49
-24.86
-24.93
-22.31
-17.12
-9.98
-1.83
6.29
13.54
19.43
23.9
27.2
29.7
31.62
32.92
33.32
32.44
30.0
25.99
20.7
14.67
8.57
2.95
-1.86
-5.78
-9.05
-12.05
-15.16
-18.66
-22.54
-26.57
-30.35
-33.5
-35.8
-37.32
-38.47
-39.83
-42.01
-45.33
-49.6
-54.08
-57.54
-58.67
-56.5
-50.66
-41.47
-29.71
-16.3
-2.05
12.41
26.42
39.17
49.66
56.85
60.04
59.16
54.92
48.61
41.7
35.42
30.4
26.64
23.7
20.94
17.86
14.21
10.02
5.45
0.77
-3.79
-8.09
-12.14
-16.13
-20.38
-25.19
-30.51
-35.87
-40.35
-42.89
-42.67
-39.41
-33.37
-25.21
-15.63
-5.21
5.7
16.75
27.42
36.96
44.47
49.15
50.62
49.05
45.15
39.86
34.07
28.32
22.78
17.35
12.02
6.97
2.61
-0.68
-2.74
-3.74
-4.16
-4.57
-5.46
-7.14
-9.8
-13.48
-18.03
-22.96
-27.42
-30.25
-30.31
-26.86
-19.89
-10.13
1.16
12.57
22.93
31.56
38.15
42.68
45.11
45.38
43.43
39.34
33.48
26.41
18.83
11.27
4.14
-2.4
-8.24
-13.32
-17.5
-20.7
-22.91
-24.27
-25.06
-25.66
-26.4
-27.56
-29.33
-31.74
-34.73
-38.04
-41.19
-43.46
-43.99
-41.91
-36.73
-28.48
-17.8
-5.85
6.09
16.88
25.8
32.49
36.81
38.79
38.54
36.43
33.13
29.59
26.76
25.28
25.28
26.33
27.65
28.39
27.9
25.92
22.54
18.14
13.19
8.16
3.36
-1.11
-5.32
-9.53
-14.1
-19.39
-25.54
-32.33
-39.04
-44.48
-47.33
-46.5
-41.56
-32.91
-21.64
-9.15
3.24
14.46
23.83
30.88
35.38
37.27
36.76
34.3
30.59
26.38
22.39
19.12
16.75
15.11
13.75
12.22
10.19
7.64
4.84
2.09
-0.48
-3.06
-6.1
-10.13
-15.52
-22.29
-30.0
-37.77
-44.29
-48.14
-48.06
-43.38
-34.36
-22.19
-8.66
4.41
15.66
24.4
30.59
34.48
36.33
36.16
33.94
29.66
23.65
16.56
9.28
2.72
-2.51
-6.19
-8.52
-10.01
-11.18
-12.39
-13.73
-15.03
-16.05
-16.67
-16.99
-17.4
-18.48
-20.73
-24.38
-29.07
-33.84
-37.31
-38.1
-35.25
-28.61
-18.86
-7.26
4.8
16.18
26.12
34.18
39.98
43.11
43.16
40.04
34.17
26.58
18.66
11.73
6.68
3.73
2.56
2.47
2.79
3.02
2.88
2.26
1.11
-0.63
-3.02
-6.15
-10.15
-15.1
-21.03
-27.8
-34.89
-41.43
-46.3
-48.35
-46.78
-41.33
-32.37
-20.8
-7.88
5.1
16.88
26.52
33.32
37.02
37.66
35.63
31.6
26.37
20.81
15.64
11.42
8.44
6.76
6.2
6.43
7.09
7.76
8.16
8.01
7.11
5.3
2.33
-2.04
-7.91
-15.13
-22.99
-30.33
-35.69
-37.73
-35.68
-29.6
-20.3
-9.12
2.47
13.29
22.55
29.9
35.27
38.68
40.24
40.1
38.58
36.18
33.46
30.84
28.47
26.14
23.46
20.05
15.77
10.81
5.52
0.27
-4.82
-9.8
-14.94
-20.58
-26.92
-33.97
-41.35
-48.31
-53.77
-56.63
-56.08
-51.81
-44.22
-34.2
-22.89
-11.41
-0.65
8.69
16.03
20.85
22.82
21.87
18.41
13.2
7.15
1.0
-4.86
-10.43
-15.81
-20.97
-25.58
-29.1
-30.99
-31.0
-29.27
-26.31
-22.79
-19.43
-16.82
-15.36
-15.15
-15.79
-16.42
-15.8
-12.71
-6.42
3.0
14.58
26.76
37.88
46.6
52.17
54.39
53.46
49.77
43.84
36.42
28.47
21.12
15.33
11.62
9.84
9.36
9.33
9.15
8.7
8.32
8.53
9.67
11.64
13.92
15.71
16.19
14.75
11.24
6.02
0.11
-5.08
-7.99
-7.46
-3.12
4.38
13.58
22.71
30.24
35.31
37.78
38.02
36.47
33.47
29.15
23.71
17.59
11.53
6.37
2.75
0.88
0.51
1.1
2.1
3.15
4.06
4.71
4.92
4.42
2.85
-0.06
-4.47
-10.27
-17.05
-24.07
-30.27
-34.42
-35.53
-33.1
-27.39
-19.3
-10.13
-1.16
6.61
12.62
16.71
18.98
19.69
19.18
17.78
15.81
13.56
11.24
8.99
6.94
5.12
3.54
2.14
0.81
-0.48
-1.72
-2.82
-3.7
-4.47
-5.46
-7.2
-10.19
-14.67
-20.39
-26.56
-32.01
-35.59
-36.46
-34.34
-29.51
-22.62
-14.54
-6.11
1.85
8.69
13.87
17.07
18.21
17.5
15.44
12.69
9.94
7.7
6.18
5.26
4.59
3.74
2.47
0.77
-1.09
-2.86
-4.44
-6.05
-8.15
-11.27
-15.73
-21.41
-27.67
-33.47
-37.58
-38.89
-36.75
-31.19
-22.94
-13.23
-3.46
5.19
11.92
16.43
18.76
19.15
17.97
15.65
12.62
9.29
5.97
2.82
-0.1
-2.79
-5.24
-7.37
-9.08
-10.32
-11.14
-11.8
-12.72
-14.4
-17.34
-21.76
-27.45
-33.66
-39.16
-42.57
-42.74
-39.13
-31.95
-22.1
-10.75
0.91
11.95
21.76
29.97
36.27
40.43
42.26
41.79
39.33
35.42
30.7
25.77
21.04
16.72
12.91
9.6
6.78
4.36
2.14
-0.14
-2.85
-6.28
-10.74
-16.37
-23.14
-30.73
-38.43
-45.25
-50.04
-51.8
-49.99
-44.76
-36.78
-27.15
-16.93
-6.93
2.4
10.87
18.38
24.74
29.64
32.74
33.86
33.1
30.84
27.59
23.8
19.69
15.32
10.67
5.84
0.96
-3.75
-8.25
-12.58
-16.86
-21.25
-25.78
-30.41
-35.02
-39.32
-42.76
-44.52
-43.64
-39.33
-31.44
-20.54
-7.86
5.14
17.27
27.8
36.48
43.27
48.09
50.75
51.03
48.98
44.99
39.83
34.38
29.37
25.18
21.88
19.29
17.16
15.28
13.48
11.57
9.31
6.48
2.93
-1.29
-5.98
-10.89
-15.83
-20.75
-25.77
-31.11
-36.93
-43.19
-49.5
-55.02
-58.55
-58.79
-54.7
-45.95
-33.12
-17.56
-1.12
14.38
27.59
37.74
44.65
48.52
49.77
48.98
46.8
43.97
41.18
38.93
37.43
36.52
35.81
34.83
33.26
31.09
28.55
25.97
23.54
21.15
18.4
14.87
10.32
4.95
-0.72
-6.07
-10.68
-14.55
-18.06
-21.78
-26.22
-31.59
-37.71
-44.07
-49.85
-54.03
-55.62
-53.79
-48.15
-38.87
-26.79
-13.12
0.78
13.78
25.06
34.24
41.1
45.58
47.65
47.39
45.12
41.46
37.14
32.91
29.23
26.24
23.8
21.61
19.38
16.95
14.27
11.32
8.06
4.38
0.12
-4.78
-10.24
-16.04
-21.85
-27.42
-32.63
-37.55
-42.31
-46.93
-51.19
-54.49
-56.02
-54.9
-50.55
-42.91
-32.55
-20.6
-8.42
2.8
12.35
20.17
26.61
32.14
36.91
40.7
43.04
43.52
42.17
39.42
35.96
32.45
29.17
26.08
22.87
19.21
14.94
10.17
5.21
0.46
-3.7
-7.1
-9.78
-12.01
-14.17
-16.63
-19.63
-23.22
-27.29
-31.54
-35.51
-38.5
-39.66
-38.18
-33.59
-25.97
-16.05
-4.97
5.99
15.76
23.7
29.55
33.29
35.03
34.93
33.21
30.31
26.81
23.42
20.81
19.39
19.17
19.8
20.66
21.08
20.57
18.98
16.45
13.32
9.99
6.7
3.52
0.27
-3.35
-7.67
-12.9
-19.02
-25.7
-32.22
-37.58
-40.71
-40.76
-37.3
-30.53
-21.23
-10.57
0.18
9.94
18.0
24.01
27.85
29.53
29.11
26.77
22.84
17.87
12.55
7.53
3.22
-0.24
-3.04
-5.53
-8.06
-10.87
-14.0
-17.33
-20.63
-23.64
-26.22
-28.39
-30.34
-32.44
-35.07
-38.4
-42.22
-45.88
-48.32
-48.44
-45.39
-38.96
-29.61
-18.39
-6.54
4.81
14.9
23.34
29.96
34.64
37.25
37.74
36.25
33.19
29.12
24.7
20.45
16.62
13.22
10.02
6.74
3.13
-0.82
-4.92
-8.83
-12.23
-15.03
-17.36
-19.6
-22.2
-25.58
-29.87
-34.84
-39.78
-43.61
-45.04
-43.01
-37.07
-27.6
-15.7
-2.82
9.74
21.14
