2013-02-20 17:55:19
64.0
-0.0
-0.0
-0.0
-0.0
-0.0
-0.0
-0.0
-0.0
-0.0
-0.0
0.0
0.01
0.01
-0.0
-0.03
-0.05
-0.05
0.0
0.13
0.36
0.66
1.01
1.37
1.72
2.06
2.4
2.79
3.24
3.8
4.42
5.06
5.66
6.2
6.68
7.15
7.68
8.31
9.14
10.09
11.04
11.88
12.56
13.14
13.76
14.65
15.96
17.91
20.32
22.9
25.38
27.58
29.57
31.68
34.32
37.81
42.54
48.15
54.1
59.83
64.97
69.58
74.14
79.34
85.71
93.76
103.0
112.62
121.73
129.77
136.75
143.3
150.75
157.77
166.64
177.95
191.79
206.97
220.57
228.25
225.36
208.53
176.87
132.76
80.05
23.07
-34.94
-92.44
-149.16
-205.23
-260.37
-313.74
-363.87
-409.83
-450.91
-486.5
-515.74
-537.23
-549.22
-549.95
-538.35
-514.17
-478.62
-433.81
-382.35
-326.88
-269.66
-212.41
-156.38
-102.62
-51.98
-5.45
36.1
72.01
102.01
126.23
145.18
159.57
170.11
177.41
181.89
183.81
183.41
180.97
176.83
171.41
165.1
158.26
151.13
143.86
136.52
129.15
121.78
114.5
107.37
100.45
93.82
87.49
81.48
75.81
70.48
65.51
60.9
56.67
52.81
49.33
46.21
43.46
41.07
39.01
37.3
35.93
34.91
34.23
33.89
33.86
34.12
34.6
35.23
35.88
36.42
36.67
36.46
35.63
34.03
31.57
28.22
24.02
19.04
13.44
7.44
1.32
-4.68
-10.27
-15.24
-19.39
-22.59
-24.8
-26.0
-26.25
-25.66
-24.37
-22.52
-20.28
-17.78
-15.14
-12.46
-9.78
-7.18
-4.66
-2.25
0.09
2.39
4.69
7.01
9.42
11.93
14.52
17.14
19.79
22.44
25.11
27.81
30.58
33.47
36.59
39.87
43.31
46.91
50.73
54.79
59.13
63.83
68.93
74.54
80.47
86.62
92.91
99.3
105.75
112.25
118.81
125.46
132.28
138.99
145.44
151.39
156.67
160.97
163.9
164.92
163.25
160.22
156.23
151.52
146.24
140.48
134.34
127.91
121.35
114.81
108.56
102.51
96.69
91.19
85.94
80.91
76.15
71.8
68.11
65.37
63.59
62.77
62.91
63.78
65.18
66.94
69.01
71.37
74.07
76.98
79.98
82.94
85.23
86.34
85.83
83.55
79.53
73.93
66.88
58.52
49.02
37.29
22.51
4.3
-17.12
-41.01
-66.42
-92.52
-118.75
-144.71
-172.64
-204.35
-240.65
-281.04
-323.91
-367.21
-409.0
-447.69
-481.7
-513.4
-544.27
-574.33
-602.12
-625.58
-643.45
-656.19
-666.0
-675.91
-693.92
-726.06
-775.23
-840.74
-919.17
-1006.1
-1097.6
-1190.9
-1250.12
-1250.87
-1180.67
-1042.95
-854.34
-636.4
-407.26
-178.41
43.4
252.7
437.79
587.4
694.22
758.01
785.65
788.28
777.05
760.14
742.15
721.09
694.75
662.38
625.57
587.19
549.95
515.39
483.73
454.65
425.42
394.32
360.93
326.24
291.71
258.59
227.35
197.74
169.33
140.59
110.71
79.56
47.85
16.27
-14.66
-45.02
-75.21
-105.6
-136.92
-169.35
-202.76
-236.4
-269.61
-301.53
-331.46
-358.4
-380.78
-396.86
-404.53
-403.31
-391.76
-369.17
-335.64
-292.47
-241.6
-184.98
-124.62
-61.95
2.08
67.25
133.43
200.65
268.51
336.58
404.34
469.74
530.48
583.92
627.37
657.98
674.71
675.84
659.9
626.89
577.74
514.8
441.06
359.42
272.26
181.01
86.48
-11.38
-110.4
-207.36
-298.22
-378.7
-445.15
-495.37
-528.19
-542.88
-538.66
-514.23
-468.55
-401.42
-314.06
-209.37
-91.74
32.98
157.49
272.86
368.88
435.6
465.94
458.98
420.91
363.55
300.59
243.08
196.64
161.52
134.77
113.07
94.85
79.93
68.28
59.1
50.57
40.8
28.96
15.7
2.68
-7.99
-15.1
-18.78
-20.35
-21.69
-24.34
-28.87
-34.34
-39.61
-43.35
-44.83
-44.15
-42.17
-40.08
-38.86
-38.91
-39.91
-41.18
-41.88
-41.48
-39.98
-37.78
-35.48
-33.62
-32.41
-31.74
-31.27
-30.59
-29.37
-27.57
-25.35
-23.02
-20.92
-19.27
-18.12
-17.39
-16.87
-16.34
-15.63
-14.75
-13.79
-12.96
-12.42
-12.21
-12.23
-12.23
-11.94
-11.21
-10.14
-9.05
-8.37
-8.47
-9.41
-10.87
-12.21
-12.75
-12.08
-10.36
-8.32
-7.0
-7.31
-9.51
-12.98
-16.4
-18.29
-17.76
-14.99
-11.32
-8.65
-8.59
-11.64
-16.81
-21.97
-25.02
-24.66
-21.06
-15.84
-11.14
-8.75
-9.79
-14.49
-22.1
-30.72
-36.95
-36.21
-23.9
2.33
40.3
82.59
118.32
136.92
132.15
104.84
63.09
19.32
-13.82
-27.4
-18.84
8.1
45.68
85.23
119.03
141.86
150.31
142.06
116.08
74.53
24.01
-24.62
-59.7
-73.82
-67.83
-51.16
-37.18
-36.12
-49.55
-70.42
-87.66
-92.54
-83.15
-64.22
-43.19
-26.26
-15.44
-9.66
-6.77
-5.57
-5.51
-5.66
-4.62
-1.1
3.75
7.27
6.39
0.21
-8.93
-16.59
-19.46
-18.4
-17.47
-21.96
-34.25
-51.88
-67.74
-73.93
-65.99
-45.33
-18.27
7.54
26.19
35.25
34.85
26.03
10.07
-11.72
-35.67
-56.29
-67.53
-65.8
-51.67
-30.12
-8.65
5.8
9.44
2.57
-11.18
-26.66
-39.56
-46.83
-46.81
-39.37
-24.78
-5.61
13.26
24.92
23.02
5.01
-24.55
-54.29
-70.05
-62.13
-30.92
12.29
50.11
67.26
58.03
28.68
-7.21
-33.7
-42.29
-34.39
-18.12
-1.91
9.47
15.87
19.62
21.16
18.14
7.4
-12.0
-36.46
-58.1
-68.78
-63.96
-45.63
-21.7
-2.37
4.08
-5.11
-26.71
-52.43
-73.23
-82.07
-75.75
-55.08
-23.46
14.48
52.57
85.76
112.52
133.38
150.03
164.14
176.31
186.19
192.39
197.79
197.5
186.96
162.11
121.89
68.85
8.43
-52.56
-108.46
-155.81
-194.72
-224.93
-245.46
-251.89
-237.9
-199.24
-134.42
-50.07
41.67
125.81
191.41
223.23
213.98
170.37
108.27
42.85
-17.16
-65.08
-103.69
-132.48
-149.06
-150.31
-134.31
-103.16
-63.29
-22.21
14.03
41.64
60.99
73.81
82.6
90.16
97.58
104.3
110.8
118.97
131.92
154.31
189.78
231.71
272.98
307.82
332.98
347.96
350.8
338.12
308.51
264.45
211.35
158.66
118.7
92.89
80.01
75.84
75.04
73.27
67.42
52.23
24.28
-18.22
-75.89
-143.38
-214.16
-281.42
-339.19
-383.54
-417.06
-443.42
-465.86
-486.87
-507.35
-528.61
-551.12
-573.04
-567.24
-517.05
-422.3
-300.95
-178.38
-73.99
3.03
53.27
83.72
103.32
115.31
120.37
118.45
110.69
100.24
90.59
84.34
82.61
84.77
85.99
81.75
70.18
52.48
32.06
12.44
-3.99
-16.05
-23.71
-29.38
-35.6
-42.19
-47.24
-47.95
-41.99
-28.31
-7.01
20.61
51.03
80.48
106.29
126.91
141.86
151.3
155.81
156.45
154.36
150.38
145.23
139.56
133.66
127.59
121.41
115.15
109.04
103.15
97.55
92.41
88.43
86.79
88.56
93.39
98.69
99.8
91.55
71.36
40.82
5.3
-28.31
-54.55
-70.93
-78.14
-77.32
-69.04
-52.75
-27.98
4.16
40.14
74.24
100.03
112.18
108.13
88.6
57.12
19.12
-19.51
-53.12
-77.32
-88.72
-85.15
-66.45
-36.1
-1.4
27.33
40.33
32.66
6.28
-30.0
-64.16
-86.21
-92.09
-83.65
-66.24
-45.22
-23.69
-3.0
16.43
33.46
45.54
49.48
43.4
27.72
5.13
-18.35
-38.81
-54.25
-64.95
-73.17
-81.58
-91.8
-103.59
-115.09
-123.49
-127.17
-125.79
-120.8
-114.9
-110.67
-109.62
-112.2
-118.21
-126.68
-136.13
-143.71
-145.43
-137.43
-117.68
-87.71
-52.73
-19.89
4.79
18.67
23.05
22.72
22.32
24.84
31.06
40.45
52.19
65.95
81.55
98.55
115.56
130.21
140.07
143.23
139.61
131.56
123.54
120.55
125.74
138.21
152.44
160.48
155.09
133.62
99.26
59.3
21.27
-10.12
-33.61
-50.0
-60.08
-64.09
-62.48
-57.46
-53.54
-56.24
-69.43
-91.86
-116.88
-134.79
-138.31
-126.04
-102.39
-74.34
-47.66
-25.31
-8.12
3.95
10.69
11.73
7.55
0.03
-8.25
-14.53
-17.19
-16.52
-13.89
-11.3
-10.98
-14.72
-22.83
-33.48
-42.42
-43.73
-32.74
-7.35
29.77
71.63
109.51
136.77
151.18
155.12
155.3
154.01
152.15
148.44
140.78
127.88
110.31
89.94
67.24
44.99
23.47
2.63
-17.86
-37.58
-55.4
-69.87
-79.91
-85.27
-86.78
-86.86
-87.43
-89.92
-94.59
-100.72
-106.73
-111.1
-112.03
-108.38
-100.15
-87.38
-70.36
-49.34
-24.84
2.34
31.0
59.79
86.64
109.21
125.7
134.94
136.59
131.05
119.21
100.57
78.23
54.43
30.72
8.36
-11.79
-29.15
-43.52
-55.21
-64.77
-72.66
-79.68
-86.52
-93.41
-100.2
-106.4
-111.02
-113.1
-111.64
-105.9
-95.65
-81.16
-62.97
-42.07
-19.88
2.16
22.62
40.31
54.44
64.53
70.61
73.27
73.33
72.06
70.65
69.74
69.56
69.86
70.17
70.1
70.59
71.07
71.72
72.64
73.34
72.92
70.22
64.43
55.62
44.9
34.05
25.27
20.03
18.35
19.07
20.21
20.06
18.14
15.39
13.54
14.5
19.33
27.62
38.37
50.38
62.53
73.4
80.89
82.45
76.78
65.58
53.66
47.24
50.53
62.88
78.6
89.93
91.43
83.43
71.99
65.61
70.69
88.19
113.55
139.53
159.93
171.96
176.34
175.14
169.53
158.63
141.06
116.06
84.97
51.42
20.04
-5.37
-23.17
-34.17
-40.08
-42.16
-40.81
-36.18
-29.2
-21.97
-16.81
-14.57
-13.81
-11.27
-3.7
10.2
29.27
50.9
72.55
92.58
110.04
123.91
132.73
135.12
130.87
121.77
111.52
104.39
103.48
109.69
121.64
136.71
151.95
164.58
172.33
173.41
166.53
150.93
126.7
94.69
56.6
14.85
-27.76
-68.21
-104.25
-133.73
-154.75
-165.86
-166.62
-157.75
-140.96
-118.39
-92.41
-65.9
-41.2
-19.74
-2.14
11.22
19.98
23.79
22.55
16.47
4.71
-12.47
-33.12
-54.41
-73.93
-90.51
-103.9
-114.41
-122.33
-132.01
-145.43
-160.89
-174.59
-183.96
-189.25
-192.73
-197.12
-204.52
-224.4
-260.72
-309.38
-361.53
-410.2
-453.53
-493.27
-531.93
-570.79
-622.91
-693.0
-773.55
-850.2
-912.24
-957.56
-990.38
-1016.97
-1042.79
-1088.65
-1163.07
-1255.61
-1342.54
-1401.04
-1418.36
-1392.6
-1329.96
-1129.05
-766.7
-305.4
148.44
518.94
785.82
961.86
1067.64
1120.57
1134.52
1104.97
1036.68
948.65
865.72
807.05
778.21
773.24
780.17
785.96
766.76
711.32
627.08
535.64
460.14
415.38
403.9
419.6
448.1
463.04
445.37
391.35
311.93
224.33
149.67
105.42
97.16
117.57
149.23
179.53
205.06
228.46
251.05
271.89
287.25
292.6
286.56
269.58
246.24
223.36
206.81
196.62
190.42
186.31
182.62
179.22
174.45
167.02
155.13
135.98
102.11
48.88
-24.09
-113.09
-210.16
-309.23
-403.05
-485.04
-551.05
-605.17
-651.15
-690.27
-720.38
-734.52
-728.86
-699.18
-645.32
-537.8
-377.32
-191.99
-21.53
92.28
159.62
198.05
223.27
246.81
272.29
294.94
311.75
321.27
322.23
313.99
290.76
250.69
194.57
128.62
59.67
7.36
-8.67
19.24
83.04
151.31
213.4
265.27
306.02
336.06
355.54
365.11
366.09
361.09
350.46
336.33
315.46
284.44
240.9
185.72
120.96
49.53
-25.18
-101.39
-176.6
-255.71
-343.68
-442.28
-547.09
-649.43
-737.6
-800.49
-831.93
-831.05
-809.7
-781.65
-755.95
-733.35
-709.09
-675.39
-626.33
-559.65
-447.72
-285.84
-92.36
98.72
256.09
361.8
418.67
441.95
446.63
447.51
452.42
467.45
490.79
520.49
540.07
533.57
492.55
421.55
334.53
241.4
147.88
57.14
-26.71
-99.38
-155.21
-190.85
-208.29
-211.46
-208.42
-206.34
-208.59
-214.05
-219.78
-221.38
-216.28
-204.55
-188.17
-171.28
-159.04
-153.13
-151.37
-149.67
-143.01
-127.68
-102.54
-68.96
-31.02
6.71
41.02
70.61
95.49
116.45
134.07
148.07
157.34
159.98
154.6
141.31
121.85
99.05
76.0
54.79
35.98
18.54
0.48
-19.34
-40.25
-59.43
-72.61
-76.03
-68.21
-50.8
-28.36
-6.29
11.59
24.81
36.4
51.75
75.59
109.75
152.73
200.43
248.16
291.8
328.08
354.41
369.73
375.29
375.53
377.52
387.37
405.89
426.19
434.87
418.05
369.33
294.97
213.15
146.85
113.3
116.24
144.42
177.26
194.83
186.44
154.04
109.37
66.96
36.36
19.03
9.46
-0.59
-17.39
-43.04
-76.62
-116.31
-160.6
-208.2
-255.57
-295.15
-316.42
-309.05
-267.73
-196.28
-107.66
-20.04
49.03
87.98
94.14
72.63
33.92
-9.23
-44.66
-62.93
-59.64
-36.98
-3.4
29.49
51.81
60.88
63.4
72.03
98.43
146.02
206.84
264.5
301.37
305.84
276.45
221.86
155.9
92.75
43.06
12.14
0.18
3.11
14.04
25.18
30.58
26.53
12.82
-7.53
-29.1
-45.04
-48.49
-34.26
-7.04
25.39
52.22
64.77
60.06
40.72
12.26
-19.4
-49.73
-75.7
-94.47
-103.75
-101.94
-88.22
-62.83
-27.46
14.53
57.92
96.32
124.28
138.44
138.93
129.14
113.8
97.95
85.18
76.57
70.87
66.39
62.11
58.33
55.96
55.4
55.84
55.39
52.15
45.31
35.72
25.43
16.79
11.34
9.22
9.35
9.94
9.38
6.92
2.95
-1.34
-4.56
-5.73
-4.7
-1.99
1.47
4.78
7.4
9.25
10.62
11.79
12.88
13.66
13.69
12.46
9.64
5.18
-0.61
-7.17
-13.83
-19.92
-24.85
-28.21
-29.69
-29.19
-26.74
-22.58
-17.12
-10.89
-4.45
1.66
7.02
11.39
14.62
16.69
17.63
17.44
16.18
13.94
10.89
7.25
3.32
-0.76
-4.98
-9.61
-15.1
-21.95
-30.47
-40.62
-51.98
-63.85
-75.59
-86.83
-97.79
-109.11
-121.62
-135.84
-151.8
-168.81
-185.8
-201.75
-216.31
-230.08
-244.43
-261.04
-281.11
-304.83
-331.34
-359.03
-386.23
-411.83
-435.62
-458.3
-481.15
-505.95
-534.63
-568.73
-608.24
-650.43
-689.41
-717.21
-726.24
-712.26
-676.15
-623.78
-563.5
-503.18
-447.88
-399.29
-356.89
-319.7
-287.44
-260.44
-239.0
-222.47
-209.41
-198.26
-188.44
-180.64
-176.61
-178.47
-187.57
-203.79
-225.2
-248.57
-270.14
-286.65
-295.69
-295.91
-286.89
-268.64
-241.53
-205.66
-161.64
-110.81
-55.31
2.17
59.17
114.05
166.72
218.22
271.36
328.58
391.2
458.29
526.63
591.65
648.6
693.66
723.94
739.76
742.16
733.29
714.71
687.28
651.96
610.52
565.52
519.36
476.75
441.21
416.05
402.44
399.94
407.69
425.14
452.1
472.32
471.72
442.11
389.27
327.6
270.1
221.64
178.77
134.13
80.57
25.6
-30.53
-86.42
-142.64
-201.37
-263.0
-323.21
-373.47
-406.19
-415.38
-401.63
-369.85
-329.14
-289.89
-260.17
-243.73
-234.56
-230.27
-228.28
-230.08
-231.26
-225.02
-206.33
-175.55
-139.21
-107.45
-90.62
-92.92
-112.18
-140.61
-169.89
-193.79
-208.84
-213.4
-206.51
-188.32
-159.13
-120.5
-74.8
-25.81
21.9
64.66
100.55
129.68
152.92
171.66
186.75
198.54
206.57
210.39
210.5
208.83
208.47
212.53
223.43
242.1
268.08
299.69
335.04
372.77
412.55
454.87
500.7
551.2
607.3
668.91
733.6
795.99
848.19
881.76
890.27
871.73
829.25
769.8
701.52
630.83
561.15
493.22
426.57
360.78
296.0
232.61
170.54
109.13
47.43
-14.98
-77.44
-138.44
-195.99
-248.62
-295.95
-339.12
-380.48
-422.67
-467.28
-513.64
-558.47
-596.41
-622.06
-631.92
-625.87
-606.9
-579.5
-547.63
-513.42
-477.37
-439.39
-400.36
-362.61
-329.06
-301.67
-280.21
-262.06
-243.44
-221.29
-194.33
-163.54
-131.4
-100.7
-73.54
-50.93
-32.87
-19.0
-9.16
-3.34
-0.9
0.12
2.83
10.17
22.95
38.94
53.86
64.1
69.48
73.71
81.89
96.66
115.43
130.89
135.02
124.34
103.03
81.44
70.83
77.15
98.13
124.82
146.45
155.48
150.27
134.18
112.55
89.59
67.06
44.96
22.99
1.33
-19.4
-38.81
-57.28
-75.61
-94.32
-113.12
-131.21
-148.12
-164.03
-179.56
-194.86
-209.02
-220.21
-226.55
-227.14
-222.44
-213.78
-202.69
-190.22
-176.92
-163.36
-150.45
-139.17
-129.66
-120.38
-107.87
-88.22
-59.41
-23.13
14.72
45.91
63.46
64.76
53.18
36.89
25.38
25.76
41.08
70.77
111.94
160.5
210.82
255.41
285.76
294.52
278.28
240.91
192.9
147.23
113.77
94.7
84.72
74.59
55.88
23.51
-21.84
-75.76
-133.35
-191.27
-248.18
-302.27
-349.71
-385.04
-404.46
-405.88
-390.11
-360.57
-321.92
-278.89
-234.56
-190.3
-139.19
-82.82
-28.9
13.01
35.04
40.5
35.08
24.34
13.39
5.93
3.11
5.84
14.95
30.97
54.04
82.83
115.97
152.78
193.34
237.03
283.58
332.33
381.11
426.33
462.93
486.67
495.7
490.88
474.4
449.53
419.76
387.95
356.24
325.47
295.8
266.7
236.99
204.95
169.34
129.9
87.33
42.91
-2.1
-46.29
-88.09
-125.77
-157.63
-182.16
-198.37
-206.28
-207.35
-204.28
-200.43
-198.87
-201.5
-208.31
-217.17
-224.37
-225.91
-219.15
-203.84
-182.41
-159.09
-138.46
-124.1
-117.72
-118.68
-124.27
-130.57
-133.76
-131.37
-123.3
-111.71
-99.93
-90.78
-85.05
-81.09
-75.87
-66.92
-53.89
-38.92
-25.33
-15.78
-10.88
-9.09
-7.88
-5.31
-0.89
4.57
9.9
14.52
18.52
22.27
25.67
28.08
28.82
28.09
27.1
27.66
31.05
36.91
43.1
46.7
45.64
39.97
31.97
24.78
20.9
21.2
24.85
30.16
35.37
39.33
41.33
41.4
40.29
39.42
40.42
43.83
48.45
51.53
50.24
43.8
34.54
27.19
26.16
32.8
44.47
56.55
66.13
74.64
87.35
109.53
141.89
178.67
210.13
228.23
232.16
229.8
233.7
254.35
293.6
343.52
389.98
419.47
424.76
406.87
372.39
328.67
280.7
230.49
179.5
131.0
90.4
62.95
50.4
49.07
50.48
45.07
26.09
-7.82
-53.04
-103.58
-153.89
-200.84
-243.5
-282.08
-316.73
-347.47
-374.84
-400.56
-427.75
-459.83
-499.25
-545.38
-593.38
-634.88
-660.21
-661.78
-636.71
-587.85
-522.1
-447.57
-370.58
-294.53
-220.49
-148.63
-79.76
-15.35
43.19
95.76
144.19
192.07
243.5
301.63
367.07
436.7
503.67
559.01
594.55
606.02
594.93
568.08
534.86
503.58
478.73
460.51
446.37
433.48
420.41
407.28
394.61
382.06
367.95
349.83
325.94
296.1
261.88
226.1
191.59
160.22
132.44
107.53
84.24
61.82
40.3
20.71
4.48
-7.19
-13.84
-16.13
-15.52
-13.97
-13.24
-14.59
-18.53
-25.07
-33.95
-44.94
-58.06
-73.59
-91.97
-113.41
-137.73
-164.14
-191.53
-218.6
-244.27
-267.97
-289.84
-310.64
-331.15
-352.01
-373.11
-393.86
-413.28
-430.7
-446.11
-460.3
-474.49
-489.43
-504.9
-519.82
-533.52
-546.67
-561.54
-580.36
-603.2
-626.3
-642.36
-643.07
-622.56
-579.42
-516.67
-439.91
-355.71
-270.93
-193.73
-134.15
-102.96
-108.12
-150.23
-220.26
-301.3
-374.67
-426.46
-451.96
-455.22
-445.1
-430.04
-414.27
-397.3
-375.78
-347.22
-311.61
-271.21
-228.67
-185.46
-141.8
-97.31
-52.03
-6.53
36.03
71.06
94.3
104.27
102.73
93.16
80.11
68.38
63.58
67.9
80.92
100.64
126.21
158.12
195.96
239.31
288.44
347.15
416.47
494.05
573.34
645.08
698.0
718.67
697.0
630.88
531.23
412.34
288.51
170.37
65.5
-6.3
-29.34
0.26
49.01
101.36
150.37
198.8
242.95
278.11
299.93
302.64
282.13
238.5
179.3
112.07
43.14
-23.26
-81.99
-126.63
-152.62
-157.92
-144.28
-115.32
-80.49
-51.19
-36.34
-38.1
-52.67
-74.67
-100.14
-125.39
-145.97
-159.28
-163.94
-159.77
-147.24
-128.23
-106.71
-87.06
-73.18
-66.54
-67.3
-74.3
-85.56
-98.45
-109.95
-121.0
-130.94
-138.46
-141.64
-138.88
-129.26
-113.02
-91.73
-68.09
-45.39
-26.4
-13.16
-6.57
-6.35
-11.05
-18.67
-27.14
-34.72
-40.18
-42.46
-40.96
-35.43
-26.03
-13.06
2.77
20.47
38.77
56.2
71.57
83.99
93.01
98.68
101.5
102.09
101.02
98.66
95.07
90.29
84.49
78.15
72.16
67.81
66.26
68.16
73.39
81.13
90.17
99.49
108.58
117.75
127.99
140.33
155.28
172.5
190.97
209.46
227.4
244.89
262.67
281.67
302.78
326.87
354.76
386.73
421.58
455.83
483.14
495.6
486.24
451.97
395.31
323.58
246.13
170.54
101.24
38.75
-18.32
-71.12
-118.86
-158.87
-188.02
-204.02
-206.36
-194.33
-169.07
-133.83
-93.57
-54.0
-19.99
5.1
19.64
23.7
23.03
24.89
36.51
63.25
107.25
166.71
235.5
304.27
363.01
409.99
446.84
476.37
500.46
519.37
533.2
543.08
551.88
563.59
589.79
638.28
708.42
789.97
866.29
921.42
945.65
938.08
859.03
693.65
453.91
177.08
-92.5
-323.78
-505.12
-637.79
-728.18
-783.54
-803.93
-791.34
-752.25
-696.77
-635.67
-576.76
-523.15
-474.96
-431.25
-385.97
-335.45
-281.4
-229.19
-185.56
-155.18
-139.44
-137.13
-145.56
-158.63
-171.19
-181.62
-190.36
-198.77
-207.54
-216.17
-223.73
-229.52
-233.51
-229.63
-216.68
-195.72
-169.46
-141.15
-114.06
-91.43
-76.06
-71.48
-79.75
-102.21
-137.73
-183.2
-233.52
-282.27
-322.76
-348.91
-359.39
-354.63
-337.57
-312.27
-283.75
-257.41
-237.95
-228.76
-216.22
-194.21
-163.04
-128.88
-98.57
-76.0
-61.94
-55.46
-55.12
-58.38
-64.13
-68.57
-66.32
-52.93
-28.06
3.46
33.42
52.05
57.95
52.32
40.45
29.33
24.94
30.36
45.68
69.32
100.03
134.95
169.9
201.79
228.44
248.48
260.87
265.25
261.96
252.52
239.39
224.63
210.16
197.19
186.16
177.03
169.98
165.02
161.56
157.45
148.55
130.43
100.64
60.77
16.48
-24.38
-55.03
-72.45
-78.04
-76.06
-71.0
-65.56
-60.24
-54.48
-48.05
-41.72
-36.96
-34.74
-34.78
-35.6
-35.34
-32.39
-26.27
-17.54
-7.26
3.34
13.73
24.17
35.34
47.72
61.32
74.94
86.63
94.23
95.97
91.04
79.75
63.43
43.85
22.89
2.4
-16.45
-32.88
-46.51
-57.14
-64.68
-69.15
-70.84
-70.31
-68.43
-66.1
-64.04
-62.79
-62.7
-64.19
-66.98
-70.96
-76.0
-81.89
-88.54
-94.74
-99.18
-100.4
-97.2
-88.97
-76.12
-59.98
-42.33
-25.12
-9.86
2.54
11.97
18.89
23.93
27.42
29.41
29.86
28.95
27.39
26.12
26.24
28.17
31.49
34.59
35.37
31.93
22.94
8.52
-11.31
-35.45
-61.37
-84.79
-100.44
-103.54
-92.0
-68.06
-37.99
-9.82
9.4
16.47
12.56
1.58
-12.12
-25.63
-37.74
-47.98
-55.57
-58.51
-54.69
-43.19
-25.13
-3.48
17.75
34.7
44.71
46.7
41.16
29.56
13.75
-4.35
-22.84
-39.78
-53.2
-60.93
-61.03
-52.34
-34.93
-10.72
16.92
44.36
68.31
86.43
98.08
104.03
105.97
105.73
104.61
102.94
100.57
96.97
91.83
85.58
79.31
74.36
71.58
71.06
72.02
73.16
73.24
71.51
68.24
64.34
60.97
59.18
59.74
63.19
69.43
77.16
82.8
81.89
70.55
47.69
16.44
-16.41
-42.8
-56.72
-56.71
-45.77
-29.23
-12.01
3.41
17.1
30.03
42.41
52.72
58.04
55.49
43.81
23.98
-0.97
-26.4
-48.39
-64.55
-74.63
-80.1
-83.44
-86.49
-90.55
-95.29
-100.49
-106.29
-112.11
-116.09
-114.58
-103.89
-82.78
-54.66
-27.52
-10.18
-8.74
-22.31
-43.06
-59.66
-62.79
-49.25
-22.72
8.99
37.96
59.06
70.85
74.09
69.94
59.09
41.92
19.47
-6.13
-31.67
-54.0
-70.78
-81.82
-89.01
-95.03
-101.84
-108.49
-111.32
-105.28
-87.11
-57.59
-22.09
11.25
35.68
47.66
48.13
41.18
31.51
22.16
13.89
5.96
-2.45
-11.41
-20.2
-27.91
-34.01
-38.51
-41.64
-43.68
-44.19
-42.48
-37.95
-30.52
-20.78
-9.91
0.65
9.65
16.55
21.5
25.22
28.64
32.42
36.82
41.74
46.86
51.72
56.0
59.24
60.81
60.06
56.39
49.56
40.11
29.35
19.07
11.2
6.94
6.53
9.19
13.73
18.92
24.18
29.77
35.42
42.49
52.13
65.17
81.53
99.18
113.76
119.34
110.61
85.76
48.41
6.66
-29.63
-52.61
-59.64
-53.66
-40.83
-27.28
-16.72
-10.35
-8.02
-8.86
-11.22
-12.85
-10.92
-3.31
9.89
25.14
37.64
42.67
37.89
24.29
4.92
-16.68
-38.01
-57.93
-75.79
-90.52
-100.39
-104.21
-101.57
-93.77
-83.2
-72.18
-62.1
-52.51
-41.51
-26.81
-7.22
16.67
42.37
66.22
84.85
96.13
100.11
98.56
94.15
89.3
85.89
85.27
88.04
93.52
99.42
101.97
95.59
78.13
50.92
19.16
-9.94
-30.39
-40.06
-40.95
-37.9
-34.98
-34.16
-35.12
-36.08
-35.43
-32.22
-27.22
-21.82
-16.2
-10.08
-3.53
3.2
9.52
14.67
18.05
19.55
19.84
19.97
20.57
20.78
19.17
14.3
5.29
-7.73
-23.55
-39.94
-54.59
-66.62
-78.36
-93.86
-117.18
-150.29
-191.27
-233.99
-269.65
-290.29
-285.33
-252.92
-197.77
-129.33
-59.35
0.36
40.81
58.31
55.8
42.14
28.34
25.1
38.9
69.66
109.76
145.96
166.11
166.53
152.48
131.55
108.79
85.16
59.53
31.26
1.87
-25.49
-47.86
-64.41
-77.39
-90.15
-105.25
-123.17
-142.86
-160.95
-173.48
-177.43
-172.07
-159.65
-144.02
-128.9
-116.96
-109.56
-106.03
-104.87
-104.4
-103.49
-102.15
-100.91
-100.01
-98.83
-98.52
-98.34
-96.95
-93.02
-85.74
-75.23
-62.29
-47.8
-32.52
-16.84
-0.17
18.41
39.98
65.26
94.14
125.51
157.98
189.39
217.4
240.36
257.27
268.25
274.58
278.33
281.71
287.08
294.73
302.64
307.31
305.23
294.75
277.44
257.61
240.7
232.41
235.13
247.35
264.99
283.37
299.16
311.03
318.82
322.64
323.66
321.79
315.63
302.91
281.14
248.44
203.9
147.94
73.44
-17.38
-114.19
-202.02
-268.14
-307.56
-323.37
-323.24
-315.21
-304.75
-292.73
-278.72
-262.76
-246.18
-231.01
-218.59
-208.85
-200.54
-191.98
-180.94
-166.99
-151.46
-136.62
-124.37
-115.36
-108.86
-103.51
-98.12
-91.48
-83.43
-74.74
-66.58
-59.81
-54.75
-51.04
-48.13
-45.56
-42.75
-39.42
-35.5
-31.26
-27.05
-23.15
-19.2
-14.17
-6.57
4.74
19.72
36.59
52.28
64.13
70.36
71.26
68.58
64.23
58.96
52.21
42.76
30.04
15.0
-0.06
-12.22
-19.74
-22.62
-22.44
-21.24
-20.4
-19.97
-19.06
-16.89
-13.23
-8.76
-4.47
-0.67
3.28
9.05
18.62
33.39
53.25
76.43
99.98
120.39
134.57
140.15
136.37
123.87
104.39
80.09
53.12
25.58
-0.35
-22.2
-37.74
-44.88
-42.95
-33.29
-19.38
-5.87
2.7
3.31
-2.73
-13.25
-24.53
-32.96
-36.28
-34.49
-29.38
-23.39
-18.3
-14.56
-11.78
-8.92
-5.37
-1.22
2.8
5.78
7.24
7.44
7.24
7.75
10.2
15.21
22.58
31.09
38.82
44.05
45.95
44.94
42.13
38.91
35.94
33.0
29.26
24.07
17.41
9.87
2.35
-4.64
-11.03
-17.26
-23.83
-31.08
-38.92
-46.82
-54.19
-60.52
-65.66
-69.83
-73.71
-78.0
-83.19
-89.24
-95.48
-100.89
-104.49
-105.71
-104.63
-101.99
-98.68
-95.43
-92.47
-89.63
-86.54
-83.02
-79.15
-75.32
-71.88
-69.08
-66.94
-65.38
-64.34
-63.75
-63.4
-62.74
-61.03
-57.52
-51.72
-43.81
-34.49
-24.8
-15.83
-8.44
-2.97
0.79
3.56
6.55
10.9
17.53
26.78
38.26
51.06
64.11
76.45
87.48
96.95
104.69
110.66
114.82
117.25
118.12
117.53
115.32
111.04
104.08
93.96
80.86
65.5
48.77
31.3
13.08
-6.3
-26.91
-48.07
-68.27
-85.67
-99.04
-108.4
-114.75
-119.47
-123.37
-126.37
-127.65
-126.42
-122.18
-114.88
-104.67
-91.61
-75.91
-58.32
-40.32
-23.69
-9.74
1.67
12.07
23.63
37.76
54.02
70.24
83.55
91.99
95.37
95.16
93.38
91.43
89.32
85.97
80.12
71.41
60.71
49.86
40.87
35.05
32.69
33.0
34.51
35.71
35.57
33.71
30.38
26.15
21.49
16.62
11.45
5.68
-0.75
-7.53
-13.96
-19.24
-22.9
-24.88
-25.58
-25.53
-25.07
-24.2
-22.73
-20.58
-17.83
-14.76
-11.49
-7.79
-3.18
2.77
9.98
17.68
24.65
29.87
32.98
34.48
35.45
37.13
40.3
45.06
50.92
56.87
61.78
64.68
65.03
62.99
59.37
55.49
52.46
50.76
49.93
48.54
44.58
36.22
22.49
3.64
-18.5
-41.14
-61.0
-75.45
-83.43
-85.89
-85.34
-84.59
-85.43
-87.6
-89.29
-88.23
-83.43
-75.84
-67.8
-61.84
-59.12
-59.06
-59.85
-59.8
-58.31
-56.33
-55.51
-57.16
-61.67
-68.29
-75.65
-81.9
-85.1
-83.61
-76.71
-65.41
-52.28
-40.71
-33.2
-30.0
-28.66
-24.97
-14.97
3.38
29.23
59.66
90.96
120.05
144.75
163.56
175.38
179.42
176.01
166.88
155.11
144.31
137.51
136.07
139.37
145.18
150.39
152.18
148.8
139.83
126.13
109.39
91.52
74.05
57.61
41.68
24.92
5.71
-17.18
-43.98
-73.5
-103.33
-130.51
-152.48
-167.87
-176.73
-180.22
-179.96
-177.24
-172.79
-166.73
-158.96
-149.54
-138.85
-127.54
-116.75
-107.99
-103.21
-104.25
-111.81
-124.41
-137.86
-145.98
-142.35
-122.73
-86.73
-38.11
16.63
70.33
117.07
153.23
177.28
189.4
190.87
184.05
172.3
159.59
149.58
144.68
145.5
150.9
158.69
166.42
171.95
173.57
169.85
159.77
142.88
120.0
93.29
65.93
41.25
21.62
7.68
-1.64
-8.28
-14.09
-19.94
-25.88
-31.76
-37.87
-45.33
-55.41
-68.8
-84.75
-100.98
-114.28
-121.66
-121.35
-113.33
-99.3
-81.83
-63.62
-46.89
-33.05
-22.87
-16.53
-13.91
-14.59
-17.88
-22.84
-28.42
-33.7
-38.15
-41.65
-44.41
-46.77
-49.05
-51.42
-53.93
-56.45
-58.82
-60.74
-61.98
-62.44
-62.27
-61.86
-61.76
-62.59
-64.77
-68.47
-73.44
-79.23
-85.19
-90.55
-94.33
-95.31
-92.12
-83.54
-68.83
-48.07
-22.29
6.67
36.68
65.75
92.32
115.34
134.18
148.34
157.52
161.61
160.91
156.18
148.62
139.56
130.29
121.68
114.13
107.66
102.07
97.24
93.27
90.36
88.68
88.13
88.21
88.08
86.73
83.21
77.03
68.12
56.92
44.07
30.21
15.63
0.29
-15.98
-33.18
-50.61
-66.91
-80.37
-89.63
-94.2
-94.78
-92.86
-90.12
-87.88
-86.63
-86.19
-86.01
-85.55
-84.34
-82.2
-79.07
-75.04
-70.29
-65.06
-59.73
-54.67
-50.23
-46.44
-42.98
-39.21
-34.54
-28.8
-22.46
-16.5
-11.7
-7.9
-3.74
3.06
14.7
32.37
55.65
82.75
111.24
138.85
163.78
184.75
200.8
211.25
216.09
216.13
212.74
207.1
199.34
188.05
170.82
145.57
111.79
71.35
27.95
-13.95
-50.6
-79.66
-100.56
-113.98
-121.27
-124.03
-123.95
-122.75
-121.94
-122.54
-124.86
-128.64
-133.34
-138.47
-143.76
-149.0
-153.96
-158.16
-160.74
-160.57
-156.54
-147.73
-133.68
-114.64
-91.62
-66.42
-41.33
-18.71
-0.44
12.52
20.14
23.3
23.25
21.42
19.14
17.45
16.99
17.92
19.98
22.45
24.53
25.53
25.21
23.86
22.03
20.25
18.76
17.53
16.33
14.9
13.1
10.87
8.27
5.34
2.14
-1.26
-4.82
-8.46
-12.22
-16.16
-20.33
-24.7
-29.21
-33.73
-38.14
-42.34
-46.32
-50.2
-54.27
-59.1
-65.34
-73.49
-83.55
-94.72
-105.54
-114.31
-119.68
-121.17
-119.21
-114.97
-109.8
-104.81
-100.57
-97.0
-93.43
-88.64
-81.17
-69.65
-53.48
-33.21
-10.61
11.8
31.6
47.24
58.31
65.41
69.57
71.86
73.2
74.37
76.03
78.64
82.16
85.93
88.75
89.36
87.1
82.26
76.24
71.17
69.54
73.45
84.08
101.17
122.87
146.1
167.16
182.67
190.16
188.48
177.68
158.77
133.35
103.61
72.19
42.07
16.19
-3.05
-14.34
-17.78
-14.81
-7.84
0.41
7.62
12.38
14.5
14.81
14.64
15.23
17.38
21.33
27.06
34.59
43.95
55.07
67.33
79.41
89.62
96.54
99.71
99.84
98.44
96.86
95.49
93.43
88.93
80.3
66.88
49.41
29.84
10.64
-5.99
-18.53
-26.46
-30.27
-31.39
-32.13
-35.25
-43.38
-58.22
-79.99
-107.4
-138.22
-170.07
-201.08
-230.08
-256.37
-279.27
-297.91
-311.17
-317.86
-317.06
-308.42
-292.3
-269.91
-243.08
-213.77
-183.39
-152.38
-120.17
-85.69
-48.25
-8.31
32.32
70.98
104.87
131.87
151.01
162.52
167.72
168.52
167.21
166.0
166.68
170.08
175.8
182.24
187.14
188.42
184.79
176.21
163.72
148.86
133.04
117.2
101.75
86.82
72.46
58.68
45.42
32.39
19.22
5.8
-7.39
-19.1
-27.63
-31.45
-29.76
-23.02
-12.85
-1.6
8.47
15.96
20.77
24.09
27.85
33.99
43.81
57.62
74.82
94.08
113.56
130.98
143.9
150.06
148.14
138.17
121.53
100.5
77.19
52.78
27.23
-0.32
-30.57
-63.35
-97.32
-130.42
-160.55
-186.34
-207.35
-224.02
-237.23
-247.82
-256.15
-261.96
-264.35
-262.06
-254.15
-240.64
-223.11
-204.4
-187.65
-174.99
-166.6
-160.68
-154.35
-145.1
-131.8
-114.95
-96.0
-76.29
-56.32
-35.63
-13.11
12.36
41.49
74.42
110.55
148.2
184.51
215.58
237.32
246.72
242.77
226.83
202.11
172.51
141.49
111.41
83.59
58.89
38.04
21.68
10.03
2.6
-2.01
-5.62
-9.91
-15.8
-23.14
-30.89
-37.55
-41.8
-42.92
-41.05
-36.95
-31.43
-24.86
-17.08
-7.66
3.51
15.57
26.82
35.31
39.92
41.06
40.55
40.67
42.89
47.0
51.13
52.63
49.39
40.84
28.11
13.48
-0.46
-11.92
-20.45
-26.93
-32.98
-40.09
-48.75
-58.08
-66.11
-70.52
-69.54
-62.59
-50.28
-34.3
-17.25
-2.59
5.71
4.04
-9.11
-31.52
-56.92
-76.84
-84.25
-77.3
-60.85
-44.48
-37.74
-45.1
-63.52
-83.83
-95.13
-89.71
-65.69
-26.81
20.13
68.11
111.53
146.27
169.03
177.01
168.44
143.65
105.86
60.93
16.01
-22.28
-49.49
-64.22
-67.97
-64.17
-56.72
-48.57
-40.86
-32.95
-23.09
-9.54
8.45
30.04
52.91
73.99
90.44
100.67
104.87
105.09
104.45
106.01
111.51
120.67
131.33
140.44
145.45
145.41
141.4
135.99
132.27
132.66
138.08
147.54
158.38
166.67
168.08
159.13
138.52
108.09
73.0
40.43
17.32
7.88
11.9
24.89
39.79
49.74
50.32
40.63
22.58
-0.54
-25.72
-51.06
-75.75
-99.44
-121.69
-141.6
-158.17
-170.85
-179.96
-186.75
-192.92
-199.67
-207.02
-213.51
-216.66
-214.03
-204.37
-188.16
-167.29
-144.16
-120.52
-97.08
-73.92
-51.32
-30.45
-13.35
-2.17
1.86
-0.78
-8.0
-16.84
-24.55
-29.37
-30.65
-28.55
-23.49
-15.78
-5.63
6.83
21.29
37.02
52.82
67.13
78.26
84.86
86.38
83.37
77.26
69.78
62.17
54.65
46.53
36.97
25.96
14.76
5.51
0.19
-0.59
2.14
6.14
9.13
9.87
8.6
6.54
4.92
4.36
4.56
4.83
4.57
3.71
2.63
1.99
2.35
3.94
6.64
9.95
13.27
16.18
18.74
21.55
25.51
31.35
39.0
47.6
55.66
61.81
65.31
66.24
65.2
62.9
59.88
56.45
52.97
49.78
47.22
45.5
44.57
44.24
44.41
45.15
46.49
48.18
49.32
48.55
44.41
35.87
22.76
5.78
-13.77
-34.44
-54.8
-73.5
-89.1
-100.07
-105.05
-103.28
-95.05
-82.04
-66.96
-52.97
-42.64
-37.15
-35.95
-37.19
-38.57
-38.39
-36.08
-32.06
-27.13
-21.73
-15.51
-7.55
3.04
16.47
31.9
47.61
61.54
71.92
77.65
78.57
75.38
69.3
61.83
54.24
47.4
41.5
36.19
30.66
24.02
15.65
5.5
-5.91
-17.59
-28.42
-37.48
-44.23
-48.57
-50.8
-51.37
-50.8
-49.56
-48.01
-46.43
-44.93
-43.52
-42.08
-40.57
-38.97
-37.39
-35.99
-34.94
-34.47
-34.79
-36.12
-38.67
-42.53
-47.47
-52.96
-58.15
-62.05
-63.86
-63.14
-59.94
-54.77
-48.44
-41.66
-34.95
-28.57
-22.47
-16.51
-10.4
-3.87
3.25
10.94
18.85
26.3
32.38
36.34
37.65
36.3
32.65
27.24
20.63
13.22
5.28
-3.0
-11.3
-19.28
-26.57
-32.75
-37.28
-39.38
-38.14
-32.79
-23.11
-9.78
5.52
20.59
33.34
42.45
47.72
49.88
50.22
49.95
49.89
50.15
50.35
49.71
47.39
42.91
36.36
28.51
20.51
13.48
8.05
4.32
1.93
0.36
-0.92
-2.43
-4.85
-8.86
-14.81
-22.29
-29.87
-35.5
-37.29
-34.31
-27.03
-17.03
-6.3
3.62
12.19
19.71
26.72
33.41
39.33
43.61
45.49
44.89
42.51
39.65
37.77
38.04
41.07
46.69
53.88
60.82
65.07
64.15
56.13
40.11
15.91
-16.48
-57.21
-106.05
-161.2
-218.26
-270.54
-310.92
-334.43
-340.07
-330.66
-310.7
-283.88
-251.5
-213.15
-168.58
-119.71
-70.94
-27.94
4.6
24.64
32.99
32.45
26.29
17.32
7.44
-2.13
-10.51
-16.83
-20.32
-20.39
-17.04
-10.96
-3.33
4.58
12.03
19.08
26.51
35.15
45.33
56.63
68.11
78.93
88.76
97.86
106.6
115.03
122.62
128.52
132.05
132.94
131.26
127.24
121.0
112.72
102.76
91.72
80.33
69.18
58.54
48.56
39.51
32.11
27.47
26.66
30.19
37.6
47.55
58.36
68.46
76.83
83.06
87.09
88.87
88.12
84.34
77.07
66.24
52.43
36.81
20.84
5.81
-7.49
-18.9
-28.59
-36.79
-43.57
-48.76
-52.1
-53.57
-53.46
-52.35
-51.06
-50.27
-50.46
-51.73
-53.83
-56.3
-58.58
-60.08
-60.15
-58.17
-53.73
-46.77
-37.76
-27.58
-17.28
-7.75
0.52
7.36
12.88
17.18
20.32
22.33
23.32
23.57
23.39
23.02
22.51
21.81
20.81
19.46
17.71
15.52
12.84
9.65
6.09
2.4
-1.11
-4.22
-6.88
-9.24
-11.52
-13.88
-16.32
-18.55
-20.1
-20.45
-19.16
-16.09
-11.44
-5.71
0.42
6.31
11.56
15.98
19.59
22.4
24.37
25.51
25.89
25.72
25.38
25.09
24.9
24.63
23.96
22.64
20.71
18.49
16.46
15.06
14.41
14.31
14.34
14.01
13.06
11.53
9.74
8.16
7.21
7.17
8.14
10.09
12.87
16.23
19.85
23.3
26.1
27.72
27.76
26.05
22.88
18.84
14.72
11.22
8.59
6.71
5.21
3.76
2.23
0.82
-0.24
-0.87
-1.29
-1.98
-3.37
-5.61
-8.49
-11.59
-14.44
-16.88
-19.02
-21.16
-23.58
-26.33
-29.23
-31.97
-34.22
-35.87
-36.99
-37.81
-38.61
-39.6
-40.83
-42.18
-43.28
-43.71
-42.99
-40.85
-37.21
-32.35
-26.69
-20.77
-15.02
-9.72
-5.07
-1.17
1.88
4.07
5.51
6.45
7.2
7.95
8.75
9.45
9.91
10.01
9.8
9.34
8.77
8.12
7.42
6.69
5.97
5.33
4.8
4.38
4.0
3.5
2.76
1.62
0.06
-1.82
-3.8
-5.64
-7.2
-8.56
-9.93
-11.51
-13.27
-14.78
-15.35
-14.31
-11.39
-6.86
-1.45
3.98
8.76
12.63
15.71
18.21
20.33
22.09
23.44
24.44
25.27
26.17
27.23
28.35
29.16
29.26
28.37
26.49
23.78
20.56
17.08
13.61
10.32
7.3
4.56
1.9
-1.0
-4.33
-8.05
-11.77
-14.9
-16.94
-17.8
-17.84
-17.73
-18.06
-19.05
-20.54
-22.1
-23.28
-23.8
-23.47
-22.14
-19.62
-15.79
-10.69
-4.72
1.44
7.03
11.45
14.49
16.4
17.72
19.04
20.69
22.6
24.39
25.43
25.15
23.27
19.95
15.77
11.61
8.34
6.58
6.56
7.99
10.22
12.52
14.23
14.98
14.72
13.64
12.06
10.32
8.7
7.39
6.45
5.74
5.06
4.16
2.96
1.51
0.02
-1.27
-2.22
-2.85
-3.38
-4.12
-5.32
-6.93
-8.54
-9.29
-8.1
-4.0
3.42
13.64
25.18
35.96
44.03
48.24
48.59
46.16
42.47
38.93
36.36
35.04
35.03
36.47
39.7
45.04
52.41
60.95
69.23
75.53
78.45
77.41
72.81
65.72
57.42
48.9
40.43
31.68
22.02
10.94
-1.6
-15.07
-28.64
-41.52
-53.06
-62.98
-71.09
-77.29
-81.56
-83.99
-84.91
-84.81
-84.23
-83.52
-82.76
-81.8
-80.26
-77.6
-73.17
-66.4
-56.97
-45.03
-31.27
-16.72
-2.47
10.73
22.49
32.71
41.31
48.03
52.42
54.06
52.67
48.23
40.91
30.88
18.27
3.22
-13.87
-32.21
-50.69
-68.07
-83.35
-96.06
-106.36
-114.79
-121.8
-127.33
-130.67
-130.72
-126.59
-118.11
-106.09
-92.12
-77.9
-64.65
-52.79
-42.14
-32.35
-23.48
-16.22
-11.73
-11.29
-15.64
-24.74
-37.52
-52.0
-65.57
-75.54
-79.68
-76.59
-65.92
-48.29
-25.22
0.97
27.42
50.99
68.74
78.64
80.28
75.1
66.09
56.91
50.77
49.56
53.59
61.75
72.2
83.01
92.57
99.83
104.13
105.12
102.65
96.77
87.8
76.25
62.82
48.06
32.26
15.33
-2.89
-22.25
-41.99
-60.55
-76.06
-87.05
-93.11
-95.03
-94.33
-92.21
-88.74
-82.59
-71.66
-54.43
-31.06
-3.95
23.16
46.48
63.54
73.8
78.2
78.23
74.97
68.88
60.06
49.04
37.18
26.38
18.49
14.47
14.04
15.93
18.49
20.38
21.12
20.96
20.48
20.08
19.67
18.66
16.35
12.41
7.15
1.49
-3.52
-7.21
-9.56
-11.12
-12.65
-14.64
-17.14
-19.83
-22.33
-24.48
-26.43
-28.42
-30.57
-32.64
-34.06
-34.16
-32.48
-28.94
-23.99
-18.27
-12.47
-6.98
-1.88
3.13
8.4
14.14
20.29
26.43
32.03
36.61
39.89
41.84
42.64
42.57
41.95
41.1
40.25
39.62
39.25
39.03
38.78
38.23
37.21
35.69
33.8
31.78
29.92
28.45
27.44
26.86
26.5
26.01
25.04
23.3
20.67
17.17
12.88
7.79
1.79
-5.31
-13.55
-22.64
-31.87
-40.24
-46.85
-51.09
-52.87
-52.55
-50.69
-47.78
-44.15
-39.88
-34.97
-29.58
-24.02
-18.7
-14.0
-10.16
-7.11
-4.66
-2.45
-0.12
2.41
5.06
7.5
9.39
10.51
10.9
10.81
10.55
10.27
9.86
9.03
7.43
4.88
1.5
-2.36
-6.18
-9.49
-11.91
-13.24
-13.44
-12.64
-11.22
-9.8
-9.13
-9.93
-12.55
-16.79
-21.96
-26.9
-30.43
-31.64
-30.13
-26.09
-20.19
-13.38
-6.63
-0.73
3.94
7.37
9.81
11.64
13.09
14.17
14.63
14.18
12.6
9.96
6.59
3.03
-0.17
-2.47
-3.53
-3.2
-1.53
1.14
4.16
6.75
8.17
8.0
6.25
3.32
-0.23
-3.85
-7.19
-10.03
-12.28
-13.87
-14.74
-14.78
-13.84
-11.71
-8.11
-3.01
3.24
9.71
15.15
18.36
18.82
16.85
13.62
10.6
9.16
10.32
14.76
22.85
34.41
48.38
62.48
73.65
78.84
76.31
66.34
51.07
33.54
16.35
0.91
-12.43
-23.48
-31.36
-34.41
-30.94
-20.43
-4.24
14.61
32.53
46.77
56.16
61.12
62.93
62.75
61.06
57.82
52.89
46.59
39.78
33.58
28.79
25.58
23.39
21.23
18.13
13.45
7.06
-0.7
-9.13
-17.37
-24.47
-29.54
-32.09
-32.1
-30.1
-27.0
-23.62
-20.45
-17.51
-14.53
-11.24
-7.74
-4.58
-2.58
-2.48
-4.62
-8.78
-14.34
-20.48
-26.4
-31.53
-35.51
-38.12
-39.34
-39.23
-37.98
-35.8
-32.87
-29.37
-25.46
-21.3
-17.07
-12.93
-8.86
-4.71
-0.28
4.48
9.29
13.54
16.58
18.02
17.87
16.67
15.09
13.67
12.56
11.52
10.12
8.05
5.41
2.56
0.07
-1.64
-2.53
-2.95
-3.49
-4.66
-6.59
-8.98
-11.34
-13.2
-14.46
-15.36
-16.29
-17.59
-19.38
-21.54
-23.81
-26.04
-28.11
-29.94
-31.37
-32.09
-31.65
-29.69
-26.05
-20.95
-15.0
-9.02
-3.76
0.32
3.19
5.2
6.69
7.91
8.81
9.16
8.77
7.7
6.3
5.03
4.27
4.04
4.1
4.02
3.41
2.1
0.12
-2.32
-4.97
-7.66
-10.33
-12.99
-15.65
-18.26
-20.72
-22.91
-24.8
-26.43
-27.94
-29.47
-30.98
-32.14
-32.41
-31.07
-27.67
-22.13
-14.86
-6.64
1.6
9.03
15.1
19.48
22.1
23.04
22.54
21.01
18.94
16.8
14.91
13.34
11.99
10.77
9.61
8.58
7.79
7.26
6.82
6.19
5.08
3.35
1.03
-1.68
-4.53
-7.31
-9.95
-12.5
-15.14
-18.07
-21.42
-25.13
-28.93
-32.3
-34.53
-34.98
-33.19
-29.06
-22.95
-15.51
-7.51
0.3
7.36
13.38
18.26
22.04
24.81
26.59
27.43
27.43
26.78
25.81
24.88
24.27
24.05
24.16
24.46
24.76
24.98
25.03
24.73
23.89
22.29
19.82
16.52
12.58
8.33
4.07
0.03
-3.79
-7.41
-10.91
-14.24
-17.23
-19.62
-21.11
-21.61
-21.36
-20.88
-20.77
-21.54
-23.41
-26.18
-29.29
-31.96
-33.28
-32.43
-28.88
-22.56
-14.0
-4.29
5.41
14.07
21.25
26.97
31.54
35.19
37.92
39.59
40.07
39.63
38.69
37.74
37.07
36.71
36.45
36.05
35.45
34.72
34.02
33.45
32.95
32.42
31.8
31.06
30.18
29.14
27.86
26.28
24.44
22.51
20.73
19.33
18.27
17.3
16.1
14.4
12.15
9.61
7.18
5.26
4.11
3.66
3.62
3.59
3.21
2.26
0.84
-0.92
-2.79
-4.64
-6.51
-8.48
-10.65
-13.16
-16.13
-19.55
-23.37
-27.33
-31.1
-34.38
-36.99
-38.98
-40.58
-42.07
-43.63
-45.38
-47.29
-49.23
-50.86
-51.57
-50.54
-46.97
-40.35
-30.86
-19.42
-7.47
3.5
12.43
19.0
23.54
26.71
29.12
31.02
32.27
32.61
31.89
30.34
28.51
27.02
26.3
26.37
26.99
27.74
28.4
28.85
29.12
29.18
28.9
28.07
26.54
24.38
21.88
19.46
17.46
15.98
14.9
13.88
12.64
11.04
9.16
7.24
5.51
4.07
2.9
1.85
0.85
-0.05
-0.75
-1.19
-1.47
-1.84
-2.57
-3.81
-5.47
-7.26
-8.86
-10.14
-11.23
-12.5
-14.3
-16.79
-19.81
-22.9
-25.58
-27.5
-28.69
-29.43
-30.21
-31.4
-33.18
-35.41
-37.67
-39.31
-39.55
-37.69
-33.32
-26.55
-18.04
-8.78
0.11
7.85
14.01
18.66
22.05
24.39
25.79
26.33
26.16
25.55
24.87
24.34
24.0
23.68
23.13
22.24
21.08
19.92
18.97
18.43
18.23
18.22
18.21
18.03
17.59
16.85
15.8
14.37
12.66
10.72
8.63
6.44
4.14
1.74
-0.73
-3.18
-5.45
-7.4
-8.99
-10.21
-11.11
-11.77
-12.25
-12.63
-12.98
-13.38
-13.9
-14.62
-15.57
-16.73
-18.08
-19.54
-20.99
-22.35
-23.59
-24.79
-26.17
-27.91
-30.07
-32.44
-34.52
-35.57
-34.78
-31.56
-25.77
-17.82
-8.64
0.58
8.69
14.9
18.93
21.02
21.72
21.62
21.16
20.52
19.64
18.47
17.0
15.32
13.66
12.26
11.35
10.97
11.07
11.37
11.6
11.59
11.32
10.95
10.66
10.51
10.41
10.04
9.09
7.49
5.43
3.33
1.58
0.34
-0.57
-1.53
-3.0
-5.24
-8.22
-11.65
-15.13
-18.25
-20.8
-22.88
-24.75
-26.75
-29.18
-32.15
-35.54
-39.03
-42.04
-43.93
-44.09
-41.98
-37.37
-30.43
-21.72
-12.14
-2.7
5.76
12.63
17.65
20.9
22.6
23.07
22.64
21.61
20.23
18.71
17.2
15.84
14.78
14.19
14.16
14.67
15.51
16.31
16.68
16.24
14.89
12.7
9.92
6.81
3.59
0.35
-2.83
-5.88
-8.7
-11.13
-13.09
-14.66
-16.05
-17.53
-19.28
-21.3
-23.44
-25.53
-27.47
-29.36
-31.42
-33.83
-36.55
-39.16
-40.9
-40.84
-38.24
-32.86
-25.08
-15.89
-6.6
1.62
8.07
12.64
15.72
17.82
19.35
20.38
20.77
20.36
19.17
17.55
16.02
15.12
15.14
16.04
17.5
19.1
20.55
21.7
22.63
23.47
24.27
24.96
25.29
24.96
23.72
21.61
18.93
16.11
13.59
11.6
10.06
8.68
7.17
5.31
3.17
0.96
-1.03
-2.65
-3.9
-4.92
-5.86
-6.74
-7.55
-8.15
-8.51
-8.75
-9.09
-9.9
-11.46
-13.84
-16.84
-20.08
-23.13
-25.67
-27.72
-29.4
-31.02
-32.86
-35.07
-37.76
-40.96
-44.5
-47.9
-50.42
-51.04
-48.98
-43.91
-36.18
-26.75
-16.79
-7.37
0.85
7.59
12.88
16.87
19.71
21.61
22.78
23.53
24.14
24.84
25.65
26.48
27.09
27.36
27.28
27.06
27.02
27.43
28.41
29.86
31.55
33.17
34.39
34.94
34.6
33.29
31.12
28.39
25.59
23.13
21.28
20.0
18.97
17.85
16.38
14.52
12.36
10.12
7.98
6.12
4.64
3.6
3.01
2.77
2.67
2.42
1.81
0.73
-0.75
-2.41
-3.96
-5.27
-6.4
-7.67
-9.47
-12.03
-15.33
-19.01
-22.56
-25.5
-27.71
-29.42
-31.1
-33.2
-35.88
-38.99
-42.19
-45.18
-47.9
-50.48
-53.03
-55.35
-56.76
-56.22
-52.73
-45.8
-35.79
-23.87
-11.6
-0.45
8.66
15.46
20.25
23.62
26.13
28.14
29.78
30.96
31.57
31.58
31.12
30.51
30.13
30.25
30.92
31.86
32.72
33.19
33.16
32.68
31.92
30.92
29.58
27.79
25.44
22.7
19.94
17.65
16.21
15.75
16.05
16.6
16.84
16.4
15.13
13.22
10.94
8.62
6.38
4.25
2.14
-0.02
-2.21
-4.34
-6.26
-7.9
-9.3
-10.68
-12.22
-14.11
-16.34
-18.84
-21.45
-24.01
-26.44
-28.68
-30.68
-32.38
-33.72
-34.67
-35.34
-36.03
-37.09
-38.89
-41.53
-44.64
-47.37
-48.55
-47.06
-42.31
-34.56
-24.8
-14.5
-4.96
2.98
9.08
13.54
16.74
19.0
20.51
21.47
22.08
22.63
23.35
24.26
25.2
25.93
26.22
26.03
25.54
25.06
24.95
25.4
26.34
27.45
28.27
28.36
27.51
25.84
23.72
21.61
19.91
18.72
18.03
17.61
17.31
17.02
16.67
16.2
15.51
14.52
13.13
11.39
9.41
7.38
5.42
3.61
1.96
0.45
-0.9
-2.09
-3.13
-4.15
-5.27
-6.59
-8.04
-9.5
-10.78
-11.84
-12.83
-14.12
-16.12
-19.15
-23.19
-27.87
-32.6
-36.75
-39.92
-42.18
-43.94
-45.83
-48.47
-52.09
-56.47
-60.89
-64.32
-65.59
-63.76
-58.33
-49.41
-37.79
-24.66
-11.42
0.72
10.81
18.42
23.54
26.64
28.37
29.45
30.41
31.46
32.46
33.09
33.08
32.4
31.33
30.27
29.61
29.52
29.87
30.43
30.92
31.13
31.0
30.53
29.78
28.74
27.45
25.9
24.16
22.39
20.69
19.21
17.96
16.97
16.17
15.52
14.93
14.27
13.46
12.45
11.27
10.05
8.9
7.87
6.92
5.97
4.94
3.88
2.88
2.02
1.24
0.37
-0.87
-2.62
-4.85
-7.35
-9.83
-12.01
-13.76
-15.16
-16.45
-18.03
-20.16
-22.89
-25.96
-28.88
-31.2
-32.63
-33.27
-33.54
-34.08
-35.4
-37.81
-41.28
-45.41
-49.49
-52.57
-53.61
-51.75
-46.65
-38.59
-28.58
-18.02
-8.18
0.04
6.44
11.3
15.15
18.39
21.17
23.37
24.77
25.36
25.29
24.91
24.66
24.85
25.63
26.88
28.31
29.57
30.51
31.06
31.22
31.05
30.5
29.49
28.04
26.3
24.51
22.9
21.58
20.43
19.3
18.01
16.54
14.93
13.32
11.85
10.61
9.64
8.96
8.47
7.93
7.11
5.85
4.14
2.17
0.14
-1.77
-3.54
-5.21
-6.84
-8.42
-9.87
-11.13
-12.27
-13.47
-14.97
-17.03
-19.73
-22.96
-26.41
-29.68
-32.49
-34.66
-36.32
-37.78
-39.43
-41.52
-44.04
-46.63
-48.66
-49.31
-47.82
-43.69
-36.9
-27.96
-17.87
-7.8
1.15
8.27
13.32
16.51
18.25
19.06
19.39
19.51
19.62
19.77
20.02
20.44
21.07
21.91
22.93
24.01
24.95
25.54
25.58
25.07
24.1
22.88
21.56
20.16
18.55
16.48
13.86
10.73
7.35
4.1
1.26
-1.05
-2.95
-4.66
-6.42
-8.34
-10.38
-12.46
-14.44
-16.27
-18.0
-19.79
-21.75
-23.92
-26.26
-28.67
-31.1
-33.58
-36.18
-38.76
-40.97
-42.07
-41.2
-37.71
-31.5
-23.08
-13.47
-3.9
4.69
11.68
16.99
20.78
23.37
25.07
26.11
26.68
26.9
26.91
26.85
26.81
26.91
27.24
27.87
28.82
30.02
31.28
32.4
33.12
33.32
32.9
31.91
30.41
28.49
26.26
23.86
21.47
19.23
17.27
15.64
14.3
13.19
12.22
11.35
10.52
9.67
8.74
7.64
6.39
5.0
3.54
2.06
0.56
-0.99
-2.7
-4.63
-6.8
-9.11
-11.45
-13.67
-15.66
-17.43
-19.08
-20.81
-22.83
-25.31
-28.21
-31.35
-34.42
-37.07
-39.17
-40.77
-42.19
-43.87
-46.21
-49.33
-53.12
-57.03
-60.24
-61.73
-60.53
-56.03
-48.17
-37.67
-25.82
-14.23
-4.26
3.4
8.78
12.64
15.9
19.29
22.98
26.64
29.74
31.84
32.93
33.28
33.38
33.63
34.22
35.05
36.0
36.96
37.83
38.57
38.97
38.81
37.85
36.03
33.49
30.63
27.86
25.52
23.73
22.39
21.31
20.23
19.02
17.7
16.4
15.34
14.66
14.37
14.29
14.18
13.71
12.78
11.39
9.74
7.96
6.15
4.34
2.45
0.47
-1.58
-3.61
-5.52
-7.18
-8.58
-9.74
-10.66
-11.4
-11.98
-12.51
-13.16
-14.22
-15.9
-18.35
-21.48
-25.02
-28.65
-32.03
-34.96
-37.36
-39.26
-40.79
-42.09
-43.42
-45.18
-47.77
-51.42
-55.93
-60.52
-63.9
-64.71
-61.88
-55.13
-45.13
-33.23
-21.05
-9.91
-0.61
6.69
12.3
16.68
20.29
23.36
25.92
27.89
29.19
29.85
30.13
30.39
30.99
32.02
33.32
34.51
35.28
35.58
35.63
35.76
36.14
36.65
36.91
36.53
35.31
33.3
30.83
28.24
25.84
23.8
22.14
20.85
19.89
19.19
18.66
18.17
17.56
16.76
15.72
14.46
13.05
11.58
10.09
8.6
7.09
5.56
4.07
2.71
1.55
0.55
-0.42
-1.58
-3.1
-5.08
-7.42
-9.88
-12.23
-14.31
-16.17
-18.06
-20.33
-23.25
-26.83
-30.82
-34.73
-38.03
-40.42
-41.9
-42.86
-43.9
-45.63
-48.46
-52.38
-57.0
-61.55
-65.0
-66.25
-64.37
-58.86
-49.91
-38.44
-25.91
-13.92
-3.79
3.83
9.13
12.83
15.91
19.08
22.6
26.27
29.64
32.32
34.12
35.13
35.51
35.46
35.1
34.52
33.87
33.35
33.19
33.45
34.03
34.57
34.64
33.89
32.24
29.87
27.15
24.55
22.51
21.29
20.94
21.29
21.98
22.58
22.77
22.37
21.47
20.2
18.79
17.35
15.9
14.36
12.59
10.51
8.09
5.38
2.51
-0.31
-2.93
-5.27
-7.37
-9.34
-11.28
-13.14
-14.76
-15.92
-16.54
-16.78
-17.02
-17.74
-19.29
-21.78
-25.0
-28.52
-31.92
-34.88
-37.44
-39.87
-42.6
-46.09
-50.57
-55.9
-61.37
-65.89
-68.09
-66.79
-61.41
-52.22
-40.35
-27.42
-15.16
-4.82
3.0
8.39
11.93
14.42
16.53
18.68
20.99
23.29
25.37
27.01
28.17
28.97
29.62
30.3
31.07
31.89
32.68
33.41
34.06
34.61
34.96
34.83
33.95
32.08
29.23
25.69
21.98
18.64
16.07
14.39
13.4
12.67
11.74
10.28
8.22
5.75
3.25
1.07
-0.64
-2.08
-3.79
-6.35
-10.11
-14.98
-20.39
-25.55
-29.74
-32.74
-34.76
-36.36
-38.14
-40.52
-43.68
-47.52
-51.59
-55.11
-57.02
-56.18
-51.8
-43.77
-32.81
-20.35
-8.04
2.72
11.13
17.1
21.08
23.77
25.85
27.78
29.69
31.49
32.98
34.06
34.8
35.41
36.08
36.88
37.68
38.31
38.64
38.73
38.78
38.95
39.2
39.28
38.76
37.35
34.99
32.01
28.88
26.14
24.09
22.73
21.83
21.05
20.11
18.86
17.35
15.73
14.26
13.12
12.43
12.14
12.03
11.74
10.95
9.5
7.48
5.22
3.09
1.35
0.03
-1.1
-2.39
-4.21
-6.82
-10.26
-14.25
-18.35
-22.0
-24.77
-26.54
-27.52
-28.22
-29.22
-30.93
-33.42
-36.49
-39.73
-42.73
-45.2
-47.01
-48.25
-49.23
-50.41
-52.31
-55.26
-59.15
-63.3
-66.38
-66.86
-63.42
-55.61
-44.07
-30.42
-16.63
-4.42
5.29
12.44
17.65
21.72
25.31
28.73
32.01
35.03
37.64
39.67
40.99
41.59
41.52
40.95
40.15
39.43
39.06
39.14
39.63
40.34
40.99
41.29
41.03
40.06
38.44
36.32
33.94
31.56
29.41
27.61
26.12
24.83
23.56
22.2
20.69
19.04
17.34
15.65
14.08
12.73
11.67
10.91
10.3
9.59
8.52
6.97
4.99
2.81
0.69
-1.22
-2.91
-4.54
-6.26
-8.12
-10.09
-12.08
-13.98
-15.77
-17.46
-19.04
-20.57
-22.13
-23.84
-25.9
-28.5
-31.73
-35.51
-39.59
-43.59
-47.1
-49.88
-51.95
-53.6
-55.29
-57.48
-60.35
-63.62
-66.51
-67.88
-66.5
-61.45
-52.51
-40.29
-26.2
-12.02
0.59
10.53
17.48
21.83
24.4
26.12
27.66
29.31
31.05
32.71
34.1
35.13
35.84
36.31
36.6
36.75
36.76
36.72
36.82
37.29
38.29
39.68
41.09
41.93
41.7
40.16
37.51
34.23
30.94
28.06
25.72
23.77
21.91
19.97
17.82
15.62
13.53
11.74
10.38
9.45
8.86
8.39
7.82
6.97
5.8
4.32
2.59
0.67
-1.49
-3.94
-6.67
-9.53
-12.23
-14.52
-16.32
-17.87
-19.6
-22.0
-25.35
-29.5
-34.01
-38.27
-41.78
-44.38
-46.28
-47.92
-49.9
-52.73
-56.66
-61.54
-66.72
-71.09
-73.25
-71.92
-66.31
-56.51
-43.51
-28.97
-14.77
-2.49
6.95
13.35
17.22
19.37
20.66
21.72
22.86
24.08
25.23
26.18
26.84
27.26
27.54
27.71
27.71
27.43
26.76
25.71
24.44
23.13
21.93
20.76
19.35
17.33
14.51
11.03
7.35
4.11
1.79
0.51
-0.04
-0.49
-1.45
-3.32
-6.09
-9.46
-12.96
-16.19
-18.94
-21.34
-23.71
-26.52
-30.18
-34.96
-40.84
-47.38
-53.7
-58.55
-60.59
-58.75
-52.66
-42.86
-30.71
-17.94
-6.09
3.87
11.67
17.56
22.01
25.47
28.29
30.71
32.91
34.98
36.8
38.14
38.66
38.28
37.2
35.96
35.17
35.28
36.37
38.12
40.04
41.53
42.17
41.75
40.26
37.92
35.05
32.12
29.59
27.79
26.83
26.51
26.4
26.0
24.9
23.05
20.61
17.95
15.5
13.51
12.07
11.05
10.21
9.33
8.29
7.1
5.82
4.57
3.38
2.15
0.68
-1.17
-3.46
-6.09
-8.84
-11.52
-13.98
-16.22
-18.44
-20.88
-23.75
-27.16
-31.06
-35.32
-39.8
-44.34
-48.84
-53.16
-57.15
-60.69
-63.78
-66.53
-69.29
-72.43
-76.02
-79.67
-82.28
-82.35
-78.51
-70.09
-57.47
-42.14
-26.19
-11.66
0.09
8.63
14.43
18.37
21.32
23.89
26.37
28.79
31.06
33.08
34.77
36.13
37.24
38.23
39.33
40.73
42.59
44.96
47.76
50.74
53.54
55.69
56.75
56.52
55.01
52.58
49.71
46.9
44.45
42.5
41.05
40.06
39.46
39.18
39.06
38.85
38.32
37.33
35.89
34.19
32.4
30.69
29.09
27.58
26.06
24.45
22.48
19.69
15.47
9.22
0.67
-9.82
-21.3
-32.5
-42.21
-49.63
-54.4
-56.34
-55.33
-51.29
-44.41
-35.57
-26.29
-18.45
-13.66
-12.71
-15.38
-20.68
-27.37
-34.4
-41.25
-47.61
-53.38
-58.44
-62.67
-66.13
-69.06
-71.68
-73.98
-75.5
-75.14
-71.69
-64.28
-52.95
-38.92
-24.24
-11.09
-0.9
6.05
10.63
14.31
18.35
23.35
29.08
34.77
39.74
43.65
46.61
48.97
50.85
52.12
52.45
51.59
49.76
47.68
46.35
46.59
48.66
52.09
55.86
58.81
60.05
59.16
56.24
51.53
45.29
37.64
28.69
18.67
8.07
-2.42
-12.01
-20.04
-26.16
-30.35
-32.88
-34.24
-34.94
-35.48
-36.25
-37.48
-39.16
-41.0
-42.54
-43.35
-43.3
-42.61
-41.86
-41.77
-42.87
-45.36
-48.98
-53.07
-56.66
-58.8
-58.69
-56.1
-51.48
-46.01
-41.25
-38.62
-38.66
-40.76
-43.24
-43.9
-40.9
-33.39
-21.74
-7.38
7.8
21.97
33.83
42.7
48.56
51.79
53.04
53.03
52.37
51.46
50.5
49.39
48.03
46.36
44.47
42.61
41.1
40.27
40.35
41.49
43.61
46.45
49.47
51.9
52.96
52.09
49.17
44.58
39.05
33.31
27.91
23.08
18.8
14.99
11.59
8.61
5.99
3.6
1.18
-1.52
-4.61
-8.05
-11.57
-14.95
-18.03
-20.92
-23.87
-27.3
-31.54
-36.81
-43.13
-50.19
-57.43
-63.89
-68.5
-70.1
-67.97
-61.95
-52.66
-41.27
-29.12
-17.35
-6.66
2.73
10.96
18.25
24.8
30.74
36.0
40.43
43.66
45.15
44.26
40.58
34.08
25.32
15.36
5.43
-3.36
-10.32
-15.2
-18.07
-19.11
-18.49
-16.37
-13.05
-9.05
-5.1
-1.95
-0.08
0.43
-0.08
-1.06
-2.0
-2.61
-2.97
-3.31
-3.79
-4.28
-4.31
-3.34
-1.13
2.09
5.54
8.29
9.73
9.85
9.24
8.66
8.71
9.43
10.46
11.38
11.92
12.08
12.03
11.77
11.03
9.38
6.42
2.01
-3.6
-9.86
-16.01
-21.3
-25.16
-27.32
-27.92
-27.41
-26.44
-25.77
-25.94
-27.2
-29.41
-32.08
-34.5
-36.01
-36.24
-35.32
-33.98
-33.34
-34.52
-38.19
-44.07
-50.86
-56.51
-58.88
-56.48
-48.92
-37.13
-23.01
-8.77
3.75
13.62
20.9
26.32
30.79
34.97
39.03
42.67
45.49
47.28
48.24
48.89
49.77
51.11
52.67
53.91
54.29
53.7
52.51
51.38
50.86
51.03
51.46
51.37
50.05
47.26
43.28
38.79
34.56
31.15
28.66
26.82
25.03
22.73
19.64
15.83
11.72
7.83
4.6
2.22
0.73
0.07
0.21
1.09
2.57
4.37
6.12
7.42
7.96
7.63
6.45
4.61
2.33
-0.32
-3.36
-6.94
-11.15
-15.96
-21.05
-25.94
-30.14
-33.44
-35.95
-38.07
-40.22
-42.7
-45.47
-48.32
-50.91
-53.03
-54.63
-55.83
-56.9
-58.26
-60.32
-63.38
-67.41
-71.84
-75.55
-77.13
-75.2
-68.92
-58.34
-44.37
-28.67
-12.99
1.07
12.55
21.09
26.87
30.43
32.38
33.35
33.9
34.41
35.05
35.7
36.1
35.99
35.23
33.92
32.23
30.3
28.22
26.03
23.86
21.95
20.53
19.62
18.94
17.99
16.35
13.94
11.18
8.74
7.2
6.71
6.93
7.3
7.33
6.74
5.51
3.61
0.93
-2.65
-7.1
-12.09
-17.08
-21.56
-25.35
-28.69
-32.17
-36.4
-41.71
-47.95
-54.42
-59.9
-62.95
-62.22
-56.94
-47.28
-34.41
-20.22
-6.75
4.47
12.79
18.51
22.39
25.28
27.69
29.81
31.58
32.87
33.64
33.96
33.94
33.77
33.58
33.45
33.41
33.4
33.28
32.84
31.9
30.26
27.83
24.59
20.64
16.14
11.31
6.35
1.45
-3.23
-7.58
-11.53
-15.08
-18.28
-21.23
-24.08
-26.98
-30.15
-33.77
-38.02
-42.96
-48.46
-54.02
-58.82
-61.77
-61.76
-58.02
-50.35
-39.29
-26.08
-12.36
0.32
10.9
19.08
25.29
30.26
34.62
38.58
41.87
44.0
44.6
43.73
41.92
39.98
38.68
38.46
39.39
41.21
43.49
45.85
47.89
49.24
49.55
48.54
46.08
42.34
37.75
32.91
28.44
24.78
22.09
20.31
19.19
18.42
17.73
16.9
15.87
14.69
13.48
12.39
11.54
10.95
10.55
10.19
9.63
8.7
7.25
5.24
2.71
-0.13
-3.06
-5.79
-8.12
-9.97
-11.41
-12.69
-14.06
-15.74
-17.76
-19.97
-22.12
-23.95
-25.37
-26.41
-27.35
-28.46
-30.05
-32.31
-35.28
-38.83
-42.66
-46.34
-49.4
-51.58
-52.96
-54.02
-55.58
-58.44
-62.93
-68.59
-74.11
-77.61
-77.22
-71.73
-61.07
-46.4
-29.72
-13.27
1.11
12.38
20.38
25.6
28.88
31.06
32.79
34.46
36.18
37.87
39.35
40.39
40.85
40.72
40.12
39.3
38.55
38.12
38.21
38.84
39.89
41.0
41.75
41.69
40.5
38.17
34.92
31.22
27.6
24.55
22.3
20.86
19.92
19.06
17.93
16.38
14.51
12.62
10.98
9.73
8.81
8.0
7.09
6.0
4.78
3.48
2.22
0.97
-0.32
-1.73
-3.25
-4.77
-6.14
-7.27
-8.17
-9.03
-10.15
-11.8
-14.06
-16.81
-19.69
-22.25
-24.21
-25.51
-26.35
-27.0
-27.62
-28.28
-28.91
-29.47
-29.96
-30.37
-30.69
-30.84
-30.71
-30.35
-30.02
-30.31
-31.87
-35.02
-39.46
-44.15
-47.47
-47.83
-44.14
-36.35
-25.39
-12.97
-0.95
9.11
16.39
20.82
22.94
23.59
23.63
23.77
24.47
25.9
27.96
30.39
32.8
34.8
36.1
36.63
36.55
36.13
35.65
35.29
35.08
34.89
34.54
33.82
32.57
30.7
28.19
25.17
21.89
18.73
16.08
14.17
12.99
12.25
11.53
10.48
8.97
7.16
5.37
3.87
2.69
1.61
0.27
-1.62
-4.06
-6.84
-9.57
-11.95
-13.9
-15.56
-17.19
-19.03
-21.21
-23.73
-26.55
-29.62
-32.83
-36.05
-39.11
-41.86
-44.25
-46.48
-48.96
-52.03
-55.72
-59.45
-62.03
-61.95
-57.97
-49.67
-37.7
-23.6
-9.31
3.47
13.62
20.78
25.22
27.55
28.5
28.75
28.79
28.88
29.02
29.07
28.88
28.49
28.06
27.81
27.85
28.13
28.47
28.75
29.04
29.45
30.04
30.62
30.77
30.03
28.16
25.36
22.14
19.14
16.81
15.26
14.27
13.48
12.65
11.67
10.66
9.73
8.95
8.27
7.58
6.76
5.73
4.49
3.08
1.55
-0.06
-1.7
-3.36
-5.09
-6.98
-9.07
-11.41
-13.9
-16.4
-18.74
-20.86
-22.87
-24.97
-27.34
-30.04
-32.98
-35.96
-38.77
-41.24
-43.3
-45.01
-46.57
-48.27
-50.49
-53.58
-57.6
-62.18
-66.36
-68.68
-67.62
-62.2
-52.33
-39.07
-24.33
-10.19
1.65
10.4
16.22
19.83
22.19
23.96
25.47
26.7
27.56
28.01
28.11
28.12
28.34
29.06
30.37
32.13
34.03
35.71
36.87
37.45
37.45
36.97
36.04
34.63
32.67
30.21
27.49
24.89
22.74
21.22
20.23
19.49
18.71
17.77
16.71
15.68
14.78
13.96
13.14
12.25
11.32
10.5
9.94
9.6
9.3
8.75
7.74
6.36
4.83
3.42
2.23
1.17
-0.05
-1.68
-3.83
-6.45
-9.31
-12.21
-14.99
-17.56
-19.84
-21.9
-23.84
-25.87
-28.26
-31.22
-34.74
-38.54
-42.17
-45.13
-47.19
-48.46
-49.38
-50.66
-52.89
-56.36
-60.87
-65.64
-69.46
-70.88
-68.73
-62.41
-52.21
-39.19
-24.99
-11.33
0.39
9.37
15.55
19.41
21.82
23.66
25.69
28.23
31.18
34.14
36.57
38.15
38.85
38.94
38.78
38.64
38.61
38.64
38.74
38.88
39.11
39.32
39.28
38.62
37.06
34.59
31.44
28.11
25.09
22.7
21.1
20.15
19.64
19.24
18.64
17.62
16.13
14.37
12.74
11.65
11.29
11.47
11.74
11.54
10.58
9.0
7.21
5.66
4.57
3.78
2.95
1.75
0.08
-1.98
-4.2
-6.46
-8.73
-10.96
-13.13
-15.22
-17.26
-19.47
-22.14
-25.47
-29.48
-33.92
-38.34
-42.33
-45.69
-48.42
-50.77
-53.07
-55.71
-59.02
-63.14
-67.7
-71.82
-74.09
-73.0
-67.52
-57.5
-43.91
-28.53
-13.43
-0.3
9.9
17.14
22.06
25.58
28.51
31.25
33.77
35.77
37.05
37.6
37.76
38.02
38.7
39.8
41.04
42.03
42.57
42.76
42.87
43.12
43.49
43.62
43.08
41.56
39.14
36.16
33.11
30.41
28.2
26.34
24.56
22.63
20.46
18.21
16.19
14.69
13.88
13.68
13.84
14.06
14.1
13.81
13.17
12.23
11.01
9.57
8.0
6.41
4.91
3.47
1.96
0.19
-1.98
-4.59
-7.53
-10.63
-13.79
-16.98
-20.27
-23.74
-27.44
-31.26
-35.04
-38.5
-41.42
-43.71
-45.44
-46.85
-48.29
-50.21
-52.96
-56.72
-61.15
-65.38
-68.04
-67.58
-62.93
-53.95
-41.67
-27.93
-14.79
-3.77
4.51
10.3
14.36
17.47
20.2
22.87
25.66
28.66
31.81
34.89
37.54
39.4
40.28
40.25
39.7
39.06
38.67
38.64
38.86
39.06
38.97
38.37
37.18
35.4
33.15
30.57
27.85
25.21
22.89
21.07
19.83
19.07
18.53
17.91
16.98
15.69
14.16
12.62
11.29
10.31
9.63
9.08
8.42
7.47
6.2
4.73
3.27
2.04
1.1
0.38
-0.35
-1.29
-2.59
-4.26
-6.19
-8.27
-10.36
-12.44
-14.49
-16.53
-18.6
-20.77
-23.08
-25.58
-28.24
-30.98
-33.68
-36.15
-38.24
-39.9
-41.2
-42.42
-43.95
-46.22
-49.42
-53.28
-56.95
-59.11
-58.41
-53.89
-45.46
-34.03
-21.23
-8.87
1.62
9.59
15.11
18.72
21.1
22.72
23.84
24.57
25.02
25.35
25.7
26.15
26.65
27.11
27.4
27.46
27.38
27.31
27.4
27.7
28.08
28.34
28.18
27.43
26.06
24.2
22.02
19.67
17.25
14.82
12.51
10.41
8.6
7.04
5.68
4.35
3.0
1.66
0.4
-0.71
-1.72
-2.7
-3.79
-5.08
-6.73
-8.84
-11.53
-14.86
-18.69
-22.73
-26.58
-29.87
-32.45
-34.4
-36.06
-37.84
-40.15
-43.18
-46.83
-50.59
-53.55
-54.6
-52.66
-47.16
-38.25
-26.98
-14.87
-3.59
5.61
12.23
16.46
18.96
20.49
21.63
22.6
23.43
24.03
24.35
24.39
24.21
23.89
23.5
23.17
23.01
23.19
23.81
24.91
26.42
28.11
29.64
30.65
30.88
30.23
28.83
26.95
24.86
22.82
20.94
19.28
17.85
16.71
15.87
15.28
14.73
13.97
12.77
11.16
9.31
7.55
6.06
4.83
3.66
2.29
0.6
-1.27
-3.06
-4.56
-5.81
-7.08
-8.68
-10.7
-12.94
-14.95
-16.34
-17.04
-17.38
-17.95
-19.3
-21.64
-24.78
-28.24
-31.43
-34.02
-35.91
-37.34
-38.7
-40.45
-42.99
-46.47
-50.64
-54.72
-57.58
-57.92
-54.81
-47.96
-37.93
-26.02
-13.83
-2.87
5.85
11.94
15.61
17.39
18.04
18.3
18.69
19.48
20.59
21.7
22.42
22.54
22.07
21.32
20.76
20.72
21.37
22.51
23.83
24.98
25.77
26.13
26.11
25.71
24.9
23.59
21.8
19.71
17.64
15.9
14.62
13.72
12.93
12.02
11.08
10.45
10.53
11.65
13.69
16.22
18.57
20.13
20.47
19.58
17.61
14.8
11.44
7.79
4.05
0.4
-3.06
-6.28
-9.22
-11.79
-13.95
-15.71
-17.25
-18.86
-20.86
-23.45
-26.59
-30.08
-33.56
-36.72
-39.36
-41.48
-43.21
-44.87
-46.81
-49.34
-52.46
-55.76
-58.26
-58.67
-55.9
-49.44
-39.75
-28.1
-16.1
-5.23
3.61
10.17
14.74
17.8
19.84
21.3
22.47
23.58
24.73
25.83
26.72
27.24
27.36
27.19
26.95
26.78
26.72
26.76
26.88
27.14
27.58
28.13
28.59
28.64
27.92
26.24
23.68
20.6
17.5
14.83
12.78
11.3
10.18
9.14
8.11
7.1
6.23
5.58
5.07
4.46
3.55
2.17
0.31
-1.92
-4.45
-7.28
-10.45
-14.03
-17.94
-21.93
-25.68
-28.82
-31.16
-32.77
-34.01
-35.37
-37.33
-40.21
-43.96
-48.22
-52.2
-54.75
-54.74
-51.29
-44.16
-34.01
-22.2
-10.51
-0.52
6.9
11.79
14.85
17.02
19.08
21.27
23.47
25.37
26.67
27.39
27.7
27.86
28.07
28.38
28.72
29.03
29.31
29.58
29.85
29.97
29.71
28.8
27.15
24.81
22.07
19.26
16.66
14.44
12.72
11.55
10.9
10.67
10.59
10.36
9.66
8.37
6.57
4.53
2.56
0.87
-0.56
-1.92
-3.53
-5.65
-8.48
-12.03
-16.11
-20.42
-24.57
-28.24
-31.21
-33.54
-35.5
-37.49
-40.0
-43.39
-47.67
-52.4
-56.86
-60.22
-61.89
-61.82
-60.5
-58.96
-58.46
-60.01
-64.04
-70.17
-77.21
-83.39
-86.74
-85.52
-78.63
-65.93
-48.2
-26.95
-4.11
18.44
39.17
57.01
71.41
82.15
89.34
93.31
94.53
93.63
91.25
87.88
83.71
78.84
73.29
67.29
61.25
55.57
50.56
46.26
42.49
38.9
35.22
31.34
27.3
23.3
19.45
15.81
12.37
9.03
5.73
2.49
-0.66
-3.67
-6.54
-9.38
-12.4
-15.79
-19.72
-24.28
-29.44
-35.09
-40.96
-46.47
-50.81
-52.96
-52.02
-47.57
-39.9
-29.95
-19.13
-8.86
-0.14
6.69
11.84
15.91
19.41
22.66
25.61
27.96
29.39
29.74
29.12
27.84
26.35
24.99
24.0
23.46
23.23
23.17
23.06
22.73
22.04
20.92
19.36
17.45
15.25
12.82
10.22
7.51
4.8
2.24
-0.03
-2.02
-3.76
-5.41
-7.1
-8.9
-10.81
-12.71
-14.46
-16.0
-17.31
-18.39
-19.24
-19.92
-20.57
-21.5
-23.08
-25.59
-28.97
-32.66
-35.68
-36.86
-35.26
-30.52
-23.0
-13.66
-3.76
5.47
13.18
18.93
22.79
25.25
26.92
28.39
30.04
31.86
33.58
34.81
35.21
34.68
33.44
31.85
30.26
28.93
27.92
27.16
26.5
25.82
24.99
23.92
22.53
20.78
18.66
16.25
13.62
10.94
8.3
5.85
3.66
1.76
0.11
-1.41
-3.03
-5.01
-7.51
-10.61
-14.19
-18.01
-21.82
-25.4
-28.62
-31.49
-34.08
-36.53
-39.01
-41.68
-44.51
-47.29
-49.5
-50.39
-49.17
-45.26
-38.5
-29.35
-18.8
-8.12
1.53
9.39
15.25
19.41
22.41
24.82
27.01
29.07
30.99
32.61
33.83
34.6
34.9
34.84
34.58
34.33
34.22
34.23
34.17
33.83
33.01
31.66
29.77
27.42
24.62
21.4
17.71
13.58
9.13
4.56
0.2
-3.63
-6.7
-8.93
-10.4
-11.41
-12.33
-13.44
-14.88
-16.52
-18.12
-19.47
-20.55
-21.6
-22.97
-25.06
-28.1
-32.06
-36.54
-40.82
-44.0
-45.08
-43.35
-38.55
-31.06
-21.79
-11.96
-2.71
5.13
11.24
15.74
18.98
21.33
23.02
24.19
24.86
25.06
24.87
24.37
23.7
23.03
22.5
22.28
22.48
23.11
24.08
25.19
26.18
26.82
26.96
26.53
25.55
24.16
22.47
20.69
18.97
17.47
16.29
15.44
14.78
14.1
13.16
11.75
9.95
7.93
6.03
4.43
3.18
2.13
1.11
0.03
-1.05
-1.93
-2.53
-2.9
-3.21
-3.64
-4.19
-4.76
-5.25
-5.65
-6.13
-6.94
-8.24
-9.97
-11.88
-13.65
-15.05
-16.09
-16.94
-17.89
-19.18
-20.93
-23.08
-25.49
-27.94
-30.21
-32.16
-33.76
-35.1
-36.41
-37.94
-39.87
-42.3
-45.04
-47.62
-49.28
-49.11
-46.3
-40.49
-31.98
-21.75
-11.26
-1.9
5.39
10.42
13.58
15.6
17.11
18.47
19.75
20.89
21.83
22.61
23.27
23.82
24.28
24.56
24.62
24.46
24.13
23.69
23.24
22.82
22.44
22.09
21.61
20.85
19.69
18.05
16.02
13.78
11.57
9.63
8.06
6.81
5.76
4.73
3.59
2.26
0.8
-0.72
-2.25
-3.74
-5.2
-6.63
-8.11
-9.72
-11.52
-13.54
-15.71
-17.88
-19.81
-21.38
-22.52
-23.42
-24.34
-25.54
-27.23
-29.55
-32.47
-35.77
-38.97
-41.29
-41.85
-39.91
-35.15
-27.92
-19.16
-10.15
-2.09
4.27
8.77
11.74
13.77
15.38
16.89
18.29
19.39
19.94
19.81
19.04
17.8
16.35
14.9
13.57
12.4
11.41
10.63
10.11
9.87
9.75
9.46
8.61
6.93
4.39
1.29
-1.87
-4.57
-6.47
-7.6
-8.24
-8.77
-9.53
-10.63
-12.01
-13.47
-14.83
-15.9
-16.72
-17.44
-18.33
-19.73
-21.89
-24.92
-28.68
-32.78
-36.58
-39.33
-40.29
-38.87
-34.91
-28.71
-21.07
-13.02
-5.52
0.85
5.93
9.95
13.29
16.26
18.95
21.25
23.05
24.31
25.1
25.53
25.7
25.68
25.48
25.18
24.88
24.67
24.55
24.41
24.01
23.21
21.98
20.47
18.89
17.44
16.18
15.01
13.85
12.65
11.43
10.28
9.26
8.39
7.66
7.06
6.52
5.94
5.17
4.02
2.33
0.1
-2.52
-5.29
-7.96
-10.33
-12.43
-14.39
-16.41
-18.64
-21.09
-23.65
-26.11
-28.26
-30.05
-31.58
-33.11
-35.02
-37.55
-40.71
-44.17
-47.2
-48.87
-48.24
-44.72
-38.25
-29.38
-19.21
-9.02
0.04
7.31
12.63
16.32
18.89
20.82
22.45
23.83
24.96
25.69
26.03
25.97
25.61
25.14
24.7
24.52
24.73
25.46
26.65
28.16
29.62
30.64
30.87
30.12
28.46
26.12
23.48
20.9
18.69
17.08
16.15
15.83
15.87
15.96
15.75
15.06
13.88
12.41
10.87
9.43
8.07
6.6
4.83
2.68
0.22
-2.35
-4.77
-6.88
-8.57
-9.92
-11.12
-12.34
-13.74
-15.37
-17.18
-19.05
-20.9
-22.68
-24.41
-26.19
-28.06
-30.08
-32.33
-34.9
-37.82
-40.94
-43.79
-45.56
-45.32
-42.31
-36.39
-28.13
-18.66
-9.33
-1.2
5.26
10.16
13.95
17.08
19.73
21.83
23.21
23.75
23.59
23.07
22.55
22.31
22.43
22.83
23.35
23.88
24.34
24.76
25.19
25.54
25.63
25.29
24.36
22.85
20.95
18.91
17.04
15.54
14.44
13.65
13.02
12.35
11.53
10.49
9.29
8.02
6.77
5.61
4.52
3.47
2.42
1.32
0.14
-1.16
-2.61
-4.19
-5.81
-7.25
-8.34
-9.06
-9.58
-10.27
-11.53
-13.55
-16.23
-19.26
-22.15
-24.55
-26.29
-27.42
-28.17
-28.84
-29.8
-31.33
-33.6
-36.47
-39.44
-41.72
-42.3
-40.4
-35.69
-28.48
-19.64
-10.4
-1.92
4.95
9.91
13.17
15.21
16.61
17.76
18.87
19.89
20.66
21.04
21.01
20.7
20.31
20.04
19.92
19.88
19.78
19.55
19.22
18.96
18.87
18.87
18.81
18.44
17.6
16.32
14.77
13.12
11.53
10.08
8.72
7.41
6.06
4.61
2.99
1.21
-0.75
-2.77
-4.71
-6.45
-7.91
-9.17
-10.4
-11.81
-13.58
-15.73
-18.08
-20.36
-22.3
-23.78
-24.92
-26.01
-27.35
-29.22
-31.68
-34.56
-37.41
-39.53
-40.09
-38.36
-33.99
-27.16
-18.73
-9.88
-1.91
4.3
8.4
10.67
11.78
12.45
13.26
14.41
15.79
17.06
17.92
18.23
18.13
17.86
17.7
17.82
18.21
18.77
19.36
19.89
20.34
20.64
20.71
20.46
19.81
18.72
17.2
15.36
13.38
11.4
9.54
7.81
6.1
4.31
2.42
0.49
-1.32
-2.93
-4.39
-5.91
-7.74
-10.01
-12.65
-15.38
-17.9
-20.04
-21.82
-23.44
-25.17
-27.21
-29.67
-32.59
-35.87
-39.23
-42.15
-43.84
-43.51
-40.58
-35.01
-27.39
-18.79
-10.38
-3.08
2.73
7.1
10.36
12.88
14.89
16.47
17.56
18.14
18.22
17.89
17.3
16.67
16.24
16.16
16.51
17.15
17.88
18.41
18.51
18.04
17.0
15.51
13.72
11.75
9.67
7.47
5.14
2.64
0.02
-2.6
-5.13
-7.49
-9.73
-11.91
-14.13
-16.4
-18.68
-20.93
-23.19
-25.52
-27.88
-30.04
-31.42
-31.34
-29.2
-24.81
-18.47
-10.96
-3.22
3.91
9.89
14.53
17.83
19.93
20.94
20.99
20.21
18.73
16.75
14.55
12.53
11.12
10.67
11.28
12.73
14.51
16.01
16.79
16.62
15.56
13.74
11.23
8.05
4.21
-0.13
-4.61
-8.73
-12.12
-14.54
-16.03
-16.85
-17.34
-17.92
-19.01
-20.92
-23.76
-27.27
-30.75
-33.27
-33.81
-31.73
-26.96
-20.05
-11.97
-3.83
3.49
9.5
14.13
17.63
20.39
22.7
24.68
26.35
27.64
28.51
28.98
29.07
28.81
28.31
27.71
27.22
27.12
27.49
28.23
29.04
29.53
29.43
28.72
27.53
26.08
24.55
22.95
21.27
19.51
17.81
16.4
15.46
15.03
14.92
14.8
14.3
13.27
11.76
10.04
8.38
6.95
5.67
4.36
2.91
1.31
-0.21
-1.45
-2.4
-3.28
-4.51
-6.44
-9.21
-12.5
-15.75
-18.33
-19.82
-20.19
-19.8
-19.24
-19.03
-19.47
-20.53
-21.97
-23.52
-25.05
-26.64
-28.53
-30.96
-34.03
-37.65
-41.45
-44.84
-47.01
-47.14
-44.59
-39.21
-31.49
-22.47
-13.49
-5.67
0.36
4.65
7.7
10.17
12.59
15.14
17.81
20.43
22.87
25.02
26.84
28.27
29.24
29.74
29.81
29.55
29.12
28.69
28.44
28.46
28.77
29.23
29.59
29.55
28.83
27.36
25.25
22.78
20.27
18.06
16.3
15.04
14.22
13.64
13.07
12.29
11.24
10.0
8.82
7.91
7.37
7.09
6.8
6.3
5.52
4.56
3.58
2.67
1.74
0.65
-0.66
-2.26
-4.05
-5.92
-7.79
-9.55
-11.12
-12.35
-13.17
-13.61
-13.87
-14.27
-15.13
-16.65
-18.75
-21.2
-23.67
-25.89
-27.73
-29.25
-30.68
-32.27
-34.22
-36.57
-39.17
-41.65
-43.41
-43.79
-42.16
-38.18
-32.02
-24.34
-16.17
-8.61
-2.4
2.13
5.23
7.42
9.26
11.19
13.37
15.77
18.23
20.58
22.59
24.07
24.85
24.86
24.19
23.11
21.99
21.21
21.01
21.37
21.98
22.4
22.3
21.49
20.08
18.34
16.57
14.99
13.69
12.64
11.75
10.94
10.12
9.19
8.15
7.05
6.03
5.23
4.73
4.45
4.21
3.82
3.14
2.2
1.12
0.07
-0.84
-1.57
-2.19
-2.8
-3.46
-4.23
-5.08
-6.02
-7.04
-8.09
-9.09
-9.95
-10.55
-10.92
-11.21
-11.77
-12.93
-14.91
-17.55
-20.45
-23.06
-24.98
-26.11
-26.74
-27.39
-28.62
-30.69
-33.52
-36.62
-39.22
-40.48
-39.71
-36.56
-31.12
-23.97
-15.99
-8.18
-1.44
3.74
7.3
9.57
11.07
12.29
13.54
14.93
16.38
17.73
18.81
19.5
19.7
19.41
18.7
17.73
16.76
16.03
15.72
15.76
15.97
16.04
15.75
15.0
13.87
12.51
11.13
9.86
8.77
7.81
6.95
6.15
5.49
5.06
4.96
5.18
5.59
5.97
6.03
5.59
4.63
3.27
1.72
0.17
-1.34
-2.83
-4.42
-6.18
-8.09
-10.12
-12.15
-14.17
-16.18
-18.28
-20.49
-22.77
-25.02
-27.14
-29.18
-31.25
-33.4
-35.43
-36.79
-36.75
-34.68
-30.36
-24.09
-16.69
-9.16
-2.4
3.0
6.88
9.43
11.0
12.0
12.74
13.34
13.76
13.92
13.76
13.37
13.0
12.88
13.14
13.78
14.62
15.5
16.33
17.1
17.9
18.78
19.64
20.27
20.43
19.96
18.92
17.55
16.18
15.03
14.12
13.24
12.15
10.75
9.15
7.66
6.55
5.9
5.6
5.37
4.97
4.33
3.54
2.73
1.95
1.16
0.15
-1.28
-3.15
-5.33
-7.54
-9.45
-10.88
-11.89
-12.71
-13.71
-15.17
-17.17
-19.55
-22.08
-24.45
-26.51
-28.22
-29.72
-31.14
-32.67
-34.43
-36.57
-39.16
-42.15
-45.26
-47.93
-49.36
-48.78
-45.63
-39.86
-32.03
-23.12
-14.28
-6.51
-0.42
3.87
6.63
8.43
9.93
11.65
13.86
16.49
19.2
21.56
23.23
24.19
24.67
24.98
25.41
26.06
26.87
27.76
28.59
29.3
29.77
29.91
29.53
28.48
26.75
24.42
21.75
19.06
16.7
14.89
13.71
13.07
12.75
12.54
12.27
11.91
11.57
11.35
11.28
11.24
11.04
10.45
9.35
7.77
5.9
3.92
1.92
-0.12
-2.33
-4.73
-7.22
-9.51
-11.31
-12.5
-13.16
-13.64
-14.31
-15.52
-17.4
-19.94
-22.94
-26.11
-29.11
-31.65
-33.61
-35.03
-36.24
-37.61
-39.5
-42.05
-45.05
-47.97
-50.02
-50.28
-48.02
-42.89
-35.11
-25.49
-15.18
-5.44
2.78
8.99
13.21
15.8
17.35
18.48
19.64
21.06
22.68
24.27
25.58
26.5
27.15
27.75
28.51
29.42
30.33
30.99
31.28
31.24
31.0
30.63
30.04
29.08
27.62
25.69
23.57
21.59
20.01
18.9
18.18
17.65
17.18
16.69
16.21
15.72
15.17
14.45
13.48
12.23
10.7
8.94
7.01
4.98
2.99
1.17
-0.35
-1.55
-2.54
-3.49
-4.58
-5.87
-7.31
-8.74
-10.09
-11.32
-12.53
-13.96
-15.82
-18.2
-21.01
-23.96
-26.67
-28.86
-30.51
-31.92
-33.59
-36.04
-39.56
-44.0
-48.77
-52.93
-55.41
-55.32
-52.09
-45.72
-36.73
-26.12
-15.08
-4.71
4.13
11.02
15.88
18.95
20.6
21.28
21.38
21.13
20.68
20.03
19.27
18.58
18.29
18.7
19.95
21.95
24.33
26.65
28.51
29.71
30.21
30.07
29.29
27.83
25.67
22.87
19.71
16.58
13.95
12.09
10.97
10.28
9.52
8.35
6.64
4.56
2.47
0.72
-0.57
-1.55
-2.51
-3.85
-5.78
-8.42
-11.65
-15.2
-18.78
-22.08
-25.0
-27.55
-29.96
-32.51
-35.53
-39.18
-43.32
-47.42
-50.59
-51.76
-50.03
-45.01
-36.95
-26.77
-15.71
-4.94
4.6
12.47
18.58
23.05
26.11
27.97
28.87
28.99
28.61
27.96
27.3
26.88
26.87
27.34
28.17
29.14
30.03
30.72
31.2
31.56
31.83
31.88
31.43
30.18
28.02
25.16
22.03
19.19
16.98
15.44
14.3
13.18
11.83
10.27
8.68
7.29
6.18
5.19
4.06
2.49
0.34
-2.31
-5.23
-8.13
-10.78
-13.12
-15.22
-17.34
-19.75
-22.66
-26.1
-29.97
-34.01
-37.95
-41.59
-44.89
-47.96
-51.02
-54.39
-58.19
-62.28
-66.06
-68.47
-68.29
-64.56
-56.99
-46.1
-33.19
-19.89
-7.72
2.35
10.03
15.6
19.6
22.65
25.2
27.46
29.54
31.43
33.15
34.73
36.2
37.52
38.68
39.71
40.7
41.82
43.13
44.52
45.67
46.23
45.93
44.75
42.9
40.63
38.18
35.63
33.02
30.41
28.01
26.04
24.66
23.84
23.32
22.81
22.04
20.96
19.74
18.62
17.78
17.21
16.72
15.98
14.76
12.92
10.56
7.92
5.29
2.83
0.57
-1.6
-3.85
-6.26
-8.86
-11.53
-14.09
-16.36
-18.21
-19.65
-20.84
-22.07
-23.66
-25.89
-28.86
-32.5
-36.53
-40.6
-44.32
-47.43
-49.91
-51.99
-54.11
-56.82
-60.54
-65.29
-70.44
-74.78
-76.7
-74.74
-68.04
-56.79
-42.2
-26.17
-10.71
2.64
13.1
20.64
25.79
29.29
31.86
33.99
35.92
37.62
38.95
39.8
40.17
40.22
40.23
40.37
40.77
41.38
42.12
42.97
43.89
44.83
45.59
45.8
45.01
42.93
39.6
35.38
30.94
27.0
23.99
21.97
20.64
19.53
18.32
16.99
15.73
14.84
14.46
14.46
14.52
14.28
13.5
12.16
10.42
8.5
6.59
4.76
2.96
1.07
-1.07
-3.56
-6.39
-9.42
-12.43
-15.23
-17.81
-20.29
-22.89
-25.79
-29.06
-32.62
-36.3
-39.91
-43.27
-46.29
-48.96
-51.36
-53.71
-56.37
-59.75
-64.13
-69.27
-74.27
-77.64
-77.66
-73.0
-63.3
-49.49
-33.48
-17.64
-3.98
6.42
13.49
17.96
20.8
22.88
24.68
26.34
27.78
28.88
29.55
29.82
29.85
29.8
29.91
30.4
31.38
32.85
34.71
36.76
38.7
40.24
41.03
40.82
39.49
37.15
34.12
30.89
27.98
25.76
24.29
23.37
22.59
21.57
20.13
18.29
16.31
14.47
12.98
11.83
10.84
9.74
8.3
6.34
3.84
0.89
-2.36
-5.7
-8.88
-11.72
-14.11
-16.13
-18.08
-20.33
-23.23
-26.9
-31.09
-35.26
-38.84
-41.45
-43.14
-44.38
-45.88
-48.26
-51.75
-55.99
-60.04
-62.55
-62.14
-57.81
-49.28
-37.22
-23.04
-8.52
4.75
15.67
23.9
29.59
33.17
35.1
35.85
35.77
35.34
35.02
35.16
35.93
37.25
38.89
40.65
42.49
44.48
46.8
49.51
52.42
55.12
57.04
57.59
56.47
53.74
49.99
46.28
43.97
44.17
47.42
53.16
59.82
65.16
66.87
63.06
52.82
36.25
14.47
-10.61
-36.71
-61.48
-82.96
-99.78
-111.14
-116.68
-116.36
-110.53
-100.18
-87.12
-73.82
-62.81
-55.88
-53.49
-54.71
-57.63
-60.24
-60.83
-58.37
-52.52
-43.57
-32.39
-20.36
-9.08
0.12
6.55
10.38
12.39
13.55
14.57
15.74
16.99
18.21
19.52
21.25
23.89
27.72
32.55
37.7
42.24
45.36
46.61
46.08
44.19
41.49
38.37
34.93
31.1
26.85
22.36
18.01
14.22
11.23
8.94
6.95
4.72
1.83
-1.84
-6.08
-10.49
-14.67
-18.49
-22.1
-25.86
-30.12
-35.14
-40.95
-47.38
-53.99
-60.06
-64.52
-66.14
-63.82
-56.96
-45.83
-31.62
-16.2
-1.5
10.95
20.4
26.83
30.74
32.72
33.28
32.71
31.23
29.14
26.9
25.06
24.09
24.26
25.4
27.05
28.62
29.59
29.76
29.26
28.42
27.61
27.0
26.38
25.23
22.89
18.78
12.72
5.1
-3.12
-10.66
-16.29
-19.31
-19.77
-18.58
-17.18
-17.08
-19.36
-24.33
-31.36
-39.03
-45.48
-48.84
-47.81
-41.99
-31.95
-19.15
-5.47
7.26
17.7
25.2
29.85
32.15
32.74
32.17
30.81
28.88
26.64
24.33
22.23
20.58
19.43
18.72
18.3
17.99
17.63
17.17
16.57
15.77
14.69
13.14
10.9
7.72
3.48
-1.76
-7.66
-13.66
-19.14
-23.58
-26.85
-29.17
-31.08
-33.22
-36.17
-40.2
-45.28
-50.89
-55.99
-59.22
-59.17
-54.89
-46.28
-34.24
-20.42
-6.72
5.36
15.07
22.35
27.65
31.51
34.37
36.49
38.05
39.15
39.92
40.47
40.81
41.01
41.1
41.21
41.49
42.07
43.0
44.13
45.23
45.93
45.95
45.11
43.42
41.03
38.18
35.03
31.7
28.32
25.06
22.21
20.01
18.62
17.96
17.73
17.53
17.02
16.13
14.95
13.73
12.6
11.58
10.54
9.3
7.85
6.24
4.65
3.17
1.81
0.42
-1.15
-3.0
-5.11
-7.39
-9.76
-12.22
-14.84
-17.64
-20.57
-23.44
-25.96
-27.94
-29.31
-30.28
-31.24
-32.63
-34.77
-37.66
-41.14
-44.8
-48.31
-51.46
-54.34
-57.29
-60.81
-65.41
-71.29
-78.04
-84.43
-88.62
-88.57
-82.84
-71.24
-55.03
-36.59
-18.58
-3.14
8.66
16.93
22.5
26.45
29.61
32.47
35.25
38.02
40.73
43.29
45.5
47.07
47.74
47.41
46.16
44.33
42.45
40.96
40.13
39.93
40.04
39.92
39.1
37.29
34.57
31.35
28.2
25.64
23.94
23.06
22.66
22.32
21.74
20.86
19.83
18.96
18.47
18.44
18.79
19.26
19.63
19.77
19.75
19.99
21.15
23.93
28.82
35.62
43.47
50.85
56.13
57.95
55.64
49.32
39.78
28.23
16.02
4.36
-5.96
-14.83
-22.84
-31.0
-40.17
-50.64
-61.81
-72.57
-81.7
-88.55
-93.07
-95.79
-97.33
-98.25
-98.93
-99.6
-100.31
-100.7
-99.88
-96.49
-89.18
-77.29
-61.25
-42.71
-23.95
-7.24
5.97
15.23
21.07
24.57
26.83
28.67
30.46
32.27
33.94
35.4
36.65
37.7
38.54
39.03
39.04
38.57
37.8
37.06
36.68
36.71
36.88
36.69
35.64
33.43
30.06
25.77
20.9
15.92
11.26
7.28
4.26
2.24
1.07
0.47
0.17
0.04
0.15
0.63
1.48
2.53
3.36
3.74
3.62
3.28
3.09
3.25
3.51
3.32
1.95
-1.13
-5.96
-12.14
-18.95
-25.67
-31.79
-37.08
-41.58
-45.49
-49.15
-52.96
-57.18
-61.73
-66.01
-68.89
-68.96
-65.03
-56.6
-44.17
-29.19
-13.72
0.23
11.23
18.74
23.13
25.36
26.49
27.38
28.42
29.59
30.62
31.28
31.49
31.42
31.36
31.52
32.0
32.78
33.74
34.76
35.8
36.8
37.65
38.11
37.87
36.59
34.17
30.79
26.9
23.09
19.78
17.06
14.64
12.07
8.93
5.13
0.85
-3.61
-7.98
-12.37
-17.08
-22.48
-28.75
-35.69
-42.7
-49.03
-54.01
-57.27
-58.86
-59.23
-59.04
-59.01
-59.8
-61.74
-64.77
-68.22
-70.91
-71.35
-68.2
-60.71
-49.08
-34.44
-18.56
-3.33
9.77
19.91
26.92
31.17
33.38
34.32
34.77
35.36
36.45
38.05
39.9
41.53
42.6
43.09
43.29
43.71
44.79
46.68
49.06
51.33
52.83
53.02
51.63
48.66
44.24
38.71
32.48
26.02
19.71
13.79
8.28
3.13
-1.7
-6.04
-9.63
-12.24
-13.83
-14.68
-15.33
-16.33
-18.01
-20.42
-23.2
-25.89
-28.06
-29.46
-30.19
-30.61
-31.3
-32.85
-35.73
-40.13
-45.8
-52.07
-57.75
-61.43
-61.86
-58.4
-51.24
-41.4
-30.37
-19.65
-10.31
-2.76
3.08
7.58
11.13
14.03
16.42
18.45
20.21
21.81
23.35
24.84
26.29
27.67
28.94
30.06
31.12
32.18
33.27
34.33
35.11
35.32
34.7
33.11
30.64
27.55
24.21
20.92
17.79
14.75
11.63
8.25
4.62
0.97
-2.38
-5.18
-7.42
-9.35
-11.43
-14.01
-17.24
-20.95
-24.79
-28.36
-31.49
-34.23
-36.9
-39.9
-43.57
-47.97
-52.91
-57.8
-61.7
-63.49
-62.09
-56.74
-47.4
-34.88
-20.75
-6.92
4.96
13.9
19.83
23.34
25.32
26.52
27.34
27.82
27.82
27.25
26.19
24.85
23.61
22.76
22.44
22.65
23.26
24.09
24.99
25.76
26.18
25.98
24.89
22.74
19.56
15.6
11.22
6.82
2.62
-1.26
-4.86
-8.28
-11.53
-14.65
-17.66
-20.58
-23.48
-26.45
-29.65
-33.28
-37.51
-42.25
-47.0
-50.76
-52.2
-50.07
-43.77
-33.64
-21.0
-7.73
4.35
14.01
20.92
25.46
28.36
30.25
31.42
31.8
31.23
29.72
27.53
25.25
23.5
22.69
22.9
23.85
25.03
25.9
26.1
25.52
24.27
22.56
20.59
18.43
16.0
13.18
9.8
5.82
1.3
-3.61
-8.67
-13.65
-18.36
-22.66
-26.47
-29.81
-32.8
-35.71
-38.93
-42.74
-47.13
-51.48
-54.65
-55.19
-51.9
-44.3
-32.93
-19.24
-5.12
7.65
17.91
25.24
29.93
32.63
34.02
34.65
34.76
34.43
33.63
32.4
30.92
29.48
28.44
28.0
28.16
28.69
29.28
29.55
29.24
28.19
26.46
24.15
21.44
18.46
15.24
11.74
7.83
3.44
-1.38
-6.46
-11.52
-16.27
-20.5
-24.13
-27.24
-30.03
-32.8
-35.91
-39.71
-44.21
-49.01
-53.11
-55.13
-53.77
-48.21
-38.59
-25.99
-12.14
1.13
12.48
21.3
27.66
32.08
35.13
37.23
38.6
39.33
39.49
39.24
38.8
38.42
38.29
38.52
39.05
39.74
40.42
40.98
41.36
41.57
41.63
41.45
40.81
39.42
37.15
34.08
30.62
27.35
24.76
23.07
22.11
21.43
20.49
19.02
17.03
14.83
12.86
11.36
10.35
9.61
8.82
7.77
6.42
4.96
3.54
2.3
1.14
-0.04
-1.36
-2.83
-4.3
-5.63
-6.69
-7.54
-8.3
-9.16
-10.21
-11.43
-12.8
-14.27
-15.82
-17.45
-19.17
-20.89
-22.61
-24.33
-26.21
-28.5
-31.45
-35.1
-39.24
-43.44
-47.17
-50.06
-52.07
-53.48
-54.93
-57.13
-60.56
-65.28
-70.64
-75.4
-77.89
-76.61
-70.6
-59.92
-45.65
-29.61
-13.9
-0.23
10.42
17.9
22.78
25.95
28.33
30.47
32.61
34.66
36.43
37.74
38.52
38.83
38.74
38.36
37.77
37.09
36.48
36.12
36.16
36.59
37.22
37.64
37.45
36.34
34.26
31.42
28.19
24.93
21.93
19.35
17.21
15.55
14.35
13.52
12.94
12.35
11.53
10.34
8.82
7.04
5.2
3.43
1.76
0.16
-1.52
-3.42
-5.62
-8.16
-10.94
-13.75
-16.36
-18.6
-20.42
-21.96
-23.53
-25.36
-27.61
-30.21
-32.95
-35.62
-38.04
-40.16
-42.12
-44.17
-46.59
-49.66
-53.54
-58.12
-62.91
-66.92
-68.8
-67.31
-61.7
-52.09
-39.53
-25.72
-12.43
-1.09
7.58
13.58
17.42
19.79
21.34
22.42
23.13
23.42
23.26
22.81
22.31
22.07
22.17
22.44
22.56
22.24
21.47
20.47
19.65
19.23
19.12
18.94
18.11
16.24
13.24
9.34
5.01
0.79
-2.75
-5.24
-6.37
-6.17
-4.89
-2.99
-1.04
0.52
1.62
2.61
4.15
7.06
11.82
18.49
26.45
34.66
41.88
46.98
49.3
48.66
45.47
40.52
34.75
29.05
23.93
19.62
16.02
12.93
10.14
7.55
5.01
2.26
-1.06
-5.35
-10.73
-16.95
-23.24
-28.62
-32.18
-33.53
-32.96
-31.39
-30.11
-30.35
-32.93
-37.93
-44.72
-52.04
-58.3
-61.99
-62.02
-58.01
-50.34
-40.02
-28.48
-17.15
-7.22
0.61
6.16
9.66
11.6
12.57
13.06
13.47
14.04
14.82
15.79
16.72
17.36
17.46
17.02
16.3
15.78
15.92
16.96
18.74
20.72
22.32
23.16
23.11
22.34
21.03
19.28
17.18
14.85
12.53
10.5
9.01
8.0
7.19
6.28
5.16
3.95
2.94
2.3
1.91
1.43
0.44
-1.3
-3.64
-6.15
-8.34
-9.98
-11.22
-12.56
-14.54
-17.42
-21.03
-24.86
-28.32
-31.02
-32.95
-34.45
-35.93
-37.77
-40.11
-43.0
-46.34
-49.89
-53.09
-54.98
-54.42
-50.44
-42.75
-31.96
-19.52
-7.17
3.49
11.62
17.07
20.18
21.45
21.24
19.77
17.33
14.46
11.87
10.39
10.54
12.41
15.69
19.79
24.05
28.01
31.35
33.86
35.42
36.04
35.87
35.16
34.19
33.0
31.5
29.42
26.54
22.81
18.51
14.13
10.2
7.19
5.37
4.85
5.53
7.15
9.34
11.63
13.54
14.64
14.65
13.44
11.12
7.96
4.43
1.0
-1.92
-4.18
-5.88
-7.38
-9.15
-11.55
-14.7
-18.46
-22.46
-26.31
-29.71
-32.61
-35.23
-37.99
-41.38
-45.81
-51.44
-57.95
-64.53
-69.93
-72.71
-71.56
-65.77
-55.46
-41.76
-26.4
-11.4
1.54
11.35
17.84
21.52
23.31
24.21
24.93
25.88
27.19
28.8
30.63
32.62
34.72
36.8
38.75
40.47
41.9
43.07
43.98
44.6
44.79
44.42
43.39
41.67
39.31
36.4
33.03
29.33
25.5
21.74
18.26
15.14
12.38
9.88
7.66
5.81
4.51
3.88
3.85
4.16
4.37
4.13
3.26
1.87
0.28
-1.19
-2.3
-3.04
-3.62
-4.37
-5.53
-7.21
-9.28
-11.46
-13.54
-15.43
-17.24
-19.27
-21.8
-24.92
-28.5
-32.22
-35.75
-38.92
-41.76
-44.48
-47.32
-50.5
-54.13
-58.19
-62.4
-66.12
-68.29
-67.63
-63.0
-53.93
-40.95
-25.49
-9.6
4.79
16.35
24.59
29.8
32.69
34.11
34.7
34.89
34.79
34.44
33.79
32.91
32.02
31.42
31.41
32.08
33.32
34.77
36.05
36.86
37.14
37.02
36.65
36.18
35.57
34.73
33.53
31.99
30.26
28.51
26.93
25.56
24.29
22.96
21.41
19.62
17.67
15.78
14.11
12.73
11.5
10.15
8.46
6.34
3.96
1.63
-0.43
-2.2
-3.89
-5.79
-8.06
-10.54
-12.88
-14.71
-15.9
-16.66
-17.46
-18.73
-20.78
-23.54
-26.75
-30.05
-33.19
-36.07
-38.75
-41.45
-44.46
-47.98
-52.13
-56.79
-61.48
-65.36
-67.3
-66.1
-60.94
-51.68
-39.04
-24.51
-9.89
3.22
13.8
21.56
26.74
29.92
31.66
32.47
32.66
32.5
32.15
31.74
31.39
31.17
31.17
31.42
31.91
32.57
33.31
34.1
34.85
35.49
35.9
35.81
35.03
33.41
31.01
28.08
24.97
22.0
19.39
17.22
15.48
14.14
13.19
12.58
12.23
11.95
11.52
10.78
9.72
8.45
7.16
5.99
4.97
3.99
2.89
1.53
-0.15
-2.17
-4.5
-7.08
-9.77
-12.34
-14.54
-16.22
-17.46
-18.57
-20.0
-22.1
-24.96
-28.34
-31.83
-35.03
-37.77
-40.09
-42.24
-44.58
-47.37
-50.78
-54.65
-58.43
-61.2
-61.7
-58.8
-51.94
-41.44
-28.5
-14.91
-2.43
7.74
15.21
20.26
23.57
25.76
27.24
28.17
28.65
28.71
28.5
28.19
27.97
27.98
28.26
28.75
29.34
29.86
30.15
30.14
29.82
29.31
28.67
27.89
26.85
25.44
23.57
21.33
18.96
16.72
14.85
13.47
12.44
11.54
10.48
9.07
7.35
5.56
3.99
2.83
2.13
1.73
1.44
1.07
0.47
-0.5
-1.97
-4.08
-6.83
-9.93
-12.92
-15.33
-16.91
-17.81
-18.52
-19.6
-21.43
-24.03
-27.13
-30.27
-33.08
-35.34
-37.09
-38.53
-40.04
-41.97
-44.62
-48.0
-51.72
-54.95
-56.44
-54.94
-49.56
-40.22
-27.77
-13.82
-0.23
11.38
20.08
25.75
28.87
30.21
30.46
30.06
29.26
28.16
26.93
25.71
24.75
24.22
24.24
24.76
25.67
26.8
27.96
29.04
29.98
30.77
31.34
31.55
31.2
30.11
28.24
25.84
23.37
21.25
19.78
18.87
18.23
17.5
16.53
15.37
14.21
13.18
12.14
10.82
8.9
6.24
3.0
-0.53
-4.06
-7.42
-10.54
-13.45
-16.16
-18.69
-21.1
-23.55
-26.14
-28.92
-31.74
-34.33
-36.51
-38.28
-39.9
-41.88
-44.67
-48.4
-52.74
-56.76
-59.22
-58.84
-54.75
-46.83
-35.84
-23.17
-10.46
0.83
9.78
16.1
19.91
21.63
21.69
20.57
18.67
16.47
14.41
12.88
12.11
12.12
12.76
13.79
15.03
16.37
17.77
19.16
20.36
21.09
20.97
19.7
17.21
13.71
9.62
5.45
1.62
-1.64
-4.28
-6.48
-8.52
-10.62
-12.95
-15.5
-18.12
-20.64
-22.95
-25.04
-27.05
-29.22
-31.83
-35.14
-39.14
-43.45
-47.22
-49.32
-48.57
-44.22
-36.34
-25.76
-14.0
-2.67
6.92
14.18
19.12
22.16
23.77
24.35
24.14
23.33
22.15
20.89
19.84
19.25
19.21
19.66
20.46
21.44
22.45
23.31
23.9
24.11
23.9
23.27
22.22
20.7
18.63
15.93
12.68
9.15
5.73
2.82
0.57
-1.2
-2.94
-5.2
-8.33
-12.33
-16.88
-21.47
-25.7
-29.28
-32.21
-34.68
-37.05
-39.74
-43.15
-47.47
-52.47
-57.34
-60.7
-61.07
-57.32
-49.16
-37.39
-23.62
-9.76
2.62
12.55
19.86
24.87
28.17
30.29
31.6
32.33
32.67
32.84
33.04
33.53
34.42
35.71
37.2
38.62
39.77
40.6
41.17
41.65
42.17
42.73
43.12
43.05
42.2
40.44
37.93
35.03
32.23
29.93
28.3
27.22
26.41
25.53
24.42
23.05
21.57
20.11
18.82
17.76
16.93
16.3
15.72
15.02
14.04
12.72
11.05
9.16
7.16
5.18
3.33
1.7
0.35
-0.79
-1.84
-3.03
-4.55
-6.46
-8.62
-10.76
-12.65
-14.26
-15.73
-17.36
-19.42
-22.03
-25.15
-28.58
-32.11
-35.52
-38.65
-41.38
-43.72
-45.79
-47.95
-50.64
-54.25
-58.75
-63.57
-67.45
-68.84
-66.32
-59.22
-47.93
-33.91
-19.16
-5.59
5.45
13.57
19.04
22.6
25.02
26.82
28.27
29.49
30.55
31.54
32.57
33.68
34.87
36.1
37.26
38.25
38.94
39.29
39.31
39.12
38.79
38.34
37.68
36.63
35.08
33.01
30.62
28.19
26.04
24.33
23.0
21.87
20.83
19.81
18.91
18.3
18.03
18.04
18.07
17.79
16.97
15.56
13.71
11.71
9.81
8.13
6.59
5.01
3.22
1.16
-1.09
-3.4
-5.63
-7.68
-9.5
-11.05
-12.37
-13.54
-14.8
-16.4
-18.57
-21.33
-24.52
-27.88
-31.12
-34.15
-37.05
-40.06
-43.44
-47.26
-51.29
-54.86
-56.96
-56.44
-52.43
-44.72
-33.92
-21.43
-8.97
1.83
9.93
15.07
17.67
18.54
18.49
18.11
17.68
17.28
16.84
16.32
15.81
15.48
15.53
16.11
17.19
18.58
20.01
21.17
21.9
22.15
22.02
21.66
21.17
20.52
19.57
18.18
16.27
14.02
11.72
9.69
8.13
7.06
6.28
5.52
4.5
3.05
1.18
-0.98
-3.21
-5.25
-6.92
-8.21
-9.24
-10.27
-11.62
-13.41
-15.63
-18.02
-20.32
-22.33
-23.96
-25.32
-26.56
-27.94
-29.66
-31.92
-34.8
-38.13
-41.35
-43.49
-43.41
-40.23
-33.77
-24.64
-14.15
-3.81
5.14
12.06
16.9
20.0
21.78
22.6
22.73
22.39
21.8
21.21
20.76
20.57
20.63
20.88
21.22
21.53
21.73
21.8
21.76
21.68
21.59
21.4
20.96
20.08
18.64
16.72
14.51
12.33
10.42
8.95
7.94
7.28
6.86
6.5
6.14
5.75
5.39
5.08
4.79
4.44
3.89
3.12
2.09
0.92
-0.33
-1.55
-2.74
-3.96
-5.22
-6.53
-7.83
-9.07
-10.23
-11.31
-12.31
-13.27
-14.25
-15.36
-16.76
-18.59
-20.92
-23.64
-26.5
-29.12
-31.24
-32.75
-33.87
-35.0
-36.59
-39.01
-42.27
-45.99
-49.38
-51.37
-50.9
-47.22
-40.28
-30.74
-19.92
-9.35
-0.31
6.47
10.97
13.65
15.21
16.23
17.07
17.88
18.62
19.27
19.78
20.2
20.56
20.93
21.31
21.69
21.98
22.16
22.23
22.25
22.3
22.39
22.43
22.28
21.76
20.79
19.4
17.76
16.09
14.65
13.56
12.86
12.47
12.22
11.94
11.47
10.75
9.8
8.7
7.58
6.49
5.48
4.48
3.4
2.14
0.62
-1.14
-3.0
-4.8
-6.43
-7.86
-9.27
-10.81
-12.65
-14.85
-17.36
-20.02
-22.63
-25.01
-27.01
-28.58
-29.77
-30.8
-31.95
-33.57
-35.91
-39.02
-42.67
-46.26
-48.89
-49.51
-47.24
-41.73
-33.31
-23.02
-12.27
-2.45
5.46
11.07
14.55
16.41
17.24
17.52
17.56
17.51
17.44
17.41
17.49
17.76
18.25
18.98
19.88
20.91
21.98
23.05
24.06
24.86
25.31
25.18
24.36
22.9
21.01
19.02
17.24
15.89
15.0
14.42
13.93
13.3
12.38
11.16
9.74
8.25
6.78
5.33
3.78
2.06
0.13
-1.95
-4.04
-5.97
-7.69
-9.27
-10.9
-12.85
-15.32
-18.35
-21.74
-25.15
-28.19
-30.61
-32.36
-33.63
-34.75
-36.12
-38.12
-41.0
-44.68
-48.65
-51.94
-53.31
-51.67
-46.52
-38.22
-27.94
-17.25
-7.55
0.33
6.26
10.58
13.81
16.31
18.29
19.89
21.24
22.58
24.07
25.76
27.51
29.1
30.3
31.11
31.64
32.07
32.46
32.71
32.58
31.9
30.63
28.88
26.88
24.8
22.75
20.78
18.95
17.36
16.06
15.06
14.24
13.41
12.44
11.26
9.89
8.35
6.62
4.63
2.25
-0.55
-3.73
-7.16
-10.64
-14.02
-17.17
-20.01
-22.56
-24.77
-26.61
-28.03
-28.99
-29.58
-30.05
-30.67
-31.72
-33.37
-35.6
-38.4
-41.62
-44.94
-47.81
-49.34
-48.48
-44.38
-36.85
-26.49
-14.71
-3.25
6.42
13.46
17.83
20.1
21.09
21.49
21.74
21.94
22.06
22.08
22.01
21.99
22.12
22.42
22.84
23.3
23.72
24.16
24.73
25.55
26.63
27.79
28.65
28.79
27.93
26.05
23.47
20.75
18.36
16.53
15.11
13.66
11.72
9.08
5.9
2.66
-0.09
-2.02
-3.18
-3.93
-4.77
-6.11
-8.13
-10.83
-14.03
-17.47
-20.91
-24.1
-26.8
-28.96
-30.71
-32.45
-34.72
-37.9
-41.9
-46.07
-49.19
-49.93
-47.34
-41.2
-32.16
-21.57
-10.97
-1.65
5.69
10.99
14.64
17.2
19.18
20.89
22.37
23.67
24.69
25.43
25.87
26.02
25.9
25.61
25.3
25.14
25.3
25.81
26.58
27.38
27.94
27.98
27.27
25.66
23.19
20.03
16.51
12.98
9.73
6.89
4.36
1.91
-0.72
-3.62
-6.65
-9.52
-11.88
-13.52
-14.53
-15.26
-16.24
-17.98
-20.79
-24.67
-29.29
-33.97
-37.83
-39.9
-39.3
-35.55
-28.73
-19.64
-9.51
0.26
8.6
15.0
19.55
22.69
24.88
26.45
27.42
27.78
27.55
26.86
25.95
25.13
24.57
24.46
24.85
25.65
26.76
27.96
28.99
29.59
29.6
28.89
27.53
25.64
23.36
20.9
18.45
16.25
14.48
13.3
12.61
12.18
11.59
10.43
8.57
6.14
3.51
1.08
-0.93
-2.64
-4.4
-6.61
-9.48
-12.97
-16.78
-20.47
-23.62
-26.06
-27.88
-29.41
-31.12
-33.44
-36.58
-40.37
-44.25
-47.27
-48.35
-46.59
-41.56
-33.5
-23.42
-12.65
-2.61
5.72
11.95
16.29
19.3
21.54
23.39
24.9
26.02
26.65
26.82
26.63
26.27
25.98
25.92
26.19
26.82
27.76
28.85
29.92
30.7
30.95
30.51
29.34
27.59
25.52
23.42
21.51
19.85
18.46
17.29
16.33
15.54
14.88
14.29
13.62
12.84
11.98
11.18
10.57
10.18
9.84
9.35
8.48
7.15
5.45
3.6
1.85
0.4
-0.62
-1.31
-1.8
-2.35
-3.18
-4.39
-5.96
-7.71
-9.39
-10.78
-11.81
-12.6
-13.41
-14.55
-16.23
-18.43
-20.95
-23.48
-25.77
-27.72
-29.41
-31.0
-32.68
-34.58
-36.81
-39.37
-42.07
-44.41
-45.59
-44.69
-41.08
-34.79
-26.57
-17.7
-9.55
-3.03
1.62
4.72
6.86
8.67
10.5
12.51
14.71
16.91
18.93
20.56
21.67
22.23
22.36
22.2
21.87
21.41
20.84
20.23
19.72
19.41
19.33
19.26
18.93
18.01
16.39
14.24
11.94
9.9
8.36
7.37
6.77
6.39
6.05
5.69
5.32
4.96
4.65
4.43
4.33
4.27
4.1
3.63
2.65
1.1
-0.94
-3.21
-5.41
-7.36
-8.96
-10.25
-11.31
-12.25
-13.16
-14.17
-15.45
-17.06
-18.95
-20.9
-22.66
-23.98
-24.82
-25.35
-25.87
-26.77
-28.28
-30.45
-32.94
-35.15
-36.3
-35.65
-32.8
-27.87
-21.45
-14.47
-7.91
-2.44
1.65
4.5
6.43
7.84
9.01
10.13
11.33
12.67
14.11
15.53
16.7
17.33
17.28
16.58
15.54
14.58
14.07
14.19
14.91
16.01
17.12
17.86
17.89
17.02
15.26
12.79
9.97
7.18
4.74
2.79
1.25
-0.05
-1.32
-2.68
-4.1
-5.43
-6.49
-7.2
-7.54
-7.74
-8.08
-8.83
-10.03
-11.52
-12.96
-14.02
-14.52
-14.57
-14.52
-14.82
-15.94
-18.06
-21.13
-24.71
-28.03
-30.12
-30.04
-27.23
-21.77
-14.44
-6.56
0.5
5.76
8.92
10.39
10.98
11.47
12.32
13.54
14.72
15.43
15.27
14.02
11.65
8.39
4.61
0.92
-1.96
-3.36
-2.8
-0.24
3.95
9.04
14.17
18.58
21.78
23.52
23.84
22.83
20.68
17.59
13.79
9.63
5.43
1.53
-2.0
-5.44
-9.4
-14.59
-21.44
-29.73
-38.73
-47.33
-54.44
-59.38
-62.16
-63.44
-64.32
-65.93
-69.15
-74.41
-81.75
-90.76
-100.76
-110.75
-119.39
-125.15
-126.29
-121.35
-109.51
-90.95
-66.92
-39.48
-10.93
16.64
41.68
63.24
80.88
94.47
104.14
110.17
112.85
112.42
109.09
102.92
94.07
82.99
70.5
57.8
46.13
36.46
29.21
24.29
21.1
18.91
17.06
15.11
13.06
11.13
9.74
9.33
10.23
12.44
15.77
19.82
24.04
28.02
31.47
34.3
36.5
38.03
38.68
38.15
36.18
32.6
27.58
21.48
14.89
8.44
2.63
-2.25
-6.15
-9.37
-12.36
-15.63
-19.58
-24.34
-29.63
-34.79
-38.93
-41.13
-40.81
-37.88
-32.8
-26.48
-19.96
-14.07
-9.32
-5.81
-3.27
-1.4
0.07
1.33
2.51
3.72
5.06
6.49
7.89
9.04
9.83
10.25
10.47
10.73
11.25
12.07
13.02
13.8
14.1
13.75
12.7
11.13
9.23
7.27
5.4
3.66
1.94
0.15
-1.84
-4.02
-6.3
-8.54
-10.6
-12.38
-13.85
-15.1
-16.22
-17.39
-18.77
-20.58
-23.04
-26.23
-29.95
-33.55
-36.1
-36.55
-34.15
-28.88
-21.39
-12.96
-4.97
1.59
6.37
9.53
11.57
12.99
14.08
15.0
15.74
16.31
16.75
17.09
17.31
17.33
17.14
16.78
16.37
16.04
15.84
15.73
15.59
15.31
14.85
14.24
13.49
12.56
11.37
9.83
7.99
5.99
4.09
2.55
1.49
0.76
0.12
-0.81
-2.29
-4.43
-7.12
-10.07
-12.84
-15.15
-16.93
-18.29
-19.57
-21.16
-23.44
-26.6
-30.62
-35.15
-39.59
-43.07
-44.65
-43.63
-39.75
-33.32
-25.15
-16.32
-7.86
-0.48
5.51
10.25
14.0
17.12
19.77
21.99
23.71
24.88
25.53
25.84
26.06
26.39
26.94
27.7
28.55
29.39
30.07
30.55
30.79
30.72
30.23
29.26
27.85
26.16
24.44
22.85
21.5
20.32
19.19
17.95
16.57
15.13
13.74
12.55
11.61
10.91
10.33
9.73
8.94
7.86
6.48
4.86
3.16
1.54
0.1
-1.21
-2.48
-3.8
-5.26
-6.86
-8.51
-10.15
-11.78
-13.44
-15.22
-17.17
-19.29
-21.55
-23.89
-26.23
-28.47
-30.55
-32.47
-34.27
-36.07
-38.11
-40.66
-43.92
-47.75
-51.5
-54.12
-54.44
-51.64
-45.62
-37.14
-27.48
-17.98
-9.55
-2.5
3.36
8.36
12.79
16.74
20.15
23.01
25.29
27.0
28.16
28.79
28.92
28.74
28.47
28.38
28.65
29.32
30.26
31.3
32.2
32.79
32.92
32.51
31.55
30.13
28.38
26.45
24.53
22.73
21.15
19.84
18.77
17.9
17.19
16.51
15.68
14.54
12.95
10.9
8.55
6.1
3.68
1.29
-1.21
-4.02
-7.22
-10.71
-14.29
-17.71
-20.84
-23.7
-26.41
-29.1
-31.86
-34.75
-37.72
-40.67
-43.48
-46.08
-48.6
-51.33
-54.64
-58.75
-63.48
-68.18
-71.97
-74.06
-74.22
-72.64
-69.76
-65.89
-61.06
-55.25
-48.74
-42.24
-36.61
-32.25
-28.69
-24.79
-19.4
-12.31
-4.8
0.69
1.56
-3.55
-13.98
-27.32
-40.29
-50.14
-55.4
-55.96
-52.41
-45.32
-34.82
-20.77
-3.21
17.19
39.09
60.82
80.96
98.75
114.06
127.04
137.76
146.05
151.61
154.33
154.46
152.5
149.07
144.66
139.52
133.7
127.25
120.22
112.63
104.38
95.24
85.0
73.68
61.77
50.24
40.13
32.23
26.74
23.11
20.31
17.14
12.65
6.37
-1.48
-10.19
-18.78
-26.35
-32.46
-37.35
-41.8
-46.79
-53.01
-60.47
-68.42
-75.73
-81.36
-84.89
-86.59
-87.13
-87.04
-86.31
-84.33
-80.31
-73.84
-65.35
-56.0
-47.3
-40.43
-35.86
-33.21
-31.58
-29.94
-27.5
-23.99
-19.59
-14.83
-10.38
-6.86
-4.62
-3.81
-4.33
-6.0
-8.71
-12.4
-17.07
-22.5
-28.21
-33.42
-37.14
-38.45
-36.73
-31.91
-24.48
-15.5
-6.24
2.13
8.89
13.8
17.05
18.97
19.81
19.79
18.97
17.5
15.62
13.7
12.13
11.2
11.02
11.43
12.21
13.04
13.7
14.14
14.46
14.81
15.31
15.89
16.28
16.17
15.32
13.66
11.32
8.57
5.68
2.89
0.32
-2.06
-4.31
-6.45
-8.45
-10.18
-11.43
-12.09
-12.16
-11.8
-11.36
-11.18
-11.59
-12.69
-14.31
-15.93
-16.84
-16.2
-13.36
-8.06
-0.63
8.02
16.62
23.91
29.02
31.68
32.22
31.34
29.76
27.95
26.05
23.95
21.53
18.81
16.02
13.64
12.09
11.71
12.55
14.32
16.52
18.6
20.06
20.61
20.22
19.01
17.16
14.79
11.93
8.58
4.77
0.7
-3.37
-7.11
-10.34
-13.0
-15.23
-17.29
-19.39
-21.75
-24.41
-27.37
-30.6
-33.9
-36.91
-39.03
-39.54
-37.71
-33.27
-26.43
-17.97
-8.99
-0.58
6.54
12.09
16.18
19.17
21.34
22.92
24.01
24.65
24.94
25.07
25.29
25.83
26.72
27.79
28.77
29.39
29.51
29.19
28.51
27.51
26.07
23.94
20.92
17.0
12.42
7.63
3.19
-0.53
-3.39
-5.57
-7.48
-9.61
-12.26
-15.46
-18.93
-22.24
-24.98
-26.98
-28.35
-29.42
-30.64
-32.34
-34.74
-37.78
-41.21
-44.42
-46.6
-46.82
-44.28
-38.63
-30.17
-19.92
-9.3
0.21
7.64
12.71
15.83
17.74
19.2
20.65
22.14
23.55
24.68
25.49
26.05
26.53
27.08
27.8
28.64
29.49
30.18
30.52
30.34
29.57
28.19
26.3
24.03
21.52
18.89
16.26
13.71
11.3
9.11
7.16
5.46
3.95
2.54
1.1
-0.51
-2.48
-4.84
-7.51
-10.25
-12.81
-15.04
-17.0
-18.91
-21.17
-24.1
-27.84
-32.28
-37.08
-41.67
-45.35
-47.38
-47.06
-43.98
-38.19
-30.24
-21.04
-11.68
-3.05
4.31
10.29
15.1
19.0
22.24
24.89
27.01
28.61
29.77
30.56
31.03
31.29
31.41
31.47
31.58
31.8
32.01
31.96
31.33
29.86
27.54
24.6
21.37
18.24
15.41
12.92
10.63
8.43
6.2
3.91
1.54
-0.97
-3.63
-6.42
-9.16
-11.69
-13.84
-15.63
-17.28
-19.09
-21.36
-23.96
-26.44
-27.95
-27.64
-24.89
-19.69
-12.61
-4.66
2.96
9.32
13.94
16.77
18.12
18.43
18.02
17.09
15.77
14.15
12.38
10.74
9.5
8.87
8.88
9.36
10.02
10.62
11.0
11.13
11.05
10.65
9.75
8.04
5.31
1.63
-2.58
-6.77
-10.41
-13.2
-15.14
-16.44
-17.31
-18.02
-18.77
-19.78
-21.3
-23.39
-25.79
-27.93
-28.93
-27.95
-24.63
-19.14
-12.21
-4.91
1.8
7.33
11.51
14.57
16.84
18.55
19.76
20.42
20.41
19.78
18.65
17.24
15.78
14.32
12.83
11.21
9.41
7.42
5.34
3.27
1.24
-0.82
-3.06
-5.64
-8.64
-12.01
-15.49
-18.72
-21.34
-23.13
-24.13
-24.59
-24.98
-25.68
-26.81
-28.05
-28.66
-27.76
-24.65
-19.14
-11.67
-3.21
5.15
12.47
18.26
22.51
25.39
27.21
28.11
28.09
27.13
25.36
23.04
20.55
18.24
16.23
14.48
12.81
11.05
9.23
7.48
5.99
4.84
3.93
2.95
1.52
-0.66
-3.68
-7.37
-11.41
-15.42
-19.06
-22.12
-24.54
-26.39
-27.8
-29.0
-30.2
-31.56
-33.09
-34.48
-35.13
-34.29
-31.32
-26.0
-18.74
-10.47
-2.28
4.85
10.48
14.73
18.07
21.04
23.91
26.58
28.69
29.83
29.79
28.67
26.94
25.12
23.71
22.87
22.53
22.41
22.2
21.69
20.84
19.72
18.37
16.96
15.54
14.19
12.97
11.93
11.15
10.66
10.52
10.56
10.66
10.54
10.05
9.14
7.9
6.56
5.32
4.29
3.39
2.48
1.38
-0.01
-1.61
-3.31
-4.97
-6.53
-7.99
-9.42
-10.78
-12.1
-13.38
-14.67
-16.2
-18.2
-20.82
-24.08
-27.74
-31.36
-34.48
-36.79
-38.15
-38.71
-38.82
-38.96
-39.59
-41.01
-43.13
-45.46
-47.1
-46.95
-44.23
-38.65
-30.66
-21.26
-11.67
-2.96
4.23
9.75
13.78
16.55
18.26
19.14
19.41
19.35
19.3
19.49
20.02
20.86
21.87
22.99
24.18
25.44
26.71
27.87
28.75
29.26
29.4
29.17
28.62
27.69
26.32
24.48
22.26
19.82
17.38
15.16
13.27
11.76
10.6
9.7
9.02
8.51
8.14
7.86
7.59
7.21
6.62
5.78
4.73
3.63
2.6
1.67
0.77
-0.31
-1.71
-3.49
-5.57
-7.82
-10.03
-12.13
-14.09
-15.96
-17.86
-19.85
-21.95
-24.09
-26.15
-27.99
-29.51
-30.71
-31.63
-32.42
-33.21
-34.18
-35.49
-37.12
-38.88
-40.25
-40.53
-38.96
-35.01
-28.69
-20.54
-11.55
-2.8
4.78
10.75
14.95
17.64
19.13
19.75
19.68
19.01
17.89
16.55
15.47
15.22
16.28
18.77
22.36
26.33
29.92
32.55
33.98
34.23
33.42
31.62
28.76
24.89
20.31
15.57
11.35
8.11
5.96
4.56
3.43
2.11
0.36
-1.74
-3.94
-5.96
-7.61
-8.88
-9.96
-11.13
-12.69
-14.78
-17.31
-19.99
-22.43
-24.44
-25.97
-27.31
-28.75
-30.6
-32.94
-35.58
-38.14
-40.03
-40.57
-39.08
-35.13
-28.74
-20.45
-11.27
-2.31
5.44
11.49
15.76
18.57
20.29
21.16
21.27
20.59
19.2
17.28
15.3
13.68
12.8
12.76
13.48
14.65
15.99
17.2
18.08
18.56
18.58
18.15
17.28
16.07
14.61
13.02
11.33
9.6
7.84
6.05
4.26
2.42
0.48
-1.58
-3.78
-6.12
-8.54
-10.97
-13.34
-15.58
-17.61
-19.38
-20.9
-22.17
-23.32
-24.49
-25.81
-27.47
-29.59
-32.18
-35.01
-37.61
-39.21
-39.05
-36.51
-31.47
-24.43
-16.31
-8.15
-0.84
5.17
9.88
13.51
16.3
18.36
19.61
20.02
19.76
19.08
18.38
17.93
17.84
18.07
18.48
18.95
19.45
20.06
20.72
21.38
21.81
21.74
20.97
19.47
17.36
14.92
12.45
10.11
8.01
6.09
4.23
2.42
0.7
-0.84
-2.16
-3.29
-4.34
-5.46
-6.8
-8.46
-10.43
-12.64
-14.95
-17.26
-19.5
-21.73
-24.07
-26.7
-29.76
-33.27
-37.17
-41.18
-44.83
-47.41
-48.01
-45.89
-40.64
-32.51
-22.3
-11.32
-0.8
8.3
15.48
20.71
24.18
26.2
27.11
27.17
26.55
25.45
24.0
22.39
20.86
19.64
18.94
18.85
19.26
19.96
20.67
21.15
21.22
20.79
19.81
18.36
16.54
14.47
12.33
10.23
8.2
6.23
4.3
2.36
0.38
-1.63
-3.69
-5.69
-7.54
-9.26
-10.86
-12.39
-13.94
-15.5
-16.97
-18.25
-19.19
-19.74
-20.11
-20.62
-21.75
-23.9
-27.21
-31.31
-35.44
-38.44
-39.2
-36.99
-31.75
-24.22
-15.61
-7.19
0.12
5.94
10.37
13.78
16.42
18.44
19.75
20.31
20.21
19.72
19.21
18.99
19.2
19.78
20.55
21.34
22.05
22.73
23.45
24.23
24.96
25.44
25.4
24.69
23.31
21.43
19.29
17.1
14.94
12.82
10.7
8.51
6.17
3.53
0.45
-3.16
-7.28
-11.65
-15.91
-19.65
-22.64
-24.87
-26.6
-28.25
-30.21
-32.78
-35.99
-39.45
-42.49
-44.17
-43.54
-40.03
-33.61
-24.86
-14.82
-4.71
4.47
12.04
17.82
22.03
25.01
27.16
28.79
30.05
31.0
31.66
32.0
32.1
32.09
32.02
31.92
31.74
31.32
30.56
29.5
28.23
26.96
25.8
24.63
23.25
21.41
18.98
16.1
13.1
10.32
8.05
6.32
4.95
3.64
2.08
0.09
-2.26
-4.75
-7.08
-8.99
-10.41
-11.5
-12.57
-13.95
-15.84
-18.16
-20.71
-23.19
-25.36
-27.11
-28.54
-29.78
-31.06
-32.61
-34.6
-37.17
-40.21
-43.26
-45.51
-45.91
-43.51
-37.89
-29.34
-18.86
-7.82
2.48
11.16
17.82
22.51
25.54
27.19
27.76
27.47
26.59
25.41
24.18
23.13
22.46
22.31
22.71
23.57
24.75
26.03
27.24
28.22
28.85
28.99
28.55
27.46
25.74
23.55
21.06
18.53
16.08
13.85
11.88
10.16
8.68
7.39
6.2
5.01
3.72
2.33
0.84
-0.63
-2.05
-3.42
-4.81
-6.47
-8.58
-11.31
-14.62
-18.22
-21.72
-24.74
-27.05
-28.73
-30.13
-31.74
-33.99
-37.08
-40.9
-45.01
-48.62
-50.76
-50.45
-47.04
-40.33
-30.85
-19.66
-8.12
2.47
11.25
17.88
22.44
25.24
26.66
26.96
26.44
25.36
24.04
22.79
21.9
21.56
21.79
22.48
23.4
24.31
25.02
25.4
25.39
24.99
24.2
22.95
21.21
19.02
16.55
14.06
11.79
9.87
8.23
6.69
4.97
2.93
0.52
-2.05
-4.47
-6.41
-7.72
-8.55
-9.22
-10.24
-11.91
-14.33
-17.28
-20.29
-22.99
-25.14
-26.88
-28.48
-30.44
-33.08
-36.66
-41.05
-45.69
-49.55
-51.32
-49.83
-44.46
-35.52
-24.16
-12.01
-0.68
8.88
16.32
21.88
25.91
28.68
30.3
30.81
30.41
29.41
28.29
27.31
26.65
26.23
25.92
25.65
25.43
25.4
25.6
26.01
26.33
26.26
25.5
23.91
21.53
18.53
15.23
11.83
8.61
5.65
3.05
0.82
-1.09
-2.78
-4.35
-5.77
-6.97
-7.82
-8.37
-8.83
-9.6
-11.08
-13.39
-16.34
-19.4
-22.05
-23.97
-25.23
-26.17
-27.25
-28.84
-31.06
-33.86
-36.94
-39.72
-41.36
-40.89
-37.58
-31.17
-22.2
-11.81
-1.42
7.74
14.87
19.81
22.8
24.31
24.85
24.8
24.44
23.88
23.21
22.47
21.76
21.2
20.9
20.93
21.23
21.67
22.08
22.36
22.41
22.24
21.87
21.24
20.31
18.99
17.31
15.3
13.07
10.72
8.36
6.12
4.09
2.35
0.84
-0.53
-1.98
-3.69
-5.76
-8.13
-10.6
-12.97
-15.04
-16.86
-18.51
-20.13
-21.82
-23.62
-25.63
-27.92
-30.68
-33.86
-37.15
-39.8
-40.79
-39.1
-34.18
-26.29
-16.37
-5.96
3.53
11.11
16.48
19.94
21.99
23.14
23.57
23.36
22.48
21.12
19.59
18.26
17.4
17.0
16.88
16.85
16.85
16.93
17.21
17.7
18.22
18.5
18.22
17.29
15.77
13.82
11.57
9.11
6.5
3.76
1.05
-1.4
-3.35
-4.76
-5.79
-6.68
-7.78
-9.26
-11.19
-13.49
-15.98
-18.43
-20.62
-22.42
-23.8
-24.89
-25.99
-27.43
-29.44
-32.01
-34.74
-36.83
-37.34
-35.48
-30.82
-23.61
-14.67
-5.17
3.66
10.93
16.26
19.71
21.6
22.31
22.14
21.4
20.35
19.31
18.52
18.12
18.07
18.24
18.47
18.65
18.81
19.0
19.19
19.3
19.08
18.36
17.06
15.3
13.26
11.18
9.21
7.26
5.19
2.91
0.49
-1.82
-3.73
-5.14
-6.15
-7.12
-8.48
-10.5
-13.17
-16.14
-19.03
-21.43
-23.24
-24.54
-25.61
-26.76
-28.18
-30.02
-32.22
-34.6
-36.8
-38.26
-38.3
-36.29
-31.9
-25.22
-16.93
-8.07
0.28
7.31
12.58
16.12
18.27
19.45
20.05
20.27
20.14
19.71
19.03
18.28
17.64
17.39
17.62
18.35
19.36
20.35
21.02
21.14
20.7
19.77
18.57
17.2
15.73
14.07
12.22
10.19
8.09
6.07
4.19
2.43
0.69
-1.1
-2.9
-4.55
-5.92
-6.98
-7.84
-8.78
-10.08
-11.88
-14.18
-16.76
-19.31
-21.56
-23.44
-25.02
-26.61
-28.6
-31.27
-34.66
-38.42
-41.82
-43.94
-43.82
-40.81
-34.85
-26.49
-16.82
-7.17
1.33
8.03
12.83
16.05
18.16
19.55
20.39
20.69
20.47
19.82
19.03
18.42
18.3
18.77
19.7
20.8
21.75
22.3
22.33
21.93
21.26
20.51
19.77
18.92
17.82
16.33
14.42
12.2
9.9
7.67
5.62
3.73
1.86
-0.13
-2.31
-4.69
-7.26
-9.91
-12.58
-15.16
-17.52
-19.55
-21.2
-22.51
-23.62
-24.82
-26.39
-28.48
-31.02
-33.55
-35.27
-35.22
-32.68
-27.5
-20.19
-11.78
-3.46
3.87
9.77
14.25
17.53
19.81
21.16
21.55
21.13
20.16
19.06
18.22
17.81
17.79
18.01
18.3
18.55
18.71
18.75
18.6
18.11
17.13
15.54
13.31
10.57
7.48
4.33
1.38
-1.13
-3.1
-4.46
-5.31
-5.82
-6.22
-6.66
-7.27
-8.08
-8.99
-9.94
-10.89
-11.93
-13.23
-14.98
-17.36
-20.35
-23.76
-27.03
-29.31
-29.75
-27.69
-23.0
-16.18
-8.27
-0.45
6.26
11.32
14.76
16.89
18.11
18.65
18.65
18.11
17.15
16.0
15.02
14.58
14.83
15.71
16.94
18.13
19.02
19.49
19.65
19.65
19.57
19.33
18.69
17.37
15.2
12.34
9.07
5.92
3.26
1.29
-0.16
-1.41
-2.78
-4.47
-6.35
-8.24
-9.83
-11.06
-12.0
-12.9
-14.1
-15.85
-18.39
-21.74
-25.78
-30.11
-34.08
-36.83
-37.56
-35.71
-31.2
-24.5
-16.44
-8.07
-0.32
6.15
11.04
14.39
16.41
17.37
17.5
17.05
16.26
15.34
14.49
13.86
13.57
13.66
14.15
14.94
15.88
16.7
17.16
17.08
16.41
15.26
13.68
11.62
8.84
5.08
0.15
-5.77
-12.21
-18.61
-24.4
-29.41
-33.78
-37.94
-42.25
-46.85
-51.44
-55.35
-57.76
-57.9
-55.37
-50.3
-43.34
-35.48
-27.86
-21.38
-16.52
-13.25
-11.01
-8.86
-5.88
-1.32
5.08
13.07
22.06
31.27
39.88
47.22
52.78
56.24
57.48
56.57
53.72
49.46
44.48
39.69
36.24
35.19
37.35
43.1
52.19
63.65
76.12
88.03
97.82
104.2
106.07
102.64
93.62
79.22
60.16
37.84
14.08
-8.99
-29.07
-44.27
-53.32
-55.97
-53.01
-45.99
-36.74
-27.11
-18.51
-11.74
-7.37
-5.7
-7.06
-11.73
-19.57
-29.94
-41.81
-53.71
-64.2
-72.11
-76.89
-78.45
-76.91
-72.2
-64.05
-52.38
-37.34
-19.78
-1.12
16.76
32.24
44.07
51.64
54.78
53.63
48.71
40.76
30.66
19.29
7.24
-5.54
-19.71
-36.33
-56.18
-79.2
-104.47
-130.22
-154.22
-174.24
-188.28
-194.85
-192.84
-181.89
-162.34
-135.56
-103.62
-69.0
-34.31
-1.74
27.16
51.8
72.31
89.28
103.36
115.11
124.79
132.41
137.75
140.66
141.11
139.09
134.51
127.25
117.49
105.83
93.45
81.87
72.56
66.44
63.53
62.94
63.29
63.13
61.35
57.39
51.12
42.71
32.59
21.33
9.78
-0.9
-9.49
-14.97
-16.75
-14.97
-10.49
-4.66
0.94
4.98
6.58
5.39
1.41
-4.9
-12.79
-21.31
-29.29
-35.57
-39.22
-39.79
-37.57
-33.49
-28.61
-23.79
-19.47
-15.69
-12.5
-10.04
-8.76
-9.23
-11.81
-16.44
-22.73
-30.08
-37.87
-45.59
-52.55
-58.0
-61.12
-61.19
-57.95
-51.78
-43.48
-34.03
-24.37
-15.04
-6.31
1.68
8.85
14.98
19.76
23.03
24.8
25.25
24.84
24.01
23.14
22.41
21.74
20.86
19.51
17.47
14.69
11.33
7.53
3.4
-1.05
-5.91
-11.18
-16.64
-21.96
-26.69
-30.34
-32.67
-33.52
-32.97
-31.37
-29.2
-26.98
-25.13
-23.76
-22.55
-20.92
-18.13
-13.67
-7.42
0.27
8.75
17.18
24.82
31.19
36.14
39.9
42.92
45.69
48.59
51.55
54.09
55.51
55.12
52.5
47.7
41.18
33.54
25.39
17.21
9.31
1.9
-4.92
-11.21
-17.0
-22.33
-27.2
-31.62
-35.53
-38.95
-41.93
-44.53
-46.82
-48.83
-50.6
-52.15
-53.64
-55.09
-56.42
-57.28
-57.1
-55.18
-51.06
-44.65
-36.34
-27.01
-17.75
-9.62
-3.26
1.15
3.9
5.49
6.41
6.96
7.3
7.37
7.13
6.61
6.04
5.69
5.72
6.12
6.76
7.48
8.29
9.37
10.94
13.13
15.78
18.42
20.46
21.37
20.93
19.31
16.9
14.14
11.27
8.29
5.07
1.43
-2.54
-6.39
-9.38
-10.7
-9.8
-6.73
-2.03
3.37
8.54
12.79
15.89
17.98
19.32
20.18
20.57
20.5
19.9
18.8
17.43
16.04
14.95
14.28
14.0
13.99
14.05
14.03
13.78
13.2
12.18
10.63
8.41
5.52
2.05
-1.83
-5.88
-9.81
-13.34
-16.38
-18.96
-21.39
-23.93
-26.73
-29.65
-32.25
-33.93
-34.08
-32.51
-29.3
-24.85
-19.77
-14.5
-9.4
-4.62
-0.26
3.53
6.5
8.37
8.98
8.31
6.65
4.38
2.05
-0.02
-1.66
-2.87
-3.72
-4.33
-4.79
-5.21
-5.77
-6.58
-7.92
-10.04
-13.09
-17.09
-21.88
-27.17
-32.58
-37.86
-42.83
-47.37
-51.24
-53.99
-54.99
-53.67
-49.6
-42.62
-32.81
-20.42
-5.96
9.77
25.73
40.74
53.85
64.62
73.21
80.23
86.35
92.0
97.23
101.79
105.33
107.59
108.44
107.89
106.04
103.17
99.56
95.45
90.81
85.42
79.01
71.46
63.04
54.21
45.62
37.64
30.36
23.61
17.17
10.94
4.99
-0.43
-5.28
-9.53
-13.3
-16.74
-19.98
-23.1
-26.19
-29.26
-32.17
-34.65
-36.23
-36.53
-35.44
-33.36
-30.93
-28.94
-27.91
-27.86
-28.4
-28.94
-28.95
-28.24
-26.86
-24.97
-22.75
-20.26
-17.42
-14.17
-10.56
-6.65
-2.69
1.15
4.69
7.8
10.44
12.6
14.36
15.68
16.59
17.02
16.92
16.26
15.06
13.35
11.17
8.5
5.2
1.21
-3.46
-8.67
-14.12
-19.6
-25.03
-30.39
-35.62
-40.33
-43.85
-45.45
-44.66
-41.37
-36.15
-29.85
-23.31
-17.15
-11.54
-6.45
-1.76
2.47
6.13
8.91
10.66
11.35
11.18
10.42
9.36
8.21
7.01
5.72
4.25
2.64
0.97
-0.62
-1.97
-3.01
-3.78
-4.38
-4.95
-5.66
-6.53
-7.59
-8.86
-10.25
-11.58
-12.73
-13.58
-14.14
-14.55
-15.0
-15.66
-16.6
-17.68
-18.66
-19.26
-19.23
-18.44
-16.79
-14.28
-11.08
-7.4
-3.48
0.41
4.13
7.63
10.82
13.61
15.81
17.17
17.56
17.08
16.08
14.96
14.14
13.73
13.62
13.48
12.93
11.69
9.69
7.13
4.37
1.73
-0.57
-2.56
-4.39
-6.23
-8.09
-9.87
-11.34
-12.27
-12.65
-12.69
-12.75
-13.21
-14.36
-16.27
-18.8
-21.64
-24.36
-26.46
-27.5
-27.11
-25.07
-21.44
-16.54
-10.98
-5.42
-0.48
3.42
6.18
7.77
8.32
7.91
6.7
4.9
2.91
1.18
0.11
-0.08
0.51
1.53
2.54
3.18
3.29
2.91
2.2
1.38
0.62
-0.02
-0.61
-1.3
-2.16
-3.21
-4.4
-5.63
-6.87
-8.15
-9.54
-11.11
-12.84
-14.6
-16.24
-17.66
-18.73
-19.33
-19.24
-18.19
-16.0
-12.67
-8.61
-4.41
-0.6
2.44
4.75
6.48
7.77
8.53
8.55
7.56
5.54
2.83
-0.0
-2.35
-3.83
-4.3
-3.96
-3.07
-1.9
-0.66
0.58
1.75
2.76
3.44
3.58
3.02
1.65
-0.48
-3.19
-6.18
-9.1
-11.59
-13.43
-14.61
-15.23
-15.66
-16.21
-17.11
-18.37
-19.8
-21.0
-21.58
-21.15
-19.46
-16.57
-12.83
-8.79
-5.09
-2.13
0.0
1.49
2.76
4.15
5.78
7.5
9.11
10.4
11.38
12.18
12.94
13.77
14.7
15.6
16.44
17.23
17.96
18.68
19.34
19.83
19.94
19.49
18.34
16.56
14.3
11.79
9.25
6.77
4.24
1.44
-1.93
-6.05
-10.79
-15.81
-20.5
-24.01
-25.65
-24.92
-21.79
-16.7
-10.47
-3.98
1.91
6.63
10.0
11.96
12.62
12.09
10.57
8.4
6.01
3.88
2.4
1.76
1.74
2.08
2.44
2.66
2.8
2.97
3.27
3.71
4.17
4.33
4.01
3.07
1.51
-0.44
-2.53
-4.5
-6.26
-7.84
-9.43
-11.12
-12.99
-14.98
-16.94
-18.74
-20.2
-21.19
-21.48
-20.78
-18.8
-15.54
-11.23
-6.35
-1.65
2.23
4.85
6.02
5.87
4.79
3.17
1.4
-0.23
-1.74
-3.24
-4.87
-6.83
-9.21
-12.03
-15.24
-18.6
-21.6
-23.56
-23.66
-21.32
-16.51
-9.83
-2.4
4.39
9.46
12.18
12.54
11.08
8.5
5.33
1.89
-1.94
-6.45
-11.75
-17.47
-22.63
-25.59
-24.67
-18.67
-7.24
8.85
28.0
48.24
67.72
85.04
99.36
110.26
117.55
121.18
121.27
118.1
112.26
104.45
95.38
85.58
75.31
64.74
54.24
44.66
37.24
33.44
34.17
39.35
47.77
57.37
65.82
71.16
72.06
67.96
59.04
46.03
30.28
13.65
-1.74
-13.94
-21.83
-25.53
-26.33
-26.25
-27.36
-31.06
-37.7
-46.61
-56.38
-65.5
-72.82
-77.82
-80.65
-81.78
-81.7
-80.7
-79.05
-76.99
-74.86
-73.09
-71.83
-70.84
-69.37
-66.27
-60.38
-51.02
-38.13
-22.28
-4.42
14.43
33.35
51.59
68.49
83.17
94.46
101.17
102.21
97.21
86.61
71.56
53.63
34.5
15.61
-1.89
-17.02
-29.19
-38.0
-43.42
-45.73
-45.49
-43.26
-39.69
-35.43
-31.21
-27.76
-25.77
-25.56
-27.02
-29.69
-32.87
-36.03
-38.93
-41.51
-43.83
-45.74
-46.82
-46.59
-44.66
-41.16
-36.52
-31.42
-26.4
-21.74
-17.2
-12.48
-7.31
-1.64
4.24
10.16
16.05
22.06
28.32
34.59
40.09
43.55
43.58
39.2
30.23
17.36
1.96
-14.3
-29.94
-43.82
-55.1
-63.3
-68.14
-69.61
-68.13
-64.57
-60.08
-56.01
-53.42
-52.83
-54.16
-56.92
-60.29
-63.38
-65.48
-65.85
-64.08
-59.98
-53.72
-45.99
-37.74
-29.91
-23.15
-17.68
-13.19
-9.28
-5.67
-2.29
0.53
2.41
3.04
2.46
1.0
-0.72
-2.2
-3.13
-3.57
-4.01
-5.21
-8.01
-12.98
-20.07
-28.48
-36.95
-44.02
-48.35
-49.19
-46.22
-39.57
-29.68
-17.22
-2.96
12.33
28.11
44.19
60.57
77.04
92.79
106.21
115.2
117.99
114.03
104.25
90.8
76.29
62.86
51.6
42.64
35.48
29.6
24.82
21.21
18.73
17.15
15.97
14.65
12.88
10.66
8.33
6.29
4.82
3.96
3.51
3.11
2.48
1.47
0.14
-1.22
-2.31
-2.86
-2.8
-2.21
-1.43
-0.84
-0.72
-1.25
-2.4
-4.06
-6.1
-8.44
-10.99
-13.66
-16.32
-18.84
-21.11
-23.14
-25.07
-26.97
-28.86
-30.43
-31.11
-30.14
-26.88
-21.08
-13.0
-3.45
6.55
16.02
24.24
30.88
35.9
39.41
41.54
42.4
42.12
40.9
39.08
37.05
35.16
33.66
32.58
31.8
31.15
30.44
29.65
28.83
28.06
27.34
26.6
25.66
24.4
22.82
20.99
19.05
17.18
15.5
13.94
12.42
10.84
9.17
7.45
5.76
4.15
2.66
1.22
-0.31
-1.94
-3.65
-5.23
-6.55
-7.58
-8.4
-9.17
-10.09
-11.24
-12.58
-14.07
-15.64
-17.25
-18.91
-20.51
-21.94
-23.14
-24.13
-25.04
-26.2
-27.89
-30.12
-32.65
-34.87
-36.09
-35.69
-33.38
-29.27
-23.86
-17.87
-11.92
-6.54
-2.0
1.51
3.99
5.52
6.21
6.31
6.11
5.97
6.19
7.03
8.48
10.37
12.38
14.07
15.22
15.81
16.17
16.63
17.44
18.58
19.79
20.72
21.1
20.88
20.2
19.33
18.47
17.67
16.9
16.14
15.37
14.62
13.95
13.33
12.69
11.87
10.68
8.9
6.49
3.48
0.1
-3.29
-6.47
-9.32
-11.97
-14.64
-17.61
-20.96
-24.63
-28.43
-31.92
-34.66
-36.17
-36.02
-33.94
-29.89
-24.24
-17.54
-10.62
-4.13
1.48
6.14
10.0
13.32
16.28
18.85
20.93
22.27
22.8
22.54
21.68
20.43
19.02
17.63
16.37
15.39
14.62
14.02
13.36
12.53
11.63
10.82
10.33
10.21
10.34
10.28
9.65
8.2
5.93
3.08
-0.08
-3.45
-7.09
-11.16
-15.85
-21.12
-26.74
-32.36
-37.6
-42.23
-46.2
-49.61
-52.61
-55.32
-57.79
-59.94
-61.64
-62.58
-62.35
-60.44
-56.28
-49.58
-40.38
-29.2
-16.89
-4.47
7.24
17.79
27.1
35.42
43.08
50.2
56.58
61.85
65.51
67.3
67.26
65.76
63.31
60.23
56.66
52.56
47.91
42.87
37.8
33.18
29.41
26.65
24.76
23.33
22.01
20.51
18.83
17.04
15.3
13.68
12.12
10.5
8.71
6.78
4.82
2.99
1.38
-0.04
-1.48
-3.14
-5.19
-7.7
-10.61
-13.8
-17.15
-20.54
-23.97
-27.54
-31.38
-35.58
-40.15
-44.89
-49.47
-53.3
-55.59
-55.59
-52.88
-47.45
-39.79
-30.77
-21.41
-12.56
-4.77
1.84
7.42
12.08
15.93
18.92
21.01
22.11
22.29
21.74
20.78
19.86
19.29
19.29
19.83
20.69
21.63
22.39
22.92
23.24
23.42
23.57
23.61
23.42
22.81
21.69
20.0
17.72
14.8
11.33
7.64
4.25
1.84
0.91
1.64
3.73
6.34
8.54
9.57
9.18
7.56
5.26
2.8
0.53
-1.49
-3.52
-5.97
-9.21
-13.41
-18.54
-24.2
-29.85
-34.69
-37.86
-38.63
-36.5
-31.48
-24.12
-15.39
-6.52
1.33
7.33
11.19
13.06
13.48
13.07
12.35
11.66
11.14
10.73
10.24
9.56
8.67
7.69
6.85
6.33
6.25
6.58
7.22
8.01
8.82
9.52
9.98
10.02
9.41
7.99
5.74
2.82
-0.49
-3.91
-7.2
-10.23
-12.99
-15.55
-18.02
-20.5
-23.0
-25.57
-28.35
-31.53
-35.21
-39.29
-43.26
-46.16
-46.94
-44.67
-39.03
-30.39
-19.73
-8.41
2.32
11.5
18.7
23.82
26.96
28.3
28.06
26.54
24.13
21.33
18.66
16.5
14.95
13.93
13.27
12.87
12.72
12.86
13.28
13.93
14.58
14.92
14.67
13.68
12.05
10.01
7.91
6.06
4.71
3.82
3.28
2.86
2.49
2.22
2.35
3.28
5.36
8.82
13.45
18.61
23.29
26.26
26.34
22.78
15.47
5.03
-7.24
-19.81
-31.21
-40.35
-46.78
-50.45
-51.64
-50.74
-48.17
-44.35
-39.77
-34.84
-30.01
-25.5
-21.31
-17.27
-13.16
-8.84
-4.26
0.47
5.24
9.83
14.06
17.77
20.86
23.29
25.06
26.29
26.98
27.13
26.73
25.77
24.46
22.94
21.35
19.69
17.92
15.88
13.46
10.76
7.87
5.0
2.2
-0.49
-3.16
-5.91
-8.85
-12.07
-15.5
-19.08
-22.71
-26.33
-29.8
-33.06
-36.19
-39.34
-42.74
-46.45
-50.21
-53.3
-54.63
-53.06
-47.8
-38.89
-27.08
-13.63
0.04
12.75
23.75
32.73
39.77
45.34
50.11
54.97
60.61
67.21
74.27
80.67
84.94
85.69
81.99
73.71
61.54
46.9
31.7
18.06
7.71
1.7
-0.02
1.51
4.71
7.99
10.4
11.73
12.52
13.47
15.01
16.96
18.56
18.72
16.56
11.67
4.22
-5.03
-15.13
-24.98
-33.71
-40.7
-45.88
-49.49
-52.14
-54.64
-57.76
-61.95
-67.08
-72.36
-76.37
-77.5
-74.52
-66.86
-55.13
-40.85
-26.12
-12.91
-2.51
4.63
8.95
11.18
12.16
12.37
12.15
11.61
10.93
10.43
10.32
10.8
11.78
12.99
14.06
14.84
15.36
15.83
16.49
17.4
18.33
18.97
19.0
18.23
16.81
14.99
12.97
10.79
8.21
4.94
0.78
-4.16
-9.44
-14.46
-18.59
-21.56
-23.43
-24.62
-25.67
-27.02
-28.89
-31.11
-33.2
-34.45
-34.03
-31.3
-25.98
-18.26
-8.73
1.64
11.82
20.96
28.41
33.9
37.42
39.19
39.68
39.39
38.71
37.82
36.78
35.44
33.81
31.96
30.04
28.23
26.58
25.18
24.06
23.38
23.28
23.88
25.12
26.69
28.09
28.8
28.49
27.08
24.81
22.14
19.53
17.36
15.72
14.45
13.24
11.79
9.87
7.35
4.28
0.74
-3.06
-6.93
-10.6
-13.9
-16.74
-19.24
-21.52
-23.64
-25.57
-27.18
-28.43
-29.37
-30.24
-31.38
-33.07
-35.49
-38.67
-42.66
-47.48
-52.97
-58.56
-63.15
-65.29
-63.6
-57.31
-46.67
-32.89
-17.86
-3.43
8.98
18.74
25.88
30.7
33.57
34.82
34.69
33.53
31.73
29.65
27.68
26.02
24.66
23.47
22.36
21.36
20.68
20.58
21.23
22.56
24.3
25.99
27.26
27.83
27.68
26.86
25.45
23.57
21.21
18.45
15.3
12.03
8.83
5.98
3.66
1.77
0.01
-2.11
-4.98
-8.74
-13.09
-17.61
-21.82
-25.44
-28.51
-31.28
-34.09
-37.15
-40.54
-44.17
-47.72
-50.56
-51.77
-50.48
-46.1
-38.64
-28.88
-18.02
-7.41
1.94
9.61
15.67
20.39
24.03
26.74
28.53
29.49
29.75
29.53
29.05
28.48
27.98
27.69
27.64
27.74
27.87
27.87
27.58
26.99
26.11
25.1
24.04
22.93
21.63
20.11
18.36
16.37
14.28
12.16
10.02
7.8
5.38
2.55
-0.82
-4.74
-9.11
-13.65
-18.01
-21.83
-24.89
-27.16
-28.92
-30.66
-32.89
-35.96
-39.94
-44.47
-48.89
-52.12
-53.01
-50.6
-44.55
-35.19
-23.62
-11.28
0.32
10.09
17.61
23.07
26.97
29.81
31.91
33.28
33.9
33.7
32.72
31.2
29.4
27.66
26.2
25.22
24.75
24.79
25.25
25.99
26.85
27.66
28.28
28.61
28.55
27.96
26.79
24.99
22.69
20.11
17.57
15.37
13.66
12.42
11.42
10.44
9.35
8.14
7.01
6.14
5.65
5.53
5.49
5.26
4.58
3.39
1.75
-0.18
-2.28
-4.42
-6.47
-8.39
-10.08
-11.6
-13.03
-14.57
-16.47
-18.84
-21.63
-24.52
-27.15
-29.25
-30.76
-31.92
-33.09
-34.7
-37.12
-40.57
-44.96
-49.88
-54.52
-57.69
-58.14
-54.85
-47.47
-36.58
-23.61
-10.37
1.56
11.23
18.5
23.65
27.25
29.67
31.09
31.57
31.13
30.04
28.62
27.23
25.98
24.87
23.83
22.86
22.07
21.67
21.79
22.39
23.21
23.86
23.94
23.22
21.7
19.62
17.31
15.09
13.17
11.59
10.35
9.31
8.28
7.15
5.87
4.53
3.24
2.11
1.1
0.19
-0.79
-1.91
-3.14
-4.44
-5.65
-6.73
-7.72
-8.83
-10.24
-12.16
-14.61
-17.45
-20.57
-23.83
-27.07
-30.22
-33.18
-35.86
-38.23
-40.41
-42.48
-44.46
-46.11
-46.74
-45.49
-41.61
-34.76
-25.38
-14.56
-3.69
5.91
13.42
18.61
21.67
23.09
23.31
22.57
21.09
19.11
16.92
14.94
13.51
12.84
12.95
13.73
14.86
16.08
17.22
18.12
18.74
19.07
19.08
18.7
17.94
16.79
15.24
13.37
11.2
8.86
6.45
4.08
1.76
-0.5
-2.75
-5.11
-7.63
-10.38
-13.31
-16.31
-19.21
-21.86
-24.06
-25.71
-26.82
-27.53
-28.15
-29.04
-30.53
-32.78
-35.68
-38.8
-41.37
-42.48
-41.22
-37.07
-30.05
-20.84
-10.61
-0.67
7.88
14.42
18.94
21.81
23.41
24.14
24.18
23.7
22.84
21.85
20.93
20.28
19.94
19.82
19.78
19.68
19.48
19.2
18.94
18.74
18.57
18.29
17.73
16.76
15.4
13.83
12.36
11.3
10.73
10.65
10.78
10.9
10.83
10.49
9.87
9.06
8.14
7.13
6.05
4.93
3.81
2.77
1.87
1.14
0.64
0.31
0.06
-0.25
-0.79
-1.69
-3.04
-4.87
-7.13
-9.69
-12.33
-14.86
-17.05
-18.83
-20.3
-21.67
-23.13
-24.77
-26.52
-28.21
-29.67
-30.75
-31.52
-32.19
-33.07
-34.4
-36.2
-38.15
-39.53
-39.46
-37.15
-32.27
-25.16
-16.71
-8.05
-0.26
6.02
10.64
13.84
16.0
17.48
18.55
19.32
19.87
20.22
20.4
20.42
20.24
19.87
19.31
18.69
18.09
17.74
17.75
18.2
19.07
20.18
21.32
22.24
22.73
22.64
21.99
20.82
19.26
17.34
15.08
12.45
9.52
6.44
3.48
0.95
-0.96
-2.22
-2.96
-3.42
-3.82
-4.31
-4.94
-5.7
-6.55
-7.45
-8.43
-9.48
-10.63
-11.86
-13.22
-14.7
-16.37
-18.26
-20.41
-22.84
-25.51
-28.41
-31.41
-34.41
-37.08
-39.04
-39.7
-38.45
-34.83
-28.82
-20.93
-12.06
-3.46
3.91
9.36
12.84
14.71
15.62
16.12
16.44
16.62
16.45
15.83
14.77
13.54
12.52
12.03
12.24
13.03
14.07
15.01
15.66
15.94
15.95
15.8
15.42
14.69
13.42
11.48
8.8
5.69
2.49
-0.43
-2.73
-4.4
-5.55
-6.39
-7.16
-8.16
-9.47
-11.18
-13.28
-15.64
-18.13
-20.56
-22.78
-24.7
-26.46
-28.24
-30.31
-32.76
-35.37
-37.56
-38.55
-37.57
-34.27
-28.79
-21.75
-14.14
-6.91
-0.6
4.56
8.76
12.35
15.62
18.71
21.64
24.21
26.28
27.82
28.77
29.2
29.19
28.74
27.89
26.7
25.29
23.86
22.62
21.68
21.06
20.75
20.59
20.45
20.2
19.75
19.08
18.23
17.22
16.15
15.07
13.94
12.71
11.27
9.64
7.84
6.05
4.44
3.15
2.22
1.55
1.01
0.4
-0.38
-1.34
-2.49
-3.77
-5.16
-6.73
-8.52
-10.59
-13.01
-15.78
-18.74
-21.7
-24.42
-26.64
-28.25
-29.16
-29.5
-29.49
-29.45
-29.74
-30.67
-32.33
-34.55
-36.7
-37.84
-36.99
-33.54
-27.48
-19.51
-10.79
-2.43
4.69
10.17
14.15
16.93
18.88
20.28
21.28
21.97
22.49
22.96
23.39
23.85
24.3
24.68
24.97
25.08
25.01
24.84
24.66
24.5
24.25
23.66
22.55
20.83
18.58
16.13
13.84
12.02
10.79
10.11
9.81
9.79
10.01
10.37
10.78
11.01
10.9
10.3
9.25
7.85
6.22
4.52
2.72
0.82
-1.21
-3.24
-5.08
-6.47
-7.33
-7.74
-7.97
-8.35
-9.15
-10.54
-12.5
-14.71
-16.86
-18.6
-19.85
-20.76
-21.66
-22.88
-24.59
-26.76
-29.07
-31.05
-32.13
-31.71
-29.38
-25.09
-19.13
-12.25
-5.41
0.53
5.0
7.97
9.77
10.91
11.76
12.54
13.24
13.73
13.93
13.77
13.36
12.86
12.47
12.33
12.5
12.98
13.7
14.56
15.41
16.1
16.52
16.55
16.09
15.14
13.65
11.76
9.69
7.65
5.92
4.72
4.07
3.82
3.72
3.42
2.71
1.58
0.12
-1.42
-2.84
-4.05
-5.16
-6.37
-7.91
-9.92
-12.34
-14.91
-17.35
-19.4
-20.95
-22.08
-23.02
-24.03
-25.37
-27.07
-28.99
-30.74
-31.72
-31.34
-29.08
-24.88
-19.09
-12.49
-6.03
-0.46
3.81
6.83
8.93
10.56
11.95
13.23
14.32
15.09
15.54
15.66
15.59
15.48
15.5
15.7
16.17
16.92
17.94
19.17
20.4
21.39
21.91
21.76
20.82
19.22
17.24
15.19
13.38
11.92
10.81
9.96
9.16
8.2
6.98
5.45
3.62
1.6
-0.56
-2.76
-4.91
-6.92
-8.69
-10.14
-11.31
-12.28
-13.09
-13.86
-14.61
-15.33
-16.07
-16.76
-17.46
-18.28
-19.33
-20.62
-22.26
-24.23
-26.5
-29.03
-31.63
-34.09
-36.1
-37.32
-37.3
-35.82
-32.81
-28.54
-23.53
-18.43
-13.82
-10.06
-7.2
-4.91
-2.83
-0.6
1.94
4.64
7.24
9.43
11.01
12.02
12.7
13.29
14.07
15.19
16.6
18.21
19.77
21.03
21.9
22.26
22.08
21.43
20.34
18.82
16.96
14.86
12.72
10.77
9.08
7.55
6.03
4.28
2.19
-0.12
-2.43
-4.56
-6.38
-8.01
-9.6
-11.16
-12.61
-13.8
-14.56
-14.87
-14.93
-15.07
-15.74
-17.16
-19.29
-21.68
-23.65
-24.46
-23.6
-20.95
-16.82
-11.84
-6.7
-2.02
1.83
4.72
6.74
8.05
8.84
9.31
9.65
9.97
10.35
10.77
11.18
11.45
11.51
11.38
11.2
11.17
11.49
12.18
13.12
14.12
14.82
14.94
14.28
12.79
10.65
8.1
5.46
2.98
0.86
-0.9
-2.35
-3.58
-4.65
-5.57
-6.29
-6.81
-7.17
-7.43
-7.69
-8.05
-8.61
-9.48
-10.76
-12.51
-14.67
-16.96
-18.81
-19.62
-18.9
-16.56
-12.95
-8.63
-4.23
-0.19
3.35
6.38
8.96
11.08
12.68
13.72
14.29
14.43
14.27
13.92
13.47
12.98
12.61
12.46
12.57
12.91
13.29
13.57
13.6
13.31
12.65
11.64
10.34
8.8
7.14
5.46
3.83
2.36
1.05
-0.1
-1.05
-1.9
-2.67
-3.35
-3.91
-4.33
-4.59
-4.8
-5.09
-5.63
-6.56
-7.96
-9.78
-11.85
-14.05
-16.26
-18.45
-20.59
-22.58
-24.25
-25.3
-25.41
-24.31
-21.9
-18.28
-13.87
-9.15
-4.59
-0.6
2.72
5.41
7.57
9.36
10.81
11.86
12.49
12.72
12.68
12.57
12.56
12.65
12.8
12.89
12.81
12.59
12.37
12.24
12.26
12.31
12.16
11.72
10.93
9.96
9.05
8.39
7.94
7.52
6.85
5.79
4.39
2.84
1.39
0.26
-0.5
-0.97
-1.3
-1.68
-2.19
-2.9
-3.86
-5.02
-6.31
-7.65
-9.01
-10.4
-11.96
-13.84
-16.1
-18.75
-21.51
-23.98
-25.64
-25.99
-24.69
-21.67
-17.3
-12.16
-6.98
-2.37
1.28
3.85
5.54
6.67
7.53
8.3
9.01
9.59
9.95
10.08
10.08
10.13
10.35
10.73
11.11
11.34
11.25
10.77
9.99
9.03
7.97
6.81
5.51
4.06
2.58
1.19
0.05
-0.75
-1.18
-1.3
-1.31
-1.29
-1.4
-1.65
-1.89
-1.99
-1.77
-1.19
-0.36
0.42
0.76
0.34
-1.01
-3.19
-5.84
-8.58
-11.05
-13.09
-14.65
-15.88
-16.9
-17.89
-18.94
-20.07
-21.23
-22.2
-22.64
-22.03
-19.96
-16.27
-11.29
-5.65
-0.24
4.28
7.55
9.62
10.82
11.48
11.82
11.95
11.99
12.03
12.32
12.92
13.81
14.84
15.69
16.18
16.22
15.9
15.34
14.67
13.96
13.25
12.56
11.85
11.07
10.2
9.09
7.74
6.19
4.65
3.3
2.31
1.68
1.28
0.95
0.52
-0.01
-0.61
-1.19
-1.7
-2.11
-2.53
-3.05
-3.84
-4.99
-6.44
-8.04
-9.55
-10.79
-11.68
-12.26
-12.71
-13.22
-13.93
-14.89
-16.09
-17.42
-18.68
-19.63
-19.87
-19.09
-17.09
-13.97
-10.12
-6.03
-2.19
1.13
3.87
6.13
8.1
9.88
11.49
12.8
13.67
14.03
13.93
13.52
12.97
12.45
12.06
11.91
11.98
12.27
12.68
13.09
13.31
13.14
12.41
11.09
9.37
7.46
5.66
4.14
2.91
1.87
0.89
-0.14
-1.25
-2.37
-3.42
-4.37
-5.17
-5.88
-6.64
-7.45
-8.36
-9.42
-10.63
-11.99
-13.49
-15.07
-16.76
-18.6
-20.61
-22.7
-24.65
-26.03
-26.35
-25.18
-22.39
-18.29
-13.48
-8.69
-4.57
-1.42
0.75
2.18
3.18
4.0
4.71
5.32
5.86
6.34
6.82
7.36
8.0
8.71
9.44
10.06
10.49
10.71
10.82
10.93
11.2
11.7
12.33
12.89
13.15
13.03
12.56
12.0
11.54
11.24
10.96
10.43
9.5
8.17
6.53
4.76
2.96
1.12
-0.82
-2.99
-5.45
-8.09
-10.71
-13.06
-14.93
-16.22
-17.07
-17.76
-18.67
-20.14
-22.17
-24.53
-26.77
-28.37
-28.79
-27.7
-25.01
-20.81
-15.58
-9.86
-4.35
0.34
3.91
6.36
7.99
9.2
10.34
11.53
12.67
13.53
13.9
13.76
13.16
12.32
11.56
11.13
11.24
11.91
13.04
14.45
15.89
17.08
17.78
17.84
17.24
16.04
14.37
12.53
10.74
9.24
8.01
6.96
6.0
5.07
4.21
3.5
3.09
2.94
2.94
2.82
2.41
1.59
0.3
-1.38
-3.43
-5.74
-8.17
-10.6
-12.93
-15.08
-17.1
-19.09
-21.18
-23.44
-25.76
-27.87
-29.23
-29.28
-27.58
-24.02
-18.94
-13.06
-7.27
-2.28
1.47
4.02
5.7
6.87
7.85
8.83
9.86
10.91
11.94
12.84
13.61
14.13
14.31
14.03
13.36
12.49
11.72
11.44
11.85
12.87
14.1
15.05
15.32
14.76
13.51
11.94
10.41
9.14
8.21
7.53
7.02
6.63
6.28
5.89
5.42
4.76
3.82
2.49
0.68
-1.63
-4.37
-7.49
-10.83
-14.18
-17.35
-20.13
-22.3
-23.78
-24.55
-24.76
-24.72
-24.72
-24.91
-25.26
-25.43
-24.92
-23.35
-20.52
-16.65
-12.24
-7.94
-4.33
-1.68
0.08
1.31
2.35
3.44
4.63
5.84
7.01
8.09
9.17
10.32
11.63
13.03
14.57
16.2
17.94
19.74
21.46
22.94
24.06
24.75
25.0
24.92
24.51
23.75
22.68
21.28
19.67
18.07
16.6
15.31
14.2
13.08
11.78
10.27
8.61
6.97
5.53
4.38
3.49
2.81
2.15
1.44
0.63
-0.3
-1.31
-2.36
-3.36
-4.27
-5.06
-5.85
-6.78
-8.0
-9.66
-11.71
-13.95
-16.16
-18.08
-19.55
-20.71
-21.82
-23.18
-25.04
-27.38
-29.93
-32.18
-33.56
-33.45
-31.43
-27.45
-21.83
-15.34
-8.83
-3.11
1.34
4.45
6.43
7.63
8.43
9.07
9.69
10.45
11.42
12.62
14.01
15.54
17.13
18.79
20.56
22.34
24.08
25.65
26.83
27.46
27.35
26.38
24.5
21.84
18.56
15.0
11.49
8.33
5.77
3.92
2.86
2.56
2.92
3.72
4.7
5.64
6.38
6.88
7.07
6.85
6.02
4.4
1.93
-1.24
-4.89
-8.8
-12.74
-16.61
-20.28
-23.51
-25.96
-27.3
-27.36
-26.22
-24.2
-21.72
-19.29
-17.37
-16.29
-16.17
-16.79
-17.64
-17.95
-17.02
-14.41
-10.21
-4.95
0.61
5.67
9.73
12.65
14.61
15.92
16.78
17.22
17.19
16.58
15.37
13.66
11.7
9.83
8.25
7.11
6.34
5.84
5.5
5.22
5.03
4.94
5.03
5.22
5.49
5.77
6.01
6.25
6.47
6.64
6.62
6.27
5.49
4.33
2.91
1.37
-0.18
-1.69
-3.17
-4.7
-6.27
-7.87
-9.38
-10.69
-11.75
-12.54
-13.16
-13.81
-14.77
-16.23
-18.31
-20.94
-23.84
-26.58
-28.55
-29.17
-28.06
-25.15
-20.73
-15.34
-9.6
-4.1
0.76
4.84
8.2
10.91
13.05
14.66
15.7
16.19
16.15
15.69
15.03
14.43
14.08
14.08
14.49
15.16
16.02
16.93
17.76
18.36
18.58
18.28
17.32
15.69
13.4
10.7
7.95
5.52
3.67
2.45
1.76
1.37
1.06
0.59
-0.09
-0.9
-1.73
-2.45
-3.06
-3.62
-4.29
-5.25
-6.71
-8.68
-11.03
-13.52
-15.88
-17.95
-19.68
-21.21
-22.68
-24.24
-25.94
-27.7
-29.29
-30.36
-30.48
-29.25
-26.45
-22.12
-16.61
-10.51
-4.49
0.83
5.15
8.34
10.54
11.97
12.84
13.36
13.67
13.87
13.97
14.01
13.87
13.56
13.12
12.74
12.72
13.22
14.3
15.75
17.28
18.54
19.29
19.39
18.78
17.55
15.74
13.44
10.85
8.22
5.75
3.63
1.92
0.65
-0.11
-0.35
-0.08
0.64
1.61
2.54
3.11
2.98
2.03
0.28
-2.06
-4.71
-7.28
-9.57
-11.44
-12.89
-13.99
-14.79
-15.33
-15.66
-15.84
-15.97
-16.27
-16.9
-18.01
-19.63
-21.72
-24.12
-26.58
-28.72
-30.07
-30.15
-28.58
-25.29
-20.52
-14.84
-8.95
-3.46
1.26
5.09
8.04
10.18
11.57
12.19
12.16
11.58
10.61
9.42
8.16
6.9
5.73
4.78
4.1
3.86
4.2
5.26
7.0
9.33
11.97
14.56
16.77
18.29
19.08
19.24
18.92
18.28
17.4
16.27
14.9
13.34
11.57
9.61
7.52
5.28
3.01
0.89
-0.93
-2.35
-3.42
-4.34
-5.29
-6.31
-7.43
-8.5
-9.42
-10.25
-11.08
-12.06
-13.4
-15.25
-17.71
-20.86
-24.52
-28.29
-31.55
-33.51
-33.46
-31.06
-26.44
-20.16
-13.13
-6.19
0.04
5.2
9.32
12.57
15.06
16.97
18.4
19.34
19.94
20.27
20.41
20.51
20.67
20.85
21.01
21.08
21.02
20.91
20.9
21.03
21.34
21.71
21.89
21.62
20.78
19.33
17.41
15.23
12.94
10.67
8.46
6.34
4.37
2.73
1.58
1.05
1.07
1.32
1.42
1.0
-0.09
-1.79
-3.86
-6.11
-8.33
-10.47
-12.59
-14.69
-16.74
-18.62
-20.14
-21.14
-21.63
-21.72
-21.66
-21.86
-22.65
-24.29
-26.77
-29.81
-32.87
-35.29
-36.32
-35.37
-32.24
-27.11
-20.59
-13.5
-6.59
-0.4
4.79
9.04
12.46
15.15
17.18
18.55
19.28
19.5
19.35
19.02
18.71
18.54
18.5
18.56
18.67
18.77
18.9
19.09
19.37
19.7
19.87
19.67
18.94
17.66
16.01
14.3
12.86
11.89
11.45
11.35
11.29
10.99
10.22
9.0
7.53
6.14
5.08
4.51
4.32
4.26
4.04
3.45
2.45
1.19
-0.07
-1.15
-2.02
-2.81
-3.72
-4.97
-6.69
-8.91
-11.55
-14.49
-17.54
-20.49
-23.14
-25.36
-27.1
-28.45
-29.59
-30.77
-32.18
-33.77
-35.18
-35.76
-34.81
-31.83
-26.78
-20.17
-12.95
-6.13
-0.42
3.89
6.98
9.19
10.8
11.95
12.65
12.85
12.66
12.24
11.88
11.82
12.31
13.36
14.85
16.59
18.37
20.04
21.48
22.66
23.48
23.9
23.84
23.21
22.0
20.27
18.16
15.76
13.21
10.59
8.03
5.65
3.53
1.62
-0.19
-2.03
-4.05
-6.24
-8.53
-10.67
-12.43
-13.72
-14.57
-15.2
-15.95
-17.12
-18.88
-21.32
-24.33
-27.64
-30.85
-33.36
-34.47
-33.6
-30.4
-24.95
-17.94
-10.26
-2.93
3.34
8.25
11.94
14.67
16.72
18.24
19.11
19.26
18.74
17.77
16.73
15.97
15.69
15.87
16.46
17.27
18.17
19.04
19.75
20.24
20.48
20.4
19.96
19.21
18.13
16.77
15.15
13.28
11.18
8.8
6.12
3.19
0.19
-2.72
-5.35
-7.63
-9.63
-11.46
-13.23
-15.03
-16.81
-18.45
-19.86
-21.0
-21.85
-22.67
-23.76
-25.4
-27.74
-30.59
-33.31
-35.19
-35.45
-33.64
-29.71
-24.02
-17.24
-10.16
-3.54
2.16
6.65
10.0
12.42
14.24
15.77
17.15
18.37
19.4
20.19
20.72
21.08
21.31
21.48
21.67
21.96
22.37
22.93
23.49
23.82
23.77
23.25
22.21
20.79
19.13
17.36
15.54
13.71
11.99
10.57
9.67
9.31
9.39
9.58
9.56
9.03
7.91
6.31
4.42
2.48
0.62
-1.06
-2.57
-3.92
-5.13
-6.16
-6.94
-7.33
-7.22
-6.59
-5.59
-4.63
-4.17
-4.62
-6.12
-8.56
-11.55
-14.63
-17.46
-19.89
-21.99
-23.9
-25.79
-27.78
-30.0
-32.54
-35.34
-38.15
-40.39
-41.23
-39.87
-35.88
-29.46
-21.41
-12.93
-5.08
1.44
6.47
10.23
13.15
15.53
17.47
18.95
19.88
20.36
20.55
20.73
21.08
21.7
22.54
23.4
24.16
24.73
25.21
25.69
26.25
26.76
27.0
26.75
25.84
24.32
22.37
20.35
18.49
16.89
15.54
14.27
12.93
11.34
9.57
7.71
6.04
4.75
3.89
3.39
3.06
2.75
2.27
1.66
0.79
-0.32
-1.66
-3.26
-5.09
-7.19
-9.55
-12.18
-14.96
-17.76
-20.35
-22.53
-24.28
-25.72
-27.18
-28.87
-30.95
-33.38
-35.96
-38.33
-39.86
-39.88
-37.74
-33.16
-26.32
-17.97
-9.15
-0.9
6.04
11.48
15.55
18.59
20.78
22.12
22.53
21.93
20.44
18.36
16.13
14.17
12.81
12.15
12.11
12.55
13.27
14.19
15.2
16.27
17.33
18.25
18.85
18.98
18.51
17.43
15.92
14.21
12.58
11.25
10.25
9.52
8.83
7.96
6.75
5.25
3.6
1.97
0.46
-0.97
-2.45
-4.11
-6.09
-8.43
-11.02
-13.76
-16.46
-18.98
-21.17
-22.94
-24.28
-25.34
-26.36
-27.6
-29.27
-31.36
-33.59
-35.46
-36.29
-35.45
-32.61
-27.89
-21.89
-15.48
-9.47
-4.33
-0.14
3.32
6.35
9.16
11.76
14.12
16.16
17.96
19.58
21.05
22.34
23.32
23.92
24.15
24.06
23.74
23.36
22.98
22.68
22.47
22.3
22.02
21.53
20.76
19.64
18.22
16.53
14.65
12.71
10.87
9.27
7.95
6.97
6.26
5.75
5.35
5.02
4.74
4.41
4.01
3.44
2.7
1.82
0.82
-0.28
-1.43
-2.63
-3.86
-5.06
-6.13
-6.99
-7.6
-8.02
-8.4
-8.98
-9.95
-11.46
-13.46
-15.76
-18.18
-20.48
-22.61
-24.57
-26.52
-28.59
-30.78
-32.96
-34.85
-36.02
-35.98
-34.31
-30.85
-25.85
-19.88
-13.71
-8.1
-3.5
-0.09
2.34
4.15
5.74
7.31
8.91
10.51
11.99
13.32
14.48
15.47
16.32
17.08
17.79
18.42
18.98
19.38
19.58
19.57
19.32
18.87
18.28
17.66
17.03
16.48
16.02
15.68
15.42
15.21
14.91
14.38
13.55
12.39
10.92
9.13
7.01
4.62
2.11
-0.33
-2.58
-4.46
-5.93
-6.95
-7.56
-7.86
-7.9
-7.79
-7.72
-7.89
-8.43
-9.43
-10.74
-12.25
-13.85
-15.46
-17.17
-19.1
-21.46
-24.32
-27.71
-31.29
-34.56
-36.8
-37.25
-35.4
-31.06
-24.58
-16.69
-8.5
-0.91
5.36
10.01
13.14
14.95
15.8
15.97
15.64
14.92
14.0
13.07
12.25
11.7
11.37
11.19
11.07
10.93
10.69
10.49
10.46
10.65
11.05
11.45
11.58
11.23
10.22
8.56
6.43
4.1
1.79
-0.32
-2.24
-3.99
-5.56
-7.0
-8.19
-9.14
-9.8
-10.27
-10.62
-10.9
-11.19
-11.48
-11.94
-12.77
-14.28
-16.65
-19.81
-23.5
-27.12
-30.02
-31.51
-31.08
-28.49
-23.9
-17.85
-11.14
-4.62
1.02
5.46
8.69
10.89
12.35
13.29
13.88
14.4
15.04
15.96
17.12
18.32
19.35
20.07
20.46
20.6
20.6
20.42
19.99
19.15
17.82
16.09
14.17
12.27
10.57
9.16
8.04
7.15
6.4
5.61
4.63
3.38
1.82
0.06
-1.68
-3.21
-4.41
-5.24
-5.81
-6.29
-6.79
-7.41
-8.15
-9.0
-9.97
-11.03
-12.23
-13.62
-15.34
-17.52
-20.32
-23.74
-27.57
-31.43
-34.61
-36.41
-36.17
-33.58
-28.73
-22.2
-14.84
-7.61
-1.32
3.64
7.21
9.69
11.47
12.94
14.32
15.7
17.05
18.24
19.21
19.87
20.14
19.97
19.38
18.48
17.5
16.83
16.68
17.23
18.35
19.68
20.86
21.5
21.45
20.72
19.47
17.87
16.1
14.29
12.53
10.89
9.43
8.3
7.6
7.4
7.63
8.11
8.57
8.8
8.68
8.22
7.54
6.77
5.96
5.12
4.14
2.89
1.21
-0.9
-3.37
-5.94
-8.25
-10.06
-11.23
-11.86
-12.17
-12.44
-12.86
-13.61
-14.78
-16.4
-18.44
-20.75
-23.11
-25.23
-26.96
-28.28
-29.35
-30.44
-31.64
-32.75
-33.29
-32.66
-30.37
-26.27
