2013-02-25 11:35:59
64.0
-0.0
-0.0
-0.0
-0.0
-0.0
-0.0
-0.0
-0.0
-0.0
-0.0
0.0
0.01
0.01
-0.0
-0.03
-0.05
-0.05
0.0
0.13
0.36
0.66
1.01
1.37
1.72
2.06
2.4
2.79
3.24
3.8
4.42
5.06
5.66
6.2
6.68
7.15
7.68
8.31
9.14
10.09
11.04
11.88
12.56
13.14
13.76
14.65
15.96
17.91
20.32
22.9
25.38
27.58
29.57
31.68
34.32
37.81
42.54
48.15
54.1
59.83
64.97
69.58
74.14
79.34
85.71
93.76
103.0
112.62
121.73
129.77
136.75
143.3
150.75
157.77
166.64
177.95
191.79
206.97
220.57
228.25
225.36
208.53
176.87
132.76
80.05
23.07
-34.94
-92.44
-149.16
-205.23
-260.37
-313.74
-363.87
-409.83
-450.91
-486.5
-515.74
-537.23
-549.22
-549.96
-538.37
-514.21
-478.67
-433.88
-382.45
-327.02
-269.84
-212.63
-156.66
-102.95
-52.37
-5.9
35.58
71.43
101.35
125.5
144.38
158.69
169.15
176.37
180.75
182.57
182.07
179.51
175.23
169.65
163.18
156.15
148.81
141.3
133.69
126.02
118.33
110.69
103.16
95.8
88.68
81.83
75.25
68.95
62.95
57.25
51.86
46.78
42.03
37.59
33.45
29.61
26.07
22.81
19.83
17.11
14.67
12.48
10.54
8.83
7.35
6.07
4.97
4.05
3.27
2.62
2.09
1.65
1.3
1.01
0.79
0.61
0.47
0.37
0.28
0.22
0.18
0.15
0.13
0.12
0.13
0.13
0.15
0.17
0.2
0.23
0.27
0.31
0.35
0.4
0.44
0.49
0.54
0.59
0.64
0.69
0.76
0.84
0.92
1.02
1.09
1.14
1.17
1.18
1.2
1.26
1.39
1.58
1.81
2.04
2.23
2.4
2.55
2.73
3.0
3.37
3.84
4.37
4.88
5.31
5.66
5.97
6.34
6.86
7.6
8.53
9.51
10.38
11.01
11.37
11.57
11.85
12.46
13.53
14.98
16.5
17.64
18.01
17.43
16.0
14.07
12.05
10.14
8.21
5.78
2.24
-2.88
-9.51
-17.09
-24.62
-31.12
-36.0
-39.22
-41.35
-43.15
-45.32
-48.25
-52.08
-56.6
-61.21
-64.76
-65.55
-61.83
-52.64
-38.49
-21.66
-5.52
6.81
13.83
16.2
16.29
16.77
19.32
23.89
29.1
33.2
35.14
35.01
33.76
32.46
31.64
31.06
29.98
27.68
23.97
19.31
14.69
11.0
8.76
7.8
7.42
6.89
5.78
4.22
2.68
1.61
1.05
0.72
0.09
-1.06
-2.47
-3.44
-3.28
-1.8
0.43
2.22
2.36
0.18
-4.04
-9.15
-13.15
-14.09
-10.8
-3.28
7.22
18.65
28.75
35.75
38.72
37.67
33.23
26.42
18.28
9.61
0.88
-7.74
-16.23
-24.52
-32.2
-38.62
-42.96
-44.73
-44.06
-41.79
-39.16
-37.18
-36.14
-35.38
-33.66
-29.71
-22.85
-13.28
-1.98
9.6
19.92
27.61
31.58
31.18
26.36
17.92
7.54
-2.49
-9.72
-12.3
-9.39
-1.4
10.25
23.63
36.72
47.83
55.64
59.34
58.57
53.58
45.24
34.96
24.43
15.09
7.73
2.27
-2.13
-6.65
-12.36
-19.83
-28.87
-38.67
-47.99
-55.53
-60.45
-62.72
-63.18
-63.31
-64.49
-67.32
-71.28
-74.92
-76.66
-75.72
-72.64
-69.0
-66.5
-66.03
-66.99
-67.63
-66.0
-60.91
-52.54
-42.22
-31.85
-23.7
-20.61
-26.26
-44.45
-77.38
-123.41
-175.88
-224.14
-256.9
-266.21
-250.3
-213.48
-163.39
-107.24
-49.26
9.38
68.57
126.8
180.16
223.32
252.02
265.28
266.07
260.0
252.63
247.18
243.43
238.65
229.78
215.55
197.46
179.11
164.36
155.36
151.7
150.72
148.9
143.33
132.51
116.44
95.92
72.11
46.35
20.37
-3.52
-22.56
-34.3
-37.35
-31.96
-19.95
-4.03
13.04
28.93
41.86
50.47
53.88
52.15
46.79
40.97
38.87
44.29
59.18
82.72
111.71
141.78
168.57
188.65
199.41
198.57
183.92
153.92
109.25
54.04
-4.05
-55.72
-93.26
-113.59
-119.36
-117.35
-115.04
-117.15
-123.95
-132.32
-138.36
-140.1
-138.59
-136.87
-137.8
-142.12
-148.1
-152.78
-153.69
-150.13
-143.23
-135.15
-127.81
-122.05
-117.61
-113.69
-109.76
-106.03
-103.38
-102.64
-103.71
-105.08
-104.09
-98.01
-85.37
-66.87
-45.27
-24.36
-7.46
3.78
9.78
12.4
13.93
16.13
19.89
25.43
32.65
41.43
51.49
62.18
72.34
80.48
85.19
85.66
81.99
75.16
66.67
57.97
50.08
43.35
37.59
32.33
27.17
21.91
16.63
11.52
6.72
2.25
-2.05
-6.36
-10.78
-15.25
-19.53
-23.37
-26.65
-29.49
-32.24
-35.38
-39.26
-43.83
-48.5
-52.22
-53.82
-52.39
-47.71
-40.29
-31.28
-22.01
-13.62
-6.82
-1.84
1.35
2.9
3.0
1.93
0.08
-2.0
-3.79
-4.92
-5.28
-5.0
-4.34
-3.65
-3.21
-3.26
-3.88
-5.07
-6.73
-8.71
-10.9
-13.2
-15.54
-17.82
-19.91
-21.66
-22.97
-23.85
-24.43
-25.01
-26.0
-27.77
-30.55
-34.14
-37.87
-40.71
-41.45
-39.25
-33.9
-25.96
-16.49
-6.7
2.45
10.44
17.13
22.56
26.8
29.89
31.93
33.18
33.97
34.6
35.22
35.7
35.8
35.22
33.88
31.9
29.58
27.21
24.91
22.61
20.1
17.16
13.69
9.75
5.5
1.11
-3.36
-7.99
-12.93
-18.42
-24.67
-31.87
-40.07
-49.06
-58.25
-66.64
-72.89
-75.69
-74.07
-67.78
-57.35
-43.94
-28.94
-13.55
1.44
15.6
28.71
40.52
50.58
58.44
63.81
66.77
67.85
67.85
67.61
67.62
67.98
68.34
68.21
67.16
65.09
62.26
59.17
56.41
54.39
53.27
52.91
53.01
53.28
53.53
53.71
53.98
54.57
55.8
57.94
60.99
64.49
67.19
67.17
62.22
50.64
32.08
7.9
-19.2
-46.26
-71.18
-93.36
-113.56
-133.14
-153.01
-173.18
-192.61
-209.52
-221.82
-227.43
-224.6
-212.21
-190.06
-159.11
-121.65
-81.09
-41.45
-6.65
20.52
39.02
49.8
55.25
58.16
60.55
63.01
64.86
64.96
62.73
58.61
53.92
50.13
48.15
48.08
49.51
51.94
55.2
59.5
65.04
71.71
78.87
85.36
89.91
91.47
89.64
84.74
77.78
70.0
62.54
55.96
50.19
44.51
37.86
29.24
18.09
4.58
-10.3
-24.9
-37.36
-46.09
-50.31
-50.25
-47.11
-42.58
-38.32
-35.41
-34.19
-34.37
-35.47
-37.12
-39.24
-41.84
-44.86
-48.06
-51.07
-53.6
-55.55
-56.91
-57.53
-57.03
-54.74
-50.11
-42.96
-33.67
-23.18
-12.55
-2.77
5.5
11.87
16.11
18.16
18.05
16.12
13.14
10.27
8.83
9.87
13.84
20.26
27.85
34.79
39.31
40.11
36.74
29.66
20.17
10.0
0.98
-5.5
-8.82
-9.24
-7.69
-5.32
-3.07
-1.44
-0.55
-0.5
-1.48
-3.81
-7.61
-12.46
-17.42
-21.18
-22.6
-21.13
-17.03
-11.1
-4.4
2.15
8.0
12.93
17.03
20.42
23.21
25.39
26.85
27.55
27.63
27.48
27.67
28.69
30.79
33.84
37.43
40.92
43.65
44.95
44.29
41.36
36.26
29.57
22.29
15.57
10.32
6.98
5.37
4.89
4.68
3.87
1.72
-2.21
-8.0
-15.16
-22.69
-29.29
-33.75
-35.29
-33.82
-29.83
-24.19
-17.74
-11.18
-4.97
0.57
5.08
8.27
9.94
10.11
9.11
7.5
5.88
4.76
4.39
4.75
5.7
7.03
8.62
10.34
12.06
13.58
14.67
15.15
14.96
14.24
13.24
12.22
11.34
10.51
9.45
7.73
4.93
0.71
-4.96
-11.77
-18.96
-25.42
-29.9
-31.38
-29.37
-24.19
-16.84
-8.71
-1.16
4.88
9.02
11.32
12.07
11.55
10.01
7.68
4.99
2.46
0.71
0.17
0.94
2.75
5.1
7.42
9.25
10.41
10.87
10.69
9.96
8.7
6.84
4.32
1.1
-2.74
-6.95
-11.12
-14.81
-17.62
-19.38
-20.2
-20.42
-20.57
-21.07
-22.13
-23.54
-24.72
-24.92
-23.51
-20.25
-15.32
-9.35
-3.09
2.88
8.24
12.92
16.97
20.3
22.76
24.2
24.66
24.42
23.9
23.45
23.2
23.01
22.63
21.82
20.51
18.75
16.68
14.47
12.25
10.09
7.91
5.59
2.89
-0.4
-4.3
-8.56
-12.7
-16.2
-18.67
-20.08
-20.74
-21.16
-21.92
-23.45
-25.95
-29.32
-33.16
-36.76
-39.21
-39.69
-37.72
-33.34
-27.12
-19.94
-12.67
-5.97
-0.14
4.75
8.72
11.79
13.89
15.05
15.37
15.11
14.64
14.31
14.35
14.75
15.33
15.76
15.79
15.32
14.5
13.61
12.95
12.62
12.51
12.32
11.73
10.56
8.81
6.7
4.49
2.49
0.8
-0.57
-1.82
-3.16
-4.83
-6.99
-9.69
-12.82
-16.18
-19.34
-21.76
-22.82
-22.03
-19.18
-14.51
-8.67
-2.54
3.06
7.57
10.84
13.0
14.28
14.83
14.67
13.81
12.34
10.5
8.7
7.3
6.53
6.37
6.62
6.93
7.05
6.77
6.07
5.04
3.81
2.52
1.27
0.07
-1.12
-2.36
-3.7
-5.11
-6.48
-7.69
-8.67
-9.47
-10.31
-11.51
-13.4
-16.15
-19.65
-23.44
-26.77
-28.78
-28.79
-26.41
-21.78
-15.44
-8.29
-1.29
4.75
9.28
12.1
13.36
13.39
12.6
11.36
10.01
8.83
8.1
8.0
8.62
9.84
11.37
12.85
13.96
14.48
14.39
13.78
12.82
11.66
10.43
9.19
7.92
6.61
5.28
3.94
2.66
1.49
0.38
-0.83
-2.41
-4.55
-7.36
-10.8
-14.72
-18.88
-22.91
-26.33
-28.5
-28.78
-26.78
-22.57
-16.81
-10.53
-4.87
-0.64
1.87
2.91
3.05
2.95
3.08
3.75
5.04
6.89
9.2
11.81
14.5
16.99
18.91
19.89
19.71
18.41
16.33
14.02
11.99
10.5
9.43
8.36
6.81
4.47
1.43
-1.89
-4.91
-7.15
-8.42
-8.89
-8.95
-9.1
-9.79
-11.28
-13.64
-16.64
-19.82
-22.54
-24.14
-24.05
-22.0
-18.09
-12.76
-6.7
-0.62
4.83
9.18
12.15
13.73
14.1
13.64
12.81
12.03
11.55
11.48
11.73
12.18
12.7
13.17
13.48
13.53
13.25
12.58
11.5
10.02
8.12
5.83
3.14
0.13
-3.05
-6.19
-9.06
-11.55
-13.63
-15.47
-17.35
-19.52
-22.15
-25.08
-27.9
-29.96
-30.56
-29.26
-25.99
-21.15
-15.45
-9.76
-4.77
-0.89
1.76
3.3
3.9
3.74
3.01
1.93
0.8
-0.05
-0.36
-0.06
0.7
1.56
2.13
2.11
1.44
0.28
-1.06
-2.32
-3.39
-4.35
-5.4
-6.71
-8.3
-9.98
-11.49
-12.6
-13.3
-13.85
-14.66
-16.1
-18.31
-21.07
-23.81
-25.71
-25.99
-24.14
-20.06
-14.13
-7.02
0.41
7.34
13.15
17.48
20.27
21.66
21.99
21.7
21.17
20.72
20.54
20.67
21.04
21.51
21.94
22.16
22.05
21.57
20.73
19.57
18.19
16.62
14.83
12.74
10.25
7.3
3.89
0.14
-3.77
-7.65
-11.35
-14.83
-18.18
-21.59
-25.13
-28.66
-31.61
-33.17
-32.49
-29.1
-23.17
-15.48
-7.17
0.7
7.46
12.94
17.29
20.72
23.37
25.22
26.24
26.49
26.09
25.23
24.07
22.68
21.13
19.59
18.27
17.42
17.16
17.35
17.64
17.58
16.7
14.77
11.73
7.74
3.01
-2.23
-7.77
-13.45
-19.09
-24.47
-29.42
-33.88
-37.9
-41.52
-44.65
-46.89
-47.56
-45.89
-41.44
-34.23
-24.94
-14.61
-4.36
4.9
12.66
18.71
23.0
25.5
26.27
25.5
23.62
21.27
19.06
17.39
16.34
15.67
15.06
14.25
13.21
12.11
11.21
10.67
10.45
10.31
9.86
8.7
6.62
3.57
-0.23
-4.43
-8.63
-12.52
-15.99
-19.08
-22.03
-25.17
-28.86
-33.33
-38.65
-44.59
-50.52
-55.67
-59.17
-60.42
-59.24
-55.89
-50.97
-45.16
-39.03
-32.92
-26.98
-21.22
-15.58
-9.91
-3.99
2.47
9.72
17.82
26.61
35.62
44.23
51.8
57.81
61.98
64.23
64.72
63.74
61.67
58.87
55.65
52.22
48.61
44.81
40.81
36.62
32.32
28.03
23.84
19.74
15.57
11.08
6.03
0.37
-5.58
-11.06
-15.04
-16.51
-14.93
-10.47
-4.02
3.16
9.8
15.04
18.51
20.19
20.17
18.52
15.33
10.89
5.79
0.95
-2.64
-4.22
-3.51
-0.72
3.54
8.49
13.37
17.53
20.48
21.82
21.32
18.94
14.89
9.65
3.89
-1.68
-6.47
-10.18
-12.86
-14.74
-16.15
-17.33
-18.45
-19.68
-21.24
-23.48
-26.61
-30.54
-34.73
-38.21
-40.01
-39.42
-36.32
-31.18
-24.82
-18.04
-11.44
-5.3
0.33
5.41
9.85
13.44
16.0
17.49
18.09
18.16
18.08
18.11
18.3
18.49
18.43
17.94
16.97
15.66
14.25
12.98
12.03
11.44
11.07
10.63
9.76
8.17
5.78
2.79
-0.41
-3.41
-6.02
-8.34
-10.7
-13.54
-17.14
-21.5
-26.27
-30.83
-34.36
-36.05
-35.25
-31.73
-25.75
-18.04
-9.66
-1.62
5.26
10.62
14.46
17.04
18.71
19.78
20.42
20.76
20.89
20.95
21.12
21.57
22.32
23.19
23.86
24.04
23.59
22.63
21.54
20.67
20.23
20.13
20.0
19.37
17.88
15.45
12.28
8.8
5.45
2.53
0.1
-1.96
-3.96
-6.19
-8.89
-12.23
-16.24
-20.72
-25.24
-29.1
-31.44
-31.55
-29.14
-24.5
-18.44
-12.0
-6.14
-1.36
2.25
4.97
7.07
8.72
9.86
10.41
10.38
9.98
9.56
9.45
9.73
10.24
10.59
10.42
9.55
8.1
6.38
4.79
3.61
2.92
2.61
2.5
2.43
2.43
2.65
3.35
4.75
6.89
9.6
12.48
14.99
16.6
16.85
15.44
12.25
7.35
1.04
-6.07
-13.1
-19.03
-22.96
-24.39
-23.41
-20.68
-17.26
-14.22
-12.34
-12.02
-13.29
-16.05
-20.17
-25.53
-31.89
-38.68
-44.95
-49.47
-51.07
-49.08
-43.6
-35.49
-26.03
-16.37
-7.09
1.91
11.24
21.58
33.21
45.98
59.51
73.37
87.24
100.7
113.17
123.86
132.16
138.0
142.02
145.22
148.23
150.73
151.28
148.05
139.68
126.18
108.85
89.63
69.98
50.11
28.92
4.65
-24.01
-57.15
-93.45
-131.0
-168.43
-205.94
-245.28
-288.73
-337.37
-389.32
-439.41
-480.0
-503.33
-504.24
-481.96
-440.49
-387.34
-331.55
-281.55
-243.32
-219.07
-206.72
-200.43
-192.29
-174.84
-143.5
-97.79
-41.06
21.42
84.75
145.88
204.07
260.21
315.74
371.6
427.21
479.69
523.55
551.36
555.67
531.64
479.46
404.6
316.58
226.08
142.19
70.93
15.02
-25.34
-51.67
-66.91
-75.12
-80.85
-88.08
-99.01
-113.53
-129.66
-144.73
-156.6
-164.64
-169.8
-173.89
-178.73
-185.33
-193.47
-201.83
-208.45
-211.26
-208.48
-198.97
-182.46
-159.89
-133.54
-106.79
-83.05
-64.43
-50.83
-40.1
-29.62
-18.3
-7.8
-1.75
-3.44
-12.99
-26.26
-36.01
-34.96
-18.71
12.98
57.12
109.65
167.03
226.44
284.69
337.15
377.92
401.39
404.42
387.73
355.91
315.87
274.88
238.85
211.53
194.46
187.23
188.18
194.96
205.28
217.53
231.01
245.47
260.41
274.25
284.21
286.92
279.56
260.93
231.82
194.54
151.82
105.63
56.77
4.98
-50.08
-107.93
-166.65
-223.01
-273.32
-314.54
-345.14
-365.4
-376.98
-381.97
-382.0
-377.71
-369.06
-355.93
-338.65
-318.08
-295.27
-270.89
-245.18
-218.48
-192.16
-169.25
-153.95
-150.23
-159.88
-181.23
-209.31
-237.45
-259.61
-272.4
-275.67
-271.95
-265.0
-258.33
-254.54
-254.96
-259.87
-268.45
-278.65
-287.32
-290.62
-284.98
-267.93
-238.76
-198.36
-148.67
-91.91
-30.13
34.84
101.12
166.7
229.46
287.66
340.25
387.04
428.55
465.6
498.83
528.19
552.86
571.07
580.48
578.81
564.59
537.7
499.71
453.98
405.35
359.24
320.18
290.18
267.39
246.23
219.05
179.28
124.51
58.05
-12.06
-76.22
-126.9
-160.96
-179.56
-186.07
-183.34
-172.23
-151.87
-121.35
-81.43
-35.44
11.13
52.02
82.01
98.41
101.61
94.71
82.27
68.83
57.57
49.76
45.13
42.81
42.16
43.06
45.47
48.92
52.05
52.86
49.36
40.51
26.72
9.71
-7.91
-23.48
-34.88
-41.16
-42.51
-40.01
-34.96
-28.29
-20.27
-10.68
0.6
13.09
25.44
35.8
42.52
44.8
42.93
38.05
31.62
24.8
18.18
11.69
4.85
-2.97
-12.25
-23.21
-35.75
-49.49
-63.9
-78.35
-92.24
-105.08
-116.44
-126.06
-133.85
-139.92
-144.56
-148.06
-150.63
-152.17
-152.28
-150.4
-146.09
-139.27
-130.34
-120.09
-109.47
-99.31
-90.13
-82.17
-75.44
-69.91
-65.49
-61.96
-58.91
-55.77
-51.93
-47.02
-41.12
-34.71
-28.54
-23.25
-19.13
-16.03
-13.45
-10.85
-7.86
-4.39
-0.63
3.14
6.67
9.85
12.64
15.08
17.16
18.85
20.16
21.17
22.16
23.56
25.93
29.78
35.39
42.68
51.2
60.21
68.94
76.7
83.04
87.78
90.91
92.53
92.66
91.16
87.77
82.15
74.04
63.38
50.41
35.62
19.67
3.35
-12.55
-27.23
-39.91
-49.98
-57.06
-61.18
-62.77
-62.57
-61.4
-59.99
-58.69
-57.52
-56.23
-54.43
-51.79
-48.07
-43.14
-36.94
-29.47
-20.76
-11.02
-0.68
9.58
18.99
26.83
32.75
36.79
39.33
40.85
41.7
41.98
41.59
40.38
38.41
35.94
33.37
31.02
28.97
27.01
24.73
21.68
17.58
12.31
5.94
-1.4
-9.57
-18.48
-28.02
-38.0
-48.11
-57.93
-66.93
-74.65
-80.77
-85.18
-87.97
-89.33
-89.39
-88.18
-85.53
-81.18
-74.86
-66.47
-56.19
-44.5
-32.14
-19.98
-8.92
0.29
7.11
11.32
13.03
12.62
10.74
8.14
5.56
3.53
2.28
1.73
1.58
1.52
1.35
1.07
0.81
0.68
0.64
0.52
0.13
-0.58
-1.46
-2.28
-2.88
-3.27
-3.68
-4.37
-5.44
-6.76
-8.04
-8.97
-9.32
-8.95
-7.73
-5.43
-1.77
3.44
10.11
17.76
25.6
32.76
38.47
42.3
44.12
44.12
42.66
40.2
37.23
34.23
31.54
29.33
27.58
26.14
24.78
23.31
21.59
19.54
17.15
14.42
11.31
7.77
3.78
-0.65
-5.38
-10.11
-14.47
-18.12
-20.89
-22.81
-24.19
-25.44
-26.88
-28.61
-30.33
-31.43
-31.11
-28.66
-23.64
-16.07
-6.47
4.25
15.04
24.98
33.48
40.39
45.85
50.17
53.59
56.18
57.9
58.67
58.48
57.43
55.65
53.1
49.57
44.64
37.92
29.21
18.66
6.76
-5.8
-18.32
-30.19
-40.98
-50.39
-58.25
-64.46
-69.0
-71.86
-73.04
-72.57
-70.6
-67.49
-63.74
-59.83
-55.92
-51.65
-46.16
-38.45
-27.87
-14.52
0.67
16.23
30.68
42.98
52.64
59.63
64.08
66.06
65.59
62.76
57.91
51.61
44.57
37.39
30.41
23.68
17.03
10.31
3.51
-3.14
-9.19
-14.24
-17.97
-20.33
-21.53
-21.87
-21.71
-21.29
-20.76
-20.21
-19.71
-19.35
-19.18
-19.27
-19.71
-20.58
-22.01
-24.01
-26.35
-28.51
-29.67
-29.01
-25.95
-20.5
-13.19
-5.02
2.99
10.03
15.67
19.81
22.48
23.75
23.7
22.47
20.38
17.85
15.34
13.19
11.49
10.18
9.05
7.98
6.89
5.77
4.58
3.27
1.73
-0.12
-2.26
-4.61
-7.07
-9.54
-11.95
-14.28
-16.44
-18.41
-20.17
-21.7
-22.97
-23.83
-24.07
-23.35
-21.43
-18.19
-13.73
-8.3
-2.18
4.31
10.9
17.23
22.88
27.36
30.32
31.63
31.51
30.41
28.86
27.3
25.9
24.63
23.37
22.02
20.63
19.29
18.11
17.06
16.06
14.94
13.51
11.7
9.49
6.9
4.03
0.99
-2.12
-5.17
-8.07
-10.8
-13.41
-16.02
-18.83
-22.0
-25.6
-29.48
-33.21
-36.16
-37.56
-36.78
-33.53
-27.98
-20.71
-12.55
-4.32
3.31
9.89
15.16
19.0
21.33
22.21
21.89
20.74
19.25
17.86
16.89
16.39
16.26
16.22
16.07
15.64
14.91
13.94
12.73
11.22
9.24
6.61
3.29
-0.59
-4.72
-8.66
-12.04
-14.59
-16.31
-17.4
-18.2
-19.15
-20.58
-22.58
-24.94
-27.14
-28.52
-28.46
-26.57
-22.78
-17.31
-10.62
-3.28
4.07
10.82
16.43
20.51
22.94
23.89
23.77
23.1
22.32
21.71
21.3
20.96
20.52
19.82
18.8
17.52
16.15
14.83
13.7
12.8
12.06
11.3
10.35
9.05
7.28
5.04
2.34
-0.71
-3.95
-7.18
-10.25
-13.13
-15.96
-19.05
-22.71
-27.1
-32.02
-36.89
-40.91
-43.32
-43.72
-42.19
-39.15
-35.22
-30.88
-26.47
-22.17
-18.19
-14.82
-12.37
-11.07
-10.86
-11.44
-12.32
-12.98
-13.11
-12.69
-11.94
-11.17
-10.59
-10.16
-9.72
-8.98
-7.76
-6.03
-3.86
-1.4
1.36
4.46
8.01
12.0
16.23
20.32
23.81
26.25
27.37
27.01
25.15
21.88
17.41
12.18
6.78
1.85
-2.12
-4.91
-6.58
-7.44
-7.8
-7.9
-7.82
-7.6
-7.25
-6.81
-6.28
-5.58
-4.56
-3.1
-1.15
1.14
3.53
5.76
7.69
9.34
10.82
12.29
13.79
15.22
16.39
16.99
16.81
15.7
13.73
11.05
7.93
4.61
1.28
-1.99
-5.21
-8.44
-11.77
-15.26
-18.86
-22.32
-25.2
-26.9
-26.89
-24.85
-20.83
-15.22
-8.63
-1.69
5.02
11.11
16.24
20.13
22.57
23.48
23.06
21.73
20.0
18.35
17.02
16.02
15.15
14.18
12.98
11.56
10.01
8.45
6.95
5.55
4.2
2.82
1.31
-0.49
-2.71
-5.41
-8.51
-11.82
-15.08
-18.09
-20.78
-23.24
-25.69
-28.3
-31.07
-33.74
-35.84
-36.79
-36.19
-33.91
-30.16
-25.4
-20.1
-14.62
-9.13
-3.75
1.44
6.2
10.26
13.36
15.4
16.43
16.63
16.2
15.31
14.06
12.58
10.99
9.48
8.19
7.2
6.45
5.81
5.09
4.15
2.9
1.34
-0.42
-2.29
-4.13
-5.9
-7.68
-9.7
-12.26
-15.59
-19.68
-24.14
-28.22
-31.03
-31.77
-30.01
-25.84
-19.76
-12.52
-4.88
2.54
9.25
14.93
19.36
22.44
24.18
24.77
24.48
23.66
22.68
21.76
21.03
20.43
19.78
18.86
17.49
15.64
13.43
11.09
8.81
6.71
4.75
2.83
0.89
-1.04
-2.86
-4.48
-5.97
-7.52
-9.48
-12.16
-15.7
-19.9
-24.18
-27.73
-29.69
-29.37
-26.55
-21.43
-14.7
-7.22
0.19
6.84
12.38
16.63
19.55
21.19
21.64
21.07
19.71
17.82
15.6
13.19
10.69
8.26
6.21
4.93
4.74
5.75
7.68
9.99
12.05
13.4
13.87
13.55
12.63
11.24
9.38
6.99
4.05
0.56
-3.39
-7.72
-12.3
-16.86
-20.91
-23.8
-24.76
-23.19
-18.89
-12.16
-3.87
4.78
12.49
18.26
21.6
22.56
21.6
19.3
16.15
12.39
8.14
3.52
-1.21
-5.67
-9.54
-12.67
-15.2
-17.45
-19.76
-22.28
-24.94
-27.49
-29.68
-31.35
-32.48
-33.23
-33.8
-34.42
-35.25
-36.43
-38.06
-40.12
-42.38
-44.3
-45.03
-43.67
-39.5
-32.34
-22.62
-11.34
0.27
11.09
20.29
27.43
32.39
35.26
36.25
35.73
34.13
31.91
29.46
27.02
24.68
22.36
19.96
17.36
14.46
11.17
7.48
3.42
-0.89
-5.29
-9.67
-13.96
-18.2
-22.45
-26.79
-31.31
-36.09
-41.25
-46.79
-52.47
-57.67
-61.41
-62.61
-60.46
-54.76
-46.06
-35.45
-24.2
-13.36
-3.59
4.87
12.04
17.96
22.73
26.43
29.2
31.24
32.86
34.4
36.13
38.25
40.8
43.65
46.59
49.35
51.72
53.52
54.59
54.73
53.73
51.41
47.66
42.55
36.21
28.81
20.38
10.81
-0.02
-12.08
-24.84
-37.19
-47.54
-54.23
-56.01
-52.51
-44.29
-32.65
-19.18
-5.34
7.77
19.4
29.02
36.21
40.71
42.6
42.35
40.77
38.83
37.25
36.43
36.28
36.45
36.59
36.44
35.92
35.03
33.7
31.76
29.05
25.55
21.44
17.03
12.64
8.36
4.1
-0.38
-5.32
-10.85
-17.07
-24.01
-31.62
-39.57
-47.03
-52.7
-55.04
-52.78
-45.44
-33.6
-18.83
-3.15
11.42
23.43
32.08
37.22
39.15
38.43
35.78
31.99
27.86
24.11
21.23
19.43
18.67
18.71
19.27
20.11
21.07
22.02
22.79
23.13
22.75
21.38
18.88
15.31
10.9
5.93
0.7
-4.69
-10.26
-16.17
-22.65
-29.78
-37.38
-44.91
-51.39
-55.6
-56.34
-52.82
-44.95
-33.52
-19.97
-6.02
6.77
17.3
25.03
29.89
32.04
31.81
29.59
25.93
21.48
17.0
13.14
10.38
8.86
8.44
8.73
9.26
9.64
9.58
8.95
7.67
5.71
3.05
-0.29
-4.19
-8.49
-13.02
-17.59
-22.13
-26.67
-31.36
-36.41
-41.92
-47.74
-53.22
-57.19
-58.1
-54.56
-45.85
-32.34
-15.45
2.74
20.15
35.28
47.37
56.32
62.41
66.02
67.51
67.36
66.07
64.17
62.01
59.59
56.6
52.57
47.19
40.5
32.99
25.4
18.45
12.62
7.89
3.9
0.09
-4.05
-8.76
-13.94
-19.26
-24.36
-28.98
-33.11
-36.98
-40.94
-45.3
-50.12
-55.03
-59.2
-61.5
-60.81
-56.4
-48.2
-36.86
-23.57
-9.69
3.56
15.34
25.18
32.87
38.36
41.71
43.17
43.13
42.17
40.86
39.61
38.55
37.6
36.54
35.12
33.26
31.01
28.58
26.23
24.16
22.41
20.8
18.95
16.45
12.99
8.58
3.55
-1.57
-6.31
-10.48
-14.26
-18.11
-22.5
-27.8
-33.99
-40.66
-47.04
-52.03
-54.47
-53.44
-48.48
-39.89
-28.64
-16.12
-3.74
7.41
16.75
24.09
29.44
32.82
34.33
34.13
32.65
30.48
28.25
26.38
24.99
23.88
22.69
21.16
19.21
16.96
14.61
12.3
9.97
7.4
4.26
0.37
-4.26
-9.38
-14.56
-19.37
-23.49
-26.85
-29.65
-32.21
-34.89
-37.92
-41.38
-45.09
-48.64
-51.41
-52.6
-51.4
-47.19
-39.82
-29.72
-17.95
-5.87
5.23
14.36
21.05
25.3
27.39
27.75
26.89
25.39
23.79
22.55
21.9
21.81
21.96
21.97
21.54
20.58
19.21
17.69
16.19
14.76
13.28
11.51
9.26
6.43
3.06
-0.72
-4.72
-8.78
-12.86
-16.91
-20.99
-25.16
-29.53
-34.18
-39.01
-43.55
-47.03
-48.4
-46.73
-41.58
-33.21
-22.56
-10.92
0.42
10.53
18.9
25.35
29.89
32.5
33.29
32.46
30.48
28.01
25.71
24.04
23.09
22.6
22.09
21.14
19.55
17.44
15.12
12.89
10.84
8.84
6.6
3.81
0.39
-3.54
-7.7
-11.78
-15.58
-19.08
-22.41
-25.74
-29.3
-33.24
-37.65
-42.38
-46.94
-50.51
-52.01
-50.49
-45.48
-37.27
-26.85
-15.61
-4.84
4.57
12.3
18.42
23.12
26.47
28.4
28.85
27.93
26.06
23.87
22.04
21.03
20.86
21.2
21.52
21.35
20.53
19.23
17.82
16.58
15.55
14.42
12.74
10.12
6.49
2.09
-2.6
-7.08
-11.05
-14.49
-17.57
-20.62
-23.95
-27.77
-32.12
-36.84
-41.51
-45.42
-47.7
-47.47
-44.15
-37.64
-28.46
-17.66
-6.53
3.69
12.11
18.27
22.12
23.86
23.87
22.62
20.69
18.66
17.06
16.12
15.85
15.89
15.76
15.08
13.72
11.9
10.06
8.63
7.78
7.27
6.62
5.28
2.96
-0.32
-4.22
-8.3
-12.25
-15.93
-19.38
-22.74
-26.19
-29.88
-33.94
-38.3
-42.6
-46.05
-47.6
-46.25
-41.45
-33.37
-22.89
-11.33
-0.01
10.03
18.14
24.08
27.8
29.44
29.32
27.9
25.81
23.67
21.97
20.93
20.46
20.28
20.0
19.36
18.21
16.61
14.74
12.83
11.08
9.58
8.23
6.81
5.02
2.58
-0.62
-4.48
-8.7
-12.95
-16.97
-20.71
-24.31
-28.04
-32.22
-37.0
-42.26
-47.52
-51.9
-54.25
-53.5
-49.02
-40.89
-30.02
-17.84
-5.86
4.83
13.73
20.81
26.25
30.12
32.35
32.85
31.78
29.65
27.2
25.19
24.03
23.73
23.91
24.02
23.66
22.71
21.3
19.72
18.22
16.89
15.65
14.26
12.39
9.81
6.47
2.51
-1.76
-6.0
-9.95
-13.56
-16.9
-20.15
-23.54
-27.28
-31.53
-36.32
-41.42
-46.19
-49.64
-50.62
-48.22
-42.13
-32.85
-21.61
-9.95
0.74
9.56
16.24
20.94
24.04
25.83
26.46
26.02
24.65
22.7
20.67
19.05
18.07
17.66
17.44
17.0
16.1
14.84
13.47
12.33
11.48
10.73
9.72
8.11
5.79
2.89
-0.31
-3.5
-6.52
-9.34
-12.07
-14.86
-17.82
-21.08
-24.75
-28.92
-33.5
-38.06
-41.73
-43.29
-41.62
-36.08
-26.92
-15.26
-2.68
9.24
19.41
27.29
32.83
36.18
37.5
37.09
35.37
32.98
30.65
28.93
28.0
27.65
27.45
26.9
25.75
23.95
21.65
19.1
16.41
13.6
10.56
7.09
3.04
-1.66
-6.89
-12.35
-17.64
-22.42
-26.5
-29.97
-33.11
-36.38
-40.23
-44.97
-50.55
-56.46
-61.73
-65.01
-64.99
-60.84
-52.44
-40.61
-26.82
-12.73
0.27
11.33
20.21
26.99
31.84
34.87
36.1
35.76
34.34
32.59
31.37
31.25
32.4
34.49
36.9
38.99
40.39
41.08
41.19
40.9
40.16
38.7
36.09
31.96
26.17
18.93
10.76
2.33
-5.78
-13.24
-20.13
-26.84
-33.91
-41.79
-50.51
-59.59
-67.99
-74.31
-77.14
-75.48
-69.02
-58.34
-44.71
-29.77
-15.11
-1.97
8.92
17.26
23.07
26.58
28.2
28.49
28.11
27.69
27.71
28.4
29.67
31.26
32.8
33.93
34.46
34.31
33.54
32.22
30.39
27.97
24.82
20.82
15.97
10.55
4.93
-0.52
-5.63
-10.55
-15.74
-21.75
-29.02
-37.61
-47.08
-56.41
-64.18
-68.84
-69.09
-64.35
-54.94
-42.13
-27.77
-13.78
-1.7
7.62
14.02
17.83
19.63
20.03
19.57
18.68
17.66
16.72
16.01
15.58
15.45
15.56
15.81
15.97
15.78
15.04
13.65
11.73
9.46
7.05
4.6
2.06
-0.66
-3.62
-6.84
-10.37
-14.37
-19.15
-24.95
-31.63
-38.44
-44.03
-46.69
-45.02
-38.42
-27.4
-13.43
1.51
15.51
27.11
35.56
40.68
42.67
41.93
38.93
34.16
28.21
21.69
15.19
9.25
4.28
0.56
-1.87
-3.14
-3.57
-3.57
-3.47
-3.41
-3.29
-2.96
-2.34
-1.66
-1.32
-1.84
-3.63
-6.84
-11.46
-17.34
-24.21
-31.51
-38.22
-42.88
-43.96
-40.4
-32.19
-20.52
-7.44
4.87
14.79
21.69
25.77
27.64
27.9
26.86
24.6
21.21
17.03
12.69
8.94
6.4
5.32
5.45
6.2
6.8
6.63
5.34
2.98
-0.14
-3.52
-6.72
-9.55
-12.05
-14.46
-17.13
-20.31
-24.24
-29.09
-35.01
-41.93
-49.34
-56.05
-60.23
-59.91
-53.77
-41.74
-25.26
-6.82
10.93
26.04
37.68
45.99
51.58
54.97
56.48
56.25
54.59
52.05
49.28
46.84
44.91
43.37
41.91
40.26
38.33
36.15
33.84
31.39
28.71
25.65
22.05
17.82
12.96
7.52
1.59
-4.78
-11.59
-18.99
-27.18
-36.29
-46.07
-55.57
-63.19
-66.91
-64.99
-56.72
-42.77
-25.12
-6.45
10.7
24.7
35.01
41.91
46.11
48.25
48.75
47.85
45.77
42.82
39.25
35.3
31.06
26.57
21.93
17.36
13.27
10.02
7.85
6.79
6.63
7.04
7.63
7.97
7.62
6.19
3.44
-0.64
-5.93
-12.22
-19.38
-27.42
-36.23
-45.29
-53.43
-58.85
-59.7
-54.75
-44.01
-28.9
-11.76
4.85
18.92
29.43
36.24
39.75
40.54
39.18
36.31
32.71
29.3
26.96
26.21
26.96
28.58
30.09
30.6
29.64
27.33
24.2
20.92
17.92
15.23
12.54
9.46
5.87
1.99
-1.65
-4.51
-6.37
-7.5
-8.66
-10.83
-14.97
-21.66
-30.85
-41.68
-52.54
-61.3
-65.87
-64.81
-57.8
-45.78
-30.6
-14.39
1.05
14.55
25.54
33.84
39.37
42.21
42.67
41.42
39.41
37.64
36.73
36.81
37.46
38.0
37.85
36.68
34.6
31.92
29.01
26.03
22.88
19.23
14.73
9.25
2.96
-3.64
-9.99
-15.65
-20.58
-25.04
-29.55
-34.71
-41.0
-48.64
-57.41
-66.45
-74.24
-78.78
-78.19
-71.39
-58.69
-41.73
-23.0
-5.06
10.3
22.27
30.87
36.48
39.49
40.15
38.8
36.05
32.81
30.05
28.47
28.26
29.03
30.13
30.89
30.94
30.28
29.13
27.72
26.1
24.04
21.21
17.3
12.26
6.31
-0.08
-6.41
-12.28
-17.54
-22.32
-26.99
-32.12
-38.13
-45.09
-52.35
-58.58
-61.99
-60.91
-54.47
-42.96
-27.79
-11.04
5.15
19.2
30.19
37.88
42.44
44.25
43.87
41.93
39.17
36.2
33.46
31.14
29.22
27.54
25.99
24.49
23.0
21.55
20.09
18.51
16.54
13.85
10.19
5.48
0.03
-5.7
-11.1
-15.86
-20.0
-23.96
-28.37
-33.86
-40.77
-48.92
-57.58
-65.36
-70.54
-71.4
-66.78
-56.53
-41.74
-24.4
-6.84
8.89
21.53
30.61
36.3
39.11
39.65
38.58
36.58
34.35
32.49
31.39
31.11
31.34
31.6
31.39
30.42
28.71
26.51
24.13
21.74
19.23
16.28
12.52
7.78
2.19
-3.82
-9.77
-15.32
-20.42
-25.28
-30.32
-35.99
-42.59
-50.11
-57.97
-64.96
-69.39
-69.53
-64.16
-53.18
-37.72
-19.94
-2.28
13.22
25.44
34.22
39.98
43.33
44.69
44.36
42.62
39.87
36.71
33.8
31.61
30.24
29.42
28.66
27.53
25.9
23.97
22.13
20.61
19.32
17.75
15.25
11.28
5.83
-0.63
-7.23
-13.17
-18.02
-21.94
-25.6
-29.91
-35.62
-42.99
-51.59
-60.31
-67.48
-71.35
-70.46
-64.15
-52.78
-37.65
-20.69
-3.92
11.05
23.27
32.46
38.71
42.27
43.39
42.38
39.77
36.29
32.84
30.14
28.51
27.83
27.58
27.19
26.27
24.73
22.8
20.73
18.72
16.66
14.28
11.23
7.31
2.58
-2.62
-7.8
-12.52
-16.54
-19.93
-23.0
-26.26
-30.23
-35.32
-41.69
-48.98
-56.14
-61.52
-63.23
-59.77
-50.72
-36.98
-20.55
-3.89
10.92
22.66
31.02
36.29
38.95
39.41
38.0
35.17
31.57
28.0
25.14
23.33
22.46
22.04
21.53
20.49
18.86
16.9
14.97
13.34
11.95
10.44
8.33
5.26
1.24
-3.42
-8.19
-12.64
-16.61
-20.25
-24.01
-28.42
-33.98
-40.85
-48.72
-56.65
-63.12
-66.34
-64.83
-57.96
-46.24
-31.23
-15.01
0.43
13.71
24.14
31.6
36.22
38.2
37.85
35.64
32.34
28.81
25.87
23.93
22.95
22.51
21.98
20.89
19.1
16.83
14.52
12.59
11.17
10.01
8.58
6.34
2.95
-1.5
-6.61
-11.78
-16.56
-20.76
-24.52
-28.24
-32.41
-37.45
-43.55
-50.42
-57.18
-62.42
-64.46
-61.9
-54.13
-41.69
-26.14
-9.61
5.86
18.84
28.74
35.63
39.89
41.88
41.87
40.15
37.16
33.58
30.2
27.6
25.97
25.05
24.32
23.3
21.74
19.73
17.56
15.47
13.52
11.52
9.15
6.14
2.36
-2.12
-7.06
-12.2
-17.42
-22.75
-28.38
-34.64
-41.86
-50.22
-59.55
-69.1
-77.43
-82.53
-82.34
-75.37
-61.35
-41.59
-18.67
4.26
24.37
39.85
50.09
55.38
56.45
54.12
49.2
42.62
35.45
28.83
23.67
20.35
18.75
18.43
18.93
20.03
21.69
23.83
26.05
27.59
27.46
24.78
19.14
10.75
0.45
-10.44
-20.46
-28.35
-33.4
-35.63
-35.81
-35.29
-35.55
-37.77
-42.3
-48.53
-54.88
-59.32
-59.88
-55.43
-45.94
-32.55
-17.13
-1.71
12.04
23.1
31.03
35.91
38.02
37.88
36.13
33.53
30.76
28.33
26.38
24.82
23.38
21.82
20.07
18.2
16.38
14.71
13.22
11.76
10.11
8.01
5.28
1.92
-1.96
-6.15
-10.43
-14.71
-19.05
-23.71
-29.03
-35.27
-42.37
-49.7
-56.07
-59.85
-59.51
-54.16
-43.97
-30.16
-14.7
0.37
13.5
23.83
31.25
36.02
38.53
39.12
38.06
35.68
32.45
28.93
25.69
23.15
21.5
20.57
19.95
19.06
17.44
14.94
11.69
8.12
4.65
1.59
-1.06
-3.52
-6.14
-9.29
-13.25
-18.22
-24.23
-31.09
-38.21
-44.55
-48.76
-49.48
-45.81
-37.72
-26.14
-12.74
0.54
12.08
20.9
26.68
29.59
29.98
28.29
24.95
20.52
15.76
11.41
8.12
6.17
5.38
5.24
5.08
4.29
2.59
0.08
-2.84
-5.64
-7.88
-9.47
-10.77
-12.54
-15.65
-20.81
-28.18
-37.22
-46.65
-54.77
-59.73
-60.14
-55.3
-45.47
-31.82
-16.1
-0.21
14.19
25.95
34.45
39.47
41.09
39.59
35.5
29.72
23.37
17.65
13.45
11.06
10.13
9.84
9.34
8.09
6.07
3.61
1.21
-0.88
-2.74
-4.81
-7.67
-11.88
-17.78
-25.41
-34.45
-44.09
-53.03
-59.55
-61.92
-58.92
-50.26
-36.9
-20.66
-3.82
11.65
24.48
34.2
40.87
44.77
46.18
45.41
42.88
39.33
35.68
32.84
31.37
31.31
32.12
32.85
32.57
30.64
26.96
22.0
16.49
11.12
6.21
1.63
-3.08
-8.44
-14.79
-22.08
-29.88
-37.34
-43.38
-46.72
-46.31
-41.53
-32.54
-20.35
-6.55
7.07
19.07
28.58
35.31
39.34
40.89
40.24
37.8
34.26
30.47
27.32
25.43
24.93
25.39
26.05
26.09
25.03
22.79
19.79
16.62
13.77
11.35
9.1
6.51
3.08
-1.49
-7.26
-14.06
-21.41
-28.45
-33.98
-36.54
-34.91
-28.56
-18.03
-4.9
8.72
20.91
30.42
36.88
40.56
41.89
41.23
38.77
34.7
29.43
23.66
18.18
13.76
10.78
9.22
8.61
8.3
7.61
6.11
3.71
0.62
-2.79
-6.16
-9.29
-12.2
-15.05
-18.09
-21.56
-25.69
-30.63
-36.35
-42.38
-47.71
-50.93
-50.5
-45.41
-35.65
-22.3
-7.3
7.22
19.51
28.64
34.42
37.2
37.51
35.88
32.78
28.66
24.1
19.74
16.24
14.06
13.31
13.64
14.38
14.76
14.18
12.43
9.73
6.52
3.25
0.18
-2.74
-5.73
-9.04
-12.9
-17.38
-22.57
-28.51
-35.13
-41.97
-48.11
-52.19
-52.7
-48.57
-39.6
-26.66
-11.45
4.01
17.92
29.11
37.04
41.7
43.34
42.35
39.23
34.59
29.1
23.48
18.32
14.04
10.88
8.84
7.72
7.11
6.48
5.32
3.3
0.41
-3.08
-6.68
-9.92
-12.47
-14.26
-15.47
-16.46
-17.63
-19.38
-21.97
-25.48
-29.7
-34.07
-37.7
-39.52
-38.6
-34.49
-27.49
-18.56
-9.08
-0.36
6.75
12.0
15.62
18.03
19.59
20.47
20.79
20.66
20.3
19.97
19.88
20.13
20.69
21.41
22.11
22.54
22.39
21.36
19.13
15.62
10.96
5.55
-0.18
-5.94
-11.67
-17.5
-23.59
-30.05
-36.85
-43.89
-50.97
-57.61
-62.96
-65.75
-64.59
-58.55
-47.58
-32.85
-16.43
-0.59
12.84
22.95
29.72
33.6
35.17
34.85
32.98
29.94
26.29
22.81
20.23
19.05
19.36
20.83
22.89
24.88
26.25
26.64
25.88
23.94
20.95
17.15
12.91
8.7
4.98
2.09
0.17
-0.91
-1.46
-1.93
-2.82
-4.55
-7.26
-10.55
-13.36
-14.08
-11.07
-3.23
9.4
25.55
43.1
59.88
74.45
86.44
96.4
105.24
113.7
122.05
130.18
137.93
145.43
153.13
161.67
171.56
182.93
195.39
208.2
220.51
231.75
241.75
250.87
259.74
269.04
279.15
290.03
301.25
312.16
321.78
328.65
330.61
324.92
308.82
280.49
239.93
189.41
132.99
75.42
20.93
-27.66
-69.0
-102.77
-129.11
-148.26
-160.71
-167.45
-170.06
-170.52
-170.65
-171.71
-174.12
-177.71
-182.06
-186.87
-192.2
-198.36
-205.67
-214.51
-225.3
-238.63
-255.07
-274.59
-295.79
-315.63
-329.92
-334.52
-326.82
-306.77
-276.97
-241.92
-206.87
-176.76
-155.74
-147.24
-154.03
-177.61
-216.86
-266.7
-317.96
-359.09
-379.82
-374.88
-345.8
-299.92
-246.91
-195.05
-149.25
-111.54
-82.84
-64.54
-58.2
-63.99
-79.39
-99.5
-119.01
-134.76
-146.88
-157.99
-171.0
-186.86
-203.49
-216.76
-222.54
-218.81
-206.85
-190.79
-176.07
-167.3
-166.55
-173.08
-184.4
-197.78
-211.41
-224.37
-235.6
-243.04
-243.63
-234.6
-215.07
-186.96
-154.41
-121.97
-92.8
-67.78
-46.0
-26.0
-7.12
10.0
23.88
33.41
38.89
42.27
46.62
54.94
68.97
88.54
111.96
136.78
161.14
184.62
208.31
234.27
264.9
302.39
348.03
401.29
458.56
512.98
555.82
579.07
578.6
556.0
518.31
475.15
435.16
403.01
379.04
360.88
344.8
327.23
305.5
278.65
248.02
217.03
189.78
170.04
160.87
162.65
173.8
191.49
212.95
235.93
257.79
274.04
279.45
271.06
247.43
209.59
159.96
101.28
35.88
-35.08
-112.18
-195.83
-283.73
-368.43
-435.07
-471.25
-476.67
-461.7
-438.54
-415.41
-402.93
-394.11
-381.17
-359.73
-329.51
-293.48
-256.51
-217.75
-179.01
-140.71
-100.83
-59.24
-17.41
23.74
65.19
108.98
156.93
208.76
262.95
317.94
371.19
408.52
421.59
414.56
399.04
382.75
363.09
332.59
287.34
230.5
177.38
136.38
113.64
108.97
115.87
124.78
128.48
124.59
114.27
99.5
83.77
70.68
61.02
53.1
44.73
35.14
24.87
14.42
3.1
-10.54
-27.5
-49.16
-76.47
-109.52
-147.13
-187.83
-230.98
-277.6
-330.02
-390.55
-460.52
-538.25
-617.62
-688.54
-739.89
-763.52
-757.39
-726.09
-678.42
-624.07
-570.27
-520.11
-473.25
-428.01
-383.23
-339.05
-296.42
-255.98
-217.67
-180.85
-144.92
-109.64
-75.19
-42.08
-10.59
19.43
48.45
77.12
106.03
135.48
165.46
195.7
225.88
256.0
286.81
319.73
356.22
396.29
437.11
472.63
494.91
496.84
474.99
431.21
371.87
305.45
239.68
179.76
128.4
87.09
57.31
40.73
38.34
49.4
70.98
98.78
128.48
157.0
182.84
205.59
225.14
240.92
251.82
256.58
254.4
245.43
230.88
212.67
192.95
173.57
155.72
139.92
126.14
114.01
103.08
92.88
83.04
73.28
63.54
53.89
44.45
35.34
26.49
17.65
8.46
-1.41
-12.15
-23.51
-34.9
-45.24
-53.23
-57.56
-57.32
-52.37
-43.51
-32.24
-20.49
-10.04
-2.11
2.82
4.82
4.32
1.97
-1.56
-5.46
-8.95
-11.29
-12.02
-11.11
-9.01
-6.53
-4.55
-3.74
-4.26
-5.7
-7.3
-8.35
-8.51
-8.1
-7.86
-8.57
-10.57
-13.54
-16.67
-19.02
-19.87
-18.82
-15.57
-9.76
-0.9
11.31
26.76
44.66
63.79
82.84
100.74
116.82
130.72
142.26
151.43
158.57
164.53
170.65
178.44
189.1
203.03
219.53
236.71
251.78
261.62
263.63
256.46
240.47
217.44
189.87
160.08
129.52
98.78
68.09
37.96
9.19
-17.28
-41.18
-63.44
-86.11
-111.77
-142.73
-180.38
-224.52
-272.99
-321.5
-364.5
-396.59
-414.35
-417.69
-409.8
-395.79
-380.46
-366.55
-354.25
-342.15
-329.03
-315.14
-302.48
-293.87
-291.58
-296.07
-305.57
-316.35
-323.7
-323.26
-311.94
-289.05
-256.04
-215.66
-170.77
-123.2
-73.22
-19.81
38.3
101.3
167.03
230.65
285.41
324.48
343.17
340.48
319.28
284.85
242.88
197.58
151.32
105.43
61.52
22.15
-9.61
-31.6
-43.81
-48.66
-50.07
-51.8
-56.11
-63.27
-71.88
-79.97
-85.97
-89.35
-90.68
-91.29
-92.68
-96.02
-101.79
-109.6
-118.24
-125.94
-130.78
-131.21
-126.53
-116.97
-103.65
-88.04
-71.53
-55.13
-39.45
-25.08
-12.81
-3.69
1.34
1.91
-1.37
-6.89
-12.55
-16.42
-17.4
-15.44
-11.47
-6.8
-2.66
0.22
1.67
1.9
1.2
-0.34
-2.89
-6.81
-12.44
-19.96
-29.3
-40.04
-51.42
-62.27
-71.02
-75.99
-75.75
-69.6
-57.88
-41.88
-23.57
-5.05
11.86
25.83
35.97
41.9
43.73
42.28
39.1
36.3
35.96
39.41
46.57
55.94
65.06
71.59
74.35
73.84
72.05
71.45
73.75
78.9
84.81
87.87
83.95
69.67
43.46
6.34
-37.91
-83.32
-122.98
-150.67
-162.55
-157.81
-138.43
-107.88
-69.37
-24.66
26.05
82.77
143.76
204.2
256.45
292.17
305.42
295.11
265.42
224.2
179.84
138.39
102.34
71.38
44.34
21.07
2.86
-8.38
-11.81
-8.79
-2.81
1.7
1.26
-5.41
-16.78
-29.28
-38.83
-42.3
-38.73
-29.31
-16.71
-3.78
7.56
16.71
24.11
30.48
36.01
40.07
41.51
39.43
33.94
26.34
18.76
13.2
10.69
10.91
12.36
13.22
12.15
8.85
3.95
-1.38
-6.08
-9.61
-12.07
-14.04
-16.22
-19.26
-23.54
-29.07
-35.4
-41.56
-46.13
-47.58
-44.71
-37.15
-25.6
-11.62
2.8
15.84
26.23
33.42
37.37
38.36
36.82
33.3
28.57
23.61
19.44
16.84
16.05
16.74
18.08
19.1
19.01
17.46
14.59
10.89
6.94
3.19
-0.17
-3.24
-6.38
-10.07
-14.79
-20.8
-27.95
-35.5
-42.11
-46.16
-46.21
-41.53
-32.39
-20.03
-6.21
7.3
19.16
28.56
35.16
38.85
39.67
37.89
34.11
29.28
24.51
20.84
18.84
18.52
19.34
20.46
21.1
20.74
19.26
16.82
13.74
10.27
6.45
2.13
-3.03
-9.32
-16.78
-25.1
-33.46
-40.61
-45.06
-45.49
-41.16
-32.17
-19.51
-4.78
10.25
24.1
35.77
44.83
51.21
55.0
56.36
55.51
52.88
49.16
45.22
41.94
39.92
39.31
39.7
40.27
40.07
38.42
35.08
30.3
24.63
18.61
12.51
6.25
-0.5
-8.1
-16.76
-26.37
-36.43
-46.02
-53.87
-58.57
-58.86
-54.11
-44.57
-31.43
-16.57
-2.01
10.63
20.43
27.19
31.18
32.82
32.44
30.31
26.76
22.32
17.77
13.89
11.27
9.93
9.39
8.81
7.36
4.52
0.24
-5.13
-11.07
-17.12
-23.04
-28.78
-34.36
-39.89
-45.51
-51.45
-57.95
-65.19
-72.84
-79.98
-85.11
-86.57
-83.23
-75.12
-63.5
-50.53
-38.47
-29.0
-22.87
-20.06
-20.15
-22.55
-26.33
-29.97
-31.42
-28.72
-20.84
-8.46
6.21
20.26
31.39
38.8
43.16
45.81
47.76
49.13
49.3
47.6
43.91
38.82
33.28
27.93
22.8
17.34
10.87
3.08
-5.59
-14.0
-20.61
-23.99
-23.32
-18.64
-10.88
-1.53
7.81
15.93
22.23
26.66
29.5
30.98
31.17
30.02
27.5
23.88
19.67
15.52
12.03
9.59
8.26
7.9
8.24
9.06
10.19
11.53
12.99
14.48
15.87
17.02
17.78
18.05
17.69
16.49
14.21
10.62
5.66
-0.35
-6.58
-11.82
-14.71
-14.19
-9.81
-1.99
8.22
19.37
30.05
39.21
46.21
50.74
52.73
52.27
49.66
45.46
40.55
35.89
32.33
30.29
29.67
29.9
30.2
29.88
28.53
26.09
22.71
18.7
14.34
9.92
5.59
1.38
-2.84
-7.37
-12.54
-18.59
-25.52
-32.99
-40.32
-46.54
-50.62
-51.64
-49.04
-42.84
-33.7
-22.82
-11.65
-1.51
6.71
12.72
16.71
19.12
20.38
20.75
20.32
19.12
17.31
15.25
13.41
12.18
11.68
11.64
11.49
10.58
8.43
4.92
0.34
-4.8
-9.88
-14.45
-18.32
-21.6
-24.57
-27.65
-31.26
-35.69
-41.06
-47.11
-53.24
-58.42
-61.44
-61.18
-57.05
-49.22
-38.69
-27.0
-15.69
-5.88
1.92
7.73
11.83
14.47
15.82
16.04
15.36
14.16
12.86
11.79
11.09
10.69
10.46
10.25
9.94
9.42
8.55
7.17
5.19
2.64
-0.33
-3.51
-6.64
-9.57
-12.21
-14.57
-16.83
-19.32
-22.49
-26.75
-32.31
-38.83
-45.4
-50.59
-52.83
-50.91
-44.42
-33.88
-20.69
-6.63
6.6
17.82
26.5
32.62
36.55
38.66
39.38
39.14
38.37
37.52
36.94
36.8
36.98
37.21
37.11
36.34
34.74
32.31
29.26
25.9
22.6
19.56
16.84
14.3
11.64
8.72
5.49
2.1
-1.31
-4.69
-8.17
-11.87
-15.66
-18.98
-20.96
-20.66
-17.54
-11.73
-4.01
4.46
12.52
19.41
24.76
28.51
30.74
31.49
30.82
28.85
25.89
22.4
18.83
15.56
12.8
10.59
8.85
7.42
6.11
4.69
2.98
0.85
-1.73
-4.68
-7.95
-11.48
-15.19
-18.98
-22.65
-25.96
-28.74
-31.08
-33.36
-36.17
-39.87
-44.33
-48.66
-51.45
-51.24
-47.11
-39.09
-28.15
-15.85
-3.76
6.91
15.56
21.99
26.28
28.56
29.01
27.94
25.84
23.32
20.93
19.0
17.55
16.39
15.25
13.95
12.44
10.71
8.74
6.39
3.52
0.07
-3.91
-8.18
-12.49
-16.62
-20.53
-24.3
-28.09
-32.11
-36.48
-41.29
-46.58
-52.16
-57.53
-61.73
-63.6
-62.07
-56.59
-47.5
-35.98
-23.66
-12.06
-2.18
5.62
11.49
15.69
18.39
19.61
19.39
17.96
15.81
13.48
11.45
9.89
8.75
7.77
6.75
5.56
4.18
2.65
0.92
-1.06
-3.36
-5.91
-8.56
-11.07
-13.3
-15.27
-17.16
-19.28
-21.9
-25.22
-29.3
-34.05
-39.07
-43.69
-46.88
-47.53
-44.81
-38.48
-29.1
-17.91
-6.44
3.99
12.54
18.93
23.33
26.05
27.36
27.45
26.49
24.76
22.7
20.86
19.73
19.56
20.24
21.27
22.01
21.92
20.75
18.62
15.87
12.88
9.93
7.06
4.2
1.22
-2.01
-5.58
-9.52
-13.86
-18.54
-23.28
-27.55
-30.49
-31.14
-28.69
-22.84
-13.92
-2.91
8.85
20.06
29.64
36.98
41.83
44.34
44.94
44.25
42.93
41.49
40.14
38.74
37.03
34.85
32.32
29.81
27.7
26.09
24.76
23.22
21.06
18.18
14.81
11.35
8.14
5.2
2.24
-1.17
-5.57
-11.36
-18.76
-27.64
-37.44
-47.04
-54.93
-59.65
-60.25
-56.85
-50.57
-43.15
-36.16
-30.45
-25.98
-22.21
-18.81
-16.08
-15.06
-17.01
-22.76
-32.16
-43.98
-56.29
-67.15
-75.32
-80.7
-84.54
-89.08
-96.86
-109.58
-126.94
-145.96
-161.23
-166.1
-154.56
-123.27
-73.07
-9.28
59.2
121.89
169.22
194.96
197.8
181.73
154.97
127.57
108.5
103.09
111.94
131.48
155.71
178.21
193.58
197.96
189.14
166.54
131.43
86.98
37.83
-10.98
-55.25
-92.58
-122.32
-144.81
-160.33
-168.69
-169.33
-162.07
-147.75
-128.26
-106.21
-84.35
-65.01
-49.75
-39.23
-33.06
-30.06
-28.63
-27.39
-25.77
-24.0
-22.76
-22.45
-22.71
-22.5
-20.5
-15.92
-8.91
-0.47
8.03
15.54
21.54
26.1
29.51
31.95
33.52
34.33
34.77
35.58
37.58
41.3
46.66
52.88
58.7
62.87
64.57
63.62
60.55
56.42
52.44
49.83
49.4
51.53
55.98
61.92
67.97
72.51
74.1
71.98
66.49
59.0
51.58
46.23
44.25
45.83
50.14
55.77
61.22
65.24
66.99
65.94
61.84
54.88
45.68
35.35
25.1
15.86
7.81
0.34
-7.6
-17.07
-28.54
-41.73
-55.82
-69.87
-83.2
-95.52
-106.71
-116.48
-124.13
-128.62
-128.75
-123.62
-112.84
-96.75
-76.35
-53.25
-29.46
-7.09
12.08
26.92
37.18
43.42
46.64
47.78
47.38
45.49
41.89
36.42
29.25
20.96
12.35
4.18
-3.01
-9.0
-13.88
-18.01
-21.87
-25.91
-30.43
-35.45
-40.74
-45.94
-50.73
-54.92
-58.46
-61.24
-62.95
-63.01
-60.67
-55.36
-47.0
-36.1
-23.73
-11.2
0.25
9.69
16.53
20.46
21.38
19.35
14.71
8.15
0.63
-6.77
-13.04
-17.55
-20.12
-20.93
-20.45
-19.17
-17.53
-15.87
-14.34
-13.02
-11.85
-10.77
-9.76
-8.98
-8.71
-9.22
-10.62
-12.55
-14.18
-14.34
-11.93
-6.33
2.24
12.74
23.62
33.27
40.5
44.77
46.13
45.02
42.08
37.97
33.35
28.91
25.25
22.8
21.66
21.5
21.67
21.46
20.34
18.21
15.36
12.32
9.57
7.32
5.45
3.54
1.11
-2.21
-6.42
-11.03
-15.15
-17.66
-17.56
-14.29
-7.87
1.13
11.7
22.7
32.95
41.43
47.34
50.32
50.45
48.36
45.02
41.35
38.0
35.15
32.64
30.23
27.81
25.55
23.66
22.26
21.23
20.27
19.06
17.33
14.93
11.71
7.45
1.99
-4.55
-11.58
-18.01
-22.5
-23.99
-22.14
-17.48
-11.21
-4.71
0.95
5.19
7.89
9.1
8.89
7.24
4.26
0.25
-4.12
-7.98
-10.49
-11.17
-10.03
-7.62
-4.78
-2.29
-0.52
0.62
1.52
2.58
3.75
4.41
3.47
-0.2
-7.22
-17.37
-29.6
-42.31
-53.82
-62.82
-68.63
-71.21
-70.89
-68.1
-63.17
-56.34
-47.97
-38.71
-29.62
-21.89
-16.42
-13.48
-12.48
-12.3
-11.8
-10.33
-8.0
-5.52
-3.77
-3.31
-4.16
-5.87
-7.87
-9.78
-11.56
-13.56
-16.23
-19.91
-24.67
-30.26
-36.17
-41.65
-45.86
-47.96
-47.25
-43.38
-36.42
-26.95
-15.89
-4.27
7.0
17.33
26.4
34.04
40.04
44.19
46.36
46.69
45.64
43.94
42.37
41.48
41.45
42.09
42.95
43.55
43.56
42.86
41.55
39.89
38.08
36.24
34.28
31.95
28.95
25.06
20.19
14.39
7.89
1.06
-5.5
-10.99
-14.5
-15.25
-12.83
-7.38
0.37
9.37
18.52
26.91
33.99
39.44
43.2
45.31
45.98
45.57
44.53
43.37
42.51
42.1
42.08
42.17
42.06
41.45
40.2
38.21
35.43
31.82
27.32
21.87
15.44
8.04
-0.25
-9.26
-18.63
-27.85
-36.33
-43.63
-49.62
-54.6
-59.2
-63.99
-69.03
-73.62
-76.32
-75.47
-69.88
-59.45
-45.36
-29.69
-14.8
-2.44
6.55
12.28
15.45
16.82
16.97
16.24
14.92
13.36
12.02
11.3
11.4
12.15
13.07
13.49
12.8
10.71
7.31
3.08
-1.35
-5.42
-8.88
-11.83
-14.6
-17.53
-20.73
-24.12
-27.54
-30.95
-34.53
-38.64
-43.5
-48.91
-54.05
-57.68
-58.48
-55.57
-48.9
-39.26
-28.02
-16.68
-6.42
2.09
8.67
13.43
16.63
18.5
19.3
19.36
19.11
18.93
19.08
19.58
20.23
20.71
20.79
20.41
19.74
18.99
18.3
17.67
16.86
15.6
13.69
11.15
8.16
5.01
1.97
-0.81
-3.31
-5.67
-8.1
-10.85
-14.19
-18.21
-22.81
-27.49
-31.38
-33.46
-32.84
-29.17
-22.81
-14.72
-6.17
1.73
8.32
13.45
17.29
20.08
21.98
23.1
23.64
23.91
24.35
25.22
26.51
27.9
28.91
29.21
28.78
27.92
27.08
26.58
26.54
26.8
27.05
27.0
26.46
25.34
23.63
21.4
18.73
15.69
12.27
8.34
3.62
-2.13
-9.04
-16.84
-24.76
-31.64
-36.17
-37.36
-34.83
-29.01
-20.91
-11.84
-2.91
5.1
11.86
17.21
21.1
23.44
24.24
23.69
22.22
20.32
18.41
16.67
15.08
13.58
12.19
11.07
10.32
9.88
9.41
8.45
6.62
3.86
0.38
-3.4
-7.14
-10.76
-14.3
-17.84
-21.24
-24.19
-26.38
-27.7
-28.47
-29.36
-31.13
-34.25
-38.54
-43.14
-46.64
-47.62
-45.05
-38.77
-29.55
-18.85
-8.3
0.82
7.94
13.24
17.29
20.66
23.6
25.96
27.39
27.71
27.04
25.95
25.22
25.54
27.29
30.29
33.87
37.09
39.11
39.49
38.47
36.78
35.24
34.3
33.64
31.95
27.08
16.54
-2.12
-30.79
-70.24
-119.51
-175.19
-231.34
-280.14
-313.84
-326.89
-317.81
-289.39
-247.33
-197.68
-144.44
-88.91
-30.94
28.75
86.85
137.67
175.36
196.63
202.18
196.1
183.51
168.27
151.99
134.71
116.59
99.07
84.73
75.92
73.34
75.44
79.17
81.46
80.43
75.85
68.67
60.35
52.14
44.87
38.77
33.7
29.11
24.3
18.51
11.23
2.37
-7.73
-18.27
-28.32
-37.02
-43.87
-48.78
-52.03
-54.01
-54.99
-55.01
-53.97
-51.79
-48.72
-45.39
-42.81
-42.04
-43.98
-48.92
-56.24
-64.25
-70.15
-70.5
-62.06
-42.77
-12.67
25.83
68.38
109.72
144.98
170.61
184.74
186.91
177.68
158.33
130.91
98.31
64.16
32.29
5.88
-13.37
-25.72
-33.02
-37.91
-42.62
-48.2
-54.23
-59.28
-61.75
-60.61
-55.86
-48.38
-39.5
-30.42
-21.91
-14.32
-7.92
-3.18
-0.86
-1.73
-6.11
-13.43
-22.15
-30.17
-35.44
-36.74
-33.91
-27.88
-20.23
-12.72
-6.96
-4.19
-5.26
-10.56
-19.95
-32.67
-47.4
-62.59
-76.71
-88.61
-97.58
-103.28
-105.52
-104.1
-98.92
-90.02
-77.83
-63.15
-47.09
-30.85
-15.48
-1.71
10.07
19.77
27.45
33.24
37.3
39.73
40.69
40.29
38.68
36.09
32.75
29.02
25.2
21.54
18.01
14.45
10.58
6.33
1.9
-2.23
-5.54
-7.74
-8.93
-9.51
-10.02
-10.87
-12.18
-13.81
-15.47
-16.8
-17.44
-17.04
-15.33
-12.19
-7.72
-2.26
3.66
9.49
14.8
19.26
22.76
25.24
26.75
27.36
27.16
26.29
24.9
23.15
21.2
19.13
16.94
14.46
11.5
7.9
3.73
-0.65
-4.66
-7.6
-8.96
-8.44
-6.14
-2.48
1.85
5.97
9.05
10.45
9.95
7.94
5.34
3.44
3.43
6.07
11.42
18.93
27.76
37.12
46.52
55.79
64.88
73.66
81.71
88.51
93.63
96.97
98.91
100.12
101.28
102.79
104.74
106.97
109.18
110.75
110.62
106.99
97.65
80.54
54.39
19.26
-23.75
-73.19
-127.97
-187.24
-249.68
-312.64
-372.05
-423.24
-462.39
-487.74
-499.7
-500.0
-490.43
-471.88
-444.45
-408.12
-363.58
-312.5
-257.31
-200.55
-144.07
-88.89
-35.13
17.78
70.75
124.71
180.7
239.65
302.35
368.57
435.81
498.44
548.06
575.57
574.22
542.31
483.92
407.03
319.92
227.96
132.76
34.35
-65.37
-160.03
-239.19
-291.81
-310.62
-295.14
-251.14
-187.69
-113.39
-34.36
45.26
121.29
187.75
237.79
265.96
271.15
257.8
234.28
209.53
189.85
177.71
172.58
173.05
178.36
188.56
203.4
221.14
238.29
250.34
253.35
245.29
226.81
200.9
171.96
144.62
122.84
109.33
105.2
110.22
122.94
141.26
162.83
185.2
205.86
221.99
231.01
230.92
220.96
201.85
175.7
145.21
112.93
80.7
49.39
19.21
-10.05
-38.66
-67.01
-95.45
-124.45
-154.51
-185.91
-218.3
-250.26
-279.22
-301.9
-315.57
-319.42
-315.5
-308.21
-302.63
-302.09
-306.74
-313.68
-318.63
-318.04
-310.5
-296.71
-278.46
-257.65
-235.63
-213.43
-192.18
-173.28
-158.19
-148.19
-144.14
-146.42
-154.83
-168.21
-184.06
-198.73
-208.33
-210.17
-203.8
-191.17
-175.51
-159.7
-145.1
-131.44
-118.01
-105.02
-94.41
-89.4
-93.02
-106.48
-128.29
-154.55
-180.12
-200.16
-211.06
-210.99
-199.85
-178.98
-150.73
-117.85
-82.75
-46.82
-10.15
28.26
69.63
114.21
160.55
205.15
242.76
267.42
273.99
259.9
226.47
179.17
126.39
77.35
39.58
17.21
10.8
18.37
37.0
64.23
98.59
139.4
185.91
236.31
287.14
333.37
369.19
389.34
390.66
373.25
340.69
299.25
256.23
218.17
189.36
170.81
160.35
153.23
143.71
126.78
99.54
61.98
16.46
-33.56
-85.07
-136.55
-188.48
-243.03
-302.75
-368.77
-438.96
-507.19
-564.11
-599.87
-607.5
-585.45
-538.06
-473.45
-400.28
-324.75
-249.46
-174.01
-96.74
-16.34
67.21
152.05
234.4
308.45
366.97
402.6
409.99
387.91
340.07
274.71
202.48
133.71
76.18
34.0
7.97
-3.38
-2.63
7.31
23.46
42.87
62.9
81.69
98.65
114.5
130.31
146.31
160.97
171.26
173.94
167.26
151.77
130.16
105.82
81.4
58.12
35.99
14.77
-5.22
-22.79
-36.34
-44.52
-46.85
-43.98
-37.4
-29.04
-20.62
-13.16
-6.54
0.33
8.94
20.39
34.55
49.86
63.79
73.81
78.56
78.51
75.82
73.5
74.07
78.48
85.57
92.54
95.84
92.26
80.0
59.51
33.96
8.96
-8.56
-12.61
-0.54
25.14
56.91
84.2
96.73
87.97
57.06
8.85
-48.11
-104.44
-152.7
-188.97
-213.15
-227.84
-236.66
-242.59
-247.1
-250.34
-252.05
-252.31
-251.61
-249.95
-246.1
-237.55
-221.66
-197.47
-166.75
-133.69
-103.15
-78.53
-60.38
-46.64
-34.08
-20.07
-3.39
15.88
37.28
60.77
86.73
115.34
145.72
175.56
201.5
220.14
229.15
228.03
218.12
202.0
182.59
162.36
143.0
125.48
110.35
97.93
88.35
81.48
76.87
73.93
72.33
72.39
75.33
83.0
97.03
118.11
145.58
177.8
212.55
248.55
284.29
317.76
345.93
365.06
371.94
365.53
347.89
323.5
298.48
277.27
261.47
249.64
238.64
225.29
207.82
186.1
160.43
133.09
104.89
75.81
45.09
11.72
-24.84
-64.16
-104.62
-145.95
-183.0
-213.96
-238.43
-257.39
-273.05
-288.34
-306.52
-330.72
-367.3
-409.93
-453.19
-487.51
-502.22
-490.32
-453.02
-400.92
-350.73
-326.03
-328.54
-359.43
-412.65
-479.09
-550.46
-620.42
-683.32
-732.9
-771.56
-783.28
-767.33
-728.23
-673.85
-611.99
-547.9
-484.26
-364.87
-272.18
-199.13
-149.63
-122.89
-111.73
-104.44
-89.57
-60.76
-18.94
19.75
57.77
89.37
113.49
132.57
149.74
166.25
181.03
191.95
190.77
186.88
183.11
183.02
189.14
202.02
220.01
240.09
259.12
270.45
278.77
285.01
290.99
298.54
308.8
321.99
337.49
353.92
366.97
376.43
379.22
372.46
354.22
323.98
282.72
232.53
176.13
115.66
55.12
-2.43
-54.19
-97.96
-132.33
-156.7
-170.95
-175.02
-168.93
-152.9
-127.68
-94.51
-54.61
-8.57
44.03
103.99
170.93
241.38
308.21
361.78
393.23
398.13
378.85
344.04
305.4
273.02
251.51
239.04
229.34
215.56
193.85
164.79
132.46
101.79
76.17
56.31
40.88
28.03
16.62
6.86
-0.43
-4.67
-5.79
-3.67
2.6
14.84
34.67
61.69
92.31
120.24
138.67
143.07
132.86
111.1
82.52
51.42
20.48
-8.89
-35.58
-58.11
-75.08
-86.17
-92.83
-97.83
-103.96
-112.41
-122.22
-130.78
-135.34
-134.27
-127.8
-117.68
-106.28
-95.55
-86.51
-79.19
-73.16
-68.01
-63.77
-60.85
-59.76
-60.87
-64.19
-69.31
-75.32
-80.89
-84.51
-84.74
-80.72
-72.29
-59.98
-44.68
-27.17
-7.8
13.4
36.54
61.29
86.89
112.09
135.64
156.38
173.45
186.22
194.36
197.9
197.34
193.58
187.52
179.78
170.4
158.96
144.98
128.36
109.69
90.33
72.02
56.44
44.64
36.49
30.64
24.83
16.7
4.61
-11.77
-31.37
-52.13
-71.65
-87.68
-98.62
-103.57
-102.49
-96.24
-86.42
-75.12
-64.3
-55.17
-47.8
-41.25
-34.12
-25.35
-14.84
-3.63
6.36
13.02
14.81
11.47
4.32
-4.03
-10.38
-12.08
-7.84
1.81
14.86
28.62
40.65
49.52
54.96
57.49
57.71
55.61
50.06
39.14
20.96
-5.26
-38.48
-75.85
-113.53
-147.74
-175.6
-195.45
-206.7
-209.57
-205.11
-195.26
-182.64
-169.82
-158.26
-147.55
-135.61
-119.8
-98.47
-72.07
-43.15
-15.63
6.37
19.38
21.04
10.46
-11.57
-42.43
-77.85
-112.86
-142.91
-164.91
-177.46
-180.39
-174.0
-158.53
-134.17
-101.43
-61.25
-14.84
36.8
92.92
152.57
213.77
273.03
325.77
367.6
395.8
410.25
413.3
408.59
399.67
389.01
377.58
365.03
350.28
332.1
309.72
283.3
254.06
223.98
195.06
168.56
144.58
122.35
101.02
80.22
60.34
42.23
26.5
13.25
2.04
-7.7
-16.25
-23.58
-29.69
-34.97
-40.32
-46.93
-55.93
-67.9
-82.81
-100.31
-120.05
-141.92
-166.16
-193.23
-223.58
-257.86
-296.93
-341.59
-391.68
-445.14
-497.94
-545.22
-583.11
-610.2
-627.65
-637.66
-641.53
-638.51
-626.38
-603.38
-570.09
-529.88
-487.64
-447.53
-411.33
-378.29
-346.41
-314.08
-281.07
-248.35
-217.0
-187.51
-159.52
-132.2
-105.08
-78.7
-54.55
-34.36
-19.21
-8.82
-1.54
5.03
12.97
23.34
35.77
48.91
61.07
70.91
77.9
82.34
85.26
88.05
91.99
97.94
106.1
116.18
127.62
140.01
153.3
167.83
184.3
203.72
227.54
257.38
294.11
336.51
380.12
417.36
439.46
439.56
415.68
372.01
317.73
263.89
219.73
190.32
176.2
174.74
181.84
192.95
203.21
207.09
198.73
173.3
128.95
68.37
-1.32
-70.06
-127.81
-167.21
-185.22
-183.23
-165.77
-138.78
-108.1
-78.61
-53.91
-36.15
-25.77
-21.18
-18.62
-12.89
1.1
26.14
60.88
99.29
131.83
148.45
142.02
111.12
60.6
-0.04
-59.68
-108.79
-141.47
-155.81
-152.83
-134.8
-104.06
-62.89
-14.37
36.53
82.86
116.99
133.12
129.77
110.84
84.66
61.15
48.47
50.46
66.11
90.87
119.01
145.73
168.29
185.92
198.87
207.69
212.81
214.89
215.16
215.34
216.87
219.65
221.49
218.51
206.9
184.9
153.84
117.34
79.24
41.53
3.9
-34.84
-74.38
-111.54
-141.27
-159.38
-165.52
-164.09
-162.3
-166.78
-180.3
-200.88
-223.27
-241.77
-252.43
-253.71
-245.58
-228.13
-201.11
-164.63
-120.24
-71.78
-24.97
14.21
41.39
55.2
57.58
52.74
45.58
40.2
39.08
43.07
52.09
65.6
82.76
102.19
121.66
138.36
149.61
153.83
151.09
142.96
131.86
120.23
109.9
101.96
96.76
94.06
93.0
92.19
89.76
83.77
72.74
56.05
34.12
8.19
-19.81
-47.37
-71.47
-88.86
-96.79
-93.94
-81.14
-61.54
-39.94
-21.52
-10.41
-8.37
-13.91
-22.37
-26.98
-20.9
0.12
35.52
79.4
121.81
152.14
162.82
151.88
123.23
84.68
44.86
10.54
-14.57
-29.58
-35.32
-33.24
-25.04
-12.8
0.77
12.39
18.77
17.62
8.35
-7.65
-27.4
-47.35
-64.36
-76.28
-82.09
-81.51
-74.65
-61.91
-44.13
-22.8
0.01
22.11
41.91
58.88
73.58
87.17
100.55
113.73
125.7
134.84
139.72
139.71
135.29
127.94
119.73
112.8
108.72
108.01
109.6
110.9
108.34
98.58
79.9
53.26
22.24
-8.11
-33.3
-51.28
-63.27
-73.26
-86.32
-106.96
-137.68
-178.63
-227.67
-280.92
-333.38
-379.81
-416.1
-440.3
-453.13
-457.31
-456.03
-451.41
-443.83
-432.45
-416.6
-396.85
-375.15
-353.66
-333.47
-313.99
-293.53
-270.55
-244.74
-217.03
-188.71
-160.18
-130.39
-97.17
-58.41
-13.29
37.45
91.66
146.87
200.83
251.36
296.1
332.79
360.11
378.48
389.98
397.01
400.51
398.91
388.8
367.22
334.03
293.02
250.69
213.55
185.56
167.08
155.82
148.73
143.61
139.53
136.13
132.77
128.34
121.52
111.41
97.96
82.07
65.28
49.21
35.14
23.83
15.55
10.26
7.82
8.06
10.72
15.31
20.98
26.63
31.13
33.58
33.48
30.8
25.95
19.66
12.81
6.24
0.62
-3.73
-6.91
-9.43
-12.06
-15.53
-20.16
-25.66
-31.2
-35.7
-38.29
-38.71
-37.45
-35.63
-34.54
-35.27
-38.38
-43.8
-51.0
-59.22
-67.7
-75.88
-83.45
-90.29
-96.33
-101.54
-105.83
-109.19
-111.68
-113.52
-115.01
-116.53
-118.42
-120.93
-124.13
-127.86
-131.69
-135.05
-137.39
-138.37
-137.95
-136.28
-133.57
-129.87
-124.94
-118.35
-109.57
-98.11
-83.64
-66.09
-45.69
-23.04
0.86
24.86
47.92
69.3
88.77
106.4
122.39
136.86
149.84
161.36
171.47
180.28
187.87
194.2
199.22
202.94
205.58
207.58
209.45
211.59
214.1
216.85
219.51
221.68
222.97
222.98
221.35
217.92
212.96
207.28
202.14
198.87
198.3
200.44
204.45
209.06
213.09
215.9
217.37
217.48
215.74
210.77
200.53
183.0
157.15
123.57
84.57
43.48
3.82
-31.5
-60.59
-82.69
-98.12
-108.09
-114.2
-117.91
-119.75
-119.04
-114.14
-103.32
-85.76
-62.19
-34.85
-6.82
18.77
39.23
52.48
56.98
51.85
37.18
14.3
-14.27
-45.31
-75.71
-103.28
-127.02
-147.29
-165.42
-183.33
-203.1
-226.71
-255.63
-290.39
-330.04
-371.91
-411.99
-445.56
-468.45
-478.12
-474.39
-459.29
-436.1
-407.99
-376.84
-343.14
-306.77
-268.4
-230.22
-195.77
-168.6
-150.43
-140.1
-133.83
-126.69
-114.43
-94.86
-68.19
-36.24
-1.57
33.16
65.44
93.05
114.27
128.31
135.5
137.19
135.3
131.66
127.7
124.34
122.19
121.6
122.8
125.84
130.72
137.4
145.97
156.6
169.21
183.09
196.32
205.68
207.11
196.95
173.37
137.44
93.18
46.55
3.64
-30.94
-54.99
-68.57
-73.36
-71.79
-66.58
-60.56
-56.49
-56.62
-62.01
-72.12
-84.9
-97.51
-107.21
-112.14
-111.6
-105.88
-95.92
-82.99
-68.42
-53.53
-39.62
-27.7
-18.43
-11.97
-8.02
-5.89
-4.84
-4.25
-3.82
-3.56
-3.62
-4.15
-5.14
-6.4
-7.77
-9.22
-10.96
-13.26
-16.1
-18.9
-20.5
-19.48
-14.71
-5.97
5.89
19.14
31.69
41.73
48.17
50.72
49.69
45.71
39.52
31.86
23.52
15.3
7.9
1.73
-3.05
-6.53
-8.79
-9.81
-9.46
-7.76
-5.04
-2.08
0.01
0.24
-1.98
-6.46
-12.34
-18.36
-23.21
-25.9
-26.07
-24.03
-20.66
-17.11
-14.43
-13.16
-13.15
-13.66
-13.63
-12.14
-8.72
-3.45
3.11
10.16
16.93
22.79
27.23
29.91
30.69
29.83
28.09
26.56
26.34
28.0
31.25
35.06
38.07
39.31
38.53
36.1
32.66
28.74
24.64
20.71
17.55
15.99
16.66
19.55
23.74
27.66
29.73
28.91
24.96
18.33
9.84
0.49
-8.56
-16.02
-20.63
-21.53
-18.73
-13.3
-7.03
-1.8
1.22
1.97
1.37
0.72
0.92
2.01
3.17
3.33
1.92
-0.63
-2.85
-2.89
0.61
7.81
17.46
27.45
35.47
39.8
39.64
35.06
26.91
16.77
7.05
0.64
0.24
7.07
19.7
33.86
43.74
44.38
34.18
15.99
-3.84
-18.29
-22.74
-16.74
-3.74
11.17
23.72
32.04
36.63
38.94
39.97
39.62
37.17
32.26
25.61
18.95
14.16
12.33
13.19
15.23
16.51
15.5
11.71
5.69
-1.28
-7.85
-13.1
-16.81
-19.35
-21.43
-23.77
-26.84
-30.87
-35.88
-41.72
-48.15
-54.72
-60.8
-65.5
-67.89
-67.12
-62.66
-54.47
-43.04
-29.3
-14.44
0.32
13.94
25.66
35.03
41.89
46.32
48.61
49.27
48.92
48.2
47.54
47.14
46.78
46.1
44.74
42.57
39.77
36.65
33.48
30.21
26.54
22.07
16.63
10.47
4.11
-1.86
-7.18
-12.0
-16.67
-21.39
-25.95
-29.72
-31.93
-32.07
-30.19
-26.83
-22.77
-18.67
-14.81
-11.15
-7.53
-3.92
-0.48
2.45
4.63
6.12
7.27
8.6
10.51
13.09
15.98
18.62
20.49
21.42
21.61
21.45
21.28
21.13
20.74
19.7
17.77
14.97
11.65
8.31
5.42
3.28
2.04
1.73
2.33
3.87
6.36
9.85
14.27
19.43
24.94
30.19
34.39
36.7
36.37
32.92
26.28
16.81
5.28
-7.22
-19.44
-30.13
-38.32
-43.55
-45.96
-46.31
-45.76
-45.61
-46.99
-50.61
-56.61
-64.63
-73.91
-83.53
-92.7
-100.91
-108.08
-114.46
-120.39
-125.99
-131.01
-134.85
-136.79
-136.44
-133.9
-129.83
-125.09
-120.39
-115.92
-111.28
-105.69
-98.29
-88.43
-75.71
-59.89
-40.87
-18.77
5.85
31.73
57.06
79.69
97.81
110.44
117.65
120.51
120.56
119.38
118.1
117.23
116.73
116.06
114.45
111.01
105.05
96.25
84.86
71.76
58.26
45.8
35.55
28.05
23.12
20.03
17.76
15.38
12.31
8.37
3.73
-1.23
-6.07
-10.33
-13.53
-15.26
-15.22
-13.28
-9.66
-4.91
0.27
5.19
9.44
12.89
15.73
18.26
20.76
23.3
25.75
27.82
29.09
29.2
27.96
25.51
22.31
19.08
16.5
15.09
14.93
15.73
16.93
17.94
18.31
17.76
16.17
13.48
9.71
4.92
-0.63
-6.53
-12.21
-17.16
-21.0
-23.64
-25.3
-26.35
-27.25
-28.35
-29.76
-31.38
-32.91
-34.07
-34.64
-34.67
-34.4
-34.19
-34.37
-35.05
-36.06
-36.98
-37.27
-36.5
-34.38
-30.83
-25.87
-19.57
-12.07
-3.67
5.11
13.51
20.67
25.86
28.74
29.41
28.41
26.44
24.21
22.18
20.53
19.18
17.88
16.26
13.94
10.6
6.09
0.46
-6.02
-12.9
-19.71
-26.08
-31.89
-37.32
-42.71
-48.36
-54.33
-60.22
-65.24
-68.41
-68.98
-66.73
-62.1
-56.11
-49.89
-44.28
-39.44
-34.87
-29.68
-23.03
-14.65
-4.92
5.26
14.88
23.25
30.2
35.87
40.5
44.13
46.52
47.4
46.78
45.1
43.16
41.79
41.36
41.6
41.6
40.2
36.37
29.59
19.94
7.99
-5.36
-19.14
-32.37
-44.14
-53.66
-60.28
-63.63
-63.74
-61.14
-56.8
-51.97
-47.83
-45.22
-44.45
-45.4
-47.69
-50.87
-54.39
-57.55
-59.29
-58.24
-53.11
-43.08
-28.24
-9.62
11.12
32.22
52.12
69.57
83.45
92.56
95.73
92.11
81.64
65.22
44.54
21.52
-2.3
-26.08
-49.65
-72.91
-95.46
-116.29
-134.05
-147.43
-155.6
-158.16
-154.94
-145.55
-129.41
-106.2
-76.52
-42.35
-6.93
26.08
53.62
74.23
88.3
97.79
105.49
114.17
125.94
141.85
161.71
184.21
207.13
227.8
243.62
252.67
254.12
248.44
237.1
222.13
205.37
187.99
170.24
151.7
131.84
110.55
88.44
66.71
46.74
29.53
15.46
4.33
-4.3
-10.68
-14.76
-16.29
-15.27
-12.27
-8.65
-6.27
-6.85
-11.28
-19.21
-29.06
-38.59
-45.61
-48.62
-46.99
-40.84
-30.81
-17.98
-3.88
9.46
19.77
24.98
24.03
17.23
6.27
-6.4
-18.4
-28.07
-34.81
-38.77
-40.51
-40.71
-40.07
-39.43
-39.68
-41.56
-45.31
-50.43
-55.7
-59.5
-60.37
-57.36
-50.28
-39.59
-26.14
-10.93
5.04
20.77
35.24
47.45
56.54
62.06
64.18
63.72
62.16
61.28
62.66
67.07
73.8
80.41
83.01
77.49
61.05
33.55
-2.07
-40.87
-77.59
-108.6
-132.66
-150.5
-163.49
-172.61
-178.21
-180.63
-180.69
-179.66
-178.45
-176.95
-174.13
-169.07
-162.34
-156.47
-155.12
-161.23
-175.12
-193.89
-212.25
-224.4
-225.89
-214.54
-190.27
-154.25
-108.14
-53.98
5.45
66.11
122.77
169.82
202.95
220.71
225.32
221.98
216.86
214.61
216.51
220.38
222.14
218.3
207.91
193.1
177.98
166.51
160.5
158.74
157.61
152.8
141.27
122.57
98.9
74.06
51.94
35.21
24.8
20.13
19.64
21.26
22.65
21.36
15.18
2.73
-15.86
-38.68
-62.41
-83.39
-98.73
-107.03
-108.6
-104.92
-97.9
-89.3
-80.47
-72.31
-65.22
-59.02
-52.88
-45.47
-35.45
-22.03
-5.52
12.68
30.44
45.73
57.26
64.79
68.98
70.84
71.13
70.33
69.26
68.6
68.86
70.58
74.04
79.14
85.48
92.29
98.94
105.33
111.22
116.06
119.21
120.12
118.58
114.87
109.26
102.59
96.79
93.18
91.93
92.61
94.36
96.15
97.32
96.29
92.55
88.79
86.35
84.18
80.67
73.95
62.61
46.23
22.72
-7.91
-38.7
-64.65
-84.5
-97.77
-105.18
-108.6
-110.57
-118.23
-136.08
-157.35
-177.43
-196.32
-214.12
-231.71
-250.87
-274.25
-311.05
-367.92
-436.7
-510.35
-584.54
-651.52
-702.66
-731.59
-698.58
-589.53
-473.93
-380.65
-299.96
-229.03
-164.28
-102.64
-42.27
17.64
71.7
117.09
164.15
218.11
276.06
334.03
387.87
434.3
471.86
496.24
505.93
509.59
511.73
510.56
503.48
487.84
462.01
426.51
381.36
329.32
279.5
237.05
200.91
167.41
132.02
91.63
46.06
-3.36
-53.29
-97.8
-133.96
-162.6
-185.79
-205.73
-223.83
-240.51
-256.03
-270.11
-281.33
-288.47
-290.42
-285.44
-271.38
-246.25
-209.18
-161.14
-105.05
-45.45
12.59
64.54
107.17
138.84
159.37
169.67
171.47
167.08
159.09
149.94
141.42
134.22
127.84
120.87
111.28
96.9
75.65
45.83
6.58
-41.56
-96.34
-153.66
-208.28
-254.89
-289.39
-309.7
-315.74
-308.82
-290.74
-263.24
-228.02
-187.22
-143.82
-101.53
-64.2
-34.68
-14.15
-1.82
4.57
7.78
10.2
13.24
17.37
22.38
27.78
33.13
38.08
42.44
46.02
48.56
49.75
49.37
47.36
43.95
39.6
34.9
30.35
26.23
22.55
19.15
15.82
12.38
8.74
4.86
0.58
-4.35
-10.22
-17.08
-24.45
-31.19
-35.68
-36.32
-32.13
-23.21
-10.73
3.47
17.49
29.93
40.05
47.68
52.91
55.92
56.91
56.21
54.39
52.21
50.34
49.26
48.98
49.18
49.32
48.95
47.85
46.1
43.96
41.68
39.34
36.73
33.49
29.31
24.14
18.32
12.43
7.01
2.33
-1.74
-5.57
-9.61
-14.21
-19.52
-25.62
-32.4
-39.54
-46.2
-51.08
-52.62
-49.57
-41.48
-29.07
-13.97
1.77
16.33
28.55
37.94
44.56
48.64
50.53
50.56
49.18
47.0
44.69
42.9
42.03
42.21
43.21
44.55
45.65
45.97
45.2
43.29
40.48
37.14
33.61
30.12
26.71
23.28
19.69
15.82
11.63
7.18
2.6
-1.97
-6.39
-10.61
-14.71
-18.83
-23.18
-27.95
-33.31
-39.42
-46.37
-54.02
-61.8
-68.58
-72.86
-73.14
-68.51
-59.09
-46.09
-31.49
-17.34
-5.23
4.04
10.35
13.94
15.14
14.23
11.66
8.16
4.77
2.62
2.58
4.96
9.43
15.31
21.82
28.42
34.95
41.41
47.73
53.63
58.57
62.01
63.55
63.19
61.28
58.4
55.07
51.61
48.04
44.12
39.62
34.41
28.6
22.51
16.54
10.99
6.0
1.46
-2.91
-7.54
-12.79
-18.91
-25.75
-32.66
-38.51
-41.94
-41.71
-37.22
-28.73
-17.27
-4.36
8.43
19.83
29.01
35.56
39.35
40.51
39.44
36.8
33.47
30.37
28.24
27.45
27.94
29.23
30.69
31.68
31.84
31.14
29.79
28.11
26.25
24.22
21.9
19.23
16.29
13.26
10.31
7.48
4.61
1.52
-1.89
-5.54
-9.22
-12.71
-15.91
-18.84
-21.61
-24.32
-27.14
-30.3
-34.08
-38.64
-43.82
-48.89
-52.6
-53.53
-50.58
-43.43
-32.76
-20.01
-6.97
4.82
14.39
21.41
26.03
28.62
29.56
29.17
27.8
25.89
23.91
22.34
21.48
21.34
21.74
22.31
22.71
22.67
22.06
20.86
19.23
17.35
15.41
13.57
11.84
10.09
8.09
5.65
2.64
-0.83
-4.46
-7.81
-10.47
-12.19
-12.97
-13.08
-12.98
-13.25
-14.47
-17.14
-21.59
-27.7
-34.79
-41.45
-45.79
-46.01
-41.07
-31.24
-18.11
-4.1
8.43
17.91
23.88
26.86
27.77
27.46
26.44
25.02
23.44
22.09
21.44
21.85
23.35
25.55
27.76
29.24
29.44
28.2
25.71
22.44
18.91
15.52
12.46
9.7
7.12
4.55
1.88
-0.9
-3.75
-6.58
-9.32
-11.93
-14.42
-16.82
-19.19
-21.63
-24.27
-27.28
-30.78
-34.73
-38.78
-42.27
-44.29
-43.93
-40.61
-34.29
-25.61
-15.72
-5.94
2.61
9.21
13.64
16.07
16.82
16.26
14.77
12.75
10.68
9.07
8.34
8.66
9.91
11.67
13.41
14.59
14.9
14.33
13.12
11.61
10.04
8.47
6.71
4.47
1.6
-1.8
-5.4
-8.75
-11.51
-13.59
-15.21
-16.7
-18.4
-20.55
-23.26
-26.54
-30.26
-34.05
-37.32
-39.23
-38.94
-35.86
-29.99
-21.91
-12.7
-3.59
4.42
10.73
15.15
17.8
18.87
18.57
17.15
14.96
12.51
10.33
8.85
8.22
8.26
8.58
8.79
8.64
8.05
7.08
5.81
4.3
2.57
0.64
-1.46
-3.67
-5.92
-8.18
-10.43
-12.66
-14.89
-17.19
-19.74
-22.74
-26.36
-30.51
-34.8
-38.42
-40.37
-39.78
-36.18
-29.76
-21.31
-12.03
-3.12
4.51
10.42
14.64
17.39
18.92
19.42
19.04
17.99
16.64
15.43
14.73
14.67
15.07
15.59
15.84
15.66
15.13
14.49
13.95
13.54
12.99
11.91
9.92
6.84
2.86
-1.56
-5.83
-9.53
-12.52
-15.1
-17.78
-21.13
-25.47
-30.71
-36.31
-41.35
-44.77
-45.59
-43.15
-37.34
-28.69
-18.25
-7.38
2.64
10.92
17.07
21.08
23.12
23.41
22.26
20.09
17.57
15.47
14.41
14.64
15.89
17.5
18.76
19.21
18.8
17.85
16.76
15.79
14.86
13.67
11.8
9.03
5.42
1.3
-2.89
-6.84
-10.44
-13.78
-17.05
-20.39
-23.89
-27.59
-31.47
-35.4
-39.07
-41.87
-42.93
-41.49
-37.12
-30.03
-21.06
-11.33
-1.97
6.21
12.89
17.96
21.29
22.79
22.55
20.82
18.11
15.12
12.6
11.24
11.31
12.45
13.91
14.9
14.8
13.43
11.09
8.4
6.12
4.58
3.17
0.99
-2.51
-7.46
-13.38
-19.41
-24.78
-28.64
-30.77
-32.68
-35.79
-40.53
-46.8
-53.96
-61.0
-66.83
-69.31
-66.44
-59.0
-47.8
-32.98
-15.49
2.94
20.13
33.78
43.67
50.16
50.24
42.2
27.28
7.68
-13.24
-30.99
-40.4
-34.42
-7.72
36.89
93.96
158.03
222.55
282.01
333.54
363.38
362.18
353.68
349.99
344.64
333.65
313.96
284.55
246.47
202.19
156.38
112.76
68.76
21.61
-29.27
-84.78
-145.71
-211.49
-278.97
-339.85
-383.06
-401.01
-388.15
-342.13
-266.97
-172.01
-69.33
29.2
114.91
182.14
225.65
243.27
236.59
209.37
166.84
114.44
56.48
-4.38
-67.32
-133.21
-201.51
-268.54
-328.52
-375.49
-405.78
-419.69
-421.22
-416.15
-409.9
-404.76
-399.11
-388.67
-368.51
-335.16
-287.84
-228.82
-162.72
-95.19
-31.38
25.37
74.18
116.21
153.29
186.63
215.84
238.94
253.16
255.71
244.58
219.23
181.16
134.34
84.91
39.69
4.03
-20.17
-35.11
-45.8
-57.61
-73.88
-94.97
-118.87
-143.01
-165.58
-185.71
-202.74
-215.33
-221.35
-218.89
-207.41
-188.26
-164.04
-137.19
-108.75
-78.12
-43.77
-4.52
39.41
86.13
132.7
175.97
213.45
243.69
266.37
282.07
291.95
297.4
299.68
299.57
297.28
292.6
285.27
275.32
263.41
250.67
238.41
227.79
219.55
213.92
210.79
209.97
211.27
214.63
220.0
227.24
236.02
245.83
256.04
265.9
274.45
280.47
282.45
278.77
267.93
248.85
221.06
184.63
140.03
88.03
29.73
-33.28
-98.54
-162.78
-221.94
-271.8
-308.78
-330.83
-338.09
-333.0
-319.53
-302.0
-283.73
-266.32
-249.68
-232.67
-214.12
-193.64
-171.86
-150.27
-130.54
-113.81
-100.25
-89.02
-78.74
-68.15
-56.75
-44.81
-32.88
-21.22
-9.59
2.12
13.08
21.31
24.76
23.04
18.77
17.06
23.14
38.93
61.3
82.63
94.02
89.13
66.44
28.58
-20.38
-77.49
-141.2
-209.61
-277.82
-337.11
-376.83
-388.42
-368.96
-322.42
-257.83
-185.72
-114.94
-51.09
2.93
45.7
76.45
95.16
102.98
102.3
96.16
87.2
77.18
67.03
57.6
49.89
44.92
43.07
43.49
44.0
41.78
34.3
20.34
0.54
-22.43
-44.32
-60.3
-66.34
-60.55
-44.36
-22.75
-3.47
4.9
-4.52
-34.47
-82.07
-139.18
-194.52
-236.99
-258.98
-258.57
-239.64
-210.05
-178.73
-153.0
-136.82
-130.65
-132.32
-138.49
-145.89
-152.19
-156.35
-158.68
-160.57
-163.94
-170.41
-180.48
-192.78
-204.15
-210.34
-207.32
-192.67
-166.39
-130.79
-89.52
-46.36
-4.05
36.23
74.72
112.59
151.56
193.47
239.93
291.56
347.04
402.7
453.02
492.2
516.26
524.56
519.64
505.68
486.17
462.17
432.25
393.85
345.48
288.32
226.42
165.5
110.94
66.25
32.31
7.78
-10.03
-24.07
-36.67
-49.19
-62.11
-75.32
-88.45
-101.07
-112.72
-122.91
-131.17
-137.3
-141.51
-144.42
-146.8
-149.03
-150.68
-150.39
-146.34
-137.07
-122.28
-103.22
-82.34
-62.4
-45.44
-32.04
-21.31
-11.34
-0.12
13.65
30.12
48.14
65.69
80.54
91.02
96.56
97.89
96.65
94.56
92.71
90.98
88.25
82.98
73.97
60.95
44.66
26.51
8.19
-8.69
-22.79
-33.11
-39.13
-40.95
-39.35
-35.6
-31.05
-26.67
-22.73
-18.91
-14.67
-9.77
-4.47
0.5
4.15
5.66
4.54
0.67
-5.74
-14.24
-24.22
-34.8
-44.9
-53.25
-58.57
-59.72
-55.99
-47.3
-34.37
-18.69
-2.24
12.89
25.09
33.49
38.08
39.45
38.36
35.42
30.95
25.1
18.12
10.37
2.37
-5.5
-12.95
-19.87
-26.02
-30.91
-33.77
-33.72
-30.15
-23.0
-12.9
-1.07
10.94
21.65
29.92
35.18
37.37
36.85
34.25
30.32
25.88
21.71
18.51
16.76
16.69
18.22
21.01
24.58
28.36
31.74
34.13
35.08
34.43
32.33
29.26
25.79
22.44
19.41
16.57
13.49
9.59
4.36
-2.38
-10.32
-18.58
-25.81
-30.51
-31.47
-28.11
-20.72
-10.37
1.37
12.83
22.59
29.73
33.84
35.13
34.22
31.98
29.29
26.82
24.9
23.49
22.36
21.26
20.18
19.31
18.98
19.29
20.0
20.48
20.0
17.96
14.18
8.83
2.32
-4.89
-12.2
-18.74
-23.38
-25.02
-23.13
-18.23
-11.75
-5.31
0.38
6.08
13.74
25.25
40.99
59.04
75.57
86.35
88.47
81.44
67.25
49.23
30.81
14.41
1.15
-8.82
-15.89
-20.56
-23.41
-25.05
-26.33
-28.16
-31.25
-35.79
-41.18
-46.16
-49.28
-49.51
-46.82
-42.27
-37.58
-34.51
-34.19
-36.78
-41.63
-47.7
-54.08
-60.11
-65.37
-69.39
-71.48
-70.78
-66.54
-58.51
-47.14
-33.53
-19.14
-5.37
6.79
16.82
24.56
30.0
33.15
34.04
32.87
30.09
26.38
22.48
19.01
16.36
14.61
13.61
13.08
12.6
11.7
10.05
7.63
4.82
2.21
0.39
-0.55
-1.02
-1.86
-3.92
-7.6
-12.76
-18.8
-25.0
-30.67
-35.19
-37.89
-37.88
-34.26
-26.48
-14.83
-0.59
14.16
27.11
36.42
41.17
41.47
38.22
32.72
26.3
20.11
15.07
11.84
10.78
11.96
15.06
19.38
23.95
27.6
29.23
28.03
23.74
16.72
7.98
-1.05
-8.93
-14.6
-17.65
-18.37
-17.59
-16.4
-15.75
-16.33
-18.36
-21.67
-25.65
-29.39
-31.82
-31.82
-28.65
-22.19
-13.06
-2.58
7.63
16.17
22.22
25.72
27.06
26.71
24.96
21.95
17.88
13.28
9.08
6.13
4.7
4.17
3.17
0.26
-5.27
-12.97
-21.44
-29.05
-34.64
-37.99
-39.5
-39.78
-39.22
-37.96
-36.22
-34.57
-33.92
-35.11
-38.41
-43.15
-47.89
-50.83
-50.47
-46.0
-37.53
-25.95
-12.74
0.43
12.06
21.17
27.51
31.5
33.95
35.59
36.78
37.41
37.22
36.14
34.55
33.19
32.86
33.89
36.06
38.53
40.29
40.55
38.99
35.82
31.56
26.81
22.06
17.66
13.78
10.49
7.61
4.76
1.4
-2.94
-8.31
-14.08
-18.87
-20.99
-18.97
-12.24
-1.45
11.71
25.16
37.2
47.08
55.05
61.97
68.69
75.54
82.28
88.44
93.78
98.56
103.52
109.61
117.62
128.02
140.98
156.34
173.33
190.3
204.46
212.04
209.23
193.55
165.28
128.0
87.88
51.61
24.03
6.51
-3.27
-10.01
-18.76
-33.46
-56.74
-90.2
-134.68
-189.53
-251.28
-312.83
-364.31
-396.01
-402.09
-383.02
-345.34
-298.61
-251.3
-207.93
-168.27
-128.78
-85.11
-34.31
23.61
85.71
146.79
200.46
240.71
263.5
267.8
255.5
230.33
195.7
154.66
109.81
64.02
20.93
-15.3
-41.09
-54.99
-58.84
-59.1
-63.58
-79.23
-109.9
-155.1
-209.55
-264.44
-309.63
-336.33
-341.76
-327.38
-298.41
-262.51
-228.33
-203.64
-193.82
-200.59
-220.98
-249.97
-277.82
-293.11
-287.15
-258.57
-214.17
-166.42
-128.22
-90.18
-47.02
3.83
60.01
115.57
163.27
198.0
218.45
227.31
229.55
226.95
220.31
208.58
191.55
169.36
143.82
117.77
94.35
75.82
60.89
47.83
34.75
24.8
18.17
14.05
11.36
9.34
7.3
2.79
-7.83
-26.69
-54.04
-87.97
-122.85
-150.97
-165.17
-161.75
-142.47
-109.68
-70.48
-31.45
3.72
35.32
65.13
93.11
115.65
126.47
120.19
95.1
55.3
8.57
-36.22
-72.22
-95.85
-106.43
-104.5
-90.9
-67.56
-38.0
-7.96
15.85
28.3
28.6
21.31
14.72
16.89
31.12
54.11
77.01
89.57
84.78
61.84
26.15
-13.43
-48.26
-72.73
-84.73
-84.81
-74.66
-56.1
-30.82
-0.23
34.33
71.78
111.26
151.67
190.72
224.56
248.42
257.91
250.66
227.21
190.76
146.01
97.98
51.31
10.24
-21.25
-39.83
-43.62
-33.09
-11.21
17.38
47.84
76.43
100.98
120.6
134.94
143.97
147.89
147.39
143.68
138.12
131.79
125.25
118.53
111.5
104.22
97.05
90.55
85.19
81.14
78.25
76.06
74.12
72.04
69.73
67.28
65.03
63.34
62.52
62.59
63.14
63.28
61.83
57.57
49.63
37.72
22.28
4.27
-15.08
-34.47
-52.7
-68.65
-81.29
-89.98
-94.72
-96.5
-97.14
-98.72
-102.6
-108.8
-115.95
-121.95
-125.11
-124.97
-122.44
-119.16
-116.58
-115.14
-114.1
-112.04
-107.57
-100.0
-89.58
-77.4
-65.02
-54.09
-45.9
-41.22
-40.06
-41.7
-44.83
-47.81
-49.19
-48.15
-44.95
-40.8
-37.54
-36.77
-39.12
-43.92
-49.3
-53.15
-54.17
-52.82
-51.81
-55.76
-70.16
-99.61
-145.83
-206.18
-273.56
-337.92
-389.16
-420.2
-428.85
-417.68
-392.13
-357.84
-318.83
-276.99
-232.95
-187.17
-140.63
-94.5
-49.29
-4.31
42.25
92.67
148.57
210.07
275.28
340.26
399.83
448.65
482.57
499.82
501.41
490.62
471.75
448.73
424.14
399.16
374.11
349.27
325.31
303.08
283.05
264.81
247.06
228.17
207.01
183.58
159.11
135.55
114.6
97.01
82.32
69.27
56.53
43.46
30.35
18.18
8.06
0.66
-4.01
-6.59
-7.97
-9.0
-10.22
-11.82
-13.64
-15.34
-16.52
-16.91
-16.53
-15.88
-15.78
-17.21
-20.88
-26.87
-34.43
-42.03
-47.79
-50.05
-47.92
-41.49
-31.72
-19.96
-7.44
5.03
17.04
28.44
39.07
48.59
56.69
63.19
68.28
72.53
76.75
81.75
88.09
95.97
105.13
114.64
122.61
126.19
121.76
105.79
76.2
33.48
-19.06
-76.38
-133.33
-186.41
-234.21
-276.63
-313.58
-343.94
-365.88
-377.96
-380.36
-375.14
-365.15
-352.42
-337.1
-317.7
-292.5
-261.15
-225.41
-188.61
-154.21
-124.51
-100.06
-79.97
-62.8
-47.36
-33.12
-20.06
-8.23
2.48
12.32
21.47
29.87
37.01
42.24
45.02
45.18
43.06
39.32
34.71
29.73
24.6
19.26
13.54
7.42
1.03
-5.28
-11.15
-16.38
-21.07
-25.63
-30.52
-35.96
-41.62
-46.5
-49.29
-48.72
-44.17
-35.85
-24.81
-12.51
-0.43
10.3
19.02
25.51
29.83
32.25
33.2
33.31
33.25
33.67
34.94
37.02
39.47
41.63
42.86
42.9
41.87
40.21
38.34
36.42
34.23
31.28
27.15
21.67
15.12
8.06
1.18
-5.01
-10.35
-15.03
-19.58
-24.58
-30.35
-36.66
-42.67
-47.09
-48.68
-46.72
-41.29
-33.2
-23.66
-13.8
-4.41
4.12
11.53
17.56
21.9
24.42
25.31
25.16
24.75
24.77
25.5
26.82
28.34
29.68
30.61
31.07
31.01
30.36
28.99
26.83
23.92
20.39
16.41
12.16
7.82
3.64
-0.09
-3.14
-5.5
-7.49
-9.65
-12.58
-16.56
-21.39
-26.43
-30.88
-34.07
-35.61
-35.39
-33.44
-29.84
-24.7
-18.3
-11.17
-4.1
2.04
6.64
9.49
10.94
11.67
12.42
13.65
15.38
17.26
18.76
19.5
19.42
18.77
17.95
17.27
16.84
16.57
16.23
15.57
14.37
12.49
9.91
6.75
3.24
-0.35
-3.86
-7.3
-10.83
-14.58
-18.55
-22.6
-26.52
-30.23
-33.58
-36.26
-37.58
-36.58
-32.4
-24.83
-14.56
-3.11
7.81
16.88
23.59
28.24
31.59
34.36
36.88
39.03
40.28
40.21
38.72
36.14
33.1
30.18
27.65
25.41
23.19
20.9
18.71
16.98
15.86
15.03
13.78
11.38
7.56
2.77
-2.09
-6.13
-9.04
-11.19
-13.49
-16.85
-21.69
-27.72
-33.99
-39.19
-42.03
-41.58
-37.5
-30.02
-19.9
-8.19
3.95
15.43
25.33
33.04
38.25
41.04
41.83
41.34
40.44
39.87
40.07
41.07
42.53
43.94
44.81
44.87
44.09
42.6
40.63
38.44
36.29
34.36
32.71
31.2
29.43
26.88
23.07
17.84
11.47
4.64
-1.87
-7.62
-12.71
-17.65
-22.93
-28.56
-33.93
-37.99
-39.8
-38.95
-35.65
-30.5
-24.06
-16.68
-8.56
-0.0
8.39
15.76
21.33
24.77
26.29
26.55
26.28
26.01
25.95
26.05
26.13
26.02
25.67
25.11
24.43
23.76
23.07
22.14
20.63
18.15
14.48
9.71
4.24
-1.36
-6.64
-11.48
-16.08
-20.84
-26.05
-31.81
-38.0
-44.46
-51.06
-57.62
-63.78
-68.96
-72.41
-73.54
-72.23
-68.98
-64.81
-60.92
-58.29
-57.51
-58.81
-62.16
-67.48
-74.65
-83.46
-93.67
-104.95
-116.99
-129.55
-142.44
-155.53
-168.79
-182.27
-196.15
-210.69
-226.15
-242.77
-260.77
-280.31
-301.37
-323.49
-345.39
-364.77
-378.51
-383.11
-375.58
-354.13
-318.7
-270.92
-213.63
-150.16
-83.59
-16.3
50.21
115.17
178.33
239.85
300.04
359.18
417.08
472.53
523.12
565.61
596.9
615.22
620.98
616.67
605.93
592.2
577.77
563.58
549.76
536.42
524.24
514.25
507.25
502.99
499.91
495.39
486.69
471.92
450.78
424.68
396.02
367.14
339.49
313.29
287.83
262.25
236.14
209.72
183.58
158.21
133.66
109.65
85.87
62.34
39.52
18.2
-0.87
-17.29
-31.17
-43.05
-53.61
-63.41
-72.68
-81.44
-89.64
-97.47
-105.4
-114.11
-124.25
-136.16
-149.76
-164.7
-180.52
-196.99
-214.17
-232.42
-252.17
-273.8
-297.52
-323.29
-350.76
-379.11
-407.02
-432.77
-454.54
-470.8
-480.69
-484.14
-481.75
-474.48
-463.31
-449.0
-432.12
-413.09
-392.35
-370.27
-346.91
-321.81
-293.86
-261.74
-224.54
-182.6
-137.86
-93.65
-53.79
-21.43
1.83
16.1
22.84
23.98
21.26
15.98
9.11
1.7
-4.85
-8.94
-9.1
-4.52
4.58
16.9
30.38
42.76
52.23
57.97
60.28
60.35
59.69
59.57
60.53
62.37
64.46
66.34
68.47
72.22
79.46
91.25
106.39
120.79
128.26
122.71
101.02
64.99
21.37
-20.29
-51.22
-66.48
-66.44
-55.82
-41.18
-28.17
-19.87
-16.62
-17.09
-19.59
-22.9
-26.42
-29.72
-32.12
-32.73
-30.8
-26.34
-20.48
-15.27
-12.97
-15.01
-21.39
-30.67
-40.66
-49.37
-55.74
-59.69
-61.74
-62.35
-61.46
-58.53
-53.02
-44.78
-34.32
-22.75
-11.4
-1.46
6.3
11.58
14.49
15.61
15.79
16.14
17.7
21.15
26.55
33.23
39.96
45.23
47.66
46.25
40.53
30.66
17.48
2.45
-12.43
-25.01
-33.54
-37.13
-36.19
-32.33
-28.03
-26.03
-28.65
-37.26
-51.74
-70.29
-89.51
-105.0
-112.23
-107.69
-89.69
-58.85
-17.97
28.43
74.99
116.28
147.7
166.21
170.84
162.78
145.17
122.2
98.2
76.71
59.94
48.83
43.41
43.28
47.86
56.32
67.4
79.22
89.53
96.18
97.84
94.45
87.18
77.92
68.42
59.78
52.32
45.87
40.37
36.1
33.61
33.32
35.04
37.93
40.74
42.34
42.18
40.35
37.42
33.97
30.4
26.92
23.71
21.17
19.78
19.98
21.74
24.5
27.16
28.4
27.23
23.3
17.08
9.65
2.29
-4.01
-8.87
-12.59
-15.98
-19.98
-25.4
-32.71
-41.81
-52.14
-62.55
-71.51
-77.32
-78.54
-74.36
-65.01
-51.68
-36.3
-20.94
-7.29
3.7
11.87
17.55
21.22
23.21
23.68
22.69
20.47
17.48
14.3
11.47
9.19
7.25
5.15
2.33
-1.59
-6.68
-12.61
-18.8
-24.55
-29.24
-32.51
-34.29
-34.9
-34.95
-35.25
-36.63
-39.59
-44.03
-49.06
-53.14
-54.51
-51.85
-44.81
-34.19
-21.58
-8.82
2.62
11.93
18.88
23.62
26.43
27.66
27.81
27.58
27.72
28.87
31.39
35.2
39.95
45.02
49.75
53.44
55.52
55.63
53.69
49.92
44.76
38.7
32.2
25.68
19.55
14.16
9.75
6.27
3.3
0.21
-3.61
-8.34
-13.48
-18.0
-20.62
-20.35
-16.84
-10.58
-2.72
5.28
12.08
16.77
19.08
19.21
17.78
15.44
12.73
9.95
7.15
4.29
1.36
-1.5
-4.0
-5.74
-6.35
-5.69
-3.97
-1.75
0.17
0.98
0.21
-2.08
-5.26
-8.27
-10.05
-9.93
-7.98
-5.16
-3.18
-4.2
-10.26
-22.65
-41.25
-64.28
-88.34
-109.06
-122.09
-124.1
-113.53
-90.89
-58.66
-20.87
17.46
51.15
75.79
88.73
89.83
81.48
67.9
53.93
43.6
39.24
41.13
47.73
56.22
63.08
64.89
59.26
45.83
26.87
6.91
-8.54
-15.0
-10.64
3.01
21.82
40.58
54.82
61.92
61.36
54.19
42.44
28.53
15.01
4.33
-1.54
-1.66
3.42
11.63
19.9
25.25
25.8
21.59
14.43
7.06
1.92
0.14
1.19
3.32
4.5
3.18
-1.24
-8.5
-17.86
-28.42
-39.29
-49.59
-58.39
-64.83
-68.24
-68.32
-65.16
-59.25
-51.29
-42.2
-32.96
-24.49
-17.54
-12.45
-9.15
-7.24
-6.19
-5.5
-4.78
-3.67
-1.84
0.98
4.93
9.83
15.22
20.54
25.28
29.22
32.36
34.75
36.3
36.68
35.51
32.55
28.08
22.9
18.13
14.84
13.58
14.14
15.58
16.52
15.61
11.99
5.48
-3.47
-13.99
-25.14
-36.13
-46.5
-56.16
-65.45
-75.18
-86.5
-100.56
-117.91
-137.76
-157.61
-173.39
-180.52
-175.43
-156.94
-126.95
-89.94
-51.63
-17.29
9.56
27.52
37.1
39.85
37.77
32.85
27.03
22.2
20.01
21.51
26.9
35.34
45.3
55.05
63.22
69.08
72.55
73.76
72.75
69.29
63.17
54.41
43.52
31.43
19.11
7.22
-4.08
-15.06
-26.13
-37.43
-48.54
-58.28
-64.84
-66.15
-60.52
-47.37
-27.7
-4.14
19.56
39.59
53.06
58.71
57.01
49.62
38.77
26.62
14.89
4.83
-2.77
-7.46
-9.19
-8.19
-5.05
-0.53
4.54
9.44
13.76
17.4
20.5
23.31
26.01
28.68
31.39
34.19
37.15
40.22
43.08
45.3
46.58
47.21
48.33
51.67
58.85
70.57
86.13
103.61
120.69
135.57
147.47
156.6
163.4
167.93
169.53
167.0
159.02
144.6
123.13
94.19
57.61
13.77
-35.74
-87.83
-138.36
-183.34
-220.3
-249.16
-272.0
-291.82
-310.79
-329.01
-344.4
-353.76
-354.44
-345.97
-330.57
-312.5
-296.2
-284.26
-276.11
-268.12
-255.0
-231.9
-196.33
-149.04
-93.41
-34.16
23.75
75.8
117.76
145.66
156.09
147.11
119.41
76.91
26.17
-25.35
-71.36
-108.52
-136.82
-158.39
-175.44
-188.15
-193.82
-187.73
-165.28
-124.39
-67.08
0.76
71.03
135.95
190.04
230.95
258.9
275.35
281.95
280.0
270.82
256.14
238.2
219.05
199.8
180.49
161.02
142.43
127.85
121.93
128.77
149.49
181.03
216.77
249.21
272.97
286.48
291.6
291.56
288.63
283.11
273.69
258.74
237.4
209.73
176.33
137.95
95.64
51.2
7.45
-32.18
-64.82
-89.48
-107.58
-122.31
-137.13
-153.92
-172.08
-188.8
-200.56
-204.72
-200.59
-189.49
-173.84
-155.91
-136.88
-116.62
-94.1
-68.25
-38.51
-5.04
31.47
69.99
109.24
147.49
182.34
210.89
230.25
238.4
235.01
221.8
202.27
180.74
161.22
146.2
136.16
129.6
123.8
115.77
103.2
84.96
61.12
32.58
0.44
-34.35
-71.01
-108.81
-146.89
-184.17
-219.56
-252.15
-281.32
-306.61
-327.45
-343.03
-352.4
-354.75
-349.82
-337.77
-318.98
-293.61
-261.32
-221.64
-174.67
-121.97
-66.93
-14.5
30.05
62.66
81.79
88.93
88.03
84.12
81.62
83.08
88.65
96.59
104.35
109.84
112.19
111.74
109.47
106.11
101.84
96.43
89.88
82.9
76.85
72.91
71.29
70.78
69.26
64.83
56.93
46.64
36.12
27.45
21.73
18.81
17.7
17.31
16.86
15.86
13.86
10.27
4.54
-3.37
-12.64
-21.66
-28.42
-31.03
-28.21
-19.45
-5.15
13.38
33.9
53.54
69.29
78.77
80.96
76.35
66.61
53.63
38.65
21.88
2.84
-18.86
-42.77
-67.26
-89.87
-108.03
-119.82
-124.61
-123.32
-118.3
-112.84
-110.34
-113.27
-122.32
-135.96
-150.91
-163.27
-169.96
-169.89
-164.11
-155.22
-145.88
-137.79
-131.1
-124.69
-117.05
-107.11
-94.65
-80.23
-64.78
-49.17
-34.05
-19.86
-7.1
3.67
11.87
17.15
19.59
19.77
18.54
16.68
14.64
12.36
9.44
5.41
-0.01
-6.65
-14.0
-21.25
-27.61
-32.5
-35.72
-37.48
-38.32
-38.91
-39.79
-41.06
-42.27
-42.43
-40.37
-35.16
-26.53
-15.07
-2.0
11.19
23.28
33.46
41.42
47.15
50.73
52.27
51.9
49.88
46.6
42.58
38.35
34.31
30.75
27.72
25.13
22.76
20.43
18.0
15.52
13.08
10.78
8.58
6.22
3.33
-0.49
-5.39
-11.21
-17.37
-22.97
-26.95
-28.41
-26.79
-22.1
-14.92
-6.24
2.79
11.16
18.18
23.5
27.07
28.96
29.33
28.38
26.43
23.9
21.26
18.89
17.01
15.58
14.43
13.34
12.16
10.87
9.44
7.85
6.06
3.97
1.55
-1.22
-4.34
-7.85
-11.67
-15.57
-19.06
-21.37
-21.71
-19.56
-14.88
-8.24
-0.57
7.11
14.01
19.63
23.79
26.4
27.43
26.88
24.94
22.01
18.65
15.42
12.69
10.51
8.65
6.73
4.47
1.74
-1.43
-4.89
-8.5
-12.2
-15.97
-19.87
-23.97
-28.34
-33.03
-37.97
-42.83
-46.99
-49.54
-49.47
-46.0
-38.83
-28.29
-15.21
-0.73
14.0
27.96
40.34
50.52
58.0
62.53
64.19
63.46
61.15
58.21
55.38
53.01
50.98
48.88
46.3
43.09
39.44
35.78
32.41
29.38
26.44
23.25
19.57
15.38
10.84
6.15
1.43
-3.19
-7.41
-10.68
-12.28
-11.54
-8.2
-2.61
4.42
11.79
18.56
24.05
28.01
30.42
31.38
31.05
29.6
27.27
24.4
21.48
18.98
17.25
16.42
16.29
16.44
16.41
15.82
14.56
12.75
10.66
8.53
6.43
4.28
1.88
-0.96
-4.3
-8.06
-11.92
-15.47
-18.15
-19.43
-18.86
-16.2
-11.51
-5.21
1.96
9.11
15.39
20.16
23.14
24.38
24.15
22.83
20.8
18.42
16.08
14.09
12.69
11.92
11.6
11.41
11.0
10.16
8.83
7.16
5.34
3.53
1.85
0.28
-1.21
-2.69
-4.28
-6.08
-8.18
-10.55
-13.0
-15.11
-16.33
-16.12
-14.13
-10.36
-5.25
0.55
6.27
11.27
15.11
17.57
18.54
18.1
16.49
14.18
11.83
10.08
9.35
9.68
10.64
11.64
12.09
11.67
10.38
8.44
6.16
3.79
1.5
-0.62
-2.54
-4.22
-5.76
-7.27
-8.94
-10.85
-12.9
-14.7
-15.7
-15.36
-13.31
-9.53
-4.42
1.34
6.96
11.78
15.39
17.64
18.62
18.55
17.67
16.26
14.6
12.95
11.56
10.59
10.07
9.83
9.63
9.19
8.34
7.07
5.5
3.83
2.19
0.66
-0.8
-2.21
-3.69
-5.33
-7.28
-9.7
-12.65
-16.0
-19.34
-22.01
-23.3
-22.7
-20.07
-15.76
-10.4
-4.79
0.41
4.77
8.1
10.42
11.78
12.32
12.18
11.58
10.81
10.13
9.78
9.74
9.89
9.95
9.66
8.88
7.59
5.95
4.15
2.41
0.84
-0.56
-1.88
-3.3
-4.9
-6.75
-8.82
-11.09
-13.5
-16.0
-18.46
-20.59
-21.97
-22.12
-20.69
-17.62
-13.17
-7.91
-2.51
2.43
6.52
9.64
11.83
13.23
13.94
14.04
13.6
12.68
11.44
10.08
8.77
7.63
6.72
5.95
5.25
4.48
3.57
2.49
1.23
-0.17
-1.64
-3.15
-4.66
-6.18
-7.76
-9.48
-11.47
-13.79
-16.41
-19.06
-21.31
-22.59
-22.38
-20.42
-16.84
-12.12
-6.94
-1.99
2.23
5.51
7.85
9.38
10.19
10.39
10.06
9.34
8.43
7.54
6.81
6.29
5.93
5.62
5.22
4.66
3.93
3.1
2.22
1.3
0.3
-0.87
-2.27
-3.85
-5.52
-7.14
-8.67
-10.2
-11.87
-13.75
-15.72
-17.39
-18.15
-17.5
-15.19
-11.39
-6.63
-1.61
3.06
6.98
10.01
12.18
13.55
14.18
14.13
13.54
12.63
11.7
11.01
10.71
10.8
11.06
11.22
11.01
10.23
8.88
7.09
5.08
3.04
1.05
-0.9
-2.86
-4.81
-6.71
-8.52
-10.3
-12.23
-14.54
-17.3
-20.29
-22.96
-24.63
-24.69
-22.89
-19.41
-14.74
-9.53
-4.35
0.42
4.58
8.0
10.62
12.38
13.34
13.66
13.58
13.35
13.15
13.06
13.03
13.02
12.97
12.83
12.52
11.94
10.96
9.57
7.85
6.0
4.19
2.49
0.85
-0.85
-2.7
-4.71
-6.86
-9.21
-11.93
-15.18
-18.98
-23.01
-26.59
-28.85
-29.07
-26.98
-22.85
-17.38
-11.39
-5.58
-0.38
4.09
7.86
10.99
13.47
15.28
16.41
16.94
17.03
16.86
16.56
16.19
15.7
15.06
14.25
13.28
12.2
11.06
9.85
8.57
7.19
5.72
4.18
2.59
0.97
-0.69
-2.37
-4.03
-5.68
-7.34
-9.11
-11.12
-13.48
-16.24
-19.27
-22.26
-24.81
-26.44
-26.73
-25.43
-22.51
-18.18
-12.88
-7.22
-1.76
3.02
6.86
9.73
11.76
13.14
14.07
14.66
14.97
15.08
15.1
15.16
15.37
15.65
15.85
15.7
15.01
13.78
12.22
10.62
9.23
8.13
7.19
6.16
4.87
3.25
1.38
-0.61
-2.61
-4.57
-6.49
-8.34
-10.11
-11.8
-13.52
-15.4
-17.54
-19.79
-21.76
-22.85
-22.48
-20.38
-16.64
-11.75
-6.32
-0.94
4.02
8.36
11.95
14.64
16.34
17.02
16.82
16.13
15.43
15.11
15.36
16.09
16.96
17.62
17.8
17.4
16.53
15.36
14.08
12.82
11.55
10.19
8.62
6.78
4.71
2.56
0.48
-1.42
-3.14
-4.8
-6.58
-8.6
-10.94
-13.58
-16.45
-19.52
-22.64
-25.62
-28.09
-29.56
-29.54
-27.71
-24.12
-19.08
-13.23
-7.24
-1.68
3.11
7.04
10.19
12.7
14.69
16.17
17.16
17.67
17.75
17.53
17.16
16.79
16.54
16.46
16.49
16.5
16.28
15.7
14.7
13.35
11.82
10.28
8.81
7.33
5.75
3.93
1.88
-0.35
-2.65
-4.96
-7.27
-9.67
-12.21
-14.94
-17.82
-20.71
-23.4
-25.58
-26.92
-27.12
-26.03
-23.65
-20.2
-16.07
-11.62
-7.2
-3.02
0.8
4.13
6.87
8.85
10.0
10.36
10.16
9.71
9.35
9.27
9.54
10.03
10.54
10.82
10.66
9.98
8.85
7.49
6.21
5.19
4.48
3.9
3.16
1.99
0.3
-1.82
-4.17
-6.52
-8.69
-10.62
-12.36
-14.05
-15.88
-18.02
-20.58
-23.54
-26.69
-29.68
-32.07
-33.41
-33.43
-32.04
-29.41
-25.9
-21.96
-18.06
-14.55
-11.67
-9.56
-8.26
-7.8
-8.16
-9.3
-11.01
-12.99
-14.83
-16.13
-16.58
-16.04
-14.52
-12.15
-9.07
-5.38
-1.13
3.59
8.61
13.68
18.42
22.48
25.59
27.61
28.61
28.76
28.27
27.26
25.77
23.75
21.12
17.85
14.02
9.84
5.63
1.83
-1.15
-2.98
-3.5
-2.78
-1.06
1.32
4.03
6.77
9.28
11.37
12.89
13.8
14.15
14.11
13.87
13.59
13.36
13.16
12.97
12.74
12.47
12.1
11.62
11.01
10.29
9.5
8.69
7.86
6.93
5.83
4.48
2.9
1.16
-0.66
-2.48
-4.32
-6.2
-8.17
-10.22
-12.35
-14.53
-16.8
-19.17
-21.62
-24.0
-26.02
-27.28
-27.3
-25.72
-22.4
-17.56
-11.76
-5.72
-0.18
4.39
7.79
10.12
11.61
12.53
13.1
13.52
13.98
14.61
15.49
16.56
17.62
18.44
18.8
18.65
18.07
17.27
16.5
16.0
15.88
16.14
16.61
17.01
17.11
16.71
15.84
14.63
13.26
11.94
10.78
9.83
9.06
8.4
7.6
6.42
4.68
2.43
0.14
-1.35
-1.04
1.79
7.28
14.77
22.98
30.57
36.7
41.49
45.93
51.28
58.04
65.24
70.17
69.07
58.36
35.79
0.88
-45.47
-101.47
-164.47
-230.29
-292.57
-343.09
-373.5
-378.05
-355.79
-310.98
-251.06
-183.62
-114.12
-45.74
18.93
75.99
119.84
145.07
149.25
134.9
109.03
80.41
56.36
40.59
33.17
32.01
34.8
40.02
46.83
54.5
61.97
68.09
72.16
74.3
75.34
76.5
78.83
82.85
88.35
94.15
98.34
98.74
94.01
84.62
73.14
63.25
58.0
57.9
60.46
61.34
56.59
44.8
27.8
9.66
-5.51
-15.48
-20.66
-23.23
-25.6
-29.01
-33.12
-36.58
-38.16
-37.58
-35.62
-33.53
-32.15
-31.29
-29.84
-26.46
-20.56
-12.83
-5.0
0.92
3.71
3.4
1.11
-1.72
-4.04
-5.68
-7.11
-8.88
-11.1
-13.25
-14.5
-14.16
-12.02
-8.43
-4.08
0.4
4.58
8.28
11.53
14.43
17.06
19.3
20.81
21.03
19.41
15.78
10.58
4.88
-0.11
-3.51
-5.31
-6.29
-7.55
-9.8
-12.84
-15.65
-16.85
-15.5
-11.55
-5.83
0.36
5.87
10.09
13.02
15.0
16.39
17.2
17.1
15.53
12.08
6.76
0.08
-7.12
-13.99
-19.98
-25.07
-29.75
-34.79
-40.99
-48.93
-58.76
-70.12
-82.21
-93.92
-104.12
-112.05
-117.58
-121.28
-124.21
-127.49
-131.95
-137.82
-144.85
-152.47
-160.09
-167.29
-173.89
-179.84
-185.11
-189.63
-193.15
-195.2
-194.82
-190.38
-179.52
-159.59
-128.25
-84.27
-27.84
39.62
116.41
201.39
294.16
393.88
497.46
598.19
686.07
750.32
782.91
781.59
750.52
698.24
634.11
565.08
494.27
421.78
346.64
268.53
188.27
107.43
27.68
-49.21
-120.9
-184.14
-235.11
-270.6
-289.21
-292.1
-282.66
-265.4
-244.6
-223.4
-203.56
-185.8
-170.22
-156.64
-144.78
-134.2
-124.43
-114.99
-105.59
-96.17
-86.97
-78.53
-71.44
-66.26
-63.22
-62.14
-62.37
-62.9
-62.64
-60.74
-56.96
-51.86
-46.65
-42.79
-41.39
-42.72
-46.22
-50.82
-55.53
-59.81
-63.59
-66.93
-69.65
-71.16
-70.68
-67.6
-61.8
-53.67
-44.02
-33.82
-24.35
-17.37
-15.19
-20.35
-34.63
-57.96
-87.77
-119.31
-147.07
-166.61
-176.01
-176.1
-169.53
-159.25
-147.3
-134.49
-120.81
-106.25
-91.27
-76.72
-63.43
-51.79
-41.64
-32.54
-24.17
-16.68
-10.75
-7.32
-7.13
-10.24
-15.73
-21.93
-27.11
-30.24
-31.64
-32.87
-35.99
-42.47
-52.3
-63.65
-73.53
-78.76
-77.05
-67.65
-51.36
-30.21
-7.01
15.22
33.71
46.54
53.03
53.96
51.28
47.64
45.64
47.16
52.86
62.16
73.44
84.54
93.31
98.07
97.97
93.04
83.91
71.43
56.46
39.7
21.91
4.05
-12.59
-26.6
-36.63
-41.74
-41.61
-36.74
-28.43
-18.7
-9.9
-4.26
-3.33
-7.65
-16.78
-29.46
-43.98
-58.49
-71.19
-80.53
-85.74
-87.14
-86.07
-84.22
-82.37
-79.3
-71.5
-54.03
-22.03
27.78
96.11
180.63
275.9
373.62
463.44
534.82
579.83
595.86
586.9
562.28
533.05
507.76
489.53
475.99
461.7
441.49
412.6
374.99
330.1
279.32
223.59
164.11
103.43
45.65
-4.41
-43.08
-69.43
-85.64
-95.88
-104.45
-114.0
-124.94
-135.96
-145.35
-152.02
-155.79
-156.96
-155.78
-152.26
-146.56
-139.53
-132.74
-128.13
-127.13
-130.09
-136.31
-144.39
-152.9
-160.72
-167.11
-171.45
-173.27
-172.46
-169.53
-165.72
-162.56
-161.2
-161.78
-163.25
-163.8
-161.61
-155.72
-146.42
-135.1
-123.73
-114.1
-107.26
-103.3
-101.39
-100.1
-97.76
-92.82
-84.04
-70.8
-53.37
-33.05
-11.99
7.22
22.4
32.4
37.37
38.45
37.12
34.52
31.13
26.93
21.79
15.85
9.64
3.84
-0.99
-4.62
-7.15
-8.75
-9.52
-9.5
-8.74
-7.6
-6.81
-7.34
-10.08
-15.41
-22.95
-31.61
-39.82
-45.97
-48.89
-48.07
-43.75
-36.84
-28.69
-20.74
-14.24
-9.9
-7.76
-7.34
-7.84
-8.59
-9.22
-9.74
-10.32
-11.17
-12.4
-14.05
-16.08
-18.37
-20.61
-22.26
-22.59
-20.95
-17.06
-11.07
-3.54
4.92
13.88
23.12
32.49
41.61
49.76
55.99
59.48
59.86
57.41
52.97
47.58
42.2
37.45
33.55
30.4
27.81
25.55
23.45
21.36
19.13
16.55
13.42
9.73
5.63
1.47
-2.38
-5.68
-8.48
-10.99
-13.48
-16.09
-18.68
-20.91
-22.29
-22.35
-20.8
-17.53
-12.76
-7.0
-1.02
4.27
8.06
9.78
9.37
7.18
3.93
0.45
-2.53
-4.52
-5.31
-4.91
-3.47
-1.27
1.33
3.82
5.62
6.23
5.38
3.17
0.05
-3.37
-6.6
-9.45
-12.09
-14.88
-18.17
-22.07
-26.38
-30.65
-34.29
-36.68
-37.31
-35.86
-32.37
-27.29
-21.39
-15.56
-10.46
-6.35
-3.06
-0.2
2.49
5.05
7.23
8.76
9.46
9.44
9.02
8.61
8.54
9.01
10.01
11.37
12.82
14.09
15.0
15.46
15.5
15.16
14.45
13.35
11.79
9.73
7.16
4.08
0.57
-3.24
-6.97
-10.07
-11.83
-11.64
-9.22
-4.84
0.79
6.65
11.81
15.55
17.49
17.59
16.03
13.19
9.61
5.97
2.95
1.04
0.4
0.77
1.62
2.33
2.5
2.0
1.01
-0.15
-1.16
-1.89
-2.39
-2.9
-3.67
-4.92
-6.76
-9.18
-12.01
-14.92
-17.39
-18.89
-18.95
-17.34
-14.18
-9.92
-5.17
-0.56
3.4
6.43
8.43
9.48
9.78
9.59
9.19
8.84
8.76
9.06
9.84
11.1
12.71
14.38
15.7
16.34
16.2
15.54
14.8
14.35
14.25
14.2
13.74
12.53
10.63
8.5
6.78
6.05
6.56
8.2
10.51
12.92
15.0
16.56
17.75
18.85
19.92
20.55
19.72
16.13
8.69
-3.01
-18.48
-36.45
-55.18
-72.98
-88.63
-101.78
-113.26
-125.02
-139.81
-160.31
-187.91
-221.7
-258.05
-291.32
-315.33
-325.27
-319.03
-297.65
-264.53
-224.04
-180.13
-135.26
-90.3
-44.8
2.23
51.71
104.0
158.72
214.69
269.8
320.85
363.76
394.24
409.08
407.39
391.18
364.77
333.29
300.75
268.91
237.41
204.98
170.97
136.25
102.91
73.21
48.28
27.72
10.03
-6.33
-21.98
-36.33
-48.03
-55.72
-58.88
-58.02
-54.64
-50.46
-46.83
-44.29
-42.57
-40.98
-38.86
-35.97
-32.49
-28.85
-25.39
-22.24
-19.34
-16.63
-14.12
-11.96
-10.34
-9.31
-8.81
-8.6
-8.47
-8.34
-8.32
-8.65
-9.65
-11.52
-14.22
-17.4
-20.44
-22.62
-23.35
-22.33
-19.72
-16.03
-11.92
-8.04
-4.8
-2.33
-0.52
0.9
2.31
4.15
6.79
10.39
14.83
19.56
23.73
26.43
26.92
24.93
20.7
14.93
8.46
2.04
-3.83
-9.02
-13.61
-17.81
-21.72
-25.4
-28.75
-31.57
-33.54
-34.2
-33.1
-29.98
-24.92
-18.51
-11.67
-5.42
-0.51
2.82
4.82
5.98
6.72
7.23
7.42
7.16
6.42
5.4
4.45
3.86
3.7
3.84
3.99
3.89
3.48
2.86
2.19
1.55
0.81
-0.38
-2.4
-5.5
-9.56
-14.05
-18.2
-21.13
-22.22
-21.23
-18.35
-14.09
-9.03
-3.68
1.65
6.75
11.41
15.33
18.14
19.65
19.92
19.4
18.73
18.44
18.79
19.59
20.4
20.7
20.16
18.73
16.57
13.96
11.16
8.33
5.49
2.58
-0.49
-3.8
-7.35
-11.0
-14.49
-17.44
-19.39
-19.9
-18.65
-15.57
-10.96
-5.47
0.05
4.8
8.25
10.31
11.21
11.37
11.1
10.54
9.67
8.43
6.83
5.01
3.18
1.56
0.31
-0.5
-0.92
-1.16
-1.49
-2.19
-3.38
-4.96
-6.65
-8.23
-9.66
-11.13
-12.96
-15.35
-18.19
-21.13
-23.7
-25.51
-26.34
-26.09
-24.66
-21.93
-17.89
-12.71
-6.85
-0.94
4.41
8.79
12.02
14.2
15.45
15.94
15.8
15.14
14.13
12.9
11.56
10.22
8.94
7.82
6.99
6.55
6.48
6.63
6.71
6.45
5.67
4.36
2.64
0.67
-1.45
-3.68
-6.03
-8.44
-10.76
-12.75
-14.17
-14.89
-14.86
-14.05
-12.34
-9.47
-5.23
0.47
7.33
14.67
21.49
26.78
29.84
30.45
28.96
26.08
22.62
19.18
16.05
13.23
10.54
7.83
5.1
2.51
0.28
-1.42
-2.53
-3.14
-3.4
-3.51
-3.64
-3.94
-4.49
-5.26
-6.15
-7.03
-7.81
-8.51
-9.34
-10.57
-12.48
-15.2
-18.58
-22.14
-25.1
-26.58
-25.79
-22.37
-16.53
-9.13
-1.49
4.92
8.86
9.7
7.58
3.33
-1.77
-6.36
-9.33
-10.03
-8.38
-4.76
0.03
5.06
9.42
12.36
13.47
12.68
10.3
6.87
2.98
-0.79
-4.12
-6.93
-9.3
-11.41
-13.38
-15.31
-17.18
-19.04
-20.92
-22.92
-25.1
-27.39
-29.57
-31.25
-32.02
-31.53
-29.6
-26.23
-21.61
-16.14
-10.31
-4.64
0.44
4.68
8.03
10.6
12.67
14.5
16.36
18.38
20.55
22.74
24.74
26.36
27.47
28.07
28.24
28.09
27.69
27.01
25.96
24.4
22.25
19.43
15.98
11.97
7.57
3.06
-1.25
-5.12
-8.43
-11.36
-14.27
-17.59
-21.56
-26.06
-30.55
-34.18
-36.15
-35.95
-33.61
-29.68
-24.99
-20.41
-16.49
-13.45
-11.2
-9.54
-8.34
-7.5
-6.96
-6.46
-5.67
-4.18
-1.76
1.54
5.32
9.04
12.2
14.54
16.11
17.16
18.01
18.85
19.73
20.51
21.03
21.16
20.81
20.04
18.91
17.47
15.7
13.54
10.9
7.72
4.03
-0.06
-4.32
-8.37
-11.74
-13.94
-14.61
-13.67
-11.38
-8.34
-5.26
-2.78
-1.3
-0.87
-1.31
-2.31
-3.58
-4.83
-5.83
-6.35
-6.2
-5.29
-3.68
-1.59
0.66
2.79
4.63
6.17
7.49
8.64
9.58
10.18
10.32
9.95
9.16
8.15
7.12
6.19
5.3
4.32
2.98
1.07
-1.56
-4.86
-8.61
-12.32
-15.4
-17.24
-17.35
-15.55
-11.97
-7.06
-1.51
3.91
8.46
11.62
13.15
13.18
12.18
10.8
9.62
8.95
8.78
8.82
8.75
8.32
7.5
6.38
5.1
3.74
2.3
0.74
-0.98
-2.88
-4.98
-7.35
-10.01
-12.96
-16.07
-19.13
-21.94
-24.42
-26.62
-28.68
-30.69
-32.55
-33.98
-34.57
-33.94
-31.87
-28.31
-23.49
-17.78
-11.69
-5.76
-0.44
3.94
7.29
9.73
11.49
12.88
14.15
15.44
16.79
18.18
19.51
20.69
21.57
22.05
22.02
21.44
20.32
18.74
16.76
14.5
12.09
9.65
7.25
4.9
2.52
0.03
-2.63
-5.41
-8.22
-11.03
-13.89
-16.92
-20.17
-23.47
-26.28
-27.93
-27.8
-25.65
-21.71
-16.62
-11.14
-5.94
-1.42
2.25
5.08
7.09
8.35
8.98
9.17
9.21
9.36
9.8
10.59
11.65
12.8
13.78
14.35
14.42
13.99
13.25
12.4
11.53
10.6
9.46
7.91
5.87
3.45
0.86
-1.64
-3.9
-5.93
-7.89
-9.98
-12.39
-15.14
-18.01
-20.6
-22.34
-22.71
-21.37
-18.34
-13.95
-8.8
-3.54
1.28
5.3
8.36
10.42
11.58
12.06
12.1
12.03
12.1
12.4
12.85
13.22
13.3
12.96
12.27
11.42
10.65
10.08
9.68
9.26
8.56
7.39
5.67
3.49
1.06
-1.37
-3.59
-5.46
-7.02
-8.46
-10.09
-12.23
-15.1
-18.69
-22.64
-26.36
-29.11
-30.24
-29.42
-26.74
-22.75
-18.22
-13.94
-10.42
-7.81
-5.96
-4.52
-3.21
-1.82
-0.27
1.49
3.46
5.64
7.92
10.14
12.0
13.23
13.64
13.23
12.22
10.92
9.77
9.01
8.69
8.56
8.18
7.09
5.05
2.09
-1.44
-5.06
-8.33
-11.01
-13.12
-14.87
-16.57
-18.49
-20.79
-23.39
-25.96
-27.94
-28.69
-27.66
-24.61
-19.69
-13.4
-6.44
0.47
6.67
11.64
15.04
16.69
16.63
15.13
12.64
9.68
6.65
3.76
0.99
-1.77
-4.61
-7.49
-10.23
-12.6
-14.43
-15.7
-16.55
-17.18
-17.76
-18.41
-19.1
-19.72
-20.13
-20.11
-19.52
-18.26
-16.43
-14.26
-12.11
-10.28
-8.85
-7.59
-6.06
-3.79
-0.53
3.61
8.22
12.82
17.07
21.06
25.1
29.64
34.87
40.51
45.88
50.07
52.29
52.2
49.97
46.24
41.78
37.29
33.25
29.82
26.99
24.65
22.6
20.71
18.86
17.03
15.25
13.63
12.2
10.91
9.59
7.97
5.9
3.33
0.38
-2.72
-5.74
-8.52
-11.03
-13.33
-15.58
-17.93
-20.45
-23.04
-25.38
-26.95
-27.18
-25.66
-22.31
-17.46
-11.76
-6.02
-0.99
2.79
5.04
5.7
4.94
3.16
0.97
-0.94
-1.99
-1.88
-0.68
1.24
3.38
5.35
6.99
8.34
9.59
10.9
12.32
13.73
14.88
15.48
15.29
14.18
12.22
9.54
6.37
2.84
-1.01
-5.25
-9.97
-15.24
-20.99
-26.95
-32.65
-37.4
-40.42
-41.03
-38.9
-34.16
-27.46
-19.72
-11.86
-4.65
1.52
6.5
10.33
13.15
15.15
16.54
17.5
18.15
18.55
18.71
18.63
18.3
17.76
17.01
16.05
14.86
13.45
11.87
10.25
8.71
7.29
5.93
4.47
2.76
0.75
-1.43
-3.56
-5.49
-7.2
-8.92
-11.06
-13.94
-17.69
-22.01
-26.24
-29.47
-30.89
-29.93
-26.5
-20.97
-14.07
-6.69
0.33
6.33
10.88
13.75
14.9
14.43
12.57
9.7
6.35
3.09
0.34
-1.69
-3.07
-4.14
-5.31
-6.91
-9.01
-11.44
-13.82
-15.77
-17.06
-17.76
-18.27
-19.17
-21.07
-24.35
-29.08
-34.86
-41.01
-46.62
-50.8
-52.76
-52.02
-48.48
-42.49
-34.79
-26.31
-17.86
-9.85
-2.17
5.67
14.22
23.59
33.29
42.27
49.25
53.22
53.71
50.86
45.16
37.17
27.38
16.23
4.31
-7.6
-18.61
-28.08
-35.77
-41.92
-46.95
-51.01
-53.71
-54.2
-51.49
-45.14
-35.56
-24.08
-12.57
-2.81
4.01
7.64
8.68
8.2
7.41
7.2
8.05
9.93
12.43
15.0
17.07
18.32
18.86
19.31
20.74
24.4
31.34
41.85
55.1
68.9
80.03
85.01
81.22
67.82
46.21
19.66
-7.72
-32.21
-51.39
-64.32
-71.19
-72.55
-68.89
-60.39
-47.08
-28.99
-6.23
20.94
51.93
85.41
118.97
149.17
172.24
185.09
186.32
176.8
159.26
137.5
115.39
96.1
81.63
72.37
66.88
62.0
53.63
38.18
14.1
-17.02
-50.83
-81.69
-104.7
-117.31
-119.72
-114.08
-103.27
-89.75
-75.32
-61.25
-48.76
-39.05
-33.11
-31.28
-33.04
-37.09
-41.71
-45.28
-46.84
-46.2
-43.95
-41.03
-38.29
-36.17
-34.77
-34.08
-34.24
-35.55
-38.11
-41.34
-43.92
-43.99
-39.91
-30.94
-17.55
-1.26
15.85
31.8
44.93
54.03
58.22
56.98
50.38
39.2
24.94
9.52
-5.14
-17.56
-26.8
-32.36
-34.04
-31.79
-25.84
-16.84
-5.92
5.5
16.02
24.75
31.48
36.6
40.68
44.04
46.61
47.99
47.92
46.52
44.46
42.66
41.88
42.38
43.8
45.46
46.65
46.98
46.4
45.2
43.74
42.35
41.26
40.54
40.18
39.99
39.57
38.32
35.51
30.59
23.38
14.39
4.69
-4.35
-11.53
-16.2
-18.53
-19.36
-19.76
-20.62
-22.37
-24.95
-28.07
-31.45
-34.89
-38.23
-41.2
-43.38
-44.3
-43.64
-41.48
-38.26
-34.63
-31.17
-28.11
-25.27
-22.18
-18.43
-13.83
-8.68
-3.6
0.72
3.75
5.35
5.79
5.51
4.93
4.28
3.53
2.45
0.79
-1.57
-4.55
-7.77
-10.66
-12.48
-12.56
-10.45
-6.13
-0.04
6.98
13.92
19.87
24.13
26.37
26.58
24.98
21.95
17.97
13.57
9.23
5.38
2.27
0.0
-1.53
-2.55
-3.29
-3.9
-4.35
-4.52
-4.26
-3.6
-2.75
-2.11
-2.02
-2.67
-3.99
-5.71
-7.56
-9.39
-11.26
-13.39
-16.0
-19.25
-23.09
-27.19
-30.95
-33.56
-34.14
-32.08
-27.21
-20.01
-11.5
-3.0
4.28
9.55
12.61
13.75
13.48
12.27
10.46
8.25
5.8
3.3
0.92
-1.24
-3.23
-5.19
-7.28
-9.52
-11.78
-13.91
-15.81
-17.59
-19.38
-21.31
-23.35
-25.42
-27.48
-29.61
-31.89
-34.18
-36.02
-36.73
-35.69
-32.65
-27.84
-21.75
-14.8
-7.14
1.21
10.08
18.9
26.77
32.91
36.96
39.15
39.86
39.25
36.92
32.21
24.74
14.88
3.9
-6.56
-15.04
-20.72
-23.39
-23.12
-19.9
-13.54
-4.02
8.25
22.29
36.67
49.9
60.74
68.44
72.63
73.27
70.54
64.72
56.11
44.96
31.47
16.03
-0.56
-16.82
-30.72
-40.11
-43.38
-40.04
-30.88
-17.8
-3.27
10.26
20.87
27.35
29.38
27.46
22.86
17.36
12.78
10.31
9.91
10.22
8.96
4.13
-5.01
-17.29
-29.95
-39.87
-44.87
-44.59
-40.44
-34.66
-29.28
-25.39
-23.14
-22.13
-21.99
-22.52
-23.56
-24.78
-25.58
-25.44
-24.14
-22.1
-20.22
-19.5
-20.51
-23.02
-26.03
-28.1
-27.87
-24.69
-18.82
-11.35
-3.81
2.37
6.33
7.93
7.72
6.57
5.34
4.59
4.54
5.12
6.12
7.39
8.83
10.45
12.23
14.09
15.9
17.53
18.9
19.99
20.77
21.15
21.02
20.26
18.84
16.84
14.45
11.78
8.86
5.5
1.4
-3.63
-9.47
-15.52
-20.82
-24.27
-25.02
-22.81
-18.08
-11.84
-5.35
0.29
4.47
7.07
8.38
8.75
8.5
7.76
6.6
5.16
3.69
2.51
1.82
1.59
1.53
1.19
0.18
-1.6
-3.93
-6.37
-8.51
-10.15
-11.38
-12.49
-13.73
-15.18
-16.67
-17.91
-18.69
-19.04
-19.27
-19.87
-21.2
-23.23
-25.4
-26.72
-26.1
-22.75
-16.58
-8.21
1.2
10.38
18.38
24.73
29.43
32.64
34.51
35.04
34.26
32.34
29.67
26.78
24.15
22.0
20.28
18.76
17.22
15.54
13.65
11.43
8.6
4.73
-0.55
-7.31
-15.12
-23.12
-30.25
-35.62
-38.76
-39.66
-38.63
-36.21
-32.94
-29.44
-26.23
-23.75
-22.09
-20.86
-19.15
-15.88
-10.22
-2.03
7.98
18.52
28.29
36.41
42.71
47.45
50.97
53.28
53.98
52.57
48.84
43.16
36.41
29.69
23.82
19.13
15.43
12.28
9.28
6.22
3.01
-0.39
-4.16
-8.58
-13.86
-19.91
-26.24
-32.02
-36.33
-38.47
-38.24
-35.95
-32.39
-28.49
-25.1
-22.86
-22.08
-22.73
-24.38
-26.2
-27.02
-25.61
-21.09
-13.33
-3.06
8.3
19.17
28.27
34.99
39.35
41.73
42.57
42.18
40.76
38.54
35.85
33.08
30.56
28.4
26.45
24.33
21.66
18.19
13.99
9.46
5.15
1.61
-0.93
-2.59
-3.82
-5.11
-6.79
-8.79
-10.75
-12.19
-12.77
-12.52
-11.85
-11.37
-11.66
-13.11
-15.73
-19.13
-22.61
-25.2
-25.88
-23.81
-18.56
-10.31
0.12
11.41
22.13
31.07
37.47
41.1
42.1
40.79
37.51
32.64
26.65
20.14
13.86
8.49
4.42
1.66
-0.17
-1.62
-3.14
-4.81
-6.41
-7.54
-7.99
-7.89
-7.69
-7.96
-9.1
-11.11
-13.63
-16.14
-18.22
-19.7
-20.66
-21.41
-22.31
-23.72
-25.86
-28.73
-31.92
-34.59
-35.67
-34.13
-29.43
-21.75
-11.94
-1.28
8.96
17.85
24.92
30.09
33.47
35.21
35.49
34.54
32.69
30.41
28.18
26.41
25.3
24.82
24.74
24.69
24.34
23.5
22.17
20.55
18.86
17.21
15.55
13.59
11.06
7.83
4.03
0.05
-3.61
-6.61
-8.83
-10.47
-11.94
-13.68
-16.08
-19.34
-23.41
-27.94
-32.24
-35.42
-36.53
-34.96
-30.62
-24.12
-16.53
-9.09
-2.81
1.81
4.76
6.38
7.09
7.25
7.1
6.79
6.54
6.56
7.11
8.35
10.33
12.93
15.92
19.01
21.94
24.62
27.08
29.42
31.6
33.38
34.28
33.81
31.71
28.07
23.34
18.06
12.64
7.19
1.6
-4.22
-10.21
-16.2
-21.96
-27.34
-32.3
-36.61
-39.78
-41.07
-39.79
-35.69
-29.24
-21.54
-13.88
-7.32
-2.29
1.31
3.87
5.7
6.87
7.35
7.12
6.37
5.52
5.03
5.21
6.11
7.46
8.88
9.98
10.6
10.78
10.71
10.63
10.59
10.52
10.21
9.44
8.09
6.24
4.06
1.79
-0.39
-2.47
-4.51
-6.7
-9.25
-12.32
-15.98
-20.09
-24.24
-27.78
-29.92
-29.99
-27.69
-23.28
-17.5
-11.37
-5.81
-1.36
1.87
4.07
5.49
6.29
6.48
5.99
4.92
3.54
2.28
1.55
1.5
2.02
2.69
3.08
2.94
2.27
1.33
0.45
-0.16
-0.52
-0.81
-1.3
-2.2
-3.54
-5.24
-7.11
-8.98
-10.71
-12.32
-13.94
-15.83
-18.26
-21.33
-24.89
-28.46
-31.32
-32.72
-32.1
-29.26
-24.44
-18.19
-11.26
-4.36
1.93
7.22
11.31
14.11
15.6
15.9
15.17
13.76
12.11
10.67
9.82
9.66
10.05
10.62
10.93
10.67
9.75
8.33
6.71
5.15
3.78
2.47
1.03
-0.76
-2.95
-5.44
-8.0
-10.43
-12.59
-14.46
-16.14
-17.84
-19.76
-22.12
-25.01
-28.35
-31.73
-34.46
-35.68
-34.67
-31.14
-25.32
-18.04
-10.36
-3.28
2.53
6.87
9.84
11.73
12.78
13.2
13.16
12.91
12.71
12.84
13.45
14.48
15.73
16.89
17.74
18.16
18.28
18.31
18.47
18.84
19.26
19.42
19.03
17.93
16.24
14.26
12.32
10.63
9.14
7.56
5.46
2.41
-1.84
-7.31
-13.7
-20.38
-26.46
-30.98
-33.07
-32.29
-28.75
-23.04
-16.08
-8.84
-2.14
3.44
7.58
10.18
11.3
11.19
10.23
8.88
7.53
6.48
5.81
5.47
5.32
5.21
5.07
4.91
4.8
4.83
4.97
5.14
5.11
4.66
3.64
2.08
0.14
-1.88
-3.71
-5.22
-6.43
-7.53
-8.87
-10.78
-13.52
-17.12
-21.3
-25.45
-28.78
-30.46
-29.89
-26.96
-22.05
-16.02
-9.92
-4.65
-0.74
1.65
2.72
2.74
1.99
0.66
-1.01
-2.72
-4.03
-4.51
-3.88
-2.15
0.34
3.1
5.61
7.52
8.72
9.29
9.41
9.23
8.76
7.92
6.6
4.79
2.59
0.28
-1.9
-3.85
-5.71
-7.83
-10.61
-14.34
-18.99
-24.13
-29.01
-32.67
-34.23
-33.06
-28.97
-22.33
-13.92
-4.8
3.92
11.43
17.23
21.25
23.62
24.6
24.43
23.35
21.66
19.73
17.97
16.73
16.12
15.96
15.86
15.34
14.13
12.24
9.99
7.85
6.13
4.88
3.81
2.46
0.46
-2.3
-5.54
-8.77
-11.45
-13.22
-14.07
-14.34
-14.62
-15.56
-17.65
-20.96
-25.02
-28.89
-31.38
-31.43
-28.49
-22.78
-15.19
-6.97
0.71
7.15
12.22
16.27
19.75
22.97
25.92
28.31
29.79
30.14
29.45
28.04
26.41
25.03
24.28
24.4
25.47
27.32
29.54
31.45
32.26
31.32
28.35
23.59
17.62
11.15
4.74
-1.32
-6.84
-11.63
-15.38
-17.76
-18.7
-18.61
-18.39
-19.12
-21.57
-25.8
-31.06
-35.98
-39.12
-39.47
-36.82
-31.75
-25.34
-18.73
-12.67
-7.41
-2.77
1.51
5.57
9.29
12.37
14.6
16.04
17.05
18.08
19.47
21.27
23.17
24.77
25.8
26.3
26.57
26.97
27.62
28.27
28.38
27.36
24.87
20.97
16.07
10.78
5.61
0.9
-3.22
-6.8
-9.98
-12.96
-16.07
-19.64
-23.91
-28.77
-33.72
-37.87
-40.22
-39.96
-36.78
-30.98
-23.4
-15.19
-7.47
-1.03
3.75
6.93
8.85
9.97
10.73
11.42
12.25
13.28
14.53
15.9
17.29
18.55
19.54
20.12
20.21
19.76
18.75
17.28
15.52
13.71
12.14
10.98
10.25
9.78
9.25
8.36
6.88
4.68
1.74
-1.88
-6.12
-10.81
-15.79
-20.83
-25.77
-30.42
-34.53
-37.65
-39.17
-38.4
-34.92
-28.82
-20.79
-11.97
-3.56
3.55
9.01
12.93
15.66
17.5
18.59
18.99
18.76
18.1
17.33
16.82
16.82
17.42
18.5
19.76
20.86
21.47
21.42
20.77
19.74
18.63
17.66
16.84
15.92
14.54
12.43
9.54
6.1
2.5
-0.84
-3.72
-6.13
-8.21
-10.19
-12.27
-14.61
-17.35
-20.55
-24.07
-27.48
-30.04
-30.82
-29.06
-24.53
-17.68
-9.64
-1.72
4.98
9.92
13.18
15.22
16.55
17.41
17.83
17.74
17.21
16.57
16.27
16.68
17.86
19.5
20.98
21.75
21.53
20.43
18.88
17.36
16.14
15.19
14.21
12.81
10.75
8.0
4.78
1.44
-1.72
-4.49
-6.83
-8.82
-10.64
-12.53
-14.72
-17.37
-20.56
-24.24
-28.18
-31.98
-35.04
-36.7
-36.34
-33.61
-28.59
-21.88
-14.44
-7.28
-1.18
3.51
6.85
9.15
10.71
11.71
12.13
11.95
11.34
10.59
10.15
10.34
11.18
12.38
13.47
14.02
13.87
13.13
12.12
11.13
10.29
9.47
8.45
6.97
4.95
2.46
-0.28
-3.02
-5.53
-7.66
-9.4
-10.82
-12.14
-13.62
-15.58
-18.25
-21.72
-25.84
-30.18
-34.07
-36.69
-37.36
-35.63
-31.53
-25.51
-18.38
-11.03
-4.25
1.48
5.98
9.32
11.67
13.23
14.09
14.38
14.24
13.87
13.55
13.5
13.83
14.48
15.29
16.01
16.44
16.46
16.05
15.24
14.11
12.75
11.21
9.56
7.81
5.93
3.89
1.67
-0.68
-3.03
-5.24
-7.25
-9.07
-10.81
-12.65
-14.76
-17.3
-20.31
-23.77
-27.48
-30.99
-33.63
-34.6
-33.27
-29.47
-23.58
-16.54
-9.43
-3.18
1.77
5.47
8.24
10.41
12.12
13.32
13.92
13.99
13.76
13.59
13.76
14.34
15.18
16.01
16.58
16.78
16.62
16.21
15.66
15.02
14.31
13.53
12.66
11.64
10.36
8.68
6.5
3.87
0.99
-1.77
-4.07
-5.74
-6.85
-7.73
-8.81
-10.52
-13.09
-16.51
-20.45
-24.33
-27.38
-28.79
-27.96
-24.66
-19.18
-12.34
-5.19
1.3
6.53
10.34
12.96
14.71
15.77
16.17
15.89
15.0
13.76
12.57
11.76
11.47
11.57
11.8
11.87
11.63
11.03
10.14
9.07
7.91
6.73
5.53
4.22
2.63
0.61
-1.86
-4.57
-7.13
-9.12
-10.36
-11.01
-11.47
-12.28
-13.84
-16.32
-19.69
-23.64
-27.69
-31.16
-33.23
-33.16
-30.57
-25.64
-19.11
-12.01
-5.31
0.44
5.1
8.81
11.68
13.68
14.64
14.51
13.51
12.16
11.11
10.83
11.41
12.52
13.63
14.25
14.12
13.3
12.04
10.69
9.46
8.46
7.58
6.63
5.35
3.54
1.17
-1.65
-4.59
-7.32
-9.58
-11.31
-12.68
-14.04
-15.77
-18.19
-21.42
-25.33
-29.48
-33.15
-35.5
-35.76
-33.51
-28.84
-22.35
-14.98
-7.73
-1.38
3.67
7.37
9.9
11.52
12.47
12.87
12.89
12.66
12.4
12.37
12.74
13.56
14.74
15.96
16.9
17.33
17.21
16.67
15.96
15.23
14.49
13.57
12.2
10.19
7.54
4.45
1.27
-1.7
-4.3
-6.61
-8.83
-11.23
-13.96
-17.05
-20.41
-23.83
-27.06
-29.73
-31.33
-31.3
-29.17
-24.78
-18.43
-10.87
-3.14
3.77
9.16
12.81
14.89
15.81
16.01
15.81
15.41
14.97
14.73
14.9
15.61
16.81
18.24
19.48
20.14
19.99
19.09
17.69
16.19
14.9
13.98
13.36
12.79
11.96
10.59
8.56
5.94
3.02
0.17
-2.28
-4.15
-5.49
-6.53
-7.67
-9.33
-11.83
-15.28
-19.45
-23.78
-27.43
-29.52
-29.35
-26.63
-21.62
-15.04
-7.88
-1.05
4.77
9.25
12.32
14.04
14.52
13.96
12.7
11.23
10.14
9.85
10.51
11.87
13.38
14.46
14.71
14.05
12.77
11.28
9.96
8.91
7.99
6.87
5.24
2.98
0.23
-2.64
-5.21
-7.16
-8.46
-9.3
-10.1
-11.36
-13.5
-16.74
-21.02
-25.93
-30.72
-34.43
-36.14
-35.23
-31.59
-25.72
-18.54
-11.14
-4.44
1.02
5.06
7.79
9.38
10.04
9.95
9.35
8.56
7.93
7.79
8.28
9.32
10.63
11.87
12.76
13.17
13.17
12.89
12.45
11.86
10.95
9.51
7.4
4.69
1.66
-1.27
-3.75
-5.67
-7.14
-8.48
-10.03
-12.08
-14.81
-18.26
-22.27
-26.43
-30.06
-32.28
-32.3
-29.7
-24.67
-17.96
-10.68
-3.84
1.92
6.42
9.83
12.38
14.18
15.2
15.42
14.96
14.18
13.56
13.53
14.26
15.57
16.99
18.02
18.33
17.86
16.86
15.68
14.56
13.51
12.32
10.7
8.45
5.66
2.6
-0.32
-2.8
-4.83
-6.64
-8.65
-11.23
-14.58
-18.62
-22.98
-27.11
-30.37
-32.15
-31.94
-29.47
-24.79
-18.33
-10.83
-3.16
3.84
9.62
13.99
17.11
19.29
20.9
22.14
23.09
23.74
24.09
24.26
24.44
24.79
25.32
25.86
26.08
25.66
24.46
22.59
20.37
18.15
16.16
14.33
12.36
9.92
6.74
2.91
-1.25
-5.24
-8.7
-11.55
-14.0
-16.47
-19.32
-22.74
-26.67
-30.91
-35.15
-38.92
-41.63
-42.52
-40.93
-36.54
-29.57
-20.91
-11.81
-3.48
3.28
8.26
11.7
14.07
15.8
17.09
17.99
18.57
18.93
19.32
19.94
20.89
22.0
22.96
23.37
22.96
21.8
20.19
18.59
17.4
16.71
16.3
15.7
14.44
12.23
9.14
5.51
1.82
-1.54
-4.36
-6.71
-8.84
-11.07
-13.67
-16.83
-20.55
-24.67
-28.83
-32.42
-34.65
-34.75
-32.21
-27.02
-19.79
-11.6
-3.69
2.95
7.8
10.92
12.68
13.52
13.75
13.55
13.02
12.35
11.84
11.7
12.03
12.65
13.23
13.43
13.05
12.16
11.0
9.89
9.03
8.38
7.69
6.61
4.83
2.25
-0.96
-4.41
-7.66
-10.4
-12.59
-14.46
-16.41
-18.86
-22.06
-25.97
-30.2
-34.04
-36.65
-37.25
-35.34
-30.89
-24.31
-16.43
-8.19
-0.44
6.22
11.45
15.18
17.46
18.45
18.43
17.8
16.99
16.46
16.46
17.01
17.87
18.71
19.21
19.19
18.66
17.74
16.6
15.36
14.01
12.47
10.62
8.42
5.94
3.36
0.83
-1.53
-3.76
-6.03
-8.56
-11.52
-15.02
-19.05
-23.47
-27.94
-31.87
-34.56
-35.22
-33.4
-29.13
-22.99
-15.93
-8.96
-2.85
2.05
5.74
8.39
10.19
11.23
11.64
11.61
11.45
11.55
12.18
13.41
14.96
16.41
17.33
17.5
17.03
16.21
15.39
14.76
14.25
13.58
12.41
10.53
7.95
4.92
1.86
-0.82
-2.84
-4.18
-5.1
-6.06
-7.57
-10.05
-13.62
-17.96
-22.39
-25.89
-27.48
-26.49
-22.79
-16.9
-9.81
-2.65
3.63
8.51
11.93
14.09
15.33
15.96
16.23
16.33
16.4
16.5
16.62
16.61
16.31
15.65
14.72
13.83
13.4
13.77
15.02
16.92
19.01
20.69
21.39
20.77
18.72
15.42
11.21
6.51
1.74
-2.82
-7.06
-11.0
-14.82
-18.74
-22.89
-27.2
-31.35
-34.72
-36.56
-36.25
-33.47
-28.45
-21.9
-14.81
-8.13
-2.54
1.68
4.63
6.6
7.83
8.53
8.79
8.73
8.59
8.74
9.65
11.67
14.87
18.88
22.99
26.33
28.17
28.16
26.3
22.85
18.09
12.22
5.53
-1.52
-8.17
-13.58
-17.18
-18.95
-19.46
-19.68
-20.51
-22.5
-25.8
-30.18
-35.12
-39.88
-43.48
-44.8
-42.92
-37.49
-29.07
-19.01
-9.05
-0.76
4.97
8.02
8.91
8.39
7.18
5.83
4.75
4.35
4.99
6.75
9.13
10.93
10.69
7.43
1.34
-5.91
-11.84
-14.18
-11.97
-5.95
1.87
9.27
14.79
18.06
19.39
19.14
17.32
13.75
8.51
2.2
-4.25
-10.2
-15.78
-21.81
-29.18
-37.95
-46.85
-53.42
-54.98
-49.87
-38.24
-22.04
-4.33
11.81
24.14
31.67
34.63
34.1
31.62
28.71
26.53
25.73
26.39
28.26
30.96
34.13
37.37
40.14
41.68
41.21
38.24
32.95
26.42
20.27
16.03
14.4
14.8
15.67
15.26
12.7
8.53
4.48
2.38
3.01
5.45
7.48
6.84
2.59
-4.25
-11.17
-15.39
-15.1
-9.95
-1.06
9.21
17.73
21.14
16.96
4.67
-13.65
-33.74
-50.88
-61.89
-66.37
-66.37
-64.71
-63.05
-60.86
-55.97
-46.13
-30.65
-11.27
8.38
24.11
32.83
33.51
27.41
17.32
6.34
-3.4
-11.18
-17.42
-22.64
-26.6
-28.0
-25.09
-16.78
-3.52
12.54
28.16
40.05
45.94
45.27
39.41
31.14
23.71
19.51
19.12
21.17
23.19
22.99
19.88
15.05
10.86
9.58
12.24
18.21
25.6
32.17
36.16
36.85
34.57
30.32
25.34
20.57
16.34
12.32
7.87
2.58
-3.41
-9.34
-14.15
-16.96
-17.43
-15.84
-12.97
-9.91
-7.81
-7.54
-9.38
-12.81
-16.53
-18.91
-18.59
-15.06
-8.82
-1.05
6.92
14.04
19.74
23.75
25.84
25.79
23.5
19.2
13.49
7.3
1.66
-2.5
-4.53
-4.14
-1.42
3.17
8.87
14.87
20.49
25.32
29.18
31.96
33.36
32.96
30.37
25.55
18.94
11.4
3.86
-3.09
-9.34
-15.13
-20.76
-26.33
-31.64
-36.42
-40.46
-43.72
-46.19
-47.76
-48.06
-46.7
-43.34
-38.0
-30.97
-22.73
-13.7
-4.25
5.35
14.68
23.12
29.8
33.82
34.51
31.83
26.47
19.81
13.44
8.68
6.07
5.19
4.97
4.17
1.96
-1.75
-6.39
-11.01
-14.68
-16.83
-17.34
-16.4
-14.43
-11.88
-9.21
-6.79
-5.03
-4.33
-5.12
-7.69
-12.02
-17.6
-23.44
-28.29
-30.99
-30.85
-27.81
-22.45
-15.77
-8.94
-3.06
1.17
3.52
4.36
4.44
4.56
5.21
6.44
7.91
9.19
10.09
10.77
11.65
13.04
14.91
16.86
18.35
18.98
18.73
17.92
16.97
16.2
15.58
14.78
13.33
10.94
7.68
4.01
0.58
-2.09
-3.9
-5.29
-6.94
-9.5
-13.19
-17.72
-22.38
-26.36
-29.06
-30.18
-29.78
-28.01
-25.02
-20.92
-15.86
-10.16
-4.37
0.78
4.58
6.51
6.49
4.91
2.56
0.5
-0.3
0.91
4.5
10.33
17.51
24.06
26.94
22.89
9.92
-11.26
-36.63
-60.02
-75.55
-80.22
-75.21
-65.07
-55.24
-49.25
-47.35
-46.96
-44.6
-37.98
-26.96
-13.24
0.8
13.12
22.46
28.16
29.98
28.04
22.9
15.75
8.31
2.32
-0.9
-0.88
2.09
7.15
13.27
19.51
25.14
29.69
32.92
34.85
35.8
36.25
36.67
37.32
38.05
38.41
37.9
36.19
33.35
29.84
26.31
23.37
21.29
19.93
18.75
17.14
14.61
11.02
6.7
2.24
-1.68
-4.61
-6.45
-7.54
-8.45
-9.86
-12.25
-15.7
-19.83
-23.88
-26.87
-27.96
-26.66
-23.03
-17.71
-11.63
-5.78
-0.83
2.93
5.59
7.33
8.28
8.44
7.82
6.6
5.2
4.2
4.06
4.92
6.51
8.31
9.76
10.52
10.57
10.15
9.52
8.86
8.09
6.95
5.12
2.47
-0.92
-4.65
-8.26
-11.35
-13.79
-15.74
-17.54
-19.48
-21.77
-24.44
-27.41
-30.5
-33.4
-35.66
-36.64
-35.77
-32.7
-27.53
-20.85
-13.55
-6.51
-0.4
4.46
8.04
10.52
12.11
13.02
13.44
13.52
13.44
13.39
13.53
13.92
14.5
15.09
15.42
15.29
14.65
13.62
12.42
11.24
10.09
8.79
7.06
4.68
1.69
-1.65
-4.93
-7.79
-10.13
-12.07
-13.98
-16.27
-19.26
-23.05
-27.43
-31.93
-35.85
-38.41
-38.92
-36.96
-32.54
-26.15
-18.6
-10.88
-3.79
2.18
6.95
10.67
13.58
15.81
17.37
18.22
18.39
18.13
17.78
17.71
18.14
19.04
20.17
21.21
21.84
21.84
21.18
19.94
18.34
16.57
14.74
12.82
10.74
8.37
5.74
2.98
0.31
-2.13
-4.28
-6.28
-8.33
-10.59
-13.17
-16.09
-19.4
-23.05
-26.94
-30.68
-33.65
-35.03
-34.12
-30.59
-24.65
-17.1
-8.99
-1.35
5.11
10.14
13.82
16.42
18.18
19.27
19.76
19.8
19.6
19.51
19.8
20.59
21.8
23.18
24.42
25.27
25.58
25.33
24.57
23.37
21.85
20.12
18.3
16.44
14.52
12.46
10.21
7.75
5.19
2.67
0.31
-1.87
-3.95
-6.09
-8.44
-11.14
-14.27
-17.89
-21.97
-26.31
-30.5
-33.85
-35.6
-35.07
-32.02
-26.7
-19.87
-12.53
-5.56
0.47
5.38
9.27
12.3
14.58
16.08
16.81
16.87
16.53
16.18
16.18
16.74
17.8
19.14
20.4
21.31
21.72
21.64
21.15
20.33
19.2
17.73
15.89
13.7
11.24
8.67
6.13
3.68
1.29
-1.16
-3.81
-6.68
-9.67
-12.57
-15.2
-17.53
-19.7
-21.98
-24.65
-27.84
-31.48
-35.28
-38.77
-41.36
-42.4
-41.27
-37.59
-31.43
-23.39
-14.51
-5.99
1.25
6.77
10.7
13.54
15.8
17.75
19.4
20.6
21.23
21.4
21.38
21.51
22.0
22.85
23.79
24.48
24.62
24.07
22.93
21.37
19.6
17.76
15.86
13.92
11.92
9.92
7.99
6.12
4.23
2.17
-0.26
-3.12
-6.33
-9.62
-12.69
-15.28
-17.38
-19.21
-21.17
-23.71
-27.07
-31.17
-35.54
-39.3
-41.47
-41.19
-38.05
-32.21
-24.41
-15.76
-7.4
-0.19
5.47
9.6
12.5
14.52
15.89
16.77
17.3
17.7
18.26
19.22
20.61
22.23
23.7
24.64
24.85
24.44
23.68
22.85
22.05
21.18
20.02
18.39
16.34
14.06
11.87
9.96
8.33
6.79
5.09
3.09
0.83
-1.52
-3.7
-5.58
-7.18
-8.71
-10.46
-12.72
-15.76
-19.66
-24.29
-29.2
-33.63
-36.58
-37.1
-34.66
-29.33
-21.86
-13.48
-5.42
1.36
6.46
9.93
12.08
13.28
13.8
13.85
13.61
13.29
13.11
13.24
13.75
14.61
15.68
16.78
17.73
18.4
18.67
18.49
17.86
16.77
15.29
13.53
11.63
9.73
7.9
6.12
4.21
2.02
-0.53
-3.32
-6.1
-8.61
-10.75
-12.6
-14.41
-16.48
-19.03
-22.15
-25.8
-29.76
-33.66
-36.88
-38.73
-38.53
-35.9
-30.96
-24.31
-16.87
-9.6
-3.21
1.9
5.66
8.2
9.76
10.64
11.16
11.61
12.19
12.98
13.94
15.02
16.15
17.28
18.34
19.25
19.82
19.94
19.55
18.66
17.39
15.81
14.01
12.03
9.93
7.76
5.56
3.32
1.02
-1.35
-3.78
-6.22
-8.61
-10.95
-13.27
-15.6
-17.97
-20.4
-22.95
-25.77
-29.02
-32.71
-36.48
-39.59
-41.09
-40.08
-36.2
-29.75
-21.72
-13.44
-6.05
-0.2
4.14
7.41
10.09
12.42
14.28
15.42
15.7
15.35
14.84
14.68
15.13
16.1
17.24
18.17
18.66
18.73
18.5
18.11
17.55
16.75
15.59
14.07
12.25
10.32
8.44
6.68
5.01
3.32
1.44
-0.69
-3.05
-5.47
-7.78
-9.88
-11.86
-13.95
-16.45
-19.58
-23.39
-27.61
-31.68
-34.79
-36.08
-34.84
-30.89
-24.68
-17.15
-9.52
-2.73
2.71
6.86
10.06
12.62
14.66
16.11
16.9
17.14
17.11
17.15
17.51
18.2
19.08
19.94
20.61
20.93
20.8
20.14
18.93
17.34
15.63
14.1
12.95
12.14
11.41
10.42
8.87
6.71
4.11
1.41
-1.09
-3.2
-4.97
-6.66
-8.58
-11.01
-14.08
-17.75
-21.79
-25.76
-29.04
-30.85
-30.43
-27.39
-22.04
-15.47
-9.37
-5.42
-4.62
-6.89
-11.08
-15.53
-18.7
-19.81
-18.85
-16.33
-12.84
-8.72
-4.04
1.19
6.73
12.04
16.38
19.12
20.02
19.32
17.68
15.84
14.3
13.11
11.91
10.22
7.69
4.36
0.64
-2.85
-5.57
-7.29
-8.13
-8.49
-8.82
-9.48
-10.57
-11.99
-13.52
-15.01
-16.4
-17.76
-19.12
-20.39
-21.32
-21.6
-21.06
-19.73
-17.88
-15.88
-14.08
-12.68
-11.75
-11.29
-11.19
-11.11
-10.44
-8.27
-3.81
3.22
12.18
21.51
29.21
33.61
34.03
31.06
26.2
21.18
17.23
14.64
12.93
11.26
9.04
6.25
3.4
1.19
0.11
0.1
0.47
0.1
-2.16
-7.01
-14.31
-22.93
-31.04
-36.66
-38.27
-35.31
-28.28
-18.42
-7.32
3.5
12.85
20.0
24.72
27.26
28.12
27.86
26.79
24.98
22.43
19.45
16.86
15.73
16.86
20.19
24.65
28.58
30.55
29.97
27.36
23.94
20.92
18.93
17.83
16.89
15.15
11.92
7.04
1.01
-5.09
-10.0
-12.78
-13.24
-12.04
-10.46
-9.79
-10.78
-13.4
-16.95
-20.46
-23.03
-24.06
-23.3
-20.82
-16.95
-12.21
-7.16
-2.26
2.22
6.24
9.74
12.57
14.47
15.23
14.96
14.1
13.33
13.22
13.88
14.95
15.72
15.49
13.92
11.19
7.88
4.86
2.84
2.13
2.42
2.84
2.22
-0.38
-5.19
-11.5
-17.84
-22.63
-24.86
-24.51
-22.53
-20.37
-19.35
-20.04
-22.27
-25.14
-27.53
-28.38
-26.95
-22.94
-16.61
-8.77
-0.68
6.32
11.24
13.88
14.78
14.98
15.5
16.88
19.1
21.74
24.33
26.59
28.53
30.25
31.82
33.12
33.9
33.92
33.08
31.46
29.21
26.41
22.97
18.58
12.93
5.88
-2.29
-10.88
-18.84
-25.14
-29.06
-30.46
-29.81
-28.05
-26.3
-25.49
-26.1
-28.05
-30.75
-33.28
-34.61
-33.85
-30.52
-24.71
-17.21
-9.37
-2.67
1.83
3.99
4.6
4.92
6.03
8.27
11.13
13.71
15.33
15.9
15.87
15.84
16.08
16.49
16.78
16.7
16.18
15.22
13.72
11.52
8.59
5.21
1.97
-0.48
-1.84
-2.28
-2.46
-3.17
-4.88
-7.62
-10.99
-14.43
-17.54
-20.28
-23.03
-26.35
-30.65
-35.72
-40.52
-43.43
-42.75
-37.57
-28.21
-16.23
-3.75
7.35
16.09
22.38
26.56
28.89
29.34
27.83
24.72
20.95
17.8
16.21
16.2
16.83
16.8
15.29
12.51
9.66
8.19
8.94
11.63
15.01
17.51
18.0
16.18
12.59
8.18
3.94
0.47
-2.12
-4.28
-6.8
-10.49
-15.78
-22.45
-29.56
-35.78
-39.79
-40.77
-38.59
-33.65
-26.69
-18.5
-9.76
-1.1
6.87
13.59
18.62
21.76
23.13
23.13
22.38
21.5
21.02
21.18
22.0
23.29
24.73
26.04
26.94
27.24
26.8
25.56
23.61
21.2
18.8
16.9
15.87
15.73
16.14
16.53
16.31
15.14
13.0
10.07
6.53
2.36
-2.62
-8.59
-15.46
-22.65
-29.17
-33.86
-35.78
-34.54
-30.45
-24.42
-17.61
-11.05
-5.29
-0.47
3.56
6.91
9.51
11.13
11.57
10.92
9.59
8.21
7.38
7.38
8.15
9.34
10.5
11.26
11.46
11.14
10.45
9.54
8.52
7.36
5.92
4.01
1.49
-1.65
-5.21
-8.85
-12.17
-14.88
-16.95
-18.61
-20.27
-22.38
-25.28
-29.04
-33.47
-38.08
-42.21
-45.03
-45.75
-43.83
-39.13
-32.08
-23.6
-14.85
-6.87
-0.28
4.79
8.64
11.62
13.98
15.71
16.7
16.95
16.66
16.28
16.26
16.89
18.15
19.72
21.16
22.1
22.32
21.83
20.79
19.46
18.05
16.64
15.15
13.32
10.94
7.92
4.42
0.79
-2.6
-5.47
-7.82
-9.8
-11.68
-13.67
-15.97
-18.78
-22.25
-26.4
-30.97
-35.3
-38.42
-39.32
-37.38
-32.57
-25.55
-17.44
-9.39
-2.32
3.35
7.64
10.78
13.03
14.49
15.11
14.85
13.85
12.51
11.39
11.07
11.84
13.58
15.73
17.45
17.92
16.66
13.68
9.58
5.3
1.75
-0.45
-1.25
-1.09
-0.65
-0.54
-1.03
-2.02
-3.13
-3.93
-4.07
-3.44
-2.18
-0.75
0.11
-0.4
-2.91
-7.51
-13.58
-19.89
-24.97
-27.64
-27.3
-24.1
-18.73
-12.12
-5.15
1.53
7.5
12.48
16.25
18.52
19.05
17.78
15.09
11.85
9.23
8.29
9.49
12.51
16.37
20.0
22.65
24.18
24.83
24.93
24.6
23.72
22.03
19.33
15.58
10.89
5.55
0.07
-4.82
-8.35
-9.98
-9.7
-8.15
-6.36
-5.42
-6.01
-8.27
-11.87
-16.3
-21.15
-26.19
-31.25
-35.98
-39.67
-41.32
-39.94
-34.96
-26.61
-16.04
-4.98
4.79
12.07
16.56
18.75
19.63
20.07
20.53
20.92
20.88
20.06
18.43
16.38
14.56
13.54
13.59
14.53
15.8
16.79
17.1
16.71
15.87
14.93
14.05
13.16
11.96
10.09
7.3
3.56
-0.97
-5.91
-10.8
-15.16
-18.61
-20.99
-22.41
-23.25
-24.04
-25.25
-27.07
-29.3
-31.38
-32.52
-32.02
-29.52
-25.21
-19.77
-14.07
-8.85
-4.44
-0.67
2.94
6.85
11.23
15.81
20.0
23.23
25.19
25.96
25.94
25.63
25.45
25.65
26.35
27.52
28.94
30.14
30.52
29.45
26.63
22.33
17.34
12.65
9.04
6.71
5.34
4.28
2.94
1.03
-1.45
-4.36
-7.45
-10.49
-13.3
-15.85
-18.39
-21.39
-25.37
-30.49
-36.21
-41.3
-44.18
-43.57
-39.08
-31.33
-21.72
-11.82
-2.87
4.46
10.06
14.09
16.72
18.13
18.52
18.23
17.8
17.79
18.62
20.34
22.6
24.78
26.27
26.78
26.38
25.49
24.62
24.09
23.95
23.92
23.52
22.27
19.83
16.14
11.56
6.69
2.3
-0.99
-2.93
-3.73
-3.96
-4.3
-5.27
-7.12
-9.81
-13.21
-17.19
-21.65
-26.35
-30.76
-34.09
-35.38
-33.95
-29.69
-23.21
-15.68
-8.45
-2.52
1.74
4.57
6.51
8.06
9.39
10.37
10.77
10.53
9.9
9.34
9.26
9.91
11.18
12.72
14.1
14.98
15.14
14.6
13.49
12.02
10.39
8.69
6.87
4.84
2.51
-0.09
-2.81
-5.45
-7.87
-10.06
-12.11
-14.14
-16.2
-18.33
-20.59
-23.16
-26.31
-30.22
-34.75
-39.32
-42.94
-44.56
-43.34
-39.07
-32.21
-23.78
-14.95
-6.8
0.0
5.24
9.03
11.64
13.35
14.36
14.84
14.92
14.84
14.86
15.22
16.06
17.31
18.74
19.98
20.68
20.66
19.89
18.56
16.94
15.26
13.62
11.96
10.17
8.14
5.85
3.39
0.9
-1.56
-3.96
-6.35
-8.7
-10.96
-13.04
-14.94
-16.78
-18.87
-21.57
-25.09
-29.36
-33.85
-37.7
-39.88
-39.54
-36.25
-30.22
-22.23
-13.4
-4.82
2.69
8.78
13.45
16.88
19.26
20.73
21.41
21.45
21.16
20.88
20.97
21.66
23.03
24.93
27.1
29.21
30.89
31.89
32.07
31.46
30.22
28.64
27.06
25.85
25.26
25.26
25.54
25.53
24.7
22.89
20.54
18.6
18.12
19.7
23.09
27.13
30.18
30.92
28.96
25.23
21.66
20.51
23.41
30.74
41.44
53.5
64.81
74.19
81.78
88.92
97.44
108.68
122.71
137.97
151.43
158.89
155.84
138.58
105.81
60.14
8.44
-39.49
-73.9
-88.75
-84.07
-65.9
-43.63
-25.94
-17.67
-18.92
-26.52
-36.84
-47.92
-59.92
-73.98
-90.55
-108.39
-125.05
-138.28
-147.34
-153.43
-159.07
-166.5
-176.44
-187.7
-197.96
-205.06
-208.11
-207.7
-205.16
-201.64
-197.28
-191.21
-182.06
-168.72
-150.75
-128.44
-102.61
-74.42
-45.29
-16.86
9.18
31.48
49.43
63.33
74.27
83.51
92.0
100.08
107.49
113.8
118.7
122.08
124.02
124.52
123.4
120.37
115.25
108.19
99.73
90.6
81.41
72.45
63.61
54.59
45.15
35.28
25.29
15.6
6.53
-1.81
-9.52
-16.89
-24.21
-31.74
-39.55
-47.45
-54.9
-61.03
-64.75
-65.1
-61.69
-54.89
-45.84
-35.99
-26.63
-18.47
-11.58
-5.65
-0.37
4.38
8.53
11.99
14.93
17.74
20.85
24.49
28.51
32.36
35.31
36.77
36.44
34.46
31.33
27.72
24.29
21.46
19.41
18.01
16.93
15.82
14.41
12.61
10.49
8.26
6.04
3.91
1.73
-0.74
-3.8
-7.71
-12.53
-18.07
-23.81
-28.97
-32.66
-34.08
-32.8
-28.91
-23.05
-16.18
-9.33
-3.3
1.48
4.9
7.04
8.08
8.21
7.62
6.6
5.49
4.61
4.13
4.09
4.35
4.68
4.9
4.94
4.78
4.45
3.95
3.21
2.17
0.78
-0.96
-2.97
-5.09
-7.14
-8.95
-10.44
-11.65
-12.85
-14.42
-16.78
-20.08
-24.05
-27.92
-30.44
-30.19
-25.93
-17.03
-3.65
13.15
31.68
49.99
66.3
79.25
87.94
91.78
90.42
83.77
72.33
57.38
40.87
24.97
11.39
0.68
-7.76
-15.22
-22.96
-31.51
-40.48
-48.81
-55.25
-58.83
-59.04
-55.87
-49.68
-41.21
-31.52
-21.82
-13.24
-6.48
-1.59
1.88
4.49
6.38
6.98
5.21
-0.06
-9.24
-21.61
-35.4
-48.26
-57.97
-63.11
-63.22
-58.74
-50.61
-39.91
-27.64
-14.72
-2.1
9.29
18.69
25.8
30.99
35.21
39.57
44.84
51.03
57.32
62.41
64.96
64.07
59.68
52.58
44.2
36.17
29.72
25.33
22.56
20.34
17.6
13.84
9.38
5.02
1.6
-0.62
-2.1
-3.75
-6.53
-10.94
-16.9
-23.73
-30.45
-35.98
-39.44
-40.33
-38.61
-34.7
-29.24
-22.88
-16.09
-9.17
-2.26
4.47
10.84
16.58
21.46
25.31
28.01
29.46
29.48
27.98
25.01
21.02
16.91
13.73
12.31
12.84
14.75
16.92
18.21
18.02
16.51
14.42
12.57
11.35
10.48
9.21
6.74
2.71
-2.6
-8.43
-13.88
-18.36
-21.76
-24.53
-27.43
-31.14
-36.02
-41.91
-48.15
-53.7
-57.35
-57.97
-54.82
-47.72
-37.17
-24.31
-10.66
2.25
13.21
21.46
26.76
29.34
29.82
29.11
28.31
28.44
30.28
33.99
39.1
44.56
49.07
51.58
51.61
49.38
45.65
41.35
37.16
33.33
29.66
25.66
20.8
14.7
7.31
-1.09
-9.93
-18.43
-25.83
-31.53
-35.22
-37.06
-37.58
-37.59
-37.9
-39.03
-41.07
-43.66
-46.16
-47.87
-48.22
-46.83
-43.57
-38.56
-32.12
-24.72
-16.82
-8.8
-0.85
6.93
14.44
21.33
27.01
30.84
32.52
32.33
31.16
30.08
29.91
30.84
32.4
33.75
34.11
33.04
30.52
26.95
23.01
19.47
17.01
15.96
16.19
17.04
17.59
17.06
15.17
12.28
9.18
6.68
5.11
4.26
3.38
1.47
-2.45
-9.03
-18.34
-29.72
-41.75
-52.49
-59.9
-62.44
-59.57
-52.05
-41.84
-31.53
-23.6
-19.6
-19.73
-22.86
-27.06
-30.38
-31.58
-30.46
-27.66
-24.12
-20.5
-16.84
-12.73
-7.67
-1.5
5.35
11.97
17.36
20.76
22.04
21.64
20.38
19.1
18.27
17.91
17.62
16.9
15.35
12.93
9.94
6.91
4.39
2.73
1.91
1.46
0.64
-1.39
-5.15
-10.62
-17.13
-23.51
-28.39
-30.58
-29.38
-24.8
-17.58
-8.94
-0.28
7.29
13.2
17.5
20.63
23.02
24.84
25.93
26.0
24.94
23.04
20.93
19.46
19.34
20.89
23.94
27.82
31.61
34.39
35.54
34.97
33.0
30.2
27.1
23.85
20.34
16.36
11.81
6.92
2.08
-2.25
-5.73
-8.19
-9.6
-10.13
-10.14
-10.17
-10.88
-12.87
-16.43
-21.51
-27.67
-34.22
-40.3
-44.98
-47.44
-47.06
-43.57
-37.13
-28.28
-17.84
-6.74
4.05
13.57
21.02
25.87
28.05
27.98
26.44
24.23
21.9
19.63
17.42
15.43
14.12
14.21
16.32
20.56
26.27
32.2
36.87
39.18
38.83
36.25
32.34
27.96
23.51
18.87
13.64
7.56
0.77
-6.04
-11.93
-16.1
-18.16
-18.34
-17.31
-16.02
-15.35
-15.98
-18.16
-21.67
-25.79
-29.46
-31.5
-31.01
-27.7
-22.05
-15.11
-8.24
-2.56
1.29
3.21
3.43
2.38
0.43
-2.09
-4.84
-7.51
-9.86
-11.76
-13.37
-15.1
-17.55
-21.27
-26.52
-33.1
-40.28
-46.98
-52.09
-54.84
-55.1
-53.3
-50.14
-46.24
-41.87
-36.88
-30.96
-23.84
-15.56
-6.49
2.71
11.2
18.09
22.58
24.05
22.35
17.91
11.86
5.89
1.74
0.7
3.18
8.64
15.85
23.47
30.45
36.3
40.86
44.11
45.85
45.69
43.34
38.83
32.83
26.47
21.05
17.61
16.64
17.99
21.03
24.89
28.75
31.95
34.06
34.88
34.44
32.93
30.75
28.37
26.31
24.89
24.22
24.13
24.24
24.09
23.17
20.96
16.92
10.59
1.83
-8.95
-20.76
-32.22
-42.0
-49.34
-54.17
-57.0
-58.43
-58.73
-57.7
-54.86
-49.86
-42.77
-34.17
-24.91
-15.87
-7.7
-0.82
4.52
8.17
10.09
10.37
9.35
7.55
5.68
4.4
4.22
5.33
7.62
10.72
14.18
17.61
20.8
23.66
26.08
27.81
28.55
28.02
26.26
23.66
20.78
18.15
15.92
13.91
11.66
8.73
4.86
0.1
-5.24
-10.72
-15.86
-20.27
-23.78
-26.45
-28.5
-30.16
-31.44
-32.09
-31.59
-29.47
-25.65
-20.53
-14.93
-9.76
-5.65
-2.73
-0.73
0.8
2.16
3.39
4.28
4.63
4.41
3.88
3.49
3.67
4.6
6.17
8.0
9.67
10.87
11.49
11.58
11.26
10.65
9.82
8.87
7.9
7.01
6.2
5.36
4.33
2.93
1.12
-1.05
-3.39
-5.71
-7.89
-9.91
-11.84
-13.82
-15.98
-18.42
-21.18
-24.21
-27.31
-30.08
-31.95
-32.29
-30.63
-26.89
-21.45
-15.04
-8.56
-2.75
1.99
5.61
8.28
10.19
11.46
12.1
12.15
11.79
11.31
11.08
11.4
12.34
13.74
15.27
16.57
17.32
17.38
16.79
15.7
14.34
12.93
11.6
10.41
9.29
8.1
6.69
4.94
2.84
0.46
-2.08
-4.66
-7.19
-9.6
-11.86
-13.92
-15.81
-17.65
-19.69
-22.16
-25.14
-28.36
-31.15
-32.62
-31.96
-28.79
-23.35
-16.44
-9.11
-2.29
3.45
8.0
11.49
14.15
16.09
17.32
17.84
17.75
17.37
17.07
17.19
17.85
18.95
20.16
21.18
21.78
21.92
21.65
21.09
20.31
19.3
17.99
16.33
14.27
11.87
9.21
6.37
3.42
0.41
-2.61
-5.53
-8.22
-10.59
-12.63
-14.45
-16.29
-18.43
-21.09
-24.32
-27.94
-31.44
-34.11
-35.15
-34.0
-30.52
-25.12
-18.61
-11.96
-5.9
-0.8
3.37
6.85
9.78
12.14
13.82
14.76
15.08
15.11
15.24
15.75
16.65
17.74
18.71
19.27
19.3
18.84
18.03
17.02
15.91
14.76
13.59
12.39
11.14
9.73
8.08
6.11
3.78
1.15
-1.68
-4.5
-7.11
-9.36
-11.26
-12.95
-14.75
-17.01
-19.98
-23.64
-27.57
-31.05
-33.21
-33.35
-31.14
-26.78
-20.84
-14.18
-7.55
-1.53
3.58
7.72
10.87
13.02
14.17
14.38
13.95
13.3
12.98
13.37
14.54
16.24
17.96
19.23
19.79
19.65
19.03
18.21
17.34
16.45
15.46
14.24
12.71
10.84
8.6
6.06
3.29
0.44
-2.31
-4.78
-6.89
-8.66
-10.25
-11.87
-13.78
-16.19
-19.22
-22.78
-26.55
-29.96
-32.28
-32.77
-30.97
-26.86
-20.95
-14.15
-7.47
-1.68
2.87
6.22
8.64
10.38
11.57
12.23
12.39
12.26
12.12
12.32
13.04
14.21
15.6
16.84
17.62
17.76
17.26
16.27
15.04
13.79
12.63
11.52
10.26
8.65
6.56
4.06
1.38
-1.22
-3.55
-5.58
-7.44
-9.28
-11.22
-13.31
-15.59
-18.16
-21.11
-24.46
-28.0
-31.17
-33.23
-33.46
-31.43
-27.15
-21.12
-14.13
-7.03
-0.54
4.82
8.8
11.38
12.71
13.13
13.04
12.86
12.91
13.31
14.03
14.88
15.63
16.1
16.18
15.88
15.27
14.43
13.45
12.34
11.1
9.66
7.97
5.95
3.53
0.76
-2.2
-4.99
-7.16
-8.27
-8.09
-6.77
-4.79
-2.82
-1.4
-0.77
-0.81
-1.2
-1.68
-2.17
-2.73
-3.42
-4.2
-4.92
-5.52
-6.05
-6.64
-7.26
-7.58
-7.07
-5.27
-2.09
2.14
6.89
11.78
16.79
22.14
27.96
33.89
39.16
42.79
44.0
42.44
38.24
31.96
24.45
16.76
9.93
4.76
1.58
0.21
0.11
0.78
1.95
3.6
5.77
8.21
10.42
11.76
11.8
10.42
7.69
3.7
-1.63
-8.38
-16.4
-25.16
-33.88
-41.71
-47.94
-52.03
-53.42
-51.6
-46.25
-37.54
-26.37
-14.18
-2.55
7.31
14.91
20.21
23.27
23.99
22.15
17.87
11.93
5.83
1.29
-0.26
1.66
6.57
13.21
19.86
24.79
26.55
24.25
17.9
8.56
-1.9
-11.32
-18.04
-21.59
-22.71
-22.92
-23.75
