2013-03-08 13:11:07
64.0
-0.0
-0.0
-0.0
-0.0
-0.0
-0.0
-0.0
-0.0
-0.0
-0.0
0.0
0.01
0.01
-0.0
-0.03
-0.05
-0.05
0.0
0.13
0.36
0.66
1.01
1.37
1.72
2.06
2.4
2.79
3.24
3.8
4.42
5.06
5.66
6.2
6.68
7.15
7.68
8.31
9.14
10.09
11.04
11.88
12.56
13.14
13.76
14.65
15.96
17.91
20.32
22.9
25.38
27.58
29.57
31.68
34.32
37.81
42.54
48.15
54.1
59.83
64.97
69.58
74.14
79.34
85.71
93.76
103.0
112.62
121.73
129.77
136.75
143.3
150.75
157.77
166.64
177.95
191.79
206.97
220.57
228.25
225.36
208.53
176.87
132.76
80.05
23.07
-34.94
-92.44
-149.16
-205.23
-260.37
-313.74
-363.87
-409.83
-450.91
-486.5
-515.74
-537.23
-549.22
-549.96
-538.37
-514.21
-478.67
-433.88
-382.45
-327.02
-269.84
-212.63
-156.66
-102.95
-52.37
-5.9
35.58
71.43
101.35
125.5
144.38
158.69
169.15
176.37
180.75
182.58
182.07
179.51
175.23
169.65
163.17
156.15
148.82
141.33
133.72
126.03
118.29
110.57
102.96
95.53
88.37
81.5
74.94
68.66
62.65
56.91
51.44
46.28
41.45
36.98
32.87
29.08
25.57
22.28
19.17
16.26
13.57
11.17
9.13
7.45
6.06
4.86
3.69
2.47
1.2
-0.03
-1.07
-1.77
-2.1
-2.19
-2.27
-2.61
-3.36
-4.51
-5.81
-6.93
-7.57
-7.63
-7.28
-6.96
-7.09
-8.0
-9.62
-11.59
-13.35
-14.45
-14.69
-14.27
-13.65
-13.38
-13.92
-15.55
-18.35
-22.02
-25.76
-28.19
-27.7
-23.05
-14.14
-2.27
10.14
20.5
27.07
29.55
29.0
27.07
25.14
23.76
22.69
21.28
19.07
16.01
12.55
9.41
7.34
6.93
8.41
11.52
15.65
19.92
23.46
25.58
25.93
24.47
21.43
17.28
12.67
8.43
5.42
4.29
5.32
8.3
12.55
17.13
21.11
23.81
25.03
24.93
23.87
22.27
20.33
18.09
15.38
12.19
8.42
4.24
-0.07
-4.25
-8.1
-11.55
-14.53
-16.97
-18.76
-19.92
-20.55
-20.91
-21.31
-21.9
-22.67
-23.39
-23.74
-23.41
-22.15
-19.84
-16.45
-12.2
-7.47
-2.87
1.0
3.69
5.07
5.33
4.83
3.88
2.58
0.89
-1.3
-3.94
-6.77
-9.41
-11.46
-12.62
-12.83
-12.19
-10.9
-9.18
-7.25
-5.28
-3.49
-2.11
-1.41
-1.62
-2.85
-4.96
-7.56
-10.15
-12.16
-13.24
-13.36
-12.8
-12.08
-11.77
-12.33
-13.95
-16.59
-19.84
-23.06
-25.22
-25.3
-22.55
-16.78
-8.5
1.24
11.11
19.93
26.92
31.74
34.36
34.92
33.65
30.92
27.23
23.23
19.56
16.7
14.83
13.85
13.46
13.31
13.1
12.63
11.71
10.17
7.9
4.84
1.02
-3.42
-8.24
-13.11
-17.6
-21.25
-23.65
-24.59
-24.21
-22.98
-21.65
-21.05
-21.93
-24.74
-29.5
-35.72
-42.29
-47.75
-50.52
-49.39
-43.95
-34.74
-23.1
-10.72
0.89
10.78
18.58
24.33
28.24
30.45
31.09
30.32
28.43
25.82
22.95
20.26
18.07
16.53
15.67
15.32
15.25
15.15
14.77
13.98
12.79
11.33
9.72
8.02
6.21
4.24
2.16
0.17
-1.41
-2.33
-2.65
-2.81
-3.55
-5.6
-9.36
-14.66
-20.81
-26.76
-31.44
-33.92
-33.51
-29.75
-22.56
-12.35
-0.07
12.85
24.84
34.68
41.81
46.4
49.09
50.52
51.02
50.61
49.06
46.19
42.01
36.65
30.42
23.76
17.24
11.57
7.55
5.75
6.33
8.85
12.31
15.46
17.07
16.31
12.94
7.26
0.08
-7.6
-14.75
-20.6
-24.79
-27.42
-29.0
-30.37
-32.41
-35.82
-40.79
-46.78
-52.47
-56.06
-55.75
-50.48
-40.37
-26.76
-11.77
2.47
14.46
23.6
30.02
34.19
36.54
37.37
36.99
35.82
34.39
33.15
32.3
31.69
30.96
29.76
27.97
25.78
23.54
21.58
20.04
18.76
17.36
15.39
12.41
8.18
2.76
-3.54
-10.17
-16.45
-21.76
-25.67
-27.98
-28.85
-28.73
-28.35
-28.58
-30.14
-33.42
-38.25
-43.83
-48.86
-51.86
-51.52
-47.03
-38.33
-26.16
-11.9
2.75
16.25
27.57
36.41
43.06
48.07
51.89
54.7
56.37
56.59
55.06
51.52
45.81
37.93
28.21
17.38
6.64
-2.69
-9.55
-13.55
-15.05
-14.93
-14.26
-13.84
-14.16
-15.38
-17.52
-20.52
-24.21
-28.23
-32.04
-35.08
-36.94
-37.57
-37.33
-36.89
-37.09
-38.72
-42.23
-47.62
-54.26
-60.92
-65.98
-67.79
-65.09
-57.4
-45.16
-29.58
-12.26
5.17
21.37
35.38
46.63
54.84
59.94
62.05
61.53
58.88
54.71
49.67
44.36
39.24
34.58
30.43
26.77
23.5
20.63
18.34
16.85
16.35
16.76
17.69
18.53
18.6
17.47
15.02
11.46
7.26
2.92
-1.17
-4.78
-7.91
-10.75
-13.63
-16.88
-20.8
-25.58
-31.2
-37.34
-43.22
-47.71
-49.45
-47.32
-40.85
-30.51
-17.65
-4.1
8.45
18.88
26.81
32.4
36.05
38.12
38.83
38.37
37.02
35.19
33.3
31.7
30.47
29.47
28.43
27.14
25.58
23.94
22.49
21.47
20.96
20.9
21.16
21.55
21.86
21.79
20.92
18.75
14.94
9.46
2.73
-4.48
-11.37
-17.37
-22.34
-26.51
-30.36
-34.32
-38.62
-43.22
-47.78
-51.72
-54.22
-54.43
-51.7
-45.87
-37.36
-27.21
-16.74
-7.13
0.9
7.14
11.74
14.92
16.79
17.32
16.49
14.51
11.85
9.12
6.91
5.58
5.24
5.78
6.98
8.54
10.16
11.52
12.35
12.48
11.9
10.75
9.22
7.43
5.41
3.04
0.21
-3.1
-6.78
-10.5
-13.91
-16.7
-18.8
-20.38
-21.88
-23.85
-26.73
-30.69
-35.45
-40.37
-44.56
-47.14
-47.41
-44.95
-39.71
-31.91
-22.05
-10.84
0.84
12.01
21.75
29.35
34.41
36.91
37.11
35.52
32.69
29.17
25.4
21.73
18.35
15.32
12.59
10.1
7.79
5.69
3.84
2.24
0.8
-0.68
-2.45
-4.63
-7.2
-9.98
-12.75
-15.36
-17.83
-20.29
-22.88
-25.62
-28.41
-31.17
-33.88
-36.62
-39.41
-41.98
-43.77
-44.0
-42.05
-37.76
-31.55
-24.3
-16.99
-10.37
-4.84
-0.48
2.62
4.33
4.47
3.02
0.33
-2.9
-5.82
-7.79
-8.55
-8.27
-7.36
-6.2
-4.99
-3.72
-2.27
-0.52
1.55
3.92
6.41
8.72
10.37
10.79
9.47
6.1
0.72
-6.43
-15.02
-24.68
-35.01
-45.41
-55.01
-62.66
-67.11
-67.28
-62.5
-52.65
-38.28
-20.48
-0.67
19.75
39.91
59.69
79.67
100.65
122.95
145.81
167.39
185.2
197.02
201.66
199.29
191.21
179.32
165.47
151.1
137.16
124.25
112.82
103.31
96.16
91.66
89.72
89.77
90.7
91.12
89.61
85.1
77.01
65.37
50.61
33.47
14.86
-4.13
-22.28
-38.49
-52.04
-62.86
-71.62
-79.33
-86.8
-94.21
-101.1
-106.7
-110.56
-112.93
-114.64
-116.57
-118.94
-120.83
-120.3
-115.0
-103.11
-84.1
-59.16
-31.04
-3.38
20.19
37.0
46.12
48.48
46.55
43.44
41.88
43.36
47.87
54.15
60.38
64.96
66.95
66.23
63.18
58.45
52.66
46.39
40.23
34.78
30.55
27.74
26.09
24.9
23.26
20.35
15.72
9.41
1.89
-6.11
-13.87
-20.84
-26.74
-31.53
-35.38
-38.53
-41.2
-43.53
-45.52
-47.12
-48.31
-49.22
-50.07
-51.2
-52.85
-55.05
-57.51
-59.72
-61.1
-61.28
-60.27
-58.48
-56.52
-54.88
-53.78
-53.08
-52.45
-51.66
-50.72
-49.89
-49.48
-49.65
-50.27
-50.96
-51.24
-50.7
-49.11
-46.37
-42.5
-37.54
-31.58
-24.69
-16.88
-8.18
1.43
11.95
23.28
35.29
47.77
60.48
73.12
85.32
96.57
106.24
113.61
118.05
119.19
116.94
111.56
103.59
93.74
82.86
71.78
61.06
50.79
40.31
28.24
12.7
-7.88
-33.99
-64.44
-96.38
-126.02
-149.79
-165.33
-172.05
-171.01
-164.33
-154.47
-143.63
-133.39
-124.62
-117.45
-111.5
-106.18
-101.11
-96.28
-91.99
-88.54
-85.78
-83.09
-79.57
-74.51
-67.7
-59.29
-49.5
-38.26
-25.3
-10.49
5.72
22.15
37.27
49.73
58.93
65.16
69.29
72.35
75.09
77.78
80.42
82.9
85.2
87.38
89.44
91.22
92.4
92.66
91.89
90.42
89.05
88.9
90.95
95.54
101.82
107.73
110.35
106.83
95.35
75.84
50.06
21.06
-7.78
-33.79
-55.43
-72.36
-84.9
-93.56
-98.67
-100.36
-98.76
-94.26
-87.57
-79.54
-70.98
-62.32
-53.56
-44.37
-34.4
-23.6
-12.39
-1.65
7.53
14.16
17.75
18.4
16.81
14.03
11.21
9.26
8.7
9.56
11.38
13.41
14.79
14.9
13.49
10.74
7.12
3.24
-0.38
-3.3
-5.15
-5.54
-3.96
0.19
7.54
18.6
33.56
51.82
71.74
90.54
104.71
110.86
106.72
91.87
67.87
37.73
5.06
-26.84
-55.39
-78.91
-96.57
-108.24
-114.48
-116.46
-115.61
-113.28
-110.32
-106.92
-102.75
-97.28
-90.1
-81.2
-70.96
-60.07
-49.34
-39.53
-31.2
-24.63
-19.81
-16.55
-14.55
-13.51
-13.14
-13.14
-13.18
-13.0
-12.45
-11.63
-10.84
-10.54
-11.13
-12.8
-15.45
-18.74
-22.29
-25.79
-29.12
-32.25
-35.3
-38.37
-41.65
-45.23
-49.07
-52.82
-55.72
-56.66
-54.41
-48.02
-37.16
-22.34
-4.87
13.5
30.95
45.98
57.57
65.29
69.14
69.52
67.07
62.63
57.12
51.38
46.03
41.35
37.28
33.56
29.87
26.13
22.5
19.36
17.06
15.75
15.31
15.49
16.1
17.17
18.89
21.39
24.51
27.69
30.09
30.81
29.25
25.13
18.57
10.0
0.1
-10.16
-19.65
-27.2
-31.94
-33.5
-32.16
-28.68
-23.99
-18.93
-14.09
-9.78
-6.14
-3.2
-0.92
0.84
2.19
3.18
3.71
3.58
2.53
0.48
-2.39
-5.6
-8.46
-10.3
-10.68
-9.56
-7.31
-4.67
-2.56
-1.76
-2.71
-5.39
-9.4
-14.16
-19.14
-24.12
-29.13
-34.37
-40.03
-46.13
-52.41
-58.33
-63.08
-65.69
-65.26
-61.18
-53.39
-42.48
-29.64
-16.31
-3.88
6.67
14.91
20.76
24.41
26.04
25.77
23.73
20.06
15.11
9.34
3.37
-2.23
-6.97
-10.57
-13.0
-14.36
-14.82
-14.51
-13.51
-11.9
-9.8
-7.47
-5.24
-3.43
-2.22
-1.69
-1.87
-2.85
-4.9
-8.3
-13.1
-18.94
-24.87
-29.58
-31.77
-30.55
-25.71
-17.66
-7.31
4.31
16.18
27.43
37.35
45.4
51.27
54.87
56.4
56.23
54.87
52.87
50.72
48.79
47.3
46.4
46.03
46.04
46.23
46.43
46.55
46.5
46.07
44.92
42.79
39.52
35.15
29.93
24.2
18.3
12.41
6.43
0.11
-6.78
-14.48
-23.24
-33.17
-43.91
-54.48
-63.28
-68.52
-68.73
-62.92
-51.35
-35.64
-18.28
-1.67
12.64
24.16
33.07
39.78
45.51
51.06
56.37
60.68
63.3
64.21
63.98
63.22
62.39
63.07
66.28
71.71
77.7
82.4
84.75
84.83
83.6
82.69
85.88
96.29
114.68
138.95
165.44
190.5
211.16
225.31
220.02
188.38
134.49
72.61
17.31
-23.85
-50.38
-65.61
-73.81
-78.43
-79.59
-76.33
-68.3
-56.74
-43.75
-31.31
-21.04
-14.23
-11.71
-11.93
-12.96
-13.41
-12.97
-11.75
-9.71
-6.64
-2.39
3.13
10.59
20.22
31.19
41.53
48.93
51.54
48.36
38.86
24.53
6.91
-12.76
-33.8
-55.93
-78.8
-101.55
-122.93
-141.63
-156.68
-167.67
-174.78
-178.63
-180.23
-180.76
-181.25
-182.43
-184.44
-186.61
-187.7
-185.95
-179.57
-167.38
-149.2
-125.99
-99.62
-72.38
-46.38
-23.32
-4.12
11.03
22.43
30.67
36.46
40.42
43.19
45.32
47.27
49.47
52.2
55.59
59.54
63.74
67.72
71.02
73.21
74.03
73.4
71.41
68.27
64.27
59.67
54.67
49.36
43.72
37.65
31.02
23.69
15.58
6.68
-2.92
-13.19
-24.12
-35.82
-48.26
-61.07
-73.22
-83.06
-88.61
-88.18
-81.05
-67.81
-50.3
-31.03
-12.38
3.96
17.3
27.72
35.68
41.63
45.8
48.19
48.77
47.65
45.21
42.04
38.77
35.86
33.47
31.45
29.46
27.18
24.43
21.24
17.82
14.44
11.38
8.87
7.08
6.18
6.23
7.21
8.98
11.31
13.81
16.01
17.35
17.27
15.25
10.94
4.14
-5.04
-16.16
-28.39
-40.45
-50.8
-57.93
-60.75
-58.9
-52.79
-43.39
-31.8
-18.88
-5.19
8.87
22.74
35.59
46.39
54.28
58.93
60.65
60.25
58.63
56.51
54.23
51.86
49.41
46.98
44.88
43.43
42.87
43.22
44.24
45.52
46.55
46.86
46.04
43.81
40.03
34.76
28.24
20.89
13.19
5.62
-1.5
-8.12
-14.45
-20.93
-27.94
-35.49
-42.94
-49.03
-52.19
-51.1
-45.21
-35.05
-22.05
-8.07
5.18
16.57
25.63
32.39
37.08
39.82
40.72
39.88
37.66
34.71
31.85
29.85
29.08
29.44
30.32
30.93
30.61
29.04
26.35
22.89
19.04
15.0
10.71
5.99
0.62
-5.57
-12.67
-20.68
-29.48
-38.78
-48.1
-56.84
-64.4
-70.41
-74.93
-78.43
-81.62
-85.09
-88.88
-92.3
-93.93
-92.09
-85.36
-73.18
-56.12
-35.76
-14.28
6.15
23.81
37.71
47.63
53.83
56.9
57.52
56.35
53.96
50.81
47.19
43.19
38.72
33.58
27.57
20.64
13.05
5.28
-1.96
-8.03
-12.51
-15.37
-17.0
-18.02
-19.06
-20.45
-22.12
-23.68
-24.73
-25.12
-25.09
-25.27
-26.39
-29.09
-33.7
-40.15
-47.95
-56.1
-63.16
-67.35
-67.08
-61.28
-50.06
-34.69
-17.28
-0.21
14.71
26.72
36.18
44.23
52.21
61.0
70.85
81.42
92.16
102.61
112.53
121.77
130.04
136.81
141.43
143.37
142.53
139.22
134.05
127.57
120.09
111.69
102.4
92.32
81.72
70.95
60.24
49.79
39.67
29.98
20.87
12.49
4.95
-1.76
-7.77
-13.29
-18.59
-23.93
-29.63
-35.99
-43.19
-51.09
-59.08
-66.11
-70.91
-72.39
-70.04
-64.15
-55.7
-46.02
-36.33
-27.45
-19.71
-13.14
-7.71
-3.57
-0.94
-0.0
-0.56
-2.0
-3.47
-4.2
-3.86
-2.76
-1.71
-1.62
-3.11
-6.21
-10.43
-14.95
-18.97
-21.97
-23.84
-24.78
-25.24
-25.7
-26.5
-27.81
-29.54
-31.51
-33.48
-35.41
-37.43
-39.89
-43.17
-47.59
-53.18
-59.55
-65.81
-70.66
-72.7
-70.8
-64.52
-54.37
-41.67
-28.2
-15.6
-4.9
3.63
10.36
15.92
20.77
25.02
28.47
30.71
31.53
31.0
29.57
28.0
27.13
27.68
30.06
34.23
39.78
46.03
52.26
57.85
62.24
64.96
65.5
63.41
58.38
50.52
40.41
29.06
17.66
7.23
-1.68
-9.05
-15.34
-21.2
-27.26
-33.94
-41.46
-49.75
-58.41
-66.64
-73.26
-76.85
-76.17
-70.66
-60.72
-47.73
-33.63
-20.33
-9.23
-0.92
4.64
7.77
8.92
8.47
6.89
4.77
2.8
1.57
1.38
2.14
3.44
4.82
6.0
6.97
7.93
9.06
10.36
11.54
12.15
11.7
10.0
7.17
3.71
0.31
-2.41
-4.11
-4.87
-5.12
-5.58
-7.0
-10.01
-14.9
-21.51
-29.15
-36.51
-41.99
-44.0
-41.52
-34.49
-23.79
-11.0
2.15
14.29
24.62
32.79
38.68
42.2
43.33
42.24
39.44
35.67
31.72
28.14
25.06
22.28
19.45
16.36
13.05
9.84
7.19
5.48
4.82
4.93
5.28
5.2
4.21
2.22
-0.41
-3.13
-5.44
-7.14
-8.38
-9.57
-11.16
-13.46
-16.59
-20.43
-24.53
-28.17
-30.35
-29.96
-26.2
-18.88
-8.59
3.38
15.48
26.34
35.01
41.02
44.25
44.72
42.57
38.16
32.17
25.58
19.44
14.49
10.9
8.26
5.8
2.91
-0.63
-4.48
-8.03
-10.75
-12.48
-13.52
-14.39
-15.56
-17.16
-19.1
-21.14
-23.2
-25.42
-28.11
-31.66
-36.31
-42.08
-48.62
-55.24
-60.9
-64.44
-64.82
-61.5
-54.59
-44.88
-33.56
-21.84
-10.71
-0.76
7.74
14.69
20.01
23.69
25.76
26.36
25.79
24.41
22.64
20.87
19.47
18.66
18.5
18.85
19.39
19.69
19.37
18.2
16.18
13.51
10.55
7.61
4.9
2.41
-0.09
-2.99
-6.7
-11.53
-17.58
-24.62
-32.03
-38.9
-44.15
-46.81
-46.32
-42.77
-36.92
-30.03
-23.5
-18.49
-15.58
-14.82
-15.73
-17.6
-19.69
-21.34
-22.14
-21.9
-20.73
-18.91
-16.87
-15.03
-13.75
-13.28
-13.65
-14.55
-15.17
-14.15
-9.85
-0.95
12.89
30.61
49.9
68.01
82.64
92.77
98.7
101.54
102.44
102.12
100.81
98.63
95.92
93.3
91.36
90.31
89.85
89.44
88.69
87.71
86.95
86.95
87.84
89.29
90.59
90.95
89.68
86.24
80.05
70.62
57.77
41.89
24.08
5.87
-11.31
-26.53
-39.5
-50.3
-58.95
-65.13
-68.28
-67.98
-64.35
-58.3
-51.33
-45.21
-41.32
-40.3
-41.81
-44.65
-47.12
-47.53
-44.79
-38.67
-29.75
-19.08
-7.78
3.32
13.65
22.88
30.84
37.62
43.72
50.05
57.73
67.57
79.57
92.68
105.09
114.8
120.37
121.37
118.34
112.39
104.67
95.9
86.25
75.51
63.25
48.95
32.13
12.41
-10.16
-34.96
-60.79
-86.35
-110.99
-135.15
-160.08
-186.73
-214.45
-240.31
-259.74
-268.25
-263.36
-245.71
-218.64
-186.8
-154.39
-124.28
-98.04
-76.78
-61.69
-54.1
-54.72
-62.72
-75.23
-87.92
-96.2
-96.8
-88.73
-73.46
-54.13
-34.15
-16.2
-1.56
9.68
18.0
23.81
27.16
27.88
25.95
21.81
16.39
10.93
6.54
3.83
2.72
2.48
2.05
0.56
-2.4
-6.53
-11.11
-15.25
-18.37
-20.35
-21.48
-22.18
-22.71
-23.05
-23.04
-22.69
-22.36
-22.82
-24.99
-29.49
-36.4
-45.1
-54.45
-63.1
-69.68
-72.93
-71.9
-66.03
-55.42
-40.94
-24.12
-6.76
9.64
24.36
37.49
49.73
61.77
73.89
85.65
96.09
104.09
108.8
110.04
108.36
104.85
100.71
96.8
93.3
89.8
85.6
80.2
73.62
66.31
58.75
51.08
42.91
33.54
22.42
9.36
-5.47
-21.84
-39.63
-58.6
-77.9
-95.75
-109.65
-117.21
-117.12
-109.76
-96.93
-81.13
-64.45
-48.09
-32.39
-17.26
-2.64
11.37
24.63
37.2
49.36
61.43
73.53
85.44
96.7
106.9
115.83
123.66
130.81
137.76
144.95
152.66
161.04
169.94
178.64
185.65
188.63
184.79
171.57
147.35
111.65
64.81
7.63
-58.62
-131.33
-205.64
-274.23
-328.56
-361.48
-369.82
-355.7
-325.72
-288.36
-251.05
-218.26
-191.3
-169.43
-151.34
-135.92
-122.42
-110.05
-97.81
-84.78
-70.49
-55.29
-40.1
-26.2
-14.59
-5.73
0.53
4.8
7.92
10.76
14.07
18.37
23.83
30.25
37.16
43.97
50.13
55.37
59.62
62.96
65.44
66.91
67.1
65.6
62.06
56.32
48.57
39.37
29.64
20.48
12.81
7.12
3.26
0.5
-2.21
-5.88
-11.24
-18.56
-27.63
-37.82
-47.99
-56.65
-62.1
-62.89
-58.17
-48.11
-33.88
-17.34
-0.59
14.66
27.47
37.78
46.2
53.51
60.28
66.57
72.01
76.02
78.21
78.62
77.72
76.14
74.44
72.83
71.26
69.55
67.63
65.66
63.91
62.67
62.01
61.69
61.19
59.82
57.01
52.54
46.69
40.09
33.49
27.4
21.92
16.71
11.21
4.9
-2.52
-11.01
-20.17
-29.19
-36.83
-41.52
-41.75
-36.58
-26.13
-11.66
4.74
20.83
34.9
46.17
54.68
61.02
65.83
69.56
72.38
74.26
75.1
74.72
73.05
70.16
66.37
62.21
58.27
55.02
52.61
50.84
49.27
47.42
44.91
41.59
37.49
32.73
27.49
21.91
16.11
10.17
4.2
-1.69
-7.31
-12.54
-17.32
-21.68
-25.83
-29.99
-34.5
-39.72
-45.97
-53.45
-61.94
-70.58
-77.81
-81.69
-80.43
-73.08
-59.92
-42.43
-22.81
-3.22
14.76
30.29
43.16
53.43
61.11
66.01
67.81
66.29
61.53
54.1
45.0
35.53
26.97
20.25
15.76
13.33
12.47
12.56
13.06
13.56
13.73
13.35
12.3
10.64
8.65
6.66
4.91
3.41
1.94
0.15
-2.18
-5.08
-8.36
-11.69
-14.84
-17.68
-20.3
-22.91
-25.81
-29.27
-33.4
-37.87
-41.82
-43.83
-42.33
-36.01
-24.46
-8.42
10.23
29.06
45.68
58.41
66.59
70.52
71.13
69.52
66.66
63.2
59.49
55.77
52.25
49.17
46.65
44.66
42.88
40.82
38.01
34.24
29.58
24.38
18.99
13.55
7.96
1.97
-4.6
-11.66
-18.87
-25.73
-31.74
-36.6
-40.19
-42.58
-44.05
-45.06
-46.23
-48.27
-51.83
-57.23
-64.24
-72.04
-79.29
-84.4
-85.91
-82.86
-75.08
-63.23
-48.71
-33.27
-18.67
-6.31
2.97
8.96
11.88
12.24
10.6
7.4
2.93
-2.58
-8.84
-15.27
-21.07
-25.37
-27.52
-27.44
-25.58
-22.72
-19.62
-16.6
-13.55
-10.04
-5.67
-0.25
6.07
12.97
20.08
27.07
33.6
39.24
43.41
45.48
44.97
41.72
36.0
28.49
20.03
11.35
2.87
-5.31
-13.14
-20.35
-26.14
-29.38
-28.91
-24.11
-15.3
-3.79
8.46
19.49
27.91
33.15
35.42
35.44
34.0
31.72
28.97
25.81
22.18
17.95
13.03
7.51
1.63
-4.25
-9.79
-14.79
-19.29
-23.46
-27.38
-30.98
-33.99
-36.19
-37.55
-38.38
-39.17
-40.28
-41.67
-42.84
-43.07
-41.79
-38.84
-34.5
-29.36
-24.09
-19.28
-15.5
-13.31
-13.08
-14.84
-17.98
-21.27
-23.11
-22.12
-17.62
-9.94
-0.26
9.79
18.76
25.69
30.26
32.72
33.64
33.73
33.71
34.22
35.76
38.62
42.79
47.96
53.6
59.0
63.55
66.8
68.68
69.47
69.7
69.94
70.52
71.37
71.97
71.58
69.47
65.11
58.35
49.3
38.2
25.37
11.23
-3.64
-18.37
-32.03
-43.8
-53.28
-60.64
-66.48
-71.46
-75.88
-79.41
-81.2
-80.24
-75.9
-68.29
-58.29
-47.35
-37.01
-28.56
-22.73
-19.73
-19.27
-20.76
-23.34
-26.07
-27.96
-28.2
-26.34
-22.37
-16.76
-10.29
-3.78
2.1
6.96
10.71
13.47
15.44
16.87
17.97
19.0
20.18
21.68
23.5
25.43
27.09
28.12
28.29
27.62
26.42
25.07
23.94
23.15
22.64
22.14
21.33
19.9
17.68
14.63
11.01
7.37
4.52
3.35
4.57
8.42
14.6
22.24
30.19
37.15
41.95
43.6
41.46
35.27
25.33
12.6
-1.37
-14.7
-25.66
-33.13
-36.87
-37.51
-36.15
-34.02
-31.99
-30.52
-29.68
-29.38
-29.47
-29.75
-29.95
-29.67
-28.55
-26.47
-23.68
-20.81
-18.66
-17.81
-18.38
-20.03
-22.12
-24.09
-25.7
-27.11
-28.77
-31.07
-34.15
-37.66
-40.89
-42.95
-42.99
-40.45
-35.19
-27.56
-18.31
-8.5
0.74
8.44
13.96
17.17
18.36
18.13
17.14
15.98
14.98
14.32
14.0
14.03
14.35
14.91
15.61
16.27
16.7
16.74
16.33
15.51
14.41
13.13
11.66
9.9
7.61
4.61
0.86
-3.51
-8.2
-12.85
-17.18
-21.09
-24.67
-28.11
-31.66
-35.56
-39.98
-44.97
-50.37
-55.74
-60.28
-63.0
-62.91
-59.31
-52.08
-41.79
-29.55
-16.71
-4.49
6.28
15.27
22.54
28.28
32.72
36.0
38.22
39.56
40.28
40.67
40.97
41.28
41.53
41.53
41.11
40.22
38.92
37.41
35.93
34.64
33.59
32.63
31.45
29.65
26.94
23.26
18.93
14.55
10.85
8.44
7.61
8.31
10.18
12.71
15.34
17.61
19.23
20.14
20.54
20.85
21.6
23.16
25.61
28.62
31.55
33.69
34.54
33.89
31.88
28.82
25.05
20.77
16.06
10.95
5.47
-0.23
-5.85
-11.06
-15.61
-19.46
-22.88
-26.34
-30.32
-35.04
-40.3
-45.55
-50.05
-53.24
-54.96
-55.52
-55.44
-55.27
-55.28
-55.43
-55.48
-55.17
-54.4
-53.31
-52.28
-51.73
-52.02
-53.23
-55.1
-57.07
-58.37
-58.15
-55.66
-50.35
-41.94
-30.55
-16.73
-1.5
13.76
27.57
38.71
46.5
50.94
52.57
52.24
50.78
48.79
46.64
44.49
42.4
40.38
38.44
36.59
34.92
33.55
32.61
32.16
32.08
32.12
31.91
31.18
29.79
27.77
25.29
22.53
19.64
16.72
13.82
10.97
8.13
5.13
1.69
-2.55
-7.88
-14.34
-21.59
-28.93
-35.34
-39.74
-41.31
-39.65
-34.97
-27.95
-19.59
-10.92
-2.78
4.36
10.41
15.51
19.89
23.72
27.04
29.76
31.84
33.33
34.48
35.6
36.97
38.7
40.63
42.43
43.72
44.19
43.66
42.01
39.15
34.97
29.46
22.8
15.47
8.14
1.61
-3.55
-7.1
-9.19
-10.31
-11.09
-12.19
-14.17
-17.41
-22.06
-27.9
-34.33
-40.4
-44.95
-46.97
-45.79
-41.32
-34.03
-24.76
-14.52
-4.26
5.22
13.33
19.67
23.98
26.24
26.63
25.52
23.43
20.88
18.33
16.03
14.1
12.47
10.92
9.11
6.68
3.35
-0.88
-5.69
-10.46
-14.51
-17.35
-18.86
-19.36
-19.4
-19.46
-19.79
-20.31
-20.73
-20.79
-20.29
-19.17
-17.43
-15.0
-11.87
-8.22
-4.55
-1.73
-0.74
-2.31
-6.45
-12.27
-18.09
-21.89
-21.94
-17.47
-9.08
1.4
11.46
18.75
21.94
21.04
17.27
12.36
7.79
4.33
2.03
0.62
-0.05
0.19
1.7
4.58
8.47
12.54
15.79
17.45
17.32
15.75
13.41
10.98
8.77
6.7
4.35
1.25
-2.84
-7.72
-12.8
-17.3
-20.55
-22.34
-23.02
-23.34
-24.13
-26.03
-29.21
-33.45
-38.22
-42.86
-46.57
-48.51
-47.81
-43.84
-36.4
-25.92
-13.4
-0.17
12.54
23.85
33.33
40.85
46.41
49.96
51.44
50.87
48.45
44.56
39.69
34.3
28.71
23.06
17.32
11.37
5.22
-0.84
-6.13
-9.73
-10.85
-9.26
-5.63
-1.38
1.82
2.76
1.22
-1.95
-5.35
-7.75
-8.63
-8.38
-7.93
-8.31
-10.25
-14.12
-19.98
-27.64
-36.65
-46.09
-54.51
-60.2
-61.73
-58.48
-51.04
-41.08
-30.71
-21.71
-14.9
-9.98
-5.92
-1.61
3.5
9.18
14.61
18.91
21.71
23.31
24.52
26.14
28.51
31.3
33.72
34.94
34.45
32.18
28.44
23.6
18.07
12.25
6.65
1.84
-1.76
-4.19
-6.1
-8.54
-12.51
-18.36
-25.58
-32.98
-39.18
-43.31
-45.3
-45.75
-45.43
-44.78
-43.57
-41.09
-36.61
-29.8
-21.09
-11.49
-2.22
5.74
11.98
16.66
20.27
23.29
25.92
28.05
29.35
29.47
28.33
26.15
23.52
21.18
19.74
19.44
19.97
20.53
20.16
18.15
14.37
9.44
4.46
0.57
-1.55
-2.03
-1.75
-1.89
-3.37
-6.33
-10.04
-13.22
-14.67
-13.86
-11.18
-7.75
-5.01
-4.18
-5.88
-10.11
-16.19
-23.01
-29.14
-33.15
-33.9
-30.82
-24.13
-14.71
-3.9
6.95
16.7
24.61
30.32
33.79
35.2
34.89
33.36
31.12
28.65
26.25
24.03
21.97
19.94
17.87
15.71
13.49
11.28
9.18
7.25
5.54
4.07
2.72
1.31
-0.37
-2.49
-5.06
-7.9
-10.71
-13.27
-15.52
-17.77
-20.55
-24.44
-29.72
-36.09
-42.57
-47.63
-49.58
-47.13
-39.8
-28.12
-13.4
2.69
18.68
33.51
46.57
57.32
65.16
69.31
69.14
64.58
56.3
45.7
34.4
23.79
14.66
7.25
1.51
-2.63
-5.08
-5.79
-4.92
-3.03
-0.98
0.37
0.46
-0.78
-2.94
-5.39
-7.59
-9.31
-10.76
-12.51
-15.22
-19.41
-25.23
-32.31
-39.83
-46.7
-51.8
-54.21
-53.46
-49.54
-43.0
-34.83
-26.35
-18.86
-13.37
-10.31
-9.45
-9.99
-10.87
-11.05
-9.82
-6.98
-2.79
2.17
7.23
11.86
15.78
19.01
21.78
24.36
26.92
29.33
31.15
31.75
30.43
26.73
20.68
12.89
4.41
-3.6
-10.28
-15.35
-19.21
-22.61
-26.34
-30.73
-35.49
-39.76
-42.3
-41.95
-37.95
-30.27
-19.66
-7.45
4.74
15.48
23.79
29.28
32.02
32.39
30.88
28.01
24.32
20.38
16.71
13.66
11.32
9.43
7.63
5.53
3.02
0.26
-2.39
-4.56
-6.1
-7.15
-8.11
-9.44
-11.4
-13.83
-16.2
-17.67
-17.51
-15.37
-11.45
-6.53
-1.76
1.57
2.36
-0.07
-5.74
-13.77
-22.5
-29.72
-33.27
-31.74
-25.04
-14.43
-2.13
9.49
18.68
24.74
27.91
28.97
28.69
27.52
25.61
22.99
19.76
16.3
13.1
10.66
9.25
8.88
9.34
10.38
11.84
13.66
15.78
17.94
19.58
19.88
18.12
13.97
7.72
0.22
-7.47
-14.53
-20.7
-26.29
-31.98
-38.44
-46.04
-54.71
-63.79
-72.13
-78.22
-80.48
-77.67
-69.32
-55.99
-39.18
-20.92
-3.2
12.47
25.34
35.38
42.99
48.74
53.12
56.46
58.86
60.28
60.59
59.72
57.67
54.54
50.46
45.47
39.63
33.05
26.09
19.39
13.74
9.77
7.69
7.12
7.25
7.18
6.27
4.33
1.64
-1.34
-4.23
-6.88
-9.39
-12.05
-15.24
-19.28
-24.39
-30.54
-37.4
-44.2
-49.81
-52.95
-52.57
-48.21
-40.23
-29.77
-18.43
-7.81
0.86
6.98
10.51
11.79
11.22
9.11
5.74
1.4
-3.33
-7.65
-10.65
-11.6
-10.23
-6.81
-1.99
3.52
9.27
15.12
21.14
27.32
33.3
38.43
41.95
43.28
42.32
39.37
34.95
29.59
23.64
17.27
10.61
3.81
-2.99
-9.68
-16.29
-22.8
-29.0
-34.19
-37.25
-36.91
-32.26
-23.28
-10.96
2.89
16.22
27.34
35.34
40.17
42.35
42.65
41.72
39.95
37.41
33.98
29.56
24.21
18.3
12.46
7.46
3.92
2.13
1.92
2.73
3.81
4.53
4.51
3.66
2.07
-0.09
-2.64
-5.48
-8.56
-11.86
-15.43
-19.35
-23.7
-28.58
-34.03
-39.87
-45.73
-51.01
-55.11
-57.58
-58.41
-57.98
-56.9
-55.63
-54.07
-51.56
-47.01
-39.5
-28.71
-15.15
-0.04
15.19
29.29
41.48
51.38
58.82
63.58
65.41
64.16
60.05
53.73
46.28
38.82
32.26
27.0
22.92
19.57
16.48
13.35
10.14
6.96
3.91
0.91
-2.28
-5.98
-10.31
-15.16
-20.11
-24.64
-28.35
-31.15
-33.34
-35.42
-37.92
-41.17
-45.16
-49.56
-53.77
-57.02
-58.45
-57.27
-52.89
-45.14
-34.42
-21.74
-8.5
3.81
14.02
21.58
26.59
29.69
31.74
33.52
35.48
37.69
39.93
41.84
43.1
43.46
42.8
41.11
38.47
35.06
31.16
27.12
23.26
19.8
16.76
13.93
10.94
7.48
3.34
-1.45
-6.69
-12.12
-17.51
-22.82
-28.14
-33.67
-39.53
-45.67
-51.75
-57.14
-61.05
-62.65
-61.34
-56.84
-49.37
-39.59
-28.51
-17.33
-7.15
1.19
7.27
11.07
12.85
13.0
11.9
9.85
7.1
3.94
0.65
-2.52
-5.45
-8.22
-11.02
-13.98
-17.03
-19.88
-22.09
-23.33
-23.6
-23.18
-22.62
-22.47
-23.06
-24.35
-25.99
-27.41
-28.1
-27.81
-26.67
-25.18
-24.01
-23.74
-24.55
-26.07
-27.4
-27.43
-25.12
-19.88
-11.77
-1.45
9.98
21.26
31.35
39.58
45.68
49.71
51.95
52.7
52.27
50.96
49.06
46.82
44.4
41.9
39.37
36.86
34.46
32.3
30.49
28.97
27.58
26.03
24.06
21.48
18.28
14.53
10.38
5.93
1.27
-3.49
-8.14
-12.42
-16.08
-18.99
-21.21
-22.84
-23.88
-24.1
-22.96
-19.81
-14.17
-6.02
4.01
14.73
24.68
32.53
37.48
39.4
38.78
36.46
33.3
29.92
26.64
23.62
21.07
19.31
18.76
19.76
22.34
26.19
30.76
35.48
40.0
44.27
48.44
52.7
57.1
61.43
65.22
67.8
68.42
66.41
61.41
53.47
43.1
31.17
18.53
5.82
-6.75
-19.32
-32.05
-44.81
-57.0
-67.55
-75.28
-79.26
-79.11
-75.18
-68.41
-60.11
-51.62
-44.05
-37.99
-33.5
-30.2
-27.5
-24.89
-22.12
-19.25
-16.42
-13.65
-10.64
-6.8
-1.5
5.56
14.21
23.8
33.47
42.43
50.32
57.14
63.1
68.35
72.73
75.8
77.03
75.99
72.66
67.37
60.66
53.07
44.96
36.52
27.88
19.19
10.73
2.73
-4.75
-11.77
-18.4
-24.38
-29.04
-31.4
-30.67
-26.69
-20.22
-12.72
-5.91
-1.19
0.63
-0.7
-5.07
-12.18
-21.47
-32.0
-42.37
-50.97
-56.47
-58.3
-56.9
-53.45
-49.33
-45.53
-42.43
-39.84
-37.37
-34.85
-32.44
-30.52
-29.45
-29.31
-29.85
-30.63
-31.23
-31.45
-31.3
-30.86
-30.19
-29.21
-27.76
-25.72
-23.12
-20.22
-17.43
-15.27
-14.17
-14.34
-15.58
-17.25
-18.29
-17.46
-13.67
-6.36
4.3
17.4
31.57
45.4
57.81
68.16
76.19
81.75
84.62
84.43
80.8
73.51
62.65
48.61
32.11
14.12
-4.19
-21.55
-36.75
-48.83
-57.39
-62.54
-64.85
-65.04
-63.71
-61.23
-57.85
-53.87
-49.71
-45.88
-42.72
-40.33
-38.47
-36.76
-34.84
-32.54
-29.97
-27.43
-25.33
-24.03
-23.75
-24.49
-25.92
-27.41
-28.04
-26.85
-23.07
-16.35
-6.88
4.57
16.84
28.63
38.84
46.73
52.14
55.35
56.86
57.16
56.51
54.93
52.35
48.69
44.03
38.59
32.71
26.77
21.22
16.58
13.32
11.82
12.18
14.14
17.12
20.36
23.03
24.37
23.79
20.92
15.7
8.43
-0.32
-9.8
-19.32
-28.32
-36.45
-43.5
-49.29
-53.72
-56.85
-58.84
-59.95
-60.32
-59.79
-57.82
-53.66
-46.67
-36.65
-24.07
-9.98
4.21
17.16
27.91
36.13
42.01
46.07
48.88
50.85
52.15
52.81
52.88
52.54
52.15
52.1
52.66
53.86
55.46
57.05
58.16
58.33
57.14
54.18
49.15
41.96
32.91
22.8
12.82
4.22
-2.07
-5.76
-7.32
-7.67
-7.87
-8.64
-10.27
-12.66
-15.58
-18.83
-22.44
-26.53
-31.22
-36.57
-42.47
-48.67
-54.74
-60.02
-63.6
-64.44
-61.79
-55.56
-46.56
-36.38
-26.9
-19.61
-15.18
-13.33
-13.15
-13.67
-14.24
-14.74
-15.4
-16.52
-18.31
-20.83
-24.02
-27.67
-31.36
-34.34
-35.59
-33.99
-28.75
-19.72
-7.54
6.55
21.08
34.72
46.6
56.3
63.84
69.44
73.45
76.25
78.19
79.63
80.82
81.98
83.16
84.13
84.42
83.41
80.48
75.31
67.98
58.91
48.68
37.8
26.61
15.43
4.66
-5.06
-12.96
-18.4
-21.1
-21.3
-19.59
-16.73
-13.4
-10.11
-7.24
-4.99
-3.47
-2.61
-2.21
-1.98
-1.72
-1.35
-0.96
-0.69
-0.54
-0.41
-0.06
0.65
1.66
2.66
3.16
2.73
1.15
-1.44
-4.6
-7.66
-9.89
-10.78
-10.13
-8.16
-5.47
-2.88
-1.24
-1.26
-3.38
-7.77
-14.36
-22.77
-32.36
-42.3
-51.65
-59.58
-65.47
-69.0
-70.08
-68.76
-65.06
-59.04
-50.84
-40.83
-29.62
-18.11
-7.19
2.44
10.42
16.75
21.61
25.19
27.56
28.7
28.68
27.8
26.63
25.79
25.69
26.26
26.91
26.8
25.26
22.14
17.95
13.58
9.91
7.44
6.12
5.4
4.59
3.13
0.72
-2.58
-6.47
-10.59
-14.59
-18.21
-21.39
-24.2
-26.88
-29.79
-33.32
-37.74
-43.06
-48.93
-54.58
-58.99
-61.09
-60.12
-55.89
-48.86
-39.99
-30.47
-21.28
-13.03
-5.86
0.42
6.04
11.14
15.63
19.28
21.9
23.47
24.23
24.6
24.99
25.66
26.63
27.77
28.9
29.85
30.44
30.4
29.29
26.62
22.01
15.46
7.42
-1.32
-9.83
-17.38
-23.63
-28.64
-32.8
-36.67
-40.78
-45.42
-50.51
-55.48
-59.3
-60.74
-58.65
-52.49
-42.54
-30.03
-16.79
-4.69
4.87
11.37
15.14
17.0
17.76
17.9
17.44
16.14
13.77
10.37
6.34
2.28
-1.1
-3.21
-3.64
-2.29
0.65
4.69
9.14
13.27
16.53
18.59
19.34
18.88
17.33
14.87
11.74
8.17
4.44
0.74
-2.94
-6.87
-11.48
-17.14
-23.85
-31.05
-37.59
-42.08
-43.29
-40.56
-34.03
-24.6
-13.59
-2.39
7.9
16.6
23.44
28.47
31.84
33.67
34.02
32.91
30.48
27.04
23.16
19.49
16.58
14.69
13.72
13.33
13.13
12.86
12.44
11.95
11.4
10.73
9.77
8.33
6.43
4.29
2.33
0.91
0.21
-0.02
-0.38
-1.64
-4.43
-8.87
-14.37
-19.72
-23.3
-23.61
-19.68
-11.38
0.39
13.98
27.31
38.42
45.93
49.33
49.02
46.02
41.58
36.73
32.14
28.03
24.32
20.86
17.51
14.14
10.66
7.07
3.49
0.17
-2.57
-4.56
-5.97
-7.27
-9.09
-11.94
-15.89
-20.54
-25.15
-28.89
-31.17
-31.84
-31.23
-30.09
-29.41
-30.16
-32.97
-37.87
-44.2
-50.71
-55.88
-58.37
-57.3
-52.52
-44.49
-34.18
-22.71
-11.21
-0.56
8.71
16.41
22.65
27.69
31.77
35.02
37.47
39.1
39.95
40.11
39.72
38.85
37.53
35.85
34.07
32.7
32.32
33.28
35.33
37.53
38.4
36.52
31.08
22.38
11.71
0.86
-8.5
-15.54
-20.42
-24.07
-27.69
-32.15
-37.62
-43.48
-48.59
-51.63
-51.57
-47.93
-40.95
-31.48
-20.72
-9.97
-0.29
7.72
13.92
18.5
21.74
23.8
24.65
24.09
21.99
18.42
13.77
8.63
3.59
-0.92
-4.71
-7.77
-10.08
-11.65
-12.49
-12.73
-12.68
-12.74
-13.18
-14.08
-15.21
-16.16
-16.55
-16.15
-14.93
-13.05
-10.75
-8.35
-6.27
-5.17
-5.78
-8.78
-14.36
-21.96
-30.22
-37.21
-40.96
-40.06
-34.08
-23.61
-10.02
5.07
20.11
33.93
45.73
54.99
61.41
64.9
65.63
64.11
61.13
57.54
54.01
50.84
47.95
44.99
41.56
37.44
32.71
27.7
22.81
18.34
14.36
10.66
6.88
2.66
-2.13
-7.27
-12.24
-16.34
-18.98
-19.92
-19.35
-17.87
-16.25
-15.18
-15.08
-16.05
-17.91
-20.31
-22.74
-24.56
-25.01
-23.35
-19.06
-12.13
-3.21
6.45
15.36
22.26
26.51
28.19
27.93
26.47
24.4
21.98
19.29
16.45
13.79
11.86
11.11
11.69
13.3
15.25
16.71
16.99
15.77
13.16
9.64
5.87
2.46
-0.23
-2.26
-4.01
-6.05
-8.83
-12.47
-16.72
-21.07
-25.04
-28.34
-30.99
-33.23
-35.3
-37.41
-39.6
-41.9
-44.32
-46.76
-48.87
-49.95
-48.97
-44.89
-37.06
-25.53
-11.21
4.47
19.9
33.77
45.26
53.96
59.66
62.21
61.55
57.86
51.7
44.06
36.09
28.82
22.82
18.12
14.39
11.2
8.25
5.51
3.15
1.42
0.55
0.57
1.39
2.69
3.99
4.75
4.44
2.7
-0.53
-5.02
-10.3
-15.83
-21.13
-25.91
-30.08
-33.74
-37.14
-40.6
-44.46
-48.87
-53.7
-58.34
-61.76
-62.64
-59.83
-52.73
-41.67
-27.86
-13.16
0.57
12.02
20.75
27.09
31.78
35.46
38.4
40.53
41.65
41.7
40.81
39.13
36.74
33.56
29.46
24.52
19.07
13.7
8.93
5.0
1.79
-1.07
-3.96
-7.1
-10.46
-13.86
-17.07
-19.99
-22.64
-25.08
-27.38
-29.46
-31.23
-32.6
-33.67
-34.77
-36.4
-39.02
-42.78
-47.35
-51.87
-55.17
-56.07
-53.73
-47.87
-38.83
-27.54
-15.25
-3.28
7.25
15.61
21.59
25.39
27.46
28.29
28.2
27.36
25.87
23.86
21.6
19.51
18.0
17.4
17.82
19.15
21.14
23.48
25.86
27.99
29.6
30.37
30.03
28.41
25.64
22.14
18.55
15.44
13.03
11.03
8.75
5.46
0.77
-5.07
-11.32
-17.05
-21.63
-24.9
-27.19
-28.96
-30.52
-31.7
-31.95
-30.51
-26.68
-20.13
-11.0
0.06
12.06
23.87
34.49
43.25
49.86
54.42
57.2
58.58
58.94
58.6
57.9
57.14
56.56
56.34
56.62
57.5
59.07
61.38
64.42
67.9
71.23
73.44
73.28
69.62
61.78
49.88
34.88
18.28
1.63
-13.89
-27.7
-39.65
-49.78
-58.15
-64.73
-69.68
-73.4
-76.58
-80.01
-84.26
-89.52
-95.46
-101.34
-106.06
-108.43
-107.36
-102.17
-92.81
-79.87
-64.55
-48.22
-32.26
-17.73
-5.36
4.41
11.43
15.82
17.97
18.47
18.01
17.19
16.43
15.92
15.68
15.63
15.65
15.66
15.6
15.49
15.41
15.47
15.71
16.05
16.27
15.99
14.84
12.56
9.15
4.91
0.41
-3.68
-6.84
-8.88
-10.06
-11.11
-12.91
-16.26
-21.49
-28.39
-36.2
-43.87
-50.29
-54.48
-55.73
-53.69
-48.42
-40.4
-30.58
-20.09
-10.1
-1.42
5.62
11.21
15.84
20.01
24.0
27.77
30.99
33.36
34.76
35.44
35.91
36.76
38.33
40.61
43.17
45.34
46.5
46.24
44.48
41.43
37.43
32.86
28.01
23.02
17.94
12.75
7.45
2.17
-2.91
-7.59
-11.72
-15.3
-18.45
-21.42
-24.5
-28.04
-32.28
-37.28
-42.72
-47.75
-51.18
-51.73
-48.54
-41.53
-31.44
-19.6
-7.48
3.73
13.38
21.18
27.11
31.14
33.2
33.2
31.17
27.39
22.37
16.78
11.28
6.43
2.55
-0.24
-2.0
-2.83
-2.82
-1.98
-0.35
1.92
4.48
6.72
7.99
7.68
5.36
0.88
-5.7
-14.14
-24.1
-35.09
-46.51
-57.65
-67.74
-76.16
-82.5
-86.65
-88.81
-89.33
-88.56
-86.59
-83.11
-77.38
-68.45
-55.51
-38.34
-17.49
5.66
29.23
51.33
70.54
86.14
98.14
107.06
113.56
118.17
121.17
122.64
122.61
121.18
118.51
114.75
109.92
103.88
96.49
87.71
77.72
66.86
55.44
43.55
31.02
17.63
3.31
-11.6
-26.32
-39.84
-51.21
-59.75
-65.26
-67.96
-68.4
-67.44
-65.99
-64.94
-64.91
-66.03
-67.87
-69.47
-69.63
-67.25
-61.73
-53.17
-42.33
-30.43
-18.77
-8.4
0.08
6.56
11.26
14.47
16.4
17.1
16.62
15.17
13.16
11.18
9.78
9.25
9.55
10.4
11.49
12.64
13.89
15.4
17.24
19.37
21.54
23.48
24.91
25.73
25.92
25.63
25.09
24.51
24.01
23.51
22.73
21.23
18.63
14.77
9.78
4.03
-2.03
-7.98
-13.39
-17.82
-20.69
-21.34
-19.26
-14.33
-7.04
1.52
9.94
16.86
21.36
23.12
22.48
20.2
17.13
14.05
11.46
9.58
8.37
7.51
6.52
4.88
2.28
-1.1
-4.56
-7.1
-7.84
-6.52
-3.64
-0.3
2.31
3.41
2.83
0.96
-1.63
-4.47
-7.3
-9.92
-12.07
-13.41
-13.63
-12.78
-11.28
-9.93
-9.56
-10.76
-13.63
-17.77
-22.38
-26.56
-29.43
-30.36
-28.97
-25.19
-19.27
-11.72
-3.25
5.38
13.52
20.68
26.6
31.18
34.43
36.44
37.32
37.19
36.23
34.62
32.54
30.18
27.64
24.99
22.24
19.4
16.6
14.11
12.26
11.34
11.36
11.97
12.54
12.36
10.95
8.23
4.52
0.34
-3.86
-7.85
-11.62
-15.22
-18.68
-21.9
-24.81
-27.5
-30.23
-33.33
-36.99
-40.96
-44.51
-46.48
-45.58
-40.85
-32.02
-19.65
-5.02
10.18
24.26
35.82
43.96
48.28
48.86
46.21
41.25
35.15
29.17
24.36
21.28
20.01
20.19
21.32
22.85
24.28
25.13
24.94
23.38
20.43
16.39
11.85
7.44
3.52
0.09
-3.16
-6.62
-10.55
-14.95
-19.6
-24.12
-28.13
-31.3
-33.46
-34.66
-35.26
-35.85
-37.15
-39.66
-43.41
-47.75
-51.42
-52.9
-50.91
-44.89
-35.26
-23.31
-10.78
0.66
9.94
16.68
21.16
24.01
25.93
27.48
29.07
30.87
32.77
34.38
35.14
34.55
32.42
29.06
25.13
21.3
17.9
14.78
11.52
7.75
3.5
-0.78
-4.51
-7.33
-9.39
-11.29
-13.78
-17.32
-21.85
-26.73
-31.0
-33.81
-34.72
-33.95
-32.25
-30.6
-29.83
-30.38
-32.14
-34.55
-36.8
-38.04
-37.58
-34.99
-30.23
-23.62
-15.82
-7.64
0.17
7.08
12.88
17.6
21.32
24.1
25.86
26.53
26.13
24.85
23.08
21.3
19.96
19.44
19.91
21.32
23.41
25.71
27.6
28.51
28.02
25.98
22.56
18.12
13.11
7.94
2.89
-1.89
-6.35
-10.51
-14.49
-18.48
-22.78
-27.65
-33.17
-38.97
-44.21
-47.66
-48.04
-44.48
-36.94
-26.29
-14.15
-2.34
7.69
15.18
20.16
23.22
25.1
26.44
27.54
28.42
28.9
28.74
27.83
26.2
24.02
21.57
19.07
16.69
14.46
12.35
10.41
8.74
7.45
6.55
5.82
4.84
3.14
0.42
-3.24
-7.38
-11.28
-14.26
-15.98
-16.56
-16.52
-16.56
-17.32
-19.16
-22.09
-25.69
-29.22
-31.68
-32.15
-29.93
-24.91
-17.58
-8.98
-0.42
6.98
12.56
16.26
18.45
19.72
20.49
20.92
20.92
20.27
18.9
16.94
14.79
12.86
11.48
10.69
10.23
9.71
8.8
7.35
5.49
3.53
1.78
0.46
-0.46
-1.22
-2.14
-3.51
-5.45
-7.82
-10.31
-12.58
-14.39
-15.73
-16.84
-18.14
-20.06
-22.92
-26.78
-31.39
-36.19
-40.35
-42.9
-42.85
-39.44
-32.39
-22.05
-9.45
3.94
16.57
27.29
35.51
41.33
45.19
47.52
48.53
48.07
45.88
41.81
36.12
29.4
22.48
16.11
10.83
6.85
4.16
2.61
1.99
2.11
2.71
3.52
4.22
4.5
4.14
3.07
1.33
-0.96
-3.68
-6.79
-10.28
-14.13
-18.27
-22.54
-26.74
-30.69
-34.3
-37.62
-40.84
-44.19
-47.87
-51.91
-56.06
-59.74
-62.06
-62.01
-58.69
-51.69
-41.31
-28.56
-14.94
-2.01
9.09
17.89
24.52
29.48
33.32
36.49
39.22
41.67
44.02
46.42
48.91
51.28
53.01
53.52
52.31
49.27
44.7
39.23
33.52
28.1
23.18
18.73
14.55
10.49
6.53
2.82
-0.39
-2.92
-4.77
-6.1
-7.27
-8.61
-10.39
-12.79
-15.91
-19.85
-24.69
-30.43
-36.91
-43.78
-50.49
-56.34
-60.5
-62.17
-60.72
-55.84
-47.76
-37.23
-25.51
-13.95
-3.7
4.57
10.75
15.12
18.07
19.95
20.97
21.31
21.19
20.92
20.9
21.49
22.87
25.04
27.76
30.63
33.17
34.89
35.42
34.54
32.29
28.95
24.98
20.83
16.8
12.96
9.12
5.02
0.44
-4.71
-10.29
-16.07
-21.77
-27.13
-31.96
-36.21
-39.99
-43.55
-47.27
-51.4
-55.89
-60.32
-63.83
-65.35
-63.92
-58.97
-50.52
-39.24
-26.25
-12.89
-0.46
10.0
17.8
22.64
24.61
24.1
21.77
18.42
14.82
11.66
9.42
8.38
8.61
10.01
12.34
15.25
18.25
20.88
22.79
23.86
24.18
23.96
23.36
22.41
21.07
19.33
17.29
15.17
13.16
11.26
9.21
6.52
2.67
-2.69
-9.56
-17.52
-25.75
-33.12
-38.42
-40.54
-38.79
-33.08
-24.03
-12.83
-1.0
10.09
19.43
26.52
31.31
33.95
34.6
33.43
30.68
26.8
22.47
18.43
15.29
13.24
12.07
11.3
10.42
9.12
7.35
5.23
2.95
0.62
-1.71
-4.06
-6.4
-8.69
-10.87
-12.84
-14.57
-16.07
-17.51
-19.14
-21.29
-24.23
-28.06
-32.6
-37.36
-41.62
-44.5
-45.14
-42.82
-37.21
-28.4
-16.94
-3.78
9.96
23.09
34.53
43.35
48.95
51.1
50.06
46.56
41.6
36.23
31.26
27.14
23.98
21.74
20.31
19.61
19.54
19.89
20.39
20.67
20.4
19.35
17.4
14.51
10.75
6.28
1.29
-3.99
-9.41
-14.84
-20.19
-25.37
-30.32
-34.95
-39.32
-43.56
-47.7
-51.5
-54.27
-54.97
-52.51
-46.26
-36.33
-23.68
-9.82
3.74
15.8
25.77
33.54
39.26
43.13
45.36
46.19
45.93
45.07
44.11
43.45
43.2
43.05
42.34
40.25
36.16
29.98
22.23
13.88
5.98
-0.79
-6.35
-11.11
-15.62
-20.21
-24.78
-28.9
-32.15
-34.44
-36.12
-37.91
-40.53
-44.48
-49.71
-55.65
-61.21
-65.04
-65.83
-62.61
-55.11
-43.87
-30.1
-15.47
-1.57
10.38
19.75
26.39
30.47
32.24
31.92
29.84
26.49
22.65
19.29
17.27
17.09
18.7
21.52
24.77
27.76
30.13
31.96
33.58
35.36
37.51
39.95
42.31
44.03
44.49
43.17
39.77
34.27
26.9
18.04
8.12
-2.55
-13.69
-25.06
-36.2
-46.35
-54.39
-59.1
-59.46
-55.0
-46.11
-33.94
-20.09
-6.25
6.23
16.49
24.11
28.98
31.16
30.83
28.38
24.43
19.8
15.36
11.79
9.5
8.42
8.17
8.14
7.76
6.68
4.89
2.73
0.59
-1.22
-2.71
-4.21
-6.14
-8.79
-12.1
-15.72
-19.12
-21.9
-23.91
-25.28
-26.35
-27.55
-29.28
-31.81
-35.12
-38.72
-41.61
-42.43
-39.86
-33.11
-22.28
-8.52
6.32
20.19
31.47
39.25
43.36
44.2
42.39
38.58
33.45
27.62
21.76
16.44
12.15
9.11
7.3
6.49
6.35
6.52
6.68
6.51
5.74
4.18
1.72
-1.57
-5.49
-9.7
-13.86
-17.73
-21.27
-24.64
-28.21
-32.42
-37.64
-43.98
-51.11
-58.13
-63.65
-66.11
-64.24
-57.55
-46.57
-32.78
-18.07
-4.23
7.63
17.18
24.63
30.45
34.99
38.48
41.12
43.3
45.51
48.25
51.7
55.52
58.92
60.87
60.55
57.58
52.21
45.16
37.36
29.63
22.46
15.94
9.96
4.34
-0.97
-5.83
-10.03
-13.48
-16.38
-19.3
-22.96
-27.99
-34.57
-42.25
-49.95
-56.17
-59.43
-58.66
-53.5
-44.46
-32.73
-19.94
-7.68
2.78
10.73
16.0
18.86
19.75
19.15
17.42
14.82
11.52
7.68
3.54
-0.56
-4.19
-6.81
-7.96
-7.31
-4.82
-0.81
4.11
9.16
13.54
16.64
18.11
17.96
16.46
14.01
10.98
7.53
3.58
-1.14
-6.92
-13.8
-21.31
-28.45
-33.79
-35.85
-33.5
-26.39
-15.12
-1.14
13.57
27.02
37.64
44.66
48.02
48.25
46.1
42.28
37.35
31.8
26.13
20.85
16.41
12.97
10.38
8.27
6.19
3.89
1.33
-1.33
-3.94
-6.49
-9.08
-11.78
-14.49
-16.91
-18.65
-19.45
-19.21
-18.07
-16.23
-13.93
-11.41
-8.99
-7.09
-6.21
-6.8
-8.95
-12.21
-15.59
-17.79
-17.54
-14.1
-7.54
1.27
10.96
20.13
27.79
33.59
37.65
40.31
41.79
42.04
40.91
38.34
34.6
30.32
26.27
23.11
21.09
20.01
19.33
18.43
16.86
14.55
11.76
8.97
6.57
4.63
2.76
0.33
-3.3
-8.33
-14.43
-20.75
-26.33
-30.43
-32.91
-34.19
-35.11
-36.61
-39.28
-43.24
-48.0
-52.51
-55.45
-55.52
-51.88
-44.39
-33.79
-21.42
-8.87
2.51
11.98
19.47
25.38
30.25
34.46
38.12
41.1
43.18
44.2
44.12
42.92
40.57
36.98
32.13
26.13
19.36
12.39
5.87
0.36
-3.8
-6.5
-7.91
-8.37
-8.31
-8.21
-8.52
-9.61
-11.78
-15.25
-20.12
-26.33
-33.56
-41.12
-47.91
-52.64
-54.07
-51.39
-44.53
-34.12
-21.36
-7.63
5.8
17.95
28.16
35.95
40.91
42.71
41.17
36.53
29.52
21.34
13.44
7.16
3.46
2.73
4.87
9.43
15.79
23.25
30.98
38.1
43.61
46.59
46.38
42.76
36.13
27.38
17.66
8.09
-0.62
-8.25
-15.06
-21.42
-27.55
-33.21
-37.78
-40.43
-40.47
-37.66
-32.32
-25.22
-17.4
-9.9
-3.53
1.25
4.34
5.92
6.31
5.74
4.34
2.11
-0.99
-4.85
-9.17
-13.42
-17.0
-19.36
-20.23
-19.55
-17.53
-14.55
-11.02
-7.35
-3.87
-0.82
1.72
3.73
5.27
6.36
6.98
7.05
6.4
4.88
2.38
-1.05
-5.1
-9.15
-12.32
-13.64
-12.47
-8.73
-3.12
3.09
8.5
12.09
13.64
13.77
13.53
13.98
15.65
18.41
21.63
24.47
26.21
26.5
25.36
23.06
19.98
16.56
13.11
9.84
6.72
3.5
-0.15
-4.57
-9.9
-16.03
-22.57
-29.06
-35.03
-40.22
-44.57
-48.21
-51.41
-54.4
-57.25
-59.72
-61.26
-61.08
-58.37
-52.56
-43.57
-31.92
-18.64
-4.97
7.9
19.13
28.27
35.24
40.12
43.05
44.18
43.65
41.63
38.29
33.77
28.25
21.96
15.25
8.65
2.65
-2.34
-6.21
-8.99
-10.77
-11.54
-11.17
-9.6
-7.09
-4.32
-2.23
-1.79
-3.59
-7.68
-13.55
-20.28
-26.84
-32.22
-35.66
-36.7
-35.19
-31.28
-25.27
-17.53
-8.52
1.25
11.06
20.13
27.67
33.09
36.21
37.2
36.49
34.58
31.87
28.72
25.41
22.27
19.66
17.86
16.97
16.93
17.53
18.52
19.61
20.41
20.47
19.21
16.12
10.98
3.92
-4.46
-13.42
-22.29
-30.66
-38.42
-45.53
-51.74
-56.46
-58.85
-58.06
-53.73
-46.15
-36.25
-25.32
-14.58
-4.89
3.35
10.03
15.07
18.25
19.21
17.66
13.61
7.52
0.29
-6.87
-12.8
-16.59
-17.77
-16.47
-13.29
-9.25
-5.49
-2.98
-2.23
-3.17
-5.25
-7.7
-9.84
-11.37
-12.39
-13.34
-14.83
-17.5
-21.88
-28.13
-35.84
-43.84
-50.33
-53.25
-51.0
-43.02
-30.12
-14.26
2.13
16.96
28.94
37.81
44.02
48.34
51.49
53.98
56.09
58.0
59.72
61.13
61.91
61.64
59.91
56.56
51.72
45.75
39.11
32.25
25.49
19.11
13.34
8.3
3.93
-0.12
-4.36
-9.28
-15.15
-21.85
-28.95
-35.79
-41.64
-45.76
-47.41
-46.06
-41.54
-34.17
-24.77
-14.4
-4.0
5.89
15.11
23.8
32.03
39.66
46.31
51.42
54.45
54.95
52.64
47.5
39.84
30.4
20.3
10.77
2.95
-2.48
-5.43
-6.37
-6.11
-5.49
-5.09
-5.15
-5.6
-6.28
-7.11
-8.21
-9.91
-12.58
-16.59
-22.13
-29.13
-37.16
-45.41
-52.68
-57.6
-58.97
-56.13
-49.27
-39.44
-28.27
-17.46
-8.26
-1.21
3.85
7.53
10.49
13.19
15.73
18.0
19.8
21.05
21.9
22.71
23.89
25.76
28.33
31.27
33.92
35.55
35.52
33.51
29.59
24.17
17.78
10.9
3.8
-3.46
-10.85
-18.34
-25.73
-32.68
-38.77
-43.54
-46.54
-47.3
-45.38
-40.47
-32.58
-22.23
-10.46
1.31
11.68
19.65
24.91
27.82
29.06
29.26
28.7
27.23
24.54
20.43
15.06
8.93
2.7
-3.03
-7.83
-11.4
-13.51
-13.94
-12.59
-9.62
-5.57
-1.29
2.32
4.6
5.41
5.13
4.37
3.69
3.2
2.5
0.85
-2.41
-7.41
-13.47
-19.22
-23.05
-23.63
-20.46
-14.01
-5.46
3.73
12.37
19.78
25.82
30.65
34.44
37.23
38.93
39.48
38.98
37.82
36.49
35.4
34.69
34.14
33.23
31.4
28.3
23.99
18.89
13.54
8.4
3.65
-0.83
-5.26
-9.8
-14.4
-18.87
-22.98
-26.76
-30.43
-34.4
-38.91
-43.76
-48.17
-50.94
-50.71
-46.46
-37.91
-25.62
-10.93
4.45
18.83
30.87
39.75
45.21
47.38
46.66
43.57
38.63
32.42
25.49
18.45
11.89
6.32
2.11
-0.6
-1.87
-1.92
-1.04
0.45
2.23
3.92
5.11
5.35
4.33
1.92
-1.75
-6.31
-11.29
-16.25
-20.93
-25.23
-29.27
-33.29
-37.5
-41.97
-46.5
-50.49
-52.99
-52.93
-49.45
-42.25
-31.72
-18.96
-5.41
7.5
18.67
27.51
33.88
37.94
40.05
40.7
40.48
39.96
39.61
39.57
39.63
39.33
38.14
35.72
32.02
27.36
22.23
17.17
12.62
8.78
5.6
2.85
0.25
-2.48
-5.42
-8.58
-11.83
-15.11
-18.45
-21.98
-25.91
-30.4
-35.46
-40.8
-45.84
-49.68
-51.34
-50.01
-45.33
-37.53
-27.43
-16.11
-4.7
5.86
14.87
21.81
26.35
28.37
28.01
25.66
21.82
16.93
11.3
5.1
-1.36
-7.59
-12.93
-16.74
-18.64
-18.66
-17.21
-14.78
-11.79
-8.41
-4.7
-0.67
3.56
7.64
11.14
13.5
14.18
12.84
9.32
3.8
-3.32
-11.45
-19.96
-28.21
-35.48
-40.91
-43.55
-42.54
-37.37
-28.22
-16.03
-2.32
11.11
22.74
31.55
37.17
39.77
39.85
38.0
34.77
30.68
26.26
22.03
18.43
15.78
14.12
13.23
12.77
12.44
12.14
11.94
11.94
12.13
12.23
11.82
10.49
8.09
4.84
1.25
-2.11
-4.81
-6.73
-8.05
-9.1
-10.32
-12.1
-14.67
-17.97
-21.54
-24.53
-25.86
-24.66
-20.57
-13.99
-6.01
2.02
8.85
13.75
16.53
17.45
16.92
15.34
13.02
10.24
7.27
4.44
2.04
0.21
-1.1
-2.08
-2.98
-3.96
-5.01
-6.01
-6.77
-7.16
-7.2
-7.05
-6.94
-7.13
-7.79
-8.95
-10.57
-12.51
-14.7
-17.15
-20.01
-23.47
-27.61
-32.11
-36.18
-38.65
-38.27
-34.17
-26.18
-14.99
-1.94
11.32
23.27
32.74
39.07
42.04
41.8
38.82
33.87
27.96
22.12
17.25
13.87
11.98
11.14
10.67
9.89
8.44
6.37
4.07
2.06
0.66
-0.21
-0.99
-2.32
-4.68
-8.13
-12.28
-16.48
-20.11
-22.87
-24.82
-26.37
-27.99
-30.11
-32.92
-36.27
-39.6
-42.05
-42.64
-40.56
-35.48
-27.68
-17.96
-7.36
3.09
12.56
20.52
26.63
30.81
33.16
34.07
34.16
34.17
34.71
36.06
38.05
40.1
41.34
40.96
38.47
33.94
28.0
21.7
15.98
11.39
7.8
4.6
1.08
-3.18
-8.07
-13.09
-17.68
-21.47
-24.5
-27.06
-29.57
-32.39
-35.75
-39.76
-44.38
-49.21
-53.48
-56.06
-55.71
-51.51
-43.21
-31.48
-17.77
-3.88
8.54
18.38
25.24
29.3
31.05
31.07
29.88
27.93
25.74
23.81
22.54
22.1
22.34
22.91
23.42
23.67
23.67
23.57
23.44
23.14
22.36
20.73
18.13
14.67
10.77
6.89
3.41
0.43
-2.17
-4.73
-7.69
-11.58
-16.83
-23.71
-32.02
-41.08
-49.65
-56.22
-59.29
-57.88
-51.73
-41.53
-28.67
-14.98
-2.25
8.17
15.64
20.22
22.51
23.28
23.22
22.71
21.9
20.77
19.3
17.48
15.38
13.05
10.61
8.18
5.99
4.28
3.27
3.04
3.5
4.36
5.18
5.49
4.96
3.47
1.2
-1.48
-4.14
-6.54
-8.78
-11.22
-14.41
-18.84
-24.75
-31.96
-39.91
-47.66
-54.05
-57.89
-58.19
-54.46
-46.83
-36.12
-23.59
-10.64
1.53
12.14
20.85
27.57
32.34
35.15
36.0
34.99
32.4
28.79
24.83
21.19
18.35
16.47
15.49
15.16
15.17
15.25
15.19
14.79
13.8
12.04
9.35
5.77
1.58
-2.78
-6.8
-10.18
-12.9
-15.24
-17.65
-20.53
-24.09
-28.17
-32.36
-36.02
-38.51
-39.22
-37.74
-33.8
-27.39
-18.76
-8.44
2.76
13.86
23.85
31.91
37.56
40.72
41.62
40.67
38.31
34.92
30.85
26.48
22.22
18.51
15.66
13.77
12.63
11.75
10.62
8.86
6.42
3.62
0.98
-1.03
-2.24
-2.87
-3.43
-4.5
-6.45
-9.31
-12.84
-16.71
-20.63
-24.5
-28.3
-32.11
-36.06
-40.42
-45.45
-51.33
-57.82
-64.11
-68.8
-70.28
-67.23
-59.05
-46.2
-30.0
-12.36
4.76
19.71
31.51
39.81
44.88
47.38
48.04
47.51
46.18
44.2
41.64
38.55
35.1
31.52
28.02
24.77
21.9
19.54
17.83
16.87
16.63
16.87
17.13
16.83
15.44
12.69
8.63
3.62
-1.77
-7.02
-11.82
-16.11
-20.06
-23.91
-27.86
-31.99
-36.25
-40.38
-43.9
-46.08
-45.96
-42.68
-35.7
-25.19
-12.04
2.37
16.53
29.22
39.72
47.77
53.44
56.96
58.61
58.73
57.62
55.56
52.71
49.16
44.97
40.21
35.08
29.82
24.71
20.05
16.04
12.85
10.48
8.76
7.28
5.51
2.98
-0.53
-4.84
-9.56
-14.15
-18.22
-21.65
-24.6
-27.46
-30.73
-34.93
-40.41
-47.15
-54.52
-61.31
-65.88
-66.68
-62.72
-53.96
-41.35
-26.52
-11.28
2.82
14.76
24.07
30.68
34.79
36.73
36.97
36.09
34.8
33.75
33.38
33.72
34.45
35.03
35.02
34.3
33.05
31.55
29.97
28.21
25.98
22.98
19.13
14.65
9.94
5.42
1.42
-1.87
-4.38
-6.11
-7.24
-8.12
-9.3
-11.4
-14.9
-19.99
-26.47
-33.71
-40.78
-46.49
-49.66
-49.35
-45.13
-37.23
-26.57
-14.46
-2.28
8.86
18.28
25.71
31.08
34.36
35.57
34.85
32.58
29.43
26.17
23.49
21.76
20.96
20.72
20.64
20.42
20.06
19.75
19.75
20.12
20.57
20.49
19.24
16.35
11.75
5.82
-0.77
-7.39
-13.58
-19.26
-24.66
-30.19
-36.28
-43.16
-50.67
-58.22
-64.78
-69.08
-69.96
-66.69
-59.26
-48.38
-35.35
-21.72
-8.92
1.96
10.36
16.12
19.41
20.56
20.03
18.31
15.97
13.61
11.81
10.96
11.16
12.2
13.68
15.18
16.45
17.45
18.31
19.19
20.14
21.11
21.95
22.55
22.81
22.63
21.91
20.56
18.45
15.58
12.01
7.87
3.26
-1.85
-7.56
-13.97
-20.92
-27.84
-33.71
-37.23
-37.19
-32.95
-24.75
-13.77
-1.81
9.2
17.77
23.18
25.54
25.44
23.66
20.81
17.33
13.48
9.51
5.67
2.2
-0.75
-3.18
-5.12
-6.57
-7.49
-7.78
-7.46
-6.71
-5.89
-5.4
-5.59
-6.6
-8.39
-10.7
-13.16
-15.45
-17.36
-18.98
-20.68
-23.02
-26.4
-30.8
-35.49
-39.13
-40.13
-37.23
-29.97
-18.91
-5.5
8.38
20.97
31.03
38.07
42.23
44.01
44.05
42.85
40.78
38.07
34.91
31.47
27.89
24.31
20.82
17.51
14.45
11.71
9.33
7.25
5.35
3.43
1.33
-1.09
-3.86
-6.91
-10.09
-13.2
-16.07
-18.66
-21.19
-24.08
-27.83
-32.74
-38.65
-44.78
-49.8
-52.25
-50.83
-44.89
-34.58
-20.82
-5.14
10.66
24.85
36.13
43.74
47.63
48.3
46.51
43.01
38.34
32.75
26.29
19.06
11.32
3.63
-3.32
-8.82
-12.38
-13.89
-13.67
-12.32
-10.66
-9.41
-9.11
-10.02
-12.12
-15.19
-18.9
-22.85
-26.67
-30.12
-33.2
-36.19
-39.61
-43.96
-49.37
-55.3
-60.44
-62.97
-61.16
-54.0
-41.68
-25.58
-7.9
9.07
23.63
35.11
43.76
50.4
55.84
60.56
64.52
67.44
69.0
69.1
67.91
65.81
63.22
60.54
58.09
56.12
54.76
53.97
53.48
52.83
51.48
48.96
45.0
39.59
32.88
25.11
16.55
7.46
-1.85
-11.05
-19.88
-28.24
-36.3
-44.3
-52.3
-59.92
-66.19
-69.82
-69.6
-64.9
-56.01
-44.06
-30.69
-17.54
-5.85
3.63
10.65
15.23
17.5
17.7
16.16
13.31
9.63
5.6
1.58
-2.16
-5.46
-8.2
-10.28
-11.69
-12.47
-12.8
-12.91
-13.08
-13.57
-14.6
-16.3
-18.73
-21.83
-25.45
-29.38
-33.48
-37.72
-42.19
-47.02
-52.2
-57.37
-61.77
-64.29
-63.71
-59.05
-49.9
-36.69
-20.67
-3.64
12.46
26.03
36.15
42.55
45.49
45.48
43.18
39.22
34.31
29.2
24.58
20.93
18.45
17.03
16.39
16.29
16.54
17.05
17.65
18.1
18.08
17.3
15.62
13.06
9.8
6.06
2.02
-2.24
-6.75
-11.72
-17.43
-24.07
-31.54
-39.27
-46.13
-50.68
-51.49
-47.59
-38.76
-25.67
-9.66
7.58
24.41
39.59
52.34
62.37
69.69
74.41
76.7
76.76
74.82
71.2
66.24
60.21
53.32
45.78
37.91
30.24
23.43
18.04
14.39
12.33
11.25
10.27
8.48
5.14
-0.13
-7.28
-15.88
-25.25
-34.66
-43.51
-51.48
-58.51
-64.67
-69.91
-73.93
-76.14
-75.83
-72.42
-65.78
-56.24
-44.62
-32.04
-19.67
-8.58
0.46
7.12
11.53
14.19
15.74
16.73
17.41
17.77
17.71
17.27
16.63
16.03
15.52
14.85
13.56
11.28
7.99
4.05
0.01
-3.71
-7.07
-10.45
-14.36
-19.26
-25.24
-32.0
-38.98
-45.46
-50.76
-54.46
-56.41
-56.89
-56.55
-56.12
-56.17
-56.71
-57.12
-56.29
-53.08
-46.72
-37.05
-24.55
-10.01
5.62
21.41
36.38
49.38
59.17
64.73
65.72
62.72
57.21
51.14
46.3
43.82
43.88
45.75
48.15
49.58
48.85
45.4
39.44
31.88
24.0
16.95
11.51
7.85
5.78
4.87
4.72
4.92
5.07
4.61
2.88
-0.75
-6.67
-14.69
-23.93
-32.85
-39.51
-42.06
-39.3
-31.14
-18.61
-3.55
11.95
26.17
38.02
47.1
53.4
57.1
58.44
57.76
55.51
52.33
48.86
45.61
42.87
40.59
38.53
36.39
33.96
31.33
28.79
26.81
25.82
25.93
26.86
27.95
28.27
26.94
23.36
17.3
8.89
-1.46
-13.2
-25.67
-38.07
-49.43
-58.67
-64.66
-66.51
-63.77
-56.59
-45.8
-32.68
-18.77
-5.46
6.15
15.44
22.16
26.31
28.09
27.8
25.82
22.63
18.69
14.37
9.94
5.57
1.38
-2.5
-5.97
-8.94
-11.46
-13.66
-15.71
-17.69
-19.58
-21.35
-23.03
-24.79
-26.88
-29.43
-32.37
-35.37
-38.02
-39.91
-40.85
-40.81
-39.99
-38.77
-37.7
-37.37
-38.25
-40.34
-43.0
-45.01
-44.9
-41.5
-34.37
-23.99
-11.58
1.37
13.5
23.88
32.01
37.81
41.34
42.79
42.35
40.24
36.8
32.51
27.97
23.73
20.16
17.3
14.95
12.86
10.99
9.56
8.92
9.25
10.37
11.64
12.28
11.7
9.68
6.52
2.8
-0.86
-3.98
-6.41
-8.35
-10.3
-13.04
-17.36
-23.83
-32.4
-42.19
-51.57
-58.46
-61.03
-58.2
-50.04
-37.69
-22.91
-7.5
7.04
19.72
29.97
37.38
41.71
42.9
41.28
37.75
33.59
30.24
28.8
29.74
32.76
36.96
41.15
44.29
45.74
45.44
43.84
41.66
39.56
37.88
36.53
35.02
32.67
29.04
24.08
18.2
12.16
6.72
2.37
-0.86
-3.34
-5.68
-8.56
-12.58
-18.09
-25.12
-33.19
-41.21
-47.65
-50.92
-49.93
-44.5
-35.51
-24.55
-13.32
-3.02
5.87
13.57
20.46
26.67
31.82
35.12
35.7
33.16
27.73
20.33
12.26
4.76
-1.34
-5.78
-8.76
-10.67
-11.87
-12.43
-12.29
-11.34
-9.63
-7.57
-5.84
-5.22
-6.28
-9.15
-13.36
-18.14
-22.72
-26.72
-30.32
-34.1
-38.73
-44.54
-51.41
-58.69
-65.43
-70.54
-73.02
-72.04
-67.12
-58.17
-45.67
-30.64
-14.57
0.89
14.21
24.36
30.97
34.4
35.52
35.45
35.18
35.35
36.15
37.39
38.63
39.31
38.9
36.97
33.34
28.19
22.06
15.75
9.99
5.25
1.53
-1.57
-4.57
-7.88
-11.49
-15.09
-18.22
-20.5
-21.87
-22.68
-23.56
-25.24
-28.27
-32.71
-37.99
-42.87
-45.78
-45.27
-40.49
-31.6
-19.7
-6.52
6.14
16.83
24.74
29.72
32.06
32.33
31.19
29.36
27.48
26.11
25.55
25.79
26.52
27.23
27.43
26.86
25.53
23.73
21.89
20.31
19.03
17.74
15.91
12.97
8.58
2.8
-3.86
-10.58
-16.55
-21.2
-24.42
-26.58
-28.4
-30.71
-34.08
-38.58
-43.57
-47.77
-49.58
-47.6
-41.08
-30.26
-16.32
-1.03
13.77
26.64
36.71
43.71
47.78
49.27
48.68
46.53
43.39
39.74
35.86
31.81
27.48
22.74
17.56
12.12
6.81
2.14
-1.45
-3.69
-4.66
-4.76
-4.6
-4.82
-5.85
-7.79
-10.4
-13.33
-16.24
-19.05
-21.92
-25.28
-29.65
-35.47
-42.89
-51.61
-60.74
-68.83
-74.13
-75.05
-70.63
-60.87
-46.78
-30.07
-12.73
3.47
17.27
28.02
35.59
40.19
42.2
42.01
40.11
37.01
33.28
29.55
26.34
24.0
22.58
21.9
21.67
21.6
21.58
21.63
21.8
21.98
21.93
21.24
19.54
16.67
12.71
8.07
3.31
-1.05
-4.69
-7.7
-10.5
-13.74
-17.99
-23.57
-30.33
-37.69
-44.69
-50.18
-53.02
-52.24
-47.29
-38.19
-25.66
-10.98
4.22
18.37
30.33
39.49
45.79
49.52
51.06
50.82
49.13
46.34
42.85
39.11
35.63
32.84
30.95
29.9
29.33
28.77
27.8
26.28
24.35
22.33
20.38
18.41
16.1
13.06
9.13
4.56
-0.13
-4.38
-7.85
-10.63
-13.18
-16.17
-20.29
-25.98
-33.29
-41.73
-50.2
-57.12
-60.82
-59.95
-54.02
-43.59
-30.09
-15.4
-1.24
11.21
21.52
29.77
36.25
41.2
44.58
46.17
45.73
43.18
38.74
32.94
26.52
20.26
14.81
10.58
7.76
6.39
6.45
7.89
10.5
13.89
17.28
19.72
20.29
18.41
14.13
8.08
1.26
-5.4
-11.37
-16.7
-21.91
-27.69
-34.48
-42.18
-50.01
-56.69
-60.72
-60.91
-56.67
-48.28
-36.73
-23.51
-10.11
2.25
12.74
20.89
26.48
29.38
29.67
27.73
24.16
19.76
15.29
11.22
7.75
4.85
2.44
0.56
-0.74
-1.54
-2.06
-2.74
-4.0
-6.03
-8.69
-11.55
-14.05
-15.67
-16.19
-15.66
-14.48
-13.36
-13.22
-14.96
-19.24
-26.15
-35.05
-44.61
-53.07
-58.66
-60.04
-56.53
-48.27
-36.13
-21.49
-5.99
8.81
21.66
31.79
38.95
43.31
45.28
45.35
43.92
41.34
37.84
33.7
29.25
24.82
20.76
17.32
14.61
12.59
11.12
10.01
9.08
8.17
7.19
6.01
4.49
2.51
-0.0
-3.01
-6.32
-9.78
-13.24
-16.71
-20.28
-24.08
-28.13
-32.42
-36.89
-41.54
-46.41
-51.42
-56.23
-60.14
-62.13
-61.1
-56.19
-47.05
-34.07
-18.33
-1.48
14.7
28.61
39.27
46.38
50.31
51.74
51.37
49.69
47.0
43.52
39.5
35.35
31.48
28.19
25.58
23.53
21.79
20.16
18.57
17.0
15.52
14.15
12.82
11.39
9.61
7.26
4.22
0.61
-3.23
-6.82
-9.76
-11.91
-13.51
-15.07
-17.23
-20.57
-25.49
-32.09
-40.13
-48.93
-57.27
-63.53
-66.02
-63.47
-55.51
-42.88
-27.26
-10.78
4.62
17.58
27.57
34.66
39.27
41.85
42.77
42.28
40.55
37.81
34.32
30.4
26.31
22.31
18.59
15.36
12.83
11.2
10.52
10.66
11.21
11.65
11.45
10.28
8.1
5.16
1.83
-1.52
-4.67
-7.58
-10.3
-12.89
-15.29
-17.33
-18.76
-19.44
-19.35
-18.81
-18.37
-18.76
-20.6
-24.15
-29.07
-34.35
-38.52
-40.07
-37.92
-31.78
-22.24
-10.54
1.88
13.71
24.04
32.38
38.54
42.54
44.53
44.79
43.77
41.95
39.77
37.5
35.22
32.88
30.44
27.87
25.24
22.66
20.2
17.86
15.69
13.75
12.11
10.73
9.4
7.72
5.26
1.72
-2.89
-8.2
-13.62
-18.51
-22.45
-25.34
-27.45
-29.32
-31.59
-34.81
-39.24
-44.76
-50.81
-56.44
-60.55
-62.07
-60.21
-54.64
-45.53
-33.58
-19.91
-5.83
7.27
18.25
26.33
31.21
33.11
32.63
30.67
28.19
26.03
24.75
24.54
25.24
26.42
27.51
27.99
27.52
26.02
23.62
20.62
17.39
14.23
11.36
8.78
6.4
3.98
1.22
-2.15
-6.32
-11.31
-16.88
-22.59
-27.82
-31.93
-34.49
-35.5
-35.46
-35.25
-35.86
-38.05
-41.97
-47.05
-52.07
-55.5
-55.88
-52.28
-44.57
-33.49
-20.52
-7.48
3.89
12.42
17.66
19.9
19.94
18.76
17.23
16.03
15.59
16.11
17.66
20.13
23.28
26.77
30.2
33.24
35.6
37.07
37.51
36.93
35.48
33.42
30.98
28.18
24.78
20.37
14.65
7.64
-0.19
-8.1
-15.42
-21.82
-27.46
-32.77
-38.16
-43.77
-49.37
-54.48
-58.45
-60.5
-59.76
-55.39
-46.79
-33.96
-17.66
0.68
19.28
36.61
51.72
64.29
74.36
82.0
87.1
89.41
88.79
85.46
80.0
73.18
65.73
58.15
50.71
43.57
36.95
31.2
26.69
23.63
21.94
21.15
20.58
19.52
17.44
14.16
9.8
4.67
-0.86
-6.54
-12.21
-17.82
-23.35
-28.85
-34.3
-39.67
-44.88
-49.86
-54.56
-59.02
-63.34
-67.47
-71.11
-73.53
-73.66
-70.4
-63.02
-51.53
-36.8
-20.33
-3.86
11.15
23.78
33.7
41.04
46.03
48.84
49.55
48.22
45.08
40.64
35.59
30.59
26.02
21.84
17.73
13.35
8.64
3.94
-0.1
-2.81
-3.79
-3.09
-1.27
0.81
2.2
2.16
0.38
-2.95
-7.28
-11.95
-16.48
-20.78
-25.11
-29.95
-35.65
-42.26
-49.35
-56.11
-61.48
-64.31
-63.65
-58.98
-50.4
-38.67
-25.06
-11.05
2.13
13.62
23.16
30.84
36.98
41.81
45.45
47.87
49.04
49.01
47.97
46.19
43.82
40.86
37.11
32.4
26.78
20.63
14.6
9.31
5.03
1.62
-1.38
-4.44
-7.72
-11.07
-14.08
-16.48
-18.23
-19.64
-21.17
-23.34
-26.52
-31.0
-36.89
-44.12
-52.34
-60.79
-68.4
-73.86
-76.0
-74.1
-68.15
-58.83
-47.35
-35.01
-22.83
-11.37
-0.8
8.84
17.34
24.19
28.78
30.77
30.43
28.67
26.76
25.78
26.2
27.68
29.36
30.31
29.93
28.14
25.31
21.9
18.19
14.14
9.47
3.84
-2.85
-10.29
-17.8
-24.48
-29.46
-32.21
-32.66
-31.18
-28.58
-25.99
-24.72
-25.91
-30.17
-37.09
-45.1
-51.75
-54.46
-51.41
-42.34
-28.6
-12.69
2.73
15.61
25.07
31.23
34.83
36.71
37.44
37.19
35.9
33.48
29.95
25.61
20.95
16.54
12.91
10.5
9.62
10.49
13.19
17.52
22.74
27.47
29.84
28.03
21.05
9.36
-5.14
-19.71
-31.8
-40.07
-44.71
-47.14
-49.16
-52.17
-56.75
-62.81
-69.86
-77.26
-84.1
-89.06
-90.53
-87.03
-77.87
-63.72
-46.48
-28.72
-12.73
0.18
9.9
17.18
23.01
28.08
32.61
36.42
39.29
41.13
42.07
42.35
42.18
41.73
41.06
40.22
39.24
38.22
37.26
36.44
35.81
35.31
34.82
34.12
32.99
31.25
28.84
25.87
22.55
19.17
15.91
12.79
9.6
6.0
1.61
-3.74
-9.95
-16.5
-22.55
-27.08
-29.12
-27.98
-23.43
-15.79
-5.87
5.15
15.96
25.4
32.61
37.16
39.04
38.55
36.28
32.91
29.15
25.64
22.79
20.75
19.29
17.95
16.24
13.89
10.97
7.89
5.23
3.43
2.58
2.35
2.11
1.23
-0.73
-3.77
-7.58
-11.69
-15.64
-19.17
-22.27
-25.14
-28.06
-31.24
-34.66
-37.92
-40.22
-40.48
-37.64
-30.96
-20.43
-6.91
7.98
22.24
34.03
42.15
46.31
47.03
45.32
42.27
38.74
35.25
32.04
29.23
26.89
25.05
23.6
22.34
20.99
19.39
17.59
15.83
14.39
13.38
12.6
11.56
9.69
6.59
2.23
-3.01
-8.46
-13.44
-17.55
-20.79
-23.57
-26.53
-30.26
-34.95
-40.21
-44.99
-47.85
-47.36
-42.59
-33.47
-20.85
-6.23
8.69
22.42
33.96
42.83
48.99
52.65
54.21
54.14
52.92
50.94
48.41
45.35
41.71
37.48
32.77
27.82
22.99
18.65
15.09
12.44
10.6
9.16
7.5
4.94
1.02
-4.29
-10.58
-17.04
-22.84
-27.34
-30.32
-32.04
-33.17
-34.59
-37.08
-41.09
-46.39
-51.99
-56.24
-57.32
-53.85
-45.42
-32.8
-17.75
-2.49
11.0
21.42
28.34
32.06
33.28
32.77
31.22
29.17
27.13
25.58
24.94
25.39
26.77
28.6
30.23
31.14
31.1
30.27
29.08
27.94
27.06
26.33
25.39
23.78
21.07
17.06
11.77
5.48
-1.33
-8.09
-14.28
-19.58
-24.0
-27.9
-31.89
-36.63
-42.49
-49.35
-56.39
-62.22
-65.23
-64.14
-58.38
-48.34
-35.21
-20.61
-6.11
7.08
18.24
27.02
33.33
37.14
38.49
37.53
34.61
30.29
25.36
20.64
16.85
14.43
13.49
13.8
14.99
16.72
18.77
21.01
23.29
25.28
26.52
26.45
24.67
21.12
16.06
10.05
3.78
-2.14
-7.32
-11.65
-15.37
-18.95
-23.02
-28.1
-34.4
-41.66
-49.03
-55.28
-59.01
-59.09
-54.98
-46.93
-35.91
-23.31
-10.54
1.28
11.56
20.06
26.78
31.67
34.61
35.45
34.24
31.36
27.47
23.42
19.94
17.5
16.19
15.78
15.89
16.1
16.17
15.98
15.58
15.06
14.4
13.46
11.99
9.77
6.71
3.0
-0.93
-4.61
-7.63
-9.89
-11.59
-13.13
-15.02
-17.71
-21.54
-26.62
-32.68
-38.93
-44.14
-46.85
-45.86
-40.63
-31.61
-20.02
-7.53
4.35
14.56
22.64
28.54
32.32
34.07
33.85
31.83
28.38
24.12
19.72
15.79
12.66
10.4
8.82
7.63
6.58
5.57
4.61
3.73
2.94
2.09
0.97
-0.63
-2.85
-5.6
-8.63
-11.65
-14.4
-16.87
-19.24
-21.89
-25.15
-29.27
-34.22
-39.73
-45.29
-50.11
-53.24
-53.54
-50.07
-42.24
-30.25
-15.11
1.45
17.42
31.03
41.19
47.59
50.59
50.86
49.02
45.57
40.87
35.29
29.42
23.93
19.54
16.67
15.34
15.1
15.18
14.77
13.21
10.26
6.08
1.21
-3.68
-7.92
-11.13
-13.28
-14.62
-15.58
-16.53
-17.71
-19.17
-20.91
-22.85
-24.9
-26.97
-28.95
-30.8
-32.57
-34.46
-36.58
-38.82
-40.62
-40.97
-38.73
-33.0
-23.61
-11.2
2.85
16.89
29.41
39.34
46.18
49.9
50.82
49.46
46.51
42.67
38.6
34.76
31.34
28.23
25.11
21.65
17.62
12.99
8.05
3.43
-0.01
-1.49
-0.62
2.16
5.61
8.0
7.7
3.88
-3.18
-12.25
-21.64
-29.9
-36.16
-40.3
-42.7
-44.02
-44.91
-45.86
-47.02
-48.06
-48.18
-46.32
-41.54
-33.57
-23.04
-11.39
-0.44
8.26
13.87
16.45
16.62
15.22
12.96
10.3
7.51
4.76
2.13
-0.39
-2.91
-5.49
-7.96
-9.77
-10.18
-8.54
-4.75
0.62
6.37
11.09
13.6
13.3
10.29
5.26
-0.86
-7.23
-13.39
-19.44
-25.84
-33.1
-41.38
-50.3
-59.07
-66.77
-72.68
-76.25
-76.97
-74.09
-66.73
-54.29
-36.96
-16.14
5.73
25.86
42.0
53.06
59.27
61.72
61.74
60.39
58.18
55.2
51.35
46.64
41.28
35.72
30.44
25.84
22.11
19.26
17.15
15.64
14.6
13.92
13.44
12.94
12.25
11.34
10.36
9.6
9.3
9.51
9.98
10.24
9.76
8.11
5.13
0.93
-3.97
-8.77
-12.45
-13.98
-12.64
-8.25
-1.32
7.06
15.57
22.99
28.58
32.1
33.78
34.08
33.5
32.45
31.18
29.91
28.78
27.79
26.89
25.82
24.31
22.12
19.24
15.91
12.54
9.56
7.21
5.44
3.9
2.1
-0.39
-3.77
-7.97
-12.64
-17.36
-21.71
-25.47
-28.63
-31.35
-33.94
-36.73
-39.98
-43.81
-47.96
-51.78
-54.16
-53.79
-49.57
-40.98
-28.42
-13.07
3.39
19.32
33.5
45.25
54.23
60.23
62.92
61.97
57.27
49.21
38.75
27.32
16.38
7.11
0.06
-4.79
-7.89
-9.79
-10.96
-11.67
-12.09
-12.37
-12.8
-13.75
-15.58
-18.37
-21.88
-25.54
-28.66
-30.79
-31.87
-32.34
-32.98
-34.52
-37.33
-41.1
-44.86
-47.24
-46.9
-42.95
-35.29
-24.66
-12.38
0.02
11.22
20.4
27.18
31.62
33.97
34.65
34.18
33.24
32.51
32.57
33.7
35.85
38.7
41.81
44.76
47.15
48.55
48.44
46.33
41.92
35.28
26.9
17.57
8.13
-0.77
-8.74
-15.63
-21.38
-25.99
-29.49
-32.14
-34.39
-36.88
-40.21
-44.55
-49.43
-53.68
-55.69
-53.98
-47.69
-37.07
-23.41
-8.71
5.0
16.14
23.94
28.44
30.18
29.91
28.34
26.04
23.45
20.88
18.54
16.51
14.72
13.01
11.25
9.45
7.82
6.77
6.82
8.34
11.43
15.77
20.58
24.86
27.62
28.17
26.24
21.99
15.89
8.5
0.32
-8.35
-17.36
-26.66
-36.18
-45.6
-54.26
-61.04
-64.62
-63.75
-57.82
-47.14
-33.03
-17.44
-2.43
10.41
20.23
26.92
30.76
32.2
31.66
29.51
26.18
22.18
18.03
14.19
10.88
8.14
5.88
3.99
2.42
1.19
0.39
0.05
0.18
0.65
1.2
1.53
1.29
0.23
-1.73
-4.44
-7.55
-10.52
-12.79
-13.97
-13.98
-13.13
-12.12
-11.8
-13.01
-16.14
-20.96
-26.59
-31.59
-34.4
-33.8
-29.3
-21.34
-11.09
-0.13
10.12
18.74
25.41
30.22
33.39
35.0
34.98
33.26
29.93
25.41
20.33
15.42
11.28
8.27
6.39
5.46
5.08
4.79
4.13
2.84
0.84
-1.79
-4.85
-8.17
-11.68
-15.32
-18.98
-22.46
-25.52
-28.05
-30.15
-32.15
-34.44
-37.25
-40.49
-43.76
-46.4
-47.64
-46.71
-42.95
-35.91
-25.49
-12.07
3.49
19.85
35.4
48.53
57.99
63.11
63.97
61.29
56.16
49.7
42.67
35.52
28.43
21.67
15.75
11.32
8.84
8.33
9.15
10.28
10.68
9.76
7.55
4.62
1.73
-0.54
-2.08
-3.22
-4.61
-6.89
-10.43
-15.18
-20.72
-26.4
-31.56
-35.77
-38.93
-41.23
-43.12
-45.17
-47.94
-51.72
-56.32
-60.91
-64.08
-64.07
-59.37
-49.17
-33.79
-14.62
6.23
26.46
44.21
58.28
68.22
74.09
76.21
74.94
70.63
63.68
54.75
44.79
34.92
26.18
19.22
14.12
10.55
8.05
6.3
5.28
5.09
5.75
6.88
7.77
7.58
5.64
1.73
-3.88
-10.44
-17.02
-22.72
-26.94
-29.65
-31.33
-32.85
-35.15
-38.86
-44.05
-50.19
-56.29
-61.15
-63.62
-62.79
-58.14
-49.72
-38.19
-24.81
-11.1
1.58
12.41
21.25
28.45
34.35
38.85
41.33
40.93
37.16
30.37
21.81
13.24
6.19
1.48
-1.11
-2.41
-3.36
-4.53
-5.96
-7.43
-8.8
-10.36
-12.68
-16.33
-21.45
-27.52
-33.48
-38.16
-40.77
-41.23
-40.17
-38.69
-37.81
-38.22
-39.95
-42.44
-44.62
-45.16
-42.7
-36.3
-25.69
-11.46
4.95
21.68
36.87
49.24
58.2
63.87
66.69
67.09
65.39
61.83
56.78
50.97
45.36
40.97
38.54
38.29
39.75
42.01
43.95
44.64
43.64
41.14
37.89
34.86
32.99
32.73
33.92
35.78
37.16
36.89
34.15
28.65
20.73
11.11
0.69
-9.76
-19.75
-29.19
-38.27
-47.27
-56.37
-65.42
-73.9
-80.96
-85.53
-86.53
-83.14
-75.04
-62.52
-46.56
-28.53
-9.95
7.84
23.95
37.88
49.49
58.75
65.67
70.32
72.81
73.4
72.44
70.32
67.42
64.05
60.46
56.9
53.56
50.56
47.9
45.45
42.91
39.88
35.88
30.49
23.4
14.52
4.08
-7.44
-19.34
-30.73
-40.76
-48.61
-53.65
-55.59
-54.6
-51.35
-47.0
-42.99
-40.6
-40.54
-42.62
-45.66
-47.89
-47.55
-43.5
-35.64
-24.89
-12.81
-1.0
9.33
17.57
23.58
27.39
29.02
28.47
25.87
21.64
16.49
11.28
6.71
3.18
0.67
-1.08
-2.33
-3.16
-3.41
-2.86
-1.45
0.64
2.96
5.04
6.58
7.5
7.89
7.75
6.87
4.85
1.28
-4.01
-10.85
-18.85
-27.6
-36.76
-46.02
-54.83
-62.2
-66.75
-67.05
-62.16
-52.05
-37.74
-21.06
-4.09
11.34
24.01
33.43
39.58
42.71
43.14
41.17
37.19
31.81
25.82
20.12
15.44
12.14
10.13
8.96
8.03
6.93
5.53
4.06
2.87
2.27
2.31
2.74
3.07
2.77
1.48
-0.86
-3.89
-7.08
-9.86
-11.99
-13.68
-15.57
-18.52
-23.23
-29.91
-38.04
-46.44
-53.52
-57.64
-57.6
-52.89
-43.83
-31.46
-17.27
-2.88
10.3
21.29
29.58
35.07
37.95
38.64
37.63
35.54
32.92
30.25
27.78
25.48
23.2
20.73
17.98
15.02
12.1
9.5
7.42
5.92
4.82
3.79
2.4
0.28
-2.79
-6.74
-11.2
-15.68
-19.64
-22.78
-24.98
-26.37
-27.21
-27.89
-28.85
-30.44
-32.74
-35.28
-36.92
-36.07
-31.21
-21.58
-7.69
8.72
25.13
39.12
49.02
54.31
55.41
53.25
48.8
42.8
35.8
28.29
20.83
14.04
8.43
4.2
1.24
-0.8
-2.3
-3.46
-4.28
-4.57
-4.28
-3.57
-2.87
-2.8
-3.9
-6.44
-10.28
-14.97
-19.86
-24.33
-28.04
-30.97
-33.48
-36.1
-39.38
-43.61
-48.71
-54.12
-58.88
-61.79
-61.61
-57.36
-48.58
-35.58
-19.42
-1.75
15.65
31.27
44.25
54.33
61.63
66.29
68.3
67.54
64.03
58.2
50.89
43.1
35.66
28.91
22.81
17.13
11.91
7.43
4.21
2.55
2.3
2.81
3.16
2.54
0.53
-2.86
-7.27
-12.25
-17.41
-22.47
-27.3
-31.9
-36.43
-41.21
-46.55
-52.57
-58.84
-64.35
-67.66
-67.26
-62.22
-52.54
-39.26
-24.15
-9.17
4.1
14.72
22.44
27.5
30.37
31.66
32.04
32.29
33.12
35.03
38.07
41.75
45.19
47.45
47.87
46.23
42.76
37.92
32.14
25.72
18.86
11.75
4.69
-1.92
-7.67
-12.24
-15.45
-17.36
-18.18
-18.2
-17.71
-16.97
-16.24
-15.82
-16.16
-17.91
-21.75
-28.06
-36.52
-45.86
-53.98
-58.53
-57.72
-51.05
-39.51
-25.25
-10.86
1.53
10.74
16.61
19.76
21.04
21.24
20.86
20.22
19.54
19.04
18.95
19.48
20.77
22.89
25.84
29.57
33.88
38.42
42.66
45.96
47.78
47.75
45.8
42.02
36.55
29.53
21.13
11.76
2.09
-7.01
-14.72
-20.59
-24.7
-27.58
-29.96
-32.51
-35.61
-39.32
-43.42
-47.48
-50.83
-52.63
-52.0
-48.22
-41.03
-30.77
-18.35
-5.09
7.69
18.93
28.01
34.72
39.12
41.35
41.51
39.75
36.36
31.93
27.26
23.2
20.4
19.07
19.02
19.85
21.08
22.42
23.73
24.97
26.15
27.26
28.36
29.4
30.24
30.53
29.74
27.36
23.16
17.35
10.54
3.47
-3.27
-9.49
-15.37
-21.29
-27.62
-34.52
-41.9
-49.32
-56.07
-61.15
-63.42
-61.88
-56.0
-46.01
-32.96
-18.44
-4.21
8.25
17.98
24.63
28.28
29.24
28.0
25.07
21.07
16.61
12.27
8.52
5.61
3.6
2.42
1.95
2.13
2.93
4.27
6.0
7.85
9.42
10.3
10.13
8.72
6.17
2.85
-0.56
-3.25
-4.52
-4.1
-2.41
-0.52
0.13
-1.82
-7.12
-15.59
-26.15
-37.07
-46.42
-52.51
-54.17
-50.97
-43.19
-31.82
-18.27
-4.08
9.34
20.89
29.87
35.9
38.81
38.7
35.89
31.04
25.09
19.09
13.94
10.17
7.82
6.55
5.83
5.18
4.38
3.45
2.6
2.0
1.61
1.19
0.35
-1.18
-3.38
-5.94
-8.35
-10.17
-11.25
-11.79
-12.29
-13.38
-15.64
-19.4
-24.64
-30.81
-36.84
-41.25
-42.54
-39.64
-32.38
-21.55
-8.69
4.36
16.02
25.24
31.63
35.24
36.42
35.6
33.32
30.12
26.62
23.32
20.6
18.56
17.03
15.68
14.14
12.24
10.06
7.93
6.27
5.33
4.95
4.61
3.57
1.27
-2.43
-7.16
-12.2
-16.83
-20.6
-23.49
-25.81
-28.1
-30.89
-34.54
-39.07
-44.02
-48.35
-50.61
-49.32
-43.42
-32.78
-18.26
-1.42
15.94
32.22
46.28
57.34
64.84
68.39
67.88
63.66
56.6
47.93
38.91
30.53
23.25
17.11
11.88
7.32
3.3
-0.14
-2.89
-4.91
-6.33
-7.44
-8.68
-10.48
-13.13
-16.7
-21.0
-25.71
-30.39
-34.68
-38.39
-41.57
-44.56
-47.86
-51.94
-56.88
-62.13
-66.5
-68.42
-66.42
-59.71
-48.44
-33.78
-17.48
-1.44
12.86
24.58
33.61
40.35
45.42
49.4
52.53
54.69
55.46
54.34
51.01
45.59
38.61
30.96
23.58
17.26
12.44
9.2
7.3
6.26
5.53
4.53
2.77
-0.03
-3.91
-8.64
-13.76
-18.82
-23.48
-27.75
-31.97
-36.65
-42.18
-48.52
-54.94
-60.07
-62.3
-60.22
-53.25
-41.82
-27.37
-11.9
2.59
14.57
23.24
28.49
30.69
30.48
28.53
25.57
22.3
19.4
17.41
16.59
16.94
18.19
20.07
22.52
25.72
29.9
35.02
40.53
45.27
47.88
47.18
42.76
35.08
25.3
14.78
4.67
-4.34
-12.1
-18.77
-24.72
-30.37
-36.04
-41.85
-47.47
-52.05
-54.32
-52.95
-47.01
-36.43
-22.15
-5.93
10.08
23.93
34.24
40.43
42.68
41.67
38.35
33.68
28.51
23.4
18.73
14.62
10.98
7.68
4.6
1.78
-0.55
-2.05
-2.39
-1.49
0.38
2.6
4.41
5.14
4.53
2.9
1.03
-0.13
0.08
1.64
3.7
4.8
3.47
-1.25
-9.32
-19.7
-30.62
-40.07
-46.25
-47.88
-44.45
-36.19
-24.11
-9.75
5.02
18.47
29.31
36.89
41.19
42.67
42.0
39.87
36.9
33.55
30.01
26.32
22.36
18.05
13.5
9.05
5.23
2.6
1.51
1.92
3.35
4.98
5.8
4.95
1.9
-3.29
-9.98
-17.12
-23.57
-28.43
-31.36
-32.65
-33.1
-33.71
-35.37
-38.38
-42.29
-45.82
-47.21
-44.75
-37.51
-25.68
-10.66
5.4
20.3
32.45
41.16
46.53
49.08
49.32
47.64
44.35
39.89
34.86
29.98
25.8
22.56
20.11
18.11
16.22
14.35
12.66
11.39
10.72
10.51
10.4
9.85
8.44
6.02
2.8
-0.7
-3.92
-6.49
-8.34
-9.72
-11.1
-13.0
-15.89
-20.14
-25.94
-33.2
-41.42
-49.61
-56.33
-59.93
-59.01
-52.8
-41.51
-26.34
-9.22
7.71
22.65
34.48
42.94
48.32
51.16
51.87
50.65
47.66
43.19
37.87
32.51
27.86
24.3
21.68
19.5
17.2
14.5
11.53
8.66
6.27
4.45
2.87
0.96
-1.84
-5.79
-10.7
-16.09
-21.4
-26.32
-30.93
-35.67
-41.08
-47.52
-54.93
-62.76
-70.02
-75.5
-78.03
-76.7
-71.15
-61.62
-48.98
-34.53
-19.73
-5.91
5.94
15.23
21.81
25.75
27.25
26.6
24.1
20.06
14.82
8.71
2.13
-4.45
-10.48
-15.41
-18.78
-20.43
-20.51
-19.43
-17.7
-15.81
-14.13
-12.97
-12.62
-13.37
-15.38
-18.55
-22.42
-26.32
-29.54
-31.62
-32.53
-32.67
-32.73
-33.41
-35.05
-37.39
-39.49
-39.93
-37.29
-30.68
-20.1
-6.47
8.66
23.7
37.41
49.14
58.69
66.12
71.47
74.7
75.77
74.73
71.92
67.92
63.53
59.55
56.62
54.99
54.49
54.56
54.45
53.37
50.66
45.92
38.97
29.89
18.97
6.78
-5.87
-17.95
-28.31
-35.96
-40.31
-41.26
-39.3
-35.25
-29.96
-24.02
-17.66
-10.93
-3.85
3.43
10.77
18.28
26.43
36.03
47.78
61.93
77.94
94.68
110.85
125.49
138.19
149.06
158.42
166.54
173.67
180.15
186.49
193.31
200.92
209.06
216.74
222.57
225.24
224.09
219.15
210.86
199.44
184.47
164.89
139.59
108.15
71.39
31.35
-9.27
-47.85
-82.48
-112.17
-136.68
-156.15
-170.83
-181.09
-187.49
-190.91
-192.41
-192.97
-193.1
-192.67
-190.96
-187.09
-180.51
-171.38
-160.51
-149.08
-138.08
-127.97
-118.67
-109.84
-101.34
-93.4
-86.55
-81.28
-77.66
-75.25
-73.23
-70.82
-67.49
-63.14
-58.04
-52.55
-46.99
-41.62
-36.65
-32.26
-28.63
-25.81
-23.74
-22.25
-21.18
-20.5
-20.35
-20.97
-22.55
-25.07
-28.2
-31.42
-34.03
-35.24
-34.27
-30.44
-23.47
-13.68
-2.05
9.9
20.63
29.0
34.56
37.47
38.17
36.99
34.04
29.28
22.91
15.53
8.16
1.95
-2.24
-4.12
-3.96
-2.46
-0.43
1.44
2.74
3.28
3.06
2.13
0.53
-1.77
-4.87
-8.83
-13.59
-18.88
-24.18
-28.87
-32.42
-34.55
-35.33
-35.13
-34.48
-33.95
-34.06
-35.23
-37.62
-41.04
-44.74
-47.48
-47.75
-44.22
-36.27
-24.27
-9.55
5.96
20.28
31.89
39.99
44.44
45.63
44.18
40.8
36.29
31.49
27.29
24.37
23.05
23.09
23.69
23.75
22.35
19.14
14.53
9.57
5.42
2.89
2.0
2.08
2.02
0.82
-2.0
-6.32
-11.53
-16.92
-21.91
-26.27
-30.02
-33.32
-36.37
-39.34
-42.46
-45.99
-50.09
-54.52
-58.47
-60.57
-59.28
-53.45
-42.88
-28.47
-11.94
4.69
19.76
32.31
42.08
49.26
54.2
57.19
58.42
58.04
56.26
53.38
49.78
45.91
42.1
38.51
35.01
31.2
26.65
21.05
14.5
7.51
0.86
-4.69
-8.67
-11.04
-12.16
-12.55
-12.69
-12.88
-13.23
-13.79
-14.62
-15.88
-17.83
-20.71
-24.68
-29.73
-35.68
-42.07
-48.18
-53.01
-55.37
-54.14
-48.59
-38.63
-25.03
-9.16
7.26
22.69
36.01
46.68
54.6
59.89
62.75
63.44
62.36
60.03
57.09
54.08
51.29
48.69
46.01
42.86
38.98
34.29
28.93
23.24
17.56
12.18
7.21
2.58
-1.88
-6.33
-10.78
-15.0
-18.61
-21.23
-22.62
-22.85
-22.27
-21.43
-20.96
-21.42
-23.21
-26.44
-30.91
-35.97
-40.57
-43.41
-43.29
-39.44
-31.91
-21.54
-9.77
1.8
11.91
19.96
25.95
30.32
33.56
35.97
37.62
38.39
38.19
37.08
35.3
33.2
31.1
29.23
27.66
26.32
25.07
23.76
22.23
20.38
18.06
15.16
11.54
7.15
2.05
-3.56
-9.35
-14.96
-20.04
-24.37
-27.88
-30.65
-32.89
-34.9
-37.02
-39.57
-42.66
-46.06
-49.05
-50.58
-49.55
-45.22
-37.54
-27.18
-15.34
-3.38
7.6
16.88
24.11
29.21
32.22
33.28
32.67
30.86
28.4
25.83
23.55
21.71
20.32
19.23
18.29
17.43
16.65
16.01
15.58
15.36
15.26
15.08
14.62
13.66
12.07
9.83
7.03
3.86
0.54
-2.82
-6.26
-10.07
-14.68
-20.48
-27.64
-35.83
-44.26
-51.69
-56.76
-58.25
-55.45
-48.33
-37.62
-24.59
-10.84
2.19
13.46
22.5
29.24
33.8
36.29
36.78
35.44
32.7
29.29
26.03
23.55
22.09
21.41
20.99
20.35
19.28
17.87
16.43
15.26
14.46
13.88
13.21
12.07
10.28
7.92
5.32
2.95
1.18
0.11
-0.53
-1.23
-2.57
-5.0
-8.81
-14.04
-20.45
-27.48
-34.09
-38.96
-40.73
-38.6
-32.63
-23.89
-14.03
-4.69
3.07
8.92
13.15
16.2
18.33
19.59
19.94
19.46
18.47
17.36
16.43
15.7
14.92
13.74
11.97
9.75
7.46
5.61
4.55
4.31
4.54
4.73
4.34
3.08
0.96
-1.76
-4.68
-7.49
-9.96
-12.06
-13.89
-15.66
-17.66
-20.16
-23.31
-26.93
-30.5
-33.16
-34.03
-32.43
-28.2
-21.75
-13.91
-5.71
1.94
8.36
13.24
16.51
18.24
18.59
17.69
15.76
13.09
10.05
7.02
4.34
2.25
0.82
-0.0
-0.33
-0.28
0.04
0.51
0.93
1.03
0.53
-0.73
-2.73
-5.22
-7.86
-10.32
-12.43
-14.23
-15.94
-17.92
-20.52
-24.0
-28.43
-33.58
-38.81
-43.13
-45.33
-44.31
-39.48
-30.97
-19.65
-6.94
5.63
16.8
25.81
32.47
36.97
39.64
40.78
40.63
39.41
37.4
34.96
32.46
30.15
28.07
26.04
23.79
21.16
18.16
14.97
11.83
8.82
5.87
2.75
-0.79
-4.9
-9.53
-14.42
-19.2
-23.44
-26.83
-29.27
-30.9
-32.19
-33.72
-36.04
-39.44
-43.79
-48.47
-52.49
-54.71
-54.1
-49.99
-42.24
-31.32
-18.22
-4.25
9.24
21.15
30.8
37.93
42.69
45.46
46.73
46.96
46.53
45.69
44.56
43.25
41.81
40.32
38.76
37.06
35.06
32.64
29.77
26.56
23.27
20.1
17.13
14.19
10.97
7.2
2.77
-2.2
-7.4
-12.48
-17.11
-21.11
-24.47
-27.42
-30.39
-33.87
-38.26
-43.58
-49.37
-54.69
-58.35
-59.23
-56.62
-50.38
-41.05
-29.6
-17.26
-5.18
5.73
14.96
22.34
27.91
31.85
34.33
35.55
35.78
35.36
34.67
33.92
33.2
32.38
31.28
29.82
28.1
26.36
24.88
23.85
23.23
22.83
22.35
21.45
19.85
17.4
14.06
9.98
5.4
0.6
-4.25
-9.15
-14.27
-19.85
-26.12
-33.09
-40.55
-47.89
-54.22
-58.34
-59.08
-55.58
-47.74
-36.28
-22.6
-8.42
4.82
16.23
25.54
32.86
38.39
42.27
44.56
45.4
45.09
44.1
42.93
41.93
41.21
40.61
39.78
38.4
36.24
33.37
30.08
26.83
23.99
21.66
19.62
17.42
14.64
11.05
6.78
2.16
-2.42
-6.76
-10.88
-15.06
-19.72
-25.31
-32.19
-40.53
-50.21
-60.77
-71.32
-80.64
-87.36
-90.22
-88.41
-81.77
-70.94
-57.14
-41.97
-26.91
-13.07
-0.99
9.29
17.92
25.07
30.73
34.8
37.23
38.15
37.9
36.87
35.38
33.48
31.03
27.89
24.15
20.25
16.89
14.82
14.48
15.84
18.31
20.96
22.8
23.1
21.67
18.76
14.91
10.68
6.37
1.92
-2.97
-8.68
-15.31
-22.53
-29.48
-35.0
-37.85
-37.09
-32.36
-23.96
-12.71
0.24
13.75
26.86
38.89
49.41
58.12
64.78
69.19
71.24
70.95
68.6
64.7
59.86
54.66
49.51
44.46
39.34
33.85
27.82
21.35
14.83
8.81
3.79
0.02
-2.44
-3.76
-4.11
-3.68
-2.68
-1.41
-0.24
0.39
0.08
-1.51
-4.62
-9.42
-15.99
-24.23
-33.72
-43.68
-53.01
-60.49
-65.05
-65.99
-63.16
-57.0
-48.38
-38.5
-28.57
-19.58
-12.11
-6.27
-1.86
1.48
4.02
5.88
7.12
7.89
8.46
9.13
10.14
11.43
12.79
13.97
14.95
15.97
17.43
19.56
22.16
24.61
26.07
25.87
23.81
20.2
15.64
10.78
6.01
1.42
-3.1
-7.66
-12.2
-16.5
-20.22
-23.15
-25.29
-26.89
-28.37
-30.19
-32.68
-35.95
-39.81
-43.78
-47.03
-48.58
-47.42
-42.93
-35.12
-24.72
-13.02
-1.45
8.8
17.05
23.11
27.14
29.34
29.97
29.25
27.5
25.12
22.52
20.03
17.86
16.02
14.51
13.26
12.2
11.28
10.45
9.7
9.09
8.71
8.59
8.6
8.38
7.43
5.21
1.43
-3.91
-10.41
-17.48
-24.44
-30.74
-36.07
-40.39
-43.91
-46.98
-50.01
-53.26
-56.77
-60.21
-62.91
-64.02
-62.72
-58.54
-51.49
-42.14
-31.47
-20.61
-10.5
-1.81
5.15
10.31
13.72
15.51
15.88
15.17
13.84
12.39
11.31
10.87
11.1
11.81
12.66
13.34
13.61
13.44
12.92
12.23
11.55
11.0
10.56
10.12
9.54
8.72
7.61
6.29
4.88
3.49
2.19
0.96
-0.34
-1.95
-4.18
-7.25
-11.2
-15.7
-20.06
-23.32
-24.44
-22.66
-17.72
-10.01
-0.42
9.89
19.81
28.53
35.66
41.1
44.93
47.24
48.01
47.27
45.12
41.91
38.14
34.39
31.07
28.27
25.75
23.17
20.25
16.97
13.63
10.67
8.48
7.27
6.94
7.12
7.24
6.72
5.05
2.0
-2.23
-7.08
-11.74
-15.54
-18.22
-20.09
-21.93
-24.63
-28.75
-34.27
-40.57
-46.53
-50.88
-52.49
-50.69
-45.4
-37.23
-27.31
-17.05
-7.77
-0.37
4.93
8.47
10.82
12.46
13.67
14.49
14.94
15.18
15.61
16.87
19.4
23.23
27.92
32.81
37.44
41.67
45.74
50.01
54.72
59.71
64.22
67.19
67.75
65.52
60.59
53.26
43.99
33.34
21.78
9.44
-3.8
-17.95
-32.71
-47.39
-60.9
-71.69
-77.79
-77.45
-69.98
-56.05
-37.28
-15.76
6.59
27.46
43.02
50.13
48.42
39.87
27.0
12.09
-2.76
-15.51
-24.53
-28.91
-28.71
-24.88
-19.17
-13.56
-9.33
-7.11
-7.15
-9.77
-15.09
-22.17
-28.62
-31.21
-27.84
-17.76
-3.34
10.65
19.05
18.89
10.93
-0.95
-11.95
-18.8
-21.35
-21.8
-22.26
-23.03
-22.57
-19.01
-12.0
-3.42
3.44
5.95
3.29
-3.08
-10.42
-16.14
-18.87
-18.72
-16.75
-14.56
-12.72
-11.26
-9.55
-6.9
-2.96
2.04
7.34
12.05
15.39
17.0
16.87
15.37
13.04
10.42
7.92
5.76
3.98
2.43
0.85
-1.07
-3.49
-6.29
-9.16
-11.58
-13.01
-12.81
-10.56
-6.12
0.23
7.92
16.23
24.54
32.55
39.63
45.46
49.84
52.52
53.09
51.12
46.37
39.03
29.76
19.48
9.31
0.2
-7.15
-12.34
-15.25
-16.08
-15.3
-13.7
-12.22
-11.71
-12.78
-15.69
-20.28
-26.12
-32.61
-39.17
-45.43
-51.36
-57.27
-63.64
-70.89
-78.95
-87.02
-93.53
-96.63
-94.71
-87.05
-74.08
-57.27
-38.69
-20.33
-3.65
10.73
22.77
32.7
40.73
46.85
50.93
52.91
52.95
51.41
48.72
45.17
40.93
36.0
30.48
24.6
18.79
13.43
8.6
4.09
-0.62
-6.01
-12.3
-19.3
-26.53
-33.45
-39.71
-45.22
-50.16
-54.76
-59.07
-62.77
-65.2
-65.33
-62.09
-54.61
-42.6
-26.5
-7.44
13.0
33.16
51.62
67.44
80.11
89.42
95.34
97.96
97.58
94.81
90.49
85.57
80.9
77.1
74.49
73.12
72.8
73.13
73.5
73.25
71.83
69.06
65.16
60.69
56.27
52.25
48.58
44.95
40.98
36.59
31.98
27.52
23.49
19.84
16.26
12.36
7.93
3.14
-1.45
-5.17
-7.53
-8.44
-8.18
-7.24
-5.99
-4.52
-2.75
-0.62
1.67
3.67
4.85
4.85
3.58
1.24
-1.92
-5.82
-10.56
-16.42
-23.61
-32.19
-41.89
-52.01
-61.46
-68.92
-73.2
-73.62
-70.34
-64.32
-56.92
-49.37
-42.4
-36.11
-30.26
-24.63
-19.19
-14.14
-9.62
-5.6
-1.8
2.12
6.45
11.16
16.05
20.75
24.88
28.15
30.41
31.67
32.06
31.73
30.8
29.3
27.21
24.54
21.4
17.94
14.4
10.87
7.33
3.63
-0.41
-4.9
-9.8
-14.89
-19.89
-24.51
-28.54
-31.92
-34.71
-37.02
-39.02
-40.83
-42.52
-44.19
-45.89
-47.64
-49.35
-50.75
-51.38
-50.69
-48.25
-43.9
-37.9
-30.83
-23.43
-16.38
-10.09
-4.73
-0.27
3.38
6.21
8.1
8.95
8.76
7.77
6.43
5.21
4.41
4.05
3.83
3.3
2.14
0.29
-2.01
-4.38
-6.5
-8.29
-9.9
-11.58
-13.55
-15.9
-18.64
-21.76
-25.2
-28.88
-32.48
-35.45
-37.05
-36.55
-33.51
-27.98
-20.49
-11.88
-3.02
5.43
13.14
19.98
25.91
30.79
34.41
36.62
37.4
36.91
35.46
33.39
30.98
28.39
25.73
23.06
20.35
17.52
14.47
11.11
7.45
3.59
-0.26
-3.96
-7.49
-10.94
-14.43
-18.02
-21.68
-25.31
-28.76
-31.84
-34.21
-35.39
-34.78
-31.85
-26.44
-18.85
-9.82
-0.26
8.94
17.13
23.89
29.01
32.38
34.01
34.09
33.01
31.28
29.34
27.48
25.74
23.97
21.99
19.68
17.04
14.16
11.09
7.95
4.76
1.54
-1.69
-4.94
-8.24
-11.7
-15.47
-19.73
-24.57
-29.88
-35.18
-39.73
-42.57
-42.84
-40.06
-34.3
-26.16
-16.51
-6.21
4.05
13.8
22.65
30.25
36.22
40.33
42.64
43.45
43.33
42.83
42.32
41.87
41.3
40.39
38.99
37.15
35.08
33.03
31.11
29.31
27.44
25.32
22.9
20.28
17.6
14.95
12.27
9.38
6.09
2.39
-1.47
-5.07
-7.93
-9.72
-10.3
-9.8
-8.47
-6.63
-4.64
-2.81
-1.42
-0.67
-0.64
-1.31
-2.6
-4.3
-6.19
-8.01
-9.52
-10.61
-11.29
-11.69
-12.01
-12.4
-12.93
-13.64
-14.47
-15.41
-16.4
-17.37
-18.25
-18.97
-19.57
-20.2
-21.09
-22.39
-24.09
-25.96
-27.55
-28.36
-27.95
-26.02
-22.53
-17.66
-11.81
-5.54
0.55
5.99
10.5
13.99
16.52
18.16
18.91
18.74
17.64
15.83
13.66
11.61
10.01
8.9
8.04
7.05
5.61
3.66
1.36
-0.98
-3.09
-4.87
-6.32
-7.56
-8.72
-9.99
-11.51
-13.42
-15.66
-17.96
-19.78
-20.48
-19.56
-16.83
-12.54
-7.21
-1.5
4.04
9.02
13.23
16.59
19.04
20.51
20.97
20.45
19.12
17.25
15.14
13.02
10.96
8.85
6.5
3.77
0.65
-2.71
-6.02
-9.09
-11.8
-14.15
-16.25
-18.16
-19.95
-21.7
-23.51
-25.46
-27.49
-29.31
-30.41
-30.16
-28.05
-23.92
-18.06
-11.06
-3.71
3.38
9.82
15.53
20.57
24.97
28.62
31.26
32.7
32.9
32.14
30.79
29.24
27.57
25.58
22.86
19.13
14.34
8.83
3.13
-2.25
-7.13
-11.56
-15.84
-20.2
-24.7
-29.27
-33.74
-37.99
-41.99
-45.68
-48.88
-51.23
-52.25
-51.49
-48.69
-43.93
-37.51
-29.92
-21.75
-13.68
-6.35
-0.4
3.7
5.81
6.23
5.71
5.34
6.25
9.23
14.45
21.31
28.66
35.13
39.67
41.93
42.28
41.62
40.95
40.89
41.47
42.15
41.92
39.64
34.27
25.22
12.68
-2.25
-17.63
-31.17
-40.82
-45.45
-45.09
-40.72
-33.86
-25.99
-18.21
-11.24
-5.55
-1.42
1.01
1.88
1.68
1.15
1.14
2.26
4.69
8.21
12.24
16.13
19.37
21.67
23.01
23.53
23.46
23.02
22.38
21.64
20.83
19.92
18.82
17.45
15.76
13.82
11.81
9.91
8.27
6.89
5.66
4.44
3.15
1.87
0.7
-0.22
-0.85
-1.27
-1.69
-2.29
-3.26
-4.65
-6.36
-8.23
-10.0
-11.48
-12.57
-13.31
-13.89
-14.57
-15.59
-17.04
-18.83
-20.75
-22.53
-24.01
-25.16
-26.06
-26.76
-27.25
-27.32
-26.74
-25.31
-23.02
-20.02
-16.56
-12.87
-9.06
-5.26
-1.65
1.44
3.68
4.91
5.34
5.52
6.08
7.48
9.7
12.37
14.88
16.78
17.91
18.39
18.43
18.16
17.54
16.44
14.83
12.83
10.75
8.93
7.63
6.97
6.87
7.19
7.71
8.28
8.72
8.94
8.86
8.5
7.91
7.14
6.26
5.3
4.32
3.38
2.56
1.94
1.55
1.36
1.26
1.21
1.18
1.28
1.61
2.26
3.19
4.32
5.51
6.66
7.75
8.77
9.69
10.43
10.85
10.82
10.28
9.28
7.94
6.34
4.44
2.12
-0.76
-4.23
-8.12
-12.07
-15.66
-18.56
-20.58
-21.7
-21.94
-21.31
-19.8
-17.41
-14.24
-10.53
-6.64
-2.95
0.23
2.75
4.56
5.73
6.38
6.66
6.7
6.58
6.36
6.09
5.8
5.5
5.16
4.68
3.96
2.91
1.57
0.13
-1.2
-2.28
-3.21
-4.29
-5.9
-8.31
-11.49
-15.15
-18.96
-22.63
-25.99
-28.91
-31.11
-32.13
-31.44
-28.76
-24.2
-18.33
-12.02
-6.1
-1.1
2.82
5.77
7.93
9.41
10.18
10.19
9.42
8.04
6.32
4.56
2.94
1.44
-0.11
-1.87
-3.92
-6.12
-8.22
-9.93
-11.11
-11.87
-12.44
-13.19
-14.35
-16.05
-18.29
-21.01
-23.96
-26.77
-28.89
-29.64
-28.47
-25.08
-19.58
-12.53
-4.74
2.88
9.55
14.74
18.24
20.08
20.5
19.8
18.3
16.26
13.87
11.21
8.37
5.44
2.6
0.06
-1.99
-3.44
-4.36
-5.02
-5.79
-7.05
-9.13
-12.23
-16.52
-22.11
-29.0
-36.94
-45.47
-54.06
-62.39
-70.52
-78.89
-87.89
-97.43
-106.56
-113.69
-117.02
-115.35
-108.51
-97.44
-83.74
-69.04
-54.59
-41.04
-28.61
-17.33
-7.15
1.91
9.93
17.02
23.29
28.82
33.62
37.66
40.96
43.54
45.38
46.33
46.04
44.1
40.24
34.54
27.52
20.01
12.82
6.5
1.14
-3.58
-8.2
-13.32
-19.37
-26.45
-34.06
-41.09
-45.93
-46.82
-42.43
-32.36
-17.31
1.1
20.9
40.36
58.34
74.27
87.88
98.86
106.64
110.49
109.73
104.0
93.52
79.2
62.51
45.24
29.11
15.28
4.15
-4.64
-11.89
-18.43
-24.72
-30.78
-36.33
-41.07
-44.94
-48.21
-51.31
-54.62
-58.34
-62.51
-67.06
-71.88
-76.67
-80.79
-83.17
-82.44
-77.4
-67.56
-53.4
-36.4
-18.53
-1.68
12.78
24.15
32.28
37.3
39.48
39.23
37.17
34.06
30.72
27.8
25.67
24.39
23.77
23.55
23.53
23.62
23.88
24.43
25.39
26.76
28.37
29.82
30.6
30.25
28.54
25.47
21.34
16.45
11.04
5.13
-1.27
-7.96
-14.33
-19.35
-21.76
-20.6
-15.53
-7.13
3.34
14.29
24.36
32.75
39.34
44.44
48.51
51.91
54.88
57.58
60.24
63.17
66.64
70.71
75.17
79.51
83.12
85.56
86.67
86.62
85.77
84.51
83.07
81.46
79.51
77.0
73.74
69.69
64.95
59.66
53.94
47.73
40.83
32.96
24.06
14.47
5.03
-3.02
-8.4
-10.24
-8.37
-3.41
3.43
10.79
17.45
22.65
26.05
27.64
27.61
26.19
23.66
20.38
16.78
13.3
10.36
8.18
6.8
6.02
5.54
5.06
4.36
3.38
2.11
0.57
-1.26
-3.43
-6.0
-9.0
-12.38
-16.04
-19.83
-23.53
-27.04
-30.41
-33.85
-37.63
-41.75
-45.76
-48.79
-49.69
-47.56
-42.15
-33.96
-24.06
-13.76
-4.19
3.91
10.13
14.33
16.55
16.95
15.86
13.71
11.0
8.14
5.44
3.06
1.1
-0.45
-1.69
-2.78
-3.89
-5.15
-6.57
-8.0
-9.33
-10.44
-11.39
-12.3
-13.36
-14.69
-16.4
-18.5
-21.02
-23.96
-27.28
-30.83
-34.3
-37.19
-38.83
-38.53
-35.71
-30.12
-21.96
-11.89
-0.89
9.94
19.67
27.7
33.77
37.95
40.45
41.55
41.49
40.57
39.07
37.32
35.62
34.19
33.11
32.33
31.69
30.96
29.95
28.43
26.23
23.18
19.18
14.22
8.46
2.26
-3.93
-9.7
-14.84
-19.44
-23.81
-28.34
-33.21
-38.28
-43.0
-46.54
-48.06
-46.92
-42.85
-36.09
-27.28
-17.33
-7.3
1.85
9.4
14.93
18.32
19.65
19.16
17.15
14.07
10.43
6.72
3.33
0.4
-2.1
-4.27
-6.14
-7.61
-8.61
-9.14
-9.43
-9.77
-10.41
-11.37
-12.51
-13.69
-14.92
-16.5
-18.89
-22.52
-27.54
-33.69
-40.3
-46.4
-50.94
-53.01
-52.05
-48.01
-41.32
-32.76
-23.26
-13.63
-4.58
3.36
9.75
14.22
16.59
16.96
15.76
13.66
11.4
9.57
8.48
8.17
8.44
9.03
9.72
10.33
10.8
11.11
11.22
11.08
10.6
9.72
8.46
6.84
4.89
2.48
-0.6
-4.61
-9.61
-15.21
-20.59
-24.55
-25.89
-23.86
-18.37
-10.14
-0.42
9.43
18.25
25.37
30.57
33.94
35.64
35.79
34.47
31.8
28.15
24.08
20.3
17.35
15.5
14.55
14.04
13.39
12.18
10.31
7.92
5.23
2.39
-0.59
-3.84
-7.47
-11.46
-15.75
-20.22
-24.9
-29.86
-35.09
-40.29
-44.72
-47.32
-47.06
-43.3
-36.12
-26.39
-15.49
-4.91
4.16
11.1
15.79
18.49
19.52
19.2
17.79
15.57
12.91
10.24
7.95
6.29
5.32
4.95
4.95
5.1
5.2
5.12
4.87
4.56
4.34
4.28
4.27
4.0
3.14
1.46
-1.06
-4.27
-7.98
-12.09
-16.49
-20.86
-24.49
-26.27
-25.09
-20.3
-12.14
-1.74
9.29
19.37
27.48
33.29
36.97
38.91
39.41
38.67
36.85
34.15
30.87
27.37
23.98
20.88
18.13
15.62
13.18
10.59
7.66
4.35
0.72
-3.07
-6.86
-10.52
-14.04
-17.44
-20.79
-24.21
-27.87
-31.99
-36.84
-42.52
-48.77
-54.9
-59.81
-62.29
-61.37
-56.67
-48.59
-38.13
-26.65
-15.41
-5.38
2.93
9.38
14.1
17.24
18.98
19.4
18.64
16.9
14.55
12.04
9.8
8.08
6.86
5.86
4.65
2.89
0.44
-2.62
-5.97
-9.34
-12.55
-15.63
-18.73
-22.09
-25.89
-30.2
-35.0
-40.04
-44.84
-48.6
-50.25
-48.75
-43.37
-34.05
-21.53
-7.12
7.66
21.53
33.65
43.64
51.34
56.66
59.51
59.95
58.27
55.09
51.11
46.96
42.88
38.76
34.24
28.88
22.42
14.87
6.55
-1.98
-10.09
-17.21
-23.06
-27.65
-31.34
-34.63
-38.11
-42.28
-47.47
-53.76
-60.83
-67.94
-73.88
-77.26
-76.88
-72.11
-63.15
-50.96
-36.87
-22.23
-8.09
4.88
16.23
25.66
32.94
37.96
40.9
42.25
42.69
42.92
43.47
44.5
45.83
47.03
47.55
46.93
44.85
41.31
36.64
31.51
26.86
23.59
22.3
22.92
24.66
26.06
25.43
21.4
13.4
2.0
-11.19
-23.93
-34.03
-39.91
-41.08
-38.04
-32.04
-24.63
-17.2
-10.74
-5.88
-2.99
-2.31
-4.01
-8.13
-14.46
-22.53
-31.56
-40.54
-48.39
-54.06
-56.75
-56.02
-51.9
-44.94
-36.12
-26.6
-17.54
-9.79
-3.8
0.4
3.09
4.62
5.34
5.43
4.93
3.74
1.64
-1.57
-5.92
-11.04
-16.04
-19.63
-20.45
-17.55
-10.74
-0.69
11.32
23.86
35.68
45.96
54.26
60.34
64.12
65.66
65.26
63.39
60.68
57.67
54.67
51.71
48.69
45.41
41.73
37.62
33.15
28.41
23.52
18.57
13.61
8.69
3.84
-0.94
-5.67
-10.42
-15.29
-20.38
-25.71
-31.04
-35.76
-39.01
-39.81
-37.47
-31.81
-23.28
-12.8
-1.5
9.53
19.43
27.53
33.36
36.59
37.14
35.25
31.47
26.57
21.43
16.8
13.12
10.5
8.76
7.55
6.54
5.55
4.59
3.79
3.25
2.94
2.73
2.38
1.76
0.81
-0.43
-2.01
-4.07
-6.85
-10.48
-14.82
-19.39
-23.37
-25.81
-25.84
-22.94
-17.09
-8.76
1.15
11.51
21.26
29.56
35.93
40.19
42.33
42.45
40.75
37.51
33.22
28.5
24.05
20.45
18.11
17.13
17.36
18.46
20.03
21.7
23.22
24.45
25.36
25.92
26.09
25.72
24.62
22.63
19.67
15.72
10.84
5.17
-1.06
-7.42
-13.33
-18.06
-21.02
-21.86
-20.7
-18.09
-14.8
-11.68
-9.39
-8.31
-8.57
-10.1
-12.73
-16.22
-20.36
-24.87
-29.45
-33.74
-37.38
-40.09
-41.73
-42.36
-42.16
-41.38
-40.18
-38.67
-36.87
-34.88
-32.87
-31.13
-29.93
-29.49
-29.9
-31.16
-33.2
-35.93
-39.11
-42.3
-44.81
-45.77
-44.35
-40.09
-33.07
-23.93
-13.71
-3.55
5.63
13.24
19.03
22.95
24.99
25.23
23.8
21.02
17.44
13.75
10.61
8.39
7.1
6.42
5.84
4.95
3.55
1.7
-0.36
-2.41
-4.31
-6.08
-7.85
-9.83
-12.35
-15.8
-20.53
-26.69
-34.01
-41.68
-48.49
-53.05
-54.16
-51.23
-44.32
-34.24
-22.21
-9.61
2.38
12.89
21.48
28.02
32.52
35.08
35.8
34.85
32.6
29.57
26.39
23.6
21.5
20.07
19.09
18.19
17.02
15.3
12.92
9.91
6.4
2.65
-1.09
-4.66
-8.09
-11.58
-15.49
-20.21
-25.98
-32.67
-39.63
-45.72
-49.45
-49.42
-44.82
-35.8
-23.49
-9.68
3.79
15.55
24.9
31.72
36.15
38.28
38.17
35.89
31.75
26.22
19.94
13.48
7.31
1.75
-2.99
-6.8
-9.8
-12.23
-14.53
-17.13
-20.3
-24.04
-28.13
-32.22
-35.95
-39.07
-41.41
-42.93
-43.79
-44.36
-45.11
-46.35
-47.88
-48.88
-47.97
-43.73
-35.25
-22.55
-6.64
10.85
28.18
43.97
57.41
68.16
76.15
81.47
84.24
84.84
83.88
82.16
80.53
79.59
79.54
80.2
81.13
81.85
82.06
81.56
80.23
77.89
74.23
68.95
61.93
53.43
44.1
34.85
26.6
19.95
15.13
11.89
9.7
7.92
5.98
3.52
0.52
-2.76
-5.83
-8.11
-9.21
-9.04
-7.88
-6.33
-5.01
-4.42
-4.75
-5.96
-7.81
-10.02
-12.28
-14.32
-15.87
-16.76
-16.83
-16.13
-14.84
-13.27
-11.73
-10.48
-9.58
-8.92
-8.32
-7.57
-6.6
-5.51
-4.48
-3.76
-3.49
-3.67
-4.16
-4.69
-5.05
-5.09
-4.82
-4.41
-4.18
-4.55
-5.89
-8.41
-11.92
-15.77
-19.07
-20.82
-20.37
-17.62
-12.99
-7.32
-1.45
4.01
8.72
12.61
15.69
17.85
18.94
18.84
17.61
15.54
13.05
10.53
8.23
6.14
4.08
1.84
-0.66
-3.31
-5.8
-7.72
-8.69
-8.49
-7.09
-4.79
-2.01
0.69
2.81
3.97
3.99
2.82
0.53
-2.83
-7.23
-12.56
-18.66
-25.19
-31.56
-37.07
-40.97
-42.66
-41.9
-38.95
-34.42
-29.19
-24.14
-19.94
-16.93
-15.26
-14.81
-15.38
-16.63
-18.16
-19.58
-20.58
-21.08
-21.22
-21.22
-21.21
-21.11
-20.71
-19.81
-18.4
-16.76
-15.36
-14.73
-15.22
-16.97
-19.83
-23.51
-27.58
-31.61
-35.23
-38.28
-40.87
-43.33
-46.04
-49.12
-52.24
-54.66
-55.46
-53.93
-49.81
-43.38
-35.29
-26.32
-17.17
-8.4
-0.41
6.43
11.83
15.62
17.86
18.82
18.94
18.64
18.21
17.8
17.37
16.82
16.04
15.0
13.68
12.11
10.32
8.3
6.1
3.76
1.43
-0.77
-2.77
-4.61
-6.49
-8.66
-11.4
-14.85
-18.97
-23.55
-28.17
-32.34
-35.48
-37.04
-36.62
-34.07
-29.6
-23.73
-17.21
-10.8
-5.09
-0.41
3.09
5.47
6.78
7.13
6.64
5.51
4.0
2.42
1.04
-0.02
-0.66
-0.95
-0.94
-0.74
-0.45
-0.26
-0.33
-0.88
-2.08
-4.0
-6.61
-9.8
-13.46
-17.58
-22.24
-27.63
-33.88
-40.91
-48.29
-55.16
-60.39
-62.8
-61.49
-56.14
-47.16
-35.56
-22.72
-9.99
1.51
11.07
18.35
23.28
26.0
26.85
26.33
25.07
23.71
22.78
22.56
23.14
24.37
25.95
27.51
28.63
29.0
28.46
27.09
25.14
22.86
20.37
17.6
14.32
10.24
5.09
-1.28
-8.93
-17.65
-26.9
-35.64
-42.49
-45.98
-45.04
-39.36
-29.53
-16.86
-2.93
10.78
23.2
33.68
41.86
47.56
50.76
51.67
50.74
48.72
46.5
44.88
44.35
45.03
46.63
48.69
50.75
52.45
53.63
54.15
53.84
52.46
49.83
45.97
41.14
35.88
30.74
26.09
22.0
18.21
14.26
9.68
4.07
-2.68
-10.36
-18.26
-25.29
-30.06
-31.37
-28.55
-21.76
-11.91
-0.39
11.35
22.13
31.14
37.92
42.2
43.86
42.99
39.95
35.4
30.14
24.93
20.35
16.66
13.84
11.73
10.13
8.93
8.1
7.71
7.78
8.23
8.83
9.22
9.1
8.26
6.7
4.57
2.09
-0.57
-3.33
-6.2
-9.35
-12.93
-17.02
-21.45
-25.71
-28.93
-30.07
-28.23
-22.93
-14.34
-3.23
9.27
21.92
33.67
43.76
51.76
57.57
61.31
63.34
64.07
63.96
63.36
62.5
61.46
60.22
58.71
56.9
54.78
52.44
49.99
47.48
44.93
42.27
39.43
36.32
32.9
29.16
25.07
20.61
15.75
10.55
5.09
-0.57
-6.46
-12.76
-19.63
-27.02
-34.54
-41.41
-46.76
-49.84
-50.39
-48.65
-45.23
-40.89
-36.3
-31.94
-28.12
-25.02
-22.73
-21.22
-20.36
-19.91
-19.59
-19.19
-18.63
-17.96
-17.36
-17.01
-17.05
-17.44
-18.01
-18.49
-18.61
-18.24
-17.49
-16.59
-15.91
-15.78
-16.4
-17.8
-19.9
-22.47
-25.26
-27.95
-30.28
-32.05
-33.12
-33.37
-32.65
-30.81
-27.7
-23.33
-17.87
-11.68
-5.23
1.03
6.76
11.71
15.68
18.54
20.2
20.64
20.02
18.66
17.06
15.76
15.24
15.84
17.7
20.79
24.91
29.78
35.02
40.15
44.64
48.04
50.06
50.71
50.14
48.59
46.15
42.67
37.87
31.45
23.35
13.88
3.76
-6.04
-14.44
-20.47
-23.47
-23.23
-20.11
-14.94
-8.9
-3.19
1.16
3.51
3.55
1.27
-3.16
-9.41
-16.99
-25.2
-33.17
-40.03
-45.11
-48.1
-49.13
-48.67
-47.36
-45.81
-44.43
-43.39
-42.61
-41.9
-41.11
-40.23
-39.37
-38.74
-38.51
-38.78
-39.57
-40.88
-42.66
-44.74
-46.75
-48.1
-48.11
-46.3
-42.57
-37.25
-31.02
-24.55
-18.32
-12.61
-7.51
-3.22
-0.04
1.73
1.95
0.8
-1.19
-3.35
-5.06
-5.94
-5.88
-5.03
-3.67
-2.1
-0.52
0.98
2.37
3.65
4.76
5.63
6.13
6.2
5.85
5.12
4.0
2.38
0.01
-3.24
-7.28
-11.55
-15.25
-17.42
-17.36
-14.76
-9.86
-3.26
4.26
11.95
19.17
25.48
30.61
34.37
36.65
37.41
36.7
34.75
31.96
28.85
25.92
23.5
21.61
20.03
18.38
16.36
13.83
10.84
7.52
4.02
0.4
-3.33
-7.22
-11.3
-15.58
-20.09
-24.89
-30.08
-35.7
-41.6
-47.33
-52.09
-54.85
-54.57
-50.59
-42.83
-31.94
-19.15
-5.92
6.38
16.77
24.73
30.16
33.19
34.07
33.14
30.78
27.45
23.62
19.65
15.78
12.0
8.19
4.18
-0.1
-4.55
-8.98
-13.15
-16.94
-20.36
-23.55
-26.62
-29.61
-32.39
-34.81
-36.82
-38.64
-40.65
-43.22
-46.38
-49.63
-51.9
-51.84
-48.25
-40.46
-28.62
-13.65
3.01
19.79
35.33
48.72
59.46
67.45
72.76
75.59
76.21
74.97
72.37
69.03
65.59
62.5
59.85
57.4
54.57
50.72
45.35
38.25
29.47
19.29
8.03
-3.98
-16.43
-28.93
-41.11
-52.62
-63.23
-72.81
-81.19
-87.99
-92.48
-93.71
-90.77
-83.22
-71.35
-56.27
-39.57
-22.96
-7.78
5.08
15.25
22.61
27.16
28.97
28.25
25.47
21.38
16.94
13.13
10.66
9.84
10.51
12.07
13.67
14.5
14.01
12.08
9.05
5.53
2.16
-0.56
-2.37
-3.23
-3.26
-2.7
-1.93
-1.42
-1.67
-2.92
-4.91
-6.84
-7.47
-5.52
-0.11
8.89
20.83
34.45
48.24
60.86
71.33
79.13
84.17
86.58
86.63
84.59
80.73
75.39
68.95
61.83
54.41
46.96
39.58
32.24
24.93
17.73
10.87
4.63
-0.77
-5.27
-9.03
-12.28
-15.19
-17.79
-20.02
-21.79
-23.06
-23.87
-24.36
-24.75
-25.32
-26.26
-27.55
-28.82
-29.32
-28.11
-24.37
-17.72
-8.5
2.36
13.59
23.91
32.4
38.58
42.3
43.7
43.01
40.5
36.53
31.49
25.85
20.12
14.84
10.41
7.09
4.94
3.81
3.49
3.73
4.36
5.28
6.42
7.7
8.97
10.05
10.75
10.94
10.57
9.59
7.97
5.65
2.6
-1.14
-5.35
-9.61
-13.37
-16.04
-17.16
-16.42
-13.82
-9.56
-4.06
2.18
8.57
14.56
19.62
23.36
25.57
26.23
25.54
23.85
21.59
19.12
16.64
14.19
11.73
9.22
6.75
4.5
2.7
1.42
0.54
-0.25
-1.36
-3.08
-5.46
-8.32
-11.27
-13.88
-15.84
-16.94
-17.14
-16.43
-14.93
-12.86
-10.64
-8.76
-7.62
-7.3
-7.46
-7.39
-6.33
-3.8
0.17
5.02
9.96
14.25
17.45
19.43
20.29
20.16
19.14
17.31
14.82
11.9
8.89
6.09
3.75
1.95
0.64
-0.36
-1.27
-2.32
-3.65
-5.31
-7.23
-9.26
-11.25
-13.06
-14.62
-15.99
-17.29
-18.73
-20.41
-22.34
-24.42
-26.48
-28.39
-30.02
-31.25
-31.86
-31.56
-30.06
-27.23
-23.21
-18.46
-13.6
-9.17
-5.53
-2.82
-1.03
-0.12
-0.07
-0.8
-2.13
-3.8
-5.49
-6.96
-8.09
-8.88
-9.41
-9.77
-10.03
-10.21
-10.34
-10.4
-10.34
-10.0
-9.24
-7.89
-5.95
-3.6
-1.19
0.8
1.95
1.93
0.63
-1.77
-4.89
-8.18
-11.04
-12.98
-13.65
-12.97
-11.09
-8.41
-5.48
-2.85
-0.99
-0.12
-0.22
-1.11
-2.62
-4.6
-6.97
-9.6
-12.23
-14.51
-16.07
-16.74
-16.64
-16.11
-15.53
-15.09
-14.76
-14.36
-13.77
-13.04
-12.42
-12.22
-12.65
-13.75
-15.4
-17.47
-19.84
-22.46
-25.22
-27.92
-30.08
-31.09
-30.33
-27.46
-22.52
-16.01
-8.75
-1.6
4.81
10.14
14.4
17.68
20.07
21.48
21.8
20.98
19.19
16.82
14.37
12.29
10.85
10.06
9.73
9.54
9.15
8.3
6.89
5.0
2.86
0.72
-1.25
-3.09
-4.96
-7.15
-9.88
-13.23
-17.09
-21.21
-25.19
-28.55
-30.73
-31.21
-29.6
-25.81
-20.1
-13.08
-5.54
1.72
8.06
13.08
16.62
18.69
19.43
19.02
17.7
15.76
13.54
11.39
9.61
8.35
7.59
7.15
6.77
6.24
5.47
4.51
3.46
2.38
1.26
-0.0
-1.49
-3.19
-5.03
-6.95
-9.0
-11.29
-14.0
-17.11
-20.33
-23.11
-24.8
-24.82
-22.89
-19.05
-13.64
-7.2
-0.34
6.35
12.31
17.08
20.37
22.06
22.26
21.25
19.43
17.26
15.13
13.29
11.88
10.9
10.26
9.84
9.53
9.24
8.86
8.25
7.26
5.81
3.91
1.73
-0.5
-2.59
-4.47
-6.22
-8.04
-10.17
-12.8
-16.02
-19.75
-23.74
-27.47
-30.3
-31.5
-30.47
-26.88
-20.83
-12.89
-4.02
4.69
12.26
18.02
21.8
23.75
24.27
23.75
22.54
20.89
19.03
17.19
15.64
14.58
14.1
14.1
14.35
14.53
14.38
13.76
12.65
11.15
9.42
7.59
5.72
3.78
1.72
-0.52
-2.94
-5.55
-8.37
-11.52
-15.13
-19.2
-23.47
-27.29
-29.73
-29.87
-27.12
-21.42
-13.26
-3.57
6.71
16.77
26.01
33.96
40.21
44.3
45.87
44.86
41.57
36.67
30.98
25.22
19.89
15.17
11.09
7.58
4.59
2.03
-0.31
-2.67
-5.36
-8.55
-12.26
-16.27
-20.36
-24.29
-27.97
-31.44
-34.82
-38.3
-42.08
-46.36
-51.13
-56.1
-60.52
-63.29
-63.21
-59.45
-51.89
-41.22
-28.69
-15.72
-3.47
7.3
16.28
23.33
28.45
31.65
33.12
33.23
32.53
31.62
30.86
30.27
29.52
28.08
25.49
21.49
16.22
10.11
3.8
-2.06
-6.94
-10.61
-13.06
-14.57
-15.55
-16.42
-17.58
-19.31
-21.81
-25.16
-29.26
-33.78
-38.08
-41.28
-42.39
-40.57
-35.47
-27.37
-17.22
-6.36
3.83
12.34
18.74
23.14
25.95
27.59
28.31
28.21
27.36
25.96
24.36
22.9
21.76
20.91
20.16
19.29
18.19
16.83
15.22
13.33
11.06
8.32
5.09
1.5
-2.25
-5.91
-9.3
-12.36
-15.17
-17.95
-20.98
-24.47
-28.42
-32.49
-35.99
-37.94
-37.37
-33.52
-26.2
-15.73
-3.02
10.75
24.24
36.29
45.96
52.74
56.47
57.38
56.01
53.05
49.24
45.2
41.32
37.78
34.59
31.65
28.89
26.29
23.84
21.52
19.3
17.15
15.09
13.15
11.33
9.58
7.7
5.45
2.64
-0.8
-4.88
-9.58
-14.88
-20.68
-26.6
-31.87
-35.35
-35.9
-32.75
-25.84
-15.94
-4.37
7.36
17.97
26.6
32.83
36.59
38.06
37.55
35.53
32.53
29.05
25.56
22.38
19.73
17.69
16.21
15.15
14.24
13.21
11.78
9.82
7.26
4.19
0.74
-2.88
-6.55
-10.18
-13.8
-17.51
-21.51
-26.0
-31.18
-37.09
-43.51
-49.86
-55.17
-58.27
-58.15
-54.2
-46.58
-36.17
-24.27
-12.3
-1.4
7.7
14.65
19.34
21.82
22.21
20.75
17.86
14.09
10.03
6.24
3.11
0.86
-0.48
-1.09
-1.27
-1.4
-1.82
-2.76
-4.26
-6.19
-8.36
-10.57
-12.74
-14.92
-17.27
-20.08
-23.65
-28.22
-33.9
-40.41
-47.05
-52.69
-56.03
-55.91
-51.76
-43.72
-32.65
-19.93
-7.08
4.54
13.88
20.35
23.81
24.53
23.08
20.25
16.85
13.57
10.95
9.24
8.53
8.73
9.62
10.89
12.21
13.29
13.88
13.86
13.13
11.71
9.64
6.99
3.88
0.46
-3.18
-6.94
-10.83
-14.91
-19.3
-24.11
-29.15
-33.84
-37.08
-37.49
-33.85
-25.59
-13.22
1.8
17.33
31.26
42.0
48.77
51.57
50.97
47.82
43.04
37.51
31.99
27.07
23.17
20.44
18.84
18.13
17.93
17.82
17.45
16.54
14.97
12.8
10.14
7.24
4.31
1.53
-1.05
-3.6
-6.39
-9.84
-14.33
-20.08
-27.05
-34.88
-42.75
-49.51
-53.77
-54.25
-50.19
-41.59
-29.28
-14.65
0.77
15.66
29.07
40.37
49.17
55.23
58.61
59.75
59.5
58.89
58.78
59.64
61.45
63.86
66.46
68.9
70.97
72.44
73.06
72.58
70.86
68.01
64.32
60.2
55.91
51.57
47.06
42.14
36.57
30.11
22.63
14.1
4.75
-4.86
-13.86
-21.19
-25.94
-27.57
-26.14
-22.23
-16.82
-11.01
-5.81
-2.01
-0.09
-0.18
-2.07
-5.24
-9.04
-12.8
-16.0
-18.38
-19.91
-20.73
-21.05
-21.07
-20.98
-20.94
-21.12
-21.67
-22.69
-24.19
-26.02
-27.95
-29.74
-31.26
-32.53
-33.78
-35.31
-37.48
-40.52
-44.41
-48.86
-53.22
-56.58
-57.99
-56.63
-52.07
-44.42
-34.34
-22.87
-11.18
-0.39
8.66
15.45
19.81
21.87
22.02
20.82
18.89
16.74
14.77
13.16
11.99
11.23
10.83
10.67
10.56
10.19
9.21
7.37
4.62
1.18
-2.58
-6.25
-9.59
-12.56
-15.36
-18.3
-21.72
-25.85
-30.62
-35.65
-40.19
-43.21
-43.61
-40.5
-33.53
-23.07
-10.23
3.38
16.02
26.22
33.06
36.27
36.11
33.18
28.21
21.95
15.16
8.57
2.82
-1.59
-4.44
-5.81
-6.01
-5.52
-4.83
-4.39
-4.53
-5.37
-6.83
-8.61
-10.29
-11.57
-12.32
-12.69
-13.03
-13.74
-15.12
-17.31
-20.25
-23.68
-27.14
-29.94
-31.33
-30.58
-27.24
-21.3
-13.28
-4.07
5.25
13.68
20.48
25.26
28.05
29.13
29.02
28.31
27.49
26.91
26.76
27.13
27.97
29.12
30.28
31.03
30.95
29.73
27.33
23.94
19.93
15.67
11.39
7.18
2.98
-1.3
-5.83
-10.71
-16.03
-21.71
-27.45
-32.71
-36.77
-38.88
-38.46
-35.19
-29.15
-20.78
-10.86
-0.35
9.68
18.27
24.68
28.55
29.94
29.29
27.31
24.79
22.48
20.86
20.1
20.07
20.38
20.63
20.5
19.88
18.84
17.55
16.19
14.92
13.82
12.94
12.27
11.75
11.25
10.57
9.49
7.9
5.85
3.65
1.79
0.83
1.21
3.05
6.15
9.98
13.96
17.55
20.43
22.44
23.52
23.66
22.83
21.14
18.79
16.16
13.61
11.46
9.77
8.47
7.33
6.1
4.6
2.77
0.68
-1.51
-3.55
-5.32
-6.76
-8.04
-9.37
-11.0
-13.09
-15.64
-18.61
-21.78
-24.88
-27.52
-29.19
-29.39
-27.75
-24.19
-19.0
-12.73
-6.06
0.33
5.93
10.36
13.43
15.08
15.42
14.64
13.03
10.93
8.67
6.55
4.75
3.34
2.24
1.25
0.15
-1.25
-2.97
-4.93
-6.96
-8.94
-10.82
-12.62
-14.39
-16.2
-18.05
-19.92
-21.8
-23.62
-25.25
-26.55
-27.35
-27.57
-27.19
-26.22
-24.65
-22.46
-19.69
-16.52
-13.3
-10.53
-8.64
-7.79
-7.85
-8.44
-9.09
-9.46
-9.46
-9.16
-8.76
-8.35
-7.98
-7.62
-7.23
-6.87
-6.65
-6.75
-7.27
-8.22
-9.47
-10.82
-12.08
-13.24
-14.39
-15.69
-17.28
-19.07
-20.77
-21.95
-22.19
-21.25
-19.14
-16.12
-12.61
-9.07
-5.89
-3.37
-1.7
-0.99
-1.32
-2.64
-4.84
-7.61
-10.56
-13.24
-15.38
-16.95
-18.14
-19.3
-20.73
-22.59
-24.82
-27.25
-29.66
-31.99
-34.35
-37.01
-40.34
-44.58
-49.66
-55.1
-59.94
-63.01
-63.19
-59.76
-52.59
-42.2
-29.58
-15.97
-2.65
9.2
18.57
24.68
27.24
26.48
23.23
18.7
14.14
10.48
8.04
6.59
5.57
4.42
2.83
0.78
-1.56
-4.04
-6.63
-9.43
-12.66
-16.56
-21.38
-27.4
-34.78
-43.45
-52.88
-61.95
-69.02
-72.29
-70.31
-62.53
-49.49
-32.7
-14.19
4.1
20.7
34.77
45.95
54.08
59.07
60.96
60.02
56.93
52.68
48.27
44.44
41.42
38.9
36.33
33.18
29.26
24.68
19.82
15.02
10.42
5.87
1.01
-4.73
-11.84
-20.64
-31.07
-42.44
-53.5
-62.53
-67.73
-67.73
-62.0
-50.97
-35.92
-18.54
-0.56
16.6
31.83
44.27
53.29
58.52
60.0
58.31
54.45
49.63
44.98
41.19
38.47
36.62
35.28
34.12
32.98
31.85
30.81
29.91
29.12
28.29
27.16
25.43
22.74
18.83
13.59
7.28
0.6
-5.2
-8.59
-8.07
-2.72
7.43
21.29
37.06
52.73
66.69
78.0
86.29
91.46
93.41
91.92
86.98
78.92
68.69
57.65
47.2
38.4
31.72
27.07
23.99
22.01
20.82
20.35
20.65
21.69
23.24
24.76
25.53
24.79
21.97
16.88
9.8
1.5
-6.88
-13.97
-18.46
-19.33
-16.15
-9.22
0.46
11.48
22.32
31.75
38.94
43.53
45.4
44.65
41.41
36.0
28.89
20.78
12.5
4.85
-1.57
-6.47
-9.95
-12.34
-14.16
-15.88
-17.79
-19.95
-22.2
-24.29
-26.05
-27.45
-28.65
-29.99
-31.87
-34.62
-38.28
-42.49
-46.38
-48.7
-48.22
-44.12
-36.35
-25.69
-13.48
-1.15
10.16
19.82
27.56
33.29
36.92
38.39
37.83
35.64
32.5
29.11
26.03
23.5
21.54
19.98
18.62
17.25
15.62
13.49
10.6
6.82
2.08
-3.5
-9.7
-16.14
-22.37
-27.89
-32.29
-35.45
-37.55
-39.03
-40.26
-41.25
-41.49
-40.16
-36.42
-29.94
-21.05
-10.68
0.02
10.03
18.7
25.74
31.03
34.44
35.83
35.18
32.72
29.0
24.76
20.68
17.2
14.42
12.19
10.35
8.77
7.47
6.5
5.81
5.23
4.51
3.52
2.25
0.82
-0.59
-1.94
-3.31
-4.86
-6.76
-9.14
-12.01
-15.28
-18.72
-21.87
-24.08
-24.62
-22.92
-18.81
-12.7
-5.41
2.03
8.72
14.04
17.7
19.65
19.97
18.84
16.53
13.37
9.71
5.84
1.99
-1.69
-5.06
-8.04
-10.64
-12.89
-14.95
-16.99
-19.15
-21.46
-23.88
-26.33
-28.74
-31.07
-33.28
-35.33
-37.21
-38.98
-40.82
-42.92
-45.37
-47.97
-50.15
-51.09
-49.97
-46.33
-40.26
-32.41
-23.79
-15.43
-8.1
-2.27
1.94
4.53
5.59
5.25
3.72
1.35
-1.41
-4.07
-6.24
-7.7
-8.47
-8.8
-9.08
-9.71
-11.02
-13.11
-15.91
-19.13
-22.43
-25.49
-28.15
-30.39
-32.37
-34.36
-36.6
-39.24
-42.22
-45.18
-47.48
-48.33
-47.0
-43.01
-36.44
-27.88
-18.39
-9.13
-1.03
5.42
10.24
13.71
16.2
18.01
19.35
20.44
21.53
22.91
24.71
26.88
29.11
31.03
32.42
33.28
33.83
34.28
34.79
35.33
35.77
35.97
35.81
35.2
34.06
32.32
29.87
26.66
22.62
17.78
12.28
6.46
0.87
-3.77
-6.7
-7.41
-5.74
-2.02
3.11
8.84
14.42
19.3
23.13
25.72
26.95
26.76
25.21
22.53
19.19
15.87
13.21
11.6
10.92
10.58
9.69
7.45
3.48
-2.04
-8.45
-14.94
-20.82
-25.75
-29.75
-33.08
-36.1
-39.05
-42.01
-44.92
-47.57
-49.73
-51.1
-51.4
-50.35
-47.7
-43.3
-37.24
-29.87
-21.88
-14.08
-7.26
-1.96
1.62
3.62
4.33
4.08
3.16
1.77
0.11
-1.62
-3.15
-4.28
-4.86
-4.93
-4.74
-4.61
-4.83
-5.54
-6.68
-8.06
-9.47
-10.83
-12.23
-13.83
-15.76
-18.1
-20.84
-23.95
-27.41
-31.16
-34.92
-38.19
-40.24
-40.36
-38.05
-33.26
-26.38
-18.16
-9.47
-1.14
6.15
11.99
16.2
18.76
19.89
19.83
18.88
17.34
15.49
13.61
11.93
10.59
9.65
9.07
8.75
8.56
8.36
7.97
7.21
5.91
4.05
1.76
-0.72
-3.13
-5.32
-7.36
-9.42
-11.77
-14.59
-18.0
-22.02
-26.54
-31.25
-35.56
-38.63
-39.56
-37.65
-32.7
-25.14
-15.89
-6.11
3.17
11.22
17.67
22.45
25.57
27.15
27.33
26.35
24.55
22.38
20.3
18.69
17.72
17.36
17.38
17.48
17.35
16.82
15.81
14.36
12.56
10.5
8.23
5.83
3.33
0.72
-2.05
-5.07
-8.42
-12.22
-16.53
-21.38
-26.57
-31.66
-35.93
-38.44
-38.3
-34.95
-28.4
-19.27
-8.64
2.24
12.27
20.69
27.06
31.25
33.35
33.61
32.48
30.5
28.21
26.03
24.14
22.52
20.98
19.38
17.66
15.9
14.25
12.81
11.56
10.37
9.0
7.22
4.94
2.18
-0.84
-3.87
-6.66
-9.15
-11.5
-14.16
-17.69
-22.58
-28.93
-36.19
-43.25
-48.58
-50.74
-48.79
-42.62
-32.94
-20.93
-7.94
4.83
16.47
26.28
33.69
38.34
40.16
39.49
37.06
33.77
30.46
27.66
25.55
24.09
23.13
22.6
22.41
22.51
22.71
22.73
22.21
20.8
18.27
14.59
9.97
4.86
-0.21
-4.84
-8.91
-12.63
-16.47
-20.94
-26.38
-32.81
-39.94
-47.08
-53.31
-57.44
-58.29
-55.0
-47.34
-35.92
-22.1
-7.63
5.85
17.17
25.8
31.7
35.09
36.31
35.69
33.69
30.88
27.94
25.51
23.98
23.39
23.5
23.9
24.18
24.13
23.65
22.74
21.36
19.36
16.56
12.84
8.26
3.11
-2.14
-7.0
-11.18
-14.72
-18.0
-21.72
-26.57
-32.95
-40.75
-49.13
-56.72
-61.88
-63.17
-59.82
-51.87
-40.14
-25.98
-10.87
3.87
17.2
28.34
36.75
42.07
44.17
43.34
40.26
36.02
31.83
28.68
27.06
26.88
27.54
28.24
28.39
27.72
26.44
24.92
23.5
22.24
20.93
19.19
16.69
13.38
9.45
5.26
1.14
-2.77
-6.58
-10.51
-14.83
-19.75
-25.43
-31.95
-39.1
-46.33
-52.52
-56.25
-56.08
-51.1
-41.33
-27.78
-12.2
3.5
17.72
29.48
38.38
44.42
47.73
48.54
47.2
44.27
40.58
37.01
34.3
32.79
32.34
32.37
32.2
31.29
29.46
26.95
24.21
21.68
19.55
17.71
15.8
13.38
10.18
6.2
1.75
-2.72
-6.74
-10.03
-12.6
-14.77
-17.05
-20.02
-24.18
-29.68
-36.26
-43.03
-48.64
-51.55
-50.39
-44.53
-34.19
-20.54
-5.25
9.88
23.42
34.46
42.61
47.86
50.35
50.33
48.18
44.5
40.04
35.67
32.15
29.96
29.24
29.75
31.02
32.47
33.56
33.91
33.39
32.03
29.97
27.39
24.37
20.95
17.15
13.01
8.65
4.23
-0.08
-4.19
-8.06
-11.68
-15.12
-18.47
-21.9
-25.67
-30.09
-35.38
-41.57
-48.18
-54.22
-58.31
-58.99
-55.24
-46.89
-34.68
-20.1
-4.9
9.46
21.99
32.2
39.85
44.77
46.86
46.23
43.41
39.33
35.13
31.76
29.74
29.08
29.39
30.18
31.0
31.56
31.72
31.38
30.49
29.0
26.96
24.52
21.91
19.34
16.92
14.56
12.02
9.05
5.51
1.47
-2.78
-6.84
-10.44
-13.49
-16.16
-18.75
-21.65
-25.2
-29.65
-35.07
-41.21
-47.31
-52.16
-54.29
-52.43
-45.97
-35.28
-21.64
-6.85
7.26
19.36
28.68
35.04
38.57
39.57
38.4
35.57
31.76
27.77
24.36
22.09
21.14
21.38
22.43
23.84
25.26
26.49
27.5
28.37
29.22
30.07
30.79
31.09
30.55
28.76
25.48
20.67
14.5
7.32
-0.47
-8.46
-16.28
-23.59
-30.24
-36.21
-41.72
-47.12
-52.8
-58.99
-65.56
-71.93
-77.11
-79.86
-79.08
-74.13
-65.08
-52.75
-38.49
-23.8
-9.98
2.08
11.91
19.34
24.39
27.11
27.69
26.47
24.02
21.06
18.3
16.23
15.04
14.54
14.29
13.83
12.81
11.08
8.7
5.87
2.82
-0.29
-3.37
-6.4
-9.46
-12.64
-16.0
-19.51
-22.94
-26.0
-28.38
-29.94
-30.75
-31.09
-31.38
-32.03
-33.39
-35.61
-38.53
-41.58
-43.77
-43.91
-40.91
-34.26
-24.14
-11.51
2.26
15.8
28.05
38.32
46.25
51.63
54.36
54.45
52.16
48.08
43.0
37.72
32.92
28.95
25.85
23.43
21.45
19.65
17.91
16.17
14.42
12.63
10.76
8.7
6.4
3.8
0.89
-2.31
-5.76
-9.38
-13.03
-16.55
-19.76
-22.58
-25.07
-27.45
-30.05
-33.2
-37.12
-41.73
-46.58
-50.91
-53.76
-54.16
-51.42
-45.32
-36.16
-24.78
-12.31
0.0
11.08
20.12
26.69
30.67
32.25
31.82
29.87
26.98
23.74
20.7
18.34
16.97
16.66
17.21
18.2
19.12
19.59
19.44
18.7
17.6
16.33
14.95
13.35
11.34
8.74
5.51
1.8
-2.09
-5.82
-9.12
-11.9
-14.28
-16.54
-19.02
-22.06
-25.88
-30.54
-35.85
-41.35
-46.26
-49.55
-50.18
-47.42
-41.11
-31.84
-20.75
-9.24
1.44
10.48
17.55
22.62
25.78
27.15
26.96
25.56
23.5
21.43
19.9
19.23
19.4
20.15
21.07
21.84
22.23
22.21
21.89
21.41
20.85
20.17
19.2
17.72
15.56
12.74
9.47
6.07
2.82
-0.15
-2.94
-5.74
-8.78
-12.23
-16.19
-20.68
-25.64
-30.79
-35.58
-39.18
-40.66
-39.32
-34.9
-27.71
-18.49
-8.17
2.37
12.36
21.17
28.24
33.07
35.35
35.06
32.58
28.62
24.1
19.86
16.56
14.5
13.62
13.64
14.11
14.61
14.86
14.74
14.24
13.39
12.2
10.64
8.71
6.44
3.93
1.22
-1.68
-4.85
-8.4
-12.37
-16.68
-21.19
-25.81
-30.56
-35.55
-40.77
-45.92
-50.26
-52.75
-52.34
-48.42
-40.99
-30.73
-18.76
-6.35
5.46
15.87
24.4
30.71
34.59
35.92
34.87
31.94
27.89
23.59
19.76
16.78
14.64
13.1
11.9
10.91
10.14
9.62
9.29
8.91
8.14
6.66
4.32
1.18
-2.48
-6.31
-9.93
-13.09
-15.68
-17.79
-19.66
-21.62
-24.01
-27.04
-30.72
-34.78
-38.57
-41.23
-41.86
-39.78
-34.76
-27.12
-17.65
-7.35
2.81
12.04
19.79
25.66
29.38
30.88
30.35
28.29
25.46
22.63
20.37
18.88
17.99
17.33
16.56
15.54
14.36
13.28
12.48
12.0
11.62
10.97
9.72
7.76
5.23
2.45
-0.27
-2.73
-4.94
-6.95
-8.78
-10.51
-12.35
-14.73
-18.18
-22.97
-28.71
-34.25
-37.98
-38.43
-34.93
-27.84
-18.36
-7.96
2.09
11.02
18.38
23.86
27.12
27.94
26.39
23.07
18.93
14.99
12.01
10.27
9.56
9.42
9.41
9.26
8.95
8.56
8.13
7.56
6.57
4.89
2.35
-0.94
-4.66
-8.35
-11.64
-14.38
-16.76
-19.19
-22.2
-26.17
-31.16
-36.77
-42.18
-46.3
-48.06
-46.66
-41.86
-34.02
-23.97
-12.77
-1.46
9.12
18.31
25.69
30.93
33.88
34.6
33.37
30.75
27.45
24.18
21.44
19.52
18.39
17.88
17.73
17.76
17.82
17.77
17.42
16.43
14.47
11.31
6.94
1.69
-3.91
-9.35
-14.26
-18.58
-22.57
-26.69
-31.45
-37.21
-43.97
-51.23
-57.96
-62.76
-64.25
-61.44
-54.16
-43.09
-29.62
-15.41
-1.97
9.6
18.7
25.09
28.82
30.06
29.16
26.67
23.28
19.67
16.43
13.89
12.18
11.25
10.99
11.29
11.97
12.85
13.64
14.06
13.83
12.78
10.91
8.35
5.36
2.25
-0.72
-3.46
-6.03
-8.7
-11.94
-16.19
-21.65
-28.16
-34.96
-40.87
-44.5
-44.69
-40.83
-33.13
-22.51
-10.37
1.83
12.84
21.83
28.33
32.21
33.61
32.94
30.8
27.91
24.89
22.18
19.93
18.12
16.68
15.59
14.88
14.54
14.4
14.14
13.36
11.73
9.17
5.8
1.88
-2.31
-6.6
-10.91
-15.2
-19.48
-23.84
-28.44
-33.57
-39.43
-45.91
-52.41
-57.76
-60.53
-59.46
-53.95
-44.29
-31.62
-17.54
-3.62
8.91
19.26
27.04
32.11
34.49
34.39
32.3
28.94
25.18
21.82
19.34
17.86
17.13
16.83
16.67
16.59
16.66
16.93
17.26
17.33
16.76
15.26
12.85
9.79
6.5
3.3
0.28
-2.7
-5.89
-9.59
-13.94
-18.98
-24.46
-29.87
-34.37
-36.91
-36.51
-32.58
-25.19
-15.05
-3.32
8.74
19.99
29.57
36.84
41.27
42.49
40.46
35.58
28.81
21.57
15.56
12.51
13.88
20.66
33.0
50.06
69.94
90.04
107.56
120.14
126.27
125.46
118.13
105.44
89.08
71.08
53.45
37.72
24.53
13.34
2.61
-9.59
-24.67
-42.77
-62.47
-81.1
-95.64
-103.59
-103.85
-96.89
-84.5
-69.07
-52.89
-37.69
-24.52
-14.01
-6.53
-2.21
-0.85
-1.74
-3.73
-5.57
-6.33
-5.69
-3.94
-1.74
0.37
2.08
3.45
4.62
5.61
6.27
6.31
5.47
3.72
1.26
-1.58
-4.49
-7.29
-9.95
-12.65
-15.63
-19.19
-23.65
-29.19
-35.78
-43.04
-50.11
-55.86
-59.05
-58.85
-55.14
-48.6
-40.54
-32.4
-25.35
-19.98
-16.37
-14.35
-13.69
-14.28
-15.93
-18.29
-20.7
-22.36
-22.56
-21.03
-17.92
-13.81
-9.4
-5.26
-1.73
1.05
3.08
4.35
4.8
4.33
2.87
0.49
-2.59
-6.02
-9.41
-12.51
-15.36
-18.26
-21.63
-25.64
-29.96
-33.64
-35.36
-33.86
-28.49
-19.49
-7.89
4.77
17.02
27.76
36.36
42.57
46.3
47.54
46.4
43.29
38.92
34.19
29.96
26.74
24.62
23.29
22.35
21.54
20.84
20.41
20.39
20.8
21.49
22.18
22.64
22.77
22.57
22.12
21.52
20.82
20.0
18.99
17.64
15.74
13.01
9.21
4.21
-1.92
-8.83
-15.87
-22.18
-26.83
-29.13
-28.79
-26.11
-21.83
-16.89
-12.14
-8.05
-4.75
-2.07
0.29
2.56
4.91
7.35
9.85
12.27
14.44
16.21
17.45
18.08
18.04
17.27
15.69
13.25
9.97
6.01
1.62
-2.93
-7.32
-11.25
-14.45
-16.64
-17.69
-17.68
-16.96
-16.03
-15.42
-15.34
-15.64
-15.77
-15.02
-12.84
-9.02
-3.85
2.0
7.71
12.55
16.02
17.92
18.27
17.14
14.68
11.13
6.87
2.41
-1.63
-4.77
-6.7
-7.36
-6.92
-5.62
-3.71
-1.48
0.74
2.54
3.53
3.48
2.49
0.88
-0.88
-2.43
-3.65
-4.74
-6.05
-7.99
-10.9
-14.98
-20.17
-26.07
-31.87
-36.38
-38.3
-36.61
-30.9
-21.61
-9.91
2.64
14.52
24.55
32.04
36.8
38.98
38.97
37.3
34.55
31.34
28.17
25.47
23.47
22.25
21.71
21.63
21.76
21.82
21.62
21.02
19.91
18.23
15.92
12.98
9.49
5.62
1.58
-2.46
-6.47
-10.54
-14.93
-19.92
-25.67
-32.08
-38.66
-44.49
-48.4
-49.24
-46.21
-39.17
-28.72
-16.11
-2.87
9.51
19.9
27.65
32.56
34.82
34.85
33.26
30.72
27.9
25.36
23.5
22.54
22.39
22.78
23.31
23.61
23.39
22.57
21.19
19.32
16.9
13.75
9.66
4.52
-1.5
-7.95
-14.26
-19.95
-24.77
-28.82
-32.45
-36.02
-39.68
-43.1
-45.45
-45.52
-42.1
-34.5
-22.82
-8.04
8.25
24.39
39.03
51.43
61.35
68.79
73.84
76.54
76.98
75.41
72.32
68.32
64.03
59.95
56.37
53.37
50.79
48.4
45.93
43.25
40.39
37.47
34.64
31.92
29.21
26.29
23.01
19.39
15.63
12.05
8.94
6.37
4.09
1.61
-1.63
-6.03
-11.58
-17.85
-23.98
-29.01
-32.16
-33.11
-32.04
-29.55
-26.34
-23.03
-19.96
-17.26
-14.92
-12.91
-11.25
-9.99
-9.18
-8.78
-8.69
-8.8
-9.01
-9.32
-9.77
-10.39
-11.18
-12.1
-13.1
-14.2
-15.54
-17.3
-19.65
-22.63
-26.15
-29.98
-33.88
-37.68
-41.38
-45.13
-49.18
-53.77
-59.08
-65.07
-71.47
-77.7
-82.91
-86.14
-86.53
-83.55
-77.2
-68.04
-57.06
-45.47
-34.4
-24.74
-16.99
-11.25
-7.32
-4.85
-3.43
-2.65
-2.19
-1.76
-1.1
0.0
1.61
3.64
5.75
7.51
8.49
8.37
7.1
4.77
1.65
-2.05
-6.05
-10.23
-14.46
-18.82
-23.51
-28.93
-35.46
-43.26
-52.04
-60.84
-68.21
-72.41
-71.99
-66.14
-55.01
-39.67
-21.81
-3.4
13.76
28.27
39.29
46.49
50.06
50.47
48.4
44.6
39.77
34.5
29.33
24.69
20.91
18.16
16.41
15.33
14.46
13.38
11.89
10.03
8.0
5.96
3.88
1.56
-1.26
-4.75
-8.95
-13.84
-19.44
-25.82
-32.9
-40.24
-46.87
-51.43
-52.57
-49.43
-42.0
-31.13
-18.27
-5.02
7.31
17.78
25.96
31.74
35.17
36.43
35.8
33.71
30.76
27.69
25.21
23.86
23.87
25.03
26.84
28.63
29.77
29.87
28.84
26.83
24.17
21.13
17.89
14.47
10.81
6.78
2.22
-3.08
-9.38
-16.91
-25.63
-34.97
-43.74
-50.23
-52.76
-50.23
-42.55
-30.72
-16.42
-1.52
12.47
24.55
34.23
41.28
45.63
47.34
46.68
44.19
40.58
36.61
32.88
29.79
27.52
26.03
25.12
24.48
23.72
22.47
20.44
17.54
13.79
9.35
4.42
-0.82
-6.19
-11.58
-16.99
-22.55
-28.54
-35.22
-42.63
-50.35
-57.43
-62.52
-64.22
-61.52
-54.12
-42.55
-28.05
-12.23
3.3
17.2
28.57
36.93
42.16
44.42
44.11
41.83
38.32
34.37
30.69
27.82
25.97
25.04
24.6
24.04
22.72
20.24
16.58
12.21
7.92
4.58
2.69
2.23
2.62
3.04
2.75
1.34
-1.28
-5.02
-9.69
-14.97
-20.17
-24.1
-25.27
-22.25
-14.33
-1.83
13.89
30.9
47.25
61.53
72.96
81.37
86.94
90.02
91.07
90.63
89.34
87.82
86.64
86.21
86.64
87.76
89.03
89.77
89.29
87.13
83.23
77.86
71.48
64.54
57.28
49.75
41.94
33.9
25.77
17.67
9.57
1.09
-8.33
-19.19
-31.52
-44.59
-56.88
-66.55
-72.02
-72.62
-68.9
-62.43
-55.32
-49.52
-46.36
-46.4
-49.59
-55.56
-63.78
-73.63
-84.28
-94.8
-104.15
-111.4
-115.9
-117.36
-115.84
-111.64
-105.27
-97.35
-88.59
-79.72
-71.28
-63.68
-57.05
-51.44
-46.81
-43.17
-40.51
-38.75
-37.74
-37.33
-37.5
-38.43
-40.37
-43.28
-46.6
-49.11
-49.24
-45.56
-37.39
-25.1
-9.98
6.14
21.53
34.93
45.73
53.8
59.2
62.06
62.51
60.86
57.63
53.65
49.78
46.69
44.66
43.55
42.96
42.45
41.77
40.82
39.57
37.89
35.53
32.25
27.99
22.95
17.52
12.13
7.06
2.34
-2.27
-7.19
-12.84
-19.52
-27.16
-35.18
-42.48
-47.55
-48.92
-45.62
-37.58
-25.72
-11.6
3.01
16.61
28.2
37.22
43.38
46.56
46.89
44.77
40.96
36.49
32.34
29.2
27.28
26.41
26.19
26.23
26.35
26.49
26.68
26.94
27.19
27.26
27.0
26.28
25.09
23.54
21.79
19.96
18.05
15.86
13.02
9.04
3.57
-3.44
-11.5
-19.53
-26.1
-29.75
-29.44
-24.88
-16.58
-5.74
6.12
17.53
27.35
34.88
39.79
42.14
42.21
40.53
37.79
34.74
32.08
30.24
29.35
29.24
29.52
29.83
29.96
29.84
29.51
29.0
28.23
27.1
25.46
23.26
20.46
17.07
13.11
8.59
3.51
-2.13
-8.43
-15.49
-23.26
-31.34
-38.74
-44.02
-45.71
-42.84
-35.43
-24.6
-12.22
-0.37
9.28
15.78
18.87
18.82
16.18
11.59
5.77
-0.56
-6.69
-12.0
-15.99
-18.38
-19.14
-18.44
-16.7
-14.48
-12.37
-10.92
-10.47
-11.12
-12.74
-15.0
-17.52
-20.07
-22.55
-25.12
-28.09
-31.76
-36.44
-42.27
-49.2
-56.85
-64.47
-70.79
-74.29
-73.51
-67.64
-56.84
-42.38
-26.21
-10.44
3.22
13.81
21.03
25.02
26.15
24.86
21.72
17.46
12.88
8.67
5.29
2.91
1.41
0.56
0.06
-0.37
-1.06
-2.36
-4.57
-7.84
-12.05
-16.85
-21.74
-26.3
-30.32
-33.86
-37.27
-41.03
-45.67
-51.56
-58.75
-66.8
-74.64
-80.67
-83.14
-80.59
-72.38
-59.0
-41.93
-23.27
-5.12
10.86
23.66
32.88
38.59
41.13
41.01
38.96
35.84
32.56
29.94
28.49
28.38
29.42
31.21
33.27
35.19
36.68
37.5
37.49
36.51
34.47
31.41
27.49
22.99
18.26
13.65
9.39
5.6
2.11
-1.47
-5.74
-11.19
-17.94
-25.46
-32.51
-37.42
-38.59
-35.08
-26.94
-15.25
-1.74
11.74
23.68
33.11
39.6
43.05
43.57
41.41
37.03
31.14
24.67
18.64
13.87
10.81
9.46
9.45
10.2
11.11
11.7
11.64
10.65
8.6
5.45
1.31
-3.59
-8.89
-14.2
-19.19
-23.68
-27.72
-31.6
-35.79
-40.74
-46.64
-53.07
-58.94
-62.63
-62.45
-57.26
-46.91
-32.43
-15.7
1.04
15.93
27.83
36.45
42.11
45.37
46.79
46.83
45.85
44.21
42.23
40.11
37.84
35.2
31.88
27.73
22.79
17.39
11.92
6.68
1.73
-3.08
-7.99
-13.15
-18.56
-24.02
-29.29
-34.14
-38.56
-42.75
-47.19
-52.42
-58.83
-66.38
-74.33
-81.34
-85.68
-85.8
-80.76
-70.62
-56.35
-39.59
-22.13
-5.57
8.91
20.52
28.78
33.55
35.02
33.86
31.08
27.96
25.59
24.69
25.38
27.29
29.81
32.4
34.69
36.55
37.95
38.79
38.85
37.83
35.53
31.92
27.22
21.78
15.93
9.91
3.85
-2.21
-8.32
-14.59
-21.2
-28.29
-35.72
-42.84
-48.4
-50.79
-48.57
-41.07
-28.71
-12.98
4.08
20.44
34.54
45.51
52.99
57.0
57.78
55.82
51.85
46.81
41.62
37.04
33.46
30.93
29.26
28.14
27.29
26.51
25.66
24.61
23.16
21.13
18.34
14.76
10.49
5.78
0.89
-3.92
-8.49
-12.77
-16.83
-20.86
-25.19
-30.23
-36.29
-43.3
-50.6
-56.86
-60.45
-59.86
-54.27
-43.88
-29.82
-13.8
2.38
17.22
29.7
39.24
45.58
48.74
48.99
46.89
43.3
39.26
35.74
33.41
32.5
32.74
33.57
34.37
34.72
34.44
33.57
32.15
30.17
27.48
23.92
19.46
14.3
8.85
3.54
-1.33
-5.76
-10.04
-14.67
-20.2
-26.93
-34.71
-42.82
-49.95
-54.52
-55.11
-50.89
-41.97
-29.38
-14.75
0.11
13.66
24.85
33.13
38.3
40.41
39.72
36.74
32.3
27.37
22.85
19.35
17.09
15.9
15.43
15.3
15.31
15.33
15.28
14.97
14.13
12.5
9.93
6.49
2.39
-2.03
-6.44
-10.61
-14.49
-18.2
-22.09
-26.59
-32.05
-38.44
-45.17
-51.07
-54.66
-54.61
-50.14
-41.32
-28.97
-14.47
0.6
14.79
26.88
36.03
41.75
44.0
43.12
39.88
35.24
30.25
25.8
22.43
20.3
19.22
18.76
18.49
18.06
17.31
16.21
14.76
12.89
10.52
7.58
4.11
0.27
-3.72
-7.69
-11.6
-15.5
-19.55
-23.93
-28.82
-34.39
-40.62
-47.2
-53.38
-58.0
-59.77
-57.65
-51.23
-40.94
-27.91
-13.69
0.16
12.37
22.15
29.1
33.15
34.44
33.35
30.41
26.36
22.04
18.25
15.54
14.17
14.01
14.68
15.7
16.59
17.01
16.77
15.82
14.21
12.05
9.47
6.61
3.58
0.51
-2.5
-5.35
-8.01
-10.6
-13.46
-16.96
-21.35
-26.48
-31.62
-35.57
-37.05
-35.13
-29.56
-20.94
-10.46
0.44
10.48
18.77
24.8
28.43
29.67
28.73
25.94
21.91
17.38
13.14
9.87
7.92
7.26
7.53
8.26
9.03
9.57
9.79
9.65
9.04
7.77
5.63
2.46
-1.66
-6.43
-11.35
-15.96
-19.97
-23.41
-26.72
-30.49
-35.24
-40.97
-47.05
-52.17
-54.73
-53.4
-47.52
-37.41
-24.26
-9.78
4.3
16.56
26.18
32.85
36.61
37.7
36.48
33.43
29.14
24.39
19.95
16.49
14.36
13.56
13.79
14.55
15.36
15.85
15.74
14.85
13.09
10.49
7.17
3.37
-0.64
-4.6
-8.37
-11.97
-15.56
-19.43
-23.9
-29.25
-35.51
-42.22
-48.42
-52.78
-53.9
-50.86
-43.55
-32.71
-19.73
-6.19
6.49
17.33
25.7
31.28
33.95
33.81
31.27
27.08
22.22
17.65
14.08
11.82
10.8
10.69
11.08
11.64
12.09
12.22
11.87
10.86
9.12
6.68
3.73
0.49
-2.81
-6.08
-9.31
-12.64
-16.26
-20.4
-25.25
-30.8
-36.71
-42.16
-45.98
-46.9
-43.97
-36.95
-26.38
-13.48
0.22
13.21
24.32
32.79
38.25
40.68
40.37
37.84
33.83
29.12
24.52
20.62
17.82
16.22
15.67
15.85
16.32
16.69
16.6
15.8
14.1
11.46
7.95
3.83
-0.52
-4.69
-8.46
-11.86
-15.22
-19.01
-23.66
-29.43
-36.19
-43.4
-50.07
-54.92
-56.59
-54.06
-46.95
-35.74
-21.72
-6.71
7.47
19.38
28.21
33.75
36.19
35.99
33.7
29.96
25.51
21.13
17.47
14.96
13.68
13.39
13.68
14.12
14.37
14.26
13.66
12.45
10.51
7.75
4.2
0.05
-4.33
-8.55
-12.33
-15.68
-18.9
-22.52
-27.05
-32.74
-39.33
-45.96
-51.25
-53.7
-52.11
-46.0
-35.83
-22.86
-8.81
4.66
16.25
25.23
31.32
34.56
35.18
33.52
30.14
25.72
21.09
17.0
14.01
12.35
11.88
12.22
12.85
13.3
13.24
12.58
11.38
9.78
7.87
5.62
2.92
-0.28
-3.94
-7.86
-11.88
-15.99
-20.42
-25.49
-31.41
-37.9
-44.12
-48.76
-50.42
-48.13
-41.74
-31.97
-20.19
-8.02
3.13
12.26
18.89
22.92
24.47
23.78
21.21
17.25
12.55
7.9
4.06
1.62
0.85
1.6
3.37
5.47
7.2
8.03
7.72
6.27
3.9
0.95
-2.28
-5.56
-8.79
-11.97
-15.15
-18.43
-22.05
-26.23
-31.15
-36.63
-41.97
-45.91
-46.9
-43.64
-35.62
-23.46
-8.69
6.7
20.87
32.63
41.43
47.26
50.31
50.85
49.2
45.91
41.7
37.41
33.83
31.41
30.24
30.05
30.39
30.81
30.99
30.74
29.99
28.69
26.85
24.5
21.77
18.82
15.84
12.97
10.21
7.44
4.4
0.78
-3.64
-8.83
-14.35
-19.21
-22.12
-21.73
-17.23
-8.67
2.94
15.93
28.49
39.19
47.29
52.56
55.15
55.26
53.05
48.75
42.73
35.67
28.42
21.87
16.68
13.09
10.84
9.36
7.98
6.18
3.79
0.88
-2.31
-5.62
-9.05
-12.66
-16.53
-20.62
-24.77
-28.84
-32.85
-37.06
-41.82
-47.34
-53.39
-59.11
-63.14
-63.99
-60.53
-52.53
-40.76
-26.83
-12.64
0.14
10.51
18.13
23.15
25.85
26.44
25.15
22.27
18.39
14.28
10.72
8.26
7.08
6.89
7.18
7.36
6.92
5.53
3.07
-0.37
-4.52
-9.0
-13.42
-17.47
-20.99
-24.02
-26.8
-29.72
-33.24
-37.67
-42.96
-48.55
-53.29
-55.65
-54.26
-48.37
-38.21
-24.94
-10.37
3.65
15.67
24.86
30.99
34.19
34.81
33.24
29.93
25.45
20.51
15.89
12.26
10.05
9.3
9.63
10.39
10.91
10.69
9.59
7.7
5.29
2.56
-0.4
-3.65
-7.29
-11.35
-15.8
-20.57
-25.66
-31.19
-37.28
-43.81
-50.2
-55.33
-57.72
-56.07
-49.74
-39.11
-25.47
-10.68
3.5
15.76
25.45
32.37
36.58
38.17
37.36
34.57
30.53
26.13
22.2
19.29
17.59
16.95
17.01
17.37
17.65
17.53
16.79
15.31
13.05
10.13
6.71
2.96
-0.93
-4.82
-8.63
-12.31
-15.94
-19.74
-24.1
-29.36
-35.64
-42.49
-48.85
-53.15
-53.83
-49.83
-41.03
-28.39
-13.63
1.3
14.71
25.59
33.55
38.65
41.12
41.25
39.42
36.17
32.2
28.29
25.11
23.01
21.99
21.76
21.89
22.0
21.83
21.23
20.11
18.38
15.96
12.8
8.96
4.6
-0.01
-4.57
-8.82
-12.69
-16.35
-20.26
-24.94
-30.72
-37.39
-44.09
-49.38
-51.67
-49.71
-43.08
-32.27
-18.56
-3.63
10.91
23.76
34.07
41.4
45.65
46.95
45.75
42.73
38.75
34.7
31.35
29.11
28.06
27.94
28.31
28.78
29.1
29.16
28.93
28.34
27.26
25.5
22.9
19.43
15.24
10.62
5.9
1.31
-3.06
-7.32
-11.73
-16.65
-22.38
-29.02
-36.2
-43.07
-48.27
-50.33
-48.02
-40.84
-29.23
-14.55
1.31
16.36
28.97
38.13
43.48
45.17
43.71
39.77
34.19
27.86
21.65
16.24
11.91
8.49
5.47
2.24
-1.57
-5.96
-10.62
-15.19
-19.52
-23.75
-28.16
-32.8
-37.35
-41.09
-43.29
-43.59
-42.36
-40.51
-39.2
-39.31
-41.05
-43.95
-47.0
-49.11
-49.39
-47.34
-42.89
-36.38
-28.53
-20.23
-12.09
-3.96
5.23
17.05
32.6
51.49
71.22
87.81
97.02
96.0
84.36
64.23
39.44
14.22
-7.93
-24.78
-35.43
-40.0
-39.33
-34.65
-27.39
-19.07
-11.15
-4.95
-1.4
-0.86
-3.0
-6.92
-11.43
-15.43
-18.45
-20.74
-23.12
-26.6
-31.78
-38.7
-46.67
-54.36
-60.04
-62.14
-59.77
-52.99
-42.77
-30.54
-18.1
-7.03
1.83
8.6
13.89
18.21
21.79
24.47
26.15
26.4
24.73
21.28
17.25
14.09
12.81
13.84
16.85
21.37
26.02
28.88
28.71
25.93
22.08
19.37
20.57
28.27
44.25
66.96
91.38
111.12
121.12
118.56
103.05
76.73
39.63
-2.13
-38.44
-62.37
-74.19
-74.83
-62.96
-39.53
-8.05
25.89
56.72
79.15
89.42
86.65
73.38
54.07
33.85
18.24
12.0
18.04
35.03
57.19
76.49
85.94
81.62
63.59
35.94
4.88
-23.53
-45.8
-61.45
-71.81
-78.33
-81.92
-82.61
-79.22
-70.01
-53.68
-31.14
-6.29
14.85
26.19
23.88
7.89
-17.71
-46.42
-71.81
-89.75
-99.05
-100.56
-95.74
-85.62
-70.76
-51.82
-30.27
-8.7
9.78
22.29
27.39
25.61
19.34
11.92
6.32
3.93
4.22
5.42
6.0
5.93
6.9
11.2
19.92
31.52
42.1
47.0
43.15
30.6
12.43
-6.9
-23.48
-35.09
-41.18
-42.04
-38.2
-30.68
-21.5
-13.88
-11.46
-16.69
-29.38
-46.46
-62.89
-73.5
-74.58
-64.79
-45.29
-19.43
7.82
30.89
44.92
47.26
38.53
22.45
4.38
-10.87
-20.84
-25.92
-28.43
-30.87
-34.45
-38.71
-42.13
-43.31
-41.76
-38.02
-33.18
-28.29
-23.84
-19.72
-15.64
-11.53
-7.85
-5.44
-5.16
-7.45
-12.09
-18.28
-24.94
-31.06
-35.86
-38.82
-39.43
-37.22
-31.74
-22.76
-10.5
4.21
19.99
35.01
47.36
55.45
58.47
56.68
51.5
45.16
39.99
37.77
39.09
43.28
48.78
53.78
56.82
57.2
55.01
50.92
45.87
40.78
36.4
33.28
31.65
31.38
32.06
32.98
33.34
32.39
29.52
24.47
17.33
8.57
-1.03
-10.39
-18.36
-23.82
-25.9
-24.16
-18.64
-9.79
1.54
14.31
27.3
39.16
48.56
54.32
55.73
52.71
45.86
36.28
25.2
13.7
2.43
-8.22
-17.94
-26.22
-32.31
-35.46
-35.3
-32.15
-27.0
-21.19
-15.95
-12.1
-10.03
-9.98
-12.18
-16.7
-23.16
-30.4
-36.78
-40.86
-42.38
-42.5
-43.36
-46.82
-53.18
-60.82
-66.86
-68.57
-64.59
-55.4
-42.75
-28.66
-14.58
-1.22
11.14
22.06
30.66
35.79
36.61
33.11
26.31
18.03
10.29
4.65
1.79
1.5
3.0
5.49
8.45
11.65
14.97
18.08
20.36
21.07
19.7
16.21
11.13
5.27
-0.57
-5.88
-10.47
-14.47
-18.17
-22.01
-26.55
-32.33
-39.54
-47.8
-55.95
-62.28
-65.13
-63.44
-57.21
-47.33
-35.16
-21.93
-8.49
4.66
16.99
27.81
36.29
41.8
44.21
44.07
42.33
39.97
37.63
35.51
33.52
31.58
29.82
28.57
28.15
28.63
29.63
30.51
30.56
29.42
27.17
24.27
21.35
18.92
17.21
16.12
15.34
14.45
12.81
9.7
4.3
-3.92
-14.71
-26.68
-37.23
-43.25
-42.2
-33.19
-17.6
1.16
18.84
31.77
38.08
38.02
33.39
26.45
18.93
11.61
4.57
-2.25
-8.53
-13.53
-16.43
-16.77
-14.82
-11.46
-7.85
-4.91
-3.05
-2.13
-1.81
-1.86
-2.45
-4.09
-7.28
-12.28
-18.79
-26.05
-33.07
-39.04
-43.64
-47.16
-50.38
-54.04
-58.54
-63.46
-67.6
-69.36
-67.23
-60.44
-49.32
-35.19
-19.86
-5.08
8.08
19.25
28.57
36.26
42.33
46.56
48.74
48.94
47.66
45.71
43.94
42.91
42.72
43.07
43.43
43.31
42.45
40.84
38.64
35.99
32.97
29.5
25.43
20.73
15.46
9.87
4.24
-1.22
-6.52
-11.88
-17.72
-24.33
-31.71
-39.3
-46.01
-50.33
-50.84
-46.6
-37.59
-24.74
-9.66
5.81
20.08
32.03
41.04
46.84
49.42
48.99
46.05
41.43
36.17
31.28
27.48
25.07
23.89
23.53
23.51
23.5
23.33
22.92
22.23
21.12
19.42
16.93
13.56
9.4
4.69
-0.17
-4.84
-9.09
-12.97
-16.78
-20.96
-25.96
-32.06
-39.17
-46.72
-53.62
-58.44
-59.69
-56.32
-48.03
-35.52
-20.29
-4.21
10.93
23.84
33.83
40.68
44.45
45.35
43.73
40.16
35.4
30.37
25.88
22.48
20.35
19.37
19.24
19.58
20.07
20.41
20.33
19.62
18.12
15.72
12.48
8.52
4.07
-0.61
-5.23
-9.57
-13.55
-17.32
-21.22
-25.76
-31.36
-38.09
-45.43
-52.23
-56.91
-57.9
-54.17
-45.58
-32.96
-17.92
-2.34
12.13
24.27
33.46
39.46
42.3
42.21
39.64
35.27
29.99
24.78
20.44
17.46
15.9
15.45
15.65
16.0
16.13
15.83
15.02
13.67
11.75
9.22
6.02
2.24
-1.97
-6.31
-10.52
-14.47
-18.28
-22.27
-26.92
-32.61
-39.44
-47.06
-54.5
-60.34
-62.97
-61.07
-54.03
-42.26
-27.07
-10.34
5.94
20.21
31.49
39.4
43.93
45.34
44.06
40.67
35.96
30.8
26.04
22.33
19.98
18.94
18.83
19.18
19.51
19.58
19.31
18.71
17.75
16.2
13.7
9.99
5.05
-0.72
-6.71
-12.23
-16.94
-20.88
-24.47
-28.37
-33.15
-39.09
-45.95
-52.89
-58.5
-61.17
-59.45
-52.66
-41.09
-26.05
-9.46
6.71
20.88
32.09
39.94
44.45
45.85
44.57
