2013-06-20 12:56:39
64.0
-0.0
-0.0
-0.0
-0.0
-0.0
-0.0
-0.0
-0.0
-0.0
-0.0
0.0
0.01
0.01
-0.0
-0.03
-0.05
-0.05
0.0
0.13
0.36
0.66
1.01
1.37
1.72
2.06
2.4
2.79
3.24
3.8
4.42
5.06
5.66
6.2
6.68
7.15
7.68
8.31
9.14
10.09
11.04
11.88
12.56
13.14
13.76
14.65
15.96
17.91
20.32
22.9
25.38
27.58
29.57
31.68
34.32
37.81
42.54
48.15
54.1
59.83
64.97
69.58
74.14
79.34
85.71
93.76
103.0
112.62
121.73
129.77
136.75
143.3
150.75
157.77
166.64
177.95
191.79
206.97
220.57
228.25
225.36
208.53
176.87
132.76
80.05
23.07
-34.94
-92.44
-149.16
-205.23
-260.37
-313.74
-363.87
-409.83
-450.91
-486.5
-515.74
-537.23
-549.22
-549.96
-538.37
-514.21
-478.67
-433.88
-382.45
-327.02
-269.84
-212.63
-156.66
-102.95
-52.37
-5.9
35.58
71.43
101.35
125.5
144.38
158.69
169.15
176.37
180.75
182.57
182.07
179.51
175.23
169.65
163.18
156.15
148.81
141.3
133.69
126.02
118.33
110.69
103.16
95.8
88.68
81.83
75.25
68.95
62.95
57.25
51.86
46.78
42.03
37.59
33.45
29.61
26.07
22.81
19.83
17.11
14.67
12.48
10.54
8.83
7.35
6.07
4.97
4.05
3.27
2.62
2.09
1.65
1.3
1.01
0.79
0.61
0.47
0.37
0.29
0.23
0.18
0.15
0.14
0.13
0.14
0.15
0.17
0.19
0.22
0.26
0.3
0.34
0.38
0.43
0.47
0.52
0.57
0.62
0.68
0.73
0.8
0.86
0.94
1.02
1.11
1.21
1.32
1.45
1.58
1.74
1.91
2.11
2.33
2.56
2.83
3.12
3.44
3.79
4.18
4.6
5.05
5.54
6.07
6.65
7.26
7.91
8.61
9.35
10.14
10.97
11.85
12.77
13.74
14.77
15.86
17.02
18.23
19.49
20.75
21.97
23.07
23.95
24.51
24.61
24.15
23.03
21.2
18.65
15.42
11.59
7.34
2.84
-1.68
-6.02
-9.97
-13.4
-16.2
-18.35
-19.84
-20.69
-20.96
-20.71
-20.01
-18.95
-17.65
-16.19
-14.67
-13.13
-11.55
-9.95
-8.29
-6.54
-4.71
-2.82
-0.96
0.82
2.47
4.11
5.69
7.33
9.14
11.14
13.21
15.13
16.66
17.76
18.62
19.32
20.13
21.35
23.0
24.84
26.38
27.16
27.02
26.31
25.19
24.17
23.77
24.05
24.56
24.47
22.91
19.53
14.78
8.89
2.54
-3.52
-9.24
-15.45
-23.76
-36.55
-56.48
-81.27
-110.38
-142.57
-174.94
-203.54
-224.18
-233.56
-230.74
-216.62
-194.01
-167.51
-141.08
-116.52
-94.69
-76.25
-62.07
-53.4
-49.63
-48.44
-47.03
-42.16
-30.39
-10.77
15.14
44.38
73.77
103.01
133.66
165.58
195.35
220.69
241.65
259.54
279.85
298.32
308.96
307.43
293.11
263.44
224.75
186.23
155.2
133.03
115.01
95.14
69.04
35.76
-2.06
-39.04
-71.88
-100.55
-128.37
-158.16
-188.59
-215.37
-234.06
-242.78
-242.05
-235.33
-226.84
-220.81
-218.49
-217.0
-211.97
-199.62
-178.51
-148.76
-112.38
-64.14
-6.7
50.97
99.59
135.53
162.01
183.76
207.24
232.3
253.75
262.67
251.86
219.39
168.08
101.01
24.03
-54.63
-120.71
-161.54
-174.56
-165.91
-144.29
-124.07
-104.56
-83.52
-60.58
-36.99
-16.63
-3.99
-5.52
-24.93
-60.94
-105.95
-150.0
-183.0
-195.8
-183.13
-145.6
-88.99
-21.33
48.53
112.99
165.36
196.8
202.91
189.66
170.56
157.63
155.62
161.74
169.79
176.0
174.71
164.03
145.49
122.61
99.91
82.86
76.68
85.1
108.69
142.62
179.34
210.53
229.58
233.96
226.64
214.67
205.63
203.5
206.37
208.91
205.11
191.13
167.45
138.84
112.06
92.25
80.22
71.95
61.74
45.15
20.84
-9.36
-41.98
-73.86
-103.42
-130.4
-155.01
-176.27
-192.0
-200.05
-199.82
-193.35
-184.9
-179.42
-180.43
-188.69
-201.82
-215.59
-225.59
-228.83
-224.28
-212.57
-195.14
-173.86
-150.91
-129.05
-111.36
-100.42
-97.1
-99.81
-104.81
-107.75
-105.53
-97.67
-86.16
-74.2
-64.52
-58.26
-54.99
-53.49
-52.75
-52.44
-52.75
-53.84
-55.47
-56.98
-57.49
-56.41
-53.55
-49.17
-43.8
-37.96
-32.02
-26.12
-20.2
-14.23
-8.28
-2.76
1.73
4.54
5.29
4.11
1.58
-1.39
-3.91
-5.48
-6.03
-5.95
-5.73
-5.81
-6.38
-7.38
-8.66
-10.08
-11.53
-12.98
-14.32
-15.4
-15.92
-15.55
-13.87
-10.43
-4.78
3.25
13.35
24.46
34.84
42.47
45.72
43.91
37.61
28.39
18.29
9.09
1.85
-3.19
-6.39
-8.34
-9.55
-10.32
-10.71
-10.6
-9.76
-7.99
-5.12
-1.19
3.7
9.36
15.53
21.92
28.22
34.3
40.37
47.15
55.62
66.51
79.54
93.15
104.87
112.44
114.9
113.05
108.99
104.85
101.75
99.43
96.82
93.04
88.16
83.2
79.45
77.48
76.6
75.16
71.17
63.12
50.35
32.98
11.79
-12.0
-36.81
-60.7
-81.53
-97.28
-106.57
-108.99
-105.26
-97.03
-86.28
-74.72
-63.37
-52.58
-42.38
-33.06
-25.33
-20.24
-18.68
-20.78
-25.56
-31.21
-35.78
-37.96
-37.55
-35.26
-32.27
-29.65
-28.13
-28.2
-30.21
-34.25
-39.91
-45.97
-50.58
-51.93
-49.0
-42.15
-32.92
-23.34
-15.05
-8.81
-4.52
-1.74
-0.17
0.17
-0.83
-3.13
-6.31
-9.75
-12.84
-15.24
-16.94
-18.16
-19.05
-19.63
-19.59
-18.41
-15.54
-10.71
-4.06
3.69
11.61
18.96
25.56
31.92
38.83
46.81
55.61
64.3
71.65
76.71
79.02
78.39
74.37
66.18
53.1
35.31
14.35
-7.08
-26.23
-41.53
-53.25
-62.96
-72.36
-81.99
-90.83
-96.91
-98.73
-96.33
-91.49
-87.08
-85.72
-88.7
-95.63
-104.85
-114.23
-121.88
-126.54
-127.6
-124.83
-118.22
-108.12
-95.47
-82.01
-69.84
-60.46
-53.59
-46.62
-35.29
-15.61
14.13
52.32
94.66
136.15
173.15
204.38
230.27
251.36
266.95
274.86
272.61
259.14
235.91
206.65
175.83
146.82
120.8
96.74
72.76
47.84
23.13
1.98
-11.46
-14.26
-6.49
8.5
25.37
38.92
46.14
46.83
42.9
36.77
30.14
23.5
16.59
9.13
1.34
-6.08
-12.53
-17.9
-22.67
-27.57
-33.15
-39.43
-45.99
-52.14
-57.17
-60.5
-61.69
-60.57
-57.29
-52.42
-46.89
-41.71
-37.64
-34.88
-33.25
-32.32
-31.82
-31.79
-32.4
-33.76
-35.56
-37.16
-37.78
-36.89
-34.41
-30.66
-26.16
-21.47
-17.1
-13.64
-11.79
-12.21
-15.24
-20.63
-27.37
-33.92
-38.49
-39.64
-36.73
-30.14
-21.23
-11.9
-4.0
1.17
3.26
2.78
0.8
-1.63
-3.91
-6.1
-8.66
-12.02
-16.18
-20.51
-24.09
-26.21
-26.8
-26.5
-26.19
-26.42
-26.99
-27.23
-26.37
-24.11
-20.53
-15.88
-10.21
-3.39
4.61
13.44
22.35
30.59
37.91
44.89
52.49
61.1
69.97
77.51
82.34
84.46
85.59
88.15
93.72
101.57
108.63
110.75
104.77
90.18
69.41
46.85
26.83
11.93
2.26
-3.99
-9.26
-15.25
-22.16
-28.63
-32.55
-32.1
-26.76
-17.51
-6.37
4.58
14.0
21.63
27.95
33.52
38.29
41.61
42.56
40.67
36.33
30.81
25.72
22.36
21.27
22.03
23.62
24.89
25.18
24.78
25.08
28.18
36.14
49.88
68.33
88.37
105.71
116.43
118.48
112.32
100.29
85.32
69.45
53.25
36.24
17.95
-1.17
-19.59
-35.36
-47.22
-55.29
-61.08
-66.76
-74.11
-83.81
-95.21
-106.92
-117.34
-125.32
-130.28
-132.18
-131.2
-127.64
-121.86
-114.35
-105.77
-96.88
-88.58
-81.85
-77.78
-77.51
-81.96
-91.52
-105.65
-122.97
-141.55
-159.65
-176.07
-190.27
-202.01
-210.83
-215.98
-216.78
-213.37
-206.91
-199.09
-191.06
-182.49
-171.75
-157.01
-137.7
-115.41
-93.4
-75.04
-62.11
-54.1
-48.85
-44.01
-38.32
-31.9
-25.46
-19.14
-11.89
-1.67
13.47
34.35
60.12
88.54
116.69
141.94
162.58
177.96
188.22
193.86
195.62
194.46
191.76
189.19
188.41
190.47
195.31
201.75
207.96
212.12
213.11
210.72
205.48
198.26
189.92
181.05
171.98
162.72
152.94
142.0
129.16
113.84
95.94
76.06
55.34
35.21
16.82
0.78
-12.89
-24.48
-34.21
-41.98
-47.35
-49.75
-48.86
-44.83
-38.34
-30.45
-22.52
-15.93
-11.91
-11.24
-14.0
-19.4
-25.84
-31.33
-34.1
-33.28
-29.19
-23.18
-17.14
-12.65
-10.58
-10.94
-13.36
-17.48
-23.29
-31.0
-40.6
-51.49
-62.52
-72.24
-79.53
-84.14
-86.64
-88.04
-89.14
-90.06
-90.27
-88.99
-85.7
-80.5
-74.16
-67.67
-61.91
-57.36
-54.06
-51.6
-49.2
-45.93
-40.89
-33.72
-24.86
-15.61
-7.75
-2.85
-1.69
-3.98
-8.58
-13.84
-18.11
-19.97
-18.4
-13.0
-4.1
7.2
19.53
31.96
44.71
59.23
77.42
100.48
127.88
157.22
185.06
208.24
224.91
234.96
239.55
240.16
237.81
232.61
223.84
210.58
192.24
169.04
142.09
113.11
83.79
55.39
28.43
2.83
-21.61
-44.78
-66.03
-84.34
-98.58
-107.91
-111.9
-110.51
-104.11
-93.59
-80.5
-67.17
-56.39
-50.61
-51.03
-56.97
-66.07
-75.09
-81.15
-82.56
-79.08
-71.52
-61.19
-49.35
-37.03
-24.95
-13.47
-2.59
8.06
19.01
30.74
43.4
56.91
71.06
85.66
100.46
114.78
127.21
135.69
138.11
133.14
120.75
102.19
79.52
54.81
29.58
4.7
-19.46
-42.58
-64.24
-83.87
-101.02
-115.52
-127.47
-137.23
-145.15
-151.35
-155.5
-156.87
-154.53
-147.74
-136.27
-120.52
-101.77
-82.08
-63.81
-49.0
-38.73
-32.62
-29.0
-25.51
-19.58
-9.49
5.08
23.02
42.35
60.93
77.17
90.33
100.48
108.75
115.91
121.56
124.27
122.52
115.81
105.12
92.42
79.68
69.32
62.06
56.36
49.5
39.4
25.95
10.95
-3.14
-14.39
-19.71
-17.48
-8.6
4.07
17.09
27.78
34.67
37.47
36.97
37.88
44.95
60.25
82.92
110.6
141.38
174.68
210.83
231.69
224.53
189.29
138.89
88.41
45.95
12.57
-13.96
-36.35
-56.32
-70.92
-74.52
-67.41
-52.51
-34.2
-16.61
-1.64
12.01
28.42
54.63
95.03
147.81
202.29
244.99
264.64
256.79
225.01
178.64
129.52
86.02
50.06
18.49
-13.19
-47.73
-85.03
-123.43
-161.56
-198.62
-234.7
-269.81
-302.54
-329.85
-348.45
-356.7
-355.9
-349.8
-342.39
-335.91
-329.96
-322.0
-309.18
-290.32
-266.7
-241.28
-217.01
-195.36
-175.83
-156.77
-136.64
-114.94
-92.58
-71.2
-52.2
-36.1
-22.52
-10.59
0.26
9.99
18.06
23.83
27.16
28.66
29.54
31.02
33.82
37.84
42.16
45.53
46.94
45.93
42.83
38.41
33.61
29.19
25.58
23.01
21.65
21.67
23.18
26.14
30.23
34.82
39.15
42.48
44.38
44.72
43.67
41.55
38.7
35.44
31.97
28.46
25.02
21.76
18.84
16.49
14.95
14.39
14.76
15.66
16.5
16.65
15.74
13.84
11.5
9.57
8.78
9.48
11.37
13.71
15.51
16.02
14.9
12.16
7.99
2.49
-4.36
-12.56
-21.71
-30.93
-38.95
-44.62
-47.46
-47.84
-46.9
-45.91
-45.78
-46.8
-48.83
-51.54
-54.7
-57.9
-60.37
-60.8
-57.62
-49.71
-36.96
-20.42
-1.95
16.54
33.71
48.8
61.3
70.46
75.2
74.68
69.04
59.9
49.98
42.18
38.46
39.32
44.04
51.39
60.18
69.26
77.1
81.51
80.2
71.96
57.83
41.22
26.75
18.17
16.69
20.75
27.21
33.37
38.17
42.21
46.6
51.68
56.5
59.44
59.26
55.98
50.86
45.58
41.47
38.82
37.08
35.32
32.79
29.27
24.96
20.33
15.77
11.49
7.5
3.68
-0.11
-3.99
-8.02
-12.23
-16.66
-21.38
-26.37
-31.45
-36.22
-40.07
-42.3
-42.43
-40.34
-36.33
-31.05
-25.18
-19.22
-13.33
-7.44
-1.49
4.34
9.55
13.45
15.38
14.97
12.38
8.22
3.37
-1.27
-5.13
-8.11
-10.52
-12.76
-15.06
-17.24
-18.89
-19.64
-19.53
-19.16
-19.46
-21.25
-24.89
-30.16
-36.36
-42.68
-48.39
-52.88
-55.59
-56.04
-53.87
-49.01
-41.77
-32.73
-22.55
-11.76
-0.79
9.89
19.6
27.48
32.73
34.91
34.24
31.59
28.17
25.17
23.39
22.98
23.56
24.4
24.76
24.07
22.16
19.29
15.99
12.9
10.34
8.34
6.51
4.35
1.41
-2.5
-7.3
-12.63
-17.82
-21.98
-24.05
-23.1
-18.73
-11.4
-2.37
6.62
14.09
19.32
22.63
25.07
27.73
31.18
35.16
38.87
41.42
42.3
41.62
39.93
37.89
35.89
33.95
31.83
29.29
26.32
23.08
19.8
16.57
13.24
9.43
4.75
-0.97
-7.63
-14.87
-22.25
-29.41
-36.13
-42.26
-47.65
-51.92
-54.59
-55.15
-53.34
-49.29
-43.49
-36.63
-29.41
-22.32
-15.74
-10.02
-5.56
-2.79
-1.92
-2.69
-4.39
-5.98
-6.58
-5.8
-3.89
-1.52
0.52
1.8
2.31
2.46
2.8
3.68
5.21
7.18
9.21
10.86
11.75
11.6
10.32
8.03
5.19
2.54
0.88
0.93
2.98
6.84
11.85
17.13
21.88
25.55
27.9
28.91
28.61
26.99
24.11
20.09
15.31
10.34
5.8
2.18
-0.33
-1.93
-3.03
-4.09
-5.37
-6.85
-8.28
-9.36
-9.92
-10.18
-10.63
-12.05
-15.18
-20.5
-27.94
-36.82
-45.99
-53.98
-59.51
-61.85
-61.0
-57.64
-52.89
-47.78
-42.96
-38.42
-33.69
-28.16
-21.37
-13.24
-3.92
6.34
17.29
28.51
39.25
48.35
54.5
56.76
55.01
50.07
43.39
36.48
30.42
25.62
21.98
19.2
16.93
14.8
12.38
9.32
5.67
2.07
-0.36
-0.35
2.9
9.5
18.82
29.81
41.34
52.35
61.91
69.14
73.37
74.28
72.04
67.24
60.7
53.21
45.3
37.31
29.54
22.32
15.98
10.67
6.29
2.53
-0.95
-4.39
-7.84
-11.27
-14.62
-17.94
-21.35
-25.04
-29.14
-33.71
-38.55
-43.23
-47.04
-49.07
-48.49
-44.8
-38.02
-28.8
-18.26
-7.73
1.6
8.88
13.72
16.18
16.59
15.46
13.33
10.66
7.87
5.26
3.07
1.35
-0.06
-1.55
-3.55
-6.43
-10.21
-14.55
-18.86
-22.52
-25.2
-27.05
-28.59
-30.49
-33.24
-36.82
-40.64
-43.71
-44.97
-43.74
-39.95
-34.24
-27.61
-21.09
-15.35
-10.53
-6.39
-2.62
0.97
4.32
7.22
9.55
11.31
12.67
13.78
14.62
15.08
14.97
14.22
12.93
11.35
9.75
8.37
7.4
6.93
6.95
7.24
7.27
6.31
3.65
-0.88
-6.67
-12.28
-15.95
-16.29
-12.89
-6.46
1.46
9.22
15.55
19.87
22.16
22.66
21.67
19.46
16.42
13.02
9.86
7.38
5.74
4.81
4.18
3.46
2.29
0.54
-1.77
-4.51
-7.43
-10.22
-12.53
-14.16
-15.12
-15.78
-16.76
-18.7
-22.0
-26.49
-31.37
-35.38
-37.24
-36.11
-31.9
-25.25
-17.32
-9.33
-2.27
3.27
7.06
9.08
9.51
8.58
6.67
4.3
2.02
0.37
-0.32
-0.03
1.03
2.51
4.02
5.33
6.35
7.15
7.8
8.29
8.52
8.33
7.57
6.14
3.99
1.13
-2.35
-6.24
-10.09
-13.16
-14.59
-13.65
-10.1
-4.31
2.84
10.25
16.98
22.53
26.78
29.84
31.77
32.53
32.02
30.27
27.6
24.57
21.83
19.81
18.59
17.83
17.05
15.81
13.92
11.44
8.64
5.79
3.11
0.68
-1.55
-3.75
-6.17
-9.1
-12.74
-17.05
-21.6
-25.67
-28.43
-29.16
-27.62
-23.99
-18.92
-13.26
-7.82
-3.24
0.05
1.83
2.11
1.0
-1.23
-4.19
-7.39
-10.31
-12.58
-14.0
-14.63
-14.72
-14.6
-14.49
-14.43
-14.28
-13.73
-12.53
-10.64
-8.32
-6.06
-4.5
-4.19
-5.37
-7.83
-10.89
-13.48
-14.45
-12.92
-8.59
-1.87
6.22
14.42
21.65
27.3
31.25
33.69
34.86
34.87
33.77
31.71
29.04
26.34
24.14
22.7
21.85
21.08
19.78
17.59
14.54
11.02
7.56
4.53
1.99
-0.32
-2.81
-5.85
-9.63
-14.04
-18.62
-22.65
-25.2
-25.38
-22.61
-16.91
-8.99
-0.09
8.36
15.2
19.78
21.99
22.16
20.73
18.17
14.93
11.53
8.48
6.22
4.9
4.26
3.73
2.62
0.48
-2.74
-6.65
-10.6
-14.05
-16.76
-18.87
-20.83
-23.14
-26.15
-29.95
-34.23
-38.37
-41.5
-42.66
-41.1
-36.51
-29.21
-20.08
-10.34
-1.2
6.45
12.14
15.81
17.63
17.95
17.16
15.7
14.02
12.46
11.26
10.43
9.84
9.21
8.3
6.91
5.07
2.96
0.88
-0.87
-2.21
-3.3
-4.61
-6.65
-9.8
-14.02
-18.72
-22.91
-25.38
-25.19
-21.9
-15.84
-7.88
0.83
9.24
16.68
22.81
27.56
30.89
32.82
33.43
33.02
32.05
31.07
30.43
30.13
29.91
29.37
28.23
26.48
24.35
22.18
20.24
18.65
17.35
16.18
14.86
13.07
10.41
6.6
1.56
-4.29
-10.0
-14.36
-16.23
-15.06
-11.14
-5.52
0.46
5.57
9.2
11.31
12.27
12.47
12.11
11.22
9.78
7.89
5.84
3.94
2.34
0.96
-0.46
-2.12
-4.02
-5.93
-7.51
-8.63
-9.46
-10.52
-12.51
-15.99
-21.16
-27.68
-34.65
-40.79
-44.77
-45.62
-43.06
-37.54
-30.12
-22.03
-14.3
-7.58
-2.16
1.85
4.37
5.34
4.8
2.98
0.35
-2.47
-4.84
-6.23
-6.33
-5.14
-3.04
-0.66
1.27
2.22
2.04
1.0
-0.38
-1.67
-2.72
-3.7
-4.99
-6.89
-9.42
-12.25
-14.75
-16.2
-16.0
-13.84
-9.76
-4.08
2.64
9.77
16.66
22.72
27.43
30.39
31.45
30.79
29.05
27.12
25.95
26.01
27.15
28.55
29.13
27.99
24.82
19.99
14.32
8.77
3.97
0.07
-3.2
-6.41
-10.16
-14.83
-20.47
-26.72
-32.8
-37.63
-40.23
-39.94
-36.72
-31.11
-24.21
-17.19
-10.99
-6.08
-2.6
-0.57
0.06
-0.67
-2.56
-5.4
-8.84
-12.46
-15.81
-18.58
-20.66
-22.13
-23.22
-24.16
-25.46
-27.52
-30.36
-33.49
-36.07
-37.35
-36.94
-34.96
-32.05
-29.72
-29.39
-31.31
-34.27
-36.28
-35.66
-31.51
-23.77
-13.02
-1.52
8.55
16.4
23.42
32.0
44.08
60.72
82.11
107.66
134.07
157.58
175.94
189.55
199.64
206.3
208.37
204.2
192.3
168.8
130.14
74.95
5.6
-73.51
-157.63
-241.44
-318.98
-366.98
-365.59
-314.94
-238.44
-163.23
-104.66
-65.16
-39.57
-20.9
-3.79
8.79
15.0
14.46
10.78
9.28
13.95
26.29
45.35
68.47
90.02
105.78
112.99
113.06
109.84
107.13
107.28
110.68
115.8
118.59
115.07
102.93
83.25
59.11
33.81
10.0
-10.48
-26.5
-38.22
-46.35
-51.98
-55.64
-57.53
-57.68
-56.04
-52.65
-47.92
-43.1
-39.56
-38.29
-38.93
-40.01
-39.75
-37.12
-32.48
-27.46
-24.17
-24.03
-27.12
-32.07
-36.81
-39.45
-39.01
-35.63
-30.27
-24.33
-19.22
-16.12
-15.65
-17.8
-21.9
-26.76
-31.03
-33.61
-33.97
-32.26
-29.19
-25.7
-22.64
-20.48
-19.26
-18.66
-18.2
-17.46
-16.3
-14.91
-13.77
-13.46
-14.37
-16.42
-18.96
-20.93
-21.26
-19.2
-14.82
-8.91
-2.76
2.42
5.97
7.89
8.66
8.78
8.44
7.49
5.78
3.53
1.55
0.95
2.63
6.66
12.09
17.23
20.31
20.17
16.67
10.6
3.28
-3.96
-10.2
-14.95
-18.06
-19.44
-18.98
-16.72
-12.94
-8.28
-3.54
0.67
4.15
7.23
10.47
14.3
18.59
22.74
25.9
27.52
27.72
27.31
27.57
29.73
34.67
42.67
53.49
66.42
80.4
94.28
106.97
117.68
126.09
132.26
136.39
138.48
138.06
134.32
126.38
113.84
97.04
77.1
55.58
33.92
13.07
-6.57
-25.04
-42.51
-59.01
-74.44
-88.56
-100.98
-111.1
-118.03
-120.6
-117.65
-108.26
-92.3
-70.65
-45.26
-18.85
5.61
25.55
39.38
46.68
48.23
45.6
40.69
35.28
30.69
27.56
25.9
25.13
24.36
22.7
19.61
15.09
9.66
4.09
-1.0
-5.38
-9.26
-13.02
-16.99
-21.24
-25.57
-29.63
-33.01
-35.31
-36.1
-35.04
-31.98
-27.07
-20.79
-13.87
-7.14
-1.28
3.19
5.97
6.95
6.21
4.09
1.05
-2.27
-5.37
-7.9
-9.81
-11.26
-12.46
-13.64
-14.91
-16.4
-18.21
-20.49
-23.33
-26.71
-30.46
-34.17
-37.29
-39.21
-39.39
-37.48
-33.49
-27.77
-20.98
-13.92
-7.35
-1.82
2.4
5.27
6.9
7.47
7.16
6.15
4.65
2.91
1.16
-0.42
-1.77
-2.9
-3.91
-4.94
-6.06
-7.33
-8.82
-10.68
-13.08
-16.11
-19.63
-23.16
-25.92
-27.07
-26.01
-22.62
-17.34
-11.04
-4.69
0.88
5.16
8.0
9.44
9.66
8.82
7.15
4.89
2.36
-0.17
-2.4
-4.2
-5.49
-6.33
-6.83
-7.12
-7.37
-7.77
-8.61
-10.25
-13.01
-16.96
-21.73
-26.44
-29.94
-31.14
-29.42
-24.88
-18.3
-10.81
-3.5
2.86
7.91
11.55
13.85
14.92
14.91
14.04
12.59
10.89
9.2
7.62
6.14
4.59
2.84
0.8
-1.43
-3.65
-5.71
-7.65
-9.74
-12.42
-15.96
-20.16
-24.23
-26.93
-27.07
-23.98
-17.84
-9.6
-0.6
7.9
15.11
20.75
24.95
27.94
29.93
30.98
31.08
30.19
28.27
25.33
21.42
16.65
11.23
5.46
-0.31
-5.66
-10.28
-14.05
-17.1
-19.82
-22.7
-26.16
-30.17
-34.24
-37.4
-38.54
-36.78
-31.8
-24.01
-14.41
-4.33
4.91
12.31
17.33
19.95
20.56
19.84
18.47
17.05
15.85
14.86
13.89
12.71
11.19
9.39
7.48
5.51
3.49
1.28
-1.24
-4.12
-7.26
-10.51
-13.79
-17.05
-20.21
-22.98
-24.88
-25.23
-23.51
-19.53
-13.56
-6.3
1.42
8.7
14.83
19.21
21.46
21.47
19.45
15.94
11.7
7.49
3.87
0.98
-1.39
-3.77
-6.77
-10.92
-16.4
-22.86
-29.43
-34.91
-38.17
-38.65
-36.64
-33.28
-30.16
-28.64
-29.36
-31.97
-35.29
-37.8
-38.2
-35.82
-30.74
-23.57
-15.01
-5.53
4.83
16.28
28.92
42.44
55.87
67.85
76.9
81.92
82.48
78.92
72.21
63.6
54.38
45.62
38.1
32.3
28.34
26.05
24.93
24.3
23.4
21.61
18.53
14.02
8.23
1.51
-5.63
-12.55
-18.53
-22.82
-24.81
-24.16
-20.92
-15.62
-9.09
-2.28
4.02
9.32
13.48
16.47
18.23
18.59
17.4
14.74
11.12
7.35
4.28
2.38
1.57
1.31
1.01
0.3
-0.86
-2.23
-3.62
-5.03
-6.65
-8.76
-11.56
-15.1
-19.21
-23.54
-27.5
-30.37
-31.36
-29.82
-25.47
-18.6
-10.02
-0.81
7.89
15.28
20.89
24.6
26.46
26.61
25.28
22.83
19.79
16.71
14.13
12.24
10.94
9.83
8.5
6.67
4.42
2.01
-0.22
-2.14
-3.88
-5.86
-8.56
-12.35
-17.41
-23.63
-30.64
-37.78
-44.04
-48.26
-49.3
-46.41
-39.55
-29.49
-17.59
-5.4
5.74
14.98
21.95
26.63
29.14
29.67
28.49
25.96
22.56
18.89
15.5
12.86
11.17
10.4
10.26
10.3
10.1
9.39
8.15
6.57
4.88
3.15
1.16
-1.53
-5.44
-10.88
-17.69
-25.14
-32.05
-37.04
-38.95
-37.17
-31.79
-23.56
-13.63
-3.19
6.76
15.59
22.98
28.75
32.8
35.04
35.48
34.31
31.99
29.1
26.22
23.74
21.8
20.3
18.95
17.4
15.38
12.64
9.14
5.01
0.49
-4.09
-8.48
-12.64
-16.76
-21.25
-26.54
-32.91
-40.24
-47.93
-54.91
-59.94
-62.03
-60.75
-56.5
-50.29
-43.4
-36.85
-31.16
-26.35
-22.28
-19.02
-17.0
-16.83
-18.9
-23.0
-28.2
-33.04
-36.02
-36.03
-32.57
-25.83
-16.4
-5.08
7.32
20.23
33.26
46.34
59.5
72.68
85.43
96.68
104.73
107.65
104.07
93.88
78.77
61.97
47.32
38.11
35.98
40.58
49.93
61.23
72.03
80.96
88.01
94.21
100.84
108.56
116.8
123.81
127.41
126.03
119.76
110.54
101.34
94.85
92.11
92.07
92.08
89.21
81.53
68.85
52.52
34.71
17.49
2.11
-11.15
-22.47
-32.08
-39.88
-45.45
-48.46
-49.05
-47.95
-46.18
-44.52
-43.06
-41.15
-37.84
-32.56
-25.61
-18.26
-12.22
-9.05
-9.53
-13.44
-19.72
-26.9
-33.46
-38.26
-40.67
-40.64
-38.55
-35.06
-30.84
-26.54
-22.7
-19.74
-17.97
-17.44
-17.96
-19.07
-20.17
-20.77
-20.67
-20.16
-19.83
-20.36
-22.15
-25.06
-28.35
-30.96
-31.83
-30.28
-26.13
-19.67
-11.5
-2.3
7.19
16.18
23.79
29.13
31.46
30.51
26.59
20.62
13.76
7.12
1.38
-3.35
-7.34
-11.05
-14.79
-18.59
-22.23
-25.45
-28.08
-30.19
-32.01
-33.82
-35.91
-38.41
-41.39
-44.71
-48.0
-50.63
-51.8
-50.79
-47.2
-41.2
-33.52
-25.18
-17.2
-10.29
-4.8
-0.81
1.64
2.55
1.95
0.03
-2.77
-5.85
-8.64
-10.73
-12.0
-12.57
-12.62
-12.29
-11.6
-10.51
-8.97
-7.05
-4.99
-3.16
-2.03
-2.08
-3.67
-6.85
-11.24
-16.07
-20.23
-22.63
-22.44
-19.43
-13.95
-6.85
0.83
8.22
14.72
20.0
23.86
26.12
26.6
25.29
22.49
18.76
14.84
11.31
8.46
6.15
4.01
1.69
-0.93
-3.7
-6.31
-8.5
-10.21
-11.6
-13.01
-14.76
-17.02
-19.72
-22.59
-25.12
-26.7
-26.73
-24.76
-20.66
-14.77
-7.87
-0.98
4.92
9.24
11.91
13.3
13.95
14.29
14.4
14.18
13.43
12.17
10.62
9.14
7.95
7.01
5.97
4.37
1.86
-1.63
-5.85
-10.29
-14.41
-17.78
-20.22
-21.83
-22.97
-24.04
-25.33
-26.79
-27.98
-28.15
-26.48
-22.36
-15.75
-7.17
2.32
11.52
19.33
25.08
28.56
30.03
29.98
28.97
27.51
26.0
24.68
23.71
23.12
22.86
22.83
22.88
22.83
22.57
21.99
21.05
19.7
17.95
15.84
13.5
11.29
9.8
9.81
12.09
17.11
24.8
34.39
44.55
53.67
60.3
63.51
63.07
59.35
53.17
45.4
36.77
27.74
18.54
9.26
-0.06
-9.27
-18.18
-26.47
-33.81
-39.9
-44.64
-48.13
-50.8
-53.25
-56.1
-59.71
-63.99
-68.3
-71.55
-72.5
-70.14
-64.08
-54.73
-43.23
-31.17
-20.09
-11.08
-4.66
-0.76
1.01
1.11
-0.01
-1.94
-4.17
-6.16
-7.44
-7.8
-7.38
-6.69
-6.39
-7.03
-8.83
-11.62
-15.0
-18.56
-22.05
-25.32
-28.26
-30.56
-31.75
-31.25
-28.69
-24.0
-17.54
-9.88
-1.69
6.41
13.87
20.18
24.8
27.26
27.34
25.1
21.07
16.04
10.9
6.5
3.32
1.49
0.73
0.52
0.25
-0.63
-2.51
-5.66
-10.14
-15.85
-22.33
-28.74
-33.81
-36.24
-35.02
-29.92
-21.61
-11.54
-1.42
7.36
14.01
18.51
21.23
22.59
22.75
21.59
18.96
14.89
9.86
4.68
0.2
-2.96
-4.74
-5.55
-6.08
-7.0
-8.77
-11.59
-15.45
-20.21
-25.46
-30.5
-34.26
-35.55
-33.36
-27.32
-17.83
-6.11
6.25
17.69
27.11
33.96
38.25
40.32
40.66
39.74
37.92
35.44
32.48
29.15
25.61
22.08
18.78
15.94
13.6
11.62
9.63
7.08
3.45
-1.6
-8.01
-15.23
-22.27
-27.93
-30.99
-30.63
-26.59
-19.3
-9.75
0.69
10.54
18.55
23.88
26.26
25.98
23.72
20.37
16.78
13.51
10.77
8.48
6.4
4.37
2.33
0.44
-1.04
-1.91
-2.17
-2.06
-2.07
-2.75
-4.53
-7.5
-11.33
-15.16
-17.91
-18.43
-15.96
-10.31
-2.05
7.64
17.25
25.35
30.94
33.63
33.66
31.67
28.53
25.05
21.91
19.47
17.83
16.82
16.03
14.99
13.29
10.76
7.57
4.1
0.82
-1.99
-4.41
-6.88
-9.93
-13.91
-18.63
-23.29
-26.72
-27.69
-25.42
-19.8
-11.49
-1.67
8.28
17.15
24.16
28.96
31.6
32.36
31.6
29.73
27.15
24.31
21.61
19.3
17.47
15.96
14.45
12.59
10.19
7.27
4.06
0.84
-2.2
-5.13
-8.24
-11.94
-16.47
-21.76
-27.2
-31.82
-34.44
-34.08
-30.28
-23.29
-14.03
-3.79
6.07
14.53
21.01
25.38
27.79
28.52
27.87
26.17
23.83
21.27
18.85
16.74
14.79
12.57
9.61
5.66
0.88
-4.14
-8.64
-12.05
-14.29
-15.87
-17.69
-20.68
-25.38
-31.72
-38.99
-45.98
-51.31
-53.75
-52.54
-47.59
-39.41
-29.01
-17.6
-6.36
3.74
11.94
17.69
20.67
20.88
18.72
14.96
10.61
6.58
3.45
1.42
0.32
-0.11
-0.13
0.15
0.65
1.33
2.1
2.88
3.53
3.89
3.67
2.51
0.13
-3.45
-7.66
-11.39
-13.24
-11.98
-7.06
1.13
11.37
22.0
31.46
38.7
43.32
45.44
45.38
43.46
39.93
35.06
29.35
23.5
18.32
14.37
11.76
10.12
8.73
6.96
4.54
1.65
-1.23
-3.55
-5.07
-5.93
-6.67
-8.01
-10.58
-14.7
-20.17
-26.21
-31.56
-34.79
-34.73
-30.87
-23.54
-13.88
-3.4
6.46
14.68
20.81
24.81
26.82
26.99
25.45
22.37
18.15
13.35
8.69
4.84
2.21
0.88
0.51
0.55
0.44
-0.16
-1.23
-2.49
-3.63
-4.51
-5.33
-6.49
-8.44
-11.42
-15.28
-19.53
-23.39
-25.97
-26.46
-24.26
-19.2
-11.57
-2.17
7.88
17.34
25.07
30.34
32.85
32.78
30.69
27.41
23.76
20.44
17.83
15.97
14.64
13.48
12.08
10.16
7.52
4.14
0.13
-4.29
-8.89
-13.52
-18.18
-23.05
-28.28
-33.91
-39.71
-45.09
-49.26
-51.38
-50.78
-47.17
-40.68
-31.94
-21.95
-11.94
-3.13
3.51
7.44
8.66
7.65
5.19
2.18
-0.56
-2.43
-3.06
-2.37
-0.49
2.18
5.08
7.64
9.36
10.03
9.67
8.56
7.02
5.26
3.22
0.6
-2.97
-7.65
-13.1
-18.43
-22.38
-23.79
-22.02
-17.24
-10.37
-2.65
4.71
10.89
15.49
18.33
19.28
18.25
15.31
10.85
5.71
0.89
-2.76
-4.89
-5.77
-6.14
-6.86
-8.5
-11.15
-14.43
-17.76
-20.62
-22.82
-24.57
-26.38
-28.8
-32.21
-36.5
-41.02
-44.61
-45.93
-43.87
-37.98
-28.61
-16.91
-4.41
7.35
17.15
24.31
28.62
30.26
29.67
27.48
24.45
21.35
18.8
17.14
16.32
16.01
15.76
15.19
14.11
12.53
10.55
8.29
5.79
3.02
-0.09
-3.65
-7.83
-12.83
-18.74
-25.35
-31.94
-37.4
-40.46
-40.17
-36.31
-29.49
-21.03
-12.47
-5.12
0.27
3.6
5.28
5.93
6.12
6.18
6.16
5.92
5.18
3.77
1.68
-0.92
-3.67
-6.2
-8.25
-9.74
-10.83
-11.87
-13.2
-15.15
-17.84
-21.29
-25.32
-29.56
-33.45
-36.18
-36.84
-34.61
-29.1
-20.54
-9.77
1.96
13.4
23.64
32.26
39.14
44.37
47.98
49.92
50.24
49.16
47.14
44.81
42.74
41.27
40.4
39.86
39.24
38.19
36.46
33.97
30.63
26.38
21.16
14.91
7.64
-0.58
-9.61
-19.17
-28.81
-37.89
-45.55
-50.92
-53.38
-52.84
-49.78
-45.18
-40.21
-35.98
-33.26
-32.34
-33.15
-35.34
-38.32
-41.33
-43.68
-44.99
-45.53
-46.16
-48.02
-52.0
-58.38
-66.62
-75.5
-83.78
-90.7
-96.33
-101.36
-106.46
-112.08
-118.17
-124.17
-128.62
-129.3
-123.45
-108.23
-81.65
-43.0
5.88
60.25
113.65
160.22
196.18
220.52
234.43
239.67
238.42
231.63
219.03
200.71
179.06
158.16
141.87
131.62
124.86
117.89
106.81
89.2
65.97
42.01
23.71
15.97
20.13
33.38
52.78
75.24
97.95
112.28
111.74
96.7
75.38
63.6
62.01
67.02
74.89
80.03
80.32
76.69
71.29
65.56
58.79
47.69
30.28
5.56
-26.37
-63.58
-102.29
-138.14
-167.67
-189.55
-205.1
-215.79
-223.44
-229.92
-236.1
-241.52
-245.33
-247.31
-248.5
-250.87
-254.82
-259.13
-261.29
-258.08
-246.66
-225.41
-194.17
-153.99
-106.61
-53.61
3.01
60.38
114.71
161.87
198.17
221.47
231.79
231.43
224.43
215.13
206.78
200.9
197.53
196.19
196.73
199.4
204.28
210.44
215.82
218.05
215.54
208.3
197.55
184.51
169.46
151.73
130.69
107.02
83.28
63.28
50.68
47.4
52.91
64.38
77.79
89.16
95.63
96.0
90.64
80.95
68.49
54.28
38.37
20.03
-1.55
-26.63
-54.52
-83.93
-113.41
-141.84
-168.37
-192.1
-211.79
-226.04
-234.1
-236.49
-235.3
-233.52
-233.82
-237.25
-242.79
-247.84
-249.53
-246.08
-237.58
-225.88
-213.64
-203.3
-196.33
-192.93
-192.29
-192.8
-192.51
-189.62
-183.19
-173.73
-163.24
-154.61
-150.45
-151.77
-157.25
-163.59
-166.72
-163.36
-152.18
-133.98
-110.99
-85.88
-60.72
-36.49
-13.01
10.92
37.02
66.79
100.77
138.05
176.16
211.59
240.74
260.83
270.65
270.7
262.73
249.07
231.92
212.82
192.42
170.6
146.85
121.04
93.97
67.75
45.33
29.55
21.93
22.08
27.71
35.42
41.76
44.05
40.8
31.87
18.39
2.61
-12.21
-22.43
-24.92
-18.15
-2.79
18.43
41.68
63.3
80.82
93.29
100.89
104.26
103.89
99.93
92.32
81.32
67.82
53.53
40.67
31.32
26.8
27.48
33.1
43.29
57.76
76.12
97.23
118.51
136.26
146.78
147.72
139.16
123.1
101.85
76.21
44.98
6.36
-39.76
-90.05
-138.18
-177.1
-201.94
-211.71
-208.71
-196.26
-176.57
-150.15
-116.98
-78.67
-38.98
-3.03
24.94
43.62
54.89
61.92
66.67
68.45
64.2
51.47
30.15
3.11
-24.82
-48.75
-65.72
-75.31
-78.94
-79.19
-77.51
-74.26
-69.16
-61.62
-51.16
-38.29
-24.71
-12.78
-5.11
-1.43
1.57
8.52
19.45
31.55
39.49
38.88
34.57
29.42
27.46
32.37
42.08
53.13
61.3
63.82
60.89
55.11
48.55
42.65
37.41
32.11
26.93
23.1
22.26
24.77
28.99
30.89
27.16
16.78
1.17
-16.25
-32.28
-44.67
-52.6
-56.38
-57.35
-56.57
-55.11
-54.34
-55.5
-59.44
-64.87
-68.94
-68.23
-60.41
-44.53
-20.66
10.64
48.83
89.3
124.19
143.92
142.21
119.36
81.7
38.96
0.66
-25.79
-41.57
-49.64
-53.59
-56.57
-60.61
-67.09
-75.75
-85.49
-94.17
-99.83
-99.84
-92.91
-79.96
-63.69
-48.58
-39.05
-37.56
-43.54
-54.3
-64.5
-68.81
-63.53
-46.23
-17.1
20.97
62.8
102.18
129.94
139.67
129.65
104.39
75.08
54.02
49.53
62.79
88.59
118.91
147.74
172.45
186.36
186.68
173.87
151.08
122.32
91.93
64.49
44.04
32.72
25.32
16.06
-0.04
-24.62
-54.72
-83.8
-104.44
-108.38
-92.77
-60.94
-19.63
22.15
55.33
72.7
70.79
51.28
21.2
-9.05
-28.91
-30.9
-15.01
10.84
34.24
44.41
36.94
15.2
-12.64
-37.74
-53.69
-58.1
-51.86
-37.47
-18.21
1.89
17.95
24.78
18.92
0.39
-27.16
-58.04
-86.95
-110.53
-127.75
-139.01
-144.93
-145.67
-141.05
-131.14
-116.87
-100.0
-82.58
-66.43
-52.81
-42.36
-35.23
-31.26
-30.09
-31.36
-34.59
-39.16
-44.22
-48.7
-51.54
-51.98
-49.97
-46.15
-41.53
-36.77
-31.72
-25.34
-16.29
-3.77
11.69
28.17
43.0
53.8
59.41
60.11
57.17
51.9
45.06
36.64
26.46
14.94
3.43
-5.94
-11.03
-10.37
-3.65
8.45
24.56
42.97
61.86
79.36
94.01
105.24
113.81
121.67
130.81
141.69
152.02
157.0
151.18
131.3
98.5
58.67
20.36
-8.77
-25.12
-30.3
-29.75
-29.78
-34.5
-44.56
-57.76
-70.95
-81.92
-90.11
-96.12
-100.64
-103.75
-104.91
-103.51
-99.52
-93.6
-86.89
-80.56
-75.56
-72.63
-72.5
-76.1
-84.33
-97.54
-114.66
-132.81
-147.62
-154.6
-150.8
-136.52
-115.63
-94.7
-80.89
-79.26
-90.89
-112.35
-136.99
-157.18
-166.83
-163.07
-146.75
-121.69
-93.12
-65.92
-43.22
-26.07
-13.84
-5.19
1.18
6.24
10.7
15.3
20.92
28.32
37.92
49.6
62.94
77.45
92.99
109.68
127.76
146.82
165.6
182.2
194.6
201.56
203.15
200.76
196.48
192.3
189.36
187.79
186.75
184.91
180.77
172.95
160.45
142.98
121.29
97.28
73.67
53.26
37.9
27.98
22.5
19.72
18.08
16.61
15.06
13.5
11.98
10.39
8.56
6.53
4.61
3.23
2.67
2.9
3.51
4.01
4.13
3.99
4.04
4.77
6.37
8.56
10.58
11.46
10.34
6.69
0.46
-7.95
-17.74
-27.87
-37.11
-44.31
-48.63
-49.75
-47.86
-43.47
-37.07
-29.03
-19.54
-8.81
2.67
14.14
24.62
33.2
39.18
42.21
42.19
39.23
33.61
25.78
16.27
5.65
-5.62
-17.11
-28.39
-38.99
-48.45
-56.49
-63.01
-68.18
-72.18
-74.98
-76.2
-75.03
-70.59
-62.18
-49.71
-33.81
-15.69
3.23
21.73
39.08
54.91
68.96
80.66
89.03
92.83
91.12
83.81
71.71
56.29
39.02
20.88
2.37
-16.22
-34.34
-50.91
-64.47
-73.56
-77.13
-74.99
-67.86
-57.29
-45.35
-34.15
-25.38
-19.95
-17.79
-18.01
-19.29
-20.36
-20.33
-18.85
-16.05
-12.32
-8.19
-4.12
-0.49
2.36
4.18
4.81
4.23
2.65
0.62
-1.1
-1.69
-0.62
2.19
6.35
11.22
16.24
21.09
25.72
30.18
34.38
38.02
40.6
41.53
40.25
36.35
29.64
20.26
8.9
-3.29
-14.75
-23.87
-29.4
-30.8
-28.34
-22.91
-15.78
-8.22
-1.32
4.12
7.62
8.95
8.15
5.53
1.56
-3.18
-8.14
-13.06
-17.91
-22.95
-28.51
-34.81
-41.73
-48.84
-55.51
-61.17
-65.59
-68.95
-71.73
-74.43
-77.32
-80.23
-82.53
-83.24
-81.23
-75.54
-65.66
-51.72
-34.53
-15.48
3.81
21.86
37.56
50.29
59.75
65.92
68.89
68.92
66.47
62.16
56.65
50.52
44.18
37.87
31.74
26.01
20.86
16.53
13.07
10.32
7.84
5.02
1.22
-4.02
-10.81
-18.83
-27.38
-35.51
-42.22
-46.74
-48.56
-47.65
-44.44
-39.69
-34.38
-29.45
-25.57
-23.07
-21.89
-21.8
-22.41
-23.39
-24.39
-25.1
-25.1
-24.03
-21.58
-17.74
-12.76
-7.11
-1.37
4.02
8.81
12.95
16.46
19.25
21.07
21.59
20.59
18.21
15.07
12.15
10.53
11.0
13.85
18.71
24.68
30.65
35.61
38.85
40.07
39.32
36.91
33.19
28.56
23.39
17.98
12.51
7.05
1.56
-4.11
-10.03
-16.17
-22.36
-28.4
-34.17
-39.68
-45.09
-50.56
-56.2
-61.93
-67.54
-72.65
-76.71
-78.92
-78.39
-74.36
-66.48
-55.12
-41.26
-26.31
-11.56
2.09
14.23
24.82
33.91
41.45
47.37
51.67
54.54
56.34
57.42
57.92
57.74
56.64
54.46
51.24
47.23
42.78
38.06
33.01
27.33
20.62
12.55
3.06
-7.56
-18.58
-28.91
-37.34
-42.72
-44.37
-42.26
-37.07
-29.93
-22.08
-14.57
-8.1
-3.07
0.24
1.64
1.04
-1.34
-4.94
-8.99
-12.73
-15.64
-17.61
-18.76
-19.37
-19.57
-19.43
-18.87
-17.84
-16.28
-14.18
-11.55
-8.49
-5.26
-2.29
-0.06
1.21
1.76
2.37
4.22
8.35
15.3
24.75
35.61
46.37
55.52
61.99
65.22
65.19
62.18
56.68
49.28
40.68
31.68
22.99
15.09
8.06
1.62
-4.77
-11.51
-18.7
-26.07
-33.05
-39.17
-44.25
-48.55
-52.74
-57.58
-63.6
-70.82
-78.57
-85.54
-90.04
-90.44
-85.6
-75.3
-60.29
-42.17
-22.96
-4.62
11.39
24.27
33.81
40.25
44.09
46.01
46.7
46.83
46.83
46.81
46.6
45.8
43.98
40.84
36.29
30.5
23.9
17.04
10.54
4.83
0.0
-4.31
-8.74
-13.81
-19.48
-25.01
-29.13
-30.6
-28.75
-23.76
-16.54
-8.33
-0.35
6.47
11.43
14.07
14.15
11.66
6.99
0.85
-5.91
-12.4
-17.97
-22.21
-24.98
-26.31
-26.37
-25.36
-23.41
-20.53
-16.54
-11.29
-4.83
2.43
9.61
15.63
19.51
20.82
19.95
18.08
16.88
17.97
22.3
29.77
39.26
49.07
57.51
63.4
66.37
66.64
64.79
61.44
57.18
52.52
47.92
43.75
40.07
36.63
32.87
28.13
21.96
14.28
5.44
-3.98
-13.3
-21.95
-29.66
-36.51
-42.98
-49.77
-57.55
-66.48
-75.91
-84.36
-89.9
-90.76
-86.06
-76.02
-61.94
-45.68
-29.05
-13.48
0.21
11.64
20.75
27.61
32.44
35.61
37.64
39.18
40.83
42.99
45.74
48.68
51.06
51.92
50.53
46.68
40.79
33.83
26.81
20.39
14.66
9.29
3.85
-1.88
-7.75
-13.32
-18.04
-21.29
-22.53
-21.28
-17.27
-10.64
-2.13
7.04
15.48
21.95
25.68
26.38
24.13
19.29
12.44
4.56
-2.9
-8.21
-9.77
-6.62
1.25
12.88
26.7
41.03
54.48
66.1
75.25
81.43
84.2
83.25
78.59
70.74
60.77
50.16
40.41
32.74
27.83
25.84
26.54
29.59
34.55
40.87
47.76
54.2
59.05
61.46
61.19
58.68
54.9
50.86
47.17
43.82
40.25
35.55
28.85
19.67
8.06
-5.35
-19.5
-33.26
-45.8
-56.82
-66.64
-75.86
-85.05
-94.29
-102.98
-109.87
-113.37
-111.93
-104.52
-90.92
-71.91
-49.19
-25.07
-1.98
18.02
33.63
44.38
50.57
53.14
53.38
52.66
52.08
52.11
52.39
51.83
49.11
43.32
34.46
23.65
12.73
3.66
-2.11
-4.1
-2.79
0.59
4.38
6.89
6.84
3.66
-2.39
-10.28
-18.56
-25.86
-31.26
-34.4
-35.44
-34.85
-33.15
-30.92
-28.71
-27.01
-26.22
-26.52
-27.76
-29.47
-30.91
-31.29
-29.96
-26.55
-21.02
-13.67
-5.07
4.0
12.57
19.66
24.43
26.49
25.94
23.45
20.01
16.55
13.68
11.45
9.41
6.96
3.69
-0.36
-4.61
-8.2
-10.36
-10.72
-9.45
-7.16
-4.6
-2.38
-0.9
-0.42
-1.25
-3.84
-8.57
-15.54
-24.31
-33.92
-43.02
-50.26
-54.69
-56.01
-54.69
-51.89
-49.11
-47.86
-48.99
-52.4
-56.79
-60.07
-59.97
-54.85
-44.24
-28.98
-10.78
8.35
26.64
42.83
56.12
66.01
72.17
74.61
73.76
70.55
66.22
61.93
58.39
55.64
53.13
50.1
45.91
40.33
33.66
26.49
19.47
12.99
7.03
1.18
-5.15
-12.29
-20.05
-27.57
-33.52
-36.59
-35.94
-31.55
-24.2
-15.18
-5.93
2.3
8.64
12.68
14.38
14.07
12.23
9.41
6.01
2.19
-2.06
-6.78
-11.84
-16.84
-21.18
-24.31
-25.9
-25.99
-24.91
-23.06
-20.82
-18.54
-16.57
-15.32
-15.16
-16.23
-18.13
-19.94
-20.38
-18.28
-13.04
-4.98
4.76
14.54
22.7
28.06
30.13
29.12
25.71
20.71
14.82
8.46
1.78
-5.2
-12.45
-19.78
-26.84
-33.28
-38.82
-43.42
-47.25
-50.61
-53.74
-56.81
-59.89
-63.03
-66.29
-69.57
-72.59
-74.68
-74.9
-72.12
-65.47
-54.59
-39.9
-22.46
-3.74
14.83
32.17
47.54
60.5
70.63
77.44
80.63
80.29
77.14
72.46
67.66
63.78
61.08
59.11
56.97
53.77
48.96
42.39
34.17
24.47
13.43
1.15
-12.27
-26.58
-41.24
-55.49
-68.33
-78.7
-85.73
-88.91
-88.18
-83.9
-76.73
-67.53
-57.21
-46.65
-36.56
-27.37
-19.01
-11.03
-2.65
6.91
18.32
31.96
47.95
65.96
85.04
103.47
118.96
129.32
133.2
130.71
123.33
113.28
102.58
92.31
82.44
72.24
60.98
48.43
35.17
22.39
11.53
3.88
0.17
0.32
3.42
7.94
12.22
14.86
15.07
12.68
7.92
1.25
-6.83
-15.76
-24.83
-33.17
-39.8
-43.91
-45.14
-43.76
-40.79
-37.69
-35.99
-36.76
-40.19
-45.63
-51.95
-58.13
-63.74
-69.07
-74.75
-81.18
-88.08
-94.46
-99.04
-100.74
-98.99
-93.78
-85.32
-73.86
-59.64
-43.11
-25.15
-7.01
9.82
24.08
34.99
42.26
45.93
46.15
43.14
37.42
30.1
22.92
17.99
17.17
21.35
30.1
41.61
53.27
62.53
67.66
68.19
64.8
58.73
51.16
42.62
33.04
22.29
10.82
0.18
-7.28
-9.24
-4.41
6.74
22.24
39.32
55.41
68.63
77.81
82.19
81.32
75.36
65.3
53.11
41.13
31.13
23.59
17.59
11.54
4.2
-4.62
-13.92
-22.11
-27.65
-29.4
-26.7
-19.52
-8.82
2.89
11.81
13.94
6.88
-8.64
-28.71
-47.63
-60.45
-64.91
-62.06
-55.06
-47.23
-40.39
-34.72
-29.56
-24.63
-20.56
-18.39
-18.52
-20.16
-21.45
-20.4
-15.78
-7.7
2.61
13.25
22.4
28.64
31.2
30.04
25.89
20.12
14.35
9.93
7.52
7.1
8.25
10.64
14.23
19.17
25.42
32.59
39.98
47.0
53.52
59.75
65.93
71.82
76.56
78.87
77.62
72.45
64.0
53.68
43.08
33.3
24.5
15.91
6.34
-5.15
-18.69
-33.53
-48.44
-62.35
-74.81
-86.29
-97.78
-110.2
-123.83
-138.08
-151.48
-162.17
-168.42
-169.04
-163.72
-153.06
-138.49
-121.98
-105.67
-91.36
-80.19
-72.35
-67.08
-62.87
-57.91
-50.57
-39.88
-25.85
-9.56
7.1
21.87
32.89
39.29
41.69
42.04
42.85
46.07
52.31
60.54
68.71
74.92
78.35
79.62
80.44
82.63
87.29
94.38
102.97
111.8
119.9
126.81
132.54
137.16
140.49
142.08
141.38
138.1
132.49
125.3
117.48
109.7
102.0
93.79
84.23
72.73
59.38
44.99
30.73
17.63
6.21
-3.62
-12.43
-20.89
-29.52
-38.48
-47.5
-55.99
-63.23
-68.6
-71.86
-73.23
-73.27
-72.69
-72.0
-71.42
-70.96
-70.53
-70.18
-70.09
-70.44
-71.35
-72.62
-73.86
-74.62
-74.61
-73.81
-72.41
-70.69
-68.93
-67.36
-66.11
-65.19
-64.51
-64.01
-63.67
-63.56
-63.87
-64.65
-65.92
-67.25
-67.79
-66.59
-62.99
-56.96
-49.13
-40.51
-32.24
-25.6
-21.31
-19.39
-19.38
-20.66
-22.71
-25.17
-27.66
-29.98
-32.85
-36.77
-41.67
-47.15
-52.75
-58.29
-63.74
-69.05
-74.23
-80.56
-88.73
-98.34
-108.3
-117.5
-125.29
-131.27
-134.8
-135.07
-132.74
-127.8
-119.23
-106.04
-88.08
-66.5
-43.24
-20.09
12.05
55.07
103.41
147.12
178.09
194.29
198.68
195.13
188.67
182.19
175.0
165.84
154.64
141.59
127.84
113.29
98.55
84.3
71.37
59.34
44.64
27.76
10.47
-5.77
-17.74
-24.58
-26.64
-25.13
-22.28
-19.86
-18.01
-16.34
-14.21
-11.24
-7.79
-4.38
-1.7
-0.69
-1.74
-4.06
-6.64
-8.51
-9.17
-8.98
-8.61
-8.87
-10.46
-13.61
-17.79
-22.4
-26.98
-31.34
-35.61
-39.8
-43.52
-46.04
-46.44
-43.91
-38.26
-29.96
-19.89
-8.94
2.39
13.95
25.74
37.49
48.74
59.04
68.31
76.97
85.54
94.16
102.15
108.01
110.03
107.1
99.34
88.0
74.81
61.16
47.62
34.06
20.16
5.94
-7.91
-20.06
-29.03
-33.88
-34.52
-31.77
-26.93
-21.41
-16.38
-12.59
-9.9
-7.9
-6.38
-5.6
-6.09
-8.24
-12.1
-17.34
-23.4
-28.82
-32.37
-33.69
-33.59
-33.49
-34.61
-37.54
-42.25
-48.34
-53.97
-57.47
-58.29
-57.16
-55.09
-52.2
-47.41
-39.1
-26.06
-6.22
21.32
55.58
93.91
133.38
172.01
208.97
243.83
264.98
263.03
236.16
192.4
143.55
98.09
59.38
27.65
2.09
-17.98
-31.02
-35.75
-32.7
-24.78
-15.89
-8.96
-5.06
-3.23
-2.92
-2.18
0.51
5.53
11.77
17.57
21.87
24.46
25.51
25.1
24.03
22.85
21.5
19.32
15.68
10.6
5.71
2.83
3.02
6.71
12.96
19.47
22.99
20.48
10.2
-7.73
-31.45
-58.24
-84.63
-107.21
-123.37
-131.9
-133.09
-128.38
-119.72
-109.25
-99.43
-92.11
-88.04
-86.84
-87.6
-89.3
-90.97
-91.52
-89.89
-85.94
-79.62
-70.27
-56.8
-38.81
-17.37
5.15
25.77
41.72
49.77
47.69
35.45
15.16
-10.13
-37.37
-63.96
-88.02
-99.59
-93.26
-72.18
-45.88
-23.02
-7.12
2.48
8.12
12.04
13.2
12.26
9.74
6.91
5.45
6.29
8.96
12.02
13.84
15.23
15.66
14.64
12.56
10.43
8.96
8.01
6.95
5.24
2.89
-0.04
-3.16
-5.31
-4.97
-1.11
6.3
16.31
27.4
37.96
46.45
51.97
54.61
55.16
54.46
52.84
50.08
45.72
39.54
31.81
23.29
15.17
8.49
3.71
0.59
-1.59
-3.62
-6.04
-9.08
-12.78
-17.08
-21.88
-26.9
-31.55
-34.89
-35.88
-33.67
-28.03
-19.52
-9.39
0.68
9.2
15.12
18.09
18.36
16.59
13.52
9.88
6.22
2.94
0.3
-1.61
-2.84
-3.6
-4.18
-4.87
-5.81
-7.06
-8.62
-10.61
-13.32
-17.0
-21.62
-26.57
-30.66
-32.37
-30.52
-24.76
-15.83
-5.31
4.97
13.47
19.42
22.73
23.8
23.2
21.42
18.89
15.98
13.06
10.44
8.38
6.95
6.13
5.75
5.51
5.08
4.11
2.35
-0.34
-3.89
-8.15
-12.87
-17.69
-22.03
-25.11
-25.98
-23.83
-18.36
-9.98
0.22
10.74
20.12
27.36
31.99
34.06
33.88
31.94
28.79
25.03
21.31
18.15
15.87
14.53
13.93
13.7
13.43
12.83
11.72
10.09
8.04
5.62
2.8
-0.57
-4.68
-9.49
-14.55
-18.94
-21.48
-21.15
-17.43
-10.58
-1.52
8.42
17.93
25.88
31.5
34.41
34.59
32.42
28.63
24.14
19.89
16.54
14.32
13.06
12.29
11.49
10.28
8.48
6.18
3.6
1.01
-1.38
-3.58
-5.73
-8.17
-11.28
-15.28
-20.06
-25.08
-29.34
-31.64
-30.9
-26.57
-18.83
-8.57
2.84
13.97
23.59
30.94
35.59
37.51
36.95
34.45
30.79
26.89
23.65
21.61
20.76
20.54
20.16
19.0
16.85
14.04
11.21
9.05
7.88
7.5
7.29
6.45
4.43
1.08
-3.43
-8.7
-14.0
-18.48
-21.36
-22.07
-20.35
-16.33
-10.55
-3.84
2.92
9.44
15.77
21.74
26.73
29.83
30.39
28.42
24.6
20.09
16.97
16.89
20.0
24.6
28.08
28.32
24.35
16.45
5.74
-4.83
-12.45
-15.98
-16.67
-17.11
-19.44
-24.44
-31.31
-37.84
-39.05
-29.78
-7.12
28.26
72.88
122.33
172.23
218.68
245.94
241.58
204.19
146.44
86.12
35.52
-1.47
-27.18
-46.37
-63.51
-78.89
-89.95
-93.47
-87.81
-74.23
-55.0
-33.27
-12.74
2.84
11.96
14.69
11.89
4.44
-6.45
-18.61
-29.4
-36.14
-36.83
-30.7
-19.2
-5.6
5.9
11.89
11.01
3.78
-8.2
-23.16
-38.99
-53.64
-65.36
-73.13
-76.82
-76.97
-74.61
-70.85
-66.56
-61.91
-56.52
-50.0
-42.43
-34.57
-27.49
-22.28
-19.68
-19.92
-22.67
-27.07
-31.75
-34.95
-34.91
-30.34
-20.98
-7.86
6.94
20.88
31.78
38.39
40.53
38.84
34.37
28.17
21.15
13.93
6.95
0.47
-5.32
-10.35
-14.56
-17.97
-20.77
-23.25
-25.81
-28.78
-32.31
-36.21
-40.14
-43.75
-46.92
-49.75
-52.34
-54.47
-55.33
-53.73
-48.45
-38.93
-25.59
-9.83
6.45
21.57
34.43
44.51
51.6
55.41
55.64
52.25
45.93
38.2
31.04
26.08
23.93
23.95
24.58
24.17
21.6
16.77
10.28
3.17
-3.67
-9.69
-14.78
-19.2
-23.37
-27.75
-32.54
-37.52
-41.96
-44.73
-44.5
-40.22
-31.45
-18.61
-2.98
13.59
29.05
41.6
50.05
53.99
53.71
50.05
44.17
37.32
30.73
25.39
21.94
20.49
20.64
21.58
22.41
22.41
21.21
18.86
15.6
11.71
7.36
2.57
-2.69
-8.46
-14.73
-21.37
-28.03
-34.06
-38.53
-40.37
-38.75
-33.36
-24.48
-13.06
-0.35
12.37
23.95
33.52
40.45
44.33
44.98
42.68
38.14
32.58
27.43
23.9
22.62
23.37
25.22
26.84
27.01
25.07
21.02
15.43
9.2
3.13
-2.19
-6.54
-10.07
-13.18
-16.39
-20.17
-24.66
-29.53
-33.92
-36.67
-36.69
-33.33
-26.7
-17.68
-7.69
1.66
8.98
13.37
14.55
12.81
8.79
3.39
-2.48
-7.97
-12.4
-15.35
-16.69
-16.64
-15.71
-14.57
-13.84
-13.86
-14.69
-16.12
-17.84
-19.76
-22.05
-25.19
-29.74
-36.06
-44.0
-52.73
-60.79
-66.42
-68.1
-65.04
-57.55
-46.96
-35.26
-24.5
-16.27
-11.4
-9.99
-11.68
-15.9
-22.03
-29.32
-36.88
-43.69
-48.87
-51.95
-53.13
-53.18
-53.22
-54.18
-56.48
-59.87
-63.63
-66.81
-68.44
-67.68
-63.83
-56.45
-45.52
-31.66
-15.97
0.26
16.09
31.29
46.24
61.64
77.83
94.55
110.84
125.38
136.92
144.58
148.08
147.77
144.52
139.57
134.21
129.37
125.39
121.94
118.23
113.36
106.66
97.86
87.04
74.43
60.31
45.01
28.9
12.48
-3.67
-18.94
-32.74
-44.57
-54.01
-60.79
-64.76
-65.96
-64.63
-61.18
-56.0
-49.51
-42.08
-34.26
-26.82
-20.74
-17.0
-16.15
-18.0
-21.61
-25.55
-28.45
-29.47
-28.61
-26.52
-24.24
-22.71
-22.5
-23.77
-26.25
-29.48
-32.95
-36.25
-39.21
-41.95
-44.89
-48.54
-53.29
-59.1
-65.38
-70.96
-74.49
-74.76
-71.19
-64.05
-54.44
-44.03
-34.47
-27.06
-22.36
-20.3
-20.29
-21.55
-23.38
-25.28
-27.01
-28.66
-30.58
-33.3
-37.21
-42.19
-47.45
-51.47
-52.53
-49.36
-41.78
-30.89
-18.78
-7.81
0.16
4.21
4.46
1.82
-2.34
-6.51
-9.14
-8.89
-4.77
3.5
15.3
29.16
43.06
55.16
64.31
70.31
73.73
75.33
75.73
75.2
73.93
72.3
70.98
70.79
72.22
75.25
79.2
83.2
86.5
88.82
90.28
91.17
91.7
91.89
91.67
90.96
89.75
88.11
86.19
84.19
82.41
81.16
80.68
81.02
81.95
82.95
83.39
82.61
80.1
75.5
68.78
60.21
50.36
39.99
29.9
20.69
12.76
6.24
1.09
-2.81
-5.67
-7.83
-9.76
-11.96
-14.82
-18.59
-23.41
-29.29
-36.2
-44.04
-52.59
-61.59
-70.65
-79.4
-87.41
-94.14
-98.86
-100.78
-99.21
-93.89
-85.23
-74.28
-62.59
-51.72
-43.0
-37.21
-34.52
-34.56
-36.52
-39.37
-42.06
-43.79
-44.17
-43.26
-41.48
-39.39
-37.54
-36.24
-35.62
-35.66
-36.34
-37.67
-39.7
-42.47
-45.97
-50.18
-55.02
-60.31
-65.65
-70.34
-73.41
-73.85
-70.96
-64.58
-55.24
-43.96
-32.03
-20.68
-11.02
-4.01
-0.5
-1.1
-5.86
-14.07
-24.16
-33.96
-41.17
-43.97
-41.41
-33.63
-21.73
-7.48
7.07
20.12
30.41
37.51
41.76
43.96
45.02
45.75
46.72
48.32
50.9
54.64
59.54
65.22
71.07
76.35
80.49
83.19
84.45
84.31
82.73
79.49
74.26
66.88
57.51
46.83
35.88
25.8
17.41
10.98
6.12
2.06
-1.91
-6.21
-10.9
-15.88
-21.23
-27.24
-34.29
-42.53
-51.5
-60.11
-66.87
-70.35
-69.68
-64.9
-56.97
-47.56
-38.61
-31.74
-27.96
-27.41
-29.48
-33.1
-37.08
-40.45
-42.64
-43.55
-43.39
-42.58
-41.69
-41.37
-42.29
-44.87
-49.07
-54.06
-58.38
-60.34
-58.76
-53.61
-46.08
-38.18
-31.77
-27.65
-25.2
-22.58
-17.64
-8.85
4.06
20.08
37.31
53.75
67.81
78.63
85.94
89.87
90.75
89.11
85.77
81.77
78.19
75.77
74.62
74.23
73.78
72.55
70.26
67.06
63.28
59.19
54.86
50.23
45.17
39.54
33.11
25.55
16.67
6.75
-3.2
-11.41
-15.8
-14.79
-7.91
3.9
18.67
34.07
48.2
59.95
68.99
75.48
79.69
81.86
82.37
81.79
80.96
80.77
81.77
83.93
86.67
89.13
90.63
90.95
90.36
89.41
88.63
88.38
88.83
89.97
91.46
92.47
91.55
86.89
76.98
61.44
41.53
20.13
0.95
-12.68
-18.81
-17.5
-10.77
-2.17
3.85
2.85
-8.78
-32.77
-68.31
-111.8
-157.51
-198.95
-230.5
-248.9
-253.72
-247.02
-232.33
-213.46
-193.68
-175.29
-159.53
-146.68
-136.29
-127.33
-118.67
-109.5
-99.59
-89.41
-79.86
-71.86
-65.8
-61.21
-56.65
-49.84
-38.18
-19.72
5.68
35.44
64.39
86.21
95.85
91.97
77.85
60.44
47.71
45.8
57.09
80.09
110.61
143.5
173.96
198.09
213.01
216.88
208.99
190.07
162.17
128.4
92.14
56.57
24.08
-3.86
-26.77
-45.1
-60.07
-73.33
-86.45
-100.41
-115.3
-130.18
-143.46
-153.44
-158.97
-159.73
-156.22
-149.31
-139.86
-128.49
-115.75
-102.39
-89.39
-77.67
-67.62
-58.7
-49.49
-38.2
-23.32
-4.25
18.33
42.61
66.0
85.99
100.9
110.56
116.43
121.05
126.85
135.04
144.89
154.0
159.31
158.27
149.56
133.19
110.12
82.07
51.5
21.93
-2.16
-16.28
-17.61
-6.62
12.26
31.66
43.83
43.54
29.94
6.5
-20.92
-46.76
-67.68
-83.04
-93.84
-101.16
-105.21
-105.5
-101.78
-95.03
-87.52
-81.86
-79.58
-80.12
-80.99
-78.91
-71.4
-57.98
-40.4
-21.88
-5.84
5.25
10.73
11.7
10.64
10.59
14.24
23.13
37.09
54.2
71.41
85.73
95.42
100.78
103.92
107.76
114.52
124.54
136.0
145.52
149.52
145.47
132.87
113.3
89.99
66.96
47.9
35.16
28.9
26.73
24.12
15.6
-3.3
-34.12
-74.3
-117.47
-155.2
-179.71
-186.37
-175.05
-149.75
-116.94
-83.39
-54.42
-33.18
-20.77
-16.94
-20.59
-29.93
-42.57
-55.58
-66.05
-71.91
-72.62
-69.23
-63.83
-58.45
-54.09
-50.31
-45.66
-38.62
-28.53
-15.95
-2.42
10.29
20.95
29.22
35.5
40.55
45.09
49.7
54.9
61.36
69.77
80.6
93.71
108.21
122.59
135.05
144.03
148.53
148.2
143.2
134.06
121.55
106.53
89.79
71.84
52.78
32.37
10.44
-12.67
-35.91
-57.7
-76.53
-91.59
-103.06
-111.9
-119.29
-126.12
-132.77
-139.28
-145.6
-151.93
-158.53
-165.49
-172.47
-178.63
-182.82
-184.05
-181.8
-176.22
-168.12
-158.62
-148.92
-140.06
-132.73
-127.24
-123.51
-121.04
-119.02
-116.5
-112.5
-106.37
-98.01
-87.85
-76.89
-66.34
-57.24
-50.13
-44.73
-40.02
-34.61
-27.38
-18.16
-8.04
0.89
6.33
6.77
2.13
-5.97
-14.68
-20.91
-22.25
-17.75
-8.12
4.66
18.18
30.33
40.03
47.34
53.25
59.14
66.2
75.05
85.59
97.08
108.52
119.06
128.55
137.74
148.18
161.55
178.71
198.96
219.77
237.48
248.49
250.52
243.29
228.45
208.74
186.93
165.05
144.08
124.2
105.34
87.67
71.77
58.34
47.67
39.35
32.23
25.09
17.33
9.39
2.57
-1.59
-2.07
1.29
7.87
16.69
26.61
36.26
43.65
46.12
40.83
25.83
1.04
-31.42
-67.81
-103.98
-136.47
-163.02
-182.29
-193.3
-195.04
-186.6
-167.73
-139.42
-104.07
-65.08
-25.93
10.64
43.25
71.73
96.55
118.17
136.57
151.19
161.26
166.37
166.94
164.44
161.38
160.74
165.14
175.57
190.36
205.05
213.26
208.71
187.27
148.52
95.91
35.53
-25.79
-82.23
-130.12
-168.01
-196.1
-215.51
-227.54
-233.44
-234.27
-231.13
-225.18
-217.66
-209.5
-200.93
-191.12
-178.5
-161.35
-138.65
-110.73
-79.18
-46.35
-14.6
14.39
39.7
61.12
79.0
94.3
108.87
125.29
146.15
172.54
202.74
231.79
252.57
258.24
244.82
212.39
164.59
106.86
44.48
-18.35
-78.34
-132.52
-178.15
-213.28
-237.39
-251.63
-258.07
-258.66
-254.61
-246.57
-235.24
-221.92
-208.25
-195.31
-182.9
-169.56
-153.54
-134.11
-112.25
-90.23
-70.29
-53.43
-39.02
-25.57
-12.05
1.25
12.71
20.41
23.11
20.81
14.45
5.2
-5.98
-18.09
-29.61
-38.55
-43.24
-43.67
-42.23
-42.98
-49.39
-61.82
-76.44
-86.66
-86.42
-73.32
-49.82
-21.65
5.41
28.39
47.88
66.36
85.64
105.14
122.02
132.94
136.09
132.03
123.01
111.6
99.32
86.49
73.11
59.84
48.48
41.51
40.91
46.84
56.86
66.22
69.45
62.39
44.0
16.92
-13.43
-40.92
-60.82
-70.97
-71.96
-66.18
-56.8
-46.93
-39.29
-36.13
-38.98
-48.36
-63.33
-81.31
-98.48
-110.65
-114.34
-107.64
-90.63
-65.03
-33.33
2.26
40.23
79.39
117.78
151.97
177.15
188.42
182.68
160.17
124.74
82.81
41.44
6.5
-18.47
-32.35
-35.8
-30.48
-18.5
-2.02
16.75
35.76
53.2
67.72
78.34
84.4
85.5
81.39
72.13
58.29
40.99
21.81
2.44
-15.71
-31.74
-45.18
-55.79
-63.39
-67.95
-69.6
-68.75
-65.85
-61.25
-55.07
-47.41
-38.81
-30.43
-23.99
-21.17
-22.87
-28.78
-37.32
-46.21
-53.12
-56.25
-54.54
-47.81
-36.55
-21.96
-5.82
9.76
22.81
31.98
36.87
38.03
36.66
34.21
31.91
30.55
30.43
31.34
32.71
33.63
33.21
30.79
26.2
19.84
12.45
4.79
-2.72
-10.14
-17.84
-26.14
-34.85
-43.04
-49.19
-51.62
-49.12
-41.46
-29.51
-15.02
-0.09
13.44
24.34
32.11
36.72
38.46
37.6
34.48
29.5
23.24
16.38
9.55
3.15
-2.75
-8.28
-13.67
-19.0
-24.28
-29.53
-34.96
-41.04
-48.26
-57.03
-67.35
-78.7
-90.09
-100.05
-106.9
-108.93
-104.87
-94.26
-77.71
-56.82
-33.76
-10.74
10.43
28.46
42.5
52.08
57.05
57.83
55.5
51.72
48.31
46.73
47.64
50.74
55.04
59.3
62.43
63.79
63.17
60.65
56.54
51.14
44.76
37.67
30.09
22.29
14.72
8.07
3.33
1.58
3.66
9.87
19.71
31.94
44.88
56.85
66.64
73.7
78.18
80.64
81.82
82.34
82.55
82.59
82.47
82.17
81.65
80.8
79.39
77.09
73.58
68.76
62.89
56.5
50.19
44.31
38.76
32.93
25.91
17.05
6.27
-5.55
-16.7
-24.98
-28.35
-25.64
-16.95
-3.7
11.85
27.23
40.48
50.39
56.54
59.01
58.1
54.19
47.89
40.16
32.24
25.48
20.84
18.6
18.22
18.64
18.73
17.76
15.55
12.39
8.82
5.25
1.84
-1.5
-5.04
-9.09
-13.94
-19.77
-26.46
-33.41
-39.41
-42.88
-42.23
-36.5
-25.78
-11.28
5.01
20.92
34.71
45.3
52.31
55.8
56.06
53.64
49.34
44.25
39.59
36.38
35.14
35.75
37.49
39.41
40.65
40.66
39.36
36.93
33.67
29.78
25.35
20.29
14.37
7.26
-1.39
-11.8
-23.77
-36.48
-48.46
-57.86
-63.04
-63.05
-58.05
-49.19
-38.18
-26.81
-16.47
-8.1
-2.18
1.12
1.88
0.58
-1.94
-4.57
-6.3
-6.51
-5.17
-2.84
-0.35
1.49
2.16
1.64
0.3
-1.31
-2.7
-3.77
-4.82
-6.57
-9.72
-14.65
-21.03
-27.81
-33.49
-36.54
-35.92
-31.34
-23.28
-12.77
-1.11
10.33
20.34
27.9
32.3
33.24
30.92
25.96
19.34
12.17
5.48
-0.06
-4.19
-7.06
-9.09
-10.78
-12.44
-14.13
-15.71
-16.91
-17.62
-18.03
-18.65
-20.28
-23.75
-29.57
-37.59
-46.8
-55.37
-61.08
-61.99
-57.12
-46.86
-32.88
-17.63
-3.53
7.66
15.15
19.01
19.93
18.83
16.64
14.22
12.28
11.37
11.7
13.11
15.04
16.67
17.23
16.23
13.65
9.94
5.79
1.81
-1.79
-5.29
-9.43
-15.01
-22.54
-31.82
-41.81
-50.81
-56.92
-58.62
-55.32
-47.55
-36.83
-25.19
-14.57
-6.34
-1.12
1.15
0.95
-1.01
-4.0
-7.23
-9.95
-11.48
-11.38
-9.65
-6.69
-3.23
-0.09
2.12
3.15
3.04
2.06
0.45
-1.75
-4.69
-8.72
-14.05
-20.6
-27.72
-34.21
-38.52
-39.2
-35.38
-27.2
-15.79
-3.02
9.11
18.96
25.6
28.85
29.01
26.68
22.53
17.25
11.63
6.47
2.53
0.29
-0.17
0.76
2.36
3.86
4.7
4.67
3.93
2.82
1.63
0.4
-1.01
-2.87
-5.3
-8.06
-10.7
-12.66
-13.58
-13.48
-12.74
-11.94
-11.65
-12.28
-14.0
-16.82
-20.54
-24.68
-28.38
-30.47
-29.7
-25.07
-16.31
-4.04
10.32
24.83
37.57
47.02
52.36
53.52
51.14
46.35
40.56
35.09
30.98
28.68
27.98
28.2
28.35
27.54
25.26
21.47
16.66
11.57
7.01
3.49
1.07
-0.8
-3.06
-6.72
-12.39
-19.93
-28.32
-35.99
-41.34
-43.39
-42.09
-38.2
-32.82
-26.8
-20.58
-14.22
-7.9
-2.17
1.99
3.52
1.75
-3.14
-10.17
-17.78
-24.47
-29.29
-32.14
-33.66
-34.95
-36.95
-40.07
-44.07
-48.25
-51.9
-54.67
-56.78
-58.84
-61.6
-65.53
-70.59
-76.27
-81.6
-85.49
-86.97
-85.43
-80.85
-73.67
-64.63
-54.55
-44.13
-34.08
-25.23
-18.51
-14.77
-14.36
-16.81
-20.78
-24.52
-26.54
-26.16
-23.67
-20.06
-16.47
-13.7
-11.99
-11.13
-10.78
-10.74
-11.05
-11.95
-13.73
-16.64
-20.75
-25.9
-31.52
-36.72
-40.27
-40.9
-37.62
-30.07
-18.69
-4.74
9.96
23.45
34.02
40.58
42.83
41.28
37.03
31.48
25.98
21.47
18.39
16.62
15.66
14.86
13.67
11.76
9.13
5.98
2.55
-1.07
-4.97
-9.51
-15.11
-22.19
-30.78
-40.33
-49.42
-55.86
-57.0
-50.57
-35.47
-12.47
15.87
45.91
74.03
97.68
115.69
128.1
135.43
138.05
136.07
129.57
119.09
105.78
91.28
77.14
64.35
53.09
42.9
33.16
23.48
13.92
4.81
-3.45
-10.8
-17.5
-24.13
-31.27
-39.19
-47.6
-55.67
-62.06
-65.37
-64.51
-59.09
-49.63
-37.43
-24.25
-11.78
-1.22
6.9
12.54
15.96
17.43
17.1
15.21
12.25
8.99
6.36
5.13
5.52
7.19
9.29
10.81
11.04
9.73
7.11
3.76
0.23
-3.06
-5.99
-8.67
-11.46
-14.75
-18.92
-24.08
-29.86
-35.32
-39.11
-39.86
-36.73
-29.76
-20.04
-9.28
0.66
8.32
12.89
14.19
12.42
7.91
1.11
-7.46
-17.07
-26.89
-36.11
-44.22
-51.06
-56.82
-61.82
-66.38
-70.75
-75.15
-79.82
-85.02
-90.92
-97.37
-103.88
-109.64
-113.78
-115.51
-114.27
-109.47
-100.45
-86.67
-68.05
-45.34
-20.21
5.0
27.93
46.67
60.1
67.82
69.93
66.86
59.36
48.61
36.3
24.47
15.18
10.03
9.95
15.21
25.69
41.05
60.88
84.53
110.96
138.58
165.53
190.05
211.04
228.28
242.22
253.38
261.73
266.55
266.63
261.19
250.43
235.86
219.79
204.61
192.03
182.61
175.91
170.8
166.0
160.41
153.2
143.94
132.4
118.61
102.75
85.25
66.72
48.08
30.42
14.73
1.69
-8.72
-17.12
-24.48
-31.61
-38.7
-45.21
-50.27
-53.17
-54.01
-53.65
-53.4
-54.43
-57.13
-61.16
-65.75
-70.09
-73.59
-75.75
-75.88
-73.02
-66.24
-55.17
-40.47
-23.86
-7.62
6.13
16.03
21.65
23.14
20.86
15.19
6.7
-3.53
-13.87
-22.36
-27.44
-28.42
-25.76
-20.82
-15.24
-10.39
-7.05
-5.38
-5.12
-5.81
-7.03
-8.4
-9.8
-11.41
-13.81
-17.65
-23.36
-30.54
-37.98
-43.86
-46.48
-44.96
-39.52
-31.41
-22.34
-13.94
-7.45
-3.65
-3.02
-5.6
-11.02
-18.29
-25.96
-32.42
-36.49
-37.73
-36.51
-33.76
-30.48
-27.43
-24.95
-23.07
-21.55
-20.16
-18.68
-17.07
-15.56
-14.68
-15.19
-17.67
-22.19
-28.11
-33.84
-37.24
-36.41
-30.48
-20.1
-7.38
5.0
14.66
19.99
20.54
16.87
10.24
2.08
-6.08
-13.01
-17.87
-20.45
-21.74
-23.37
-26.89
-33.01
-41.4
-50.5
-58.47
-63.48
-64.41
-62.24
-58.76
-55.53
-53.38
-52.61
-52.6
-53.03
-52.97
-51.06
-48.19
-45.46
-43.15
-40.72
-37.81
-33.89
-30.43
-28.73
-29.35
-35.72
-50.08
-71.36
-95.53
-118.16
-135.0
-146.5
-154.55
-161.25
-172.87
-194.36
-226.08
-264.29
-304.23
-340.58
-373.07
-402.43
-400.73
-353.14
-266.58
-165.35
-72.84
-12.9
24.01
47.91
65.39
79.86
92.8
102.48
109.66
117.9
130.54
150.39
174.54
199.26
221.98
238.44
245.95
245.38
239.95
232.39
224.97
215.87
203.18
186.11
162.87
132.49
96.33
57.6
19.79
-13.66
-41.92
-64.93
-82.73
-96.37
-106.84
-113.79
-115.79
-111.06
-98.06
-77.21
-50.07
-18.83
13.98
46.32
77.34
107.31
136.9
166.41
194.55
218.74
235.57
241.94
236.09
218.3
190.73
156.91
120.83
86.17
56.13
33.02
17.88
9.65
4.99
-0.95
-12.21
-30.68
-55.4
-82.96
-108.83
-128.8
-140.5
-143.98
-141.53
-135.66
-129.36
-125.77
-127.16
-133.63
-142.64
-150.28
-153.29
-150.4
-140.34
-122.9
-99.25
-71.54
-42.13
-13.01
14.09
37.65
56.95
75.35
97.81
128.2
167.6
214.25
264.33
312.87
354.78
369.71
344.3
280.84
197.99
118.21
55.27
11.74
-16.53
-35.52
-50.07
-60.12
-62.35
-56.6
-44.98
-30.6
-16.55
-5.2
1.79
3.49
2.03
0.26
-0.07
-1.2
-4.54
-10.47
-17.83
-24.2
-26.77
-22.21
-9.04
10.92
33.21
53.04
67.18
75.18
78.94
81.15
84.3
89.12
94.33
97.95
98.99
97.9
96.38
96.27
98.59
103.46
110.3
118.19
126.38
134.43
141.56
146.3
146.59
140.36
126.56
105.8
80.39
53.67
28.94
8.35
-7.56
-19.69
-29.89
-40.35
-53.11
-69.59
-90.08
-113.2
-135.82
-153.72
-163.05
-162.27
-153.42
-142.12
-135.74
-140.64
-159.52
-190.2
-226.38
-259.98
-283.85
-293.78
-288.92
-271.01
-243.02
-207.93
-168.41
-126.89
-85.92
-48.21
-16.23
8.51
26.05
37.9
46.21
52.51
56.83
57.58
52.54
40.1
20.29
-5.19
-33.8
-63.28
-92.29
-120.24
-146.8
-171.27
-192.81
-210.82
-225.24
-236.26
-243.59
-245.77
-240.43
-225.44
-200.53
-168.06
-132.51
-98.86
-70.53
-48.48
-31.51
-17.79
-6.14
3.48
10.84
16.8
24.05
36.42
57.12
86.54
121.46
155.77
182.85
198.12
200.56
192.43
177.52
159.05
138.4
115.2
88.68
59.18
28.88
1.44
-19.27
-30.48
-31.2
-22.21
-5.61
15.53
37.36
55.34
64.85
62.51
47.62
22.88
-6.23
-33.5
-54.43
-67.82
-75.54
-80.87
-86.2
-91.7
-95.46
-94.93
-88.69
-77.4
-63.44
-49.44
-36.69
-24.39
-10.01
9.4
35.75
69.02
107.12
146.55
183.51
214.75
237.87
251.25
253.94
245.69
227.26
200.74
169.38
137.21
108.23
85.08
68.35
56.59
47.29
38.35
28.78
18.68
8.93
0.6
-5.88
-10.83
-14.85
-18.23
-20.33
-20.45
-18.9
-16.78
-15.43
-15.93
-18.88
-24.22
-31.56
-40.21
-50.14
-62.01
-76.96
-93.9
-109.71
-120.62
-123.48
-116.62
-99.3
-69.94
-31.46
10.77
50.62
82.8
103.41
110.62
101.43
78.07
48.41
21.99
5.9
0.15
3.21
13.32
29.35
49.48
72.1
95.21
115.88
131.31
139.76
141.2
136.58
127.33
114.98
101.53
88.57
76.69
66.09
56.88
49.3
42.81
35.94
26.63
13.63
-3.19
-22.94
-43.91
-64.18
-82.11
-97.02
-109.14
-119.1
-127.25
-133.7
-138.63
-142.37
-145.29
-147.57
-149.17
-149.89
-149.57
-148.21
-146.14
-143.78
-141.25
-137.95
-132.55
-123.48
-109.6
-90.81
-68.21
-43.9
-20.28
0.67
17.87
31.11
40.84
47.63
51.97
54.21
54.74
54.14
53.16
52.5
52.55
53.15
53.7
53.43
51.78
48.62
44.37
39.62
35.02
30.85
27.09
23.45
19.54
15.03
9.69
3.48
-3.37
-10.33
-16.46
-20.63
-21.74
-19.16
-12.95
-3.94
6.5
16.92
26.11
33.39
38.47
41.36
42.11
40.85
37.87
33.72
29.2
25.11
22.03
20.12
19.04
18.26
17.23
15.62
13.37
10.63
7.59
4.37
0.98
-2.6
-6.43
-10.5
-14.77
-19.19
-23.73
-28.25
-32.47
-35.92
-37.92
-37.83
-35.23
-30.14
-23.05
-14.82
-6.42
1.32
7.76
12.51
15.32
16.05
14.74
11.61
7.11
1.87
-3.39
-8.03
-11.56
-13.79
-14.71
-14.51
-13.38
-11.41
-8.64
-5.08
-1.01
2.98
5.98
6.99
5.23
0.47
-6.94
-16.12
-25.89
-34.96
-42.1
-46.24
-46.61
-42.94
-35.51
-25.28
-13.58
-1.88
8.66
17.45
24.37
29.63
33.41
35.82
36.92
36.81
35.77
34.18
32.51
31.03
29.72
28.26
26.29
23.49
19.84
15.5
10.8
6.17
1.97
-1.65
-4.82
-7.75
-10.79
-14.28
-18.57
-23.86
-29.82
-35.69
-40.49
-43.43
-43.76
-41.1
-35.71
-28.52
-20.81
-13.46
-6.97
-1.63
1.86
3.33
2.91
0.94
-2.33
-6.55
-10.72
-13.71
-14.82
-14.67
-13.59
-11.66
-8.78
-4.95
0.04
7.44
18.64
34.26
52.73
72.5
92.16
110.65
126.84
135.09
130.53
112.0
88.61
64.5
42.37
23.72
11.85
9.46
17.42
34.76
58.06
81.87
99.1
104.89
97.6
78.97
52.67
23.26
-4.53
-26.96
-41.81
-49.01
-48.74
-41.74
-29.56
-14.78
-0.14
12.76
23.8
33.81
43.09
51.42
57.19
57.64
49.68
31.64
4.79
-26.59
-56.38
-78.98
-90.84
-91.56
-83.47
-70.27
-55.21
-40.08
-25.42
-11.32
1.64
12.48
20.33
25.03
27.26
28.13
28.5
28.52
27.68
25.31
21.03
14.92
7.44
-0.95
-10.0
-19.57
-29.51
-39.42
-48.65
-56.44
-62.1
-65.29
-66.11
-65.15
-63.39
-61.91
-61.55
-62.67
-64.83
-66.95
-67.57
-65.37
-59.59
-50.35
-38.57
-25.76
-13.69
-3.92
2.44
4.97
3.96
0.24
-4.99
-10.5
-15.16
-18.2
-19.2
-18.15
-15.38
-11.49
-7.21
-3.18
0.2
2.92
5.22
7.45
9.66
11.49
12.13
10.55
6.01
-1.43
-10.73
-19.99
-26.98
-29.92
-28.12
-22.12
-13.46
-3.97
4.84
12.14
17.68
21.49
23.58
23.83
22.13
18.68
14.12
9.4
5.42
2.7
1.16
0.28
-0.65
-2.06
-4.0
-6.12
-7.98
-9.26
-10.0
-10.53
-11.33
-12.83
-15.16
-18.11
-21.12
-23.34
-23.95
-22.28
-18.16
-11.94
-4.46
3.19
10.01
15.26
18.61
20.13
20.14
19.09
17.49
15.79
14.33
13.32
12.8
12.71
12.95
13.39
13.92
14.44
14.86
15.1
15.21
15.28
15.4
15.49
15.29
14.45
12.75
10.41
8.11
6.83
7.48
10.46
15.49
21.71
28.01
33.41
37.24
39.19
39.24
37.55
34.43
30.3
25.64
20.81
15.96
10.95
5.58
-0.24
-6.31
-12.16
-17.27
-21.3
-24.24
-26.38
-28.14
-29.91
-31.96
-34.42
-37.34
-40.59
-43.81
-46.4
-47.59
-46.72
-43.42
-37.81
-30.48
-22.35
-14.47
-7.74
-2.82
0.01
0.78
-0.13
-2.14
-4.51
-6.55
-7.7
-7.63
-6.33
-4.0
-1.04
2.08
4.94
7.28
9.01
10.18
10.87
11.12
10.84
9.79
7.81
4.96
1.79
-0.73
-1.5
0.4
5.15
12.18
20.24
27.97
34.22
38.38
40.24
39.82
37.16
32.3
25.46
17.14
8.12
-0.72
-8.72
-15.63
-21.67
-27.3
-32.97
-38.9
-45.05
-51.14
-56.89
-62.13
-66.8
-70.99
-74.7
-77.83
-80.11
-81.23
-80.95
-79.13
-75.7
-70.52
-63.41
-54.23
-43.18
-30.93
-18.54
-7.27
1.91
8.57
12.93
15.63
17.39
18.79
20.07
21.31
22.54
23.83
25.24
26.77
28.31
29.65
30.61
31.1
31.15
30.84
30.11
28.86
26.93
24.33
21.38
18.74
17.24
17.66
20.39
25.31
31.78
38.85
45.44
50.67
53.92
54.95
53.79
50.7
46.09
40.46
34.34
28.26
22.64
17.78
13.74
10.37
7.31
4.13
0.48
-3.77
-8.47
-13.23
-17.62
-21.26
-24.02
-26.06
-27.78
-29.67
-32.18
-35.56
-39.74
-44.3
-48.46
-51.16
-51.41
-48.51
-42.36
-33.58
-23.31
-12.88
-3.47
4.16
9.7
13.24
15.12
15.82
15.84
15.66
15.62
15.82
16.1
16.11
15.51
14.19
12.41
10.71
9.67
9.57
10.18
10.83
10.61
8.68
4.66
-1.19
-7.99
-14.37
-18.91
-20.42
-18.39
-13.21
-6.09
1.22
7.13
10.8
12.58
13.77
16.05
20.73
28.06
37.24
46.67
54.74
60.37
63.44
64.68
65.1
65.51
65.89
65.45
62.85
56.85
46.84
33.1
16.63
-1.19
-19.03
-35.8
-50.65
-62.87
-71.95
-77.81
-80.97
-82.54
-83.83
-85.77
-88.48
-91.16
-92.56
-91.56
-87.71
-81.36
-73.32
-64.37
-54.93
-45.03
-34.69
-24.25
-14.54
-6.57
-0.93
2.53
4.8
7.26
10.97
16.39
23.28
31.23
39.94
49.42
59.57
69.92
79.39
86.64
90.63
91.1
88.7
84.71
80.5
77.14
75.24
75.06
76.63
79.78
83.97
88.13
90.7
89.97
84.7
74.68
60.96
45.55
30.82
18.54
9.41
3.04
-1.61
-5.52
-9.24
-12.85
-16.23
-19.42
-22.5
-25.4
-27.6
-28.09
-25.87
-20.55
-12.73
-3.95
3.96
9.56
12.42
13.06
12.54
11.87
11.58
11.73
12.13
12.7
13.53
14.84
16.63
18.54
19.87
19.82
17.89
14.11
9.11
3.83
-0.76
-4.09
-6.11
-7.32
-8.47
-10.27
-13.12
-16.96
-21.36
-25.72
-29.53
-32.59
-35.0
-37.1
-39.28
-41.86
-44.95
-48.41
-51.77
-54.32
-55.19
-53.6
-49.2
-42.26
-33.74
-25.06
-17.63
-12.47
-9.99
-9.94
-11.74
-14.62
-17.82
-20.65
-22.46
-22.82
-21.53
-18.87
-15.47
-12.2
-9.78
-8.56
-8.47
-9.08
-9.93
-10.72
-11.39
-12.06
-12.82
-13.7
-14.48
-14.87
-14.57
-13.43
-11.5
-9.04
-6.45
-4.25
-2.95
-2.94
-4.37
-6.97
-10.07
-12.67
-13.8
-12.75
-9.36
-4.11
2.13
8.29
13.52
17.3
19.49
20.22
19.72
18.25
16.04
13.3
10.31
7.37
4.82
2.89
1.7
1.16
1.07
1.17
1.23
1.1
0.74
0.14
-0.69
-1.71
-2.9
-4.24
-5.78
-7.54
-9.6
-11.99
-14.7
-17.68
-20.89
-24.36
-28.14
-32.18
-36.12
-39.3
-40.8
-39.84
-36.03
-29.61
-21.41
-12.59
-4.29
2.61
7.64
10.7
12.02
12.03
11.27
10.31
9.61
9.42
9.8
10.61
11.7
12.94
14.3
15.77
17.23
18.49
19.28
19.38
18.74
17.5
15.91
14.19
12.49
10.73
8.76
6.4
3.5
0.04
-3.91
-8.19
-12.47
-16.24
-18.84
-19.55
-17.89
-13.72
-7.5
-0.07
7.52
14.33
19.71
23.43
25.49
25.99
25.09
22.96
19.92
16.45
13.19
10.7
9.29
8.93
9.19
9.52
9.34
8.34
6.46
3.89
0.98
-1.96
-4.7
-7.2
-9.57
-12.05
-14.9
-18.31
-22.31
-26.63
-30.73
-33.78
-34.94
-33.63
-29.7
-23.61
-16.21
-8.56
-1.57
4.13
8.27
10.81
11.81
11.39
9.75
7.24
4.43
1.97
0.41
0.04
0.67
1.79
2.67
2.8
1.97
0.38
-1.56
-3.49
-5.28
-7.13
-9.38
-12.39
-16.34
-21.2
-26.66
-32.22
-37.18
-40.66
-41.86
-40.17
-35.46
-28.16
-19.17
-9.6
-0.49
7.45
13.83
18.5
21.45
22.68
22.32
20.64
18.17
15.58
13.53
12.44
12.37
13.01
13.78
14.08
13.44
11.71
9.0
5.66
2.06
-1.47
-4.8
-7.94
-11.1
-14.55
-18.59
-23.47
-29.21
-35.59
-41.96
-47.33
-50.54
-50.55
-46.82
-39.58
-29.78
-18.85
-8.25
0.93
8.09
13.12
16.12
17.26
16.74
14.86
12.17
9.43
7.43
6.7
7.3
8.83
10.6
11.95
12.49
12.17
11.19
9.83
8.26
6.48
4.4
1.93
-0.9
-3.99
-7.28
-10.81
-14.81
-19.49
-24.77
-30.13
-34.5
-36.58
-35.28
-30.11
-21.5
-10.62
0.95
11.69
20.5
26.86
30.78
32.66
33.02
32.39
31.19
29.8
28.5
27.5
26.95
26.87
27.17
27.62
27.98
27.94
27.29
25.88
23.66
20.69
17.09
13.11
9.0
4.98
1.21
-2.31
-5.7
-9.21
-13.1
-17.58
-22.62
-27.74
-32.08
-34.39
-33.51
-28.74
-20.18
-8.87
3.57
15.38
25.18
32.24
36.48
38.18
37.82
35.88
32.86
29.34
25.89
23.06
21.16
20.22
20.01
20.18
20.4
20.43
20.2
19.65
18.75
17.37
15.41
12.81
9.66
6.19
2.77
-0.25
-2.69
-4.59
-6.23
-8.07
-10.58
-14.08
-18.62
-23.77
-28.64
-31.96
-32.4
-29.02
-21.62
-10.99
1.34
13.56
24.11
32.1
37.34
40.16
41.02
40.37
38.57
36.04
33.29
30.93
29.48
29.13
29.69
30.66
31.52
31.94
31.88
31.55
31.13
30.64
29.89
28.51
26.26
23.05
19.1
14.76
10.36
6.08
1.88
-2.48
-7.28
-12.75
-19.02
-25.99
-33.35
-40.49
-46.53
-50.38
-51.03
-47.81
-40.73
-30.56
-18.69
-6.76
3.8
12.08
17.79
21.09
22.35
21.96
20.32
17.89
15.24
13.06
11.9
12.0
13.14
14.78
16.26
17.1
17.26
16.98
16.62
16.37
16.11
15.49
14.23
12.22
9.68
7.0
4.57
2.51
0.69
-1.29
-3.93
-7.7
-12.89
-19.43
-26.77
-33.83
-39.13
-41.19
-38.96
-32.3
-22.03
-9.76
2.67
13.61
22.03
27.59
30.43
30.98
29.73
27.16
23.81
20.25
17.12
14.91
13.91
14.01
14.76
15.51
15.67
14.87
13.15
10.86
8.49
6.43
4.77
3.3
1.61
-0.69
-3.73
-7.29
-10.91
-14.04
-16.39
-18.04
-19.45
-21.27
-24.11
-28.31
-33.8
-40.1
-46.37
-51.51
-54.29
-53.69
-49.12
-40.75
-29.51
-16.96
-4.77
5.7
13.68
19.08
22.19
23.43
23.17
21.69
19.28
16.35
13.4
10.88
9.09
8.06
7.55
7.23
6.73
5.75
4.13
1.86
-0.94
-4.06
-7.32
-10.58
-13.82
-17.01
-20.09
-22.88
-25.15
-26.65
-27.25
-26.97
-25.97
-24.51
-22.91
-21.5
-20.64
-20.66
-21.8
-24.02
-26.96
-29.81
-31.46
-30.76
-26.87
-19.6
-9.5
2.19
13.96
24.38
32.45
37.75
40.37
40.78
39.6
37.48
35.02
32.74
30.99
30.02
29.88
30.45
31.36
32.11
32.17
31.08
28.7
25.22
21.06
16.75
12.69
9.06
5.83
2.83
-0.08
-3.0
-5.98
-9.06
-12.29
-15.7
-19.23
-22.66
-25.63
-27.71
-28.57
-28.15
-26.79
-25.23
-24.34
-24.78
-26.55
-28.87
-30.34
-29.54
-25.7
-19.17
-11.36
-4.24
0.41
1.65
-0.45
-5.11
-11.4
-18.72
-26.9
-35.95
-45.79
-56.0
-65.9
-74.75
-81.96
-87.02
-89.3
-87.88
-81.55
-69.29
-50.88
-27.34
-0.82
26.01
50.87
72.54
90.94
106.7
120.47
132.56
142.95
151.7
159.38
166.98
175.42
184.93
194.59
202.52
206.47
204.82
197.34
185.3
171.01
156.94
144.81
135.13
127.21
119.67
111.09
100.47
87.52
72.4
55.41
36.72
16.34
-5.6
-28.62
-51.75
-73.9
-94.24
-112.62
-129.72
-146.76
-164.76
-183.86
-203.07
-220.49
-233.98
-241.74
-242.91
-237.78
-227.79
-214.9
-200.79
-186.31
-171.16
-154.24
-134.47
-111.59
-86.74
-62.52
-41.7
-26.08
-15.93
-9.93
-5.72
-0.43
8.74
23.87
45.13
71.47
100.7
129.64
154.21
170.31
174.96
167.37
148.9
121.48
88.95
56.64
29.56
10.31
-1.78
-9.53
-15.84
-22.55
-31.46
-41.22
-47.52
-45.53
-33.17
-12.61
10.61
29.34
35.55
20.14
-20.77
-82.76
-154.31
-221.41
-272.46
-301.26
-308.03
-281.82
-226.08
-159.23
-102.83
-66.68
-47.17
-35.27
-26.93
-16.87
-3.23
11.06
23.5
33.93
43.92
55.33
67.48
79.32
90.5
99.81
103.31
97.8
82.88
60.81
34.94
8.42
-15.75
-34.76
-47.34
-54.73
-58.45
-59.23
-57.17
-52.6
-46.58
-40.35
-34.84
-31.08
-30.28
-32.52
-36.15
-38.56
-37.64
-32.97
-25.76
-18.07
-11.69
-7.03
-2.4
5.24
18.53
38.07
61.96
86.95
110.08
129.77
146.15
160.34
173.57
186.61
199.66
212.66
225.37
237.16
246.65
251.79
250.3
240.58
222.43
197.26
167.72
136.81
107.02
79.74
55.1
32.2
9.66
-13.81
-38.96
-65.71
-93.24
-120.3
-145.58
-168.07
-187.25
-203.11
-216.0
-226.2
-233.64
-237.63
-236.91
-229.98
-215.71
-193.97
-166.02
-134.44
-102.58
-73.71
-50.09
-32.52
-20.42
-12.32
-6.64
-2.23
1.38
4.17
5.98
6.83
7.02
6.98
7.07
7.35
7.6
7.47
6.7
5.48
4.4
4.35
6.06
9.8
15.07
20.83
25.68
28.29
27.59
23.06
14.99
4.63
-5.71
-13.16
-15.13
-10.38
0.39
14.63
28.96
40.34
47.1
49.04
46.98
42.01
34.94
26.36
16.88
7.39
-1.02
-7.45
-11.61
-14.04
-15.91
-18.58
-23.05
-29.66
-38.03
-47.39
-56.89
-65.95
-74.31
-82.12
-89.65
-97.22
-105.05
-113.2
-121.4
-128.99
-134.87
-137.72
-136.22
-129.44
-117.09
-99.5
-77.61
-52.68
-26.16
0.52
26.08
49.51
70.21
87.99
103.05
115.92
127.36
138.3
149.69
162.43
177.25
194.48
213.76
233.77
252.09
265.63
271.41
267.46
253.5
230.82
201.5
167.32
129.05
86.52
39.47
-11.5
-64.49
-116.57
-164.69
-206.44
-240.25
-265.08
-279.99
-284.03
-276.75
-258.79
-232.27
-200.52
-167.08
-134.69
-104.55
-76.4
-49.14
-21.74
6.23
34.45
62.31
89.33
115.53
141.3
166.94
192.11
215.48
234.83
247.56
251.58
246.02
231.61
210.33
184.78
157.35
129.73
102.91
77.35
53.43
31.56
12.21
-4.22
-17.48
-27.26
-33.09
-34.22
-29.8
-19.35
-3.28
16.77
38.09
57.43
71.82
79.4
79.83
74.2
64.57
53.12
41.59
30.88
21.19
12.28
3.92
-4.0
-11.38
-18.13
-24.29
-30.17
-36.18
-42.61
-49.49
-56.46
-62.99
-68.52
-72.8
-75.91
-78.22
-80.25
-82.5
-85.43
-89.39
-94.52
-100.62
-106.88
-111.81
-113.42
-109.87
-100.06
-84.24
-64.08
-42.17
-21.31
-3.67
9.62
18.47
23.49
25.58
25.65
24.47
22.74
21.09
20.04
19.94
20.88
22.64
24.82
26.84
28.21
28.6
27.9
26.17
23.53
20.07
15.85
10.94
5.49
-0.2
-5.81
-11.08
-16.0
-20.9
-26.37
-32.93
-40.69
-48.96
-56.24
-60.57
-60.11
-53.89
-42.22
-26.67
-9.58
6.61
20.04
29.72
35.48
37.67
36.99
34.22
30.27
26.1
22.61
20.48
19.94
20.81
22.54
24.43
25.88
26.58
26.44
25.58
24.11
22.03
19.26
15.72
11.43
6.62
1.7
-2.84
-6.65
-9.67
-12.17
-14.72
-18.0
-22.6
-28.74
-36.04
-43.37
-49.06
-51.23
-48.41
-40.13
-27.15
-11.32
5.01
19.66
31.2
39.05
43.38
44.72
43.72
41.05
37.47
33.81
30.91
29.33
29.19
30.12
31.38
32.18
32.01
30.75
28.72
26.41
24.22
22.3
20.45
18.24
15.27
11.35
6.6
1.48
-3.46
-7.76
-11.25
-14.1
-16.72
-19.66
-23.44
-28.42
-34.68
-41.82
-48.88
-54.42
-56.81
-54.74
-47.7
-36.31
-22.12
-7.22
6.46
17.63
25.78
31.02
33.79
34.54
33.65
31.55
28.81
26.17
24.35
23.83
24.64
26.36
28.27
29.64
30.01
29.3
27.76
25.76
23.61
21.42
19.05
16.3
12.92
8.84
4.18
-0.75
-5.56
-9.85
-13.41
-16.24
-18.59
-20.91
-23.67
-27.35
-32.19
-38.09
-44.48
-50.36
-54.39
-55.26
-52.08
-44.72
-33.91
-21.09
-7.97
3.92
13.59
20.63
25.11
27.32
27.63
26.47
24.35
21.89
19.81
18.73
18.99
20.53
22.85
25.24
26.99
27.63
27.08
25.55
23.48
21.21
18.91
16.51
13.85
10.74
7.14
3.23
-0.69
-4.35
-7.59
-10.47
-13.19
-15.99
-19.06
-22.51
-26.32
-30.39
-34.41
-37.85
-39.95
-39.83
-36.79
-30.61
-21.75
-11.3
-0.69
8.68
15.83
20.31
22.13
21.64
19.37
15.93
12.04
8.45
5.85
4.71
5.12
6.75
8.93
10.91
12.04
12.0
10.75
8.49
5.43
1.71
-2.6
-7.46
-12.75
-18.26
-23.69
-28.78
-33.34
-37.32
-40.82
-44.08
-47.35
-50.86
-54.56
-57.96
-60.09
-59.72
-55.78
-47.85
-36.47
-23.06
-9.5
2.45
11.6
17.57
20.53
21.02
19.59
16.74
12.98
8.84
4.9
1.63
-0.66
-1.96
-2.5
-2.62
-2.73
-3.19
-4.3
-6.28
-9.25
-13.18
-17.93
-23.26
-28.93
-34.76
-40.55
-46.15
-51.32
-55.92
-59.89
-63.28
-66.11
-68.01
-68.22
-65.62
-59.25
-48.82
-34.95
-19.1
-3.08
11.47
23.42
32.14
37.49
39.62
38.95
36.22
32.36
28.3
24.8
22.31
20.96
20.88
22.15
24.91
29.11
34.44
40.28
45.82
50.3
53.08
53.82
52.36
48.76
43.25
36.19
27.99
19.1
9.76
0.03
-10.13
-20.58
-30.83
-39.92
-46.48
-49.24
-47.43
-41.16
-31.5
-20.16
-9.05
0.33
7.13
11.2
12.87
12.66
11.03
8.42
5.22
1.84
-1.25
-3.66
-5.16
-5.77
-5.68
-5.25
-4.86
-4.83
-5.41
-6.77
-8.98
-11.89
-15.26
-18.68
-21.74
-24.17
-25.96
-27.36
-28.85
-30.93
-33.92
-37.83
-42.34
-46.87
-50.69
-52.98
-53.07
-50.59
-45.5
-38.2
-29.36
-19.73
-9.96
-0.36
9.26
19.47
30.96
44.22
59.26
75.57
92.43
109.1
125.2
140.6
155.07
167.85
177.66
183.16
183.47
178.6
169.08
155.6
138.58
117.86
93.02
64.28
33.23
2.79
-23.48
-43.05
-54.91
-59.63
-59.1
-55.78
-51.64
-47.38
-42.56
-35.91
-26.86
-15.63
-3.18
8.39
16.13
17.47
11.36
-1.08
-16.56
-31.67
-43.56
-50.82
-51.38
-45.45
-36.5
-29.58
-30.87
-39.69
-53.7
-70.98
-87.7
-101.52
-111.46
-117.37
-119.54
-118.53
-114.85
-109.61
-103.59
-96.72
-88.74
-79.51
-69.32
-58.91
-49.23
-40.87
-34.3
-29.03
-23.41
-15.51
-3.81
12.31
32.38
54.8
77.11
96.02
108.32
111.81
105.6
90.31
67.85
40.92
12.34
-15.36
-40.36
-61.5
-78.09
-90.08
-98.0
-102.89
-105.96
-108.2
-110.08
-111.55
-112.2
-111.41
-108.74
-104.04
-97.47
-89.41
-80.34
-70.65
-60.6
-50.29
-39.68
-28.57
-16.5
-2.76
13.43
32.54
54.34
77.66
100.34
119.72
133.23
139.15
137.11
128.17
114.55
98.99
84.06
71.51
61.94
54.81
48.79
42.33
34.29
24.3
12.9
1.29
-9.08
-16.98
-21.77
-23.51
-22.86
-20.79
-18.16
-15.39
-12.24
-8.0
-1.59
7.88
20.87
37.11
55.63
75.01
93.77
110.7
125.08
136.62
145.29
151.15
154.31
154.97
153.62
151.05
148.25
146.12
145.29
145.85
147.35
148.94
149.62
148.46
144.98
139.13
131.37
122.41
112.84
102.89
92.31
80.44
66.48
49.78
30.08
7.7
-16.26
-40.12
-61.92
-79.97
-93.49
-102.88
-109.45
-114.78
-119.95
-125.07
-129.48
-132.22
-132.72
-131.0
-127.53
-122.82
-117.12
-110.46
-102.95
-95.1
-87.77
-81.93
-78.11
-76.34
-76.19
-77.28
-79.53
-83.08
-87.9
-93.24
-97.65
-99.32
-96.9
-90.08
-79.7
-67.24
-54.02
-40.44
-25.93
-9.43
9.95
32.17
56.18
80.09
101.74
119.12
130.61
135.11
132.07
121.63
104.58
82.4
56.99
30.38
4.6
-18.39
-36.7
-48.68
-53.34
-50.95
-43.35
-33.67
-25.29
-20.6
-20.12
-22.48
-25.32
-26.54
-25.35
-22.47
-19.67
-18.8
-21.01
-26.29
-33.66
-41.61
-48.74
-54.17
-57.65
-59.37
-59.71
-58.98
-57.35
-55.07
-52.48
-50.04
-48.17
-47.03
-46.34
-45.57
-44.1
-41.52
-37.76
-33.02
-27.65
-22.05
-16.56
-11.5
-7.17
-3.76
-1.33
0.26
1.33
2.27
3.32
4.42
5.1
4.52
1.9
-3.08
-9.87
-17.06
-22.6
-24.45
-21.18
-12.39
1.19
17.88
35.34
50.96
62.38
67.93
67.01
60.26
49.43
36.82
24.74
14.86
7.9
3.72
1.66
1.02
1.32
2.3
3.73
5.33
6.77
7.78
8.4
9.02
10.22
12.4
15.3
17.9
18.69
16.33
10.19
0.66
-10.81
-22.2
-31.59
-37.73
-40.51
-40.48
-38.67
-36.23
-34.32
-33.82
-35.23
-38.7
-44.14
-51.46
-60.01
-68.91
-77.48
-85.71
-93.93
-102.42
-111.12
-119.5
-127.17
-133.34
-137.37
-139.38
-140.48
-141.75
-143.54
-145.25
-145.44
-142.74
-134.97
-119.9
-96.33
-65.14
-28.98
8.37
42.8
75.24
103.56
126.39
145.34
166.23
192.67
223.9
256.49
286.18
309.72
325.34
333.99
338.01
339.29
337.85
332.65
322.6
307.36
287.73
265.05
241.62
219.63
200.34
183.43
167.82
152.13
134.83
114.31
88.78
57.43
20.79
-19.21
-59.82
-98.12
-132.01
-161.01
-186.2
-209.39
-231.55
-252.05
-268.83
-279.53
-282.41
-277.22
-265.15
-248.25
-228.75
-208.4
-188.48
-169.99
-153.78
-140.23
-129.05
-119.2
-109.29
-98.2
-85.74
-72.73
-60.69
-51.18
-45.07
-42.21
-41.55
-41.64
-41.33
-40.14
-38.38
-36.82
-36.23
-37.02
-39.16
-42.23
-45.61
-48.48
-49.78
-48.23
-42.54
-31.78
-15.62
5.48
30.54
58.23
87.14
115.75
142.32
164.95
181.73
191.25
192.78
186.5
173.38
155.07
133.75
111.88
91.79
75.07
62.08
51.74
42.12
31.24
18.07
2.83
-13.29
-28.84
-42.83
-54.83
-64.9
-73.02
-79.03
-82.62
-83.66
-82.32
-79.02
-74.14
-67.73
-59.58
-49.49
-37.69
-24.99
-12.65
-2.0
6.0
10.97
13.15
13.16
11.75
9.58
7.26
5.37
4.47
5.06
7.38
11.32
16.31
21.64
26.66
31.08
35.0
38.71
42.37
45.8
48.48
49.64
48.7
45.51
40.53
34.81
29.73
26.64
26.49
29.54
35.26
42.43
49.4
54.57
56.75
55.39
50.65
43.15
33.72
23.19
12.23
1.38
-8.83
-17.87
-25.21
-30.45
-33.5
-34.58
-34.2
-32.97
-31.36
-29.59
-27.69
-25.59
-23.34
-21.23
-19.74
-19.48
-20.87
-24.01
-28.53
-33.64
-38.29
-41.46
-42.46
-41.14
-37.86
-33.41
-28.64
-24.29
-20.81
-18.37
-17.03
-16.84
-17.85
-20.08
-23.34
-27.2
-31.08
-34.37
-36.69
-37.94
-38.37
-38.45
-38.71
-39.58
-41.28
-43.74
-46.67
-49.66
-52.29
-54.24
-55.4
-55.89
-56.03
-56.24
-56.88
-58.09
-59.57
-60.54
-59.87
-56.41
-49.47
-39.2
-26.63
-13.38
-1.13
8.9
16.18
20.82
23.27
24.06
23.76
23.07
22.82
23.98
27.34
33.24
41.32
50.61
59.83
67.76
73.58
77.0
78.18
77.55
75.68
73.1
70.33
67.81
65.89
64.67
63.91
63.03
61.21
57.76
52.54
46.15
39.93
35.55
34.38
36.93
42.52
49.48
55.63
58.96
58.22
53.2
44.76
34.52
24.38
16.13
10.94
9.15
10.16
12.66
15.03
15.84
14.31
10.47
5.07
-0.82
-6.2
-10.45
-13.43
-15.38
-16.69
-17.82
-19.16
-21.07
-23.98
-28.28
-34.28
-41.83
-50.22
-58.15
-64.02
-66.41
-64.57
-58.51
-48.92
-36.78
-23.02
-8.44
6.21
19.95
31.64
40.13
44.75
45.59
43.58
40.15
36.69
34.15
32.81
32.43
32.53
32.68
32.65
32.39
32.03
31.66
31.27
30.57
28.92
25.57
19.82
11.49
1.01
-10.68
-22.39
-33.05
-41.79
-47.93
-50.83
-50.0
-45.29
-37.23
-27.05
-16.39
-6.68
1.39
8.03
14.1
20.5
27.74
35.79
44.28
52.84
61.34
69.97
78.96
88.37
97.86
106.75
114.15
119.25
121.5
120.58
116.31
108.57
97.21
82.23
63.87
42.75
19.87
-3.53
-26.18
-46.97
-65.08
-80.02
-91.61
-99.84
-104.74
-106.33
-104.59
-99.58
-91.61
-81.26
-69.42
-57.14
-45.38
-34.85
-25.95
-18.82
-13.4
-9.52
-6.91
-5.19
-3.94
-2.73
-1.31
0.35
2.05
3.45
4.17
3.98
2.78
0.72
-1.92
-4.73
-7.31
-9.31
-10.54
-11.02
-10.97
-10.83
-11.06
-12.08
-14.1
-17.1
-20.8
-24.8
-28.71
-32.29
-35.46
-38.38
-41.31
-44.58
-48.39
-52.73
-57.21
-61.03
-63.11
-62.39
-58.23
-50.7
-40.62
-29.38
-18.44
-8.99
-1.67
3.4
6.42
7.71
7.57
6.28
4.2
1.82
-0.29
-1.57
-1.7
-0.69
1.09
3.02
4.46
4.96
4.38
2.92
0.91
-1.3
-3.47
-5.58
-7.7
-10.01
-12.72
-16.04
-20.09
-24.73
-29.44
-33.36
-35.4
-34.66
-30.74
-23.91
-15.1
-5.57
3.5
11.2
17.05
20.87
22.67
22.54
20.68
17.52
13.69
9.96
7.04
5.39
5.03
5.64
6.64
7.42
7.57
6.93
5.6
3.8
1.79
-0.31
-2.46
-4.77
-7.34
-10.27
-13.62
-17.39
-21.47
-25.55
-29.14
-31.5
-31.87
-29.63
-24.56
-16.98
-7.73
2.07
11.22
18.8
24.32
27.69
29.13
29.02
27.75
25.72
23.4
21.25
19.69
18.97
18.97
19.31
19.41
18.83
17.4
15.35
13.09
11.0
9.19
7.47
5.49
2.83
-0.85
-5.71
-11.6
-18.1
-24.42
-29.56
-32.53
-32.58
-29.45
-23.46
-15.42
-6.41
2.4
10.03
15.73
19.14
20.23
19.29
16.89
13.75
10.6
7.98
6.24
5.42
5.33
5.59
5.81
5.66
4.96
3.73
2.09
0.21
-1.79
-3.91
-6.24
-9.03
-12.46
-16.61
-21.25
-25.82
-29.47
-31.29
-30.49
-26.73
-20.26
-11.84
-2.59
6.33
13.99
19.85
23.7
25.58
25.65
24.1
21.25
17.57
13.71
10.37
8.08
7.06
7.06
7.56
7.91
7.66
6.6
4.87
2.72
0.43
-1.9
-4.3
-6.98
-10.23
-14.24
-19.01
-24.17
-28.95
-32.3
-33.21
-31.05
-25.83
-18.24
-9.36
-0.38
7.79
14.62
19.85
23.41
25.19
25.16
23.42
20.39
16.8
13.54
11.36
10.6
11.07
12.12
12.98
13.04
12.09
10.31
8.11
5.85
3.68
1.5
-0.9
-3.75
-7.23
-11.39
-16.17
-21.3
-26.22
-30.11
-31.95
-30.9
-26.57
-19.27
-9.96
0.0
9.3
16.96
22.55
26.07
27.71
27.78
26.5
24.23
21.39
18.57
16.3
14.98
14.67
15.07
15.69
16.02
15.65
14.46
12.54
10.17
7.68
5.35
3.31
1.53
-0.22
-2.25
-4.88
-8.28
-12.42
-16.93
-21.17
-24.29
-25.45
-24.01
-19.78
-13.09
-4.76
4.12
12.45
19.41
24.53
27.75
29.21
29.25
28.24
26.65
24.94
23.56
22.83
22.81
23.32
24.04
24.64
24.88
24.66
23.94
22.69
20.92
18.68
16.09
13.35
10.68
8.16
5.8
3.48
1.07
-1.51
-4.35
-7.54
-11.17
-15.21
-19.36
-22.94
-25.02
-24.67
-21.36
-15.26
-7.21
1.48
9.45
15.7
19.84
21.99
22.59
22.14
21.03
19.56
17.97
16.56
15.62
15.38
15.83
16.76
17.76
18.36
18.29
17.44
15.95
14.08
12.07
10.02
7.88
5.57
2.99
0.24
-2.51
-4.99
-7.05
-8.72
-10.24
-11.99
-14.34
-17.42
-21.03
-24.64
-27.42
-28.49
-27.18
-23.25
-17.08
-9.53
-1.77
5.11
10.41
13.96
15.97
16.87
16.99
16.56
15.73
14.62
13.48
12.59
12.16
12.27
12.78
13.41
13.87
13.92
13.47
12.48
11.04
9.25
7.24
5.16
3.12
1.19
-0.64
-2.39
-4.14
-5.97
-8.0
-10.38
-13.13
-16.11
-18.86
-20.69
-20.84
-18.85
-14.71
-8.98
-2.56
3.62
8.9
13.0
15.95
17.88
18.92
19.14
18.65
17.66
16.55
15.68
15.32
15.51
16.01
16.49
16.6
16.18
15.23
13.88
12.27
10.48
8.54
6.43
4.23
2.05
0.06
-1.65
-3.09
-4.4
-5.78
-7.41
-9.46
-11.99
-14.97
-18.21
-21.29
-23.57
-24.36
-23.09
-19.6
-14.3
-8.01
-1.75
3.63
7.7
10.45
12.14
13.09
13.5
13.46
13.05
12.39
11.7
11.21
11.1
11.35
11.79
12.17
12.21
11.8
10.92
9.75
8.45
7.16
5.89
4.53
2.93
1.01
-1.17
-3.46
-5.59
-7.42
-8.91
-10.2
-11.51
-13.1
-15.16
-17.75
-20.74
-23.75
-26.21
-27.45
-26.94
-24.45
-20.2
-14.8
-9.06
-3.73
0.73
4.14
6.6
8.29
9.38
9.93
9.97
9.51
8.69
7.7
6.82
6.26
6.13
6.43
6.95
7.49
7.82
7.83
7.51
6.91
6.1
5.14
4.02
2.7
1.16
-0.56
-2.38
-4.16
-5.79
-7.22
-8.43
-9.5
-10.55
-11.74
-13.25
-15.22
-17.62
-20.21
-22.52
-23.91
-23.82
-21.95
-18.43
-13.77
-8.74
-4.07
-0.29
2.4
4.05
4.86
5.02
4.67
3.98
3.14
2.4
2.0
2.1
2.64
3.4
4.1
4.49
4.47
4.1
3.52
2.92
2.37
1.86
1.29
0.51
-0.57
-1.98
-3.63
-5.33
-6.92
-8.27
-9.34
-10.26
-11.21
-12.43
-14.12
-16.3
-18.79
-21.22
-23.02
-23.62
-22.65
-20.06
-16.17
-11.54
-6.82
-2.55
0.95
3.57
5.39
6.53
7.11
7.26
7.07
6.68
6.27
6.02
6.06
6.4
6.92
7.44
7.74
7.73
7.42
6.89
6.23
5.42
4.45
3.26
1.91
0.49
-0.9
-2.17
-3.32
-4.43
-5.64
-7.06
-8.83
-11.0
-13.59
-16.43
-19.17
-21.32
-22.31
-21.67
-19.26
-15.27
-10.29
-5.07
-0.34
3.38
5.91
7.32
7.91
8.01
7.9
7.75
7.65
7.65
7.77
8.04
8.45
8.96
9.46
9.81
9.88
9.58
8.88
7.86
6.61
5.24
3.75
2.09
0.22
-1.85
-4.0
-6.05
-7.85
-9.32
-10.62
-11.98
-13.68
-15.88
-18.41
-20.88
-22.66
-23.16
-22.04
-19.31
-15.37
-10.83
-6.33
-2.33
0.99
3.59
5.5
6.76
7.35
7.34
6.9
6.33
5.96
6.0
6.52
7.36
8.31
9.1
9.58
9.71
9.55
9.17
8.61
7.85
6.79
5.37
3.56
1.46
-0.76
-2.91
-4.84
-6.52
-8.01
-9.47
-11.08
-13.04
-15.44
-18.2
-21.01
-23.31
-24.42
-23.78
-21.19
-16.87
-11.45
-5.74
-0.47
3.91
7.27
9.67
11.23
12.04
12.19
11.79
11.07
10.33
9.84
9.76
10.05
10.54
10.97
11.15
10.96
10.44
9.68
8.76
7.72
6.49
5.02
3.28
1.35
-0.62
-2.49
-4.16
-5.65
-7.09
-8.66
-10.56
-12.9
-15.58
-18.34
-20.64
-21.91
-21.65
-19.63
-16.04
-11.4
-6.43
-1.82
1.98
4.81
6.7
7.78
8.2
8.06
7.5
6.7
5.87
5.23
4.9
4.89
5.11
5.39
5.63
5.72
5.62
5.33
4.84
4.13
3.23
2.25
1.28
0.4
-0.45
-1.5
-3.03
-5.3
-8.28
-11.64
-14.75
-16.92
-17.59
-16.47
-13.71
-9.71
-5.07
-0.44
3.66
6.86
9.03
10.24
10.7
10.62
10.24
9.64
8.94
8.23
7.65
7.33
7.34
7.58
7.84
7.86
7.44
6.58
5.39
4.09
2.82
1.59
0.3
-1.18
-2.96
-5.07
-7.47
-10.16
-13.1
-16.14
-18.96
-21.08
-21.92
-21.02
-18.27
-13.97
-8.76
-3.4
1.45
5.41
8.37
10.43
11.65
12.1
11.8
10.88
9.58
8.26
7.3
6.94
7.13
7.62
8.05
8.08
7.55
6.54
5.22
3.81
2.43
1.07
-0.4
-2.12
-4.18
-6.56
-9.19
-11.95
-14.71
-17.27
-19.34
-20.53
-20.43
-18.76
-15.54
-11.09
-5.95
-0.75
4.0
7.97
10.99
12.95
13.82
13.59
12.42
10.65
8.77
7.29
6.55
6.67
7.44
8.45
9.24
9.46
8.99
7.9
6.39
4.67
2.9
1.1
-0.8
-2.96
-5.51
-8.5
-11.87
-15.29
-18.32
-20.32
-20.8
-19.43
-16.28
-11.75
-6.44
-1.03
3.91
7.97
10.88
12.5
12.87
12.15
10.7
8.95
7.37
6.28
5.83
5.94
6.39
6.89
7.14
6.98
6.39
5.47
4.4
3.33
2.32
1.28
-0.01
-1.78
-4.24
-7.39
-11.02
-14.62
-17.56
-19.14
-18.86
-16.56
-12.52
-7.37
-1.9
3.15
7.3
10.28
12.1
12.87
12.76
11.98
10.78
9.41
8.15
7.19
6.59
6.27
6.04
5.71
5.13
4.28
3.24
2.14
1.11
0.14
-0.86
-2.05
-3.69
-5.94
-8.82
-12.14
-15.47
-18.17
-19.57
-19.16
-16.8
-12.75
-7.58
-2.04
3.21
7.67
11.09
13.32
14.34
14.16
12.92
10.94
8.67
6.6
5.09
4.3
4.1
4.18
4.15
3.77
2.93
1.72
0.31
-1.19
-2.72
-4.38
-6.33
-8.73
-11.69
-15.12
-18.79
-22.26
-24.96
-26.29
-25.75
-23.15
-18.61
-12.68
-6.1
0.28
5.73
9.74
12.08
12.78
12.06
10.3
8.0
5.71
3.93
2.99
2.99
3.74
4.81
5.7
5.96
5.37
3.98
2.03
-0.15
-2.29
-4.29
-6.25
-8.39
-10.91
-13.93
-17.31
-20.65
-23.32
-24.59
-23.85
-20.78
-15.56
-8.81
-1.48
5.43
11.11
15.08
17.22
17.7
16.8
14.96
12.67
10.42
8.65
7.6
7.25
7.35
7.47
7.28
6.59
5.41
3.91
2.26
0.59
-1.12
-2.96
-5.11
-7.75
-11.04
-14.9
-19.0
-22.68
-25.06
-25.28
-22.85
-17.8
-10.79
-2.87
4.85
11.47
16.5
19.83
21.59
21.95
21.13
19.42
17.19
14.91
13.09
12.11
12.03
12.56
13.16
13.27
12.52
10.89
8.63
6.14
3.77
1.65
-0.32
-2.41
-4.98
-8.34
-12.58
-17.56
-22.77
-27.37
-30.32
-30.68
-27.89
-22.07
-14.0
-4.92
3.85
11.26
16.77
20.34
22.28
23.0
22.87
22.14
20.96
19.48
17.91
16.49
15.46
14.93
14.81
14.84
14.63
13.83
12.22
9.83
6.83
3.46
-0.06
-3.56
-6.95
-10.18
-13.22
-16.14
-19.1
-22.38
-26.23
-30.71
-35.51
-39.88
-42.79
-43.23
-40.57
-34.89
-27.01
-18.31
-10.31
-4.21
-0.55
0.81
0.55
-0.27
-0.45
1.27
6.06
14.73
27.52
43.84
62.39
81.42
99.29
114.81
127.47
137.1
143.64
146.88
146.52
142.42
134.88
124.7
113.02
101.08
90.02
80.89
74.69
72.32
74.38
80.87
90.92
103.02
115.57
127.47
138.41
148.6
158.16
166.65
173.04
176.2
175.37
170.38
161.31
147.98
129.77
106.07
77.2
44.96
12.37
-17.37
-42.2
-61.85
-77.6
-91.11
-103.34
-114.19
-123.0
-129.37
-133.66
-136.78
-139.5
-141.89
-143.22
-142.54
-139.28
-133.69
-126.56
-118.81
-110.97
-102.97
-94.25
-84.02
-71.72
-57.41
-42.09
-27.78
-17.26
-13.36
-17.97
-31.16
-50.99
-73.96
-96.04
-113.72
-124.77
-128.51
-125.61
-117.7
-106.95
-95.39
-84.58
-75.12
-66.65
-58.14
-48.36
-36.37
-21.76
-4.77
13.8
32.76
50.87
67.02
80.45
90.65
97.12
99.23
96.19
87.41
73.02
54.07
32.46
10.38
-10.23
-28.03
-42.12
-51.84
-56.71
-56.7
-52.7
-46.61
-40.96
-37.98
-38.93
-43.71
-51.01
-58.91
-65.36
-68.65
-67.71
-62.3
-53.09
-41.67
-30.1
-20.43
-14.08
-11.54
-12.31
-15.23
-18.88
-21.94
-23.36
-22.39
-18.55
-11.6
-1.64
10.81
24.76
38.9
51.79
62.27
69.5
73.11
73.04
69.49
62.94
54.28
44.7
35.52
27.79
21.98
17.93
15.0
12.5
9.89
6.89
3.43
-0.41
-4.37
-8.02
-10.97
-13.16
-15.14
-17.92
-22.56
-29.52
-38.42
-48.1
-57.24
-64.76
-70.1
-72.96
-73.07
-70.04
-63.6
-53.93
-41.83
-28.55
-15.38
-3.38
6.85
14.89
20.39
23.13
23.15
20.97
17.49
13.69
10.27
7.54
5.51
4.24
3.87
4.58
6.31
8.6
10.7
11.87
11.75
10.55
8.97
7.88
8.02
9.75
13.09
17.68
22.85
27.66
30.97
31.68
28.96
22.5
12.61
0.23
-13.24
-26.21
-37.31
-45.67
-51.15
-54.27
-55.93
-57.01
-58.02
-58.92
-59.2
-58.08
-54.97
-49.66
-42.38
-33.7
-24.3
-14.82
-5.86
2.03
8.3
12.44
14.03
12.94
9.37
3.9
-2.54
-8.82
-13.76
-16.34
-15.97
-12.63
-6.96
0.04
7.3
13.99
19.7
24.3
27.8
30.15
31.26
31.07
29.65
27.31
24.56
21.93
19.84
18.37
17.26
15.99
14.07
11.17
7.28
2.53
-2.95
-9.25
-16.61
-25.19
-34.7
-44.3
-52.79
-59.04
-62.51
-63.43
-62.64
-61.15
-59.69
-58.38
-56.73
-53.84
-48.71
-40.53
-28.92
-14.04
3.29
21.49
38.48
51.97
60.15
62.21
58.71
51.41
42.7
34.86
29.49
27.15
27.48
29.57
32.33
34.74
36.02
35.55
32.96
28.15
21.28
12.73
3.03
-7.25
-17.56
-27.43
-36.58
-45.05
-53.14
-61.36
-70.14
-79.68
-89.8
-100.05
-109.86
-118.65
-125.83
-130.76
-132.76
-131.35
-126.43
-118.44
-108.16
-96.45
-83.9
-70.81
-57.37
-43.84
-30.65
-18.24
-6.74
4.13
14.93
26.32
38.68
52.02
65.99
79.82
92.43
102.52
108.92
110.99
108.95
103.88
97.35
90.95
85.82
82.62
81.56
82.58
85.31
89.03
92.51
94.17
92.54
86.63
76.35
62.57
46.78
30.71
15.92
3.58
-5.69
-11.8
-15.11
-16.19
-15.66
-14.24
-12.66
-11.74
-12.16
-14.23
-17.69
-21.82
-25.7
-28.8
-31.32
-34.07
-38.07
-43.76
-50.65
-57.39
-62.46
-64.88
-64.7
-62.86
-60.63
-58.96
-58.18
-57.98
-57.7
-56.79
-55.0
-52.32
-48.84
-44.67
-40.21
-36.26
-33.97
-34.3
-37.33
-41.84
-45.51
-45.79
-41.02
-31.18
-17.85
-3.44
9.78
20.46
28.18
33.13
35.6
35.79
33.87
30.35
26.15
22.53
20.72
21.36
24.11
27.56
29.63
28.5
23.5
15.58
6.99
0.23
-3.2
-3.64
-3.03
-3.91
-8.09
-15.81
-25.88
-36.39
-45.86
-53.84
-60.78
-67.58
-74.96
-83.11
-91.6
-99.38
-104.6
-104.81
-97.3
-80.21
-53.68
-20.53
13.98
43.64
63.17
69.92
64.55
50.53
32.82
16.35
4.84
0.17
2.37
10.01
20.91
32.81
44.02
53.71
61.86
69.0
75.87
83.09
91.0
99.47
107.77
114.63
118.28
116.88
109.04
94.43
74.34
51.66
30.45
14.9
8.09
11.02
22.26
38.41
55.31
69.27
77.99
80.82
78.44
72.26
63.82
54.56
45.64
37.96
32.06
27.95
25.02
22.14
17.92
11.25
1.69
-10.27
-23.4
-36.11
-47.07
-55.52
-61.41
-65.19
-67.45
-68.76
-69.49
-69.91
-70.26
-70.86
-72.03
-74.03
-76.91
-80.28
-83.33
-84.85
-83.55
-78.41
-69.06
-55.96
-40.3
-23.61
-7.37
7.27
19.59
29.2
35.9
39.67
40.71
39.56
37.14
34.56
32.78
32.31
33.01
34.21
35.01
34.69
33.04
30.45
27.85
26.31
26.67
29.16
33.27
37.93
41.91
44.35
44.97
44.07
42.05
39.23
35.67
31.49
27.22
23.93
22.94
25.2
30.7
38.27
45.92
51.58
53.84
52.29
47.44
40.31
32.01
23.52
15.71
9.31
4.98
3.13
3.82
6.69
10.88
15.28
18.75
20.37
19.7
16.85
12.46
7.42
2.66
-1.2
-3.89
-5.43
-6.0
-5.86
-5.34
-5.0
-5.63
-7.93
-12.14
-17.65
-23.0
-26.39
-26.43
-22.87
-16.69
-9.68
-3.56
0.73
3.29
4.92
6.41
8.08
9.57
10.23
9.55
7.59
4.91
2.31
0.31
-1.03
-2.11
-3.48
-5.48
-8.02
-10.65
-12.83
-14.17
-14.73
-14.94
-15.46
-16.9
-19.57
-23.32
-27.62
-31.61
-34.4
-35.28
-33.87
-30.22
-24.65
-17.65
-9.77
-1.53
6.56
13.93
20.07
24.54
27.07
27.59
26.24
23.3
19.16
14.34
9.49
5.26
2.18
0.43
-0.26
-0.69
-1.91
-4.97
-10.71
-19.49
-31.18
-45.06
-59.92
-74.16
-86.07
-94.2
-97.74
-96.7
-91.89
-84.48
-75.57
-65.77
-55.19
-43.71
-31.41
-18.77
-6.72
3.7
11.73
17.1
20.18
21.73
22.7
23.87
25.72
28.38
31.79
35.81
40.37
45.5
51.23
57.48
63.96
70.3
76.08
81.1
85.33
88.83
91.47
92.83
92.1
88.44
81.38
71.24
59.28
47.34
37.33
30.51
27.12
26.47
27.35
28.6
29.54
30.02
30.12
29.83
28.86
26.71
23.02
17.84
11.75
5.65
0.39
-3.6
-6.51
-8.89
-11.39
-14.29
-17.37
-20.04
-21.74
-22.28
-22.1
-22.09
-23.22
-26.09
-30.63
-36.12
-41.44
-45.46
-47.41
-47.03
-44.57
-40.6
-35.83
-30.92
-26.39
-22.63
-19.82
-18.03
-17.16
-17.05
-17.51
-18.29
-19.16
-19.86
-20.14
-19.83
-18.84
-17.29
-15.44
-13.61
-12.08
-10.92
-10.09
-9.46
-8.96
-8.66
-8.72
-9.35
-10.75
-13.03
-16.13
-19.86
-23.8
-27.35
-29.86
-30.77
-29.83
-27.16
-23.24
-18.79
-14.53
-11.07
-8.78
-7.79
-8.05
-9.4
-11.6
-14.41
-17.58
-20.87
-24.04
-26.86
-29.16
-30.79
-31.7
-31.82
-31.18
-29.8
-27.79
-25.26
-22.38
-19.31
-16.18
-13.09
-10.11
-7.27
-4.57
-2.0
0.44
2.72
4.85
6.91
9.17
12.11
16.26
22.06
29.61
38.57
48.19
57.54
65.81
72.53
77.64
81.36
84.01
85.87
87.03
87.48
87.06
85.51
82.39
77.12
69.14
58.08
44.08
27.95
11.08
-4.95
-18.75
-29.53
-37.2
-42.26
-45.52
-47.75
-49.47
-50.96
-52.29
-53.48
-54.52
-55.29
-55.51
-54.61
-51.89
-46.69
-38.7
-28.19
-15.97
-3.18
9.08
19.99
29.18
36.61
42.41
46.73
49.74
51.62
52.69
53.32
53.89
54.67
55.75
56.96
57.95
58.25
57.4
55.04
51.05
45.49
38.68
31.02
22.95
14.85
7.0
-0.35
-7.01
-12.87
-18.02
-22.67
-27.18
-31.78
-36.45
-40.84
-44.31
-46.17
-46.01
-43.78
-39.87
-34.94
-29.76
-24.93
-20.87
-17.76
-15.6
-14.25
-13.55
-13.32
-13.39
-13.58
-13.63
-13.33
-12.46
-11.01
-9.15
-7.23
-5.65
-4.67
-4.34
-4.52
-5.02
-5.71
-6.58
-7.69
-9.07
-10.67
-12.27
-13.69
-14.78
-15.61
-16.37
-17.27
-18.41
-19.63
-20.5
-20.44
-18.93
-15.7
-10.91
-5.15
0.75
5.97
9.92
12.36
13.35
13.12
11.98
10.21
8.15
6.14
4.56
3.68
3.62
4.23
5.21
6.16
6.78
6.91
6.51
5.68
4.48
3.03
1.38
-0.38
-2.22
-4.06
-5.88
-7.66
-9.39
-11.13
-12.97
-14.99
-17.2
-19.41
-21.2
-22.02
-21.33
-18.85
-14.68
-9.3
-3.52
1.85
6.17
9.15
10.88
11.67
11.85
11.71
11.39
10.91
10.29
9.6
8.98
8.53
8.33
8.37
8.56
8.78
8.95
8.96
8.75
8.18
7.15
5.58
3.48
0.99
-1.64
-4.17
-6.42
-8.37
-10.15
-12.0
-14.08
-16.38
-18.59
-20.15
-20.45
-19.01
-15.71
-10.89
-5.19
0.62
5.84
10.01
12.98
14.74
15.44
15.28
14.44
13.17
11.74
10.4
9.35
8.69
8.4
8.36
8.38
8.3
7.96
7.29
6.27
4.97
3.5
1.97
0.47
-0.98
-2.39
-3.85
-5.37
-7.02
-8.83
-10.91
-13.37
-16.21
-19.2
-21.84
-23.43
-23.32
-21.24
-17.36
-12.32
-6.97
-2.05
1.95
4.85
6.68
7.52
7.5
6.8
5.68
4.46
3.48
2.95
3.02
3.65
4.8
6.34
8.12
9.92
11.49
12.62
13.2
13.23
12.84
12.2
11.45
10.67
9.8
8.7
7.13
4.85
1.7
-2.19
-6.39
-10.15
-12.64
-13.23
-11.69
-8.26
-3.59
1.54
6.44
10.57
13.68
15.59
16.31
15.88
14.5
12.47
10.22
8.16
6.59
5.67
5.35
5.46
5.74
5.95
5.9
5.5
4.75
3.7
2.41
0.93
-0.74
-2.6
-4.6
-6.65
-8.64
-10.54
-12.43
-14.51
-16.96
-19.74
-22.55
-24.74
-25.59
-24.51
-21.31
-16.3
-10.2
-3.9
1.82
6.42
9.68
11.63
12.43
12.31
11.54
10.38
9.1
7.94
7.1
6.73
6.9
7.54
8.47
9.37
9.87
9.65
8.59
6.79
4.52
2.13
-0.12
-2.06
-3.72
-5.2
-6.71
-8.49
-10.74
-13.55
-16.77
-19.92
-22.28
-23.07
-21.73
-18.16
-12.77
-6.35
0.18
6.0
10.59
13.72
15.38
15.74
15.03
13.57
11.71
9.84
8.27
7.27
6.97
7.34
8.22
9.33
10.32
10.85
10.75
10.02
8.8
7.34
5.75
4.08
2.21
0.07
-2.33
-4.85
-7.31
-9.63
-11.8
-13.88
-15.78
-17.18
-17.58
-16.46
-13.56
-9.07
-3.61
2.02
7.06
11.01
13.7
15.18
15.61
15.17
14.02
12.43
10.72
9.24
8.36
8.26
8.86
9.9
10.95
11.64
11.73
11.23
10.33
9.23
8.05
6.76
5.2
3.27
0.96
-1.55
-4.0
-6.23
-8.21
-10.09
-12.0
-13.96
-15.64
-16.5
-15.97
-13.7
-9.8
-4.81
0.5
5.35
9.2
11.85
13.35
13.86
13.56
12.59
11.15
9.44
7.79
6.5
5.8
5.74
6.17
6.81
7.32
7.46
7.09
6.23
4.99
3.53
1.95
0.32
-1.31
-2.94
-4.56
-6.24
-8.1
-10.29
-12.88
-15.77
-18.58
-20.7
-21.45
-20.33
-17.2
-12.4
-6.65
-0.77
4.53
8.82
11.96
13.99
15.05
15.25
14.7
13.6
12.23
10.94
10.03
9.65
9.74
10.12
10.52
10.75
10.72
10.42
9.86
9.06
8.0
6.66
5.06
3.24
1.29
-0.71
-2.7
-4.64
-6.56
-8.49
-10.47
-12.47
-14.33
-15.72
-16.22
-15.38
-12.98
-9.06
-4.06
1.34
6.39
10.45
13.2
14.6
14.88
14.4
13.53
12.61
11.87
11.44
11.35
11.52
11.84
12.15
12.35
12.33
12.06
11.49
10.53
9.13
7.26
4.99
2.46
-0.14
-2.67
-5.08
-7.42
-9.77
-12.22
-14.82
-17.57
-20.54
-23.76
-27.23
-30.82
-34.19
-36.9
-38.52
-38.82
-37.88
-36.06
-33.83
-31.59
-29.59
-27.9
-26.61
-25.9
-26.05
-27.36
-29.91
-33.27
-36.45
-37.96
-36.14
-29.66
-17.92
-1.24
19.39
42.68
67.45
92.72
117.49
140.52
160.43
176.12
187.21
194.13
197.79
198.9
197.68
193.89
187.36
178.39
167.88
157.07
147.23
139.5
135.06
135.01
140.08
149.99
163.08
176.43
186.73
191.25
188.67
179.36
164.69
146.15
124.74
101.03
75.39
48.28
20.14
-8.76
-38.21
-67.99
-97.71
-126.55
-153.13
-176.07
-194.32
-207.86
-217.4
-223.42
-225.65
-223.26
-215.53
-202.49
-185.61
-167.25
-149.92
-136.53
-127.88
-121.86
-115.18
-106.12
-94.88
-84.41
-76.85
-72.54
-70.24
-68.49
-65.69
-61.42
-56.51
-52.09
-48.77
-45.87
-41.85
-35.15
-24.76
-10.75
5.39
21.33
34.99
45.23
52.3
57.44
62.2
67.92
75.18
83.38
90.98
96.21
97.68
94.97
88.4
78.62
66.14
51.12
33.45
13.38
-7.93
-28.32
-45.21
-56.52
-61.36
-60.15
-54.2
-45.15
-34.56
-23.76
-13.98
-6.31
-1.53
0.23
-0.41
-2.16
-3.61
-3.71
-2.16
0.56
3.48
5.45
5.54
3.26
-1.34
-7.77
-15.29
-23.03
-30.27
-36.44
-41.16
-44.28
-45.86
-46.19
-45.72
-44.92
-44.19
-43.72
-43.45
-43.19
-42.72
-42.04
-41.42
-41.3
-42.14
-44.01
-46.61
-49.14
-50.57
-49.89
-46.38
-39.73
-30.12
-18.06
-4.38
9.9
23.82
36.5
47.38
56.21
63.03
68.13
71.96
75.07
78.07
81.5
85.69
90.57
95.71
100.36
103.64
104.82
103.45
99.53
93.53
86.23
78.5
71.04
64.19
57.99
52.29
46.97
42.02
37.56
33.74
30.62
28.23
26.56
25.75
26.01
27.62
30.65
34.85
39.54
43.86
46.87
47.83
46.22
41.77
34.24
23.51
9.75
-6.38
-23.51
-39.9
-53.98
-65.05
-73.67
-81.38
-89.93
-100.26
-112.1
-124.08
-134.6
-142.7
-148.63
-153.6
-159.06
-165.83
-173.62
-181.28
-187.55
-191.87
-194.66
-197.02
-199.97
-203.76
-207.73
-210.68
-211.66
-210.37
-207.18
-202.8
-197.75
-192.16
-185.91
-178.83
-170.73
-161.42
-150.48
-137.49
-122.36
-105.69
-88.76
-73.11
-59.77
-48.52
-37.56
-23.84
-4.11
23.59
58.73
97.93
135.68
166.15
185.19
191.76
188.17
179.03
169.48
163.51
163.05
167.96
176.73
187.28
197.5
205.55
209.94
209.64
204.23
194.03
180.23
164.75
149.86
137.51
128.75
123.36
120.08
117.15
113.15
107.47
100.4
92.72
85.1
77.75
70.22
61.66
51.11
37.8
21.37
2.1
-18.93
-39.82
-58.14
-71.58
-78.62
-79.1
-74.29
-66.42
-57.97
-51.06
-47.2
-47.22
-51.4
-59.41
-70.25
-82.18
-93.03
-100.74
-103.96
-102.51
-97.3
-89.84
-81.64
-73.74
-66.57
-60.03
-53.93
-48.23
-43.32
-39.91
-38.91
-41.0
-46.37
-54.39
-63.52
-71.57
-76.16
-75.4
-68.46
-55.9
-39.42
-21.41
-4.22
10.37
21.34
28.33
31.45
31.0
27.5
21.76
14.96
8.54
3.82
1.6
1.85
3.72
5.85
6.81
5.57
1.73
-4.5
-12.54
-21.67
-31.29
-40.96
-50.43
-59.71
-69.0
-78.63
-88.66
-98.51
-106.74
-111.2
-109.74
-101.17
-85.88
-65.93
-44.37
-24.19
-7.38
5.34
14.34
20.39
24.12
25.95
26.21
25.4
24.3
23.65
23.88
24.92
26.21
27.1
27.13
26.32
24.99
23.56
22.25
20.92
19.22
16.78
13.48
9.49
5.2
1.05
-2.71
-6.03
-9.16
-12.53
-16.69
-22.12
-28.89
-36.42
-43.35
-47.71
-47.57
-41.68
-30.11
-14.3
3.35
20.26
34.44
44.93
51.66
55.14
56.0
54.8
52.03
48.23
44.08
40.4
37.92
37.1
37.96
39.96
42.19
43.62
43.5
41.48
37.86
33.23
28.34
23.68
19.4
15.31
11.06
6.37
1.19
-4.32
-9.82
-14.98
-19.55
-23.45
-26.78
-29.8
-32.93
-36.65
-41.4
-47.4
-54.32
-61.17
-66.33
-67.94
-64.5
-55.41
-41.39
-24.21
-6.18
10.54
24.55
35.38
43.24
48.71
52.35
54.62
55.98
56.99
58.41
61.0
65.27
71.18
78.04
84.7
89.85
92.56
92.55
90.29
86.76
83.08
80.11
78.11
76.81
75.5
73.38
69.87
64.76
58.27
50.87
43.11
35.52
28.47
22.02
15.85
9.07
0.45
-11.29
-26.83
-45.72
-66.26
-85.85
-101.87
-112.52
-117.41
-117.48
-114.52
-110.37
-106.38
-103.14
-100.65
-98.58
-96.64
-94.7
-92.75
-90.74
-88.43
-85.39
-81.33
-76.3
-70.79
-65.51
-60.85
-56.54
-51.62
-44.93
-35.82
-24.65
-12.72
-1.77
6.82
12.59
16.05
18.26
20.34
23.02
26.51
30.52
34.38
37.24
38.22
36.67
32.37
25.58
17.16
8.31
0.39
-5.46
-8.65
-9.26
-8.01
-6.03
-4.4
-3.78
-4.21
-5.2
-6.04
-6.11
-5.02
-2.61
1.27
6.78
14.11
23.27
33.9
45.27
56.42
66.53
75.16
82.34
88.33
93.31
97.09
99.14
98.82
95.81
90.36
83.24
75.44
67.71
60.27
52.84
44.99
36.5
27.63
19.02
11.41
5.31
0.79
-2.48
-4.94
-6.81
-7.89
-7.42
-4.3
2.7
14.69
32.38
55.99
84.96
117.76
151.55
182.4
205.89
218.35
218.09
206.21
186.21
162.71
139.76
119.58
102.35
86.94
72.01
56.73
40.86
24.32
6.89
-11.66
-31.0
-49.71
-65.46
-75.71
-79.02
-75.8
-68.46
-60.5
-55.29
-54.92
-59.55
-67.75
-77.1
-85.1
-89.84
-90.49
-87.46
-82.28
-77.18
-74.34
-75.16
-79.61
-86.18
-92.43
-95.84
-94.67
-88.46
-78.07
-65.23
-51.97
-40.08
-30.74
-24.37
-20.67
-18.92
-18.28
-18.12
-18.19
-18.47
-18.88
-19.18
-18.92
-17.73
-15.55
-12.72
-9.85
-7.46
-5.83
-4.9
-4.41
-4.02
-3.34
-1.8
1.42
7.17
15.85
26.88
38.64
48.82
55.31
57.01
54.11
47.79
39.37
29.48
17.84
3.64
-13.67
-33.48
-53.81
-71.68
-83.88
-88.05
-83.23
-69.99
-50.21
-26.67
-2.53
19.08
35.48
44.92
46.95
42.56
33.85
23.37
13.41
5.52
0.41
-1.76
-1.24
1.43
5.35
9.31
12.07
12.84
11.62
9.2
6.74
5.15
4.64
4.75
4.59
3.43
1.09
-2.02
-5.14
-7.48
-8.55
-8.37
-7.33
-6.17
-5.72
-6.64
-9.2
-13.16
-17.57
-20.99
-21.79
-18.63
-11.02
0.44
14.07
27.49
38.37
44.98
46.67
43.79
37.47
29.16
20.24
11.85
4.81
-0.26
-2.95
-3.1
-0.87
3.2
8.17
13.02
16.84
19.17
20.05
19.97
19.58
19.39
19.58
19.91
19.86
18.9
16.72
13.39
9.37
5.26
1.58
-1.45
-3.96
-6.35
-9.09
-12.57
-17.04
-22.53
-28.81
-35.33
-41.21
-45.34
-46.63
-44.43
-38.79
-30.58
-21.27
-12.44
-5.4
-0.8
1.38
1.63
0.73
-0.4
-0.88
0.15
3.52
9.96
20.03
33.93
51.21
70.66
90.27
107.59
120.2
126.25
124.7
115.46
99.28
77.71
52.99
27.92
5.38
-12.38
-24.26
-30.73
-33.58
-35.24
-37.96
-43.1
-50.92
-60.78
-71.59
-82.23
-91.78
-99.56
-105.18
-108.37
-109.11
-107.48
-103.7
-98.13
-91.17
-83.26
-74.77
-66.03
-57.34
-49.01
-41.34
-34.58
-28.87
-24.19
-20.4
-17.25
-14.47
-11.75
-8.89
-5.83
-2.75
0.03
2.18
3.45
3.86
3.54
2.74
1.6
0.11
-1.84
-4.32
-7.25
-10.46
-13.69
-16.77
-19.63
-22.34
-25.0
-27.67
-30.45
-33.43
-36.61
-39.78
-42.36
-43.45
-42.04
-37.43
-29.52
-18.96
-7.02
4.81
15.22
23.35
28.8
31.56
31.9
30.34
27.55
24.38
21.63
19.91
19.42
19.97
21.01
21.93
22.23
21.75
20.69
19.4
18.2
17.22
16.27
15.01
13.13
10.58
7.61
4.71
2.34
0.73
-0.26
-1.05
-2.22
-4.26
-7.51
-12.02
-17.55
-23.5
-28.87
-32.45
-32.98
-29.63
-22.26
-11.64
0.7
12.92
23.3
30.69
34.69
35.48
33.55
29.51
23.93
17.47
10.9
5.03
0.54
-2.39
-4.1
-5.39
-6.96
-9.13
-11.65
-14.04
-16.03
-17.9
-20.31
-23.79
-28.16
-32.47
-35.38
-35.94
-34.03
-30.47
-26.36
-22.53
-19.19
-16.09
-12.78
-8.92
-4.01
2.83
12.82
27.06
45.51
66.46
86.59
102.07
110.11
110.05
103.48
93.18
81.63
70.15
58.87
47.4
35.63
24.18
14.13
6.61
2.18
0.65
1.25
3.19
5.7
8.21
10.23
11.36
11.53
10.85
9.46
7.51
5.58
4.16
3.52
3.45
3.15
2.0
-0.62
-5.28
-12.09
-19.74
-26.4
-30.47
-31.33
-29.75
-26.22
-21.52
-16.68
-12.68
-9.07
-5.33
-1.57
1.29
1.6
0.18
-0.86
0.9
7.67
22.24
46.0
77.93
114.7
150.96
183.63
210.77
231.23
234.96
216.03
177.11
128.84
88.77
55.88
24.86
-8.84
-47.91
-89.71
-127.22
-153.2
-163.59
-158.98
-144.4
-124.06
-101.38
-79.08
-59.12
-42.14
-28.5
-18.4
-11.57
-7.43
-3.17
3.65
13.34
24.19
33.97
40.7
43.25
41.4
35.34
26.66
17.09
7.87
-0.2
-6.62
-11.44
-15.54
-20.37
-27.64
-37.84
-50.37
-63.84
-76.43
-86.48
-93.07
-96.21
-96.8
-96.36
-96.25
-97.42
-100.02
-103.2
-105.21
-103.93
-97.56
-85.47
-68.52
-48.81
-28.96
-11.24
3.03
13.52
20.61
24.83
26.67
26.56
25.08
23.04
21.37
20.84
21.77
23.92
26.65
29.2
31.0
31.84
31.76
30.92
29.4
27.21
24.29
20.7
16.64
12.44
8.43
4.72
1.1
-2.91
-7.98
-14.53
-22.44
-30.89
-38.42
-43.31
-44.12
-40.18
-31.84
-20.38
-7.59
4.71
15.17
23.04
28.11
30.52
30.54
28.54
24.96
20.44
15.78
11.84
9.32
8.65
9.79
12.3
15.44
18.37
20.32
20.71
19.25
15.99
11.28
5.71
-0.06
-5.47
-10.2
-14.35
-18.33
-22.65
-27.62
-33.02
-37.98
-41.18
-41.19
-37.07
-28.7
-16.98
-3.56
9.61
20.84
29.04
33.83
35.4
34.27
31.12
26.64
21.64
16.92
13.22
11.03
10.47
11.18
12.5
13.63
13.96
13.2
11.4
8.91
6.19
3.64
1.49
-0.32
-1.99
-3.88
-6.35
-9.69
-14.05
-19.44
-25.55
-31.68
-36.73
-39.31
-38.2
-32.72
-23.14
-10.71
2.76
15.35
25.65
32.99
37.35
39.16
38.95
37.26
34.62
31.61
28.85
26.83
25.78
25.56
25.73
25.74
25.19
23.93
22.05
19.77
17.25
14.54
11.54
8.15
4.31
0.12
-4.28
-8.69
-13.02
-17.36
-22.02
-27.39
-33.78
-41.06
-48.5
-54.76
-58.15
-57.18
-51.17
-40.5
-26.64
-11.66
2.42
14.16
22.95
28.86
32.4
34.11
34.5
33.98
32.95
31.88
31.25
31.38
32.35
33.88
35.46
36.53
36.61
35.55
33.48
30.77
27.81
24.93
22.24
19.64
16.92
13.86
10.42
6.69
2.93
-0.59
-3.62
-6.17
-8.42
-10.78
-13.72
-17.71
-23.05
-29.72
-37.24
-44.61
-50.43
-53.16
-51.59
-45.28
-34.74
-21.37
-7.06
6.32
17.39
25.44
30.43
32.79
33.19
32.32
30.84
29.32
28.2
27.78
28.23
29.45
31.18
32.93
34.2
34.59
33.94
32.41
30.34
28.11
25.98
23.98
21.98
19.84
17.49
14.96
12.35
9.65
6.79
3.65
0.15
-3.63
-7.49
-11.17
-14.51
-17.49
-20.25
-23.1
-26.39
-30.45
-35.41
-40.99
-46.41
-50.37
-51.44
-48.47
-41.09
-30.0
-16.76
-3.35
8.52
17.75
24.08
27.79
29.44
29.57
28.59
26.82
24.64
22.46
20.74
19.85
19.95
20.93
22.42
23.92
24.88
24.93
23.92
21.95
19.33
16.42
13.5
10.7
7.94
5.07
1.92
-1.58
-5.4
-9.43
-13.55
-17.62
-21.57
-25.36
-29.0
-32.66
-36.61
-41.26
-46.89
-53.44
-60.34
-66.49
-70.55
-71.31
-68.17
-61.39
-52.05
-41.75
-32.12
-24.3
-18.63
-14.66
-11.41
-7.9
-3.54
1.65
7.13
12.19
16.27
19.18
21.02
22.04
22.32
21.82
20.51
18.47
16.07
13.75
11.94
10.71
9.79
8.67
6.83
4.06
0.59
-2.97
-5.82
-7.26
-6.88
-4.65
-0.92
3.78
8.7
13.03
15.93
16.73
15.29
12.18
8.75
6.74
7.67
12.14
19.56
28.38
36.76
43.27
47.35
49.27
49.7
49.24
48.17
46.49
44.16
41.41
38.67
36.4
34.79
33.6
32.42
30.88
29.12
27.74
27.51
28.83
31.39
34.09
35.43
34.12
29.56
22.05
12.49
1.97
-8.61
-18.65
-27.76
-35.66
-42.13
-47.19
-51.18
-54.7
-58.31
-62.03
-65.08
-65.93
-62.95
-55.13
-42.76
-27.55
-12.06
1.22
10.74
16.32
18.97
20.23
21.45
23.32
25.75
28.14
29.69
29.76
28.07
24.77
20.42
15.85
11.87
9.04
7.41
6.48
5.37
3.1
-1.05
-7.34
-15.52
-24.9
-34.58
-43.61
-51.22
-57.05
-61.13
-63.88
-65.83
-67.3
-68.12
-67.67
-65.18
-60.08
-52.39
-42.82
-32.54
-22.82
-14.66
-8.57
-4.63
-2.64
-2.27
-3.11
-4.65
-6.3
-7.37
-7.37
-6.09
-3.78
-1.05
1.32
2.68
2.72
1.62
-0.12
-1.93
-3.38
-4.45
-5.45
-6.92
-9.33
-12.92
-17.59
-22.96
-28.4
-33.15
-36.36
-37.27
-35.31
-30.36
-22.82
-13.61
-3.91
5.18
12.9
18.97
23.41
26.29
27.6
27.24
25.19
21.75
17.55
13.37
9.9
7.41
5.77
4.55
3.26
1.62
-0.36
-2.48
-4.54
-6.48
-8.46
-10.77
-13.78
-17.67
-22.46
-27.9
-33.53
-38.68
-42.52
-44.21
-43.03
-38.61
-31.15
-21.45
-10.8
-0.64
7.8
13.82
17.31
18.6
18.21
16.65
14.28
11.46
8.56
6.0
4.17
3.33
3.45
4.22
5.18
5.91
6.12
5.85
5.32
4.81
4.4
3.93
2.96
0.92
-2.64
-7.82
-14.26
-21.15
-27.34
-31.66
-33.14
-31.31
-26.25
-18.64
-9.53
-0.15
8.45
15.49
20.61
23.81
25.28
25.39
24.49
22.91
20.98
18.97
17.17
15.84
15.16
15.18
15.73
16.45
16.9
16.72
15.78
14.2
12.26
10.27
8.32
6.27
3.88
0.85
-2.96
-7.56
-12.72
-17.98
-22.63
-25.75
-26.42
-24.03
-18.55
-10.64
-1.47
7.61
15.5
21.58
25.72
28.11
28.99
28.57
27.03
24.6
21.69
18.84
16.58
15.31
15.1
15.66
16.4
16.66
15.92
13.96
10.93
7.31
3.64
0.37
-2.32
-4.54
-6.63
-8.98
-11.92
-15.6
-19.96
-24.72
-29.31
-32.98
-34.81
-34.03
-30.21
-23.54
-14.86
-5.38
3.65
11.31
17.18
21.31
23.92
25.21
25.25
24.06
21.79
18.82
15.72
13.09
11.38
10.71
10.85
11.42
11.97
12.17
11.84
10.98
9.66
8.02
6.14
4.03
1.68
-0.97
-3.95
-7.29
-10.99
-15.08
-19.51
-24.09
-28.34
-31.47
-32.54
-30.82
-26.08
-18.76
-9.89
-0.79
7.39
13.94
18.7
21.93
24.0
25.24
25.76
25.59
24.76
23.42
21.83
20.34
19.24
18.64
18.4
18.26
17.88
17.03
15.68
13.93
11.99
10.01
8.02
5.88
3.38
0.36
-3.2
-7.21
-11.48
-15.82
-19.97
-23.62
-26.25
-27.24
-25.98
-22.22
-16.13
-8.48
-0.3
7.37
13.79
18.65
21.97
23.94
24.74
24.56
23.59
22.14
20.62
19.39
18.7
18.54
18.72
18.93
18.89
18.43
17.5
16.14
14.43
12.44
10.21
7.8
5.27
2.65
0.0
-2.63
-5.2
-7.69
-10.17
-12.79
-15.78
-19.26
-23.09
-26.77
-29.47
-30.32
-28.69
-24.48
-18.2
-10.74
-3.13
3.82
9.62
14.06
17.2
19.11
20.01
20.1
19.7
19.09
18.52
18.17
18.1
18.34
18.85
19.52
20.17
20.56
20.47
19.85
18.76
17.4
15.94
14.4
12.65
10.47
7.73
4.53
1.15
-1.99
-4.57
-6.48
-7.88
-9.1
-10.5
-12.4
-14.95
-18.08
-21.52
-24.72
-27.01
-27.71
-26.34
-22.8
-17.44
-10.99
-4.35
1.7
6.62
10.21
12.52
13.73
14.05
13.67
12.8
11.67
10.54
9.68
9.32
9.59
10.47
11.75
13.11
14.22
14.82
14.8
14.29
13.5
12.65
11.83
10.98
9.89
8.36
6.28
3.73
0.88
-1.99
-4.68
-7.08
-9.22
-11.21
-13.25
-15.51
-18.11
-21.02
-24.04
-26.76
-28.62
-29.14
-27.99
-25.15
-20.93
-15.86
-10.56
-5.59
-1.39
1.79
3.87
4.9
5.06
4.63
3.99
3.47
3.38
3.86
4.89
6.29
7.73
8.9
9.52
9.53
9.0
8.13
7.1
5.93
4.51
2.69
0.42
-2.2
-4.86
-7.23
-9.08
-10.39
-11.35
-12.28
-13.53
-15.32
-17.68
-20.39
-23.02
-25.01
-25.86
-25.24
-23.11
-19.69
-15.38
-10.7
-6.14
-2.15
0.9
2.74
3.27
2.64
1.22
-0.47
-1.89
-2.66
-2.55
-1.53
0.36
3.05
6.43
10.26
14.2
17.75
20.49
22.17
22.8
22.67
22.13
21.49
20.86
20.26
19.74
19.54
20.06
21.66
24.37
27.72
30.8
32.64
32.65
30.92
28.2
25.5
23.56
22.43
21.42
19.43
15.55
9.55
2.07
-5.64
-12.25
-16.86
-19.25
-19.84
-19.28
-18.1
-16.57
-14.66
-12.42
-10.06
-8.05
-6.91
-6.95
-8.09
-9.83
-11.51
-12.56
-12.71
-12.08
-10.99
-9.86
-8.93
-8.29
-7.86
-7.58
-7.49
-7.78
-8.59
-9.89
-11.37
-12.49
-12.76
-11.92
-10.12
-7.8
-5.53
-3.7
-2.4
-1.47
-0.68
0.04
0.59
0.71
0.22
-0.8
-2.02
-2.95
-3.16
-2.49
-1.1
0.69
2.46
3.99
5.2
6.12
6.84
7.35
7.59
7.51
7.04
6.21
5.05
3.53
1.62
-0.73
-3.43
-6.2
-8.64
-10.27
-10.82
-10.27
-8.95
-7.36
-6.02
-5.29
-5.37
-6.28
-8.01
-10.48
-13.49
-16.69
-19.58
-21.53
-22.0
-20.61
-17.23
-12.03
-5.43
1.89
9.1
15.33
19.9
22.44
23.07
22.27
20.68
18.84
17.04
15.27
13.46
11.61
9.91
8.79
8.71
10.08
13.03
17.46
23.05
29.38
35.95
42.16
47.37
50.86
51.95
50.25
45.76
39.0
30.84
22.3
14.23
7.09
1.0
-4.19
-8.64
-12.44
-15.57
-17.94
-19.47
-20.09
-19.72
-18.27
-15.7
-12.18
-8.2
-4.54
-2.03
-1.23
-2.15
-4.22
-6.49
-8.03
-8.33
-7.31
-5.3
-2.73
-0.09
2.19
3.64
3.75
2.13
-1.28
-6.06
-11.41
-16.52
-20.83
-24.32
-27.36
-30.43
-33.71
-37.05
-39.98
-42.1
-43.34
-44.02
-44.78
-46.27
-48.85
-52.53
-56.9
-61.22
-64.59
-66.12
-65.04
-60.89
-53.66
-43.83
-32.28
-20.16
-8.6
1.49
9.5
15.13
18.36
19.3
18.29
15.85
12.64
9.35
6.5
4.25
2.33
0.19
-2.76
-6.87
-12.07
-17.97
-24.06
-30.01
-35.75
-41.51
-47.56
-54.05
-60.94
-67.87
-74.2
-79.07
-81.47
-80.5
-75.64
-67.0
-55.32
-41.88
-28.06
-15.08
-3.73
5.57
12.7
17.77
21.05
22.96
24.03
24.66
25.12
25.37
25.27
24.72
23.77
22.6
21.37
20.08
18.52
16.4
13.54
10.03
6.18
2.31
-1.39
-4.99
-8.55
-11.98
-14.83
-16.33
-15.73
-12.61
-7.19
-0.23
7.18
14.06
19.72
23.89
26.53
27.63
27.2
25.25
21.96
17.7
13.01
8.4
4.13
0.16
-3.78
-7.95
-12.37
-16.7
-20.4
-22.92
-24.13
-24.31
-24.14
-24.45
-25.82
-28.45
-31.97
-35.51
-37.96
-38.14
-35.17
-28.67
-18.98
-7.01
5.9
18.35
29.24
37.87
44.02
47.8
49.45
49.29
47.63
44.89
41.53
38.07
34.95
32.44
30.57
29.16
27.93
26.61
25.07
23.28
21.32
19.27
17.08
14.63
11.7
8.03
3.42
-2.26
-8.94
-16.29
-23.69
-30.15
-34.58
-35.94
-33.62
-27.67
-18.85
-8.42
2.13
11.53
18.92
23.96
26.68
27.33
26.25
23.79
20.41
16.72
13.43
11.2
10.43
11.12
12.81
14.84
16.51
17.35
17.29
16.52
15.42
14.3
13.26
12.13
10.64
8.47
5.42
1.47
-3.23
-8.31
-13.21
-17.16
-19.29
-18.82
-15.27
-8.72
0.16
10.17
20.0
28.49
34.92
39.04
40.92
40.88
39.3
36.64
33.4
30.1
27.18
24.96
23.49
22.61
21.98
21.14
19.66
17.24
13.79
9.5
4.8
0.2
-3.81
-7.04
-9.56
-11.79
-14.25
-17.38
-21.36
-25.95
-30.42
-33.73
-34.66
-32.26
-26.06
-16.38
-4.23
8.88
21.35
31.89
39.87
45.32
48.76
50.84
52.05
52.55
52.22
50.9
48.61
45.67
42.63
40.12
38.56
38.05
38.26
38.48
37.9
35.79
31.79
25.99
18.9
11.24
3.62
-3.64
-10.65
-17.7
-25.0
-32.35
-39.02
-43.93
-46.03
-44.71
-40.09
-33.03
-24.74
-16.45
-9.01
-2.88
1.74
4.74
5.97
5.4
3.24
0.08
-3.24
-5.86
-7.22
-7.21
-6.15
-4.57
-3.02
-1.87
-1.27
-1.18
-1.48
-1.95
-2.42
-2.75
-2.95
-3.11
-3.5
-4.4
-6.04
-8.43
-11.33
-14.21
-16.34
-16.97
-15.52
-11.73
-5.79
1.62
9.49
16.66
22.17
25.51
26.72
26.28
24.84
23.02
21.21
19.62
18.41
17.71
17.69
18.36
19.49
20.61
21.18
20.87
19.74
18.19
16.75
15.72
15.02
14.11
12.27
8.91
3.75
-3.04
-11.0
-19.47
-27.66
-34.71
-39.64
-41.61
-40.06
-35.05
-27.32
-18.16
-9.04
-1.17
4.71
8.46
10.27
10.52
9.61
7.95
5.94
4.01
2.55
1.81
1.85
2.5
3.5
4.51
5.19
5.22
4.37
2.57
-0.06
-3.16
-6.3
-9.1
-11.4
-13.31
-15.09
-17.07
-19.51
-22.52
-26.09
-29.93
-33.51
-36.0
-36.48
-34.22
-29.02
-21.46
-12.74
-4.34
2.48
7.01
9.23
9.57
8.62
6.89
4.72
2.33
-0.01
-2.0
-3.3
-3.68
-3.09
-1.73
0.03
1.81
3.28
4.25
4.68
4.58
3.99
2.93
1.44
-0.41
-2.54
-4.93
-7.52
-10.4
-13.58
-17.09
-20.91
-24.91
-28.83
-32.18
-34.25
-34.26
-31.63
-26.21
-18.51
-9.61
-0.83
6.58
11.86
14.73
15.42
14.43
12.47
10.25
8.45
7.57
7.79
8.9
10.41
11.78
12.57
12.77
12.61
12.51
12.74
13.29
13.76
13.49
11.71
7.83
1.75
-6.05
-14.49
-22.24
-28.23
-32.27
-35.34
-39.34
-46.31
-57.32
-71.68
-86.73
-98.58
-103.29
-98.2
-82.79
-58.56
-28.37
4.68
38.07
70.14
99.79
125.91
147.12
161.95
169.42
169.68
164.2
155.35
145.61
136.77
129.41
122.96
116.04
106.55
92.07
70.47
41.11
6.36
-27.75
-52.76
-60.83
-48.4
-18.51
19.8
54.78
76.19
78.2
59.93
24.22
-23.97
-78.1
-130.05
-170.58
-191.34
-187.97
-162.32
-122.32
-78.97
-42.12
-17.6
-6.78
-8.44
-20.98
-43.37
-74.36
-111.16
-148.86
-181.43
-203.81
-213.61
-211.58
-200.73
-184.71
-166.48
-147.96
-130.14
-113.68
-99.13
-86.86
-76.89
-68.84
-62.14
-56.25
-51.02
-46.52
-43.01
-40.64
-39.28
-38.46
-37.44
-35.21
-30.63
-22.62
-10.5
5.61
24.57
44.29
62.26
76.18
84.69
87.64
85.97
81.29
75.23
69.08
63.56
58.8
54.66
50.84
47.12
43.42
39.79
36.3
32.93
29.58
26.03
22.07
17.52
12.41
6.93
1.41
-3.83
-8.65
-13.04
-17.21
-21.49
-26.25
-31.78
-38.13
-44.92
-51.27
-55.85
-57.19
-54.14
-46.36
-34.5
-20.11
-5.22
8.26
19.02
26.56
31.21
33.84
35.52
37.13
39.22
41.91
45.06
48.48
51.94
55.19
57.79
59.15
58.62
55.88
51.1
44.95
38.33
31.95
26.07
20.56
15.25
10.19
5.8
2.64
0.99
0.56
0.37
-0.92
-4.51
-10.89
-19.53
-28.85
-36.69
-40.85
-39.82
-33.16
-21.66
-7.04
8.58
23.22
35.54
44.97
51.65
56.05
58.48
58.86
56.75
51.84
44.49
35.97
28.17
22.81
20.69
21.34
23.34
25.2
26.04
25.86
25.26
24.64
23.85
22.24
19.14
14.34
8.2
1.39
-5.38
-11.44
-16.02
-18.34
-17.85
-14.72
-9.95
-5.15
-1.74
-0.1
0.76
2.83
8.09
17.49
30.46
45.17
59.3
70.96
79.21
84.13
86.43
87.01
86.45
84.92
82.33
78.6
73.99
69.11
64.68
61.1
58.2
55.29
51.5
46.26
39.56
31.92
24.07
16.61
9.66
2.89
-4.4
-12.89
-22.96
-34.47
-46.72
-58.64
-69.14
-77.53
-83.65
-87.83
-90.57
-92.2
-92.82
-92.39
-91.03
-89.2
-87.51
-86.32
-85.35
-83.56
-79.49
-71.87
-60.31
-45.54
-29.18
-13.25
0.56
11.23
18.49
22.65
24.25
23.84
21.93
19.15
16.37
14.76
15.45
19.05
25.25
32.67
39.4
43.7
44.81
43.29
40.61
38.33
37.24
37.01
36.46
34.36
30.13
24.15
17.43
11.07
5.61
0.97
-3.34
-7.85
-12.81
-18.24
-24.1
-30.32
-36.69
-42.66
-47.11
-48.61
-45.9
-38.55
-27.25
-13.73
-0.16
11.57
20.31
25.85
28.6
29.28
28.58
27.1
25.39
23.92
23.09
23.01
23.49
24.13
24.7
25.29
26.46
28.9
33.06
38.68
44.77
49.91
52.84
52.98
50.66
46.9
42.96
39.91
38.32
38.22
39.19
40.4
40.65
38.55
32.71
22.36
7.92
-8.74
-24.57
-36.31
-41.68
-40.18
-33.18
-23.16
-12.57
-2.93
5.38
12.65
19.07
24.23
27.28
27.53
25.08
21.06
17.23
15.22
15.82
18.67
22.54
25.94
27.8
27.75
26.06
23.31
19.97
16.27
12.22
7.76
2.96
-2.0
-6.81
-11.23
-15.25
-19.11
-23.37
-28.75
-35.86
-44.95
-55.63
-66.81
-76.82
-83.87
-86.54
-84.21
-77.23
-66.78
-54.59
-42.45
-31.86
-23.78
-18.55
-15.93
-15.29
-15.81
-16.7
-17.36
-17.45
-16.83
-15.53
-13.59
-11.11
-8.24
-5.21
-2.33
0.03
1.62
2.4
2.51
2.23
1.81
1.41
0.96
0.31
-0.82
-2.62
-5.28
-8.92
-13.63
-19.42
-26.01
-32.65
-38.14
-41.0
-39.91
-34.26
-24.42
-11.74
1.88
14.54
24.9
32.33
36.85
38.78
38.49
36.35
32.75
28.29
23.74
19.95
17.57
16.84
17.51
18.89
20.11
20.45
19.51
17.38
14.45
11.27
8.25
5.5
2.86
-0.0
-3.47
-7.74
-12.85
-18.57
-24.48
-29.93
-34.06
-35.92
-34.65
-29.82
-21.66
-11.1
0.44
11.43
20.56
27.06
30.65
31.49
29.96
26.58
22.0
17.01
12.5
9.28
7.88
8.27
9.88
11.7
12.71
12.19
10.0
6.56
2.59
-1.21
-4.46
-7.19
-9.75
-12.68
-16.5
-21.55
-27.81
-34.73
-41.19
-45.72
-46.82
-43.51
-35.77
-24.63
-11.85
0.64
11.33
19.41
24.77
27.71
28.59
27.77
25.58
22.44
19.01
15.97
13.93
13.12
13.38
14.12
14.62
14.22
12.59
9.77
6.19
2.36
-1.29
-4.61
-7.8
-11.29
-15.61
-21.09
-27.77
-35.21
-42.5
-48.35
-51.35
-50.34
-44.8
-35.16
-22.66
-9.11
3.7
14.43
22.44
27.68
30.45
31.06
29.8
27.0
23.17
19.07
15.62
13.5
13.0
13.79
15.08
15.93
15.54
13.65
10.49
6.63
2.72
-0.8
-3.86
-6.7
-9.79
-13.6
-18.5
-24.66
-31.82
-39.31
-45.95
-50.27
-50.86
-46.89
-38.43
-26.54
-13.01
0.26
11.73
20.56
26.59
30.06
31.36
30.82
28.83
25.87
22.6
19.79
18.04
17.62
18.29
19.38
20.02
19.49
17.42
13.98
9.67
5.17
0.96
-2.81
-6.3
-9.88
-13.93
-18.74
-24.5
-31.12
-38.24
-44.99
-50.11
-52.11
-49.81
-42.81
-31.75
-18.2
-4.18
8.5
18.61
25.68
29.8
31.29
30.63
28.34
25.05
21.57
18.74
17.19
17.1
18.17
19.6
20.47
20.09
18.26
15.28
11.81
8.45
5.53
2.89
-0.02
-3.83
-9.03
-15.65
-23.16
-30.53
-36.33
-39.17
-37.97
-32.41
-23.03
-11.11
1.66
13.61
23.47
30.47
34.33
35.11
33.17
29.14
23.96
18.76
14.67
12.43
12.22
13.55
15.52
17.06
17.4
16.21
13.65
10.18
6.34
2.44
-1.44
-5.51
-10.11
-15.53
-21.87
-28.87
-35.8
-41.53
-44.66
-43.97
-38.79
-29.42
-17.1
-3.74
8.69
18.7
25.6
29.41
30.56
29.58
26.96
23.19
18.9
14.93
12.12
11.01
11.59
13.23
14.88
15.5
14.45
11.76
7.95
3.84
0.09
-3.0
-5.61
-8.18
-11.26
-15.31
-20.59
-26.92
-33.69
-39.74
-43.61
-43.87
-39.61
-30.91
-18.84
-5.26
7.84
18.94
27.28
32.85
36.04
37.31
36.93
35.11
32.13
28.55
25.16
22.73
21.74
22.13
23.35
24.5
24.73
23.48
20.66
16.61
11.9
7.13
2.71
-1.21
-4.75
-8.18
-11.85
-16.05
-21.01
-26.79
-33.2
-39.68
-45.19
-48.4
-47.99
-43.13
-33.9
-21.37
-7.37
6.07
17.24
25.19
29.69
31.12
30.16
27.55
24.01
20.24
16.87
14.41
13.2
13.25
14.25
15.61
16.66
16.8
15.69
13.38
10.14
6.43
2.62
-1.07
-4.62
-8.16
-11.89
-16.0
-20.74
-26.25
-32.53
-39.28
-45.7
-50.58
-52.55
-50.48
-44.0
-33.74
-21.19
-8.3
3.12
11.88
17.52
20.25
20.57
19.06
16.24
12.63
8.81
5.45
3.17
2.4
3.18
5.14
7.59
9.69
10.73
10.33
8.49
5.66
2.45
-0.53
-2.93
-4.78
-6.37
-8.16
-10.6
-13.97
-18.36
-23.57
-29.05
-33.85
-36.75
-36.47
-32.08
-23.36
-11.09
3.13
17.29
29.49
38.49
43.92
46.12
45.9
44.1
41.38
38.2
34.93
31.9
29.48
27.92
27.28
27.3
27.52
27.37
26.4
24.37
21.29
17.33
12.78
7.92
2.95
-1.92
-6.59
-10.95
-15.04
-19.09
-23.46
-28.62
-34.84
-41.87
-48.84
-54.29
-56.52
-54.21
-46.89
-35.18
-20.72
-5.64
8.04
18.87
26.19
30.11
31.17
30.16
27.93
25.22
22.7
20.89
20.07
20.23
21.08
22.2
23.1
23.47
23.11
22.01
20.19
17.69
14.55
10.83
6.65
2.22
-2.21
-6.41
-10.26
-13.77
-17.16
-20.78
-25.07
-30.25
-36.16
-42.02
-46.48
-48.01
-45.35
-38.06
-26.71
-12.81
1.68
14.9
25.48
32.82
36.92
38.23
37.4
35.14
32.12
28.95
26.15
24.09
22.93
22.6
22.83
23.19
23.26
22.72
21.43
19.44
16.86
13.77
10.17
6.0
1.3
-3.76
-8.84
-13.57
-17.76
-21.48
-25.17
-29.42
-34.72
-41.09
-47.9
-53.87
-57.37
-56.88
-51.55
-41.57
-28.2
-13.46
0.53
12.08
20.32
25.26
27.35
27.3
25.7
23.08
19.94
16.88
14.48
13.17
13.06
13.88
15.13
16.15
16.45
15.74
13.95
11.23
7.8
3.93
-0.11
-4.1
-7.88
-11.35
-14.56
-17.66
-20.92
-24.7
-29.38
-35.08
-41.51
-47.83
-52.69
-54.63
-52.49
-45.86
-35.34
-22.38
-8.9
3.3
12.87
19.23
22.35
22.65
20.75
17.32
13.12
8.99
5.74
3.98
3.95
5.4
7.63
9.77
10.99
10.85
9.3
6.67
3.46
0.14
-3.04
-6.04
-9.06
-12.39
-16.36
-21.24
-27.1
-33.62
-40.03
-45.15
-47.62
-46.33
-40.84
-31.6
-19.89
-7.41
4.21
13.81
20.82
25.16
27.0
26.57
24.12
20.08
15.09
10.08
6.01
3.64
3.24
4.46
6.48
8.23
8.81
7.78
5.21
1.58
-2.48
-6.47
-10.22
-13.8
-17.48
-21.59
-26.44
-32.17
-38.65
-45.27
-50.92
-54.12
-53.45
-48.09
-38.15
-24.82
-9.97
4.44
16.8
26.24
32.5
35.69
36.11
34.12
30.32
25.55
20.92
17.51
16.09
16.74
18.86
21.36
23.05
23.12
21.32
18.0
13.85
9.58
5.65
2.14
-1.26
-5.1
-9.94
-16.18
-23.76
-32.08
-39.92
-45.74
-48.01
-45.77
-38.99
-28.66
-16.5
-4.44
5.97
13.85
18.98
21.57
21.88
20.19
16.81
12.22
7.21
2.7
-0.55
-2.26
-2.73
-2.73
-3.18
-4.72
-7.53
-11.34
-15.58
-19.75
-23.6
-27.26
-31.14
-35.71
-41.3
-47.91
-55.16
-62.32
-68.39
-72.34
-73.24
-70.51
-64.04
-54.3
-42.2
-28.99
-16.03
-4.53
4.55
10.67
13.83
14.68
14.5
15.05
18.23
25.54
37.48
53.23
70.58
86.36
97.22
100.63
95.89
84.55
70.24
57.57
50.56
51.13
58.51
69.72
81.13
90.02
95.55
98.56
100.44
102.08
103.2
102.69
99.19
91.75
79.91
63.65
43.27
19.58
-5.78
-30.38
-51.39
-66.47
-74.58
-76.32
-73.49
-68.21
-62.1
-55.83
-49.25
-41.87
-33.56
-24.75
-16.26
-8.97
-3.44
0.32
2.6
3.58
2.97
0.05
-5.77
-14.23
-23.88
-32.39
-37.46
-37.87
-34.12
-28.23
-23.13
-21.32
-23.84
-30.15
-38.45
-46.47
-52.21
-54.33
-52.54
-47.96
-42.29
-37.33
-34.84
-36.12
-41.74
-51.37
-63.37
-75.48
-86.2
-94.32
-99.02
-100.64
-100.52
-100.54
-102.49
-106.79
-112.7
-119.72
-126.39
-130.32
-129.57
-123.01
-110.23
-91.45
-66.46
-35.53
-1.42
32.7
64.14
90.44
110.16
123.73
128.42
123.69
120.69
125.43
135.49
147.76
158.56
165.07
166.15
162.23
155.29
147.08
136.9
124.13
109.67
95.17
82.6
73.32
67.29
63.72
61.23
57.5
51.69
44.99
39.31
36.33
36.93
40.89
47.55
55.87
64.01
70.77
75.95
79.59
81.61
81.5
78.49
72.13
62.67
50.97
38.74
28.02
20.12
15.15
12.09
9.35
5.58
-0.03
-7.84
-17.87
-29.97
-44.08
-60.08
-77.7
-96.49
-115.88
-135.47
-154.96
-174.0
-191.8
-207.01
-217.95
-223.13
-221.88
-214.51
-202.04
-185.47
-165.2
-141.1
-113.08
-81.84
-49.3
-18.22
8.81
30.42
46.83
59.48
70.03
79.45
87.61
93.77
97.26
98.18
97.5
96.6
96.42
97.04
97.61
96.88
93.89
88.3
80.5
71.22
61.13
50.49
39.17
26.86
13.28
-1.47
-16.81
-31.53
-43.9
-51.93
-53.82
-48.53
-36.19
-18.14
3.36
25.79
46.89
64.84
78.28
86.27
88.24
84.12
74.57
60.93
44.99
28.52
12.82
-1.49
-14.52
-26.82
-39.03
-51.62
-64.76
-78.28
-91.91
-105.4
-118.62
-131.54
-144.12
-156.2
-167.32
-176.71
-183.36
-186.19
-184.41
-177.87
-167.29
-154.13
-139.95
-125.7
-111.12
-94.72
-74.57
-49.32
-19.2
13.82
46.66
76.33
100.88
119.76
133.44
142.65
147.94
149.67
148.3
144.72
140.2
136.03
132.9
130.76
128.85
126.31
122.62
117.87
112.57
107.32
102.4
97.69
92.76
87.2
80.83
73.83
66.59
59.56
53.02
46.96
41.12
35.12
28.55
21.05
12.32
2.25
-9.03
-20.89
-32.11
-41.05
-46.02
-45.96
-40.85
-31.83
-20.86
-10.01
-0.77
6.25
11.22
14.64
16.88
17.97
17.67
15.91
12.97
9.53
6.43
4.26
3.17
2.75
2.44
1.79
0.69
-0.64
-1.86
-2.82
-3.71
-4.96
-6.99
-10.04
-14.03
-18.61
-23.34
-27.83
-31.83
-35.28
-38.22
-40.83
-43.39
-46.25
-49.73
-53.93
-58.67
-63.34
-66.99
-68.46
-66.81
-61.57
-52.97
-41.97
-29.96
-18.41
-8.41
-0.56
5.05
8.61
10.38
10.62
9.71
8.2
6.83
6.3
7.05
9.03
11.69
14.25
15.98
16.49
15.85
14.4
12.63
10.93
9.42
8.02
6.44
4.33
1.45
-2.21
-6.34
-10.4
-13.78
-16.12
-17.4
-18.08
-18.84
-20.37
-23.1
-27.08
-31.96
-37.0
-41.22
-43.44
-42.6
-38.05
-29.84
-18.92
-6.88
4.47
13.67
20.0
23.49
24.65
24.15
22.52
20.15
17.38
14.65
12.47
11.24
11.07
11.71
12.61
13.2
13.1
12.25
10.83
9.15
7.37
5.48
3.3
0.58
-2.8
-6.74
-10.92
-14.85
-18.15
-20.69
-22.69
-24.63
-27.02
-30.1
-33.65
-36.93
-38.98
-38.81
-35.9
-30.3
-22.67
-14.1
-5.7
1.59
7.23
11.06
13.14
13.66
12.81
10.88
8.23
5.39
2.88
1.1
0.12
-0.28
-0.56
-1.14
-2.26
-3.94
-5.99
-8.18
-10.35
-12.41
-14.31
-16.0
-17.42
-18.56
-19.53
-20.54
-21.85
-23.66
-26.0
-28.76
-31.78
-34.93
-37.99
-40.64
-42.2
-41.88
-38.96
-33.26
-25.4
-16.72
-8.71
-2.38
2.15
5.64
9.22
13.74
19.29
25.3
30.91
35.47
38.87
41.43
43.68
45.96
48.32
50.5
52.17
53.14
53.43
53.29
52.98
52.65
52.25
51.57
50.36
48.55
46.23
43.57
40.7
37.59
33.95
29.47
23.9
17.33
10.18
3.19
-2.77
-6.94
-8.79
-8.24
-5.7
-2.03
1.7
4.43
5.48
4.67
2.33
-0.9
-4.37
-7.64
-10.52
-13.01
-15.14
-16.85
-18.02
-18.58
-18.66
-18.53
-18.59
-19.13
-20.21
-21.66
-23.21
-24.62
-25.89
-27.15
-28.58
-30.29
-32.18
-33.99
-35.44
-36.34
-36.8
-37.24
-38.21
-40.06
-42.68
-45.35
-46.86
-45.96
-41.86
-34.59
-25.06
-14.74
-5.14
2.64
8.11
11.4
12.94
13.24
12.66
11.45
9.79
7.94
6.2
4.9
4.21
4.11
4.33
4.53
4.34
3.57
2.14
0.12
-2.37
-5.25
-8.46
-11.95
-15.69
-19.63
-23.73
-28.02
-32.54
-37.34
-42.37
-47.38
-51.9
-55.25
-56.7
-55.76
-52.32
-46.82
-40.08
-33.06
-26.56
-21.05
-16.58
-12.94
-9.72
-6.43
-2.54
2.46
8.95
17.12
26.95
38.26
50.83
64.31
78.17
91.45
102.89
111.19
115.44
115.65
112.72
108.06
102.92
97.82
92.3
85.34
75.92
63.71
49.42
34.59
21.14
10.71
4.23
1.68
2.29
4.83
8.06
11.03
13.18
14.31
14.35
13.26
10.89
7.14
2.14
-3.66
-9.5
-14.54
-18.2
-20.34
-21.37
-22.01
-22.91
-24.42
-26.46
-28.69
-30.77
-32.59
-34.29
-36.18
-38.55
-41.5
-44.96
-48.78
-52.82
-57.0
-61.22
-65.17
-68.21
-69.48
-68.06
-63.42
-55.66
-45.58
-34.45
-23.68
-14.34
-7.04
-1.94
1.15
2.54
2.57
1.59
0.0
-1.74
-3.17
-3.96
-3.95
-3.27
-2.32
-1.63
-1.69
-2.85
-5.09
-8.09
-11.36
-14.41
-16.97
-19.05
-20.92
-22.98
-25.65
-29.12
-33.3
-37.68
-41.36
-43.22
-42.22
-37.75
-29.92
-19.58
-8.1
3.0
12.54
19.84
24.76
27.54
28.53
28.07
26.48
24.14
21.53
19.24
17.8
17.5
18.29
19.7
21.01
21.51
20.68
18.42
14.98
10.91
6.81
3.17
0.13
-2.44
-4.91
-7.76
-11.42
-16.01
-21.29
-26.54
-30.68
-32.54
-31.19
-26.22
-17.99
-7.5
3.87
14.67
23.76
30.47
34.62
36.34
35.98
33.96
30.77
26.98
23.21
20.1
18.14
17.49
17.97
19.02
19.91
19.99
18.93
16.71
13.68
10.29
6.9
3.72
0.68
-2.45
-5.98
-10.21
-15.3
-21.17
-27.4
-33.14
-37.22
-38.49
-36.12
-29.99
-20.79
-9.86
1.23
11.13
19.01
24.57
27.84
29.0
28.31
26.09
22.89
19.45
16.59
14.92
14.69
15.69
17.34
18.94
19.85
19.71
18.43
16.17
13.22
9.98
6.81
3.96
1.45
-0.94
-3.69
-7.33
-12.29
-18.59
-25.8
-32.99
-38.92
-42.31
-42.15
-37.99
-30.01
-19.1
-6.57
6.05
17.41
26.59
33.18
37.23
39.07
39.19
38.13
36.45
34.71
33.45
33.08
33.75
35.37
37.58
39.9
41.79
42.8
42.6
41.07
38.33
34.68
30.61
26.54
22.76
19.26
15.81
12.07
7.68
2.44
-3.71
-10.65
-17.98
-25.0
-30.71
-33.94
-33.65
-29.37
-21.46
-11.1
0.0
10.13
18.06
23.27
25.92
26.53
25.72
23.98
21.72
19.28
17.06
15.45
14.66
14.76
15.5
16.53
17.47
18.09
18.22
17.84
16.95
15.57
13.75
11.57
9.14
6.51
3.74
0.82
-2.26
-5.62
-9.42
-13.83
-18.86
-24.23
-29.19
-32.62
-33.36
-30.62
-24.33
-15.26
-4.78
5.53
14.31
20.71
24.43
25.65
24.89
22.79
20.04
17.25
14.85
13.11
12.11
11.83
12.15
12.88
13.8
14.6
14.94
14.54
13.22
11.01
8.04
4.57
0.86
-2.81
-6.29
-9.55
-12.67
-15.9
-19.59
-24.04
-29.41
-35.45
-41.47
-46.41
-49.05
-48.41
-44.09
-36.45
-26.51
-15.66
-5.31
3.41
9.83
13.7
15.12
14.44
12.18
8.98
5.53
2.47
0.35
-0.54
-0.14
1.32
3.35
5.39
6.85
7.42
7.02
5.89
4.41
2.93
1.62
0.36
-1.14
-3.3
-6.43
-10.66
-15.79
-21.32
-26.46
-30.23
-31.72
-30.29
-25.85
-18.82
-10.16
-1.04
7.38
14.2
18.92
21.38
21.73
20.35
17.78
14.62
11.52
9.0
7.41
6.89
7.35
8.5
9.89
11.02
11.42
10.76
9.0
6.33
3.16
-0.09
-3.18
-6.12
-9.11
-12.48
-16.56
-21.58
-27.5
-33.89
-39.86
-44.09
-45.25
-42.45
-35.81
-26.61
-17.0
-9.35
-5.44
-5.8
-9.68
-15.29
-20.51
-23.48
-23.08
-19.08
-12.02
-2.97
6.8
16.04
23.81
29.49
32.83
33.87
32.9
30.39
27.0
23.44
20.38
18.25
17.16
16.9
17.03
17.06
16.61
15.5
13.72
11.41
8.7
5.75
2.62
-0.63
-3.97
-7.38
-10.86
-14.52
-18.5
-22.94
-27.77
-32.5
-36.24
-37.83
-36.23
-30.98
-22.44
-11.77
-0.56
9.68
17.9
23.65
26.95
28.08
27.38
25.21
21.98
18.25
14.7
11.94
10.35
9.98
10.54
11.52
12.38
12.68
12.22
10.96
9.05
6.68
4.08
1.42
-1.2
-3.74
-6.29
-9.03
-12.24
-16.24
-21.21
-27.02
-33.09
-38.4
-41.64
-41.64
-37.79
-30.27
-20.13
-8.93
1.67
10.42
16.65
20.28
21.65
21.25
19.62
17.2
14.45
11.75
9.49
8.0
7.43
7.71
8.58
9.6
10.3
10.34
9.56
7.99
5.83
3.28
0.52
-2.36
-5.32
-8.36
-11.52
-14.9
-18.63
-22.86
-27.58
-32.5
-36.97
-39.99
-40.52
-37.79
-31.63
-22.63
-12.0
-1.24
8.35
15.92
21.18
24.3
25.68
25.75
24.9
23.51
21.93
20.52
19.51
19.07
19.2
19.82
20.8
21.95
23.05
23.83
24.01
23.36
21.8
19.38
16.3
12.77
8.96
4.9
0.49
-4.49
-10.2
-16.7
-23.68
-30.45
-35.94
-39.03
-38.76
-34.8
-27.54
-18.04
-7.76
1.87
9.77
15.39
18.61
19.63
18.77
16.39
12.93
8.95
5.1
2.06
0.36
0.18
1.3
3.09
4.77
5.62
5.21
3.53
0.89
-2.22
-5.34
-8.19
-10.79
-13.41
-16.53
-20.74
-26.48
-33.87
-42.44
-51.01
-57.9
-61.35
-60.09
-53.79
-43.25
-30.09
-16.27
-3.45
7.32
15.68
21.65
25.36
26.93
26.55
24.63
21.94
19.46
18.1
18.4
20.29
23.19
26.25
28.69
30.02
30.13
29.15
27.34
24.87
21.84
18.24
13.95
8.87
2.83
-4.29
-12.55
-21.84
-31.7
-41.25
-49.29
-54.47
-55.66
-52.39
-44.99
-34.59
-22.81
-11.33
-1.52
5.84
10.47
12.52
12.36
10.44
7.29
3.5
-0.31
-3.55
-5.73
-6.61
-6.21
-4.92
-3.3
-2.02
-1.63
-2.37
-4.1
-6.36
-8.64
-10.6
-12.29
-14.13
-16.69
-20.39
-25.29
-30.98
-36.7
-41.44
-44.19
-44.12
-40.69
-33.79
-23.77
-11.49
1.8
14.69
25.84
34.25
39.45
41.46
40.8
38.26
34.8
31.27
28.43
26.73
26.34
27.11
28.53
29.94
30.6
29.95
27.71
24.01
19.24
13.97
8.73
3.9
-0.4
-4.29
-8.11
-12.34
-17.45
-23.73
-30.96
-38.4
-44.8
-48.64
-48.68
-44.28
-35.71
-24.07
-10.97
1.87
13.04
21.67
27.44
30.43
31.01
29.62
26.79
23.08
19.15
15.63
13.07
11.74
11.51
11.94
12.38
12.26
11.24
9.34
6.93
4.6
2.95
2.41
3.06
4.46
5.85
6.22
4.7
0.85
-5.17
-12.51
-19.84
-25.54
-28.17
-26.71
-20.95
-11.56
-0.02
11.74
21.86
28.98
32.56
32.88
30.74
27.11
22.85
18.57
14.67
11.42
9.07
7.81
7.64
8.33
9.35
10.05
9.88
8.57
6.16
2.95
-0.69
-4.48
-8.26
-12.0
-15.63
-19.15
-22.62
-26.27
-30.46
-35.5
-41.37
-47.42
-52.37
-54.62
-52.74
-46.07
-34.99
-20.92
-5.85
8.21
19.73
28.04
33.18
35.74
36.45
35.99
34.87
33.45
32.07
31.05
30.65
30.97
31.88
32.99
33.82
33.94
33.08
31.19
28.39
24.89
20.92
16.76
12.6
8.62
4.86
1.21
-2.5
-6.45
-10.79
-15.51
-20.42
-25.08
-28.76
-30.54
-29.47
-24.89
-16.67
-5.47
7.42
20.38
31.91
40.91
46.88
49.79
50.0
48.07
44.67
40.45
35.99
31.64
27.52
23.58
19.72
15.86
12.01
8.13
4.11
-0.3
-5.41
-11.47
-18.53
-26.48
-35.08
-43.98
-52.85
-61.24
-68.67
-74.57
-78.45
-80.09
-79.71
-77.98
-75.65
-73.19
-70.38
-66.29
-59.67
-49.58
-35.94
-19.82
-3.09
12.14
24.24
32.44
36.85
38.14
37.21
34.9
31.93
28.92
26.32
24.48
23.48
23.19
23.27
23.31
22.91
21.8
19.8
16.83
12.9
8.11
2.65
-3.14
-8.88
-14.23
-19.01
-23.25
-27.2
-31.19
-35.53
-40.35
-45.52
-50.58
-54.78
-57.17
-56.83
-53.2
-46.35
-37.06
-26.64
-16.55
-7.94
-1.47
2.74
4.94
5.5
4.85
3.46
1.89
0.83
0.87
2.33
5.11
8.64
12.13
14.83
16.23
16.22
14.94
12.73
9.94
6.87
3.76
0.76
-2.1
-5.01
-8.32
-12.43
-17.52
-23.34
-29.09
-33.54
-35.42
-33.85
-28.63
-20.38
-10.26
0.33
10.16
18.4
24.67
28.93
31.31
31.98
31.11
28.98
26.05
22.96
20.42
18.98
18.84
19.72
20.97
21.85
21.8
20.66
18.69
16.37
14.17
12.33
10.76
9.13
7.03
4.14
0.28
-4.49
-9.87
-15.36
-20.15
-23.35
-24.12
-21.93
-16.84
-9.48
-0.86
7.9
15.88
22.5
27.45
30.6
31.82
31.14
28.77
25.23
21.29
17.8
15.4
14.31
14.29
14.8
15.25
15.27
14.85
14.25
13.81
13.77
14.16
14.78
15.25
15.15
14.01
11.45
7.23
1.46
