2013-02-20 19:19:20
64.0
-0.0
-0.0
-0.0
-0.0
-0.0
-0.0
-0.0
-0.0
-0.0
-0.0
0.0
0.01
0.01
-0.0
-0.03
-0.05
-0.05
0.0
0.13
0.36
0.66
1.01
1.37
1.72
2.06
2.4
2.79
3.24
3.8
4.42
5.06
5.66
6.2
6.68
7.15
7.68
8.31
9.14
10.09
11.04
11.88
12.56
13.14
13.76
14.65
15.96
17.91
20.32
22.9
25.38
27.58
29.57
31.68
34.32
37.81
42.54
48.15
54.1
59.83
64.97
69.58
74.14
79.34
85.71
93.76
103.0
112.62
121.73
129.77
136.75
143.3
150.75
157.77
166.64
177.95
191.79
206.97
220.57
228.25
225.36
208.53
176.87
132.76
80.05
23.07
-34.94
-92.44
-149.16
-205.23
-260.37
-313.74
-363.87
-409.83
-450.91
-486.51
-515.75
-537.23
-549.21
-549.94
-538.33
-514.17
-478.67
-433.95
-382.62
-327.3
-270.22
-213.06
-157.08
-103.35
-52.74
-6.28
35.15
70.91
100.72
124.79
143.63
157.95
168.44
175.67
179.98
181.63
180.88
178.07
173.61
167.98
161.6
154.73
147.47
139.83
131.81
123.5
115.1
106.89
99.1
91.82
84.95
78.21
71.33
64.18
56.88
49.75
43.21
37.57
32.88
28.83
24.93
20.69
15.88
10.66
5.5
0.99
-2.47
-4.82
-6.37
-7.62
-9.07
-11.07
-13.93
-17.84
-22.69
-27.64
-30.98
-30.49
-24.32
-12.13
4.33
21.61
35.81
44.3
46.58
44.19
39.56
34.66
30.35
26.64
23.42
21.05
20.28
21.65
24.87
28.72
31.58
32.18
30.06
25.64
19.78
13.21
6.2
-1.29
-9.34
-17.68
-25.46
-31.44
-34.38
-33.57
-29.25
-22.64
-15.47
-9.34
-5.23
-3.25
-2.85
-3.22
-3.66
-3.64
-2.84
-0.94
2.19
6.47
11.5
16.64
21.25
24.82
27.13
28.06
27.65
25.99
23.37
20.29
17.3
14.8
12.74
10.75
8.32
5.28
1.91
-1.08
-2.92
-3.09
-1.57
1.2
4.44
7.19
8.51
7.79
5.17
1.71
-0.71
0.21
6.14
17.13
31.21
44.85
54.21
56.67
51.97
41.65
28.59
15.59
4.28
-5.09
-13.24
-20.89
-28.17
-34.52
-39.28
-42.03
-42.98
-42.7
-41.77
-40.41
-38.6
-36.27
-33.55
-30.81
-28.41
-26.54
-25.13
-23.9
-22.44
-20.38
-17.43
-13.53
-8.92
-4.03
0.6
4.56
7.7
10.09
11.8
12.83
13.12
12.77
12.22
12.16
13.14
15.11
17.42
19.05
19.18
17.6
14.63
10.9
7.03
3.43
0.41
-1.76
-2.94
-3.21
-3.01
-2.91
-3.23
-3.66
-3.31
-1.09
3.58
10.32
17.72
23.81
26.71
25.03
18.43
7.8
-4.73
-16.04
-22.63
-21.56
-11.55
6.24
28.29
49.69
65.62
72.93
70.87
61.01
46.28
29.92
14.57
1.85
-7.67
-14.41
-19.59
-24.77
-31.42
-40.43
-51.86
-64.92
-78.27
-90.3
-99.5
-104.74
-105.35
-101.12
-92.35
-79.81
-64.88
-49.54
-35.99
-26.01
-20.2
-17.52
-15.59
-11.53
-3.25
9.7
26.0
43.26
59.05
71.67
80.39
85.08
85.98
83.5
78.35
71.76
65.35
60.56
57.9
56.48
54.17
48.54
38.18
23.63
7.37
-7.1
-16.77
-20.31
-18.38
-12.87
-5.79
1.74
9.54
17.8
26.33
34.3
40.62
44.65
46.61
47.42
47.97
48.51
48.42
46.59
42.2
35.36
27.16
19.16
12.64
7.9
4.21
0.21
-5.43
-13.48
-24.0
-36.43
-49.8
-63.06
-75.31
-85.94
-94.65
-101.29
-105.68
-107.47
-106.15
-101.23
-92.59
-80.71
-66.7
-52.17
-38.9
-28.4
-21.52
-18.27
-17.81
-18.65
-19.14
-18.04
-14.91
-10.2
-4.89
0.03
3.95
6.7
8.27
8.64
7.86
6.31
4.96
5.33
8.82
16.06
26.33
37.66
47.45
53.55
54.97
52.1
46.39
39.53
32.91
27.27
22.79
19.36
16.81
14.98
13.74
12.92
12.27
11.56
10.62
9.27
7.13
3.59
-2.05
-10.24
-20.71
-32.15
-42.44
-49.31
-51.27
-48.32
-42.11
-35.39
-30.92
-30.4
-34.02
-40.64
-48.6
-56.46
-63.35
-68.85
-72.64
-74.11
-72.53
-67.38
-58.8
-47.76
-35.86
-24.76
-15.62
-8.79
-3.89
-0.26
2.58
4.68
5.69
5.19
3.11
-0.09
-3.48
-6.08
-7.13
-6.3
-3.64
0.59
6.13
12.64
19.68
26.59
32.7
37.48
40.65
42.17
42.14
40.75
38.33
35.45
32.9
31.5
31.83
34.07
38.07
43.56
50.39
58.6
68.22
79.03
90.45
101.64
111.7
119.9
125.74
128.82
128.78
125.3
118.36
108.46
96.76
84.93
74.61
66.9
61.95
58.91
56.26
52.23
45.23
34.01
17.81
-3.62
-29.69
-58.84
-88.55
-115.81
-137.91
-153.15
-161.27
-163.18
-160.48
-154.89
-147.81
-140.17
-132.27
-123.8
-114.01
-102.13
-88.0
-72.55
-57.65
-45.53
-37.79
-34.64
-34.86
-36.33
-37.04
-35.83
-32.59
-27.86
-22.22
-15.89
-8.77
-0.78
7.83
16.46
24.38
31.25
37.28
43.09
49.22
55.66
61.62
65.91
67.62
66.64
63.75
60.15
56.82
54.25
52.53
51.78
52.44
55.09
60.0
66.71
73.9
79.84
83.02
82.68
78.75
71.6
61.56
48.81
33.6
16.56
-1.17
-18.25
-33.56
-46.6
-57.47
-66.64
-74.43
-80.72
-84.95
-86.38
-84.5
-79.3
-71.29
-61.33
-50.34
-39.14
-28.37
-18.57
-10.14
-3.41
1.51
4.81
7.02
8.9
11.19
14.38
18.41
22.74
26.56
29.01
29.44
27.43
22.84
15.89
7.26
-1.84
-9.73
-14.75
-15.73
-12.49
-5.98
2.11
9.93
16.09
19.92
21.5
21.3
19.94
17.92
15.58
13.17
10.82
8.68
6.93
5.81
5.56
6.3
7.93
10.18
12.64
14.95
16.9
18.39
19.32
19.5
18.56
16.14
12.09
6.82
1.45
-2.4
-3.19
-0.24
5.77
12.77
18.03
19.13
14.82
5.33
-7.93
-22.93
-37.69
-50.6
-60.49
-66.67
-69.07
-68.24
-65.25
-61.31
-57.22
-52.94
-47.67
-40.32
-30.17
-17.33
-2.86
11.59
24.16
33.21
37.53
36.47
30.14
19.51
6.38
-6.82
-17.54
-23.75
-24.45
-19.87
-11.37
-0.96
9.13
17.01
21.37
21.64
18.0
11.3
2.8
-6.02
-13.79
-19.45
-22.36
-22.42
-19.99
-15.76
-10.51
-4.96
0.28
4.72
8.03
10.14
11.25
11.74
11.96
11.96
11.45
10.07
7.85
5.57
4.73
6.93
12.97
22.01
31.52
38.04
38.52
31.57
17.92
-0.04
-19.19
-36.77
-50.92
-60.81
-66.37
-68.01
-66.48
-62.81
-58.2
-53.73
-50.02
-47.11
-44.54
-41.76
-38.46
-34.75
-31.05
-27.72
-24.82
-22.09
-19.05
-15.28
-10.6
-5.1
0.99
7.54
14.62
22.43
31.06
40.19
48.86
55.64
59.05
58.16
53.06
44.89
35.61
27.35
21.89
20.27
22.62
28.23
35.71
43.41
49.92
54.53
57.39
59.34
61.3
63.7
66.09
67.24
65.78
60.91
52.94
43.23
33.53
25.2
18.47
12.42
5.29
-4.69
-18.54
-36.07
-55.9
-75.81
-93.44
-106.63
-113.81
-114.07
-107.31
-94.35
-76.95
-57.52
-38.58
-22.18
-9.39
-0.15
6.46
11.76
16.92
22.66
29.13
36.08
43.15
49.98
56.32
61.85
66.15
68.63
68.75
66.32
61.7
55.69
49.22
42.9
36.81
30.58
23.73
16.13
8.12
0.4
-6.38
-11.91
-16.33
-19.95
-22.94
-24.99
-25.49
-23.73
-19.34
-12.53
-4.15
4.7
12.97
20.02
25.74
30.39
34.41
38.11
41.54
44.53
46.67
47.51
46.66
43.92
39.37
33.4
26.6
19.53
12.47
5.2
-2.91
-12.58
-24.22
-37.57
-51.73
-65.44
-77.46
-86.84
-93.05
-95.85
-95.14
-90.99
-83.75
-74.16
-63.32
-52.49
-42.81
-35.0
-29.26
-25.34
-22.66
-20.55
-18.38
-15.65
-11.97
-6.96
-0.23
8.51
19.18
31.05
42.75
52.66
59.57
63.16
64.13
63.79
63.3
63.15
63.0
62.02
59.41
54.76
48.06
39.65
29.98
19.55
9.01
-0.91
-9.49
-16.27
-21.27
-24.83
-27.29
-28.64
-28.33
-25.46
-19.22
-9.35
3.53
18.07
32.38
44.43
52.34
54.72
50.93
41.33
27.4
11.59
-3.21
-14.47
-20.81
-22.49
-21.24
-19.58
-19.93
-23.81
-31.44
-41.91
-53.54
-64.41
-72.7
-77.0
-76.5
-71.15
-61.69
-49.58
-36.63
-24.58
-14.6
-7.08
-1.74
2.11
5.06
7.46
9.37
10.69
11.43
11.64
11.41
10.74
9.43
7.16
3.64
-1.14
-6.89
-13.03
-18.85
-23.72
-27.23
-29.28
-30.02
-29.9
-29.58
-29.87
-31.44
-34.54
-38.58
-42.02
-42.58
-37.95
-26.65
-8.74
14.03
38.73
62.09
81.48
95.5
104.16
108.66
110.92
112.88
115.81
119.71
123.12
123.52
118.39
106.32
87.8
65.05
41.0
18.01
-3.04
-22.55
-41.37
-59.75
-76.99
-91.75
-102.93
-110.13
-113.68
-114.13
-111.74
-106.32
-97.54
-85.49
-71.03
-55.77
-41.56
-29.87
-21.3
-15.47
-11.18
-6.85
-1.04
7.11
17.59
29.47
41.33
51.83
60.17
66.33
70.81
74.26
77.1
79.39
80.96
81.57
81.22
80.09
78.43
76.32
73.49
69.4
63.41
55.07
44.28
31.32
16.77
1.35
-14.07
-28.59
-41.4
-52.0
-60.28
-66.48
-71.13
-74.68
-77.41
-79.22
-79.7
-78.3
-74.68
-68.78
-60.98
-51.87
-42.09
-32.01
-21.68
-11.04
-0.27
9.85
17.94
22.26
21.35
14.51
2.0
-15.07
-35.12
-56.29
-76.54
-93.74
-105.86
-111.33
-109.51
-101.06
-87.84
-72.52
-57.83
-45.82
-37.45
-32.47
-29.68
-27.44
-24.26
-19.24
-12.24
-3.67
5.83
15.73
25.7
35.49
44.76
52.99
59.69
64.65
68.13
70.82
73.44
76.3
79.0
80.7
80.48
77.74
72.25
63.87
52.36
37.57
20.0
1.19
-16.27
-29.53
-36.56
-37.06
-32.62
-25.98
-19.81
-15.67
-13.7
-13.1
-12.88
-12.46
-11.74
-10.73
-9.27
-6.97
-3.48
1.04
5.73
9.06
9.22
4.87
-4.41
-17.8
-33.5
-49.17
-62.61
-72.05
-76.42
-75.34
-68.96
-57.97
-43.65
-27.76
-12.31
0.83
10.44
16.26
18.96
19.86
20.47
22.05
25.36
30.64
37.61
45.56
53.51
60.33
65.05
66.98
65.82
61.73
55.22
47.08
38.16
29.28
21.01
13.65
7.12
1.29
-3.9
-8.2
-11.09
-11.99
-10.52
-6.8
-1.49
4.31
9.44
13.03
14.89
15.59
16.42
18.87
24.15
32.64
43.66
55.54
66.06
73.14
75.5
73.03
66.81
58.72
50.88
45.04
42.13
42.03
43.64
45.12
44.44
39.98
31.04
18.09
2.5
-13.92
-29.52
-43.14
-54.2
-62.49
-67.97
-70.81
-71.52
-71.16
-71.15
-72.86
-77.14
-83.93
-92.34
-100.94
-108.27
-113.25
-115.37
-114.69
-111.73
-107.14
-101.4
-94.63
-86.46
-76.19
-63.02
-46.5
-26.76
-4.69
18.26
40.4
60.08
75.94
87.0
92.73
93.22
89.33
82.62
75.06
68.52
64.27
62.58
62.85
63.99
65.1
65.76
66.09
66.39
66.82
67.31
67.68
67.87
67.98
68.15
68.39
68.55
68.48
68.31
68.6
70.06
73.14
77.51
81.88
84.18
82.12
73.88
58.54
36.41
8.92
-21.63
-52.39
-80.43
-103.19
-118.82
-126.61
-127.25
-122.7
-115.88
-109.92
-107.29
-109.17
-115.2
-123.84
-133.05
-141.02
-146.66
-149.59
-149.94
-147.93
-143.67
-137.24
-128.67
-118.03
-105.3
-90.21
-72.21
-50.72
-25.55
2.6
31.93
59.76
83.14
99.61
107.88
108.08
101.56
90.46
77.13
63.7
51.87
42.66
36.44
33.04
31.93
32.42
33.82
35.58
37.28
38.69
39.77
40.6
41.47
42.66
44.33
46.4
48.44
49.84
50.13
49.23
47.6
45.93
44.65
43.43
41.06
35.73
25.81
10.58
-9.4
-32.45
-56.34
-78.93
-98.55
-114.0
-124.56
-129.87
-130.07
-125.98
-119.04
-110.99
-103.33
-96.9
-91.78
-87.59
-83.81
-80.06
-76.14
-71.85
-66.81
-60.47
-52.28
-41.96
-29.61
-15.67
-0.8
14.44
29.68
44.65
58.92
71.67
81.74
87.85
89.08
85.28
77.33
67.05
56.69
48.2
42.67
40.11
39.8
40.83
42.68
45.38
49.35
55.12
63.02
73.03
84.72
97.33
109.82
120.94
129.41
134.13
134.48
130.57
123.17
113.22
101.43
87.82
71.85
52.97
31.35
8.3
-13.96
-33.19
-48.18
-59.36
-68.41
-77.16
-86.18
-94.24
-98.81
-97.41
-89.13
-75.18
-58.48
-42.36
-29.26
-20.08
-14.23
-10.4
-7.26
-4.0
-0.39
3.44
7.18
10.48
13.0
14.36
14.26
12.52
9.26
4.93
0.24
-4.02
-7.18
-8.87
-9.07
-8.01
-6.05
-3.53
-0.61
2.86
7.4
13.78
22.67
34.1
47.24
60.47
71.92
80.09
84.46
85.42
83.93
80.85
76.56
70.99
63.97
55.62
46.46
37.19
28.3
19.96
12.06
4.48
-2.78
-9.76
-16.72
-24.28
-33.2
-44.0
-56.44
-69.54
-81.79
-91.81
-98.7
-102.13
-102.13
-98.93
-92.95
-85.07
-76.7
-69.58
-65.1
-63.62
-64.14
-64.68
-63.16
-58.35
-50.45
-40.9
-31.73
-24.75
-20.94
-20.28
-21.95
-24.58
-26.63
-26.69
-23.81
-17.77
-9.15
0.81
10.64
19.03
25.12
28.58
29.54
28.52
26.37
24.09
22.62
22.52
23.8
26.1
29.03
32.58
37.08
42.83
49.55
56.12
60.87
62.29
59.73
53.74
45.78
37.69
30.95
26.28
23.47
21.53
18.91
13.91
5.1
-8.22
-25.77
-46.31
-68.03
-88.94
-107.15
-121.02
-129.11
-130.36
-124.34
-111.66
-94.07
-74.11
-54.37
-36.74
-21.86
-9.18
2.57
14.62
27.56
41.06
53.95
64.65
71.72
74.33
72.52
67.1
59.36
50.64
41.89
33.59
25.86
18.75
12.46
7.29
3.44
0.94
-0.2
0.24
2.78
7.89
15.38
24.03
31.72
36.26
36.47
32.92
27.68
23.36
21.66
22.57
24.55
25.61
24.65
22.06
19.48
18.74
20.94
25.92
32.63
39.87
46.89
53.6
60.13
66.24
70.83
72.05
67.8
56.46
37.52
11.91
-18.16
-49.66
-79.43
-104.83
-124.12
-136.6
-142.33
-141.82
-135.8
-125.15
-111.0
-94.79
-78.06
-62.14
-47.78
-35.07
-23.69
-13.37
-4.06
4.04
10.93
17.0
22.94
29.31
36.09
42.52
47.42
49.83
49.51
47.06
43.57
40.11
37.27
35.05
33.0
30.53
27.24
23.14
18.64
14.41
11.1
9.01
8.01
7.61
7.18
6.34
5.13
4.02
3.66
4.57
6.78
9.83
13.15
16.54
20.57
26.5
35.58
48.21
63.24
78.05
89.37
94.52
92.34
83.46
69.56
52.47
33.4
12.81
-9.06
-31.58
-53.5
-73.18
-89.18
-100.74
-107.82
-110.84
-110.28
-106.47
-99.62
-90.13
-78.67
-66.1
-53.17
-40.38
-27.84
-15.58
-3.74
7.28
16.87
24.47
29.58
31.92
31.33
27.87
21.95
14.45
6.64
-0.16
-4.88
-7.07
-6.98
-5.3
-2.91
-0.66
0.88
1.49
1.35
1.05
1.42
3.31
7.31
13.43
21.02
28.88
35.6
39.99
41.44
40.37
38.17
36.75
37.79
42.13
49.38
58.17
66.59
72.77
75.52
74.57
70.42
64.11
57.11
51.0
47.22
46.44
48.1
50.8
52.92
53.24
51.39
47.99
44.33
41.83
41.38
42.5
44.77
48.11
52.67
58.26
64.28
69.89
74.37
76.96
75.47
68.58
55.93
38.09
16.35
-7.23
-30.0
-49.7
-66.45
-85.07
-110.32
-144.86
-188.5
-239.24
-294.88
-353.95
-415.02
-476.84
-538.17
-592.13
-627.41
-632.97
-603.55
-541.96
-457.18
-359.37
-239.01
-100.73
39.52
162.22
255.21
316.53
350.36
363.32
369.15
374.05
378.24
381.55
383.77
383.91
379.77
369.15
344.82
306.54
257.36
201.21
144.23
92.79
51.5
21.85
2.33
-10.15
-18.16
-25.27
-35.72
-51.83
-73.3
-97.67
-121.27
-140.3
-151.56
-152.39
-142.81
-125.52
-104.44
-83.83
-67.42
-57.81
-55.99
-61.19
-70.89
-82.47
-93.75
-102.96
-108.68
-109.82
-105.69
-96.36
-82.72
-66.08
-48.2
-30.54
-13.85
1.99
17.62
33.72
50.53
67.51
83.54
97.11
106.88
112.11
112.98
110.45
105.95
100.88
96.3
92.65
89.87
87.49
84.93
81.73
77.77
73.28
68.74
64.66
61.4
59.1
57.73
57.29
57.89
59.66
62.68
66.73
71.32
75.71
79.05
80.41
78.72
72.9
62.26
46.91
28.06
7.91
-10.93
-26.18
-36.41
-41.41
-42.04
-40.03
-37.45
-36.31
-38.0
-43.08
-51.28
-61.93
-74.41
-88.47
-104.09
-120.99
-138.12
-153.59
-165.13
-170.91
-170.14
-163.22
-151.3
-135.71
-117.56
-97.65
-76.57
-54.9
-33.2
-11.99
8.31
27.37
44.87
60.52
74.1
85.59
95.28
103.74
111.74
119.94
128.65
137.59
145.92
152.4
155.94
156.06
153.12
148.28
142.99
138.49
135.37
133.47
132.01
129.84
125.69
118.27
106.41
89.04
65.5
35.88
1.46
-35.27
-70.98
-102.35
-127.02
-144.26
-154.91
-160.93
-164.58
-167.62
-171.02
-174.79
-178.27
-180.39
-179.87
-175.48
-166.44
-152.71
-135.18
-115.58
-96.08
-78.62
-64.44
-53.83
-46.27
-40.69
-35.84
-30.58
-24.1
-16.02
-6.48
3.77
13.63
21.86
27.67
31.1
33.2
35.59
39.84
46.79
56.25
67.16
78.11
87.87
95.64
100.98
103.65
103.53
100.63
95.25
87.98
79.65
71.11
63.08
56.15
50.79
47.44
46.43
47.92
51.61
56.57
61.24
63.77
62.55
56.66
46.14
31.93
15.48
-1.71
-18.52
-34.26
-48.63
-61.36
-72.1
-80.38
-85.91
-88.87
-90.03
-90.58
-91.88
-94.98
-100.38
-107.84
-116.32
-124.22
-129.59
-130.55
-125.73
-114.73
-98.38
-78.58
-57.93
-38.95
-23.45
-12.16
-4.72
-0.08
3.06
5.77
8.8
12.45
16.71
21.35
26.04
30.52
34.66
38.57
42.49
46.69
51.25
55.99
60.41
63.82
65.53
65.1
62.56
58.52
54.09
50.63
49.33
50.79
54.95
61.15
68.45
75.94
82.99
89.18
94.26
97.9
99.63
98.82
94.75
86.76
74.55
58.44
39.66
20.23
2.52
-11.56
-21.27
-27.31
-31.49
-36.03
-42.74
-52.49
-65.11
-79.52
-94.06
-106.73
-115.53
-118.72
-115.27
-105.26
-90.02
-71.93
-53.74
-37.83
-25.47
-16.6
-10.16
-4.62
1.27
7.94
14.97
21.36
26.06
28.38
28.1
25.36
20.42
13.68
5.74
-2.35
-9.22
-13.49
-14.38
-11.99
-7.33
-1.87
3.03
6.56
8.56
9.44
9.85
10.51
11.95
14.45
17.95
22.22
27.08
32.72
39.62
48.12
57.84
67.21
73.63
74.32
67.51
53.31
33.97
13.28
-4.63
-16.54
-20.98
-18.57
-11.73
-3.88
1.47
1.74
-4.05
-15.14
-29.39
-44.03
-56.43
-64.64
-67.51
-64.77
-56.87
-44.97
-30.8
-16.29
-3.15
7.61
15.95
22.62
28.74
35.07
41.59
47.48
51.52
52.66
50.45
45.2
37.74
29.25
20.98
14.16
9.89
9.01
11.88
18.19
26.88
36.2
44.03
48.41
47.98
42.48
32.83
21.04
9.73
1.52
-1.56
1.35
9.7
21.48
33.41
41.69
42.81
34.75
17.8
-5.23
-29.83
-51.15
-65.57
-71.63
-69.95
-62.3
-50.52
-35.82
-18.78
0.12
19.99
39.33
56.28
69.15
76.85
79.13
76.53
70.18
61.49
51.9
42.61
34.31
26.88
19.27
9.63
-4.08
-23.12
-47.16
-73.8
-98.93
-117.77
-126.44
-123.49
-110.81
-93.51
-78.54
-72.55
-79.81
-100.7
-131.65
-166.18
-196.9
-217.54
-224.39
-216.75
-196.51
-167.11
-132.58
-96.86
-63.44
-35.12
-13.72
0.29
7.91
11.35
13.35
16.25
21.29
28.45
36.83
45.26
52.79
58.88
63.24
65.72
66.23
64.74
61.42
56.54
50.38
43.13
35.0
26.36
17.84
10.16
3.81
-1.22
-5.55
-10.12
-15.72
-22.5
-29.82
-36.34
-40.46
-40.75
-36.45
-27.63
-15.24
-0.81
13.83
26.99
37.57
45.16
50.17
53.56
56.51
60.05
64.78
70.75
77.56
84.55
90.9
95.77
98.3
97.69
93.35
85.04
73.04
58.19
41.75
25.28
10.34
-1.79
-10.36
-15.27
-16.99
-16.48
-14.9
-13.41
-12.87
-13.72
-15.86
-18.88
-22.19
-25.23
-27.45
-28.35
-27.5
-24.65
-19.87
-13.53
-6.24
1.33
8.55
14.88
19.9
23.29
24.91
24.93
23.92
22.68
21.82
21.35
20.55
18.07
12.5
2.91
-10.68
-27.34
-45.41
-62.96
-78.1
-89.39
-95.98
-97.69
-94.94
-88.67
-80.06
-70.21
-59.84
-49.08
-37.58
-24.79
-10.3
5.86
23.17
40.75
57.57
72.56
84.71
93.07
96.93
95.93
90.35
81.18
69.96
58.46
48.18
39.98
33.91
29.29
25.02
19.97
13.46
5.48
-3.23
-11.4
-17.66
-20.98
-20.99
-18.03
-12.93
-6.61
0.24
7.38
14.84
22.6
30.35
37.31
42.49
45.02
44.55
41.32
36.07
29.66
22.83
16.09
9.82
4.46
0.44
-1.95
-2.9
-3.25
-4.31
-7.45
-13.72
-23.5
-36.5
-51.88
-68.36
-84.38
-98.17
-108.06
-112.77
-111.73
-105.34
-94.78
-81.73
-67.86
-54.48
-42.41
-32.03
-23.41
-16.39
-10.63
-5.6
-0.6
4.97
11.44
18.7
26.22
33.22
39.03
43.34
46.28
48.38
50.26
52.34
54.68
56.94
58.53
58.89
57.64
54.76
50.58
45.66
40.57
35.77
31.47
27.8
24.88
22.92
22.14
22.68
24.47
27.22
30.46
33.65
36.2
37.64
37.63
36.18
33.69
31.01
29.23
29.44
32.26
37.49
44.1
50.34
54.32
54.42
49.68
39.76
24.72
4.79
-19.68
-48.04
-78.98
-110.21
-138.79
-161.58
-176.1
-181.07
-176.56
-163.67
-144.11
-119.92
-93.41
-67.11
-43.54
-24.73
-11.68
-4.2
-1.21
-1.33
-3.44
-6.78
-10.71
-14.45
-16.89
-16.98
-14.2
-8.83
-1.86
5.53
12.45
18.59
24.2
29.64
35.14
40.57
45.56
49.58
52.17
53.09
52.4
50.47
47.89
45.25
42.98
41.24
40.1
39.74
40.51
42.88
47.15
53.22
60.47
67.82
73.87
77.14
76.32
70.55
59.8
44.97
27.92
11.18
-2.69
-11.82
-15.75
-15.62
-13.92
-13.68
-17.47
-26.59
-40.72
-58.17
-76.44
-93.03
-106.02
-114.32
-117.65
-116.26
-110.78
-102.17
-91.68
-80.74
-70.68
-62.41
-56.1
-51.21
-46.68
-41.38
-34.47
-25.63
-15.15
-3.72
7.88
19.05
29.54
39.4
48.81
57.85
66.34
73.87
79.83
83.62
84.81
83.24
78.99
72.37
63.89
54.23
44.28
35.05
27.54
22.45
20.01
19.97
21.67
24.13
26.24
26.94
25.44
21.49
15.49
8.39
1.34
-4.65
-8.97
-11.52
-12.54
-12.41
-11.56
-10.45
-9.72
-10.18
-12.73
-18.06
-26.43
-37.49
-50.48
-64.56
-78.99
-93.24
-106.71
-118.51
-127.3
-131.54
-130.06
-122.54
-109.78
-93.33
-74.88
-55.68
-36.27
-16.82
2.39
20.6
36.75
49.97
60.12
67.93
74.65
81.35
88.34
95.02
100.17
102.61
101.75
97.87
91.98
85.36
79.09
73.66
68.99
64.59
59.99
54.98
49.73
44.69
40.34
36.98
34.67
33.35
32.94
33.42
34.77
36.83
39.17
41.12
41.99
41.34
39.27
36.37
33.44
31.15
29.59
28.32
26.58
23.82
20.13
16.41
13.99
14.03
16.84
21.67
26.92
30.8
31.99
29.95
24.78
16.9
6.75
-5.19
-18.21
-31.24
-42.96
-52.26
-58.61
-62.38
-64.56
-66.35
-68.57
-71.28
-73.86
-75.32
-74.82
-72.07
-67.51
-62.08
-56.86
-52.55
-49.27
-46.53
-43.48
-39.3
-33.51
-26.04
-17.22
-7.57
2.26
11.63
20.05
27.14
32.81
37.11
40.18
42.15
43.07
42.93
41.64
39.01
34.8
28.76
20.75
10.92
-0.24
-11.84
-22.83
-32.18
-39.13
-43.44
-45.48
-46.2
-46.83
-48.47
-51.7
-56.33
-61.53
-66.09
-68.81
-68.88
-65.98
-60.36
-52.79
-44.31
-36.02
-28.64
-22.28
-16.44
-10.37
-3.53
3.98
11.37
17.53
21.44
22.61
21.14
17.55
12.54
6.8
0.9
-4.78
-10.02
-14.88
-19.68
-24.98
-31.46
-39.74
-50.18
-62.63
-76.41
-90.33
-102.8
-112.12
-116.73
-115.49
-107.87
-94.19
-75.53
-53.61
-30.4
-7.7
13.15
31.4
46.69
58.95
68.19
74.47
77.96
78.93
77.7
74.56
69.73
63.55
56.5
49.28
42.77
37.89
35.47
36.05
39.73
46.04
54.01
62.3
69.58
74.9
77.94
78.98
78.68
77.68
76.36
74.85
73.15
71.3
69.56
68.21
67.34
66.73
65.72
63.35
58.66
51.0
40.31
27.07
12.24
-2.98
-17.38
-29.84
-39.57
-46.25
-50.23
-52.41
-54.08
-56.39
-59.96
-64.73
-70.05
-74.96
-78.49
-79.84
-78.48
-74.09
-66.67
-56.46
-43.9
-29.62
-14.27
1.4
16.54
30.16
41.35
49.38
53.97
55.34
54.13
51.05
46.65
41.17
34.6
26.99
18.61
10.09
2.29
-3.95
-7.99
-9.46
-8.15
-4.05
2.57
10.99
20.05
28.29
34.42
37.64
37.92
35.84
32.23
27.8
23.08
18.49
14.53
11.79
10.71
11.33
13.07
14.85
15.46
13.87
9.51
2.29
-7.51
-19.29
-32.28
-45.54
-58.05
-68.92
-77.55
-83.76
-87.85
-90.36
-91.85
-92.54
-92.08
-89.6
-84.04
-74.6
-61.22
-44.7
-26.6
-8.71
7.45
21.08
32.16
41.28
49.2
56.53
63.4
69.65
74.87
78.59
80.32
79.58
75.91
69.17
59.87
49.27
39.13
30.96
25.25
21.17
16.97
11.2
3.7
-3.98
-9.34
-10.4
-6.9
-0.67
5.32
8.41
7.45
3.04
-3.2
-9.58
-15.12
-19.63
-23.18
-25.56
-26.11
-23.86
-18.15
-9.2
1.67
12.34
20.37
23.93
22.32
16.18
7.13
-2.93
-12.43
-20.58
-27.28
-32.68
-36.83
-39.51
-40.39
-39.35
-36.62
-32.86
-28.91
-25.55
-23.34
-22.56
-23.22
-25.09
-27.65
-30.13
-31.7
-31.6
-29.5
-25.57
-20.51
-15.24
-10.66
-7.29
-5.21
-4.06
-3.23
-2.03
0.14
3.68
8.78
15.3
22.76
30.31
36.85
41.24
42.7
41.12
37.18
32.16
27.63
24.82
24.38
26.21
29.58
33.36
36.38
37.68
36.78
33.82
29.49
24.75
20.42
16.92
14.21
12.0
10.16
8.96
9.08
11.34
16.19
23.31
31.51
38.91
43.52
43.76
39.08
30.02
18.07
5.15
-6.91
-16.78
-23.78
-27.7
-28.55
-26.33
-21.01
-12.59
-1.19
12.85
28.76
45.35
60.95
73.73
82.33
86.47
87.39
87.49
89.4
94.75
103.48
113.85
123.33
129.96
133.32
134.7
136.49
141.08
149.75
162.08
175.98
188.1
194.75
192.92
181.08
159.55
130.26
96.07
59.96
24.29
-9.56
-41.1
-70.5
-98.26
-125.05
-151.59
-178.78
-207.68
-239.48
-275.58
-317.63
-367.22
-425.02
-489.36
-555.45
-615.49
-660.47
-683.0
-679.9
-653.16
-608.97
-555.04
-497.78
-440.76
-384.84
-329.69
-275.17
-221.78
-170.08
-119.81
-69.75
-18.62
33.67
85.24
132.51
171.5
199.45
215.96
223.1
224.46
223.88
224.2
226.75
231.37
236.88
241.75
244.6
244.68
242.0
237.19
231.14
224.55
217.55
209.74
200.5
189.31
176.06
161.28
145.96
131.33
118.49
107.99
99.74
92.89
86.2
78.5
69.16
58.42
47.3
37.22
29.42
24.52
22.42
22.45
23.62
24.9
25.29
23.89
20.13
14.06
6.53
-0.94
-6.61
-9.26
-8.58
-5.31
-0.83
3.46
6.55
8.0
7.74
5.86
2.53
-1.94
-6.98
-11.73
-15.15
-16.28
-14.54
-9.94
-3.14
4.66
11.96
17.31
19.65
18.58
14.56
8.63
2.18
-3.56
-7.83
-10.49
-11.84
-12.37
-12.38
-11.84
-10.43
-7.86
-4.18
-0.05
3.45
5.21
4.46
1.06
-4.53
-11.4
-18.39
-24.32
-28.23
-29.72
-29.08
-27.21
-25.17
-23.66
-22.62
-21.23
-18.35
-13.21
-5.89
2.56
10.57
16.61
19.71
19.69
16.95
12.25
6.4
0.16
-5.71
-10.44
-13.23
-13.36
-10.37
-4.35
3.94
13.29
22.31
29.95
35.78
40.0
43.13
45.65
47.61
48.63
48.05
45.39
40.69
34.67
28.6
23.89
21.66
22.37
25.72
30.72
35.92
39.73
40.73
37.97
31.16
20.82
8.14
-5.25
-17.78
-28.3
-36.39
-42.22
-46.23
-48.8
-50.05
-49.91
-48.45
-46.05
-43.43
-41.39
-40.43
-40.55
-41.27
-41.88
-41.69
-40.17
-36.89
-31.41
-23.38
-12.82
-0.38
12.67
24.73
34.48
41.35
45.61
48.08
49.7
51.12
52.54
53.79
54.48
54.15
52.31
48.61
42.95
35.6
27.16
18.43
10.21
3.03
-2.83
-7.31
-10.4
-12.11
-12.47
-11.66
-10.01
-8.0
-6.19
-5.07
-5.01
-6.28
-8.98
-13.02
-18.08
-23.55
-28.56
-32.11
-33.29
-31.57
-26.94
-20.01
-11.93
-4.15
1.87
4.81
3.81
-1.44
-10.56
-22.57
-35.96
-48.88
-59.42
-65.91
-67.32
-63.49
-55.24
-44.3
-32.84
-22.92
-15.87
-11.98
-10.46
-9.85
-8.57
-5.44
-0.01
7.41
15.89
24.21
31.14
35.77
37.71
37.21
35.08
32.47
30.48
29.75
30.32
31.58
32.59
32.38
30.25
25.88
19.34
11.08
1.89
-7.16
-14.88
-20.21
-22.41
-21.35
-17.41
-11.35
-4.04
3.63
10.82
16.78
20.81
22.41
21.32
17.56
11.38
3.3
-6.03
-15.8
-25.06
-32.72
-37.8
-39.59
-38.02
-33.84
-28.49
-23.8
-21.46
-22.61
-27.54
-35.68
-45.78
-56.15
-65.0
-70.72
-72.22
-69.14
-62.06
-52.34
-41.8
-32.13
-24.36
-18.64
-14.41
-10.81
-7.12
-2.98
1.69
6.92
12.76
19.21
26.02
32.65
38.37
42.6
45.23
46.74
48.01
49.93
53.0
57.14
61.74
65.88
68.6
69.09
66.8
61.53
53.44
43.15
31.63
20.12
9.81
1.53
-4.42
-8.34
-10.87
-12.66
-13.97
-14.61
-13.96
-11.26
-5.94
2.03
11.97
22.51
31.9
38.5
41.33
40.42
36.65
31.32
25.32
18.72
10.81
0.71
-11.84
-26.08
-40.4
-53.15
-63.33
-70.88
-76.36
-80.38
-83.17
-84.53
-84.14
-81.85
-77.86
-72.5
-66.0
-58.35
-49.41
-39.11
-27.61
-15.2
-2.13
11.48
25.59
40.01
54.15
67.1
77.81
85.48
89.85
91.3
90.63
88.86
86.83
84.93
82.98
80.31
76.02
69.41
60.36
49.46
37.8
26.62
16.87
9.18
3.91
1.38
1.7
4.56
8.98
13.45
16.45
17.15
15.86
13.92
12.97
14.17
17.75
23.08
29.27
35.72
42.18
48.57
54.42
58.63
59.66
56.06
47.04
32.79
14.4
-6.58
-28.63
-50.58
-71.67
-91.35
-109.05
-124.09
-135.76
-143.51
-147.21
-147.23
-144.36
-139.62
-133.97
-128.05
-121.96
-115.32
-107.49
-97.88
-86.24
-72.74
-57.89
-42.3
-26.55
-11.07
3.85
17.97
31.11
43.12
53.83
63.04
70.38
75.31
77.2
75.65
70.71
63.02
53.57
43.39
33.25
23.62
14.82
7.29
1.88
-0.34
1.49
7.4
16.22
25.72
33.36
37.31
37.05
33.45
28.14
22.8
18.59
16.05
15.38
16.76
20.36
25.99
32.7
38.67
41.52
39.17
30.55
15.96
-3.1
-24.38
-45.44
-64.12
-78.88
-88.96
-94.49
-96.2
-94.99
-91.44
-85.35
-75.84
-61.83
-42.81
-19.48
5.98
30.32
50.07
62.48
66.24
61.85
51.41
38.08
25.31
15.92
11.43
11.71
15.07
18.84
20.04
16.36
6.79
-7.85
-24.96
-40.83
-51.67
-54.95
-50.2
-39.2
-25.29
-12.12
-2.43
2.72
4.01
3.36
3.06
5.02
10.17
18.27
28.11
37.89
45.79
50.52
51.76
50.21
47.37
45.12
45.09
48.09
53.66
60.01
64.4
64.18
57.79
45.63
30.18
15.25
4.64
0.64
3.05
9.15
14.56
14.77
6.66
-10.47
-34.85
-63.02
-91.13
-116.08
-136.17
-150.91
-160.42
-164.71
-163.48
-156.22
-142.67
-123.06
-98.1
-68.86
-36.58
-2.75
30.85
62.1
88.81
109.23
122.45
128.53
128.5
123.98
116.98
109.57
103.63
100.65
101.37
105.63
112.27
119.42
125.03
127.46
125.82
119.98
110.26
97.04
80.57
61.13
39.38
16.75
-4.52
-21.83
-33.02
-37.16
-34.92
-28.22
-19.51
-11.04
-4.47
-0.96
-1.46
-6.78
-17.38
-33.05
-52.6
-73.92
-94.58
-112.38
-125.94
-134.75
-139.02
-139.48
-137.29
-134.03
-131.43
-130.99
-133.35
-138.01
-143.38
-147.33
-147.78
-143.24
-133.05
-117.38
-97.16
-73.9
-49.46
-25.63
-3.69
16.01
34.0
51.35
68.96
86.99
104.61
120.14
131.6
137.4
136.87
130.54
120.0
107.36
94.53
82.75
72.44
63.57
56.11
50.26
46.37
44.48
43.95
43.53
41.9
38.38
33.29
27.67
22.64
18.67
15.47
12.36
8.96
5.68
3.6
3.89
7.01
12.28
17.97
22.05
23.07
20.72
15.78
9.55
3.22
-2.52
-7.44
-11.53
-14.93
-18.01
-21.55
-26.8
-35.0
-46.84
-61.97
-78.98
-96.01
-111.48
-124.64
-135.48
-144.12
-150.13
-152.23
-148.83
-138.97
-123.19
-103.74
-83.78
-66.25
-52.86
-43.73
-37.72
-33.12
-28.33
-22.16
-14.02
-3.86
7.63
19.08
28.63
34.55
35.86
32.8
26.8
20.11
15.15
14.02
18.15
27.99
42.88
61.14
80.43
98.47
113.69
125.4
133.64
138.66
140.54
139.1
134.11
125.45
113.14
97.09
77.04
52.79
24.71
-5.7
-35.8
-62.24
-81.9
-92.76
-94.47
-88.29
-76.62
-62.35
-48.15
-36.1
-27.42
-22.45
-20.75
-21.32
-22.91
-24.38
-24.97
-24.47
-23.16
-21.61
-20.36
-19.68
-19.41
-19.01
-17.67
-14.58
-9.15
-1.28
8.52
19.06
28.63
35.37
37.79
35.14
27.72
16.69
3.77
-9.21
-20.68
-29.46
-34.75
-36.15
-33.63
-27.56
-18.64
-7.82
3.82
15.24
25.6
34.48
42.12
49.28
56.99
66.0
76.3
86.92
96.41
103.43
107.39
108.63
108.05
106.44
103.98
99.99
93.41
83.38
69.79
53.45
35.87
18.78
3.61
-8.73
-17.86
-23.63
-25.94
-24.61
-19.53
-10.88
0.69
14.05
27.77
40.46
51.04
58.97
64.22
67.13
68.14
67.49
64.97
60.02
51.94
40.31
25.37
8.2
-9.5
-25.82
-39.26
-49.01
-54.98
-57.51
-57.09
-53.99
-48.25
-39.89
-29.28
-17.37
-5.71
3.83
9.63
10.91
7.99
2.07
-5.37
-13.13
-20.61
-27.72
-34.6
-41.48
-48.64
-56.36
-64.74
-73.38
-81.07
-85.91
-85.92
-79.84
-67.82
-51.41
-32.99
-14.96
1.0
13.99
23.55
29.25
30.58
27.18
19.25
7.6
-6.39
-21.2
-35.63
-49.08
-61.61
-73.66
-85.67
-97.58
-108.57
-117.12
-121.32
-119.51
-110.81
-95.47
-74.89
-51.25
-27.02
-4.38
15.31
31.67
45.3
57.31
68.77
80.15
91.01
100.18
106.17
107.81
104.64
97.02
85.93
72.55
58.03
43.31
29.12
15.95
3.89
-7.26
-17.83
-27.88
-36.83
-43.54
-46.65
-45.22
-39.17
-29.39
-17.5
-5.19
6.28
16.43
25.5
34.14
42.91
51.93
60.72
68.35
73.71
75.95
74.78
70.52
63.91
55.65
46.08
35.14
22.55
8.28
-7.4
-23.93
-40.93
-58.43
-76.84
-96.43
-116.69
-135.9
-151.29
-159.96
-160.04
-151.49
-136.19
-117.09
-96.99
-77.51
-58.9
-40.48
-21.62
-2.37
16.37
33.36
47.65
59.05
67.96
74.94
80.23
83.68
85.11
84.75
83.51
82.75
83.64
86.48
90.43
93.74
94.57
91.67
84.85
74.93
63.25
51.06
39.07
27.37
15.82
4.49
-5.96
-14.43
-19.85
-21.8
-20.97
-19.08
-18.36
-20.66
-26.65
-35.65
-45.95
-55.59
-62.99
-67.35
-68.48
-66.55
-61.99
-55.57
-48.58
-42.66
-39.53
-40.35
-45.36
-53.79
-64.2
-75.02
-84.93
-92.95
-98.42
-100.87
-100.13
-96.39
-90.24
-82.49
-73.95
-65.12
-56.14
-46.86
-37.06
-26.72
-15.95
-4.97
6.06
17.03
27.94
38.64
48.78
57.85
65.17
70.25
72.86
73.16
71.7
69.17
66.16
62.98
59.54
55.48
50.47
44.47
37.9
31.61
26.53
23.36
22.27
22.86
24.36
25.99
27.29
28.27
29.3
30.9
33.44
36.92
40.88
44.49
46.94
47.81
47.25
45.92
44.56
43.61
42.94
41.95
39.96
36.54
31.61
25.3
17.72
8.76
-1.84
-14.18
-27.85
-41.83
-54.71
-65.16
-72.42
-76.53
-78.1
-77.95
-76.59
-74.06
-69.99
-64.11
-56.58
-48.1
-39.63
-32.0
-25.47
-19.77
-14.31
-8.54
-2.24
4.54
11.66
19.09
26.97
35.43
44.39
53.35
61.51
67.92
71.83
72.93
71.44
67.95
63.13
57.52
51.28
44.26
36.24
27.17
17.41
7.71
-1.0
-7.82
-12.22
-14.02
-13.3
-10.16
-4.66
3.15
13.05
24.51
36.67
48.5
59.0
67.41
73.23
76.27
76.55
74.24
69.66
63.36
56.01
48.39
41.25
35.18
30.39
26.58
22.99
18.58
12.44
4.19
-5.96
-17.43
-29.8
-43.05
-57.59
-73.77
-91.46
-109.78
-127.24
-142.23
-153.39
-159.82
-160.9
-156.26
-145.74
-129.59
-108.73
-84.72
-59.58
-35.38
-13.77
4.23
18.27
28.49
35.31
39.3
41.02
41.07
40.1
38.8
37.79
37.49
37.9
38.61
38.92
38.09
35.69
31.74
26.63
21.06
15.79
11.55
8.99
8.66
10.88
15.69
22.7
31.18
40.14
48.52
55.4
60.12
62.36
62.11
59.58
55.06
48.89
41.49
33.4
25.34
18.11
12.29
7.94
4.48
0.74
-4.56
-12.42
-23.09
-36.05
-50.28
-64.59
-77.94
-89.53
-98.82
-105.41
-109.05
-109.58
-107.02
-101.61
-93.76
-84.14
-73.57
-62.98
-53.19
-44.81
-38.07
-32.78
-28.37
-24.06
-19.03
-12.65
-4.73
4.44
14.07
23.14
30.68
36.15
39.61
41.56
42.72
43.66
44.54
45.06
44.64
42.74
39.1
33.88
27.58
20.88
14.51
9.07
5.07
2.89
2.89
5.32
10.23
17.3
25.75
34.54
42.55
48.87
52.88
54.26
52.75
48.18
40.57
30.44
18.91
7.64
-1.61
-7.69
-10.47
-10.88
-10.47
-10.83
-13.16
-18.15
-26.16
-37.22
-50.87
-65.88
-80.12
-90.92
-95.85
-93.71
-85.01
-71.85
-57.02
-42.95
-31.0
-21.31
-13.27
-6.14
0.57
7.1
13.63
20.37
27.56
35.3
43.34
51.14
58.05
63.56
67.44
69.78
70.8
70.75
69.8
68.06
65.64
62.61
59.08
55.12
50.73
45.89
40.58
34.86
28.89
22.99
17.49
12.65
8.64
5.47
3.13
1.62
0.99
1.29
2.49
4.4
6.79
9.35
11.7
13.42
14.03
13.13
10.56
6.54
1.61
-3.58
-8.49
-12.8
-16.38
-19.24
-21.52
-23.74
-26.91
-32.41
-41.5
-54.68
-71.18
-89.01
-105.52
-118.21
-125.6
-127.4
-124.42
-118.07
-109.79
-100.61
-91.11
-81.43
-71.5
-61.28
-50.78
-40.07
-29.12
-17.61
-5.13
8.63
23.45
38.49
52.4
63.87
72.0
76.6
78.11
77.21
74.62
70.9
66.52
61.9
57.43
53.36
49.72
46.37
43.05
39.53
35.63
31.15
25.94
19.92
13.23
6.32
0.01
-4.82
-7.47
-7.61
-5.4
-1.36
3.73
8.95
13.45
16.58
18.0
17.76
16.06
13.11
8.92
3.31
-3.83
-12.28
-21.33
-29.92
-37.1
-42.45
-46.47
-50.47
-56.05
-64.4
-75.78
-89.3
-103.23
-115.41
-123.94
-127.51
-125.5
-117.87
-105.1
-88.25
-69.06
-49.89
-33.24
-21.12
-14.29
-12.02
-12.34
-12.74
-11.07
-5.9
3.21
15.97
31.56
48.72
65.93
81.48
93.82
101.88
105.48
105.24
102.42
98.38
94.25
90.55
87.18
83.5
78.75
72.45
64.67
56.1
47.85
40.94
36.0
33.02
31.63
31.38
32.11
33.9
36.89
40.85
44.91
47.76
48.16
45.56
40.41
34.03
27.91
22.99
19.23
15.76
11.46
5.72
-1.27
-8.7
-15.59
-21.38
-26.09
-30.26
-34.57
-39.48
-45.06
-50.98
-56.6
-61.1
-63.73
-64.02
-61.86
-57.61
-51.95
-45.82
-40.18
-35.86
-33.3
-32.51
-32.88
-33.33
-32.65
-29.85
-24.53
-16.93
-7.67
2.55
13.14
23.51
32.97
40.64
45.7
47.77
47.2
45.05
42.73
41.38
41.45
42.55
43.67
43.68
41.82
37.91
32.32
25.75
18.96
12.66
7.48
3.86
2.08
2.2
3.96
6.85
10.19
13.24
15.38
16.16
15.28
12.6
8.25
2.72
-3.11
-8.18
-11.52
-12.69
-11.98
-10.41
-9.42
-10.52
-14.92
-23.17
-35.06
-49.65
-65.53
-81.1
-94.9
-105.89
-113.47
-117.38
-117.45
-113.57
-105.72
-94.28
-80.13
-64.66
-49.44
-35.77
-24.39
-15.22
-7.68
-0.97
5.55
12.21
19.05
25.95
32.78
39.42
45.74
51.5
56.36
59.91
61.85
62.1
60.77
58.08
54.15
48.87
42.03
33.54
23.68
13.24
3.29
-5.11
-11.23
-14.93
-16.5
-16.4
-14.91
-12.11
-7.87
-2.07
5.17
13.25
21.08
27.26
30.32
29.07
22.8
11.43
-4.45
-23.45
-43.46
-61.83
-75.93
-83.88
-85.25
-81.27
-74.46
-67.67
-62.95
-60.93
-60.84
-61.2
-60.67
-58.62
-55.04
-50.11
-43.76
-35.51
-24.74
-11.27
4.18
19.93
33.79
43.82
49.1
49.99
47.96
44.94
42.55
41.64
42.23
43.85
45.95
48.26
50.78
53.66
56.9
60.17
62.89
64.4
64.23
62.32
59.01
54.91
50.67
46.69
43.09
39.78
36.61
33.46
30.38
27.52
25.12
23.44
22.72
23.07
24.43
26.54
29.0
31.36
33.18
34.07
33.77
32.12
29.06
24.76
19.6
14.13
8.9
4.2
-0.08
-4.43
-9.47
-15.59
-22.67
-30.09
-37.03
-42.89
-47.72
-52.11
-56.88
-62.55
-69.11
-76.03
-82.59
-88.17
-92.4
-94.96
-95.34
-92.76
-86.38
-75.77
-61.42
-44.81
-28.03
-13.08
-1.24
7.25
13.11
17.56
21.84
26.77
32.52
38.69
44.45
48.9
51.42
51.91
50.92
49.53
48.97
50.12
53.16
57.59
62.39
66.45
68.87
69.18
67.31
63.54
58.32
52.1
45.34
38.4
31.56
24.96
18.7
12.93
8.05
4.72
3.64
5.18
8.99
13.95
18.35
20.43
18.94
13.49
4.54
-6.78
-19.0
-30.6
-40.2
-46.85
-50.32
-51.36
-51.54
-52.75
-56.49
-63.35
-72.89
-83.98
-95.23
-105.2
-112.5
-115.85
-114.16
-106.86
-94.34
-78.04
-60.15
-43.04
-28.5
-17.34
-9.32
-3.55
1.06
5.3
9.62
14.09
18.68
23.29
27.85
32.24
36.36
40.21
43.94
47.88
52.27
57.0
61.44
64.47
64.88
61.92
55.62
46.84
36.9
27.06
18.19
10.75
5.03
1.45
0.56
2.9
8.57
16.94
26.69
36.21
44.16
49.92
53.64
56.0
57.62
58.69
58.92
57.76
54.94
50.73
45.78
40.75
35.78
30.31
23.27
13.66
1.08
-14.04
-30.58
-47.18
-62.61
-76.12
-87.41
-96.51
-103.58
-108.8
-112.23
-113.88
-113.73
-111.93
-108.81
-104.8
-100.3
-95.61
-90.92
-86.49
-82.6
-79.4
-76.62
-73.33
-68.08
-59.42
-46.73
-30.82
-13.9
1.26
12.56
19.71
24.38
29.33
36.98
48.16
61.71
75.15
85.93
92.67
95.41
95.08
92.52
87.85
80.62
70.57
58.33
45.61
34.54
26.71
22.62
21.51
21.97
22.59
22.4
20.92
18.15
14.4
10.24
6.45
3.89
3.27
4.88
8.4
12.97
17.26
19.72
18.87
13.55
3.35
-11.19
-28.58
-46.73
-63.46
-76.9
-85.76
-89.29
-87.14
-79.29
-66.22
-48.99
-29.25
-9.07
9.59
25.3
37.47
46.38
52.91
58.08
62.7
67.12
71.2
74.46
76.35
76.49
74.77
71.34
66.51
60.69
54.33
47.93
41.96
36.71
32.19
28.02
23.59
18.26
11.73
4.2
-3.69
-11.06
-17.11
-21.24
-23.12
-22.54
-19.45
-13.96
-6.5
2.1
10.74
18.22
23.6
26.33
26.32
23.75
18.96
12.4
4.67
-3.41
-10.84
-16.6
-20.05
-21.17
-20.75
-20.17
-20.96
-24.19
-30.09
-38.06
-47.1
-56.31
-65.2
-73.63
-81.41
-88.02
-92.56
-94.09
-92.13
-86.98
-79.65
-71.4
-63.25
-55.68
-48.64
-41.83
-34.93
-27.63
-19.64
-10.75
-0.84
9.93
21.13
32.1
42.17
50.81
57.76
63.07
66.98
69.84
71.99
73.56
74.4
74.06
71.86
67.12
59.48
49.11
36.66
23.1
9.52
-3.11
-14.04
-22.74
-28.85
-32.13
-32.46
-29.86
-24.53
-16.76
-6.84
4.88
17.97
31.8
45.49
58.05
68.58
76.53
81.76
84.59
85.57
85.19
83.68
80.78
75.83
68.06
56.95
42.51
25.44
6.89
-11.92
-30.25
-47.94
-65.17
-81.9
-97.35
-110.03
-118.25
-121.04
-118.86
-113.6
-107.83
-103.77
-102.49
-103.74
-106.45
-109.33
-111.37
-112.04
-111.22
-109.25
-106.79
-104.75
-103.86
-104.22
-104.96
-104.29
-99.93
-89.72
-72.29
-47.43
-16.3
18.62
53.9
85.88
111.46
128.9
138.22
140.78
138.66
133.87
127.97
122.07
117.01
113.38
111.4
110.85
111.19
111.88
112.73
113.83
115.26
116.77
117.59
116.84
113.93
108.84
102.13
94.46
86.3
77.82
69.05
60.14
51.44
43.32
36.02
29.56
23.98
19.66
17.56
18.99
25.03
35.96
50.94
68.2
85.87
102.55
117.69
131.4
143.94
155.34
165.39
174.01
181.59
188.93
196.55
203.83
208.56
207.13
195.72
171.74
134.79
86.84
31.52
-27.07
-85.57
-141.81
-194.97
-245.29
-293.64
-341.42
-390.61
-443.71
-503.12
-569.73
-641.25
-711.42
-770.82
-809.5
-820.52
-802.52
-760.12
-701.72
-635.98
-568.86
-502.53
-436.56
-369.97
-302.97
-237.09
-174.17
-115.03
-58.95
-4.06
51.54
109.04
168.51
228.78
287.67
342.09
388.45
423.34
444.44
451.2
444.95
428.25
403.79
373.76
339.73
303.21
266.27
231.5
201.27
176.59
156.59
138.95
121.24
102.09
81.61
60.95
41.52
24.33
9.43
-3.19
-12.76
-17.22
-14.11
-1.99
18.87
46.84
79.98
116.16
153.26
188.62
218.84
240.43
250.79
250.21
242.52
234.57
232.34
239.04
254.29
275.52
299.58
322.79
342.69
358.12
370.24
378.08
379.6
372.6
356.77
333.47
302.25
263.0
216.86
169.69
124.04
80.65
38.96
-0.24
-35.61
-70.68
-109.58
-154.59
-199.52
-242.46
-283.39
-324.18
-364.76
-404.44
-448.65
-503.15
-570.44
-641.67
-713.85
-787.43
-865.76
-948.61
-996.01
-975.02
-876.74
-764.56
-657.16
-560.46
-463.43
-368.71
-279.6
-197.27
-126.18
-69.19
-25.83
14.72
56.55
100.11
143.07
185.69
229.27
270.45
305.53
333.19
360.88
391.61
425.12
457.5
485.17
504.88
511.69
502.66
478.77
448.05
416.13
386.13
358.22
332.27
308.08
284.15
259.24
232.81
206.68
180.95
154.89
127.57
99.5
72.41
48.19
28.42
13.79
4.54
-0.74
-3.98
-6.83
-9.79
-12.47
-14.27
-14.89
-14.6
-13.93
-13.32
-12.71
-11.58
-9.18
-4.9
1.39
9.23
17.7
25.74
32.36
36.78
38.53
37.43
33.66
27.89
21.35
15.55
11.63
9.63
7.96
3.53
-7.42
-27.96
-59.16
-99.41
-144.42
-188.13
-224.02
-246.58
-252.65
-242.19
-218.3
-186.31
-152.55
-122.6
-100.1
-86.13
-79.5
-77.46
-76.67
-74.09
-67.59
-56.4
-41.21
-23.83
-6.71
7.86
18.49
24.96
28.05
29.19
29.83
31.22
34.26
39.42
46.73
55.62
65.0
73.38
79.36
82.1
81.67
78.96
75.18
71.34
67.76
64.1
59.61
53.76
46.54
38.64
31.1
24.89
20.47
17.64
15.66
13.67
11.04
7.54
3.33
-1.27
-6.02
-10.84
-15.81
-20.94
-26.09
-30.87
-34.73
-37.13
-37.68
-36.32
-33.37
-29.45
-25.33
-21.75
-19.18
-17.87
-17.81
-18.88
-20.83
-23.34
-25.9
-27.88
-28.74
-28.17
-26.33
-23.82
-21.44
-19.85
-19.25
-19.34
-19.54
-19.31
-18.42
-17.07
-15.73
-14.98
-15.2
-16.52
-18.74
-21.41
-24.06
-26.18
-27.37
-27.26
-25.61
-22.25
-17.23
-10.8
-3.53
3.73
9.96
14.18
15.69
14.33
10.56
5.23
-0.55
-5.77
-9.67
-11.82
-12.09
-10.65
-7.94
-4.64
-1.66
0.01
-0.38
-3.2
-8.28
-15.02
-22.61
-30.22
-37.13
-42.7
-46.37
-47.67
-46.33
-42.39
-36.26
-28.6
-20.14
-11.46
-2.92
5.39
13.45
21.18
28.31
34.4
38.92
41.43
41.7
39.8
36.11
31.33
26.26
21.67
18.13
15.97
15.25
15.73
16.91
18.1
18.56
17.87
16.21
14.48
13.97
15.7
19.81
25.2
29.86
31.69
29.38
22.96
13.63
3.2
-6.74
-15.25
-22.2
-28.0
-33.27
-38.56
-44.15
-49.98
-55.69
-60.72
-64.4
-66.17
-65.63
-62.71
-57.68
-51.21
-44.32
-38.24
-34.03
-32.24
-32.67
-34.38
-36.03
-36.33
-34.45
-30.12
-23.52
-15.1
-5.44
4.83
14.99
24.28
31.94
37.32
40.04
40.08
37.86
34.17
29.96
26.07
22.92
20.33
17.71
14.48
10.49
6.25
2.83
1.48
3.14
8.16
16.24
26.48
37.61
48.15
56.64
61.8
62.81
59.48
52.39
42.83
32.4
22.64
14.6
8.68
4.73
2.37
1.22
1.04
1.66
2.72
3.65
3.67
2.06
-1.57
-7.1
-14.01
-21.58
-29.21
-36.42
-42.75
-47.66
-50.56
-51.06
-49.2
-45.63
-41.45
-37.8
-35.51
-34.89
-35.77
-37.72
-40.27
-42.96
-45.34
-46.78
-46.59
-44.12
-39.14
-31.87
-23.03
-13.48
-3.95
5.21
14.03
22.75
31.54
40.26
48.29
54.65
58.2
58.0
53.66
45.62
35.07
23.67
12.99
3.95
-3.4
-9.66
-15.6
-21.51
-26.97
-30.97
-32.47
-30.89
-26.43
-19.71
-11.38
-1.67
9.57
22.44
36.49
50.43
62.46
70.92
75.0
75.12
72.72
69.57
67.0
65.38
64.08
61.92
57.68
50.6
40.53
27.9
13.52
-1.56
-16.16
-29.07
-39.1
-45.17
-46.5
-42.71
-33.91
-20.81
-4.68
12.73
29.25
42.61
50.62
51.68
45.13
31.6
13.0
-7.88
-27.98
-44.76
-56.69
-63.42
-65.52
-64.07
-60.22
-54.95
-48.94
-42.7
-36.64
-31.14
-26.63
-23.48
-22.01
-22.3
-24.12
-26.83
-29.43
-30.73
-29.64
-25.38
-17.66
-6.69
6.86
21.9
37.06
50.81
61.76
69.01
72.38
72.48
70.51
67.86
65.6
64.24
63.61
63.08
61.93
59.6
55.84
50.7
44.32
36.72
27.7
16.91
4.01
-11.11
-28.15
-46.35
-64.59
-81.4
-95.09
-103.86
-106.16
-101.18
-89.21
-71.83
-51.59
-31.29
-13.26
1.15
11.57
18.29
21.84
22.7
21.34
18.34
14.41
10.4
7.08
4.95
4.07
4.14
4.64
5.06
5.15
5.06
5.29
6.39
8.59
11.5
14.05
14.76
12.27
5.9
-4.06
-16.43
-29.46
-41.28
-50.26
-55.29
-55.83
-52.02
-44.52
-34.35
-22.68
-10.61
0.87
10.82
18.35
22.69
23.45
20.89
15.89
9.76
3.73
-1.46
-5.61
-8.92
-11.68
-14.11
-16.45
-19.04
-22.36
-26.78
-32.31
-38.39
-44.01
-47.98
-49.45
-48.11
-44.2
-38.33
-31.13
-22.97
-13.83
-3.26
9.41
24.79
43.16
64.23
87.16
110.68
133.34
153.79
171.01
184.43
193.91
199.56
201.63
200.43
196.28
189.58
180.87
170.83
160.18
149.52
139.22
129.34
119.65
109.6
98.27
84.35
66.24
42.54
12.58
-23.06
-62.46
-102.74
-140.86
-174.4
-202.05
-223.55
-239.22
-249.41
-254.23
-253.75
-248.4
-239.23
-227.84
-215.77
-203.86
-191.96
-179.11
-164.28
-147.16
-128.58
-110.26
-94.07
-81.13
-71.47
-64.17
-57.93
-51.45
-43.53
-32.95
-18.37
1.32
26.32
55.41
85.86
114.05
136.64
151.47
158.1
157.57
151.73
142.66
132.26
122.25
114.04
108.62
106.34
106.77
108.86
111.32
113.07
113.58
112.83
111.14
108.87
106.12
102.66
97.97
91.52
82.89
71.97
59.1
44.9
30.29
16.18
3.3
-7.91
-17.32
-25.06
-31.44
-36.9
-41.9
-46.85
-52.08
-57.71
-63.7
-69.86
-75.9
-81.49
-86.18
-89.4
-90.49
-88.88
-84.42
-77.64
-69.93
-63.27
-59.78
-61.03
-67.53
-78.55
-92.25
-106.21
-118.02
-125.77
-128.28
-125.02
-115.96
-101.44
-82.11
-59.0
-33.59
-7.72
16.74
38.2
55.66
68.82
77.93
83.44
85.81
85.37
82.36
77.07
69.92
61.41
52.05
42.29
32.56
23.35
15.39
9.56
6.81
7.74
12.36
19.94
29.24
38.79
47.27
53.76
57.75
59.11
57.98
54.72
49.99
44.67
39.75
36.1
34.27
34.46
36.51
40.05
44.5
49.15
53.21
56.01
57.28
57.44
57.48
58.61
61.61
66.33
71.67
76.22
79.17
81.05
83.83
90.08
101.39
117.19
134.35
147.73
152.01
143.51
121.03
86.08
42.4
-4.39
-47.29
-78.83
-92.74
-86.01
-60.59
-23.53
14.94
44.7
59.15
57.15
42.59
22.05
1.83
-14.29
-25.65
-34.03
-42.17
-52.62
-67.13
-86.78
-112.46
-145.42
-187.62
-240.99
-305.59
-378.12
-451.32
-515.21
-560.13
-580.22
-575.43
-551.28
-516.07
-477.37
-439.45
-402.83
-365.95
-327.38
-287.39
-247.8
-210.58
-176.39
-143.89
-110.37
-72.88
-29.65
18.93
69.85
118.22
158.73
187.5
203.53
208.98
208.21
205.74
204.32
204.05
203.06
199.16
191.4
180.74
169.29
158.86
149.78
140.7
129.39
114.06
94.3
71.3
47.17
24.03
3.23
-14.54
-28.68
-37.94
-40.44
-34.48
-19.7
2.05
26.78
49.67
66.97
77.46
82.78
86.37
91.68
100.61
112.79
126.02
137.6
145.63
149.54
149.94
147.92
144.33
139.51
133.47
126.37
118.81
111.76
106.17
102.5
100.36
98.67
95.91
90.74
82.52
71.6
59.2
47.15
37.22
30.53
27.0
25.37
23.84
20.88
16.0
10.13
5.19
3.13
4.81
9.34
14.43
17.31
15.95
9.84
0.14
-10.83
-20.38
-26.11
-26.37
-20.41
-8.5
8.06
27.25
46.98
65.77
83.17
99.61
115.65
131.01
144.22
152.72
153.66
144.57
123.9
91.58
49.49
1.76
-45.51
-85.52
-112.69
-124.61
-123.08
-113.49
-102.68
-96.22
-96.58
-102.87
-112.04
-120.91
-127.53
-131.62
-133.86
-134.86
-134.64
-132.5
-127.51
-119.09
-107.35
-92.98
-76.84
-59.42
-40.8
-21.06
-0.95
17.74
32.43
40.7
41.42
35.58
26.17
17.04
11.35
10.32
13.08
17.38
20.96
22.52
22.05
20.34
18.27
16.19
13.71
10.0
4.4
-3.06
-11.46
-19.27
-24.86
-27.2
-26.18
-22.52
-17.32
-11.56
-5.84
-0.53
3.85
6.46
6.37
2.97
-3.58
-12.28
-21.61
-30.1
-36.66
-40.7
-42.01
-40.56
-36.47
-30.11
-22.19
-13.68
-5.59
1.4
7.11
11.81
15.95
19.85
23.48
26.51
28.5
29.17
28.46
26.62
24.05
21.21
18.47
16.12
14.37
13.38
13.16
13.41
13.46
12.4
9.39
3.95
-3.7
-12.73
-21.93
-30.15
-36.52
-40.67
-42.49
-41.98
-39.22
-34.53
-28.54
-22.09
-15.93
-10.42
-5.58
-1.35
2.19
4.74
6.05
6.16
5.59
5.01
4.9
5.31
5.95
6.47
6.73
6.88
7.14
7.4
7.14
5.67
2.58
-1.93
-7.09
-11.88
-15.48
-17.54
-18.18
-17.76
-16.56
-14.65
-11.87
-8.07
-3.31
2.04
7.4
12.29
16.45
19.95
23.02
25.68
27.58
28.13
26.75
23.38
18.69
13.96
10.6
9.57
11.04
14.36
18.44
22.25
25.28
27.4
28.77
29.39
28.96
27.17
23.9
19.57
15.21
12.21
11.91
15.03
21.39
29.88
38.95
47.16
53.51
57.59
59.28
58.52
55.27
49.67
42.19
33.67
25.0
16.72
8.85
1.0
-7.13
-15.39
-23.1
-29.35
-33.37
-35.0
-34.61
-33.0
-30.97
-29.03
-27.34
-25.75
-24.07
-22.16
-20.06
-17.85
-15.58
-13.18
-10.5
-7.32
-3.52
0.88
5.83
11.18
16.77
22.3
27.2
30.78
32.46
32.04
29.85
26.54
22.8
19.06
15.37
11.56
7.37
2.62
-2.83
-8.99
-15.64
-22.28
-28.14
-32.49
-34.87
-35.19
-33.69
-30.82
-26.93
-22.23
-16.87
-11.12
-5.54
-0.78
2.65
4.69
5.68
6.15
6.54
7.05
7.74
8.72
10.13
12.12
14.51
16.62
17.37
15.66
10.64
2.15
-9.41
-23.15
-37.92
-52.38
-65.11
-74.73
-80.34
-81.7
-79.11
-73.24
-64.61
-53.49
-40.02
-24.61
-8.28
7.46
21.04
31.42
38.46
42.8
45.48
47.55
49.7
52.19
54.87
57.32
59.06
59.61
58.77
56.57
53.21
48.93
43.95
38.37
32.13
24.98
16.5
6.38
-5.3
-17.87
-30.06
-40.23
-46.86
-49.02
-46.67
-40.58
-31.99
-22.29
-12.7
-4.08
3.15
8.92
13.4
16.8
19.22
20.66
21.08
20.67
19.86
19.18
18.97
19.19
19.38
18.93
17.3
14.33
10.15
4.9
-1.49
-9.26
-18.58
-29.22
-40.49
-51.41
-61.0
-68.5
-73.39
-75.25
-73.71
-68.56
-59.97
-48.65
-35.81
-22.85
-11.03
-1.16
6.42
11.75
15.22
17.43
19.21
21.48
25.04
30.31
37.2
45.15
53.25
60.5
65.95
68.9
69.03
66.55
62.17
56.96
51.93
47.6
43.84
40.02
35.38
29.33
21.54
11.9
0.41
-12.67
-26.66
-40.27
-51.72
-59.07
-60.8
-56.36
-46.36
-32.28
-16.05
0.49
15.89
29.04
39.18
45.8
48.81
48.66
46.33
43.05
39.83
36.97
33.92
29.57
22.92
13.64
2.24
-10.33
-23.19
-35.88
-48.04
-59.04
-67.56
-71.91
-70.81
-64.23
-53.69
-41.82
-31.28
-23.9
-20.17
-19.49
-20.63
-22.28
-23.38
-23.17
-21.2
-17.43
-12.28
-6.63
-1.5
2.24
4.27
4.89
4.9
5.31
6.94
10.27
15.17
21.07
27.06
32.13
35.39
36.23
34.42
30.2
24.29
17.89
12.28
8.45
6.62
6.13
5.67
3.85
-0.27
-6.61
-14.14
-21.3
-26.6
-29.15
-28.9
-26.53
-23.04
-19.39
-16.2
-13.58
-11.19
-8.35
-4.3
1.58
9.4
18.64
28.16
36.41
41.79
43.1
39.77
32.03
20.77
7.42
-6.14
-17.81
-25.71
-28.65
-26.74
-21.46
-15.26
-10.64
-9.22
-11.13
-15.13
-19.28
-21.79
-21.58
-18.38
-12.47
-4.32
5.55
16.56
27.95
38.76
48.06
55.09
59.32
60.46
58.39
53.31
45.97
37.69
30.14
24.8
22.38
22.47
23.75
24.54
23.58
20.47
15.68
10.22
5.02
0.59
-3.06
-6.24
-9.37
-12.71
-16.23
-19.73
-22.93
-25.6
-27.53
-28.53
-28.37
-26.83
-23.87
-19.69
-14.72
-9.44
-4.24
0.61
4.86
8.17
10.01
9.91
7.56
3.07
-3.08
-10.11
-17.3
-24.09
-30.18
-35.37
-39.55
-42.66
-44.66
-45.54
-45.27
-43.85
-41.34
-37.9
-33.95
-30.12
-27.11
-25.33
-24.71
-24.54
-23.72
-21.14
-16.15
-8.87
0.0
9.45
18.49
26.44
32.75
36.93
38.5
37.26
33.54
28.41
23.42
20.08
19.21
20.53
22.79
24.32
23.7
20.24
14.2
6.49
-1.74
-9.5
-16.22
-21.74
-26.2
-29.93
-33.3
-36.53
-39.58
-42.01
-43.12
-42.15
-38.55
-32.28
-23.97
-14.72
-5.87
1.47
6.67
9.66
10.89
11.11
11.11
11.56
12.7
14.14
14.65
12.56
6.23
-5.07
-20.67
-38.39
-55.06
-67.35
-72.73
-70.14
-60.14
-44.79
-27.22
-10.96
0.89
6.5
5.82
0.51
-6.79
-13.42
-17.62
-18.87
-17.69
-14.95
-11.37
-7.38
-3.24
0.65
3.76
5.63
6.14
5.63
4.69
3.87
3.41
3.3
3.41
3.8
4.76
6.77
10.2
15.0
20.65
26.26
30.85
33.67
34.44
33.31
30.74
27.34
23.79
20.81
19.06
19.11
21.26
25.48
31.27
37.77
43.94
48.74
51.42
51.67
49.71
46.24
42.25
38.69
36.15
34.68
33.68
32.14
28.93
23.23
14.83
4.01
-8.56
-22.08
-35.7
-48.5
-59.47
-67.61
-72.22
-73.33
-71.91
-69.59
-68.02
-68.21
-70.11
-72.64
-74.18
-73.16
-68.55
-59.89
-47.38
-31.63
-13.64
5.32
23.89
40.8
55.14
66.35
74.21
78.79
80.37
79.42
76.53
72.24
66.84
60.29
52.33
42.67
31.32
18.64
5.41
-7.37
-18.75
-28.03
-34.97
-39.76
-42.98
-45.22
-46.84
-47.75
-47.62
-46.11
-43.1
-38.77
-33.44
-27.27
-20.29
-12.54
-4.27
3.94
11.41
17.68
22.78
27.03
30.73
33.84
36.12
37.62
39.19
42.55
49.68
61.72
78.25
97.16
115.43
130.21
139.8
143.91
143.28
138.71
130.36
117.56
99.49
76.13
49.05
21.24
-3.96
-24.12
-38.68
-48.89
-56.75
-63.8
-70.33
-75.54
-78.37
-78.52
-76.72
-74.42
-73.0
-73.13
-74.74
-77.36
-80.46
-83.57
-86.17
-87.47
-86.52
-82.39
-74.43
-62.49
-47.05
-29.1
-10.14
8.14
24.12
36.51
44.64
48.56
48.99
47.12
44.2
41.21
38.54
36.02
33.04
28.98
23.57
17.09
10.33
4.38
0.2
-1.61
-1.03
1.53
5.43
9.97
14.47
18.33
21.04
22.23
21.6
18.94
14.26
7.88
0.58
-6.54
-12.23
-15.54
-16.17
-14.39
-10.93
-6.61
-2.06
2.36
6.56
10.51
14.15
17.29
19.6
20.56
19.57
16.0
9.33
-0.53
-13.07
-27.18
-41.42
-54.41
-65.23
-73.66
-80.07
-85.08
-89.17
-92.38
-94.22
-93.84
-90.39
-83.38
-72.94
-59.82
-45.37
-31.13
-18.51
-8.47
-1.4
2.83
4.71
4.73
3.27
0.66
-2.65
-5.85
-7.91
-7.86
-5.31
-0.82
4.26
8.24
9.85
8.79
5.93
2.9
1.35
2.3
5.9
11.55
18.41
25.69
32.82
39.16
43.8
45.61
43.56
37.17
26.86
14.03
0.66
-11.25
-20.19
-25.46
-27.07
-25.64
-22.07
-17.25
-12.03
-7.12
-3.03
-0.0
2.03
3.34
4.29
5.03
5.34
4.78
2.96
0.06
-3.03
-4.8
-3.7
1.1
9.39
19.83
30.42
39.14
44.52
45.91
43.42
37.78
30.05
21.33
12.64
4.79
-1.7
-6.54
-9.83
-11.93
-13.56
-15.55
-18.63
-23.11
-28.74
-34.79
-40.42
-45.03
-48.38
-50.44
-51.11
-50.12
-47.14
-41.92
-34.51
-25.25
-14.77
-3.8
6.94
16.85
25.6
33.27
40.24
46.93
53.51
59.53
63.83
64.99
61.9
54.32
43.11
30.06
17.36
7.33
2.18
3.52
11.66
25.04
40.25
53.04
59.89
59.45
53.16
44.42
36.89
32.73
31.79
32.13
31.41
28.38
23.52
18.63
15.63
15.48
17.65
20.43
21.93
20.95
17.53
12.79
8.42
5.72
5.12
6.28
8.23
9.84
10.15
8.49
4.62
-1.33
-8.87
-17.31
-26.0
-34.53
-42.65
-50.1
-56.32
-60.54
-62.05
-60.67
-56.96
-52.07
-47.36
-43.79
-41.62
-40.41
-39.34
-37.61
-34.66
-30.37
-24.9
-18.65
-12.1
-5.63
0.49
6.01
10.64
13.93
15.25
13.92
9.47
1.95
-8.06
-19.38
-30.48
-39.75
-45.89
-48.37
-47.71
-45.51
-43.9
-44.64
-48.22
-53.47
-58.09
-59.77
-57.35
-51.42
-43.94
-37.21
-32.84
-31.21
-31.6
-32.78
-33.47
-32.42
-28.34
-20.01
-6.64
11.61
33.43
56.72
79.26
99.4
116.33
129.77
139.51
145.21
146.54
143.5
136.74
127.35
116.47
104.86
92.76
80.17
67.17
54.2
41.79
30.29
19.5
8.98
-1.6
-11.94
-21.13
-28.16
-32.74
-35.81
-39.28
-45.15
-54.33
-65.79
-76.81
-83.98
-84.75
-78.63
-67.53
-54.9
-44.29
-38.0
-36.33
-37.91
-40.56
-42.47
-42.87
-42.09
-41.06
-40.53
-40.66
-40.89
-40.36
-38.32
-34.46
-29.03
-22.7
-16.28
-10.65
-6.56
-4.34
-3.92
-4.66
-5.53
-5.36
-3.16
1.67
9.24
18.98
29.6
38.91
44.16
42.87
33.81
17.98
-1.27
-19.2
-31.42
-35.6
-32.3
-24.39
-15.55
-8.63
-4.63
-2.85
-1.83
-0.47
1.4
3.15
4.02
3.69
2.58
1.84
2.67
5.71
10.77
16.9
23.06
28.76
34.34
40.81
49.02
58.95
69.27
77.71
81.98
80.87
74.82
65.8
56.42
48.69
43.22
38.96
33.89
26.11
14.68
0.17
-15.65
-30.56
-42.66
-50.93
-55.17
-55.76
-53.34
-48.67
-42.59
-36.08
-30.15
-25.5
-22.32
-20.25
-18.59
-16.75
-14.42
-11.63
-8.47
-4.9
-0.72
4.36
10.4
17.14
24.01
30.38
35.65
39.36
41.12
40.56
37.52
32.12
24.94
17.02
9.54
3.45
-0.82
-3.48
-5.26
-7.08
-9.8
-14.01
-19.96
-27.5
-35.9
-43.94
-50.02
-52.68
-51.14
-45.74
-37.75
-28.86
-20.31
-12.45
-4.95
2.53
9.69
15.42
18.21
17.2
12.74
6.38
0.22
-3.94
-5.12
-3.29
0.89
6.3
11.6
15.41
16.63
14.83
10.46
4.87
-0.11
-2.83
-2.36
1.24
6.99
13.46
19.28
23.46
25.54
25.42
23.23
19.1
13.14
5.6
-3.05
-12.02
-20.37
-27.25
-32.13
-34.9
-35.79
-35.14
-33.22
-30.2
-26.14
-21.15
-15.49
-9.52
-3.74
1.43
5.71
9.03
11.52
13.46
15.1
16.49
17.49
17.72
16.89
14.85
11.64
7.44
2.54
-2.69
-7.89
-12.69
-16.78
-19.84
-21.47
-21.3
-19.04
-14.62
-8.32
-0.72
7.52
15.78
23.71
31.08
37.51
42.18
43.79
40.92
32.71
19.51
3.11
-13.79
-28.52
-39.42
-46.38
-50.51
-53.38
-55.88
-57.77
-57.84
-54.75
-48.0
-38.37
-27.64
-17.83
-10.33
-5.68
-3.67
-3.84
-5.55
-7.97
-9.91
-9.85
-6.55
0.51
10.74
22.66
34.44
44.54
51.95
56.19
56.95
53.95
47.08
36.72
24.14
11.33
0.42
-7.14
-11.19
-12.95
-14.31
-16.89
-21.22
-26.63
-31.72
-35.09
-35.93
-34.08
-29.85
-23.69
-16.19
-8.2
-0.79
4.93
8.31
9.37
8.79
7.65
7.01
7.74
10.46
15.52
22.65
30.73
37.73
41.35
39.95
33.41
23.23
11.9
1.79
-5.69
-10.31
-12.57
-13.0
-11.88
-9.28
-5.43
-0.91
3.4
6.81
9.24
11.37
14.29
18.88
25.25
32.61
39.63
45.09
48.47
50.07
50.69
51.1
51.58
51.91
51.56
50.18
47.67
44.12
39.45
33.3
25.14
14.83
2.95
-9.19
-20.0
-28.2
-33.29
-35.55
-35.64
-34.03
-30.66
-25.04
-16.8
-6.22
5.52
16.58
25.09
29.87
30.8
28.72
25.06
21.27
18.47
17.3
17.87
19.83
22.29
23.93
23.21
18.86
10.48
-1.16
-14.27
-26.7
-36.63
-43.19
-46.44
-47.09
-45.86
-43.15
-38.96
-33.29
-26.38
-18.94
-12.1
-7.2
-5.61
-8.41
-16.09
-28.1
-42.68
-57.13
-68.5
-74.72
-75.32
-71.56
-65.68
-59.82
-55.09
-51.36
-47.61
-42.7
-36.03
-27.8
-18.78
-9.93
-1.97
4.84
10.59
15.57
19.97
23.7
26.39
27.58
27.07
25.14
22.61
20.65
20.29
22.01
25.48
29.83
34.04
37.42
39.81
41.45
42.58
43.18
42.79
40.86
37.16
32.08
26.57
21.81
18.72
17.57
17.92
18.77
18.85
17.02
12.38
4.64
-5.75
-17.66
-29.47
-39.5
-46.65
-50.62
-51.96
-51.74
-50.98
-50.35
-50.03
-49.9
-49.74
-49.41
-48.82
-47.82
-46.2
-43.77
-40.46
-36.46
-32.16
-28.09
-24.69
-22.25
-20.79
-20.1
-19.7
-18.84
-16.66
-12.38
-5.66
3.35
14.02
25.52
37.11
48.38
59.06
68.86
77.24
83.42
86.71
86.89
84.38
80.13
75.13
69.99
64.84
59.51
53.96
48.54
43.92
40.67
38.99
38.5
38.39
37.6
35.04
29.81
21.25
9.16
-6.15
-23.78
-42.34
-60.08
-75.26
-86.47
-93.06
-95.18
-93.6
-89.17
-82.24
-72.43
-58.91
-41.09
-19.38
4.66
28.61
50.11
67.65
80.84
90.09
96.0
98.97
99.02
96.07
90.13
81.47
70.59
58.19
45.07
31.99
19.47
7.73
-3.29
-13.71
-23.44
-32.02
-38.79
-43.22
-45.2
-45.05
-43.24
-40.1
-35.8
-30.36
-23.84
-16.53
-8.87
-1.32
5.75
12.12
17.58
21.94
24.98
26.48
26.32
24.51
21.29
17.12
12.7
8.7
5.51
2.87
-0.2
-4.99
-12.56
-23.18
-36.16
-50.19
-63.73
-75.38
-84.08
-89.17
-90.26
-87.33
-80.84
-71.7
-61.12
-50.42
-40.73
-32.98
-27.76
-25.22
-25.1
-26.62
-28.69
-30.12
-30.04
-28.14
-24.63
-20.02
-14.85
-9.53
-4.28
0.69
5.14
8.77
11.33
12.67
12.82
11.94
10.3
8.13
5.59
2.7
-0.43
-3.6
-6.44
-8.6
-9.98
-10.74
-11.15
-11.32
-11.02
-9.66
-6.52
-1.19
6.11
14.57
23.03
30.42
35.91
38.93
39.05
35.99
29.78
21.1
11.24
1.91
-5.43
-10.04
-12.14
-12.82
-13.63
-16.01
-21.03
-29.16
-40.33
-53.83
-68.31
-81.78
-91.97
-96.86
-95.31
-87.45
-74.74
-59.36
-43.65
-29.36
-17.43
-8.1
-1.13
3.87
7.34
9.82
12.03
14.85
19.14
25.46
33.78
43.36
52.85
60.6
65.08
65.23
60.74
52.2
41.01
28.98
18.01
9.5
3.95
0.88
-1.04
-3.49
-7.9
-14.75
-23.38
-32.02
-38.23
-39.59
-34.38
-22.04
-3.35
19.78
44.76
68.96
90.22
107.25
119.66
127.87
132.78
135.49
136.99
137.96
138.65
138.86
138.12
135.92
131.87
125.82
117.73
107.54
95.02
79.97
62.41
42.83
22.08
1.32
-18.43
-36.54
-52.81
-67.29
-79.96
-90.42
-97.92
-101.58
-100.83
-95.56
-86.16
-73.26
-57.49
-39.48
-19.92
0.32
20.11
38.17
53.23
64.26
70.64
72.38
70.05
64.64
57.2
48.38
38.24
26.33
12.26
-3.85
-21.17
-38.48
-54.8
-69.73
-83.34
-95.75
-106.61
-115.15
-120.82
-123.82
-125.18
-126.23
-127.7
-129.15
-129.18
-126.26
-119.67
-109.86
-98.16
-86.12
-74.68
-64.07
-54.08
-44.45
-35.22
-26.66
-19.07
-12.57
-7.12
-2.61
0.98
3.81
6.32
9.27
13.48
19.47
27.15
35.82
44.53
52.3
58.16
61.17
60.43
55.44
46.46
34.88
23.17
14.0
9.33
9.7
14.31
21.64
30.37
39.7
49.19
58.29
65.88
70.69
72.04
70.62
68.44
68.01
70.9
76.98
84.51
90.85
93.69
91.81
85.33
75.17
62.47
48.19
33.19
18.75
6.25
-3.18
-9.04
-11.7
-12.25
-12.36
-13.98
-18.68
-26.58
-36.88
-48.34
-59.6
-69.32
-76.43
-80.55
-82.41
-83.15
-82.44
-79.86
-75.52
-70.29
-65.06
-60.26
-56.21
-53.69
-53.19
-52.59
-49.97
-44.72
-37.58
-28.91
-17.41
-0.5
23.88
57.62
104.03
163.63
232.71
304.21
370.91
428.32
475.03
511.2
517.42
482.91
412.72
326.9
246.48
182.93
138.45
114.37
102.47
97.02
97.62
104.4
115.89
128.49
137.5
140.62
137.23
126.82
110.0
89.89
69.16
48.99
28.86
7.83
-14.38
-37.63
-62.39
-88.23
-112.9
-134.22
-151.09
-164.12
-175.06
-185.97
-198.88
-215.76
-237.12
-261.61
-287.18
-312.21
-336.22
-359.92
-384.55
-411.5
-442.16
-477.4
-517.57
-562.54
-610.91
-659.09
-700.78
-727.78
-732.3
-709.71
-660.19
-588.7
-503.14
-411.68
-320.6
-233.67
-152.56
-77.89
-9.78
52.28
109.82
165.55
222.48
282.33
343.82
402.0
449.22
477.75
483.09
466.19
433.61
395.14
360.02
333.49
315.28
300.52
282.56
256.14
219.46
174.62
126.5
80.93
42.9
15.42
-0.93
-7.63
-7.25
-2.48
4.43
11.83
18.47
23.28
25.36
24.35
20.63
15.41
10.19
6.1
3.27
0.81
-2.64
-8.21
-16.13
-25.6
-35.14
-43.25
-48.88
-51.54
-51.2
-48.04
-42.4
-34.71
-25.62
-15.85
-6.06
3.37
12.37
21.0
29.17
36.47
42.23
45.8
46.89
45.85
43.61
41.43
40.46
41.36
44.07
47.75
51.14
53.0
52.71
50.43
46.99
43.3
39.83
36.34
32.01
25.94
17.63
7.16
-4.94
-18.03
-31.71
-45.92
-60.75
-76.27
-92.29
-108.23
-123.2
-136.07
-145.68
-150.97
-151.17
-145.83
-134.92
-118.85
-98.55
-75.39
-51.08
-27.36
-5.69
12.98
28.16
39.77
47.98
53.27
56.46
58.64
60.86
63.71
67.01
69.87
71.14
69.95
66.15
60.21
52.87
44.81
36.47
28.2
20.59
14.4
10.38
8.81
9.2
10.43
11.25
10.94
9.65
8.41
8.57
11.11
16.23
23.23
30.87
38.04
44.17
49.38
54.14
58.69
62.62
64.82
63.87
58.73
49.36
36.86
23.13
10.13
-0.99
-10.35
-19.24
-29.81
-44.39
-64.88
-92.23
-125.92
-163.65
-201.26
-233.22
-253.77
-258.37
-245.08
-215.15
-172.66
-123.27
-72.65
-25.31
15.93
49.75
75.84
94.43
106.27
112.59
115.22
116.29
117.72
120.68
125.29
130.85
136.23
140.46
143.04
143.95
143.49
141.94
139.47
136.07
131.62
125.99
119.19
111.6
104.01
97.51
93.16
91.51
92.48
95.52
100.06
105.98
113.82
124.49
138.77
156.8
177.8
200.3
222.57
243.23
261.62
277.84
292.51
306.32
319.65
332.45
344.4
355.25
364.87
373.01
378.81
380.46
375.4
361.07
335.85
299.82
254.79
203.66
149.59
95.39
43.0
-6.27
-51.68
-93.11
-131.18
-167.28
-203.68
-242.88
-286.37
-333.3
-379.92
-420.39
-448.86
-462.03
-460.8
-450.25
-437.94
-431.25
-435.18
-451.49
-479.22
-515.89
-558.36
-602.77
-644.26
-676.91
-694.67
-692.99
-670.3
-628.35
-571.4
-504.99
-435.52
-370.07
-315.92
-279.27
-263.08
-264.49
-274.75
-281.66
-274.14
-246.62
-200.82
-143.82
-83.85
-26.27
28.14
81.98
138.5
199.03
261.98
323.23
377.34
418.77
442.9
447.35
432.72
402.76
363.56
322.01
283.93
252.84
229.61
213.07
200.98
190.88
180.53
168.2
152.71
133.63
111.43
87.48
63.79
42.67
25.92
14.27
7.03
2.43
-1.8
-7.33
-14.57
-22.49
-29.18
-32.74
-32.17
-27.74
-20.94
-13.79
-8.13
-5.06
-4.65
-6.04
-7.8
-8.32
-6.18
-0.45
9.13
21.93
36.51
50.89
63.1
71.76
76.45
77.69
76.31
72.85
67.18
58.67
46.85
31.94
15.11
-1.89
-17.22
-29.42
-37.43
-40.41
-37.55
-28.2
-12.19
9.67
35.42
62.12
86.45
105.53
117.67
122.69
121.86
117.22
110.75
103.74
96.44
88.55
79.84
70.71
62.06
54.77
48.83
43.05
35.46
24.28
8.89
-9.83
-30.06
-49.93
-68.36
-85.23
-100.81
-115.04
-127.15
-135.82
-139.76
-138.38
-132.01
-121.79
-109.35
-96.31
-83.86
-72.39
-61.28
-49.08
-34.1
-15.27
7.05
31.03
53.86
72.87
86.52
94.7
98.31
98.34
95.36
89.44
80.75
70.05
59.02
49.65
43.55
41.12
41.41
42.45
42.03
38.53
31.23
20.32
6.64
-8.61
-23.97
-37.82
-48.5
-54.62
-55.43
-51.08
-42.5
-31.04
-18.02
-4.47
8.8
20.9
30.71
36.96
38.56
35.17
27.4
16.79
5.29
-5.29
-13.68
-19.4
-22.68
-24.23
-24.96
-25.82
-27.55
-30.57
-34.96
-40.54
-47.04
-54.21
-61.89
-69.89
-77.81
-85.02
-90.57
-93.45
-92.8
-88.18
-79.74
-68.16
-54.6
-40.38
-26.78
-14.8
-5.05
2.29
7.4
10.78
13.09
15.09
17.43
20.55
24.44
28.69
32.6
35.62
37.7
39.41
41.81
45.87
51.98
59.65
67.52
73.94
77.51
77.58
74.38
68.65
61.24
52.82
43.79
34.35
24.68
14.96
5.35
-4.07
-13.05
-20.98
-26.87
-29.58
-28.5
-24.21
-18.81
-15.41
-16.78
-23.97
-35.39
-47.19
-54.61
-53.81
-43.2
-23.69
2.08
30.95
60.17
87.6
111.22
128.74
137.78
136.62
125.15
105.34
80.73
55.13
31.35
10.41
-8.1
-25.14
-41.08
-55.08
-65.48
-70.63
-69.83
-63.77
-54.3
-43.62
-33.43
-24.49
-16.62
-9.23
-1.82
5.76
13.26
20.18
25.73
28.83
28.08
22.29
11.16
-3.98
-20.08
-33.1
-39.45
-37.34
-27.36
-12.18
4.6
19.69
30.95
37.56
39.6
37.69
32.74
25.87
18.43
11.8
7.13
5.12
5.92
9.17
14.08
19.62
24.74
28.69
31.24
32.74
33.91
35.48
37.83
40.76
43.69
46.05
47.56
48.38
48.78
48.67
47.3
43.34
35.33
22.33
4.29
-17.85
-42.45
-67.47
-90.94
-111.07
-126.37
-135.67
-138.24
-134.11
-124.25
-110.62
-95.83
-82.55
-72.81
-67.49
-66.21
-67.62
-69.95
-71.54
-71.15
-67.99
-61.71
-52.47
-40.94
-28.37
-16.21
-5.6
3.14
10.71
18.42
27.42
38.09
49.82
61.3
71.07
78.03
81.61
81.73
78.64
72.82
64.98
56.01
46.81
38.22
30.92
25.47
22.23
21.36
22.55
25.0
27.55
29.06
28.89
27.11
24.32
21.31
18.6
16.3
14.19
11.9
9.05
5.2
-0.27
-8.09
-19.03
-33.49
-51.27
-71.42
-92.39
-112.25
-129.03
-141.08
-147.23
-146.93
-140.19
-127.54
-109.87
-88.33
-64.31
-39.31
-14.78
8.09
28.6
46.66
62.62
76.82
89.27
99.32
105.89
107.93
104.97
97.49
86.85
74.89
63.4
53.62
46.0
40.31
35.84
31.85
27.81
23.44
18.68
13.5
7.82
1.59
-5.16
-12.03
-18.26
-22.88
-24.95
-23.84
-19.4
-11.89
-1.93
9.66
21.85
33.5
43.47
50.78
54.86
55.61
53.38
48.87
43.0
36.74
30.95
26.2
22.57
19.53
15.95
10.37
1.51
-11.31
-27.8
-46.68
-65.98
-83.56
-97.69
-107.43
-112.72
-114.14
-112.67
-109.33
-105.1
-100.76
-96.89
-93.76
-91.08
-88.0
-83.16
-75.17
-63.02
-46.49
-26.28
-3.78
19.31
41.26
60.62
76.3
87.65
94.56
97.44
97.18
94.94
91.9
88.97
86.64
84.9
83.28
81.05
77.42
71.76
63.75
53.56
41.78
29.3
16.99
5.46
-4.97
-14.14
-21.69
-26.83
-28.5
-25.77
-18.59
-8.08
3.68
14.48
22.86
28.54
32.15
34.47
35.63
35.03
31.71
25.13
15.6
4.06
-8.48
-21.53
-35.3
-50.32
-66.75
-83.84
-99.91
-112.84
-120.73
-122.56
-118.37
-108.93
-95.33
-78.49
-59.22
-38.53
-17.99
0.41
14.81
24.4
29.94
33.6
37.98
44.91
54.66
66.03
77.2
86.68
93.86
98.78
101.62
102.13
99.7
93.69
84.1
71.8
58.38
45.61
34.68
25.94
18.93
12.85
7.0
1.19
-4.35
-9.13
-12.78
-15.19
-16.51
-17.03
-17.07
-16.76
-15.93
-14.15
-10.81
-5.44
2.07
11.33
21.55
31.84
41.61
50.8
59.72
68.68
77.61
85.87
92.28
95.5
94.27
87.74
75.57
57.89
35.37
9.14
-19.23
-47.96
-75.16
-99.14
-118.73
-133.43
-143.5
-149.7
-153.0
-154.16
-153.62
-151.51
-147.91
-143.04
-137.15
-130.29
-121.96
-111.16
-96.86
-78.66
-57.21
-34.24
-11.91
7.91
24.28
37.24
47.47
55.67
62.3
67.51
71.37
74.15
76.28
78.2
79.98
81.07
80.23
75.85
66.59
52.03
33.14
12.25
-7.61
-23.58
-33.84
-38.1
-37.47
-33.93
-29.57
-26.12
-24.62
-25.45
-28.28
-32.2
-35.83
-37.61
-36.24
-31.17
-22.87
-12.7
-2.4
6.49
13.02
16.89
18.03
16.31
11.3
2.66
-9.45
-23.99
-39.24
-53.29
-64.74
-72.87
-77.59
-78.89
-76.48
-69.76
-58.24
-42.24
-23.29
-4.03
12.57
24.22
30.11
31.23
29.86
28.64
29.72
34.14
41.82
51.91
63.15
74.24
83.91
91.06
95.0
95.71
93.87
90.68
87.37
84.7
82.74
80.96
78.52
74.64
68.86
61.04
51.32
40.0
27.53
14.51
1.64
-10.26
-20.48
-28.46
-33.9
-36.74
-37.14
-35.47
-32.19
-27.76
-22.59
-16.91
-10.81
-4.27
2.82
10.62
19.17
28.29
37.57
46.31
53.6
58.42
59.95
57.84
52.55
45.37
38.15
32.58
29.5
28.51
27.95
25.47
18.69
5.9
-13.57
-39.38
-70.29
-104.34
-139.1
-172.0
-200.93
-224.65
-242.92
-256.03
-264.15
-266.75
-262.56
-250.2
-229.19
-200.61
-167.1
-131.96
-98.04
-66.9
-38.62
-12.48
12.22
35.43
56.28
73.62
86.59
95.22
100.34
103.22
105.0
106.12
106.34
105.02
101.66
96.34
89.79
83.13
77.4
73.1
70.2
68.4
67.51
67.73
69.37
72.54
76.71
80.59
82.56
81.32
76.46
68.69
59.49
50.5
42.81
36.55
30.88
24.34
15.52
3.65
-10.91
-26.72
-41.61
-53.57
-61.36
-64.91
-65.08
-63.03
-59.67
-55.37
-50.2
-44.31
-38.17
-32.39
-27.17
-21.92
-15.22
-5.52
8.07
25.12
43.78
61.36
75.22
83.62
86.13
83.63
78.0
71.45
66.03
63.13
63.17
65.63
69.29
72.73
74.89
75.31
74.12
71.76
68.67
65.2
61.59
58.04
54.54
50.68
45.46
37.61
26.21
11.46
-5.14
-21.19
-34.38
-43.4
-48.37
-50.53
-51.4
-52.01
-52.53
-52.46
-51.2
-48.57
-45.05
-41.68
-39.77
-40.41
-44.12
-50.53
-58.34
-65.69
-70.76
-72.45
-70.73
-66.48
-61.03
-55.63
-51.14
-48.06
-46.65
-47.06
-49.14
-52.16
-54.66
-54.64
-50.22
-40.32
-25.22
-6.57
13.11
31.18
45.6
55.34
60.35
61.27
59.21
55.43
51.21
47.69
45.57
45.06
45.66
46.32
45.64
42.35
35.72
25.83
13.67
0.8
-11.14
-20.91
-27.97
-32.4
-34.61
-35.01
-33.77
-30.81
-25.95
-19.19
-10.85
-1.61
7.69
16.14
23.03
27.94
30.87
32.15
32.27
31.7
30.66
29.1
26.85
23.7
19.59
14.59
8.94
3.14
-2.08
-5.89
-7.59
-6.98
-4.53
-1.36
1.06
1.32
-1.61
-8.23
-18.41
-31.42
-45.84
-59.71
-70.81
-77.26
-77.9
-72.7
-62.6
-49.12
-33.98
-18.78
-4.93
6.39
14.36
18.72
19.94
19.24
18.28
18.77
21.88
27.91
36.0
44.24
50.15
51.52
47.19
37.67
24.91
11.64
0.2
-8.14
-13.42
-16.48
-18.2
-19.01
-18.93
-17.81
-15.66
-12.69
-9.04
-4.8
-0.06
4.89
9.33
12.32
13.21
12.11
10.0
8.37
8.43
10.46
13.63
16.27
16.66
13.72
7.33
-1.78
-12.5
-23.91
-35.48
-47.16
-58.94
-70.57
-81.41
-90.66
-97.69
-102.33
-104.95
-106.3
-107.21
-108.17
-109.17
-109.67
-108.78
-105.53
-99.22
-89.71
-77.37
-63.0
-47.54
-31.78
-16.26
-1.42
12.28
24.29
34.01
41.16
46.01
49.36
52.26
55.61
59.65
63.87
67.22
68.52
66.88
62.03
54.33
44.68
34.2
23.94
14.86
7.78
3.56
3.06
6.99
15.41
27.46
41.44
55.16
66.78
75.31
80.83
84.2
86.51
88.58
90.85
93.54
96.79
100.55
104.32
106.75
105.79
99.27
85.79
65.45
40.05
12.46
-14.39
-38.34
-58.47
-74.8
-87.75
-97.59
-104.18
-107.28
-107.0
-104.04
-99.65
-95.14
-91.35
-88.26
-85.05
-80.5
-73.53
-63.55
-50.54
-34.84
-17.0
2.33
22.26
41.58
58.77
72.36
81.36
85.65
85.98
83.64
79.96
75.84
71.6
67.1
61.98
55.95
48.95
41.13
32.87
24.64
16.99
10.4
5.22
1.5
-0.96
-2.47
-3.3
-3.51
-2.83
-0.86
2.73
8.0
14.62
21.97
29.27
35.78
40.93
44.31
45.66
44.88
42.13
37.89
33.1
28.89
26.32
25.93
27.33
29.2
29.52
26.28
18.18
5.08
-11.88
-30.57
-48.6
-63.89
-75.1
-81.8
-84.29
-83.43
-80.39
-76.47
-72.95
-70.91
-70.91
-72.92
-76.27
-79.96
-82.87
-84.03
-82.75
-78.54
-71.22
-60.9
-48.18
-34.18
-20.43
-8.41
0.86
7.21
11.31
14.21
16.89
19.84
23.02
26.17
29.06
31.72
34.25
36.59
38.21
38.2
35.7
30.33
22.48
13.21
3.94
-4.0
-9.56
-12.14
-11.48
-7.64
-1.01
7.66
17.24
26.39
33.79
38.5
40.17
39.12
36.1
31.88
26.88
20.85
13.02
2.49
-11.2
-27.64
-45.51
-63.02
-78.45
-90.64
-99.0
-103.36
-103.65
-99.84
-92.11
-81.11
-68.09
-54.75
-42.66
-32.69
-24.62
-17.27
-9.0
1.46
14.56
29.77
45.81
61.19
74.61
85.23
92.77
97.45
99.87
100.77
100.79
100.29
99.22
97.17
93.53
87.87
80.02
70.23
59.06
47.2
35.3
23.73
12.52
1.41
-9.88
-21.37
-32.67
-42.92
-51.08
-56.33
-58.41
-57.72
-55.0
-50.96
-45.89
-39.69
-32.18
-23.54
-14.52
-6.29
0.06
3.99
5.72
6.04
5.69
4.87
3.05
-0.73
-7.27
-16.64
-28.05
-40.12
-51.41
-60.86
-68.02
-73.0
-76.1
-77.58
-77.49
-75.73
-72.33
-67.51
-61.72
-55.44
-48.93
-42.16
-34.78
-26.34
-16.4
-4.67
8.92
24.21
40.69
57.49
73.47
87.46
98.6
106.68
112.18
115.95
118.69
120.57
121.16
119.72
115.64
108.77
99.6
89.11
78.39
68.28
58.99
50.01
40.23
28.43
13.84
-3.55
-22.88
-42.7
-61.39
-77.57
-90.36
-99.48
-105.2
-108.22
-109.37
-109.13
-107.36
-103.23
-95.73
-84.4
-70.04
-54.79
-41.55
-32.85
-29.9
-32.26
-38.19
-45.38
-51.63
-55.15
-54.74
-49.93
-41.08
-29.35
-16.34
-3.47
8.68
20.39
32.46
45.46
59.31
73.15
85.79
96.18
103.7
108.09
109.18
106.81
100.81
91.27
78.56
63.42
46.8
29.9
14.08
0.76
-8.81
-13.93
-14.78
-12.32
-8.09
-3.62
0.03
2.35
3.32
3.14
2.02
0.1
-2.45
-5.41
-8.47
-11.29
-13.59
-15.16
-15.89
-15.78
-14.95
-13.65
-12.33
-11.66
-12.43
-15.33
-20.78
-28.66
-38.29
-48.35
-57.0
-62.11
-61.67
-54.42
-40.55
-21.99
-2.13
15.15
26.58
30.45
26.87
17.29
3.75
-11.81
-27.83
-42.96
-55.84
-65.07
-69.57
-68.94
-63.64
-54.96
-44.84
-35.48
-28.94
-26.64
-28.78
-34.05
-39.91
-43.4
-42.34
-36.14
-25.88
-13.59
-1.27
10.05
20.42
30.63
41.59
53.82
67.3
81.5
95.38
107.49
116.2
120.14
118.67
112.23
102.19
90.37
78.38
67.25
57.36
48.79
41.52
35.55
30.85
27.28
24.72
23.23
23.34
25.89
31.56
40.29
51.11
62.34
72.04
78.7
81.82
82.02
80.85
80.25
82.1
87.89
98.43
113.41
131.39
149.88
166.07
177.63
183.22
182.96
178.37
171.62
164.21
156.0
145.06
129.0
106.25
76.56
41.18
2.1
-39.02
-81.88
-127.04
-174.67
-222.67
-266.87
-303.47
-330.43
-347.75
-356.71
-360.12
-361.71
-365.6
-373.9
-386.24
-401.39
-416.99
-429.83
-436.33
-434.59
-424.06
-404.81
-374.63
-329.82
-269.28
-195.16
-111.91
-23.63
66.08
157.15
240.15
301.52
340.15
360.6
368.26
362.49
347.09
327.22
307.32
289.1
273.05
259.02
244.84
228.25
208.28
186.3
163.75
141.56
119.52
97.92
77.2
55.98
31.92
3.03
-30.65
-67.63
-104.8
-138.01
-162.13
-172.59
-167.88
-149.66
-121.92
-89.28
-56.59
-28.03
-6.44
7.46
15.13
19.08
22.35
27.53
36.08
47.52
59.82
70.4
77.39
80.28
79.53
76.03
70.64
64.02
56.68
49.24
42.48
37.04
33.23
30.74
28.84
26.67
23.76
20.36
17.59
17.0
20.06
27.44
38.57
51.77
64.78
75.53
82.92
87.01
88.74
89.27
89.3
88.73
86.75
82.21
74.06
61.77
45.5
26.08
4.78
-16.98
-38.05
-57.81
-76.22
-93.83
-111.54
-130.2
-150.15
-170.88
-190.83
-207.8
-219.47
-224.19
-221.47
-212.07
-197.56
-179.82
-160.55
-141.14
-122.78
-106.45
-92.85
-82.02
-73.18
-64.83
-55.25
-43.26
-28.6
-12.09
4.78
20.41
33.6
43.78
50.96
55.53
57.99
58.87
58.58
57.41
55.47
52.65
48.69
43.38
36.79
29.36
21.9
15.37
10.76
8.96
10.67
16.25
25.6
38.02
52.12
66.1
78.18
87.21
92.97
96.19
98.05
99.57
101.18
102.56
102.95
101.46
97.43
90.53
80.72
68.17
53.18
36.09
17.32
-2.7
-23.56
-44.86
-66.15
-86.86
-106.26
-123.59
-138.35
-150.22
-159.01
-164.43
-165.96
-163.03
-155.45
-143.75
-129.29
-113.83
-98.97
-85.59
-73.74
-62.84
-52.07
-40.65
-27.91
-13.39
3.15
21.53
41.02
60.45
78.56
94.34
107.36
117.67
125.59
131.44
135.38
137.39
137.42
135.53
131.9
126.89
120.99
114.72
108.61
103.03
98.04
93.51
89.12
84.61
80.01
75.72
72.46
71.02
71.86
74.86
79.2
83.59
86.69
87.58
85.97
82.17
76.82
70.66
64.27
58.03
51.91
45.36
37.22
25.91
9.93
-11.51
-38.09
-68.4
-100.78
-134.43
-170.08
-209.68
-254.97
-305.64
-358.3
-406.91
-444.79
-467.03
-472.2
-462.19
-440.59
-410.49
-373.09
-327.91
-274.18
-212.5
-145.64
-78.02
-14.31
42.03
89.32
127.48
157.2
179.3
194.37
202.91
205.76
204.33
200.49
196.08
192.26
189.19
186.07
181.64
174.92
165.68
154.62
142.97
131.96
122.41
114.52
108.17
103.11
99.23
96.49
94.93
94.48
94.98
96.18
97.72
99.09
99.62
98.61
95.56
90.28
83.0
74.13
63.98
52.4
38.66
21.6
0.2
-25.93
-56.14
-88.74
-121.43
-151.75
-177.68
-197.82
-211.39
-218.0
-217.5
-209.98
-195.95
-176.57
-153.65
-129.4
-105.96
-84.91
-66.97
-51.96
-39.01
-26.9
-14.39
-0.62
14.74
31.33
48.23
64.19
77.97
88.65
95.86
99.78
100.93
99.99
97.48
93.72
88.85
82.94
76.15
68.73
60.98
53.11
45.21
37.23
29.18
21.24
13.89
7.8
3.58
1.49
1.28
2.45
4.44
6.9
9.59
12.19
14.09
14.48
12.67
8.53
2.61
-4.04
-10.33
-15.54
-19.56
-22.72
-25.61
-28.79
-32.67
-37.46
-43.15
-49.51
-56.14
-62.65
-68.68
-73.93
-78.0
-80.19
-79.63
-75.64
-68.08
-57.56
-45.24
-32.31
-19.45
-6.68
6.42
20.22
34.66
49.23
63.11
75.53
85.89
93.87
99.29
102.16
102.57
100.84
97.35
92.57
86.85
80.43
73.41
65.81
57.66
49.09
40.38
31.92
24.13
17.39
11.93
7.89
5.42
4.87
6.68
11.12
18.0
26.44
35.03
42.2
46.75
48.2
46.73
42.98
37.57
30.95
23.34
14.92
5.99
-2.86
-10.94
-17.65
-22.84
-27.0
-31.22
-36.83
-45.02
-56.39
-70.79
-87.46
-105.28
-122.94
-139.02
-152.05
-160.63
-163.71
-160.94
-152.76
-140.27
-124.8
-107.44
-88.79
-69.07
-48.4
-27.05
-5.56
15.35
34.9
52.41
67.2
78.64
86.23
89.75
89.43
86.02
80.63
74.52
68.8
64.18
60.82
58.35
55.92
52.49
47.06
39.12
28.85
17.27
5.87
-3.9
-11.11
-15.49
-17.26
-16.64
-13.57
-7.85
0.48
10.81
21.81
31.71
38.86
42.2
41.51
37.18
29.92
20.4
9.25
-2.9
-15.22
-26.74
-36.61
-44.5
-50.78
-56.51
-62.98
-71.18
-81.27
-92.47
-103.32
-112.23
-117.97
-119.98
-118.37
-113.69
-106.65
-97.9
-87.83
-76.61
-64.3
-51.05
-37.19
-23.24
-9.71
3.12
15.29
27.08
38.67
49.8
59.76
67.55
72.31
73.75
72.28
68.86
64.64
60.55
57.06
54.13
51.38
48.41
44.99
41.2
37.37
33.96
31.44
30.22
30.63
32.9
37.07
42.95
50.08
57.82
65.55
72.84
79.47
85.31
90.19
93.72
95.4
94.82
91.93
87.12
81.16
74.87
68.93
63.68
59.06
54.66
49.76
43.46
34.82
23.12
8.17
-9.63
-29.43
-50.29
-71.53
-92.84
-114.03
-134.68
-153.89
-170.47
-183.3
-191.7
-195.66
-195.59
-192.02
-185.23
-175.11
-161.27
-143.32
-121.21
-95.41
-66.94
-37.18
-7.52
20.9
47.29
71.23
92.35
110.27
124.46
134.53
140.38
142.38
141.19
137.43
131.43
123.23
112.71
99.85
84.93
68.49
51.33
34.44
18.95
5.96
-3.6
-9.25
-11.17
-10.21
-7.76
-5.43
-4.63
-6.28
-10.67
-17.42
-25.64
-34.09
-41.43
-46.47
-48.53
-47.61
-44.46
-40.44
-37.26
-36.57
-39.64
-47.16
-59.15
-75.03
-93.81
-114.22
-134.82
-154.06
-170.29
-181.88
-187.47
-186.15
-177.63
-162.33
-141.23
-115.7
-87.19
-57.02
-26.16
4.76
35.42
65.51
94.51
121.51
145.26
164.42
178.0
185.64
187.8
185.52
180.12
172.75
164.21
154.91
144.98
134.45
123.31
111.53
99.08
85.96
72.28
58.43
45.13
33.43
24.44
18.98
17.25
18.71
22.26
26.63
30.73
33.96
36.19
37.63
38.58
39.31
40.08
41.17
42.92
45.66
49.52
54.08
58.19
60.04
57.5
48.65
32.46
9.11
-20.01
-52.71
-86.61
-119.71
-150.67
-178.75
-203.52
-224.58
-241.44
-253.62
-260.82
-263.07
-260.67
-254.0
-243.32
-228.79
-210.66
-189.55
-166.48
-142.69
-119.19
-96.42
-74.1
-51.57
-28.22
-3.94
20.8
45.01
67.64
87.83
105.11
119.35
130.56
138.75
143.92
146.08
145.46
142.57
138.14
132.9
127.36
121.6
115.42
108.55
100.93
92.74
84.21
75.38
66.16
56.47
46.68
37.64
30.43
25.73
23.39
22.32
20.94
17.88
12.6
5.52
-2.16
-9.0
-13.8
-15.86
-15.12
-12.14
-8.12
-4.73
-3.79
-6.84
-14.54
-26.49
-41.25
-56.72
-70.6
-80.81
-85.78
-84.67
-77.56
-65.42
-49.98
-33.29
-17.2
-2.89
9.31
19.7
28.86
37.22
44.86
51.46
56.59
59.82
60.95
59.98
57.14
52.94
48.15
43.67
40.32
38.59
38.49
39.55
40.95
41.79
41.27
38.88
34.53
28.59
21.82
15.18
9.53
5.38
2.88
1.86
2.05
3.14
4.75
6.38
7.45
7.42
5.96
3.09
-0.99
-6.09
-12.12
-18.97
-26.32
-33.48
-39.51
-43.63
-45.58
-45.8
-45.33
-45.51
-47.63
-52.63
-60.94
-72.29
-85.7
-99.54
-111.76
-120.27
-123.3
-119.81
-109.65
-93.64
-73.45
-51.26
-29.35
-9.57
6.98
20.1
30.24
38.14
44.46
49.58
53.58
56.33
57.52
56.86
54.11
49.33
42.96
35.81
28.94
23.42
20.07
19.24
20.81
24.09
27.96
31.12
32.39
31.12
27.48
22.41
17.28
13.54
12.26
13.98
18.73
26.03
34.86
43.76
51.09
55.44
56.07
53.06
47.09
38.99
29.3
18.27
5.93
-7.56
-21.86
-36.41
-50.61
-63.73
-74.91
-83.18
-87.68
-88.18
-85.33
-80.54
-75.34
-70.64
-66.39
-61.86
-56.29
-49.56
-42.27
-35.39
-29.57
-24.81
-20.45
-15.68
-10.0
-3.35
3.94
11.55
19.19
26.58
33.29
38.66
41.96
42.76
41.03
37.24
32.07
26.3
20.66
15.87
12.59
11.28
12.02
14.36
17.48
20.5
22.91
24.68
26.11
27.59
29.34
31.49
34.3
38.24
43.82
51.15
59.67
68.1
74.87
78.78
79.49
77.55
74.05
70.08
66.25
62.62
58.76
54.06
47.93
39.86
29.48
16.66
1.53
-15.45
-33.46
-51.37
-67.82
-81.46
-91.09
-95.88
-95.39
-89.61
-78.92
-64.14
-46.56
-27.89
-9.98
5.63
17.91
26.53
31.47
32.84
30.65
24.85
15.47
2.69
-13.01
-30.84
-49.68
-68.06
-84.3
-96.73
-104.14
-106.13
-103.33
-97.12
-89.09
-80.46
-71.77
-63.12
-54.49
-46.02
-38.0
-30.57
-23.7
-17.25
-11.26
-6.0
-1.78
1.41
4.19
7.72
13.21
21.24
31.45
42.59
53.14
61.99
68.76
73.71
77.33
79.98
81.61
81.84
80.09
75.69
68.15
57.32
43.59
27.9
11.67
-3.53
-16.37
-26.06
-32.52
-36.34
-38.54
-40.1
-41.68
-43.36
-44.75
-45.3
-44.62
-42.72
-39.91
-36.55
-32.84
-28.73
-24.16
-19.25
-14.35
-9.98
-6.63
-4.53
-3.57
-3.28
-2.94
-1.8
0.66
4.51
9.28
14.0
17.53
18.96
17.94
14.9
10.86
7.06
4.51
3.65
4.41
6.47
9.56
13.65
18.88
25.31
32.73
40.51
47.83
53.96
58.64
62.09
64.8
67.03
68.64
69.0
67.38
63.28
56.73
48.4
39.26
30.28
22.07
14.82
8.4
2.62
-2.61
-7.23
-11.19
-14.56
-17.54
-20.34
-22.91
-24.92
-25.75
-24.69
-21.16
-15.09
-6.92
2.46
11.9
20.39
27.32
32.61
36.57
39.73
42.5
45.07
47.39
49.21
50.05
49.17
45.67
38.81
28.45
15.44
1.39
-11.83
-22.93
-31.69
-38.86
-45.65
-53.08
-61.54
-70.66
-79.58
-87.12
-92.03
-93.14
-89.56
-80.82
-67.19
-49.62
-29.54
-8.41
12.66
33.05
52.48
70.82
87.88
103.38
117.03
128.68
138.4
146.48
153.21
158.65
162.51
164.33
163.7
160.69
155.84
149.94
143.4
135.73
125.12
108.67
83.18
46.36
-2.14
-60.25
-123.7
-186.77
-243.09
-286.53
-312.01
-316.63
-300.58
-267.66
-224.8
-180.4
-142.05
-114.46
-98.67
-92.57
-92.43
-94.46
-95.69
-94.12
-88.44
-78.01
-63.17
-45.5
-27.6
-12.29
-1.57
4.13
5.97
6.03
6.25
7.75
10.71
14.82
19.75
25.35
31.51
37.81
43.41
47.35
49.0
48.39
46.11
42.82
38.82
33.99
28.01
20.81
12.77
4.65
-2.64
-8.29
-11.69
-12.42
-10.17
-4.82
3.44
14.09
26.22
38.68
50.13
59.3
65.11
66.85
64.41
58.24
49.04
37.45
23.81
8.25
-8.88
-26.63
-43.41
-57.41
-67.2
-72.3
-73.18
-70.89
-66.52
-60.8
-53.95
-46.02
-37.07
-27.39
-17.41
-7.52
2.0
11.02
19.45
27.11
33.79
39.24
43.27
45.83
46.99
47.0
46.26
45.33
44.86
45.4
47.3
50.5
54.48
58.39
61.26
62.34
61.32
58.34
53.89
48.58
42.96
37.48
32.53
28.46
25.54
23.84
23.1
22.85
22.63
22.15
21.32
20.08
18.14
14.89
9.57
1.65
-8.95
-21.7
-35.68
-49.75
-62.8
-73.78
-81.73
-85.82
-85.66
-81.61
-74.92
-67.51
-61.3
-57.51
-56.21
-56.4
-56.56
-55.48
-52.73
-48.79
-44.47
-40.35
-36.4
-32.14
-27.11
-21.43
-15.85
-11.41
-8.88
-8.28
-8.88
-9.52
-9.07
-6.9
-2.94
2.32
7.98
12.88
15.84
15.99
13.16
8.09
2.36
-2.06
-3.5
-1.06
5.13
14.25
25.14
36.77
48.32
59.21
68.9
76.84
82.61
86.08
87.65
88.05
88.15
88.65
89.83
91.6
93.61
95.52
97.15
98.54
99.85
101.17
102.48
103.54
104.04
103.62
101.99
98.82
93.74
86.22
75.76
61.96
44.69
24.24
1.2
-23.62
-49.36
-75.14
-100.1
-123.36
-144.1
-161.59
-175.3
-184.87
-190.08
-190.93
-187.66
-180.73
-170.88
-158.89
-145.47
-131.11
-116.05
-100.32
-83.97
-67.19
-50.49
-34.71
-20.87
-9.94
-2.45
1.79
3.78
4.91
6.34
8.45
10.67
11.87
11.01
7.62
1.88
-5.57
-14.1
-23.27
-32.87
-42.94
-53.71
-65.52
-78.66
-93.03
-107.82
-121.28
-130.84
-133.56
-126.98
-109.86
-82.84
-48.66
-11.76
22.58
49.63
66.5
72.99
71.39
65.49
58.99
54.35
52.28
52.07
52.37
51.9
49.83
45.96
40.72
35.06
30.14
27.01
26.21
27.57
30.34
33.57
36.48
38.67
40.04
40.58
40.3
39.3
37.89
36.52
35.57
35.02
34.3
32.49
28.74
22.67
14.75
6.23
-1.2
-5.89
-6.82
-3.88
2.15
9.87
17.87
25.2
31.63
37.67
44.23
52.15
61.8
72.84
84.31
94.88
103.25
108.51
110.44
109.38
106.03
101.09
95.1
88.44
81.42
74.54
68.39
63.53
60.21
58.21
56.82
55.07
52.03
47.01
39.78
30.5
19.88
9.13
-0.13
-6.12
-7.28
-2.92
6.46
19.1
32.41
43.77
51.39
54.82
54.87
53.18
51.48
50.92
51.7
52.94
52.76
48.81
38.72
20.75
-5.83
-40.68
-82.42
-128.81
-177.12
-224.5
-268.47
-307.35
-340.46
-367.94
-390.13
-406.98
-417.7
-421.01
-415.69
-401.21
-377.95
-346.96
-309.53
-266.82
-219.75
-169.13
-115.74
-60.37
-3.94
52.41
106.96
157.48
201.5
237.06
263.29
280.61
290.3
293.73
291.92
285.45
274.73
260.39
243.32
224.33
203.76
181.39
156.56
128.79
98.42
66.87
36.35
9.32
-12.27
-27.29
-35.58
-38.04
-36.46
-33.15
-30.24
-28.91
-28.69
-27.38
-21.56
-8.1
14.3
44.19
77.65
109.79
136.43
155.15
165.24
167.42
162.7
151.59
134.1
110.02
79.58
43.64
3.42
-39.77
-83.71
-125.22
-160.71
-187.39
-204.2
-212.41
-215.42
-218.32
-226.39
-242.05
-263.8
-286.77
-304.86
-312.53
-306.38
-285.59
-252.22
-210.21
-162.29
-108.99
-49.32
17.35
90.51
168.4
249.51
332.74
407.63
459.43
476.76
459.08
414.63
354.0
285.85
218.38
158.62
110.53
75.31
51.09
34.28
20.97
9.0
-3.29
-15.79
-28.62
-43.08
-59.99
-79.39
-99.93
-119.93
-133.05
-139.28
-140.1
-138.03
-136.06
-135.89
-138.25
-142.04
-148.5
-154.18
-157.75
-158.67
-157.64
-156.39
-156.76
-161.43
-172.37
-190.55
-214.71
-242.36
-268.22
-286.05
-291.27
-276.02
-240.29
-189.42
-131.81
-75.15
-24.94
17.75
55.29
91.46
129.26
168.34
205.8
236.69
255.52
257.45
240.83
208.36
166.97
125.93
93.53
75.99
76.33
94.7
128.87
175.14
228.35
281.86
327.86
358.08
366.19
349.3
308.42
247.59
172.56
89.53
4.81
-74.97
-143.03
-192.86
-219.75
-222.48
-204.22
-171.86
-133.86
-97.6
-67.6
-45.29
-29.92
-20.05
-14.36
-11.75
-11.21
-12.01
-14.35
-19.72
-30.22
-47.0
-68.33
-88.92
-101.08
-97.6
-74.76
-34.23
17.34
70.39
115.04
142.8
147.57
126.43
80.68
16.92
-53.08
-114.32
-152.88
-160.69
-138.7
-96.49
-48.31
-7.35
18.77
29.51
29.16
22.87
13.55
1.09
-15.73
-36.61
-58.32
-75.8
-84.76
-84.03
-75.89
-64.18
-51.32
-36.48
-16.23
13.02
52.07
97.3
141.15
174.29
188.33
177.87
141.84
83.98
12.75
-59.68
-119.61
-155.07
-159.4
-133.55
-86.02
-29.91
21.66
59.78
81.79
90.43
90.84
87.49
82.51
75.95
67.17
56.27
44.34
32.88
23.04
15.41
10.37
9.1
13.86
27.27
50.75
83.04
119.42
152.25
172.56
172.44
147.39
98.26
32.07
-38.93
-100.07
-138.27
-146.13
-124.43
-81.9
-32.04
11.62
40.07
51.2
49.32
42.13
36.73
36.68
41.18
46.35
47.74
42.57
30.73
14.26
-3.98
-21.48
-36.54
-47.94
-54.24
-53.76
-44.86
-27.04
-1.85
26.51
51.56
65.88
62.92
38.9
-5.88
-66.51
-134.2
-198.11
-247.8
-275.64
-278.26
-256.98
-216.84
-164.89
-108.25
-52.7
-2.09
41.33
76.05
100.71
113.94
115.05
104.98
86.75
65.11
45.22
31.09
24.3
24.02
27.9
33.66
40.3
48.48
59.82
75.54
95.11
115.48
131.47
136.87
126.38
97.31
50.75
-8.0
-70.31
-125.95
-165.31
-181.41
-171.61
-138.08
-87.43
-29.14
26.85
72.4
102.89
117.37
117.62
106.55
87.06
61.77
33.48
5.5
-18.58
-36.0
-45.96
-49.93
-50.75
-50.74
-50.1
-46.56
-36.69
-18.19
8.15
37.82
63.68
78.31
76.3
55.82
19.03
-28.5
-78.81
-123.03
-153.01
-162.95
-151.0
-119.82
-75.92
-27.56
17.92
56.22
86.56
110.33
128.92
141.92
146.92
141.08
123.26
95.56
63.28
33.34
11.93
2.45
4.56
14.73
27.95
39.78
48.11
53.62
58.83
65.96
74.74
81.57
80.47
65.41
33.02
-15.68
-75.14
-136.65
-190.51
-228.12
-243.6
-234.78
-203.75
-156.5
-101.68
-48.42
-3.8
28.84
50.06
62.71
69.69
72.43
70.87
64.67
54.48
42.26
30.48
20.74
12.91
5.47
-2.85
-11.55
-18.11
-19.12
-12.25
2.15
20.77
38.28
48.79
47.03
29.37
-5.35
-54.76
-112.36
-168.12
-210.7
-230.6
-223.05
-189.28
-135.66
-71.24
-4.96
56.36
108.35
148.65
176.06
190.02
190.85
180.12
161.22
139.2
119.8
107.83
105.66
112.1
122.85
132.29
135.59
130.54
117.72
99.47
78.23
55.25
30.33
2.4
-29.67
-66.67
-108.94
-156.09
-206.44
-256.27
-299.58
-329.05
-338.15
-323.15
-284.52
-226.71
-156.7
-82.07
-9.77
54.19
104.68
137.69
151.33
146.78
128.44
102.54
74.54
47.39
21.02
-6.03
-34.34
-61.99
-84.5
-96.52
-94.31
-77.73
-50.9
-21.41
1.36
8.68
-5.19
-40.8
-92.57
-149.49
-198.03
-226.14
-226.76
-199.29
-148.56
-82.07
-7.5
68.44
139.81
200.73
245.65
270.67
275.36
263.76
243.02
220.61
201.26
185.65
171.65
157.04
142.05
129.94
125.22
130.6
144.68
161.63
173.07
171.11
151.1
113.3
62.71
7.58
-42.65
-79.42
-96.91
-93.29
-71.22
-37.06
0.97
35.16
60.19
74.06
77.77
74.14
66.36
57.12
48.23
40.66
34.87
30.84
27.88
24.49
18.5
7.87
-8.04
-27.62
-46.74
-59.91
-62.34
-52.08
-31.51
-7.14
12.11
17.6
3.49
-31.28
-82.48
-141.26
-196.05
-235.17
-249.77
-236.28
-197.49
-141.8
-80.65
-25.05
17.26
43.19
53.76
52.22
42.16
26.34
6.47
-16.22
-40.44
-64.7
-87.47
-107.5
-123.81
-135.38
-140.76
-137.98
-125.28
-101.96
-69.37
-31.41
5.85
35.28
50.01
44.85
17.41
-30.81
-93.8
-161.5
-221.44
-261.79
-274.61
-258.01
-216.14
-156.83
-88.3
-17.0
52.61
116.91
171.77
212.63
236.13
242.04
233.88
217.66
199.26
182.33
167.88
155.73
146.24
141.37
143.95
155.64
174.91
196.51
212.6
215.2
198.48
160.43
103.77
35.68
-33.53
-92.68
-132.6
-148.91
-143.43
-123.44
-98.87
-78.49
-67.11
-64.71
-68.11
-73.83
-80.37
-88.63
-100.36
-115.79
-132.26
-144.69
-147.88
-139.0
-118.91
-91.7
-62.35
-34.43
-8.78
15.85
41.06
66.92
91.15
109.63
117.95
112.77
92.43
56.91
7.91
-50.76
-112.72
-169.18
-210.43
-228.33
-218.88
-183.53
-128.61
-63.11
4.01
65.78
117.73
157.37
183.3
195.02
193.3
180.79
161.78
141.13
122.62
107.99
96.91
87.99
80.25
74.04
70.92
72.5
79.23
89.6
100.42
107.76
107.95
98.04
75.81
39.8
-10.11
-71.37
-137.68
-199.19
-244.57
-264.14
-253.02
-212.83
-151.16
-79.24
-8.95
49.62
89.6
107.82
104.74
84.01
51.63
14.62
-20.72
-50.2
-72.15
-86.76
-94.59
-95.48
-88.37
-72.23
-47.56
-17.54
12.16
34.63
43.62
35.17
8.08
-36.09
-93.23
-156.9
-218.77
-269.62
-301.14
-308.28
-290.58
-252.12
-199.59
-139.7
-77.5
-16.18
41.64
92.62
132.45
157.35
166.04
160.93
147.3
131.1
116.42
104.58
94.87
86.55
80.61
79.89
87.56
105.05
130.35
157.98
180.52
190.79
183.6
156.56
110.18
47.95
-23.5
-94.55
-153.83
-190.69
-198.66
-178.05
-136.42
-86.14
-39.81
-5.72
14.26
23.72
28.35
32.17
35.88
37.81
36.25
31.47
25.71
21.71
20.76
22.09
23.7
24.34
24.86
27.74
35.72
49.75
67.92
85.81
97.58
97.29
80.24
44.2
-9.31
-73.97
-139.0
-191.32
-219.0
-215.01
-179.62
-120.43
-50.13
17.26
70.22
102.26
112.64
105.25
86.43
62.66
38.98
18.55
2.83
-7.73
-13.47
-15.35
-15.03
-14.46
-14.94
-16.01
-15.2
-9.04
5.25
27.9
56.22
85.13
108.64
121.08
117.96
96.71
57.83
6.09
-48.97
-94.51
-118.27
-113.44
-82.0
-34.67
13.28
48.36
64.16
62.92
52.83
42.78
37.82
37.67
38.41
35.93
28.46
17.15
4.47
-7.77
-19.38
-31.03
-42.62
-52.2
-56.36
-51.75
-37.22
-14.74
10.83
33.2
46.47
46.39
30.72
-1.02
-47.6
-105.87
-170.2
-232.58
-283.93
-316.27
-325.26
-311.5
-280.03
-238.07
-192.16
-145.88
-99.46
-51.18
0.02
52.67
102.44
143.68
171.81
185.35
186.38
179.6
170.7
164.84
165.55
174.67
192.27
216.77
244.85
271.57
291.1
297.73
287.04
256.53
206.14
138.79
61.01
-16.95
-82.39
-123.47
-133.32
-113.25
-72.6
-25.26
15.76
42.55
53.29
50.09
35.76
11.79
-20.97
-60.13
-100.54
-135.03
-157.21
-164.05
-156.56
-138.12
-112.27
-81.21
-46.35
-10.16
22.68
45.71
52.75
40.09
7.49
-41.92
-102.57
-167.26
-227.79
-275.65
-303.55
-307.17
-286.42
-245.32
-190.25
-127.78
-63.17
-0.4
56.93
104.7
138.52
155.24
154.45
139.3
115.79
90.99
71.07
59.9
58.66
66.26
80.56
99.02
119.11
138.01
152.25
157.51
149.08
123.12
78.29
17.33
-52.65
-121.16
-176.93
-210.81
-218.04
-199.09
-158.76
-104.5
-44.19
15.17
68.16
110.85
140.52
155.73
156.74
146.07
128.32
109.41
95.03
88.98
92.3
103.23
118.45
134.49
148.89
160.18
167.45
169.51
164.65
151.11
127.87
94.94
52.83
2.15
-56.38
-120.85
-186.62
-246.1
-289.85
-309.44
-300.45
-264.12
-207.13
-139.82
-73.45
-17.97
19.89
37.89
38.54
28.29
15.49
7.41
7.9
16.83
31.53
49.3
69.23
91.94
117.99
146.19
173.14
194.33
206.0
206.31
194.97
172.27
138.22
93.2
39.91
-15.07
-61.8
-90.27
-94.86
-77.65
-48.21
-19.94
-4.43
-6.9
-24.84
-50.29
-74.28
-90.94
-99.41
-102.79
-105.04
-107.87
-109.27
-104.83
-90.71
-66.66
-36.98
-8.56
12.95
26.29
35.34
46.38
63.69
86.35
108.2
120.92
118.34
99.04
65.94
23.4
-25.44
-79.11
-136.11
-192.39
-240.69
-272.23
-280.19
-262.59
-222.78
-167.4
-103.62
-37.33
26.81
83.95
128.31
154.32
159.08
144.43
116.9
84.97
55.65
32.63
16.98
9.6
12.66
28.84
58.22
95.86
131.86
154.78
156.72
136.58
99.38
52.35
0.38
-55.6
-116.7
-181.81
-244.64
-294.47
-320.24
-315.43
-280.66
-223.14
-153.52
-82.73
-20.34
25.57
48.31
43.45
10.95
-42.99
-106.24
-163.82
-202.38
-214.12
-198.23
-159.47
-105.13
-42.24
23.77
88.35
146.3
190.95
214.88
212.27
181.9
129.04
64.89
3.73
-41.36
-62.14
-57.08
-30.6
9.64
55.57
100.61
139.99
170.19
188.29
192.11
181.15
157.48
125.99
93.46
66.53
49.58
43.45
45.5
51.08
55.78
57.04
54.94
51.46
49.03
49.04
50.84
51.66
47.37
33.6
6.94
-33.67
-86.2
-145.07
-201.99
-247.68
-274.16
-276.64
-254.58
-211.41
-153.63
-89.41
-27.23
25.41
63.18
83.77
88.33
81.07
68.01
55.35
47.62
46.67
51.51
59.06
65.72
68.99
68.57
66.43
65.95
69.88
78.69
89.55
96.87
94.14
76.08
40.62
-9.99
-69.06
-126.76
-172.2
-196.1
-192.97
-162.56
-109.96
-44.36
23.15
82.08
124.67
147.41
151.17
140.41
121.6
101.14
83.94
72.51
67.28
67.22
70.79
76.37
82.47
87.93
91.94
94.26
94.91
93.7
89.7
80.97
64.71
37.83
-2.0
-55.1
-118.47
-185.47
-246.69
-292.12
-314.22
-310.16
-282.28
-236.74
-180.75
-120.27
-59.63
-2.25
48.36
88.62
116.34
132.17
139.94
145.17
152.48
163.41
176.26
187.84
195.66
199.38
200.4
200.28
199.2
195.65
186.66
168.89
139.77
97.97
43.95
-19.71
-87.79
-152.15
-202.12
-227.82
-223.31
-189.39
-134.17
-71.06
-15.16
21.64
33.86
24.21
0.33
-28.8
-55.83
-76.02
-86.73
-86.95
-76.45
-56.18
-27.58
5.34
36.5
59.66
71.02
70.51
60.77
45.79
22.25
-9.52
-45.26
-79.9
-112.14
-144.83
-180.05
-215.33
-244.46
-262.13
-259.74
-235.11
-192.67
-141.27
-89.87
-42.86
-5.9
23.57
53.48
87.58
124.9
160.36
187.47
201.81
203.7
196.55
185.46
174.06
165.05
158.15
150.8
140.09
124.4
105.12
83.94
61.94
32.46
-5.7
-48.84
-91.96
-133.46
-175.33
-215.1
-248.02
-264.74
-259.96
-232.73
-187.9
-133.79
-75.47
-22.43
19.84
54.98
83.76
103.19
110.27
104.21
88.14
68.55
51.85
43.05
43.79
53.76
70.57
91.64
113.51
131.55
140.67
136.06
116.26
76.76
23.13
-31.81
-76.23
-107.93
-134.46
-162.67
-192.89
-219.58
-235.47
-229.76
-199.31
-148.29
-85.75
-21.68
36.32
82.8
113.59
125.9
119.88
97.73
65.24
31.2
4.85
-6.79
-2.42
13.03
32.52
51.19
67.1
81.24
95.32
109.49
122.64
132.12
133.98
125.84
107.66
79.76
42.01
-5.85
-63.03
-124.11
-179.75
-220.32
-237.91
-229.12
-196.66
-147.65
-86.69
-25.12
27.41
72.09
107.78
131.47
140.14
133.23
114.12
89.46
65.88
48.84
40.28
37.71
37.88
39.2
42.01
47.4
55.12
61.93
63.5
55.49
33.99
-2.39
-52.28
-111.9
-175.4
-235.14
-282.86
-310.61
-313.36
-291.51
-249.98
-196.41
-138.57
-82.18
-30.25
16.41
58.27
95.91
129.17
157.78
181.65
201.15
216.8
228.93
237.35
241.47
240.29
232.84
218.97
199.92
178.05
156.11
135.93
117.48
98.8
76.73
48.04
10.13
-38.41
-96.93
-161.93
-226.57
-281.26
-315.73
-322.36
-299.41
-252.41
-192.59
-133.15
-84.59
-51.72
-33.26
-23.99
-17.59
-9.09
4.1
22.55
45.43
70.87
96.1
117.72
132.54
138.46
135.77
127.18
116.66
107.59
100.78
93.61
80.79
56.46
17.09
-35.93
-95.7
-151.35
-191.33
-207.08
-195.44
-158.9
-104.17
-39.98
25.14
83.79
130.19
160.32
172.24
166.45
146.3
117.48
86.78
60.45
42.78
35.46
37.79
47.26
60.54
74.41
86.42
94.88
98.54
96.33
87.07
69.34
41.3
1.09
-51.64
-114.05
-179.28
-237.1
-276.4
-288.39
-269.46
-222.3
-155.8
-81.51
-11.04
45.52
80.54
90.16
75.45
42.96
3.59
-32.17
-55.27
-60.99
-50.48
-29.95
-7.15
11.87
25.26
34.78
41.03
45.56
49.64
52.77
52.15
44.27
26.1
-3.7
-45.25
-100.59
-167.41
-237.79
-300.26
-343.88
-361.47
-351.97
-319.74
-254.09
-162.45
-65.75
16.09
76.58
119.38
153.84
183.74
209.65
231.7
244.11
245.31
237.98
226.61
214.71
203.86
193.88
184.37
174.51
160.83
141.91
118.58
92.53
64.43
33.4
-2.92
-46.62
-98.37
-157.47
-218.03
-269.88
-302.2
-308.0
-286.5
-243.1
-186.22
-124.42
-64.83
-11.3
34.6
71.53
97.57
110.98
111.84
103.43
91.3
80.87
75.74
76.54
81.64
88.52
95.69
102.95
110.76
118.65
124.33
124.17
114.47
92.84
58.81
13.52
-40.59
-99.67
-158.01
-208.06
-241.68
-252.57
-238.34
-201.32
-147.32
-83.54
-17.02
45.67
98.36
135.3
152.29
148.51
127.43
96.32
63.84
37.07
19.54
11.2
10.04
13.87
21.31
31.41
43.02
54.38
63.17
67.09
64.33
53.4
33.21
2.42
-39.91
-92.72
-151.29
-207.28
-250.66
-273.07
-270.89
-245.79
-204.41
-155.23
-104.83
-55.6
-6.83
42.78
92.08
136.82
172.33
194.67
202.62
198.84
188.99
178.7
171.48
167.21
163.75
160.59
157.74
155.18
152.36
147.86
139.01
123.29
98.53
57.76
4.78
-48.99
-93.55
-128.31
-159.66
-192.07
-225.36
-252.88
-267.14
-260.83
-231.85
-184.09
-125.17
-60.05
-0.46
51.23
92.07
118.82
130.2
126.63
111.05
89.25
68.5
54.39
49.9
53.2
60.12
67.05
71.15
70.75
65.27
55.3
41.81
26.43
8.98
-12.46
-40.52
-77.38
-122.74
-172.04
-216.87
-247.78
-257.3
-243.57
-209.86
-162.06
-105.76
-44.6
19.31
83.25
142.02
188.54
215.96
221.6
209.17
187.91
168.61
158.87
160.29
168.7
176.95
178.68
170.85
154.59
133.82
112.93
94.58
78.62
62.17
40.61
9.33
-34.3
-88.8
-147.98
-202.23
-241.26
-257.28
-247.13
-212.82
-160.61
-99.77
-39.58
12.41
50.73
71.93
74.92
61.29
35.49
4.33
-25.71
-47.69
-55.5
-46.3
-22.48
8.87
38.58
58.72
65.25
56.79
37.47
15.41
-1.48
-9.9
-12.04
-13.73
-21.85
-42.05
-80.01
-135.47
-200.98
-264.26
-313.67
-341.19
-343.9
-323.9
-268.38
-182.47
-87.66
-6.47
52.97
94.08
124.09
148.11
167.5
182.88
192.68
198.63
201.25
202.64
202.37
197.65
185.8
166.88
144.71
123.05
106.88
100.05
102.97
110.47
114.19
106.42
82.86
43.46
-9.84
-71.63
-133.31
-184.2
-214.59
-218.02
-193.01
-144.0
-80.35
-14.46
42.73
84.57
109.28
118.22
113.98
99.56
78.33
54.07
30.57
10.8
-4.26
-16.29
-29.04
-46.23
-68.88
-93.87
-114.77
-124.46
-118.42
-96.87
-65.16
-32.19
-7.65
0.75
-10.37
-39.15
-78.82
-119.38
-150.08
-162.33
-151.8
-119.4
-70.69
-13.87
42.41
91.15
127.95
150.87
159.9
156.1
141.49
119.1
93.6
70.75
56.14
53.37
62.34
79.22
97.92
112.83
120.7
121.4
116.49
107.16
92.95
71.55
40.41
-1.46
-52.06
-106.51
-158.03
-199.71
-226.02
-233.92
-223.46
-197.56
-161.1
-119.49
-77.38
-37.86
-2.68
27.07
50.34
66.31
74.67
76.21
73.02
67.92
63.6
61.65
62.05
63.5
64.24
62.86
58.81
52.69
45.97
40.64
38.44
40.16
44.79
50.38
54.04
53.36
47.41
37.12
24.96
13.99
6.86
4.25
6.74
13.07
21.55
30.35
37.65
41.75
41.28
35.49
23.15
6.79
-11.57
-29.53
-45.34
-58.67
-70.53
-82.79
-97.56
-118.62
-143.88
-171.18
-196.4
-215.41
-226.32
-230.29
-231.04
-233.36
-243.85
-260.11
-277.91
-289.69
-288.57
-272.08
-242.63
-205.47
-149.03
-100.64
-57.02
-14.09
34.06
91.51
158.26
231.6
308.01
383.64
450.92
496.24
501.5
461.5
390.87
313.21
247.41
201.53
174.23
157.05
145.83
138.22
135.53
139.07
146.28
152.43
152.71
145.5
130.95
114.05
99.77
92.44
93.48
99.66
106.42
110.03
108.88
102.36
91.99
78.99
63.29
49.7
37.69
25.25
10.6
-6.93
-27.26
-49.2
-71.22
-91.89
-110.38
-128.07
-146.84
-168.45
-193.69
-221.84
-250.39
-275.36
-292.76
-299.99
-297.73
-288.63
-276.17
-263.24
-251.4
-240.96
-231.66
-223.32
-215.98
-210.09
-205.32
-200.61
-194.68
-186.78
-177.14
-166.92
-157.56
-150.08
-144.97
-141.89
-140.16
-139.26
-139.01
-139.43
-140.41
-141.62
-142.45
-142.55
-141.89
-140.79
-139.63
-138.27
-135.85
-130.92
-121.98
-108.1
-89.41
-66.8
-41.48
-14.52
13.3
41.23
68.48
94.38
118.71
141.96
165.2
189.37
214.74
240.43
264.85
286.35
304.0
317.78
328.26
335.97
340.93
342.86
341.61
337.61
331.84
325.23
318.1
309.81
299.06
284.48
265.27
241.64
214.53
185.23
154.92
124.48
94.63
66.16
39.92
16.64
-3.33
-20.08
-33.98
-45.44
-54.75
-62.24
-68.33
-73.73
-79.15
-85.2
-92.14
-99.8
-107.67
-114.99
-120.92
-124.71
-125.98
-125.05
-122.99
-121.46
-122.0
-125.47
-131.59
-139.22
-147.09
-154.48
-161.61
-169.1
-177.38
-186.14
-194.42
-201.23
-206.32
-210.44
-215.01
-221.2
-229.23
-238.15
-246.43
-252.68
-256.29
-257.26
-255.63
-250.66
-240.69
-223.57
-197.53
-161.93
-117.47
-65.95
-9.73
48.4
105.31
157.37
200.95
233.38
253.95
264.47
268.77
271.33
275.74
283.43
293.63
304.12
312.54
317.2
317.49
313.5
305.49
293.55
277.55
257.37
233.21
205.8
176.42
146.6
117.84
91.04
66.38
43.48
21.88
1.53
-17.06
-33.01
-45.77
-55.61
-63.82
-72.24
-82.56
-95.61
-111.03
-127.54
-143.58
-157.98
-170.39
-181.28
-191.46
-201.45
-210.85
-218.16
-221.13
-217.68
-206.76
-188.99
-166.44
-141.9
-117.91
-96.07
-76.89
-60.17
-45.39
-31.96
-19.11
-5.89
8.77
25.65
44.86
65.51
85.96
104.27
118.81
128.78
134.27
136.19
135.87
134.64
133.54
133.23
133.92
135.47
137.56
139.74
141.61
142.86
143.33
142.99
141.77
139.62
136.49
132.46
127.99
124.05
121.93
122.82
127.26
134.58
143.02
150.1
153.41
151.24
143.09
129.66
112.61
93.99
75.63
58.65
43.22
28.75
14.27
-1.15
-18.23
-37.66
-59.93
-85.16
-112.69
-140.84
-167.39
-190.27
-208.4
-221.84
-231.18
-236.71
-237.95
-234.23
-225.5
-213.6
-202.14
-195.05
-194.8
-201.22
-211.51
-221.89
-229.5
-233.25
-234.06
-233.78
-233.8
-234.13
-233.64
-230.76
-224.7
-215.89
-205.15
-193.49
-181.18
-167.6
-151.62
-132.58
-110.72
-87.57
-65.03
-43.13
-21.01
2.39
27.52
54.17
81.37
108.74
136.11
164.04
196.31
236.07
284.39
339.91
400.08
461.46
521.36
575.67
618.99
649.26
663.55
657.85
628.95
578.0
511.18
440.8
379.22
334.85
314.79
317.63
333.58
349.0
353.73
343.86
324.3
301.56
248.95
155.89
33.07
-92.81
-198.09
-264.51
-302.57
-322.77
-334.0
-342.84
-347.8
-344.55
-330.21
-305.73
-274.9
-243.83
-217.77
-202.72
-202.13
-210.19
-217.03
-213.58
-198.16
-176.08
-154.54
-137.06
-124.41
-114.41
-103.53
-87.99
-68.68
-51.14
-40.77
-38.88
-43.28
-51.7
-62.32
-69.74
-72.3
-66.07
-51.97
-44.02
-48.28
-61.17
-80.68
-104.28
-128.16
-148.03
-159.86
-161.74
-153.64
-136.34
-113.54
-91.37
-74.86
-66.13
-64.37
-66.65
-70.2
-72.96
-72.74
-68.99
-62.55
-53.86
-42.92
-30.06
-16.56
-5.28
0.56
-0.33
-7.23
-17.53
-26.96
-31.41
-28.8
-19.83
-7.66
3.76
11.69
15.12
14.07
9.26
1.58
-7.96
-18.13
-27.69
-35.47
-40.63
-42.42
-41.48
-39.79
-39.58
-42.02
-46.67
-51.86
-55.64
-56.98
-54.56
-49.28
-43.74
-40.14
-38.17
-34.89
-26.26
-9.16
17.29
54.09
99.12
147.45
193.25
231.69
259.49
274.76
277.43
269.93
260.58
256.71
260.92
270.62
280.59
285.78
283.65
275.46
243.74
187.1
119.29
57.38
8.66
-28.79
-58.65
-82.5
-100.19
-111.9
-115.61
-112.2
-105.52
-99.72
-96.54
-95.16
-94.02
-92.17
-89.86
-85.6
-79.23
-72.01
-65.07
-57.8
-48.44
-36.58
-23.76
-14.61
-12.16
-18.03
-31.58
-49.47
-66.48
-77.53
-79.59
-71.98
-56.29
-34.96
-12.35
5.22
10.91
0.06
-27.35
-65.58
-103.97
-130.49
-135.85
-116.85
-76.71
-22.59
37.88
98.95
154.5
198.82
227.55
238.1
230.55
207.98
176.05
141.31
109.08
81.81
59.25
39.38
19.99
-0.27
-21.41
-42.44
-61.95
-78.7
-91.87
-100.9
-105.81
-107.29
-106.64
-105.39
-104.77
-105.25
-106.41
-107.1
-105.8
-101.5
-94.41
-86.19
-79.36
-76.15
-77.57
-82.9
-89.89
-95.43
-96.44
-90.72
-77.3
-56.61
-30.46
-1.81
25.7
48.63
64.67
73.45
76.54
76.84
77.42
80.53
86.91
95.85
105.71
114.6
121.02
124.21
124.21
121.66
117.5
112.59
107.55
102.66
97.88
92.93
87.31
80.44
71.76
60.91
47.92
33.33
18.21
3.9
-8.4
-17.99
-24.94
-29.98
-34.22
-38.68
-43.91
-49.77
-55.58
-60.37
-63.21
-63.47
-61.05
-56.27
-49.82
-42.58
-35.42
-29.21
-24.57
-21.87
-21.11
-22.0
-24.04
-26.72
-29.66
-32.63
-35.5
-38.23
-40.83
-43.47
-46.51
-50.39
-55.43
-61.48
-67.82
-73.2
-76.17
-75.57
-70.96
-62.74
-52.09
-40.59
-29.7
-20.42
-13.06
-7.41
-2.99
0.54
3.2
4.72
4.75
3.12
-0.08
-4.46
-9.56
-15.05
-20.76
-26.64
-32.65
-38.66
-44.46
-49.75
-54.22
-57.43
-58.84
-57.76
-53.51
-45.77
-34.72
-21.2
-6.45
8.24
21.95
34.26
45.23
55.13
64.19
72.44
79.74
85.79
90.25
92.78
93.09
90.98
86.43
79.51
70.48
59.67
47.7
35.41
23.92
14.43
7.87
4.68
4.65
7.06
10.98
15.55
20.15
24.39
27.97
30.6
32.03
32.07
30.7
28.12
24.65
20.72
16.81
13.27
10.25
7.63
5.01
1.88
-2.2
-7.36
-13.35
-19.59
-25.25
-29.41
-31.25
-30.31
-26.6
-20.71
-13.74
-7.0
-1.68
1.37
1.74
-0.58
-5.34
-12.14
-20.35
-29.2
-37.8
-45.34
-51.29
-55.46
-57.99
-59.23
-59.65
-59.79
-60.13
-61.03
-62.54
-64.21
-65.11
-64.17
-60.44
-53.54
-43.66
-31.51
-18.01
-4.1
9.34
21.57
31.94
39.97
45.36
48.0
47.98
45.56
41.2
35.56
29.53
24.11
20.25
18.55
19.23
21.98
26.16
30.99
35.61
39.16
40.69
39.32
34.46
26.19
15.41
3.86
-6.36
-13.41
-16.28
-15.09
-10.92
-5.29
0.35
4.91
7.77
8.65
7.57
4.9
1.28
-2.39
-5.25
-6.78
-7.0
-6.52
-6.42
-7.98
-12.27
-19.76
-30.09
-42.1
-54.12
-64.49
-72.08
-76.57
-78.39
-78.3
-77.0
-74.76
-71.4
-66.53
-59.83
-51.17
-40.73
-28.76
-15.48
-0.97
14.76
31.59
49.05
66.23
81.83
94.56
103.53
108.58
110.32
109.82
108.24
106.41
104.68
102.85
100.33
96.25
89.71
79.98
66.86
50.83
33.05
15.23
-0.91
-14.11
-23.87
-30.46
-34.38
-35.9
-34.7
-30.01
-21.12
-8.09
7.92
24.78
39.98
51.44
58.14
60.21
58.56
54.37
48.71
42.4
36.17
30.69
26.47
23.5
21.13
18.06
12.91
4.87
-5.75
-17.5
-28.38
-36.65
-41.58
-43.59
-43.89
-43.83
-44.3
-45.57
-47.42
-49.49
-51.49
-53.34
-54.93
-56.1
-56.55
-56.02
-54.37
-51.58
-47.63
-42.47
-36.04
-28.43
-20.0
-11.38
-3.36
3.34
8.26
11.32
12.65
12.54
11.34
9.41
7.1
4.71
2.33
-0.26
-3.55
-8.12
-14.23
-21.65
-29.59
-36.98
-42.81
-46.44
-47.66
-46.68
-43.85
-39.51
-33.86
-27.1
-19.52
-11.6
-3.9
3.01
8.62
12.63
14.94
15.72
15.38
14.48
13.59
13.07
12.95
13.01
12.86
12.19
10.88
9.01
6.75
4.23
1.57
-1.13
-3.67
-5.65
-6.61
-6.09
-3.82
0.25
5.81
12.26
18.72
24.22
27.98
29.58
29.18
27.38
25.05
22.94
21.45
20.59
20.13
19.69
18.76
16.67
12.72
6.48
-1.88
-11.46
-20.71
-28.06
-32.34
-33.19
-30.94
-26.26
-19.95
-12.77
-5.42
1.36
6.91
10.82
13.0
13.63
12.92
11.0
7.88
3.7
-1.24
-6.39
-11.09
-14.73
-16.89
-17.29
-15.88
-12.76
-8.32
-3.23
1.52
4.91
6.09
4.71
1.05
-4.0
-9.28
-13.74
-16.74
-18.16
-18.3
-17.68
-16.68
-15.6
-14.67
-14.19
-14.57
-16.21
-19.3
-23.74
-29.15
-35.01
-40.92
-46.68
-52.23
-57.49
-62.15
-65.77
-67.83
-67.97
-66.15
-62.62
-57.81
-52.02
-45.28
-37.37
-27.93
-16.66
-3.46
11.58
28.18
45.92
64.27
82.72
100.76
118.01
134.19
148.92
161.75
171.63
177.34
177.62
171.53
158.83
140.17
117.01
91.35
65.38
40.76
18.54
-1.03
-18.46
-34.86
-51.58
-69.89
-90.55
-113.27
-137.26
-160.69
-181.4
-197.63
-208.59
-214.46
-216.15
-214.74
-210.58
-205.74
-202.16
-202.05
-206.98
-216.34
-226.49
-231.12
-223.12
-195.63
-148.38
-83.71
-7.42
72.62
147.9
210.61
254.84
277.7
282.32
270.48
248.52
222.88
198.21
176.58
158.02
141.9
128.19
120.93
118.78
123.77
137.33
159.75
190.0
225.92
264.79
284.25
304.92
321.55
333.0
338.67
338.05
330.86
317.56
299.75
279.93
262.48
244.68
225.89
204.74
179.28
147.35
107.27
58.54
2.13
-58.82
-123.99
-188.39
-245.71
-290.83
-321.85
-340.34
-349.84
-353.74
-354.87
-357.03
-360.33
-363.86
-367.56
-372.86
-381.65
-394.46
-394.03
-367.13
-312.75
-241.96
-170.11
-108.3
-60.8
-26.81
-2.9
14.93
27.59
34.61
36.73
36.46
36.92
40.26
46.41
53.59
59.51
60.74
55.95
46.39
34.91
23.04
11.28
-0.97
-13.44
-23.68
-28.65
-25.22
-12.04
9.14
33.56
55.28
69.58
74.67
72.07
64.3
53.87
42.46
31.22
21.49
15.14
13.81
17.93
26.16
34.45
38.52
35.96
27.59
17.05
8.53
4.13
2.87
2.07
-0.46
-4.56
-7.9
-7.66
-2.19
7.82
19.78
30.55
38.31
42.9
45.0
45.01
42.41
36.61
27.78
17.53
8.56
4.39
7.87
19.84
38.66
57.8
70.01
71.46
64.39
54.0
45.1
39.93
38.57
40.23
43.97
49.13
54.4
59.09
59.43
52.45
37.11
15.07
-9.44
-31.64
-47.94
-57.63
-62.71
-67.12
-74.6
-86.28
-101.39
-116.31
-126.23
-127.37
-119.59
-105.7
-90.66
-79.26
-75.41
-79.93
-89.67
-99.27
-103.82
-101.75
-93.49
-81.42
-69.4
-64.44
-74.16
-103.03
-150.24
-209.25
-270.49
-322.1
-354.36
-353.68
-318.17
-262.05
-206.4
-165.95
-135.41
-107.27
-75.84
-41.95
-8.9
19.66
43.13
64.78
90.03
122.96
163.09
208.97
256.97
301.23
336.13
358.11
366.05
361.59
348.22
329.29
311.05
298.27
291.38
290.66
296.86
310.09
330.04
355.22
381.6
406.31
423.44
422.77
398.83
353.03
292.08
227.03
169.87
111.03
51.57
14.84
-2.11
-14.15
-27.82
-44.61
-62.59
-79.12
-92.94
-101.73
-106.3
-112.14
-120.92
-131.07
-141.1
-150.02
-157.62
-164.18
-167.69
-167.22
-165.1
-161.39
-154.91
-145.69
-134.62
-122.86
-111.17
-98.24
-83.23
-67.6
-51.87
-36.04
-20.75
-6.81
5.06
14.34
21.35
25.97
27.03
24.19
17.9
8.75
-2.49
-14.96
-27.72
-39.61
-49.73
-57.83
-63.9
-68.26
-71.72
-75.23
-79.45
-84.36
-89.22
-92.75
-93.67
-91.12
-84.94
-75.64
-64.2
-51.75
-39.43
-28.27
-19.18
-12.86
-9.74
-9.85
-12.78
-17.83
-24.13
-30.86
-37.39
-43.39
-48.86
-54.05
-59.33
-65.0
-71.07
-77.22
-82.83
-87.25
-89.99
-90.86
-89.9
-87.2
-82.72
-76.34
-67.88
-57.45
-45.47
-32.81
-20.57
-9.82
-1.32
4.65
8.31
10.23
11.09
11.45
11.65
11.8
11.89
11.92
11.97
12.28
13.13
14.83
17.57
21.36
26.07
31.37
36.85
42.09
46.74
50.55
53.41
55.23
55.99
55.74
54.56
52.6
49.91
46.41
41.73
35.38
26.9
16.16
3.54
-10.02
-23.24
-34.78
-43.62
-49.18
-51.35
-50.36
-46.78
-41.4
-35.18
-29.04
-23.67
-19.32
-15.82
-12.78
-9.86
-7.05
-4.57
-2.77
-1.77
-1.3
-0.81
0.29
2.33
5.21
8.45
11.46
13.71
14.93
15.05
14.18
12.49
10.27
7.88
5.85
4.74
4.95
6.58
9.36
12.7
16.01
18.9
21.31
23.41
25.39
27.32
29.05
30.36
31.11
31.35
31.3
31.15
30.96
30.66
30.15
29.42
28.63
27.94
27.44
27.0
26.24
24.67
21.87
17.67
12.28
6.23
0.32
-4.55
-7.65
-8.69
-7.96
-6.28
-4.78
-4.51
-6.06
-9.39
-13.97
-18.98
-23.64
-27.31
-29.6
-30.29
-29.42
-27.29
-24.69
-22.7
-22.56
-25.17
-30.81
-38.99
-48.54
-57.98
-65.9
-71.19
-73.13
-71.44
-66.19
-57.96
-47.77
-37.02
-27.2
-19.47
-14.26
-11.11
-8.92
-6.34
-2.37
3.4
10.74
18.96
27.23
34.79
41.05
45.58
48.11
48.52
46.92
43.54
38.79
33.21
27.51
22.53
19.2
18.3
20.19
24.58
30.59
37.05
42.91
47.46
50.45
51.91
51.97
50.73
48.27
44.78
40.5
35.74
30.69
25.29
19.3
12.38
4.34
-4.72
-14.42
-24.13
-33.13
-40.68
-46.12
-48.93
-48.73
-45.33
-38.8
-29.59
-18.6
-7.06
3.63
12.27
18.11
21.0
21.21
19.26
15.69
10.93
5.38
-0.55
-6.3
-11.23
-14.79
-16.71
-17.08
-16.36
-15.19
-14.17
-13.7
-13.84
-14.23
-14.23
-13.11
-10.34
-5.8
0.16
6.81
13.29
18.91
23.26
26.22
27.88
28.38
27.83
26.37
24.23
21.84
19.72
18.28
17.74
17.95
18.5
18.83
18.41
16.89
14.16
10.34
5.74
0.82
-3.96
-8.16
-11.42
-13.59
-14.77
-15.35
-16.03
-17.59
-20.77
-25.92
-32.91
-41.11
-49.56
-57.31
-63.56
-67.77
-69.59
-68.87
-65.66
-60.34
-53.67
-46.79
-40.9
-36.97
-35.41
-35.93
-37.69
-39.5
-40.17
-38.75
-34.68
-27.87
-18.71
-7.94
3.44
14.44
24.17
32.0
37.49
40.45
40.95
39.36
36.41
33.1
30.51
29.47
30.25
32.5
35.27
37.39
37.75
35.72
31.31
25.14
18.33
12.11
7.55
5.28
5.48
7.97
12.33
18.08
24.73
31.68
38.18
43.36
46.26
46.09
42.43
35.35
25.43
13.67
1.2
-10.9
-21.87
-31.33
-39.35
-46.33
-52.85
-59.48
-66.52
-73.72
-80.3
-85.15
-87.17
-85.73
-80.84
-73.11
-63.48
-52.9
-42.12
-31.49
-20.96
-10.06
1.83
15.08
29.37
43.43
55.34
63.16
65.8
63.51
57.71
50.34
42.94
36.12
29.62
22.91
15.82
8.83
3.0
-0.53
-0.88
2.25
8.6
17.5
28.07
39.37
50.43
60.31
68.05
72.84
74.06
71.5
65.52
57.05
47.45
38.19
30.48
24.92
21.4
19.3
17.8
16.25
14.41
12.48
10.96
10.49
11.67
14.94
20.41
27.75
36.21
44.69
52.04
57.42
60.44
61.15
59.83
56.7
51.76
44.85
35.93
25.16
13.12
0.66
-11.25
-21.7
-30.04
-35.97
-39.65
-41.72
-43.13
-44.95
-47.89
-52.08
-56.86
-61.08
-63.54
-63.41
-60.62
-55.68
-49.5
-43.07
-37.3
-33.02
-30.96
-31.69
-35.32
-41.3
-48.43
-55.04
-59.51
-60.64
-57.95
-51.64
-42.4
-31.23
-19.31
-7.82
2.13
9.76
14.71
17.24
18.11
18.42
19.21
21.14
24.34
28.39
32.61
36.38
39.36
41.64
43.52
45.31
47.13
48.92
50.51
51.87
53.14
54.61
56.51
58.86
61.3
63.14
63.45
61.29
56.0
47.41
36.07
23.18
10.31
-1.04
-9.9
-16.05
-20.14
-23.3
-26.8
-31.61
-38.1
-46.02
-54.64
-63.03
-70.33
-76.03
-79.97
-82.36
-83.55
-83.89
-83.66
-83.02
-82.09
-80.95
-79.69
-78.29
-76.54
-74.06
-70.27
-64.51
-56.17
-44.87
-30.58
-13.77
4.64
23.39
41.09
56.45
68.44
76.36
79.92
79.25
74.95
67.97
59.45
50.47
41.82
33.96
26.99
20.71
14.64
7.96
-0.35
-11.14
-24.53
-39.42
-53.55
-63.94
-67.94
-64.16
-52.9
-36.03
-16.25
3.69
21.65
36.33
47.2
54.31
58.01
58.73
56.89
52.77
46.51
38.12
27.49
14.32
-1.8
-21.07
-42.83
-65.18
-85.0
-98.72
-103.57
-98.66
-85.25
-66.14
-44.33
-22.0
-0.11
21.19
41.76
60.87
77.29
89.72
97.41
100.4
99.31
94.92
87.9
78.68
67.66
55.37
42.65
30.54
20.07
11.93
6.32
2.78
0.4
-1.9
-4.93
-8.87
-13.14
-16.57
-17.8
-15.81
-10.36
-2.15
7.29
16.09
22.61
25.81
25.56
22.43
17.45
11.65
5.89
0.73
-3.57
-6.84
-9.01
-10.02
-9.81
-8.34
-5.76
-2.38
1.22
4.32
6.19
6.33
4.61
1.41
-2.49
-6.18
-8.89
-10.31
-10.58
-10.21
-9.84
-10.06
-11.32
-13.93
-18.04
-23.65
-30.57
-38.37
-46.36
-53.67
-59.41
-62.88
-63.71
-61.96
-58.11
-52.97
-47.61
-43.06
-40.16
-39.27
-39.97
-41.01
-40.41
-35.97
-25.97
-9.98
10.81
33.67
55.26
72.65
84.29
90.31
92.12
91.42
89.37
86.17
81.27
74.02
64.36
53.0
41.14
29.8
19.32
9.22
-1.5
-13.65
-27.39
-41.97
-56.04
-68.11
-77.03
-82.25
-83.83
-82.23
-78.06
-71.83
-63.88
-54.47
-43.98
-33.05
-22.56
-13.29
-5.54
1.11
7.71
15.46
25.11
36.47
48.38
59.09
66.9
70.66
69.99
65.03
56.23
44.1
29.41
13.27
-2.67
-16.52
-26.53
-31.68
-31.84
-27.66
-19.97
-9.28
4.42
21.3
41.07
62.5
83.37
101.09
113.54
119.78
120.25
116.38
109.8
101.74
92.69
82.57
71.11
58.2
44.03
28.97
13.53
-1.78
-16.33
-29.31
-39.85
-47.21
-51.08
-51.78
-50.2
-47.48
-44.68
-42.49
-41.12
-40.39
-39.93
-39.22
-37.85
-35.45
-31.83
-26.97
-20.99
-14.12
-6.7
0.85
7.99
14.03
18.15
19.64
18.27
14.47
9.41
4.66
1.64
1.22
3.45
7.63
12.64
17.19
20.16
20.62
17.94
11.87
2.63
-9.04
-21.87
-34.42
-45.4
-54.07
-60.31
-64.62
-67.86
-70.88
-74.34
-78.51
-83.4
-88.84
-94.5
-100.01
-104.82
-108.33
-109.94
-109.37
-106.76
-102.68
-97.92
-93.1
-88.5
-84.01
-79.24
-73.82
-67.59
-60.57
-52.92
-44.84
-36.4
-27.54
-18.09
-7.91
3.01
14.56
26.57
38.82
51.15
63.4
75.36
86.67
96.93
105.88
113.58
120.46
127.16
134.17
141.61
149.08
155.81
160.93
163.71
163.64
160.47
154.15
144.9
133.19
119.7
105.16
90.14
74.93
59.54
43.84
27.78
11.49
-4.74
-20.56
-35.56
-49.32
-61.31
-70.92
-77.5
-80.57
-80.07
-76.46
-70.82
-64.58
-59.2
-55.71
-54.34
-54.53
-55.2
-55.19
-53.75
-50.73
-46.5
-41.61
-36.57
-31.66
-27.08
-23.04
-19.87
-17.84
-17.03
-17.18
-17.83
-18.53
-18.97
-19.03
-18.72
-17.92
-16.39
-13.84
-10.15
-5.61
-0.87
3.27
6.17
7.56
7.66
6.95
5.92
4.93
4.06
3.28
2.56
1.95
1.56
1.4
1.21
0.43
-1.73
-6.08
-13.17
-22.94
-34.61
-46.76
-57.62
-65.6
-69.63
-69.42
-65.39
-58.43
-49.58
-39.76
-29.76
-20.25
-11.85
-5.17
-0.58
1.89
2.69
2.65
2.7
3.52
5.27
7.6
9.88
11.55
12.4
12.58
12.46
12.31
12.29
12.43
12.89
14.03
16.36
20.19
25.42
31.47
37.63
43.46
49.16
55.42
62.96
71.89
81.31
89.61
95.09
96.69
94.49
89.41
82.63
74.91
66.42
56.93
46.25
34.53
22.03
8.87
-5.3
-21.06
-38.72
-57.76
-76.66
-93.34
-105.88
-113.23
-115.41
-113.28
-108.02
-100.72
-92.37
-83.98
-76.65
-71.35
-68.5
-67.59
-67.26
-65.81
-62.01
-55.73
-48.02
-40.59
-34.91
-31.55
-29.99
-29.02
-27.33
-23.97
-18.63
-11.4
-2.65
7.19
17.59
27.9
37.4
45.41
51.44
55.39
57.58
58.64
59.35
60.36
62.0
64.14
66.28
67.7
67.8
66.39
63.73
60.36
56.81
53.24
49.38
44.62
38.37
30.33
20.72
10.24
-0.22
-9.82
-18.06
-24.81
-30.15
-34.22
-36.96
-38.13
-37.47
-34.91
-30.8
-25.97
-21.48
-18.28
-16.84
-17.0
-18.07
-19.13
-19.35
-18.34
-16.23
-13.57
-11.09
-9.4
-8.75
-8.83
-8.88
-7.93
-5.13
-0.07
7.04
15.45
24.13
32.09
38.66
43.51
46.73
48.65
49.84
50.89
52.41
54.84
58.35
62.81
67.77
72.54
76.43
78.84
79.33
77.65
73.64
67.23
58.55
48.1
36.82
25.89
16.33
8.66
2.62
-2.58
-7.79
-13.46
-19.43
-25.08
-29.78
-33.28
-35.76
-37.67
-39.38
-40.98
-42.33
-43.26
-43.73
-43.85
-43.82
-43.74
-43.6
-43.37
-43.17
-43.29
-44.06
-45.71
-48.05
-50.55
-52.32
-52.51
-50.5
-46.18
-39.94
-32.6
-25.17
-18.59
-13.4
-9.71
-7.23
-5.46
-3.92
-2.33
-0.64
1.06
2.72
4.41
6.32
8.72
11.76
15.31
18.87
21.67
22.85
21.91
19.07
15.45
12.76
12.7
16.13
22.55
30.25
36.98
40.91
41.36
38.86
34.72
30.25
26.19
22.64
19.37
16.22
13.39
11.34
10.49
10.84
11.92
12.88
12.88
11.43
8.55
4.76
0.78
-2.7
-5.22
-6.6
-6.86
-6.14
-4.64
-2.76
-1.08
-0.36
-1.31
-4.34
-9.36
-15.68
-22.3
-28.21
-32.69
-35.48
-36.62
-36.2
-34.21
-30.51
-25.11
-18.38
-11.18
-4.68
0.1
2.73
3.52
3.35
3.13
3.51
4.68
6.65
9.53
13.65
19.36
26.6
34.56
41.64
45.85
45.38
39.21
27.43
11.13
-7.82
-27.29
-45.35
-60.62
-72.4
-80.64
-85.74
-88.23
-88.6
-87.25
-84.6
-81.28
-78.11
-75.98
-75.42
-76.26
-77.51
-77.52
-74.6
-67.69
-56.76
-42.93
-27.91
-13.39
-0.39
10.97
21.18
30.86
40.3
49.28
57.36
64.2
69.82
74.64
79.08
83.34
87.21
90.25
92.16
92.98
93.1
92.99
92.9
92.82
92.54
91.92
91.0
89.86
88.44
86.43
83.39
79.02
73.39
66.92
60.19
53.54
46.86
39.69
31.38
21.43
9.61
-3.87
-18.42
-33.14
-47.05
-59.34
-69.65
-78.08
-85.01
-90.83
-95.67
-99.28
-101.19
-100.85
-98.0
-92.69
-85.34
-76.62
-67.28
-58.04
-49.42
-41.67
-34.81
-28.73
-23.29
-18.5
-14.51
-11.54
-9.75
-9.13
-9.38
-10.0
-10.36
-9.95
-8.49
-6.15
-3.45
-1.12
0.21
0.25
-0.82
-2.46
-3.9
-4.44
-3.59
-1.14
2.79
7.83
13.36
18.6
22.75
25.16
25.56
24.14
21.46
18.23
15.06
12.23
9.64
7.07
4.25
1.12
-2.31
-6.12
-10.6
-16.18
-23.21
-31.58
-40.6
-49.14
-56.04
-60.43
-61.89
-60.34
-55.8
-48.38
-38.46
-26.89
-15.09
-4.69
2.97
7.42
9.25
9.8
10.57
12.55
15.95
20.16
24.11
26.72
27.2
25.19
20.76
14.28
6.27
-2.6
-11.55
-19.59
-25.56
-28.43
-27.55
-22.93
-15.3
-5.8
4.49
14.99
25.76
37.32
50.18
64.46
79.72
94.98
109.07
120.78
129.08
133.2
132.71
127.64
118.47
105.95
90.88
73.72
54.65
33.67
11.05
-12.36
-35.22
-55.96
-73.26
-86.3
-94.73
-98.55
-97.9
-93.26
-85.57
-76.39
-67.64
-61.1
-57.76
-57.38
-58.62
-59.57
-58.53
-54.64
-48.13
-40.05
-31.77
-24.49
-18.93
-15.18
-12.94
-11.65
-10.64
-9.28
-7.01
-3.35
1.93
8.78
16.84
25.52
34.17
42.31
49.79
56.88
64.09
71.92
80.49
89.29
97.19
102.73
104.66
102.37
96.05
86.59
75.06
62.34
48.82
34.44
19.01
2.45
-14.9
-32.32
-48.71
-62.91
-73.84
-80.81
-83.65
-82.71
-78.78
-72.8
-65.62
-57.79
-49.57
-41.08
-32.44
-23.95
-16.07
-9.3
-3.98
-0.19
2.27
3.82
4.88
5.78
6.62
7.33
7.71
7.6
6.98
6.01
5.05
4.68
5.61
8.57
14.25
23.07
35.06
49.68
65.79
81.76
95.74
106.04
111.41
111.29
105.84
95.89
82.74
67.84
52.45
37.33
22.63
7.98
-7.22
-23.48
-40.99
-59.63
-78.85
-97.68
-114.65
-127.8
-135.06
-134.81
-126.63
-111.65
-92.41
-72.1
-53.56
-38.57
-27.56
-20.04
-15.18
-12.28
-11.04
-11.28
-12.68
-14.53
-15.88
-15.81
-13.93
-10.55
-6.61
-3.26
-1.4
-1.42
-3.04
-5.58
-8.05
-9.26
-7.92
-2.83
6.82
21.01
38.68
57.83
76.03
91.03
101.41
106.68
107.15
103.58
96.93
88.19
78.35
68.32
58.72
49.7
40.86
31.43
20.65
8.13
-5.93
-20.82
-35.6
-49.38
-61.39
-71.03
-77.78
-81.23
-81.22
-78.03
-72.53
-66.09
-60.12
-55.59
-52.67
-50.72
-48.77
-46.09
-42.64
-39.1
-36.46
-35.39
-35.87
-37.25
-38.62
-39.36
-39.28
-38.57
-37.44
-35.87
-33.63
-30.42
-26.05
-20.44
-13.46
-4.86
5.79
18.79
34.05
50.89
68.05
84.0
97.36
107.26
113.48
116.27
116.11
113.35
108.22
100.89
91.72
81.42
70.89
60.89
51.74
43.12
34.36
24.78
14.09
2.52
-9.24
-20.26
-29.54
-36.15
-39.37
-38.87
-34.82
-27.94
-19.37
-10.34
-1.98
4.88
9.72
12.31
12.66
11.07
8.02
4.19
0.18
-3.64
-7.27
-10.99
-15.14
-19.92
-25.28
-30.88
-36.29
-41.04
-44.81
-47.37
-48.53
-48.08
-45.75
-41.49
-35.69
-29.34
-23.79
-20.2
-18.83
-18.74
-18.05
-14.78
-7.89
2.15
13.34
23.0
28.83
29.73
25.94
18.64
9.19
-1.38
-12.57
-24.19
-35.96
-47.35
-57.53
-65.59
-70.82
-72.85
-71.71
-67.64
-60.97
-51.98
-40.99
-28.6
-15.79
-3.98
5.32
10.99
12.72
11.13
7.64
3.81
0.88
-0.62
-0.88
-0.52
-0.23
-0.45
-1.31
-2.67
-4.33
-6.2
-8.32
-10.84
-13.77
-16.81
-19.25
-20.13
-18.49
-13.8
-6.06
4.12
15.76
27.81
39.29
49.41
57.56
63.28
66.31
66.57
64.26
59.77
53.68
46.63
39.17
31.56
23.66
15.0
4.98
-6.69
-19.7
-33.09
-45.46
-55.33
-61.47
-63.04
-59.64
-51.39
-39.05
-24.13
-8.73
4.86
14.88
20.63
22.67
22.45
21.65
21.51
22.45
24.19
26.02
27.29
27.71
27.36
26.62
25.95
25.56
25.37
24.96
23.86
21.78
18.88
15.72
13.09
11.65
11.74
13.25
15.78
18.88
22.21
25.56
28.78
31.65
33.86
35.01
34.75
32.9
29.47
24.72
19.08
13.09
7.26
1.88
-3.18
-8.48
-14.84
-22.95
-32.96
-44.2
-55.29
-64.54
-70.46
-72.28
-70.04
-64.53
-57.05
-48.97
-41.51
-35.49
-31.21
-28.42
-26.39
-24.12
-20.72
-15.79
-9.61
-3.21
2.07
4.99
4.9
1.99
-2.75
-7.9
-12.1
-14.47
-14.86
-13.71
-11.74
-9.44
-6.88
-3.61
0.9
7.01
14.61
23.2
32.11
40.73
48.54
55.06
59.74
62.02
61.5
58.19
52.51
45.2
37.02
28.53
19.98
11.39
2.67
-6.34
-15.93
-26.49
-38.41
-51.88
-66.71
-82.2
-97.3
-110.84
-121.8
-129.36
-132.8
-131.23
-123.4
-107.9
-83.56
-50.19
-9.14
36.57
82.81
125.22
160.31
186.12
202.38
210.06
210.69
205.8
196.55
183.75
167.88
149.35
128.46
105.5
80.71
54.47
27.42
0.67
-24.26
-45.72
-62.35
-73.59
-79.87
-82.4
-82.62
-81.58
-79.42
-75.44
-68.56
-58.02
-43.91
-27.39
-10.3
5.37
18.06
26.98
32.13
34.07
33.55
31.26
27.57
22.49
15.71
6.88
-4.19
-17.16
-31.07
-44.48
-55.81
-63.83
-68.04
-68.78
-66.93
-63.51
-59.28
-54.52
-49.11
-42.77
-35.28
-26.65
-17.2
-7.42
2.07
10.65
17.85
23.43
27.48
30.42
32.79
35.03
37.23
39.16
40.37
40.63
40.04
39.18
38.81
39.52
41.48
44.36
47.47
49.89
50.6
48.63
43.34
34.91
24.61
14.7
7.78
5.81
9.35
17.34
27.64
37.89
46.22
51.49
53.04
50.39
43.08
30.93
14.34
-5.51
-26.86
-47.74
-66.34
-81.27
-91.72
-97.45
-98.79
-96.43
-91.16
-83.57
-73.92
-62.37
-49.4
-36.07
-24.04
-15.03
-10.12
-9.26
-11.23
-14.12
-16.17
-16.38
-14.77
-12.14
-9.6
-7.99
-7.64
-8.25
-9.07
-9.16
-7.66
-4.18
1.08
7.32
13.44
18.4
21.63
23.21
23.69
23.81
24.14
24.86
25.88
27.04
28.45
30.52
33.8
38.49
44.09
49.32
52.43
51.96
47.29
38.91
28.22
16.81
5.86
-4.11
-13.13
-21.35
-28.77
-35.21
-40.55
-44.92
-48.67
-52.12
-55.29
-57.81
-59.02
-58.36
-55.65
-51.23
-45.75
-40.02
-34.68
-30.18
-26.8
-24.64
-23.7
-23.79
-24.61
-25.76
-26.98
-28.24
-29.85
-32.27
-35.85
-40.43
-45.16
-48.66
-49.46
-46.54
-39.69
-29.54
-17.33
-4.4
8.1
19.37
28.91
36.49
42.09
45.99
48.7
50.96
53.43
56.53
60.2
63.96
67.08
68.91
69.01
67.36
64.21
59.88
54.6
48.4
41.15
32.87
23.82
14.6
5.99
-1.46
-7.62
-12.86
-17.71
-22.64
-27.72
-32.75
-37.33
-41.03
-43.45
-44.23
-43.06
-39.83
-34.87
-29.04
-23.61
-19.82
-18.37
-19.12
-21.04
-22.7
-22.75
-20.46
-15.91
-9.91
-3.72
1.48
4.94
6.67
7.32
7.95
9.59
12.79
17.44
22.84
27.99
31.92
34.07
34.36
33.13
30.99
28.62
26.61
25.42
25.35
26.47
28.61
31.3
33.76
35.07
34.44
31.42
26.1
19.12
11.41
3.88
-2.92
-8.83
-14.08
-18.93
-23.52
-27.74
-31.39
-34.3
-36.49
-38.18
-39.57
-40.66
-41.15
-40.6
-38.73
-35.72
-32.25
-29.23
-27.4
-26.97
-27.58
-28.63
-29.69
-30.73
-32.03
-33.84
-36.12
-38.43
-40.21
-41.09
-40.91
-39.69
-37.35
-33.59
-28.07
-20.69
-11.8
-2.28
6.84
14.73
21.04
25.86
29.56
32.43
34.6
36.11
37.17
38.33
40.42
44.29
50.28
57.89
65.77
72.19
75.68
75.59
72.23
66.48
59.3
51.29
42.68
33.43
23.57
13.21
2.54
-8.29
-19.06
-29.41
-38.76
-46.53
-52.34
-56.25
-58.67
-60.09
-60.77
-60.7
-59.78
-58.04
-55.8
-53.61
-52.0
-51.3
-51.6
-52.8
-54.8
-57.47
-60.65
-63.96
-66.71
-67.87
-66.27
-60.8
-50.74
-36.12
-17.82
2.45
22.55
40.37
54.28
63.36
67.41
66.87
62.62
55.93
48.26
41.09
35.63
32.57
32.0
33.48
36.28
39.63
42.88
45.52
47.12
47.34
46.0
43.22
39.42
35.22
31.08
27.04
22.56
16.78
8.85
-1.46
-13.64
-26.55
-38.85
-49.44
-57.68
-63.34
-66.26
-66.2
-62.79
-55.79
-45.46
-32.78
-19.33
-6.86
3.22
10.33
14.7
17.15
18.75
20.46
23.01
26.94
32.55
39.83
48.37
57.29
65.43
71.6
74.95
75.11
72.11
66.33
58.35
49.0
39.4
30.81
24.42
20.99
20.58
22.56
25.88
29.43
32.4
34.39
35.33
35.23
34.06
31.74
28.31
24.1
19.81
16.28
14.18
13.59
13.85
13.68
11.63
6.65
-1.45
-11.97
-23.65
-35.11
-45.34
-53.82
-60.34
-64.78
-66.95
-66.76
-64.53
-61.24
-58.41
-57.63
-59.82
-64.79
-71.19
-77.05
-80.54
-80.55
-76.94
-70.31
-61.61
-51.72
-41.23
-30.59
-20.18
-10.49
-2.14
4.29
8.5
10.65
11.4
11.68
12.44
14.38
17.89
23.08
30.01
38.63
48.69
59.61
70.41
80.03
87.73
93.45
97.78
101.54
105.25
108.7
111.05
111.18
108.32
102.42
93.95
83.55
71.57
57.86
42.0
23.76
3.5
-17.79
-38.92
-58.96
-77.56
-94.84
-110.88
-125.29
-137.04
-144.81
-147.61
-145.39
-139.1
-130.32
-120.51
-110.45
-100.05
-88.82
-76.4
-63.08
-49.76
-37.61
-27.46
-19.48
-13.17
-7.58
-1.85
4.55
11.63
19.02
26.15
32.43
37.34
40.52
41.95
41.93
41.09
40.24
40.1
41.09
43.25
46.39
50.34
55.06
60.69
67.19
74.14
80.57
85.2
86.97
85.46
81.13
75.0
68.22
61.45
54.7
47.41
38.86
28.59
16.61
3.37
-10.49
-24.43
-38.17
-51.65
-64.85
-77.44
-88.69
-97.41
-102.36
-102.64
-98.11
-89.6
-78.71
-67.32
-57.06
-48.79
-42.55
-37.76
-33.59
-29.42
-25.03
-20.52
-16.19
-12.17
-8.36
-4.47
-0.14
4.76
10.08
15.41
20.32
24.48
27.77
30.23
31.92
32.92
33.34
33.49
33.99
35.8
39.91
47.0
57.02
69.02
81.29
91.83
98.89
101.52
99.79
94.67
87.56
79.83
72.3
65.18
58.14
50.52
41.61
30.8
17.61
1.91
-16.05
-35.52
-55.29
-73.82
-89.53
-101.09
-107.58
-108.74
-105.07
-97.86
-89.06
-80.82
-74.88
-72.0
-71.66
-72.31
-72.07
-69.52
-64.33
-57.14
-49.22
-41.68
-35.06
-29.13
-23.23
-16.7
-9.25
-1.02
7.51
15.77
23.22
29.51
34.53
38.43
41.61
44.68
48.2
52.33
56.71
60.52
62.91
63.37
62.01
59.43
56.31
53.16
50.05
46.84
43.28
39.21
34.45
28.85
22.24
14.6
6.05
-3.13
-12.83
-23.06
-33.99
-45.54
-57.11
-67.52
-75.31
-79.21
-78.53
-73.33
-64.31
-52.57
-39.5
-26.61
-15.43
-7.26
-2.85
-2.16
-4.4
-8.27
-12.4
-15.68
-17.46
-17.63
-16.48
-14.59
-12.54
-10.74
-9.28
-7.93
-6.24
-3.8
-0.47
3.62
8.1
12.6
16.86
20.83
24.54
28.07
31.46
34.81
38.29
42.1
46.43
51.26
56.23
60.77
64.16
65.83
65.47
63.06
58.84
53.18
46.53
39.24
31.51
23.14
13.57
2.01
-12.13
-28.88
-47.36
-65.94
-82.65
-95.76
-104.26
-107.98
-107.42
-103.44
-96.91
-88.54
-78.86
-68.29
-57.12
-45.55
-33.69
-21.63
-9.54
2.27
13.3
22.9
30.38
35.08
36.59
34.86
30.19
23.2
14.68
5.43
-3.89
-12.72
-20.43
-26.19
-28.88
-27.21
-20.04
-6.77
12.37
36.2
62.84
90.07
115.78
138.37
156.81
170.69
179.84
184.17
183.48
177.63
166.67
151.04
131.56
109.18
84.81
59.02
32.17
4.53
-23.33
-50.39
-75.21
-96.23
-112.23
-122.61
-127.49
-127.49
-123.48
-116.28
-106.65
-95.41
-83.52
-72.15
-62.52
-55.55
-51.61
-50.29
-50.52
-51.0
-50.63
-49.0
-46.45
-43.87
-42.19
-41.98
-43.27
-45.59
-48.16
-50.1
-50.44
-48.2
-42.58
-33.25
-20.67
-6.11
8.71
22.23
33.6
42.83
50.57
57.55
64.32
71.02
77.57
83.8
89.49
94.25
97.46
98.3
96.02
90.26
81.11
69.03
54.51
37.89
19.38
-0.64
-21.29
-41.18
-58.66
-72.46
-82.15
-88.28
-92.09
-94.94
-97.76
-100.78
-103.69
-105.94
-107.06
-106.72
-104.62
-100.35
-93.38
-83.25
-69.86
-53.71
-35.91
-18.03
-1.65
11.99
22.26
29.16
33.18
35.09
35.77
36.09
36.95
39.13
43.15
49.15
56.77
65.26
73.67
81.17
87.22
91.65
94.6
96.37
97.27
97.57
97.34
96.45
94.61
91.43
86.6
79.99
71.63
61.69
50.35
37.65
23.62
8.45
-7.37
-22.96
-37.26
-49.4
-59.04
-66.49
-72.51
-77.79
-82.64
-86.77
-89.61
-90.72
-90.26
-88.9
-87.58
-86.88
-86.72
-86.34
-84.6
-80.51
-73.66
-64.33
-53.42
-42.16
-31.62
-22.51
-14.98
-8.7
-3.05
2.55
8.53
15.1
22.36
30.4
39.28
48.95
59.15
69.51
79.59
89.06
97.76
105.61
112.6
118.65
123.69
127.66
130.48
131.99
131.81
129.4
124.15
115.5
103.13
86.9
66.93
43.56
17.37
-10.65
-39.15
-66.5
-91.15
-111.93
-128.32
-140.42
-148.64
-153.26
-154.25
-151.24
-143.94
-132.56
-118.17
-102.61
-88.06
-76.37
-68.51
-64.32
-62.79
-62.52
-62.3
-61.41
-59.73
-57.47
-55.01
-52.64
-50.46
-48.38
-46.0
-42.61
-37.29
-29.12
-17.44
-2.05
16.74
38.25
61.56
85.67
109.5
131.93
151.85
168.31
180.72
188.93
193.15
193.81
191.4
186.35
179.0
169.66
158.65
146.28
132.86
118.55
103.3
86.93
69.25
50.29
30.47
10.6
-8.3
-25.41
-40.3
-53.07
-64.2
-74.33
-83.98
-93.36
-102.35
-110.5
-117.21
-121.95
-124.43
-124.74
-123.37
-121.02
-118.31
-115.59
-113.02
-110.69
-108.83
-107.78
-107.69
-108.11
-107.84
-105.18
-98.57
-87.35
-72.1
-54.44
-36.34
-19.3
-3.89
10.0
22.6
33.69
42.53
48.24
50.53
49.94
47.78
45.43
43.82
43.15
43.13
43.42
43.86
44.5
45.28
45.82
45.42
43.49
39.84
34.9
29.4
23.91
18.43
12.32
4.57
-5.63
-18.53
-33.76
-50.5
-67.72
-84.36
-99.37
-111.76
-120.69
-125.69
-126.83
-124.77
-120.6
-115.57
-110.66
-106.32
-102.39
-98.17
-92.72
-85.19
-75.07
-62.29
-47.22
-30.45
-12.68
5.35
22.81
38.77
52.26
62.53
69.4
73.34
75.44
76.99
79.04
82.13
86.24
90.93
95.73
100.29
104.5
108.44
112.32
116.38
120.82
125.7
130.77
135.49
139.13
141.1
141.29
140.14
138.51
137.23
136.65
136.36
135.27
132.03
125.4
114.65
99.61
80.65
58.53
34.34
9.44
-14.67
-36.52
-54.85
-68.79
-78.0
-82.66
-83.56
-81.97
-79.46
-77.55
-77.34
-79.16
-82.44
-85.93
-88.12
-87.8
-84.43
-78.2
-69.87
-60.45
-50.87
-41.85
-33.81
-26.87
-21.04
-16.3
-12.82
-10.93
-10.96
-12.87
-15.99
-19.05
-20.59
-19.59
-15.87
-10.09
-3.28
3.7
10.51
17.14
23.53
29.39
34.31
38.21
41.67
45.73
51.29
58.41
66.01
72.19
74.96
73.04
66.08
54.62
39.58
22.05
3.05
-16.35
-35.03
-51.94
-66.15
-77.14
-84.69
-89.0
-90.48
-89.75
-87.63
-85.04
-82.8
-81.42
-80.87
-80.5
-79.31
-76.33
-71.02
-63.51
-54.57
-45.32
-36.83
-29.84
-24.61
-21.04
-18.9
-17.93
-17.91
-18.58
-19.53
-20.22
-20.03
-18.45
-15.13
-9.93
-2.81
6.2
16.97
29.11
41.87
54.1
64.57
72.41
77.48
80.52
82.89
85.93
90.39
96.04
101.72
105.81
106.77
103.59
95.95
84.0
68.25
49.44
28.55
6.91
-13.83
-31.97
-46.12
-55.61
-60.6
-62.0
-60.98
-58.65
-55.78
-52.85
-50.11
-47.73
-45.75
-44.04
-42.25
-39.85
-36.23
-30.81
-23.26
-13.69
-2.69
8.58
18.69
26.3
30.63
31.79
30.63
28.45
26.49
25.52
25.83
27.26
29.48
32.1
34.74
37.06
38.85
40.08
41.03
42.11
43.77
46.25
49.54
53.44
57.66
61.85
65.51
67.95
68.31
65.76
59.82
50.6
38.86
25.69
12.12
-1.32
-14.66
-28.32
-42.56
-57.14
-71.26
-83.83
-94.03
-101.6
-106.87
-110.46
-112.9
-114.38
-114.82
-114.04
-111.99
-108.74
-104.36
-98.75
-91.61
-82.72
-72.2
-60.75
-49.51
-39.69
-32.04
-26.46
-22.02
-17.25
-10.83
-2.14
8.4
19.65
30.22
39.12
46.12
51.63
56.35
60.8
65.1
69.0
72.17
74.47
76.13
77.81
80.35
84.61
91.1
99.7
109.49
118.76
125.36
127.33
123.57
114.15
100.28
83.75
66.25
48.75
31.3
13.33
-5.72
-25.83
-46.16
-65.24
-81.56
-94.07
-102.38
-106.7
-107.49
-105.27
-100.58
-94.18
-87.06
-80.23
-74.26
-68.9
-63.13
-55.61
-45.49
-32.94
-19.18
-5.97
5.18
13.46
18.96
22.29
24.23
25.39
26.17
26.92
28.04
29.88
32.61
36.09
39.92
43.71
47.33
51.04
55.25
60.25
65.92
71.76
77.13
81.58
85.02
87.55
89.19
89.58
88.08
84.05
77.24
68.06
57.41
46.32
35.5
25.11
14.86
4.22
-7.18
-19.39
-32.08
-44.72
-56.76
-67.81
-77.63
-86.09
-93.07
-98.43
-102.01
-103.8
-104.02
-103.17
-101.91
-100.81
-100.02
-99.1
-97.04
-92.6
-84.8
-73.35
-58.9
-42.87
-27.05
-13.04
-1.8
6.54
12.52
17.01
20.86
24.53
28.06
31.19
33.57
34.96
35.38
35.01
34.19
33.26
32.5
32.21
32.6
33.8
35.67
37.77
39.42
39.96
39.05
36.84
33.92
31.0
28.53
26.6
24.84
22.7
19.6
15.16
9.11
1.38
-7.95
-18.6
-29.96
-41.16
-51.26
-59.52
-65.53
-69.27
-70.95
-70.86
-69.2
-66.15
-61.9
-56.72
-50.98
-45.04
-39.1
-33.22
-27.25
-20.99
-14.27
-7.03
0.64
8.41
15.75
21.88
26.02
27.65
26.74
23.81
19.73
15.38
11.37
7.95
5.19
3.18
2.11
2.3
4.07
7.65
13.17
20.65
29.87
40.22
50.61
59.69
66.22
69.55
69.83
67.77
64.17
59.6
54.25
48.17
41.54
34.75
28.15
21.7
14.94
7.21
-1.88
-12.08
-22.54
-32.24
-40.46
-47.09
-52.41
-56.8
-60.39
-62.96
-64.22
-64.09
-62.95
-61.63
-61.11
-62.09
-64.62
-67.97
-70.79
-71.54
-69.06
-62.84
-53.21
-41.07
-27.52
-13.54
0.15
13.11
25.01
35.55
44.5
51.75
57.39
61.62
64.73
66.97
68.52
69.5
69.96
69.85
69.0
67.15
64.05
59.57
53.81
47.16
40.3
34.05
29.15
26.08
24.84
24.95
25.45
25.19
23.1
18.51
11.31
2.0
-8.44
-18.83
-28.12
-35.61
-41.03
-44.55
-46.51
-47.3
-47.12
-45.97
-43.69
-40.15
-35.31
-29.47
-23.26
-17.53
-13.16
-10.66
-10.0
-10.55
-11.38
-11.65
-10.9
-9.18
-6.83
-4.24
-1.67
0.74
2.82
4.31
4.87
4.3
2.74
0.61
-1.55
-3.37
-4.75
-5.79
-6.55
-6.89
-6.6
-5.6
-4.21
-3.16
-3.32
-5.32
-9.21
-14.46
-20.19
-25.51
-29.86
-33.05
-35.19
-36.56
-37.47
-38.26
-39.28
-40.95
-43.58
-47.36
-52.38
-58.61
-66.0
-74.43
-83.5
-92.48
-100.35
-106.11
-109.23
-109.95
-109.19
-108.17
-107.8
-108.17
-108.35
-106.59
-100.88
-89.52
-71.65
-47.55
-18.62
12.8
