2013-02-24 11:52:08
64.0
-0.0
-0.0
-0.0
-0.0
-0.0
-0.0
-0.0
-0.0
-0.0
-0.0
0.0
0.01
0.01
-0.0
-0.03
-0.05
-0.05
0.0
0.13
0.36
0.66
1.01
1.37
1.72
2.06
2.4
2.79
3.24
3.8
4.42
5.06
5.66
6.2
6.68
7.15
7.68
8.31
9.14
10.09
11.04
11.88
12.56
13.14
13.76
14.65
15.96
17.91
20.32
22.9
25.38
27.58
29.57
31.68
34.32
37.81
42.54
48.15
54.1
59.83
64.97
69.58
74.14
79.34
85.71
93.76
103.0
112.62
121.73
129.77
136.75
143.3
150.75
157.77
166.64
177.95
191.79
206.97
220.57
228.25
225.36
208.53
176.87
132.76
80.05
23.07
-34.94
-92.44
-149.16
-205.23
-260.37
-313.74
-363.87
-409.83
-450.91
-486.5
-515.74
-537.23
-549.22
-549.96
-538.37
-514.21
-478.67
-433.88
-382.45
-327.02
-269.84
-212.63
-156.66
-102.95
-52.37
-5.9
35.58
71.43
101.35
125.5
144.38
158.69
169.15
176.37
180.75
182.57
182.07
179.51
175.23
169.65
163.18
156.15
148.81
141.3
133.69
126.02
118.33
110.69
103.16
95.8
88.68
81.83
75.25
68.95
62.95
57.25
51.86
46.78
42.03
37.59
33.45
29.61
26.07
22.81
19.83
17.11
14.67
12.48
10.54
8.83
7.35
6.07
4.97
4.05
3.27
2.62
2.09
1.65
1.3
1.01
0.79
0.61
0.48
0.37
0.3
0.25
0.21
0.19
0.19
0.19
0.21
0.24
0.27
0.3
0.34
0.38
0.42
0.46
0.51
0.56
0.6
0.65
0.71
0.77
0.83
0.9
0.98
1.07
1.16
1.27
1.4
1.53
1.69
1.86
2.05
2.26
2.5
2.76
3.05
3.36
3.7
4.08
4.5
4.94
5.42
5.94
6.5
7.09
7.73
8.41
9.13
9.9
10.71
11.57
12.46
13.41
14.42
15.49
16.62
17.81
19.05
20.32
21.55
22.68
23.62
24.24
24.43
24.06
23.04
21.29
18.83
15.69
11.94
7.76
3.34
-1.11
-5.34
-9.17
-12.41
-14.94
-16.71
-17.7
-17.94
-17.53
-16.6
-15.29
-13.75
-12.14
-10.56
-9.08
-7.7
-6.37
-5.07
-3.78
-2.45
-1.13
0.2
1.51
2.8
4.14
5.62
7.23
8.98
10.86
12.83
14.82
16.81
18.83
21.01
23.62
26.61
29.97
33.62
37.35
40.89
44.04
46.77
49.31
52.15
55.36
59.0
62.98
66.92
70.32
72.75
74.12
74.79
75.53
76.51
77.85
79.21
79.7
78.07
72.98
63.22
47.61
29.52
10.46
-8.67
-27.61
-46.67
-66.54
-88.07
-112.21
-139.7
-170.47
-203.75
-236.69
-264.77
-282.9
-287.16
-276.25
-252.09
-219.21
-183.1
-149.23
-121.26
-100.81
-87.94
-81.59
-80.04
-80.94
-81.54
-79.12
-72.09
-60.27
-45.23
-29.97
-17.97
-11.95
-12.59
-18.03
-24.15
-25.88
-18.81
-0.79
27.15
61.08
95.38
124.67
145.28
156.09
158.06
153.37
144.07
131.37
115.53
96.26
73.43
47.6
20.22
-6.54
-30.24
-48.71
-60.44
-64.64
-61.44
-51.68
-36.93
-19.31
-1.26
14.92
27.57
36.11
41.18
44.3
47.34
51.82
58.59
67.78
78.98
91.5
104.53
117.15
128.29
136.9
142.16
143.73
141.85
137.14
130.29
121.77
111.78
100.31
87.52
73.86
59.96
46.32
32.95
19.21
4.17
-12.89
-31.92
-51.79
-70.6
-86.29
-97.22
-102.76
-103.25
-99.85
-94.06
-87.37
-80.98
-75.77
-72.26
-70.51
-70.1
-70.1
-69.27
-66.44
-60.88
-52.64
-42.51
-31.83
-21.85
-13.36
-6.48
-0.79
4.18
8.61
12.22
14.45
14.89
13.69
11.57
9.5
8.23
7.83
7.65
6.78
4.59
1.11
-2.89
-6.29
-8.05
-7.56
-4.67
0.48
7.58
16.04
24.9
32.74
37.97
39.39
36.72
30.81
23.42
16.49
11.51
9.12
9.13
10.74
12.95
14.67
14.82
12.57
7.6
0.47
-7.28
-13.57
-16.45
-14.85
-8.97
-0.09
9.97
19.41
26.76
30.98
31.49
28.16
21.57
13.1
4.67
-1.82
-5.25
-5.73
-4.58
-3.83
-5.39
-10.35
-18.68
-29.3
-40.52
-50.55
-57.93
-61.86
-62.23
-59.58
-54.93
-49.59
-44.92
-42.12
-41.99
-44.73
-49.85
-56.26
-62.53
-67.15
-68.79
-66.54
-59.92
-49.08
-34.93
-19.11
-3.79
8.93
17.67
22.35
24.28
25.68
28.9
35.49
45.64
57.96
69.74
77.68
78.91
72.36
59.65
45.3
35.79
37.86
56.4
92.69
143.53
201.74
257.8
302.17
327.79
331.63
315.03
282.74
241.03
195.76
151.2
109.81
72.76
40.57
13.46
-9.01
-28.29
-46.81
-67.51
-93.08
-125.21
-164.07
-207.93
-253.04
-294.17
-325.58
-342.47
-342.38
-325.79
-295.72
-256.61
-212.89
-168.15
-125.03
-85.52
-51.22
-23.32
-2.0
13.88
26.83
40.08
56.62
78.03
103.81
131.12
155.15
170.39
172.23
158.48
130.27
91.68
48.28
5.28
-34.04
-68.54
-98.5
-124.37
-145.93
-162.26
-172.53
-176.78
-176.1
-172.03
-165.56
-156.51
-143.69
-125.86
-102.82
-76.06
-48.51
-23.48
-3.67
9.76
17.2
20.14
20.43
19.68
18.9
18.61
18.99
20.14
22.09
24.81
28.08
31.52
34.71
37.51
40.29
44.09
50.48
61.15
77.27
98.73
123.54
147.8
166.37
173.94
166.48
142.19
102.02
49.63
-9.17
-67.22
-117.14
-152.75
-170.34
-169.66
-153.87
-128.53
-99.85
-72.94
-50.76
-34.03
-22.03
-13.52
-7.27
-2.31
2.16
6.55
10.69
13.6
13.67
9.38
0.1
-13.25
-28.21
-41.5
-50.22
-52.85
-49.73
-42.67
-34.09
-25.94
-18.99
-12.86
-6.51
1.09
10.31
20.81
31.66
41.76
50.18
56.42
60.38
62.52
63.63
64.6
66.07
67.96
69.37
68.72
64.54
56.11
44.0
29.85
15.69
3.0
-7.75
-17.12
-26.09
-35.3
-44.63
-53.17
-59.57
-62.45
-60.78
-54.08
-42.87
-29.13
-16.5
-9.84
-13.75
-30.61
-59.2
-94.71
-130.42
-160.12
-180.23
-190.3
-192.07
-187.69
-178.42
-164.57
-146.44
-125.19
-103.15
-83.09
-66.97
-55.21
-46.66
-39.49
-32.13
-24.01
-15.7
-8.36
-2.89
0.76
3.9
8.75
17.65
32.18
52.45
77.02
103.26
128.16
149.1
164.51
174.04
178.46
179.16
177.59
174.84
171.31
166.89
161.3
154.53
147.13
140.0
133.89
128.88
124.13
118.15
109.47
97.33
82.27
66.05
51.09
39.61
32.69
29.76
28.78
27.05
22.27
13.41
1.06
-12.76
-25.32
-33.99
-36.92
-33.67
-25.22
-13.85
-2.48
6.2
10.66
11.14
9.58
8.84
11.57
19.11
30.94
45.03
58.68
69.5
76.24
78.88
78.22
75.32
70.92
65.31
58.4
50.15
40.74
30.69
20.77
11.87
5.02
1.21
1.07
4.42
9.91
15.04
16.73
12.38
0.78
-17.29
-39.37
-62.02
-81.85
-96.37
-104.41
-105.97
-101.79
-92.91
-80.23
-64.42
-46.14
-26.25
-6.06
12.69
28.16
38.88
44.04
43.74
38.89
31.09
22.29
14.43
9.03
6.75
7.25
9.33
11.49
12.58
12.14
10.51
8.35
6.07
3.59
0.36
-4.17
-10.09
-16.84
-23.5
-29.11
-33.2
-35.73
-36.9
-36.7
-34.73
-30.39
-23.23
-13.56
-2.59
7.9
16.05
20.64
21.38
18.93
14.57
9.94
6.58
5.59
7.39
11.45
16.47
20.66
22.36
20.47
14.87
6.29
-3.79
-13.64
-21.69
-26.97
-29.4
-29.92
-30.27
-32.39
-37.73
-46.52
-57.57
-68.72
-77.53
-82.1
-81.63
-76.41
-67.58
-56.74
-45.6
-35.72
-28.33
-24.15
-23.17
-24.71
-27.53
-30.26
-31.73
-31.31
-28.87
-24.72
-19.33
-13.22
-6.96
-1.18
3.42
6.15
6.63
4.97
1.87
-1.51
-3.95
-4.76
-4.18
-3.44
-4.26
-7.96
-14.64
-22.93
-30.46
-34.85
-34.82
-30.57
-23.44
-15.11
-6.83
0.77
7.46
13.24
18.56
24.93
35.23
53.01
80.79
118.1
160.43
200.06
228.56
239.82
232.15
208.48
174.63
136.83
99.7
65.5
34.6
6.65
-18.57
-40.66
-58.88
-72.41
-80.66
-83.08
-79.12
-68.37
-51.33
-30.29
-9.67
4.82
8.23
-1.49
-22.25
-48.45
-73.23
-91.18
-100.13
-101.25
-97.59
-92.3
-87.33
-83.3
-80.1
-77.48
-75.34
-73.53
-71.63
-68.97
-64.9
-59.12
-51.77
-43.46
-35.2
-28.05
-22.88
-20.03
-19.03
-18.65
-17.37
-14.02
-8.3
-1.0
6.47
12.77
17.35
20.57
23.4
26.78
31.01
35.62
39.69
42.43
43.56
43.53
43.24
43.68
45.64
49.44
54.91
61.26
67.17
70.84
70.46
64.89
54.18
39.83
24.38
10.47
-0.09
-6.88
-10.69
-12.89
-14.71
-16.77
-19.23
-22.04
-25.13
-28.35
-31.18
-32.66
-31.63
-27.29
-19.7
-10.0
-0.01
8.5
14.43
17.7
19.0
19.3
19.36
19.46
19.52
19.33
18.69
17.5
15.59
12.74
8.69
3.33
-3.1
-9.93
-16.11
-20.55
-22.49
-21.71
-18.61
-13.99
-8.72
-3.42
1.47
5.68
8.72
9.75
7.72
1.79
-8.12
-21.02
-34.92
-47.45
-56.67
-61.72
-63.02
-61.98
-60.27
-59.31
-59.82
-61.85
-64.99
-68.47
-71.35
-72.58
-71.34
-67.5
-62.02
-56.82
-54.11
-55.08
-58.83
-62.01
-59.87
-48.08
-24.69
8.8
47.84
86.51
119.37
143.0
156.29
159.94
155.6
145.3
131.27
115.89
101.51
90.09
82.59
78.79
77.56
77.51
77.62
77.6
77.78
78.64
80.31
82.34
83.69
83.07
79.38
71.95
60.79
46.54
30.36
13.72
-1.91
-15.32
-25.91
-33.89
-40.28
-46.63
-54.38
-64.31
-76.14
-88.64
-100.0
-108.39
-112.42
-111.35
-105.09
-94.16
-79.52
-62.45
-44.34
-26.54
-10.13
3.97
15.02
22.37
25.46
24.14
18.86
10.8
1.72
-6.5
-12.29
-14.83
-14.09
-10.61
-5.19
1.37
8.34
15.08
20.91
25.16
27.25
26.83
23.88
18.72
11.96
4.39
-3.17
-10.06
-15.84
-20.26
-23.04
-23.58
-20.87
-13.74
-1.54
15.32
35.22
55.64
74.01
88.38
97.77
102.12
101.89
97.76
90.5
81.08
70.63
60.38
51.36
44.27
39.37
36.54
35.36
35.16
35.06
34.1
31.53
27.06
20.93
13.77
6.29
-1.02
-8.08
-15.15
-22.61
-30.6
-38.87
-46.7
-53.03
-56.83
-57.48
-55.01
-50.18
-44.3
-38.83
-34.97
-33.24
-33.36
-34.31
-34.78
-33.68
-30.56
-25.83
-20.56
-16.14
-13.62
-13.33
-14.82
-17.11
-19.19
-20.35
-20.41
-19.58
-18.25
-16.8
-15.47
-14.47
-13.88
-13.73
-13.85
-13.88
-13.32
-11.79
-9.33
-6.6
-4.64
-4.45
-6.35
-9.59
-12.59
-13.5
-11.06
-5.11
3.36
12.61
20.88
26.98
30.57
32.09
32.4
32.59
33.66
36.41
41.3
48.33
56.92
66.09
74.59
81.21
85.03
85.53
82.57
76.45
67.79
57.46
46.41
35.4
24.77
14.26
3.21
-8.95
-22.14
-35.31
-46.64
-54.1
-56.29
-52.91
-44.84
-33.95
-22.49
-12.54
-5.55
-2.03
-1.42
-2.42
-3.49
-3.48
-2.15
-0.44
-0.36
-4.54
-15.53
-34.6
-61.0
-91.53
-121.06
-144.0
-156.03
-155.5
-143.73
-124.24
-101.19
-78.02
-56.67
-37.65
-20.58
-4.69
10.6
25.54
39.72
52.13
61.35
66.17
66.14
61.73
54.02
44.1
32.59
19.64
5.38
-9.76
-24.75
-38.26
-49.22
-56.99
-61.33
-62.07
-58.88
-51.46
-40.05
-25.83
-10.99
1.81
10.45
14.06
13.33
10.06
6.35
3.74
2.79
3.09
3.52
2.75
-0.39
-6.55
-15.61
-26.59
-37.89
-47.65
-54.36
-57.25
-56.56
-53.37
-49.22
-45.54
-43.14
-41.88
-40.56
-37.25
-30.02
-17.85
-1.33
17.31
35.01
49.04
58.05
62.28
62.96
61.2
57.31
50.77
40.95
27.99
13.17
-1.52
-14.27
-24.14
-31.27
-36.16
-39.02
-39.26
-35.89
-28.29
-16.91
-3.47
9.72
20.75
28.89
34.63
39.01
42.84
46.05
47.91
47.65
45.32
42.07
39.66
39.57
42.19
46.58
50.9
53.31
52.74
49.18
43.5
36.82
30.13
24.0
18.7
14.35
10.94
8.23
5.56
1.91
-3.8
-12.21
-23.18
-35.64
-47.83
-57.81
-64.03
-65.84
-63.6
-58.62
-52.58
-47.0
-42.71
-39.63
-36.95
-33.52
-28.36
-21.04
-11.83
-1.58
8.53
17.37
24.14
28.55
30.81
31.45
31.01
29.74
27.62
24.5
20.41
15.7
10.94
6.62
2.76
-1.08
-5.56
-11.12
-17.65
-24.56
-30.98
-36.13
-39.43
-40.47
-38.83
-34.11
-26.14
-15.29
-2.59
10.4
22.07
31.17
37.14
40.06
40.46
38.99
36.25
32.63
28.3
23.33
17.77
11.81
5.84
0.36
-4.18
-7.6
-10.0
-11.63
-12.51
-12.37
-10.66
-6.99
-1.53
4.86
10.84
15.02
16.57
15.52
12.76
9.76
8.03
8.7
12.19
18.21
25.88
34.06
41.68
48.02
52.66
55.44
56.18
54.74
51.15
45.82
39.59
33.64
29.04
26.32
25.24
24.76
23.45
19.95
13.59
4.66
-5.59
-15.36
-23.01
-27.7
-29.77
-30.59
-31.95
-35.35
-41.37
-49.59
-58.9
-68.0
-75.84
-81.63
-84.75
-84.62
-80.81
-73.28
-62.59
-49.75
-35.75
-21.1
-5.61
11.4
30.29
50.51
70.22
86.8
97.69
101.41
98.11
89.42
77.71
65.27
53.69
43.8
35.94
30.29
27.02
26.18
27.54
30.44
33.92
36.93
38.51
37.92
34.69
28.65
19.92
8.97
-3.43
-16.27
-28.28
-38.08
-44.46
-46.77
-45.32
-41.43
-37.0
-33.54
-31.37
-29.34
-25.4
-17.71
-5.8
9.02
24.18
36.96
45.66
50.12
51.59
51.93
52.87
55.48
60.01
65.85
71.53
74.65
72.2
61.4
40.81
11.38
-23.37
-58.27
-88.2
-109.78
-122.29
-127.37
-127.78
-126.0
-123.32
-119.81
-114.78
-107.41
-97.13
-83.72
-67.34
-48.67
-28.97
-9.96
6.47
18.71
25.9
28.09
26.16
21.55
16.07
11.42
9.02
9.5
12.4
16.16
18.59
17.85
13.41
6.52
-0.14
-3.61
-1.91
5.16
16.17
28.75
40.66
50.06
55.47
55.35
48.2
33.32
11.76
-13.09
-36.22
-52.71
-59.49
-56.52
-46.43
-33.07
-19.8
-8.53
0.26
6.71
10.71
11.67
8.94
2.54
-6.24
-14.82
-20.06
-19.29
-11.39
2.66
19.97
36.53
48.62
53.92
52.16
44.84
34.43
23.22
12.7
3.33
-5.16
-13.32
-21.68
-30.68
-40.68
-51.9
-64.37
-77.64
-90.77
-102.44
-111.21
-115.91
-115.96
-111.54
-103.5
-93.07
-81.48
-69.53
-57.45
-44.87
-31.19
-15.93
0.83
18.27
34.99
49.43
60.43
67.67
71.64
73.29
73.57
72.94
71.32
68.34
63.74
57.68
50.78
43.91
37.82
32.93
29.33
26.8
25.09
23.98
23.35
23.18
23.54
24.51
26.04
27.95
29.92
31.49
32.18
31.56
29.28
25.19
19.42
12.45
4.98
-2.2
-8.56
-13.95
-18.66
-23.16
-27.79
-32.39
-36.24
-38.29
-37.55
-33.54
-26.57
-17.66
-8.25
0.19
6.58
10.5
12.25
12.71
12.86
13.38
14.24
14.72
13.75
10.46
4.61
-3.17
-11.59
-19.17
-24.71
-27.58
-27.74
-25.6
-21.77
-16.82
-11.1
-4.71
2.44
10.44
19.02
27.37
34.21
38.17
38.35
34.82
28.7
21.8
15.97
12.41
11.31
11.84
12.67
12.59
11.06
8.53
6.12
5.21
6.75
10.93
17.28
25.03
33.6
42.95
53.44
65.48
79.09
93.61
107.79
119.87
127.76
129.07
121.3
102.4
71.69
30.98
-15.14
-60.05
-96.88
-120.8
-130.51
-128.35
-118.91
-107.06
-96.32
-88.24
-82.84
-79.51
-77.65
-76.72
-75.95
-74.17
-69.97
-62.35
-51.29
-37.97
-24.48
-13.14
-5.72
-2.95
-4.29
-8.16
-12.51
-15.55
-16.37
-15.28
-13.61
-13.14
-15.32
-20.63
-28.4
-36.99
-44.47
-49.17
-50.07
-46.9
-39.95
-29.98
-18.12
-5.8
5.37
13.98
19.19
21.05
20.58
19.41
19.14
20.7
24.04
28.3
32.22
34.76
35.3
33.67
29.88
23.94
15.95
6.23
-4.38
-14.56
-22.72
-27.49
-28.19
-25.02
-19.08
-11.91
-5.2
-0.4
1.51
0.08
-4.53
-11.57
-19.78
-27.66
-33.69
-36.68
-36.06
-32.06
-25.72
-18.77
-13.12
-10.36
-11.22
-15.29
-21.22
-27.21
-31.78
-34.19
-34.69
-34.04
-33.18
-32.6
-32.3
-31.81
-30.49
-27.67
-22.7
-15.01
-4.27
9.34
24.78
40.19
53.19
61.66
64.45
61.82
55.32
47.14
39.27
32.88
28.27
25.14
23.21
22.55
23.61
26.84
32.28
39.21
46.14
51.33
53.32
51.58
46.59
39.63
32.24
25.57
20.14
15.92
12.49
9.43
6.38
3.05
-0.85
-5.5
-10.83
-16.37
-21.36
-24.99
-26.82
-26.97
-26.01
-24.69
-23.44
-22.31
-21.03
-19.3
-16.95
-14.09
-10.93
-7.63
-4.31
-0.99
2.16
4.83
6.64
7.35
7.07
6.24
5.47
5.14
5.25
5.37
4.96
3.64
1.52
-0.83
-2.59
-2.97
-1.51
1.81
6.69
12.56
18.7
24.21
27.99
29.01
26.57
20.64
12.19
2.89
-5.37
-11.14
-13.95
-14.34
-13.46
-12.45
-12.01
-12.19
-12.75
-13.44
-14.17
-14.98
-15.73
-15.96
-14.9
-11.96
-7.03
-0.85
5.29
9.99
12.42
12.68
11.6
10.33
9.56
9.27
8.66
6.72
2.76
-3.24
-10.53
-17.99
-24.46
-29.12
-31.62
-32.04
-30.79
-28.4
-25.41
-22.15
-18.66
-14.71
-9.94
-4.12
2.57
9.47
15.54
19.52
20.31
17.16
10.06
-0.19
-11.9
-22.9
-31.11
-35.3
-35.53
-33.08
-29.82
-27.53
-27.26
-29.34
-33.54
-39.48
-46.59
-53.97
-60.02
-62.66
-59.9
-50.68
-35.45
-16.25
4.09
22.87
38.42
50.26
58.72
64.29
67.05
66.68
62.87
55.88
46.77
37.16
28.55
21.71
16.32
11.3
5.53
-1.35
-8.48
-14.04
-16.02
-13.14
-5.52
5.38
17.18
27.39
34.09
36.33
34.19
28.67
21.41
14.31
9.08
6.65
6.9
8.71
10.46
10.89
9.62
7.17
4.5
2.25
0.42
-1.45
-3.68
-5.88
-6.84
-5.03
0.61
9.98
21.78
34.0
44.82
53.2
59.11
63.16
66.01
67.86
68.3
66.51
61.79
53.94
43.49
31.43
18.89
6.69
-4.8
-15.42
-24.96
-32.89
-38.45
-40.96
-40.23
-36.66
-31.27
-25.23
-19.51
-14.61
-10.52
-6.92
-3.38
0.39
4.42
8.51
12.33
15.45
17.48
18.23
17.62
15.72
12.55
8.06
2.08
-5.41
-13.98
-22.56
-29.51
-33.11
-32.24
-26.91
-18.32
-8.44
0.79
8.08
13.03
15.85
16.92
16.48
14.62
11.5
7.58
3.59
0.35
-1.64
-2.24
-1.76
-0.64
0.7
2.02
3.3
4.64
6.2
8.12
10.61
13.86
18.1
23.41
29.61
36.09
41.9
45.95
47.35
45.8
41.68
35.97
29.81
24.0
18.69
13.32
6.92
-1.4
-12.0
-24.46
-37.73
-50.44
-61.34
-69.52
-74.53
-76.21
-74.64
-70.11
-63.11
-54.35
-44.62
-34.65
-24.92
-15.8
-7.63
-0.78
4.31
7.36
8.52
8.37
7.83
7.83
8.96
11.35
14.69
18.43
21.98
24.89
26.93
28.0
28.17
27.61
26.66
25.75
25.39
26.07
28.16
31.86
37.13
43.65
50.77
57.6
63.2
66.87
68.49
68.61
68.24
68.44
69.84
72.29
74.87
76.02
73.83
66.4
52.39
31.63
5.63
-22.32
-47.89
-66.79
-76.16
-75.27
-65.62
-50.28
-33.14
-18.14
-8.67
-6.98
-13.54
-26.82
-43.61
-60.37
-74.73
-86.47
-97.22
-109.01
-122.6
-136.7
-148.52
-155.3
-155.77
-150.56
-141.44
-129.99
-116.59
-100.45
-80.43
-56.05
-28.11
1.5
30.43
56.57
78.33
94.61
104.69
108.34
106.11
99.54
91.03
83.17
77.91
75.71
75.35
74.4
70.16
60.71
45.6
25.95
3.89
-18.21
-38.35
-55.21
-68.05
-76.27
-79.26
-76.47
-67.86
-54.38
-38.19
-22.12
-8.74
0.61
6.19
9.49
12.2
15.32
18.61
20.96
21.08
18.26
12.65
5.2
-2.81
-10.17
-15.96
-19.59
-20.77
-19.37
-15.31
-8.52
1.05
13.22
27.48
42.84
57.95
71.39
82.02
89.23
93.03
93.87
92.28
88.55
82.55
73.82
61.88
46.59
28.39
8.38
-12.04
-31.4
-48.49
-62.51
-72.99
-79.69
-82.59
-81.83
-77.88
-71.46
-63.44
-54.7
-45.92
-37.57
-29.87
-22.98
-16.97
-11.94
-8.07
-5.61
-4.77
-5.59
-7.75
-10.57
-13.12
-14.47
-14.07
-11.89
-8.43
-4.45
-0.68
2.6
5.69
9.39
14.73
22.41
32.41
43.77
54.58
62.51
65.43
62.11
52.69
38.75
22.87
7.95
-3.53
-10.28
-12.5
-11.9
-11.1
-12.77
-18.57
-28.51
-40.92
-53.08
-62.23
-66.47
-65.29
-59.47
-50.65
-40.79
-31.54
-23.86
-17.69
-11.94
-4.82
5.42
19.68
37.43
56.92
75.87
92.38
105.35
114.3
118.66
117.48
109.6
94.52
73.16
48.06
22.72
0.41
-16.71
-27.92
-33.49
-34.1
-30.44
-23.34
-14.17
-5.01
1.65
3.61
-0.21
-9.28
-21.56
-34.08
-44.02
-49.52
-50.24
-47.24
-42.39
-37.6
-34.26
-33.01
-33.87
-36.49
-40.24
-44.12
-46.83
-47.01
-43.71
-36.89
-27.46
-16.92
-6.69
2.38
10.06
16.41
21.3
24.28
24.78
22.58
18.19
12.69
7.24
2.52
-1.62
-5.94
-11.25
-17.82
-25.12
-31.8
-36.22
-36.84
-32.65
-23.49
-10.17
5.57
21.22
34.08
41.9
43.54
39.43
31.44
22.16
14.1
8.75
6.02
4.29
0.87
-6.89
-20.49
-39.45
-61.28
-82.34
-99.04
-109.07
-111.76
-107.91
-98.97
-86.44
-71.48
-54.98
-37.6
-19.93
-2.33
14.98
31.8
47.69
61.82
73.13
80.69
84.1
83.63
80.16
74.93
69.27
64.4
61.2
60.09
61.1
63.93
68.24
73.75
80.08
86.59
92.28
95.95
96.66
94.14
88.68
80.75
70.49
57.59
41.8
23.61
4.63
-12.64
-25.89
-34.06
-37.81
-39.16
-40.52
-43.64
-49.23
-57.08
-66.6
-77.14
-88.08
-98.8
-108.64
-117.03
-123.62
-128.28
-130.89
-131.08
-128.13
-121.23
-110.0
-94.83
-77.11
-58.78
-41.78
-27.4
-16.08
-7.51
-0.94
4.5
9.49
14.47
19.61
24.77
29.66
33.92
37.31
39.83
41.81
43.72
45.92
48.4
50.81
52.69
53.8
54.3
54.67
55.4
56.63
58.04
58.87
58.27
55.37
49.36
39.49
25.21
6.53
-15.48
-38.48
-59.22
-74.42
-81.79
-80.8
-72.68
-59.82
-44.93
-30.24
-17.29
-6.93
0.39
4.5
5.55
4.1
1.19
-1.81
-3.51
-2.82
0.68
6.5
13.4
19.7
23.87
25.08
23.54
20.37
17.09
15.04
14.94
16.78
20.0
23.87
27.76
31.21
33.78
34.81
33.5
29.0
20.91
9.52
-3.99
-17.76
-29.76
-38.35
-42.76
-43.23
-40.87
-37.1
-33.28
-30.29
-28.4
-27.41
-26.81
-25.97
-24.23
-20.99
-15.82
-8.58
0.39
10.23
19.72
27.56
32.87
35.41
35.61
34.36
32.62
31.03
29.77
28.61
27.09
24.83
21.7
17.87
13.64
9.34
5.14
1.08
-2.86
-6.59
-9.91
-12.56
-14.32
-15.18
-15.39
-15.4
-15.67
-16.47
-17.68
-18.76
-18.86
-17.22
-13.53
-8.16
-2.18
3.07
6.39
7.11
5.2
1.11
-4.55
-11.26
-18.67
-26.53
-34.63
-42.6
-49.85
-55.48
-58.23
-56.66
-49.56
-36.57
-18.56
2.32
23.19
41.28
54.86
63.49
67.86
69.2
68.6
66.78
64.2
61.42
59.25
58.53
59.8
62.95
67.21
71.53
75.16
78.03
80.88
84.87
90.96
99.25
108.76
117.54
123.35
124.42
120.08
110.89
98.5
84.99
72.23
61.2
51.61
41.72
28.62
8.91
-20.03
-58.8
-105.11
-153.98
-198.87
-233.54
-253.65
-257.59
-246.28
-222.34
-189.27
-150.98
-111.53
-74.82
-44.18
-21.56
-7.12
0.67
4.43
6.77
9.56
13.51
18.31
22.93
26.05
26.52
23.68
17.66
9.52
0.93
-6.33
-10.98
-12.61
-11.55
-8.48
-4.04
1.41
7.6
14.11
20.14
24.67
26.75
25.85
22.06
16.01
8.65
0.98
-6.17
-12.2
-16.7
-19.39
-20.01
-18.42
-14.75
-9.51
-3.53
2.27
7.28
11.49
15.55
20.32
26.47
33.99
42.19
49.99
56.34
60.53
62.21
61.36
58.22
53.33
47.51
41.8
37.15
34.08
32.39
31.2
29.37
25.98
20.73
14.02
6.61
-0.73
-7.52
-13.54
-18.62
-22.4
-24.27
-23.66
-20.46
-15.26
-9.4
-4.35
-1.08
0.43
1.18
2.51
5.26
9.14
12.78
14.39
12.65
7.43
-0.16
-8.26
-15.02
-19.25
-20.57
-19.27
-15.88
-10.94
-5.02
1.17
6.76
10.89
13.1
13.57
13.11
12.8
13.48
15.35
17.84
19.92
20.46
18.67
14.28
7.5
-1.02
-10.32
-19.15
-26.16
-30.11
-30.24
-26.53
-19.74
-11.23
-2.53
5.12
10.99
14.99
17.47
19.02
20.26
21.7
23.63
26.11
28.94
31.79
34.28
36.21
37.61
38.69
39.67
40.56
40.97
40.34
38.25
34.84
30.86
27.46
25.67
25.88
27.63
29.91
31.67
32.31
31.93
30.93
29.56
27.61
24.42
19.42
12.56
4.51
-3.55
-10.36
-15.11
-17.64
-18.37
-18.1
-17.64
-17.68
-18.54
-20.15
-21.98
-23.11
-22.58
-19.83
-15.12
-9.61
-4.99
-2.87
-4.09
-8.42
-14.72
-21.43
-27.37
-32.19
-36.36
-40.79
-46.1
-52.25
-58.41
-63.4
-66.21
-66.4
-64.18
-60.16
-55.1
-49.66
-44.33
-39.32
-34.39
-28.75
-21.24
-10.78
2.77
18.26
33.41
45.72
53.65
57.43
58.96
60.81
64.91
71.6
79.6
86.74
90.99
91.16
87.11
79.39
68.9
56.7
44.01
32.4
23.56
18.8
18.38
21.0
23.95
23.78
17.39
3.13
-18.63
-45.56
-74.1
-100.42
-121.58
-136.04
-143.82
-146.08
-144.39
-140.01
-133.53
-124.86
-113.5
-99.03
-81.37
-61.04
-39.04
-16.66
4.72
23.88
39.9
52.3
61.11
66.77
70.15
72.26
74.12
76.43
79.43
82.63
84.83
84.39
79.69
69.81
54.93
36.49
16.7
-2.06
-18.05
-30.67
-40.45
-48.61
-56.32
-64.19
-71.98
-78.9
-84.0
-86.65
-86.74
-84.54
-80.48
-74.9
-68.12
-60.57
-53.0
-46.49
-42.3
-41.46
-44.45
-50.8
-59.01
-66.67
-70.86
-68.96
-59.43
-42.43
-19.9
5.17
29.69
51.38
69.1
82.58
91.72
96.32
96.25
91.87
84.46
75.89
67.87
61.09
54.97
48.06
39.11
27.85
15.32
3.32
-6.42
-12.91
-16.13
-16.7
-15.36
-12.51
-8.12
-1.89
6.52
17.07
29.25
42.03
54.07
64.16
71.44
75.62
76.74
74.99
70.34
62.58
51.53
37.26
20.26
1.47
-17.92
-36.52
-52.87
-65.42
-72.86
-74.54
-70.94
-63.74
-55.56
-48.93
-45.39
-44.71
-44.85
-42.75
-35.47
-21.45
-1.08
23.32
48.42
70.92
88.41
99.82
105.3
105.75
102.43
96.65
89.54
81.99
74.5
67.1
59.54
51.44
42.62
33.17
23.32
13.15
2.58
-8.62
-20.5
-32.83
-45.03
-56.43
-66.51
-74.97
-81.66
-86.26
-88.21
-86.87
-81.81
-73.32
-62.46
-50.99
-40.72
-32.99
-28.19
-25.72
-24.4
-23.03
-20.96
-18.34
-15.82
-14.12
-13.52
-13.62
-13.59
-12.62
-10.37
-7.11
-3.54
-0.47
1.53
2.23
1.67
-0.01
-2.71
-6.3
-10.72
-15.83
-21.45
-27.36
-33.28
-38.84
-43.57
-46.78
-47.75
-45.78
-40.55
-32.31
-22.16
-11.89
-3.69
0.56
0.03
-4.73
-11.81
-18.72
-23.33
-24.59
-22.69
-18.62
-13.49
-8.03
-2.4
3.54
9.96
16.77
23.73
30.52
36.92
42.71
47.64
51.36
53.65
54.59
54.76
55.1
56.41
59.0
62.3
65.15
66.13
64.17
58.85
50.45
39.85
28.17
16.54
5.86
-3.26
-10.63
-16.4
-21.05
-25.16
-29.33
-34.02
-39.4
-45.37
-51.43
-56.78
-60.49
-61.78
-60.45
-57.04
-52.79
-49.11
-47.12
-47.21
-49.06
-51.9
-54.94
-57.59
-59.43
-60.19
-59.72
-58.22
-56.2
-54.4
-53.22
-52.25
-50.1
-44.86
-35.01
-20.26
-1.92
17.66
35.96
51.34
63.31
72.34
79.19
84.39
88.2
90.72
92.27
93.32
94.2
94.81
94.5
92.31
87.58
80.42
71.8
63.29
56.3
51.53
48.57
46.18
42.83
37.36
29.43
19.61
9.03
-1.07
-9.77
-16.74
-22.21
-26.83
-31.43
-36.75
-43.2
-50.78
-58.99
-66.92
-73.47
-77.57
-78.55
-76.21
-70.89
-63.32
-54.29
-44.45
-34.31
-24.36
-15.25
-7.75
-2.55
0.17
0.88
0.69
0.77
1.9
4.08
6.69
8.83
9.71
8.81
5.83
0.56
-7.06
-16.71
-27.6
-38.77
-49.57
-59.9
-70.13
-80.27
-89.31
-95.02
-94.54
-85.73
-68.3
-44.32
-17.57
7.71
28.19
42.25
49.99
52.59
51.52
47.98
42.61
35.59
26.7
15.64
2.35
-12.71
-28.5
-43.48
-55.85
-63.93
-66.55
-63.38
-54.95
-42.58
-28.13
-13.42
0.11
11.74
21.45
29.49
36.03
40.79
42.99
41.81
36.94
29.04
19.81
11.55
6.29
5.16
7.95
13.33
19.46
24.69
28.04
29.2
28.28
25.48
20.97
14.97
7.83
0.05
-8.08
-16.59
-25.99
-37.01
-50.26
-65.81
-83.11
-101.1
-118.52
-134.31
-147.75
-158.67
-167.22
-173.65
-177.89
-179.14
-175.82
-165.78
-147.21
-119.43
-83.65
-42.86
-1.2
37.22
69.2
93.08
108.58
116.5
118.19
115.31
109.72
103.32
97.7
93.73
91.2
88.88
84.92
77.67
66.52
52.47
38.25
27.85
25.49
34.27
54.88
84.99
119.61
152.51
178.18
193.45
198.22
194.84
186.69
176.66
166.15
155.17
143.0
129.09
113.58
97.28
81.28
66.5
53.51
42.33
32.3
22.05
9.76
-6.26
-26.68
-50.57
-75.31
-97.35
-113.5
-122.18
-124.0
-121.45
-117.84
-116.11
-118.01
-123.83
-132.72
-143.05
-152.79
-159.77
-161.96
-157.74
-146.38
-128.22
-104.76
-78.36
-51.76
-27.45
-7.17
8.35
19.46
27.26
33.35
39.22
45.91
53.74
62.37
71.08
79.12
86.03
91.6
95.81
98.66
100.2
100.38
99.23
96.79
93.23
88.79
83.81
78.6
73.23
67.43
60.64
52.36
42.63
32.17
22.31
14.46
9.41
7.09
6.75
7.59
9.21
11.69
15.08
18.95
22.24
23.67
22.45
18.87
14.28
10.56
9.19
10.63
14.2
18.48
22.06
24.15
24.77
24.53
24.05
23.5
22.49
20.16
15.68
8.61
-0.83
-11.88
-23.52
-34.87
-45.3
-54.45
-62.01
-67.58
-70.83
-71.69
-70.53
-68.08
-65.08
-61.88
-58.3
-53.75
-47.54
-39.41
-29.62
-19.03
-8.76
0.01
6.4
10.11
11.55
11.8
12.29
14.21
17.82
22.27
25.91
27.0
24.58
18.75
10.49
1.11
-8.21
-16.59
-23.22
-27.17
-27.39
-23.16
-14.6
-2.82
10.36
23.08
34.06
42.91
50.0
55.95
61.14
65.28
67.35
65.83
59.15
46.51
28.39
6.74
-15.45
-35.18
-50.29
-60.12
-65.21
-66.56
-64.82
-59.98
-51.79
-40.51
-27.39
-14.47
-3.87
3.25
7.01
8.63
9.38
9.92
10.01
8.89
5.96
1.38
-4.05
-9.35
-13.83
-17.36
-20.11
-22.05
-22.76
-21.48
-17.71
-11.53
-3.85
3.96
10.4
14.13
14.12
9.73
0.85
-11.82
-26.57
-40.88
-51.95
-57.57
-57.04
-51.4
-43.19
-35.53
-31.2
-31.87
-37.76
-47.82
-60.04
-71.99
-81.32
-86.21
-85.67
-79.53
-68.28
-52.83
-34.28
-13.81
7.25
27.48
45.28
59.1
67.68
70.32
67.11
59.08
47.96
35.77
24.37
14.87
7.64
2.37
-1.42
-4.03
-5.23
-4.38
-0.81
5.86
15.41
27.01
39.42
51.22
61.04
67.8
70.77
69.88
65.6
58.92
50.8
41.78
31.38
18.17
0.49
-22.51
-49.77
-78.09
-103.07
-120.66
-128.54
-126.74
-116.91
-101.09
-80.65
-56.19
-28.27
1.63
30.75
55.66
73.43
82.75
84.26
79.99
72.35
63.27
53.87
44.54
35.28
25.97
16.48
6.81
-2.89
-12.15
-20.16
-25.94
-28.71
-28.17
-24.52
-18.15
-9.35
1.78
15.05
29.85
44.86
58.39
68.89
75.63
78.99
80.26
81.02
82.46
84.86
87.31
87.68
82.98
70.09
46.87
13.34
-27.65
-70.69
-109.22
-137.43
-151.87
-152.13
-140.2
-119.25
-92.47
-62.44
-31.53
-2.23
22.65
40.46
49.6
50.18
44.08
34.14
23.13
12.94
4.19
-3.3
-9.95
-15.77
-20.43
-23.35
-24.06
-22.33
-18.17
-11.68
-3.06
7.41
19.13
31.19
42.31
51.08
56.26
57.22
54.22
48.53
42.05
36.69
33.42
31.87
30.41
27.06
20.6
11.29
0.77
-8.85
-16.07
-20.57
-23.1
-24.75
-26.21
-27.44
-27.93
-27.2
-25.11
-21.95
-18.2
-14.44
-11.23
-9.29
-9.48
-12.51
-18.46
-26.39
-34.47
-40.65
-43.57
-43.21
-40.88
-38.36
-36.91
-36.43
-35.48
-32.08
-24.8
-13.58
0.22
14.5
27.32
37.56
45.01
49.99
52.73
53.02
50.32
44.1
34.47
22.53
10.3
0.2
-5.68
-6.38
-2.47
4.2
10.94
15.17
15.07
9.86
-0.05
-13.12
-26.93
-38.59
-45.29
-45.21
-38.25
-26.32
-12.92
-1.96
3.67
3.1
-2.22
-9.25
-14.6
-15.74
-11.82
-3.77
6.17
15.32
21.51
23.82
22.91
20.59
19.06
19.98
23.83
30.07
37.36
44.25
49.48
52.1
51.59
48.15
42.95
37.81
34.39
32.86
31.21
25.6
12.05
-11.41
-43.28
-78.73
-111.33
-135.27
-147.03
-145.77
-132.57
-109.34
-78.16
-41.4
-1.98
36.36
69.59
94.29
108.79
113.74
111.72
106.31
100.69
96.73
94.74
93.91
93.13
91.54
88.8
84.88
79.81
73.58
66.24
57.96
48.93
39.22
28.76
17.6
6.35
-3.44
-9.58
-9.92
-3.49
8.9
24.72
40.43
52.69
59.16
58.88
51.95
39.06
21.16
-0.64
-25.14
-51.29
-78.6
-107.56
-139.25
-174.42
-212.3
-249.92
-282.57
-305.3
-314.63
-309.76
-292.34
-265.45
-232.17
-194.78
-154.91
-114.25
-75.06
-39.97
-11.29
9.88
23.99
32.66
37.89
41.16
43.07
43.31
41.03
35.34
25.74
12.63
-2.61
-17.6
-29.51
-35.8
-35.05
-27.44
-14.61
1.05
17.33
32.87
47.3
60.74
73.21
84.34
93.5
100.26
104.8
107.84
110.07
111.69
112.05
110.04
104.68
95.75
83.96
70.71
57.5
45.58
35.77
28.48
23.96
22.13
22.62
24.6
26.95
28.61
28.93
27.9
25.96
23.81
22.0
20.78
20.11
19.75
19.41
18.67
17.01
13.82
8.56
1.09
-8.16
-18.13
-27.38
-34.5
-38.58
-39.37
-37.24
-32.78
-26.44
-18.44
-8.94
1.51
11.75
20.06
24.77
24.94
20.92
14.3
7.13
1.03
-3.54
-7.28
-11.26
-16.16
-21.78
-27.33
-32.09
-35.92
-39.14
-41.98
-43.93
-43.67
-39.56
-30.63
-17.23
-1.11
15.24
29.4
39.73
45.58
47.1
44.93
40.02
33.46
26.36
19.54
13.2
6.72
-1.17
-11.64
-25.13
-40.78
-56.51
-69.79
-78.5
-81.81
-80.52
-76.76
-73.21
-72.25
-75.1
-81.54
-90.02
-98.09
-103.1
-102.73
-95.38
-80.43
-58.33
-30.75
-0.63
28.16
51.6
66.67
72.41
70.2
63.21
54.93
47.91
42.98
39.46
36.1
32.04
27.39
23.09
20.38
20.17
22.63
27.23
32.84
38.11
41.71
42.64
40.44
35.13
27.25
17.54
6.74
-4.51
-15.65
-26.05
-35.02
-41.85
-46.1
-47.78
-47.24
-45.02
-41.51
-36.82
-30.91
-24.0
-16.74
-10.21
-5.55
-3.33
-3.09
-3.37
-2.08
2.73
12.05
25.47
41.1
56.09
67.28
72.12
69.31
59.23
43.81
26.09
9.63
-2.15
-6.61
-2.26
10.91
31.38
56.26
81.84
104.3
120.45
128.3
127.2
117.93
102.32
82.94
62.31
42.34
23.91
6.86
-9.48
-25.53
-40.95
-54.46
-64.28
-68.92
-67.8
-61.32
-50.6
-36.93
-21.44
-5.04
11.35
26.62
39.49
48.68
53.24
52.77
47.62
38.88
28.37
18.14
10.0
5.09
3.46
4.32
6.27
7.94
8.39
7.25
4.62
0.88
-3.43
-7.59
-10.74
-12.16
-11.4
-8.75
-5.34
-3.03
-3.83
-9.11
-19.01
-32.03
-45.49
-56.24
-61.88
-61.57
-56.24
-48.19
-40.07
-33.95
-30.82
-30.6
-32.39
-34.91
-36.79
-36.73
-33.84
-27.92
-19.61
-10.29
-1.66
4.77
8.13
8.28
5.72
1.18
-4.38
-10.02
-14.81
-18.21
-20.16
-21.26
-22.62
-25.32
-30.06
-36.9
-45.34
-54.48
-63.12
-69.8
-72.75
-70.12
-60.51
-43.6
-20.58
5.99
32.86
57.09
76.83
91.51
101.54
107.63
110.29
109.77
106.28
100.34
92.91
84.98
77.06
68.92
59.74
48.69
35.7
21.86
9.15
-0.25
-4.84
-4.35
0.3
7.53
15.56
22.86
28.08
30.09
28.16
22.24
13.31
3.34
-5.37
-11.17
-13.87
-14.9
-16.53
-20.65
-27.71
-36.48
-44.58
-49.63
-50.25
-46.52
-39.9
-32.64
-27.23
-25.81
-29.74
-39.24
-53.14
-69.05
-83.87
-94.7
-99.55
-97.83
-90.31
-78.53
-64.44
-50.02
-37.22
-27.88
-23.45
-24.61
-30.87
-40.53
-51.03
-59.8
-64.97
-65.78
-62.7
-57.23
-51.62
-48.46
-50.08
-57.71
-70.76
-86.55
-101.08
-110.43
-112.3
-106.81
-96.18
-83.46
-71.27
-61.13
-53.5
-48.39
-45.64
-44.69
-44.16
-41.57
-33.72
-17.6
8.46
44.11
86.83
132.45
176.04
212.92
239.65
254.71
258.71
253.96
243.58
230.57
217.05
204.11
191.98
180.34
168.6
155.94
141.52
124.81
105.9
85.71
65.74
47.47
31.72
18.36
6.66
-3.97
-13.42
-20.65
-24.31
-23.56
-18.8
-11.88
-5.39
-1.54
-1.12
-3.11
-5.03
-4.27
0.85
10.16
21.73
32.58
39.52
39.76
31.01
11.55
-19.2
-59.6
-105.06
-148.27
-181.16
-197.77
-196.69
-181.59
-159.4
-137.05
-118.54
-103.93
-90.62
-75.89
-59.05
-41.94
-27.69
-18.7
-15.33
-15.78
-17.39
-18.24
-18.01
-17.95
-19.78
-24.26
-30.43
-35.76
-37.18
-32.56
-21.71
-6.6
9.38
22.83
31.67
35.84
37.08
37.91
40.27
44.5
49.2
51.92
50.37
43.56
32.41
19.36
7.57
-0.26
-2.81
-0.35
5.51
12.51
18.54
22.1
22.55
20.05
15.28
9.15
2.58
-3.57
-8.52
-11.53
-11.94
-9.27
-3.47
4.88
14.49
23.52
30.0
32.37
30.06
23.65
14.87
6.01
-0.76
-4.1
-3.79
-0.84
3.02
5.88
6.29
3.74
-1.18
-6.98
-11.84
-14.32
-13.96
-11.49
-8.45
-6.5
-6.59
-8.64
-11.61
-14.17
-15.28
-14.58
-12.23
-8.54
-3.58
2.85
10.96
20.51
30.65
40.09
47.53
52.28
54.49
55.01
54.84
54.56
54.09
52.77
49.95
45.5
40.02
34.58
30.07
26.69
23.86
20.51
15.79
9.56
2.52
-4.06
-8.8
-10.6
-8.88
-3.65
4.57
14.77
25.43
34.54
39.74
38.78
30.2
14.17
-7.2
-30.06
-49.82
-62.61
-66.54
-62.41
-53.31
-43.47
-36.69
-35.11
-38.71
-45.78
-53.96
-61.1
-65.91
-67.97
-67.43
-64.65
-60.0
-53.97
-47.34
-41.26
-37.01
-35.44
-36.54
-39.26
-41.78
-42.17
-39.22
-32.97
-24.84
-17.2
-12.51
-12.42
-17.08
-25.05
-33.81
-40.62
-43.51
-41.81
-36.12
-27.76
-18.18
-8.53
0.39
7.82
12.91
14.93
13.65
9.81
5.07
1.37
0.01
1.07
3.38
5.31
5.73
4.6
2.74
1.26
0.87
1.72
3.73
7.03
12.05
19.23
28.5
38.99
49.17
57.5
62.91
64.95
63.7
59.53
52.88
44.4
35.02
25.75
17.39
10.16
3.71
-2.52
-8.77
-14.63
-19.27
-22.0
-22.76
-22.29
-21.63
-21.5
-21.79
-21.51
-19.36
-14.4
-6.62
2.99
12.78
21.09
26.69
28.99
27.98
24.05
17.89
10.38
2.52
-4.79
-10.85
-15.23
-17.6
-17.62
-14.91
-9.3
-1.27
7.8
15.88
20.85
21.25
16.82
8.41
-2.51
-14.48
-26.49
-37.96
-48.58
-57.95
-65.47
-70.42
-72.27
-70.88
-66.62
-60.24
-52.58
-44.2
-35.13
-25.04
-13.51
-0.5
13.47
27.38
40.09
50.69
58.81
64.56
68.33
70.66
72.05
72.99
73.85
74.81
75.7
75.91
74.37
69.74
60.79
46.89
28.34
6.58
-16.1
-37.22
-54.75
-67.67
-76.02
-80.65
-82.65
-82.9
-81.8
-79.29
-75.24
-69.64
-62.77
-55.08
-46.93
-38.4
-29.3
-19.37
-8.75
1.95
11.64
19.18
23.81
25.59
25.32
24.27
23.7
24.51
27.06
31.29
36.95
43.95
52.49
63.11
76.33
92.14
109.6
126.63
140.55
149.0
150.86
146.76
138.75
129.23
119.75
110.45
100.26
87.98
73.23
56.87
40.49
25.36
11.74
-0.98
-13.37
-25.0
-33.94
-37.57
-34.02
-23.59
-9.2
4.43
12.4
11.18
-0.51
-21.8
-50.27
-82.59
-114.98
-143.46
-164.27
-174.58
-173.3
-161.44
-141.79
-117.81
-92.32
-66.53
-40.11
-11.88
18.87
51.49
83.81
112.62
134.64
147.35
149.38
140.56
121.78
94.98
63.18
30.37
0.97
-21.18
-33.91
-37.4
-34.05
-27.51
-21.27
-17.58
-17.08
-19.23
-23.02
-27.63
-32.57
-37.37
-41.3
-43.25
-42.01
-36.74
-27.45
-15.04
-1.29
11.7
22.02
28.45
30.63
28.98
24.35
17.56
9.09
-0.82
-11.85
-23.35
-34.2
-43.23
-49.68
-53.64
-55.94
-57.57
-59.03
-59.79
-58.59
-54.22
-46.45
-36.54
-26.86
-19.98
-17.5
-19.4
-24.06
-29.02
-32.02
-31.77
-28.27
-22.61
-16.51
-11.56
-8.89
-8.8
-10.84
-14.12
-17.56
-20.29
-21.88
-22.44
-22.6
-23.18
-24.62
-26.5
-27.02
-23.1
-11.26
11.0
43.76
83.85
125.31
161.04
184.91
193.55
187.01
168.08
140.99
110.08
78.91
50.11
25.63
6.87
-5.41
-11.28
-11.83
-8.98
-4.84
-0.98
2.09
4.99
8.92
14.96
23.44
33.69
44.35
54.01
61.74
67.35
71.08
73.11
73.13
70.48
64.56
55.26
43.19
29.41
14.94
0.12
-15.72
-33.95
-56.0
-82.42
-112.15
-142.23
-168.22
-185.22
-189.14
-178.03
-152.86
-117.69
-79.04
-44.57
-21.35
-14.08
-23.74
-47.25
-78.25
-108.99
-132.52
-144.49
-143.81
-132.24
-113.14
-89.98
-65.3
-40.23
-14.68
12.04
40.38
69.82
98.48
123.48
141.83
151.77
153.52
149.26
142.17
134.93
128.66
122.78
115.82
106.7
95.6
84.01
73.8
66.09
60.53
55.51
49.12
40.26
29.27
17.82
8.0
1.41
-1.52
-1.55
-0.01
1.76
2.8
2.35
-0.57
-7.3
-19.2
-36.7
-58.52
-81.63
-102.11
-116.73
-124.14
-125.05
-121.37
-114.67
-105.19
-91.88
-73.45
-49.59
-21.61
7.89
36.08
60.93
81.73
98.83
113.06
125.16
135.42
143.81
150.14
154.15
155.46
153.27
146.19
132.42
110.46
80.13
43.32
3.82
-33.68
-65.2
-88.52
-103.56
-111.45
-113.46
-110.43
-103.19
-93.51
-84.84
-81.81
-88.44
-106.15
-132.55
-161.9
-187.24
-202.86
-206.06
-197.53
-180.29
-158.24
-134.76
-111.94
-90.57
-70.34
-50.36
-29.58
-7.34
16.1
39.52
61.13
79.37
93.48
103.7
110.68
114.78
115.71
112.84
105.96
96.01
84.98
75.21
68.38
64.86
63.8
63.73
63.25
61.34
57.37
50.88
41.71
30.34
18.1
6.98
-1.1
-5.28
-6.22
-5.96
-6.96
-11.17
-19.35
-31.11
-45.45
-61.34
-77.87
-94.19
-109.28
-121.98
-131.33
-137.04
-139.77
-140.82
-141.51
-142.52
-143.65
-144.09
-142.96
-139.76
-134.31
-126.34
-114.96
-98.62
-75.35
-43.76
-3.97
41.66
88.67
131.46
164.79
185.28
192.32
188.02
176.31
161.58
147.54
136.46
129.2
125.48
124.45
124.99
125.92
126.1
124.55
120.48
113.48
103.59
91.25
77.24
62.45
47.65
33.29
19.55
6.57
-5.32
-15.53
-23.36
-28.39
-30.82
-31.51
-31.57
-31.85
-32.51
-33.17
-33.22
-32.28
-30.36
-27.61
-24.06
-19.41
-13.35
-5.91
2.18
9.52
14.61
16.42
14.86
10.76
5.46
0.27
-3.86
-6.51
-7.64
-7.37
-6.06
-4.15
-2.2
-0.78
-0.29
-0.83
-2.15
-3.76
-5.03
-5.49
-4.9
-3.37
-1.29
0.73
2.12
2.52
1.84
0.34
-1.54
-3.29
-4.44
-4.71
-4.13
-3.0
-1.88
-1.54
-2.77
-6.19
-12.0
-19.87
-28.87
-37.7
-44.96
-49.48
-50.6
-48.28
-43.06
-35.89
-27.94
-20.37
-14.15
-10.0
-8.22
-8.54
-10.21
-12.11
-13.12
-12.61
-10.68
-8.2
-6.38
-6.22
-7.98
-11.06
-14.3
-16.63
-17.55
-17.35
-16.88
-16.93
-17.74
-18.75
-18.92
-17.23
-13.18
-6.99
0.55
8.52
16.18
23.17
29.37
34.66
38.73
41.06
41.13
38.71
34.08
27.92
20.97
13.81
6.69
-0.31
-7.0
-12.82
-16.96
-18.75
-18.14
-16.0
-13.85
-13.21
-14.92
-18.73
-23.49
-27.67
-30.01
-30.06
-28.23
-25.53
-23.15
-22.05
-22.71
-25.17
-29.16
-34.45
-40.66
-47.14
-52.69
-55.59
-53.9
-46.32
-32.94
-15.37
3.84
22.36
39.05
54.14
68.51
82.6
95.64
105.75
110.84
109.68
102.57
91.2
77.94
64.85
53.14
43.03
34.28
26.76
20.89
17.53
17.46
20.82
26.65
32.95
37.37
37.93
33.82
25.59
15.0
4.51
-3.4
-6.98
-5.67
-0.43
6.53
12.58
15.62
14.82
10.73
4.69
-2.01
-8.69
-15.17
-21.34
-26.7
-30.48
-32.04
-31.43
-29.47
-27.18
-25.31
-24.01
-23.13
-22.5
-22.2
-22.45
-23.3
-24.63
-26.29
-28.46
-31.66
-36.44
-42.62
-49.06
-53.74
-54.58
-50.35
-41.14
-28.2
-13.23
2.32
17.61
32.18
45.58
57.16
66.09
71.8
74.27
74.14
72.36
69.68
66.3
61.8
55.7
47.78
38.63
29.37
21.15
14.52
9.23
4.47
-0.49
-5.8
-11.02
-15.33
-18.2
-19.63
-20.21
-20.72
-21.67
-23.07
-24.43
-25.08
-24.59
-23.14
-21.6
-21.22
-23.17
-27.84
-34.69
-42.27
-48.99
-53.69
-56.12
-56.83
-56.44
-55.15
-52.52
-47.76
-40.31
-30.42
-19.15
-7.99
1.74
9.32
14.78
18.68
21.71
24.42
27.05
29.64
32.12
34.45
36.55
38.16
38.65
37.11
32.71
25.21
15.36
4.86
-4.25
-10.35
-12.92
-12.51
-10.34
-7.63
-5.17
-3.34
-2.36
-2.57
-4.24
-7.37
-11.39
-15.34
-18.24
-19.67
-19.96
-20.01
-20.87
-23.25
-27.36
-32.95
-39.4
-45.87
-51.24
-54.21
-53.67
-49.12
-41.04
-30.93
-20.98
-13.34
-9.4
-9.19
-11.4
-13.86
-14.45
-12.05
-7.08
-1.24
3.35
5.29
4.58
2.51
0.89
1.1
3.6
8.13
14.18
21.48
29.93
39.28
48.81
57.4
64.11
68.65
71.58
73.88
76.22
78.38
79.37
78.05
73.81
66.86
57.99
48.08
37.76
27.34
17.28
8.25
1.24
-2.96
-4.17
-3.01
-0.62
1.85
3.73
4.92
5.56
5.75
5.28
3.8
1.01
-3.09
-8.28
-14.31
-21.06
-28.61
-37.05
-46.2
-55.54
-64.25
-71.43
-76.39
-78.89
-79.2
-78.13
-76.9
-76.75
-78.45
-81.89
-86.08
-89.48
-90.55
-88.06
-81.04
-68.76
-50.77
-27.25
0.4
29.27
55.34
74.57
84.29
84.28
76.66
64.99
52.67
41.8
32.89
25.33
18.42
12.12
7.27
5.31
7.5
14.21
24.5
36.27
46.91
54.0
56.2
53.64
47.85
41.26
36.32
34.57
36.04
39.13
41.06
38.76
30.0
14.26
-6.98
-30.64
-52.96
-70.66
-81.8
-86.22
-85.36
-81.45
-76.68
-72.4
-68.95
-65.97
-62.93
-59.59
-56.15
-52.97
-50.35
-48.33
-46.71
-45.35
-44.37
-44.14
-45.05
-47.09
-49.61
-51.33
-50.78
-46.7
-38.42
-25.96
-10.0
8.08
26.47
43.09
56.16
64.78
69.31
71.13
72.1
73.8
76.91
81.02
84.89
86.99
85.99
81.25
72.93
62.02
50.02
38.52
28.78
21.41
16.43
13.42
11.9
11.51
11.97
12.93
13.92
14.41
14.03
12.74
10.8
8.47
6.04
3.62
1.43
-0.1
-0.26
1.6
5.75
11.78
18.68
25.15
30.05
32.89
33.91
34.07
34.65
37.02
42.12
50.18
60.36
70.49
77.45
77.84
69.15
50.79
24.6
-5.51
-34.77
-58.88
-75.29
-83.62
-85.28
-82.53
-77.61
-72.04
-66.63
-61.73
-57.59
-54.57
-52.88
-52.33
-52.04
-50.64
-46.85
-40.29
-31.95
-23.87
-18.4
-16.97
-19.39
-23.91
-28.07
-29.81
-28.26
-23.88
-17.88
-11.6
-5.91
-1.23
2.37
4.87
6.35
7.02
7.34
7.91
9.21
11.5
14.63
18.17
21.59
24.37
26.25
27.34
28.05
28.93
30.41
32.51
34.69
36.05
35.55
32.5
26.66
18.4
8.59
-1.46
-10.35
-16.78
-20.06
-20.34
-18.65
-16.51
-15.32
-15.83
-17.81
-20.44
-22.8
-24.36
-25.23
-25.84
-26.48
-27.21
-27.79
-28.13
-28.57
-29.72
-32.04
-35.4
-38.88
-41.14
-40.98
-38.0
-32.63
-25.65
-17.59
-8.38
2.33
14.56
27.45
39.42
48.88
55.2
59.07
62.22
66.48
72.86
81.17
90.22
98.22
103.0
102.12
93.13
74.42
46.29
11.86
-23.09
-51.66
-68.04
-69.38
-56.6
-33.66
-6.06
20.63
41.57
52.91
51.64
35.81
5.17
-38.25
-89.88
-143.06
-190.37
-225.08
-242.77
-242.22
-225.44
-196.78
-161.54
-124.31
-87.96
-53.37
-20.1
12.62
44.9
75.86
103.71
126.41
142.34
150.93
152.96
150.45
146.15
142.6
141.11
141.14
140.03
133.92
118.93
92.45
54.27
6.72
-45.71
-97.41
-143.18
-179.54
-205.31
-221.6
-230.79
-235.14
-235.83
-232.51
-223.82
-208.43
-186.03
-157.72
-125.81
-93.08
-62.06
-34.62
-11.84
5.8
18.28
25.99
29.88
31.55
33.02
36.36
42.99
53.22
66.14
80.2
93.95
106.54
117.58
126.63
132.62
133.81
128.58
116.58
99.53
81.0
65.03
54.44
49.69
48.91
49.03
47.46
43.18
36.94
30.62
26.05
24.28
25.32
28.58
33.11
37.88
41.68
42.94
39.92
31.33
16.98
-1.76
-22.14
-40.88
-55.06
-63.15
-65.33
-63.07
-58.37
-52.82
-47.06
-40.77
-33.28
-24.24
-14.15
-4.21
4.3
10.89
16.47
23.08
32.89
47.04
64.73
83.42
99.91
111.8
118.58
121.6
123.04
124.44
125.59
124.53
118.49
105.42
85.04
58.75
28.8
-2.9
-35.29
-67.71
-99.0
-126.82
-148.09
-160.31
-162.91
-157.76
-148.35
-138.14
-129.15
-121.46
-114.04
-105.97
-97.3
-88.94
-81.93
-76.64
-72.42
-68.05
-62.41
-55.03
-46.29
-37.28
-29.21
-23.01
-18.76
-15.5
-11.35
-4.13
7.74
24.38
44.09
63.85
80.43
91.7
97.39
98.94
98.61
98.14
98.06
97.55
95.13
89.61
80.89
70.08
58.92
48.86
40.42
33.01
25.45
16.72
6.72
-3.61
-12.63
-18.81
-21.39
-20.75
-18.12
-15.02
-12.63
-11.46
-11.45
-12.23
-13.4
-14.61
-15.51
-15.71
-14.85
-12.85
-10.11
-7.47
-5.91
-5.99
-7.34
-8.74
-8.45
-5.03
2.08
12.43
24.84
38.08
51.3
64.08
76.05
86.56
94.6
99.19
100.09
98.12
94.87
91.87
89.48
86.36
79.72
66.38
43.92
11.25
-31.34
-82.52
-139.98
-199.9
-256.6
-302.81
-331.12
-336.42
-317.87
-279.58
-229.15
-175.08
-124.05
-79.49
-41.94
-10.52
15.41
35.55
49.07
55.53
55.67
51.43
45.32
39.5
35.14
32.31
30.42
28.96
28.01
28.46
31.8
39.53
52.59
70.87
93.01
116.59
138.7
156.5
167.96
172.34
170.2
163.07
152.65
140.07
125.19
106.64
82.56
51.79
14.9
-25.37
-64.71
-98.44
-122.79
-135.76
-137.0
-127.48
-108.79
-82.96
-52.45
-20.26
10.38
36.5
56.17
68.89
75.58
77.97
77.82
76.27
73.52
69.02
61.92
51.69
38.61
24.0
9.88
-1.69
-9.28
-12.6
-12.46
-10.25
-7.26
-4.07
-0.5
3.98
9.73
16.5
23.46
29.53
33.82
35.74
34.6
29.21
17.86
-1.09
-28.13
-61.7
-98.05
-132.16
-159.21
-175.95
-181.43
-176.68
-163.94
-145.81
-124.6
-102.25
-80.26
-59.71
-41.28
-25.16
-11.22
0.8
11.16
20.11
27.98
35.14
41.81
47.86
52.8
55.9
56.64
55.06
51.82
48.01
44.82
43.3
44.25
48.18
55.33
65.44
77.63
90.36
101.72
110.05
114.5
115.36
113.92
112.03
111.3
112.59
115.34
117.57
116.16
107.72
89.79
61.94
26.28
-13.09
-51.35
-84.39
-109.78
-126.83
-136.07
-138.61
-135.78
-129.1
-120.41
-111.58
-103.98
-97.96
-92.64
-86.41
-77.74
-66.01
-51.88
-37.09
-23.8
-13.86
-8.24
-6.72
-8.02
-10.15
-11.09
-9.26
-3.93
4.8
16.26
29.36
42.66
54.32
62.13
63.84
57.97
44.71
26.27
6.51
-10.4
-21.56
-26.47
-27.06
-26.51
-27.53
-31.04
-35.87
-39.72
-40.53
-37.62
-31.95
-25.27
-19.09
-13.84
-8.91
-3.27
3.62
11.34
18.56
23.68
25.55
24.06
20.22
15.72
12.21
10.5
10.11
9.52
6.92
1.2
-7.37
-17.22
-26.09
-32.02
-33.87
-31.36
-24.65
-14.08
-0.28
15.36
30.4
41.71
46.58
44.0
35.32
23.95
13.95
8.47
8.53
12.99
19.24
24.44
26.66
25.28
20.92
14.89
8.68
3.43
-0.18
-2.03
-2.34
-1.62
-0.52
0.27
0.1
-1.55
-4.99
-10.17
-16.48
-22.68
-26.91
-27.23
-22.25
-12.03
1.48
14.9
24.45
27.55
23.91
15.76
6.99
1.57
2.14
9.2
21.31
35.83
49.87
61.12
68.23
70.94
69.83
66.09
61.04
55.8
50.96
46.58
42.43
38.33
34.36
31.08
29.31
29.88
33.22
38.89
45.15
48.89
46.12
33.53
10.16
-21.41
-55.48
-85.12
-104.93
-113.12
-111.88
-105.78
-99.29
-94.9
-92.57
-90.86
-88.49
-85.33
-82.29
-80.38
-79.65
-78.96
-76.53
-70.97
-62.21
-51.57
-41.32
-33.43
-28.47
-25.14
-20.74
-12.36
1.77
21.58
45.32
70.32
93.72
112.76
124.73
127.25
119.0
100.84
76.45
51.6
32.25
22.08
21.13
26.16
32.73
37.57
39.92
41.13
43.07
46.43
50.2
52.4
51.55
47.69
42.38
37.54
34.06
30.82
25.14
14.14
-3.63
-26.99
-52.4
-75.26
-91.81
-100.48
-102.28
-99.96
-96.52
-93.92
-92.46
-91.09
-88.21
-82.55
-73.63
-61.65
-47.14
-30.57
-12.32
7.19
27.09
46.01
62.21
74.22
81.36
84.05
83.58
81.36
78.18
73.89
67.6
58.39
45.99
31.06
14.96
-0.72
-14.58
-25.62
-33.21
-37.13
-37.8
-36.47
-35.05
-35.44
-38.63
-43.96
-49.22
-51.44
-48.13
-38.29
-22.72
-3.57
16.27
33.74
45.75
49.34
42.01
22.42
-8.75
-48.48
-91.78
-132.79
-166.08
-187.72
-195.79
-190.25
-172.57
-145.32
-111.52
-74.29
-36.16
1.41
38.56
76.84
118.48
164.84
215.02
265.12
308.87
339.59
352.67
347.2
326.26
295.41
260.43
225.48
192.47
161.86
133.96
109.79
90.95
78.72
73.07
72.41
74.23
76.19
76.98
76.46
75.11
73.11
69.81
63.75
53.31
37.41
15.8
-11.06
-42.46
-77.64
-115.49
-153.8
-188.81
-215.35
-228.0
-222.9
-199.31
-160.24
-111.8
-61.61
-16.89
16.96
36.99
42.58
34.92
16.44
-9.67
-39.92
-70.91
-99.73
-124.31
-143.39
-156.49
-163.72
-165.61
-163.18
-157.71
-150.49
-142.47
-133.99
-124.95
-115.13
-104.52
-93.51
-82.6
-72.18
-62.35
-53.05
-44.44
-36.92
-30.99
-26.78
-23.77
-20.78
-16.56
-10.26
-1.89
7.69
17.27
25.75
32.71
38.56
44.35
51.46
60.86
72.68
86.02
99.07
109.71
115.97
116.51
110.73
98.84
81.89
61.82
41.11
22.11
6.16
-7.02
-19.18
-32.55
-48.46
-66.37
-83.7
-96.97
-103.2
-101.38
-92.71
-80.04
-66.6
-54.78
-45.69
-39.19
-34.54
-31.02
-28.24
-26.03
-24.18
-22.12
-18.98
-13.87
-6.39
3.01
12.93
21.42
26.58
27.26
23.58
16.98
9.97
5.4
5.61
11.75
23.6
39.66
57.63
74.9
89.06
98.33
101.9
100.2
94.88
88.4
83.13
80.46
80.22
80.66
79.41
74.53
65.39
52.77
38.35
23.81
10.48
-0.83
-9.59
-15.29
-17.48
-16.02
-11.45
-5.03
1.54
6.6
9.13
8.97
6.77
3.54
0.25
-2.62
-5.27
-8.46
-13.19
-20.11
-29.12
-39.16
-48.5
-55.32
-58.41
-57.52
-53.31
-46.87
-39.13
-30.46
-20.73
-9.89
1.56
12.32
20.7
25.34
25.9
23.23
18.96
14.73
11.47
9.12
6.91
3.88
-0.6
-6.56
-13.6
-21.16
-28.79
-36.23
-43.42
-50.24
-56.45
-61.61
-65.13
-66.4
-65.07
-61.09
-54.85
-46.97
-38.14
-28.98
-20.27
-13.21
-9.54
-11.04
-18.36
-29.69
-40.41
-44.24
-35.65
-12.52
22.52
62.79
100.04
127.48
141.76
143.26
134.92
120.32
102.36
82.74
62.42
42.22
23.19
6.63
-6.35
-15.25
-20.55
-23.72
-26.71
-31.32
-38.56
-48.3
-59.57
-71.08
-81.72
-90.74
-97.71
-102.32
-104.19
-103.09
-98.97
-92.12
-83.19
-73.01
-62.49
-52.44
-43.4
-35.56
-28.63
-22.0
-15.0
-7.26
1.13
9.59
17.4
24.12
29.74
34.67
39.44
44.36
49.3
53.69
56.66
57.35
55.2
50.25
43.26
35.67
29.18
25.2
24.25
25.69
27.9
28.96
27.48
23.18
16.82
9.58
2.3
-4.96
-12.7
-21.3
-30.32
-38.37
-43.58
-44.55
-41.11
-34.36
-26.18
-18.32
-11.77
-6.57
-2.21
1.87
5.96
10.15
14.63
19.71
25.69
32.52
39.53
45.49
49.02
49.14
45.68
39.43
31.81
24.39
18.51
14.89
13.7
14.65
17.23
20.88
25.09
29.26
32.74
34.77
34.69
32.19
27.65
22.17
17.35
14.76
15.31
18.91
24.44
30.01
33.51
33.21
28.21
18.83
6.67
-5.9
-16.37
-23.01
-25.5
-24.85
-22.83
-21.06
-20.38
-20.74
-21.7
-23.13
-25.52
-29.78
-36.47
-45.13
-54.13
-61.16
-64.12
-62.03
-55.4
-45.88
-35.55
-26.12
-18.46
-12.6
-8.25
-5.09
-3.03
-2.09
-2.06
-2.45
-2.5
-1.67
0.19
2.71
5.16
6.89
7.53
7.1
5.87
4.09
1.85
-1.0
-4.79
-9.97
-17.15
-26.78
-38.9
-52.65
-66.19
-77.0
-82.6
-81.08
-71.44
-53.68
-28.6
2.1
35.81
68.93
97.39
117.43
126.64
124.65
113.27
95.78
75.96
57.07
41.16
28.95
19.93
12.88
6.39
-0.52
-8.09
-15.84
-22.9
-28.6
-32.77
-35.71
-37.94
-39.72
-40.94
-41.11
-39.72
-36.58
-31.98
-26.69
-21.65
-17.62
-14.84
-12.95
-11.12
-8.45
-4.29
1.38
7.94
14.23
18.7
19.5
14.72
3.02
-15.55
-38.79
-62.31
-80.59
-88.77
-84.57
-69.09
-46.26
-21.12
2.0
20.52
33.5
40.81
42.45
38.55
29.88
18.33
6.62
-2.65
-7.96
-9.56
-9.11
-8.67
-9.66
-12.09
-14.57
-15.03
-11.67
-3.76
7.92
21.35
33.88
43.1
47.46
46.64
41.35
33.13
23.93
15.8
10.47
8.98
11.24
15.89
20.8
23.74
23.36
19.51
13.29
6.24
-0.31
-5.7
-9.82
-12.79
-14.72
-15.59
-15.35
-13.95
-11.49
-8.2
-4.51
-1.14
1.13
1.69
0.69
-0.75
-0.77
2.4
9.5
19.67
30.56
39.32
43.74
43.3
39.31
34.32
30.95
30.98
34.81
41.54
49.71
57.92
65.17
70.88
74.78
76.88
77.52
77.3
76.6
75.03
70.93
61.73
45.12
20.46
-10.29
-42.95
-72.56
-95.34
-109.88
-117.26
-119.82
-119.84
-118.58
-116.29
-112.81
-108.28
-103.05
-97.57
-92.1
-86.73
-81.65
-77.52
-75.38
-76.13
-79.9
-85.69
-91.48
-95.14
-95.47
-92.8
-88.91
-86.06
-85.74
-88.07
-91.7
-94.51
-94.48
-90.2
-81.01
-66.75
-47.55
-23.93
2.83
30.44
55.84
76.0
89.05
94.98
95.71
94.21
93.25
94.27
96.92
99.18
98.19
91.53
78.11
58.78
36.28
14.52
-2.48
-11.74
-12.27
-5.41
5.6
16.47
23.15
23.15
16.11
3.81
-10.62
-23.73
-32.8
-36.29
-34.0
-26.96
-17.26
-7.67
-1.0
1.05
-1.1
-4.4
-3.6
6.96
31.23
69.4
117.12
166.51
208.41
235.27
243.29
233.13
208.81
175.87
139.3
102.62
67.83
36.41
9.84
-10.32
-23.19
-29.43
-31.37
-32.31
-35.36
-42.63
-55.22
-73.58
-97.76
-126.89
-158.45
-187.78
-209.13
-217.44
-210.52
-189.99
-160.71
-129.04
-100.93
-80.6
-70.21
-69.94
-78.11
-91.18
-104.24
-111.94
-110.09
-97.09
-74.46
-46.19
-17.15
8.54
28.59
42.61
51.47
56.29
57.85
56.35
51.75
44.18
34.09
22.24
9.37
-3.9
-16.92
-28.59
-37.06
-39.77
-34.11
-18.37
7.34
40.85
78.37
115.5
148.26
173.9
191.21
200.37
202.5
199.15
191.83
181.81
170.12
157.57
144.68
131.61
118.0
103.06
85.94
66.43
45.36
24.89
8.14
-1.63
-1.93
8.15
27.54
53.25
81.08
106.44
125.36
135.29
135.65
127.74
114.38
99.14
85.54
76.27
72.69
74.7
80.9
89.03
96.58
101.42
102.37
99.39
93.42
86.0
78.81
73.07
69.24
66.85
64.58
60.49
52.77
40.14
22.28
-0.07
-25.68
-53.61
-83.86
-117.22
-154.38
-194.45
-234.16
-268.05
-290.02
-295.71
-284.11
-257.97
-222.51
-183.46
-145.31
-110.79
-81.16
-57.09
-39.24
-28.05
-23.3
-23.65
-26.9
-30.68
-33.31
-34.19
-33.67
-32.64
-31.72
-30.97
-29.9
-27.84
-24.28
-19.16
-12.95
-6.43
-0.42
4.69
8.98
13.2
18.4
25.59
35.17
46.56
58.05
67.23
71.75
70.23
62.98
51.95
40.17
30.57
24.88
23.09
23.58
23.91
21.61
14.91
3.02
-14.0
-35.16
-58.59
-81.62
-101.23
-114.8
-120.79
-119.25
-111.62
-100.12
-87.04
-74.11
-62.51
-52.96
-45.91
-41.46
-39.11
-37.76
-35.81
-31.81
-24.92
-15.32
-4.08
7.31
17.63
26.38
33.88
40.98
48.43
56.33
64.02
70.44
74.69
76.53
76.52
75.64
74.59
73.26
70.62
65.2
55.92
42.82
27.17
11.12
-3.17
-14.14
-21.22
-24.61
-24.93
-22.87
-19.32
-15.4
-12.49
-11.83
-13.99
-18.48
-23.84
-28.33
-30.74
-30.98
-30.0
-29.25
-29.92
-32.43
-36.42
-41.1
-45.75
-49.92
-53.43
-56.05
-57.26
-56.34
-52.58
-45.63
-35.73
-23.8
-11.12
1.03
11.81
20.9
28.41
34.58
39.3
42.24
42.95
41.44
38.48
35.47
33.84
34.33
36.4
38.38
38.11
33.98
25.55
13.67
0.1
-13.07
-23.91
-30.87
-32.92
-29.65
-21.41
-9.46
4.08
16.57
25.3
28.06
23.66
12.29
-4.27
-23.01
-40.27
-52.9
-59.09
-58.76
-53.19
-44.13
-32.96
-20.35
-6.46
8.62
24.43
40.08
54.29
65.5
71.94
71.84
64.25
49.71
30.73
11.26
-4.87
-15.67
-21.66
-25.27
-29.06
-33.91
-38.72
-41.3
-40.17
-35.69
-29.8
-24.81
-21.97
-21.26
-21.96
-23.67
-26.67
-31.39
-37.61
-44.05
-48.83
-50.41
-48.34
-43.16
-35.74
-26.62
-15.86
-3.54
9.73
22.51
32.99
39.64
41.98
40.56
36.77
32.25
28.37
26.01
25.29
25.71
26.32
26.1
24.46
21.51
18.24
15.98
15.83
18.05
21.71
24.87
25.18
20.81
11.24
-2.29
-17.02
-29.29
-35.65
-33.82
-23.32
-5.54
16.71
39.99
60.94
76.84
85.86
87.19
81.01
68.59
52.06
34.2
17.78
5.07
-2.49
-4.37
-0.82
7.36
19.04
33.13
48.83
65.89
84.58
105.12
127.0
148.3
165.75
175.56
174.72
162.15
139.22
109.04
75.33
41.08
7.7
-25.14
-59.25
-96.97
-139.86
-187.41
-236.15
-279.82
-310.85
-322.68
-311.95
-279.63
-230.53
-171.6
-109.89
-51.16
0.56
42.67
73.68
93.34
102.86
105.0
103.46
101.54
101.01
101.5
100.94
96.78
87.64
74.07
58.62
44.78
35.5
32.02
33.34
36.64
38.4
35.7
27.12
13.22
-3.72
-20.4
-33.52
-40.84
-41.9
-38.16
-32.27
-26.98
-23.87
-22.83
-22.46
-21.32
-19.05
-16.84
-16.75
-20.34
-27.45
-35.92
-42.56
-44.61
-41.09
-33.15
-23.37
-14.63
-9.11
-7.83
-10.72
-16.89
-24.88
-32.9
-39.18
-42.4
-42.2
-39.4
-35.56
-32.25
-30.31
-29.51
-28.87
-27.37
-24.47
-20.26
-15.21
-9.72
-3.86
2.62
9.97
18.16
26.71
34.57
40.42
43.19
42.3
38.21
32.23
26.06
21.01
17.31
14.01
9.61
3.05
-5.55
-14.68
-22.18
-26.13
-25.67
-21.02
-13.07
-2.68
9.58
23.24
37.56
51.44
63.52
72.48
77.28
77.0
70.54
56.6
34.11
3.06
-35.02
-77.12
-119.59
-159.34
-194.52
-224.6
-249.63
-269.44
-283.22
-289.67
-287.52
-276.16
-255.89
-227.81
-193.43
-154.28
-111.73
-67.09
-21.88
21.91
61.86
95.58
121.23
138.15
147.03
149.5
147.56
142.96
136.88
129.99
122.71
115.29
107.87
100.53
93.35
86.44
80.04
74.49
70.07
66.99
65.27
64.75
64.85
64.67
62.79
57.77
48.59
35.27
19.06
2.07
-13.43
-25.91
-34.94
-40.91
-44.55
-46.27
-46.17
-44.25
-40.91
-36.99
-33.52
-31.14
-29.62
-28.02
-25.22
-20.55
-14.14
-6.66
1.3
9.56
18.27
27.3
35.85
42.48
45.82
45.34
41.74
36.57
31.31
26.6
22.04
16.76
10.24
2.96
-3.62
-7.73
-8.13
-4.53
2.36
11.38
21.42
31.59
41.11
48.98
53.95
54.81
50.96
43.02
32.92
23.27
16.4
13.43
13.97
16.48
19.19
20.74
20.64
19.0
16.27
12.94
9.58
6.92
5.76
6.76
10.04
14.99
20.52
25.54
29.44
32.36
34.88
37.55
40.4
42.89
44.25
43.83
41.38
37.14
31.62
25.63
20.11
16.13
14.57
15.87
19.7
24.89
29.81
32.86
33.08
30.37
25.55
20.11
15.85
14.34
16.53
22.15
29.54
35.8
37.54
32.0
18.01
-3.5
-29.71
-56.73
-80.85
-99.56
-112.0
-118.82
-121.42
-121.12
-118.58
-113.74
-106.22
-95.88
-83.09
-68.78
-54.11
-40.19
-27.85
-17.66
-9.94
-4.73
-1.66
0.12
1.96
5.35
11.48
20.62
31.69
42.12
48.27
46.45
34.11
10.87
-21.25
-58.17
-94.93
-126.75
-149.73
-161.16
-159.49
-144.5
-117.48
-81.43
-40.75
-0.49
34.77
61.89
79.61
88.29
89.3
84.3
74.73
61.6
45.49
26.79
5.9
-16.46
-38.93
-59.65
-76.45
-87.41
-91.36
-88.34
-79.63
-67.37
-54.05
-41.72
-31.57
-23.67
-17.19
-10.88
-3.55
5.47
16.31
28.6
41.66
54.68
66.82
77.35
85.71
91.72
95.56
97.73
98.77
98.94
98.06
95.58
90.97
84.01
75.16
65.56
56.89
50.95
49.24
52.28
59.24
67.87
74.94
77.32
73.02
62.07
46.53
29.77
15.1
4.49
-2.0
-5.94
-9.54
-14.61
-21.91
-31.12
-41.2
-50.76
-58.53
-63.41
-64.76
-62.52
-57.43
-50.97
-44.95
-40.83
-39.21
-39.69
-41.38
-43.61
-46.34
-50.09
-55.36
-61.96
-68.9
-74.81
-78.77
-80.77
-81.66
-82.32
-82.78
-81.8
-77.18
-66.81
-49.77
-26.82
-0.05
27.96
55.13
80.28
102.78
122.07
137.28
147.47
152.23
152.25
149.34
145.73
143.2
142.25
142.04
140.86
136.91
129.09
117.15
101.67
83.59
63.86
43.22
22.19
1.04
-20.08
-40.93
-61.17
-80.03
-96.4
-108.78
-115.6
-115.63
-108.53
-95.32
-78.49
-61.26
-46.58
-36.09
-29.71
-26.27
-24.33
-23.12
-22.56
-22.63
-22.59
-20.74
-15.09
-4.41
10.63
27.65
43.49
55.7
63.49
67.72
69.98
71.26
71.38
69.1
63.35
54.29
43.6
34.03
27.93
25.79
25.75
24.55
18.98
7.8
-7.63
-24.13
-38.05
-47.16
-51.18
-51.52
-50.17
-48.81
-48.27
-48.72
-49.98
-51.71
-53.49
-54.67
-54.48
-52.01
-46.76
-38.71
-28.33
-16.37
-3.65
9.03
20.97
31.67
40.97
48.99
56.09
62.37
67.59
71.22
72.81
72.59
71.4
70.46
70.57
71.47
71.99
70.48
65.79
57.72
46.91
34.36
21.07
7.78
-4.73
-15.74
-24.62
-31.18
-36.08
-40.44
-45.31
-51.03
-57.03
-62.08
-65.11
-65.76
-64.41
-61.65
-57.86
-53.13
-47.39
-40.89
-34.32
-28.6
-24.55
-22.5
-22.22
-23.15
-24.53
-25.89
-27.1
-28.32
-29.96
-32.48
-36.16
-40.87
-45.89
-50.15
-52.41
-51.78
-48.01
-41.59
-33.53
-25.06
-17.32
-10.96
-5.95
-1.54
3.47
10.26
19.36
30.3
41.77
52.24
60.66
66.79
70.98
73.68
74.86
73.93
70.07
62.64
51.69
37.95
22.54
6.7
-8.3
-21.24
-30.76
-35.57
-34.87
-28.81
-18.86
-7.62
1.81
6.73
5.59
-1.88
-14.82
-31.76
-50.93
-70.38
-87.91
-101.23
-108.54
-109.31
-104.79
-97.7
-91.26
-87.59
-86.93
-87.53
-86.73
-82.5
-74.54
-64.27
-54.04
-45.83
-40.18
-36.11
-31.65
-24.87
-14.74
-1.48
13.99
30.47
47.06
63.12
77.78
89.39
95.83
95.15
86.76
72.11
54.5
37.98
26.0
20.35
21.22
27.7
38.27
51.04
63.57
72.88
76.16
71.82
60.37
44.45
27.67
13.21
2.62
-4.33
-9.06
-12.99
-16.74
-20.14
-22.48
-23.34
-23.09
-22.6
-22.83
-24.24
-26.35
-28.03
-28.05
-25.67
-20.95
-14.59
-7.49
-0.6
5.65
11.19
16.19
20.92
25.63
30.48
35.55
40.69
45.61
50.05
53.87
56.98
58.92
58.61
54.58
45.76
32.47
16.78
2.0
-8.72
-13.55
-12.8
-8.43
-3.06
1.03
2.67
1.59
-2.03
-8.07
-16.41
-26.73
-38.27
-49.81
-60.1
-68.23
-73.94
-77.61
-80.22
-82.82
-86.32
-91.09
-96.79
-102.25
-105.64
-104.92
-98.6
-86.5
-69.87
-51.25
-33.22
-17.4
-3.87
8.49
21.07
34.29
47.14
57.7
64.44
67.29
67.74
67.87
68.84
70.12
69.78
65.89
57.89
47.18
36.48
28.34
23.89
22.45
22.04
20.43
16.06
8.34
-2.5
-15.73
-30.32
-45.15
-59.1
-71.48
-82.18
-91.63
-100.29
-108.11
-113.87
-115.21
-109.32
-93.98
-68.67
-35.13
2.83
40.45
73.36
98.87
116.32
126.68
131.58
132.37
129.81
124.14
115.65
105.03
93.42
82.07
72.18
64.82
60.94
61.31
66.24
75.28
87.22
100.02
111.15
117.95
117.94
109.37
91.98
67.38
38.75
9.81
-16.62
-39.59
-59.82
-78.61
-96.5
-112.6
-125.0
-131.75
-131.82
-125.34
-113.13
-96.14
-75.34
-51.92
-27.56
-4.43
15.48
31.13
42.72
51.42
58.59
65.01
70.65
74.98
77.36
77.53
75.83
72.99
70.02
67.94
67.31
68.14
69.83
71.27
71.12
68.16
61.61
51.63
39.31
26.65
15.71
7.9
3.04
-0.68
-6.14
-16.05
-31.65
-52.12
-74.99
-97.11
-116.04
-130.66
-140.92
-147.35
-150.44
-150.51
-148.13
-144.35
-140.6
-138.2
-137.58
-137.98
-137.78
-135.29
-129.66
-121.29
-111.58
-102.16
-93.99
-86.9
-79.73
-70.93
-59.32
-44.43
-26.45
-5.73
17.54
43.1
69.98
96.03
117.97
132.4
137.01
131.69
118.59
101.4
84.07
69.7
60.03
55.52
55.78
59.86
66.48
74.16
81.35
86.58
88.49
85.91
78.11
65.16
48.14
29.17
10.67
-5.54
-18.8
-29.54
-38.54
-46.11
-51.59
-53.93
-52.53
-48.11
-42.88
-39.73
-41.18
-48.28
-60.3
-75.05
-89.76
-101.89
-109.76
-112.83
-111.34
-105.97
-97.47
-86.51
-73.78
-60.0
-45.9
-31.98
-18.46
-5.18
7.96
20.74
32.59
42.69
50.28
54.89
56.3
54.19
48.17
37.93
23.9
7.75
-7.51
-18.18
-21.1
-14.75
-0.01
20.14
41.65
60.71
74.64
82.26
83.7
79.81
71.71
60.61
47.78
34.63
22.5
12.48
5.07
0.17
-2.82
-4.9
-7.07
-10.12
-14.3
-19.25
-23.8
-26.35
-25.32
-19.78
-10.09
2.1
14.16
23.4
27.91
27.23
22.18
14.35
5.36
-3.6
-11.71
-18.3
-22.53
-23.5
-20.82
-15.06
-7.72
-0.68
4.62
7.84
9.45
10.12
9.95
8.34
4.66
-0.68
-5.78
-7.83
-4.23
5.8
20.97
38.36
54.79
68.06
77.6
84.21
89.12
93.15
96.04
96.48
92.63
82.82
66.38
43.92
17.49
-9.97
-35.44
-56.72
-72.77
-83.77
-90.61
-94.2
-95.29
-94.4
-91.92
-88.28
-83.83
-78.66
-72.34
-64.01
-52.58
-37.43
-18.84
1.64
21.42
37.63
47.92
51.38
48.75
42.28
34.84
28.79
24.97
22.45
19.11
12.87
2.96
-9.57
-22.4
-33.2
-40.74
-45.38
-48.53
-51.5
-54.74
-57.57
-58.76
-57.43
-53.52
-47.79
-41.46
-35.63
-30.96
-27.61
-25.36
-23.85
-22.99
-23.01
-24.45
-27.74
-32.77
-38.63
-43.88
-47.05
-47.39
-45.03
-40.73
-35.31
-29.14
-22.09
-13.87
-4.59
5.19
14.6
22.96
30.15
36.51
42.67
49.11
56.07
63.4
70.88
78.11
84.37
88.69
89.76
86.47
78.31
65.78
50.39
34.14
18.86
5.68
-5.06
-13.56
-20.16
-25.23
-29.25
-32.95
-37.17
-42.45
-48.64
-54.71
-59.15
-60.73
-59.06
-54.66
-48.63
-41.91
-34.85
-27.34
-19.13
-10.31
-1.38
6.98
14.35
20.81
26.88
33.21
40.12
47.34
53.95
58.7
60.34
58.16
52.18
43.24
32.75
22.38
13.65
7.73
5.17
5.91
9.35
14.54
20.38
25.84
30.07
32.62
33.57
33.52
33.51
34.63
37.79
43.48
51.74
62.24
74.3
87.01
99.22
109.59
116.82
119.92
118.5
112.91
103.99
92.76
79.96
65.93
50.78
34.67
18.01
1.68
-13.15
-25.29
-33.86
-38.56
-39.92
-39.15
-37.82
-37.3
-38.21
-40.16
-41.98
-42.33
-40.45
-36.64
-32.15
-28.56
-27.06
-27.85
-30.09
-32.47
-33.94
-34.18
-33.74
-33.61
-34.61
-36.88
-39.75
-42.03
-42.46
-40.2
-34.99
-27.14
-17.11
-5.25
8.31
23.42
39.37
54.44
65.85
70.33
65.15
49.26
23.86
-7.68
-40.82
-71.13
-95.5
-112.67
-123.24
-129.05
-132.16
-134.06
-135.01
-133.99
-129.02
-117.92
-99.18
-72.58
-39.34
-1.77
37.21
74.68
107.98
134.9
153.75
163.58
164.63
158.53
148.1
136.55
126.34
118.29
111.28
102.93
90.78
73.68
52.42
29.41
7.69
-10.41
-24.1
-34.16
-42.28
-50.06
-58.29
-66.66
-73.99
-78.72
-79.52
-75.73
-67.53
-55.94
-42.48
-28.79
-16.19
-5.49
3.04
9.39
13.68
16.04
16.75
16.44
16.05
16.78
19.65
25.16
32.99
42.08
50.88
57.81
61.76
62.28
59.62
54.38
47.32
39.18
30.71
22.67
15.84
10.57
6.5
2.42
-3.19
-11.41
-22.11
-33.79
-44.1
-50.77
-52.49
-49.14
-41.54
-30.92
-18.5
-5.35
7.49
18.99
28.17
34.41
37.63
38.35
37.48
36.01
34.69
33.83
33.19
31.96
29.04
23.4
14.53
2.84
-10.28
-22.73
-32.37
-37.6
-37.82
-33.36
-25.21
-14.59
-2.66
9.53
20.91
30.35
36.64
38.89
36.87
31.27
23.76
16.42
11.05
8.45
8.04
8.33
7.62
4.93
0.46
-4.63
-8.89
-11.29
-11.52
-10.01
-7.56
-5.08
-3.54
-3.84
-6.72
-12.41
-20.34
-29.09
-36.75
-41.51
-42.38
-39.41
-33.63
-26.51
-19.41
-13.25
-8.37
-4.63
-1.63
1.09
3.9
7.03
10.59
14.63
19.05
23.48
27.38
30.14
31.45
31.56
31.14
30.86
30.79
30.15
27.52
21.61
12.07
-0.14
-13.05
-24.54
-33.25
-39.05
-42.75
-45.41
-47.69
-49.53
-50.49
-50.19
-48.74
-46.8
-45.22
-44.64
-45.13
-46.16
-46.85
-46.29
-43.85
-39.33
-32.9
-25.07
-16.51
-7.95
-0.08
6.6
11.87
15.91
19.16
22.23
25.52
29.0
32.16
34.22
34.48
32.75
29.56
25.91
22.85
20.99
20.31
20.23
20.01
19.09
17.16
14.14
9.97
4.77
-1.06
-6.81
-11.66
-15.1
-17.32
-19.36
-22.69
-28.42
-36.52
-45.51
-52.97
-56.41
-54.44
-47.34
-36.9
-25.61
-15.66
-8.26
-3.59
-1.21
-0.56
-1.23
-2.86
-4.9
-6.55
-7.03
-5.99
-3.72
-1.03
1.31
3.0
4.26
5.64
7.47
9.7
11.87
13.56
14.65
15.44
16.38
17.83
19.86
22.41
25.62
29.96
36.02
43.96
52.99
61.18
65.88
64.63
56.07
40.57
20.15
-2.19
-23.38
-41.1
-54.27
-63.12
-68.88
-73.25
-77.85
-83.6
-90.46
-97.48
-103.18
-106.19
-105.72
-101.77
-94.92
-86.04
-76.0
-65.56
-55.44
-46.26
-38.43
-31.93
-26.18
-20.25
-13.06
-3.82
7.64
20.88
35.01
49.08
62.44
74.98
87.02
98.98
110.79
121.63
130.09
134.8
135.19
131.87
126.26
119.67
112.43
103.58
91.43
74.69
53.6
30.13
7.45
-11.33
-24.3
-31.39
-34.13
-34.85
-35.74
-38.16
-42.57
-48.67
-55.79
-63.22
-70.12
-75.47
-77.85
-75.73
-67.88
-54.07
-35.42
-14.33
6.12
23.12
34.93
41.21
42.72
40.74
36.48
30.86
24.58
18.38
13.18
9.83
8.75
9.69
11.61
12.95
12.07
7.81
-0.08
-10.49
-21.07
-28.7
-30.31
-23.77
-8.35
15.24
45.32
79.74
115.98
151.25
182.37
206.15
219.98
222.8
215.42
200.32
180.67
159.23
137.66
116.37
94.98
73.02
50.49
28.13
7.29
-10.45
-23.73
-31.77
-34.52
-32.74
-27.99
-22.63
-19.68
-22.1
-31.87
-49.27
-72.71
-99.38
-126.55
-152.38
-176.17
-197.77
-216.58
-231.17
-239.74
-241.05
-235.35
-224.38
-210.63
-196.15
-181.8
-167.17
-151.31
-133.34
-112.88
-90.05
-65.19
-38.77
-11.31
16.51
43.74
69.06
91.13
108.86
121.64
129.61
133.39
133.7
131.05
125.53
117.02
105.46
91.12
74.49
56.14
36.35
15.25
-6.96
-29.67
-51.75
-71.8
-88.62
-101.47
-110.12
-114.67
-115.33
-112.41
-106.44
-98.14
-88.34
-77.68
-66.46
-54.64
-42.22
-29.6
-17.67
-7.63
-0.5
3.26
3.98
2.67
0.57
-1.11
-1.53
-0.28
2.76
7.57
14.16
22.51
32.43
43.32
53.98
62.73
67.79
67.77
62.15
51.55
37.57
22.35
8.06
-3.73
-12.3
-17.69
-20.4
-20.94
-19.64
-16.45
-11.28
-4.22
4.23
13.21
21.64
28.72
34.12
37.86
39.95
39.78
36.0
27.03
11.96
-8.57
-32.28
-55.93
-76.46
-91.85
-101.38
-105.2
-103.78
-97.44
-86.69
-72.49
-56.33
-39.95
-24.74
-11.45
-0.23
8.94
15.87
20.11
21.3
19.5
15.32
9.86
4.49
0.68
-0.17
2.91
10.04
20.07
30.76
39.51
44.38
45.21
43.71
42.73
44.8
50.73
59.05
66.63
70.12
67.52
59.15
47.45
35.89
27.6
24.18
25.25
28.65
31.38
30.7
25.15
15.14
2.74
-9.17
-17.99
-22.4
-22.82
-21.07
-19.53
-20.07
-23.17
-27.79
-31.73
-32.83
-29.91
-23.52
-15.72
-9.12
-5.67
-5.58
-7.35
-8.45
-6.69
-1.12
7.75
18.4
29.14
38.52
45.45
48.9
47.96
42.11
31.69
18.28
4.4
-7.38
-15.37
-19.38
-20.71
-21.33
-22.86
-25.86
-29.64
-32.75
-33.65
-31.41
-26.25
-19.59
-13.77
-11.41
-14.47
-23.42
-36.81
-51.47
-63.53
-69.72
-68.53
-60.68
-48.67
-35.71
-24.55
-16.62
-11.73
-8.43
-4.79
0.95
9.75
21.6
35.58
50.24
63.97
75.36
83.44
87.93
89.35
88.88
88.06
88.26
90.14
93.48
97.27
100.1
100.58
97.54
89.98
76.96
57.66
31.8
0.16
-34.97
-69.94
-100.35
-122.19
-132.72
-131.17
-118.64
-97.71
-71.8
-44.44
-18.67
3.39
20.76
33.5
42.38
48.34
52.19
54.38
55.18
54.82
53.73
52.48
51.63
51.52
52.25
53.95
56.78
61.07
66.93
73.96
81.1
86.84
89.8
89.11
84.76
77.47
68.35
58.52
48.78
39.57
30.84
22.11
12.54
1.16
-12.72
-29.1
-47.2
-65.67
-83.23
-99.22
-113.69
-127.06
-139.47
-150.29
-158.12
-161.34
-158.81
-150.39
-137.05
-120.59
-103.14
-86.61
-72.35
-60.88
-51.8
-43.93
-35.67
-25.56
-12.96
1.58
16.46
29.57
39.2
44.66
46.4
45.59
43.49
40.93
38.32
35.98
34.51
34.81
37.71
43.28
50.24
56.04
57.5
51.95
38.25
17.37
-7.77
-33.04
-54.16
-67.77
-72.14
-67.46
-55.57
-39.24
-21.45
-4.57
9.96
21.6
30.47
36.92
41.29
43.8
44.66
44.21
42.92
41.35
39.99
39.08
38.51
37.83
36.13
32.06
24.0
10.52
-8.96
-33.54
-60.85
-87.52
-110.27
-126.96
-137.18
-142.04
-143.26
-141.96
-137.9
-129.41
-114.36
-91.26
-60.36
-23.94
14.34
50.69
82.3
107.96
127.73
142.14
151.27
154.45
150.59
139.08
120.38
96.23
69.13
41.58
15.35
-8.62
-29.97
-48.37
-63.17
-73.43
-78.44
-78.25
-73.97
-67.64
-61.47
-56.96
-54.28
-52.25
-48.97
-42.89
-33.57
-21.98
-10.06
0.19
7.42
11.47
13.13
13.68
14.32
15.86
18.66
22.67
27.59
32.77
37.23
39.82
39.52
36.0
29.96
23.02
17.23
14.29
14.86
18.43
23.62
28.83
32.83
34.9
34.74
32.21
27.3
20.2
11.59
2.68
-5.1
-10.66
-13.67
-14.65
-14.72
-14.89
-15.67
-16.95
-18.35
-19.64
-21.02
-23.09
-26.43
-31.25
-37.2
-43.38
-48.5
-51.27
-50.51
-45.51
-36.23
-23.62
-9.58
3.43
13.05
17.84
17.67
13.85
8.55
4.12
2.34
3.96
8.68
15.37
22.82
30.4
38.6
48.98
63.61
84.0
110.14
139.96
169.59
194.32
209.83
213.29
203.76
182.12
150.55
112.04
70.04
28.2
-9.86
-41.09
-63.51
-76.7
-81.92
-81.79
-79.41
-77.42
-77.28
-79.15
-82.18
-85.22
-87.33
-88.19
-87.92
-86.87
-85.22
-82.81
-79.14
-73.57
-65.56
-55.01
-42.4
-28.82
-15.79
-4.79
3.2
8.1
10.8
12.8
15.56
20.0
26.13
33.2
40.12
45.92
49.99
52.11
52.32
50.74
47.6
43.28
38.39
33.65
29.71
26.93
25.34
24.73
24.72
24.97
25.1
24.76
23.54
21.17
17.55
12.87
7.53
1.89
-3.86
-9.79
-16.11
-22.82
-29.69
-36.32
-42.27
-47.35
-51.53
-54.87
-57.37
-58.8
-58.81
-57.01
-53.3
-47.98
-41.83
-35.99
-31.63
-29.57
-29.83
-31.6
-33.47
-34.07
-32.65
-29.36
-25.08
-20.84
-17.29
-14.41
-11.8
-8.98
-5.81
-2.48
0.64
3.33
5.63
7.84
10.32
13.39
17.1
21.25
25.33
28.64
30.62
31.03
30.14
28.63
27.25
26.42
25.98
25.2
23.19
19.28
13.36
5.94
-2.02
-9.44
-15.31
-18.99
-20.23
-19.19
-16.34
-12.24
-7.42
-2.35
2.58
6.93
10.23
12.17
12.78
12.53
12.16
12.42
13.63
15.64
17.83
19.42
19.67
18.09
14.44
8.87
2.04
-4.85
-10.19
-12.45
-10.67
-4.92
3.7
13.43
22.42
29.29
33.36
34.59
33.41
30.54
26.93
23.59
21.49
21.28
22.99
25.95
28.97
30.68
30.01
26.63
20.98
14.11
7.32
1.73
-2.11
-4.18
-4.98
-5.18
-5.33
-5.69
-6.24
-6.75
-7.08
-7.27
-7.6
-8.5
-10.32
-13.15
-16.75
-20.5
-23.65
-25.49
-25.64
-24.17
-21.56
-18.44
-15.37
-12.56
-9.88
-7.01
-3.65
0.27
4.6
9.08
13.4
17.26
20.3
21.96
21.71
19.29
14.95
9.66
4.68
1.18
-0.29
-0.11
0.5
-0.04
-3.03
-8.97
-17.39
-27.11
-36.78
-45.27
-52.03
-56.99
-60.31
-62.1
-62.36
-61.07
-58.39
-54.86
-51.31
-48.64
-47.37
-47.42
-48.18
-48.73
-48.29
-46.48
-43.39
-39.52
-35.51
-31.85
-28.86
-26.53
-24.62
-22.6
-19.73
-15.22
-8.61
-0.13
9.18
17.75
24.05
27.26
27.47
25.45
22.06
17.83
12.88
7.23
1.28
-4.14
-8.09
-10.11
-10.6
-10.71
-11.79
-14.71
-19.43
-25.16
-30.77
-35.42
-38.77
-40.69
-41.05
-39.33
-34.68
-26.39
-14.2
1.39
19.25
37.88
55.76
71.61
84.57
94.33
101.02
105.04
106.76
106.32
103.53
98.09
89.92
79.46
67.72
56.11
45.93
38.14
33.14
30.92
31.26
33.75
37.74
42.21
45.89
47.59
46.57
42.81
37.04
30.37
23.77
17.72
12.1
6.33
-0.19
-7.94
-17.32
-28.63
-42.13
-57.69
-74.55
-91.11
-105.14
-114.36
-116.98
-112.11
-99.9
-81.41
-58.48
-33.5
-9.25
11.44
26.18
33.63
33.81
28.11
18.8
8.33
-1.26
-8.69
-13.42
-15.48
-15.32
-13.75
-12.02
-11.63
-13.96
-19.63
-27.93
-36.8
-43.22
-44.21
-37.87
-24.05
-4.41
18.04
39.8
57.77
69.97
76.01
77.01
75.08
72.45
70.52
69.46
68.27
65.49
59.85
50.84
38.74
24.43
9.02
-6.3
-20.48
-32.61
-42.11
-48.78
-52.76
-54.32
-53.62
-50.71
-45.77
-39.57
-33.66
-30.13
-30.88
-36.7
-46.81
-59.06
-70.73
-79.51
-84.28
-85.3
-83.88
-81.69
-80.04
-79.53
-79.91
-80.35
-79.69
-76.75
-70.63
-60.92
-47.93
-32.72
-17.01
-2.79
8.16
14.81
17.13
16.13
13.5
11.06
10.14
11.11
13.29
15.17
14.99
11.23
3.17
-9.03
-24.36
-41.08
-56.84
-68.75
-73.77
-69.32
-54.18
-29.06
3.47
39.89
76.87
112.2
144.88
174.37
199.76
219.25
230.5
231.62
222.21
203.9
180.04
154.81
131.97
114.01
101.73
94.45
90.5
87.96
85.2
81.18
75.56
68.68
61.45
55.2
51.27
50.46
52.53
56.07
58.85
58.68
54.22
45.59
34.26
22.52
12.59
5.91
2.62
1.42
-0.17
-5.09
-15.81
-33.49
-57.51
-85.69
-115.04
-142.62
-166.23
-184.39
-196.26
-201.25
-199.12
-190.19
-175.52
-156.87
-136.15
-114.9
-93.96
-73.6
-54.13
-36.36
-21.57
-10.95
-4.84
-2.35
-1.54
-0.37
2.41
6.7
11.36
14.93
16.51
16.05
14.21
11.79
9.36
7.21
5.62
5.1
6.36
9.95
15.85
23.31
31.06
37.65
41.86
42.96
40.85
36.08
29.68
22.99
17.28
13.43
11.62
11.41
11.9
12.18
11.59
9.86
7.01
3.22
-1.17
-5.71
-9.78
-12.74
-14.19
-14.27
-13.8
-13.96
-15.86
-19.88
-25.3
-30.33
-32.75
-30.72
-23.6
-12.3
1.01
13.59
23.06
28.12
28.65
25.55
20.02
13.16
5.55
-2.74
-11.9
-22.12
-33.3
-44.91
-55.9
-64.82
-70.08
-70.37
-65.12
-54.79
-40.76
-24.98
-9.5
4.04
14.55
21.48
24.56
23.73
19.26
11.87
2.9
-5.88
-12.65
-16.2
-16.21
-13.26
-8.48
-3.0
2.33
7.04
10.75
13.02
13.25
10.96
6.14
-0.53
-7.85
-14.46
-19.29
-21.82
-21.91
-19.67
-15.18
-8.68
-0.74
7.6
14.94
19.98
22.13
21.75
20.01
18.31
17.63
18.09
19.0
19.27
17.99
14.73
9.65
3.26
-3.84
-11.11
-18.05
-24.09
-28.49
-30.37
-28.91
-23.67
-14.92
-3.87
7.59
17.43
24.08
27.0
26.82
24.95
22.84
21.42
20.75
20.2
19.01
16.77
13.58
10.04
6.92
4.86
4.33
5.49
8.27
12.23
16.49
19.86
21.03
19.11
13.92
6.26
-2.32
-9.98
-15.1
-16.74
-14.79
-9.9
-3.23
3.88
10.31
15.29
18.55
20.1
20.02
18.3
14.86
9.71
3.16
-3.97
-10.61
-15.75
-18.76
-19.64
-18.93
-17.45
-16.01
-15.2
-15.34
-16.45
-18.39
-20.81
-23.34
-25.57
-27.11
-27.59
-26.63
-23.93
-19.48
-13.72
-7.54
-2.01
2.05
4.43
5.56
6.24
7.02
7.91
8.39
7.9
6.25
3.88
1.59
-0.02
-0.95
-1.8
-3.44
-6.42
-10.67
-15.54
-20.09
-23.6
-25.74
-26.59
-26.52
-25.95
-25.18
-24.43
-23.9
-23.8
-24.37
-25.85
-28.34
-31.72
-35.65
-39.67
-43.3
-46.14
-47.84
-48.02
-46.22
-42.01
-35.3
-26.54
-16.75
-7.24
0.87
7.04
11.6
15.49
19.89
25.74
33.45
42.75
52.9
62.9
71.91
79.37
85.14
89.27
91.79
92.52
91.15
87.51
81.83
74.9
67.78
61.46
56.37
52.27
48.27
43.32
36.57
27.74
17.25
6.06
-4.55
-13.41
-19.7
-23.19
-24.19
-23.39
-21.57
-19.41
-17.37
-15.66
-14.35
-13.35
-12.53
-11.66
-10.54
-9.0
-6.96
-4.42
-1.4
2.01
5.64
9.16
12.15
14.21
15.12
14.88
13.6
11.38
8.27
4.45
0.46
-2.69
-3.7
-1.51
4.23
12.85
23.0
32.99
41.49
47.63
50.91
51.01
47.69
41.01
31.63
21.02
11.17
3.99
0.67
1.13
4.06
7.35
8.98
7.73
3.64
-2.25
-8.43
-13.64
-17.3
-19.44
-20.34
-20.11
-18.63
-15.79
-11.83
-7.5
-3.78
-1.44
-0.58
-0.8
-1.6
-2.86
-4.97
-8.49
-13.55
-19.55
-25.24
-29.28
-30.92
-30.28
-28.19
-25.61
-23.1
-20.65
-17.97
-14.85
-11.52
-8.55
-6.6
-6.05
-6.75
-8.17
-9.48
-10.02
-9.41
-7.73
-5.41
-3.0
-0.88
0.95
2.94
5.74
9.75
14.75
19.88
24.01
26.32
26.59
25.19
22.51
18.57
12.84
4.71
-5.9
-18.09
-30.0
-39.4
-44.41
-44.17
-38.94
-29.87
-18.65
-7.17
2.74
9.62
12.65
11.89
8.25
3.12
-2.15
-6.76
-10.53
-13.64
-16.31
-18.48
-19.9
-20.31
-19.72
-18.38
-16.58
-14.47
-11.89
-8.52
-4.1
1.34
7.46
13.75
19.78
25.24
29.92
33.54
35.71
35.95
34.03
30.22
25.39
20.83
17.8
17.02
18.48
21.4
24.58
26.73
26.86
24.43
19.53
12.79
5.29
-1.6
-6.59
-8.66
-7.33
-2.7
4.58
13.4
22.34
29.79
34.28
34.75
30.87
23.19
13.06
2.22
-7.61
-15.13
-19.76
-21.62
-21.36
-19.92
-18.23
-17.03
-16.67
-17.07
-17.69
-17.62
-15.89
-11.86
-5.48
2.45
10.54
17.12
20.92
21.36
18.8
14.24
8.96
4.18
0.82
-0.49
0.65
4.3
10.06
16.9
23.15
26.93
26.83
22.58
15.27
7.06
0.31
-3.33
-3.47
-0.92
2.9
6.77
10.11
13.01
15.79
18.54
20.85
21.95
21.15
18.19
13.39
7.48
1.18
-5.04
-11.16
-17.48
-24.31
-31.77
-39.65
-47.49
-54.63
-60.38
-64.17
-65.75
-65.23
-63.19
-60.42
-57.6
-54.95
-52.12
-48.41
-43.26
-36.61
-29.07
-21.67
-15.5
-11.37
-9.68
-10.56
-13.87
-19.3
-26.24
-33.84
-41.01
-46.67
-49.94
-50.27
-47.52
-41.93
-34.12
-24.93
-15.25
-5.75
3.28
11.9
20.23
28.21
35.41
41.29
45.41
47.75
48.54
48.01
46.15
42.7
37.5
30.81
23.51
16.82
11.71
8.46
6.5
4.69
1.92
-2.43
-8.25
-14.91
-21.6
-27.56
-32.19
-34.89
-34.95
-31.52
-23.94
-12.14
3.12
20.19
36.94
51.41
62.34
69.43
73.01
73.55
71.07
65.1
54.95
40.37
22.17
2.11
-17.56
-34.93
-49.16
-60.4
-69.3
-76.18
-80.58
-81.55
-78.32
-71.02
-60.92
-49.92
-39.76
-31.34
-24.54
-18.7
-13.26
-8.12
-3.66
-0.38
1.53
2.28
2.29
1.84
0.99
-0.4
-2.31
-4.32
-5.66
-5.47
-3.32
0.58
5.46
10.47
15.11
19.49
24.14
29.55
35.78
42.34
48.34
52.92
55.5
55.83
53.87
49.81
43.97
36.89
29.21
21.52
14.09
6.91
-0.2
-7.18
-13.73
-19.32
-23.6
-26.63
-28.9
-30.95
-33.02
-34.79
-35.5
-34.33
-30.93
-25.62
-19.37
-13.48
-9.12
-6.99
-7.16
-9.14
-12.08
-15.04
-17.31
-18.44
-18.35
-17.22
-15.4
-13.3
-11.36
-9.85
-8.76
-7.73
-6.07
-2.98
2.12
9.28
17.93
26.95
34.97
40.68
43.15
41.99
37.42
30.21
21.54
12.69
4.89
-0.95
-4.39
-5.53
-4.9
-3.37
-1.89
-1.24
-1.8
-3.45
-5.72
-7.92
-9.52
-10.26
-10.2
-9.64
-8.86
-7.99
-6.81
-4.85
-1.46
3.89
11.29
20.16
29.29
37.14
42.29
43.86
41.75
36.55
29.32
21.2
13.23
6.19
0.56
-3.52
-6.25
-8.05
-9.41
-10.69
-11.99
-13.22
-14.21
-14.89
-15.43
-16.05
-17.02
-18.51
-20.68
-23.7
-27.75
-32.9
-38.88
-44.95
-50.0
-52.9
-52.96
-50.33
-45.9
-40.99
-36.78
-33.76
-31.71
-29.9
-27.65
-24.69
-21.23
-17.82
-14.93
-12.82
-11.41
-10.48
-9.82
-9.22
-8.49
-7.35
-5.56
-2.96
0.36
4.17
8.22
12.44
16.88
21.56
26.2
30.21
32.86
33.61
32.49
30.05
27.21
24.84
23.51
23.36
24.15
25.47
26.84
27.8
27.98
27.17
25.35
22.64
19.26
15.44
11.33
7.0
2.52
-1.99
-6.31
-10.23
-13.56
-16.19
-18.13
-19.38
-19.94
-19.76
-18.73
-16.69
-13.53
-9.31
-4.31
0.91
5.58
8.9
10.25
9.37
6.49
2.26
-2.35
-6.27
-8.56
-8.59
-6.25
-1.96
3.48
9.15
14.23
18.3
21.25
23.29
24.7
25.87
27.25
29.34
32.57
37.07
42.4
47.46
50.76
50.81
46.72
38.46
26.96
13.72
0.4
-11.68
-21.67
-29.28
-34.57
-37.69
-38.83
-38.18
-36.07
-33.01
-29.69
-26.74
-24.41
-22.41
-19.95
-16.08
-10.14
-2.22
6.78
15.51
22.53
26.87
28.17
26.72
23.2
18.43
13.15
7.92
3.03
-1.41
-5.3
-8.46
-10.51
-11.07
-9.92
-7.26
-3.76
-0.31
2.25
3.44
3.17
1.67
-0.72
-3.42
-5.65
-6.39
-4.68
-0.15
6.62
14.02
19.84
22.06
19.56
12.51
2.27
-9.13
-19.51
-27.15
-31.13
-31.46
-29.09
-25.55
-22.53
-21.3
-22.28
-24.88
-27.73
-29.2
-28.0
-23.53
-16.03
-6.29
4.71
16.08
27.23
37.77
47.39
55.78
62.73
68.27
72.84
77.22
82.15
88.03
94.6
100.97
105.9
108.16
106.95
102.12
94.18
84.15
73.28
62.77
53.46
45.72
39.46
34.3
29.75
25.33
20.56
15.09
8.7
1.44
-6.22
-13.41
-19.16
-22.7
-23.86
-23.19
-21.72
-20.66
-20.94
-23.01
-26.75
-31.52
-36.43
-40.5
-42.87
-43.04
-40.92
-36.93
-31.86
-26.71
-22.38
-19.55
-18.48
-19.11
-21.06
-23.78
-26.57
-28.71
-29.58
-28.89
-26.8
-23.91
-21.06
-18.94
-17.87
-17.57
-17.33
-16.34
-13.94
-10.02
-4.95
0.46
5.24
8.52
9.63
8.24
4.36
-1.66
-9.09
-16.86
-23.67
-28.25
-29.75
-28.12
-24.26
-19.76
-16.4
-15.44
-17.14
-20.63
-24.28
-26.29
-25.46
-21.5
-15.16
-7.81
-0.98
4.25
7.47
8.95
9.3
8.94
7.79
5.2
0.37
-7.0
-16.31
-26.03
-34.32
-39.82
-42.3
-42.61
-42.18
-42.22
-43.18
-44.7
-46.06
-46.69
-46.29
-44.72
-41.62
-36.37
-28.36
-17.54
-4.78
8.17
19.34
27.27
31.57
32.94
32.57
31.51
30.19
28.43
25.72
21.72
16.6
10.99
5.79
1.87
-0.17
-0.05
2.27
6.57
12.47
19.47
26.89
34.1
40.46
45.4
48.35
48.7
45.93
39.81
30.76
19.94
9.08
-0.15
-6.67
-10.45
-12.38
-13.69
-15.18
-16.87
-17.97
-17.33
-14.05
-7.86
0.75
10.74
20.72
29.38
35.74
39.52
41.22
41.95
42.9
44.75
47.07
48.38
46.53
39.4
25.57
4.73
-22.15
-52.72
-83.4
-109.81
-127.62
-133.79
-127.64
-111.26
-88.98
-65.92
-46.38
-32.64
-24.68
-20.83
-18.91
-17.2
-14.78
-11.52
-7.65
-3.55
0.33
3.51
5.47
5.99
5.38
4.65
5.27
8.54
15.09
24.6
35.87
47.31
57.26
64.14
66.51
63.07
53.06
36.88
16.45
-4.87
-23.24
-35.52
-40.31
-38.23
-31.3
-21.86
-11.64
-1.42
8.78
19.03
29.16
38.45
45.97
50.83
52.54
51.23
47.62
42.8
37.9
33.65
30.14
26.93
23.45
19.53
15.71
13.04
12.58
14.69
18.8
23.53
27.3
28.88
27.67
23.76
17.67
9.98
1.22
-8.44
-19.03
-30.84
-44.14
-59.14
-75.86
-94.08
-113.09
-131.49
-147.06
-156.88
-158.15
-149.04
-129.74
-102.63
-71.79
-41.71
-15.91
3.95
18.19
28.51
37.04
45.48
54.54
63.83
72.1
77.76
79.33
75.93
67.5
54.81
39.44
23.51
9.65
0.37
-2.62
0.81
8.68
17.17
21.74
18.61
5.99
-15.55
-43.72
-75.48
-108.06
-139.15
-166.62
-188.16
-201.23
-203.56
-193.93
-172.68
-141.46
-102.66
-58.59
-11.3
37.12
84.16
126.67
161.38
185.75
198.74
201.24
195.69
185.23
172.78
160.35
148.91
138.77
130.0
122.81
117.77
115.6
116.68
120.5
125.34
128.48
126.84
117.97
100.53
74.84
42.47
5.58
-33.73
-73.65
-112.69
-149.4
-182.27
-209.86
-230.27
-241.3
-240.94
-227.95
-202.29
-165.04
-118.3
-65.15
-10.06
42.57
88.56
124.34
147.33
156.79
154.4
143.98
129.9
114.4
98.64
82.49
64.8
43.99
18.91
-10.71
-44.23
-80.7
-120.13
-160.0
-195.88
-222.94
-238.12
-241.11
-234.26
-221.37
-197.18
-162.16
-120.38
-78.14
-40.23
-9.08
14.6
30.37
41.34
50.97
61.45
77.26
103.03
141.84
191.96
248.17
302.92
348.5
378.45
380.04
350.36
298.19
239.78
189.14
152.0
126.49
107.94
93.28
79.32
66.64
56.06
46.77
36.08
21.05
-0.15
-25.71
-53.31
-81.31
-107.54
-131.28
-153.87
-178.21
-207.03
-241.02
-277.9
-313.3
-342.02
-358.83
-361.01
-349.38
-327.55
-299.78
-268.95
-235.77
-199.74
-160.44
-118.19
-74.59
-31.69
9.45
49.68
91.19
135.52
181.4
224.07
256.67
272.58
267.98
243.1
202.08
151.66
99.53
52.81
17.03
-4.72
-12.45
-9.63
-2.57
1.17
-4.96
-24.28
-55.69
-93.91
-131.11
-159.28
-172.72
-169.55
-151.93
-124.82
-93.76
-62.66
-32.66
-2.5
30.3
67.76
110.38
156.6
202.94
244.37
275.14
290.02
285.83
262.6
224.01
176.42
127.22
82.91
48.06
24.97
14.04
13.93
21.47
31.61
37.81
33.29
12.86
-25.36
-78.86
-140.88
-201.83
-251.69
-282.47
-290.34
-276.2
-244.93
-203.28
-157.36
-110.81
-64.07
-15.4
36.97
92.47
147.0
193.68
225.05
236.02
225.88
198.65
161.34
121.37
84.13
52.2
25.76
3.98
-13.85
-28.15
-39.41
-48.72
-57.72
-67.93
-79.83
-92.27
-102.72
-108.06
-105.81
-95.05
-76.83
-53.55
-27.77
-1.12
26.35
55.66
87.6
121.14
152.63
176.36
186.31
178.25
151.43
108.86
56.6
2.23
-46.87
-84.86
-108.56
-118.09
-116.8
-110.34
-104.96
-105.41
-113.39
-127.0
-141.65
-151.79
-152.64
-141.38
-117.55
-82.73
-40.11
6.34
52.51
95.05
132.03
163.05
188.61
209.07
223.47
229.29
223.12
202.22
166.29
118.36
64.51
12.29
-31.6
-63.32
-82.91
-93.77
-101.05
-109.33
-120.9
-135.21
-149.42
-159.78
-162.84
-156.3
-139.17
-111.9
-76.36
-35.79
5.59
43.49
74.73
98.15
114.65
126.29
134.73
140.05
140.42
133.03
115.64
87.97
52.25
12.76
-25.31
-57.27
-80.11
-92.89
-96.68
-93.97
-87.73
-80.61
-74.47
-70.18
-67.64
-65.91
-63.31
-57.82
-47.41
-30.61
-7.04
22.22
54.71
87.05
115.65
137.52
150.72
154.57
149.25
135.58
114.62
87.63
56.21
22.41
-11.32
-42.4
-68.68
-88.81
-102.53
-110.29
-112.8
-110.62
-104.06
-93.42
-79.27
-62.65
-44.93
-27.64
-12.17
0.42
9.66
16.08
21.39
28.14
39.01
55.61
77.63
102.53
126.05
143.15
149.32
141.65
119.71
85.77
44.47
1.75
-36.56
-66.28
-85.83
-96.38
-101.1
-103.78
-107.49
-113.69
-122.04
-130.65
-136.68
-137.01
-128.99
-111.42
-85.15
-53.24
-20.06
10.36
36.28
58.99
82.08
109.01
140.36
172.31
197.56
208.15
198.89
169.47
124.34
70.67
15.79
-34.61
-77.08
-110.14
-133.89
-149.81
-160.59
-169.35
-178.3
-187.55
-194.64
-195.46
-186.05
-164.11
-129.76
-85.0
-32.73
24.01
81.98
137.21
184.87
219.77
237.82
237.47
220.31
190.34
152.39
110.5
67.31
24.55
-16.1
-52.44
-82.18
-104.1
-119.12
-130.14
-140.75
-153.12
-166.45
-176.8
-178.76
-167.99
-143.41
-107.83
-66.77
-26.03
10.52
41.85
69.16
94.34
118.43
140.9
159.77
172.21
175.3
166.61
144.92
110.89
67.7
20.79
-23.22
-58.25
-80.66
-89.96
-88.37
-79.41
-66.63
-52.77
-39.74
-28.87
-20.89
-15.68
-12.11
-8.21
-1.82
8.66
23.93
43.69
66.92
91.92
116.24
136.48
148.64
148.84
134.63
106.09
66.27
20.53
-24.93
-64.71
-95.36
-115.68
-126.26
-128.4
-123.37
-112.22
-96.07
-76.48
-55.6
-35.85
-19.21
-6.58
2.34
8.8
14.59
21.58
31.3
44.63
61.18
78.86
93.81
101.2
96.81
78.8
48.83
11.83
-25.55
-57.25
-79.56
-91.98
-96.56
-96.55
-94.97
-93.67
-93.32
-93.81
-94.72
-95.35
-94.84
-92.03
-85.85
-75.72
-61.86
-45.03
-25.83
-4.26
20.25
47.89
77.32
105.13
126.66
137.79
136.72
124.68
105.15
82.0
57.86
33.74
9.83
-13.29
-33.93
-49.95
-59.98
-64.41
-65.47
-66.05
-68.12
-71.81
-75.45
-76.57
-73.37
-65.38
-53.38
-38.62
-21.87
-3.21
17.7
40.67
64.38
86.14
102.54
110.42
107.91
94.88
72.92
44.87
14.2
-15.6
-41.51
-61.45
-74.57
-81.38
-83.35
-82.41
-80.26
-77.98
-75.86
-73.67
-70.97
-67.35
-62.37
-55.38
-45.49
-31.76
-13.73
8.0
31.61
54.29
72.93
84.86
88.49
83.57
71.19
53.42
32.81
11.85
-7.53
-24.19
-37.68
-48.05
-55.48
-60.07
-61.72
-60.45
-56.55
-50.78
-44.19
-37.82
-32.27
-27.43
-22.42
-15.8
-5.89
8.7
28.51
52.93
80.11
107.18
130.9
148.17
156.64
155.12
143.66
123.54
97.02
66.72
35.32
5.19
-21.69
-43.7
-59.81
-69.79
-74.54
-75.87
-75.89
-75.97
-75.9
-73.86
-67.38
-54.9
-36.89
-16.11
3.56
18.75
28.06
32.6
35.32
39.65
48.06
60.98
76.4
90.35
97.97
95.03
79.46
52.31
17.78
-17.92
-48.32
-68.67
-77.32
-76.12
-69.71
-63.78
-63.05
-69.4
-81.11
-93.44
-100.49
-97.28
-81.51
-54.0
-17.92
22.52
63.3
101.12
133.31
157.53
171.81
174.89
166.65
148.17
121.51
89.3
54.41
19.74
-11.88
-38.09
-57.39
-69.6
-75.85
-78.01
-77.76
-75.81
-71.72
-64.31
-52.69
-36.97
-18.56
0.29
17.27
30.97
41.39
49.68
57.37
65.33
73.09
78.88
80.38
75.68
64.03
46.12
23.89
0.05
-22.51
-41.24
-54.52
-61.99
-64.66
-64.39
-63.0
-61.5
-59.66
-56.45
-50.89
-43.03
-34.09
-25.8
-19.28
-14.39
-9.67
-3.18
6.51
19.54
34.66
49.76
62.54
71.09
74.06
70.82
61.22
45.84
26.05
4.05
-17.35
-35.33
-47.74
-53.83
-54.32
-51.04
-46.2
-41.46
-37.48
-33.96
-30.16
-25.7
-20.86
-16.57
-13.68
-12.17
-10.73
-7.12
0.97
14.78
33.85
56.03
78.2
97.14
110.11
115.03
110.47
96.0
72.57
42.93
11.55
-16.59
-37.5
-49.69
-54.4
-54.65
-53.66
-53.37
-53.94
-54.2
-52.85
-49.36
-44.01
-37.5
-30.07
-21.21
-9.98
4.22
21.21
39.82
58.29
75.09
89.23
100.2
107.51
110.38
107.55
97.96
81.2
58.07
30.6
1.55
-26.12
-49.79
-67.64
-79.22
-85.63
-89.24
-92.74
-97.78
-104.11
-109.59
-111.36
-107.4
-97.43
-82.83
-65.6
-47.04
-27.21
-5.31
19.34
46.33
73.68
98.27
116.74
126.33
125.5
114.31
93.99
66.91
36.14
5.17
-22.57
-44.47
-59.58
-69.15
-76.29
-84.84
-97.41
-114.02
-131.77
-145.8
-151.1
-144.12
-123.55
-90.1
-46.14
4.71
57.58
106.75
146.77
173.46
184.97
181.62
165.29
138.29
103.0
61.96
18.3
-24.03
-60.96
-89.22
-107.2
-115.29
-115.19
-108.94
-98.09
-83.42
-65.26
-44.31
-22.05
-0.47
18.6
34.28
47.23
59.23
72.34
87.69
104.85
121.99
136.57
146.16
148.95
143.69
129.5
106.02
73.91
35.51
-5.22
-43.32
-74.08
-94.21
-102.51
-99.92
-88.77
-72.03
-52.47
-32.37
-13.46
3.05
16.44
26.72
34.66
41.77
49.82
59.96
72.13
84.75
95.22
100.85
99.9
92.06
78.05
59.06
36.22
10.61
-16.34
-42.48
-65.17
-82.0
-91.6
-94.16
-91.15
-84.44
-75.52
-65.15
-53.53
-40.96
-28.05
-15.63
-4.3
5.99
15.88
26.31
37.75
49.94
61.85
71.98
78.72
80.66
76.67
66.2
49.65
28.65
5.95
-15.22
-32.02
-42.87
-47.8
-48.06
-45.53
-42.02
-38.83
-36.78
-36.18
-36.79
-37.78
-37.66
-34.62
-27.13
-14.62
2.42
22.56
43.9
64.43
82.08
94.83
100.66
97.85
85.5
64.04
35.64
3.85
-27.0
-52.91
-71.35
-81.89
-86.03
-86.34
-85.23
-83.93
-82.21
-78.75
-72.1
-61.53
-47.41
-31.01
-13.8
3.04
18.9
33.71
47.58
60.34
71.48
80.08
84.97
85.11
79.52
67.6
49.17
24.7
-4.4
-35.58
-65.25
-89.8
-106.53
-114.74
-115.66
-111.79
-105.41
-97.42
-87.23
-73.61
-56.0
-35.34
-13.8
6.16
23.03
36.79
48.32
58.36
66.63
71.77
72.17
67.07
57.2
44.5
31.04
18.07
5.41
-8.07
-23.45
-40.63
-57.97
-72.67
-81.82
-83.44
-77.34
-65.06
-49.21
-32.64
-17.6
-5.29
4.24
11.76
18.5
25.74
34.58
45.52
58.15
71.08
82.2
89.15
90.07
84.06
71.37
53.24
31.49
8.17
-14.69
-35.11
-51.2
-61.36
-64.74
-61.57
-53.32
-42.51
-31.98
-24.07
-20.02
-19.73
-21.89
-24.41
-25.07
-22.03
-14.34
-2.1
13.55
30.69
47.12
60.87
70.56
75.46
75.41
70.5
61.07
47.67
31.1
12.43
-7.08
-25.99
-42.85
-56.39
-65.93
-71.71
-75.16
-78.6
-84.59
-94.84
-109.35
-126.06
-141.26
-150.53
-150.01
-137.34
-112.24
-76.51
-33.71
11.57
54.62
91.39
119.04
136.11
142.36
138.43
125.67
106.01
81.92
56.24
31.8
10.85
-5.58
-17.86
-27.51
-36.44
-46.07
-56.61
-66.93
-75.11
-79.28
-78.52
-73.18
-64.67
-54.57
-44.0
-33.12
-21.3
-7.69
8.34
26.79
46.97
67.48
86.17
100.23
106.61
102.87
88.22
64.2
34.52
4.12
-22.47
-42.29
-54.67
-60.86
-63.19
-64.03
-65.0
-66.66
-68.56
-69.54
-68.22
-63.57
-55.12
-43.1
-28.28
-11.59
6.08
24.12
42.22
60.24
77.94
94.6
108.7
117.9
119.36
110.63
90.74
61.19
26.04
-8.79
-37.26
-54.96
-60.5
-55.66
-44.52
-31.75
-20.92
-13.46
-8.58
-4.23
1.48
9.11
17.78
25.59
30.81
32.72
31.87
29.67
27.59
26.46
26.26
26.37
25.95
24.3
20.85
15.27
7.45
-2.51
-14.12
-26.61
-39.14
-51.02
-61.95
-71.89
-80.8
-88.29
-93.54
-95.45
-93.07
-86.02
-74.79
-60.69
-45.69
-31.74
-20.2
-11.43
-4.58
2.06
10.45
22.02
37.12
54.81
73.02
89.09
100.31
104.56
100.72
89.05
71.16
49.77
27.98
8.52
-6.99
-18.27
-26.08
-31.58
-35.7
-38.93
-41.28
-42.5
-42.26
-40.2
-36.1
-30.06
-22.6
-14.62
-6.99
0.02
7.12
15.94
28.29
45.17
65.83
87.57
106.3
117.64
118.35
107.33
85.97
57.8
27.44
-0.68
-23.39
-39.26
-48.45
-52.12
-51.82
-49.02
-44.91
-40.39
-35.96
-31.72
-27.21
-21.5
-13.44
-2.1
12.87
30.99
51.04
71.26
89.77
104.91
115.46
120.65
119.93
112.71
98.43
76.92
48.98
16.84
-16.02
-45.73
-69.12
-84.76
-93.09
-95.71
-94.25
-89.57
-81.59
-69.99
-55.16
-38.59
-22.56
-9.16
0.69
7.7
13.82
21.24
31.25
43.54
56.16
66.08
70.18
66.18
53.33
32.67
6.77
-20.91
-46.84
-68.2
-83.38
-92.04
-94.77
-92.62
-86.53
-77.27
-65.38
-51.45
-36.39
-21.49
-8.23
2.12
8.99
12.73
14.55
16.15
19.1
24.35
31.98
41.18
50.46
57.97
61.86
60.54
53.18
40.04
22.58
3.36
-14.58
-28.63
-37.35
-40.75
-39.96
-36.59
-31.99
-27.09
-22.39
-18.41
-15.86
-15.36
-17.07
-20.2
-22.97
-23.14
-18.75
-8.92
5.85
23.74
42.14
58.14
69.03
72.64
67.7
54.13
33.36
8.16
-17.83
-41.01
-58.71
-69.79
-74.66
-74.73
-71.7
-66.77
-60.47
-52.79
-43.73
-33.67
-23.5
-14.19
-6.37
0.33
7.07
15.49
26.79
41.14
57.42
73.56
87.09
95.74
97.77
92.13
78.66
58.24
32.9
5.62
-20.22
-41.65
-56.73
-64.92
-66.77
-63.5
-56.38
-46.56
-35.08
-23.06
-11.81
-2.6
3.7
6.95
7.89
8.14
9.62
14.05
22.26
33.83
46.98
59.0
66.94
68.4
62.19
48.53
28.94
5.77
-18.27
-40.51
-58.62
-70.88
-76.49
-75.86
-70.33
-61.79
-51.9
-41.59
-31.03
-20.17
-9.42
0.11
7.06
10.51
10.92
10.15
10.85
15.32
24.37
36.92
50.36
61.55
67.92
68.09
62.1
51.07
36.79
21.28
6.66
-5.13
-12.62
-15.25
-13.75
-10.0
-6.41
-4.97
-6.58
-10.72
-16.03
-21.0
-24.58
-26.25
-25.77
-22.65
-16.27
-6.21
7.25
22.91
39.11
54.23
67.15
77.14
83.35
84.54
79.27
66.77
47.67
24.35
0.36
-20.79
-36.79
-47.07
-52.5
-54.46
-54.04
-51.78
-47.87
-42.62
-36.72
-31.13
-26.49
-22.85
-19.47
-15.02
-8.24
1.65
14.48
29.1
43.79
56.64
66.08
71.04
71.0
65.84
55.8
41.67
24.79
6.97
-9.95
-24.7
-36.98
-47.39
-56.8
-65.44
-72.5
-76.24
-74.86
-67.45
-54.54
-37.9
-19.76
-2.04
14.19
28.74
41.86
53.94
65.18
75.44
84.07
89.78
90.7
84.75
70.56
48.26
20.19
-9.61
-36.47
-56.7
-68.58
-72.58
-70.48
-64.26
-55.22
-44.02
-31.16
-17.59
-4.79
5.7
12.94
17.14
19.49
21.59
24.79
29.67
35.82
42.11
47.09
49.54
48.88
45.15
38.88
30.55
20.4
8.43
-5.22
-19.98
-34.71
-48.06
-58.91
-66.65
-71.2
-72.74
-71.42
-67.36
-60.77
-52.13
-42.17
-31.81
-21.76
-12.48
-4.09
3.58
11.09
19.17
28.55
39.58
51.99
64.79
76.38
84.88
88.45
85.59
75.54
58.62
36.51
11.93
-12.01
-32.82
-49.25
-61.37
-69.96
-75.67
-78.5
-77.97
-73.65
-65.69
-54.98
-42.73
-29.83
-16.55
-2.67
12.05
27.37
42.45
56.24
67.86
77.08
84.14
89.15
91.54
89.8
81.93
66.45
43.53
15.51
-13.64
-39.48
-58.72
-70.02
-73.97
-72.11
-65.9
-56.02
-42.66
-26.21
-7.94
9.79
24.31
33.55
37.0
35.92
32.89
30.87
32.11
37.54
46.56
57.34
67.22
73.33
73.0
64.26
46.29
19.82
-12.59
-46.91
-78.25
-102.16
-115.59
-117.55
-109.12
-92.78
-71.55
-48.34
-25.65
-5.65
9.76
19.07
21.8
18.93
13.09
7.83
6.48
10.93
21.04
34.85
49.48
61.95
69.84
71.43
65.7
52.48
32.76
8.91
-15.54
-36.82
-52.08
-60.29
-62.32
-60.19
-55.9
-50.57
-44.36
-37.01
-28.63
-20.07
-12.76
-8.11
-6.78
-8.33
-11.31
-13.68
-13.44
-9.04
0.31
14.59
32.99
53.89
74.98
93.37
105.9
109.75
103.12
85.98
60.36
30.15
0.13
-25.44
-43.94
-54.88
-59.47
-59.68
-57.26
-53.36
-48.6
-43.5
-38.63
-34.55
-31.45
-28.88
-25.76
-20.83
-13.09
-2.21
11.27
26.16
40.97
54.27
65.09
72.86
77.22
77.6
73.02
62.3
44.73
20.66
-8.17
-38.92
-68.44
-93.83
-112.9
-124.02
-125.99
-118.09
-100.5
-74.91
-44.63
-14.23
11.59
29.32
37.61
37.5
32.0
24.86
19.45
17.89
20.69
27.16
35.89
45.05
52.53
55.92
52.87
41.72
22.57
-2.32
-28.75
-51.9
-67.96
-75.34
-74.88
-68.93
-59.99
-49.6
-38.17
-25.6
-12.16
0.89
11.5
17.71
18.45
14.27
7.16
-0.03
-4.54
-4.45
0.99
11.47
25.79
42.01
57.49
69.04
73.5
68.68
54.4
32.99
8.8
-13.3
-29.62
-38.95
-42.55
-43.04
-43.04
-43.98
-46.01
-48.52
-50.9
-52.93
-54.61
-55.68
-55.39
-52.55
-46.06
-35.48
-21.26
-4.57
13.3
31.53
49.99
68.95
88.24
106.36
120.24
125.78
119.56
100.46
70.73
35.52
1.24
-26.78
-45.95
-56.81
-62.04
-64.63
-66.33
-67.0
-65.31
-59.82
-50.35
-38.08
-25.01
-12.97
-2.7
6.03
13.93
21.41
28.32
34.44
40.11
46.42
54.45
64.13
73.29
78.06
74.39
60.08
36.03
6.07
-24.64
-51.53
-71.81
-84.49
-89.54
-87.01
-76.92
-59.83
-37.76
-14.38
5.64
18.3
21.64
16.67
6.93
-3.06
-9.31
-9.7
-4.23
5.57
17.48
29.38
39.48
46.2
48.03
43.62
32.34
14.86
-6.61
-28.77
-48.24
-62.77
-71.97
-77.24
-80.74
-84.14
-87.97
-91.61
-94.33
-96.25
-98.89
-104.67
-115.57
-132.18
-153.09
-175.11
-194.18
-206.21
-207.64
-195.78
-169.18
-128.35
-76.64
-20.67
30.4
66.9
81.42
71.3
39.82
-4.49
-50.26
-86.38
-104.96
-102.84
-81.58
-46.12
-3.01
41.82
84.3
122.85
157.64
189.27
217.57
241.51
259.8
271.93
278.83
282.59
285.22
287.5
288.57
286.86
282.48
277.93
277.25
283.58
296.53
311.07
319.6
315.17
295.06
263.36
228.59
199.64
181.48
172.95
167.61
158.25
140.69
116.41
93.32
80.56
82.93
97.47
114.32
120.79
108.75
77.83
35.68
-3.73
-27.93
-31.5
-17.53
5.45
28.02
45.74
58.71
58.84
42.74
12.4
-25.38
-63.51
-93.44
-117.76
-137.87
-153.33
-163.85
-169.2
-170.92
-172.9
-180.14
-196.45
-223.27
-257.29
-292.77
-323.46
-343.2
-348.96
-342.08
-327.37
-310.52
-295.76
-282.89
-268.92
-250.25
-223.91
-189.82
-150.83
-111.41
-75.4
-45.17
-20.65
-1.02
14.2
25.33
32.38
35.31
34.27
29.7
21.83
10.96
-2.78
-19.0
-36.25
-52.05
-63.33
-67.32
-62.55
-49.57
-30.87
-10.34
7.98
21.17
28.35
30.83
31.37
32.93
37.38
44.89
54.02
62.53
68.5
71.04
70.55
68.44
66.49
66.54
70.12
78.48
92.19
110.73
132.04
152.6
168.07
174.53
169.66
153.32
127.44
95.33
61.02
28.57
1.7
-16.66
-25.07
-24.2
-16.99
-7.83
-0.98
0.96
-2.25
-9.16
-18.12
-28.59
-41.2
-56.65
-74.34
-91.64
-104.57
-109.67
-105.56
-93.77
-77.98
-62.33
-49.73
-41.18
-36.04
-32.99
-31.05
-29.99
-30.22
-32.26
-36.19
-41.21
-45.92
-48.76
-48.69
-45.67
-40.65
-35.06
-29.91
-25.45
-21.18
-16.51
-11.56
-7.43
-5.87
-8.29
-14.94
-24.59
-35.02
-44.02
-50.26
-53.7
-55.16
-55.78
-56.42
-57.55
-59.37
-62.12
-66.08
-71.3
-77.19
-82.33
-84.78
-82.56
-74.57
-61.05
-43.71
-25.24
-8.43
4.58
12.85
16.7
17.37
16.45
15.44
15.36
16.72
19.5
23.36
27.74
32.01
35.75
38.87
41.71
44.93
49.32
55.52
63.74
73.59
84.14
93.88
101.04
103.99
101.74
94.28
82.76
69.3
56.42
46.34
40.42
38.89
41.0
45.25
49.8
52.83
52.79
48.71
40.36
28.37
13.97
-1.37
-16.36
-30.18
-42.41
-52.91
-61.48
-67.81
-71.61
-72.83
-71.72
-68.89
-64.92
-60.31
-55.43
-50.58
-46.21
-42.98
-41.61
-42.71
-46.42
-52.35
-59.54
-66.68
-72.42
-75.58
-75.31
-71.27
-63.56
-52.7
-39.53
-25.08
-10.4
3.52
15.89
26.24
34.35
40.29
44.19
46.22
46.61
45.69
44.02
42.29
41.34
41.85
44.33
49.06
56.14
65.38
76.18
87.41
97.43
104.41
106.93
104.46
97.54
87.59
76.18
64.4
52.56
40.28
26.94
12.32
-3.19
-18.63
-32.89
-45.05
-54.69
-61.79
-66.52
-69.11
-69.93
-69.64
-69.27
-69.99
-72.48
-76.41
-80.31
-82.05
-79.79
-72.85
-62.11
-49.59
-37.67
-28.03
-21.22
-16.61
-12.9
-8.76
-3.39
3.25
10.59
17.74
23.88
28.64
32.18
35.02
37.75
40.72
43.9
46.99
49.76
52.18
54.43
56.71
58.91
60.52
60.78
59.07
55.35
50.34
45.28
41.35
39.0
37.57
35.5
30.96
22.61
10.16
-5.45
-22.61
-39.49
-54.73
-67.57
-77.73
-85.03
-89.24
-90.0
-87.24
-81.47
-74.0
-66.71
-61.54
-59.79
-61.78
-66.9
-73.91
-81.49
-88.52
-94.22
-97.98
-99.35
-98.0
-93.78
-86.74
-77.0
-64.54
-49.13
-30.39
-8.17
17.07
44.0
70.46
93.9
111.87
122.69
125.85
122.17
113.52
102.38
91.21
81.82
75.08
70.9
68.32
65.94
62.33
56.43
47.9
37.21
25.6
14.68
5.92
0.09
-3.09
-4.93
-7.35
-12.28
-21.02
-33.93
-50.2
-67.99
-84.68
-97.34
-103.42
-101.36
-91.31
-75.17
-56.19
-38.03
-23.77
-15.14
-12.33
-14.31
-19.38
-25.54
-30.81
-33.25
-31.19
-23.51
-10.05
8.14
28.93
49.74
68.22
82.93
93.62
100.95
106.05
109.93
113.2
115.92
117.78
118.02
115.61
109.27
97.92
81.25
60.29
37.63
16.93
1.91
-4.82
-2.68
6.73
20.19
33.76
43.78
47.53
43.6
31.9
13.56
-9.24
-33.68
-56.75
-75.96
-89.9
-98.49
-102.87
-104.63
-105.23
-105.35
-104.79
-102.81
-98.65
-92.04
-83.36
-73.48
-63.42
-54.0
-45.7
-38.65
-32.71
-27.56
-22.68
-17.45
-11.2
-3.46
5.93
16.68
28.07
39.21
49.29
57.8
64.58
69.68
73.17
75.0
75.07
73.28
69.72
64.63
58.45
51.62
44.47
37.34
30.55
24.45
19.42
15.71
13.35
12.14
11.69
11.5
10.86
8.83
4.29
-3.79
-15.85
-31.36
-48.74
-65.63
-79.5
-88.42
-91.42
-88.69
-81.42
-71.44
-60.81
-51.44
-44.7
-41.29
-41.21
-44.01
-49.04
-55.65
-63.07
-70.4
-76.51
-80.19
-80.59
-77.51
-71.51
-63.65
-54.94
-45.79
-35.72
-23.55
-7.89
12.08
36.11
62.65
89.18
112.79
130.86
141.68
144.6
140.05
129.27
114.03
96.54
79.14
64.08
53.14
47.37
46.94
51.17
58.86
68.61
78.96
88.59
96.16
100.34
99.77
93.4
80.78
62.48
40.2
16.43
-6.15
-25.42
-40.44
-51.55
-60.0
-67.37
-74.9
-83.2
-92.23
-101.52
-110.41
-118.15
-123.87
-126.55
-125.21
-119.16
-108.45
-94.09
-77.91
-62.09
-48.4
-37.61
-29.23
-21.86
-13.95
-4.67
5.72
16.09
25.11
32.01
36.94
40.71
44.17
47.69
51.06
53.71
55.27
55.81
55.73
55.45
54.99
53.98
51.96
48.89
45.41
42.64
41.6
42.65
45.12
47.61
48.49
46.61
41.73
34.5
26.0
17.23
8.62
0.02
-9.11
-19.28
-30.6
-42.5
-53.74
-62.63
-67.48
-67.1
-61.13
-50.12
-35.43
-18.89
-2.54
11.77
22.52
28.85
30.62
28.4
23.31
16.69
9.87
3.96
-0.18
-1.91
-0.84
3.11
9.66
18.1
27.45
36.73
45.24
52.61
58.8
63.88
67.89
70.73
72.14
71.85
69.65
65.46
59.35
51.61
42.79
33.71
25.51
19.33
15.95
15.34
16.46
17.47
16.35
11.62
2.93
-8.9
-22.11
-34.7
-44.95
-51.73
-54.7
-54.19
-51.09
-46.58
-41.78
-37.43
-33.66
-30.15
-26.42
-22.31
-18.29
-15.3
-14.39
-16.25
-20.93
-27.85
-36.07
-44.54
-52.3
-58.5
-62.42
-63.6
-61.82
-57.32
-50.56
-42.22
-32.9
-23.05
-13.09
-3.47
5.16
12.0
16.39
18.17
17.93
17.12
17.66
21.47
29.87
43.23
60.74
80.59
100.24
116.85
127.89
131.84
128.66
119.95
108.48
97.18
88.04
81.34
75.45
67.36
53.68
31.57
-0.35
-41.65
-89.82
-140.53
-188.24
-227.19
-252.82
-262.94
-258.38
-242.61
-220.61
-197.24
-175.91
-157.96
-142.84
-128.89
-114.16
-97.24
-77.53
-55.29
-31.45
-7.3
15.86
37.11
56.0
72.48
86.58
98.16
106.64
111.24
111.41
107.18
99.53
90.18
81.11
73.93
69.32
66.96
65.78
64.72
63.32
62.26
62.97
67.19
75.93
88.81
103.95
118.45
129.23
133.83
130.89
120.24
102.79
80.3
55.06
29.74
7.0
-10.93
-22.63
-27.53
-25.78
-18.05
-5.35
10.75
27.81
42.61
51.61
51.97
42.59
24.71
1.68
-21.85
-41.31
-53.4
-56.82
-52.42
-42.69
-31.1
-21.16
-15.63
-15.89
-21.71
-31.29
-41.8
-50.05
-53.18
-49.32
-37.96
-19.95
2.61
26.91
50.02
69.6
84.27
93.81
99.04
101.45
102.79
104.69
108.48
115.01
124.55
136.6
149.94
162.73
173.0
179.18
180.6
177.53
170.85
161.44
149.69
135.42
118.18
97.65
73.93
47.37
18.35
-12.95
-46.33
-81.08
-115.68
-147.65
-174.2
-192.9
-202.54
-203.51
-197.67
-187.69
-176.24
-165.28
-155.69
-147.38
-139.61
-131.64
-123.12
-114.39
-106.32
-99.92
-95.82
-93.83
-93.0
-91.88
-88.99
-83.3
-74.39
-62.42
-48.02
-32.14
-15.86
-0.41
13.09
23.69
30.81
34.31
34.57
32.41
29.02
25.69
23.51
22.91
23.39
23.47
21.07
14.08
1.26
-17.27
-39.93
-64.03
-86.63
-105.31
-118.78
-127.07
-131.23
-132.72
-132.69
-131.53
-128.73
-123.28
-114.04
-100.29
-81.91
-59.44
-33.95
-6.8
20.39
45.94
68.28
86.15
98.79
106.18
109.01
108.61
106.63
104.8
104.49
106.37
110.17
114.76
118.49
119.85
118.02
113.15
106.22
98.49
91.02
84.27
78.21
72.55
67.06
61.72
56.59
51.71
47.09
42.74
38.79
35.47
32.79
30.34
27.28
22.54
15.38
5.77
-5.49
-16.99
-27.09
-34.46
-38.3
-38.52
-35.74
-31.08
-26.01
-21.95
-20.09
-21.03
-24.78
-30.73
-37.85
-44.87
-50.47
-53.52
-53.36
-49.97
-43.99
-36.58
-29.03
-22.42
-17.41
-14.12
-12.4
-11.88
-12.08
-12.44
-12.31
-11.1
-8.46
-4.43
0.53
5.63
9.97
12.8
13.75
12.84
10.42
7.02
3.13
-0.91
-4.99
-9.15
-13.52
-18.08
-22.49
-26.1
-28.0
-27.31
-23.58
-16.96
-8.27
1.2
10.07
17.22
21.93
23.89
23.1
19.81
14.56
8.27
2.15
-2.65
-5.46
-6.36
-6.18
-6.1
-7.21
-10.09
-14.73
-20.68
-27.24
-33.69
-39.31
-43.39
-45.3
-44.69
-41.61
-36.5
-30.16
-23.44
-17.19
-12.08
-8.58
-6.89
-6.85
-7.92
-9.28
-10.09
-9.82
-8.4
-6.25
-3.97
-2.05
-0.63
0.56
1.97
3.93
6.36
8.58
9.44
7.82
3.13
-4.19
-12.65
-20.07
-24.41
-24.41
-20.05
-12.36
-2.93
6.64
15.14
21.77
26.02
27.6
26.51
23.08
18.08
12.59
7.78
4.55
3.39
4.28
6.72
9.87
12.72
14.17
13.25
9.45
3.04
-4.75
-11.95
-16.45
-16.82
-12.98
-6.24
1.25
7.39
10.93
11.67
10.17
7.03
2.5
-3.55
-11.22
-20.16
-29.4
-37.68
-43.82
-47.2
-47.79
-46.13
-43.05
-39.5
-36.34
-34.15
-33.1
-32.95
-33.18
-33.27
-32.92
-32.32
-32.09
-33.18
-36.62
-43.17
-53.15
-66.2
-81.28
-96.92
-111.56
-124.05
-133.81
-140.64
-144.17
-143.49
-137.15
-123.66
-102.46
-74.35
-41.37
-5.86
30.57
67.56
105.51
144.53
183.38
219.27
248.62
268.52
277.86
277.69
270.68
260.03
248.53
238.16
230.05
224.75
222.18
221.47
220.73
217.42
209.04
194.02
172.44
145.84
116.56
86.63
56.83
26.34
-6.77
-44.21
-86.08
-129.89
-170.7
-202.49
-220.23
-221.84
-209.03
-186.79
-161.55
-139.07
-122.74
-113.26
-109.25
-108.61
-109.62
-111.35
-113.45
-115.61
-116.94
-116.0
-111.14
-101.21
-86.3
-67.93
-48.65
-31.16
-17.43
-8.13
-2.72
-0.11
0.69
0.2
-1.43
-3.9
-6.47
-7.84
-6.57
-1.79
6.32
16.41
26.39
34.15
38.29
38.54
35.66
31.07
26.26
22.4
20.14
19.61
20.53
22.38
24.61
26.65
28.09
28.54
27.71
25.32
21.23
15.53
8.71
1.54
-5.09
-10.43
-14.03
-15.63
-15.02
-12.0
-6.52
0.97
9.29
16.67
21.19
21.52
17.31
9.33
-0.91
-11.7
-21.46
-28.88
-32.88
-32.55
-27.5
-18.12
-5.87
6.84
17.22
22.97
23.03
17.85
9.05
-1.14
-10.78
-18.63
-24.32
-28.08
-30.32
-31.34
-31.19
-29.74
-26.9
-22.78
-17.82
-12.75
-8.39
-5.43
-4.28
-4.94
-6.96
-9.62
-11.98
-13.03
-11.91
-8.09
-1.6
6.95
16.5
25.81
33.7
39.16
41.43
40.05
34.99
26.81
16.84
7.02
-0.54
-4.18
-3.12
2.27
10.68
20.32
29.36
36.21
39.72
39.24
34.83
27.31
18.2
9.49
3.11
0.44
1.93
7.03
14.37
22.19
28.81
32.93
33.84
31.47
26.17
18.73
10.18
1.76
-5.26
-9.81
-11.21
-9.37
-4.88
1.08
7.03
11.55
13.66
12.99
9.71
4.34
-2.37
-9.64
-16.66
-22.71
-27.32
-30.37
-32.06
-32.74
-32.64
-31.8
-30.02
-27.07
-22.92
-17.79
-12.03
-5.92
0.48
7.33
14.87
23.17
31.98
40.6
47.83
52.14
52.01
46.49
35.78
21.52
6.44
-6.43
-14.92
-18.53
-18.58
-17.6
-18.14
-21.71
-28.19
-35.97
-42.72
-46.27
-45.44
-40.16
-31.31
-20.19
-8.05
4.01
14.93
23.53
28.48
28.7
23.88
15.04
4.34
-5.5
-12.36
-15.48
-15.74
-15.07
-15.47
-18.37
-24.35
-33.33
-44.72
-57.34
-68.99
-76.56
-76.53
-66.22
-45.12
-15.49
18.13
50.41
77.07
95.94
107.01
111.59
111.11
106.38
97.65
85.05
69.26
51.6
33.77
17.3
3.06
-8.81
-18.57
-26.47
-32.45
-36.19
-37.27
-35.46
-30.93
-24.27
-16.49
-8.85
-2.52
1.86
4.54
6.84
10.66
17.72
28.64
42.57
57.39
70.59
80.17
85.34
86.61
85.32
82.99
80.85
79.61
79.42
79.8
79.66
77.34
71.03
59.34
41.92
19.93
-4.2
-27.24
-45.95
-57.85
-61.73
-57.78
-47.66
-34.22
-21.04
-11.69
-8.83
-13.51
-24.86
-40.48
-57.2
-72.06
-82.94
-88.92
-90.15
-87.64
-82.96
-77.89
-74.08
-72.64
-73.76
-76.68
-79.95
-81.96
-81.51
-78.21
-72.52
-65.49
-58.25
-51.57
-45.64
-40.07
-34.22
-27.57
-19.95
-11.68
-3.42
3.99
9.78
13.47
15.07
15.05
14.24
13.55
13.58
14.42
15.63
16.45
16.02
13.59
8.71
1.25
-8.43
-19.44
-30.35
-39.61
-46.0
-49.13
-49.39
-47.66
-44.78
-41.23
-37.15
-32.67
-28.12
-24.0
-20.79
-18.65
-17.36
-16.44
-15.42
-13.89
-11.62
-8.53
-4.76
-0.71
3.01
5.69
6.75
5.8
2.68
-2.56
-9.47
-17.1
-23.84
-27.81
-27.47
-22.26
-13.02
-1.69
9.53
19.01
26.26
31.66
35.85
39.1
41.15
41.62
40.52
38.65
37.27
37.59
40.07
44.25
49.01
53.25
56.31
58.08
58.68
58.1
56.04
52.2
46.5
39.44
31.95
25.04
19.5
15.59
13.15
11.7
10.71
9.7
8.39
6.77
5.19
4.22
4.51
6.34
9.27
12.13
13.27
11.35
5.88
-2.45
-11.99
-20.87
-27.72
-32.24
-35.14
-37.83
-41.69
-47.56
-55.38
-64.23
-72.69
-79.3
-83.07
-83.61
-81.17
-76.22
-69.27
-60.71
-50.89
-40.41
-30.14
-21.06
-13.92
-8.95
-5.75
-3.56
-1.47
1.31
5.33
10.79
17.47
24.71
31.51
36.86
40.08
41.11
40.45
38.89
37.09
35.32
33.32
30.63
26.91
22.26
17.3
13.05
10.49
10.14
11.87
14.93
18.45
21.89
25.28
29.16
34.02
39.87
45.94
50.92
53.44
52.62
48.4
41.51
33.12
24.48
16.47
9.43
3.11
-3.06
-9.62
-16.77
-24.18
-31.03
-36.37
-39.49
-40.12
-38.45
-34.92
-29.98
-23.9
-16.73
-8.45
0.88
10.88
20.84
29.73
36.47
40.24
40.91
39.12
36.11
33.17
31.11
29.97
29.18
27.98
25.99
23.41
20.86
18.99
18.04
17.72
17.44
16.66
15.09
12.71
9.63
5.87
1.35
-3.95
-9.79
-15.66
-20.82
-24.63
-26.8
-27.58
-27.65
-27.9
-28.99
-31.13
-34.05
-37.18
-39.88
-41.58
-41.88
-40.49
-37.22
-32.06
-25.2
-17.18
-8.81
-1.03
5.3
9.49
11.23
10.6
7.98
4.08
-0.21
-4.01
-6.59
-7.46
-6.43
-3.52
1.04
6.68
12.5
17.3
19.88
19.42
15.78
9.62
2.2
-5.0
-10.66
-13.9
-14.46
-12.69
-9.41
-5.7
-2.56
-0.72
-0.45
-1.6
-3.8
-6.71
-10.13
-14.0
-18.25
-22.72
-27.08
-30.98
-34.19
-36.54
-37.82
-37.61
-35.2
-29.85
-21.2
-9.61
3.71
16.99
28.38
36.5
40.75
41.26
38.68
33.98
28.41
23.27
19.75
18.43
19.04
20.35
20.67
18.61
13.66
6.41
-1.94
-10.22
-17.84
-24.89
-31.69
-38.3
-44.16
-48.37
-50.23
-49.6
-46.93
-42.92
-38.19
-33.17
-28.28
-24.26
-22.07
-22.47
-25.29
-29.21
-32.11
-32.12
-28.59
-22.5
-15.96
-11.08
-8.87
-8.89
-9.76
-10.1
-9.38
-8.13
-7.43
-8.07
-9.9
-11.76
-12.08
-9.67
-4.39
2.68
9.68
14.61
16.15
14.07
9.24
3.16
-2.71
-7.52
-11.31
-14.93
-19.55
-26.0
-34.29
-43.23
-50.74
-54.46
-52.66
-44.89
-32.15
-16.44
-0.09
14.94
27.48
37.07
43.76
47.94
50.39
52.48
56.11
63.39
75.83
93.54
114.86
136.65
155.19
167.22
170.87
165.96
153.86
136.84
117.4
97.68
79.03
61.94
46.22
31.25
16.56
2.09
-11.58
-23.43
-32.43
-38.06
-40.6
-41.27
-41.93
-44.5
-50.2
-58.83
-68.44
-75.87
-77.84
-72.38
-59.88
-43.29
-27.02
-15.29
-10.44
-12.08
-17.57
-23.38
-26.76
-26.67
-23.73
-19.24
-14.09
-8.16
-0.6
9.38
21.57
34.44
45.56
52.63
54.52
51.62
45.43
37.53
28.82
19.37
9.1
-1.54
-11.07
-17.47
-19.05
-15.26
-6.94
4.02
15.53
25.93
34.28
40.3
44.06
45.9
46.37
46.13
45.81
45.76
45.88
45.67
44.57
42.3
38.98
35.1
31.08
26.98
22.39
16.58
8.87
-0.98
-12.6
-25.21
-37.85
-49.77
-60.4
-69.21
-75.53
-78.53
-77.42
-71.9
-62.35
-49.82
-35.83
-21.87
-9.24
1.16
8.78
13.51
15.58
15.55
14.18
12.2
10.07
7.87
5.37
2.18
-1.94
-7.04
-12.85
-19.0
-25.07
-30.79
-35.97
-40.45
-43.88
-45.69
-45.15
-41.63
-34.9
-25.38
-14.15
-2.64
7.67
15.63
20.67
22.75
22.26
19.77
15.89
11.2
6.27
1.74
-1.64
-3.14
-2.34
0.61
4.92
9.24
12.09
12.31
9.46
3.95
-3.15
-10.48
-16.79
-21.21
-23.47
-23.84
-22.96
-21.53
-19.96
-18.15
-15.48
-11.08
-4.3
4.97
16.21
28.32
39.85
49.15
54.67
55.26
50.48
40.95
28.35
15.1
3.63
-4.41
-8.62
-9.88
-9.73
-9.74
-10.88
-13.38
-16.89
-20.86
-24.71
-27.98
-30.2
-30.85
-29.4
-25.4
-18.77
-9.98
-0.03
9.78
18.15
24.16
27.48
28.29
27.14
24.6
21.21
17.41
13.61
10.29
7.89
6.72
7.03
8.96
12.62
18.05
24.85
31.97
37.73
40.2
37.95
30.66
19.38
6.16
-6.75
-17.66
-25.87
-31.55
-35.23
-37.4
-38.13
-37.19
-34.2
-28.83
-20.95
-10.76
1.24
14.1
26.44
36.47
42.16
41.56
33.24
16.85
-6.55
-34.27
-62.47
-86.95
-104.21
-112.49
-112.16
-105.48
-95.78
-86.33
-79.42
-75.9
-75.29
-76.12
-76.59
-75.09
-70.54
-62.62
-51.78
-39.11
-26.13
-14.52
-5.64
-0.17
2.17
2.57
2.84
4.76
9.44
17.01
26.56
36.63
45.62
52.33
55.96
56.24
53.33
47.86
40.93
33.92
28.15
24.37
22.55
21.85
21.0
18.71
14.09
6.83
-2.82
-14.06
-25.76
-36.6
-45.34
-51.1
-53.52
-52.8
-49.41
-43.95
-36.91
-28.73
-19.93
-11.09
-2.79
4.52
10.64
15.67
19.82
23.28
26.17
28.52
30.41
31.9
32.97
33.5
33.2
31.84
29.33
25.76
21.22
15.61
8.66
0.19
-9.48
-19.26
-27.42
-32.09
-31.84
-26.2
-15.68
-1.7
13.71
28.16
39.13
44.45
42.86
34.71
21.98
7.87
-4.29
-12.28
-15.56
-15.25
-13.29
-11.51
-10.95
-11.83
-13.75
-16.2
-18.7
-20.74
-21.77
-21.18
-18.65
-14.35
-9.11
-4.12
-0.61
0.58
-0.8
-4.31
-9.01
-13.51
-16.3
-16.05
-12.01
-4.24
6.27
17.83
28.43
36.29
40.27
40.13
36.57
31.11
25.73
22.41
22.42
25.88
31.62
37.63
41.86
43.07
41.21
37.28
32.64
28.33
24.64
21.22
17.48
13.1
8.26
3.63
-0.05
-2.4
-3.58
-4.19
-4.91
-6.06
-7.49
-8.65
-9.08
-8.7
-7.95
-7.58
-8.17
-9.81
-11.93
-13.61
-14.05
-12.88
-10.22
-6.45
-1.93
3.11
8.46
13.66
17.97
20.47
20.47
17.87
13.27
7.75
2.38
-2.12
-5.5
-7.81
-9.13
-9.57
-9.32
-8.9
-9.14
-10.88
-14.43
-19.19
-23.79
-26.55
-26.22
-22.48
-15.98
-7.91
0.51
8.45
15.46
21.24
25.53
27.99
28.47
27.11
24.45
21.12
17.56
13.81
9.54
4.27
-2.26
-9.96
-18.36
-26.74
-34.27
-40.1
-43.44
-43.7
-40.61
-34.35
-25.63
-15.49
-5.12
4.39
12.15
17.46
19.8
18.82
14.58
7.62
-0.91
-9.52
-16.63
-21.0
-22.03
-19.87
-15.5
-10.39
-6.19
-4.22
-5.15
-8.73
-13.94
-19.28
-23.32
-25.18
-24.74
-22.63
-19.8
-17.07
-14.76
-12.64
-10.16
-6.79
-2.29
3.07
8.68
13.69
17.31
19.08
18.89
17.01
13.98
10.4
6.8
3.48
0.53
-2.07
-4.38
-6.35
-7.86
-8.68
-8.7
-7.87
-6.31
-4.21
-1.8
0.68
3.05
5.25
7.27
9.13
10.79
12.21
13.33
14.23
15.11
16.19
17.54
18.99
20.08
20.27
19.14
16.56
12.69
7.84
2.3
-3.74
-10.09
-16.33
-21.73
-25.31
-26.21
-23.96
-18.74
-11.2
-2.23
7.35
16.82
25.58
32.98
38.26
40.74
40.02
36.17
29.67
21.3
11.85
2.09
-7.29
-15.64
-22.44
-27.48
-31.07
-33.9
-36.69
-39.7
-42.57
-44.34
-44.02
-40.99
-35.19
-27.0
-16.79
-4.79
8.81
23.49
38.02
50.7
59.74
64.03
63.56
59.42
53.31
46.92
41.42
37.26
34.32
32.11
29.97
27.37
23.99
19.85
15.37
11.28
8.37
7.32
8.39
11.41
15.8
20.77
25.39
28.87
30.58
30.13
27.53
23.12
17.57
11.77
6.66
3.09
1.75
2.98
6.78
12.68
19.84
27.28
34.14
39.94
44.65
48.5
51.63
53.97
55.18
55.03
53.61
51.51
49.55
48.52
48.85
50.56
53.41
56.94
60.58
63.58
65.07
64.21
60.6
54.42
46.19
36.25
24.0
7.8
-14.31
-43.25
-77.64
-113.66
-146.12
-170.45
-184.43
-188.74
-186.12
-179.74
-171.92
-163.66
-155.15
-146.38
-137.5
-128.62
-119.48
-109.36
-97.5
-83.67
-68.48
-53.27
-39.52
-28.28
-19.96
-14.32
-10.66
-8.03
-5.55
-2.47
1.39
5.63
9.3
11.31
11.04
8.64
5.02
1.62
-0.27
0.16
3.06
7.95
13.93
19.87
24.54
26.83
25.92
21.45
13.76
3.9
-6.52
-15.6
-21.48
-22.9
-19.56
-12.31
-3.0
6.12
13.07
16.86
17.56
16.2
14.1
12.39
11.76
12.45
14.61
18.36
23.84
31.0
39.4
48.21
56.44
63.2
68.02
70.88
72.03
71.76
70.19
67.17
62.51
56.2
48.56
40.13
31.46
22.88
14.42
5.99
-2.34
-10.26
-17.12
-22.17
-24.81
-24.73
-22.11
-17.53
-11.87
-6.06
-0.78
3.74
7.71
11.48
15.18
18.4
20.29
19.89
16.74
11.27
4.71
-1.4
-5.87
-8.21
-8.81
-8.47
-8.02
-7.89
-7.95
-7.62
-6.18
-3.02
2.13
9.09
17.34
26.15
34.98
43.55
51.92
60.4
69.23
78.29
86.97
94.21
98.7
99.3
95.26
86.48
73.6
57.78
40.61
23.73
8.57
-3.92
-13.37
-20.07
-24.83
-28.76
-32.97
-38.18
-44.39
-50.88
-56.37
-59.53
-59.41
-55.78
-49.11
-40.41
-30.99
-22.15
-15.09
-10.6
-8.91
-9.61
-11.62
-13.62
-14.45
-13.6
-11.4
-8.84
-7.24
-7.65
-10.55
-15.68
-22.22
-29.12
-35.49
-40.82
-44.93
-47.88
-49.64
-50.03
-48.69
-45.26
-39.6
-31.86
-22.49
-12.29
-2.36
5.99
11.52
13.43
11.65
7.04
0.98
-5.15
-10.41
-14.6
-17.97
-20.85
-23.26
-24.85
-25.24
-24.28
-22.22
-19.5
-16.36
-12.65
-7.88
-1.61
6.2
14.98
23.74
31.52
37.8
42.62
46.4
49.49
51.91
53.26
52.99
50.71
46.49
40.87
34.63
28.48
22.89
17.99
13.74
10.11
7.19
5.14
4.21
4.58
6.29
9.15
12.68
16.17
18.83
20.12
19.87
18.34
15.99
13.15
9.87
6.06
1.78
-2.54
-6.08
-8.1
-8.34
-7.18
-5.49
-4.01
-3.04
-2.29
-1.26
0.32
2.16
3.37
2.95
0.26
-4.57
-10.5
-15.96
-19.34
-19.57
-16.45
-10.66
-3.45
3.94
10.62
16.2
20.63
23.83
25.55
25.39
23.08
18.75
12.99
6.7
0.81
-4.04
-7.65
-10.17
-11.99
-13.57
-15.25
-17.21
-19.4
-21.66
-23.81
-25.8
-27.8
-30.02
-32.53
-35.05
-36.94
-37.48
-36.16
-32.96
-28.41
-23.29
-18.41
-14.35
-11.36
-9.47
-8.59
-8.57
-9.17
-10.07
-10.78
-10.83
-9.85
-7.78
-4.98
-2.09
0.21
1.57
2.15
2.57
3.55
5.55
8.48
11.81
14.85
17.19
18.92
20.43
21.96
23.25
23.54
21.92
17.89
11.71
4.41
-2.75
-8.75
-13.25
-16.47
-18.87
-20.71
-21.94
-22.27
-21.48
-19.62
-16.93
-13.73
-10.16
-6.28
-2.17
1.91
5.54
8.29
10.05
11.07
11.94
13.24
15.33
18.13
21.11
23.45
24.25
22.9
19.26
13.78
7.25
0.58
-5.53
-10.61
-14.47
-17.06
-18.45
-18.77
-18.26
-17.11
-15.32
-12.66
-8.84
-3.7
2.44
8.75
14.2
17.96
19.83
20.22
19.95
19.77
20.11
20.97
22.1
23.2
23.97
24.16
23.55
21.95
19.32
15.76
11.5
6.91
2.35
-1.88
-5.65
-8.96
-11.89
-14.48
-16.79
-18.72
-20.14
-20.9
-20.9
-20.07
-18.44
-16.2
-13.58
-10.92
-8.52
-6.62
-5.48
-5.34
-6.44
-8.9
-12.62
-17.05
-21.28
-24.32
-25.6
-25.5
-25.32
-26.82
-31.25
-38.53
-47.0
-54.05
-57.25
-55.44
-49.22
-40.53
-31.84
-24.89
-20.23
-17.16
-14.37
-10.56
-4.87
2.88
12.32
22.56
32.36
40.33
45.12
45.84
42.26
35.04
25.56
15.6
6.86
0.44
-3.36
-4.97
-5.11
-4.35
-2.79
-0.2
3.77
9.18
15.57
22.14
27.85
31.87
33.65
32.99
29.98
24.85
18.01
9.97
1.35
-7.16
-14.9
-21.16
-25.11
-26.06
-23.68
-18.36
-11.25
-4.07
1.44
4.04
3.39
-0.02
-5.13
-10.78
-16.05
-20.34
-23.36
-24.88
-24.73
-22.88
-19.52
-15.21
-10.76
-7.13
-5.03
-4.8
-6.17
-8.42
-10.69
-12.35
-13.22
-13.62
-14.13
-15.22
-16.99
-19.03
-20.75
-21.55
-21.03
-19.05
-15.52
-10.26
-3.16
5.63
15.51
25.36
33.81
39.75
42.56
42.29
39.49
35.02
29.78
24.52
19.78
15.84
12.68
10.06
7.71
5.43
3.29
1.55
0.64
0.8
1.94
3.65
5.26
6.11
5.8
4.33
2.0
-0.76
-3.64
-6.41
-8.8
-10.41
-10.6
-8.9
-5.28
-0.46
4.3
7.73
9.18
9.02
8.48
9.05
11.73
16.46
21.96
26.25
27.24
23.58
15.01
2.3
-12.87
-28.47
-42.39
-52.78
-58.17
-57.7
-51.29
-39.77
-24.7
-8.13
7.87
21.62
31.96
38.4
41.07
40.66
38.33
35.43
33.2
32.36
32.94
34.31
35.58
35.94
34.95
32.63
29.23
25.21
20.98
16.88
13.12
9.72
6.5
3.21
-0.28
-3.84
-6.92
-8.8
-8.84
-6.91
-3.47
0.4
3.54
5.09
4.75
2.83
-0.11
-3.58
-7.3
-11.21
-15.22
-19.05
-22.25
-24.33
-25.04
-24.43
-22.78
-20.41
-17.61
-14.63
-11.66
-8.97
-6.76
-5.06
-3.67
-2.23
-0.3
2.53
6.5
11.68
17.87
24.6
31.14
36.57
39.97
40.68
38.48
33.64
26.85
19.01
11.06
3.82
-2.14
-6.59
-9.74
-12.04
-14.18
-16.74
-19.98
-23.66
-27.23
-29.89
-31.02
-30.28
-27.68
-23.47
-18.0
-11.67
-4.97
1.44
6.77
10.17
11.01
9.13
4.95
-0.71
-6.82
-12.53
-17.26
-20.64
-22.39
-22.33
-20.54
-17.54
-14.26
-11.75
-10.76
-11.32
-12.67
-13.66
-13.37
-11.37
-8.04
-4.19
-0.74
1.58
2.34
1.59
-0.19
-2.08
-3.05
-2.44
-0.28
2.62
5.17
6.61
6.99
7.07
7.77
9.53
11.79
13.38
12.99
9.94
4.42
-2.6
-9.88
-16.24
-20.77
-22.85
-22.09
-18.53
-12.75
-5.86
0.76
5.86
8.74
9.48
8.7
7.21
5.6
4.01
2.23
0.01
-2.7
-5.76
-8.84
-11.68
-14.02
-15.62
-16.23
-15.68
-14.0
-11.51
-8.7
-6.09
-4.1
-2.89
-2.52
-2.87
-3.78
-4.91
-5.78
-5.81
-4.44
-1.51
2.76
7.75
12.72
17.09
20.54
23.0
24.47
24.98
24.47
23.08
21.06
18.89
17.06
15.87
15.27
14.83
13.97
12.27
9.69
6.57
3.44
0.6
-1.99
-4.72
-8.02
-11.97
-16.23
-20.12
-23.05
-24.77
-25.53
-25.84
-26.18
-26.68
-27.17
-27.42
-27.35
-27.23
-27.36
-27.81
-28.12
-27.42
-25.0
-20.81
-15.81
-11.68
-10.05
-11.72
-16.25
-22.2
-27.96
-32.44
-35.44
-37.5
-39.23
-40.87
-42.24
-42.99
-43.23
-43.73
-45.69
-49.99
-56.42
-63.18
-67.3
-65.61
-56.1
-38.84
-16.03
8.79
32.08
51.49
66.3
77.18
85.18
91.07
94.84
95.88
93.53
87.51
78.14
66.23
52.82
39.01
25.82
14.27
5.36
0.02
-1.14
1.96
8.76
18.03
28.07
37.09
43.52
46.42
45.56
41.54
35.56
29.06
23.14
18.27
14.27
10.62
7.03
3.63
1.07
0.04
0.9
3.36
6.5
9.27
10.8
10.78
9.37
7.12
4.56
2.07
-0.15
-1.97
-3.09
-3.0
-1.03
3.28
9.92
18.21
26.89
34.54
39.99
42.69
42.66
40.47
36.91
32.67
28.25
23.91
19.65
15.34
10.97
6.63
2.56
-0.89
-3.53
-5.41
-6.73
-7.74
-8.56
-9.06
-8.9
-7.68
-5.05
-0.97
4.16
9.42
13.49
15.05
13.32
8.57
2.05
-4.33
-8.71
-10.06
-8.38
-4.54
0.02
3.89
5.84
5.05
1.22
-5.24
-12.96
-19.83
-23.76
-23.46
-19.03
-12.05
-4.87
0.36
2.42
1.38
-1.78
-5.82
-9.9
-13.81
-17.88
-22.47
-27.67
-33.09
-38.13
-42.31
-45.77
-49.12
-53.16
-58.24
-63.88
-68.75
-71.41
-70.95
-67.51
-62.12
-55.95
-49.83
-43.87
-37.73
-31.2
-24.54
-18.41
-13.36
-9.45
-5.98
-1.92
3.5
10.31
17.65
24.28
29.09
31.5
31.54
29.49
25.69
20.36
13.89
7.03
0.91
-3.33
-4.97
-4.2
-1.89
0.71
2.63
3.54
3.75
3.81
4.21
5.1
6.33
7.69
9.01
10.16
10.95
11.0
9.81
7.06
2.91
-1.85
-5.92
-7.98
-7.2
-3.57
1.98
7.99
13.01
16.0
16.61
15.05
11.81
7.53
2.89
-1.38
-4.59
-6.25
-6.31
-5.18
-3.47
-1.71
-0.03
1.77
4.0
6.62
9.17
10.86
11.12
9.92
7.79
5.55
3.83
2.84
2.43
2.3
2.24
2.17
1.95
1.2
-0.61
-3.96
-8.78
-14.26
-18.92
-21.06
-19.42
-13.65
-4.5
6.55
17.84
28.04
36.46
42.99
47.73
50.71
51.78
50.79
47.83
43.46
38.59
34.23
31.06
29.13
27.86
26.29
23.57
19.28
13.59
7.0
0.21
-6.12
-11.37
-14.98
-16.39
-15.19
-11.4
-5.56
1.26
7.81
13.11
16.77
19.08
20.62
21.95
23.14
23.82
23.48
21.91
19.38
16.54
14.1
12.29
10.72
8.48
4.7
-0.93
-7.85
-14.76
-20.06
-22.32
-20.77
-15.37
-6.82
3.77
15.19
26.49
37.26
47.71
58.47
70.12
82.5
94.11
102.04
102.55
92.24
69.5
35.5
-5.82
-48.82
-87.77
-118.49
-139.12
-150.0
-152.99
-150.39
-144.32
-136.37
-127.52
-118.09
-107.81
-95.86
-81.29
-63.44
-42.33
-18.89
5.18
27.84
47.03
61.17
69.41
71.86
69.6
64.45
58.42
53.08
49.09
46.03
42.75
37.95
30.76
21.1
9.6
-2.61
-14.29
-24.23
-31.47
-35.3
-35.55
-32.8
-28.47
-24.54
-22.97
-25.12
-31.2
-40.27
-50.48
-59.61
-65.58
-66.92
-63.12
-54.71
-43.27
-31.04
-20.3
-12.72
-8.87
-8.26
-9.73
-12.12
-14.6
-16.92
-19.15
-21.46
-24.04
-27.15
-31.05
-35.91
-41.37
-46.25
-48.6
-46.22
-37.49
-22.19
-1.77
21.09
43.45
63.11
79.17
91.82
101.77
109.6
115.35
118.62
119.07
116.64
111.55
104.13
94.51
82.58
68.25
51.86
34.42
17.34
1.89
-11.42
-23.07
-34.11
-45.42
-57.01
-67.7
-75.66
-79.22
-77.66
-71.52
-62.22
-51.46
-40.56
-30.22
-20.59
-11.43
-2.53
6.04
13.95
20.4
24.24
24.43
20.43
12.61
2.29
-8.52
-17.85
-24.21
-26.85
-25.6
-20.63
-12.21
-0.79
12.81
27.31
41.11
52.74
61.28
66.55
68.81
68.24
64.3
55.85
41.75
21.89
-2.07
-26.81
-48.17
-62.65
-68.67
-66.7
-58.89
-47.85
-35.77
-23.91
-12.73
-2.34
7.25
16.04
24.21
32.18
40.65
50.48
62.19
75.82
90.53
104.5
115.33
120.86
120.16
113.98
104.66
94.97
86.68
79.64
71.86
60.6
43.96
21.81
-3.98
-30.36
-54.21
-73.18
-86.1
-92.83
-94.08
-91.16
-85.84
-80.04
-75.37
-72.74
-72.12
-72.7
-73.28
-72.77
-70.55
-66.45
-60.6
-53.1
-43.98
-33.27
-20.99
-7.6
5.99
18.38
28.05
33.76
35.05
32.37
27.07
20.72
14.61
9.17
3.95
-1.94
-9.33
-18.37
-28.33
-37.88
-45.44
-49.73
-50.06
-46.73
-41.06
-35.43
-32.84
-36.01
-46.16
-61.86
-78.93
-91.47
-94.02
-83.8
-62.08
-33.7
-5.19
17.7
31.92
37.75
37.9
36.09
35.47
37.74
43.09
50.64
58.77
65.62
69.05
67.1
58.66
44.12
25.9
7.97
-5.17
-10.12
-5.83
5.87
20.78
33.52
39.07
34.15
18.07
-7.04
-36.7
-65.13
-86.98
-98.76
-99.79
-91.94
-78.6
-63.03
-47.37
-32.25
-17.35
-2.19
13.3
28.74
43.59
57.56
70.91
84.27
98.45
113.81
130.12
146.4
161.24
173.12
180.77
183.27
179.85
169.99
153.66
131.91
107.07
82.31
60.61
43.48
30.31
18.82
6.43
-8.39
-25.56
-43.73
-61.37
-77.45
-91.44
-102.84
-110.61
-113.41
-110.18
-101.14
-87.95
-73.29
-59.86
-49.43
-42.41
-37.99
-34.78
-31.52
-27.59
-23.13
-18.8
-15.34
-13.0
-11.47
-9.97
-7.81
-4.77
-1.29
1.65
3.09
2.49
-0.03
-3.78
-7.85
-11.35
-13.75
-15.04
-15.74
-16.73
-18.86
-22.52
-27.52
-33.03
-37.96
-41.24
-42.09
-40.14
-35.44
-28.47
-19.98
-10.95
-2.25
5.53
12.12
17.69
22.47
26.63
30.07
32.49
33.49
32.72
29.9
24.96
18.05
9.76
1.16
-6.16
-10.2
-8.76
0.18
17.74
43.66
75.88
110.66
143.35
169.48
186.01
192.04
188.9
179.51
167.43
155.92
147.12
141.72
138.83
136.07
130.17
117.55
95.51
63.24
22.57
-22.16
-65.04
-100.34
-124.06
-134.99
-134.69
-126.45
-114.09
-100.95
-89.46
-81.31
-77.68
-79.31
-86.13
-97.08
-110.01
-122.39
-132.28
-139.2
-144.33
-149.91
-158.08
-169.64
-183.69
-198.0
-210.18
-218.76
-223.71
-226.01
-226.63
-225.72
-222.15
-214.13
-200.04
-179.38
-152.91
-122.27
-89.09
-54.21
-17.46
21.96
64.61
110.08
156.5
200.63
238.36
265.38
278.12
274.55
254.76
221.29
178.62
132.35
88.12
50.42
22.01
3.82
-4.69
-4.99
0.96
10.92
22.4
32.9
40.24
43.15
41.83
38.16
35.13
35.77
41.91
53.24
67.19
80.05
88.44
90.57
86.83
79.2
70.24
62.06
55.75
51.57
49.19
48.18
47.88
47.43
45.66
41.34
33.78
23.33
11.71
1.7
-3.53
-1.62
8.16
24.42
43.84
62.13
75.19
80.38
77.21
67.13
52.57
35.79
17.79
-1.89
-24.3
-49.95
-77.72
-104.76
-127.36
-142.31
-147.99
-144.64
-133.93
-118.1
-99.36
-79.69
-60.85
-44.47
-31.74
-22.91
-17.11
-12.63
-7.74
-1.77
4.51
9.03
9.34
3.92
-7.01
-21.46
-36.37
-48.71
-56.57
-59.5
-58.24
-54.0
-47.73
-39.93
-30.84
-20.96
-11.34
-3.49
1.1
1.49
-2.5
-10.25
-20.87
-33.33
-46.47
-58.77
-68.51
-73.87
-73.66
-67.84
-57.69
-45.37
-33.27
-23.27
-16.22
-12.06
-10.0
-9.01
-8.17
-6.91
-5.15
-3.3
-2.16
-2.75
-5.95
-12.03
-20.27
-28.97
-35.82
-38.69
-36.53
-29.71
-19.94
-9.38
0.21
8.15
14.87
21.27
27.97
34.98
41.77
47.77
52.67
56.54
59.39
60.72
59.57
54.89
46.24
34.37
21.08
8.62
-1.2
-7.62
-10.88
-11.79
-11.13
-9.36
-6.71
-3.53
-0.52
1.41
1.43
-0.67
-4.35
-8.5
-11.92
-13.89
-14.28
-13.63
-12.63
-11.89
-11.61
-11.62
-11.58
-11.32
-10.92
-10.75
-11.26
-12.72
-15.08
-18.08
-21.38
-24.73
-27.93
-30.88
-33.31
-34.87
-35.33
-34.71
-33.37
-31.84
-30.51
-29.3
-27.74
-25.19
-21.38
-16.67
-12.02
-8.5
-6.57
-5.84
-5.25
-3.65
-0.44
4.09
8.98
13.14
15.89
17.11
17.24
16.9
16.63
16.62
16.69
16.56
16.04
15.23
14.48
14.14
14.17
14.07
12.97
10.18
5.82
0.97
-2.63
-3.37
-0.61
4.97
11.67
17.52
21.12
21.97
20.34
16.93
12.34
7.12
1.72
-3.3
-7.27
-9.6
-9.97
-8.41
-5.28
-1.18
3.19
6.91
9.06
8.8
5.76
0.25
-6.73
-13.54
-18.58
-20.59
-19.17
-14.85
-8.82
-2.61
2.43
5.47
6.33
5.44
3.63
1.77
0.55
0.51
1.75
4.11
7.06
9.76
11.2
10.63
7.79
3.2
-2.09
-7.1
-11.19
-14.51
-17.64
-21.18
-25.24
-29.18
-31.86
-32.04
-29.07
-23.08
-14.96
-5.86
3.22
11.73
19.48
26.49
32.62
37.56
41.0
42.85
43.43
43.45
43.72
44.76
46.63
48.96
51.12
52.48
52.63
51.41
48.93
45.61
41.92
38.38
35.32
32.86
30.9
29.38
28.47
28.59
30.2
33.27
37.03
40.12
41.13
39.4
35.4
30.58
26.58
24.38
23.82
23.83
23.08
20.75
16.89
12.24
7.72
3.92
0.96
-1.37
-3.27
-4.72
-5.61
-5.86
-5.74
-5.76
-6.49
-8.18
-10.62
-13.07
-14.65
-14.69
-12.99
-9.91
-6.09
-2.22
1.2
3.89
5.81
6.97
7.42
7.24
6.51
5.33
3.81
2.06
0.18
-1.67
-3.31
-4.55
-5.27
-5.55
-5.69
-6.17
-7.4
-9.58
-12.51
-15.67
-18.34
-19.9
-20.02
-18.71
-16.2
-12.78
-8.68
-4.15
0.52
4.95
8.68
11.37
12.88
13.33
12.97
12.05
10.78
9.32
7.92
6.89
6.6
7.23
8.68
10.48
11.88
12.14
10.78
7.85
3.89
-0.2
-3.5
-5.48
-6.08
-5.73
-4.99
-4.24
-3.56
-2.75
-1.61
-0.24
0.94
1.4
0.73
-1.01
-3.43
-5.91
-7.99
-9.55
-10.8
-12.13
-13.89
-16.19
-18.89
-21.71
-24.29
-26.3
-27.45
-27.58
-26.62
-24.7
-22.08
-19.17
-16.33
-13.86
-11.84
-10.18
-8.71
-7.3
-5.9
-4.62
-3.62
-3.02
-2.87
-3.09
-3.45
-3.67
-3.49
-2.77
-1.65
-0.47
0.32
0.39
-0.3
-1.43
-2.43
-2.85
-2.56
-1.87
-1.29
-1.13
-1.16
-0.66
1.21
4.78
9.64
14.76
18.97
21.61
22.64
22.49
21.59
20.12
18.17
16.16
15.03
15.98
19.84
26.47
34.5
41.86
46.66
47.9
45.68
40.84
34.3
26.67
18.08
8.41
-2.21
-13.19
-23.42
-31.52
-36.27
-37.02
-34.02
-28.42
-21.97
-16.5
-13.36
-13.09
-15.48
-19.73
-24.81
-29.73
-33.61
-35.87
-36.22
-34.83
-32.33
-29.63
-27.71
-27.25
-28.43
-30.88
-33.9
-36.7
-38.69
-39.61
-39.45
-38.41
-36.77
-34.77
-32.63
-30.47
-28.28
-25.86
-22.85
-18.87
-13.72
-7.5
-0.59
6.45
13.12
19.18
24.61
29.55
34.16
38.46
42.37
45.79
48.59
50.64
51.87
52.19
51.57
50.1
48.07
45.95
44.16
42.95
42.28
41.86
41.26
40.13
38.38
36.19
33.94
32.02
30.65
29.84
29.37
28.86
27.92
26.15
23.28
19.21
14.04
8.07
1.76
-4.4
-9.98
-14.69
-18.3
-20.78
-22.11
-22.42
-22.05
-21.43
-20.97
-20.69
-20.15
-18.67
-15.81
-11.79
-7.57
-4.39
-3.17
-3.89
-5.64
-7.09
-7.23
-5.84
-3.4
-0.77
1.4
2.94
3.99
4.73
5.22
5.33
4.9
3.91
2.51
0.91
-0.62
-1.95
-2.99
-3.83
-4.63
-5.57
-6.88
-8.72
-11.15
-14.07
-17.17
-19.98
-21.91
-22.44
-21.3
-18.61
-14.93
-11.01
-7.64
-5.26
-3.88
-3.19
-2.67
-1.84
-0.35
1.98
5.17
8.94
12.64
15.37
16.07
13.96
8.89
1.39
-7.35
-15.9
-23.1
-28.28
-31.43
-33.08
-33.92
-34.53
-35.12
-35.45
-34.97
-33.09
-29.38
-23.83
-16.9
-9.35
-2.1
4.0
8.24
10.26
10.03
7.97
4.87
1.85
0.07
0.46
3.52
9.12
16.63
24.93
32.84
39.3
43.66
45.82
46.08
45.01
43.13
40.82
38.17
35.15
31.77
28.18
24.72
21.8
19.65
18.21
17.12
15.88
14.15
11.88
9.42
7.21
5.5
4.15
2.63
0.4
-2.73
-6.43
-9.91
-12.42
-13.65
-13.9
-13.9
-14.35
-15.53
-17.18
-18.73
-19.64
-19.84
-19.67
-19.68
-20.2
-21.11
-21.76
-21.33
-19.23
-15.46
-10.6
-5.56
-1.07
2.6
5.58
8.14
10.3
11.67
11.63
9.67
5.8
0.57
-5.14
-10.56
-15.28
-19.37
-23.12
-26.75
-30.16
-32.98
-34.84
-35.6
-35.53
-35.22
-35.31
-36.15
-37.53
-38.69
-38.63
-36.42
-31.72
-24.9
-16.99
-9.33
-3.07
1.11
3.22
3.81
3.59
3.25
3.14
3.31
3.65
4.03
4.42
4.83
5.19
5.24
4.51
2.58
-0.51
-4.08
-6.84
-7.49
-5.46
-1.35
3.15
6.06
5.98
2.88
-1.98
-6.77
-9.99
-11.12
-10.64
-9.53
-8.62
-8.24
-8.14
-7.79
-6.75
-4.81
-2.04
1.29
4.91
8.69
12.67
16.8
20.88
24.44
26.95
28.1
27.99
27.15
26.17
25.28
24.2
22.29
19.09
14.71
9.83
5.39
1.98
-0.42
-2.33
-4.41
-6.89
-9.49
-11.63
-12.83
-13.01
-12.48
-11.87
-11.72
-12.36
-13.75
-15.62
-17.5
-18.87
-19.36
-18.83
-17.39
-15.43
-13.43
-11.77
-10.78
-10.45
-10.59
-10.86
-10.82
-10.04
-8.21
-5.27
-1.51
2.43
5.74
7.69
7.94
6.67
4.57
2.48
1.04
0.53
0.6
0.71
0.42
-0.37
-1.35
-2.01
-1.93
-1.03
0.47
1.99
2.83
2.31
0.0
-3.96
-8.84
-13.35
-16.11
-16.23
-13.85
-10.11
-6.82
-5.61
-7.31
-11.61
-17.48
-23.64
-29.19
-33.7
-37.41
-40.89
-45.02
-50.4
-57.05
-63.97
-69.08
-69.66
-63.2
-48.45
-26.09
1.26
29.94
56.32
77.92
93.81
104.44
110.89
114.28
115.25
113.99
110.39
104.34
95.99
85.67
73.87
61.04
47.56
33.75
20.05
7.1
-4.19
-12.98
-18.56
-20.73
-19.91
-17.04
-13.34
-9.95
-7.77
-7.31
-8.62
-11.32
-14.63
-17.63
-19.59
-20.33
-20.29
-20.25
-20.84
-21.92
-22.57
-21.51
-17.82
-11.67
-4.37
2.12
6.13
6.87
4.76
0.95
-3.3
-7.06
-9.89
-11.76
-12.81
-13.24
-13.25
-13.06
-12.78
-12.31
-11.37
-9.64
-6.92
-3.39
0.53
4.38
7.93
11.32
14.91
18.95
23.33
27.58
31.06
33.26
34.1
33.79
32.77
31.43
30.09
28.78
27.48
26.16
24.78
23.48
22.46
21.79
21.29
20.5
18.75
15.56
10.85
5.12
-0.78
-6.1
-10.27
-13.25
-15.18
-16.27
-16.68
-16.52
-15.89
-14.89
-13.58
-11.93
-9.8
-7.16
-4.12
-0.99
1.8
3.84
4.97
5.0
3.87
1.57
-1.76
-5.51
-8.64
-10.04
-9.03
-5.82
-1.47
2.69
5.7
7.46
8.67
10.17
12.41
15.05
17.22
18.27
18.39
18.72
20.94
26.49
35.93
48.48
62.34
74.95
83.49
85.46
79.21
64.39
42.37
16.02
-10.6
-33.33
-48.82
-55.53
-54.06
-46.8
-37.05
-27.93
-21.72
-19.59
-21.74
-27.72
-36.49
-46.58
-56.13
-63.29
-66.8
-66.55
-63.53
-59.27
-55.18
-51.75
-48.43
-44.21
-38.19
-30.1
-20.5
-10.57
-1.62
5.24
9.4
10.98
10.73
9.72
8.95
8.92
9.44
9.75
8.96
6.5
2.39
-2.99
-9.06
-15.32
-21.34
-26.64
-30.53
-32.22
-30.99
-26.61
-19.53
-10.78
-1.73
6.41
12.93
17.77
21.21
23.62
25.11
25.44
24.24
21.31
16.99
12.17
7.94
5.09
3.79
3.63
3.8
3.6
2.7
1.15
-0.85
-3.13
-5.65
-8.35
-10.9
-12.57
-12.34
-9.31
-3.09
5.9
16.47
26.94
35.83
42.27
46.39
49.2
52.01
55.82
60.6
65.27
67.91
66.51
59.68
47.23
30.26
10.64
-9.52
-28.45
-44.89
-58.06
-67.46
-72.81
-74.21
-72.27
-68.1
-63.08
-58.52
-55.22
-53.3
-52.28
-51.47
-50.37
-48.87
-47.24
-45.7
-44.26
-42.45
-39.74
-35.84
-30.96
-26.07
-22.44
-21.18
-22.74
-26.86
-32.63
-38.93
-44.78
-49.53
-52.83
-54.25
-53.28
-49.23
-41.51
-29.98
-15.19
1.58
18.76
34.85
48.82
60.08
68.37
73.45
75.2
73.76
69.81
64.6
59.49
55.6
53.4
52.72
53.1
54.05
55.25
56.43
57.26
57.33
56.28
54.04
50.93
47.49
44.21
41.27
38.48
35.41
31.71
27.3
22.45
17.64
13.35
9.83
6.98
4.49
2.01
-0.7
-3.6
-6.46
-8.96
-10.86
-12.07
-12.56
-12.28
-11.14
-9.11
-6.49
-3.97
-2.5
-2.93
-5.68
-10.49
-16.68
-23.36
-29.84
-35.74
-40.88
-45.11
-48.15
-49.67
-49.28
-46.81
-42.32
-36.18
-29.07
-21.97
-15.74
-10.84
-7.12
-4.03
-0.94
2.36
5.32
6.93
6.31
3.13
-2.11
-8.31
-14.27
-19.23
-22.98
-25.74
-27.82
-29.29
-29.94
-29.35
-27.08
-23.01
-17.44
-11.12
-4.89
0.78
6.21
12.42
20.53
31.2
43.95
57.17
68.74
76.89
80.87
81.01
78.32
73.77
67.93
60.84
52.45
42.97
32.92
22.98
13.64
4.91
-3.58
-12.16
-20.85
-29.19
-36.45
-41.92
-45.32
-46.75
-46.59
-45.33
-43.23
-40.33
-36.56
-31.72
-25.68
-18.53
-10.73
-3.16
3.12
7.32
9.35
9.95
10.4
11.76
14.34
17.56
20.35
21.86
21.95
21.19
20.38
20.06
20.07
19.9
19.14
17.87
16.66
16.15
16.57
17.38
17.63
16.34
13.16
8.69
4.16
0.98
0.04
1.46
4.7
8.91
13.39
17.76
21.81
25.31
27.81
28.77
27.81
24.93
20.54
15.24
9.57
3.87
-1.67
-6.83
-11.27
-14.59
-16.57
-17.33
-17.31
-17.11
-17.21
-17.82
-18.88
-20.12
-21.26
-21.96
-22.03
-21.17
-19.35
-16.72
-13.73
-11.14
-9.57
-9.46
-10.63
-12.43
-13.95
-14.53
-14.0
-12.68
-11.28
-10.39
-10.23
-10.58
-11.08
-11.48
-11.84
-12.45
-13.52
-15.08
-16.89
-18.83
-20.85
-23.06
-25.5
-27.81
-29.33
-29.3
-27.37
-23.79
-19.29
-14.6
-9.97
-5.17
0.24
6.24
12.08
16.48
18.2
16.58
12.0
5.89
-0.0
-4.09
-5.69
-5.16
-3.58
-2.36
-2.57
-4.67
-8.3
-12.4
-15.58
-16.67
-15.07
-10.98
-5.23
1.13
7.22
12.59
17.12
20.94
23.92
25.83
26.36
25.29
22.94
19.93
16.98
14.53
12.57
10.72
8.6
6.13
3.57
1.48
0.29
-0.03
-0.13
-1.05
-3.89
-9.3
-17.12
-26.58
-36.53
-45.93
-54.01
-60.23
-64.14
-65.19
-62.85
-56.95
-48.06
-37.43
-26.96
-18.48
-13.15
-11.22
-11.93
-13.89
-15.47
-15.31
-12.69
-7.57
-0.79
6.31
12.33
16.2
17.66
17.17
15.77
14.6
14.4
15.08
15.96
16.11
14.95
12.66
10.16
8.66
9.0
11.19
14.38
17.39
19.32
20.08
20.26
20.65
21.66
23.04
23.98
23.7
21.82
18.68
14.99
11.69
9.38
8.18
7.76
7.57
7.09
6.1
4.64
3.01
1.47
0.1
-1.13
-2.23
-2.9
-2.61
-0.72
3.07
8.58
15.12
21.82
27.9
32.9
36.56
38.55
38.46
35.85
30.63
23.41
15.4
8.15
2.96
0.59
1.07
3.91
8.33
13.45
18.4
22.35
24.56
24.45
21.91
17.38
11.81
6.38
2.0
-0.99
-3.01
-4.91
-7.69
-11.92
-17.6
-24.25
-31.17
-37.79
-43.8
-49.14
-53.91
-58.42
-63.16
-68.91
-76.48
-86.31
-98.08
-110.65
-122.3
-131.51
-137.6
-141.02
-142.97
-144.46
-145.37
-144.05
-137.77
-123.71
-100.1
-66.72
-24.93
22.79
73.18
122.59
167.06
202.53
225.59
234.21
228.53
210.93
185.33
156.06
126.49
98.36
71.75
45.76
19.49
-7.21
-33.5
-57.88
-78.62
-94.14
-103.01
-103.89
-95.47
-77.08
-49.35
-14.74
22.61
57.97
87.34
108.7
122.11
129.2
