2013-06-20 11:57:44
64.0
-0.0
-0.0
-0.0
-0.0
-0.0
-0.0
-0.0
-0.0
-0.0
-0.0
0.0
0.01
0.01
-0.0
-0.03
-0.05
-0.05
0.0
0.13
0.36
0.66
1.01
1.37
1.72
2.06
2.4
2.79
3.24
3.8
4.42
5.06
5.66
6.2
6.68
7.15
7.68
8.31
9.14
10.09
11.04
11.88
12.56
13.14
13.76
14.65
15.96
17.91
20.32
22.9
25.38
27.58
29.57
31.68
34.32
37.81
42.54
48.15
54.1
59.83
64.97
69.58
74.14
79.34
85.71
93.76
103.0
112.62
121.73
129.77
136.75
143.3
150.75
157.77
166.64
177.95
191.79
206.97
220.57
228.25
225.36
208.53
176.87
132.76
80.05
23.07
-34.94
-92.44
-149.16
-205.23
-260.37
-313.74
-363.87
-409.83
-450.91
-486.5
-515.74
-537.23
-549.22
-549.96
-538.37
-514.21
-478.67
-433.88
-382.45
-327.02
-269.84
-212.63
-156.66
-102.95
-52.37
-5.9
35.58
71.43
101.35
125.5
144.38
158.69
169.15
176.37
180.75
182.57
182.07
179.51
175.23
169.65
163.18
156.15
148.81
141.3
133.69
126.02
118.33
110.69
103.16
95.8
88.68
81.83
75.25
68.95
62.95
57.25
51.86
46.78
42.03
37.59
33.45
29.61
26.07
22.81
19.83
17.11
14.67
12.48
10.54
8.83
7.35
6.07
4.97
4.05
3.27
2.64
2.12
1.7
1.37
1.11
0.93
0.79
0.7
0.64
0.61
0.6
0.61
0.63
0.66
0.69
0.73
0.78
0.83
0.88
0.95
1.02
1.09
1.18
1.28
1.4
1.53
1.67
1.84
2.03
2.23
2.47
2.73
3.01
3.33
3.68
4.07
4.49
4.94
5.44
5.98
6.55
7.18
7.84
8.55
9.31
10.11
10.97
11.87
12.82
13.82
14.87
15.97
17.15
18.38
19.69
21.07
22.5
23.96
25.37
26.65
27.67
28.26
28.27
27.54
25.93
23.35
19.8
15.29
10.02
4.19
-1.91
-7.94
-13.57
-18.47
-22.37
-25.08
-26.53
-26.69
-25.71
-23.78
-21.13
-18.02
-14.7
-11.36
-8.17
-5.22
-2.53
-0.17
1.86
3.58
5.05
6.38
7.65
8.99
10.5
12.3
14.28
16.37
18.56
20.83
23.2
25.76
28.61
31.86
35.65
39.73
43.93
48.13
52.3
56.5
60.86
65.57
70.79
76.65
82.65
88.38
93.55
98.03
101.92
105.51
109.14
113.1
117.52
121.59
124.51
125.6
124.42
120.77
114.59
105.56
92.46
78.1
62.73
46.07
27.77
7.82
-13.22
-34.49
-54.99
-74.03
-91.35
-107.91
-124.67
-142.66
-162.72
-185.48
-210.88
-237.73
-263.37
-283.78
-295.17
-294.69
-281.7
-258.21
-228.22
-196.31
-166.26
-140.38
-119.34
-103.16
-91.22
-82.36
-74.8
-66.1
-53.4
-34.18
-7.08
27.45
66.52
105.23
137.5
157.35
160.37
145.01
113.02
68.97
18.93
-31.31
-77.31
-116.36
-146.87
-167.57
-177.14
-174.65
-160.43
-136.84
-108.16
-79.6
-55.92
-40.43
-34.61
-38.46
-51.03
-70.55
-94.42
-119.14
-140.59
-154.98
-159.86
-154.8
-141.28
-121.98
-99.6
-75.98
-51.67
-26.08
1.81
32.6
65.72
99.33
130.85
158.01
179.77
196.58
209.78
220.52
228.84
233.56
233.04
226.21
213.47
196.77
178.94
162.82
150.66
143.47
140.72
139.96
136.7
124.77
97.81
51.57
-13.56
-91.23
-169.9
-235.96
-277.83
-289.31
-270.86
-228.32
-170.34
-105.79
-42.32
13.91
58.08
86.96
99.57
97.79
86.18
70.61
56.28
46.04
39.97
36.16
32.16
26.24
18.14
8.92
0.38
-5.65
-8.01
-6.6
-2.41
2.85
7.29
9.43
8.48
4.49
-1.86
-9.38
-16.62
-21.99
-23.98
-21.62
-14.72
-4.11
8.66
21.71
33.51
43.18
50.52
55.79
59.27
61.14
61.43
60.16
57.61
54.35
51.25
49.12
48.56
49.63
51.9
54.66
57.16
58.9
59.76
59.89
59.55
58.98
58.29
57.57
56.92
56.56
56.87
58.4
61.75
67.49
76.06
87.63
102.07
119.0
137.86
158.07
178.96
199.62
218.63
233.93
243.0
243.44
233.7
213.59
184.38
148.09
106.67
61.23
12.3
-39.42
-92.08
-142.27
-185.7
-218.58
-239.08
-248.04
-248.47
-244.22
-238.61
-233.56
-229.56
-226.22
-222.86
-218.85
-213.61
-206.48
-196.83
-184.23
-168.71
-150.81
-131.38
-111.37
-91.51
-72.29
-54.09
-37.45
-22.95
-11.08
-1.88
5.1
10.54
14.88
17.87
18.66
16.13
9.55
-1.09
-15.12
-31.64
-50.13
-70.86
-94.49
-121.16
-149.42
-175.58
-194.28
-200.2
-190.2
-165.04
-129.37
-89.99
-53.18
-22.62
0.94
18.42
30.88
38.85
43.15
45.79
50.09
59.07
73.52
90.92
106.41
115.24
115.28
107.69
95.81
82.9
70.59
58.82
47.11
35.66
25.67
18.45
14.3
12.12
9.89
5.74
-1.01
-9.6
-18.13
-24.35
-26.43
-23.7
-16.72
-7.05
3.44
13.2
21.49
28.27
33.89
38.52
42.04
44.08
44.42
43.2
41.06
38.86
37.42
37.35
38.99
42.38
47.31
53.11
58.56
61.95
61.55
56.25
46.05
32.35
17.53
4.12
-5.74
-10.74
-10.28
-4.4
6.21
19.99
34.3
45.81
51.4
49.48
40.8
28.29
15.79
6.26
0.65
-2.18
-4.34
-7.52
-12.31
-18.28
-24.7
-31.28
-38.12
-45.22
-51.82
-56.25
-56.35
-50.6
-39.16
-24.25
-9.62
0.74
4.39
1.53
-4.92
-10.51
-11.32
-5.83
4.56
16.39
26.21
32.44
36.09
39.69
45.53
54.07
63.79
72.21
77.72
80.62
82.86
86.82
93.88
103.53
113.74
121.81
125.59
123.92
116.76
104.69
88.42
68.55
45.69
20.5
-6.1
-32.95
-58.9
-83.13
-105.42
-126.05
-145.13
-161.93
-174.49
-179.97
-175.76
-160.92
-137.03
-108.18
-79.78
-56.99
-43.15
-38.91
-42.34
-49.67
-56.69
-59.99
-57.84
-50.49
-39.66
-27.87
-17.55
-10.57
-7.9
-9.35
-13.42
-17.55
-18.72
-14.62
-4.84
8.66
22.0
30.94
32.72
27.3
17.3
6.81
-0.31
-2.04
1.36
7.76
14.45
19.34
21.79
22.43
22.35
22.19
21.75
20.8
19.91
20.53
23.91
29.38
33.67
32.26
22.4
5.63
-11.97
-22.6
-21.0
-7.67
11.27
27.25
33.75
29.16
16.63
1.21
-13.28
-25.81
-37.1
-47.37
-54.68
-55.34
-46.19
-27.22
-2.5
21.21
37.62
43.95
41.93
36.43
32.43
32.36
35.65
40.22
44.67
49.49
56.48
66.75
79.21
90.36
95.9
92.89
81.23
63.59
44.03
26.23
12.14
1.66
-6.64
-14.4
-22.42
-30.37
-37.13
-41.55
-43.08
-41.97
-38.86
-34.41
-28.84
-22.16
-14.6
-6.94
-0.51
3.3
3.76
1.22
-3.1
-7.69
-11.48
-14.26
-16.53
-18.83
-21.16
-22.75
-22.34
-18.92
-12.37
-3.38
7.02
18.29
30.63
44.54
59.96
75.67
89.55
99.69
105.45
107.86
108.8
109.57
109.93
108.18
102.44
91.8
76.82
58.88
39.09
17.59
-6.08
-32.02
-58.87
-83.72
-103.08
-114.24
-116.41
-110.98
-100.66
-88.21
-75.6
-63.65
-52.51
-42.2
-33.09
-25.93
-21.86
-22.2
-28.25
-41.04
-60.76
-86.16
-114.04
-139.44
-156.69
-161.04
-150.41
-126.27
-93.21
-57.39
-24.41
2.35
22.33
37.32
50.36
64.54
82.13
103.94
129.04
154.74
177.03
191.29
193.47
181.09
153.94
114.22
66.13
15.08
-33.44
-75.09
-107.47
-130.57
-146.2
-156.81
-164.04
-167.89
-166.96
-159.57
-145.3
-125.65
-103.54
-81.94
-62.61
-45.7
-30.59
-16.97
-5.58
2.06
4.72
2.41
-3.52
-11.0
-18.19
-24.11
-28.63
-31.86
-33.51
-32.85
-29.07
-22.09
-12.98
-3.69
3.62
7.63
8.24
6.46
3.58
0.48
-2.72
-6.43
-10.99
-16.31
-21.72
-26.15
-28.44
-27.59
-22.9
-14.12
-1.66
13.15
28.14
40.9
49.58
53.61
53.78
51.7
48.73
45.31
40.97
35.04
27.6
19.83
13.63
10.63
11.16
14.07
17.3
19.21
19.49
19.33
20.45
23.8
28.81
33.59
36.05
35.13
31.22
25.79
20.35
15.79
12.24
9.72
8.77
10.49
16.05
25.76
38.49
51.92
63.28
70.41
72.44
69.89
64.23
57.14
49.9
43.13
36.91
31.11
25.69
20.8
16.51
12.6
8.62
4.04
-1.36
-7.27
-12.8
-16.76
-18.21
-16.98
-13.91
-10.65
-9.05
-10.4
-14.89
-21.52
-28.57
-34.17
-36.94
-36.21
-31.9
-24.3
-13.84
-1.12
12.85
26.55
38.14
45.93
48.97
47.41
42.35
35.48
28.49
22.67
18.62
16.33
15.34
14.94
14.45
13.3
11.21
8.18
4.56
0.94
-1.92
-3.42
-3.32
-2.03
-0.56
-0.28
-2.37
-7.33
-14.59
-22.55
-28.97
-31.6
-29.01
-21.14
-9.42
3.64
15.32
23.66
28.09
29.42
29.24
29.0
29.3
29.77
29.75
29.01
28.16
28.15
29.57
31.99
34.06
34.38
32.49
29.19
26.09
24.6
24.93
25.83
25.19
21.1
12.84
1.22
-11.9
-24.35
-34.48
-41.45
-45.11
-45.64
-43.2
-38.0
-30.28
-20.65
-10.03
0.5
10.04
18.04
24.44
29.43
33.21
35.79
36.93
36.31
33.62
28.65
21.35
11.78
0.29
-12.43
-25.27
-36.89
-46.07
-52.21
-55.56
-57.33
-59.23
-62.75
-68.53
-75.89
-83.08
-87.96
-88.77
-84.83
-76.58
-65.17
-51.87
-37.77
-23.77
-10.75
0.36
8.69
13.73
15.6
15.11
13.5
12.03
11.51
12.11
13.44
14.9
16.21
17.51
19.38
22.3
26.27
30.62
34.18
35.8
34.88
31.55
26.51
20.69
14.94
10.02
6.68
5.73
7.76
12.78
19.92
27.54
33.67
36.81
36.38
32.91
27.74
22.35
17.76
14.25
11.33
8.19
4.16
-0.91
-6.69
-12.65
-18.47
-24.12
-29.74
-35.29
-40.49
-45.07
-49.2
-53.71
-59.72
-67.9
-77.63
-86.79
-92.58
-92.6
-86.07
-73.98
-58.62
-42.46
-27.28
-13.82
-2.02
8.56
18.27
27.23
35.28
42.0
46.9
49.57
49.99
48.75
46.81
45.21
44.57
44.87
45.57
45.93
45.36
43.45
39.97
34.66
27.27
17.69
6.2
-6.51
-19.43
-31.4
-41.4
-48.58
-52.33
-52.22
-48.17
-40.72
-31.21
-21.7
-14.44
-11.3
-13.03
-19.19
-28.32
-38.6
-48.41
-56.66
-62.73
-66.26
-66.96
-64.59
-59.24
-51.45
-42.22
-32.69
-23.78
-15.86
-8.71
-1.96
4.54
10.14
13.31
12.04
4.8
-8.41
-25.58
-42.97
-56.35
-62.47
-60.39
-51.84
-40.63
-31.06
-26.18
-26.45
-29.64
-31.92
-29.76
-21.62
-8.67
5.93
18.61
27.05
30.96
31.6
30.73
29.52
28.14
26.26
23.74
21.0
18.77
17.55
17.06
16.1
12.89
5.8
-5.95
-21.67
-39.08
-54.84
-65.52
-68.72
-64.06
-53.24
-39.36
-25.74
-14.73
-7.18
-2.69
-0.17
1.36
2.51
3.59
4.72
6.12
7.97
10.45
13.48
16.75
19.69
21.75
22.59
22.27
21.28
20.41
20.54
22.38
26.32
32.41
40.44
50.0
60.46
70.94
80.36
87.72
92.53
95.03
96.12
96.86
97.94
99.46
101.1
102.63
104.28
106.75
110.64
115.74
120.43
121.54
115.19
98.21
69.82
32.64
-7.46
-43.01
-67.55
-78.0
-75.98
-67.19
-59.24
-58.77
-69.11
-89.24
-114.22
-136.85
-150.08
-149.26
-133.8
-107.51
-77.49
-51.65
-36.05
-32.92
-40.18
-52.55
-63.51
-67.33
-60.53
-42.7
-16.32
13.85
42.03
63.06
73.81
74.08
66.34
54.73
43.52
35.93
33.41
35.61
40.63
45.66
47.77
44.73
35.87
22.43
7.35
-5.68
-13.35
-13.85
-7.31
4.26
17.71
29.68
37.45
39.61
36.28
28.9
19.71
11.03
4.61
1.21
0.55
1.68
3.39
4.78
5.6
6.13
7.01
8.7
11.2
13.85
15.66
15.66
13.43
9.23
3.9
-1.45
-5.96
-9.26
-11.59
-13.54
-15.75
-18.6
-22.07
-25.88
-29.67
-33.25
-36.62
-39.99
-43.6
-47.65
-52.24
-57.31
-62.67
-67.78
-71.72
-73.25
-71.1
-64.37
-52.93
-37.62
-20.04
-2.1
14.48
28.57
39.68
47.8
53.1
55.83
56.27
54.86
52.29
49.38
46.86
45.1
43.96
42.9
41.25
38.61
35.01
30.98
27.28
24.56
23.04
22.46
22.17
21.36
19.25
15.29
9.26
1.37
-7.63
-16.49
-23.56
-27.2
-26.3
-20.63
-11.04
0.77
12.77
23.25
31.22
36.45
39.19
39.79
38.45
35.16
29.98
23.3
15.94
8.94
3.33
-0.2
-1.48
-0.77
1.34
4.14
6.99
9.42
11.36
13.16
15.46
18.85
23.46
28.66
33.06
35.01
33.14
27.0
17.14
5.06
-7.16
-17.12
-22.47
-21.2
-12.22
4.06
25.3
47.45
65.74
76.3
77.56
70.89
59.83
48.56
40.03
35.14
32.9
31.6
30.0
27.82
25.39
22.8
19.32
13.64
4.81
-6.86
-19.59
-30.86
-38.67
-42.54
-43.64
-44.03
-45.43
-48.05
-50.3
-49.34
-42.34
-27.83
-6.61
18.39
42.98
63.27
76.95
83.85
85.54
84.22
81.58
78.19
73.75
67.76
60.21
51.73
43.28
35.52
28.45
21.47
13.79
5.0
-4.71
-14.61
-23.86
-31.93
-38.91
-45.45
-52.27
-59.53
-66.52
-71.66
-73.15
-69.63
-60.89
-47.83
-32.09
-15.47
0.59
15.15
27.52
37.15
43.6
46.84
47.47
46.68
45.83
45.85
46.84
48.02
48.39
47.36
45.16
42.7
41.02
40.59
41.05
41.5
41.14
39.77
37.83
35.98
34.59
33.43
31.79
29.02
24.97
20.19
15.7
12.56
11.45
12.52
15.39
19.23
22.98
25.58
26.22
24.64
21.17
16.49
11.29
5.98
0.53
-5.27
-11.59
-18.28
-24.87
-30.76
-35.43
-38.63
-40.39
-40.98
-40.88
-40.7
-41.05
-42.28
-44.19
-45.97
-46.46
-44.79
-40.83
-35.4
-29.92
-25.82
-23.97
-24.67
-27.84
-33.21
-40.14
-47.34
-52.94
-55.16
-53.42
-49.12
-45.36
-45.46
-51.1
-61.34
-73.24
-83.76
-91.55
-97.66
-104.6
-114.51
-127.64
-141.9
-153.7
-159.34
-156.41
-144.43
-125.1
-101.84
-79.01
-60.6
-48.97
-44.09
-43.58
-43.91
-41.85
-35.72
-25.45
-11.74
4.88
24.4
46.83
71.23
95.26
115.76
130.21
138.3
142.61
147.69
158.12
176.24
201.02
228.31
252.53
268.78
274.21
268.55
253.51
231.95
206.96
181.29
156.98
135.06
115.46
97.13
78.59
58.68
37.27
15.47
-4.74
-21.36
-33.27
-40.62
-44.71
-47.32
-50.05
-53.83
-58.9
-65.09
-72.14
-79.98
-88.65
-98.02
-107.57
-116.39
-123.53
-128.38
-131.04
-132.26
-133.18
-134.77
-137.49
-141.3
-145.79
-150.58
-155.39
-159.95
-163.79
-166.15
-166.08
-162.75
-155.86
-145.68
-132.89
-118.33
-102.77
-86.89
-71.27
-56.35
-42.3
-28.83
-15.42
-1.67
12.05
24.32
33.05
36.44
34.11
27.65
20.13
14.73
13.42
16.19
21.46
27.19
31.96
35.46
38.08
40.19
41.63
41.75
39.87
35.86
30.28
24.18
18.71
14.7
12.54
12.34
13.99
17.23
21.65
26.72
31.8
36.4
40.24
43.35
46.01
48.43
50.57
52.07
52.44
51.29
48.64
44.89
40.61
36.12
31.28
25.64
18.83
10.99
2.88
-4.4
-9.95
-13.54
-15.61
-17.05
-18.61
-20.62
-22.94
-25.18
-26.88
-27.68
-27.29
-25.49
-22.17
-17.52
-12.05
-6.55
-1.75
1.91
4.47
6.22
7.37
7.74
6.79
3.94
-0.97
-7.27
-13.55
-18.13
-19.67
-17.67
-12.59
-5.57
2.1
9.33
15.43
20.0
22.85
23.95
23.38
21.35
18.12
13.81
8.44
2.04
-5.1
-12.26
-18.4
-22.53
-24.11
-23.33
-20.94
-17.94
-15.05
-12.54
-10.17
-7.55
-4.51
-1.31
1.4
2.87
2.71
1.09
-1.25
-3.36
-4.55
-4.76
-4.5
-4.44
-4.91
-5.63
-5.75
-4.45
-1.41
2.93
7.54
11.3
13.52
14.16
13.67
12.7
11.79
11.39
11.97
14.13
18.42
24.94
32.92
40.64
45.89
46.81
42.56
33.73
21.96
9.13
-3.35
-14.97
-25.86
-36.36
-46.39
-55.34
-62.25
-66.33
-67.42
-66.13
-63.62
-61.13
-59.36
-58.28
-57.02
-54.41
-49.43
-41.75
-32.02
-21.69
-12.58
-6.33
-3.79
-4.86
-8.54
-13.37
-17.91
-21.05
-22.15
-21.09
-18.1
-13.73
-8.77
-4.13
-0.7
0.85
0.22
-2.42
-6.62
-11.75
-17.15
-22.25
-26.54
-29.66
-31.37
-31.72
-30.99
-29.67
-28.31
-27.34
-27.03
-27.43
-28.39
-29.65
-30.86
-31.49
-30.94
-28.62
-24.11
-17.53
-9.63
-1.77
4.48
7.91
8.27
6.58
4.87
5.62
10.7
20.75
34.87
50.96
66.53
79.55
88.91
94.45
96.53
95.55
91.71
85.09
75.96
65.0
53.24
41.68
30.84
20.61
10.44
-0.11
-10.91
-21.21
-30.04
-36.74
-41.4
-44.79
-47.97
-51.75
-56.37
-61.5
-66.65
-71.5
-76.06
-80.49
-84.76
-88.29
-89.98
-88.47
-82.66
-72.22
-57.79
-40.67
-22.39
-4.12
13.57
30.48
46.47
61.02
73.24
82.1
86.9
87.52
84.5
78.81
71.53
63.7
56.14
49.47
43.95
39.52
35.7
31.78
27.07
21.1
13.79
5.4
-3.76
-13.45
-23.57
-34.22
-45.46
-57.25
-69.36
-81.25
-91.99
-100.23
-104.47
-103.34
-96.16
-83.29
-66.08
-46.5
-26.54
-7.75
8.95
23.03
34.12
41.9
46.22
47.46
46.62
45.05
44.02
44.2
45.43
46.97
47.93
47.76
46.39
44.09
41.13
37.6
33.45
28.68
23.46
18.08
12.65
7.02
0.71
-6.74
-15.42
-24.81
-33.72
-40.63
-44.11
-43.26
-38.0
-29.04
-17.76
-5.83
5.22
14.42
21.53
26.94
31.34
35.28
38.97
42.25
44.83
46.49
47.1
46.66
45.14
42.53
38.85
34.26
29.16
24.03
19.33
15.31
11.89
8.74
5.37
1.3
-3.84
-10.3
-18.05
-26.64
-35.2
-42.42
-46.95
-47.75
-44.53
-37.77
-28.47
-17.74
-6.4
5.06
16.26
26.62
35.21
41.02
43.31
42.07
38.05
32.53
26.87
22.05
18.58
16.52
15.77
16.09
17.18
18.52
19.41
19.1
17.12
13.52
8.84
3.81
-1.18
-6.42
-12.84
-21.45
-32.64
-45.62
-58.39
-68.43
-73.57
-72.89
-66.88
-57.17
-45.83
-34.64
-24.83
-17.03
-11.52
-8.37
-7.48
-8.42
-10.35
-12.08
-12.48
-10.79
-6.83
-1.04
5.74
12.62
19.0
24.79
30.29
35.87
41.47
46.39
49.27
48.6
43.3
33.2
19.13
2.65
-14.38
-30.13
-42.98
-51.63
-55.06
-52.81
-45.19
-33.41
-19.29
-4.82
8.39
19.41
28.0
34.3
38.67
41.37
42.67
42.84
42.22
41.2
40.19
39.44
39.05
38.89
38.72
38.19
37.04
35.02
31.87
27.36
21.23
13.28
3.48
-7.95
-20.45
-33.04
-44.42
-53.07
-57.62
-57.21
-51.84
-42.34
-30.21
-17.05
-4.12
7.95
19.02
29.08
37.92
45.06
49.98
52.41
52.52
50.83
47.93
44.23
39.79
34.42
27.85
19.97
10.96
1.31
-8.28
-17.1
-24.62
-30.66
-35.49
-39.74
-44.15
-49.17
-54.64
-59.66
-62.65
-61.67
-55.07
-42.07
-23.21
-0.41
23.37
45.0
61.89
72.61
77.01
75.9
70.56
62.27
52.11
40.95
29.49
18.32
7.88
-1.48
-9.59
-16.36
-21.66
-25.37
-27.37
-27.62
-26.17
-23.18
-18.96
-14.05
-9.32
-6.01
-5.56
-9.06
-16.71
-27.36
-38.55
-47.14
-50.21
-46.06
-34.65
-17.52
2.77
23.44
42.16
57.39
68.42
75.23
78.24
78.13
75.61
71.37
65.95
59.63
52.48
44.46
35.57
25.97
16.16
6.94
-0.61
-5.44
-7.04
-5.86
-3.4
-1.94
-3.85
-10.64
-22.37
-37.38
-52.84
-65.69
-73.68
-75.86
-72.58
-64.78
-53.4
-39.19
-22.9
-5.82
10.07
22.49
29.57
30.65
26.49
18.92
9.94
1.01
-7.33
-15.17
-22.66
-29.66
-35.76
-40.48
-43.6
-45.31
-46.11
-46.57
-47.13
-48.0
-49.32
-51.3
-54.25
-58.51
-64.07
-70.34
-76.03
-79.4
-78.85
-73.52
-63.65
-50.49
-35.83
-21.37
-8.3
2.75
11.45
17.53
20.74
21.03
18.82
15.12
11.31
8.66
7.87
8.84
10.8
12.72
13.79
13.74
12.82
11.55
10.46
9.8
9.46
9.02
7.86
5.31
0.81
-5.85
-14.37
-23.78
-32.5
-38.66
-40.55
-37.17
-28.51
-15.64
-0.37
15.23
29.42
41.07
49.73
55.48
58.63
59.52
58.46
55.74
51.72
46.82
41.46
36.03
30.87
26.24
22.36
19.43
17.6
16.86
17.01
17.61
18.08
17.77
16.2
13.14
8.66
3.06
-3.26
-9.93
-16.49
-22.29
-26.29
-27.16
-23.62
-14.92
-1.26
16.12
35.2
53.82
70.0
82.18
89.21
90.33
85.44
75.54
62.75
49.77
38.79
30.59
24.22
17.75
9.66
0.16
-8.51
-13.11
-11.08
-2.17
11.09
24.24
32.62
33.03
24.63
8.78
-11.61
-33.09
-52.46
-67.36
-76.43
-79.31
-76.37
-68.46
-56.7
-42.35
-26.75
-11.29
2.67
14.01
22.14
27.15
29.72
30.79
31.13
31.1
30.59
29.27
26.9
23.42
19.07
14.33
9.73
5.74
2.55
0.09
-1.91
-3.81
-5.94
-8.61
-12.13
-16.88
-23.16
-30.94
-39.49
-47.39
-52.65
-53.41
-48.49
-37.84
-22.51
-4.26
14.98
33.53
50.13
63.82
73.85
79.76
81.49
79.54
75.02
69.44
64.22
60.4
58.29
57.53
57.34
56.86
55.36
52.43
47.86
41.65
34.04
25.49
16.64
8.08
0.02
-7.9
-16.46
-26.36
-37.63
-49.24
-59.31
-65.76
-67.14
-63.23
-54.98
-44.05
-32.05
-20.15
-9.1
0.55
8.19
13.12
14.87
13.56
10.03
5.67
1.89
-0.38
-1.07
-0.79
-0.43
-0.63
-1.44
-2.33
-2.42
-1.05
1.88
5.78
9.45
11.46
10.54
5.95
-2.24
-12.98
-24.35
-33.98
-39.65
-39.98
-34.97
-25.85
-14.65
-3.46
6.27
13.9
19.42
23.04
24.81
24.63
22.42
18.43
13.34
8.05
3.29
-0.62
-3.93
-7.14
-10.68
-14.52
-18.12
-20.64
-21.24
-19.48
-15.41
-9.67
-3.38
2.09
5.39
5.57
2.52
-2.84
-8.63
-12.51
-12.46
-7.46
2.09
14.59
27.75
39.42
48.17
53.46
55.52
54.9
52.05
47.13
40.16
31.28
21.01
10.25
0.04
-8.77
-15.87
-21.54
-26.4
-31.11
-36.0
-40.97
-45.59
-49.34
-51.89
-53.23
-53.79
-54.25
-55.38
-57.75
-61.46
-65.97
-70.17
-72.64
-71.99
-67.33
-58.45
-45.89
-30.72
-14.21
2.4
18.03
31.68
42.52
49.86
53.35
53.11
49.83
44.58
38.59
32.88
28.13
24.61
22.44
21.73
22.76
25.88
31.29
38.8
47.64
56.59
64.09
68.77
69.76
66.91
60.78
52.49
43.39
35.01
28.81
26.01
27.26
32.33
39.97
48.19
54.81
58.19
57.68
53.7
47.27
39.33
30.42
20.65
10.06
-1.01
-11.82
-21.54
-29.62
-36.1
-41.42
-46.14
-50.49
-54.28
-57.06
-58.52
-58.87
-58.81
-59.21
-60.81
-63.93
-68.3
-73.29
-78.1
-81.92
-84.12
-84.17
-81.6
-76.0
-67.23
-55.61
-42.01
-27.69
-14.01
-2.06
7.4
13.94
17.39
17.83
15.67
11.68
6.86
2.2
-1.5
-3.78
-4.35
-2.98
0.44
5.7
11.9
17.49
20.62
19.86
14.66
5.54
-6.2
-18.87
-30.74
-40.23
-45.98
-47.1
-43.33
-35.2
-23.94
-11.19
1.32
12.12
20.07
24.53
25.36
23.0
18.38
12.78
7.42
3.2
0.45
-1.05
-1.84
-2.49
-3.43
-4.88
-6.9
-9.45
-12.48
-15.9
-19.53
-23.2
-26.72
-29.96
-32.74
-34.71
-35.19
-33.28
-28.2
-19.66
-8.2
4.85
17.74
28.89
37.25
42.47
44.64
44.04
40.87
35.36
27.94
19.32
10.49
2.49
-3.89
-8.34
-11.03
-12.58
-13.86
-15.76
-18.93
-23.56
-29.22
-34.78
-38.57
-38.82
-34.27
-24.73
-11.29
4.0
18.98
32.16
43.2
52.72
61.51
69.9
77.35
82.86
85.5
85.07
82.15
77.76
72.81
67.74
62.55
56.96
50.8
44.13
37.29
30.76
25.04
20.53
17.39
15.47
14.31
13.28
11.77
9.39
5.9
1.22
-4.77
-12.16
-20.84
-30.34
-39.7
-47.66
-52.99
-54.94
-53.47
-49.33
-43.71
-37.9
-33.0
-29.72
-28.45
-29.31
-32.2
-36.76
-42.26
-47.46
-50.83
-50.86
-46.58
-38.03
-26.24
-13.02
-0.29
10.45
18.46
23.6
26.1
26.15
23.93
19.68
13.88
7.33
0.96
-4.42
-8.3
-10.55
-11.28
-10.7
-9.01
-6.41
-3.16
0.32
3.49
5.81
6.96
6.9
5.85
4.17
2.14
-0.18
-2.83
-5.84
-9.01
-11.96
-14.28
-15.72
-16.37
-16.54
-16.66
-17.05
-17.86
-19.24
-21.4
-24.66
-29.2
-34.83
-40.8
-45.92
-48.87
-48.75
-45.46
-39.75
-32.96
-26.51
-21.46
-18.27
-16.83
-16.75
-17.64
-19.22
-21.34
-23.92
-26.8
-29.68
-32.09
-33.38
-32.88
-30.14
-25.13
-18.38
-10.74
-3.0
4.42
11.52
18.42
24.93
30.31
33.51
33.87
31.73
28.52
26.27
26.7
30.38
36.5
43.3
48.94
52.18
52.71
50.99
47.79
43.85
39.54
34.92
29.88
24.29
18.21
11.87
5.61
-0.24
-5.55
-10.37
-14.82
-18.84
-22.26
-24.98
-27.21
-29.63
-33.22
-38.68
-45.84
-53.4
-59.32
-61.64
-59.36
-52.83
-43.56
-33.47
-24.14
-16.36
-10.12
-4.95
-0.35
4.02
8.22
12.12
15.44
17.82
18.94
18.57
16.65
13.4
9.23
4.64
0.11
-3.97
-7.35
-9.97
-12.02
-13.94
-16.4
-20.13
-25.52
-32.38
-39.68
-45.8
-48.94
-47.73
-41.7
-31.51
-18.72
-5.27
7.09
17.2
24.62
29.47
32.16
33.12
32.7
31.14
28.67
25.55
22.08
18.51
15.08
12.0
9.4
7.41
6.07
5.26
4.67
3.81
2.09
-1.08
-6.06
-12.79
-20.56
-28.06
-33.62
-35.67
-33.25
-26.38
-16.08
-3.99
8.13
18.89
27.41
33.29
36.43
36.91
34.94
31.0
25.8
20.17
14.89
10.48
7.08
4.56
2.6
0.83
-1.03
-3.15
-5.51
-7.98
-10.46
-13.08
-16.36
-21.06
-27.83
-36.72
-46.78
-56.08
-62.28
-63.35
-58.25
-47.32
-32.16
-15.06
1.51
15.49
25.59
31.55
33.87
33.61
32.1
30.96
31.81
35.66
42.22
49.44
54.09
53.18
45.67
33.26
19.82
9.53
4.72
4.84
7.01
7.76
4.9
-1.69
-10.45
-19.32
-26.77
-32.0
-34.53
-33.85
-29.48
-21.17
-9.3
4.99
19.93
33.48
43.79
49.67
50.83
47.98
42.63
36.51
31.12
27.21
24.74
23.02
21.26
18.87
15.75
12.26
8.87
5.93
3.41
0.99
-1.81
-5.38
-9.97
-15.67
-22.42
-30.06
-38.23
-46.16
-52.67
-56.3
-55.8
-50.53
-40.76
-27.62
-12.73
2.29
16.19
28.18
37.78
44.67
48.55
49.3
47.18
42.87
37.49
32.2
27.9
24.92
22.99
21.45
19.57
16.94
13.59
9.98
6.71
4.18
2.36
0.64
-1.83
-5.89
-11.94
-19.82
-28.7
-37.37
-44.39
-48.41
-48.48
-44.31
-36.34
-25.69
-13.84
-2.19
8.27
17.01
23.82
28.52
30.84
30.63
28.18
24.38
20.55
18.04
17.8
20.19
25.07
32.09
40.72
50.21
59.59
67.83
74.33
79.31
83.79
88.72
93.91
97.37
95.97
87.03
69.85
46.36
20.39
-4.08
-24.33
-39.54
-50.27
-57.4
-61.46
-62.55
-60.7
-56.32
-50.19
-43.08
-35.38
-27.01
-17.92
-8.56
-0.15
5.72
7.73
5.48
-0.16
-7.28
-13.51
-16.9
-16.53
-12.59
-5.99
2.3
11.88
22.87
35.49
49.29
62.89
74.15
80.99
82.43
79.17
73.49
68.57
67.45
72.26
83.89
102.17
125.88
152.64
178.76
199.67
210.98
210.18
197.66
176.46
150.61
122.91
93.44
59.75
18.71
-31.01
-87.16
-143.81
-192.97
-226.66
-239.55
-230.79
-204.63
-169.5
-136.0
-113.35
-106.34
-114.13
-131.4
-151.21
-168.02
-179.25
-185.03
-186.74
-185.6
-182.15
-176.64
-169.51
-161.45
-152.74
-142.74
-130.05
-113.54
-93.27
-70.94
-49.28
-31.01
-17.89
-10.3
-7.57
-8.48
-11.43
-14.62
-16.44
-15.65
-11.56
-4.37
4.81
14.38
22.71
28.63
31.77
32.56
31.91
30.79
29.92
29.52
29.41
29.26
28.84
28.16
27.58
27.69
29.15
32.56
38.31
46.4
56.33
67.1
77.45
86.26
92.84
96.91
98.56
98.34
97.52
98.17
102.86
113.51
130.1
149.97
168.31
179.75
180.18
168.0
144.23
111.74
74.18
35.21
-1.95
-34.44
-59.92
-76.8
-84.48
-83.33
-74.51
-59.56
-40.3
-18.66
3.43
24.23
42.57
58.03
70.78
81.16
89.42
95.48
99.15
100.27
99.03
96.12
92.77
90.49
90.53
93.2
97.43
101.01
101.42
97.03
87.96
76.14
64.4
55.14
49.22
45.67
42.41
37.4
29.62
19.4
7.95
-3.44
-14.09
-24.08
-33.87
-43.82
-53.64
-62.43
-68.98
-72.38
-72.54
-70.39
-67.5
-65.43
-65.05
-66.21
-67.99
-69.27
-69.41
-68.52
-67.21
-66.12
-65.34
-64.42
-62.65
-59.62
-55.55
-51.21
-47.45
-44.44
-41.55
-37.66
-32.21
-25.87
-20.49
-18.33
-20.82
-27.79
-37.79
-48.98
-59.88
-69.76
-78.5
-86.16
-92.8
-98.24
-102.03
-103.12
-99.69
-89.54
-71.28
-45.55
-15.85
12.08
32.3
41.05
38.32
27.69
14.46
3.12
-4.35
-8.69
-11.86
-14.87
-16.65
-14.27
-4.81
12.14
33.41
53.17
65.39
66.29
55.65
36.2
11.65
-14.84
-41.02
-64.88
-83.95
-95.65
-98.33
-92.3
-79.99
-64.73
-49.23
-34.61
-20.69
-7.04
6.08
17.58
26.28
31.74
34.7
36.7
39.19
42.89
47.56
52.28
56.01
57.87
57.29
53.8
47.12
37.22
24.47
9.99
-4.46
-16.77
-24.97
-27.56
-23.82
-14.19
-0.48
14.19
25.9
31.02
27.53
15.64
-2.43
-23.33
-43.8
-61.43
-74.9
-83.75
-88.13
-88.69
-86.62
-83.5
-80.7
-78.55
-76.16
-71.93
-64.81
-55.55
-46.78
-41.96
-43.48
-51.31
-62.78
-73.8
-80.69
-81.52
-76.65
-68.17
-58.63
-49.79
-41.99
-34.31
-25.09
-12.75
3.48
23.33
45.46
67.7
87.42
102.0
109.37
108.49
99.85
85.52
68.92
54.09
44.53
41.86
45.2
51.24
55.4
53.63
44.03
27.8
8.69
-8.8
-21.67
-29.54
-34.45
-39.03
-44.78
-51.32
-57.01
-60.22
-60.09
-56.46
-49.08
-37.23
-20.01
2.39
27.96
53.14
74.19
89.11
98.15
103.07
105.43
105.3
101.36
92.38
78.65
62.39
46.53
32.91
20.99
8.06
-8.85
-30.94
-56.26
-80.59
-99.56
-110.98
-116.17
-119.13
-124.1
-132.73
-142.89
-149.75
-148.68
-138.0
-120.02
-99.85
-82.86
-72.47
-69.24
-71.49
-76.57
-81.81
-84.75
-83.07
-74.93
-59.58
-38.19
-13.79
9.54
28.1
39.9
45.03
45.53
44.63
46.02
52.49
64.69
80.29
94.34
101.1
96.66
81.06
58.57
35.84
19.04
11.52
13.03
20.87
31.72
43.19
54.42
65.5
76.72
87.99
98.99
109.48
119.67
130.25
141.8
154.12
165.45
172.54
171.42
158.83
133.83
98.58
57.99
18.23
-15.26
-39.45
-54.39
-62.51
-66.97
-69.93
-71.36
-69.26
-60.81
-44.1
-19.51
9.99
39.42
63.36
77.78
81.27
75.21
62.69
47.06
30.69
14.63
-0.85
-15.33
-27.75
-36.62
-41.13
-42.14
-42.61
-46.49
-57.13
-75.63
-100.31
-127.45
-152.98
-173.99
-189.29
-199.04
-203.76
-203.64
-198.36
-187.61
-171.9
-152.82
-132.63
-113.27
-95.51
-78.82
-62.0
-44.34
-26.35
-9.83
3.04
10.78
13.38
12.28
9.54
6.99
5.64
5.8
7.56
11.19
16.9
23.85
29.62
30.49
23.16
6.99
-14.62
-34.95
-46.61
-44.87
-29.72
-5.59
21.11
44.96
63.49
77.13
87.64
96.3
103.08
106.97
107.05
103.25
96.38
87.53
77.52
66.66
54.83
41.9
27.88
12.99
-2.47
-18.2
-33.77
-48.68
-62.36
-74.32
-84.09
-91.12
-94.66
-93.79
-87.9
-77.26
-63.46
-49.25
-37.69
-31.0
-29.72
-32.71
-37.97
-43.72
-49.12
-54.21
-59.3
-64.37
-68.91
-72.37
-74.65
-76.23
-77.91
-80.39
-83.89
-88.15
-92.63
-96.74
-99.9
-101.49
-100.84
-97.5
-91.51
-83.59
-74.96
-66.87
-60.18
-55.15
-51.64
-49.6
-49.36
-51.5
-56.4
-63.87
-73.04
-82.62
-91.39
-98.55
-103.78
-107.09
-108.54
-108.15
-105.9
-101.5
-94.38
-83.6
-67.94
-46.48
-19.18
12.78
47.32
82.06
115.06
145.05
171.36
193.41
210.42
221.6
226.46
225.26
219.02
209.17
197.12
184.0
170.83
158.68
148.94
143.25
143.08
149.32
161.79
178.81
196.98
211.19
215.6
205.25
178.02
136.26
87.08
40.65
7.05
-7.3
-1.84
18.21
44.24
67.76
83.33
89.57
88.3
82.5
74.44
64.97
54.09
41.9
29.32
17.93
9.22
3.83
1.24
0.27
-0.11
-0.24
0.16
1.12
1.49
-1.25
-10.15
-27.01
-50.92
-77.87
-102.02
-117.96
-122.94
-117.76
-105.93
-91.62
-77.64
-64.5
-50.85
-35.02
-16.37
4.08
24.04
40.99
53.14
59.98
62.09
60.63
56.58
50.35
41.86
30.92
17.79
3.36
-10.93
-23.62
-33.59
-40.22
-43.31
-42.68
-38.03
-29.03
-15.64
1.53
21.06
40.96
58.96
72.92
81.28
83.26
79.03
69.75
57.28
43.81
31.35
21.22
13.89
9.12
6.19
4.3
2.77
1.1
-1.09
-4.19
-8.51
-14.27
-21.32
-29.04
-36.3
-41.58
-43.41
-40.82
-33.75
-23.05
-10.27
2.87
14.82
24.55
31.52
35.6
36.9
35.75
32.7
28.56
24.25
20.61
18.13
16.84
16.32
15.89
14.95
13.09
10.3
6.82
2.88
-1.36
-5.89
-10.63
-15.18
-18.7
-20.08
-18.31
-12.88
-4.02
7.35
20.0
32.7
44.46
54.59
62.51
67.7
69.79
68.74
64.97
59.37
52.99
46.79
41.32
36.7
32.69
28.92
25.03
20.73
15.8
10.05
3.31
-4.45
-13.08
-22.11
-30.8
-38.2
-43.32
-45.45
-44.37
-40.39
-34.35
-27.45
-20.95
-15.96
-13.2
-12.91
-14.8
-18.26
-22.48
-26.74
-30.47
-33.33
-35.13
-35.86
-35.64
-34.78
-33.71
-32.87
-32.47
-32.5
-32.84
-33.48
-34.67
-36.98
-40.82
-45.98
-51.3
-54.77
-54.07
-47.44
-34.52
-16.66
3.34
22.08
36.68
45.62
48.97
48.07
44.68
40.25
35.41
30.12
24.06
17.16
9.78
2.7
-3.28
-7.6
-10.17
-11.28
-11.44
-11.15
-10.75
-10.43
-10.35
-10.82
-12.37
-15.54
-20.53
-26.77
-32.84
-36.7
-36.48
-31.2
-21.28
-8.36
5.27
17.51
27.04
33.41
36.85
37.82
36.78
34.12
30.32
26.03
21.97
18.81
16.78
15.63
14.71
13.24
10.72
7.07
2.66
-1.93
-6.21
-10.01
-13.5
-17.07
-21.15
-26.04
-31.76
-37.94
-43.83
-48.28
-50.01
-47.92
-41.59
-31.48
-18.95
-6.07
4.94
12.04
13.95
10.28
1.72
-10.03
-22.51
-32.97
-39.0
-39.09
-32.91
-21.41
-6.41
9.95
25.86
40.38
53.55
66.14
79.05
92.61
106.11
117.9
125.71
127.39
121.53
107.91
87.69
63.33
38.1
15.68
-0.53
-8.08
-6.07
4.45
20.62
38.37
53.48
62.82
65.21
61.74
55.13
48.45
43.77
41.44
40.37
38.95
36.22
32.11
27.17
21.76
15.66
8.37
-0.13
-8.76
-15.36
-17.82
-15.32
-9.23
-2.77
0.32
-2.55
-11.69
-25.26
-40.28
-53.96
-64.51
-71.36
-74.63
-74.55
-71.09
-64.08
-53.65
-40.53
-26.11
-12.17
-0.52
7.43
10.81
9.34
3.37
-6.02
-17.09
-27.7
-35.81
-39.92
-39.41
-34.44
-25.82
-14.64
-2.04
10.75
22.36
31.4
36.65
37.5
34.18
27.65
19.3
10.26
1.17
-7.88
-17.01
-26.05
-34.21
-40.14
-42.3
-39.67
-32.35
-21.69
-9.93
0.59
8.13
11.97
12.32
9.91
5.47
-0.46
-7.58
-15.38
-23.01
-29.33
-33.16
-33.7
-30.9
-25.37
-18.26
-10.92
-4.56
-0.14
1.69
0.64
-3.02
-8.15
-12.85
-14.91
-12.79
-6.36
2.9
12.51
20.1
24.31
25.17
23.66
20.91
17.64
13.93
9.61
4.52
-1.19
-7.25
-13.38
-19.37
-24.94
-29.8
-33.64
-36.41
-38.32
-39.78
-41.22
-42.92
-44.96
-47.45
-50.5
-54.1
-57.99
-61.39
-63.07
-61.73
-56.53
-47.47
-35.52
-22.29
-9.46
1.74
10.71
17.41
22.1
25.05
26.43
26.35
24.98
22.55
19.34
15.64
11.73
7.92
4.61
2.22
1.06
1.09
1.76
2.16
1.26
-1.66
-6.84
-14.03
-22.62
-31.9
-41.06
-49.17
-55.05
-57.4
-55.06
-47.57
-35.57
-20.79
-5.69
7.29
16.5
21.51
23.0
22.29
20.65
18.87
17.05
14.91
12.2
8.93
5.48
2.29
-0.37
-2.54
-4.44
-6.31
-8.21
-10.11
-12.08
-14.4
-17.55
-22.08
-28.09
-35.05
-41.7
-46.4
-47.63
-44.56
-37.36
-27.12
-15.51
-4.19
5.53
12.91
17.72
20.03
20.1
18.34
15.39
12.07
9.22
7.51
7.15
7.82
8.84
9.49
9.25
8.06
6.21
4.17
2.31
0.65
-1.12
-3.61
-7.36
-12.53
-18.65
-24.6
-28.94
-30.36
-28.17
-22.57
-14.56
-5.58
2.92
9.87
14.73
17.36
17.87
16.45
13.37
9.03
4.05
-0.79
-4.74
-7.23
-8.09
-7.55
-6.15
-4.58
-3.44
-3.03
-3.35
-4.15
-5.07
-5.87
-6.53
-7.11
-7.61
-7.85
-7.27
-5.15
-0.9
5.6
13.88
22.88
31.24
37.74
41.61
42.72
41.42
38.38
34.27
29.64
24.89
20.32
16.17
12.63
9.81
7.71
6.15
4.85
3.49
1.86
-0.07
-2.14
-4.18
-6.17
-8.47
-11.63
-16.05
-21.55
-27.09
-31.01
-31.67
-28.17
-20.77
-10.85
-0.3
9.17
16.44
21.12
23.27
23.13
20.92
16.97
11.83
6.36
1.56
-1.66
-2.89
-2.28
-0.6
1.09
1.83
1.05
-1.26
-4.72
-8.9
-13.61
-19.0
-25.32
-32.51
-39.76
-45.6
-48.21
-46.2
-39.22
-28.16
-14.9
-1.62
9.89
18.65
24.49
27.69
28.7
27.93
25.75
22.67
19.29
16.27
14.09
12.93
12.57
12.55
12.32
11.52
10.03
8.01
5.67
3.08
-0.04
-4.14
-9.54
-15.96
-22.3
-26.83
-27.75
-23.91
-15.39
-3.47
9.79
22.36
32.84
40.73
46.27
50.0
52.32
53.4
53.16
51.58
48.92
45.79
42.97
41.19
40.79
41.73
43.58
45.79
47.9
49.66
51.01
51.97
52.48
52.37
51.59
50.37
49.27
49.02
50.12
52.58
55.87
59.21
61.94
63.83
65.01
65.68
65.76
64.72
61.85
56.79
49.87
42.22
35.26
29.96
26.38
23.64
20.42
15.73
9.41
2.19
-4.78
-10.66
-15.37
-19.68
-24.72
-31.36
-39.89
-49.89
-60.44
-70.43
-78.69
-84.16
-85.92
-83.44
-76.71
-66.4
-53.75
-40.31
-27.56
-16.6
-8.04
-2.08
1.37
2.58
2.01
0.33
-1.72
-3.49
-4.65
-5.19
-5.46
-5.92
-6.9
-8.46
-10.38
-12.31
-13.98
-15.31
-16.53
-18.04
-20.36
-23.82
-28.44
-33.7
-38.54
-41.61
-41.59
-37.72
-30.08
-19.56
-7.58
4.32
14.95
23.54
29.72
33.34
34.41
33.06
29.73
25.14
20.15
15.58
11.93
9.27
7.34
5.69
3.93
1.81
-0.68
-3.37
-6.1
-8.75
-11.41
-14.33
-17.87
-22.35
-27.9
-34.29
-40.87
-46.57
-50.09
-50.26
-46.35
-38.38
-27.18
-14.2
-1.15
10.45
19.53
25.7
29.05
30.05
29.31
27.47
25.19
23.08
21.7
21.36
22.07
23.48
25.01
26.02
26.1
25.14
23.32
21.02
18.5
15.89
13.06
9.82
5.91
1.16
-4.41
-10.48
-16.32
-20.87
-23.01
-21.9
-17.36
-10.03
-1.16
7.82
15.67
21.67
25.52
27.2
26.75
24.25
19.92
14.26
7.99
1.92
-3.36
-7.63
-11.02
-13.9
-16.61
-19.38
-22.2
-24.98
-27.62
-30.08
-32.49
-35.04
-37.97
-41.49
-45.74
-50.69
-56.1
-61.4
-65.74
-68.11
-67.58
-63.51
-55.76
-44.75
-31.3
-16.48
-1.43
12.77
25.18
35.04
41.89
45.73
46.94
46.32
44.83
43.31
42.27
41.77
41.52
41.1
40.12
38.4
35.96
32.92
29.44
25.64
21.6
17.33
12.65
7.21
0.58
-7.48
-16.67
-25.95
-33.68
-38.15
-38.14
-33.47
-24.97
-14.16
-2.59
8.56
18.54
26.94
33.43
37.65
39.39
38.72
36.21
32.75
29.42
27.07
26.13
26.47
27.58
28.72
29.26
28.95
27.9
26.57
25.48
24.97
25.0
25.04
24.16
21.23
15.22
5.59
-7.33
-22.22
-36.85
-48.66
-55.55
-56.5
-51.94
-43.47
-33.25
-23.25
-14.79
-8.44
-4.18
-1.77
-0.93
-1.34
-2.63
-4.32
-5.86
-6.8
-6.9
-6.23
-5.09
-3.95
-3.2
-3.1
-3.72
-4.91
-6.41
-7.95
-9.42
-10.93
-12.81
-15.38
-18.7
-22.34
-25.27
-26.2
-24.08
-18.62
-10.44
-0.91
8.39
16.28
22.21
26.25
28.7
29.76
29.53
28.05
25.55
22.54
19.66
17.42
16.01
15.2
14.52
13.53
11.99
9.9
7.44
4.78
1.95
-1.16
-4.75
-9.01
-14.01
-19.69
-25.69
-31.34
-35.73
-37.83
-36.83
-32.47
-25.18
-16.03
-6.36
2.59
9.98
15.42
18.87
20.41
20.2
18.53
15.82
12.65
9.54
6.85
4.59
2.63
0.77
-1.05
-2.78
-4.32
-5.65
-6.8
-7.86
-8.82
-9.71
-10.64
-11.92
-14.02
-17.3
-21.64
-26.29
-30.03
-31.61
-30.35
-26.39
-20.64
-14.26
-8.17
-2.84
1.69
5.43
8.24
9.74
9.62
7.9
5.11
2.1
-0.33
-1.68
-1.94
-1.5
-0.87
-0.45
-0.45
-0.83
-1.47
-2.17
-2.86
-3.53
-4.33
-5.46
-7.21
-9.78
-13.32
-17.76
-22.7
-27.44
-31.03
-32.5
-31.22
-27.18
-20.94
-13.57
-6.16
0.46
5.91
10.12
13.13
14.86
15.14
13.91
11.45
8.47
5.85
4.38
4.33
5.48
7.17
8.73
9.81
10.42
10.82
11.3
11.84
12.18
11.84
10.35
7.39
2.91
-2.88
-9.45
-16.01
-21.61
-25.32
-26.46
-24.81
-20.63
-14.55
-7.41
-0.01
6.93
12.77
17.02
19.3
19.55
18.06
15.46
12.53
9.95
8.06
6.76
5.63
4.13
1.96
-0.88
-4.04
-7.01
-9.37
-10.97
-11.97
-12.76
-13.9
-15.92
-19.21
-23.84
-29.35
-34.7
-38.45
-39.17
-35.91
-28.64
-18.19
-6.0
6.35
17.6
26.96
34.05
38.73
41.02
41.1
39.33
36.3
32.69
29.21
26.42
24.61
23.81
23.75
23.97
24.02
23.63
22.8
21.79
20.82
19.94
18.81
16.89
13.62
8.71
2.22
-5.38
-13.34
-20.78
-26.78
-30.54
-31.55
-29.7
-25.39
-19.43
-12.83
-6.58
-1.36
2.5
4.98
6.2
6.36
5.68
4.38
2.69
0.85
-0.98
-2.74
-4.48
-6.4
-8.7
-11.48
-14.65
-17.95
-21.07
-23.79
-26.15
-28.47
-31.15
-34.57
-38.84
-43.74
-48.73
-53.06
-55.89
-56.48
-54.26
-49.02
-41.0
-30.84
-19.53
-8.08
2.64
11.97
19.45
24.63
27.1
26.58
23.18
17.63
11.17
5.32
1.33
-0.14
0.81
3.47
6.93
10.4
13.56
16.53
19.62
22.99
26.27
28.55
28.6
25.38
18.5
8.53
-3.15
-14.82
-24.89
-32.22
-36.24
-36.75
-33.78
-27.63
-18.93
-8.63
2.02
11.79
19.7
25.23
28.34
29.37
28.91
27.64
26.23
25.18
24.75
24.84
25.14
25.24
24.87
23.94
22.59
20.97
19.18
17.13
14.63
11.47
7.54
2.9
-2.32
-7.88
-13.43
-18.56
-22.78
-25.57
-26.52
-25.43
-22.34
-17.53
-11.36
-4.27
3.32
10.94
18.01
23.9
27.97
29.84
29.53
27.52
24.69
21.93
19.84
18.44
17.21
15.36
12.21
7.64
2.07
-3.68
-8.76
-12.68
-15.45
-17.57
-19.84
-23.07
-27.82
-34.2
-41.68
-49.25
-55.59
-59.54
-60.5
-58.53
-54.27
-48.51
-41.84
-34.43
-26.23
-17.21
-7.66
1.73
10.05
16.47
20.49
22.04
21.39
19.03
15.6
11.77
8.21
5.52
4.04
3.72
4.07
4.25
3.24
0.25
-5.08
-12.45
-20.8
-28.56
-33.94
-35.42
-32.17
-24.33
-12.98
0.19
13.32
24.86
33.83
39.87
43.04
43.67
42.15
38.95
34.65
29.89
25.32
21.34
18.03
15.17
12.47
9.75
7.15
4.96
3.45
2.64
2.19
1.54
0.2
-2.13
-5.48
-9.66
-14.31
-18.97
-23.01
-25.69
-26.29
-24.36
-19.91
-13.57
-6.37
0.47
6.05
10.0
12.49
14.09
15.33
16.52
17.67
18.57
19.05
19.16
19.12
19.19
19.52
20.08
20.67
21.15
21.43
21.52
21.36
20.77
19.44
17.22
14.27
11.31
9.52
10.28
14.67
22.94
34.25
46.7
57.85
65.47
68.26
66.18
60.32
52.37
43.92
36.04
29.18
23.4
18.58
14.63
11.42
8.73
6.22
3.51
0.4
-3.11
-6.79
-10.37
-13.71
-16.84
-20.03
-23.6
-27.81
-32.55
-37.33
-41.24
-43.19
-42.27
-38.16
-31.32
-22.88
-14.29
-6.85
-1.34
2.08
3.69
3.94
3.22
1.83
0.0
-1.95
-3.69
-4.91
-5.51
-5.65
-5.67
-5.94
-6.69
-7.94
-9.48
-11.06
-12.53
-13.94
-15.51
-17.46
-19.91
-22.66
-25.15
-26.67
-26.47
-24.16
-19.83
-14.07
-7.82
-2.01
2.67
5.92
7.78
8.49
8.33
7.48
6.06
4.15
1.89
-0.53
-2.86
-4.92
-6.72
-8.47
-10.48
-12.99
-16.04
-19.38
-22.69
-25.84
-29.07
-32.94
-37.96
-44.08
-50.32
-54.93
-55.93
-51.98
-42.92
-29.92
-15.02
-0.34
12.59
23.1
31.14
36.85
40.14
40.76
38.46
33.52
26.83
19.8
13.91
10.29
9.36
10.8
13.67
16.79
18.98
19.42
17.78
14.18
9.05
2.88
-3.89
-10.77
-17.07
-21.76
-23.69
-22.02
-16.74
-8.86
-0.1
7.7
13.32
16.47
17.54
17.27
16.23
14.78
13.08
11.34
9.88
8.97
8.64
8.69
8.81
8.77
8.55
8.25
7.99
7.65
7.01
5.8
3.87
1.28
-1.82
-5.24
-8.83
-12.34
-15.35
-17.21
-17.28
-15.17
-11.02
-5.46
0.56
6.16
10.74
14.12
16.32
17.46
17.66
16.98
15.6
13.78
11.87
10.17
8.81
7.69
6.56
5.13
3.28
1.12
-1.08
-3.0
-4.47
-5.57
-6.65
-8.23
-10.85
-14.8
-20.02
-25.94
-31.63
-36.04
-38.34
-38.17
-35.78
-31.87
-27.26
-22.72
-18.75
-15.66
-13.58
-12.51
-12.19
-12.07
-11.38
-9.4
-5.75
-0.65
5.23
10.93
15.59
18.65
19.97
19.73
18.33
16.28
14.08
12.09
10.39
8.74
6.64
3.65
-0.3
-4.72
-8.56
-10.57
-9.73
-5.68
1.23
9.93
19.08
27.28
33.47
36.95
37.57
35.71
32.17
28.04
24.33
21.65
20.1
19.38
19.03
18.79
18.76
19.34
21.03
24.2
29.0
35.36
42.95
51.12
58.86
64.83
67.54
65.86
59.44
49.07
36.57
24.41
15.04
10.12
10.03
13.84
19.74
25.72
30.33
33.13
34.71
36.05
37.87
40.04
41.79
42.26
41.36
40.03
39.81
41.99
46.75
52.87
58.27
61.02
60.2
56.1
49.84
42.48
34.5
25.59
15.09
2.47
-12.26
-28.6
-45.7
-62.76
-79.35
-95.43
-111.33
-127.29
-143.03
-157.53
-169.04
-175.71
-176.29
-170.7
-160.19
-146.96
-133.41
-121.5
-112.47
-106.65
-103.62
-102.15
-100.29
-95.65
-86.01
-70.18
-48.51
-22.93
3.76
28.84
50.38
67.51
80.12
88.56
93.44
95.69
96.64
97.82
100.47
104.96
110.54
115.6
118.36
117.58
112.8
104.45
93.47
81.04
68.49
57.21
48.49
43.32
42.01
43.96
47.8
51.82
54.47
54.73
52.28
47.3
40.17
31.26
20.88
9.43
-2.56
-14.33
-25.05
-33.94
-40.47
-44.47
-46.06
-45.57
-43.39
-39.95
-35.69
-31.22
-27.36
-25.11
-25.41
-28.86
-35.5
-44.74
-55.44
-66.17
-75.56
-82.65
-87.11
-89.23
-89.72
-89.44
-89.0
-88.57
-87.83
-86.28
-83.55
-79.71
-75.37
-71.5
-69.07
-68.67
-70.2
-72.85
-75.29
-76.11
-74.21
-69.15
-61.24
-51.39
-40.89
-31.07
-23.07
-17.68
-15.21
-15.38
-17.37
-19.96
-21.91
-22.29
-20.88
-18.11
-14.88
-12.14
-10.51
-10.2
-10.96
-12.36
-13.94
-15.33
-16.22
-16.42
-15.94
-14.98
-13.98
-13.39
-13.45
-13.97
-14.29
-13.56
-11.13
-6.84
-1.14
5.14
11.06
15.93
19.39
21.39
22.03
21.42
19.62
16.77
13.1
9.04
5.2
2.24
0.68
0.68
1.96
3.9
5.84
7.32
8.28
9.02
9.86
10.94
11.97
12.44
11.89
10.29
8.21
6.71
6.94
9.64
14.91
22.2
30.52
38.87
46.51
53.02
58.17
61.83
63.83
64.16
63.02
60.96
58.75
57.21
56.98
58.35
61.31
65.5
70.21
74.42
76.93
76.62
72.89
65.87
56.48
45.97
35.54
25.88
17.22
9.53
2.88
-2.44
-5.99
-7.61
-7.59
-6.82
-6.53
-7.94
-11.77
-18.04
-26.12
-34.91
-43.29
-50.42
-56.0
-60.12
-63.11
-65.18
-66.32
-66.35
-64.98
-62.0
-57.39
-51.44
-44.83
-38.65
-34.16
-32.51
-34.35
-39.52
-47.03
-55.26
-62.37
-66.73
-67.26
-63.7
-56.61
-47.32
-37.56
-29.02
-22.75
-18.91
-16.7
-14.86
-12.13
-7.81
-1.9
5.07
12.16
18.46
23.24
26.02
26.66
25.3
22.36
18.46
14.27
10.27
6.6
3.0
-1.02
-5.71
-10.86
-15.59
-18.64
-18.71
-15.03
-7.6
2.84
15.06
27.66
39.28
48.66
54.78
56.92
54.91
49.27
41.18
32.1
23.44
16.14
10.57
6.69
4.2
2.78
2.12
1.92
1.75
1.01
-1.11
-5.41
-12.55
-22.72
-35.33
-48.92
-61.37
-70.32
-73.79
-70.78
-61.53
-47.41
-30.47
-12.86
3.65
17.86
29.14
37.2
41.93
43.34
41.59
37.18
31.01
24.24
18.07
13.36
10.43
9.0
8.44
8.0
7.15
5.62
3.35
0.27
-3.79
-8.98
-15.23
-21.87
-27.64
-30.88
-30.06
-24.34
-13.86
0.35
16.69
33.4
48.81
61.33
69.56
72.42
69.68
62.18
51.9
41.35
32.84
27.78
26.51
28.57
33.1
39.15
45.71
51.62
55.55
56.21
52.76
45.03
33.59
19.61
4.57
-9.91
-22.27
-31.15
-35.66
-35.55
-31.34
-24.05
-14.94
-5.15
4.44
13.2
20.55
25.81
28.37
27.82
24.34
18.81
12.6
7.23
3.71
2.29
2.43
3.11
3.42
2.81
1.16
-1.56
-5.44
-10.73
-17.63
-25.99
-35.3
-44.72
-53.4
-60.55
-65.46
-67.44
-65.81
-60.1
-50.33
-37.17
-21.85
-5.87
9.41
22.99
34.14
42.28
46.74
46.97
42.75
34.58
23.72
11.95
1.05
-7.7
-13.82
-17.54
-19.53
-20.45
-20.74
-20.52
-19.85
-18.89
-18.04
-17.77
-18.36
-19.53
-20.42
-19.84
-16.75
-10.74
-2.24
7.61
17.43
26.09
33.05
38.32
42.17
44.85
46.4
46.64
45.35
42.46
38.16
32.87
27.11
21.46
16.35
12.05
8.69
6.26
4.73
4.01
3.93
4.14
4.2
3.69
2.47
0.79
-0.72
-1.39
-0.82
0.91
3.24
5.49
7.19
8.37
9.48
11.11
13.53
16.49
19.23
20.79
20.57
18.68
15.99
13.87
13.55
15.57
19.41
23.65
26.56
26.83
24.2
19.48
14.21
9.89
7.35
6.53
6.77
7.47
8.55
10.57
14.35
20.51
29.13
40.02
52.98
67.82
83.72
98.5
108.5
109.55
98.72
76.25
46.12
14.94
-10.74
-27.04
-34.1
-35.31
-35.1
-36.57
-40.36
-45.09
-48.93
-51.06
-52.14
-53.63
-56.55
-60.66
-64.52
-66.37
-65.25
-61.54
-56.47
-51.03
-45.11
-37.41
-26.24
-10.67
8.57
29.02
47.35
60.54
67.03
66.99
62.18
55.17
48.46
43.81
41.84
42.09
43.39
44.56
44.89
44.59
44.68
46.46
50.81
57.6
65.38
71.7
73.79
69.66
59.02
43.66
26.95
12.44
2.2
-4.47
-10.79
-21.13
-38.77
-64.05
-93.74
-121.85
-141.38
-146.1
-131.85
-97.33
-44.69
20.25
88.36
148.83
191.85
211.4
206.97
183.08
146.87
104.88
60.9
15.8
-30.76
-78.21
-123.8
-163.15
-192.07
-208.5
-213.35
-209.72
-201.14
-189.82
-175.87
-158.1
-135.64
-109.57
-83.42
-62.09
-49.81
-48.27
-56.03
-69.44
-84.52
-98.45
-110.17
-119.83
-127.83
-134.05
-137.88
-138.72
-136.68
-132.7
-128.08
-123.9
-120.36
-116.8
-112.19
-105.84
-97.89
-89.41
-82.13
-77.91
-77.75
-81.06
-85.44
-87.41
-83.61
-72.46
-55.26
-36.29
-21.58
-16.71
-24.49
-43.49
-68.42
-92.11
-108.35
-114.01
-109.75
-99.05
-86.14
-74.02
-63.4
-52.8
-39.55
-21.1
4.1
36.26
74.23
115.73
157.67
196.78
230.27
256.29
274.14
284.09
286.9
283.47
274.81
262.17
247.24
231.98
218.31
207.44
199.56
193.82
188.83
183.45
177.25
170.67
164.54
159.37
154.85
149.83
142.9
133.17
120.84
107.09
93.42
80.85
69.42
58.43
47.2
35.74
24.95
15.93
9.2
4.07
-1.15
-8.27
-18.18
-30.28
-42.56
-52.41
-57.52
-56.58
-49.5
-37.26
-21.68
-5.02
10.4
22.52
29.88
31.81
28.38
20.22
8.46
-5.31
-19.11
-30.83
-38.85
-42.69
-43.22
-42.4
-42.23
-43.84
-46.87
-49.77
-50.63
-48.22
-42.48
-34.43
-25.52
-16.99
-9.55
-3.4
1.44
4.73
6.05
5.0
1.56
-3.55
-8.99
-13.14
-14.78
-13.61
-10.42
-6.85
-4.72
-5.44
-9.55
-16.67
-25.83
-35.88
-45.85
-55.06
-62.97
-68.99
-72.45
-72.65
-69.22
-62.33
-52.76
-41.69
-30.35
-19.65
-10.15
-2.06
4.47
9.24
12.01
12.61
11.05
7.59
2.6
-3.46
-10.18
-17.05
-23.55
-29.12
-33.27
-35.71
-36.48
-35.97
-34.83
-33.83
-33.72
-35.0
-37.77
-41.58
-45.48
-48.15
-48.22
-44.65
-36.98
-25.47
-11.08
4.59
19.54
31.58
38.8
40.03
35.3
26.03
14.72
4.3
-2.77
-5.19
-3.14
1.99
8.17
13.45
16.54
17.02
15.22
11.88
7.7
3.05
-2.15
-8.25
-15.51
-23.71
-31.96
-38.92
-43.18
-43.82
-40.66
-34.3
-25.76
-16.08
-6.17
3.32
11.79
18.64
23.34
25.66
25.79
24.23
21.56
18.23
14.36
10.06
5.52
1.25
-2.15
-4.26
-5.08
-5.21
-5.59
-7.18
-10.65
-16.17
-23.35
-31.33
-38.86
-44.58
-47.3
-46.3
-41.52
-33.48
-23.06
-11.2
1.25
13.55
24.91
34.61
42.04
46.92
49.45
50.18
49.77
48.65
46.89
44.31
40.68
36.03
30.66
24.99
19.28
13.41
6.89
-0.97
-10.67
-22.23
-34.88
-47.06
-56.75
-61.93
-61.28
-54.65
-43.27
-29.45
-15.9
-4.89
2.3
5.63
5.98
4.65
2.75
0.87
-0.97
-3.07
-5.73
-8.97
-12.42
-15.5
-17.73
-18.94
-19.39
-19.67
-20.47
-22.31
-25.47
-30.02
-35.87
-42.62
-49.46
-55.03
-57.6
-55.58
-48.11
-35.58
-19.53
-2.27
14.04
27.98
39.25
48.47
56.7
64.76
72.84
80.44
86.65
90.66
92.07
91.07
88.12
83.64
77.68
69.97
60.32
49.13
37.5
26.89
18.32
11.65
5.46
-2.21
-12.55
-24.97
-36.98
-45.03
-46.19
-39.46
-26.28
-9.9
5.96
18.4
26.09
29.05
28.16
24.4
18.61
11.42
3.41
-4.79
-12.59
-19.56
-25.54
-30.62
-34.94
-38.59
-41.5
-43.56
-44.79
-45.47
-46.16
-47.41
-49.37
-51.58
-52.87
-51.78
-47.05
-38.18
-25.65
-10.76
4.71
19.08
31.1
40.04
45.66
48.01
47.37
44.1
38.77
32.02
24.55
16.94
9.54
2.39
-4.79
-12.51
-21.2
-31.08
-41.98
-53.33
-64.4
-74.49
-83.08
-89.77
-94.06
-95.15
-92.02
-83.85
-70.45
-52.65
-32.19
-11.27
8.11
24.63
37.7
47.19
53.02
55.1
53.42
48.32
40.66
31.63
22.39
13.68
5.75
-1.44
-7.94
-13.56
-17.89
-20.58
-21.66
-21.76
-21.94
-23.26
-26.18
-30.07
-33.29
-33.8
-29.97
-21.44
-9.28
4.34
17.07
27.3
34.47
39.03
41.82
43.58
44.63
44.97
44.46
43.12
41.11
38.77
36.49
34.63
33.37
32.62
31.91
30.5
27.61
22.69
15.64
6.91
-2.51
-11.21
-17.5
-19.7
-16.6
-7.81
5.78
22.2
38.79
53.01
63.2
68.85
70.61
69.7
67.47
64.93
62.61
60.59
58.57
56.11
52.69
47.98
41.93
34.77
27.03
19.29
12.04
5.53
-0.39
-6.1
-12.05
-18.33
-24.42
-29.09
-30.64
-27.53
-18.96
-5.28
12.06
31.04
49.58
66.13
79.67
89.47
94.8
94.88
89.13
77.7
61.78
43.58
25.78
10.83
0.29
-5.43
-6.98
-5.65
-3.12
-1.13
-1.24
-4.65
-11.79
-22.14
-34.15
-45.66
-54.43
-58.8
-58.17
-53.07
-44.87
-35.29
-25.95
-17.98
-11.93
-7.83
-5.4
-4.26
-4.07
-4.59
-5.65
-7.18
-9.18
-11.71
-14.81
-18.43
-22.35
-26.24
-29.92
-33.49
-37.46
-42.39
-48.5
-55.16
-60.85
-63.61
-61.69
-54.35
-42.13
-26.65
-10.01
5.82
19.44
30.07
37.4
41.36
42.01
39.59
34.58
27.7
19.85
11.95
4.75
-1.3
-6.06
-9.68
-12.53
-15.03
-17.62
-20.74
-24.73
-29.75
-35.51
-41.17
-45.32
-46.28
-42.65
-33.88
-20.58
-4.38
12.5
27.95
40.39
49.01
53.55
54.11
50.97
44.65
35.96
26.02
16.14
7.39
0.41
-4.74
-8.48
-11.41
-14.08
-16.79
-19.7
-22.84
-26.13
-29.16
-31.17
-31.06
-27.7
-20.38
-9.27
4.54
19.29
33.05
44.26
52.02
56.16
57.03
55.26
51.61
46.8
41.37
35.72
30.11
24.72
19.77
15.55
12.33
10.27
9.23
8.84
8.53
7.7
5.97
3.24
-0.13
-3.39
-5.41
-4.96
-1.0
6.89
18.25
31.78
45.69
58.24
68.28
75.43
79.88
81.99
81.87
79.22
73.56
64.54
52.28
37.43
21.02
4.14
-12.28
-27.55
-41.22
-52.85
-62.16
-69.04
-73.73
-76.75
-78.65
-79.61
-79.13
-76.19
-69.75
-59.37
-45.64
-30.21
-15.12
-2.14
7.8
14.7
19.08
21.47
21.97
20.38
16.42
10.18
2.25
-6.3
-14.17
-20.21
-23.69
-24.39
-22.6
-19.08
-14.93
-11.42
-9.77
-10.77
-14.44
-19.89
-25.45
-29.21
-29.6
-25.99
-18.84
-9.46
0.52
9.61
16.88
21.93
24.8
25.78
25.24
23.6
21.29
18.71
16.25
14.15
12.49
11.18
9.91
8.24
5.7
1.85
-3.6
-10.69
-19.17
-28.38
-37.28
-44.52
-48.72
-48.77
-44.24
-35.57
-24.0
-11.26
0.89
11.09
18.61
23.3
25.48
25.62
24.19
21.56
18.06
14.03
9.89
6.08
2.96
0.65
-1.0
-2.39
-4.0
-6.23
-9.3
-13.22
-17.8
-22.65
-27.15
-30.41
-31.39
-29.21
-23.49
-14.61
-3.71
7.61
17.78
25.64
30.7
33.04
33.06
31.27
28.13
24.02
19.27
14.27
9.39
4.98
1.26
-1.75
-4.19
-6.34
-8.45
-10.74
-13.33
-16.29
-19.67
-23.35
-26.98
-29.8
-30.85
-29.15
-24.25
-16.41
-6.68
3.48
12.62
19.81
24.69
27.42
28.32
27.69
25.75
22.69
18.84
14.66
10.65
7.23
4.54
2.47
0.75
-0.91
-2.7
-4.76
-7.22
-10.32
-14.33
-19.33
-25.0
-30.43
-34.34
-35.39
-32.73
-26.37
-17.23
-6.85
3.13
11.36
17.11
20.22
20.94
19.76
17.18
13.74
9.89
6.06
2.54
-0.43
-2.82
-4.64
-6.02
-7.11
-8.07
-9.01
-10.03
-11.26
-12.89
-15.17
-18.24
-21.97
-25.85
-28.9
-30.03
-28.33
-23.51
-16.06
-7.11
1.92
9.73
15.51
18.99
20.34
20.03
18.56
16.42
14.0
11.58
9.38
7.5
5.99
4.83
3.92
3.11
2.2
1.0
-0.56
-2.49
-4.75
-7.3
-10.18
-13.4
-16.77
-19.72
-21.42
-20.91
-17.55
-11.38
-3.18
5.7
13.79
20.0
23.87
25.52
25.47
24.3
22.42
20.09
17.44
14.58
11.71
9.01
6.64
4.65
2.92
1.29
-0.42
-2.27
-4.25
-6.28
-8.43
-10.92
-14.05
-17.99
-22.48
-26.71
-29.5
-29.72
-26.74
-20.8
-12.9
-4.42
3.29
9.3
13.24
15.11
15.2
13.9
11.69
9.05
6.46
4.24
2.53
1.23
0.17
-0.83
-1.82
-2.8
-3.73
-4.64
-5.6
-6.7
-7.99
-9.53
-11.36
-13.54
-16.03
-18.5
-20.35
-20.74
-18.88
-14.4
-7.61
0.55
8.77
15.8
20.84
23.66
24.45
23.64
21.72
19.12
16.29
13.65
11.58
10.28
9.67
9.39
8.91
7.82
5.94
3.39
0.53
-2.25
-4.7
-6.83
-8.87
-11.19
-14.12
-17.65
-21.4
-24.57
-26.15
-25.31
-21.71
-15.69
-8.23
-0.61
5.96
10.7
13.32
13.99
13.16
11.35
9.08
6.79
4.82
3.32
2.3
1.65
1.23
0.88
0.5
0.0
-0.7
-1.65
-2.85
-4.19
-5.52
-6.86
-8.37
-10.36
-13.01
-16.13
-19.0
-20.58
-19.89
-16.47
-10.65
-3.46
3.75
9.8
14.01
16.29
16.92
16.37
15.03
13.23
11.23
9.23
7.44
5.92
4.64
3.45
2.14
0.55
-1.38
-3.59
-5.94
-8.3
-10.64
-13.06
-15.8
-19.05
-22.79
-26.65
-29.89
-31.6
-31.1
-28.24
-23.51
-17.97
-12.75
-8.74
-6.28
-5.22
-5.15
-5.64
-6.49
-7.64
-9.09
-10.7
-12.21
-13.29
-13.67
-13.24
-12.11
-10.52
-8.74
-7.02
-5.53
-4.4
-3.77
-3.79
-4.58
-6.14
-8.19
-10.14
-11.09
-10.08
-6.36
0.38
9.84
21.18
33.18
44.51
53.92
60.43
63.42
62.76
58.78
52.2
43.95
34.94
25.85
17.15
9.16
2.23
-3.2
-6.77
-8.34
-8.25
-7.23
-6.24
-6.05
-7.03
-9.09
-11.78
-14.52
-16.69
-17.66
-16.77
-13.45
-7.45
0.89
10.59
20.28
28.58
34.58
38.05
39.35
39.21
38.33
37.24
36.12
35.0
33.65
31.81
29.19
25.64
21.17
16.03
10.56
5.07
-0.27
-5.32
-9.79
-13.1
-14.63
-14.0
-11.54
-8.27
-5.53
-4.22
-4.27
-4.5
-3.16
1.17
8.79
18.57
28.34
35.7
38.98
37.76
32.95
26.35
19.94
15.41
13.7
15.07
19.16
25.11
31.62
37.06
39.74
38.46
32.93
24.01
13.49
3.41
-4.72
-10.55
-14.89
-19.27
-25.17
-33.36
-43.47
-54.18
-63.64
-70.2
-72.95
-71.96
-68.22
-63.19
-58.36
-54.86
-53.33
-53.96
-56.54
-60.51
-65.07
-69.3
-72.4
-73.92
-73.94
-72.92
-71.51
-70.18
-69.07
-67.92
-66.32
-63.95
-60.83
-57.39
-54.3
-52.07
-50.78
-49.88
-48.3
-44.88
-38.81
-29.9
-18.65
-6.04
6.68
18.2
27.2
32.55
33.45
29.89
22.81
14.04
5.81
0.04
-2.36
-1.65
0.98
4.05
6.41
7.54
7.55
6.79
5.58
4.06
2.12
-0.39
-3.57
-7.38
-11.57
-15.76
-19.4
-21.83
-22.4
-20.67
-16.54
-10.35
-2.82
5.12
12.61
18.99
23.81
26.89
28.24
28.05
26.71
24.69
22.41
20.11
17.82
15.44
12.84
10.1
7.38
4.94
2.98
1.46
0.19
-1.22
-3.22
-6.25
-10.64
-16.46
-23.3
-30.21
-35.73
-38.36
-36.97
-31.35
-22.35
-11.6
-1.05
7.74
13.93
17.5
18.91
18.78
17.56
15.52
12.86
9.83
6.81
4.15
2.09
0.71
-0.07
-0.35
-0.19
0.36
1.16
1.88
2.05
1.12
-1.19
-4.69
-8.61
-11.81
-13.18
-12.08
-8.65
-3.79
1.14
4.82
6.3
5.36
2.41
-1.6
-5.47
-8.07
-8.54
-6.52
-2.18
3.86
10.7
17.38
23.06
27.21
29.63
30.49
30.26
29.58
29.04
28.95
29.2
29.31
28.61
26.54
22.9
17.94
12.32
6.91
2.47
-0.54
-2.12
-2.75
-3.12
-3.82
-4.97
-6.09
-6.24
-4.44
-0.04
6.94
15.83
25.52
34.8
42.69
48.52
51.94
52.95
51.86
49.3
46.13
43.28
41.41
40.73
40.86
41.1
40.7
39.27
36.86
33.86
30.82
28.15
26.04
24.41
23.03
21.6
19.89
17.89
15.94
14.81
15.47
18.72
24.72
32.71
41.02
47.71
51.27
51.19
48.0
42.87
37.04
31.3
25.93
20.86
15.95
11.08
6.11
0.81
-5.08
-11.58
-18.21
-23.99
-27.82
-29.07
-27.89
-25.17
-21.91
-18.69
-15.41
-11.41
-5.96
1.4
10.76
21.9
34.42
47.64
60.56
71.91
80.48
85.59
87.36
86.57
84.22
81.08
77.56
73.81
69.99
66.41
63.36
60.74
57.9
53.74
47.21
37.79
25.78
12.17
-1.77
-14.91
-26.56
-36.5
-44.7
-51.06
-55.16
-56.33
-53.91
-47.6
-37.79
-25.58
-12.51
-0.05
10.81
19.71
26.79
32.39
36.74
39.73
41.01
40.17
37.01
31.68
24.7
16.77
8.5
0.26
-7.92
-16.22
-24.79
-33.58
-42.29
-50.57
-58.2
-65.17
-71.57
-77.35
-82.01
-84.67
-84.42
-80.77
-73.95
-64.92
-54.96
-45.24
-36.48
-28.95
-22.62
-17.48
-13.68
-11.56
-11.47
-13.62
-17.96
-24.09
-31.34
-38.87
-45.8
-51.32
-54.84
-56.07
-55.03
-52.04
-47.62
-42.33
-36.72
-31.23
-26.14
-21.61
-17.71
-14.37
-11.44
-8.69
-5.88
-2.9
0.2
3.19
5.78
7.73
9.01
9.73
10.11
10.33
10.49
10.67
10.9
11.25
11.8
12.62
13.67
14.92
16.26
17.59
18.77
19.62
19.92
19.43
18.02
15.69
12.49
8.47
3.73
-1.55
-6.94
-11.68
-14.89
-15.83
-14.24
-10.49
-5.47
-0.29
4.1
7.11
8.51
8.36
6.86
4.28
1.02
-2.48
-5.78
-8.55
-10.68
-12.21
-13.24
-13.86
-14.16
-14.2
-14.15
-14.2
-14.59
-15.54
-17.17
-19.59
-22.8
-26.74
-31.15
-35.48
-38.95
-40.71
-40.12
-37.03
-31.93
-25.82
-19.87
-15.02
-11.74
-10.01
-9.47
-9.67
-10.29
-11.15
-12.18
-13.28
-14.34
-15.2
-15.77
-16.07
-16.19
-16.25
-16.37
-16.66
-17.23
-18.19
-19.67
-21.77
-24.53
-27.84
-31.38
-34.58
-36.68
-36.92
-34.76
-30.1
-23.42
-15.64
-7.93
-1.3
3.59
6.51
7.63
7.23
5.64
3.17
0.16
-3.01
-5.89
-8.13
-9.55
-10.26
-10.5
-10.58
-10.74
-11.12
-11.77
-12.8
-14.41
-16.99
-20.91
-26.43
-33.55
-41.78
-50.17
-57.52
-62.53
-64.2
-62.04
-56.22
-47.55
-37.26
-26.79
-17.56
-10.71
-7.06
-6.89
-9.95
-15.57
-22.8
-30.72
-38.58
-45.96
-52.62
-58.34
-62.82
-65.68
-66.44
-64.69
-60.08
-52.39
-41.55
-27.85
-12.13
4.23
19.51
32.23
41.71
48.2
52.76
56.62
60.53
64.55
68.12
70.5
71.2
70.08
67.28
63.03
57.56
51.0
43.6
35.63
27.4
19.1
10.69
1.96
-7.36
-17.44
-28.06
-38.48
-47.36
-53.08
-54.2
-50.16
-41.73
-30.96
-20.47
-12.47
-7.78
-5.46
-3.34
0.99
9.08
20.98
35.47
50.67
64.93
77.2
87.08
94.46
99.25
101.45
101.26
99.25
96.27
93.03
89.7
85.85
80.72
73.67
64.51
53.38
40.48
25.63
8.29
-12.02
-35.21
-60.17
-84.85
-106.78
-123.72
-134.11
-137.26
-133.19
-122.49
-106.32
-86.64
-66.07
-47.6
-33.82
-26.19
-24.65
-27.7
-33.13
-38.78
-43.27
-46.29
-48.32
-50.05
-51.62
-52.13
-49.74
-42.44
-29.14
-10.66
10.14
29.19
42.68
48.36
46.17
37.74
25.38
11.32
-2.58
-14.61
-22.95
-25.78
-21.9
-11.32
4.56
23.28
41.9
57.76
68.81
73.87
72.68
65.85
54.6
40.47
24.8
8.52
-7.78
-23.63
-38.31
-50.76
-59.68
-63.82
-62.37
-55.32
-43.54
-28.89
-13.84
-1.06
7.27
9.95
7.07
-0.09
-9.44
-18.55
-25.21
-27.79
-25.62
-19.2
-10.06
-0.32
8.01
13.61
16.2
16.36
15.05
13.09
10.95
8.75
6.52
4.33
2.37
0.82
-0.28
-1.0
-1.51
-1.96
-2.32
-2.53
-2.59
-2.86
-4.17
-7.71
-14.53
-25.01
-38.48
-53.25
-67.1
-77.7
-83.11
-81.83
-73.02
-56.72
-34.15
-7.82
18.81
42.18
59.64
70.07
73.89
72.52
67.61
60.63
52.91
45.98
41.69
41.99
48.22
60.44
77.14
95.5
112.17
124.13
129.52
127.91
120.11
107.61
91.9
74.09
55.03
35.69
17.56
2.66
-6.9
-9.69
-5.59
4.11
17.17
31.21
44.51
56.19
66.05
73.98
79.68
82.64
82.46
79.13
73.28
65.85
57.86
50.07
42.85
36.25
30.21
24.69
19.86
15.96
13.26
11.75
10.96
9.9
7.35
2.31
-5.51
-15.43
-25.96
-35.32
-42.14
-46.05
-47.74
-48.6
-50.15
-53.45
-58.92
-66.36
-75.21
-84.7
-93.8
-101.26
-105.6
-105.38
-99.71
-88.63
-73.26
-55.55
-37.74
-21.73
-8.67
1.05
7.49
10.8
10.9
7.48
0.37
-9.92
-21.81
-32.82
-40.28
-42.37
-38.9
-31.29
-21.83
-12.43
-3.65
5.5
16.98
32.61
53.05
77.36
103.19
127.56
147.8
162.3
170.77
174.14
174.15
172.82
171.99
172.63
174.3
174.7
169.94
155.58
128.37
87.86
37.17
-17.51
-68.64
-109.38
-135.09
-143.97
-136.91
-117.19
-89.92
-61.31
-37.19
-21.37
-14.47
-13.99
-15.88
-16.72
-15.25
-12.45
-10.29
-10.11
-11.78
-13.94
-15.28
-15.63
-16.26
-19.07
-25.39
-34.94
-45.83
-55.43
-61.63
-63.81
-62.99
-61.1
-59.59
-58.49
-56.28
-50.77
-40.67
-26.68
-11.61
0.85
7.85
8.57
4.31
-2.53
-9.83
-16.63
-23.13
-29.96
-37.2
-43.96
-48.59
-49.42
-45.56
-37.46
-26.87
-16.39
-8.71
-5.8
-8.34
-15.57
-25.82
-37.18
-48.14
-57.83
-65.63
-70.79
-72.28
-69.15
-60.98
-48.21
-31.86
-12.96
8.01
31.21
56.88
84.64
112.9
138.93
159.55
172.01
174.84
168.19
153.77
134.29
112.73
91.61
72.56
56.24
42.69
31.68
22.96
16.15
10.48
4.73
-2.51
-12.12
-23.87
-36.23
-46.83
-53.3
-54.25
-49.75
-41.19
-30.67
-20.23
-11.35
-4.77
-0.59
1.46
1.8
0.86
-0.91
-3.04
-5.09
-6.67
-7.69
-8.38
-9.25
-10.88
-13.59
-17.16
-20.89
-23.85
-25.41
-25.69
-25.57
-26.33
-28.98
-33.57
-38.99
-43.31
-44.52
-41.29
-33.52
-22.29
-9.44
3.07
13.65
21.39
26.02
27.8
27.14
24.55
20.45
15.27
9.48
3.57
-2.05
-7.09
-11.52
-15.51
-19.23
-22.76
-25.94
-28.48
-30.16
-31.11
-31.79
-32.95
-35.28
-39.0
-43.67
-48.14
-50.89
-50.46
-45.92
-37.23
-25.24
-11.51
2.1
13.91
22.69
27.96
29.88
29.08
26.43
22.72
18.56
14.29
10.14
6.3
2.96
0.3
-1.67
-3.17
-4.6
-6.37
-8.75
-11.89
-15.81
-20.51
-25.94
-31.78
-37.3
-41.38
-42.72
-40.35
-34.08
-24.68
-13.62
-2.6
7.04
14.61
20.03
23.63
25.77
26.69
26.56
25.53
23.86
21.88
19.88
18.02
16.27
14.5
12.55
10.33
7.74
4.75
1.25
-2.88
-7.77
-13.41
-19.47
-25.16
-29.34
-30.67
-28.1
-21.23
-10.58
2.54
16.36
29.17
39.72
47.35
51.94
53.75
53.22
50.87
47.26
42.91
38.24
33.49
28.8
24.18
19.63
15.09
10.49
5.69
0.49
-5.31
-11.86
-19.27
-27.57
-36.6
-45.93
-54.72
-61.87
-66.2
-66.84
-63.58
-56.93
-48.06
-38.38
-29.23
-21.61
-16.1
-12.93
-12.07
-13.33
-16.4
-20.92
-26.29
-31.68
-35.89
-37.63
-35.84
-30.31
-21.96
-12.62
-4.44
0.97
3.07
2.31
-0.42
-4.41
-9.44
-15.54
-22.37
-28.83
-33.07
-33.2
-28.05
-17.84
-4.18
10.46
23.54
33.26
38.94
40.97
40.46
38.62
36.37
34.12
31.9
29.54
27.01
24.47
22.24
20.56
19.51
18.93
18.64
18.49
18.41
18.35
18.07
17.12
14.87
10.88
5.18
-1.46
-7.64
-11.69
-12.2
-8.47
-0.83
9.46
20.49
30.25
37.2
40.59
40.56
37.95
33.88
29.42
25.31
21.85
18.99
16.46
13.87
10.79
6.86
1.85
-4.15
-10.79
-17.48
-23.65
-28.87
-33.07
-36.52
-39.67
-42.93
-46.25
-49.07
-50.31
-48.72
-43.41
-34.21
-21.9
-8.0
5.73
17.74
27.02
33.14
36.17
36.43
34.38
30.64
25.93
20.99
16.45
12.67
9.69
7.26
5.01
2.68
0.17
-2.37
-4.68
-6.5
-7.77
-8.7
-9.81
-11.78
-15.16
-20.06
-25.97
-31.77
-36.05
-37.61
-35.84
-30.96
-23.85
-15.67
-7.55
-0.3
5.66
10.24
13.56
15.84
17.37
18.4
19.17
19.81
20.42
21.03
21.77
22.77
24.21
26.12
28.36
30.54
32.11
32.49
31.22
28.0
22.73
15.52
6.79
-2.71
-11.8
-19.07
-23.15
-23.16
-19.04
-11.63
-2.37
7.05
15.25
21.41
25.29
27.06
27.06
25.73
23.43
20.52
17.33
14.15
11.21
8.67
6.61
4.96
3.54
2.06
0.22
-2.22
-5.27
-8.82
-12.72
-16.9
-21.42
-26.3
-31.27
-35.56
-38.02
-37.44
-33.13
-25.23
-14.87
-3.76
6.35
14.19
19.26
21.69
22.06
21.03
19.16
16.86
14.43
12.18
10.42
9.47
9.6
10.93
13.36
16.54
19.92
22.84
24.65
24.86
23.19
19.67
14.51
8.17
1.28
-5.25
-10.39
-13.06
-12.44
-8.27
-1.06
8.04
17.46
25.64
31.48
34.53
34.95
33.32
30.4
26.9
23.35
20.12
17.39
15.19
13.46
12.09
10.91
9.72
8.33
6.63
4.64
2.47
0.28
-1.9
-4.21
-6.96
-10.45
-14.75
-19.56
-24.11
-27.43
-28.61
-27.16
-23.11
-17.01
-9.64
-1.81
5.86
12.98
19.31
24.65
28.8
31.51
32.56
31.79
29.2
25.03
19.75
14.08
8.83
4.69
2.09
1.14
1.63
3.1
4.96
6.45
6.77
5.17
1.26
-4.81
-12.15
-19.34
-24.82
-27.39
-26.58
-22.8
-17.08
-10.73
-4.9
-0.33
2.69
4.32
4.92
4.98
4.93
5.08
5.56
6.29
7.11
7.86
8.45
8.94
9.53
10.48
12.02
14.23
16.93
19.63
21.55
21.77
19.56
14.72
7.9
0.46
-5.77
-9.17
-8.75
-4.48
2.79
11.7
20.75
28.59
34.23
37.07
36.91
34.0
28.94
22.55
15.73
9.21
3.47
-1.26
-4.99
-7.91
-10.35
-12.75
-15.53
-18.92
-22.87
-27.11
-31.17
-34.65
-37.25
-38.79
-39.07
-37.79
-34.57
-29.14
-21.51
-12.15
-1.92
8.12
16.95
23.82
28.27
30.26
30.01
28.02
24.97
21.56
18.39
15.83
14.01
12.84
12.15
11.71
11.25
10.52
9.28
7.32
4.56
1.0
-3.3
-8.24
-13.66
-19.27
-24.6
-29.08
-32.07
-33.11
-32.0
-28.84
-24.0
-18.0
-11.41
-4.81
1.25
6.29
10.01
12.32
13.38
13.55
13.29
13.0
12.99
13.39
14.13
14.97
15.6
15.65
14.86
13.15
10.62
7.54
4.25
1.13
-1.44
-3.08
-3.4
-2.05
1.09
5.89
11.84
18.18
24.06
28.78
31.96
33.58
33.88
33.28
32.12
30.56
28.55
25.86
22.3
17.84
12.73
7.36
2.14
-2.72
-7.31
-11.83
-16.45
-21.15
-25.68
-29.81
-33.44
-36.69
-39.71
-42.46
-44.5
-45.08
-43.36
-38.89
-31.8
-22.86
-13.21
-4.0
3.96
10.28
14.88
17.85
19.27
19.27
18.08
16.1
13.84
11.85
10.46
9.75
9.53
9.47
9.26
8.65
7.53
5.86
3.61
0.75
-2.71
-6.69
-10.94
-15.07
-18.52
-20.7
-21.06
-19.34
-15.65
-10.54
-4.86
0.54
4.96
8.12
10.06
10.99
11.17
10.71
9.63
7.94
5.73
3.24
0.75
-1.44
-3.15
-4.36
-5.13
-5.63
-6.05
-6.58
-7.39
-8.58
-10.24
-12.36
-14.79
-17.25
-19.25
-20.26
-19.78
-17.63
-13.99
-9.41
-4.58
-0.11
3.64
6.54
8.58
9.77
10.08
9.49
8.13
6.28
4.32
2.54
1.07
-0.16
-1.35
-2.63
-4.06
-5.53
-6.94
-8.24
-9.5
-10.91
-12.7
-15.0
-17.74
-20.57
-22.93
-24.25
-24.08
-22.34
-19.27
-15.43
-11.42
-7.81
-4.96
-3.07
-2.19
-2.32
-3.33
-5.02
-7.04
-9.02
-10.62
-11.65
-12.13
-12.19
-12.0
-11.69
-11.24
-10.49
-9.32
-7.78
-6.1
-4.7
-3.96
-4.01
-4.53
-4.78
-3.74
-0.37
6.07
15.72
27.99
41.54
54.5
64.87
70.97
71.94
67.89
59.85
49.38
38.19
27.79
19.29
13.27
9.75
8.21
7.7
7.13
5.51
2.27
-2.71
-9.21
-16.83
-25.2
-33.96
-42.68
-50.67
-56.99
-60.61
-60.74
-57.1
-50.04
-40.43
-29.41
-18.01
-7.03
2.99
11.56
18.1
22.0
22.88
20.94
17.11
12.76
9.21
7.09
6.28
6.11
5.93
5.65
5.77
7.05
10.01
14.57
20.04
25.45
29.97
33.18
35.1
36.0
36.25
36.31
36.64
37.69
39.73
42.65
45.82
48.2
48.6
46.04
40.11
31.15
20.15
8.58
-1.98
-10.27
-15.65
-18.34
-19.45
-20.56
-23.21
-28.43
-36.28
-45.98
-56.17
-65.38
-72.46
-76.79
-78.35
-77.62
-75.44
-72.64
-69.82
-67.07
-64.02
-59.96
-54.31
-46.85
-37.85
-27.97
-17.97
-8.51
-0.08
6.99
12.39
15.93
17.61
17.77
17.14
16.62
17.02
18.68
21.37
24.33
26.57
27.33
26.36
24.01
21.05
18.27
16.08
14.51
13.26
12.12
11.13
10.63
10.9
11.84
12.93
13.37
12.54
10.27
6.86
2.83
-1.47
-5.9
-10.54
-15.36
-20.13
-24.35
-27.57
-29.51
-30.24
-30.09
-29.35
-28.19
-26.44
-23.79
-19.93
-14.91
-9.16
-3.43
1.45
4.98
7.27
9.1
11.57
15.64
21.66
29.18
37.11
44.13
49.14
51.64
51.73
49.86
46.53
42.0
36.25
29.13
20.56
10.63
-0.51
-12.7
-25.73
-39.25
-52.43
-63.95
-72.17
-75.68
-73.81
-66.87
-56.01
-42.63
-27.93
-12.63
2.9
18.43
33.58
47.73
60.1
69.86
76.26
78.74
77.12
71.7
63.34
53.3
43.0
33.67
26.14
20.82
17.9
17.51
19.7
24.29
30.58
37.32
42.79
45.25
43.42
36.9
26.38
13.44
0.16
-11.4
-19.7
-24.03
-24.56
-22.2
-18.31
-14.34
-11.48
-10.47
-11.4
-13.78
-16.73
-19.28
-20.69
-20.6
-19.11
-16.62
-13.76
-11.2
-9.52
-9.07
-9.71
-10.76
-11.18
-9.99
-6.76
-1.93
3.29
7.4
9.31
8.83
6.71
4.26
2.71
2.55
3.47
4.59
4.98
4.25
2.6
0.67
-0.93
-2.06
-3.1
-4.7
-7.42
-11.41
-16.37
-21.75
-26.96
-31.54
-35.08
-37.17
-37.48
-35.85
-32.43
-27.74
-22.52
-17.64
-13.95
-12.07
-12.23
-14.12
-16.9
-19.51
-21.0
-21.04
-19.87
-18.15
-16.53
-15.46
-15.2
-15.96
-18.0
-21.65
-27.03
-33.82
-41.26
-48.39
-54.51
-59.35
-63.07
-65.95
-68.02
-68.93
-68.09
-65.01
-59.63
-52.51
-44.77
-37.66
-32.18
-28.59
-26.31
-24.25
-21.33
-17.01
-11.53
-5.7
-0.41
3.73
6.61
8.59
10.15
11.51
12.67
13.47
14.06
15.04
17.36
21.95
29.24
38.86
49.76
60.75
70.88
79.85
87.92
95.65
103.44
111.34
119.11
126.39
132.94
138.58
143.15
146.3
147.58
146.72
143.7
138.79
132.32
124.45
115.15
104.41
92.43
79.7
66.82
54.28
42.23
30.69
19.73
9.69
1.04
-5.86
-11.23
-15.87
-20.92
-27.33
-35.47
-44.99
-55.14
-64.94
-73.49
-79.92
-83.54
-83.97
-81.27
-76.09
-69.54
-62.82
-56.89
-52.18
-48.62
-45.96
-44.04
-42.95
-42.89
-43.81
-45.33
-46.74
-47.34
-46.71
-44.88
-42.28
-39.53
-37.26
-35.95
-35.8
-36.75
-38.62
-41.08
-43.78
-46.28
-48.07
-48.55
-47.16
-43.64
-38.23
-31.74
-25.39
-20.41
-17.58
-17.07
-18.44
-20.99
-24.04
-27.1
-29.85
-32.05
-33.49
-34.03
-33.61
-32.38
-30.5
-28.22
-25.72
-23.19
-20.8
-18.68
-16.86
-15.22
-13.5
-11.43
-8.86
-5.8
-2.5
0.77
3.78
6.43
8.73
10.71
12.43
13.9
15.07
15.85
16.07
15.57
14.2
11.95
8.95
5.49
1.96
-1.25
-3.83
-5.59
-6.48
-6.59
-6.11
-5.27
-4.24
-3.05
-1.51
0.72
4.03
8.57
14.18
20.29
26.15
31.02
34.44
36.37
37.07
36.98
36.5
35.82
34.98
33.96
32.83
31.77
31.16
31.31
32.35
34.1
36.13
37.94
39.23
40.02
40.54
41.06
41.66
42.22
42.45
42.11
41.08
39.27
36.68
33.37
29.54
25.61
22.14
19.58
17.91
16.59
14.75
11.63
7.04
1.49
-3.89
-7.67
-8.53
-5.72
0.65
9.31
18.01
24.02
24.97
19.76
9.1
-4.68
-18.49
-29.74
-37.29
-41.74
-44.83
-48.34
-53.21
-59.19
-65.07
-69.31
-70.73
-68.91
-64.25
-57.86
-51.03
-44.93
-40.27
-37.1
-34.97
-33.16
-31.15
-28.98
-27.33
-27.12
-28.92
-32.45
-36.64
-40.17
-42.17
-42.7
-42.65
-43.21
-45.1
-48.15
-51.31
-53.15
-52.6
-49.28
-43.67
-36.7
-29.42
-22.58
-16.55
-11.38
-6.99
-3.31
-0.42
1.47
2.14
1.52
-0.21
-2.61
-5.16
-7.43
-9.27
-10.75
-12.07
-13.34
-14.48
-15.29
-15.73
-16.05
-16.75
-18.38
-21.17
-24.85
-28.59
-31.33
-32.1
-30.37
-26.15
-19.93
-12.6
-5.14
1.54
6.74
10.11
11.61
11.48
10.09
7.87
5.2
2.42
-0.19
-2.4
-4.04
-5.05
-5.5
-5.57
-5.48
-5.48
-5.83
-6.81
-8.64
-11.4
-14.82
-18.24
-20.73
-21.32
-19.36
-14.73
-7.94
0.08
8.24
15.54
21.24
24.88
26.3
25.64
23.33
20.0
16.37
13.07
10.5
8.81
7.87
7.48
7.39
7.3
6.95
6.05
4.32
1.59
-2.13
-6.63
-11.46
-15.97
-19.43
-21.12
-20.48
-17.26
-11.63
-4.15
4.26
12.58
19.85
25.42
29.02
30.75
30.96
30.08
28.52
26.58
24.51
22.45
20.54
18.87
17.4
15.98
14.41
12.48
10.09
7.24
3.98
0.37
-3.62
-7.95
-12.44
-16.61
-19.74
-21.04
-19.95
-16.33
-10.62
-3.7
3.36
9.56
14.19
16.92
17.76
16.96
14.96
12.25
9.36
6.77
4.82
3.61
3.04
2.82
2.58
2.06
1.09
-0.36
-2.31
-4.84
-8.12
-12.25
-17.08
-22.0
-25.99
-27.87
-26.68
-22.1
-14.62
-5.43
3.94
12.14
18.33
22.25
24.18
24.55
23.8
22.21
20.02
17.4
14.51
11.49
8.35
4.97
1.22
-2.84
-6.89
-10.37
-12.81
-14.13
-14.84
-15.89
-18.18
-22.02
-26.84
-31.34
-33.95
-33.48
-29.48
-22.35
-13.1
-2.93
6.98
15.75
22.72
27.53
30.1
30.57
29.32
26.83
23.69
20.42
17.5
15.21
13.64
12.62
11.81
10.79
9.24
7.04
4.19
0.74
-3.3
-7.95
-13.12
-18.38
-22.92
-25.63
-25.46
-21.79
-14.8
-5.4
4.95
14.73
22.76
28.49
31.87
33.25
33.11
31.81
29.65
26.91
23.82
20.67
17.68
14.93
12.39
9.9
7.32
4.65
1.89
-0.96
-4.08
-7.76
-12.26
-17.47
-22.78
-27.07
-29.05
-27.73
-22.81
-14.83
-5.02
5.19
14.52
22.14
27.63
30.89
32.02
31.23
28.89
25.49
21.63
17.81
14.34
11.31
8.64
6.15
3.65
1.05
-1.68
-4.5
-7.35
-10.18
-13.08
-16.17
-19.52
-22.98
-25.99
-27.72
-27.24
-23.94
-17.83
-9.59
-0.4
8.48
16.04
21.77
25.58
27.67
28.28
27.65
26.03
23.64
20.74
17.56
14.25
10.91
7.59
4.35
1.28
-1.57
-4.22
-6.8
-9.51
-12.59
-16.18
-20.24
-24.48
-28.24
-30.64
-30.7
-27.71
-21.49
-12.6
-2.16
8.43
17.97
25.82
31.94
36.72
40.66
44.1
47.07
49.4
50.82
51.13
50.25
48.25
45.31
41.61
37.41
32.92
28.34
23.83
19.35
14.72
9.61
3.67
-3.29
-11.15
-19.4
-27.23
-33.66
-37.78
-39.0
-37.31
-33.22
-27.72
-21.98
-16.96
-13.22
-10.75
-9.25
-8.26
-7.53
-6.97
-6.71
-6.86
-7.44
-8.39
-9.71
-11.43
-13.62
-16.21
-18.98
-21.5
-23.33
-24.22
-24.27
-23.82
-23.25
-22.6
-21.42
-18.8
-13.72
-5.53
5.79
19.38
33.74
47.15
58.09
65.56
69.27
69.52
66.99
62.53
56.9
50.73
44.44
38.3
32.55
27.38
22.95
19.28
16.31
13.86
11.71
9.71
7.78
5.84
3.73
1.15
-2.26
-6.7
-12.02
-17.49
-21.98
-24.27
-23.51
-19.53
-12.99
-5.1
2.75
9.28
13.59
15.15
13.77
9.61
3.31
-4.0
-10.8
-15.54
-17.14
-15.4
-11.11
-5.7
-0.54
3.61
6.91
10.1
13.94
18.65
23.69
28.08
30.97
32.24
32.67
33.73
37.01
43.67
54.02
67.46
82.54
97.19
109.0
115.62
115.33
107.58
93.3
74.82
55.27
37.67
24.02
14.96
10.03
8.34
9.12
11.99
16.63
22.39
28.33
33.5
37.36
39.82
40.77
39.41
34.1
23.07
5.54
-17.16
-41.55
-63.11
-77.92
-84.15
-82.5
-75.37
-65.64
-55.56
-46.37
-38.52
-32.24
-27.84
-25.65
-25.75
-27.7
-30.59
-33.2
-34.41
-33.6
-30.78
-26.57
-21.9
-17.53
-13.9
-10.99
-8.66
-6.88
-6.03
-6.72
-9.5
-14.43
-20.87
-27.52
-32.85
-35.59
-35.05
-31.35
-25.21
-17.72
-10.04
-3.18
2.16
5.65
7.23
7.07
5.43
2.57
-1.14
-5.26
-9.26
-12.52
-14.61
-15.34
-14.85
-13.52
-11.74
-9.77
-7.69
-5.56
-3.55
-2.11
-1.81
-3.05
-5.73
-9.18
-12.26
-13.8
-13.06
-10.01
-5.36
-0.2
4.37
7.64
9.39
9.79
9.22
7.96
6.16
3.89
1.25
-1.51
-4.03
-5.94
-7.03
-7.37
-7.27
-7.1
-7.14
-7.52
-8.27
-9.41
-11.08
-13.56
-16.97
-21.2
-25.62
-29.27
-31.11
-30.44
-27.16
-21.88
-15.63
-9.51
-4.38
-0.65
1.55
2.28
1.64
-0.23
-3.03
-6.29
-9.37
-11.7
-12.94
-13.16
-12.78
-12.48
-12.88
-14.36
-17.01
-20.55
-24.61
-28.74
-32.66
-36.22
-39.35
-41.9
-43.57
-43.79
-41.95
-37.62
-30.81
-22.1
-12.55
-3.34
4.51
10.45
14.39
16.58
17.41
17.19
16.15
14.52
12.59
10.66
9.0
7.74
6.85
6.19
5.51
4.63
3.43
1.9
0.1
-1.93
-4.21
-6.83
-9.82
-13.09
-16.22
-18.53
-19.25
-17.76
-13.9
-8.01
-0.89
6.46
13.1
18.33
21.84
23.64
23.94
23.12
21.62
19.9
18.35
17.27
16.76
16.8
17.19
17.65
17.86
17.55
16.58
14.97
12.85
10.36
7.56
4.41
0.87
-2.93
-6.59
-9.49
-11.01
-10.67
-8.4
-4.52
0.32
5.43
10.17
14.04
16.69
17.88
17.49
15.54
12.24
7.98
3.29
-1.22
-4.97
-7.54
-8.79
-8.83
-8.0
-6.74
-5.45
-4.47
-4.09
-4.61
-6.33
-9.4
-13.67
-18.52
-22.92
-25.65
-25.78
-22.93
-17.48
-10.45
-3.05
3.65
9.0
12.84
15.35
16.79
17.4
17.3
16.56
15.27
13.6
11.75
9.97
8.42
7.16
6.16
5.3
4.39
3.28
1.79
-0.22
-2.92
-6.37
-10.45
-14.76
-18.57
-20.98
-21.15
-18.65
-13.55
-6.43
1.7
9.78
16.86
22.25
25.62
27.01
26.7
25.2
23.04
20.67
18.38
16.25
14.23
12.24
10.23
8.21
6.29
4.55
3.08
1.87
0.81
-0.33
-1.94
-4.34
-7.69
-11.69
-15.57
-18.14
-18.17
-14.84
-8.06
1.38
12.07
22.43
31.22
37.87
42.48
45.59
47.86
49.7
51.18
52.14
52.35
51.72
50.29
48.22
45.6
42.39
38.47
33.69
27.95
21.24
13.6
5.19
-3.68
-12.42
-20.05
-25.35
-27.35
-25.96
-22.3
-18.53
-17.0
-19.11
-24.74
-32.18
-38.84
-42.2
-40.63
-33.83
-22.85
-9.75
2.95
12.94
18.79
20.37
18.73
15.59
12.49
10.05
7.93
5.32
1.68
-2.88
-7.79
-12.55
-17.11
-21.8
-26.96
-32.4
-37.2
-39.97
-39.1
-33.48
-22.89
-8.33
8.0
23.17
34.35
39.86
39.81
36.12
31.53
28.35
27.47
28.22
29.19
29.38
28.95
28.96
30.61
34.21
38.84
42.84
44.7
43.86
40.76
36.39
31.49
26.14
19.93
12.54
4.26
-3.9
-10.59
-14.76
-16.15
-15.43
-13.75
-12.33
-11.87
-12.39
-13.44
-14.33
-14.58
-13.96
-12.66
-11.06
-9.64
-8.79
-8.81
-9.85
-12.05
-15.37
-19.58
-24.04
-27.76
-29.79
-29.71
-27.96
-25.72
-24.35
-24.71
-26.79
-29.81
-32.7
-34.65
-35.37
-34.96
-33.71
-31.88
-29.72
-27.58
-25.95
-25.28
-25.8
-27.42
-29.77
-32.33
-34.59
-36.04
-36.23
-34.92
-32.28
-29.01
-26.22
-25.07
-26.49
-30.83
-37.77
-46.33
-54.93
-61.68
-64.8
-63.11
-56.35
-45.26
-31.25
-16.02
-1.06
12.46
23.72
32.15
37.43
39.58
39.06
36.64
33.09
28.85
23.89
17.85
10.4
1.56
-8.14
-17.76
-26.16
-32.36
-35.78
-36.37
-34.63
-31.38
-27.46
-23.46
-19.51
-15.3
-10.34
-4.2
3.15
11.39
19.89
28.0
35.24
41.36
46.25
49.88
52.22
53.32
53.31
52.48
51.13
49.56
47.92
46.28
44.68
43.19
41.97
41.02
40.16
38.86
36.38
32.14
25.93
18.15
9.68
1.6
-5.17
-10.04
-12.78
-13.34
-11.76
-8.21
-3.05
2.99
8.94
13.77
16.7
17.35
15.79
12.29
7.23
1.0
-5.92
-12.9
-19.21
-24.13
-27.22
-28.41
-28.09
-27.04
-26.22
-26.58
-28.72
-32.66
-37.6
-42.09
-44.38
-43.04
-37.45
-27.96
-15.71
-2.15
11.38
23.87
34.53
42.75
47.95
49.9
48.86
45.73
41.84
38.5
36.67
36.66
38.24
40.73
43.27
44.81
44.15
40.03
31.39
17.81
0.08
-19.67
-38.27
-52.34
-59.35
-58.5
-50.85
-38.92
-25.55
-12.94
-2.2
6.5
13.41
18.69
22.33
24.49
25.68
26.65
28.04
29.87
31.39
31.22
27.88
20.38
8.52
-7.03
-24.91
-43.41
-60.7
-75.09
-85.16
-89.94
-89.02
-82.62
-71.67
-57.74
-42.92
-29.45
-19.22
-13.24
-11.44
-12.92
-16.27
-20.13
-23.41
-25.26
-25.08
-22.48
-17.42
-10.4
-2.45
5.08
10.98
14.52
15.74
15.37
14.48
14.09
14.81
16.64
19.13
21.57
23.35
24.17
24.23
23.98
23.85
24.0
24.3
24.56
24.8
25.41
27.01
29.95
34.01
38.23
41.27
41.95
39.62
34.52
27.64
20.51
14.72
11.58
11.65
14.45
18.6
22.11
22.99
19.88
12.34
1.25
-11.21
-21.79
-26.76
-23.0
-9.22
13.21
40.18
66.02
85.14
93.95
91.62
79.75
61.23
38.91
14.95
-9.05
-31.46
-50.23
-63.1
-68.38
-65.76
-56.6
-43.49
-29.3
-16.2
-5.29
3.15
9.24
13.23
15.64
17.39
19.81
24.06
30.49
38.39
46.33
52.88
57.27
59.48
59.81
58.23
54.32
47.67
38.56
28.21
18.45
10.81
5.76
2.5
-0.51
-4.6
-10.12
-16.29
-21.7
-25.16
-26.31
-25.85
-25.02
-24.84
-25.55
-26.57
-26.95
-25.89
-23.07
-18.38
-11.49
-1.77
11.3
27.34
44.47
59.52
69.15
71.22
65.74
54.78
41.33
27.96
15.87
4.92
-5.64
-16.26
-26.58
-35.62
-42.27
-45.94
-46.75
-45.43
-42.88
-39.8
-36.49
-32.86
-28.57
-23.25
-16.58
-8.5
0.82
11.04
21.79
32.98
44.86
57.72
71.45
85.06
96.68
104.26
106.33
102.64
94.08
81.95
67.27
50.55
32.31
13.81
-2.7
-14.48
-19.44
-17.18
-9.34
0.92
10.0
14.85
13.53
5.3
-9.46
-29.46
-52.65
-76.51
-98.5
-116.49
-129.31
-136.96
-140.72
-142.76
-145.38
-149.96
-156.07
-161.38
-162.48
-156.44
-142.28
-121.55
-97.61
-74.17
-53.84
-37.49
-24.93
-15.91
-10.89
-10.73
-15.72
-24.74
-35.46
-45.15
-51.94
-55.32
-55.83
-54.12
-50.29
-44.01
-35.31
-25.38
-16.56
-11.4
-11.28
-15.6
-21.96
-27.43
-29.79
-28.3
-23.36
-15.83
-6.45
4.04
14.56
23.37
28.48
28.47
23.51
15.66
8.32
4.95
7.65
16.33
28.62
40.69
48.49
49.04
41.27
26.37
7.28
-12.16
-28.19
-38.07
-40.72
-36.94
-29.09
-20.14
-12.46
-6.89
-2.57
2.27
8.92
17.13
25.11
30.42
31.57
28.9
24.43
20.51
18.37
17.29
15.02
9.09
-1.68
-16.32
-32.04
-45.41
-53.79
-56.5
-54.9
-51.61
-48.92
-47.48
-45.74
-40.71
-29.56
-11.24
12.61
38.11
60.6
76.36
83.85
83.95
79.3
73.05
67.7
64.34
62.77
62.12
61.78
61.81
62.91
65.76
70.36
75.87
80.95
84.55
86.3
86.31
84.54
80.28
72.31
60.02
44.56
29.21
18.36
15.41
20.78
31.38
41.96
47.69
46.47
39.65
30.99
24.39
21.93
23.21
26.16
28.69
30.07
31.24
33.8
38.48
44.17
48.33
48.36
43.53
35.66
28.51
25.69
28.56
35.27
41.71
43.69
38.83
27.54
12.17
-4.69
-21.25
-36.42
-48.34
-53.61
-48.05
-29.13
1.41
36.73
66.92
82.87
79.92
59.32
26.81
-10.5
-47.07
-79.87
-107.57
-128.79
-141.2
-142.26
-130.83
-108.75
-80.84
-53.42
-32.1
-20.11
-17.64
-22.23
-30.32
-38.65
-45.12
-49.14
-50.91
-50.75
-48.65
-44.4
-38.02
-30.28
-22.68
-17.06
-14.85
-16.32
-20.42
-25.14
-28.22
-27.9
-23.49
-15.43
-5.02
6.08
16.38
24.92
31.37
35.91
38.93
40.75
41.39
40.58
38.06
33.82
28.3
22.33
16.77
12.25
8.9
6.54
4.89
3.9
3.74
4.71
6.9
9.99
13.27
15.94
17.41
17.55
16.67
15.31
14.0
13.0
12.27
11.54
10.41
8.53
5.57
1.39
-3.94
-10.13
-16.72
-23.26
-29.43
-35.09
-40.13
-44.34
-47.26
-48.28
-46.89
-43.03
-37.16
-30.15
-22.88
-15.94
-9.49
-3.46
2.06
6.65
9.61
10.28
8.44
4.5
-0.64
-5.94
-10.66
-14.54
-17.77
-20.73
-23.73
-26.9
-30.12
-33.2
-36.01
-38.6
-41.15
-43.76
-46.27
-48.16
-48.75
-47.51
-44.4
-40.02
-35.41
-31.55
-28.81
-26.72
-24.21
-20.16
-14.1
-6.54
1.18
7.43
11.02
11.63
9.78
6.51
2.87
-0.54
-3.53
-6.2
-8.6
-10.63
-12.09
-12.91
-13.39
-14.11
-15.7
-18.5
-22.17
-25.78
-27.97
-27.47
-23.52
-16.18
-6.27
4.82
15.58
24.75
31.53
35.78
37.8
38.19
37.57
36.35
34.73
32.76
30.57
28.46
26.93
26.42
27.08
28.54
30.0
30.48
29.3
26.27
21.8
16.58
11.28
6.32
1.95
-1.58
-3.82
-4.22
-2.36
1.7
7.28
13.19
18.12
20.99
21.39
19.64
16.59
13.28
10.43
8.12
5.77
2.44
-2.66
-9.76
-18.36
-27.53
-36.22
-43.62
-49.27
-52.99
-54.73
-54.54
-52.54
-48.89
-43.68
-36.89
-28.3
-17.75
-5.34
8.41
22.66
36.56
49.47
61.3
72.53
84.4
98.53
116.2
137.33
159.32
177.06
184.32
176.36
152.47
117.03
78.27
45.3
24.79
18.75
24.33
35.31
44.35
45.28
34.74
12.93
-16.64
-48.28
-76.26
-96.76
-108.82
-113.91
-114.23
-110.96
-103.68
-91.47
-74.73
-56.4
-41.13
-33.2
-34.17
-41.89
-51.53
-58.08
-58.62
-53.16
-43.71
-32.6
-21.27
-10.24
0.02
8.18
12.09
9.87
1.2
-12.03
-26.32
-38.1
-45.28
-47.8
-47.35
-46.15
-45.93
-47.25
-49.83
-53.02
-56.39
-59.76
-63.11
-66.24
-68.36
-68.28
-64.64
-56.55
-43.95
-27.9
-10.35
6.26
19.75
28.7
32.9
33.32
31.66
29.63
28.19
27.25
25.78
22.59
17.11
9.78
1.8
-5.65
-11.86
-16.58
-19.52
-20.1
-17.94
-13.72
-9.69
-8.8
-13.09
-21.91
-31.65
-37.19
-34.58
-23.11
-5.42
14.25
32.49
47.97
60.92
71.4
78.17
79.06
72.55
59.28
41.99
24.2
8.39
-4.97
-17.05
-29.59
-43.78
-59.78
-76.74
-93.29
-107.8
-118.8
-125.63
-128.99
-130.92
-133.84
-138.99
-145.05
-148.26
-143.93
-128.78
-102.61
-68.2
-29.8
8.61
44.17
74.7
97.63
109.85
108.73
93.87
68.03
36.25
3.55
-27.23
-55.91
-83.23
-108.31
-127.28
-134.76
-127.22
-106.14
-78.17
-52.14
-34.55
-26.26
-22.66
-17.05
-4.87
13.82
35.04
53.74
66.83
74.35
78.86
83.54
90.43
99.79
110.49
120.88
129.73
136.72
142.37
147.54
152.58
156.58
157.65
153.66
143.48
127.67
108.48
88.92
71.52
57.51
46.74
38.3
30.96
23.7
15.88
7.43
-1.0
-8.24
-13.01
-14.62
-13.34
-10.46
-7.65
-6.24
-6.77
-9.07
-12.63
-16.91
-21.46
-25.78
-29.37
-31.87
-33.36
-34.25
-34.98
-35.66
-35.81
-34.71
-31.97
-27.91
-23.52
-19.99
-18.14
-18.13
-19.62
-21.99
-24.63
-26.8
-27.52
-25.62
-20.13
-10.87
1.18
14.06
25.51
33.81
38.4
39.82
39.29
37.9
36.19
33.96
30.66
25.87
19.61
12.5
5.45
-0.54
-4.73
-6.72
-6.54
-4.79
-2.69
-2.03
-4.71
-12.15
-24.56
-40.55
-57.39
-71.72
-80.63
-82.48
-77.28
-66.39
-52.05
-36.73
-22.61
-11.3
-3.61
0.58
2.18
2.57
3.14
4.69
7.31
10.43
13.38
15.68
17.3
18.47
19.36
19.82
19.45
17.67
14.02
8.25
0.32
-9.5
-20.49
-31.32
-40.08
-44.82
-44.1
-37.72
-26.94
-14.21
-2.34
6.5
11.43
12.98
12.57
11.77
11.58
12.02
12.21
10.65
5.76
-3.38
-16.36
-31.32
-45.28
-54.87
-57.62
-52.85
-42.19
-29.17
-18.1
-12.52
-13.93
-21.35
-31.78
-41.38
-46.96
-46.92
-41.6
-32.85
-23.34
-15.62
-11.19
-9.66
-8.3
-2.48
12.63
39.8
77.52
119.43
155.87
177.35
178.32
159.89
129.67
98.93
77.99
72.1
79.65
93.23
103.13
101.75
86.86
62.27
35.71
15.21
5.67
7.34
16.56
27.97
36.84
40.5
38.56
32.32
24.1
16.44
11.56
10.72
13.93
20.01
27.07
33.26
37.52
39.58
39.53
37.19
31.93
23.25
11.65
-0.96
-11.54
-17.22
-16.91
-12.32
-7.44
-6.82
-13.43
-27.22
-45.15
-62.6
-75.31
-80.91
-79.35
-72.14
-61.29
-48.51
-35.03
-21.98
-10.59
-2.12
2.62
3.76
2.43
0.02
-2.29
-3.9
-4.7
-4.59
-3.26
-0.36
3.87
8.22
10.78
9.86
4.98
-2.59
-10.51
-16.6
-19.97
-21.26
-21.78
-22.4
-22.76
-21.63
-17.81
-11.01
-2.22
6.74
14.02
18.64
20.68
21.05
20.82
20.63
20.58
20.22
19.14
17.37
15.48
14.09
13.44
13.09
12.17
10.15
7.36
5.15
5.05
7.87
13.03
18.95
23.82
26.5
26.86
25.67
24.05
22.93
22.59
22.64
22.3
20.74
17.56
13.16
8.61
5.07
3.11
2.31
1.57
0.01
-2.24
-3.9
-3.36
0.02
5.03
8.85
8.46
2.3
-8.77
-21.5
-31.44
-34.35
-27.57
-10.62
14.65
44.44
73.86
98.11
113.71
119.52
116.92
108.95
98.99
89.34
80.72
72.73
64.91
57.57
51.87
49.1
49.66
52.64
56.12
58.18
57.82
55.25
51.59
47.93
44.71
41.4
36.78
29.51
18.71
4.17
-13.65
-33.92
-55.62
-77.81
-99.6
-120.11
-138.19
-152.71
-162.59
-167.13
-166.28
-160.46
-150.37
-136.68
-119.94
-100.99
-81.24
-62.77
-47.66
-37.02
-30.28
-25.15
-18.52
-7.69
8.77
30.78
57.33
86.97
118.06
148.54
175.59
195.7
205.4
202.4
186.79
161.5
131.58
102.95
80.89
68.52
66.29
72.05
81.56
89.77
91.97
84.77
66.87
39.28
5.12
-31.08
-64.58
-91.8
-111.29
-123.65
-130.68
-134.15
-134.91
-133.0
-128.28
-121.24
-113.21
-106.09
-101.81
-101.84
-106.58
-114.93
-124.13
-130.12
-128.82
-118.06
-98.9
-75.69
-54.05
-38.09
-28.26
-21.48
-13.36
-1.33
13.6
27.48
35.96
37.05
32.17
25.08
19.56
17.53
18.45
20.21
20.63
18.51
13.98
7.99
1.78
-3.61
-7.47
-9.66
-10.66
-11.59
-13.77
-18.09
-24.33
-31.08
-36.21
-37.84
-35.18
-28.69
-19.56
-9.05
1.98
12.93
22.89
30.45
33.86
31.79
24.12
12.22
-1.38
-13.81
-22.86
-27.52
-28.08
-25.88
-22.73
-20.43
-20.38
-23.32
-29.3
-37.76
-47.68
-57.81
-66.89
-73.74
-77.39
-77.31
-73.38
-66.09
-56.33
-45.32
-34.28
-24.26
-15.97
-9.7
-5.17
-1.6
2.06
6.71
12.71
19.62
26.4
31.98
35.89
38.51
40.86
43.92
47.99
52.6
56.72
59.38
59.95
58.24
54.19
47.78
38.98
28.04
15.69
3.11
-8.3
-17.4
-23.68
-27.36
-29.22
-30.11
-30.6
-30.73
-30.06
-27.93
-23.87
-18.02
-11.47
-6.17
-4.3
-7.15
-14.09
-22.26
-27.33
-25.33
-14.72
2.47
21.09
34.77
38.43
30.33
12.57
-9.72
-30.27
-43.66
-46.79
-39.6
-24.78
-6.81
9.51
20.46
24.33
21.69
14.79
6.6
-0.34
-4.73
-6.86
-8.36
-11.56
-18.55
-30.08
-45.02
-60.41
-72.45
-77.81
-74.95
-64.63
-49.58
-33.53
-20.01
-11.49
-8.97
-11.85
-18.07
-24.51
-27.67
-24.65
-14.38
1.55
19.0
32.76
38.87
36.8
30.04
24.69
26.38
37.44
55.6
75.07
89.43
94.31
88.78
74.79
55.52
34.01
12.63
-6.34
-20.36
-27.06
-25.7
-18.51
-10.48
-7.23
-11.74
-22.19
-32.34
-34.79
-25.1
-4.43
21.01
43.13
56.01
58.18
52.23
42.46
32.22
22.8
13.97
5.6
-1.26
-4.63
-2.73
4.78
16.3
28.65
38.26
42.34
39.75
31.39
19.97
9.19
2.64
2.45
8.43
18.23
28.38
35.95
39.69
40.31
39.92
40.94
45.07
52.62
62.38
71.89
78.13
78.6
72.12
59.27
41.85
21.81
0.38
-22.11
-45.38
-67.92
-86.37
-96.39
-94.8
-81.55
-60.44
-37.73
-19.65
-10.11
-9.94
-17.36
-29.25
-42.01
-51.76
-54.04
-44.15
-18.57
23.0
76.04
131.49
178.31
207.45
215.2
204.31
182.34
157.92
137.34
122.8
113.17
106.18
100.6
96.92
96.56
100.24
106.81
113.33
116.19
112.74
102.02
85.08
64.22
42.3
21.73
4.05
-10.34
-22.09
-32.23
-41.82
-51.74
-63.09
-77.25
-95.07
-115.56
-134.87
-146.94
-145.91
-129.64
-101.88
-71.69
-49.46
-41.9
-48.91
-63.98
-77.8
-82.18
-73.09
-50.57
-17.58
20.8
57.68
84.54
92.93
77.49
39.39
-12.87
-65.69
-105.44
-123.61
-119.43
-98.79
-70.65
-43.28
-21.97
-8.76
-2.8
-0.89
2.43
13.79
38.61
78.12
126.57
171.49
197.64
193.22
155.37
91.67
17.62
-49.67
-97.55
-121.55
-125.46
-118.62
-111.44
-111.29
-120.23
-134.21
-144.84
-142.46
-120.04
-76.61
-18.49
42.65
93.51
123.24
126.79
105.32
65.18
14.77
-37.36
-83.96
-119.51
-140.28
-144.31
-131.4
-103.2
-62.52
-13.77
37.47
84.77
121.48
141.72
141.38
119.34
77.37
21.66
-39.19
-95.05
-136.16
-155.42
-150.64
-125.08
-86.34
-45.03
-8.39
19.16
37.38
48.88
56.67
62.62
67.17
70.17
70.31
70.05
69.93
69.39
66.48
58.3
42.13
16.77
-16.51
-56.01
-94.14
-125.35
-145.39
-152.48
-147.43
-133.0
-112.49
-76.23
-42.44
-10.36
17.91
39.89
53.71
58.93
56.77
49.87
41.17
30.86
21.87
13.02
1.56
-16.02
-42.97
-80.96
-128.13
-178.52
-224.64
-255.71
-266.12
-255.3
-226.39
-184.26
-133.93
-79.69
-25.85
21.47
57.83
78.94
84.09
77.41
71.43
77.59
101.52
139.32
180.11
214.58
238.17
250.73
257.19
261.01
262.23
259.02
249.07
230.87
206.12
177.45
148.27
122.61
103.85
93.37
90.12
90.56
89.97
84.28
71.24
50.95
25.42
-3.17
-33.64
-65.66
-98.94
-132.28
-163.22
-189.01
-207.52
-217.79
-220.25
-216.16
-207.1
-194.6
-180.01
-164.46
-148.84
-133.72
-119.29
-105.72
-93.36
-82.76
-74.31
-67.82
-62.45
-57.12
-51.08
-44.44
-38.19
-33.61
-31.51
-31.59
-32.42
-32.04
-28.85
-22.3
-13.15
-2.99
6.48
14.18
19.86
23.97
27.22
30.12
32.76
34.81
35.59
34.27
30.14
23.23
14.61
6.47
1.45
1.74
8.04
19.15
32.04
42.61
46.72
41.34
25.62
1.44
-26.7
-52.57
-69.95
-74.49
-65.14
-44.31
-17.02
10.9
34.47
50.58
58.09
57.46
50.08
37.81
22.63
6.34
-9.55
-23.97
-36.18
-45.73
-52.43
-56.36
-57.82
-57.3
-55.22
-51.76
-46.88
-40.56
-33.1
-25.43
-18.98
-15.13
-14.5
-16.39
-18.93
-19.92
-17.95
-13.13
-6.89
-0.73
5.05
11.94
22.52
38.83
60.81
85.76
109.36
127.41
137.56
139.82
135.92
127.93
117.2
104.01
88.12
69.66
49.7
30.19
13.26
0.17
-9.2
-16.32
-23.12
-30.9
-39.46
-47.18
-51.78
-51.52
-46.08
-36.64
-25.18
-13.54
-2.78
6.78
15.16
22.14
27.26
29.97
30.14
28.15
24.81
20.98
17.33
14.19
11.62
9.63
8.18
7.13
6.19
4.85
2.67
-0.55
-4.51
-8.43
-11.37
-12.63
-12.04
-10.07
-7.47
-5.0
-3.02
-1.5
-0.12
1.51
3.64
6.28
9.15
11.69
13.06
12.28
8.6
1.77
-7.72
-18.74
-29.9
-39.97
-48.21
-54.39
-58.67
-61.45
-63.21
-64.53
-65.88
-67.32
-68.19
-67.0
-61.87
-51.33
-35.19
-14.95
6.54
25.92
40.48
48.9
51.42
49.46
44.87
39.25
33.62
28.33
23.35
18.44
13.49
8.46
3.42
-1.55
-6.41
-11.12
-15.55
-19.43
-22.46
-24.52
-25.92
-27.5
-30.27
-34.87
-41.04
-47.36
-51.64
-51.7
-46.29
-35.64
-21.39
-5.93
8.47
20.34
29.22
35.38
39.48
42.11
43.73
44.57
44.83
44.62
44.02
43.06
41.74
40.03
37.93
35.48
32.78
30.06
27.52
25.3
23.16
20.43
16.15
9.54
0.58
-9.63
-19.09
-25.6
-27.66
-25.18
-19.35
-12.2
-5.63
-0.86
1.77
2.47
1.64
-0.46
-3.71
-7.98
-13.01
-18.32
-23.38
-27.68
-30.94
-33.05
-34.08
-34.24
-33.76
-32.89
-31.95
-31.28
-31.28
-32.35
-34.72
-38.21
-42.08
-45.11
-45.84
-43.1
-36.5
-26.62
-14.95
-3.33
6.65
14.11
19.01
21.92
23.6
24.69
25.58
26.37
27.06
27.49
27.49
26.79
25.16
22.52
19.03
15.16
11.47
8.51
6.56
5.49
4.8
3.8
1.86
-1.23
-5.12
-8.9
-11.34
-11.3
-8.1
-1.75
7.13
17.46
27.94
37.23
44.18
48.0
48.5
46.18
42.08
37.46
33.33
30.18
27.88
25.92
23.69
20.67
16.51
11.18
4.92
-1.63
-7.46
-11.6
-13.45
-13.29
-12.3
-12.18
-14.22
-18.56
-23.81
-27.49
-27.08
-21.2
-10.24
3.7
17.58
28.61
35.18
37.37
36.72
35.42
35.48
37.89
42.36
47.57
51.77
53.66
53.03
51.01
49.5
50.18
53.48
58.03
61.17
60.15
53.68
42.56
29.03
15.21
1.86
-11.39
-25.13
-39.18
-52.76
-65.87
-80.22
-98.69
-123.12
-151.59
-177.18
-189.89
-181.18
-148.96
-100.13
-48.32
-7.96
12.38
13.66
5.04
-1.63
1.85
16.3
35.77
51.79
58.47
55.72
48.43
43.06
43.65
49.82
57.75
63.09
63.71
60.63
56.99
56.17
59.92
67.7
77.1
85.04
89.11
88.56
84.46
79.06
74.72
72.59
72.18
71.64
68.87
62.67
53.47
43.18
34.21
28.27
25.66
25.28
25.36
24.41
21.78
17.69
13.09
9.17
6.95
6.87
8.53
10.62
11.28
8.73
2.16
-7.67
-18.57
-27.71
-32.96
-33.87
-31.78
-29.04
-27.81
-28.91
-31.73
-34.68
-36.15
-35.37
-32.67
-29.13
-26.03
-24.19
-23.6
-23.52
-22.89
-20.94
-17.57
-13.55
-10.29
-9.29
-11.49
-16.8
-24.01
-31.19
-36.29
-37.82
-35.25
-29.11
-20.73
-11.9
-4.32
0.84
3.33
3.71
3.04
2.23
1.54
0.4
-2.22
-7.2
-14.54
-23.25
-31.63
-38.04
-41.65
-42.86
-43.08
-44.23
-48.07
-55.65
-66.86
-80.17
-92.23
-97.99
-91.75
-69.25
-30.11
20.71
73.69
117.92
145.34
153.92
148.1
136.26
126.5
123.22
125.92
130.81
133.51
131.37
124.02
112.51
98.05
81.35
62.74
42.94
23.38
5.77
-8.63
-19.65
-28.41
-36.65
-46.0
-57.48
-71.27
-86.72
-102.38
-116.0
-125.0
-127.33
-122.54
-112.21
-99.58
-88.14
-80.11
-75.58
-72.95
-70.14
-66.03
-61.14
-57.24
-56.25
-59.28
-66.14
-75.54
-85.73
-95.12
-102.78
-108.6
-113.05
-116.92
-120.91
-125.49
-130.73
-136.34
-141.57
-145.16
-145.55
-141.42
-132.48
-119.93
-106.28
-94.44
-86.47
-82.69
-81.62
-80.82
-78.08
-72.33
-63.67
-52.7
-39.68
-24.09
-4.91
18.66
46.32
76.36
106.0
132.13
152.28
165.34
171.57
172.14
168.39
161.21
150.87
137.38
121.0
102.59
83.61
65.81
50.73
39.51
32.78
30.82
33.46
39.94
48.73
57.71
64.77
68.53
68.79
66.37
62.36
57.46
51.77
45.06
37.32
29.08
21.17
14.32
8.7
4.02
-0.12
-3.96
-7.42
-10.4
-13.01
-15.63
-18.63
-22.04
-25.41
-27.88
-28.59
-26.83
-22.19
-14.54
-4.2
7.95
20.39
31.08
37.89
39.16
34.12
23.18
7.86
-9.6
-26.64
-40.93
-50.79
-55.5
-55.51
-52.29
-48.0
-44.91
-44.69
-48.01
-54.36
-62.25
-69.62
-74.43
-75.1
-70.86
-61.86
-49.1
-34.09
-18.5
-3.66
9.69
21.47
32.01
41.62
50.22
57.23
61.81
63.34
61.82
57.99
53.09
48.44
44.97
43.06
42.54
42.9
43.44
43.46
42.22
39.13
33.78
26.16
16.64
6.01
-4.72
-14.54
-22.59
-28.3
-31.62
-33.0
-33.36
-33.91
-35.67
-39.15
-44.23
-50.35
-56.88
-63.67
-71.05
-79.56
-89.43
-100.12
-110.31
-118.51
-123.86
-126.78
-128.82
-131.77
-136.6
-142.84
-148.81
-152.61
-152.98
-149.54
-142.32
-130.94
-114.31
-91.01
-60.45
-23.73
16.2
55.34
90.04
118.07
138.95
153.45
162.61
167.14
167.37
163.45
155.86
145.65
134.4
123.79
115.09
108.64
103.84
99.42
93.98
86.55
76.96
65.83
54.35
43.86
35.39
29.42
25.7
23.38
21.45
19.29
17.19
16.35
18.28
23.85
32.42
41.64
48.08
48.45
40.64
24.25
0.59
-27.59
-56.47
-81.18
-96.39
-97.44
-82.26
-52.74
-14.83
23.48
55.35
77.78
92.45
103.88
116.23
130.74
145.28
156.29
161.45
161.24
158.36
155.64
153.99
151.82
146.21
134.94
117.83
96.87
75.06
55.01
38.05
24.23
12.95
3.73
-3.52
-8.39
-10.34
-8.92
-4.22
2.95
11.01
17.96
22.05
22.41
19.32
13.96
7.93
2.67
-0.85
-2.19
-1.27
1.83
6.88
13.5
21.1
28.96
36.26
42.23
46.27
47.98
47.21
44.0
38.62
31.55
23.47
15.16
7.33
0.59
-4.71
-8.49
-10.89
-12.27
-13.16
-14.15
-15.86
-18.8
-23.32
-29.44
-36.8
-44.57
-51.65
-56.94
-59.61
-59.43
-56.8
-52.6
-47.78
-43.04
-38.66
-34.5
-30.34
-26.12
-22.11
-18.79
-16.61
-15.74
-15.99
-16.91
-17.99
-18.87
-19.41
-19.62
-19.56
-19.25
-18.7
-18.01
-17.43
-17.29
-17.91
-19.42
-21.58
-23.9
-25.69
-26.25
-25.11
-22.13
-17.47
-11.58
-4.99
1.71
8.01
13.43
17.55
20.07
20.86
20.01
17.88
15.01
11.95
9.13
6.75
4.8
3.12
1.56
0.04
-1.47
-2.96
-4.45
-6.01
-7.76
-9.83
-12.24
-14.85
-17.26
-18.82
-18.83
-16.75
-12.47
-6.41
0.61
7.62
13.8
18.66
22.01
23.91
24.48
23.82
22.03
19.28
15.8
11.87
7.78
3.77
0.03
-3.28
-6.02
-8.07
-9.34
-9.81
-9.53
-8.74
-7.72
-6.8
-6.24
-6.17
-6.52
-7.06
-7.48
-7.45
-6.74
-5.27
-3.14
-0.54
2.26
5.0
7.49
9.59
11.2
12.26
12.76
12.83
12.72
12.75
13.2
14.14
15.34
16.39
16.88
16.58
15.61
14.3
13.04
12.11
11.57
11.3
11.11
10.79
10.2
9.25
7.95
6.4
4.78
3.35
2.35
1.95
2.19
2.97
4.12
5.43
6.64
7.51
7.76
7.22
5.87
3.85
1.45
-1.05
-3.44
-5.71
-7.97
-10.39
-13.06
-15.91
-18.79
-21.48
-23.84
-25.82
-27.47
-28.86
-29.97
-30.73
-31.0
-30.65
-29.61
-27.88
-25.57
-22.89
-20.16
-17.75
-15.99
-15.07
-14.88
-15.08
-15.19
-14.87
-14.14
-13.37
-13.21
-14.27
-16.9
-21.07
-26.35
-32.03
-37.36
-41.55
-43.94
-44.1
-41.95
-37.83
-32.43
-26.63
-21.17
-16.43
-12.4
-8.82
-5.41
-2.13
0.82
3.13
4.6
5.27
5.46
5.55
5.84
6.43
7.19
7.94
8.48
8.64
8.18
6.84
4.34
0.65
-3.78
-8.05
-11.02
-11.82
-10.31
-7.25
-4.01
-1.83
-1.27
-1.89
-2.52
-1.99
0.3
4.02
8.19
11.72
13.96
14.9
15.02
14.82
14.52
13.94
12.68
10.46
7.3
3.62
0.06
-2.87
-4.97
-6.41
-7.6
-8.94
-10.6
-12.46
-14.25
-15.75
-17.01
-18.28
-19.88
-21.95
-24.29
-26.38
-27.61
-27.43
-25.67
-22.56
-18.64
-14.65
-11.29
-9.08
-8.22
-8.57
-9.79
-11.49
-13.41
-15.51
-17.94
-20.87
-24.38
-28.32
-32.37
-36.09
-39.09
-41.18
-42.37
-42.98
-43.45
-44.28
-45.82
-48.02
-50.32
-51.74
-51.0
-47.02
-39.43
-28.91
-17.23
-6.83
0.12
2.5
0.79
-3.21
-7.18
-9.12
-7.98
-3.52
4.07
14.46
27.18
41.39
55.82
69.03
80.04
88.67
95.34
100.45
103.68
103.91
99.93
91.43
79.59
66.69
55.13
46.15
39.48
33.69
27.19
19.17
10.02
1.01
-6.17
-10.06
-9.77
-5.12
3.3
14.28
26.22
37.42
46.41
52.17
54.15
52.26
46.8
38.43
28.02
16.54
4.7
-7.21
-19.34
-31.97
-45.08
-58.0
-69.34
-77.33
-80.46
-78.06
-70.58
-59.56
-47.1
-35.34
-25.89
-19.63
-16.63
-16.41
-18.16
-21.0
-24.1
-26.84
-28.77
-29.72
-29.75
-29.12
-28.15
-27.14
-26.28
-25.66
-25.33
-25.43
-26.17
-27.72
-30.0
-32.57
-34.62
-35.19
-33.49
-29.2
-22.55
-14.27
-5.29
3.42
11.08
17.11
21.16
23.13
23.12
21.43
18.46
14.62
10.26
5.69
1.2
-2.91
-6.37
-9.01
-10.86
-12.1
-13.14
-14.4
-16.25
-18.9
-22.29
-26.01
-29.41
-31.62
-31.81
-29.46
-24.53
-17.58
-9.6
-1.76
4.99
10.07
13.33
14.9
15.07
14.07
12.14
9.56
6.65
3.8
1.31
-0.66
-2.15
-3.35
-4.5
-5.81
-7.46
-9.58
-12.27
-15.56
-19.32
-23.19
-26.52
-28.52
-28.48
-25.99
-21.17
-14.62
-7.26
-0.06
6.21
11.11
14.49
16.41
17.03
16.58
15.35
13.7
11.97
10.43
9.18
8.2
7.34
6.51
5.6
4.57
3.32
1.71
-0.48
-3.44
-7.22
-11.6
-16.01
-19.56
-21.28
-20.43
-16.79
-10.78
-3.31
4.49
11.68
17.68
22.32
25.59
27.5
27.95
26.9
24.52
21.29
17.95
15.27
13.71
13.27
13.48
13.56
12.85
11.03
8.28
5.19
2.42
0.39
-0.97
-2.16
-3.84
-6.36
-9.34
-11.67
-11.79
-8.31
-0.67
10.5
23.5
36.05
45.95
51.65
52.51
48.97
42.55
35.9
32.38
35.1
45.67
62.91
82.51
98.13
103.77
96.36
77.45
52.79
29.84
14.63
9.19
11.02
14.78
15.05
8.77
-3.97
-20.84
-38.91
-56.2
-71.85
-85.33
-95.52
-100.74
-99.84
-93.63
-85.29
-79.22
-78.67
-83.95
-92.32
-99.66
-102.78
-100.72
-94.4
-85.05
-72.75
-56.46
-35.21
-9.66
17.5
42.27
61.14
72.53
76.91
75.95
71.33
64.14
54.98
44.44
33.47
23.33
15.22
9.96
7.75
8.24
10.69
14.16
17.69
20.45
21.84
21.65
20.04
17.46
14.46
11.54
8.96
6.74
4.79
2.98
1.26
-0.37
-1.9
-3.33
-4.67
-5.87
-6.85
-7.44
-7.54
-7.1
-6.26
-5.23
-4.34
-3.94
-4.33
-5.62
-7.58
-9.68
-11.15
-11.32
-9.82
-6.67
-2.28
2.79
7.94
12.61
16.33
18.76
19.76
19.45
18.19
16.36
14.29
12.07
9.67
7.16
4.77
2.8
1.43
0.52
-0.37
-1.72
-3.75
-6.29
-8.93
-11.3
-13.34
-15.16
-16.86
-18.25
-18.76
-17.74
-14.84
-10.26
-4.68
0.91
5.75
9.41
11.86
13.27
13.8
13.57
12.72
11.47
10.14
9.03
8.37
8.22
8.54
9.23
10.11
10.91
11.19
10.48
8.44
4.96
0.29
-5.14
-10.89
-16.57
-21.78
-26.12
-29.08
-30.2
-29.24
-26.34
-22.0
-16.91
-11.73
-6.96
-2.95
0.01
1.78
2.3
1.74
0.42
-1.26
-2.91
-4.27
-5.17
-5.49
-5.22
-4.49
-3.57
-2.84
-2.67
-3.23
-4.5
-6.33
-8.64
-11.37
-14.53
-17.83
-20.68
-22.22
-21.63
-18.52
-13.17
-6.37
0.92
8.05
14.9
21.65
28.47
35.18
41.2
45.94
49.19
51.24
52.78
54.42
56.41
58.49
60.16
61.02
61.04
60.67
60.67
61.89
64.95
70.1
76.96
84.76
92.57
99.77
106.07
111.15
114.3
114.45
110.6
102.48
90.8
76.77
61.23
43.83
23.22
-1.83
-31.02
-61.77
-89.93
-111.59
-124.86
-130.66
-131.89
-131.65
-131.57
-131.35
-129.37
-123.9
-114.1
-100.2
-83.15
-63.85
-42.8
-20.21
3.49
27.17
49.11
67.49
81.22
90.53
97.08
103.44
112.17
124.82
141.35
160.1
178.41
193.52
203.4
207.27
205.4
198.73
188.38
175.35
160.37
143.79
125.29
103.82
78.02
47.23
12.62
-22.24
-52.1
-71.91
-79.13
-75.08
-64.55
-53.93
-48.61
-51.04
-60.23
-72.65
-83.84
-90.12
-89.65
-82.85
-72.04
-60.6
-51.93
-48.58
-51.55
-60.0
-71.3
-81.85
-88.02
-87.36
-79.4
-65.82
-50.07
-36.39
-28.47
-28.08
-34.31
-43.64
-51.15
-52.52
-45.9
-32.79
-17.39
-4.64
2.01
2.13
-1.93
-6.56
-8.89
-7.84
-4.0
1.3
6.84
11.64
14.75
15.08
11.69
4.31
-6.08
-17.54
-27.88
-35.62
-40.6
-43.97
-47.56
-53.1
-61.64
-73.16
-86.8
-101.15
-114.77
-126.51
-135.7
-142.12
-145.87
-147.32
-147.01
-145.67
-143.94
-142.12
-139.74
-135.58
-128.07
-115.89
-98.54
-76.42
-50.58
-22.57
5.7
31.78
52.67
65.24
67.16
57.9
39.17
14.58
-11.49
-35.24
-54.39
-68.37
-77.93
-84.39
-89.1
-92.96
-96.21
-98.17
-97.25
-91.43
-79.08
-60.06
-36.51
-12.53
6.87
17.85
19.21
12.72
2.09
-8.5
-15.49
-16.46
-10.26
2.59
19.55
36.09
46.93
48.2
39.61
25.12
11.29
4.32
7.01
17.67
31.55
43.5
50.43
51.87
49.02
43.17
34.97
24.81
13.67
3.47
-3.24
-4.3
1.08
11.83
25.19
37.61
45.82
47.91
43.9
35.63
26.01
17.83
12.72
10.6
10.02
9.1
6.6
2.44
-2.42
-6.87
-10.35
-13.26
-16.61
-21.27
-27.33
-33.87
-39.28
-41.87
-40.59
-35.41
-27.25
-17.66
-8.18
0.05
6.59
11.59
15.39
18.27
20.24
21.08
20.62
18.96
16.51
13.86
11.55
9.81
8.56
7.55
6.46
5.15
3.57
1.7
-0.6
-3.56
-7.38
-11.95
-16.7
-20.6
-22.44
-21.17
-16.35
-8.3
2.0
13.16
23.79
32.74
39.23
42.86
43.56
41.6
37.58
32.33
26.79
21.73
17.58
14.32
11.67
9.21
6.7
4.12
1.59
-0.79
-3.07
-5.61
-8.87
-13.25
-18.8
-25.12
-31.22
-35.77
-37.46
-35.33
-29.26
-19.98
-8.92
2.26
12.07
19.64
24.73
27.57
28.61
28.29
26.92
24.74
22.02
19.09
16.34
14.1
12.51
11.48
10.73
9.88
8.64
6.82
4.33
1.1
-2.91
-7.76
-13.31
-19.12
-24.32
-27.8
-28.45
-25.54
-19.02
-9.57
1.56
12.93
23.25
31.66
37.82
41.84
44.18
45.49
46.44
47.59
49.3
51.64
54.43
57.4
60.36
63.36
66.62
70.32
74.35
78.21
81.03
81.9
80.16
75.64
68.75
60.45
52.15
45.57
42.46
44.15
51.08
62.35
75.86
88.8
98.43
102.97
101.84
95.58
85.21
71.71
55.7
37.62
18.1
-1.72
-20.22
-35.73
-47.16
-54.49
-58.95
-62.67
-67.99
-76.54
-88.56
-102.75
-116.79
-128.32
-136.01
-140.08
-141.99
-143.44
-145.32
-147.13
-147.38
-144.48
-137.76
-127.85
-116.33
-104.91
-94.78
-86.27
-79.06
-72.53
-66.0
-58.89
-50.68
-41.03
-29.93
-17.76
-5.21
7.01
18.39
28.75
38.14
46.67
54.35
61.17
67.01
71.61
74.51
75.17
73.2
68.77
62.76
56.61
51.99
50.33
52.57
59.04
69.49
83.22
99.15
115.92
132.17
146.83
159.26
169.33
177.13
182.68
185.79
186.19
183.79
178.89
172.0
163.58
153.82
142.67
129.96
115.53
99.16
80.6
59.77
37.1
13.9
-7.87
-26.14
-39.63
-48.35
-53.37
-56.26
-58.29
-60.14
-62.06
-64.28
-67.29
-71.59
-77.28
-83.74
-89.96
-95.05
-98.86
-101.98
-105.33
-109.44
-114.09
-118.3
-120.74
-120.31
-116.46
-109.42
-100.09
-89.76
-79.86
-71.73
-66.3
-63.84
-63.85
-64.88
-64.91
-62.13
-55.35
-44.57
-30.97
-16.67
-4.01
5.08
9.78
10.61
9.3
8.4
10.72
18.52
32.82
52.95
76.37
99.57
119.07
132.71
140.37
143.73
144.74
144.17
140.81
131.99
114.81
87.83
51.97
10.15
-33.72
-75.36
-110.62
-135.73
-147.54
-144.1
-125.65
-95.38
-59.31
-24.96
0.96
14.87
17.31
12.29
5.14
0.07
-1.39
-0.07
2.12
4.0
5.68
7.74
10.1
11.58
10.33
5.24
-2.96
-11.94
-19.25
-23.54
-24.87
-24.04
-21.36
-16.33
-7.95
4.07
18.63
33.48
46.29
55.73
61.87
65.69
68.26
69.97
70.51
69.25
65.93
61.04
55.81
51.64
49.56
49.93
52.35
56.03
60.07
63.6
65.65
65.1
60.67
51.4
37.31
19.77
1.26
-15.58
-28.93
-38.43
-44.87
-49.33
-52.35
-53.75
-52.98
-49.78
-44.67
-38.74
-33.0
-27.74
-22.44
-16.19
-8.38
0.91
10.99
20.9
29.81
37.09
42.09
43.97
41.92
35.36
24.44
10.27
-5.21
-19.68
-31.16
-38.54
-41.81
-41.86
-39.92
-37.23
-34.66
-32.67
-31.35
-30.58
-30.16
-29.85
-29.48
-28.96
-28.23
-27.22
-25.84
-24.06
-21.92
-19.65
-17.65
-16.28
-15.82
-16.25
-17.32
-18.74
-20.2
-21.53
-22.59
-23.3
-23.55
-23.35
-22.81
-22.14
-21.53
-21.09
-20.77
-20.45
-19.94
-19.06
-17.73
-16.01
-14.1
-12.33
-11.02
-10.34
-10.23
-10.48
-10.8
-10.98
-10.99
-10.99
-11.23
-11.93
-13.18
-14.94
-17.07
-19.22
-20.86
-21.3
-19.83
-16.08
-10.12
-2.63
5.34
12.73
18.76
23.16
26.08
27.86
28.71
28.58
27.22
24.35
19.97
14.47
8.51
2.9
-1.75
-5.13
-7.38
-9.02
-10.72
-13.01
-16.03
-19.46
-22.6
-24.71
-25.23
-23.93
-20.89
-16.37
-10.72
-4.45
1.74
7.07
10.77
12.55
12.64
11.66
10.26
8.68
6.74
4.11
0.7
-3.08
-6.48
-8.74
-9.53
-9.13
-8.25
-7.68
-7.99
-9.38
-11.79
-15.03
-18.83
-22.85
-26.53
-29.21
-30.29
-29.43
-26.73
-22.72
-18.16
-13.78
-10.07
-7.2
-5.1
-3.6
-2.55
-1.88
-1.61
-1.76
-2.37
-3.49
-5.15
-7.32
-9.91
-12.7
-15.39
-17.78
-19.82
-21.65
-23.57
-25.83
-28.51
-31.35
-33.82
-35.23
-35.01
-32.91
-29.12
-24.19
-18.85
-13.75
-9.29
-5.56
-2.45
0.13
2.18
3.54
4.0
3.44
1.92
-0.38
-3.21
-6.38
-9.82
-13.49
-17.31
-21.13
-24.73
-27.97
-30.87
-33.55
-36.08
-38.34
-39.89
-40.08
-38.28
-34.16
-27.84
-19.91
-11.33
-3.04
4.17
9.89
14.09
16.96
18.77
19.7
19.89
19.46
18.57
17.5
16.52
15.75
15.11
14.38
13.33
11.83
9.88
7.51
4.59
0.85
-4.0
-10.0
-16.6
-22.72
-26.91
-27.81
-24.71
-17.68
-7.57
4.27
16.41
27.63
37.14
44.58
49.87
52.98
53.75
51.92
47.23
39.76
30.07
19.22
8.56
-0.53
-6.92
-9.82
-8.91
-4.36
3.18
12.6
22.45
31.11
37.11
39.47
38.03
33.44
27.06
20.59
15.61
13.31
14.22
18.17
24.44
31.96
39.54
46.12
50.8
53.02
52.46
49.09
43.14
35.2
26.18
17.14
8.93
1.99
-3.86
-9.15
-14.36
-19.56
-24.36
-28.28
-31.18
-33.49
-35.96
-39.0
-42.21
-44.33
-43.83
-39.71
-32.1
-22.14
-11.43
-1.36
7.29
14.17
18.95
20.88
18.97
12.58
2.15
-10.55
-22.84
-32.1
-36.91
-37.48
-35.33
-32.27
-29.6
-27.81
-26.85
-26.74
-27.8
-30.49
-34.81
-39.98
-44.6
-47.27
-47.21
-44.58
-40.18
-34.9
-29.38
-23.85
-18.45
-13.36
-9.0
-5.64
-3.28
-1.54
0.08
1.87
3.61
4.56
3.82
0.84
-4.15
-9.94
-14.77
-17.03
-16.18
-13.2
-10.34
-10.2
-14.45
-23.05
-34.0
-44.11
-50.24
-50.56
-45.08
-35.5
-24.42
-14.3
-6.57
-1.37
2.17
5.3
8.91
13.38
18.56
23.99
28.93
32.25
32.47
28.65
21.48
13.63
8.96
10.94
20.84
36.99
55.42
71.56
82.55
88.45
91.98
96.76
105.37
118.4
134.8
152.87
171.01
187.83
201.81
211.1
213.69
207.88
192.58
167.46
133.07
91.18
45.12
-0.15
-38.74
-65.36
-77.5
-76.76
-68.46
-59.28
-54.38
-55.47
-61.09
-68.37
-75.03
-80.24
-84.15
-86.68
-86.86
-83.11
-74.42
-61.28
-45.81
-31.0
-19.56
-12.88
-10.68
-11.29
-12.52
-12.6
-10.73
-7.25
-3.14
0.53
3.17
4.73
5.49
5.61
4.95
3.32
0.84
-1.93
-4.23
-5.61
-6.36
-7.33
-9.41
-12.74
-16.45
-18.96
-18.71
-14.95
-8.02
0.77
9.83
17.88
24.31
29.22
33.07
36.22
38.52
39.35
37.9
33.89
27.92
21.45
16.05
12.51
10.42
8.48
5.44
0.94
-4.41
-9.66
-14.29
-18.65
-23.56
-29.48
-35.99
-41.82
-45.57
-46.46
-44.53
-40.4
-34.59
-27.38
-18.95
-9.86
-1.18
5.83
10.31
12.3
12.66
12.57
12.87
13.76
14.88
15.72
16.01
15.89
15.72
15.85
16.26
16.6
16.33
14.94
12.27
8.55
4.45
0.78
-1.77
-2.78
-2.2
-0.23
2.88
6.92
11.66
16.72
21.51
25.3
27.52
27.99
26.94
24.92
22.43
19.74
16.82
13.55
9.97
6.43
3.44
1.4
0.3
-0.28
-1.04
-2.6
-5.32
-9.24
-14.15
-19.72
-25.46
-30.73
-34.72
-36.7
-36.23
-33.43
-28.99
-23.84
-18.84
-14.5
-10.98
-8.3
-6.51
-5.79
-6.26
-7.85
-10.18
-12.7
-14.89
-16.46
-17.45
-18.1
-18.85
-20.07
-22.12
-25.18
-29.26
-34.14
-39.35
-44.17
-47.69
-48.84
-46.56
-40.12
-29.38
-15.05
1.4
18.15
33.64
46.94
57.83
66.47
72.97
77.2
78.96
78.25
75.57
71.73
67.49
63.14
58.34
52.33
44.45
34.45
22.63
9.55
-4.22
-18.26
-32.25
-45.83
-58.54
-69.74
-78.83
-85.26
-88.76
-89.49
-88.08
-85.52
-82.86
-80.97
-80.27
-80.73
-81.95
-83.14
-83.29
-81.23
-75.91
-66.71
-53.79
-38.24
-21.85
-6.59
6.09
15.58
22.11
26.32
28.77
29.66
28.92
26.45
22.55
17.98
13.96
11.77
12.26
15.57
21.12
27.83
34.6
40.61
45.45
48.89
50.76
50.79
48.8
44.89
39.53
33.52
27.75
22.83
19.04
16.25
14.15
12.44
10.91
9.37
7.65
5.47
2.48
-1.59
-6.73
-12.58
-18.33
-22.99
-25.73
-26.17
-24.6
-21.89
-19.19
-17.48
-17.37
-18.97
-22.06
-26.31
-31.34
-36.85
-42.49
-47.93
-52.88
-57.13
-60.57
-63.12
-64.56
-64.59
-62.92
-59.49
-54.67
-49.31
-44.44
-40.91
-38.82
-37.38
-34.85
-29.17
-18.7
-2.85
17.4
39.7
60.98
78.47
90.51
96.88
98.51
96.7
92.53
86.5
78.78
69.65
59.76
50.11
41.64
34.77
29.28
24.47
19.58
14.26
8.65
3.21
-1.64
-5.82
-9.6
-13.4
-17.38
-21.25
-24.22
-25.33
-23.88
-19.78
-13.66
-6.61
0.2
5.93
10.23
13.1
14.66
14.94
13.87
11.44
7.9
3.78
-0.22
-3.45
-5.64
-6.9
-7.63
-8.33
-9.37
-10.87
-12.85
-15.3
-18.28
-21.89
-25.93
-29.81
-32.54
-33.02
-30.48
-24.88
-17.0
-8.16
0.27
7.31
12.6
16.22
18.41
19.3
18.82
16.94
13.81
9.85
5.64
1.67
-1.75
-4.6
-6.95
-8.89
-10.42
-11.58
-12.59
-13.84
-15.81
-18.8
-22.62
-26.45
-29.08
-29.27
-26.29
-20.19
-11.8
-2.41
6.68
14.49
20.51
24.64
26.99
27.8
27.32
25.88
23.84
21.49
18.99
16.4
13.73
11.02
8.46
6.24
4.47
2.99
1.38
-0.88
-4.24
-8.86
-14.53
-20.7
-26.53
-31.05
-33.35
-32.74
-28.92
-22.08
-12.88
-2.4
8.14
17.61
25.11
30.15
32.67
32.95
31.57
29.23
26.52
23.88
21.48
19.26
17.11
14.94
12.73
10.49
8.28
6.02
3.64
0.98
-2.13
-5.91
-10.53
-16.07
-22.33
-28.66
-34.0
-37.11
-36.93
-33.03
-25.76
-16.19
-5.81
3.95
12.02
17.77
21.04
22.03
21.12
18.85
15.78
12.4
9.03
5.79
2.64
-0.45
-3.47
-6.3
-8.82
-11.0
-12.99
-15.07
-17.59
-20.94
-25.41
-31.24
-38.45
-46.65
-54.79
-61.23
-63.99
-61.43
-52.88
-39.05
-21.9
-3.95
12.55
26.26
36.78
44.36
49.32
51.71
51.36
48.27
42.87
36.13
29.19
22.89
17.46
12.53
7.51
2.1
-3.34
-7.92
-10.62
-10.93
-9.18
-6.49
-4.34
-3.92
-5.72
-9.43
-14.04
-18.3
-21.01
-21.22
-18.45
-12.65
-4.24
5.98
16.94
27.56
36.97
44.56
50.04
53.35
54.56
53.89
51.68
48.44
44.79
41.36
38.56
36.53
35.05
33.69
32.0
29.67
26.7
23.34
19.97
16.88
14.16
11.65
8.95
5.62
1.26
-4.38
-11.26
-18.93
-26.59
-33.02
-36.97
-37.39
-33.87
-26.78
-17.16
-6.37
4.33
14.03
22.28
28.87
33.67
36.53
37.4
36.41
34.07
31.14
28.41
26.43
25.32
24.82
24.44
23.78
22.61
20.99
19.11
17.2
15.44
13.97
12.91
12.35
12.21
12.27
12.14
11.52
10.47
9.62
10.04
12.89
18.9
28.0
39.37
51.73
63.78
74.53
83.31
89.76
93.66
95.04
94.24
92.01
89.36
87.28
86.15
85.45
83.75
79.35
70.96
58.33
42.31
24.37
5.72
-13.28
-33.37
-55.77
-81.15
-108.67
-135.8
-159.06
-175.49
-183.98
-185.85
-184.14
-182.26
-182.54
-185.62
-190.62
-196.05
-200.44
-202.43
-200.54
-193.02
-178.44
-156.62
-129.3
-99.7
-71.3
-46.33
-25.06
-6.22
11.74
29.58
46.8
62.27
75.12
85.35
93.64
100.67
106.6
110.81
112.25
109.87
102.72
90.03
71.52
47.98
21.72
-3.79
-25.1
-40.3
-49.67
-55.1
-58.54
-60.36
-59.05
-52.29
-39.01
-20.93
-2.33
11.72
17.85
16.0
9.05
1.11
-4.68
-7.32
-7.77
-7.77
-8.64
-10.73
-13.46
-16.03
-17.99
-19.45
-20.79
-22.23
-23.61
-24.51
-24.61
-24.04
-23.43
-23.62
-25.12
-27.8
-30.75
-32.59
-31.87
-27.54
-19.26
-7.53
6.47
21.14
34.74
45.8
53.34
57.02
57.05
54.14
49.17
43.06
36.57
30.37
25.04
20.96
18.27
16.73
15.8
14.81
13.19
10.75
7.6
4.01
0.1
-4.39
-9.99
-17.21
-26.02
-35.58
-44.23
-49.98
-51.12
-46.93
-37.84
-25.28
-11.11
2.91
15.46
25.75
33.36
38.06
39.78
38.77
35.62
31.23
26.56
22.37
18.97
16.2
13.67
10.99
8.04
5.01
2.27
0.11
-1.5
-2.86
-4.55
-7.15
-11.13
-16.57
-23.19
-30.17
-36.31
-40.19
-40.49
-36.48
-28.27
-16.85
-3.83
9.08
20.5
29.67
36.33
40.55
42.42
42.06
39.68
35.74
30.97
26.17
21.98
18.64
16.0
13.72
11.51
9.34
7.43
6.01
5.12
4.52
3.68
2.02
-0.89
-5.13
-10.34
-15.77
-20.36
-22.91
-22.35
-18.05
-9.99
1.16
14.26
28.0
41.34
53.65
64.76
74.71
83.62
91.51
98.31
104.06
108.91
113.18
117.26
121.48
126.07
131.32
137.58
145.25
154.66
165.83
178.28
190.94
202.38
211.24
216.71
218.87
218.8
218.06
218.0
219.25
221.4
223.17
222.68
217.6
205.25
182.94
148.72
102.19
45.54
-16.39
-76.93
-129.37
-169.03
-194.89
-209.82
-219.06
-227.77
-238.91
-252.55
-266.7
-278.83
-287.04
-290.18
-287.22
-276.85
-257.81
-230.18
-196.58
-162.17
-133.05
-113.74
-105.17
-104.51
-106.8
-107.46
-103.95
-96.06
-84.74
-70.84
-54.54
-35.53
-13.89
9.22
31.34
49.38
60.64
63.79
59.32
49.34
36.91
24.93
15.46
9.37
6.45
5.94
6.92
8.66
10.6
12.23
12.94
12.03
8.91
3.52
-3.39
-10.23
-15.05
-16.17
-12.87
-5.68
3.8
13.54
21.8
27.7
31.22
33.0
33.82
34.27
34.52
34.49
34.0
33.01
31.69
30.44
29.69
29.71
30.49
31.67
32.68
32.96
32.16
30.25
27.39
23.78
19.55
14.78
9.68
4.73
0.64
-1.95
-2.83
-2.37
-1.39
-0.7
-0.67
-0.93
-0.68
0.97
4.46
9.63
15.74
21.76
26.68
29.69
30.26
28.22
23.69
17.08
9.05
0.42
-7.96
-15.28
-20.99
-24.94
-27.37
-29.0
-30.77
-33.57
-37.91
-43.66
-49.93
-55.27
-58.1
-57.16
-52.05
-43.33
-32.34
-20.78
-10.2
-1.69
4.07
6.7
5.97
1.98
-4.6
-12.46
-19.82
-25.06
-27.19
-26.2
-22.81
-18.12
-13.23
-8.96
-5.96
-4.63
-5.12
-7.13
-9.99
-12.92
-15.45
-17.61
-19.76
-22.12
-24.24
-24.96
-22.88
-17.15
-8.08
2.87
13.62
22.46
28.68
32.65
35.35
37.58
39.47
40.56
40.24
38.33
35.32
32.14
29.64
28.07
26.93
25.26
22.25
17.67
11.96
5.88
0.04
-5.55
-11.36
-18.04
-25.93
-34.72
-43.49
-50.99
-56.05
-58.01
-56.91
-53.39
-48.53
-43.47
-39.11
-35.9
-33.83
-32.58
-31.72
-30.96
-30.25
-29.69
-29.42
-29.44
-29.58
-29.61
-29.36
-28.83
-28.16
-27.6
-27.36
-27.57
-28.32
-29.63
-31.45
-33.58
-35.56
-36.66
-35.97
-32.65
-26.17
-16.62
-4.72
8.29
20.91
31.84
40.17
45.62
48.43
49.17
48.41
46.62
44.09
41.07
37.82
34.62
31.67
29.05
26.65
24.26
21.73
19.08
16.45
13.97
11.68
9.36
6.67
3.23
-1.05
-5.89
-10.51
-13.88
-14.99
-13.27
-8.78
-2.29
5.04
12.03
17.84
22.09
24.76
26.05
26.19
25.42
24.05
22.5
21.2
20.55
20.78
21.95
23.98
26.69
29.81
33.0
35.8
37.76
38.54
37.98
36.12
33.14
29.34
25.14
21.19
18.34
17.46
19.18
23.57
30.03
37.45
44.55
50.33
54.33
56.66
57.82
58.3
58.38
57.95
56.71
54.4
51.03
47.02
43.07
39.94
38.05
37.27
36.87
35.92
33.68
30.0
25.29
20.21
15.31
10.72
6.24
1.51
-3.69
-9.59
-16.57
-25.34
-36.63
-50.41
-64.94
-76.98
-82.48
-78.23
-63.53
-40.99
-15.86
5.92
20.02
25.04
21.89
12.95
0.76
-12.85
-26.73
-40.32
-53.17
-64.96
-75.73
-86.77
-99.45
-113.78
-127.6
-137.31
-139.67
-133.61
-120.89
-105.3
-91.92
-84.5
-84.43
-90.83
-101.83
-115.9
-132.2
-150.0
-161.61
-159.6
-139.98
-105.25
-63.03
-21.19
14.99
43.36
63.43
75.2
77.6
69.29
50.14
22.79
-6.71
-30.09
-39.36
-30.37
-4.95
28.56
58.84
76.38
77.28
64.03
42.07
18.74
0.39
-9.1
-8.89
0.01
15.58
35.02
54.76
70.77
79.88
80.82
74.57
63.69
51.27
39.88
30.97
25.02
21.82
20.9
21.38
22.08
21.75
19.55
15.35
9.74
3.78
-1.26
-4.3
-4.71
-2.47
1.97
7.71
13.7
18.97
22.9
25.3
26.43
26.64
26.14
24.98
23.03
20.24
16.71
12.76
8.87
5.48
2.86
0.99
-0.3
-1.32
-2.33
-3.47
-4.71
-5.96
-7.18
-8.53
-10.33
-12.86
-16.23
-20.07
-23.61
-25.93
-26.28
-24.46
-20.87
-16.36
-11.87
-8.09
-5.26
-3.23
-1.65
-0.22
1.12
2.23
2.94
3.17
3.02
2.69
2.33
1.92
1.29
0.25
-1.23
-2.95
-4.56
-5.78
-6.6
-7.35
-8.5
-10.36
-12.77
-15.04
-16.16
-15.27
-12.07
-6.95
-0.93
4.79
9.25
11.99
12.97
12.48
10.81
8.22
5.02
1.59
-1.62
-4.17
-5.9
-6.92
-7.58
-8.27
-9.26
-10.58
-12.09
-13.61
-15.0
-16.28
-17.58
-19.07
-20.85
-22.79
-24.5
-25.33
-24.6
-21.78
-16.69
-9.6
-1.17
7.69
16.02
23.0
28.01
30.84
31.59
30.69
28.73
26.35
23.96
21.78
19.77
17.77
15.62
13.15
10.27
6.94
3.24
-0.6
-4.27
-7.44
-9.94
-11.73
-12.87
-13.36
-13.01
-11.51
-8.6
-4.38
0.7
5.85
10.32
13.64
15.71
16.7
16.81
16.12
14.44
11.5
7.1
1.27
-5.53
-12.59
-19.01
-24.06
-27.41
-29.17
-29.8
-29.82
-29.6
-29.22
-28.6
-27.72
-26.69
-25.78
-25.1
-24.47
-23.37
-21.11
-17.19
-11.59
-4.85
2.12
8.34
13.13
16.29
18.01
18.72
18.83
18.57
18.02
17.13
15.92
14.44
12.81
11.12
9.44
7.83
6.34
4.99
3.8
2.68
1.44
-0.13
-2.16
-4.56
-7.0
-8.94
-9.8
-9.14
-6.83
-3.07
1.65
6.75
11.73
16.19
19.91
22.64
24.14
24.09
22.36
19.09
14.93
10.98
8.53
8.66
11.85
17.82
25.61
33.94
41.6
47.82
52.48
55.98
58.95
61.84
64.71
67.17
68.72
69.03
68.19
66.65
64.92
63.23
61.38
58.87
55.23
50.36
44.57
38.46
32.47
26.72
20.92
14.73
7.98
0.87
-6.16
-12.58
-18.08
-22.61
-26.35
-29.54
-32.38
-35.0
-37.53
-40.09
-42.75
-45.38
-47.59
-48.83
-48.61
-46.72
-43.38
-39.11
-34.55
-30.24
-26.48
-23.39
-21.04
-19.47
-18.74
-18.83
-19.51
-20.45
-21.29
-21.82
-22.06
-22.22
-22.55
-23.18
-24.05
-24.95
-25.67
-26.22
-26.82
-27.8
-29.38
-31.43
-33.43
-34.61
-34.25
-32.03
-28.12
-23.07
-17.59
-12.33
-7.76
-4.17
-1.72
-0.45
-0.19
-0.55
-0.99
-0.97
-0.26
1.04
2.56
3.9
4.86
5.5
6.07
6.73
7.53
8.3
8.79
8.81
8.33
7.47
6.46
5.68
5.49
6.25
8.14
11.09
14.74
18.55
21.99
24.69
26.51
27.45
27.56
26.79
25.05
22.34
18.84
14.92
11.01
7.43
4.26
1.36
-1.54
-4.7
-8.16
-11.83
-15.49
-18.99
-22.25
-25.26
-27.95
-30.12
-31.34
-31.14
-29.19
-25.47
-20.35
-14.55
-8.82
-3.78
0.22
3.14
5.07
6.16
6.49
6.21
5.59
5.1
5.29
6.58
9.01
12.17
15.29
17.62
18.73
18.6
17.55
15.96
14.06
11.96
9.89
8.32
7.81
8.79
11.11
14.04
16.45
17.34
16.29
13.53
9.77
5.74
1.87
-1.84
-5.68
-9.9
-14.56
-19.51
-24.39
-28.81
-32.49
-35.28
-37.24
-38.58
-39.53
-40.27
-40.94
-41.58
-42.26
-43.01
-43.74
-44.19
-43.92
-42.41
-39.33
-34.7
-28.97
-22.87
-17.16
-12.41
-8.88
-6.57
-5.33
-4.98
-5.29
-5.99
-6.79
-7.41
-7.71
-7.7
-7.53
-7.45
-7.69
-8.36
-9.26
-9.84
-9.27
-6.67
-1.58
5.75
14.38
22.91
30.07
35.21
38.46
40.42
41.59
41.99
41.1
38.26
33.26
26.75
20.02
14.54
11.17
9.91
10.09
10.97
12.19
13.86
16.11
18.49
19.96
19.49
17.07
14.29
13.78
17.72
26.25
37.1
46.76
52.44
53.6
51.86
49.67
48.51
48.16
47.29
44.74
40.6
36.11
32.65
30.73
29.64
28.09
25.13
20.78
15.8
11.11
7.22
3.98
0.75
-3.3
-8.99
-16.88
-27.09
-39.12
-51.96
-64.28
-74.86
-82.88
-88.09
-90.53
-90.46
-88.05
-83.43
-76.84
-68.65
-59.42
-49.77
-40.32
-31.57
-23.84
-17.31
-11.99
-7.79
-4.51
-1.89
0.34
2.37
4.37
6.39
8.47
10.58
12.65
14.56
16.23
17.57
18.6
19.4
20.14
20.91
21.65
22.16
22.16
21.53
20.48
19.45
18.97
19.33
20.4
21.63
22.34
22.07
20.76
18.73
16.42
14.15
11.93
9.57
6.89
3.91
0.98
-1.54
-3.36
-4.57
-5.59
-6.89
-8.76
-11.11
-13.56
-15.62
-17.06
-17.97
-18.68
-19.46
-20.3
-20.82
-20.44
-18.67
-15.31
-10.55
-4.83
1.33
7.46
13.24
18.48
23.06
26.94
30.13
32.7
34.76
36.46
37.92
39.18
40.19
40.78
40.7
39.72
37.73
34.79
31.16
27.19
23.17
19.26
15.45
11.63
7.74
3.85
0.17
-3.07
-5.71
-7.69
-9.0
-9.67
-9.78
-9.47
-9.05
-8.93
-9.47
-10.85
-12.95
-15.41
-17.83
-19.94
-21.69
-23.2
-24.59
-25.87
-26.95
-27.74
-28.21
-28.5
-28.79
-29.24
-29.86
-30.54
-31.12
-31.4
-31.26
-30.61
-29.32
-27.23
-24.19
-20.17
-15.36
-10.16
-5.13
-0.75
2.72
5.29
7.17
8.59
9.64
10.29
10.41
9.92
8.83
7.29
5.47
3.53
1.63
-0.2
-1.93
-3.66
-5.5
-7.52
-9.7
-11.85
-13.6
-14.6
-14.59
-13.51
-11.46
-8.66
-5.32
-1.68
1.98
5.35
8.11
9.98
10.87
10.88
10.27
9.34
8.37
7.47
6.6
5.66
4.51
3.08
1.38
-0.52
-2.52
-4.65
-7.01
-9.75
-12.86
-16.08
-18.94
-20.89
-21.55
-20.93
-19.38
-17.41
-15.49
-13.8
-12.26
-10.67
-8.95
-7.19
-5.68
-4.71
-4.37
-4.56
-5.0
-5.41
-5.58
-5.51
-5.31
-5.15
-5.19
-5.5
-6.11
-7.09
-8.58
-10.74
-13.69
-17.27
-21.03
-24.24
-26.15
-26.25
-24.51
-21.33
-17.35
-13.2
-9.29
-5.83
-2.89
-0.5
1.26
2.38
2.99
3.33
3.64
4.05
4.44
4.51
3.95
2.58
0.47
-2.2
-5.17
-8.31
-11.6
-15.13
-18.97
-23.02
-26.93
-30.2
-32.21
-32.49
-30.76
-27.04
-21.63
-15.06
-7.94
-0.84
5.77
11.62
16.54
20.51
23.49
25.49
26.56
26.79
26.39
25.64
24.81
24.1
23.57
23.16
22.74
22.14
21.23
19.88
17.98
15.48
12.48
9.27
6.3
4.14
3.27
3.97
6.22
9.7
13.9
18.21
22.08
25.08
26.92
27.46
26.73
24.87
22.16
18.91
15.42
11.91
8.53
5.39
2.54
0.03
-2.12
-3.92
-5.46
-6.92
-8.51
-10.46
-12.91
-15.83
-18.9
-21.56
-23.07
-22.79
-20.28
-15.6
-9.18
-1.83
5.59
12.23
17.48
21.01
22.73
22.8
21.51
19.19
16.18
12.79
9.32
6.07
3.29
1.17
-0.3
-1.25
-2.0
-2.82
-3.95
-5.58
-7.76
-10.5
-13.61
-16.69
-19.13
-20.22
-19.37
-16.33
-11.3
-4.86
2.21
9.17
15.42
20.58
24.47
27.04
28.29
28.24
26.99
24.66
21.45
17.64
13.58
9.61
5.97
2.76
-0.1
-2.83
-5.73
-9.06
-13.01
-17.68
-22.93
-28.41
-33.52
-37.5
-39.59
-39.22
-36.2
-30.76
-23.5
-15.27
-6.97
0.57
6.73
11.17
13.83
14.94
14.9
14.15
13.04
11.8
10.5
9.16
7.82
6.5
5.27
4.14
3.04
1.81
0.28
-1.78
-4.51
-7.98
-12.06
-16.37
-20.29
-23.02
-23.78
-21.99
-17.53
-10.76
-2.48
6.25
14.43
21.26
26.31
29.49
30.93
30.92
29.79
27.88
25.5
22.97
20.53
18.31
16.3
14.37
12.33
10.09
7.63
5.07
2.48
-0.25
-3.38
-7.27
-12.04
-17.44
-22.79
-27.17
-29.73
-29.92
-27.61
-23.03
-16.64
-9.06
-1.07
6.42
12.52
16.58
18.42
18.36
17.09
15.37
13.76
12.45
11.34
10.23
8.97
7.54
6.0
4.42
2.84
1.26
-0.39
-2.22
-4.39
-7.13
-10.59
-14.77
-19.34
-23.62
-26.71
-27.74
-26.1
-21.7
-14.97
-6.74
2.04
10.46
17.82
23.68
27.83
30.23
31.0
30.37
28.69
26.35
23.8
21.47
19.75
18.97
19.25
20.49
22.32
24.16
25.35
25.39
24.09
21.66
18.6
15.41
12.3
8.97
4.76
-0.98
-8.34
-16.57
-24.1
-29.04
-29.95
-26.42
-19.36
-10.63
-2.39
3.73
7.13
8.32
8.52
8.93
10.37
13.15
17.18
22.1
27.07
30.57
30.43
24.92
14.13
1.07
-8.91
-10.17
0.34
21.14
46.57
69.28
83.55
87.45
82.94
73.91
63.78
54.02
44.28
33.72
22.19
10.66
0.71
-6.29
-9.85
-10.45
-9.15
-7.09
-5.05
-3.21
-1.32
0.98
3.82
6.84
9.28
10.3
9.41
6.74
3.01
-0.82
-3.94
-6.05
-7.39
-8.49
-9.86
-11.67
-13.69
-15.48
-16.61
-16.88
-16.37
-15.33
-14.02
-12.62
-11.22
-9.91
-8.81
-7.94
-7.21
-6.42
-5.47
-4.46
-3.69
-3.29
-2.88
-1.41
2.5
9.84
20.45
32.78
44.35
52.7
56.34
55.24
50.44
43.32
34.89
25.59
15.62
5.45
-3.96
-11.38
-15.88
-17.44
-17.07
-16.51
-17.5
-21.11
-27.44
-35.68
-44.54
-52.74
-59.35
-63.86
-66.1
-66.09
-63.97
-59.99
-54.59
-48.37
-42.07
-36.41
-31.97
-28.98
-27.35
-26.65
-26.33
-25.88
-24.98
-23.59
-21.87
-20.09
-18.48
-17.21
-16.32
-15.8
-15.64
-15.77
-16.13
-16.63
-17.2
-17.84
-18.69
-19.98
-21.91
-24.57
-27.72
-30.86
-33.32
-34.46
-33.9
-31.6
-27.83
-23.05
-17.74
-12.34
-7.18
-2.54
1.32
4.18
5.92
6.6
6.47
5.91
5.31
4.94
4.9
5.14
5.57
6.14
6.86
7.76
8.82
9.89
10.71
10.98
10.51
9.24
7.22
4.63
1.7
-1.28
-3.97
-5.91
-6.65
-5.89
-3.59
-0.06
4.09
8.17
11.55
13.87
15.05
15.18
14.49
13.2
11.59
9.93
8.46
7.29
6.35
5.43
4.28
2.74
0.85
-1.13
-2.94
-4.4
-5.59
-6.8
-8.43
-10.76
-13.85
-17.51
-21.45
-25.27
-28.59
-31.02
-32.15
-31.65
-29.39
-25.64
-21.11
-16.75
-13.44
-11.61
-11.02
-10.9
-10.41
-9.06
-7.06
-5.15
-4.12
-4.21
-4.88
-5.03
-3.61
-0.17
5.04
11.43
18.49
26.07
34.0
41.51
46.8
47.45
41.53
28.86
11.69
-5.87
-19.42
-26.08
-25.31
-18.78
-9.36
-0.06
6.73
9.48
7.61
1.44
-7.75
-17.93
-26.82
-32.57
-34.5
-33.26
-30.46
-27.83
-26.4
-26.2
-26.46
-26.31
-25.34
-23.86
-22.56
-22.08
-22.58
-23.63
-24.58
-25.05
-25.16
-25.33
-25.74
-25.96
-24.93
-21.61
-15.59
-7.41
1.7
10.44
18.05
24.49
30.17
35.38
39.89
42.92
43.32
40.11
32.93
22.44
10.29
-1.23
-9.91
-14.38
-14.49
-11.29
-6.42
-1.4
2.93
6.51
9.79
13.3
17.42
22.36
28.28
35.42
44.07
54.46
66.58
80.1
94.37
108.54
121.7
133.14
142.47
149.71
155.19
159.33
162.59
165.41
168.39
172.35
178.21
186.59
197.29
209.1
220.11
228.48
233.08
233.91
231.7
227.18
220.42
210.69
196.99
178.99
157.68
135.37
114.92
98.63
87.41
80.58
76.44
73.08
69.09
63.66
56.37
46.91
35.04
20.87
5.17
-10.69
-25.18
-37.23
-46.59
-53.81
-59.75
-65.08
-70.04
-74.54
-78.55
-82.35
-86.53
-91.78
-98.55
-106.86
-116.31
-126.2
-135.82
-144.58
-152.16
-158.55
-163.94
-168.52
-172.28
-175.0
-176.45
-176.59
-175.72
-174.37
-172.99
-171.65
-169.95
-167.14
-162.42
-155.16
-145.09
-132.42
-117.89
-102.75
-88.53
-76.77
-68.44
-63.67
-61.67
-61.01
-60.06
-57.36
-51.95
-43.59
-33.03
-21.96
-12.79
-7.81
-8.41
-14.32
-23.6
-33.3
-40.52
-43.5
-42.01
-37.06
-30.14
-22.55
-15.04
-8.12
-2.3
1.75
3.6
3.53
2.85
3.63
7.93
16.86
30.05
45.81
61.77
75.72
86.13
92.3
94.35
93.03
89.58
85.42
81.83
79.5
78.41
78.08
77.88
77.55
77.15
76.9
76.7
75.99
73.73
68.68
59.64
45.73
26.6
2.66
-24.62
-52.73
-78.42
-98.67
-111.64
-117.35
-117.69
-115.46
-113.38
-113.33
-116.08
-121.21
-127.13
-131.19
-130.4
-122.61
-107.95
-89.26
-71.02
-57.13
-48.92
-44.51
-40.39
-33.84
-24.8
-15.75
-9.76
-8.22
-9.94
-12.16
-12.62
-10.98
-8.65
-7.18
-6.83
-6.54
-5.14
-2.73
-1.24
-3.38
-10.86
-23.08
-37.19
-49.36
-56.61
-57.94
-54.38
-48.04
-41.0
-34.69
-29.77
-26.33
-24.01
-21.96
-18.87
-13.46
-5.24
4.72
13.63
17.93
14.74
3.33
-14.23
-33.71
-50.46
-61.32
-65.72
-65.49
-63.49
-61.85
-60.8
-58.71
-53.25
-42.75
-27.05
-7.41
14.18
35.84
56.17
74.26
89.64
102.08
111.59
118.36
122.69
125.21
126.81
128.55
131.44
135.9
141.3
145.85
147.11
143.02
133.0
118.28
101.59
85.87
72.96
62.91
54.04
43.78
29.75
10.86
-12.01
-36.38
-58.98
-76.9
-88.24
-92.29
-89.39
-80.78
-68.52
-55.38
-44.35
-37.8
-36.65
-39.83
-44.66
-47.92
-47.25
-42.11
-33.78
-24.56
-16.63
-11.43
-9.42
-10.57
-14.39
-19.96
-26.13
-31.74
-36.08
-38.98
-40.8
-42.04
-43.0
-43.39
-42.43
-39.28
-33.62
-26.03
-17.84
-10.74
-6.06
-4.25
-4.77
-6.23
-6.99
-5.72
-2.0
3.61
9.73
14.94
18.31
19.8
20.04
19.7
19.22
18.52
17.32
15.32
12.54
9.32
6.12
3.26
0.74
-1.69
-4.5
-7.98
-12.12
-16.29
-19.41
-20.33
-18.27
-13.36
-6.56
0.53
6.4
10.13
11.69
11.6
10.62
9.32
7.99
6.73
5.55
4.41
3.18
1.7
-0.12
-2.16
-4.07
-5.35
-5.62
-4.89
-3.58
-2.35
-1.82
-2.33
-3.93
-6.32
-9.05
-11.53
-13.08
-13.1
-11.17
-7.31
-2.04
3.79
9.21
13.47
16.22
17.42
17.32
16.25
14.57
12.68
10.93
9.57
8.62
7.84
6.85
5.32
3.22
0.83
-1.33
-2.83
-3.58
-3.92
-4.54
-6.08
-8.8
-12.35
-15.77
-17.85
-17.62
-14.73
-9.63
-3.43
2.57
7.28
10.2
11.37
11.24
10.29
8.88
7.2
5.35
3.48
1.83
0.65
0.03
-0.14
-0.21
-0.6
-1.61
-3.3
-5.5
-7.83
-9.97
-11.75
-13.17
-14.36
-15.36
-16.01
-15.92
-14.62
-11.79
-7.47
-2.18
3.27
8.0
11.37
13.11
13.35
12.39
10.57
8.13
5.22
2.03
-1.19
-4.14
-6.57
-8.38
-9.63
-10.5
-11.15
-11.68
-12.09
-12.35
-12.42
-12.44
-12.55
-12.9
-13.49
-14.01
-13.93
-12.68
-9.91
-5.73
-0.72
4.35
8.72
11.97
14.07
15.25
15.76
15.77
15.26
14.19
12.58
10.59
8.51
6.63
5.17
4.21
3.71
3.56
3.61
3.72
3.72
3.4
2.53
0.9
-1.54
-4.53
-7.46
-9.55
-10.06
-8.61
-5.37
-1.04
3.45
7.22
9.78
11.05
11.25
10.69
9.58
7.99
5.95
3.6
1.2
-0.89
-2.37
-3.17
-3.47
-3.6
-3.85
-4.37
-5.12
-5.97
-6.83
-7.75
-8.85
-10.23
-11.72
-12.88
-13.11
-11.91
-9.09
-4.94
-0.09
4.72
8.87
12.02
14.08
15.1
15.13
14.23
12.5
10.12
7.38
4.61
2.09
-0.0
-1.6
-2.77
-3.64
-4.39
-5.19
-6.17
-7.42
-8.98
-10.84
-12.94
-15.03
-16.72
-17.47
-16.82
-14.49
-10.68
-5.96
-1.15
2.96
5.89
7.55
8.14
7.95
7.28
6.33
5.21
3.98
2.64
1.13
-0.63
-2.74
-5.21
-7.94
-10.75
-13.46
-15.97
-18.34
-20.72
-23.24
-25.84
-28.24
-29.97
-30.49
-29.38
-26.46
-21.9
-16.17
-9.92
-3.88
1.33
5.31
7.86
9.02
8.98
7.93
6.12
3.74
1.05
-1.71
-4.21
-6.21
-7.55
-8.25
-8.51
-8.64
-9.0
-9.95
-11.74
-14.48
-18.08
-22.19
-26.19
-29.29
-30.7
-29.89
-26.69
-21.39
-14.73
-7.71
-1.39
3.37
6.15
7.01
6.47
5.2
3.79
2.49
1.29
-0.04
-1.62
-3.41
-5.18
-6.69
-7.88
-8.88
-10.05
-11.73
-14.18
-17.35
-20.93
-24.29
-26.64
-27.2
-25.43
-21.25
-15.06
-7.63
0.1
7.26
13.22
17.54
20.05
20.71
19.65
17.18
13.77
9.99
6.45
3.59
1.58
0.35
-0.4
-1.07
-2.04
-3.58
-5.92
-9.19
-13.37
-18.18
-23.04
-27.02
-29.12
-28.56
-25.05
-18.91
-10.98
-2.36
5.91
13.02
18.49
22.08
23.79
23.78
22.37
19.95
17.05
14.13
11.54
9.44
7.81
6.51
5.32
4.02
2.36
0.06
-3.11
-7.25
-12.06
-16.84
-20.56
-22.12
-20.73
-16.22
-9.01
-0.04
9.63
18.99
27.22
33.68
37.88
39.51
38.52
35.22
30.27
24.57
19.08
14.61
11.69
10.51
10.88
12.33
14.12
15.38
15.28
13.17
8.88
2.81
-4.04
-10.23
-14.29
-15.09
-12.26
-6.24
1.89
10.72
19.02
25.91
30.98
34.14
35.46
35.07
33.15
30.02
26.14
22.09
18.44
15.6
13.73
12.71
12.19
11.75
11.01
9.67
7.57
4.69
1.2
-2.39
-5.33
-6.67
-5.61
-1.81
4.43
12.23
20.46
28.08
34.47
39.36
42.7
44.43
44.37
42.42
38.74
33.8
28.47
23.63
19.98
17.75
16.74
16.4
15.99
14.94
12.82
9.5
5.08
-0.06
-5.34
-9.96
-13.02
-13.65
-11.29
-5.9
1.96
11.25
20.7
29.16
35.74
39.94
41.58
40.8
37.96
33.67
28.65
23.61
19.12
15.47
12.73
10.75
9.24
7.8
5.99
3.33
-0.48
-5.4
-11.01
-16.43
-20.58
-22.45
-21.4
-17.38
-10.87
-2.69
6.19
14.97
22.96
29.66
34.58
37.35
37.68
35.61
31.54
26.25
20.68
15.66
11.75
9.08
7.47
6.53
5.83
4.96
3.53
1.2
-2.29
-6.94
-12.35
-17.59
-21.38
-22.42
-19.83
-13.49
-4.14
6.89
18.07
28.09
36.08
41.59
44.5
44.88
42.96
39.21
34.3
29.06
24.27
20.52
18.0
16.59
15.94
15.57
15.06
13.98
11.98
8.83
4.57
-0.34
-4.98
-8.11
-8.55
-5.61
0.67
9.42
19.24
28.62
36.24
41.29
43.49
42.95
40.11
35.54
29.91
23.87
18.0
12.78
8.57
5.53
3.63
2.63
2.11
1.58
0.55
-1.38
-4.43
-8.67
-13.89
-19.53
-24.73
-28.43
-29.61
-27.67
-22.65
-15.29
-6.83
1.4
8.3
13.22
15.99
16.76
15.87
13.7
10.66
7.16
3.65
0.56
-1.8
-3.31
-4.13
-4.6
-5.14
-6.1
-7.66
-9.86
-12.65
-16.02
-19.9
-24.1
-28.16
-31.33
-32.79
-31.88
-28.38
-22.68
-15.64
-8.32
-1.68
3.63
7.34
9.43
10.06
9.39
7.71
5.4
3.02
1.26
0.74
1.86
4.61
8.59
13.02
16.99
19.71
20.64
19.58
16.64
12.13
6.59
0.75
-4.43
-7.93
-8.89
-6.89
-2.17
4.39
11.49
17.88
22.62
25.3
25.99
25.01
22.77
19.64
15.97
12.12
8.45
5.31
2.9
1.29
0.36
-0.16
-0.62
-1.36
-2.62
-4.54
-7.2
-10.55
-14.49
-18.71
-22.71
-25.78
-27.16
-26.32
-23.14
-18.04
-11.8
-5.31
0.65
5.64
9.52
12.26
13.91
14.53
14.19
13.12
11.64
10.13
8.94
8.27
8.16
8.45
8.89
9.14
8.94
8.12
6.67
4.64
2.09
-0.99
-4.62
-8.68
-12.78
-16.21
-18.18
-18.04
-15.67
-11.5
-6.48
-1.64
2.14
4.39
5.08
4.42
2.8
0.54
-2.03
-4.69
-7.19
-9.27
-10.7
-11.39
-11.44
-11.18
-10.98
-11.13
-11.64
-12.26
-12.69
-12.79
-12.76
-13.05
-14.1
-16.02
-18.36
-20.26
-20.79
-19.36
-15.96
-11.14
-5.79
-0.8
3.19
5.89
7.35
7.81
7.53
6.74
5.6
4.25
2.83
1.53
0.55
-0.01
-0.2
-0.2
-0.27
-0.59
-1.19
-1.94
-2.74
-3.61
-4.79
-6.57
-9.06
-12.0
-14.74
-16.43
-16.4
-14.42
-10.77
-6.14
-1.34
2.93
6.23
8.36
9.31
9.2
8.25
6.77
5.1
3.55
2.32
1.48
0.92
0.51
0.08
-0.48
-1.21
-2.09
-3.08
-4.16
-5.37
-6.87
-8.81
-11.3
-14.21
-17.16
-19.49
-20.46
-19.54
-16.6
-12.0
-6.53
-1.13
3.37
6.49
8.12
8.47
7.89
6.77
5.44
4.19
3.25
2.78
2.8
3.17
3.65
3.96
3.82
3.12
1.9
0.31
-1.44
-3.18
-4.9
-6.69
-8.75
-11.22
-14.06
-16.91
-19.2
-20.23
-19.49
-16.9
-12.82
-8.02
-3.37
0.35
2.68
3.49
2.93
1.37
-0.69
-2.73
-4.3
-5.08
-5.03
-4.36
-3.44
-2.67
-2.31
-2.43
-2.95
-3.72
-4.62
-5.61
-6.74
-8.12
-9.86
-12.09
-14.76
-17.64
-20.22
-21.81
-21.69
-19.43
-15.09
-9.25
-2.88
3.03
7.69
10.71
12.08
12.0
10.76
8.66
6.02
3.2
0.61
-1.33
-2.42
-2.68
-2.37
-1.89
-1.64
-1.85
-2.54
-3.58
-4.78
-6.03
-7.38
-8.98
-11.0
-13.42
-15.87
-17.73
-18.26
-16.9
-13.54
-8.63
-3.01
2.39
6.85
10.06
12.07
13.1
13.39
13.05
12.11
10.65
8.76
6.63
4.43
2.3
0.3
-1.56
-3.26
-4.83
-6.33
-7.84
-9.42
-11.11
-12.92
-14.79
-16.63
-18.26
-19.37
-19.57
-18.46
-15.84
-11.88
-7.19
-2.56
1.24
3.79
5.08
5.4
5.15
4.63
3.97
3.24
2.57
2.11
2.06
2.45
3.13
3.73
3.87
3.33
2.18
0.74
-0.55
-1.35
-1.49
-1.1
-0.47
0.06
0.27
0.05
-0.53
-1.36
-2.32
-3.37
-4.59
-6.12
-8.13
-10.79
-14.16
-18.11
-22.28
-26.07
-28.71
-29.49
-27.97
-24.15
-18.53
-11.93
-5.29
0.6
5.22
8.36
10.05
10.46
9.89
8.71
7.25
5.85
4.75
4.05
3.77
3.77
3.88
3.82
3.41
2.57
1.38
-0.01
-1.46
-3.04
-5.04
-7.83
-11.55
-15.94
-20.18
-23.18
-23.91
-21.88
-17.32
-11.08
-4.35
1.81
6.68
9.98
11.76
12.2
11.53
10.03
8.0
5.84
3.89
2.36
1.25
0.44
-0.29
-1.12
-2.08
-3.18
-4.37
-5.72
-7.35
-9.51
-12.38
-15.99
-20.14
-24.26
-27.56
-29.15
-28.34
-24.89
-19.12
-11.85
-4.14
3.03
8.96
13.32
16.05
17.27
17.11
15.78
13.53
10.74
7.89
5.39
3.51
2.25
1.42
0.74
-0.07
-1.22
-2.84
-5.05
-7.97
-11.74
-16.43
-21.9
-27.71
-33.16
-37.34
-39.38
-38.7
-35.15
-29.16
-21.58
-13.52
-6.03
0.08
4.41
6.94
7.93
7.82
7.07
6.07
5.14
4.53
4.38
4.72
5.49
6.48
7.45
8.19
8.57
8.6
8.28
7.54
6.2
4.02
1.02
-2.37
-5.28
-6.58
-5.32
-1.14
5.57
13.86
22.51
30.49
37.09
41.96
44.97
46.08
45.33
42.96
39.42
35.34
31.36
27.94
25.25
23.21
21.58
20.16
18.75
17.24
15.5
13.29
10.27
6.0
0.12
-7.37
-16.0
-24.72
-32.12
-36.83
-37.88
-35.04
-28.83
-20.43
-11.35
-3.14
2.98
6.32
6.94
5.43
2.73
-0.28
-3.17
-5.96
-9.06
-12.94
-17.69
-23.01
-28.22
-32.56
-35.49
-36.81
-36.6
-35.19
-33.02
-30.62
-28.55
-27.35
-27.31
-28.28
-29.6
-30.19
-28.84
-24.73
-17.68
-8.3
2.24
12.68
21.96
29.47
35.01
38.62
40.46
40.73
39.75
37.88
35.56
33.14
30.87
28.81
26.93
25.23
23.74
22.51
21.57
20.78
19.91
18.62
16.58
13.44
9.04
3.45
-2.84
-8.89
-13.39
-15.07
-13.06
-7.33
1.26
11.2
20.85
28.86
34.51
37.72
38.83
38.39
36.89
34.79
32.46
30.18
28.13
26.36
24.77
23.22
21.58
19.81
17.91
15.89
13.76
11.47
8.96
6.11
2.8
-1.16
-5.93
-11.44
-17.25
-22.48
-26.03
-26.93
-24.68
-19.52
-12.23
-3.91
4.38
11.84
17.93
22.32
24.82
25.43
24.47
22.5
20.34
18.69
17.98
18.21
19.01
19.9
20.5
20.7
20.67
20.73
21.09
21.75
22.37
22.43
21.43
19.02
15.3
10.73
6.09
2.25
0.03
-0.1
1.99
6.06
11.62
18.04
24.61
30.5
34.78
36.59
35.36
31.03
24.14
15.46
5.76
-4.42
-14.67
-24.35
-32.38
-37.46
-38.72
-36.3
-31.49
-26.19
-22.04
-19.59
-18.28
-17.06
-15.3
-13.34
-12.23
-12.96
-15.58
-18.93
-21.11
-20.34
-15.76
-7.81
2.15
12.44
21.86
29.94
36.87
43.02
48.5
52.94
55.69
56.2
54.41
50.87
46.51
42.16
38.23
34.63
31.02
27.17
23.21
19.57
16.75
14.98
14.03
13.3
12.06
9.75
6.27
2.12
-1.81
-4.42
-4.85
-2.71
1.76
7.84
14.6
21.26
27.42
33.03
38.3
43.44
48.56
53.63
58.41
62.5
65.35
66.25
64.6
60.01
52.58
42.85
31.63
19.76
7.79
-4.05
-15.78
-27.4
-38.69
-49.27
-58.72
-66.8
-73.53
-78.91
-82.76
-84.5
-83.49
-79.35
-72.48
-64.18
-56.33
-50.81
-48.84
-50.52
-54.89
-60.33
-65.19
-68.43
-69.87
-70.04
-69.76
-69.57
-69.42
-68.63
-66.26
-61.69
-55.02
-47.08
-39.02
-31.88
-26.22
-22.41
-20.76
-21.65
-25.05
-30.26
-35.78
-39.85
-41.14
-39.14
-34.02
-26.15
-15.76
-2.97
11.65
26.68
39.91
49.09
52.9
51.47
46.2
38.97
31.37
24.31
18.09
12.83
8.61
5.33
2.63
-0.25
-4.3
-10.26
-18.21
-27.4
-36.34
-43.26
-46.73
-46.19
-42.1
-35.67
-28.22
-20.77
-13.88
-7.81
-2.79
0.96
3.25
4.08
3.73
2.62
1.15
-0.4
-1.86
-3.19
-4.35
-5.43
-6.6
-8.02
-9.59
-10.82
-10.86
-8.84
-4.25
2.69
11.07
19.48
26.31
30.11
30.06
26.3
19.96
12.92
7.13
3.88
3.4
4.92
7.33
9.78
12.13
14.76
18.11
22.25
26.87
31.46
35.75
39.75
43.61
47.29
50.3
51.92
51.51
48.87
44.34
38.63
32.33
25.58
17.95
8.79
-2.17
-14.36
-26.28
-36.14
-42.74
-46.07
-47.12
-46.96
-45.72
-42.45
-35.92
-25.97
-14.41
-4.49
0.68
-0.17
-5.64
-12.46
-17.3
-18.5
-16.55
-13.42
-11.03
-10.19
-10.37
-10.37
-9.32
-7.24
-5.1
-4.12
-5.08
-7.78
-11.09
-13.53
-14.09
-12.78
-10.6
-8.93
-8.66
-9.54
-10.32
-9.42
-5.76
0.71
9.03
17.73
25.49
31.41
35.14
36.76
36.62
35.26
33.29
31.26
29.45
27.78
25.88
23.39
20.14
16.31
12.32
8.59
5.3
2.28
-0.83
-4.43
-8.73
-13.63
-18.73
-23.38
-26.74
-28.07
-26.9
-23.34
-18.09
-12.31
-7.32
-4.24
-3.61
-5.25
-8.3
-11.46
-13.4
-13.21
-10.78
-6.59
-1.61
3.04
6.45
8.15
8.07
6.23
2.64
-2.5
-8.32
-13.19
-15.34
-13.96
-10.18
-6.89
-7.33
-13.12
-22.95
-32.87
-38.33
-36.61
-28.26
-16.75
-6.39
-0.02
2.2
2.17
2.14
3.2
4.94
6.15
5.8
3.78
0.82
-2.01
-4.01
-5.07
-5.6
-6.18
-7.19
-8.71
-10.45
-11.93
-12.71
-12.71
-12.32
-12.3
-13.37
-15.62
-18.22
-19.46
-17.46
-11.19
-1.23
10.11
19.63
24.64
24.16
19.3
12.45
5.97
0.9
-3.27
-7.84
-13.7
-20.64
-27.65
-33.77
-38.85
-43.58
-48.64
-53.7
-57.14
-56.77
-51.06
-40.16
-25.94
-11.17
1.7
11.45
18.37
23.66
28.74
34.65
41.8
50.24
59.95
70.9
82.85
94.97
105.77
113.45
116.75
115.79
112.27
108.66
106.89
107.1
107.29
104.12
94.74
78.3
56.53
33.08
11.94
-4.2
-14.82
-21.41
