2013-07-01 15:21:17
64.0
-0.0
-0.0
-0.0
-0.0
-0.0
-0.0
-0.0
-0.0
-0.0
-0.0
0.0
0.01
0.01
-0.0
-0.03
-0.05
-0.05
0.0
0.13
0.36
0.66
1.01
1.37
1.72
2.06
2.4
2.79
3.24
3.8
4.42
5.06
5.66
6.2
6.68
7.15
7.68
8.31
9.14
10.09
11.04
11.88
12.56
13.14
13.76
14.65
15.96
17.91
20.32
22.9
25.38
27.58
29.57
31.68
34.32
37.81
42.54
48.15
54.1
59.83
64.97
69.58
74.14
79.34
85.71
93.76
103.0
112.62
121.73
129.77
136.75
143.3
150.75
157.77
166.64
177.95
191.79
206.97
220.57
228.25
225.36
208.53
176.87
132.76
80.05
23.07
-34.94
-92.44
-149.16
-205.23
-260.37
-313.74
-363.87
-409.83
-450.91
-486.5
-515.74
-537.23
-549.22
-549.96
-538.37
-514.21
-478.67
-433.88
-382.45
-327.02
-269.84
-212.63
-156.66
-102.95
-52.37
-5.9
35.58
71.43
101.35
125.5
144.38
158.69
169.15
176.37
180.75
182.57
182.07
179.51
175.23
169.65
163.18
156.15
148.81
141.3
133.69
126.02
118.33
110.69
103.16
95.8
88.68
81.83
75.25
68.95
62.95
57.25
51.86
46.78
42.03
37.59
33.45
29.61
26.07
22.81
19.83
17.11
14.67
12.48
10.54
8.83
7.35
6.07
4.97
4.05
3.27
2.62
2.09
1.65
1.3
1.01
0.79
0.61
0.47
0.37
0.29
0.23
0.19
0.17
0.15
0.15
0.16
0.18
0.2
0.23
0.27
0.31
0.35
0.39
0.43
0.48
0.53
0.58
0.63
0.69
0.74
0.81
0.88
0.95
1.03
1.13
1.23
1.34
1.47
1.62
1.78
1.96
2.16
2.38
2.63
2.9
3.19
3.53
3.89
4.28
4.71
5.18
5.68
6.22
6.8
7.42
8.09
8.8
9.55
10.35
11.2
12.09
13.02
14.01
15.05
16.17
17.35
18.61
19.9
21.2
22.41
23.44
24.19
24.55
24.43
23.73
22.41
20.38
17.65
14.24
10.18
5.66
0.9
-3.87
-8.38
-12.42
-15.83
-18.56
-20.62
-22.07
-22.97
-23.37
-23.28
-22.75
-21.81
-20.62
-19.35
-18.23
-17.41
-16.94
-16.72
-16.53
-16.15
-15.43
-14.44
-13.42
-12.73
-12.64
-13.25
-14.33
-15.5
-16.32
-16.52
-16.18
-15.7
-15.64
-16.49
-18.38
-21.03
-23.85
-26.27
-27.9
-28.76
-29.24
-29.87
-31.26
-34.01
-38.63
-45.31
-53.44
-61.2
-65.92
-64.77
-56.05
-40.16
-19.71
1.35
19.23
31.55
37.88
39.28
37.41
33.68
28.84
23.29
17.41
11.65
6.4
1.73
-2.76
-7.75
-13.79
-20.91
-28.27
-34.29
-37.1
-35.26
-28.29
-16.95
-2.95
11.6
24.85
35.65
43.64
49.04
52.27
53.78
53.86
52.73
50.6
47.7
44.37
40.91
37.59
34.51
31.7
29.1
26.64
24.27
21.94
19.49
16.7
13.29
9.06
4.01
-1.63
-7.56
-13.51
-19.43
-25.5
-32.05
-39.32
-47.33
-55.67
-63.51
-69.64
-72.75
-71.85
-66.52
-57.09
-44.55
-30.24
-15.49
-1.36
11.4
22.28
30.89
36.98
40.5
41.77
41.4
40.19
38.84
37.7
36.75
35.77
34.54
33.1
31.63
30.39
29.36
28.22
26.41
23.41
19.02
13.43
7.17
0.84
-5.09
-10.48
-15.44
-20.32
-25.61
-31.81
-39.23
-47.86
-57.08
-65.72
-72.24
-75.11
-73.31
-66.61
-55.61
-41.55
-25.97
-10.27
4.41
17.35
28.14
36.58
42.68
46.66
48.91
50.0
50.45
50.68
50.84
50.88
50.61
49.87
48.64
46.95
44.91
42.53
39.75
36.48
32.58
28.05
22.94
17.35
11.47
5.46
-0.54
-6.4
-12.14
-17.81
-23.62
-29.84
-36.7
-44.29
-52.4
-60.42
-67.26
-71.65
-72.37
-68.67
-60.57
-48.82
-34.8
-20.07
-5.98
6.58
17.19
25.79
32.51
37.48
40.82
42.73
43.48
43.44
42.98
42.38
41.76
41.1
40.29
39.24
37.89
36.31
34.53
32.53
30.27
27.58
24.33
20.41
15.86
10.85
5.64
0.49
-4.43
-9.05
-13.52
-18.12
-23.29
-29.44
-36.85
-45.35
-54.19
-62.12
-67.57
-69.19
-66.28
-59.01
-48.4
-35.91
-23.02
-10.88
-0.22
8.6
15.36
19.99
22.5
23.1
22.2
20.33
18.02
15.62
13.34
11.2
9.19
7.22
5.24
3.14
0.78
-1.93
-5.04
-8.5
-12.2
-15.97
-19.65
-23.15
-26.38
-29.32
-32.15
-35.34
-39.79
-46.6
-56.66
-70.12
-86.02
-102.39
-116.74
-126.78
-131.2
-129.87
-123.76
-114.37
-103.13
-91.04
-78.57
-65.89
-53.1
-40.49
-28.51
-17.64
-8.08
0.29
7.91
15.29
22.65
29.75
35.95
40.47
42.77
42.72
40.57
36.74
31.69
25.72
19.07
11.97
4.58
-3.12
-11.42
-20.8
-31.77
-44.47
-58.41
-72.31
-84.26
-92.07
-93.89
-88.64
-76.26
-57.64
-34.23
-7.66
20.71
49.83
78.83
106.81
132.63
154.88
172.11
183.13
187.41
185.23
177.79
166.95
154.88
143.51
134.13
127.07
121.89
117.65
113.45
108.74
103.45
97.84
92.19
86.57
80.58
73.44
64.06
51.43
34.88
14.42
-9.04
-33.61
-56.61
-75.04
-86.27
-88.78
-82.67
-69.65
-52.57
-34.51
-18.05
-4.58
5.53
12.74
17.72
20.98
22.78
23.25
22.61
21.34
20.08
19.43
19.73
20.94
22.81
25.03
27.49
30.19
33.08
35.8
37.6
37.58
35.13
30.27
23.81
16.91
10.59
5.25
0.58
-4.08
-9.18
-14.56
-19.41
-22.58
-23.05
-20.39
-14.84
-7.21
1.45
10.17
18.19
24.96
30.2
33.73
35.51
35.73
34.76
33.14
31.39
29.95
29.02
28.59
28.46
28.41
28.21
27.69
26.73
25.24
23.22
20.82
18.33
16.13
14.5
13.43
12.51
10.97
7.96
2.86
-4.45
-13.54
-23.4
-32.75
-40.2
-44.67
-45.41
-42.29
-35.69
-26.54
-16.0
-5.31
4.49
12.7
18.94
23.12
25.3
25.75
24.83
22.96
20.61
18.09
15.64
13.35
11.27
9.45
7.95
6.78
5.84
4.92
3.7
1.91
-0.54
-3.52
-6.77
-9.94
-12.81
-15.3
-17.46
-19.51
-21.73
-24.42
-27.81
-31.85
-36.11
-39.72
-41.59
-40.67
-36.39
-28.84
-18.81
-7.45
4.1
14.93
24.57
32.83
39.6
44.73
48.12
49.77
50.0
49.45
48.87
48.97
50.1
52.19
54.76
57.06
58.35
58.13
56.27
53.02
48.89
44.41
39.97
35.64
31.21
26.47
21.22
15.5
9.46
3.15
-3.61
-11.15
-19.72
-29.13
-38.48
-46.35
-51.18
-51.89
-48.27
-41.14
-32.02
-22.64
-14.35
-7.85
-3.22
-0.2
1.58
2.33
2.14
1.01
-0.97
-3.56
-6.38
-9.0
-10.97
-12.06
-12.24
-11.77
-11.13
-10.82
-11.3
-12.75
-15.07
-17.97
-21.13
-24.28
-27.24
-29.99
-32.58
-35.23
-38.22
-41.9
-46.49
-51.93
-57.72
-62.98
-66.6
-67.54
-65.14
-59.28
-50.44
-39.53
-27.68
-16.01
-5.5
3.16
9.62
13.79
15.88
16.36
15.78
14.65
13.27
11.76
10.07
8.19
6.2
4.36
2.9
1.95
1.44
1.09
0.57
-0.41
-2.0
-4.21
-6.97
-10.14
-13.62
-17.27
-20.93
-24.5
-27.93
-31.33
-34.98
-39.22
-44.31
-50.21
-56.35
-61.69
-64.92
-64.93
-61.12
-53.71
-43.63
-32.21
-20.7
-10.02
-0.62
7.4
14.02
19.1
22.42
23.85
23.54
22.09
20.35
19.08
18.68
18.92
19.15
18.67
17.09
14.49
11.35
8.31
5.8
3.93
2.51
1.12
-0.67
-3.24
-6.78
-11.26
-16.39
-21.68
-26.61
-30.79
-34.15
-36.98
-39.81
-43.14
-47.29
-52.11
-57.03
-61.13
-63.37
-62.84
-59.05
-52.14
-42.73
-31.82
-20.48
-9.5
0.51
9.24
16.43
21.9
25.5
27.29
27.52
26.66
25.26
23.8
22.63
21.9
21.64
21.75
22.01
22.18
22.04
21.49
20.55
19.4
18.1
16.58
14.64
12.07
8.8
4.95
0.85
-3.25
-7.15
-10.85
-14.46
-18.05
-21.69
-25.4
-29.35
-33.78
-38.9
-44.68
-50.62
-55.82
-59.15
-59.66
-56.8
-50.68
-41.89
-31.39
-20.18
-9.17
0.97
9.75
16.8
21.93
25.13
26.61
26.77
26.17
25.36
24.75
24.48
24.43
24.38
24.17
23.84
23.61
23.67
24.01
24.27
23.96
22.66
20.35
17.41
14.39
11.77
9.6
7.58
5.2
2.06
-1.94
-6.52
-11.25
-15.64
-19.35
-22.3
-24.63
-26.76
-29.26
-32.63
-37.15
-42.62
-48.31
-53.1
-55.73
-55.18
-51.04
-43.55
-33.63
-22.53
-11.52
-1.63
6.61
13.02
17.69
20.8
22.56
23.21
23.06
22.51
21.93
21.63
21.63
21.82
21.97
21.88
21.54
21.03
20.49
19.97
19.38
18.56
17.27
15.39
12.91
9.94
6.6
3.01
-0.75
-4.63
-8.56
-12.4
-16.05
-19.45
-22.66
-25.87
-29.38
-33.51
-38.45
-44.13
-50.12
-55.6
-59.56
-60.93
-58.99
-53.55
-45.09
-34.61
-23.35
-12.44
-2.59
5.9
13.05
18.91
23.48
26.58
28.08
28.05
26.86
25.13
23.52
22.5
22.21
22.43
22.74
22.76
22.23
21.13
19.61
17.89
16.17
14.53
12.89
11.07
8.86
6.08
2.69
-1.25
-5.66
-10.35
-15.21
-20.07
-24.78
-29.14
-33.11
-36.82
-40.64
-45.01
-50.18
-55.93
-61.39
-65.24
-66.13
-63.19
-56.37
-46.41
-34.59
-22.25
-10.46
0.13
9.24
16.71
22.46
26.36
28.43
28.87
28.13
26.85
25.71
25.21
25.5
26.43
27.58
28.49
28.82
28.49
27.66
26.57
25.45
24.33
23.06
21.3
18.74
15.19
10.65
5.37
-0.28
-5.88
-11.13
-15.87
-20.1
-23.93
-27.58
-31.37
-35.71
-40.91
-47.0
-53.56
-59.58
-63.74
-64.84
-62.15
-55.8
-46.59
-35.75
-24.5
-13.75
-4.01
4.48
11.61
17.24
21.2
23.4
24.02
23.53
22.65
22.08
22.29
23.35
24.97
26.64
27.93
28.6
28.68
28.34
27.69
26.72
25.34
23.44
20.98
18.02
14.68
11.06
7.22
3.22
-0.83
-4.84
-8.73
-12.56
-16.55
-21.04
-26.41
-32.8
-39.97
-47.21
-53.47
-57.64
-58.85
-56.7
-51.33
-43.37
-33.69
-23.19
-12.66
-2.67
6.35
14.16
20.57
25.47
28.86
30.86
31.77
32.07
32.25
32.71
33.58
34.71
35.83
36.62
36.96
36.89
36.54
35.95
35.05
33.65
31.51
28.51
24.65
20.16
15.3
10.43
5.78
1.43
-2.71
-6.9
-11.49
-16.87
-23.27
-30.63
-38.44
-45.77
-51.4
-54.13
-53.19
-48.48
-40.6
-30.6
-19.64
-8.63
1.88
11.49
19.86
26.55
31.19
33.58
33.99
33.03
31.51
30.17
29.39
29.18
29.23
29.16
28.69
27.8
26.68
25.59
24.68
23.77
22.39
20.0
16.2
11.05
5.0
-1.23
-7.06
-12.23
-16.93
-21.6
-26.76
-32.81
-39.87
-47.72
-55.72
-62.88
-67.93
-69.63
-67.16
-60.38
-49.96
-37.19
-23.58
-10.44
1.37
11.51
19.94
26.69
31.84
35.38
37.44
38.28
38.33
38.02
37.65
37.27
36.77
35.99
34.87
33.52
32.16
30.96
29.94
28.92
27.6
25.59
22.62
18.59
13.64
8.12
2.48
-2.95
-8.06
-13.02
-18.15
-23.76
-30.09
-37.16
-44.9
-53.02
-60.96
-67.77
-72.22
-73.07
-69.46
-61.44
-49.87
-36.27
-22.22
-8.87
3.24
14.03
23.53
31.66
38.17
42.91
45.96
47.67
48.55
49.04
49.34
49.45
49.3
48.87
48.29
47.71
47.17
46.55
45.52
43.79
41.18
37.75
33.74
29.52
25.37
21.42
17.59
13.59
9.17
4.18
-1.27
-6.89
-12.39
-17.56
-22.47
-27.45
-33.02
-39.57
-47.19
-55.47
-63.48
-69.89
-73.31
-72.69
-67.62
-58.54
-46.53
-33.05
-19.51
-6.89
4.31
13.95
22.02
28.46
33.09
35.82
36.76
36.34
35.29
34.34
34.0
34.35
35.13
35.86
36.19
36.05
35.61
35.25
35.12
35.12
34.87
33.9
31.94
29.0
25.33
21.16
16.64
11.72
6.37
0.67
-5.07
-10.5
-15.35
-19.64
-23.68
-27.85
-32.52
-37.88
-43.84
-50.1
-56.03
-60.7
-63.04
-62.07
-57.21
-48.62
-37.15
-24.12
-10.96
1.26
11.89
20.78
27.92
33.38
37.19
39.36
40.12
39.82
39.04
38.35
38.15
38.56
39.43
40.38
41.01
41.06
40.47
39.33
37.77
35.77
33.19
29.82
25.58
20.56
15.08
9.47
4.09
-0.9
-5.52
-9.84
-14.04
-18.34
-23.01
-28.3
-34.34
-40.93
-47.49
-53.06
-56.52
-56.91
-53.78
-47.25
-38.01
-27.13
-15.65
-4.51
5.72
14.72
22.32
28.46
33.13
36.42
38.51
39.7
40.23
40.29
40.02
39.45
38.66
37.78
36.94
36.2
35.53
34.8
33.84
32.59
31.04
29.22
27.14
24.65
21.52
17.56
12.75
7.3
1.62
-3.84
-8.78
-13.2
-17.34
-21.6
-26.3
-31.69
-37.84
-44.63
-51.72
-58.44
-63.79
-66.57
-65.74
-60.84
-52.22
-41.04
-28.78
-16.77
-5.8
3.97
12.67
20.43
27.1
32.37
36.04
38.22
39.33
40.01
40.7
41.51
42.28
42.73
42.72
42.38
42.0
41.85
41.96
42.14
42.0
41.19
39.42
36.69
33.19
29.25
25.16
21.17
17.32
13.6
9.91
6.16
2.3
-1.72
-5.9
-10.28
-14.87
-19.71
-24.87
-30.47
-36.64
-43.38
-50.38
-56.87
-61.71
-63.72
-62.02
-56.47
-47.68
-36.82
-25.24
-14.0
-3.77
5.24
12.99
19.51
24.8
28.86
31.78
33.72
34.88
35.4
35.38
34.83
33.93
32.95
32.29
32.33
33.22
34.73
36.32
37.34
37.25
35.88
33.39
30.21
26.84
23.64
20.76
18.1
15.44
12.52
9.17
5.34
1.15
-3.16
-7.38
-11.39
-15.27
-19.21
-23.52
-28.45
-34.17
-40.65
-47.59
-54.39
-60.05
-63.38
-63.27
-59.07
-50.89
-39.64
-26.85
-14.17
-2.96
6.07
12.81
17.64
21.05
23.4
24.9
25.55
25.44
24.7
23.64
22.57
21.72
21.2
20.94
20.8
20.6
20.27
19.81
19.32
18.9
18.53
18.04
17.06
15.23
12.34
8.5
4.14
-0.19
-4.02
-7.27
-10.16
-13.17
-16.68
-20.93
-25.95
-31.63
-37.79
-44.06
-49.75
-53.83
-55.16
-52.83
-46.65
-37.28
-26.08
-14.64
-4.26
4.3
10.95
15.88
19.37
21.51
22.35
22.01
20.81
19.3
18.03
17.43
17.52
18.0
18.43
18.34
17.5
15.95
13.98
11.88
9.79
7.63
5.15
2.07
-1.73
-6.08
-10.62
-14.91
-18.7
-21.98
-25.13
-28.66
-33.08
-38.72
-45.52
-52.94
-60.03
-65.58
-68.39
-67.6
-62.94
-54.83
-44.25
-32.44
-20.57
-9.5
0.3
8.68
15.54
20.85
24.5
26.48
27.0
26.47
25.43
24.35
23.47
22.72
21.85
20.6
18.86
16.76
14.57
12.53
10.71
8.98
7.02
4.46
0.99
-3.52
-8.91
-14.79
-20.59
-25.84
-30.34
-34.26
-38.16
-42.67
-48.25
-54.88
-61.98
-68.47
-73.04
-74.52
-72.23
-66.17
-57.03
-45.9
-34.0
-22.33
-11.48
-1.72
6.88
14.26
20.33
25.04
28.51
31.06
33.13
35.1
37.07
38.93
40.4
41.28
41.61
41.58
41.49
41.56
41.83
42.17
42.27
41.75
40.25
37.47
33.37
28.14
22.26
16.3
10.72
5.71
1.1
-3.48
-8.48
-14.21
-20.77
-27.95
-35.29
-42.05
-47.27
-49.94
-49.3
-45.0
-37.31
-27.02
-15.26
-3.2
8.15
18.04
25.97
31.66
35.09
36.46
36.26
35.2
33.92
32.91
32.31
31.97
31.55
30.77
29.51
27.88
26.12
24.43
22.95
21.6
20.17
18.43
16.11
13.05
9.14
4.47
-0.72
-5.99
-10.94
-15.31
-19.24
-23.19
-27.78
-33.52
-40.47
-48.1
-55.31
-60.7
-62.94
-61.14
-55.16
-45.62
-33.76
-21.09
-9.01
1.59
10.3
17.16
22.38
26.08
28.31
29.08
28.59
27.32
25.88
24.87
24.54
24.72
25.0
24.94
24.32
23.21
21.81
20.23
18.37
16.0
12.92
9.16
4.99
0.77
-3.21
-6.9
-10.42
-14.05
-18.09
-22.76
-28.2
-34.29
-40.61
-46.37
-50.51
-51.94
-49.92
-44.3
-35.61
-24.91
-13.42
-2.26
7.82
16.42
23.48
29.04
33.15
35.78
36.89
36.53
34.99
32.72
30.31
28.2
26.56
25.24
24.0
22.63
21.09
19.48
17.89
16.21
14.22
11.58
8.09
3.72
-1.32
-6.71
-12.11
-17.28
-22.16
-26.91
-31.81
-37.22
-43.36
-50.07
-56.75
-62.28
-65.34
-64.8
-60.13
-51.61
-40.31
-27.67
-15.1
-3.6
6.38
14.8
21.8
27.39
31.47
33.88
34.71
34.34
33.36
32.45
31.99
32.02
32.27
32.35
31.94
30.99
29.63
28.11
26.55
24.83
22.75
20.06
16.72
12.86
8.75
4.62
0.54
-3.61
-8.05
-12.89
-18.15
-23.82
-29.89
-36.44
-43.39
-50.34
-56.37
-60.2
-60.57
-56.74
-48.86
-37.94
-25.56
-13.31
-2.33
6.88
14.41
20.65
25.97
30.5
34.16
36.77
38.27
38.79
38.69
38.36
38.07
37.9
37.67
37.21
36.38
35.19
33.74
32.09
30.22
28.03
25.43
22.34
18.77
14.77
10.41
5.81
1.08
-3.62
-8.17
-12.45
-16.48
-20.31
-24.15
-28.19
-32.68
-37.82
-43.67
-49.94
-55.95
-60.66
-62.9
-61.74
-56.8
-48.32
-37.19
-24.61
-11.87
-0.0
10.26
18.58
24.92
29.39
32.24
33.65
33.89
33.22
31.96
30.47
29.11
28.14
27.63
27.5
27.46
27.23
26.58
25.48
24.04
22.46
20.88
19.31
17.59
15.44
12.59
8.92
4.53
-0.24
-4.98
-9.35
-13.21
-16.69
-20.16
-24.05
-28.72
-34.28
-40.5
-46.83
-52.5
-56.59
-58.26
-56.83
-52.04
-44.13
-33.82
-22.13
-10.27
0.7
10.04
17.42
22.97
27.15
30.53
33.52
36.24
38.53
40.06
40.61
40.17
39.02
37.53
35.99
34.47
32.88
31.1
29.14
27.12
25.12
23.04
20.56
17.3
13.05
7.91
2.27
-3.3
-8.32
-12.66
-16.48
-20.28
-24.65
-30.08
-36.7
-44.11
-51.31
-56.87
-59.29
-57.52
-51.31
-41.34
-28.99
-15.87
-3.39
7.61
16.73
23.92
29.21
32.64
34.28
34.3
33.1
31.24
29.37
28.0
27.3
27.12
27.0
26.5
25.35
23.63
21.62
19.73
18.2
16.93
15.57
13.65
10.87
7.21
2.93
-1.58
-6.01
-10.28
-14.55
-19.08
-24.19
-30.02
-36.62
-43.85
-51.42
-58.79
-65.13
-69.41
-70.55
-67.8
-61.03
-50.85
-38.48
-25.38
-12.78
-1.44
8.31
16.52
23.21
28.46
32.27
34.78
36.25
36.98
37.32
37.45
37.42
37.18
36.71
36.08
35.39
34.74
34.08
33.25
32.01
30.2
27.77
24.82
21.49
17.92
14.17
10.25
6.19
1.99
-2.3
-6.69
-11.25
-16.08
-21.32
-27.03
-33.26
-40.01
-47.26
-54.86
-62.35
-68.89
-73.28
-74.33
-71.2
-63.81
-52.91
-39.87
-26.27
-13.43
-2.15
7.32
15.11
21.47
26.55
30.38
33.0
34.48
35.13
35.3
35.36
35.52
35.81
36.12
36.29
36.25
36.01
35.64
35.1
34.28
32.91
30.79
27.87
24.31
20.44
16.53
12.72
8.93
5.02
0.86
-3.48
-7.83
-11.99
-15.89
-19.73
-23.79
-28.48
-33.98
-40.23
-46.83
-52.97
-57.59
-59.54
-57.92
-52.35
-43.21
-31.56
-18.9
-6.68
4.08
12.88
19.79
25.02
28.75
31.07
32.01
31.82
30.95
29.99
29.43
29.51
30.07
30.72
31.04
30.73
29.75
28.23
26.36
24.27
22.01
19.49
16.64
13.35
9.66
5.71
1.76
-1.9
-5.15
-8.03
-10.81
-13.81
-17.26
-21.27
-25.88
-31.07
-36.78
-42.77
-48.38
-52.57
-54.06
-51.8
-45.42
-35.47
-23.29
-10.51
1.43
11.63
19.78
25.98
30.41
33.16
34.32
34.04
32.72
30.96
29.39
28.44
28.12
28.1
27.88
27.11
25.76
24.13
22.62
21.45
20.49
19.26
17.19
13.92
9.44
4.14
-1.44
-6.76
-11.54
-15.77
-19.73
-23.85
-28.63
-34.42
-41.26
-48.71
-55.75
-60.98
-62.99
-60.86
-54.53
-44.84
-33.19
-21.12
-9.77
0.27
8.9
16.17
22.11
26.65
29.73
31.45
32.12
32.17
31.98
31.75
31.51
31.2
30.73
30.04
29.11
27.92
26.5
24.91
23.21
21.39
19.31
16.71
13.27
8.88
3.7
-1.82
-7.11
-11.81
-15.89
-19.72
-23.85
-28.81
-34.83
-41.9
-49.68
-57.51
-64.47
-69.47
-71.39
-69.5
-63.66
-54.48
-43.1
-30.84
-18.8
-7.58
2.6
11.71
19.59
25.97
30.48
32.99
33.69
33.17
32.14
31.22
30.74
30.68
30.85
30.99
31.02
30.94
30.8
30.64
30.32
29.66
28.41
26.51
23.99
20.94
17.42
13.44
9.04
4.32
-0.48
-5.14
-9.55
-13.91
-18.63
-24.23
-31.02
-38.89
-47.27
-55.19
-61.58
-65.4
-65.97
-62.92
-56.36
-46.81
-35.19
-22.66
-10.39
0.68
10.06
17.71
23.85
28.79
32.66
35.4
36.88
37.17
36.59
35.7
35.03
34.84
35.03
35.19
34.93
34.06
32.64
30.87
28.94
26.87
24.56
21.86
18.68
15.05
11.06
6.87
2.6
-1.62
-5.67
-9.47
-13.02
-16.47
-20.15
-24.5
-29.86
-36.28
-43.31
-49.98
-55.01
-57.13
-55.52
-50.03
-41.27
-30.28
-18.3
-6.43
4.58
14.23
22.25
28.41
32.6
34.77
35.14
34.15
32.4
30.58
29.17
28.39
28.13
28.11
28.01
27.66
27.06
26.28
25.41
24.28
22.67
20.24
16.83
12.44
7.35
1.97
-3.27
-8.1
-12.54
-16.84
-21.47
-26.86
-33.27
-40.64
-48.41
-55.62
-60.96
-63.17
-61.36
-55.33
-45.72
-33.75
-20.87
-8.32
3.12
13.17
21.79
29.03
34.77
38.83
41.07
41.56
40.61
38.76
36.58
34.57
33.01
31.91
31.03
30.07
28.74
26.99
24.92
22.7
20.43
17.93
14.92
11.1
6.41
1.05
-4.54
-9.95
-14.89
-19.38
-23.72
-28.39
-33.97
-40.85
-49.14
-58.43
-67.7
-75.51
-80.3
-80.93
-76.99
-68.96
-57.97
-45.44
-32.53
-19.98
-8.06
3.24
13.84
23.48
31.65
37.82
41.74
43.58
43.92
43.53
43.03
42.73
42.54
42.16
41.37
40.17
38.76
37.45
36.38
35.47
34.39
32.71
30.04
26.19
21.27
15.62
9.7
4.01
-1.16
-5.75
-9.94
-14.11
-18.69
-24.09
-30.6
-38.28
-46.84
-55.46
-62.9
-67.67
-68.46
-64.59
-56.31
-44.75
-31.49
-18.12
-5.78
5.01
14.18
21.86
28.1
32.8
35.82
37.2
37.25
36.53
35.65
35.08
34.97
35.19
35.48
35.51
35.11
34.21
32.92
31.41
29.84
28.25
26.51
24.33
21.38
17.47
12.62
7.13
1.47
-3.94
-8.78
-12.96
-16.6
-20.02
-23.62
-27.9
-33.28
-39.96
-47.68
-55.61
-62.39
-66.45
-66.47
-61.84
-52.84
-40.56
-26.5
-12.14
1.4
13.33
23.24
30.83
35.92
38.56
39.02
37.86
35.78
33.52
31.58
30.23
29.49
29.17
29.01
28.74
28.2
27.39
26.44
25.41
24.27
22.76
20.53
17.27
12.91
7.74
2.26
-2.96
-7.53
-11.38
-14.8
-18.34
-22.64
-28.22
-35.24
-43.4
-51.87
-59.36
-64.35
-65.47
-61.93
-53.73
-41.83
-27.82
-13.54
-0.51
10.43
19.13
25.85
30.93
34.5
36.52
36.94
35.98
34.14
32.19
30.74
30.07
30.01
30.12
29.89
29.01
27.5
25.61
23.67
21.87
20.11
18.02
15.14
11.13
6.01
0.19
-5.71
-11.12
-15.79
-19.83
-23.66
-27.79
-32.66
-38.52
-45.44
-53.24
-61.34
-68.75
-74.05
-75.75
-72.75
-64.8
-52.67
-37.98
-22.67
-8.42
3.77
13.64
21.44
27.6
32.45
36.08
38.51
39.7
39.83
39.19
38.2
37.21
36.43
35.87
35.38
34.79
34.01
33.04
31.94
30.72
29.31
27.54
25.27
22.43
19.03
15.12
10.73
5.88
0.67
-4.68
-9.85
-14.59
-18.92
-23.07
-27.53
-32.75
-39.05
-46.42
-54.58
-62.86
-70.22
-75.42
-77.13
-74.4
-66.96
-55.39
-41.03
-25.6
-10.67
2.63
13.74
22.58
29.29
34.05
37.04
38.48
38.69
38.11
37.24
36.54
36.33
36.66
37.39
38.22
38.81
38.9
38.33
37.13
35.39
33.27
30.81
27.96
24.63
20.68
16.13
11.12
5.93
0.81
-4.06
-8.67
-13.08
-17.39
-21.76
-26.42
-31.75
-38.1
-45.61
-53.92
-62.05
-68.55
-71.88
-70.93
-65.35
-55.69
-43.15
-29.18
-15.13
-1.98
9.66
19.42
27.01
32.21
34.89
35.25
33.89
31.7
29.62
28.29
27.91
28.2
28.7
28.94
28.78
28.23
27.43
26.46
25.26
23.71
21.64
18.95
15.57
11.54
7.01
2.23
-2.47
-6.81
-10.68
-14.3
-18.08
-22.6
-28.3
-35.3
-43.25
-51.26
-58.1
-62.4
-63.0
-59.27
-51.31
-39.87
-26.27
-11.96
1.7
13.66
23.32
30.42
35.07
37.55
38.19
37.38
35.46
32.83
29.93
27.15
24.81
22.98
21.53
20.25
18.91
17.45
15.89
14.23
12.37
10.11
7.21
3.55
-0.77
-5.51
-10.34
-15.03
-19.55
-24.12
-29.11
-34.97
-41.97
-50.05
-58.62
-66.59
-72.5
-74.94
-72.96
-66.38
-55.88
-42.72
-28.41
-14.28
-1.29
9.99
19.33
26.61
31.84
35.06
36.51
36.58
35.79
34.68
33.69
33.02
32.64
32.32
31.77
30.8
29.45
27.94
26.57
25.39
24.15
22.33
19.35
14.89
9.08
2.51
-4.06
-9.92
-14.87
-19.12
-23.33
-28.25
-34.42
-41.97
-50.51
-59.14
-66.58
-71.41
-72.33
-68.62
-60.35
-48.45
-34.52
-20.25
-7.0
4.5
14.06
21.84
28.0
32.64
35.77
37.55
38.3
38.42
38.35
38.29
38.25
38.1
37.68
36.99
36.1
35.19
34.4
33.75
33.12
32.21
30.63
28.06
24.33
19.48
13.82
7.75
1.7
-3.96
-9.09
-13.68
-17.95
-22.22
-26.96
-32.64
-39.61
-47.87
-56.81
-65.18
-71.26
-73.38
-70.47
-62.53
-50.65
-36.65
-22.36
-9.1
2.55
12.6
21.15
28.12
33.2
36.08
36.82
35.94
34.35
32.97
32.41
32.78
33.74
34.69
35.12
34.74
33.61
32.04
30.45
29.19
28.31
27.53
26.34
24.21
20.83
16.28
10.95
5.39
0.04
-4.93
-9.57
-14.07
-18.64
-23.43
-28.61
-34.38
-40.88
-47.96
-55.0
-60.77
-63.76
-62.6
-56.69
-46.49
-33.36
-19.14
-5.51
6.46
16.38
24.32
30.46
34.94
37.73
38.84
38.49
37.14
35.36
33.73
32.62
32.07
31.86
31.65
31.17
30.31
29.15
27.81
26.36
24.67
22.43
19.36
15.29
10.36
4.9
-0.61
-5.78
-10.43
-14.67
-18.85
-23.54
-29.31
-36.56
-45.29
-54.83
-63.87
-70.62
-73.38
-71.07
-63.6
-52.0
-37.93
-23.2
-9.17
3.36
14.17
23.27
30.61
36.03
39.37
40.67
40.29
38.83
37.01
35.39
34.28
33.6
33.16
32.72
32.19
31.65
31.24
31.06
31.0
30.75
29.82
27.73
24.13
18.97
12.52
5.37
-1.79
-8.41
-14.17
-19.18
-23.78
-28.51
-33.83
-40.12
-47.47
-55.62
-63.86
-71.05
-75.75
-76.63
-72.89
-64.58
-52.65
-38.67
-24.34
-10.93
0.9
11.05
19.7
27.0
32.88
37.12
39.5
40.09
39.27
37.76
36.24
35.2
34.73
34.6
34.45
33.94
33.04
31.84
30.61
29.53
28.63
27.75
26.59
24.78
22.08
18.44
14.01
9.16
4.25
-0.45
-4.97
-9.58
-14.71
-20.74
-27.88
-35.98
-44.45
-52.37
-58.53
-61.7
-60.91
-55.7
-46.36
-33.93
-19.99
-6.17
6.23
16.51
24.54
30.57
34.92
37.74
39.07
38.89
37.43
35.18
32.78
30.86
29.68
29.1
28.72
28.11
27.07
25.72
24.4
23.43
22.85
22.36
21.49
19.82
17.17
13.72
9.83
5.87
2.12
-1.35
-4.68
-8.14
-12.14
-17.01
-22.86
-29.32
-35.44
-39.89
-41.29
-38.76
-32.24
-22.61
-11.38
-0.21
9.63
17.44
23.13
26.86
28.87
29.3
28.27
26.03
23.1
20.06
17.49
15.67
14.5
13.65
12.79
11.76
10.69
9.82
9.25
8.81
8.0
6.3
3.4
-0.68
-5.51
-10.56
-15.39
-19.92
-24.39
-29.23
-34.88
-41.54
-49.14
-57.12
-64.53
-70.09
-72.38
-70.28
-63.39
-52.3
-38.43
-23.71
-9.9
1.84
11.12
18.09
23.18
26.75
29.0
30.1
30.26
29.8
29.05
28.23
27.38
26.4
25.18
23.73
22.17
20.66
19.28
17.85
16.03
13.44
9.85
5.31
0.15
-5.21
-10.49
-15.59
-20.74
-26.26
-32.5
-39.69
-47.84
-56.6
-65.22
-72.57
-77.26
-78.04
-74.17
-65.74
-53.69
-39.54
-24.91
-11.06
1.27
11.87
20.74
27.92
33.36
37.02
39.04
39.75
39.63
39.1
38.47
37.76
36.9
35.72
34.14
32.19
30.02
27.87
25.96
24.39
23.06
21.58
19.46
16.24
11.78
6.35
0.59
-4.88
-9.65
-13.83
-18.0
-22.97
-29.4
-37.5
-46.76
-55.99
-63.56
-67.8
-67.45
-62.13
-52.35
-39.47
-25.14
-10.97
1.93
13.01
22.17
29.52
35.13
39.05
41.3
42.09
41.79
40.95
40.09
39.53
39.25
38.89
38.06
36.48
34.3
32.01
30.22
29.31
29.12
28.98
27.94
25.24
20.63
14.49
7.58
0.76
-5.41
-10.72
-15.3
-19.43
-23.4
-27.57
-32.29
-37.92
-44.64
-52.22
-59.84
-66.1
-69.33
-68.17
-62.05
-51.42
-37.67
-22.63
-7.98
5.12
16.16
25.05
31.77
36.27
38.52
38.66
37.18
34.86
32.5
30.64
29.46
28.74
28.17
27.54
26.85
26.23
25.83
25.54
25.07
24.0
21.95
18.8
14.62
9.71
4.4
-0.98
-6.22
-11.17
-15.81
-20.31
-24.99
-30.38
-36.86
-44.35
-52.1
-58.69
-62.43
-61.9
-56.51
-46.71
-33.83
-19.59
-5.6
6.98
17.56
25.9
31.93
35.61
37.02
36.41
34.35
31.58
28.86
26.71
25.28
24.35
23.51
22.43
20.98
19.31
17.6
15.91
14.16
11.99
9.07
5.19
0.43
-4.9
-10.36
-15.54
-20.12
-24.04
-27.5
-31.01
-35.27
-40.93
-48.23
-56.74
-65.25
-71.99
-75.22
-73.73
-67.24
-56.45
-42.74
-27.77
-12.97
0.57
12.2
21.58
28.63
33.47
36.34
37.66
37.9
37.57
37.04
36.54
36.08
35.52
34.62
33.18
31.16
28.73
26.16
23.81
21.77
19.9
17.76
14.89
10.91
5.84
0.03
-6.04
-11.84
-17.16
-22.09
-26.99
-32.35
-38.65
-46.14
-54.63
-63.42
-71.13
-76.09
-76.71
-72.1
-62.4
-48.85
-33.37
-17.88
-3.8
8.25
18.2
26.3
32.68
37.33
40.25
41.64
41.95
41.73
41.45
41.2
40.78
39.82
38.06
35.56
32.61
29.68
27.06
24.85
22.82
20.62
17.9
14.4
10.09
5.1
-0.26
-5.6
-10.58
-15.04
-19.09
-23.18
-27.97
-34.13
-41.98
-51.22
-60.8
-69.06
-74.22
-74.81
-70.23
-60.85
-47.93
-33.19
-18.29
-4.49
7.5
17.47
25.41
31.35
35.24
37.13
37.25
36.05
34.21
32.31
30.76
29.61
28.66
27.66
26.5
25.28
24.22
23.45
22.83
21.95
20.23
17.24
12.87
7.45
1.7
-3.64
-8.03
-11.43
-14.29
-17.36
-21.45
-27.13
-34.48
-43.03
-51.8
-59.4
-64.32
-65.29
-61.59
-53.35
-41.52
-27.58
-13.15
0.41
12.22
21.88
29.29
34.54
37.74
39.1
38.95
37.76
36.0
34.16
32.48
31.05
29.77
28.5
27.09
25.53
23.9
22.32
20.88
19.46
17.74
15.27
11.66
6.76
0.87
-5.46
-11.56
-16.97
-21.72
-26.32
-31.6
-38.3
-46.67
-56.19
-65.53
-72.95
-76.69
-75.6
-69.45
-58.96
-45.51
-30.68
-15.85
-1.98
10.29
20.6
28.68
34.44
37.98
39.66
40.08
39.82
39.35
38.89
38.48
38.01
37.39
36.59
35.64
34.55
33.32
31.93
30.27
28.23
25.66
22.38
18.3
13.43
7.95
2.21
-3.41
-8.62
-13.36
-17.85
-22.63
-28.38
-35.67
-44.61
-54.65
-64.51
-72.43
-76.65
-75.91
-69.86
-59.18
-45.31
-29.98
-14.78
-0.77
11.56
22.18
31.17
38.5
44.03
47.58
49.17
49.24
48.55
47.91
47.86
48.42
49.12
49.27
48.38
46.37
43.65
40.77
38.15
35.83
33.45
30.51
26.56
21.54
15.75
9.75
4.04
-1.11
-5.79
-10.38
-15.32
-20.93
-27.44
-34.87
-43.15
-51.98
-60.62
-67.92
-72.45
-72.86
-68.43
-59.33
-46.65
-31.99
-17.05
-3.13
8.99
18.99
26.84
32.62
36.47
38.55
39.14
38.63
37.5
36.2
35.11
34.4
33.96
33.52
32.78
31.55
29.86
27.93
25.95
23.99
21.82
19.01
15.15
10.1
4.13
-2.18
-8.1
-13.19
-17.51
-21.62
-26.41
-32.74
-41.05
-51.16
-62.23
-72.86
-81.37
-86.16
-86.09
-80.85
-71.07
-58.19
-44.04
-30.29
-18.03
-7.61
1.21
8.91
15.85
22.24
28.13
33.56
38.63
43.43
47.98
52.11
55.6
58.17
59.77
60.47
60.44
59.77
58.36
55.98
52.34
47.31
41.04
34.01
26.85
20.22
14.51
9.74
5.55
1.3
-3.69
-9.93
-17.45
-25.69
-33.5
-39.29
-41.54
-39.18
-32.06
-20.99
-7.53
6.6
20.1
32.34
43.36
53.46
62.8
71.19
78.18
83.29
86.18
86.77
85.13
81.41
75.91
69.2
62.25
56.33
52.67
52.07
54.48
58.98
64.11
68.37
70.75
71.0
69.64
67.73
66.33
66.25
67.71
70.38
73.4
75.83
76.81
75.88
72.98
68.39
62.56
55.91
48.81
41.49
34.1
26.52
18.37
8.98
-2.38
-16.03
-31.53
-47.49
-61.87
-72.47
-77.67
-76.9
-70.78
-60.78
-48.65
-35.89
-23.41
-11.67
-0.82
8.94
17.42
24.54
30.55
35.87
40.85
45.33
48.58
49.53
47.47
42.45
35.38
27.59
20.17
13.51
7.3
0.66
-7.41
-17.88
-31.51
-48.66
-68.91
-90.96
-112.78
-132.05
-146.97
-156.66
-161.33
-161.87
-159.37
-154.66
-148.14
-139.85
-129.63
-117.3
-102.78
-86.25
-68.28
-49.72
-31.73
-15.37
-1.47
9.56
17.65
23.05
26.12
27.32
27.13
26.03
24.43
22.68
21.02
19.64
18.59
17.83
17.16
16.26
14.73
12.22
8.59
3.94
-1.39
-6.99
-12.44
-17.55
-22.35
-27.07
-32.04
-37.68
-44.3
-51.95
-60.28
-68.32
-74.67
-77.72
-76.21
-69.68
-58.68
-44.58
-29.16
-14.06
-0.4
11.17
20.41
27.27
31.8
34.18
34.77
34.05
32.56
30.74
28.9
27.18
25.65
24.27
22.95
21.51
19.72
17.42
14.56
11.22
7.55
3.58
-0.67
-5.29
-10.33
-15.78
-21.66
-28.03
-35.09
-43.01
-51.81
-61.06
-69.87
-76.88
-80.62
-79.93
-74.3
-64.12
-50.52
-35.09
-19.42
-4.74
8.22
19.15
27.99
34.72
39.35
42.0
42.92
42.5
41.21
39.41
37.37
35.25
33.17
31.22
29.5
28.02
26.68
25.32
23.7
21.6
18.85
15.31
10.99
6.01
0.62
-4.85
-10.13
-15.2
-20.23
-25.67
-32.01
-39.61
-48.5
-58.18
-67.61
-75.23
-79.41
-78.78
-72.79
-61.94
-47.69
-31.94
-16.46
-2.41
9.74
19.93
28.27
34.69
39.05
41.35
41.82
41.02
39.56
37.97
36.48
35.04
33.55
31.97
30.46
29.21
28.37
27.85
27.35
26.45
24.72
21.89
17.92
12.97
7.28
1.22
-4.89
-10.74
-16.13
-21.06
-25.81
-30.92
-36.98
-44.28
-52.52
-60.62
-66.93
-69.7
-67.68
-60.58
-49.2
-35.12
-20.22
-6.09
6.29
16.52
24.58
30.53
34.43
36.28
36.3
34.93
32.81
30.61
28.82
27.62
26.9
26.42
25.92
25.28
24.42
23.31
21.83
19.83
17.09
13.48
8.96
3.73
-1.84
-7.29
-12.36
-17.09
-21.93
-27.49
-34.29
-42.4
-51.31
-59.97
-66.98
-71.0
-70.94
-66.29
-57.23
-44.65
-29.97
-14.89
-0.9
10.93
20.14
26.71
30.84
32.85
33.09
32.03
30.26
28.33
26.7
25.53
24.76
24.12
23.38
22.39
21.12
19.61
17.87
15.9
13.6
10.9
7.69
3.95
-0.28
-4.91
-9.82
-14.86
-19.94
-25.13
-30.66
-36.89
-44.03
-51.86
-59.58
-65.7
-68.52
-66.68
-59.79
-48.59
-34.69
-19.99
-5.99
6.46
17.15
26.03
33.06
38.02
40.76
41.36
40.35
38.51
36.55
34.92
33.58
32.2
30.4
28.06
25.42
22.98
21.17
20.03
19.14
17.74
15.1
10.89
5.32
-0.97
-7.26
-13.0
-18.11
-22.8
-27.55
-32.83
-38.96
-46.04
-53.78
-61.46
-67.91
-71.77
-71.77
-67.22
-58.22
-45.74
-31.31
-16.6
-3.01
8.63
18.05
25.35
30.8
34.65
37.1
38.36
38.73
38.57
38.31
38.14
38.04
37.7
36.76
35.02
32.58
29.92
27.6
26.02
25.17
24.63
23.65
21.49
17.71
12.37
6.01
-0.57
-6.56
-11.54
-15.54
-19.01
-22.66
-27.13
-32.89
-40.02
-48.19
-56.5
-63.65
-68.0
-68.09
-63.15
-53.43
-40.23
-25.39
-10.74
2.46
13.63
22.7
29.71
34.68
37.66
38.83
38.72
37.97
37.16
36.53
35.96
35.21
34.09
32.72
31.38
30.37
29.7
29.14
28.15
26.25
23.19
19.06
14.3
9.37
4.75
0.66
-2.93
-6.32
-9.99
-14.5
-20.3
-27.52
-35.84
-44.42
-52.1
-57.59
-59.83
-58.27
-52.91
-44.25
-33.12
-20.58
-7.78
4.19
14.4
22.22
27.41
30.14
30.84
30.16
28.74
27.13
25.67
24.47
23.47
22.4
21.1
19.49
17.78
16.23
14.97
13.92
12.59
10.41
7.02
2.53
-2.52
-7.32
-11.23
-14.1
-16.38
-18.92
-22.63
-28.12
-35.45
-44.01
-52.58
-59.69
-63.91
-64.25
-60.42
-52.83
-42.42
-30.37
-17.83
-5.81
4.99
14.06
21.09
25.98
28.89
30.08
29.93
28.86
27.18
25.15
22.97
20.87
19.06
17.77
17.11
17.12
17.57
18.07
18.1
17.17
15.0
11.57
7.14
2.14
-2.96
-7.76
-12.13
-16.14
-20.19
-24.83
-30.64
-37.99
-46.66
-55.83
-64.07
-69.68
-71.21
-67.88
-59.8
-47.95
-33.83
-19.06
-4.99
7.57
18.25
27.01
33.85
38.75
41.71
42.83
42.49
41.16
39.41
37.54
35.57
33.27
30.42
27.09
23.61
20.63
18.6
17.63
17.24
16.64
15.01
11.88
7.35
1.97
-3.39
-8.07
-11.84
-15.02
-18.27
-22.33
-27.69
-34.42
-42.16
-50.17
-57.36
-62.43
-64.11
-61.42
-54.05
-42.57
-28.34
-13.24
0.98
13.09
22.63
29.71
34.66
37.82
39.43
39.7
38.98
37.75
36.51
35.61
35.1
34.75
34.21
33.12
31.4
29.27
27.13
25.33
23.91
22.51
20.45
17.17
12.4
6.47
0.1
-5.89
-11.01
-15.3
-19.29
-23.73
-29.21
-35.98
-43.92
-52.4
-60.44
-66.79
-70.06
-69.16
-63.66
-53.94
-41.24
-27.16
-13.24
-0.58
10.25
19.1
26.0
31.02
34.21
35.72
35.86
35.06
33.82
32.54
31.38
30.32
29.25
28.09
26.83
25.63
24.69
24.05
23.58
22.84
21.3
18.47
14.19
8.72
2.68
-3.19
-8.36
-12.72
-16.7
-21.01
-26.41
-33.21
-41.14
-49.24
-56.13
-60.38
-60.89
-57.14
-49.33
-38.37
-25.56
-12.3
0.24
11.31
20.67
28.31
34.25
38.4
40.56
40.67
39.02
36.24
33.14
30.45
28.51
27.22
26.28
25.31
24.1
22.57
20.63
18.2
15.15
11.43
7.14
2.49
-2.22
-6.76
-11.03
-15.19
-19.57
-24.64
-30.86
-38.46
-47.14
-56.01
-63.58
-68.15
-68.32
-63.46
-54.02
-41.23
-26.84
-12.41
1.02
12.93
23.17
31.56
37.89
41.79
43.23
42.62
40.75
38.59
36.81
35.64
34.92
34.35
33.72
33.09
32.53
31.96
31.08
29.35
26.37
21.92
16.19
9.59
2.68
-3.94
-9.86
-14.86
-19.2
-23.52
-28.68
-35.43
-43.93
-53.54
-62.83
-70.01
-73.39
-72.1
-66.21
-56.72
-45.01
-32.37
-19.67
-7.32
4.48
15.55
25.46
33.7
39.82
43.73
45.74
46.4
46.29
45.76
44.92
43.69
42.06
40.2
38.36
36.86
35.82
35.15
34.49
33.39
31.35
28.18
23.88
18.64
12.81
6.7
0.55
-5.58
-11.77
-18.19
-24.99
-32.39
-40.49
-49.12
-57.72
-65.15
-69.84
-70.27
-65.48
-55.47
-41.32
-24.8
-7.78
8.14
22.08
33.66
42.9
49.97
55.09
58.61
60.95
62.64
64.11
65.7
67.46
69.25
70.72
71.43
71.01
69.26
66.41
62.93
59.46
56.43
53.81
50.98
47.03
41.23
33.48
24.53
15.73
8.55
3.96
2.05
2.04
2.58
2.29
0.22
-3.79
-9.19
-14.81
-19.34
-21.65
-21.08
-17.5
-11.21
-2.85
6.76
16.68
25.93
33.56
38.9
41.71
42.23
41.02
38.65
35.58
32.13
28.55
25.19
22.41
20.47
19.31
18.67
18.2
17.67
17.07
16.44
15.68
14.44
12.24
8.75
3.96
-1.75
-7.92
-14.12
-20.17
-26.04
-31.83
-37.63
-43.61
-49.91
-56.51
-63.02
-68.42
-71.32
-70.26
-64.36
-53.72
-39.41
-23.13
-6.77
8.12
20.6
30.32
37.6
43.17
47.91
52.39
56.6
59.93
61.48
60.74
57.95
54.17
50.81
48.86
48.46
48.88
48.97
47.73
44.78
40.19
34.24
27.21
19.25
10.59
1.58
-7.35
-15.85
-23.81
-31.47
-39.23
-47.45
-56.2
-65.08
-73.23
-79.28
-81.83
-79.66
-72.33
-60.34
-45.06
-28.43
-12.33
1.87
13.53
22.61
29.45
34.44
37.87
39.91
40.65
40.24
38.9
37.09
35.3
34.01
33.44
33.48
33.68
33.38
31.95
28.99
24.43
18.43
11.39
3.72
-4.18
-11.94
-19.35
-26.21
-32.54
-38.5
-44.49
-51.0
-58.49
-67.22
-76.91
-86.7
-95.07
-100.18
-100.45
-95.0
-84.14
-69.25
-52.36
-35.44
-19.92
-6.33
5.39
15.56
24.36
31.66
37.22
40.98
43.2
44.54
45.72
47.24
49.06
50.71
51.52
51.03
49.15
46.3
43.06
39.93
37.07
34.27
30.99
26.61
20.69
13.08
4.09
-5.59
-15.11
-23.74
-31.08
-37.24
-42.75
-48.35
-54.77
-62.46
-71.35
-80.8
-89.56
-96.03
-98.62
-96.26
-88.68
-76.52
-61.07
-43.93
-26.65
-10.47
3.75
15.54
24.73
31.48
36.09
39.02
40.7
41.44
41.39
40.66
39.31
37.45
35.28
33.03
30.9
29.02
27.34
25.74
23.99
21.91
19.32
16.11
12.2
7.51
2.05
-4.08
-10.61
-17.25
-23.68
-29.79
-35.58
-41.23
-47.0
-53.24
-60.28
-68.18
-76.65
-84.68
-90.69
-92.76
-89.3
-79.68
-64.6
-46.01
-26.35
-7.85
8.12
21.01
30.84
37.76
41.8
43.07
41.91
39.09
35.54
31.96
28.59
25.23
21.82
18.77
17.14
18.08
21.95
27.64
32.6
33.61
28.06
15.17
-3.78
-25.83
-47.56
-66.24
-80.51
-90.16
-95.68
-97.83
-97.56
-96.21
-95.46
-96.96
-101.43
-108.01
-114.38
-117.44
-114.77
-105.44
-90.31
-71.4
-50.93
-30.73
-12.0
4.36
17.64
27.31
33.4
36.61
38.21
39.43
41.0
42.91
44.65
45.61
45.56
44.73
43.66
42.82
42.33
41.79
40.48
37.68
33.11
27.0
20.12
13.3
7.17
1.82
-3.17
-8.49
-14.88
-22.75
-32.26
-43.23
-55.12
-66.98
-77.4
-84.66
-87.03
-83.42
-73.73
-59.15
-41.67
-23.55
-6.55
8.39
21.13
31.86
40.65
47.31
51.45
52.88
51.86
49.26
46.3
44.03
43.09
43.4
44.46
45.56
46.19
46.15
45.45
44.2
42.32
39.54
35.5
30.09
23.48
16.27
9.2
2.81
-2.75
-7.84
-13.09
-19.2
-26.73
-35.91
-46.5
-57.74
-68.24
-76.18
-79.83
-78.02
-70.59
-58.46
-43.2
-26.55
-9.83
6.07
20.65
33.42
43.87
51.49
56.09
58.03
58.09
57.3
56.44
55.91
55.57
55.1
54.11
52.47
50.38
48.19
46.29
44.82
43.58
42.06
39.72
36.04
30.91
24.55
17.44
10.1
2.93
-3.9
-10.43
-16.82
-23.23
-29.94
-37.27
-45.62
-55.08
-65.23
-74.87
-82.25
-85.41
-82.96
-74.58
-61.04
-44.11
-25.73
-7.58
9.24
24.11
36.67
46.51
53.23
56.69
57.13
55.39
52.63
49.93
48.0
46.82
45.91
44.68
42.81
40.33
37.66
35.17
33.02
30.94
28.44
25.06
20.6
15.27
9.47
3.66
-1.91
-7.35
-13.06
-19.63
-27.53
-36.87
-47.11
-57.12
-65.26
-69.85
-69.65
-64.23
-54.08
-40.4
-24.83
-8.95
5.9
18.77
29.11
36.63
41.4
43.69
44.04
43.1
41.51
39.76
38.1
36.56
35.02
33.49
32.06
30.97
30.29
29.88
29.24
27.71
24.72
20.07
13.96
6.95
-0.37
-7.59
-14.56
-21.37
-28.32
-35.78
-44.17
-53.76
-64.47
-75.54
-85.57
-92.77
-95.41
-92.55
-84.21
-71.44
-55.87
-39.25
-23.03
-8.12
4.89
15.72
24.2
30.3
34.11
35.83
35.72
34.07
31.1
27.01
22.02
16.32
10.29
4.28
-1.29
-6.16
-10.43
-14.54
-19.28
-25.38
-33.22
-42.41
-51.89
-60.26
-66.31
-69.52
-70.25
-69.57
-68.83
-69.32
-71.95
-77.2
-85.11
-95.14
-106.26
-116.85
-125.09
-129.29
-128.47
-122.51
-112.27
-99.17
-84.77
-70.42
-56.98
-44.93
-34.4
-25.33
-17.41
-10.0
-2.15
7.28
19.12
33.5
49.52
65.46
79.4
89.89
96.52
99.9
101.19
101.46
101.23
100.4
98.58
95.47
91.11
85.83
80.09
74.14
67.89
61.06
53.24
44.06
33.39
21.36
8.51
-4.18
-15.4
-23.69
-27.77
-26.81
-20.65
-9.81
4.56
20.94
37.63
53.1
66.1
75.91
82.33
85.69
86.62
85.88
84.19
82.02
79.62
77.08
74.49
71.99
69.93
68.65
68.42
69.21
70.64
72.09
72.9
72.55
70.77
67.45
62.57
56.16
48.34
39.36
29.68
19.75
9.81
-0.25
-10.8
-22.16
-34.07
-45.5
-54.79
-60.18
-60.53
-55.77
-46.92
-35.63
-23.68
-12.43
-2.64
5.42
11.75
16.41
19.46
21.03
21.35
20.77
19.76
18.73
18.0
17.64
17.49
17.23
16.49
14.97
12.58
9.43
5.63
1.35
-3.38
-8.55
-14.1
-19.87
-25.61
-31.2
-36.75
-42.77
-49.86
-58.45
-68.24
-78.14
-86.34
-90.92
-90.55
-84.91
-74.87
-62.04
-48.17
-34.67
-22.28
-11.19
-1.35
7.2
14.27
19.49
22.6
23.6
22.91
21.26
19.4
17.91
16.96
16.39
15.77
14.74
13.16
11.17
9.14
7.4
6.25
5.73
5.81
6.4
7.35
8.43
9.27
9.35
8.07
5.02
0.18
-5.77
-11.54
-15.43
-15.82
-11.69
-2.93
9.58
24.28
39.42
53.54
65.74
75.6
83.12
88.45
91.78
93.31
93.28
91.96
89.64
86.62
83.08
79.15
74.94
70.54
66.1
61.83
57.86
54.22
50.72
46.98
42.6
37.28
31.05
24.26
17.44
11.0
4.95
-1.05
-7.71
-15.65
-25.17
-36.03
-47.47
-58.34
-67.35
-73.35
-75.55
-73.75
-68.29
-60.01
-50.03
-39.46
-29.15
-19.63
-11.11
-3.63
2.77
8.08
12.3
15.6
18.28
20.74
23.33
26.28
29.58
33.13
36.82
40.53
44.18
47.59
50.36
52.01
52.1
50.48
47.33
43.17
38.53
33.82
29.09
24.1
18.5
11.96
4.37
-4.24
-13.63
-23.33
-32.56
-40.25
-45.18
-46.34
-43.31
-36.44
-26.82
-15.87
-4.94
5.02
13.58
20.65
26.27
30.41
33.07
34.27
34.21
33.26
31.8
30.13
28.43
26.79
25.21
23.72
22.26
20.78
19.16
17.25
14.93
12.16
8.94
5.34
1.38
-2.92
-7.51
-12.33
-17.38
-22.71
-28.55
-35.1
-42.31
-49.67
-56.14
-60.38
-61.21
-58.05
-51.06
-41.12
-29.5
-17.51
-6.21
3.71
11.92
18.37
23.15
26.47
28.48
29.39
29.36
28.62
27.43
26.05
24.65
23.32
22.0
20.64
19.2
17.7
16.11
14.26
11.9
8.81
4.9
0.39
-4.35
-8.97
-13.29
-17.54
-22.26
-28.11
-35.57
-44.62
-54.56
-64.04
-71.42
-75.19
-74.5
-69.31
-60.38
-48.95
-36.33
-23.64
-11.65
-0.82
8.64
16.6
22.97
27.69
30.82
32.5
33.03
32.8
32.18
31.44
30.71
30.01
29.35
28.77
28.27
27.78
27.03
25.59
23.09
19.39
14.75
9.71
4.86
0.55
-3.29
-7.05
-11.31
-16.54
-22.99
-30.65
-39.18
-47.99
-56.12
-62.37
-65.46
-64.47
-59.11
-49.99
-38.38
-25.81
-13.56
-2.4
7.41
15.94
23.25
29.33
34.07
37.37
39.29
40.02
39.84
39.12
38.19
37.28
36.48
35.75
34.94
33.97
32.79
31.47
30.07
28.51
26.62
24.12
20.87
16.94
12.62
8.31
4.31
0.68
-2.75
-6.33
-10.45
-15.41
-21.35
-28.18
-35.52
-42.67
-48.68
-52.54
-53.33
-50.61
-44.46
-35.58
-25.03
-14.03
-3.66
5.3
12.4
17.57
20.97
22.97
23.93
24.2
23.91
23.13
21.86
20.15
18.2
16.27
14.61
13.27
12.21
11.2
10.06
8.64
6.84
4.61
1.86
-1.44
-5.18
-9.14
-13.06
-16.78
-20.34
-24.02
-28.07
-32.66
-37.61
-42.5
-46.65
-49.33
-49.87
-47.82
-43.12
-36.1
-27.5
-18.22
-9.12
-0.8
6.41
12.35
16.85
19.66
20.55
19.51
16.92
13.47
10.01
7.27
5.58
4.94
5.1
5.75
6.6
7.51
8.43
9.39
10.37
11.32
12.05
12.26
11.64
9.95
7.16
3.46
-0.86
-5.59
-10.7
-16.29
-22.41
-28.82
-34.82
-39.48
-41.8
-41.07
-37.1
-30.23
-21.17
-10.77
0.26
11.41
22.33
32.76
42.4
50.84
57.67
62.59
65.52
66.59
66.01
63.79
59.66
53.17
43.98
32.11
18.18
3.29
-11.33
-24.52
-35.5
-43.85
-49.5
-52.67
-53.81
-53.64
-53.08
-53.18
-54.84
-58.61
-64.52
-72.02
-80.02
-87.18
-92.19
-94.0
-92.05
-86.25
-76.97
-64.8
-50.54
-35.08
-19.42
-4.62
8.37
18.83
26.5
31.53
34.44
35.84
36.3
36.22
35.85
35.36
34.86
34.4
33.95
33.41
32.63
31.48
29.96
28.15
26.14
23.88
21.27
18.13
14.39
10.12
5.54
0.84
-3.97
-9.09
-14.91
-21.69
-29.33
-37.2
-44.21
-49.15
-51.02
-49.38
-44.4
-36.76
-27.35
-17.1
-6.84
2.69
10.83
17.07
21.17
23.28
23.88
23.64
23.11
22.64
22.23
21.72
20.94
19.8
18.34
16.64
14.84
13.0
11.12
9.16
7.01
4.64
2.02
-0.78
-3.67
-6.57
-9.56
-12.88
-16.88
-21.95
-28.24
-35.49
-42.96
-49.48
-53.73
-54.63
-51.64
-44.99
-35.62
-24.78
-13.74
-3.43
5.65
13.28
19.41
23.99
26.96
28.31
28.27
27.2
25.55
23.77
22.09
20.55
19.08
17.6
16.12
14.72
13.43
12.12
10.57
8.43
5.55
1.91
-2.31
-6.89
-11.73
-16.83
-22.37
-28.45
-35.12
-42.14
-48.99
-54.88
-58.82
-59.9
-57.47
-51.55
-42.7
-32.04
-20.81
-10.06
-0.41
7.9
14.84
20.44
24.73
27.81
29.84
31.13
31.94
32.49
32.85
33.01
32.96
32.75
32.39
31.83
30.87
29.28
26.86
23.59
19.64
15.3
10.82
6.37
1.98
-2.42
-6.97
-11.89
-17.41
-23.76
-30.96
-38.73
-46.36
-52.79
-56.9
-57.83
-55.3
-49.55
-41.29
-31.29
-20.21
-8.55
3.27
14.72
25.05
33.45
39.32
42.51
43.42
42.82
41.59
40.3
39.16
38.08
36.89
35.56
34.26
33.13
32.24
31.37
30.19
28.31
25.61
22.13
18.13
13.88
9.59
5.35
1.19
-2.96
-7.28
-12.05
-17.65
-24.26
-31.72
-39.27
-45.64
-49.43
-49.48
-45.41
-37.68
-27.42
-16.05
-4.8
5.53
14.59
22.18
28.16
32.34
34.61
35.11
34.31
32.86
31.41
30.32
29.57
28.94
28.19
27.23
26.13
24.98
23.77
22.33
20.41
17.81
14.56
10.87
7.03
3.29
-0.33
-3.98
-7.93
-12.46
-17.79
-23.95
-30.76
-37.75
-44.12
-48.83
-50.82
-49.33
-44.13
-35.69
-25.02
-13.39
-2.0
8.28
16.98
23.92
29.1
32.52
34.19
34.25
32.95
30.67
27.91
25.11
22.62
20.58
18.98
17.68
16.41
14.9
12.96
10.51
7.61
4.43
1.07
-2.41
-6.05
-9.96
-14.25
-19.07
-24.5
-30.63
-37.37
-44.3
-50.64
-55.3
-57.2
-55.55
-50.21
-41.68
-31.01
-19.37
-7.88
2.67
11.87
19.54
25.67
30.22
33.14
34.36
33.96
32.2
29.57
26.69
24.08
22.08
20.69
19.72
18.92
18.11
17.17
15.97
14.31
11.91
8.57
4.31
-0.53
-5.48
-10.1
-14.28
-18.36
-22.96
-28.69
-35.71
-43.53
-50.91
-56.29
-58.19
-55.75
-49.01
-38.83
-26.61
-13.78
-1.49
9.52
18.9
26.45
32.07
35.71
37.53
37.83
37.14
36.0
34.81
33.78
32.87
31.96
30.9
29.68
28.35
27.02
25.7
24.33
22.71
20.62
17.92
14.55
10.63
6.38
2.03
-2.31
-6.69
-11.33
-16.54
-22.56
-29.34
-36.39
-42.82
-47.53
-49.45
-47.95
-42.95
-35.01
-25.07
-14.27
-3.63
6.04
14.2
20.61
25.17
27.98
29.25
29.3
28.45
27.02
25.24
23.29
21.33
19.46
17.83
16.51
15.54
14.81
14.16
13.32
12.07
10.25
7.8
4.82
1.44
-2.17
-5.89
-9.61
-13.33
-17.13
-21.23
-25.98
-31.58
-37.92
-44.3
-49.51
-52.15
-51.09
-45.96
-37.36
-26.59
-15.22
-4.59
4.55
11.95
17.69
21.83
24.36
25.23
24.56
22.69
20.24
17.89
16.18
15.28
15.03
15.04
14.91
14.39
13.4
11.99
10.21
8.08
5.55
2.61
-0.68
-4.18
-7.7
-11.19
-14.73
-18.61
-23.17
-28.65
-34.88
-41.3
-46.91
-50.53
-51.19
-48.42
-42.38
-33.85
-23.94
-13.79
-4.36
3.75
10.22
14.97
18.1
19.75
20.18
19.66
18.52
17.09
15.62
14.29
13.14
12.13
11.21
10.33
9.47
8.58
7.56
6.23
4.4
1.9
-1.32
-5.19
-9.56
-14.24
-19.08
-24.08
-29.38
-35.15
-41.46
-48.05
-54.25
-59.07
-61.4
-60.41
-55.81
-48.04
-38.11
-27.33
-16.91
-7.68
-0.05
5.99
10.69
14.33
17.2
19.45
21.22
22.6
23.68
24.59
25.4
26.14
26.78
27.22
27.37
27.14
26.52
25.54
24.21
22.54
20.44
17.79
14.5
10.55
6.04
1.11
-4.12
-9.63
-15.54
-21.9
-28.56
-35.04
-40.42
-43.67
-43.88
-40.6
-34.09
-25.2
-15.14
-5.13
3.94
11.57
17.62
22.04
24.81
25.88
25.36
23.6
21.25
19.03
17.43
16.57
16.14
15.68
14.86
13.74
12.62
11.86
11.59
11.53
11.24
10.27
8.39
5.72
2.53
-0.87
-4.32
-7.85
-11.61
-15.81
-20.56
-25.76
-31.02
-35.64
-38.76
-39.58
-37.6
-32.8
-25.69
-17.15
-8.19
0.28
7.61
13.44
17.64
20.25
21.4
21.31
20.24
18.49
16.4
14.32
12.53
11.19
10.32
9.71
9.1
8.2
6.91
5.33
3.72
2.31
1.18
0.14
-1.19
-3.16
-5.97
-9.55
-13.68
-18.19
-22.99
-28.11
-33.37
-38.25
-41.8
-42.89
-40.66
-34.92
-26.33
-16.14
-5.8
3.57
11.36
17.44
21.92
24.89
26.41
26.55
25.52
23.78
21.86
20.25
19.21
18.72
18.58
18.5
18.21
17.53
16.36
14.67
12.45
9.74
6.65
3.28
-0.28
-4.0
-7.95
-12.26
-17.07
-22.5
-28.56
-35.0
-41.25
-46.42
-49.49
-49.55
-46.16
-39.54
-30.5
-20.2
-9.79
-0.14
8.3
15.34
20.89
24.86
27.16
27.86
27.23
25.81
24.14
22.74
21.85
21.47
21.44
21.48
21.36
20.83
19.75
18.0
15.63
12.76
9.62
6.47
3.45
0.56
-2.39
-5.67
-9.54
-14.16
-19.55
-25.48
-31.46
-36.76
-40.45
-41.64
-39.76
-34.69
-26.85
-17.08
-6.44
4.03
13.47
21.26
27.09
30.93
33.02
33.78
33.65
32.99
31.98
30.64
28.96
27.01
24.96
23.02
21.32
19.87
18.59
17.36
16.12
14.8
13.3
11.41
8.91
5.62
1.6
-2.91
-7.53
-12.02
-16.37
-20.84
-25.75
-31.25
-37.07
-42.47
-46.48
-48.07
-46.58
-41.82
-34.13
-24.35
-13.56
-2.9
6.68
14.56
20.46
24.44
26.75
27.73
27.72
26.95
25.58
23.74
21.52
19.07
16.61
14.36
12.58
11.36
10.67
10.25
9.77
8.96
7.69
6.0
3.97
1.68
-0.91
-3.85
-7.18
-10.89
-14.9
-19.17
-23.74
-28.71
-34.05
-39.41
-44.03
-46.86
-46.86
-43.4
-36.5
-26.92
-15.88
-4.75
5.33
13.69
20.07
24.57
27.37
28.68
28.72
27.78
26.22
24.44
22.75
21.31
20.05
18.84
17.56
16.19
14.81
13.47
12.09
10.45
8.3
5.48
2.08
-1.71
-5.58
-9.35
-12.97
-16.53
-20.22
-24.23
-28.73
-33.82
-39.48
-45.33
-50.61
-54.16
-54.79
-51.65
-44.69
-34.71
-23.1
-11.36
-0.61
8.57
16.06
21.94
26.19
28.75
29.61
29.03
27.53
25.77
24.25
23.19
22.51
21.95
21.32
20.58
19.85
19.3
18.97
18.7
18.12
16.87
14.7
11.64
8.0
4.17
0.47
-3.02
-6.45
-10.09
-14.11
-18.6
-23.51
-28.82
-34.48
-40.3
-45.71
-49.81
-51.47
-49.73
-44.27
-35.51
-24.61
-12.97
-1.8
8.12
16.53
23.42
28.81
32.6
34.64
34.91
33.64
31.35
28.75
26.52
25.02
24.26
23.96
23.7
23.16
22.26
21.1
19.88
18.73
17.61
16.34
14.64
12.32
9.32
5.73
1.8
-2.22
-6.08
-9.67
-13.0
-16.22
-19.55
-23.19
-27.25
-31.71
-36.36
-40.75
-44.2
-45.86
-44.95
-40.95
-33.93
-24.55
-13.93
-3.34
6.2
14.07
20.1
24.38
27.12
28.45
28.52
27.52
25.77
23.67
21.65
20.03
18.92
18.22
17.72
17.18
16.5
15.7
14.86
14.06
13.19
12.04
10.37
8.03
5.08
1.74
-1.71
-5.01
-7.99
-10.63
-13.01
-15.34
-17.91
-21.05
-24.94
-29.42
-33.91
-37.43
-39.04
-38.0
-34.12
-27.73
-19.54
-10.34
-0.91
8.04
15.92
22.1
26.12
27.77
27.23
25.07
22.15
19.38
17.37
16.33
16.01
15.97
15.7
14.92
13.67
12.18
10.72
9.42
8.26
7.01
5.4
3.26
0.52
-2.71
-6.18
-9.62
-12.81
-15.68
-18.47
-21.59
-25.51
-30.5
-36.37
-42.35
-47.29
-49.89
-49.23
-44.98
-37.53
-27.82
-17.02
-6.21
3.76
12.37
19.28
24.26
27.19
28.17
27.5
25.69
23.38
21.07
19.11
17.57
16.35
15.32
14.35
13.44
12.58
11.83
11.15
10.42
9.39
7.81
5.48
2.43
-1.08
-4.66
-7.97
-10.92
-13.66
-16.6
-20.13
-24.54
-29.89
-36.05
-42.68
-49.17
-54.59
-57.75
-57.51
-53.18
-44.88
-33.68
-21.22
-9.21
1.16
9.47
15.91
20.89
24.66
27.19
28.33
28.08
26.78
25.04
23.47
22.36
21.62
20.92
19.95
18.67
17.28
16.06
15.16
14.44
13.53
12.02
9.61
6.24
2.08
-2.48
-7.0
-11.05
-14.37
-17.0
-19.23
-21.63
-24.77
-29.07
-34.56
-40.8
-46.93
-51.81
-54.33
-53.59
-49.28
-41.62
-31.46
-19.96
-8.32
2.43
11.62
18.91
24.19
27.51
29.0
28.95
27.81
26.18
24.61
23.55
23.13
23.18
23.33
23.2
22.58
21.45
20.01
18.49
17.09
15.78
14.44
12.8
10.58
7.6
3.87
-0.38
-4.79
-9.04
-12.99
-16.72
-20.49
-24.68
-29.58
-35.3
-41.59
-47.84
-53.05
-56.04
-55.76
-51.56
-43.55
-32.55
-19.95
-7.23
4.33
13.95
21.3
26.36
29.28
30.31
29.81
28.26
26.22
24.26
22.76
21.85
21.39
21.07
20.58
19.74
18.55
17.19
15.91
14.82
13.81
12.58
10.74
8.06
4.59
0.61
-3.45
-7.22
-10.6
-13.77
-17.13
-21.1
-25.99
-31.81
-38.22
-44.43
-49.34
-51.66
-50.36
-44.97
-35.9
-24.36
-11.94
-0.15
9.95
17.94
23.81
27.73
29.84
30.31
29.38
27.57
25.53
23.85
22.85
22.42
22.2
21.78
20.94
19.77
18.53
17.46
16.6
15.69
14.33
12.13
8.91
4.77
0.04
-4.85
-9.58
-14.01
-18.22
-22.51
-27.22
-32.71
-39.04
-45.89
-52.39
-57.23
-59.07
-56.88
-50.48
-40.53
-28.39
-15.6
-3.39
7.51
16.84
24.53
30.47
34.49
36.54
36.85
35.93
34.47
33.07
32.01
31.22
30.4
29.27
27.8
26.18
24.78
23.82
23.28
22.82
21.87
19.96
16.87
12.72
7.93
2.99
-1.69
-5.94
-9.77
-13.43
-17.2
-21.47
-26.57
-32.69
-39.7
-46.98
-53.46
-57.76
-58.63
-55.3
-47.8
-36.92
-23.99
-10.52
2.24
13.46
22.78
30.17
35.77
39.68
41.99
42.84
42.46
41.27
39.83
38.7
38.24
38.5
39.23
39.91
40.06
39.36
37.79
35.57
33.05
30.53
28.19
25.98
23.66
20.95
17.54
13.33
8.45
3.24
-1.89
-6.63
-10.84
-14.76
-18.79
-23.47
-29.15
-35.88
-43.29
-50.5
-56.35
-59.59
-59.21
-54.71
-46.28
-34.81
-21.59
-8.03
4.67
15.73
24.85
32.03
37.42
41.13
43.24
43.85
43.12
41.45
39.35
37.4
36.04
35.45
35.5
35.77
35.85
35.4
34.32
32.74
30.93
29.05
27.13
25.06
22.59
19.57
15.93
11.77
7.27
2.64
-1.91
-6.22
-10.23
-13.97
-17.56
-21.25
-25.3
-29.92
-35.17
-40.82
-46.34
-50.83
-53.23
-52.56
-48.25
-40.37
-29.67
-17.42
-5.05
6.17
15.4
22.34
27.1
29.98
31.34
31.52
30.78
29.45
27.86
26.39
25.4
25.03
25.18
25.5
25.5
24.81
23.4
21.51
19.6
17.96
16.63
15.21
13.19
10.23
6.33
1.99
-2.14
-5.51
-8.05
-10.15
-12.57
-15.99
-20.81
-26.94
-33.85
-40.75
-46.61
-50.38
-51.1
-48.14
-41.47
-31.74
-20.2
-8.32
2.6
11.8
19.09
24.65
28.75
31.56
33.11
33.44
32.69
31.17
29.23
27.24
25.46
24.04
23.0
22.24
21.53
20.67
19.52
18.14
16.65
15.21
13.78
12.12
9.89
6.81
2.92
-1.43
-5.71
-9.49
-12.63
-15.36
-18.13
-21.45
-25.66
-30.82
-36.78
-43.14
-49.36
-54.81
-58.7
-60.22
-58.67
-53.69
-45.49
-34.88
-23.07
-11.35
-0.68
8.44
15.94
21.98
26.64
29.9
31.67
32.0
31.18
29.73
28.24
27.13
26.53
26.33
26.31
26.24
25.95
25.36
24.36
22.92
21.02
18.74
16.17
13.41
10.52
7.55
4.52
1.43
-1.76
-5.09
-8.63
-12.4
-16.35
-20.25
-23.91
-27.25
-30.48
-34.03
-38.39
-43.7
-49.51
-54.77
-58.1
-58.38
-54.97
-48.11
-38.6
-27.57
-16.12
-5.14
4.72
13.06
19.66
24.52
27.75
29.61
30.4
30.32
29.61
28.48
27.25
26.2
25.53
25.26
25.24
25.3
25.3
25.17
24.85
24.19
23.02
21.24
18.9
16.23
13.46
10.7
7.85
4.67
1.03
-3.03
-7.24
-11.29
-14.97
-18.28
-21.37
-24.48
-27.86
-31.73
-36.2
-41.26
-46.6
-51.53
-55.07
-56.14
-53.91
-48.17
-39.36
-28.58
-17.17
-6.36
3.04
10.73
16.78
21.45
24.92
27.25
28.41
28.4
27.39
25.72
23.89
22.42
21.64
21.58
21.98
22.37
22.3
21.61
20.36
18.88
17.47
16.24
15.03
13.5
11.36
8.43
4.85
0.83
-3.33
-7.38
-11.12
-14.43
-17.29
-19.76
-22.11
-24.7
-27.99
-32.29
-37.6
-43.41
-48.75
-52.34
-52.95
-49.88
-43.19
-33.74
-22.91
-12.08
-2.26
6.18
13.27
19.19
23.92
27.19
28.69
28.32
26.46
23.85
21.47
19.99
19.64
20.07
20.61
20.59
19.7
18.04
16.04
14.2
12.75
11.63
10.43
8.76
6.38
3.32
-0.16
-3.73
-7.23
-10.65
-14.14
-17.83
-21.75
-25.81
-29.97
-34.33
-39.12
-44.52
-50.43
-56.14
-60.48
-62.04
-59.79
-53.45
-43.7
-31.91
-19.68
-8.28
1.61
9.84
16.55
21.86
25.73
28.08
28.92
28.55
27.43
26.16
25.15
24.57
24.31
24.13
23.82
23.28
22.56
21.75
20.88
19.96
18.89
17.51
15.63
13.07
9.74
5.76
1.41
-2.85
-6.63
-9.78
-12.5
-15.23
-18.49
-22.62
-27.73
-33.69
-40.3
-47.28
-54.23
-60.43
-64.82
-66.19
-63.56
-56.68
-46.17
-33.41
-20.08
-7.6
3.19
12.12
19.41
25.33
29.97
33.2
34.87
34.98
33.82
31.97
30.01
28.45
27.51
27.23
27.46
27.9
28.28
28.31
27.86
26.9
25.58
24.05
22.37
20.46
18.07
14.92
10.94
6.27
1.31
-3.55
-8.04
-12.15
-16.07
-20.06
-24.39
-29.28
-34.9
-41.32
-48.39
-55.57
-61.89
-66.02
-66.71
-63.11
-55.21
-43.86
-30.49
-16.69
-3.76
7.5
16.83
24.23
29.81
33.67
35.92
36.73
36.49
35.68
34.79
34.12
33.7
33.3
32.69
31.67
30.28
28.68
27.09
25.6
24.23
22.78
21.03
18.84
16.04
12.63
8.64
4.26
-0.31
-4.8
-8.99
-12.81
-16.3
-19.68
-23.23
-27.36
-32.42
-38.62
-45.76
-53.15
-59.56
-63.47
-63.59
-59.23
-50.65
-38.96
-25.79
-12.7
-0.85
9.12
17.04
22.91
26.86
29.01
29.61
29.04
27.79
26.34
25.0
23.9
22.97
22.13
21.33
20.63
20.15
19.95
19.93
19.77
19.02
17.26
14.25
10.04
4.99
-0.35
-5.47
-10.01
-13.95
-17.51
-21.16
-25.42
-30.69
-37.1
-44.3
-51.45
-57.29
-60.45
-59.78
-54.82
-45.9
-34.08
-20.84
-7.64
4.39
14.65
22.93
29.23
33.61
36.16
37.05
36.62
35.41
33.99
32.8
31.98
31.36
30.6
29.4
27.7
25.74
23.91
22.42
21.21
19.85
17.79
14.58
10.17
4.92
-0.6
-5.84
-10.53
-14.75
-18.82
-23.22
-28.42
-34.8
-42.45
-51.08
-59.84
-67.34
-71.96
-72.26
-67.57
-58.14
-45.19
-30.42
-15.53
-1.78
10.22
20.34
28.66
35.24
40.04
43.0
44.28
44.28
43.63
42.9
42.39
42.05
41.56
40.57
38.95
36.88
34.75
32.89
31.4
30.05
28.34
25.74
21.91
16.84
10.89
4.65
-1.26
-6.41
-10.79
-14.77
-19.05
-24.42
-31.44
-40.18
-50.09
-59.94
-68.04
-72.66
-72.44
-66.85
-56.34
-42.23
-26.31
-10.36
4.26
16.84
27.14
35.31
41.54
46.02
48.86
50.2
50.37
49.84
49.16
48.73
48.66
48.68
48.34
47.27
45.38
42.98
40.61
38.76
37.54
36.58
35.12
32.38
27.91
21.83
14.8
7.7
1.32
-3.99
-8.36
-12.33
-16.5
-21.34
-27.08
-33.71
-41.05
-48.68
-55.88
-61.59
-64.54
-63.56
-58.01
-48.04
-34.67
-19.54
-4.46
9.1
20.24
28.74
34.8
38.87
41.33
42.47
42.53
41.75
40.44
38.95
37.53
36.25
35.03
33.66
32.07
30.32
28.63
27.24
26.21
25.3
24.02
21.89
18.58
14.14
8.95
3.53
-1.66
-6.38
-10.65
-14.73
-19.03
-24.0
-29.98
-37.06
-44.81
-52.31
-58.19
-61.06
-59.96
-54.6
-45.5
-33.77
-20.74
-7.61
4.72
15.69
24.92
32.14
37.16
39.98
40.84
40.23
38.81
37.26
36.0
35.2
34.7
34.19
33.39
32.21
30.75
29.22
27.77
26.42
24.93
22.95
20.09
16.17
11.24
5.64
-0.18
-5.8
-10.99
-15.75
-20.3
-24.98
-30.18
-36.22
-43.25
-51.04
-58.83
-65.43
-69.36
-69.4
-64.93
-56.22
-44.38
-30.91
-17.32
-4.67
6.47
15.98
23.89
30.27
35.1
38.38
40.23
40.94
40.93
40.61
40.28
40.05
39.84
39.51
38.9
37.96
36.7
35.22
33.62
31.99
30.41
28.81
26.97
24.51
21.06
16.46
10.91
4.93
-0.82
-5.81
-9.9
-13.33
-16.63
-20.34
-24.88
-30.42
-36.89
-43.99
-51.14
-57.43
-61.65
-62.59
-59.35
-51.8
-40.7
-27.53
-14.03
-1.69
8.66
16.91
23.39
28.61
32.86
36.18
38.49
39.72
39.99
39.49
38.55
37.41
36.27
35.26
34.49
34.0
33.74
33.58
33.29
32.62
31.38
29.48
26.98
24.0
20.69
17.2
13.66
10.15
6.69
3.21
-0.44
-4.37
-8.62
-13.05
-17.37
-21.29
-24.66
-27.69
-30.88
-34.86
-40.0
-46.08
-52.1
-56.54
-57.83
-54.96
-47.91
-37.56
-25.42
-13.03
-1.61
8.22
16.21
22.36
26.72
29.34
30.33
29.95
28.63
26.88
25.15
23.74
22.7
21.97
21.35
20.68
19.82
18.78
17.6
16.42
15.34
14.39
13.41
12.09
10.08
7.15
3.32
-1.1
-5.57
-9.62
-12.98
-15.69
-18.04
-20.43
-23.17
-26.54
-30.68
-35.59
-40.98
-46.16
-50.05
-51.46
-49.5
-43.91
-35.29
-24.82
-13.92
-3.73
5.06
12.3
18.06
22.41
25.28
26.62
26.49
25.21
23.37
21.58
20.29
19.59
19.21
18.71
17.68
16.06
14.06
12.14
10.69
9.84
9.34
8.69
7.4
5.14
1.97
-1.77
-5.62
-9.19
-12.3
-15.01
-17.61
-20.49
-24.1
-28.72
-34.45
-40.99
-47.59
-53.18
-56.52
-56.58
-52.93
-45.81
-36.15
-25.17
-14.08
-3.78
5.27
12.88
18.95
23.41
26.19
27.34
27.14
26.13
24.93
24.04
23.59
23.43
23.13
22.3
20.79
18.73
16.48
14.43
12.87
11.79
10.95
9.99
8.49
6.17
2.93
-1.13
-5.68
-10.27
-14.53
-18.27
-21.62
-24.93
-28.67
-33.19
-38.59
-44.61
-50.61
-55.65
-58.67
-58.72
-55.28
-48.46
-38.96
-27.95
-16.69
-6.19
2.95
10.51
16.48
20.9
23.8
25.25
25.45
24.78
23.69
22.58
21.67
20.96
20.33
19.59
18.68
17.63
16.55
15.52
14.53
13.48
12.2
10.51
8.28
5.44
2.02
-1.83
-5.92
-10.01
-13.89
-17.49
-20.93
-24.53
-28.64
-33.6
-39.41
-45.69
-51.57
-55.88
-57.42
-55.35
-49.49
-40.41
-29.33
-17.64
-6.55
3.11
11.0
17.02
21.19
23.56
24.23
23.56
22.06
20.39
19.09
18.37
18.11
17.96
17.54
16.69
15.51
14.28
13.27
12.55
11.95
11.13
9.72
7.49
4.48
0.95
-2.81
-6.52
-10.07
-13.51
-17.03
-20.94
-25.5
-30.86
-36.91
-43.08
-48.37
-51.5
-51.27
-47.04
-39.01
-28.27
-16.4
-5.0
4.81
12.55
18.27
22.22
24.58
25.46
24.98
23.44
21.31
19.12
17.29
15.96
15.09
14.52
14.16
13.96
13.85
13.62
12.92
11.34
8.63
4.87
0.43
-4.16
-8.43
-12.23
-15.67
-19.08
-22.84
-27.25
-32.42
-38.22
-44.22
-49.63
-53.41
-54.43
-51.92
-45.66
-36.29
-25.01
-13.22
-2.08
7.73
15.94
22.55
27.54
30.86
32.48
32.55
31.44
29.66
27.68
25.82
24.18
22.72
21.37
20.08
18.84
17.61
16.24
14.52
12.19
9.13
5.37
1.19
-3.05
-6.98
-10.43
-13.53
-16.69
-20.48
-25.45
-31.93
-39.72
-48.09
-55.71
-61.01
-62.54
-59.44
-51.8
-40.58
-27.41
-13.99
-1.66
8.84
17.42
24.33
29.9
34.31
37.57
39.68
40.72
40.98
40.82
40.54
40.2
39.65
38.61
36.94
34.74
32.35
30.16
28.37
26.84
25.11
22.64
19.06
14.34
8.8
2.97
-2.66
-7.82
-12.57
-17.2
-22.08
-27.59
-33.86
-40.73
-47.7
-53.86
-58.09
-59.21
-56.38
-49.41
-38.95
-26.3
-13.04
-0.58
10.24
19.1
26.11
31.39
35.02
36.99
37.4
36.59
35.04
33.33
31.83
30.66
29.67
28.64
27.44
26.05
24.59
23.17
21.8
20.33
18.53
16.18
13.16
9.54
5.48
1.24
-3.01
-7.14
-11.19
-15.22
-19.49
-24.31
-29.92
-36.37
-43.22
-49.48
-53.82
-54.86
-51.75
-44.5
-34.02
-21.74
-9.15
2.59
12.83
21.3
27.87
32.42
34.86
35.28
34.05
31.8
29.2
26.81
24.87
23.37
22.17
21.18
20.42
19.98
19.85
19.85
19.61
18.67
16.69
13.61
9.74
5.6
1.71
-1.66
-4.63
-7.59
-11.1
-15.64
-21.38
-28.14
-35.33
-42.04
-47.11
-49.41
-48.14
-43.01
-34.41
-23.33
-11.03
1.22
12.41
21.95
29.56
35.18
38.81
40.52
40.5
39.08
36.79
34.17
31.72
29.72
28.2
27.01
25.99
25.04
24.15
23.37
22.6
21.6
20.01
17.54
14.11
9.92
5.41
1.01
-2.95
-6.44
-9.66
-12.98
-16.85
-21.66
-27.66
-34.83
-42.73
-50.45
-56.63
-59.72
-58.5
-52.5
-42.26
-29.25
-15.35
-2.26
8.97
18.09
25.37
31.18
35.7
38.86
40.53
40.78
39.99
38.69
37.37
36.28
35.25
33.93
31.94
29.16
25.79
22.35
19.42
17.36
16.19
15.52
14.66
12.97
10.07
6.07
1.48
-3.0
-6.83
-9.83
-12.27
-14.69
-17.68
-21.72
-26.98
-33.29
-40.07
-46.37
-50.92
-52.47
-50.15
-43.76
-34.0
-22.17
-9.83
1.74
11.8
20.1
26.64
31.47
34.55
35.84
35.52
33.99
31.89
29.84
28.29
27.36
26.94
26.75
26.48
25.94
25.02
23.79
22.33
20.78
19.16
17.33
15.07
12.18
8.63
4.68
0.77
-2.68
-5.44
-7.69
-9.87
-12.53
-16.11
-20.75
-26.32
-32.4
-38.36
-43.38
-46.51
-46.84
-43.76
-37.24
-27.93
-17.03
-5.94
4.16
12.54
18.99
23.61
26.57
28.02
28.09
27.02
25.18
23.04
21.06
19.49
18.39
17.65
17.1
16.62
16.15
15.63
15.04
14.29
13.21
11.57
9.13
5.71
1.39
-3.49
-8.4
-12.75
-16.23
-18.91
-21.28
-24.03
-27.74
-32.58
-38.21
-43.75
-48.06
-49.99
-48.7
-43.84
-35.71
-25.17
-13.49
-2.05
8.0
15.96
21.59
25.1
26.91
27.5
27.27
26.47
25.3
23.9
22.44
21.08
19.95
19.05
18.27
17.46
16.5
15.4
14.28
13.29
12.46
11.6
10.36
8.35
5.38
1.53
-2.82
-7.12
-10.9
-13.93
-16.34
-18.57
-21.2
-24.73
-29.37
-34.96
-40.92
-46.38
-50.35
-51.89
-50.33
-45.46
-37.58
-27.49
-16.33
-5.31
4.57
12.7
18.88
23.25
26.06
27.57
28.01
27.57
26.49
25.01
23.39
21.82
20.44
19.33
18.52
18.0
17.71
17.52
17.24
16.7
15.75
14.33
12.46
10.18
7.54
4.57
1.34
-2.08
-5.56
-9.0
-12.32
-15.53
-18.69
-21.92
-25.38
-29.19
-33.47
-38.09
-42.68
-46.46
-48.42
-47.59
-43.39
-35.97
-26.12
-15.19
-4.52
4.87
12.43
18.08
21.87
23.92
24.31
23.28
21.25
18.87
16.74
15.28
14.51
14.11
13.61
12.66
11.2
9.48
7.89
6.76
6.11
5.65
4.88
3.36
0.89
-2.35
-5.95
-9.43
-12.46
-14.96
-17.09
-19.15
-21.4
-24.08
-27.27
-30.88
-34.64
-37.91
-39.89
-39.69
-36.74
-30.92
-22.72
-13.1
-3.16
6.03
13.69
19.39
22.95
24.46
24.21
22.63
20.31
17.82
15.6
13.89
12.67
11.81
11.09
10.39
9.6
8.74
7.81
6.79
5.54
3.87
1.66
-1.1
-4.22
-7.41
-10.43
-13.19
-15.85
-18.68
-21.98
-25.89
-30.3
-34.9
-39.18
-42.58
-44.45
-44.16
-41.23
-35.54
-27.46
-17.8
-7.7
1.79
9.89
16.19
20.63
23.36
24.63
24.74
23.97
22.62
20.93
19.03
16.97
14.78
12.55
10.5
8.89
7.9
7.48
7.33
6.9
5.72
3.49
0.24
-3.68
-7.79
-11.66
-15.09
-18.07
-20.8
-23.59
-26.73
-30.53
-35.18
-40.63
-46.45
-51.74
-55.26
-55.79
-52.5
-45.39
-35.27
-23.58
-11.87
-1.35
7.37
14.17
19.24
22.8
25.0
25.91
25.72
24.71
23.32
21.87
20.56
19.36
18.15
16.83
15.45
14.21
13.32
12.83
12.56
12.2
11.39
9.87
7.59
4.62
1.15
-2.55
-6.23
-9.71
-12.89
-15.94
-19.21
-23.14
-28.09
-34.08
-40.6
-46.64
-50.86
-52.02
-49.34
-42.81
-33.2
-21.86
-10.26
0.37
9.34
16.45
21.87
25.84
28.5
29.95
30.23
29.52
28.15
26.48
24.87
23.48
22.34
21.36
20.47
19.63
18.93
18.47
18.28
18.24
17.99
17.1
15.13
11.93
7.69
3.02
-1.38
-4.96
-7.6
-9.66
-11.84
-14.88
-19.25
-25.02
-31.71
-38.44
-44.14
-47.68
-48.22
-45.27
-38.96
-29.99
-19.46
-8.61
1.48
10.11
16.96
22.0
25.37
27.19
27.6
26.74
24.86
22.3
19.47
16.81
14.66
13.22
12.53
12.49
12.85
13.32
13.55
13.28
12.31
10.55
8.02
4.88
1.28
-2.53
-6.35
-10.09
-13.78
-17.6
-21.83
-26.72
-32.35
-38.46
-44.39
-49.11
-51.46
-50.47
-45.68
-37.41
-26.68
-14.91
-3.53
6.44
14.5
20.57
24.79
27.34
28.37
28.13
26.98
25.38
23.78
22.48
21.53
20.81
20.16
19.44
18.61
17.77
16.97
16.22
15.42
14.3
12.54
9.86
6.16
1.6
-3.43
-8.42
-12.97
-16.98
-20.68
-24.52
-29.04
-34.53
-40.9
-47.59
-53.66
-58.0
-59.57
-57.7
-52.23
-43.58
-32.62
-20.5
-8.29
3.08
13.03
21.2
27.46
31.82
34.42
35.5
35.42
34.63
33.54
32.51
31.66
30.95
30.27
29.47
28.53
27.5
26.55
25.78
25.1
24.26
22.83
20.46
16.99
12.58
7.65
2.71
-1.88
-5.98
-9.79
-13.71
-18.18
-23.53
-29.85
-36.88
-43.93
-49.96
-53.77
-54.24
-50.78
-43.5
-33.24
-21.25
-8.89
2.83
13.3
22.28
29.68
35.38
39.18
40.98
40.92
39.52
37.56
35.82
34.8
34.59
34.83
35.0
34.64
33.63
32.17
30.64
29.34
28.31
27.26
25.77
23.41
20.05
15.84
11.17
6.47
1.99
-2.22
-6.37
-10.74
-15.63
-21.21
-27.5
-34.27
-41.02
-46.95
-51.08
-52.44
-50.35
-44.66
-35.82
-24.82
-12.86
-1.09
9.65
18.83
26.2
31.63
35.07
36.58
36.43
35.14
33.35
31.73
30.63
30.11
29.9
29.63
29.03
28.04
26.75
25.25
23.57
21.58
19.13
16.15
12.7
8.94
5.06
1.22
-2.52
-6.16
-9.8
-13.64
-17.96
-23.07
-29.1
-35.88
-42.74
-48.61
-52.18
-52.37
-48.59
-40.99
-30.42
-18.18
-5.7
5.84
15.69
23.53
29.38
33.37
35.64
36.29
35.54
33.77
31.5
29.32
27.67
26.66
26.13
25.73
25.16
24.31
23.2
21.89
20.3
18.2
15.36
11.61
7.09
2.1
-2.93
-7.68
-12.02
-16.13
-20.41
-25.32
-31.26
-38.36
-46.29
-54.23
-60.93
-64.97
-65.19
-60.98
-52.52
-40.7
-26.84
-12.36
1.58
14.09
24.59
32.7
38.23
41.23
42.07
41.39
40.0
38.57
37.47
36.7
35.99
35.02
33.7
32.11
30.51
29.14
28.02
26.97
25.64
23.69
20.91
17.29
12.97
8.16
3.11
-1.95
-6.83
-11.44
-15.84
-20.33
-25.29
-31.08
-37.82
-45.14
-52.16
-57.57
-60.04
-58.61
-53.05
-43.93
-32.45
-20.02
-7.81
3.46
13.55
22.38
29.86
35.66
39.45
41.07
40.77
39.27
37.46
36.12
35.57
35.65
35.93
35.97
35.53
34.63
33.46
32.15
30.67
28.87
26.52
23.52
19.9
15.84
11.57
7.29
3.07
-1.12
-5.37
-9.79
-14.45
-19.39
-24.64
-30.31
-36.46
-42.96
-49.26
-54.37
-57.02
-56.1
-51.06
-42.22
-30.71
-18.03
-5.65
5.47
14.91
22.65
28.76
33.22
35.88
36.6
35.53
33.17
30.28
27.66
25.85
24.99
24.75
24.67
24.34
23.64
22.74
21.92
21.29
20.61
19.42
17.16
13.55
8.73
3.26
-2.14
-6.89
-10.75
-13.92
-16.82
-19.98
-23.8
-28.45
-33.84
-39.53
-44.75
-48.48
-49.64
-47.4
-41.6
-32.74
-21.95
-10.59
0.12
9.39
16.88
22.49
26.3
28.37
28.86
28.06
26.41
24.43
22.56
21.03
19.84
18.86
17.91
16.87
15.76
14.56
13.26
11.73
9.81
7.36
4.4
1.11
-2.25
-5.41
-8.28
-10.98
-13.81
-17.13
-21.27
-26.33
-32.21
-38.49
-44.4
-48.96
-51.07
-49.85
-44.89
-36.48
-25.6
-13.67
-2.18
7.7
15.35
20.72
24.14
26.09
26.98
27.04
26.37
25.02
23.12
20.88
18.61
16.61
15.08
14.07
13.51
13.17
12.75
11.98
10.61
8.5
5.66
2.2
-1.65
-5.61
-9.4
-12.92
-16.24
-19.61
-23.41
-27.97
-33.43
-39.58
-45.87
-51.38
-54.95
-55.5
-52.23
-45.08
-34.74
-22.56
-10.14
1.16
10.6
18.05
23.77
28.08
31.06
32.69
32.96
32.13
30.69
29.23
28.12
27.42
26.95
26.42
25.65
24.56
23.17
21.44
19.3
16.68
13.55
9.98
6.04
1.86
-2.46
-6.7
-10.6
-13.9
-16.48
-18.56
-20.71
-23.66
-28.0
-33.82
-40.55
-47.02
-51.8
-53.58
-51.67
-46.07
-37.48
-27.02
-15.87
-5.0
4.99
13.77
21.21
27.16
31.45
33.92
34.6
33.74
31.89
29.75
27.94
26.81
26.35
26.27
26.15
25.69
24.84
23.74
22.57
21.41
20.17
18.63
16.62
14.1
11.17
8.01
4.7
1.32
-2.12
-5.56
-8.91
-12.06
-15.0
-17.85
-20.93
-24.6
-29.16
-34.58
-40.39
-45.65
-49.13
-49.72
-46.8
-40.43
-31.4
-20.92
-10.28
-0.46
7.93
14.69
19.77
23.2
25.08
25.55
24.97
23.78
22.44
21.24
20.27
19.47
18.7
17.89
17.08
16.32
15.68
15.14
14.58
13.86
12.83
11.32
9.19
6.3
2.72
-1.33
-5.42
-9.05
-11.89
-13.99
-15.76
-17.81
-20.73
-24.8
-29.91
-35.54
-40.75
-44.47
-45.59
-43.32
-37.48
-28.6
-17.9
-6.89
3.07
11.15
17.06
20.98
23.2
24.02
23.65
22.39
20.64
18.83
17.29
16.02
14.88
13.63
12.19
10.71
9.51
8.84
8.65
8.64
8.28
7.1
4.84
1.6
-2.25
-6.2
-9.85
-13.09
-16.04
-19.08
-22.61
-26.88
-31.92
-37.41
-42.73
-46.97
-49.17
-48.48
-44.54
-37.52
-28.15
-17.55
-6.86
2.96
11.34
18.03
22.96
26.15
27.66
27.66
26.46
24.57
22.54
20.86
19.79
19.28
19.07
18.79
18.2
17.23
15.99
14.63
13.24
11.75
9.97
7.74
4.99
1.86
-1.44
-4.68
-7.77
-10.74
-13.76
-16.97
-20.51
-24.49
-29.02
-34.16
-39.81
-45.54
-50.48
-53.54
-53.64
-50.17
-43.21
-33.55
-22.49
-11.4
-1.36
7.01
13.57
18.49
22.02
24.37
25.67
26.01
25.57
24.66
23.72
23.11
23.01
23.28
23.56
23.44
22.76
21.67
20.54
19.72
19.29
18.94
18.12
16.34
13.4
9.54
5.26
1.11
-2.56
-5.73
-8.63
-11.59
-14.84
-18.49
-22.58
-27.13
-32.14
-37.44
-42.52
-46.46
-48.18
-46.75
-41.81
-33.81
-23.82
-13.22
-3.19
5.56
12.8
18.61
23.12
26.37
28.38
29.21
29.0
28.05
26.67
25.18
23.8
22.64
21.66
20.78
19.9
18.98
18.05
17.18
16.35
15.35
13.84
11.49
8.12
3.93
-0.57
-4.71
-8.0
-10.32
-12.02
-13.71
-16.08
-19.62
-24.45
-30.3
-36.45
-41.83
-45.25
-45.66
-42.56
-36.16
-27.32
-17.33
-7.43
1.48
8.99
14.99
19.48
22.42
23.77
23.61
22.28
20.37
18.48
17.03
16.1
15.51
14.97
14.29
13.48
12.67
12.0
11.41
10.71
9.6
7.86
5.46
2.59
-0.45
-3.38
-6.11
-8.73
-11.5
-14.69
-18.57
-23.26
-28.75
-34.77
-40.77
-45.92
-49.23
-49.77
-47.0
-40.99
-32.42
-22.42
-12.2
-2.7
5.53
12.41
17.97
22.31
25.39
27.19
27.77
27.4
26.53
25.6
24.95
24.6
24.33
23.83
22.88
21.48
19.91
18.53
17.55
16.9
16.18
14.88
12.58
9.22
5.09
0.68
-3.52
-7.29
-10.67
-13.92
-17.35
-21.3
-26.0
-31.56
-37.85
-44.3
-49.98
-53.67
-54.3
-51.24
-44.61
-35.2
-24.21
-12.86
-2.07
7.59
15.89
22.73
28.05
31.8
33.96
34.7
34.32
33.26
32.0
30.94
30.25
29.91
29.68
29.35
28.78
27.99
27.06
26.08
24.99
23.66
21.87
19.49
16.55
13.2
9.67
6.14
2.71
-0.59
-3.82
-7.09
-10.58
-14.54
-19.25
-24.87
-31.23
-37.71
-43.31
-46.83
-47.27
-44.13
-37.67
-28.72
-18.47
-8.03
1.72
10.21
17.16
22.39
25.9
27.74
28.18
27.6
26.46
25.21
24.13
23.35
22.79
22.29
21.61
20.65
19.45
18.17
17.06
16.17
15.34
14.15
12.22
9.37
5.81
2.02
-1.48
-4.4
-6.82
-9.13
-11.83
-15.31
-19.69
-24.8
-30.23
-35.42
-39.6
-41.98
-41.81
-38.62
-32.41
-23.75
-13.67
-3.43
5.87
13.48
19.12
22.95
25.24
26.32
26.37
25.49
23.81
21.51
18.96
16.56
14.65
13.44
12.87
12.7
12.58
12.1
10.96
8.99
6.24
2.92
-0.61
-4.05
-7.22
-10.17
-13.12
-16.33
-19.99
-24.23
-29.01
-34.26
-39.69
-44.69
-48.38
-49.62
-47.47
-41.55
-32.35
-21.09
-9.39
1.27
9.97
16.39
20.75
23.45
24.85
25.21
24.69
23.45
21.68
19.69
17.78
16.21
15.08
14.32
13.72
12.98
11.89
10.38
8.56
6.58
4.56
2.45
0.08
-2.69
-5.96
-9.67
-13.73
-18.11
-22.89
-28.22
-34.18
-40.59
-46.84
-52.01
-54.96
-54.77
-51.0
-43.86
-34.19
-23.15
-11.92
-1.44
7.69
15.18
20.94
25.0
27.53
28.83
29.3
29.31
29.11
28.71
27.99
26.87
25.44
23.92
22.64
21.82
21.44
21.27
20.87
19.78
17.69
14.53
10.47
5.89
1.22
-3.24
-7.36
-11.24
-15.17
-19.53
-24.66
-30.64
-37.2
-43.57
-48.64
-51.18
-50.3
-45.72
-37.87
-27.77
-16.68
-5.71
4.34
13.05
20.22
25.74
29.5
31.53
31.95
31.16
29.64
27.92
26.38
25.19
24.36
23.79
23.4
23.11
22.91
22.72
22.39
21.67
20.26
17.96
14.67
10.57
5.99
1.38
-2.87
-6.57
-9.78
-12.86
-16.32
-20.67
-26.13
-32.52
-39.2
-45.1
-49.01
-49.81
-46.9
-40.27
-30.7
-19.42
-7.85
2.81
11.8
18.83
23.99
27.53
29.72
30.71
30.59
29.48
27.63
25.44
23.39
21.86
20.93
20.45
20.01
19.2
17.87
16.11
14.18
12.28
10.37
8.12
5.24
1.53
-2.84
-7.5
-12.03
-16.28
-20.47
-25.0
-30.28
-36.3
-42.53
-47.88
-51.04
-50.92
-46.99
-39.5
-29.46
-18.24
-7.18
2.75
11.07
17.74
22.88
26.63
29.1
30.4
30.66
30.12
29.02
27.6
26.02
24.39
22.84
21.46
20.27
19.21
18.08
16.63
14.65
12.03
8.81
5.11
1.18
-2.8
-6.7
-10.51
-14.39
-18.64
-23.63
-29.65
-36.64
-44.04
-50.74
-55.3
-56.37
-53.23
-46.02
-35.75
-23.92
-11.96
-0.89
8.84
17.14
23.99
29.27
32.78
34.42
34.4
33.26
31.72
30.41
29.66
29.4
29.3
29.02
28.38
27.45
26.52
25.86
25.48
25.03
23.92
21.56
17.76
12.79
7.35
2.25
-2.02
-5.47
-8.54
-11.87
-15.98
-21.13
-27.27
-34.1
-41.12
-47.52
-52.3
-54.37
-52.87
-47.53
-38.86
-27.95
-16.2
-4.82
5.42
14.23
21.69
27.86
32.76
36.29
38.37
39.1
38.79
37.91
36.95
36.22
35.8
35.55
35.23
34.68
33.88
32.98
32.18
31.53
30.91
29.94
28.2
25.4
21.52
16.83
11.74
6.65
1.85
-2.56
-6.58
-10.35
-14.04
-17.93
-22.29
-27.42
-33.38
-39.87
-46.08
-50.84
-52.94
-51.5
-46.36
-38.05
-27.69
-16.5
-5.55
4.46
13.11
20.11
25.24
28.27
29.24
28.49
26.71
24.71
23.13
22.3
22.08
22.15
22.1
21.68
20.89
19.9
18.97
18.26
17.75
17.2
16.25
14.54
11.95
8.55
4.66
0.68
-3.15
-6.76
-10.31
-14.03
-18.06
-22.43
-27.08
-31.89
-36.63
-40.92
-44.08
-45.23
-43.56
-38.65
-30.74
-20.76
-10.03
0.15
8.87
15.73
20.71
23.91
25.45
25.47
24.22
22.18
20.0
18.24
17.24
16.92
16.97
17.0
16.77
16.24
15.49
14.59
13.45
11.93
9.85
7.17
3.98
0.49
-3.11
-6.7
-10.25
-13.79
-17.41
-21.26
-25.55
-30.47
-36.07
-42.02
-47.57
-51.55
-52.77
-50.34
-44.06
-34.55
-23.01
-10.89
0.58
10.6
18.78
25.04
29.38
31.84
32.6
31.97
30.45
28.67
27.09
25.98
25.28
24.72
24.04
23.0
21.66
20.16
18.73
17.47
16.31
15.01
13.25
10.77
7.45
3.44
-1.02
-5.59
-9.96
-14.02
-17.83
-21.72
-26.09
-31.32
-37.44
-43.95
-49.77
-53.5
-53.87
-50.2
-42.72
-32.51
-21.1
-9.91
0.13
8.68
15.88
21.91
26.74
30.13
31.83
31.84
30.61
28.91
27.47
26.7
26.49
26.43
26.05
25.12
23.76
22.25
20.88
19.62
18.27
16.5
14.03
10.8
6.93
2.68
-1.63
-5.71
-9.42
-12.81
-16.13
-19.72
-23.91
-28.9
-34.58
-40.52
-45.98
-49.99
-51.56
-49.97
-44.98
-36.91
-26.66
-15.45
-4.51
5.21
13.16
19.22
23.48
26.1
27.32
27.33
26.42
24.92
23.22
21.6
20.27
19.24
18.4
17.65
16.92
16.26
15.71
15.28
14.78
13.98
12.6
10.43
7.4
3.62
-0.63
-4.98
-9.03
-12.56
-15.57
-18.37
-21.53
-25.56
-30.72
-36.63
-42.33
-46.43
-47.6
-45.03
-38.71
-29.42
-18.45
-7.21
3.18
12.0
18.93
23.88
26.88
28.05
27.56
25.81
23.32
20.68
18.4
16.7
15.58
14.87
14.38
13.97
13.59
13.19
12.65
11.71
10.12
7.75
4.66
1.13
-2.5
-5.98
-9.29
-12.55
-16.04
-20.03
-24.7
-30.15
-36.29
-42.72
-48.64
-52.91
-54.35
-52.09
-45.99
-36.73
-25.61
-14.08
-3.33
5.97
13.63
19.65
24.0
26.57
27.32
26.47
24.61
22.52
20.93
20.19
20.15
20.34
20.19
19.4
18.0
16.27
14.5
12.76
10.9
8.61
5.72
2.2
-1.76
-5.9
-10.01
-14.01
-17.9
-21.79
-25.91
-30.49
-35.78
-41.73
-47.87
-53.18
-56.4
-56.34
-52.36
-44.68
-34.19
-22.26
-10.2
0.99
10.71
18.67
24.78
28.99
31.36
32.1
31.65
30.6
29.54
28.88
28.77
29.0
29.22
28.99
28.11
26.6
24.69
22.73
20.89
19.15
17.26
14.9
11.82
8.06
3.81
-0.63
-4.99
-9.13
-13.08
-16.93
-20.88
-25.14
-29.9
-35.29
-41.17
-46.99
-51.84
-54.58
-54.25
-50.39
-43.18
-33.39
-22.1
-10.42
0.72
10.65
18.9
25.23
29.51
31.84
32.5
31.98
30.83
29.65
28.85
28.62
28.88
29.34
29.61
29.35
28.42
26.9
25.11
23.34
21.75
20.25
18.52
16.22
13.16
9.41
5.27
1.13
-2.76
-6.36
-9.81
-13.38
-17.32
-21.87
-27.15
-33.13
-39.47
-45.43
-49.92
-51.69
-49.88
-44.24
-35.36
-24.37
-12.64
-1.35
8.64
16.83
22.98
26.99
28.98
29.23
28.24
26.56
24.68
22.96
21.51
20.42
19.61
19.07
18.71
18.41
18.04
17.45
16.53
15.13
13.16
10.57
7.42
3.86
0.14
-3.54
-7.1
-10.64
-14.38
-18.61
-23.58
-29.32
-35.59
-41.77
-46.92
-50.02
-50.15
-46.89
-40.41
-31.44
-21.05
-10.29
0.01
9.33
17.29
23.6
28.0
30.36
30.83
29.85
28.04
25.99
24.14
22.62
21.36
20.23
19.13
18.07
17.04
16.06
14.95
13.53
11.58
9.0
5.8
2.18
-1.61
-5.41
-9.15
-12.95
-17.0
-21.58
-26.92
-33.08
-39.91
-46.87
-53.06
-57.3
-58.51
-56.01
-49.82
-40.65
-29.67
-18.12
-6.96
3.24
12.2
19.81
25.9
30.37
33.15
34.46
34.64
34.14
33.29
32.26
31.09
29.82
28.49
27.27
26.25
25.47
24.83
24.12
23.11
21.58
19.41
16.52
12.9
8.62
3.89
-1.0
-5.67
-9.88
-13.65
-17.31
-21.41
-26.49
-32.77
-39.91
-46.92
-52.44
-55.05
-53.77
-48.4
-39.57
-28.49
-16.58
-5.03
5.4
14.42
21.98
28.09
32.69
35.72
37.2
37.38
36.68
35.59
34.51
33.63
32.95
32.36
31.77
31.12
30.41
29.64
28.77
27.73
26.43
24.72
22.41
19.34
15.48
11.01
6.32
1.86
-2.05
-5.32
-8.2
-11.06
-14.29
-18.22
-23.06
-28.91
-35.67
-42.9
-49.66
-54.6
-56.39
-54.07
-47.57
-37.7
-25.88
-13.67
-2.32
7.38
15.15
20.91
24.75
26.86
27.55
27.25
26.44
25.53
24.76
24.15
23.6
22.96
22.15
21.21
20.19
19.21
18.35
17.59
16.81
15.73
14.03
11.42
7.82
3.44
-1.29
-5.91
-10.11
-13.86
-17.39
-21.09
-25.27
-30.12
-35.59
-41.35
-46.79
-50.95
-52.76
-51.25
-45.97
-37.22
-26.04
-13.9
-2.23
7.94
16.11
22.2
26.38
28.82
29.76
29.49
28.43
27.02
25.69
24.59
23.7
22.81
21.74
20.46
19.07
17.73
16.53
15.41
14.14
12.44
10.14
7.22
3.81
0.11
-3.68
-7.5
-11.38
-15.38
-19.66
-24.41
-29.89
-36.15
-42.98
-49.57
-54.72
-57.04
-55.52
-49.89
-40.71
-29.28
-17.08
-5.43
4.87
13.53
20.61
26.28
30.59
33.52
35.02
35.15
34.21
32.71
31.18
30.03
29.32
28.8
28.08
26.86
25.07
22.96
20.85
18.94
17.14
15.13
12.48
8.99
4.72
0.03
-4.59
-8.81
-12.5
-15.85
-19.16
-22.84
-27.24
-32.6
-38.93
-45.84
-52.48
-57.58
-59.74
-57.91
-51.82
-42.09
-30.11
-17.51
-5.67
4.61
13.17
20.2
25.92
30.41
33.64
35.56
36.27
36.08
35.4
34.64
34.01
33.52
33.02
32.35
31.41
30.28
29.14
28.15
27.3
26.39
25.07
22.99
19.93
15.98
11.47
6.85
2.48
-1.44
-4.95
-8.22
-11.45
-14.88
-18.8
-23.53
-29.34
-36.27
-43.87
-51.12
-56.52
-58.58
-56.35
-49.75
-39.7
-27.68
-15.26
-3.56
6.8
15.62
22.77
28.12
31.5
32.95
32.83
31.68
30.1
28.53
27.13
25.89
24.76
23.72
22.79
21.96
21.14
20.21
19.06
17.65
15.97
13.96
11.48
8.34
4.46
0.0
-4.66
-9.05
-12.82
-15.96
-18.78
-21.87
-25.79
-30.82
-36.81
-43.13
-48.8
-52.74
-53.99
-51.94
-46.5
-38.1
-27.62
-16.2
-5.02
5.01
13.3
19.67
24.18
27.04
28.46
28.65
27.85
26.38
24.61
22.88
21.39
20.2
19.21
18.28
17.34
16.41
15.54
14.72
13.74
12.29
10.02
6.77
2.67
-1.89
-6.4
-10.47
-14.01
-17.26
-20.67
-24.81
-30.05
-36.43
-43.57
-50.57
-56.21
-59.21
-58.55
-53.84
-45.47
-34.47
-22.26
-10.27
0.42
9.23
16.03
20.95
24.26
26.21
27.0
26.86
26.05
24.92
23.78
22.8
22.02
21.31
20.56
19.74
18.94
18.28
17.77
17.19
16.19
14.41
11.69
8.11
3.97
-0.45
-4.9
-9.2
-13.26
-17.01
-20.45
-23.85
-27.63
-32.37
-38.31
-45.12
-51.77
-56.74
-58.53
-56.25
-49.95
-40.54
-29.38
-17.76
-6.54
3.85
13.27
21.47
28.11
32.74
35.19
35.63
34.72
33.29
32.04
31.33
31.05
30.78
30.11
28.85
27.15
25.37
23.89
22.83
22.01
20.99
19.34
16.77
13.32
9.21
4.81
0.42
-3.78
-7.72
-11.46
-15.11
-18.91
-23.13
-28.04
-33.74
-40.03
-46.29
-51.54
-54.61
-54.52
-50.74
-43.45
-33.44
-21.93
-10.22
0.63
9.98
17.5
23.13
26.96
29.14
29.91
29.62
28.68
27.48
26.33
25.34
24.45
23.56
22.58
21.57
20.64
19.93
19.39
18.87
18.02
16.51
14.1
10.79
6.85
2.7
-1.2
-4.66
-7.72
-10.74
-14.15
-18.37
-23.6
-29.71
-36.26
-42.43
-47.25
-49.69
-48.93
-44.63
-37.08
-27.2
-16.29
-5.64
3.75
11.37
17.15
21.3
24.08
25.73
26.38
26.16
25.25
23.93
22.54
21.37
20.62
20.29
20.2
20.1
19.72
18.84
17.32
15.1
12.15
8.57
4.59
0.54
-3.29
-6.71
-9.81
-12.83
-16.17
-20.25
-25.35
-31.58
-38.72
-46.12
-52.72
-57.14
-58.1
-54.84
-47.46
-36.92
-24.82
-12.75
-1.81
7.52
15.29
21.64
26.58
29.91
31.47
31.39
30.21
28.72
27.63
27.26
27.41
27.57
27.24
26.24
24.71
23.01
21.44
19.99
18.41
16.3
13.38
9.63
5.31
0.85
-3.43
-7.44
-11.42
-15.77
-20.9
-27.02
-34.11
-41.78
-49.3
-55.63
-59.58
-60.14
-56.69
-49.37
-38.98
-26.85
-14.37
-2.62
7.81
16.77
24.22
30.11
34.28
36.63
37.27
36.69
35.54
34.46
33.84
33.71
33.8
33.73
33.22
32.23
30.88
29.41
27.98
26.61
25.11
23.21
20.66
17.33
13.33
8.9
4.36
-0.05
-4.23
-8.25
-12.27
-16.53
-21.25
-26.64
-32.76
-39.34
-45.65
-50.51
-52.57
-50.74
-44.73
-35.24
-23.72
-11.84
-0.92
8.41
16.21
22.78
28.33
32.76
35.77
37.15
37.08
36.1
34.91
34.09
33.82
33.94
34.1
33.96
33.39
32.46
31.3
30.02
28.61
26.95
24.87
22.26
19.08
15.39
11.3
6.99
2.62
-1.66
-5.79
-9.77
-13.68
-17.63
-21.77
-26.23
-31.14
-36.54
-42.26
-47.73
-52.05
-54.09
-52.88
-48.03
-39.9
-29.48
-18.11
-6.94
3.32
12.32
19.89
25.79
29.76
31.59
31.44
29.85
27.66
25.65
24.34
23.79
23.71
23.71
23.43
22.75
21.82
20.86
20.13
19.7
19.38
18.75
17.34
14.82
11.19
6.79
2.09
-2.42
-6.49
-10.1
-13.4
-16.61
-19.99
-23.84
-28.41
-33.86
-39.91
-45.81
-50.4
-52.38
-50.82
-45.47
-36.92
-26.33
-15.06
-4.26
5.34
13.4
19.88
24.76
28.06
29.84
30.28
29.65
28.38
26.91
25.61
24.69
24.12
23.7
23.16
22.29
21.06
19.61
18.12
16.76
15.5
14.15
12.46
10.21
7.32
3.87
0.11
-3.66
-7.16
-10.3
-13.16
-16.02
-19.22
-23.04
-27.65
-33.01
-38.94
-45.13
-50.97
-55.61
-57.96
-57.03
-52.25
-43.84
-32.86
-20.88
-9.46
0.4
8.38
14.77
20.01
24.37
27.81
30.12
31.18
31.14
30.4
29.44
28.61
28.07
27.69
27.34
26.86
26.25
25.56
24.88
24.17
23.34
22.28
20.93
19.29
17.44
15.39
13.07
10.33
6.98
3.0
-1.44
-5.98
-10.18
-13.77
-16.7
-19.23
-21.8
-24.85
-28.76
-33.63
-39.28
-45.11
-50.21
-53.46
-53.82
-50.7
-44.09
-34.67
-23.55
-11.95
-0.95
8.73
16.67
22.74
27.0
29.69
31.1
31.63
31.57
31.19
30.65
30.16
29.9
29.99
30.47
31.17
31.82
32.2
32.19
31.84
31.28
30.55
29.64
28.44
26.8
24.69
22.11
19.15
15.92
12.55
9.15
5.85
2.81
0.11
-2.16
-4.04
-5.7
-7.38
-9.34
-11.77
-14.69
-17.89
-21.06
-23.92
-26.37
-28.56
-30.82
-33.46
-36.69
-40.55
-44.87
-49.37
-53.52
-56.65
-57.93
-56.59
-52.25
-45.05
-35.73
-25.38
-15.17
-5.96
1.8
8.04
12.89
16.54
19.11
20.7
21.4
21.34
20.72
19.74
18.65
17.65
16.87
16.4
16.17
16.07
15.94
15.62
15.03
14.12
12.89
11.36
9.56
7.46
5.06
2.36
-0.58
-3.66
-6.76
-9.75
-12.59
-15.28
-17.98
-20.9
-24.29
-28.34
-32.99
-37.9
-42.33
-45.34
-45.93
-43.48
-37.91
-29.78
-20.14
-10.11
-0.71
7.38
13.78
18.27
20.82
21.56
20.84
19.19
17.24
15.47
14.17
13.28
12.61
11.91
11.05
10.07
9.12
8.35
7.84
7.52
7.14
6.4
4.97
2.71
-0.32
-3.91
-7.72
-11.55
-15.25
-18.88
-22.55
-26.34
-30.36
-34.67
-39.22
-43.69
-47.51
-49.71
-49.31
-45.67
-38.79
-29.47
-18.99
-8.73
0.36
7.86
13.81
18.41
21.75
23.78
24.39
23.69
22.12
20.35
18.96
18.29
18.19
18.23
17.95
17.06
15.67
14.08
12.72
11.76
11.08
10.24
8.74
6.3
2.94
-0.95
-4.9
-8.54
-11.75
-14.67
-17.66
-21.11
-25.34
-30.53
-36.6
-43.18
-49.56
-54.73
-57.59
-57.24
-53.33
-46.18
-36.75
-26.22
-15.71
-5.9
2.94
10.74
17.4
22.69
26.39
28.4
28.94
28.49
27.62
26.74
26.01
25.43
24.97
24.65
24.52
24.57
24.67
24.57
24.03
22.89
21.14
18.8
15.88
12.32
8.14
3.53
-1.14
-5.41
-8.95
-11.7
-13.95
-16.21
-19.04
-22.89
-27.95
-34.07
-40.75
-47.13
-52.13
-54.68
-53.98
-49.79
-42.46
-32.86
-22.1
-11.25
-1.1
7.8
15.2
20.95
25.03
27.52
28.68
28.87
28.54
28.05
27.66
27.48
27.49
27.67
27.96
28.31
28.61
28.74
28.55
27.9
26.73
25.08
23.03
20.61
17.84
14.69
11.2
7.48
3.7
0.03
-3.42
-6.64
-9.78
-12.97
-16.42
-20.29
-24.75
-29.85
-35.48
-41.17
-46.05
-49.07
-49.19
-45.89
-39.29
-30.25
-19.99
-9.71
-0.28
7.9
14.68
20.05
23.95
26.34
27.27
27.06
26.25
25.38
24.93
24.98
25.39
25.81
25.9
25.49
24.6
23.46
22.31
21.34
20.57
19.82
18.79
17.12
14.58
11.1
6.87
2.28
-2.13
-5.91
-8.89
-11.24
-13.5
-16.28
-20.06
-24.95
-30.61
-36.26
-40.99
-43.88
-44.24
-41.78
-36.58
-29.15
-20.17
-10.5
-0.95
7.82
15.27
21.04
24.94
26.96
27.32
26.47
25.06
23.7
22.87
22.67
22.9
23.1
22.83
21.85
20.23
18.35
16.61
15.29
14.33
13.35
11.78
9.26
5.75
1.65
-2.42
-5.98
-8.88
-11.41
-14.04
-17.2
-21.08
-25.64
-30.69
-35.98
-41.07
-45.24
-47.48
-46.77
-42.49
-34.84
-24.8
-13.94
-3.73
4.9
11.76
17.15
21.52
25.14
27.93
29.72
30.36
30.01
29.06
28.06
27.35
27.07
26.99
26.75
26.0
24.62
22.78
20.84
19.14
17.84
16.78
15.6
13.89
11.37
8.02
4.12
0.01
-4.02
-7.85
-11.51
-15.17
-19.04
-23.26
-27.97
-33.18
-38.7
-44.02
-48.32
-50.58
-49.96
-46.09
-39.24
-30.28
-20.37
-10.54
-1.44
6.66
13.7
19.67
24.49
28.02
30.21
31.13
31.04
30.27
29.19
28.1
27.23
26.69
26.49
26.51
26.58
26.48
26.01
25.13
23.85
22.35
20.79
19.33
17.97
16.57
14.82
12.38
9.06
4.96
0.46
-3.89
-7.65
-10.63
-13.1
-15.59
-18.72
-22.94
-28.34
-34.58
-40.89
-46.25
-49.56
-49.88
-46.71
-40.21
-31.11
-20.6
-9.99
-0.31
7.81
14.22
19.04
22.54
24.92
26.3
26.81
26.63
26.09
25.5
25.15
25.16
25.45
25.84
26.11
26.13
25.88
25.42
24.77
23.94
22.79
21.26
19.28
16.96
14.41
11.75
8.97
5.98
2.7
-0.82
-4.41
-7.82
-10.88
-13.57
-16.1
-18.82
-22.09
-26.15
-30.99
-36.23
-41.17
-44.86
-46.32
-44.83
-40.2
-32.81
-23.55
-13.5
-3.75
4.94
12.11
17.55
21.15
22.97
23.2
22.2
20.55
18.82
17.51
16.89
16.93
17.38
17.88
18.11
17.92
17.42
16.79
16.24
15.81
15.34
14.49
12.9
10.35
6.84
2.67
-1.73
-5.89
-9.55
-12.67
-15.44
-18.15
-21.08
-24.45
-28.36
-32.77
-37.33
-41.41
-44.06
-44.33
-41.57
-35.75
-27.58
-18.22
-8.92
-0.57
6.5
12.32
17.03
20.65
23.04
24.08
23.94
23.05
21.96
21.08
20.53
20.16
19.69
18.99
18.05
17.04
16.08
15.19
14.27
13.17
11.76
10.01
7.92
5.41
2.43
-1.04
-4.84
-8.69
-12.3
-15.5
-18.4
-21.37
-24.91
-29.38
-34.79
-40.68
-46.24
-50.51
-52.57
-51.88
-48.33
-42.23
-34.24
-25.16
-15.81
-6.85
1.27
8.32
14.22
18.96
22.53
24.95
26.32
26.79
26.66
26.22
25.72
25.27
24.84
24.36
23.74
23.0
22.21
21.43
20.61
19.68
18.46
16.86
14.81
12.31
9.46
6.39
3.29
0.29
-2.51
-5.2
-7.96
-11.04
-14.65
-18.89
-23.73
-29.08
-34.76
-40.47
-45.7
-49.69
-51.57
-50.61
-46.5
-39.55
-30.57
-20.65
-10.79
-1.64
6.49
13.55
19.44
24.01
27.04
28.47
28.52
27.74
26.76
26.1
25.97
26.22
26.51
26.43
25.82
24.71
23.35
22.06
21.01
20.21
19.4
18.24
16.37
13.62
10.05
5.96
1.79
-2.1
-5.52
-8.55
-11.45
-14.54
-18.05
-22.11
-26.76
-31.95
-37.49
-42.84
-47.19
-49.46
-48.69
-44.39
-36.86
-27.13
-16.62
-6.63
2.07
9.24
15.0
19.55
22.89
24.9
25.48
24.8
23.33
21.72
20.58
20.23
20.58
21.24
21.75
21.77
21.26
20.4
19.45
18.56
17.62
16.37
14.45
11.65
7.96
3.63
-0.95
-5.36
-9.26
-12.54
-15.32
-18.02
-21.16
-25.22
-30.29
-35.97
-41.41
-45.48
-47.23
-46.07
-41.99
-35.44
-27.14
-17.95
-8.58
0.38
8.49
15.48
21.21
25.61
28.65
30.29
30.61
29.85
28.43
26.9
25.69
25.0
24.67
24.39
23.81
22.8
21.49
20.07
18.67
17.21
15.43
13.13
10.24
6.91
3.38
-0.14
-3.59
-6.98
-10.33
-13.61
-16.8
-19.99
-23.46
-27.6
-32.74
-38.84
-45.4
-51.4
-55.59
-56.84
-54.55
-48.75
-40.17
-29.97
-19.38
-9.35
-0.39
7.44
14.27
20.16
25.04
28.67
30.88
31.77
31.74
31.4
31.24
31.54
32.14
32.67
32.68
31.91
30.34
28.24
25.97
23.87
22.14
20.7
19.33
17.72
15.59
12.85
9.51
5.76
1.8
-2.18
-6.07
-9.83
-13.47
-17.1
-20.86
-24.98
-29.63
-34.86
-40.39
-45.58
-49.46
-50.95
-49.21
-43.96
-35.65
-25.33
-14.33
-3.85
5.37
13.04
19.24
24.11
27.79
30.33
31.83
32.47
32.51
32.23
31.88
31.57
31.31
31.08
30.78
30.31
29.58
28.57
27.32
25.92
24.38
22.6
20.29
17.1
12.84
7.58
1.79
-3.83
-8.58
-12.01
-14.15
-15.48
-16.76
-18.69
-21.72
-25.92
-31.02
-36.53
-41.84
-46.2
-48.81
-48.92
-46.02
-40.05
-31.58
-21.57
-11.24
-1.62
6.62
13.22
18.18
21.64
23.78
24.8
24.99
24.61
23.95
23.17
22.41
21.71
21.09
20.57
20.11
19.65
19.06
18.22
17.03
15.44
13.44
11.03
8.22
5.07
1.74
-1.61
-4.78
-7.74
-10.57
-13.48
-16.76
-20.65
-25.36
-30.79
-36.59
-42.0
-45.99
-47.48
-45.69
-40.46
-32.38
-22.58
-12.37
-2.84
5.37
12.07
17.29
21.1
23.48
24.46
24.22
23.14
21.75
20.53
19.78
19.5
19.51
19.54
19.38
18.93
18.27
17.45
16.53
15.43
14.01
12.08
9.52
6.34
2.77
-0.92
-4.42
-7.62
-10.56
-13.5
-16.75
-20.61
-25.24
-30.63
-36.47
-42.13
-46.72
-49.2
-48.69
-44.79
-37.79
-28.6
-18.46
-8.55
0.35
7.99
14.43
19.82
24.19
27.47
29.57
30.52
30.56
30.01
29.2
28.33
27.47
26.53
25.49
24.31
23.05
21.85
20.8
19.94
19.17
18.28
16.98
15.05
12.39
9.06
5.27
1.27
-2.67
-6.4
-9.84
-13.07
-16.28
-19.84
-24.09
-29.19
-34.93
-40.61
-45.16
-47.49
-46.79
-42.82
-35.95
-27.05
-17.2
-7.42
1.51
9.19
15.58
20.79
25.0
28.25
30.45
31.51
31.45
30.53
29.23
28.1
27.46
27.34
27.45
27.42
26.98
26.13
25.0
23.78
22.52
21.17
19.61
17.8
15.78
13.59
11.19
8.51
5.41
1.86
-2.0
-5.87
-9.49
-12.75
-15.82
-19.1
-22.97
-27.63
-32.83
-37.96
-42.13
-44.44
-44.18
-40.98
-34.99
-26.77
-17.3
-7.61
1.34
8.99
15.14
19.88
23.37
25.69
26.87
26.93
26.13
24.9
23.75
23.09
23.03
23.44
24.0
24.41
24.48
24.15
23.43
22.35
20.96
19.32
17.55
15.71
13.88
12.02
10.06
7.9
5.42
2.66
-0.34
-3.38
-6.29
-8.9
-11.21
-13.39
-15.75
-18.65
-22.36
-26.87
-31.82
-36.54
-40.15
-41.76
-40.76
-36.95
-30.67
-22.64
-13.83
-5.16
2.72
9.47
14.97
19.15
21.99
23.4
23.42
22.27
20.38
18.35
16.68
15.64
15.19
15.03
14.81
14.3
13.5
12.61
11.86
11.35
10.97
10.44
9.35
7.45
4.68
1.26
-2.47
-6.1
-9.4
-12.27
-14.79
-17.12
-19.47
-22.05
-25.0
-28.44
-32.23
-36.02
-39.11
-40.59
-39.68
-35.98
-29.74
-21.76
-13.17
-5.01
2.06
7.87
12.58
16.39
19.46
21.69
22.94
23.12
22.35
20.96
19.45
18.27
17.66
17.6
17.83
17.99
17.79
17.13
16.11
14.97
13.87
12.85
11.78
10.37
8.34
5.55
2.1
-1.72
-5.52
-8.94
-11.88
-14.46
-16.97
-19.68
-22.76
-26.23
-30.0
-33.89
-37.61
-40.67
-42.36
-41.93
-38.86
-33.11
-25.25
-16.28
-7.34
0.74
7.54
13.07
17.51
20.97
23.44
24.85
25.18
24.58
23.3
21.69
20.03
18.57
17.44
16.65
16.11
15.62
14.99
14.12
13.06
12.0
11.1
10.33
9.45
8.03
5.75
2.57
-1.21
-5.11
-8.64
-11.55
-13.9
-15.92
-17.94
-20.24
-23.01
-26.32
-30.12
-34.18
-37.98
-40.8
-41.84
-40.49
-36.6
-30.5
-22.97
-14.9
-7.08
-0.02
6.01
10.96
14.8
17.49
19.02
19.48
19.05
18.04
16.78
15.56
14.56
13.8
13.19
12.55
11.76
10.83
9.91
9.2
8.84
8.79
8.79
8.48
7.5
5.68
3.08
-0.07
-3.45
-6.81
-10.04
-13.12
-16.16
-19.24
-22.46
-25.87
-29.48
-33.13
-36.46
-38.82
-39.47
-37.79
-33.54
-27.04
-19.04
-10.52
-2.39
4.74
10.54
14.89
17.77
19.2
19.24
18.15
16.37
14.47
12.96
12.16
12.06
12.38
12.77
12.92
12.7
12.14
11.35
10.37
9.17
7.63
5.64
3.22
0.43
-2.58
-5.66
-8.71
-11.63
-14.4
-17.08
-19.92
-23.24
-27.34
-32.24
-37.46
-42.1
-44.99
-45.17
-42.25
-36.5
-28.82
-20.31
-11.94
-4.28
2.45
8.24
13.02
16.67
19.04
20.13
20.19
19.64
18.97
18.44
18.07
17.66
16.99
16.03
14.9
13.87
13.14
12.73
12.43
11.93
10.9
9.13
6.57
3.29
-0.45
-4.32
-8.0
-11.25
-14.03
-16.53
-19.17
-22.34
-26.39
-31.32
-36.79
-42.1
-46.3
-48.38
-47.55
-43.49
-36.45
-27.29
-17.21
-7.42
1.2
8.27
13.84
18.22
21.66
24.21
25.73
26.06
25.31
23.86
22.35
21.4
21.32
21.99
22.98
23.71
23.78
23.13
21.98
20.67
19.44
18.25
16.78
14.68
11.69
7.87
3.55
-0.75
-4.61
-7.85
-10.59
-13.19
-16.02
-19.37
-23.36
-27.92
-32.78
-37.49
-41.4
-43.71
-43.71
-40.96
-35.53
-27.99
-19.23
-10.15
-1.43
6.56
13.61
19.5
23.91
26.51
27.21
26.34
24.66
23.06
22.21
22.31
23.01
23.68
23.8
23.18
22.06
20.82
19.76
18.9
18.01
16.74
14.9
12.48
9.63
6.56
3.38
0.11
-3.27
-6.69
-10.03
-13.12
-15.9
-18.51
-21.27
-24.49
-28.35
-32.69
-36.94
-40.2
-41.54
-40.23
-36.01
-29.23
-20.7
-11.51
-2.69
5.0
11.18
15.75
18.86
20.66
21.36
21.21
20.46
19.47
18.54
17.84
17.32
16.8
16.06
15.02
13.76
12.45
11.28
10.3
9.33
8.11
6.3
3.69
0.23
-3.89
-8.41
-12.92
-17.12
-20.86
-24.23
-27.63
-31.57
-36.5
-42.55
-49.32
-55.87
-61.03
-63.71
-63.26
-59.72
-53.7
-46.21
-38.19
-30.26
-22.54
-14.62
-5.86
4.47
16.77
31.11
47.07
63.85
80.39
95.55
108.33
117.97
124.11
126.79
126.46
123.9
120.06
115.86
111.94
108.44
105.08
101.3
96.56
90.64
83.66
75.99
67.88
59.25
49.56
38.03
23.89
6.74
-13.41
-36.17
-60.98
-87.23
-114.28
-141.32
-167.27
-190.86
-210.83
-226.22
-236.59
-241.89
-242.16
-237.2
-226.35
-208.92
-184.7
-154.66
-121.1
-87.19
-56.05
-29.8
-9.05
6.91
19.44
29.87
39.05
47.35
54.95
62.05
68.9
75.72
82.35
88.32
92.89
95.31
95.0
91.75
85.83
77.87
68.79
59.57
50.94
43.22
36.3
29.67
22.74
14.99
6.23
-3.27
-12.81
-21.38
-27.9
-31.48
-31.79
-29.11
-24.29
-18.39
-12.33
-6.65
-1.44
3.43
8.09
12.52
16.59
20.22
23.49
26.65
29.94
33.45
36.91
39.92
42.07
43.21
43.52
43.34
42.94
42.32
41.23
39.33
36.37
32.34
27.51
22.3
17.1
12.19
7.6
3.24
-1.07
-5.54
-10.38
-15.77
-21.83
-28.47
-35.32
-41.68
-46.6
-49.11
-48.51
-44.64
-37.92
-29.33
-19.96
-10.83
-2.63
4.31
9.94
14.28
17.4
19.28
19.98
19.64
18.55
17.11
15.75
14.75
14.23
14.11
14.18
14.2
14.01
13.47
12.51
11.11
9.28
7.03
4.46
1.64
-1.38
-4.61
-8.15
-12.18
-16.95
-22.64
-29.27
-36.55
-43.78
-49.97
-54.06
-55.21
-53.02
-47.71
-39.96
-30.72
-20.99
-11.6
-3.09
4.31
10.61
15.99
20.55
24.28
27.05
28.73
29.37
29.21
28.66
28.11
27.7
27.37
26.98
26.39
25.65
24.86
24.01
22.94
21.28
18.75
15.23
10.91
6.21
1.5
-3.0
-7.39
-11.96
-17.03
-22.87
-29.52
-36.78
-44.19
-51.07
-56.58
-59.82
-60.01
-56.77
-50.16
-40.84
-29.84
-18.32
-7.29
2.6
11.03
17.98
23.51
27.74
30.76
32.72
33.83
34.37
34.68
35.0
35.47
36.02
36.48
36.69
36.59
36.3
36.04
35.94
35.92
35.68
34.77
32.79
29.61
25.37
20.48
15.38
10.43
5.73
1.17
-3.52
-8.67
-14.59
-21.42
-29.05
-37.05
-44.6
-50.65
-54.17
-54.35
-50.92
-44.11
-34.71
-23.7
-12.14
-0.9
9.43
18.44
25.97
31.93
36.42
39.57
41.61
42.78
43.29
43.31
42.99
42.5
42.01
41.66
41.48
41.34
41.01
40.27
39.04
37.45
35.69
33.85
31.86
29.4
26.13
21.88
16.77
11.2
5.71
0.74
-3.58
-7.46
-11.33
-15.77
-21.14
-27.55
-34.67
-41.79
-47.99
-52.3
-53.96
-52.55
-48.05
-40.86
-31.69
-21.47
-11.14
-1.53
6.84
13.7
19.09
23.13
25.97
27.69
28.37
28.15
27.31
26.29
25.52
25.33
25.74
26.54
27.3
27.65
27.4
26.55
25.27
23.71
21.92
19.8
17.24
14.17
10.77
7.31
4.13
1.45
-0.81
-2.96
-5.5
-8.89
-13.37
-18.85
-24.91
-30.87
-35.9
-39.24
-40.29
-38.71
-34.45
-27.84
-19.46
-10.15
-0.83
7.71
14.85
20.3
24.0
26.06
26.73
26.33
25.26
23.94
22.73
21.88
21.44
21.29
21.19
20.97
20.48
19.74
18.74
17.54
16.09
14.28
11.99
9.13
5.69
1.76
-2.48
-6.81
-11.05
-15.18
-19.33
-23.75
-28.66
-34.07
-39.68
-44.83
-48.65
-50.33
-49.35
-45.58
-39.31
-31.17
-21.91
-12.27
-2.88
5.75
13.23
19.3
23.78
26.64
28.02
28.21
27.61
26.68
25.74
24.99
24.47
24.08
23.7
23.23
22.58
21.65
20.41
18.81
16.88
14.64
12.12
9.26
6.01
2.35
-1.62
-5.72
-9.74
-13.54
-17.21
-21.07
-25.44
-30.58
-36.41
-42.46
-47.94
-51.89
-53.5
-52.23
-48.0
-41.18
-32.5
-22.81
-12.96
-3.61
4.75
11.78
17.27
21.09
23.35
24.31
24.43
24.2
24.04
24.2
24.71
25.41
26.07
26.46
26.43
25.98
25.19
24.2
23.07
21.74
20.1
17.96
15.31
12.22
8.91
5.53
2.16
-1.26
-4.83
-8.6
-12.57
-16.74
-21.17
-25.98
-31.22
-36.72
-41.95
-46.1
-48.21
-47.54
-43.81
-37.33
-28.9
-19.56
-10.25
-1.59
6.08
12.69
18.14
22.29
24.95
26.04
25.74
24.54
23.09
22.01
21.63
21.91
22.48
22.88
22.76
22.07
21.02
19.9
18.86
17.77
16.24
13.88
10.52
6.35
1.9
-2.22
-5.59
-8.19
-10.31
-12.52
-15.34
-19.08
-23.77
-29.12
-34.56
-39.42
-42.9
-44.3
-43.1
-39.14
-32.6
-24.1
-14.57
-5.04
3.55
10.56
15.72
19.09
20.93
21.58
21.42
20.76
19.89
19.03
18.34
17.88
17.6
17.37
17.05
16.48
15.58
14.3
12.65
10.69
8.51
6.2
3.8
1.31
-1.29
-4.08
-7.09
-10.39
-14.05
-18.18
-22.86
-28.08
-33.65
-39.11
-43.73
-46.6
-46.9
-44.22
-38.69
-31.07
-22.42
-13.78
-5.83
1.2
7.4
12.9
17.6
21.18
23.35
24.03
23.48
22.26
20.97
20.05
19.69
19.77
20.1
20.39
20.41
19.98
19.02
17.54
15.6
13.29
10.66
7.74
4.56
1.19
-2.22
-5.54
-8.7
-11.83
-15.17
-19.1
-23.88
-29.6
-35.99
-42.46
-48.07
-51.79
-52.71
-50.36
-44.89
-37.07
-28.01
-18.83
-10.27
-2.6
4.31
10.61
16.28
21.02
24.46
26.38
26.91
26.52
25.78
25.2
24.97
25.0
25.03
24.83
24.34
23.7
23.11
22.73
22.47
22.03
20.98
18.99
16.02
12.34
8.39
4.56
1.01
-2.37
-5.84
-9.51
-13.45
-17.6
-22.01
-26.8
-32.06
-37.61
-42.83
-46.77
-48.39
-47.0
-42.49
-35.35
-26.5
-16.91
-7.45
1.29
8.88
15.06
19.72
22.94
24.93
26.02
26.5
26.61
26.41
25.88
24.98
23.7
22.14
20.51
19.06
18.03
17.51
17.44
17.56
17.48
16.82
15.28
12.77
9.4
5.49
1.46
-2.26
-5.41
-7.99
-10.3
-12.83
-16.15
-20.66
-26.36
-32.84
-39.3
-44.69
-47.99
-48.43
-45.66
-39.82
-31.56
-21.83
-11.76
-2.43
5.4
11.37
15.54
18.2
19.8
20.69
21.05
20.92
20.29
19.23
17.89
16.54
15.42
14.72
14.52
14.74
15.16
15.49
15.4
14.57
12.84
10.26
7.09
3.78
0.66
-2.08
-4.48
-6.78
-9.26
-12.17
-15.67
-19.87
-24.78
-30.28
-35.95
-41.05
-44.61
-45.64
-43.53
-38.29
-30.62
-21.62
-12.45
-3.96
3.44
9.61
14.58
18.28
20.67
21.73
21.74
21.15
20.53
20.23
20.37
20.73
21.01
20.99
20.59
19.91
19.06
18.13
17.1
15.88
14.37
12.45
10.06
7.15
3.81
0.18
-3.49
-6.95
-10.09
-12.98
-15.94
-19.39
-23.73
-29.08
-35.16
-41.29
-46.46
-49.68
-50.19
-47.7
-42.43
-35.01
-26.23
-16.89
-7.67
0.91
8.45
14.7
19.5
22.83
24.77
25.5
25.34
24.66
23.9
23.33
23.1
23.17
23.32
23.34
23.04
22.48
21.76
21.03
20.33
19.48
18.19
16.12
13.13
9.3
4.98
0.6
-3.42
-6.86
-9.76
-12.4
-15.21
-18.6
-22.91
-28.21
-34.3
-40.61
-46.29
-50.4
-52.08
-50.83
-46.57
-39.73
-31.04
-21.39
-11.63
-2.39
5.91
13.07
18.97
23.57
26.8
28.7
29.43
29.23
28.52
27.7
27.09
26.82
26.86
27.01
27.1
26.96
26.54
25.87
25.02
24.02
22.86
21.44
19.66
17.36
14.46
10.97
7.02
2.81
-1.41
-5.48
-9.27
-12.82
-16.27
-19.86
-23.87
-28.46
-33.6
-38.95
-43.92
-47.73
-49.6
-48.96
-45.57
-39.62
-31.72
-22.71
-13.54
-4.98
2.43
8.49
13.25
16.86
19.47
21.24
22.23
22.55
22.31
21.69
20.86
19.95
19.06
18.24
17.49
16.77
15.99
15.01
13.65
11.71
9.04
5.58
1.37
-3.42
-8.57
-13.79
-18.87
-23.75
-28.53
-33.42
-38.61
-44.21
-50.23
-56.66
-63.54
-70.9
-78.7
-86.53
-93.63
-98.91
-101.31
-100.24
-95.82
-88.94
-80.91
-72.98
-65.96
-60.13
-55.35
-51.34
-47.84
-44.63
-41.47
-38.04
-34.03
-29.23
-23.65
-17.45
-10.78
-3.59
4.47
13.89
25.0
37.62
50.96
63.67
74.27
81.64
85.4
86.05
84.61
82.2
79.6
77.19
74.99
73.02
71.43
70.44
70.2
70.63
71.42
72.2
72.75
73.07
73.35
73.81
74.52
75.47
76.47
77.27
77.58
77.08
75.58
73.01
69.51
65.32
60.68
55.65
50.17
44.11
37.42
30.26
23.0
16.21
10.48
6.3
3.78
2.5
1.61
-0.04
-3.38
-8.86
-16.16
-24.38
-32.35
-38.95
-43.45
-45.51
-45.08
-42.38
-37.9
-32.32
-26.53
-21.24
-16.72
-12.69
-8.42
-3.24
3.07
10.07
16.87
22.67
27.18
30.84
34.4
38.51
43.18
47.67
50.73
51.11
47.97
41.13
31.1
18.99
6.31
-5.25
-14.19
-19.55
-21.2
-19.89
-17.03
-14.26
-13.01
-14.09
-17.68
-23.35
-30.34
-37.8
-44.97
-51.24
-56.1
-59.27
-60.66
-60.54
-59.56
-58.63
-58.75
-60.55
-64.01
-68.35
-72.31
-74.54
-74.15
-70.93
-65.35
-58.22
-50.34
-42.28
-34.27
-26.39
-18.67
-11.33
-4.68
0.94
5.25
8.23
10.08
11.15
11.86
12.54
13.36
14.29
15.18
15.86
16.25
16.39
16.43
16.42
16.31
15.87
14.83
13.02
10.48
7.52
4.46
1.53
-1.25
-4.08
-7.23
-10.95
-15.35
-20.35
-25.72
-31.1
-36.02
-39.89
-42.13
-42.22
-39.87
-35.13
-28.45
-20.58
-12.41
-4.78
1.8
7.15
11.36
14.62
17.1
18.87
19.91
20.23
19.92
19.25
18.5
17.96
17.73
17.81
18.07
18.32
18.43
18.28
17.77
16.77
15.19
12.98
10.22
7.09
3.86
0.78
-2.07
-4.77
-7.62
-11.01
-15.31
-20.6
-26.57
-32.55
-37.55
-40.6
-40.94
-38.32
-33.05
-25.89
-17.8
-9.65
-2.06
4.74
10.65
15.66
19.67
22.55
24.23
24.76
24.43
23.63
22.75
21.96
21.27
20.59
19.86
19.13
18.51
18.01
17.46
16.51
14.83
12.28
9.06
5.6
2.34
-0.53
-3.14
-5.89
-9.17
-13.22
-17.97
-23.2
-28.57
-33.73
-38.28
-41.66
-43.25
-42.53
-39.27
-33.69
-26.36
-18.03
-9.41
-0.95
6.94
13.93
19.62
23.71
26.05
26.86
26.57
25.76
24.9
24.26
23.88
23.68
23.57
23.46
23.31
23.12
22.86
22.5
21.93
20.99
19.54
17.49
14.88
11.9
8.83
5.9
3.21
0.63
-2.11
-5.36
-9.45
-14.53
-20.54
-27.12
-33.64
-39.27
-43.1
-44.39
-42.68
-38.02
-30.93
-22.3
-13.15
-4.38
3.45
10.11
15.65
20.23
23.95
26.77
28.63
29.51
29.6
29.26
28.94
28.96
29.35
29.89
30.18
29.92
29.01
27.6
25.95
24.32
22.79
21.3
19.68
17.82
15.65
13.16
10.33
7.14
3.63
-0.03
-3.6
-6.94
-10.11
-13.45
-17.39
-22.21
-27.81
-33.57
-38.55
-41.77
-42.51
-40.54
-36.08
-29.65
-21.91
-13.53
-5.1
2.9
10.08
16.17
20.98
24.41
26.43
27.19
26.96
26.2
25.37
24.82
24.68
24.86
25.12
25.22
25.13
24.92
24.76
24.64
24.44
23.88
22.67
20.71
18.06
15.02
11.84
8.73
5.71
2.71
-0.4
-3.69
-7.16
-10.77
-14.5
-18.43
-22.62
-27.08
-31.55
-35.52
-38.23
-38.99
-37.32
-33.2
-27.08
-19.69
-11.84
-4.19
2.81
8.86
13.74
17.32
19.56
20.6
20.75
20.41
19.95
19.59
19.4
19.31
19.2
19.01
18.71
18.36
17.99
17.66
17.34
16.87
16.05
14.62
12.46
9.61
6.35
3.05
0.04
-2.55
-4.83
-7.1
-9.72
-12.97
-16.96
-21.53
-26.31
-30.78
-34.21
-35.91
-35.34
-32.25
-26.8
-19.58
-11.4
-3.15
4.42
10.85
15.9
19.57
22.0
23.36
23.86
23.7
23.03
21.96
20.62
19.1
17.59
16.31
15.44
15.0
14.83
14.65
14.1
12.96
11.16
8.83
6.2
3.45
0.73
-1.94
-4.61
-7.39
-10.39
-13.73
-17.59
-22.01
-26.92
-31.91
-36.34
-39.31
-40.03
-38.01
-33.28
-26.45
-18.43
-10.25
-2.66
3.9
9.33
13.67
16.99
19.31
20.67
21.17
21.02
20.47
19.75
19.01
18.31
17.67
17.09
16.56
16.07
15.52
14.85
13.95
12.76
11.23
9.29
6.89
4.04
0.83
-2.5
-5.65
-8.42
-10.86
-13.33
-16.34
-20.34
-25.47
-31.41
-37.43
-42.54
-45.79
-46.47
-44.35
-39.66
-33.03
-25.24
-17.06
-9.05
-1.56
5.23
11.16
16.02
19.62
21.89
22.95
23.12
22.85
22.48
22.15
21.84
21.44
20.86
20.16
19.44
18.82
18.36
18.02
17.69
17.2
16.35
14.99
13.01
10.46
7.5
4.39
1.34
-1.64
-4.69
-8.03
-11.87
-16.19
-20.85
-25.64
-30.35
-34.74
-38.42
-40.81
-41.22
-39.09
-34.35
-27.5
-19.5
-11.37
-3.87
2.77
8.65
13.9
18.43
21.84
23.74
24.0
22.98
21.43
20.18
19.74
20.1
20.82
21.28
21.09
20.23
19.01
17.76
16.72
15.8
14.74
13.22
11.07
8.32
5.21
2.0
-1.05
-3.86
-6.48
-9.12
-12.0
-15.37
-19.31
-23.74
-28.39
-32.71
-36.12
-38.03
-37.97
-35.71
-31.33
-25.16
-17.78
-9.94
-2.35
4.4
9.91
13.96
16.5
17.61
17.51
16.57
15.23
13.94
13.01
12.53
12.39
12.3
12.03
11.46
10.65
9.77
8.97
8.24
7.46
6.39
4.86
2.82
0.32
-2.49
-5.51
-8.7
-12.08
-15.73
-19.68
-23.93
-28.35
-32.68
-36.46
-39.06
-39.76
-38.03
-33.71
-27.09
-18.97
-10.34
-2.13
5.05
10.92
15.47
18.76
20.78
21.47
20.84
19.09
16.68
14.22
12.27
11.15
10.8
10.89
11.0
10.77
10.04
8.83
7.23
5.31
3.1
0.65
-1.99
-4.72
-7.42
-10.08
-12.76
-15.62
-18.9
-22.85
-27.54
-32.91
-38.44
-43.32
-46.51
-47.04
-44.42
-38.8
-31.0
-22.12
-13.23
-4.99
2.3
8.59
13.86
17.95
20.73
22.11
22.28
21.57
20.43
19.16
17.92
16.71
15.5
14.34
13.36
12.71
12.46
12.52
12.56
12.21
11.09
8.96
5.91
2.21
-1.68
-5.31
-8.4
-10.96
-13.23
-15.63
-18.62
-22.52
-27.34
-32.72
-37.83
-41.66
-43.22
-41.88
-37.59
-30.88
-22.64
-13.86
-5.37
2.31
8.92
14.36
18.59
21.62
23.46
24.28
24.31
23.89
23.36
22.92
22.73
22.72
22.8
22.81
22.64
22.2
21.44
20.33
18.87
17.05
14.91
12.51
9.96
7.32
4.64
1.89
-1.0
-4.12
-7.55
-11.34
-15.56
-20.21
-25.27
-30.55
-35.68
-40.09
-43.04
-43.85
-42.11
-37.78
-31.26
-23.27
-14.59
-5.94
2.07
9.02
14.61
18.64
21.09
22.12
22.03
21.25
20.23
19.35
18.86
18.85
19.24
19.75
20.07
19.93
19.24
18.1
16.72
15.28
13.76
11.97
9.69
6.8
3.42
-0.14
-3.49
-6.44
-8.99
-11.41
-14.05
-17.24
-21.15
-25.72
-30.56
-35.03
-38.27
-39.39
-37.78
-33.25
-26.24
-17.62
-8.45
0.27
7.84
13.92
18.43
21.43
23.08
23.56
23.11
22.03
20.57
19.02
17.6
16.54
15.99
16.01
16.41
16.86
16.95
16.34
14.92
12.79
10.21
7.45
4.68
1.99
-0.65
-3.29
-6.03
-8.99
-12.33
-16.3
-21.04
-26.57
-32.59
-38.46
-43.25
-45.96
-45.78
-42.39
-36.06
-27.6
-18.14
-8.79
-0.37
6.7
12.35
16.71
19.94
22.1
23.25
23.49
22.99
22.03
20.96
20.08
19.54
19.31
19.24
19.2
19.11
18.93
18.64
18.12
17.18
15.58
13.23
10.2
6.8
3.41
0.38
-2.16
-4.3
-6.37
-8.82
-12.08
-16.42
-21.79
-27.84
-33.86
-38.92
-42.1
-42.68
-40.34
-35.22
-27.92
-19.3
-10.35
-1.91
5.43
11.44
16.14
19.69
22.22
23.8
24.53
24.56
24.15
23.68
23.45
23.61
24.07
24.59
24.92
24.92
24.55
23.85
22.91
21.73
20.38
18.87
17.21
15.38
13.27
10.76
7.74
4.27
0.52
-3.19
-6.56
-9.5
-12.13
-14.86
-18.1
-22.14
-26.82
-31.57
-35.46
-37.55
-37.19
-34.25
-29.07
-22.32
-14.74
-6.99
0.36
6.86
12.11
15.77
17.74
18.15
17.41
16.1
14.74
13.69
13.1
12.98
13.24
13.8
14.54
15.26
15.75
15.81
15.29
14.17
12.56
10.64
8.59
6.56
4.56
2.49
0.16
-2.55
-5.7
-9.13
-12.67
-16.21
-19.75
-23.44
-27.32
-31.11
-34.13
-35.46
-34.29
-30.36
-24.07
-16.29
-8.08
-0.23
6.77
12.76
17.64
21.3
23.54
24.31
23.77
22.35
20.62
19.02
17.76
16.84
16.08
15.28
14.37
13.32
12.2
11.13
10.2
9.43
8.78
8.03
6.9
5.14
2.63
-0.53
-4.06
-7.63
-11.05
-14.3
-17.63
-21.34
-25.67
-30.61
-35.8
-40.53
-43.93
-45.12
-43.54
-39.11
-32.3
-23.96
-15.05
-6.4
1.49
8.39
14.24
18.97
22.43
24.47
25.12
24.66
23.61
22.51
21.75
21.41
21.31
21.16
20.77
20.13
19.38
18.68
18.1
17.53
16.81
15.74
14.24
12.33
10.11
7.67
5.07
2.3
-0.66
-3.8
-7.11
-10.59
-14.27
-18.24
-22.54
-27.03
-31.23
-34.42
-35.74
-34.56
-30.73
-24.62
-17.05
-8.99
-1.27
5.55
11.19
15.61
18.83
20.93
22.02
22.21
21.63
20.49
19.02
17.53
16.3
15.5
15.11
14.98
14.89
14.66
14.24
13.67
12.98
12.14
11.04
9.56
7.59
5.18
2.47
-0.36
-3.18
-5.92
-8.59
-11.3
-14.16
-17.33
-20.91
-24.88
-28.98
-32.69
-35.3
-36.03
-34.41
-30.36
-24.34
-17.15
-9.66
-2.61
3.55
8.6
12.44
14.98
16.17
16.11
15.09
13.6
12.15
11.08
10.44
10.05
9.66
9.07
8.33
7.56
6.9
6.32
5.64
4.64
3.18
1.32
-0.72
-2.69
-4.5
-6.29
-8.38
-11.09
-14.56
-18.7
-23.22
-27.75
-31.92
-35.3
-37.41
-37.67
-35.61
-31.05
-24.31
-16.22
-7.91
-0.39
5.7
10.27
13.5
15.74
17.23
17.98
17.99
17.3
16.05
14.55
13.13
12.03
11.35
11.04
10.94
10.84
10.58
10.01
8.97
7.37
5.15
2.33
-0.97
-4.56
-8.2
-11.7
-14.98
-18.09
-21.2
-24.52
-28.17
-32.05
-35.79
-38.68
-39.88
-38.61
-34.44
-27.55
-18.69
-9.01
0.27
8.23
14.4
18.73
21.42
22.75
22.94
22.18
20.71
18.83
16.9
15.25
14.07
13.35
12.92
12.54
12.07
11.43
10.66
9.75
8.57
6.91
4.58
1.56
-1.96
-5.6
-9.02
-12.09
-14.97
-18.11
-21.93
-26.66
-32.06
-37.41
-41.71
-43.93
-43.3
-39.55
-33.04
-24.57
-15.27
-6.17
1.99
8.82
14.27
18.42
21.38
23.14
23.8
23.54
22.76
21.91
21.33
21.06
20.88
20.47
19.6
18.36
17.04
16.03
15.55
15.47
15.43
14.93
13.59
11.25
8.11
4.47
0.71
-2.89
-6.21
-9.29
-12.39
-15.83
-19.96
-24.95
-30.69
-36.7
-42.17
-46.15
-47.78
-46.54
-42.44
-35.97
-27.97
-19.32
-10.73
-2.69
4.58
10.96
16.33
20.57
23.56
25.26
25.76
25.36
24.46
23.52
22.88
22.71
22.93
23.33
23.65
23.72
23.51
23.09
22.56
21.94
21.14
19.95
18.24
15.93
13.11
9.97
6.77
3.76
1.09
-1.21
-3.36
-5.65
-8.48
-12.07
-16.52
-21.71
-27.41
-33.31
-39.0
-43.93
-47.31
-48.33
-46.35
-41.21
-33.37
-23.86
-13.94
-4.72
3.05
9.2
13.88
17.43
20.12
22.05
23.21
23.57
23.31
22.81
22.57
22.97
24.06
25.48
26.64
27.03
26.51
25.35
24.08
23.09
22.48
21.9
20.91
19.17
16.7
13.77
10.75
7.82
4.98
2.07
-1.01
-4.23
-7.49
-10.63
-13.61
-16.62
-19.93
-23.79
-28.21
-32.94
-37.34
-40.63
-42.01
-40.93
-37.25
-31.27
-23.7
-15.39
-7.14
0.48
7.13
12.66
16.97
19.94
21.55
21.86
21.2
20.03
18.88
18.2
18.19
18.75
19.61
20.47
21.02
21.15
20.87
20.24
19.37
18.32
17.09
15.66
13.94
11.87
9.39
6.5
3.24
-0.24
-3.81
-7.34
-10.75
-14.06
-17.34
-20.74
-24.39
-28.41
-32.8
-37.37
-41.63
-44.83
-46.14
-44.82
-40.62
-33.82
-25.27
-16.05
-7.21
0.56
7.01
12.2
16.3
19.43
21.6
22.77
23.02
22.55
21.73
20.99
20.61
20.72
21.26
22.03
22.8
23.38
23.67
23.61
23.14
22.19
20.64
18.47
15.73
12.6
9.37
6.28
3.42
0.74
-1.98
-4.96
-8.3
-11.98
-15.92
-20.08
-24.5
-29.3
-34.45
-39.59
-44.03
-46.8
-47.08
-44.42
-39.0
-31.56
-23.06
-14.36
-5.95
1.91
9.08
15.31
20.27
23.63
25.33
25.66
25.17
24.46
23.94
23.78
23.98
24.45
25.08
25.72
26.22
26.35
25.99
25.14
23.96
22.64
21.3
19.84
18.07
15.75
12.78
9.29
5.53
1.78
-1.75
-5.05
-8.24
-11.56
-15.2
-19.29
-23.78
-28.53
-33.29
-37.72
-41.44
-43.96
-44.77
-43.39
-39.63
-33.59
-25.83
-17.2
-8.56
-0.64
6.2
11.84
16.32
19.7
22.0
23.26
23.66
23.52
23.21
23.0
22.95
22.91
22.63
21.97
20.95
19.81
18.81
18.19
17.97
18.01
18.04
17.73
16.78
14.99
12.3
8.87
4.95
0.94
-2.84
-6.21
-9.18
-11.99
-14.94
-18.35
-22.43
-27.23
-32.54
-37.79
-42.14
-44.53
-44.12
-40.5
-34.02
-25.59
-16.46
-7.69
0.06
6.67
12.3
17.09
20.98
23.69
24.97
24.76
23.35
21.36
19.46
18.17
17.64
17.74
18.09
18.34
18.31
17.97
17.46
16.92
16.41
15.86
15.03
13.66
11.53
8.64
5.19
1.58
-1.8
-4.77
-7.4
-10.02
-13.04
-16.8
-21.41
-26.77
-32.58
-38.35
-43.41
-46.92
-48.09
-46.37
-41.7
-34.52
-25.72
-16.35
-7.33
0.71
7.48
12.94
17.18
20.27
22.32
23.41
23.69
23.38
22.74
22.13
21.82
21.97
22.48
23.11
23.5
23.37
22.62
21.34
19.79
18.15
16.55
14.87
12.96
10.6
7.73
4.48
1.09
-2.24
-5.41
-8.48
-11.64
-15.01
-18.74
-22.85
-27.36
-32.24
-37.33
-42.32
-46.57
-49.27
-49.57
-46.93
-41.34
-33.33
-23.88
-14.07
-4.81
3.38
10.32
15.99
20.42
23.54
25.29
25.73
25.13
23.97
22.82
22.11
22.06
22.59
23.39
24.17
24.63
24.64
24.19
23.3
22.07
20.54
18.76
16.74
14.49
11.99
9.22
6.1
2.61
-1.2
-5.2
-9.21
-13.11
-16.88
-20.65
-24.64
-28.97
-33.65
-38.47
-43.03
-46.78
-49.1
-49.38
-47.17
-42.33
-35.17
-26.36
-16.87
-7.6
0.73
7.76
13.43
17.8
21.02
23.21
24.5
25.0
24.91
24.43
23.74
23.06
22.53
22.21
22.12
22.15
22.14
21.92
21.4
20.58
19.54
18.36
17.03
15.45
13.46
10.95
7.94
4.67
1.43
-1.56
-4.24
-6.75
-9.29
-12.04
-15.08
-18.49
-22.38
-26.86
-31.93
-37.23
-41.95
-44.95
-45.09
-41.74
-35.05
-25.96
-15.82
-6.0
2.6
9.61
15.04
19.08
21.87
23.48
23.97
23.54
22.56
21.47
20.69
20.37
20.51
20.86
21.17
21.25
21.05
20.64
20.12
19.56
18.92
18.04
16.72
14.82
12.32
9.34
6.16
3.05
0.19
-2.45
-4.98
-7.67
-10.75
-14.39
-18.67
-23.49
-28.62
-33.59
-37.75
-40.28
-40.43
-37.72
-32.21
-24.47
-15.45
-6.21
2.4
9.87
16.01
20.8
24.27
26.43
27.34
27.18
26.24
24.94
23.65
22.64
22.02
21.81
22.0
22.5
23.29
24.24
25.13
25.64
25.48
24.47
22.63
20.23
17.59
14.99
12.49
9.99
7.3
4.27
0.95
-2.48
-5.8
-8.89
-11.81
-14.77
-18.06
-21.89
-26.38
-31.45
-36.89
-42.24
-46.82
-49.79
-50.25
-47.56
-41.55
-32.73
-22.17
-11.22
-1.08
7.49
14.26
19.37
23.08
25.57
26.95
27.35
27.08
26.56
26.22
26.28
26.67
27.06
27.08
26.6
25.77
25.0
24.7
25.09
25.98
26.88
27.15
26.29
24.14
20.94
17.28
13.77
10.86
8.58
6.68
4.75
2.48
-0.18
-3.09
-6.02
-8.81
-11.5
-14.27
-17.37
-21.04
-25.39
-30.33
-35.58
-40.61
-44.7
-47.04
-46.97
-44.14
-38.66
-31.09
-22.25
-13.09
-4.37
3.31
9.65
14.54
18.05
20.34
21.7
22.49
23.03
23.62
24.37
25.24
26.0
26.46
26.48
26.09
25.45
24.77
24.21
23.78
23.37
22.8
21.91
20.56
18.68
16.31
13.63
10.88
8.28
5.98
3.94
1.95
-0.2
-2.64
-5.28
-7.93
-10.35
-12.38
-14.07
-15.6
-17.25
-19.33
-22.1
-25.67
-29.89
-34.23
-37.82
-39.69
-39.08
-35.77
-30.08
-22.81
-14.92
-7.15
0.01
6.31
11.59
15.66
18.28
19.4
19.21
18.18
16.91
15.9
15.38
15.22
15.15
14.89
14.35
13.66
13.08
12.82
12.89
13.09
13.12
12.74
11.9
10.75
9.53
8.42
7.49
6.6
5.53
4.06
2.07
-0.38
-3.08
-5.76
-8.16
-10.11
-11.67
-13.03
-14.53
-16.51
-19.25
-22.78
-26.81
-30.88
-34.3
-36.39
-36.5
-34.22
-29.5
-22.72
-14.71
-6.51
0.83
6.66
10.77
13.39
14.9
15.62
15.68
15.06
13.87
12.36
10.98
10.11
9.89
10.16
10.59
10.85
10.76
10.36
9.74
9.02
8.25
7.39
6.44
5.34
4.03
2.33
0.12
-2.65
-5.79
-8.99
-11.89
-14.31
-16.35
-18.36
-20.79
-23.95
-27.88
-32.29
-36.61
-40.16
-42.25
-42.37
-40.23
-35.87
-29.6
-22.02
-13.89
-5.98
1.07
6.83
11.14
14.0
15.57
16.08
15.82
15.1
14.18
13.25
12.43
11.79
11.3
10.92
10.58
10.22
9.77
9.19
8.49
7.74
7.01
6.34
5.59
4.48
2.7
0.07
-3.29
-6.99
-10.48
-13.41
-15.7
-17.65
-19.75
-22.39
-25.81
-29.89
-34.3
-38.56
-42.08
-44.22
-44.44
-42.37
-38.0
-31.7
-24.16
-16.17
-8.46
-1.49
4.49
9.4
13.19
15.86
17.41
17.93
17.64
16.86
15.92
15.11
14.6
14.38
14.4
14.55
14.77
15.02
15.21
15.2
14.83
13.98
12.65
10.92
8.88
6.55
3.88
0.79
-2.64
-6.15
-9.36
-11.89
-13.66
-14.96
-16.33
-18.41
-21.61
-25.98
-31.16
-36.45
-40.99
-43.98
-44.74
-42.97
-38.74
-32.55
-25.15
-17.32
-9.75
-2.82
3.25
8.37
12.49
15.49
17.3
17.96
17.69
16.85
15.84
14.96
14.4
14.17
14.21
14.4
14.66
14.93
15.13
15.2
14.97
14.32
13.08
11.16
8.6
5.58
2.41
-0.63
-3.26
-5.46
-7.32
-9.12
-11.17
-13.73
-16.95
-20.82
-25.18
-29.66
-33.74
-36.75
-37.99
-36.93
-33.41
-27.71
-20.52
-12.72
-5.1
1.75
7.55
12.16
15.47
17.43
18.04
17.49
16.18
14.64
13.34
12.54
12.26
12.31
12.47
12.61
12.72
12.81
12.86
12.69
12.09
10.86
8.92
6.36
3.42
0.4
-2.42
-4.9
-7.1
-9.33
-12.02
-15.6
-20.31
-26.0
-32.11
-37.68
-41.71
-43.37
-42.27
-38.5
-32.52
-25.02
-16.68
-8.17
-0.06
7.16
13.09
17.51
20.36
21.84
22.3
22.09
21.54
20.88
20.22
19.68
19.34
19.22
19.32
19.55
19.84
20.03
19.97
19.5
18.4
16.53
13.79
10.3
6.3
2.19
-1.68
-5.09
-8.07
-10.93
-14.09
-18.07
-23.18
-29.42
-36.3
-42.88
-47.96
-50.43
-49.59
-45.43
-38.63
-30.27
-21.48
-13.09
-5.47
1.33
7.39
12.67
17.01
20.2
22.13
22.92
22.9
22.48
22.07
21.89
21.99
22.26
22.51
22.59
22.4
22.01
21.56
21.21
21.01
20.85
20.46
19.53
17.82
15.28
12.09
8.55
4.94
1.46
-1.9
-5.2
-8.55
-12.02
-15.69
-19.69
-24.16
-29.16
-34.4
-39.17
-42.42
-43.08
-40.52
-34.78
-26.64
-17.28
-7.88
0.74
8.2
14.51
19.86
24.34
27.91
30.39
31.68
31.88
31.38
30.69
30.23
30.16
30.31
30.35
30.02
29.34
28.56
28.05
27.97
28.14
28.12
27.39
25.67
22.89
19.31
15.26
11.11
7.15
3.61
0.61
-1.9
-4.07
-6.24
-8.83
-12.18
-16.49
-21.7
-27.46
-33.05
-37.61
-40.18
-40.0
-36.78
-30.75
-22.69
-13.64
-4.63
3.57
10.48
15.93
19.89
22.4
23.51
23.37
22.31
20.79
19.37
18.47
18.3
18.73
19.42
19.96
20.06
19.7
19.06
18.37
17.76
17.09
16.08
14.38
11.84
8.59
5.03
1.61
-1.34
-3.8
-6.07
-8.65
-12.0
-16.37
-21.67
-27.41
-32.85
-37.08
-39.25
-38.74
-35.33
-29.28
-21.26
-12.19
-3.01
5.44
12.6
18.23
22.24
24.76
25.99
26.2
25.74
24.9
23.92
22.92
21.89
20.7
19.31
17.74
16.18
14.94
14.19
13.95
13.93
13.66
12.65
10.61
7.57
3.85
0.01
-3.54
-6.57
-9.18
-11.74
-14.71
-18.45
-23.12
-28.58
-34.42
-39.98
-44.34
-46.52
-45.67
-41.39
-34.02
-24.52
-14.31
-4.71
3.39
9.8
14.76
18.63
21.59
23.55
24.41
24.19
23.3
22.31
21.77
21.89
22.5
23.14
23.32
22.81
21.69
20.31
19.04
18.09
17.36
16.53
15.2
13.06
10.06
6.4
2.45
-1.33
-4.65
-7.38
-9.72
-12.08
-14.98
-18.83
-23.69
-29.21
-34.57
-38.74
-40.73
-39.94
-36.29
-30.24
-22.64
-14.36
-6.14
1.6
8.63
14.83
19.98
23.85
26.28
27.34
27.35
26.8
26.14
25.64
25.33
25.15
25.03
24.97
24.99
25.05
24.99
24.61
23.76
22.45
20.73
18.68
16.25
13.38
10.04
6.32
2.54
-0.97
-3.96
-6.43
-8.69
-11.17
-14.29
-18.29
-23.16
-28.57
-33.99
-38.64
-41.72
-42.52
-40.62
-36.04
-29.21
-20.93
-12.17
-3.82
3.46
9.32
13.61
16.42
17.91
18.38
18.19
17.74
17.35
17.23
17.33
17.46
17.36
16.86
15.94
14.77
13.64
12.76
12.16
11.66
10.94
9.7
7.75
5.14
2.13
-0.96
-3.86
-6.48
-8.94
-11.49
-14.39
-17.85
-21.89
-26.32
-30.72
-34.46
-36.82
-37.13
-34.97
-30.3
-23.53
-15.49
-7.14
0.55
6.92
11.66
14.74
16.31
16.63
15.94
14.5
12.62
10.65
8.87
7.4
6.16
4.94
3.48
1.64
-0.57
-2.94
-5.31
-7.55
-9.7
-11.95
-14.53
-17.65
-21.38
-25.64
-30.24
-35.02
-39.91
-45.04
-50.68
-57.15
-64.7
-73.25
-82.32
-90.88
-97.56
-100.88
-99.75
-93.88
-83.84
-70.97
-56.91
-43.2
-30.96
-20.77
-12.86
-7.1
-3.14
-0.37
2.02
4.92
9.08
14.89
22.23
30.52
38.82
46.18
51.84
55.52
57.4
58.01
58.0
57.91
58.07
58.71
59.96
61.96
64.7
67.86
70.76
72.47
72.18
69.41
64.19
56.93
48.29
38.97
29.7
21.21
14.21
9.26
6.56
5.84
6.43
7.53
8.5
9.07
9.31
9.42
9.5
9.48
9.21
8.58
7.64
6.61
5.63
4.74
3.81
2.71
1.39
-0.01
-1.24
-2.14
-2.65
-2.95
-3.27
-3.83
-4.73
-5.96
-7.49
-9.25
-11.24
-13.44
-15.89
-18.59
-21.67
-25.25
-29.43
-34.23
-39.42
-44.51
-48.75
-51.3
-51.41
-48.66
-43.13
-35.36
-26.35
-17.19
-8.85
-1.91
3.47
7.45
10.34
12.37
13.72
14.48
14.71
14.57
14.2
13.71
13.17
12.62
12.12
11.8
11.73
11.9
12.15
12.11
11.47
10.02
7.8
4.97
1.84
-1.35
-4.47
-7.47
-10.35
-13.17
-16.08
-19.29
-22.94
-27.01
-31.11
-34.53
-36.36
-35.82
-32.55
-26.75
-19.13
-10.66
-2.3
5.16
11.25
15.78
18.79
20.46
21.06
20.84
20.09
19.04
17.89
16.84
15.99
15.4
15.06
14.91
14.88
14.86
14.72
14.28
13.35
11.76
9.46
6.57
3.36
0.13
-2.99
-6.08
-9.47
-13.53
-18.48
-24.2
-30.18
-35.59
-39.56
-41.36
-40.6
-37.2
-31.47
-23.97
-15.4
-6.55
1.84
9.14
14.93
19.07
21.64
22.92
23.24
22.93
22.2
21.23
20.15
19.06
18.09
17.31
16.79
16.47
16.25
15.97
15.45
14.47
12.86
10.53
7.47
3.9
0.13
-3.52
-6.86
-9.97
-13.2
-17.03
-21.82
-27.61
-33.93
-39.93
-44.56
-46.88
-46.28
-42.68
-36.47
-28.38
-19.28
-10.01
-1.27
6.41
12.69
17.45
20.76
22.89
24.22
25.1
25.82
26.51
27.17
27.71
28.05
28.11
27.87
27.36
26.63
25.78
24.9
24.06
23.24
22.25
20.82
18.68
15.7
11.97
7.8
3.6
-0.33
-3.91
-7.36
-11.17
-15.83
-21.56
-28.09
-34.63
-40.02
-43.08
-43.04
-39.76
-33.7
-25.75
-16.85
-7.74
1.06
9.24
16.45
22.32
26.48
28.76
29.31
28.67
27.55
26.65
26.34
26.55
26.94
27.04
26.58
25.61
24.45
23.45
22.8
22.37
21.81
20.73
18.88
16.33
13.32
10.17
7.1
4.12
1.12
-2.08
-5.59
-9.46
-13.75
-18.48
-23.69
-29.23
-34.68
-39.28
-42.02
-42.01
-38.77
-32.51
-24.06
-14.64
-5.39
2.89
9.83
15.39
19.59
22.43
23.87
23.97
23.0
21.47
19.96
18.89
18.39
18.29
18.3
18.2
17.97
17.7
17.51
17.35
16.97
16.03
14.31
11.81
8.69
5.24
1.69
-1.83
-5.25
-8.61
-11.98
-15.55
-19.55
-24.19
-29.31
-34.35
-38.28
-39.92
-38.35
-33.33
-25.45
-15.89
-5.98
3.21
11.07
17.46
22.44
26.08
28.44
29.56
29.65
29.08
28.28
27.54
26.88
26.16
25.14
23.72
22.04
20.41
19.08
18.08
17.2
16.03
14.15
11.37
7.74
3.61
-0.61
-4.52
-7.94
-10.9
-13.65
-16.6
-20.15
-24.54
-29.74
-35.31
-40.48
-44.28
-45.72
-44.13
-39.33
-31.73
-22.24
-12.03
-2.22
6.33
13.14
18.1
21.39
23.31
24.25
24.52
24.41
24.16
23.89
23.66
23.46
23.2
22.82
22.28
21.6
20.85
20.08
19.28
18.31
16.98
15.1
12.53
9.31
5.64
1.86
-1.68
-4.73
-7.31
-9.66
-12.24
-15.56
-19.99
-25.51
-31.65
-37.53
-41.97
-43.92
-42.69
-38.25
-31.19
-22.52
-13.31
-4.38
3.87
11.27
17.73
23.04
26.92
29.1
29.6
28.74
27.11
25.29
23.73
22.56
21.64
20.76
19.73
18.55
17.38
16.5
16.12
16.19
16.39
16.1
14.77
12.14
8.46
4.39
0.68
-2.15
-4.04
-5.36
-6.67
-8.38
-10.7
-13.62
-17.06
-20.98
-25.27
-29.69
-33.61
-36.17
-36.49
-34.03
-28.87
-21.7
-13.62
-5.77
1.06
6.54
10.71
13.8
15.99
17.32
17.78
17.41
16.45
15.26
14.22
13.59
13.39
13.43
13.45
13.21
12.66
11.9
11.13
10.5
9.99
9.42
8.47
6.87
4.53
1.65
-1.38
-4.14
-6.41
-8.33
-10.24
-12.66
-15.96
-20.19
-24.96
-29.51
-32.89
-34.21
-32.98
-29.22
-23.47
-16.58
-9.41
-2.61
3.46
8.64
12.85
15.94
17.79
18.42
18.05
17.07
15.92
14.9
14.08
13.38
12.65
11.85
11.01
10.24
9.62
9.14
8.69
8.09
7.16
5.8
3.91
1.49
-1.34
-4.38
-7.33
-9.95
-12.13
-14.03
-16.0
-18.51
-21.94
-26.28
-31.11
-35.57
-38.62
-39.34
-37.21
-32.34
-25.34
-17.17
-8.86
-1.23
5.19
10.17
13.74
16.09
17.43
18.01
18.04
17.7
17.12
16.4
15.65
14.97
14.46
14.15
13.97
13.7
13.17
12.32
11.24
10.21
9.46
8.94
8.31
7.11
4.99
1.98
-1.48
-4.77
-7.38
-9.2
-10.5
-11.84
-13.74
-16.6
-20.53
-25.34
-30.5
-35.18
-38.4
-39.2
-37.01
-31.83
-24.31
-15.56
-6.75
1.12
7.54
12.39
15.92
18.46
20.27
21.45
21.97
21.81
21.02
19.8
18.45
17.26
16.37
15.76
15.32
14.9
14.41
13.84
13.2
12.52
11.71
10.67
9.26
7.43
5.17
2.63
0.02
-2.4
-4.44
-6.13
-7.66
-9.33
-11.35
-13.77
-16.5
-19.41
-22.51
-25.84
-29.43
-33.02
-36.02
-37.57
-36.85
-33.44
-27.57
-20.04
-11.94
-4.23
2.48
7.97
12.26
15.39
17.33
18.03
17.58
16.31
14.7
13.31
12.55
12.55
13.16
14.04
14.81
15.15
14.95
14.26
13.3
12.31
11.44
10.68
9.84
8.63
6.81
4.32
1.32
-1.86
-4.8
-7.24
-9.07
-10.48
-11.82
-13.52
-15.96
-19.28
-23.36
-27.73
-31.69
-34.43
-35.28
-33.81
-30.06
-24.43
-17.6
-10.31
-3.2
3.22
8.62
12.75
15.44
16.71
16.68
15.71
14.23
12.66
11.36
10.56
10.38
10.78
11.59
12.48
13.05
12.99
12.24
10.97
9.56
8.36
7.45
6.62
5.44
3.47
0.55
-3.13
-7.05
-10.59
-13.33
-15.23
-16.59
-18.02
-20.09
-23.14
-27.12
-31.57
-35.74
-38.68
-39.6
-37.92
-33.52
-26.73
-18.33
-9.32
-0.74
6.59
12.21
16.0
18.09
18.77
18.39
17.32
15.95
14.66
13.7
13.2
13.08
13.16
13.2
13.0
12.57
11.99
11.38
10.82
10.25
9.51
8.45
7.01
5.2
3.15
0.97
-1.3
-3.65
-6.11
-8.67
-11.26
-13.82
-16.37
-19.08
-22.17
-25.83
-30.09
-34.64
-38.96
-42.38
-44.26
-44.11
-41.66
-36.89
-30.06
-21.73
-12.73
-4.01
3.63
9.65
13.95
16.77
18.5
19.51
20.05
20.18
19.94
19.36
18.55
17.73
17.13
16.96
17.27
17.97
18.76
19.3
19.31
18.67
17.45
15.84
14.05
12.13
10.05
7.72
5.08
2.16
-0.93
-3.98
-6.81
-9.23
-11.23
-12.96
-14.83
-17.27
-20.63
-24.96
-29.85
-34.57
-38.21
-39.95
-39.26
-36.0
-30.47
-23.3
-15.3
-7.3
0.02
6.25
11.19
14.82
17.23
18.5
18.77
18.26
17.31
16.29
15.55
15.28
15.45
15.93
16.47
16.86
16.98
16.88
16.65
16.44
16.3
16.12
15.63
14.53
12.62
9.92
6.75
3.53
0.64
-1.83
-4.05
-6.28
-8.79
-11.67
-14.84
-18.19
-21.69
-25.36
-29.12
-32.65
-35.31
-36.34
-35.13
-31.43
-25.48
-17.97
-9.76
-1.79
5.16
10.53
14.05
15.73
15.84
14.84
13.28
11.72
10.57
10.05
10.18
10.74
11.42
11.93
12.11
12.0
11.79
11.71
11.81
11.93
11.7
10.78
8.99
6.42
3.38
0.26
-2.66
-5.23
-7.49
-9.59
-11.74
-14.19
-17.21
-20.98
-25.42
-30.03
-33.88
-35.84
-35.04
-31.2
-24.81
-16.98
-8.91
-1.55
4.62
9.59
13.46
16.34
18.16
18.85
18.41
17.04
15.13
13.17
11.58
10.57
10.12
10.01
9.92
9.67
9.21
8.68
8.17
7.65
6.85
5.44
3.23
0.31
-2.98
-6.24
-9.14
-11.63
-13.82
-15.95
-18.29
-21.11
-24.67
-29.1
-34.2
-39.35
-43.55
-45.68
-44.89
-41.0
-34.54
-26.48
-17.94
-9.7
-2.15
4.65
10.68
15.81
19.72
22.14
22.96
22.46
21.25
19.98
19.19
19.04
19.33
19.66
19.69
19.23
18.38
17.38
16.42
15.59
14.74
13.64
11.99
9.66
6.68
3.33
-0.0
-2.95
-5.4
-7.48
-9.56
-12.08
-15.35
-19.48
-24.39
-29.78
-35.24
-40.12
-43.63
-44.93
-43.37
-38.81
-31.64
-22.84
-13.51
-4.65
3.14
9.64
14.89
19.04
22.17
24.3
25.49
25.87
25.67
25.21
24.78
24.59
24.71
25.01
25.26
25.21
24.68
23.67
22.35
20.89
19.44
18.02
16.46
14.62
12.38
9.83
7.15
4.57
2.19
-0.13
-2.66
-5.69
-9.4
-13.78
-18.66
-23.77
-28.84
-33.58
-37.63
-40.51
-41.65
-40.55
-37.0
-31.17
-23.66
-15.36
-7.11
0.47
7.07
12.62
17.16
20.66
23.04
24.3
24.55
24.11
23.4
22.81
22.55
22.57
22.67
22.57
22.11
21.27
20.22
19.19
18.33
17.61
16.79
15.44
13.24
10.09
6.29
2.39
-1.02
-3.66
-5.62
-7.39
-9.5
-12.33
-15.92
-20.06
-24.42
-28.75
-32.85
-36.41
-38.9
-39.55
-37.63
-32.76
-25.25
-16.05
-6.45
2.32
9.49
14.86
18.64
21.19
22.78
23.55
23.6
23.11
22.4
21.81
21.6
21.78
22.14
22.34
22.16
21.55
20.64
19.58
18.42
17.04
15.23
12.91
10.17
7.26
4.41
1.7
-1.02
-3.97
-7.28
-10.92
-14.77
-18.76
-23.02
-27.75
-32.96
-38.26
-42.7
-45.12
-44.52
-40.54
-33.6
-24.8
-15.46
-6.72
0.8
6.94
11.91
15.9
18.98
21.08
22.11
22.22
21.78
21.35
21.42
22.18
23.43
24.74
25.64
25.9
25.55
24.8
23.85
22.73
21.34
19.49
17.08
14.11
10.72
7.1
3.39
-0.32
-4.01
-7.65
-11.22
-14.76
-18.31
-22.07
-26.29
-31.16
-36.63
-42.22
-47.04
-49.93
-49.94
-46.61
-40.2
-31.62
-22.09
-12.73
-4.23
3.18
9.61
15.24
20.09
24.03
26.82
28.35
28.74
28.36
27.74
27.33
27.35
27.76
28.31
28.68
28.72
28.42
27.94
27.4
26.79
25.92
24.56
22.47
19.62
16.16
12.4
8.69
5.26
2.2
-0.59
-3.32
-6.22
-9.44
-13.1
-17.27
-22.02
-27.35
-33.06
-38.57
-42.98
-45.26
-44.64
-40.91
-34.56
-26.57
-18.0
-9.6
-1.67
5.74
12.57
18.48
22.98
25.7
26.6
26.14
25.02
23.99
23.55
23.83
24.66
25.72
26.63
27.15
27.16
26.67
25.8
24.65
23.25
21.58
19.56
17.19
14.59
11.98
9.54
7.26
4.98
2.4
-0.74
-4.5
-8.7
-13.03
-17.18
-21.09
-24.82
-28.53
-32.21
-35.47
-37.61
-37.81
-35.51
-30.6
-23.63
-15.5
-7.19
0.62
7.61
13.75
19.03
23.36
26.47
28.13
28.31
27.3
25.63
23.9
22.56
21.76
21.4
21.3
21.25
21.18
21.1
21.02
20.97
20.86
20.52
19.66
18.02
15.41
11.87
7.7
3.32
-0.79
-4.36
-7.32
-9.85
-12.14
-14.4
-16.77
-19.41
-22.54
-26.37
-30.91
-35.83
-40.29
-43.24
-43.68
-41.08
-35.52
-27.68
-18.53
-9.04
0.01
8.11
14.95
20.37
24.3
26.82
28.05
28.22
27.61
26.49
25.21
24.02
23.12
22.49
22.01
21.43
20.61
19.57
18.44
17.42
16.58
15.83
14.94
13.7
12.06
10.12
8.02
5.85
3.57
1.02
-1.9
-5.15
-8.53
-11.78
-14.73
-17.44
-20.21
-23.46
-27.51
-32.35
-37.55
-42.23
-45.36
-46.01
-43.7
-38.52
-31.12
-22.47
-13.58
-5.22
2.15
8.37
13.44
17.43
20.41
22.47
23.8
24.56
24.97
25.15
25.22
25.21
25.17
25.12
25.08
25.06
25.0
24.86
24.56
24.0
23.12
21.93
20.46
18.78
16.89
14.71
12.16
9.19
5.91
2.59
-0.43
-2.99
-5.16
-7.22
-9.5
-12.23
-15.46
-19.13
-23.21
-27.69
-32.47
-37.21
-41.18
-43.46
-43.17
-39.9
-33.88
-25.94
-17.23
-8.79
-1.29
5.04
10.31
14.66
18.15
20.66
22.08
22.42
21.9
20.94
19.94
19.2
18.76
18.49
18.23
17.84
17.32
16.75
16.19
15.65
15.05
14.22
13.05
11.44
9.41
7.02
4.35
1.43
-1.71
-4.99
-8.39
-11.81
-15.25
-18.7
-22.27
-26.07
-30.16
-34.56
-39.09
-43.42
-46.98
-49.01
-48.78
-45.78
-40.01
-32.01
-22.75
-13.32
-4.68
2.55
8.13
12.05
14.47
15.61
15.77
15.27
14.46
13.59
12.9
12.53
12.55
12.92
13.4
13.67
13.35
12.2
10.23
7.64
4.65
1.4
-2.06
-5.74
-9.53
-13.21
-16.47
-19.11
-21.12
-22.63
-23.97
-25.43
-27.27
-29.67
-32.65
-36.02
-39.35
-41.95
-42.98
-41.81
-38.13
-32.15
-24.55
-16.23
-8.0
-0.43
6.22
11.87
16.48
19.97
22.21
23.15
22.92
21.87
20.45
19.14
18.23
17.81
17.76
17.84
17.8
17.47
16.81
15.86
14.73
13.49
12.15
10.61
8.74
6.48
3.85
0.95
-2.03
-5.0
-7.9
-10.79
-13.83
-17.17
-21.0
-25.37
-30.19
-35.15
-39.69
-43.09
-44.63
-43.8
-40.42
-34.8
-27.52
-19.35
-10.98
-2.99
4.23
10.41
15.38
19.09
21.54
22.92
23.43
23.36
22.9
22.24
21.52
20.84
20.34
20.08
20.0
19.96
19.77
19.32
18.64
17.87
17.17
16.57
15.87
14.72
12.77
9.83
6.04
1.78
-2.43
-6.19
-9.34
-11.98
-14.44
-17.11
-20.41
-24.58
-29.64
-35.24
-40.64
-44.88
-46.91
-46.04
-42.09
-35.56
-27.43
-18.86
-10.82
-3.78
2.24
7.5
12.2
16.27
19.43
21.38
22.06
21.73
20.9
20.02
19.33
18.79
18.22
17.53
16.78
16.14
15.79
15.76
15.86
15.8
15.23
13.87
11.58
8.44
4.76
0.99
-2.41
-5.22
-7.51
-9.63
-12.08
-15.2
-19.14
-23.77
-28.8
-33.85
-38.42
-41.85
-43.39
-42.37
-38.44
-31.85
-23.35
-13.98
-4.79
3.48
10.44
15.98
20.06
22.74
24.09
24.36
23.93
23.24
22.62
22.11
21.61
20.86
19.71
18.1
16.15
14.09
12.16
10.59
9.48
8.72
8.03
7.0
5.27
2.7
-0.53
-4.02
-7.3
-10.09
-12.46
-14.76
-17.54
-21.21
-25.96
-31.59
-37.52
-42.8
-46.36
-47.13
-44.48
-38.46
-29.8
-19.8
-9.86
-1.06
6.12
11.78
16.29
20.03
23.03
25.16
26.25
26.31
25.6
24.52
23.41
22.46
21.65
20.79
19.74
18.42
16.93
15.51
14.36
13.55
12.91
12.06
10.56
8.22
5.14
1.8
-1.26
-3.71
-5.67
-7.63
-10.2
-13.82
-18.57
-24.22
-30.38
-36.59
-42.35
-47.03
-49.86
-50.02
-47.06
-41.0
-32.55
-22.84
-13.05
-4.08
3.69
10.25
15.79
20.4
24.05
26.61
28.04
28.46
28.18
27.65
27.22
27.13
27.42
27.98
28.59
29.06
29.22
28.99
28.4
27.53
26.42
25.02
23.18
20.76
17.67
14.04
10.15
6.39
3.06
0.22
-2.26
-4.76
-7.71
-11.45
-16.17
-21.8
-28.04
-34.34
-39.93
-43.96
-45.67
-44.61
-40.8
-34.68
-26.95
-18.36
-9.53
-0.94
7.02
13.99
19.67
23.83
26.37
27.43
27.25
26.23
24.75
23.22
21.92
21.0
20.44
20.03
19.58
18.98
18.33
17.83
17.67
17.79
17.87
17.39
15.89
13.21
9.54
5.4
1.35
-2.11
-4.84
-6.94
-8.79
-10.88
-13.62
-17.33
-22.05
-27.52
-33.14
-38.04
-41.27
-42.04
-39.93
-35.06
-27.98
-19.51
-10.55
-1.79
6.25
13.25
19.02
23.41
26.4
28.05
28.6
28.37
27.73
27.01
26.36
25.84
25.31
24.63
23.74
22.64
21.51
20.52
19.81
19.28
18.72
17.76
16.08
13.54
10.17
6.23
2.05
-2.06
-5.92
-9.49
-12.99
-16.71
-21.03
-26.22
-32.28
-38.83
-45.08
-49.99
-52.5
-51.89
-48.05
-41.42
-32.95
-23.66
-14.45
-5.89
1.81
8.56
14.33
18.99
22.46
24.62
25.61
25.7
25.31
24.86
24.6
24.55
24.49
24.2
23.45
22.31
20.98
19.76
18.87
18.27
17.76
16.92
15.41
13.02
9.84
6.19
2.46
-0.95
-3.93
-6.59
-9.28
-12.41
-16.32
-21.15
-26.85
-33.15
-39.51
-45.22
-49.37
-51.12
-49.88
-45.54
-38.49
-29.57
-19.79
-10.03
-0.96
7.09
13.96
19.57
23.9
26.95
28.86
29.91
30.44
30.74
30.94
30.98
30.73
30.12
29.26
28.39
27.74
27.37
27.16
26.82
26.07
24.78
23.02
20.94
18.64
16.16
13.45
10.47
7.21
3.77
0.23
-3.29
-6.74
-10.13
-13.53
-17.14
-21.25
-26.15
-31.79
-37.78
-43.22
-46.98
-48.1
-46.14
-41.32
-34.27
-25.88
-16.88
-7.87
0.67
8.25
14.42
18.85
21.46
22.54
22.58
22.14
21.61
21.18
20.87
20.62
20.36
20.04
19.67
19.3
18.99
18.8
18.69
18.53
18.02
16.92
15.05
12.43
9.28
5.91
2.62
-0.45
-3.29
-6.02
-8.76
-11.6
-14.59
-17.78
-21.23
-24.99
-28.98
-32.86
-36.0
-37.57
-36.89
-33.59
-27.87
-20.4
-12.1
-3.9
3.53
9.88
15.02
18.9
21.45
22.57
22.3
20.93
19.04
17.31
16.27
16.07
16.45
16.93
17.09
16.73
15.96
15.02
14.06
13.07
11.84
10.17
7.9
5.06
1.79
-1.74
-5.33
-8.85
-12.19
-15.37
-18.47
-21.73
-25.45
-29.84
-34.91
-40.3
-45.32
-49.08
-50.69
-49.52
-45.41
-38.73
-30.26
-21.01
-11.93
-3.74
3.19
8.77
13.11
16.36
18.66
20.11
20.8
20.94
20.75
20.5
20.4
20.51
20.82
21.23
21.67
22.01
22.17
21.97
21.27
19.98
18.08
15.69
12.93
9.93
6.71
3.27
-0.38
-4.12
-7.73
-11.05
-13.99
-16.77
-19.77
-23.43
-28.01
-33.33
-38.79
-43.49
-46.44
-46.96
-44.8
-40.2
-33.73
-26.05
-17.82
-9.56
-1.7
5.38
11.44
16.35
20.14
22.91
24.77
25.83
26.16
25.94
25.43
24.98
24.87
25.22
25.89
26.56
26.92
26.71
25.91
24.68
23.26
21.83
20.47
19.11
17.5
15.43
12.7
9.34
5.49
1.43
-2.62
-6.57
-10.5
-14.6
-19.03
-23.89
-29.18
-34.75
-40.33
-45.39
-49.25
-51.12
-50.32
-46.56
-40.11
-31.68
-22.25
-12.8
-3.99
3.72
10.15
15.14
18.62
20.61
21.24
20.93
20.15
19.51
19.35
19.83
20.77
21.78
22.46
22.56
22.06
21.13
20.03
18.85
17.51
15.8
13.45
10.35
6.57
2.4
-1.89
-5.95
-9.57
-12.64
-15.18
-17.42
-19.68
-22.34
-25.68
-29.73
-34.19
-38.41
-41.53
-42.7
-41.38
-37.45
-31.37
-23.86
-15.85
-8.04
-0.88
5.41
10.74
14.9
17.67
18.9
18.67
17.41
15.75
14.32
13.51
13.38
13.67
14.05
14.25
14.16
13.86
13.43
12.93
12.24
11.18
9.57
7.33
4.54
1.36
-1.96
-5.29
-8.56
-11.84
-15.31
-19.17
-23.64
-28.74
-34.29
-39.78
-44.47
-47.53
-48.28
-46.36
-41.85
-35.24
-27.19
-18.42
-9.55
-1.1
6.59
13.21
18.53
22.39
24.77
25.74
25.49
24.35
22.69
20.96
19.57
18.83
18.84
19.4
20.13
20.55
20.33
19.43
18.04
16.46
14.86
13.19
11.18
8.62
5.44
1.84
-1.79
-5.12
-8.03
-10.72
-13.61
-17.21
-21.91
-27.78
-34.52
-41.43
-47.61
-52.07
-54.08
-53.18
-49.39
-43.08
-34.88
-25.59
-16.0
-6.8
1.46
8.45
14.1
18.57
22.13
25.04
27.43
29.26
30.42
30.87
30.75
30.35
30.02
29.93
30.07
30.21
30.07
29.54
28.72
27.83
27.07
26.36
25.38
23.66
20.85
16.91
12.16
7.09
2.18
-2.3
-6.33
-10.06
-13.74
-17.65
-22.03
-27.07
-32.77
-38.84
-44.66
-49.29
-51.76
-51.31
-47.65
-41.04
-32.2
-22.13
-11.84
-2.19
6.26
13.17
18.48
22.26
24.79
26.35
27.25
27.73
27.91
27.88
27.74
27.58
27.51
27.61
27.87
28.2
28.44
28.44
28.12
27.48
26.52
25.19
23.31
20.71
17.33
13.33
9.02
4.82
1.05
-2.26
-5.36
-8.7
-12.7
-17.6
-23.29
-29.34
-35.15
-39.99
-43.24
-44.41
-43.18
-39.46
-33.46
-25.67
-16.82
-7.75
0.76
8.08
13.9
18.08
20.72
22.0
22.23
21.82
21.16
20.62
20.38
20.48
20.76
21.02
21.15
21.17
21.16
21.19
21.17
20.85
19.96
18.25
15.69
12.44
8.79
5.08
1.51
-1.84
-5.06
-8.35
-11.96
-16.13
-20.99
-26.48
-32.32
-37.92
-42.54
-45.4
-45.9
-43.77
-39.14
-32.48
-24.49
-15.9
-7.34
0.72
7.96
14.13
19.04
22.58
24.79
25.88
26.2
26.18
26.04
25.87
25.53
24.88
23.91
22.78
21.78
21.18
21.09
21.37
21.68
21.62
20.78
18.95
16.08
12.36
8.06
3.51
-1.05
-5.49
-9.75
-13.81
-17.71
-21.54
-25.58
-30.23
-35.75
-42.04
-48.41
-53.62
-56.32
-55.57
-51.21
-43.94
-35.01
-25.65
-16.68
-8.38
-0.6
6.8
13.76
19.91
24.78
28.0
29.61
29.96
29.67
29.33
29.32
29.67
30.22
30.72
31.02
31.13
31.15
31.1
30.87
30.27
29.12
27.44
25.33
22.94
20.25
17.16
13.51
9.33
4.9
0.6
-3.25
-6.66
-10.0
-13.87
-18.74
-24.77
-31.67
-38.78
-45.25
-50.22
-52.93
-52.82
-49.65
-43.56
-35.14
-25.28
-15.02
-5.19
3.64
11.26
17.65
22.84
26.76
29.32
30.5
30.46
29.57
28.34
27.24
26.59
26.43
26.62
26.88
26.97
26.74
26.18
25.31
24.17
22.74
20.95
18.71
16.0
12.87
9.52
6.09
2.75
-0.52
-3.83
-7.42
-11.49
-16.18
-21.45
-27.07
-32.6
-37.5
-41.14
-42.97
-42.56
-39.79
-34.81
-28.07
-20.23
-12.02
-4.13
2.9
8.7
13.05
15.89
17.39
17.8
17.56
17.04
16.54
16.19
16.0
15.92
15.89
15.92
15.99
16.08
16.06
15.78
15.06
13.77
11.81
9.21
6.11
2.7
-0.73
-4.01
-7.1
-10.18
-13.55
-17.55
-22.37
-28.0
-34.12
-40.09
-45.05
-48.07
-48.36
-45.56
-39.86
-31.93
-22.81
-13.59
-5.12
2.11
7.92
12.43
15.88
18.51
20.51
21.97
22.92
23.36
23.28
22.71
21.78
20.66
19.57
18.66
18.02
17.56
17.13
16.51
15.52
14.04
12.02
9.43
6.29
2.63
-1.4
-5.57
-9.6
-13.34
-16.88
-20.63
-25.12
-30.68
-37.16
-43.78
-49.31
-52.49
-52.48
-49.15
-43.02
-35.02
-26.06
-16.83
-7.72
1.05
9.27
16.64
22.8
27.45
30.41
31.77
31.81
30.95
29.65
28.27
27.02
25.95
24.98
23.97
22.91
21.87
20.95
20.2
19.42
18.34
16.64
14.22
11.2
7.88
4.53
1.26
-1.98
-5.36
-8.96
-12.79
-16.87
-21.25
-26.15
-31.67
-37.67
