2013-03-08 12:03:30
64.0
-0.0
-0.0
-0.0
-0.0
-0.0
-0.0
-0.0
-0.0
-0.0
-0.0
0.0
0.01
0.01
-0.0
-0.03
-0.05
-0.05
0.0
0.13
0.36
0.66
1.01
1.37
1.72
2.06
2.4
2.79
3.24
3.8
4.42
5.06
5.66
6.2
6.68
7.15
7.68
8.31
9.14
10.09
11.04
11.88
12.56
13.14
13.76
14.65
15.96
17.91
20.32
22.9
25.38
27.58
29.57
31.68
34.32
37.81
42.54
48.15
54.1
59.83
64.97
69.58
74.14
79.34
85.71
93.76
103.0
112.62
121.73
129.77
136.75
143.3
150.75
157.77
166.64
177.95
191.79
206.97
220.57
228.25
225.36
208.53
176.87
132.76
80.05
23.07
-34.95
-92.44
-149.16
-205.22
-260.34
-313.7
-363.84
-409.83
-450.99
-486.69
-516.05
-537.65
-549.7
-550.46
-538.86
-514.68
-479.16
-434.43
-383.1
-327.79
-270.72
-213.56
-157.59
-103.85
-53.27
-6.88
34.42
70.0
99.64
123.57
142.37
156.73
167.29
174.52
178.69
180.02
178.78
175.42
170.51
164.61
158.15
151.31
144.03
136.15
127.59
118.48
109.19
100.2
91.92
84.45
77.59
70.85
63.73
56.0
47.81
39.65
32.15
25.75
20.56
16.27
12.38
8.37
3.79
-1.69
-8.25
-15.62
-22.8
-27.91
-28.65
-23.25
-11.46
5.01
22.9
38.56
49.3
54.19
54.03
50.62
45.85
41.05
36.93
33.83
31.95
31.47
32.37
34.26
36.35
37.66
37.19
34.41
29.5
23.48
17.9
14.14
12.79
13.28
14.21
14.12
12.24
8.87
5.06
1.92
-0.08
-1.25
-2.35
-4.06
-6.46
-9.06
-11.14
-12.22
-12.28
-11.7
-10.97
-10.37
-10.01
-9.8
-9.62
-9.38
-8.93
-8.05
-6.53
-4.36
-1.92
0.08
0.88
0.12
-1.92
-4.38
-6.26
-6.95
-6.39
-5.03
-3.37
-1.68
0.01
1.65
3.06
3.91
4.07
3.8
3.76
4.65
6.7
9.53
12.25
13.98
14.28
13.35
11.88
10.58
9.89
9.84
10.23
10.75
11.24
11.62
11.84
11.77
11.25
10.12
8.14
5.26
1.63
-2.44
-6.54
-10.22
-13.14
-15.15
-16.26
-16.68
-16.68
-16.52
-16.33
-16.07
-15.53
-14.44
-12.63
-10.1
-7.13
-4.19
-1.81
-0.44
-0.21
-0.92
-2.1
-3.24
-3.94
-4.07
-3.77
-3.31
-2.98
-2.9
-3.01
-3.09
-2.92
-2.37
-1.4
0.02
1.99
4.58
7.56
10.38
12.13
12.01
9.78
5.98
1.81
-1.56
-3.62
-4.76
-5.91
-7.85
-10.51
-13.0
-14.02
-12.63
-8.77
-3.23
2.85
8.69
14.05
19.25
24.67
30.03
34.55
37.24
37.3
34.56
29.54
23.3
17.11
12.06
8.82
7.5
7.58
8.06
7.61
5.06
-0.22
-7.97
-17.03
-25.8
-32.74
-37.0
-38.58
-38.11
-36.38
-33.94
-31.01
-27.67
-24.21
-21.22
-19.44
-19.45
-21.34
-24.52
-27.93
-30.39
-30.97
-29.36
-25.82
-21.12
-16.14
-11.61
-7.91
-5.03
-2.75
-0.86
0.73
1.98
2.81
3.19
3.24
3.12
2.96
2.84
2.7
2.47
2.15
1.85
1.72
1.94
2.58
3.58
4.75
5.81
6.53
6.77
6.53
5.95
5.21
4.48
3.8
3.1
2.26
1.22
0.08
-0.85
-1.15
-0.41
1.56
4.64
8.48
12.59
16.51
19.93
22.65
24.52
25.41
25.23
23.96
21.7
18.68
15.21
11.62
8.23
5.31
3.07
1.66
1.1
1.22
1.73
2.24
2.42
2.1
1.33
0.27
-0.86
-1.92
-2.89
-3.88
-5.03
-6.45
-8.19
-10.27
-12.67
-15.31
-17.96
-20.26
-21.7
-21.85
-20.52
-17.82
-14.18
-10.17
-6.3
-2.93
-0.2
1.82
3.14
3.77
3.74
3.21
2.39
1.54
0.87
0.5
0.46
0.68
1.07
1.5
1.89
2.19
2.35
2.37
2.24
1.97
1.57
1.04
0.27
-0.87
-2.52
-4.7
-7.27
-9.91
-12.21
-13.76
-14.31
-13.76
-12.14
-9.56
-6.16
-2.14
2.18
6.35
9.87
12.36
13.69
14.01
13.71
13.19
12.74
12.44
12.23
11.99
11.64
11.19
10.68
10.1
9.45
8.71
7.92
7.15
6.51
6.0
5.47
4.66
3.27
1.17
-1.62
-4.85
-8.27
-11.65
-14.86
-17.79
-20.26
-22.02
-22.8
-22.44
-20.96
-18.63
-15.84
-12.94
-10.14
-7.51
-5.04
-2.79
-0.9
0.43
1.03
0.85
0.04
-1.11
-2.31
-3.38
-4.35
-5.4
-6.69
-8.24
-9.86
-11.29
-12.31
-12.98
-13.54
-14.28
-15.36
-16.65
-17.87
-18.75
-19.2
-19.42
-19.67
-20.09
-20.54
-20.57
-19.63
-17.26
-13.24
-7.7
-0.96
6.51
14.23
21.76
28.76
35.01
40.39
44.87
48.49
51.3
53.39
54.82
55.64
55.85
55.4
54.21
52.23
49.49
46.08
42.2
38.08
33.93
29.93
26.16
22.62
19.23
15.82
12.22
8.29
4.0
-0.54
-5.18
-9.69
-13.86
-17.47
-20.27
-22.01
-22.45
-21.5
-19.32
-16.3
-13.02
-10.02
-7.72
-6.24
-5.51
-5.36
-5.64
-6.31
-7.36
-8.72
-10.22
-11.59
-12.61
-13.2
-13.53
-13.84
-14.3
-14.94
-15.63
-16.17
-16.44
-16.44
-16.28
-16.09
-16.03
-16.18
-16.66
-17.5
-18.67
-19.96
-21.05
-21.61
-21.37
-20.25
-18.34
-15.82
-12.9
-9.77
-6.61
-3.58
-0.84
1.48
3.36
4.89
6.34
8.02
10.18
12.94
16.13
19.34
22.04
23.72
24.14
23.42
21.97
20.46
19.56
19.85
21.73
25.29
30.36
36.43
42.69
48.28
52.42
54.68
55.08
53.94
51.77
48.92
45.59
41.74
37.4
32.67
27.84
23.22
18.97
15.03
11.16
7.05
2.52
-2.42
-7.55
-12.55
-17.17
-21.25
-24.81
-27.98
-30.87
-33.52
-35.82
-37.61
-38.73
-39.1
-38.83
-38.17
-37.36
-36.6
-35.9
-35.17
-34.32
-33.33
-32.36
-31.62
-31.26
-31.29
-31.5
-31.57
-31.19
-30.16
-28.49
-26.34
-23.97
-21.65
-19.59
-17.84
-16.37
-15.08
-13.94
-12.96
-12.24
-11.82
-11.66
-11.6
-11.49
-11.25
-10.95
-10.71
-10.52
-10.14
-9.1
-6.87
-3.2
1.74
7.32
12.67
16.95
19.55
20.24
19.04
16.26
12.4
8.16
4.41
2.02
1.61
3.39
7.03
11.78
16.71
20.93
23.85
25.19
24.95
23.33
20.63
17.2
13.44
9.72
6.34
3.52
1.27
-0.49
-1.94
-3.29
-4.68
-6.16
-7.65
-9.03
-10.1
-10.79
-11.13
-11.33
-11.74
-12.77
-14.69
-17.48
-20.77
-23.89
-26.07
-26.69
-25.46
-22.5
-18.23
-13.24
-8.08
-3.13
1.4
5.52
9.33
12.89
16.15
18.89
20.79
21.56
21.13
19.71
17.8
15.94
14.51
13.64
13.15
12.77
12.28
11.58
10.69
9.65
8.49
7.17
5.66
3.94
2.04
0.01
-2.14
-4.4
-6.75
-9.05
-11.01
-12.23
-12.29
-10.92
-8.1
-4.08
0.66
5.58
10.19
14.14
17.24
19.42
20.69
21.13
20.83
19.98
18.85
17.68
16.67
15.87
15.16
14.32
13.12
11.45
9.34
6.99
4.58
2.26
0.06
-2.06
-4.16
-6.23
-8.19
-9.98
-11.6
-13.17
-14.85
-16.8
-19.03
-21.34
-23.39
-24.74
-24.97
-23.82
-21.2
-17.26
-12.36
-7.0
-1.71
3.11
7.19
10.45
12.99
14.95
16.44
17.52
18.15
18.17
17.36
15.52
12.64
8.96
4.97
1.32
-1.46
-3.13
-3.81
-3.89
-3.83
-3.99
-4.51
-5.34
-6.28
-7.14
-7.76
-8.12
-8.24
-8.24
-8.29
-8.58
-9.28
-10.45
-12.03
-13.79
-15.36
-16.27
-16.13
-14.63
-11.72
-7.56
-2.57
2.72
7.75
12.03
15.25
17.31
18.35
18.69
18.71
18.71
18.84
19.04
19.15
18.93
18.25
17.12
15.67
14.14
12.75
11.64
10.89
10.47
10.31
10.28
10.26
10.11
9.67
8.85
7.59
5.91
3.87
1.62
-0.75
-3.2
-5.76
-8.51
-11.38
-14.16
-16.44
-17.8
-17.93
-16.81
-14.67
-11.94
-9.02
-6.19
-3.62
-1.37
0.46
1.83
2.73
3.25
3.51
3.59
3.47
3.07
2.4
1.67
1.29
1.73
3.33
6.03
9.39
12.77
15.5
17.16
17.63
17.07
15.73
13.86
11.64
9.2
6.62
3.91
1.04
-2.01
-5.19
-8.3
-11.06
-13.17
-14.45
-14.85
-14.51
-13.59
-12.24
-10.56
-8.64
-6.57
-4.52
-2.63
-0.97
0.47
1.78
3.09
4.5
6.13
8.04
10.2
12.47
14.57
16.14
16.96
16.96
16.36
15.49
14.69
14.12
13.81
13.67
13.55
13.28
12.51
10.73
7.47
2.54
-3.6
-9.83
-14.7
-16.95
-16.14
-12.68
-7.66
-2.19
3.06
8.07
13.24
18.96
25.23
31.57
37.13
41.1
42.83
42.02
38.67
33.0
25.39
16.44
6.89
-2.46
-10.85
-17.65
-22.55
-25.48
-26.73
-26.8
-26.26
-25.61
-25.09
-24.66
-24.08
-23.13
-21.74
-20.22
-19.18
-19.47
-21.85
-26.76
-34.0
-42.66
-51.19
-57.84
-61.19
-60.59
-56.33
-49.5
-41.49
-33.56
-26.63
-21.15
-17.19
-14.57
-12.83
-11.39
-9.59
-6.92
-3.16
1.53
6.71
11.81
16.33
19.91
22.38
23.76
24.28
24.24
23.98
23.7
23.41
22.9
21.91
20.27
18.0
15.37
12.73
10.41
8.67
7.64
7.41
8.1
9.78
12.46
16.02
20.21
24.74
29.36
33.87
38.03
41.46
43.67
44.15
42.64
39.26
34.44
28.8
22.83
16.79
10.75
4.72
-1.2
-6.79
-11.83
-16.16
-19.75
-22.67
-25.04
-26.95
-28.42
-29.46
-30.03
-30.14
-29.84
-29.29
-28.7
-28.21
-27.85
-27.46
-26.79
-25.62
-23.95
-21.98
-20.01
-18.3
-16.88
-15.65
-14.4
-13.01
-11.46
-9.85
-8.28
-6.85
-5.6
-4.5
-3.53
-2.68
-1.92
-1.22
-0.56
0.08
0.69
1.26
1.79
2.28
2.72
3.11
3.46
3.8
4.17
4.54
4.79
4.75
4.31
3.53
2.66
2.02
1.81
1.93
2.01
1.55
0.16
-2.3
-5.64
-9.49
-13.46
-17.27
-20.75
-23.77
-26.26
-28.11
-29.34
-30.1
-30.67
-31.36
-32.4
-33.82
-35.45
-36.99
-38.04
-38.27
-37.44
-35.43
-32.34
-28.45
-24.13
-19.63
-14.9
-9.5
-2.76
5.85
16.3
27.89
39.45
49.84
58.38
65.07
70.37
74.76
78.38
80.96
82.01
81.18
78.53
74.49
69.68
64.63
59.52
54.25
48.55
42.28
35.55
28.73
22.23
16.26
10.75
5.32
-0.39
-6.5
-12.76
-18.7
-23.87
-28.08
-31.46
-34.38
-37.17
-39.97
-42.7
-45.11
-46.85
-47.59
-47.1
-45.33
-42.42
-38.74
-34.73
-30.83
-27.3
-24.14
-21.22
-18.28
-15.19
-11.94
-8.7
-5.73
-3.29
-1.63
-0.87
-0.96
-1.64
-2.36
-2.4
-1.17
1.54
5.25
8.91
11.2
11.16
8.62
4.29
-0.54
-4.67
-7.5
-9.21
-10.49
-12.03
-14.08
-16.31
-18.06
-18.74
-18.04
-16.05
-13.11
-9.52
-5.49
-1.11
3.53
8.18
12.48
16.0
18.39
19.57
19.68
19.07
18.1
17.03
15.93
14.76
13.38
11.68
9.61
7.11
4.15
0.67
-3.34
-7.83
-12.68
-17.71
-22.77
-27.73
-32.44
-36.66
-40.1
-42.42
-43.36
-42.79
-40.73
-37.35
-32.92
-27.84
-22.51
-17.38
-12.76
-8.8
-5.41
-2.38
0.49
3.25
5.81
7.98
9.7
11.0
12.02
12.88
13.64
14.19
14.42
14.23
13.65
12.76
11.76
10.74
9.74
8.69
7.44
5.84
3.77
1.16
-1.91
-5.25
-8.53
-11.32
-13.22
-13.89
-13.18
-11.15
-8.09
-4.35
-0.36
3.55
7.09
10.07
12.33
13.8
14.44
14.32
13.61
12.61
11.62
10.94
10.77
11.1
11.74
12.36
12.66
12.44
11.69
10.6
9.38
8.15
6.88
5.44
3.66
1.54
-0.84
-3.28
-5.64
-7.85
-9.81
-11.37
-12.2
-11.9
-10.14
-6.87
-2.36
2.85
8.14
12.95
16.98
20.1
22.35
23.84
24.69
25.0
24.85
24.32
23.45
22.31
20.97
19.52
18.04
16.54
14.98
13.31
11.45
9.35
7.03
4.59
2.14
-0.19
-2.26
-3.98
-5.28
-6.13
-6.6
-6.84
-7.05
-7.43
-7.96
-8.4
-8.32
-7.24
-4.98
-1.72
2.01
5.59
8.55
10.76
12.35
13.55
14.5
15.19
15.51
15.37
14.8
13.88
12.74
11.43
9.97
8.43
6.87
5.38
3.97
2.59
1.15
-0.34
-1.72
-2.77
-3.27
-3.19
-2.73
-2.27
-2.22
-2.88
-4.33
-6.37
-8.69
-10.84
-12.42
-13.05
-12.45
-10.48
-7.22
-2.96
1.78
6.39
10.28
13.01
14.47
14.76
14.25
13.31
12.24
11.17
10.08
8.9
7.57
6.11
4.6
3.1
1.63
0.15
-1.36
-2.82
-4.08
-5.02
-5.64
-6.13
-6.84
-8.12
-10.17
-12.93
-16.14
-19.32
-21.97
-23.64
-23.96
-22.79
-20.19
-16.43
-11.94
-7.18
-2.53
1.78
5.61
8.87
11.42
13.09
13.73
13.37
12.2
10.52
8.63
6.74
4.88
3.06
1.26
-0.46
-2.02
-3.37
-4.54
-5.64
-6.79
-8.02
-9.31
-10.56
-11.72
-12.77
-13.77
-14.8
-15.89
-16.98
-17.91
-18.41
-18.22
-17.08
-14.87
-11.6
-7.44
-2.71
2.21
6.95
11.21
14.81
17.63
19.6
20.58
20.41
19.0
16.47
13.23
9.94
7.27
5.66
5.1
5.16
5.28
4.98
4.08
2.7
1.09
-0.59
-2.27
-4.04
-5.96
-7.98
-9.96
-11.75
-13.27
-14.56
-15.66
-16.57
-17.15
-17.11
-16.17
-14.12
-10.97
-6.97
-2.55
1.76
5.54
8.5
10.51
11.61
11.97
11.8
11.32
10.73
10.1
9.41
8.55
7.42
6.0
4.42
2.89
1.62
0.71
0.15
-0.15
-0.32
-0.4
-0.48
-0.65
-1.09
-2.0
-3.53
-5.7
-8.37
-11.22
-13.86
-15.8
-16.64
-16.07
-14.05
-10.86
-6.98
-3.01
0.53
3.34
5.31
6.48
6.94
6.76
5.99
4.72
3.14
1.51
0.15
-0.68
-0.9
-0.6
-0.07
0.31
0.28
-0.23
-1.06
-1.95
-2.68
-3.22
-3.72
-4.36
-5.29
-6.48
-7.87
-9.35
-10.9
-12.47
-13.93
-14.96
-15.15
-14.12
-11.77
-8.32
-4.26
-0.16
3.54
6.58
8.92
10.61
11.7
12.23
12.23
11.77
10.92
9.75
8.36
6.87
5.5
4.43
3.77
3.49
3.39
3.18
2.69
1.92
1.05
0.33
-0.13
-0.42
-0.8
-1.56
-2.83
-4.56
-6.52
-8.37
-9.77
-10.36
-9.86
-8.12
-5.18
-1.31
3.0
7.26
11.1
14.41
17.29
19.86
22.1
23.83
24.76
24.74
23.79
22.15
20.2
18.25
16.51
14.99
13.59
12.11
10.39
8.38
6.15
3.89
1.87
0.27
-0.93
-1.85
-2.71
-3.65
-4.7
-5.83
-7.05
-8.45
-10.15
-12.16
-14.28
-16.13
-17.22
-17.22
-16.05
-13.85
-10.9
-7.47
-3.75
0.14
4.0
7.55
10.45
12.41
13.33
13.31
12.65
11.65
10.53
9.35
8.11
6.79
5.49
4.37
3.56
3.03
2.6
2.03
1.15
-0.08
-1.55
-3.09
-4.64
-6.2
-7.84
-9.62
-11.56
-13.62
-15.75
-17.88
-19.82
-21.25
-21.75
-20.97
-18.79
-15.44
-11.33
-6.94
-2.65
1.35
5.04
8.41
11.4
13.87
15.66
16.84
17.56
17.98
18.19
18.12
17.67
16.73
15.27
13.41
11.59
10.2
9.39
9.08
9.03
9.05
9.01
8.73
7.92
6.78
5.44
3.89
2.09
0.03
-2.1
-4.06
-5.81
-7.48
-8.4
-7.93
-5.64
-1.52
4.12
10.92
18.41
25.97
33.12
40.8
50.15
61.68
74.88
88.36
100.89
112.03
122.47
126.53
121.06
105.92
83.93
58.74
33.2
10.17
-7.38
-17.09
-18.61
-12.92
-2.95
7.82
17.61
25.27
30.98
35.15
37.77
38.19
36.63
33.62
30.07
26.95
24.95
24.51
25.19
26.5
27.55
27.8
26.24
21.96
14.45
3.88
-8.31
-20.45
-30.75
-37.79
-40.83
-41.21
-41.04
-42.27
-45.99
-51.75
-59.64
-69.78
-82.32
-97.36
-116.17
-139.05
-164.45
-189.15
-208.63
-220.98
-226.03
-224.65
-218.3
-210.28
-203.01
-197.22
-192.22
-186.0
-179.3
-173.33
-168.3
-150.79
-112.78
-55.44
10.48
64.65
104.69
131.92
148.48
157.62
161.54
160.26
153.82
142.88
129.27
116.52
106.01
98.5
94.35
93.11
92.07
88.46
80.84
69.82
58.39
48.27
40.51
35.52
32.94
31.12
28.66
25.11
21.14
18.32
16.85
16.36
16.33
16.37
15.92
14.71
12.83
10.64
8.71
6.97
5.19
3.28
1.29
-0.78
-2.9
-4.96
-6.72
-7.85
-8.22
-7.83
-6.8
-5.36
-3.75
-2.17
-0.79
0.33
1.18
1.74
2.02
2.04
1.91
1.81
1.93
2.44
3.36
4.58
5.85
6.87
7.44
7.4
6.8
5.76
4.49
3.23
2.21
1.63
1.58
2.02
2.72
3.28
3.31
2.53
0.96
-1.11
-3.2
-4.84
-5.77
-5.94
-5.49
-4.66
-3.68
-2.79
-2.15
-1.87
-1.99
-2.4
-2.94
-3.41
-3.69
-3.8
-3.82
-3.88
-4.08
-4.42
-4.91
-5.47
-6.08
-6.71
-7.31
-7.83
-8.24
-8.54
-8.75
-8.91
-9.02
-9.07
-9.07
-9.08
-9.2
-9.54
-10.13
-10.82
-11.34
-11.36
-10.74
-9.56
-8.17
-6.95
-6.18
-5.86
-5.72
-5.43
-4.74
-3.65
-2.39
-1.27
-0.58
-0.39
-0.65
-1.22
-1.95
-2.69
-3.34
-3.77
-3.87
-3.61
-3.01
-2.24
-1.58
-1.26
-1.43
-2.02
-2.77
-3.33
-3.4
-2.84
-1.76
-0.45
0.76
1.6
2.0
2.05
1.95
1.87
1.93
2.2
2.66
3.35
4.31
5.53
6.9
8.21
9.17
9.5
9.1
8.07
6.67
5.22
3.93
2.85
1.95
1.21
0.69
0.48
0.64
1.09
1.59
1.9
1.87
1.54
1.14
0.89
0.91
1.15
1.39
1.34
0.79
-0.23
-1.48
-2.5
-2.88
-2.45
-1.34
-0.04
0.89
1.01
0.19
-1.35
-3.2
-4.96
-6.4
-7.5
-8.41
-9.39
-10.7
-12.6
-15.2
-18.39
-21.82
-25.0
-27.41
-28.65
-28.53
-26.99
-24.07
-19.9
-14.69
-8.83
-2.86
2.7
7.46
11.25
14.13
16.22
17.6
18.27
18.17
17.37
16.03
14.38
12.64
10.95
9.47
8.31
7.65
7.59
8.1
8.97
9.89
10.61
11.13
11.62
12.38
13.63
15.34
17.23
18.92
20.03
20.46
20.32
19.91
19.56
19.44
19.49
19.5
19.22
18.49
17.3
15.7
13.7
11.26
8.29
4.8
1.03
-2.64
-5.89
-8.71
-11.5
-14.92
-19.52
-25.42
-32.13
-38.78
-44.44
-48.58
-51.22
-52.81
-53.99
-55.2
-56.56
-57.9
-58.91
-59.36
-59.21
-58.58
-57.58
-56.28
-54.61
-52.48
-49.83
-46.76
-43.53
-40.45
-37.74
-35.43
-33.28
-30.95
-28.2
-25.02
-21.69
-18.62
-16.16
-14.37
-13.01
-11.63
-9.82
-7.38
-4.33
-0.93
2.57
6.02
9.33
12.47
15.38
17.97
20.2
22.04
23.54
24.76
25.76
26.61
27.38
28.06
28.53
28.51
27.68
25.8
22.97
19.68
16.65
14.5
13.48
13.32
13.35
12.85
11.29
8.55
4.73
0.07
-5.16
-10.61
-15.69
-19.61
-21.58
-21.12
-18.4
-14.31
-10.17
-7.21
-6.22
-7.32
-10.12
-14.0
-18.32
-22.64
-26.6
-29.9
-32.2
-33.24
-32.88
-31.17
-28.38
-24.87
-21.08
-17.39
-14.04
-11.06
-8.29
-5.41
-2.05
2.06
6.96
12.46
18.19
23.72
28.69
32.86
36.09
38.35
39.66
40.13
39.92
39.25
38.32
37.24
36.03
34.65
32.98
30.97
28.61
25.98
23.25
20.55
18.03
15.7
13.43
10.97
7.97
4.19
-0.4
-5.55
-10.78
-15.57
-19.51
-22.48
-24.55
-25.9
-26.61
-26.64
-25.85
-24.12
-21.5
-18.23
-14.68
-11.23
-8.06
-5.17
-2.46
0.21
2.91
5.64
8.28
10.64
12.49
13.57
13.77
13.17
12.07
10.95
10.24
10.16
10.6
11.25
11.73
11.81
11.48
10.87
10.15
9.36
8.48
7.42
6.16
4.73
3.26
1.88
0.74
-0.1
-0.66
-1.03
-1.36
-1.8
-2.43
-3.17
-3.8
-3.98
-3.41
-2.02
0.0
2.25
4.22
5.53
6.02
5.81
5.23
4.65
4.34
4.37
4.65
5.0
5.3
5.51
5.7
5.99
6.52
7.37
8.58
10.05
11.47
12.32
11.97
9.92
6.05
0.81
-4.88
-9.87
-13.18
-14.33
-13.45
-11.09
-7.93
-4.48
-0.96
2.65
6.38
10.06
13.22
15.28
15.83
14.92
13.2
11.63
11.09
11.87
13.57
15.34
16.29
15.91
14.13
11.16
7.29
2.82
-1.67
-5.2
-6.5
-4.63
0.46
7.62
14.84
20.1
22.25
21.38
18.64
15.46
12.86
11.04
9.59
7.86
5.42
2.24
-1.39
-5.17
-8.89
-12.52
-16.16
-19.94
-23.9
-27.96
-31.95
-35.71
-39.1
-42.1
-44.78
-47.23
-49.58
-51.9
-54.22
-56.51
-58.66
-60.5
-61.71
-61.86
-60.34
-56.44
-49.61
-39.78
-27.48
-13.91
-0.56
11.13
20.25
26.53
30.3
32.23
33.08
33.5
33.92
34.52
35.23
35.81
35.93
35.36
34.1
32.35
30.39
28.45
26.52
24.51
22.28
19.88
17.47
15.26
13.39
11.8
10.33
8.79
7.08
5.23
3.32
1.39
-0.63
-2.88
-5.52
-8.55
-11.84
-15.13
-18.15
-20.74
-22.9
-24.71
-26.25
-27.46
-28.11
-27.87
-26.46
-23.82
-20.11
-15.68
-10.96
-6.33
-2.08
1.62
4.61
6.74
7.92
8.12
7.49
6.32
5.05
4.11
3.83
4.34
5.47
6.85
8.07
8.77
8.81
8.28
7.36
6.24
4.99
3.56
1.82
-0.38
-3.12
-6.33
-9.82
-13.34
-16.54
-19.04
-20.39
-20.14
-17.95
-13.76
-7.92
-1.11
5.8
12.02
17.08
20.91
23.66
25.51
26.48
26.49
25.47
23.54
21.09
18.57
16.33
14.49
12.9
11.34
9.7
8.01
6.43
5.07
3.89
2.73
1.43
-0.09
-1.73
-3.32
-4.76
-6.08
-7.46
-9.1
-11.04
-13.08
-14.76
-15.52
-14.9
-12.67
-8.95
-4.15
1.17
6.46
11.25
15.27
18.44
20.88
22.81
24.46
25.96
27.29
28.28
28.75
28.57
27.74
26.41
24.8
23.15
21.63
20.34
19.26
18.35
17.51
16.62
15.57
14.27
12.65
10.7
8.42
5.83
2.95
-0.21
-3.63
-7.33
-11.29
-15.5
-19.87
-24.14
-27.87
-30.46
-31.27
-29.94
-26.49
-21.38
-15.41
-9.35
-3.83
0.89
4.78
7.95
10.44
12.24
13.3
13.68
13.57
13.28
13.12
13.33
14.02
15.09
16.3
17.32
17.82
17.6
16.63
15.06
13.14
11.1
9.14
7.39
5.89
4.58
3.26
1.63
-0.65
-3.82
-7.74
-11.94
-15.66
-18.09
-18.67
-17.22
-13.94
-9.28
-3.79
1.98
7.53
12.48
16.5
19.37
20.97
21.26
20.29
18.26
15.52
12.57
9.92
7.91
6.64
5.9
5.34
4.61
3.55
2.17
0.62
-0.97
-2.53
-4.08
-5.69
-7.37
-9.11
-10.84
-12.53
-14.22
-16.04
-18.12
-20.45
-22.8
-24.65
-25.36
-24.34
-21.32
-16.49
-10.41
-3.85
2.49
8.13
12.86
16.62
19.38
21.05
21.54
20.84
19.13
16.78
14.3
12.21
10.88
10.46
10.85
11.73
12.67
13.28
13.24
12.41
10.8
8.53
5.77
2.69
-0.62
-4.14
-7.96
-12.22
-17.03
-22.38
-28.03
-33.41
-37.74
-40.17
-40.01
-36.96
-31.17
-23.27
-14.11
-4.64
4.29
12.06
18.26
22.7
25.38
26.5
26.37
25.35
23.76
21.88
19.9
18.02
16.44
15.37
14.93
15.09
15.58
16.02
16.02
15.28
13.71
11.37
8.42
5.07
1.55
-1.94
-5.27
-8.37
-11.25
-13.99
-16.63
-19.21
-21.65
-23.73
-25.13
-25.41
-24.21
-21.37
-17.05
-11.69
-5.89
-0.22
4.94
9.43
13.24
16.39
18.88
20.69
21.82
22.31
22.22
21.57
20.41
18.74
16.64
14.21
11.55
8.74
5.83
2.88
-0.05
-2.8
-5.23
-7.24
-8.9
-10.4
-12.0
-13.94
-16.37
-19.32
-22.64
-26.04
-29.15
-31.52
-32.71
-32.35
-30.23
-26.36
-21.07
-14.88
-8.44
-2.3
3.16
7.76
11.41
14.07
15.65
16.14
15.62
14.34
12.73
11.24
10.2
9.74
9.79
10.16
10.62
11.0
11.2
11.16
10.89
10.36
9.6
8.62
7.46
6.22
5.01
3.92
2.93
1.95
0.82
-0.56
-2.12
-3.58
-4.49
-4.4
-2.96
-0.12
3.92
8.78
13.97
19.01
23.51
27.08
29.46
30.52
30.36
29.31
27.88
26.53
25.59
25.13
24.98
24.77
24.04
22.43
19.77
16.12
11.82
7.33
3.1
-0.61
-3.79
-6.64
-9.42
-12.27
-15.14
-17.8
-20.12
-22.16
-24.26
-26.86
-30.26
-34.36
-38.5
-41.6
-42.41
-39.96
-33.8
-24.29
-12.52
-0.15
10.87
18.78
22.57
22.25
19.08
15.17
12.74
13.3
17.02
22.8
28.82
33.35
35.54
35.56
34.26
32.66
31.5
31.09
31.47
32.53
34.04
35.53
36.28
35.41
32.28
26.77
19.41
11.16
3.07
-4.08
-9.93
-14.44
-17.81
-20.27
-22.11
-23.6
-24.92
-26.11
-26.94
-27.03
-26.01
-23.76
-20.51
-16.8
-13.18
-10.06
-7.49
-5.19
-2.71
0.4
4.34
8.99
13.91
18.45
21.94
23.89
24.12
22.74
20.14
16.83
13.28
9.82
6.62
3.72
1.1
-1.28
-3.46
-5.47
-7.35
-9.13
-10.84
-12.45
-13.91
-15.11
-15.92
-16.17
-15.69
-14.42
-12.47
-10.08
-7.66
-5.57
-4.04
-3.05
-2.43
-2.01
-1.7
-1.59
-1.86
-2.64
-3.92
-5.48
-7.04
-8.35
-9.28
-9.84
-10.15
-10.34
-10.61
-11.17
-12.23
-13.95
-16.35
-19.24
-22.32
-25.3
-28.04
-30.62
-33.21
-35.94
-38.73
-41.32
-43.34
-44.51
-44.67
-43.8
-41.97
-39.22
-35.64
-31.36
-26.64
-21.81
-17.17
-12.96
-9.26
-6.04
-3.22
-0.71
1.48
3.33
4.8
5.87
6.61
7.15
7.63
8.13
8.67
9.13
9.38
9.32
8.91
8.17
7.16
5.92
4.49
2.93
1.32
-0.23
-1.66
-3.03
-4.49
-6.2
-8.27
-10.66
-13.12
-15.24
-16.55
-16.6
-15.13
-12.18
-8.11
-3.59
0.61
3.89
5.93
6.75
6.66
6.04
5.23
4.47
3.92
3.62
3.57
3.68
3.83
3.87
3.67
3.12
2.18
0.88
-0.71
-2.46
-4.23
-5.89
-7.41
-8.88
-10.42
-12.12
-13.96
-15.75
-17.24
-18.18
-18.35
-17.57
-15.68
-12.52
-8.06
-2.43
4.02
10.72
17.05
22.46
26.67
29.72
31.91
33.6
35.07
36.32
37.1
37.05
35.85
33.37
29.73
25.28
20.39
15.43
10.66
6.29
2.51
-0.55
-2.81
-4.3
-5.18
-5.69
-6.08
-6.58
-7.33
-8.34
-9.5
-10.58
-11.23
-11.12
-10.01
-7.82
-4.66
-0.77
3.59
8.2
12.85
17.42
21.8
26.0
30.09
34.07
37.78
40.7
42.0
40.82
36.6
29.44
20.19
10.23
0.94
-6.65
-12.13
-15.64
-17.62
-18.54
-18.75
-18.51
-18.05
-17.66
-17.63
-18.13
-19.17
-20.53
-21.89
-23.01
-23.78
-24.34
-24.95
-25.87
-27.16
-28.56
-29.59
-29.6
-28.11
-24.97
-20.47
-15.2
-9.84
-4.89
-0.51
3.42
7.04
10.32
13.02
14.71
15.12
14.24
12.42
10.22
8.15
6.48
5.2
4.1
2.94
1.65
0.25
-1.16
-2.56
-4.03
-5.68
-7.63
-9.84
-12.22
-14.66
-17.11
-19.6
-22.06
-24.25
-25.74
-25.99
-24.58
-21.43
-16.87
-11.51
-6.05
-1.05
3.22
6.75
9.7
12.24
14.46
16.28
17.59
18.27
18.32
17.9
17.22
16.53
15.93
15.43
14.89
14.22
13.34
12.32
11.26
10.24
9.31
8.39
7.36
6.14
4.64
2.83
0.68
-1.84
-4.76
-8.02
-11.42
-14.58
-17.02
-18.22
-17.82
-15.71
-12.08
-7.38
-2.22
2.78
7.15
10.63
13.2
14.97
16.12
16.74
16.87
16.53
15.74
14.64
13.37
12.1
10.88
9.65
8.24
6.49
4.3
1.73
-1.0
-3.57
-5.67
-7.1
-7.89
-8.27
-8.59
-9.18
-10.28
-11.95
-14.13
-16.63
-19.11
-21.12
-22.05
-21.27
-18.3
-13.0
-5.65
3.09
12.35
21.26
29.03
35.17
39.4
41.76
42.53
42.13
40.97
39.38
37.52
35.43
33.15
30.72
28.21
25.65
22.95
19.97
16.65
13.07
9.49
6.12
2.95
-0.36
-4.35
-9.42
-15.55
-22.11
-28.12
-32.61
-35.06
-35.65
-35.1
-34.28
-33.77
-33.58
-33.27
-32.2
-29.97
-26.53
-22.23
-17.59
-13.05
-8.85
-5.04
-1.57
1.57
4.32
6.55
8.12
8.97
9.13
8.78
8.17
7.59
7.18
6.91
6.58
5.88
4.61
2.84
0.87
-0.89
-2.09
-2.66
-2.76
-2.78
-3.08
-3.91
-5.35
-7.37
-9.85
-12.73
-15.91
-19.22
-22.32
-24.63
-25.53
-24.51
-21.45
-16.66
-10.87
-4.88
0.65
5.5
9.72
13.56
17.13
20.32
22.86
24.53
25.24
25.09
24.27
22.94
21.12
18.78
15.93
12.74
9.52
6.68
4.57
3.31
2.72
2.34
1.56
-0.21
-3.28
-7.61
-12.8
-18.29
-23.5
-28.02
-31.6
-33.98
-34.87
-33.89
-30.73
-25.33
-18.08
-9.7
-1.03
7.22
14.64
21.01
26.17
29.8
31.5
30.98
28.35
24.21
19.54
15.3
12.15
10.2
9.12
8.36
7.41
5.94
3.83
1.14
-1.95
-5.18
-8.29
-11.05
-13.36
-15.3
-17.11
-19.11
-21.65
-24.93
-28.9
-33.15
-36.93
-39.31
-39.42
-36.71
-31.11
-23.12
-13.62
-3.64
5.87
14.2
20.96
26.02
29.41
31.21
31.52
30.45
28.2
25.13
21.7
18.31
15.26
12.6
10.21
7.88
5.41
2.71
-0.28
-3.49
-6.7
-9.56
-11.61
-12.55
-12.36
-11.39
-10.27
-9.6
-9.72
-10.63
-12.06
-13.62
-14.94
-15.67
-15.4
-13.63
-9.91
-4.04
3.67
12.42
21.06
28.48
33.95
37.26
38.76
39.08
38.88
38.61
38.42
38.15
37.5
36.11
33.74
30.29
25.84
20.72
15.53
11.05
8.03
6.83
7.19
8.16
8.37
6.59
2.27
-4.22
-11.76
-19.05
-25.2
-30.03
-33.89
-37.23
-40.13
-42.2
-42.73
-41.19
-37.52
-32.28
-26.39
-20.82
-16.25
-12.83
-10.35
-8.4
-6.7
-5.22
-4.19
-3.91
-4.52
-5.84
-7.4
-8.65
-9.15
-8.79
-7.77
-6.46
-5.21
-4.21
-3.42
-2.64
-1.63
-0.24
1.46
3.19
4.5
4.87
3.93
1.59
-1.86
-5.78
-9.37
-11.78
-12.38
-10.87
-7.45
-2.8
2.02
5.84
7.73
7.43
5.49
3.07
1.49
1.7
3.84
7.28
10.95
13.87
15.5
15.86
15.21
13.79
11.61
8.6
4.77
0.54
-3.4
-6.31
-7.76
-7.9
-7.4
-7.08
-7.63
-9.29
-11.87
-14.93
-18.09
-21.13
-23.98
-26.56
-28.64
-29.78
-29.47
-27.29
-23.13
-17.25
-10.25
-2.84
4.31
10.75
16.22
20.64
23.99
26.23
27.31
27.27
26.26
24.6
22.71
20.97
19.59
18.58
17.83
17.13
16.39
15.54
14.54
13.32
11.69
9.47
6.52
2.91
-1.21
-5.57
-9.99
-14.43
-18.86
-23.18
-26.98
-29.62
-30.3
-28.45
-23.89
-17.04
-8.73
0.05
8.5
16.14
22.82
28.56
33.32
37.02
39.43
40.43
40.06
38.57
36.36
33.91
31.61
29.73
28.37
27.46
26.83
26.24
25.42
24.17
22.33
19.85
16.72
13.01
8.79
4.14
-0.86
-6.2
-11.96
-18.2
-24.88
-31.69
-38.02
-42.99
-45.76
-45.76
-42.9
-37.62
-30.7
-23.01
-15.35
-8.32
-2.35
2.34
5.66
7.76
8.96
9.67
10.28
11.0
11.83
12.61
13.13
13.24
12.87
12.04
10.8
9.18
7.24
5.07
2.78
0.44
-1.94
-4.47
-7.25
-10.35
-13.7
-17.18
-20.64
-24.03
-27.4
-30.72
-33.73
-35.87
-36.3
-34.23
-29.21
-21.38
-11.46
-0.6
10.0
19.36
26.83
32.2
35.55
37.16
37.44
36.79
35.58
34.06
32.39
30.61
28.71
26.65
24.39
21.93
19.25
16.39
13.4
10.37
7.38
4.45
1.58
-1.32
-4.29
-7.31
-10.33
-13.22
-15.95
-18.54
-21.12
-23.88
-26.95
-30.23
-33.4
-35.88
-36.99
-36.12
-32.98
-27.71
-20.87
-13.25
-5.71
1.11
6.85
11.4
14.8
17.12
18.43
18.78
18.32
17.23
15.73
14.05
12.38
10.82
9.43
8.2
7.05
5.89
4.56
2.97
1.05
-1.1
-3.34
-5.49
-7.41
-9.12
-10.72
-12.41
-14.34
-16.6
-19.13
-21.76
-24.17
-25.91
-26.48
-25.42
-22.42
-17.51
-11.09
-3.85
3.36
9.82
15.03
18.82
21.23
22.44
22.62
21.92
20.47
18.4
15.92
13.25
10.67
8.43
6.73
5.59
4.87
4.32
3.64
2.63
1.25
-0.44
-2.32
-4.25
-6.12
-7.85
-9.41
-10.83
-12.29
-14.04
-16.29
-19.03
-21.92
-24.29
-25.3
-24.3
-21.02
-15.73
-9.13
-2.13
4.38
9.8
13.81
16.37
17.62
17.74
16.91
15.32
13.15
10.59
7.84
5.07
2.4
-0.08
-2.32
-4.26
-5.87
-7.07
-7.83
-8.14
-8.02
-7.5
-6.64
-5.56
-4.43
-3.53
-3.18
-3.73
-5.47
-8.43
-12.39
-16.73
-20.63
-23.19
-23.71
-21.9
-17.94
-12.42
-6.18
-0.09
5.17
9.2
11.83
13.11
13.26
12.59
11.46
10.19
8.99
7.92
6.9
5.76
4.36
2.71
0.96
-0.59
-1.68
-2.16
-2.07
-1.63
-1.12
-0.75
-0.66
-0.88
-1.43
-2.39
-3.88
-6.07
-9.09
-12.87
-17.14
-21.4
-24.96
-27.08
-27.12
-24.74
-20.0
-13.4
-5.79
1.9
8.84
14.49
18.67
21.42
22.93
23.42
23.08
22.09
20.63
18.84
16.86
14.78
12.66
10.58
8.68
7.08
5.86
5.02
4.44
3.94
3.3
2.39
1.17
-0.29
-1.84
-3.36
-4.82
-6.29
-7.99
-10.16
-12.95
-16.3
-19.9
-23.14
-25.23
-25.42
-23.21
-18.6
-12.1
-4.59
2.88
9.48
14.7
18.46
20.9
22.22
22.56
21.99
20.56
18.4
15.74
12.86
10.07
7.56
5.51
3.99
3.01
2.48
2.17
1.77
0.97
-0.47
-2.63
-5.36
-8.43
-11.51
-14.38
-16.97
-19.41
-21.92
-24.76
-28.08
-31.81
-35.59
-38.83
-40.78
-40.74
-38.26
-33.33
-26.32
-18.01
-9.29
-0.98
6.32
12.3
16.9
20.15
22.12
22.91
22.67
21.65
20.18
18.61
17.22
16.1
15.18
14.33
13.4
12.3
11.02
9.6
8.04
6.38
4.6
2.71
0.69
-1.45
-3.72
-6.16
-8.84
-11.84
-15.18
-18.74
-22.21
-25.03
-26.46
-25.77
-22.48
-16.53
-8.31
1.43
11.83
22.09
31.58
39.8
46.34
50.86
53.21
53.46
51.93
49.1
45.46
41.34
36.83
31.89
26.48
20.66
14.72
9.06
4.08
0.07
-2.87
-4.88
-6.25
-7.4
-8.78
-10.77
-13.6
-17.34
-21.88
-26.9
-31.91
-36.27
-39.26
-40.19
-38.64
-34.57
-28.4
-20.95
-13.2
-6.02
0.01
4.79
8.48
11.45
13.97
16.11
17.71
18.53
18.34
17.15
15.18
12.79
10.36
8.12
6.14
4.35
2.66
0.98
-0.72
-2.41
-4.02
-5.42
-6.49
-7.12
-7.39
-7.53
-7.88
-8.71
-10.04
-11.5
-12.41
-12.01
-9.67
-5.12
1.51
9.72
18.84
28.19
37.23
45.66
53.53
61.11
68.77
76.62
84.29
90.8
94.78
94.88
90.16
80.48
66.46
49.34
30.56
11.45
-6.98
-24.11
-39.55
-53.06
-64.46
-73.63
-80.59
-85.49
-88.59
-90.15
-90.29
-89.04
-86.41
-82.53
-77.8
-72.81
-68.12
-64.04
-60.43
-56.76
-52.32
-46.48
-38.98
-30.0
-20.08
-9.9
-0.08
9.0
17.13
24.17
29.87
33.86
35.79
35.59
33.69
30.93
28.41
26.98
27.02
28.32
30.26
32.02
32.86
32.2
29.74
25.47
19.76
13.35
7.12
1.94
-1.7
-3.84
-5.04
-6.15
-8.03
-11.23
-15.9
-21.68
-27.77
-33.12
-36.63
-37.39
-34.96
-29.45
-21.55
-12.27
-2.74
6.01
13.25
18.52
21.69
22.85
22.3
20.53
18.06
15.42
12.98
10.93
9.27
7.94
6.9
6.15
5.77
5.78
6.06
6.34
6.2
5.3
3.47
0.82
-2.27
-5.38
-8.19
-10.65
-12.94
-15.4
-18.32
-21.73
-25.33
-28.49
-30.4
-30.34
-27.89
-23.13
-16.58
-9.04
-1.35
5.79
11.97
17.02
20.87
23.52
24.96
25.25
24.6
23.33
21.84
20.47
19.36
18.5
17.74
16.94
16.08
15.2
14.44
13.81
13.24
12.48
11.3
9.57
7.31
4.78
2.27
0.01
-1.94
-3.73
-5.65
-8.04
-11.11
-14.9
-19.11
-23.16
-26.29
-27.73
-26.92
-23.71
-18.43
-11.8
-4.81
1.54
6.42
9.33
10.19
9.27
7.13
4.36
1.49
-1.13
-3.33
-4.98
-6.0
-6.33
-6.01
-5.22
-4.22
-3.27
-2.49
-1.85
-1.24
-0.62
-0.07
0.18
-0.06
-0.9
-2.24
-3.87
-5.54
-7.05
-8.35
-9.44
-10.44
-11.54
-12.9
-14.64
-16.77
-19.09
-21.18
-22.51
-22.5
-20.76
-17.15
-11.91
-5.58
1.09
7.44
12.92
17.3
20.57
22.83
24.2
24.77
24.65
23.98
23.04
22.12
21.45
21.1
20.9
20.58
19.93
18.88
17.56
16.17
14.83
13.52
12.09
10.39
8.42
6.31
4.28
2.46
0.87
-0.6
-2.16
-4.03
-6.5
-9.85
-14.34
-19.99
-26.42
-32.78
-37.95
-40.8
-40.54
-36.95
-30.34
-21.39
-11.02
-0.23
9.88
18.33
24.34
27.58
28.28
27.14
25.06
22.85
20.95
19.44
18.14
16.8
15.19
13.17
10.63
7.51
3.75
-0.54
-5.14
-9.71
-13.87
-17.31
-19.86
-21.47
-22.19
-22.1
-21.31
-20.0
-18.39
-16.76
-15.35
-14.31
-13.67
-13.28
-12.92
-12.29
-11.04
-8.83
-5.41
-0.83
4.58
10.14
15.1
18.88
21.23
22.27
22.32
21.72
20.61
19.01
16.91
14.33
11.44
8.49
5.73
3.29
1.2
-0.64
-2.35
-4.05
-5.81
-7.65
-9.56
-11.53
-13.58
-15.72
-17.94
-20.1
-22.04
-23.58
-24.64
-25.32
-25.79
-26.19
-26.44
-26.25
-25.22
-23.07
-19.75
-15.48
-10.64
-5.63
-0.7
4.02
8.48
12.6
16.25
19.25
21.42
22.7
23.16
23.02
22.55
22.01
21.55
21.2
20.9
20.56
20.19
19.88
19.69
19.59
19.38
18.72
17.26
14.86
11.6
7.82
3.9
0.02
-3.86
-7.91
-12.25
-16.63
-20.39
-22.64
-22.6
-20.01
-15.24
-9.17
-2.83
3.04
8.09
12.34
15.9
18.8
20.86
21.86
21.7
20.5
18.58
16.34
14.13
12.14
10.4
8.83
7.23
5.41
3.16
0.39
-2.91
-6.58
-10.38
-14.07
-17.5
-20.71
-23.83
-27.04
-30.51
-34.23
-38.05
-41.64
-44.49
-45.96
-45.37
-42.18
-36.2
-27.72
-17.53
-6.69
3.73
12.96
20.66
26.85
31.69
35.27
37.58
38.53
38.11
36.44
33.81
30.52
26.85
22.89
18.66
14.11
9.3
4.38
-0.4
-4.8
-8.7
-12.11
-15.15
-17.93
-20.48
-22.8
-24.94
-27.08
-29.52
-32.54
-36.16
-39.94
-43.07
-44.55
-43.57
-39.84
-33.67
-25.8
-17.23
-8.89
-1.48
4.55
8.96
11.69
12.82
12.58
11.28
9.23
6.68
3.84
0.96
-1.42
-2.46
-1.17
3.23
10.87
20.99
32.11
42.43
50.38
55.03
56.22
54.3
49.92
43.7
36.15
27.7
18.76
9.74
1.03
-6.96
-13.85
-19.27
-22.83
-24.3
-23.61
-21.01
-17.02
-12.33
-7.68
-3.72
-0.92
0.48
0.53
-0.54
-2.32
-4.29
-5.99
-7.09
-7.5
-7.4
-7.12
-6.99
-7.24
-7.86
-8.66
-9.36
-9.74
-9.7
-9.32
-8.75
-8.22
-7.97
-8.27
-9.34
-11.25
-13.85
-16.66
-18.94
-19.93
-19.07
-16.29
-11.92
-6.59
-0.94
4.57
9.72
14.37
18.35
21.39
23.21
23.65
22.8
21.08
19.1
17.45
16.54
16.41
16.79
17.25
17.34
16.76
15.45
13.46
10.96
8.08
4.91
1.5
-2.1
-5.8
-9.5
-13.13
-16.72
-20.41
-24.36
-28.61
-32.97
-36.96
-39.82
-40.75
-39.16
-34.84
-28.14
-19.89
-11.12
-2.82
4.35
10.14
14.57
17.8
19.93
21.0
21.03
20.16
18.62
16.74
14.79
12.85
10.86
8.64
6.09
3.23
0.28
-2.53
-5.03
-7.21
-9.24
-11.39
-13.87
-16.76
-19.97
-23.25
-26.23
-28.49
-29.54
-28.95
-26.4
-21.85
-15.56
-8.13
-0.37
6.92
13.16
18.08
21.66
24.02
25.32
25.59
24.81
22.95
20.01
16.16
11.64
6.78
1.85
-2.96
-7.62
-12.14
-16.58
-20.92
-25.1
-29.05
-32.74
-36.2
-39.44
-42.43
-45.01
-46.84
-47.39
-46.05
-42.19
-35.42
-25.71
-13.5
0.36
14.89
29.27
43.05
56.06
68.07
78.56
86.55
90.97
91.07
86.9
79.32
69.65
59.21
48.86
38.91
29.35
20.14
11.49
3.79
-2.51
-7.16
-10.18
-11.88
-12.7
-13.09
-13.37
-13.74
-14.24
-14.88
-15.7
-16.79
-18.21
-19.98
-21.87
-23.47
-24.25
-23.75
-21.76
-18.43
-14.2
-9.66
-5.34
-1.59
1.5
4.0
6.01
7.55
8.51
8.74
8.16
6.92
5.33
3.78
2.55
1.72
1.1
0.36
-0.82
-2.54
-4.69
-6.96
-9.09
-10.95
-12.66
-14.53
-16.92
-20.11
-24.11
-28.66
-33.29
-37.36
-40.23
-41.31
-40.19
-36.77
-31.33
-24.58
-17.49
-11.08
-6.12
-2.92
-1.38
-1.1
-1.7
-2.93
-4.78
-7.35
-10.66
-14.6
-18.88
-23.11
-26.88
-29.79
-31.46
-31.48
-29.59
-25.75
-20.3
-14.0
-7.88
-2.96
0.08
1.13
0.68
-0.43
-1.18
-0.69
1.69
6.34
13.41
22.71
33.72
45.49
56.81
66.36
73.04
76.21
75.81
72.34
66.67
59.81
52.71
46.06
40.31
35.68
32.23
29.89
28.51
27.82
27.46
27.07
26.36
25.25
23.8
22.18
20.53
18.88
17.17
15.33
13.3
11.03
8.49
5.62
2.47
-0.69
-3.29
-4.58
-3.9
-1.03
3.65
9.17
14.26
17.76
18.89
17.47
13.88
8.91
3.47
-1.58
-5.66
-8.57
-10.45
-11.7
-12.8
-14.17
-16.05
-18.53
-21.51
-24.82
-28.14
-31.14
-33.47
-34.95
-35.58
-35.64
-35.54
-35.73
-36.57
-38.1
-40.01
-41.7
-42.37
-41.31
-38.08
-32.68
-25.49
-17.18
-8.45
0.17
8.36
15.98
22.91
28.92
33.57
36.38
37.05
35.71
32.97
29.79
27.13
25.58
25.18
25.48
25.74
25.34
23.86
21.21
17.55
13.17
8.46
3.79
-0.48
-4.14
-7.16
-9.64
-11.72
-13.39
-14.4
-14.38
-12.92
-9.82
-5.18
0.61
6.92
13.13
18.7
23.38
27.16
30.19
32.63
34.51
35.65
35.8
34.78
32.67
29.74
26.37
22.9
19.41
15.85
12.17
8.41
4.76
1.45
-1.5
-4.28
-7.29
-10.9
-15.28
-20.25
-25.39
-30.14
-33.99
-36.55
-37.51
-36.67
-33.97
-29.57
-23.92
-17.74
-11.77
-6.59
-2.47
0.65
2.94
4.53
5.4
5.54
5.01
4.1
3.24
2.81
2.91
3.25
3.36
2.79
1.39
-0.56
-2.51
-3.85
-4.21
-3.66
-2.65
-1.79
-1.71
-2.82
-5.28
-8.93
-13.39
-18.07
-22.22
-25.12
-26.19
-25.24
-22.48
-18.5
-14.03
-9.81
-6.38
-4.01
-2.77
-2.48
-2.85
-3.45
-3.88
-3.84
-3.27
-2.34
-1.39
-0.75
-0.59
-0.91
-1.57
-2.39
-3.25
-4.1
-4.98
-5.91
-6.97
-8.2
-9.67
-11.45
-13.51
-15.77
-17.99
-19.85
-20.97
-21.05
-19.96
-17.83
-15.02
-12.04
-9.34
-7.24
-5.81
-4.95
-4.52
-4.37
-4.39
-4.39
-4.11
-3.16
-1.25
1.64
5.19
8.77
11.66
13.35
13.69
12.91
11.44
9.68
7.79
5.71
3.3
0.44
-2.85
-6.39
-9.92
-13.24
-16.19
-18.75
-20.91
-22.73
-24.25
-25.46
-26.28
-26.57
-26.18
-25.08
-23.4
-21.41
-19.52
-18.08
-17.33
-17.29
-17.84
-18.7
-19.54
-19.92
-19.36
-17.36
-13.7
-8.57
-2.74
2.64
6.57
8.7
9.7
11.02
14.16
19.76
27.19
34.7
40.33
42.89
42.42
39.93
36.74
33.69
30.98
28.42
25.95
23.87
22.74
22.95
24.43
26.59
28.63
29.87
30.02
29.16
27.58
25.65
23.69
21.9
20.34
18.88
17.3
15.37
12.94
10.06
6.91
3.73
0.73
-1.99
-4.4
-6.49
-8.26
-9.66
-10.67
-11.37
-11.9
-12.44
-13.09
-13.78
-14.21
-13.93
-12.51
-9.73
-5.72
-0.93
4.03
8.58
12.37
15.34
17.66
19.52
21.07
22.32
23.17
23.51
23.29
22.49
21.17
19.4
17.29
15.0
12.71
10.62
8.84
7.27
5.62
3.5
0.59
-3.14
-7.3
-11.21
-14.11
-15.44
-15.03
-13.08
-10.02
-6.3
-2.25
1.93
6.06
9.92
13.22
15.72
17.29
17.98
17.97
17.45
16.48
15.06
13.13
10.77
8.22
5.86
4.1
3.23
3.39
4.5
6.4
8.86
11.57
14.17
16.23
17.31
17.05
15.33
12.31
8.4
4.18
0.22
-2.99
-5.14
-6.04
-5.69
-4.17
-1.75
1.23
4.27
6.89
8.68
9.4
9.01
7.67
5.69
3.37
0.97
-1.42
-3.79
-6.2
-8.6
-10.87
-12.81
-14.21
-14.99
-15.22
-15.08
-14.82
-14.69
-14.85
-15.44
-16.46
-17.88
-19.6
-21.54
-23.66
-25.98
-28.49
-31.08
-33.5
-35.42
-36.63
-37.14
-37.22
-37.23
-37.4
-37.73
-38.05
-38.17
-38.02
-37.7
-37.27
-36.62
-35.44
-33.35
-30.08
-25.64
-20.17
-13.73
-6.27
2.37
12.1
22.4
32.27
40.44
45.83
47.82
46.42
42.16
35.88
28.5
20.88
13.71
7.45
2.15
-2.55
-7.24
-12.6
-18.92
-25.95
-32.96
-39.1
-43.84
-47.24
-49.81
-52.05
-54.13
-55.79
-56.63
-56.54
-55.92
-55.5
-55.91
-57.18
-58.64
-59.28
-58.39
-55.89
-52.43
-48.95
-46.12
-44.14
-42.76
-41.56
-40.22
-38.64
-36.75
-34.49
-31.59
-27.75
-22.7
-16.38
-9.06
-1.23
6.43
13.27
18.75
22.58
24.72
25.4
25.02
24.03
22.82
21.68
20.75
20.08
19.64
19.34
19.04
18.67
18.2
17.71
17.3
16.99
16.59
15.76
14.14
11.49
8.01
4.33
1.46
0.44
2.0
6.16
12.31
19.45
26.65
33.45
39.94
46.54
53.47
60.4
66.42
70.33
71.28
69.19
64.82
59.49
54.52
50.75
48.36
46.93
45.75
44.02
41.05
36.23
29.11
19.59
8.15
-4.12
-15.69
-25.17
-31.91
-36.43
-40.36
-45.73
-54.1
-65.74
-79.45
-93.03
-104.11
-111.04
-113.23
-111.04
-105.32
-96.92
-86.59
-74.98
-62.85
-51.08
-40.42
-31.17
-22.9
-14.5
-4.56
8.08
23.75
41.63
59.84
75.95
87.8
94.2
95.25
92.22
86.85
80.66
74.51
68.57
62.61
56.45
50.05
43.52
36.93
30.26
23.36
16.2
8.96
2.08
-3.79
-7.97
-9.91
-9.39
-6.64
-2.39
2.36
6.55
9.48
10.89
11.01
10.28
9.09
7.65
5.96
3.97
1.68
-0.77
-3.15
-5.25
-6.9
-8.07
-8.84
-9.42
-10.02
-10.84
-12.04
-13.72
-15.92
-18.64
-21.78
-25.1
-28.16
-30.41
-31.29
-30.42
-27.7
-23.35
-17.79
-11.5
-4.92
1.57
7.68
13.12
17.66
21.11
23.38
24.51
24.67
24.12
23.15
22.06
21.07
20.24
19.49
18.64
17.47
15.91
14.01
11.95
9.96
8.17
6.6
5.17
3.7
1.99
-0.12
-2.81
-6.11
-9.97
-14.1
-18.01
-21.08
-22.67
-22.34
-19.94
-15.72
-10.19
-4.0
2.27
8.2
13.57
18.27
22.21
25.29
27.43
28.59
28.88
28.49
27.69
26.69
25.62
24.54
23.42
22.23
20.95
19.58
18.13
16.61
15.0
13.23
11.18
8.74
5.87
2.65
-0.69
-3.89
-6.72
-9.12
-11.23
-13.33
-15.74
-18.7
-22.24
-26.16
-30.05
-33.3
-35.24
-35.3
-33.12
-28.66
-22.2
-14.32
-5.71
2.94
11.06
18.2
24.1
28.58
31.62
33.29
33.8
33.45
32.55
31.34
29.96
28.42
26.7
24.78
22.76
20.76
18.91
17.24
15.61
13.85
11.77
9.33
6.61
3.78
1.0
-1.61
-4.07
-6.41
-8.73
-11.13
-13.7
-16.52
-19.54
-22.52
-25.03
-26.5
-26.4
-24.45
-20.72
-15.68
-10.0
-4.36
0.74
5.07
8.6
11.39
13.47
14.88
15.6
15.67
15.13
14.05
12.49
10.52
8.36
6.27
4.57
3.48
3.04
3.04
3.15
3.03
2.42
1.24
-0.43
-2.41
-4.51
-6.51
-8.27
-9.77
-11.08
-12.43
-14.09
-16.25
-19.01
-22.22
-25.54
-28.43
-30.31
-30.61
-28.98
-25.37
-20.12
-13.84
-7.35
-1.36
3.61
7.4
10.05
11.74
12.7
13.05
12.95
12.58
12.16
11.91
11.96
12.3
12.8
13.28
13.59
13.71
13.69
13.58
13.37
12.97
12.27
11.17
9.65
7.79
5.75
3.71
1.79
0.02
-1.72
-3.63
-6.01
-9.06
-12.86
-17.19
-21.6
-25.47
-28.17
-29.16
-28.18
-25.24
-20.69
-15.04
-8.93
-2.95
2.42
6.86
10.23
12.53
13.88
14.46
14.51
14.29
14.03
13.85
13.79
13.77
13.67
13.45
13.18
13.04
13.25
14.01
15.4
17.34
19.71
22.37
25.31
28.64
32.63
37.63
43.98
51.92
61.44
72.27
83.94
95.85
107.5
118.56
128.91
138.63
147.84
156.46
164.02
169.48
171.35
168.04
158.35
142.07
120.15
94.5
67.43
40.99
16.54
-5.24
-24.11
-39.95
-52.61
-62.05
-68.56
-72.84
-75.88
-78.62
-81.61
-84.77
-87.49
-88.97
-88.6
-86.31
-82.7
-78.87
-75.98
-74.85
-75.7
-78.2
-81.74
-85.77
-89.97
-94.28
-98.77
-103.44
-108.15
-112.63
-116.47
-119.18
-120.23
-119.15
-115.65
-109.75
-101.82
-92.37
-81.87
-70.52
-58.25
-44.92
-30.49
-15.18
0.57
16.23
31.32
45.47
58.26
69.14
77.42
82.3
83.21
80.0
73.1
63.47
52.4
41.24
31.2
23.24
17.94
15.45
15.47
17.16
19.32
20.54
19.65
16.01
9.74
1.58
-7.34
-15.89
-23.26
-29.04
-33.2
-35.94
-37.48
-38.0
-37.69
-36.75
-35.45
-34.13
-33.08
-32.45
-32.14
-31.87
-31.27
-30.08
-28.23
-25.93
-23.52
-21.36
-19.63
-18.32
-17.25
-16.21
-15.11
-14.04
-13.23
-12.92
-13.21
-14.03
-15.16
-16.38
-17.58
-18.88
-20.47
-22.53
-25.07
-27.93
-30.86
-33.68
-36.23
-38.4
-40.01
-40.82
-40.57
-39.17
-36.73
-33.58
-30.06
-26.35
-22.41
-18.06
-13.13
-7.69
-2.08
3.23
7.76
11.25
13.64
14.98
15.29
14.59
12.92
10.55
8.07
6.27
6.01
7.81
11.7
17.11
23.11
28.7
33.13
36.07
37.6
38.08
37.87
37.16
35.93
34.04
31.35
27.94
24.17
20.57
17.58
15.32
13.55
11.78
9.59
6.89
4.0
1.54
0.01
-0.46
-0.2
0.15
0.06
-0.64
-1.69
-2.52
-2.37
-0.18
5.44
16.16
33.28
56.88
85.08
114.1
139.23
156.37
163.47
161.01
151.39
137.57
121.9
105.53
88.8
71.84
55.05
39.11
24.59
11.58
-0.29
-11.54
-22.48
-32.88
-42.04
-49.13
-53.57
-55.38
-55.14
-53.82
-52.44
-51.7
-51.87
-52.78
-53.95
-54.88
-55.18
-54.71
-53.56
-51.99
-50.33
-48.87
-47.79
-47.16
-46.97
-47.09
-47.39
-47.78
-48.24
-48.84
-49.7
-50.97
-52.72
-54.91
-57.37
-59.87
-62.18
-64.23
-66.09
-67.99
-70.2
-72.9
-76.09
-79.52
-82.72
-85.04
-85.86
-84.7
-81.36
-76.0
-69.07
-61.15
-52.83
-44.54
-36.5
-28.69
-20.93
-12.93
-4.35
5.09
15.55
27.02
39.25
51.77
63.94
75.05
84.49
91.87
97.11
100.4
102.12
102.67
102.37
101.37
99.61
96.98
93.39
88.81
83.37
77.26
70.7
63.94
57.19
50.63
44.38
38.55
33.17
28.29
23.89
19.94
16.38
13.07
9.87
6.62
3.18
-0.54
-4.51
-8.62
-12.71
-16.59
-20.17
-23.41
-26.35
-29.1
-31.74
-34.27
-36.61
-38.61
-40.05
-40.73
-40.56
-39.55
-37.86
-35.83
-33.98
-32.88
-33.02
-34.66
-37.72
-41.64
-45.55
-48.39
-49.24
-47.51
-43.14
-36.52
-28.41
-19.67
-11.05
-3.08
3.96
9.96
14.86
18.65
21.3
22.82
23.32
22.97
22.02
20.77
19.47
18.28
17.2
16.1
14.8
13.18
11.25
9.12
6.95
4.89
2.94
1.05
-0.92
-3.11
-5.64
-8.59
-11.98
-15.67
-19.33
-22.46
-24.43
-24.71
-22.99
-19.27
-13.89
-7.35
-0.28
6.74
13.21
18.79
23.26
26.57
28.76
29.89
30.13
29.65
28.74
27.69
26.77
26.08
25.52
24.85
23.78
22.15
20.01
17.6
15.18
12.98
11.07
9.38
7.75
6.06
4.14
1.91
-0.74
-3.83
-7.24
-10.64
-13.53
-15.34
-15.61
-14.14
-11.08
-6.82
-1.84
3.4
8.51
13.19
17.19
20.21
22.07
22.72
22.31
21.14
19.55
17.8
16.01
14.22
12.46
10.78
9.3
8.07
7.02
5.99
4.78
3.26
1.47
-0.47
-2.39
-4.2
-5.94
-7.74
-9.77
-12.18
-14.99
-18.11
-21.24
-23.95
-25.71
-25.99
-24.47
-21.07
-16.04
-9.85
-3.07
3.75
10.14
15.7
20.17
23.36
25.26
26.04
25.97
25.33
24.32
23.02
21.43
19.59
17.64
15.74
14.04
12.54
11.05
9.34
7.28
4.88
2.34
-0.14
-2.43
-4.6
-6.81
-9.27
-12.04
-15.03
-18.05
-20.79
-22.97
-24.32
-24.6
-23.66
-21.46
-18.15
-13.99
-9.34
-4.52
0.21
4.7
8.76
12.2
14.77
16.26
16.58
15.85
14.36
12.49
10.59
8.85
7.31
5.83
4.19
2.2
-0.23
-3.05
-6.11
-9.27
-12.44
-15.66
-19.03
-22.58
-26.26
-29.93
-33.39
-36.55
-39.43
-42.09
-44.6
-46.86
-48.64
-49.64
-49.52
-47.94
-44.58
-39.16
-31.48
-21.63
-10.08
2.33
14.55
25.66
35.16
43.05
49.71
55.54
60.73
65.14
68.44
70.41
71.13
70.98
70.48
69.99
69.53
68.81
67.44
65.12
61.84
57.81
53.38
48.82
44.27
39.74
35.13
30.39
25.56
20.74
16.13
11.91
8.27
5.31
3.06
1.44
0.34
-0.39
-0.79
-0.85
-0.48
0.39
1.72
3.33
4.87
6.04
6.58
6.47
5.83
4.87
3.74
2.45
0.9
-1.05
-3.4
-6.04
-8.7
-11.15
-13.24
-14.95
-16.35
-17.49
-18.37
-18.94
-19.22
-19.32
-19.44
-19.82
-20.61
-21.83
-23.33
-24.86
-26.14
-26.87
-26.85
-25.99
-24.32
-22.05
-19.46
-16.87
-14.52
-12.53
-10.9
-9.54
-8.4
-7.44
-6.68
-6.14
-5.77
-5.46
-5.05
-4.46
-3.69
-2.86
-2.18
-1.81
-1.83
-2.22
-2.86
-3.69
-4.66
-5.75
-6.97
-8.28
-9.64
-10.97
-12.19
-13.18
-13.76
-13.73
-12.87
-11.05
-8.27
-4.72
-0.72
3.29
6.83
9.49
11.07
11.55
11.24
10.57
10.0
9.82
10.13
10.81
11.71
12.71
13.76
14.82
15.84
16.68
17.18
17.25
16.92
16.39
15.98
15.96
16.45
17.36
18.38
19.16
19.43
19.09
18.26
17.18
16.1
15.17
14.41
13.7
12.85
11.63
9.86
7.42
4.33
0.7
-3.27
-7.47
-11.88
-16.5
-21.27
-25.92
-30.05
-33.29
-35.52
-36.92
-37.91
-38.89
-40.05
-41.24
-42.15
-42.5
-42.18
-41.31
-40.1
-38.71
-37.17
-35.45
-33.58
-31.68
-29.97
-28.64
-27.83
-27.57
-27.8
-28.42
-29.32
-30.42
-31.63
-32.85
-33.94
-34.72
-34.97
-34.47
-32.96
-30.25
-26.24
-21.08
-15.14
-8.99
-3.23
1.66
5.45
8.2
10.12
11.46
12.37
12.89
12.97
12.67
12.11
11.53
11.13
10.93
10.78
10.34
9.28
7.41
4.78
1.58
-1.93
-5.58
-9.48
-13.83
-18.78
-24.29
-30.12
-35.86
-41.01
-44.98
-47.16
-47.15
-44.78
-40.16
-33.76
-26.37
-18.9
-12.14
-6.51
-1.94
1.68
4.61
7.12
9.4
11.49
13.35
15.0
16.65
18.73
21.1
23.96
28.05
34.54
44.19
56.7
70.55
83.55
93.62
98.33
97.08
91.76
85.89
82.7
83.6
88.0
93.99
99.25
99.53
91.79
75.54
52.86
26.87
0.27
-25.14
-48.56
-70.2
-93.98
-123.36
-159.03
-198.33
-237.23
-272.58
-302.76
-327.22
-327.55
-292.66
-225.3
-141.63
-60.08
6.74
52.75
77.11
83.42
78.61
67.33
53.43
40.13
30.26
25.35
25.46
29.91
38.08
49.33
60.4
68.35
71.24
69.22
63.86
57.43
52.44
51.18
54.89
61.79
69.04
74.23
76.66
77.04
76.72
76.93
78.17
79.92
80.18
77.15
70.28
60.77
50.86
42.65
37.3
34.73
33.85
33.0
30.96
27.56
23.69
20.65
19.47
20.5
23.31
27.04
30.66
33.3
34.33
33.52
31.02
27.43
23.76
21.05
20.0
20.47
21.5
21.76
20.46
17.98
15.91
16.24
20.14
27.12
35.0
40.74
41.72
36.69
26.11
11.64
-4.57
-20.62
-35.12
-47.19
-56.28
-62.08
-64.54
-64.04
-61.37
-57.83
-55.02
-54.45
-57.05
-62.71
-70.25
-77.89
-84.01
-87.85
-89.68
-90.43
-91.0
-91.73
-92.34
-92.29
-91.22
-89.17
-86.5
-83.47
-80.01
-75.59
-69.48
-61.14
-50.51
-38.14
-25.06
-12.54
-1.79
6.37
11.7
14.5
15.47
15.36
14.77
14.03
13.2
12.23
11.08
9.63
7.68
4.91
0.97
-4.25
-10.48
-17.06
-23.15
-28.06
-31.57
-33.96
-35.96
-38.38
-41.9
-46.68
-52.21
-57.34
-60.54
-60.38
-56.01
-47.44
-35.34
-20.73
-4.52
12.68
30.5
48.48
65.91
81.83
95.33
105.84
113.23
117.77
120.02
120.51
119.77
118.16
115.84
112.73
108.54
102.87
95.47
86.52
76.82
67.78
61.07
58.21
59.96
66.05
75.27
85.92
96.39
105.6
112.99
118.24
120.98
120.65
116.8
109.51
99.57
88.38
77.43
67.92
60.41
55.09
51.99
51.06
52.12
54.59
57.42
59.4
59.62
57.93
55.05
52.41
51.59
53.74
59.2
67.29
76.42
84.4
88.88
87.92
80.59
67.41
50.43
32.68
17.18
5.75
-1.56
-6.18
-9.96
-14.01
-18.26
-21.82
-24.02
-25.15
-26.48
-29.49
-35.17
-43.83
-55.49
-70.31
-88.21
-107.98
-126.35
-138.46
-139.83
-128.98
-108.91
-86.29
-68.68
-61.15
-64.32
-74.47
-85.49
-91.17
-87.0
-70.78
-42.83
-5.86
35.2
73.83
103.63
120.42
123.93
117.78
107.79
99.27
95.17
95.76
99.86
106.28
114.26
122.74
129.45
130.9
123.93
107.83
85.58
62.84
45.27
35.42
31.48
28.47
21.09
6.57
-14.2
-37.64
-59.4
-76.25
-86.84
-91.51
-91.33
-87.65
-81.87
-75.52
-70.25
-67.65
-68.74
-73.68
-81.54
-90.55
-98.7
-104.38
-106.87
-106.52
-104.33
-101.39
-98.33
-95.24
-91.75
-87.57
-82.75
-77.74
-73.14
-69.43
-66.67
-64.63
-62.91
-61.25
-59.74
-58.69
-58.53
-59.64
-62.13
-65.91
-70.63
-75.81
-80.86
-85.21
-88.4
-90.16
-90.55
-89.94
-88.96
-88.36
-88.87
-90.89
-94.25
-98.1
-101.02
-101.53
-98.79
-93.11
-85.97
-79.36
-74.5
-70.97
-66.35
-57.19
-40.57
-15.67
15.66
49.43
80.88
105.89
121.94
128.26
125.61
115.81
101.22
84.21
66.65
49.39
32.11
13.62
-7.65
-33.03
-63.16
-97.78
-135.5
-173.93
-209.69
-238.95
-258.12
-264.82
-258.4
-240.05
-212.11
-177.16
-137.25
-93.63
-47.25
0.43
46.74
87.86
119.63
138.81
144.14
136.67
119.26
95.6
69.19
42.75
18.4
-2.14
-17.44
-26.55
-29.36
-26.75
-20.5
-12.82
-5.82
-0.93
1.39
1.64
0.89
0.2
0.14
0.68
1.39
1.95
2.27
2.54
2.91
3.35
3.65
3.73
3.84
4.6
6.7
10.34
15.13
20.17
24.56
27.73
29.63
30.62
31.24
32.03
33.35
35.31
37.7
39.94
41.27
40.97
38.64
34.41
28.97
23.33
18.54
15.38
14.12
14.47
15.61
16.37
15.6
12.51
7.03
-0.05
-7.25
-12.83
-15.4
-14.43
-10.59
-5.45
-0.96
1.33
0.91
-1.55
-4.61
-6.68
-6.75
-4.72
-1.3
2.49
5.83
8.44
10.45
12.13
13.53
14.39
14.35
13.23
11.37
9.5
8.5
8.89
10.6
12.91
14.87
15.78
15.4
14.06
12.27
10.42
8.6
6.72
4.73
2.77
1.18
0.35
0.47
1.42
2.8
4.12
5.06
5.54
5.79
6.12
6.84
8.06
9.64
11.24
12.48
13.17
13.34
13.2
12.93
12.54
11.85
10.57
8.62
6.19
3.78
1.96
1.11
1.19
1.66
1.7
0.54
-2.22
-6.37
-11.24
-15.9
-19.63
-22.06
-23.25
-23.43
-22.8
-21.36
-18.95
-15.45
-10.95
-5.75
-0.29
5.13
10.43
15.64
20.76
25.55
29.48
31.97
32.74
32.06
30.75
29.83
30.03
31.46
33.55
35.33
36.02
35.32
33.41
30.69
27.47
23.81
19.6
14.86
9.92
5.33
1.69
-0.68
-1.86
-2.18
-2.07
-1.75
-1.2
-0.25
1.31
3.51
6.21
9.16
12.07
14.73
17.06
19.13
21.08
23.06
25.2
27.45
29.62
31.34
32.18
31.79
30.05
27.13
23.44
19.49
15.61
11.94
8.43
4.95
1.42
-2.11
-5.45
-8.4
-10.73
-12.32
-13.07
-12.97
-12.04
-10.43
-8.41
-6.35
-4.62
-3.45
-2.85
-2.65
-2.56
-2.35
-1.92
-1.35
-0.83
-0.55
-0.61
-0.94
-1.4
-1.8
-2.03
-2.06
-1.96
-1.89
-2.03
-2.52
-3.4
-4.64
-6.11
-7.64
-9.02
-10.07
-10.7
-10.9
-10.77
-10.33
-9.58
-8.46
-6.92
-4.98
-2.77
-0.48
1.77
3.9
5.93
7.86
9.61
10.98
11.8
12.02
11.79
11.37
11.04
10.93
11.0
11.09
11.06
10.95
10.96
11.33
12.22
13.53
14.88
15.82
15.99
15.3
14.02
12.63
11.63
11.29
11.55
12.13
12.66
12.94
12.95
12.87
12.84
12.82
12.64
12.13
11.28
10.31
9.53
9.29
9.81
11.1
12.92
14.91
16.74
18.18
19.12
19.47
19.21
18.49
17.44
16.06
14.33
12.25
9.95
7.51
4.87
1.82
-1.52
-5.08
-8.86
-12.82
-16.65
-19.85
-21.92
-22.74
-22.32
-19.76
-14.52
-6.74
2.61
12.25
20.91
27.6
31.52
32.68
33.36
35.73
40.88
48.63
58.14
68.6
79.54
90.51
101.84
115.9
133.86
154.57
175.01
192.21
205.11
214.94
223.97
220.49
197.64
156.12
104.06
50.9
3.1
-35.63
-61.37
-76.82
-84.38
-84.19
-76.86
-63.92
-47.74
-30.31
-13.65
0.43
9.94
14.03
14.25
12.45
10.03
7.69
5.93
5.37
6.61
9.43
13.2
17.26
19.9
18.81
12.01
-0.88
-18.31
-37.45
-55.55
-70.54
-81.21
-87.54
-90.11
-89.61
-86.44
-80.88
-73.34
-64.72
-55.94
-47.58
-39.78
-32.25
-24.38
-15.45
-4.79
8.04
22.98
39.26
55.23
68.57
76.88
78.52
73.24
62.27
47.83
32.29
17.42
4.01
-7.91
-18.6
-28.26
-36.86
-44.34
-50.82
-56.7
-62.48
-68.55
-74.84
-80.76
-85.43
-87.98
-88.01
-85.72
-81.99
-78.04
-75.04
-73.74
-74.17
-75.63
-76.91
-76.54
-73.29
-66.44
-56.11
-43.36
-30.04
-18.4
-10.58
-8.02
-11.14
-19.29
-30.89
-43.9
-56.14
-65.66
-70.97
-71.29
-66.64
-57.94
-46.86
-35.47
-25.63
-18.37
-13.5
-9.64
-4.94
2.03
11.61
22.93
34.57
45.45
55.44
65.23
75.42
85.57
93.66
96.65
91.67
77.33
54.26
24.65
-8.6
-42.47
-73.8
-98.76
-112.72
-111.18
-91.73
-56.1
-10.69
34.95
71.49
93.29
100.24
96.84
89.49
83.26
80.09
79.0
77.72
74.61
69.57
63.81
58.81
55.5
53.94
53.8
54.64
56.14
57.91
59.31
59.37
57.04
51.57
42.99
32.5
22.66
17.31
20.63
35.59
62.12
96.22
130.58
156.66
167.91
161.92
140.83
109.72
73.71
35.49
-5.44
-51.31
-103.46
-159.98
-215.27
-261.8
-293.33
-307.56
-307.08
-298.04
-287.17
-278.98
-274.22
-270.5
-264.23
-252.82
-235.75
-214.32
-190.52
-165.92
-141.19
-116.42
-91.78
-67.84
-45.6
-26.2
-10.31
2.23
12.39
21.51
30.79
40.66
50.65
59.72
66.85
71.66
74.85
77.99
82.97
91.15
102.48
115.14
125.83
130.66
126.33
111.21
85.9
53.03
16.53
-19.42
-51.33
-76.97
-95.37
-106.33
-109.97
-106.43
-96.09
-79.93
-59.94
-38.99
-20.15
-5.73
3.5
8.46
11.04
13.05
15.42
17.89
19.56
19.59
17.78
14.65
11.03
7.63
4.64
1.88
-0.98
-4.13
-7.24
-9.64
-10.57
-9.52
-6.57
-2.37
2.07
5.81
8.34
9.73
10.47
11.18
12.23
13.64
15.13
16.33
17.01
17.25
17.28
17.4
17.74
18.16
18.36
18.03
17.07
15.68
14.33
13.5
13.43
14.14
15.42
16.76
17.6
17.51
16.4
14.53
12.3
10.27
8.89
8.58
9.33
10.87
12.86
15.14
17.83
21.0
24.77
29.11
34.03
38.87
42.7
44.74
45.02
44.54
44.45
46.39
51.96
62.77
78.0
94.74
108.49
114.74
110.04
91.58
59.38
16.92
-28.07
-68.63
-99.49
-118.29
-124.83
-120.83
-111.15
-100.17
-90.2
-78.97
-66.15
-52.91
-42.06
-35.46
-33.26
-36.35
-43.68
-52.59
-57.23
-57.34
-56.46
-60.41
-72.8
-76.69
-59.33
-17.87
19.55
46.36
61.66
73.77
85.05
96.68
108.87
118.09
120.68
114.75
104.08
90.5
74.98
57.13
37.5
17.09
-4.95
-28.97
-54.15
-76.19
-93.55
-106.29
-115.78
-122.27
-124.97
-123.98
-119.45
-111.68
-99.63
-84.52
-68.52
-53.93
-41.48
-30.7
-21.37
-13.57
-7.59
-2.82
0.63
2.55
3.01
3.11
4.43
8.04
14.11
22.23
32.24
43.25
53.79
62.36
68.42
72.55
76.11
80.53
87.42
98.55
114.68
134.81
156.33
175.87
190.0
195.92
191.74
174.13
144.79
111.21
82.0
61.12
47.34
37.49
29.53
21.38
13.66
7.19
1.1
-7.49
-22.23
-45.72
-78.7
-116.01
-151.93
-180.16
-195.62
-196.67
-185.94
-169.05
-151.95
-138.38
-128.97
-122.54
-116.88
-110.36
-102.85
-95.27
-88.44
-82.07
-74.98
-66.03
-55.54
-44.78
-35.42
-28.87
-25.77
-25.98
-28.85
-33.58
-39.45
-45.89
-51.98
-56.4
-57.63
-54.4
-46.01
-32.49
-14.6
6.25
28.32
49.9
69.54
86.16
98.97
107.48
111.36
110.6
105.52
96.86
85.79
73.66
61.84
51.39
42.96
36.79
32.77
30.6
30.01
30.79
32.77
35.78
39.53
43.66
47.85
52.03
56.45
61.65
68.23
76.52
86.48
97.68
109.62
121.86
134.08
145.83
156.21
163.78
166.81
164.03
155.18
141.15
123.54
103.81
82.64
60.0
35.69
10.2
-14.96
-37.61
-55.85
-68.85
-77.22
-82.54
-86.59
-90.59
-94.88
-99.14
-102.65
-104.7
-104.7
-102.35
-97.83
-91.82
-85.47
-80.0
-76.21
-74.23
-73.65
-73.94
-74.94
-76.95
-80.46
-85.44
-90.84
-94.59
-94.2
-87.72
-74.61
-56.0
-34.28
-12.21
7.91
24.77
38.09
48.19
55.53
60.43
63.04
63.56
62.42
60.3
57.94
55.8
53.87
51.76
48.9
44.96
40.06
34.78
29.9
26.1
23.63
22.29
21.54
20.86
19.86
18.44
16.73
14.91
13.15
11.55
10.2
9.23
8.72
8.72
9.09
9.58
9.84
9.55
8.53
6.75
4.43
1.89
-0.46
-2.25
-3.26
-3.5
-3.25
-2.92
-2.93
-3.56
-4.82
-6.59
-8.68
-10.97
-13.47
-16.18
-19.0
-21.64
-23.69
-24.76
-24.6
-23.23
-20.83
-17.68
-13.96
-9.81
-5.29
-0.56
4.11
8.37
11.92
14.6
16.46
17.7
18.49
18.92
18.97
18.58
17.73
16.55
15.18
13.72
12.18
10.48
8.54
6.34
3.91
1.21
-1.87
-5.51
-9.83
-14.73
-19.91
-24.87
-29.19
-32.58
-34.91
-36.11
-36.03
-34.51
-31.41
-26.79
-20.97
-14.45
-7.73
-1.25
4.77
10.16
14.79
18.5
21.13
22.59
22.84
21.95
20.1
17.59
14.82
12.29
10.4
9.34
9.01
9.07
9.18
9.12
8.92
8.69
8.52
8.34
7.94
7.06
5.56
3.49
0.99
-1.7
-4.33
-6.56
-8.04
-8.42
-7.5
-5.33
-2.24
1.3
4.84
8.06
10.81
13.05
14.82
16.24
17.47
18.76
20.31
22.14
24.08
25.78
26.9
27.26
26.92
26.02
24.74
23.09
21.07
18.7
16.15
13.72
11.64
9.98
8.5
6.82
4.61
1.74
-1.61
-5.07
-8.23
-10.78
-12.59
-13.68
-14.11
-13.93
-13.15
-11.72
-9.7
-7.23
-4.59
-2.08
-0.02
1.45
2.36
2.91
3.34
3.88
4.68
5.81
7.29
9.07
11.04
12.95
14.51
15.43
15.64
15.21
14.37
13.35
12.3
11.25
10.14
8.92
7.52
5.84
3.77
1.24
-1.75
-4.96
-8.01
-10.46
-12.04
-12.65
-12.37
-11.36
-9.72
-7.58
-5.11
-2.58
-0.36
1.24
2.08
2.26
2.05
1.75
1.59
1.63
1.81
2.06
2.29
2.48
2.55
2.41
1.97
1.18
0.09
-1.2
-2.56
-3.96
-5.44
-7.17
-9.28
-11.8
-14.65
-17.62
-20.49
-23.02
-24.94
-25.95
-25.78
-24.25
-21.39
-17.46
-12.88
-8.03
-3.21
1.43
5.75
9.49
12.29
13.83
14.01
13.13
11.78
10.64
10.15
10.36
10.94
11.4
11.3
10.5
9.05
7.23
5.34
3.7
2.48
1.78
1.57
1.67
1.81
1.8
1.52
0.99
0.39
-0.07
-0.17
0.31
1.57
3.81
7.17
11.61
16.85
22.39
27.58
31.84
34.87
36.67
37.47
37.51
36.95
35.86
34.36
32.73
31.35
30.58
30.48
30.75
30.8
29.99
27.93
24.62
20.39
15.7
11.02
6.71
2.98
-0.06
-2.42
-4.23
-5.71
-7.09
-8.56
-10.19
-11.98
-13.91
-15.94
-18.01
-19.98
-21.61
-22.6
-22.7
-21.81
-20.03
-17.6
-14.81
-11.89
-9.01
-6.28
-3.82
-1.81
-0.47
0.02
-0.38
-1.51
-3.06
-4.63
-5.94
-6.84
-7.37
-7.65
-7.76
-7.69
-7.35
-6.69
-5.73
-4.69
-3.88
-3.71
-4.51
-6.48
-9.55
-13.4
-17.48
-21.13
-23.75
-24.93
-24.53
-22.66
-19.65
-15.9
-11.83
-7.76
-3.99
-0.71
1.95
3.98
5.44
6.47
7.2
7.73
8.02
7.95
7.36
6.13
4.31
2.12
-0.12
-2.09
-3.62
-4.67
-5.32
-5.7
-5.97
-6.24
-6.61
-7.13
-7.8
-8.52
-9.12
-9.39
-9.09
-8.02
-6.07
-3.31
-0.09
3.01
5.29
6.25
5.82
4.5
3.07
2.33
2.63
3.84
5.42
6.8
7.65
7.99
8.03
7.98
7.84
7.47
6.65
5.25
3.34
1.13
-1.1
-3.14
-4.92
-6.53
-8.15
-9.99
-12.14
-14.57
-17.14
-19.68
-22.11
-24.47
-26.88
-29.44
-32.16
-34.87
-37.25
-38.92
-39.53
-38.88
-36.97
-33.95
-30.15
-25.94
-21.71
-17.79
-14.4
-11.59
-9.25
-7.2
-5.26
-3.33
-1.41
0.43
2.17
3.85
5.59
7.53
9.72
12.1
14.45
16.5
17.96
18.56
18.12
16.54
13.83
10.2
6.09
2.13
-1.07
-3.0
-3.51
-2.76
-1.12
0.98
3.22
5.44
7.59
9.69
11.66
13.37
14.69
15.56
16.04
16.26
16.34
16.24
15.79
14.82
13.23
11.09
8.65
6.2
3.94
1.91
-0.02
-2.06
-4.39
-7.13
-10.29
-13.89
-17.9
-22.28
-26.88
-31.43
-35.54
-38.72
-40.53
-40.64
-38.97
-35.69
-31.19
-25.9
-20.22
-14.39
-8.58
-2.9
2.51
7.53
12.08
16.17
19.92
23.45
26.76
29.72
32.09
33.59
34.13
33.81
32.91
31.76
30.61
29.53
28.46
27.28
25.93
24.49
23.1
21.87
20.74
19.42
17.51
14.66
10.84
6.46
2.3
-0.76
-2.01
-1.24
1.25
4.76
8.46
11.74
14.28
16.09
17.33
18.18
18.73
18.97
18.87
18.42
17.64
16.49
14.85
12.55
9.48
5.7
1.46
-2.79
-6.62
-9.74
-12.11
-13.93
-15.56
-17.35
-19.48
-21.96
-24.54
-26.91
-28.81
-30.17
-31.11
-31.87
-32.63
-33.38
-33.96
-34.01
-33.25
-31.49
-28.68
-24.9
-20.28
-15.03
-9.39
-3.68
1.76
6.59
10.56
13.53
15.49
16.59
17.05
17.2
17.29
17.45
17.62
17.56
17.01
15.83
14.1
12.05
9.99
8.18
6.66
5.32
3.98
2.45
0.7
-1.16
-2.93
-4.47
-5.74
-6.87
-8.01
-9.26
-10.51
-11.52
-12.02
-11.87
-11.11
-9.89
-8.4
-6.75
-4.96
-3.1
-1.28
0.27
1.29
1.62
1.26
0.34
-0.85
-2.08
-3.19
-4.12
-4.92
-5.64
-6.3
-6.84
-7.12
-7.01
-6.46
-5.57
-4.52
-3.56
-2.9
-2.62
-2.66
-2.83
-2.93
-2.83
-2.57
-2.26
-2.11
-2.22
-2.61
-3.2
-3.86
-4.49
-5.01
-5.36
-5.42
-5.04
-4.06
-2.41
-0.27
2.07
4.23
5.92
7.07
7.8
8.4
9.14
10.23
11.72
13.57
15.65
17.85
20.01
22.02
23.74
25.1
26.11
26.88
27.49
28.01
28.38
28.54
28.43
28.16
27.99
28.3
29.54
32.0
35.81
40.67
45.85
50.2
52.42
51.39
46.62
38.38
27.69
15.92
4.35
-6.16
-15.13
-22.27
-27.28
-29.82
-29.77
-27.46
-23.75
-19.77
-16.45
-14.22
-12.93
-12.16
-11.6
-11.22
-11.23
-11.77
-12.69
-13.52
-13.74
-13.01
-11.39
-9.26
-7.09
-5.22
-3.74
-2.51
-1.16
0.79
3.84
8.32
14.18
20.76
26.72
30.39
30.34
25.89
17.52
6.55
-5.38
-16.91
-27.41
-36.78
-45.15
-52.38
-57.96
-61.23
-61.68
-59.27
-54.52
-48.19
-41.12
-33.92
-26.95
-20.35
-14.23
-8.75
-4.21
-0.99
0.58
0.39
-1.36
-4.14
-7.33
-10.4
-13.04
-15.24
-17.15
-18.95
-20.77
-22.66
-24.65
-26.68
-28.56
-30.0
-30.57
-29.9
-27.77
-24.21
-19.47
-13.9
-7.94
-1.98
3.61
8.48
12.36
15.11
16.68
17.2
16.87
15.92
14.64
13.35
12.32
11.7
11.42
11.23
10.78
9.83
8.33
6.49
4.66
3.17
2.23
1.86
2.0
2.46
2.97
3.15
2.59
1.01
-1.55
-4.63
-7.39
-8.87
-8.24
-5.06
0.65
8.39
17.41
26.86
36.0
44.34
51.73
58.37
64.73
71.33
78.56
86.5
95.01
103.73
112.23
119.86
125.88
129.63
130.85
129.96
127.91
125.71
123.82
121.77
118.44
112.63
103.78
92.31
79.3
65.92
52.89
40.37
28.27
16.67
5.97
-3.31
-10.86
-16.92
-22.2
-27.66
-34.16
-42.21
-51.76
-62.28
-72.82
-82.31
-89.99
-95.66
-99.9
-103.8
-108.45
-114.28
-120.75
-126.34
-129.13
-127.59
-121.2
-110.65
-97.54
-83.8
-71.02
-60.22
-51.67
-45.19
-40.31
-36.51
-33.39
-30.68
-28.23
-26.0
-24.11
-22.56
-21.17
-19.51
-17.12
-13.6
-8.76
-2.62
4.59
12.36
20.32
28.54
37.56
48.16
60.81
75.28
90.38
104.15
114.0
117.88
115.07
106.61
94.99
83.49
75.11
71.59
72.51
74.16
71.6
60.46
38.56
6.41
-33.07
-75.34
-115.34
-148.71
-174.99
-195.01
-209.76
-219.68
-224.93
-225.61
-221.39
-211.58
-195.69
-177.85
-162.81
-154.12
-153.13
-159.39
-171.48
-187.1
-203.28
-217.09
-230.67
-245.36
-260.28
-272.74
-280.67
-284.84
-288.34
-294.84
-278.22
-223.53
-133.23
-27.0
73.6
156.58
219.07
262.74
290.39
304.57
303.77
288.49
265.0
242.84
231.17
234.95
253.34
280.31
306.42
320.14
316.23
296.28
265.37
230.49
197.31
170.27
152.82
143.87
133.49
118.1
98.23
78.65
61.38
45.89
30.2
12.13
-12.41
-45.56
-84.59
-124.55
-161.21
-192.67
-218.84
-240.42
-258.18
-276.01
-295.61
-314.55
-329.07
-336.96
-338.68
-335.74
-329.15
-296.88
-232.13
-146.75
-61.83
8.11
60.18
98.7
129.64
157.0
180.86
193.39
187.86
164.16
129.75
96.26
74.77
71.0
85.3
111.32
135.46
146.19
139.71
120.44
96.29
74.19
57.15
44.51
33.0
20.17
6.8
-4.47
-11.19
-13.15
-11.47
-8.07
-4.45
1.4
9.32
19.33
31.55
46.01
61.4
76.35
89.65
91.92
81.48
61.07
35.14
6.63
-19.8
-45.32
-69.4
-89.9
-104.09
-108.95
-104.41
-92.22
-75.92
-59.01
-43.67
-28.72
-11.33
11.66
42.27
78.22
113.98
142.86
159.7
162.47
153.37
136.37
115.89
95.2
74.51
52.55
28.32
2.55
-22.13
-41.33
-51.6
-50.82
-39.36
-24.32
-13.25
-11.26
-18.51
-30.58
-37.13
-34.83
-22.79
-1.55
27.82
61.32
95.98
128.36
154.32
169.76
171.13
157.81
131.32
94.14
48.92
-1.87
-55.95
-109.9
-158.14
-193.79
-209.65
-201.6
-170.99
-124.63
-72.76
-26.27
6.69
22.7
22.84
11.87
-3.97
-18.42
-25.9
-22.06
-4.97
23.96
59.67
93.84
117.16
122.42
107.49
76.32
36.96
-2.07
-35.1
-60.52
-79.7
-94.58
-105.53
-110.76
-107.75
-94.39
-72.25
-47.78
-28.66
-18.63
-16.55
-19.01
-23.48
-27.83
-34.32
-45.28
-61.18
-80.1
-98.36
-112.21
-118.96
-117.12
-106.6
-89.09
-67.12
-43.53
-20.61
0.28
18.58
34.17
47.24
58.03
66.57
73.19
78.41
83.08
88.17
94.25
101.12
107.74
112.34
112.83
107.83
97.39
83.36
69.0
57.83
52.38
53.25
59.1
67.26
75.13
81.17
85.35
88.79
92.93
98.75
106.18
114.13
120.57
123.0
118.92
106.39
84.81
55.38
21.15
-13.65
-44.6
-68.23
-82.61
-87.4
-83.3
-71.53
-53.54
-31.18
-6.84
16.69
36.62
50.86
58.34
58.95
53.0
40.83
22.63
-1.17
-29.22
-59.01
-87.0
-109.65
-124.61
-131.6
-132.45
-130.25
-128.14
-128.17
-130.88
-135.49
-140.51
-144.34
-145.63
-143.41
-136.99
-126.07
-110.84
-92.29
-72.01
-51.94
-33.74
-18.35
-5.88
4.13
12.16
18.38
22.54
24.23
23.3
20.17
15.9
11.83
9.14
8.42
9.62
12.13
15.07
17.58
19.02
19.11
17.9
15.73
13.06
10.22
7.26
3.99
0.11
-4.5
-9.58
-14.48
-18.5
-21.15
-22.43
-22.71
-22.45
-21.88
-20.84
-19.01
-16.1
-12.11
-7.35
-2.26
2.72
7.26
11.11
14.01
15.72
16.14
15.39
13.85
12.04
10.43
9.28
8.55
8.03
7.45
6.61
5.43
4.0
2.48
1.03
-0.24
-1.33
-2.34
-3.43
-4.86
-6.9
-9.77
-13.49
-17.78
-22.04
-25.36
-26.79
-25.66
-21.9
-16.23
-9.93
-4.44
-0.76
0.91
1.13
0.79
0.61
0.77
0.87
0.2
-1.88
-5.69
-11.06
-17.33
-23.43
-27.96
-29.54
-27.37
-21.74
-14.24
-7.3
-3.24
-3.25
-6.84
-12.11
-16.77
-19.18
-19.04
-17.27
-15.29
-14.31
-14.9
-17.07
-20.55
-25.03
-30.1
-35.07
-38.79
-39.81
-36.86
-29.39
-17.91
-3.86
10.83
24.35
35.54
43.98
49.86
53.71
56.01
57.05
56.9
55.53
52.97
49.45
45.33
41.07
36.98
33.18
29.52
25.67
21.32
16.28
10.49
3.98
-3.2
-11.01
-19.37
-28.12
-36.95
-45.5
-53.42
-60.46
-66.37
-70.86
-73.46
-73.62
-70.88
-65.22
-57.19
-47.74
-37.86
-28.14
-18.58
-8.81
1.5
12.16
22.32
30.76
36.41
38.79
38.2
35.55
31.94
28.25
25.02
22.42
20.42
18.98
18.05
17.54
17.18
16.54
15.07
12.33
8.14
2.73
-3.33
-9.38
-14.85
-19.51
-23.34
-26.38
-28.44
-29.06
-27.57
-23.46
-16.67
-7.65
2.71
13.4
23.63
32.95
41.16
48.18
53.83
57.85
59.95
60.02
58.28
55.25
51.61
47.94
44.63
41.8
39.35
37.13
35.05
33.08
31.21
29.39
27.43
25.09
22.19
18.72
14.83
10.66
6.26
1.48
-3.93
-10.11
-16.87
-23.6
-29.33
-33.05
-33.96
-31.81
-26.87
-19.88
-11.75
-3.32
4.73
11.92
17.89
22.34
25.01
25.84
25.01
22.96
20.33
17.77
15.72
14.41
13.76
13.54
13.43
13.1
12.31
10.94
9.07
6.94
4.86
3.06
1.52
-0.07
-2.22
-5.47
-10.16
-16.23
-23.19
-30.15
-35.93
-39.26
-39.0
-34.41
-25.52
-13.24
0.7
14.26
25.66
33.98
39.44
43.06
46.03
49.14
52.3
54.86
56.11
55.75
54.16
52.12
50.36
49.13
48.15
46.83
44.62
41.3
37.01
32.18
27.19
22.23
17.24
11.98
6.16
-0.43
-7.85
-16.03
-24.73
-33.54
-41.87
-48.84
-53.43
-54.57
-51.46
-43.85
-32.13
-17.24
-0.4
17.17
34.45
50.64
65.14
77.47
87.27
94.38
98.87
101.0
101.2
100.06
98.25
96.38
94.97
94.25
94.15
94.41
94.75
94.97
95.02
94.81
94.08
92.37
89.12
83.97
76.91
68.28
58.52
48.0
36.9
25.47
14.2
3.95
-4.16
-9.15
-10.57
-8.71
-4.56
0.57
5.43
9.22
11.61
12.68
12.6
11.44
9.2
5.89
1.68
-3.06
-7.84
-12.26
-16.09
-19.31
-21.95
-23.97
-25.27
-25.75
-25.42
-24.49
-23.28
-22.14
-21.35
-21.15
-21.72
-23.16
-25.46
-28.44
-31.77
-35.08
-38.02
-40.37
-41.96
-42.62
-42.13
-40.2
-36.64
-31.48
-25.09
-18.09
-11.18
-5.04
-0.08
3.52
5.84
7.1
7.56
7.41
6.79
5.74
4.29
2.53
0.58
-1.36
-3.1
-4.56
-5.76
-6.86
-7.99
-9.27
-10.81
-12.72
-15.17
-18.33
-22.26
-26.81
-31.63
-36.31
-40.48
-43.88
-46.34
-47.67
-47.56
-45.67
-41.78
-35.98
-28.78
-21.01
-13.57
-7.17
-2.09
1.72
4.55
6.66
8.17
9.05
9.2
8.61
7.43
5.92
4.31
2.72
1.14
-0.54
-2.33
-4.14
-5.73
-6.84
-7.34
-7.35
-7.21
-7.39
-8.3
-10.09
-12.58
-15.37
-18.02
-20.25
-22.07
-23.68
-25.29
-27.01
-28.76
-30.29
-31.23
-31.26
-30.11
-27.71
-24.17
-19.77
-14.91
-10.09
-5.79
-2.43
-0.26
0.69
0.62
-0.14
-1.2
-2.26
-3.15
-3.76
-4.05
-3.96
-3.49
-2.76
-2.01
-1.57
-1.71
-2.51
-3.85
-5.48
-7.17
-8.84
-10.51
-12.3
-14.3
-16.61
-19.28
-22.29
-25.52
-28.66
-31.27
-32.95
-33.43
-32.65
-30.78
-28.04
-24.6
-20.54
-15.88
-10.7
-5.19
0.32
5.52
10.12
14.02
17.22
19.79
21.77
23.14
23.82
23.7
22.81
21.28
19.42
17.56
15.99
14.79
13.84
12.85
11.58
9.88
7.79
5.5
3.28
1.38
-0.1
-1.23
-2.31
-3.73
-5.87
-8.91
-12.78
-17.2
-21.74
-25.97
-29.47
-31.81
-32.53
-31.22
-27.73
-22.3
-15.66
-8.81
-2.71
2.06
5.4
7.53
8.79
9.42
9.47
8.99
8.11
7.11
6.34
6.01
6.07
6.2
6.0
5.1
3.42
1.11
-1.48
-3.98
-6.18
-8.09
-9.94
-12.06
-14.75
-18.18
-22.36
-27.11
-32.15
-37.1
-41.42
-44.5
-45.67
-44.4
-40.5
-34.25
-26.36
-17.71
-9.12
-1.13
6.02
12.24
17.41
21.33
23.81
24.83
24.61
23.56
22.14
20.62
19.06
17.35
15.4
13.27
11.1
9.02
7.05
5.07
2.88
0.35
-2.5
-5.58
-8.76
-11.97
-15.22
-18.54
-21.98
-25.5
-29.07
-32.52
-35.53
-37.6
-38.04
-36.2
-31.66
-24.46
-15.12
-4.59
6.09
15.94
24.32
30.91
35.72
38.93
40.84
41.74
41.88
41.48
40.71
39.73
38.64
37.44
36.03
34.28
32.09
29.47
26.55
23.51
20.47
17.48
14.49
11.44
8.35
5.25
2.18
-0.89
-4.07
-7.54
-11.41
-15.7
-20.27
-24.77
-28.66
-31.33
-32.14
-30.66
-26.78
-20.78
-13.27
-5.05
3.07
10.45
16.65
21.45
24.76
26.63
27.18
26.61
25.2
23.28
21.21
19.31
17.78
16.68
15.97
15.48
15.01
14.37
13.41
12.02
10.18
7.96
5.51
2.98
0.53
-1.72
-3.71
-5.44
-6.89
-8.04
-8.85
-9.24
-9.09
-8.24
-6.6
-4.16
-1.07
2.32
5.63
8.5
10.69
12.14
12.84
12.82
12.08
10.71
8.89
6.97
5.31
4.17
3.57
3.26
2.84
2.01
0.65
-1.06
-2.78
-4.16
-5.04
-5.51
-5.84
-6.4
-7.47
-9.1
-11.13
-13.26
-15.2
-16.84
-18.25
-19.64
-21.14
-22.74
-24.29
-25.6
-26.53
-27.1
-27.35
-27.33
-26.96
-26.11
-24.63
-22.47
-19.6
-16.06
-11.88
-7.15
-2.14
2.7
6.8
9.68
11.08
11.07
9.93
8.03
5.69
3.19
0.76
-1.38
-3.05
-4.22
-5.02
-5.71
-6.5
-7.45
-8.45
-9.34
-10.09
-10.83
-11.86
-13.42
-15.59
-18.19
-20.91
-23.38
-25.32
-26.5
-26.68
-25.62
-23.12
-19.13
-13.87
-7.78
-1.44
4.61
9.97
14.45
18.03
20.74
22.61
23.72
24.13
23.96
23.35
22.4
21.23
19.91
18.53
17.18
15.96
14.94
14.08
13.29
12.42
11.27
9.62
7.31
4.22
0.36
-4.09
-8.8
-13.33
-17.24
-20.19
-22.02
-22.69
-22.33
-21.06
-19.04
-16.41
-13.29
-9.87
-6.34
-3.01
-0.17
1.9
3.08
3.4
3.06
2.33
1.41
0.43
-0.56
-1.56
-2.57
-3.53
-4.45
-5.37
-6.35
-7.42
-8.54
-9.61
-10.53
-11.32
-12.13
-13.21
-14.84
-17.16
-20.26
-24.12
-28.61
-33.38
-37.7
-40.5
-40.55
-36.92
-29.38
-18.66
-6.26
6.06
16.94
25.68
32.3
37.12
40.45
42.37
42.87
42.11
40.5
38.72
37.41
36.9
37.11
37.63
37.94
37.7
36.84
35.48
33.89
32.33
31.06
30.24
29.96
30.2
30.73
31.19
31.22
30.56
29.17
27.07
24.28
20.74
16.48
11.82
7.5
4.48
3.51
4.62
6.91
8.73
8.38
4.78
-2.03
-10.95
-20.27
-28.34
-33.97
-36.63
-36.39
-33.66
-29.02
-23.11
-16.56
-10.03
-4.16
0.52
3.67
5.29
5.71
5.43
4.97
4.63
4.38
3.89
2.68
0.35
-3.32
-8.17
-13.79
-19.59
-25.02
-29.69
-33.46
-36.46
-39.0
-41.39
-43.81
-46.16
-48.02
-48.6
-46.89
-41.98
-33.45
-21.86
-8.81
3.3
12.13
16.25
15.78
12.23
7.83
4.46
2.96
3.05
3.84
4.54
4.91
5.24
5.9
6.9
7.75
7.77
6.51
4.1
1.24
-1.12
-2.24
-1.94
-0.66
0.81
1.74
1.8
1.24
0.81
1.42
3.77
8.0
13.62
19.71
25.22
29.35
31.69
32.21
31.08
28.6
25.26
21.76
19.0
17.9
18.95
21.96
26.02
29.71
31.67
31.01
27.55
21.74
14.38
6.28
-1.88
-9.64
-16.61
-22.4
-26.71
-29.41
-30.67
-31.03
-31.23
-32.04
-33.94
-36.94
-40.59
-44.1
-46.74
-48.09
-48.14
-47.17
-45.52
-43.32
-40.41
-36.49
-31.37
-25.08
-17.97
-10.53
-3.25
3.5
9.51
14.58
18.59
21.58
23.91
26.23
29.26
33.5
38.86
44.69
50.04
54.04
56.42
57.61
58.69
61.04
65.89
74.0
85.31
98.66
111.8
121.88
126.21
123.37
113.9
100.21
85.69
73.37
64.83
59.96
57.59
56.37
55.49
54.75
54.24
54.11
54.46
55.54
57.86
61.95
67.92
75.18
82.55
88.74
92.86
94.64
94.23
91.89
87.71
81.74
74.21
65.73
57.06
48.81
40.97
32.9
23.6
12.25
-1.25
-16.18
-31.26
-45.17
-57.13
-67.09
-75.66
-83.63
-91.55
-99.39
-106.62
-112.49
-116.38
-118.01
-117.47
-115.21
-111.79
-107.89
-104.24
-101.53
-100.33
-100.83
-102.72
-105.22
-107.42
-108.8
-109.48
-110.21
-111.82
-114.75
-118.61
-122.32
-124.41
-123.7
-119.68
-112.64
-103.51
-93.38
-83.13
-73.02
-62.61
-51.01
-37.26
-20.95
-2.56
16.54
34.58
50.07
62.24
71.18
77.65
82.65
87.11
91.62
96.14
99.9
101.38
98.6
89.85
74.35
52.89
27.81
2.45
-19.83
-36.57
-46.86
-51.24
-51.22
-48.56
-44.57
-39.88
-34.49
-28.16
-20.7
-12.25
-3.16
6.11
15.11
23.33
30.06
34.38
35.36
32.5
26.16
17.63
8.84
1.68
-2.56
-3.6
-1.96
1.41
5.61
10.03
14.32
18.2
21.48
24.27
27.23
31.49
38.18
47.78
59.68
72.22
83.28
90.9
93.78
91.26
82.97
68.49
47.24
18.79
-16.65
-57.77
-102.05
-146.07
-186.01
-218.44
-240.85
-252.12
-252.63
-243.95
-228.34
-208.03
-184.65
-159.15
-131.9
-103.09
-73.16
-43.02
-14.02
12.23
34.33
51.51
63.92
72.63
79.31
85.77
93.44
102.94
113.86
124.79
133.66
138.29
136.99
129.03
114.77
95.57
73.42
50.44
28.46
8.79
-7.8
-20.97
-30.63
-37.03
-40.69
-42.5
-43.52
-44.65
-46.4
-48.64
-50.73
-51.93
-51.76
-50.33
-48.17
-45.92
-43.86
-41.73
-38.88
-34.78
-29.39
-23.3
-17.48
-12.83
-9.79
-8.31
-8.06
-8.7
-10.08
-12.22
-15.21
-19.06
-23.74
-29.09
-34.88
-40.72
-46.14
-50.74
-54.38
-57.31
-59.98
-62.84
-65.97
-69.07
-71.7
-73.57
-74.84
-76.12
-78.13
-81.46
-86.33
-92.63
-99.98
-107.85
-115.58
-122.42
-127.68
-130.94
-132.26
-132.18
-131.55
-131.46
-132.29
-133.27
-132.64
-128.11
-117.5
-99.49
-74.1
-42.92
-9.18
23.38
51.56
73.31
88.0
96.3
99.81
100.64
100.78
100.99
101.68
103.17
105.63
108.77
111.91
114.35
115.72
115.97
113.28
107.19
99.17
91.63
86.33
83.95
84.77
89.33
98.58
109.21
119.68
131.03
144.7
159.44
170.83
173.5
163.57
140.05
98.18
39.18
-29.03
-96.21
-156.08
-208.32
-256.5
-305.23
-357.94
-424.12
-504.88
-589.96
-662.91
-710.55
-727.9
-717.59
-687.07
-589.13
-415.61
-201.23
2.35
163.89
278.57
354.01
399.87
424.93
436.83
433.24
414.76
389.09
365.56
349.3
339.78
333.43
326.12
314.64
290.93
252.79
205.32
160.81
129.34
113.42
108.68
107.55
102.22
87.22
63.82
39.73
25.04
26.62
46.06
80.56
124.38
169.87
204.19
216.31
201.82
164.6
114.16
61.7
16.31
-17.27
-38.29
-48.61
-49.88
-43.27
-31.35
-19.87
-16.43
-26.91
-51.81
-85.24
-117.2
-137.91
-141.63
-128.6
-104.14
-76.08
-52.09
-37.61
-34.64
-41.73
-54.91
-69.63
-82.78
-93.48
-102.3
-109.51
-113.65
-111.24
-98.45
-73.47
-38.04
2.97
44.44
82.94
117.0
145.72
167.53
179.93
180.61
168.96
146.93
119.62
93.19
72.09
56.94
45.02
32.51
16.93
-1.57
-20.62
-35.55
-41.4
-34.42
-15.29
8.74
27.69
35.5
35.17
30.49
25.09
21.47
20.21
18.4
12.98
2.04
-13.68
-31.24
-47.36
-59.29
-66.12
-68.94
-69.02
-65.51
-54.93
-33.19
0.39
39.89
73.96
89.65
78.15
39.33
-17.13
-75.27
-119.16
-139.18
-134.91
-113.28
-84.32
-56.85
-35.76
-21.64
-12.29
-4.83
2.91
11.97
23.08
37.04
54.36
74.44
94.83
111.44
119.82
116.89
102.64
80.71
57.53
40.04
33.07
37.44
49.76
63.92
73.67
75.03
67.34
52.89
35.25
17.79
3.16
-6.3
-7.9
0.91
20.75
48.25
75.74
93.67
95.04
79.29
52.85
25.97
7.43
0.68
3.22
9.1
12.67
10.99
4.3
-5.04
-13.95
-19.5
-19.23
-11.46
3.87
24.42
45.44
61.05
66.67
61.11
47.35
31.29
19.29
15.63
21.02
32.45
44.51
51.76
51.12
43.2
31.93
22.65
19.39
22.87
30.06
35.6
34.53
24.79
8.08
-11.58
-30.34
-46.43
-60.08
-71.9
-81.17
-85.65
-83.0
-72.53
-55.83
-35.78
-14.86
5.64
24.85
41.02
50.91
51.2
40.85
22.27
0.22
-21.03
-40.04
-57.97
-76.27
-94.27
-108.88
-116.44
-115.24
-106.8
-94.62
-81.8
-69.36
-56.66
-43.52
-31.57
-23.66
-21.8
-25.42
-31.71
-37.62
-41.85
-45.26
-49.46
-54.85
-59.86
-61.84
-58.66
-50.0
-37.44
-23.73
-11.95
-5.17
-6.24
-17.35
-38.91
-68.02
-97.91
-119.19
-123.11
-105.48
-69.15
-23.51
19.01
48.06
59.64
57.02
48.0
39.87
35.32
31.89
25.31
14.17
2.46
-2.32
5.59
25.55
49.67
66.79
68.58
53.72
27.43
-2.85
-31.99
-59.13
-85.61
-111.05
-130.83
-137.13
-123.23
-88.18
-38.64
13.38
55.47
79.57
84.38
74.86
59.81
48.69
48.92
63.75
91.39
125.43
156.77
176.57
179.19
163.39
131.48
87.1
33.36
-27.1
-90.04
-147.64
-188.75
-202.9
-185.97
-143.97
-92.03
-48.28
-25.87
-27.64
-46.39
-70.18
-89.44
-100.85
-106.46
-109.26
-109.23
-103.04
-87.51
-63.79
-38.75
-22.07
-20.93
-35.92
-61.03
-87.66
-109.61
-125.83
-139.22
-152.71
-165.72
-173.72
-171.09
-155.08
-128.16
-96.95
-68.76
-47.73
-33.15
-20.62
-5.09
16.01
41.4
66.74
87.04
99.15
103.12
101.9
99.73
100.27
105.2
113.79
123.54
131.29
134.48
131.97
124.3
113.27
101.06
89.41
79.26
70.85
64.28
59.85
57.81
57.89
58.72
58.06
53.72
44.89
32.96
21.19
13.3
11.82
16.93
26.56
37.51
47.01
53.63
57.5
59.79
62.0
65.47
71.07
78.79
87.56
95.12
98.43
94.49
81.73
60.87
35.22
9.85
-10.65
-23.72
-29.65
-30.84
-30.28
-29.72
-29.05
-26.48
-19.81
-8.81
4.33
16.14
23.64
25.67
23.29
18.36
12.98
9.23
7.82
9.55
16.47
31.38
55.77
87.69
120.05
143.65
151.53
139.88
110.24
69.11
24.64
-16.87
-52.97
-85.64
-117.09
-146.17
-170.58
-186.81
-191.13
-181.47
-158.29
-117.64
-63.39
-10.87
35.41
73.99
100.71
110.58
100.05
69.61
25.12
-24.4
-68.19
-96.46
-105.75
-97.6
-75.33
-42.15
-1.26
42.54
80.95
104.74
108.09
89.94
55.88
16.73
-15.92
-34.11
-35.4
-22.34
0.79
30.09
60.95
87.89
105.38
109.38
99.09
77.63
50.93
26.07
9.49
5.02
13.35
31.97
55.22
75.14
83.69
75.65
51.09
15.54
-22.47
-54.66
-75.52
-83.32
-79.74
-68.82
-56.0
-46.9
-45.87
-54.28
-69.73
-86.83
-99.59
-104.21
-100.48
-91.39
-81.17
-73.29
-69.39
-69.76
-74.22
-82.44
-93.29
-103.85
-109.64
-106.31
-92.23
-70.24
-47.35
-31.96
-30.1
-42.63
-64.85
-88.73
-106.3
-112.68
-107.34
-93.35
-75.67
-59.27
-47.99
-44.02
-47.55
-56.76
-68.14
-77.63
-81.87
-79.27
-70.09
-55.91
-38.56
-19.7
-0.71
17.07
32.32
44.03
51.91
56.42
58.55
59.41
59.74
59.81
59.44
58.24
55.87
52.22
47.49
42.14
36.81
32.04
28.17
25.17
22.69
20.27
17.49
14.21
10.52
6.73
3.26
0.53
-1.05
-1.07
0.84
4.92
11.05
18.76
27.2
35.45
42.72
48.56
52.84
55.66
57.23
57.8
57.65
57.04
56.21
55.25
54.07
52.43
50.15
47.29
44.22
41.51
39.67
38.86
38.85
39.1
38.99
38.14
36.43
33.94
30.86
27.32
23.32
18.84
13.87
8.53
3.11
-1.98
-6.34
-9.7
-12.05
-13.58
-14.67
-15.65
-16.74
-17.9
-19.02
-19.93
-20.52
-20.76
-20.67
-20.31
-19.78
-19.22
-18.81
-18.71
-18.95
-19.38
-19.62
-19.23
-17.81
-15.2
-11.49
-7.01
-2.14
2.81
7.64
12.25
16.55
20.44
23.83
26.55
28.54
29.77
30.24
29.92
28.8
26.86
24.17
20.9
17.31
13.7
10.39
7.67
5.79
4.93
5.1
6.2
7.96
10.05
12.17
14.11
15.81
17.31
18.65
19.84
20.81
21.39
21.37
20.65
19.18
17.03
14.25
10.86
6.91
2.57
-1.66
-5.15
-7.27
-7.79
-7.12
-6.24
-6.33
-8.35
-12.63
-18.79
-26.01
-33.29
-39.7
-44.5
-47.09
-47.02
-44.11
-38.46
-30.57
-21.27
-11.5
-2.15
6.2
13.36
19.47
24.86
29.93
34.89
39.67
43.96
47.27
49.14
49.37
48.03
45.48
42.23
38.79
35.61
32.93
30.81
29.11
27.55
25.79
23.53
20.62
17.05
12.95
8.53
3.95
-0.64
-5.17
-9.62
-13.95
-18.1
-21.91
-25.14
-27.44
-28.53
-28.3
-26.87
-24.65
-22.17
-19.93
-18.26
-17.27
-16.92
-17.09
-17.76
-18.9
-20.56
-22.75
-25.39
-28.33
-31.15
-33.47
-35.0
-35.67
-35.5
-34.59
-33.03
-30.88
-28.17
-24.73
-20.5
-15.64
-10.52
-5.53
-0.95
3.02
6.27
8.66
10.4
11.65
12.38
12.56
12.39
12.37
13.01
14.81
17.99
23.7
32.35
43.01
53.69
62.37
67.86
69.82
69.03
66.67
66.35
70.47
78.68
88.42
96.78
102.13
103.88
102.96
100.42
101.07
107.91
120.16
134.22
146.58
156.11
163.17
169.95
178.13
193.6
219.51
253.82
290.46
322.62
345.46
355.45
352.18
305.54
205.91
71.91
-59.36
-158.45
-217.84
-240.91
-244.87
-240.29
-231.75
-215.03
-186.33
-150.09
-113.73
-84.5
-65.95
-58.52
-59.02
-64.22
-68.06
-67.33
-63.27
-59.8
-60.52
-66.2
-75.85
-86.62
-96.53
-102.36
-102.74
-98.93
-93.49
-88.74
-85.47
-83.74
-82.78
-82.3
-81.21
-78.84
-75.42
-71.62
-68.08
-64.87
-61.75
-58.0
-53.07
-46.29
-37.58
-27.67
-17.81
-9.26
-2.86
1.0
2.44
1.71
-0.94
-5.27
-10.98
-17.64
-24.77
-31.93
-38.75
-44.93
-50.17
-54.21
-56.86
-58.16
-58.4
-58.07
-57.63
-57.35
-57.14
-56.61
-55.27
-52.74
-48.92
-44.02
-38.52
-33.04
-28.22
-24.56
-22.26
-21.08
-20.42
-19.49
-17.62
-14.51
-10.32
-5.51
-0.61
3.96
8.1
11.91
15.55
19.09
22.42
25.22
27.19
28.05
27.68
26.09
23.34
19.65
15.38
11.11
7.61
5.66
5.75
7.85
11.25
14.75
17.09
17.39
15.47
11.82
7.27
2.68
-1.47
-5.04
-8.12
-10.81
-13.1
-14.85
-15.94
-16.27
-15.83
-14.58
-12.47
-9.45
-5.56
-1.01
3.83
8.48
12.45
15.4
17.2
18.09
18.63
19.65
21.84
25.44
29.99
34.38
37.34
38.04
36.49
33.53
30.41
28.24
27.61
28.47
30.35
32.55
34.38
35.28
34.87
32.96
29.64
25.21
20.07
14.63
9.25
4.2
-0.42
-4.71
-9.12
-14.32
-20.99
-29.36
-38.91
-48.39
-56.12
-60.65
-61.27
-58.26
-52.81
-46.57
-41.24
-38.11
-37.8
-40.15
-44.36
-49.28
-53.77
-57.05
-58.86
-59.43
-59.26
-58.88
-58.65
-58.73
-59.14
-59.75
-60.31
-60.37
-59.34
-56.64
-51.96
-45.53
-38.15
-30.94
-24.85
-20.27
-16.73
-13.23
-8.75
-2.73
4.55
12.26
19.42
25.39
30.09
33.93
37.43
40.94
44.41
47.48
49.67
50.6
50.18
48.65
46.58
44.6
43.22
42.58
42.43
42.22
41.36
39.43
36.37
32.38
27.75
22.69
17.24
11.29
4.8
-2.1
-9.06
-15.6
-21.32
-26.03
-29.88
-33.3
-36.79
-40.67
-44.84
-48.76
-51.68
-52.92
-52.22
-49.85
-46.4
-42.63
-39.09
-36.11
-33.8
-32.08
-30.69
-29.11
-26.6
-22.45
-16.3
-8.48
0.03
7.94
14.2
18.41
20.82
22.0
22.47
22.4
21.67
20.1
17.71
14.74
11.49
8.15
4.72
1.1
-2.81
-7.02
-11.34
-15.49
-19.05
-21.47
-22.19
-20.74
-16.91
-10.95
-3.55
4.28
11.47
17.2
21.06
23.09
23.67
23.34
22.62
21.83
20.96
19.7
17.6
14.28
9.64
3.99
-2.14
-8.11
-13.42
-17.76
-21.01
-23.24
-24.74
-25.92
-27.26
-29.13
-31.68
-34.77
-38.02
-40.89
-42.81
-43.3
-41.95
-38.51
-32.91
-25.36
-16.31
-6.4
3.68
13.38
22.38
30.63
38.33
45.83
53.46
61.38
69.4
77.11
84.15
90.57
97.06
104.75
114.6
126.62
139.37
150.23
156.37
155.95
148.93
136.93
122.28
106.88
91.57
76.29
60.85
45.61
31.64
20.19
12.05
7.06
4.37
2.89
1.95
1.41
1.47
2.34
3.98
6.2
8.82
11.89
15.72
20.79
27.29
34.83
42.24
47.78
49.71
47.02
39.92
29.83
18.84
8.88
1.09
-4.34
-7.88
-10.16
-11.66
-12.62
-13.23
-13.82
-14.86
-16.87
-20.19
-24.79
-30.38
-36.38
-42.16
-47.21
-51.17
-53.85
-55.19
-55.11
-53.51
-50.29
-45.45
-39.25
-32.27
-25.27
-19.07
-14.23
-11.01
-9.3
-8.76
-9.0
-9.67
-10.5
-11.29
-11.87
-12.1
-11.94
-11.43
-10.72
-9.99
-9.38
-8.94
-8.66
-8.51
-8.49
-8.67
-9.09
-9.79
-10.68
-11.66
-12.64
-13.63
-14.64
-15.63
-16.44
-16.8
-16.44
-15.19
-13.11
-10.48
-7.65
-4.98
-2.69
-0.82
0.65
1.8
2.73
3.53
4.32
5.15
5.98
6.78
7.48
8.08
8.63
9.15
9.56
9.66
9.2
8.04
6.25
4.15
2.12
0.4
-1.01
-2.39
-4.08
-6.28
-9.03
-12.12
-15.31
-18.34
-21.0
-23.14
-24.61
-25.28
-25.05
-23.87
-21.73
-18.71
-14.97
-10.77
-6.41
-2.17
1.82
5.6
9.3
13.01
16.66
19.98
22.68
24.53
25.53
25.84
25.65
25.09
24.14
22.71
20.74
18.25
15.32
12.07
8.6
5.07
1.68
-1.38
-3.93
-5.96
-7.59
-9.07
-10.66
-12.51
-14.6
-16.72
-18.56
-19.8
-20.19
-19.67
-18.31
-16.38
-14.21
-12.18
-10.54
-9.43
-8.78
-8.37
-7.94
-7.28
-6.36
-5.33
-4.48
-4.06
-4.13
-4.58
-5.08
-5.32
-5.07
-4.28
-3.11
-1.79
-0.6
0.18
0.35
-0.2
-1.46
-3.29
-5.43
-7.56
-9.4
-10.71
-11.36
-11.26
-10.41
-8.9
-6.91
-4.7
-2.54
-0.6
1.08
2.6
4.11
5.69
7.26
8.62
9.48
9.67
9.21
8.34
7.41
6.66
6.11
5.56
4.67
3.2
1.16
-1.19
-3.43
-5.23
-6.43
-7.18
-7.79
-8.56
-9.69
-11.25
-13.16
-15.26
-17.28
-18.96
-20.03
-20.32
-19.85
-18.78
-17.33
-15.68
-13.88
-11.86
-9.56
-6.99
-4.27
-1.63
0.77
2.82
4.48
5.85
7.0
8.08
9.17
10.34
11.52
12.56
13.22
13.29
12.69
11.47
9.81
7.92
5.99
4.17
2.51
0.99
-0.46
-2.0
-3.74
-5.7
-7.73
-9.53
-10.72
-10.99
-10.2
-8.51
-6.24
-3.83
-1.61
0.28
1.81
3.07
4.1
4.86
5.25
5.23
4.83
4.21
3.54
2.94
2.34
1.58
0.4
-1.36
-3.72
-6.56
-9.61
-12.61
-15.31
-17.57
-19.28
-20.39
-20.88
-20.87
-20.58
-20.34
-20.47
-21.13
-22.28
-23.66
-24.93
-25.78
-25.91
-25.02
-22.78
-18.81
-12.88
-5.06
4.16
13.88
22.95
30.29
35.13
37.25
37.05
35.46
33.59
32.46
32.64
34.12
36.49
39.11
41.4
42.92
43.38
42.53
40.15
36.13
30.6
24.01
17.03
10.41
4.81
0.62
-2.13
-3.81
-5.06
-6.62
-8.98
-12.13
-15.57
-18.39
-19.8
-19.43
-17.55
-14.87
-12.2
-10.08
-8.61
-7.59
-6.77
-6.07
-5.56
-5.41
-5.65
-6.16
-6.73
-7.19
-7.52
-7.85
-8.4
-9.34
-10.71
-12.37
-14.05
-15.47
-16.45
-17.06
-17.62
-18.6
-20.46
-23.43
-27.45
-32.09
-36.63
-40.24
-42.04
-41.32
-37.72
-31.3
-22.62
-12.62
-2.35
7.26
15.58
22.35
27.52
31.22
33.61
34.96
35.56
35.72
35.69
35.56
35.29
34.71
33.61
31.79
29.18
25.86
22.14
18.44
15.21
12.67
10.71
8.9
6.7
3.63
-0.44
-5.33
-10.6
-15.82
-20.59
-24.6
-27.56
-29.16
-29.18
-27.49
-24.27
-19.87
-14.82
-9.6
-4.61
-0.03
4.09
7.82
11.28
14.48
17.34
19.63
21.17
21.91
22.08
22.09
22.37
23.18
24.47
25.94
27.2
27.89
27.69
26.41
23.97
20.55
16.73
13.37
11.4
11.34
13.09
15.91
18.81
20.96
22.09
22.46
22.56
22.78
23.14
23.37
23.11
22.2
20.92
19.85
19.68
20.85
23.3
26.39
29.11
30.53
30.19
28.29
25.49
22.6
20.1
18.01
15.86
13.0
8.9
3.25
-3.89
-12.23
-21.21
-30.08
-38.02
-44.34
-48.84
-52.08
-55.41
-60.53
-68.76
-80.3
-93.85
-106.91
-116.66
-120.94
-118.95
-111.29
-99.44
-85.04
-69.41
-53.46
-37.98
-23.76
-11.56
-1.8
5.63
11.5
16.81
22.38
28.57
35.16
41.57
47.13
51.29
53.72
54.31
53.18
50.66
47.23
43.38
39.47
35.57
31.55
27.2
22.43
17.38
12.36
7.79
3.99
1.16
-0.63
-1.35
-1.02
0.32
2.62
5.68
9.21
12.77
15.88
18.12
19.23
19.16
18.05
16.1
13.52
10.44
7.02
3.5
0.21
-2.54
-4.65
-6.33
-8.0
-10.1
-12.76
-15.73
-18.44
-20.44
-21.65
-22.47
-23.5
-25.15
-27.46
-30.04
-32.4
-34.07
-34.91
-34.98
-34.31
-32.69
-29.62
-24.53
-17.07
-7.38
3.99
16.11
27.88
38.39
47.16
54.18
59.77
64.38
68.39
72.34
76.49
80.81
84.99
88.72
91.88
94.44
96.45
97.99
99.78
102.22
105.01
107.28
108.15
107.29
104.97
101.91
98.88
97.3
97.51
98.27
97.23
92.27
82.64
69.2
54.08
40.12
31.28
30.2
37.14
49.85
64.76
78.13
86.77
88.57
75.56
45.73
5.12
-35.04
-65.99
-85.58
-96.3
-101.57
-103.44
-104.03
-101.67
-95.46
-86.95
-79.82
-78.07
-84.69
-101.32
-128.85
-162.82
-197.57
-226.7
-244.15
-245.75
-230.4
-200.65
-162.11
-121.64
-84.81
-54.13
-29.63
-10.49
3.28
10.65
10.49
2.97
-9.63
-23.19
-33.25
-36.79
-33.44
-25.31
-15.87
-8.14
-3.74
-2.61
-3.44
-4.71
-5.36
-5.18
-4.7
-4.67
-5.46
-6.83
-8.07
-8.32
-7.22
-5.04
-2.58
-0.91
-0.78
-2.35
-5.14
-8.26
-10.92
-12.76
-13.9
-14.63
-15.14
-15.28
-14.62
-12.69
-9.28
-4.63
0.71
6.08
10.96
15.05
18.14
20.04
20.52
19.42
16.85
13.26
9.45
6.29
4.45
4.15
5.18
6.97
8.85
10.2
10.65
10.04
8.44
6.08
3.27
0.35
-2.38
-4.73
-6.61
-8.07
-9.22
-10.26
-11.35
-12.62
-14.1
-15.69
-17.18
-18.25
-18.5
-17.59
-15.29
-11.57
-6.67
-1.11
4.45
9.28
12.88
14.98
15.68
15.24
13.98
12.14
9.86
7.27
4.55
2.04
0.08
-1.06
-1.39
-1.15
-0.76
-0.59
-0.83
-1.4
-2.05
-2.49
-2.57
-2.37
-2.17
-2.32
-3.09
-4.55
-6.65
-9.15
-11.69
-13.81
-14.95
-14.58
-12.35
-8.31
-2.97
2.81
8.14
12.4
15.51
17.87
20.06
22.53
25.33
28.17
30.58
32.18
32.89
32.85
32.41
31.8
31.09
30.14
28.72
26.67
24.03
21.04
18.1
15.62
13.85
12.8
12.17
11.47
10.25
8.28
5.72
3.15
1.39
1.18
2.9
6.42
11.15
16.31
21.31
25.98
30.64
35.89
42.34
50.24
59.33
68.96
78.22
86.31
92.79
97.67
101.55
105.43
110.54
117.9
127.79
139.26
149.98
156.63
155.89
145.54
125.36
97.37
65.12
32.61
3.03
-21.95
-42.23
-58.73
-72.51
-84.07
-93.15
-98.89
-100.45
-97.52
-90.57
-80.84
-69.9
-59.32
-50.46
-44.33
-41.7
-43.07
-48.54
-57.73
-69.82
-83.75
-98.51
-113.37
-127.96
-142.02
-155.16
-166.61
-175.25
-179.83
-179.33
-173.35
-162.22
-146.88
-128.72
-109.27
-89.96
-71.97
-56.03
-42.41
-30.91
-21.01
-12.16
-4.02
3.38
9.72
14.65
18.04
20.11
21.29
22.02
22.53
22.87
23.02
23.15
23.53
24.35
25.47
26.31
26.09
24.24
20.8
16.5
12.47
9.69
8.49
8.48
8.83
8.74
7.89
6.47
4.95
3.71
2.88
2.27
1.58
0.62
-0.62
-2.03
-3.47
-4.87
-6.27
-7.67
-9.03
-10.13
-10.66
-10.28
-8.75
-6.04
-2.37
1.85
6.21
10.43
14.45
18.3
22.02
25.47
28.39
30.55
31.85
32.41
32.47
32.27
31.87
31.07
29.6
27.28
24.2
20.76
17.57
15.11
13.52
12.55
11.58
10.0
7.44
3.91
-0.27
-4.67
-8.98
-13.02
-16.67
-19.68
-21.65
-22.16
-20.95
-18.18
-14.39
-10.29
-6.48
-3.21
-0.41
2.16
4.69
7.18
9.44
11.27
12.56
13.36
13.79
13.98
13.98
13.76
13.26
12.53
11.66
10.77
9.94
9.11
8.18
6.94
5.27
3.12
0.57
-2.18
-4.88
-7.3
-9.27
-10.67
-11.44
-11.5
-10.75
-9.16
-6.81
-3.93
-0.85
2.07
4.56
6.53
8.06
9.41
10.84
12.54
14.53
16.59
18.38
19.57
19.95
19.54
18.52
17.12
15.46
13.53
11.16
8.28
4.98
1.57
-1.55
-4.01
-5.66
-6.58
-7.09
-7.62
-8.56
-10.12
-12.27
-14.71
-17.02
-18.79
-19.72
-19.69
-18.68
-16.75
-14.04
-10.72
-7.07
-3.43
-0.12
2.69
4.96
6.8
8.3
9.45
10.14
10.34
10.11
9.71
9.47
9.58
10.05
10.65
11.08
11.12
10.76
10.15
9.47
8.84
8.22
7.42
6.28
4.68
2.64
0.32
-2.13
-4.52
-6.72
-8.55
-9.78
-10.18
-9.54
-7.83
-5.26
-2.24
0.74
3.26
5.13
6.42
7.31
8.0
8.53
8.82
8.7
8.07
7.0
5.67
4.34
3.2
2.26
1.42
0.57
-0.32
-1.16
-1.84
-2.29
-2.63
-3.09
-3.98
-5.54
-7.81
-10.65
-13.73
-16.64
-18.98
-20.36
-20.45
-19.03
-16.02
-11.51
-5.92
0.16
5.96
10.8
14.29
16.47
17.74
18.68
19.73
21.06
22.46
23.54
23.97
23.64
22.81
21.96
21.67
22.3
23.85
25.91
27.68
28.36
27.34
24.44
20.0
14.69
9.33
4.7
1.39
-0.25
-0.25
0.89
2.18
2.35
0.31
-4.36
-11.13
-18.58
-24.93
-28.74
-29.33
-26.9
-22.31
-16.63
-10.81
-5.47
-0.97
2.56
5.05
6.5
6.94
6.43
5.11
3.17
0.84
-1.7
-4.35
-7.11
-10.03
-13.01
-15.88
-18.34
-20.14
-21.17
-21.55
-21.54
-21.45
-21.52
-21.82
-22.27
-22.59
-22.39
-21.23
-18.77
-14.93
-9.96
-4.42
1.05
5.84
9.57
12.12
13.52
13.87
13.27
11.83
9.72
7.28
4.93
3.1
2.02
1.55
1.21
0.41
-1.26
-3.78
-6.64
-9.13
-10.64
-10.95
-10.31
-9.23
-8.32
-7.98
-8.39
-9.44
-10.87
-12.29
-13.26
-13.36
-12.29
-9.95
-6.46
-2.11
2.76
7.79
12.77
17.55
22.03
26.11
29.63
32.4
34.27
35.21
35.38
35.12
34.81
34.7
34.79
34.87
34.66
33.96
32.74
31.11
29.14
26.79
23.95
20.53
16.55
12.16
7.6
3.11
-1.17
-5.14
-8.72
-11.8
-14.18
-15.67
-16.1
-15.36
-13.46
-10.52
-6.75
-2.5
1.81
5.71
8.77
10.73
11.5
11.19
10.08
8.49
6.74
5.07
3.54
2.12
0.7
-0.87
-2.65
-4.66
-6.81
-9.01
-11.28
-13.76
-16.69
-20.23
-24.4
-28.95
-33.48
-37.56
-40.89
-43.39
-45.12
-46.24
-46.89
-47.22
-47.25
-46.84
-45.65
-43.2
-39.01
-32.81
-24.74
-15.48
-6.03
2.48
9.19
13.68
16.18
17.37
18.2
19.5
21.74
24.86
28.34
31.4
33.38
33.89
32.94
30.78
27.76
24.2
20.31
16.28
12.28
8.46
4.93
1.64
-1.56
-4.9
-8.56
-12.46
-16.31
-19.61
-21.87
-22.75
-22.18
-20.34
-17.55
-14.15
-10.35
-6.19
-1.67
3.21
8.25
13.08
17.17
20.06
21.44
21.39
20.3
18.71
17.15
15.94
15.14
14.65
14.32
14.03
13.69
13.17
12.3
10.88
8.78
6.04
2.82
-0.67
-4.26
-7.88
-11.5
-15.04
-18.32
-21.07
-23.01
-23.9
-23.49
-21.52
-17.78
-12.22
-5.13
2.87
10.86
17.96
23.56
27.43
29.66
30.5
30.21
29.03
27.27
25.28
23.46
21.99
20.81
19.59
17.96
15.7
12.94
9.97
7.13
4.54
2.11
-0.36
-2.98
-5.72
-8.41
-10.92
-13.19
-15.22
-17.01
-18.49
-19.53
-19.98
-19.72
-18.63
-16.65
-13.7
-9.84
-5.29
-0.47
4.15
8.15
11.36
13.85
15.87
17.64
19.3
20.82
22.11
23.07
23.69
24.04
24.18
24.13
23.82
23.13
21.96
20.28
18.24
16.06
13.95
12.04
10.27
8.47
6.45
4.1
1.4
-1.58
-4.74
-7.91
-10.87
-13.31
-14.93
-15.5
-15.04
-13.74
-11.94
-9.94
-7.9
-5.92
-4.05
-2.38
-1.09
-0.36
-0.26
-0.69
-1.43
-2.19
-2.8
-3.18
-3.36
-3.39
-3.33
-3.22
-3.07
-2.93
-2.81
-2.73
-2.69
-2.65
-2.53
-2.26
-1.83
-1.32
-0.88
-0.74
-1.02
-1.75
-2.74
-3.74
-4.41
-4.48
-3.77
-2.26
-0.01
2.82
6.0
9.31
12.53
15.39
17.59
18.79
18.67
17.1
14.22
10.58
7.0
4.34
3.14
3.42
4.68
6.18
7.21
7.36
6.56
4.93
2.61
-0.27
-3.62
-7.22
-10.68
-13.59
-15.67
-16.93
-17.67
-18.33
-19.31
-20.75
-22.61
-24.65
-26.58
-28.1
-28.93
-28.8
-27.57
-25.2
-21.81
-17.68
-13.14
-8.54
-4.17
-0.24
3.12
5.84
7.97
9.6
10.89
11.94
12.82
13.53
14.02
14.26
14.22
13.96
13.55
13.09
12.66
12.28
11.93
11.54
11.05
10.44
9.71
8.84
7.81
6.57
5.07
3.35
1.49
-0.37
-2.06
-3.47
-4.5
-5.06
-5.04
-4.3
-2.76
-0.43
2.55
5.92
9.38
12.59
15.26
17.22
18.34
18.59
18.0
16.63
14.63
12.24
9.74
7.47
5.66
4.39
3.52
2.74
1.71
0.2
-1.84
-4.25
-6.77
-9.11
-11.11
-12.65
-13.72
-14.31
-14.43
-14.13
-13.48
-12.57
-11.48
-10.25
-8.87
-7.27
-5.38
-3.16
-0.64
2.11
4.95
7.68
10.11
12.1
13.56
14.46
14.81
14.57
13.75
12.4
10.7
8.95
7.49
6.59
6.36
6.75
7.53
8.45
9.21
9.54
9.13
7.72
5.1
1.23
-3.74
-9.52
-15.7
-21.75
-27.11
-31.21
-33.63
-34.21
-33.12
-30.83
-27.94
-24.96
-22.13
-19.44
-16.71
-13.8
-10.74
-7.74
-5.07
-2.92
-1.32
-0.15
0.75
1.48
2.04
2.36
2.37
2.13
1.77
1.5
1.4
1.42
1.35
0.98
0.22
-0.87
-2.12
-3.44
-4.86
-6.54
-8.62
-11.01
-13.42
-15.42
-16.6
-16.77
-15.89
-13.98
-11.05
-6.95
-1.55
5.14
12.81
20.9
28.66
35.44
40.8
44.59
46.99
48.38
49.31
50.4
52.24
55.23
59.4
64.18
68.43
70.65
69.45
64.08
54.78
42.72
29.6
17.0
5.91
-3.42
-11.34
-18.35
-24.82
-30.82
-36.23
-40.91
-44.77
-47.76
-49.87
-51.02
-51.14
-50.22
-48.38
-45.88
-43.04
-40.12
-37.29
-34.6
-32.08
-29.77
-27.8
-26.31
-25.48
-25.38
-25.94
-26.98
-28.17
-29.19
-29.78
-29.87
-29.55
-29.11
-28.86
-29.04
-29.74
-30.91
-32.41
-34.11
-35.91
-37.78
-39.7
-41.6
-43.36
-44.8
-45.63
-45.54
-44.14
-41.04
-36.0
-29.0
-20.37
-10.8
-1.11
7.92
15.74
22.16
27.26
31.23
34.26
36.45
37.85
38.57
38.76
38.58
38.15
37.41
36.16
34.07
30.91
26.57
21.21
15.17
8.89
2.75
-3.08
-8.63
-14.06
-19.51
-25.0
-30.35
-35.22
-39.15
-41.66
-42.24
-40.43
-35.97
-28.92
-19.74
-9.28
1.35
11.1
19.23
25.46
29.9
32.87
34.69
35.57
35.67
35.22
34.49
33.83
33.5
33.57
33.88
34.06
33.73
32.64
30.75
28.22
25.24
21.96
18.44
14.64
10.53
6.18
1.71
-2.69
-6.89
-10.76
-14.16
-16.85
-18.38
-18.2
-15.85
-11.21
-4.67
2.94
10.58
17.34
22.66
26.39
28.66
29.71
29.73
28.89
27.4
25.46
23.31
21.1
18.82
16.38
13.73
10.92
8.18
5.87
4.25
3.43
3.26
3.4
3.39
2.88
1.67
-0.22
-2.59
-5.16
-7.68
-9.97
-11.85
-13.15
-13.64
-13.09
-11.35
-8.45
-4.64
-0.28
4.17
8.33
11.9
14.69
16.57
17.52
17.56
16.86
15.67
14.29
12.98
11.92
11.15
10.58
10.06
9.41
8.51
7.32
5.92
4.43
2.98
1.64
0.31
-1.29
-3.46
-6.45
-10.23
-14.45
-18.52
-21.75
-23.6
-23.84
-22.56
-20.15
-17.09
-13.83
-10.66
-7.7
-4.96
-2.39
-0.02
2.06
3.69
4.79
5.39
5.65
5.83
6.11
6.56
7.08
7.55
7.85
8.0
8.04
8.03
7.96
7.73
7.23
6.33
4.99
3.2
1.02
-1.46
-4.04
-6.45
-8.34
-9.37
-9.32
-8.14
-5.91
-2.87
0.7
4.51
8.35
12.08
15.68
19.17
22.52
25.6
28.12
29.71
30.05
28.96
26.51
23.01
18.86
14.49
10.25
6.37
3.03
0.32
-1.71
-3.09
-3.93
-4.44
-4.92
-5.69
-7.03
-9.04
-11.57
-14.22
-16.46
-17.88
-18.31
-17.87
-16.88
-15.64
-14.3
-12.84
-11.17
-9.22
-7.08
-4.88
-2.83
-1.07
0.39
1.56
2.47
3.14
3.56
3.73
3.68
3.47
3.18
2.86
2.52
2.19
1.84
1.49
1.14
0.76
0.32
-0.26
-1.08
-2.2
-3.64
-5.32
-7.11
-8.88
-10.48
-11.85
-12.93
-13.66
-13.93
-13.6
-12.57
-10.84
-8.6
-6.16
-3.9
-2.12
-0.94
-0.35
-0.21
-0.39
-0.83
-1.52
-2.47
-3.67
-5.08
-6.7
-8.53
-10.56
-12.73
-14.84
-16.59
-17.75
-18.29
-18.45
-18.72
-19.59
-21.27
-23.58
-25.97
-27.82
-28.69
-28.53
-27.58
-26.12
-24.2
-21.58
-17.72
-12.14
-4.57
4.86
15.7
27.19
38.36
48.04
54.96
57.96
56.38
50.41
41.14
30.33
19.83
10.93
4.07
-1.15
-5.51
-9.63
-13.66
-17.28
-20.07
-21.89
-23.01
-24.02
-25.45
-27.48
-29.82
-31.93
-33.27
-33.62
-33.06
-31.84
-30.14
-27.96
-25.21
-21.79
-17.79
-13.48
-9.25
-5.46
-2.41
-0.21
1.17
1.93
2.41
2.98
3.92
5.27
6.84
8.26
9.2
9.51
9.29
8.76
8.1
7.38
6.5
5.38
3.96
2.32
0.55
-1.29
-3.2
-5.18
-7.14
-8.87
-10.05
-10.43
-9.89
-8.48
-6.41
-3.89
-1.14
1.71
4.5
7.08
9.22
10.8
11.73
12.07
11.93
11.38
10.43
9.07
7.33
5.33
3.29
1.43
-0.15
-1.5
-2.8
-4.23
-5.87
-7.65
-9.43
-11.18
-12.96
-14.92
-17.16
-19.63
-22.08
-24.13
-25.4
-25.68
-24.91
-23.18
-20.68
-17.58
-14.06
-10.3
-6.46
-2.67
0.96
4.34
7.41
10.08
12.25
13.85
14.86
15.36
15.5
15.46
15.39
15.36
15.33
15.23
15.02
14.68
14.31
13.99
13.75
13.5
13.06
12.22
10.85
8.92
6.51
3.71
0.62
-2.72
-6.23
-9.7
-12.8
-15.05
-16.08
-15.67
-13.87
-10.94
-7.22
-3.02
1.39
5.76
9.8
13.23
15.77
17.27
17.73
17.28
16.14
14.57
12.79
11.06
9.6
8.56
8.01
7.82
7.78
7.69
7.38
6.85
6.19
5.48
4.78
4.05
3.2
2.17
0.95
-0.36
-1.6
-2.6
-3.22
-3.33
-2.74
-1.22
1.47
5.56
10.99
17.42
24.12
30.2
34.79
37.33
37.72
36.3
33.69
30.56
27.4
24.45
21.74
19.27
17.08
15.32
14.09
13.36
12.81
12.03
10.67
8.59
5.97
3.12
0.37
-2.16
-4.54
-6.91
-9.34
-11.71
-13.74
-15.13
-15.64
-15.16
-13.68
-11.29
-8.12
-4.37
-0.31
3.69
7.24
9.98
11.62
12.09
11.51
10.16
8.44
6.69
5.15
3.92
2.99
2.36
2.0
1.92
2.13
2.56
3.12
3.7
4.25
4.75
5.2
5.53
5.61
5.22
4.14
2.26
-0.32
-3.22
-5.89
-7.71
-8.24
-7.4
-5.47
-3.02
-0.64
1.27
2.61
3.52
4.3
5.16
6.16
7.21
8.11
8.65
8.66
8.03
6.74
4.83
2.43
-0.25
-3.01
-5.65
-8.07
-10.22
-12.04
-13.48
-14.47
-15.01
-15.19
-15.2
-15.31
-15.8
-16.87
-18.57
-20.82
-23.37
-25.89
-27.97
-29.26
-29.51
-28.64
-26.72
-23.94
-20.52
-16.68
-12.63
-8.54
-4.61
-1.01
2.04
4.39
5.98
6.88
7.29
7.51
7.77
8.18
8.64
8.94
8.9
8.44
7.66
6.72
5.74
4.78
3.77
2.67
1.48
0.25
-0.94
-2.05
-3.08
-4.08
-5.09
-6.13
-7.22
-8.34
-9.39
-10.17
-10.4
-9.83
-8.34
-6.05
-3.33
-0.7
1.41
2.77
3.46
3.75
3.9
4.03
4.07
3.84
3.22
2.25
1.08
-0.12
-1.26
-2.35
-3.45
-4.55
-5.57
-6.37
-6.85
-7.05
-7.16
-7.41
-7.96
-8.85
-10.01
-11.31
-12.62
-13.85
-14.88
-15.59
-15.84
-15.5
-14.51
-12.91
-10.8
-8.3
-5.59
-2.84
-0.26
1.99
3.81
5.17
6.08
6.64
6.88
6.86
6.57
6.03
5.25
4.27
3.18
2.06
1.06
0.24
-0.38
-0.91
-1.61
-2.77
-4.6
-7.2
-10.43
-14.03
-17.73
-21.28
-24.49
-27.18
-29.17
-30.3
-30.47
-29.68
-28.03
-25.74
-23.02
-20.1
-17.15
-14.27
-11.45
-8.65
-5.75
-2.74
0.29
3.14
5.57
7.39
8.57
9.21
9.49
9.56
9.48
9.2
8.65
7.75
6.52
5.07
3.55
2.1
0.83
-0.25
-1.25
-2.31
-3.63
-5.39
-7.66
-10.33
-13.11
-15.52
-17.03
-17.24
-15.96
-13.41
-10.08
-6.65
-3.82
-2.06
-1.57
-2.19
-3.5
-4.97
-6.17
-6.91
-7.33
-7.86
-8.97
-10.97
-13.83
-17.17
-20.47
-23.29
-25.45
-27.1
-28.53
-30.02
-31.66
-33.37
-34.91
-35.98
-36.34
-35.88
-34.66
-32.96
-31.19
-29.82
-29.1
-28.92
-28.83
-28.06
-25.87
-21.77
-15.67
-7.89
0.93
10.01
18.52
25.73
31.05
34.2
35.19
34.39
32.4
29.94
27.69
26.1
25.3
25.09
24.96
24.31
22.6
19.57
15.3
10.13
4.63
-0.69
-5.45
-9.53
-13.12
-16.58
-20.37
-24.8
-29.78
-34.71
-38.57
-40.17
-38.62
-33.64
-25.7
-15.85
-5.31
4.8
13.75
21.13
26.8
30.68
32.78
33.27
32.49
30.93
29.13
27.48
26.16
25.02
23.78
22.09
19.73
16.76
13.4
10.0
6.85
4.06
1.51
-1.1
-4.13
-7.84
-12.37
-17.61
-23.1
-28.09
-31.51
-32.25
-29.47
-22.96
-13.3
-1.75
10.2
21.21
30.41
37.41
42.2
44.9
45.71
44.9
42.91
40.28
37.57
35.14
32.95
30.68
27.82
24.02
19.28
13.98
8.78
4.26
0.74
-1.92
-4.24
-6.88
-10.44
-15.26
-21.29
-28.08
-34.73
-40.05
-42.79
-41.98
-37.33
-29.37
-19.28
-8.52
1.69
10.65
18.16
24.28
28.98
32.1
33.4
32.91
31.05
28.57
26.19
24.33
22.94
21.62
19.94
17.68
15.0
12.23
9.69
7.4
5.11
2.37
-1.2
-5.86
-11.64
-18.37
-25.64
-32.72
-38.52
-41.69
-40.99
-35.72
-26.15
-13.44
0.65
14.37
26.52
36.59
44.59
50.69
54.97
57.35
57.77
56.42
53.83
50.65
47.44
44.43
41.5
38.27
34.41
29.74
24.4
18.68
13.01
7.73
3.07
-0.96
-4.58
-8.16
-12.17
-17.0
-22.86
-29.64
-36.8
-43.45
-48.43
-50.64
-49.29
-44.23
-35.99
-25.64
-14.47
-3.65
6.05
14.2
20.61
25.21
27.96
28.95
28.49
27.12
25.43
23.88
22.63
21.53
20.26
18.56
16.34
13.73
10.97
8.29
5.78
3.36
0.84
-2.04
-5.46
-9.57
-14.4
-19.97
-26.15
-32.59
-38.62
-43.25
-45.35
-44.04
-39.02
-30.75
-20.36
-9.24
1.4
10.85
18.86
25.45
30.6
34.15
35.87
35.69
33.95
31.32
28.58
26.36
24.84
23.74
22.51
20.61
17.77
14.1
10.03
6.04
2.54
-0.3
-2.58
-4.58
-6.66
-9.17
-12.36
-16.3
-20.73
-25.05
-28.32
-29.53
-27.83
-22.94
-15.24
-5.72
4.36
13.85
22.0
28.5
33.37
36.77
38.8
39.58
39.22
37.98
36.17
34.14
32.11
30.12
28.06
25.73
22.97
19.74
16.18
12.54
9.06
5.87
2.94
0.04
-3.09
-6.63
-10.61
-14.9
-19.26
-23.4
-26.99
-29.67
-30.95
-30.41
-27.74
-23.01
-16.65
-9.43
-2.18
4.37
9.78
13.81
16.39
17.55
17.43
16.27
14.54
12.77
11.41
10.69
10.57
10.73
10.82
10.58
9.93
8.92
7.65
6.16
4.41
2.29
-0.3
-3.39
-6.92
-10.79
-14.92
-19.2
-23.44
-27.27
-30.08
-31.17
-29.96
-26.26
-20.39
-13.07
-5.2
2.38
9.1
14.65
18.95
22.04
24.04
25.11
25.47
25.37
25.01
24.53
24.0
23.44
22.82
22.04
20.98
19.53
17.62
15.34
12.81
10.17
7.44
4.52
1.27
-2.36
-6.27
-10.24
-13.98
-17.25
-19.88
-21.77
-22.87
-23.13
-22.58
-21.26
-19.29
-16.81
-13.94
-10.82
-7.62
-4.5
-1.64
0.85
2.92
4.56
5.76
6.47
6.63
6.16
5.1
3.58
1.84
0.13
-1.41
-2.74
-3.95
-5.16
-6.51
-8.05
-9.81
-11.82
-14.07
-16.6
-19.35
-22.24
-25.04
-27.47
-29.29
-30.31
-30.46
-29.69
-27.97
-25.22
-21.38
-16.59
-11.16
-5.66
-0.69
3.28
6.04
7.65
8.37
8.43
7.96
7.0
5.55
3.69
1.62
-0.45
-2.34
-4.03
-5.62
-7.29
-9.19
-11.34
-13.66
-16.0
-18.27
-20.44
-22.59
-24.84
-27.25
-29.78
-32.2
-34.11
-34.94
-34.08
-31.03
-25.64
-18.25
-9.72
-1.16
6.36
12.2
16.34
19.26
21.64
23.94
26.18
28.02
28.99
28.87
27.81
26.25
24.61
23.07
21.46
19.44
16.78
13.57
10.19
7.14
4.74
2.92
1.3
-0.72
-3.51
-7.12
-11.16
-15.05
-18.18
-20.2
-20.98
-20.58
-19.1
-16.67
-13.44
-9.65
-5.74
-2.16
0.67
2.55
3.47
3.62
3.15
2.17
0.78
-0.92
-2.78
-4.66
-6.43
-8.01
-9.29
-10.13
-10.41
-10.05
-9.16
-7.97
-6.81
-5.96
-5.66
-6.04
-7.18
-9.13
-11.93
-15.47
-19.49
-23.55
-27.06
-29.34
-29.71
-27.72
-23.21
-16.56
-8.57
-0.35
7.07
13.05
17.48
20.67
23.03
24.83
26.03
26.43
25.89
24.51
22.63
20.7
19.04
17.72
16.52
15.15
13.4
11.24
8.81
6.35
4.04
1.88
-0.23
-2.53
-5.25
-8.5
-12.22
-16.1
-19.64
-22.27
-23.48
-23.01
-20.85
-17.23
-12.53
-7.14
-1.48
4.06
9.05
13.03
15.63
16.68
16.31
14.94
13.16
11.56
10.47
9.94
9.76
9.62
9.25
8.49
7.34
5.8
3.91
1.66
-0.91
-3.76
-6.8
-9.99
-13.37
-17.07
-21.2
-25.66
-29.98
-33.29
-34.54
-32.93
-28.22
-20.91
-12.1
-3.13
4.91
11.33
15.94
18.81
20.11
20.03
18.8
16.79
14.49
12.39
10.8
9.7
8.82
7.71
5.97
3.43
0.19
-3.39
-6.85
-9.82
-12.18
-14.08
-15.93
-18.2
-21.29
-25.31
-30.01
-34.75
-38.6
-40.57
-39.81
-35.99
-29.35
-20.72
-11.28
-2.16
5.89
12.61
18.19
22.94
27.14
30.81
33.83
36.1
37.65
38.68
39.4
39.9
40.06
39.65
38.42
36.31
33.5
30.31
27.06
23.96
21.06
18.28
15.54
12.8
10.06
7.34
4.62
1.9
-0.76
-3.19
-5.13
-6.34
-6.65
-6.06
-4.64
-2.54
0.06
2.98
5.99
8.81
11.13
12.69
13.36
13.23
12.52
11.46
10.26
9.02
7.77
6.52
5.29
4.08
2.88
1.63
0.24
-1.35
-3.14
-5.1
-7.13
-9.15
-11.11
-13.02
-14.93
-16.86
-18.79
-20.62
-22.18
-23.23
-23.45
-22.56
-20.32
-16.66
-11.73
-5.94
0.11
5.77
10.5
14.07
16.48
17.98
18.85
19.3
19.47
19.44
19.29
19.12
18.93
18.61
17.9
16.55
14.38
11.5
8.2
4.91
1.96
-0.51
-2.58
-4.41
-6.13
-7.73
-9.06
-9.92
-10.09
-9.5
-8.18
-6.27
-4.02
-1.72
0.34
1.93
2.87
3.14
2.85
2.2
1.45
0.78
0.29
-0.05
-0.34
-0.7
-1.2
-1.86
-2.62
-3.42
-4.24
-5.11
-6.12
-7.38
-8.96
-10.86
-13.04
-15.38
-17.74
-20.0
-22.06
-23.79
-25.11
-25.87
-25.87
-24.89
-22.76
-19.39
-14.84
-9.39
-3.49
2.29
7.37
11.32
13.94
15.33
15.76
15.56
14.96
14.08
12.95
11.59
10.12
8.7
7.48
6.47
5.54
4.48
3.14
1.47
-0.45
-2.49
-4.58
-6.69
-8.85
-11.0
-13.02
-14.66
-15.68
-15.92
-15.37
-14.12
-12.32
-10.09
-7.42
-4.3
-0.82
2.85
6.37
9.39
11.71
13.27
14.17
14.52
14.44
13.99
13.29
12.55
12.04
11.96
12.26
12.65
12.7
12.04
10.54
8.29
5.56
2.57
-0.47
-3.54
-6.62
-9.71
-12.86
-16.08
-19.33
-22.48
-25.22
-27.12
-27.76
-26.83
-24.32
-20.5
-15.9
-11.12
-6.76
-3.24
-0.79
0.6
1.08
0.9
0.29
-0.61
-1.71
-2.92
-4.14
-5.25
-6.22
-7.12
-8.15
-9.54
-11.4
-13.77
-16.52
-19.5
-22.51
-25.35
-27.81
-29.64
-30.69
-30.99
-30.78
-30.43
-30.25
-30.24
-30.03
-28.95
-26.37
-21.94
-15.79
-8.43
-0.59
7.04
13.98
19.92
24.66
28.05
29.95
30.35
29.4
27.46
25.02
22.51
20.22
18.2
16.31
14.33
12.09
9.55
6.85
4.2
1.77
-0.45
-2.67
-5.27
-8.56
-12.61
-17.13
-21.5
-24.94
-26.75
-26.49
-24.05
-19.61
-13.57
-6.48
1.08
8.49
15.19
20.77
25.07
28.19
30.4
32.04
33.31
34.29
34.87
34.98
34.58
33.74
32.63
31.35
29.97
28.43
26.61
24.38
21.6
18.14
13.91
8.86
3.0
-3.59
-10.74
-18.13
-25.28
-31.55
-36.24
-38.82
-39.18
-37.66
-34.9
-31.55
-27.88
-23.76
-18.82
-12.89
-6.28
0.22
5.54
8.82
9.65
8.26
5.29
1.57
-2.2
-5.56
-8.35
-10.63
-12.52
-14.22
-15.8
-17.31
-18.71
-19.84
-20.4
-19.87
-17.68
-13.33
-6.72
1.79
11.39
21.1
30.08
37.77
44.01
48.82
52.32
54.6
55.8
56.07
55.64
54.72
53.47
52.03
50.56
49.24
48.2
47.54
47.22
47.06
46.81
46.2
45.02
43.13
40.51
37.2
33.32
29.03
24.46
19.71
14.8
9.69
4.33
-1.33
-7.26
-13.33
-19.31
-24.82
-29.45
-32.79
-34.64
-35.05
-34.4
-33.2
-32.0
-31.15
-30.7
-30.54
-30.48
-30.46
-30.56
-30.98
-31.88
-33.25
-34.91
-36.52
-37.79
-38.59
-39.0
-39.25
-39.61
-40.25
-41.15
-42.16
-43.08
-43.77
-44.35
-45.13
-46.53
-48.87
-52.2
-56.2
-60.18
-63.2
-64.27
-62.58
-57.64
-49.49
-38.65
-26.02
-12.7
0.22
11.79
21.24
28.07
32.08
33.54
33.09
31.69
30.3
29.54
29.53
29.9
30.09
29.64
28.38
26.48
24.21
21.82
19.42
16.96
14.33
11.4
8.06
4.27
0.11
-4.1
-7.86
-10.5
-11.4
-10.14
-6.61
-1.16
5.58
12.81
19.66
25.38
29.38
31.26
30.85
28.25
23.79
18.0
11.51
4.96
-1.09
-6.21
-10.14
-12.83
-14.47
-15.55
-16.68
-18.42
-21.11
-24.71
-28.9
-33.33
-37.86
-42.7
-48.2
-54.56
-61.39
-67.62
-71.8
-72.51
-68.98
-61.32
-50.38
-37.46
-23.76
-10.19
2.7
14.56
25.02
33.69
40.22
44.5
46.78
47.55
47.44
46.98
46.45
45.83
44.94
43.53
41.48
38.82
35.75
32.46
29.03
25.24
20.65
14.75
7.18
-2.03
-12.36
-22.94
-32.63
-40.26
-44.86
-45.77
-42.84
-36.39
-27.24
-16.46
-5.16
5.71
15.46
23.66
30.04
34.45
36.89
37.5
36.63
34.73
32.31
29.77
27.39
25.33
23.59
22.12
20.73
19.21
17.29
14.79
11.66
7.97
3.96
-0.08
-3.94
-7.59
-11.17
-14.93
-18.99
-23.12
-26.72
-28.88
-28.69
-25.63
-19.68
-11.42
-1.69
8.62
18.81
28.37
36.85
43.76
48.6
51.01
50.99
48.94
45.62
41.86
38.28
35.15
32.39
29.69
26.77
23.4
19.52
15.2
10.59
5.86
1.24
-3.09
-7.0
-10.49
-13.72
-16.94
-20.4
-24.26
-28.4
-32.35
-35.37
-36.58
-35.21
-30.89
-23.73
-14.35
-3.73
7.07
17.07
25.53
32.02
36.37
38.61
38.96
37.7
35.24
32.02
28.48
25.02
21.91
19.23
16.9
14.72
12.45
9.93
7.14
4.14
1.08
-1.97
-4.99
-8.12
-11.53
-15.38
-19.67
-24.14
-28.24
-31.2
-32.25
-30.86
-26.94
-20.94
-13.68
-6.06
1.13
7.39
12.47
16.26
18.66
19.63
19.23
17.73
15.59
13.32
11.33
9.74
8.42
7.05
5.36
3.29
0.99
-1.24
-3.16
-4.67
-5.92
-7.14
-8.6
-10.41
-12.62
-15.2
-18.1
-21.2
-24.13
-26.28
-26.76
-24.83
-20.14
-13.09
-4.67
3.82
11.3
17.23
21.65
24.92
27.37
29.06
29.8
29.35
27.74
25.28
22.5
19.79
17.28
14.79
11.99
8.68
4.92
1.05
-2.51
-5.45
-7.77
-9.73
-11.81
-14.47
-18.02
-22.5
-27.58
-32.67
-37.04
-40.03
-41.16
-40.26
-37.38
-32.81
-26.97
-20.34
-13.45
-6.85
-1.02
3.63
6.86
8.6
8.92
8.07
6.42
4.44
2.58
1.16
0.24
-0.36
-1.01
-2.02
-3.58
-5.63
-7.92
-10.21
-12.31
-14.19
-15.96
-17.72
-19.6
-21.72
-24.22
-27.13
-30.28
-33.16
-34.93
-34.63
-31.61
-25.8
-17.85
-8.94
-0.32
7.03
12.66
16.53
18.83
19.76
19.41
17.91
15.51
12.67
9.95
7.83
6.52
5.82
5.28
4.34
2.66
0.22
-2.62
-5.34
-7.56
-9.2
-10.52
-11.97
-13.96
-16.72
-20.24
-24.33
-28.7
-32.96
-36.56
-38.79
-38.92
-36.41
-31.21
-23.75
-14.89
-5.61
3.26
11.15
17.7
22.67
25.91
27.38
27.26
26.06
24.45
23.04
22.2
21.86
21.65
21.1
19.89
17.98
15.54
12.88
10.25
7.82
5.64
3.7
1.93
0.14
-1.96
-4.71
-8.35
-12.74
-17.32
-21.1
-22.95
-21.93
-17.68
-10.49
-1.26
8.8
18.56
27.21
34.32
39.83
43.84
46.57
48.27
49.21
49.64
49.81
49.86
49.84
49.73
49.5
49.11
48.56
47.85
47.01
46.09
45.19
44.48
44.16
44.38
45.26
46.87
49.19
52.03
54.91
56.98
57.26
54.96
49.93
42.87
35.19
28.5
24.0
22.03
22.08
23.14
24.23
24.77
24.67
24.18
23.6
23.18
23.06
23.36
24.1
25.1
25.82
25.46
23.15
18.39
11.36
2.93
-5.67
-13.28
-19.27
-23.62
-26.7
-29.03
-31.06
-33.16
-35.67
-38.9
-42.96
-47.6
-52.13
-55.6
-57.18
-56.52
-53.81
-49.68
-44.88
-40.05
-35.6
-31.86
-29.11
-27.67
-27.75
-29.24
-31.57
-33.73
-34.62
-33.47
-30.21
-25.6
-20.93
-17.45
-15.89
-16.2
-17.76
-19.81
-21.9
-23.95
-26.11
-28.36
-30.37
-31.6
-31.67
-30.65
-29.15
-28.03
-28.01
-29.32
-31.61
-34.16
-36.12
-36.88
-36.22
-34.3
-31.58
-28.6
-25.84
-23.63
-22.06
-21.09
-20.57
-20.28
-19.95
-19.26
-17.89
-15.62
-12.39
-8.41
-4.14
-0.23
2.68
4.18
4.17
2.94
1.02
-1.01
-2.66
-3.64
-3.97
-3.83
-3.52
-3.36
-3.57
-4.24
-5.29
-6.5
-7.58
-8.25
-8.37
-7.89
-6.86
-5.34
-3.41
-1.16
1.24
3.48
5.24
6.21
6.29
5.57
4.3
2.81
1.43
0.44
0.1
0.62
2.04
4.26
6.95
9.63
11.86
13.28
13.8
13.47
12.49
11.06
9.35
7.49
5.56
3.63
1.77
-0.01
-1.75
-3.51
-5.38
-7.35
-9.34
-11.1
-12.38
-12.95
-12.72
-11.76
-10.2
-8.18
-5.8
-3.13
-0.26
2.64
5.31
7.52
9.1
10.05
10.45
10.45
10.18
9.73
9.13
8.36
7.34
6.05
4.51
2.87
1.33
0.03
-0.97
-1.81
-2.7
-3.87
-5.42
-7.32
-9.45
-11.64
-13.77
-15.74
-17.47
-18.87
-19.88
-20.46
-20.53
-19.88
-18.24
-15.28
-10.82
-4.99
1.71
8.59
14.94
20.31
24.59
27.94
30.61
32.81
34.6
35.94
36.74
36.97
36.7
36.04
35.11
33.94
32.48
30.65
28.39
25.68
22.53
18.84
14.4
8.97
2.4
-5.12
-13.04
-20.64
-27.26
-32.52
-36.41
-39.05
-40.52
-40.67
-39.22
-36.01
-31.2
-25.36
-19.3
-13.84
-9.5
-6.43
-4.4
-3.02
-1.9
-0.91
-0.14
0.12
-0.36
-1.64
-3.45
-5.31
-6.77
-7.63
-8.06
-8.54
-9.6
-11.55
-14.35
-17.62
-20.83
-23.57
-25.62
-27.09
-28.27
-29.56
-31.27
-33.45
-35.87
-37.94
-38.91
-37.99
-34.61
-28.54
-19.92
-9.28
2.59
14.69
25.98
35.49
42.48
46.66
48.19
47.63
45.66
42.94
39.93
36.91
34.08
31.63
29.7
28.3
27.21
26.0
24.25
21.71
18.55
15.29
12.62
11.12
11.0
11.95
13.24
13.92
13.16
10.45
5.79
-0.29
-6.84
-12.68
-16.59
-17.64
-15.44
-10.29
-3.07
5.04
12.83
19.49
24.61
28.18
30.43
31.61
31.95
31.58
30.62
29.14
27.25
25.09
22.78
20.39
17.97
15.51
12.96
10.29
7.5
4.66
1.84
-0.87
-3.4
-5.63
-7.37
-8.42
-8.71
-8.49
-8.31
-8.87
-10.71
-13.8
-17.47
-20.48
-21.57
-19.92
-15.57
-9.38
-2.68
3.31
7.93
11.11
13.14
14.2
14.12
12.44
8.81
3.27
-3.55
-10.64
-17.05
-22.16
-25.85
-28.34
-29.96
-31.05
-31.9
-32.86
-34.27
-36.45
-39.6
-43.83
-49.09
-55.16
-61.56
-67.52
-72.11
-74.54
-74.46
-72.11
-68.2
-63.49
-58.48
-53.32
-47.97
-42.51
-37.29
-32.73
-29.03
-25.98
-23.18
-20.53
-18.51
-18.08
-20.07
-24.66
-31.14
-38.22
-44.66
-49.67
-53.12
-55.27
-56.32
-56.15
-54.52
-51.48
-47.59
-43.79
-41.06
-40.04
-40.9
-43.44
-47.08
-51.11
-54.74
-56.95
-56.45
-51.9
-42.37
-27.73
-8.79
13.4
37.33
61.11
82.71
100.39
112.99
120.16
122.41
121.16
119.32
119.41
122.36
127.15
131.61
133.68
132.32
127.73
121.2
115.87
113.88
115.14
117.49
118.46
116.76
112.86
108.58
106.33
110.21
122.58
142.66
166.7
189.61
206.83
215.17
213.07
188.72
138.73
71.66
5.35
-43.97
-69.65
-74.43
-66.49
-55.63
-50.04
-50.89
-57.49
-68.56
-82.79
-98.8
-114.96
-129.49
-140.74
-147.15
-146.09
-134.22
-112.36
-84.81
-57.47
-35.41
-21.22
-14.42
-12.19
-9.89
-4.23
5.18
16.31
26.28
33.03
36.1
36.36
35.13
33.77
32.5
30.22
25.48
17.54
6.83
-5.21
-16.91
-27.09
-35.3
-41.88
-47.72
-53.45
-59.1
-64.14
-67.72
-69.08
-67.87
-64.21
-58.76
-52.64
-47.11
-43.23
-41.61
-42.14
-44.03
-45.98
-46.52
-44.32
-38.53
-28.89
-15.99
-1.17
13.65
26.34
35.09
38.8
37.27
31.13
21.73
10.9
0.86
-6.08
-8.05
-4.25
4.53
16.08
27.45
36.15
41.15
43.03
43.27
43.01
42.12
39.24
32.71
21.79
7.49
-7.73
-20.93
-30.06
-34.62
-35.53
-34.33
-32.36
-30.26
-28.11
-25.86
-23.61
-21.6
-19.9
-18.1
-15.29
-10.41
-2.82
7.15
17.92
27.08
32.35
32.7
29.19
24.83
23.63
28.96
42.25
62.34
85.99
109.07
127.85
139.93
144.34
141.37
132.02
117.67
99.88
80.22
60.17
40.96
23.52
8.34
-4.47
-15.13
-24.09
-31.77
-38.39
-43.88
-47.89
-50.1
-50.47
-49.39
-47.55
-45.75
-44.52
-44.01
-43.96
-43.97
-43.59
-42.59
-40.94
-38.82
-36.46
-34.1
-31.9
-29.87
-27.96
-26.06
-24.16
-22.33
-20.74
-19.5
-18.62
-17.97
-17.34
-16.57
-15.61
-14.51
-13.4
-12.34
-11.37
-10.45
-9.58
-8.77
-8.13
-7.68
-7.37
-7.1
-6.71
-6.12
-5.34
-4.55
-3.95
-3.71
-3.92
-4.49
-5.23
-5.91
-6.4
-6.63
-6.65
-6.54
-6.29
-5.9
-5.36
-4.72
-4.12
-3.72
-3.61
-3.75
-3.95
-4.0
-3.8
-3.38
-2.9
-2.53
-2.34
-2.29
-2.26
-2.19
-2.11
-2.09
-2.18
-2.28
-2.27
-2.04
-1.69
-1.55
-2.05
-3.51
-5.95
-8.97
-11.95
-14.31
-15.69
-16.08
-15.77
-15.05
-14.15
-13.11
-11.85
-10.28
-8.34
-6.06
-3.52
-0.85
1.76
4.01
5.6
6.28
5.97
4.79
3.14
1.42
0.01
-0.93
-1.47
-1.83
-2.29
-3.11
-4.47
-6.41
-8.82
-11.4
-13.67
-15.05
-15.04
-13.37
-10.21
-6.13
-1.85
1.98
5.02
7.3
9.1
10.67
12.15
13.43
14.34
14.74
14.68
14.31
13.85
13.41
12.99
12.49
11.81
10.85
9.58
8.0
6.11
3.96
1.66
-0.63
-2.69
-4.32
-5.41
-5.94
-6.02
-5.86
-5.77
-6.07
-7.07
-8.92
-11.53
-14.56
-17.47
-19.7
-20.85
-20.8
-19.81
-18.29
-16.68
-15.27
-14.15
-13.23
-12.39
-11.55
-10.75
-10.11
-9.71
-9.58
-9.6
-9.64
-9.6
-9.47
-9.33
-9.28
-9.35
-9.5
-9.63
-9.64
-9.52
-9.33
-9.14
-8.96
-8.77
-8.49
-8.15
-7.87
-7.9
-8.43
-9.49
-10.86
-12.12
-12.85
-12.74
-11.71
-9.96
-7.78
-5.44
-3.16
-0.99
1.05
2.99
4.82
6.5
7.95
9.1
9.86
10.18
10.03
9.49
8.71
7.97
7.58
7.81
8.76
10.32
12.13
13.74
14.72
14.82
14.06
12.66
10.93
9.17
7.52
5.96
4.36
2.59
0.6
-1.56
-3.73
-5.71
-7.32
-8.39
-8.74
-8.19
-6.63
-4.15
-1.08
2.03
4.56
6.04
6.36
5.78
4.83
4.07
3.9
4.43
5.47
6.68
7.62
7.96
7.48
6.16
4.14
1.72
-0.73
-2.88
-4.41
-5.16
-5.14
-4.53
-3.71
-3.06
-2.94
-3.53
-4.81
-6.56
-8.49
-10.29
-11.73
-12.61
-12.82
-12.24
-10.78
-8.38
-5.08
-1.02
3.5
8.09
12.35
15.93
18.72
20.82
22.5
24.0
25.41
26.59
27.27
27.22
26.38
24.93
23.13
21.21
19.26
17.21
14.96
12.47
9.87
7.37
5.17
3.34
1.78
0.27
-1.45
-3.56
-6.1
-8.95
-11.91
-14.7
-17.03
-18.57
-18.98
-17.97
-15.35
-11.19
-5.84
0.13
6.05
11.36
15.73
19.08
21.48
23.06
23.93
24.18
23.96
23.44
22.74
21.87
20.67
18.91
16.47
13.46
10.17
6.94
3.96
1.16
-1.7
-4.84
-8.39
-12.27
-16.34
-20.49
-24.65
-28.75
-32.6
-35.92
-38.32
-39.51
-39.29
-37.67
-34.79
-30.95
-26.52
-21.86
-17.27
-12.91
-8.8
-4.85
-1.04
2.49
5.35
7.05
7.14
5.52
2.5
-1.21
-4.65
-7.05
-7.98
-7.61
-6.55
-5.65
-5.63
-6.85
-9.24
-12.41
-15.91
-19.36
-22.61
-25.7
-28.75
-31.9
-35.19
-38.49
-41.55
-44.04
-45.55
-45.67
-44.1
-40.87
-36.6
-32.51
-30.33
-31.78
-37.9
-48.5
-62.05
-75.98
-87.36
-93.41
-91.79
-80.41
-57.51
-22.16
24.8
79.93
137.27
189.39
229.41
252.92
259.09
250.42
231.58
207.64
182.73
159.28
138.04
118.56
99.99
81.59
63.18
45.1
27.92
12.07
-2.38
-15.58
-27.47
-37.59
-45.19
-49.71
-51.27
-50.89
-50.09
-50.2
-51.78
-54.43
-57.12
-58.78
-58.84
-57.37
-54.95
-52.31
-49.94
-47.96
-46.17
-44.17
-41.68
-38.64
-35.28
-32.06
-29.41
-27.59
-26.61
-26.21
-26.01
-25.71
-25.18
-24.51
-23.96
-23.86
-24.52
-26.16
-28.82
-32.26
-35.86
-38.64
-39.47
-37.31
-31.7
-22.9
-11.91
-0.17
10.86
20.12
27.17
32.06
35.15
36.78
37.19
36.5
34.87
32.59
30.04
27.61
25.46
23.54
21.57
19.22
16.3
12.85
9.09
5.32
1.74
-1.59
-4.76
-7.94
-11.3
-14.98
-19.1
-23.74
-28.92
-34.49
-39.99
-44.67
-47.54
-47.66
-44.41
-37.71
-28.13
-16.69
-4.67
6.7
16.51
24.23
29.7
33.11
34.81
35.24
34.82
33.91
32.77
31.58
30.46
29.52
28.82
28.34
28.0
27.65
27.14
26.33
25.18
23.71
22.0
20.07
17.89
15.37
12.46
9.14
5.42
1.28
-3.37
-8.63
-14.49
-20.64
-26.35
-30.57
-32.23
-30.6
-25.64
-18.04
-9.05
-0.03
7.94
14.33
19.17
22.77
25.52
27.59
28.93
29.38
28.86
27.49
25.63
23.7
22.04
20.77
19.84
19.09
18.46
17.95
17.6
17.4
17.15
16.56
15.27
13.11
10.11
6.53
2.75
-0.89
-4.23
-7.34
-10.54
-14.22
-18.67
-23.96
-29.78
-35.43
-40.02
-42.62
-42.5
-39.33
-33.22
-24.75
-14.89
-4.75
4.52
12.05
17.32
20.28
21.22
20.7
19.34
17.69
16.2
15.15
14.7
14.86
15.53
16.52
17.53
18.19
18.16
17.15
15.06
12.06
8.53
5.03
2.02
-0.25
-1.86
-3.17
-4.69
-6.93
-10.27
-14.85
-20.45
-26.52
-32.13
-36.21
-37.77
-36.2
-31.51
-24.32
-15.64
-6.57
1.95
9.29
15.15
19.43
22.16
23.5
23.67
22.99
21.78
20.29
18.64
16.84
14.84
12.69
10.49
8.42
6.63
5.13
3.74
2.21
0.31
-2.06
-4.82
-7.79
-10.71
-13.42
-15.86
-18.14
-20.44
-23.03
-26.08
-29.57
-33.17
-36.28
-38.09
-37.8
-34.93
-29.44
-21.84
-12.96
-3.8
4.75
12.07
17.85
21.99
24.61
25.88
26.06
25.42
24.25
22.75
21.1
19.38
17.68
16.09
14.7
13.63
12.92
12.54
12.35
12.14
11.69
10.8
9.42
7.59
5.46
3.22
1.0
-1.15
-3.33
-5.72
-8.53
-11.96
-16.07
-20.7
-25.4
-29.42
-31.9
-32.09
-29.68
-24.94
-18.64
-11.8
-5.27
0.43
5.2
9.16
12.43
15.04
16.92
18.08
18.62
18.76
18.73
18.64
18.49
18.2
17.71
17.12
16.63
16.47
16.75
17.38
18.07
18.39
17.96
16.59
14.35
11.5
8.39
5.36
2.56
-0.02
-2.52
-5.18
-8.28
-12.04
-16.5
-21.36
-25.95
-29.34
-30.54
-28.9
-24.32
-17.29
-8.75
0.27
8.88
16.45
22.62
27.18
30.04
31.28
31.16
30.2
29.02
28.22
28.11
28.66
29.5
30.07
29.91
28.84
27.07
25.09
23.49
22.64
22.58
22.98
23.28
22.88
21.37
18.55
14.4
9.07
2.85
-3.88
-10.63
-16.94
-22.48
-27.16
-31.16
-34.74
-38.11
-41.25
-43.84
-45.39
-45.4
-43.58
-39.95
-34.81
-28.71
-22.27
-16.06
-10.49
-5.78
-2.0
0.87
2.94
4.31
5.15
5.65
6.01
6.33
6.6
6.71
6.56
6.11
5.49
4.9
4.54
4.47
4.59
4.68
4.52
3.96
2.98
1.65
0.09
-1.54
-3.08
-4.45
-5.69
-7.01
-8.73
-11.11
-14.16
-17.58
-20.76
-22.99
-23.71
-22.64
-19.85
-15.64
-10.4
-4.62
1.22
6.63
11.14
14.42
16.33
16.94
16.52
15.43
14.0
12.49
11.1
9.88
8.82
7.81
6.7
5.34
3.57
1.32
-1.4
-4.48
-7.66
-10.59
-12.89
-14.32
-14.91
-15.01
-15.19
-16.0
-17.79
-20.51
-23.74
-26.81
-29.0
-29.75
-28.73
-25.88
-21.42
-15.78
-9.52
-3.22
2.63
7.75
12.12
15.91
19.42
22.88
26.36
29.73
32.69
34.85
35.88
35.59
33.93
31.04
27.16
22.68
18.02
13.59
9.66
6.32
3.49
0.98
-1.42
-3.84
-6.29
-8.76
-11.22
-13.73
-16.42
-19.45
-22.87
-26.58
-30.25
-33.34
-35.26
-35.5
-33.81
-30.27
-25.3
-19.53
-13.6
-8.02
-3.15
0.85
3.92
6.06
7.29
7.7
7.44
6.68
5.61
4.42
3.21
2.06
1.02
0.11
-0.67
-1.36
-2.06
-2.88
-3.89
-5.08
-6.37
-7.63
-8.8
-9.82
-10.73
-11.64
-12.69
-14.05
-15.91
-18.32
-21.19
-24.11
-26.42
-27.4
-26.45
-23.37
-18.44
-12.37
-6.01
-0.16
4.74
8.53
11.36
13.5
15.16
16.52
17.65
18.59
19.37
20.05
20.64
21.16
21.57
21.9
22.17
22.48
22.9
23.46
24.06
24.54
24.71
24.46
23.75
22.61
21.12
19.43
17.68
15.95
14.13
11.87
8.65
4.0
-2.24
-9.68
-17.35
-24.02
-28.54
-30.29
-29.25
-26.0
-21.37
-16.22
-11.23
-6.86
-3.35
-0.73
1.11
2.41
3.41
4.29
5.08
5.67
5.94
5.76
5.07
3.92
2.41
0.63
-1.25
-3.12
-4.87
-6.44
-7.85
-9.2
-10.62
-12.24
-14.1
-16.14
-18.21
-20.14
-21.76
-22.96
-23.68
-23.81
-23.11
-21.33
-18.19
-13.66
-8.02
-1.88
3.93
8.69
11.99
13.82
14.51
14.49
14.1
13.5
12.71
11.64
10.22
8.4
6.23
3.82
1.33
-1.08
-3.32
-5.39
-7.49
-9.8
-12.48
-15.5
-18.56
-21.26
-23.26
-24.56
-25.6
-27.15
-29.94
-34.24
-39.52
-44.43
-47.24
-46.52
-41.85
-34.15
-25.41
-17.92
-13.41
-12.26
-13.54
-15.48
-16.39
-15.38
-12.6
-9.0
-5.73
-3.75
-3.66
-5.63
-8.93
-11.32
-8.8
3.73
30.49
72.49
125.99
183.01
233.87
270.87
290.84
295.62
290.2
279.77
267.6
254.54
240.25
224.79
209.48
196.48
187.62
183.34
182.41
182.64
182.09
179.91
176.64
173.63
172.12
172.36
173.36
173.03
168.96
159.25
143.21
121.64
96.6
70.82
47.06
27.35
12.73
3.2
-1.91
-3.57
-2.84
-0.92
0.73
0.27
-4.22
-14.22
-30.2
-51.43
-76.22
-102.79
-130.1
-158.42
-188.98
-222.98
-260.35
-299.0
-335.03
-363.85
-381.77
-387.22
-381.15
-366.41
-346.62
-325.08
-304.07
-284.85
-267.81
-252.69
-238.64
-224.13
-207.38
-187.12
-163.57
-138.75
-116.07
-98.9
-89.0
-85.61
-85.7
-85.41
-81.74
-73.68
-62.37
-50.06
-38.98
-30.37
-24.4
-20.58
-18.32
-17.25
-17.12
-17.62
-18.22
-18.24
-17.03
-14.35
-10.4
-5.81
-1.25
2.79
6.28
9.51
12.94
16.87
21.3
25.97
30.46
34.35
37.3
39.03
39.34
38.21
35.88
32.87
29.83
27.28
25.35
23.75
21.92
19.35
15.8
11.36
6.36
1.16
-3.97
-8.93
-13.61
-17.83
-21.38
-24.17
-26.27
-28.0
-29.79
-31.98
-34.72
-37.77
-40.48
-42.01
-41.55
-38.62
-33.28
-26.07
-17.87
-9.71
-2.32
4.01
9.27
13.56
16.85
18.94
19.58
18.7
16.23
12.58
8.5
4.7
1.49
-1.3
-4.14
-7.44
-11.41
-16.56
-22.82
-29.66
-36.49
-43.02
-49.34
-55.77
-62.47
-69.48
-77.72
-87.37
-97.86
-108.13
-117.11
-123.79
-127.26
-126.47
-120.57
-110.52
-96.92
-80.02
-59.96
-37.26
-12.9
11.7
35.23
63.76
96.61
128.45
153.13
168.51
176.56
182.51
189.6
199.02
210.66
220.48
225.54
224.57
217.96
207.06
193.68
179.53
166.42
155.84
147.69
141.79
137.48
133.28
126.85
115.7
98.36
75.55
50.01
24.89
3.52
-11.88
-20.83
-24.53
-24.95
-24.05
-22.97
-22.21
-22.22
-23.08
-24.59
-26.3
-27.62
-28.01
-27.26
-25.59
-23.69
-22.61
-23.06
-25.16
-28.35
-31.73
-34.5
-36.26
-37.09
-37.41
-37.7
-38.28
-39.31
-40.86
-42.92
-45.5
-48.56
-51.97
-55.57
-59.13
-62.37
-64.86
-65.9
-64.62
-60.2
-52.32
-41.39
-28.59
-15.6
-4.03
5.02
11.28
15.14
17.32
18.4
18.76
18.56
17.93
17.11
16.51
16.66
18.01
20.61
23.96
27.39
30.35
32.69
34.62
36.57
38.92
41.72
44.45
46.09
45.77
43.07
38.0
30.73
21.4
10.34
-1.66
-13.28
-23.04
-29.32
-31.16
-28.81
-23.92
-19.66
-19.38
-24.36
-32.29
-40.91
-48.79
-55.64
-62.34
-69.82
-78.66
-88.38
-97.5
-104.28
-107.69
-107.58
-104.6
-99.73
-93.82
-87.4
-80.78
-74.34
-68.41
-62.63
-54.65
-40.1
-14.09
26.31
79.84
140.77
200.62
251.23
287.36
307.89
314.84
311.35
300.02
282.66
261.1
237.93
216.33
198.85
186.16
176.55
166.58
152.64
132.8
107.61
79.85
53.26
30.93
14.21
2.45
-6.47
-14.94
-24.6
-35.79
-47.77
-59.41
-69.92
-79.35
-88.24
-97.15
-106.02
-114.03
-120.09
-123.43
-124.08
-123.02
-121.58
-120.87
-121.28
-122.41
-123.39
-123.35
-121.67
-118.04
-112.38
-104.72
-95.1
-83.79
-71.32
-58.57
-46.58
-36.26
-28.12
-22.16
-17.94
-14.82
-12.21
-9.7
-7.03
-4.1
-0.85
2.71
6.49
10.28
13.82
16.88
19.3
21.1
22.4
23.47
24.53
25.75
27.18
28.72
30.16
31.26
31.88
31.98
31.65
31.01
30.16
29.12
27.92
26.64
25.47
24.62
24.23
24.24
24.43
24.49
24.15
23.33
22.12
20.7
19.29
17.98
16.81
15.78
14.91
14.25
13.81
13.52
13.23
12.78
12.05
11.1
10.06
9.1
8.26
7.39
6.17
4.28
1.49
-2.21
-6.69
-11.63
-16.66
-21.37
-25.36
-28.33
-30.14
-30.91
-30.94
-30.62
-30.3
-30.11
-30.03
-29.92
-29.62
-29.05
-28.21
-27.16
-25.98
-24.77
-23.63
-22.6
-21.76
-21.17
-20.94
-21.21
-22.05
-23.44
-25.25
-27.21
-29.09
-30.8
-32.4
-34.09
-36.07
-38.46
-41.19
-44.09
-46.87
-49.19
-50.7
-50.96
-49.56
-46.18
-40.72
-33.4
-24.77
-15.55
-6.49
1.77
8.78
14.27
18.08
20.16
20.61
19.66
17.67
15.03
12.08
8.99
5.82
2.54
-0.83
-4.21
-7.47
-10.48
-13.14
-15.42
-17.39
-19.18
-21.08
-23.41
-26.51
-30.47
-35.0
-39.37
-42.51
-43.28
-40.84
-34.94
-26.01
-15.07
-3.35
8.0
18.16
26.66
33.29
37.94
40.5
40.87
39.16
35.73
31.21
26.33
21.7
17.59
13.88
10.26
6.45
2.36
-1.83
-5.78
-9.17
-11.95
-14.3
-16.7
-19.67
-23.62
-28.76
-34.98
-41.82
-48.51
-54.0
-57.21
-57.23
-53.63
-46.56
-36.81
-25.49
-13.81
-2.75
7.08
15.34
21.84
26.45
29.04
29.64
28.52
26.2
23.42
20.82
18.84
17.57
16.8
16.19
15.41
14.33
12.94
11.39
9.85
8.43
7.08
5.63
3.78
1.17
-2.53
-7.52
-13.69
-20.55
-27.21
-32.47
-35.16
-34.49
-30.28
-23.11
-14.01
-4.19
5.32
13.88
21.16
27.0
31.27
33.8
34.54
33.62
31.45
28.56
25.45
22.41
19.47
16.47
13.21
9.59
5.67
1.61
-2.39
-6.21
-9.85
-13.43
-17.13
-21.17
-25.74
-30.98
-36.79
-42.8
-48.24
-52.07
-53.2
-50.8
-44.58
-34.92
-22.75
-9.23
4.52
17.71
29.79
40.43
49.32
56.14
60.65
62.81
62.87
61.37
59.0
56.45
54.15
52.27
50.69
49.1
47.15
44.54
41.13
36.96
32.17
26.96
21.42
15.57
9.32
2.57
-4.78
-12.78
-21.37
-30.3
-39.04
-46.69
-52.12
-54.16
-51.99
-45.4
-35.0
-22.02
-8.0
5.63
17.81
27.99
36.02
41.94
45.87
47.89
48.13
46.8
44.27
40.99
37.44
33.95
30.66
27.54
24.44
21.23
17.84
14.28
10.58
6.81
3.05
-0.65
-4.22
-7.68
-11.1
-14.68
-18.74
-23.61
-29.52
-36.37
-43.57
-50.0
-54.16
-54.59
-50.3
-41.16
-27.98
-12.26
4.23
19.95
33.86
45.44
54.49
61.0
64.97
66.53
65.99
63.85
60.79
57.42
54.17
51.24
48.58
46.1
43.65
41.21
38.81
36.49
34.23
31.93
29.36
26.29
22.53
18.07
13.03
7.65
2.2
-3.2
-8.53
-13.95
-19.69
-26.0
-33.03
-40.7
-48.57
-55.76
-61.03
-63.06
-60.87
-54.19
-43.54
-30.13
-15.47
-0.9
12.56
24.37
34.28
42.18
48.06
51.98
54.09
54.73
54.28
53.22
51.92
50.67
49.52
48.4
47.03
45.13
42.48
39.07
35.11
30.94
26.86
22.98
19.15
15.1
10.57
5.5
0.07
-5.4
-10.58
-15.34
-19.72
-23.93
-28.21
-32.8
-37.86
-43.45
-49.39
-55.22
-60.16
-63.17
-63.29
-59.93
-53.12
-43.55
-32.34
-20.66
-9.49
0.57
9.17
16.12
21.25
24.47
25.83
25.65
24.41
22.69
20.94
19.4
18.11
17.02
16.04
15.18
14.45
13.82
13.23
12.55
11.61
10.3
8.55
6.36
3.82
1.04
-1.85
-4.8
-7.81
-11.02
-14.64
-18.9
-23.92
-29.62
-35.54
-40.86
-44.6
-45.75
-43.68
-38.33
-30.28
-20.54
-10.28
-0.5
8.15
15.33
20.95
24.99
27.51
28.64
28.59
27.65
26.12
24.24
22.16
19.99
17.82
15.73
13.78
11.92
10.06
8.03
5.73
3.09
0.17
-3.0
-6.37
-9.87
-13.42
-16.89
-20.2
-23.39
-26.69
-30.42
-34.77
-39.63
-44.43
-48.21
-49.89
-48.6
-43.97
-36.26
-26.28
-15.19
-4.16
5.82
14.15
20.56
25.06
27.75
28.78
28.26
26.36
23.35
19.55
15.33
10.96
6.64
2.48
-1.4
-4.88
-7.81
-10.18
-12.09
-13.86
-15.9
-18.51
-21.82
-25.65
-29.68
-33.52
-36.87
-39.58
-41.67
-43.23
-44.38
-45.16
-45.48
-45.01
-43.27
-39.62
-33.5
-24.57
-12.93
0.88
15.92
31.13
45.52
58.39
69.41
78.47
85.63
90.99
94.68
96.86
97.74
97.55
96.5
94.69
92.14
88.89
85.07
80.96
76.97
73.39
70.25
67.2
63.64
58.85
52.33
43.98
34.02
22.98
11.41
-0.23
-11.66
-22.8
-33.65
-44.26
-54.58
-64.42
-73.32
-80.59
-85.44
-87.13
-85.31
-80.12
-72.26
-62.76
-52.73
-43.07
-34.35
-26.77
-20.3
-14.87
-10.43
-7.02
-4.68
-3.41
-3.06
-3.38
-4.06
-4.87
-5.64
-6.31
-6.88
-7.39
-7.87
-8.35
-8.83
-9.36
-9.95
-10.68
-11.55
-12.62
-13.91
-15.46
-17.31
-19.53
-22.1
-24.94
-27.81
-30.2
-31.49
-31.04
-28.43
-23.64
-17.14
-9.7
-2.18
4.7
10.55
15.22
18.69
20.96
21.97
21.68
20.14
17.62
14.54
11.37
8.51
6.17
4.35
2.84
1.41
-0.16
-1.91
-3.76
-5.57
-7.22
-8.7
-10.08
-11.52
-13.1
-14.92
-17.11
-19.82
-23.19
-27.16
-31.35
-35.02
-37.18
-36.97
-33.91
-28.06
-19.95
-10.39
-0.25
9.75
18.98
26.95
33.33
37.93
40.8
42.12
42.19
41.32
39.78
37.83
35.75
33.8
32.13
30.74
29.43
27.91
25.91
23.32
20.21
16.77
13.14
9.38
5.35
0.88
-4.23
-10.1
-16.71
-23.9
-31.36
-38.59
-44.93
-49.62
-51.86
-51.1
-47.2
-40.56
-32.06
-22.83
-14.0
-6.36
-0.26
4.31
7.57
9.78
11.09
11.61
11.4
10.58
9.33
7.82
6.21
4.59
2.96
1.28
-0.47
-2.29
-4.1
-5.81
-7.32
-8.66
-9.91
-11.24
-12.81
-14.74
-17.12
-19.98
-23.29
-26.87
-30.31
-32.98
-34.07
-32.85
-28.95
-22.51
-14.18
-4.97
4.02
11.92
18.16
22.52
25.1
26.1
25.78
24.36
22.05
19.16
16.03
13.07
10.61
8.8
7.6
6.75
5.97
5.07
3.97
2.71
1.32
-0.19
-1.85
-3.69
-5.65
-7.63
-9.61
-11.65
-13.95
-16.7
-19.97
-23.58
-27.06
-29.75
-30.92
-29.98
-26.63
-20.95
-13.36
-4.59
4.57
13.35
21.19
27.67
32.56
35.74
37.21
37.11
35.74
33.53
30.94
28.4
26.14
24.22
22.52
20.82
18.87
16.51
13.65
10.35
6.76
3.07
-0.62
-4.3
-8.13
-12.33
-17.13
-22.65
-28.8
-35.2
-41.17
-45.8
-48.1
-47.32
-43.19
-36.04
-26.7
-16.31
-5.95
3.59
11.88
18.73
24.09
27.96
30.33
31.28
30.97
29.67
27.68
25.26
22.6
19.82
17.01
14.2
11.41
8.61
5.78
2.9
0.02
-2.78
-5.46
-8.05
-10.69
-13.63
-17.06
-21.11
-25.71
-30.59
-35.23
-38.93
-40.88
-40.39
-37.0
-30.66
-21.86
-11.5
-0.72
9.4
18.04
24.77
29.47
32.25
33.26
32.66
30.6
27.37
23.35
19.02
14.87
11.23
8.25
5.84
3.81
1.91
-0.0
-2.0
-4.1
-6.26
-8.49
-10.8
-13.25
-15.85
-18.64
-21.63
-24.9
-28.59
-32.8
-37.55
-42.51
-47.0
-50.01
-50.41
-47.36
-40.58
-30.53
-18.29
-5.23
7.36
18.57
27.94
35.39
40.96
44.7
46.64
46.84
45.57
43.25
40.46
37.72
35.37
33.54
32.14
30.99
29.83
28.48
26.81
24.72
22.21
19.31
16.04
12.41
8.42
4.03
-0.81
-6.12
-11.92
-18.15
-24.62
-30.93
-36.41
-40.27
-41.71
-40.21
-35.72
-28.73
-20.1
-10.88
-2.0
5.9
12.52
17.77
21.72
24.38
25.81
26.06
25.27
23.69
21.62
19.36
17.1
14.94
12.86
10.79
8.62
6.25
3.65
0.86
-2.01
-4.85
-7.58
-10.24
-12.92
-15.7
-18.62
-21.65
-24.7
-27.74
-30.8
-33.89
-36.93
-39.56
-41.16
-40.99
-38.41
-33.16
-25.48
-16.07
-5.93
3.95
12.8
20.23
26.11
30.53
33.57
35.22
35.47
34.33
32.02
28.91
25.49
22.13
19.06
16.23
13.47
10.6
7.55
4.36
1.2
-1.84
-4.7
-7.43
-10.09
-12.76
-15.5
-18.38
-21.54
-25.09
-29.05
-33.18
-36.86
-39.17
-39.12
-35.97
-29.56
-20.44
-9.75
1.13
10.98
19.04
25.1
29.37
32.25
34.08
35.07
35.26
34.64
33.18
30.86
27.66
23.6
18.77
13.39
7.89
2.92
-0.83
-2.86
-3.12
-2.16
-1.03
-0.94
-2.88
-7.26
-13.87
-22.04
-30.99
-40.12
-49.15
-58.0
-66.56
-74.41
-80.74
-84.47
-84.56
-80.37
-71.98
-60.23
-46.47
-32.2
-18.59
-6.22
4.81
14.74
23.75
31.83
38.76
44.28
48.32
51.1
53.09
54.86
56.85
59.32
62.23
65.44
68.75
71.97
74.86
77.07
78.11
77.46
74.71
69.83
63.12
55.24
46.93
38.83
31.34
24.63
18.74
13.64
9.38
6.02
3.63
2.18
1.55
1.59
2.22
3.48
5.54
8.56
12.45
16.75
20.61
23.04
23.21
20.78
16.06
9.89
3.45
-2.19
-6.28
-8.65
-9.67
-10.1
-10.79
-12.42
-15.28
-19.25
-23.94
-28.84
-33.45
-37.43
-40.52
-42.61
-43.71
-44.02
-43.89
-43.73
-43.87
-44.36
-44.92
-44.99
-43.8
-40.57
-34.65
-25.71
-13.8
0.52
16.4
32.75
48.62
63.21
75.88
85.91
92.41
94.39
91.08
82.34
68.89
52.21
34.12
16.27
-0.26
-15.08
-28.31
-40.35
-51.58
-62.3
-72.68
-82.76
-92.53
-101.73
-109.84
-116.0
-119.12
-118.28
-113.09
-104.06
-92.57
-80.42
-69.25
-59.93
-52.4
-45.94
-39.64
-32.96
-25.82
-18.5
-11.34
-4.49
2.1
8.52
14.71
20.41
25.24
28.8
30.93
31.78
31.78
31.55
31.72
32.71
34.66
37.39
40.59
43.97
47.39
50.89
54.54
58.25
61.69
64.3
65.49
64.87
62.48
58.81
54.71
51.12
48.81
48.17
49.21
51.6
54.87
58.54
62.2
65.56
68.44
70.7
72.24
72.97
72.76
71.53
69.23
65.96
61.95
57.55
53.07
48.72
44.54
40.5
36.55
32.78
29.42
26.74
25.05
24.54
25.39
27.71
31.59
36.93
43.36
50.21
56.49
61.15
63.32
62.53
58.77
52.37
43.76
33.21
20.83
6.6
-9.35
-26.67
-44.8
-63.19
-81.56
-99.9
-118.24
-136.28
-153.03
-166.79
-175.6
-177.89
-173.03
-161.58
-144.94
-124.92
-103.18
-81.01
-59.39
-39.08
-20.76
-4.85
8.58
19.89
29.64
38.32
46.1
52.84
58.5
63.7
69.99
79.62
94.75
116.36
143.4
172.66
199.39
218.53
226.17
220.57
202.43
174.6
141.16
106.43
74.11
46.58
24.62
7.39
-7.13
-21.44
-37.74
-57.28
-80.05
-105.0
-130.51
-155.15
-178.11
-199.18
-218.3
-235.01
-248.1
-255.95
-257.21
-251.58
-240.11
-224.81
-207.86
-190.85
-174.43
-158.62
-143.39
-129.07
-116.22
-105.25
-95.98
-87.51
-78.66
-68.59
-57.24
-45.35
-34.04
-24.34
-16.74
-11.12
-6.93
-3.55
-0.55
2.2
4.56
6.26
7.11
7.11
6.44
5.41
4.35
3.49
2.93
2.59
2.24
1.6
0.36
-1.67
-4.54
-8.13
-12.21
-16.5
-20.81
-25.04
-29.2
-33.31
-37.27
-40.75
-43.18
-43.92
-42.38
-38.27
-31.74
-23.33
-13.89
-4.32
4.58
12.25
18.4
22.87
25.67
26.96
27.04
26.37
25.44
24.65
24.18
23.96
23.72
23.15
22.02
20.26
17.92
15.16
12.15
9.06
6.02
3.09
0.25
-2.62
-5.78
-9.47
-13.84
-18.79
-23.83
-28.13
-30.73
-30.76
-27.76
-21.88
-13.78
-4.46
5.06
13.98
21.84
28.42
33.62
37.35
39.51
40.05
39.11
36.99
34.18
31.18
28.33
25.75
23.31
20.78
17.92
14.72
11.34
8.15
5.51
3.66
2.58
2.04
1.59
0.75
-0.89
-3.56
-7.13
-11.14
-14.78
-17.03
-16.95
-13.95
-7.99
0.4
10.27
20.57
30.36
39.03
46.19
51.69
55.41
57.29
57.33
55.66
52.59
48.63
44.36
40.33
36.89
34.08
31.63
29.15
26.29
22.98
19.44
16.08
13.28
11.21
9.76
8.63
7.45
5.88
3.68
0.75
-2.88
-6.94
-10.96
-14.28
-16.18
-16.16
-14.08
-10.25
-5.3
0.04
5.14
9.6
13.28
16.13
18.11
19.12
19.05
17.89
15.82
13.21
10.47
7.96
5.79
3.9
2.09
0.2
-1.81
-3.85
-5.79
-7.54
-9.13
-10.69
-12.43
-14.56
-17.23
-20.43
-24.03
-27.67
-30.85
-32.93
-33.31
-31.6
-27.74
-22.12
-15.43
-8.56
-2.27
2.93
6.87
9.61
11.32
12.13
12.12
11.38
10.1
8.62
7.33
6.49
6.17
6.15
6.16
5.98
5.61
5.14
4.71
4.4
4.14
3.75
2.95
1.48
-0.85
-4.15
-8.49
-13.75
-19.56
-25.14
-29.49
-31.57
-30.66
-26.41
-19.18
-9.94
0.04
9.62
18.09
25.32
31.52
37.06
42.51
48.03
53.17
57.1
59.24
59.57
58.71
57.52
56.9
58.08
61.56
66.7
72.0
76.03
78.1
78.3
77.11
75.45
75.3
77.91
82.97
88.8
93.54
96.35
97.66
98.54
100.96
108.15
122.08
142.18
165.55
188.46
207.81
221.47
227.53
215.38
180.48
128.35
72.36
24.58
-9.79
-31.13
-42.06
-48.0
-51.11
-50.86
-47.37
-42.87
-41.31
-46.58
-61.1
-81.29
-104.32
-127.24
-147.36
-163.9
-178.39
-194.05
-214.28
-241.55
-276.74
-319.25
-365.16
-406.98
-435.75
-443.82
-427.63
-388.66
-332.48
-266.41
-197.51
-130.17
-66.32
-7.24
44.9
86.95
116.25
132.34
137.7
136.58
133.51
131.56
131.45
131.97
131.17
127.75
121.67
113.97
105.97
98.79
92.84
87.79
82.92
77.42
70.9
63.43
55.48
47.68
40.5
34.09
28.22
22.49
16.58
10.42
4.21
-1.77
-7.31
-12.43
-17.3
-22.05
-26.65
-30.78
-33.93
-35.6
-35.44
-33.4
